'Elapsed time','ECG'
'seconds','mV'
0.000,-0.252
0.005,-0.426
0.010,-0.382
0.015,-0.350
0.020,-0.369
0.025,-0.338
0.030,-0.328
0.035,-0.321
0.040,-0.303
0.045,-0.286
0.050,-0.272
0.055,-0.263
0.060,-0.249
0.065,-0.232
0.070,-0.221
0.075,-0.205
0.080,-0.187
0.085,-0.173
0.090,-0.158
0.095,-0.145
0.100,-0.136
0.105,-0.128
0.110,-0.116
0.115,-0.100
0.120,-0.089
0.125,-0.079
0.130,-0.070
0.135,-0.065
0.140,-0.058
0.145,-0.045
0.150,-0.039
0.155,-0.033
0.160,-0.023
0.165,-0.017
0.170,-0.017
0.175,-0.014
0.180,-0.010
0.185,-0.011
0.190,-0.006
0.195,0.002
0.200,0.003
0.205,0.003
0.210,0.008
0.215,0.009
0.220,0.007
0.225,0.011
0.230,0.017
0.235,0.018
0.240,0.016
0.245,0.017
0.250,0.016
0.255,0.013
0.260,0.016
0.265,0.015
0.270,0.013
0.275,0.021
0.280,0.025
0.285,0.021
0.290,0.022
0.295,0.027
0.300,0.031
0.305,0.033
0.310,0.035
0.315,0.036
0.320,0.035
0.325,0.041
0.330,0.047
0.335,0.044
0.340,0.043
0.345,0.049
0.350,0.048
0.355,0.045
0.360,0.051
0.365,0.054
0.370,0.051
0.375,0.054
0.380,0.057
0.385,0.050
0.390,0.048
0.395,0.050
0.400,0.052
0.405,0.053
0.410,0.056
0.415,0.054
0.420,0.047
0.425,0.050
0.430,0.057
0.435,0.050
0.440,0.044
0.445,0.050
0.450,0.058
0.455,0.068
0.460,0.085
0.465,0.099
0.470,0.101
0.475,0.102
0.480,0.110
0.485,0.129
0.490,0.158
0.495,0.163
0.500,0.134
0.505,0.106
0.510,0.086
0.515,0.063
0.520,0.041
0.525,0.023
0.530,-0.002
0.535,-0.033
0.540,-0.041
0.545,-0.038
0.550,-0.039
0.555,-0.040
0.560,-0.038
0.565,-0.039
0.570,-0.042
0.575,-0.039
0.580,-0.034
0.585,-0.031
0.590,-0.026
0.595,-0.022
0.600,-0.021
0.605,-0.022
0.610,-0.015
0.615,-0.005
0.620,0.012
0.625,0.067
0.630,0.158
0.635,0.248
0.640,0.372
0.645,0.484
0.650,0.273
0.655,-0.124
0.660,-0.226
0.665,-0.238
0.670,-0.346
0.675,-0.361
0.680,-0.309
0.685,-0.280
0.690,-0.265
0.695,-0.219
0.700,-0.154
0.705,-0.081
0.710,0.002
0.715,0.055
0.720,0.082
0.725,0.112
0.730,0.130
0.735,0.131
0.740,0.129
0.745,0.132
0.750,0.136
0.755,0.134
0.760,0.132
0.765,0.131
0.770,0.129
0.775,0.130
0.780,0.132
0.785,0.126
0.790,0.124
0.795,0.128
0.800,0.121
0.805,0.117
0.810,0.123
0.815,0.124
0.820,0.118
0.825,0.120
0.830,0.128
0.835,0.130
0.840,0.126
0.845,0.126
0.850,0.130
0.855,0.132
0.860,0.138
0.865,0.146
0.870,0.147
0.875,0.147
0.880,0.148
0.885,0.148
0.890,0.146
0.895,0.144
0.900,0.141
0.905,0.130
0.910,0.122
0.915,0.114
0.920,0.097
0.925,0.079
0.930,0.057
0.935,0.028
0.940,-0.002
0.945,-0.031
0.950,-0.062
0.955,-0.097
0.960,-0.128
0.965,-0.156
0.970,-0.186
0.975,-0.209
0.980,-0.224
0.985,-0.240
0.990,-0.253
0.995,-0.255
1.000,-0.257
1.005,-0.259
1.010,-0.253
1.015,-0.245
1.020,-0.241
1.025,-0.233
1.030,-0.221
1.035,-0.216
1.040,-0.209
1.045,-0.196
1.050,-0.187
1.055,-0.179
1.060,-0.168
1.065,-0.158
1.070,-0.153
1.075,-0.142
1.080,-0.129
1.085,-0.120
1.090,-0.110
1.095,-0.098
1.100,-0.090
1.105,-0.084
1.110,-0.075
1.115,-0.066
1.120,-0.061
1.125,-0.054
1.130,-0.044
1.135,-0.040
1.140,-0.036
1.145,-0.029
1.150,-0.025
1.155,-0.021
1.160,-0.014
1.165,-0.008
1.170,-0.010
1.175,-0.011
1.180,-0.007
1.185,-0.008
1.190,-0.010
1.195,-0.007
1.200,-0.008
1.205,-0.013
1.210,-0.012
1.215,-0.007
1.220,-0.008
1.225,-0.007
1.230,-0.006
1.235,-0.010
1.240,-0.013
1.245,-0.009
1.250,-0.010
1.255,-0.013
1.260,-0.008
1.265,-0.005
1.270,-0.007
1.275,-0.005
1.280,-0.001
1.285,-0.002
1.290,-0.004
1.295,0.001
1.300,0.003
1.305,0.001
1.310,0.004
1.315,0.008
1.320,0.006
1.325,0.007
1.330,0.012
1.335,0.012
1.340,0.007
1.345,0.010
1.350,0.016
1.355,0.014
1.360,0.014
1.365,0.017
1.370,0.015
1.375,0.019
1.380,0.026
1.385,0.026
1.390,0.022
1.395,0.023
1.400,0.025
1.405,0.025
1.410,0.030
1.415,0.033
1.420,0.030
1.425,0.029
1.430,0.026
1.435,0.020
1.440,0.025
1.445,0.042
1.450,0.058
1.455,0.070
1.460,0.082
1.465,0.091
1.470,0.098
1.475,0.110
1.480,0.134
1.485,0.145
1.490,0.122
1.495,0.101
1.500,0.085
1.505,0.052
1.510,0.025
1.515,0.010
1.520,-0.015
1.525,-0.044
1.530,-0.053
1.535,-0.053
1.540,-0.054
1.545,-0.049
1.550,-0.047
1.555,-0.051
1.560,-0.049
1.565,-0.044
1.570,-0.046
1.575,-0.044
1.580,-0.036
1.585,-0.032
1.590,-0.032
1.595,-0.028
1.600,-0.021
1.605,-0.011
1.610,0.006
1.615,0.054
1.620,0.136
1.625,0.227
1.630,0.344
1.635,0.469
1.640,0.324
1.645,-0.065
1.650,-0.231
1.655,-0.250
1.660,-0.344
1.665,-0.378
1.670,-0.336
1.675,-0.296
1.680,-0.272
1.685,-0.234
1.690,-0.176
1.695,-0.102
1.700,-0.017
1.705,0.040
1.710,0.076
1.715,0.105
1.720,0.112
1.725,0.114
1.730,0.121
1.735,0.123
1.740,0.123
1.745,0.129
1.750,0.128
1.755,0.123
1.760,0.126
1.765,0.128
1.770,0.121
1.775,0.121
1.780,0.127
1.785,0.125
1.790,0.123
1.795,0.126
1.800,0.126
1.805,0.123
1.810,0.125
1.815,0.129
1.820,0.129
1.825,0.131
1.830,0.138
1.835,0.140
1.840,0.139
1.845,0.144
1.850,0.146
1.855,0.146
1.860,0.155
1.865,0.161
1.870,0.158
1.875,0.159
1.880,0.163
1.885,0.156
1.890,0.146
1.895,0.146
1.900,0.139
1.905,0.121
1.910,0.109
1.915,0.097
1.920,0.073
1.925,0.049
1.930,0.024
1.935,-0.007
1.940,-0.042
1.945,-0.074
1.950,-0.104
1.955,-0.137
1.960,-0.161
1.965,-0.180
1.970,-0.203
1.975,-0.221
1.980,-0.229
1.985,-0.234
1.990,-0.238
1.995,-0.235
2.000,-0.231
2.005,-0.228
2.010,-0.219
2.015,-0.211
2.020,-0.208
2.025,-0.200
2.030,-0.187
2.035,-0.180
2.040,-0.172
2.045,-0.159
2.050,-0.148
2.055,-0.142
2.060,-0.131
2.065,-0.118
2.070,-0.112
2.075,-0.105
2.080,-0.093
2.085,-0.085
2.090,-0.079
2.095,-0.068
2.100,-0.058
2.105,-0.054
2.110,-0.044
2.115,-0.035
2.120,-0.033
2.125,-0.028
2.130,-0.019
2.135,-0.018
2.140,-0.016
2.145,-0.009
2.150,-0.007
2.155,-0.009
2.160,-0.005
2.165,0.000
2.170,-0.001
2.175,-0.002
2.180,0.002
2.185,0.000
2.190,-0.002
2.195,0.004
2.200,0.002
2.205,-0.004
2.210,0.002
2.215,0.007
2.220,0.004
2.225,0.002
2.230,0.005
2.235,0.005
2.240,0.004
2.245,0.008
2.250,0.009
2.255,0.004
2.260,0.009
2.265,0.014
2.270,0.011
2.275,0.009
2.280,0.017
2.285,0.021
2.290,0.018
2.295,0.022
2.300,0.025
2.305,0.022
2.310,0.025
2.315,0.031
2.320,0.029
2.325,0.030
2.330,0.033
2.335,0.030
2.340,0.030
2.345,0.039
2.350,0.043
2.355,0.041
2.360,0.044
2.365,0.045
2.370,0.039
2.375,0.039
2.380,0.048
2.385,0.044
2.390,0.042
2.395,0.050
2.400,0.050
2.405,0.049
2.410,0.066
2.415,0.085
2.420,0.081
2.425,0.072
2.430,0.071
2.435,0.067
2.440,0.059
2.445,0.056
2.450,0.052
2.455,0.042
2.460,0.040
2.465,0.046
2.470,0.049
2.475,0.059
2.480,0.073
2.485,0.077
2.490,0.078
2.495,0.079
2.500,0.084
2.505,0.107
2.510,0.132
2.515,0.124
2.520,0.092
2.525,0.073
2.530,0.064
2.535,0.040
2.540,0.011
2.545,-0.010
2.550,-0.039
2.555,-0.070
2.560,-0.073
2.565,-0.065
2.570,-0.069
2.575,-0.071
2.580,-0.067
2.585,-0.070
2.590,-0.073
2.595,-0.067
2.600,-0.061
2.605,-0.058
2.610,-0.051
2.615,-0.044
2.620,-0.049
2.625,-0.047
2.630,-0.030
2.635,-0.019
2.640,-0.010
2.645,0.040
2.650,0.129
2.655,0.218
2.660,0.343
2.665,0.452
2.670,0.251
2.675,-0.124
2.680,-0.225
2.685,-0.248
2.690,-0.359
2.695,-0.371
2.700,-0.320
2.705,-0.294
2.710,-0.272
2.715,-0.223
2.720,-0.161
2.725,-0.083
2.730,0.006
2.735,0.056
2.740,0.081
2.745,0.113
2.750,0.125
2.755,0.125
2.760,0.131
2.765,0.137
2.770,0.140
2.775,0.140
2.780,0.140
2.785,0.137
2.790,0.136
2.795,0.138
2.800,0.136
2.805,0.130
2.810,0.130
2.815,0.133
2.820,0.132
2.825,0.130
2.830,0.131
2.835,0.132
2.840,0.129
2.845,0.136
2.850,0.142
2.855,0.139
2.860,0.140
2.865,0.144
2.870,0.145
2.875,0.150
2.880,0.158
2.885,0.159
2.890,0.158
2.895,0.157
2.900,0.160
2.905,0.160
2.910,0.156
2.915,0.153
2.920,0.149
2.925,0.144
2.930,0.139
2.935,0.127
2.940,0.110
2.945,0.098
2.950,0.079
2.955,0.050
2.960,0.026
2.965,0.003
2.970,-0.030
2.975,-0.065
2.980,-0.094
2.985,-0.126
2.990,-0.156
2.995,-0.175
3.000,-0.194
3.005,-0.213
3.010,-0.223
3.015,-0.226
3.020,-0.226
3.025,-0.227
3.030,-0.223
3.035,-0.223
3.040,-0.223
3.045,-0.211
3.050,-0.204
3.055,-0.200
3.060,-0.182
3.065,-0.168
3.070,-0.166
3.075,-0.159
3.080,-0.146
3.085,-0.136
3.090,-0.127
3.095,-0.117
3.100,-0.106
3.105,-0.100
3.110,-0.092
3.115,-0.080
3.120,-0.075
3.125,-0.070
3.130,-0.056
3.135,-0.051
3.140,-0.052
3.145,-0.040
3.150,-0.030
3.155,-0.030
3.160,-0.022
3.165,-0.014
3.170,-0.015
3.175,-0.015
3.180,-0.009
3.185,-0.003
3.190,-0.007
3.195,-0.007
3.200,-0.004
3.205,-0.011
3.210,-0.011
3.215,-0.006
3.220,-0.006
3.225,-0.004
3.230,0.001
3.235,0.001
3.240,-0.002
3.245,0.001
3.250,0.002
3.255,-0.003
3.260,-0.002
3.265,0.002
3.270,-0.002
3.275,-0.011
3.280,-0.007
3.285,-0.004
3.290,-0.008
3.295,-0.001
3.300,0.004
3.305,0.001
3.310,0.005
3.315,0.008
3.320,0.002
3.325,0.000
3.330,0.008
3.335,0.013
3.340,0.007
3.345,0.007
3.350,0.011
3.355,0.006
3.360,0.005
3.365,0.011
3.370,0.012
3.375,0.009
3.380,0.015
3.385,0.018
3.390,0.014
3.395,0.017
3.400,0.022
3.405,0.017
3.410,0.014
3.415,0.021
3.420,0.027
3.425,0.023
3.430,0.020
3.435,0.014
3.440,0.010
3.445,0.017
3.450,0.024
3.455,0.023
3.460,0.021
3.465,0.022
3.470,0.023
3.475,0.021
3.480,0.026
3.485,0.033
3.490,0.042
3.495,0.058
3.500,0.072
3.505,0.069
3.510,0.063
3.515,0.081
3.520,0.118
3.525,0.136
3.530,0.128
3.535,0.105
3.540,0.083
3.545,0.073
3.550,0.061
3.555,0.035
3.560,-0.003
3.565,-0.037
3.570,-0.057
3.575,-0.065
3.580,-0.065
3.585,-0.064
3.590,-0.065
3.595,-0.063
3.600,-0.063
3.605,-0.063
3.610,-0.060
3.615,-0.057
3.620,-0.058
3.625,-0.054
3.630,-0.048
3.635,-0.049
3.640,-0.053
3.645,-0.044
3.650,-0.031
3.655,-0.002
3.660,0.082
3.665,0.190
3.670,0.306
3.675,0.454
3.680,0.397
3.685,0.016
3.690,-0.238
3.695,-0.248
3.700,-0.315
3.705,-0.394
3.710,-0.366
3.715,-0.316
3.720,-0.301
3.725,-0.277
3.730,-0.216
3.735,-0.142
3.740,-0.063
3.745,0.004
3.750,0.046
3.755,0.074
3.760,0.096
3.765,0.106
3.770,0.108
3.775,0.109
3.780,0.112
3.785,0.112
3.790,0.107
3.795,0.107
3.800,0.112
3.805,0.107
3.810,0.106
3.815,0.112
3.820,0.108
3.825,0.102
3.830,0.107
3.835,0.107
3.840,0.103
3.845,0.109
3.850,0.113
3.855,0.107
3.860,0.108
3.865,0.115
3.870,0.114
3.875,0.115
3.880,0.127
3.885,0.131
3.890,0.127
3.895,0.131
3.900,0.137
3.905,0.139
3.910,0.140
3.915,0.143
3.920,0.141
3.925,0.135
3.930,0.133
3.935,0.129
3.940,0.118
3.945,0.107
3.950,0.100
3.955,0.088
3.960,0.066
3.965,0.045
3.970,0.021
3.975,-0.009
3.980,-0.039
3.985,-0.072
3.990,-0.107
3.995,-0.137
4.000,-0.163
4.005,-0.191
4.010,-0.213
4.015,-0.224
4.020,-0.236
4.025,-0.246
4.030,-0.245
4.035,-0.246
4.040,-0.251
4.045,-0.243
4.050,-0.230
4.055,-0.226
4.060,-0.219
4.065,-0.204
4.070,-0.195
4.075,-0.189
4.080,-0.176
4.085,-0.169
4.090,-0.166
4.095,-0.154
4.100,-0.139
4.105,-0.132
4.110,-0.124
4.115,-0.112
4.120,-0.104
4.125,-0.098
4.130,-0.086
4.135,-0.074
4.140,-0.070
4.145,-0.063
4.150,-0.053
4.155,-0.048
4.160,-0.041
4.165,-0.032
4.170,-0.029
4.175,-0.029
4.180,-0.020
4.185,-0.013
4.190,-0.014
4.195,-0.012
4.200,-0.007
4.205,-0.008
4.210,-0.011
4.215,-0.004
4.220,0.000
4.225,-0.001
4.230,0.000
4.235,0.002
4.240,-0.001
4.245,-0.002
4.250,0.000
4.255,-0.002
4.260,-0.004
4.265,0.000
4.270,0.000
4.275,-0.001
4.280,0.002
4.285,0.002
4.290,-0.002
4.295,-0.001
4.300,0.008
4.305,0.008
4.310,0.003
4.315,0.008
4.320,0.011
4.325,0.008
4.330,0.009
4.335,0.010
4.340,0.010
4.345,0.011
4.350,0.018
4.355,0.020
4.360,0.015
4.365,0.018
4.370,0.021
4.375,0.017
4.380,0.016
4.385,0.021
4.390,0.023
4.395,0.023
4.400,0.025
4.405,0.024
4.410,0.022
4.415,0.026
4.420,0.027
4.425,0.025
4.430,0.027
4.435,0.028
4.440,0.028
4.445,0.032
4.450,0.039
4.455,0.038
4.460,0.032
4.465,0.036
4.470,0.038
4.475,0.034
4.480,0.040
4.485,0.050
4.490,0.057
4.495,0.071
4.500,0.087
4.505,0.092
4.510,0.086
4.515,0.084
4.520,0.106
4.525,0.141
4.530,0.157
4.535,0.140
4.540,0.111
4.545,0.094
4.550,0.082
4.555,0.057
4.560,0.029
4.565,0.000
4.570,-0.030
4.575,-0.049
4.580,-0.050
4.585,-0.048
4.590,-0.049
4.595,-0.047
4.600,-0.045
4.605,-0.044
4.610,-0.045
4.615,-0.042
4.620,-0.039
4.625,-0.037
4.630,-0.033
4.635,-0.030
4.640,-0.032
4.645,-0.027
4.650,-0.013
4.655,0.000
4.660,0.041
4.665,0.128
4.670,0.224
4.675,0.336
4.680,0.474
4.685,0.361
4.690,-0.035
4.695,-0.233
4.700,-0.250
4.705,-0.343
4.710,-0.388
4.715,-0.337
4.720,-0.293
4.725,-0.278
4.730,-0.238
4.735,-0.173
4.740,-0.101
4.745,-0.018
4.750,0.042
4.755,0.075
4.760,0.099
4.765,0.114
4.770,0.123
4.775,0.127
4.780,0.128
4.785,0.130
4.790,0.127
4.795,0.126
4.800,0.132
4.805,0.132
4.810,0.130
4.815,0.129
4.820,0.128
4.825,0.126
4.830,0.127
4.835,0.126
4.840,0.124
4.845,0.126
4.850,0.127
4.855,0.129
4.860,0.129
4.865,0.127
4.870,0.130
4.875,0.135
4.880,0.138
4.885,0.140
4.890,0.143
4.895,0.147
4.900,0.152
4.905,0.156
4.910,0.156
4.915,0.156
4.920,0.157
4.925,0.153
4.930,0.150
4.935,0.145
4.940,0.137
4.945,0.129
4.950,0.121
4.955,0.106
4.960,0.087
4.965,0.070
4.970,0.050
4.975,0.024
4.980,-0.003
4.985,-0.031
4.990,-0.065
4.995,-0.100
5.000,-0.129
5.005,-0.155
5.010,-0.180
5.015,-0.201
5.020,-0.216
5.025,-0.229
5.030,-0.236
5.035,-0.239
5.040,-0.240
5.045,-0.237
5.050,-0.231
5.055,-0.225
5.060,-0.219
5.065,-0.213
5.070,-0.204
5.075,-0.196
5.080,-0.187
5.085,-0.176
5.090,-0.166
5.095,-0.155
5.100,-0.144
5.105,-0.136
5.110,-0.127
5.115,-0.118
5.120,-0.109
5.125,-0.099
5.130,-0.087
5.135,-0.077
5.140,-0.071
5.145,-0.063
5.150,-0.050
5.155,-0.040
5.160,-0.037
5.165,-0.030
5.170,-0.023
5.175,-0.021
5.180,-0.016
5.185,-0.010
5.190,-0.008
5.195,-0.006
5.200,-0.002
5.205,0.003
5.210,0.006
5.215,0.014
5.220,0.022
5.225,0.022
5.230,0.024
5.235,0.024
5.240,0.024
5.245,0.030
5.250,0.038
5.255,0.042
5.260,0.039
5.265,0.040
5.270,0.039
5.275,0.029
5.280,0.026
5.285,0.026
5.290,0.020
5.295,0.016
5.300,0.015
5.305,0.013
5.310,0.009
5.315,0.011
5.320,0.011
5.325,0.007
5.330,0.006
5.335,0.005
5.340,0.002
5.345,-0.001
5.350,0.000
5.355,0.002
5.360,-0.002
5.365,-0.002
5.370,-0.002
5.375,-0.005
5.380,-0.001
5.385,0.001
5.390,-0.002
5.395,-0.003
5.400,0.000
5.405,0.002
5.410,-0.002
5.415,-0.001
5.420,0.002
5.425,0.002
5.430,0.006
5.435,0.009
5.440,0.005
5.445,0.004
5.450,0.005
5.455,0.006
5.460,0.007
5.465,0.007
5.470,0.009
5.475,0.007
5.480,0.009
5.485,0.013
5.490,0.012
5.495,0.013
5.500,0.021
5.505,0.029
5.510,0.039
5.515,0.055
5.520,0.064
5.525,0.060
5.530,0.056
5.535,0.071
5.540,0.102
5.545,0.127
5.550,0.126
5.555,0.101
5.560,0.078
5.565,0.068
5.570,0.052
5.575,0.026
5.580,0.001
5.585,-0.029
5.590,-0.056
5.595,-0.064
5.600,-0.060
5.605,-0.060
5.610,-0.059
5.615,-0.057
5.620,-0.058
5.625,-0.060
5.630,-0.057
5.635,-0.049
5.640,-0.044
5.645,-0.043
5.650,-0.042
5.655,-0.041
5.660,-0.037
5.665,-0.023
5.670,-0.008
5.675,0.009
5.680,0.072
5.685,0.164
5.690,0.257
5.695,0.391
5.700,0.443
5.705,0.166
5.710,-0.172
5.715,-0.225
5.720,-0.260
5.725,-0.362
5.730,-0.351
5.735,-0.299
5.740,-0.275
5.745,-0.245
5.750,-0.191
5.755,-0.125
5.760,-0.046
5.765,0.032
5.770,0.076
5.775,0.103
5.780,0.129
5.785,0.140
5.790,0.144
5.795,0.147
5.800,0.151
5.805,0.153
5.810,0.150
5.815,0.150
5.820,0.153
5.825,0.151
5.830,0.150
5.835,0.150
5.840,0.147
5.845,0.144
5.850,0.146
5.855,0.146
5.860,0.140
5.865,0.139
5.870,0.143
5.875,0.147
5.880,0.153
5.885,0.157
5.890,0.155
5.895,0.155
5.900,0.159
5.905,0.162
5.910,0.161
5.915,0.164
5.920,0.171
5.925,0.172
5.930,0.172
5.935,0.171
5.940,0.167
5.945,0.166
5.950,0.165
5.955,0.158
5.960,0.148
5.965,0.143
5.970,0.131
5.975,0.112
5.980,0.096
5.985,0.082
5.990,0.059
5.995,0.032
6.000,0.007
6.005,-0.021
6.010,-0.058
6.015,-0.088
6.020,-0.113
6.025,-0.144
6.030,-0.167
6.035,-0.179
6.040,-0.194
6.045,-0.209
6.050,-0.216
6.055,-0.216
6.060,-0.211
6.065,-0.203
6.070,-0.200
6.075,-0.199
6.080,-0.193
6.085,-0.184
6.090,-0.174
6.095,-0.163
6.100,-0.154
6.105,-0.148
6.110,-0.143
6.115,-0.130
6.120,-0.117
6.125,-0.114
6.130,-0.109
6.135,-0.095
6.140,-0.084
6.145,-0.077
6.150,-0.068
6.155,-0.062
6.160,-0.060
6.165,-0.052
6.170,-0.041
6.175,-0.037
6.180,-0.034
6.185,-0.028
6.190,-0.026
6.195,-0.022
6.200,-0.017
6.205,-0.015
6.210,-0.013
6.215,-0.008
6.220,-0.006
6.225,-0.009
6.230,-0.009
6.235,-0.004
6.240,-0.003
6.245,-0.006
6.250,-0.007
6.255,-0.005
6.260,-0.006
6.265,-0.007
6.270,-0.006
6.275,-0.008
6.280,-0.008
6.285,-0.008
6.290,-0.010
6.295,-0.010
6.300,-0.006
6.305,-0.004
6.310,-0.010
6.315,-0.011
6.320,-0.008
6.325,-0.008
6.330,-0.006
6.335,-0.002
6.340,-0.005
6.345,-0.007
6.350,-0.002
6.355,-0.001
6.360,-0.005
6.365,0.002
6.370,0.006
6.375,0.000
6.380,0.000
6.385,0.004
6.390,0.003
6.395,0.002
6.400,0.009
6.405,0.012
6.410,0.007
6.415,0.006
6.420,0.009
6.425,0.009
6.430,0.012
6.435,0.012
6.440,0.010
6.445,0.012
6.450,0.015
6.455,0.014
6.460,0.011
6.465,0.013
6.470,0.017
6.475,0.015
6.480,0.015
6.485,0.015
6.490,0.011
6.495,0.008
6.500,0.013
6.505,0.017
6.510,0.016
6.515,0.018
6.520,0.019
6.525,0.017
6.530,0.024
6.535,0.034
6.540,0.038
6.545,0.051
6.550,0.069
6.555,0.068
6.560,0.055
6.565,0.064
6.570,0.103
6.575,0.133
6.580,0.129
6.585,0.107
6.590,0.088
6.595,0.072
6.600,0.053
6.605,0.031
6.610,-0.002
6.615,-0.036
6.620,-0.054
6.625,-0.064
6.630,-0.070
6.635,-0.070
6.640,-0.070
6.645,-0.072
6.650,-0.068
6.655,-0.064
6.660,-0.066
6.665,-0.063
6.670,-0.058
6.675,-0.059
6.680,-0.056
6.685,-0.052
6.690,-0.049
6.695,-0.042
6.700,-0.033
6.705,-0.010
6.710,0.061
6.715,0.156
6.720,0.257
6.725,0.397
6.730,0.413
6.735,0.099
6.740,-0.209
6.745,-0.244
6.750,-0.289
6.755,-0.383
6.760,-0.370
6.765,-0.321
6.770,-0.300
6.775,-0.273
6.780,-0.219
6.785,-0.149
6.790,-0.069
6.795,0.002
6.800,0.049
6.805,0.083
6.810,0.102
6.815,0.108
6.820,0.114
6.825,0.118
6.830,0.120
6.835,0.124
6.840,0.126
6.845,0.126
6.850,0.126
6.855,0.124
6.860,0.118
6.865,0.116
6.870,0.118
6.875,0.119
6.880,0.122
6.885,0.121
6.890,0.116
6.895,0.115
6.900,0.120
6.905,0.124
6.910,0.123
6.915,0.128
6.920,0.131
6.925,0.130
6.930,0.132
6.935,0.138
6.940,0.139
6.945,0.138
6.950,0.141
6.955,0.140
6.960,0.138
6.965,0.142
6.970,0.143
6.975,0.136
6.980,0.132
6.985,0.129
6.990,0.118
6.995,0.106
7.000,0.100
7.005,0.089
7.010,0.069
7.015,0.051
7.020,0.031
7.025,0.001
7.030,-0.027
7.035,-0.053
7.040,-0.087
7.045,-0.119
7.050,-0.144
7.055,-0.168
7.060,-0.193
7.065,-0.208
7.070,-0.218
7.075,-0.233
7.080,-0.239
7.085,-0.235
7.090,-0.235
7.095,-0.236
7.100,-0.228
7.105,-0.222
7.110,-0.220
7.115,-0.208
7.120,-0.194
7.125,-0.191
7.130,-0.178
7.135,-0.163
7.140,-0.158
7.145,-0.149
7.150,-0.130
7.155,-0.122
7.160,-0.122
7.165,-0.107
7.170,-0.093
7.175,-0.092
7.180,-0.083
7.185,-0.071
7.190,-0.066
7.195,-0.059
7.200,-0.047
7.205,-0.043
7.210,-0.044
7.215,-0.034
7.220,-0.024
7.225,-0.027
7.230,-0.023
7.235,-0.013
7.240,-0.015
7.245,-0.017
7.250,-0.007
7.255,-0.005
7.260,-0.010
7.265,-0.004
7.270,-0.001
7.275,-0.010
7.280,-0.006
7.285,0.003
7.290,-0.005
7.295,-0.008
7.300,0.003
7.305,0.002
7.310,-0.005
7.315,0.002
7.320,0.005
7.325,-0.006
7.330,-0.005
7.335,0.004
7.340,0.000
7.345,-0.002
7.350,0.005
7.355,0.006
7.360,0.002
7.365,0.009
7.370,0.011
7.375,0.001
7.380,0.005
7.385,0.016
7.390,0.010
7.395,0.007
7.400,0.016
7.405,0.013
7.410,0.008
7.415,0.020
7.420,0.025
7.425,0.017
7.430,0.019
7.435,0.024
7.440,0.018
7.445,0.019
7.450,0.027
7.455,0.024
7.460,0.016
7.465,0.023
7.470,0.027
7.475,0.017
7.480,0.023
7.485,0.032
7.490,0.023
7.495,0.020
7.500,0.025
7.505,0.022
7.510,0.017
7.515,0.025
7.520,0.028
7.525,0.022
7.530,0.026
7.535,0.036
7.540,0.040
7.545,0.055
7.550,0.077
7.555,0.082
7.560,0.072
7.565,0.074
7.570,0.095
7.575,0.126
7.580,0.148
7.585,0.135
7.590,0.100
7.595,0.082
7.600,0.075
7.605,0.050
7.610,0.021
7.615,-0.002
7.620,-0.031
7.625,-0.054
7.630,-0.055
7.635,-0.054
7.640,-0.060
7.645,-0.058
7.650,-0.049
7.655,-0.052
7.660,-0.060
7.665,-0.050
7.670,-0.043
7.675,-0.052
7.680,-0.050
7.685,-0.039
7.690,-0.042
7.695,-0.039
7.700,-0.020
7.705,-0.012
7.710,0.018
7.715,0.111
7.720,0.208
7.725,0.305
7.730,0.448
7.735,0.371
7.740,-0.010
7.745,-0.230
7.750,-0.244
7.755,-0.329
7.760,-0.395
7.765,-0.349
7.770,-0.300
7.775,-0.288
7.780,-0.247
7.785,-0.182
7.790,-0.117
7.795,-0.035
7.800,0.032
7.805,0.066
7.810,0.090
7.815,0.114
7.820,0.121
7.825,0.116
7.830,0.121
7.835,0.130
7.840,0.127
7.845,0.124
7.850,0.131
7.855,0.127
7.860,0.119
7.865,0.126
7.870,0.129
7.875,0.122
7.880,0.124
7.885,0.130
7.890,0.124
7.895,0.122
7.900,0.130
7.905,0.129
7.910,0.123
7.915,0.129
7.920,0.134
7.925,0.128
7.930,0.134
7.935,0.145
7.940,0.142
7.945,0.141
7.950,0.150
7.955,0.153
7.960,0.150
7.965,0.156
7.970,0.159
7.975,0.149
7.980,0.146
7.985,0.148
7.990,0.138
7.995,0.125
8.000,0.120
8.005,0.106
8.010,0.088
8.015,0.075
8.020,0.055
8.025,0.024
8.030,0.001
8.035,-0.023
8.040,-0.061
8.045,-0.093
8.050,-0.115
8.055,-0.146
8.060,-0.175
8.065,-0.191
8.070,-0.206
8.075,-0.222
8.080,-0.227
8.085,-0.226
8.090,-0.229
8.095,-0.230
8.100,-0.222
8.105,-0.214
8.110,-0.211
8.115,-0.201
8.120,-0.193
8.125,-0.191
8.130,-0.181
8.135,-0.166
8.140,-0.159
8.145,-0.151
8.150,-0.138
8.155,-0.131
8.160,-0.123
8.165,-0.107
8.170,-0.096
8.175,-0.094
8.180,-0.085
8.185,-0.072
8.190,-0.068
8.195,-0.061
8.200,-0.050
8.205,-0.047
8.210,-0.045
8.215,-0.036
8.220,-0.029
8.225,-0.031
8.230,-0.025
8.235,-0.016
8.240,-0.017
8.245,-0.016
8.250,-0.010
8.255,-0.010
8.260,-0.011
8.265,-0.008
8.270,-0.010
8.275,-0.015
8.280,-0.012
8.285,-0.006
8.290,-0.008
8.295,-0.008
8.300,-0.003
8.305,-0.005
8.310,-0.008
8.315,-0.004
8.320,-0.005
8.325,-0.007
8.330,-0.001
8.335,0.002
8.340,-0.004
8.345,-0.004
8.350,0.001
8.355,-0.001
8.360,-0.002
8.365,0.004
8.370,0.008
8.375,0.010
8.380,0.015
8.385,0.019
8.390,0.016
8.395,0.015
8.400,0.019
8.405,0.020
8.410,0.017
8.415,0.021
8.420,0.025
8.425,0.022
8.430,0.026
8.435,0.030
8.440,0.023
8.445,0.024
8.450,0.032
8.455,0.033
8.460,0.030
8.465,0.035
8.470,0.039
8.475,0.034
8.480,0.035
8.485,0.040
8.490,0.038
8.495,0.037
8.500,0.041
8.505,0.038
8.510,0.035
8.515,0.046
8.520,0.047
8.525,0.036
8.530,0.038
8.535,0.044
8.540,0.040
8.545,0.046
8.550,0.060
8.555,0.063
8.560,0.065
8.565,0.085
8.570,0.101
8.575,0.091
8.580,0.080
8.585,0.095
8.590,0.130
8.595,0.157
8.600,0.155
8.605,0.130
8.610,0.108
8.615,0.103
8.620,0.087
8.625,0.053
8.630,0.023
8.635,-0.006
8.640,-0.031
8.645,-0.039
8.650,-0.035
8.655,-0.039
8.660,-0.050
8.665,-0.044
8.670,-0.039
8.675,-0.046
8.680,-0.039
8.685,-0.028
8.690,-0.037
8.695,-0.037
8.700,-0.026
8.705,-0.026
8.710,-0.029
8.715,-0.013
8.720,-0.003
8.725,0.012
8.730,0.086
8.735,0.185
8.740,0.276
8.745,0.418
8.750,0.434
8.755,0.112
8.760,-0.187
8.765,-0.212
8.770,-0.265
8.775,-0.369
8.780,-0.344
8.785,-0.285
8.790,-0.277
8.795,-0.254
8.800,-0.191
8.805,-0.126
8.810,-0.053
8.815,0.028
8.820,0.076
8.825,0.098
8.830,0.123
8.835,0.139
8.840,0.134
8.845,0.133
8.850,0.146
8.855,0.144
8.860,0.134
8.865,0.142
8.870,0.144
8.875,0.126
8.880,0.127
8.885,0.139
8.890,0.131
8.895,0.126
8.900,0.135
8.905,0.134
8.910,0.123
8.915,0.132
8.920,0.134
8.925,0.119
8.930,0.125
8.935,0.140
8.940,0.135
8.945,0.131
8.950,0.142
8.955,0.144
8.960,0.135
8.965,0.144
8.970,0.148
8.975,0.135
8.980,0.140
8.985,0.155
8.990,0.144
8.995,0.135
9.000,0.143
9.005,0.135
9.010,0.113
9.015,0.112
9.020,0.109
9.025,0.084
9.030,0.068
9.035,0.059
9.040,0.027
9.045,-0.009
9.050,-0.024
9.055,-0.053
9.060,-0.099
9.065,-0.122
9.070,-0.145
9.075,-0.185
9.080,-0.202
9.085,-0.207
9.090,-0.225
9.095,-0.242
9.100,-0.238
9.105,-0.236
9.110,-0.245
9.115,-0.237
9.120,-0.228
9.125,-0.236
9.130,-0.226
9.135,-0.205
9.140,-0.203
9.145,-0.198
9.150,-0.176
9.155,-0.167
9.160,-0.173
9.165,-0.156
9.170,-0.140
9.175,-0.143
9.180,-0.133
9.185,-0.113
9.190,-0.108
9.195,-0.101
9.200,-0.083
9.205,-0.079
9.210,-0.082
9.215,-0.066
9.220,-0.053
9.225,-0.057
9.230,-0.049
9.235,-0.034
9.240,-0.036
9.245,-0.038
9.250,-0.022
9.255,-0.018
9.260,-0.029
9.265,-0.019
9.270,-0.007
9.275,-0.020
9.280,-0.021
9.285,-0.009
9.290,-0.012
9.295,-0.019
9.300,-0.011
9.305,-0.011
9.310,-0.022
9.315,-0.013
9.320,-0.008
9.325,-0.023
9.330,-0.020
9.335,-0.006
9.340,-0.014
9.345,-0.022
9.350,-0.009
9.355,-0.008
9.360,-0.022
9.365,-0.014
9.370,-0.004
9.375,-0.016
9.380,-0.015
9.385,-0.001
9.390,-0.006
9.395,-0.013
9.400,-0.003
9.405,-0.003
9.410,-0.015
9.415,-0.003
9.420,0.010
9.425,-0.001
9.430,-0.004
9.435,0.009
9.440,0.005
9.445,-0.002
9.450,0.011
9.455,0.014
9.460,0.002
9.465,0.010
9.470,0.019
9.475,0.006
9.480,0.004
9.485,0.017
9.490,0.014
9.495,0.007
9.500,0.018
9.505,0.020
9.510,0.009
9.515,0.018
9.520,0.028
9.525,0.017
9.530,0.015
9.535,0.027
9.540,0.023
9.545,0.014
9.550,0.030
9.555,0.038
9.560,0.036
9.565,0.060
9.570,0.080
9.575,0.070
9.580,0.061
9.585,0.073
9.590,0.097
9.595,0.128
9.600,0.145
9.605,0.123
9.610,0.090
9.615,0.084
9.620,0.075
9.625,0.043
9.630,0.014
9.635,-0.013
9.640,-0.044
9.645,-0.063
9.650,-0.059
9.655,-0.059
9.660,-0.070
9.665,-0.064
9.670,-0.054
9.675,-0.063
9.680,-0.064
9.685,-0.052
9.690,-0.054
9.695,-0.059
9.700,-0.048
9.705,-0.040
9.710,-0.047
9.715,-0.035
9.720,-0.018
9.725,-0.008
9.730,0.050
9.735,0.152
9.740,0.246
9.745,0.370
9.750,0.460
9.755,0.217
9.760,-0.164
9.765,-0.241
9.770,-0.262
9.775,-0.377
9.780,-0.379
9.785,-0.317
9.790,-0.292
9.795,-0.277
9.800,-0.221
9.805,-0.152
9.810,-0.083
9.815,-0.001
9.820,0.053
9.825,0.076
9.830,0.103
9.835,0.126
9.840,0.123
9.845,0.117
9.850,0.129
9.855,0.135
9.860,0.125
9.865,0.130
9.870,0.138
9.875,0.129
9.880,0.125
9.885,0.132
9.890,0.128
9.895,0.121
9.900,0.130
9.905,0.134
9.910,0.122
9.915,0.126
9.920,0.134
9.925,0.126
9.930,0.127
9.935,0.137
9.940,0.135
9.945,0.128
9.950,0.136
9.955,0.143
9.960,0.138
9.965,0.146
9.970,0.155
9.975,0.148
9.980,0.147
9.985,0.157
9.990,0.152
9.995,0.141
10.000,0.148
10.005,0.146
10.010,0.126
10.015,0.116
10.020,0.112
10.025,0.095
10.030,0.076
10.035,0.068
10.040,0.044
10.045,0.005
10.050,-0.018
10.055,-0.043
10.060,-0.087
10.065,-0.114
10.070,-0.133
10.075,-0.168
10.080,-0.195
10.085,-0.204
10.090,-0.220
10.095,-0.244
10.100,-0.242
10.105,-0.232
10.110,-0.241
10.115,-0.238
10.120,-0.221
10.125,-0.222
10.130,-0.220
10.135,-0.200
10.140,-0.192
10.145,-0.195
10.150,-0.179
10.155,-0.161
10.160,-0.162
10.165,-0.154
10.170,-0.136
10.175,-0.133
10.180,-0.129
10.185,-0.109
10.190,-0.098
10.195,-0.098
10.200,-0.082
10.205,-0.067
10.210,-0.070
10.215,-0.061
10.220,-0.045
10.225,-0.044
10.230,-0.043
10.235,-0.028
10.240,-0.021
10.245,-0.027
10.250,-0.015
10.255,-0.003
10.260,-0.013
10.265,-0.011
10.270,0.003
10.275,-0.001
10.280,-0.006
10.285,0.007
10.290,0.008
10.295,-0.002
10.300,0.003
10.305,0.009
10.310,0.001
10.315,0.001
10.320,0.010
10.325,0.004
10.330,-0.002
10.335,0.008
10.340,0.011
10.345,-0.001
10.350,0.006
10.355,0.014
10.360,0.002
10.365,0.001
10.370,0.012
10.375,0.010
10.380,0.003
10.385,0.012
10.390,0.017
10.395,0.007
10.400,0.010
10.405,0.018
10.410,0.012
10.415,0.014
10.420,0.023
10.425,0.017
10.430,0.011
10.435,0.022
10.440,0.025
10.445,0.015
10.450,0.022
10.455,0.030
10.460,0.021
10.465,0.022
10.470,0.030
10.475,0.026
10.480,0.019
10.485,0.027
10.490,0.030
10.495,0.021
10.500,0.027
10.505,0.034
10.510,0.027
10.515,0.029
10.520,0.036
10.525,0.032
10.530,0.026
10.535,0.033
10.540,0.036
10.545,0.025
10.550,0.029
10.555,0.038
10.560,0.035
10.565,0.045
10.570,0.061
10.575,0.065
10.580,0.070
10.585,0.085
10.590,0.084
10.595,0.068
10.600,0.093
10.605,0.138
10.610,0.147
10.615,0.131
10.620,0.112
10.625,0.095
10.630,0.073
10.635,0.055
10.640,0.034
10.645,-0.007
10.650,-0.037
10.655,-0.045
10.660,-0.058
10.665,-0.063
10.670,-0.055
10.675,-0.056
10.680,-0.059
10.685,-0.054
10.690,-0.052
10.695,-0.060
10.700,-0.053
10.705,-0.043
10.710,-0.049
10.715,-0.050
10.720,-0.041
10.725,-0.037
10.730,-0.029
10.735,-0.009
10.740,0.031
10.745,0.108
10.750,0.211
10.755,0.332
10.760,0.444
10.765,0.293
10.770,-0.079
10.775,-0.232
10.780,-0.255
10.785,-0.344
10.790,-0.373
10.795,-0.334
10.800,-0.294
10.805,-0.268
10.810,-0.233
10.815,-0.174
10.820,-0.090
10.825,-0.007
10.830,0.037
10.835,0.075
10.840,0.111
10.845,0.114
10.850,0.121
10.855,0.135
10.860,0.128
10.865,0.125
10.870,0.135
10.875,0.132
10.880,0.121
10.885,0.126
10.890,0.126
10.895,0.117
10.900,0.123
10.905,0.130
10.910,0.122
10.915,0.119
10.920,0.125
10.925,0.126
10.930,0.121
10.935,0.125
10.940,0.130
10.945,0.126
10.950,0.129
10.955,0.137
10.960,0.134
10.965,0.135
10.970,0.142
10.975,0.142
10.980,0.141
10.985,0.151
10.990,0.154
10.995,0.148
11.000,0.152
11.005,0.157
11.010,0.150
11.015,0.143
11.020,0.144
11.025,0.135
11.030,0.119
11.035,0.113
11.040,0.097
11.045,0.071
11.050,0.057
11.055,0.040
11.060,0.005
11.065,-0.029
11.070,-0.056
11.075,-0.087
11.080,-0.125
11.085,-0.144
11.090,-0.160
11.095,-0.187
11.100,-0.203
11.105,-0.210
11.110,-0.221
11.115,-0.226
11.120,-0.221
11.125,-0.221
11.130,-0.221
11.135,-0.208
11.140,-0.200
11.145,-0.202
11.150,-0.186
11.155,-0.167
11.160,-0.165
11.165,-0.158
11.170,-0.142
11.175,-0.138
11.180,-0.135
11.185,-0.115
11.190,-0.099
11.195,-0.101
11.200,-0.090
11.205,-0.071
11.210,-0.066
11.215,-0.065
11.220,-0.051
11.225,-0.043
11.230,-0.046
11.235,-0.035
11.240,-0.021
11.245,-0.022
11.250,-0.016
11.255,-0.005
11.260,-0.008
11.265,-0.012
11.270,-0.002
11.275,0.006
11.280,0.004
11.285,0.008
11.290,0.012
11.295,0.006
11.300,0.007
11.305,0.012
11.310,0.006
11.315,0.001
11.320,0.006
11.325,0.007
11.330,0.003
11.335,0.011
11.340,0.012
11.345,0.001
11.350,0.001
11.355,0.007
11.360,0.004
11.365,0.004
11.370,0.011
11.375,0.010
11.380,0.001
11.385,0.003
11.390,0.008
11.395,0.002
11.400,0.007
11.405,0.019
11.410,0.014
11.415,0.005
11.420,0.009
11.425,0.011
11.430,0.007
11.435,0.016
11.440,0.023
11.445,0.018
11.450,0.015
11.455,0.018
11.460,0.019
11.465,0.018
11.470,0.024
11.475,0.027
11.480,0.021
11.485,0.024
11.490,0.028
11.495,0.021
11.500,0.020
11.505,0.028
11.510,0.027
11.515,0.020
11.520,0.025
11.525,0.029
11.530,0.024
11.535,0.029
11.540,0.034
11.545,0.026
11.550,0.023
11.555,0.029
11.560,0.028
11.565,0.028
11.570,0.042
11.575,0.052
11.580,0.055
11.585,0.074
11.590,0.084
11.595,0.068
11.600,0.070
11.605,0.108
11.610,0.141
11.615,0.141
11.620,0.124
11.625,0.108
11.630,0.088
11.635,0.072
11.640,0.054
11.645,0.017
11.650,-0.024
11.655,-0.043
11.660,-0.051
11.665,-0.064
11.670,-0.063
11.675,-0.057
11.680,-0.063
11.685,-0.063
11.690,-0.061
11.695,-0.065
11.700,-0.060
11.705,-0.051
11.710,-0.052
11.715,-0.055
11.720,-0.048
11.725,-0.044
11.730,-0.041
11.735,-0.028
11.740,-0.009
11.745,0.043
11.750,0.133
11.755,0.238
11.760,0.377
11.765,0.434
11.770,0.170
11.775,-0.174
11.780,-0.240
11.785,-0.271
11.790,-0.371
11.795,-0.378
11.800,-0.335
11.805,-0.302
11.810,-0.280
11.815,-0.239
11.820,-0.165
11.825,-0.080
11.830,-0.013
11.835,0.034
11.840,0.073
11.845,0.095
11.850,0.106
11.855,0.120
11.860,0.125
11.865,0.119
11.870,0.124
11.875,0.128
11.880,0.120
11.885,0.123
11.890,0.130
11.895,0.121
11.900,0.116
11.905,0.118
11.910,0.114
11.915,0.111
11.920,0.122
11.925,0.127
11.930,0.116
11.935,0.117
11.940,0.129
11.945,0.127
11.950,0.123
11.955,0.130
11.960,0.130
11.965,0.122
11.970,0.133
11.975,0.143
11.980,0.138
11.985,0.142
11.990,0.152
11.995,0.150
12.000,0.149
12.005,0.153
12.010,0.148
12.015,0.137
12.020,0.139
12.025,0.139
12.030,0.120
12.035,0.107
12.040,0.100
12.045,0.080
12.050,0.056
12.055,0.038
12.060,0.012
12.065,-0.022
12.070,-0.051
12.075,-0.083
12.080,-0.121
12.085,-0.148
12.090,-0.167
12.095,-0.195
12.100,-0.219
12.105,-0.227
12.110,-0.236
12.115,-0.249
12.120,-0.245
12.125,-0.238
12.130,-0.246
12.135,-0.240
12.140,-0.224
12.145,-0.222
12.150,-0.220
12.155,-0.203
12.160,-0.194
12.165,-0.194
12.170,-0.179
12.175,-0.161
12.180,-0.159
12.185,-0.151
12.190,-0.132
12.195,-0.129
12.200,-0.125
12.205,-0.107
12.210,-0.097
12.215,-0.098
12.220,-0.083
12.225,-0.067
12.230,-0.071
12.235,-0.065
12.240,-0.050
12.245,-0.048
12.250,-0.047
12.255,-0.037
12.260,-0.033
12.265,-0.034
12.270,-0.026
12.275,-0.020
12.280,-0.026
12.285,-0.024
12.290,-0.014
12.295,-0.015
12.300,-0.018
12.305,-0.011
12.310,-0.011
12.315,-0.018
12.320,-0.011
12.325,-0.005
12.330,-0.016
12.335,-0.016
12.340,-0.008
12.345,-0.013
12.350,-0.017
12.355,-0.009
12.360,-0.008
12.365,-0.016
12.370,-0.010
12.375,-0.003
12.380,-0.011
12.385,-0.011
12.390,-0.002
12.395,-0.005
12.400,-0.009
12.405,0.001
12.410,0.006
12.415,-0.002
12.420,0.001
12.425,0.008
12.430,0.004
12.435,0.006
12.440,0.013
12.445,0.010
12.450,0.008
12.455,0.016
12.460,0.018
12.465,0.010
12.470,0.014
12.475,0.020
12.480,0.013
12.485,0.013
12.490,0.024
12.495,0.021
12.500,0.015
12.505,0.024
12.510,0.026
12.515,0.018
12.520,0.024
12.525,0.033
12.530,0.024
12.535,0.023
12.540,0.036
12.545,0.034
12.550,0.024
12.555,0.029
12.560,0.034
12.565,0.030
12.570,0.040
12.575,0.053
12.580,0.058
12.585,0.075
12.590,0.089
12.595,0.079
12.600,0.069
12.605,0.097
12.610,0.138
12.615,0.147
12.620,0.133
12.625,0.113
12.630,0.092
12.635,0.076
12.640,0.063
12.645,0.037
12.650,-0.003
12.655,-0.031
12.660,-0.043
12.665,-0.056
12.670,-0.055
12.675,-0.051
12.680,-0.058
12.685,-0.058
12.690,-0.049
12.695,-0.050
12.700,-0.055
12.705,-0.046
12.710,-0.041
12.715,-0.047
12.720,-0.041
12.725,-0.032
12.730,-0.036
12.735,-0.026
12.740,-0.002
12.745,0.037
12.750,0.117
12.755,0.219
12.760,0.338
12.765,0.462
12.770,0.328
12.775,-0.058
12.780,-0.237
12.785,-0.256
12.790,-0.337
12.795,-0.373
12.800,-0.335
12.805,-0.290
12.810,-0.269
12.815,-0.240
12.820,-0.176
12.825,-0.095
12.830,-0.019
12.835,0.036
12.840,0.077
12.845,0.102
12.850,0.113
12.855,0.124
12.860,0.129
12.865,0.124
12.870,0.129
12.875,0.135
12.880,0.125
12.885,0.122
12.890,0.130
12.895,0.127
12.900,0.120
12.905,0.126
12.910,0.128
12.915,0.119
12.920,0.124
12.925,0.133
12.930,0.124
12.935,0.121
12.940,0.130
12.945,0.129
12.950,0.125
12.955,0.134
12.960,0.137
12.965,0.130
12.970,0.137
12.975,0.147
12.980,0.142
12.985,0.141
12.990,0.155
12.995,0.155
13.000,0.149
13.005,0.157
13.010,0.158
13.015,0.143
13.020,0.144
13.025,0.145
13.030,0.127
13.035,0.113
13.040,0.111
13.045,0.093
13.050,0.065
13.055,0.049
13.060,0.028
13.065,-0.009
13.070,-0.037
13.075,-0.063
13.080,-0.104
13.085,-0.138
13.090,-0.155
13.095,-0.180
13.100,-0.210
13.105,-0.218
13.110,-0.224
13.115,-0.240
13.120,-0.239
13.125,-0.231
13.130,-0.237
13.135,-0.237
13.140,-0.221
13.145,-0.215
13.150,-0.216
13.155,-0.201
13.160,-0.187
13.165,-0.186
13.170,-0.172
13.175,-0.153
13.180,-0.151
13.185,-0.143
13.190,-0.125
13.195,-0.118
13.200,-0.115
13.205,-0.098
13.210,-0.084
13.215,-0.085
13.220,-0.073
13.225,-0.057
13.230,-0.055
13.235,-0.048
13.240,-0.036
13.245,-0.033
13.250,-0.033
13.255,-0.022
13.260,-0.013
13.265,-0.016
13.270,-0.010
13.275,0.001
13.280,-0.005
13.285,-0.007
13.290,0.004
13.295,0.004
13.300,-0.004
13.305,0.002
13.310,0.007
13.315,-0.002
13.320,-0.002
13.325,0.005
13.330,-0.002
13.335,-0.005
13.340,0.004
13.345,0.003
13.350,-0.006
13.355,-0.002
13.360,0.004
13.365,-0.002
13.370,-0.001
13.375,0.004
13.380,-0.002
13.385,-0.003
13.390,0.006
13.395,0.006
13.400,-0.002
13.405,0.005
13.410,0.011
13.415,0.001
13.420,0.005
13.425,0.017
13.430,0.012
13.435,0.009
13.440,0.020
13.445,0.019
13.450,0.012
13.455,0.019
13.460,0.027
13.465,0.020
13.470,0.022
13.475,0.031
13.480,0.026
13.485,0.023
13.490,0.031
13.495,0.033
13.500,0.026
13.505,0.032
13.510,0.039
13.515,0.029
13.520,0.030
13.525,0.037
13.530,0.029
13.535,0.027
13.540,0.036
13.545,0.033
13.550,0.026
13.555,0.036
13.560,0.043
13.565,0.034
13.570,0.045
13.575,0.068
13.580,0.074
13.585,0.085
13.590,0.099
13.595,0.089
13.600,0.078
13.605,0.103
13.610,0.142
13.615,0.148
13.620,0.129
13.625,0.109
13.630,0.089
13.635,0.073
13.640,0.057
13.645,0.031
13.650,-0.007
13.655,-0.032
13.660,-0.043
13.665,-0.053
13.670,-0.049
13.675,-0.040
13.680,-0.045
13.685,-0.048
13.690,-0.039
13.695,-0.041
13.700,-0.052
13.705,-0.046
13.710,-0.035
13.715,-0.036
13.720,-0.032
13.725,-0.024
13.730,-0.026
13.735,-0.020
13.740,0.002
13.745,0.042
13.750,0.116
13.755,0.210
13.760,0.323
13.765,0.449
13.770,0.337
13.775,-0.032
13.780,-0.211
13.785,-0.227
13.790,-0.310
13.795,-0.357
13.800,-0.327
13.805,-0.284
13.810,-0.259
13.815,-0.225
13.820,-0.163
13.825,-0.082
13.830,-0.001
13.835,0.053
13.840,0.094
13.845,0.125
13.850,0.131
13.855,0.139
13.860,0.149
13.865,0.142
13.870,0.145
13.875,0.156
13.880,0.150
13.885,0.142
13.890,0.147
13.895,0.147
13.900,0.138
13.905,0.140
13.910,0.142
13.915,0.136
13.920,0.134
13.925,0.136
13.930,0.133
13.935,0.135
13.940,0.139
13.945,0.135
13.950,0.130
13.955,0.137
13.960,0.143
13.965,0.136
13.970,0.141
13.975,0.152
13.980,0.148
13.985,0.147
13.990,0.156
13.995,0.155
14.000,0.153
14.005,0.162
14.010,0.162
14.015,0.151
14.020,0.145
14.025,0.144
14.030,0.133
14.035,0.118
14.040,0.112
14.045,0.096
14.050,0.070
14.055,0.052
14.060,0.033
14.065,0.001
14.070,-0.030
14.075,-0.059
14.080,-0.096
14.085,-0.131
14.090,-0.153
14.095,-0.177
14.100,-0.202
14.105,-0.212
14.110,-0.218
14.115,-0.236
14.120,-0.239
14.125,-0.228
14.130,-0.231
14.135,-0.236
14.140,-0.225
14.145,-0.220
14.150,-0.220
14.155,-0.204
14.160,-0.190
14.165,-0.188
14.170,-0.175
14.175,-0.160
14.180,-0.157
14.185,-0.149
14.190,-0.131
14.195,-0.120
14.200,-0.118
14.205,-0.106
14.210,-0.092
14.215,-0.090
14.220,-0.083
14.225,-0.069
14.230,-0.066
14.235,-0.061
14.240,-0.045
14.245,-0.039
14.250,-0.041
14.255,-0.033
14.260,-0.027
14.265,-0.029
14.270,-0.021
14.275,-0.011
14.280,-0.013
14.285,-0.013
14.290,-0.003
14.295,-0.002
14.300,-0.010
14.305,-0.007
14.310,-0.002
14.315,-0.006
14.320,-0.004
14.325,0.000
14.330,-0.006
14.335,-0.013
14.340,-0.008
14.345,-0.006
14.350,-0.012
14.355,-0.006
14.360,-0.001
14.365,-0.008
14.370,-0.002
14.375,0.003
14.380,-0.005
14.385,-0.008
14.390,0.000
14.395,0.001
14.400,-0.004
14.405,0.003
14.410,0.008
14.415,-0.003
14.420,-0.001
14.425,0.008
14.430,0.000
14.435,-0.003
14.440,0.008
14.445,0.011
14.450,0.004
14.455,0.008
14.460,0.014
14.465,0.007
14.470,0.008
14.475,0.020
14.480,0.016
14.485,0.010
14.490,0.017
14.495,0.016
14.500,0.012
14.505,0.022
14.510,0.027
14.515,0.017
14.520,0.016
14.525,0.025
14.530,0.023
14.535,0.016
14.540,0.022
14.545,0.028
14.550,0.024
14.555,0.031
14.560,0.043
14.565,0.048
14.570,0.063
14.575,0.083
14.580,0.084
14.585,0.076
14.590,0.087
14.595,0.120
14.600,0.144
14.605,0.142
14.610,0.122
14.615,0.096
14.620,0.085
14.625,0.076
14.630,0.043
14.635,0.008
14.640,-0.018
14.645,-0.044
14.650,-0.058
14.655,-0.055
14.660,-0.048
14.665,-0.050
14.670,-0.053
14.675,-0.050
14.680,-0.053
14.685,-0.052
14.690,-0.041
14.695,-0.040
14.700,-0.046
14.705,-0.038
14.710,-0.028
14.715,-0.031
14.720,-0.026
14.725,-0.009
14.730,0.009
14.735,0.073
14.740,0.181
14.745,0.291
14.750,0.428
14.755,0.450
14.760,0.130
14.765,-0.204
14.770,-0.241
14.775,-0.275
14.780,-0.373
14.785,-0.364
14.790,-0.307
14.795,-0.286
14.800,-0.275
14.805,-0.217
14.810,-0.138
14.815,-0.062
14.820,0.014
14.825,0.061
14.830,0.083
14.835,0.105
14.840,0.119
14.845,0.123
14.850,0.121
14.855,0.130
14.860,0.139
14.865,0.128
14.870,0.120
14.875,0.127
14.880,0.125
14.885,0.118
14.890,0.122
14.895,0.121
14.900,0.111
14.905,0.113
14.910,0.119
14.915,0.115
14.920,0.117
14.925,0.123
14.930,0.118
14.935,0.116
14.940,0.127
14.945,0.129
14.950,0.123
14.955,0.128
14.960,0.134
14.965,0.126
14.970,0.123
14.975,0.132
14.980,0.135
14.985,0.130
14.990,0.136
14.995,0.139
15.000,0.131
15.005,0.134
15.010,0.133
15.015,0.114
15.020,0.103
15.025,0.098
15.030,0.078
15.035,0.053
15.040,0.038
15.045,0.016
15.050,-0.017
15.055,-0.043
15.060,-0.072
15.065,-0.114
15.070,-0.145
15.075,-0.169
15.080,-0.199
15.085,-0.223
15.090,-0.232
15.095,-0.246
15.100,-0.265
15.105,-0.266
15.110,-0.259
15.115,-0.262
15.120,-0.260
15.125,-0.248
15.130,-0.245
15.135,-0.241
15.140,-0.222
15.145,-0.211
15.150,-0.211
15.155,-0.198
15.160,-0.181
15.165,-0.177
15.170,-0.168
15.175,-0.149
15.180,-0.142
15.185,-0.137
15.190,-0.121
15.195,-0.109
15.200,-0.109
15.205,-0.096
15.210,-0.080
15.215,-0.083
15.220,-0.080
15.225,-0.062
15.230,-0.053
15.235,-0.052
15.240,-0.040
15.245,-0.034
15.250,-0.037
15.255,-0.028
15.260,-0.019
15.265,-0.021
15.270,-0.020
15.275,-0.010
15.280,-0.010
15.285,-0.013
15.290,-0.005
15.295,-0.004
15.300,-0.012
15.305,-0.007
15.310,0.000
15.315,-0.007
15.320,-0.006
15.325,0.000
15.330,-0.005
15.335,-0.010
15.340,-0.001
15.345,0.004
15.350,-0.004
15.355,-0.003
15.360,0.001
15.365,-0.005
15.370,-0.004
15.375,0.004
15.380,0.003
15.385,-0.005
15.390,0.002
15.395,0.008
15.400,0.000
15.405,0.001
15.410,0.008
15.415,0.004
15.420,0.002
15.425,0.008
15.430,0.008
15.435,0.001
15.440,0.008
15.445,0.017
15.450,0.010
15.455,0.012
15.460,0.020
15.465,0.016
15.470,0.014
15.475,0.020
15.480,0.021
15.485,0.018
15.490,0.023
15.495,0.026
15.500,0.021
15.505,0.026
15.510,0.031
15.515,0.024
15.520,0.019
15.525,0.027
15.530,0.028
15.535,0.022
15.540,0.027
15.545,0.035
15.550,0.042
15.555,0.064
15.560,0.082
15.565,0.078
15.570,0.068
15.575,0.077
15.580,0.106
15.585,0.136
15.590,0.142
15.595,0.114
15.600,0.086
15.605,0.079
15.610,0.065
15.615,0.038
15.620,0.012
15.625,-0.019
15.630,-0.049
15.635,-0.060
15.640,-0.060
15.645,-0.057
15.650,-0.062
15.655,-0.062
15.660,-0.055
15.665,-0.056
15.670,-0.058
15.675,-0.050
15.680,-0.044
15.685,-0.042
15.690,-0.037
15.695,-0.034
15.700,-0.035
15.705,-0.022
15.710,-0.002
15.715,0.018
15.720,0.080
15.725,0.180
15.730,0.286
15.735,0.421
15.740,0.465
15.745,0.174
15.750,-0.180
15.755,-0.239
15.760,-0.276
15.765,-0.380
15.770,-0.367
15.775,-0.307
15.780,-0.280
15.785,-0.259
15.790,-0.209
15.795,-0.137
15.800,-0.057
15.805,0.014
15.810,0.061
15.815,0.094
15.820,0.114
15.825,0.122
15.830,0.127
15.835,0.130
15.840,0.132
15.845,0.138
15.850,0.138
15.855,0.133
15.860,0.136
15.865,0.138
15.870,0.130
15.875,0.130
15.880,0.138
15.885,0.137
15.890,0.137
15.895,0.143
15.900,0.141
15.905,0.135
15.910,0.139
15.915,0.143
15.920,0.138
15.925,0.139
15.930,0.145
15.935,0.144
15.940,0.147
15.945,0.159
15.950,0.161
15.955,0.157
15.960,0.167
15.965,0.173
15.970,0.167
15.975,0.168
15.980,0.174
15.985,0.169
15.990,0.161
15.995,0.158
16.000,0.150
16.005,0.136
16.010,0.127
16.015,0.115
16.020,0.091
16.025,0.069
16.030,0.051
16.035,0.019
16.040,-0.018
16.045,-0.048
16.050,-0.080
16.055,-0.118
16.060,-0.144
16.065,-0.166
16.070,-0.194
16.075,-0.210
16.080,-0.219
16.085,-0.232
16.090,-0.238
16.095,-0.234
16.100,-0.233
16.105,-0.233
16.110,-0.224
16.115,-0.215
16.120,-0.213
16.125,-0.204
16.130,-0.189
16.135,-0.183
16.140,-0.178
16.145,-0.164
16.150,-0.154
16.155,-0.148
16.160,-0.135
16.165,-0.123
16.170,-0.118
16.175,-0.107
16.180,-0.091
16.185,-0.084
16.190,-0.078
16.195,-0.064
16.200,-0.057
16.205,-0.056
16.210,-0.045
16.215,-0.035
16.220,-0.036
16.225,-0.030
16.230,-0.021
16.235,-0.023
16.240,-0.019
16.245,-0.009
16.250,-0.010
16.255,-0.013
16.260,-0.004
16.265,-0.001
16.270,-0.010
16.275,-0.007
16.280,0.002
16.285,-0.001
16.290,-0.004
16.295,0.001
16.300,-0.001
16.305,-0.006
16.310,-0.002
16.315,0.001
16.320,-0.004
16.325,-0.003
16.330,0.002
16.335,-0.003
16.340,-0.006
16.345,0.005
16.350,0.004
16.355,-0.003
16.360,0.004
16.365,0.006
16.370,-0.003
16.375,-0.001
16.380,0.008
16.385,0.005
16.390,0.001
16.395,0.008
16.400,0.010
16.405,0.006
16.410,0.013
16.415,0.017
16.420,0.010
16.425,0.013
16.430,0.019
16.435,0.012
16.440,0.014
16.445,0.027
16.450,0.023
16.455,0.016
16.460,0.024
16.465,0.028
16.470,0.024
16.475,0.027
16.480,0.033
16.485,0.030
16.490,0.030
16.495,0.036
16.500,0.034
16.505,0.030
16.510,0.035
16.515,0.036
16.520,0.032
16.525,0.038
16.530,0.044
16.535,0.039
16.540,0.043
16.545,0.054
16.550,0.060
16.555,0.072
16.560,0.094
16.565,0.097
16.570,0.083
16.575,0.087
16.580,0.118
16.585,0.145
16.590,0.148
16.595,0.129
16.600,0.106
16.605,0.089
16.610,0.075
16.615,0.051
16.620,0.022
16.625,-0.005
16.630,-0.029
16.635,-0.050
16.640,-0.053
16.645,-0.045
16.650,-0.045
16.655,-0.048
16.660,-0.043
16.665,-0.043
16.670,-0.048
16.675,-0.038
16.680,-0.026
16.685,-0.026
16.690,-0.023
16.695,-0.018
16.700,-0.021
16.705,-0.019
16.710,-0.002
16.715,0.010
16.720,0.045
16.725,0.133
16.730,0.228
16.735,0.336
16.740,0.457
16.745,0.303
16.750,-0.083
16.755,-0.226
16.760,-0.239
16.765,-0.339
16.770,-0.372
16.775,-0.322
16.780,-0.284
16.785,-0.272
16.790,-0.228
16.795,-0.161
16.800,-0.091
16.805,-0.011
16.810,0.044
16.815,0.073
16.820,0.097
16.825,0.113
16.830,0.118
16.835,0.118
16.840,0.124
16.845,0.130
16.850,0.125
16.855,0.124
16.860,0.129
16.865,0.125
16.870,0.117
16.875,0.118
16.880,0.119
16.885,0.114
16.890,0.115
16.895,0.119
16.900,0.116
16.905,0.117
16.910,0.124
16.915,0.125
16.920,0.120
16.925,0.123
16.930,0.127
16.935,0.124
16.940,0.131
16.945,0.142
16.950,0.139
16.955,0.139
16.960,0.147
16.965,0.151
16.970,0.149
16.975,0.149
16.980,0.154
16.985,0.154
16.990,0.152
16.995,0.151
17.000,0.144
17.005,0.133
17.010,0.125
17.015,0.112
17.020,0.091
17.025,0.080
17.030,0.065
17.035,0.034
17.040,0.006
17.045,-0.017
17.050,-0.051
17.055,-0.087
17.060,-0.116
17.065,-0.142
17.070,-0.169
17.075,-0.185
17.080,-0.198
17.085,-0.210
17.090,-0.217
17.095,-0.220
17.100,-0.220
17.105,-0.219
17.110,-0.211
17.115,-0.205
17.120,-0.201
17.125,-0.187
17.130,-0.176
17.135,-0.170
17.140,-0.159
17.145,-0.148
17.150,-0.144
17.155,-0.135
17.160,-0.119
17.165,-0.111
17.170,-0.106
17.175,-0.091
17.180,-0.076
17.185,-0.072
17.190,-0.064
17.195,-0.052
17.200,-0.048
17.205,-0.043
17.210,-0.031
17.215,-0.024
17.220,-0.023
17.225,-0.015
17.230,-0.005
17.235,-0.005
17.240,-0.004
17.245,0.002
17.250,0.005
17.255,0.003
17.260,0.007
17.265,0.012
17.270,0.011
17.275,0.012
17.280,0.013
17.285,0.010
17.290,0.011
17.295,0.012
17.300,0.011
17.305,0.011
17.310,0.014
17.315,0.011
17.320,0.004
17.325,0.007
17.330,0.013
17.335,0.008
17.340,0.004
17.345,0.008
17.350,0.007
17.355,0.003
17.360,0.006
17.365,0.011
17.370,0.009
17.375,0.011
17.380,0.015
17.385,0.008
17.390,0.007
17.395,0.014
17.400,0.013
17.405,0.007
17.410,0.009
17.415,0.009
17.420,0.005
17.425,0.010
17.430,0.016
17.435,0.013
17.440,0.012
17.445,0.014
17.450,0.011
17.455,0.015
17.460,0.023
17.465,0.019
17.470,0.015
17.475,0.020
17.480,0.020
17.485,0.013
17.490,0.013
17.495,0.019
17.500,0.021
17.505,0.018
17.510,0.019
17.515,0.017
17.520,0.012
17.525,0.019
17.530,0.020
17.535,0.012
17.540,0.018
17.545,0.031
17.550,0.036
17.555,0.049
17.560,0.067
17.565,0.073
17.570,0.063
17.575,0.064
17.580,0.094
17.585,0.126
17.590,0.136
17.595,0.119
17.600,0.090
17.605,0.072
17.610,0.063
17.615,0.040
17.620,0.007
17.625,-0.019
17.630,-0.043
17.635,-0.067
17.640,-0.070
17.645,-0.063
17.650,-0.064
17.655,-0.065
17.660,-0.058
17.665,-0.055
17.670,-0.062
17.675,-0.059
17.680,-0.053
17.685,-0.057
17.690,-0.053
17.695,-0.043
17.700,-0.043
17.705,-0.042
17.710,-0.030
17.715,-0.015
17.720,0.017
17.725,0.101
17.730,0.201
17.735,0.307
17.740,0.448
17.745,0.365
17.750,-0.017
17.755,-0.228
17.760,-0.236
17.765,-0.316
17.770,-0.386
17.775,-0.354
17.780,-0.305
17.785,-0.293
17.790,-0.263
17.795,-0.197
17.800,-0.125
17.805,-0.043
17.810,0.024
17.815,0.060
17.820,0.081
17.825,0.104
17.830,0.118
17.835,0.117
17.840,0.122
17.845,0.131
17.850,0.125
17.855,0.118
17.860,0.121
17.865,0.122
17.870,0.113
17.875,0.113
17.880,0.117
17.885,0.106
17.890,0.103
17.895,0.115
17.900,0.118
17.905,0.106
17.910,0.109
17.915,0.116
17.920,0.108
17.925,0.114
17.930,0.123
17.935,0.117
17.940,0.120
17.945,0.130
17.950,0.131
17.955,0.132
17.960,0.140
17.965,0.140
17.970,0.133
17.975,0.139
17.980,0.150
17.985,0.144
17.990,0.139
17.995,0.141
18.000,0.131
18.005,0.118
18.010,0.115
18.015,0.107
18.020,0.083
18.025,0.066
18.030,0.050
18.035,0.016
18.040,-0.012
18.045,-0.033
18.050,-0.064
18.055,-0.104
18.060,-0.133
18.065,-0.156
18.070,-0.184
18.075,-0.203
18.080,-0.216
18.085,-0.234
18.090,-0.246
18.095,-0.245
18.100,-0.244
18.105,-0.244
18.110,-0.235
18.115,-0.231
18.120,-0.232
18.125,-0.219
18.130,-0.203
18.135,-0.200
18.140,-0.195
18.145,-0.181
18.150,-0.172
18.155,-0.168
18.160,-0.155
18.165,-0.142
18.170,-0.143
18.175,-0.135
18.180,-0.119
18.185,-0.112
18.190,-0.105
18.195,-0.093
18.200,-0.086
18.205,-0.081
18.210,-0.071
18.215,-0.064
18.220,-0.064
18.225,-0.053
18.230,-0.043
18.235,-0.046
18.240,-0.042
18.245,-0.033
18.250,-0.034
18.255,-0.037
18.260,-0.029
18.265,-0.025
18.270,-0.030
18.275,-0.025
18.280,-0.017
18.285,-0.021
18.290,-0.022
18.295,-0.016
18.300,-0.018
18.305,-0.023
18.310,-0.017
18.315,-0.013
18.320,-0.019
18.325,-0.016
18.330,-0.009
18.335,-0.016
18.340,-0.017
18.345,-0.008
18.350,-0.009
18.355,-0.016
18.360,-0.014
18.365,-0.006
18.370,-0.008
18.375,-0.005
18.380,0.003
18.385,-0.004
18.390,-0.009
18.395,0.001
18.400,0.005
18.405,-0.002
18.410,0.004
18.415,0.010
18.420,0.003
18.425,0.003
18.430,0.008
18.435,0.005
18.440,0.008
18.445,0.017
18.450,0.017
18.455,0.013
18.460,0.016
18.465,0.015
18.470,0.010
18.475,0.019
18.480,0.025
18.485,0.016
18.490,0.013
18.495,0.017
18.500,0.017
18.505,0.016
18.510,0.021
18.515,0.024
18.520,0.020
18.525,0.020
18.530,0.024
18.535,0.021
18.540,0.024
18.545,0.042
18.550,0.059
18.555,0.069
18.560,0.080
18.565,0.086
18.570,0.083
18.575,0.105
18.580,0.140
18.585,0.139
18.590,0.109
18.595,0.090
18.600,0.076
18.605,0.045
18.610,0.021
18.615,0.008
18.620,-0.023
18.625,-0.053
18.630,-0.058
18.635,-0.060
18.640,-0.062
18.645,-0.058
18.650,-0.058
18.655,-0.062
18.660,-0.060
18.665,-0.056
18.670,-0.056
18.675,-0.050
18.680,-0.043
18.685,-0.043
18.690,-0.039
18.695,-0.032
18.700,-0.030
18.705,-0.023
18.710,-0.004
18.715,0.038
18.720,0.118
18.725,0.214
18.730,0.333
18.735,0.474
18.740,0.368
18.745,-0.018
18.750,-0.223
18.755,-0.247
18.760,-0.332
18.765,-0.384
18.770,-0.346
18.775,-0.297
18.780,-0.275
18.785,-0.242
18.790,-0.185
18.795,-0.110
18.800,-0.024
18.805,0.035
18.810,0.072
18.815,0.102
18.820,0.114
18.825,0.118
18.830,0.126
18.835,0.129
18.840,0.129
18.845,0.134
18.850,0.134
18.855,0.130
18.860,0.132
18.865,0.133
18.870,0.129
18.875,0.130
18.880,0.133
18.885,0.130
18.890,0.129
18.895,0.132
18.900,0.129
18.905,0.126
18.910,0.133
18.915,0.137
18.920,0.134
18.925,0.138
18.930,0.142
18.935,0.144
18.940,0.150
18.945,0.155
18.950,0.156
18.955,0.158
18.960,0.165
18.965,0.168
18.970,0.167
18.975,0.167
18.980,0.166
18.985,0.164
18.990,0.161
18.995,0.156
19.000,0.146
19.005,0.133
19.010,0.123
19.015,0.107
19.020,0.085
19.025,0.064
19.030,0.041
19.035,0.010
19.040,-0.024
19.045,-0.053
19.050,-0.088
19.055,-0.124
19.060,-0.150
19.065,-0.174
19.070,-0.194
19.075,-0.209
19.080,-0.219
19.085,-0.227
19.090,-0.230
19.095,-0.230
19.100,-0.228
19.105,-0.226
19.110,-0.220
19.115,-0.214
19.120,-0.206
19.125,-0.197
19.130,-0.186
19.135,-0.175
19.140,-0.166
19.145,-0.157
19.150,-0.147
19.155,-0.140
19.160,-0.130
19.165,-0.117
19.170,-0.107
19.175,-0.097
19.180,-0.088
19.185,-0.078
19.190,-0.070
19.195,-0.063
19.200,-0.055
19.205,-0.046
19.210,-0.039
19.215,-0.034
19.220,-0.028
19.225,-0.022
19.230,-0.019
19.235,-0.016
19.240,-0.008
19.245,0.009
19.250,0.023
19.255,0.017
19.260,0.009
19.265,0.012
19.270,0.024
19.275,0.032
19.280,0.030
19.285,0.027
19.290,0.026
19.295,0.049
19.300,0.145
19.305,0.230
19.310,0.202
19.315,0.153
19.320,0.137
19.325,0.116
19.330,0.097
19.335,0.084
19.340,0.072
19.345,0.057
19.350,0.044
19.355,0.039
19.360,0.032
19.365,0.023
19.370,0.021
19.375,0.017
19.380,0.010
19.385,0.008
19.390,0.006
19.395,0.000
19.400,-0.003
19.405,-0.002
19.410,-0.006
19.415,-0.010
19.420,-0.011
19.425,-0.011
19.430,-0.015
19.435,-0.016
19.440,-0.015
19.445,-0.016
19.450,-0.015
19.455,-0.014
19.460,-0.017
19.465,-0.017
19.470,-0.015
19.475,-0.016
19.480,-0.018
19.485,-0.015
19.490,-0.015
19.495,-0.017
19.500,-0.016
19.505,-0.015
19.510,-0.014
19.515,-0.016
19.520,-0.016
19.525,-0.015
19.530,-0.014
19.535,-0.009
19.540,-0.010
19.545,-0.014
19.550,-0.013
19.555,-0.013
19.560,-0.011
19.565,0.000
19.570,0.016
19.575,0.030
19.580,0.037
19.585,0.047
19.590,0.059
19.595,0.067
19.600,0.086
19.605,0.106
19.610,0.095
19.615,0.069
19.620,0.049
19.625,0.024
19.630,-0.003
19.635,-0.021
19.640,-0.038
19.645,-0.065
19.650,-0.081
19.655,-0.080
19.660,-0.077
19.665,-0.075
19.670,-0.075
19.675,-0.075
19.680,-0.071
19.685,-0.066
19.690,-0.063
19.695,-0.058
19.700,-0.054
19.705,-0.051
19.710,-0.046
19.715,-0.041
19.720,-0.037
19.725,-0.030
19.730,-0.017
19.735,0.012
19.740,0.081
19.745,0.168
19.750,0.265
19.755,0.402
19.760,0.416
19.765,0.110
19.770,-0.196
19.775,-0.240
19.780,-0.289
19.785,-0.378
19.790,-0.358
19.795,-0.309
19.800,-0.288
19.805,-0.257
19.810,-0.201
19.815,-0.131
19.820,-0.048
19.825,0.022
19.830,0.059
19.835,0.090
19.840,0.113
19.845,0.116
19.850,0.120
19.855,0.128
19.860,0.129
19.865,0.130
19.870,0.134
19.875,0.129
19.880,0.126
19.885,0.128
19.890,0.126
19.895,0.122
19.900,0.122
19.905,0.124
19.910,0.123
19.915,0.122
19.920,0.127
19.925,0.128
19.930,0.126
19.935,0.130
19.940,0.133
19.945,0.134
19.950,0.140
19.955,0.145
19.960,0.143
19.965,0.146
19.970,0.152
19.975,0.150
19.980,0.150
19.985,0.157
19.990,0.160
19.995,0.160
20.000,0.162
20.005,0.162
20.010,0.158
20.015,0.151
20.020,0.143
20.025,0.135
20.030,0.124
20.035,0.110
20.040,0.097
20.045,0.078
20.050,0.056
20.055,0.029
20.060,-0.006
20.065,-0.041
20.070,-0.071
20.075,-0.102
20.080,-0.130
20.085,-0.150
20.090,-0.170
20.095,-0.190
20.100,-0.203
20.105,-0.212
20.110,-0.220
20.115,-0.221
20.120,-0.216
20.125,-0.213
20.130,-0.211
20.135,-0.208
20.140,-0.200
20.145,-0.187
20.150,-0.176
20.155,-0.164
20.160,-0.155
20.165,-0.148
20.170,-0.138
20.175,-0.129
20.180,-0.117
20.185,-0.107
20.190,-0.101
20.195,-0.093
20.200,-0.082
20.205,-0.072
20.210,-0.063
20.215,-0.054
20.220,-0.045
20.225,-0.041
20.230,-0.034
20.235,-0.024
20.240,-0.020
20.245,-0.020
20.250,-0.013
20.255,-0.008
20.260,-0.007
20.265,-0.004
20.270,0.000
20.275,0.003
20.280,0.004
20.285,0.008
20.290,0.011
20.295,0.010
20.300,0.012
20.305,0.013
20.310,0.010
20.315,0.007
20.320,0.006
20.325,0.008
20.330,0.010
20.335,0.012
20.340,0.013
20.345,0.011
20.350,0.009
20.355,0.006
20.360,0.006
20.365,0.009
20.370,0.013
20.375,0.012
20.380,0.011
20.385,0.012
20.390,0.012
20.395,0.012
20.400,0.014
20.405,0.013
20.410,0.014
20.415,0.016
20.420,0.016
20.425,0.018
20.430,0.018
20.435,0.017
20.440,0.019
20.445,0.020
20.450,0.020
20.455,0.019
20.460,0.021
20.465,0.026
20.470,0.027
20.475,0.027
20.480,0.024
20.485,0.024
20.490,0.024
20.495,0.019
20.500,0.022
20.505,0.026
20.510,0.025
20.515,0.028
20.520,0.028
20.525,0.024
20.530,0.022
20.535,0.025
20.540,0.027
20.545,0.027
20.550,0.027
20.555,0.027
20.560,0.028
20.565,0.028
20.570,0.027
20.575,0.022
20.580,0.019
20.585,0.022
20.590,0.029
20.595,0.035
20.600,0.046
20.605,0.065
20.610,0.075
20.615,0.078
20.620,0.091
20.625,0.103
20.630,0.116
20.635,0.133
20.640,0.126
20.645,0.101
20.650,0.079
20.655,0.052
20.660,0.021
20.665,0.000
20.670,-0.021
20.675,-0.048
20.680,-0.058
20.685,-0.055
20.690,-0.054
20.695,-0.051
20.700,-0.050
20.705,-0.052
20.710,-0.052
20.715,-0.051
20.720,-0.045
20.725,-0.041
20.730,-0.043
20.735,-0.036
20.740,-0.032
20.745,-0.034
20.750,-0.024
20.755,-0.010
20.760,0.000
20.765,0.036
20.770,0.117
20.775,0.208
20.780,0.314
20.785,0.461
20.790,0.400
20.795,0.029
20.800,-0.204
20.805,-0.215
20.810,-0.295
20.815,-0.373
20.820,-0.345
20.825,-0.299
20.830,-0.279
20.835,-0.246
20.840,-0.190
20.845,-0.123
20.850,-0.042
20.855,0.021
20.860,0.056
20.865,0.088
20.870,0.113
20.875,0.120
20.880,0.125
20.885,0.131
20.890,0.132
20.895,0.129
20.900,0.125
20.905,0.122
20.910,0.118
20.915,0.114
20.920,0.115
20.925,0.118
20.930,0.116
20.935,0.117
20.940,0.119
20.945,0.116
20.950,0.112
20.955,0.113
20.960,0.115
20.965,0.114
20.970,0.116
20.975,0.119
20.980,0.120
20.985,0.123
20.990,0.124
20.995,0.125
21.000,0.126
21.005,0.129
21.010,0.137
21.015,0.137
21.020,0.135
21.025,0.137
21.030,0.134
21.035,0.133
21.040,0.133
21.045,0.123
21.050,0.115
21.055,0.111
21.060,0.101
21.065,0.086
21.070,0.066
21.075,0.043
21.080,0.019
21.085,-0.010
21.090,-0.039
21.095,-0.070
21.100,-0.103
21.105,-0.134
21.110,-0.163
21.115,-0.188
21.120,-0.208
21.125,-0.225
21.130,-0.240
21.135,-0.248
21.140,-0.251
21.145,-0.254
21.150,-0.252
21.155,-0.249
21.160,-0.246
21.165,-0.240
21.170,-0.230
21.175,-0.220
21.180,-0.209
21.185,-0.197
21.190,-0.187
21.195,-0.178
21.200,-0.169
21.205,-0.160
21.210,-0.150
21.215,-0.141
21.220,-0.133
21.225,-0.122
21.230,-0.108
21.235,-0.098
21.240,-0.091
21.245,-0.084
21.250,-0.075
21.255,-0.070
21.260,-0.065
21.265,-0.054
21.270,-0.044
21.275,-0.039
21.280,-0.037
21.285,-0.035
21.290,-0.029
21.295,-0.025
21.300,-0.022
21.305,-0.020
21.310,-0.019
21.315,-0.016
21.320,-0.011
21.325,-0.007
21.330,-0.011
21.335,-0.013
21.340,-0.012
21.345,-0.015
21.350,-0.009
21.355,-0.003
21.360,-0.003
21.365,-0.002
21.370,-0.005
21.375,-0.009
21.380,-0.009
21.385,-0.006
21.390,-0.006
21.395,-0.006
21.400,-0.005
21.405,-0.003
21.410,-0.005
21.415,-0.006
21.420,-0.002
21.425,0.000
21.430,-0.001
21.435,0.003
21.440,0.003
21.445,0.001
21.450,0.006
21.455,0.010
21.460,0.008
21.465,0.012
21.470,0.015
21.475,0.015
21.480,0.016
21.485,0.019
21.490,0.019
21.495,0.019
21.500,0.020
21.505,0.021
21.510,0.021
21.515,0.020
21.520,0.019
21.525,0.019
21.530,0.019
21.535,0.021
21.540,0.026
21.545,0.025
21.550,0.023
21.555,0.027
21.560,0.029
21.565,0.025
21.570,0.023
21.575,0.024
21.580,0.024
21.585,0.020
21.590,0.017
21.595,0.019
21.600,0.026
21.605,0.037
21.610,0.050
21.615,0.062
21.620,0.074
21.625,0.089
21.630,0.111
21.635,0.125
21.640,0.126
21.645,0.120
21.650,0.115
21.655,0.106
21.660,0.074
21.665,0.038
21.670,0.015
21.675,-0.010
21.680,-0.038
21.685,-0.049
21.690,-0.051
21.695,-0.053
21.700,-0.053
21.705,-0.054
21.710,-0.055
21.715,-0.051
21.720,-0.048
21.725,-0.045
21.730,-0.040
21.735,-0.037
21.740,-0.036
21.745,-0.036
21.750,-0.031
21.755,-0.027
21.760,-0.020
21.765,-0.006
21.770,0.034
21.775,0.118
21.780,0.217
21.785,0.331
21.790,0.475
21.795,0.400
21.800,0.019
21.805,-0.216
21.810,-0.232
21.815,-0.311
21.820,-0.382
21.825,-0.348
21.830,-0.297
21.835,-0.279
21.840,-0.250
21.845,-0.197
21.850,-0.124
21.855,-0.032
21.860,0.029
21.865,0.062
21.870,0.094
21.875,0.112
21.880,0.115
21.885,0.119
21.890,0.125
21.895,0.128
21.900,0.127
21.905,0.129
21.910,0.131
21.915,0.127
21.920,0.123
21.925,0.121
21.930,0.117
21.935,0.117
21.940,0.116
21.945,0.113
21.950,0.113
21.955,0.116
21.960,0.114
21.965,0.111
21.970,0.116
21.975,0.118
21.980,0.119
21.985,0.120
21.990,0.122
21.995,0.126
22.000,0.130
22.005,0.132
22.010,0.135
22.015,0.138
22.020,0.142
22.025,0.148
22.030,0.150
22.035,0.150
22.040,0.149
22.045,0.143
22.050,0.136
22.055,0.128
22.060,0.116
22.065,0.102
22.070,0.091
22.075,0.077
22.080,0.055
22.085,0.030
22.090,0.002
22.095,-0.032
22.100,-0.064
22.105,-0.094
22.110,-0.126
22.115,-0.156
22.120,-0.180
22.125,-0.201
22.130,-0.220
22.135,-0.232
22.140,-0.243
22.145,-0.247
22.150,-0.242
22.155,-0.240
22.160,-0.239
22.165,-0.232
22.170,-0.221
22.175,-0.214
22.180,-0.208
22.185,-0.195
22.190,-0.186
22.195,-0.181
22.200,-0.170
22.205,-0.157
22.210,-0.148
22.215,-0.138
22.220,-0.127
22.225,-0.118
22.230,-0.109
22.235,-0.097
22.240,-0.087
22.245,-0.079
22.250,-0.070
22.255,-0.062
22.260,-0.055
22.265,-0.046
22.270,-0.040
22.275,-0.034
22.280,-0.026
22.285,-0.020
22.290,-0.014
22.295,-0.011
22.300,-0.008
22.305,-0.006
22.310,-0.005
22.315,-0.001
22.320,0.002
22.325,0.003
22.330,0.002
22.335,0.004
22.340,0.004
22.345,0.001
22.350,0.002
22.355,0.004
22.360,0.003
22.365,0.004
22.370,0.004
22.375,0.002
22.380,0.002
22.385,0.003
22.390,0.004
22.395,0.006
22.400,0.006
22.405,0.007
22.410,0.007
22.415,0.008
22.420,0.010
22.425,0.009
22.430,0.010
22.435,0.014
22.440,0.014
22.445,0.012
22.450,0.014
22.455,0.017
22.460,0.017
22.465,0.017
22.470,0.017
22.475,0.018
22.480,0.020
22.485,0.020
22.490,0.020
22.495,0.019
22.500,0.022
22.505,0.027
22.510,0.024
22.515,0.022
22.520,0.024
22.525,0.024
22.530,0.023
22.535,0.026
22.540,0.028
22.545,0.026
22.550,0.027
22.555,0.029
22.560,0.027
22.565,0.027
22.570,0.028
22.575,0.029
22.580,0.029
22.585,0.031
22.590,0.033
22.595,0.031
22.600,0.031
22.605,0.029
22.610,0.026
22.615,0.024
22.620,0.029
22.625,0.042
22.630,0.055
22.635,0.068
22.640,0.078
22.645,0.091
22.650,0.113
22.655,0.128
22.660,0.132
22.665,0.131
22.670,0.127
22.675,0.114
22.680,0.083
22.685,0.047
22.690,0.026
22.695,0.007
22.700,-0.022
22.705,-0.043
22.710,-0.050
22.715,-0.050
22.720,-0.048
22.725,-0.049
22.730,-0.050
22.735,-0.048
22.740,-0.048
22.745,-0.049
22.750,-0.047
22.755,-0.043
22.760,-0.041
22.765,-0.041
22.770,-0.038
22.775,-0.033
22.780,-0.026
22.785,-0.013
22.790,0.010
22.795,0.072
22.800,0.163
22.805,0.259
22.810,0.391
22.815,0.444
22.820,0.171
22.825,-0.177
22.830,-0.245
22.835,-0.281
22.840,-0.380
22.845,-0.373
22.850,-0.323
22.855,-0.297
22.860,-0.268
22.865,-0.219
22.870,-0.152
22.875,-0.071
22.880,0.001
22.885,0.045
22.890,0.077
22.895,0.100
22.900,0.107
22.905,0.109
22.910,0.113
22.915,0.116
22.920,0.118
22.925,0.118
22.930,0.119
22.935,0.119
22.940,0.117
22.945,0.117
22.950,0.120
22.955,0.120
22.960,0.116
22.965,0.116
22.970,0.117
22.975,0.116
22.980,0.116
22.985,0.117
22.990,0.119
22.995,0.118
23.000,0.121
23.005,0.126
23.010,0.128
23.015,0.130
23.020,0.135
23.025,0.138
23.030,0.140
23.035,0.146
23.040,0.149
23.045,0.149
23.050,0.151
23.055,0.151
23.060,0.149
23.065,0.150
23.070,0.147
23.075,0.138
23.080,0.126
23.085,0.114
23.090,0.102
23.095,0.087
23.100,0.067
23.105,0.045
23.110,0.020
23.115,-0.006
23.120,-0.036
23.125,-0.070
23.130,-0.102
23.135,-0.132
23.140,-0.158
23.145,-0.181
23.150,-0.198
23.155,-0.211
23.160,-0.222
23.165,-0.227
23.170,-0.230
23.175,-0.231
23.180,-0.228
23.185,-0.220
23.190,-0.214
23.195,-0.209
23.200,-0.198
23.205,-0.188
23.210,-0.179
23.215,-0.169
23.220,-0.159
23.225,-0.150
23.230,-0.143
23.235,-0.130
23.240,-0.117
23.245,-0.108
23.250,-0.096
23.255,-0.083
23.260,-0.077
23.265,-0.069
23.270,-0.055
23.275,-0.047
23.280,-0.042
23.285,-0.034
23.290,-0.028
23.295,-0.023
23.300,-0.016
23.305,-0.006
23.310,-0.001
23.315,0.002
23.320,0.007
23.325,0.009
23.330,0.011
23.335,0.018
23.340,0.020
23.345,0.019
23.350,0.023
23.355,0.025
23.360,0.024
23.365,0.024
23.370,0.026
23.375,0.024
23.380,0.023
23.385,0.025
23.390,0.025
23.395,0.020
23.400,0.020
23.405,0.022
23.410,0.022
23.415,0.024
23.420,0.026
23.425,0.027
23.430,0.027
23.435,0.026
23.440,0.026
23.445,0.026
23.450,0.026
23.455,0.031
23.460,0.033
23.465,0.032
23.470,0.034
23.475,0.035
23.480,0.029
23.485,0.029
23.490,0.034
23.495,0.033
23.500,0.031
23.505,0.031
23.510,0.031
23.515,0.032
23.520,0.036
23.525,0.038
23.530,0.040
23.535,0.042
23.540,0.041
23.545,0.036
23.550,0.035
23.555,0.040
23.560,0.041
23.565,0.040
23.570,0.043
23.575,0.041
23.580,0.037
23.585,0.036
23.590,0.035
23.595,0.034
23.600,0.035
23.605,0.037
23.610,0.034
23.615,0.034
23.620,0.039
23.625,0.038
23.630,0.036
23.635,0.036
23.640,0.035
23.645,0.030
23.650,0.030
23.655,0.037
23.660,0.052
23.665,0.067
23.670,0.077
23.675,0.087
23.680,0.098
23.685,0.111
23.690,0.122
23.695,0.134
23.700,0.135
23.705,0.117
23.710,0.097
23.715,0.072
23.720,0.040
23.725,0.013
23.730,-0.008
23.735,-0.034
23.740,-0.053
23.745,-0.055
23.750,-0.050
23.755,-0.046
23.760,-0.048
23.765,-0.054
23.770,-0.053
23.775,-0.050
23.780,-0.051
23.785,-0.047
23.790,-0.039
23.795,-0.038
23.800,-0.038
23.805,-0.036
23.810,-0.030
23.815,-0.020
23.820,-0.013
23.825,0.007
23.830,0.070
23.835,0.160
23.840,0.266
23.845,0.409
23.850,0.444
23.855,0.146
23.860,-0.187
23.865,-0.233
23.870,-0.275
23.875,-0.378
23.880,-0.365
23.885,-0.313
23.890,-0.291
23.895,-0.272
23.900,-0.225
23.905,-0.155
23.910,-0.076
23.915,-0.004
23.920,0.041
23.925,0.078
23.930,0.105
23.935,0.110
23.940,0.112
23.945,0.117
23.950,0.122
23.955,0.127
23.960,0.125
23.965,0.118
23.970,0.115
23.975,0.114
23.980,0.112
23.985,0.111
23.990,0.108
23.995,0.104
24.000,0.105
24.005,0.106
24.010,0.104
24.015,0.100
24.020,0.103
24.025,0.110
24.030,0.111
24.035,0.110
24.040,0.109
24.045,0.108
24.050,0.111
24.055,0.117
24.060,0.120
24.065,0.122
24.070,0.128
24.075,0.129
24.080,0.127
24.085,0.128
24.090,0.129
24.095,0.128
24.100,0.126
24.105,0.121
24.110,0.110
24.115,0.101
24.120,0.093
24.125,0.081
24.130,0.064
24.135,0.046
24.140,0.020
24.145,-0.009
24.150,-0.032
24.155,-0.057
24.160,-0.088
24.165,-0.121
24.170,-0.152
24.175,-0.179
24.180,-0.203
24.185,-0.221
24.190,-0.234
24.195,-0.244
24.200,-0.250
24.205,-0.253
24.210,-0.252
24.215,-0.247
24.220,-0.237
24.225,-0.230
24.230,-0.228
24.235,-0.221
24.240,-0.210
24.245,-0.201
24.250,-0.188
24.255,-0.176
24.260,-0.168
24.265,-0.160
24.270,-0.150
24.275,-0.136
24.280,-0.126
24.285,-0.118
24.290,-0.107
24.295,-0.097
24.300,-0.088
24.305,-0.084
24.310,-0.077
24.315,-0.065
24.320,-0.055
24.325,-0.046
24.330,-0.039
24.335,-0.032
24.340,-0.024
24.345,-0.024
24.350,-0.024
24.355,-0.021
24.360,-0.018
24.365,-0.014
24.370,-0.007
24.375,-0.003
24.380,-0.007
24.385,-0.009
24.390,-0.003
24.395,-0.002
24.400,-0.004
24.405,0.000
24.410,0.003
24.415,0.001
24.420,-0.001
24.425,0.000
24.430,-0.003
24.435,-0.006
24.440,-0.004
24.445,-0.003
24.450,0.000
24.455,0.006
24.460,0.006
24.465,0.005
24.470,0.007
24.475,0.006
24.480,0.005
24.485,0.007
24.490,0.012
24.495,0.012
24.500,0.011
24.505,0.013
24.510,0.014
24.515,0.014
24.520,0.020
24.525,0.018
24.530,0.013
24.535,0.015
24.540,0.017
24.545,0.017
24.550,0.018
24.555,0.019
24.560,0.018
24.565,0.017
24.570,0.020
24.575,0.019
24.580,0.019
24.585,0.024
24.590,0.021
24.595,-0.005
24.600,-0.035
24.605,-0.033
24.610,-0.023
24.615,-0.024
24.620,-0.023
24.625,-0.022
24.630,-0.022
24.635,-0.018
24.640,-0.012
24.645,-0.002
24.650,0.015
24.655,0.033
24.660,0.048
24.665,0.069
24.670,0.090
24.675,0.096
24.680,0.099
24.685,0.102
24.690,0.097
24.695,0.085
24.700,0.056
24.705,0.023
24.710,0.002
24.715,-0.019
24.720,-0.047
24.725,-0.062
24.730,-0.063
24.735,-0.063
24.740,-0.065
24.745,-0.063
24.750,-0.056
24.755,-0.055
24.760,-0.058
24.765,-0.055
24.770,-0.052
24.775,-0.051
24.780,-0.047
24.785,-0.040
24.790,-0.033
24.795,-0.031
24.800,-0.023
24.805,-0.007
24.810,0.037
24.815,0.129
24.820,0.234
24.825,0.359
24.830,0.496
24.835,0.355
24.840,-0.053
24.845,-0.234
24.850,-0.247
24.855,-0.339
24.860,-0.385
24.865,-0.341
24.870,-0.293
24.875,-0.275
24.880,-0.244
24.885,-0.182
24.890,-0.103
24.895,-0.022
24.900,0.038
24.905,0.076
24.910,0.106
24.915,0.122
24.920,0.124
24.925,0.127
24.930,0.133
24.935,0.137
24.940,0.143
24.945,0.142
24.950,0.140
24.955,0.137
24.960,0.132
24.965,0.134
24.970,0.140
24.975,0.139
24.980,0.133
24.985,0.133
24.990,0.133
24.995,0.132
25.000,0.134
25.005,0.137
25.010,0.137
25.015,0.135
25.020,0.136
25.025,0.139
25.030,0.144
25.035,0.150
25.040,0.155
25.045,0.156
25.050,0.160
25.055,0.162
25.060,0.160
25.065,0.161
25.070,0.164
25.075,0.165
25.080,0.160
25.085,0.157
25.090,0.153
25.095,0.139
25.100,0.128
25.105,0.117
25.110,0.098
25.115,0.083
25.120,0.067
25.125,0.040
25.130,0.007
25.135,-0.026
25.140,-0.061
25.145,-0.096
25.150,-0.127
25.155,-0.153
25.160,-0.177
25.165,-0.196
25.170,-0.210
25.175,-0.221
25.180,-0.232
25.185,-0.239
25.190,-0.238
25.195,-0.234
25.200,-0.231
25.205,-0.227
25.210,-0.220
25.215,-0.212
25.220,-0.203
25.225,-0.194
25.230,-0.184
25.235,-0.175
25.240,-0.164
25.245,-0.155
25.250,-0.146
25.255,-0.136
25.260,-0.128
25.265,-0.121
25.270,-0.113
25.275,-0.101
25.280,-0.089
25.285,-0.079
25.290,-0.070
25.295,-0.065
25.300,-0.060
25.305,-0.052
25.310,-0.047
25.315,-0.044
25.320,-0.038
25.325,-0.031
25.330,-0.024
25.335,-0.021
25.340,-0.017
25.345,-0.013
25.350,-0.011
25.355,-0.008
25.360,-0.005
25.365,-0.007
25.370,-0.006
25.375,-0.002
25.380,-0.002
25.385,-0.001
25.390,-0.001
25.395,-0.003
25.400,-0.001
25.405,-0.002
25.410,-0.005
25.415,-0.004
25.420,-0.001
25.425,0.000
25.430,0.002
25.435,0.003
25.440,0.002
25.445,0.002
25.450,0.005
25.455,0.007
25.460,0.005
25.465,0.006
25.470,0.010
25.475,0.009
25.480,0.007
25.485,0.011
25.490,0.013
25.495,0.011
25.500,0.010
25.505,0.013
25.510,0.015
25.515,0.015
25.520,0.018
25.525,0.019
25.530,0.017
25.535,0.019
25.540,0.021
25.545,0.019
25.550,0.018
25.555,0.021
25.560,0.024
25.565,0.024
25.570,0.025
25.575,0.026
25.580,0.025
25.585,0.025
25.590,0.025
25.595,0.025
25.600,0.021
25.605,0.021
25.610,0.025
25.615,0.025
25.620,0.032
25.625,0.046
25.630,0.058
25.635,0.069
25.640,0.080
25.645,0.097
25.650,0.121
25.655,0.137
25.660,0.123
25.665,0.112
25.670,0.122
25.675,0.108
25.680,0.069
25.685,0.037
25.690,0.013
25.695,-0.015
25.700,-0.036
25.705,-0.039
25.710,-0.040
25.715,-0.043
25.720,-0.040
25.725,-0.041
25.730,-0.043
25.735,-0.040
25.740,-0.037
25.745,-0.036
25.750,-0.033
25.755,-0.026
25.760,-0.024
25.765,-0.024
25.770,-0.020
25.775,-0.010
25.780,0.005
25.785,0.036
25.790,0.111
25.795,0.204
25.800,0.304
25.805,0.444
25.810,0.434
25.815,0.099
25.820,-0.198
25.825,-0.238
25.830,-0.302
25.835,-0.388
25.840,-0.357
25.845,-0.304
25.850,-0.282
25.855,-0.247
25.860,-0.195
25.865,-0.132
25.870,-0.047
25.875,0.021
25.880,0.056
25.885,0.088
25.890,0.110
25.895,0.113
25.900,0.115
25.905,0.120
25.910,0.123
25.915,0.123
25.920,0.124
25.925,0.125
25.930,0.124
25.935,0.125
25.940,0.126
25.945,0.123
25.950,0.122
25.955,0.124
25.960,0.122
25.965,0.123
25.970,0.125
25.975,0.125
25.980,0.126
25.985,0.130
25.990,0.130
25.995,0.131
26.000,0.136
26.005,0.139
26.010,0.140
26.015,0.145
26.020,0.152
26.025,0.153
26.030,0.153
26.035,0.157
26.040,0.159
26.045,0.159
26.050,0.160
26.055,0.159
26.060,0.155
26.065,0.147
26.070,0.141
26.075,0.133
26.080,0.121
26.085,0.110
26.090,0.094
26.095,0.070
26.100,0.046
26.105,0.020
26.110,-0.011
26.115,-0.043
26.120,-0.077
26.125,-0.114
26.130,-0.145
26.135,-0.169
26.140,-0.190
26.145,-0.211
26.150,-0.228
26.155,-0.242
26.160,-0.246
26.165,-0.247
26.170,-0.249
26.175,-0.245
26.180,-0.237
26.185,-0.228
26.190,-0.219
26.195,-0.212
26.200,-0.205
26.205,-0.196
26.210,-0.186
26.215,-0.177
26.220,-0.166
26.225,-0.157
26.230,-0.146
26.235,-0.134
26.240,-0.126
26.245,-0.121
26.250,-0.110
26.255,-0.098
26.260,-0.086
26.265,-0.074
26.270,-0.065
26.275,-0.060
26.280,-0.053
26.285,-0.043
26.290,-0.037
26.295,-0.036
26.300,-0.031
26.305,-0.022
26.310,-0.016
26.315,-0.011
26.320,-0.005
26.325,-0.001
26.330,-0.002
26.335,0.000
26.340,0.008
26.345,0.011
26.350,0.011
26.355,0.012
26.360,0.013
26.365,0.012
26.370,0.015
26.375,0.018
26.380,0.017
26.385,0.016
26.390,0.017
26.395,0.017
26.400,0.017
26.405,0.020
26.410,0.019
26.415,0.018
26.420,0.023
26.425,0.028
26.430,0.026
26.435,0.029
26.440,0.032
26.445,0.030
26.450,0.033
26.455,0.035
26.460,0.032
26.465,0.032
26.470,0.037
26.475,0.040
26.480,0.041
26.485,0.042
26.490,0.045
26.495,0.046
26.500,0.045
26.505,0.047
26.510,0.047
26.515,0.047
26.520,0.050
26.525,0.051
26.530,0.048
26.535,0.050
26.540,0.052
26.545,0.049
26.550,0.052
26.555,0.053
26.560,0.048
26.565,0.045
26.570,0.049
26.575,0.050
26.580,0.049
26.585,0.046
26.590,0.043
26.595,0.040
26.600,0.042
26.605,0.052
26.610,0.067
26.615,0.081
26.620,0.093
26.625,0.104
26.630,0.120
26.635,0.141
26.640,0.148
26.645,0.133
26.650,0.124
26.655,0.128
26.660,0.113
26.665,0.076
26.670,0.050
26.675,0.031
26.680,-0.005
26.685,-0.027
26.690,-0.024
26.695,-0.022
26.700,-0.023
26.705,-0.029
26.710,-0.031
26.715,-0.033
26.720,-0.036
26.725,-0.031
26.730,-0.028
26.735,-0.023
26.740,-0.017
26.745,-0.019
26.750,-0.020
26.755,-0.015
26.760,-0.005
26.765,0.008
26.770,0.044
26.775,0.126
26.780,0.219
26.785,0.326
26.790,0.470
26.795,0.388
26.800,0.009
26.805,-0.211
26.810,-0.223
26.815,-0.302
26.820,-0.370
26.825,-0.341
26.830,-0.302
26.835,-0.292
26.840,-0.260
26.845,-0.204
26.850,-0.135
26.855,-0.047
26.860,0.026
26.865,0.064
26.870,0.090
26.875,0.104
26.880,0.105
26.885,0.115
26.890,0.123
26.895,0.120
26.900,0.119
26.905,0.117
26.910,0.116
26.915,0.117
26.920,0.115
26.925,0.113
26.930,0.111
26.935,0.108
26.940,0.101
26.945,0.098
26.950,0.106
26.955,0.108
26.960,0.103
26.965,0.101
26.970,0.101
26.975,0.103
26.980,0.107
26.985,0.113
26.990,0.120
26.995,0.116
27.000,0.115
27.005,0.123
27.010,0.125
27.015,0.123
27.020,0.128
27.025,0.134
27.030,0.130
27.035,0.124
27.040,0.124
27.045,0.122
27.050,0.117
27.055,0.115
27.060,0.106
27.065,0.092
27.070,0.079
27.075,0.058
27.080,0.036
27.085,0.016
27.090,-0.009
27.095,-0.041
27.100,-0.075
27.105,-0.108
27.110,-0.141
27.115,-0.170
27.120,-0.189
27.125,-0.209
27.130,-0.230
27.135,-0.241
27.140,-0.249
27.145,-0.255
27.150,-0.256
27.155,-0.252
27.160,-0.245
27.165,-0.238
27.170,-0.229
27.175,-0.224
27.180,-0.221
27.185,-0.209
27.190,-0.195
27.195,-0.185
27.200,-0.172
27.205,-0.163
27.210,-0.157
27.215,-0.148
27.220,-0.137
27.225,-0.130
27.230,-0.123
27.235,-0.109
27.240,-0.097
27.245,-0.092
27.250,-0.088
27.255,-0.075
27.260,-0.061
27.265,-0.056
27.270,-0.051
27.275,-0.042
27.280,-0.037
27.285,-0.031
27.290,-0.023
27.295,-0.023
27.300,-0.022
27.305,-0.016
27.310,-0.018
27.315,-0.022
27.320,-0.016
27.325,-0.009
27.330,-0.010
27.335,-0.013
27.340,-0.017
27.345,-0.024
27.350,-0.022
27.355,-0.013
27.360,-0.015
27.365,-0.019
27.370,-0.017
27.375,-0.017
27.380,-0.020
27.385,-0.022
27.390,-0.023
27.395,-0.023
27.400,-0.022
27.405,-0.017
27.410,-0.017
27.415,-0.022
27.420,-0.028
27.425,-0.027
27.430,-0.018
27.435,-0.013
27.440,-0.014
27.445,-0.016
27.450,-0.015
27.455,-0.009
27.460,-0.008
27.465,-0.007
27.470,-0.003
27.475,-0.003
27.480,-0.003
27.485,-0.001
27.490,0.001
27.495,0.001
27.500,0.002
27.505,0.005
27.510,0.007
27.515,0.007
27.520,0.007
27.525,0.007
27.530,0.005
27.535,0.009
27.540,0.011
27.545,0.005
27.550,0.000
27.555,0.002
27.560,0.007
27.565,0.015
27.570,0.030
27.575,0.046
27.580,0.051
27.585,0.064
27.590,0.093
27.595,0.114
27.600,0.120
27.605,0.106
27.610,0.098
27.615,0.108
27.620,0.092
27.625,0.053
27.630,0.023
27.635,0.000
27.640,-0.027
27.645,-0.043
27.650,-0.045
27.655,-0.047
27.660,-0.046
27.665,-0.043
27.670,-0.044
27.675,-0.047
27.680,-0.050
27.685,-0.046
27.690,-0.040
27.695,-0.034
27.700,-0.029
27.705,-0.026
27.710,-0.027
27.715,-0.024
27.720,-0.011
27.725,0.005
27.730,0.052
27.735,0.145
27.740,0.240
27.745,0.354
27.750,0.497
27.755,0.383
27.760,-0.016
27.765,-0.223
27.770,-0.238
27.775,-0.324
27.780,-0.378
27.785,-0.339
27.790,-0.294
27.795,-0.281
27.800,-0.246
27.805,-0.183
27.810,-0.113
27.815,-0.029
27.820,0.036
27.825,0.070
27.830,0.096
27.835,0.113
27.840,0.117
27.845,0.117
27.850,0.122
27.855,0.125
27.860,0.127
27.865,0.128
27.870,0.127
27.875,0.128
27.880,0.126
27.885,0.125
27.890,0.126
27.895,0.124
27.900,0.120
27.905,0.118
27.910,0.119
27.915,0.119
27.920,0.121
27.925,0.122
27.930,0.121
27.935,0.125
27.940,0.128
27.945,0.127
27.950,0.130
27.955,0.136
27.960,0.139
27.965,0.140
27.970,0.143
27.975,0.148
27.980,0.152
27.985,0.157
27.990,0.162
27.995,0.162
28.000,0.157
28.005,0.151
28.010,0.143
28.015,0.133
28.020,0.123
28.025,0.110
28.030,0.093
28.035,0.077
28.040,0.059
28.045,0.031
28.050,-0.002
28.055,-0.031
28.060,-0.066
28.065,-0.104
28.070,-0.137
28.075,-0.164
28.080,-0.190
28.085,-0.211
28.090,-0.226
28.095,-0.237
28.100,-0.245
28.105,-0.248
28.110,-0.247
28.115,-0.244
28.120,-0.238
28.125,-0.229
28.130,-0.222
28.135,-0.213
28.140,-0.202
28.145,-0.194
28.150,-0.185
28.155,-0.172
28.160,-0.163
28.165,-0.156
28.170,-0.143
28.175,-0.131
28.180,-0.123
28.185,-0.114
28.190,-0.103
28.195,-0.092
28.200,-0.081
28.205,-0.072
28.210,-0.065
28.215,-0.056
28.220,-0.047
28.225,-0.038
28.230,-0.031
28.235,-0.024
28.240,-0.017
28.245,-0.012
28.250,-0.009
28.255,-0.002
28.260,0.003
28.265,0.004
28.270,0.008
28.275,0.011
28.280,0.013
28.285,0.016
28.290,0.017
28.295,0.014
28.300,0.016
28.305,0.021
28.310,0.018
28.315,0.016
28.320,0.018
28.325,0.016
28.330,0.017
28.335,0.023
28.340,0.020
28.345,0.014
28.350,0.016
28.355,0.022
28.360,0.024
28.365,0.021
28.370,0.023
28.375,0.025
28.380,0.024
28.385,0.024
28.390,0.026
28.395,0.020
28.400,0.016
28.405,0.022
28.410,0.024
28.415,0.023
28.420,0.023
28.425,0.025
28.430,0.021
28.435,0.011
28.440,0.015
28.445,0.030
28.450,0.038
28.455,0.034
28.460,0.017
28.465,0.023
28.470,0.052
28.475,0.052
28.480,0.044
28.485,0.051
28.490,0.055
28.495,0.055
28.500,0.058
28.505,0.057
28.510,0.051
28.515,0.048
28.520,0.048
28.525,0.043
28.530,0.037
28.535,0.030
28.540,0.024
28.545,0.021
28.550,0.027
28.555,0.045
28.560,0.060
28.565,0.067
28.570,0.082
28.575,0.106
28.580,0.121
28.585,0.119
28.590,0.107
28.595,0.099
28.600,0.085
28.605,0.060
28.610,0.030
28.615,-0.003
28.620,-0.036
28.625,-0.050
28.630,-0.051
28.635,-0.050
28.640,-0.054
28.645,-0.069
28.650,-0.078
28.655,-0.069
28.660,-0.062
28.665,-0.062
28.670,-0.052
28.675,-0.045
28.680,-0.050
28.685,-0.042
28.690,-0.034
28.695,-0.036
28.700,-0.023
28.705,-0.009
28.710,0.007
28.715,0.069
28.720,0.166
28.725,0.261
28.730,0.391
28.735,0.462
28.740,0.197
28.745,-0.165
28.750,-0.236
28.755,-0.273
28.760,-0.376
28.765,-0.366
28.770,-0.309
28.775,-0.278
28.780,-0.249
28.785,-0.197
28.790,-0.130
28.795,-0.048
28.800,0.033
28.805,0.086
28.810,0.120
28.815,0.145
28.820,0.153
28.825,0.152
28.830,0.155
28.835,0.157
28.840,0.160
28.845,0.165
28.850,0.171
28.855,0.174
28.860,0.167
28.865,0.162
28.870,0.158
28.875,0.148
28.880,0.135
28.885,0.126
28.890,0.122
28.895,0.114
28.900,0.106
28.905,0.103
28.910,0.104
28.915,0.100
28.920,0.093
28.925,0.093
28.930,0.096
28.935,0.095
28.940,0.097
28.945,0.102
28.950,0.104
28.955,0.108
28.960,0.115
28.965,0.115
28.970,0.116
28.975,0.120
28.980,0.119
28.985,0.115
28.990,0.111
28.995,0.099
29.000,0.089
29.005,0.083
29.010,0.069
29.015,0.052
29.020,0.034
29.025,0.007
29.030,-0.022
29.035,-0.049
29.040,-0.081
29.045,-0.117
29.050,-0.152
29.055,-0.181
29.060,-0.206
29.065,-0.227
29.070,-0.244
29.075,-0.257
29.080,-0.267
29.085,-0.273
29.090,-0.276
29.095,-0.275
29.100,-0.271
29.105,-0.259
29.110,-0.247
29.115,-0.243
29.120,-0.234
29.125,-0.224
29.130,-0.217
29.135,-0.205
29.140,-0.189
29.145,-0.172
29.150,-0.158
29.155,-0.149
29.160,-0.145
29.165,-0.134
29.170,-0.116
29.175,-0.099
29.180,-0.086
29.185,-0.075
29.190,-0.060
29.195,-0.049
29.200,-0.042
29.205,-0.033
29.210,-0.025
29.215,-0.015
29.220,-0.004
29.225,0.005
29.230,0.012
29.235,0.022
29.240,0.031
29.245,0.036
29.250,0.040
29.255,0.044
29.260,0.046
29.265,0.046
29.270,0.050
29.275,0.052
29.280,0.052
29.285,0.053
29.290,0.050
29.295,0.045
29.300,0.050
29.305,0.056
29.310,0.054
29.315,0.058
29.320,0.062
29.325,0.062
29.330,0.060
29.335,0.060
29.340,0.063
29.345,0.057
29.350,0.052
29.355,0.061
29.360,0.061
29.365,0.055
29.370,0.055
29.375,0.046
29.380,0.037
29.385,0.039
29.390,0.040
29.395,0.040
29.400,0.049
29.405,0.052
29.410,0.048
29.415,0.047
29.420,0.043
29.425,0.032
29.430,0.029
29.435,0.036
29.440,0.034
29.445,0.033
29.450,0.045
29.455,0.049
29.460,0.048
29.465,0.050
29.470,0.048
29.475,0.046
29.480,0.058
29.485,0.068
29.490,0.053
29.495,0.035
29.500,0.040
29.505,0.075
29.510,0.105
29.515,0.116
29.520,0.124
29.525,0.133
29.530,0.143
29.535,0.164
29.540,0.185
29.545,0.171
29.550,0.148
29.555,0.150
29.560,0.146
29.565,0.111
29.570,0.074
29.575,0.047
29.580,0.009
29.585,-0.018
29.590,-0.023
29.595,-0.031
29.600,-0.041
29.605,-0.045
29.610,-0.045
29.615,-0.045
29.620,-0.047
29.625,-0.046
29.630,-0.039
29.635,-0.039
29.640,-0.044
29.645,-0.039
29.650,-0.034
29.655,-0.037
29.660,-0.034
29.665,-0.030
29.670,-0.006
29.675,0.076
29.680,0.180
29.685,0.283
29.690,0.433
29.695,0.439
29.700,0.098
29.705,-0.207
29.710,-0.226
29.715,-0.267
29.720,-0.362
29.725,-0.351
29.730,-0.298
29.735,-0.275
29.740,-0.254
29.745,-0.208
29.750,-0.143
29.755,-0.058
29.760,0.024
29.765,0.069
29.770,0.093
29.775,0.112
29.780,0.124
29.785,0.132
29.790,0.135
29.795,0.139
29.800,0.140
29.805,0.136
29.810,0.133
29.815,0.128
29.820,0.125
29.825,0.124
29.830,0.120
29.835,0.110
29.840,0.101
29.845,0.095
29.850,0.092
29.855,0.088
29.860,0.076
29.865,0.067
29.870,0.062
29.875,0.059
29.880,0.059
29.885,0.061
29.890,0.061
29.895,0.059
29.900,0.060
29.905,0.065
29.910,0.066
29.915,0.063
29.920,0.066
29.925,0.073
29.930,0.079
29.935,0.079
29.940,0.080
29.945,0.077
29.950,0.071
29.955,0.062
29.960,0.048
29.965,0.039
29.970,0.037
29.975,0.027
29.980,0.002
29.985,-0.026
29.990,-0.054
29.995,-0.088
30.000,-0.119
30.005,-0.146
30.010,-0.179
30.015,-0.207
30.020,-0.223
30.025,-0.241
30.030,-0.265
30.035,-0.281
30.040,-0.286
30.045,-0.284
30.050,-0.273
30.055,-0.265
30.060,-0.259
30.065,-0.250
30.070,-0.241
30.075,-0.225
30.080,-0.209
30.085,-0.196
30.090,-0.182
30.095,-0.171
30.100,-0.155
30.105,-0.132
30.110,-0.120
30.115,-0.115
30.120,-0.102
30.125,-0.089
30.130,-0.075
30.135,-0.063
30.140,-0.055
30.145,-0.049
30.150,-0.046
30.155,-0.035
30.160,-0.026
30.165,-0.021
30.170,-0.007
30.175,0.003
30.180,0.000
30.185,0.002
30.190,0.013
30.195,0.017
30.200,0.015
30.205,0.022
30.210,0.032
30.215,0.037
30.220,0.039
30.225,0.046
30.230,0.051
30.235,0.053
30.240,0.052
30.245,0.045
30.250,0.042
30.255,0.043
30.260,0.044
30.265,0.054
30.270,0.069
30.275,0.083
30.280,0.090
30.285,0.089
30.290,0.097
30.295,0.104
30.300,0.099
30.305,0.096
30.310,0.086
30.315,0.070
30.320,0.067
30.325,0.069
30.330,0.072
30.335,0.083
30.340,0.089
30.345,0.087
30.350,0.086
30.355,0.093
30.360,0.101
30.365,0.102
30.370,0.104
30.375,0.107
30.380,0.100
30.385,0.096
30.390,0.094
30.395,0.086
30.400,0.078
30.405,0.068
30.410,0.059
30.415,0.051
30.420,0.037
30.425,0.020
30.430,0.008
30.435,0.003
30.440,-0.003
30.445,-0.008
30.450,-0.004
30.455,-0.007
30.460,-0.012
30.465,-0.006
30.470,0.004
30.475,0.004
30.480,-0.015
30.485,-0.037
30.490,-0.048
30.495,-0.068
30.500,-0.102
30.505,-0.133
30.510,-0.165
30.515,-0.202
30.520,-0.224
30.525,-0.226
30.530,-0.224
30.535,-0.223
30.540,-0.224
30.545,-0.227
30.550,-0.227
30.555,-0.224
30.560,-0.223
30.565,-0.220
30.570,-0.213
30.575,-0.205
30.580,-0.201
30.585,-0.198
30.590,-0.188
30.595,-0.171
30.600,-0.150
30.605,-0.098
30.610,0.002
30.615,0.120
30.620,0.262
30.625,0.408
30.630,0.282
30.635,-0.112
30.640,-0.291
30.645,-0.292
30.650,-0.374
30.655,-0.425
30.660,-0.384
30.665,-0.335
30.670,-0.315
30.675,-0.278
30.680,-0.213
30.685,-0.135
30.690,-0.046
30.695,0.016
30.700,0.054
30.705,0.088
30.710,0.108
30.715,0.119
30.720,0.134
30.725,0.144
30.730,0.145
30.735,0.152
30.740,0.160
30.745,0.158
30.750,0.154
30.755,0.154
30.760,0.152
30.765,0.152
30.770,0.152
30.775,0.151
30.780,0.152
30.785,0.157
30.790,0.163
30.795,0.169
30.800,0.176
30.805,0.184
30.810,0.192
30.815,0.201
30.820,0.208
30.825,0.213
30.830,0.218
30.835,0.223
30.840,0.228
30.845,0.228
30.850,0.226
30.855,0.225
30.860,0.224
30.865,0.221
30.870,0.214
30.875,0.205
30.880,0.196
30.885,0.187
30.890,0.177
30.895,0.164
30.900,0.148
30.905,0.129
30.910,0.105
30.915,0.079
30.920,0.052
30.925,0.022
30.930,-0.015
30.935,-0.054
30.940,-0.088
30.945,-0.118
30.950,-0.143
30.955,-0.170
30.960,-0.193
30.965,-0.210
30.970,-0.221
30.975,-0.228
30.980,-0.235
30.985,-0.235
30.990,-0.230
30.995,-0.227
31.000,-0.220
31.005,-0.210
31.010,-0.200
31.015,-0.189
31.020,-0.175
31.025,-0.165
31.030,-0.157
31.035,-0.148
31.040,-0.137
31.045,-0.126
31.050,-0.118
31.055,-0.107
31.060,-0.098
31.065,-0.090
31.070,-0.079
31.075,-0.068
31.080,-0.058
31.085,-0.048
31.090,-0.038
31.095,-0.032
31.100,-0.024
31.105,-0.016
31.110,-0.011
31.115,-0.005
31.120,0.003
31.125,0.005
31.130,0.008
31.135,0.015
31.140,0.015
31.145,0.012
31.150,0.016
31.155,0.018
31.160,0.018
31.165,0.020
31.170,0.022
31.175,0.021
31.180,0.020
31.185,0.020
31.190,0.019
31.195,0.020
31.200,0.024
31.205,0.024
31.210,0.023
31.215,0.023
31.220,0.024
31.225,0.025
31.230,0.025
31.235,0.025
31.240,0.026
31.245,0.025
31.250,0.026
31.255,0.030
31.260,0.031
31.265,0.027
31.270,0.026
31.275,0.031
31.280,0.033
31.285,0.031
31.290,0.034
31.295,0.032
31.300,0.029
31.305,0.030
31.310,0.032
31.315,0.033
31.320,0.033
31.325,0.032
31.330,0.029
31.335,0.029
31.340,0.030
31.345,0.031
31.350,0.031
31.355,0.031
31.360,0.030
31.365,0.029
31.370,0.028
31.375,0.031
31.380,0.030
31.385,0.027
31.390,0.030
31.395,0.037
31.400,0.049
31.405,0.068
31.410,0.079
31.415,0.085
31.420,0.107
31.425,0.135
31.430,0.152
31.435,0.145
31.440,0.133
31.445,0.138
31.450,0.133
31.455,0.102
31.460,0.073
31.465,0.056
31.470,0.036
31.475,0.017
31.480,0.013
31.485,0.016
31.490,0.016
31.495,0.010
31.500,0.003
31.505,-0.003
31.510,-0.007
31.515,-0.009
31.520,-0.007
31.525,-0.007
31.530,-0.011
31.535,-0.012
31.540,-0.010
31.545,-0.011
31.550,-0.003
31.555,0.011
31.560,0.039
31.565,0.116
31.570,0.213
31.575,0.311
31.580,0.447
31.585,0.436
31.590,0.097
31.595,-0.212
31.600,-0.254
31.605,-0.314
31.610,-0.406
31.615,-0.380
31.620,-0.323
31.625,-0.303
31.630,-0.275
31.635,-0.218
31.640,-0.146
31.645,-0.064
31.650,0.006
31.655,0.050
31.660,0.079
31.665,0.100
31.670,0.110
31.675,0.114
31.680,0.114
31.685,0.114
31.690,0.114
31.695,0.112
31.700,0.110
31.705,0.108
31.710,0.107
31.715,0.109
31.720,0.110
31.725,0.110
31.730,0.111
31.735,0.114
31.740,0.117
31.745,0.121
31.750,0.127
31.755,0.134
31.760,0.136
31.765,0.141
31.770,0.153
31.775,0.161
31.780,0.165
31.785,0.170
31.790,0.176
31.795,0.179
31.800,0.183
31.805,0.183
31.810,0.178
31.815,0.175
31.820,0.175
31.825,0.170
31.830,0.161
31.835,0.154
31.840,0.144
31.845,0.130
31.850,0.114
31.855,0.097
31.860,0.078
31.865,0.058
31.870,0.037
31.875,0.009
31.880,-0.024
31.885,-0.059
31.890,-0.096
31.895,-0.131
31.900,-0.162
31.905,-0.194
31.910,-0.223
31.915,-0.242
31.920,-0.261
31.925,-0.278
31.930,-0.290
31.935,-0.294
31.940,-0.290
31.945,-0.284
31.950,-0.279
31.955,-0.271
31.960,-0.268
31.965,-0.261
31.970,-0.245
31.975,-0.234
31.980,-0.228
31.985,-0.214
31.990,-0.202
31.995,-0.193
32.000,-0.179
32.005,-0.165
32.010,-0.156
32.015,-0.146
32.020,-0.131
32.025,-0.115
32.030,-0.103
32.035,-0.091
32.040,-0.079
32.045,-0.072
32.050,-0.065
32.055,-0.055
32.060,-0.046
32.065,-0.042
32.070,-0.036
32.075,-0.028
32.080,-0.021
32.085,-0.016
32.090,-0.008
32.095,0.000
32.100,0.005
32.105,0.010
32.110,0.006
32.115,0.003
32.120,0.010
32.125,0.015
32.130,0.019
32.135,0.023
32.140,0.020
32.145,0.019
32.150,0.023
32.155,0.029
32.160,0.033
32.165,0.033
32.170,0.035
32.175,0.036
32.180,0.034
32.185,0.034
32.190,0.040
32.195,0.041
32.200,0.038
32.205,0.038
32.210,0.039
32.215,0.042
32.220,0.052
32.225,0.055
32.230,0.052
32.235,0.053
32.240,0.055
32.245,0.059
32.250,0.060
32.255,0.065
32.260,0.070
32.265,0.067
32.270,0.066
32.275,0.070
32.280,0.072
32.285,0.074
32.290,0.074
32.295,0.072
32.300,0.072
32.305,0.075
32.310,0.077
32.315,0.072
32.320,0.069
32.325,0.071
32.330,0.070
32.335,0.072
32.340,0.069
32.345,0.059
32.350,0.057
32.355,0.063
32.360,0.070
32.365,0.079
32.370,0.090
32.375,0.101
32.380,0.109
32.385,0.128
32.390,0.145
32.395,0.145
32.400,0.141
32.405,0.134
32.410,0.124
32.415,0.104
32.420,0.071
32.425,0.041
32.430,0.022
32.435,-0.005
32.440,-0.035
32.445,-0.045
32.450,-0.044
32.455,-0.044
32.460,-0.047
32.465,-0.051
32.470,-0.050
32.475,-0.047
32.480,-0.048
32.485,-0.047
32.490,-0.045
32.495,-0.043
32.500,-0.040
32.505,-0.041
32.510,-0.037
32.515,-0.023
32.520,-0.013
32.525,0.005
32.530,0.074
32.535,0.176
32.540,0.279
32.545,0.416
32.550,0.471
32.555,0.188
32.560,-0.173
32.565,-0.229
32.570,-0.250
32.575,-0.350
32.580,-0.354
32.585,-0.307
32.590,-0.273
32.595,-0.251
32.600,-0.202
32.605,-0.125
32.610,-0.045
32.615,0.030
32.620,0.089
32.625,0.133
32.630,0.165
32.635,0.185
32.640,0.194
32.645,0.201
32.650,0.205
32.655,0.209
32.660,0.216
32.665,0.219
32.670,0.218
32.675,0.210
32.680,0.199
32.685,0.193
32.690,0.188
32.695,0.185
32.700,0.187
32.705,0.188
32.710,0.193
32.715,0.191
32.720,0.184
32.725,0.180
32.730,0.178
32.735,0.184
32.740,0.188
32.745,0.190
32.750,0.193
32.755,0.191
32.760,0.185
32.765,0.178
32.770,0.170
32.775,0.161
32.780,0.154
32.785,0.146
32.790,0.130
32.795,0.117
32.800,0.113
32.805,0.113
32.810,0.114
32.815,0.106
32.820,0.099
32.825,0.091
32.830,0.073
32.835,0.057
32.840,0.043
32.845,0.021
32.850,-0.005
32.855,-0.025
32.860,-0.042
32.865,-0.071
32.870,-0.109
32.875,-0.150
32.880,-0.188
32.885,-0.215
32.890,-0.236
32.895,-0.256
32.900,-0.268
32.905,-0.273
32.910,-0.278
32.915,-0.283
32.920,-0.290
32.925,-0.300
32.930,-0.308
32.935,-0.305
32.940,-0.302
32.945,-0.301
32.950,-0.297
32.955,-0.291
32.960,-0.282
32.965,-0.265
32.970,-0.236
32.975,-0.206
32.980,-0.183
32.985,-0.155
32.990,-0.120
32.995,-0.090
33.000,-0.066
33.005,-0.044
33.010,-0.027
33.015,-0.016
33.020,-0.004
33.025,0.005
33.030,0.002
33.035,-0.005
33.040,-0.016
33.045,-0.029
33.050,-0.044
33.055,-0.059
33.060,-0.072
33.065,-0.087
33.070,-0.106
33.075,-0.128
33.080,-0.148
33.085,-0.161
33.090,-0.171
33.095,-0.183
33.100,-0.196
33.105,-0.207
33.110,-0.217
33.115,-0.227
33.120,-0.232
33.125,-0.238
33.130,-0.242
33.135,-0.240
33.140,-0.241
33.145,-0.244
33.150,-0.244
33.155,-0.238
33.160,-0.229
33.165,-0.226
33.170,-0.222
33.175,-0.217
33.180,-0.212
33.185,-0.206
33.190,-0.200
33.195,-0.195
33.200,-0.187
33.205,-0.178
33.210,-0.173
33.215,-0.164
33.220,-0.149
33.225,-0.143
33.230,-0.140
33.235,-0.131
33.240,-0.119
33.245,-0.112
33.250,-0.102
33.255,-0.092
33.260,-0.083
33.265,-0.075
33.270,-0.071
33.275,-0.068
33.280,-0.062
33.285,-0.050
33.290,-0.032
33.295,-0.016
33.300,-0.001
33.305,0.018
33.310,0.035
33.315,0.058
33.320,0.088
33.325,0.102
33.330,0.104
33.335,0.108
33.340,0.115
33.345,0.108
33.350,0.079
33.355,0.054
33.360,0.037
33.365,0.012
33.370,-0.010
33.375,-0.017
33.380,-0.015
33.385,-0.010
33.390,-0.005
33.395,-0.003
33.400,0.002
33.405,0.008
33.410,0.012
33.415,0.017
33.420,0.025
33.425,0.033
33.430,0.037
33.435,0.040
33.440,0.049
33.445,0.060
33.450,0.072
33.455,0.100
33.460,0.171
33.465,0.269
33.470,0.375
33.475,0.515
33.480,0.580
33.485,0.307
33.490,-0.064
33.495,-0.134
33.500,-0.163
33.505,-0.272
33.510,-0.271
33.515,-0.216
33.520,-0.184
33.525,-0.165
33.530,-0.124
33.535,-0.056
33.540,0.024
33.545,0.098
33.550,0.144
33.555,0.174
33.560,0.195
33.565,0.202
33.570,0.205
33.575,0.210
33.580,0.208
33.585,0.206
33.590,0.208
33.595,0.203
33.600,0.199
33.605,0.200
33.610,0.199
33.615,0.196
33.620,0.198
33.625,0.196
33.630,0.192
33.635,0.189
33.640,0.189
33.645,0.187
33.650,0.190
33.655,0.198
33.660,0.200
33.665,0.199
33.670,0.202
33.675,0.204
33.680,0.204
33.685,0.207
33.690,0.215
33.695,0.219
33.700,0.223
33.705,0.234
33.710,0.244
33.715,0.247
33.720,0.250
33.725,0.252
33.730,0.259
33.735,0.263
33.740,0.260
33.745,0.259
33.750,0.261
33.755,0.262
33.760,0.262
33.765,0.251
33.770,0.233
33.775,0.212
33.780,0.184
33.785,0.145
33.790,0.105
33.795,0.060
33.800,0.014
33.805,-0.025
33.810,-0.063
33.815,-0.101
33.820,-0.131
33.825,-0.157
33.830,-0.183
33.835,-0.203
33.840,-0.221
33.845,-0.239
33.850,-0.252
33.855,-0.257
33.860,-0.262
33.865,-0.261
33.870,-0.243
33.875,-0.227
33.880,-0.223
33.885,-0.218
33.890,-0.209
33.895,-0.201
33.900,-0.197
33.905,-0.198
33.910,-0.196
33.915,-0.191
33.920,-0.186
33.925,-0.192
33.930,-0.200
33.935,-0.197
33.940,-0.195
33.945,-0.198
33.950,-0.197
33.955,-0.194
33.960,-0.195
33.965,-0.196
33.970,-0.195
33.975,-0.189
33.980,-0.184
33.985,-0.184
33.990,-0.179
33.995,-0.170
34.000,-0.168
34.005,-0.163
34.010,-0.159
34.015,-0.155
34.020,-0.142
34.025,-0.137
34.030,-0.140
34.035,-0.131
34.040,-0.117
34.045,-0.113
34.050,-0.110
34.055,-0.100
34.060,-0.090
34.065,-0.085
34.070,-0.079
34.075,-0.070
34.080,-0.062
34.085,-0.053
34.090,-0.044
34.095,-0.037
34.100,-0.033
34.105,-0.032
34.110,-0.026
34.115,-0.016
34.120,-0.007
34.125,-0.001
34.130,0.004
34.135,0.014
34.140,0.025
34.145,0.030
34.150,0.034
34.155,0.037
34.160,0.037
34.165,0.041
34.170,0.050
34.175,0.057
34.180,0.056
34.185,0.057
34.190,0.063
34.195,0.064
34.200,0.066
34.205,0.069
34.210,0.070
34.215,0.073
34.220,0.077
34.225,0.077
34.230,0.075
34.235,0.076
34.240,0.081
34.245,0.091
34.250,0.104
34.255,0.118
34.260,0.130
34.265,0.138
34.270,0.154
34.275,0.173
34.280,0.182
34.285,0.195
34.290,0.196
34.295,0.181
34.300,0.167
34.305,0.141
34.310,0.108
34.315,0.085
34.320,0.062
34.325,0.031
34.330,0.014
34.335,0.014
34.340,0.016
34.345,0.015
34.350,0.014
34.355,0.015
34.360,0.015
34.365,0.011
34.370,0.014
34.375,0.020
34.380,0.020
34.385,0.021
34.390,0.024
34.395,0.024
34.400,0.027
34.405,0.037
34.410,0.053
34.415,0.104
34.420,0.198
34.425,0.298
34.430,0.421
34.435,0.544
34.440,0.365
34.445,-0.045
34.450,-0.195
34.455,-0.207
34.460,-0.304
34.465,-0.334
34.470,-0.289
34.475,-0.252
34.480,-0.238
34.485,-0.204
34.490,-0.143
34.495,-0.070
34.500,0.010
34.505,0.064
34.510,0.096
34.515,0.123
34.520,0.136
34.525,0.137
34.530,0.139
34.535,0.142
34.540,0.144
34.545,0.144
34.550,0.141
34.555,0.141
34.560,0.142
34.565,0.138
34.570,0.135
34.575,0.130
34.580,0.126
34.585,0.126
34.590,0.125
34.595,0.123
34.600,0.122
34.605,0.123
34.610,0.123
34.615,0.123
34.620,0.124
34.625,0.124
34.630,0.124
34.635,0.126
34.640,0.129
34.645,0.129
34.650,0.132
34.655,0.136
34.660,0.138
34.665,0.140
34.670,0.140
34.675,0.140
34.680,0.139
34.685,0.135
34.690,0.129
34.695,0.120
34.700,0.110
34.705,0.101
34.710,0.087
34.715,0.072
34.720,0.056
34.725,0.032
34.730,0.004
34.735,-0.025
34.740,-0.057
34.745,-0.092
34.750,-0.126
34.755,-0.157
34.760,-0.184
34.765,-0.206
34.770,-0.224
34.775,-0.239
34.780,-0.251
34.785,-0.257
34.790,-0.261
34.795,-0.262
34.800,-0.258
34.805,-0.252
34.810,-0.245
34.815,-0.238
34.820,-0.228
34.825,-0.219
34.830,-0.210
34.835,-0.199
34.840,-0.189
34.845,-0.179
34.850,-0.168
34.855,-0.158
34.860,-0.150
34.865,-0.141
34.870,-0.129
34.875,-0.119
34.880,-0.111
34.885,-0.101
34.890,-0.094
34.895,-0.089
34.900,-0.082
34.905,-0.074
34.910,-0.069
34.915,-0.063
34.920,-0.055
34.925,-0.048
34.930,-0.045
34.935,-0.041
34.940,-0.035
34.945,-0.033
34.950,-0.031
34.955,-0.025
34.960,-0.023
34.965,-0.023
34.970,-0.022
34.975,-0.023
34.980,-0.023
34.985,-0.020
34.990,-0.018
34.995,-0.018
35.000,-0.016
35.005,-0.013
35.010,-0.014
35.015,-0.015
35.020,-0.014
35.025,-0.013
35.030,-0.013
35.035,-0.013
35.040,-0.014
35.045,-0.015
35.050,-0.012
35.055,-0.010
35.060,-0.012
35.065,-0.013
35.070,-0.009
35.075,-0.007
35.080,-0.008
35.085,-0.003
35.090,-0.004
35.095,-0.007
35.100,-0.004
35.105,0.001
35.110,0.000
35.115,-0.002
35.120,-0.002
35.125,0.000
35.130,0.002
35.135,0.007
35.140,0.011
35.145,0.009
35.150,0.011
35.155,0.016
35.160,0.014
35.165,0.013
35.170,0.018
35.175,0.022
35.180,0.022
35.185,0.024
35.190,0.023
35.195,0.020
35.200,0.020
35.205,0.024
35.210,0.029
35.215,0.038
35.220,0.050
35.225,0.061
35.230,0.072
35.235,0.081
35.240,0.092
35.245,0.103
35.250,0.115
35.255,0.133
35.260,0.141
35.265,0.119
35.270,0.097
35.275,0.082
35.280,0.058
35.285,0.033
35.290,0.012
35.295,-0.016
35.300,-0.041
35.305,-0.043
35.310,-0.037
35.315,-0.038
35.320,-0.038
35.325,-0.036
35.330,-0.037
35.335,-0.037
35.340,-0.031
35.345,-0.026
35.350,-0.021
35.355,-0.018
35.360,-0.018
35.365,-0.015
35.370,-0.006
35.375,0.003
35.380,0.009
35.385,0.020
35.390,0.062
35.395,0.149
35.400,0.248
35.405,0.361
35.410,0.500
35.415,0.397
35.420,0.011
35.425,-0.190
35.430,-0.204
35.435,-0.288
35.440,-0.340
35.445,-0.305
35.450,-0.266
35.455,-0.250
35.460,-0.216
35.465,-0.154
35.470,-0.078
35.475,0.003
35.480,0.064
35.485,0.100
35.490,0.129
35.495,0.146
35.500,0.150
35.505,0.158
35.510,0.161
35.515,0.155
35.520,0.154
35.525,0.155
35.530,0.156
35.535,0.158
35.540,0.156
35.545,0.151
35.550,0.154
35.555,0.154
35.560,0.146
35.565,0.142
35.570,0.140
35.575,0.139
35.580,0.141
35.585,0.143
35.590,0.142
35.595,0.142
35.600,0.145
35.605,0.149
35.610,0.151
35.615,0.149
35.620,0.149
35.625,0.156
35.630,0.163
35.635,0.167
35.640,0.165
35.645,0.162
35.650,0.162
35.655,0.159
35.660,0.158
35.665,0.156
35.670,0.152
35.675,0.142
35.680,0.131
35.685,0.123
35.690,0.107
35.695,0.083
35.700,0.062
35.705,0.042
35.710,0.013
35.715,-0.022
35.720,-0.053
35.725,-0.081
35.730,-0.114
35.735,-0.145
35.740,-0.171
35.745,-0.192
35.750,-0.208
35.755,-0.217
35.760,-0.224
35.765,-0.226
35.770,-0.222
35.775,-0.224
35.780,-0.224
35.785,-0.215
35.790,-0.203
35.795,-0.194
35.800,-0.190
35.805,-0.184
35.810,-0.174
35.815,-0.165
35.820,-0.156
35.825,-0.149
35.830,-0.140
35.835,-0.126
35.840,-0.117
35.845,-0.112
35.850,-0.102
35.855,-0.092
35.860,-0.087
35.865,-0.079
35.870,-0.069
35.875,-0.065
35.880,-0.059
35.885,-0.051
35.890,-0.045
35.895,-0.041
35.900,-0.037
35.905,-0.032
35.910,-0.028
35.915,-0.025
35.920,-0.023
35.925,-0.021
35.930,-0.021
35.935,-0.022
35.940,-0.021
35.945,-0.022
35.950,-0.022
35.955,-0.020
35.960,-0.018
35.965,-0.019
35.970,-0.026
35.975,-0.031
35.980,-0.026
35.985,-0.018
35.990,-0.024
35.995,-0.032
36.000,-0.032
36.005,-0.033
36.010,-0.034
36.015,-0.024
36.020,-0.014
36.025,-0.023
36.030,-0.036
36.035,-0.027
36.040,-0.014
36.045,-0.029
36.050,-0.045
36.055,-0.038
36.060,-0.031
36.065,-0.026
36.070,-0.007
36.075,0.008
36.080,0.000
36.085,-0.017
36.090,-0.027
36.095,-0.028
36.100,-0.025
36.105,-0.021
36.110,-0.017
36.115,-0.008
36.120,0.008
36.125,0.019
36.130,0.025
36.135,0.033
36.140,0.031
36.145,0.027
36.150,0.035
36.155,0.005
36.160,-0.049
36.165,-0.054
36.170,-0.030
36.175,-0.016
36.180,0.000
36.185,0.023
36.190,0.047
36.195,0.058
36.200,0.061
36.205,0.064
36.210,0.078
36.215,0.103
36.220,0.121
36.225,0.114
36.230,0.095
36.235,0.078
36.240,0.055
36.245,0.034
36.250,0.022
36.255,-0.013
36.260,-0.070
36.265,-0.097
36.270,-0.085
36.275,-0.073
36.280,-0.071
36.285,-0.079
36.290,-0.091
36.295,-0.094
36.300,-0.088
36.305,-0.078
36.310,-0.065
36.315,-0.058
36.320,-0.057
36.325,-0.053
36.330,-0.049
36.335,-0.049
36.340,-0.048
36.345,-0.039
36.350,-0.013
36.355,0.054
36.360,0.153
36.365,0.254
36.370,0.391
36.375,0.483
36.380,0.233
36.385,-0.161
36.390,-0.251
36.395,-0.276
36.400,-0.385
36.405,-0.390
36.410,-0.337
36.415,-0.307
36.420,-0.284
36.425,-0.238
36.430,-0.175
36.435,-0.098
36.440,-0.017
36.445,0.031
36.450,0.058
36.455,0.082
36.460,0.093
36.465,0.099
36.470,0.107
36.475,0.111
36.480,0.112
36.485,0.114
36.490,0.115
36.495,0.115
36.500,0.118
36.505,0.120
36.510,0.118
36.515,0.116
36.520,0.118
36.525,0.121
36.530,0.125
36.535,0.128
36.540,0.129
36.545,0.130
36.550,0.133
36.555,0.141
36.560,0.144
36.565,0.144
36.570,0.147
36.575,0.149
36.580,0.153
36.585,0.161
36.590,0.162
36.595,0.165
36.600,0.172
36.605,0.173
36.610,0.174
36.615,0.171
36.620,0.167
36.625,0.163
36.630,0.154
36.635,0.145
36.640,0.139
36.645,0.129
36.650,0.113
36.655,0.095
36.660,0.074
36.665,0.050
36.670,0.024
36.675,-0.007
36.680,-0.042
36.685,-0.073
36.690,-0.103
36.695,-0.133
36.700,-0.161
36.705,-0.185
36.710,-0.205
36.715,-0.225
36.720,-0.233
36.725,-0.233
36.730,-0.240
36.735,-0.245
36.740,-0.238
36.745,-0.231
36.750,-0.224
36.755,-0.212
36.760,-0.201
36.765,-0.192
36.770,-0.183
36.775,-0.173
36.780,-0.167
36.785,-0.158
36.790,-0.148
36.795,-0.137
36.800,-0.124
36.805,-0.114
36.810,-0.106
36.815,-0.096
36.820,-0.085
36.825,-0.074
36.830,-0.066
36.835,-0.060
36.840,-0.052
36.845,-0.048
36.850,-0.042
36.855,-0.028
36.860,-0.025
36.865,-0.022
36.870,-0.003
36.875,0.002
36.880,-0.005
36.885,0.001
36.890,0.011
36.895,0.012
36.900,0.011
36.905,0.015
36.910,0.017
36.915,0.011
36.920,0.012
36.925,0.017
36.930,0.019
36.935,0.018
36.940,0.020
36.945,0.022
36.950,0.020
36.955,0.021
36.960,0.023
36.965,0.022
36.970,0.021
36.975,0.020
36.980,0.018
36.985,0.019
36.990,0.021
36.995,0.019
37.000,0.019
37.005,0.020
37.010,0.020
37.015,0.022
37.020,0.025
37.025,0.025
37.030,0.024
37.035,0.024
37.040,0.026
37.045,0.025
37.050,0.024
37.055,0.027
37.060,0.027
37.065,0.026
37.070,0.026
37.075,0.027
37.080,0.028
37.085,0.030
37.090,0.027
37.095,0.022
37.100,0.024
37.105,0.030
37.110,0.032
37.115,0.031
37.120,0.032
37.125,0.030
37.130,0.027
37.135,0.027
37.140,0.028
37.145,0.030
37.150,0.033
37.155,0.034
37.160,0.040
37.165,0.054
37.170,0.072
37.175,0.082
37.180,0.082
37.185,0.078
37.190,0.084
37.195,0.114
37.200,0.147
37.205,0.143
37.210,0.115
37.215,0.096
37.220,0.086
37.225,0.067
37.230,0.041
37.235,0.015
37.240,-0.016
37.245,-0.039
37.250,-0.048
37.255,-0.054
37.260,-0.057
37.265,-0.051
37.270,-0.047
37.275,-0.045
37.280,-0.045
37.285,-0.045
37.290,-0.042
37.295,-0.040
37.300,-0.037
37.305,-0.033
37.310,-0.030
37.315,-0.028
37.320,-0.021
37.325,-0.009
37.330,0.013
37.335,0.080
37.340,0.177
37.345,0.273
37.350,0.404
37.355,0.485
37.360,0.234
37.365,-0.149
37.370,-0.234
37.375,-0.260
37.380,-0.368
37.385,-0.369
37.390,-0.316
37.395,-0.290
37.400,-0.266
37.405,-0.214
37.410,-0.150
37.415,-0.077
37.420,0.002
37.425,0.052
37.430,0.082
37.435,0.110
37.440,0.115
37.445,0.115
37.450,0.124
37.455,0.130
37.460,0.129
37.465,0.130
37.470,0.132
37.475,0.129
37.480,0.125
37.485,0.126
37.490,0.127
37.495,0.126
37.500,0.126
37.505,0.129
37.510,0.128
37.515,0.130
37.520,0.131
37.525,0.129
37.530,0.131
37.535,0.135
37.540,0.134
37.545,0.135
37.550,0.136
37.555,0.139
37.560,0.142
37.565,0.143
37.570,0.147
37.575,0.148
37.580,0.148
37.585,0.152
37.590,0.154
37.595,0.154
37.600,0.156
37.605,0.156
37.610,0.148
37.615,0.139
37.620,0.131
37.625,0.117
37.630,0.099
37.635,0.086
37.640,0.069
37.645,0.042
37.650,0.017
37.655,-0.009
37.660,-0.045
37.665,-0.080
37.670,-0.113
37.675,-0.145
37.680,-0.174
37.685,-0.197
37.690,-0.218
37.695,-0.233
37.700,-0.243
37.705,-0.248
37.710,-0.251
37.715,-0.253
37.720,-0.250
37.725,-0.243
37.730,-0.237
37.735,-0.230
37.740,-0.224
37.745,-0.215
37.750,-0.202
37.755,-0.190
37.760,-0.178
37.765,-0.169
37.770,-0.161
37.775,-0.152
37.780,-0.144
37.785,-0.130
37.790,-0.116
37.795,-0.108
37.800,-0.098
37.805,-0.089
37.810,-0.081
37.815,-0.071
37.820,-0.060
37.825,-0.052
37.830,-0.048
37.835,-0.042
37.840,-0.035
37.845,-0.031
37.850,-0.026
37.855,-0.020
37.860,-0.017
37.865,-0.016
37.870,-0.013
37.875,-0.010
37.880,-0.011
37.885,-0.010
37.890,-0.008
37.895,-0.008
37.900,-0.007
37.905,-0.006
37.910,-0.007
37.915,-0.007
37.920,-0.005
37.925,-0.007
37.930,-0.008
37.935,-0.005
37.940,-0.004
37.945,-0.006
37.950,-0.006
37.955,-0.006
37.960,-0.006
37.965,-0.004
37.970,-0.001
37.975,-0.001
37.980,-0.002
37.985,0.000
37.990,0.002
37.995,0.001
38.000,0.002
38.005,0.005
38.010,0.005
38.015,0.008
38.020,0.013
38.025,0.012
38.030,0.010
38.035,0.011
38.040,0.013
38.045,0.013
38.050,0.015
38.055,0.017
38.060,0.017
38.065,0.018
38.070,0.020
38.075,0.019
38.080,0.020
38.085,0.026
38.090,0.028
38.095,0.025
38.100,0.026
38.105,0.027
38.110,0.029
38.115,0.031
38.120,0.032
38.125,0.031
38.130,0.030
38.135,0.030
38.140,0.028
38.145,0.027
38.150,0.029
38.155,0.034
38.160,0.037
38.165,0.043
38.170,0.053
38.175,0.066
38.180,0.077
38.185,0.079
38.190,0.069
38.195,0.073
38.200,0.107
38.205,0.140
38.210,0.144
38.215,0.120
38.220,0.097
38.225,0.086
38.230,0.069
38.235,0.044
38.240,0.014
38.245,-0.026
38.250,-0.056
38.255,-0.066
38.260,-0.070
38.265,-0.074
38.270,-0.075
38.275,-0.077
38.280,-0.076
38.285,-0.074
38.290,-0.074
38.295,-0.079
38.300,-0.078
38.305,-0.071
38.310,-0.069
38.315,-0.065
38.320,-0.058
38.325,-0.052
38.330,-0.043
38.335,-0.025
38.340,0.022
38.345,0.110
38.350,0.210
38.355,0.327
38.360,0.446
38.365,0.290
38.370,-0.096
38.375,-0.245
38.380,-0.256
38.385,-0.346
38.390,-0.375
38.395,-0.332
38.400,-0.296
38.405,-0.273
38.410,-0.231
38.415,-0.168
38.420,-0.089
38.425,-0.004
38.430,0.055
38.435,0.092
38.440,0.121
38.445,0.131
38.450,0.134
38.455,0.138
38.460,0.139
38.465,0.141
38.470,0.145
38.475,0.148
38.480,0.148
38.485,0.148
38.490,0.146
38.495,0.148
38.500,0.151
38.505,0.149
38.510,0.145
38.515,0.145
38.520,0.148
38.525,0.151
38.530,0.152
38.535,0.152
38.540,0.154
38.545,0.154
38.550,0.156
38.555,0.158
38.560,0.158
38.565,0.165
38.570,0.178
38.575,0.178
38.580,0.171
38.585,0.174
38.590,0.178
38.595,0.176
38.600,0.171
38.605,0.171
38.610,0.171
38.615,0.166
38.620,0.159
38.625,0.151
38.630,0.142
38.635,0.131
38.640,0.117
38.645,0.100
38.650,0.079
38.655,0.056
38.660,0.030
38.665,0.002
38.670,-0.029
38.675,-0.059
38.680,-0.092
38.685,-0.123
38.690,-0.146
38.695,-0.165
38.700,-0.181
38.705,-0.192
38.710,-0.202
38.715,-0.209
38.720,-0.210
38.725,-0.208
38.730,-0.205
38.735,-0.198
38.740,-0.192
38.745,-0.185
38.750,-0.174
38.755,-0.166
38.760,-0.160
38.765,-0.150
38.770,-0.136
38.775,-0.123
38.780,-0.116
38.785,-0.108
38.790,-0.097
38.795,-0.089
38.800,-0.081
38.805,-0.069
38.810,-0.061
38.815,-0.056
38.820,-0.049
38.825,-0.043
38.830,-0.041
38.835,-0.037
38.840,-0.033
38.845,-0.028
38.850,-0.020
38.855,-0.012
38.860,-0.013
38.865,-0.013
38.870,-0.007
38.875,-0.006
38.880,-0.011
38.885,-0.010
38.890,-0.005
38.895,-0.004
38.900,-0.006
38.905,-0.005
38.910,-0.006
38.915,-0.010
38.920,-0.008
38.925,-0.009
38.930,-0.015
38.935,-0.014
38.940,-0.012
38.945,-0.014
38.950,-0.011
38.955,-0.008
38.960,-0.012
38.965,-0.014
38.970,-0.013
38.975,-0.012
38.980,-0.011
38.985,-0.007
38.990,-0.004
38.995,-0.006
39.000,-0.006
39.005,-0.010
39.010,-0.012
39.015,-0.007
39.020,-0.002
39.025,-0.004
39.030,-0.004
39.035,0.001
39.040,0.004
39.045,0.000
39.050,0.000
39.055,0.004
39.060,0.007
39.065,0.008
39.070,0.011
39.075,0.013
39.080,0.012
39.085,0.014
39.090,0.015
39.095,0.014
39.100,0.013
39.105,0.012
39.110,0.012
39.115,0.015
39.120,0.018
39.125,0.014
39.130,0.010
39.135,0.015
39.140,0.017
39.145,0.013
39.150,0.012
39.155,0.019
39.160,0.024
39.165,0.027
39.170,0.034
39.175,0.042
39.180,0.056
39.185,0.069
39.190,0.070
39.195,0.061
39.200,0.066
39.205,0.103
39.210,0.140
39.215,0.138
39.220,0.109
39.225,0.087
39.230,0.079
39.235,0.066
39.240,0.044
39.245,0.013
39.250,-0.028
39.255,-0.054
39.260,-0.059
39.265,-0.065
39.270,-0.072
39.275,-0.073
39.280,-0.071
39.285,-0.069
39.290,-0.070
39.295,-0.074
39.300,-0.074
39.305,-0.072
39.310,-0.067
39.315,-0.063
39.320,-0.059
39.325,-0.055
39.330,-0.050
39.335,-0.039
39.340,-0.013
39.345,0.051
39.350,0.145
39.355,0.253
39.360,0.399
39.365,0.456
39.370,0.166
39.375,-0.200
39.380,-0.255
39.385,-0.273
39.390,-0.374
39.395,-0.375
39.400,-0.329
39.405,-0.305
39.410,-0.290
39.415,-0.250
39.420,-0.180
39.425,-0.097
39.430,-0.021
39.435,0.027
39.440,0.061
39.445,0.088
39.450,0.097
39.455,0.100
39.460,0.106
39.465,0.111
39.470,0.113
39.475,0.113
39.480,0.112
39.485,0.112
39.490,0.109
39.495,0.106
39.500,0.105
39.505,0.104
39.510,0.104
39.515,0.104
39.520,0.105
39.525,0.106
39.530,0.104
39.535,0.103
39.540,0.105
39.545,0.108
39.550,0.111
39.555,0.113
39.560,0.115
39.565,0.116
39.570,0.121
39.575,0.125
39.580,0.124
39.585,0.127
39.590,0.132
39.595,0.134
39.600,0.135
39.605,0.134
39.610,0.131
39.615,0.128
39.620,0.127
39.625,0.119
39.630,0.107
39.635,0.101
39.640,0.087
39.645,0.069
39.650,0.055
39.655,0.037
39.660,0.012
39.665,-0.020
39.670,-0.054
39.675,-0.086
39.680,-0.121
39.685,-0.150
39.690,-0.172
39.695,-0.196
39.700,-0.218
39.705,-0.231
39.710,-0.244
39.715,-0.252
39.720,-0.251
39.725,-0.246
39.730,-0.243
39.735,-0.239
39.740,-0.232
39.745,-0.228
39.750,-0.220
39.755,-0.206
39.760,-0.196
39.765,-0.187
39.770,-0.175
39.775,-0.163
39.780,-0.151
39.785,-0.139
39.790,-0.131
39.795,-0.122
39.800,-0.112
39.805,-0.102
39.810,-0.094
39.815,-0.086
39.820,-0.073
39.825,-0.064
39.830,-0.062
39.835,-0.056
39.840,-0.047
39.845,-0.042
39.850,-0.035
39.855,-0.029
39.860,-0.030
39.865,-0.027
39.870,-0.018
39.875,-0.015
39.880,-0.015
39.885,-0.012
39.890,-0.011
39.895,-0.011
39.900,-0.011
39.905,-0.012
39.910,-0.013
39.915,-0.011
39.920,-0.007
39.925,-0.006
39.930,-0.011
39.935,-0.011
39.940,-0.008
39.945,-0.005
39.950,-0.003
39.955,-0.001
39.960,-0.001
39.965,-0.002
39.970,-0.001
39.975,0.000
39.980,-0.001
39.985,0.002
39.990,0.005
39.995,0.004
40.000,0.003
40.005,0.006
40.010,0.009
40.015,0.008
40.020,0.010
40.025,0.014
40.030,0.018
40.035,0.021
40.040,0.021
40.045,0.021
40.050,0.022
40.055,0.024
40.060,0.027
40.065,0.030
40.070,0.030
40.075,0.032
40.080,0.032
40.085,0.030
40.090,0.028
40.095,0.028
40.100,0.028
40.105,0.031
40.110,0.033
40.115,0.033
40.120,0.032
40.125,0.029
40.130,0.027
40.135,0.034
40.140,0.038
40.145,0.036
40.150,0.037
40.155,0.036
40.160,0.036
40.165,0.043
40.170,0.056
40.175,0.072
40.180,0.088
40.185,0.092
40.190,0.086
40.195,0.084
40.200,0.109
40.205,0.146
40.210,0.153
40.215,0.130
40.220,0.109
40.225,0.097
40.230,0.078
40.235,0.056
40.240,0.028
40.245,-0.010
40.250,-0.035
40.255,-0.039
40.260,-0.047
40.265,-0.054
40.270,-0.052
40.275,-0.050
40.280,-0.052
40.285,-0.050
40.290,-0.046
40.295,-0.043
40.300,-0.042
40.305,-0.040
40.310,-0.040
40.315,-0.038
40.320,-0.032
40.325,-0.023
40.330,-0.015
40.335,0.004
40.340,0.067
40.345,0.167
40.350,0.268
40.355,0.397
40.360,0.497
40.365,0.270
40.370,-0.129
40.375,-0.237
40.380,-0.260
40.385,-0.367
40.390,-0.377
40.395,-0.326
40.400,-0.294
40.405,-0.272
40.410,-0.230
40.415,-0.167
40.420,-0.090
40.425,-0.007
40.430,0.045
40.435,0.076
40.440,0.104
40.445,0.115
40.450,0.118
40.455,0.126
40.460,0.129
40.465,0.128
40.470,0.126
40.475,0.122
40.480,0.120
40.485,0.122
40.490,0.123
40.495,0.122
40.500,0.123
40.505,0.128
40.510,0.127
40.515,0.121
40.520,0.119
40.525,0.124
40.530,0.128
40.535,0.128
40.540,0.127
40.545,0.128
40.550,0.129
40.555,0.130
40.560,0.133
40.565,0.139
40.570,0.147
40.575,0.151
40.580,0.151
40.585,0.155
40.590,0.159
40.595,0.157
40.600,0.158
40.605,0.160
40.610,0.154
40.615,0.144
40.620,0.142
40.625,0.138
40.630,0.125
40.635,0.113
40.640,0.102
40.645,0.081
40.650,0.057
40.655,0.035
40.660,0.007
40.665,-0.027
40.670,-0.055
40.675,-0.086
40.680,-0.122
40.685,-0.152
40.690,-0.176
40.695,-0.195
40.700,-0.210
40.705,-0.223
40.710,-0.233
40.715,-0.237
40.720,-0.235
40.725,-0.227
40.730,-0.218
40.735,-0.213
40.740,-0.209
40.745,-0.204
40.750,-0.196
40.755,-0.186
40.760,-0.175
40.765,-0.166
40.770,-0.158
40.775,-0.147
40.780,-0.135
40.785,-0.126
40.790,-0.117
40.795,-0.107
40.800,-0.091
40.805,-0.076
40.810,-0.069
40.815,-0.060
40.820,-0.050
40.825,-0.044
40.830,-0.038
40.835,-0.030
40.840,-0.024
40.845,-0.021
40.850,-0.016
40.855,-0.009
40.860,-0.008
40.865,-0.009
40.870,-0.004
40.875,0.002
40.880,0.007
40.885,0.008
40.890,0.008
40.895,0.011
40.900,0.014
40.905,0.012
40.910,0.008
40.915,0.007
40.920,0.011
40.925,0.009
40.930,0.004
40.935,0.005
40.940,0.011
40.945,0.015
40.950,0.014
40.955,0.013
40.960,0.012
40.965,0.013
40.970,0.014
40.975,0.013
40.980,0.012
40.985,0.017
40.990,0.024
40.995,0.026
41.000,0.027
41.005,0.026
41.010,0.024
41.015,0.023
41.020,0.028
41.025,0.031
41.030,0.032
41.035,0.031
41.040,0.024
41.045,0.024
41.050,0.034
41.055,0.036
41.060,0.035
41.065,0.034
41.070,0.035
41.075,0.038
41.080,0.036
41.085,0.030
41.090,0.031
41.095,0.036
41.100,0.037
41.105,0.038
41.110,0.040
41.115,0.038
41.120,0.036
41.125,0.031
41.130,0.033
41.135,0.042
41.140,0.043
41.145,0.041
41.150,0.041
41.155,0.038
41.160,0.035
41.165,0.034
41.170,0.034
41.175,0.035
41.180,0.041
41.185,0.056
41.190,0.074
41.195,0.084
41.200,0.085
41.205,0.079
41.210,0.088
41.215,0.121
41.220,0.151
41.225,0.151
41.230,0.127
41.235,0.108
41.240,0.097
41.245,0.076
41.250,0.050
41.255,0.023
41.260,-0.016
41.265,-0.044
41.270,-0.051
41.275,-0.054
41.280,-0.054
41.285,-0.054
41.290,-0.057
41.295,-0.056
41.300,-0.055
41.305,-0.056
41.310,-0.056
41.315,-0.056
41.320,-0.051
41.325,-0.046
41.330,-0.046
41.335,-0.045
41.340,-0.040
41.345,-0.034
41.350,-0.011
41.355,0.062
41.360,0.166
41.365,0.275
41.370,0.424
41.375,0.489
41.380,0.196
41.385,-0.181
41.390,-0.244
41.395,-0.273
41.400,-0.378
41.405,-0.375
41.410,-0.327
41.415,-0.302
41.420,-0.280
41.425,-0.236
41.430,-0.171
41.435,-0.091
41.440,-0.015
41.445,0.031
41.450,0.059
41.455,0.087
41.460,0.099
41.465,0.103
41.470,0.110
41.475,0.114
41.480,0.113
41.485,0.112
41.490,0.112
41.495,0.111
41.500,0.111
41.505,0.110
41.510,0.106
41.515,0.104
41.520,0.107
41.525,0.105
41.530,0.103
41.535,0.107
41.540,0.110
41.545,0.109
41.550,0.108
41.555,0.108
41.560,0.109
41.565,0.110
41.570,0.112
41.575,0.114
41.580,0.113
41.585,0.117
41.590,0.120
41.595,0.119
41.600,0.119
41.605,0.120
41.610,0.117
41.615,0.115
41.620,0.117
41.625,0.114
41.630,0.107
41.635,0.102
41.640,0.093
41.645,0.080
41.650,0.067
41.655,0.052
41.660,0.034
41.665,0.013
41.670,-0.010
41.675,-0.036
41.680,-0.070
41.685,-0.104
41.690,-0.133
41.695,-0.163
41.700,-0.192
41.705,-0.213
41.710,-0.231
41.715,-0.246
41.720,-0.256
41.725,-0.262
41.730,-0.265
41.735,-0.262
41.740,-0.256
41.745,-0.251
41.750,-0.244
41.755,-0.237
41.760,-0.232
41.765,-0.222
41.770,-0.205
41.775,-0.191
41.780,-0.186
41.785,-0.180
41.790,-0.168
41.795,-0.153
41.800,-0.139
41.805,-0.126
41.810,-0.119
41.815,-0.113
41.820,-0.103
41.825,-0.092
41.830,-0.085
41.835,-0.076
41.840,-0.066
41.845,-0.059
41.850,-0.051
41.855,-0.040
41.860,-0.035
41.865,-0.031
41.870,-0.023
41.875,-0.019
41.880,-0.015
41.885,-0.012
41.890,-0.009
41.895,-0.007
41.900,-0.008
41.905,-0.007
41.910,-0.006
41.915,-0.006
41.920,-0.003
41.925,-0.002
41.930,-0.005
41.935,-0.006
41.940,-0.006
41.945,-0.003
41.950,0.002
41.955,0.003
41.960,0.003
41.965,0.002
41.970,0.005
41.975,0.010
41.980,0.007
41.985,0.006
41.990,0.007
41.995,0.006
42.000,0.007
42.005,0.007
42.010,0.009
42.015,0.012
42.020,0.014
42.025,0.014
42.030,0.011
42.035,0.012
42.040,0.015
42.045,0.014
42.050,0.016
42.055,0.022
42.060,0.022
42.065,0.024
42.070,0.029
42.075,0.030
42.080,0.028
42.085,0.031
42.090,0.033
42.095,0.030
42.100,0.031
42.105,0.033
42.110,0.037
42.115,0.042
42.120,0.043
42.125,0.040
42.130,0.037
42.135,0.039
42.140,0.038
42.145,0.035
42.150,0.036
42.155,0.043
42.160,0.045
42.165,0.040
42.170,0.040
42.175,0.044
42.180,0.045
42.185,0.047
42.190,0.051
42.195,0.057
42.200,0.070
42.205,0.089
42.210,0.102
42.215,0.101
42.220,0.091
42.225,0.092
42.230,0.120
42.235,0.156
42.240,0.161
42.245,0.138
42.250,0.117
42.255,0.103
42.260,0.085
42.265,0.066
42.270,0.041
42.275,-0.001
42.280,-0.030
42.285,-0.036
42.290,-0.039
42.295,-0.044
42.300,-0.044
42.305,-0.041
42.310,-0.041
42.315,-0.042
42.320,-0.039
42.325,-0.034
42.330,-0.032
42.335,-0.031
42.340,-0.028
42.345,-0.025
42.350,-0.024
42.355,-0.016
42.360,-0.008
42.365,0.018
42.370,0.095
42.375,0.192
42.380,0.293
42.385,0.439
42.390,0.486
42.395,0.185
42.400,-0.178
42.405,-0.245
42.410,-0.285
42.415,-0.386
42.420,-0.368
42.425,-0.309
42.430,-0.285
42.435,-0.261
42.440,-0.213
42.445,-0.145
42.450,-0.066
42.455,0.006
42.460,0.051
42.465,0.082
42.470,0.104
42.475,0.113
42.480,0.115
42.485,0.116
42.490,0.118
42.495,0.120
42.500,0.122
42.505,0.121
42.510,0.119
42.515,0.121
42.520,0.120
42.525,0.118
42.530,0.118
42.535,0.119
42.540,0.119
42.545,0.112
42.550,0.109
42.555,0.115
42.560,0.117
42.565,0.118
42.570,0.122
42.575,0.122
42.580,0.122
42.585,0.124
42.590,0.126
42.595,0.128
42.600,0.133
42.605,0.137
42.610,0.136
42.615,0.134
42.620,0.132
42.625,0.136
42.630,0.139
42.635,0.135
42.640,0.133
42.645,0.128
42.650,0.120
42.655,0.112
42.660,0.100
42.665,0.086
42.670,0.073
42.675,0.055
42.680,0.033
42.685,0.009
42.690,-0.020
42.695,-0.050
42.700,-0.078
42.705,-0.109
42.710,-0.142
42.715,-0.172
42.720,-0.194
42.725,-0.207
42.730,-0.222
42.735,-0.235
42.740,-0.240
42.745,-0.243
42.750,-0.243
42.755,-0.239
42.760,-0.235
42.765,-0.230
42.770,-0.222
42.775,-0.214
42.780,-0.207
42.785,-0.194
42.790,-0.180
42.795,-0.172
42.800,-0.163
42.805,-0.151
42.810,-0.140
42.815,-0.130
42.820,-0.116
42.825,-0.106
42.830,-0.101
42.835,-0.093
42.840,-0.084
42.845,-0.073
42.850,-0.063
42.855,-0.057
42.860,-0.051
42.865,-0.044
42.870,-0.034
42.875,-0.028
42.880,-0.025
42.885,-0.021
42.890,-0.014
42.895,-0.012
42.900,-0.011
42.905,-0.006
42.910,-0.004
42.915,-0.009
42.920,-0.006
42.925,-0.003
42.930,-0.003
42.935,0.001
42.940,0.002
42.945,-0.001
42.950,0.000
42.955,0.001
42.960,-0.002
42.965,-0.007
42.970,-0.009
42.975,-0.006
42.980,-0.001
42.985,0.001
42.990,0.004
42.995,0.005
43.000,0.005
43.005,0.006
43.010,0.005
43.015,0.001
43.020,0.005
43.025,0.011
43.030,0.011
43.035,0.010
43.040,0.011
43.045,0.014
43.050,0.014
43.055,0.013
43.060,0.016
43.065,0.017
43.070,0.018
43.075,0.023
43.080,0.026
43.085,0.027
43.090,0.029
43.095,0.028
43.100,0.029
43.105,0.031
43.110,0.029
43.115,0.025
43.120,0.024
43.125,0.023
43.130,0.022
43.135,0.027
43.140,0.030
43.145,0.028
43.150,0.025
43.155,0.027
43.160,0.031
43.165,0.029
43.170,0.029
43.175,0.029
43.180,0.024
43.185,0.026
43.190,0.032
43.195,0.033
43.200,0.035
43.205,0.043
43.210,0.053
43.215,0.066
43.220,0.077
43.225,0.071
43.230,0.061
43.235,0.077
43.240,0.113
43.245,0.140
43.250,0.134
43.255,0.107
43.260,0.090
43.265,0.079
43.270,0.062
43.275,0.038
43.280,0.002
43.285,-0.034
43.290,-0.052
43.295,-0.058
43.300,-0.062
43.305,-0.060
43.310,-0.059
43.315,-0.060
43.320,-0.055
43.325,-0.054
43.330,-0.058
43.335,-0.056
43.340,-0.051
43.345,-0.049
43.350,-0.048
43.355,-0.046
43.360,-0.043
43.365,-0.034
43.370,-0.020
43.375,0.015
43.380,0.098
43.385,0.197
43.390,0.308
43.395,0.457
43.400,0.418
43.405,0.054
43.410,-0.219
43.415,-0.248
43.420,-0.311
43.425,-0.384
43.430,-0.358
43.435,-0.310
43.440,-0.289
43.445,-0.256
43.450,-0.199
43.455,-0.128
43.460,-0.046
43.465,0.020
43.470,0.057
43.475,0.086
43.480,0.103
43.485,0.110
43.490,0.114
43.495,0.115
43.500,0.116
43.505,0.118
43.510,0.121
43.515,0.121
43.520,0.120
43.525,0.119
43.530,0.116
43.535,0.114
43.540,0.113
43.545,0.112
43.550,0.113
43.555,0.118
43.560,0.118
43.565,0.118
43.570,0.123
43.575,0.125
43.580,0.123
43.585,0.124
43.590,0.127
43.595,0.129
43.600,0.130
43.605,0.135
43.610,0.139
43.615,0.139
43.620,0.141
43.625,0.144
43.630,0.151
43.635,0.157
43.640,0.153
43.645,0.149
43.650,0.143
43.655,0.136
43.660,0.128
43.665,0.115
43.670,0.112
43.675,0.102
43.680,0.081
43.685,0.065
43.690,0.045
43.695,0.010
43.700,-0.019
43.705,-0.032
43.710,-0.063
43.715,-0.103
43.720,-0.126
43.725,-0.152
43.730,-0.180
43.735,-0.196
43.740,-0.208
43.745,-0.222
43.750,-0.229
43.755,-0.230
43.760,-0.228
43.765,-0.225
43.770,-0.219
43.775,-0.216
43.780,-0.212
43.785,-0.202
43.790,-0.188
43.795,-0.180
43.800,-0.174
43.805,-0.163
43.810,-0.152
43.815,-0.144
43.820,-0.135
43.825,-0.123
43.830,-0.115
43.835,-0.106
43.840,-0.095
43.845,-0.086
43.850,-0.077
43.855,-0.069
43.860,-0.063
43.865,-0.056
43.870,-0.048
43.875,-0.041
43.880,-0.035
43.885,-0.026
43.890,-0.021
43.895,-0.021
43.900,-0.017
43.905,-0.011
43.910,-0.007
43.915,-0.005
43.920,-0.003
43.925,-0.002
43.930,-0.002
43.935,0.003
43.940,0.007
43.945,0.005
43.950,0.004
43.955,0.007
43.960,0.006
43.965,0.003
43.970,0.004
43.975,0.006
43.980,0.006
43.985,0.008
43.990,0.011
43.995,0.011
44.000,0.010
44.005,0.011
44.010,0.014
44.015,0.015
44.020,0.015
44.025,0.016
44.030,0.016
44.035,0.018
44.040,0.020
44.045,0.017
44.050,0.015
44.055,0.017
44.060,0.019
44.065,0.019
44.070,0.020
44.075,0.020
44.080,0.019
44.085,0.018
44.090,0.020
44.095,0.021
44.100,0.020
44.105,0.023
44.110,0.021
44.115,0.020
44.120,0.027
44.125,0.028
44.130,0.023
44.135,0.025
44.140,0.027
44.145,0.024
44.150,0.023
44.155,0.026
44.160,0.029
44.165,0.029
44.170,0.030
44.175,0.029
44.180,0.025
44.185,0.027
44.190,0.028
44.195,0.027
44.200,0.033
44.205,0.043
44.210,0.054
44.215,0.069
44.220,0.080
44.225,0.081
44.230,0.075
44.235,0.092
44.240,0.126
44.245,0.142
44.250,0.128
44.255,0.099
44.260,0.083
44.265,0.068
44.270,0.039
44.275,0.014
44.280,-0.011
44.285,-0.043
44.290,-0.058
44.295,-0.061
44.300,-0.062
44.305,-0.059
44.310,-0.059
44.315,-0.063
44.320,-0.061
44.325,-0.052
44.330,-0.053
44.335,-0.056
44.340,-0.043
44.345,-0.035
44.350,-0.043
44.355,-0.040
44.360,-0.027
44.365,-0.019
44.370,-0.009
44.375,0.033
44.380,0.125
44.385,0.227
44.390,0.334
44.395,0.469
44.400,0.370
44.405,-0.017
44.410,-0.224
44.415,-0.240
44.420,-0.326
44.425,-0.377
44.430,-0.339
44.435,-0.297
44.440,-0.277
44.445,-0.242
44.450,-0.185
44.455,-0.116
44.460,-0.032
44.465,0.033
44.470,0.066
44.475,0.097
44.480,0.115
44.485,0.117
44.490,0.120
44.495,0.123
44.500,0.126
44.505,0.129
44.510,0.127
44.515,0.122
44.520,0.124
44.525,0.126
44.530,0.121
44.535,0.119
44.540,0.118
44.545,0.115
44.550,0.118
44.555,0.116
44.560,0.114
44.565,0.124
44.570,0.126
44.575,0.123
44.580,0.122
44.585,0.124
44.590,0.127
44.595,0.128
44.600,0.131
44.605,0.134
44.610,0.136
44.615,0.141
44.620,0.143
44.625,0.144
44.630,0.146
44.635,0.143
44.640,0.143
44.645,0.145
44.650,0.138
44.655,0.128
44.660,0.121
44.665,0.112
44.670,0.102
44.675,0.089
44.680,0.069
44.685,0.048
44.690,0.029
44.695,0.006
44.700,-0.025
44.705,-0.056
44.710,-0.086
44.715,-0.118
44.720,-0.146
44.725,-0.170
44.730,-0.192
44.735,-0.210
44.740,-0.222
44.745,-0.233
44.750,-0.239
44.755,-0.239
44.760,-0.237
44.765,-0.233
44.770,-0.229
44.775,-0.223
44.780,-0.214
44.785,-0.205
44.790,-0.195
44.795,-0.184
44.800,-0.175
44.805,-0.165
44.810,-0.154
44.815,-0.146
44.820,-0.137
44.825,-0.127
44.830,-0.119
44.835,-0.109
44.840,-0.099
44.845,-0.092
44.850,-0.082
44.855,-0.071
44.860,-0.065
44.865,-0.061
44.870,-0.050
44.875,-0.044
44.880,-0.043
44.885,-0.037
44.890,-0.032
44.895,-0.030
44.900,-0.025
44.905,-0.019
44.910,-0.018
44.915,-0.018
44.920,-0.015
44.925,-0.014
44.930,-0.017
44.935,-0.017
44.940,-0.015
44.945,-0.016
44.950,-0.015
44.955,-0.010
44.960,-0.012
44.965,-0.015
44.970,-0.013
44.975,-0.013
44.980,-0.017
44.985,-0.015
44.990,-0.012
44.995,-0.013
45.000,-0.011
45.005,-0.009
45.010,-0.009
45.015,-0.008
45.020,-0.004
45.025,-0.003
45.030,-0.004
45.035,-0.003
45.040,0.001
45.045,0.004
45.050,0.005
45.055,0.008
45.060,0.008
45.065,0.006
45.070,0.009
45.075,0.011
45.080,0.012
45.085,0.014
45.090,0.018
45.095,0.020
45.100,0.022
45.105,0.025
45.110,0.025
45.115,0.025
45.120,0.029
45.125,0.033
45.130,0.030
45.135,0.031
45.140,0.034
45.145,0.032
45.150,0.031
45.155,0.031
45.160,0.032
45.165,0.033
45.170,0.034
45.175,0.033
45.180,0.034
45.185,0.045
45.190,0.060
45.195,0.068
45.200,0.077
45.205,0.090
45.210,0.097
45.215,0.102
45.220,0.118
45.225,0.137
45.230,0.137
45.235,0.117
45.240,0.094
45.245,0.067
45.250,0.037
45.255,0.015
45.260,-0.004
45.265,-0.029
45.270,-0.051
45.275,-0.055
45.280,-0.054
45.285,-0.053
45.290,-0.051
45.295,-0.053
45.300,-0.056
45.305,-0.055
45.310,-0.050
45.315,-0.044
45.320,-0.042
45.325,-0.039
45.330,-0.037
45.335,-0.034
45.340,-0.032
45.345,-0.024
45.350,-0.011
45.355,0.009
45.360,0.068
