'Elapsed time','ECG'
'seconds','mV'
0.000,0.075
0.005,-0.053
0.010,-0.113
0.015,0.024
0.020,0.041
0.025,-0.106
0.030,-0.050
0.035,0.048
0.040,-0.079
0.045,-0.103
0.050,0.044
0.055,-0.031
0.060,-0.167
0.065,-0.091
0.070,-0.167
0.075,-0.438
0.080,-0.469
0.085,-0.353
0.090,-0.424
0.095,-0.521
0.100,-0.578
0.105,-0.856
0.110,-1.063
0.115,-0.879
0.120,-0.737
0.125,-0.791
0.130,-0.661
0.135,-0.436
0.140,-0.329
0.145,-0.078
0.150,0.285
0.155,0.354
0.160,0.308
0.165,0.437
0.170,0.429
0.175,0.296
0.180,0.408
0.185,0.524
0.190,0.391
0.195,0.361
0.200,0.497
0.205,0.424
0.210,0.315
0.215,0.437
0.220,0.432
0.225,0.271
0.230,0.325
0.235,0.392
0.240,0.245
0.245,0.230
0.250,0.373
0.255,0.285
0.260,0.159
0.265,0.280
0.270,0.288
0.275,0.129
0.280,0.184
0.285,0.283
0.290,0.149
0.295,0.102
0.300,0.234
0.305,0.158
0.310,0.038
0.315,0.164
0.320,0.187
0.325,0.049
0.330,0.111
0.335,0.195
0.340,0.046
0.345,0.016
0.350,0.184
0.355,0.127
0.360,0.011
0.365,0.133
0.370,0.144
0.375,0.008
0.380,0.073
0.385,0.150
0.390,0.016
0.395,-0.007
0.400,0.127
0.405,0.046
0.410,-0.079
0.415,0.032
0.420,0.029
0.425,-0.143
0.430,-0.097
0.435,-0.010
0.440,-0.157
0.445,-0.206
0.450,-0.085
0.455,-0.157
0.460,-0.228
0.465,-0.067
0.470,-0.060
0.475,-0.231
0.480,-0.170
0.485,-0.036
0.490,-0.138
0.495,-0.165
0.500,-0.021
0.505,-0.100
0.510,-0.204
0.515,-0.052
0.520,-0.034
0.525,-0.169
0.530,-0.084
0.535,0.011
0.540,-0.131
0.545,-0.143
0.550,0.022
0.555,-0.048
0.560,-0.151
0.565,-0.007
0.570,-0.003
0.575,-0.157
0.580,-0.075
0.585,0.035
0.590,-0.089
0.595,-0.111
0.600,0.032
0.605,-0.031
0.610,-0.121
0.615,0.023
0.620,0.027
0.625,-0.138
0.630,-0.071
0.635,0.039
0.640,-0.072
0.645,-0.082
0.650,0.055
0.655,-0.029
0.660,-0.141
0.665,-0.004
0.670,0.016
0.675,-0.143
0.680,-0.093
0.685,-0.007
0.690,-0.137
0.695,-0.146
0.700,-0.010
0.705,-0.117
0.710,-0.217
0.715,-0.028
0.720,0.022
0.725,-0.114
0.730,-0.038
0.735,0.074
0.740,-0.034
0.745,-0.047
0.750,0.098
0.755,0.027
0.760,-0.074
0.765,0.077
0.770,0.117
0.775,-0.010
0.780,0.050
0.785,0.130
0.790,-0.002
0.795,-0.026
0.800,0.112
0.805,0.044
0.810,-0.055
0.815,0.075
0.820,0.077
0.825,-0.084
0.830,-0.055
0.835,-0.049
0.840,-0.333
0.845,-0.505
0.850,-0.385
0.855,-0.357
0.860,-0.396
0.865,-0.375
0.870,-0.597
0.875,-0.936
0.880,-0.930
0.885,-0.757
0.890,-0.753
0.895,-0.647
0.900,-0.350
0.905,-0.205
0.910,-0.053
0.915,0.299
0.920,0.451
0.925,0.374
0.930,0.442
0.935,0.499
0.940,0.344
0.945,0.350
0.950,0.541
0.955,0.473
0.960,0.346
0.965,0.471
0.970,0.481
0.975,0.321
0.980,0.381
0.985,0.480
0.990,0.335
0.995,0.279
1.000,0.411
1.005,0.326
1.010,0.186
1.015,0.307
1.020,0.329
1.025,0.173
1.030,0.232
1.035,0.329
1.040,0.176
1.045,0.135
1.050,0.269
1.055,0.170
1.060,0.051
1.065,0.196
1.070,0.205
1.075,0.047
1.080,0.125
1.085,0.221
1.090,0.072
1.095,0.043
1.100,0.186
1.105,0.107
1.110,0.003
1.115,0.150
1.120,0.165
1.125,0.009
1.130,0.074
1.135,0.186
1.140,0.060
1.145,0.038
1.150,0.192
1.155,0.105
1.160,-0.010
1.165,0.125
1.170,0.128
1.175,-0.037
1.180,0.011
1.185,0.104
1.190,-0.069
1.195,-0.134
1.200,0.026
1.205,-0.067
1.210,-0.218
1.215,-0.100
1.220,-0.091
1.225,-0.245
1.230,-0.168
1.235,-0.040
1.240,-0.162
1.245,-0.187
1.250,-0.050
1.255,-0.147
1.260,-0.253
1.265,-0.090
1.270,-0.055
1.275,-0.189
1.280,-0.106
1.285,-0.006
1.290,-0.157
1.295,-0.190
1.300,-0.017
1.305,-0.064
1.310,-0.169
1.315,-0.035
1.320,-0.030
1.325,-0.192
1.330,-0.115
1.335,0.008
1.340,-0.127
1.345,-0.152
1.350,0.028
1.355,-0.026
1.360,-0.154
1.365,-0.045
1.370,-0.021
1.375,-0.142
1.380,-0.064
1.385,0.043
1.390,-0.097
1.395,-0.131
1.400,0.032
1.405,-0.014
1.410,-0.123
1.415,-0.008
1.420,0.031
1.425,-0.089
1.430,-0.045
1.435,0.037
1.440,-0.119
1.445,-0.174
1.450,-0.006
1.455,-0.070
1.460,-0.200
1.465,-0.084
1.470,-0.086
1.475,-0.222
1.480,-0.111
1.485,0.035
1.490,-0.091
1.495,-0.118
1.500,0.053
1.505,-0.009
1.510,-0.090
1.515,0.089
1.520,0.119
1.525,-0.027
1.530,0.035
1.535,0.120
1.540,-0.004
1.545,-0.006
1.550,0.151
1.555,0.060
1.560,-0.050
1.565,0.150
1.570,0.189
1.575,-0.002
1.580,0.048
1.585,0.145
1.590,-0.003
1.595,-0.071
1.600,-0.035
1.605,-0.288
1.610,-0.550
1.615,-0.438
1.620,-0.324
1.625,-0.419
1.630,-0.438
1.635,-0.517
1.640,-0.834
1.645,-0.911
1.650,-0.663
1.655,-0.630
1.660,-0.632
1.665,-0.305
1.670,-0.065
1.675,0.023
1.680,0.303
1.685,0.527
1.690,0.457
1.695,0.454
1.700,0.572
1.705,0.424
1.710,0.284
1.715,0.466
1.720,0.499
1.725,0.301
1.730,0.366
1.735,0.491
1.740,0.340
1.745,0.315
1.750,0.441
1.755,0.321
1.760,0.195
1.765,0.326
1.770,0.359
1.775,0.204
1.780,0.236
1.785,0.326
1.790,0.172
1.795,0.116
1.800,0.246
1.805,0.167
1.810,0.082
1.815,0.250
1.820,0.237
1.825,0.013
1.830,0.063
1.835,0.220
1.840,0.130
1.845,0.068
1.850,0.140
1.855,0.073
1.860,0.036
1.865,0.194
1.870,0.180
1.875,-0.049
1.880,-0.015
1.885,0.168
1.890,0.051
1.895,0.024
1.900,0.194
1.905,0.078
1.910,-0.039
1.915,0.101
1.920,0.123
1.925,-0.015
1.930,0.031
1.935,0.150
1.940,0.034
1.945,-0.052
1.950,0.014
1.955,-0.085
1.960,-0.192
1.965,-0.090
1.970,-0.077
1.975,-0.212
1.980,-0.159
1.985,-0.067
1.990,-0.227
1.995,-0.216
2.000,0.001
2.005,-0.100
2.010,-0.268
2.015,-0.134
2.020,-0.059
2.025,-0.159
2.030,-0.079
2.035,0.010
2.040,-0.148
2.045,-0.174
2.050,0.013
2.055,-0.004
2.060,-0.106
2.065,-0.010
2.070,-0.025
2.075,-0.209
2.080,-0.153
2.085,-0.004
2.090,-0.096
2.095,-0.123
2.100,0.000
2.105,-0.086
2.110,-0.156
2.115,0.005
2.120,0.002
2.125,-0.160
2.130,-0.083
2.135,0.048
2.140,-0.081
2.145,-0.125
2.150,0.018
2.155,-0.052
2.160,-0.141
2.165,0.012
2.170,0.040
2.175,-0.110
2.180,-0.045
2.185,0.066
2.190,-0.084
2.195,-0.106
2.200,0.053
2.205,-0.050
2.210,-0.182
2.215,-0.048
2.220,-0.020
2.225,-0.179
2.230,-0.141
2.235,-0.048
2.240,-0.186
2.245,-0.193
2.250,0.004
2.255,-0.039
2.260,-0.141
2.265,0.013
2.270,0.069
2.275,-0.085
2.280,-0.036
2.285,0.119
2.290,0.020
2.295,-0.010
2.300,0.135
2.305,0.044
2.310,-0.056
2.315,0.101
2.320,0.113
2.325,-0.041
2.330,0.030
2.335,0.137
2.340,-0.009
2.345,-0.049
2.350,0.093
2.355,0.001
2.360,-0.161
2.365,-0.125
2.370,-0.248
2.375,-0.549
2.380,-0.540
2.385,-0.344
2.390,-0.376
2.395,-0.473
2.400,-0.531
2.405,-0.754
2.410,-0.897
2.415,-0.690
2.420,-0.526
2.425,-0.567
2.430,-0.412
2.435,-0.120
2.440,0.023
2.445,0.245
2.450,0.538
2.455,0.537
2.460,0.428
2.465,0.493
2.470,0.478
2.475,0.325
2.480,0.373
2.485,0.480
2.490,0.340
2.495,0.302
2.500,0.450
2.505,0.370
2.510,0.262
2.515,0.386
2.520,0.388
2.525,0.218
2.530,0.260
2.535,0.368
2.540,0.235
2.545,0.192
2.550,0.323
2.555,0.239
2.560,0.113
2.565,0.228
2.570,0.258
2.575,0.106
2.580,0.143
2.585,0.241
2.590,0.101
2.595,0.072
2.600,0.227
2.605,0.150
2.610,0.027
2.615,0.148
2.620,0.171
2.625,0.026
2.630,0.088
2.635,0.191
2.640,0.043
2.645,0.016
2.650,0.174
2.655,0.103
2.660,-0.008
2.665,0.110
2.670,0.132
2.675,-0.013
2.680,0.041
2.685,0.148
2.690,0.007
2.695,-0.034
2.700,0.103
2.705,0.014
2.710,-0.120
2.715,-0.013
2.720,-0.004
2.725,-0.174
2.730,-0.139
2.735,-0.038
2.740,-0.178
2.745,-0.212
2.750,-0.060
2.755,-0.120
2.760,-0.216
2.765,-0.086
2.770,-0.060
2.775,-0.201
2.780,-0.128
2.785,-0.006
2.790,-0.140
2.795,-0.163
2.800,0.000
2.805,-0.061
2.810,-0.165
2.815,-0.035
2.820,0.001
2.825,-0.140
2.830,-0.079
2.835,0.034
2.840,-0.099
2.845,-0.136
2.850,0.008
2.855,-0.041
2.860,-0.132
2.865,-0.009
2.870,0.019
2.875,-0.125
2.880,-0.074
2.885,0.032
2.890,-0.090
2.895,-0.109
2.900,0.039
2.905,-0.030
2.910,-0.132
2.915,-0.001
2.920,0.031
2.925,-0.106
2.930,-0.050
2.935,0.059
2.940,-0.068
2.945,-0.093
2.950,0.056
2.955,-0.012
2.960,-0.113
2.965,0.024
2.970,0.052
2.975,-0.103
2.980,-0.047
2.985,0.055
2.990,-0.108
2.995,-0.163
3.000,-0.008
3.005,-0.042
3.010,-0.135
3.015,-0.027
3.020,-0.005
3.025,-0.135
3.030,-0.055
3.035,0.082
3.040,-0.038
3.045,-0.071
3.050,0.077
3.055,0.024
3.060,-0.068
3.065,0.076
3.070,0.119
3.075,-0.021
3.080,0.049
3.085,0.160
3.090,0.019
3.095,-0.014
3.100,0.136
3.105,0.080
3.110,-0.032
3.115,0.078
3.120,0.106
3.125,-0.048
3.130,-0.007
3.135,0.074
3.140,-0.143
3.145,-0.309
3.150,-0.306
3.155,-0.429
3.160,-0.456
3.165,-0.271
3.170,-0.356
3.175,-0.720
3.180,-0.836
3.185,-0.770
3.190,-0.815
3.195,-0.724
3.200,-0.508
3.205,-0.481
3.210,-0.412
3.215,-0.074
3.220,0.158
3.225,0.162
3.230,0.319
3.235,0.488
3.240,0.356
3.245,0.318
3.250,0.502
3.255,0.488
3.260,0.399
3.265,0.509
3.270,0.531
3.275,0.384
3.280,0.420
3.285,0.505
3.290,0.365
3.295,0.333
3.300,0.460
3.305,0.377
3.310,0.258
3.315,0.363
3.320,0.379
3.325,0.224
3.330,0.265
3.335,0.354
3.340,0.207
3.345,0.168
3.350,0.299
3.355,0.221
3.360,0.109
3.365,0.225
3.370,0.245
3.375,0.094
3.380,0.146
3.385,0.240
3.390,0.099
3.395,0.074
3.400,0.208
3.405,0.134
3.410,0.030
3.415,0.144
3.420,0.164
3.425,0.017
3.430,0.078
3.435,0.186
3.440,0.043
3.445,0.006
3.450,0.142
3.455,0.076
3.460,-0.037
3.465,0.066
3.470,0.077
3.475,-0.080
3.480,-0.036
3.485,0.047
3.490,-0.107
3.495,-0.157
3.500,-0.038
3.505,-0.116
3.510,-0.234
3.515,-0.131
3.520,-0.107
3.525,-0.241
3.530,-0.180
3.535,-0.072
3.540,-0.188
3.545,-0.201
3.550,-0.055
3.555,-0.111
3.560,-0.200
3.565,-0.072
3.570,-0.041
3.575,-0.179
3.580,-0.120
3.585,-0.012
3.590,-0.131
3.595,-0.144
3.600,0.000
3.605,-0.060
3.610,-0.158
3.615,-0.038
3.620,-0.008
3.625,-0.150
3.630,-0.091
3.635,0.024
3.640,-0.096
3.645,-0.117
3.650,0.022
3.655,-0.043
3.660,-0.145
3.665,-0.022
3.670,0.016
3.675,-0.119
3.680,-0.058
3.685,0.049
3.690,-0.082
3.695,-0.106
3.700,0.033
3.705,-0.031
3.710,-0.138
3.715,-0.028
3.720,0.026
3.725,-0.096
3.730,-0.076
3.735,0.033
3.740,-0.057
3.745,-0.090
3.750,0.041
3.755,0.003
3.760,-0.096
3.765,-0.003
3.770,0.030
3.775,-0.106
3.780,-0.090
3.785,-0.006
3.790,-0.130
3.795,-0.163
3.800,-0.006
3.805,-0.027
3.810,-0.144
3.815,-0.077
3.820,-0.021
3.825,-0.116
3.830,-0.057
3.835,0.083
3.840,-0.017
3.845,-0.062
3.850,0.067
3.855,0.029
3.860,-0.054
3.865,0.053
3.870,0.097
3.875,-0.017
3.880,0.027
3.885,0.134
3.890,0.022
3.895,-0.019
3.900,0.105
3.905,0.057
3.910,-0.049
3.915,0.048
3.920,0.093
3.925,-0.049
3.930,-0.057
3.935,-0.036
3.940,-0.282
3.945,-0.452
3.950,-0.348
3.955,-0.311
3.960,-0.396
3.965,-0.460
3.970,-0.648
3.975,-0.917
3.980,-0.884
3.985,-0.675
3.990,-0.683
3.995,-0.656
4.000,-0.420
4.005,-0.272
4.010,-0.139
4.015,0.168
4.020,0.347
4.025,0.283
4.030,0.357
4.035,0.479
4.040,0.360
4.045,0.347
4.050,0.526
4.055,0.495
4.060,0.375
4.065,0.469
4.070,0.513
4.075,0.363
4.080,0.383
4.085,0.489
4.090,0.359
4.095,0.295
4.100,0.416
4.105,0.365
4.110,0.242
4.115,0.326
4.120,0.361
4.125,0.204
4.130,0.223
4.135,0.330
4.140,0.206
4.145,0.148
4.150,0.277
4.155,0.230
4.160,0.105
4.165,0.195
4.170,0.243
4.175,0.099
4.180,0.119
4.185,0.225
4.190,0.106
4.195,0.050
4.200,0.185
4.205,0.155
4.210,0.036
4.215,0.122
4.220,0.165
4.225,0.024
4.230,0.057
4.235,0.164
4.240,0.042
4.245,-0.004
4.250,0.126
4.255,0.071
4.260,-0.055
4.265,0.039
4.270,0.073
4.275,-0.088
4.280,-0.074
4.285,0.017
4.290,-0.119
4.295,-0.179
4.300,-0.066
4.305,-0.122
4.310,-0.233
4.315,-0.130
4.320,-0.077
4.325,-0.205
4.330,-0.166
4.335,-0.049
4.340,-0.153
4.345,-0.191
4.350,-0.057
4.355,-0.084
4.360,-0.189
4.365,-0.088
4.370,-0.025
4.375,-0.154
4.380,-0.118
4.385,0.003
4.390,-0.098
4.395,-0.138
4.400,-0.006
4.405,-0.034
4.410,-0.139
4.415,-0.041
4.420,0.015
4.425,-0.115
4.430,-0.079
4.435,0.030
4.440,-0.079
4.445,-0.115
4.450,0.016
4.455,-0.023
4.460,-0.127
4.465,-0.025
4.470,0.029
4.475,-0.109
4.480,-0.076
4.485,0.041
4.490,-0.064
4.495,-0.108
4.500,0.021
4.505,-0.010
4.510,-0.116
4.515,-0.021
4.520,0.029
4.525,-0.098
4.530,-0.061
4.535,0.042
4.540,-0.076
4.545,-0.136
4.550,-0.026
4.555,-0.070
4.560,-0.181
4.565,-0.072
4.570,-0.003
4.575,-0.146
4.580,-0.138
4.585,-0.022
4.590,-0.095
4.595,-0.110
4.600,0.038
4.605,0.023
4.610,-0.081
4.615,0.015
4.620,0.071
4.625,-0.049
4.630,-0.001
4.635,0.119
4.640,0.021
4.645,-0.022
4.650,0.099
4.655,0.062
4.660,-0.048
4.665,0.044
4.670,0.089
4.675,-0.037
4.680,0.007
4.685,0.112
4.690,-0.004
4.695,-0.068
4.700,0.006
4.705,-0.121
4.710,-0.362
4.715,-0.381
4.720,-0.316
4.725,-0.367
4.730,-0.385
4.735,-0.483
4.740,-0.799
4.745,-0.945
4.750,-0.791
4.755,-0.703
4.760,-0.711
4.765,-0.559
4.770,-0.390
4.775,-0.305
4.780,-0.028
4.785,0.286
4.790,0.309
4.795,0.310
4.800,0.449
4.805,0.416
4.810,0.313
4.815,0.447
4.820,0.530
4.825,0.397
4.830,0.411
4.835,0.509
4.840,0.406
4.845,0.347
4.850,0.447
4.855,0.407
4.860,0.290
4.865,0.366
4.870,0.399
4.875,0.260
4.880,0.273
4.885,0.364
4.890,0.258
4.895,0.193
4.900,0.295
4.905,0.269
4.910,0.152
4.915,0.227
4.920,0.274
4.925,0.138
4.930,0.151
4.935,0.248
4.940,0.148
4.945,0.090
4.950,0.201
4.955,0.175
4.960,0.060
4.965,0.140
4.970,0.187
4.975,0.059
4.980,0.084
4.985,0.183
4.990,0.086
4.995,0.034
5.000,0.140
5.005,0.107
5.010,-0.007
5.015,0.078
5.020,0.128
5.025,-0.007
5.030,0.007
5.035,0.090
5.040,-0.021
5.045,-0.090
5.050,0.000
5.055,-0.043
5.060,-0.175
5.065,-0.109
5.070,-0.068
5.075,-0.200
5.080,-0.176
5.085,-0.079
5.090,-0.169
5.095,-0.209
5.100,-0.089
5.105,-0.100
5.110,-0.201
5.115,-0.121
5.120,-0.075
5.125,-0.192
5.130,-0.156
5.135,-0.037
5.140,-0.101
5.145,-0.130
5.150,-0.002
5.155,-0.012
5.160,-0.121
5.165,-0.042
5.170,0.021
5.175,-0.088
5.180,-0.064
5.185,0.017
5.190,-0.091
5.195,-0.135
5.200,-0.001
5.205,0.011
5.210,-0.080
5.215,-0.023
5.220,0.009
5.225,-0.090
5.230,-0.045
5.235,0.048
5.240,-0.041
5.245,-0.077
5.250,0.032
5.255,0.005
5.260,-0.097
5.265,-0.010
5.270,0.037
5.275,-0.092
5.280,-0.058
5.285,0.048
5.290,-0.048
5.295,-0.096
5.300,0.012
5.305,-0.017
5.310,-0.125
5.315,-0.063
5.320,-0.042
5.325,-0.160
5.330,-0.107
5.335,0.004
5.340,-0.098
5.345,-0.160
5.350,-0.050
5.355,-0.045
5.360,-0.108
5.365,0.004
5.370,0.062
5.375,-0.058
5.380,-0.028
5.385,0.075
5.390,0.004
5.395,-0.029
5.400,0.080
5.405,0.062
5.410,-0.030
5.415,0.055
5.420,0.083
5.425,-0.037
5.430,0.006
5.435,0.105
5.440,0.015
5.445,-0.035
5.450,0.069
5.455,0.042
5.460,-0.070
5.465,-0.038
5.470,-0.103
5.475,-0.356
5.480,-0.423
5.485,-0.308
5.490,-0.318
5.495,-0.401
5.500,-0.492
5.505,-0.718
5.510,-0.925
5.515,-0.845
5.520,-0.692
5.525,-0.700
5.530,-0.600
5.535,-0.383
5.540,-0.250
5.545,-0.041
5.550,0.245
5.555,0.318
5.560,0.288
5.565,0.409
5.570,0.436
5.575,0.321
5.580,0.393
5.585,0.495
5.590,0.406
5.595,0.376
5.600,0.484
5.605,0.454
5.610,0.341
5.615,0.411
5.620,0.427
5.625,0.285
5.630,0.304
5.635,0.389
5.640,0.309
5.645,0.257
5.650,0.329
5.655,0.291
5.660,0.195
5.665,0.264
5.670,0.278
5.675,0.153
5.680,0.177
5.685,0.245
5.690,0.147
5.695,0.101
5.700,0.181
5.705,0.155
5.710,0.084
5.715,0.164
5.720,0.189
5.725,0.062
5.730,0.083
5.735,0.182
5.740,0.110
5.745,0.057
5.750,0.135
5.755,0.106
5.760,0.025
5.765,0.117
5.770,0.149
5.775,0.024
5.780,0.057
5.785,0.133
5.790,0.012
5.795,-0.023
5.800,0.084
5.805,0.009
5.810,-0.102
5.815,-0.011
5.820,-0.013
5.825,-0.162
5.830,-0.114
5.835,-0.040
5.840,-0.171
5.845,-0.187
5.850,-0.072
5.855,-0.125
5.860,-0.190
5.865,-0.075
5.870,-0.054
5.875,-0.177
5.880,-0.115
5.885,-0.020
5.890,-0.135
5.895,-0.148
5.900,-0.014
5.905,-0.076
5.910,-0.168
5.915,-0.040
5.920,-0.012
5.925,-0.136
5.930,-0.069
5.935,0.021
5.940,-0.092
5.945,-0.107
5.950,0.010
5.955,-0.051
5.960,-0.133
5.965,-0.007
5.970,0.016
5.975,-0.118
5.980,-0.047
5.985,0.045
5.990,-0.082
5.995,-0.105
6.000,0.021
6.005,-0.030
6.010,-0.126
6.015,-0.004
6.020,0.035
6.025,-0.101
6.030,-0.048
6.035,0.048
6.040,-0.068
6.045,-0.096
6.050,0.036
6.055,-0.005
6.060,-0.110
6.065,-0.006
6.070,0.025
6.075,-0.123
6.080,-0.100
6.085,-0.017
6.090,-0.107
6.095,-0.117
6.100,-0.001
6.105,-0.066
6.110,-0.169
6.115,-0.042
6.120,0.020
6.125,-0.084
6.130,-0.020
6.135,0.074
6.140,-0.026
6.145,-0.045
6.150,0.084
6.155,0.056
6.160,-0.038
6.165,0.061
6.170,0.094
6.175,-0.039
6.180,0.009
6.185,0.113
6.190,0.007
6.195,-0.027
6.200,0.090
6.205,0.045
6.210,-0.058
6.215,0.027
6.220,0.049
6.225,-0.097
6.230,-0.121
6.235,-0.153
6.240,-0.398
6.245,-0.482
6.250,-0.292
6.255,-0.300
6.260,-0.537
6.265,-0.665
6.270,-0.801
6.275,-0.969
6.280,-0.829
6.285,-0.611
6.290,-0.650
6.295,-0.588
6.300,-0.288
6.305,-0.086
6.310,0.046
6.315,0.283
6.320,0.388
6.325,0.304
6.330,0.348
6.335,0.441
6.340,0.376
6.345,0.395
6.350,0.526
6.355,0.466
6.360,0.354
6.365,0.447
6.370,0.472
6.375,0.332
6.380,0.366
6.385,0.445
6.390,0.318
6.395,0.281
6.400,0.392
6.405,0.330
6.410,0.216
6.415,0.300
6.420,0.317
6.425,0.179
6.430,0.219
6.435,0.304
6.440,0.187
6.445,0.149
6.450,0.250
6.455,0.192
6.460,0.092
6.465,0.187
6.470,0.209
6.475,0.069
6.480,0.112
6.485,0.203
6.490,0.086
6.495,0.053
6.500,0.173
6.505,0.124
6.510,0.025
6.515,0.123
6.520,0.141
6.525,0.006
6.530,0.054
6.535,0.140
6.540,0.027
6.545,0.000
6.550,0.114
6.555,0.060
6.560,-0.044
6.565,0.044
6.570,0.054
6.575,-0.080
6.580,-0.052
6.585,-0.011
6.590,-0.132
6.595,-0.157
6.600,-0.079
6.605,-0.132
6.610,-0.188
6.615,-0.104
6.620,-0.103
6.625,-0.183
6.630,-0.121
6.635,-0.066
6.640,-0.143
6.645,-0.132
6.650,-0.041
6.655,-0.087
6.660,-0.135
6.665,-0.047
6.670,-0.046
6.675,-0.130
6.680,-0.072
6.685,-0.021
6.690,-0.098
6.695,-0.084
6.700,0.000
6.705,-0.054
6.710,-0.105
6.715,-0.022
6.720,-0.019
6.725,-0.093
6.730,-0.036
6.735,0.008
6.740,-0.080
6.745,-0.083
6.750,0.000
6.755,-0.042
6.760,-0.086
6.765,0.002
6.770,0.001
6.775,-0.087
6.780,-0.032
6.785,0.015
6.790,-0.072
6.795,-0.064
6.800,0.023
6.805,-0.030
6.810,-0.083
6.815,-0.002
6.820,-0.013
6.825,-0.102
6.830,-0.046
6.835,-0.012
6.840,-0.119
6.845,-0.127
6.850,-0.044
6.855,-0.082
6.860,-0.131
6.865,-0.065
6.870,-0.072
6.875,-0.123
6.880,-0.037
6.885,0.025
6.890,-0.031
6.895,-0.018
6.900,0.050
6.905,0.000
6.910,-0.035
6.915,0.064
6.920,0.070
6.925,-0.006
6.930,0.055
6.935,0.092
6.940,0.006
6.945,0.020
6.950,0.095
6.955,0.034
6.960,-0.014
6.965,0.063
6.970,0.047
6.975,-0.036
6.980,0.013
6.985,0.021
6.990,-0.133
6.995,-0.233
7.000,-0.265
7.005,-0.347
7.010,-0.344
7.015,-0.278
7.020,-0.452
7.025,-0.755
7.030,-0.834
7.035,-0.790
7.040,-0.777
7.045,-0.681
7.050,-0.550
7.055,-0.517
7.060,-0.391
7.065,-0.061
7.070,0.155
7.075,0.204
7.080,0.328
7.085,0.402
7.090,0.312
7.095,0.313
7.100,0.433
7.105,0.425
7.110,0.384
7.115,0.467
7.120,0.456
7.125,0.358
7.130,0.398
7.135,0.429
7.140,0.337
7.145,0.323
7.150,0.383
7.155,0.318
7.160,0.253
7.165,0.324
7.170,0.308
7.175,0.212
7.180,0.252
7.185,0.286
7.190,0.198
7.195,0.188
7.200,0.252
7.205,0.188
7.210,0.125
7.215,0.203
7.220,0.193
7.225,0.104
7.230,0.147
7.235,0.176
7.240,0.089
7.245,0.090
7.250,0.169
7.255,0.118
7.260,0.064
7.265,0.143
7.270,0.132
7.275,0.054
7.280,0.108
7.285,0.138
7.290,0.052
7.295,0.048
7.300,0.113
7.305,0.049
7.310,-0.009
7.315,0.067
7.320,0.042
7.325,-0.053
7.330,-0.012
7.335,-0.001
7.340,-0.112
7.345,-0.124
7.350,-0.060
7.355,-0.126
7.360,-0.180
7.365,-0.097
7.370,-0.103
7.375,-0.176
7.380,-0.115
7.385,-0.076
7.390,-0.153
7.395,-0.140
7.400,-0.058
7.405,-0.108
7.410,-0.154
7.415,-0.053
7.420,-0.055
7.425,-0.156
7.430,-0.066
7.435,-0.007
7.440,-0.132
7.445,-0.109
7.450,0.009
7.455,-0.078
7.460,-0.130
7.465,0.010
7.470,-0.012
7.475,-0.128
7.480,-0.032
7.485,0.023
7.490,-0.102
7.495,-0.076
7.500,0.046
7.505,-0.042
7.510,-0.103
7.515,0.029
7.520,0.008
7.525,-0.109
7.530,-0.024
7.535,0.023
7.540,-0.097
7.545,-0.061
7.550,0.067
7.555,-0.030
7.560,-0.105
7.565,0.025
7.570,-0.003
7.575,-0.127
7.580,-0.027
7.585,0.023
7.590,-0.127
7.595,-0.129
7.600,-0.016
7.605,-0.088
7.610,-0.139
7.615,-0.011
7.620,-0.056
7.625,-0.193
7.630,-0.070
7.635,0.028
7.640,-0.077
7.645,-0.042
7.650,0.086
7.655,0.003
7.660,-0.067
7.665,0.075
7.670,0.079
7.675,-0.035
7.680,0.062
7.685,0.128
7.690,-0.002
7.695,0.008
7.700,0.133
7.705,0.038
7.710,-0.056
7.715,0.070
7.720,0.057
7.725,-0.060
7.730,0.049
7.735,0.108
7.740,-0.056
7.745,-0.107
7.750,-0.079
7.755,-0.287
7.760,-0.457
7.765,-0.295
7.770,-0.235
7.775,-0.437
7.780,-0.557
7.785,-0.685
7.790,-0.886
7.795,-0.813
7.800,-0.559
7.805,-0.557
7.810,-0.575
7.815,-0.301
7.820,-0.093
7.825,-0.008
7.830,0.233
7.835,0.408
7.840,0.339
7.845,0.324
7.850,0.405
7.855,0.336
7.860,0.306
7.865,0.458
7.870,0.441
7.875,0.300
7.880,0.380
7.885,0.447
7.890,0.317
7.895,0.311
7.900,0.418
7.905,0.323
7.910,0.220
7.915,0.329
7.920,0.316
7.925,0.176
7.930,0.243
7.935,0.295
7.940,0.156
7.945,0.145
7.950,0.261
7.955,0.193
7.960,0.117
7.965,0.235
7.970,0.212
7.975,0.065
7.980,0.127
7.985,0.180
7.990,0.057
7.995,0.071
8.000,0.194
8.005,0.102
8.010,0.010
8.015,0.140
8.020,0.143
8.025,0.015
8.030,0.090
8.035,0.166
8.040,0.044
8.045,0.024
8.050,0.139
8.055,0.068
8.060,-0.018
8.065,0.095
8.070,0.076
8.075,-0.051
8.080,0.028
8.085,0.086
8.090,-0.054
8.095,-0.085
8.100,0.011
8.105,-0.080
8.110,-0.185
8.115,-0.079
8.120,-0.081
8.125,-0.200
8.130,-0.122
8.135,-0.045
8.140,-0.157
8.145,-0.165
8.150,-0.044
8.155,-0.101
8.160,-0.166
8.165,-0.038
8.170,-0.042
8.175,-0.161
8.180,-0.074
8.185,0.014
8.190,-0.108
8.195,-0.134
8.200,-0.011
8.205,-0.064
8.210,-0.131
8.215,-0.001
8.220,-0.004
8.225,-0.131
8.230,-0.059
8.235,0.013
8.240,-0.102
8.245,-0.103
8.250,0.024
8.255,-0.040
8.260,-0.125
8.265,-0.005
8.270,0.010
8.275,-0.092
8.280,-0.019
8.285,0.014
8.290,-0.107
8.295,-0.077
8.300,0.029
8.305,-0.040
8.310,-0.075
8.315,0.005
8.320,-0.038
8.325,-0.110
8.330,-0.036
8.335,-0.003
8.340,-0.083
8.345,-0.057
8.350,0.001
8.355,-0.108
8.360,-0.153
8.365,-0.042
8.370,-0.053
8.375,-0.142
8.380,-0.103
8.385,-0.078
8.390,-0.142
8.395,-0.085
8.400,0.023
8.405,-0.031
8.410,-0.046
8.415,0.052
8.420,0.022
8.425,-0.036
8.430,0.042
8.435,0.064
8.440,-0.015
8.445,0.032
8.450,0.111
8.455,0.016
8.460,-0.021
8.465,0.080
8.470,0.058
8.475,-0.010
8.480,0.047
8.485,0.056
8.490,-0.032
8.495,-0.017
8.500,0.034
8.505,-0.082
8.510,-0.203
8.515,-0.266
8.520,-0.456
8.525,-0.532
8.530,-0.327
8.535,-0.269
8.540,-0.515
8.545,-0.710
8.550,-0.806
8.555,-0.921
8.560,-0.827
8.565,-0.573
8.570,-0.504
8.575,-0.432
8.580,-0.127
8.585,0.135
8.590,0.219
8.595,0.354
8.600,0.486
8.605,0.402
8.610,0.345
8.615,0.445
8.620,0.428
8.625,0.362
8.630,0.450
8.635,0.479
8.640,0.369
8.645,0.385
8.650,0.449
8.655,0.347
8.660,0.312
8.665,0.398
8.670,0.341
8.675,0.263
8.680,0.326
8.685,0.316
8.690,0.197
8.695,0.218
8.700,0.294
8.705,0.207
8.710,0.175
8.715,0.257
8.720,0.190
8.725,0.109
8.730,0.187
8.735,0.193
8.740,0.093
8.745,0.125
8.750,0.185
8.755,0.089
8.760,0.059
8.765,0.154
8.770,0.112
8.775,0.045
8.780,0.122
8.785,0.130
8.790,0.032
8.795,0.069
8.800,0.146
8.805,0.057
8.810,0.031
8.815,0.133
8.820,0.092
8.825,0.026
8.830,0.109
8.835,0.116
8.840,0.009
8.845,0.028
8.850,0.069
8.855,-0.052
8.860,-0.087
8.865,0.007
8.870,-0.060
8.875,-0.156
8.880,-0.090
8.885,-0.084
8.890,-0.175
8.895,-0.124
8.900,-0.048
8.905,-0.142
8.910,-0.158
8.915,-0.052
8.920,-0.093
8.925,-0.156
8.930,-0.076
8.935,-0.064
8.940,-0.147
8.945,-0.099
8.950,-0.030
8.955,-0.122
8.960,-0.134
8.965,-0.030
8.970,-0.080
8.975,-0.144
8.980,-0.051
8.985,-0.035
8.990,-0.135
8.995,-0.103
9.000,-0.036
9.005,-0.117
9.010,-0.112
9.015,-0.001
9.020,-0.056
9.025,-0.122
9.030,-0.034
9.035,-0.028
9.040,-0.123
9.045,-0.071
9.050,0.005
9.055,-0.088
9.060,-0.097
9.065,0.005
9.070,-0.052
9.075,-0.108
9.080,-0.002
9.085,0.011
9.090,-0.090
9.095,-0.046
9.100,0.024
9.105,-0.070
9.110,-0.076
9.115,0.030
9.120,-0.037
9.125,-0.128
9.130,-0.057
9.135,-0.053
9.140,-0.145
9.145,-0.095
9.150,-0.042
9.155,-0.158
9.160,-0.164
9.165,-0.043
9.170,-0.083
9.175,-0.122
9.180,-0.001
9.185,0.020
9.190,-0.067
9.195,-0.013
9.200,0.034
9.205,-0.077
9.210,-0.070
9.215,0.051
9.220,0.003
9.225,-0.056
9.230,0.043
9.235,0.058
9.240,-0.040
9.245,0.009
9.250,0.076
9.255,-0.025
9.260,-0.023
9.265,0.085
9.270,0.010
9.275,-0.070
9.280,0.013
9.285,-0.020
9.290,-0.217
9.295,-0.298
9.300,-0.344
9.305,-0.458
9.310,-0.373
9.315,-0.259
9.320,-0.508
9.325,-0.805
9.330,-0.837
9.335,-0.835
9.340,-0.841
9.345,-0.673
9.350,-0.511
9.355,-0.490
9.360,-0.273
9.365,0.106
9.370,0.240
9.375,0.290
9.380,0.465
9.385,0.494
9.390,0.367
9.395,0.424
9.400,0.536
9.405,0.443
9.410,0.430
9.415,0.539
9.420,0.463
9.425,0.382
9.430,0.479
9.435,0.473
9.440,0.346
9.445,0.387
9.450,0.446
9.455,0.313
9.460,0.292
9.465,0.400
9.470,0.315
9.475,0.229
9.480,0.324
9.485,0.313
9.490,0.183
9.495,0.234
9.500,0.303
9.505,0.177
9.510,0.167
9.515,0.278
9.520,0.188
9.525,0.102
9.530,0.206
9.535,0.203
9.540,0.078
9.545,0.136
9.550,0.219
9.555,0.095
9.560,0.083
9.565,0.201
9.570,0.121
9.575,0.042
9.580,0.149
9.585,0.148
9.590,0.027
9.595,0.089
9.600,0.163
9.605,0.032
9.610,0.020
9.615,0.129
9.620,0.034
9.625,-0.058
9.630,0.034
9.635,0.014
9.640,-0.127
9.645,-0.087
9.650,-0.028
9.655,-0.165
9.660,-0.177
9.665,-0.061
9.670,-0.146
9.675,-0.221
9.680,-0.100
9.685,-0.086
9.690,-0.201
9.695,-0.135
9.700,-0.048
9.705,-0.159
9.710,-0.149
9.715,-0.025
9.720,-0.099
9.725,-0.163
9.730,-0.042
9.735,-0.033
9.740,-0.146
9.745,-0.078
9.750,0.000
9.755,-0.121
9.760,-0.115
9.765,0.011
9.770,-0.062
9.775,-0.126
9.780,-0.007
9.785,-0.008
9.790,-0.127
9.795,-0.053
9.800,0.026
9.805,-0.094
9.810,-0.090
9.815,0.030
9.820,-0.047
9.825,-0.118
9.830,-0.001
9.835,0.005
9.840,-0.112
9.845,-0.041
9.850,0.037
9.855,-0.087
9.860,-0.082
9.865,0.043
9.870,-0.037
9.875,-0.107
9.880,0.014
9.885,0.014
9.890,-0.108
9.895,-0.035
9.900,0.043
9.905,-0.079
9.910,-0.071
9.915,0.046
9.920,-0.059
9.925,-0.172
9.930,-0.074
9.935,-0.049
9.940,-0.149
9.945,-0.103
9.950,-0.068
9.955,-0.195
9.960,-0.181
9.965,-0.050
9.970,-0.084
9.975,-0.116
9.980,0.000
9.985,0.012
9.990,-0.076
9.995,0.019
10.000,0.115
10.005,0.020
10.010,0.034
10.015,0.147
10.020,0.081
10.025,0.014
10.030,0.109
10.035,0.108
10.040,0.004
10.045,0.068
10.050,0.130
10.055,0.015
10.060,0.012
10.065,0.111
10.070,0.034
10.075,-0.052
10.080,-0.008
10.085,-0.117
10.090,-0.354
10.095,-0.368
10.100,-0.276
10.105,-0.344
10.110,-0.442
10.115,-0.563
10.120,-0.817
10.125,-0.939
10.130,-0.774
10.135,-0.664
10.140,-0.698
10.145,-0.560
10.150,-0.347
10.155,-0.225
10.160,0.033
10.165,0.321
10.170,0.353
10.175,0.339
10.180,0.440
10.185,0.418
10.190,0.332
10.195,0.447
10.200,0.528
10.205,0.410
10.210,0.408
10.215,0.499
10.220,0.413
10.225,0.336
10.230,0.432
10.235,0.417
10.240,0.286
10.245,0.339
10.250,0.392
10.255,0.261
10.260,0.253
10.265,0.345
10.270,0.256
10.275,0.177
10.280,0.270
10.285,0.257
10.290,0.136
10.295,0.199
10.300,0.258
10.305,0.131
10.310,0.127
10.315,0.225
10.320,0.141
10.325,0.072
10.330,0.178
10.335,0.167
10.340,0.044
10.345,0.115
10.350,0.176
10.355,0.048
10.360,0.053
10.365,0.161
10.370,0.078
10.375,0.003
10.380,0.105
10.385,0.096
10.390,-0.026
10.395,0.039
10.400,0.096
10.405,-0.038
10.410,-0.044
10.415,0.051
10.420,-0.030
10.425,-0.123
10.430,-0.066
10.435,-0.062
10.440,-0.181
10.445,-0.167
10.450,-0.090
10.455,-0.182
10.460,-0.206
10.465,-0.097
10.470,-0.131
10.475,-0.203
10.480,-0.118
10.485,-0.072
10.490,-0.161
10.495,-0.124
10.500,-0.033
10.505,-0.118
10.510,-0.138
10.515,-0.031
10.520,-0.065
10.525,-0.130
10.530,-0.052
10.535,-0.024
10.540,-0.116
10.545,-0.079
10.550,0.009
10.555,-0.076
10.560,-0.098
10.565,0.005
10.570,-0.034
10.575,-0.104
10.580,-0.023
10.585,0.010
10.590,-0.084
10.595,-0.052
10.600,0.031
10.605,-0.062
10.610,-0.087
10.615,0.016
10.620,-0.024
10.625,-0.097
10.630,-0.017
10.635,0.010
10.640,-0.091
10.645,-0.054
10.650,0.030
10.655,-0.061
10.660,-0.077
10.665,0.027
10.670,-0.019
10.675,-0.092
10.680,-0.010
10.685,0.020
10.690,-0.079
10.695,-0.048
10.700,0.033
10.705,-0.056
10.710,-0.084
10.715,-0.009
10.720,-0.084
10.725,-0.165
10.730,-0.079
10.735,-0.042
10.740,-0.136
10.745,-0.129
10.750,-0.085
10.755,-0.176
10.760,-0.167
10.765,-0.046
10.770,-0.063
10.775,-0.098
10.780,-0.001
10.785,0.037
10.790,-0.034
10.795,0.026
10.800,0.118
10.805,0.041
10.810,0.038
10.815,0.136
10.820,0.086
10.825,0.020
10.830,0.101
10.835,0.118
10.840,0.013
10.845,0.047
10.850,0.119
10.855,0.023
10.860,0.007
10.865,0.106
10.870,0.049
10.875,-0.060
10.880,-0.064
10.885,-0.164
10.890,-0.369
10.895,-0.341
10.900,-0.210
10.905,-0.331
10.910,-0.520
10.915,-0.641
10.920,-0.811
10.925,-0.866
10.930,-0.688
10.935,-0.584
10.940,-0.627
10.945,-0.480
10.950,-0.216
10.955,-0.069
10.960,0.143
10.965,0.382
10.970,0.398
10.975,0.349
10.980,0.413
10.985,0.421
10.990,0.350
10.995,0.421
11.000,0.493
11.005,0.389
11.010,0.370
11.015,0.456
11.020,0.396
11.025,0.318
11.030,0.388
11.035,0.391
11.040,0.273
11.045,0.299
11.050,0.355
11.055,0.244
11.060,0.225
11.065,0.309
11.070,0.246
11.075,0.170
11.080,0.245
11.085,0.251
11.090,0.133
11.095,0.166
11.100,0.231
11.105,0.126
11.110,0.111
11.115,0.199
11.120,0.139
11.125,0.068
11.130,0.149
11.135,0.159
11.140,0.051
11.145,0.092
11.150,0.162
11.155,0.062
11.160,0.049
11.165,0.141
11.170,0.085
11.175,0.007
11.180,0.080
11.185,0.094
11.190,-0.012
11.195,0.029
11.200,0.092
11.205,-0.022
11.210,-0.044
11.215,0.041
11.220,-0.031
11.225,-0.120
11.230,-0.057
11.235,-0.058
11.240,-0.167
11.245,-0.124
11.250,-0.060
11.255,-0.166
11.260,-0.178
11.265,-0.080
11.270,-0.125
11.275,-0.184
11.280,-0.092
11.285,-0.066
11.290,-0.156
11.295,-0.100
11.300,-0.025
11.305,-0.119
11.310,-0.114
11.315,-0.003
11.320,-0.054
11.325,-0.129
11.330,-0.047
11.335,-0.019
11.340,-0.103
11.345,-0.048
11.350,0.018
11.355,-0.089
11.360,-0.094
11.365,0.017
11.370,-0.020
11.375,-0.087
11.380,-0.010
11.385,-0.003
11.390,-0.107
11.395,-0.046
11.400,0.035
11.405,-0.067
11.410,-0.073
11.415,0.027
11.420,-0.031
11.425,-0.093
11.430,0.006
11.435,0.023
11.440,-0.085
11.445,-0.031
11.450,0.044
11.455,-0.061
11.460,-0.067
11.465,0.038
11.470,-0.017
11.475,-0.081
11.480,0.022
11.485,0.007
11.490,-0.141
11.495,-0.033
11.500,0.086
11.505,-0.076
11.510,-0.090
11.515,0.053
11.520,-0.073
11.525,-0.207
11.530,-0.045
11.535,-0.016
11.540,-0.179
11.545,-0.106
11.550,-0.049
11.555,-0.235
11.560,-0.212
11.565,-0.013
11.570,-0.069
11.575,-0.149
11.580,0.021
11.585,0.048
11.590,-0.093
11.595,0.037
11.600,0.165
11.605,-0.001
11.610,-0.001
11.615,0.174
11.620,0.090
11.625,-0.015
11.630,0.143
11.635,0.156
11.640,-0.022
11.645,0.059
11.650,0.164
11.655,-0.003
11.660,-0.021
11.665,0.134
11.670,0.047
11.675,-0.074
11.680,0.022
11.685,-0.076
11.690,-0.387
11.695,-0.395
11.700,-0.260
11.705,-0.330
11.710,-0.362
11.715,-0.391
11.720,-0.704
11.725,-0.944
11.730,-0.769
11.735,-0.625
11.740,-0.697
11.745,-0.534
11.750,-0.273
11.755,-0.203
11.760,0.032
11.765,0.360
11.770,0.361
11.775,0.305
11.780,0.454
11.785,0.437
11.790,0.274
11.795,0.397
11.800,0.521
11.805,0.351
11.810,0.340
11.815,0.504
11.820,0.403
11.825,0.276
11.830,0.420
11.835,0.411
11.840,0.217
11.845,0.301
11.850,0.396
11.855,0.214
11.860,0.198
11.865,0.356
11.870,0.252
11.875,0.121
11.880,0.262
11.885,0.272
11.890,0.091
11.895,0.169
11.900,0.266
11.905,0.087
11.910,0.063
11.915,0.214
11.920,0.124
11.925,0.009
11.930,0.161
11.935,0.181
11.940,-0.004
11.945,0.074
11.950,0.188
11.955,0.026
11.960,0.016
11.965,0.176
11.970,0.081
11.975,-0.032
11.980,0.127
11.985,0.141
11.990,-0.037
11.995,0.059
12.000,0.179
12.005,0.009
12.010,-0.010
12.015,0.141
12.020,0.026
12.025,-0.102
12.030,0.051
12.035,0.039
12.040,-0.179
12.045,-0.114
12.050,0.008
12.055,-0.144
12.060,-0.200
12.065,-0.052
12.070,-0.087
12.075,-0.220
12.080,-0.100
12.085,-0.016
12.090,-0.180
12.095,-0.167
12.100,-0.024
12.105,-0.131
12.110,-0.179
12.115,0.007
12.120,-0.026
12.125,-0.192
12.130,-0.071
12.135,0.020
12.140,-0.135
12.145,-0.112
12.150,0.016
12.155,-0.104
12.160,-0.153
12.165,0.021
12.170,-0.019
12.175,-0.176
12.180,-0.052
12.185,0.024
12.190,-0.139
12.195,-0.092
12.200,0.058
12.205,-0.071
12.210,-0.143
12.215,0.020
12.220,-0.012
12.225,-0.155
12.230,-0.028
12.235,0.041
12.240,-0.131
12.245,-0.088
12.250,0.074
12.255,-0.055
12.260,-0.138
12.265,0.036
12.270,0.016
12.275,-0.133
12.280,-0.015
12.285,0.051
12.290,-0.111
12.295,-0.064
12.300,0.077
12.305,-0.052
12.310,-0.125
12.315,0.039
12.320,0.019
12.325,-0.135
12.330,-0.048
12.335,0.000
12.340,-0.165
12.345,-0.125
12.350,0.031
12.355,-0.102
12.360,-0.228
12.365,-0.101
12.370,-0.111
12.375,-0.219
12.380,-0.070
12.385,0.027
12.390,-0.105
12.395,-0.052
12.400,0.111
12.405,0.018
12.410,-0.041
12.415,0.131
12.420,0.119
12.425,-0.022
12.430,0.093
12.435,0.157
12.440,-0.009
12.445,0.024
12.450,0.166
12.455,0.051
12.460,-0.023
12.465,0.123
12.470,0.094
12.475,-0.057
12.480,0.035
12.485,0.079
12.490,-0.139
12.495,-0.243
12.500,-0.265
12.505,-0.466
12.510,-0.490
12.515,-0.235
12.520,-0.285
12.525,-0.623
12.530,-0.737
12.535,-0.798
12.540,-0.938
12.545,-0.786
12.550,-0.529
12.555,-0.519
12.560,-0.412
12.565,-0.026
12.570,0.191
12.575,0.214
12.580,0.410
12.585,0.525
12.590,0.358
12.595,0.354
12.600,0.503
12.605,0.427
12.610,0.361
12.615,0.501
12.620,0.479
12.625,0.332
12.630,0.421
12.635,0.471
12.640,0.307
12.645,0.316
12.650,0.425
12.655,0.306
12.660,0.225
12.665,0.350
12.670,0.311
12.675,0.170
12.680,0.269
12.685,0.315
12.690,0.147
12.695,0.159
12.700,0.271
12.705,0.158
12.710,0.086
12.715,0.220
12.720,0.173
12.725,0.046
12.730,0.178
12.735,0.184
12.740,0.000
12.745,0.092
12.750,0.199
12.755,0.027
12.760,0.015
12.765,0.183
12.770,0.086
12.775,-0.025
12.780,0.145
12.785,0.149
12.790,-0.030
12.795,0.068
12.800,0.172
12.805,0.003
12.810,-0.001
12.815,0.171
12.820,0.065
12.825,-0.064
12.830,0.086
12.835,0.068
12.840,-0.128
12.845,-0.044
12.850,0.040
12.855,-0.152
12.860,-0.178
12.865,-0.016
12.870,-0.122
12.875,-0.244
12.880,-0.076
12.885,-0.068
12.890,-0.240
12.895,-0.132
12.900,-0.017
12.905,-0.179
12.910,-0.180
12.915,-0.005
12.920,-0.102
12.925,-0.213
12.930,-0.036
12.935,-0.030
12.940,-0.206
12.945,-0.096
12.950,0.020
12.955,-0.148
12.960,-0.148
12.965,0.028
12.970,-0.075
12.975,-0.189
12.980,-0.013
12.985,-0.006
12.990,-0.177
12.995,-0.064
13.000,0.047
13.005,-0.130
13.010,-0.137
13.015,0.044
13.020,-0.055
13.025,-0.171
13.030,0.012
13.035,0.027
13.040,-0.153
13.045,-0.049
13.050,0.064
13.055,-0.102
13.060,-0.104
13.065,0.070
13.070,-0.032
13.075,-0.146
13.080,0.036
13.085,0.046
13.090,-0.135
13.095,-0.029
13.100,0.088
13.105,-0.083
13.110,-0.089
13.115,0.088
13.120,-0.011
13.125,-0.126
13.130,0.051
13.135,0.057
13.140,-0.122
13.145,-0.017
13.150,0.094
13.155,-0.074
13.160,-0.080
13.165,0.083
13.170,-0.049
13.175,-0.194
13.180,-0.028
13.185,-0.012
13.190,-0.179
13.195,-0.079
13.200,0.000
13.205,-0.201
13.210,-0.199
13.215,0.004
13.220,-0.068
13.225,-0.152
13.230,0.049
13.235,0.066
13.240,-0.101
13.245,0.027
13.250,0.161
13.255,0.002
13.260,0.008
13.265,0.197
13.270,0.097
13.275,-0.023
13.280,0.152
13.285,0.157
13.290,-0.028
13.295,0.076
13.300,0.188
13.305,0.006
13.310,-0.013
13.315,0.166
13.320,0.083
13.325,-0.059
13.330,0.003
13.335,-0.089
13.340,-0.354
13.345,-0.379
13.350,-0.269
13.355,-0.332
13.360,-0.432
13.365,-0.530
13.370,-0.797
13.375,-0.966
13.380,-0.801
13.385,-0.672
13.390,-0.717
13.395,-0.578
13.400,-0.342
13.405,-0.220
13.410,0.028
13.415,0.342
13.420,0.383
13.425,0.350
13.430,0.464
13.435,0.454
13.440,0.344
13.445,0.452
13.450,0.553
13.455,0.429
13.460,0.410
13.465,0.519
13.470,0.439
13.475,0.343
13.480,0.447
13.485,0.439
13.490,0.295
13.495,0.346
13.500,0.409
13.505,0.274
13.510,0.252
13.515,0.359
13.520,0.278
13.525,0.180
13.530,0.282
13.535,0.279
13.540,0.141
13.545,0.195
13.550,0.263
13.555,0.137
13.560,0.124
13.565,0.235
13.570,0.159
13.575,0.070
13.580,0.181
13.585,0.179
13.590,0.042
13.595,0.105
13.600,0.180
13.605,0.059
13.610,0.055
13.615,0.176
13.620,0.101
13.625,0.009
13.630,0.118
13.635,0.117
13.640,-0.015
13.645,0.050
13.650,0.119
13.655,-0.016
13.660,-0.037
13.665,0.072
13.670,-0.014
13.675,-0.123
13.680,-0.028
13.685,-0.041
13.690,-0.191
13.695,-0.142
13.700,-0.075
13.705,-0.200
13.710,-0.205
13.715,-0.079
13.720,-0.149
13.725,-0.235
13.730,-0.113
13.735,-0.102
13.740,-0.221
13.745,-0.134
13.750,-0.037
13.755,-0.148
13.760,-0.154
13.765,-0.020
13.770,-0.079
13.775,-0.166
13.780,-0.038
13.785,-0.015
13.790,-0.145
13.795,-0.079
13.800,0.015
13.805,-0.101
13.810,-0.119
13.815,0.020
13.820,-0.037
13.825,-0.139
13.830,-0.018
13.835,0.005
13.840,-0.135
13.845,-0.066
13.850,0.044
13.855,-0.076
13.860,-0.103
13.865,0.037
13.870,-0.018
13.875,-0.121
13.880,0.008
13.885,0.038
13.890,-0.106
13.895,-0.042
13.900,0.063
13.905,-0.074
13.910,-0.110
13.915,0.040
13.920,-0.014
13.925,-0.118
13.930,0.010
13.935,0.037
13.940,-0.109
13.945,-0.043
13.950,0.070
13.955,-0.058
13.960,-0.085
13.965,0.059
13.970,-0.010
13.975,-0.118
13.980,0.023
13.985,0.057
13.990,-0.088
13.995,-0.021
14.000,0.080
14.005,-0.065
14.010,-0.099
14.015,0.042
14.020,-0.050
14.025,-0.187
14.030,-0.057
14.035,-0.025
14.040,-0.164
14.045,-0.106
14.050,-0.037
14.055,-0.185
14.060,-0.199
14.065,-0.038
14.070,-0.076
14.075,-0.132
14.080,0.036
14.085,0.066
14.090,-0.071
14.095,0.023
14.100,0.145
14.105,0.018
14.110,0.009
14.115,0.172
14.120,0.106
14.125,-0.005
14.130,0.122
14.135,0.136
14.140,-0.008
14.145,0.066
14.150,0.157
14.155,0.017
14.160,-0.002
14.165,0.143
14.170,0.051
14.175,-0.086
14.180,0.005
14.185,-0.081
14.190,-0.366
14.195,-0.371
14.200,-0.238
14.205,-0.318
14.210,-0.430
14.215,-0.509
14.220,-0.767
14.225,-0.926
14.230,-0.735
14.235,-0.616
14.240,-0.678
14.245,-0.511
14.250,-0.252
14.255,-0.142
14.260,0.094
14.265,0.386
14.270,0.390
14.275,0.339
14.280,0.456
14.285,0.387
14.290,0.242
14.295,0.450
14.300,0.577
14.305,0.372
14.310,0.357
14.315,0.505
14.320,0.381
14.325,0.262
14.330,0.424
14.335,0.425
14.340,0.253
14.345,0.341
14.350,0.409
14.355,0.204
14.360,0.188
14.365,0.354
14.370,0.252
14.375,0.143
14.380,0.299
14.385,0.269
14.390,0.072
14.395,0.178
14.400,0.281
14.405,0.098
14.410,0.082
14.415,0.236
14.420,0.121
14.425,0.010
14.430,0.183
14.435,0.178
14.440,-0.011
14.445,0.091
14.450,0.201
14.455,0.027
14.460,0.011
14.465,0.182
14.470,0.085
14.475,-0.032
14.480,0.136
14.485,0.140
14.490,-0.051
14.495,0.030
14.500,0.137
14.505,-0.025
14.510,-0.047
14.515,0.104
14.520,-0.002
14.525,-0.129
14.530,0.010
14.535,-0.021
14.540,-0.218
14.545,-0.123
14.550,-0.019
14.555,-0.188
14.560,-0.211
14.565,-0.059
14.570,-0.150
14.575,-0.244
14.580,-0.057
14.585,-0.045
14.590,-0.217
14.595,-0.105
14.600,0.008
14.605,-0.157
14.610,-0.161
14.615,0.011
14.620,-0.080
14.625,-0.193
14.630,-0.030
14.635,-0.005
14.640,-0.151
14.645,-0.052
14.650,0.052
14.655,-0.099
14.660,-0.130
14.665,0.022
14.670,-0.026
14.675,-0.136
14.680,-0.019
14.685,0.012
14.690,-0.132
14.695,-0.081
14.700,0.029
14.705,-0.079
14.710,-0.108
14.715,0.031
14.720,-0.024
14.725,-0.131
14.730,0.000
14.735,0.037
14.740,-0.110
14.745,-0.064
14.750,0.047
14.755,-0.062
14.760,-0.112
14.765,0.016
14.770,-0.018
14.775,-0.112
14.780,0.004
14.785,0.033
14.790,-0.103
14.795,-0.058
14.800,0.051
14.805,-0.041
14.810,-0.084
14.815,0.025
14.820,-0.028
14.825,-0.126
14.830,-0.002
14.835,0.045
14.840,-0.086
14.845,-0.060
14.850,0.008
14.855,-0.126
14.860,-0.157
14.865,-0.007
14.870,-0.052
14.875,-0.197
14.880,-0.136
14.885,-0.096
14.890,-0.187
14.895,-0.118
14.900,0.003
14.905,-0.083
14.910,-0.096
14.915,0.080
14.920,0.067
14.925,-0.038
14.930,0.076
14.935,0.136
14.940,0.016
14.945,0.052
14.950,0.143
14.955,0.029
14.960,-0.001
14.965,0.142
14.970,0.097
14.975,-0.014
14.980,0.090
14.985,0.121
14.990,-0.016
14.995,0.012
15.000,0.089
15.005,-0.048
15.010,-0.158
15.015,-0.162
15.020,-0.358
15.025,-0.536
15.030,-0.361
15.035,-0.232
15.040,-0.433
15.045,-0.607
15.050,-0.717
15.055,-0.951
15.060,-0.938
15.065,-0.616
15.070,-0.522
15.075,-0.528
15.080,-0.216
15.085,0.082
15.090,0.151
15.095,0.327
15.100,0.518
15.105,0.425
15.110,0.349
15.115,0.471
15.120,0.445
15.125,0.349
15.130,0.465
15.135,0.511
15.140,0.360
15.145,0.382
15.150,0.485
15.155,0.357
15.160,0.303
15.165,0.431
15.170,0.367
15.175,0.237
15.180,0.331
15.185,0.356
15.190,0.199
15.195,0.225
15.200,0.325
15.205,0.195
15.210,0.137
15.215,0.278
15.220,0.229
15.225,0.093
15.230,0.183
15.235,0.213
15.240,0.074
15.245,0.113
15.250,0.206
15.255,0.089
15.260,0.048
15.265,0.173
15.270,0.119
15.275,0.005
15.280,0.118
15.285,0.155
15.290,0.004
15.295,0.049
15.300,0.165
15.305,0.046
15.310,0.000
15.315,0.150
15.320,0.112
15.325,-0.019
15.330,0.082
15.335,0.127
15.340,-0.025
15.345,0.007
15.350,0.106
15.355,-0.040
15.360,-0.106
15.365,0.021
15.370,-0.048
15.375,-0.193
15.380,-0.090
15.385,-0.053
15.390,-0.209
15.395,-0.166
15.400,-0.041
15.405,-0.151
15.410,-0.192
15.415,-0.041
15.420,-0.082
15.425,-0.196
15.430,-0.069
15.435,-0.026
15.440,-0.175
15.445,-0.113
15.450,0.003
15.455,-0.145
15.460,-0.168
15.465,0.018
15.470,-0.050
15.475,-0.181
15.480,-0.041
15.485,-0.005
15.490,-0.160
15.495,-0.087
15.500,0.029
15.505,-0.122
15.510,-0.157
15.515,0.014
15.520,-0.043
15.525,-0.162
15.530,-0.026
15.535,0.006
15.540,-0.146
15.545,-0.076
15.550,0.047
15.555,-0.083
15.560,-0.124
15.565,0.027
15.570,-0.026
15.575,-0.147
15.580,-0.016
15.585,0.039
15.590,-0.113
15.595,-0.071
15.600,0.051
15.605,-0.063
15.610,-0.102
15.615,0.047
15.620,-0.008
15.625,-0.135
15.630,-0.004
15.635,0.054
15.640,-0.097
15.645,-0.046
15.650,0.079
15.655,-0.049
15.660,-0.096
15.665,0.057
15.670,0.002
15.675,-0.135
15.680,-0.020
15.685,0.006
15.690,-0.167
15.695,-0.103
15.700,0.027
15.705,-0.136
15.710,-0.217
15.715,-0.072
15.720,-0.109
15.725,-0.206
15.730,-0.052
15.735,0.022
15.740,-0.104
15.745,-0.037
15.750,0.099
15.755,-0.002
15.760,-0.033
15.765,0.126
15.770,0.104
15.775,-0.007
15.780,0.101
15.785,0.147
15.790,0.004
15.795,0.043
15.800,0.157
15.805,0.039
15.810,-0.011
15.815,0.128
15.820,0.083
15.825,-0.041
15.830,0.058
15.835,0.079
15.840,-0.118
15.845,-0.190
15.850,-0.233
15.855,-0.462
15.860,-0.497
15.865,-0.266
15.870,-0.313
15.875,-0.613
15.880,-0.726
15.885,-0.808
15.890,-0.941
15.895,-0.796
15.900,-0.575
15.905,-0.588
15.910,-0.482
15.915,-0.106
15.920,0.113
15.925,0.182
15.930,0.395
15.935,0.502
15.940,0.380
15.945,0.401
15.950,0.508
15.955,0.430
15.960,0.405
15.965,0.536
15.970,0.487
15.975,0.363
15.980,0.460
15.985,0.489
15.990,0.339
15.995,0.358
16.000,0.448
16.005,0.332
16.010,0.272
16.015,0.384
16.020,0.332
16.025,0.210
16.030,0.300
16.035,0.323
16.040,0.177
16.045,0.201
16.050,0.294
16.055,0.189
16.060,0.135
16.065,0.245
16.070,0.194
16.075,0.077
16.080,0.171
16.085,0.198
16.090,0.061
16.095,0.092
16.100,0.189
16.105,0.088
16.110,0.042
16.115,0.164
16.120,0.124
16.125,0.015
16.130,0.111
16.135,0.140
16.140,0.013
16.145,0.047
16.150,0.135
16.155,0.026
16.160,-0.026
16.165,0.085
16.170,0.040
16.175,-0.066
16.180,0.015
16.185,0.026
16.190,-0.122
16.195,-0.114
16.200,-0.031
16.205,-0.144
16.210,-0.205
16.215,-0.090
16.220,-0.133
16.225,-0.233
16.230,-0.128
16.235,-0.087
16.240,-0.207
16.245,-0.168
16.250,-0.059
16.255,-0.143
16.260,-0.173
16.265,-0.047
16.270,-0.082
16.275,-0.172
16.280,-0.071
16.285,-0.038
16.290,-0.148
16.295,-0.105
16.300,-0.010
16.305,-0.098
16.310,-0.126
16.315,-0.007
16.320,-0.042
16.325,-0.124
16.330,-0.025
16.335,0.002
16.340,-0.104
16.345,-0.062
16.350,0.018
16.355,-0.095
16.360,-0.104
16.365,0.057
16.370,-0.032
16.375,-0.152
16.380,0.013
16.385,0.036
16.390,-0.133
16.395,-0.046
16.400,0.073
16.405,-0.086
16.410,-0.103
16.415,0.073
16.420,-0.015
16.425,-0.134
16.430,0.028
16.435,0.044
16.440,-0.127
16.445,-0.035
16.450,0.088
16.455,-0.075
16.460,-0.098
16.465,0.077
16.470,-0.013
16.475,-0.131
16.480,0.037
16.485,0.058
16.490,-0.115
16.495,-0.030
16.500,0.092
16.505,-0.069
16.510,-0.091
16.515,0.087
16.520,-0.002
16.525,-0.122
16.530,0.040
16.535,0.059
16.540,-0.122
16.545,-0.059
16.550,0.033
16.555,-0.143
16.560,-0.159
16.565,0.031
16.570,-0.062
16.575,-0.215
16.580,-0.080
16.585,-0.053
16.590,-0.204
16.595,-0.095
16.600,0.060
16.605,-0.075
16.610,-0.087
16.615,0.103
16.620,0.037
16.625,-0.057
16.630,0.119
16.635,0.148
16.640,-0.011
16.645,0.076
16.650,0.192
16.655,0.030
16.660,0.011
16.665,0.186
16.670,0.090
16.675,-0.031
16.680,0.127
16.685,0.138
16.690,-0.037
16.695,0.039
16.700,0.137
16.705,-0.081
16.710,-0.210
16.715,-0.165
16.720,-0.355
16.725,-0.473
16.730,-0.269
16.735,-0.332
16.740,-0.718
16.745,-0.835
16.750,-0.796
16.755,-0.907
16.760,-0.811
16.765,-0.539
16.770,-0.554
16.775,-0.537
16.780,-0.150
16.785,0.135
16.790,0.175
16.795,0.373
16.800,0.542
16.805,0.382
16.810,0.336
16.815,0.526
16.820,0.483
16.825,0.379
16.830,0.531
16.835,0.544
16.840,0.363
16.845,0.431
16.850,0.536
16.855,0.360
16.860,0.317
16.865,0.474
16.870,0.371
16.875,0.235
16.880,0.378
16.885,0.386
16.890,0.197
16.895,0.257
16.900,0.366
16.905,0.199
16.910,0.162
16.915,0.322
16.920,0.220
16.925,0.088
16.930,0.239
16.935,0.247
16.940,0.067
16.945,0.142
16.950,0.256
16.955,0.091
16.960,0.061
16.965,0.232
16.970,0.143
16.975,0.017
16.980,0.167
16.985,0.179
16.990,0.001
16.995,0.076
17.000,0.187
17.005,0.018
17.010,-0.016
17.015,0.149
17.020,0.053
17.025,-0.080
17.030,0.063
17.035,0.067
17.040,-0.123
17.045,-0.058
17.050,0.046
17.055,-0.135
17.060,-0.186
17.065,-0.037
17.070,-0.135
17.075,-0.258
17.080,-0.107
17.085,-0.091
17.090,-0.261
17.095,-0.171
17.100,-0.039
17.105,-0.185
17.110,-0.198
17.115,-0.020
17.120,-0.102
17.125,-0.218
17.130,-0.055
17.135,-0.025
17.140,-0.188
17.145,-0.101
17.150,0.028
17.155,-0.125
17.160,-0.145
17.165,0.029
17.170,-0.059
17.175,-0.177
17.180,-0.012
17.185,0.021
17.190,-0.142
17.195,-0.058
17.200,0.068
17.205,-0.085
17.210,-0.113
17.215,0.059
17.220,-0.022
17.225,-0.140
17.230,0.017
17.235,0.040
17.240,-0.129
17.245,-0.051
17.250,0.067
17.255,-0.091
17.260,-0.113
17.265,0.059
17.270,-0.029
17.275,-0.150
17.280,0.006
17.285,0.036
17.290,-0.124
17.295,-0.045
17.300,0.074
17.305,-0.079
17.310,-0.101
17.315,0.070
17.320,-0.015
17.325,-0.136
17.330,0.021
17.335,0.053
17.340,-0.110
17.345,-0.035
17.350,0.080
17.355,-0.080
17.360,-0.103
17.365,0.075
17.370,-0.003
17.375,-0.124
17.380,0.022
17.385,0.043
17.390,-0.117
17.395,-0.030
17.400,0.090
17.405,-0.070
17.410,-0.110
17.415,0.033
17.420,-0.074
17.425,-0.203
17.430,-0.039
17.435,-0.003
17.440,-0.194
17.445,-0.159
17.450,-0.048
17.455,-0.184
17.460,-0.188
17.465,0.009
17.470,-0.037
17.475,-0.129
17.480,0.042
17.485,0.086
17.490,-0.065
17.495,0.026
17.500,0.160
17.505,0.020
17.510,0.002
17.515,0.177
17.520,0.104
17.525,-0.017
17.530,0.126
17.535,0.141
17.540,-0.037
17.545,0.035
17.550,0.159
17.555,0.006
17.560,-0.028
17.565,0.134
17.570,0.045
17.575,-0.116
17.580,-0.069
17.585,-0.182
17.590,-0.453
17.595,-0.371
17.600,-0.176
17.605,-0.359
17.610,-0.580
17.615,-0.640
17.620,-0.835
17.625,-0.923
17.630,-0.659
17.635,-0.536
17.640,-0.623
17.645,-0.403
17.650,-0.059
17.655,0.031
17.660,0.185
17.665,0.450
17.670,0.414
17.675,0.296
17.680,0.424
17.685,0.456
17.690,0.325
17.695,0.411
17.700,0.522
17.705,0.371
17.710,0.347
17.715,0.497
17.720,0.384
17.725,0.255
17.730,0.410
17.735,0.431
17.740,0.245
17.745,0.282
17.750,0.375
17.755,0.222
17.760,0.195
17.765,0.354
17.770,0.258
17.775,0.122
17.780,0.254
17.785,0.261
17.790,0.084
17.795,0.158
17.800,0.278
17.805,0.114
17.810,0.068
17.815,0.215
17.820,0.129
17.825,0.019
17.830,0.163
17.835,0.174
17.840,-0.001
17.845,0.074
17.850,0.195
17.855,0.044
17.860,0.017
17.865,0.171
17.870,0.077
17.875,-0.042
17.880,0.111
17.885,0.140
17.890,-0.027
17.895,0.033
17.900,0.130
17.905,-0.033
17.910,-0.068
17.915,0.082
17.920,-0.013
17.925,-0.141
17.930,-0.015
17.935,-0.021
17.940,-0.213
17.945,-0.162
17.950,-0.054
17.955,-0.191
17.960,-0.202
17.965,-0.042
17.970,-0.121
17.975,-0.219
17.980,-0.058
17.985,-0.029
17.990,-0.199
17.995,-0.125
18.000,0.006
18.005,-0.129
18.010,-0.143
18.015,0.018
18.020,-0.067
18.025,-0.173
18.030,-0.007
18.035,0.026
18.040,-0.138
18.045,-0.063
18.050,0.059
18.055,-0.078
18.060,-0.105
18.065,0.038
18.070,-0.020
18.075,-0.130
18.080,-0.022
18.085,0.026
18.090,-0.102
18.095,-0.055
18.100,0.052
18.105,-0.076
18.110,-0.114
18.115,0.028
18.120,-0.008
18.125,-0.098
18.130,0.007
18.135,0.039
18.140,-0.103
18.145,-0.072
18.150,0.046
18.155,-0.047
18.160,-0.077
18.165,0.041
18.170,-0.011
18.175,-0.107
18.180,-0.007
18.185,0.033
18.190,-0.095
18.195,-0.056
18.200,0.055
18.205,-0.049
18.210,-0.079
18.215,0.039
18.220,-0.019
18.225,-0.112
18.230,0.002
18.235,0.053
18.240,-0.071
18.245,-0.039
18.250,0.060
18.255,-0.062
18.260,-0.121
18.265,-0.011
18.270,-0.064
18.275,-0.153
18.280,-0.041
18.285,-0.006
18.290,-0.175
18.295,-0.182
18.300,-0.089
18.305,-0.181
18.310,-0.157
18.315,0.019
18.320,-0.016
18.325,-0.103
18.330,0.016
18.335,0.082
18.340,-0.027
18.345,0.023
18.350,0.153
18.355,0.057
18.360,0.016
18.365,0.138
18.370,0.098
18.375,-0.001
18.380,0.099
18.385,0.146
18.390,0.000
18.395,0.025
18.400,0.139
18.405,0.021
18.410,-0.031
18.415,0.092
18.420,0.017
18.425,-0.156
18.430,-0.171
18.435,-0.280
18.440,-0.521
18.445,-0.453
18.450,-0.241
18.455,-0.368
18.460,-0.582
18.465,-0.667
18.470,-0.842
18.475,-0.929
18.480,-0.705
18.485,-0.524
18.490,-0.524
18.495,-0.330
18.500,-0.015
18.505,0.103
18.510,0.235
18.515,0.459
18.520,0.454
18.525,0.336
18.530,0.422
18.535,0.481
18.540,0.367
18.545,0.410
18.550,0.513
18.555,0.403
18.560,0.368
18.565,0.477
18.570,0.413
18.575,0.291
18.580,0.368
18.585,0.392
18.590,0.249
18.595,0.285
18.600,0.369
18.605,0.232
18.610,0.199
18.615,0.324
18.620,0.258
18.625,0.135
18.630,0.216
18.635,0.240
18.640,0.110
18.645,0.154
18.650,0.239
18.655,0.113
18.660,0.076
18.665,0.190
18.670,0.137
18.675,0.032
18.680,0.120
18.685,0.150
18.690,0.029
18.695,0.083
18.700,0.177
18.705,0.048
18.710,0.014
18.715,0.138
18.720,0.078
18.725,-0.025
18.730,0.086
18.735,0.138
18.740,0.005
18.745,0.034
18.750,0.131
18.755,-0.001
18.760,-0.046
18.765,0.084
18.770,0.018
18.775,-0.115
18.780,-0.034
18.785,-0.018
18.790,-0.176
18.795,-0.145
18.800,-0.049
18.805,-0.174
18.810,-0.195
18.815,-0.058
18.820,-0.111
18.825,-0.205
18.830,-0.091
18.835,-0.045
18.840,-0.172
18.845,-0.126
18.850,-0.015
18.855,-0.119
18.860,-0.139
18.865,-0.021
18.870,-0.079
18.875,-0.162
18.880,-0.051
18.885,-0.012
18.890,-0.133
18.895,-0.098
18.900,-0.008
18.905,-0.113
18.910,-0.132
18.915,-0.016
18.920,-0.059
18.925,-0.138
18.930,-0.046
18.935,-0.012
18.940,-0.122
18.945,-0.078
18.950,0.017
18.955,-0.081
18.960,-0.104
18.965,0.003
18.970,-0.041
18.975,-0.116
18.980,-0.022
18.985,0.012
18.990,-0.100
18.995,-0.061
19.000,0.030
19.005,-0.067
19.010,-0.090
19.015,0.016
19.020,-0.030
19.025,-0.103
19.030,0.001
19.035,0.033
19.040,-0.083
19.045,-0.043
19.050,0.042
19.055,-0.055
19.060,-0.068
19.065,0.042
19.070,-0.003
19.075,-0.077
19.080,0.014
19.085,0.035
19.090,-0.082
19.095,-0.039
19.100,0.053
19.105,-0.042
19.110,-0.072
19.115,0.013
19.120,-0.060
19.125,-0.153
19.130,-0.054
19.135,-0.020
19.140,-0.149
19.145,-0.143
19.150,-0.079
19.155,-0.170
19.160,-0.160
19.165,-0.017
19.170,-0.032
19.175,-0.087
19.180,0.018
19.185,0.056
19.190,-0.029
19.195,0.028
19.200,0.110
19.205,0.034
19.210,0.039
19.215,0.141
19.220,0.089
19.225,0.012
19.230,0.096
19.235,0.116
19.240,0.012
19.245,0.058
19.250,0.128
19.255,0.025
19.260,0.015
19.265,0.101
19.270,0.021
19.275,-0.095
19.280,-0.111
19.285,-0.243
19.290,-0.470
19.295,-0.431
19.300,-0.269
19.305,-0.357
19.310,-0.538
19.315,-0.663
19.320,-0.847
19.325,-0.929
19.330,-0.741
19.335,-0.596
19.340,-0.603
19.345,-0.418
19.350,-0.126
19.355,0.015
19.360,0.181
19.365,0.400
19.370,0.437
19.375,0.378
19.380,0.441
19.385,0.473
19.390,0.400
19.395,0.465
19.400,0.547
19.405,0.440
19.410,0.399
19.415,0.485
19.420,0.434
19.425,0.340
19.430,0.413
19.435,0.432
19.440,0.299
19.445,0.316
19.450,0.394
19.455,0.285
19.460,0.238
19.465,0.338
19.470,0.290
19.475,0.180
19.480,0.256
19.485,0.284
19.490,0.153
19.495,0.174
19.500,0.254
19.505,0.149
19.510,0.109
19.515,0.216
19.520,0.174
19.525,0.064
19.530,0.143
19.535,0.180
19.540,0.055
19.545,0.085
19.550,0.172
19.555,0.071
19.560,0.038
19.565,0.148
19.570,0.111
19.575,0.012
19.580,0.094
19.585,0.125
19.590,-0.005
19.595,0.023
19.600,0.106
19.605,-0.004
19.610,-0.053
19.615,0.038
19.620,-0.014
19.625,-0.128
19.630,-0.065
19.635,-0.049
19.640,-0.186
19.645,-0.165
19.650,-0.085
19.655,-0.185
19.660,-0.217
19.665,-0.105
19.670,-0.133
19.675,-0.218
19.680,-0.124
19.685,-0.082
19.690,-0.192
19.695,-0.145
19.700,-0.047
19.705,-0.135
19.710,-0.160
19.715,-0.049
19.720,-0.080
19.725,-0.163
19.730,-0.069
19.735,-0.023
19.740,-0.130
19.745,-0.091
19.750,-0.001
19.755,-0.092
19.760,-0.117
19.765,-0.006
19.770,-0.036
19.775,-0.120
19.780,-0.029
19.785,0.009
19.790,-0.103
19.795,-0.064
19.800,0.026
19.805,-0.066
19.810,-0.093
19.815,0.018
19.820,-0.013
19.825,-0.101
19.830,-0.017
19.835,0.015
19.840,-0.092
19.845,-0.048
19.850,0.034
19.855,-0.058
19.860,-0.084
19.865,0.018
19.870,-0.014
19.875,-0.099
19.880,-0.011
19.885,0.026
19.890,-0.085
19.895,-0.046
19.900,0.041
19.905,-0.050
19.910,-0.075
19.915,0.028
19.920,-0.004
19.925,-0.085
19.930,-0.002
19.935,0.031
19.940,-0.073
19.945,-0.033
19.950,0.044
19.955,-0.046
19.960,-0.067
19.965,0.035
19.970,0.002
19.975,-0.080
19.980,0.001
19.985,0.024
19.990,-0.101
19.995,-0.093
20.000,-0.035
20.005,-0.114
20.010,-0.120
20.015,-0.024
20.020,-0.090
20.025,-0.196
20.030,-0.102
20.035,-0.056
20.040,-0.143
20.045,-0.069
20.050,0.039
20.055,-0.035
20.060,-0.047
20.065,0.072
20.070,0.066
20.075,0.001
20.080,0.094
20.085,0.133
20.090,0.030
20.095,0.068
20.100,0.148
20.105,0.062
20.110,0.036
20.115,0.125
20.120,0.087
20.125,0.007
20.130,0.086
20.135,0.108
20.140,-0.006
20.145,0.007
20.150,0.024
20.155,-0.167
20.160,-0.322
20.165,-0.328
20.170,-0.363
20.175,-0.401
20.180,-0.397
20.185,-0.579
20.190,-0.875
20.195,-0.914
20.200,-0.793
20.205,-0.750
20.210,-0.671
20.215,-0.504
20.220,-0.395
20.225,-0.241
20.230,0.097
20.235,0.318
20.240,0.327
20.245,0.413
20.250,0.484
20.255,0.387
20.260,0.380
20.265,0.511
20.270,0.501
20.275,0.426
20.280,0.499
20.285,0.508
20.290,0.395
20.295,0.420
20.300,0.470
20.305,0.373
20.310,0.339
20.315,0.409
20.320,0.354
20.325,0.265
20.330,0.330
20.335,0.337
20.340,0.230
20.345,0.258
20.350,0.308
20.355,0.218
20.360,0.188
20.365,0.260
20.370,0.210
20.375,0.131
20.380,0.201
20.385,0.209
20.390,0.105
20.395,0.133
20.400,0.184
20.405,0.100
20.410,0.081
20.415,0.161
20.420,0.120
20.425,0.049
20.430,0.121
20.435,0.127
20.440,0.033
20.445,0.070
20.450,0.122
20.455,0.037
20.460,0.006
20.465,0.071
20.470,0.023
20.475,-0.046
20.480,0.021
20.485,0.014
20.490,-0.094
20.495,-0.076
20.500,-0.046
20.505,-0.143
20.510,-0.174
20.515,-0.108
20.520,-0.153
20.525,-0.213
20.530,-0.129
20.535,-0.116
20.540,-0.202
20.545,-0.156
20.550,-0.085
20.555,-0.141
20.560,-0.142
20.565,-0.061
20.570,-0.100
20.575,-0.152
20.580,-0.062
20.585,-0.045
20.590,-0.129
20.595,-0.087
20.600,-0.027
20.605,-0.103
20.610,-0.116
20.615,-0.027
20.620,-0.052
20.625,-0.101
20.630,-0.026
20.635,-0.019
20.640,-0.098
20.645,-0.054
20.650,0.007
20.655,-0.057
20.660,-0.064
20.665,0.009
20.670,-0.037
20.675,-0.089
20.680,-0.010
20.685,-0.002
20.690,-0.077
20.695,-0.035
20.700,0.011
20.705,-0.063
20.710,-0.064
20.715,0.012
20.720,-0.036
20.725,-0.070
20.730,0.020
20.735,0.008
20.740,-0.083
20.745,-0.036
20.750,0.018
20.755,-0.058
20.760,-0.062
20.765,0.015
20.770,-0.032
20.775,-0.076
20.780,0.012
20.785,0.016
20.790,-0.067
20.795,-0.027
20.800,0.020
20.805,-0.054
20.810,-0.044
20.815,0.038
20.820,-0.024
20.825,-0.075
20.830,0.010
20.835,0.006
20.840,-0.076
20.845,-0.026
20.850,0.025
20.855,-0.064
20.860,-0.080
20.865,-0.016
20.870,-0.082
20.875,-0.132
20.880,-0.050
20.885,-0.059
20.890,-0.159
20.895,-0.144
20.900,-0.108
20.905,-0.165
20.910,-0.126
20.915,-0.006
20.920,-0.024
20.925,-0.048
20.930,0.037
20.935,0.040
20.940,-0.011
20.945,0.065
20.950,0.128
20.955,0.052
20.960,0.047
20.965,0.123
20.970,0.075
20.975,0.034
20.980,0.110
20.985,0.100
20.990,0.018
20.995,0.065
21.000,0.104
21.005,0.020
21.010,0.033
21.015,0.088
21.020,-0.027
21.025,-0.159
21.030,-0.213
21.035,-0.343
21.040,-0.437
21.045,-0.312
21.050,-0.252
21.055,-0.494
21.060,-0.719
21.065,-0.783
21.070,-0.856
21.075,-0.799
21.080,-0.596
21.085,-0.519
21.090,-0.468
21.095,-0.211
21.100,0.063
21.105,0.182
21.110,0.321
21.115,0.460
21.120,0.406
21.125,0.347
21.130,0.433
21.135,0.458
21.140,0.399
21.145,0.434
21.150,0.457
21.155,0.371
21.160,0.385
21.165,0.454
21.170,0.375
21.175,0.329
21.180,0.393
21.185,0.353
21.190,0.269
21.195,0.312
21.200,0.329
21.205,0.237
21.210,0.250
21.215,0.299
21.220,0.207
21.225,0.164
21.230,0.243
21.235,0.226
21.240,0.137
21.245,0.166
21.250,0.197
21.255,0.112
21.260,0.117
21.265,0.179
21.270,0.105
21.275,0.073
21.280,0.151
21.285,0.122
21.290,0.047
21.295,0.106
21.300,0.130
21.305,0.029
21.310,0.050
21.315,0.129
21.320,0.061
21.325,0.029
21.330,0.100
21.335,0.072
21.340,0.005
21.345,0.056
21.350,0.069
21.355,-0.025
21.360,-0.006
21.365,0.044
21.370,-0.059
21.375,-0.103
21.380,-0.036
21.385,-0.095
21.390,-0.185
21.395,-0.121
21.400,-0.095
21.405,-0.196
21.410,-0.169
21.415,-0.080
21.420,-0.146
21.425,-0.171
21.430,-0.088
21.435,-0.110
21.440,-0.159
21.445,-0.071
21.450,-0.041
21.455,-0.138
21.460,-0.109
21.465,-0.038
21.470,-0.103
21.475,-0.108
21.480,-0.025
21.485,-0.062
21.490,-0.120
21.495,-0.044
21.500,-0.018
21.505,-0.104
21.510,-0.066
21.515,-0.005
21.520,-0.094
21.525,-0.098
21.530,0.010
21.535,-0.022
21.540,-0.104
21.545,-0.036
21.550,0.003
21.555,-0.074
21.560,-0.040
21.565,0.016
21.570,-0.076
21.575,-0.090
21.580,0.012
21.585,-0.006
21.590,-0.076
21.595,-0.030
21.600,-0.013
21.605,-0.087
21.610,-0.031
21.615,0.043
21.620,-0.063
21.625,-0.080
21.630,0.029
21.635,-0.023
21.640,-0.105
21.645,-0.008
21.650,0.029
21.655,-0.077
21.660,-0.048
21.665,0.029
21.670,-0.039
21.675,-0.049
21.680,0.024
21.685,-0.023
21.690,-0.084
21.695,-0.004
21.700,0.014
21.705,-0.095
21.710,-0.079
21.715,-0.023
21.720,-0.112
21.725,-0.131
21.730,-0.054
21.735,-0.127
21.740,-0.217
21.745,-0.109
21.750,-0.048
21.755,-0.126
21.760,-0.061
21.765,0.032
21.770,-0.049
21.775,-0.053
21.780,0.078
21.785,0.078
21.790,0.018
21.795,0.102
21.800,0.120
21.805,0.014
21.810,0.064
21.815,0.135
21.820,0.028
21.825,0.007
21.830,0.114
21.835,0.076
21.840,-0.009
21.845,0.074
21.850,0.098
21.855,-0.024
21.860,-0.002
21.865,0.022
21.870,-0.191
21.875,-0.363
21.880,-0.391
21.885,-0.451
21.890,-0.423
21.895,-0.283
21.900,-0.400
21.905,-0.747
21.910,-0.880
21.915,-0.836
21.920,-0.819
21.925,-0.688
21.930,-0.465
21.935,-0.357
21.940,-0.229
21.945,0.098
21.950,0.320
21.955,0.332
21.960,0.450
21.965,0.535
21.970,0.389
21.975,0.356
21.980,0.490
21.985,0.459
21.990,0.379
21.995,0.476
22.000,0.490
22.005,0.357
22.010,0.389
22.015,0.456
22.020,0.337
22.025,0.299
22.030,0.396
22.035,0.339
22.040,0.234
22.045,0.307
22.050,0.321
22.055,0.200
22.060,0.237
22.065,0.302
22.070,0.185
22.075,0.148
22.080,0.238
22.085,0.186
22.090,0.106
22.095,0.190
22.100,0.191
22.105,0.064
22.110,0.117
22.115,0.198
22.120,0.083
22.125,0.051
22.130,0.156
22.135,0.108
22.140,0.021
22.145,0.112
22.150,0.132
22.155,0.017
22.160,0.066
22.165,0.141
22.170,0.033
22.175,0.011
22.180,0.117
22.185,0.064
22.190,-0.028
22.195,0.060
22.200,0.070
22.205,-0.062
22.210,-0.029
22.215,0.037
22.220,-0.090
22.225,-0.138
22.230,-0.053
22.235,-0.116
22.240,-0.203
22.245,-0.108
22.250,-0.090
22.255,-0.204
22.260,-0.150
22.265,-0.060
22.270,-0.152
22.275,-0.162
22.280,-0.043
22.285,-0.087
22.290,-0.171
22.295,-0.068
22.300,-0.036
22.305,-0.153
22.310,-0.099
22.315,-0.006
22.320,-0.108
22.325,-0.127
22.330,-0.010
22.335,-0.060
22.340,-0.142
22.345,-0.033
22.350,-0.004
22.355,-0.119
22.360,-0.070
22.365,0.011
22.370,-0.094
22.375,-0.107
22.380,0.007
22.385,-0.049
22.390,-0.125
22.395,-0.012
22.400,0.005
22.405,-0.116
22.410,-0.058
22.415,0.030
22.420,-0.080
22.425,-0.097
22.430,0.025
22.435,-0.024
22.440,-0.108
22.445,-0.003
22.450,0.023
22.455,-0.093
22.460,-0.040
22.465,0.040
22.470,-0.067
22.475,-0.076
22.480,0.044
22.485,-0.008
22.490,-0.091
22.495,0.015
22.500,0.033
22.505,-0.086
22.510,-0.026
22.515,0.060
22.520,-0.049
22.525,-0.065
22.530,0.051
22.535,-0.006
22.540,-0.089
22.545,0.019
22.550,0.041
22.555,-0.079
22.560,-0.039
22.565,0.020
22.570,-0.112
22.575,-0.130
22.580,-0.004
22.585,-0.077
22.590,-0.199
22.595,-0.107
22.600,-0.079
22.605,-0.188
22.610,-0.101
22.615,0.021
22.620,-0.066
22.625,-0.064
22.630,0.073
22.635,0.038
22.640,-0.029
22.645,0.088
22.650,0.120
22.655,0.013
22.660,0.073
22.665,0.152
22.670,0.037
22.675,0.020
22.680,0.138
22.685,0.086
22.690,0.000
22.695,0.099
22.700,0.110
22.705,-0.015
22.710,0.039
22.715,0.102
22.720,-0.059
22.725,-0.171
22.730,-0.193
22.735,-0.370
22.740,-0.469
22.745,-0.303
22.750,-0.318
22.755,-0.630
22.760,-0.790
22.765,-0.816
22.770,-0.910
22.775,-0.811
22.780,-0.581
22.785,-0.558
22.790,-0.503
22.795,-0.166
22.800,0.100
22.805,0.170
22.810,0.348
22.815,0.496
22.820,0.396
22.825,0.365
22.830,0.488
22.835,0.465
22.840,0.407
22.845,0.517
22.850,0.522
22.855,0.385
22.860,0.436
22.865,0.508
22.870,0.374
22.875,0.341
22.880,0.445
22.885,0.367
22.890,0.268
22.895,0.365
22.900,0.366
22.905,0.228
22.910,0.278
22.915,0.345
22.920,0.209
22.925,0.183
22.930,0.301
22.935,0.229
22.940,0.126
22.945,0.227
22.950,0.230
22.955,0.093
22.960,0.150
22.965,0.228
22.970,0.102
22.975,0.083
22.980,0.198
22.985,0.129
22.990,0.040
22.995,0.150
23.000,0.163
23.005,0.032
23.010,0.086
23.015,0.163
23.020,0.037
23.025,0.013
23.030,0.125
23.035,0.055
23.040,-0.043
23.045,0.055
23.050,0.059
23.055,-0.084
23.060,-0.048
23.065,0.016
23.070,-0.119
23.075,-0.161
23.080,-0.072
23.085,-0.150
23.090,-0.242
23.095,-0.147
23.100,-0.131
23.105,-0.240
23.110,-0.184
23.115,-0.092
23.120,-0.187
23.125,-0.195
23.130,-0.074
23.135,-0.118
23.140,-0.185
23.145,-0.083
23.150,-0.054
23.155,-0.156
23.160,-0.113
23.165,-0.021
23.170,-0.108
23.175,-0.128
23.180,-0.012
23.185,-0.054
23.190,-0.130
23.195,-0.042
23.200,-0.015
23.205,-0.106
23.210,-0.075
23.215,0.014
23.220,-0.063
23.225,-0.101
23.230,0.014
23.235,-0.013
23.240,-0.097
23.245,-0.014
23.250,0.018
23.255,-0.080
23.260,-0.063
23.265,0.029
23.270,-0.041
23.275,-0.094
23.280,0.022
23.285,0.000
23.290,-0.101
23.295,-0.012
23.300,0.025
23.305,-0.080
23.310,-0.052
23.315,0.035
23.320,-0.045
23.325,-0.092
23.330,0.023
23.335,-0.002
23.340,-0.104
23.345,-0.010
23.350,0.035
23.355,-0.075
23.360,-0.034
23.365,0.049
23.370,-0.052
23.375,-0.081
23.380,0.035
23.385,-0.001
23.390,-0.089
23.395,0.002
23.400,0.030
23.405,-0.080
23.410,-0.030
23.415,0.059
23.420,-0.044
23.425,-0.077
23.430,0.012
23.435,-0.055
23.440,-0.145
23.445,-0.053
23.450,-0.019
23.455,-0.153
23.460,-0.156
23.465,-0.060
23.470,-0.139
23.475,-0.165
23.480,-0.017
23.485,-0.013
23.490,-0.085
23.495,0.007
23.500,0.069
23.505,-0.007
23.510,0.024
23.515,0.134
23.520,0.067
23.525,0.017
23.530,0.131
23.535,0.108
23.540,0.015
23.545,0.096
23.550,0.129
23.555,0.023
23.560,0.038
23.565,0.128
23.570,0.041
23.575,-0.018
23.580,0.090
23.585,0.029
23.590,-0.146
23.595,-0.165
23.600,-0.256
23.605,-0.426
23.610,-0.352
23.615,-0.249
23.620,-0.472
23.625,-0.725
23.630,-0.764
23.635,-0.849
23.640,-0.852
23.645,-0.622
23.650,-0.534
23.655,-0.544
23.660,-0.296
23.665,0.032
23.670,0.170
23.675,0.303
23.680,0.485
23.685,0.451
23.690,0.348
23.695,0.433
23.700,0.469
23.705,0.385
23.710,0.430
23.715,0.492
23.720,0.412
23.725,0.396
23.730,0.460
23.735,0.387
23.740,0.310
23.745,0.391
23.750,0.402
23.755,0.283
23.760,0.298
23.765,0.348
23.770,0.255
23.775,0.227
23.780,0.295
23.785,0.243
23.790,0.166
23.795,0.227
23.800,0.254
23.805,0.144
23.810,0.139
23.815,0.225
23.820,0.150
23.825,0.099
23.830,0.191
23.835,0.148
23.840,0.041
23.845,0.122
23.850,0.175
23.855,0.050
23.860,0.034
23.865,0.145
23.870,0.089
23.875,0.029
23.880,0.135
23.885,0.089
23.890,-0.036
23.895,0.061
23.900,0.109
23.905,-0.035
23.910,-0.037
23.915,0.055
23.920,-0.048
23.925,-0.101
23.930,0.023
23.935,-0.057
23.940,-0.203
23.945,-0.092
23.950,-0.055
23.955,-0.203
23.960,-0.169
23.965,-0.068
23.970,-0.179
23.975,-0.188
23.980,-0.033
23.985,-0.098
23.990,-0.196
23.995,-0.053
24.000,-0.027
24.005,-0.158
24.010,-0.082
24.015,0.011
24.020,-0.108
24.025,-0.104
24.030,0.035
24.035,-0.041
24.040,-0.125
24.045,0.008
24.050,0.017
24.055,-0.113
24.060,-0.038
24.065,0.031
24.070,-0.100
24.075,-0.085
24.080,0.044
24.085,-0.029
24.090,-0.093
24.095,0.020
24.100,0.010
24.105,-0.112
24.110,-0.036
24.115,0.048
24.120,-0.063
24.125,-0.062
24.130,0.042
24.135,-0.039
24.140,-0.096
24.145,0.021
24.150,0.018
24.155,-0.096
24.160,-0.035
24.165,0.038
24.170,-0.067
24.175,-0.071
24.180,0.029
24.185,-0.041
24.190,-0.101
24.195,0.005
24.200,0.000
24.205,-0.102
24.210,-0.024
24.215,0.050
24.220,-0.065
24.225,-0.074
24.230,0.021
24.235,-0.040
24.240,-0.084
24.245,0.015
24.250,0.003
24.255,-0.098
24.260,-0.036
24.265,0.026
24.270,-0.079
24.275,-0.088
24.280,-0.008
24.285,-0.098
24.290,-0.168
24.295,-0.081
24.300,-0.116
24.305,-0.245
24.310,-0.165
24.315,-0.060
24.320,-0.141
24.325,-0.121
24.330,0.009
24.335,-0.032
24.340,-0.069
24.345,0.057
24.350,0.065
24.355,-0.035
24.360,0.057
24.365,0.145
24.370,0.020
24.375,0.009
24.380,0.125
24.385,0.057
24.390,-0.005
24.395,0.102
24.400,0.084
24.405,-0.035
24.410,0.049
24.415,0.130
24.420,-0.004
24.425,-0.033
24.430,0.055
24.435,-0.071
24.440,-0.259
24.445,-0.300
24.450,-0.406
24.455,-0.501
24.460,-0.335
24.465,-0.268
24.470,-0.561
24.475,-0.777
24.480,-0.800
24.485,-0.873
24.490,-0.805
24.495,-0.547
24.500,-0.442
24.505,-0.414
24.510,-0.111
24.515,0.219
24.520,0.275
24.525,0.375
24.530,0.523
24.535,0.412
24.540,0.323
24.545,0.463
24.550,0.486
24.555,0.373
24.560,0.439
24.565,0.498
24.570,0.364
24.575,0.360
24.580,0.462
24.585,0.375
24.590,0.297
24.595,0.391
24.600,0.370
24.605,0.233
24.610,0.289
24.615,0.348
24.620,0.210
24.625,0.207
24.630,0.313
24.635,0.214
24.640,0.129
24.645,0.234
24.650,0.228
24.655,0.103
24.660,0.163
24.665,0.227
24.670,0.086
24.675,0.073
24.680,0.187
24.685,0.097
24.690,0.030
24.695,0.161
24.700,0.149
24.705,0.022
24.710,0.104
24.715,0.170
24.720,0.022
24.725,0.012
24.730,0.140
24.735,0.073
24.740,0.001
24.745,0.118
24.750,0.113
24.755,-0.023
24.760,0.038
24.765,0.107
24.770,-0.034
24.775,-0.046
24.780,0.055
24.785,-0.043
24.790,-0.125
24.795,-0.036
24.800,-0.065
24.805,-0.202
24.810,-0.133
24.815,-0.054
24.820,-0.186
24.825,-0.172
24.830,-0.036
24.835,-0.118
24.840,-0.176
24.845,-0.042
24.850,-0.052
24.855,-0.182
24.860,-0.093
24.865,-0.002
24.870,-0.129
24.875,-0.122
24.880,0.002
24.885,-0.079
24.890,-0.138
24.895,-0.012
24.900,-0.023
24.905,-0.150
24.910,-0.074
24.915,0.006
24.920,-0.115
24.925,-0.106
24.930,0.023
24.935,-0.062
24.940,-0.139
24.945,-0.008
24.950,-0.008
24.955,-0.135
24.960,-0.055
24.965,0.022
24.970,-0.106
24.975,-0.090
24.980,0.041
24.985,-0.046
24.990,-0.125
24.995,0.000
25.000,0.001
25.005,-0.122
25.010,-0.036
25.015,0.047
25.020,-0.089
25.025,-0.080
25.030,0.056
25.035,-0.033
25.040,-0.107
25.045,0.021
25.050,0.015
25.055,-0.112
25.060,-0.028
25.065,0.054
25.070,-0.079
25.075,-0.076
25.080,0.055
25.085,-0.028
25.090,-0.097
25.095,0.029
25.100,0.019
25.105,-0.103
25.110,-0.018
25.115,0.039
25.120,-0.125
25.125,-0.132
25.130,0.000
25.135,-0.097
25.140,-0.206
25.145,-0.102
25.150,-0.102
25.155,-0.217
25.160,-0.104
25.165,0.006
25.170,-0.112
25.175,-0.082
25.180,0.074
25.185,0.012
25.190,-0.035
25.195,0.113
25.200,0.114
25.205,-0.010
25.210,0.076
25.215,0.149
25.220,0.008
25.225,0.019
25.230,0.144
25.235,0.044
25.240,-0.031
25.245,0.106
25.250,0.106
25.255,-0.025
25.260,0.053
25.265,0.111
25.270,-0.062
25.275,-0.112
25.280,-0.096
25.285,-0.340
25.290,-0.529
25.295,-0.387
25.300,-0.299
25.305,-0.436
25.310,-0.528
25.315,-0.669
25.320,-0.940
25.325,-0.928
25.330,-0.681
25.335,-0.647
25.340,-0.617
25.345,-0.329
25.350,-0.113
25.355,0.006
25.360,0.293
25.365,0.485
25.370,0.402
25.375,0.408
25.380,0.508
25.385,0.415
25.390,0.364
25.395,0.519
25.400,0.514
25.405,0.367
25.410,0.440
25.415,0.508
25.420,0.353
25.425,0.350
25.430,0.468
25.435,0.358
25.440,0.262
25.445,0.380
25.450,0.358
25.455,0.206
25.460,0.287
25.465,0.361
25.470,0.203
25.475,0.194
25.480,0.314
25.485,0.214
25.490,0.131
25.495,0.250
25.500,0.223
25.505,0.078
25.510,0.164
25.515,0.237
25.520,0.086
25.525,0.089
25.530,0.213
25.535,0.112
25.540,0.028
25.545,0.162
25.550,0.156
25.555,0.013
25.560,0.098
25.565,0.173
25.570,0.018
25.575,0.020
25.580,0.147
25.585,0.049
25.590,-0.034
25.595,0.092
25.600,0.076
25.605,-0.071
25.610,0.006
25.615,0.066
25.620,-0.104
25.625,-0.117
25.630,-0.008
25.635,-0.125
25.640,-0.219
25.645,-0.093
25.650,-0.104
25.655,-0.242
25.660,-0.151
25.665,-0.068
25.670,-0.208
25.675,-0.188
25.680,-0.045
25.685,-0.131
25.690,-0.200
25.695,-0.056
25.700,-0.059
25.705,-0.187
25.710,-0.084
25.715,0.001
25.720,-0.145
25.725,-0.132
25.730,0.009
25.735,-0.074
25.740,-0.144
25.745,-0.005
25.750,-0.009
25.755,-0.145
25.760,-0.052
25.765,0.036
25.770,-0.101
25.775,-0.092
25.780,0.044
25.785,-0.041
25.790,-0.122
25.795,0.012
25.800,0.025
25.805,-0.112
25.810,-0.044
25.815,0.050
25.820,-0.077
25.825,-0.087
25.830,0.055
25.835,-0.010
25.840,-0.115
25.845,0.003
25.850,0.037
25.855,-0.101
25.860,-0.047
25.865,0.060
25.870,-0.061
25.875,-0.089
25.880,0.052
25.885,-0.003
25.890,-0.109
25.895,0.008
25.900,0.036
25.905,-0.098
25.910,-0.029
25.915,0.069
25.920,-0.061
25.925,-0.072
25.930,0.058
25.935,-0.019
25.940,-0.099
25.945,0.034
25.950,0.037
25.955,-0.100
25.960,-0.013
25.965,0.072
25.970,-0.073
25.975,-0.079
25.980,0.032
25.985,-0.091
25.990,-0.179
25.995,-0.017
26.000,-0.020
26.005,-0.197
26.010,-0.124
26.015,-0.038
26.020,-0.179
26.025,-0.145
26.030,0.040
26.035,-0.025
26.040,-0.105
26.045,0.055
26.050,0.072
26.055,-0.057
26.060,0.058
26.065,0.159
26.070,0.018
26.075,0.033
26.080,0.178
26.085,0.074
26.090,-0.018
26.095,0.140
26.100,0.138
26.105,-0.020
26.110,0.068
26.115,0.153
26.120,0.002
26.125,-0.008
26.130,0.112
26.135,-0.015
26.140,-0.174
26.145,-0.144
26.150,-0.282
26.155,-0.495
26.160,-0.362
26.165,-0.289
26.170,-0.595
26.175,-0.788
26.180,-0.790
26.185,-0.921
26.190,-0.905
26.195,-0.611
26.200,-0.536
26.205,-0.601
26.210,-0.321
26.215,0.013
26.220,0.106
26.225,0.287
26.230,0.526
26.235,0.456
26.240,0.337
26.245,0.479
26.250,0.512
26.255,0.384
26.260,0.482
26.265,0.571
26.270,0.409
26.275,0.395
26.280,0.534
26.285,0.425
26.290,0.310
26.295,0.455
26.300,0.448
26.305,0.261
26.310,0.325
26.315,0.423
26.320,0.258
26.325,0.220
26.330,0.368
26.335,0.274
26.340,0.135
26.345,0.274
26.350,0.296
26.355,0.112
26.360,0.173
26.365,0.287
26.370,0.121
26.375,0.078
26.380,0.244
26.385,0.165
26.390,0.030
26.395,0.181
26.400,0.210
26.405,0.026
26.410,0.093
26.415,0.215
26.420,0.056
26.425,0.017
26.430,0.179
26.435,0.101
26.440,-0.035
26.445,0.093
26.450,0.112
26.455,-0.064
26.460,-0.012
26.465,0.091
26.470,-0.064
26.475,-0.119
26.480,0.008
26.485,-0.082
26.490,-0.223
26.495,-0.109
26.500,-0.098
26.505,-0.271
26.510,-0.202
26.515,-0.080
26.520,-0.217
26.525,-0.237
26.530,-0.065
26.535,-0.124
26.540,-0.229
26.545,-0.070
26.550,-0.034
26.555,-0.195
26.560,-0.116
26.565,0.008
26.570,-0.130
26.575,-0.150
26.580,0.022
26.585,-0.048
26.590,-0.166
26.595,-0.016
26.600,0.015
26.605,-0.139
26.610,-0.064
26.615,0.046
26.620,-0.094
26.625,-0.111
26.630,0.044
26.635,-0.036
26.640,-0.138
26.645,0.015
26.650,0.037
26.655,-0.116
26.660,-0.034
26.665,0.067
26.670,-0.091
26.675,-0.101
26.680,0.067
26.685,-0.012
26.690,-0.121
26.695,0.030
26.700,0.050
26.705,-0.109
26.710,-0.023
26.715,0.084
26.720,-0.072
26.725,-0.093
26.730,0.065
26.735,-0.013
26.740,-0.115
26.745,0.036
26.750,0.043
26.755,-0.132
26.760,-0.045
26.765,0.082
26.770,-0.061
26.775,-0.080
26.780,0.075
26.785,-0.011
26.790,-0.122
26.795,0.031
26.800,0.056
26.805,-0.107
26.810,-0.040
26.815,0.059
26.820,-0.080
26.825,-0.077
26.830,0.088
26.835,-0.007
26.840,-0.130
26.845,0.004
26.850,-0.010
26.855,-0.196
26.860,-0.110
26.865,0.022
26.870,-0.124
26.875,-0.181
26.880,-0.060
26.885,-0.133
26.890,-0.219
26.895,-0.039
26.900,0.006
26.905,-0.141
26.910,-0.034
26.915,0.098
26.920,-0.021
26.925,-0.009
26.930,0.139
26.935,0.052
26.940,-0.025
26.945,0.155
26.950,0.162
26.955,-0.020
26.960,0.054
26.965,0.153
26.970,0.014
26.975,0.022
26.980,0.172
26.985,0.059
26.990,-0.057
26.995,0.108
27.000,0.110
27.005,-0.090
27.010,-0.076
27.015,-0.115
27.020,-0.410
27.025,-0.453
27.030,-0.216
27.035,-0.268
27.040,-0.518
27.045,-0.615
27.050,-0.789
27.055,-0.973
27.060,-0.773
27.065,-0.555
27.070,-0.632
27.075,-0.522
27.080,-0.167
27.085,-0.013
27.090,0.100
27.095,0.394
27.100,0.475
27.105,0.344
27.110,0.421
27.115,0.493
27.120,0.352
27.125,0.371
27.130,0.527
27.135,0.434
27.140,0.319
27.145,0.455
27.150,0.447
27.155,0.284
27.160,0.375
27.165,0.442
27.170,0.258
27.175,0.251
27.180,0.402
27.185,0.295
27.190,0.168
27.195,0.303
27.200,0.297
27.205,0.119
27.210,0.203
27.215,0.301
27.220,0.136
27.225,0.118
27.230,0.264
27.235,0.163
27.240,0.055
27.245,0.210
27.250,0.201
27.255,0.014
27.260,0.087
27.265,0.190
27.270,0.055
27.275,0.056
27.280,0.195
27.285,0.074
27.290,-0.044
27.295,0.131
27.300,0.146
27.305,-0.031
27.310,0.053
27.315,0.150
27.320,-0.007
27.325,-0.019
27.330,0.123
27.335,0.015
27.340,-0.113
27.345,0.023
27.350,0.025
27.355,-0.156
27.360,-0.093
27.365,-0.012
27.370,-0.194
27.375,-0.216
27.380,-0.058
27.385,-0.158
27.390,-0.264
27.395,-0.093
27.400,-0.076
27.405,-0.235
27.410,-0.135
27.415,-0.014
27.420,-0.154
27.425,-0.159
27.430,0.007
27.435,-0.080
27.440,-0.190
27.445,-0.016
27.450,0.019
27.455,-0.142
27.460,-0.062
27.465,0.032
27.470,-0.126
27.475,-0.134
27.480,0.045
27.485,-0.026
27.490,-0.144
27.495,0.009
27.500,0.037
27.505,-0.128
27.510,-0.050
27.515,0.067
27.520,-0.078
27.525,-0.104
27.530,0.042
27.535,-0.040
27.540,-0.138
27.545,0.019
27.550,0.043
27.555,-0.115
27.560,-0.044
27.565,0.055
27.570,-0.080
27.575,-0.087
27.580,0.073
27.585,-0.003
27.590,-0.125
27.595,0.008
27.600,0.021
27.605,-0.131
27.610,-0.024
27.615,0.094
27.620,-0.072
27.625,-0.099
27.630,0.067
27.635,-0.012
27.640,-0.130
27.645,0.024
27.650,0.046
27.655,-0.123
27.660,-0.049
27.665,0.070
27.670,-0.067
27.675,-0.099
27.680,0.049
27.685,-0.030
27.690,-0.157
27.695,-0.028
27.700,-0.014
27.705,-0.179
27.710,-0.116
27.715,-0.041
27.720,-0.213
27.725,-0.219
27.730,-0.031
27.735,-0.077
27.740,-0.163
27.745,0.000
27.750,0.048
27.755,-0.082
27.760,0.020
27.765,0.146
27.770,0.004
27.775,-0.002
27.780,0.163
27.785,0.075
27.790,-0.026
27.795,0.135
27.800,0.152
27.805,-0.016
27.810,0.060
27.815,0.162
27.820,0.001
27.825,-0.032
27.830,0.126
27.835,0.052
27.840,-0.065
27.845,0.055
27.850,-0.023
27.855,-0.323
27.860,-0.381
27.865,-0.372
27.870,-0.484
27.875,-0.397
27.880,-0.280
27.885,-0.561
27.890,-0.868
27.895,-0.826
27.900,-0.774
27.905,-0.787
27.910,-0.564
27.915,-0.332
27.920,-0.307
27.925,-0.089
27.930,0.307
27.935,0.379
27.940,0.348
27.945,0.533
27.950,0.503
27.955,0.302
27.960,0.431
27.965,0.568
27.970,0.397
27.975,0.366
27.980,0.512
27.985,0.409
27.990,0.296
27.995,0.444
28.000,0.437
28.005,0.249
28.010,0.328
28.015,0.433
28.020,0.250
28.025,0.208
28.030,0.375
28.035,0.281
28.040,0.139
28.045,0.279
28.050,0.288
28.055,0.113
28.060,0.189
28.065,0.277
28.070,0.099
28.075,0.073
28.080,0.240
28.085,0.152
28.090,0.022
28.095,0.170
28.100,0.180
28.105,0.000
28.110,0.084
28.115,0.195
28.120,0.041
28.125,0.022
28.130,0.179
28.135,0.083
28.140,-0.034
28.145,0.125
28.150,0.135
28.155,-0.036
28.160,0.050
28.165,0.154
28.170,-0.015
28.175,-0.053
28.180,0.102
28.185,0.009
28.190,-0.121
28.195,0.023
28.200,0.005
28.205,-0.200
28.210,-0.129
28.215,-0.028
28.220,-0.192
28.225,-0.216
28.230,-0.041
28.235,-0.112
28.240,-0.231
28.245,-0.069
28.250,-0.044
28.255,-0.204
28.260,-0.105
28.265,0.009
28.270,-0.145
28.275,-0.156
28.280,0.013
28.285,-0.070
28.290,-0.177
28.295,-0.013
28.300,0.002
28.305,-0.163
28.310,-0.072
28.315,0.041
28.320,-0.107
28.325,-0.120
28.330,0.042
28.335,-0.053
28.340,-0.173
28.345,-0.007
28.350,0.017
28.355,-0.152
28.360,-0.066
28.365,0.045
28.370,-0.109
28.375,-0.123
28.380,0.049
28.385,-0.034
28.390,-0.152
28.395,0.009
28.400,0.028
28.405,-0.140
28.410,-0.049
28.415,0.062
28.420,-0.095
28.425,-0.109
28.430,0.053
28.435,-0.033
28.440,-0.143
28.445,0.021
28.450,0.040
28.455,-0.127
28.460,-0.042
28.465,0.070
28.470,-0.086
28.475,-0.099
28.480,0.074
28.485,-0.011
28.490,-0.129
28.495,0.028
28.500,0.039
28.505,-0.126
28.510,-0.032
28.515,0.080
28.520,-0.078
28.525,-0.104
28.530,0.046
28.535,-0.064
28.540,-0.201
28.545,-0.042
28.550,-0.006
28.555,-0.163
28.560,-0.107
28.565,-0.041
28.570,-0.205
28.575,-0.205
28.580,-0.008
28.585,-0.050
28.590,-0.133
28.595,0.036
28.600,0.062
28.605,-0.081
28.610,0.033
28.615,0.163
28.620,0.020
28.625,0.002
28.630,0.164
28.635,0.077
28.640,-0.038
28.645,0.123
28.650,0.139
28.655,-0.029
28.660,0.054
28.665,0.163
28.670,0.009
28.675,-0.017
28.680,0.138
28.685,0.035
28.690,-0.120
28.695,-0.051
28.700,-0.180
28.705,-0.496
28.710,-0.473
28.715,-0.295
28.720,-0.387
28.725,-0.517
28.730,-0.574
28.735,-0.828
28.740,-0.991
28.745,-0.760
28.750,-0.623
28.755,-0.697
28.760,-0.494
28.765,-0.180
28.770,-0.077
28.775,0.127
28.780,0.436
28.785,0.431
28.790,0.348
28.795,0.490
28.800,0.492
28.805,0.348
28.810,0.452
28.815,0.563
28.820,0.410
28.825,0.386
28.830,0.541
28.835,0.444
28.840,0.312
28.845,0.452
28.850,0.447
28.855,0.261
28.860,0.332
28.865,0.428
28.870,0.254
28.875,0.216
28.880,0.371
28.885,0.278
28.890,0.151
28.895,0.293
28.900,0.296
28.905,0.121
28.910,0.196
28.915,0.299
28.920,0.136
28.925,0.102
28.930,0.255
28.935,0.161
28.940,0.034
28.945,0.186
28.950,0.198
28.955,0.026
28.960,0.105
28.965,0.213
28.970,0.056
28.975,0.028
28.980,0.189
28.985,0.100
28.990,-0.025
28.995,0.123
29.000,0.128
29.005,-0.050
29.010,0.027
29.015,0.129
29.020,-0.039
29.025,-0.077
29.030,0.072
29.035,-0.034
29.040,-0.174
29.045,-0.044
29.050,-0.056
29.055,-0.241
29.060,-0.169
29.065,-0.057
29.070,-0.192
29.075,-0.213
29.080,-0.075
29.085,-0.144
29.090,-0.226
29.095,-0.090
29.100,-0.074
29.105,-0.201
29.110,-0.122
29.115,-0.024
29.120,-0.143
29.125,-0.145
29.130,-0.012
29.135,-0.124
29.140,-0.224
29.145,-0.024
29.150,0.000
29.155,-0.174
29.160,-0.073
29.165,0.052
29.170,-0.105
29.175,-0.129
29.180,0.053
29.185,-0.034
29.190,-0.155
29.195,0.024
29.200,0.038
29.205,-0.135
29.210,-0.040
29.215,0.075
29.220,-0.085
29.225,-0.104
29.230,0.076
29.235,-0.015
29.240,-0.138
29.245,0.036
29.250,0.049
29.255,-0.122
29.260,-0.029
29.265,0.082
29.270,-0.077
29.275,-0.098
29.280,0.079
29.285,-0.014
29.290,-0.137
29.295,0.037
29.300,0.050
29.305,-0.121
29.310,-0.028
29.315,0.084
29.320,-0.075
29.325,-0.096
29.330,0.080
29.335,-0.010
29.340,-0.126
29.345,0.049
29.350,0.056
29.355,-0.120
29.360,-0.028
29.365,0.089
29.370,-0.068
29.375,-0.094
29.380,0.085
29.385,-0.004
29.390,-0.143
29.395,-0.004
29.400,-0.021
29.405,-0.197
29.410,-0.090
29.415,0.032
29.420,-0.144
29.425,-0.200
29.430,-0.033
29.435,-0.106
29.440,-0.209
29.445,-0.012
29.450,0.033
29.455,-0.118
29.460,-0.019
29.465,0.106
29.470,-0.029
29.475,-0.027
29.480,0.163
29.485,0.087
29.490,-0.027
29.495,0.140
29.500,0.150
29.505,-0.024
29.510,0.063
29.515,0.177
29.520,0.017
29.525,-0.009
29.530,0.165
29.535,0.071
29.540,-0.056
29.545,0.098
29.550,0.075
29.555,-0.170
29.560,-0.205
29.565,-0.225
29.570,-0.456
29.575,-0.454
29.580,-0.254
29.585,-0.472
29.590,-0.821
29.595,-0.819
29.600,-0.843
29.605,-0.932
29.610,-0.711
29.615,-0.502
29.620,-0.571
29.625,-0.435
29.630,-0.019
29.635,0.147
29.640,0.213
29.645,0.486
29.650,0.539
29.655,0.352
29.660,0.418
29.665,0.551
29.670,0.428
29.675,0.414
29.680,0.584
29.685,0.482
29.690,0.345
29.695,0.500
29.700,0.497
29.705,0.309
29.710,0.381
29.715,0.483
29.720,0.309
29.725,0.266
29.730,0.425
29.735,0.315
29.740,0.176
29.745,0.333
29.750,0.332
29.755,0.148
29.760,0.223
29.765,0.329
29.770,0.162
29.775,0.124
29.780,0.288
29.785,0.186
29.790,0.056
29.795,0.213
29.800,0.215
29.805,0.038
29.810,0.122
29.815,0.235
29.820,0.071
29.825,0.036
29.830,0.207
29.835,0.112
29.840,-0.016
29.845,0.142
29.850,0.145
29.855,-0.036
29.860,0.040
29.865,0.147
29.870,-0.022
29.875,-0.064
29.880,0.096
29.885,-0.012
29.890,-0.158
29.895,-0.014
29.900,-0.025
29.905,-0.222
29.910,-0.156
29.915,-0.055
29.920,-0.226
29.925,-0.260
29.930,-0.083
29.935,-0.166
29.940,-0.280
29.945,-0.102
29.950,-0.075
29.955,-0.233
29.960,-0.136
29.965,-0.006
29.970,-0.155
29.975,-0.173
29.980,0.017
29.985,-0.064
29.990,-0.185
29.995,-0.019
30.000,0.001
30.005,-0.159
30.010,-0.067
30.015,0.053
30.020,-0.104
30.025,-0.129
30.030,0.055
30.035,-0.027
30.040,-0.151
30.045,0.020
30.050,0.047
30.055,-0.132
30.060,-0.049
30.065,0.082
30.070,-0.078
30.075,-0.111
30.080,0.079
30.085,0.002
30.090,-0.133
30.095,0.029
30.100,0.056
30.105,-0.123
30.110,-0.043
30.115,0.085
30.120,-0.071
30.125,-0.107
30.130,0.072
30.135,-0.007
30.140,-0.137
30.145,0.029
30.150,0.058
30.155,-0.120
30.160,-0.043
30.165,0.081
30.170,-0.079
30.175,-0.112
30.180,0.072
30.185,-0.009
30.190,-0.145
30.195,0.016
30.200,0.044
30.205,-0.124
30.210,-0.033
30.215,0.095
30.220,-0.069
30.225,-0.108
30.230,0.073
30.235,-0.001
30.240,-0.126
30.245,0.031
30.250,0.047
30.255,-0.137
30.260,-0.074
30.265,0.030
30.270,-0.131
30.275,-0.157
30.280,0.025
30.285,-0.066
30.290,-0.227
30.295,-0.090
30.300,-0.065
30.305,-0.233
30.310,-0.125
30.315,0.053
30.320,-0.065
30.325,-0.093
30.330,0.093
30.335,0.042
30.340,-0.054
30.345,0.121
30.350,0.145
30.355,-0.033
30.360,0.055
30.365,0.202
30.370,0.050
30.375,0.000
30.380,0.168
30.385,0.088
30.390,-0.034
30.395,0.128
30.400,0.142
30.405,-0.049
30.410,0.017
30.415,0.136
30.420,-0.051
30.425,-0.172
30.430,-0.114
30.435,-0.304
30.440,-0.473
30.445,-0.263
30.450,-0.230
30.455,-0.575
30.460,-0.746
30.465,-0.752
30.470,-0.887
30.475,-0.812
30.480,-0.532
30.485,-0.552
30.490,-0.572
30.495,-0.191
30.500,0.118
30.505,0.164
30.510,0.343
30.515,0.522
30.520,0.393
30.525,0.334
30.530,0.491
30.535,0.433
30.540,0.321
30.545,0.476
30.550,0.499
30.555,0.317
30.560,0.376
30.565,0.489
30.570,0.327
30.575,0.266
30.580,0.418
30.585,0.341
30.590,0.207
30.595,0.340
30.600,0.356
30.605,0.177
30.610,0.224
30.615,0.320
30.620,0.158
30.625,0.129
30.630,0.310
30.635,0.220
30.640,0.065
30.645,0.199
30.650,0.224
30.655,0.055
30.660,0.122
30.665,0.238
30.670,0.072
30.675,0.027
30.680,0.207
30.685,0.125
30.690,-0.018
30.695,0.131
30.700,0.163
30.705,0.002
30.710,0.073
30.715,0.175
30.720,-0.011
30.725,-0.064
30.730,0.124
30.735,0.062
30.740,-0.073
30.745,0.056
30.750,0.067
30.755,-0.112
30.760,-0.057
30.765,0.045
30.770,-0.132
30.775,-0.182
30.780,-0.019
30.785,-0.128
30.790,-0.280
30.795,-0.122
30.800,-0.077
30.805,-0.238
30.810,-0.170
30.815,-0.038
30.820,-0.173
30.825,-0.188
30.830,0.006
30.835,-0.065
30.840,-0.192
30.845,-0.037
30.850,-0.001
30.855,-0.159
30.860,-0.083
30.865,0.042
30.870,-0.113
30.875,-0.147
30.880,0.050
30.885,-0.010
30.890,-0.149
30.895,-0.008
30.900,0.027
30.905,-0.126
30.910,-0.046
30.915,0.077
30.920,-0.078
30.925,-0.113
30.930,0.063
30.935,-0.015
30.940,-0.144
30.945,0.006
30.950,0.037
30.955,-0.129
30.960,-0.063
30.965,0.073
30.970,-0.059
30.975,-0.092
30.980,0.081
30.985,-0.006
30.990,-0.146
30.995,0.011
31.000,0.053
31.005,-0.111
31.010,-0.050
31.015,0.065
31.020,-0.083
31.025,-0.111
31.030,0.065
31.035,-0.012
31.040,-0.131
31.045,0.027
31.050,0.051
31.055,-0.130
31.060,-0.071
31.065,0.068
31.070,-0.054
31.075,-0.096
31.080,0.063
31.085,-0.009
31.090,-0.142
31.095,-0.009
31.100,0.013
31.105,-0.161
31.110,-0.107
31.115,0.014
31.120,-0.125
31.125,-0.174
31.130,-0.045
31.135,-0.139
31.140,-0.246
31.145,-0.074
31.150,-0.017
31.155,-0.147
31.160,-0.049
31.165,0.094
31.170,-0.038
31.175,-0.063
31.180,0.121
31.185,0.066
31.190,-0.035
31.195,0.130
31.200,0.155
31.205,-0.026
31.210,0.039
31.215,0.167
31.220,0.021
31.225,-0.029
31.230,0.141
31.235,0.086
31.240,-0.053
31.245,0.073
31.250,0.123
31.255,-0.041
31.260,-0.036
31.265,-0.019
31.270,-0.316
31.275,-0.502
31.280,-0.383
31.285,-0.351
31.290,-0.378
31.295,-0.340
31.300,-0.522
31.305,-0.870
31.310,-0.917
31.315,-0.736
31.320,-0.718
31.325,-0.634
31.330,-0.336
31.335,-0.195
31.340,-0.062
31.345,0.285
31.350,0.445
31.355,0.372
31.360,0.453
31.365,0.530
31.370,0.365
31.375,0.349
31.380,0.527
31.385,0.457
31.390,0.337
31.395,0.465
31.400,0.483
31.405,0.317
31.410,0.358
31.415,0.459
31.420,0.321
31.425,0.270
31.430,0.399
31.435,0.319
31.440,0.188
31.445,0.296
31.450,0.307
31.455,0.148
31.460,0.216
31.465,0.330
31.470,0.167
31.475,0.105
31.480,0.253
31.485,0.189
31.490,0.056
31.495,0.168
31.500,0.199
31.505,0.043
31.510,0.087
31.515,0.198
31.520,0.060
31.525,0.013
31.530,0.160
31.535,0.091
31.540,-0.020
31.545,0.119
31.550,0.151
31.555,-0.005
31.560,0.042
31.565,0.156
31.570,0.035
31.575,-0.003
31.580,0.134
31.585,0.053
31.590,-0.072
31.595,0.058
31.600,0.082
31.605,-0.086
31.610,-0.048
31.615,0.043
31.620,-0.114
31.625,-0.178
31.630,-0.049
31.635,-0.115
31.640,-0.227
31.645,-0.098
31.650,-0.058
31.655,-0.200
31.660,-0.142
31.665,-0.028
31.670,-0.155
31.675,-0.177
31.680,-0.016
31.685,-0.080
31.690,-0.188
31.695,-0.051
31.700,-0.013
31.705,-0.160
31.710,-0.101
31.715,0.025
31.720,-0.103
31.725,-0.143
31.730,0.003
31.735,-0.061
31.740,-0.164
31.745,-0.032
31.750,-0.002
31.755,-0.146
31.760,-0.085
31.765,0.029
31.770,-0.101
31.775,-0.135
31.780,0.015
31.785,-0.040
31.790,-0.143
31.795,-0.015
31.800,0.019
31.805,-0.129
31.810,-0.075
31.815,0.041
31.820,-0.082
31.825,-0.108
31.830,0.045
31.835,-0.020
31.840,-0.131
31.845,0.004
31.850,0.042
31.855,-0.109
31.860,-0.059
31.865,0.056
31.870,-0.068
31.875,-0.092
31.880,0.058
31.885,-0.008
31.890,-0.111
31.895,0.018
31.900,0.044
31.905,-0.098
31.910,-0.042
31.915,0.070
31.920,-0.050
31.925,-0.081
31.930,0.055
31.935,-0.028
31.940,-0.166
31.945,-0.060
31.950,-0.014
31.955,-0.141
31.960,-0.106
31.965,-0.032
31.970,-0.179
31.975,-0.209
31.980,-0.044
31.985,-0.068
31.990,-0.135
31.995,0.012
32.000,0.061
32.005,-0.063
32.010,0.016
32.015,0.151
32.020,0.032
32.025,0.002
32.030,0.152
32.035,0.096
32.040,-0.005
32.045,0.118
32.050,0.145
32.055,-0.002
32.060,0.050
32.065,0.158
32.070,0.033
32.075,0.001
32.080,0.135
32.085,0.064
32.090,-0.057
32.095,0.027
32.100,-0.014
32.105,-0.277
32.110,-0.376
32.115,-0.361
32.120,-0.439
32.125,-0.391
32.130,-0.323
32.135,-0.595
32.140,-0.891
32.145,-0.855
32.150,-0.769
32.155,-0.776
32.160,-0.626
32.165,-0.418
32.170,-0.352
32.175,-0.127
32.180,0.254
32.185,0.351
32.190,0.338
32.195,0.500
32.200,0.517
32.205,0.352
32.210,0.414
32.215,0.545
32.220,0.430
32.225,0.395
32.230,0.523
32.235,0.450
32.240,0.337
32.245,0.440
32.250,0.451
32.255,0.299
32.260,0.338
32.265,0.431
32.270,0.298
32.275,0.251
32.280,0.368
32.285,0.295
32.290,0.185
32.295,0.289
32.300,0.303
32.305,0.153
32.310,0.192
32.315,0.282
32.320,0.153
32.325,0.116
32.330,0.238
32.335,0.170
32.340,0.068
32.345,0.176
32.350,0.195
32.355,0.053
32.360,0.098
32.365,0.195
32.370,0.070
32.375,0.036
32.380,0.165
32.385,0.103
32.390,0.002
32.395,0.111
32.400,0.133
32.405,-0.004
32.410,0.039
32.415,0.127
32.420,-0.004
32.425,-0.040
32.430,0.078
32.435,0.000
32.440,-0.117
32.445,-0.032
32.450,-0.036
32.455,-0.191
32.460,-0.155
32.465,-0.069
32.470,-0.199
32.475,-0.229
32.480,-0.095
32.485,-0.152
32.490,-0.240
32.495,-0.120
32.500,-0.088
32.505,-0.208
32.510,-0.146
32.515,-0.043
32.520,-0.151
32.525,-0.164
32.530,-0.030
32.535,-0.086
32.540,-0.169
32.545,-0.048
32.550,-0.016
32.555,-0.143
32.560,-0.090
32.565,0.014
32.570,-0.101
32.575,-0.123
32.580,0.015
32.585,-0.040
32.590,-0.129
32.595,-0.015
32.600,0.011
32.605,-0.114
32.610,-0.056
32.615,0.046
32.620,-0.071
32.625,-0.094
32.630,0.039
32.635,-0.023
32.640,-0.116
32.645,0.000
32.650,0.027
32.655,-0.100
32.660,-0.047
32.665,0.051
32.670,-0.067
32.675,-0.087
32.680,0.044
32.685,-0.021
32.690,-0.112
32.695,0.003
32.700,0.025
32.705,-0.103
32.710,-0.046
32.715,0.057
32.720,-0.058
32.725,-0.079
32.730,0.051
32.735,-0.013
32.740,-0.105
32.745,0.010
32.750,0.034
32.755,-0.094
32.760,-0.040
32.765,0.059
32.770,-0.054
32.775,-0.074
32.780,0.053
32.785,-0.009
32.790,-0.104
32.795,-0.016
32.800,-0.029
32.805,-0.174
32.810,-0.110
32.815,0.000
32.820,-0.121
32.825,-0.171
32.830,-0.066
32.835,-0.118
32.840,-0.191
32.845,-0.059
32.850,0.001
32.855,-0.096
32.860,-0.036
32.865,0.068
32.870,-0.024
32.875,-0.016
32.880,0.127
32.885,0.076
32.890,0.001
32.895,0.114
32.900,0.133
32.905,0.010
32.910,0.061
32.915,0.148
32.920,0.029
32.925,0.012
32.930,0.136
32.935,0.070
32.940,-0.021
32.945,0.077
32.950,0.069
32.955,-0.105
32.960,-0.147
32.965,-0.188
32.970,-0.406
32.975,-0.432
32.980,-0.267
32.985,-0.385
32.990,-0.669
32.995,-0.777
33.000,-0.854
33.005,-0.935
33.010,-0.761
33.015,-0.560
33.020,-0.595
33.025,-0.490
33.030,-0.164
33.035,0.031
33.040,0.177
33.045,0.426
33.050,0.506
33.055,0.389
33.060,0.422
33.065,0.514
33.070,0.438
33.075,0.443
33.080,0.553
33.085,0.482
33.090,0.390
33.095,0.479
33.100,0.483
33.105,0.350
33.110,0.388
33.115,0.457
33.120,0.325
33.125,0.293
33.130,0.398
33.135,0.323
33.140,0.228
33.145,0.319
33.150,0.320
33.155,0.191
33.160,0.235
33.165,0.302
33.170,0.174
33.175,0.152
33.180,0.263
33.185,0.192
33.190,0.103
33.195,0.198
33.200,0.203
33.205,0.079
33.210,0.130
33.215,0.206
33.220,0.086
33.225,0.066
33.230,0.180
33.235,0.117
33.240,0.034
33.245,0.131
33.250,0.136
33.255,0.010
33.260,0.055
33.265,0.123
33.270,-0.001
33.275,-0.026
33.280,0.075
33.285,-0.002
33.290,-0.100
33.295,-0.017
33.300,-0.021
33.305,-0.162
33.310,-0.134
33.315,-0.075
33.320,-0.204
33.325,-0.225
33.330,-0.113
33.335,-0.168
33.340,-0.235
33.345,-0.123
33.350,-0.099
33.355,-0.202
33.360,-0.136
33.365,-0.046
33.370,-0.143
33.375,-0.141
33.380,-0.021
33.385,-0.076
33.390,-0.142
33.395,-0.032
33.400,-0.016
33.405,-0.121
33.410,-0.058
33.415,0.020
33.420,-0.090
33.425,-0.096
33.430,0.018
33.435,-0.040
33.440,-0.109
33.445,-0.005
33.450,0.012
33.455,-0.091
33.460,-0.032
33.465,0.044
33.470,-0.061
33.475,-0.067
33.480,0.040
33.485,-0.018
33.490,-0.087
33.495,0.012
33.500,0.023
33.505,-0.087
33.510,-0.031
33.515,0.048
33.520,-0.058
33.525,-0.065
33.530,0.040
33.535,-0.025
33.540,-0.092
33.545,0.011
33.550,0.020
33.555,-0.090
33.560,-0.036
33.565,0.037
33.570,-0.068
33.575,-0.068
33.580,0.036
33.585,-0.028
33.590,-0.088
33.595,0.018
33.600,0.024
33.605,-0.088
33.610,-0.032
33.615,0.038
33.620,-0.071
33.625,-0.072
33.630,0.039
33.635,-0.018
33.640,-0.081
33.645,0.016
33.650,0.019
33.655,-0.095
33.660,-0.056
33.665,-0.018
33.670,-0.146
33.675,-0.147
33.680,-0.026
33.685,-0.078
33.690,-0.170
33.695,-0.105
33.700,-0.104
33.705,-0.188
33.710,-0.090
33.715,0.021
33.720,-0.065
33.725,-0.063
33.730,0.054
33.735,0.027
33.740,-0.002
33.745,0.103
33.750,0.106
33.755,0.006
33.760,0.075
33.765,0.157
33.770,0.055
33.775,0.042
33.780,0.128
33.785,0.058
33.790,-0.005
33.795,0.088
33.800,0.091
33.805,-0.006
33.810,0.055
33.815,0.110
33.820,-0.037
33.825,-0.137
33.830,-0.181
33.835,-0.354
33.840,-0.408
33.845,-0.240
33.850,-0.263
33.855,-0.573
33.860,-0.769
33.865,-0.817
33.870,-0.871
33.875,-0.739
33.880,-0.536
33.885,-0.532
33.890,-0.458
33.895,-0.126
33.900,0.133
33.905,0.208
33.910,0.362
33.915,0.485
33.920,0.397
33.925,0.371
33.930,0.443
33.935,0.395
33.940,0.358
33.945,0.452
33.950,0.446
33.955,0.336
33.960,0.380
33.965,0.427
33.970,0.309
33.975,0.303
33.980,0.391
33.985,0.305
33.990,0.221
33.995,0.303
34.000,0.303
34.005,0.196
34.010,0.236
34.015,0.279
34.020,0.176
34.025,0.179
34.030,0.253
34.035,0.169
34.040,0.109
34.045,0.199
34.050,0.185
34.055,0.074
34.060,0.125
34.065,0.169
34.070,0.060
34.075,0.078
34.080,0.181
34.085,0.117
34.090,0.053
34.095,0.128
34.100,0.099
34.105,-0.010
34.110,0.066
34.115,0.126
34.120,0.017
34.125,0.017
34.130,0.097
34.135,0.020
34.140,-0.041
34.145,0.051
34.150,0.039
34.155,-0.081
34.160,-0.044
34.165,-0.006
34.170,-0.122
34.175,-0.132
34.180,-0.064
34.185,-0.149
34.190,-0.213
34.195,-0.114
34.200,-0.108
34.205,-0.207
34.210,-0.135
34.215,-0.067
34.220,-0.162
34.225,-0.139
34.230,-0.037
34.235,-0.094
34.240,-0.143
34.245,-0.052
34.250,-0.050
34.255,-0.136
34.260,-0.055
34.265,0.019
34.270,-0.085
34.275,-0.087
34.280,0.003
34.285,-0.054
34.290,-0.100
34.295,-0.007
34.300,-0.016
34.305,-0.109
34.310,-0.031
34.315,0.028
34.320,-0.077
34.325,-0.072
34.330,0.018
34.335,-0.033
34.340,-0.071
34.345,0.013
34.350,-0.012
34.355,-0.111
34.360,-0.033
34.365,0.037
34.370,-0.054
34.375,-0.048
34.380,0.027
34.385,-0.042
34.390,-0.090
34.395,0.001
34.400,-0.003
34.405,-0.084
34.410,-0.021
34.415,0.017
34.420,-0.077
34.425,-0.050
34.430,0.043
34.435,-0.022
34.440,-0.077
34.445,0.002
34.450,-0.015
34.455,-0.099
34.460,-0.014
34.465,0.038
34.470,-0.074
34.475,-0.069
34.480,0.017
34.485,-0.036
34.490,-0.066
34.495,0.007
34.500,-0.053
34.505,-0.170
34.510,-0.078
34.515,-0.006
34.520,-0.130
34.525,-0.156
34.530,-0.084
34.535,-0.148
34.540,-0.178
34.545,-0.052
34.550,-0.050
34.555,-0.131
34.560,-0.023
34.565,0.054
34.570,-0.027
34.575,0.016
34.580,0.121
34.585,0.065
34.590,0.022
34.595,0.101
34.600,0.080
34.605,0.002
34.610,0.077
34.615,0.120
34.620,0.029
34.625,0.047
34.630,0.112
34.635,0.035
34.640,0.001
34.645,0.088
34.650,0.061
34.655,-0.045
34.660,-0.048
34.665,-0.129
34.670,-0.367
34.675,-0.480
34.680,-0.409
34.685,-0.350
34.690,-0.342
34.695,-0.397
34.700,-0.643
34.705,-0.900
34.710,-0.865
34.715,-0.718
34.720,-0.664
34.725,-0.505
34.730,-0.262
34.735,-0.126
34.740,0.063
34.745,0.341
34.750,0.443
34.755,0.411
34.760,0.453
34.765,0.450
34.770,0.360
34.775,0.393
34.780,0.478
34.785,0.426
34.790,0.389
34.795,0.457
34.800,0.428
34.805,0.340
34.810,0.391
34.815,0.399
34.820,0.292
34.825,0.322
34.830,0.383
34.835,0.277
34.840,0.223
34.845,0.312
34.850,0.282
34.855,0.175
34.860,0.221
34.865,0.238
34.870,0.138
34.875,0.165
34.880,0.226
34.885,0.137
34.890,0.092
34.895,0.172
34.900,0.139
34.905,0.048
34.910,0.113
34.915,0.136
34.920,0.043
34.925,0.078
34.930,0.146
34.935,0.069
34.940,0.035
34.945,0.114
34.950,0.087
34.955,0.016
34.960,0.085
34.965,0.104
34.970,0.009
34.975,0.045
34.980,0.114
34.985,0.033
34.990,-0.001
34.995,0.075
35.000,0.031
35.005,-0.059
35.010,-0.002
35.015,-0.007
35.020,-0.135
35.025,-0.117
35.030,-0.054
35.035,-0.146
35.040,-0.184
35.045,-0.084
35.050,-0.107
35.055,-0.189
35.060,-0.107
35.065,-0.067
35.070,-0.146
35.075,-0.102
35.080,-0.033
35.085,-0.111
35.090,-0.136
35.095,-0.043
35.100,-0.072
35.105,-0.148
35.110,-0.061
35.115,-0.035
35.120,-0.144
35.125,-0.109
35.130,-0.015
35.135,-0.087
35.140,-0.127
35.145,-0.027
35.150,-0.053
35.155,-0.140
35.160,-0.046
35.165,-0.014
35.170,-0.115
35.175,-0.075
35.180,0.003
35.185,-0.082
35.190,-0.119
35.195,-0.009
35.200,-0.032
35.205,-0.121
35.210,-0.029
35.215,0.004
35.220,-0.097
35.225,-0.062
35.230,0.018
35.235,-0.051
35.240,-0.089
35.245,0.007
35.250,-0.016
35.255,-0.102
35.260,-0.011
35.265,0.022
35.270,-0.077
35.275,-0.036
35.280,0.037
35.285,-0.047
35.290,-0.083
35.295,0.024
35.300,0.003
35.305,-0.082
35.310,0.008
35.315,0.034
35.320,-0.070
35.325,-0.032
35.330,0.028
35.335,-0.085
35.340,-0.142
35.345,-0.034
35.350,-0.049
35.355,-0.144
35.360,-0.088
35.365,-0.095
35.370,-0.200
35.375,-0.146
35.380,-0.042
35.385,-0.080
35.390,-0.085
35.395,0.027
35.400,0.011
35.405,-0.043
35.410,0.083
35.415,0.117
35.420,0.014
35.425,0.059
35.430,0.133
35.435,0.050
35.440,0.016
35.445,0.123
35.450,0.095
35.455,0.004
35.460,0.093
35.465,0.113
35.470,0.005
35.475,0.043
35.480,0.111
35.485,0.017
35.490,-0.041
35.495,0.000
35.500,-0.148
35.505,-0.384
35.510,-0.405
35.515,-0.376
35.520,-0.388
35.525,-0.359
35.530,-0.475
35.535,-0.778
35.540,-0.931
35.545,-0.815
35.550,-0.730
35.555,-0.697
35.560,-0.511
35.565,-0.333
35.570,-0.196
35.575,0.092
35.580,0.340
35.585,0.366
35.590,0.399
35.595,0.504
35.600,0.438
35.605,0.352
35.610,0.472
35.615,0.503
35.620,0.401
35.625,0.438
35.630,0.496
35.635,0.403
35.640,0.362
35.645,0.448
35.650,0.392
35.655,0.292
35.660,0.370
35.665,0.370
35.670,0.257
35.675,0.288
35.680,0.341
35.685,0.244
35.690,0.203
35.695,0.291
35.700,0.241
35.705,0.150
35.710,0.232
35.715,0.236
35.720,0.129
35.725,0.164
35.730,0.219
35.735,0.125
35.740,0.092
35.745,0.191
35.750,0.143
35.755,0.054
35.760,0.144
35.765,0.151
35.770,0.048
35.775,0.090
35.780,0.155
35.785,0.066
35.790,0.034
35.795,0.132
35.800,0.084
35.805,-0.003
35.810,0.087
35.815,0.088
35.820,-0.022
35.825,0.011
35.830,0.060
35.835,-0.044
35.840,-0.091
35.845,-0.010
35.850,-0.078
35.855,-0.183
35.860,-0.102
35.865,-0.106
35.870,-0.217
35.875,-0.172
35.880,-0.104
35.885,-0.185
35.890,-0.204
35.895,-0.093
35.900,-0.126
35.905,-0.193
35.910,-0.088
35.915,-0.075
35.920,-0.167
35.925,-0.112
35.930,-0.040
35.935,-0.118
35.940,-0.134
35.945,-0.023
35.950,-0.065
35.955,-0.139
35.960,-0.035
35.965,-0.022
35.970,-0.117
35.975,-0.067
35.980,0.001
35.985,-0.079
35.990,-0.095
35.995,0.010
36.000,-0.038
36.005,-0.109
36.010,-0.003
36.015,0.001
36.020,-0.098
36.025,-0.043
36.030,0.023
36.035,-0.064
36.040,-0.080
36.045,0.026
36.050,-0.028
36.055,-0.102
36.060,0.002
36.065,0.008
36.070,-0.087
36.075,-0.034
36.080,0.030
36.085,-0.056
36.090,-0.072
36.095,0.033
36.100,-0.021
36.105,-0.095
36.110,0.005
36.115,-0.002
36.120,-0.088
36.125,-0.013
36.130,0.033
36.135,-0.060
36.140,-0.048
36.145,0.042
36.150,-0.027
36.155,-0.077
36.160,0.029
36.165,0.013
36.170,-0.081
36.175,-0.006
36.180,0.041
36.185,-0.061
36.190,-0.073
36.195,-0.017
36.200,-0.110
36.205,-0.150
36.210,-0.028
36.215,-0.059
36.220,-0.185
36.225,-0.125
36.230,-0.066
36.235,-0.145
36.240,-0.109
36.245,0.015
36.250,-0.031
36.255,-0.068
36.260,0.048
36.265,0.050
36.270,-0.016
36.275,0.075
36.280,0.131
36.285,0.043
36.290,0.055
36.295,0.142
36.300,0.070
36.305,0.017
36.310,0.115
36.315,0.097
36.320,0.008
36.325,0.075
36.330,0.110
36.335,0.004
36.340,0.005
36.345,0.073
36.350,-0.051
36.355,-0.203
36.360,-0.230
36.365,-0.344
36.370,-0.430
36.375,-0.314
36.380,-0.342
36.385,-0.640
36.390,-0.830
36.395,-0.836
36.400,-0.868
36.405,-0.794
36.410,-0.586
36.415,-0.522
36.420,-0.475
36.425,-0.196
36.430,0.097
36.435,0.220
36.440,0.366
36.445,0.509
36.450,0.436
36.455,0.369
36.460,0.478
36.465,0.491
36.470,0.418
36.475,0.484
36.480,0.517
36.485,0.410
36.490,0.412
36.495,0.487
36.500,0.399
36.505,0.334
36.510,0.420
36.515,0.382
36.520,0.273
36.525,0.331
36.530,0.359
36.535,0.247
36.540,0.250
36.545,0.324
36.550,0.237
36.555,0.184
36.560,0.276
36.565,0.236
36.570,0.135
36.575,0.200
36.580,0.228
36.585,0.117
36.590,0.126
36.595,0.210
36.600,0.129
36.605,0.078
36.610,0.174
36.615,0.141
36.620,0.047
36.625,0.117
36.630,0.147
36.635,0.043
36.640,0.057
36.645,0.136
36.650,0.051
36.655,0.000
36.660,0.091
36.665,0.052
36.670,-0.046
36.675,0.020
36.680,0.043
36.685,-0.075
36.690,-0.077
36.695,-0.013
36.700,-0.115
36.705,-0.181
36.710,-0.096
36.715,-0.134
36.720,-0.230
36.725,-0.156
36.730,-0.118
36.735,-0.213
36.740,-0.183
36.745,-0.083
36.750,-0.150
36.755,-0.178
36.760,-0.062
36.765,-0.076
36.770,-0.153
36.775,-0.068
36.780,-0.021
36.785,-0.115
36.790,-0.092
36.795,-0.003
36.800,-0.078
36.805,-0.112
36.810,-0.002
36.815,-0.024
36.820,-0.105
36.825,-0.022
36.830,0.014
36.835,-0.089
36.840,-0.062
36.845,0.033
36.850,-0.043
36.855,-0.081
36.860,0.021
36.865,-0.009
36.870,-0.091
36.875,-0.008
36.880,0.025
36.885,-0.078
36.890,-0.047
36.895,0.047
36.900,-0.036
36.905,-0.078
36.910,0.026
36.915,-0.004
36.920,-0.092
36.925,-0.012
36.930,0.026
36.935,-0.071
36.940,-0.041
36.945,0.047
36.950,-0.041
36.955,-0.080
36.960,0.031
36.965,0.004
36.970,-0.084
36.975,-0.003
36.980,0.038
36.985,-0.068
36.990,-0.054
36.995,0.029
37.000,-0.046
37.005,-0.069
37.010,0.045
37.015,0.007
37.020,-0.084
37.025,-0.004
37.030,0.026
37.035,-0.075
37.040,-0.042
37.045,0.027
37.050,-0.097
37.055,-0.151
37.060,-0.036
37.065,-0.056
37.070,-0.149
37.075,-0.098
37.080,-0.088
37.085,-0.195
37.090,-0.156
37.095,-0.040
37.100,-0.092
37.105,-0.096
37.110,0.035
37.115,0.016
37.120,-0.055
37.125,0.052
37.130,0.106
37.135,0.008
37.140,0.040
37.145,0.131
37.150,0.048
37.155,0.023
37.160,0.140
37.165,0.097
37.170,-0.002
37.175,0.089
37.180,0.121
37.185,-0.003
37.190,0.016
37.195,0.099
37.200,0.006
37.205,-0.033
37.210,0.037
37.215,-0.104
37.220,-0.335
37.225,-0.354
37.230,-0.313
37.235,-0.345
37.240,-0.343
37.245,-0.464
37.250,-0.790
37.255,-0.919
37.260,-0.756
37.265,-0.670
37.270,-0.655
37.275,-0.477
37.280,-0.301
37.285,-0.189
37.290,0.088
37.295,0.334
37.300,0.323
37.305,0.347
37.310,0.467
37.315,0.404
37.320,0.313
37.325,0.425
37.330,0.464
37.335,0.345
37.340,0.383
37.345,0.472
37.350,0.360
37.355,0.308
37.360,0.404
37.365,0.349
37.370,0.249
37.375,0.330
37.380,0.343
37.385,0.217
37.390,0.246
37.395,0.319
37.400,0.207
37.405,0.165
37.410,0.267
37.415,0.210
37.420,0.112
37.425,0.203
37.430,0.224
37.435,0.088
37.440,0.109
37.445,0.195
37.450,0.100
37.455,0.074
37.460,0.179
37.465,0.117
37.470,0.019
37.475,0.116
37.480,0.145
37.485,0.030
37.490,0.072
37.495,0.148
37.500,0.041
37.505,0.015
37.510,0.115
37.515,0.058
37.520,-0.017
37.525,0.083
37.530,0.090
37.535,-0.049
37.540,-0.018
37.545,0.064
37.550,-0.050
37.555,-0.096
37.560,-0.006
37.565,-0.076
37.570,-0.187
37.575,-0.109
37.580,-0.092
37.585,-0.210
37.590,-0.156
37.595,-0.072
37.600,-0.191
37.605,-0.204
37.610,-0.061
37.615,-0.107
37.620,-0.197
37.625,-0.080
37.630,-0.037
37.635,-0.159
37.640,-0.108
37.645,-0.004
37.650,-0.102
37.655,-0.117
37.660,0.008
37.665,-0.042
37.670,-0.139
37.675,-0.044
37.680,-0.004
37.685,-0.109
37.690,-0.058
37.695,0.031
37.700,-0.077
37.705,-0.096
37.710,0.028
37.715,-0.024
37.720,-0.121
37.725,-0.016
37.730,0.018
37.735,-0.101
37.740,-0.042
37.745,0.061
37.750,-0.054
37.755,-0.092
37.760,0.027
37.765,-0.011
37.770,-0.101
37.775,-0.012
37.780,0.015
37.785,-0.095
37.790,-0.034
37.795,0.059
37.800,-0.060
37.805,-0.085
37.810,0.045
37.815,-0.004
37.820,-0.098
37.825,0.001
37.830,0.031
37.835,-0.093
37.840,-0.047
37.845,0.053
37.850,-0.045
37.855,-0.068
37.860,0.043
37.865,-0.019
37.870,-0.130
37.875,-0.041
37.880,-0.008
37.885,-0.141
37.890,-0.103
37.895,-0.012
37.900,-0.151
37.905,-0.208
37.910,-0.087
37.915,-0.116
37.920,-0.172
37.925,-0.040
37.930,-0.001
37.935,-0.099
37.940,-0.001
37.945,0.118
37.950,0.012
37.955,-0.014
37.960,0.114
37.965,0.086
37.970,0.000
37.975,0.097
37.980,0.119
37.985,-0.009
37.990,0.049
37.995,0.140
38.000,0.019
38.005,0.009
38.010,0.132
38.015,0.053
38.020,-0.043
38.025,0.075
38.030,0.079
38.035,-0.121
38.040,-0.187
38.045,-0.240
38.050,-0.470
38.055,-0.498
38.060,-0.277
38.065,-0.285
38.070,-0.519
38.075,-0.653
38.080,-0.785
38.085,-0.932
38.090,-0.779
38.095,-0.532
38.100,-0.507
38.105,-0.394
38.110,-0.090
38.115,0.092
38.120,0.200
38.125,0.422
38.130,0.506
38.135,0.366
38.140,0.382
38.145,0.479
38.150,0.391
38.155,0.386
38.160,0.506
38.165,0.442
38.170,0.337
38.175,0.425
38.180,0.439
38.185,0.301
38.190,0.340
38.195,0.427
38.200,0.303
38.205,0.256
38.210,0.346
38.215,0.272
38.220,0.174
38.225,0.273
38.230,0.300
38.235,0.159
38.240,0.187
38.245,0.277
38.250,0.162
38.255,0.120
38.260,0.227
38.265,0.168
38.270,0.066
38.275,0.153
38.280,0.173
38.285,0.050
38.290,0.095
38.295,0.173
38.300,0.057
38.305,0.040
38.310,0.152
38.315,0.088
38.320,0.002
38.325,0.114
38.330,0.140
38.335,0.006
38.340,0.056
38.345,0.146
38.350,0.022
38.355,-0.002
38.360,0.118
38.365,0.060
38.370,-0.040
38.375,0.048
38.380,0.054
38.385,-0.102
38.390,-0.073
38.395,-0.004
38.400,-0.138
38.405,-0.163
38.410,-0.051
38.415,-0.121
38.420,-0.213
38.425,-0.103
38.430,-0.076
38.435,-0.197
38.440,-0.126
38.445,-0.024
38.450,-0.140
38.455,-0.152
38.460,-0.021
38.465,-0.071
38.470,-0.158
38.475,-0.052
38.480,-0.031
38.485,-0.158
38.490,-0.087
38.495,0.010
38.500,-0.113
38.505,-0.128
38.510,-0.002
38.515,-0.064
38.520,-0.157
38.525,-0.043
38.530,-0.010
38.535,-0.138
38.540,-0.080
38.545,0.013
38.550,-0.105
38.555,-0.113
38.560,0.019
38.565,-0.041
38.570,-0.130
38.575,-0.016
38.580,0.009
38.585,-0.122
38.590,-0.058
38.595,0.039
38.600,-0.087
38.605,-0.101
38.610,0.034
38.615,-0.024
38.620,-0.115
38.625,0.002
38.630,0.032
38.635,-0.101
38.640,-0.041
38.645,0.060
38.650,-0.064
38.655,-0.082
38.660,0.050
38.665,-0.015
38.670,-0.106
38.675,0.016
38.680,0.043
38.685,-0.092
38.690,-0.027
38.695,0.064
38.700,-0.095
38.705,-0.143
38.710,-0.013
38.715,-0.067
38.720,-0.176
38.725,-0.089
38.730,-0.079
38.735,-0.221
38.740,-0.143
38.745,0.000
38.750,-0.094
38.755,-0.090
38.760,0.069
38.765,0.023
38.770,-0.054
38.775,0.094
38.780,0.133
38.785,-0.012
38.790,0.055
38.795,0.165
38.800,0.031
38.805,0.009
38.810,0.151
38.815,0.084
38.820,-0.018
38.825,0.105
38.830,0.127
38.835,-0.028
38.840,0.033
38.845,0.136
38.850,-0.014
38.855,-0.073
38.860,-0.010
38.865,-0.209
38.870,-0.456
38.875,-0.396
38.880,-0.308
38.885,-0.394
38.890,-0.427
38.895,-0.540
38.900,-0.866
38.905,-0.953
38.910,-0.739
38.915,-0.674
38.920,-0.676
38.925,-0.437
38.930,-0.221
38.935,-0.137
38.940,0.147
38.945,0.408
38.950,0.357
38.955,0.375
38.960,0.507
38.965,0.418
38.970,0.337
38.975,0.495
38.980,0.526
38.985,0.371
38.990,0.432
38.995,0.526
39.000,0.371
39.005,0.338
39.010,0.476
39.015,0.394
39.020,0.269
39.025,0.381
39.030,0.393
39.035,0.223
39.040,0.278
39.045,0.376
39.050,0.217
39.055,0.181
39.060,0.321
39.065,0.238
39.070,0.117
39.075,0.243
39.080,0.264
39.085,0.094
39.090,0.152
39.095,0.257
39.100,0.106
39.105,0.076
39.110,0.217
39.115,0.142
39.120,0.033
39.125,0.161
39.130,0.183
39.135,0.018
39.140,0.084
39.145,0.199
39.150,0.049
39.155,0.017
39.160,0.161
39.165,0.083
39.170,-0.036
39.175,0.086
39.180,0.106
39.185,-0.062
39.190,-0.007
39.195,0.087
39.200,-0.079
39.205,-0.122
39.210,0.001
39.215,-0.096
39.220,-0.224
39.225,-0.106
39.230,-0.089
39.235,-0.256
39.240,-0.185
39.245,-0.063
39.250,-0.203
39.255,-0.217
39.260,-0.057
39.265,-0.123
39.270,-0.226
39.275,-0.081
39.280,-0.045
39.285,-0.198
39.290,-0.117
39.295,0.005
39.300,-0.138
39.305,-0.153
39.310,0.009
39.315,-0.063
39.320,-0.173
39.325,-0.026
39.330,0.012
39.335,-0.145
39.340,-0.068
39.345,0.048
39.350,-0.099
39.355,-0.116
39.360,0.041
39.365,-0.030
39.370,-0.141
39.375,0.000
39.380,0.031
39.385,-0.130
39.390,-0.053
39.395,0.063
39.400,-0.087
39.405,-0.106
39.410,0.054
39.415,-0.020
39.420,-0.133
39.425,0.008
39.430,0.037
39.435,-0.125
39.440,-0.047
39.445,0.067
39.450,-0.081
39.455,-0.097
39.460,0.061
39.465,-0.014
39.470,-0.128
39.475,0.015
39.480,0.045
39.485,-0.121
39.490,-0.042
39.495,0.077
39.500,-0.075
39.505,-0.094
39.510,0.069
39.515,-0.007
39.520,-0.121
39.525,0.025
39.530,0.053
39.535,-0.114
39.540,-0.042
39.545,0.053
39.550,-0.135
39.555,-0.173
39.560,0.004
39.565,-0.058
39.570,-0.193
39.575,-0.076
39.580,-0.056
39.585,-0.211
39.590,-0.113
39.595,0.033
39.600,-0.089
39.605,-0.093
39.610,0.081
39.615,0.015
39.620,-0.083
39.625,0.092
39.630,0.135
39.635,-0.026
39.640,0.060
39.645,0.177
39.650,0.022
39.655,0.005
39.660,0.166
39.665,0.083
39.670,-0.037
39.675,0.108
39.680,0.134
39.685,-0.042
39.690,0.029
39.695,0.137
39.700,-0.045
39.705,-0.130
39.710,-0.076
39.715,-0.271
39.720,-0.470
39.725,-0.315
39.730,-0.252
39.735,-0.518
39.740,-0.654
39.745,-0.721
39.750,-0.943
39.755,-0.904
39.760,-0.613
39.765,-0.591
39.770,-0.630
39.775,-0.343
39.780,-0.097
39.785,-0.011
39.790,0.271
39.795,0.499
39.800,0.384
39.805,0.360
39.810,0.510
39.815,0.444
39.820,0.355
39.825,0.511
39.830,0.532
39.835,0.354
39.840,0.423
39.845,0.531
39.850,0.360
39.855,0.324
39.860,0.473
39.865,0.374
39.870,0.236
39.875,0.373
39.880,0.385
39.885,0.193
39.890,0.261
39.895,0.370
39.900,0.197
39.905,0.165
39.910,0.321
39.915,0.230
39.920,0.101
39.925,0.239
39.930,0.255
39.935,0.073
39.940,0.148
39.945,0.258
39.950,0.088
39.955,0.060
39.960,0.221
39.965,0.135
39.970,0.006
39.975,0.151
39.980,0.175
39.985,-0.007
39.990,0.070
39.995,0.185
40.000,0.015
40.005,-0.014
40.010,0.145
40.015,0.053
40.020,-0.080
40.025,0.063
40.030,0.080
40.035,-0.113
40.040,-0.048
40.045,0.056
40.050,-0.129
40.055,-0.176
40.060,-0.033
40.065,-0.131
40.070,-0.265
40.075,-0.117
40.080,-0.089
40.085,-0.263
40.090,-0.170
40.095,-0.034
40.100,-0.182
40.105,-0.193
40.110,-0.010
40.115,-0.080
40.120,-0.200
40.125,-0.041
40.130,-0.001
40.135,-0.173
40.140,-0.091
40.145,0.042
40.150,-0.105
40.155,-0.123
40.160,0.050
40.165,-0.027
40.170,-0.159
40.175,-0.002
40.180,0.047
40.185,-0.124
40.190,-0.045
40.195,0.080
40.200,-0.077
40.205,-0.100
40.210,0.076
40.215,0.007
40.220,-0.120
40.225,0.033
40.230,0.072
40.235,-0.114
40.240,-0.039
40.245,0.093
40.250,-0.063
40.255,-0.090
40.260,0.085
40.265,0.009
40.270,-0.127
40.275,0.026
40.280,0.066
40.285,-0.115
40.290,-0.034
40.295,0.100
40.300,-0.057
40.305,-0.097
40.310,0.071
40.315,0.012
40.320,-0.109
40.325,0.035
40.330,0.059
40.335,-0.129
40.340,-0.043
40.345,0.102
40.350,-0.054
40.355,-0.101
40.360,0.058
40.365,-0.003
40.370,-0.120
40.375,0.040
40.380,0.068
40.385,-0.139
40.390,-0.078
40.395,0.044
40.400,-0.121
40.405,-0.158
40.410,-0.002
40.415,-0.106
40.420,-0.257
40.425,-0.091
40.430,-0.047
40.435,-0.216
40.440,-0.098
40.445,0.062
40.450,-0.079
40.455,-0.090
40.460,0.111
40.465,0.063
40.470,-0.073
40.475,0.083
40.480,0.152
40.485,-0.010
40.490,0.056
40.495,0.169
40.500,0.004
40.505,-0.030
40.510,0.160
40.515,0.105
40.520,-0.046
40.525,0.091
40.530,0.136
40.535,-0.041
40.540,0.024
40.545,0.124
40.550,-0.068
40.555,-0.145
40.560,-0.055
40.565,-0.254
40.570,-0.501
40.575,-0.329
40.580,-0.203
40.585,-0.450
40.590,-0.601
40.595,-0.670
40.600,-0.889
40.605,-0.861
40.610,-0.560
40.615,-0.527
40.620,-0.572
40.625,-0.262
40.630,0.002
40.635,0.042
40.640,0.265
40.645,0.478
40.650,0.368
40.655,0.325
40.660,0.472
40.665,0.399
40.670,0.270
40.675,0.439
40.680,0.502
40.685,0.311
40.690,0.361
40.695,0.480
40.700,0.308
40.705,0.255
40.710,0.431
40.715,0.370
40.720,0.216
40.725,0.337
40.730,0.347
40.735,0.141
40.740,0.202
40.745,0.329
40.750,0.177
40.755,0.142
40.760,0.294
40.765,0.186
40.770,0.044
40.775,0.220
40.780,0.255
40.785,0.040
40.790,0.088
40.795,0.221
40.800,0.082
40.805,0.049
40.810,0.213
40.815,0.116
40.820,-0.038
40.825,0.131
40.830,0.174
40.835,-0.017
40.840,0.054
40.845,0.177
40.850,0.023
40.855,-0.003
40.860,0.159
40.865,0.063
40.870,-0.085
40.875,0.086
40.880,0.133
40.885,-0.064
40.890,-0.003
40.895,0.100
40.900,-0.096
40.905,-0.166
40.910,-0.013
40.915,-0.097
40.920,-0.227
40.925,-0.064
40.930,-0.059
40.935,-0.275
40.940,-0.187
40.945,-0.031
40.950,-0.171
40.955,-0.192
40.960,-0.013
40.965,-0.101
40.970,-0.246
40.975,-0.064
40.980,0.002
40.985,-0.173
40.990,-0.093
40.995,0.036
41.000,-0.123
41.005,-0.149
41.010,0.039
41.015,-0.043
41.020,-0.184
41.025,-0.008
41.030,0.035
41.035,-0.153
41.040,-0.072
41.045,0.060
41.050,-0.099
41.055,-0.137
41.060,0.039
41.065,-0.018
41.070,-0.135
41.075,0.016
41.080,0.038
41.085,-0.147
41.090,-0.049
41.095,0.094
41.100,-0.084
41.105,-0.123
41.110,0.065
41.115,-0.018
41.120,-0.149
41.125,0.024
41.130,0.061
41.135,-0.126
41.140,-0.051
41.145,0.074
41.150,-0.081
41.155,-0.103
41.160,0.074
41.165,-0.007
41.170,-0.145
41.175,0.012
41.180,0.047
41.185,-0.127
41.190,-0.029
41.195,0.099
41.200,-0.091
41.205,-0.137
41.210,0.038
41.215,-0.063
41.220,-0.186
41.225,0.000
41.230,-0.001
41.235,-0.241
41.240,-0.182
41.245,-0.053
41.250,-0.195
41.255,-0.174
41.260,0.049
41.265,-0.021
41.270,-0.147
41.275,0.044
41.280,0.097
41.285,-0.077
41.290,0.028
41.295,0.181
41.300,0.024
41.305,-0.009
41.310,0.180
41.315,0.099
41.320,-0.052
41.325,0.106
41.330,0.152
41.335,-0.036
41.340,0.034
41.345,0.179
41.350,0.017
41.355,-0.033
41.360,0.137
41.365,0.039
41.370,-0.144
41.375,-0.074
41.380,-0.185
41.385,-0.520
41.390,-0.495
41.395,-0.283
41.400,-0.361
41.405,-0.478
41.410,-0.509
41.415,-0.784
41.420,-1.001
41.425,-0.748
41.430,-0.563
41.435,-0.634
41.440,-0.422
41.445,-0.105
41.450,-0.030
41.455,0.155
41.460,0.475
41.465,0.465
41.470,0.335
41.475,0.471
41.480,0.488
41.485,0.311
41.490,0.404
41.495,0.543
41.500,0.379
41.505,0.339
41.510,0.513
41.515,0.412
41.520,0.252
41.525,0.405
41.530,0.421
41.535,0.220
41.540,0.292
41.545,0.408
41.550,0.230
41.555,0.187
41.560,0.356
41.565,0.252
41.570,0.095
41.575,0.250
41.580,0.273
41.585,0.079
41.590,0.154
41.595,0.273
41.600,0.092
41.605,0.051
41.610,0.236
41.615,0.143
41.620,-0.011
41.625,0.151
41.630,0.176
41.635,-0.021
41.640,0.068
41.645,0.208
41.650,0.035
41.655,-0.008
41.660,0.175
41.665,0.091
41.670,-0.048
41.675,0.118
41.680,0.144
41.685,-0.049
41.690,0.034
41.695,0.162
41.700,-0.017
41.705,-0.058
41.710,0.118
41.715,0.015
41.720,-0.146
41.725,-0.002
41.730,0.001
41.735,-0.213
41.740,-0.142
41.745,-0.015
41.750,-0.188
41.755,-0.223
41.760,-0.031
41.765,-0.111
41.770,-0.242
41.775,-0.057
41.780,-0.019
41.785,-0.207
41.790,-0.115
41.795,0.023
41.800,-0.146
41.805,-0.173
41.810,0.019
41.815,-0.067
41.820,-0.203
41.825,-0.025
41.830,0.005
41.835,-0.186
41.840,-0.093
41.845,0.048
41.850,-0.123
41.855,-0.159
41.860,0.034
41.865,-0.041
41.870,-0.173
41.875,-0.003
41.880,0.021
41.885,-0.164
41.890,-0.070
41.895,0.064
41.900,-0.103
41.905,-0.128
41.910,0.064
41.915,-0.024
41.920,-0.161
41.925,0.014
41.930,0.041
41.935,-0.149
41.940,-0.057
41.945,0.078
41.950,-0.092
41.955,-0.120
41.960,0.073
41.965,-0.014
41.970,-0.149
41.975,0.029
41.980,0.059
41.985,-0.131
41.990,-0.040
41.995,0.097
42.000,-0.072
42.005,-0.096
42.010,0.097
42.015,0.001
42.020,-0.139
42.025,0.035
42.030,0.058
42.035,-0.146
42.040,-0.084
42.045,0.028
42.050,-0.141
42.055,-0.156
42.060,0.028
42.065,-0.095
42.070,-0.247
42.075,-0.062
42.080,-0.025
42.085,-0.193
42.090,-0.068
42.095,0.089
42.100,-0.070
42.105,-0.084
42.110,0.124
42.115,0.051
42.120,-0.068
42.125,0.126
42.130,0.163
42.135,-0.027
42.140,0.061
42.145,0.192
42.150,0.018
42.155,-0.011
42.160,0.176
42.165,0.082
42.170,-0.058
42.175,0.115
42.180,0.138
42.185,-0.055
42.190,0.024
42.195,0.127
42.200,-0.109
42.205,-0.253
42.210,-0.208
42.215,-0.405
42.220,-0.523
42.225,-0.273
42.230,-0.307
42.235,-0.713
42.240,-0.835
42.245,-0.792
42.250,-0.918
42.255,-0.819
42.260,-0.526
42.265,-0.533
42.270,-0.508
42.275,-0.089
42.280,0.189
42.285,0.184
42.290,0.377
42.295,0.561
42.300,0.391
42.305,0.339
42.310,0.537
42.315,0.479
42.320,0.358
42.325,0.526
42.330,0.543
42.335,0.344
42.340,0.421
42.345,0.538
42.350,0.349
42.355,0.304
42.360,0.479
42.365,0.370
42.370,0.218
42.375,0.378
42.380,0.389
42.385,0.184
42.390,0.259
42.395,0.380
42.400,0.193
42.405,0.151
42.410,0.330
42.415,0.228
42.420,0.081
42.425,0.242
42.430,0.256
42.435,0.062
42.440,0.146
42.445,0.270
42.450,0.089
42.455,0.055
42.460,0.241
42.465,0.141
42.470,-0.003
42.475,0.166
42.480,0.188
42.485,-0.005
42.490,0.079
42.495,0.207
42.500,0.031
42.505,-0.008
42.510,0.167
42.515,0.064
42.520,-0.079
42.525,0.084
42.530,0.093
42.535,-0.117
42.540,-0.049
42.545,0.060
42.550,-0.138
42.555,-0.195
42.560,-0.026
42.565,-0.135
42.570,-0.283
42.575,-0.119
42.580,-0.095
42.585,-0.277
42.590,-0.180
42.595,-0.042
42.600,-0.207
42.605,-0.225
42.610,-0.022
42.615,-0.102
42.620,-0.230
42.625,-0.049
42.630,-0.020
42.635,-0.203
42.640,-0.106
42.645,0.035
42.650,-0.132
42.655,-0.158
42.660,0.037
42.665,-0.051
42.670,-0.182
42.675,-0.002
42.680,0.026
42.685,-0.161
42.690,-0.069
42.695,0.070
42.700,-0.098
42.705,-0.124
42.710,0.069
42.715,-0.023
42.720,-0.158
42.725,0.016
42.730,0.042
42.735,-0.143
42.740,-0.050
42.745,0.086
42.750,-0.084
42.755,-0.114
42.760,0.074
42.765,-0.020
42.770,-0.155
42.775,0.023
42.780,0.052
42.785,-0.135
42.790,-0.047
42.795,0.084
42.800,-0.086
42.805,-0.114
42.810,0.077
42.815,-0.010
42.820,-0.144
42.825,0.028
42.830,0.057
42.835,-0.128
42.840,-0.042
42.845,0.092
42.850,-0.077
42.855,-0.109
42.860,0.082
42.865,-0.005
42.870,-0.139
42.875,0.034
42.880,0.057
42.885,-0.146
42.890,-0.091
42.895,0.015
42.900,-0.152
42.905,-0.163
42.910,0.023
42.915,-0.093
42.920,-0.238
42.925,-0.059
42.930,-0.027
42.935,-0.190
42.940,-0.066
42.945,0.087
42.950,-0.069
42.955,-0.084
42.960,0.118
42.965,0.049
42.970,-0.064
42.975,0.117
42.980,0.152
42.985,-0.031
42.990,0.048
42.995,0.174
43.000,0.001
43.005,-0.030
43.010,0.158
43.015,0.068
43.020,-0.065
43.025,0.105
43.030,0.126
43.035,-0.067
43.040,0.006
43.045,0.111
43.050,-0.125
43.055,-0.266
43.060,-0.192
43.065,-0.346
43.070,-0.456
43.075,-0.260
43.080,-0.348
43.085,-0.750
43.090,-0.837
43.095,-0.757
43.100,-0.852
43.105,-0.756
43.110,-0.482
43.115,-0.484
43.120,-0.458
43.125,-0.055
43.130,0.222
43.135,0.215
43.140,0.388
43.145,0.545
43.150,0.360
43.155,0.311
43.160,0.516
43.165,0.455
43.170,0.325
43.175,0.484
43.180,0.500
43.185,0.304
43.190,0.378
43.195,0.499
43.200,0.319
43.205,0.278
43.210,0.449
43.215,0.340
43.220,0.194
43.225,0.354
43.230,0.367
43.235,0.163
43.240,0.227
43.245,0.345
43.250,0.170
43.255,0.135
43.260,0.313
43.265,0.214
43.270,0.072
43.275,0.232
43.280,0.247
43.285,0.047
43.290,0.118
43.295,0.248
43.300,0.076
43.305,0.036
43.310,0.214
43.315,0.120
43.320,-0.022
43.325,0.136
43.330,0.162
43.335,-0.021
43.340,0.054
43.345,0.174
43.350,0.004
43.355,-0.027
43.360,0.147
43.365,0.039
43.370,-0.109
43.375,0.050
43.380,0.067
43.385,-0.132
43.390,-0.071
43.395,0.034
43.400,-0.163
43.405,-0.211
43.410,-0.022
43.415,-0.106
43.420,-0.255
43.425,-0.110
43.430,-0.071
43.435,-0.222
43.440,-0.121
43.445,0.012
43.450,-0.149
43.455,-0.169
43.460,0.024
43.465,-0.055
43.470,-0.177
43.475,0.002
43.480,0.038
43.485,-0.142
43.490,-0.056
43.495,0.080
43.500,-0.086
43.505,-0.124
43.510,0.058
43.515,-0.016
43.520,-0.135
43.525,0.034
43.530,0.055
43.535,-0.132
43.540,-0.051
43.545,0.082
43.550,-0.072
43.555,-0.092
43.560,0.086
43.565,-0.007
43.570,-0.132
43.575,0.036
43.580,0.060
43.585,-0.120
43.590,-0.037
43.595,0.090
43.600,-0.070
43.605,-0.101
43.610,0.073
43.615,-0.015
43.620,-0.142
43.625,0.016
43.630,0.046
43.635,-0.114
43.640,-0.027
43.645,0.087
43.650,-0.086
43.655,-0.110
43.660,0.081
43.665,-0.009
43.670,-0.145
43.675,0.013
43.680,0.043
43.685,-0.116
43.690,-0.045
43.695,0.049
43.700,-0.104
43.705,-0.103
43.710,0.080
43.715,-0.029
43.720,-0.202
43.725,-0.074
43.730,-0.029
43.735,-0.171
43.740,-0.108
43.745,-0.039
43.750,-0.232
43.755,-0.248
43.760,-0.042
43.765,-0.096
43.770,-0.193
43.775,-0.016
43.780,0.039
43.785,-0.100
43.790,-0.001
43.795,0.135
43.800,-0.004
43.805,-0.010
43.810,0.173
43.815,0.083
43.820,-0.048
43.825,0.107
43.830,0.135
43.835,-0.030
43.840,0.048
43.845,0.164
43.850,0.004
43.855,-0.024
43.860,0.148
43.865,0.056
43.870,-0.081
43.875,0.068
43.880,0.074
43.885,-0.187
43.890,-0.262
43.895,-0.277
43.900,-0.492
43.905,-0.449
43.910,-0.177
43.915,-0.333
43.920,-0.685
43.925,-0.738
43.930,-0.803
43.935,-0.917
43.940,-0.691
43.945,-0.439
43.950,-0.485
43.955,-0.353
43.960,0.049
43.965,0.192
43.970,0.210
43.975,0.451
43.980,0.509
43.985,0.295
43.990,0.338
43.995,0.487
44.000,0.371
44.005,0.353
44.010,0.519
44.015,0.426
44.020,0.292
44.025,0.430
44.030,0.445
44.035,0.272
44.040,0.329
44.045,0.424
44.050,0.252
44.055,0.215
44.060,0.367
44.065,0.265
44.070,0.149
44.075,0.305
44.080,0.309
44.085,0.142
44.090,0.210
44.095,0.280
44.100,0.136
44.105,0.136
44.110,0.240
44.115,0.112
44.120,0.031
44.125,0.183
44.130,0.166
44.135,0.021
44.140,0.105
44.145,0.165
44.150,0.025
44.155,0.057
44.160,0.179
44.165,0.062
44.170,-0.007
44.175,0.130
44.180,0.055
44.185,-0.121
44.190,0.059
44.195,0.194
44.200,-0.007
44.205,-0.005
44.210,0.152
44.215,0.007
44.220,-0.094
44.225,0.062
44.230,0.022
44.235,-0.148
44.240,-0.066
44.245,0.003
44.250,-0.166
44.255,-0.167
44.260,-0.019
44.265,-0.146
44.270,-0.239
44.275,-0.058
44.280,-0.080
44.285,-0.244
44.290,-0.106
44.295,0.006
44.300,-0.166
44.305,-0.138
44.310,0.041
44.315,-0.083
44.320,-0.172
44.325,-0.006
44.330,-0.029
44.335,-0.172
44.340,-0.058
44.345,0.035
44.350,-0.119
44.355,-0.105
44.360,0.052
44.365,-0.064
44.370,-0.149
44.375,0.006
44.380,-0.024
44.385,-0.162
44.390,-0.036
44.395,0.053
44.400,-0.109
44.405,-0.091
44.410,0.064
44.415,-0.072
44.420,-0.152
44.425,0.041
44.430,0.022
44.435,-0.142
44.440,-0.032
44.445,0.050
44.450,-0.123
44.455,-0.086
44.460,0.097
44.465,-0.037
44.470,-0.135
44.475,0.036
44.480,0.017
44.485,-0.121
44.490,-0.008
44.495,0.062
44.500,-0.113
44.505,-0.092
44.510,0.074
44.515,-0.044
44.520,-0.120
44.525,0.048
44.530,0.027
44.535,-0.118
44.540,-0.033
44.545,0.011
44.550,-0.168
44.555,-0.140
44.560,0.037
44.565,-0.095
44.570,-0.233
44.575,-0.112
44.580,-0.133
44.585,-0.248
44.590,-0.088
44.595,0.030
44.600,-0.116
44.605,-0.066
44.610,0.128
44.615,0.025
44.620,-0.047
44.625,0.139
44.630,0.122
44.635,-0.036
44.640,0.079
44.645,0.179
44.650,0.012
44.655,0.016
44.660,0.167
44.665,0.045
44.670,-0.034
44.675,0.130
44.680,0.104
44.685,-0.039
44.690,0.068
44.695,0.128
44.700,-0.075
44.705,-0.117
44.710,-0.064
44.715,-0.342
44.720,-0.561
44.725,-0.393
44.730,-0.304
44.735,-0.418
44.740,-0.460
44.745,-0.610
44.750,-0.932
44.755,-0.928
44.760,-0.657
44.765,-0.634
44.770,-0.585
44.775,-0.266
44.780,-0.085
44.785,0.022
44.790,0.342
44.795,0.530
44.800,0.406
44.805,0.410
44.810,0.521
44.815,0.392
44.820,0.342
44.825,0.521
44.830,0.488
44.835,0.337
44.840,0.441
44.845,0.511
44.850,0.323
44.855,0.317
44.860,0.470
44.865,0.345
44.870,0.241
44.875,0.376
44.880,0.338
44.885,0.184
44.890,0.275
44.895,0.341
44.900,0.166
44.905,0.175
44.910,0.323
44.915,0.187
44.920,0.095
44.925,0.252
44.930,0.213
44.935,0.048
44.940,0.152
44.945,0.231
44.950,0.052
44.955,0.065
44.960,0.212
44.965,0.081
44.970,0.006
44.975,0.175
44.980,0.140
44.985,-0.020
44.990,0.093
44.995,0.178
45.000,0.006
45.005,0.022
45.010,0.177
45.015,0.047
45.020,-0.038
45.025,0.123
45.030,0.085
45.035,-0.079
45.040,0.021
45.045,0.087
45.050,-0.106
45.055,-0.113
45.060,0.020
45.065,-0.120
45.070,-0.209
45.075,-0.054
45.080,-0.093
45.085,-0.251
45.090,-0.135
45.095,-0.043
45.100,-0.206
45.105,-0.184
45.110,-0.027
45.115,-0.142
45.120,-0.208
45.125,-0.034
