'Elapsed time','ECG'
'seconds','mV'
0.000,0.070
0.005,0.169
0.010,0.146
0.015,0.110
0.020,0.116
0.025,0.104
0.030,0.086
0.035,0.063
0.040,0.041
0.045,0.018
0.050,-0.002
0.055,-0.011
0.060,-0.026
0.065,-0.038
0.070,-0.023
0.075,-0.016
0.080,-0.041
0.085,-0.056
0.090,-0.055
0.095,-0.060
0.100,-0.052
0.105,-0.025
0.110,-0.018
0.115,-0.029
0.120,-0.024
0.125,-0.016
0.130,-0.024
0.135,-0.023
0.140,-0.011
0.145,-0.015
0.150,-0.019
0.155,-0.007
0.160,-0.007
0.165,-0.016
0.170,-0.009
0.175,-0.005
0.180,-0.018
0.185,-0.018
0.190,-0.009
0.195,-0.017
0.200,-0.025
0.205,-0.015
0.210,-0.016
0.215,-0.028
0.220,-0.022
0.225,-0.016
0.230,-0.028
0.235,-0.028
0.240,-0.018
0.245,-0.026
0.250,-0.034
0.255,-0.023
0.260,-0.024
0.265,-0.036
0.270,-0.030
0.275,-0.023
0.280,-0.032
0.285,-0.032
0.290,-0.021
0.295,-0.027
0.300,-0.034
0.305,-0.023
0.310,-0.022
0.315,-0.034
0.320,-0.028
0.325,-0.020
0.330,-0.030
0.335,-0.029
0.340,-0.017
0.345,-0.023
0.350,-0.031
0.355,-0.020
0.360,-0.019
0.365,-0.030
0.370,-0.023
0.375,-0.014
0.380,-0.024
0.385,-0.023
0.390,-0.014
0.395,-0.020
0.400,-0.025
0.405,-0.014
0.410,-0.013
0.415,-0.023
0.420,-0.016
0.425,-0.010
0.430,-0.021
0.435,-0.021
0.440,-0.009
0.445,-0.015
0.450,-0.020
0.455,-0.008
0.460,-0.008
0.465,-0.017
0.470,-0.010
0.475,-0.004
0.480,-0.015
0.485,-0.014
0.490,-0.003
0.495,-0.010
0.500,-0.015
0.505,-0.004
0.510,-0.005
0.515,-0.016
0.520,-0.008
0.525,-0.002
0.530,-0.015
0.535,-0.012
0.540,0.000
0.545,-0.009
0.550,-0.014
0.555,-0.001
0.560,-0.001
0.565,-0.011
0.570,-0.004
0.575,0.001
0.580,-0.012
0.585,-0.010
0.590,0.001
0.595,-0.008
0.600,-0.011
0.605,0.000
0.610,-0.002
0.615,-0.011
0.620,-0.003
0.625,0.002
0.630,-0.009
0.635,-0.008
0.640,0.004
0.645,-0.002
0.650,-0.008
0.655,0.004
0.660,0.004
0.665,-0.009
0.670,-0.002
0.675,0.005
0.680,-0.006
0.685,-0.004
0.690,0.006
0.695,-0.001
0.700,-0.006
0.705,0.006
0.710,0.004
0.715,-0.006
0.720,0.002
0.725,0.009
0.730,-0.003
0.735,-0.001
0.740,0.010
0.745,-0.001
0.750,-0.007
0.755,0.006
0.760,0.005
0.765,-0.006
0.770,0.002
0.775,0.008
0.780,-0.003
0.785,0.000
0.790,0.010
0.795,0.001
0.800,-0.004
0.805,0.007
0.810,0.005
0.815,-0.005
0.820,0.003
0.825,0.010
0.830,-0.002
0.835,0.000
0.840,0.011
0.845,0.004
0.850,0.000
0.855,0.011
0.860,0.007
0.865,-0.002
0.870,0.006
0.875,0.011
0.880,0.001
0.885,0.002
0.890,0.012
0.895,0.004
0.900,-0.003
0.905,0.007
0.910,0.008
0.915,-0.001
0.920,0.007
0.925,0.012
0.930,0.000
0.935,0.003
0.940,0.012
0.945,0.003
0.950,-0.003
0.955,0.009
0.960,0.008
0.965,-0.001
0.970,0.006
0.975,0.011
0.980,0.001
0.985,0.002
0.990,0.012
0.995,0.005
1.000,-0.001
1.005,0.009
1.010,0.008
1.015,-0.001
1.020,0.004
1.025,0.010
1.030,-0.001
1.035,0.000
1.040,0.012
1.045,0.004
1.050,-0.003
1.055,0.010
1.060,0.009
1.065,-0.003
1.070,0.004
1.075,0.009
1.080,-0.001
1.085,0.000
1.090,0.010
1.095,0.002
1.100,-0.004
1.105,0.006
1.110,0.006
1.115,-0.003
1.120,0.005
1.125,0.009
1.130,-0.004
1.135,-0.006
1.140,0.000
1.145,-0.012
1.150,-0.022
1.155,-0.018
1.160,-0.022
1.165,-0.034
1.170,-0.033
1.175,-0.032
1.180,-0.043
1.185,-0.053
1.190,-0.059
1.195,-0.068
1.200,-0.067
1.205,-0.051
1.210,-0.037
1.215,-0.020
1.220,0.014
1.225,0.030
1.230,0.015
1.235,0.012
1.240,0.022
1.245,0.024
1.250,0.038
1.255,0.062
1.260,0.065
1.265,0.056
1.270,0.063
1.275,0.067
1.280,0.054
1.285,0.055
1.290,0.062
1.295,0.052
1.300,0.046
1.305,0.053
1.310,0.047
1.315,0.035
1.320,0.040
1.325,0.041
1.330,0.025
1.335,0.024
1.340,0.032
1.345,0.020
1.350,0.013
1.355,0.021
1.360,0.016
1.365,0.004
1.370,0.008
1.375,0.010
1.380,0.000
1.385,0.000
1.390,0.007
1.395,-0.002
1.400,-0.008
1.405,0.003
1.410,0.001
1.415,-0.011
1.420,-0.004
1.425,0.000
1.430,-0.012
1.435,-0.009
1.440,0.002
1.445,-0.009
1.450,-0.025
1.455,-0.042
1.460,-0.080
1.465,-0.122
1.470,-0.164
1.475,-0.292
1.480,-0.575
1.485,-0.933
1.490,-1.106
1.495,-0.961
1.500,-0.625
1.505,-0.228
1.510,0.062
1.515,0.196
1.520,0.324
1.525,0.449
1.530,0.499
1.535,0.506
1.540,0.481
1.545,0.417
1.550,0.359
1.555,0.312
1.560,0.259
1.565,0.223
1.570,0.211
1.575,0.193
1.580,0.163
1.585,0.154
1.590,0.153
1.595,0.134
1.600,0.121
1.605,0.125
1.610,0.114
1.615,0.097
1.620,0.101
1.625,0.100
1.630,0.080
1.635,0.074
1.640,0.079
1.645,0.065
1.650,0.054
1.655,0.061
1.660,0.054
1.665,0.037
1.670,0.041
1.675,0.041
1.680,0.022
1.685,0.020
1.690,0.026
1.695,0.013
1.700,0.003
1.705,0.009
1.710,0.004
1.715,-0.010
1.720,-0.008
1.725,-0.010
1.730,-0.025
1.735,-0.027
1.740,-0.026
1.745,-0.040
1.750,-0.054
1.755,-0.061
1.760,-0.068
1.765,-0.079
1.770,-0.079
1.775,-0.081
1.780,-0.098
1.785,-0.102
1.790,-0.099
1.795,-0.114
1.800,-0.120
1.805,-0.110
1.810,-0.109
1.815,-0.110
1.820,-0.091
1.825,-0.076
1.830,-0.074
1.835,-0.056
1.840,-0.031
1.845,-0.025
1.850,-0.016
1.855,0.006
1.860,0.012
1.865,0.012
1.870,0.025
1.875,0.031
1.880,0.023
1.885,0.028
1.890,0.036
1.895,0.026
1.900,0.024
1.905,0.034
1.910,0.028
1.915,0.017
1.920,0.024
1.925,0.026
1.930,0.012
1.935,0.014
1.940,0.021
1.945,0.011
1.950,0.006
1.955,0.015
1.960,0.009
1.965,-0.002
1.970,0.006
1.975,0.008
1.980,-0.008
1.985,-0.005
1.990,0.006
1.995,-0.003
2.000,-0.007
2.005,0.006
2.010,0.003
2.015,-0.007
2.020,0.002
2.025,0.007
2.030,-0.004
2.035,0.000
2.040,0.011
2.045,0.004
2.050,0.000
2.055,0.011
2.060,0.010
2.065,0.002
2.070,0.012
2.075,0.016
2.080,0.005
2.085,0.011
2.090,0.019
2.095,0.010
2.100,0.009
2.105,0.020
2.110,0.015
2.115,0.006
2.120,0.015
2.125,0.017
2.130,0.005
2.135,0.010
2.140,0.018
2.145,0.008
2.150,0.005
2.155,0.015
2.160,0.011
2.165,0.001
2.170,0.010
2.175,0.012
2.180,0.000
2.185,0.003
2.190,0.010
2.195,0.001
2.200,-0.003
2.205,0.006
2.210,0.002
2.215,-0.007
2.220,0.002
2.225,0.005
2.230,-0.008
2.235,-0.004
2.240,0.006
2.245,-0.005
2.250,-0.010
2.255,0.001
2.260,-0.001
2.265,-0.012
2.270,-0.005
2.275,-0.003
2.280,-0.018
2.285,-0.020
2.290,-0.016
2.295,-0.030
2.300,-0.040
2.305,-0.033
2.310,-0.038
2.315,-0.050
2.320,-0.047
2.325,-0.046
2.330,-0.067
2.335,-0.079
2.340,-0.075
2.345,-0.077
2.350,-0.075
2.355,-0.055
2.360,-0.035
2.365,-0.015
2.370,0.010
2.375,0.012
2.380,-0.007
2.385,-0.006
2.390,0.009
2.395,0.017
2.400,0.031
2.405,0.049
2.410,0.048
2.415,0.038
2.420,0.047
2.425,0.050
2.430,0.037
2.435,0.039
2.440,0.047
2.445,0.036
2.450,0.031
2.455,0.040
2.460,0.031
2.465,0.018
2.470,0.025
2.475,0.024
2.480,0.008
2.485,0.011
2.490,0.018
2.495,0.005
2.500,0.000
2.505,0.008
2.510,0.002
2.515,-0.009
2.520,-0.002
2.525,0.000
2.530,-0.013
2.535,-0.011
2.540,-0.002
2.545,-0.012
2.550,-0.014
2.555,-0.002
2.560,-0.008
2.565,-0.018
2.570,-0.007
2.575,-0.004
2.580,-0.015
2.585,-0.012
2.590,-0.003
2.595,-0.014
2.600,-0.020
2.605,-0.008
2.610,-0.011
2.615,-0.021
2.620,-0.012
2.625,-0.013
2.630,-0.042
2.635,-0.077
2.640,-0.108
2.645,-0.147
2.650,-0.211
2.655,-0.352
2.660,-0.651
2.665,-0.993
2.670,-1.066
2.675,-0.831
2.680,-0.490
2.685,-0.138
2.690,0.102
2.695,0.213
2.700,0.331
2.705,0.456
2.710,0.516
2.715,0.523
2.720,0.518
2.725,0.489
2.730,0.443
2.735,0.411
2.740,0.353
2.745,0.262
2.750,0.203
2.755,0.180
2.760,0.143
2.765,0.105
2.770,0.094
2.775,0.082
2.780,0.062
2.785,0.059
2.790,0.058
2.795,0.041
2.800,0.033
2.805,0.039
2.810,0.029
2.815,0.018
2.820,0.026
2.825,0.025
2.830,0.011
2.835,0.011
2.840,0.014
2.845,0.000
2.850,-0.005
2.855,0.001
2.860,-0.006
2.865,-0.018
2.870,-0.013
2.875,-0.014
2.880,-0.028
2.885,-0.028
2.890,-0.024
2.895,-0.038
2.900,-0.045
2.905,-0.038
2.910,-0.049
2.915,-0.065
2.920,-0.060
2.925,-0.063
2.930,-0.084
2.935,-0.087
2.940,-0.080
2.945,-0.089
2.950,-0.095
2.955,-0.089
2.960,-0.095
2.965,-0.103
2.970,-0.094
2.975,-0.087
2.980,-0.088
2.985,-0.072
2.990,-0.049
2.995,-0.039
3.000,-0.022
3.005,0.008
3.010,0.021
3.015,0.029
3.020,0.053
3.025,0.067
3.030,0.064
3.035,0.075
3.040,0.088
3.045,0.078
3.050,0.076
3.055,0.088
3.060,0.080
3.065,0.069
3.070,0.077
3.075,0.076
3.080,0.061
3.085,0.065
3.090,0.070
3.095,0.054
3.100,0.048
3.105,0.055
3.110,0.047
3.115,0.039
3.120,0.048
3.125,0.045
3.130,0.028
3.135,0.024
3.140,0.025
3.145,0.013
3.150,0.011
3.155,0.019
3.160,0.009
3.165,-0.003
3.170,0.006
3.175,0.005
3.180,-0.009
3.185,-0.004
3.190,0.005
3.195,-0.004
3.200,-0.006
3.205,0.006
3.210,0.003
3.215,-0.005
3.220,0.002
3.225,0.005
3.230,-0.005
3.235,-0.002
3.240,0.007
3.245,-0.001
3.250,-0.001
3.255,0.009
3.260,0.000
3.265,-0.014
3.270,-0.007
3.275,-0.003
3.280,-0.014
3.285,-0.008
3.290,0.002
3.295,-0.007
3.300,-0.008
3.305,0.003
3.310,-0.005
3.315,-0.015
3.320,-0.004
3.325,-0.005
3.330,-0.019
3.335,-0.012
3.340,-0.001
3.345,-0.010
3.350,-0.014
3.355,-0.004
3.360,-0.010
3.365,-0.021
3.370,-0.012
3.375,-0.007
3.380,-0.017
3.385,-0.013
3.390,-0.005
3.395,-0.017
3.400,-0.022
3.405,-0.012
3.410,-0.019
3.415,-0.032
3.420,-0.025
3.425,-0.027
3.430,-0.045
3.435,-0.041
3.440,-0.034
3.445,-0.051
3.450,-0.058
3.455,-0.049
3.460,-0.066
3.465,-0.088
3.470,-0.079
3.475,-0.071
3.480,-0.081
3.485,-0.063
3.490,-0.027
3.495,-0.009
3.500,0.001
3.505,0.008
3.510,-0.003
3.515,-0.010
3.520,0.012
3.525,0.029
3.530,0.025
3.535,0.035
3.540,0.047
3.545,0.039
3.550,0.036
3.555,0.046
3.560,0.041
3.565,0.029
3.570,0.036
3.575,0.037
3.580,0.021
3.585,0.023
3.590,0.028
3.595,0.015
3.600,0.011
3.605,0.020
3.610,0.015
3.615,0.006
3.620,0.011
3.625,0.007
3.630,-0.009
3.635,-0.007
3.640,0.001
3.645,-0.010
3.650,-0.014
3.655,-0.002
3.660,-0.007
3.665,-0.017
3.670,-0.008
3.675,-0.005
3.680,-0.015
3.685,-0.013
3.690,-0.007
3.695,-0.016
3.700,-0.015
3.705,-0.003
3.710,-0.008
3.715,-0.015
3.720,-0.008
3.725,-0.011
3.730,-0.022
3.735,-0.014
3.740,-0.008
3.745,-0.017
3.750,-0.013
3.755,-0.006
3.760,-0.039
3.765,-0.091
3.770,-0.111
3.775,-0.138
3.780,-0.245
3.785,-0.464
3.790,-0.809
3.795,-1.076
3.800,-1.004
3.805,-0.683
3.810,-0.326
3.815,-0.028
3.820,0.154
3.825,0.271
3.830,0.392
3.835,0.490
3.840,0.530
3.845,0.518
3.850,0.505
3.855,0.495
3.860,0.456
3.865,0.399
3.870,0.336
3.875,0.260
3.880,0.191
3.885,0.158
3.890,0.137
3.895,0.101
3.900,0.076
3.905,0.072
3.910,0.055
3.915,0.036
3.920,0.040
3.925,0.038
3.930,0.022
3.935,0.023
3.940,0.025
3.945,0.009
3.950,0.005
3.955,0.015
3.960,0.007
3.965,-0.005
3.970,0.002
3.975,0.000
3.980,-0.015
3.985,-0.015
3.990,-0.013
3.995,-0.024
4.000,-0.028
4.005,-0.022
4.010,-0.029
4.015,-0.037
4.020,-0.036
4.025,-0.043
4.030,-0.058
4.035,-0.055
4.040,-0.052
4.045,-0.071
4.050,-0.078
4.055,-0.072
4.060,-0.084
4.065,-0.094
4.070,-0.083
4.075,-0.082
4.080,-0.099
4.085,-0.099
4.090,-0.093
4.095,-0.107
4.100,-0.106
4.105,-0.083
4.110,-0.075
4.115,-0.063
4.120,-0.033
4.125,-0.016
4.130,-0.006
4.135,0.021
4.140,0.046
4.145,0.051
4.150,0.062
4.155,0.082
4.160,0.085
4.165,0.082
4.170,0.095
4.175,0.097
4.180,0.085
4.185,0.088
4.190,0.093
4.195,0.079
4.200,0.075
4.205,0.082
4.210,0.075
4.215,0.065
4.220,0.068
4.225,0.062
4.230,0.046
4.235,0.049
4.240,0.058
4.245,0.047
4.250,0.039
4.255,0.045
4.260,0.039
4.265,0.027
4.270,0.032
4.275,0.026
4.280,0.005
4.285,0.005
4.290,0.009
4.295,-0.004
4.300,-0.006
4.305,0.006
4.310,0.002
4.315,-0.008
4.320,0.000
4.325,0.005
4.330,-0.005
4.335,-0.002
4.340,0.005
4.345,-0.002
4.350,-0.003
4.355,0.003
4.360,-0.006
4.365,-0.013
4.370,-0.001
4.375,0.001
4.380,-0.012
4.385,-0.003
4.390,0.009
4.395,0.002
4.400,0.003
4.405,0.012
4.410,0.003
4.415,-0.007
4.420,0.000
4.425,0.001
4.430,-0.010
4.435,-0.010
4.440,-0.007
4.445,-0.018
4.450,-0.019
4.455,-0.004
4.460,-0.007
4.465,-0.017
4.470,-0.008
4.475,-0.005
4.480,-0.015
4.485,-0.009
4.490,-0.003
4.495,-0.013
4.500,-0.016
4.505,-0.009
4.510,-0.013
4.515,-0.021
4.520,-0.011
4.525,-0.011
4.530,-0.024
4.535,-0.021
4.540,-0.019
4.545,-0.034
4.550,-0.037
4.555,-0.032
4.560,-0.044
4.565,-0.050
4.570,-0.041
4.575,-0.048
4.580,-0.063
4.585,-0.065
4.590,-0.075
4.595,-0.093
4.600,-0.088
4.605,-0.072
4.610,-0.068
4.615,-0.055
4.620,-0.019
4.625,0.000
4.630,-0.012
4.635,-0.013
4.640,-0.008
4.645,-0.009
4.650,0.011
4.655,0.038
4.660,0.039
4.665,0.033
4.670,0.040
4.675,0.038
4.680,0.027
4.685,0.032
4.690,0.035
4.695,0.022
4.700,0.022
4.705,0.031
4.710,0.021
4.715,0.011
4.720,0.020
4.725,0.018
4.730,0.003
4.735,0.007
4.740,0.013
4.745,0.000
4.750,-0.002
4.755,0.006
4.760,-0.006
4.765,-0.015
4.770,-0.003
4.775,-0.004
4.780,-0.018
4.785,-0.013
4.790,-0.005
4.795,-0.015
4.800,-0.014
4.805,-0.002
4.810,-0.009
4.815,-0.018
4.820,-0.007
4.825,-0.008
4.830,-0.021
4.835,-0.015
4.840,-0.008
4.845,-0.018
4.850,-0.018
4.855,-0.009
4.860,-0.016
4.865,-0.023
4.870,-0.011
4.875,-0.013
4.880,-0.043
4.885,-0.075
4.890,-0.101
4.895,-0.142
4.900,-0.137
4.905,-0.155
4.910,-0.449
4.915,-0.803
4.920,-0.793
4.925,-0.517
4.930,-0.189
4.935,0.128
4.940,0.307
4.945,0.389
4.950,0.504
4.955,0.614
4.960,0.646
4.965,0.630
4.970,0.619
4.975,0.593
4.980,0.541
4.985,0.493
4.990,0.425
4.995,0.325
5.000,0.252
5.005,0.213
5.010,0.162
5.015,0.118
5.020,0.103
5.025,0.081
5.030,0.054
5.035,0.047
5.040,0.041
5.045,0.019
5.050,0.008
5.055,0.009
5.060,-0.007
5.065,-0.023
5.070,-0.020
5.075,-0.027
5.080,-0.045
5.085,-0.045
5.090,-0.045
5.095,-0.062
5.100,-0.068
5.105,-0.064
5.110,-0.077
5.115,-0.089
5.120,-0.084
5.125,-0.090
5.130,-0.108
5.135,-0.107
5.140,-0.105
5.145,-0.123
5.150,-0.128
5.155,-0.123
5.160,-0.138
5.165,-0.149
5.170,-0.146
5.175,-0.154
5.180,-0.170
5.185,-0.169
5.190,-0.168
5.195,-0.181
5.200,-0.183
5.205,-0.174
5.210,-0.181
5.215,-0.186
5.220,-0.171
5.225,-0.161
5.230,-0.158
5.235,-0.134
5.240,-0.107
5.245,-0.097
5.250,-0.075
5.255,-0.042
5.260,-0.030
5.265,-0.018
5.270,0.009
5.275,0.020
5.280,0.016
5.285,0.028
5.290,0.040
5.295,0.032
5.300,0.033
5.305,0.043
5.310,0.034
5.315,0.025
5.320,0.035
5.325,0.033
5.330,0.021
5.335,0.027
5.340,0.032
5.345,0.018
5.350,0.014
5.355,0.021
5.360,0.014
5.365,0.006
5.370,0.013
5.375,0.010
5.380,-0.004
5.385,-0.001
5.390,0.002
5.395,-0.011
5.400,-0.012
5.405,-0.003
5.410,-0.013
5.415,-0.021
5.420,-0.011
5.425,-0.013
5.430,-0.025
5.435,-0.017
5.440,-0.010
5.445,-0.021
5.450,-0.020
5.455,-0.009
5.460,-0.015
5.465,-0.020
5.470,-0.007
5.475,-0.007
5.480,-0.018
5.485,-0.011
5.490,-0.002
5.495,-0.010
5.500,-0.009
5.505,0.002
5.510,-0.004
5.515,-0.008
5.520,0.003
5.525,0.002
5.530,-0.009
5.535,-0.001
5.540,0.007
5.545,-0.004
5.550,-0.004
5.555,0.007
5.560,-0.001
5.565,-0.008
5.570,0.003
5.575,0.002
5.580,-0.007
5.585,-0.001
5.590,0.003
5.595,-0.008
5.600,-0.007
5.605,0.004
5.610,-0.004
5.615,-0.011
5.620,0.001
5.625,0.001
5.630,-0.009
5.635,-0.001
5.640,0.005
5.645,-0.007
5.650,-0.007
5.655,0.005
5.660,-0.001
5.665,-0.009
5.670,0.001
5.675,-0.001
5.680,-0.016
5.685,-0.014
5.690,-0.012
5.695,-0.030
5.700,-0.035
5.705,-0.025
5.710,-0.032
5.715,-0.047
5.720,-0.042
5.725,-0.042
5.730,-0.060
5.735,-0.067
5.740,-0.062
5.745,-0.065
5.750,-0.057
5.755,-0.033
5.760,-0.015
5.765,0.006
5.770,0.026
5.775,0.015
5.780,-0.002
5.785,0.006
5.790,0.023
5.795,0.032
5.800,0.047
5.805,0.061
5.810,0.052
5.815,0.046
5.820,0.057
5.825,0.054
5.830,0.041
5.835,0.046
5.840,0.052
5.845,0.039
5.850,0.035
5.855,0.043
5.860,0.033
5.865,0.024
5.870,0.032
5.875,0.027
5.880,0.014
5.885,0.018
5.890,0.021
5.895,0.008
5.900,0.007
5.905,0.015
5.910,0.005
5.915,-0.002
5.920,0.007
5.925,0.002
5.930,-0.009
5.935,-0.002
5.940,0.003
5.945,-0.008
5.950,-0.008
5.955,0.002
5.960,-0.007
5.965,-0.013
5.970,-0.002
5.975,-0.002
5.980,-0.014
5.985,-0.007
5.990,-0.001
5.995,-0.012
6.000,-0.012
6.005,-0.004
6.010,-0.011
6.015,-0.018
6.020,-0.019
6.025,-0.051
6.030,-0.107
6.035,-0.136
6.040,-0.171
6.045,-0.285
6.050,-0.515
6.055,-0.839
6.060,-1.041
6.065,-0.908
6.070,-0.572
6.075,-0.228
6.080,0.035
6.085,0.182
6.090,0.289
6.095,0.400
6.100,0.488
6.105,0.531
6.110,0.523
6.115,0.500
6.120,0.485
6.125,0.449
6.130,0.381
6.135,0.306
6.140,0.238
6.145,0.181
6.150,0.147
6.155,0.125
6.160,0.092
6.165,0.071
6.170,0.072
6.175,0.063
6.180,0.046
6.185,0.048
6.190,0.047
6.195,0.032
6.200,0.030
6.205,0.035
6.210,0.023
6.215,0.014
6.220,0.023
6.225,0.018
6.230,0.005
6.235,0.010
6.240,0.010
6.245,-0.005
6.250,-0.006
6.255,0.000
6.260,-0.012
6.265,-0.020
6.270,-0.013
6.275,-0.019
6.280,-0.036
6.285,-0.035
6.290,-0.035
6.295,-0.053
6.300,-0.057
6.305,-0.054
6.310,-0.071
6.315,-0.084
6.320,-0.079
6.325,-0.088
6.330,-0.105
6.335,-0.103
6.340,-0.103
6.345,-0.117
6.350,-0.115
6.355,-0.104
6.360,-0.110
6.365,-0.106
6.370,-0.083
6.375,-0.070
6.380,-0.060
6.385,-0.030
6.390,-0.003
6.395,0.007
6.400,0.031
6.405,0.062
6.410,0.069
6.415,0.076
6.420,0.097
6.425,0.102
6.430,0.095
6.435,0.104
6.440,0.111
6.445,0.099
6.450,0.099
6.455,0.107
6.460,0.096
6.465,0.086
6.470,0.092
6.475,0.087
6.480,0.074
6.485,0.079
6.490,0.081
6.495,0.064
6.500,0.061
6.505,0.069
6.510,0.055
6.515,0.043
6.520,0.052
6.525,0.047
6.530,0.032
6.535,0.035
6.540,0.037
6.545,0.020
6.550,0.017
6.555,0.023
6.560,0.012
6.565,0.006
6.570,0.013
6.575,0.008
6.580,-0.003
6.585,0.003
6.590,0.005
6.595,-0.007
6.600,-0.006
6.605,0.003
6.610,-0.006
6.615,-0.012
6.620,0.001
6.625,-0.001
6.630,-0.012
6.635,-0.005
6.640,-0.002
6.645,-0.012
6.650,-0.009
6.655,0.001
6.660,-0.008
6.665,-0.013
6.670,-0.002
6.675,-0.005
6.680,-0.016
6.685,-0.008
6.690,-0.005
6.695,-0.016
6.700,-0.013
6.705,-0.005
6.710,-0.012
6.715,-0.016
6.720,-0.007
6.725,-0.011
6.730,-0.022
6.735,-0.014
6.740,-0.010
6.745,-0.020
6.750,-0.018
6.755,-0.009
6.760,-0.018
6.765,-0.023
6.770,-0.013
6.775,-0.015
6.780,-0.026
6.785,-0.017
6.790,-0.012
6.795,-0.024
6.800,-0.022
6.805,-0.012
6.810,-0.021
6.815,-0.027
6.820,-0.020
6.825,-0.027
6.830,-0.041
6.835,-0.037
6.840,-0.037
6.845,-0.052
6.850,-0.049
6.855,-0.043
6.860,-0.059
6.865,-0.067
6.870,-0.061
6.875,-0.080
6.880,-0.100
6.885,-0.083
6.890,-0.071
6.895,-0.074
6.900,-0.050
6.905,-0.011
6.910,0.000
6.915,-0.006
6.920,-0.003
6.925,-0.008
6.930,-0.012
6.935,0.013
6.940,0.034
6.945,0.033
6.950,0.037
6.955,0.045
6.960,0.038
6.965,0.033
6.970,0.044
6.975,0.040
6.980,0.028
6.985,0.035
6.990,0.039
6.995,0.026
7.000,0.024
7.005,0.028
7.010,0.016
7.015,0.011
7.020,0.019
7.025,0.012
7.030,0.000
7.035,0.006
7.040,0.009
7.045,-0.005
7.050,-0.004
7.055,0.005
7.060,-0.004
7.065,-0.010
7.070,0.000
7.075,-0.003
7.080,-0.012
7.085,-0.003
7.090,-0.001
7.095,-0.014
7.100,-0.011
7.105,-0.001
7.110,-0.011
7.115,-0.016
7.120,-0.004
7.125,-0.007
7.130,-0.016
7.135,-0.007
7.140,-0.003
7.145,-0.016
7.150,-0.013
7.155,-0.003
7.160,-0.014
7.165,-0.024
7.170,-0.030
7.175,-0.075
7.180,-0.128
7.185,-0.153
7.190,-0.210
7.195,-0.372
7.200,-0.663
7.205,-0.965
7.210,-1.018
7.215,-0.771
7.220,-0.420
7.225,-0.094
7.230,0.107
7.235,0.221
7.240,0.342
7.245,0.443
7.250,0.507
7.255,0.528
7.260,0.510
7.265,0.492
7.270,0.477
7.275,0.433
7.280,0.356
7.285,0.280
7.290,0.218
7.295,0.167
7.300,0.134
7.305,0.113
7.310,0.082
7.315,0.061
7.320,0.062
7.325,0.053
7.330,0.036
7.335,0.038
7.340,0.038
7.345,0.024
7.350,0.023
7.355,0.030
7.360,0.017
7.365,0.009
7.370,0.018
7.375,0.012
7.380,-0.003
7.385,0.001
7.390,0.003
7.395,-0.011
7.400,-0.012
7.405,-0.007
7.410,-0.021
7.415,-0.030
7.420,-0.022
7.425,-0.029
7.430,-0.045
7.435,-0.043
7.440,-0.044
7.445,-0.063
7.450,-0.068
7.455,-0.066
7.460,-0.082
7.465,-0.094
7.470,-0.089
7.475,-0.097
7.480,-0.115
7.485,-0.113
7.490,-0.112
7.495,-0.125
7.500,-0.122
7.505,-0.110
7.510,-0.115
7.515,-0.109
7.520,-0.082
7.525,-0.066
7.530,-0.055
7.535,-0.023
7.540,0.004
7.545,0.015
7.550,0.041
7.555,0.068
7.560,0.071
7.565,0.076
7.570,0.097
7.575,0.102
7.580,0.097
7.585,0.106
7.590,0.108
7.595,0.096
7.600,0.098
7.605,0.104
7.610,0.092
7.615,0.084
7.620,0.091
7.625,0.085
7.630,0.072
7.635,0.078
7.640,0.079
7.645,0.063
7.650,0.062
7.655,0.066
7.660,0.051
7.665,0.042
7.670,0.048
7.675,0.042
7.680,0.031
7.685,0.034
7.690,0.032
7.695,0.017
7.700,0.016
7.705,0.022
7.710,0.009
7.715,0.002
7.720,0.011
7.725,0.006
7.730,-0.006
7.735,0.001
7.740,0.003
7.745,-0.009
7.750,-0.006
7.755,0.004
7.760,-0.004
7.765,-0.006
7.770,0.004
7.775,-0.003
7.780,-0.012
7.785,-0.002
7.790,0.002
7.795,-0.009
7.800,-0.004
7.805,0.004
7.810,-0.008
7.815,-0.012
7.820,-0.001
7.825,-0.003
7.830,-0.011
7.835,-0.002
7.840,0.001
7.845,-0.013
7.850,-0.011
7.855,-0.002
7.860,-0.012
7.865,-0.016
7.870,-0.006
7.875,-0.009
7.880,-0.018
7.885,-0.012
7.890,-0.009
7.895,-0.017
7.900,-0.011
7.905,-0.003
7.910,-0.018
7.915,-0.022
7.920,-0.009
7.925,-0.014
7.930,-0.025
7.935,-0.016
7.940,-0.013
7.945,-0.025
7.950,-0.022
7.955,-0.014
7.960,-0.027
7.965,-0.035
7.970,-0.030
7.975,-0.042
7.980,-0.054
7.985,-0.043
7.990,-0.043
7.995,-0.061
8.000,-0.060
8.005,-0.061
8.010,-0.089
8.015,-0.098
8.020,-0.078
8.025,-0.076
8.030,-0.073
8.035,-0.040
8.040,-0.011
8.045,-0.008
8.050,-0.008
8.055,-0.003
8.060,-0.011
8.065,-0.005
8.070,0.023
8.075,0.034
8.080,0.031
8.085,0.041
8.090,0.044
8.095,0.034
8.100,0.035
8.105,0.041
8.110,0.032
8.115,0.027
8.120,0.034
8.125,0.029
8.130,0.018
8.135,0.022
8.140,0.022
8.145,0.012
8.150,0.013
8.155,0.016
8.160,0.003
8.165,-0.001
8.170,0.010
8.175,0.004
8.180,-0.009
8.185,0.000
8.190,0.002
8.195,-0.011
8.200,-0.010
8.205,-0.004
8.210,-0.015
8.215,-0.017
8.220,-0.006
8.225,-0.010
8.230,-0.019
8.235,-0.008
8.240,-0.006
8.245,-0.018
8.250,-0.013
8.255,-0.002
8.260,-0.012
8.265,-0.015
8.270,-0.006
8.275,-0.012
8.280,-0.022
8.285,-0.013
8.290,-0.011
8.295,-0.023
8.300,-0.022
8.305,-0.025
8.310,-0.066
8.315,-0.108
8.320,-0.126
8.325,-0.178
8.330,-0.322
8.335,-0.596
8.340,-0.934
8.345,-1.059
8.350,-0.851
8.355,-0.509
8.360,-0.174
8.365,0.066
8.370,0.200
8.375,0.318
8.380,0.432
8.385,0.506
8.390,0.520
8.395,0.502
8.400,0.497
8.405,0.487
8.410,0.442
8.415,0.383
8.420,0.315
8.425,0.235
8.430,0.176
8.435,0.145
8.440,0.115
8.445,0.077
8.450,0.060
8.455,0.056
8.460,0.040
8.465,0.032
8.470,0.039
8.475,0.031
8.480,0.019
8.485,0.026
8.490,0.025
8.495,0.008
8.500,0.007
8.505,0.015
8.510,0.002
8.515,-0.005
8.520,0.003
8.525,-0.004
8.530,-0.016
8.535,-0.009
8.540,-0.009
8.545,-0.026
8.550,-0.028
8.555,-0.028
8.560,-0.043
8.565,-0.049
8.570,-0.044
8.575,-0.054
8.580,-0.066
8.585,-0.061
8.590,-0.064
8.595,-0.081
8.600,-0.085
8.605,-0.085
8.610,-0.106
8.615,-0.117
8.620,-0.112
8.625,-0.121
8.630,-0.127
8.635,-0.117
8.640,-0.114
8.645,-0.119
8.650,-0.107
8.655,-0.083
8.660,-0.071
8.665,-0.051
8.670,-0.017
8.675,0.001
8.680,0.011
8.685,0.040
8.690,0.059
8.695,0.063
8.700,0.085
8.705,0.104
8.710,0.096
8.715,0.096
8.720,0.110
8.725,0.107
8.730,0.099
8.735,0.106
8.740,0.104
8.745,0.088
8.750,0.087
8.755,0.091
8.760,0.076
8.765,0.070
8.770,0.078
8.775,0.072
8.780,0.059
8.785,0.064
8.790,0.063
8.795,0.050
8.800,0.051
8.805,0.050
8.810,0.033
8.815,0.030
8.820,0.038
8.825,0.031
8.830,0.017
8.835,0.017
8.840,0.014
8.845,0.005
8.850,0.010
8.855,0.013
8.860,0.001
8.865,-0.001
8.870,0.011
8.875,0.009
8.880,0.002
8.885,0.008
8.890,0.007
8.895,-0.007
8.900,-0.006
8.905,-0.001
8.910,-0.012
8.915,-0.013
8.920,0.002
8.925,0.001
8.930,-0.003
8.935,0.006
8.940,0.004
8.945,-0.010
8.950,-0.010
8.955,-0.006
8.960,-0.011
8.965,-0.011
8.970,-0.003
8.975,-0.007
8.980,-0.014
8.985,-0.008
8.990,-0.006
8.995,-0.011
9.000,-0.009
9.005,-0.007
9.010,-0.014
9.015,-0.015
9.020,-0.008
9.025,-0.013
9.030,-0.021
9.035,-0.014
9.040,-0.010
9.045,-0.020
9.050,-0.019
9.055,-0.011
9.060,-0.019
9.065,-0.023
9.070,-0.012
9.075,-0.015
9.080,-0.026
9.085,-0.016
9.090,-0.011
9.095,-0.020
9.100,-0.017
9.105,-0.016
9.110,-0.030
9.115,-0.035
9.120,-0.031
9.125,-0.040
9.130,-0.052
9.135,-0.048
9.140,-0.047
9.145,-0.060
9.150,-0.061
9.155,-0.059
9.160,-0.080
9.165,-0.094
9.170,-0.083
9.175,-0.080
9.180,-0.076
9.185,-0.049
9.190,-0.023
9.195,-0.015
9.200,-0.009
9.205,-0.003
9.210,-0.011
9.215,-0.010
9.220,0.014
9.225,0.029
9.230,0.029
9.235,0.038
9.240,0.042
9.245,0.035
9.250,0.038
9.255,0.045
9.260,0.036
9.265,0.030
9.270,0.036
9.275,0.030
9.280,0.020
9.285,0.024
9.290,0.023
9.295,0.012
9.300,0.017
9.305,0.021
9.310,0.009
9.315,0.002
9.320,0.004
9.325,0.000
9.330,-0.005
9.335,0.002
9.340,0.004
9.345,-0.007
9.350,-0.006
9.355,-0.003
9.360,-0.012
9.365,-0.012
9.370,-0.003
9.375,-0.009
9.380,-0.018
9.385,-0.008
9.390,-0.005
9.395,-0.013
9.400,-0.006
9.405,0.000
9.410,-0.010
9.415,-0.013
9.420,-0.005
9.425,-0.009
9.430,-0.014
9.435,-0.006
9.440,-0.004
9.445,-0.013
9.450,-0.010
9.455,-0.011
9.460,-0.043
9.465,-0.083
9.470,-0.104
9.475,-0.141
9.480,-0.245
9.485,-0.462
9.490,-0.813
9.495,-1.072
9.500,-0.982
9.505,-0.664
9.510,-0.313
9.515,-0.012
9.520,0.164
9.525,0.269
9.530,0.388
9.535,0.491
9.540,0.525
9.545,0.514
9.550,0.512
9.555,0.501
9.560,0.461
9.565,0.412
9.570,0.344
9.575,0.256
9.580,0.189
9.585,0.159
9.590,0.129
9.595,0.094
9.600,0.082
9.605,0.078
9.610,0.063
9.615,0.054
9.620,0.052
9.625,0.037
9.630,0.022
9.635,0.027
9.640,0.026
9.645,0.012
9.650,0.016
9.655,0.021
9.660,0.006
9.665,0.001
9.670,0.009
9.675,0.004
9.680,-0.005
9.685,-0.003
9.690,-0.007
9.695,-0.023
9.700,-0.025
9.705,-0.022
9.710,-0.036
9.715,-0.041
9.720,-0.036
9.725,-0.047
9.730,-0.059
9.735,-0.055
9.740,-0.063
9.745,-0.082
9.750,-0.086
9.755,-0.086
9.760,-0.101
9.765,-0.107
9.770,-0.101
9.775,-0.110
9.780,-0.120
9.785,-0.113
9.790,-0.111
9.795,-0.118
9.800,-0.109
9.805,-0.091
9.810,-0.083
9.815,-0.064
9.820,-0.032
9.825,-0.014
9.830,0.002
9.835,0.033
9.840,0.052
9.845,0.057
9.850,0.076
9.855,0.094
9.860,0.092
9.865,0.096
9.870,0.106
9.875,0.098
9.880,0.090
9.885,0.099
9.890,0.098
9.895,0.085
9.900,0.089
9.905,0.092
9.910,0.078
9.915,0.076
9.920,0.082
9.925,0.070
9.930,0.059
9.935,0.064
9.940,0.060
9.945,0.046
9.950,0.047
9.955,0.048
9.960,0.033
9.965,0.029
9.970,0.034
9.975,0.025
9.980,0.014
9.985,0.019
9.990,0.015
9.995,0.004
10.000,0.008
10.005,0.008
10.010,-0.006
10.015,-0.005
10.020,0.004
10.025,-0.005
10.030,-0.014
10.035,-0.005
10.040,-0.003
10.045,-0.014
10.050,-0.008
10.055,-0.001
10.060,-0.009
10.065,-0.011
10.070,-0.001
10.075,-0.006
10.080,-0.011
10.085,-0.002
10.090,-0.002
10.095,-0.013
10.100,-0.008
10.105,-0.002
10.110,-0.012
10.115,-0.012
10.120,-0.003
10.125,-0.007
10.130,-0.013
10.135,-0.004
10.140,-0.002
10.145,-0.012
10.150,-0.009
10.155,-0.002
10.160,-0.012
10.165,-0.014
10.170,-0.005
10.175,-0.010
10.180,-0.016
10.185,-0.007
10.190,-0.007
10.195,-0.018
10.200,-0.013
10.205,-0.009
10.210,-0.020
10.215,-0.020
10.220,-0.008
10.225,-0.014
10.230,-0.021
10.235,-0.013
10.240,-0.015
10.245,-0.026
10.250,-0.019
10.255,-0.012
10.260,-0.022
10.265,-0.023
10.270,-0.016
10.275,-0.025
10.280,-0.036
10.285,-0.030
10.290,-0.034
10.295,-0.051
10.300,-0.047
10.305,-0.042
10.310,-0.059
10.315,-0.065
10.320,-0.055
10.325,-0.071
10.330,-0.092
10.335,-0.080
10.340,-0.071
10.345,-0.075
10.350,-0.055
10.355,-0.024
10.360,-0.009
10.365,-0.001
10.370,0.001
10.375,-0.011
10.380,-0.017
10.385,0.005
10.390,0.026
10.395,0.028
10.400,0.039
10.405,0.047
10.410,0.036
10.415,0.033
10.420,0.041
10.425,0.035
10.430,0.028
10.435,0.036
10.440,0.034
10.445,0.022
10.450,0.026
10.455,0.030
10.460,0.017
10.465,0.014
10.470,0.021
10.475,0.013
10.480,0.003
10.485,0.010
10.490,0.008
10.495,-0.005
10.500,-0.002
10.505,0.004
10.510,-0.006
10.515,-0.007
10.520,0.000
10.525,-0.006
10.530,-0.011
10.535,-0.004
10.540,-0.005
10.545,-0.014
10.550,-0.008
10.555,-0.003
10.560,-0.012
10.565,-0.011
10.570,-0.003
10.575,-0.010
10.580,-0.014
10.585,-0.005
10.590,-0.003
10.595,-0.012
10.600,-0.008
10.605,-0.003
10.610,-0.013
10.615,-0.010
10.620,-0.001
10.625,-0.015
10.630,-0.043
10.635,-0.077
10.640,-0.118
10.645,-0.162
10.650,-0.231
10.655,-0.403
10.660,-0.725
10.665,-1.009
10.670,-0.988
10.675,-0.714
10.680,-0.371
10.685,-0.042
10.690,0.143
10.695,0.231
10.700,0.357
10.705,0.470
10.710,0.517
10.715,0.527
10.720,0.521
10.725,0.488
10.730,0.448
10.735,0.414
10.740,0.341
10.745,0.252
10.750,0.203
10.755,0.172
10.760,0.128
10.765,0.102
10.770,0.092
10.775,0.071
10.780,0.058
10.785,0.060
10.790,0.050
10.795,0.036
10.800,0.039
10.805,0.039
10.810,0.024
10.815,0.021
10.820,0.027
10.825,0.019
10.830,0.009
10.835,0.012
10.840,0.008
10.845,-0.005
10.850,-0.003
10.855,-0.001
10.860,-0.014
10.865,-0.017
10.870,-0.013
10.875,-0.024
10.880,-0.032
10.885,-0.028
10.890,-0.034
10.895,-0.048
10.900,-0.047
10.905,-0.049
10.910,-0.068
10.915,-0.077
10.920,-0.075
10.925,-0.089
10.930,-0.103
10.935,-0.100
10.940,-0.107
10.945,-0.122
10.950,-0.119
10.955,-0.114
10.960,-0.125
10.965,-0.124
10.970,-0.109
10.975,-0.103
10.980,-0.090
10.985,-0.062
10.990,-0.041
10.995,-0.026
11.000,0.004
11.005,0.030
11.010,0.039
11.015,0.057
11.020,0.081
11.025,0.085
11.030,0.087
11.035,0.101
11.040,0.103
11.045,0.096
11.050,0.101
11.055,0.104
11.060,0.092
11.065,0.090
11.070,0.095
11.075,0.086
11.080,0.079
11.085,0.084
11.090,0.079
11.095,0.068
11.100,0.070
11.105,0.071
11.110,0.058
11.115,0.055
11.120,0.061
11.125,0.049
11.130,0.037
11.135,0.044
11.140,0.039
11.145,0.025
11.150,0.028
11.155,0.030
11.160,0.014
11.165,0.010
11.170,0.014
11.175,0.005
11.180,-0.002
11.185,0.006
11.190,0.003
11.195,-0.009
11.200,-0.004
11.205,0.000
11.210,-0.010
11.215,-0.008
11.220,0.001
11.225,-0.007
11.230,-0.013
11.235,-0.002
11.240,-0.002
11.245,-0.011
11.250,-0.004
11.255,0.000
11.260,-0.010
11.265,-0.009
11.270,-0.001
11.275,-0.009
11.280,-0.013
11.285,-0.004
11.290,-0.006
11.295,-0.016
11.300,-0.010
11.305,-0.004
11.310,-0.015
11.315,-0.014
11.320,-0.005
11.325,-0.011
11.330,-0.017
11.335,-0.008
11.340,-0.009
11.345,-0.019
11.350,-0.013
11.355,-0.008
11.360,-0.019
11.365,-0.017
11.370,-0.009
11.375,-0.018
11.380,-0.022
11.385,-0.012
11.390,-0.014
11.395,-0.024
11.400,-0.018
11.405,-0.013
11.410,-0.023
11.415,-0.022
11.420,-0.014
11.425,-0.024
11.430,-0.033
11.435,-0.027
11.440,-0.033
11.445,-0.051
11.450,-0.048
11.455,-0.042
11.460,-0.056
11.465,-0.062
11.470,-0.055
11.475,-0.068
11.480,-0.088
11.485,-0.085
11.490,-0.079
11.495,-0.082
11.500,-0.064
11.505,-0.036
11.510,-0.018
11.515,0.001
11.520,0.007
11.525,-0.010
11.530,-0.017
11.535,-0.001
11.540,0.014
11.545,0.022
11.550,0.038
11.555,0.045
11.560,0.034
11.565,0.034
11.570,0.043
11.575,0.035
11.580,0.027
11.585,0.036
11.590,0.035
11.595,0.024
11.600,0.028
11.605,0.031
11.610,0.017
11.615,0.015
11.620,0.021
11.625,0.010
11.630,0.003
11.635,0.012
11.640,0.008
11.645,-0.004
11.650,0.000
11.655,0.004
11.660,-0.009
11.665,-0.010
11.670,-0.001
11.675,-0.007
11.680,-0.011
11.685,-0.002
11.690,-0.004
11.695,-0.014
11.700,-0.008
11.705,-0.003
11.710,-0.015
11.715,-0.014
11.720,-0.003
11.725,-0.010
11.730,-0.016
11.735,-0.006
11.740,-0.009
11.745,-0.019
11.750,-0.010
11.755,-0.005
11.760,-0.014
11.765,-0.012
11.770,-0.004
11.775,-0.013
11.780,-0.019
11.785,-0.012
11.790,-0.031
11.795,-0.083
11.800,-0.122
11.805,-0.150
11.810,-0.220
11.815,-0.366
11.820,-0.639
11.825,-0.959
11.830,-1.018
11.835,-0.760
11.840,-0.421
11.845,-0.099
11.850,0.123
11.855,0.229
11.860,0.329
11.865,0.441
11.870,0.513
11.875,0.521
11.880,0.511
11.885,0.500
11.890,0.467
11.895,0.418
11.900,0.356
11.905,0.276
11.910,0.203
11.915,0.164
11.920,0.139
11.925,0.102
11.930,0.077
11.935,0.071
11.940,0.061
11.945,0.044
11.950,0.043
11.955,0.042
11.960,0.027
11.965,0.023
11.970,0.030
11.975,0.020
11.980,0.011
11.985,0.018
11.990,0.012
11.995,0.000
12.000,0.006
12.005,0.008
12.010,-0.009
12.015,-0.012
12.020,-0.005
12.025,-0.017
12.030,-0.026
12.035,-0.021
12.040,-0.028
12.045,-0.042
12.050,-0.039
12.055,-0.041
12.060,-0.058
12.065,-0.064
12.070,-0.064
12.075,-0.079
12.080,-0.090
12.085,-0.089
12.090,-0.100
12.095,-0.116
12.100,-0.116
12.105,-0.118
12.110,-0.131
12.115,-0.130
12.120,-0.121
12.125,-0.126
12.130,-0.125
12.135,-0.104
12.140,-0.088
12.145,-0.076
12.150,-0.046
12.155,-0.020
12.160,-0.007
12.165,0.020
12.170,0.052
12.175,0.063
12.180,0.075
12.185,0.098
12.190,0.102
12.195,0.095
12.200,0.105
12.205,0.112
12.210,0.102
12.215,0.102
12.220,0.106
12.225,0.094
12.230,0.088
12.235,0.097
12.240,0.092
12.245,0.078
12.250,0.081
12.255,0.083
12.260,0.070
12.265,0.069
12.270,0.075
12.275,0.063
12.280,0.054
12.285,0.061
12.290,0.053
12.295,0.038
12.300,0.039
12.305,0.036
12.310,0.022
12.315,0.022
12.320,0.027
12.325,0.014
12.330,0.006
12.335,0.015
12.340,0.011
12.345,-0.002
12.350,0.005
12.355,0.009
12.360,-0.002
12.365,-0.002
12.370,0.006
12.375,-0.002
12.380,-0.005
12.385,0.004
12.390,0.000
12.395,-0.008
12.400,-0.002
12.405,0.001
12.410,-0.010
12.415,-0.007
12.420,0.001
12.425,-0.007
12.430,-0.011
12.435,-0.001
12.440,-0.004
12.445,-0.014
12.450,-0.008
12.455,-0.004
12.460,-0.015
12.465,-0.011
12.470,0.000
12.475,-0.006
12.480,-0.013
12.485,-0.007
12.490,-0.010
12.495,-0.019
12.500,-0.011
12.505,-0.008
12.510,-0.022
12.515,-0.021
12.520,-0.010
12.525,-0.017
12.530,-0.020
12.535,-0.009
12.540,-0.013
12.545,-0.024
12.550,-0.014
12.555,-0.009
12.560,-0.021
12.565,-0.020
12.570,-0.010
12.575,-0.018
12.580,-0.024
12.585,-0.019
12.590,-0.029
12.595,-0.045
12.600,-0.044
12.605,-0.045
12.610,-0.054
12.615,-0.051
12.620,-0.047
12.625,-0.060
12.630,-0.066
12.635,-0.066
12.640,-0.085
12.645,-0.095
12.650,-0.079
12.655,-0.070
12.660,-0.070
12.665,-0.045
12.670,-0.008
12.675,-0.003
12.680,-0.013
12.685,-0.009
12.690,-0.009
12.695,-0.007
12.700,0.019
12.705,0.038
12.710,0.032
12.715,0.035
12.720,0.045
12.725,0.036
12.730,0.029
12.735,0.038
12.740,0.035
12.745,0.023
12.750,0.028
12.755,0.033
12.760,0.022
12.765,0.022
12.770,0.029
12.775,0.018
12.780,0.010
12.785,0.018
12.790,0.012
12.795,-0.002
12.800,0.001
12.805,-0.001
12.810,-0.012
12.815,-0.010
12.820,-0.005
12.825,-0.015
12.830,-0.018
12.835,-0.007
12.840,-0.009
12.845,-0.019
12.850,-0.015
12.855,-0.011
12.860,-0.018
12.865,-0.013
12.870,-0.004
12.875,-0.014
12.880,-0.018
12.885,-0.006
12.890,-0.007
12.895,-0.017
12.900,-0.009
12.905,-0.004
12.910,-0.014
12.915,-0.014
12.920,-0.007
12.925,-0.016
12.930,-0.020
12.935,-0.009
12.940,-0.011
12.945,-0.028
12.950,-0.047
12.955,-0.088
12.960,-0.131
12.965,-0.160
12.970,-0.249
12.975,-0.483
12.980,-0.831
12.985,-1.047
12.990,-0.946
12.995,-0.641
13.000,-0.276
13.005,0.025
13.010,0.173
13.015,0.277
13.020,0.402
13.025,0.480
13.030,0.510
13.035,0.526
13.040,0.513
13.045,0.477
13.050,0.453
13.055,0.411
13.060,0.322
13.065,0.243
13.070,0.197
13.075,0.149
13.080,0.110
13.085,0.098
13.090,0.078
13.095,0.057
13.100,0.057
13.105,0.056
13.110,0.042
13.115,0.038
13.120,0.040
13.125,0.024
13.130,0.014
13.135,0.022
13.140,0.015
13.145,0.002
13.150,0.011
13.155,0.015
13.160,0.001
13.165,-0.002
13.170,0.002
13.175,-0.010
13.180,-0.017
13.185,-0.011
13.190,-0.015
13.195,-0.025
13.200,-0.021
13.205,-0.025
13.210,-0.043
13.215,-0.047
13.220,-0.046
13.225,-0.061
13.230,-0.072
13.235,-0.072
13.240,-0.083
13.245,-0.097
13.250,-0.095
13.255,-0.096
13.260,-0.112
13.265,-0.116
13.270,-0.110
13.275,-0.122
13.280,-0.127
13.285,-0.109
13.290,-0.103
13.295,-0.102
13.300,-0.079
13.305,-0.053
13.310,-0.036
13.315,-0.008
13.320,0.023
13.325,0.038
13.330,0.057
13.335,0.084
13.340,0.092
13.345,0.091
13.350,0.102
13.355,0.108
13.360,0.102
13.365,0.105
13.370,0.112
13.375,0.103
13.380,0.098
13.385,0.107
13.390,0.105
13.395,0.094
13.400,0.097
13.405,0.092
13.410,0.074
13.415,0.072
13.420,0.077
13.425,0.067
13.430,0.060
13.435,0.063
13.440,0.055
13.445,0.045
13.450,0.050
13.455,0.051
13.460,0.033
13.465,0.027
13.470,0.031
13.475,0.020
13.480,0.014
13.485,0.020
13.490,0.014
13.495,0.000
13.500,0.004
13.505,0.006
13.510,-0.007
13.515,-0.004
13.520,0.009
13.525,-0.001
13.530,-0.007
13.535,0.000
13.540,-0.012
13.545,-0.023
13.550,-0.011
13.555,-0.004
13.560,-0.011
13.565,-0.006
13.570,0.002
13.575,-0.007
13.580,-0.011
13.585,-0.002
13.590,-0.007
13.595,-0.016
13.600,-0.008
13.605,-0.005
13.610,-0.013
13.615,-0.009
13.620,-0.003
13.625,-0.014
13.630,-0.014
13.635,-0.001
13.640,-0.009
13.645,-0.035
13.650,-0.055
13.655,-0.066
13.660,-0.070
13.665,-0.063
13.670,-0.052
13.675,-0.054
13.680,-0.053
13.685,-0.039
13.690,-0.040
13.695,-0.047
13.700,-0.038
13.705,-0.035
13.710,-0.044
13.715,-0.039
13.720,-0.028
13.725,-0.035
13.730,-0.038
13.735,-0.027
13.740,-0.030
13.745,-0.038
13.750,-0.029
13.755,-0.031
13.760,-0.048
13.765,-0.048
13.770,-0.042
13.775,-0.048
13.780,-0.050
13.785,-0.046
13.790,-0.053
13.795,-0.074
13.800,-0.084
13.805,-0.080
13.810,-0.079
13.815,-0.068
13.820,-0.051
13.825,-0.040
13.830,-0.017
13.835,0.010
13.840,0.011
13.845,0.000
13.850,0.004
13.855,0.017
13.860,0.026
13.865,0.043
13.870,0.058
13.875,0.046
13.880,0.039
13.885,0.050
13.890,0.045
13.895,0.037
13.900,0.047
13.905,0.050
13.910,0.041
13.915,0.046
13.920,0.051
13.925,0.039
13.930,0.029
13.935,0.030
13.940,0.022
13.945,0.014
13.950,0.020
13.955,0.020
13.960,0.008
13.965,0.009
13.970,0.018
13.975,0.009
13.980,0.005
13.985,0.015
13.990,0.011
13.995,0.001
14.000,0.009
14.005,0.008
14.010,-0.008
14.015,-0.005
14.020,0.003
14.025,-0.004
14.030,-0.002
14.035,0.010
14.040,0.005
14.045,-0.006
14.050,0.001
14.055,0.005
14.060,-0.005
14.065,-0.003
14.070,0.003
14.075,-0.007
14.080,-0.011
14.085,-0.001
14.090,-0.002
14.095,-0.008
14.100,-0.005
14.105,-0.028
14.110,-0.079
14.115,-0.109
14.120,-0.139
14.125,-0.254
14.130,-0.498
14.135,-0.847
14.140,-1.074
14.145,-0.969
14.150,-0.639
14.155,-0.261
14.160,0.032
14.165,0.189
14.170,0.305
14.175,0.421
14.180,0.502
14.185,0.537
14.190,0.532
14.195,0.509
14.200,0.486
14.205,0.451
14.210,0.389
14.215,0.312
14.220,0.243
14.225,0.187
14.230,0.150
14.235,0.126
14.240,0.094
14.245,0.066
14.250,0.064
14.255,0.063
14.260,0.045
14.265,0.039
14.270,0.041
14.275,0.026
14.280,0.017
14.285,0.024
14.290,0.019
14.295,0.009
14.300,0.014
14.305,0.015
14.310,0.000
14.315,-0.002
14.320,0.000
14.325,-0.013
14.330,-0.016
14.335,-0.006
14.340,-0.011
14.345,-0.022
14.350,-0.021
14.355,-0.025
14.360,-0.042
14.365,-0.045
14.370,-0.042
14.375,-0.059
14.380,-0.068
14.385,-0.064
14.390,-0.078
14.395,-0.099
14.400,-0.100
14.405,-0.104
14.410,-0.121
14.415,-0.121
14.420,-0.115
14.425,-0.125
14.430,-0.128
14.435,-0.115
14.440,-0.113
14.445,-0.113
14.450,-0.090
14.455,-0.070
14.460,-0.062
14.465,-0.036
14.470,-0.003
14.475,0.014
14.480,0.034
14.485,0.063
14.490,0.078
14.495,0.083
14.500,0.100
14.505,0.110
14.510,0.101
14.515,0.105
14.520,0.113
14.525,0.104
14.530,0.099
14.535,0.108
14.540,0.101
14.545,0.087
14.550,0.090
14.555,0.090
14.560,0.077
14.565,0.074
14.570,0.077
14.575,0.064
14.580,0.059
14.585,0.068
14.590,0.061
14.595,0.047
14.600,0.050
14.605,0.048
14.610,0.033
14.615,0.033
14.620,0.037
14.625,0.022
14.630,0.015
14.635,0.021
14.640,0.013
14.645,-0.001
14.650,0.002
14.655,0.002
14.660,-0.009
14.665,-0.006
14.670,0.000
14.675,-0.012
14.680,-0.012
14.685,-0.001
14.690,-0.008
14.695,-0.018
14.700,-0.010
14.705,-0.008
14.710,-0.018
14.715,-0.016
14.720,-0.008
14.725,-0.017
14.730,-0.021
14.735,-0.011
14.740,-0.012
14.745,-0.018
14.750,-0.011
14.755,-0.010
14.760,-0.021
14.765,-0.018
14.770,-0.009
14.775,-0.017
14.780,-0.020
14.785,-0.011
14.790,-0.014
14.795,-0.021
14.800,-0.014
14.805,-0.013
14.810,-0.023
14.815,-0.018
14.820,-0.011
14.825,-0.021
14.830,-0.023
14.835,-0.013
14.840,-0.018
14.845,-0.027
14.850,-0.018
14.855,-0.015
14.860,-0.025
14.865,-0.020
14.870,-0.013
14.875,-0.023
14.880,-0.026
14.885,-0.017
14.890,-0.020
14.895,-0.026
14.900,-0.017
14.905,-0.016
14.910,-0.031
14.915,-0.030
14.920,-0.026
14.925,-0.041
14.930,-0.050
14.935,-0.044
14.940,-0.050
14.945,-0.062
14.950,-0.058
14.955,-0.056
14.960,-0.073
14.965,-0.084
14.970,-0.082
14.975,-0.085
14.980,-0.080
14.985,-0.058
14.990,-0.040
14.995,-0.020
15.000,0.006
15.005,0.004
15.010,-0.014
15.015,-0.012
15.020,0.004
15.025,0.013
15.030,0.027
15.035,0.044
15.040,0.042
15.045,0.033
15.050,0.041
15.055,0.042
15.060,0.031
15.065,0.034
15.070,0.040
15.075,0.029
15.080,0.025
15.085,0.034
15.090,0.026
15.095,0.015
15.100,0.023
15.105,0.024
15.110,0.012
15.115,0.014
15.120,0.018
15.125,0.005
15.130,0.001
15.135,0.007
15.140,-0.001
15.145,-0.009
15.150,-0.002
15.155,-0.001
15.160,-0.012
15.165,-0.007
15.170,0.000
15.175,-0.010
15.180,-0.012
15.185,-0.003
15.190,-0.008
15.195,-0.015
15.200,-0.007
15.205,-0.005
15.210,-0.015
15.215,-0.010
15.220,-0.003
15.225,-0.013
15.230,-0.014
15.235,-0.002
15.240,-0.007
15.245,-0.016
15.250,-0.006
15.255,-0.004
15.260,-0.017
15.265,-0.022
15.270,-0.042
15.275,-0.096
15.280,-0.134
15.285,-0.164
15.290,-0.273
15.295,-0.508
15.300,-0.837
15.305,-1.051
15.310,-0.946
15.315,-0.618
15.320,-0.251
15.325,0.027
15.330,0.167
15.335,0.276
15.340,0.392
15.345,0.477
15.350,0.529
15.355,0.532
15.360,0.499
15.365,0.471
15.370,0.441
15.375,0.377
15.380,0.296
15.385,0.235
15.390,0.188
15.395,0.146
15.400,0.124
15.405,0.103
15.410,0.075
15.415,0.069
15.420,0.070
15.425,0.052
15.430,0.043
15.435,0.049
15.440,0.039
15.445,0.026
15.450,0.032
15.455,0.031
15.460,0.019
15.465,0.020
15.470,0.021
15.475,0.008
15.480,0.004
15.485,0.011
15.490,0.003
15.495,-0.008
15.500,-0.003
15.505,-0.005
15.510,-0.021
15.515,-0.021
15.520,-0.017
15.525,-0.032
15.530,-0.040
15.535,-0.034
15.540,-0.046
15.545,-0.062
15.550,-0.061
15.555,-0.069
15.560,-0.088
15.565,-0.092
15.570,-0.094
15.575,-0.111
15.580,-0.118
15.585,-0.112
15.590,-0.122
15.595,-0.132
15.600,-0.121
15.605,-0.116
15.610,-0.118
15.615,-0.098
15.620,-0.073
15.625,-0.061
15.630,-0.039
15.635,-0.005
15.640,0.012
15.645,0.026
15.650,0.053
15.655,0.070
15.660,0.073
15.665,0.088
15.670,0.101
15.675,0.095
15.680,0.096
15.685,0.105
15.690,0.100
15.695,0.090
15.700,0.096
15.705,0.095
15.710,0.080
15.715,0.082
15.720,0.088
15.725,0.075
15.730,0.069
15.735,0.075
15.740,0.067
15.745,0.057
15.750,0.062
15.755,0.058
15.760,0.046
15.765,0.048
15.770,0.050
15.775,0.035
15.780,0.031
15.785,0.036
15.790,0.025
15.795,0.015
15.800,0.021
15.805,0.016
15.810,0.001
15.815,0.007
15.820,0.011
15.825,-0.003
15.830,-0.005
15.835,0.005
15.840,-0.001
15.845,-0.010
15.850,-0.002
15.855,-0.002
15.860,-0.012
15.865,-0.008
15.870,-0.001
15.875,-0.011
15.880,-0.012
15.885,0.000
15.890,-0.006
15.895,-0.014
15.900,-0.004
15.905,-0.003
15.910,-0.013
15.915,-0.009
15.920,-0.004
15.925,-0.013
15.930,-0.012
15.935,-0.002
15.940,-0.008
15.945,-0.015
15.950,-0.008
15.955,-0.008
15.960,-0.017
15.965,-0.012
15.970,-0.006
15.975,-0.017
15.980,-0.018
15.985,-0.009
15.990,-0.016
15.995,-0.022
16.000,-0.011
16.005,-0.011
16.010,-0.021
16.015,-0.017
16.020,-0.010
16.025,-0.020
16.030,-0.023
16.035,-0.012
16.040,-0.018
16.045,-0.026
16.050,-0.016
16.055,-0.015
16.060,-0.025
16.065,-0.019
16.070,-0.012
16.075,-0.022
16.080,-0.024
16.085,-0.017
16.090,-0.026
16.095,-0.037
16.100,-0.034
16.105,-0.040
16.110,-0.053
16.115,-0.048
16.120,-0.045
16.125,-0.061
16.130,-0.065
16.135,-0.057
16.140,-0.076
16.145,-0.095
16.150,-0.081
16.155,-0.074
16.160,-0.075
16.165,-0.049
16.170,-0.016
16.175,-0.006
16.180,-0.007
16.185,-0.006
16.190,-0.013
16.195,-0.015
16.200,0.009
16.205,0.029
16.210,0.029
16.215,0.036
16.220,0.042
16.225,0.031
16.230,0.031
16.235,0.041
16.240,0.034
16.245,0.024
16.250,0.030
16.255,0.029
16.260,0.017
16.265,0.019
16.270,0.023
16.275,0.013
16.280,0.010
16.285,0.017
16.290,0.009
16.295,-0.001
16.300,0.007
16.305,0.006
16.310,-0.006
16.315,-0.001
16.320,0.006
16.325,-0.006
16.330,-0.010
16.335,-0.002
16.340,-0.008
16.345,-0.015
16.350,-0.004
16.355,-0.004
16.360,-0.014
16.365,-0.009
16.370,-0.002
16.375,-0.011
16.380,-0.013
16.385,-0.004
16.390,-0.008
16.395,-0.015
16.400,-0.007
16.405,-0.006
16.410,-0.016
16.415,-0.010
16.420,-0.005
16.425,-0.015
16.430,-0.016
16.435,-0.007
16.440,-0.013
16.445,-0.023
16.450,-0.034
16.455,-0.077
16.460,-0.130
16.465,-0.158
16.470,-0.215
16.475,-0.379
16.480,-0.671
16.485,-0.969
16.490,-1.013
16.495,-0.762
16.500,-0.403
16.505,-0.068
16.510,0.131
16.515,0.239
16.520,0.359
16.525,0.454
16.530,0.514
16.535,0.537
16.540,0.516
16.545,0.481
16.550,0.457
16.555,0.415
16.560,0.333
16.565,0.259
16.570,0.213
16.575,0.168
16.580,0.132
16.585,0.114
16.590,0.091
16.595,0.071
16.600,0.072
16.605,0.064
16.610,0.047
16.615,0.047
16.620,0.049
16.625,0.033
16.630,0.028
16.635,0.037
16.640,0.028
16.645,0.016
16.650,0.022
16.655,0.021
16.660,0.008
16.665,0.011
16.670,0.013
16.675,-0.002
16.680,-0.007
16.685,-0.003
16.690,-0.015
16.695,-0.025
16.700,-0.019
16.705,-0.024
16.710,-0.040
16.715,-0.038
16.720,-0.037
16.725,-0.056
16.730,-0.065
16.735,-0.065
16.740,-0.083
16.745,-0.095
16.750,-0.093
16.755,-0.102
16.760,-0.117
16.765,-0.117
16.770,-0.115
16.775,-0.129
16.780,-0.131
16.785,-0.119
16.790,-0.120
16.795,-0.115
16.800,-0.089
16.805,-0.069
16.810,-0.056
16.815,-0.025
16.820,0.007
16.825,0.019
16.830,0.039
16.835,0.067
16.840,0.075
16.845,0.081
16.850,0.100
16.855,0.104
16.860,0.096
16.865,0.104
16.870,0.110
16.875,0.100
16.880,0.097
16.885,0.103
16.890,0.094
16.895,0.084
16.900,0.091
16.905,0.088
16.910,0.075
16.915,0.077
16.920,0.077
16.925,0.062
16.930,0.060
16.935,0.067
16.940,0.056
16.945,0.047
16.950,0.054
16.955,0.048
16.960,0.031
16.965,0.031
16.970,0.033
16.975,0.018
16.980,0.013
16.985,0.018
16.990,0.009
16.995,0.000
17.000,0.009
17.005,0.010
17.010,0.000
17.015,0.004
17.020,0.006
17.025,-0.006
17.030,-0.007
17.035,-0.001
17.040,-0.009
17.045,-0.014
17.050,-0.004
17.055,-0.003
17.060,-0.012
17.065,-0.006
17.070,-0.001
17.075,-0.011
17.080,-0.011
17.085,-0.002
17.090,-0.008
17.095,-0.013
17.100,-0.004
17.105,-0.005
17.110,-0.015
17.115,-0.008
17.120,-0.003
17.125,-0.016
17.130,-0.016
17.135,-0.004
17.140,-0.009
17.145,-0.016
17.150,-0.009
17.155,-0.008
17.160,-0.015
17.165,-0.009
17.170,-0.003
17.175,-0.014
17.180,-0.017
17.185,-0.009
17.190,-0.019
17.195,-0.024
17.200,-0.011
17.205,-0.013
17.210,-0.024
17.215,-0.015
17.220,-0.008
17.225,-0.017
17.230,-0.019
17.235,-0.011
17.240,-0.018
17.245,-0.024
17.250,-0.016
17.255,-0.023
17.260,-0.040
17.265,-0.037
17.270,-0.036
17.275,-0.048
17.280,-0.046
17.285,-0.036
17.290,-0.050
17.295,-0.061
17.300,-0.054
17.305,-0.068
17.310,-0.095
17.315,-0.089
17.320,-0.077
17.325,-0.080
17.330,-0.060
17.335,-0.022
17.340,-0.002
17.345,0.001
17.350,0.004
17.355,-0.004
17.360,-0.014
17.365,0.007
17.370,0.034
17.375,0.037
17.380,0.042
17.385,0.048
17.390,0.037
17.395,0.032
17.400,0.040
17.405,0.039
17.410,0.033
17.415,0.037
17.420,0.040
17.425,0.027
17.430,0.023
17.435,0.029
17.440,0.022
17.445,0.016
17.450,0.025
17.455,0.019
17.460,0.003
17.465,0.007
17.470,0.012
17.475,-0.001
17.480,-0.006
17.485,-0.002
17.490,-0.010
17.495,-0.014
17.500,-0.003
17.505,-0.004
17.510,-0.013
17.515,-0.007
17.520,-0.003
17.525,-0.012
17.530,-0.011
17.535,-0.002
17.540,-0.008
17.545,-0.015
17.550,-0.006
17.555,-0.010
17.560,-0.022
17.565,-0.016
17.570,-0.011
17.575,-0.019
17.580,-0.016
17.585,-0.005
17.590,-0.010
17.595,-0.019
17.600,-0.011
17.605,-0.010
17.610,-0.019
17.615,-0.024
17.620,-0.052
17.625,-0.107
17.630,-0.134
17.635,-0.165
17.640,-0.293
17.645,-0.554
17.650,-0.892
17.655,-1.066
17.660,-0.914
17.665,-0.573
17.670,-0.206
17.675,0.057
17.680,0.195
17.685,0.314
17.690,0.427
17.695,0.498
17.700,0.527
17.705,0.519
17.710,0.490
17.715,0.472
17.720,0.446
17.725,0.379
17.730,0.298
17.735,0.233
17.740,0.178
17.745,0.137
17.750,0.116
17.755,0.092
17.760,0.065
17.765,0.059
17.770,0.057
17.775,0.041
17.780,0.037
17.785,0.040
17.790,0.030
17.795,0.023
17.800,0.027
17.805,0.022
17.810,0.008
17.815,0.010
17.820,0.012
17.825,-0.001
17.830,-0.002
17.835,0.001
17.840,-0.009
17.845,-0.015
17.850,-0.010
17.855,-0.018
17.860,-0.031
17.865,-0.028
17.870,-0.026
17.875,-0.039
17.880,-0.045
17.885,-0.045
17.890,-0.059
17.895,-0.067
17.900,-0.061
17.905,-0.073
17.910,-0.094
17.915,-0.097
17.920,-0.102
17.925,-0.118
17.930,-0.121
17.935,-0.116
17.940,-0.121
17.945,-0.122
17.950,-0.112
17.955,-0.114
17.960,-0.118
17.965,-0.096
17.970,-0.073
17.975,-0.062
17.980,-0.036
17.985,-0.006
17.990,0.010
17.995,0.030
18.000,0.063
18.005,0.081
18.010,0.082
18.015,0.095
18.020,0.102
18.025,0.094
18.030,0.100
18.035,0.108
18.040,0.100
18.045,0.100
18.050,0.110
18.055,0.100
18.060,0.083
18.065,0.089
18.070,0.092
18.075,0.076
18.080,0.070
18.085,0.075
18.090,0.066
18.095,0.056
18.100,0.060
18.105,0.055
18.110,0.043
18.115,0.046
18.120,0.045
18.125,0.030
18.130,0.027
18.135,0.033
18.140,0.028
18.145,0.021
18.150,0.024
18.155,0.017
18.160,0.004
18.165,0.008
18.170,0.008
18.175,-0.007
18.180,-0.005
18.185,-0.001
18.190,-0.014
18.195,-0.017
18.200,-0.005
18.205,-0.006
18.210,-0.011
18.215,0.001
18.220,0.004
18.225,-0.010
18.230,-0.010
18.235,0.000
18.240,-0.004
18.245,-0.009
18.250,-0.002
18.255,-0.004
18.260,-0.012
18.265,-0.004
18.270,0.002
18.275,-0.008
18.280,-0.011
18.285,-0.005
18.290,-0.015
18.295,-0.020
18.300,-0.005
18.305,-0.005
18.310,-0.019
18.315,-0.013
18.320,-0.004
18.325,-0.011
18.330,-0.009
18.335,-0.002
18.340,-0.014
18.345,-0.023
18.350,-0.012
18.355,-0.012
18.360,-0.021
18.365,-0.016
18.370,-0.011
18.375,-0.019
18.380,-0.015
18.385,-0.006
18.390,-0.015
18.395,-0.022
18.400,-0.015
18.405,-0.019
18.410,-0.029
18.415,-0.018
18.420,-0.013
18.425,-0.027
18.430,-0.028
18.435,-0.024
18.440,-0.040
18.445,-0.052
18.450,-0.041
18.455,-0.041
18.460,-0.056
18.465,-0.050
18.470,-0.053
18.475,-0.086
18.480,-0.098
18.485,-0.081
18.490,-0.077
18.495,-0.069
18.500,-0.037
18.505,-0.011
18.510,-0.001
18.515,0.007
18.520,0.003
18.525,-0.013
18.530,-0.006
18.535,0.018
18.540,0.025
18.545,0.032
18.550,0.047
18.555,0.045
18.560,0.037
18.565,0.045
18.570,0.046
18.575,0.033
18.580,0.030
18.585,0.034
18.590,0.024
18.595,0.020
18.600,0.028
18.605,0.024
18.610,0.012
18.615,0.017
18.620,0.020
18.625,0.007
18.630,0.007
18.635,0.015
18.640,0.004
18.645,-0.004
18.650,0.001
18.655,-0.005
18.660,-0.013
18.665,-0.006
18.670,-0.004
18.675,-0.015
18.680,-0.012
18.685,-0.002
18.690,-0.009
18.695,-0.014
18.700,-0.005
18.705,-0.008
18.710,-0.016
18.715,-0.008
18.720,-0.005
18.725,-0.016
18.730,-0.012
18.735,-0.004
18.740,-0.013
18.745,-0.015
18.750,-0.004
18.755,-0.006
18.760,-0.017
18.765,-0.011
18.770,-0.005
18.775,-0.018
18.780,-0.030
18.785,-0.054
18.790,-0.100
18.795,-0.132
18.800,-0.174
18.805,-0.321
18.810,-0.620
18.815,-0.961
18.820,-1.076
18.825,-0.875
18.830,-0.522
18.835,-0.153
18.840,0.089
18.845,0.208
18.850,0.337
18.855,0.454
18.860,0.509
18.865,0.534
18.870,0.534
18.875,0.500
18.880,0.465
18.885,0.436
18.890,0.372
18.895,0.289
18.900,0.230
18.905,0.182
18.910,0.136
18.915,0.112
18.920,0.093
18.925,0.068
18.930,0.062
18.935,0.064
18.940,0.049
18.945,0.040
18.950,0.045
18.955,0.039
18.960,0.026
18.965,0.029
18.970,0.031
18.975,0.016
18.980,0.012
18.985,0.018
18.990,0.008
18.995,-0.001
19.000,0.006
19.005,0.000
19.010,-0.015
19.015,-0.013
19.020,-0.012
19.025,-0.027
19.030,-0.030
19.035,-0.026
19.040,-0.038
19.045,-0.047
19.050,-0.042
19.055,-0.050
19.060,-0.067
19.065,-0.065
19.070,-0.066
19.075,-0.085
19.080,-0.093
19.085,-0.093
19.090,-0.111
19.095,-0.122
19.100,-0.117
19.105,-0.122
19.110,-0.129
19.115,-0.118
19.120,-0.110
19.125,-0.110
19.130,-0.092
19.135,-0.067
19.140,-0.054
19.145,-0.032
19.150,0.002
19.155,0.021
19.160,0.033
19.165,0.058
19.170,0.077
19.175,0.077
19.180,0.086
19.185,0.102
19.190,0.097
19.195,0.093
19.200,0.104
19.205,0.101
19.210,0.089
19.215,0.093
19.220,0.094
19.225,0.080
19.230,0.075
19.235,0.080
19.240,0.072
19.245,0.065
19.250,0.070
19.255,0.064
19.260,0.053
19.265,0.057
19.270,0.054
19.275,0.040
19.280,0.039
19.285,0.044
19.290,0.032
19.295,0.024
19.300,0.029
19.305,0.022
19.310,0.012
19.315,0.016
19.320,0.013
19.325,-0.003
19.330,0.001
19.335,0.013
19.340,0.001
19.345,-0.007
19.350,0.004
19.355,0.002
19.360,-0.008
19.365,-0.003
19.370,-0.001
19.375,-0.014
19.380,-0.016
19.385,-0.007
19.390,-0.014
19.395,-0.016
19.400,-0.005
19.405,-0.002
19.410,-0.006
19.415,-0.002
19.420,0.001
19.425,-0.009
19.430,-0.010
19.435,-0.005
19.440,-0.014
19.445,-0.015
19.450,-0.003
19.455,-0.004
19.460,-0.010
19.465,-0.004
19.470,-0.004
19.475,-0.016
19.480,-0.014
19.485,-0.002
19.490,-0.009
19.495,-0.014
19.500,-0.005
19.505,-0.010
19.510,-0.021
19.515,-0.013
19.520,-0.013
19.525,-0.028
19.530,-0.024
19.535,-0.012
19.540,-0.019
19.545,-0.021
19.550,-0.007
19.555,-0.008
19.560,-0.018
19.565,-0.013
19.570,-0.012
19.575,-0.024
19.580,-0.020
19.585,-0.009
19.590,-0.019
19.595,-0.024
19.600,-0.014
19.605,-0.019
19.610,-0.034
19.615,-0.029
19.620,-0.030
19.625,-0.047
19.630,-0.047
19.635,-0.038
19.640,-0.048
19.645,-0.056
19.650,-0.050
19.655,-0.058
19.660,-0.078
19.665,-0.077
19.670,-0.067
19.675,-0.072
19.680,-0.066
19.685,-0.042
19.690,-0.028
19.695,-0.006
19.700,0.011
19.705,-0.001
19.710,-0.013
19.715,0.000
19.720,0.015
19.725,0.016
19.730,0.031
19.735,0.051
19.740,0.047
19.745,0.044
19.750,0.048
19.755,0.034
19.760,0.020
19.765,0.033
19.770,0.043
19.775,0.032
19.780,0.031
19.785,0.033
19.790,0.012
19.795,0.002
19.800,0.013
19.805,0.010
19.810,0.005
19.815,0.013
19.820,0.014
19.825,0.001
19.830,0.002
19.835,0.008
19.840,-0.003
19.845,-0.009
19.850,-0.001
19.855,-0.006
19.860,-0.015
19.865,-0.009
19.870,-0.007
19.875,-0.016
19.880,-0.009
19.885,-0.002
19.890,-0.013
19.895,-0.013
19.900,0.000
19.905,-0.010
19.910,-0.020
19.915,-0.008
19.920,-0.005
19.925,-0.013
19.930,-0.010
19.935,-0.005
19.940,-0.009
19.945,-0.015
19.950,-0.012
19.955,-0.011
19.960,-0.014
19.965,-0.008
19.970,-0.012
19.975,-0.042
19.980,-0.081
19.985,-0.106
19.990,-0.147
19.995,-0.245
20.000,-0.447
20.005,-0.792
20.010,-1.064
20.015,-1.006
20.020,-0.706
20.025,-0.340
20.030,-0.007
20.035,0.177
20.040,0.275
20.045,0.398
20.050,0.499
20.055,0.531
20.060,0.527
20.065,0.516
20.070,0.480
20.075,0.432
20.080,0.389
20.085,0.317
20.090,0.234
20.095,0.192
20.100,0.169
20.105,0.130
20.110,0.097
20.115,0.087
20.120,0.081
20.125,0.064
20.130,0.058
20.135,0.059
20.140,0.044
20.145,0.035
20.150,0.041
20.155,0.034
20.160,0.023
20.165,0.026
20.170,0.024
20.175,0.013
20.180,0.014
20.185,0.015
20.190,-0.001
20.195,-0.005
20.200,0.006
20.205,-0.003
20.210,-0.015
20.215,-0.010
20.220,-0.015
20.225,-0.030
20.230,-0.030
20.235,-0.028
20.240,-0.042
20.245,-0.049
20.250,-0.046
20.255,-0.057
20.260,-0.071
20.265,-0.071
20.270,-0.079
20.275,-0.095
20.280,-0.097
20.285,-0.097
20.290,-0.110
20.295,-0.116
20.300,-0.108
20.305,-0.113
20.310,-0.120
20.315,-0.103
20.320,-0.089
20.325,-0.085
20.330,-0.062
20.335,-0.034
20.340,-0.022
20.345,0.002
20.350,0.035
20.355,0.046
20.360,0.055
20.365,0.077
20.370,0.086
20.375,0.081
20.380,0.093
20.385,0.106
20.390,0.095
20.395,0.091
20.400,0.099
20.405,0.090
20.410,0.081
20.415,0.089
20.420,0.087
20.425,0.072
20.430,0.072
20.435,0.077
20.440,0.065
20.445,0.059
20.450,0.064
20.455,0.055
20.460,0.045
20.465,0.048
20.470,0.046
20.475,0.032
20.480,0.032
20.485,0.037
20.490,0.024
20.495,0.017
20.500,0.022
20.505,0.013
20.510,0.002
20.515,0.011
20.520,0.009
20.525,-0.004
20.530,0.000
20.535,0.004
20.540,-0.008
20.545,-0.009
20.550,0.002
20.555,-0.005
20.560,-0.013
20.565,-0.003
20.570,-0.002
20.575,-0.012
20.580,-0.006
20.585,-0.001
20.590,-0.012
20.595,-0.013
20.600,-0.001
20.605,-0.005
20.610,-0.010
20.615,-0.001
20.620,-0.002
20.625,-0.014
20.630,-0.007
20.635,0.000
20.640,-0.011
20.645,-0.011
20.650,-0.002
20.655,-0.007
20.660,-0.014
20.665,-0.005
20.670,-0.002
20.675,-0.013
20.680,-0.010
20.685,-0.005
20.690,-0.015
20.695,-0.014
20.700,-0.005
20.705,-0.012
20.710,-0.019
20.715,-0.010
20.720,-0.010
20.725,-0.022
20.730,-0.016
20.735,-0.007
20.740,-0.017
20.745,-0.019
20.750,-0.009
20.755,-0.016
20.760,-0.023
20.765,-0.014
20.770,-0.013
20.775,-0.027
20.780,-0.025
20.785,-0.023
20.790,-0.039
20.795,-0.046
20.800,-0.041
20.805,-0.048
20.810,-0.056
20.815,-0.055
20.820,-0.057
20.825,-0.067
20.830,-0.074
20.835,-0.080
20.840,-0.084
20.845,-0.075
20.850,-0.058
20.855,-0.046
20.860,-0.028
20.865,0.003
20.870,0.008
20.875,-0.014
20.880,-0.016
20.885,-0.004
20.890,0.003
20.895,0.020
20.900,0.041
20.905,0.038
20.910,0.030
20.915,0.040
20.920,0.042
20.925,0.033
20.930,0.036
20.935,0.039
20.940,0.031
20.945,0.029
20.950,0.036
20.955,0.027
20.960,0.017
20.965,0.024
20.970,0.023
20.975,0.011
20.980,0.012
20.985,0.015
20.990,0.003
20.995,0.000
21.000,0.008
21.005,-0.001
21.010,-0.009
21.015,-0.001
21.020,-0.002
21.025,-0.014
21.030,-0.009
21.035,-0.003
21.040,-0.013
21.045,-0.015
21.050,-0.006
21.055,-0.012
21.060,-0.018
21.065,-0.007
21.070,-0.006
21.075,-0.018
21.080,-0.012
21.085,-0.006
21.090,-0.017
21.095,-0.016
21.100,-0.006
21.105,-0.012
21.110,-0.019
21.115,-0.010
21.120,-0.010
21.125,-0.021
21.130,-0.017
21.135,-0.019
21.140,-0.056
21.145,-0.102
21.150,-0.134
21.155,-0.182
21.160,-0.286
21.165,-0.492
21.170,-0.825
21.175,-1.062
21.180,-0.954
21.185,-0.621
21.190,-0.267
21.195,0.026
21.200,0.183
21.205,0.271
21.210,0.386
21.215,0.490
21.220,0.534
21.225,0.527
21.230,0.510
21.235,0.482
21.240,0.433
21.245,0.371
21.250,0.297
21.255,0.227
21.260,0.183
21.265,0.157
21.270,0.126
21.275,0.094
21.280,0.086
21.285,0.082
21.290,0.065
21.295,0.056
21.300,0.059
21.305,0.049
21.310,0.038
21.315,0.042
21.320,0.039
21.325,0.026
21.330,0.028
21.335,0.031
21.340,0.017
21.345,0.012
21.350,0.017
21.355,0.005
21.360,-0.004
21.365,0.003
21.370,0.000
21.375,-0.015
21.380,-0.014
21.385,-0.011
21.390,-0.025
21.395,-0.030
21.400,-0.026
21.405,-0.038
21.410,-0.052
21.415,-0.052
21.420,-0.060
21.425,-0.079
21.430,-0.083
21.435,-0.085
21.440,-0.102
21.445,-0.109
21.450,-0.106
21.455,-0.118
21.460,-0.129
21.465,-0.121
21.470,-0.121
21.475,-0.127
21.480,-0.115
21.485,-0.099
21.490,-0.092
21.495,-0.071
21.500,-0.038
21.505,-0.021
21.510,-0.002
21.515,0.028
21.520,0.048
21.525,0.056
21.530,0.076
21.535,0.092
21.540,0.090
21.545,0.094
21.550,0.105
21.555,0.101
21.560,0.095
21.565,0.101
21.570,0.098
21.575,0.087
21.580,0.089
21.585,0.092
21.590,0.079
21.595,0.074
21.600,0.080
21.605,0.069
21.610,0.059
21.615,0.066
21.620,0.063
21.625,0.050
21.630,0.053
21.635,0.052
21.640,0.036
21.645,0.035
21.650,0.044
21.655,0.032
21.660,0.022
21.665,0.029
21.670,0.026
21.675,0.013
21.680,0.015
21.685,0.016
21.690,0.003
21.695,0.001
21.700,0.010
21.705,0.004
21.710,-0.004
21.715,0.002
21.720,0.001
21.725,-0.009
21.730,-0.004
21.735,0.000
21.740,-0.009
21.745,-0.007
21.750,0.002
21.755,-0.005
21.760,-0.012
21.765,-0.001
21.770,0.001
21.775,-0.009
21.780,-0.004
21.785,0.003
21.790,-0.009
21.795,-0.012
21.800,-0.001
21.805,-0.009
21.810,-0.018
21.815,-0.010
21.820,-0.010
21.825,-0.018
21.830,-0.010
21.835,-0.004
21.840,-0.013
21.845,-0.013
21.850,-0.006
21.855,-0.014
21.860,-0.020
21.865,-0.011
21.870,-0.011
21.875,-0.021
21.880,-0.018
21.885,-0.015
21.890,-0.024
21.895,-0.024
21.900,-0.014
21.905,-0.018
21.910,-0.024
21.915,-0.014
21.920,-0.014
21.925,-0.024
21.930,-0.017
21.935,-0.011
21.940,-0.021
21.945,-0.024
21.950,-0.018
21.955,-0.027
21.960,-0.037
21.965,-0.031
21.970,-0.035
21.975,-0.051
21.980,-0.048
21.985,-0.044
21.990,-0.059
21.995,-0.063
22.000,-0.056
22.005,-0.072
22.010,-0.092
22.015,-0.085
22.020,-0.075
22.025,-0.077
22.030,-0.058
22.035,-0.025
22.040,-0.009
22.045,0.001
22.050,0.002
22.055,-0.015
22.060,-0.021
22.065,0.002
22.070,0.022
22.075,0.026
22.080,0.039
22.085,0.048
22.090,0.038
22.095,0.037
22.100,0.046
22.105,0.039
22.110,0.031
22.115,0.039
22.120,0.037
22.125,0.023
22.130,0.026
22.135,0.029
22.140,0.016
22.145,0.014
22.150,0.022
22.155,0.012
22.160,0.001
22.165,0.009
22.170,0.008
22.175,-0.006
22.180,-0.002
22.185,0.002
22.190,-0.008
22.195,-0.005
22.200,0.005
22.205,-0.003
22.210,-0.008
22.215,-0.001
22.220,-0.005
22.225,-0.016
22.230,-0.010
22.235,-0.004
22.240,-0.016
22.245,-0.018
22.250,-0.008
22.255,-0.013
22.260,-0.016
22.265,-0.005
22.270,-0.008
22.275,-0.019
22.280,-0.011
22.285,-0.006
22.290,-0.016
22.295,-0.017
22.300,-0.008
22.305,-0.015
22.310,-0.029
22.315,-0.050
22.320,-0.098
22.325,-0.142
22.330,-0.174
22.335,-0.276
22.340,-0.522
22.345,-0.864
22.350,-1.044
22.355,-0.907
22.360,-0.586
22.365,-0.226
22.370,0.048
22.375,0.178
22.380,0.290
22.385,0.418
22.390,0.489
22.395,0.514
22.400,0.522
22.405,0.495
22.410,0.455
22.415,0.427
22.420,0.374
22.425,0.286
22.430,0.222
22.435,0.185
22.440,0.142
22.445,0.113
22.450,0.098
22.455,0.073
22.460,0.057
22.465,0.060
22.470,0.051
22.475,0.036
22.480,0.039
22.485,0.040
22.490,0.026
22.495,0.021
22.500,0.025
22.505,0.014
22.510,0.005
22.515,0.012
22.520,0.011
22.525,-0.002
22.530,0.001
22.535,0.003
22.540,-0.013
22.545,-0.016
22.550,-0.011
22.555,-0.022
22.560,-0.030
22.565,-0.025
22.570,-0.032
22.575,-0.046
22.580,-0.044
22.585,-0.047
22.590,-0.065
22.595,-0.071
22.600,-0.071
22.605,-0.085
22.610,-0.100
22.615,-0.099
22.620,-0.104
22.625,-0.118
22.630,-0.116
22.635,-0.112
22.640,-0.123
22.645,-0.123
22.650,-0.110
22.655,-0.111
22.660,-0.106
22.665,-0.080
22.670,-0.062
22.675,-0.047
22.680,-0.013
22.685,0.012
22.690,0.024
22.695,0.048
22.700,0.073
22.705,0.079
22.710,0.083
22.715,0.100
22.720,0.105
22.725,0.098
22.730,0.105
22.735,0.108
22.740,0.095
22.745,0.093
22.750,0.099
22.755,0.088
22.760,0.080
22.765,0.089
22.770,0.085
22.775,0.070
22.780,0.073
22.785,0.076
22.790,0.060
22.795,0.054
22.800,0.059
22.805,0.047
22.810,0.036
22.815,0.042
22.820,0.037
22.825,0.025
22.830,0.030
22.835,0.032
22.840,0.018
22.845,0.016
22.850,0.019
22.855,0.006
22.860,-0.002
22.865,0.006
22.870,0.006
22.875,-0.002
22.880,0.002
22.885,0.006
22.890,-0.002
22.895,-0.001
22.900,0.006
22.905,-0.002
22.910,-0.008
22.915,0.001
22.920,-0.001
22.925,-0.010
22.930,-0.004
22.935,0.001
22.940,-0.008
22.945,-0.007
22.950,0.002
22.955,-0.005
22.960,-0.011
22.965,-0.001
22.970,0.001
22.975,-0.008
22.980,-0.001
22.985,0.003
22.990,-0.010
22.995,-0.010
23.000,-0.002
23.005,-0.009
23.010,-0.016
23.015,-0.008
23.020,-0.011
23.025,-0.018
23.030,-0.010
23.035,-0.010
23.040,-0.022
23.045,-0.019
23.050,-0.010
23.055,-0.016
23.060,-0.019
23.065,-0.009
23.070,-0.009
23.075,-0.017
23.080,-0.013
23.085,-0.012
23.090,-0.024
23.095,-0.022
23.100,-0.011
23.105,-0.016
23.110,-0.026
23.115,-0.025
23.120,-0.031
23.125,-0.044
23.130,-0.043
23.135,-0.041
23.140,-0.049
23.145,-0.051
23.150,-0.048
23.155,-0.057
23.160,-0.071
23.165,-0.083
23.170,-0.093
23.175,-0.092
23.180,-0.075
23.185,-0.056
23.190,-0.040
23.195,-0.011
23.200,0.012
23.205,0.000
23.210,-0.010
23.215,-0.004
23.220,0.001
23.225,0.012
23.230,0.034
23.235,0.043
23.240,0.034
23.245,0.036
23.250,0.044
23.255,0.033
23.260,0.026
23.265,0.034
23.270,0.030
23.275,0.019
23.280,0.026
23.285,0.030
23.290,0.020
23.295,0.019
23.300,0.022
23.305,0.010
23.310,0.002
23.315,0.006
23.320,0.000
23.325,-0.010
23.330,-0.001
23.335,0.005
23.340,-0.005
23.345,-0.006
23.350,0.000
23.355,-0.009
23.360,-0.015
23.365,-0.006
23.370,-0.009
23.375,-0.019
23.380,-0.012
23.385,-0.008
23.390,-0.019
23.395,-0.020
23.400,-0.011
23.405,-0.015
23.410,-0.018
23.415,-0.011
23.420,-0.015
23.425,-0.024
23.430,-0.016
23.435,-0.009
23.440,-0.019
23.445,-0.016
23.450,-0.006
23.455,-0.014
23.460,-0.019
23.465,-0.011
23.470,-0.024
23.475,-0.063
23.480,-0.095
23.485,-0.121
23.490,-0.179
23.495,-0.311
23.500,-0.575
23.505,-0.925
23.510,-1.066
23.515,-0.866
23.520,-0.531
23.525,-0.191
23.530,0.064
23.535,0.194
23.540,0.301
23.545,0.428
23.550,0.513
23.555,0.523
23.560,0.511
23.565,0.502
23.570,0.468
23.575,0.422
23.580,0.376
23.585,0.300
23.590,0.217
23.595,0.177
23.600,0.150
23.605,0.112
23.610,0.088
23.615,0.081
23.620,0.064
23.625,0.045
23.630,0.045
23.635,0.046
23.640,0.034
23.645,0.033
23.650,0.036
23.655,0.022
23.660,0.016
23.665,0.023
23.670,0.015
23.675,0.000
23.680,0.006
23.685,0.005
23.690,-0.011
23.695,-0.011
23.700,-0.005
23.705,-0.017
23.710,-0.024
23.715,-0.017
23.720,-0.026
23.725,-0.039
23.730,-0.033
23.735,-0.033
23.740,-0.051
23.745,-0.055
23.750,-0.050
23.755,-0.065
23.760,-0.078
23.765,-0.076
23.770,-0.087
23.775,-0.102
23.780,-0.100
23.785,-0.101
23.790,-0.116
23.795,-0.116
23.800,-0.106
23.805,-0.109
23.810,-0.111
23.815,-0.096
23.820,-0.085
23.825,-0.076
23.830,-0.048
23.835,-0.021
23.840,-0.010
23.845,0.013
23.850,0.043
23.855,0.055
23.860,0.067
23.865,0.088
23.870,0.094
23.875,0.092
23.880,0.105
23.885,0.109
23.890,0.100
23.895,0.101
23.900,0.106
23.905,0.096
23.910,0.090
23.915,0.097
23.920,0.091
23.925,0.079
23.930,0.081
23.935,0.078
23.940,0.062
23.945,0.060
23.950,0.065
23.955,0.052
23.960,0.045
23.965,0.054
23.970,0.047
23.975,0.033
23.980,0.036
23.985,0.035
23.990,0.021
23.995,0.019
24.000,0.024
24.005,0.012
24.010,0.004
24.015,0.011
24.020,0.006
24.025,-0.004
24.030,0.003
24.035,0.005
24.040,-0.006
24.045,-0.002
24.050,0.005
24.055,-0.005
24.060,-0.007
24.065,0.005
24.070,0.000
24.075,-0.009
24.080,0.000
24.085,0.002
24.090,-0.010
24.095,-0.007
24.100,0.002
24.105,-0.007
24.110,-0.010
24.115,0.000
24.120,-0.003
24.125,-0.012
24.130,-0.004
24.135,0.000
24.140,-0.012
24.145,-0.010
24.150,-0.002
24.155,-0.011
24.160,-0.015
24.165,-0.005
24.170,-0.008
24.175,-0.017
24.180,-0.009
24.185,-0.004
24.190,-0.015
24.195,-0.012
24.200,-0.005
24.205,-0.015
24.210,-0.018
24.215,-0.010
24.220,-0.014
24.225,-0.021
24.230,-0.012
24.235,-0.009
24.240,-0.020
24.245,-0.019
24.250,-0.012
24.255,-0.020
24.260,-0.023
24.265,-0.013
24.270,-0.021
24.275,-0.035
24.280,-0.030
24.285,-0.032
24.290,-0.048
24.295,-0.048
24.300,-0.040
24.305,-0.053
24.310,-0.063
24.315,-0.054
24.320,-0.064
24.325,-0.090
24.330,-0.087
24.335,-0.075
24.340,-0.079
24.345,-0.063
24.350,-0.030
24.355,-0.012
24.360,-0.002
24.365,0.003
24.370,-0.006
24.375,-0.016
24.380,0.000
24.385,0.022
24.390,0.028
24.395,0.039
24.400,0.048
24.405,0.038
24.410,0.036
24.415,0.045
24.420,0.040
24.425,0.031
24.430,0.038
24.435,0.038
24.440,0.026
24.445,0.027
24.450,0.029
24.455,0.016
24.460,0.011
24.465,0.019
24.470,0.014
24.475,0.004
24.480,0.011
24.485,0.011
24.490,-0.003
24.495,-0.003
24.500,0.003
24.505,-0.005
24.510,-0.008
24.515,0.001
24.520,-0.003
24.525,-0.012
24.530,-0.005
24.535,-0.003
24.540,-0.014
24.545,-0.012
24.550,-0.003
24.555,-0.011
24.560,-0.015
24.565,-0.005
24.570,-0.008
24.575,-0.018
24.580,-0.010
24.585,-0.006
24.590,-0.015
24.595,-0.011
24.600,-0.004
24.605,-0.015
24.610,-0.019
24.615,-0.008
24.620,-0.012
24.625,-0.025
24.630,-0.041
24.635,-0.084
24.640,-0.134
24.645,-0.164
24.650,-0.235
24.655,-0.430
24.660,-0.752
24.665,-1.017
24.670,-0.982
24.675,-0.694
24.680,-0.337
24.685,-0.028
24.690,0.134
24.695,0.236
24.700,0.367
24.705,0.463
24.710,0.511
24.715,0.527
24.720,0.510
24.725,0.478
24.730,0.453
24.735,0.411
24.740,0.328
24.745,0.251
24.750,0.206
24.755,0.161
24.760,0.124
24.765,0.105
24.770,0.083
24.775,0.063
24.780,0.064
24.785,0.058
24.790,0.040
24.795,0.037
24.800,0.041
24.805,0.029
24.810,0.023
24.815,0.030
24.820,0.021
24.825,0.010
24.830,0.016
24.835,0.016
24.840,0.002
24.845,0.002
24.850,0.007
24.855,-0.005
24.860,-0.012
24.865,-0.006
24.870,-0.013
24.875,-0.024
24.880,-0.020
24.885,-0.022
24.890,-0.039
24.895,-0.043
24.900,-0.041
24.905,-0.056
24.910,-0.067
24.915,-0.065
24.920,-0.077
24.925,-0.093
24.930,-0.092
24.935,-0.097
24.940,-0.114
24.945,-0.117
24.950,-0.112
24.955,-0.124
24.960,-0.126
24.965,-0.112
24.970,-0.110
24.975,-0.109
24.980,-0.084
24.985,-0.060
24.990,-0.048
24.995,-0.022
25.000,0.007
25.005,0.019
25.010,0.038
25.015,0.066
25.020,0.074
25.025,0.077
25.030,0.095
25.035,0.103
25.040,0.095
25.045,0.099
25.050,0.104
25.055,0.094
25.060,0.092
25.065,0.100
25.070,0.091
25.075,0.079
25.080,0.085
25.085,0.084
25.090,0.071
25.095,0.072
25.100,0.073
25.105,0.060
25.110,0.055
25.115,0.060
25.120,0.052
25.125,0.040
25.130,0.043
25.135,0.042
25.140,0.029
25.145,0.028
25.150,0.030
25.155,0.016
25.160,0.010
25.165,0.017
25.170,0.011
25.175,0.000
25.180,0.005
25.185,0.002
25.190,-0.011
25.195,-0.009
25.200,-0.001
25.205,-0.009
25.210,-0.012
25.215,-0.003
25.220,-0.006
25.225,-0.014
25.230,-0.005
25.235,-0.001
25.240,-0.011
25.245,-0.007
25.250,0.001
25.255,-0.007
25.260,-0.009
25.265,-0.001
25.270,-0.005
25.275,-0.009
25.280,-0.001
25.285,-0.002
25.290,-0.011
25.295,-0.006
25.300,0.002
25.305,-0.008
25.310,-0.010
25.315,-0.002
25.320,-0.009
25.325,-0.016
25.330,-0.007
25.335,-0.006
25.340,-0.017
25.345,-0.013
25.350,-0.005
25.355,-0.017
25.360,-0.022
25.365,-0.011
25.370,-0.013
25.375,-0.020
25.380,-0.011
25.385,-0.009
25.390,-0.022
25.395,-0.022
25.400,-0.013
25.405,-0.019
25.410,-0.021
25.415,-0.012
25.420,-0.018
25.425,-0.028
25.430,-0.023
25.435,-0.025
25.440,-0.037
25.445,-0.034
25.450,-0.032
25.455,-0.048
25.460,-0.051
25.465,-0.039
25.470,-0.050
25.475,-0.064
25.480,-0.059
25.485,-0.071
25.490,-0.097
25.495,-0.087
25.500,-0.068
25.505,-0.070
25.510,-0.054
25.515,-0.015
25.520,0.000
25.525,-0.008
25.530,-0.005
25.535,-0.006
25.540,-0.013
25.545,0.008
25.550,0.036
25.555,0.040
25.560,0.043
25.565,0.050
25.570,0.043
25.575,0.033
25.580,0.040
25.585,0.042
25.590,0.027
25.595,0.030
25.600,0.038
25.605,0.027
25.610,0.025
25.615,0.034
25.620,0.025
25.625,0.013
25.630,0.018
25.635,0.016
25.640,0.006
25.645,0.009
25.650,0.014
25.655,0.001
25.660,-0.005
25.665,0.001
25.670,-0.004
25.675,-0.012
25.680,-0.006
25.685,-0.005
25.690,-0.017
25.695,-0.013
25.700,-0.006
25.705,-0.017
25.710,-0.017
25.715,-0.004
25.720,-0.009
25.725,-0.014
25.730,-0.005
25.735,-0.008
25.740,-0.020
25.745,-0.015
25.750,-0.008
25.755,-0.015
25.760,-0.016
25.765,-0.006
25.770,-0.013
25.775,-0.023
25.780,-0.012
25.785,-0.014
25.790,-0.044
25.795,-0.078
25.800,-0.106
25.805,-0.143
25.810,-0.206
25.815,-0.358
25.820,-0.670
25.825,-0.993
25.830,-1.026
25.835,-0.775
25.840,-0.440
25.845,-0.098
25.850,0.122
25.855,0.222
25.860,0.346
25.865,0.470
25.870,0.517
25.875,0.515
25.880,0.516
25.885,0.496
25.890,0.452
25.895,0.418
25.900,0.363
25.905,0.268
25.910,0.201
25.915,0.171
25.920,0.129
25.925,0.091
25.930,0.079
25.935,0.065
25.940,0.047
25.945,0.046
25.950,0.047
25.955,0.032
25.960,0.029
25.965,0.037
25.970,0.024
25.975,0.012
25.980,0.020
25.985,0.017
25.990,0.004
25.995,0.008
26.000,0.009
26.005,-0.010
26.010,-0.014
26.015,-0.004
26.020,-0.011
26.025,-0.020
26.030,-0.015
26.035,-0.020
26.040,-0.035
26.045,-0.035
26.050,-0.032
26.055,-0.047
26.060,-0.055
26.065,-0.053
26.070,-0.067
26.075,-0.083
26.080,-0.082
26.085,-0.087
26.090,-0.104
26.095,-0.104
26.100,-0.098
26.105,-0.113
26.110,-0.123
26.115,-0.115
26.120,-0.116
26.125,-0.122
26.130,-0.109
26.135,-0.098
26.140,-0.097
26.145,-0.075
26.150,-0.048
26.155,-0.037
26.160,-0.011
26.165,0.026
26.170,0.043
26.175,0.057
26.180,0.086
26.185,0.099
26.190,0.094
26.195,0.103
26.200,0.111
26.205,0.101
26.210,0.100
26.215,0.110
26.220,0.102
26.225,0.090
26.230,0.098
26.235,0.098
26.240,0.083
26.245,0.083
26.250,0.090
26.255,0.078
26.260,0.072
26.265,0.072
26.270,0.058
26.275,0.049
26.280,0.056
26.285,0.054
26.290,0.041
26.295,0.039
26.300,0.044
26.305,0.036
26.310,0.032
26.315,0.034
26.320,0.024
26.325,0.013
26.330,0.013
26.335,0.003
26.340,-0.006
26.345,0.005
26.350,0.011
26.355,-0.003
26.360,-0.005
26.365,0.003
26.370,-0.003
26.375,-0.009
26.380,0.001
26.385,0.002
26.390,-0.013
26.395,-0.012
26.400,-0.005
26.405,-0.011
26.410,-0.007
26.415,0.005
26.420,-0.002
26.425,-0.008
26.430,0.006
26.435,0.002
26.440,-0.015
26.445,-0.009
26.450,-0.001
26.455,-0.014
26.460,-0.015
26.465,-0.004
26.470,-0.008
26.475,-0.010
26.480,0.000
26.485,-0.001
26.490,-0.009
26.495,-0.007
26.500,-0.007
26.505,-0.022
26.510,-0.028
26.515,-0.016
26.520,-0.015
26.525,-0.019
26.530,-0.010
26.535,-0.012
26.540,-0.022
26.545,-0.015
26.550,-0.005
26.555,-0.012
26.560,-0.014
26.565,-0.010
26.570,-0.025
26.575,-0.040
26.580,-0.033
26.585,-0.034
26.590,-0.051
26.595,-0.050
26.600,-0.042
26.605,-0.053
26.610,-0.057
26.615,-0.048
26.620,-0.065
26.625,-0.093
26.630,-0.089
26.635,-0.076
26.640,-0.079
26.645,-0.070
26.650,-0.043
26.655,-0.023
26.660,-0.007
26.665,0.007
26.670,-0.001
26.675,-0.010
26.680,0.008
26.685,0.024
26.690,0.025
26.695,0.033
26.700,0.036
26.705,0.026
26.710,0.031
26.715,0.043
26.720,0.033
26.725,0.023
26.730,0.033
26.735,0.031
26.740,0.018
26.745,0.022
26.750,0.026
26.755,0.016
26.760,0.014
26.765,0.022
26.770,0.016
26.775,0.007
26.780,0.011
26.785,0.010
26.790,-0.004
26.795,-0.006
26.800,-0.003
26.805,-0.010
26.810,-0.008
26.815,0.003
26.820,-0.001
26.825,-0.008
26.830,-0.002
26.835,-0.002
26.840,-0.014
26.845,-0.013
26.850,-0.009
26.855,-0.018
26.860,-0.016
26.865,-0.009
26.870,-0.016
26.875,-0.020
26.880,-0.009
26.885,-0.009
26.890,-0.014
26.895,-0.005
26.900,0.000
26.905,-0.013
26.910,-0.017
26.915,-0.010
26.920,-0.014
26.925,-0.033
26.930,-0.063
26.935,-0.100
26.940,-0.143
26.945,-0.219
26.950,-0.416
26.955,-0.774
26.960,-1.064
26.965,-1.021
26.970,-0.732
26.975,-0.372
26.980,-0.036
26.985,0.152
26.990,0.251
26.995,0.384
27.000,0.491
27.005,0.521
27.010,0.522
27.015,0.521
27.020,0.495
27.025,0.457
27.030,0.426
27.035,0.361
27.040,0.267
27.045,0.205
27.050,0.165
27.055,0.119
27.060,0.096
27.065,0.089
27.070,0.069
27.075,0.054
27.080,0.051
27.085,0.037
27.090,0.021
27.095,0.025
27.100,0.029
27.105,0.015
27.110,0.013
27.115,0.021
27.120,0.010
27.125,-0.002
27.130,0.008
27.135,0.008
27.140,-0.008
27.145,-0.008
27.150,-0.009
27.155,-0.024
27.160,-0.025
27.165,-0.018
27.170,-0.029
27.175,-0.041
27.180,-0.034
27.185,-0.037
27.190,-0.058
27.195,-0.061
27.200,-0.057
27.205,-0.070
27.210,-0.081
27.215,-0.082
27.220,-0.098
27.225,-0.113
27.230,-0.107
27.235,-0.106
27.240,-0.118
27.245,-0.120
27.250,-0.117
27.255,-0.122
27.260,-0.117
27.265,-0.105
27.270,-0.104
27.275,-0.094
27.280,-0.061
27.285,-0.032
27.290,-0.021
27.295,0.004
27.300,0.030
27.305,0.040
27.310,0.058
27.315,0.082
27.320,0.090
27.325,0.099
27.330,0.115
27.335,0.116
27.340,0.108
27.345,0.111
27.350,0.109
27.355,0.093
27.360,0.088
27.365,0.099
27.370,0.092
27.375,0.080
27.380,0.087
27.385,0.086
27.390,0.073
27.395,0.074
27.400,0.077
27.405,0.062
27.410,0.054
27.415,0.060
27.420,0.051
27.425,0.040
27.430,0.045
27.435,0.040
27.440,0.027
27.445,0.025
27.450,0.020
27.455,0.008
27.460,0.009
27.465,0.018
27.470,0.008
27.475,-0.002
27.480,0.010
27.485,0.010
27.490,-0.008
27.495,-0.008
27.500,-0.002
27.505,-0.011
27.510,-0.010
27.515,0.001
27.520,-0.008
27.525,-0.016
27.530,-0.006
27.535,-0.006
27.540,-0.014
27.545,-0.006
27.550,0.001
27.555,-0.010
27.560,-0.011
27.565,-0.002
27.570,-0.008
27.575,-0.015
27.580,-0.006
27.585,-0.007
27.590,-0.017
27.595,-0.011
27.600,-0.004
27.605,-0.013
27.610,-0.013
27.615,-0.002
27.620,-0.010
27.625,-0.018
27.630,-0.006
27.635,-0.006
27.640,-0.017
27.645,-0.012
27.650,-0.008
27.655,-0.018
27.660,-0.018
27.665,-0.010
27.670,-0.017
27.675,-0.022
27.680,-0.014
27.685,-0.015
27.690,-0.023
27.695,-0.015
27.700,-0.009
27.705,-0.020
27.710,-0.019
27.715,-0.008
27.720,-0.016
27.725,-0.023
27.730,-0.014
27.735,-0.018
27.740,-0.034
27.745,-0.033
27.750,-0.031
27.755,-0.049
27.760,-0.052
27.765,-0.041
27.770,-0.052
27.775,-0.061
27.780,-0.050
27.785,-0.060
27.790,-0.087
27.795,-0.083
27.800,-0.067
27.805,-0.073
27.810,-0.064
27.815,-0.029
27.820,-0.010
27.825,-0.005
27.830,0.002
27.835,-0.006
27.840,-0.020
27.845,0.000
27.850,0.026
27.855,0.029
27.860,0.035
27.865,0.043
27.870,0.035
27.875,0.029
27.880,0.038
27.885,0.038
27.890,0.027
27.895,0.031
27.900,0.037
27.905,0.025
27.910,0.021
27.915,0.027
27.920,0.018
27.925,0.011
27.930,0.018
27.935,0.015
27.940,0.003
27.945,0.005
27.950,0.007
27.955,-0.006
27.960,-0.007
27.965,0.002
27.970,-0.007
27.975,-0.013
27.980,-0.003
27.985,-0.003
27.990,-0.013
27.995,-0.007
28.000,-0.002
28.005,-0.015
28.010,-0.014
28.015,-0.004
28.020,-0.011
28.025,-0.016
28.030,-0.006
28.035,-0.006
28.040,-0.017
28.045,-0.011
28.050,-0.004
28.055,-0.015
28.060,-0.016
28.065,-0.006
28.070,-0.012
28.075,-0.018
28.080,-0.013
28.085,-0.037
28.090,-0.088
28.095,-0.117
28.100,-0.147
28.105,-0.244
28.110,-0.440
28.115,-0.764
28.120,-1.054
28.125,-1.024
28.130,-0.712
28.135,-0.353
28.140,-0.048
28.145,0.133
28.150,0.235
28.155,0.348
28.160,0.462
28.165,0.532
28.170,0.535
28.175,0.514
28.180,0.496
28.185,0.460
28.190,0.403
28.195,0.336
28.200,0.263
28.205,0.200
28.210,0.166
28.215,0.143
28.220,0.111
28.225,0.087
28.230,0.084
28.235,0.074
28.240,0.055
28.245,0.055
28.250,0.056
28.255,0.039
28.260,0.035
28.265,0.042
28.270,0.032
28.275,0.023
28.280,0.028
28.285,0.024
28.290,0.011
28.295,0.013
28.300,0.015
28.305,0.001
28.310,-0.002
28.315,0.004
28.320,-0.008
28.325,-0.018
28.330,-0.013
28.335,-0.019
28.340,-0.034
28.345,-0.033
28.350,-0.032
28.355,-0.050
28.360,-0.056
28.365,-0.051
28.370,-0.067
28.375,-0.082
28.380,-0.080
28.385,-0.088
28.390,-0.104
28.395,-0.101
28.400,-0.103
28.405,-0.120
28.410,-0.120
28.415,-0.109
28.420,-0.114
28.425,-0.113
28.430,-0.093
28.435,-0.080
28.440,-0.072
28.445,-0.044
28.450,-0.015
28.455,-0.002
28.460,0.020
28.465,0.047
28.470,0.056
28.475,0.065
28.480,0.086
28.485,0.094
28.490,0.089
28.495,0.097
28.500,0.104
28.505,0.092
28.510,0.091
28.515,0.098
28.520,0.089
28.525,0.081
28.530,0.088
28.535,0.084
28.540,0.070
28.545,0.073
28.550,0.075
28.555,0.061
28.560,0.057
28.565,0.063
28.570,0.052
28.575,0.043
28.580,0.049
28.585,0.043
28.590,0.030
28.595,0.033
28.600,0.032
28.605,0.018
28.610,0.015
28.615,0.019
28.620,0.007
28.625,-0.001
28.630,0.007
28.635,0.004
28.640,-0.008
28.645,-0.003
28.650,0.001
28.655,-0.012
28.660,-0.012
28.665,-0.002
28.670,-0.010
28.675,-0.015
28.680,-0.004
28.685,-0.007
28.690,-0.018
28.695,-0.010
28.700,-0.004
28.705,-0.015
28.710,-0.014
28.715,-0.004
28.720,-0.011
28.725,-0.017
28.730,-0.006
28.735,-0.007
28.740,-0.017
28.745,-0.008
28.750,-0.002
28.755,-0.015
28.760,-0.017
28.765,-0.007
28.770,-0.012
28.775,-0.016
28.780,-0.007
28.785,-0.011
28.790,-0.021
28.795,-0.013
28.800,-0.007
28.805,-0.019
28.810,-0.019
28.815,-0.009
28.820,-0.015
28.825,-0.019
28.830,-0.009
28.835,-0.014
28.840,-0.025
28.845,-0.016
28.850,-0.010
28.855,-0.022
28.860,-0.021
28.865,-0.010
28.870,-0.018
28.875,-0.023
28.880,-0.014
28.885,-0.017
28.890,-0.026
28.895,-0.018
28.900,-0.014
28.905,-0.027
28.910,-0.030
28.915,-0.026
28.920,-0.039
28.925,-0.051
28.930,-0.044
28.935,-0.046
28.940,-0.061
28.945,-0.060
28.950,-0.056
28.955,-0.069
28.960,-0.080
28.965,-0.079
28.970,-0.080
28.975,-0.078
28.980,-0.060
28.985,-0.042
28.990,-0.022
28.995,0.006
29.000,0.009
29.005,-0.012
29.010,-0.013
29.015,0.002
29.020,0.012
29.025,0.027
29.030,0.047
29.035,0.047
29.040,0.034
29.045,0.042
29.050,0.047
29.055,0.034
29.060,0.033
29.065,0.042
29.070,0.032
29.075,0.025
29.080,0.033
29.085,0.029
29.090,0.018
29.095,0.022
29.100,0.024
29.105,0.012
29.110,0.010
29.115,0.017
29.120,0.007
29.125,-0.001
29.130,0.008
29.135,0.004
29.140,-0.008
29.145,-0.002
29.150,0.002
29.155,-0.010
29.160,-0.011
29.165,-0.002
29.170,-0.008
29.175,-0.012
29.180,-0.003
29.185,-0.006
29.190,-0.017
29.195,-0.007
29.200,-0.001
29.205,-0.012
29.210,-0.011
29.215,-0.003
29.220,-0.011
29.225,-0.016
29.230,-0.007
29.235,-0.008
29.240,-0.018
29.245,-0.010
29.250,-0.006
29.255,-0.021
29.260,-0.038
29.265,-0.071
29.270,-0.123
29.275,-0.160
29.280,-0.204
29.285,-0.342
29.290,-0.621
29.295,-0.935
29.300,-1.014
29.305,-0.792
29.310,-0.449
29.315,-0.104
29.320,0.110
29.325,0.210
29.330,0.326
29.335,0.435
29.340,0.494
29.345,0.523
29.350,0.521
29.355,0.485
29.360,0.453
29.365,0.423
29.370,0.348
29.375,0.261
29.380,0.212
29.385,0.175
29.390,0.131
29.395,0.110
29.400,0.093
29.405,0.068
29.410,0.062
29.415,0.062
29.420,0.045
29.425,0.036
29.430,0.043
29.435,0.038
29.440,0.024
29.445,0.027
29.450,0.028
29.455,0.014
29.460,0.013
29.465,0.018
29.470,0.007
29.475,0.001
29.480,0.008
29.485,0.002
29.490,-0.012
29.495,-0.010
29.500,-0.010
29.505,-0.024
29.510,-0.026
29.515,-0.022
29.520,-0.036
29.525,-0.046
29.530,-0.042
29.535,-0.052
29.540,-0.069
29.545,-0.069
29.550,-0.072
29.555,-0.090
29.560,-0.097
29.565,-0.097
29.570,-0.112
29.575,-0.122
29.580,-0.117
29.585,-0.123
29.590,-0.132
29.595,-0.123
29.600,-0.114
29.605,-0.116
29.610,-0.098
29.615,-0.071
29.620,-0.057
29.625,-0.037
29.630,-0.003
29.635,0.017
29.640,0.029
29.645,0.056
29.650,0.074
29.655,0.076
29.660,0.091
29.665,0.106
29.670,0.101
29.675,0.098
29.680,0.106
29.685,0.104
29.690,0.094
29.695,0.098
29.700,0.098
29.705,0.085
29.710,0.084
29.715,0.090
29.720,0.078
29.725,0.071
29.730,0.079
29.735,0.072
29.740,0.059
29.745,0.063
29.750,0.061
29.755,0.046
29.760,0.046
29.765,0.049
29.770,0.034
29.775,0.028
29.780,0.034
29.785,0.027
29.790,0.014
29.795,0.018
29.800,0.018
29.805,0.003
29.810,0.005
29.815,0.012
29.820,0.001
29.825,-0.004
29.830,0.007
29.835,0.003
29.840,-0.008
29.845,0.000
29.850,0.004
29.855,-0.008
29.860,-0.007
29.865,0.000
29.870,-0.008
29.875,-0.009
29.880,0.002
29.885,-0.001
29.890,-0.011
29.895,-0.004
29.900,0.000
29.905,-0.009
29.910,-0.006
29.915,0.002
29.920,-0.006
29.925,-0.009
29.930,0.001
29.935,-0.004
29.940,-0.012
29.945,-0.004
29.950,-0.003
29.955,-0.017
29.960,-0.016
29.965,-0.004
29.970,-0.009
29.975,-0.014
29.980,-0.004
29.985,-0.008
29.990,-0.020
29.995,-0.014
30.000,-0.011
30.005,-0.022
30.010,-0.019
30.015,-0.011
30.020,-0.020
30.025,-0.022
30.030,-0.008
30.035,-0.012
30.040,-0.025
30.045,-0.018
30.050,-0.018
30.055,-0.036
30.060,-0.037
30.065,-0.030
30.070,-0.042
30.075,-0.048
30.080,-0.037
30.085,-0.047
30.090,-0.067
30.095,-0.062
30.100,-0.066
30.105,-0.092
30.110,-0.094
30.115,-0.076
30.120,-0.076
30.125,-0.070
30.130,-0.040
30.135,-0.017
30.140,-0.010
30.145,-0.002
30.150,-0.002
30.155,-0.014
30.160,-0.003
30.165,0.022
30.170,0.028
30.175,0.030
30.180,0.042
30.185,0.038
30.190,0.029
30.195,0.037
30.200,0.038
30.205,0.027
30.210,0.032
30.215,0.038
30.220,0.026
30.225,0.021
30.230,0.031
30.235,0.026
30.240,0.013
30.245,0.016
30.250,0.014
30.255,-0.001
30.260,-0.001
30.265,0.008
30.270,0.001
30.275,-0.003
30.280,0.005
30.285,-0.002
30.290,-0.013
30.295,-0.005
30.300,-0.001
30.305,-0.011
30.310,-0.009
30.315,-0.002
30.320,-0.011
30.325,-0.019
30.330,-0.010
30.335,-0.010
30.340,-0.017
30.345,-0.011
30.350,-0.010
30.355,-0.020
30.360,-0.017
30.365,-0.005
30.370,-0.011
30.375,-0.014
30.380,-0.004
30.385,-0.007
30.390,-0.017
30.395,-0.007
30.400,-0.005
30.405,-0.030
30.410,-0.065
30.415,-0.100
30.420,-0.138
30.425,-0.185
30.430,-0.295
30.435,-0.559
30.440,-0.912
30.445,-1.052
30.450,-0.871
30.455,-0.551
30.460,-0.198
30.465,0.068
30.470,0.189
30.475,0.300
30.480,0.432
30.485,0.502
30.490,0.512
30.495,0.515
30.500,0.504
30.505,0.470
30.510,0.439
30.515,0.391
30.520,0.299
30.525,0.217
30.530,0.179
30.535,0.145
30.540,0.107
30.545,0.093
30.550,0.081
30.555,0.060
30.560,0.055
30.565,0.053
30.570,0.033
30.575,0.025
30.580,0.030
30.585,0.021
30.590,0.011
30.595,0.021
30.600,0.021
30.605,0.007
30.610,0.009
30.615,0.011
30.620,-0.005
30.625,-0.009
30.630,-0.001
30.635,-0.009
30.640,-0.020
30.645,-0.017
30.650,-0.018
30.655,-0.031
30.660,-0.034
30.665,-0.031
30.670,-0.045
30.675,-0.054
30.680,-0.051
30.685,-0.061
30.690,-0.075
30.695,-0.072
30.700,-0.077
30.705,-0.094
30.710,-0.099
30.715,-0.101
30.720,-0.117
30.725,-0.126
30.730,-0.118
30.735,-0.120
30.740,-0.128
30.745,-0.117
30.750,-0.104
30.755,-0.099
30.760,-0.075
30.765,-0.048
30.770,-0.037
30.775,-0.016
30.780,0.020
30.785,0.043
30.790,0.057
30.795,0.076
30.800,0.085
30.805,0.081
30.810,0.090
30.815,0.105
30.820,0.101
30.825,0.101
30.830,0.113
30.835,0.106
30.840,0.092
30.845,0.098
30.850,0.096
30.855,0.079
30.860,0.080
30.865,0.086
30.870,0.074
30.875,0.068
30.880,0.075
30.885,0.067
30.890,0.052
30.895,0.056
30.900,0.055
30.905,0.037
30.910,0.036
30.915,0.042
30.920,0.029
30.925,0.025
30.930,0.036
30.935,0.030
30.940,0.017
30.945,0.020
30.950,0.019
30.955,0.005
30.960,0.002
30.965,0.006
30.970,-0.005
30.975,-0.009
30.980,0.000
30.985,-0.005
30.990,-0.012
30.995,-0.002
31.000,0.003
31.005,-0.004
31.010,-0.001
31.015,0.007
31.020,-0.002
31.025,-0.008
31.030,0.003
31.035,0.001
31.040,-0.009
31.045,-0.001
31.050,0.002
31.055,-0.010
31.060,-0.008
31.065,-0.003
31.070,-0.012
31.075,-0.013
31.080,-0.001
31.085,-0.003
31.090,-0.013
31.095,-0.003
31.100,0.003
31.105,-0.004
31.110,-0.007
31.115,-0.006
31.120,-0.015
31.125,-0.020
31.130,-0.010
31.135,-0.014
31.140,-0.022
31.145,-0.013
31.150,-0.007
31.155,-0.014
31.160,-0.009
31.165,0.000
31.170,-0.011
31.175,-0.016
31.180,-0.008
31.185,-0.017
31.190,-0.025
31.195,-0.013
31.200,-0.014
31.205,-0.030
31.210,-0.026
31.215,-0.022
31.220,-0.036
31.225,-0.042
31.230,-0.038
31.235,-0.042
31.240,-0.045
31.245,-0.041
31.250,-0.044
31.255,-0.060
31.260,-0.074
31.265,-0.085
31.270,-0.095
31.275,-0.091
31.280,-0.071
31.285,-0.057
31.290,-0.035
31.295,0.003
31.300,0.014
31.305,-0.004
31.310,-0.007
31.315,-0.001
31.320,0.002
31.325,0.018
31.330,0.038
31.335,0.042
31.340,0.036
31.345,0.042
31.350,0.044
31.355,0.030
31.360,0.033
31.365,0.042
31.370,0.029
31.375,0.021
31.380,0.026
31.385,0.014
31.390,0.006
31.395,0.022
31.400,0.026
31.405,0.015
31.410,0.019
31.415,0.023
31.420,0.006
31.425,-0.002
31.430,0.004
31.435,-0.006
31.440,-0.021
31.445,-0.013
31.450,-0.009
31.455,-0.017
31.460,-0.010
31.465,-0.003
31.470,-0.016
31.475,-0.017
31.480,-0.005
31.485,-0.010
31.490,-0.019
31.495,-0.009
31.500,-0.008
31.505,-0.022
31.510,-0.017
31.515,-0.008
31.520,-0.018
31.525,-0.015
31.530,-0.002
31.535,-0.010
31.540,-0.021
31.545,-0.013
31.550,-0.014
31.555,-0.035
31.560,-0.056
31.565,-0.084
31.570,-0.124
31.575,-0.166
31.580,-0.275
31.585,-0.545
31.590,-0.913
31.595,-1.079
31.600,-0.916
31.605,-0.592
31.610,-0.223
31.615,0.062
31.620,0.192
31.625,0.304
31.630,0.440
31.635,0.512
31.640,0.519
31.645,0.524
31.650,0.510
31.655,0.471
31.660,0.441
31.665,0.399
31.670,0.312
31.675,0.231
31.680,0.190
31.685,0.149
31.690,0.106
31.695,0.089
31.700,0.073
31.705,0.054
31.710,0.055
31.715,0.056
31.720,0.038
31.725,0.028
31.730,0.032
31.735,0.024
31.740,0.015
31.745,0.021
31.750,0.015
31.755,0.000
31.760,0.002
31.765,0.006
31.770,-0.009
31.775,-0.016
31.780,-0.007
31.785,-0.012
31.790,-0.022
31.795,-0.018
31.800,-0.020
31.805,-0.035
31.810,-0.036
31.815,-0.034
31.820,-0.050
31.825,-0.060
31.830,-0.052
31.835,-0.056
31.840,-0.070
31.845,-0.075
31.850,-0.087
31.855,-0.104
31.860,-0.105
31.865,-0.104
31.870,-0.118
31.875,-0.122
31.880,-0.115
31.885,-0.125
31.890,-0.131
31.895,-0.113
31.900,-0.102
31.905,-0.099
31.910,-0.076
31.915,-0.047
31.920,-0.035
31.925,-0.015
31.930,0.014
31.935,0.031
31.940,0.046
31.945,0.072
31.950,0.085
31.955,0.083
31.960,0.094
31.965,0.106
31.970,0.100
31.975,0.100
31.980,0.109
31.985,0.101
31.990,0.091
31.995,0.096
32.000,0.094
32.005,0.080
32.010,0.081
32.015,0.083
32.020,0.069
32.025,0.063
32.030,0.070
32.035,0.062
32.040,0.051
32.045,0.055
32.050,0.052
32.055,0.038
32.060,0.036
32.065,0.037
32.070,0.024
32.075,0.020
32.080,0.027
32.085,0.017
32.090,0.006
32.095,0.012
32.100,0.010
32.105,-0.003
32.110,-0.001
32.115,0.003
32.120,-0.009
32.125,-0.010
32.130,0.002
32.135,-0.004
32.140,-0.012
32.145,-0.002
32.150,-0.001
32.155,-0.012
32.160,-0.008
32.165,0.000
32.170,-0.007
32.175,-0.009
32.180,0.002
32.185,-0.002
32.190,-0.011
32.195,-0.005
32.200,-0.005
32.205,-0.013
32.210,-0.009
32.215,-0.002
32.220,-0.009
32.225,-0.010
32.230,-0.001
32.235,-0.005
32.240,-0.013
32.245,-0.006
32.250,-0.004
32.255,-0.013
32.260,-0.010
32.265,-0.004
32.270,-0.014
32.275,-0.016
32.280,-0.008
32.285,-0.013
32.290,-0.019
32.295,-0.012
32.300,-0.012
32.305,-0.022
32.310,-0.017
32.315,-0.009
32.320,-0.020
32.325,-0.021
32.330,-0.011
32.335,-0.018
32.340,-0.025
32.345,-0.012
32.350,-0.012
32.355,-0.024
32.360,-0.018
32.365,-0.010
32.370,-0.023
32.375,-0.029
32.380,-0.024
32.385,-0.032
32.390,-0.044
32.395,-0.043
32.400,-0.045
32.405,-0.054
32.410,-0.054
32.415,-0.052
32.420,-0.063
32.425,-0.075
32.430,-0.078
32.435,-0.081
32.440,-0.080
32.445,-0.066
32.450,-0.050
32.455,-0.034
32.460,-0.004
32.465,0.010
32.470,-0.008
32.475,-0.014
32.480,-0.001
32.485,0.005
32.490,0.018
32.495,0.042
32.500,0.047
32.505,0.036
32.510,0.041
32.515,0.048
32.520,0.037
32.525,0.035
32.530,0.043
32.535,0.035
32.540,0.027
32.545,0.035
32.550,0.032
32.555,0.020
32.560,0.023
32.565,0.026
32.570,0.014
32.575,0.011
32.580,0.018
32.585,0.010
32.590,0.002
32.595,0.010
32.600,0.007
32.605,-0.006
32.610,-0.001
32.615,0.007
32.620,-0.006
32.625,-0.009
32.630,0.001
32.635,-0.004
32.640,-0.012
32.645,-0.005
32.650,-0.004
32.655,-0.014
32.660,-0.009
32.665,-0.003
32.670,-0.013
32.675,-0.012
32.680,-0.004
32.685,-0.011
32.690,-0.017
32.695,-0.008
32.700,-0.007
32.705,-0.016
32.710,-0.010
32.715,-0.008
32.720,-0.033
32.725,-0.069
32.730,-0.102
32.735,-0.146
32.740,-0.208
32.745,-0.331
32.750,-0.600
32.755,-0.940
32.760,-1.044
32.765,-0.826
32.770,-0.492
32.775,-0.145
32.780,0.101
32.785,0.204
32.790,0.304
32.795,0.434
32.800,0.513
32.805,0.528
32.810,0.525
32.815,0.505
32.820,0.460
32.825,0.420
32.830,0.366
32.835,0.279
32.840,0.212
32.845,0.182
32.850,0.147
32.855,0.108
32.860,0.093
32.865,0.084
32.870,0.065
32.875,0.058
32.880,0.061
32.885,0.048
32.890,0.036
32.895,0.041
32.900,0.038
32.905,0.024
32.910,0.026
32.915,0.029
32.920,0.015
32.925,0.013
32.930,0.020
32.935,0.010
32.940,-0.001
32.945,0.005
32.950,0.001
32.955,-0.012
32.960,-0.011
32.965,-0.010
32.970,-0.023
32.975,-0.027
32.980,-0.024
32.985,-0.036
32.990,-0.049
32.995,-0.046
33.000,-0.053
33.005,-0.071
33.010,-0.074
33.015,-0.077
33.020,-0.093
33.025,-0.099
33.030,-0.097
33.035,-0.109
33.040,-0.120
33.045,-0.115
33.050,-0.115
33.055,-0.124
33.060,-0.115
33.065,-0.101
33.070,-0.098
33.075,-0.081
33.080,-0.050
33.085,-0.034
33.090,-0.017
33.095,0.015
33.100,0.036
33.105,0.045
33.110,0.067
33.115,0.086
33.120,0.085
33.125,0.090
33.130,0.102
33.135,0.098
33.140,0.093
33.145,0.101
33.150,0.098
33.155,0.086
33.160,0.090
33.165,0.092
33.170,0.078
33.175,0.077
33.180,0.083
33.185,0.072
33.190,0.062
33.195,0.068
33.200,0.063
33.205,0.049
33.210,0.052
33.215,0.052
33.220,0.037
33.225,0.035
33.230,0.042
33.235,0.031
33.240,0.020
33.245,0.024
33.250,0.018
33.255,0.004
33.260,0.008
33.265,0.012
33.270,-0.002
33.275,-0.004
33.280,0.005
33.285,-0.004
33.290,-0.012
33.295,-0.003
33.300,-0.002
33.305,-0.012
33.310,-0.007
33.315,-0.002
33.320,-0.012
33.325,-0.011
33.330,-0.002
33.335,-0.008
33.340,-0.012
33.345,-0.002
33.350,-0.003
33.355,-0.014
33.360,-0.008
33.365,0.000
33.370,-0.011
33.375,-0.012
33.380,-0.002
33.385,-0.008
33.390,-0.012
33.395,-0.003
33.400,-0.006
33.405,-0.015
33.410,-0.009
33.415,-0.004
33.420,-0.013
33.425,-0.014
33.430,-0.005
33.435,-0.010
33.440,-0.018
33.445,-0.010
33.450,-0.010
33.455,-0.020
33.460,-0.014
33.465,-0.008
33.470,-0.018
33.475,-0.019
33.480,-0.009
33.485,-0.017
33.490,-0.022
33.495,-0.010
33.500,-0.011
33.505,-0.022
33.510,-0.017
33.515,-0.011
33.520,-0.021
33.525,-0.022
33.530,-0.015
33.535,-0.025
33.540,-0.036
33.545,-0.031
33.550,-0.035
33.555,-0.052
33.560,-0.048
33.565,-0.042
33.570,-0.057
33.575,-0.063
33.580,-0.055
33.585,-0.068
33.590,-0.089
33.595,-0.084
33.600,-0.076
33.605,-0.080
33.610,-0.062
33.615,-0.033
33.620,-0.015
33.625,0.003
33.630,0.008
33.635,-0.010
33.640,-0.017
33.645,0.002
33.650,0.021
33.655,0.028
33.660,0.042
33.665,0.051
33.670,0.039
33.675,0.036
33.680,0.046
33.685,0.041
33.690,0.032
33.695,0.040
33.700,0.038
33.705,0.025
33.710,0.030
33.715,0.034
33.720,0.018
33.725,0.013
33.730,0.021
33.735,0.013
33.740,0.005
33.745,0.014
33.750,0.011
33.755,-0.001
33.760,0.004
33.765,0.008
33.770,-0.004
33.775,-0.006
33.780,0.000
33.785,-0.008
33.790,-0.015
33.795,-0.007
33.800,-0.006
33.805,-0.014
33.810,-0.011
33.815,-0.006
33.820,-0.014
33.825,-0.015
33.830,-0.006
33.835,-0.011
33.840,-0.016
33.845,-0.007
33.850,-0.010
33.855,-0.017
33.860,-0.009
33.865,-0.005
33.870,-0.016
33.875,-0.016
33.880,-0.005
33.885,-0.023
33.890,-0.062
33.895,-0.100
33.900,-0.138
33.905,-0.183
33.910,-0.268
33.915,-0.477
33.920,-0.820
33.925,-1.039
33.930,-0.922
33.935,-0.611
33.940,-0.262
33.945,0.038
33.950,0.187
33.955,0.277
33.960,0.404
33.965,0.494
33.970,0.515
33.975,0.518
33.980,0.507
33.985,0.467
33.990,0.429
33.995,0.386
34.000,0.304
34.005,0.221
34.010,0.182
34.015,0.155
34.020,0.112
34.025,0.088
34.030,0.080
34.035,0.063
34.040,0.051
34.045,0.055
34.050,0.047
34.055,0.031
34.060,0.032
34.065,0.034
34.070,0.019
34.075,0.015
34.080,0.022
34.085,0.011
34.090,0.001
34.095,0.009
34.100,0.006
34.105,-0.006
34.110,-0.002
34.115,-0.002
34.120,-0.018
34.125,-0.021
34.130,-0.014
34.135,-0.024
34.140,-0.035
34.145,-0.029
34.150,-0.036
34.155,-0.054
34.160,-0.055
34.165,-0.055
34.170,-0.072
34.175,-0.081
34.180,-0.081
34.185,-0.096
34.190,-0.106
34.195,-0.103
34.200,-0.112
34.205,-0.125
34.210,-0.116
34.215,-0.112
34.220,-0.123
34.225,-0.121
34.230,-0.107
34.235,-0.103
34.240,-0.092
34.245,-0.062
34.250,-0.040
34.255,-0.024
34.260,0.004
34.265,0.029
34.270,0.039
34.275,0.058
34.280,0.083
34.285,0.089
34.290,0.092
34.295,0.103
34.300,0.103
34.305,0.099
34.310,0.109
34.315,0.112
34.320,0.101
34.325,0.098
34.330,0.101
34.335,0.088
34.340,0.078
34.345,0.083
34.350,0.079
34.355,0.065
34.360,0.066
34.365,0.068
34.370,0.056
34.375,0.054
34.380,0.055
34.385,0.041
34.390,0.035
34.395,0.042
34.400,0.037
34.405,0.024
34.410,0.025
34.415,0.025
34.420,0.012
34.425,0.012
34.430,0.018
34.435,0.005
34.440,-0.005
34.445,0.002
34.450,-0.003
34.455,-0.013
34.460,-0.005
34.465,-0.001
34.470,-0.010
34.475,-0.007
34.480,0.000
34.485,-0.011
34.490,-0.015
34.495,-0.002
34.500,-0.001
34.505,-0.010
34.510,-0.005
34.515,-0.001
34.520,-0.007
34.525,-0.005
34.530,-0.001
34.535,-0.009
34.540,-0.012
34.545,-0.006
34.550,-0.009
34.555,-0.017
34.560,-0.010
34.565,-0.004
34.570,-0.011
34.575,-0.009
34.580,-0.003
34.585,-0.013
34.590,-0.017
34.595,-0.009
34.600,-0.015
34.605,-0.021
34.610,-0.011
34.615,-0.008
34.620,-0.020
34.625,-0.018
34.630,-0.008
34.635,-0.017
34.640,-0.024
34.645,-0.015
34.650,-0.015
34.655,-0.022
34.660,-0.016
34.665,-0.012
34.670,-0.023
34.675,-0.026
34.680,-0.024
34.685,-0.037
34.690,-0.044
34.695,-0.038
34.700,-0.048
34.705,-0.058
34.710,-0.048
34.715,-0.046
34.720,-0.059
34.725,-0.060
34.730,-0.066
34.735,-0.097
34.740,-0.103
34.745,-0.083
34.750,-0.080
34.755,-0.076
34.760,-0.041
34.765,-0.008
34.770,-0.007
34.775,-0.006
34.780,0.002
34.785,-0.005
34.790,-0.001
34.795,0.024
34.800,0.028
34.805,0.017
34.810,0.027
34.815,0.036
34.820,0.025
34.825,0.028
34.830,0.038
34.835,0.033
34.840,0.030
34.845,0.036
34.850,0.026
34.855,0.010
34.860,0.016
34.865,0.023
34.870,0.011
34.875,0.006
34.880,0.008
34.885,0.000
34.890,0.003
34.895,0.015
34.900,0.008
34.905,-0.007
34.910,-0.007
34.915,-0.007
34.920,-0.017
34.925,-0.010
34.930,0.001
34.935,-0.007
34.940,-0.012
34.945,-0.007
34.950,-0.012
34.955,-0.016
34.960,-0.007
34.965,-0.005
34.970,-0.015
34.975,-0.013
34.980,-0.008
34.985,-0.016
34.990,-0.015
34.995,-0.004
35.000,-0.004
35.005,-0.010
35.010,-0.006
35.015,-0.005
35.020,-0.014
35.025,-0.012
35.030,-0.012
35.035,-0.042
35.040,-0.082
35.045,-0.100
35.050,-0.138
35.055,-0.250
35.060,-0.476
35.065,-0.831
35.070,-1.078
35.075,-0.974
35.080,-0.647
35.085,-0.288
35.090,0.008
35.095,0.175
35.100,0.284
35.105,0.410
35.110,0.505
35.115,0.527
35.120,0.514
35.125,0.509
35.130,0.495
35.135,0.455
35.140,0.409
35.145,0.349
35.150,0.260
35.155,0.186
35.160,0.154
35.165,0.124
35.170,0.087
35.175,0.069
35.180,0.066
35.185,0.053
35.190,0.045
35.195,0.052
35.200,0.049
35.205,0.033
35.210,0.028
35.215,0.026
35.220,0.014
35.225,0.014
35.230,0.017
35.235,0.004
35.240,-0.001
35.245,0.011
35.250,0.013
35.255,0.002
35.260,0.000
35.265,-0.009
35.270,-0.031
35.275,-0.030
35.280,-0.021
35.285,-0.030
35.290,-0.035
35.295,-0.032
35.300,-0.044
35.305,-0.062
35.310,-0.060
35.315,-0.060
35.320,-0.076
35.325,-0.079
35.330,-0.080
35.335,-0.096
35.340,-0.108
35.345,-0.105
35.350,-0.110
35.355,-0.123
35.360,-0.116
35.365,-0.110
35.370,-0.115
35.375,-0.102
35.380,-0.081
35.385,-0.073
35.390,-0.061
35.395,-0.032
35.400,-0.012
35.405,0.003
35.410,0.033
35.415,0.053
35.420,0.059
35.425,0.079
35.430,0.099
35.435,0.097
35.440,0.099
35.445,0.111
35.450,0.106
35.455,0.096
35.460,0.105
35.465,0.108
35.470,0.093
35.475,0.091
35.480,0.097
35.485,0.084
35.490,0.076
35.495,0.080
35.500,0.073
35.505,0.061
35.510,0.068
35.515,0.067
35.520,0.045
35.525,0.041
35.530,0.053
35.535,0.045
35.540,0.030
35.545,0.030
35.550,0.024
35.555,0.013
35.560,0.020
35.565,0.022
35.570,0.006
35.575,0.002
35.580,0.007
35.585,0.001
35.590,-0.002
35.595,0.004
35.600,0.001
35.605,-0.007
35.610,-0.004
35.615,-0.004
35.620,-0.011
35.625,-0.008
35.630,0.001
35.635,-0.003
35.640,-0.007
35.645,-0.003
35.650,-0.006
35.655,-0.008
35.660,0.004
35.665,0.006
35.670,-0.008
35.675,-0.010
35.680,-0.001
35.685,-0.006
35.690,-0.008
35.695,0.001
35.700,-0.003
35.705,-0.014
35.710,-0.009
35.715,-0.006
35.720,-0.014
35.725,-0.008
35.730,0.000
35.735,-0.010
35.740,-0.016
35.745,-0.007
35.750,-0.011
35.755,-0.021
35.760,-0.014
35.765,-0.011
35.770,-0.020
35.775,-0.014
35.780,-0.005
35.785,-0.017
35.790,-0.020
35.795,-0.007
35.800,-0.012
35.805,-0.021
35.810,-0.012
35.815,-0.011
35.820,-0.023
35.825,-0.026
35.830,-0.025
35.835,-0.038
35.840,-0.047
35.845,-0.041
35.850,-0.042
35.855,-0.051
35.860,-0.049
35.865,-0.048
35.870,-0.059
35.875,-0.069
35.880,-0.079
35.885,-0.088
35.890,-0.080
35.895,-0.064
35.900,-0.055
35.905,-0.037
35.910,-0.002
35.915,0.009
35.920,-0.007
35.925,-0.010
35.930,-0.004
35.935,0.002
35.940,0.018
35.945,0.040
35.950,0.041
35.955,0.033
35.960,0.040
35.965,0.043
35.970,0.031
35.975,0.033
35.980,0.040
35.985,0.030
35.990,0.026
35.995,0.033
36.000,0.026
36.005,0.015
36.010,0.022
36.015,0.021
36.020,0.006
36.025,0.009
36.030,0.017
36.035,0.004
36.040,-0.004
36.045,0.002
36.050,-0.004
36.055,-0.013
36.060,-0.006
36.065,-0.003
36.070,-0.014
36.075,-0.011
36.080,-0.005
36.085,-0.014
36.090,-0.016
36.095,-0.008
36.100,-0.012
36.105,-0.019
36.110,-0.010
36.115,-0.007
36.120,-0.019
36.125,-0.016
36.130,-0.007
36.135,-0.015
36.140,-0.020
36.145,-0.009
36.150,-0.013
36.155,-0.022
36.160,-0.012
36.165,-0.011
36.170,-0.035
36.175,-0.066
36.180,-0.098
36.185,-0.138
36.190,-0.197
36.195,-0.329
36.200,-0.617
36.205,-0.969
36.210,-1.078
36.215,-0.865
36.220,-0.524
36.225,-0.166
36.230,0.081
36.235,0.188
36.240,0.301
36.245,0.437
36.250,0.509
36.255,0.518
36.260,0.521
36.265,0.506
36.270,0.466
36.275,0.431
36.280,0.380
36.285,0.292
36.290,0.221
36.295,0.189
36.300,0.150
36.305,0.109
36.310,0.096
36.315,0.083
36.320,0.062
36.325,0.058
36.330,0.059
36.335,0.042
36.340,0.034
36.345,0.038
36.350,0.030
36.355,0.019
36.360,0.024
36.365,0.024
36.370,0.010
36.375,0.011
36.380,0.014
36.385,0.001
36.390,-0.002
36.395,0.003
36.400,-0.005
36.405,-0.017
36.410,-0.013
36.415,-0.014
36.420,-0.028
36.425,-0.030
36.430,-0.027
36.435,-0.042
36.440,-0.051
36.445,-0.048
36.450,-0.058
36.455,-0.072
36.460,-0.070
36.465,-0.075
36.470,-0.094
36.475,-0.095
36.480,-0.092
36.485,-0.106
36.490,-0.112
36.495,-0.105
36.500,-0.111
36.505,-0.116
36.510,-0.104
36.515,-0.097
36.520,-0.096
36.525,-0.073
36.530,-0.043
36.535,-0.031
36.540,-0.012
36.545,0.020
36.550,0.035
36.555,0.047
36.560,0.072
36.565,0.085
36.570,0.083
36.575,0.095
36.580,0.104
36.585,0.095
36.590,0.093
36.595,0.102
36.600,0.095
36.605,0.085
36.610,0.093
36.615,0.093
36.620,0.080
36.625,0.082
36.630,0.086
36.635,0.072
36.640,0.066
36.645,0.074
36.650,0.064
36.655,0.049
36.660,0.054
36.665,0.053
36.670,0.037
36.675,0.037
36.680,0.041
36.685,0.027
36.690,0.020
36.695,0.026
36.700,0.018
36.705,0.006
36.710,0.012
36.715,0.011
36.720,-0.003
36.725,0.001
36.730,0.008
36.735,-0.003
36.740,-0.007
36.745,0.002
36.750,-0.002
36.755,-0.010
36.760,-0.002
36.765,-0.001
36.770,-0.011
36.775,-0.006
36.780,0.000
36.785,-0.008
36.790,-0.010
36.795,0.000
36.800,-0.004
36.805,-0.012
36.810,-0.004
36.815,-0.002
36.820,-0.013
36.825,-0.008
36.830,0.001
36.835,-0.009
36.840,-0.011
36.845,-0.001
36.850,-0.005
36.855,-0.013
36.860,-0.005
36.865,-0.005
36.870,-0.016
36.875,-0.011
36.880,-0.002
36.885,-0.012
36.890,-0.016
36.895,-0.007
36.900,-0.011
36.905,-0.019
36.910,-0.012
36.915,-0.010
36.920,-0.021
36.925,-0.017
36.930,-0.009
36.935,-0.018
36.940,-0.021
36.945,-0.012
36.950,-0.015
36.955,-0.022
36.960,-0.014
36.965,-0.012
36.970,-0.021
36.975,-0.018
36.980,-0.011
36.985,-0.021
36.990,-0.025
36.995,-0.021
37.000,-0.031
37.005,-0.042
37.010,-0.040
37.015,-0.044
37.020,-0.053
37.025,-0.050
37.030,-0.049
37.035,-0.062
37.040,-0.067
37.045,-0.071
37.050,-0.087
37.055,-0.086
37.060,-0.068
37.065,-0.057
37.070,-0.048
37.075,-0.017
37.080,0.009
37.085,-0.001
37.090,-0.012
37.095,-0.005
37.100,-0.004
37.105,0.005
37.110,0.032
37.115,0.043
37.120,0.035
37.125,0.038
37.130,0.046
37.135,0.036
37.140,0.034
37.145,0.041
37.150,0.034
37.155,0.025
37.160,0.033
37.165,0.032
37.170,0.018
37.175,0.021
37.180,0.025
37.185,0.012
37.190,0.008
37.195,0.015
37.200,0.008
37.205,-0.001
37.210,0.005
37.215,0.003
37.220,-0.009
37.225,-0.005
37.230,0.000
37.235,-0.012
37.240,-0.014
37.245,-0.004
37.250,-0.010
37.255,-0.016
37.260,-0.007
37.265,-0.006
37.270,-0.016
37.275,-0.012
37.280,-0.005
37.285,-0.015
37.290,-0.017
37.295,-0.006
37.300,-0.008
37.305,-0.015
37.310,-0.007
37.315,-0.010
37.320,-0.020
37.325,-0.014
37.330,-0.014
37.335,-0.043
37.340,-0.086
37.345,-0.118
37.350,-0.156
37.355,-0.222
37.360,-0.361
37.365,-0.649
37.370,-0.973
37.375,-1.019
37.380,-0.760
37.385,-0.419
37.390,-0.086
37.395,0.133
37.400,0.230
37.405,0.337
37.410,0.454
37.415,0.514
37.420,0.516
37.425,0.508
37.430,0.490
37.435,0.447
37.440,0.405
37.445,0.345
37.450,0.256
37.455,0.193
37.460,0.167
37.465,0.132
37.470,0.095
37.475,0.081
37.480,0.073
37.485,0.054
37.490,0.047
37.495,0.050
37.500,0.039
37.505,0.028
37.510,0.033
37.515,0.031
37.520,0.017
37.525,0.019
37.530,0.023
37.535,0.011
37.540,0.007
37.545,0.013
37.550,0.002
37.555,-0.008
37.560,-0.001
37.565,-0.004
37.570,-0.018
37.575,-0.017
37.580,-0.015
37.585,-0.028
37.590,-0.033
37.595,-0.029
37.600,-0.042
37.605,-0.055
37.610,-0.054
37.615,-0.060
37.620,-0.077
37.625,-0.080
37.630,-0.082
37.635,-0.100
37.640,-0.106
37.645,-0.102
37.650,-0.114
37.655,-0.124
37.660,-0.116
37.665,-0.117
37.670,-0.125
37.675,-0.115
37.680,-0.100
37.685,-0.095
37.690,-0.078
37.695,-0.048
37.700,-0.029
37.705,-0.012
37.710,0.020
37.715,0.042
37.720,0.050
37.725,0.072
37.730,0.092
37.735,0.090
37.740,0.096
37.745,0.110
37.750,0.103
37.755,0.097
37.760,0.107
37.765,0.106
37.770,0.094
37.775,0.095
37.780,0.097
37.785,0.083
37.790,0.081
37.795,0.087
37.800,0.076
37.805,0.065
37.810,0.071
37.815,0.067
37.820,0.054
37.825,0.056
37.830,0.059
37.835,0.044
37.840,0.039
37.845,0.045
37.850,0.035
37.855,0.025
37.860,0.030
37.865,0.024
37.870,0.008
37.875,0.011
37.880,0.016
37.885,0.004
37.890,0.001
37.895,0.009
37.900,0.000
37.905,-0.007
37.910,0.001
37.915,0.001
37.920,-0.010
37.925,-0.005
37.930,0.003
37.935,-0.007
37.940,-0.009
37.945,-0.001
37.950,-0.006
37.955,-0.011
37.960,-0.001
37.965,-0.002
37.970,-0.013
37.975,-0.008
37.980,-0.001
37.985,-0.008
37.990,-0.007
37.995,0.000
38.000,-0.007
38.005,-0.011
38.010,-0.005
38.015,-0.008
38.020,-0.018
38.025,-0.013
38.030,-0.007
38.035,-0.017
38.040,-0.016
38.045,-0.005
38.050,-0.011
38.055,-0.017
38.060,-0.007
38.065,-0.011
38.070,-0.025
38.075,-0.018
38.080,-0.010
38.085,-0.020
38.090,-0.021
38.095,-0.010
38.100,-0.015
38.105,-0.022
38.110,-0.014
38.115,-0.015
38.120,-0.030
38.125,-0.028
38.130,-0.026
38.135,-0.044
38.140,-0.050
38.145,-0.038
38.150,-0.042
38.155,-0.054
38.160,-0.054
38.165,-0.057
38.170,-0.078
38.175,-0.090
38.180,-0.085
38.185,-0.083
38.190,-0.076
38.195,-0.055
38.200,-0.037
38.205,-0.016
38.210,0.007
38.215,0.002
38.220,-0.016
38.225,-0.008
38.230,0.010
38.235,0.021
38.240,0.036
38.245,0.050
38.250,0.043
38.255,0.035
38.260,0.044
38.265,0.043
38.270,0.034
38.275,0.040
38.280,0.046
38.285,0.033
38.290,0.029
38.295,0.037
38.300,0.030
38.305,0.020
38.310,0.026
38.315,0.021
38.320,0.006
38.325,0.011
38.330,0.015
38.335,-0.001
38.340,-0.006
38.345,0.004
38.350,-0.003
38.355,-0.011
38.360,-0.001
38.365,0.000
38.370,-0.012
38.375,-0.009
38.380,-0.005
38.385,-0.017
38.390,-0.019
38.395,-0.011
38.400,-0.015
38.405,-0.020
38.410,-0.011
38.415,-0.011
38.420,-0.021
38.425,-0.016
38.430,-0.007
38.435,-0.014
38.440,-0.015
38.445,-0.007
38.450,-0.015
38.455,-0.022
38.460,-0.014
38.465,-0.032
38.470,-0.085
38.475,-0.118
38.480,-0.136
38.485,-0.206
38.490,-0.367
38.495,-0.665
38.500,-0.990
38.505,-1.036
38.510,-0.768
38.515,-0.418
38.520,-0.095
38.525,0.119
38.530,0.237
38.535,0.350
38.540,0.456
38.545,0.513
38.550,0.510
38.555,0.496
38.560,0.495
38.565,0.472
38.570,0.423
38.575,0.362
38.580,0.280
38.585,0.202
38.590,0.160
38.595,0.133
38.600,0.095
38.605,0.068
38.610,0.062
38.615,0.055
38.620,0.040
38.625,0.041
38.630,0.043
38.635,0.027
38.640,0.020
38.645,0.023
38.650,0.011
38.655,0.000
38.660,0.006
38.665,0.005
38.670,-0.007
38.675,-0.002
38.680,0.003
38.685,-0.010
38.690,-0.014
38.695,-0.008
38.700,-0.019
38.705,-0.032
38.710,-0.027
38.715,-0.031
38.720,-0.044
38.725,-0.040
38.730,-0.040
38.735,-0.055
38.740,-0.059
38.745,-0.058
38.750,-0.074
38.755,-0.090
38.760,-0.090
38.765,-0.097
38.770,-0.111
38.775,-0.109
38.780,-0.107
38.785,-0.126
38.790,-0.129
38.795,-0.116
38.800,-0.119
38.805,-0.121
38.810,-0.101
38.815,-0.089
38.820,-0.080
38.825,-0.049
38.830,-0.017
38.835,-0.003
38.840,0.024
38.845,0.055
38.850,0.064
38.855,0.069
38.860,0.088
38.865,0.097
38.870,0.091
38.875,0.100
38.880,0.111
38.885,0.103
38.890,0.102
38.895,0.111
38.900,0.101
38.905,0.092
38.910,0.097
38.915,0.091
38.920,0.080
38.925,0.086
38.930,0.087
38.935,0.069
38.940,0.060
38.945,0.065
38.950,0.059
38.955,0.050
38.960,0.053
38.965,0.047
38.970,0.033
38.975,0.039
38.980,0.042
38.985,0.025
38.990,0.020
38.995,0.029
39.000,0.025
39.005,0.017
39.010,0.021
39.015,0.017
39.020,0.003
39.025,0.004
39.030,0.005
39.035,-0.007
39.040,-0.005
39.045,0.002
39.050,-0.007
39.055,-0.009
39.060,0.007
39.065,0.010
39.070,0.001
39.075,0.006
39.080,0.004
39.085,-0.013
39.090,-0.015
39.095,-0.004
39.100,-0.008
39.105,-0.011
39.110,0.002
39.115,0.001
39.120,-0.010
39.125,-0.003
39.130,-0.001
39.135,-0.012
39.140,-0.008
39.145,0.000
39.150,-0.012
39.155,-0.022
39.160,-0.011
39.165,-0.008
39.170,-0.016
39.175,-0.009
39.180,-0.003
39.185,-0.017
39.190,-0.019
39.195,-0.007
39.200,-0.017
39.205,-0.024
39.210,-0.009
39.215,-0.009
39.220,-0.020
39.225,-0.017
39.230,-0.015
39.235,-0.025
39.240,-0.021
39.245,-0.010
39.250,-0.019
39.255,-0.027
39.260,-0.016
39.265,-0.021
39.270,-0.038
39.275,-0.035
39.280,-0.032
39.285,-0.049
39.290,-0.053
39.295,-0.047
39.300,-0.059
39.305,-0.067
39.310,-0.060
39.315,-0.076
39.320,-0.098
39.325,-0.086
39.330,-0.074
39.335,-0.077
39.340,-0.054
39.345,-0.017
39.350,-0.006
39.355,-0.008
39.360,-0.003
39.365,-0.008
39.370,-0.014
39.375,0.008
39.380,0.033
39.385,0.034
39.390,0.037
39.395,0.046
39.400,0.039
39.405,0.033
39.410,0.039
39.415,0.035
39.420,0.025
39.425,0.030
39.430,0.031
39.435,0.018
39.440,0.021
39.445,0.031
39.450,0.020
39.455,0.010
39.460,0.013
39.465,0.004
39.470,-0.006
39.475,0.005
39.480,0.012
39.485,0.000
39.490,-0.003
39.495,0.001
39.500,-0.010
39.505,-0.014
39.510,-0.003
39.515,-0.007
39.520,-0.016
39.525,-0.008
39.530,-0.005
39.535,-0.018
39.540,-0.015
39.545,-0.004
39.550,-0.013
39.555,-0.021
39.560,-0.012
39.565,-0.009
39.570,-0.019
39.575,-0.018
39.580,-0.014
39.585,-0.018
39.590,-0.010
39.595,-0.005
39.600,-0.032
39.605,-0.077
39.610,-0.100
39.615,-0.128
39.620,-0.220
39.625,-0.426
39.630,-0.779
39.635,-1.078
39.640,-1.034
39.645,-0.718
39.650,-0.354
39.655,-0.040
39.660,0.151
39.665,0.261
39.670,0.381
39.675,0.489
39.680,0.531
39.685,0.520
39.690,0.506
39.695,0.484
39.700,0.441
39.705,0.397
39.710,0.335
39.715,0.252
39.720,0.192
39.725,0.161
39.730,0.128
39.735,0.090
39.740,0.074
39.745,0.075
39.750,0.062
39.755,0.046
39.760,0.045
39.765,0.039
39.770,0.027
39.775,0.030
39.780,0.031
39.785,0.017
39.790,0.020
39.795,0.027
39.800,0.011
39.805,-0.001
39.810,0.001
39.815,-0.004
39.820,-0.015
39.825,-0.010
39.830,-0.010
39.835,-0.022
39.840,-0.023
39.845,-0.018
39.850,-0.031
39.855,-0.042
39.860,-0.037
39.865,-0.041
39.870,-0.056
39.875,-0.057
39.880,-0.059
39.885,-0.075
39.890,-0.077
39.895,-0.072
39.900,-0.089
39.905,-0.107
39.910,-0.109
39.915,-0.115
39.920,-0.120
39.925,-0.114
39.930,-0.112
39.935,-0.119
39.940,-0.109
39.945,-0.086
39.950,-0.076
39.955,-0.062
39.960,-0.031
39.965,-0.008
39.970,0.005
39.975,0.030
39.980,0.048
39.985,0.047
39.990,0.063
39.995,0.091
40.000,0.095
40.005,0.097
40.010,0.110
40.015,0.107
40.020,0.096
40.025,0.100
40.030,0.101
40.035,0.087
40.040,0.089
40.045,0.099
40.050,0.086
40.055,0.072
40.060,0.078
40.065,0.074
40.070,0.061
40.075,0.061
40.080,0.058
40.085,0.044
40.090,0.042
40.095,0.048
40.100,0.040
40.105,0.033
40.110,0.035
40.115,0.030
40.120,0.022
40.125,0.029
40.130,0.027
40.135,0.008
40.140,0.001
40.145,0.003
40.150,-0.003
40.155,-0.003
40.160,0.005
40.165,0.003
40.170,-0.003
40.175,0.005
40.180,0.008
40.185,-0.005
40.190,-0.005
40.195,-0.001
40.200,-0.009
40.205,-0.012
40.210,-0.005
40.215,-0.009
40.220,-0.015
40.225,-0.003
40.230,0.005
40.235,-0.003
40.240,-0.004
40.245,0.002
40.250,-0.005
40.255,-0.008
40.260,0.001
40.265,-0.006
40.270,-0.020
40.275,-0.011
40.280,-0.002
40.285,-0.014
40.290,-0.014
40.295,-0.005
40.300,-0.014
40.305,-0.020
40.310,-0.009
40.315,-0.009
40.320,-0.017
40.325,-0.009
40.330,-0.007
40.335,-0.020
40.340,-0.018
40.345,-0.010
40.350,-0.018
40.355,-0.020
40.360,-0.009
40.365,-0.012
40.370,-0.022
40.375,-0.016
40.380,-0.013
40.385,-0.024
40.390,-0.023
40.395,-0.018
40.400,-0.030
40.405,-0.036
40.410,-0.031
40.415,-0.042
40.420,-0.054
40.425,-0.046
40.430,-0.049
40.435,-0.065
40.440,-0.060
40.445,-0.063
40.450,-0.089
40.455,-0.091
40.460,-0.071
40.465,-0.069
40.470,-0.066
40.475,-0.032
40.480,-0.004
40.485,-0.008
40.490,-0.008
40.495,-0.004
40.500,-0.011
40.505,-0.001
40.510,0.028
40.515,0.037
40.520,0.032
40.525,0.042
40.530,0.047
40.535,0.035
40.540,0.034
40.545,0.039
40.550,0.028
40.555,0.024
40.560,0.034
40.565,0.028
40.570,0.017
40.575,0.024
40.580,0.026
40.585,0.010
40.590,0.008
40.595,0.014
40.600,0.002
40.605,-0.005
40.610,0.004
40.615,0.001
40.620,-0.010
40.625,-0.005
40.630,-0.002
40.635,-0.013
40.640,-0.011
40.645,-0.004
40.650,-0.013
40.655,-0.016
40.660,-0.005
40.665,-0.010
40.670,-0.020
40.675,-0.012
40.680,-0.010
40.685,-0.024
40.690,-0.057
40.695,-0.143
40.700,-0.208
40.705,-0.190
40.710,-0.174
40.715,-0.171
40.720,-0.158
40.725,-0.149
40.730,-0.139
40.735,-0.129
40.740,-0.120
40.745,-0.111
40.750,-0.103
40.755,-0.094
40.760,-0.086
40.765,-0.078
40.770,-0.071
40.775,-0.064
40.780,-0.056
40.785,-0.049
40.790,-0.043
40.795,-0.036
40.800,-0.030
40.805,-0.025
40.810,-0.019
40.815,-0.014
40.820,-0.008
40.825,-0.004
40.830,0.001
40.835,0.005
40.840,0.009
40.845,0.013
40.850,0.017
40.855,0.021
40.860,0.024
40.865,0.027
40.870,0.030
40.875,0.033
40.880,0.036
40.885,0.038
40.890,0.040
40.895,0.042
40.900,0.045
40.905,0.046
40.910,0.048
40.915,0.050
40.920,0.051
40.925,0.052
40.930,0.053
40.935,0.054
40.940,0.055
40.945,0.056
40.950,0.057
40.955,0.057
40.960,0.057
40.965,0.058
40.970,0.058
40.975,0.058
40.980,0.058
40.985,0.059
40.990,0.058
40.995,0.058
41.000,0.058
41.005,0.058
41.010,0.058
41.015,0.057
41.020,0.057
41.025,0.056
41.030,0.055
41.035,0.055
41.040,0.054
41.045,0.054
41.050,0.053
41.055,0.052
41.060,0.052
41.065,0.051
41.070,0.050
41.075,0.049
41.080,0.048
41.085,0.047
41.090,0.047
41.095,0.045
41.100,0.044
41.105,0.043
41.110,0.042
41.115,0.041
41.120,0.040
41.125,0.039
41.130,0.038
41.135,0.037
41.140,0.036
41.145,0.035
41.150,0.034
41.155,0.033
41.160,0.032
41.165,0.031
41.170,0.030
41.175,0.029
41.180,0.028
41.185,0.027
41.190,0.026
41.195,0.025
41.200,0.024
41.205,0.023
41.210,0.022
41.215,0.021
41.220,0.020
41.225,0.019
41.230,0.018
41.235,0.017
41.240,0.016
41.245,0.015
41.250,0.015
41.255,0.013
41.260,0.013
41.265,0.012
41.270,0.011
41.275,0.010
41.280,0.010
41.285,0.009
41.290,0.008
41.295,0.007
41.300,0.006
41.305,0.006
41.310,0.005
41.315,0.005
41.320,0.004
41.325,0.003
41.330,0.003
41.335,0.002
41.340,0.002
41.345,0.001
41.350,0.000
41.355,0.000
41.360,0.000
41.365,-0.001
41.370,-0.001
41.375,-0.002
41.380,-0.002
41.385,-0.003
41.390,-0.003
41.395,-0.004
41.400,-0.004
41.405,-0.005
41.410,-0.005
41.415,-0.005
41.420,-0.005
41.425,-0.006
41.430,-0.006
41.435,-0.006
41.440,-0.007
41.445,-0.007
41.450,-0.007
41.455,-0.007
41.460,-0.008
41.465,-0.008
41.470,-0.008
41.475,-0.008
41.480,-0.008
41.485,-0.008
41.490,-0.009
41.495,-0.009
41.500,-0.009
41.505,-0.009
41.510,-0.009
41.515,-0.009
41.520,-0.009
41.525,-0.009
41.530,-0.009
41.535,-0.009
41.540,-0.010
41.545,-0.009
41.550,-0.009
41.555,-0.009
41.560,-0.009
41.565,-0.009
41.570,-0.009
41.575,-0.009
41.580,-0.009
41.585,-0.009
41.590,-0.010
41.595,-0.010
41.600,-0.010
41.605,-0.010
41.610,-0.009
41.615,-0.009
41.620,-0.009
41.625,-0.009
41.630,-0.009
41.635,-0.009
41.640,-0.009
41.645,-0.009
41.650,-0.009
41.655,-0.009
41.660,-0.009
41.665,-0.009
41.670,-0.009
41.675,-0.009
41.680,-0.008
41.685,-0.008
41.690,-0.008
41.695,-0.008
41.700,-0.008
41.705,-0.008
41.710,-0.008
41.715,-0.008
41.720,-0.008
41.725,-0.008
41.730,-0.008
41.735,-0.008
41.740,-0.007
41.745,-0.007
41.750,-0.007
41.755,-0.006
41.760,-0.007
41.765,-0.007
41.770,-0.007
41.775,-0.007
41.780,-0.006
41.785,-0.006
41.790,-0.006
41.795,-0.006
41.800,-0.006
41.805,-0.006
41.810,-0.006
41.815,-0.006
41.820,-0.006
41.825,-0.006
41.830,-0.006
41.835,-0.006
41.840,-0.005
41.845,-0.005
41.850,-0.005
41.855,-0.005
41.860,-0.005
41.865,-0.005
41.870,-0.005
41.875,-0.005
41.880,-0.004
41.885,-0.004
41.890,-0.004
41.895,-0.004
41.900,-0.004
41.905,-0.004
41.910,-0.004
41.915,-0.004
41.920,-0.004
41.925,-0.004
41.930,-0.004
41.935,-0.004
41.940,-0.003
41.945,-0.004
41.950,-0.003
41.955,-0.003
41.960,-0.003
41.965,-0.003
41.970,-0.003
41.975,-0.002
41.980,-0.002
41.985,-0.002
41.990,-0.002
41.995,-0.002
42.000,-0.002
42.005,-0.002
42.010,-0.003
42.015,-0.003
42.020,-0.002
42.025,-0.002
42.030,-0.002
42.035,-0.002
42.040,-0.002
42.045,-0.002
42.050,-0.002
42.055,-0.002
42.060,-0.002
42.065,-0.002
42.070,-0.002
42.075,-0.002
42.080,-0.001
42.085,-0.002
42.090,-0.002
42.095,-0.002
42.100,-0.001
42.105,-0.001
42.110,-0.001
42.115,-0.002
42.120,-0.002
42.125,-0.002
42.130,-0.001
42.135,-0.001
42.140,-0.001
42.145,-0.001
42.150,0.000
42.155,-0.001
42.160,-0.001
42.165,-0.001
42.170,-0.001
42.175,-0.001
42.180,-0.001
42.185,-0.001
42.190,-0.001
42.195,-0.001
42.200,0.000
42.205,-0.001
42.210,-0.001
42.215,-0.001
42.220,-0.001
42.225,-0.001
42.230,-0.001
42.235,-0.001
42.240,-0.001
42.245,-0.001
42.250,-0.001
42.255,-0.001
42.260,0.000
42.265,0.000
42.270,-0.001
42.275,-0.001
42.280,-0.001
42.285,0.000
42.290,0.000
42.295,-0.001
42.300,-0.001
42.305,-0.001
42.310,-0.001
42.315,-0.001
42.320,0.000
42.325,0.000
42.330,0.000
42.335,0.000
42.340,0.000
42.345,0.000
42.350,0.000
42.355,0.000
42.360,0.000
42.365,0.000
42.370,0.000
42.375,0.000
42.380,0.000
42.385,0.000
42.390,0.000
42.395,0.000
42.400,0.000
42.405,0.000
42.410,0.000
42.415,0.000
42.420,0.000
42.425,0.000
42.430,0.000
42.435,0.000
42.440,0.000
42.445,0.000
42.450,0.000
42.455,0.000
42.460,0.000
42.465,0.000
42.470,0.000
42.475,0.000
42.480,0.000
42.485,0.000
42.490,0.000
42.495,-0.001
42.500,-0.001
42.505,0.000
42.510,0.000
42.515,0.000
42.520,-0.001
42.525,-0.001
42.530,0.000
42.535,0.000
42.540,0.000
42.545,0.000
42.550,0.000
42.555,0.000
42.560,0.000
42.565,0.000
42.570,-0.001
42.575,-0.001
42.580,0.000
42.585,0.000
42.590,0.000
42.595,-0.001
42.600,0.000
42.605,0.000
42.610,0.000
42.615,0.000
42.620,0.000
42.625,0.000
42.630,0.000
42.635,0.000
42.640,0.000
42.645,0.000
42.650,0.000
42.655,0.000
42.660,0.000
42.665,0.000
42.670,0.000
42.675,0.000
42.680,0.000
42.685,0.000
42.690,0.000
42.695,0.000
42.700,0.000
42.705,0.000
42.710,0.000
42.715,-0.001
42.720,0.000
42.725,0.000
42.730,0.000
42.735,0.000
42.740,0.000
42.745,0.000
42.750,0.000
42.755,0.000
42.760,0.000
42.765,0.000
42.770,0.000
42.775,0.000
42.780,0.000
42.785,0.000
42.790,0.000
42.795,0.000
42.800,0.000
42.805,0.000
42.810,0.000
42.815,0.000
42.820,0.000
42.825,0.000
42.830,0.000
42.835,0.000
42.840,0.000
42.845,0.000
42.850,-0.001
42.855,-0.001
42.860,0.000
42.865,0.000
42.870,0.000
42.875,0.000
42.880,0.000
42.885,0.000
42.890,0.000
42.895,0.000
42.900,0.000
42.905,0.000
42.910,0.000
42.915,0.000
42.920,0.000
42.925,0.000
42.930,0.000
42.935,0.000
42.940,0.000
42.945,0.000
42.950,0.000
42.955,0.000
42.960,0.000
42.965,0.000
42.970,0.000
42.975,0.000
42.980,0.000
42.985,0.000
42.990,0.000
42.995,0.000
43.000,0.000
43.005,0.000
43.010,0.000
43.015,0.000
43.020,0.000
43.025,0.000
43.030,0.000
43.035,0.000
43.040,0.000
43.045,0.000
43.050,0.000
43.055,0.000
43.060,0.000
43.065,0.000
43.070,0.000
43.075,0.000
43.080,0.000
43.085,0.000
43.090,0.000
43.095,0.000
43.100,0.000
43.105,0.000
43.110,0.000
43.115,0.000
43.120,0.000
43.125,0.000
43.130,0.000
43.135,0.000
43.140,0.000
43.145,0.000
43.150,0.000
43.155,0.000
43.160,0.000
43.165,0.000
43.170,0.000
43.175,0.000
43.180,0.000
43.185,0.000
43.190,0.000
43.195,0.000
43.200,0.000
43.205,0.000
43.210,0.000
43.215,0.000
43.220,0.000
43.225,0.000
43.230,0.000
43.235,0.000
43.240,0.000
43.245,0.000
43.250,0.000
43.255,0.000
43.260,0.000
43.265,0.000
43.270,0.000
43.275,0.000
43.280,0.000
43.285,0.000
43.290,0.000
43.295,0.000
43.300,0.000
43.305,0.000
43.310,0.000
43.315,-0.001
43.320,0.000
43.325,0.000
43.330,0.000
43.335,0.000
43.340,0.000
43.345,0.000
43.350,0.000
43.355,0.001
43.360,0.000
43.365,0.000
43.370,0.000
43.375,0.000
43.380,0.000
43.385,0.000
43.390,0.000
43.395,0.000
43.400,0.000
43.405,0.000
43.410,0.000
43.415,0.000
43.420,0.000
43.425,0.000
43.430,0.000
43.435,0.000
43.440,0.000
43.445,0.000
43.450,0.000
43.455,0.000
43.460,0.000
43.465,0.000
43.470,0.000
43.475,0.000
43.480,0.000
43.485,-0.001
43.490,0.000
43.495,0.000
43.500,0.000
43.505,0.000
43.510,0.000
43.515,0.000
43.520,0.000
43.525,0.000
43.530,0.000
43.535,0.000
43.540,0.000
43.545,0.000
43.550,0.000
43.555,0.000
43.560,0.000
43.565,0.000
43.570,0.000
43.575,0.000
43.580,0.000
43.585,0.000
43.590,0.000
43.595,0.000
43.600,0.000
43.605,0.000
43.610,0.000
43.615,0.000
43.620,0.000
43.625,0.000
43.630,0.000
43.635,0.000
43.640,0.000
43.645,0.000
43.650,0.000
43.655,0.000
43.660,0.000
43.665,0.000
43.670,0.000
43.675,0.000
43.680,0.000
43.685,0.000
43.690,0.000
43.695,0.000
43.700,0.000
43.705,0.000
43.710,0.000
43.715,0.000
43.720,0.000
43.725,0.000
43.730,0.000
43.735,0.000
43.740,0.000
43.745,0.000
43.750,0.000
43.755,0.000
43.760,0.000
43.765,0.000
43.770,0.000
43.775,0.000
43.780,0.000
43.785,0.000
43.790,0.000
43.795,0.000
43.800,0.000
43.805,0.000
43.810,0.000
43.815,0.000
43.820,0.000
43.825,0.000
43.830,0.000
43.835,0.000
43.840,0.000
43.845,0.000
43.850,0.000
43.855,0.000
43.860,0.000
43.865,0.000
43.870,0.000
43.875,0.000
43.880,0.000
43.885,0.000
43.890,0.000
43.895,0.000
43.900,0.000
43.905,0.000
43.910,0.000
43.915,0.000
43.920,0.000
43.925,0.000
43.930,0.000
43.935,0.000
43.940,0.000
43.945,0.000
43.950,0.000
43.955,0.000
43.960,0.000
43.965,0.000
43.970,0.000
43.975,0.000
43.980,0.000
43.985,0.000
43.990,0.000
43.995,0.000
44.000,0.000
44.005,0.000
44.010,0.000
44.015,0.000
44.020,0.000
44.025,0.000
44.030,0.000
44.035,0.000
44.040,0.000
44.045,0.000
44.050,0.000
44.055,0.000
44.060,0.000
44.065,0.000
44.070,0.000
44.075,0.000
44.080,0.000
44.085,0.000
44.090,0.000
44.095,0.000
44.100,0.000
44.105,0.000
44.110,0.000
44.115,0.000
44.120,0.000
44.125,0.000
44.130,0.000
44.135,0.000
44.140,0.000
44.145,0.000
44.150,0.000
44.155,0.000
44.160,0.000
44.165,0.000
44.170,0.000
44.175,0.000
44.180,0.000
44.185,0.000
44.190,0.000
44.195,0.000
44.200,0.000
44.205,0.000
44.210,0.000
44.215,0.000
44.220,0.000
44.225,0.000
44.230,0.000
44.235,0.000
44.240,0.000
44.245,0.000
44.250,0.000
44.255,0.000
44.260,0.000
44.265,0.000
44.270,0.000
44.275,0.000
44.280,0.000
44.285,0.000
44.290,0.000
44.295,0.000
44.300,0.000
44.305,0.000
44.310,0.000
44.315,0.000
44.320,0.000
44.325,0.000
44.330,0.000
44.335,0.000
44.340,0.000
44.345,0.000
44.350,0.000
44.355,0.000
44.360,0.000
44.365,0.000
44.370,0.000
44.375,0.000
44.380,0.000
44.385,0.000
44.390,0.000
44.395,0.000
44.400,0.000
44.405,0.000
44.410,0.000
44.415,0.000
44.420,0.000
44.425,0.000
44.430,0.000
44.435,0.000
44.440,0.000
44.445,0.000
44.450,0.000
44.455,0.000
44.460,0.000
44.465,0.000
44.470,0.000
44.475,0.000
44.480,0.000
44.485,0.000
44.490,0.000
44.495,0.000
44.500,0.000
44.505,0.000
44.510,0.000
44.515,0.000
44.520,0.000
44.525,0.000
44.530,0.000
44.535,0.000
44.540,0.000
44.545,0.000
44.550,0.000
44.555,0.000
44.560,0.000
44.565,0.000
44.570,0.000
44.575,0.000
44.580,0.000
44.585,0.000
44.590,0.000
44.595,0.000
44.600,0.000
44.605,0.000
44.610,0.000
44.615,0.000
44.620,0.000
44.625,0.000
44.630,0.000
44.635,0.000
44.640,0.000
44.645,0.000
44.650,0.000
44.655,0.000
44.660,0.000
44.665,0.000
44.670,0.000
44.675,0.000
44.680,0.000
44.685,0.000
44.690,0.000
44.695,0.000
44.700,0.000
44.705,0.000
44.710,0.000
44.715,0.000
44.720,0.000
44.725,0.000
44.730,-0.001
44.735,0.000
44.740,0.000
44.745,0.000
44.750,0.000
44.755,0.000
44.760,0.000
44.765,0.000
44.770,0.000
44.775,0.000
44.780,0.000
44.785,0.000
44.790,0.000
44.795,0.000
44.800,0.000
44.805,0.000
44.810,0.000
44.815,0.000
44.820,0.000
44.825,0.000
44.830,0.000
44.835,0.000
44.840,0.000
44.845,0.000
44.850,0.000
44.855,0.000
44.860,0.000
44.865,0.000
44.870,0.000
44.875,0.000
44.880,0.000
44.885,0.000
44.890,0.000
44.895,0.000
44.900,0.000
44.905,0.000
44.910,0.000
44.915,0.000
44.920,0.000
44.925,0.000
44.930,0.000
44.935,0.000
44.940,0.000
44.945,0.000
44.950,0.000
44.955,0.000
44.960,0.000
44.965,0.000
44.970,0.000
44.975,0.001
44.980,0.000
44.985,0.000
44.990,0.001
44.995,0.000
45.000,0.000
45.005,0.000
45.010,0.000
45.015,0.000
45.020,0.000
45.025,0.000
45.030,0.001
45.035,0.000
45.040,0.000
45.045,0.000
