'Elapsed time','ECG'
'seconds','mV'
0.000,-0.120
0.005,-0.132
0.010,-0.042
0.015,-0.035
0.020,-0.088
0.025,-0.023
0.030,0.052
0.035,-0.020
0.040,-0.043
0.045,0.030
0.050,0.004
0.055,-0.024
0.060,0.069
0.065,0.096
0.070,0.031
0.075,0.068
0.080,0.118
0.085,0.041
0.090,0.029
0.095,0.107
0.100,0.063
0.105,0.001
0.110,0.069
0.115,0.077
0.120,-0.003
0.125,0.032
0.130,0.082
0.135,0.003
0.140,-0.013
0.145,0.066
0.150,0.013
0.155,-0.130
0.160,-0.232
0.165,-0.452
0.170,-0.794
0.175,-0.915
0.180,-0.639
0.185,-0.142
0.190,0.319
0.195,0.583
0.200,0.547
0.205,0.383
0.210,0.323
0.215,0.230
0.220,0.094
0.225,0.114
0.230,0.158
0.235,0.068
0.240,0.046
0.245,0.120
0.250,0.072
0.255,0.009
0.260,0.082
0.265,0.088
0.270,-0.007
0.275,0.022
0.280,0.072
0.285,-0.008
0.290,-0.017
0.295,0.068
0.300,0.024
0.305,-0.034
0.310,0.040
0.315,0.046
0.320,-0.036
0.325,0.003
0.330,0.049
0.335,-0.033
0.340,-0.041
0.345,0.044
0.350,0.007
0.355,-0.050
0.360,0.027
0.365,0.034
0.370,-0.055
0.375,-0.016
0.380,0.034
0.385,-0.044
0.390,-0.041
0.395,0.046
0.400,0.006
0.405,-0.043
0.410,0.034
0.415,0.035
0.420,-0.048
0.425,0.004
0.430,0.069
0.435,-0.003
0.440,-0.009
0.445,0.076
0.450,0.033
0.455,-0.020
0.460,0.061
0.465,0.068
0.470,-0.014
0.475,0.022
0.480,0.067
0.485,-0.018
0.490,-0.038
0.495,0.034
0.500,-0.014
0.505,-0.077
0.510,-0.005
0.515,0.000
0.520,-0.088
0.525,-0.056
0.530,-0.004
0.535,-0.070
0.540,-0.068
0.545,0.013
0.550,-0.032
0.555,-0.083
0.560,0.007
0.565,0.019
0.570,-0.066
0.575,-0.024
0.580,0.031
0.585,-0.047
0.590,-0.052
0.595,0.032
0.600,-0.010
0.605,-0.064
0.610,0.006
0.615,0.005
0.620,-0.079
0.625,-0.036
0.630,0.018
0.635,-0.056
0.640,-0.059
0.645,0.029
0.650,-0.008
0.655,-0.067
0.660,0.002
0.665,0.007
0.670,-0.073
0.675,-0.024
0.680,0.038
0.685,-0.037
0.690,-0.046
0.695,0.035
0.700,-0.009
0.705,-0.063
0.710,0.017
0.715,0.028
0.720,-0.051
0.725,-0.008
0.730,0.050
0.735,-0.024
0.740,-0.034
0.745,0.046
0.750,0.004
0.755,-0.045
0.760,0.038
0.765,0.045
0.770,-0.040
0.775,-0.005
0.780,0.044
0.785,-0.040
0.790,-0.058
0.795,0.015
0.800,-0.039
0.805,-0.095
0.810,-0.007
0.815,0.003
0.820,-0.100
0.825,-0.085
0.830,-0.032
0.835,-0.094
0.840,-0.097
0.845,-0.010
0.850,-0.033
0.855,-0.060
0.860,0.038
0.865,0.050
0.870,-0.034
0.875,0.010
0.880,0.078
0.885,0.015
0.890,0.019
0.895,0.117
0.900,0.085
0.905,0.028
0.910,0.106
0.915,0.114
0.920,0.029
0.925,0.070
0.930,0.122
0.935,0.039
0.940,0.022
0.945,0.096
0.950,0.048
0.955,-0.012
0.960,0.063
0.965,0.066
0.970,-0.025
0.975,0.022
0.980,0.073
0.985,-0.088
0.990,-0.275
0.995,-0.427
1.000,-0.738
1.005,-0.958
1.010,-0.636
1.015,-0.040
1.020,0.319
1.025,0.518
1.030,0.583
1.035,0.406
1.040,0.264
1.045,0.244
1.050,0.148
1.055,0.072
1.060,0.135
1.065,0.130
1.070,0.038
1.075,0.072
1.080,0.123
1.085,0.043
1.090,0.021
1.095,0.085
1.100,0.039
1.105,-0.012
1.110,0.061
1.115,0.063
1.120,-0.019
1.125,0.020
1.130,0.064
1.135,-0.022
1.140,-0.028
1.145,0.051
1.150,0.023
1.155,0.000
1.160,0.077
1.165,0.075
1.170,-0.008
1.175,0.026
1.180,0.074
1.185,-0.009
1.190,-0.015
1.195,0.072
1.200,0.023
1.205,-0.035
1.210,0.047
1.215,0.051
1.220,-0.038
1.225,0.003
1.230,0.057
1.235,-0.018
1.240,-0.023
1.245,0.060
1.250,0.022
1.255,-0.025
1.260,0.051
1.265,0.055
1.270,-0.023
1.275,0.029
1.280,0.084
1.285,0.003
1.290,-0.004
1.295,0.074
1.300,0.032
1.305,-0.023
1.310,0.041
1.315,0.034
1.320,-0.051
1.325,-0.011
1.330,0.034
1.335,-0.061
1.340,-0.082
1.345,-0.002
1.350,-0.044
1.355,-0.099
1.360,-0.026
1.365,-0.024
1.370,-0.105
1.375,-0.052
1.380,0.012
1.385,-0.063
1.390,-0.066
1.395,0.018
1.400,-0.027
1.405,-0.082
1.410,-0.010
1.415,-0.009
1.420,-0.090
1.425,-0.045
1.430,0.007
1.435,-0.067
1.440,-0.063
1.445,0.026
1.450,-0.025
1.455,-0.090
1.460,-0.018
1.465,-0.018
1.470,-0.097
1.475,-0.045
1.480,0.011
1.485,-0.072
1.490,-0.079
1.495,0.007
1.500,-0.030
1.505,-0.077
1.510,0.006
1.515,0.013
1.520,-0.069
1.525,-0.026
1.530,0.027
1.535,-0.048
1.540,-0.048
1.545,0.040
1.550,-0.004
1.555,-0.056
1.560,0.025
1.565,0.033
1.570,-0.052
1.575,-0.018
1.580,0.031
1.585,-0.044
1.590,-0.044
1.595,0.044
1.600,0.001
1.605,-0.054
1.610,0.021
1.615,0.019
1.620,-0.074
1.625,-0.039
1.630,0.005
1.635,-0.078
1.640,-0.078
1.645,0.007
1.650,-0.045
1.655,-0.117
1.660,-0.056
1.665,-0.046
1.670,-0.112
1.675,-0.060
1.680,0.003
1.685,-0.051
1.690,-0.033
1.695,0.056
1.700,0.009
1.705,-0.042
1.710,0.043
1.715,0.064
1.720,-0.001
1.725,0.059
1.730,0.127
1.735,0.057
1.740,0.053
1.745,0.133
1.750,0.084
1.755,0.025
1.760,0.096
1.765,0.094
1.770,0.004
1.775,0.047
1.780,0.104
1.785,0.024
1.790,0.012
1.795,0.086
1.800,0.031
1.805,-0.027
1.810,0.046
1.815,-0.004
1.820,-0.220
1.825,-0.379
1.830,-0.598
1.835,-0.912
1.840,-0.854
1.845,-0.291
1.850,0.218
1.855,0.442
1.860,0.589
1.865,0.532
1.870,0.308
1.875,0.231
1.880,0.212
1.885,0.108
1.890,0.096
1.895,0.163
1.900,0.099
1.905,0.034
1.910,0.106
1.915,0.099
1.920,0.007
1.925,0.049
1.930,0.100
1.935,0.013
1.940,0.003
1.945,0.084
1.950,0.038
1.955,-0.016
1.960,0.058
1.965,0.054
1.970,-0.034
1.975,0.004
1.980,0.052
1.985,-0.021
1.990,-0.021
1.995,0.054
2.000,0.002
2.005,-0.050
2.010,0.026
2.015,0.025
2.020,-0.056
2.025,-0.006
2.030,0.050
2.035,-0.027
2.040,-0.032
2.045,0.044
2.050,-0.002
2.055,-0.050
2.060,0.030
2.065,0.033
2.070,-0.044
2.075,0.006
2.080,0.056
2.085,-0.020
2.090,-0.013
2.095,0.071
2.100,0.022
2.105,-0.026
2.110,0.063
2.115,0.072
2.120,-0.008
2.125,0.033
2.130,0.077
2.135,-0.008
2.140,-0.012
2.145,0.063
2.150,0.009
2.155,-0.047
2.160,0.020
2.165,0.009
2.170,-0.076
2.175,-0.030
2.180,0.016
2.185,-0.068
2.190,-0.073
2.195,0.006
2.200,-0.043
2.205,-0.093
2.210,-0.006
2.215,0.002
2.220,-0.076
2.225,-0.024
2.230,0.029
2.235,-0.048
2.240,-0.047
2.245,0.030
2.250,-0.023
2.255,-0.072
2.260,0.010
2.265,0.013
2.270,-0.066
2.275,-0.018
2.280,0.034
2.285,-0.046
2.290,-0.054
2.295,0.024
2.300,-0.025
2.305,-0.082
2.310,-0.003
2.315,0.004
2.320,-0.077
2.325,-0.026
2.330,0.028
2.335,-0.049
2.340,-0.045
2.345,0.042
2.350,-0.004
2.355,-0.058
2.360,0.019
2.365,0.022
2.370,-0.054
2.375,0.002
2.380,0.056
2.385,-0.033
2.390,-0.039
2.395,0.049
2.400,0.006
2.405,-0.041
2.410,0.034
2.415,0.023
2.420,-0.055
2.425,0.003
2.430,0.056
2.435,-0.025
2.440,-0.024
2.445,0.058
2.450,0.002
2.455,-0.054
2.460,0.022
2.465,0.011
2.470,-0.086
2.475,-0.049
2.480,-0.002
2.485,-0.081
2.490,-0.080
2.495,-0.004
2.500,-0.073
2.505,-0.130
2.510,-0.032
2.515,-0.017
2.520,-0.088
2.525,-0.025
2.530,0.046
2.535,-0.022
2.540,-0.029
2.545,0.047
2.550,0.005
2.555,-0.023
2.560,0.082
2.565,0.095
2.570,0.025
2.575,0.083
2.580,0.136
2.585,0.053
2.590,0.049
2.595,0.126
2.600,0.072
2.605,0.021
2.610,0.100
2.615,0.092
2.620,0.004
2.625,0.055
2.630,0.108
2.635,0.019
2.640,0.006
2.645,0.076
2.650,0.019
2.655,-0.041
2.660,-0.042
2.665,-0.224
2.670,-0.541
2.675,-0.752
2.680,-0.852
2.685,-0.695
2.690,-0.120
2.695,0.411
2.700,0.529
2.705,0.494
2.710,0.474
2.715,0.332
2.720,0.147
2.725,0.147
2.730,0.175
2.735,0.079
2.740,0.072
2.745,0.145
2.750,0.087
2.755,0.027
2.760,0.096
2.765,0.088
2.770,0.000
2.775,0.041
2.780,0.086
2.785,-0.004
2.790,-0.009
2.795,0.074
2.800,0.022
2.805,-0.026
2.810,0.057
2.815,0.048
2.820,-0.038
2.825,0.007
2.830,0.052
2.835,-0.027
2.840,-0.024
2.845,0.050
2.850,-0.008
2.855,-0.054
2.860,0.034
2.865,0.031
2.870,-0.056
2.875,-0.008
2.880,0.040
2.885,-0.041
2.890,-0.041
2.895,0.042
2.900,0.000
2.905,-0.044
2.910,0.037
2.915,0.035
2.920,-0.043
2.925,0.012
2.930,0.061
2.935,-0.012
2.940,-0.001
2.945,0.074
2.950,0.026
2.955,-0.011
2.960,0.070
2.965,0.067
2.970,-0.013
2.975,0.033
2.980,0.076
2.985,-0.007
2.990,-0.010
2.995,0.061
3.000,-0.004
3.005,-0.063
3.010,0.007
3.015,-0.005
3.020,-0.088
3.025,-0.040
3.030,0.003
3.035,-0.084
3.040,-0.089
3.045,-0.006
3.050,-0.047
3.055,-0.089
3.060,-0.007
3.065,-0.009
3.070,-0.086
3.075,-0.027
3.080,0.027
3.085,-0.058
3.090,-0.058
3.095,0.024
3.100,-0.035
3.105,-0.085
3.110,0.009
3.115,0.009
3.120,-0.077
3.125,-0.032
3.130,0.014
3.135,-0.063
3.140,-0.059
3.145,0.021
3.150,-0.027
3.155,-0.073
3.160,0.005
3.165,0.000
3.170,-0.075
3.175,-0.017
3.180,0.029
3.185,-0.053
3.190,-0.049
3.195,0.024
3.200,-0.030
3.205,-0.066
3.210,0.025
3.215,0.024
3.220,-0.056
3.225,-0.003
3.230,0.046
3.235,-0.035
3.240,-0.032
3.245,0.048
3.250,-0.009
3.255,-0.053
3.260,0.038
3.265,0.033
3.270,-0.055
3.275,-0.003
3.280,0.047
3.285,-0.035
3.290,-0.027
3.295,0.054
3.300,-0.007
3.305,-0.064
3.310,0.008
3.315,-0.010
3.320,-0.101
3.325,-0.046
3.330,0.006
3.335,-0.078
3.340,-0.088
3.345,-0.030
3.350,-0.081
3.355,-0.108
3.360,-0.012
3.365,-0.004
3.370,-0.062
3.375,0.011
3.380,0.056
3.385,-0.032
3.390,-0.024
3.395,0.065
3.400,0.028
3.405,0.002
3.410,0.102
3.415,0.110
3.420,0.043
3.425,0.097
3.430,0.130
3.435,0.035
3.440,0.030
3.445,0.111
3.450,0.066
3.455,0.017
3.460,0.092
3.465,0.080
3.470,-0.005
3.475,0.046
3.480,0.087
3.485,-0.005
3.490,-0.004
3.495,0.080
3.500,-0.016
3.505,-0.205
3.510,-0.338
3.515,-0.613
3.520,-0.928
3.525,-0.803
3.530,-0.256
3.535,0.210
3.540,0.472
3.545,0.602
3.550,0.478
3.555,0.297
3.560,0.259
3.565,0.176
3.570,0.068
3.575,0.115
3.580,0.153
3.585,0.056
3.590,0.051
3.595,0.124
3.600,0.058
3.605,0.005
3.610,0.084
3.615,0.068
3.620,-0.018
3.625,0.036
3.630,0.077
3.635,-0.007
3.640,-0.001
3.645,0.075
3.650,0.017
3.655,-0.030
3.660,0.049
3.665,0.036
3.670,-0.047
3.675,0.006
3.680,0.049
3.685,-0.036
3.690,-0.032
3.695,0.048
3.700,-0.007
3.705,-0.052
3.710,0.031
3.715,0.026
3.720,-0.055
3.725,-0.006
3.730,0.038
3.735,-0.041
3.740,-0.030
3.745,0.051
3.750,-0.003
3.755,-0.042
3.760,0.044
3.765,0.039
3.770,-0.035
3.775,0.029
3.780,0.079
3.785,-0.004
3.790,0.006
3.795,0.090
3.800,0.037
3.805,-0.004
3.810,0.077
3.815,0.063
3.820,-0.012
3.825,0.049
3.830,0.083
3.835,-0.019
3.840,-0.031
3.845,0.032
3.850,-0.032
3.855,-0.083
3.860,-0.008
3.865,-0.015
3.870,-0.088
3.875,-0.036
3.880,0.000
3.885,-0.089
3.890,-0.081
3.895,0.007
3.900,-0.043
3.905,-0.088
3.910,-0.004
3.915,-0.007
3.920,-0.087
3.925,-0.032
3.930,0.016
3.935,-0.062
3.940,-0.050
3.945,0.024
3.950,-0.038
3.955,-0.085
3.960,-0.008
3.965,-0.018
3.970,-0.099
3.975,-0.041
3.980,0.011
3.985,-0.070
3.990,-0.060
3.995,0.023
4.000,-0.037
4.005,-0.086
4.010,-0.002
4.015,-0.006
4.020,-0.075
4.025,-0.009
4.030,0.034
4.035,-0.051
4.040,-0.037
4.045,0.040
4.050,-0.022
4.055,-0.063
4.060,0.025
4.065,0.021
4.070,-0.052
4.075,0.010
4.080,0.049
4.085,-0.041
4.090,-0.031
4.095,0.051
4.100,-0.007
4.105,-0.050
4.110,0.034
4.115,0.025
4.120,-0.051
4.125,0.008
4.130,0.048
4.135,-0.042
4.140,-0.043
4.145,0.016
4.150,-0.057
4.155,-0.102
4.160,-0.016
4.165,-0.022
4.170,-0.108
4.175,-0.066
4.180,-0.024
4.185,-0.098
4.190,-0.076
4.195,0.015
4.200,-0.031
4.205,-0.054
4.210,0.046
4.215,0.033
4.220,-0.048
4.225,0.017
4.230,0.075
4.235,0.014
4.240,0.040
4.245,0.127
4.250,0.075
4.255,0.036
4.260,0.117
4.265,0.105
4.270,0.027
4.275,0.080
4.280,0.110
4.285,0.019
4.290,0.029
4.295,0.106
4.300,0.048
4.305,0.003
4.310,0.079
4.315,0.060
4.320,-0.024
4.325,0.039
4.330,0.052
4.335,-0.152
4.340,-0.344
4.345,-0.523
4.350,-0.833
4.355,-0.922
4.360,-0.455
4.365,0.120
4.370,0.253
4.375,0.141
4.380,0.044
4.385,-0.110
4.390,-0.203
4.395,-0.184
4.400,-0.243
4.405,-0.276
4.410,-0.177
4.415,-0.176
4.420,-0.244
4.425,-0.169
4.430,-0.115
4.435,-0.187
4.440,-0.162
4.445,-0.072
4.450,-0.116
4.455,-0.140
4.460,-0.038
4.465,-0.035
4.470,-0.104
4.475,-0.031
4.480,0.025
4.485,-0.051
4.490,-0.034
4.495,0.052
4.500,0.005
4.505,-0.023
4.510,0.071
4.515,0.068
4.520,-0.004
4.525,0.060
4.530,0.105
4.535,0.022
4.540,0.041
4.545,0.132
4.550,0.084
4.555,0.051
4.560,0.139
4.565,0.133
4.570,0.066
4.575,0.131
4.580,0.172
4.585,0.095
4.590,0.117
4.595,0.198
4.600,0.144
4.605,0.114
4.610,0.202
4.615,0.191
4.620,0.119
4.625,0.180
4.630,0.223
4.635,0.143
4.640,0.154
4.645,0.230
4.650,0.173
4.655,0.131
4.660,0.204
4.665,0.181
4.670,0.095
4.675,0.143
4.680,0.172
4.685,0.078
4.690,0.080
4.695,0.150
4.700,0.089
4.705,0.045
4.710,0.126
4.715,0.115
4.720,0.038
4.725,0.099
4.730,0.140
4.735,0.053
4.740,0.069
4.745,0.150
4.750,0.085
4.755,0.038
4.760,0.120
4.765,0.105
4.770,0.027
4.775,0.084
4.780,0.118
4.785,0.028
4.790,0.036
4.795,0.112
4.800,0.053
4.805,0.009
4.810,0.089
4.815,0.075
4.820,-0.004
4.825,0.052
4.830,0.091
4.835,0.007
4.840,0.022
4.845,0.102
4.850,0.040
4.855,-0.006
4.860,0.074
4.865,0.057
4.870,-0.023
4.875,0.042
4.880,0.087
4.885,0.004
4.890,0.015
4.895,0.090
4.900,0.032
4.905,-0.010
4.910,0.066
4.915,0.048
4.920,-0.025
4.925,0.037
4.930,0.071
4.935,-0.021
4.940,-0.005
4.945,0.074
4.950,0.012
4.955,-0.030
4.960,0.053
4.965,0.038
4.970,-0.043
4.975,0.013
4.980,0.045
4.985,-0.059
4.990,-0.071
4.995,-0.003
5.000,-0.064
5.005,-0.103
5.010,-0.017
5.015,-0.042
5.020,-0.130
5.025,-0.064
5.030,-0.017
5.035,-0.099
5.040,-0.074
5.045,0.028
5.050,-0.009
5.055,-0.048
5.060,0.027
5.065,0.016
5.070,-0.051
5.075,0.023
5.080,0.076
5.085,0.007
5.090,0.038
5.095,0.122
5.100,0.064
5.105,0.021
5.110,0.097
5.115,0.073
5.120,-0.009
5.125,0.049
5.130,0.083
5.135,-0.005
5.140,0.004
5.145,0.069
5.150,0.003
5.155,-0.033
5.160,0.047
5.165,0.026
5.170,-0.059
5.175,-0.059
5.180,-0.177
5.185,-0.485
5.190,-0.730
5.195,-0.857
5.200,-0.817
5.205,-0.345
5.210,0.279
5.215,0.508
5.220,0.480
5.225,0.468
5.230,0.359
5.235,0.157
5.240,0.105
5.245,0.146
5.250,0.069
5.255,0.027
5.260,0.110
5.265,0.084
5.270,-0.009
5.275,0.042
5.280,0.075
5.285,-0.012
5.290,-0.001
5.295,0.068
5.300,-0.008
5.305,-0.056
5.310,0.031
5.315,0.018
5.320,-0.057
5.325,0.005
5.330,0.037
5.335,-0.054
5.340,-0.034
5.345,0.040
5.350,-0.032
5.355,-0.075
5.360,0.013
5.365,0.000
5.370,-0.079
5.375,-0.021
5.380,0.020
5.385,-0.059
5.390,-0.047
5.395,0.020
5.400,-0.038
5.405,-0.065
5.410,0.026
5.415,0.001
5.420,-0.085
5.425,-0.016
5.430,0.036
5.435,-0.041
5.440,-0.027
5.445,0.044
5.450,-0.015
5.455,-0.039
5.460,0.051
5.465,0.035
5.470,-0.035
5.475,0.036
5.480,0.072
5.485,-0.021
5.490,-0.006
5.495,0.075
5.500,0.012
5.505,-0.035
5.510,0.037
5.515,0.007
5.520,-0.080
5.525,-0.026
5.530,0.003
5.535,-0.090
5.540,-0.080
5.545,-0.008
5.550,-0.070
5.555,-0.103
5.560,-0.013
5.565,-0.028
5.570,-0.103
5.575,-0.043
5.580,-0.009
5.585,-0.087
5.590,-0.061
5.595,0.021
5.600,-0.044
5.605,-0.087
5.610,0.001
5.615,-0.009
5.620,-0.080
5.625,-0.016
5.630,0.015
5.635,-0.075
5.640,-0.058
5.645,0.012
5.650,-0.057
5.655,-0.088
5.660,0.001
5.665,-0.015
5.670,-0.086
5.675,-0.022
5.680,0.014
5.685,-0.072
5.690,-0.053
5.695,0.029
5.700,-0.029
5.705,-0.062
5.710,0.024
5.715,0.000
5.720,-0.074
5.725,-0.005
5.730,0.028
5.735,-0.059
5.740,-0.037
5.745,0.043
5.750,-0.019
5.755,-0.055
5.760,0.028
5.765,0.013
5.770,-0.057
5.775,0.010
5.780,0.048
5.785,-0.039
5.790,-0.018
5.795,0.057
5.800,-0.013
5.805,-0.058
5.810,0.011
5.815,-0.025
5.820,-0.107
5.825,-0.038
5.830,0.002
5.835,-0.086
5.840,-0.077
5.845,-0.023
5.850,-0.093
5.855,-0.111
5.860,-0.012
5.865,-0.021
5.870,-0.081
5.875,0.006
5.880,0.062
5.885,-0.023
5.890,-0.010
5.895,0.065
5.900,0.015
5.905,-0.001
5.910,0.099
5.915,0.096
5.920,0.032
5.925,0.096
5.930,0.127
5.935,0.041
5.940,0.061
5.945,0.130
5.950,0.056
5.955,0.017
5.960,0.098
5.965,0.074
5.970,-0.006
5.975,0.048
5.980,0.080
5.985,-0.005
5.990,0.008
5.995,0.081
6.000,-0.009
6.005,-0.150
6.010,-0.258
6.015,-0.532
6.020,-0.866
6.025,-0.855
6.030,-0.431
6.035,0.079
6.040,0.441
6.045,0.602
6.050,0.489
6.055,0.329
6.060,0.294
6.065,0.187
6.070,0.074
6.075,0.126
6.080,0.146
6.085,0.053
6.090,0.063
6.095,0.118
6.100,0.048
6.105,0.011
6.110,0.081
6.115,0.055
6.120,-0.015
6.125,0.045
6.130,0.067
6.135,-0.023
6.140,0.000
6.145,0.074
6.150,0.000
6.155,-0.033
6.160,0.056
6.165,0.030
6.170,-0.046
6.175,0.014
6.180,0.041
6.185,-0.044
6.190,-0.024
6.195,0.050
6.200,-0.017
6.205,-0.052
6.210,0.031
6.215,0.006
6.220,-0.065
6.225,0.002
6.230,0.035
6.235,-0.045
6.240,-0.024
6.245,0.049
6.250,-0.012
6.255,-0.044
6.260,0.046
6.265,0.033
6.270,-0.038
6.275,0.031
6.280,0.071
6.285,-0.010
6.290,0.011
6.295,0.080
6.300,0.015
6.305,-0.013
6.310,0.076
6.315,0.056
6.320,-0.015
6.325,0.051
6.330,0.074
6.335,-0.025
6.340,-0.019
6.345,0.035
6.350,-0.041
6.355,-0.078
6.360,0.001
6.365,-0.026
6.370,-0.097
6.375,-0.026
6.380,0.001
6.385,-0.086
6.390,-0.056
6.395,0.018
6.400,-0.050
6.405,-0.077
6.410,0.011
6.415,-0.010
6.420,-0.078
6.425,-0.013
6.430,0.016
6.435,-0.069
6.440,-0.046
6.445,0.026
6.450,-0.039
6.455,-0.068
6.460,0.013
6.465,-0.014
6.470,-0.083
6.475,-0.018
6.480,0.008
6.485,-0.075
6.490,-0.048
6.495,0.029
6.500,-0.033
6.505,-0.067
6.510,0.012
6.515,-0.010
6.520,-0.073
6.525,-0.002
6.530,0.025
6.535,-0.061
6.540,-0.033
6.545,0.045
6.550,-0.018
6.555,-0.045
6.560,0.040
6.565,0.011
6.570,-0.063
6.575,0.006
6.580,0.038
6.585,-0.043
6.590,-0.014
6.595,0.053
6.600,-0.018
6.605,-0.045
6.610,0.039
6.615,0.018
6.620,-0.050
6.625,0.009
6.630,0.032
6.635,-0.058
6.640,-0.051
6.645,0.000
6.650,-0.071
6.655,-0.095
6.660,-0.010
6.665,-0.043
6.670,-0.123
6.675,-0.051
6.680,-0.010
6.685,-0.089
6.690,-0.054
6.695,0.037
6.700,-0.015
6.705,-0.042
6.710,0.041
6.715,0.020
6.720,-0.035
6.725,0.056
6.730,0.097
6.735,0.023
6.740,0.062
6.745,0.134
6.750,0.063
6.755,0.033
6.760,0.117
6.765,0.087
6.770,0.012
6.775,0.075
6.780,0.099
6.785,0.013
6.790,0.030
6.795,0.089
6.800,0.020
6.805,-0.012
6.810,0.064
6.815,0.038
6.820,-0.030
6.825,-0.027
6.830,-0.165
6.835,-0.476
6.840,-0.719
6.845,-0.845
6.850,-0.742
6.855,-0.212
6.860,0.360
6.865,0.529
6.870,0.484
6.875,0.464
6.880,0.362
6.885,0.174
6.890,0.139
6.895,0.179
6.900,0.092
6.905,0.057
6.910,0.134
6.915,0.095
6.920,0.017
6.925,0.077
6.930,0.091
6.935,-0.002
6.940,0.025
6.945,0.091
6.950,0.016
6.955,-0.015
6.960,0.068
6.965,0.044
6.970,-0.030
6.975,0.029
6.980,0.052
6.985,-0.029
6.990,-0.002
6.995,0.058
7.000,-0.017
7.005,-0.043
7.010,0.039
7.015,0.014
7.020,-0.051
7.025,0.016
7.030,0.043
7.035,-0.041
7.040,-0.022
7.045,0.045
7.050,-0.021
7.055,-0.051
7.060,0.034
7.065,0.012
7.070,-0.054
7.075,0.018
7.080,0.049
7.085,-0.035
7.090,-0.012
7.095,0.057
7.100,-0.009
7.105,-0.030
7.110,0.065
7.115,0.048
7.120,-0.017
7.125,0.053
7.130,0.085
7.135,-0.001
7.140,0.012
7.145,0.068
7.150,-0.004
7.155,-0.032
7.160,0.050
7.165,0.016
7.170,-0.068
7.175,-0.013
7.180,0.007
7.185,-0.082
7.190,-0.057
7.195,0.010
7.200,-0.059
7.205,-0.080
7.210,0.011
7.215,-0.011
7.220,-0.079
7.225,-0.011
7.230,0.022
7.235,-0.055
7.240,-0.033
7.245,0.030
7.250,-0.036
7.255,-0.064
7.260,0.016
7.265,-0.008
7.270,-0.071
7.275,0.000
7.280,0.020
7.285,-0.073
7.290,-0.048
7.295,0.021
7.300,-0.051
7.305,-0.079
7.310,0.010
7.315,-0.015
7.320,-0.080
7.325,-0.007
7.330,0.016
7.335,-0.070
7.340,-0.031
7.345,0.042
7.350,-0.036
7.355,-0.058
7.360,0.034
7.365,0.004
7.370,-0.063
7.375,0.011
7.380,0.033
7.385,-0.051
7.390,-0.018
7.395,0.055
7.400,-0.018
7.405,-0.045
7.410,0.045
7.415,0.020
7.420,-0.047
7.425,0.024
7.430,0.048
7.435,-0.041
7.440,-0.015
7.445,0.052
7.450,-0.024
7.455,-0.058
7.460,0.016
7.465,-0.028
7.470,-0.107
7.475,-0.033
7.480,-0.003
7.485,-0.101
7.490,-0.090
7.495,-0.020
7.500,-0.077
7.505,-0.089
7.510,0.008
7.515,-0.011
7.520,-0.051
7.525,0.036
7.530,0.038
7.535,-0.053
7.540,-0.010
7.545,0.075
7.550,0.025
7.555,0.014
7.560,0.112
7.565,0.091
7.570,0.022
7.575,0.088
7.580,0.108
7.585,0.016
7.590,0.041
7.595,0.107
7.600,0.034
7.605,0.011
7.610,0.091
7.615,0.053
7.620,-0.017
7.625,0.052
7.630,0.069
7.635,-0.021
7.640,0.011
7.645,0.040
7.650,-0.165
7.655,-0.394
7.660,-0.562
7.665,-0.838
7.670,-0.917
7.675,-0.425
7.680,0.178
7.685,0.415
7.690,0.534
7.695,0.562
7.700,0.362
7.705,0.213
7.710,0.214
7.715,0.147
7.720,0.072
7.725,0.140
7.730,0.147
7.735,0.040
7.740,0.064
7.745,0.132
7.750,0.056
7.755,0.027
7.760,0.103
7.765,0.065
7.770,-0.006
7.775,0.061
7.780,0.074
7.785,-0.015
7.790,0.016
7.795,0.080
7.800,0.004
7.805,-0.020
7.810,0.061
7.815,0.024
7.820,-0.042
7.825,0.032
7.830,0.052
7.835,-0.037
7.840,-0.005
7.845,0.060
7.850,-0.016
7.855,-0.038
7.860,0.050
7.865,0.017
7.870,-0.049
7.875,0.029
7.880,0.048
7.885,-0.044
7.890,-0.008
7.895,0.064
7.900,-0.011
7.905,-0.032
7.910,0.054
7.915,0.021
7.920,-0.039
7.925,0.046
7.930,0.072
7.935,-0.016
7.940,0.012
7.945,0.074
7.950,0.001
7.955,-0.016
7.960,0.073
7.965,0.039
7.970,-0.027
7.975,0.041
7.980,0.048
7.985,-0.051
7.990,-0.025
7.995,0.033
8.000,-0.053
8.005,-0.077
8.010,0.009
8.015,-0.028
8.020,-0.097
8.025,-0.020
8.030,0.006
8.035,-0.077
8.040,-0.038
8.045,0.036
8.050,-0.035
8.055,-0.060
8.060,0.022
8.065,-0.009
8.070,-0.074
8.075,-0.001
8.080,0.021
8.085,-0.064
8.090,-0.032
8.095,0.035
8.100,-0.037
8.105,-0.060
8.110,0.023
8.115,-0.012
8.120,-0.077
8.125,0.003
8.130,0.024
8.135,-0.069
8.140,-0.041
8.145,0.027
8.150,-0.045
8.155,-0.067
8.160,0.024
8.165,-0.005
8.170,-0.072
8.175,0.005
8.180,0.028
8.185,-0.058
8.190,-0.024
8.195,0.043
8.200,-0.030
8.205,-0.048
8.210,0.041
8.215,0.005
8.220,-0.063
8.225,0.014
8.230,0.035
8.235,-0.054
8.240,-0.019
8.245,0.054
8.250,-0.017
8.255,-0.038
8.260,0.048
8.265,0.013
8.270,-0.064
8.275,-0.003
8.280,0.002
8.285,-0.096
8.290,-0.065
8.295,0.002
8.300,-0.074
8.305,-0.100
8.310,-0.030
8.315,-0.077
8.320,-0.132
8.325,-0.041
8.330,-0.013
8.335,-0.085
8.340,-0.024
8.345,0.066
8.350,-0.004
8.355,-0.031
8.360,0.056
8.365,0.034
8.370,-0.011
8.375,0.080
8.380,0.110
8.385,0.030
8.390,0.070
8.395,0.139
8.400,0.062
8.405,0.038
8.410,0.118
8.415,0.073
8.420,0.006
8.425,0.083
8.430,0.094
8.435,0.000
8.440,0.038
8.445,0.107
8.450,0.030
8.455,-0.002
8.460,0.072
8.465,0.029
8.470,-0.101
8.475,-0.186
8.480,-0.384
8.485,-0.724
8.490,-0.888
8.495,-0.701
8.500,-0.260
8.505,0.237
8.510,0.562
8.515,0.570
8.520,0.419
8.525,0.351
8.530,0.258
8.535,0.109
8.540,0.121
8.545,0.172
8.550,0.078
8.555,0.049
8.560,0.128
8.565,0.080
8.570,0.008
8.575,0.085
8.580,0.096
8.585,-0.003
8.590,0.026
8.595,0.084
8.600,-0.003
8.605,-0.024
8.610,0.069
8.615,0.034
8.620,-0.034
8.625,0.034
8.630,0.043
8.635,-0.043
8.640,-0.003
8.645,0.057
8.650,-0.026
8.655,-0.047
8.660,0.039
8.665,0.000
8.670,-0.066
8.675,0.015
8.680,0.037
8.685,-0.048
8.690,-0.010
8.695,0.052
8.700,-0.028
8.705,-0.050
8.710,0.032
8.715,-0.001
8.720,-0.056
8.725,0.024
8.730,0.040
8.735,-0.043
8.740,-0.002
8.745,0.062
8.750,-0.012
8.755,-0.023
8.760,0.068
8.765,0.036
8.770,-0.023
8.775,0.055
8.780,0.068
8.785,-0.025
8.790,0.009
8.795,0.067
8.800,-0.019
8.805,-0.043
8.810,0.037
8.815,-0.009
8.820,-0.085
8.825,-0.016
8.830,-0.005
8.835,-0.094
8.840,-0.057
8.845,0.004
8.850,-0.073
8.855,-0.086
8.860,0.006
8.865,-0.024
8.870,-0.082
8.875,-0.003
8.880,0.016
8.885,-0.070
8.890,-0.037
8.895,0.030
8.900,-0.038
8.905,-0.055
8.910,0.027
8.915,-0.013
8.920,-0.076
8.925,0.006
8.930,0.018
8.935,-0.075
8.940,-0.037
8.945,0.030
8.950,-0.048
8.955,-0.065
8.960,0.022
8.965,-0.019
8.970,-0.084
8.975,0.000
8.980,0.022
8.985,-0.071
8.990,-0.036
8.995,0.036
9.000,-0.037
9.005,-0.050
9.010,0.042
9.015,-0.001
9.020,-0.074
9.025,0.003
9.030,0.026
9.035,-0.058
9.040,-0.015
9.045,0.054
9.050,-0.027
9.055,-0.044
9.060,0.044
9.065,0.008
9.070,-0.053
9.075,0.024
9.080,0.039
9.085,-0.049
9.090,-0.015
9.095,0.047
9.100,-0.039
9.105,-0.080
9.110,-0.009
9.115,-0.045
9.120,-0.103
9.125,-0.025
9.130,-0.021
9.135,-0.127
9.140,-0.086
9.145,-0.008
9.150,-0.081
9.155,-0.084
9.160,0.026
9.165,0.013
9.170,-0.039
9.175,0.033
9.180,0.045
9.185,-0.034
9.190,0.021
9.195,0.097
9.200,0.029
9.205,0.037
9.210,0.141
9.215,0.103
9.220,0.037
9.225,0.105
9.230,0.105
9.235,0.009
9.240,0.043
9.245,0.111
9.250,0.040
9.255,0.021
9.260,0.104
9.265,0.059
9.270,-0.017
9.275,0.052
9.280,0.062
9.285,-0.023
9.290,0.002
9.295,-0.034
9.300,-0.297
9.305,-0.552
9.310,-0.732
9.315,-0.873
9.320,-0.596
9.325,0.076
9.330,0.460
9.335,0.484
9.340,0.503
9.345,0.452
9.350,0.249
9.355,0.141
9.360,0.177
9.365,0.121
9.370,0.048
9.375,0.113
9.380,0.119
9.385,0.026
9.390,0.055
9.395,0.108
9.400,0.022
9.405,0.005
9.410,0.087
9.415,0.038
9.420,-0.029
9.425,0.049
9.430,0.062
9.435,-0.028
9.440,0.009
9.445,0.069
9.450,-0.015
9.455,-0.033
9.460,0.049
9.465,0.007
9.470,-0.052
9.475,0.030
9.480,0.043
9.485,-0.046
9.490,-0.009
9.495,0.048
9.500,-0.033
9.505,-0.042
9.510,0.047
9.515,0.002
9.520,-0.058
9.525,0.022
9.530,0.033
9.535,-0.055
9.540,-0.017
9.545,0.046
9.550,-0.019
9.555,-0.027
9.560,0.055
9.565,0.020
9.570,-0.033
9.575,0.046
9.580,0.057
9.585,-0.028
9.590,0.020
9.595,0.089
9.600,0.015
9.605,0.001
9.610,0.080
9.615,0.028
9.620,-0.042
9.625,0.031
9.630,0.038
9.635,-0.057
9.640,-0.025
9.645,0.028
9.650,-0.059
9.655,-0.076
9.660,0.005
9.665,-0.039
9.670,-0.098
9.675,-0.013
9.680,0.005
9.685,-0.077
9.690,-0.033
9.695,0.030
9.700,-0.046
9.705,-0.059
9.710,0.023
9.715,-0.017
9.720,-0.073
9.725,0.004
9.730,0.016
9.735,-0.065
9.740,-0.023
9.745,0.036
9.750,-0.045
9.755,-0.061
9.760,0.018
9.765,-0.028
9.770,-0.089
9.775,-0.012
9.780,0.001
9.785,-0.079
9.790,-0.036
9.795,0.030
9.800,-0.040
9.805,-0.056
9.810,0.022
9.815,-0.012
9.820,-0.065
9.825,0.008
9.830,0.015
9.835,-0.069
9.840,-0.024
9.845,0.046
9.850,-0.028
9.855,-0.044
9.860,0.037
9.865,-0.005
9.870,-0.056
9.875,0.031
9.880,0.036
9.885,-0.055
9.890,-0.013
9.895,0.053
9.900,-0.020
9.905,-0.034
9.910,0.047
9.915,0.005
9.920,-0.063
9.925,-0.005
9.930,-0.009
9.935,-0.101
9.940,-0.063
9.945,0.003
9.950,-0.077
9.955,-0.104
9.960,-0.023
9.965,-0.054
9.970,-0.105
9.975,-0.021
9.980,0.004
9.985,-0.059
9.990,-0.001
9.995,0.059
10.000,-0.022
10.005,-0.030
10.010,0.066
10.015,0.044
10.020,0.003
10.025,0.092
10.030,0.110
10.035,0.032
10.040,0.081
10.045,0.140
10.050,0.057
10.055,0.037
10.060,0.113
10.065,0.067
10.070,0.008
10.075,0.082
10.080,0.086
10.085,0.000
10.090,0.040
10.095,0.091
10.100,0.003
10.105,-0.015
10.110,0.063
10.115,-0.042
10.120,-0.256
10.125,-0.397
10.130,-0.642
10.135,-0.917
10.140,-0.743
10.145,-0.168
10.150,0.253
10.155,0.469
10.160,0.604
10.165,0.478
10.170,0.272
10.175,0.236
10.180,0.186
10.185,0.078
10.190,0.105
10.195,0.146
10.200,0.055
10.205,0.041
10.210,0.122
10.215,0.070
10.220,0.002
10.225,0.076
10.230,0.082
10.235,-0.008
10.240,0.028
10.245,0.081
10.250,-0.004
10.255,-0.016
10.260,0.066
10.265,0.018
10.270,-0.041
10.275,0.037
10.280,0.041
10.285,-0.044
10.290,-0.002
10.295,0.051
10.300,-0.030
10.305,-0.039
10.310,0.044
10.315,-0.003
10.320,-0.066
10.325,0.015
10.330,0.027
10.335,-0.059
10.340,-0.017
10.345,0.046
10.350,-0.029
10.355,-0.043
10.360,0.037
10.365,-0.002
10.370,-0.055
10.375,0.028
10.380,0.040
10.385,-0.040
10.390,0.007
10.395,0.063
10.400,-0.013
10.405,-0.017
10.410,0.069
10.415,0.030
10.420,-0.028
10.425,0.048
10.430,0.058
10.435,-0.026
10.440,0.011
10.445,0.057
10.450,-0.032
10.455,-0.045
10.460,0.036
10.465,-0.012
10.470,-0.080
10.475,-0.011
10.480,-0.002
10.485,-0.085
10.490,-0.043
10.495,0.015
10.500,-0.060
10.505,-0.062
10.510,0.027
10.515,-0.016
10.520,-0.072
10.525,0.011
10.530,0.019
10.535,-0.065
10.540,-0.016
10.545,0.040
10.550,-0.045
10.555,-0.051
10.560,0.038
10.565,-0.008
10.570,-0.070
10.575,0.007
10.580,0.017
10.585,-0.063
10.590,-0.020
10.595,0.033
10.600,-0.044
10.605,-0.052
10.610,0.029
10.615,-0.013
10.620,-0.069
10.625,0.008
10.630,0.018
10.635,-0.063
10.640,-0.015
10.645,0.044
10.650,-0.035
10.655,-0.040
10.660,0.047
10.665,0.001
10.670,-0.055
10.675,0.027
10.680,0.034
10.685,-0.051
10.690,-0.003
10.695,0.053
10.700,-0.032
10.705,-0.038
10.710,0.053
10.715,0.011
10.720,-0.041
10.725,0.039
10.730,0.041
10.735,-0.041
10.740,0.002
10.745,0.044
10.750,-0.054
10.755,-0.075
10.760,0.001
10.765,-0.047
10.770,-0.102
10.775,-0.020
10.780,-0.023
10.785,-0.125
10.790,-0.082
10.795,-0.012
10.800,-0.081
10.805,-0.080
10.810,0.023
10.815,0.005
10.820,-0.039
10.825,0.035
10.830,0.041
10.835,-0.038
10.840,0.022
10.845,0.101
10.850,0.038
10.855,0.048
10.860,0.142
10.865,0.097
10.870,0.033
10.875,0.100
10.880,0.104
10.885,0.023
10.890,0.069
10.895,0.118
10.900,0.026
10.905,0.012
10.910,0.094
10.915,0.048
10.920,-0.005
10.925,0.073
10.930,0.064
10.935,-0.028
10.940,0.000
10.945,-0.042
10.950,-0.310
10.955,-0.557
10.960,-0.712
10.965,-0.852
10.970,-0.628
10.975,0.016
10.980,0.423
10.985,0.479
10.990,0.523
10.995,0.466
11.000,0.250
11.005,0.147
11.010,0.187
11.015,0.131
11.020,0.061
11.025,0.121
11.030,0.115
11.035,0.023
11.040,0.060
11.045,0.110
11.050,0.024
11.055,0.008
11.060,0.088
11.065,0.039
11.070,-0.024
11.075,0.054
11.080,0.067
11.085,-0.019
11.090,0.012
11.095,0.061
11.100,-0.018
11.105,-0.027
11.110,0.055
11.115,0.007
11.120,-0.054
11.125,0.022
11.130,0.032
11.135,-0.047
11.140,-0.004
11.145,0.048
11.150,-0.034
11.155,-0.041
11.160,0.040
11.165,-0.009
11.170,-0.063
11.175,0.023
11.180,0.031
11.185,-0.051
11.190,-0.005
11.195,0.048
11.200,-0.024
11.205,-0.025
11.210,0.052
11.215,0.010
11.220,-0.036
11.225,0.046
11.230,0.055
11.235,-0.023
11.240,0.023
11.245,0.079
11.250,-0.004
11.255,-0.016
11.260,0.061
11.265,0.009
11.270,-0.044
11.275,0.040
11.280,0.040
11.285,-0.058
11.290,-0.027
11.295,0.017
11.300,-0.075
11.305,-0.087
11.310,0.003
11.315,-0.032
11.320,-0.082
11.325,-0.004
11.330,-0.004
11.335,-0.091
11.340,-0.041
11.345,0.019
11.350,-0.056
11.355,-0.056
11.360,0.031
11.365,-0.010
11.370,-0.063
11.375,0.017
11.380,0.023
11.385,-0.063
11.390,-0.018
11.395,0.040
11.400,-0.040
11.405,-0.047
11.410,0.032
11.415,-0.016
11.420,-0.069
11.425,0.012
11.430,0.018
11.435,-0.069
11.440,-0.032
11.445,0.024
11.450,-0.050
11.455,-0.054
11.460,0.033
11.465,-0.013
11.470,-0.070
11.475,0.016
11.480,0.022
11.485,-0.064
11.490,-0.018
11.495,0.036
11.500,-0.039
11.505,-0.041
11.510,0.037
11.515,-0.003
11.520,-0.050
11.525,0.029
11.530,0.030
11.535,-0.055
11.540,-0.005
11.545,0.048
11.550,-0.037
11.555,-0.040
11.560,0.035
11.565,-0.033
11.570,-0.102
11.575,-0.031
11.580,-0.030
11.585,-0.105
11.590,-0.053
11.595,-0.015
11.600,-0.108
11.605,-0.107
11.610,-0.015
11.615,-0.054
11.620,-0.088
11.625,0.016
11.630,0.034
11.635,-0.045
11.640,0.004
11.645,0.063
11.650,-0.004
11.655,0.012
11.660,0.112
11.665,0.071
11.670,0.018
11.675,0.099
11.680,0.106
11.685,0.026
11.690,0.071
11.695,0.119
11.700,0.035
11.705,0.025
11.710,0.103
11.715,0.057
11.720,-0.003
11.725,0.062
11.730,0.061
11.735,-0.016
11.740,0.032
11.745,0.079
11.750,-0.016
11.755,-0.095
11.760,-0.180
11.765,-0.466
11.770,-0.793
11.775,-0.865
11.780,-0.601
11.785,-0.084
11.790,0.399
11.795,0.596
11.800,0.506
11.805,0.385
11.810,0.330
11.815,0.176
11.820,0.070
11.825,0.136
11.830,0.132
11.835,0.044
11.840,0.078
11.845,0.116
11.850,0.031
11.855,0.020
11.860,0.095
11.865,0.048
11.870,-0.011
11.875,0.059
11.880,0.059
11.885,-0.029
11.890,0.012
11.895,0.066
11.900,-0.014
11.905,-0.020
11.910,0.059
11.915,0.004
11.920,-0.053
11.925,0.027
11.930,0.026
11.935,-0.060
11.940,-0.006
11.945,0.049
11.950,-0.038
11.955,-0.045
11.960,0.038
11.965,-0.010
11.970,-0.061
11.975,0.022
11.980,0.021
11.985,-0.064
11.990,-0.011
11.995,0.044
12.000,-0.040
12.005,-0.041
12.010,0.049
12.015,0.005
12.020,-0.042
12.025,0.043
12.030,0.049
12.035,-0.028
12.040,0.022
12.045,0.071
12.050,-0.012
12.055,-0.013
12.060,0.074
12.065,0.022
12.070,-0.036
12.075,0.049
12.080,0.048
12.085,-0.047
12.090,-0.006
12.095,0.039
12.100,-0.051
12.105,-0.059
12.110,0.020
12.115,-0.031
12.120,-0.086
12.125,-0.008
12.130,-0.006
12.135,-0.080
12.140,-0.027
12.145,0.022
12.150,-0.056
12.155,-0.054
12.160,0.027
12.165,-0.017
12.170,-0.064
12.175,0.018
12.180,0.021
12.185,-0.062
12.190,-0.015
12.195,0.035
12.200,-0.050
12.205,-0.052
12.210,0.032
12.215,-0.018
12.220,-0.072
12.225,0.009
12.230,0.011
12.235,-0.072
12.240,-0.031
12.245,0.020
12.250,-0.055
12.255,-0.052
12.260,0.035
12.265,-0.013
12.270,-0.066
12.275,0.021
12.280,0.028
12.285,-0.054
12.290,-0.004
12.295,0.044
12.300,-0.043
12.305,-0.044
12.310,0.044
12.315,0.001
12.320,-0.047
12.325,0.034
12.330,0.031
12.335,-0.055
12.340,-0.006
12.345,0.048
12.350,-0.028
12.355,-0.031
12.360,0.045
12.365,-0.009
12.370,-0.066
12.375,0.000
12.380,-0.017
12.385,-0.106
12.390,-0.052
12.395,0.005
12.400,-0.079
12.405,-0.094
12.410,-0.021
12.415,-0.062
12.420,-0.100
12.425,-0.011
12.430,0.001
12.435,-0.058
12.440,0.011
12.445,0.060
12.450,-0.028
12.455,-0.029
12.460,0.064
12.465,0.040
12.470,0.012
12.475,0.105
12.480,0.109
12.485,0.026
12.490,0.080
12.495,0.131
12.500,0.041
12.505,0.039
12.510,0.122
12.515,0.067
12.520,0.008
12.525,0.083
12.530,0.079
12.535,-0.004
12.540,0.043
12.545,0.090
12.550,0.004
12.555,-0.001
12.560,0.067
12.565,-0.066
12.570,-0.288
12.575,-0.438
12.580,-0.695
12.585,-0.936
12.590,-0.682
12.595,-0.073
12.600,0.308
12.605,0.488
12.610,0.591
12.615,0.448
12.620,0.262
12.625,0.238
12.630,0.180
12.635,0.074
12.640,0.110
12.645,0.151
12.650,0.059
12.655,0.046
12.660,0.120
12.665,0.063
12.670,-0.001
12.675,0.074
12.680,0.069
12.685,-0.020
12.690,0.027
12.695,0.077
12.700,-0.005
12.705,-0.005
12.710,0.075
12.715,0.018
12.720,-0.042
12.725,0.034
12.730,0.034
12.735,-0.046
12.740,0.006
12.745,0.053
12.750,-0.039
12.755,-0.042
12.760,0.046
12.765,-0.004
12.770,-0.057
12.775,0.029
12.780,0.030
12.785,-0.054
12.790,0.000
12.795,0.051
12.800,-0.038
12.805,-0.042
12.810,0.043
12.815,0.000
12.820,-0.045
12.825,0.036
12.830,0.037
12.835,-0.039
12.840,0.017
12.845,0.067
12.850,-0.019
12.855,-0.018
12.860,0.067
12.865,0.021
12.870,-0.025
12.875,0.054
12.880,0.046
12.885,-0.037
12.890,0.009
12.895,0.051
12.900,-0.034
12.905,-0.040
12.910,0.029
12.915,-0.029
12.920,-0.082
12.925,-0.004
12.930,-0.005
12.935,-0.085
12.940,-0.033
12.945,0.017
12.950,-0.064
12.955,-0.061
12.960,0.023
12.965,-0.022
12.970,-0.066
12.975,0.017
12.980,0.015
12.985,-0.065
12.990,-0.012
12.995,0.040
13.000,-0.040
13.005,-0.039
13.010,0.042
13.015,-0.014
13.020,-0.070
13.025,0.010
13.030,0.014
13.035,-0.060
13.040,-0.011
13.045,0.033
13.050,-0.054
13.055,-0.056
13.060,0.029
13.065,-0.018
13.070,-0.065
13.075,0.018
13.080,0.014
13.085,-0.066
13.090,-0.009
13.095,0.041
13.100,-0.045
13.105,-0.045
13.110,0.036
13.115,-0.014
13.120,-0.054
13.125,0.031
13.130,0.024
13.135,-0.054
13.140,0.001
13.145,0.047
13.150,-0.031
13.155,-0.023
13.160,0.056
13.165,0.000
13.170,-0.057
13.175,0.016
13.180,0.005
13.185,-0.094
13.190,-0.054
13.195,-0.005
13.200,-0.083
13.205,-0.081
13.210,-0.017
13.215,-0.085
13.220,-0.124
13.225,-0.027
13.230,-0.024
13.235,-0.093
13.240,-0.021
13.245,0.056
13.250,-0.008
13.255,-0.012
13.260,0.055
13.265,0.000
13.270,-0.028
13.275,0.084
13.280,0.104
13.285,0.037
13.290,0.091
13.295,0.140
13.300,0.054
13.305,0.047
13.310,0.123
13.315,0.068
13.320,0.016
13.325,0.097
13.330,0.090
13.335,0.002
13.340,0.052
13.345,0.092
13.350,-0.002
13.355,-0.006
13.360,0.070
13.365,0.022
13.370,-0.053
13.375,-0.096
13.380,-0.317
13.385,-0.666
13.390,-0.846
13.395,-0.783
13.400,-0.433
13.405,0.140
13.410,0.526
13.415,0.556
13.420,0.468
13.425,0.414
13.430,0.279
13.435,0.115
13.440,0.127
13.445,0.155
13.450,0.058
13.455,0.050
13.460,0.126
13.465,0.069
13.470,0.018
13.475,0.097
13.480,0.082
13.485,-0.007
13.490,0.039
13.495,0.072
13.500,-0.017
13.505,-0.007
13.510,0.076
13.515,0.020
13.520,-0.037
13.525,0.037
13.530,0.031
13.535,-0.048
13.540,0.008
13.545,0.054
13.550,-0.031
13.555,-0.033
13.560,0.044
13.565,-0.005
13.570,-0.056
13.575,0.020
13.580,0.016
13.585,-0.065
13.590,-0.013
13.595,0.042
13.600,-0.032
13.605,-0.035
13.610,0.036
13.615,-0.012
13.620,-0.052
13.625,0.035
13.630,0.029
13.635,-0.054
13.640,0.001
13.645,0.053
13.650,-0.031
13.655,-0.027
13.660,0.065
13.665,0.022
13.670,-0.020
13.675,0.056
13.680,0.044
13.685,-0.038
13.690,0.012
13.695,0.057
13.700,-0.029
13.705,-0.033
13.710,0.040
13.715,-0.025
13.720,-0.079
13.725,0.005
13.730,-0.005
13.735,-0.096
13.740,-0.044
13.745,0.007
13.750,-0.073
13.755,-0.062
13.760,0.025
13.765,-0.028
13.770,-0.071
13.775,0.017
13.780,0.015
13.785,-0.064
13.790,-0.008
13.795,0.039
13.800,-0.043
13.805,-0.035
13.810,0.045
13.815,-0.015
13.820,-0.061
13.825,0.024
13.830,0.015
13.835,-0.066
13.840,-0.013
13.845,0.029
13.850,-0.051
13.855,-0.048
13.860,0.027
13.865,-0.021
13.870,-0.066
13.875,0.014
13.880,0.009
13.885,-0.068
13.890,-0.006
13.895,0.043
13.900,-0.047
13.905,-0.046
13.910,0.032
13.915,-0.018
13.920,-0.055
13.925,0.034
13.930,0.026
13.935,-0.058
13.940,0.001
13.945,0.047
13.950,-0.044
13.955,-0.040
13.960,0.048
13.965,-0.001
13.970,-0.045
13.975,0.031
13.980,0.005
13.985,-0.093
13.990,-0.051
13.995,-0.010
14.000,-0.089
14.005,-0.077
14.010,0.006
14.015,-0.062
14.020,-0.120
14.025,-0.032
14.030,-0.031
14.035,-0.105
14.040,-0.034
14.045,0.033
14.050,-0.039
14.055,-0.032
14.060,0.052
14.065,0.011
14.070,-0.019
14.075,0.075
14.080,0.078
14.085,0.014
14.090,0.085
14.095,0.137
14.100,0.046
14.105,0.045
14.110,0.124
14.115,0.067
14.120,0.020
14.125,0.101
14.130,0.087
14.135,-0.005
14.140,0.043
14.145,0.083
14.150,-0.007
14.155,-0.003
14.160,0.076
14.165,0.019
14.170,-0.038
14.175,-0.041
14.180,-0.224
14.185,-0.540
14.190,-0.752
14.195,-0.835
14.200,-0.619
14.205,-0.019
14.210,0.463
14.215,0.539
14.220,0.482
14.225,0.448
14.230,0.303
14.235,0.121
14.240,0.126
14.245,0.151
14.250,0.057
14.255,0.056
14.260,0.124
14.265,0.058
14.270,0.010
14.275,0.088
14.280,0.073
14.285,-0.017
14.290,0.032
14.295,0.077
14.300,-0.007
14.305,-0.006
14.310,0.066
14.315,0.007
14.320,-0.039
14.325,0.042
14.330,0.032
14.335,-0.046
14.340,0.008
14.345,0.046
14.350,-0.039
14.355,-0.034
14.360,0.042
14.365,-0.015
14.370,-0.064
14.375,0.017
14.380,0.015
14.385,-0.059
14.390,-0.002
14.395,0.043
14.400,-0.044
14.405,-0.041
14.410,0.038
14.415,-0.013
14.420,-0.051
14.425,0.038
14.430,0.033
14.435,-0.048
14.440,0.009
14.445,0.056
14.450,-0.022
14.455,-0.010
14.460,0.069
14.465,0.012
14.470,-0.028
14.475,0.058
14.480,0.048
14.485,-0.028
14.490,0.033
14.495,0.072
14.500,-0.022
14.505,-0.021
14.510,0.052
14.515,-0.015
14.520,-0.070
14.525,0.006
14.530,-0.005
14.535,-0.088
14.540,-0.037
14.545,0.005
14.550,-0.074
14.555,-0.060
14.560,0.027
14.565,-0.024
14.570,-0.062
14.575,0.027
14.580,0.023
14.585,-0.058
14.590,-0.005
14.595,0.038
14.600,-0.049
14.605,-0.041
14.610,0.042
14.615,-0.013
14.620,-0.060
14.625,0.019
14.630,0.008
14.635,-0.070
14.640,-0.011
14.645,0.029
14.650,-0.058
14.655,-0.050
14.660,0.031
14.665,-0.025
14.670,-0.068
14.675,0.019
14.680,0.013
14.685,-0.067
14.690,-0.011
14.695,0.032
14.700,-0.051
14.705,-0.038
14.710,0.045
14.715,-0.011
14.720,-0.053
14.725,0.031
14.730,0.024
14.735,-0.056
14.740,-0.004
14.745,0.043
14.750,-0.033
14.755,-0.022
14.760,0.054
14.765,-0.006
14.770,-0.048
14.775,0.030
14.780,0.012
14.785,-0.073
14.790,-0.025
14.795,0.004
14.800,-0.087
14.805,-0.075
14.810,0.005
14.815,-0.059
14.820,-0.118
14.825,-0.043
14.830,-0.045
14.835,-0.111
14.840,-0.041
14.845,0.021
14.850,-0.040
14.855,-0.014
14.860,0.068
14.865,0.005
14.870,-0.038
14.875,0.059
14.880,0.067
14.885,0.004
14.890,0.079
14.895,0.133
14.900,0.051
14.905,0.059
14.910,0.133
14.915,0.068
14.920,0.022
14.925,0.106
14.930,0.092
14.935,0.008
14.940,0.061
14.945,0.098
14.950,0.010
14.955,0.015
14.960,0.090
14.965,0.026
14.970,-0.020
14.975,0.047
14.980,-0.055
14.985,-0.319
14.990,-0.504
14.995,-0.719
15.000,-0.929
15.005,-0.654
15.010,0.010
15.015,0.384
15.020,0.493
15.025,0.582
15.030,0.462
15.035,0.243
15.040,0.200
15.045,0.195
15.050,0.094
15.055,0.091
15.060,0.154
15.065,0.078
15.070,0.026
15.075,0.099
15.080,0.075
15.085,-0.009
15.090,0.048
15.095,0.088
15.100,-0.003
15.105,0.002
15.110,0.078
15.115,0.017
15.120,-0.026
15.125,0.052
15.130,0.036
15.135,-0.044
15.140,0.012
15.145,0.054
15.150,-0.030
15.155,-0.026
15.160,0.047
15.165,-0.009
15.170,-0.047
15.175,0.039
15.180,0.028
15.185,-0.055
15.190,0.000
15.195,0.039
15.200,-0.048
15.205,-0.033
15.210,0.046
15.215,-0.017
15.220,-0.059
15.225,0.030
15.230,0.025
15.235,-0.048
15.240,0.014
15.245,0.063
15.250,-0.014
15.255,-0.008
15.260,0.065
15.265,0.008
15.270,-0.037
15.275,0.046
15.280,0.038
15.285,-0.036
15.290,0.025
15.295,0.070
15.300,-0.012
15.305,-0.009
15.310,0.049
15.315,-0.025
15.320,-0.073
15.325,0.008
15.330,-0.005
15.335,-0.083
15.340,-0.025
15.345,0.014
15.350,-0.075
15.355,-0.070
15.360,0.011
15.365,-0.038
15.370,-0.068
15.375,0.022
15.380,0.012
15.385,-0.066
15.390,-0.014
15.395,0.026
15.400,-0.047
15.405,-0.031
15.410,0.043
15.415,-0.016
15.420,-0.058
15.425,0.029
15.430,0.020
15.435,-0.064
15.440,-0.010
15.445,0.034
15.450,-0.046
15.455,-0.036
15.460,0.035
15.465,-0.023
15.470,-0.061
15.475,0.019
15.480,0.005
15.485,-0.072
15.490,-0.017
15.495,0.029
15.500,-0.045
15.505,-0.029
15.510,0.049
15.515,-0.012
15.520,-0.061
15.525,0.025
15.530,0.018
15.535,-0.066
15.540,-0.009
15.545,0.042
15.550,-0.036
15.555,-0.025
15.560,0.054
15.565,-0.007
15.570,-0.054
15.575,0.031
15.580,0.024
15.585,-0.055
15.590,-0.007
15.595,0.011
15.600,-0.095
15.605,-0.087
15.610,0.002
15.615,-0.050
15.620,-0.094
15.625,-0.032
15.630,-0.063
15.635,-0.134
15.640,-0.057
15.645,-0.001
15.650,-0.066
15.655,-0.033
15.660,0.060
15.665,0.003
15.670,-0.038
15.675,0.049
15.680,0.047
15.685,-0.012
15.690,0.063
15.695,0.116
15.700,0.045
15.705,0.062
15.710,0.131
15.715,0.067
15.720,0.028
15.725,0.111
15.730,0.098
15.735,0.017
15.740,0.062
15.745,0.089
15.750,-0.003
15.755,0.008
15.760,0.091
15.765,0.033
15.770,-0.015
15.775,0.070
15.780,0.050
15.785,-0.125
15.790,-0.260
15.795,-0.457
15.800,-0.791
15.805,-0.903
15.810,-0.540
15.815,-0.005
15.820,0.360
15.825,0.576
15.830,0.559
15.835,0.368
15.840,0.288
15.845,0.219
15.850,0.083
15.855,0.078
15.860,0.142
15.865,0.080
15.870,0.036
15.875,0.110
15.880,0.083
15.885,-0.008
15.890,0.044
15.895,0.083
15.900,-0.003
15.905,0.003
15.910,0.076
15.915,0.012
15.920,-0.035
15.925,0.047
15.930,0.033
15.935,-0.046
15.940,0.007
15.945,0.041
15.950,-0.038
15.955,-0.020
15.960,0.052
15.965,-0.014
15.970,-0.056
15.975,0.024
15.980,0.011
15.985,-0.059
15.990,0.000
15.995,0.033
16.000,-0.050
16.005,-0.038
16.010,0.033
16.015,-0.029
16.020,-0.061
16.025,0.031
16.030,0.018
16.035,-0.054
16.040,0.011
16.045,0.053
16.050,-0.030
16.055,-0.018
16.060,0.063
16.065,0.009
16.070,-0.029
16.075,0.055
16.080,0.043
16.085,-0.029
16.090,0.036
16.095,0.073
16.100,-0.020
16.105,-0.013
16.110,0.062
16.115,-0.003
16.120,-0.052
16.125,0.023
16.130,0.001
16.135,-0.086
16.140,-0.034
16.145,0.005
16.150,-0.072
16.155,-0.056
16.160,0.023
16.165,-0.038
16.170,-0.079
16.175,0.011
16.180,0.003
16.185,-0.075
16.190,-0.014
16.195,0.035
16.200,-0.039
16.205,-0.025
16.210,0.046
16.215,-0.017
16.220,-0.056
16.225,0.026
16.230,0.011
16.235,-0.066
16.240,-0.010
16.245,0.025
16.250,-0.060
16.255,-0.046
16.260,0.026
16.265,-0.036
16.270,-0.070
16.275,0.017
16.280,0.005
16.285,-0.068
16.290,-0.010
16.295,0.026
16.300,-0.052
16.305,-0.037
16.310,0.038
16.315,-0.021
16.320,-0.057
16.325,0.026
16.330,0.009
16.335,-0.062
16.340,0.008
16.345,0.046
16.350,-0.038
16.355,-0.024
16.360,0.051
16.365,-0.010
16.370,-0.052
16.375,0.034
16.380,0.021
16.385,-0.066
16.390,-0.017
16.395,0.012
16.400,-0.089
16.405,-0.083
16.410,-0.003
16.415,-0.057
16.420,-0.100
16.425,-0.031
16.430,-0.049
16.435,-0.116
16.440,-0.043
16.445,0.009
16.450,-0.063
16.455,-0.032
16.460,0.057
16.465,-0.008
16.470,-0.052
16.475,0.044
16.480,0.056
16.485,-0.004
16.490,0.068
16.495,0.122
16.500,0.042
16.505,0.055
16.510,0.131
16.515,0.068
16.520,0.026
16.525,0.104
16.530,0.085
16.535,0.005
16.540,0.063
16.545,0.102
16.550,0.014
16.555,0.018
16.560,0.091
16.565,0.024
16.570,-0.028
16.575,0.051
16.580,-0.007
16.585,-0.221
16.590,-0.372
16.595,-0.598
16.600,-0.913
16.605,-0.822
16.610,-0.242
16.615,0.240
16.620,0.450
16.625,0.586
16.630,0.504
16.635,0.289
16.640,0.229
16.645,0.197
16.650,0.090
16.655,0.093
16.660,0.152
16.665,0.074
16.670,0.024
16.675,0.100
16.680,0.080
16.685,0.000
16.690,0.052
16.695,0.082
16.700,-0.003
16.705,0.008
16.710,0.078
16.715,0.014
16.720,-0.028
16.725,0.054
16.730,0.036
16.735,-0.042
16.740,0.015
16.745,0.049
16.750,-0.035
16.755,-0.021
16.760,0.053
16.765,-0.009
16.770,-0.049
16.775,0.034
16.780,0.018
16.785,-0.061
16.790,-0.001
16.795,0.038
16.800,-0.044
16.805,-0.034
16.810,0.038
16.815,-0.017
16.820,-0.051
16.825,0.032
16.830,0.020
16.835,-0.047
16.840,0.016
16.845,0.051
16.850,-0.031
16.855,-0.015
16.860,0.060
16.865,0.003
16.870,-0.030
16.875,0.057
16.880,0.042
16.885,-0.033
16.890,0.032
16.895,0.069
16.900,-0.019
16.905,-0.007
16.910,0.063
16.915,-0.009
16.920,-0.059
16.925,0.016
16.930,-0.003
16.935,-0.079
16.940,-0.017
16.945,0.018
16.950,-0.067
16.955,-0.047
16.960,0.032
16.965,-0.028
16.970,-0.065
16.975,0.020
16.980,0.004
16.985,-0.066
16.990,0.003
16.995,0.042
17.000,-0.039
17.005,-0.025
17.010,0.047
17.015,-0.017
17.020,-0.058
17.025,0.024
17.030,0.010
17.035,-0.063
17.040,-0.004
17.045,0.026
17.050,-0.060
17.055,-0.044
17.060,0.029
17.065,-0.034
17.070,-0.070
17.075,0.016
17.080,0.002
17.085,-0.073
17.090,-0.009
17.095,0.034
17.100,-0.049
17.105,-0.036
17.110,0.039
17.115,-0.020
17.120,-0.055
17.125,0.033
17.130,0.022
17.135,-0.053
17.140,0.010
17.145,0.047
17.150,-0.039
17.155,-0.022
17.160,0.051
17.165,-0.014
17.170,-0.046
17.175,0.039
17.180,0.019
17.185,-0.067
17.190,-0.020
17.195,0.002
17.200,-0.090
17.205,-0.075
17.210,-0.002
17.215,-0.065
17.220,-0.108
17.225,-0.038
17.230,-0.051
17.235,-0.106
17.240,-0.035
17.245,0.009
17.250,-0.058
17.255,-0.023
17.260,0.061
17.265,0.001
17.270,-0.035
17.275,0.053
17.280,0.055
17.285,0.005
17.290,0.080
17.295,0.127
17.300,0.047
17.305,0.064
17.310,0.135
17.315,0.066
17.320,0.026
17.325,0.109
17.330,0.091
17.335,0.012
17.340,0.069
17.345,0.101
17.350,0.010
17.355,0.019
17.360,0.088
17.365,0.014
17.370,-0.030
17.375,0.055
17.380,-0.015
17.385,-0.248
17.390,-0.410
17.395,-0.627
17.400,-0.909
17.405,-0.795
17.410,-0.222
17.415,0.252
17.420,0.466
17.425,0.598
17.430,0.514
17.435,0.297
17.440,0.235
17.445,0.204
17.450,0.096
17.455,0.095
17.460,0.150
17.465,0.075
17.470,0.031
17.475,0.107
17.480,0.080
17.485,-0.001
17.490,0.058
17.495,0.088
17.500,-0.003
17.505,0.008
17.510,0.080
17.515,0.016
17.520,-0.030
17.525,0.048
17.530,0.031
17.535,-0.046
17.540,0.020
17.545,0.060
17.550,-0.032
17.555,-0.022
17.560,0.051
17.565,-0.013
17.570,-0.049
17.575,0.035
17.580,0.019
17.585,-0.056
17.590,0.005
17.595,0.035
17.600,-0.054
17.605,-0.036
17.610,0.044
17.615,-0.014
17.620,-0.053
17.625,0.029
17.630,0.016
17.635,-0.051
17.640,0.016
17.645,0.051
17.650,-0.033
17.655,-0.010
17.660,0.067
17.665,0.004
17.670,-0.028
17.675,0.060
17.680,0.042
17.685,-0.039
17.690,0.020
17.695,0.060
17.700,-0.023
17.705,-0.015
17.710,0.052
17.715,-0.018
17.720,-0.059
17.725,0.021
17.730,-0.002
17.735,-0.080
17.740,-0.020
17.745,0.014
17.750,-0.077
17.755,-0.064
17.760,0.021
17.765,-0.039
17.770,-0.076
17.775,0.015
17.780,0.007
17.785,-0.062
17.790,0.004
17.795,0.037
17.800,-0.053
17.805,-0.034
17.810,0.045
17.815,-0.015
17.820,-0.044
17.825,0.038
17.830,0.009
17.835,-0.072
17.840,-0.011
17.845,0.031
17.850,-0.045
17.855,-0.027
17.860,0.041
17.865,-0.023
17.870,-0.059
17.875,0.022
17.880,0.002
17.885,-0.073
17.890,-0.006
17.895,0.034
17.900,-0.051
17.905,-0.031
17.910,0.048
17.915,-0.016
17.920,-0.053
17.925,0.031
17.930,0.008
17.935,-0.063
17.940,0.012
17.945,0.045
17.950,-0.051
17.955,-0.027
17.960,0.056
17.965,-0.011
17.970,-0.045
17.975,0.042
17.980,0.014
17.985,-0.068
17.990,-0.008
17.995,0.015
18.000,-0.081
18.005,-0.065
18.010,0.005
18.015,-0.066
18.020,-0.108
18.025,-0.035
18.030,-0.063
18.035,-0.135
18.040,-0.055
18.045,-0.007
18.050,-0.082
18.055,-0.039
18.060,0.063
18.065,0.003
18.070,-0.042
18.075,0.039
18.080,0.029
18.085,-0.025
18.090,0.061
18.095,0.113
18.100,0.040
18.105,0.061
18.110,0.134
18.115,0.064
18.120,0.021
18.125,0.103
18.130,0.083
18.135,0.008
18.140,0.070
18.145,0.103
18.150,0.012
18.155,0.019
18.160,0.089
18.165,0.026
18.170,-0.021
18.175,0.051
18.180,0.035
18.185,-0.092
18.190,-0.182
18.195,-0.372
18.200,-0.729
18.205,-0.910
18.210,-0.671
18.215,-0.180
18.220,0.273
18.225,0.558
18.230,0.573
18.235,0.405
18.240,0.320
18.245,0.237
18.250,0.091
18.255,0.094
18.260,0.154
18.265,0.072
18.270,0.025
18.275,0.103
18.280,0.078
18.285,0.000
18.290,0.062
18.295,0.095
18.300,-0.002
18.305,0.003
18.310,0.072
18.315,0.006
18.320,-0.028
18.325,0.057
18.330,0.032
18.335,-0.054
18.340,0.011
18.345,0.049
18.350,-0.035
18.355,-0.015
18.360,0.048
18.365,-0.023
18.370,-0.059
18.375,0.024
18.380,0.009
18.385,-0.054
18.390,0.015
18.395,0.046
18.400,-0.045
18.405,-0.035
18.410,0.033
18.415,-0.028
18.420,-0.059
18.425,0.026
18.430,0.009
18.435,-0.062
18.440,0.007
18.445,0.054
18.450,-0.025
18.455,-0.015
18.460,0.054
18.465,0.004
18.470,-0.017
18.475,0.069
18.480,0.050
18.485,-0.027
18.490,0.032
18.495,0.065
18.500,-0.017
18.505,0.005
18.510,0.073
18.515,-0.007
18.520,-0.056
18.525,0.024
18.530,0.006
18.535,-0.070
18.540,-0.012
18.545,0.013
18.550,-0.072
18.555,-0.051
18.560,0.016
18.565,-0.053
18.570,-0.082
18.575,0.012
18.580,-0.005
18.585,-0.077
18.590,-0.005
18.595,0.038
18.600,-0.039
18.605,-0.022
18.610,0.037
18.615,-0.033
18.620,-0.062
18.625,0.020
18.630,-0.001
18.635,-0.072
18.640,-0.003
18.645,0.032
18.650,-0.060
18.655,-0.048
18.660,0.031
18.665,-0.021
18.670,-0.055
18.675,0.020
18.680,0.001
18.685,-0.071
18.690,-0.009
18.695,0.025
18.700,-0.060
18.705,-0.036
18.710,0.038
18.715,-0.029
18.720,-0.058
18.725,0.033
18.730,0.018
18.735,-0.052
18.740,0.011
18.745,0.042
18.750,-0.042
18.755,-0.020
18.760,0.055
18.765,-0.012
18.770,-0.047
18.775,0.038
18.780,0.018
18.785,-0.060
18.790,-0.005
18.795,0.018
18.800,-0.081
18.805,-0.073
18.810,0.000
18.815,-0.056
18.820,-0.087
18.825,-0.019
18.830,-0.055
18.835,-0.120
18.840,-0.044
18.845,-0.007
18.850,-0.082
18.855,-0.043
18.860,0.049
18.865,-0.007
18.870,-0.040
18.875,0.045
18.880,0.034
18.885,-0.018
18.890,0.065
18.895,0.116
18.900,0.045
18.905,0.066
18.910,0.131
18.915,0.056
18.920,0.018
18.925,0.105
18.930,0.087
18.935,0.011
18.940,0.068
18.945,0.092
18.950,0.002
18.955,0.020
18.960,0.095
18.965,0.024
18.970,-0.020
18.975,0.065
18.980,0.036
18.985,-0.110
18.990,-0.213
18.995,-0.409
19.000,-0.757
19.005,-0.914
19.010,-0.641
19.015,-0.138
19.020,0.295
19.025,0.559
19.030,0.563
19.035,0.393
19.040,0.316
19.045,0.245
19.050,0.105
19.055,0.100
19.060,0.153
19.065,0.072
19.070,0.031
19.075,0.112
19.080,0.088
19.085,0.008
19.090,0.060
19.095,0.081
19.100,-0.007
19.105,0.012
19.110,0.082
19.115,0.015
19.120,-0.020
19.125,0.062
19.130,0.035
19.135,-0.043
19.140,0.018
19.145,0.046
19.150,-0.040
19.155,-0.021
19.160,0.048
19.165,-0.014
19.170,-0.043
19.175,0.040
19.180,0.020
19.185,-0.054
19.190,0.003
19.195,0.032
19.200,-0.050
19.205,-0.029
19.210,0.042
19.215,-0.023
19.220,-0.050
19.225,0.042
19.230,0.024
19.235,-0.055
19.240,0.006
19.245,0.043
19.250,-0.036
19.255,-0.013
19.260,0.064
19.265,0.006
19.270,-0.026
19.275,0.057
19.280,0.040
19.285,-0.031
19.290,0.033
19.295,0.067
19.300,-0.013
19.305,0.006
19.310,0.067
19.315,-0.010
19.320,-0.052
19.325,0.025
19.330,-0.002
19.335,-0.081
19.340,-0.018
19.345,0.016
19.350,-0.071
19.355,-0.054
19.360,0.021
19.365,-0.038
19.370,-0.067
19.375,0.024
19.380,0.009
19.385,-0.060
19.390,0.003
19.395,0.035
19.400,-0.051
19.405,-0.032
19.410,0.047
19.415,-0.016
19.420,-0.054
19.425,0.030
19.430,0.008
19.435,-0.067
19.440,-0.002
19.445,0.032
19.450,-0.056
19.455,-0.043
19.460,0.028
19.465,-0.035
19.470,-0.063
19.475,0.022
19.480,-0.004
19.485,-0.080
19.490,-0.012
19.495,0.026
19.500,-0.052
19.505,-0.031
19.510,0.035
19.515,-0.031
19.520,-0.062
19.525,0.027
19.530,0.012
19.535,-0.056
19.540,0.011
19.545,0.043
19.550,-0.044
19.555,-0.024
19.560,0.051
19.565,-0.011
19.570,-0.041
19.575,0.040
19.580,0.017
19.585,-0.051
19.590,0.017
19.595,0.044
19.600,-0.055
19.605,-0.052
19.610,0.007
19.615,-0.066
19.620,-0.099
19.625,-0.014
19.630,-0.037
19.635,-0.114
19.640,-0.059
19.645,-0.027
19.650,-0.098
19.655,-0.073
19.660,0.003
19.665,-0.042
19.670,-0.047
19.675,0.051
19.680,0.029
19.685,-0.042
19.690,0.026
19.695,0.070
19.700,0.010
19.705,0.050
19.710,0.135
19.715,0.076
19.720,0.043
19.725,0.122
19.730,0.097
19.735,0.021
19.740,0.082
19.745,0.111
19.750,0.024
19.755,0.042
19.760,0.113
19.765,0.043
19.770,0.004
19.775,0.082
19.780,0.051
19.785,-0.027
19.790,0.040
19.795,0.035
19.800,-0.180
19.805,-0.363
19.810,-0.540
19.815,-0.839
19.820,-0.891
19.825,-0.413
19.830,0.146
19.835,0.406
19.840,0.565
19.845,0.565
19.850,0.346
19.855,0.234
19.860,0.224
19.865,0.121
19.870,0.074
19.875,0.149
19.880,0.113
19.885,0.024
19.890,0.081
19.895,0.109
19.900,0.019
19.905,0.029
19.910,0.089
19.915,0.023
19.920,-0.005
19.925,0.077
19.930,0.049
19.935,-0.027
19.940,0.031
19.945,0.054
19.950,-0.034
19.955,-0.011
19.960,0.060
19.965,-0.008
19.970,-0.045
19.975,0.039
19.980,0.020
19.985,-0.051
19.990,0.010
19.995,0.037
20.000,-0.045
20.005,-0.017
20.010,0.056
20.015,-0.018
20.020,-0.053
20.025,0.034
20.030,0.010
20.035,-0.063
20.040,0.007
20.045,0.040
20.050,-0.043
20.055,-0.023
20.060,0.047
20.065,-0.011
20.070,-0.031
20.075,0.058
20.080,0.037
20.085,-0.031
20.090,0.036
20.095,0.065
20.100,-0.020
20.105,0.003
20.110,0.070
20.115,-0.002
20.120,-0.035
20.125,0.047
20.130,0.015
20.135,-0.069
20.140,-0.010
20.145,0.017
20.150,-0.074
20.155,-0.053
20.160,0.018
20.165,-0.051
20.170,-0.082
20.175,0.003
20.180,-0.014
20.185,-0.078
20.190,-0.008
20.195,0.025
20.200,-0.058
20.205,-0.038
20.210,0.035
20.215,-0.025
20.220,-0.051
20.225,0.035
20.230,0.011
20.235,-0.061
20.240,0.010
20.245,0.040
20.250,-0.051
20.255,-0.031
20.260,0.038
20.265,-0.030
20.270,-0.058
20.275,0.025
20.280,0.001
20.285,-0.068
20.290,0.001
20.295,0.034
20.300,-0.051
20.305,-0.032
20.310,0.037
20.315,-0.032
20.320,-0.066
20.325,0.017
20.330,0.001
20.335,-0.061
20.340,0.010
20.345,0.041
20.350,-0.044
20.355,-0.021
20.360,0.047
20.365,-0.018
20.370,-0.046
20.375,0.034
20.380,0.012
20.385,-0.054
20.390,0.014
20.395,0.045
20.400,-0.043
20.405,-0.029
20.410,0.026
20.415,-0.059
20.420,-0.099
20.425,-0.016
20.430,-0.040
20.435,-0.106
20.440,-0.037
20.445,-0.027
20.450,-0.129
20.455,-0.098
20.460,-0.018
20.465,-0.074
20.470,-0.075
20.475,0.044
20.480,0.040
20.485,-0.039
20.490,0.012
20.495,0.042
20.500,-0.025
20.505,0.022
20.510,0.108
20.515,0.055
20.520,0.037
20.525,0.121
20.530,0.096
20.535,0.021
20.540,0.088
20.545,0.114
20.550,0.020
20.555,0.046
20.560,0.117
20.565,0.041
20.570,0.003
20.575,0.080
20.580,0.055
20.585,-0.014
20.590,0.044
20.595,0.068
20.600,-0.020
20.605,-0.066
20.610,-0.157
20.615,-0.442
20.620,-0.732
20.625,-0.843
20.630,-0.698
20.635,-0.202
20.640,0.352
20.645,0.570
20.650,0.502
20.655,0.425
20.660,0.358
20.665,0.186
20.670,0.095
20.675,0.157
20.680,0.121
20.685,0.035
20.690,0.086
20.695,0.105
20.700,0.017
20.705,0.033
20.710,0.087
20.715,0.018
20.720,-0.009
20.725,0.064
20.730,0.033
20.735,-0.035
20.740,0.030
20.745,0.056
20.750,-0.028
20.755,-0.009
20.760,0.053
20.765,-0.013
20.770,-0.037
20.775,0.049
20.780,0.020
20.785,-0.056
20.790,0.003
20.795,0.026
20.800,-0.056
20.805,-0.030
20.810,0.038
20.815,-0.026
20.820,-0.050
20.825,0.034
20.830,0.010
20.835,-0.063
20.840,0.005
20.845,0.039
20.850,-0.051
20.855,-0.024
20.860,0.055
20.865,-0.013
20.870,-0.039
20.875,0.052
20.880,0.030
20.885,-0.039
20.890,0.030
20.895,0.060
20.900,-0.021
20.905,0.009
20.910,0.082
20.915,0.013
20.920,-0.018
20.925,0.066
20.930,0.041
20.935,-0.038
20.940,0.009
20.945,0.025
20.950,-0.061
20.955,-0.041
20.960,0.023
20.965,-0.050
20.970,-0.078
20.975,0.004
20.980,-0.021
20.985,-0.086
20.990,-0.016
20.995,0.016
21.000,-0.062
21.005,-0.035
21.010,0.039
21.015,-0.026
21.020,-0.056
21.025,0.033
21.030,0.014
21.035,-0.054
21.040,0.016
21.045,0.039
21.050,-0.060
21.055,-0.039
21.060,0.033
21.065,-0.037
21.070,-0.062
21.075,0.023
21.080,-0.004
21.085,-0.072
21.090,-0.005
21.095,0.020
21.100,-0.063
21.105,-0.034
21.110,0.036
21.115,-0.033
21.120,-0.061
21.125,0.024
21.130,-0.002
21.135,-0.067
21.140,0.003
21.145,0.027
21.150,-0.057
21.155,-0.029
21.160,0.043
21.165,-0.021
21.170,-0.047
21.175,0.041
21.180,0.018
21.185,-0.052
21.190,0.015
21.195,0.040
21.200,-0.046
21.205,-0.019
21.210,0.049
21.215,-0.029
21.220,-0.068
21.225,0.005
21.230,-0.034
21.235,-0.113
21.240,-0.036
21.245,0.005
21.250,-0.090
21.255,-0.088
21.260,-0.028
21.265,-0.087
21.270,-0.099
21.275,-0.006
21.280,-0.023
21.285,-0.072
21.290,0.019
21.295,0.050
21.300,-0.045
21.305,-0.019
21.310,0.064
21.315,0.018
21.320,0.014
21.325,0.117
21.330,0.102
21.335,0.033
21.340,0.096
21.345,0.116
21.350,0.026
21.355,0.047
21.360,0.115
21.365,0.049
21.370,0.017
21.375,0.097
21.380,0.066
21.385,-0.010
21.390,0.060
21.395,0.087
21.400,-0.013
21.405,0.008
21.410,0.070
21.415,-0.082
21.420,-0.282
21.425,-0.422
21.430,-0.711
21.435,-0.948
21.440,-0.665
21.445,-0.068
21.450,0.307
21.455,0.511
21.460,0.602
21.465,0.434
21.470,0.268
21.475,0.249
21.480,0.164
21.485,0.067
21.490,0.122
21.495,0.136
21.500,0.037
21.505,0.057
21.510,0.123
21.515,0.043
21.520,0.011
21.525,0.099
21.530,0.064
21.535,-0.020
21.540,0.045
21.545,0.072
21.550,-0.022
21.555,-0.003
21.560,0.064
21.565,-0.011
21.570,-0.040
21.575,0.050
21.580,0.023
21.585,-0.051
21.590,0.022
21.595,0.052
21.600,-0.045
21.605,-0.026
21.610,0.047
21.615,-0.021
21.620,-0.048
21.625,0.041
21.630,0.013
21.635,-0.062
21.640,0.005
21.645,0.032
21.650,-0.054
21.655,-0.028
21.660,0.048
21.665,-0.020
21.670,-0.048
21.675,0.047
21.680,0.030
21.685,-0.040
21.690,0.027
21.695,0.055
21.700,-0.029
21.705,-0.001
21.710,0.076
21.715,0.012
21.720,-0.018
21.725,0.066
21.730,0.037
21.735,-0.039
21.740,0.028
21.745,0.052
21.750,-0.043
21.755,-0.026
21.760,0.036
21.765,-0.043
21.770,-0.073
21.775,0.014
21.780,-0.014
21.785,-0.088
21.790,-0.018
21.795,0.011
21.800,-0.074
21.805,-0.045
21.810,0.034
21.815,-0.029
21.820,-0.055
21.825,0.033
21.830,0.006
21.835,-0.065
21.840,0.008
21.845,0.034
21.850,-0.055
21.855,-0.031
21.860,0.036
21.865,-0.035
21.870,-0.061
21.875,0.029
21.880,0.005
21.885,-0.072
21.890,-0.006
21.895,0.019
21.900,-0.070
21.905,-0.039
21.910,0.039
21.915,-0.029
21.920,-0.061
21.925,0.025
21.930,-0.001
21.935,-0.069
21.940,0.008
21.945,0.038
21.950,-0.055
21.955,-0.031
21.960,0.043
21.965,-0.022
21.970,-0.048
21.975,0.041
21.980,0.015
21.985,-0.057
21.990,0.016
21.995,0.048
22.000,-0.040
22.005,-0.017
22.010,0.050
22.015,-0.022
22.020,-0.048
22.025,0.040
22.030,0.012
22.035,-0.068
22.040,-0.012
22.045,0.000
22.050,-0.097
22.055,-0.069
22.060,0.005
22.065,-0.073
22.070,-0.115
22.075,-0.035
22.080,-0.059
22.085,-0.120
22.090,-0.036
22.095,0.008
22.100,-0.058
22.105,-0.009
22.110,0.069
22.115,-0.006
22.120,-0.035
22.125,0.056
22.130,0.049
22.135,0.000
22.140,0.087
22.145,0.128
22.150,0.043
22.155,0.067
22.160,0.134
22.165,0.058
22.170,0.030
22.175,0.117
22.180,0.087
22.185,0.010
22.190,0.073
22.195,0.093
22.200,-0.001
22.205,0.024
22.210,0.095
22.215,0.018
22.220,-0.017
22.225,0.067
22.230,-0.011
22.235,-0.229
22.240,-0.376
22.245,-0.607
22.250,-0.909
22.255,-0.830
22.260,-0.295
22.265,0.200
22.270,0.456
22.275,0.607
22.280,0.517
22.285,0.297
22.290,0.244
22.295,0.210
22.300,0.094
22.305,0.104
22.310,0.163
22.315,0.074
22.320,0.030
22.325,0.111
22.330,0.083
22.335,0.007
22.340,0.069
22.345,0.088
22.350,-0.003
22.355,0.026
22.360,0.092
22.365,0.014
22.370,-0.019
22.375,0.060
22.380,0.026
22.385,-0.046
22.390,0.025
22.395,0.048
22.400,-0.039
22.405,-0.010
22.410,0.059
22.415,-0.013
22.420,-0.043
22.425,0.039
22.430,0.012
22.435,-0.056
22.440,0.013
22.445,0.033
22.450,-0.056
22.455,-0.024
22.460,0.054
22.465,-0.020
22.470,-0.047
22.475,0.044
22.480,0.013
22.485,-0.052
22.490,0.024
22.495,0.048
22.500,-0.044
22.505,-0.017
22.510,0.059
22.515,-0.009
22.520,-0.030
22.525,0.070
22.530,0.043
22.535,-0.035
22.540,0.036
22.545,0.062
22.550,-0.033
22.555,-0.012
22.560,0.058
22.565,-0.023
22.570,-0.064
22.575,0.020
22.580,-0.009
22.585,-0.084
22.590,-0.016
22.595,0.006
22.600,-0.084
22.605,-0.054
22.610,0.021
22.615,-0.054
22.620,-0.077
22.625,0.028
22.630,0.004
22.635,-0.077
22.640,0.000
22.645,0.029
22.650,-0.066
22.655,-0.029
22.660,0.056
22.665,-0.013
22.670,-0.041
22.675,0.039
22.680,0.004
22.685,-0.061
22.690,0.009
22.695,0.025
22.700,-0.060
22.705,-0.021
22.710,0.052
22.715,-0.028
22.720,-0.061
22.725,0.025
22.730,-0.004
22.735,-0.077
22.740,-0.005
22.745,0.029
22.750,-0.050
22.755,-0.028
22.760,0.039
22.765,-0.028
22.770,-0.053
22.775,0.035
22.780,0.004
22.785,-0.070
22.790,0.006
22.795,0.042
22.800,-0.043
22.805,-0.018
22.810,0.050
22.815,-0.027
22.820,-0.056
22.825,0.036
22.830,0.007
22.835,-0.066
22.840,0.009
22.845,0.031
22.850,-0.072
22.855,-0.059
22.860,0.003
22.865,-0.072
22.870,-0.096
22.875,-0.008
22.880,-0.048
22.885,-0.136
22.890,-0.058
22.895,-0.013
22.900,-0.100
22.905,-0.071
22.910,0.021
22.915,-0.022
22.920,-0.035
22.925,0.050
22.930,0.018
22.935,-0.047
22.940,0.046
22.945,0.096
22.950,0.022
22.955,0.054
22.960,0.124
22.965,0.052
22.970,0.025
22.975,0.121
22.980,0.093
22.985,0.010
22.990,0.077
22.995,0.103
23.000,0.013
23.005,0.035
23.010,0.096
23.015,0.019
23.020,-0.008
23.025,0.079
23.030,0.045
23.035,-0.031
23.040,0.021
23.045,-0.063
23.050,-0.361
23.055,-0.589
23.060,-0.769
23.065,-0.874
23.070,-0.486
23.075,0.195
23.080,0.491
23.085,0.495
23.090,0.522
23.095,0.422
23.100,0.201
23.105,0.135
23.110,0.169
23.115,0.089
23.120,0.052
23.125,0.126
23.130,0.085
23.135,0.009
23.140,0.079
23.145,0.092
23.150,-0.008
23.155,0.016
23.160,0.083
23.165,0.007
23.170,-0.021
23.175,0.066
23.180,0.030
23.185,-0.049
23.190,0.023
23.195,0.047
23.200,-0.038
23.205,-0.004
23.210,0.061
23.215,-0.022
23.220,-0.055
23.225,0.030
23.230,0.009
23.235,-0.057
23.240,0.012
23.245,0.033
23.250,-0.060
23.255,-0.032
23.260,0.044
23.265,-0.025
23.270,-0.053
23.275,0.033
23.280,0.006
23.285,-0.059
23.290,0.019
23.295,0.046
23.300,-0.045
23.305,-0.017
23.310,0.061
23.315,-0.002
23.320,-0.020
23.325,0.071
23.330,0.035
23.335,-0.037
23.340,0.039
23.345,0.066
23.350,-0.022
23.355,0.008
23.360,0.076
23.365,-0.006
23.370,-0.041
23.375,0.044
23.380,0.015
23.385,-0.061
23.390,-0.001
23.395,0.013
23.400,-0.078
23.405,-0.047
23.410,0.024
23.415,-0.048
23.420,-0.076
23.425,0.010
23.430,-0.021
23.435,-0.087
23.440,-0.004
23.445,0.031
23.450,-0.058
23.455,-0.029
23.460,0.047
23.465,-0.026
23.470,-0.053
23.475,0.036
23.480,0.003
23.485,-0.068
23.490,0.010
23.495,0.035
23.500,-0.062
23.505,-0.040
23.510,0.026
23.515,-0.048
23.520,-0.075
23.525,0.010
23.530,-0.020
23.535,-0.081
23.540,0.006
23.545,0.031
23.550,-0.063
23.555,-0.031
23.560,0.036
23.565,-0.039
23.570,-0.061
23.575,0.028
23.580,0.003
23.585,-0.061
23.590,0.008
23.595,0.030
23.600,-0.057
23.605,-0.024
23.610,0.053
23.615,-0.018
23.620,-0.047
23.625,0.042
23.630,0.014
23.635,-0.058
23.640,0.018
23.645,0.050
23.650,-0.041
23.655,-0.021
23.660,0.043
23.665,-0.045
23.670,-0.091
23.675,-0.007
23.680,-0.035
23.685,-0.108
23.690,-0.035
23.695,-0.016
23.700,-0.121
23.705,-0.093
23.710,-0.009
23.715,-0.073
23.720,-0.086
23.725,0.027
23.730,0.016
23.735,-0.047
23.740,0.027
23.745,0.052
23.750,-0.036
23.755,0.008
23.760,0.098
23.765,0.039
23.770,0.030
23.775,0.127
23.780,0.095
23.785,0.022
23.790,0.091
23.795,0.112
23.800,0.022
23.805,0.050
23.810,0.118
23.815,0.042
23.820,0.009
23.825,0.087
23.830,0.054
23.835,-0.018
23.840,0.048
23.845,0.065
23.850,-0.026
23.855,-0.030
23.860,-0.085
23.865,-0.364
23.870,-0.640
23.875,-0.785
23.880,-0.814
23.885,-0.457
23.890,0.189
23.895,0.519
23.900,0.504
23.905,0.483
23.910,0.419
23.915,0.221
23.920,0.120
23.925,0.176
23.930,0.131
23.935,0.047
23.940,0.111
23.945,0.128
23.950,0.027
23.955,0.046
23.960,0.111
23.965,0.030
23.970,-0.005
23.975,0.079
23.980,0.045
23.985,-0.030
23.990,0.040
23.995,0.061
24.000,-0.032
24.005,-0.003
24.010,0.066
24.015,-0.010
24.020,-0.035
24.025,0.052
24.030,0.017
24.035,-0.056
24.040,0.016
24.045,0.039
24.050,-0.053
24.055,-0.025
24.060,0.044
24.065,-0.027
24.070,-0.046
24.075,0.045
24.080,0.009
24.085,-0.066
24.090,0.010
24.095,0.039
24.100,-0.051
24.105,-0.019
24.110,0.057
24.115,-0.014
24.120,-0.038
24.125,0.053
24.130,0.026
24.135,-0.039
24.140,0.037
24.145,0.062
24.150,-0.026
24.155,0.005
24.160,0.075
24.165,0.003
24.170,-0.023
24.175,0.062
24.180,0.031
24.185,-0.042
24.190,0.023
24.195,0.038
24.200,-0.063
24.205,-0.042
24.210,0.028
24.215,-0.046
24.220,-0.075
24.225,0.012
24.230,-0.020
24.235,-0.089
24.240,-0.012
24.245,0.018
24.250,-0.067
24.255,-0.036
24.260,0.038
24.265,-0.028
24.270,-0.051
24.275,0.035
24.280,0.006
24.285,-0.062
24.290,0.009
24.295,0.033
24.300,-0.057
24.305,-0.031
24.310,0.037
24.315,-0.034
24.320,-0.058
24.325,0.027
24.330,-0.004
24.335,-0.076
24.340,-0.012
24.345,0.004
24.350,-0.082
24.355,-0.047
24.360,0.023
24.365,-0.049
24.370,-0.070
24.375,0.025
24.380,-0.002
24.385,-0.077
24.390,-0.004
24.395,0.027
24.400,-0.059
24.405,-0.031
24.410,0.041
24.415,-0.031
24.420,-0.048
24.425,0.049
24.430,0.017
24.435,-0.059
24.440,0.011
24.445,0.036
24.450,-0.053
24.455,-0.021
24.460,0.054
24.465,-0.022
24.470,-0.050
24.475,0.032
24.480,-0.015
24.485,-0.102
24.490,-0.035
24.495,-0.010
24.500,-0.098
24.505,-0.071
24.510,-0.012
24.515,-0.093
24.520,-0.107
24.525,-0.003
24.530,-0.025
24.535,-0.083
24.540,0.015
24.545,0.057
24.550,-0.032
24.555,-0.005
24.560,0.067
24.565,0.004
24.570,0.001
24.575,0.110
24.580,0.097
24.585,0.037
24.590,0.112
24.595,0.135
24.600,0.044
24.605,0.071
24.610,0.136
24.615,0.056
24.620,0.025
24.625,0.107
24.630,0.070
24.635,-0.003
24.640,0.066
24.645,0.081
24.650,-0.011
24.655,0.018
24.660,0.089
24.665,0.001
24.670,-0.116
24.675,-0.208
24.680,-0.475
24.685,-0.806
24.690,-0.865
24.695,-0.584
24.700,-0.096
24.705,0.373
24.710,0.604
24.715,0.533
24.720,0.394
24.725,0.346
24.730,0.216
24.735,0.095
24.740,0.147
24.745,0.149
24.750,0.047
24.755,0.067
24.760,0.126
24.765,0.046
24.770,0.014
24.775,0.105
24.780,0.073
24.785,-0.008
24.790,0.064
24.795,0.079
24.800,-0.025
24.805,0.002
24.810,0.074
24.815,-0.001
24.820,-0.025
24.825,0.060
24.830,0.020
24.835,-0.047
24.840,0.032
24.845,0.054
24.850,-0.039
24.855,-0.016
24.860,0.051
24.865,-0.024
24.870,-0.052
24.875,0.036
24.880,0.007
24.885,-0.061
24.890,0.015
24.895,0.041
24.900,-0.044
24.905,-0.017
24.910,0.048
24.915,-0.028
24.920,-0.050
24.925,0.038
24.930,0.007
24.935,-0.048
24.940,0.042
24.945,0.066
24.950,-0.029
24.955,0.000
24.960,0.069
24.965,-0.007
24.970,-0.032
24.975,0.062
24.980,0.033
24.985,-0.042
24.990,0.028
24.995,0.054
25.000,-0.038
25.005,-0.022
25.010,0.032
25.015,-0.057
25.020,-0.086
25.025,0.008
25.030,-0.025
25.035,-0.099
25.040,-0.019
25.045,0.010
25.050,-0.085
25.055,-0.055
25.060,0.025
25.065,-0.038
25.070,-0.052
25.075,0.043
25.080,0.003
25.085,-0.078
25.090,0.002
25.095,0.039
25.100,-0.046
25.105,-0.014
25.110,0.049
25.115,-0.035
25.120,-0.058
25.125,0.038
25.130,0.008
25.135,-0.063
25.140,0.010
25.145,0.027
25.150,-0.070
25.155,-0.040
25.160,0.032
25.165,-0.037
25.170,-0.058
25.175,0.031
25.180,0.003
25.185,-0.071
25.190,-0.007
25.195,0.019
25.200,-0.060
25.205,-0.023
25.210,0.046
25.215,-0.026
25.220,-0.051
25.225,0.035
25.230,0.006
25.235,-0.060
25.240,0.018
25.245,0.044
25.250,-0.046
25.255,-0.020
25.260,0.046
25.265,-0.031
25.270,-0.058
25.275,0.033
25.280,0.005
25.285,-0.078
25.290,-0.031
25.295,-0.014
25.300,-0.095
25.305,-0.062
25.310,0.005
25.315,-0.089
25.320,-0.128
25.325,-0.031
25.330,-0.057
25.335,-0.119
25.340,-0.019
25.345,0.027
25.350,-0.043
25.355,-0.003
25.360,0.054
25.365,-0.026
25.370,-0.034
25.375,0.081
25.380,0.074
25.385,0.019
25.390,0.099
25.395,0.123
25.400,0.028
25.405,0.052
25.410,0.121
25.415,0.041
25.420,0.016
25.425,0.114
25.430,0.075
25.435,-0.010
25.440,0.065
25.445,0.089
25.450,-0.011
25.455,0.016
25.460,0.087
25.465,0.012
25.470,-0.013
25.475,0.009
25.480,-0.192
25.485,-0.496
25.490,-0.692
25.495,-0.844
25.500,-0.713
25.505,-0.109
25.510,0.415
25.515,0.514
25.520,0.488
25.525,0.468
25.530,0.304
25.535,0.126
25.540,0.149
25.545,0.153
25.550,0.044
25.555,0.068
25.560,0.132
25.565,0.048
25.570,0.022
25.575,0.105
25.580,0.065
25.585,-0.015
25.590,0.048
25.595,0.066
25.600,-0.024
25.605,0.009
25.610,0.073
25.615,-0.010
25.620,-0.033
25.625,0.055
25.630,0.018
25.635,-0.050
25.640,0.027
25.645,0.040
25.650,-0.053
25.655,-0.013
25.660,0.055
25.665,-0.028
25.670,-0.050
25.675,0.042
25.680,0.008
25.685,-0.069
25.690,0.004
25.695,0.035
25.700,-0.056
25.705,-0.022
25.710,0.055
25.715,-0.032
25.720,-0.059
25.725,0.040
25.730,0.014
25.735,-0.051
25.740,0.027
25.745,0.051
25.750,-0.032
25.755,0.002
25.760,0.068
25.765,-0.001
25.770,-0.020
25.775,0.067
25.780,0.034
25.785,-0.038
25.790,0.033
25.795,0.054
25.800,-0.039
25.805,-0.015
25.810,0.048
25.815,-0.033
25.820,-0.065
25.825,0.020
25.830,-0.016
25.835,-0.093
25.840,-0.022
25.845,0.001
25.850,-0.083
25.855,-0.041
25.860,0.031
25.865,-0.047
25.870,-0.063
25.875,0.037
25.880,0.006
25.885,-0.067
25.890,0.008
25.895,0.032
25.900,-0.056
25.905,-0.020
25.910,0.049
25.915,-0.034
25.920,-0.060
25.925,0.029
25.930,-0.006
25.935,-0.074
25.940,0.000
25.945,0.021
25.950,-0.065
25.955,-0.037
25.960,0.027
25.965,-0.045
25.970,-0.065
25.975,0.029
25.980,-0.001
25.985,-0.073
25.990,0.001
25.995,0.025
26.000,-0.065
26.005,-0.032
26.010,0.041
26.015,-0.032
26.020,-0.052
26.025,0.040
26.030,0.008
26.035,-0.063
26.040,0.013
26.045,0.042
26.050,-0.043
26.055,-0.009
26.060,0.058
26.065,-0.021
26.070,-0.044
26.075,0.041
26.080,-0.001
26.085,-0.083
26.090,-0.030
26.095,-0.017
26.100,-0.100
26.105,-0.063
26.110,0.007
26.115,-0.080
26.120,-0.116
26.125,-0.018
26.130,-0.037
26.135,-0.105
26.140,-0.019
26.145,0.025
26.150,-0.047
26.155,-0.005
26.160,0.064
26.165,-0.016
26.170,-0.031
26.175,0.078
26.180,0.062
26.185,0.009
26.190,0.100
26.195,0.129
26.200,0.042
26.205,0.072
26.210,0.134
26.215,0.053
26.220,0.024
26.225,0.108
26.230,0.076
26.235,0.003
26.240,0.069
26.245,0.084
26.250,-0.009
26.255,0.022
26.260,0.087
26.265,0.006
26.270,-0.028
26.275,-0.011
26.280,-0.208
26.285,-0.509
26.290,-0.699
26.295,-0.851
26.300,-0.750
26.305,-0.160
26.310,0.384
26.315,0.501
26.320,0.503
26.325,0.498
26.330,0.327
26.335,0.145
26.340,0.165
26.345,0.171
26.350,0.067
26.355,0.091
26.360,0.156
26.365,0.068
26.370,0.023
26.375,0.096
26.380,0.056
26.385,-0.015
26.390,0.064
26.395,0.084
26.400,-0.013
26.405,0.017
26.410,0.082
26.415,-0.003
26.420,-0.028
26.425,0.065
26.430,0.028
26.435,-0.047
26.440,0.031
26.445,0.053
26.450,-0.044
26.455,-0.016
26.460,0.052
26.465,-0.029
26.470,-0.057
26.475,0.034
26.480,0.003
26.485,-0.063
26.490,0.016
26.495,0.038
26.500,-0.052
26.505,-0.019
26.510,0.043
26.515,-0.033
26.520,-0.048
26.525,0.047
26.530,0.017
26.535,-0.049
26.540,0.028
26.545,0.050
26.550,-0.040
26.555,-0.008
26.560,0.060
26.565,-0.013
26.570,-0.030
26.575,0.061
26.580,0.025
26.585,-0.044
26.590,0.032
26.595,0.049
26.600,-0.051
26.605,-0.024
26.610,0.046
26.615,-0.033
26.620,-0.062
26.625,0.025
26.630,-0.013
26.635,-0.087
26.640,-0.011
26.645,0.007
26.650,-0.080
26.655,-0.035
26.660,0.040
26.665,-0.036
26.670,-0.056
26.675,0.036
26.680,0.003
26.685,-0.067
26.690,0.012
26.695,0.039
26.700,-0.052
26.705,-0.019
26.710,0.053
26.715,-0.026
26.720,-0.054
26.725,0.035
26.730,0.006
26.735,-0.059
26.740,0.015
26.745,0.026
26.750,-0.071
26.755,-0.037
26.760,0.037
26.765,-0.034
26.770,-0.059
26.775,0.034
26.780,0.004
26.785,-0.068
26.790,0.014
26.795,0.037
26.800,-0.063
26.805,-0.030
26.810,0.046
26.815,-0.021
26.820,-0.035
26.825,0.054
26.830,0.020
26.835,-0.055
26.840,0.011
26.845,0.040
26.850,-0.043
26.855,-0.006
26.860,0.066
26.865,-0.021
26.870,-0.046
26.875,0.046
26.880,-0.001
26.885,-0.079
26.890,-0.006
26.895,0.004
26.900,-0.092
26.905,-0.063
26.910,-0.002
26.915,-0.085
26.920,-0.110
26.925,-0.011
26.930,-0.036
26.935,-0.104
26.940,-0.018
26.945,0.009
26.950,-0.065
26.955,0.006
26.960,0.084
26.965,-0.002
26.970,-0.035
26.975,0.068
26.980,0.081
26.985,0.025
26.990,0.092
26.995,0.119
27.000,0.029
27.005,0.058
27.010,0.120
27.015,0.041
27.020,0.021
27.025,0.110
27.030,0.081
27.035,0.014
27.040,0.076
27.045,0.095
27.050,0.008
27.055,0.020
27.060,0.061
27.065,-0.026
27.070,-0.033
27.075,0.035
27.080,-0.123
27.085,-0.379
27.090,-0.535
27.095,-0.758
27.100,-0.888
27.105,-0.452
27.110,0.212
27.115,0.457
27.120,0.491
27.125,0.527
27.130,0.377
27.135,0.192
27.140,0.198
27.145,0.192
27.150,0.073
27.155,0.082
27.160,0.146
27.165,0.061
27.170,0.027
27.175,0.105
27.180,0.063
27.185,0.004
27.190,0.082
27.195,0.078
27.200,-0.027
27.205,0.011
27.210,0.060
27.215,-0.030
27.220,-0.036
27.225,0.065
27.230,0.018
27.235,-0.066
27.240,0.014
27.245,0.034
27.250,-0.047
27.255,-0.007
27.260,0.067
27.265,-0.006
27.270,-0.049
27.275,0.040
27.280,0.016
27.285,-0.064
27.290,0.007
27.295,0.034
27.300,-0.053
27.305,-0.021
27.310,0.049
27.315,-0.022
27.320,-0.037
27.325,0.052
27.330,0.010
27.335,-0.067
27.340,0.013
27.345,0.040
27.350,-0.059
27.355,-0.029
27.360,0.054
27.365,-0.006
27.370,-0.019
27.375,0.053
27.380,-0.001
27.385,-0.062
27.390,0.011
27.395,0.020
27.400,-0.069
27.405,-0.047
27.410,0.023
27.415,-0.044
27.420,-0.071
27.425,0.016
27.430,-0.022
27.435,-0.101
27.440,-0.037
27.445,-0.016
27.450,-0.097
27.455,-0.061
27.460,0.007
27.465,-0.068
27.470,-0.086
27.475,0.009
27.480,-0.028
27.485,-0.103
27.490,-0.007
27.495,0.043
27.500,-0.032
27.505,-0.003
27.510,0.053
27.515,-0.019
27.520,-0.035
27.525,0.041
27.530,-0.004
27.535,-0.077
27.540,-0.007
27.545,0.012
27.550,-0.061
27.555,-0.020
27.560,0.034
27.565,-0.047
27.570,-0.070
27.575,0.021
27.580,-0.007
27.585,-0.068
27.590,0.018
27.595,0.035
27.600,-0.061
27.605,-0.017
27.610,0.059
27.615,-0.032
27.620,-0.074
27.625,0.021
27.630,0.005
27.635,-0.065
27.640,0.002
27.645,0.028
27.650,-0.053
27.655,-0.019
27.660,0.052
27.665,-0.013
27.670,-0.029
27.675,0.061
27.680,0.018
27.685,-0.079
27.690,-0.036
27.695,-0.013
27.700,-0.082
27.705,-0.043
27.710,0.027
27.715,-0.057
27.720,-0.086
27.725,0.012
27.730,-0.008
27.735,-0.058
27.740,0.022
27.745,0.046
27.750,-0.027
27.755,0.006
27.760,0.084
27.765,0.015
27.770,-0.009
27.775,0.105
27.780,0.094
27.785,0.035
27.790,0.125
27.795,0.149
27.800,0.054
27.805,0.082
27.810,0.134
27.815,0.065
27.820,0.037
27.825,0.092
27.830,0.050
27.835,-0.009
27.840,0.074
27.845,0.099
27.850,0.001
27.855,0.025
27.860,0.091
27.865,0.003
27.870,-0.091
27.875,-0.158
27.880,-0.410
27.885,-0.762
27.890,-0.912
27.895,-0.787
27.900,-0.381
27.905,0.196
27.910,0.553
27.915,0.547
27.920,0.450
27.925,0.389
27.930,0.230
27.935,0.088
27.940,0.132
27.945,0.141
27.950,0.044
27.955,0.074
27.960,0.136
27.965,0.046
27.970,0.003
27.975,0.079
27.980,0.052
27.985,-0.004
27.990,0.070
27.995,0.079
28.000,-0.022
28.005,0.007
28.010,0.093
28.015,0.053
28.020,0.013
28.025,0.032
28.030,-0.016
28.035,-0.061
28.040,0.009
28.045,0.033
28.050,-0.048
28.055,-0.018
28.060,0.050
28.065,-0.023
28.070,-0.050
28.075,0.038
28.080,0.000
28.085,-0.071
28.090,0.015
28.095,0.034
28.100,-0.050
28.105,-0.009
28.110,0.054
28.115,-0.016
28.120,-0.043
28.125,0.052
28.130,0.040
28.135,-0.019
28.140,0.060
28.145,0.080
28.150,-0.014
28.155,0.014
28.160,0.086
28.165,0.010
28.170,-0.022
28.175,0.063
28.180,0.027
28.185,-0.039
28.190,0.053
28.195,0.069
28.200,-0.052
28.205,-0.035
28.210,0.032
28.215,-0.047
28.220,-0.074
28.225,0.008
28.230,-0.035
28.235,-0.111
28.240,-0.032
28.245,-0.011
28.250,-0.095
28.255,-0.041
28.260,0.040
28.265,-0.043
28.270,-0.078
28.275,0.011
28.280,-0.015
28.285,-0.073
28.290,0.019
28.295,0.032
28.300,-0.071
28.305,-0.021
28.310,0.051
28.315,-0.044
28.320,-0.064
28.325,0.040
28.330,0.009
28.335,-0.057
28.340,0.019
28.345,0.027
28.350,-0.055
28.355,-0.008
28.360,0.043
28.365,-0.041
28.370,-0.050
28.375,0.034
28.380,-0.009
28.385,-0.074
28.390,0.015
28.395,0.044
28.400,-0.059
28.405,-0.038
28.410,0.039
28.415,-0.031
28.420,-0.055
28.425,0.037
28.430,0.013
28.435,-0.049
28.440,0.023
28.445,0.038
28.450,-0.060
28.455,-0.042
28.460,0.020
28.465,-0.052
28.470,-0.076
28.475,0.015
28.480,-0.022
28.485,-0.107
28.490,-0.040
28.495,-0.010
28.500,-0.098
28.505,-0.078
28.510,-0.008
28.515,-0.062
28.520,-0.067
28.525,0.030
28.530,0.016
28.535,-0.032
28.540,0.032
28.545,0.038
28.550,-0.042
28.555,0.005
28.560,0.092
28.565,0.024
28.570,-0.003
28.575,0.102
28.580,0.084
28.585,0.011
28.590,0.079
28.595,0.104
28.600,0.016
28.605,0.035
28.610,0.094
28.615,0.010
28.620,-0.023
28.625,0.071
28.630,0.046
28.635,-0.029
28.640,0.038
28.645,0.052
28.650,-0.051
28.655,-0.016
28.660,0.009
28.665,-0.215
28.670,-0.453
28.675,-0.640
28.680,-0.903
28.685,-0.889
28.690,-0.305
28.695,0.281
28.700,0.454
28.705,0.549
28.710,0.550
28.715,0.308
28.720,0.160
28.725,0.194
28.730,0.137
28.735,0.055
28.740,0.123
28.745,0.132
28.750,0.026
28.755,0.046
28.760,0.110
28.765,0.032
28.770,0.003
28.775,0.093
28.780,0.056
28.785,-0.025
28.790,0.053
28.795,0.084
28.800,-0.014
28.805,0.008
28.810,0.073
28.815,0.010
28.820,0.017
28.825,0.106
28.830,0.043
28.835,-0.036
28.840,0.049
28.845,0.070
28.850,-0.025
28.855,0.010
28.860,0.068
28.865,-0.013
28.870,-0.028
28.875,0.052
28.880,0.014
28.885,-0.047
28.890,0.030
28.895,0.053
28.900,-0.035
28.905,0.000
28.910,0.069
28.915,-0.002
28.920,-0.018
28.925,0.078
28.930,0.060
28.935,-0.018
28.940,0.035
28.945,0.059
28.950,-0.025
28.955,0.007
28.960,0.080
28.965,0.010
28.970,-0.010
28.975,0.085
28.980,0.055
28.985,-0.025
28.990,0.046
28.995,0.067
29.000,-0.034
29.005,-0.024
29.010,0.031
29.015,-0.040
29.020,-0.049
29.025,0.032
29.030,-0.018
29.035,-0.072
29.040,0.002
29.045,0.009
29.050,-0.064
29.055,-0.032
29.060,0.019
29.065,-0.051
29.070,-0.059
29.075,0.037
29.080,0.006
29.085,-0.072
29.090,-0.001
29.095,0.031
29.100,-0.053
29.105,-0.020
29.110,0.049
29.115,-0.028
29.120,-0.044
29.125,0.039
29.130,-0.009
29.135,-0.065
29.140,0.014
29.145,0.016
29.150,-0.074
29.155,-0.030
29.160,0.040
29.165,-0.036
29.170,-0.054
29.175,0.035
29.180,0.005
29.185,-0.061
29.190,0.014
29.195,0.042
29.200,-0.035
29.205,0.006
29.210,0.067
29.215,-0.025
29.220,-0.051
29.225,0.039
29.230,0.006
29.235,-0.064
29.240,0.001
29.245,0.012
29.250,-0.079
29.255,-0.058
29.260,-0.007
29.265,-0.083
29.270,-0.096
29.275,-0.009
29.280,-0.052
29.285,-0.130
29.290,-0.068
29.295,-0.041
29.300,-0.111
29.305,-0.073
29.310,0.010
29.315,-0.039
29.320,-0.044
29.325,0.040
29.330,-0.010
29.335,-0.072
29.340,0.025
29.345,0.048
29.350,-0.034
29.355,0.034
29.360,0.121
29.365,0.022
29.370,-0.012
29.375,0.096
29.380,0.062
29.385,-0.030
29.390,0.023
29.395,0.039
29.400,-0.042
29.405,-0.014
29.410,0.050
29.415,-0.018
29.420,-0.029
29.425,0.045
29.430,-0.005
29.435,-0.058
29.440,-0.038
29.445,-0.185
29.450,-0.495
29.455,-0.728
29.460,-0.832
29.465,-0.679
29.470,-0.115
29.475,0.441
29.480,0.585
29.485,0.525
29.490,0.487
29.495,0.344
29.500,0.128
29.505,0.113
29.510,0.165
29.515,0.066
29.520,0.040
29.525,0.124
29.530,0.078
29.535,0.000
29.540,0.052
29.545,0.061
29.550,-0.017
29.555,0.028
29.560,0.107
29.565,0.030
29.570,-0.003
29.575,0.063
29.580,-0.002
29.585,-0.077
29.590,0.015
29.595,0.027
29.600,-0.089
29.605,-0.052
29.610,0.025
29.615,-0.056
29.620,-0.066
29.625,0.045
29.630,0.014
29.635,-0.073
29.640,0.036
29.645,0.130
29.650,0.024
29.655,-0.016
29.660,0.030
29.665,-0.044
29.670,-0.073
29.675,0.030
29.680,0.019
29.685,-0.029
29.690,0.093
29.695,0.147
29.700,0.040
29.705,0.052
29.710,0.115
29.715,0.024
29.720,-0.008
29.725,0.085
29.730,0.041
29.735,-0.046
29.740,0.039
29.745,0.068
29.750,-0.027
29.755,0.011
29.760,0.079
29.765,0.003
29.770,-0.015
29.775,0.059
29.780,-0.002
29.785,-0.088
29.790,-0.013
29.795,0.016
29.800,-0.080
29.805,-0.057
29.810,0.022
29.815,-0.029
29.820,-0.041
29.825,0.020
29.830,-0.042
29.835,-0.100
29.840,-0.002
29.845,0.045
29.850,-0.026
29.855,-0.001
29.860,0.048
29.865,-0.031
29.870,-0.038
29.875,0.051
29.880,0.016
29.885,-0.045
29.890,0.021
29.895,0.032
29.900,-0.056
29.905,-0.036
29.910,0.016
29.915,-0.049
29.920,-0.062
29.925,0.015
29.930,-0.019
29.935,-0.074
29.940,0.003
29.945,0.013
29.950,-0.079
29.955,-0.042
29.960,0.026
29.965,-0.035
29.970,-0.046
29.975,0.025
29.980,-0.014
29.985,-0.075
29.990,-0.011
29.995,-0.008
30.000,-0.110
30.005,-0.086
30.010,-0.031
30.015,-0.114
30.020,-0.129
30.025,-0.046
30.030,-0.090
30.035,-0.162
30.040,-0.097
30.045,-0.077
30.050,-0.155
30.055,-0.113
30.060,-0.042
30.065,-0.099
30.070,-0.078
30.075,0.045
30.080,0.013
30.085,-0.064
30.090,0.018
30.095,0.074
30.100,0.023
30.105,0.059
30.110,0.116
30.115,0.042
30.120,0.025
30.125,0.112
30.130,0.082
30.135,0.021
30.140,0.100
30.145,0.135
30.150,0.064
30.155,0.098
30.160,0.153
30.165,0.061
30.170,0.029
30.175,0.119
30.180,0.092
30.185,0.016
30.190,0.077
30.195,0.083
30.200,-0.082
30.205,-0.226
30.210,-0.400
30.215,-0.729
30.220,-0.850
30.225,-0.448
30.230,0.083
30.235,0.383
30.240,0.578
30.245,0.575
30.250,0.366
30.255,0.263
30.260,0.221
30.265,0.100
30.270,0.080
30.275,0.158
30.280,0.106
30.285,0.034
30.290,0.095
30.295,0.095
30.300,0.009
30.305,0.046
30.310,0.105
30.315,0.015
30.320,-0.019
30.325,0.068
30.330,0.042
30.335,-0.024
30.340,0.033
30.345,0.039
30.350,-0.042
30.355,-0.015
30.360,0.039
30.365,-0.052
30.370,-0.072
30.375,0.055
30.380,0.014
30.385,-0.103
30.390,-0.022
30.395,0.034
30.400,-0.030
30.405,-0.023
30.410,-0.007
30.415,-0.043
30.420,0.000
30.425,0.124
30.430,0.116
30.435,-0.002
30.440,-0.030
30.445,-0.057
30.450,-0.126
30.455,-0.047
30.460,0.036
30.465,-0.047
30.470,-0.008
30.475,0.144
30.480,0.115
30.485,0.061
30.490,0.117
30.495,0.104
30.500,0.035
30.505,0.071
30.510,0.101
30.515,0.001
30.520,-0.047
30.525,0.015
30.530,-0.007
30.535,-0.056
30.540,0.023
30.545,0.045
30.550,-0.056
30.555,-0.056
30.560,0.001
30.565,-0.039
30.570,-0.021
30.575,0.101
30.580,0.103
30.585,0.027
30.590,0.058
30.595,0.074
30.600,0.031
30.605,0.104
30.610,0.176
30.615,0.082
30.620,0.023
30.625,0.091
30.630,0.077
30.635,0.045
30.640,0.144
30.645,0.141
30.650,0.010
30.655,0.046
30.660,0.110
30.665,0.008
30.670,-0.026
30.675,0.058
30.680,0.038
30.685,-0.021
30.690,0.038
30.695,0.039
30.700,-0.055
30.705,-0.024
30.710,0.048
30.715,-0.002
30.720,-0.029
30.725,-0.003
30.730,-0.082
30.735,-0.155
30.740,-0.103
30.745,-0.112
30.750,-0.208
30.755,-0.186
30.760,-0.142
30.765,-0.225
30.770,-0.227
30.775,-0.116
30.780,-0.148
30.785,-0.238
30.790,-0.184
30.795,-0.161
30.800,-0.244
30.805,-0.231
30.810,-0.177
30.815,-0.216
30.820,-0.194
30.825,-0.074
30.830,-0.078
30.835,-0.124
30.840,-0.038
30.845,-0.006
30.850,-0.065
30.855,-0.016
30.860,0.050
30.865,-0.020
30.870,-0.029
30.875,0.070
30.880,0.035
30.885,-0.041
30.890,0.022
30.895,0.011
30.900,-0.095
30.905,-0.038
30.910,0.049
30.915,-0.019
30.920,-0.018
30.925,0.069
30.930,0.015
30.935,-0.051
30.940,0.029
30.945,0.051
30.950,-0.091
30.955,-0.231
30.960,-0.429
30.965,-0.775
30.970,-0.870
30.975,-0.426
30.980,0.110
30.985,0.369
30.990,0.509
30.995,0.487
31.000,0.298
31.005,0.199
31.010,0.164
31.015,0.055
31.020,0.015
31.025,0.101
31.030,0.093
31.035,0.038
31.040,0.109
31.045,0.131
31.050,0.045
31.055,0.050
31.060,0.069
31.065,-0.016
31.070,-0.015
31.075,0.100
31.080,0.084
31.085,-0.005
31.090,0.039
31.095,0.073
31.100,-0.006
31.105,0.013
31.110,0.067
31.115,-0.010
31.120,-0.024
31.125,0.057
31.130,0.024
31.135,-0.038
31.140,0.026
31.145,0.033
31.150,-0.051
31.155,0.004
31.160,0.085
31.165,0.012
31.170,0.001
31.175,0.093
31.180,0.046
31.185,-0.016
31.190,0.044
31.195,0.023
31.200,-0.061
31.205,-0.007
31.210,0.050
31.215,-0.019
31.220,-0.015
31.225,0.071
31.230,0.048
31.235,0.028
31.240,0.127
31.245,0.144
31.250,0.038
31.255,0.002
31.260,-0.005
31.265,-0.100
31.270,-0.101
31.275,0.020
31.280,0.019
31.285,-0.025
31.290,0.012
31.295,-0.031
31.300,-0.114
31.305,-0.071
31.310,-0.023
31.315,-0.081
31.320,-0.046
31.325,0.083
31.330,0.023
31.335,-0.049
31.340,0.065
31.345,0.096
31.350,0.042
31.355,0.097
31.360,0.099
31.365,-0.046
31.370,-0.080
31.375,0.036
31.380,0.033
31.385,-0.054
31.390,0.010
31.395,0.058
31.400,-0.023
31.405,0.014
31.410,0.082
31.415,0.008
31.420,-0.006
31.425,0.084
31.430,0.065
31.435,0.014
31.440,0.086
31.445,0.105
31.450,0.048
31.455,0.095
31.460,0.115
31.465,-0.003
31.470,-0.033
31.475,0.062
31.480,0.054
31.485,-0.015
31.490,0.020
31.495,0.027
31.500,-0.047
31.505,0.006
31.510,0.082
31.515,-0.019
31.520,-0.062
31.525,0.038
31.530,0.009
31.535,-0.081
31.540,-0.022
31.545,0.021
31.550,-0.036
31.555,0.015
31.560,0.067
31.565,-0.036
31.570,-0.050
31.575,0.011
31.580,-0.052
31.585,-0.067
31.590,0.048
31.595,0.080
31.600,0.029
31.605,0.070
31.610,0.114
31.615,0.074
31.620,0.101
31.625,0.152
31.630,0.073
31.635,0.018
31.640,0.099
31.645,0.114
31.650,0.029
31.655,0.047
31.660,0.095
31.665,0.050
31.670,0.059
31.675,0.121
31.680,0.073
31.685,0.005
31.690,0.079
31.695,0.121
31.700,-0.027
31.705,-0.184
31.710,-0.360
31.715,-0.716
31.720,-0.876
31.725,-0.447
31.730,0.106
31.735,0.329
31.740,0.445
31.745,0.449
31.750,0.281
31.755,0.186
31.760,0.146
31.765,0.045
31.770,0.044
31.775,0.139
31.780,0.115
31.785,0.085
31.790,0.137
31.795,0.082
31.800,-0.020
31.805,0.030
31.810,0.096
31.815,0.021
31.820,-0.008
31.825,0.071
31.830,0.019
31.835,-0.091
31.840,-0.037
31.845,0.036
31.850,0.018
31.855,-0.009
31.860,-0.024
31.865,-0.083
31.870,-0.061
31.875,0.070
31.880,0.083
31.885,0.050
31.890,0.115
31.895,0.115
31.900,0.022
31.905,0.034
31.910,0.067
31.915,-0.034
31.920,-0.072
31.925,0.002
31.930,-0.030
31.935,-0.071
31.940,-0.046
31.945,-0.156
31.950,-0.284
31.955,-0.250
31.960,-0.191
31.965,-0.184
31.970,-0.113
31.975,0.014
31.980,0.004
31.985,-0.054
31.990,0.000
31.995,0.004
32.000,-0.085
32.005,-0.067
32.010,-0.024
32.015,-0.095
32.020,-0.079
32.025,0.002
32.030,-0.101
32.035,-0.225
32.040,-0.187
32.045,-0.208
32.050,-0.286
32.055,-0.178
32.060,-0.024
32.065,-0.036
32.070,-0.026
32.075,0.116
32.080,0.153
32.085,0.064
32.090,0.017
32.095,-0.053
32.100,-0.109
32.105,-0.005
32.110,0.081
32.115,0.008
32.120,0.001
32.125,0.102
32.130,0.051
32.135,-0.113
32.140,-0.149
32.145,-0.136
32.150,-0.139
32.155,-0.006
32.160,0.135
32.165,0.104
32.170,0.077
32.175,0.087
32.180,-0.001
32.185,-0.056
32.190,0.020
32.195,0.026
32.200,-0.047
32.205,0.002
32.210,0.043
32.215,-0.039
32.220,-0.045
32.225,0.027
32.230,0.000
32.235,-0.034
32.240,0.051
32.245,0.115
32.250,0.121
32.255,0.170
32.260,0.164
32.265,0.017
32.270,-0.018
32.275,0.115
32.280,0.093
32.285,-0.009
32.290,0.048
32.295,0.071
32.300,-0.004
32.305,0.018
32.310,0.080
32.315,0.061
32.320,0.042
32.325,0.082
32.330,0.095
32.335,0.064
32.340,0.097
32.345,0.132
32.350,0.106
32.355,0.167
32.360,0.251
32.365,0.177
32.370,0.136
32.375,0.218
32.380,0.157
32.385,0.032
32.390,0.066
32.395,0.081
32.400,0.000
32.405,-0.018
32.410,-0.022
32.415,-0.107
32.420,-0.124
32.425,-0.038
32.430,-0.068
32.435,-0.128
32.440,-0.076
32.445,-0.203
32.450,-0.516
32.455,-0.739
32.460,-0.949
32.465,-1.111
32.470,-0.782
32.475,-0.111
32.480,0.186
32.485,0.194
32.490,0.287
32.495,0.274
32.500,0.103
32.505,-0.008
32.510,-0.049
32.515,-0.091
32.520,-0.061
32.525,-0.007
32.530,-0.080
32.535,-0.125
32.540,-0.022
32.545,0.015
32.550,-0.056
32.555,-0.055
32.560,-0.040
32.565,-0.097
32.570,-0.140
32.575,-0.152
32.580,-0.202
32.585,-0.237
32.590,-0.154
32.595,-0.104
32.600,-0.161
32.605,-0.138
32.610,-0.106
32.615,-0.139
32.620,-0.109
32.625,-0.066
32.630,-0.102
32.635,-0.134
32.640,-0.059
32.645,-0.027
32.650,-0.103
32.655,-0.082
32.660,-0.033
32.665,-0.088
32.670,-0.077
32.675,-0.006
32.680,-0.043
32.685,-0.099
32.690,-0.047
32.695,-0.038
32.700,-0.090
32.705,-0.014
32.710,0.058
32.715,-0.006
32.720,-0.015
32.725,0.068
32.730,0.047
32.735,0.013
32.740,0.096
32.745,0.104
32.750,0.029
32.755,0.079
32.760,0.151
32.765,0.071
32.770,0.030
32.775,0.106
32.780,0.097
32.785,0.057
32.790,0.133
32.795,0.148
32.800,0.055
32.805,0.089
32.810,0.160
32.815,0.107
32.820,0.110
32.825,0.181
32.830,0.145
32.835,0.092
32.840,0.131
32.845,0.127
32.850,0.060
32.855,0.111
32.860,0.190
32.865,0.103
32.870,0.060
32.875,0.171
32.880,0.168
32.885,0.090
32.890,0.143
32.895,0.161
32.900,0.085
32.905,0.117
32.910,0.156
32.915,0.058
32.920,0.039
32.925,0.113
32.930,0.072
32.935,0.030
32.940,0.103
32.945,0.111
32.950,0.028
32.955,0.043
32.960,0.097
32.965,0.054
32.970,0.062
32.975,0.151
32.980,0.119
32.985,0.059
32.990,0.133
32.995,0.135
33.000,0.043
33.005,0.071
33.010,0.107
33.015,0.014
33.020,-0.009
33.025,0.062
33.030,0.000
33.035,-0.072
33.040,0.004
33.045,0.009
33.050,-0.092
33.055,-0.063
33.060,-0.003
33.065,-0.063
33.070,-0.058
33.075,0.020
33.080,0.003
33.085,-0.023
33.090,0.034
33.095,0.044
33.100,-0.014
33.105,0.005
33.110,0.038
33.115,-0.003
33.120,0.019
33.125,0.089
33.130,0.032
33.135,-0.029
33.140,0.046
33.145,0.048
33.150,-0.037
33.155,-0.003
33.160,0.025
33.165,-0.070
33.170,-0.083
33.175,0.000
33.180,-0.036
33.185,-0.098
33.190,-0.022
33.195,-0.012
33.200,-0.102
33.205,-0.122
33.210,-0.207
33.215,-0.464
33.220,-0.705
33.225,-0.840
33.230,-0.856
33.235,-0.502
33.240,0.092
33.245,0.393
33.250,0.422
33.255,0.445
33.260,0.390
33.265,0.201
33.270,0.117
33.275,0.186
33.280,0.152
33.285,0.078
33.290,0.126
33.295,0.131
33.300,0.050
33.305,0.073
33.310,0.130
33.315,0.067
33.320,0.037
33.325,0.095
33.330,0.069
33.335,0.025
33.340,0.098
33.345,0.102
33.350,0.008
33.355,0.033
33.360,0.085
33.365,0.013
33.370,0.007
33.375,0.096
33.380,0.043
33.385,-0.033
33.390,0.042
33.395,0.063
33.400,-0.017
33.405,0.026
33.410,0.090
33.415,0.011
33.420,-0.012
33.425,0.051
33.430,0.020
33.435,-0.013
33.440,0.046
33.445,0.051
33.450,-0.006
33.455,0.026
33.460,0.068
33.465,0.002
33.470,-0.007
33.475,0.060
33.480,0.010
33.485,-0.044
33.490,0.045
33.495,0.067
33.500,-0.022
33.505,0.004
33.510,0.050
33.515,-0.023
33.520,-0.039
33.525,0.017
33.530,-0.034
33.535,-0.097
33.540,-0.030
33.545,-0.019
33.550,-0.100
33.555,-0.066
33.560,-0.014
33.565,-0.078
33.570,-0.085
33.575,-0.009
33.580,-0.034
33.585,-0.089
33.590,-0.024
33.595,0.013
33.600,-0.044
33.605,-0.006
33.610,0.045
33.615,-0.030
33.620,-0.052
33.625,0.022
33.630,0.002
33.635,-0.047
33.640,0.007
33.645,0.008
33.650,-0.052
33.655,0.008
33.660,0.058
33.665,-0.040
33.670,-0.065
33.675,0.027
33.680,0.008
33.685,-0.049
33.690,0.007
33.695,0.024
33.700,-0.049
33.705,-0.027
33.710,0.027
33.715,-0.047
33.720,-0.062
33.725,0.019
33.730,-0.022
33.735,-0.060
33.740,0.025
33.745,0.028
33.750,-0.052
33.755,-0.011
33.760,0.045
33.765,-0.020
33.770,-0.029
33.775,0.032
33.780,-0.013
33.785,-0.057
33.790,0.018
33.795,0.036
33.800,-0.039
33.805,0.000
33.810,0.064
33.815,-0.015
33.820,-0.042
33.825,0.015
33.830,-0.044
33.835,-0.104
33.840,-0.034
33.845,-0.024
33.850,-0.086
33.855,-0.052
33.860,-0.030
33.865,-0.094
33.870,-0.086
33.875,-0.001
33.880,-0.019
33.885,-0.077
33.890,-0.004
33.895,0.039
33.900,-0.032
33.905,-0.007
33.910,0.063
33.915,0.018
33.920,0.020
33.925,0.108
33.930,0.085
33.935,0.035
33.940,0.095
33.945,0.104
33.950,0.035
33.955,0.053
33.960,0.083
33.965,0.031
33.970,0.032
33.975,0.089
33.980,0.042
33.985,-0.009
33.990,0.056
33.995,0.045
34.000,-0.042
34.005,-0.001
34.010,0.061
34.015,-0.066
34.020,-0.257
34.025,-0.402
34.030,-0.685
34.035,-0.957
34.040,-0.790
34.045,-0.280
34.050,0.130
34.055,0.398
34.060,0.539
34.065,0.416
34.070,0.277
34.075,0.272
34.080,0.196
34.085,0.102
34.090,0.145
34.095,0.164
34.100,0.076
34.105,0.084
34.110,0.147
34.115,0.082
34.120,0.052
34.125,0.120
34.130,0.089
34.135,0.031
34.140,0.085
34.145,0.092
34.150,0.013
34.155,0.046
34.160,0.097
34.165,-0.001
34.170,-0.021
34.175,0.081
34.180,0.040
34.185,-0.037
34.190,0.038
34.195,0.063
34.200,-0.016
34.205,0.009
34.210,0.058
34.215,-0.014
34.220,-0.022
34.225,0.066
34.230,0.049
34.235,-0.019
34.240,0.016
34.245,0.026
34.250,-0.035
34.255,0.004
34.260,0.052
34.265,-0.024
34.270,-0.021
34.275,0.060
34.280,0.013
34.285,-0.033
34.290,0.051
34.295,0.067
34.300,-0.018
34.305,0.025
34.310,0.103
34.315,0.023
34.320,-0.011
34.325,0.077
34.330,0.048
34.335,-0.015
34.340,0.044
34.345,0.040
34.350,-0.056
34.355,-0.031
34.360,0.024
34.365,-0.054
34.370,-0.078
34.375,-0.010
34.380,-0.048
34.385,-0.095
34.390,-0.034
34.395,-0.033
34.400,-0.109
34.405,-0.065
34.410,-0.001
34.415,-0.070
34.420,-0.080
34.425,0.001
34.430,-0.033
34.435,-0.092
34.440,-0.027
34.445,-0.007
34.450,-0.086
34.455,-0.059
34.460,0.004
34.465,-0.060
34.470,-0.071
34.475,0.016
34.480,-0.023
34.485,-0.090
34.490,-0.022
34.495,0.001
34.500,-0.063
34.505,-0.029
34.510,0.019
34.515,-0.056
34.520,-0.062
34.525,0.020
34.530,-0.017
34.535,-0.056
34.540,0.019
34.545,0.011
34.550,-0.081
34.555,-0.045
34.560,0.024
34.565,-0.032
34.570,-0.039
34.575,0.031
34.580,-0.016
34.585,-0.067
34.590,0.020
34.595,0.041
34.600,-0.043
34.605,-0.007
34.610,0.051
34.615,-0.038
34.620,-0.046
34.625,0.056
34.630,0.012
34.635,-0.058
34.640,0.005
34.645,0.002
34.650,-0.080
34.655,-0.049
34.660,-0.014
34.665,-0.082
34.670,-0.083
34.675,-0.016
34.680,-0.058
34.685,-0.113
34.690,-0.033
34.695,0.014
34.700,-0.039
34.705,0.012
34.710,0.075
34.715,-0.023
34.720,-0.054
34.725,0.040
34.730,0.029
34.735,0.004
34.740,0.092
34.745,0.093
34.750,0.011
34.755,0.059
34.760,0.123
34.765,0.059
34.770,0.038
34.775,0.102
34.780,0.061
34.785,-0.005
34.790,0.072
34.795,0.104
34.800,0.010
34.805,0.027
34.810,0.082
34.815,0.000
34.820,-0.014
34.825,0.064
34.830,-0.037
34.835,-0.263
34.840,-0.431
34.845,-0.665
34.850,-0.934
34.855,-0.761
34.860,-0.152
34.865,0.252
34.870,0.423
34.875,0.552
34.880,0.441
34.885,0.258
34.890,0.241
34.895,0.198
34.900,0.092
34.905,0.114
34.910,0.152
34.915,0.065
34.920,0.048
34.925,0.127
34.930,0.086
34.935,0.032
34.940,0.096
34.945,0.090
34.950,0.011
34.955,0.050
34.960,0.106
34.965,0.028
34.970,-0.001
34.975,0.069
34.980,0.039
34.985,-0.011
34.990,0.050
34.995,0.045
35.000,-0.042
35.005,-0.003
35.010,0.066
35.015,0.002
35.020,-0.024
35.025,0.041
35.030,0.022
35.035,-0.017
35.040,0.036
35.045,0.035
35.050,-0.050
35.055,-0.019
35.060,0.048
35.065,-0.011
35.070,-0.016
35.075,0.063
35.080,0.016
35.085,-0.041
35.090,0.042
35.095,0.067
35.100,-0.009
35.105,0.030
35.110,0.100
35.115,0.025
35.120,-0.002
35.125,0.079
35.130,0.061
35.135,0.005
35.140,0.067
35.145,0.085
35.150,-0.009
35.155,0.011
35.160,0.080
35.165,0.003
35.170,-0.027
35.175,0.041
35.180,-0.025
35.185,-0.103
35.190,-0.037
35.195,-0.037
35.200,-0.114
35.205,-0.060
35.210,-0.005
35.215,-0.100
35.220,-0.120
35.225,-0.025
35.230,-0.048
35.235,-0.110
35.240,-0.049
35.245,-0.025
35.250,-0.093
35.255,-0.053
35.260,0.008
35.265,-0.067
35.270,-0.084
35.275,-0.010
35.280,-0.053
35.285,-0.103
35.290,-0.026
35.295,-0.016
35.300,-0.080
35.305,-0.038
35.310,0.014
35.315,-0.045
35.320,-0.062
35.325,0.013
35.330,-0.010
35.335,-0.062
35.340,0.008
35.345,0.026
35.350,-0.047
35.355,-0.019
35.360,0.029
35.365,-0.043
35.370,-0.054
35.375,0.039
35.380,0.009
35.385,-0.054
35.390,0.023
35.395,0.037
35.400,-0.053
35.405,-0.019
35.410,0.058
35.415,-0.002
35.420,-0.028
35.425,0.051
35.430,0.015
35.435,-0.055
35.440,0.016
35.445,0.027
35.450,-0.068
35.455,-0.042
35.460,0.017
35.465,-0.060
35.470,-0.077
35.475,0.009
35.480,-0.034
35.485,-0.104
35.490,-0.035
35.495,-0.015
35.500,-0.083
35.505,-0.048
35.510,0.010
35.515,-0.029
35.520,-0.015
35.525,0.058
35.530,0.016
35.535,-0.040
35.540,0.050
35.545,0.092
35.550,0.012
35.555,0.052
35.560,0.120
35.565,0.038
35.570,0.023
35.575,0.111
35.580,0.073
35.585,0.018
35.590,0.100
35.595,0.095
35.600,-0.001
35.605,0.042
35.610,0.097
35.615,0.024
35.620,0.018
35.625,0.083
35.630,0.025
35.635,-0.019
35.640,0.040
35.645,-0.070
35.650,-0.340
35.655,-0.544
35.660,-0.743
35.665,-0.830
35.670,-0.427
35.675,0.197
35.680,0.457
35.685,0.477
35.690,0.493
35.695,0.386
35.700,0.193
35.705,0.143
35.710,0.180
35.715,0.103
35.720,0.071
35.725,0.143
35.730,0.103
35.735,0.035
35.740,0.090
35.745,0.095
35.750,0.009
35.755,0.043
35.760,0.096
35.765,0.009
35.770,-0.013
35.775,0.079
35.780,0.047
35.785,-0.026
35.790,0.037
35.795,0.047
35.800,-0.032
35.805,0.004
35.810,0.059
35.815,-0.015
35.820,-0.039
35.825,0.025
35.830,-0.015
35.835,-0.059
35.840,0.017
35.845,0.022
35.850,-0.067
35.855,-0.035
35.860,0.035
35.865,-0.034
35.870,-0.053
35.875,0.023
35.880,-0.007
35.885,-0.049
35.890,0.022
35.895,0.035
35.900,-0.042
35.905,-0.006
35.910,0.057
35.915,-0.018
35.920,-0.027
35.925,0.074
35.930,0.053
35.935,0.016
35.940,0.084
35.945,0.067
35.950,-0.012
35.955,0.039
35.960,0.097
35.965,0.020
35.970,-0.015
35.975,0.056
35.980,0.031
35.985,-0.040
35.990,0.010
35.995,0.010
36.000,-0.090
36.005,-0.083
36.010,-0.030
36.015,-0.067
36.020,-0.061
36.025,-0.017
36.030,-0.099
36.035,-0.160
36.040,-0.073
36.045,-0.046
36.050,-0.103
36.055,-0.042
36.060,0.015
36.065,-0.081
36.070,-0.118
36.075,-0.050
36.080,-0.073
36.085,-0.108
36.090,-0.047
36.095,-0.040
36.100,-0.095
36.105,-0.055
36.110,-0.011
36.115,-0.075
36.120,-0.067
36.125,0.018
36.130,-0.023
36.135,-0.088
36.140,-0.019
36.145,0.003
36.150,-0.059
36.155,-0.001
36.160,0.045
36.165,-0.058
36.170,-0.060
36.175,0.031
36.180,-0.014
36.185,-0.057
36.190,0.034
36.195,0.043
36.200,-0.042
36.205,-0.001
36.210,0.046
36.215,-0.030
36.220,-0.030
36.225,0.059
36.230,0.031
36.235,-0.029
36.240,0.022
36.245,0.006
36.250,-0.093
36.255,-0.072
36.260,-0.013
36.265,-0.061
36.270,-0.067
36.275,-0.002
36.280,-0.046
36.285,-0.111
36.290,-0.048
36.295,-0.026
36.300,-0.094
36.305,-0.045
36.310,0.038
36.315,-0.010
36.320,-0.012
36.325,0.066
36.330,0.019
36.335,-0.021
36.340,0.088
36.345,0.118
36.350,0.049
36.355,0.088
36.360,0.139
36.365,0.063
36.370,0.047
36.375,0.130
36.380,0.090
36.385,0.017
36.390,0.078
36.395,0.082
36.400,0.002
36.405,0.044
36.410,0.098
36.415,0.034
36.420,0.027
36.425,0.093
36.430,0.058
36.435,-0.011
36.440,-0.041
36.445,-0.222
36.450,-0.535
36.455,-0.730
36.460,-0.692
36.465,-0.345
36.470,0.169
36.475,0.486
36.480,0.501
36.485,0.397
36.490,0.347
36.495,0.254
36.500,0.110
36.505,0.110
36.510,0.124
36.515,0.032
36.520,0.031
36.525,0.099
36.530,0.050
36.535,0.005
36.540,0.075
36.545,0.074
36.550,-0.008
36.555,0.014
36.560,0.053
36.565,-0.026
36.570,-0.033
36.575,0.056
36.580,0.001
36.585,-0.069
36.590,0.017
36.595,0.033
36.600,-0.044
36.605,-0.002
36.610,0.033
36.615,-0.054
36.620,-0.052
36.625,0.035
36.630,-0.011
36.635,-0.077
36.640,0.000
36.645,0.020
36.650,-0.071
36.655,-0.036
36.660,0.045
36.665,-0.016
36.670,-0.042
36.675,0.035
36.680,0.019
36.685,-0.026
36.690,0.037
36.695,0.030
36.700,-0.050
36.705,0.010
36.710,0.084
36.715,0.027
36.720,0.027
36.725,0.104
36.730,0.051
36.735,-0.012
36.740,0.069
36.745,0.088
36.750,0.024
36.755,0.067
36.760,0.093
36.765,0.000
36.770,-0.001
36.775,0.075
36.780,0.017
36.785,-0.046
36.790,0.019
36.795,0.018
36.800,-0.070
36.805,-0.049
36.810,-0.007
36.815,-0.083
36.820,-0.098
36.825,-0.019
36.830,-0.051
36.835,-0.097
36.840,-0.017
36.845,-0.008
36.850,-0.087
36.855,-0.053
36.860,0.003
36.865,-0.050
36.870,-0.051
36.875,0.016
36.880,-0.023
36.885,-0.073
36.890,-0.013
36.895,0.000
36.900,-0.059
36.905,-0.007
36.910,0.053
36.915,-0.029
36.920,-0.056
36.925,0.014
36.930,-0.024
36.935,-0.072
36.940,0.010
36.945,0.027
36.950,-0.052
36.955,-0.021
36.960,0.028
36.965,-0.040
36.970,-0.042
36.975,0.046
36.980,0.018
36.985,-0.030
36.990,0.035
36.995,0.043
37.000,-0.023
37.005,0.018
37.010,0.068
37.015,-0.017
37.020,-0.040
37.025,0.039
37.030,-0.006
37.035,-0.076
37.040,-0.004
37.045,0.014
37.050,-0.065
37.055,-0.045
37.060,-0.014
37.065,-0.085
37.070,-0.075
37.075,0.017
37.080,0.002
37.085,-0.010
37.090,0.089
37.095,0.091
37.100,0.001
37.105,0.040
37.110,0.113
37.115,0.063
37.120,0.065
37.125,0.154
37.130,0.128
37.135,0.085
37.140,0.150
37.145,0.139
37.150,0.052
37.155,0.089
37.160,0.131
37.165,0.047
37.170,0.036
37.175,0.106
37.180,0.056
37.185,-0.003
37.190,0.067
37.195,0.065
37.200,-0.026
37.205,0.018
37.210,0.053
37.215,-0.137
37.220,-0.352
37.225,-0.537
37.230,-0.811
37.235,-0.773
37.240,-0.202
37.245,0.271
37.250,0.374
37.255,0.441
37.260,0.422
37.265,0.217
37.270,0.089
37.275,0.099
37.280,0.041
37.285,-0.020
37.290,0.045
37.295,0.046
37.300,-0.042
37.305,-0.013
37.310,0.032
37.315,-0.044
37.320,-0.049
37.325,0.026
37.330,-0.021
37.335,-0.073
37.340,0.002
37.345,0.010
37.350,-0.068
37.355,-0.034
37.360,0.015
37.365,-0.057
37.370,-0.069
37.375,0.005
37.380,-0.030
37.385,-0.081
37.390,-0.012
37.395,-0.001
37.400,-0.069
37.405,-0.024
37.410,0.025
37.415,-0.046
37.420,-0.051
37.425,0.019
37.430,-0.022
37.435,-0.065
37.440,0.017
37.445,0.026
37.450,-0.053
37.455,-0.007
37.460,0.055
37.465,-0.015
37.470,-0.020
37.475,0.057
37.480,0.016
37.485,-0.029
37.490,0.053
37.495,0.061
37.500,-0.015
37.505,0.032
37.510,0.088
37.515,0.015
37.520,0.003
37.525,0.076
37.530,0.042
37.535,-0.009
37.540,0.054
37.545,0.051
37.550,-0.039
37.555,-0.013
37.560,0.027
37.565,-0.051
37.570,-0.061
37.575,0.005
37.580,-0.038
37.585,-0.083
37.590,-0.013
37.595,-0.008
37.600,-0.088
37.605,-0.061
37.610,-0.015
37.615,-0.077
37.620,-0.075
37.625,0.011
37.630,-0.022
37.635,-0.074
37.640,-0.003
37.645,-0.003
37.650,-0.082
37.655,-0.028
37.660,0.029
37.665,-0.048
37.670,-0.054
37.675,0.031
37.680,-0.005
37.685,-0.066
37.690,0.010
37.695,0.032
37.700,-0.041
37.705,0.003
37.710,0.057
37.715,-0.020
37.720,-0.026
37.725,0.059
37.730,0.022
37.735,-0.029
37.740,0.043
37.745,0.049
37.750,-0.027
37.755,0.016
37.760,0.070
37.765,-0.007
37.770,-0.008
37.775,0.072
37.780,0.010
37.785,-0.057
37.790,0.010
37.795,0.003
37.800,-0.085
37.805,-0.041
37.810,0.009
37.815,-0.078
37.820,-0.094
37.825,-0.022
37.830,-0.058
37.835,-0.093
37.840,0.003
37.845,0.038
37.850,-0.025
37.855,0.009
37.860,0.056
37.865,-0.009
37.870,0.002
37.875,0.103
37.880,0.079
37.885,0.044
37.890,0.131
37.895,0.138
37.900,0.059
37.905,0.097
37.910,0.138
37.915,0.053
37.920,0.039
37.925,0.116
37.930,0.072
37.935,0.017
37.940,0.086
37.945,0.084
37.950,-0.002
37.955,0.035
37.960,0.084
37.965,0.012
37.970,-0.031
37.975,-0.095
37.980,-0.362
37.985,-0.679
37.990,-0.817
37.995,-0.715
38.000,-0.298
38.005,0.252
38.010,0.527
38.015,0.499
38.020,0.422
38.025,0.357
38.030,0.205
38.035,0.095
38.040,0.141
38.045,0.128
38.050,0.040
38.055,0.077
38.060,0.118
38.065,0.036
38.070,0.017
38.075,0.080
38.080,0.037
38.085,-0.007
38.090,0.064
38.095,0.053
38.100,-0.035
38.105,0.006
38.110,0.049
38.115,-0.032
38.120,-0.036
38.125,0.047
38.130,0.007
38.135,-0.050
38.140,0.019
38.145,0.022
38.150,-0.062
38.155,-0.025
38.160,0.028
38.165,-0.042
38.170,-0.045
38.175,0.032
38.180,-0.011
38.185,-0.070
38.190,0.006
38.195,0.028
38.200,-0.048
38.205,-0.015
38.210,0.043
38.215,-0.016
38.220,-0.021
38.225,0.049
38.230,0.011
38.235,-0.030
38.240,0.049
38.245,0.059
38.250,-0.011
38.255,0.038
38.260,0.095
38.265,0.021
38.270,0.016
38.275,0.100
38.280,0.055
38.285,-0.002
38.290,0.073
38.295,0.075
38.300,-0.009
38.305,0.024
38.310,0.061
38.315,-0.021
38.320,-0.034
38.325,0.025
38.330,-0.036
38.335,-0.093
38.340,-0.022
38.345,-0.022
38.350,-0.108
38.355,-0.068
38.360,-0.011
38.365,-0.086
38.370,-0.099
38.375,-0.018
38.380,-0.054
38.385,-0.107
38.390,-0.037
38.395,-0.032
38.400,-0.100
38.405,-0.053
38.410,-0.007
38.415,-0.082
38.420,-0.086
38.425,-0.007
38.430,-0.044
38.435,-0.094
38.440,-0.019
38.445,-0.009
38.450,-0.085
38.455,-0.037
38.460,0.022
38.465,-0.052
38.470,-0.062
38.475,0.016
38.480,-0.017
38.485,-0.061
38.490,0.009
38.495,0.014
38.500,-0.057
38.505,-0.012
38.510,0.042
38.515,-0.029
38.520,-0.044
38.525,0.016
38.530,-0.037
38.535,-0.096
38.540,-0.025
38.545,-0.018
38.550,-0.100
38.555,-0.075
38.560,-0.042
38.565,-0.120
38.570,-0.125
38.575,-0.031
38.580,-0.039
38.585,-0.061
38.590,0.021
38.595,0.026
38.600,-0.046
38.605,0.016
38.610,0.090
38.615,0.034
38.620,0.047
38.625,0.139
38.630,0.100
38.635,0.046
38.640,0.113
38.645,0.111
38.650,0.036
38.655,0.078
38.660,0.120
38.665,0.040
38.670,0.030
38.675,0.109
38.680,0.070
38.685,0.007
38.690,0.066
38.695,0.064
38.700,-0.009
38.705,0.039
38.710,0.032
38.715,-0.193
38.720,-0.415
38.725,-0.594
38.730,-0.794
38.735,-0.629
38.740,-0.014
38.745,0.407
38.750,0.470
38.755,0.508
38.760,0.455
38.765,0.246
38.770,0.136
38.775,0.159
38.780,0.098
38.785,0.034
38.790,0.093
38.795,0.085
38.800,0.003
38.805,0.044
38.810,0.089
38.815,0.006
38.820,-0.006
38.825,0.070
38.830,0.021
38.835,-0.041
38.840,0.031
38.845,0.037
38.850,-0.043
38.855,-0.003
38.860,0.042
38.865,-0.036
38.870,-0.040
38.875,0.032
38.880,-0.018
38.885,-0.065
38.890,0.012
38.895,0.014
38.900,-0.060
38.905,-0.014
38.910,0.032
38.915,-0.041
38.920,-0.042
38.925,0.035
38.930,-0.010
38.935,-0.061
38.940,0.016
38.945,0.026
38.950,-0.046
38.955,-0.001
38.960,0.053
38.965,-0.013
38.970,-0.012
38.975,0.074
38.980,0.039
38.985,-0.007
38.990,0.071
38.995,0.077
39.000,0.002
39.005,0.051
39.010,0.103
39.015,0.024
39.020,0.021
39.025,0.101
39.030,0.053
39.035,-0.002
39.040,0.072
39.045,0.066
39.050,-0.029
39.055,-0.003
39.060,0.037
39.065,-0.047
39.070,-0.065
39.075,0.002
39.080,-0.045
39.085,-0.098
39.090,-0.027
39.095,-0.022
39.100,-0.103
39.105,-0.064
39.110,-0.006
39.115,-0.074
39.120,-0.084
39.125,-0.007
39.130,-0.044
39.135,-0.083
39.140,-0.004
39.145,-0.014
39.150,-0.096
39.155,-0.046
39.160,0.008
39.165,-0.059
39.170,-0.065
39.175,0.009
39.180,-0.024
39.185,-0.066
39.190,0.006
39.195,0.005
39.200,-0.074
39.205,-0.023
39.210,0.042
39.215,-0.031
39.220,-0.044
39.225,0.039
39.230,0.000
39.235,-0.054
39.240,0.021
39.245,0.027
39.250,-0.059
39.255,-0.035
39.260,0.002
39.265,-0.080
39.270,-0.081
39.275,0.003
39.280,-0.064
39.285,-0.147
39.290,-0.076
39.295,-0.061
39.300,-0.122
39.305,-0.056
39.310,0.016
39.315,-0.043
39.320,-0.045
39.325,0.038
39.330,0.022
39.335,0.008
39.340,0.099
39.345,0.098
39.350,0.028
39.355,0.090
39.360,0.149
39.365,0.070
39.370,0.062
39.375,0.136
39.380,0.089
39.385,0.036
39.390,0.104
39.395,0.096
39.400,0.005
39.405,0.043
39.410,0.099
39.415,0.030
39.420,0.021
39.425,0.091
39.430,0.047
39.435,-0.033
39.440,-0.078
39.445,-0.287
39.450,-0.627
39.455,-0.790
39.460,-0.610
39.465,-0.158
39.470,0.310
39.475,0.567
39.480,0.522
39.485,0.357
39.490,0.292
39.495,0.185
39.500,0.046
39.505,0.070
39.510,0.115
39.515,0.029
39.520,0.012
39.525,0.099
39.530,0.055
39.535,-0.022
39.540,0.033
39.545,0.045
39.550,-0.029
39.555,-0.001
39.560,0.046
39.565,-0.027
39.570,-0.032
39.575,0.041
39.580,-0.012
39.585,-0.071
39.590,-0.004
39.595,-0.005
39.600,-0.074
39.605,-0.019
39.610,0.037
39.615,-0.036
39.620,-0.050
39.625,0.018
39.630,-0.023
39.635,-0.068
39.640,0.014
39.645,0.020
39.650,-0.059
39.655,-0.009
39.660,0.043
39.665,-0.028
39.670,-0.016
39.675,0.067
39.680,0.013
39.685,-0.034
39.690,0.049
39.695,0.048
39.700,-0.028
39.705,0.025
39.710,0.084
39.715,0.014
39.720,0.013
39.725,0.088
39.730,0.045
39.735,0.002
39.740,0.078
39.745,0.073
39.750,-0.003
39.755,0.046
39.760,0.090
39.765,0.007
39.770,-0.007
39.775,0.062
39.780,0.008
39.785,-0.067
39.790,-0.013
39.795,-0.016
39.800,-0.094
39.805,-0.051
39.810,-0.002
39.815,-0.077
39.820,-0.077
39.825,0.003
39.830,-0.042
39.835,-0.091
39.840,-0.011
39.845,-0.004
39.850,-0.085
39.855,-0.050
39.860,0.003
39.865,-0.071
39.870,-0.076
39.875,0.002
39.880,-0.044
39.885,-0.088
39.890,-0.004
39.895,0.001
39.900,-0.074
39.905,-0.028
39.910,0.027
39.915,-0.044
39.920,-0.057
39.925,0.015
39.930,-0.019
39.935,-0.060
39.940,0.022
39.945,0.026
39.950,-0.050
39.955,-0.007
39.960,0.028
39.965,-0.055
39.970,-0.060
39.975,0.007
39.980,-0.048
39.985,-0.100
39.990,-0.027
39.995,-0.038
40.000,-0.133
40.005,-0.098
40.010,-0.045
40.015,-0.112
40.020,-0.100
40.025,0.001
40.030,-0.015
40.035,-0.063
40.040,0.000
40.045,0.022
40.050,-0.017
40.055,0.053
40.060,0.115
40.065,0.051
40.070,0.055
40.075,0.134
40.080,0.092
40.085,0.045
40.090,0.117
40.095,0.114
40.100,0.030
40.105,0.067
40.110,0.113
40.115,0.041
40.120,0.034
40.125,0.094
40.130,0.043
40.135,-0.008
40.140,0.060
40.145,0.067
40.150,-0.037
40.155,-0.106
40.160,-0.241
40.165,-0.568
40.170,-0.817
40.175,-0.715
40.180,-0.298
40.185,0.190
40.190,0.497
40.195,0.543
40.200,0.419
40.205,0.328
40.210,0.249
40.215,0.103
40.220,0.076
40.225,0.142
40.230,0.083
40.235,0.018
40.240,0.084
40.245,0.082
40.250,0.003
40.255,0.043
40.260,0.087
40.265,0.014
40.270,0.004
40.275,0.056
40.280,0.003
40.285,-0.040
40.290,0.031
40.295,0.027
40.300,-0.049
40.305,-0.007
40.310,0.040
40.315,-0.028
40.320,-0.034
40.325,0.025
40.330,-0.024
40.335,-0.061
40.340,0.019
40.345,0.019
40.350,-0.057
40.355,-0.008
40.360,0.041
40.365,-0.039
40.370,-0.050
40.375,0.024
40.380,-0.013
40.385,-0.056
40.390,0.022
40.395,0.027
40.400,-0.044
40.405,0.005
40.410,0.054
40.415,-0.011
40.420,-0.002
40.425,0.081
40.430,0.044
40.435,0.001
40.440,0.076
40.445,0.078
40.450,0.000
40.455,0.045
40.460,0.096
40.465,0.020
40.470,0.022
40.475,0.091
40.480,0.028
40.485,-0.027
40.490,0.037
40.495,0.027
40.500,-0.054
40.505,-0.021
40.510,0.014
40.515,-0.064
40.520,-0.071
40.525,-0.002
40.530,-0.052
40.535,-0.104
40.540,-0.029
40.545,-0.021
40.550,-0.090
40.555,-0.041
40.560,0.007
40.565,-0.072
40.570,-0.080
40.575,-0.002
40.580,-0.044
40.585,-0.091
40.590,-0.014
40.595,-0.009
40.600,-0.080
40.605,-0.036
40.610,0.007
40.615,-0.069
40.620,-0.072
40.625,0.007
40.630,-0.032
40.635,-0.071
40.640,0.014
40.645,0.020
40.650,-0.049
40.655,0.000
40.660,0.042
40.665,-0.033
40.670,-0.035
40.675,0.032
40.680,-0.027
40.685,-0.086
40.690,-0.017
40.695,-0.015
40.700,-0.084
40.705,-0.043
40.710,-0.025
40.715,-0.133
40.720,-0.134
40.725,-0.043
40.730,-0.078
40.735,-0.107
40.740,-0.004
40.745,0.014
40.750,-0.056
40.755,-0.006
40.760,0.048
40.765,-0.002
40.770,0.030
40.775,0.122
40.780,0.092
40.785,0.052
40.790,0.119
40.795,0.121
40.800,0.054
40.805,0.101
40.810,0.146
40.815,0.055
40.820,0.037
40.825,0.115
40.830,0.069
40.835,0.012
40.840,0.083
40.845,0.080
40.850,-0.001
40.855,0.043
40.860,0.089
40.865,-0.043
40.870,-0.191
40.875,-0.329
40.880,-0.635
40.885,-0.890
40.890,-0.713
40.895,-0.216
40.900,0.214
40.905,0.490
40.910,0.590
40.915,0.447
40.920,0.310
40.925,0.263
40.930,0.144
40.935,0.075
40.940,0.142
40.945,0.131
40.950,0.041
40.955,0.074
40.960,0.114
40.965,0.033
40.970,0.019
40.975,0.088
40.980,0.044
40.985,-0.006
40.990,0.062
40.995,0.054
41.000,-0.025
41.005,0.016
41.010,0.051
41.015,-0.031
41.020,-0.030
41.025,0.044
41.030,-0.003
41.035,-0.043
41.040,0.031
41.045,0.022
41.050,-0.057
41.055,-0.016
41.060,0.032
41.065,-0.038
41.070,-0.040
41.075,0.034
41.080,-0.013
41.085,-0.062
41.090,0.014
41.095,0.018
41.100,-0.053
41.105,-0.004
41.110,0.045
41.115,-0.028
41.120,-0.026
41.125,0.046
41.130,0.003
41.135,-0.033
41.140,0.047
41.145,0.055
41.150,-0.011
41.155,0.041
41.160,0.092
41.165,0.016
41.170,0.012
41.175,0.087
41.180,0.040
41.185,-0.007
41.190,0.066
41.195,0.052
41.200,-0.036
41.205,0.001
41.210,0.036
41.215,-0.047
41.220,-0.052
41.225,0.020
41.230,-0.036
41.235,-0.092
41.240,-0.018
41.245,-0.020
41.250,-0.097
41.255,-0.045
41.260,0.006
41.265,-0.069
41.270,-0.066
41.275,0.010
41.280,-0.035
41.285,-0.080
41.290,-0.009
41.295,-0.015
41.300,-0.094
41.305,-0.048
41.310,0.005
41.315,-0.064
41.320,-0.066
41.325,0.011
41.330,-0.033
41.335,-0.081
41.340,-0.003
41.345,0.006
41.350,-0.067
41.355,-0.016
41.360,0.038
41.365,-0.038
41.370,-0.048
41.375,0.024
41.380,-0.019
41.385,-0.068
41.390,0.002
41.395,-0.001
41.400,-0.079
41.405,-0.038
41.410,0.006
41.415,-0.083
41.420,-0.109
41.425,-0.056
41.430,-0.115
41.435,-0.152
41.440,-0.054
41.445,-0.030
41.450,-0.085
41.455,-0.025
41.460,0.036
41.465,-0.033
41.470,-0.031
41.475,0.067
41.480,0.047
41.485,0.016
41.490,0.107
41.495,0.120
41.500,0.051
41.505,0.097
41.510,0.141
41.515,0.058
41.520,0.054
41.525,0.129
41.530,0.072
41.535,0.023
41.540,0.100
41.545,0.092
41.550,0.010
41.555,0.052
41.560,0.087
41.565,0.009
41.570,0.017
41.575,0.075
41.580,-0.073
41.585,-0.303
41.590,-0.468
41.595,-0.716
41.600,-0.851
41.605,-0.441
41.610,0.171
41.615,0.423
41.620,0.517
41.625,0.553
41.630,0.367
41.635,0.182
41.640,0.166
41.645,0.135
41.650,0.052
41.655,0.087
41.660,0.132
41.665,0.053
41.670,0.032
41.675,0.094
41.680,0.044
41.685,-0.014
41.690,0.058
41.695,0.051
41.700,-0.041
41.705,0.005
41.710,0.066
41.715,-0.005
41.720,-0.018
41.725,0.048
41.730,0.001
41.735,-0.049
41.740,0.024
41.745,0.023
41.750,-0.053
41.755,-0.006
41.760,0.039
41.765,-0.040
41.770,-0.044
41.775,0.033
41.780,-0.009
41.785,-0.058
41.790,0.016
41.795,0.022
41.800,-0.049
41.805,-0.003
41.810,0.047
41.815,-0.032
41.820,-0.039
41.825,0.040
41.830,0.002
41.835,-0.046
41.840,0.036
41.845,0.048
41.850,-0.035
41.855,0.007
41.860,0.071
41.865,0.002
41.870,-0.006
41.875,0.064
41.880,0.023
41.885,-0.009
41.890,0.075
41.895,0.062
41.900,-0.030
41.905,0.019
41.910,0.073
41.915,-0.016
41.920,-0.035
41.925,0.030
41.930,-0.031
41.935,-0.086
41.940,-0.014
41.945,-0.024
41.950,-0.098
41.955,-0.036
41.960,0.012
41.965,-0.074
41.970,-0.082
41.975,-0.001
41.980,-0.038
41.985,-0.089
41.990,-0.017
41.995,-0.013
42.000,-0.082
42.005,-0.035
42.010,0.010
42.015,-0.052
42.020,-0.048
42.025,0.017
42.030,-0.031
42.035,-0.073
42.040,0.008
42.045,0.010
42.050,-0.065
42.055,-0.023
42.060,0.015
42.065,-0.059
42.070,-0.046
42.075,0.035
42.080,-0.009
42.085,-0.045
42.090,0.032
42.095,0.021
42.100,-0.059
42.105,-0.016
42.110,0.019
42.115,-0.069
42.120,-0.072
42.125,0.006
42.130,-0.047
42.135,-0.114
42.140,-0.060
42.145,-0.064
42.150,-0.129
42.155,-0.070
42.160,-0.006
42.165,-0.063
42.170,-0.044
42.175,0.041
42.180,0.000
42.185,-0.034
42.190,0.061
42.195,0.081
42.200,0.021
42.205,0.085
42.210,0.137
42.215,0.056
42.220,0.051
42.225,0.125
42.230,0.080
42.235,0.034
42.240,0.103
42.245,0.097
42.250,0.019
42.255,0.051
42.260,0.087
42.265,0.012
42.270,0.009
42.275,0.081
42.280,0.033
42.285,-0.015
42.290,0.016
42.295,-0.122
42.300,-0.418
42.305,-0.640
42.310,-0.796
42.315,-0.729
42.320,-0.208
42.325,0.335
42.330,0.476
42.335,0.454
42.340,0.451
42.345,0.319
42.350,0.127
42.355,0.118
42.360,0.150
42.365,0.056
42.370,0.034
42.375,0.099
42.380,0.048
42.385,-0.003
42.390,0.068
42.395,0.066
42.400,-0.013
42.405,0.025
42.410,0.063
42.415,-0.019
42.420,-0.022
42.425,0.052
42.430,0.001
42.435,-0.048
42.440,0.026
42.445,0.021
42.450,-0.055
42.455,-0.004
42.460,0.040
42.465,-0.046
42.470,-0.045
42.475,0.032
42.480,-0.021
42.485,-0.065
42.490,0.019
42.495,0.020
42.500,-0.054
42.505,-0.007
42.510,0.035
42.515,-0.043
42.520,-0.036
42.525,0.042
42.530,-0.004
42.535,-0.052
42.540,0.029
42.545,0.045
42.550,-0.027
42.555,0.013
42.560,0.067
42.565,0.001
42.570,0.004
42.575,0.088
42.580,0.052
42.585,0.005
42.590,0.077
42.595,0.080
42.600,0.006
42.605,0.048
42.610,0.090
42.615,0.008
42.620,-0.004
42.625,0.059
42.630,0.011
42.635,-0.044
42.640,0.009
42.645,0.000
42.650,-0.071
42.655,-0.023
42.660,0.024
42.665,-0.045
42.670,-0.034
42.675,0.039
42.680,-0.034
42.685,-0.108
42.690,-0.044
42.695,-0.047
42.700,-0.122
42.705,-0.062
42.710,-0.010
42.715,-0.103
42.720,-0.117
42.725,-0.031
42.730,-0.053
42.735,-0.097
42.740,-0.031
42.745,-0.019
42.750,-0.086
42.755,-0.037
42.760,0.016
42.765,-0.057
42.770,-0.054
42.775,0.018
42.780,-0.027
42.785,-0.058
42.790,0.025
42.795,0.032
42.800,-0.030
42.805,0.024
42.810,0.070
42.815,-0.006
42.820,-0.010
42.825,0.070
42.830,0.023
42.835,-0.039
42.840,0.028
42.845,0.019
42.850,-0.069
42.855,-0.030
42.860,0.006
42.865,-0.082
42.870,-0.103
42.875,-0.034
42.880,-0.066
42.885,-0.088
42.890,0.022
42.895,0.039
42.900,-0.044
42.905,0.003
42.910,0.079
42.915,0.036
42.920,0.037
42.925,0.114
42.930,0.083
42.935,0.039
42.940,0.117
42.945,0.122
42.950,0.051
42.955,0.093
42.960,0.124
42.965,0.052
42.970,0.062
42.975,0.127
42.980,0.071
42.985,0.022
42.990,0.094
42.995,0.097
43.000,0.022
43.005,0.064
43.010,0.105
43.015,-0.035
43.020,-0.193
43.025,-0.338
43.030,-0.631
43.035,-0.862
43.040,-0.669
43.045,-0.168
43.050,0.251
43.055,0.521
43.060,0.632
43.065,0.489
43.070,0.330
43.075,0.277
43.080,0.163
43.085,0.096
43.090,0.165
43.095,0.145
43.100,0.044
43.105,0.074
43.110,0.115
43.115,0.035
43.120,0.018
43.125,0.070
43.130,0.017
43.135,-0.019
43.140,0.063
43.145,0.054
43.150,-0.029
43.155,0.023
43.160,0.070
43.165,-0.019
43.170,-0.025
43.175,0.050
43.180,0.002
43.185,-0.047
43.190,0.027
43.195,0.025
43.200,-0.063
43.205,-0.026
43.210,0.021
43.215,-0.050
43.220,-0.048
43.225,0.017
43.230,-0.046
43.235,-0.102
43.240,-0.032
43.245,-0.036
43.250,-0.115
43.255,-0.066
43.260,-0.003
43.265,-0.072
43.270,-0.082
43.275,-0.001
43.280,-0.034
43.285,-0.076
43.290,0.008
43.295,0.025
43.300,-0.039
43.305,0.014
43.310,0.078
43.315,0.014
43.320,0.005
43.325,0.074
43.330,0.026
43.335,-0.025
43.340,0.045
43.345,0.039
43.350,-0.044
43.355,-0.011
43.360,0.025
43.365,-0.053
43.370,-0.064
43.375,-0.001
43.380,-0.056
43.385,-0.115
43.390,-0.045
43.395,-0.039
43.400,-0.111
43.405,-0.059
43.410,-0.008
43.415,-0.092
43.420,-0.097
43.425,-0.015
43.430,-0.059
43.435,-0.108
43.440,-0.023
43.445,-0.016
43.450,-0.094
43.455,-0.046
43.460,0.007
43.465,-0.066
43.470,-0.066
43.475,0.010
43.480,-0.032
43.485,-0.073
43.490,-0.001
43.495,-0.005
43.500,-0.086
43.505,-0.043
43.510,0.019
43.515,-0.055
43.520,-0.067
43.525,0.018
43.530,-0.019
43.535,-0.061
43.540,0.011
43.545,-0.002
43.550,-0.077
43.555,-0.025
43.560,0.016
43.565,-0.068
43.570,-0.065
43.575,0.000
43.580,-0.072
43.585,-0.138
43.590,-0.073
43.595,-0.062
43.600,-0.109
43.605,-0.053
43.610,-0.003
43.615,-0.053
43.620,-0.034
43.625,0.051
43.630,0.007
43.635,-0.039
43.640,0.058
43.645,0.078
43.650,0.018
43.655,0.086
43.660,0.146
43.665,0.074
43.670,0.074
43.675,0.151
43.680,0.093
43.685,0.034
43.690,0.119
43.695,0.123
43.700,0.034
43.705,0.065
43.710,0.104
43.715,0.029
43.720,0.014
43.725,0.082
43.730,0.043
43.735,-0.029
43.740,-0.030
43.745,-0.174
43.750,-0.472
43.755,-0.698
43.760,-0.828
43.765,-0.713
43.770,-0.173
43.775,0.366
43.780,0.520
43.785,0.505
43.790,0.477
43.795,0.327
43.800,0.154
43.805,0.160
43.810,0.184
43.815,0.096
43.820,0.092
43.825,0.163
43.830,0.114
43.835,0.049
43.840,0.096
43.845,0.082
43.850,0.004
43.855,0.050
43.860,0.095
43.865,0.019
43.870,0.015
43.875,0.081
43.880,0.028
43.885,-0.022
43.890,0.048
43.895,0.039
43.900,-0.035
43.905,0.020
43.910,0.055
43.915,-0.040
43.920,-0.032
43.925,0.058
43.930,0.010
43.935,-0.053
43.940,0.004
43.945,0.007
43.950,-0.059
43.955,-0.008
43.960,0.044
43.965,-0.027
43.970,-0.023
43.975,0.050
43.980,0.000
43.985,-0.041
43.990,0.050
43.995,0.060
44.000,-0.015
44.005,0.036
44.010,0.087
44.015,0.023
44.020,0.040
44.025,0.117
44.030,0.059
44.035,0.008
44.040,0.095
44.045,0.096
44.050,0.003
44.055,0.044
44.060,0.081
44.065,-0.016
44.070,-0.024
44.075,0.042
44.080,-0.013
44.085,-0.067
44.090,-0.008
44.095,-0.018
44.100,-0.092
44.105,-0.041
44.110,0.000
44.115,-0.089
44.120,-0.092
44.125,-0.017
44.130,-0.067
44.135,-0.099
44.140,-0.023
44.145,-0.038
44.150,-0.108
44.155,-0.049
44.160,0.006
44.165,-0.064
44.170,-0.069
44.175,0.000
44.180,-0.043
44.185,-0.083
44.190,-0.002
44.195,-0.003
44.200,-0.080
44.205,-0.024
44.210,0.020
44.215,-0.062
44.220,-0.053
44.225,0.024
44.230,-0.019
44.235,-0.054
44.240,0.020
44.245,0.017
44.250,-0.057
44.255,-0.011
44.260,0.036
44.265,-0.042
44.270,-0.035
44.275,0.046
44.280,-0.018
44.285,-0.079
44.290,-0.011
44.295,-0.022
44.300,-0.097
44.305,-0.045
44.310,-0.015
44.315,-0.114
44.320,-0.123
44.325,-0.048
44.330,-0.094
44.335,-0.133
44.340,-0.033
44.345,-0.005
44.350,-0.065
44.355,-0.008
44.360,0.045
44.365,-0.032
44.370,-0.015
44.375,0.096
44.380,0.070
44.385,0.036
44.390,0.121
44.395,0.116
44.400,0.036
44.405,0.084
44.410,0.123
44.415,0.048
44.420,0.048
44.425,0.112
44.430,0.062
44.435,0.012
44.440,0.076
44.445,0.071
44.450,-0.003
44.455,0.037
44.460,0.075
44.465,-0.005
44.470,-0.048
44.475,-0.107
44.480,-0.366
44.485,-0.660
44.490,-0.780
44.495,-0.720
44.500,-0.357
44.505,0.203
44.510,0.519
44.515,0.517
44.520,0.451
44.525,0.372
44.530,0.211
44.535,0.113
44.540,0.160
44.545,0.142
44.550,0.063
44.555,0.100
44.560,0.128
44.565,0.044
44.570,0.042
44.575,0.108
44.580,0.057
44.585,0.010
44.590,0.066
44.595,0.053
44.600,-0.014
44.605,0.032
44.610,0.064
44.615,-0.014
44.620,-0.011
44.625,0.061
44.630,0.006
44.635,-0.044
44.640,0.035
44.645,0.031
44.650,-0.053
44.655,-0.004
44.660,0.044
44.665,-0.037
44.670,-0.032
44.675,0.053
44.680,0.011
44.685,-0.033
44.690,0.035
44.695,0.026
44.700,-0.052
44.705,-0.003
44.710,0.047
44.715,-0.028
44.720,-0.027
44.725,0.052
44.730,0.004
44.735,-0.043
44.740,0.039
44.745,0.043
44.750,-0.024
44.755,0.028
44.760,0.074
44.765,0.013
44.770,0.019
44.775,0.085
44.780,0.043
44.785,-0.008
44.790,0.053
44.795,0.040
44.800,-0.047
44.805,0.001
44.810,0.046
44.815,-0.044
44.820,-0.045
44.825,0.034
44.830,-0.028
44.835,-0.085
44.840,-0.007
44.845,-0.010
44.850,-0.091
44.855,-0.039
44.860,0.015
44.865,-0.065
44.870,-0.074
44.875,0.001
44.880,-0.045
44.885,-0.089
44.890,-0.003
44.895,0.002
44.900,-0.076
44.905,-0.032
44.910,0.018
44.915,-0.053
44.920,-0.054
44.925,0.014
44.930,-0.034
44.935,-0.082
44.940,-0.008
44.945,-0.005
44.950,-0.078
44.955,-0.023
44.960,0.032
44.965,-0.042
44.970,-0.039
44.975,0.036
44.980,-0.013
44.985,-0.052
44.990,0.015
44.995,-0.003
45.000,-0.064
45.005,-0.006
45.010,0.027
45.015,-0.056
45.020,-0.065
45.025,-0.001
45.030,-0.052
45.035,-0.110
45.040,-0.039
45.045,-0.041
45.050,-0.135
45.055,-0.101
45.060,-0.049
45.065,-0.119
45.070,-0.101
45.075,0.012
45.080,-0.006
45.085,-0.050
45.090,0.017
45.095,0.028
45.100,-0.016
45.105,0.053
45.110,0.107
45.115,0.042
45.120,0.056
45.125,0.136
45.130,0.085
45.135,0.039
45.140,0.111
45.145,0.092
45.150,0.008
45.155,0.066
45.160,0.123
45.165,0.043
45.170,0.027
45.175,0.093
45.180,0.050
45.185,0.009
45.190,0.071
45.195,0.053
45.200,-0.035
45.205,-0.076
45.210,-0.213
45.215,-0.530
45.220,-0.770
45.225,-0.680
45.230,-0.295
45.235,0.175
45.240,0.511
45.245,0.540
45.250,0.376
45.255,0.320
45.260,0.250
45.265,0.078
45.270,0.055
