'Elapsed time','ECG'
'seconds','mV'
0.000,-0.343
0.005,-0.971
0.010,-1.312
0.015,-1.270
0.020,-0.768
0.025,0.109
0.030,0.660
0.035,0.753
0.040,0.718
0.045,0.652
0.050,0.600
0.055,0.581
0.060,0.556
0.065,0.526
0.070,0.502
0.075,0.481
0.080,0.459
0.085,0.438
0.090,0.417
0.095,0.399
0.100,0.384
0.105,0.361
0.110,0.336
0.115,0.314
0.120,0.289
0.125,0.271
0.130,0.259
0.135,0.242
0.140,0.224
0.145,0.206
0.150,0.189
0.155,0.176
0.160,0.165
0.165,0.149
0.170,0.134
0.175,0.120
0.180,0.103
0.185,0.085
0.190,0.068
0.195,0.055
0.200,0.042
0.205,0.024
0.210,0.002
0.215,-0.016
0.220,-0.035
0.225,-0.060
0.230,-0.083
0.235,-0.103
0.240,-0.123
0.245,-0.143
0.250,-0.167
0.255,-0.197
0.260,-0.225
0.265,-0.246
0.270,-0.262
0.275,-0.279
0.280,-0.294
0.285,-0.301
0.290,-0.303
0.295,-0.305
0.300,-0.303
0.305,-0.289
0.310,-0.270
0.315,-0.252
0.320,-0.221
0.325,-0.169
0.330,-0.106
0.335,-0.039
0.340,0.029
0.345,0.096
0.350,0.161
0.355,0.214
0.360,0.251
0.365,0.279
0.370,0.298
0.375,0.314
0.380,0.324
0.385,0.323
0.390,0.319
0.395,0.315
0.400,0.307
0.405,0.291
0.410,0.272
0.415,0.261
0.420,0.252
0.425,0.236
0.430,0.222
0.435,0.212
0.440,0.202
0.445,0.189
0.450,0.173
0.455,0.157
0.460,0.143
0.465,0.135
0.470,0.124
0.475,0.112
0.480,0.103
0.485,0.092
0.490,0.081
0.495,0.075
0.500,0.068
0.505,0.053
0.510,0.040
0.515,0.033
0.520,0.027
0.525,0.018
0.530,0.012
0.535,0.008
0.540,0.000
0.545,-0.006
0.550,-0.010
0.555,-0.012
0.560,-0.015
0.565,-0.022
0.570,-0.027
0.575,-0.031
0.580,-0.036
0.585,-0.039
0.590,-0.041
0.595,-0.045
0.600,-0.047
0.605,-0.048
0.610,-0.055
0.615,-0.056
0.620,-0.055
0.625,-0.061
0.630,-0.064
0.635,-0.066
0.640,-0.070
0.645,-0.071
0.650,-0.072
0.655,-0.074
0.660,-0.075
0.665,-0.075
0.670,-0.081
0.675,-0.089
0.680,-0.085
0.685,-0.077
0.690,-0.077
0.695,-0.081
0.700,-0.082
0.705,-0.081
0.710,-0.082
0.715,-0.083
0.720,-0.083
0.725,-0.084
0.730,-0.084
0.735,-0.083
0.740,-0.079
0.745,-0.078
0.750,-0.083
0.755,-0.082
0.760,-0.080
0.765,-0.081
0.770,-0.077
0.775,-0.074
0.780,-0.075
0.785,-0.075
0.790,-0.076
0.795,-0.077
0.800,-0.075
0.805,-0.076
0.810,-0.078
0.815,-0.075
0.820,-0.073
0.825,-0.072
0.830,-0.072
0.835,-0.071
0.840,-0.068
0.845,-0.066
0.850,-0.065
0.855,-0.061
0.860,-0.059
0.865,-0.058
0.870,-0.059
0.875,-0.059
0.880,-0.058
0.885,-0.058
0.890,-0.062
0.895,-0.068
0.900,-0.077
0.905,-0.095
0.910,-0.120
0.915,-0.137
0.920,-0.138
0.925,-0.138
0.930,-0.141
0.935,-0.127
0.940,-0.112
0.945,-0.112
0.950,-0.110
0.955,-0.095
0.960,-0.059
0.965,-0.015
0.970,0.009
0.975,0.015
0.980,0.022
0.985,0.030
0.990,0.039
0.995,0.052
1.000,0.062
1.005,0.061
1.010,0.060
1.015,0.059
1.020,0.056
1.025,0.050
1.030,0.044
1.035,0.042
1.040,0.036
1.045,0.024
1.050,0.024
1.055,0.014
1.060,-0.094
1.065,-0.374
1.070,-0.806
1.075,-1.258
1.080,-1.552
1.085,-1.523
1.090,-0.986
1.095,-0.145
1.100,0.406
1.105,0.526
1.110,0.471
1.115,0.400
1.120,0.372
1.125,0.362
1.130,0.338
1.135,0.322
1.140,0.313
1.145,0.302
1.150,0.292
1.155,0.277
1.160,0.261
1.165,0.249
1.170,0.235
1.175,0.221
1.180,0.209
1.185,0.197
1.190,0.185
1.195,0.174
1.200,0.164
1.205,0.151
1.210,0.138
1.215,0.125
1.220,0.114
1.225,0.103
1.230,0.092
1.235,0.085
1.240,0.075
1.245,0.061
1.250,0.050
1.255,0.040
1.260,0.032
1.265,0.023
1.270,0.010
1.275,-0.008
1.280,-0.026
1.285,-0.041
1.290,-0.052
1.295,-0.067
1.300,-0.085
1.305,-0.105
1.310,-0.125
1.315,-0.143
1.320,-0.166
1.325,-0.188
1.330,-0.206
1.335,-0.224
1.340,-0.242
1.345,-0.259
1.350,-0.274
1.355,-0.283
1.360,-0.288
1.365,-0.285
1.370,-0.271
1.375,-0.261
1.380,-0.251
1.385,-0.226
1.390,-0.188
1.395,-0.141
1.400,-0.080
1.405,-0.008
1.410,0.061
1.415,0.128
1.420,0.193
1.425,0.245
1.430,0.285
1.435,0.315
1.440,0.334
1.445,0.349
1.450,0.357
1.455,0.359
1.460,0.353
1.465,0.342
1.470,0.331
1.475,0.318
1.480,0.306
1.485,0.298
1.490,0.287
1.495,0.271
1.500,0.258
1.505,0.244
1.510,0.229
1.515,0.218
1.520,0.204
1.525,0.189
1.530,0.181
1.535,0.172
1.540,0.161
1.545,0.150
1.550,0.137
1.555,0.126
1.560,0.118
1.565,0.108
1.570,0.100
1.575,0.094
1.580,0.087
1.585,0.078
1.590,0.067
1.595,0.056
1.600,0.046
1.605,0.038
1.610,0.033
1.615,0.030
1.620,0.028
1.625,0.023
1.630,0.017
1.635,0.010
1.640,0.004
1.645,0.004
1.650,0.001
1.655,-0.005
1.660,-0.009
1.665,-0.014
1.670,-0.017
1.675,-0.020
1.680,-0.026
1.685,-0.028
1.690,-0.030
1.695,-0.034
1.700,-0.036
1.705,-0.037
1.710,-0.039
1.715,-0.041
1.720,-0.045
1.725,-0.048
1.730,-0.050
1.735,-0.051
1.740,-0.054
1.745,-0.058
1.750,-0.058
1.755,-0.062
1.760,-0.065
1.765,-0.063
1.770,-0.063
1.775,-0.065
1.780,-0.065
1.785,-0.066
1.790,-0.068
1.795,-0.069
1.800,-0.070
1.805,-0.070
1.810,-0.071
1.815,-0.070
1.820,-0.073
1.825,-0.075
1.830,-0.072
1.835,-0.070
1.840,-0.068
1.845,-0.068
1.850,-0.071
1.855,-0.070
1.860,-0.069
1.865,-0.071
1.870,-0.069
1.875,-0.065
1.880,-0.063
1.885,-0.065
1.890,-0.068
1.895,-0.067
1.900,-0.066
1.905,-0.064
1.910,-0.063
1.915,-0.063
1.920,-0.061
1.925,-0.059
1.930,-0.057
1.935,-0.055
1.940,-0.053
1.945,-0.051
1.950,-0.053
1.955,-0.056
1.960,-0.056
1.965,-0.056
1.970,-0.054
1.975,-0.049
1.980,-0.047
1.985,-0.057
1.990,-0.070
1.995,-0.085
2.000,-0.103
2.005,-0.122
2.010,-0.138
2.015,-0.142
2.020,-0.137
2.025,-0.130
2.030,-0.115
2.035,-0.106
2.040,-0.107
2.045,-0.097
2.050,-0.070
2.055,-0.030
2.060,0.006
2.065,0.019
2.070,0.022
2.075,0.034
2.080,0.046
2.085,0.056
2.090,0.068
2.095,0.071
2.100,0.066
2.105,0.064
2.110,0.063
2.115,0.056
2.120,0.050
2.125,0.048
2.130,0.042
2.135,0.035
2.140,0.028
2.145,0.020
2.150,-0.014
2.155,-0.149
2.160,-0.454
2.165,-0.892
2.170,-1.298
2.175,-1.515
2.180,-1.366
2.185,-0.732
2.190,0.039
2.195,0.458
2.200,0.510
2.205,0.431
2.210,0.369
2.215,0.353
2.220,0.340
2.225,0.320
2.230,0.307
2.235,0.300
2.240,0.291
2.245,0.273
2.250,0.253
2.255,0.242
2.260,0.238
2.265,0.227
2.270,0.212
2.275,0.196
2.280,0.184
2.285,0.173
2.290,0.161
2.295,0.149
2.300,0.140
2.305,0.132
2.310,0.119
2.315,0.109
2.320,0.103
2.325,0.088
2.330,0.072
2.335,0.063
2.340,0.056
2.345,0.044
2.350,0.030
2.355,0.021
2.360,0.012
2.365,0.001
2.370,-0.010
2.375,-0.021
2.380,-0.032
2.385,-0.046
2.390,-0.064
2.395,-0.082
2.400,-0.103
2.405,-0.125
2.410,-0.143
2.415,-0.164
2.420,-0.187
2.425,-0.207
2.430,-0.224
2.435,-0.238
2.440,-0.248
2.445,-0.258
2.450,-0.271
2.455,-0.280
2.460,-0.279
2.465,-0.271
2.470,-0.257
2.475,-0.238
2.480,-0.217
2.485,-0.181
2.490,-0.130
2.495,-0.069
2.500,-0.002
2.505,0.065
2.510,0.127
2.515,0.184
2.520,0.236
2.525,0.278
2.530,0.310
2.535,0.330
2.540,0.338
2.545,0.343
2.550,0.343
2.555,0.340
2.560,0.333
2.565,0.322
2.570,0.313
2.575,0.302
2.580,0.288
2.585,0.272
2.590,0.259
2.595,0.244
2.600,0.232
2.605,0.223
2.610,0.211
2.615,0.196
2.620,0.187
2.625,0.179
2.630,0.168
2.635,0.156
2.640,0.145
2.645,0.137
2.650,0.127
2.655,0.116
2.660,0.107
2.665,0.099
2.670,0.091
2.675,0.085
2.680,0.079
2.685,0.068
2.690,0.056
2.695,0.048
2.700,0.044
2.705,0.041
2.710,0.039
2.715,0.035
2.720,0.026
2.725,0.018
2.730,0.012
2.735,0.005
2.740,-0.001
2.745,-0.004
2.750,-0.010
2.755,-0.015
2.760,-0.017
2.765,-0.022
2.770,-0.026
2.775,-0.027
2.780,-0.025
2.785,-0.027
2.790,-0.034
2.795,-0.039
2.800,-0.042
2.805,-0.044
2.810,-0.045
2.815,-0.048
2.820,-0.055
2.825,-0.053
2.830,-0.051
2.835,-0.059
2.840,-0.064
2.845,-0.066
2.850,-0.063
2.855,-0.055
2.860,-0.062
2.865,-0.072
2.870,-0.070
2.875,-0.066
2.880,-0.068
2.885,-0.069
2.890,-0.068
2.895,-0.068
2.900,-0.072
2.905,-0.074
2.910,-0.073
2.915,-0.072
2.920,-0.067
2.925,-0.060
2.930,-0.058
2.935,-0.061
2.940,-0.069
2.945,-0.078
2.950,-0.076
2.955,-0.071
2.960,-0.065
2.965,-0.062
2.970,-0.065
2.975,-0.065
2.980,-0.064
2.985,-0.068
2.990,-0.069
2.995,-0.064
3.000,-0.061
3.005,-0.062
3.010,-0.057
3.015,-0.055
3.020,-0.058
3.025,-0.060
3.030,-0.057
3.035,-0.054
3.040,-0.050
3.045,-0.046
3.050,-0.046
3.055,-0.050
3.060,-0.051
3.065,-0.048
3.070,-0.047
3.075,-0.045
3.080,-0.036
3.085,-0.035
3.090,-0.044
3.095,-0.048
3.100,-0.046
3.105,-0.041
3.110,-0.034
3.115,-0.036
3.120,-0.045
3.125,-0.058
3.130,-0.081
3.135,-0.108
3.140,-0.125
3.145,-0.129
3.150,-0.129
3.155,-0.128
3.160,-0.112
3.165,-0.101
3.170,-0.103
3.175,-0.096
3.180,-0.078
3.185,-0.047
3.190,-0.010
3.195,0.012
3.200,0.022
3.205,0.036
3.210,0.053
3.215,0.064
3.220,0.068
3.225,0.069
3.230,0.069
3.235,0.072
3.240,0.071
3.245,0.066
3.250,0.058
3.255,0.049
3.260,0.047
3.265,0.044
3.270,0.035
3.275,0.028
3.280,0.013
3.285,-0.077
3.290,-0.324
3.295,-0.730
3.300,-1.175
3.305,-1.483
3.310,-1.496
3.315,-1.017
3.320,-0.198
3.325,0.369
3.330,0.513
3.335,0.482
3.340,0.406
3.345,0.354
3.350,0.344
3.355,0.332
3.360,0.311
3.365,0.300
3.370,0.293
3.375,0.277
3.380,0.267
3.385,0.258
3.390,0.241
3.395,0.227
3.400,0.210
3.405,0.198
3.410,0.195
3.415,0.187
3.420,0.175
3.425,0.162
3.430,0.148
3.435,0.140
3.440,0.129
3.445,0.113
3.450,0.101
3.455,0.093
3.460,0.083
3.465,0.076
3.470,0.069
3.475,0.058
3.480,0.045
3.485,0.035
3.490,0.027
3.495,0.014
3.500,0.000
3.505,-0.010
3.510,-0.029
3.515,-0.053
3.520,-0.070
3.525,-0.083
3.530,-0.100
3.535,-0.119
3.540,-0.138
3.545,-0.161
3.550,-0.186
3.555,-0.209
3.560,-0.231
3.565,-0.248
3.570,-0.264
3.575,-0.280
3.580,-0.284
3.585,-0.282
3.590,-0.286
3.595,-0.283
3.600,-0.266
3.605,-0.248
3.610,-0.231
3.615,-0.206
3.620,-0.160
3.625,-0.097
3.630,-0.034
3.635,0.031
3.640,0.103
3.645,0.170
3.650,0.225
3.655,0.271
3.660,0.310
3.665,0.339
3.670,0.359
3.675,0.369
3.680,0.367
3.685,0.361
3.690,0.352
3.695,0.347
3.700,0.341
3.705,0.327
3.710,0.310
3.715,0.298
3.720,0.286
3.725,0.269
3.730,0.259
3.735,0.250
3.740,0.234
3.745,0.222
3.750,0.210
3.755,0.196
3.760,0.185
3.765,0.173
3.770,0.161
3.775,0.152
3.780,0.138
3.785,0.123
3.790,0.109
3.795,0.102
3.800,0.101
3.805,0.095
3.810,0.083
3.815,0.071
3.820,0.063
3.825,0.057
3.830,0.048
3.835,0.029
3.840,0.012
3.845,0.010
3.850,0.013
3.855,0.011
3.860,0.010
3.865,0.005
3.870,-0.002
3.875,-0.010
3.880,-0.014
3.885,-0.016
3.890,-0.024
3.895,-0.027
3.900,-0.024
3.905,-0.023
3.910,-0.030
3.915,-0.040
3.920,-0.045
3.925,-0.046
3.930,-0.049
3.935,-0.048
3.940,-0.047
3.945,-0.050
3.950,-0.055
3.955,-0.064
3.960,-0.066
3.965,-0.062
3.970,-0.064
3.975,-0.067
3.980,-0.067
3.985,-0.062
3.990,-0.064
3.995,-0.073
4.000,-0.073
4.005,-0.073
4.010,-0.074
4.015,-0.072
4.020,-0.072
4.025,-0.076
4.030,-0.081
4.035,-0.081
4.040,-0.079
4.045,-0.071
4.050,-0.067
4.055,-0.071
4.060,-0.076
4.065,-0.079
4.070,-0.074
4.075,-0.074
4.080,-0.077
4.085,-0.071
4.090,-0.072
4.095,-0.078
4.100,-0.073
4.105,-0.065
4.110,-0.060
4.115,-0.065
4.120,-0.076
4.125,-0.072
4.130,-0.065
4.135,-0.062
4.140,-0.060
4.145,-0.063
4.150,-0.067
4.155,-0.065
4.160,-0.059
4.165,-0.057
4.170,-0.059
4.175,-0.056
4.180,-0.056
4.185,-0.059
4.190,-0.061
4.195,-0.064
4.200,-0.070
4.205,-0.093
4.210,-0.126
4.215,-0.141
4.220,-0.136
4.225,-0.135
4.230,-0.140
4.235,-0.130
4.240,-0.120
4.245,-0.115
4.250,-0.108
4.255,-0.095
4.260,-0.063
4.265,-0.024
4.270,-0.010
4.275,-0.002
4.280,0.018
4.285,0.034
4.290,0.044
4.295,0.048
4.300,0.047
4.305,0.049
4.310,0.050
4.315,0.042
4.320,0.036
4.325,0.037
4.330,0.037
4.335,0.035
4.340,0.037
4.345,0.031
4.350,0.024
4.355,-0.004
4.360,-0.157
4.365,-0.511
4.370,-1.012
4.375,-1.476
4.380,-1.730
4.385,-1.559
4.390,-0.822
4.395,0.046
4.400,0.478
4.405,0.531
4.410,0.496
4.415,0.436
4.420,0.391
4.425,0.376
4.430,0.358
4.435,0.337
4.440,0.317
4.445,0.303
4.450,0.295
4.455,0.286
4.460,0.277
4.465,0.270
4.470,0.257
4.475,0.233
4.480,0.218
4.485,0.213
4.490,0.200
4.495,0.185
4.500,0.175
4.505,0.158
4.510,0.144
4.515,0.138
4.520,0.125
4.525,0.110
4.530,0.103
4.535,0.092
4.540,0.076
4.545,0.067
4.550,0.061
4.555,0.054
4.560,0.040
4.565,0.021
4.570,0.002
4.575,-0.012
4.580,-0.025
4.585,-0.042
4.590,-0.058
4.595,-0.075
4.600,-0.098
4.605,-0.121
4.610,-0.137
4.615,-0.156
4.620,-0.186
4.625,-0.214
4.630,-0.236
4.635,-0.256
4.640,-0.275
4.645,-0.288
4.650,-0.295
4.655,-0.302
4.660,-0.309
4.665,-0.309
4.670,-0.296
4.675,-0.274
4.680,-0.257
4.685,-0.237
4.690,-0.191
4.695,-0.125
4.700,-0.055
4.705,0.017
4.710,0.095
4.715,0.170
4.720,0.232
4.725,0.285
4.730,0.329
4.735,0.358
4.740,0.380
4.745,0.395
4.750,0.395
4.755,0.388
4.760,0.384
4.765,0.374
4.770,0.360
4.775,0.355
4.780,0.350
4.785,0.329
4.790,0.309
4.795,0.298
4.800,0.286
4.805,0.274
4.810,0.261
4.815,0.249
4.820,0.235
4.825,0.212
4.830,0.193
4.835,0.185
4.840,0.173
4.845,0.158
4.850,0.142
4.855,0.134
4.860,0.128
4.865,0.116
4.870,0.101
4.875,0.085
4.880,0.070
4.885,0.059
4.890,0.050
4.895,0.043
4.900,0.034
4.905,0.030
4.910,0.030
4.915,0.027
4.920,0.021
4.925,0.014
4.930,0.007
4.935,-0.002
4.940,-0.009
4.945,-0.009
4.950,-0.012
4.955,-0.021
4.960,-0.022
4.965,-0.020
4.970,-0.024
4.975,-0.029
4.980,-0.033
4.985,-0.038
4.990,-0.040
4.995,-0.047
5.000,-0.056
5.005,-0.054
5.010,-0.049
5.015,-0.051
5.020,-0.051
5.025,-0.053
5.030,-0.061
5.035,-0.064
5.040,-0.062
5.045,-0.068
5.050,-0.073
5.055,-0.067
5.060,-0.063
5.065,-0.066
5.070,-0.068
5.075,-0.071
5.080,-0.080
5.085,-0.081
5.090,-0.077
5.095,-0.078
5.100,-0.073
5.105,-0.067
5.110,-0.073
5.115,-0.077
5.120,-0.078
5.125,-0.081
5.130,-0.077
5.135,-0.070
5.140,-0.072
5.145,-0.076
5.150,-0.073
5.155,-0.069
5.160,-0.069
5.165,-0.070
5.170,-0.070
5.175,-0.076
5.180,-0.080
5.185,-0.077
5.190,-0.073
5.195,-0.069
5.200,-0.069
5.205,-0.068
5.210,-0.066
5.215,-0.064
5.220,-0.064
5.225,-0.066
5.230,-0.062
5.235,-0.061
5.240,-0.065
5.245,-0.061
5.250,-0.062
5.255,-0.078
5.260,-0.102
5.265,-0.129
5.270,-0.144
5.275,-0.138
5.280,-0.138
5.285,-0.144
5.290,-0.131
5.295,-0.120
5.300,-0.119
5.305,-0.113
5.310,-0.099
5.315,-0.071
5.320,-0.035
5.325,-0.016
5.330,-0.009
5.335,0.002
5.340,0.015
5.345,0.029
5.350,0.043
5.355,0.045
5.360,0.044
5.365,0.049
5.370,0.052
5.375,0.041
5.380,0.030
5.385,0.033
5.390,0.037
5.395,0.028
5.400,0.020
5.405,0.022
5.410,-0.003
5.415,-0.142
5.420,-0.474
5.425,-0.965
5.430,-1.435
5.435,-1.721
5.440,-1.620
5.445,-0.937
5.450,-0.039
5.455,0.460
5.460,0.542
5.465,0.498
5.470,0.430
5.475,0.389
5.480,0.376
5.485,0.353
5.490,0.333
5.495,0.327
5.500,0.320
5.505,0.303
5.510,0.288
5.515,0.274
5.520,0.262
5.525,0.253
5.530,0.240
5.535,0.224
5.540,0.211
5.545,0.197
5.550,0.183
5.555,0.167
5.560,0.152
5.565,0.143
5.570,0.138
5.575,0.130
5.580,0.119
5.585,0.108
5.590,0.092
5.595,0.076
5.600,0.064
5.605,0.056
5.610,0.053
5.615,0.047
5.620,0.033
5.625,0.011
5.630,-0.010
5.635,-0.021
5.640,-0.035
5.645,-0.051
5.650,-0.065
5.655,-0.085
5.660,-0.107
5.665,-0.127
5.670,-0.145
5.675,-0.163
5.680,-0.184
5.685,-0.210
5.690,-0.236
5.695,-0.257
5.700,-0.271
5.705,-0.286
5.710,-0.301
5.715,-0.305
5.720,-0.298
5.725,-0.287
5.730,-0.274
5.735,-0.250
5.740,-0.218
5.745,-0.177
5.750,-0.126
5.755,-0.068
5.760,-0.001
5.765,0.075
5.770,0.149
5.775,0.214
5.780,0.271
5.785,0.314
5.790,0.343
5.795,0.364
5.800,0.376
5.805,0.379
5.810,0.378
5.815,0.374
5.820,0.369
5.825,0.358
5.830,0.340
5.835,0.326
5.840,0.314
5.845,0.301
5.850,0.288
5.855,0.273
5.860,0.258
5.865,0.245
5.870,0.229
5.875,0.211
5.880,0.201
5.885,0.196
5.890,0.185
5.895,0.171
5.900,0.156
5.905,0.139
5.910,0.125
5.915,0.118
5.920,0.111
5.925,0.103
5.930,0.090
5.935,0.078
5.940,0.070
5.945,0.065
5.950,0.056
5.955,0.048
5.960,0.041
5.965,0.033
5.970,0.026
5.975,0.017
5.980,0.012
5.985,0.006
5.990,0.000
5.995,-0.002
6.000,-0.003
6.005,-0.007
6.010,-0.011
6.015,-0.014
6.020,-0.017
6.025,-0.021
6.030,-0.028
6.035,-0.032
6.040,-0.030
6.045,-0.033
6.050,-0.039
6.055,-0.044
6.060,-0.048
6.065,-0.049
6.070,-0.047
6.075,-0.049
6.080,-0.052
6.085,-0.055
6.090,-0.061
6.095,-0.065
6.100,-0.066
6.105,-0.065
6.110,-0.064
6.115,-0.066
6.120,-0.068
6.125,-0.070
6.130,-0.071
6.135,-0.072
6.140,-0.068
6.145,-0.069
6.150,-0.081
6.155,-0.083
6.160,-0.075
6.165,-0.072
6.170,-0.073
6.175,-0.074
6.180,-0.077
6.185,-0.077
6.190,-0.075
6.195,-0.074
6.200,-0.071
6.205,-0.070
6.210,-0.072
6.215,-0.072
6.220,-0.071
6.225,-0.073
6.230,-0.077
6.235,-0.077
6.240,-0.074
6.245,-0.071
6.250,-0.065
6.255,-0.058
6.260,-0.056
6.265,-0.062
6.270,-0.070
6.275,-0.070
6.280,-0.066
6.285,-0.062
6.290,-0.059
6.295,-0.057
6.300,-0.058
6.305,-0.060
6.310,-0.058
6.315,-0.059
6.320,-0.057
6.325,-0.053
6.330,-0.058
6.335,-0.072
6.340,-0.094
6.345,-0.121
6.350,-0.137
6.355,-0.137
6.360,-0.133
6.365,-0.134
6.370,-0.130
6.375,-0.118
6.380,-0.111
6.385,-0.104
6.390,-0.093
6.395,-0.062
6.400,-0.017
6.405,0.007
6.410,0.007
6.415,0.015
6.420,0.027
6.425,0.036
6.430,0.051
6.435,0.057
6.440,0.054
6.445,0.055
6.450,0.055
6.455,0.053
6.460,0.052
6.465,0.047
6.470,0.040
6.475,0.031
6.480,0.021
6.485,0.016
6.490,0.007
6.495,-0.084
6.500,-0.352
6.505,-0.795
6.510,-1.274
6.515,-1.604
6.520,-1.623
6.525,-1.120
6.530,-0.251
6.535,0.369
6.540,0.537
6.545,0.501
6.550,0.431
6.555,0.392
6.560,0.379
6.565,0.359
6.570,0.338
6.575,0.323
6.580,0.309
6.585,0.296
6.590,0.286
6.595,0.278
6.600,0.265
6.605,0.246
6.610,0.233
6.615,0.226
6.620,0.214
6.625,0.196
6.630,0.177
6.635,0.164
6.640,0.155
6.645,0.148
6.650,0.138
6.655,0.124
6.660,0.112
6.665,0.100
6.670,0.089
6.675,0.080
6.680,0.071
6.685,0.063
6.690,0.052
6.695,0.035
6.700,0.019
6.705,0.009
6.710,0.003
6.715,-0.006
6.720,-0.027
6.725,-0.050
6.730,-0.069
6.735,-0.086
6.740,-0.101
6.745,-0.119
6.750,-0.141
6.755,-0.162
6.760,-0.182
6.765,-0.205
6.770,-0.228
6.775,-0.246
6.780,-0.262
6.785,-0.273
6.790,-0.282
6.795,-0.289
6.800,-0.288
6.805,-0.286
6.810,-0.276
6.815,-0.253
6.820,-0.227
6.825,-0.196
6.830,-0.147
6.835,-0.086
6.840,-0.022
6.845,0.049
6.850,0.123
6.855,0.191
6.860,0.249
6.865,0.297
6.870,0.331
6.875,0.352
6.880,0.366
6.885,0.374
6.890,0.374
6.895,0.370
6.900,0.366
6.905,0.356
6.910,0.343
6.915,0.331
6.920,0.315
6.925,0.299
6.930,0.283
6.935,0.267
6.940,0.255
6.945,0.243
6.950,0.230
6.955,0.215
6.960,0.205
6.965,0.198
6.970,0.186
6.975,0.170
6.980,0.155
6.985,0.142
6.990,0.134
6.995,0.123
7.000,0.109
7.005,0.100
7.010,0.091
7.015,0.080
7.020,0.074
7.025,0.066
7.030,0.058
7.035,0.049
7.040,0.039
7.045,0.031
7.050,0.026
7.055,0.023
7.060,0.021
7.065,0.018
7.070,0.008
7.075,0.000
7.080,-0.003
7.085,-0.005
7.090,-0.006
7.095,-0.010
7.100,-0.022
7.105,-0.029
7.110,-0.031
7.115,-0.034
7.120,-0.038
7.125,-0.040
7.130,-0.037
7.135,-0.037
7.140,-0.044
7.145,-0.054
7.150,-0.061
7.155,-0.061
7.160,-0.058
7.165,-0.057
7.170,-0.063
7.175,-0.071
7.180,-0.072
7.185,-0.070
7.190,-0.069
7.195,-0.070
7.200,-0.068
7.205,-0.069
7.210,-0.077
7.215,-0.083
7.220,-0.084
7.225,-0.082
7.230,-0.077
7.235,-0.074
7.240,-0.073
7.245,-0.076
7.250,-0.076
7.255,-0.076
7.260,-0.079
7.265,-0.079
7.270,-0.077
7.275,-0.078
7.280,-0.079
7.285,-0.078
7.290,-0.076
7.295,-0.074
7.300,-0.073
7.305,-0.068
7.310,-0.064
7.315,-0.066
7.320,-0.070
7.325,-0.071
7.330,-0.069
7.335,-0.067
7.340,-0.065
7.345,-0.065
7.350,-0.067
7.355,-0.066
7.360,-0.062
7.365,-0.060
7.370,-0.058
7.375,-0.054
7.380,-0.055
7.385,-0.053
7.390,-0.049
7.395,-0.053
7.400,-0.055
7.405,-0.052
7.410,-0.050
7.415,-0.053
7.420,-0.058
7.425,-0.065
7.430,-0.086
7.435,-0.116
7.440,-0.134
7.445,-0.137
7.450,-0.136
7.455,-0.136
7.460,-0.119
7.465,-0.105
7.470,-0.110
7.475,-0.104
7.480,-0.080
7.485,-0.047
7.490,-0.009
7.495,0.013
7.500,0.017
7.505,0.023
7.510,0.035
7.515,0.049
7.520,0.064
7.525,0.068
7.530,0.065
7.535,0.065
7.540,0.063
7.545,0.057
7.550,0.049
7.555,0.045
7.560,0.048
7.565,0.039
7.570,0.028
7.575,0.029
7.580,0.011
7.585,-0.101
7.590,-0.379
7.595,-0.802
7.600,-1.248
7.605,-1.550
7.610,-1.530
7.615,-0.997
7.620,-0.162
7.625,0.395
7.630,0.531
7.635,0.483
7.640,0.404
7.645,0.366
7.650,0.353
7.655,0.338
7.660,0.327
7.665,0.315
7.670,0.302
7.675,0.290
7.680,0.275
7.685,0.258
7.690,0.247
7.695,0.238
7.700,0.226
7.705,0.212
7.710,0.199
7.715,0.185
7.720,0.169
7.725,0.160
7.730,0.156
7.735,0.144
7.740,0.128
7.745,0.113
7.750,0.102
7.755,0.094
7.760,0.085
7.765,0.076
7.770,0.070
7.775,0.059
7.780,0.046
7.785,0.033
7.790,0.022
7.795,0.013
7.800,0.000
7.805,-0.018
7.810,-0.036
7.815,-0.049
7.820,-0.062
7.825,-0.078
7.830,-0.094
7.835,-0.115
7.840,-0.140
7.845,-0.163
7.850,-0.184
7.855,-0.206
7.860,-0.224
7.865,-0.240
7.870,-0.254
7.875,-0.266
7.880,-0.278
7.885,-0.284
7.890,-0.283
7.895,-0.282
7.900,-0.275
7.905,-0.257
7.910,-0.229
7.915,-0.193
7.920,-0.148
7.925,-0.095
7.930,-0.030
7.935,0.047
7.940,0.120
7.945,0.180
7.950,0.231
7.955,0.274
7.960,0.310
7.965,0.334
7.970,0.347
7.975,0.355
7.980,0.359
7.985,0.355
7.990,0.346
7.995,0.333
8.000,0.320
8.005,0.309
8.010,0.300
8.015,0.289
8.020,0.274
8.025,0.260
8.030,0.246
8.035,0.230
8.040,0.216
8.045,0.209
8.050,0.199
8.055,0.187
8.060,0.174
8.065,0.162
8.070,0.151
8.075,0.143
8.080,0.134
8.085,0.120
8.090,0.108
8.095,0.098
8.100,0.090
8.105,0.084
8.110,0.077
8.115,0.069
8.120,0.061
8.125,0.051
8.130,0.043
8.135,0.036
8.140,0.031
8.145,0.026
8.150,0.022
8.155,0.017
8.160,0.010
8.165,0.004
8.170,-0.002
8.175,-0.009
8.180,-0.014
8.185,-0.014
8.190,-0.015
8.195,-0.020
8.200,-0.025
8.205,-0.028
8.210,-0.031
8.215,-0.033
8.220,-0.037
8.225,-0.040
8.230,-0.041
8.235,-0.045
8.240,-0.049
8.245,-0.050
8.250,-0.052
8.255,-0.059
8.260,-0.059
8.265,-0.056
8.270,-0.057
8.275,-0.061
8.280,-0.067
8.285,-0.070
8.290,-0.069
8.295,-0.068
8.300,-0.067
8.305,-0.066
8.310,-0.068
8.315,-0.072
8.320,-0.074
8.325,-0.074
8.330,-0.071
8.335,-0.068
8.340,-0.069
8.345,-0.073
8.350,-0.075
8.355,-0.077
8.360,-0.078
8.365,-0.076
8.370,-0.074
8.375,-0.071
8.380,-0.069
8.385,-0.072
8.390,-0.075
8.395,-0.073
8.400,-0.071
8.405,-0.070
8.410,-0.068
8.415,-0.066
8.420,-0.070
8.425,-0.071
8.430,-0.067
8.435,-0.066
8.440,-0.063
8.445,-0.060
8.450,-0.060
8.455,-0.061
8.460,-0.058
8.465,-0.054
8.470,-0.054
8.475,-0.053
8.480,-0.052
8.485,-0.054
8.490,-0.055
8.495,-0.052
8.500,-0.046
8.505,-0.044
8.510,-0.051
8.515,-0.064
8.520,-0.079
8.525,-0.101
8.530,-0.125
8.535,-0.138
8.540,-0.135
8.545,-0.131
8.550,-0.129
8.555,-0.116
8.560,-0.105
8.565,-0.107
8.570,-0.099
8.575,-0.069
8.580,-0.029
8.585,0.004
8.590,0.019
8.595,0.021
8.600,0.029
8.605,0.040
8.610,0.054
8.615,0.070
8.620,0.070
8.625,0.059
8.630,0.059
8.635,0.065
8.640,0.064
8.645,0.054
8.650,0.048
8.655,0.048
8.660,0.042
8.665,0.029
8.670,0.017
8.675,-0.013
8.680,-0.147
8.685,-0.458
8.690,-0.894
8.695,-1.293
8.700,-1.509
8.705,-1.358
8.710,-0.722
8.715,0.036
8.720,0.448
8.725,0.508
8.730,0.432
8.735,0.368
8.740,0.354
8.745,0.347
8.750,0.328
8.755,0.307
8.760,0.290
8.765,0.278
8.770,0.268
8.775,0.261
8.780,0.252
8.785,0.237
8.790,0.219
8.795,0.206
8.800,0.197
8.805,0.183
8.810,0.170
8.815,0.162
8.820,0.152
8.825,0.144
8.830,0.135
8.835,0.120
8.840,0.106
8.845,0.097
8.850,0.091
8.855,0.081
8.860,0.070
8.865,0.063
8.870,0.050
8.875,0.031
8.880,0.019
8.885,0.010
8.890,-0.001
8.895,-0.009
8.900,-0.019
8.905,-0.037
8.910,-0.053
8.915,-0.068
8.920,-0.080
8.925,-0.096
8.930,-0.119
8.935,-0.140
8.940,-0.160
8.945,-0.183
8.950,-0.202
8.955,-0.223
8.960,-0.242
8.965,-0.259
8.970,-0.277
8.975,-0.283
8.980,-0.279
8.985,-0.281
8.990,-0.282
8.995,-0.275
9.000,-0.255
9.005,-0.221
9.010,-0.185
9.015,-0.140
9.020,-0.081
9.025,-0.019
9.030,0.048
9.035,0.118
9.040,0.187
9.045,0.243
9.050,0.282
9.055,0.314
9.060,0.335
9.065,0.351
9.070,0.361
9.075,0.357
9.080,0.343
9.085,0.333
9.090,0.328
9.095,0.320
9.100,0.314
9.105,0.301
9.110,0.281
9.115,0.265
9.120,0.254
9.125,0.240
9.130,0.232
9.135,0.221
9.140,0.207
9.145,0.198
9.150,0.187
9.155,0.172
9.160,0.160
9.165,0.148
9.170,0.137
9.175,0.130
9.180,0.123
9.185,0.117
9.190,0.107
9.195,0.102
9.200,0.098
9.205,0.086
9.210,0.074
9.215,0.065
9.220,0.055
9.225,0.046
9.230,0.036
9.235,0.029
9.240,0.030
9.245,0.025
9.250,0.013
9.255,0.011
9.260,0.011
9.265,0.007
9.270,0.000
9.275,-0.006
9.280,-0.011
9.285,-0.017
9.290,-0.022
9.295,-0.024
9.300,-0.022
9.305,-0.027
9.310,-0.034
9.315,-0.033
9.320,-0.032
9.325,-0.042
9.330,-0.047
9.335,-0.045
9.340,-0.043
9.345,-0.047
9.350,-0.053
9.355,-0.056
9.360,-0.063
9.365,-0.069
9.370,-0.066
9.375,-0.065
9.380,-0.066
9.385,-0.065
9.390,-0.066
9.395,-0.067
9.400,-0.067
9.405,-0.067
9.410,-0.068
9.415,-0.066
9.420,-0.066
9.425,-0.068
9.430,-0.076
9.435,-0.086
9.440,-0.087
9.445,-0.079
9.450,-0.075
9.455,-0.075
9.460,-0.072
9.465,-0.066
9.470,-0.062
9.475,-0.064
9.480,-0.071
9.485,-0.072
9.490,-0.073
9.495,-0.076
9.500,-0.071
9.505,-0.066
9.510,-0.067
9.515,-0.068
9.520,-0.068
9.525,-0.064
9.530,-0.061
9.535,-0.061
9.540,-0.061
9.545,-0.061
9.550,-0.062
9.555,-0.060
9.560,-0.053
9.565,-0.052
9.570,-0.056
9.575,-0.060
9.580,-0.063
9.585,-0.057
9.590,-0.049
9.595,-0.045
9.600,-0.048
9.605,-0.063
9.610,-0.084
9.615,-0.105
9.620,-0.127
9.625,-0.137
9.630,-0.128
9.635,-0.122
9.640,-0.122
9.645,-0.120
9.650,-0.114
9.655,-0.104
9.660,-0.096
9.665,-0.071
9.670,-0.022
9.675,0.002
9.680,0.000
9.685,0.009
9.690,0.027
9.695,0.041
9.700,0.061
9.705,0.072
9.710,0.066
9.715,0.056
9.720,0.054
9.725,0.055
9.730,0.052
9.735,0.044
9.740,0.037
9.745,0.035
9.750,0.035
9.755,0.035
9.760,0.034
9.765,-0.025
9.770,-0.233
9.775,-0.626
9.780,-1.114
9.785,-1.505
9.790,-1.643
9.795,-1.301
9.800,-0.470
9.805,0.256
9.810,0.500
9.815,0.501
9.820,0.451
9.825,0.387
9.830,0.362
9.835,0.354
9.840,0.336
9.845,0.319
9.850,0.305
9.855,0.295
9.860,0.283
9.865,0.268
9.870,0.251
9.875,0.233
9.880,0.223
9.885,0.215
9.890,0.201
9.895,0.189
9.900,0.179
9.905,0.165
9.910,0.149
9.915,0.136
9.920,0.127
9.925,0.119
9.930,0.108
9.935,0.098
9.940,0.093
9.945,0.086
9.950,0.074
9.955,0.061
9.960,0.046
9.965,0.035
9.970,0.026
9.975,0.012
9.980,-0.003
9.985,-0.017
9.990,-0.030
9.995,-0.045
10.000,-0.061
10.005,-0.078
10.010,-0.097
10.015,-0.119
10.020,-0.136
10.025,-0.153
10.030,-0.181
10.035,-0.209
10.040,-0.229
10.045,-0.243
10.050,-0.258
10.055,-0.274
10.060,-0.289
10.065,-0.297
10.070,-0.293
10.075,-0.287
10.080,-0.282
10.085,-0.271
10.090,-0.249
10.095,-0.214
10.100,-0.166
10.105,-0.106
10.110,-0.040
10.115,0.024
10.120,0.089
10.125,0.160
10.130,0.230
10.135,0.286
10.140,0.323
10.145,0.343
10.150,0.358
10.155,0.370
10.160,0.371
10.165,0.361
10.170,0.353
10.175,0.347
10.180,0.338
10.185,0.325
10.190,0.309
10.195,0.297
10.200,0.289
10.205,0.276
10.210,0.263
10.215,0.249
10.220,0.232
10.225,0.220
10.230,0.215
10.235,0.205
10.240,0.189
10.245,0.172
10.250,0.157
10.255,0.144
10.260,0.133
10.265,0.121
10.270,0.110
10.275,0.101
10.280,0.089
10.285,0.080
10.290,0.073
10.295,0.062
10.300,0.056
10.305,0.049
10.310,0.042
10.315,0.042
10.320,0.037
10.325,0.025
10.330,0.018
10.335,0.018
10.340,0.011
10.345,0.002
10.350,-0.003
10.355,-0.006
10.360,-0.003
10.365,0.000
10.370,-0.010
10.375,-0.024
10.380,-0.028
10.385,-0.027
10.390,-0.030
10.395,-0.034
10.400,-0.038
10.405,-0.046
10.410,-0.048
10.415,-0.047
10.420,-0.050
10.425,-0.054
10.430,-0.059
10.435,-0.056
10.440,-0.052
10.445,-0.059
10.450,-0.065
10.455,-0.065
10.460,-0.070
10.465,-0.074
10.470,-0.072
10.475,-0.071
10.480,-0.072
10.485,-0.072
10.490,-0.072
10.495,-0.069
10.500,-0.066
10.505,-0.071
10.510,-0.076
10.515,-0.074
10.520,-0.076
10.525,-0.082
10.530,-0.081
10.535,-0.078
10.540,-0.076
10.545,-0.072
10.550,-0.069
10.555,-0.068
10.560,-0.072
10.565,-0.072
10.570,-0.071
10.575,-0.073
10.580,-0.070
10.585,-0.072
10.590,-0.078
10.595,-0.076
10.600,-0.072
10.605,-0.069
10.610,-0.065
10.615,-0.065
10.620,-0.065
10.625,-0.062
10.630,-0.063
10.635,-0.058
10.640,-0.050
10.645,-0.048
10.650,-0.054
10.655,-0.059
10.660,-0.058
10.665,-0.058
10.670,-0.061
10.675,-0.065
10.680,-0.073
10.685,-0.096
10.690,-0.126
10.695,-0.141
10.700,-0.138
10.705,-0.133
10.710,-0.135
10.715,-0.129
10.720,-0.117
10.725,-0.112
10.730,-0.103
10.735,-0.082
10.740,-0.049
10.745,-0.011
10.750,0.005
10.755,0.007
10.760,0.019
10.765,0.028
10.770,0.041
10.775,0.060
10.780,0.065
10.785,0.060
10.790,0.057
10.795,0.058
10.800,0.056
10.805,0.047
10.810,0.041
10.815,0.042
10.820,0.038
10.825,0.025
10.830,0.020
10.835,-0.006
10.840,-0.145
10.845,-0.467
10.850,-0.932
10.855,-1.371
10.860,-1.625
10.865,-1.502
10.870,-0.842
10.875,0.000
10.880,0.462
10.885,0.530
10.890,0.476
10.895,0.412
10.900,0.380
10.905,0.363
10.910,0.342
10.915,0.328
10.920,0.317
10.925,0.303
10.930,0.291
10.935,0.281
10.940,0.268
10.945,0.254
10.950,0.242
10.955,0.228
10.960,0.214
10.965,0.202
10.970,0.189
10.975,0.177
10.980,0.166
10.985,0.155
10.990,0.141
10.995,0.129
11.000,0.120
11.005,0.106
11.010,0.091
11.015,0.084
11.020,0.078
11.025,0.066
11.030,0.053
11.035,0.044
11.040,0.035
11.045,0.021
11.050,0.008
11.055,0.000
11.060,-0.015
11.065,-0.035
11.070,-0.050
11.075,-0.065
11.080,-0.084
11.085,-0.101
11.090,-0.117
11.095,-0.140
11.100,-0.165
11.105,-0.190
11.110,-0.214
11.115,-0.233
11.120,-0.250
11.125,-0.268
11.130,-0.278
11.135,-0.284
11.140,-0.292
11.145,-0.295
11.150,-0.287
11.155,-0.276
11.160,-0.261
11.165,-0.228
11.170,-0.184
11.175,-0.137
11.180,-0.081
11.185,-0.011
11.190,0.064
11.195,0.132
11.200,0.194
11.205,0.251
11.210,0.292
11.215,0.322
11.220,0.344
11.225,0.360
11.230,0.369
11.235,0.372
11.240,0.369
11.245,0.360
11.250,0.342
11.255,0.325
11.260,0.314
11.265,0.305
11.270,0.295
11.275,0.282
11.280,0.267
11.285,0.251
11.290,0.236
11.295,0.226
11.300,0.221
11.305,0.210
11.310,0.193
11.315,0.177
11.320,0.164
11.325,0.153
11.330,0.143
11.335,0.134
11.340,0.125
11.345,0.117
11.350,0.106
11.355,0.092
11.360,0.079
11.365,0.069
11.370,0.063
11.375,0.056
11.380,0.046
11.385,0.036
11.390,0.029
11.395,0.026
11.400,0.024
11.405,0.021
11.410,0.014
11.415,0.003
11.420,-0.006
11.425,-0.008
11.430,-0.008
11.435,-0.010
11.440,-0.017
11.445,-0.023
11.450,-0.026
11.455,-0.026
11.460,-0.029
11.465,-0.032
11.470,-0.035
11.475,-0.039
11.480,-0.042
11.485,-0.047
11.490,-0.053
11.495,-0.054
11.500,-0.057
11.505,-0.060
11.510,-0.061
11.515,-0.062
11.520,-0.060
11.525,-0.060
11.530,-0.067
11.535,-0.070
11.540,-0.069
11.545,-0.069
11.550,-0.065
11.555,-0.063
11.560,-0.071
11.565,-0.076
11.570,-0.075
11.575,-0.072
11.580,-0.073
11.585,-0.077
11.590,-0.075
11.595,-0.072
11.600,-0.074
11.605,-0.083
11.610,-0.087
11.615,-0.082
11.620,-0.076
11.625,-0.072
11.630,-0.072
11.635,-0.076
11.640,-0.078
11.645,-0.074
11.650,-0.073
11.655,-0.071
11.660,-0.066
11.665,-0.066
11.670,-0.072
11.675,-0.071
11.680,-0.065
11.685,-0.061
11.690,-0.058
11.695,-0.057
11.700,-0.057
11.705,-0.057
11.710,-0.057
11.715,-0.055
11.720,-0.054
11.725,-0.054
11.730,-0.053
11.735,-0.053
11.740,-0.055
11.745,-0.055
11.750,-0.051
11.755,-0.044
11.760,-0.042
11.765,-0.049
11.770,-0.059
11.775,-0.068
11.780,-0.079
11.785,-0.095
11.790,-0.115
11.795,-0.132
11.800,-0.133
11.805,-0.135
11.810,-0.137
11.815,-0.121
11.820,-0.105
11.825,-0.101
11.830,-0.090
11.835,-0.070
11.840,-0.039
11.845,-0.002
11.850,0.018
11.855,0.020
11.860,0.028
11.865,0.038
11.870,0.047
11.875,0.061
11.880,0.066
11.885,0.060
11.890,0.059
11.895,0.062
11.900,0.059
11.905,0.049
11.910,0.044
11.915,0.041
11.920,0.035
11.925,0.026
11.930,0.021
11.935,-0.007
11.940,-0.144
11.945,-0.456
11.950,-0.900
11.955,-1.320
11.960,-1.550
11.965,-1.410
11.970,-0.778
11.975,0.005
11.980,0.441
11.985,0.509
11.990,0.446
11.995,0.385
12.000,0.363
12.005,0.351
12.010,0.335
12.015,0.323
12.020,0.311
12.025,0.301
12.030,0.288
12.035,0.271
12.040,0.253
12.045,0.238
12.050,0.223
12.055,0.212
12.060,0.199
12.065,0.190
12.070,0.181
12.075,0.168
12.080,0.158
12.085,0.147
12.090,0.137
12.095,0.126
12.100,0.111
12.105,0.102
12.110,0.095
12.115,0.082
12.120,0.073
12.125,0.065
12.130,0.055
12.135,0.047
12.140,0.035
12.145,0.022
12.150,0.009
12.155,-0.008
12.160,-0.023
12.165,-0.038
12.170,-0.053
12.175,-0.064
12.180,-0.081
12.185,-0.104
12.190,-0.125
12.195,-0.145
12.200,-0.168
12.205,-0.192
12.210,-0.210
12.215,-0.226
12.220,-0.245
12.225,-0.263
12.230,-0.273
12.235,-0.280
12.240,-0.284
12.245,-0.283
12.250,-0.279
12.255,-0.269
12.260,-0.249
12.265,-0.223
12.270,-0.189
12.275,-0.144
12.280,-0.087
12.285,-0.020
12.290,0.053
12.295,0.122
12.300,0.180
12.305,0.231
12.310,0.274
12.315,0.309
12.320,0.334
12.325,0.348
12.330,0.355
12.335,0.356
12.340,0.354
12.345,0.349
12.350,0.340
12.355,0.326
12.360,0.308
12.365,0.293
12.370,0.283
12.375,0.268
12.380,0.255
12.385,0.244
12.390,0.229
12.395,0.219
12.400,0.211
12.405,0.199
12.410,0.188
12.415,0.173
12.420,0.157
12.425,0.147
12.430,0.142
12.435,0.134
12.440,0.123
12.445,0.114
12.450,0.107
12.455,0.101
12.460,0.091
12.465,0.077
12.470,0.067
12.475,0.061
12.480,0.054
12.485,0.049
12.490,0.043
12.495,0.034
12.500,0.028
12.505,0.024
12.510,0.017
12.515,0.008
12.520,0.005
12.525,0.003
12.530,-0.002
12.535,-0.006
12.540,-0.008
12.545,-0.009
12.550,-0.011
12.555,-0.013
12.560,-0.018
12.565,-0.030
12.570,-0.037
12.575,-0.038
12.580,-0.042
12.585,-0.043
12.590,-0.041
12.595,-0.042
12.600,-0.046
12.605,-0.053
12.610,-0.060
12.615,-0.061
12.620,-0.061
12.625,-0.060
12.630,-0.059
12.635,-0.060
12.640,-0.062
12.645,-0.062
12.650,-0.064
12.655,-0.068
12.660,-0.072
12.665,-0.072
12.670,-0.069
12.675,-0.066
12.680,-0.065
12.685,-0.069
12.690,-0.076
12.695,-0.077
12.700,-0.074
12.705,-0.071
12.710,-0.069
12.715,-0.069
12.720,-0.070
12.725,-0.073
12.730,-0.069
12.735,-0.062
12.740,-0.063
12.745,-0.066
12.750,-0.069
12.755,-0.072
12.760,-0.068
12.765,-0.064
12.770,-0.063
12.775,-0.064
12.780,-0.065
12.785,-0.062
12.790,-0.062
12.795,-0.064
12.800,-0.062
12.805,-0.058
12.810,-0.057
12.815,-0.057
12.820,-0.056
12.825,-0.058
12.830,-0.057
12.835,-0.055
12.840,-0.053
12.845,-0.050
12.850,-0.050
12.855,-0.050
12.860,-0.050
12.865,-0.050
12.870,-0.047
12.875,-0.043
12.880,-0.042
12.885,-0.042
12.890,-0.043
12.895,-0.040
12.900,-0.042
12.905,-0.056
12.910,-0.068
12.915,-0.080
12.920,-0.104
12.925,-0.126
12.930,-0.133
12.935,-0.131
12.940,-0.127
12.945,-0.116
12.950,-0.104
12.955,-0.103
12.960,-0.097
12.965,-0.082
12.970,-0.055
12.975,-0.012
12.980,0.018
12.985,0.029
12.990,0.034
12.995,0.039
13.000,0.050
13.005,0.061
13.010,0.070
13.015,0.072
13.020,0.067
13.025,0.068
13.030,0.072
13.035,0.066
13.040,0.054
13.045,0.048
13.050,0.046
13.055,0.037
13.060,0.022
13.065,0.010
13.070,-0.042
13.075,-0.224
13.080,-0.574
13.085,-1.012
13.090,-1.356
13.095,-1.466
13.100,-1.162
13.105,-0.438
13.110,0.222
13.115,0.493
13.120,0.483
13.125,0.392
13.130,0.352
13.135,0.346
13.140,0.328
13.145,0.311
13.150,0.302
13.155,0.287
13.160,0.271
13.165,0.263
13.170,0.254
13.175,0.239
13.180,0.224
13.185,0.213
13.190,0.204
13.195,0.194
13.200,0.180
13.205,0.166
13.210,0.157
13.215,0.151
13.220,0.140
13.225,0.123
13.230,0.110
13.235,0.099
13.240,0.090
13.245,0.084
13.250,0.075
13.255,0.065
13.260,0.059
13.265,0.052
13.270,0.040
13.275,0.028
13.280,0.021
13.285,0.009
13.290,-0.011
13.295,-0.030
13.300,-0.045
13.305,-0.054
13.310,-0.065
13.315,-0.083
13.320,-0.099
13.325,-0.118
13.330,-0.143
13.335,-0.167
13.340,-0.186
13.345,-0.207
13.350,-0.227
13.355,-0.239
13.360,-0.253
13.365,-0.267
13.370,-0.277
13.375,-0.278
13.380,-0.271
13.385,-0.262
13.390,-0.251
13.395,-0.235
13.400,-0.212
13.405,-0.176
13.410,-0.129
13.415,-0.072
13.420,-0.004
13.425,0.071
13.430,0.139
13.435,0.191
13.440,0.237
13.445,0.282
13.450,0.311
13.455,0.325
13.460,0.335
13.465,0.342
13.470,0.345
13.475,0.342
13.480,0.333
13.485,0.321
13.490,0.312
13.495,0.302
13.500,0.289
13.505,0.278
13.510,0.268
13.515,0.253
13.520,0.241
13.525,0.231
13.530,0.216
13.535,0.202
13.540,0.194
13.545,0.187
13.550,0.175
13.555,0.161
13.560,0.150
13.565,0.139
13.570,0.129
13.575,0.120
13.580,0.107
13.585,0.097
13.590,0.090
13.595,0.079
13.600,0.073
13.605,0.069
13.610,0.059
13.615,0.050
13.620,0.042
13.625,0.038
13.630,0.033
13.635,0.028
13.640,0.022
13.645,0.014
13.650,0.011
13.655,0.007
13.660,0.006
13.665,0.004
13.670,-0.008
13.675,-0.021
13.680,-0.025
13.685,-0.023
13.690,-0.023
13.695,-0.028
13.700,-0.035
13.705,-0.039
13.710,-0.034
13.715,-0.030
13.720,-0.037
13.725,-0.043
13.730,-0.048
13.735,-0.051
13.740,-0.052
13.745,-0.053
13.750,-0.054
13.755,-0.057
13.760,-0.063
13.765,-0.068
13.770,-0.068
13.775,-0.063
13.780,-0.063
13.785,-0.068
13.790,-0.071
13.795,-0.075
13.800,-0.076
13.805,-0.074
13.810,-0.072
13.815,-0.071
13.820,-0.067
13.825,-0.069
13.830,-0.073
13.835,-0.074
13.840,-0.074
13.845,-0.071
13.850,-0.071
13.855,-0.074
13.860,-0.075
13.865,-0.075
13.870,-0.076
13.875,-0.069
13.880,-0.063
13.885,-0.066
13.890,-0.070
13.895,-0.070
13.900,-0.065
13.905,-0.062
13.910,-0.059
13.915,-0.056
13.920,-0.064
13.925,-0.072
13.930,-0.070
13.935,-0.066
13.940,-0.066
13.945,-0.067
13.950,-0.063
13.955,-0.053
13.960,-0.049
13.965,-0.050
13.970,-0.054
13.975,-0.060
13.980,-0.059
13.985,-0.059
13.990,-0.061
13.995,-0.058
14.000,-0.054
14.005,-0.050
14.010,-0.045
14.015,-0.042
14.020,-0.041
14.025,-0.040
14.030,-0.044
14.035,-0.057
14.040,-0.077
14.045,-0.102
14.050,-0.129
14.055,-0.136
14.060,-0.129
14.065,-0.130
14.070,-0.124
14.075,-0.108
14.080,-0.102
14.085,-0.097
14.090,-0.086
14.095,-0.053
14.100,-0.010
14.105,0.010
14.110,0.018
14.115,0.036
14.120,0.051
14.125,0.059
14.130,0.067
14.135,0.068
14.140,0.063
14.145,0.065
14.150,0.067
14.155,0.064
14.160,0.060
14.165,0.057
14.170,0.056
14.175,0.052
14.180,0.041
14.185,0.029
14.190,0.022
14.195,-0.047
14.200,-0.272
14.205,-0.666
14.210,-1.128
14.215,-1.477
14.220,-1.553
14.225,-1.154
14.230,-0.334
14.235,0.314
14.240,0.503
14.245,0.494
14.250,0.439
14.255,0.385
14.260,0.366
14.265,0.344
14.270,0.320
14.275,0.313
14.280,0.304
14.285,0.289
14.290,0.275
14.295,0.263
14.300,0.249
14.305,0.232
14.310,0.218
14.315,0.203
14.320,0.188
14.325,0.179
14.330,0.171
14.335,0.161
14.340,0.148
14.345,0.138
14.350,0.134
14.355,0.123
14.360,0.108
14.365,0.095
14.370,0.085
14.375,0.072
14.380,0.064
14.385,0.056
14.390,0.044
14.395,0.034
14.400,0.022
14.405,0.006
14.410,-0.005
14.415,-0.017
14.420,-0.032
14.425,-0.042
14.430,-0.056
14.435,-0.074
14.440,-0.092
14.445,-0.115
14.450,-0.140
14.455,-0.160
14.460,-0.180
14.465,-0.200
14.470,-0.219
14.475,-0.239
14.480,-0.257
14.485,-0.265
14.490,-0.273
14.495,-0.287
14.500,-0.293
14.505,-0.288
14.510,-0.284
14.515,-0.272
14.520,-0.247
14.525,-0.212
14.530,-0.168
14.535,-0.115
14.540,-0.050
14.545,0.022
14.550,0.090
14.555,0.150
14.560,0.211
14.565,0.269
14.570,0.313
14.575,0.343
14.580,0.364
14.585,0.373
14.590,0.373
14.595,0.366
14.600,0.354
14.605,0.343
14.610,0.337
14.615,0.330
14.620,0.320
14.625,0.305
14.630,0.287
14.635,0.275
14.640,0.269
14.645,0.262
14.650,0.247
14.655,0.225
14.660,0.206
14.665,0.192
14.670,0.182
14.675,0.172
14.680,0.159
14.685,0.146
14.690,0.132
14.695,0.121
14.700,0.117
14.705,0.111
14.710,0.099
14.715,0.085
14.720,0.072
14.725,0.062
14.730,0.057
14.735,0.055
14.740,0.048
14.745,0.037
14.750,0.028
14.755,0.024
14.760,0.017
14.765,0.011
14.770,0.011
14.775,0.006
14.780,0.002
14.785,-0.001
14.790,-0.009
14.795,-0.018
14.800,-0.020
14.805,-0.019
14.810,-0.021
14.815,-0.025
14.820,-0.027
14.825,-0.033
14.830,-0.038
14.835,-0.041
14.840,-0.041
14.845,-0.043
14.850,-0.046
14.855,-0.049
14.860,-0.055
14.865,-0.057
14.870,-0.058
14.875,-0.062
14.880,-0.064
14.885,-0.065
14.890,-0.065
14.895,-0.064
14.900,-0.066
14.905,-0.067
14.910,-0.072
14.915,-0.075
14.920,-0.071
14.925,-0.072
14.930,-0.075
14.935,-0.075
14.940,-0.074
14.945,-0.074
14.950,-0.073
14.955,-0.073
14.960,-0.072
14.965,-0.073
14.970,-0.075
14.975,-0.074
14.980,-0.072
14.985,-0.074
14.990,-0.076
14.995,-0.075
15.000,-0.073
15.005,-0.071
15.010,-0.072
15.015,-0.072
15.020,-0.070
15.025,-0.071
15.030,-0.073
15.035,-0.072
15.040,-0.070
15.045,-0.071
15.050,-0.068
15.055,-0.063
15.060,-0.058
15.065,-0.058
15.070,-0.064
15.075,-0.068
15.080,-0.065
15.085,-0.061
15.090,-0.059
15.095,-0.060
15.100,-0.058
15.105,-0.052
15.110,-0.050
15.115,-0.055
15.120,-0.059
15.125,-0.072
15.130,-0.099
15.135,-0.127
15.140,-0.139
15.145,-0.136
15.150,-0.133
15.155,-0.132
15.160,-0.121
15.165,-0.116
15.170,-0.116
15.175,-0.104
15.180,-0.081
15.185,-0.044
15.190,-0.008
15.195,0.001
15.200,0.005
15.205,0.020
15.210,0.033
15.215,0.045
15.220,0.055
15.225,0.053
15.230,0.054
15.235,0.060
15.240,0.063
15.245,0.058
15.250,0.047
15.255,0.037
15.260,0.033
15.265,0.029
15.270,0.021
15.275,0.019
15.280,-0.016
15.285,-0.171
15.290,-0.506
15.295,-0.974
15.300,-1.388
15.305,-1.596
15.310,-1.416
15.315,-0.719
15.320,0.081
15.325,0.472
15.330,0.511
15.335,0.455
15.340,0.399
15.345,0.376
15.350,0.361
15.355,0.338
15.360,0.324
15.365,0.314
15.370,0.301
15.375,0.285
15.380,0.271
15.385,0.260
15.390,0.246
15.395,0.229
15.400,0.213
15.405,0.205
15.410,0.196
15.415,0.183
15.420,0.173
15.425,0.165
15.430,0.155
15.435,0.138
15.440,0.122
15.445,0.118
15.450,0.109
15.455,0.096
15.460,0.088
15.465,0.074
15.470,0.064
15.475,0.058
15.480,0.048
15.485,0.037
15.490,0.022
15.495,0.007
15.500,-0.004
15.505,-0.018
15.510,-0.035
15.515,-0.050
15.520,-0.067
15.525,-0.085
15.530,-0.102
15.535,-0.123
15.540,-0.141
15.545,-0.161
15.550,-0.186
15.555,-0.210
15.560,-0.229
15.565,-0.247
15.570,-0.264
15.575,-0.279
15.580,-0.284
15.585,-0.284
15.590,-0.284
15.595,-0.278
15.600,-0.268
15.605,-0.255
15.610,-0.231
15.615,-0.193
15.620,-0.141
15.625,-0.078
15.630,-0.007
15.635,0.064
15.640,0.136
15.645,0.196
15.650,0.246
15.655,0.291
15.660,0.325
15.665,0.343
15.670,0.353
15.675,0.364
15.680,0.367
15.685,0.365
15.690,0.359
15.695,0.346
15.700,0.331
15.705,0.319
15.710,0.308
15.715,0.296
15.720,0.281
15.725,0.264
15.730,0.249
15.735,0.237
15.740,0.224
15.745,0.211
15.750,0.203
15.755,0.195
15.760,0.181
15.765,0.170
15.770,0.157
15.775,0.137
15.780,0.124
15.785,0.118
15.790,0.112
15.795,0.103
15.800,0.091
15.805,0.079
15.810,0.068
15.815,0.061
15.820,0.054
15.825,0.047
15.830,0.042
15.835,0.036
15.840,0.031
15.845,0.025
15.850,0.018
15.855,0.013
15.860,0.008
15.865,0.001
15.870,-0.006
15.875,-0.014
15.880,-0.017
15.885,-0.014
15.890,-0.010
15.895,-0.015
15.900,-0.025
15.905,-0.034
15.910,-0.040
15.915,-0.039
15.920,-0.037
15.925,-0.040
15.930,-0.046
15.935,-0.048
15.940,-0.045
15.945,-0.048
15.950,-0.053
15.955,-0.059
15.960,-0.062
15.965,-0.062
15.970,-0.064
15.975,-0.065
15.980,-0.062
15.985,-0.060
15.990,-0.063
15.995,-0.068
16.000,-0.073
16.005,-0.076
16.010,-0.073
16.015,-0.069
16.020,-0.070
16.025,-0.072
16.030,-0.075
16.035,-0.077
16.040,-0.075
16.045,-0.072
16.050,-0.074
16.055,-0.078
16.060,-0.077
16.065,-0.075
16.070,-0.076
16.075,-0.078
16.080,-0.073
16.085,-0.069
16.090,-0.072
16.095,-0.077
16.100,-0.074
16.105,-0.068
16.110,-0.066
16.115,-0.068
16.120,-0.068
16.125,-0.066
16.130,-0.067
16.135,-0.070
16.140,-0.071
16.145,-0.065
16.150,-0.061
16.155,-0.063
16.160,-0.064
16.165,-0.064
16.170,-0.066
16.175,-0.065
16.180,-0.057
16.185,-0.054
16.190,-0.053
16.195,-0.046
16.200,-0.046
16.205,-0.048
16.210,-0.046
16.215,-0.046
16.220,-0.043
16.225,-0.041
16.230,-0.044
16.235,-0.048
16.240,-0.052
16.245,-0.062
16.250,-0.079
16.255,-0.101
16.260,-0.119
16.265,-0.129
16.270,-0.129
16.275,-0.129
16.280,-0.117
16.285,-0.097
16.290,-0.093
16.295,-0.094
16.300,-0.081
16.305,-0.053
16.310,-0.011
16.315,0.019
16.320,0.027
16.325,0.029
16.330,0.039
16.335,0.051
16.340,0.066
16.345,0.075
16.350,0.074
16.355,0.074
16.360,0.076
16.365,0.074
16.370,0.063
16.375,0.054
16.380,0.048
16.385,0.042
16.390,0.039
16.395,0.032
16.400,0.019
16.405,-0.055
16.410,-0.283
16.415,-0.675
16.420,-1.127
16.425,-1.465
16.430,-1.537
16.435,-1.139
16.440,-0.342
16.445,0.294
16.450,0.508
16.455,0.490
16.460,0.414
16.465,0.374
16.470,0.365
16.475,0.347
16.480,0.329
16.485,0.317
16.490,0.308
16.495,0.294
16.500,0.273
16.505,0.257
16.510,0.245
16.515,0.233
16.520,0.225
16.525,0.218
16.530,0.206
16.535,0.190
16.540,0.176
16.545,0.166
16.550,0.152
16.555,0.133
16.560,0.120
16.565,0.113
16.570,0.106
16.575,0.097
16.580,0.085
16.585,0.074
16.590,0.067
16.595,0.056
16.600,0.043
16.605,0.032
16.610,0.020
16.615,0.009
16.620,0.000
16.625,-0.015
16.630,-0.031
16.635,-0.041
16.640,-0.052
16.645,-0.071
16.650,-0.090
16.655,-0.110
16.660,-0.130
16.665,-0.155
16.670,-0.179
16.675,-0.197
16.680,-0.215
16.685,-0.237
16.690,-0.257
16.695,-0.270
16.700,-0.280
16.705,-0.285
16.710,-0.285
16.715,-0.280
16.720,-0.274
16.725,-0.261
16.730,-0.238
16.735,-0.209
16.740,-0.172
16.745,-0.121
16.750,-0.062
16.755,0.005
16.760,0.075
16.765,0.142
16.770,0.204
16.775,0.258
16.780,0.298
16.785,0.328
16.790,0.346
16.795,0.353
16.800,0.355
16.805,0.355
16.810,0.349
16.815,0.339
16.820,0.330
16.825,0.319
16.830,0.305
16.835,0.291
16.840,0.279
16.845,0.263
16.850,0.247
16.855,0.237
16.860,0.228
16.865,0.218
16.870,0.208
16.875,0.195
16.880,0.182
16.885,0.168
16.890,0.154
16.895,0.140
16.900,0.129
16.905,0.123
16.910,0.118
16.915,0.110
16.920,0.099
16.925,0.088
16.930,0.079
16.935,0.072
16.940,0.066
16.945,0.060
16.950,0.052
16.955,0.040
16.960,0.030
16.965,0.024
16.970,0.019
16.975,0.015
16.980,0.012
16.985,0.007
16.990,0.003
16.995,0.001
17.000,-0.002
17.005,-0.006
17.010,-0.009
17.015,-0.012
17.020,-0.019
17.025,-0.025
17.030,-0.030
17.035,-0.034
17.040,-0.033
17.045,-0.033
17.050,-0.039
17.055,-0.041
17.060,-0.042
17.065,-0.047
17.070,-0.049
17.075,-0.056
17.080,-0.060
17.085,-0.056
17.090,-0.056
17.095,-0.062
17.100,-0.065
17.105,-0.065
17.110,-0.065
17.115,-0.066
17.120,-0.069
17.125,-0.070
17.130,-0.068
17.135,-0.066
17.140,-0.068
17.145,-0.073
17.150,-0.078
17.155,-0.077
17.160,-0.071
17.165,-0.068
17.170,-0.072
17.175,-0.073
17.180,-0.071
17.185,-0.072
17.190,-0.076
17.195,-0.078
17.200,-0.073
17.205,-0.071
17.210,-0.069
17.215,-0.065
17.220,-0.066
17.225,-0.068
17.230,-0.071
17.235,-0.072
17.240,-0.066
17.245,-0.063
17.250,-0.064
17.255,-0.063
17.260,-0.066
17.265,-0.067
17.270,-0.065
17.275,-0.063
17.280,-0.061
17.285,-0.061
17.290,-0.061
17.295,-0.059
17.300,-0.057
17.305,-0.054
17.310,-0.053
17.315,-0.052
17.320,-0.049
17.325,-0.047
17.330,-0.047
17.335,-0.043
17.340,-0.038
17.345,-0.040
17.350,-0.043
17.355,-0.040
17.360,-0.037
17.365,-0.037
17.370,-0.037
17.375,-0.034
17.380,-0.037
17.385,-0.051
17.390,-0.065
17.395,-0.086
17.400,-0.113
17.405,-0.132
17.410,-0.131
17.415,-0.126
17.420,-0.123
17.425,-0.106
17.430,-0.093
17.435,-0.096
17.440,-0.089
17.445,-0.066
17.450,-0.029
17.455,0.009
17.460,0.029
17.465,0.034
17.470,0.038
17.475,0.050
17.480,0.066
17.485,0.075
17.490,0.072
17.495,0.067
17.500,0.068
17.505,0.070
17.510,0.067
17.515,0.061
17.520,0.054
17.525,0.051
17.530,0.045
17.535,0.035
17.540,0.028
17.545,0.009
17.550,-0.085
17.555,-0.336
17.560,-0.743
17.565,-1.176
17.570,-1.457
17.575,-1.431
17.580,-0.923
17.585,-0.133
17.590,0.387
17.595,0.514
17.600,0.467
17.605,0.393
17.610,0.364
17.615,0.353
17.620,0.332
17.625,0.312
17.630,0.296
17.635,0.285
17.640,0.273
17.645,0.262
17.650,0.250
17.655,0.236
17.660,0.225
17.665,0.216
17.670,0.207
17.675,0.194
17.680,0.176
17.685,0.163
17.690,0.155
17.695,0.144
17.700,0.129
17.705,0.122
17.710,0.116
17.715,0.101
17.720,0.088
17.725,0.077
17.730,0.067
17.735,0.059
17.740,0.051
17.745,0.043
17.750,0.031
17.755,0.016
17.760,0.006
17.765,-0.006
17.770,-0.023
17.775,-0.036
17.780,-0.048
17.785,-0.061
17.790,-0.077
17.795,-0.097
17.800,-0.120
17.805,-0.140
17.810,-0.157
17.815,-0.179
17.820,-0.201
17.825,-0.221
17.830,-0.239
17.835,-0.253
17.840,-0.264
17.845,-0.273
17.850,-0.281
17.855,-0.282
17.860,-0.277
17.865,-0.272
17.870,-0.260
17.875,-0.236
17.880,-0.203
17.885,-0.166
17.890,-0.121
17.895,-0.057
17.900,0.016
17.905,0.083
17.910,0.147
17.915,0.203
17.920,0.250
17.925,0.287
17.930,0.316
17.935,0.339
17.940,0.352
17.945,0.355
17.950,0.354
17.955,0.351
17.960,0.342
17.965,0.333
17.970,0.322
17.975,0.308
17.980,0.298
17.985,0.284
17.990,0.263
17.995,0.248
18.000,0.239
18.005,0.229
18.010,0.217
18.015,0.206
18.020,0.190
18.025,0.178
18.030,0.172
18.035,0.161
18.040,0.149
18.045,0.140
18.050,0.129
18.055,0.114
18.060,0.105
18.065,0.103
18.070,0.094
18.075,0.080
18.080,0.070
18.085,0.063
18.090,0.059
18.095,0.050
18.100,0.040
18.105,0.034
18.110,0.031
18.115,0.023
18.120,0.013
18.125,0.010
18.130,0.008
18.135,0.003
18.140,-0.003
18.145,-0.008
18.150,-0.013
18.155,-0.013
18.160,-0.012
18.165,-0.018
18.170,-0.027
18.175,-0.032
18.180,-0.038
18.185,-0.039
18.190,-0.035
18.195,-0.037
18.200,-0.044
18.205,-0.048
18.210,-0.050
18.215,-0.053
18.220,-0.053
18.225,-0.052
18.230,-0.054
18.235,-0.054
18.240,-0.055
18.245,-0.061
18.250,-0.062
18.255,-0.063
18.260,-0.066
18.265,-0.070
18.270,-0.077
18.275,-0.078
18.280,-0.073
18.285,-0.071
18.290,-0.071
18.295,-0.075
18.300,-0.076
18.305,-0.070
18.310,-0.068
18.315,-0.068
18.320,-0.068
18.325,-0.071
18.330,-0.075
18.335,-0.074
18.340,-0.072
18.345,-0.074
18.350,-0.073
18.355,-0.069
18.360,-0.063
18.365,-0.060
18.370,-0.063
18.375,-0.066
18.380,-0.065
18.385,-0.063
18.390,-0.064
18.395,-0.068
18.400,-0.070
18.405,-0.065
18.410,-0.057
18.415,-0.056
18.420,-0.057
18.425,-0.055
18.430,-0.056
18.435,-0.055
18.440,-0.052
18.445,-0.053
18.450,-0.056
18.455,-0.058
18.460,-0.053
18.465,-0.047
18.470,-0.049
18.475,-0.048
18.480,-0.040
18.485,-0.039
18.490,-0.048
18.495,-0.054
18.500,-0.051
18.505,-0.042
18.510,-0.041
18.515,-0.055
18.520,-0.066
18.525,-0.078
18.530,-0.101
18.535,-0.122
18.540,-0.129
18.545,-0.125
18.550,-0.124
18.555,-0.119
18.560,-0.106
18.565,-0.103
18.570,-0.099
18.575,-0.083
18.580,-0.051
18.585,-0.014
18.590,0.010
18.595,0.022
18.600,0.034
18.605,0.045
18.610,0.055
18.615,0.062
18.620,0.063
18.625,0.064
18.630,0.067
18.635,0.067
18.640,0.061
18.645,0.057
18.650,0.058
18.655,0.053
18.660,0.042
18.665,0.028
18.670,0.021
18.675,0.017
18.680,-0.059
18.685,-0.292
18.690,-0.693
18.695,-1.151
18.700,-1.474
18.705,-1.516
18.710,-1.081
18.715,-0.258
18.720,0.350
18.725,0.511
18.730,0.488
18.735,0.419
18.740,0.367
18.745,0.356
18.750,0.341
18.755,0.321
18.760,0.308
18.765,0.297
18.770,0.287
18.775,0.275
18.780,0.259
18.785,0.243
18.790,0.228
18.795,0.213
18.800,0.206
18.805,0.198
18.810,0.179
18.815,0.167
18.820,0.158
18.825,0.146
18.830,0.140
18.835,0.130
18.840,0.117
18.845,0.108
18.850,0.098
18.855,0.083
18.860,0.066
18.865,0.057
18.870,0.052
18.875,0.045
18.880,0.036
18.885,0.023
18.890,0.008
18.895,-0.005
18.900,-0.014
18.905,-0.027
18.910,-0.046
18.915,-0.063
18.920,-0.077
18.925,-0.097
18.930,-0.119
18.935,-0.140
18.940,-0.162
18.945,-0.185
18.950,-0.208
18.955,-0.225
18.960,-0.239
18.965,-0.264
18.970,-0.285
18.975,-0.291
18.980,-0.294
18.985,-0.296
18.990,-0.292
18.995,-0.285
19.000,-0.273
19.005,-0.251
19.010,-0.217
19.015,-0.174
19.020,-0.123
19.025,-0.059
19.030,0.010
19.035,0.080
19.040,0.143
19.045,0.201
19.050,0.261
19.055,0.308
19.060,0.340
19.065,0.363
19.070,0.372
19.075,0.369
19.080,0.364
19.085,0.361
19.090,0.357
19.095,0.349
19.100,0.337
19.105,0.324
19.110,0.313
19.115,0.298
19.120,0.282
19.125,0.265
19.130,0.250
19.135,0.237
19.140,0.223
19.145,0.213
19.150,0.206
19.155,0.195
19.160,0.177
19.165,0.160
19.170,0.147
19.175,0.136
19.180,0.128
19.185,0.122
19.190,0.113
19.195,0.101
19.200,0.088
19.205,0.078
19.210,0.073
19.215,0.066
19.220,0.052
19.225,0.042
19.230,0.035
19.235,0.028
19.240,0.027
19.245,0.027
19.250,0.024
19.255,0.019
19.260,0.008
19.265,-0.005
19.270,-0.009
19.275,-0.008
19.280,-0.008
19.285,-0.013
19.290,-0.016
19.295,-0.012
19.300,-0.016
19.305,-0.026
19.310,-0.036
19.315,-0.045
19.320,-0.045
19.325,-0.040
19.330,-0.040
19.335,-0.045
19.340,-0.048
19.345,-0.051
19.350,-0.059
19.355,-0.063
19.360,-0.060
19.365,-0.060
19.370,-0.060
19.375,-0.059
19.380,-0.064
19.385,-0.069
19.390,-0.068
19.395,-0.066
19.400,-0.065
19.405,-0.067
19.410,-0.074
19.415,-0.080
19.420,-0.077
19.425,-0.073
19.430,-0.067
19.435,-0.062
19.440,-0.064
19.445,-0.073
19.450,-0.078
19.455,-0.080
19.460,-0.081
19.465,-0.081
19.470,-0.076
19.475,-0.070
19.480,-0.072
19.485,-0.075
19.490,-0.076
19.495,-0.075
19.500,-0.072
19.505,-0.070
19.510,-0.069
19.515,-0.068
19.520,-0.063
19.525,-0.061
19.530,-0.063
19.535,-0.066
19.540,-0.069
19.545,-0.068
19.550,-0.061
19.555,-0.059
19.560,-0.063
19.565,-0.064
19.570,-0.061
19.575,-0.061
19.580,-0.059
19.585,-0.053
19.590,-0.052
19.595,-0.054
19.600,-0.051
19.605,-0.054
19.610,-0.061
19.615,-0.072
19.620,-0.089
19.625,-0.111
19.630,-0.127
19.635,-0.129
19.640,-0.130
19.645,-0.134
19.650,-0.129
19.655,-0.118
19.660,-0.111
19.665,-0.103
19.670,-0.089
19.675,-0.057
19.680,-0.020
19.685,-0.004
19.690,0.002
19.695,0.017
19.700,0.032
19.705,0.043
19.710,0.056
19.715,0.060
19.720,0.052
19.725,0.054
19.730,0.058
19.735,0.055
19.740,0.051
19.745,0.045
19.750,0.040
19.755,0.037
19.760,0.028
19.765,0.025
19.770,0.007
19.775,-0.113
19.780,-0.414
19.785,-0.870
19.790,-1.325
19.795,-1.606
19.800,-1.536
19.805,-0.929
19.810,-0.068
19.815,0.430
19.820,0.511
19.825,0.478
19.830,0.418
19.835,0.377
19.840,0.366
19.845,0.350
19.850,0.330
19.855,0.315
19.860,0.306
19.865,0.291
19.870,0.274
19.875,0.266
19.880,0.258
19.885,0.248
19.890,0.234
19.895,0.214
19.900,0.195
19.905,0.182
19.910,0.173
19.915,0.164
19.920,0.152
19.925,0.143
19.930,0.136
19.935,0.123
19.940,0.108
19.945,0.098
19.950,0.090
19.955,0.081
19.960,0.071
19.965,0.055
19.970,0.038
19.975,0.028
19.980,0.020
19.985,0.015
19.990,0.007
19.995,-0.012
20.000,-0.032
20.005,-0.049
20.010,-0.065
20.015,-0.080
20.020,-0.097
20.025,-0.117
20.030,-0.136
20.035,-0.159
20.040,-0.185
20.045,-0.212
20.050,-0.234
20.055,-0.248
20.060,-0.264
20.065,-0.279
20.070,-0.287
20.075,-0.291
20.080,-0.290
20.085,-0.287
20.090,-0.278
20.095,-0.261
20.100,-0.236
20.105,-0.203
20.110,-0.158
20.115,-0.102
20.120,-0.034
20.125,0.040
20.130,0.112
20.135,0.176
20.140,0.234
20.145,0.285
20.150,0.322
20.155,0.344
20.160,0.357
20.165,0.364
20.170,0.369
20.175,0.367
20.180,0.360
20.185,0.352
20.190,0.342
20.195,0.326
20.200,0.312
20.205,0.301
20.210,0.287
20.215,0.272
20.220,0.256
20.225,0.243
20.230,0.232
20.235,0.224
20.240,0.212
20.245,0.197
20.250,0.183
20.255,0.171
20.260,0.160
20.265,0.149
20.270,0.135
20.275,0.120
20.280,0.111
20.285,0.105
20.290,0.098
20.295,0.086
20.300,0.070
20.305,0.061
20.310,0.058
20.315,0.052
20.320,0.042
20.325,0.032
20.330,0.028
20.335,0.026
20.340,0.021
20.345,0.015
20.350,0.010
20.355,0.003
20.360,-0.002
20.365,-0.001
20.370,-0.003
20.375,-0.009
20.380,-0.016
20.385,-0.022
20.390,-0.027
20.395,-0.029
20.400,-0.034
20.405,-0.039
20.410,-0.041
20.415,-0.044
20.420,-0.044
20.425,-0.043
20.430,-0.049
20.435,-0.055
20.440,-0.058
20.445,-0.060
20.450,-0.058
20.455,-0.061
20.460,-0.067
20.465,-0.065
20.470,-0.060
20.475,-0.061
20.480,-0.063
20.485,-0.066
20.490,-0.069
20.495,-0.068
20.500,-0.067
20.505,-0.072
20.510,-0.075
20.515,-0.074
20.520,-0.075
20.525,-0.074
20.530,-0.072
20.535,-0.069
20.540,-0.065
20.545,-0.069
20.550,-0.075
20.555,-0.077
20.560,-0.074
20.565,-0.071
20.570,-0.071
20.575,-0.072
20.580,-0.069
20.585,-0.069
20.590,-0.070
20.595,-0.066
20.600,-0.061
20.605,-0.063
20.610,-0.070
20.615,-0.071
20.620,-0.068
20.625,-0.067
20.630,-0.064
20.635,-0.063
20.640,-0.062
20.645,-0.061
20.650,-0.062
20.655,-0.064
20.660,-0.062
20.665,-0.057
20.670,-0.056
20.675,-0.057
20.680,-0.056
20.685,-0.053
20.690,-0.048
20.695,-0.043
20.700,-0.046
20.705,-0.057
20.710,-0.073
20.715,-0.092
20.720,-0.114
20.725,-0.133
20.730,-0.137
20.735,-0.130
20.740,-0.133
20.745,-0.128
20.750,-0.111
20.755,-0.108
20.760,-0.106
20.765,-0.093
20.770,-0.064
20.775,-0.021
20.780,0.007
20.785,0.013
20.790,0.023
20.795,0.038
20.800,0.043
20.805,0.049
20.810,0.061
20.815,0.062
20.820,0.059
20.825,0.061
20.830,0.056
20.835,0.046
20.840,0.041
20.845,0.039
20.850,0.036
20.855,0.031
20.860,0.025
20.865,0.017
20.870,-0.054
20.875,-0.281
20.880,-0.676
20.885,-1.135
20.890,-1.479
20.895,-1.553
20.900,-1.161
20.905,-0.362
20.910,0.289
20.915,0.510
20.920,0.495
20.925,0.418
20.930,0.371
20.935,0.363
20.940,0.350
20.945,0.332
20.950,0.319
20.955,0.308
20.960,0.293
20.965,0.279
20.970,0.269
20.975,0.258
20.980,0.243
20.985,0.230
20.990,0.216
20.995,0.201
21.000,0.186
21.005,0.171
21.010,0.159
21.015,0.150
21.020,0.142
21.025,0.129
21.030,0.118
21.035,0.113
21.040,0.106
21.045,0.091
21.050,0.077
21.055,0.066
21.060,0.057
21.065,0.049
21.070,0.036
21.075,0.022
21.080,0.012
21.085,0.000
21.090,-0.017
21.095,-0.030
21.100,-0.038
21.105,-0.057
21.110,-0.077
21.115,-0.088
21.120,-0.103
21.125,-0.127
21.130,-0.149
21.135,-0.171
21.140,-0.192
21.145,-0.213
21.150,-0.233
21.155,-0.248
21.160,-0.265
21.165,-0.282
21.170,-0.288
21.175,-0.288
21.180,-0.285
21.185,-0.279
21.190,-0.271
21.195,-0.252
21.200,-0.219
21.205,-0.177
21.210,-0.127
21.215,-0.064
21.220,0.008
21.225,0.080
21.230,0.146
21.235,0.206
21.240,0.258
21.245,0.297
21.250,0.327
21.255,0.346
21.260,0.352
21.265,0.357
21.270,0.363
21.275,0.358
21.280,0.347
21.285,0.338
21.290,0.328
21.295,0.316
21.300,0.304
21.305,0.291
21.310,0.274
21.315,0.258
21.320,0.244
21.325,0.230
21.330,0.218
21.335,0.210
21.340,0.197
21.345,0.182
21.350,0.169
21.355,0.156
21.360,0.145
21.365,0.133
21.370,0.124
21.375,0.122
21.380,0.114
21.385,0.097
21.390,0.084
21.395,0.076
21.400,0.070
21.405,0.066
21.410,0.061
21.415,0.050
21.420,0.040
21.425,0.035
21.430,0.031
21.435,0.025
21.440,0.018
21.445,0.015
21.450,0.011
21.455,0.003
21.460,-0.007
21.465,-0.013
21.470,-0.015
21.475,-0.014
21.480,-0.015
21.485,-0.021
21.490,-0.026
21.495,-0.029
21.500,-0.035
21.505,-0.037
21.510,-0.035
21.515,-0.035
21.520,-0.036
21.525,-0.040
21.530,-0.049
21.535,-0.054
21.540,-0.051
21.545,-0.052
21.550,-0.058
21.555,-0.060
21.560,-0.059
21.565,-0.060
21.570,-0.064
21.575,-0.069
21.580,-0.067
21.585,-0.063
21.590,-0.064
21.595,-0.066
21.600,-0.068
21.605,-0.073
21.610,-0.077
21.615,-0.075
21.620,-0.072
21.625,-0.072
21.630,-0.074
21.635,-0.074
21.640,-0.071
21.645,-0.071
21.650,-0.071
21.655,-0.073
21.660,-0.076
21.665,-0.077
21.670,-0.077
21.675,-0.073
21.680,-0.070
21.685,-0.073
21.690,-0.075
21.695,-0.073
21.700,-0.071
21.705,-0.071
21.710,-0.070
21.715,-0.069
21.720,-0.066
21.725,-0.061
21.730,-0.061
21.735,-0.065
21.740,-0.067
21.745,-0.064
21.750,-0.062
21.755,-0.061
21.760,-0.054
21.765,-0.052
21.770,-0.056
21.775,-0.056
21.780,-0.057
21.785,-0.057
21.790,-0.054
21.795,-0.052
21.800,-0.059
21.805,-0.070
21.810,-0.083
21.815,-0.106
21.820,-0.131
21.825,-0.141
21.830,-0.141
21.835,-0.142
21.840,-0.137
21.845,-0.119
21.850,-0.110
21.855,-0.115
21.860,-0.106
21.865,-0.077
21.870,-0.038
21.875,-0.004
21.880,0.010
21.885,0.014
21.890,0.023
21.895,0.035
21.900,0.051
21.905,0.062
21.910,0.063
21.915,0.062
21.920,0.061
21.925,0.061
21.930,0.060
21.935,0.053
21.940,0.043
21.945,0.036
21.950,0.027
21.955,0.017
21.960,0.015
21.965,-0.016
21.970,-0.163
21.975,-0.479
21.980,-0.915
21.985,-1.309
21.990,-1.509
21.995,-1.330
22.000,-0.671
22.005,0.076
22.010,0.454
22.015,0.501
22.020,0.434
22.025,0.374
22.030,0.355
22.035,0.342
22.040,0.323
22.045,0.309
22.050,0.299
22.055,0.288
22.060,0.274
22.065,0.264
22.070,0.252
22.075,0.233
22.080,0.216
22.085,0.204
22.090,0.196
22.095,0.187
22.100,0.178
22.105,0.170
22.110,0.158
22.115,0.144
22.120,0.130
22.125,0.120
22.130,0.110
22.135,0.099
22.140,0.091
22.145,0.083
22.150,0.073
22.155,0.062
22.160,0.049
22.165,0.035
22.170,0.026
22.175,0.018
22.180,0.006
22.185,-0.005
22.190,-0.017
22.195,-0.032
22.200,-0.046
22.205,-0.060
22.210,-0.081
22.215,-0.100
22.220,-0.118
22.225,-0.138
22.230,-0.157
22.235,-0.177
22.240,-0.203
22.245,-0.226
22.250,-0.244
22.255,-0.256
22.260,-0.264
22.265,-0.273
22.270,-0.276
22.275,-0.277
22.280,-0.277
22.285,-0.268
22.290,-0.250
22.295,-0.226
22.300,-0.192
22.305,-0.146
22.310,-0.091
22.315,-0.025
22.320,0.047
22.325,0.113
22.330,0.172
22.335,0.224
22.340,0.272
22.345,0.307
22.350,0.329
22.355,0.346
22.360,0.353
22.365,0.352
22.370,0.349
22.375,0.342
22.380,0.333
22.385,0.324
22.390,0.315
22.395,0.303
22.400,0.287
22.405,0.271
22.410,0.261
22.415,0.250
22.420,0.233
22.425,0.218
22.430,0.207
22.435,0.194
22.440,0.183
22.445,0.174
22.450,0.165
22.455,0.153
22.460,0.141
22.465,0.131
22.470,0.121
22.475,0.114
22.480,0.111
22.485,0.102
22.490,0.086
22.495,0.076
22.500,0.068
22.505,0.063
22.510,0.057
22.515,0.048
22.520,0.038
22.525,0.028
22.530,0.018
22.535,0.015
22.540,0.017
22.545,0.013
22.550,0.005
22.555,0.001
22.560,-0.003
22.565,-0.009
22.570,-0.008
22.575,-0.007
22.580,-0.015
22.585,-0.025
22.590,-0.030
22.595,-0.031
22.600,-0.033
22.605,-0.037
22.610,-0.040
22.615,-0.042
22.620,-0.044
22.625,-0.047
22.630,-0.051
22.635,-0.056
22.640,-0.060
22.645,-0.060
22.650,-0.057
22.655,-0.058
22.660,-0.066
22.665,-0.066
22.670,-0.063
22.675,-0.063
22.680,-0.061
22.685,-0.065
22.690,-0.073
22.695,-0.075
22.700,-0.073
22.705,-0.072
22.710,-0.072
22.715,-0.073
22.720,-0.071
22.725,-0.072
22.730,-0.076
22.735,-0.074
22.740,-0.072
22.745,-0.074
22.750,-0.071
22.755,-0.068
22.760,-0.071
22.765,-0.074
22.770,-0.069
22.775,-0.067
22.780,-0.067
22.785,-0.066
22.790,-0.064
22.795,-0.064
22.800,-0.068
22.805,-0.069
22.810,-0.065
22.815,-0.063
22.820,-0.063
22.825,-0.064
22.830,-0.067
22.835,-0.067
22.840,-0.063
22.845,-0.061
22.850,-0.060
22.855,-0.058
22.860,-0.052
22.865,-0.047
22.870,-0.047
22.875,-0.051
22.880,-0.052
22.885,-0.045
22.890,-0.042
22.895,-0.045
22.900,-0.042
22.905,-0.042
22.910,-0.049
22.915,-0.052
22.920,-0.055
22.925,-0.061
22.930,-0.077
22.935,-0.106
22.940,-0.129
22.945,-0.130
22.950,-0.129
22.955,-0.133
22.960,-0.122
22.965,-0.106
22.970,-0.106
22.975,-0.100
22.980,-0.079
22.985,-0.047
22.990,-0.009
22.995,0.019
23.000,0.031
23.005,0.042
23.010,0.052
23.015,0.055
23.020,0.059
23.025,0.068
23.030,0.073
23.035,0.071
23.040,0.066
23.045,0.065
23.050,0.066
23.055,0.059
23.060,0.050
23.065,0.042
23.070,0.034
23.075,0.028
23.080,0.019
23.085,-0.051
23.090,-0.268
23.095,-0.643
23.100,-1.083
23.105,-1.416
23.110,-1.492
23.115,-1.114
23.120,-0.333
23.125,0.293
23.130,0.494
23.135,0.483
23.140,0.412
23.145,0.361
23.150,0.349
23.155,0.333
23.160,0.315
23.165,0.305
23.170,0.295
23.175,0.282
23.180,0.270
23.185,0.257
23.190,0.241
23.195,0.228
23.200,0.219
23.205,0.204
23.210,0.189
23.215,0.177
23.220,0.167
23.225,0.154
23.230,0.141
23.235,0.132
23.240,0.125
23.245,0.114
23.250,0.103
23.255,0.093
23.260,0.082
23.265,0.072
23.270,0.059
23.275,0.047
23.280,0.040
23.285,0.031
23.290,0.017
23.295,0.004
23.300,-0.008
23.305,-0.019
23.310,-0.033
23.315,-0.045
23.320,-0.056
23.325,-0.078
23.330,-0.096
23.335,-0.114
23.340,-0.143
23.345,-0.169
23.350,-0.183
23.355,-0.199
23.360,-0.222
23.365,-0.243
23.370,-0.259
23.375,-0.273
23.380,-0.281
23.385,-0.290
23.390,-0.295
23.395,-0.291
23.400,-0.286
23.405,-0.276
23.410,-0.255
23.415,-0.225
23.420,-0.179
23.425,-0.125
23.430,-0.065
23.435,0.003
23.440,0.069
23.445,0.134
23.450,0.199
23.455,0.255
23.460,0.299
23.465,0.326
23.470,0.347
23.475,0.366
23.480,0.372
23.485,0.370
23.490,0.365
23.495,0.349
23.500,0.333
23.505,0.326
23.510,0.318
23.515,0.308
23.520,0.301
23.525,0.290
23.530,0.272
23.535,0.249
23.540,0.234
23.545,0.232
23.550,0.224
23.555,0.209
23.560,0.192
23.565,0.175
23.570,0.157
23.575,0.150
23.580,0.150
23.585,0.141
23.590,0.131
23.595,0.120
23.600,0.104
23.605,0.088
23.610,0.078
23.615,0.073
23.620,0.067
23.625,0.056
23.630,0.049
23.635,0.045
23.640,0.037
23.645,0.035
23.650,0.032
23.655,0.016
23.660,0.005
23.665,0.007
23.670,0.008
23.675,0.000
23.680,-0.010
23.685,-0.013
23.690,-0.012
23.695,-0.013
23.700,-0.017
23.705,-0.027
23.710,-0.032
23.715,-0.031
23.720,-0.034
23.725,-0.039
23.730,-0.039
23.735,-0.037
23.740,-0.039
23.745,-0.047
23.750,-0.053
23.755,-0.053
23.760,-0.050
23.765,-0.052
23.770,-0.057
23.775,-0.055
23.780,-0.060
23.785,-0.070
23.790,-0.070
23.795,-0.070
23.800,-0.066
23.805,-0.059
23.810,-0.060
23.815,-0.064
23.820,-0.072
23.825,-0.075
23.830,-0.071
23.835,-0.071
23.840,-0.074
23.845,-0.072
23.850,-0.072
23.855,-0.074
23.860,-0.074
23.865,-0.071
23.870,-0.071
23.875,-0.072
23.880,-0.073
23.885,-0.072
23.890,-0.072
23.895,-0.076
23.900,-0.078
23.905,-0.075
23.910,-0.073
23.915,-0.076
23.920,-0.076
23.925,-0.071
23.930,-0.065
23.935,-0.065
23.940,-0.068
23.945,-0.065
23.950,-0.067
23.955,-0.070
23.960,-0.062
23.965,-0.059
23.970,-0.059
23.975,-0.058
23.980,-0.062
23.985,-0.061
23.990,-0.056
23.995,-0.065
24.000,-0.074
24.005,-0.086
24.010,-0.113
24.015,-0.136
24.020,-0.141
24.025,-0.141
24.030,-0.144
24.035,-0.137
24.040,-0.125
24.045,-0.121
24.050,-0.117
24.055,-0.103
24.060,-0.076
24.065,-0.036
24.070,-0.009
24.075,-0.004
24.080,0.006
24.085,0.020
24.090,0.032
24.095,0.050
24.100,0.057
24.105,0.052
24.110,0.050
24.115,0.049
24.120,0.045
24.125,0.042
24.130,0.039
24.135,0.031
24.140,0.023
24.145,0.021
24.150,0.025
24.155,0.024
24.160,-0.051
24.165,-0.292
24.170,-0.722
24.175,-1.227
24.180,-1.591
24.185,-1.661
24.190,-1.241
24.195,-0.371
24.200,0.323
24.205,0.517
24.210,0.504
24.215,0.453
24.220,0.395
24.225,0.373
24.230,0.359
24.235,0.344
24.240,0.333
24.245,0.320
24.250,0.304
24.255,0.284
24.260,0.268
24.265,0.260
24.270,0.249
24.275,0.235
24.280,0.225
24.285,0.212
24.290,0.196
24.295,0.182
24.300,0.171
24.305,0.160
24.310,0.150
24.315,0.138
24.320,0.128
24.325,0.117
24.330,0.105
24.335,0.098
24.340,0.088
24.345,0.075
24.350,0.069
24.355,0.061
24.360,0.043
24.365,0.024
24.370,0.007
24.375,-0.007
24.380,-0.017
24.385,-0.031
24.390,-0.046
24.395,-0.060
24.400,-0.073
24.405,-0.089
24.410,-0.110
24.415,-0.135
24.420,-0.160
24.425,-0.182
24.430,-0.204
24.435,-0.227
24.440,-0.248
24.445,-0.267
24.450,-0.283
24.455,-0.292
24.460,-0.295
24.465,-0.293
24.470,-0.290
24.475,-0.282
24.480,-0.266
24.485,-0.247
24.490,-0.219
24.495,-0.172
24.500,-0.110
24.505,-0.040
24.510,0.029
24.515,0.094
24.520,0.159
24.525,0.223
24.530,0.277
24.535,0.317
24.540,0.349
24.545,0.369
24.550,0.373
24.555,0.374
24.560,0.376
24.565,0.373
24.570,0.360
24.575,0.345
24.580,0.336
24.585,0.327
24.590,0.316
24.595,0.303
24.600,0.287
24.605,0.275
24.610,0.264
24.615,0.251
24.620,0.235
24.625,0.219
24.630,0.204
24.635,0.191
24.640,0.178
24.645,0.165
24.650,0.153
24.655,0.139
24.660,0.128
24.665,0.119
24.670,0.107
24.675,0.098
24.680,0.088
24.685,0.074
24.690,0.064
24.695,0.061
24.700,0.056
24.705,0.049
24.710,0.040
24.715,0.030
24.720,0.022
24.725,0.018
24.730,0.017
24.735,0.015
24.740,0.008
24.745,-0.002
24.750,-0.011
24.755,-0.014
24.760,-0.015
24.765,-0.017
24.770,-0.018
24.775,-0.020
24.780,-0.021
24.785,-0.027
24.790,-0.038
24.795,-0.042
24.800,-0.043
24.805,-0.047
24.810,-0.049
24.815,-0.050
24.820,-0.048
24.825,-0.049
24.830,-0.054
24.835,-0.056
24.840,-0.059
24.845,-0.061
24.850,-0.063
24.855,-0.065
24.860,-0.069
24.865,-0.071
24.870,-0.068
24.875,-0.067
24.880,-0.071
24.885,-0.073
24.890,-0.073
24.895,-0.074
24.900,-0.078
24.905,-0.080
24.910,-0.079
24.915,-0.075
24.920,-0.073
24.925,-0.076
24.930,-0.078
24.935,-0.078
24.940,-0.079
24.945,-0.079
24.950,-0.080
24.955,-0.082
24.960,-0.083
24.965,-0.081
24.970,-0.077
24.975,-0.073
24.980,-0.071
24.985,-0.071
24.990,-0.071
24.995,-0.068
25.000,-0.067
25.005,-0.075
25.010,-0.081
25.015,-0.078
25.020,-0.073
25.025,-0.069
25.030,-0.066
25.035,-0.066
25.040,-0.068
25.045,-0.066
25.050,-0.062
25.055,-0.062
25.060,-0.064
25.065,-0.060
25.070,-0.057
25.075,-0.058
25.080,-0.061
25.085,-0.069
25.090,-0.088
25.095,-0.113
25.100,-0.136
25.105,-0.142
25.110,-0.138
25.115,-0.138
25.120,-0.133
25.125,-0.118
25.130,-0.112
25.135,-0.109
25.140,-0.095
25.145,-0.069
25.150,-0.030
25.155,0.000
25.160,0.006
25.165,0.008
25.170,0.021
25.175,0.034
25.180,0.047
25.185,0.060
25.190,0.059
25.195,0.054
25.200,0.052
25.205,0.050
25.210,0.049
25.215,0.046
25.220,0.042
25.225,0.035
25.230,0.024
25.235,0.020
25.240,0.014
25.245,-0.064
25.250,-0.299
25.255,-0.702
25.260,-1.171
25.265,-1.519
25.270,-1.596
25.275,-1.193
25.280,-0.367
25.285,0.301
25.290,0.523
25.295,0.504
25.300,0.428
25.305,0.385
25.310,0.375
25.315,0.357
25.320,0.336
25.325,0.323
25.330,0.313
25.335,0.300
25.340,0.287
25.345,0.275
25.350,0.259
25.355,0.246
25.360,0.234
25.365,0.221
25.370,0.210
25.375,0.200
25.380,0.186
25.385,0.167
25.390,0.157
25.395,0.150
25.400,0.137
25.405,0.123
25.410,0.109
25.415,0.101
25.420,0.095
25.425,0.084
25.430,0.074
25.435,0.064
25.440,0.052
25.445,0.043
25.450,0.031
25.455,0.015
25.460,0.003
25.465,-0.010
25.470,-0.028
25.475,-0.041
25.480,-0.052
25.485,-0.068
25.490,-0.088
25.495,-0.109
25.500,-0.129
25.505,-0.149
25.510,-0.168
25.515,-0.187
25.520,-0.211
25.525,-0.234
25.530,-0.250
25.535,-0.266
25.540,-0.281
25.545,-0.288
25.550,-0.286
25.555,-0.283
25.560,-0.278
25.565,-0.263
25.570,-0.245
25.575,-0.216
25.580,-0.173
25.585,-0.122
25.590,-0.062
25.595,0.008
25.600,0.082
25.605,0.150
25.610,0.211
25.615,0.263
25.620,0.302
25.625,0.333
25.630,0.354
25.635,0.365
25.640,0.368
25.645,0.365
25.650,0.360
25.655,0.352
25.660,0.339
25.665,0.327
25.670,0.317
25.675,0.302
25.680,0.285
25.685,0.269
25.690,0.258
25.695,0.245
25.700,0.231
25.705,0.221
25.710,0.212
25.715,0.200
25.720,0.188
25.725,0.175
25.730,0.161
25.735,0.149
25.740,0.138
25.745,0.127
25.750,0.115
25.755,0.107
25.760,0.102
25.765,0.095
25.770,0.085
25.775,0.074
25.780,0.065
25.785,0.059
25.790,0.051
25.795,0.045
25.800,0.037
25.805,0.027
25.810,0.016
25.815,0.011
25.820,0.008
25.825,0.005
25.830,0.002
25.835,0.000
25.840,-0.003
25.845,-0.008
25.850,-0.015
25.855,-0.019
25.860,-0.019
25.865,-0.023
25.870,-0.026
25.875,-0.028
25.880,-0.033
25.885,-0.038
25.890,-0.041
25.895,-0.048
25.900,-0.053
25.905,-0.053
25.910,-0.052
25.915,-0.054
25.920,-0.056
25.925,-0.060
25.930,-0.063
25.935,-0.066
25.940,-0.068
25.945,-0.068
25.950,-0.069
25.955,-0.071
25.960,-0.070
25.965,-0.069
25.970,-0.069
25.975,-0.069
25.980,-0.073
25.985,-0.076
25.990,-0.079
25.995,-0.078
26.000,-0.074
26.005,-0.074
26.010,-0.076
26.015,-0.076
26.020,-0.076
26.025,-0.076
26.030,-0.072
26.035,-0.068
26.040,-0.071
26.045,-0.076
26.050,-0.075
26.055,-0.073
26.060,-0.070
26.065,-0.068
26.070,-0.069
26.075,-0.068
26.080,-0.066
26.085,-0.067
26.090,-0.067
26.095,-0.065
26.100,-0.064
26.105,-0.064
26.110,-0.060
26.115,-0.059
26.120,-0.060
26.125,-0.058
26.130,-0.058
26.135,-0.061
26.140,-0.060
26.145,-0.056
26.150,-0.055
26.155,-0.055
26.160,-0.054
26.165,-0.049
26.170,-0.046
26.175,-0.045
26.180,-0.045
26.185,-0.048
26.190,-0.059
26.195,-0.074
26.200,-0.093
26.205,-0.116
26.210,-0.132
26.215,-0.135
26.220,-0.133
26.225,-0.132
26.230,-0.116
26.235,-0.102
26.240,-0.105
26.245,-0.099
26.250,-0.077
26.255,-0.041
26.260,-0.002
26.265,0.017
26.270,0.021
26.275,0.029
26.280,0.040
26.285,0.051
26.290,0.063
26.295,0.070
26.300,0.069
26.305,0.069
26.310,0.067
26.315,0.060
26.320,0.056
26.325,0.050
26.330,0.045
26.335,0.038
26.340,0.029
26.345,0.023
26.350,0.001
26.355,-0.112
26.360,-0.388
26.365,-0.810
26.370,-1.236
26.375,-1.496
26.380,-1.435
26.385,-0.893
26.390,-0.098
26.395,0.407
26.400,0.514
26.405,0.454
26.410,0.384
26.415,0.363
26.420,0.356
26.425,0.338
26.430,0.318
26.435,0.303
26.440,0.296
26.445,0.285
26.450,0.270
26.455,0.259
26.460,0.247
26.465,0.233
26.470,0.216
26.475,0.203
26.480,0.193
26.485,0.183
26.490,0.172
26.495,0.162
26.500,0.151
26.505,0.142
26.510,0.129
26.515,0.113
26.520,0.098
26.525,0.085
26.530,0.076
26.535,0.069
26.540,0.058
26.545,0.048
26.550,0.040
26.555,0.032
26.560,0.022
26.565,0.007
26.570,-0.007
26.575,-0.023
26.580,-0.035
26.585,-0.046
26.590,-0.063
26.595,-0.079
26.600,-0.097
26.605,-0.116
26.610,-0.133
26.615,-0.157
26.620,-0.183
26.625,-0.203
26.630,-0.222
26.635,-0.240
26.640,-0.253
26.645,-0.263
26.650,-0.273
26.655,-0.280
26.660,-0.284
26.665,-0.285
26.670,-0.273
26.675,-0.257
26.680,-0.238
26.685,-0.206
26.690,-0.162
26.695,-0.106
26.700,-0.040
26.705,0.028
26.710,0.092
26.715,0.153
26.720,0.213
26.725,0.264
26.730,0.303
26.735,0.327
26.740,0.343
26.745,0.359
26.750,0.363
26.755,0.357
26.760,0.349
26.765,0.339
26.770,0.326
26.775,0.314
26.780,0.301
26.785,0.289
26.790,0.280
26.795,0.268
26.800,0.251
26.805,0.232
26.810,0.218
26.815,0.212
26.820,0.205
26.825,0.193
26.830,0.177
26.835,0.164
26.840,0.154
26.845,0.141
26.850,0.130
26.855,0.122
26.860,0.112
26.865,0.103
26.870,0.094
26.875,0.086
26.880,0.079
26.885,0.071
26.890,0.061
26.895,0.052
26.900,0.045
26.905,0.039
26.910,0.031
26.915,0.024
26.920,0.021
26.925,0.017
26.930,0.009
26.935,0.007
26.940,0.003
26.945,-0.005
26.950,-0.008
26.955,-0.008
26.960,-0.010
26.965,-0.015
26.970,-0.021
26.975,-0.027
26.980,-0.032
26.985,-0.035
26.990,-0.034
26.995,-0.035
27.000,-0.041
27.005,-0.045
27.010,-0.047
27.015,-0.047
27.020,-0.048
27.025,-0.051
27.030,-0.055
27.035,-0.059
27.040,-0.061
27.045,-0.063
27.050,-0.063
27.055,-0.065
27.060,-0.069
27.065,-0.068
27.070,-0.067
27.075,-0.069
27.080,-0.071
27.085,-0.072
27.090,-0.070
27.095,-0.069
27.100,-0.073
27.105,-0.074
27.110,-0.072
27.115,-0.071
27.120,-0.068
27.125,-0.067
27.130,-0.072
27.135,-0.074
27.140,-0.074
27.145,-0.076
27.150,-0.073
27.155,-0.066
27.160,-0.067
27.165,-0.068
27.170,-0.067
27.175,-0.067
27.180,-0.068
27.185,-0.066
27.190,-0.065
27.195,-0.065
27.200,-0.065
27.205,-0.066
27.210,-0.066
27.215,-0.065
27.220,-0.063
27.225,-0.064
27.230,-0.061
27.235,-0.057
27.240,-0.056
27.245,-0.055
27.250,-0.053
27.255,-0.053
27.260,-0.051
27.265,-0.051
27.270,-0.052
27.275,-0.051
27.280,-0.048
27.285,-0.048
27.290,-0.048
27.295,-0.045
27.300,-0.045
27.305,-0.056
27.310,-0.072
27.315,-0.093
27.320,-0.114
27.325,-0.129
27.330,-0.136
27.335,-0.138
27.340,-0.133
27.345,-0.114
27.350,-0.098
27.355,-0.101
27.360,-0.101
27.365,-0.077
27.370,-0.036
27.375,0.003
27.380,0.025
27.385,0.033
27.390,0.039
27.395,0.044
27.400,0.050
27.405,0.062
27.410,0.068
27.415,0.064
27.420,0.069
27.425,0.076
27.430,0.070
27.435,0.056
27.440,0.046
27.445,0.045
27.450,0.042
27.455,0.031
27.460,0.023
27.465,-0.001
27.470,-0.115
27.475,-0.391
27.480,-0.801
27.485,-1.204
27.490,-1.445
27.495,-1.371
27.500,-0.823
27.505,-0.055
27.510,0.406
27.515,0.491
27.520,0.431
27.525,0.368
27.530,0.351
27.535,0.340
27.540,0.315
27.545,0.297
27.550,0.290
27.555,0.284
27.560,0.271
27.565,0.257
27.570,0.245
27.575,0.232
27.580,0.216
27.585,0.203
27.590,0.196
27.595,0.186
27.600,0.173
27.605,0.161
27.610,0.151
27.615,0.140
27.620,0.127
27.625,0.115
27.630,0.104
27.635,0.096
27.640,0.088
27.645,0.077
27.650,0.067
27.655,0.056
27.660,0.044
27.665,0.032
27.670,0.025
27.675,0.019
27.680,0.004
27.685,-0.011
27.690,-0.021
27.695,-0.034
27.700,-0.049
27.705,-0.060
27.710,-0.075
27.715,-0.095
27.720,-0.113
27.725,-0.129
27.730,-0.150
27.735,-0.174
27.740,-0.192
27.745,-0.208
27.750,-0.230
27.755,-0.250
27.760,-0.267
27.765,-0.277
27.770,-0.280
27.775,-0.278
27.780,-0.274
27.785,-0.267
27.790,-0.252
27.795,-0.230
27.800,-0.201
27.805,-0.161
27.810,-0.106
27.815,-0.042
27.820,0.024
27.825,0.091
27.830,0.155
27.835,0.211
27.840,0.255
27.845,0.293
27.850,0.326
27.855,0.343
27.860,0.346
27.865,0.346
27.870,0.345
27.875,0.341
27.880,0.332
27.885,0.322
27.890,0.313
27.895,0.303
27.900,0.290
27.905,0.278
27.910,0.265
27.915,0.249
27.920,0.238
27.925,0.226
27.930,0.209
27.935,0.199
27.940,0.190
27.945,0.178
27.950,0.165
27.955,0.156
27.960,0.149
27.965,0.138
27.970,0.127
27.975,0.119
27.980,0.112
27.985,0.099
27.990,0.084
27.995,0.074
28.000,0.071
28.005,0.067
28.010,0.061
28.015,0.056
28.020,0.047
28.025,0.038
28.030,0.033
28.035,0.026
28.040,0.022
28.045,0.019
28.050,0.013
28.055,0.009
28.060,0.002
28.065,-0.005
28.070,-0.008
28.075,-0.011
28.080,-0.016
28.085,-0.022
28.090,-0.024
28.095,-0.024
28.100,-0.029
28.105,-0.033
28.110,-0.033
28.115,-0.034
28.120,-0.037
28.125,-0.042
28.130,-0.050
28.135,-0.058
28.140,-0.053
28.145,-0.048
28.150,-0.051
28.155,-0.051
28.160,-0.059
28.165,-0.069
28.170,-0.070
28.175,-0.068
28.180,-0.067
28.185,-0.067
28.190,-0.069
28.195,-0.070
28.200,-0.071
28.205,-0.069
28.210,-0.069
28.215,-0.072
28.220,-0.071
28.225,-0.066
28.230,-0.072
28.235,-0.079
28.240,-0.079
28.245,-0.079
28.250,-0.082
28.255,-0.080
28.260,-0.073
28.265,-0.069
28.270,-0.072
28.275,-0.073
28.280,-0.073
28.285,-0.069
28.290,-0.065
28.295,-0.065
28.300,-0.065
28.305,-0.066
28.310,-0.068
28.315,-0.071
28.320,-0.066
28.325,-0.064
28.330,-0.069
28.335,-0.066
28.340,-0.063
28.345,-0.065
28.350,-0.064
28.355,-0.063
28.360,-0.060
28.365,-0.051
28.370,-0.046
28.375,-0.048
28.380,-0.049
28.385,-0.053
28.390,-0.057
28.395,-0.053
28.400,-0.045
28.405,-0.042
28.410,-0.043
28.415,-0.047
28.420,-0.054
28.425,-0.056
28.430,-0.065
28.435,-0.088
28.440,-0.110
28.445,-0.120
28.450,-0.127
28.455,-0.136
28.460,-0.134
28.465,-0.115
28.470,-0.102
28.475,-0.103
28.480,-0.098
28.485,-0.081
28.490,-0.044
28.495,-0.008
28.500,0.014
28.505,0.034
28.510,0.046
28.515,0.049
28.520,0.060
28.525,0.070
28.530,0.067
28.535,0.064
28.540,0.064
28.545,0.064
28.550,0.059
28.555,0.052
28.560,0.051
28.565,0.049
28.570,0.038
28.575,0.025
28.580,0.020
28.585,-0.013
28.590,-0.158
28.595,-0.471
28.600,-0.912
28.605,-1.314
28.610,-1.526
28.615,-1.370
28.620,-0.712
28.625,0.066
28.630,0.441
28.635,0.483
28.640,0.449
28.645,0.393
28.650,0.362
28.655,0.354
28.660,0.332
28.665,0.315
28.670,0.306
28.675,0.294
28.680,0.281
28.685,0.266
28.690,0.247
28.695,0.234
28.700,0.226
28.705,0.215
28.710,0.200
28.715,0.181
28.720,0.168
28.725,0.165
28.730,0.161
28.735,0.152
28.740,0.136
28.745,0.121
28.750,0.111
28.755,0.099
28.760,0.089
28.765,0.079
28.770,0.069
28.775,0.061
28.780,0.052
28.785,0.037
28.790,0.021
28.795,0.012
28.800,0.003
28.805,-0.015
28.810,-0.030
28.815,-0.037
28.820,-0.047
28.825,-0.067
28.830,-0.087
28.835,-0.104
28.840,-0.125
28.845,-0.149
28.850,-0.178
28.855,-0.198
28.860,-0.207
28.865,-0.222
28.870,-0.247
28.875,-0.270
28.880,-0.281
28.885,-0.289
28.890,-0.297
28.895,-0.298
28.900,-0.292
28.905,-0.281
28.910,-0.265
28.915,-0.240
28.920,-0.203
28.925,-0.153
28.930,-0.098
28.935,-0.037
28.940,0.037
28.945,0.112
28.950,0.178
28.955,0.237
28.960,0.287
28.965,0.320
28.970,0.341
28.975,0.356
28.980,0.365
28.985,0.367
28.990,0.366
28.995,0.363
29.000,0.356
29.005,0.345
29.010,0.330
29.015,0.314
29.020,0.301
29.025,0.285
29.030,0.272
29.035,0.265
29.040,0.253
29.045,0.237
29.050,0.221
29.055,0.207
29.060,0.196
29.065,0.183
29.070,0.173
29.075,0.166
29.080,0.157
29.085,0.143
29.090,0.127
29.095,0.115
29.100,0.106
29.105,0.095
29.110,0.085
29.115,0.076
29.120,0.067
29.125,0.061
29.130,0.053
29.135,0.046
29.140,0.042
29.145,0.036
29.150,0.032
29.155,0.024
29.160,0.013
29.165,0.010
29.170,0.009
29.175,0.002
29.180,-0.001
29.185,-0.002
29.190,-0.008
29.195,-0.012
29.200,-0.016
29.205,-0.022
29.210,-0.026
29.215,-0.032
29.220,-0.036
29.225,-0.038
29.230,-0.043
29.235,-0.045
29.240,-0.043
29.245,-0.043
29.250,-0.048
29.255,-0.050
29.260,-0.051
29.265,-0.053
29.270,-0.055
29.275,-0.060
29.280,-0.067
29.285,-0.068
29.290,-0.066
29.295,-0.066
29.300,-0.072
29.305,-0.075
29.310,-0.072
29.315,-0.071
29.320,-0.075
29.325,-0.079
29.330,-0.076
29.335,-0.071
29.340,-0.071
29.345,-0.078
29.350,-0.081
29.355,-0.072
29.360,-0.069
29.365,-0.074
29.370,-0.075
29.375,-0.075
29.380,-0.080
29.385,-0.082
29.390,-0.080
29.395,-0.078
29.400,-0.073
29.405,-0.071
29.410,-0.071
29.415,-0.074
29.420,-0.076
29.425,-0.071
29.430,-0.066
29.435,-0.068
29.440,-0.069
29.445,-0.068
29.450,-0.064
29.455,-0.058
29.460,-0.058
29.465,-0.062
29.470,-0.066
29.475,-0.067
29.480,-0.066
29.485,-0.067
29.490,-0.067
29.495,-0.077
29.500,-0.106
29.505,-0.135
29.510,-0.145
29.515,-0.140
29.520,-0.140
29.525,-0.139
29.530,-0.125
29.535,-0.115
29.540,-0.113
29.545,-0.104
29.550,-0.076
29.555,-0.034
29.560,-0.004
29.565,0.000
29.570,0.000
29.575,0.016
29.580,0.030
29.585,0.039
29.590,0.051
29.595,0.050
29.600,0.049
29.605,0.057
29.610,0.059
29.615,0.054
29.620,0.045
29.625,0.035
29.630,0.029
29.635,0.024
29.640,0.019
29.645,0.014
29.650,-0.060
29.655,-0.292
29.660,-0.696
29.665,-1.169
29.670,-1.515
29.675,-1.585
29.680,-1.185
29.685,-0.363
29.690,0.294
29.695,0.496
29.700,0.486
29.705,0.429
29.710,0.384
29.715,0.365
29.720,0.339
29.725,0.317
29.730,0.308
29.735,0.300
29.740,0.288
29.745,0.276
29.750,0.266
29.755,0.253
29.760,0.237
29.765,0.221
29.770,0.205
29.775,0.195
29.780,0.191
29.785,0.182
29.790,0.165
29.795,0.150
29.800,0.137
29.805,0.125
29.810,0.115
29.815,0.106
29.820,0.100
29.825,0.091
29.830,0.079
29.835,0.067
29.840,0.052
29.845,0.041
29.850,0.036
29.855,0.027
29.860,0.012
29.865,0.000
29.870,-0.013
29.875,-0.030
29.880,-0.046
29.885,-0.060
29.890,-0.075
29.895,-0.096
29.900,-0.118
29.905,-0.138
29.910,-0.160
29.915,-0.183
29.920,-0.203
29.925,-0.222
29.930,-0.242
29.935,-0.259
29.940,-0.273
29.945,-0.284
29.950,-0.290
29.955,-0.291
29.960,-0.286
29.965,-0.279
29.970,-0.267
29.975,-0.245
29.980,-0.217
29.985,-0.177
29.990,-0.122
29.995,-0.059
30.000,0.006
30.005,0.075
30.010,0.145
30.015,0.210
30.020,0.261
30.025,0.296
30.030,0.325
30.035,0.348
30.040,0.361
30.045,0.361
30.050,0.361
30.055,0.364
30.060,0.362
30.065,0.349
30.070,0.333
30.075,0.316
30.080,0.300
30.085,0.287
30.090,0.275
30.095,0.265
30.100,0.257
30.105,0.244
30.110,0.225
30.115,0.216
30.120,0.207
30.125,0.190
30.130,0.178
30.135,0.170
30.140,0.155
30.145,0.141
30.150,0.133
30.155,0.123
30.160,0.111
30.165,0.104
30.170,0.094
30.175,0.083
30.180,0.074
30.185,0.069
30.190,0.064
30.195,0.055
30.200,0.046
30.205,0.038
30.210,0.032
30.215,0.027
30.220,0.021
30.225,0.013
30.230,0.006
30.235,0.006
30.240,0.002
30.245,-0.006
30.250,-0.010
30.255,-0.012
30.260,-0.013
30.265,-0.014
30.270,-0.021
30.275,-0.026
30.280,-0.031
30.285,-0.035
30.290,-0.035
30.295,-0.039
30.300,-0.045
30.305,-0.050
30.310,-0.050
30.315,-0.052
30.320,-0.055
30.325,-0.056
30.330,-0.063
30.335,-0.069
30.340,-0.068
30.345,-0.065
30.350,-0.065
30.355,-0.064
30.360,-0.064
30.365,-0.068
30.370,-0.074
30.375,-0.074
30.380,-0.071
30.385,-0.069
30.390,-0.068
30.395,-0.071
30.400,-0.073
30.405,-0.075
30.410,-0.077
30.415,-0.074
30.420,-0.074
30.425,-0.078
30.430,-0.079
30.435,-0.073
30.440,-0.065
30.445,-0.064
30.450,-0.068
30.455,-0.072
30.460,-0.072
30.465,-0.071
30.470,-0.072
30.475,-0.070
30.480,-0.063
30.485,-0.061
30.490,-0.064
30.495,-0.067
30.500,-0.066
30.505,-0.063
30.510,-0.061
30.515,-0.058
30.520,-0.057
30.525,-0.059
30.530,-0.062
30.535,-0.061
30.540,-0.056
30.545,-0.052
30.550,-0.051
30.555,-0.056
30.560,-0.066
30.565,-0.081
30.570,-0.105
30.575,-0.130
30.580,-0.141
30.585,-0.138
30.590,-0.136
30.595,-0.135
30.600,-0.117
30.605,-0.104
30.610,-0.106
30.615,-0.104
30.620,-0.079
30.625,-0.038
30.630,-0.003
30.635,0.012
30.640,0.017
30.645,0.027
30.650,0.036
30.655,0.047
30.660,0.060
30.665,0.060
30.670,0.055
30.675,0.057
30.680,0.058
30.685,0.054
30.690,0.048
30.695,0.043
30.700,0.038
30.705,0.028
30.710,0.020
30.715,0.016
30.720,-0.034
30.725,-0.213
30.730,-0.555
30.735,-1.000
30.740,-1.376
30.745,-1.537
30.750,-1.292
30.755,-0.576
30.760,0.149
30.765,0.471
30.770,0.485
30.775,0.412
30.780,0.369
30.785,0.358
30.790,0.345
30.795,0.331
30.800,0.313
30.805,0.294
30.810,0.282
30.815,0.270
30.820,0.259
30.825,0.250
30.830,0.240
30.835,0.230
30.840,0.217
30.845,0.196
30.850,0.179
30.855,0.167
30.860,0.156
30.865,0.148
30.870,0.140
30.875,0.131
30.880,0.119
30.885,0.103
30.890,0.093
30.895,0.087
30.900,0.079
30.905,0.070
30.910,0.057
30.915,0.039
30.920,0.027
30.925,0.021
30.930,0.013
30.935,0.001
30.940,-0.013
30.945,-0.028
30.950,-0.042
30.955,-0.057
30.960,-0.075
30.965,-0.090
30.970,-0.104
30.975,-0.126
30.980,-0.148
30.985,-0.169
30.990,-0.194
30.995,-0.214
31.000,-0.230
31.005,-0.248
31.010,-0.267
31.015,-0.278
31.020,-0.280
31.025,-0.284
31.030,-0.284
31.035,-0.277
31.040,-0.268
31.045,-0.255
31.050,-0.229
31.055,-0.191
31.060,-0.145
31.065,-0.084
31.070,-0.015
31.075,0.053
31.080,0.117
31.085,0.181
31.090,0.237
31.095,0.277
31.100,0.310
31.105,0.337
31.110,0.349
31.115,0.351
31.120,0.350
31.125,0.347
31.130,0.342
31.135,0.338
31.140,0.331
31.145,0.317
31.150,0.303
31.155,0.289
31.160,0.275
31.165,0.267
31.170,0.257
31.175,0.244
31.180,0.234
31.185,0.221
31.190,0.204
31.195,0.190
31.200,0.179
31.205,0.166
31.210,0.154
31.215,0.147
31.220,0.138
31.225,0.126
31.230,0.115
31.235,0.106
31.240,0.098
31.245,0.090
31.250,0.082
31.255,0.073
31.260,0.065
31.265,0.058
31.270,0.048
31.275,0.039
31.280,0.033
31.285,0.030
31.290,0.025
31.295,0.018
31.300,0.014
31.305,0.009
31.310,0.005
31.315,0.003
31.320,-0.006
31.325,-0.016
31.330,-0.017
31.335,-0.019
31.340,-0.022
31.345,-0.024
31.350,-0.028
31.355,-0.033
31.360,-0.036
31.365,-0.040
31.370,-0.043
31.375,-0.044
31.380,-0.045
31.385,-0.051
31.390,-0.058
31.395,-0.058
31.400,-0.059
31.405,-0.061
31.410,-0.061
31.415,-0.061
31.420,-0.063
31.425,-0.066
31.430,-0.069
31.435,-0.071
31.440,-0.069
31.445,-0.066
31.450,-0.065
31.455,-0.068
31.460,-0.069
31.465,-0.069
31.470,-0.071
31.475,-0.073
31.480,-0.075
31.485,-0.077
31.490,-0.075
31.495,-0.073
31.500,-0.073
31.505,-0.071
31.510,-0.066
31.515,-0.067
31.520,-0.073
31.525,-0.077
31.530,-0.076
31.535,-0.074
31.540,-0.070
31.545,-0.061
31.550,-0.058
31.555,-0.069
31.560,-0.074
31.565,-0.070
31.570,-0.071
31.575,-0.070
31.580,-0.065
31.585,-0.060
31.590,-0.061
31.595,-0.065
31.600,-0.066
31.605,-0.062
31.610,-0.057
31.615,-0.056
31.620,-0.057
31.625,-0.055
31.630,-0.053
31.635,-0.058
31.640,-0.069
31.645,-0.083
31.650,-0.101
31.655,-0.120
31.660,-0.135
31.665,-0.148
31.670,-0.154
31.675,-0.145
31.680,-0.125
31.685,-0.111
31.690,-0.111
31.695,-0.104
31.700,-0.082
31.705,-0.047
31.710,-0.006
31.715,0.018
31.720,0.024
31.725,0.029
31.730,0.035
31.735,0.047
31.740,0.066
31.745,0.073
31.750,0.070
31.755,0.068
31.760,0.066
31.765,0.062
31.770,0.055
31.775,0.051
31.780,0.046
31.785,0.035
31.790,0.024
31.795,0.015
31.800,-0.012
31.805,-0.124
31.810,-0.397
31.815,-0.806
31.820,-1.211
31.825,-1.452
31.830,-1.361
31.835,-0.790
31.840,-0.029
31.845,0.418
31.850,0.500
31.855,0.431
31.860,0.361
31.865,0.341
31.870,0.329
31.875,0.314
31.880,0.301
31.885,0.287
31.890,0.274
31.895,0.258
31.900,0.245
31.905,0.231
31.910,0.223
31.915,0.217
31.920,0.204
31.925,0.191
31.930,0.175
31.935,0.156
31.940,0.145
31.945,0.139
31.950,0.128
31.955,0.116
31.960,0.111
31.965,0.110
31.970,0.100
31.975,0.082
31.980,0.065
31.985,0.053
31.990,0.045
31.995,0.035
32.000,0.027
32.005,0.021
32.010,0.011
32.015,0.001
32.020,-0.011
32.025,-0.028
32.030,-0.039
32.035,-0.048
32.040,-0.066
32.045,-0.086
32.050,-0.101
32.055,-0.117
32.060,-0.135
32.065,-0.156
32.070,-0.180
32.075,-0.201
32.080,-0.216
32.085,-0.235
32.090,-0.256
32.095,-0.267
32.100,-0.272
32.105,-0.278
32.110,-0.278
32.115,-0.270
32.120,-0.259
32.125,-0.248
32.130,-0.231
32.135,-0.201
32.140,-0.158
32.145,-0.103
32.150,-0.039
32.155,0.030
32.160,0.101
32.165,0.164
32.170,0.215
32.175,0.263
32.180,0.297
32.185,0.320
32.190,0.338
32.195,0.347
32.200,0.353
32.205,0.355
32.210,0.347
32.215,0.334
32.220,0.320
32.225,0.306
32.230,0.293
32.235,0.278
32.240,0.268
32.245,0.257
32.250,0.245
32.255,0.232
32.260,0.217
32.265,0.209
32.270,0.204
32.275,0.188
32.280,0.174
32.285,0.166
32.290,0.155
32.295,0.146
32.300,0.134
32.305,0.120
32.310,0.111
32.315,0.104
32.320,0.096
32.325,0.086
32.330,0.083
32.335,0.079
32.340,0.063
32.345,0.052
32.350,0.050
32.355,0.042
32.360,0.035
32.365,0.030
32.370,0.024
32.375,0.020
32.380,0.015
32.385,0.012
32.390,0.010
32.395,0.004
32.400,-0.006
32.405,-0.018
32.410,-0.021
32.415,-0.021
32.420,-0.022
32.425,-0.022
32.430,-0.023
32.435,-0.023
32.440,-0.027
32.445,-0.034
32.450,-0.037
32.455,-0.041
32.460,-0.043
32.465,-0.044
32.470,-0.048
32.475,-0.047
32.480,-0.045
32.485,-0.048
32.490,-0.052
32.495,-0.053
32.500,-0.058
32.505,-0.060
32.510,-0.058
32.515,-0.060
32.520,-0.064
32.525,-0.064
32.530,-0.063
32.535,-0.062
32.540,-0.062
32.545,-0.064
32.550,-0.068
32.555,-0.071
32.560,-0.073
32.565,-0.073
32.570,-0.070
32.575,-0.067
32.580,-0.066
32.585,-0.070
32.590,-0.071
32.595,-0.071
32.600,-0.068
32.605,-0.066
32.610,-0.071
32.615,-0.072
32.620,-0.071
32.625,-0.070
32.630,-0.065
32.635,-0.060
32.640,-0.058
32.645,-0.060
32.650,-0.066
32.655,-0.065
32.660,-0.059
32.665,-0.057
32.670,-0.060
32.675,-0.059
32.680,-0.058
32.685,-0.056
32.690,-0.053
32.695,-0.049
32.700,-0.047
32.705,-0.054
32.710,-0.062
32.715,-0.067
32.720,-0.072
32.725,-0.081
32.730,-0.105
32.735,-0.131
32.740,-0.138
32.745,-0.132
32.750,-0.134
32.755,-0.134
32.760,-0.118
32.765,-0.110
32.770,-0.113
32.775,-0.104
32.780,-0.086
32.785,-0.051
32.790,-0.010
32.795,0.006
32.800,0.016
32.805,0.034
32.810,0.042
32.815,0.047
32.820,0.054
32.825,0.057
32.830,0.061
32.835,0.066
32.840,0.060
32.845,0.048
32.850,0.039
32.855,0.034
32.860,0.034
32.865,0.028
32.870,0.014
32.875,0.013
32.880,-0.013
32.885,-0.162
32.890,-0.484
32.895,-0.938
32.900,-1.351
32.905,-1.560
32.910,-1.388
32.915,-0.708
32.920,0.080
32.925,0.451
32.930,0.486
32.935,0.449
32.940,0.393
32.945,0.363
32.950,0.354
32.955,0.330
32.960,0.304
32.965,0.292
32.970,0.286
32.975,0.272
32.980,0.259
32.985,0.247
32.990,0.235
32.995,0.222
33.000,0.207
33.005,0.201
33.010,0.194
33.015,0.177
33.020,0.155
33.025,0.133
33.030,0.127
33.035,0.128
33.040,0.119
33.045,0.107
33.050,0.097
33.055,0.086
33.060,0.075
33.065,0.065
33.070,0.058
33.075,0.048
33.080,0.039
33.085,0.030
33.090,0.017
33.095,0.000
33.100,-0.017
33.105,-0.031
33.110,-0.043
33.115,-0.052
33.120,-0.065
33.125,-0.089
33.130,-0.118
33.135,-0.141
33.140,-0.152
33.145,-0.163
33.150,-0.185
33.155,-0.210
33.160,-0.232
33.165,-0.255
33.170,-0.275
33.175,-0.288
33.180,-0.294
33.185,-0.293
33.190,-0.290
33.195,-0.292
33.200,-0.284
33.205,-0.263
33.210,-0.233
33.215,-0.191
33.220,-0.142
33.225,-0.083
33.230,-0.013
33.235,0.059
33.240,0.134
33.245,0.199
33.250,0.249
33.255,0.296
33.260,0.332
33.265,0.352
33.270,0.362
33.275,0.365
33.280,0.374
33.285,0.382
33.290,0.375
33.295,0.363
33.300,0.350
33.305,0.331
33.310,0.319
33.315,0.306
33.320,0.287
33.325,0.270
33.330,0.258
33.335,0.249
33.340,0.240
33.345,0.228
33.350,0.209
33.355,0.199
33.360,0.196
33.365,0.178
33.370,0.155
33.375,0.144
33.380,0.133
33.385,0.121
33.390,0.114
33.395,0.105
33.400,0.094
33.405,0.088
33.410,0.084
33.415,0.075
33.420,0.060
33.425,0.048
33.430,0.042
33.435,0.036
33.440,0.024
33.445,0.016
33.450,0.017
33.455,0.017
33.460,0.009
33.465,0.000
33.470,-0.005
33.475,-0.003
33.480,-0.005
33.485,-0.010
33.490,-0.011
33.495,-0.018
33.500,-0.028
33.505,-0.030
33.510,-0.029
33.515,-0.036
33.520,-0.047
33.525,-0.050
33.530,-0.046
33.535,-0.043
33.540,-0.044
33.545,-0.049
33.550,-0.055
33.555,-0.059
33.560,-0.061
33.565,-0.063
33.570,-0.065
33.575,-0.063
33.580,-0.063
33.585,-0.064
33.590,-0.068
33.595,-0.070
33.600,-0.069
33.605,-0.071
33.610,-0.077
33.615,-0.076
33.620,-0.074
33.625,-0.074
33.630,-0.079
33.635,-0.088
33.640,-0.084
33.645,-0.077
33.650,-0.081
33.655,-0.082
33.660,-0.079
33.665,-0.075
33.670,-0.073
33.675,-0.077
33.680,-0.077
33.685,-0.076
33.690,-0.076
33.695,-0.074
33.700,-0.075
33.705,-0.075
33.710,-0.073
33.715,-0.075
33.720,-0.074
33.725,-0.069
33.730,-0.061
33.735,-0.062
33.740,-0.077
33.745,-0.085
33.750,-0.084
33.755,-0.098
33.760,-0.121
33.765,-0.133
33.770,-0.140
33.775,-0.148
33.780,-0.150
33.785,-0.136
33.790,-0.120
33.795,-0.116
33.800,-0.113
33.805,-0.101
33.810,-0.070
33.815,-0.034
33.820,-0.020
33.825,-0.012
33.830,0.007
33.835,0.022
33.840,0.032
33.845,0.042
33.850,0.045
33.855,0.047
33.860,0.054
33.865,0.053
33.870,0.043
33.875,0.036
33.880,0.031
33.885,0.025
33.890,0.020
33.895,0.020
33.900,0.025
33.905,-0.004
33.910,-0.158
33.915,-0.509
33.920,-1.005
33.925,-1.458
33.930,-1.703
33.935,-1.552
33.940,-0.841
33.945,0.030
33.950,0.469
33.955,0.522
33.960,0.480
33.965,0.413
33.970,0.376
33.975,0.370
33.980,0.349
33.985,0.330
33.990,0.318
33.995,0.308
34.000,0.296
34.005,0.279
34.010,0.265
34.015,0.251
34.020,0.236
34.025,0.221
34.030,0.207
34.035,0.199
34.040,0.191
34.045,0.176
34.050,0.158
34.055,0.140
34.060,0.126
34.065,0.120
34.070,0.116
34.075,0.105
34.080,0.092
34.085,0.084
34.090,0.073
34.095,0.061
34.100,0.053
34.105,0.044
34.110,0.034
34.115,0.020
34.120,0.002
34.125,-0.011
34.130,-0.021
34.135,-0.034
34.140,-0.052
34.145,-0.074
34.150,-0.096
34.155,-0.113
34.160,-0.131
34.165,-0.155
34.170,-0.177
34.175,-0.198
34.180,-0.217
34.185,-0.232
34.190,-0.251
34.195,-0.271
34.200,-0.284
34.205,-0.291
34.210,-0.295
34.215,-0.293
34.220,-0.285
34.225,-0.274
34.230,-0.256
34.235,-0.228
34.240,-0.189
34.245,-0.134
34.250,-0.063
34.255,0.006
34.260,0.071
34.265,0.138
34.270,0.203
34.275,0.260
34.280,0.304
34.285,0.337
34.290,0.361
34.295,0.371
34.300,0.371
34.305,0.371
34.310,0.369
34.315,0.360
34.320,0.350
34.325,0.340
34.330,0.328
34.335,0.315
34.340,0.303
34.345,0.289
34.350,0.275
34.355,0.260
34.360,0.247
34.365,0.239
34.370,0.225
34.375,0.203
34.380,0.187
34.385,0.179
34.390,0.172
34.395,0.159
34.400,0.143
34.405,0.134
34.410,0.124
34.415,0.111
34.420,0.101
34.425,0.091
34.430,0.081
34.435,0.071
34.440,0.066
34.445,0.061
34.450,0.053
34.455,0.045
34.460,0.039
34.465,0.030
34.470,0.020
34.475,0.014
34.480,0.009
34.485,0.005
34.490,0.003
34.495,0.001
34.500,-0.003
34.505,-0.009
34.510,-0.013
34.515,-0.018
34.520,-0.024
34.525,-0.027
34.530,-0.028
34.535,-0.031
34.540,-0.033
34.545,-0.034
34.550,-0.038
34.555,-0.044
34.560,-0.050
34.565,-0.053
34.570,-0.055
34.575,-0.061
34.580,-0.061
34.585,-0.059
34.590,-0.063
34.595,-0.064
34.600,-0.062
34.605,-0.063
34.610,-0.066
34.615,-0.068
34.620,-0.072
34.625,-0.075
34.630,-0.074
34.635,-0.071
34.640,-0.072
34.645,-0.078
34.650,-0.079
34.655,-0.076
34.660,-0.073
34.665,-0.077
34.670,-0.082
34.675,-0.079
34.680,-0.077
34.685,-0.079
34.690,-0.078
34.695,-0.076
34.700,-0.078
34.705,-0.079
34.710,-0.074
34.715,-0.074
34.720,-0.075
34.725,-0.072
34.730,-0.073
34.735,-0.071
34.740,-0.067
34.745,-0.070
34.750,-0.075
34.755,-0.072
34.760,-0.066
34.765,-0.066
34.770,-0.066
34.775,-0.062
34.780,-0.063
34.785,-0.073
34.790,-0.081
34.795,-0.091
34.800,-0.115
34.805,-0.138
34.810,-0.147
34.815,-0.147
34.820,-0.148
34.825,-0.146
34.830,-0.130
34.835,-0.121
34.840,-0.122
34.845,-0.111
34.850,-0.091
34.855,-0.059
34.860,-0.019
34.865,-0.001
34.870,0.001
34.875,0.007
34.880,0.017
34.885,0.029
34.890,0.042
34.895,0.044
34.900,0.043
34.905,0.046
34.910,0.048
34.915,0.047
34.920,0.041
34.925,0.036
34.930,0.036
34.935,0.029
34.940,0.017
34.945,0.012
34.950,-0.024
34.955,-0.181
34.960,-0.514
34.965,-0.976
34.970,-1.398
34.975,-1.619
34.980,-1.449
34.985,-0.770
34.990,0.042
34.995,0.477
35.000,0.526
35.005,0.450
35.010,0.395
35.015,0.378
35.020,0.366
35.025,0.350
35.030,0.335
35.035,0.317
35.040,0.301
35.045,0.286
35.050,0.273
35.055,0.265
35.060,0.254
35.065,0.238
35.070,0.216
35.075,0.199
35.080,0.195
35.085,0.189
35.090,0.176
35.095,0.164
35.100,0.151
35.105,0.138
35.110,0.125
35.115,0.113
35.120,0.104
35.125,0.095
35.130,0.086
35.135,0.077
35.140,0.067
35.145,0.054
35.150,0.037
35.155,0.027
35.160,0.023
35.165,0.013
35.170,-0.004
35.175,-0.022
35.180,-0.042
35.185,-0.054
35.190,-0.068
35.195,-0.088
35.200,-0.108
35.205,-0.126
35.210,-0.145
35.215,-0.166
35.220,-0.186
35.225,-0.205
35.230,-0.225
35.235,-0.244
35.240,-0.260
35.245,-0.274
35.250,-0.283
35.255,-0.287
35.260,-0.285
35.265,-0.281
35.270,-0.272
35.275,-0.253
35.280,-0.224
35.285,-0.186
35.290,-0.140
35.295,-0.083
35.300,-0.012
35.305,0.067
35.310,0.139
35.315,0.199
35.320,0.251
35.325,0.296
35.330,0.331
35.335,0.352
35.340,0.360
35.345,0.365
35.350,0.367
35.355,0.363
35.360,0.352
35.365,0.340
35.370,0.330
35.375,0.319
35.380,0.305
35.385,0.289
35.390,0.276
35.395,0.266
35.400,0.255
35.405,0.239
35.410,0.225
35.415,0.209
35.420,0.193
35.425,0.185
35.430,0.179
35.435,0.164
35.440,0.151
35.445,0.145
35.450,0.134
35.455,0.119
35.460,0.108
35.465,0.099
35.470,0.088
35.475,0.081
35.480,0.076
35.485,0.070
35.490,0.063
35.495,0.053
35.500,0.041
35.505,0.031
35.510,0.025
35.515,0.018
35.520,0.011
35.525,0.010
35.530,0.009
35.535,0.000
35.540,0.000
35.545,0.002
35.550,-0.010
35.555,-0.025
35.560,-0.027
35.565,-0.027
35.570,-0.031
35.575,-0.035
35.580,-0.034
35.585,-0.036
35.590,-0.043
35.595,-0.046
35.600,-0.046
35.605,-0.048
35.610,-0.052
35.615,-0.054
35.620,-0.054
35.625,-0.053
35.630,-0.056
35.635,-0.062
35.640,-0.062
35.645,-0.061
35.650,-0.063
35.655,-0.064
35.660,-0.065
35.665,-0.069
35.670,-0.074
35.675,-0.076
35.680,-0.074
35.685,-0.073
35.690,-0.074
35.695,-0.074
35.700,-0.071
35.705,-0.070
35.710,-0.072
35.715,-0.075
35.720,-0.077
35.725,-0.075
35.730,-0.072
35.735,-0.074
35.740,-0.077
35.745,-0.077
35.750,-0.074
35.755,-0.072
35.760,-0.075
35.765,-0.077
35.770,-0.074
35.775,-0.072
35.780,-0.073
35.785,-0.074
35.790,-0.076
35.795,-0.077
35.800,-0.072
35.805,-0.067
35.810,-0.064
35.815,-0.063
35.820,-0.065
35.825,-0.065
35.830,-0.063
35.835,-0.064
35.840,-0.069
35.845,-0.079
35.850,-0.088
35.855,-0.102
35.860,-0.127
35.865,-0.148
35.870,-0.152
35.875,-0.149
35.880,-0.145
35.885,-0.134
35.890,-0.122
35.895,-0.123
35.900,-0.120
35.905,-0.101
35.910,-0.064
35.915,-0.020
35.920,0.004
35.925,0.005
35.930,0.007
35.935,0.017
35.940,0.030
35.945,0.046
35.950,0.056
35.955,0.058
35.960,0.055
35.965,0.049
35.970,0.044
35.975,0.043
35.980,0.044
35.985,0.039
35.990,0.029
35.995,0.021
36.000,0.014
36.005,-0.003
36.010,-0.095
36.015,-0.347
36.020,-0.756
36.025,-1.203
36.030,-1.514
36.035,-1.528
36.040,-1.054
36.045,-0.234
36.050,0.359
36.055,0.523
36.060,0.476
36.065,0.397
36.070,0.367
36.075,0.364
36.080,0.348
36.085,0.325
36.090,0.310
36.095,0.303
36.100,0.290
36.105,0.275
36.110,0.264
36.115,0.252
36.120,0.236
36.125,0.223
36.130,0.213
36.135,0.204
36.140,0.190
36.145,0.174
36.150,0.165
36.155,0.158
36.160,0.148
36.165,0.139
36.170,0.128
36.175,0.119
36.180,0.106
36.185,0.090
36.190,0.078
36.195,0.072
36.200,0.063
36.205,0.051
36.210,0.038
36.215,0.027
36.220,0.015
36.225,0.004
36.230,-0.010
36.235,-0.024
36.240,-0.039
36.245,-0.056
36.250,-0.075
36.255,-0.088
36.260,-0.102
36.265,-0.124
36.270,-0.149
36.275,-0.170
36.280,-0.188
36.285,-0.209
36.290,-0.234
36.295,-0.256
36.300,-0.268
36.305,-0.275
36.310,-0.276
36.315,-0.275
36.320,-0.276
36.325,-0.270
36.330,-0.254
36.335,-0.233
36.340,-0.201
36.345,-0.156
36.350,-0.100
36.355,-0.037
36.360,0.029
36.365,0.098
36.370,0.163
36.375,0.217
36.380,0.265
36.385,0.307
36.390,0.333
36.395,0.348
36.400,0.358
36.405,0.361
36.410,0.357
36.415,0.350
36.420,0.336
36.425,0.322
36.430,0.315
36.435,0.308
36.440,0.296
36.445,0.282
36.450,0.267
36.455,0.251
36.460,0.237
36.465,0.224
36.470,0.214
36.475,0.202
36.480,0.189
36.485,0.177
36.490,0.167
36.495,0.161
36.500,0.152
36.505,0.136
36.510,0.121
36.515,0.110
36.520,0.100
36.525,0.094
36.530,0.087
36.535,0.081
36.540,0.075
36.545,0.065
36.550,0.051
36.555,0.043
36.560,0.040
36.565,0.034
36.570,0.027
36.575,0.024
36.580,0.016
36.585,0.006
36.590,0.001
36.595,-0.002
36.600,-0.005
36.605,-0.006
36.610,-0.011
36.615,-0.021
36.620,-0.024
36.625,-0.025
36.630,-0.028
36.635,-0.030
36.640,-0.033
36.645,-0.036
36.650,-0.042
36.655,-0.042
36.660,-0.042
36.665,-0.045
36.670,-0.045
36.675,-0.046
36.680,-0.054
36.685,-0.059
36.690,-0.059
36.695,-0.060
36.700,-0.060
36.705,-0.060
36.710,-0.062
36.715,-0.067
36.720,-0.074
36.725,-0.079
36.730,-0.076
36.735,-0.072
36.740,-0.071
36.745,-0.073
36.750,-0.074
36.755,-0.075
36.760,-0.077
36.765,-0.078
36.770,-0.078
36.775,-0.074
36.780,-0.071
36.785,-0.073
36.790,-0.075
36.795,-0.076
36.800,-0.076
36.805,-0.075
36.810,-0.073
36.815,-0.071
36.820,-0.073
36.825,-0.075
36.830,-0.074
36.835,-0.073
36.840,-0.072
36.845,-0.068
36.850,-0.065
36.855,-0.065
36.860,-0.066
36.865,-0.065
36.870,-0.065
36.875,-0.066
36.880,-0.063
36.885,-0.058
36.890,-0.059
36.895,-0.058
36.900,-0.054
36.905,-0.059
36.910,-0.074
36.915,-0.091
36.920,-0.111
36.925,-0.134
36.930,-0.149
36.935,-0.149
36.940,-0.149
36.945,-0.145
36.950,-0.126
36.955,-0.114
36.960,-0.114
36.965,-0.107
36.970,-0.085
36.975,-0.048
36.980,-0.009
36.985,0.011
36.990,0.018
36.995,0.024
37.000,0.025
37.005,0.035
37.010,0.056
37.015,0.062
37.020,0.056
37.025,0.058
37.030,0.059
37.035,0.052
37.040,0.045
37.045,0.040
37.050,0.036
37.055,0.032
37.060,0.025
37.065,0.015
37.070,-0.001
37.075,-0.091
37.080,-0.347
37.085,-0.763
37.090,-1.203
37.095,-1.484
37.100,-1.463
37.105,-0.967
37.110,-0.168
37.115,0.375
37.120,0.507
37.125,0.451
37.130,0.378
37.135,0.353
37.140,0.343
37.145,0.324
37.150,0.307
37.155,0.296
37.160,0.285
37.165,0.271
37.170,0.259
37.175,0.248
37.180,0.235
37.185,0.224
37.190,0.211
37.195,0.198
37.200,0.188
37.205,0.172
37.210,0.156
37.215,0.147
37.220,0.137
37.225,0.127
37.230,0.118
37.235,0.110
37.240,0.104
37.245,0.091
37.250,0.074
37.255,0.065
37.260,0.059
37.265,0.049
37.270,0.038
37.275,0.026
37.280,0.014
37.285,0.002
37.290,-0.011
37.295,-0.022
37.300,-0.031
37.305,-0.044
37.310,-0.060
37.315,-0.078
37.320,-0.095
37.325,-0.115
37.330,-0.139
37.335,-0.159
37.340,-0.177
37.345,-0.196
37.350,-0.220
37.355,-0.243
37.360,-0.258
37.365,-0.267
37.370,-0.272
37.375,-0.274
37.380,-0.276
37.385,-0.276
37.390,-0.270
37.395,-0.259
37.400,-0.240
37.405,-0.207
37.410,-0.162
37.415,-0.105
37.420,-0.038
37.425,0.030
37.430,0.093
37.435,0.158
37.440,0.219
37.445,0.264
37.450,0.299
37.455,0.327
37.460,0.347
37.465,0.356
37.470,0.352
37.475,0.349
37.480,0.347
37.485,0.340
37.490,0.332
37.495,0.321
37.500,0.305
37.505,0.290
37.510,0.275
37.515,0.260
37.520,0.246
37.525,0.233
37.530,0.220
37.535,0.212
37.540,0.203
37.545,0.191
37.550,0.178
37.555,0.167
37.560,0.159
37.565,0.153
37.570,0.143
37.575,0.128
37.580,0.114
37.585,0.105
37.590,0.095
37.595,0.089
37.600,0.085
37.605,0.074
37.610,0.062
37.615,0.054
37.620,0.048
37.625,0.041
37.630,0.035
37.635,0.030
37.640,0.024
37.645,0.019
37.650,0.012
37.655,0.003
37.660,-0.003
37.665,-0.003
37.670,-0.006
37.675,-0.010
37.680,-0.015
37.685,-0.019
37.690,-0.015
37.695,-0.018
37.700,-0.029
37.705,-0.033
37.710,-0.033
37.715,-0.034
37.720,-0.035
37.725,-0.036
37.730,-0.040
37.735,-0.047
37.740,-0.052
37.745,-0.051
37.750,-0.052
37.755,-0.057
37.760,-0.059
37.765,-0.060
37.770,-0.063
37.775,-0.062
37.780,-0.058
37.785,-0.061
37.790,-0.065
37.795,-0.065
37.800,-0.063
37.805,-0.065
37.810,-0.067
37.815,-0.065
37.820,-0.067
37.825,-0.073
37.830,-0.075
37.835,-0.073
37.840,-0.073
37.845,-0.072
37.850,-0.070
37.855,-0.066
37.860,-0.067
37.865,-0.074
37.870,-0.075
37.875,-0.070
37.880,-0.071
37.885,-0.074
37.890,-0.074
37.895,-0.067
37.900,-0.063
37.905,-0.066
37.910,-0.068
37.915,-0.065
37.920,-0.066
37.925,-0.070
37.930,-0.070
37.935,-0.068
37.940,-0.063
37.945,-0.056
37.950,-0.053
37.955,-0.059
37.960,-0.065
37.965,-0.063
37.970,-0.057
37.975,-0.054
37.980,-0.050
37.985,-0.053
37.990,-0.063
37.995,-0.074
38.000,-0.088
38.005,-0.109
38.010,-0.129
38.015,-0.136
38.020,-0.135
38.025,-0.137
38.030,-0.135
38.035,-0.118
38.040,-0.110
38.045,-0.111
38.050,-0.098
38.055,-0.068
38.060,-0.030
38.065,0.003
38.070,0.019
38.075,0.023
38.080,0.028
38.085,0.038
38.090,0.051
38.095,0.064
38.100,0.069
38.105,0.064
38.110,0.066
38.115,0.068
38.120,0.061
38.125,0.053
38.130,0.047
38.135,0.041
38.140,0.032
38.145,0.021
38.150,0.015
38.155,-0.013
38.160,-0.131
38.165,-0.406
38.170,-0.817
38.175,-1.222
38.180,-1.458
38.185,-1.356
38.190,-0.778
38.195,-0.020
38.200,0.416
38.205,0.491
38.210,0.428
38.215,0.364
38.220,0.343
38.225,0.329
38.230,0.310
38.235,0.295
38.240,0.284
38.245,0.279
38.250,0.273
38.255,0.259
38.260,0.242
38.265,0.228
38.270,0.214
38.275,0.203
38.280,0.195
38.285,0.182
38.290,0.166
38.295,0.154
38.300,0.147
38.305,0.135
38.310,0.123
38.315,0.117
38.320,0.108
38.325,0.095
38.330,0.087
38.335,0.080
38.340,0.069
38.345,0.059
38.350,0.050
38.355,0.036
38.360,0.024
38.365,0.014
38.370,0.002
38.375,-0.008
38.380,-0.015
38.385,-0.028
38.390,-0.050
38.395,-0.071
38.400,-0.085
38.405,-0.100
38.410,-0.115
38.415,-0.131
38.420,-0.154
38.425,-0.177
38.430,-0.196
38.435,-0.221
38.440,-0.244
38.445,-0.255
38.450,-0.259
38.455,-0.267
38.460,-0.274
38.465,-0.275
38.470,-0.273
38.475,-0.268
38.480,-0.259
38.485,-0.238
38.490,-0.202
38.495,-0.155
38.500,-0.097
38.505,-0.034
38.510,0.029
38.515,0.094
38.520,0.161
38.525,0.221
38.530,0.268
38.535,0.303
38.540,0.330
38.545,0.347
38.550,0.353
38.555,0.356
38.560,0.356
38.565,0.352
38.570,0.342
38.575,0.330
38.580,0.316
38.585,0.301
38.590,0.285
38.595,0.272
38.600,0.261
38.605,0.252
38.610,0.243
38.615,0.234
38.620,0.217
38.625,0.199
38.630,0.189
38.635,0.177
38.640,0.167
38.645,0.163
38.650,0.153
38.655,0.139
38.660,0.126
38.665,0.110
38.670,0.101
38.675,0.098
38.680,0.087
38.685,0.076
38.690,0.071
38.695,0.068
38.700,0.059
38.705,0.050
38.710,0.044
38.715,0.036
38.720,0.025
38.725,0.017
38.730,0.015
38.735,0.008
38.740,-0.001
38.745,-0.004
38.750,-0.008
38.755,-0.010
38.760,-0.007
38.765,-0.010
38.770,-0.020
38.775,-0.031
38.780,-0.038
38.785,-0.036
38.790,-0.033
38.795,-0.033
38.800,-0.030
38.805,-0.031
38.810,-0.042
38.815,-0.051
38.820,-0.055
38.825,-0.059
38.830,-0.060
38.835,-0.057
38.840,-0.061
38.845,-0.063
38.850,-0.061
38.855,-0.065
38.860,-0.065
38.865,-0.063
38.870,-0.067
38.875,-0.068
38.880,-0.067
38.885,-0.072
38.890,-0.080
38.895,-0.082
38.900,-0.076
38.905,-0.068
38.910,-0.068
38.915,-0.071
38.920,-0.070
38.925,-0.067
38.930,-0.070
38.935,-0.077
38.940,-0.079
38.945,-0.079
38.950,-0.078
38.955,-0.074
38.960,-0.068
38.965,-0.066
38.970,-0.069
38.975,-0.074
38.980,-0.075
38.985,-0.072
38.990,-0.070
38.995,-0.067
39.000,-0.061
39.005,-0.060
39.010,-0.062
39.015,-0.059
39.020,-0.054
39.025,-0.054
39.030,-0.057
39.035,-0.059
39.040,-0.059
39.045,-0.063
39.050,-0.068
39.055,-0.077
39.060,-0.105
39.065,-0.131
39.070,-0.138
39.075,-0.137
39.080,-0.137
39.085,-0.133
39.090,-0.122
39.095,-0.119
39.100,-0.120
39.105,-0.109
39.110,-0.086
39.115,-0.050
39.120,-0.015
39.125,0.000
39.130,0.015
39.135,0.027
39.140,0.028
39.145,0.039
39.150,0.051
39.155,0.047
39.160,0.049
39.165,0.053
39.170,0.049
39.175,0.043
39.180,0.037
39.185,0.030
39.190,0.028
39.195,0.023
39.200,0.018
39.205,0.020
39.210,-0.022
39.215,-0.191
39.220,-0.531
39.225,-0.998
39.230,-1.418
39.235,-1.622
39.240,-1.417
39.245,-0.688
39.250,0.119
39.255,0.466
39.260,0.486
39.265,0.455
39.270,0.400
39.275,0.366
39.280,0.350
39.285,0.321
39.290,0.303
39.295,0.294
39.300,0.288
39.305,0.277
39.310,0.264
39.315,0.250
39.320,0.234
39.325,0.219
39.330,0.207
39.335,0.201
39.340,0.194
39.345,0.180
39.350,0.163
39.355,0.150
39.360,0.139
39.365,0.127
39.370,0.119
39.375,0.113
39.380,0.104
39.385,0.091
39.390,0.081
39.395,0.070
39.400,0.060
39.405,0.055
39.410,0.042
39.415,0.025
39.420,0.014
39.425,0.008
39.430,0.017
39.435,0.035
39.440,0.022
39.445,-0.013
39.450,-0.037
39.455,-0.059
39.460,-0.079
39.465,-0.095
39.470,-0.123
39.475,-0.150
39.480,-0.170
39.485,-0.190
39.490,-0.208
39.495,-0.231
39.500,-0.255
39.505,-0.266
39.510,-0.266
39.515,-0.264
39.520,-0.271
39.525,-0.272
39.530,-0.264
39.535,-0.249
39.540,-0.222
39.545,-0.184
39.550,-0.138
39.555,-0.078
39.560,-0.007
39.565,0.064
39.570,0.134
39.575,0.199
39.580,0.253
39.585,0.295
39.590,0.328
39.595,0.351
39.600,0.360
39.605,0.362
39.610,0.362
39.615,0.358
39.620,0.349
39.625,0.339
39.630,0.329
39.635,0.318
39.640,0.304
39.645,0.284
39.650,0.266
39.655,0.257
39.660,0.249
39.665,0.234
39.670,0.218
39.675,0.207
39.680,0.194
39.685,0.180
39.690,0.167
39.695,0.155
39.700,0.148
39.705,0.134
39.710,0.114
39.715,0.108
39.720,0.107
39.725,0.095
39.730,0.077
39.735,0.061
39.740,0.054
39.745,0.051
39.750,0.046
39.755,0.038
39.760,0.026
39.765,0.016
39.770,0.013
39.775,0.011
39.780,0.009
39.785,0.008
39.790,0.003
39.795,-0.005
39.800,-0.012
39.805,-0.018
39.810,-0.021
39.815,-0.024
39.820,-0.028
39.825,-0.031
39.830,-0.036
39.835,-0.041
39.840,-0.044
39.845,-0.048
39.850,-0.049
39.855,-0.047
39.860,-0.049
39.865,-0.056
39.870,-0.058
39.875,-0.063
39.880,-0.071
39.885,-0.074
39.890,-0.072
39.895,-0.069
39.900,-0.070
39.905,-0.074
39.910,-0.079
39.915,-0.080
39.920,-0.077
39.925,-0.074
39.930,-0.074
39.935,-0.074
39.940,-0.073
39.945,-0.076
39.950,-0.083
39.955,-0.087
39.960,-0.087
39.965,-0.083
39.970,-0.079
39.975,-0.076
39.980,-0.078
39.985,-0.081
39.990,-0.079
39.995,-0.078
40.000,-0.080
40.005,-0.080
40.010,-0.077
40.015,-0.074
40.020,-0.073
40.025,-0.075
40.030,-0.077
40.035,-0.073
40.040,-0.067
40.045,-0.061
40.050,-0.060
40.055,-0.065
40.060,-0.069
40.065,-0.068
40.070,-0.066
40.075,-0.060
40.080,-0.055
40.085,-0.060
40.090,-0.069
40.095,-0.079
40.100,-0.100
40.105,-0.129
40.110,-0.150
40.115,-0.151
40.120,-0.142
40.125,-0.136
40.130,-0.124
40.135,-0.117
40.140,-0.119
40.145,-0.111
40.150,-0.091
40.155,-0.060
40.160,-0.026
40.165,-0.011
40.170,-0.007
40.175,0.007
40.180,0.021
40.185,0.032
40.190,0.050
40.195,0.061
40.200,0.058
40.205,0.056
40.210,0.057
40.215,0.052
40.220,0.040
40.225,0.034
40.230,0.034
40.235,0.027
40.240,0.019
40.245,0.016
40.250,-0.003
40.255,-0.114
40.260,-0.398
40.265,-0.844
40.270,-1.294
40.275,-1.577
40.280,-1.528
40.285,-0.965
40.290,-0.119
40.295,0.414
40.300,0.519
40.305,0.471
40.310,0.403
40.315,0.370
40.320,0.363
40.325,0.344
40.330,0.324
40.335,0.311
40.340,0.302
40.345,0.291
40.350,0.278
40.355,0.265
40.360,0.248
40.365,0.234
40.370,0.227
40.375,0.216
40.380,0.202
40.385,0.191
40.390,0.179
40.395,0.166
40.400,0.153
40.405,0.143
40.410,0.134
40.415,0.123
40.420,0.112
40.425,0.103
40.430,0.091
40.435,0.078
40.440,0.069
40.445,0.063
40.450,0.051
40.455,0.034
40.460,0.021
40.465,0.009
40.470,-0.003
40.475,-0.013
40.480,-0.027
40.485,-0.043
40.490,-0.057
40.495,-0.074
40.500,-0.095
40.505,-0.114
40.510,-0.138
40.515,-0.164
40.520,-0.183
40.525,-0.202
40.530,-0.223
40.535,-0.238
40.540,-0.252
40.545,-0.271
40.550,-0.285
40.555,-0.286
40.560,-0.284
40.565,-0.285
40.570,-0.276
40.575,-0.258
40.580,-0.238
40.585,-0.205
40.590,-0.155
40.595,-0.097
40.600,-0.029
40.605,0.045
40.610,0.112
40.615,0.169
40.620,0.225
40.625,0.276
40.630,0.312
40.635,0.337
40.640,0.353
40.645,0.361
40.650,0.363
40.655,0.360
40.660,0.351
40.665,0.340
40.670,0.330
40.675,0.318
40.680,0.304
40.685,0.292
40.690,0.278
40.695,0.263
40.700,0.255
40.705,0.243
40.710,0.227
40.715,0.216
40.720,0.206
40.725,0.191
40.730,0.179
40.735,0.166
40.740,0.151
40.745,0.140
40.750,0.133
40.755,0.123
40.760,0.114
40.765,0.105
40.770,0.097
40.775,0.089
40.780,0.079
40.785,0.068
40.790,0.058
40.795,0.052
40.800,0.047
40.805,0.035
40.810,0.025
40.815,0.023
40.820,0.023
40.825,0.018
40.830,0.011
40.835,0.006
40.840,-0.003
40.845,-0.007
40.850,-0.006
40.855,-0.009
40.860,-0.015
40.865,-0.021
40.870,-0.027
40.875,-0.030
40.880,-0.031
40.885,-0.034
40.890,-0.039
40.895,-0.044
40.900,-0.043
40.905,-0.045
40.910,-0.050
40.915,-0.051
40.920,-0.048
40.925,-0.050
40.930,-0.056
40.935,-0.061
40.940,-0.065
40.945,-0.070
40.950,-0.070
40.955,-0.067
40.960,-0.066
40.965,-0.065
40.970,-0.069
40.975,-0.074
40.980,-0.074
40.985,-0.072
40.990,-0.071
40.995,-0.073
41.000,-0.073
41.005,-0.071
41.010,-0.069
41.015,-0.069
41.020,-0.075
41.025,-0.082
41.030,-0.081
41.035,-0.077
41.040,-0.073
41.045,-0.067
41.050,-0.068
41.055,-0.075
41.060,-0.079
41.065,-0.078
41.070,-0.073
41.075,-0.068
41.080,-0.067
41.085,-0.070
41.090,-0.070
41.095,-0.066
41.100,-0.066
41.105,-0.068
41.110,-0.065
41.115,-0.063
41.120,-0.064
41.125,-0.064
41.130,-0.064
41.135,-0.063
41.140,-0.059
41.145,-0.056
41.150,-0.058
41.155,-0.064
41.160,-0.081
41.165,-0.107
41.170,-0.131
41.175,-0.144
41.180,-0.146
41.185,-0.142
41.190,-0.136
41.195,-0.124
41.200,-0.117
41.205,-0.119
41.210,-0.109
41.215,-0.083
41.220,-0.050
41.225,-0.015
41.230,0.004
41.235,0.010
41.240,0.021
41.245,0.032
41.250,0.043
41.255,0.060
41.260,0.063
41.265,0.054
41.270,0.051
41.275,0.051
41.280,0.049
41.285,0.045
41.290,0.041
41.295,0.039
41.300,0.034
41.305,0.022
41.310,0.011
41.315,-0.009
41.320,-0.117
41.325,-0.390
41.330,-0.811
41.335,-1.239
41.340,-1.503
41.345,-1.447
41.350,-0.911
41.355,-0.114
41.360,0.400
41.365,0.511
41.370,0.451
41.375,0.380
41.380,0.356
41.385,0.343
41.390,0.328
41.395,0.316
41.400,0.302
41.405,0.288
41.410,0.274
41.415,0.263
41.420,0.252
41.425,0.242
41.430,0.234
41.435,0.222
41.440,0.206
41.445,0.190
41.450,0.177
41.455,0.166
41.460,0.155
41.465,0.145
41.470,0.133
41.475,0.121
41.480,0.111
41.485,0.104
41.490,0.095
41.495,0.086
41.500,0.078
41.505,0.067
41.510,0.059
41.515,0.048
41.520,0.035
41.525,0.019
41.530,0.003
41.535,-0.007
41.540,-0.018
41.545,-0.030
41.550,-0.040
41.555,-0.056
41.560,-0.073
41.565,-0.094
41.570,-0.115
41.575,-0.134
41.580,-0.153
41.585,-0.174
41.590,-0.196
41.595,-0.215
41.600,-0.229
41.605,-0.243
41.610,-0.256
41.615,-0.271
41.620,-0.278
41.625,-0.276
41.630,-0.272
41.635,-0.265
41.640,-0.253
41.645,-0.234
41.650,-0.200
41.655,-0.156
41.660,-0.102
41.665,-0.036
41.670,0.035
41.675,0.104
41.680,0.167
41.685,0.218
41.690,0.262
41.695,0.300
41.700,0.326
41.705,0.342
41.710,0.354
41.715,0.357
41.720,0.349
41.725,0.339
41.730,0.332
41.735,0.322
41.740,0.309
41.745,0.299
41.750,0.290
41.755,0.278
41.760,0.262
41.765,0.249
41.770,0.237
41.775,0.224
41.780,0.210
41.785,0.195
41.790,0.185
41.795,0.175
41.800,0.162
41.805,0.151
41.810,0.144
41.815,0.140
41.820,0.129
41.825,0.116
41.830,0.105
41.835,0.096
41.840,0.086
41.845,0.075
41.850,0.069
41.855,0.065
41.860,0.057
41.865,0.051
41.870,0.042
41.875,0.032
41.880,0.027
41.885,0.022
41.890,0.014
41.895,0.009
41.900,0.006
41.905,0.002
41.910,-0.003
41.915,-0.007
41.920,-0.013
41.925,-0.019
41.930,-0.021
41.935,-0.024
41.940,-0.027
41.945,-0.032
41.950,-0.036
41.955,-0.036
41.960,-0.038
41.965,-0.043
41.970,-0.044
41.975,-0.044
41.980,-0.048
41.985,-0.052
41.990,-0.055
41.995,-0.060
42.000,-0.059
42.005,-0.058
42.010,-0.063
42.015,-0.066
42.020,-0.063
42.025,-0.063
42.030,-0.067
42.035,-0.069
42.040,-0.068
42.045,-0.069
42.050,-0.073
42.055,-0.073
42.060,-0.076
42.065,-0.078
42.070,-0.075
42.075,-0.074
42.080,-0.078
42.085,-0.081
42.090,-0.078
42.095,-0.076
42.100,-0.074
42.105,-0.069
42.110,-0.069
42.115,-0.073
42.120,-0.078
42.125,-0.078
42.130,-0.076
42.135,-0.075
42.140,-0.073
42.145,-0.069
42.150,-0.070
42.155,-0.071
42.160,-0.069
42.165,-0.068
42.170,-0.065
42.175,-0.061
42.180,-0.060
42.185,-0.062
42.190,-0.063
42.195,-0.061
42.200,-0.057
42.205,-0.054
42.210,-0.053
42.215,-0.054
42.220,-0.054
42.225,-0.052
42.230,-0.059
42.235,-0.074
42.240,-0.088
42.245,-0.107
42.250,-0.127
42.255,-0.138
42.260,-0.140
42.265,-0.146
42.270,-0.142
42.275,-0.119
42.280,-0.107
42.285,-0.113
42.290,-0.106
42.295,-0.077
42.300,-0.037
42.305,0.000
42.310,0.021
42.315,0.027
42.320,0.030
42.325,0.035
42.330,0.048
42.335,0.062
42.340,0.063
42.345,0.059
42.350,0.063
42.355,0.068
42.360,0.064
42.365,0.053
42.370,0.043
42.375,0.041
42.380,0.036
42.385,0.025
42.390,0.017
42.395,-0.007
42.400,-0.116
42.405,-0.382
42.410,-0.789
42.415,-1.202
42.420,-1.454
42.425,-1.385
42.430,-0.841
42.435,-0.070
42.440,0.399
42.445,0.490
42.450,0.429
42.455,0.358
42.460,0.338
42.465,0.330
42.470,0.312
42.475,0.299
42.480,0.290
42.485,0.280
42.490,0.271
42.495,0.261
42.500,0.247
42.505,0.231
42.510,0.219
42.515,0.208
42.520,0.195
42.525,0.182
42.530,0.170
42.535,0.161
42.540,0.151
42.545,0.141
42.550,0.133
42.555,0.122
42.560,0.109
42.565,0.097
42.570,0.088
42.575,0.080
42.580,0.069
42.585,0.057
42.590,0.047
42.595,0.038
42.600,0.028
42.605,0.016
42.610,0.005
42.615,-0.006
42.620,-0.018
42.625,-0.032
42.630,-0.048
42.635,-0.049
42.640,0.000
42.645,0.038
42.650,0.008
42.655,-0.028
42.660,-0.052
42.665,-0.080
42.670,-0.109
42.675,-0.135
42.680,-0.153
42.685,-0.174
42.690,-0.197
42.695,-0.214
42.700,-0.225
42.705,-0.230
42.710,-0.231
42.715,-0.232
42.720,-0.224
42.725,-0.203
42.730,-0.173
42.735,-0.137
42.740,-0.091
42.745,-0.032
42.750,0.036
42.755,0.102
42.760,0.159
42.765,0.210
42.770,0.256
42.775,0.289
42.780,0.311
42.785,0.326
42.790,0.333
42.795,0.332
42.800,0.327
42.805,0.320
42.810,0.311
42.815,0.304
42.820,0.293
42.825,0.276
42.830,0.260
42.835,0.244
42.840,0.229
42.845,0.217
42.850,0.207
42.855,0.191
42.860,0.175
42.865,0.164
42.870,0.153
42.875,0.143
42.880,0.136
42.885,0.126
42.890,0.112
42.895,0.099
42.900,0.087
42.905,0.078
42.910,0.074
42.915,0.069
42.920,0.061
42.925,0.054
42.930,0.043
42.935,0.030
42.940,0.020
42.945,0.011
42.950,0.007
42.955,0.006
42.960,0.000
42.965,-0.008
42.970,-0.016
42.975,-0.021
42.980,-0.022
42.985,-0.022
42.990,-0.025
42.995,-0.034
43.000,-0.043
43.005,-0.043
43.010,-0.042
43.015,-0.046
43.020,-0.050
43.025,-0.052
43.030,-0.053
43.035,-0.056
43.040,-0.064
43.045,-0.068
43.050,-0.067
43.055,-0.069
43.060,-0.069
43.065,-0.067
43.070,-0.072
43.075,-0.078
43.080,-0.080
43.085,-0.080
43.090,-0.079
43.095,-0.080
43.100,-0.083
43.105,-0.083
43.110,-0.082
43.115,-0.085
43.120,-0.087
43.125,-0.086
43.130,-0.088
43.135,-0.086
43.140,-0.083
43.145,-0.083
43.150,-0.085
43.155,-0.087
43.160,-0.088
43.165,-0.087
43.170,-0.083
43.175,-0.080
43.180,-0.082
43.185,-0.085
43.190,-0.087
43.195,-0.083
43.200,-0.079
43.205,-0.077
43.210,-0.072
43.215,-0.070
43.220,-0.071
43.225,-0.073
43.230,-0.076
43.235,-0.076
43.240,-0.069
43.245,-0.064
43.250,-0.059
43.255,-0.055
43.260,-0.055
43.265,-0.059
43.270,-0.060
43.275,-0.058
43.280,-0.056
43.285,-0.054
43.290,-0.051
43.295,-0.050
43.300,-0.050
43.305,-0.048
43.310,-0.046
43.315,-0.043
43.320,-0.039
43.325,-0.043
43.330,-0.056
43.335,-0.068
43.340,-0.087
43.345,-0.112
43.350,-0.126
43.355,-0.123
43.360,-0.124
43.365,-0.129
43.370,-0.116
43.375,-0.101
43.380,-0.100
43.385,-0.093
43.390,-0.073
43.395,-0.043
43.400,-0.004
43.405,0.020
43.410,0.025
43.415,0.036
43.420,0.051
43.425,0.061
43.430,0.072
43.435,0.078
43.440,0.072
43.445,0.067
43.450,0.072
43.455,0.075
43.460,0.072
43.465,0.066
43.470,0.055
43.475,0.042
43.480,0.031
43.485,0.019
43.490,0.003
43.495,-0.081
43.500,-0.319
43.505,-0.706
43.510,-1.126
43.515,-1.408
43.520,-1.411
43.525,-0.951
43.530,-0.170
43.535,0.360
43.540,0.490
43.545,0.465
43.550,0.392
43.555,0.347
43.560,0.341
43.565,0.327
43.570,0.310
43.575,0.294
43.580,0.283
43.585,0.274
43.590,0.256
43.595,0.242
43.600,0.234
43.605,0.221
43.610,0.204
43.615,0.194
43.620,0.188
43.625,0.178
43.630,0.164
43.635,0.156
43.640,0.146
43.645,0.127
43.650,0.114
43.655,0.107
43.660,0.103
43.665,0.097
43.670,0.081
43.675,0.070
43.680,0.065
43.685,0.053
43.690,0.040
43.695,0.028
43.700,0.014
43.705,0.004
43.710,-0.004
43.715,-0.011
43.720,-0.022
43.725,-0.041
43.730,-0.060
43.735,-0.079
43.740,-0.103
43.745,-0.125
43.750,-0.145
43.755,-0.162
43.760,-0.182
43.765,-0.202
43.770,-0.220
43.775,-0.239
43.780,-0.254
43.785,-0.265
43.790,-0.275
43.795,-0.281
43.800,-0.286
43.805,-0.281
43.810,-0.272
43.815,-0.268
43.820,-0.254
43.825,-0.220
43.830,-0.174
43.835,-0.123
43.840,-0.065
43.845,0.007
43.850,0.086
43.855,0.159
43.860,0.218
43.865,0.263
43.870,0.298
43.875,0.320
43.880,0.334
43.885,0.350
43.890,0.363
43.895,0.364
43.900,0.359
43.905,0.348
43.910,0.337
43.915,0.328
43.920,0.315
43.925,0.299
43.930,0.289
43.935,0.282
43.940,0.267
43.945,0.248
43.950,0.236
43.955,0.232
43.960,0.222
43.965,0.205
43.970,0.192
43.975,0.177
43.980,0.166
43.985,0.157
43.990,0.144
43.995,0.136
44.000,0.127
44.005,0.111
44.010,0.100
44.015,0.093
44.020,0.086
44.025,0.080
44.030,0.068
44.035,0.056
44.040,0.049
44.045,0.040
44.050,0.035
44.055,0.033
44.060,0.028
44.065,0.017
44.070,0.008
44.075,0.005
44.080,0.005
44.085,0.001
44.090,-0.008
44.095,-0.017
44.100,-0.017
44.105,-0.014
44.110,-0.017
44.115,-0.021
44.120,-0.023
44.125,-0.031
44.130,-0.039
44.135,-0.040
44.140,-0.039
44.145,-0.041
44.150,-0.048
44.155,-0.051
44.160,-0.047
44.165,-0.048
44.170,-0.058
44.175,-0.061
44.180,-0.062
44.185,-0.066
44.190,-0.062
44.195,-0.056
44.200,-0.055
44.205,-0.063
44.210,-0.071
44.215,-0.070
44.220,-0.068
44.225,-0.066
44.230,-0.064
44.235,-0.061
44.240,-0.061
44.245,-0.071
44.250,-0.077
44.255,-0.076
44.260,-0.075
44.265,-0.076
44.270,-0.077
44.275,-0.076
44.280,-0.073
44.285,-0.072
44.290,-0.072
44.295,-0.075
44.300,-0.073
44.305,-0.067
44.310,-0.066
44.315,-0.067
44.320,-0.066
44.325,-0.068
44.330,-0.071
44.335,-0.069
44.340,-0.066
44.345,-0.066
44.350,-0.065
44.355,-0.064
44.360,-0.063
44.365,-0.063
44.370,-0.062
44.375,-0.065
44.380,-0.075
44.385,-0.084
44.390,-0.096
44.395,-0.117
44.400,-0.137
44.405,-0.144
44.410,-0.141
44.415,-0.143
44.420,-0.142
44.425,-0.130
44.430,-0.123
44.435,-0.118
44.440,-0.106
44.445,-0.078
44.450,-0.034
44.455,-0.005
44.460,-0.001
44.465,0.006
44.470,0.023
44.475,0.033
44.480,0.043
44.485,0.055
44.490,0.054
44.495,0.052
44.500,0.056
44.505,0.052
44.510,0.044
44.515,0.039
44.520,0.034
44.525,0.030
44.530,0.027
44.535,0.022
44.540,0.022
44.545,-0.027
44.550,-0.224
44.555,-0.603
44.560,-1.082
44.565,-1.466
44.570,-1.598
44.575,-1.281
44.580,-0.496
44.585,0.219
44.590,0.479
44.595,0.485
44.600,0.437
44.605,0.382
44.610,0.359
44.615,0.342
44.620,0.321
44.625,0.310
44.630,0.299
44.635,0.286
44.640,0.271
44.645,0.259
44.650,0.249
44.655,0.234
44.660,0.219
44.665,0.205
44.670,0.192
44.675,0.185
44.680,0.175
44.685,0.163
44.690,0.155
44.695,0.145
44.700,0.129
44.705,0.119
44.710,0.109
44.715,0.096
44.720,0.089
44.725,0.083
44.730,0.068
44.735,0.055
44.740,0.045
44.745,0.034
44.750,0.025
44.755,0.016
44.760,0.002
44.765,-0.014
44.770,-0.029
44.775,-0.043
44.780,-0.062
44.785,-0.078
44.790,-0.090
44.795,-0.110
44.800,-0.131
44.805,-0.149
44.810,-0.171
44.815,-0.193
44.820,-0.211
44.825,-0.234
44.830,-0.253
44.835,-0.264
44.840,-0.276
44.845,-0.287
44.850,-0.290
44.855,-0.283
44.860,-0.272
44.865,-0.262
44.870,-0.249
44.875,-0.225
44.880,-0.187
44.885,-0.136
44.890,-0.072
44.895,0.000
44.900,0.074
44.905,0.146
44.910,0.205
44.915,0.253
44.920,0.295
44.925,0.328
44.930,0.352
44.935,0.361
44.940,0.364
44.945,0.367
44.950,0.365
44.955,0.356
44.960,0.344
44.965,0.336
44.970,0.328
44.975,0.314
44.980,0.297
44.985,0.283
44.990,0.268
44.995,0.257
45.000,0.248
45.005,0.234
45.010,0.223
45.015,0.213
45.020,0.197
45.025,0.179
45.030,0.163
45.035,0.151
45.040,0.141
45.045,0.134
