'Elapsed time','ECG'
'seconds','mV'
0.000,0.081
0.005,0.518
0.010,0.412
0.015,0.307
0.020,0.400
0.025,0.351
0.030,0.303
0.035,0.324
0.040,0.323
0.045,0.265
0.050,0.257
0.055,0.286
0.060,0.241
0.065,0.206
0.070,0.245
0.075,0.232
0.080,0.180
0.085,0.196
0.090,0.205
0.095,0.153
0.100,0.146
0.105,0.178
0.110,0.142
0.115,0.110
0.120,0.144
0.125,0.126
0.130,0.076
0.135,0.094
0.140,0.096
0.145,0.036
0.150,0.026
0.155,0.046
0.160,-0.022
0.165,-0.082
0.170,-0.043
0.175,-0.040
0.180,-0.101
0.185,-0.098
0.190,-0.068
0.195,-0.076
0.200,-0.030
0.205,0.052
0.210,0.046
0.215,0.019
0.220,0.078
0.225,0.105
0.230,0.063
0.235,0.077
0.240,0.098
0.245,0.051
0.250,0.054
0.255,0.100
0.260,0.066
0.265,0.032
0.270,0.058
0.275,0.036
0.280,-0.010
0.285,0.014
0.290,0.030
0.295,-0.009
0.300,0.030
0.305,0.108
0.310,0.001
0.315,-0.279
0.320,-0.657
0.325,-1.255
0.330,-1.829
0.335,-1.935
0.340,-1.657
0.345,-1.158
0.350,-0.499
0.355,0.056
0.360,0.321
0.365,0.396
0.370,0.446
0.375,0.426
0.380,0.359
0.385,0.380
0.390,0.407
0.395,0.351
0.400,0.329
0.405,0.352
0.410,0.312
0.415,0.272
0.420,0.295
0.425,0.279
0.430,0.225
0.435,0.235
0.440,0.241
0.445,0.186
0.450,0.171
0.455,0.198
0.460,0.160
0.465,0.122
0.470,0.145
0.475,0.128
0.480,0.077
0.485,0.094
0.490,0.102
0.495,0.042
0.500,0.030
0.505,0.051
0.510,0.009
0.515,-0.025
0.520,0.001
0.525,-0.013
0.530,-0.065
0.535,-0.059
0.540,-0.055
0.545,-0.116
0.550,-0.134
0.555,-0.113
0.560,-0.165
0.565,-0.203
0.570,-0.171
0.575,-0.195
0.580,-0.265
0.585,-0.261
0.590,-0.246
0.595,-0.296
0.600,-0.305
0.605,-0.265
0.610,-0.293
0.615,-0.313
0.620,-0.254
0.625,-0.235
0.630,-0.242
0.635,-0.161
0.640,-0.072
0.645,-0.048
0.650,0.022
0.655,0.132
0.660,0.171
0.665,0.200
0.670,0.291
0.675,0.335
0.680,0.325
0.685,0.369
0.690,0.401
0.695,0.359
0.700,0.357
0.705,0.395
0.710,0.362
0.715,0.324
0.720,0.350
0.725,0.332
0.730,0.278
0.735,0.293
0.740,0.300
0.745,0.235
0.750,0.215
0.755,0.241
0.760,0.203
0.765,0.161
0.770,0.181
0.775,0.169
0.780,0.126
0.785,0.140
0.790,0.149
0.795,0.096
0.800,0.081
0.805,0.112
0.810,0.075
0.815,0.037
0.820,0.066
0.825,0.056
0.830,0.015
0.835,0.028
0.840,0.034
0.845,-0.009
0.850,-0.008
0.855,0.026
0.860,-0.009
0.865,-0.033
0.870,0.011
0.875,0.006
0.880,-0.033
0.885,-0.011
0.890,0.001
0.895,-0.043
0.900,-0.047
0.905,-0.020
0.910,-0.053
0.915,-0.072
0.920,-0.028
0.925,-0.035
0.930,-0.080
0.935,-0.057
0.940,-0.038
0.945,-0.082
0.950,-0.078
0.955,-0.039
0.960,-0.067
0.965,-0.088
0.970,-0.049
0.975,-0.056
0.980,-0.096
0.985,-0.071
0.990,-0.054
0.995,-0.099
1.000,-0.095
1.005,-0.056
1.010,-0.086
1.015,-0.109
1.020,-0.069
1.025,-0.076
1.030,-0.118
1.035,-0.102
1.040,-0.094
1.045,-0.155
1.050,-0.184
1.055,-0.163
1.060,-0.180
1.065,-0.201
1.070,-0.183
1.075,-0.194
1.080,-0.208
1.085,-0.141
1.090,-0.070
1.095,-0.075
1.100,-0.068
1.105,-0.021
1.110,-0.008
1.115,-0.007
1.120,0.025
1.125,0.021
1.130,-0.006
1.135,0.028
1.140,0.052
1.145,0.006
1.150,0.003
1.155,0.038
1.160,0.003
1.165,-0.027
1.170,0.013
1.175,0.012
1.180,-0.031
1.185,-0.005
1.190,0.059
1.195,0.058
1.200,-0.036
1.205,-0.294
1.210,-0.800
1.215,-1.456
1.220,-1.897
1.225,-1.896
1.230,-1.615
1.235,-1.059
1.240,-0.357
1.245,0.116
1.250,0.348
1.255,0.460
1.260,0.462
1.265,0.434
1.270,0.447
1.275,0.430
1.280,0.382
1.285,0.390
1.290,0.392
1.295,0.345
1.300,0.342
1.305,0.361
1.310,0.318
1.315,0.283
1.320,0.306
1.325,0.290
1.330,0.233
1.335,0.237
1.340,0.242
1.345,0.192
1.350,0.185
1.355,0.211
1.360,0.171
1.365,0.136
1.370,0.162
1.375,0.144
1.380,0.089
1.385,0.104
1.390,0.113
1.395,0.052
1.400,0.037
1.405,0.059
1.410,0.014
1.415,-0.021
1.420,0.003
1.425,-0.018
1.430,-0.068
1.435,-0.061
1.440,-0.066
1.445,-0.129
1.450,-0.151
1.455,-0.147
1.460,-0.199
1.465,-0.233
1.470,-0.218
1.475,-0.247
1.480,-0.299
1.485,-0.282
1.490,-0.267
1.495,-0.310
1.500,-0.298
1.505,-0.245
1.510,-0.255
1.515,-0.246
1.520,-0.165
1.525,-0.116
1.530,-0.084
1.535,0.021
1.540,0.120
1.545,0.154
1.550,0.228
1.555,0.323
1.560,0.343
1.565,0.360
1.570,0.421
1.575,0.432
1.580,0.408
1.585,0.432
1.590,0.442
1.595,0.395
1.600,0.387
1.605,0.404
1.610,0.359
1.615,0.322
1.620,0.342
1.625,0.321
1.630,0.272
1.635,0.279
1.640,0.275
1.645,0.214
1.650,0.200
1.655,0.228
1.660,0.188
1.665,0.147
1.670,0.164
1.675,0.146
1.680,0.100
1.685,0.115
1.690,0.121
1.695,0.072
1.700,0.064
1.705,0.085
1.710,0.047
1.715,0.018
1.720,0.049
1.725,0.042
1.730,0.002
1.735,0.024
1.740,0.041
1.745,-0.003
1.750,-0.002
1.755,0.028
1.760,-0.010
1.765,-0.037
1.770,0.001
1.775,-0.002
1.780,-0.040
1.785,-0.021
1.790,-0.005
1.795,-0.046
1.800,-0.047
1.805,-0.017
1.810,-0.048
1.815,-0.070
1.820,-0.039
1.825,-0.045
1.830,-0.079
1.835,-0.059
1.840,-0.041
1.845,-0.077
1.850,-0.077
1.855,-0.046
1.860,-0.073
1.865,-0.097
1.870,-0.062
1.875,-0.065
1.880,-0.099
1.885,-0.073
1.890,-0.056
1.895,-0.098
1.900,-0.100
1.905,-0.071
1.910,-0.102
1.915,-0.128
1.920,-0.101
1.925,-0.119
1.930,-0.178
1.935,-0.183
1.940,-0.181
1.945,-0.207
1.950,-0.194
1.955,-0.175
1.960,-0.212
1.965,-0.204
1.970,-0.124
1.975,-0.093
1.980,-0.093
1.985,-0.051
1.990,-0.027
1.995,-0.040
2.000,-0.013
2.005,0.017
2.010,-0.015
2.015,-0.024
2.020,0.022
2.025,0.022
2.030,-0.009
2.035,0.017
2.040,0.032
2.045,-0.013
2.050,-0.016
2.055,0.013
2.060,-0.023
2.065,-0.050
2.070,-0.005
2.075,0.033
2.080,0.024
2.085,-0.072
2.090,-0.359
2.095,-0.852
2.100,-1.443
2.105,-1.879
2.110,-1.919
2.115,-1.609
2.120,-1.043
2.125,-0.415
2.130,0.025
2.135,0.294
2.140,0.431
2.145,0.437
2.150,0.428
2.155,0.444
2.160,0.411
2.165,0.380
2.170,0.409
2.175,0.397
2.180,0.346
2.185,0.354
2.190,0.358
2.195,0.303
2.200,0.291
2.205,0.311
2.210,0.267
2.215,0.235
2.220,0.260
2.225,0.241
2.230,0.193
2.235,0.201
2.240,0.203
2.245,0.154
2.250,0.146
2.255,0.165
2.260,0.126
2.265,0.095
2.270,0.116
2.275,0.095
2.280,0.047
2.285,0.057
2.290,0.058
2.295,0.006
2.300,-0.005
2.305,0.013
2.310,-0.030
2.315,-0.071
2.320,-0.059
2.325,-0.085
2.330,-0.135
2.335,-0.129
2.340,-0.136
2.345,-0.204
2.350,-0.228
2.355,-0.217
2.360,-0.261
2.365,-0.289
2.370,-0.261
2.375,-0.275
2.380,-0.314
2.385,-0.286
2.390,-0.257
2.395,-0.275
2.400,-0.237
2.405,-0.161
2.410,-0.132
2.415,-0.079
2.420,0.036
2.425,0.107
2.430,0.147
2.435,0.239
2.440,0.314
2.445,0.329
2.450,0.372
2.455,0.429
2.460,0.418
2.465,0.409
2.470,0.445
2.475,0.432
2.480,0.388
2.485,0.402
2.490,0.404
2.495,0.348
2.500,0.335
2.505,0.352
2.510,0.307
2.515,0.275
2.520,0.294
2.525,0.268
2.530,0.217
2.535,0.225
2.540,0.227
2.545,0.177
2.550,0.165
2.555,0.184
2.560,0.144
2.565,0.110
2.570,0.131
2.575,0.112
2.580,0.066
2.585,0.080
2.590,0.090
2.595,0.045
2.600,0.037
2.605,0.063
2.610,0.034
2.615,0.011
2.620,0.039
2.625,0.025
2.630,-0.015
2.635,0.007
2.640,0.019
2.645,-0.025
2.650,-0.023
2.655,0.012
2.660,-0.017
2.665,-0.041
2.670,-0.010
2.675,-0.019
2.680,-0.057
2.685,-0.032
2.690,-0.014
2.695,-0.057
2.700,-0.057
2.705,-0.027
2.710,-0.053
2.715,-0.072
2.720,-0.040
2.725,-0.050
2.730,-0.087
2.735,-0.063
2.740,-0.046
2.745,-0.086
2.750,-0.087
2.755,-0.054
2.760,-0.081
2.765,-0.101
2.770,-0.066
2.775,-0.076
2.780,-0.114
2.785,-0.086
2.790,-0.059
2.795,-0.092
2.800,-0.087
2.805,-0.055
2.810,-0.088
2.815,-0.113
2.820,-0.086
2.825,-0.102
2.830,-0.146
2.835,-0.138
2.840,-0.152
2.845,-0.219
2.850,-0.216
2.855,-0.167
2.860,-0.181
2.865,-0.199
2.870,-0.164
2.875,-0.143
2.880,-0.135
2.885,-0.072
2.890,-0.027
2.895,-0.058
2.900,-0.044
2.905,0.020
2.910,0.016
2.915,-0.002
2.920,0.030
2.925,0.029
2.930,0.003
2.935,0.038
2.940,0.053
2.945,0.004
2.950,0.004
2.955,0.039
2.960,0.013
2.965,-0.010
2.970,0.020
2.975,0.011
2.980,-0.013
2.985,0.053
2.990,0.064
2.995,-0.141
3.000,-0.460
3.005,-0.906
3.010,-1.534
3.015,-1.935
3.020,-1.856
3.025,-1.483
3.030,-0.886
3.035,-0.252
3.040,0.168
3.045,0.339
3.050,0.424
3.055,0.479
3.060,0.430
3.065,0.399
3.070,0.434
3.075,0.418
3.080,0.373
3.085,0.383
3.090,0.382
3.095,0.327
3.100,0.315
3.105,0.339
3.110,0.297
3.115,0.257
3.120,0.278
3.125,0.264
3.130,0.218
3.135,0.229
3.140,0.233
3.145,0.182
3.150,0.177
3.155,0.197
3.160,0.147
3.165,0.108
3.170,0.135
3.175,0.123
3.180,0.077
3.185,0.087
3.190,0.088
3.195,0.035
3.200,0.028
3.205,0.047
3.210,0.002
3.215,-0.033
3.220,-0.014
3.225,-0.040
3.230,-0.100
3.235,-0.099
3.240,-0.100
3.245,-0.163
3.250,-0.185
3.255,-0.172
3.260,-0.219
3.265,-0.256
3.270,-0.233
3.275,-0.250
3.280,-0.294
3.285,-0.280
3.290,-0.272
3.295,-0.304
3.300,-0.275
3.305,-0.216
3.310,-0.218
3.315,-0.194
3.320,-0.097
3.325,-0.027
3.330,0.013
3.335,0.104
3.340,0.193
3.345,0.220
3.350,0.278
3.355,0.363
3.360,0.375
3.365,0.377
3.370,0.432
3.375,0.437
3.380,0.393
3.385,0.409
3.390,0.420
3.395,0.364
3.400,0.352
3.405,0.373
3.410,0.324
3.415,0.293
3.420,0.320
3.425,0.286
3.430,0.229
3.435,0.240
3.440,0.243
3.445,0.198
3.450,0.191
3.455,0.210
3.460,0.168
3.465,0.130
3.470,0.150
3.475,0.132
3.480,0.086
3.485,0.099
3.490,0.105
3.495,0.061
3.500,0.062
3.505,0.090
3.510,0.053
3.515,0.026
3.520,0.060
3.525,0.042
3.530,-0.010
3.535,0.009
3.540,0.027
3.545,-0.012
3.550,-0.008
3.555,0.020
3.560,-0.013
3.565,-0.037
3.570,-0.008
3.575,-0.019
3.580,-0.054
3.585,-0.024
3.590,-0.007
3.595,-0.054
3.600,-0.054
3.605,-0.021
3.610,-0.058
3.615,-0.083
3.620,-0.045
3.625,-0.049
3.630,-0.085
3.635,-0.055
3.640,-0.034
3.645,-0.083
3.650,-0.089
3.655,-0.054
3.660,-0.082
3.665,-0.102
3.670,-0.065
3.675,-0.070
3.680,-0.105
3.685,-0.086
3.690,-0.078
3.695,-0.122
3.700,-0.118
3.705,-0.091
3.710,-0.136
3.715,-0.180
3.720,-0.164
3.725,-0.172
3.730,-0.212
3.735,-0.205
3.740,-0.193
3.745,-0.211
3.750,-0.172
3.755,-0.094
3.760,-0.080
3.765,-0.087
3.770,-0.041
3.775,-0.013
3.780,-0.021
3.785,0.003
3.790,0.016
3.795,-0.016
3.800,-0.009
3.805,0.028
3.810,0.006
3.815,-0.012
3.820,0.032
3.825,0.026
3.830,-0.024
3.835,-0.011
3.840,0.000
3.845,-0.037
3.850,-0.027
3.855,0.032
3.860,0.063
3.865,0.026
3.870,-0.149
3.875,-0.539
3.880,-1.138
3.885,-1.722
3.890,-1.942
3.895,-1.785
3.900,-1.357
3.905,-0.697
3.910,-0.122
3.915,0.225
3.920,0.418
3.925,0.458
3.930,0.426
3.935,0.421
3.940,0.419
3.945,0.375
3.950,0.368
3.955,0.395
3.960,0.364
3.965,0.338
3.970,0.362
3.975,0.332
3.980,0.275
3.985,0.291
3.990,0.294
3.995,0.235
4.000,0.224
4.005,0.243
4.010,0.203
4.015,0.173
4.020,0.196
4.025,0.176
4.030,0.126
4.035,0.140
4.040,0.140
4.045,0.083
4.050,0.081
4.055,0.111
4.060,0.069
4.065,0.034
4.070,0.058
4.075,0.033
4.080,-0.021
4.085,-0.011
4.090,-0.009
4.095,-0.068
4.100,-0.081
4.105,-0.062
4.110,-0.111
4.115,-0.154
4.120,-0.140
4.125,-0.172
4.130,-0.232
4.135,-0.226
4.140,-0.228
4.145,-0.280
4.150,-0.284
4.155,-0.263
4.160,-0.297
4.165,-0.308
4.170,-0.260
4.175,-0.250
4.180,-0.253
4.185,-0.183
4.190,-0.113
4.195,-0.084
4.200,-0.005
4.205,0.101
4.210,0.147
4.215,0.197
4.220,0.297
4.225,0.340
4.230,0.347
4.235,0.414
4.240,0.452
4.245,0.414
4.250,0.419
4.255,0.445
4.260,0.404
4.265,0.380
4.270,0.408
4.275,0.384
4.280,0.332
4.285,0.343
4.290,0.345
4.295,0.286
4.300,0.271
4.305,0.287
4.310,0.238
4.315,0.200
4.320,0.221
4.325,0.200
4.330,0.147
4.335,0.160
4.340,0.167
4.345,0.114
4.350,0.106
4.355,0.127
4.360,0.088
4.365,0.059
4.370,0.087
4.375,0.075
4.380,0.030
4.385,0.049
4.390,0.065
4.395,0.016
4.400,0.014
4.405,0.045
4.410,0.010
4.415,-0.016
4.420,0.018
4.425,0.010
4.430,-0.027
4.435,-0.002
4.440,0.014
4.445,-0.029
4.450,-0.029
4.455,-0.003
4.460,-0.038
4.465,-0.055
4.470,-0.014
4.475,-0.021
4.480,-0.065
4.485,-0.045
4.490,-0.030
4.495,-0.071
4.500,-0.066
4.505,-0.035
4.510,-0.066
4.515,-0.085
4.520,-0.051
4.525,-0.064
4.530,-0.098
4.535,-0.064
4.540,-0.051
4.545,-0.106
4.550,-0.114
4.555,-0.091
4.560,-0.134
4.565,-0.173
4.570,-0.162
4.575,-0.180
4.580,-0.206
4.585,-0.178
4.590,-0.177
4.595,-0.222
4.600,-0.187
4.605,-0.110
4.610,-0.101
4.615,-0.091
4.620,-0.040
4.625,-0.027
4.630,-0.031
4.635,0.007
4.640,0.014
4.645,-0.026
4.650,-0.012
4.655,0.034
4.660,0.011
4.665,-0.012
4.670,0.025
4.675,0.015
4.680,-0.034
4.685,-0.010
4.690,0.007
4.695,-0.040
4.700,-0.042
4.705,-0.001
4.710,0.014
4.715,0.018
4.720,-0.074
4.725,-0.395
4.730,-0.900
4.735,-1.478
4.740,-1.896
4.745,-1.912
4.750,-1.585
4.755,-1.026
4.760,-0.427
4.765,0.020
4.770,0.307
4.775,0.420
4.780,0.423
4.785,0.441
4.790,0.445
4.795,0.393
4.800,0.386
4.805,0.411
4.810,0.373
4.815,0.343
4.820,0.369
4.825,0.348
4.830,0.295
4.835,0.305
4.840,0.308
4.845,0.251
4.850,0.240
4.855,0.262
4.860,0.217
4.865,0.182
4.870,0.205
4.875,0.185
4.880,0.138
4.885,0.155
4.890,0.160
4.895,0.105
4.900,0.097
4.905,0.120
4.910,0.076
4.915,0.041
4.920,0.066
4.925,0.045
4.930,-0.010
4.935,-0.002
4.940,0.000
4.945,-0.051
4.950,-0.062
4.955,-0.051
4.960,-0.104
4.965,-0.149
4.970,-0.133
4.975,-0.162
4.980,-0.225
4.985,-0.221
4.990,-0.222
4.995,-0.282
5.000,-0.292
5.005,-0.265
5.010,-0.297
5.015,-0.318
5.020,-0.273
5.025,-0.264
5.030,-0.282
5.035,-0.223
5.040,-0.153
5.045,-0.127
5.050,-0.047
5.055,0.064
5.060,0.113
5.065,0.167
5.070,0.272
5.075,0.324
5.080,0.333
5.085,0.395
5.090,0.438
5.095,0.410
5.100,0.421
5.105,0.453
5.110,0.410
5.115,0.378
5.120,0.410
5.125,0.388
5.130,0.326
5.135,0.338
5.140,0.350
5.145,0.288
5.150,0.268
5.155,0.291
5.160,0.246
5.165,0.207
5.170,0.232
5.175,0.209
5.180,0.151
5.185,0.168
5.190,0.176
5.195,0.118
5.200,0.112
5.205,0.139
5.210,0.095
5.215,0.061
5.220,0.093
5.225,0.074
5.230,0.022
5.235,0.045
5.240,0.063
5.245,0.015
5.250,0.012
5.255,0.042
5.260,0.008
5.265,-0.021
5.270,0.013
5.275,0.012
5.280,-0.029
5.285,-0.008
5.290,0.011
5.295,-0.035
5.300,-0.034
5.305,0.002
5.310,-0.032
5.315,-0.056
5.320,-0.017
5.325,-0.027
5.330,-0.070
5.335,-0.040
5.340,-0.019
5.345,-0.064
5.350,-0.062
5.355,-0.028
5.360,-0.059
5.365,-0.082
5.370,-0.048
5.375,-0.059
5.380,-0.095
5.385,-0.065
5.390,-0.049
5.395,-0.095
5.400,-0.091
5.405,-0.054
5.410,-0.084
5.415,-0.107
5.420,-0.070
5.425,-0.087
5.430,-0.139
5.435,-0.121
5.440,-0.114
5.445,-0.182
5.450,-0.207
5.455,-0.171
5.460,-0.186
5.465,-0.213
5.470,-0.187
5.475,-0.188
5.480,-0.193
5.485,-0.119
5.490,-0.059
5.495,-0.079
5.500,-0.067
5.505,-0.009
5.510,-0.008
5.515,-0.020
5.520,0.015
5.525,0.013
5.530,-0.020
5.535,0.015
5.540,0.041
5.545,-0.003
5.550,-0.002
5.555,0.036
5.560,-0.001
5.565,-0.036
5.570,-0.002
5.575,-0.012
5.580,-0.058
5.585,-0.014
5.590,0.056
5.595,0.008
5.600,-0.155
5.605,-0.446
5.610,-0.960
5.615,-1.577
5.620,-1.920
5.625,-1.858
5.630,-1.489
5.635,-0.868
5.640,-0.278
5.645,0.070
5.650,0.293
5.655,0.441
5.660,0.447
5.665,0.404
5.670,0.430
5.675,0.421
5.680,0.373
5.685,0.392
5.690,0.402
5.695,0.345
5.700,0.335
5.705,0.361
5.710,0.315
5.715,0.279
5.720,0.307
5.725,0.285
5.730,0.231
5.735,0.250
5.740,0.256
5.745,0.196
5.750,0.187
5.755,0.210
5.760,0.163
5.765,0.127
5.770,0.155
5.775,0.138
5.780,0.082
5.785,0.098
5.790,0.112
5.795,0.055
5.800,0.041
5.805,0.064
5.810,0.016
5.815,-0.024
5.820,0.001
5.825,-0.020
5.830,-0.080
5.835,-0.073
5.840,-0.073
5.845,-0.138
5.850,-0.156
5.855,-0.141
5.860,-0.194
5.865,-0.241
5.870,-0.222
5.875,-0.245
5.880,-0.297
5.885,-0.278
5.890,-0.264
5.895,-0.307
5.900,-0.298
5.905,-0.248
5.910,-0.255
5.915,-0.240
5.920,-0.147
5.925,-0.091
5.930,-0.060
5.935,0.043
5.940,0.137
5.945,0.166
5.950,0.237
5.955,0.332
5.960,0.347
5.965,0.356
5.970,0.423
5.975,0.432
5.980,0.394
5.985,0.417
5.990,0.435
5.995,0.385
6.000,0.371
6.005,0.391
6.010,0.345
6.015,0.306
6.020,0.332
6.025,0.314
6.030,0.259
6.035,0.272
6.040,0.274
6.045,0.212
6.050,0.207
6.055,0.236
6.060,0.189
6.065,0.148
6.070,0.169
6.075,0.150
6.080,0.102
6.085,0.126
6.090,0.145
6.095,0.087
6.100,0.072
6.105,0.101
6.110,0.060
6.115,0.026
6.120,0.068
6.125,0.064
6.130,0.017
6.135,0.035
6.140,0.047
6.145,-0.003
6.150,-0.006
6.155,0.030
6.160,-0.002
6.165,-0.025
6.170,0.019
6.175,0.007
6.180,-0.045
6.185,-0.023
6.190,0.000
6.195,-0.044
6.200,-0.042
6.205,-0.004
6.210,-0.039
6.215,-0.072
6.220,-0.034
6.225,-0.042
6.230,-0.087
6.235,-0.056
6.240,-0.030
6.245,-0.078
6.250,-0.082
6.255,-0.044
6.260,-0.073
6.265,-0.100
6.270,-0.059
6.275,-0.060
6.280,-0.100
6.285,-0.070
6.290,-0.049
6.295,-0.109
6.300,-0.116
6.305,-0.071
6.310,-0.094
6.315,-0.115
6.320,-0.069
6.325,-0.079
6.330,-0.135
6.335,-0.118
6.340,-0.102
6.345,-0.159
6.350,-0.180
6.355,-0.168
6.360,-0.208
6.365,-0.221
6.370,-0.184
6.375,-0.205
6.380,-0.235
6.385,-0.166
6.390,-0.096
6.395,-0.094
6.400,-0.067
6.405,-0.025
6.410,-0.035
6.415,-0.024
6.420,0.028
6.425,0.009
6.430,-0.035
6.435,0.005
6.440,0.040
6.445,0.003
6.450,0.008
6.455,0.041
6.460,0.005
6.465,-0.020
6.470,0.022
6.475,0.016
6.480,-0.038
6.485,-0.020
6.490,0.020
6.495,0.026
6.500,0.025
6.505,-0.102
6.510,-0.460
6.515,-0.982
6.520,-1.549
6.525,-1.904
6.530,-1.848
6.535,-1.436
6.540,-0.824
6.545,-0.270
6.550,0.157
6.555,0.415
6.560,0.442
6.565,0.419
6.570,0.436
6.575,0.419
6.580,0.376
6.585,0.390
6.590,0.407
6.595,0.357
6.600,0.344
6.605,0.367
6.610,0.321
6.615,0.282
6.620,0.306
6.625,0.285
6.630,0.229
6.635,0.243
6.640,0.247
6.645,0.185
6.650,0.179
6.655,0.214
6.660,0.179
6.665,0.142
6.670,0.167
6.675,0.146
6.680,0.087
6.685,0.102
6.690,0.112
6.695,0.053
6.700,0.042
6.705,0.068
6.710,0.026
6.715,-0.011
6.720,0.015
6.725,-0.004
6.730,-0.059
6.735,-0.053
6.740,-0.052
6.745,-0.117
6.750,-0.139
6.755,-0.125
6.760,-0.179
6.765,-0.214
6.770,-0.188
6.775,-0.217
6.780,-0.270
6.785,-0.251
6.790,-0.246
6.795,-0.297
6.800,-0.288
6.805,-0.239
6.810,-0.248
6.815,-0.247
6.820,-0.177
6.825,-0.140
6.830,-0.124
6.835,-0.026
6.840,0.070
6.845,0.093
6.850,0.163
6.855,0.273
6.860,0.302
6.865,0.323
6.870,0.400
6.875,0.412
6.880,0.379
6.885,0.414
6.890,0.433
6.895,0.388
6.900,0.391
6.905,0.414
6.910,0.358
6.915,0.313
6.920,0.341
6.925,0.323
6.930,0.262
6.935,0.275
6.940,0.284
6.945,0.221
6.950,0.209
6.955,0.242
6.960,0.196
6.965,0.152
6.970,0.180
6.975,0.165
6.980,0.111
6.985,0.125
6.990,0.133
6.995,0.080
7.000,0.080
7.005,0.116
7.010,0.078
7.015,0.046
7.020,0.082
7.025,0.070
7.030,0.009
7.035,0.024
7.040,0.051
7.045,0.003
7.050,-0.009
7.055,0.033
7.060,0.008
7.065,-0.029
7.070,0.009
7.075,0.008
7.080,-0.046
7.085,-0.024
7.090,0.010
7.095,-0.037
7.100,-0.046
7.105,-0.004
7.110,-0.036
7.115,-0.068
7.120,-0.022
7.125,-0.026
7.130,-0.082
7.135,-0.057
7.140,-0.025
7.145,-0.073
7.150,-0.079
7.155,-0.032
7.160,-0.058
7.165,-0.091
7.170,-0.051
7.175,-0.053
7.180,-0.101
7.185,-0.078
7.190,-0.051
7.195,-0.099
7.200,-0.112
7.205,-0.078
7.210,-0.115
7.215,-0.165
7.220,-0.153
7.225,-0.168
7.230,-0.206
7.235,-0.184
7.240,-0.172
7.245,-0.220
7.250,-0.201
7.255,-0.114
7.260,-0.093
7.265,-0.089
7.270,-0.037
7.275,-0.022
7.280,-0.034
7.285,0.010
7.290,0.032
7.295,-0.014
7.300,-0.007
7.305,0.047
7.310,0.022
7.315,-0.017
7.320,0.024
7.325,0.026
7.330,-0.030
7.335,-0.012
7.340,0.018
7.345,-0.028
7.350,-0.037
7.355,0.013
7.360,0.024
7.365,0.028
7.370,-0.020
7.375,-0.290
7.380,-0.780
7.385,-1.366
7.390,-1.839
7.395,-1.927
7.400,-1.652
7.405,-1.128
7.410,-0.494
7.415,0.012
7.420,0.329
7.425,0.439
7.430,0.424
7.435,0.440
7.440,0.443
7.445,0.391
7.450,0.381
7.455,0.414
7.460,0.376
7.465,0.330
7.470,0.368
7.475,0.362
7.480,0.294
7.485,0.299
7.490,0.311
7.495,0.245
7.500,0.222
7.505,0.256
7.510,0.222
7.515,0.181
7.520,0.214
7.525,0.205
7.530,0.142
7.535,0.151
7.540,0.169
7.545,0.108
7.550,0.088
7.555,0.123
7.560,0.082
7.565,0.030
7.570,0.063
7.575,0.056
7.580,-0.008
7.585,0.001
7.590,0.014
7.595,-0.052
7.600,-0.076
7.605,-0.049
7.610,-0.096
7.615,-0.148
7.620,-0.125
7.625,-0.146
7.630,-0.217
7.635,-0.216
7.640,-0.209
7.645,-0.272
7.650,-0.292
7.655,-0.255
7.660,-0.286
7.665,-0.323
7.670,-0.279
7.675,-0.265
7.680,-0.289
7.685,-0.233
7.690,-0.155
7.695,-0.141
7.700,-0.080
7.705,0.047
7.710,0.100
7.715,0.140
7.720,0.250
7.725,0.310
7.730,0.311
7.735,0.371
7.740,0.433
7.745,0.410
7.750,0.409
7.755,0.454
7.760,0.423
7.765,0.379
7.770,0.408
7.775,0.397
7.780,0.333
7.785,0.340
7.790,0.353
7.795,0.290
7.800,0.266
7.805,0.297
7.810,0.256
7.815,0.206
7.820,0.234
7.825,0.222
7.830,0.155
7.835,0.160
7.840,0.180
7.845,0.127
7.850,0.107
7.855,0.140
7.860,0.105
7.865,0.057
7.870,0.090
7.875,0.086
7.880,0.029
7.885,0.046
7.890,0.074
7.895,0.023
7.900,0.010
7.905,0.049
7.910,0.017
7.915,-0.020
7.920,0.023
7.925,0.024
7.930,-0.029
7.935,-0.011
7.940,0.017
7.945,-0.032
7.950,-0.041
7.955,0.003
7.960,-0.024
7.965,-0.064
7.970,-0.027
7.975,-0.022
7.980,-0.070
7.985,-0.052
7.990,-0.024
7.995,-0.071
8.000,-0.079
8.005,-0.032
8.010,-0.058
8.015,-0.093
8.020,-0.051
8.025,-0.048
8.030,-0.096
8.035,-0.073
8.040,-0.044
8.045,-0.090
8.050,-0.097
8.055,-0.052
8.060,-0.080
8.065,-0.114
8.070,-0.069
8.075,-0.065
8.080,-0.113
8.085,-0.090
8.090,-0.058
8.095,-0.101
8.100,-0.112
8.105,-0.078
8.110,-0.117
8.115,-0.163
8.120,-0.137
8.125,-0.159
8.130,-0.224
8.135,-0.192
8.140,-0.150
8.145,-0.206
8.150,-0.226
8.155,-0.163
8.160,-0.149
8.165,-0.138
8.170,-0.058
8.175,-0.037
8.180,-0.076
8.185,-0.029
8.190,0.031
8.195,-0.006
8.200,-0.021
8.205,0.033
8.210,0.020
8.215,-0.009
8.220,0.037
8.225,0.039
8.230,-0.017
8.235,0.002
8.240,0.034
8.245,-0.015
8.250,-0.027
8.255,0.016
8.260,-0.010
8.265,-0.016
8.270,0.071
8.275,0.018
8.280,-0.272
8.285,-0.638
8.290,-1.149
8.295,-1.751
8.300,-1.958
8.305,-1.721
8.310,-1.281
8.315,-0.664
8.320,-0.090
8.325,0.220
8.330,0.341
8.335,0.442
8.340,0.487
8.345,0.419
8.350,0.401
8.355,0.442
8.360,0.405
8.365,0.363
8.370,0.396
8.375,0.387
8.380,0.323
8.385,0.329
8.390,0.348
8.395,0.290
8.400,0.264
8.405,0.297
8.410,0.259
8.415,0.210
8.420,0.241
8.425,0.235
8.430,0.172
8.435,0.178
8.440,0.200
8.445,0.143
8.450,0.119
8.455,0.154
8.460,0.117
8.465,0.070
8.470,0.098
8.475,0.088
8.480,0.022
8.485,0.029
8.490,0.048
8.495,-0.015
8.500,-0.042
8.505,-0.012
8.510,-0.054
8.515,-0.108
8.520,-0.085
8.525,-0.101
8.530,-0.177
8.535,-0.181
8.540,-0.170
8.545,-0.235
8.550,-0.264
8.555,-0.233
8.560,-0.267
8.565,-0.310
8.570,-0.271
8.575,-0.262
8.580,-0.306
8.585,-0.270
8.590,-0.209
8.595,-0.212
8.600,-0.170
8.605,-0.061
8.610,-0.012
8.615,0.026
8.620,0.143
8.625,0.223
8.630,0.238
8.635,0.312
8.640,0.387
8.645,0.378
8.650,0.392
8.655,0.449
8.660,0.428
8.665,0.387
8.670,0.422
8.675,0.421
8.680,0.361
8.685,0.368
8.690,0.386
8.695,0.324
8.700,0.296
8.705,0.322
8.710,0.281
8.715,0.232
8.720,0.263
8.725,0.251
8.730,0.186
8.735,0.194
8.740,0.215
8.745,0.156
8.750,0.131
8.755,0.165
8.760,0.130
8.765,0.083
8.770,0.114
8.775,0.112
8.780,0.051
8.785,0.058
8.790,0.084
8.795,0.033
8.800,0.017
8.805,0.062
8.810,0.038
8.815,-0.008
8.820,0.025
8.825,0.031
8.830,-0.021
8.835,-0.006
8.840,0.023
8.845,-0.023
8.850,-0.036
8.855,0.003
8.860,-0.025
8.865,-0.059
8.870,-0.016
8.875,-0.009
8.880,-0.064
8.885,-0.048
8.890,-0.014
8.895,-0.062
8.900,-0.079
8.905,-0.036
8.910,-0.055
8.915,-0.092
8.920,-0.059
8.925,-0.055
8.930,-0.102
8.935,-0.084
8.940,-0.052
8.945,-0.096
8.950,-0.108
8.955,-0.059
8.960,-0.078
8.965,-0.113
8.970,-0.069
8.975,-0.059
8.980,-0.110
8.985,-0.085
8.990,-0.044
8.995,-0.090
9.000,-0.099
9.005,-0.050
9.010,-0.080
9.015,-0.118
9.020,-0.073
9.025,-0.068
9.030,-0.125
9.035,-0.116
9.040,-0.094
9.045,-0.153
9.050,-0.190
9.055,-0.165
9.060,-0.183
9.065,-0.213
9.070,-0.186
9.075,-0.182
9.080,-0.208
9.085,-0.150
9.090,-0.071
9.095,-0.069
9.100,-0.053
9.105,-0.003
9.110,-0.007
9.115,-0.012
9.120,0.035
9.125,0.037
9.130,-0.007
9.135,0.018
9.140,0.060
9.145,0.022
9.150,0.007
9.155,0.050
9.160,0.026
9.165,-0.017
9.170,0.017
9.175,0.020
9.180,-0.035
9.185,-0.017
9.190,0.052
9.195,0.056
9.200,-0.014
9.205,-0.206
9.210,-0.613
9.215,-1.196
9.220,-1.727
9.225,-1.912
9.230,-1.720
9.235,-1.219
9.240,-0.561
9.245,-0.071
9.250,0.235
9.255,0.431
9.260,0.458
9.265,0.421
9.270,0.441
9.275,0.443
9.280,0.381
9.285,0.384
9.290,0.415
9.295,0.361
9.300,0.332
9.305,0.365
9.310,0.325
9.315,0.275
9.320,0.305
9.325,0.291
9.330,0.225
9.335,0.236
9.340,0.266
9.345,0.210
9.350,0.182
9.355,0.217
9.360,0.185
9.365,0.131
9.370,0.155
9.375,0.151
9.380,0.094
9.385,0.103
9.390,0.125
9.395,0.065
9.400,0.036
9.405,0.071
9.410,0.036
9.415,-0.019
9.420,0.006
9.425,0.002
9.430,-0.061
9.435,-0.059
9.440,-0.046
9.445,-0.118
9.450,-0.154
9.455,-0.123
9.460,-0.167
9.465,-0.228
9.470,-0.204
9.475,-0.209
9.480,-0.278
9.485,-0.271
9.490,-0.235
9.495,-0.284
9.500,-0.300
9.505,-0.245
9.510,-0.248
9.515,-0.259
9.520,-0.182
9.525,-0.125
9.530,-0.117
9.535,-0.027
9.540,0.083
9.545,0.110
9.550,0.172
9.555,0.283
9.560,0.318
9.565,0.327
9.570,0.398
9.575,0.429
9.580,0.388
9.585,0.404
9.590,0.442
9.595,0.400
9.600,0.370
9.605,0.398
9.610,0.361
9.615,0.303
9.620,0.326
9.625,0.322
9.630,0.260
9.635,0.262
9.640,0.277
9.645,0.220
9.650,0.200
9.655,0.242
9.660,0.207
9.665,0.146
9.670,0.172
9.675,0.170
9.680,0.103
9.685,0.110
9.690,0.142
9.695,0.084
9.700,0.055
9.705,0.094
9.710,0.069
9.715,0.028
9.720,0.065
9.725,0.069
9.730,0.010
9.735,0.018
9.740,0.049
9.745,0.000
9.750,-0.022
9.755,0.021
9.760,0.010
9.765,-0.019
9.770,0.018
9.775,0.014
9.780,-0.051
9.785,-0.037
9.790,0.000
9.795,-0.048
9.800,-0.064
9.805,-0.012
9.810,-0.029
9.815,-0.075
9.820,-0.037
9.825,-0.023
9.830,-0.073
9.835,-0.057
9.840,-0.024
9.845,-0.073
9.850,-0.093
9.855,-0.047
9.860,-0.056
9.865,-0.095
9.870,-0.062
9.875,-0.054
9.880,-0.107
9.885,-0.088
9.890,-0.045
9.895,-0.088
9.900,-0.105
9.905,-0.060
9.910,-0.086
9.915,-0.137
9.920,-0.111
9.925,-0.112
9.930,-0.185
9.935,-0.195
9.940,-0.156
9.945,-0.192
9.950,-0.228
9.955,-0.199
9.960,-0.206
9.965,-0.207
9.970,-0.118
9.975,-0.057
9.980,-0.084
9.985,-0.065
9.990,0.003
9.995,-0.001
10.000,-0.017
10.005,0.018
10.010,0.008
10.015,-0.023
10.020,0.023
10.025,0.042
10.030,-0.014
10.035,-0.004
10.040,0.034
10.045,-0.013
10.050,-0.032
10.055,0.012
10.060,-0.011
10.065,-0.050
10.070,0.014
10.075,0.078
10.080,0.023
10.085,-0.129
10.090,-0.441
10.095,-1.022
10.100,-1.667
10.105,-1.944
10.110,-1.823
10.115,-1.450
10.120,-0.794
10.125,-0.158
10.130,0.203
10.135,0.398
10.140,0.479
10.145,0.441
10.150,0.403
10.155,0.438
10.160,0.417
10.165,0.362
10.170,0.387
10.175,0.391
10.180,0.327
10.185,0.325
10.190,0.350
10.195,0.295
10.200,0.268
10.205,0.305
10.210,0.271
10.215,0.213
10.220,0.239
10.225,0.242
10.230,0.175
10.235,0.171
10.240,0.200
10.245,0.149
10.250,0.118
10.255,0.148
10.260,0.119
10.265,0.073
10.270,0.099
10.275,0.097
10.280,0.034
10.285,0.034
10.290,0.055
10.295,0.004
10.300,-0.020
10.305,0.010
10.310,-0.029
10.315,-0.086
10.320,-0.065
10.325,-0.079
10.330,-0.156
10.335,-0.159
10.340,-0.142
10.345,-0.209
10.350,-0.244
10.355,-0.212
10.360,-0.247
10.365,-0.301
10.370,-0.268
10.375,-0.263
10.380,-0.315
10.385,-0.288
10.390,-0.232
10.395,-0.251
10.400,-0.227
10.405,-0.127
10.410,-0.087
10.415,-0.055
10.420,0.063
10.425,0.148
10.430,0.171
10.435,0.259
10.440,0.352
10.445,0.347
10.450,0.368
10.455,0.443
10.460,0.433
10.465,0.398
10.470,0.439
10.475,0.437
10.480,0.373
10.485,0.380
10.490,0.403
10.495,0.345
10.500,0.317
10.505,0.346
10.510,0.303
10.515,0.248
10.520,0.280
10.525,0.279
10.530,0.211
10.535,0.210
10.540,0.228
10.545,0.166
10.550,0.138
10.555,0.175
10.560,0.139
10.565,0.084
10.570,0.119
10.575,0.122
10.580,0.053
10.585,0.057
10.590,0.090
10.595,0.047
10.600,0.029
10.605,0.066
10.610,0.037
10.615,-0.009
10.620,0.028
10.625,0.040
10.630,-0.009
10.635,0.004
10.640,0.036
10.645,-0.010
10.650,-0.028
10.655,0.019
10.660,-0.007
10.665,-0.055
10.670,-0.016
10.675,-0.006
10.680,-0.062
10.685,-0.048
10.690,-0.013
10.695,-0.059
10.700,-0.074
10.705,-0.027
10.710,-0.049
10.715,-0.090
10.720,-0.049
10.725,-0.033
10.730,-0.084
10.735,-0.071
10.740,-0.034
10.745,-0.082
10.750,-0.101
10.755,-0.051
10.760,-0.070
10.765,-0.112
10.770,-0.068
10.775,-0.055
10.780,-0.113
10.785,-0.102
10.790,-0.068
10.795,-0.126
10.800,-0.160
10.805,-0.131
10.810,-0.179
10.815,-0.227
10.820,-0.171
10.825,-0.164
10.830,-0.236
10.835,-0.217
10.840,-0.142
10.845,-0.139
10.850,-0.113
10.855,-0.037
10.860,-0.050
10.865,-0.076
10.870,0.000
10.875,0.028
10.880,-0.031
10.885,-0.012
10.890,0.037
10.895,-0.005
10.900,-0.018
10.905,0.037
10.910,0.015
10.915,-0.029
10.920,0.012
10.925,0.019
10.930,-0.040
10.935,-0.025
10.940,0.010
10.945,-0.023
10.950,0.010
10.955,0.065
10.960,-0.118
10.965,-0.495
10.970,-0.938
10.975,-1.522
10.980,-1.943
10.985,-1.878
10.990,-1.494
10.995,-0.932
11.000,-0.334
11.005,0.126
11.010,0.337
11.015,0.391
11.020,0.463
11.025,0.461
11.030,0.389
11.035,0.400
11.040,0.429
11.045,0.376
11.050,0.355
11.055,0.394
11.060,0.360
11.065,0.303
11.070,0.329
11.075,0.325
11.080,0.257
11.085,0.259
11.090,0.287
11.095,0.226
11.100,0.192
11.105,0.229
11.110,0.196
11.115,0.142
11.120,0.176
11.125,0.182
11.130,0.114
11.135,0.114
11.140,0.142
11.145,0.086
11.150,0.055
11.155,0.092
11.160,0.062
11.165,0.003
11.170,0.027
11.175,0.026
11.180,-0.044
11.185,-0.049
11.190,-0.027
11.195,-0.086
11.200,-0.124
11.205,-0.096
11.210,-0.136
11.215,-0.205
11.220,-0.192
11.225,-0.198
11.230,-0.267
11.235,-0.269
11.240,-0.243
11.245,-0.295
11.250,-0.314
11.255,-0.264
11.260,-0.280
11.265,-0.311
11.270,-0.243
11.275,-0.190
11.280,-0.196
11.285,-0.121
11.290,-0.008
11.295,0.025
11.300,0.083
11.305,0.208
11.310,0.260
11.315,0.275
11.320,0.362
11.325,0.413
11.330,0.384
11.335,0.412
11.340,0.458
11.345,0.414
11.350,0.391
11.355,0.431
11.360,0.400
11.365,0.342
11.370,0.365
11.375,0.366
11.380,0.299
11.385,0.294
11.390,0.317
11.395,0.261
11.400,0.229
11.405,0.261
11.410,0.229
11.415,0.173
11.420,0.198
11.425,0.200
11.430,0.135
11.435,0.135
11.440,0.162
11.445,0.105
11.450,0.074
11.455,0.116
11.460,0.090
11.465,0.035
11.470,0.068
11.475,0.076
11.480,0.012
11.485,0.017
11.490,0.055
11.495,0.007
11.500,-0.014
11.505,0.035
11.510,0.016
11.515,-0.030
11.520,0.004
11.525,0.017
11.530,-0.036
11.535,-0.024
11.540,0.013
11.545,-0.035
11.550,-0.052
11.555,-0.001
11.560,-0.023
11.565,-0.073
11.570,-0.035
11.575,-0.020
11.580,-0.078
11.585,-0.066
11.590,-0.024
11.595,-0.069
11.600,-0.091
11.605,-0.041
11.610,-0.061
11.615,-0.106
11.620,-0.063
11.625,-0.047
11.630,-0.100
11.635,-0.087
11.640,-0.045
11.645,-0.090
11.650,-0.113
11.655,-0.058
11.660,-0.071
11.665,-0.116
11.670,-0.074
11.675,-0.054
11.680,-0.110
11.685,-0.099
11.690,-0.054
11.695,-0.096
11.700,-0.117
11.705,-0.068
11.710,-0.092
11.715,-0.147
11.720,-0.110
11.725,-0.100
11.730,-0.175
11.735,-0.194
11.740,-0.169
11.745,-0.199
11.750,-0.210
11.755,-0.170
11.760,-0.191
11.765,-0.215
11.770,-0.129
11.775,-0.065
11.780,-0.083
11.785,-0.058
11.790,-0.010
11.795,-0.027
11.800,-0.016
11.805,0.043
11.810,0.023
11.815,-0.016
11.820,0.034
11.825,0.056
11.830,0.003
11.835,0.013
11.840,0.053
11.845,0.006
11.850,-0.021
11.855,0.026
11.860,0.011
11.865,-0.041
11.870,0.000
11.875,0.059
11.880,0.035
11.885,-0.066
11.890,-0.308
11.895,-0.773
11.900,-1.361
11.905,-1.811
11.910,-1.897
11.915,-1.609
11.920,-1.037
11.925,-0.417
11.930,-0.009
11.935,0.250
11.940,0.426
11.945,0.441
11.950,0.416
11.955,0.454
11.960,0.432
11.965,0.374
11.970,0.402
11.975,0.414
11.980,0.351
11.985,0.352
11.990,0.381
11.995,0.324
12.000,0.291
12.005,0.329
12.010,0.294
12.015,0.232
12.020,0.266
12.025,0.275
12.030,0.208
12.035,0.204
12.040,0.230
12.045,0.172
12.050,0.139
12.055,0.179
12.060,0.149
12.065,0.088
12.070,0.119
12.075,0.124
12.080,0.050
12.085,0.046
12.090,0.079
12.095,0.023
12.100,-0.014
12.105,0.030
12.110,0.008
12.115,-0.061
12.120,-0.046
12.125,-0.047
12.130,-0.124
12.135,-0.138
12.140,-0.116
12.145,-0.180
12.150,-0.228
12.155,-0.203
12.160,-0.235
12.165,-0.291
12.170,-0.260
12.175,-0.245
12.180,-0.302
12.185,-0.295
12.190,-0.245
12.195,-0.266
12.200,-0.253
12.205,-0.157
12.210,-0.119
12.215,-0.108
12.220,-0.003
12.225,0.097
12.230,0.124
12.235,0.206
12.240,0.314
12.245,0.318
12.250,0.328
12.255,0.408
12.260,0.417
12.265,0.388
12.270,0.430
12.275,0.436
12.280,0.369
12.285,0.372
12.290,0.406
12.295,0.351
12.300,0.315
12.305,0.349
12.310,0.315
12.315,0.256
12.320,0.282
12.325,0.279
12.330,0.205
12.335,0.203
12.340,0.237
12.345,0.179
12.350,0.142
12.355,0.185
12.360,0.162
12.365,0.102
12.370,0.127
12.375,0.137
12.380,0.078
12.385,0.083
12.390,0.117
12.395,0.061
12.400,0.023
12.405,0.066
12.410,0.055
12.415,0.005
12.420,0.032
12.425,0.042
12.430,-0.021
12.435,-0.018
12.440,0.030
12.445,-0.004
12.450,-0.026
12.455,0.018
12.460,-0.001
12.465,-0.049
12.470,-0.012
12.475,0.002
12.480,-0.058
12.485,-0.046
12.490,0.002
12.495,-0.047
12.500,-0.078
12.505,-0.029
12.510,-0.046
12.515,-0.098
12.520,-0.059
12.525,-0.032
12.530,-0.089
12.535,-0.086
12.540,-0.034
12.545,-0.072
12.550,-0.107
12.555,-0.057
12.560,-0.064
12.565,-0.114
12.570,-0.084
12.575,-0.064
12.580,-0.110
12.585,-0.097
12.590,-0.051
12.595,-0.087
12.600,-0.111
12.605,-0.066
12.610,-0.081
12.615,-0.124
12.620,-0.079
12.625,-0.055
12.630,-0.110
12.635,-0.110
12.640,-0.075
12.645,-0.118
12.650,-0.149
12.655,-0.121
12.660,-0.165
12.665,-0.228
12.670,-0.177
12.675,-0.156
12.680,-0.235
12.685,-0.239
12.690,-0.171
12.695,-0.158
12.700,-0.127
12.705,-0.037
12.710,-0.037
12.715,-0.083
12.720,-0.016
12.725,0.040
12.730,-0.012
12.735,-0.007
12.740,0.046
12.745,0.003
12.750,-0.021
12.755,0.040
12.760,0.038
12.765,-0.010
12.770,0.018
12.775,0.037
12.780,-0.021
12.785,-0.016
12.790,0.032
12.795,-0.009
12.800,0.002
12.805,0.103
12.810,0.024
12.815,-0.284
12.820,-0.676
12.825,-1.247
12.830,-1.815
12.835,-1.917
12.840,-1.635
12.845,-1.158
12.850,-0.503
12.855,0.084
12.860,0.365
12.865,0.412
12.870,0.461
12.875,0.476
12.880,0.402
12.885,0.400
12.890,0.431
12.895,0.376
12.900,0.342
12.905,0.384
12.910,0.359
12.915,0.290
12.920,0.314
12.925,0.327
12.930,0.258
12.935,0.250
12.940,0.282
12.945,0.230
12.950,0.191
12.955,0.231
12.960,0.212
12.965,0.150
12.970,0.172
12.975,0.184
12.980,0.118
12.985,0.112
12.990,0.143
12.995,0.088
13.000,0.054
13.005,0.096
13.010,0.067
13.015,0.000
13.020,0.023
13.025,0.037
13.030,-0.028
13.035,-0.040
13.040,-0.012
13.045,-0.067
13.050,-0.113
13.055,-0.080
13.060,-0.112
13.065,-0.183
13.070,-0.165
13.075,-0.166
13.080,-0.243
13.085,-0.250
13.090,-0.214
13.095,-0.263
13.100,-0.296
13.105,-0.247
13.110,-0.251
13.115,-0.291
13.120,-0.237
13.125,-0.185
13.130,-0.198
13.135,-0.141
13.140,-0.033
13.145,0.000
13.150,0.047
13.155,0.170
13.160,0.228
13.165,0.240
13.170,0.333
13.175,0.401
13.180,0.374
13.185,0.397
13.190,0.454
13.195,0.419
13.200,0.393
13.205,0.437
13.210,0.415
13.215,0.353
13.220,0.371
13.225,0.379
13.230,0.308
13.235,0.296
13.240,0.325
13.245,0.268
13.250,0.227
13.255,0.270
13.260,0.248
13.265,0.177
13.270,0.197
13.275,0.212
13.280,0.143
13.285,0.133
13.290,0.170
13.295,0.123
13.300,0.083
13.305,0.118
13.310,0.100
13.315,0.046
13.320,0.074
13.325,0.093
13.330,0.033
13.335,0.027
13.340,0.065
13.345,0.022
13.350,-0.010
13.355,0.044
13.360,0.038
13.365,-0.018
13.370,0.011
13.375,0.032
13.380,-0.028
13.385,-0.027
13.390,0.017
13.395,-0.026
13.400,-0.056
13.405,-0.004
13.410,-0.015
13.415,-0.070
13.420,-0.034
13.425,-0.007
13.430,-0.067
13.435,-0.069
13.440,-0.023
13.445,-0.060
13.450,-0.087
13.455,-0.038
13.460,-0.049
13.465,-0.099
13.470,-0.066
13.475,-0.042
13.480,-0.094
13.485,-0.092
13.490,-0.047
13.495,-0.086
13.500,-0.115
13.505,-0.060
13.510,-0.060
13.515,-0.110
13.520,-0.080
13.525,-0.054
13.530,-0.109
13.535,-0.110
13.540,-0.069
13.545,-0.115
13.550,-0.153
13.555,-0.108
13.560,-0.130
13.565,-0.215
13.570,-0.197
13.575,-0.156
13.580,-0.206
13.585,-0.217
13.590,-0.174
13.595,-0.189
13.600,-0.175
13.605,-0.078
13.610,-0.044
13.615,-0.083
13.620,-0.041
13.625,0.024
13.630,0.000
13.635,-0.002
13.640,0.041
13.645,0.014
13.650,-0.010
13.655,0.044
13.660,0.040
13.665,-0.014
13.670,0.015
13.675,0.039
13.680,-0.020
13.685,-0.023
13.690,0.023
13.695,-0.013
13.700,-0.035
13.705,0.056
13.710,0.067
13.715,-0.129
13.720,-0.423
13.725,-0.882
13.730,-1.539
13.735,-1.932
13.740,-1.850
13.745,-1.538
13.750,-0.974
13.755,-0.297
13.760,0.133
13.765,0.309
13.770,0.431
13.775,0.491
13.780,0.426
13.785,0.411
13.790,0.454
13.795,0.406
13.800,0.363
13.805,0.401
13.810,0.382
13.815,0.320
13.820,0.339
13.825,0.348
13.830,0.282
13.835,0.276
13.840,0.308
13.845,0.257
13.850,0.214
13.855,0.249
13.860,0.232
13.865,0.167
13.870,0.186
13.875,0.202
13.880,0.135
13.885,0.125
13.890,0.165
13.895,0.118
13.900,0.072
13.905,0.105
13.910,0.085
13.915,0.020
13.920,0.040
13.925,0.053
13.930,-0.014
13.935,-0.026
13.940,0.006
13.945,-0.052
13.950,-0.105
13.955,-0.077
13.960,-0.102
13.965,-0.174
13.970,-0.165
13.975,-0.159
13.980,-0.231
13.985,-0.252
13.990,-0.221
13.995,-0.267
14.000,-0.307
14.005,-0.262
14.010,-0.265
14.015,-0.313
14.020,-0.273
14.025,-0.221
14.030,-0.237
14.035,-0.193
14.040,-0.088
14.045,-0.054
14.050,-0.013
14.055,0.112
14.060,0.184
14.065,0.202
14.070,0.294
14.075,0.370
14.080,0.360
14.085,0.394
14.090,0.457
14.095,0.430
14.100,0.399
14.105,0.440
14.110,0.426
14.115,0.360
14.120,0.377
14.125,0.390
14.130,0.321
14.135,0.304
14.140,0.338
14.145,0.289
14.150,0.241
14.155,0.274
14.160,0.255
14.165,0.183
14.170,0.199
14.175,0.216
14.180,0.148
14.185,0.136
14.190,0.172
14.195,0.127
14.200,0.084
14.205,0.120
14.210,0.110
14.215,0.051
14.220,0.070
14.225,0.088
14.230,0.024
14.235,0.014
14.240,0.057
14.245,0.021
14.250,-0.012
14.255,0.033
14.260,0.026
14.265,-0.029
14.270,-0.002
14.275,0.024
14.280,-0.030
14.285,-0.033
14.290,0.014
14.295,-0.020
14.300,-0.056
14.305,-0.011
14.310,-0.015
14.315,-0.068
14.320,-0.041
14.325,-0.019
14.330,-0.072
14.335,-0.069
14.340,-0.021
14.345,-0.055
14.350,-0.088
14.355,-0.041
14.360,-0.044
14.365,-0.099
14.370,-0.072
14.375,-0.041
14.380,-0.092
14.385,-0.095
14.390,-0.047
14.395,-0.080
14.400,-0.110
14.405,-0.060
14.410,-0.067
14.415,-0.118
14.420,-0.082
14.425,-0.054
14.430,-0.109
14.435,-0.113
14.440,-0.073
14.445,-0.118
14.450,-0.166
14.455,-0.135
14.460,-0.157
14.465,-0.229
14.470,-0.194
14.475,-0.149
14.480,-0.210
14.485,-0.226
14.490,-0.168
14.495,-0.159
14.500,-0.142
14.505,-0.054
14.510,-0.035
14.515,-0.079
14.520,-0.026
14.525,0.034
14.530,-0.013
14.535,-0.020
14.540,0.039
14.545,0.017
14.550,-0.013
14.555,0.038
14.560,0.037
14.565,-0.019
14.570,0.005
14.575,0.031
14.580,-0.023
14.585,-0.030
14.590,0.014
14.595,-0.016
14.600,-0.015
14.605,0.075
14.610,0.001
14.615,-0.305
14.620,-0.671
14.625,-1.185
14.630,-1.765
14.635,-1.937
14.640,-1.673
14.645,-1.203
14.650,-0.597
14.655,-0.054
14.660,0.235
14.665,0.342
14.670,0.440
14.675,0.473
14.680,0.401
14.685,0.392
14.690,0.432
14.695,0.389
14.700,0.347
14.705,0.387
14.710,0.376
14.715,0.310
14.720,0.324
14.725,0.341
14.730,0.276
14.735,0.257
14.740,0.291
14.745,0.249
14.750,0.202
14.755,0.236
14.760,0.223
14.765,0.159
14.770,0.174
14.775,0.194
14.780,0.129
14.785,0.114
14.790,0.152
14.795,0.109
14.800,0.061
14.805,0.093
14.810,0.080
14.815,0.012
14.820,0.026
14.825,0.044
14.830,-0.024
14.835,-0.045
14.840,-0.014
14.845,-0.064
14.850,-0.115
14.855,-0.088
14.860,-0.109
14.865,-0.181
14.870,-0.179
14.875,-0.175
14.880,-0.248
14.885,-0.270
14.890,-0.234
14.895,-0.274
14.900,-0.318
14.905,-0.277
14.910,-0.276
14.915,-0.325
14.920,-0.277
14.925,-0.201
14.930,-0.206
14.935,-0.165
14.940,-0.053
14.945,-0.012
14.950,0.031
14.955,0.158
14.960,0.232
14.965,0.239
14.970,0.315
14.975,0.393
14.980,0.382
14.985,0.399
14.990,0.455
14.995,0.428
15.000,0.393
15.005,0.435
15.010,0.427
15.015,0.362
15.020,0.370
15.025,0.386
15.030,0.324
15.035,0.302
15.040,0.333
15.045,0.284
15.050,0.231
15.055,0.265
15.060,0.255
15.065,0.185
15.070,0.191
15.075,0.212
15.080,0.158
15.085,0.142
15.090,0.178
15.095,0.137
15.100,0.086
15.105,0.120
15.110,0.115
15.115,0.053
15.120,0.072
15.125,0.097
15.130,0.035
15.135,0.019
15.140,0.058
15.145,0.026
15.150,-0.010
15.155,0.030
15.160,0.033
15.165,-0.014
15.170,0.006
15.175,0.030
15.180,-0.019
15.185,-0.027
15.190,0.013
15.195,-0.022
15.200,-0.060
15.205,-0.013
15.210,-0.013
15.215,-0.068
15.220,-0.038
15.225,-0.006
15.230,-0.063
15.235,-0.076
15.240,-0.028
15.245,-0.056
15.250,-0.096
15.255,-0.048
15.260,-0.036
15.265,-0.090
15.270,-0.076
15.275,-0.046
15.280,-0.093
15.285,-0.100
15.290,-0.049
15.295,-0.076
15.300,-0.115
15.305,-0.066
15.310,-0.063
15.315,-0.121
15.320,-0.096
15.325,-0.058
15.330,-0.105
15.335,-0.121
15.340,-0.082
15.345,-0.119
15.350,-0.163
15.355,-0.129
15.360,-0.154
15.365,-0.232
15.370,-0.201
15.375,-0.157
15.380,-0.222
15.385,-0.243
15.390,-0.178
15.395,-0.167
15.400,-0.159
15.405,-0.066
15.410,-0.035
15.415,-0.085
15.420,-0.042
15.425,0.027
15.430,-0.007
15.435,-0.023
15.440,0.027
15.445,0.010
15.450,-0.019
15.455,0.034
15.460,0.041
15.465,-0.017
15.470,0.003
15.475,0.034
15.480,-0.022
15.485,-0.036
15.490,0.010
15.495,-0.013
15.500,-0.020
15.505,0.079
15.510,0.062
15.515,-0.189
15.520,-0.532
15.525,-1.042
15.530,-1.678
15.535,-1.938
15.540,-1.741
15.545,-1.328
15.550,-0.712
15.555,-0.089
15.560,0.286
15.565,0.397
15.570,0.449
15.575,0.478
15.580,0.398
15.585,0.379
15.590,0.429
15.595,0.387
15.600,0.342
15.605,0.389
15.610,0.384
15.615,0.309
15.620,0.311
15.625,0.328
15.630,0.263
15.635,0.245
15.640,0.288
15.645,0.245
15.650,0.185
15.655,0.219
15.660,0.220
15.665,0.156
15.670,0.165
15.675,0.189
15.680,0.129
15.685,0.107
15.690,0.140
15.695,0.097
15.700,0.051
15.705,0.090
15.710,0.080
15.715,0.011
15.720,0.019
15.725,0.042
15.730,-0.015
15.735,-0.037
15.740,-0.006
15.745,-0.053
15.750,-0.112
15.755,-0.087
15.760,-0.098
15.765,-0.168
15.770,-0.173
15.775,-0.167
15.780,-0.237
15.785,-0.263
15.790,-0.220
15.795,-0.251
15.800,-0.299
15.805,-0.255
15.810,-0.241
15.815,-0.287
15.820,-0.254
15.825,-0.193
15.830,-0.201
15.835,-0.157
15.840,-0.051
15.845,-0.012
15.850,0.022
15.855,0.145
15.860,0.220
15.865,0.225
15.870,0.304
15.875,0.387
15.880,0.369
15.885,0.376
15.890,0.438
15.895,0.414
15.900,0.370
15.905,0.414
15.910,0.411
15.915,0.338
15.920,0.347
15.925,0.375
15.930,0.315
15.935,0.286
15.940,0.315
15.945,0.273
15.950,0.219
15.955,0.253
15.960,0.246
15.965,0.175
15.970,0.183
15.975,0.206
15.980,0.144
15.985,0.121
15.990,0.158
15.995,0.122
16.000,0.075
16.005,0.111
16.010,0.107
16.015,0.044
16.020,0.058
16.025,0.088
16.030,0.034
16.035,0.018
16.040,0.066
16.045,0.036
16.050,-0.013
16.055,0.031
16.060,0.041
16.065,-0.019
16.070,-0.004
16.075,0.030
16.080,-0.023
16.085,-0.038
16.090,0.010
16.095,-0.018
16.100,-0.058
16.105,-0.011
16.110,-0.002
16.115,-0.060
16.120,-0.043
16.125,-0.005
16.130,-0.052
16.135,-0.070
16.140,-0.024
16.145,-0.045
16.150,-0.082
16.155,-0.038
16.160,-0.033
16.165,-0.088
16.170,-0.065
16.175,-0.030
16.180,-0.081
16.185,-0.100
16.190,-0.061
16.195,-0.091
16.200,-0.134
16.205,-0.099
16.210,-0.102
16.215,-0.176
16.220,-0.186
16.225,-0.153
16.230,-0.187
16.235,-0.209
16.240,-0.179
16.245,-0.194
16.250,-0.199
16.255,-0.115
16.260,-0.057
16.265,-0.081
16.270,-0.064
16.275,-0.008
16.280,-0.016
16.285,-0.023
16.290,0.016
16.295,0.005
16.300,-0.025
16.305,0.020
16.310,0.038
16.315,-0.014
16.320,-0.002
16.325,0.031
16.330,-0.016
16.335,-0.034
16.340,0.008
16.345,-0.023
16.350,-0.068
16.355,-0.002
16.360,0.065
16.365,0.006
16.370,-0.163
16.375,-0.497
16.380,-1.079
16.385,-1.697
16.390,-1.946
16.395,-1.812
16.400,-1.427
16.405,-0.768
16.410,-0.158
16.415,0.174
16.420,0.372
16.425,0.469
16.430,0.430
16.435,0.390
16.440,0.430
16.445,0.408
16.450,0.356
16.455,0.389
16.460,0.387
16.465,0.322
16.470,0.329
16.475,0.355
16.480,0.296
16.485,0.266
16.490,0.300
16.495,0.263
16.500,0.209
16.505,0.238
16.510,0.232
16.515,0.169
16.520,0.179
16.525,0.202
16.530,0.143
16.535,0.117
16.540,0.155
16.545,0.121
16.550,0.067
16.555,0.097
16.560,0.094
16.565,0.029
16.570,0.034
16.575,0.056
16.580,-0.003
16.585,-0.027
16.590,0.006
16.595,-0.033
16.600,-0.093
16.605,-0.071
16.610,-0.080
16.615,-0.156
16.620,-0.163
16.625,-0.149
16.630,-0.218
16.635,-0.253
16.640,-0.221
16.645,-0.255
16.650,-0.306
16.655,-0.273
16.660,-0.269
16.665,-0.321
16.670,-0.295
16.675,-0.240
16.680,-0.260
16.685,-0.235
16.690,-0.130
16.695,-0.084
16.700,-0.054
16.705,0.063
16.710,0.150
16.715,0.172
16.720,0.254
16.725,0.345
16.730,0.349
16.735,0.371
16.740,0.436
16.745,0.428
16.750,0.393
16.755,0.432
16.760,0.437
16.765,0.376
16.770,0.380
16.775,0.403
16.780,0.343
16.785,0.313
16.790,0.343
16.795,0.306
16.800,0.256
16.805,0.283
16.810,0.273
16.815,0.201
16.820,0.201
16.825,0.227
16.830,0.172
16.835,0.140
16.840,0.174
16.845,0.144
16.850,0.092
16.855,0.123
16.860,0.124
16.865,0.062
16.870,0.067
16.875,0.092
16.880,0.042
16.885,0.022
16.890,0.062
16.895,0.039
16.900,-0.004
16.905,0.028
16.910,0.034
16.915,-0.016
16.920,0.000
16.925,0.035
16.930,-0.011
16.935,-0.030
16.940,0.013
16.945,-0.007
16.950,-0.050
16.955,-0.014
16.960,-0.003
16.965,-0.057
16.970,-0.044
16.975,-0.010
16.980,-0.056
16.985,-0.072
16.990,-0.026
16.995,-0.045
17.000,-0.087
17.005,-0.052
17.010,-0.043
17.015,-0.092
17.020,-0.075
17.025,-0.040
17.030,-0.085
17.035,-0.102
17.040,-0.055
17.045,-0.077
17.050,-0.123
17.055,-0.086
17.060,-0.084
17.065,-0.150
17.070,-0.152
17.075,-0.148
17.080,-0.209
17.085,-0.209
17.090,-0.156
17.095,-0.189
17.100,-0.235
17.105,-0.173
17.110,-0.119
17.115,-0.130
17.120,-0.078
17.125,-0.025
17.130,-0.058
17.135,-0.041
17.140,0.031
17.145,0.009
17.150,-0.036
17.155,0.010
17.160,0.028
17.165,-0.017
17.170,0.002
17.175,0.036
17.180,-0.009
17.185,-0.024
17.190,0.021
17.195,-0.006
17.200,-0.052
17.205,-0.015
17.210,-0.003
17.215,-0.025
17.220,0.031
17.225,-0.006
17.230,-0.305
17.235,-0.722
17.240,-1.231
17.245,-1.783
17.250,-1.971
17.255,-1.693
17.260,-1.183
17.265,-0.593
17.270,-0.078
17.275,0.246
17.280,0.361
17.285,0.411
17.290,0.460
17.295,0.421
17.300,0.368
17.305,0.396
17.310,0.403
17.315,0.350
17.320,0.355
17.325,0.376
17.330,0.319
17.335,0.288
17.340,0.320
17.345,0.289
17.350,0.234
17.355,0.259
17.360,0.259
17.365,0.196
17.370,0.200
17.375,0.224
17.380,0.172
17.385,0.144
17.390,0.177
17.395,0.149
17.400,0.097
17.405,0.123
17.410,0.121
17.415,0.058
17.420,0.060
17.425,0.079
17.430,0.021
17.435,-0.009
17.440,0.027
17.445,-0.003
17.450,-0.060
17.455,-0.039
17.460,-0.045
17.465,-0.116
17.470,-0.125
17.475,-0.113
17.480,-0.175
17.485,-0.211
17.490,-0.189
17.495,-0.226
17.500,-0.280
17.505,-0.255
17.510,-0.257
17.515,-0.314
17.520,-0.297
17.525,-0.260
17.530,-0.293
17.535,-0.286
17.540,-0.210
17.545,-0.184
17.550,-0.167
17.555,-0.065
17.560,0.022
17.565,0.051
17.570,0.138
17.575,0.242
17.580,0.265
17.585,0.304
17.590,0.393
17.595,0.407
17.600,0.385
17.605,0.431
17.610,0.446
17.615,0.394
17.620,0.400
17.625,0.424
17.630,0.369
17.635,0.338
17.640,0.369
17.645,0.341
17.650,0.287
17.655,0.307
17.660,0.302
17.665,0.241
17.670,0.242
17.675,0.261
17.680,0.208
17.685,0.181
17.690,0.209
17.695,0.178
17.700,0.128
17.705,0.151
17.710,0.150
17.715,0.090
17.720,0.091
17.725,0.119
17.730,0.074
17.735,0.048
17.740,0.084
17.745,0.062
17.750,0.015
17.755,0.043
17.760,0.049
17.765,-0.005
17.770,0.009
17.775,0.040
17.780,-0.006
17.785,-0.023
17.790,0.020
17.795,-0.003
17.800,-0.047
17.805,-0.009
17.810,0.001
17.815,-0.050
17.820,-0.039
17.825,-0.009
17.830,-0.053
17.835,-0.067
17.840,-0.022
17.845,-0.042
17.850,-0.085
17.855,-0.053
17.860,-0.044
17.865,-0.093
17.870,-0.080
17.875,-0.049
17.880,-0.089
17.885,-0.101
17.890,-0.057
17.895,-0.076
17.900,-0.117
17.905,-0.079
17.910,-0.066
17.915,-0.115
17.920,-0.102
17.925,-0.066
17.930,-0.112
17.935,-0.138
17.940,-0.104
17.945,-0.134
17.950,-0.197
17.955,-0.186
17.960,-0.172
17.965,-0.209
17.970,-0.206
17.975,-0.184
17.980,-0.208
17.985,-0.177
17.990,-0.081
17.995,-0.058
18.000,-0.081
18.005,-0.044
18.010,-0.007
18.015,-0.015
18.020,0.010
18.025,0.037
18.030,-0.001
18.035,-0.011
18.040,0.034
18.045,0.024
18.050,-0.014
18.055,0.016
18.060,0.025
18.065,-0.027
18.070,-0.018
18.075,0.014
18.080,-0.033
18.085,-0.051
18.090,0.022
18.095,0.055
18.100,-0.025
18.105,-0.207
18.110,-0.556
18.115,-1.127
18.120,-1.696
18.125,-1.929
18.130,-1.784
18.135,-1.307
18.140,-0.639
18.145,-0.127
18.150,0.178
18.155,0.387
18.160,0.460
18.165,0.419
18.170,0.405
18.175,0.427
18.180,0.387
18.185,0.363
18.190,0.398
18.195,0.370
18.200,0.315
18.205,0.338
18.210,0.338
18.215,0.277
18.220,0.276
18.225,0.292
18.230,0.233
18.235,0.199
18.240,0.233
18.245,0.215
18.250,0.171
18.255,0.195
18.260,0.195
18.265,0.134
18.270,0.129
18.275,0.152
18.280,0.106
18.285,0.081
18.290,0.110
18.295,0.076
18.300,0.024
18.305,0.047
18.310,0.044
18.315,-0.020
18.320,-0.022
18.325,-0.003
18.330,-0.058
18.335,-0.090
18.340,-0.057
18.345,-0.087
18.350,-0.150
18.355,-0.138
18.360,-0.150
18.365,-0.230
18.370,-0.241
18.375,-0.218
18.380,-0.268
18.385,-0.293
18.390,-0.252
18.395,-0.263
18.400,-0.297
18.405,-0.258
18.410,-0.232
18.415,-0.254
18.420,-0.200
18.425,-0.108
18.430,-0.085
18.435,-0.035
18.440,0.084
18.445,0.145
18.450,0.176
18.455,0.273
18.460,0.337
18.465,0.335
18.470,0.381
18.475,0.426
18.480,0.387
18.485,0.380
18.490,0.437
18.495,0.411
18.500,0.357
18.505,0.390
18.510,0.385
18.515,0.315
18.520,0.317
18.525,0.336
18.530,0.276
18.535,0.243
18.540,0.271
18.545,0.241
18.550,0.191
18.555,0.216
18.560,0.210
18.565,0.145
18.570,0.146
18.575,0.173
18.580,0.127
18.585,0.100
18.590,0.126
18.595,0.097
18.600,0.057
18.605,0.091
18.610,0.095
18.615,0.037
18.620,0.046
18.625,0.077
18.630,0.027
18.635,0.005
18.640,0.045
18.645,0.027
18.650,-0.011
18.655,0.018
18.660,0.025
18.665,-0.028
18.670,-0.021
18.675,0.011
18.680,-0.032
18.685,-0.049
18.690,0.000
18.695,-0.015
18.700,-0.059
18.705,-0.028
18.710,-0.018
18.715,-0.062
18.720,-0.048
18.725,-0.015
18.730,-0.056
18.735,-0.079
18.740,-0.043
18.745,-0.058
18.750,-0.091
18.755,-0.057
18.760,-0.055
18.765,-0.103
18.770,-0.079
18.775,-0.041
18.780,-0.085
18.785,-0.106
18.790,-0.068
18.795,-0.094
18.800,-0.139
18.805,-0.109
18.810,-0.111
18.815,-0.182
18.820,-0.196
18.825,-0.168
18.830,-0.197
18.835,-0.216
18.840,-0.190
18.845,-0.199
18.850,-0.189
18.855,-0.098
18.860,-0.041
18.865,-0.069
18.870,-0.049
18.875,0.018
18.880,0.013
18.885,-0.002
18.890,0.030
18.895,0.025
18.900,0.006
18.905,0.046
18.910,0.051
18.915,-0.005
18.920,0.006
18.925,0.042
18.930,0.002
18.935,-0.012
18.940,0.034
18.945,0.008
18.950,-0.040
18.955,0.018
18.960,0.088
18.965,0.024
18.970,-0.159
18.975,-0.492
18.980,-1.076
18.985,-1.702
18.990,-1.959
18.995,-1.815
19.000,-1.386
19.005,-0.714
19.010,-0.117
19.015,0.218
19.020,0.396
19.025,0.471
19.030,0.434
19.035,0.388
19.040,0.417
19.045,0.399
19.050,0.349
19.055,0.372
19.060,0.368
19.065,0.305
19.070,0.306
19.075,0.331
19.080,0.277
19.085,0.247
19.090,0.278
19.095,0.247
19.100,0.195
19.105,0.218
19.110,0.219
19.115,0.159
19.120,0.154
19.125,0.176
19.130,0.133
19.135,0.112
19.140,0.144
19.145,0.111
19.150,0.059
19.155,0.083
19.160,0.083
19.165,0.024
19.170,0.024
19.175,0.043
19.180,-0.012
19.185,-0.039
19.190,-0.012
19.195,-0.048
19.200,-0.102
19.205,-0.085
19.210,-0.094
19.215,-0.161
19.220,-0.169
19.225,-0.154
19.230,-0.219
19.235,-0.259
19.240,-0.233
19.245,-0.263
19.250,-0.309
19.255,-0.274
19.260,-0.263
19.265,-0.308
19.270,-0.283
19.275,-0.231
19.280,-0.246
19.285,-0.219
19.290,-0.123
19.295,-0.076
19.300,-0.041
19.305,0.067
19.310,0.157
19.315,0.184
19.320,0.256
19.325,0.343
19.330,0.346
19.335,0.363
19.340,0.436
19.345,0.433
19.350,0.388
19.355,0.416
19.360,0.424
19.365,0.370
19.370,0.371
19.375,0.393
19.380,0.341
19.385,0.309
19.390,0.337
19.395,0.307
19.400,0.249
19.405,0.263
19.410,0.263
19.415,0.202
19.420,0.199
19.425,0.223
19.430,0.171
19.435,0.138
19.440,0.167
19.445,0.140
19.450,0.093
19.455,0.118
19.460,0.119
19.465,0.064
19.470,0.067
19.475,0.092
19.480,0.047
19.485,0.022
19.490,0.057
19.495,0.037
19.500,-0.007
19.505,0.026
19.510,0.042
19.515,-0.006
19.520,0.004
19.525,0.036
19.530,-0.009
19.535,-0.027
19.540,0.015
19.545,-0.002
19.550,-0.041
19.555,-0.009
19.560,-0.003
19.565,-0.054
19.570,-0.045
19.575,-0.012
19.580,-0.049
19.585,-0.067
19.590,-0.027
19.595,-0.040
19.600,-0.080
19.605,-0.048
19.610,-0.034
19.615,-0.083
19.620,-0.073
19.625,-0.035
19.630,-0.074
19.635,-0.095
19.640,-0.053
19.645,-0.063
19.650,-0.101
19.655,-0.072
19.660,-0.064
19.665,-0.118
19.670,-0.121
19.675,-0.105
19.680,-0.168
19.685,-0.208
19.690,-0.166
19.695,-0.166
19.700,-0.211
19.705,-0.194
19.710,-0.173
19.715,-0.181
19.720,-0.123
19.725,-0.047
19.730,-0.064
19.735,-0.080
19.740,-0.018
19.745,0.004
19.750,-0.025
19.755,0.002
19.760,0.029
19.765,-0.005
19.770,0.006
19.775,0.047
19.780,0.009
19.785,-0.016
19.790,0.023
19.795,0.004
19.800,-0.038
19.805,-0.005
19.810,0.003
19.815,-0.042
19.820,-0.006
19.825,0.078
19.830,0.014
19.835,-0.213
19.840,-0.545
19.845,-1.087
19.850,-1.717
19.855,-1.966
19.860,-1.795
19.865,-1.390
19.870,-0.745
19.875,-0.148
19.880,0.167
19.885,0.330
19.890,0.448
19.895,0.454
19.900,0.394
19.905,0.418
19.910,0.428
19.915,0.370
19.920,0.373
19.925,0.397
19.930,0.344
19.935,0.315
19.940,0.347
19.945,0.318
19.950,0.261
19.955,0.281
19.960,0.280
19.965,0.220
19.970,0.221
19.975,0.246
19.980,0.194
19.985,0.164
19.990,0.194
19.995,0.170
20.000,0.121
20.005,0.140
20.010,0.141
20.015,0.080
20.020,0.076
20.025,0.103
20.030,0.052
20.035,0.015
20.040,0.043
20.045,0.017
20.050,-0.033
20.055,-0.017
20.060,-0.019
20.065,-0.080
20.070,-0.095
20.075,-0.085
20.080,-0.140
20.085,-0.173
20.090,-0.153
20.095,-0.191
20.100,-0.247
20.105,-0.232
20.110,-0.238
20.115,-0.297
20.120,-0.294
20.125,-0.261
20.130,-0.298
20.135,-0.310
20.140,-0.248
20.145,-0.228
20.150,-0.225
20.155,-0.142
20.160,-0.063
20.165,-0.037
20.170,0.042
20.175,0.157
20.180,0.197
20.185,0.240
20.190,0.338
20.195,0.368
20.200,0.359
20.205,0.416
20.210,0.447
20.215,0.404
20.220,0.411
20.225,0.443
20.230,0.394
20.235,0.357
20.240,0.384
20.245,0.359
20.250,0.305
20.255,0.319
20.260,0.316
20.265,0.254
20.270,0.248
20.275,0.268
20.280,0.220
20.285,0.188
20.290,0.214
20.295,0.186
20.300,0.132
20.305,0.151
20.310,0.155
20.315,0.098
20.320,0.095
20.325,0.121
20.330,0.077
20.335,0.048
20.340,0.077
20.345,0.054
20.350,0.016
20.355,0.051
20.360,0.056
20.365,0.004
20.370,0.013
20.375,0.042
20.380,0.002
20.385,-0.018
20.390,0.020
20.395,0.005
20.400,-0.033
20.405,-0.004
20.410,0.006
20.415,-0.041
20.420,-0.034
20.425,0.000
20.430,-0.037
20.435,-0.057
20.440,-0.016
20.445,-0.032
20.450,-0.074
20.455,-0.046
20.460,-0.033
20.465,-0.079
20.470,-0.072
20.475,-0.037
20.480,-0.071
20.485,-0.092
20.490,-0.052
20.495,-0.061
20.500,-0.101
20.505,-0.073
20.510,-0.055
20.515,-0.098
20.520,-0.092
20.525,-0.060
20.530,-0.095
20.535,-0.111
20.540,-0.069
20.545,-0.085
20.550,-0.125
20.555,-0.097
20.560,-0.088
20.565,-0.142
20.570,-0.147
20.575,-0.130
20.580,-0.190
20.585,-0.222
20.590,-0.168
20.595,-0.172
20.600,-0.224
20.605,-0.202
20.610,-0.164
20.615,-0.163
20.620,-0.112
20.625,-0.040
20.630,-0.056
20.635,-0.065
20.640,0.005
20.645,0.019
20.650,-0.021
20.655,0.006
20.660,0.031
20.665,-0.002
20.670,0.011
20.675,0.046
20.680,0.010
20.685,-0.007
20.690,0.033
20.695,0.016
20.700,-0.027
20.705,0.000
20.710,0.012
20.715,-0.033
20.720,0.006
20.725,0.081
20.730,-0.033
20.735,-0.309
20.740,-0.666
20.745,-1.233
20.750,-1.803
20.755,-1.927
20.760,-1.657
20.765,-1.167
20.770,-0.529
20.775,-0.017
20.780,0.229
20.785,0.362
20.790,0.467
20.795,0.452
20.800,0.394
20.805,0.420
20.810,0.425
20.815,0.370
20.820,0.374
20.825,0.399
20.830,0.350
20.835,0.316
20.840,0.345
20.845,0.324
20.850,0.272
20.855,0.290
20.860,0.293
20.865,0.232
20.870,0.225
20.875,0.251
20.880,0.208
20.885,0.174
20.890,0.200
20.895,0.175
20.900,0.123
20.905,0.141
20.910,0.142
20.915,0.086
20.920,0.079
20.925,0.098
20.930,0.051
20.935,0.022
20.940,0.049
20.945,0.019
20.950,-0.036
20.955,-0.021
20.960,-0.021
20.965,-0.080
20.970,-0.088
20.975,-0.074
20.980,-0.130
20.985,-0.166
20.990,-0.143
20.995,-0.180
21.000,-0.246
21.005,-0.236
21.010,-0.236
21.015,-0.292
21.020,-0.288
21.025,-0.254
21.030,-0.286
21.035,-0.295
21.040,-0.235
21.045,-0.213
21.050,-0.210
21.055,-0.128
21.060,-0.046
21.065,-0.022
21.070,0.059
21.075,0.169
21.080,0.208
21.085,0.254
21.090,0.349
21.095,0.380
21.100,0.368
21.105,0.415
21.110,0.446
21.115,0.406
21.120,0.411
21.125,0.441
21.130,0.391
21.135,0.356
21.140,0.385
21.145,0.360
21.150,0.304
21.155,0.314
21.160,0.312
21.165,0.259
21.170,0.256
21.175,0.272
21.180,0.215
21.185,0.187
21.190,0.219
21.195,0.193
21.200,0.139
21.205,0.156
21.210,0.162
21.215,0.106
21.220,0.102
21.225,0.133
21.230,0.091
21.235,0.061
21.240,0.090
21.245,0.064
21.250,0.018
21.255,0.046
21.260,0.056
21.265,0.005
21.270,0.011
21.275,0.045
21.280,0.006
21.285,-0.016
21.290,0.021
21.295,0.005
21.300,-0.037
21.305,-0.011
21.310,0.006
21.315,-0.038
21.320,-0.041
21.325,-0.012
21.330,-0.043
21.335,-0.060
21.340,-0.019
21.345,-0.033
21.350,-0.077
21.355,-0.052
21.360,-0.040
21.365,-0.086
21.370,-0.079
21.375,-0.043
21.380,-0.077
21.385,-0.099
21.390,-0.062
21.395,-0.075
21.400,-0.113
21.405,-0.075
21.410,-0.058
21.415,-0.108
21.420,-0.097
21.425,-0.060
21.430,-0.094
21.435,-0.108
21.440,-0.066
21.445,-0.081
21.450,-0.116
21.455,-0.082
21.460,-0.071
21.465,-0.120
21.470,-0.110
21.475,-0.065
21.480,-0.097
21.485,-0.127
21.490,-0.095
21.495,-0.113
21.500,-0.165
21.505,-0.139
21.510,-0.140
21.515,-0.217
21.520,-0.208
21.525,-0.162
21.530,-0.213
21.535,-0.238
21.540,-0.171
21.545,-0.138
21.550,-0.130
21.555,-0.058
21.560,-0.023
21.565,-0.062
21.570,-0.027
21.575,0.043
21.580,0.015
21.585,-0.017
21.590,0.032
21.595,0.037
21.600,0.005
21.605,0.040
21.610,0.052
21.615,0.005
21.620,0.011
21.625,0.036
21.630,-0.008
21.635,-0.030
21.640,0.013
21.645,0.011
21.650,0.006
21.655,0.086
21.660,0.039
21.665,-0.265
21.670,-0.677
21.675,-1.219
21.680,-1.778
21.685,-1.929
21.690,-1.653
21.695,-1.164
21.700,-0.551
21.705,0.015
21.710,0.346
21.715,0.420
21.720,0.446
21.725,0.474
21.730,0.416
21.735,0.385
21.740,0.419
21.745,0.401
21.750,0.354
21.755,0.372
21.760,0.381
21.765,0.323
21.770,0.313
21.775,0.337
21.780,0.280
21.785,0.236
21.790,0.267
21.795,0.252
21.800,0.206
21.805,0.225
21.810,0.225
21.815,0.160
21.820,0.156
21.825,0.184
21.830,0.135
21.835,0.101
21.840,0.138
21.845,0.122
21.850,0.064
21.855,0.077
21.860,0.075
21.865,0.006
21.870,0.001
21.875,0.035
21.880,-0.006
21.885,-0.043
21.890,-0.023
21.895,-0.051
21.900,-0.106
21.905,-0.096
21.910,-0.103
21.915,-0.169
21.920,-0.179
21.925,-0.164
21.930,-0.219
21.935,-0.257
21.940,-0.228
21.945,-0.243
21.950,-0.290
21.955,-0.263
21.960,-0.241
21.965,-0.281
21.970,-0.264
21.975,-0.201
21.980,-0.198
21.985,-0.168
21.990,-0.059
21.995,0.003
22.000,0.031
22.005,0.131
22.010,0.220
22.015,0.235
22.020,0.294
22.025,0.374
22.030,0.368
22.035,0.365
22.040,0.422
22.045,0.416
22.050,0.369
22.055,0.399
22.060,0.412
22.065,0.351
22.070,0.340
22.075,0.360
22.080,0.314
22.085,0.283
22.090,0.310
22.095,0.281
22.100,0.222
22.105,0.237
22.110,0.243
22.115,0.183
22.120,0.175
22.125,0.202
22.130,0.155
22.135,0.119
22.140,0.149
22.145,0.126
22.150,0.073
22.155,0.097
22.160,0.111
22.165,0.059
22.170,0.060
22.175,0.090
22.180,0.048
22.185,0.024
22.190,0.061
22.195,0.050
22.200,0.008
22.205,0.034
22.210,0.048
22.215,-0.003
22.220,-0.003
22.225,0.030
22.230,-0.004
22.235,-0.026
22.240,0.013
22.245,0.001
22.250,-0.041
22.255,-0.013
22.260,0.002
22.265,-0.049
22.270,-0.047
22.275,-0.009
22.280,-0.042
22.285,-0.063
22.290,-0.019
22.295,-0.028
22.300,-0.071
22.305,-0.048
22.310,-0.037
22.315,-0.084
22.320,-0.074
22.325,-0.029
22.330,-0.061
22.335,-0.088
22.340,-0.049
22.345,-0.057
22.350,-0.103
22.355,-0.076
22.360,-0.052
22.365,-0.094
22.370,-0.087
22.375,-0.049
22.380,-0.082
22.385,-0.102
22.390,-0.064
22.395,-0.079
22.400,-0.123
22.405,-0.102
22.410,-0.096
22.415,-0.154
22.420,-0.173
22.425,-0.162
22.430,-0.193
22.435,-0.202
22.440,-0.169
22.445,-0.191
22.450,-0.220
22.455,-0.155
22.460,-0.096
22.465,-0.102
22.470,-0.068
22.475,-0.023
22.480,-0.038
22.485,-0.024
22.490,0.035
22.495,0.019
22.500,-0.022
22.505,0.017
22.510,0.043
22.515,0.002
22.520,0.005
22.525,0.043
22.530,0.006
22.535,-0.027
22.540,0.010
22.545,0.004
22.550,-0.038
22.555,-0.006
22.560,0.046
22.565,0.048
22.570,-0.003
22.575,-0.206
22.580,-0.637
22.585,-1.218
22.590,-1.742
22.595,-1.916
22.600,-1.723
22.605,-1.258
22.610,-0.615
22.615,-0.104
22.620,0.220
22.625,0.414
22.630,0.440
22.635,0.422
22.640,0.446
22.645,0.433
22.650,0.387
22.655,0.405
22.660,0.413
22.665,0.356
22.670,0.349
22.675,0.368
22.680,0.322
22.685,0.293
22.690,0.317
22.695,0.291
22.700,0.237
22.705,0.248
22.710,0.251
22.715,0.201
22.720,0.202
22.725,0.223
22.730,0.174
22.735,0.142
22.740,0.167
22.745,0.144
22.750,0.093
22.755,0.110
22.760,0.114
22.765,0.057
22.770,0.051
22.775,0.075
22.780,0.027
22.785,-0.011
22.790,0.015
22.795,-0.012
22.800,-0.069
22.805,-0.056
22.810,-0.055
22.815,-0.117
22.820,-0.131
22.825,-0.117
22.830,-0.176
22.835,-0.221
22.840,-0.201
22.845,-0.227
22.850,-0.282
22.855,-0.264
22.860,-0.254
22.865,-0.301
22.870,-0.295
22.875,-0.256
22.880,-0.272
22.885,-0.263
22.890,-0.184
22.895,-0.143
22.900,-0.122
22.905,-0.023
22.910,0.069
22.915,0.103
22.920,0.180
22.925,0.281
22.930,0.310
22.935,0.339
22.940,0.414
22.945,0.425
22.950,0.401
22.955,0.440
22.960,0.457
22.965,0.405
22.970,0.400
22.975,0.422
22.980,0.376
22.985,0.340
22.990,0.359
22.995,0.334
23.000,0.280
23.005,0.288
23.010,0.289
23.015,0.230
23.020,0.221
23.025,0.245
23.030,0.197
23.035,0.161
23.040,0.189
23.045,0.167
23.050,0.114
23.055,0.131
23.060,0.134
23.065,0.078
23.070,0.076
23.075,0.099
23.080,0.056
23.085,0.033
23.090,0.065
23.095,0.048
23.100,0.004
23.105,0.030
23.110,0.046
23.115,-0.005
23.120,-0.003
23.125,0.032
23.130,-0.004
23.135,-0.029
23.140,0.010
23.145,-0.003
23.150,-0.044
23.155,-0.016
23.160,-0.004
23.165,-0.053
23.170,-0.051
23.175,-0.016
23.180,-0.045
23.185,-0.066
23.190,-0.028
23.195,-0.036
23.200,-0.076
23.205,-0.050
23.210,-0.038
23.215,-0.087
23.220,-0.081
23.225,-0.043
23.230,-0.076
23.235,-0.095
23.240,-0.052
23.245,-0.064
23.250,-0.105
23.255,-0.074
23.260,-0.056
23.265,-0.102
23.270,-0.097
23.275,-0.057
23.280,-0.087
23.285,-0.109
23.290,-0.067
23.295,-0.072
23.300,-0.111
23.305,-0.081
23.310,-0.064
23.315,-0.108
23.320,-0.096
23.325,-0.056
23.330,-0.089
23.335,-0.110
23.340,-0.069
23.345,-0.083
23.350,-0.131
23.355,-0.109
23.360,-0.101
23.365,-0.161
23.370,-0.180
23.375,-0.168
23.380,-0.200
23.385,-0.205
23.390,-0.169
23.395,-0.191
23.400,-0.223
23.405,-0.154
23.410,-0.090
23.415,-0.090
23.420,-0.050
23.425,-0.006
23.430,-0.023
23.435,-0.011
23.440,0.042
23.445,0.025
23.450,-0.010
23.455,0.030
23.460,0.057
23.465,0.016
23.470,0.020
23.475,0.054
23.480,0.020
23.485,-0.004
23.490,0.032
23.495,0.019
23.500,-0.026
23.505,0.007
23.510,0.062
23.515,0.050
23.520,-0.032
23.525,-0.263
23.530,-0.709
23.535,-1.289
23.540,-1.774
23.545,-1.897
23.550,-1.643
23.555,-1.107
23.560,-0.479
23.565,-0.040
23.570,0.237
23.575,0.421
23.580,0.456
23.585,0.433
23.590,0.455
23.595,0.443
23.600,0.395
23.605,0.413
23.610,0.421
23.615,0.367
23.620,0.359
23.625,0.377
23.630,0.330
23.635,0.301
23.640,0.330
23.645,0.306
23.650,0.251
23.655,0.268
23.660,0.273
23.665,0.215
23.670,0.205
23.675,0.227
23.680,0.186
23.685,0.155
23.690,0.180
23.695,0.159
23.700,0.107
23.705,0.123
23.710,0.125
23.715,0.063
23.720,0.056
23.725,0.080
23.730,0.032
23.735,-0.006
23.740,0.017
23.745,-0.006
23.750,-0.058
23.755,-0.046
23.760,-0.050
23.765,-0.115
23.770,-0.132
23.775,-0.121
23.780,-0.174
23.785,-0.212
23.790,-0.195
23.795,-0.227
23.800,-0.281
23.805,-0.262
23.810,-0.254
23.815,-0.301
23.820,-0.294
23.825,-0.252
23.830,-0.270
23.835,-0.264
23.840,-0.193
23.845,-0.156
23.850,-0.131
23.855,-0.033
23.860,0.055
23.865,0.085
23.870,0.161
23.875,0.262
23.880,0.286
23.885,0.313
23.890,0.390
23.895,0.403
23.900,0.377
23.905,0.417
23.910,0.434
23.915,0.389
23.920,0.393
23.925,0.412
23.930,0.364
23.935,0.333
23.940,0.356
23.945,0.331
23.950,0.279
23.955,0.290
23.960,0.284
23.965,0.227
23.970,0.227
23.975,0.246
23.980,0.197
23.985,0.170
23.990,0.200
23.995,0.178
24.000,0.124
24.005,0.136
24.010,0.141
24.015,0.092
24.020,0.089
24.025,0.113
24.030,0.074
24.035,0.049
24.040,0.078
24.045,0.057
24.050,0.014
24.055,0.039
24.060,0.048
24.065,-0.002
24.070,0.001
24.075,0.038
24.080,-0.001
24.085,-0.029
24.090,0.016
24.095,0.010
24.100,-0.034
24.105,-0.009
24.110,-0.002
24.115,-0.056
24.120,-0.049
24.125,-0.013
24.130,-0.048
24.135,-0.071
24.140,-0.039
24.145,-0.053
24.150,-0.090
24.155,-0.058
24.160,-0.040
24.165,-0.086
24.170,-0.080
24.175,-0.048
24.180,-0.084
24.185,-0.103
24.190,-0.064
24.195,-0.078
24.200,-0.118
24.205,-0.083
24.210,-0.062
24.215,-0.106
24.220,-0.097
24.225,-0.061
24.230,-0.095
24.235,-0.114
24.240,-0.073
24.245,-0.082
24.250,-0.117
24.255,-0.086
24.260,-0.067
24.265,-0.107
24.270,-0.101
24.275,-0.067
24.280,-0.100
24.285,-0.113
24.290,-0.064
24.295,-0.074
24.300,-0.112
24.305,-0.079
24.310,-0.070
24.315,-0.123
24.320,-0.121
24.325,-0.092
24.330,-0.133
24.335,-0.172
24.340,-0.163
24.345,-0.188
24.350,-0.215
24.355,-0.179
24.360,-0.180
24.365,-0.223
24.370,-0.173
24.375,-0.097
24.380,-0.095
24.385,-0.075
24.390,-0.019
24.395,-0.024
24.400,-0.033
24.405,0.030
24.410,0.050
24.415,0.003
24.420,0.020
24.425,0.057
24.430,0.028
24.435,0.022
24.440,0.065
24.445,0.045
24.450,0.002
24.455,0.035
24.460,0.044
24.465,-0.010
24.470,-0.003
24.475,0.050
24.480,0.066
24.485,0.044
24.490,-0.091
24.495,-0.458
24.500,-1.026
24.505,-1.603
24.510,-1.889
24.515,-1.785
24.520,-1.361
24.525,-0.726
24.530,-0.176
24.535,0.207
24.540,0.438
24.545,0.472
24.550,0.437
24.555,0.441
24.560,0.433
24.565,0.384
24.570,0.390
24.575,0.415
24.580,0.368
24.585,0.342
24.590,0.375
24.595,0.357
24.600,0.302
24.605,0.311
24.610,0.309
24.615,0.250
24.620,0.245
24.625,0.270
24.630,0.222
24.635,0.191
24.640,0.221
24.645,0.193
24.650,0.137
24.655,0.155
24.660,0.166
24.665,0.113
24.670,0.107
24.675,0.129
24.680,0.080
24.685,0.044
24.690,0.066
24.695,0.037
24.700,-0.010
24.705,0.014
24.710,0.016
24.715,-0.047
24.720,-0.059
24.725,-0.044
24.730,-0.098
24.735,-0.137
24.740,-0.116
24.745,-0.147
24.750,-0.204
24.755,-0.186
24.760,-0.190
24.765,-0.255
24.770,-0.258
24.775,-0.231
24.780,-0.270
24.785,-0.290
24.790,-0.241
24.795,-0.233
24.800,-0.251
24.805,-0.194
24.810,-0.136
24.815,-0.128
24.820,-0.065
24.825,0.035
24.830,0.075
24.835,0.125
24.840,0.230
24.845,0.281
24.850,0.291
24.855,0.359
24.860,0.409
24.865,0.394
24.870,0.411
24.875,0.439
24.880,0.400
24.885,0.373
24.890,0.399
24.895,0.381
24.900,0.331
24.905,0.339
24.910,0.337
24.915,0.283
24.920,0.280
24.925,0.297
24.930,0.243
24.935,0.207
24.940,0.236
24.945,0.213
24.950,0.161
24.955,0.172
24.960,0.166
24.965,0.113
24.970,0.119
24.975,0.150
24.980,0.110
24.985,0.078
24.990,0.104
24.995,0.082
25.000,0.034
25.005,0.060
25.010,0.071
25.015,0.027
25.020,0.032
25.025,0.063
25.030,0.028
25.035,0.002
25.040,0.034
25.045,0.015
25.050,-0.026
25.055,0.003
25.060,0.013
25.065,-0.037
25.070,-0.027
25.075,0.012
25.080,-0.021
25.085,-0.044
25.090,-0.011
25.095,-0.026
25.100,-0.063
25.105,-0.035
25.110,-0.022
25.115,-0.065
25.120,-0.063
25.125,-0.030
25.130,-0.063
25.135,-0.085
25.140,-0.045
25.145,-0.049
25.150,-0.082
25.155,-0.053
25.160,-0.043
25.165,-0.092
25.170,-0.083
25.175,-0.047
25.180,-0.081
25.185,-0.097
25.190,-0.057
25.195,-0.072
25.200,-0.114
25.205,-0.089
25.210,-0.079
25.215,-0.127
25.220,-0.132
25.225,-0.117
25.230,-0.174
25.235,-0.213
25.240,-0.166
25.245,-0.164
25.250,-0.215
25.255,-0.198
25.260,-0.167
25.265,-0.174
25.270,-0.123
25.275,-0.044
25.280,-0.058
25.285,-0.075
25.290,-0.007
25.295,0.016
25.300,-0.022
25.305,0.003
25.310,0.028
25.315,-0.007
25.320,0.004
25.325,0.039
25.330,0.004
25.335,-0.015
25.340,0.022
25.345,0.010
25.350,-0.028
25.355,-0.002
25.360,0.010
25.365,-0.026
25.370,0.021
25.375,0.088
25.380,-0.045
25.385,-0.355
25.390,-0.774
25.395,-1.394
25.400,-1.905
25.405,-1.922
25.410,-1.624
25.415,-1.119
25.420,-0.449
25.425,0.084
25.430,0.321
25.435,0.403
25.440,0.472
25.445,0.451
25.450,0.392
25.455,0.420
25.460,0.422
25.465,0.362
25.470,0.363
25.475,0.386
25.480,0.340
25.485,0.310
25.490,0.337
25.495,0.309
25.500,0.256
25.505,0.276
25.510,0.277
25.515,0.217
25.520,0.210
25.525,0.232
25.530,0.190
25.535,0.160
25.540,0.185
25.545,0.164
25.550,0.117
25.555,0.135
25.560,0.137
25.565,0.078
25.570,0.071
25.575,0.091
25.580,0.042
25.585,0.011
25.590,0.038
25.595,0.011
25.600,-0.043
25.605,-0.028
25.610,-0.029
25.615,-0.090
25.620,-0.104
25.625,-0.093
25.630,-0.149
25.635,-0.189
25.640,-0.169
25.645,-0.201
25.650,-0.262
25.655,-0.248
25.660,-0.246
25.665,-0.303
25.670,-0.302
25.675,-0.268
25.680,-0.293
25.685,-0.299
25.690,-0.241
25.695,-0.224
25.700,-0.223
25.705,-0.139
25.710,-0.058
25.715,-0.027
25.720,0.061
25.725,0.170
25.730,0.207
25.735,0.256
25.740,0.354
25.745,0.382
25.750,0.374
25.755,0.429
25.760,0.457
25.765,0.416
25.770,0.424
25.775,0.450
25.780,0.402
25.785,0.367
25.790,0.393
25.795,0.369
25.800,0.312
25.805,0.324
25.810,0.330
25.815,0.272
25.820,0.258
25.825,0.275
25.830,0.224
25.835,0.186
25.840,0.212
25.845,0.188
25.850,0.136
25.855,0.152
25.860,0.153
25.865,0.099
25.870,0.100
25.875,0.121
25.880,0.073
25.885,0.047
25.890,0.086
25.895,0.069
25.900,0.021
25.905,0.044
25.910,0.054
25.915,0.004
25.920,0.006
25.925,0.039
25.930,0.001
25.935,-0.022
25.940,0.017
25.945,0.003
25.950,-0.037
25.955,-0.006
25.960,0.002
25.965,-0.046
25.970,-0.036
25.975,-0.003
25.980,-0.040
25.985,-0.060
25.990,-0.022
25.995,-0.035
26.000,-0.076
26.005,-0.047
26.010,-0.033
26.015,-0.078
26.020,-0.068
26.025,-0.030
26.030,-0.068
26.035,-0.092
26.040,-0.050
26.045,-0.061
26.050,-0.104
26.055,-0.075
26.060,-0.055
26.065,-0.099
26.070,-0.094
26.075,-0.059
26.080,-0.091
26.085,-0.107
26.090,-0.066
26.095,-0.084
26.100,-0.134
26.105,-0.114
26.110,-0.110
26.115,-0.169
26.120,-0.187
26.125,-0.174
26.130,-0.202
26.135,-0.208
26.140,-0.175
26.145,-0.198
26.150,-0.228
26.155,-0.161
26.160,-0.102
26.165,-0.106
26.170,-0.069
26.175,-0.026
26.180,-0.045
26.185,-0.034
26.190,0.022
26.195,0.009
26.200,-0.027
26.205,0.014
26.210,0.038
26.215,-0.002
26.220,0.006
26.225,0.040
26.230,0.004
26.235,-0.019
26.240,0.018
26.245,0.001
26.250,-0.044
26.255,-0.009
26.260,0.037
26.265,0.036
26.270,-0.011
26.275,-0.216
26.280,-0.640
26.285,-1.202
26.290,-1.728
26.295,-1.931
26.300,-1.743
26.305,-1.261
26.310,-0.625
26.315,-0.136
26.320,0.184
26.325,0.396
26.330,0.442
26.335,0.429
26.340,0.446
26.345,0.427
26.350,0.381
26.355,0.404
26.360,0.416
26.365,0.360
26.370,0.352
26.375,0.375
26.380,0.325
26.385,0.291
26.390,0.321
26.395,0.295
26.400,0.238
26.405,0.259
26.410,0.265
26.415,0.205
26.420,0.197
26.425,0.220
26.430,0.174
26.435,0.141
26.440,0.168
26.445,0.146
26.450,0.096
26.455,0.116
26.460,0.120
26.465,0.061
26.470,0.055
26.475,0.077
26.480,0.026
26.485,-0.012
26.490,0.016
26.495,-0.011
26.500,-0.073
26.505,-0.061
26.510,-0.057
26.515,-0.120
26.520,-0.141
26.525,-0.126
26.530,-0.178
26.535,-0.224
26.540,-0.208
26.545,-0.236
26.550,-0.291
26.555,-0.274
26.560,-0.264
26.565,-0.310
26.570,-0.302
26.575,-0.258
26.580,-0.275
26.585,-0.273
26.590,-0.195
26.595,-0.152
26.600,-0.127
26.605,-0.024
26.610,0.069
26.615,0.100
26.620,0.183
26.625,0.294
26.630,0.317
26.635,0.337
26.640,0.414
26.645,0.431
26.650,0.406
26.655,0.441
26.660,0.456
26.665,0.408
26.670,0.402
26.675,0.423
26.680,0.377
26.685,0.341
26.690,0.367
26.695,0.342
26.700,0.283
26.705,0.295
26.710,0.293
26.715,0.233
26.720,0.225
26.725,0.248
26.730,0.199
26.735,0.160
26.740,0.191
26.745,0.175
26.750,0.123
26.755,0.138
26.760,0.141
26.765,0.083
26.770,0.077
26.775,0.106
26.780,0.066
26.785,0.035
26.790,0.068
26.795,0.050
26.800,0.003
26.805,0.028
26.810,0.041
26.815,-0.008
26.820,-0.007
26.825,0.026
26.830,-0.011
26.835,-0.038
26.840,-0.003
26.845,-0.016
26.850,-0.061
26.855,-0.030
26.860,-0.009
26.865,-0.055
26.870,-0.053
26.875,-0.015
26.880,-0.050
26.885,-0.074
26.890,-0.031
26.895,-0.041
26.900,-0.082
26.905,-0.053
26.910,-0.035
26.915,-0.080
26.920,-0.079
26.925,-0.042
26.930,-0.073
26.935,-0.092
26.940,-0.049
26.945,-0.063
26.950,-0.107
26.955,-0.075
26.960,-0.059
26.965,-0.102
26.970,-0.092
26.975,-0.052
26.980,-0.088
26.985,-0.120
26.990,-0.088
26.995,-0.108
27.000,-0.161
27.005,-0.147
27.010,-0.154
27.015,-0.215
27.020,-0.200
27.025,-0.158
27.030,-0.207
27.035,-0.236
27.040,-0.175
27.045,-0.141
27.050,-0.130
27.055,-0.059
27.060,-0.023
27.065,-0.061
27.070,-0.035
27.075,0.032
27.080,0.012
27.085,-0.015
27.090,0.027
27.095,0.020
27.100,-0.015
27.105,0.026
27.110,0.050
27.115,-0.002
27.120,-0.005
27.125,0.036
27.130,-0.001
27.135,-0.044
27.140,-0.003
27.145,-0.001
27.150,-0.014
27.155,0.069
27.160,0.040
27.165,-0.251
27.170,-0.638
27.175,-1.138
27.180,-1.726
27.185,-1.966
27.190,-1.728
27.195,-1.249
27.200,-0.654
27.205,-0.090
27.210,0.276
27.215,0.391
27.220,0.428
27.225,0.463
27.230,0.408
27.235,0.372
27.240,0.413
27.245,0.406
27.250,0.356
27.255,0.369
27.260,0.376
27.265,0.308
27.270,0.290
27.275,0.326
27.280,0.281
27.285,0.233
27.290,0.266
27.295,0.252
27.300,0.193
27.305,0.214
27.310,0.231
27.315,0.164
27.320,0.146
27.325,0.181
27.330,0.140
27.335,0.093
27.340,0.124
27.345,0.113
27.350,0.052
27.355,0.064
27.360,0.082
27.365,0.026
27.370,0.008
27.375,0.035
27.380,-0.009
27.385,-0.058
27.390,-0.034
27.395,-0.050
27.400,-0.111
27.405,-0.105
27.410,-0.108
27.415,-0.186
27.420,-0.203
27.425,-0.171
27.430,-0.223
27.435,-0.278
27.440,-0.249
27.445,-0.260
27.450,-0.313
27.455,-0.284
27.460,-0.251
27.465,-0.291
27.470,-0.280
27.475,-0.204
27.480,-0.190
27.485,-0.175
27.490,-0.068
27.495,0.011
27.500,0.039
27.505,0.138
27.510,0.232
27.515,0.241
27.520,0.291
27.525,0.382
27.530,0.396
27.535,0.397
27.540,0.448
27.545,0.442
27.550,0.387
27.555,0.411
27.560,0.434
27.565,0.370
27.570,0.347
27.575,0.373
27.580,0.323
27.585,0.280
27.590,0.311
27.595,0.294
27.600,0.236
27.605,0.255
27.610,0.270
27.615,0.199
27.620,0.177
27.625,0.208
27.630,0.156
27.635,0.109
27.640,0.149
27.645,0.144
27.650,0.083
27.655,0.093
27.660,0.111
27.665,0.059
27.670,0.045
27.675,0.084
27.680,0.059
27.685,0.025
27.690,0.055
27.695,0.039
27.700,-0.015
27.705,0.008
27.710,0.031
27.715,-0.018
27.720,-0.016
27.725,0.025
27.730,-0.016
27.735,-0.054
27.740,-0.006
27.745,-0.001
27.750,-0.050
27.755,-0.024
27.760,-0.003
27.765,-0.057
27.770,-0.058
27.775,-0.010
27.780,-0.044
27.785,-0.078
27.790,-0.034
27.795,-0.041
27.800,-0.091
27.805,-0.065
27.810,-0.038
27.815,-0.089
27.820,-0.102
27.825,-0.062
27.830,-0.090
27.835,-0.133
27.840,-0.110
27.845,-0.131
27.850,-0.205
27.855,-0.192
27.860,-0.155
27.865,-0.206
27.870,-0.233
27.875,-0.191
27.880,-0.183
27.885,-0.168
27.890,-0.084
27.895,-0.048
27.900,-0.086
27.905,-0.050
27.910,0.013
27.915,-0.015
27.920,-0.023
27.925,0.025
27.930,0.000
27.935,-0.029
27.940,0.022
27.945,0.024
27.950,-0.026
27.955,-0.004
27.960,0.019
27.965,-0.026
27.970,-0.026
27.975,0.013
27.980,-0.028
27.985,-0.067
27.990,0.004
27.995,0.059
28.000,-0.027
28.005,-0.231
28.010,-0.617
28.015,-1.259
28.020,-1.843
28.025,-1.968
28.030,-1.749
28.035,-1.292
28.040,-0.593
28.045,-0.020
28.050,0.265
28.055,0.415
28.060,0.468
28.065,0.417
28.070,0.389
28.075,0.424
28.080,0.389
28.085,0.340
28.090,0.368
28.095,0.360
28.100,0.302
28.105,0.315
28.110,0.334
28.115,0.271
28.120,0.244
28.125,0.272
28.130,0.235
28.135,0.196
28.140,0.231
28.145,0.218
28.150,0.154
28.155,0.168
28.160,0.188
28.165,0.127
28.170,0.109
28.175,0.143
28.180,0.103
28.185,0.053
28.190,0.080
28.195,0.075
28.200,0.017
28.205,0.022
28.210,0.036
28.215,-0.020
28.220,-0.040
28.225,-0.014
28.230,-0.058
28.235,-0.108
28.240,-0.085
28.245,-0.104
28.250,-0.173
28.255,-0.169
28.260,-0.165
28.265,-0.240
28.270,-0.266
28.275,-0.235
28.280,-0.273
28.285,-0.318
28.290,-0.284
28.295,-0.277
28.300,-0.318
28.305,-0.289
28.310,-0.234
28.315,-0.241
28.320,-0.205
28.325,-0.102
28.330,-0.055
28.335,-0.014
28.340,0.103
28.345,0.187
28.350,0.211
28.355,0.294
28.360,0.377
28.365,0.373
28.370,0.397
28.375,0.461
28.380,0.442
28.385,0.411
28.390,0.450
28.395,0.442
28.400,0.380
28.405,0.389
28.410,0.402
28.415,0.340
28.420,0.319
28.425,0.348
28.430,0.303
28.435,0.255
28.440,0.287
28.445,0.272
28.450,0.203
28.455,0.207
28.460,0.222
28.465,0.166
28.470,0.144
28.475,0.170
28.480,0.131
28.485,0.089
28.490,0.115
28.495,0.103
28.500,0.049
28.505,0.068
28.510,0.093
28.515,0.040
28.520,0.023
28.525,0.063
28.530,0.033
28.535,-0.007
28.540,0.031
28.545,0.032
28.550,-0.020
28.555,-0.004
28.560,0.025
28.565,-0.018
28.570,-0.030
28.575,0.008
28.580,-0.020
28.585,-0.054
28.590,-0.016
28.595,-0.015
28.600,-0.065
28.605,-0.047
28.610,-0.018
28.615,-0.060
28.620,-0.070
28.625,-0.032
28.630,-0.061
28.635,-0.092
28.640,-0.050
28.645,-0.048
28.650,-0.094
28.655,-0.075
28.660,-0.055
28.665,-0.112
28.670,-0.132
28.675,-0.101
28.680,-0.147
28.685,-0.209
28.690,-0.174
28.695,-0.154
28.700,-0.200
28.705,-0.196
28.710,-0.168
28.715,-0.185
28.720,-0.150
28.725,-0.068
28.730,-0.066
28.735,-0.086
28.740,-0.028
28.745,0.007
28.750,-0.021
28.755,-0.009
28.760,0.021
28.765,-0.009
28.770,-0.011
28.775,0.037
28.780,0.015
28.785,-0.026
28.790,0.009
28.795,0.013
28.800,-0.035
28.805,-0.017
28.810,0.007
28.815,-0.044
28.820,-0.049
28.825,0.032
28.830,0.050
28.835,-0.052
28.840,-0.267
28.845,-0.673
28.850,-1.290
28.855,-1.830
28.860,-1.951
28.865,-1.734
28.870,-1.262
28.875,-0.578
28.880,-0.059
28.885,0.213
28.890,0.401
28.895,0.460
28.900,0.412
28.905,0.414
28.910,0.438
28.915,0.386
28.920,0.370
28.925,0.408
28.930,0.369
28.935,0.318
28.940,0.343
28.945,0.333
28.950,0.277
28.955,0.287
28.960,0.303
28.965,0.241
28.970,0.219
28.975,0.250
28.980,0.208
28.985,0.159
28.990,0.190
28.995,0.186
29.000,0.127
29.005,0.134
29.010,0.150
29.015,0.089
29.020,0.066
29.025,0.102
29.030,0.068
29.035,0.019
29.040,0.049
29.045,0.039
29.050,-0.028
29.055,-0.022
29.060,0.000
29.065,-0.062
29.070,-0.095
29.075,-0.070
29.080,-0.114
29.085,-0.170
29.090,-0.152
29.095,-0.173
29.100,-0.244
29.105,-0.247
29.110,-0.235
29.115,-0.294
29.120,-0.313
29.125,-0.278
29.130,-0.306
29.135,-0.335
29.140,-0.282
29.145,-0.255
29.150,-0.270
29.155,-0.204
29.160,-0.111
29.165,-0.083
29.170,-0.015
29.175,0.114
29.180,0.172
29.185,0.207
29.190,0.306
29.195,0.363
29.200,0.355
29.205,0.403
29.210,0.454
29.215,0.421
29.220,0.412
29.225,0.450
29.230,0.418
29.235,0.370
29.240,0.395
29.245,0.387
29.250,0.321
29.255,0.324
29.260,0.344
29.265,0.287
29.270,0.264
29.275,0.290
29.280,0.246
29.285,0.196
29.290,0.224
29.295,0.217
29.300,0.153
29.305,0.157
29.310,0.173
29.315,0.113
29.320,0.093
29.325,0.128
29.330,0.092
29.335,0.047
29.340,0.079
29.345,0.075
29.350,0.013
29.355,0.026
29.360,0.060
29.365,0.014
29.370,0.001
29.375,0.045
29.380,0.017
29.385,-0.025
29.390,0.012
29.395,0.015
29.400,-0.039
29.405,-0.020
29.410,0.012
29.415,-0.035
29.420,-0.045
29.425,0.003
29.430,-0.021
29.435,-0.061
29.440,-0.022
29.445,-0.015
29.450,-0.067
29.455,-0.052
29.460,-0.023
29.465,-0.070
29.470,-0.083
29.475,-0.037
29.480,-0.058
29.485,-0.098
29.490,-0.062
29.495,-0.058
29.500,-0.110
29.505,-0.093
29.510,-0.067
29.515,-0.124
29.520,-0.149
29.525,-0.117
29.530,-0.161
29.535,-0.219
29.540,-0.176
29.545,-0.162
29.550,-0.221
29.555,-0.212
29.560,-0.169
29.565,-0.174
29.570,-0.135
29.575,-0.051
29.580,-0.050
29.585,-0.079
29.590,-0.021
29.595,0.014
29.600,-0.023
29.605,-0.011
29.610,0.023
29.615,-0.013
29.620,-0.015
29.625,0.038
29.630,0.013
29.635,-0.025
29.640,0.012
29.645,0.013
29.650,-0.038
29.655,-0.022
29.660,0.004
29.665,-0.046
29.670,-0.048
29.675,0.042
29.680,0.037
29.685,-0.129
29.690,-0.389
29.695,-0.822
29.700,-1.450
29.705,-1.908
29.710,-1.919
29.715,-1.602
29.720,-1.030
29.725,-0.383
29.730,0.037
29.735,0.247
29.740,0.406
29.745,0.460
29.750,0.398
29.755,0.402
29.760,0.430
29.765,0.375
29.770,0.357
29.775,0.395
29.780,0.360
29.785,0.310
29.790,0.336
29.795,0.328
29.800,0.265
29.805,0.271
29.810,0.288
29.815,0.227
29.820,0.203
29.825,0.238
29.830,0.205
29.835,0.157
29.840,0.187
29.845,0.182
29.850,0.118
29.855,0.127
29.860,0.148
29.865,0.090
29.870,0.071
29.875,0.104
29.880,0.064
29.885,0.016
29.890,0.045
29.895,0.034
29.900,-0.031
29.905,-0.026
29.910,-0.012
29.915,-0.074
29.920,-0.099
29.925,-0.076
29.930,-0.128
29.935,-0.180
29.940,-0.157
29.945,-0.179
29.950,-0.253
29.955,-0.249
29.960,-0.236
29.965,-0.299
29.970,-0.314
29.975,-0.271
29.980,-0.296
29.985,-0.322
29.990,-0.267
29.995,-0.243
30.000,-0.255
30.005,-0.177
30.010,-0.081
30.015,-0.062
30.020,0.008
30.025,0.136
30.030,0.180
30.035,0.212
30.040,0.315
30.045,0.367
30.050,0.354
30.055,0.401
30.060,0.445
30.065,0.400
30.070,0.393
30.075,0.437
30.080,0.400
30.085,0.358
30.090,0.394
30.095,0.383
30.100,0.315
30.105,0.322
30.110,0.339
30.115,0.279
30.120,0.257
30.125,0.283
30.130,0.237
30.135,0.189
30.140,0.224
30.145,0.216
30.150,0.152
30.155,0.164
30.160,0.184
30.165,0.123
30.170,0.109
30.175,0.146
30.180,0.104
30.185,0.063
30.190,0.100
30.195,0.089
30.200,0.026
30.205,0.044
30.210,0.069
30.215,0.015
30.220,0.012
30.225,0.055
30.230,0.016
30.235,-0.021
30.240,0.028
30.245,0.029
30.250,-0.029
30.255,-0.011
30.260,0.013
30.265,-0.036
30.270,-0.037
30.275,0.011
30.280,-0.023
30.285,-0.065
30.290,-0.022
30.295,-0.020
30.300,-0.077
30.305,-0.055
30.310,-0.022
30.315,-0.071
30.320,-0.077
30.325,-0.029
30.330,-0.057
30.335,-0.089
30.340,-0.044
30.345,-0.047
30.350,-0.106
30.355,-0.087
30.360,-0.061
30.365,-0.127
30.370,-0.151
30.375,-0.118
30.380,-0.169
30.385,-0.219
30.390,-0.167
30.395,-0.165
30.400,-0.237
30.405,-0.222
30.410,-0.169
30.415,-0.173
30.420,-0.128
30.425,-0.040
30.430,-0.052
30.435,-0.078
30.440,-0.007
30.445,0.026
30.450,-0.019
30.455,-0.007
30.460,0.026
30.465,-0.014
30.470,-0.012
30.475,0.043
30.480,0.011
30.485,-0.030
30.490,0.016
30.495,0.015
30.500,-0.044
30.505,-0.020
30.510,0.007
30.515,-0.051
30.520,-0.047
30.525,0.051
30.530,0.044
30.535,-0.115
30.540,-0.365
30.545,-0.814
30.550,-1.464
30.555,-1.914
30.560,-1.909
30.565,-1.586
30.570,-1.012
30.575,-0.360
30.580,0.086
30.585,0.308
30.590,0.437
30.595,0.463
30.600,0.392
30.605,0.387
30.610,0.411
30.615,0.355
30.620,0.339
30.625,0.384
30.630,0.348
30.635,0.297
30.640,0.325
30.645,0.317
30.650,0.251
30.655,0.257
30.660,0.278
30.665,0.218
30.670,0.200
30.675,0.238
30.680,0.195
30.685,0.145
30.690,0.177
30.695,0.167
30.700,0.104
30.705,0.121
30.710,0.137
30.715,0.071
30.720,0.055
30.725,0.092
30.730,0.060
30.735,0.018
30.740,0.045
30.745,0.031
30.750,-0.035
30.755,-0.028
30.760,-0.006
30.765,-0.069
30.770,-0.101
30.775,-0.071
30.780,-0.120
30.785,-0.184
30.790,-0.165
30.795,-0.186
30.800,-0.259
30.805,-0.247
30.810,-0.224
30.815,-0.289
30.820,-0.305
30.825,-0.251
30.830,-0.270
30.835,-0.300
30.840,-0.246
30.845,-0.223
30.850,-0.242
30.855,-0.166
30.860,-0.067
30.865,-0.045
30.870,0.017
30.875,0.140
30.880,0.191
30.885,0.222
30.890,0.321
30.895,0.370
30.900,0.349
30.905,0.401
30.910,0.453
30.915,0.399
30.920,0.383
30.925,0.438
30.930,0.404
30.935,0.343
30.940,0.373
30.945,0.370
30.950,0.303
30.955,0.309
30.960,0.322
30.965,0.254
30.970,0.237
30.975,0.279
30.980,0.235
30.985,0.180
30.990,0.211
30.995,0.201
31.000,0.133
31.005,0.142
31.010,0.166
31.015,0.112
31.020,0.100
31.025,0.140
31.030,0.090
31.035,0.038
31.040,0.081
31.045,0.082
31.050,0.020
31.055,0.033
31.060,0.063
31.065,0.019
31.070,0.014
31.075,0.057
31.080,0.017
31.085,-0.026
31.090,0.022
31.095,0.024
31.100,-0.036
31.105,-0.015
31.110,0.018
31.115,-0.033
31.120,-0.038
31.125,0.008
31.130,-0.029
31.135,-0.075
31.140,-0.029
31.145,-0.019
31.150,-0.072
31.155,-0.054
31.160,-0.024
31.165,-0.077
31.170,-0.088
31.175,-0.040
31.180,-0.068
31.185,-0.113
31.190,-0.078
31.195,-0.080
31.200,-0.151
31.205,-0.159
31.210,-0.148
31.215,-0.197
31.220,-0.201
31.225,-0.164
31.230,-0.204
31.235,-0.228
31.240,-0.142
31.245,-0.089
31.250,-0.099
31.255,-0.056
31.260,-0.023
31.265,-0.051
31.270,-0.022
31.275,0.035
31.280,-0.001
31.285,-0.034
31.290,0.017
31.295,0.031
31.300,-0.015
31.305,0.001
31.310,0.032
31.315,-0.017
31.320,-0.026
31.325,0.023
31.330,-0.009
31.335,-0.057
31.340,-0.023
31.345,-0.014
31.350,-0.022
31.355,0.050
31.360,0.001
31.365,-0.325
31.370,-0.775
31.375,-1.332
31.380,-1.855
31.385,-1.948
31.390,-1.644
31.395,-1.133
31.400,-0.510
31.405,0.037
31.410,0.347
31.415,0.402
31.420,0.417
31.425,0.457
31.430,0.406
31.435,0.356
31.440,0.392
31.445,0.386
31.450,0.321
31.455,0.331
31.460,0.358
31.465,0.302
31.470,0.283
31.475,0.315
31.480,0.267
31.485,0.214
31.490,0.247
31.495,0.241
31.500,0.174
31.505,0.185
31.510,0.213
31.515,0.151
31.520,0.125
31.525,0.162
31.530,0.123
31.535,0.071
31.540,0.107
31.545,0.107
31.550,0.042
31.555,0.050
31.560,0.072
31.565,0.008
31.570,-0.019
31.575,0.016
31.580,-0.026
31.585,-0.079
31.590,-0.047
31.595,-0.057
31.600,-0.135
31.605,-0.134
31.610,-0.117
31.615,-0.190
31.620,-0.226
31.625,-0.198
31.630,-0.247
31.635,-0.307
31.640,-0.276
31.645,-0.271
31.650,-0.325
31.655,-0.305
31.660,-0.265
31.665,-0.300
31.670,-0.286
31.675,-0.196
31.680,-0.172
31.685,-0.152
31.690,-0.034
31.695,0.056
31.700,0.082
31.705,0.181
31.710,0.294
31.715,0.304
31.720,0.335
31.725,0.417
31.730,0.414
31.735,0.389
31.740,0.435
31.745,0.443
31.750,0.391
31.755,0.405
31.760,0.429
31.765,0.367
31.770,0.336
31.775,0.369
31.780,0.330
31.785,0.269
31.790,0.298
31.795,0.294
31.800,0.220
31.805,0.224
31.810,0.248
31.815,0.179
31.820,0.152
31.825,0.196
31.830,0.161
31.835,0.107
31.840,0.138
31.845,0.135
31.850,0.068
31.855,0.079
31.860,0.110
31.865,0.050
31.870,0.027
31.875,0.072
31.880,0.044
31.885,0.000
31.890,0.041
31.895,0.041
31.900,-0.021
31.905,0.002
31.910,0.042
31.915,-0.009
31.920,-0.027
31.925,0.019
31.930,-0.006
31.935,-0.051
31.940,-0.012
31.945,-0.001
31.950,-0.055
31.955,-0.035
31.960,0.004
31.965,-0.049
31.970,-0.064
31.975,-0.009
31.980,-0.035
31.985,-0.081
31.990,-0.040
31.995,-0.034
32.000,-0.090
32.005,-0.068
32.010,-0.028
32.015,-0.079
32.020,-0.093
32.025,-0.039
32.030,-0.063
32.035,-0.108
32.040,-0.068
32.045,-0.065
32.050,-0.131
32.055,-0.119
32.060,-0.091
32.065,-0.166
32.070,-0.211
32.075,-0.161
32.080,-0.171
32.085,-0.217
32.090,-0.185
32.095,-0.173
32.100,-0.195
32.105,-0.126
32.110,-0.043
32.115,-0.068
32.120,-0.076
32.125,-0.004
32.130,0.005
32.135,-0.027
32.140,0.011
32.145,0.024
32.150,-0.025
32.155,0.003
32.160,0.052
32.165,0.003
32.170,-0.014
32.175,0.032
32.180,-0.002
32.185,-0.049
32.190,-0.002
32.195,0.005
32.200,-0.059
32.205,-0.035
32.210,0.046
32.215,0.030
32.220,-0.092
32.225,-0.331
32.230,-0.785
32.235,-1.401
32.240,-1.855
32.245,-1.907
32.250,-1.643
32.255,-1.100
32.260,-0.439
32.265,-0.007
32.270,0.235
32.275,0.420
32.280,0.451
32.285,0.398
32.290,0.423
32.295,0.430
32.300,0.360
32.305,0.372
32.310,0.412
32.315,0.348
32.320,0.314
32.325,0.359
32.330,0.330
32.335,0.267
32.340,0.292
32.345,0.295
32.350,0.227
32.355,0.229
32.360,0.254
32.365,0.193
32.370,0.166
32.375,0.204
32.380,0.168
32.385,0.115
32.390,0.146
32.395,0.146
32.400,0.078
32.405,0.082
32.410,0.109
32.415,0.049
32.420,0.019
32.425,0.058
32.430,0.026
32.435,-0.034
32.440,-0.008
32.445,-0.011
32.450,-0.084
32.455,-0.086
32.460,-0.063
32.465,-0.133
32.470,-0.172
32.475,-0.137
32.480,-0.177
32.485,-0.246
32.490,-0.226
32.495,-0.230
32.500,-0.301
32.505,-0.293
32.510,-0.259
32.515,-0.306
32.520,-0.313
32.525,-0.251
32.530,-0.255
32.535,-0.263
32.540,-0.171
32.545,-0.100
32.550,-0.089
32.555,0.006
32.560,0.130
32.565,0.157
32.570,0.208
32.575,0.323
32.580,0.354
32.585,0.346
32.590,0.415
32.595,0.446
32.600,0.400
32.605,0.416
32.610,0.450
32.615,0.395
32.620,0.364
32.625,0.404
32.630,0.372
32.635,0.313
32.640,0.339
32.645,0.337
32.650,0.263
32.655,0.261
32.660,0.289
32.665,0.226
32.670,0.193
32.675,0.233
32.680,0.200
32.685,0.142
32.690,0.171
32.695,0.174
32.700,0.106
32.705,0.108
32.710,0.141
32.715,0.086
32.720,0.055
32.725,0.090
32.730,0.061
32.735,0.023
32.740,0.065
32.745,0.066
32.750,0.005
32.755,0.021
32.760,0.058
32.765,0.008
32.770,-0.011
32.775,0.034
32.780,0.010
32.785,-0.033
32.790,0.008
32.795,0.018
32.800,-0.042
32.805,-0.029
32.810,0.011
32.815,-0.035
32.820,-0.056
32.825,-0.006
32.830,-0.024
32.835,-0.073
32.840,-0.034
32.845,-0.021
32.850,-0.077
32.855,-0.062
32.860,-0.024
32.865,-0.069
32.870,-0.086
32.875,-0.039
32.880,-0.058
32.885,-0.101
32.890,-0.066
32.895,-0.060
32.900,-0.128
32.905,-0.125
32.910,-0.100
32.915,-0.174
32.920,-0.218
32.925,-0.169
32.930,-0.178
32.935,-0.223
32.940,-0.191
32.945,-0.175
32.950,-0.199
32.955,-0.139
32.960,-0.054
32.965,-0.067
32.970,-0.076
32.975,-0.011
32.980,0.006
32.985,-0.021
32.990,0.013
32.995,0.025
33.000,-0.025
33.005,-0.004
33.010,0.048
33.015,0.011
33.020,-0.009
33.025,0.034
33.030,0.013
33.035,-0.041
33.040,-0.014
33.045,0.006
33.050,-0.044
33.055,-0.031
33.060,0.036
33.065,0.025
33.070,-0.061
33.075,-0.252
33.080,-0.641
33.085,-1.206
33.090,-1.721
33.095,-1.919
33.100,-1.743
33.105,-1.231
33.110,-0.577
33.115,-0.110
33.120,0.191
33.125,0.401
33.130,0.440
33.135,0.398
33.140,0.419
33.145,0.420
33.150,0.352
33.155,0.365
33.160,0.408
33.165,0.350
33.170,0.311
33.175,0.343
33.180,0.309
33.185,0.252
33.190,0.285
33.195,0.286
33.200,0.214
33.205,0.219
33.210,0.248
33.215,0.184
33.220,0.158
33.225,0.209
33.230,0.176
33.235,0.114
33.240,0.146
33.245,0.147
33.250,0.071
33.255,0.074
33.260,0.107
33.265,0.052
33.270,0.027
33.275,0.069
33.280,0.034
33.285,-0.034
33.290,-0.017
33.295,-0.014
33.300,-0.076
33.305,-0.076
33.310,-0.056
33.315,-0.124
33.320,-0.165
33.325,-0.136
33.330,-0.180
33.335,-0.251
33.340,-0.231
33.345,-0.230
33.350,-0.295
33.355,-0.289
33.360,-0.252
33.365,-0.298
33.370,-0.320
33.375,-0.261
33.380,-0.254
33.385,-0.266
33.390,-0.177
33.395,-0.104
33.400,-0.098
33.405,-0.011
33.410,0.113
33.415,0.144
33.420,0.188
33.425,0.300
33.430,0.333
33.435,0.326
33.440,0.396
33.445,0.430
33.450,0.382
33.455,0.398
33.460,0.444
33.465,0.393
33.470,0.348
33.475,0.382
33.480,0.362
33.485,0.304
33.490,0.323
33.495,0.322
33.500,0.260
33.505,0.260
33.510,0.280
33.515,0.216
33.520,0.177
33.525,0.221
33.530,0.200
33.535,0.136
33.540,0.155
33.545,0.163
33.550,0.105
33.555,0.109
33.560,0.142
33.565,0.088
33.570,0.055
33.575,0.098
33.580,0.079
33.585,0.026
33.590,0.055
33.595,0.062
33.600,-0.002
33.605,0.010
33.610,0.055
33.615,0.002
33.620,-0.026
33.625,0.030
33.630,0.014
33.635,-0.040
33.640,-0.010
33.645,0.005
33.650,-0.046
33.655,-0.032
33.660,0.010
33.665,-0.038
33.670,-0.066
33.675,-0.018
33.680,-0.039
33.685,-0.090
33.690,-0.043
33.695,-0.021
33.700,-0.081
33.705,-0.066
33.710,-0.021
33.715,-0.071
33.720,-0.096
33.725,-0.049
33.730,-0.067
33.735,-0.112
33.740,-0.073
33.745,-0.063
33.750,-0.132
33.755,-0.133
33.760,-0.102
33.765,-0.176
33.770,-0.225
33.775,-0.162
33.780,-0.168
33.785,-0.240
33.790,-0.206
33.795,-0.154
33.800,-0.168
33.805,-0.114
33.810,-0.038
33.815,-0.066
33.820,-0.075
33.825,0.005
33.830,0.017
33.835,-0.034
33.840,0.005
33.845,0.033
33.850,-0.022
33.855,-0.001
33.860,0.054
33.865,0.015
33.870,-0.010
33.875,0.027
33.880,0.003
33.885,-0.043
33.890,-0.003
33.895,0.005
33.900,-0.064
33.905,-0.035
33.910,0.079
33.915,0.052
33.920,-0.130
33.925,-0.417
33.930,-0.950
33.935,-1.622
33.940,-1.953
33.945,-1.843
33.950,-1.473
33.955,-0.843
33.960,-0.207
33.965,0.170
33.970,0.357
33.975,0.459
33.980,0.451
33.985,0.379
33.990,0.400
33.995,0.419
34.000,0.357
34.005,0.359
34.010,0.389
34.015,0.325
34.020,0.287
34.025,0.328
34.030,0.309
34.035,0.256
34.040,0.281
34.045,0.282
34.050,0.206
34.055,0.199
34.060,0.233
34.065,0.183
34.070,0.150
34.075,0.192
34.080,0.166
34.085,0.102
34.090,0.129
34.095,0.137
34.100,0.068
34.105,0.068
34.110,0.098
34.115,0.038
34.120,0.003
34.125,0.047
34.130,0.017
34.135,-0.052
34.140,-0.030
34.145,-0.025
34.150,-0.096
34.155,-0.102
34.160,-0.076
34.165,-0.137
34.170,-0.183
34.175,-0.158
34.180,-0.191
34.185,-0.256
34.190,-0.235
34.195,-0.231
34.200,-0.299
34.205,-0.292
34.210,-0.243
34.215,-0.286
34.220,-0.304
34.225,-0.236
34.230,-0.224
34.235,-0.237
34.240,-0.147
34.245,-0.061
34.250,-0.043
34.255,0.049
34.260,0.173
34.265,0.201
34.270,0.236
34.275,0.335
34.280,0.367
34.285,0.352
34.290,0.413
34.295,0.448
34.300,0.396
34.305,0.402
34.310,0.436
34.315,0.381
34.320,0.349
34.325,0.387
34.330,0.359
34.335,0.298
34.340,0.324
34.345,0.326
34.350,0.245
34.355,0.232
34.360,0.262
34.365,0.215
34.370,0.181
34.375,0.215
34.380,0.189
34.385,0.129
34.390,0.155
34.395,0.159
34.400,0.092
34.405,0.093
34.410,0.128
34.415,0.079
34.420,0.046
34.425,0.089
34.430,0.074
34.435,0.018
34.440,0.047
34.445,0.069
34.450,0.014
34.455,0.010
34.460,0.052
34.465,0.015
34.470,-0.015
34.475,0.032
34.480,0.015
34.485,-0.038
34.490,-0.001
34.495,0.018
34.500,-0.039
34.505,-0.033
34.510,0.007
34.515,-0.039
34.520,-0.065
34.525,-0.010
34.530,-0.023
34.535,-0.081
34.540,-0.046
34.545,-0.019
34.550,-0.073
34.555,-0.069
34.560,-0.027
34.565,-0.073
34.570,-0.100
34.575,-0.047
34.580,-0.059
34.585,-0.116
34.590,-0.090
34.595,-0.077
34.600,-0.142
34.605,-0.154
34.610,-0.141
34.615,-0.196
34.620,-0.208
34.625,-0.154
34.630,-0.180
34.635,-0.233
34.640,-0.168
34.645,-0.107
34.650,-0.120
34.655,-0.078
34.660,-0.022
34.665,-0.049
34.670,-0.041
34.675,0.028
34.680,0.015
34.685,-0.033
34.690,0.009
34.695,0.038
34.700,-0.011
34.705,-0.009
34.710,0.033
34.715,-0.006
34.720,-0.035
34.725,0.008
34.730,-0.007
34.735,-0.059
34.740,-0.023
34.745,0.006
34.750,-0.016
34.755,0.031
34.760,0.005
34.765,-0.290
34.770,-0.725
34.775,-1.241
34.780,-1.781
34.785,-1.963
34.790,-1.696
34.795,-1.198
34.800,-0.606
34.805,-0.077
34.810,0.269
34.815,0.381
34.820,0.402
34.825,0.451
34.830,0.422
34.835,0.363
34.840,0.394
34.845,0.409
34.850,0.343
34.855,0.333
34.860,0.372
34.865,0.324
34.870,0.283
34.875,0.325
34.880,0.301
34.885,0.232
34.890,0.255
34.895,0.265
34.900,0.192
34.905,0.184
34.910,0.220
34.915,0.168
34.920,0.127
34.925,0.166
34.930,0.145
34.935,0.082
34.940,0.108
34.945,0.120
34.950,0.053
34.955,0.043
34.960,0.076
34.965,0.027
34.970,-0.015
34.975,0.017
34.980,-0.004
34.985,-0.070
34.990,-0.057
34.995,-0.050
35.000,-0.120
35.005,-0.135
35.010,-0.106
35.015,-0.167
35.020,-0.220
35.025,-0.188
35.030,-0.215
35.035,-0.288
35.040,-0.269
35.045,-0.250
35.050,-0.312
35.055,-0.313
35.060,-0.257
35.065,-0.278
35.070,-0.291
35.075,-0.213
35.080,-0.170
35.085,-0.155
35.090,-0.054
35.095,0.046
35.100,0.069
35.105,0.146
35.110,0.264
35.115,0.289
35.120,0.310
35.125,0.398
35.130,0.419
35.135,0.388
35.140,0.427
35.145,0.449
35.150,0.393
35.155,0.391
35.160,0.426
35.165,0.374
35.170,0.328
35.175,0.363
35.180,0.341
35.185,0.273
35.190,0.294
35.195,0.304
35.200,0.229
35.205,0.216
35.210,0.252
35.215,0.200
35.220,0.155
35.225,0.190
35.230,0.172
35.235,0.110
35.240,0.131
35.245,0.146
35.250,0.083
35.255,0.073
35.260,0.104
35.265,0.060
35.270,0.027
35.275,0.068
35.280,0.056
35.285,0.002
35.290,0.030
35.295,0.052
35.300,-0.004
35.305,-0.003
35.310,0.043
35.315,0.002
35.320,-0.033
35.325,0.011
35.330,0.004
35.335,-0.046
35.340,-0.015
35.345,0.008
35.350,-0.049
35.355,-0.048
35.360,0.000
35.365,-0.038
35.370,-0.072
35.375,-0.025
35.380,-0.028
35.385,-0.080
35.390,-0.052
35.395,-0.029
35.400,-0.083
35.405,-0.082
35.410,-0.035
35.415,-0.072
35.420,-0.108
35.425,-0.060
35.430,-0.060
35.435,-0.112
35.440,-0.084
35.445,-0.055
35.450,-0.107
35.455,-0.117
35.460,-0.082
35.465,-0.127
35.470,-0.170
35.475,-0.143
35.480,-0.174
35.485,-0.227
35.490,-0.182
35.495,-0.157
35.500,-0.221
35.505,-0.217
35.510,-0.135
35.515,-0.120
35.520,-0.105
35.525,-0.031
35.530,-0.032
35.535,-0.069
35.540,-0.003
35.545,0.039
35.550,-0.022
35.555,-0.020
35.560,0.038
35.565,0.014
35.570,-0.010
35.575,0.036
35.580,0.027
35.585,-0.027
35.590,-0.002
35.595,0.021
35.600,-0.035
35.605,-0.040
35.610,0.001
35.615,-0.020
35.620,-0.002
35.625,0.063
35.630,-0.074
35.635,-0.427
35.640,-0.838
35.645,-1.381
35.650,-1.874
35.655,-1.910
35.660,-1.542
35.665,-0.989
35.670,-0.411
35.675,0.059
35.680,0.297
35.685,0.367
35.690,0.440
35.695,0.454
35.700,0.384
35.705,0.381
35.710,0.422
35.715,0.379
35.720,0.340
35.725,0.374
35.730,0.358
35.735,0.297
35.740,0.315
35.745,0.326
35.750,0.258
35.755,0.245
35.760,0.281
35.765,0.237
35.770,0.192
35.775,0.224
35.780,0.209
35.785,0.146
35.790,0.164
35.795,0.181
35.800,0.119
35.805,0.106
35.810,0.138
35.815,0.093
35.820,0.048
35.825,0.084
35.830,0.071
35.835,0.005
35.840,0.021
35.845,0.035
35.850,-0.034
35.855,-0.053
35.860,-0.024
35.865,-0.072
35.870,-0.124
35.875,-0.099
35.880,-0.120
35.885,-0.195
35.890,-0.192
35.895,-0.184
35.900,-0.256
35.905,-0.276
35.910,-0.237
35.915,-0.273
35.920,-0.316
35.925,-0.273
35.930,-0.265
35.935,-0.300
35.940,-0.251
35.945,-0.189
35.950,-0.194
35.955,-0.137
35.960,-0.020
35.965,0.027
35.970,0.070
35.975,0.187
35.980,0.250
35.985,0.254
35.990,0.331
35.995,0.400
36.000,0.380
36.005,0.394
36.010,0.448
36.015,0.418
36.020,0.379
36.025,0.417
36.030,0.407
36.035,0.336
36.040,0.340
36.045,0.352
36.050,0.290
36.055,0.276
36.060,0.308
36.065,0.265
36.070,0.218
36.075,0.246
36.080,0.231
36.085,0.170
36.090,0.187
36.095,0.207
36.100,0.150
36.105,0.134
36.110,0.167
36.115,0.131
36.120,0.086
36.125,0.119
36.130,0.111
36.135,0.050
36.140,0.070
36.145,0.093
36.150,0.033
36.155,0.022
36.160,0.064
36.165,0.032
36.170,-0.002
36.175,0.040
36.180,0.039
36.185,-0.017
36.190,-0.002
36.195,0.022
36.200,-0.029
36.205,-0.034
36.210,0.012
36.215,-0.015
36.220,-0.045
36.225,-0.004
36.230,-0.009
36.235,-0.063
36.240,-0.038
36.245,-0.008
36.250,-0.061
36.255,-0.069
36.260,-0.025
36.265,-0.056
36.270,-0.092
36.275,-0.050
36.280,-0.052
36.285,-0.106
36.290,-0.076
36.295,-0.036
36.300,-0.085
36.305,-0.096
36.310,-0.048
36.315,-0.075
36.320,-0.112
36.325,-0.071
36.330,-0.074
36.335,-0.128
36.340,-0.109
36.345,-0.095
36.350,-0.159
36.355,-0.183
36.360,-0.164
36.365,-0.197
36.370,-0.219
36.375,-0.185
36.380,-0.199
36.385,-0.233
36.390,-0.162
36.395,-0.085
36.400,-0.097
36.405,-0.077
36.410,-0.018
36.415,-0.028
36.420,-0.028
36.425,0.031
36.430,0.017
36.435,-0.033
36.440,0.005
36.445,0.042
36.450,0.000
36.455,-0.003
36.460,0.042
36.465,0.012
36.470,-0.024
36.475,0.020
36.480,0.016
36.485,-0.047
36.490,-0.031
36.495,0.009
36.500,0.013
36.505,0.026
36.510,-0.076
36.515,-0.428
36.520,-0.939
36.525,-1.492
36.530,-1.886
36.535,-1.876
36.540,-1.459
36.545,-0.846
36.550,-0.313
36.555,0.110
36.560,0.385
36.565,0.431
36.570,0.414
36.575,0.434
36.580,0.417
36.585,0.364
36.590,0.377
36.595,0.391
36.600,0.330
36.605,0.318
36.610,0.354
36.615,0.313
36.620,0.271
36.625,0.300
36.630,0.281
36.635,0.220
36.640,0.233
36.645,0.246
36.650,0.182
36.655,0.166
36.660,0.206
36.665,0.168
36.670,0.123
36.675,0.156
36.680,0.144
36.685,0.081
36.690,0.097
36.695,0.121
36.700,0.063
36.705,0.039
36.710,0.067
36.715,0.028
36.720,-0.011
36.725,0.019
36.730,-0.004
36.735,-0.074
36.740,-0.068
36.745,-0.059
36.750,-0.120
36.755,-0.134
36.760,-0.107
36.765,-0.165
36.770,-0.225
36.775,-0.203
36.780,-0.219
36.785,-0.273
36.790,-0.253
36.795,-0.233
36.800,-0.286
36.805,-0.296
36.810,-0.252
36.815,-0.269
36.820,-0.276
36.825,-0.187
36.830,-0.133
36.835,-0.119
36.840,-0.027
36.845,0.065
36.850,0.088
36.855,0.154
36.860,0.266
36.865,0.295
36.870,0.308
36.875,0.393
36.880,0.421
36.885,0.381
36.890,0.405
36.895,0.430
36.900,0.384
36.905,0.378
36.910,0.409
36.915,0.361
36.920,0.309
36.925,0.335
36.930,0.321
36.935,0.259
36.940,0.274
36.945,0.288
36.950,0.220
36.955,0.195
36.960,0.231
36.965,0.201
36.970,0.159
36.975,0.183
36.980,0.165
36.985,0.104
36.990,0.120
36.995,0.141
37.000,0.086
37.005,0.074
37.010,0.110
37.015,0.069
37.020,0.027
37.025,0.067
37.030,0.068
37.035,0.014
37.040,0.032
37.045,0.052
37.050,-0.004
37.055,-0.008
37.060,0.045
37.065,0.021
37.070,-0.017
37.075,0.015
37.080,0.012
37.085,-0.034
37.090,-0.010
37.095,0.014
37.100,-0.041
37.105,-0.047
37.110,0.003
37.115,-0.030
37.120,-0.074
37.125,-0.030
37.130,-0.029
37.135,-0.089
37.140,-0.066
37.145,-0.030
37.150,-0.075
37.155,-0.084
37.160,-0.039
37.165,-0.072
37.170,-0.113
37.175,-0.073
37.180,-0.073
37.185,-0.126
37.190,-0.115
37.195,-0.109
37.200,-0.190
37.205,-0.212
37.210,-0.154
37.215,-0.183
37.220,-0.235
37.225,-0.195
37.230,-0.172
37.235,-0.174
37.240,-0.094
37.245,-0.028
37.250,-0.067
37.255,-0.061
37.260,0.013
37.265,0.003
37.270,-0.038
37.275,0.008
37.280,0.023
37.285,-0.022
37.290,0.006
37.295,0.040
37.300,-0.009
37.305,-0.020
37.310,0.023
37.315,-0.010
37.320,-0.049
37.325,-0.004
37.330,-0.002
37.335,-0.054
37.340,0.004
37.345,0.091
37.350,-0.011
37.355,-0.266
37.360,-0.639
37.365,-1.254
37.370,-1.842
37.375,-1.952
37.380,-1.710
37.385,-1.256
37.390,-0.567
37.395,0.019
37.400,0.281
37.405,0.392
37.410,0.464
37.415,0.434
37.420,0.377
37.425,0.414
37.430,0.415
37.435,0.352
37.440,0.361
37.445,0.379
37.450,0.321
37.455,0.301
37.460,0.336
37.465,0.297
37.470,0.245
37.475,0.275
37.480,0.265
37.485,0.200
37.490,0.209
37.495,0.231
37.500,0.173
37.505,0.152
37.510,0.183
37.515,0.146
37.520,0.099
37.525,0.130
37.530,0.121
37.535,0.056
37.540,0.064
37.545,0.081
37.550,0.024
37.555,0.008
37.560,0.042
37.565,0.003
37.570,-0.047
37.575,-0.022
37.580,-0.036
37.585,-0.104
37.590,-0.101
37.595,-0.087
37.600,-0.156
37.605,-0.191
37.610,-0.167
37.615,-0.212
37.620,-0.267
37.625,-0.241
37.630,-0.248
37.635,-0.309
37.640,-0.292
37.645,-0.255
37.650,-0.298
37.655,-0.296
37.660,-0.227
37.665,-0.220
37.670,-0.209
37.675,-0.109
37.680,-0.039
37.685,-0.012
37.690,0.089
37.695,0.196
37.700,0.223
37.705,0.276
37.710,0.367
37.715,0.379
37.720,0.374
37.725,0.431
37.730,0.442
37.735,0.398
37.740,0.413
37.745,0.432
37.750,0.382
37.755,0.365
37.760,0.392
37.765,0.351
37.770,0.297
37.775,0.322
37.780,0.309
37.785,0.241
37.790,0.248
37.795,0.265
37.800,0.202
37.805,0.176
37.810,0.207
37.815,0.170
37.820,0.123
37.825,0.151
37.830,0.141
37.835,0.084
37.840,0.096
37.845,0.118
37.850,0.065
37.855,0.045
37.860,0.081
37.865,0.053
37.870,0.015
37.875,0.049
37.880,0.048
37.885,-0.004
37.890,0.010
37.895,0.033
37.900,-0.011
37.905,-0.018
37.910,0.025
37.915,0.002
37.920,-0.035
37.925,-0.002
37.930,-0.002
37.935,-0.050
37.940,-0.029
37.945,0.001
37.950,-0.046
37.955,-0.056
37.960,-0.013
37.965,-0.041
37.970,-0.075
37.975,-0.033
37.980,-0.031
37.985,-0.078
37.990,-0.057
37.995,-0.027
38.000,-0.073
38.005,-0.087
38.010,-0.045
38.015,-0.071
38.020,-0.110
38.025,-0.073
38.030,-0.077
38.035,-0.138
38.040,-0.130
38.045,-0.121
38.050,-0.194
38.055,-0.208
38.060,-0.152
38.065,-0.177
38.070,-0.222
38.075,-0.179
38.080,-0.144
38.085,-0.149
38.090,-0.090
38.095,-0.031
38.100,-0.065
38.105,-0.063
38.110,0.011
38.115,0.010
38.120,-0.030
38.125,0.009
38.130,0.026
38.135,-0.014
38.140,0.011
38.145,0.043
38.150,-0.002
38.155,-0.017
38.160,0.024
38.165,0.004
38.170,-0.039
38.175,-0.008
38.180,-0.003
38.185,-0.047
38.190,0.009
38.195,0.067
38.200,-0.088
38.205,-0.389
38.210,-0.779
38.215,-1.378
38.220,-1.899
38.225,-1.938
38.230,-1.627
38.235,-1.102
38.240,-0.448
38.245,0.043
38.250,0.257
38.255,0.371
38.260,0.463
38.265,0.435
38.270,0.384
38.275,0.415
38.280,0.410
38.285,0.354
38.290,0.366
38.295,0.388
38.300,0.332
38.305,0.305
38.310,0.336
38.315,0.304
38.320,0.254
38.325,0.279
38.330,0.270
38.335,0.206
38.340,0.211
38.345,0.229
38.350,0.174
38.355,0.151
38.360,0.180
38.365,0.147
38.370,0.106
38.375,0.134
38.380,0.128
38.385,0.070
38.390,0.072
38.395,0.087
38.400,0.032
38.405,0.009
38.410,0.038
38.415,0.004
38.420,-0.048
38.425,-0.027
38.430,-0.037
38.435,-0.100
38.440,-0.104
38.445,-0.099
38.450,-0.156
38.455,-0.186
38.460,-0.171
38.465,-0.217
38.470,-0.271
38.475,-0.252
38.480,-0.258
38.485,-0.313
38.490,-0.302
38.495,-0.273
38.500,-0.309
38.505,-0.302
38.510,-0.232
38.515,-0.221
38.520,-0.209
38.525,-0.103
38.530,-0.024
38.535,0.005
38.540,0.102
38.545,0.206
38.550,0.230
38.555,0.280
38.560,0.373
38.565,0.388
38.570,0.379
38.575,0.433
38.580,0.446
38.585,0.396
38.590,0.410
38.595,0.437
38.600,0.378
38.605,0.352
38.610,0.384
38.615,0.346
38.620,0.295
38.625,0.321
38.630,0.307
38.635,0.241
38.640,0.247
38.645,0.266
38.650,0.208
38.655,0.183
38.660,0.214
38.665,0.179
38.670,0.132
38.675,0.157
38.680,0.150
38.685,0.091
38.690,0.093
38.695,0.114
38.700,0.065
38.705,0.044
38.710,0.081
38.715,0.051
38.720,0.008
38.725,0.043
38.730,0.045
38.735,-0.004
38.740,0.009
38.745,0.035
38.750,-0.008
38.755,-0.017
38.760,0.024
38.765,-0.004
38.770,-0.040
38.775,-0.001
38.780,0.005
38.785,-0.045
38.790,-0.032
38.795,-0.002
38.800,-0.045
38.805,-0.060
38.810,-0.019
38.815,-0.042
38.820,-0.081
38.825,-0.044
38.830,-0.036
38.835,-0.084
38.840,-0.067
38.845,-0.037
38.850,-0.078
38.855,-0.090
38.860,-0.049
38.865,-0.072
38.870,-0.105
38.875,-0.064
38.880,-0.057
38.885,-0.101
38.890,-0.083
38.895,-0.053
38.900,-0.095
38.905,-0.106
38.910,-0.061
38.915,-0.084
38.920,-0.128
38.925,-0.101
38.930,-0.109
38.935,-0.171
38.940,-0.177
38.945,-0.168
38.950,-0.206
38.955,-0.205
38.960,-0.167
38.965,-0.202
38.970,-0.231
38.975,-0.148
38.980,-0.090
38.985,-0.100
38.990,-0.057
38.995,-0.019
39.000,-0.045
39.005,-0.020
39.010,0.037
39.015,0.006
39.020,-0.030
39.025,0.015
39.030,0.034
39.035,-0.003
39.040,0.015
39.045,0.049
39.050,0.003
39.055,-0.018
39.060,0.019
39.065,-0.006
39.070,-0.043
39.075,-0.006
39.080,0.020
39.085,0.022
39.090,0.026
39.095,-0.119
39.100,-0.487
39.105,-0.973
39.110,-1.515
39.115,-1.892
39.120,-1.850
39.125,-1.410
39.130,-0.789
39.135,-0.271
39.140,0.116
39.145,0.357
39.150,0.414
39.155,0.432
39.160,0.454
39.165,0.419
39.170,0.377
39.175,0.401
39.180,0.401
39.185,0.348
39.190,0.349
39.195,0.369
39.200,0.320
39.205,0.295
39.210,0.328
39.215,0.293
39.220,0.238
39.225,0.263
39.230,0.257
39.235,0.196
39.240,0.197
39.245,0.217
39.250,0.168
39.255,0.149
39.260,0.181
39.265,0.145
39.270,0.089
39.275,0.109
39.280,0.108
39.285,0.055
39.290,0.062
39.295,0.082
39.300,0.024
39.305,-0.006
39.310,0.021
39.315,-0.018
39.320,-0.066
39.325,-0.040
39.330,-0.054
39.335,-0.121
39.340,-0.125
39.345,-0.114
39.350,-0.182
39.355,-0.224
39.360,-0.200
39.365,-0.236
39.370,-0.284
39.375,-0.260
39.380,-0.261
39.385,-0.303
39.390,-0.285
39.395,-0.254
39.400,-0.283
39.405,-0.272
39.410,-0.188
39.415,-0.155
39.420,-0.136
39.425,-0.032
39.430,0.060
39.435,0.096
39.440,0.181
39.445,0.274
39.450,0.290
39.455,0.322
39.460,0.397
39.465,0.408
39.470,0.389
39.475,0.430
39.480,0.434
39.485,0.376
39.490,0.382
39.495,0.406
39.500,0.347
39.505,0.311
39.510,0.338
39.515,0.314
39.520,0.268
39.525,0.287
39.530,0.282
39.535,0.219
39.540,0.221
39.545,0.243
39.550,0.187
39.555,0.159
39.560,0.187
39.565,0.152
39.570,0.104
39.575,0.131
39.580,0.132
39.585,0.076
39.590,0.078
39.595,0.109
39.600,0.062
39.605,0.034
39.610,0.067
39.615,0.039
39.620,0.003
39.625,0.046
39.630,0.054
39.635,-0.004
39.640,-0.002
39.645,0.028
39.650,-0.006
39.655,-0.017
39.660,0.024
39.665,0.002
39.670,-0.042
39.675,-0.014
39.680,-0.007
39.685,-0.051
39.690,-0.036
39.695,-0.010
39.700,-0.061
39.705,-0.073
39.710,-0.020
39.715,-0.033
39.720,-0.068
39.725,-0.042
39.730,-0.045
39.735,-0.090
39.740,-0.068
39.745,-0.031
39.750,-0.070
39.755,-0.087
39.760,-0.054
39.765,-0.077
39.770,-0.107
39.775,-0.066
39.780,-0.051
39.785,-0.093
39.790,-0.089
39.795,-0.066
39.800,-0.098
39.805,-0.104
39.810,-0.065
39.815,-0.084
39.820,-0.114
39.825,-0.081
39.830,-0.078
39.835,-0.129
39.840,-0.130
39.845,-0.116
39.850,-0.179
39.855,-0.212
39.860,-0.157
39.865,-0.167
39.870,-0.226
39.875,-0.209
39.880,-0.183
39.885,-0.185
39.890,-0.117
39.895,-0.038
39.900,-0.063
39.905,-0.075
39.910,0.001
39.915,0.016
39.920,-0.017
39.925,0.020
39.930,0.036
39.935,-0.005
39.940,0.018
39.945,0.053
39.950,0.013
39.955,-0.002
39.960,0.036
39.965,0.017
39.970,-0.028
39.975,-0.003
39.980,0.007
39.985,-0.031
39.990,0.006
39.995,0.096
40.000,0.042
40.005,-0.167
40.010,-0.497
40.015,-1.080
40.020,-1.721
40.025,-1.941
40.030,-1.759
40.035,-1.351
40.040,-0.694
40.045,-0.083
40.050,0.248
40.055,0.398
40.060,0.470
40.065,0.454
40.070,0.399
40.075,0.421
40.080,0.427
40.085,0.370
40.090,0.376
40.095,0.402
40.100,0.352
40.105,0.322
40.110,0.342
40.115,0.311
40.120,0.267
40.125,0.290
40.130,0.287
40.135,0.226
40.140,0.219
40.145,0.232
40.150,0.183
40.155,0.161
40.160,0.193
40.165,0.159
40.170,0.109
40.175,0.137
40.180,0.142
40.185,0.084
40.190,0.077
40.195,0.095
40.200,0.046
40.205,0.015
40.210,0.036
40.215,0.007
40.220,-0.038
40.225,-0.015
40.230,-0.017
40.235,-0.077
40.240,-0.087
40.245,-0.081
40.250,-0.138
40.255,-0.170
40.260,-0.151
40.265,-0.188
40.270,-0.239
40.275,-0.222
40.280,-0.228
40.285,-0.285
40.290,-0.283
40.295,-0.256
40.300,-0.286
40.305,-0.286
40.310,-0.227
40.315,-0.220
40.320,-0.225
40.325,-0.147
40.330,-0.072
40.335,-0.034
40.340,0.064
40.345,0.171
40.350,0.201
40.355,0.247
40.360,0.339
40.365,0.364
40.370,0.362
40.375,0.419
40.380,0.445
40.385,0.408
40.390,0.417
40.395,0.440
40.400,0.391
40.405,0.365
40.410,0.397
40.415,0.369
40.420,0.314
40.425,0.325
40.430,0.315
40.435,0.256
40.440,0.254
40.445,0.268
40.450,0.216
40.455,0.191
40.460,0.216
40.465,0.187
40.470,0.144
40.475,0.165
40.480,0.162
40.485,0.103
40.490,0.101
40.495,0.126
40.500,0.082
40.505,0.056
40.510,0.088
40.515,0.064
40.520,0.018
40.525,0.045
40.530,0.059
40.535,0.017
40.540,0.018
40.545,0.041
40.550,0.005
40.555,-0.008
40.560,0.025
40.565,0.004
40.570,-0.033
40.575,-0.003
40.580,0.012
40.585,-0.030
40.590,-0.026
40.595,0.001
40.600,-0.038
40.605,-0.056
40.610,-0.018
40.615,-0.037
40.620,-0.076
40.625,-0.041
40.630,-0.026
40.635,-0.070
40.640,-0.061
40.645,-0.028
40.650,-0.066
40.655,-0.089
40.660,-0.051
40.665,-0.057
40.670,-0.089
40.675,-0.063
40.680,-0.057
40.685,-0.103
40.690,-0.092
40.695,-0.059
40.700,-0.095
40.705,-0.117
40.710,-0.089
40.715,-0.110
40.720,-0.155
40.725,-0.149
40.730,-0.163
40.735,-0.212
40.740,-0.194
40.745,-0.163
40.750,-0.212
40.755,-0.228
40.760,-0.159
40.765,-0.128
40.770,-0.114
40.775,-0.050
40.780,-0.031
40.785,-0.059
40.790,-0.016
40.795,0.028
40.800,-0.019
40.805,-0.031
40.810,0.019
40.815,0.009
40.820,-0.017
40.825,0.019
40.830,0.021
40.835,-0.025
40.840,-0.010
40.845,0.017
40.850,-0.023
40.855,-0.040
40.860,-0.007
40.865,-0.013
40.870,-0.003
40.875,0.051
40.880,-0.064
40.885,-0.413
40.890,-0.870
40.895,-1.437
40.900,-1.892
40.905,-1.904
40.910,-1.565
40.915,-1.022
40.920,-0.415
40.925,0.069
40.930,0.324
40.935,0.393
40.940,0.441
40.945,0.459
40.950,0.408
40.955,0.390
40.960,0.419
40.965,0.396
40.970,0.353
40.975,0.374
40.980,0.372
40.985,0.315
40.990,0.312
40.995,0.327
41.000,0.275
41.005,0.245
41.010,0.269
41.015,0.245
41.020,0.199
41.025,0.215
41.030,0.217
41.035,0.167
41.040,0.162
41.045,0.178
41.050,0.130
41.055,0.102
41.060,0.127
41.065,0.105
41.070,0.061
41.075,0.073
41.080,0.065
41.085,0.009
41.090,0.009
41.095,0.028
41.100,-0.022
41.105,-0.052
41.110,-0.033
41.115,-0.069
41.120,-0.123
41.125,-0.113
41.130,-0.125
41.135,-0.188
41.140,-0.200
41.145,-0.192
41.150,-0.248
41.155,-0.278
41.160,-0.251
41.165,-0.276
41.170,-0.316
41.175,-0.282
41.180,-0.263
41.185,-0.295
41.190,-0.267
41.195,-0.203
41.200,-0.188
41.205,-0.144
41.210,-0.035
41.215,0.032
41.220,0.079
41.225,0.181
41.230,0.259
41.235,0.282
41.240,0.343
41.245,0.411
41.250,0.403
41.255,0.407
41.260,0.457
41.265,0.442
41.270,0.400
41.275,0.423
41.280,0.421
41.285,0.361
41.290,0.355
41.295,0.371
41.300,0.317
41.305,0.288
41.310,0.313
41.315,0.281
41.320,0.234
41.325,0.249
41.330,0.241
41.335,0.186
41.340,0.184
41.345,0.199
41.350,0.150
41.355,0.124
41.360,0.151
41.365,0.127
41.370,0.080
41.375,0.095
41.380,0.094
41.385,0.045
41.390,0.047
41.395,0.069
41.400,0.027
41.405,0.012
41.410,0.050
41.415,0.032
41.420,-0.008
41.425,0.019
41.430,0.029
41.435,-0.017
41.440,-0.009
41.445,0.021
41.450,-0.016
41.455,-0.032
41.460,0.003
41.465,-0.017
41.470,-0.055
41.475,-0.024
41.480,-0.014
41.485,-0.061
41.490,-0.055
41.495,-0.021
41.500,-0.053
41.505,-0.071
41.510,-0.036
41.515,-0.051
41.520,-0.088
41.525,-0.059
41.530,-0.047
41.535,-0.092
41.540,-0.087
41.545,-0.052
41.550,-0.084
41.555,-0.102
41.560,-0.059
41.565,-0.068
41.570,-0.107
41.575,-0.076
41.580,-0.062
41.585,-0.107
41.590,-0.099
41.595,-0.070
41.600,-0.099
41.605,-0.105
41.610,-0.067
41.615,-0.085
41.620,-0.129
41.625,-0.109
41.630,-0.105
41.635,-0.164
41.640,-0.181
41.645,-0.171
41.650,-0.204
41.655,-0.201
41.660,-0.165
41.665,-0.194
41.670,-0.223
41.675,-0.154
41.680,-0.092
41.685,-0.093
41.690,-0.062
41.695,-0.021
41.700,-0.035
41.705,-0.017
41.710,0.030
41.715,0.008
41.720,-0.020
41.725,0.021
41.730,0.042
41.735,0.010
41.740,0.016
41.745,0.044
41.750,0.009
41.755,-0.011
41.760,0.021
41.765,0.004
41.770,-0.033
41.775,-0.003
41.780,0.028
41.785,0.032
41.790,0.021
41.795,-0.142
41.800,-0.522
41.805,-1.032
41.810,-1.580
41.815,-1.902
41.820,-1.809
41.825,-1.370
41.830,-0.754
41.835,-0.242
41.840,0.119
41.845,0.353
41.850,0.423
41.855,0.433
41.860,0.448
41.865,0.426
41.870,0.386
41.875,0.405
41.880,0.413
41.885,0.361
41.890,0.355
41.895,0.378
41.900,0.333
41.905,0.302
41.910,0.325
41.915,0.297
41.920,0.246
41.925,0.262
41.930,0.265
41.935,0.210
41.940,0.201
41.945,0.221
41.950,0.178
41.955,0.149
41.960,0.174
41.965,0.150
41.970,0.101
41.975,0.116
41.980,0.119
41.985,0.067
41.990,0.059
41.995,0.076
42.000,0.031
42.005,0.002
42.010,0.021
42.015,-0.005
42.020,-0.051
42.025,-0.042
42.030,-0.052
42.035,-0.113
42.040,-0.125
42.045,-0.117
42.050,-0.172
42.055,-0.210
42.060,-0.196
42.065,-0.229
42.070,-0.281
42.075,-0.263
42.080,-0.257
42.085,-0.300
42.090,-0.291
42.095,-0.257
42.100,-0.277
42.105,-0.267
42.110,-0.200
42.115,-0.169
42.120,-0.144
42.125,-0.046
42.130,0.042
42.135,0.080
42.140,0.167
42.145,0.266
42.150,0.288
42.155,0.320
42.160,0.394
42.165,0.410
42.170,0.397
42.175,0.431
42.180,0.440
42.185,0.392
42.190,0.389
42.195,0.411
42.200,0.370
42.205,0.334
42.210,0.349
42.215,0.325
42.220,0.282
42.225,0.298
42.230,0.294
42.235,0.234
42.240,0.224
42.245,0.242
42.250,0.203
42.255,0.176
42.260,0.196
42.265,0.169
42.270,0.121
42.275,0.140
42.280,0.145
42.285,0.091
42.290,0.087
42.295,0.110
42.300,0.071
42.305,0.047
42.310,0.077
42.315,0.060
42.320,0.018
42.325,0.037
42.330,0.046
42.335,0.006
42.340,0.008
42.345,0.032
42.350,0.001
42.355,-0.015
42.360,0.018
42.365,0.003
42.370,-0.038
42.375,-0.016
42.380,-0.001
42.385,-0.041
42.390,-0.035
42.395,-0.009
42.400,-0.043
42.405,-0.060
42.410,-0.026
42.415,-0.040
42.420,-0.077
42.425,-0.051
42.430,-0.036
42.435,-0.072
42.440,-0.068
42.445,-0.046
42.450,-0.081
42.455,-0.093
42.460,-0.051
42.465,-0.058
42.470,-0.093
42.475,-0.073
42.480,-0.063
42.485,-0.102
42.490,-0.098
42.495,-0.063
42.500,-0.089
42.505,-0.106
42.510,-0.075
42.515,-0.087
42.520,-0.110
42.525,-0.079
42.530,-0.069
42.535,-0.107
42.540,-0.104
42.545,-0.074
42.550,-0.096
42.555,-0.100
42.560,-0.061
42.565,-0.076
42.570,-0.110
42.575,-0.086
42.580,-0.075
42.585,-0.112
42.590,-0.109
42.595,-0.089
42.600,-0.132
42.605,-0.165
42.610,-0.155
42.615,-0.189
42.620,-0.214
42.625,-0.170
42.630,-0.168
42.635,-0.220
42.640,-0.195
42.645,-0.117
42.650,-0.095
42.655,-0.072
42.660,-0.024
42.665,-0.035
42.670,-0.048
42.675,0.016
42.680,0.048
42.685,0.006
42.690,0.017
42.695,0.051
42.700,0.026
42.705,0.022
42.710,0.056
42.715,0.039
42.720,0.005
42.725,0.028
42.730,0.033
42.735,-0.010
42.740,-0.002
42.745,0.030
42.750,0.025
42.755,0.059
42.760,0.044
42.765,-0.213
42.770,-0.653
42.775,-1.191
42.780,-1.723
42.785,-1.905
42.790,-1.658
42.795,-1.168
42.800,-0.567
42.805,-0.031
42.810,0.322
42.815,0.434
42.820,0.428
42.825,0.456
42.830,0.452
42.835,0.401
42.840,0.401
42.845,0.421
42.850,0.381
42.855,0.353
42.860,0.378
42.865,0.353
42.870,0.304
42.875,0.324
42.880,0.324
42.885,0.262
42.890,0.255
42.895,0.275
42.900,0.229
42.905,0.200
42.910,0.225
42.915,0.203
42.920,0.157
42.925,0.170
42.930,0.170
42.935,0.122
42.940,0.121
42.945,0.137
42.950,0.089
42.955,0.062
42.960,0.088
42.965,0.057
42.970,0.004
42.975,0.021
42.980,0.014
42.985,-0.044
42.990,-0.046
42.995,-0.026
43.000,-0.071
43.005,-0.111
43.010,-0.103
43.015,-0.134
43.020,-0.184
43.025,-0.175
43.030,-0.188
43.035,-0.245
43.040,-0.248
43.045,-0.230
43.050,-0.267
43.055,-0.283
43.060,-0.242
43.065,-0.246
43.070,-0.267
43.075,-0.215
43.080,-0.171
43.085,-0.174
43.090,-0.108
43.095,-0.001
43.100,0.042
43.105,0.096
43.110,0.204
43.115,0.262
43.120,0.284
43.125,0.355
43.130,0.408
43.135,0.391
43.140,0.404
43.145,0.434
43.150,0.403
43.155,0.390
43.160,0.420
43.165,0.395
43.170,0.346
43.175,0.357
43.180,0.352
43.185,0.294
43.190,0.282
43.195,0.296
43.200,0.257
43.205,0.229
43.210,0.248
43.215,0.220
43.220,0.171
43.225,0.187
43.230,0.184
43.235,0.129
43.240,0.128
43.245,0.147
43.250,0.106
43.255,0.080
43.260,0.101
43.265,0.077
43.270,0.035
43.275,0.056
43.280,0.068
43.285,0.022
43.290,0.023
43.295,0.054
43.300,0.022
43.305,0.000
43.310,0.032
43.315,0.015
43.320,-0.022
43.325,0.011
43.330,0.020
43.335,-0.028
43.340,-0.017
43.345,0.011
43.350,-0.025
43.355,-0.040
43.360,-0.010
43.365,-0.027
43.370,-0.062
43.375,-0.034
43.380,-0.025
43.385,-0.073
43.390,-0.063
43.395,-0.029
43.400,-0.064
43.405,-0.081
43.410,-0.044
43.415,-0.055
43.420,-0.089
43.425,-0.065
43.430,-0.054
43.435,-0.092
43.440,-0.086
43.445,-0.060
43.450,-0.085
43.455,-0.090
43.460,-0.052
43.465,-0.065
43.470,-0.102
43.475,-0.077
43.480,-0.069
43.485,-0.111
43.490,-0.100
43.495,-0.062
43.500,-0.085
43.505,-0.099
43.510,-0.068
43.515,-0.083
43.520,-0.116
43.525,-0.089
43.530,-0.086
43.535,-0.137
43.540,-0.135
43.545,-0.120
43.550,-0.180
43.555,-0.207
43.560,-0.155
43.565,-0.164
43.570,-0.217
43.575,-0.193
43.580,-0.161
43.585,-0.163
43.590,-0.102
43.595,-0.029
43.600,-0.049
43.605,-0.057
43.610,0.013
43.615,0.020
43.620,-0.021
43.625,0.009
43.630,0.033
43.635,0.003
43.640,0.024
43.645,0.057
43.650,0.014
43.655,-0.008
43.660,0.030
43.665,0.015
43.670,-0.022
43.675,0.003
43.680,0.010
43.685,-0.014
43.690,0.050
43.695,0.088
43.700,-0.109
43.705,-0.469
43.710,-0.946
43.715,-1.567
43.720,-1.931
43.725,-1.817
43.730,-1.462
43.735,-0.895
43.740,-0.259
43.745,0.191
43.750,0.377
43.755,0.431
43.760,0.484
43.765,0.451
43.770,0.399
43.775,0.431
43.780,0.440
43.785,0.383
43.790,0.381
43.795,0.400
43.800,0.345
43.805,0.311
43.810,0.339
43.815,0.315
43.820,0.266
43.825,0.285
43.830,0.287
43.835,0.230
43.840,0.226
43.845,0.243
43.850,0.193
43.855,0.162
43.860,0.190
43.865,0.170
43.870,0.120
43.875,0.137
43.880,0.138
43.885,0.077
43.890,0.067
43.895,0.090
43.900,0.048
43.905,0.019
43.910,0.045
43.915,0.020
43.920,-0.035
43.925,-0.025
43.930,-0.027
43.935,-0.085
43.940,-0.097
43.945,-0.086
43.950,-0.142
43.955,-0.184
43.960,-0.168
43.965,-0.203
43.970,-0.259
43.975,-0.246
43.980,-0.247
43.985,-0.303
43.990,-0.298
43.995,-0.257
44.000,-0.285
44.005,-0.294
44.010,-0.232
44.015,-0.215
44.020,-0.216
44.025,-0.127
44.030,-0.038
44.035,-0.004
44.040,0.078
44.045,0.184
44.050,0.223
44.055,0.268
44.060,0.360
44.065,0.389
44.070,0.377
44.075,0.426
44.080,0.454
44.085,0.413
44.090,0.415
44.095,0.443
44.100,0.398
44.105,0.368
44.110,0.397
44.115,0.368
44.120,0.306
44.125,0.319
44.130,0.322
44.135,0.262
44.140,0.252
44.145,0.271
44.150,0.222
44.155,0.185
44.160,0.210
44.165,0.185
44.170,0.132
44.175,0.150
44.180,0.152
44.185,0.096
44.190,0.095
44.195,0.119
44.200,0.073
44.205,0.042
44.210,0.078
44.215,0.068
44.220,0.023
44.225,0.042
44.230,0.051
44.235,0.001
44.240,0.003
44.245,0.034
44.250,-0.003
44.255,-0.022
44.260,0.019
44.265,0.006
44.270,-0.037
44.275,-0.009
44.280,0.006
44.285,-0.044
44.290,-0.037
44.295,0.001
44.300,-0.036
44.305,-0.062
44.310,-0.025
44.315,-0.035
44.320,-0.077
44.325,-0.050
44.330,-0.034
44.335,-0.076
44.340,-0.074
44.345,-0.042
44.350,-0.075
44.355,-0.094
44.360,-0.052
44.365,-0.060
44.370,-0.100
44.375,-0.071
44.380,-0.055
44.385,-0.101
44.390,-0.094
44.395,-0.057
44.400,-0.089
44.405,-0.108
44.410,-0.067
44.415,-0.076
44.420,-0.115
44.425,-0.085
44.430,-0.065
44.435,-0.106
44.440,-0.099
44.445,-0.065
44.450,-0.102
44.455,-0.131
44.460,-0.097
44.465,-0.113
44.470,-0.168
44.475,-0.162
44.480,-0.167
44.485,-0.209
44.490,-0.190
44.495,-0.159
44.500,-0.205
44.505,-0.218
44.510,-0.141
44.515,-0.104
44.520,-0.099
44.525,-0.042
44.530,-0.022
44.535,-0.046
44.540,-0.002
44.545,0.045
44.550,0.004
44.555,-0.014
44.560,0.034
44.565,0.033
44.570,0.003
44.575,0.033
44.580,0.047
44.585,-0.001
44.590,0.000
44.595,0.031
44.600,-0.006
44.605,-0.029
44.610,0.012
44.615,0.029
44.620,0.037
44.625,0.015
44.630,-0.201
44.635,-0.626
44.640,-1.161
44.645,-1.692
44.650,-1.913
44.655,-1.730
44.660,-1.264
44.665,-0.651
44.670,-0.156
44.675,0.185
44.680,0.386
44.685,0.427
44.690,0.445
44.695,0.464
44.700,0.424
44.705,0.398
44.710,0.429
44.715,0.415
44.720,0.363
44.725,0.377
44.730,0.381
44.735,0.323
44.740,0.313
44.745,0.338
44.750,0.295
44.755,0.259
44.760,0.282
44.765,0.259
44.770,0.206
44.775,0.223
44.780,0.229
44.785,0.169
44.790,0.159
44.795,0.182
44.800,0.138
44.805,0.106
44.810,0.135
44.815,0.113
44.820,0.061
44.825,0.077
44.830,0.081
44.835,0.023
44.840,0.014
44.845,0.034
44.850,-0.016
44.855,-0.054
44.860,-0.032
44.865,-0.059
44.870,-0.118
44.875,-0.113
44.880,-0.118
44.885,-0.185
44.890,-0.205
44.895,-0.191
44.900,-0.241
44.905,-0.284
44.910,-0.258
44.915,-0.270
44.920,-0.313
44.925,-0.287
44.930,-0.261
44.935,-0.291
44.940,-0.266
44.945,-0.197
44.950,-0.180
44.955,-0.138
44.960,-0.026
44.965,0.040
44.970,0.075
44.975,0.178
44.980,0.266
44.985,0.281
44.990,0.335
44.995,0.411
45.000,0.406
45.005,0.400
45.010,0.451
45.015,0.445
45.020,0.395
45.025,0.414
45.030,0.426
45.035,0.366
45.040,0.352
45.045,0.373
45.050,0.325
45.055,0.285
45.060,0.310
45.065,0.290
45.070,0.234
45.075,0.246
45.080,0.249
45.085,0.190
45.090,0.179
45.095,0.199
45.100,0.151
45.105,0.118
45.110,0.152
45.115,0.132
45.120,0.078
45.125,0.097
45.130,0.105
45.135,0.051
45.140,0.045
45.145,0.072
45.150,0.038
45.155,0.013
45.160,0.046
45.165,0.031
45.170,-0.017
45.175,0.003
45.180,0.016
45.185,-0.028
45.190,-0.029
45.195,0.001
45.200,-0.031
45.205,-0.050
45.210,-0.008
45.215,-0.018
