'Elapsed time','ECG'
'seconds','mV'
0.000,0.012
0.005,0.122
0.010,0.097
0.015,0.093
0.020,0.108
0.025,0.084
0.030,0.094
0.035,0.101
0.040,0.082
0.045,0.080
0.050,0.090
0.055,0.078
0.060,0.067
0.065,0.075
0.070,0.067
0.075,0.050
0.080,0.058
0.085,0.068
0.090,0.067
0.095,0.073
0.100,0.068
0.105,0.017
0.110,-0.065
0.115,-0.157
0.120,-0.266
0.125,-0.303
0.130,-0.184
0.135,-0.029
0.140,0.026
0.145,0.021
0.150,0.030
0.155,0.036
0.160,0.031
0.165,0.046
0.170,0.051
0.175,0.042
0.180,0.052
0.185,0.058
0.190,0.042
0.195,0.042
0.200,0.053
0.205,0.041
0.210,0.030
0.215,0.039
0.220,0.035
0.225,0.021
0.230,0.027
0.235,0.028
0.240,0.012
0.245,0.014
0.250,0.024
0.255,0.008
0.260,-0.002
0.265,0.011
0.270,0.006
0.275,-0.011
0.280,-0.005
0.285,-0.002
0.290,-0.017
0.295,-0.017
0.300,-0.010
0.305,-0.025
0.310,-0.035
0.315,-0.024
0.320,-0.030
0.325,-0.049
0.330,-0.045
0.335,-0.045
0.340,-0.063
0.345,-0.064
0.350,-0.058
0.355,-0.075
0.360,-0.087
0.365,-0.076
0.370,-0.080
0.375,-0.094
0.380,-0.083
0.385,-0.073
0.390,-0.082
0.395,-0.069
0.400,-0.044
0.405,-0.041
0.410,-0.030
0.415,0.005
0.420,0.021
0.425,0.026
0.430,0.055
0.435,0.075
0.440,0.071
0.445,0.084
0.450,0.102
0.455,0.093
0.460,0.089
0.465,0.105
0.470,0.103
0.475,0.089
0.480,0.094
0.485,0.094
0.490,0.078
0.495,0.079
0.500,0.084
0.505,0.067
0.510,0.059
0.515,0.071
0.520,0.062
0.525,0.047
0.530,0.055
0.535,0.057
0.540,0.039
0.545,0.036
0.550,0.046
0.555,0.036
0.560,0.030
0.565,0.042
0.570,0.026
0.575,-0.018
0.580,-0.059
0.585,-0.115
0.590,-0.198
0.595,-0.272
0.600,-0.339
0.605,-0.441
0.610,-0.535
0.615,-0.570
0.620,-0.580
0.625,-0.572
0.630,-0.542
0.635,-0.530
0.640,-0.522
0.645,-0.467
0.650,-0.373
0.655,-0.277
0.660,-0.180
0.665,-0.070
0.670,0.031
0.675,0.121
0.680,0.230
0.685,0.341
0.690,0.428
0.695,0.488
0.700,0.504
0.705,0.480
0.710,0.465
0.715,0.471
0.720,0.457
0.725,0.430
0.730,0.426
0.735,0.418
0.740,0.389
0.745,0.374
0.750,0.367
0.755,0.338
0.760,0.315
0.765,0.314
0.770,0.295
0.775,0.263
0.780,0.257
0.785,0.243
0.790,0.210
0.795,0.204
0.800,0.208
0.805,0.184
0.810,0.159
0.815,0.156
0.820,0.149
0.825,0.136
0.830,0.138
0.835,0.129
0.840,0.104
0.845,0.109
0.850,0.122
0.855,0.104
0.860,0.090
0.865,0.101
0.870,0.097
0.875,0.076
0.880,0.066
0.885,0.043
0.890,0.004
0.895,-0.014
0.900,-0.024
0.905,-0.056
0.910,-0.081
0.915,-0.084
0.920,-0.105
0.925,-0.131
0.930,-0.132
0.935,-0.140
0.940,-0.167
0.945,-0.170
0.950,-0.161
0.955,-0.178
0.960,-0.189
0.965,-0.176
0.970,-0.179
0.975,-0.188
0.980,-0.173
0.985,-0.164
0.990,-0.172
0.995,-0.162
1.000,-0.148
1.005,-0.156
1.010,-0.153
1.015,-0.135
1.020,-0.139
1.025,-0.147
1.030,-0.129
1.035,-0.120
1.040,-0.133
1.045,-0.126
1.050,-0.110
1.055,-0.119
1.060,-0.122
1.065,-0.105
1.070,-0.103
1.075,-0.110
1.080,-0.099
1.085,-0.091
1.090,-0.101
1.095,-0.094
1.100,-0.080
1.105,-0.087
1.110,-0.087
1.115,-0.071
1.120,-0.077
1.125,-0.084
1.130,-0.067
1.135,-0.062
1.140,-0.075
1.145,-0.065
1.150,-0.049
1.155,-0.056
1.160,-0.058
1.165,-0.044
1.170,-0.045
1.175,-0.054
1.180,-0.040
1.185,-0.032
1.190,-0.043
1.195,-0.036
1.200,-0.024
1.205,-0.031
1.210,-0.032
1.215,-0.017
1.220,-0.019
1.225,-0.027
1.230,-0.016
1.235,-0.011
1.240,-0.021
1.245,-0.015
1.250,-0.002
1.255,-0.011
1.260,-0.014
1.265,0.003
1.270,0.001
1.275,-0.010
1.280,0.001
1.285,0.006
1.290,-0.005
1.295,0.002
1.300,0.014
1.305,0.001
1.310,-0.002
1.315,0.016
1.320,0.013
1.325,-0.001
1.330,0.011
1.335,0.016
1.340,0.002
1.345,0.009
1.350,0.021
1.355,0.008
1.360,0.005
1.365,0.022
1.370,0.018
1.375,0.008
1.380,0.022
1.385,0.025
1.390,0.006
1.395,0.015
1.400,0.031
1.405,0.018
1.410,0.012
1.415,0.025
1.420,0.021
1.425,0.012
1.430,0.024
1.435,0.028
1.440,0.014
1.445,0.017
1.450,0.028
1.455,0.018
1.460,0.013
1.465,0.027
1.470,0.023
1.475,0.012
1.480,0.024
1.485,0.029
1.490,0.014
1.495,0.021
1.500,0.031
1.505,0.017
1.510,0.013
1.515,0.027
1.520,0.024
1.525,0.013
1.530,0.020
1.535,0.022
1.540,0.009
1.545,0.015
1.550,0.027
1.555,0.017
1.560,0.014
1.565,0.022
1.570,0.016
1.575,0.010
1.580,0.021
1.585,0.023
1.590,0.009
1.595,0.014
1.600,0.023
1.605,0.011
1.610,0.010
1.615,0.023
1.620,0.013
1.625,0.004
1.630,0.020
1.635,0.021
1.640,0.003
1.645,0.007
1.650,0.021
1.655,0.009
1.660,0.002
1.665,0.016
1.670,0.009
1.675,-0.008
1.680,0.001
1.685,0.000
1.690,-0.024
1.695,-0.023
1.700,-0.009
1.705,-0.020
1.710,-0.034
1.715,-0.029
1.720,-0.035
1.725,-0.048
1.730,-0.040
1.735,-0.039
1.740,-0.053
1.745,-0.041
1.750,-0.018
1.755,-0.022
1.760,-0.018
1.765,0.013
1.770,0.031
1.775,0.036
1.780,0.051
1.785,0.053
1.790,0.042
1.795,0.047
1.800,0.058
1.805,0.051
1.810,0.050
1.815,0.062
1.820,0.054
1.825,0.045
1.830,0.059
1.835,0.057
1.840,0.040
1.845,0.043
1.850,0.048
1.855,0.035
1.860,0.032
1.865,0.044
1.870,0.042
1.875,0.043
1.880,0.057
1.885,0.040
1.890,-0.026
1.895,-0.113
1.900,-0.223
1.905,-0.341
1.910,-0.333
1.915,-0.168
1.920,-0.026
1.925,0.015
1.930,0.022
1.935,0.030
1.940,0.029
1.945,0.036
1.950,0.051
1.955,0.047
1.960,0.046
1.965,0.060
1.970,0.055
1.975,0.044
1.980,0.052
1.985,0.055
1.990,0.041
1.995,0.043
2.000,0.048
2.005,0.030
2.010,0.026
2.015,0.038
2.020,0.030
2.025,0.019
2.030,0.027
2.035,0.024
2.040,0.008
2.045,0.012
2.050,0.018
2.055,0.002
2.060,-0.004
2.065,0.005
2.070,-0.004
2.075,-0.016
2.080,-0.007
2.085,-0.007
2.090,-0.022
2.095,-0.022
2.100,-0.018
2.105,-0.032
2.110,-0.036
2.115,-0.026
2.120,-0.038
2.125,-0.052
2.130,-0.047
2.135,-0.053
2.140,-0.068
2.145,-0.066
2.150,-0.063
2.155,-0.076
2.160,-0.078
2.165,-0.064
2.170,-0.070
2.175,-0.078
2.180,-0.062
2.185,-0.054
2.190,-0.057
2.195,-0.041
2.200,-0.019
2.205,-0.013
2.210,0.000
2.215,0.030
2.220,0.041
2.225,0.045
2.230,0.069
2.235,0.081
2.240,0.076
2.245,0.090
2.250,0.101
2.255,0.091
2.260,0.090
2.265,0.100
2.270,0.092
2.275,0.082
2.280,0.091
2.285,0.086
2.290,0.069
2.295,0.073
2.300,0.078
2.305,0.064
2.310,0.061
2.315,0.067
2.320,0.052
2.325,0.042
2.330,0.053
2.335,0.049
2.340,0.034
2.345,0.040
2.350,0.042
2.355,0.025
2.360,0.022
2.365,0.035
2.370,0.025
2.375,0.011
2.380,0.023
2.385,0.021
2.390,0.005
2.395,0.014
2.400,0.021
2.405,0.004
2.410,0.004
2.415,0.017
2.420,0.006
2.425,-0.006
2.430,0.008
2.435,0.007
2.440,-0.008
2.445,0.001
2.450,0.010
2.455,-0.003
2.460,-0.004
2.465,0.005
2.470,-0.004
2.475,-0.008
2.480,0.004
2.485,-0.001
2.490,-0.015
2.495,-0.007
2.500,0.001
2.505,-0.013
2.510,-0.014
2.515,-0.003
2.520,-0.014
2.525,-0.025
2.530,-0.016
2.535,-0.024
2.540,-0.047
2.545,-0.042
2.550,-0.031
2.555,-0.049
2.560,-0.063
2.565,-0.059
2.570,-0.064
2.575,-0.071
2.580,-0.062
2.585,-0.068
2.590,-0.080
2.595,-0.059
2.600,-0.039
2.605,-0.045
2.610,-0.032
2.615,0.005
2.620,0.012
2.625,0.009
2.630,0.023
2.635,0.024
2.640,0.014
2.645,0.023
2.650,0.032
2.655,0.022
2.660,0.024
2.665,0.036
2.670,0.028
2.675,0.019
2.680,0.031
2.685,0.029
2.690,0.013
2.695,0.016
2.700,0.021
2.705,0.007
2.710,0.007
2.715,0.016
2.720,0.005
2.725,0.002
2.730,0.026
2.735,0.031
2.740,0.004
2.745,-0.031
2.750,-0.105
2.755,-0.224
2.760,-0.314
2.765,-0.287
2.770,-0.162
2.775,-0.033
2.780,0.035
2.785,0.020
2.790,-0.005
2.795,0.009
2.800,0.015
2.805,0.004
2.810,0.012
2.815,0.028
2.820,0.021
2.825,0.015
2.830,0.026
2.835,0.022
2.840,0.007
2.845,0.013
2.850,0.020
2.855,0.007
2.860,0.007
2.865,0.016
2.870,0.004
2.875,-0.004
2.880,0.010
2.885,0.006
2.890,-0.014
2.895,-0.006
2.900,0.001
2.905,-0.014
2.910,-0.014
2.915,-0.005
2.920,-0.016
2.925,-0.026
2.930,-0.013
2.935,-0.015
2.940,-0.034
2.945,-0.031
2.950,-0.026
2.955,-0.040
2.960,-0.045
2.965,-0.040
2.970,-0.052
2.975,-0.061
2.980,-0.057
2.985,-0.065
2.990,-0.080
2.995,-0.075
3.000,-0.071
3.005,-0.087
3.010,-0.086
3.015,-0.071
3.020,-0.077
3.025,-0.078
3.030,-0.056
3.035,-0.047
3.040,-0.048
3.045,-0.023
3.050,0.005
3.055,0.013
3.060,0.036
3.065,0.065
3.070,0.070
3.075,0.077
3.080,0.101
3.085,0.109
3.090,0.106
3.095,0.116
3.100,0.120
3.105,0.107
3.110,0.107
3.115,0.115
3.120,0.103
3.125,0.095
3.130,0.103
3.135,0.093
3.140,0.080
3.145,0.087
3.150,0.085
3.155,0.067
3.160,0.067
3.165,0.075
3.170,0.062
3.175,0.054
3.180,0.061
3.185,0.054
3.190,0.038
3.195,0.044
3.200,0.046
3.205,0.029
3.210,0.031
3.215,0.039
3.220,0.022
3.225,0.014
3.230,0.028
3.235,0.024
3.240,0.007
3.245,0.014
3.250,0.019
3.255,0.007
3.260,0.005
3.265,0.013
3.270,0.002
3.275,-0.003
3.280,0.010
3.285,0.003
3.290,-0.009
3.295,0.001
3.300,0.005
3.305,-0.009
3.310,-0.008
3.315,0.001
3.320,-0.011
3.325,-0.014
3.330,-0.002
3.335,-0.008
3.340,-0.019
3.345,-0.009
3.350,-0.005
3.355,-0.020
3.360,-0.018
3.365,-0.008
3.370,-0.019
3.375,-0.027
3.380,-0.019
3.385,-0.026
3.390,-0.042
3.395,-0.040
3.400,-0.034
3.405,-0.044
3.410,-0.051
3.415,-0.055
3.420,-0.073
3.425,-0.076
3.430,-0.060
3.435,-0.067
3.440,-0.085
3.445,-0.070
3.450,-0.049
3.455,-0.053
3.460,-0.043
3.465,-0.015
3.470,-0.004
3.475,0.006
3.480,0.023
3.485,0.019
3.490,0.010
3.495,0.021
3.500,0.026
3.505,0.017
3.510,0.023
3.515,0.033
3.520,0.022
3.525,0.019
3.530,0.033
3.535,0.027
3.540,0.014
3.545,0.022
3.550,0.025
3.555,0.009
3.560,0.009
3.565,0.018
3.570,0.005
3.575,0.003
3.580,0.028
3.585,0.033
3.590,0.016
3.595,-0.001
3.600,-0.058
3.605,-0.169
3.610,-0.274
3.615,-0.315
3.620,-0.248
3.625,-0.098
3.630,0.014
3.635,0.019
3.640,-0.007
3.645,0.006
3.650,0.019
3.655,0.010
3.660,0.018
3.665,0.032
3.670,0.026
3.675,0.024
3.680,0.036
3.685,0.030
3.690,0.017
3.695,0.026
3.700,0.029
3.705,0.016
3.710,0.017
3.715,0.024
3.720,0.010
3.725,0.001
3.730,0.016
3.735,0.013
3.740,-0.001
3.745,0.008
3.750,0.009
3.755,-0.007
3.760,-0.004
3.765,0.005
3.770,-0.011
3.775,-0.019
3.780,-0.007
3.785,-0.015
3.790,-0.029
3.795,-0.018
3.800,-0.016
3.805,-0.034
3.810,-0.035
3.815,-0.029
3.820,-0.044
3.825,-0.052
3.830,-0.045
3.835,-0.055
3.840,-0.070
3.845,-0.063
3.850,-0.062
3.855,-0.079
3.860,-0.078
3.865,-0.069
3.870,-0.079
3.875,-0.080
3.880,-0.061
3.885,-0.055
3.890,-0.055
3.895,-0.029
3.900,-0.007
3.905,-0.002
3.910,0.022
3.915,0.050
3.920,0.055
3.925,0.068
3.930,0.096
3.935,0.101
3.940,0.096
3.945,0.110
3.950,0.119
3.955,0.106
3.960,0.107
3.965,0.115
3.970,0.101
3.975,0.093
3.980,0.102
3.985,0.094
3.990,0.081
3.995,0.088
4.000,0.086
4.005,0.068
4.010,0.070
4.015,0.076
4.020,0.059
4.025,0.052
4.030,0.065
4.035,0.060
4.040,0.043
4.045,0.048
4.050,0.049
4.055,0.031
4.060,0.031
4.065,0.040
4.070,0.028
4.075,0.021
4.080,0.029
4.085,0.022
4.090,0.009
4.095,0.018
4.100,0.021
4.105,0.004
4.110,0.007
4.115,0.017
4.120,0.002
4.125,-0.003
4.130,0.012
4.135,0.006
4.140,-0.006
4.145,0.003
4.150,0.004
4.155,-0.008
4.160,-0.004
4.165,0.003
4.170,-0.009
4.175,-0.011
4.180,0.001
4.185,-0.006
4.190,-0.016
4.195,-0.004
4.200,-0.005
4.205,-0.021
4.210,-0.013
4.215,-0.002
4.220,-0.016
4.225,-0.019
4.230,-0.007
4.235,-0.016
4.240,-0.029
4.245,-0.022
4.250,-0.024
4.255,-0.043
4.260,-0.044
4.265,-0.034
4.270,-0.046
4.275,-0.060
4.280,-0.060
4.285,-0.070
4.290,-0.077
4.295,-0.063
4.300,-0.065
4.305,-0.083
4.310,-0.071
4.315,-0.048
4.320,-0.050
4.325,-0.046
4.330,-0.020
4.335,-0.004
4.340,0.007
4.345,0.027
4.350,0.027
4.355,0.013
4.360,0.023
4.365,0.033
4.370,0.020
4.375,0.020
4.380,0.039
4.385,0.036
4.390,0.026
4.395,0.035
4.400,0.033
4.405,0.019
4.410,0.025
4.415,0.029
4.420,0.016
4.425,0.013
4.430,0.024
4.435,0.015
4.440,0.005
4.445,0.027
4.450,0.042
4.455,0.023
4.460,0.002
4.465,-0.049
4.470,-0.161
4.475,-0.281
4.480,-0.338
4.485,-0.280
4.490,-0.127
4.495,-0.005
4.500,0.009
4.505,-0.014
4.510,0.006
4.515,0.026
4.520,0.016
4.525,0.022
4.530,0.040
4.535,0.035
4.540,0.029
4.545,0.042
4.550,0.040
4.555,0.023
4.560,0.028
4.565,0.038
4.570,0.024
4.575,0.019
4.580,0.028
4.585,0.019
4.590,0.008
4.595,0.019
4.600,0.016
4.605,-0.001
4.610,0.006
4.615,0.013
4.620,-0.002
4.625,-0.005
4.630,0.007
4.635,-0.003
4.640,-0.014
4.645,-0.005
4.650,-0.009
4.655,-0.026
4.660,-0.019
4.665,-0.013
4.670,-0.032
4.675,-0.036
4.680,-0.027
4.685,-0.038
4.690,-0.052
4.695,-0.048
4.700,-0.054
4.705,-0.073
4.710,-0.071
4.715,-0.065
4.720,-0.081
4.725,-0.086
4.730,-0.076
4.735,-0.083
4.740,-0.090
4.745,-0.073
4.750,-0.063
4.755,-0.062
4.760,-0.038
4.765,-0.013
4.770,-0.005
4.775,0.018
4.780,0.052
4.785,0.062
4.790,0.068
4.795,0.092
4.800,0.102
4.805,0.097
4.810,0.110
4.815,0.121
4.820,0.105
4.825,0.102
4.830,0.116
4.835,0.107
4.840,0.093
4.845,0.101
4.850,0.097
4.855,0.081
4.860,0.086
4.865,0.090
4.870,0.071
4.875,0.066
4.880,0.076
4.885,0.063
4.890,0.049
4.895,0.058
4.900,0.057
4.905,0.041
4.910,0.044
4.915,0.049
4.920,0.034
4.925,0.030
4.930,0.042
4.935,0.032
4.940,0.020
4.945,0.030
4.950,0.025
4.955,0.010
4.960,0.017
4.965,0.022
4.970,0.006
4.975,0.005
4.980,0.018
4.985,0.008
4.990,-0.005
4.995,0.007
5.000,0.007
5.005,-0.009
5.010,-0.002
5.015,0.005
5.020,-0.009
5.025,-0.008
5.030,0.003
5.035,-0.009
5.040,-0.016
5.045,-0.003
5.050,-0.005
5.055,-0.020
5.060,-0.010
5.065,-0.002
5.070,-0.018
5.075,-0.018
5.080,-0.005
5.085,-0.015
5.090,-0.023
5.095,-0.009
5.100,-0.010
5.105,-0.025
5.110,-0.020
5.115,-0.012
5.120,-0.024
5.125,-0.022
5.130,-0.010
5.135,-0.022
5.140,-0.032
5.145,-0.020
5.150,-0.025
5.155,-0.045
5.160,-0.045
5.165,-0.043
5.170,-0.054
5.175,-0.058
5.180,-0.060
5.185,-0.078
5.190,-0.084
5.195,-0.065
5.200,-0.063
5.205,-0.082
5.210,-0.077
5.215,-0.057
5.220,-0.054
5.225,-0.048
5.230,-0.030
5.235,-0.021
5.240,-0.004
5.245,0.025
5.250,0.030
5.255,0.019
5.260,0.025
5.265,0.033
5.270,0.022
5.275,0.023
5.280,0.038
5.285,0.032
5.290,0.027
5.295,0.041
5.300,0.039
5.305,0.024
5.310,0.031
5.315,0.034
5.320,0.019
5.325,0.020
5.330,0.029
5.335,0.014
5.340,0.007
5.345,0.023
5.350,0.034
5.355,0.035
5.360,0.035
5.365,0.011
5.370,-0.073
5.375,-0.185
5.380,-0.296
5.385,-0.367
5.390,-0.291
5.395,-0.103
5.400,0.001
5.405,-0.008
5.410,-0.003
5.415,0.023
5.420,0.019
5.425,0.021
5.430,0.041
5.435,0.039
5.440,0.035
5.445,0.048
5.450,0.045
5.455,0.032
5.460,0.042
5.465,0.044
5.470,0.028
5.475,0.027
5.480,0.038
5.485,0.029
5.490,0.019
5.495,0.028
5.500,0.025
5.505,0.011
5.510,0.017
5.515,0.021
5.520,0.008
5.525,0.007
5.530,0.011
5.535,-0.001
5.540,-0.010
5.545,-0.001
5.550,-0.004
5.555,-0.020
5.560,-0.015
5.565,-0.010
5.570,-0.028
5.575,-0.030
5.580,-0.024
5.585,-0.039
5.590,-0.049
5.595,-0.044
5.600,-0.054
5.605,-0.073
5.610,-0.070
5.615,-0.069
5.620,-0.087
5.625,-0.092
5.630,-0.084
5.635,-0.092
5.640,-0.099
5.645,-0.087
5.650,-0.083
5.655,-0.082
5.660,-0.057
5.665,-0.033
5.670,-0.023
5.675,0.002
5.680,0.036
5.685,0.048
5.690,0.063
5.695,0.093
5.700,0.103
5.705,0.100
5.710,0.119
5.715,0.133
5.720,0.116
5.725,0.115
5.730,0.131
5.735,0.120
5.740,0.108
5.745,0.118
5.750,0.113
5.755,0.094
5.760,0.100
5.765,0.101
5.770,0.079
5.775,0.078
5.780,0.086
5.785,0.072
5.790,0.062
5.795,0.068
5.800,0.061
5.805,0.049
5.810,0.056
5.815,0.058
5.820,0.043
5.825,0.043
5.830,0.051
5.835,0.038
5.840,0.030
5.845,0.041
5.850,0.035
5.855,0.019
5.860,0.029
5.865,0.032
5.870,0.012
5.875,0.012
5.880,0.024
5.885,0.011
5.890,0.001
5.895,0.014
5.900,0.008
5.905,-0.006
5.910,0.004
5.915,0.003
5.920,-0.013
5.925,-0.008
5.930,0.006
5.935,-0.007
5.940,-0.018
5.945,-0.002
5.950,-0.004
5.955,-0.019
5.960,-0.011
5.965,-0.005
5.970,-0.020
5.975,-0.021
5.980,-0.009
5.985,-0.016
5.990,-0.025
5.995,-0.015
6.000,-0.015
6.005,-0.027
6.010,-0.020
6.015,-0.014
6.020,-0.027
6.025,-0.026
6.030,-0.017
6.035,-0.026
6.040,-0.030
6.045,-0.018
6.050,-0.022
6.055,-0.037
6.060,-0.031
6.065,-0.029
6.070,-0.046
6.075,-0.050
6.080,-0.041
6.085,-0.049
6.090,-0.060
6.095,-0.059
6.100,-0.072
6.105,-0.086
6.110,-0.070
6.115,-0.065
6.120,-0.088
6.125,-0.084
6.130,-0.057
6.135,-0.054
6.140,-0.054
6.145,-0.028
6.150,-0.009
6.155,-0.003
6.160,0.016
6.165,0.023
6.170,0.009
6.175,0.017
6.180,0.032
6.185,0.022
6.190,0.020
6.195,0.036
6.200,0.034
6.205,0.022
6.210,0.033
6.215,0.036
6.220,0.020
6.225,0.020
6.230,0.031
6.235,0.018
6.240,0.009
6.245,0.022
6.250,0.017
6.255,0.003
6.260,0.013
6.265,0.029
6.270,0.026
6.275,0.021
6.280,0.000
6.285,-0.075
6.290,-0.177
6.295,-0.279
6.300,-0.337
6.305,-0.261
6.310,-0.086
6.315,0.024
6.320,0.018
6.325,0.007
6.330,0.025
6.335,0.015
6.340,0.007
6.345,0.032
6.350,0.036
6.355,0.025
6.360,0.036
6.365,0.039
6.370,0.024
6.375,0.028
6.380,0.036
6.385,0.023
6.390,0.018
6.395,0.030
6.400,0.025
6.405,0.014
6.410,0.020
6.415,0.017
6.420,0.001
6.425,0.007
6.430,0.015
6.435,0.000
6.440,-0.003
6.445,0.008
6.450,-0.001
6.455,-0.016
6.460,-0.005
6.465,-0.002
6.470,-0.020
6.475,-0.020
6.480,-0.011
6.485,-0.026
6.490,-0.035
6.495,-0.024
6.500,-0.033
6.505,-0.051
6.510,-0.047
6.515,-0.048
6.520,-0.068
6.525,-0.071
6.530,-0.067
6.535,-0.083
6.540,-0.089
6.545,-0.078
6.550,-0.089
6.555,-0.099
6.560,-0.079
6.565,-0.066
6.570,-0.070
6.575,-0.052
6.580,-0.022
6.585,-0.013
6.590,0.004
6.595,0.041
6.600,0.057
6.605,0.063
6.610,0.091
6.615,0.109
6.620,0.102
6.625,0.110
6.630,0.127
6.635,0.117
6.640,0.113
6.645,0.127
6.650,0.119
6.655,0.103
6.660,0.111
6.665,0.110
6.670,0.090
6.675,0.091
6.680,0.098
6.685,0.081
6.690,0.072
6.695,0.082
6.700,0.071
6.705,0.056
6.710,0.066
6.715,0.067
6.720,0.052
6.725,0.052
6.730,0.058
6.735,0.043
6.740,0.036
6.745,0.047
6.750,0.038
6.755,0.021
6.760,0.029
6.765,0.032
6.770,0.014
6.775,0.017
6.780,0.027
6.785,0.012
6.790,0.006
6.795,0.018
6.800,0.010
6.805,-0.003
6.810,0.009
6.815,0.011
6.820,-0.006
6.825,-0.005
6.830,0.005
6.835,-0.006
6.840,-0.010
6.845,0.002
6.850,-0.004
6.855,-0.016
6.860,-0.005
6.865,-0.003
6.870,-0.017
6.875,-0.012
6.880,-0.005
6.885,-0.019
6.890,-0.020
6.895,-0.007
6.900,-0.015
6.905,-0.027
6.910,-0.015
6.915,-0.011
6.920,-0.023
6.925,-0.019
6.930,-0.011
6.935,-0.026
6.940,-0.028
6.945,-0.012
6.950,-0.018
6.955,-0.026
6.960,-0.015
6.965,-0.016
6.970,-0.029
6.975,-0.025
6.980,-0.019
6.985,-0.034
6.990,-0.039
6.995,-0.028
7.000,-0.043
7.005,-0.062
7.010,-0.045
7.015,-0.040
7.020,-0.067
7.025,-0.074
7.030,-0.065
7.035,-0.074
7.040,-0.077
7.045,-0.066
7.050,-0.075
7.055,-0.075
7.060,-0.046
7.065,-0.039
7.070,-0.045
7.075,-0.015
7.080,0.017
7.085,0.013
7.090,0.014
7.095,0.030
7.100,0.021
7.105,0.010
7.110,0.027
7.115,0.033
7.120,0.019
7.125,0.028
7.130,0.041
7.135,0.028
7.140,0.024
7.145,0.037
7.150,0.031
7.155,0.019
7.160,0.028
7.165,0.027
7.170,0.011
7.175,0.016
7.180,0.023
7.185,0.008
7.190,0.017
7.195,0.047
7.200,0.039
7.205,0.003
7.210,-0.036
7.215,-0.124
7.220,-0.257
7.225,-0.344
7.230,-0.307
7.235,-0.170
7.240,-0.034
7.245,0.018
7.250,0.001
7.255,0.002
7.260,0.028
7.265,0.029
7.270,0.023
7.275,0.039
7.280,0.051
7.285,0.038
7.290,0.037
7.295,0.050
7.300,0.039
7.305,0.028
7.310,0.040
7.315,0.038
7.320,0.021
7.325,0.025
7.330,0.031
7.335,0.017
7.340,0.013
7.345,0.025
7.350,0.016
7.355,0.005
7.360,0.016
7.365,0.015
7.370,-0.002
7.375,0.002
7.380,0.009
7.385,-0.008
7.390,-0.013
7.395,-0.002
7.400,-0.012
7.405,-0.022
7.410,-0.011
7.415,-0.015
7.420,-0.033
7.425,-0.030
7.430,-0.028
7.435,-0.048
7.440,-0.056
7.445,-0.047
7.450,-0.061
7.455,-0.079
7.460,-0.070
7.465,-0.073
7.470,-0.092
7.475,-0.087
7.480,-0.077
7.485,-0.086
7.490,-0.084
7.495,-0.066
7.500,-0.061
7.505,-0.053
7.510,-0.021
7.515,0.002
7.520,0.010
7.525,0.039
7.530,0.065
7.535,0.067
7.540,0.081
7.545,0.108
7.550,0.107
7.555,0.102
7.560,0.120
7.565,0.121
7.570,0.105
7.575,0.113
7.580,0.121
7.585,0.102
7.590,0.097
7.595,0.107
7.600,0.091
7.605,0.078
7.610,0.090
7.615,0.087
7.620,0.066
7.625,0.070
7.630,0.078
7.635,0.060
7.640,0.054
7.645,0.063
7.650,0.050
7.655,0.039
7.660,0.050
7.665,0.049
7.670,0.032
7.675,0.033
7.680,0.040
7.685,0.025
7.690,0.021
7.695,0.034
7.700,0.022
7.705,0.008
7.710,0.021
7.715,0.020
7.720,0.003
7.725,0.009
7.730,0.016
7.735,0.001
7.740,-0.002
7.745,0.010
7.750,0.002
7.755,-0.009
7.760,0.001
7.765,0.001
7.770,-0.014
7.775,-0.008
7.780,0.000
7.785,-0.013
7.790,-0.014
7.795,0.000
7.800,-0.008
7.805,-0.020
7.810,-0.010
7.815,-0.010
7.820,-0.024
7.825,-0.015
7.830,-0.006
7.835,-0.022
7.840,-0.025
7.845,-0.008
7.850,-0.017
7.855,-0.027
7.860,-0.013
7.865,-0.012
7.870,-0.027
7.875,-0.020
7.880,-0.009
7.885,-0.023
7.890,-0.027
7.895,-0.014
7.900,-0.019
7.905,-0.027
7.910,-0.015
7.915,-0.015
7.920,-0.030
7.925,-0.023
7.930,-0.011
7.935,-0.023
7.940,-0.027
7.945,-0.018
7.950,-0.028
7.955,-0.040
7.960,-0.034
7.965,-0.043
7.970,-0.058
7.975,-0.045
7.980,-0.045
7.985,-0.074
7.990,-0.080
7.995,-0.063
8.000,-0.069
8.005,-0.079
8.010,-0.070
8.015,-0.069
8.020,-0.068
8.025,-0.044
8.030,-0.030
8.035,-0.036
8.040,-0.015
8.045,0.022
8.050,0.024
8.055,0.017
8.060,0.032
8.065,0.033
8.070,0.019
8.075,0.029
8.080,0.043
8.085,0.032
8.090,0.032
8.095,0.050
8.100,0.039
8.105,0.027
8.110,0.041
8.115,0.039
8.120,0.021
8.125,0.029
8.130,0.035
8.135,0.018
8.140,0.016
8.145,0.029
8.150,0.022
8.155,0.028
8.160,0.052
8.165,0.043
8.170,-0.005
8.175,-0.070
8.180,-0.173
8.185,-0.308
8.190,-0.361
8.195,-0.252
8.200,-0.088
8.205,-0.002
8.210,0.010
8.215,0.003
8.220,0.009
8.225,0.028
8.230,0.040
8.235,0.033
8.240,0.036
8.245,0.053
8.250,0.047
8.255,0.038
8.260,0.048
8.265,0.045
8.270,0.029
8.275,0.035
8.280,0.042
8.285,0.025
8.290,0.021
8.295,0.033
8.300,0.023
8.305,0.013
8.310,0.023
8.315,0.021
8.320,0.007
8.325,0.013
8.330,0.018
8.335,0.003
8.340,0.000
8.345,0.012
8.350,0.001
8.355,-0.014
8.360,-0.003
8.365,-0.005
8.370,-0.023
8.375,-0.016
8.380,-0.012
8.385,-0.031
8.390,-0.035
8.395,-0.026
8.400,-0.042
8.405,-0.058
8.410,-0.052
8.415,-0.059
8.420,-0.080
8.425,-0.076
8.430,-0.070
8.435,-0.089
8.440,-0.093
8.445,-0.079
8.450,-0.087
8.455,-0.090
8.460,-0.065
8.465,-0.054
8.470,-0.055
8.475,-0.026
8.480,0.004
8.485,0.011
8.490,0.035
8.495,0.070
8.500,0.076
8.505,0.081
8.510,0.105
8.515,0.113
8.520,0.105
8.525,0.116
8.530,0.124
8.535,0.110
8.540,0.110
8.545,0.119
8.550,0.103
8.555,0.092
8.560,0.105
8.565,0.102
8.570,0.080
8.575,0.082
8.580,0.088
8.585,0.068
8.590,0.064
8.595,0.077
8.600,0.062
8.605,0.048
8.610,0.061
8.615,0.055
8.620,0.037
8.625,0.046
8.630,0.053
8.635,0.034
8.640,0.028
8.645,0.039
8.650,0.029
8.655,0.020
8.660,0.029
8.665,0.024
8.670,0.012
8.675,0.020
8.680,0.021
8.685,0.004
8.690,0.005
8.695,0.016
8.700,0.004
8.705,-0.003
8.710,0.010
8.715,0.004
8.720,-0.011
8.725,-0.001
8.730,0.005
8.735,-0.012
8.740,-0.014
8.745,0.000
8.750,-0.009
8.755,-0.017
8.760,-0.002
8.765,-0.005
8.770,-0.022
8.775,-0.010
8.780,-0.003
8.785,-0.022
8.790,-0.021
8.795,-0.004
8.800,-0.014
8.805,-0.022
8.810,-0.009
8.815,-0.012
8.820,-0.026
8.825,-0.017
8.830,-0.009
8.835,-0.024
8.840,-0.025
8.845,-0.012
8.850,-0.022
8.855,-0.028
8.860,-0.012
8.865,-0.015
8.870,-0.032
8.875,-0.021
8.880,-0.012
8.885,-0.028
8.890,-0.026
8.895,-0.008
8.900,-0.021
8.905,-0.031
8.910,-0.015
8.915,-0.014
8.920,-0.029
8.925,-0.020
8.930,-0.011
8.935,-0.027
8.940,-0.032
8.945,-0.024
8.950,-0.037
8.955,-0.050
8.960,-0.041
8.965,-0.043
8.970,-0.057
8.975,-0.061
8.980,-0.068
8.985,-0.083
8.990,-0.076
8.995,-0.059
9.000,-0.070
9.005,-0.079
9.010,-0.062
9.015,-0.051
9.020,-0.051
9.025,-0.037
9.030,-0.018
9.035,-0.007
9.040,0.015
9.045,0.036
9.050,0.027
9.055,0.019
9.060,0.036
9.065,0.036
9.070,0.022
9.075,0.035
9.080,0.045
9.085,0.034
9.090,0.037
9.095,0.049
9.100,0.036
9.105,0.026
9.110,0.042
9.115,0.038
9.120,0.020
9.125,0.031
9.130,0.036
9.135,0.014
9.140,0.012
9.145,0.033
9.150,0.040
9.155,0.039
9.160,0.037
9.165,-0.012
9.170,-0.119
9.175,-0.234
9.180,-0.342
9.185,-0.373
9.190,-0.235
9.195,-0.052
9.200,0.009
9.205,-0.001
9.210,0.023
9.215,0.038
9.220,0.022
9.225,0.038
9.230,0.055
9.235,0.041
9.240,0.045
9.245,0.062
9.250,0.050
9.255,0.043
9.260,0.053
9.265,0.045
9.270,0.029
9.275,0.038
9.280,0.045
9.285,0.028
9.290,0.024
9.295,0.036
9.300,0.024
9.305,0.012
9.310,0.025
9.315,0.023
9.320,0.005
9.325,0.012
9.330,0.018
9.335,-0.003
9.340,-0.004
9.345,0.010
9.350,-0.005
9.355,-0.016
9.360,-0.006
9.365,-0.015
9.370,-0.031
9.375,-0.021
9.380,-0.019
9.385,-0.041
9.390,-0.047
9.395,-0.040
9.400,-0.059
9.405,-0.072
9.410,-0.064
9.415,-0.074
9.420,-0.091
9.425,-0.086
9.430,-0.085
9.435,-0.101
9.440,-0.098
9.445,-0.084
9.450,-0.088
9.455,-0.084
9.460,-0.057
9.465,-0.040
9.470,-0.029
9.475,0.004
9.480,0.034
9.485,0.042
9.490,0.061
9.495,0.090
9.500,0.097
9.505,0.101
9.510,0.122
9.515,0.125
9.520,0.114
9.525,0.123
9.530,0.132
9.535,0.114
9.540,0.109
9.545,0.119
9.550,0.106
9.555,0.096
9.560,0.104
9.565,0.094
9.570,0.076
9.575,0.083
9.580,0.085
9.585,0.067
9.590,0.065
9.595,0.072
9.600,0.056
9.605,0.047
9.610,0.054
9.615,0.048
9.620,0.037
9.625,0.042
9.630,0.043
9.635,0.030
9.640,0.033
9.645,0.041
9.650,0.023
9.655,0.014
9.660,0.028
9.665,0.025
9.670,0.008
9.675,0.016
9.680,0.019
9.685,0.001
9.690,0.003
9.695,0.015
9.700,0.001
9.705,-0.006
9.710,0.006
9.715,0.002
9.720,-0.012
9.725,-0.007
9.730,-0.001
9.735,-0.013
9.740,-0.012
9.745,-0.002
9.750,-0.013
9.755,-0.021
9.760,-0.006
9.765,-0.010
9.770,-0.025
9.775,-0.013
9.780,-0.007
9.785,-0.024
9.790,-0.025
9.795,-0.012
9.800,-0.021
9.805,-0.028
9.810,-0.015
9.815,-0.016
9.820,-0.028
9.825,-0.020
9.830,-0.014
9.835,-0.027
9.840,-0.024
9.845,-0.011
9.850,-0.023
9.855,-0.030
9.860,-0.016
9.865,-0.022
9.870,-0.033
9.875,-0.019
9.880,-0.013
9.885,-0.030
9.890,-0.027
9.895,-0.014
9.900,-0.026
9.905,-0.035
9.910,-0.023
9.915,-0.030
9.920,-0.048
9.925,-0.043
9.930,-0.039
9.935,-0.052
9.940,-0.056
9.945,-0.057
9.950,-0.077
9.955,-0.082
9.960,-0.066
9.965,-0.068
9.970,-0.082
9.975,-0.073
9.980,-0.055
9.985,-0.056
9.990,-0.047
9.995,-0.023
10.000,-0.009
10.005,0.004
10.010,0.025
10.015,0.021
10.020,0.008
10.025,0.023
10.030,0.031
10.035,0.018
10.040,0.025
10.045,0.040
10.050,0.028
10.055,0.022
10.060,0.039
10.065,0.035
10.070,0.020
10.075,0.032
10.080,0.035
10.085,0.015
10.090,0.018
10.095,0.029
10.100,0.015
10.105,0.008
10.110,0.024
10.115,0.030
10.120,0.028
10.125,0.031
10.130,0.002
10.135,-0.081
10.140,-0.181
10.145,-0.283
10.150,-0.334
10.155,-0.239
10.160,-0.062
10.165,0.025
10.170,0.012
10.175,0.012
10.180,0.026
10.185,0.015
10.190,0.020
10.195,0.040
10.200,0.033
10.205,0.031
10.210,0.044
10.215,0.039
10.220,0.028
10.225,0.036
10.230,0.038
10.235,0.023
10.240,0.026
10.245,0.037
10.250,0.023
10.255,0.016
10.260,0.027
10.265,0.018
10.270,0.006
10.275,0.016
10.280,0.017
10.285,0.001
10.290,0.003
10.295,0.012
10.300,-0.002
10.305,-0.008
10.310,0.004
10.315,-0.005
10.320,-0.020
10.325,-0.010
10.330,-0.008
10.335,-0.028
10.340,-0.027
10.345,-0.020
10.350,-0.038
10.355,-0.046
10.360,-0.037
10.365,-0.050
10.370,-0.066
10.375,-0.059
10.380,-0.063
10.385,-0.084
10.390,-0.084
10.395,-0.075
10.400,-0.091
10.405,-0.095
10.410,-0.077
10.415,-0.077
10.420,-0.079
10.425,-0.055
10.430,-0.036
10.435,-0.028
10.440,-0.002
10.445,0.030
10.450,0.040
10.455,0.058
10.460,0.088
10.465,0.092
10.470,0.093
10.475,0.115
10.480,0.121
10.485,0.107
10.490,0.117
10.495,0.126
10.500,0.109
10.505,0.104
10.510,0.116
10.515,0.105
10.520,0.090
10.525,0.097
10.530,0.097
10.535,0.079
10.540,0.080
10.545,0.084
10.550,0.067
10.555,0.063
10.560,0.072
10.565,0.059
10.570,0.044
10.575,0.054
10.580,0.056
10.585,0.037
10.590,0.038
10.595,0.048
10.600,0.035
10.605,0.028
10.610,0.036
10.615,0.026
10.620,0.012
10.625,0.021
10.630,0.022
10.635,0.008
10.640,0.012
10.645,0.018
10.650,0.002
10.655,-0.001
10.660,0.012
10.665,0.002
10.670,-0.010
10.675,0.002
10.680,0.003
10.685,-0.013
10.690,-0.007
10.695,0.004
10.700,-0.010
10.705,-0.015
10.710,-0.003
10.715,-0.008
10.720,-0.017
10.725,-0.006
10.730,-0.004
10.735,-0.018
10.740,-0.013
10.745,-0.003
10.750,-0.015
10.755,-0.021
10.760,-0.008
10.765,-0.012
10.770,-0.023
10.775,-0.013
10.780,-0.011
10.785,-0.027
10.790,-0.019
10.795,-0.009
10.800,-0.022
10.805,-0.025
10.810,-0.012
10.815,-0.019
10.820,-0.029
10.825,-0.014
10.830,-0.011
10.835,-0.026
10.840,-0.022
10.845,-0.012
10.850,-0.022
10.855,-0.024
10.860,-0.011
10.865,-0.018
10.870,-0.029
10.875,-0.018
10.880,-0.017
10.885,-0.031
10.890,-0.026
10.895,-0.018
10.900,-0.034
10.905,-0.039
10.910,-0.031
10.915,-0.043
10.920,-0.052
10.925,-0.041
10.930,-0.051
10.935,-0.075
10.940,-0.070
10.945,-0.057
10.950,-0.069
10.955,-0.076
10.960,-0.065
10.965,-0.061
10.970,-0.057
10.975,-0.037
10.980,-0.028
10.985,-0.026
10.990,0.004
10.995,0.030
11.000,0.023
11.005,0.018
11.010,0.031
11.015,0.029
11.020,0.022
11.025,0.036
11.030,0.042
11.035,0.031
11.040,0.038
11.045,0.045
11.050,0.030
11.055,0.028
11.060,0.042
11.065,0.033
11.070,0.021
11.075,0.031
11.080,0.031
11.085,0.014
11.090,0.019
11.095,0.027
11.100,0.024
11.105,0.039
11.110,0.051
11.115,0.017
11.120,-0.052
11.125,-0.135
11.130,-0.251
11.135,-0.351
11.140,-0.301
11.145,-0.134
11.150,-0.021
11.155,0.005
11.160,0.011
11.165,0.014
11.170,0.014
11.175,0.030
11.180,0.041
11.185,0.033
11.190,0.043
11.195,0.052
11.200,0.038
11.205,0.039
11.210,0.051
11.215,0.040
11.220,0.027
11.225,0.037
11.230,0.037
11.235,0.021
11.240,0.027
11.245,0.032
11.250,0.019
11.255,0.018
11.260,0.028
11.265,0.017
11.270,0.005
11.275,0.015
11.280,0.013
11.285,-0.002
11.290,0.005
11.295,0.011
11.300,-0.006
11.305,-0.011
11.310,0.000
11.315,-0.010
11.320,-0.023
11.325,-0.016
11.330,-0.017
11.335,-0.033
11.340,-0.032
11.345,-0.028
11.350,-0.046
11.355,-0.054
11.360,-0.048
11.365,-0.062
11.370,-0.076
11.375,-0.069
11.380,-0.073
11.385,-0.087
11.390,-0.081
11.395,-0.075
11.400,-0.088
11.405,-0.082
11.410,-0.060
11.415,-0.055
11.420,-0.046
11.425,-0.014
11.430,0.008
11.435,0.016
11.440,0.043
11.445,0.067
11.450,0.071
11.455,0.085
11.460,0.108
11.465,0.106
11.470,0.102
11.475,0.118
11.480,0.119
11.485,0.104
11.490,0.110
11.495,0.116
11.500,0.101
11.505,0.094
11.510,0.102
11.515,0.091
11.520,0.079
11.525,0.084
11.530,0.080
11.535,0.065
11.540,0.069
11.545,0.071
11.550,0.055
11.555,0.051
11.560,0.059
11.565,0.049
11.570,0.037
11.575,0.047
11.580,0.045
11.585,0.030
11.590,0.034
11.595,0.037
11.600,0.020
11.605,0.019
11.610,0.032
11.615,0.021
11.620,0.010
11.625,0.020
11.630,0.018
11.635,0.003
11.640,0.008
11.645,0.012
11.650,-0.003
11.655,-0.003
11.660,0.008
11.665,-0.002
11.670,-0.009
11.675,0.004
11.680,0.001
11.685,-0.013
11.690,-0.007
11.695,-0.001
11.700,-0.014
11.705,-0.014
11.710,-0.002
11.715,-0.011
11.720,-0.019
11.725,-0.008
11.730,-0.009
11.735,-0.022
11.740,-0.014
11.745,-0.008
11.750,-0.023
11.755,-0.023
11.760,-0.009
11.765,-0.015
11.770,-0.022
11.775,-0.011
11.780,-0.012
11.785,-0.026
11.790,-0.019
11.795,-0.011
11.800,-0.021
11.805,-0.020
11.810,-0.012
11.815,-0.022
11.820,-0.028
11.825,-0.013
11.830,-0.013
11.835,-0.028
11.840,-0.022
11.845,-0.014
11.850,-0.024
11.855,-0.023
11.860,-0.012
11.865,-0.023
11.870,-0.029
11.875,-0.015
11.880,-0.013
11.885,-0.024
11.890,-0.016
11.895,-0.011
11.900,-0.027
11.905,-0.026
11.910,-0.014
11.915,-0.021
11.920,-0.027
11.925,-0.018
11.930,-0.025
11.935,-0.042
11.940,-0.037
11.945,-0.038
11.950,-0.051
11.955,-0.047
11.960,-0.046
11.965,-0.068
11.970,-0.080
11.975,-0.063
11.980,-0.057
11.985,-0.068
11.990,-0.066
11.995,-0.060
12.000,-0.058
12.005,-0.042
12.010,-0.025
12.015,-0.026
12.020,-0.009
12.025,0.025
12.030,0.032
12.035,0.024
12.040,0.035
12.045,0.040
12.050,0.028
12.055,0.031
12.060,0.046
12.065,0.041
12.070,0.037
12.075,0.050
12.080,0.045
12.085,0.033
12.090,0.042
12.095,0.044
12.100,0.031
12.105,0.031
12.110,0.035
12.115,0.024
12.120,0.017
12.125,0.029
12.130,0.034
12.135,0.040
12.140,0.054
12.145,0.042
12.150,-0.016
12.155,-0.102
12.160,-0.210
12.165,-0.332
12.170,-0.352
12.175,-0.201
12.180,-0.039
12.185,0.008
12.190,0.007
12.195,0.019
12.200,0.024
12.205,0.026
12.210,0.041
12.215,0.041
12.220,0.039
12.225,0.053
12.230,0.053
12.235,0.041
12.240,0.047
12.245,0.048
12.250,0.032
12.255,0.035
12.260,0.044
12.265,0.030
12.270,0.021
12.275,0.033
12.280,0.031
12.285,0.016
12.290,0.022
12.295,0.025
12.300,0.008
12.305,0.007
12.310,0.016
12.315,0.004
12.320,-0.003
12.325,0.009
12.330,0.003
12.335,-0.014
12.340,-0.007
12.345,-0.004
12.350,-0.020
12.355,-0.020
12.360,-0.013
12.365,-0.029
12.370,-0.039
12.375,-0.032
12.380,-0.040
12.385,-0.056
12.390,-0.052
12.395,-0.055
12.400,-0.077
12.405,-0.077
12.410,-0.069
12.415,-0.084
12.420,-0.090
12.425,-0.080
12.430,-0.087
12.435,-0.092
12.440,-0.074
12.445,-0.058
12.450,-0.057
12.455,-0.038
12.460,-0.007
12.465,0.006
12.470,0.022
12.475,0.054
12.480,0.070
12.485,0.074
12.490,0.097
12.495,0.111
12.500,0.103
12.505,0.111
12.510,0.126
12.515,0.115
12.520,0.108
12.525,0.119
12.530,0.110
12.535,0.095
12.540,0.102
12.545,0.102
12.550,0.083
12.555,0.080
12.560,0.087
12.565,0.074
12.570,0.064
12.575,0.073
12.580,0.067
12.585,0.053
12.590,0.058
12.595,0.059
12.600,0.043
12.605,0.044
12.610,0.051
12.615,0.034
12.620,0.026
12.625,0.039
12.630,0.033
12.635,0.019
12.640,0.025
12.645,0.025
12.650,0.011
12.655,0.015
12.660,0.022
12.665,0.008
12.670,0.004
12.675,0.014
12.680,0.005
12.685,-0.005
12.690,0.007
12.695,0.009
12.700,-0.007
12.705,-0.004
12.710,0.003
12.715,-0.008
12.720,-0.011
12.725,0.000
12.730,-0.007
12.735,-0.016
12.740,-0.005
12.745,-0.003
12.750,-0.015
12.755,-0.013
12.760,-0.009
12.765,-0.015
12.770,-0.015
12.775,-0.008
12.780,-0.012
12.785,-0.022
12.790,-0.012
12.795,-0.010
12.800,-0.024
12.805,-0.020
12.810,-0.011
12.815,-0.024
12.820,-0.028
12.825,-0.013
12.830,-0.019
12.835,-0.030
12.840,-0.020
12.845,-0.018
12.850,-0.029
12.855,-0.022
12.860,-0.012
12.865,-0.023
12.870,-0.026
12.875,-0.013
12.880,-0.020
12.885,-0.033
12.890,-0.021
12.895,-0.016
12.900,-0.028
12.905,-0.024
12.910,-0.013
12.915,-0.024
12.920,-0.030
12.925,-0.016
12.930,-0.019
12.935,-0.029
12.940,-0.016
12.945,-0.012
12.950,-0.027
12.955,-0.024
12.960,-0.015
12.965,-0.030
12.970,-0.039
12.975,-0.031
12.980,-0.044
12.985,-0.055
12.990,-0.040
12.995,-0.043
13.000,-0.068
13.005,-0.070
13.010,-0.061
13.015,-0.068
13.020,-0.070
13.025,-0.063
13.030,-0.069
13.035,-0.067
13.040,-0.039
13.045,-0.027
13.050,-0.034
13.055,-0.009
13.060,0.024
13.065,0.024
13.070,0.027
13.075,0.043
13.080,0.035
13.085,0.025
13.090,0.040
13.095,0.046
13.100,0.038
13.105,0.045
13.110,0.053
13.115,0.042
13.120,0.040
13.125,0.051
13.130,0.042
13.135,0.029
13.140,0.038
13.145,0.039
13.150,0.024
13.155,0.027
13.160,0.034
13.165,0.020
13.170,0.028
13.175,0.057
13.180,0.046
13.185,0.001
13.190,-0.056
13.195,-0.165
13.200,-0.309
13.205,-0.380
13.210,-0.298
13.215,-0.128
13.220,-0.004
13.225,0.028
13.230,0.014
13.235,0.019
13.240,0.039
13.245,0.040
13.250,0.035
13.255,0.044
13.260,0.056
13.265,0.049
13.270,0.044
13.275,0.054
13.280,0.048
13.285,0.035
13.290,0.043
13.295,0.044
13.300,0.030
13.305,0.032
13.310,0.038
13.315,0.025
13.320,0.019
13.325,0.030
13.330,0.024
13.335,0.011
13.340,0.018
13.345,0.016
13.350,-0.001
13.355,0.002
13.360,0.011
13.365,0.000
13.370,-0.006
13.375,0.001
13.380,-0.009
13.385,-0.021
13.390,-0.015
13.395,-0.016
13.400,-0.028
13.405,-0.030
13.410,-0.031
13.415,-0.049
13.420,-0.055
13.425,-0.047
13.430,-0.061
13.435,-0.081
13.440,-0.078
13.445,-0.078
13.450,-0.092
13.455,-0.091
13.460,-0.085
13.465,-0.095
13.470,-0.096
13.475,-0.080
13.480,-0.077
13.485,-0.069
13.490,-0.037
13.495,-0.018
13.500,-0.010
13.505,0.019
13.510,0.052
13.515,0.062
13.520,0.078
13.525,0.106
13.530,0.109
13.535,0.106
13.540,0.125
13.545,0.131
13.550,0.118
13.555,0.122
13.560,0.127
13.565,0.113
13.570,0.109
13.575,0.116
13.580,0.104
13.585,0.090
13.590,0.096
13.595,0.092
13.600,0.075
13.605,0.077
13.610,0.080
13.615,0.062
13.620,0.062
13.625,0.071
13.630,0.058
13.635,0.048
13.640,0.055
13.645,0.049
13.650,0.035
13.655,0.042
13.660,0.044
13.665,0.026
13.670,0.025
13.675,0.035
13.680,0.023
13.685,0.012
13.690,0.022
13.695,0.021
13.700,0.006
13.705,0.011
13.710,0.020
13.715,0.004
13.720,-0.003
13.725,0.009
13.730,0.000
13.735,-0.012
13.740,0.002
13.745,0.002
13.750,-0.014
13.755,-0.007
13.760,-0.001
13.765,-0.014
13.770,-0.015
13.775,-0.004
13.780,-0.012
13.785,-0.018
13.790,-0.007
13.795,-0.011
13.800,-0.024
13.805,-0.014
13.810,-0.008
13.815,-0.023
13.820,-0.025
13.825,-0.011
13.830,-0.018
13.835,-0.028
13.840,-0.016
13.845,-0.014
13.850,-0.030
13.855,-0.025
13.860,-0.015
13.865,-0.027
13.870,-0.028
13.875,-0.015
13.880,-0.021
13.885,-0.027
13.890,-0.016
13.895,-0.019
13.900,-0.032
13.905,-0.024
13.910,-0.020
13.915,-0.033
13.920,-0.030
13.925,-0.015
13.930,-0.023
13.935,-0.032
13.940,-0.017
13.945,-0.018
13.950,-0.034
13.955,-0.027
13.960,-0.022
13.965,-0.038
13.970,-0.039
13.975,-0.032
13.980,-0.049
13.985,-0.056
13.990,-0.039
13.995,-0.052
14.000,-0.081
14.005,-0.075
14.010,-0.064
14.015,-0.073
14.020,-0.071
14.025,-0.062
14.030,-0.065
14.035,-0.059
14.040,-0.037
14.045,-0.030
14.050,-0.023
14.055,0.008
14.060,0.030
14.065,0.021
14.070,0.017
14.075,0.028
14.080,0.024
14.085,0.021
14.090,0.035
14.095,0.035
14.100,0.026
14.105,0.038
14.110,0.043
14.115,0.029
14.120,0.031
14.125,0.042
14.130,0.029
14.135,0.017
14.140,0.029
14.145,0.026
14.150,0.010
14.155,0.018
14.160,0.025
14.165,0.021
14.170,0.033
14.175,0.041
14.180,0.005
14.185,-0.063
14.190,-0.147
14.195,-0.263
14.200,-0.339
14.205,-0.260
14.210,-0.094
14.215,0.006
14.220,0.029
14.225,0.029
14.230,0.022
14.235,0.017
14.240,0.027
14.245,0.033
14.250,0.027
14.255,0.036
14.260,0.040
14.265,0.030
14.270,0.033
14.275,0.041
14.280,0.031
14.285,0.022
14.290,0.032
14.295,0.028
14.300,0.014
14.305,0.024
14.310,0.028
14.315,0.011
14.320,0.011
14.325,0.022
14.330,0.008
14.335,-0.001
14.340,0.012
14.345,0.008
14.350,-0.007
14.355,-0.001
14.360,0.003
14.365,-0.012
14.370,-0.014
14.375,-0.008
14.380,-0.018
14.385,-0.026
14.390,-0.017
14.395,-0.022
14.400,-0.039
14.405,-0.037
14.410,-0.035
14.415,-0.052
14.420,-0.057
14.425,-0.051
14.430,-0.067
14.435,-0.079
14.440,-0.068
14.445,-0.075
14.450,-0.092
14.455,-0.080
14.460,-0.071
14.465,-0.086
14.470,-0.077
14.475,-0.053
14.480,-0.052
14.485,-0.044
14.490,-0.009
14.495,0.011
14.500,0.018
14.505,0.049
14.510,0.074
14.515,0.077
14.520,0.091
14.525,0.111
14.530,0.109
14.535,0.108
14.540,0.124
14.545,0.123
14.550,0.109
14.555,0.115
14.560,0.120
14.565,0.102
14.570,0.099
14.575,0.109
14.580,0.093
14.585,0.081
14.590,0.091
14.595,0.085
14.600,0.068
14.605,0.073
14.610,0.076
14.615,0.056
14.620,0.053
14.625,0.064
14.630,0.051
14.635,0.042
14.640,0.052
14.645,0.045
14.650,0.028
14.655,0.034
14.660,0.036
14.665,0.017
14.670,0.018
14.675,0.029
14.680,0.015
14.685,0.007
14.690,0.019
14.695,0.013
14.700,-0.001
14.705,0.006
14.710,0.009
14.715,-0.006
14.720,-0.001
14.725,0.008
14.730,-0.006
14.735,-0.011
14.740,0.001
14.745,-0.003
14.750,-0.014
14.755,-0.005
14.760,-0.001
14.765,-0.017
14.770,-0.015
14.775,0.000
14.780,-0.013
14.785,-0.021
14.790,-0.006
14.795,-0.008
14.800,-0.020
14.805,-0.011
14.810,-0.008
14.815,-0.024
14.820,-0.021
14.825,-0.009
14.830,-0.019
14.835,-0.025
14.840,-0.011
14.845,-0.015
14.850,-0.028
14.855,-0.018
14.860,-0.010
14.865,-0.025
14.870,-0.025
14.875,-0.013
14.880,-0.024
14.885,-0.028
14.890,-0.011
14.895,-0.017
14.900,-0.032
14.905,-0.022
14.910,-0.016
14.915,-0.029
14.920,-0.024
14.925,-0.010
14.930,-0.022
14.935,-0.029
14.940,-0.016
14.945,-0.021
14.950,-0.032
14.955,-0.023
14.960,-0.024
14.965,-0.043
14.970,-0.044
14.975,-0.037
14.980,-0.045
14.985,-0.049
14.990,-0.048
14.995,-0.065
15.000,-0.078
15.005,-0.061
15.010,-0.055
15.015,-0.076
15.020,-0.077
15.025,-0.054
15.030,-0.049
15.035,-0.048
15.040,-0.027
15.045,-0.015
15.050,-0.004
15.055,0.026
15.060,0.035
15.065,0.018
15.070,0.024
15.075,0.039
15.080,0.028
15.085,0.025
15.090,0.042
15.095,0.040
15.100,0.030
15.105,0.040
15.110,0.044
15.115,0.030
15.120,0.032
15.125,0.040
15.130,0.026
15.135,0.019
15.140,0.033
15.145,0.027
15.150,0.013
15.155,0.027
15.160,0.043
15.165,0.040
15.170,0.037
15.175,0.017
15.180,-0.063
15.185,-0.172
15.190,-0.275
15.195,-0.340
15.200,-0.270
15.205,-0.090
15.210,0.016
15.215,0.006
15.220,0.002
15.225,0.030
15.230,0.028
15.235,0.024
15.240,0.043
15.245,0.043
15.250,0.035
15.255,0.050
15.260,0.053
15.265,0.032
15.270,0.035
15.275,0.048
15.280,0.034
15.285,0.026
15.290,0.038
15.295,0.031
15.300,0.018
15.305,0.027
15.310,0.028
15.315,0.013
15.320,0.015
15.325,0.022
15.330,0.010
15.335,0.006
15.340,0.015
15.345,0.005
15.350,-0.007
15.355,0.007
15.360,0.005
15.365,-0.016
15.370,-0.012
15.375,-0.003
15.380,-0.018
15.385,-0.026
15.390,-0.016
15.395,-0.025
15.400,-0.040
15.405,-0.033
15.410,-0.034
15.415,-0.055
15.420,-0.056
15.425,-0.050
15.430,-0.068
15.435,-0.077
15.440,-0.069
15.445,-0.077
15.450,-0.089
15.455,-0.078
15.460,-0.073
15.465,-0.082
15.470,-0.068
15.475,-0.043
15.480,-0.041
15.485,-0.030
15.490,0.005
15.495,0.021
15.500,0.031
15.505,0.063
15.510,0.080
15.515,0.078
15.520,0.095
15.525,0.111
15.530,0.105
15.535,0.106
15.540,0.121
15.545,0.116
15.550,0.103
15.555,0.110
15.560,0.110
15.565,0.093
15.570,0.094
15.575,0.099
15.580,0.081
15.585,0.072
15.590,0.083
15.595,0.074
15.600,0.060
15.605,0.069
15.610,0.067
15.615,0.047
15.620,0.050
15.625,0.061
15.630,0.045
15.635,0.036
15.640,0.043
15.645,0.034
15.650,0.022
15.655,0.030
15.660,0.032
15.665,0.015
15.670,0.016
15.675,0.023
15.680,0.009
15.685,0.005
15.690,0.018
15.695,0.009
15.700,-0.006
15.705,0.006
15.710,0.010
15.715,-0.004
15.720,-0.002
15.725,0.006
15.730,-0.005
15.735,-0.010
15.740,0.001
15.745,-0.004
15.750,-0.017
15.755,-0.006
15.760,-0.002
15.765,-0.017
15.770,-0.012
15.775,-0.001
15.780,-0.016
15.785,-0.019
15.790,-0.004
15.795,-0.010
15.800,-0.022
15.805,-0.012
15.810,-0.012
15.815,-0.024
15.820,-0.017
15.825,-0.008
15.830,-0.020
15.835,-0.023
15.840,-0.009
15.845,-0.016
15.850,-0.029
15.855,-0.016
15.860,-0.010
15.865,-0.026
15.870,-0.023
15.875,-0.012
15.880,-0.024
15.885,-0.027
15.890,-0.014
15.895,-0.019
15.900,-0.028
15.905,-0.018
15.910,-0.015
15.915,-0.028
15.920,-0.022
15.925,-0.011
15.930,-0.024
15.935,-0.025
15.940,-0.012
15.945,-0.021
15.950,-0.030
15.955,-0.018
15.960,-0.018
15.965,-0.035
15.970,-0.034
15.975,-0.031
15.980,-0.053
15.985,-0.057
15.990,-0.037
15.995,-0.050
16.000,-0.075
16.005,-0.069
16.010,-0.064
16.015,-0.071
16.020,-0.065
16.025,-0.060
16.030,-0.074
16.035,-0.062
16.040,-0.033
16.045,-0.033
16.050,-0.032
16.055,0.000
16.060,0.020
16.065,0.018
16.070,0.029
16.075,0.041
16.080,0.031
16.085,0.029
16.090,0.042
16.095,0.037
16.100,0.030
16.105,0.045
16.110,0.047
16.115,0.031
16.120,0.039
16.125,0.049
16.130,0.032
16.135,0.028
16.140,0.039
16.145,0.029
16.150,0.018
16.155,0.031
16.160,0.031
16.165,0.022
16.170,0.045
16.175,0.057
16.180,0.023
16.185,-0.026
16.190,-0.101
16.195,-0.230
16.200,-0.349
16.205,-0.331
16.210,-0.181
16.215,-0.039
16.220,0.021
16.225,0.019
16.230,0.009
16.235,0.021
16.240,0.036
16.245,0.036
16.250,0.036
16.255,0.049
16.260,0.050
16.265,0.038
16.270,0.044
16.275,0.051
16.280,0.037
16.285,0.032
16.290,0.046
16.295,0.037
16.300,0.023
16.305,0.032
16.310,0.031
16.315,0.014
16.320,0.019
16.325,0.028
16.330,0.012
16.335,0.007
16.340,0.020
16.345,0.009
16.350,-0.003
16.355,0.011
16.360,0.006
16.365,-0.014
16.370,-0.007
16.375,0.000
16.380,-0.015
16.385,-0.020
16.390,-0.011
16.395,-0.021
16.400,-0.035
16.405,-0.028
16.410,-0.032
16.415,-0.049
16.420,-0.047
16.425,-0.045
16.430,-0.064
16.435,-0.071
16.440,-0.063
16.445,-0.075
16.450,-0.089
16.455,-0.079
16.460,-0.081
16.465,-0.094
16.470,-0.081
16.475,-0.066
16.480,-0.070
16.485,-0.054
16.490,-0.024
16.495,-0.018
16.500,-0.006
16.505,0.032
16.510,0.052
16.515,0.054
16.520,0.079
16.525,0.101
16.530,0.097
16.535,0.104
16.540,0.123
16.545,0.118
16.550,0.107
16.555,0.118
16.560,0.117
16.565,0.100
16.570,0.103
16.575,0.109
16.580,0.091
16.585,0.087
16.590,0.098
16.595,0.081
16.600,0.065
16.605,0.079
16.610,0.076
16.615,0.055
16.620,0.060
16.625,0.064
16.630,0.046
16.635,0.044
16.640,0.054
16.645,0.040
16.650,0.029
16.655,0.040
16.660,0.036
16.665,0.019
16.670,0.027
16.675,0.033
16.680,0.015
16.685,0.013
16.690,0.025
16.695,0.012
16.700,0.002
16.705,0.018
16.710,0.013
16.715,-0.006
16.720,0.003
16.725,0.012
16.730,-0.006
16.735,-0.007
16.740,0.008
16.745,-0.003
16.750,-0.016
16.755,0.000
16.760,0.001
16.765,-0.015
16.770,-0.009
16.775,0.000
16.780,-0.015
16.785,-0.018
16.790,-0.003
16.795,-0.011
16.800,-0.022
16.805,-0.010
16.810,-0.011
16.815,-0.026
16.820,-0.018
16.825,-0.006
16.830,-0.018
16.835,-0.021
16.840,-0.013
16.845,-0.024
16.850,-0.027
16.855,-0.011
16.860,-0.013
16.865,-0.028
16.870,-0.021
16.875,-0.013
16.880,-0.027
16.885,-0.029
16.890,-0.013
16.895,-0.020
16.900,-0.028
16.905,-0.014
16.910,-0.016
16.915,-0.031
16.920,-0.022
16.925,-0.013
16.930,-0.026
16.935,-0.025
16.940,-0.010
16.945,-0.019
16.950,-0.029
16.955,-0.014
16.960,-0.015
16.965,-0.032
16.970,-0.028
16.975,-0.024
16.980,-0.041
16.985,-0.046
16.990,-0.041
16.995,-0.051
17.000,-0.055
17.005,-0.049
17.010,-0.067
17.015,-0.085
17.020,-0.069
17.025,-0.058
17.030,-0.075
17.035,-0.078
17.040,-0.061
17.045,-0.055
17.050,-0.049
17.055,-0.031
17.060,-0.019
17.065,-0.007
17.070,0.022
17.075,0.038
17.080,0.027
17.085,0.025
17.090,0.040
17.095,0.035
17.100,0.028
17.105,0.042
17.110,0.045
17.115,0.036
17.120,0.044
17.125,0.048
17.130,0.033
17.135,0.032
17.140,0.042
17.145,0.032
17.150,0.022
17.155,0.035
17.160,0.031
17.165,0.014
17.170,0.023
17.175,0.042
17.180,0.040
17.185,0.036
17.190,0.021
17.195,-0.054
17.200,-0.166
17.205,-0.278
17.210,-0.362
17.215,-0.310
17.220,-0.127
17.225,0.005
17.230,0.021
17.235,0.016
17.240,0.034
17.245,0.030
17.250,0.022
17.255,0.044
17.260,0.048
17.265,0.036
17.270,0.046
17.275,0.051
17.280,0.037
17.285,0.039
17.290,0.052
17.295,0.037
17.300,0.027
17.305,0.039
17.310,0.033
17.315,0.016
17.320,0.026
17.325,0.033
17.330,0.015
17.335,0.015
17.340,0.026
17.345,0.013
17.350,0.003
17.355,0.011
17.360,0.007
17.365,-0.006
17.370,0.002
17.375,0.003
17.380,-0.017
17.385,-0.017
17.390,-0.004
17.395,-0.016
17.400,-0.028
17.405,-0.019
17.410,-0.023
17.415,-0.045
17.420,-0.042
17.425,-0.038
17.430,-0.061
17.435,-0.068
17.440,-0.061
17.445,-0.075
17.450,-0.088
17.455,-0.077
17.460,-0.082
17.465,-0.097
17.470,-0.084
17.475,-0.076
17.480,-0.086
17.485,-0.076
17.490,-0.051
17.495,-0.043
17.500,-0.031
17.505,0.004
17.510,0.025
17.515,0.032
17.520,0.061
17.525,0.085
17.530,0.085
17.535,0.099
17.540,0.121
17.545,0.119
17.550,0.113
17.555,0.128
17.560,0.128
17.565,0.110
17.570,0.116
17.575,0.123
17.580,0.105
17.585,0.099
17.590,0.110
17.595,0.095
17.600,0.081
17.605,0.090
17.610,0.083
17.615,0.067
17.620,0.073
17.625,0.075
17.630,0.056
17.635,0.055
17.640,0.064
17.645,0.048
17.650,0.037
17.655,0.050
17.660,0.045
17.665,0.027
17.670,0.033
17.675,0.037
17.680,0.020
17.685,0.018
17.690,0.028
17.695,0.015
17.700,0.002
17.705,0.013
17.710,0.012
17.715,-0.001
17.720,0.006
17.725,0.010
17.730,-0.005
17.735,-0.002
17.740,0.007
17.745,-0.007
17.750,-0.014
17.755,0.000
17.760,-0.002
17.765,-0.016
17.770,-0.009
17.775,-0.003
17.780,-0.015
17.785,-0.015
17.790,-0.005
17.795,-0.013
17.800,-0.018
17.805,-0.007
17.810,-0.013
17.815,-0.024
17.820,-0.013
17.825,-0.009
17.830,-0.024
17.835,-0.021
17.840,-0.008
17.845,-0.019
17.850,-0.026
17.855,-0.013
17.860,-0.017
17.865,-0.031
17.870,-0.019
17.875,-0.013
17.880,-0.029
17.885,-0.025
17.890,-0.012
17.895,-0.025
17.900,-0.031
17.905,-0.014
17.910,-0.019
17.915,-0.035
17.920,-0.024
17.925,-0.016
17.930,-0.028
17.935,-0.031
17.940,-0.025
17.945,-0.038
17.950,-0.050
17.955,-0.040
17.960,-0.042
17.965,-0.054
17.970,-0.051
17.975,-0.060
17.980,-0.081
17.985,-0.075
17.990,-0.058
17.995,-0.072
18.000,-0.085
18.005,-0.062
18.010,-0.047
18.015,-0.051
18.020,-0.036
18.025,-0.012
18.030,-0.002
18.035,0.011
18.040,0.028
18.045,0.020
18.050,0.013
18.055,0.029
18.060,0.028
18.065,0.017
18.070,0.032
18.075,0.038
18.080,0.023
18.085,0.029
18.090,0.041
18.095,0.026
18.100,0.021
18.105,0.032
18.110,0.023
18.115,0.008
18.120,0.020
18.125,0.025
18.130,0.007
18.135,0.010
18.140,0.032
18.145,0.032
18.150,0.018
18.155,-0.001
18.160,-0.072
18.165,-0.187
18.170,-0.284
18.175,-0.310
18.180,-0.224
18.185,-0.067
18.190,0.037
18.195,0.030
18.200,0.007
18.205,0.026
18.210,0.022
18.215,0.009
18.220,0.030
18.225,0.037
18.230,0.020
18.235,0.027
18.240,0.042
18.245,0.028
18.250,0.021
18.255,0.035
18.260,0.028
18.265,0.013
18.270,0.025
18.275,0.026
18.280,0.007
18.285,0.012
18.290,0.025
18.295,0.010
18.300,0.001
18.305,0.016
18.310,0.011
18.315,-0.005
18.320,0.004
18.325,0.005
18.330,-0.013
18.335,-0.011
18.340,-0.001
18.345,-0.014
18.350,-0.023
18.355,-0.012
18.360,-0.019
18.365,-0.033
18.370,-0.026
18.375,-0.028
18.380,-0.046
18.385,-0.044
18.390,-0.037
18.395,-0.058
18.400,-0.070
18.405,-0.057
18.410,-0.064
18.415,-0.086
18.420,-0.081
18.425,-0.075
18.430,-0.088
18.435,-0.084
18.440,-0.068
18.445,-0.073
18.450,-0.070
18.455,-0.041
18.460,-0.029
18.465,-0.024
18.470,0.008
18.475,0.033
18.480,0.039
18.485,0.064
18.490,0.090
18.495,0.091
18.500,0.099
18.505,0.121
18.510,0.116
18.515,0.106
18.520,0.121
18.525,0.124
18.530,0.106
18.535,0.108
18.540,0.117
18.545,0.101
18.550,0.092
18.555,0.102
18.560,0.093
18.565,0.077
18.570,0.084
18.575,0.084
18.580,0.067
18.585,0.068
18.590,0.075
18.595,0.057
18.600,0.046
18.605,0.057
18.610,0.051
18.615,0.033
18.620,0.041
18.625,0.043
18.630,0.023
18.635,0.026
18.640,0.038
18.645,0.021
18.650,0.010
18.655,0.023
18.660,0.017
18.665,0.004
18.670,0.013
18.675,0.015
18.680,0.002
18.685,0.003
18.690,0.011
18.695,0.000
18.700,-0.004
18.705,0.007
18.710,0.000
18.715,-0.011
18.720,0.000
18.725,0.002
18.730,-0.013
18.735,-0.011
18.740,0.001
18.745,-0.008
18.750,-0.015
18.755,-0.001
18.760,-0.006
18.765,-0.019
18.770,-0.006
18.775,-0.003
18.780,-0.019
18.785,-0.015
18.790,-0.008
18.795,-0.018
18.800,-0.020
18.805,-0.010
18.810,-0.015
18.815,-0.024
18.820,-0.014
18.825,-0.013
18.830,-0.026
18.835,-0.021
18.840,-0.008
18.845,-0.020
18.850,-0.027
18.855,-0.012
18.860,-0.017
18.865,-0.030
18.870,-0.017
18.875,-0.012
18.880,-0.027
18.885,-0.023
18.890,-0.012
18.895,-0.025
18.900,-0.028
18.905,-0.015
18.910,-0.024
18.915,-0.039
18.920,-0.030
18.925,-0.033
18.930,-0.054
18.935,-0.047
18.940,-0.036
18.945,-0.061
18.950,-0.079
18.955,-0.067
18.960,-0.065
18.965,-0.071
18.970,-0.066
18.975,-0.067
18.980,-0.074
18.985,-0.053
18.990,-0.031
18.995,-0.040
19.000,-0.030
19.005,0.009
19.010,0.021
19.015,0.017
19.020,0.029
19.025,0.030
19.030,0.019
19.035,0.029
19.040,0.040
19.045,0.031
19.050,0.032
19.055,0.043
19.060,0.035
19.065,0.028
19.070,0.040
19.075,0.041
19.080,0.024
19.085,0.026
19.090,0.035
19.095,0.020
19.100,0.014
19.105,0.028
19.110,0.023
19.115,0.023
19.120,0.049
19.125,0.047
19.130,0.000
19.135,-0.067
19.140,-0.165
19.145,-0.292
19.150,-0.348
19.155,-0.246
19.160,-0.085
19.165,0.003
19.170,0.019
19.175,0.012
19.180,0.011
19.185,0.022
19.190,0.035
19.195,0.033
19.200,0.034
19.205,0.049
19.210,0.045
19.215,0.034
19.220,0.048
19.225,0.050
19.230,0.030
19.235,0.032
19.240,0.042
19.245,0.027
19.250,0.018
19.255,0.032
19.260,0.028
19.265,0.014
19.270,0.023
19.275,0.022
19.280,0.003
19.285,0.007
19.290,0.017
19.295,0.002
19.300,-0.003
19.305,0.010
19.310,0.001
19.315,-0.012
19.320,-0.002
19.325,-0.005
19.330,-0.023
19.335,-0.018
19.340,-0.009
19.345,-0.026
19.350,-0.034
19.355,-0.025
19.360,-0.036
19.365,-0.053
19.370,-0.046
19.375,-0.049
19.380,-0.066
19.385,-0.066
19.390,-0.063
19.395,-0.077
19.400,-0.081
19.405,-0.070
19.410,-0.078
19.415,-0.087
19.420,-0.070
19.425,-0.059
19.430,-0.060
19.435,-0.040
19.440,-0.015
19.445,-0.009
19.450,0.012
19.455,0.046
19.460,0.055
19.465,0.061
19.470,0.088
19.475,0.101
19.480,0.096
19.485,0.107
19.490,0.122
19.495,0.112
19.500,0.104
19.505,0.116
19.510,0.109
19.515,0.095
19.520,0.102
19.525,0.099
19.530,0.081
19.535,0.084
19.540,0.091
19.545,0.074
19.550,0.067
19.555,0.076
19.560,0.066
19.565,0.052
19.570,0.061
19.575,0.058
19.580,0.041
19.585,0.045
19.590,0.050
19.595,0.035
19.600,0.032
19.605,0.043
19.610,0.031
19.615,0.015
19.620,0.023
19.625,0.024
19.630,0.009
19.635,0.014
19.640,0.021
19.645,0.007
19.650,0.002
19.655,0.014
19.660,0.006
19.665,-0.006
19.670,0.005
19.675,0.006
19.680,-0.009
19.685,-0.002
19.690,0.008
19.695,-0.006
19.700,-0.010
19.705,0.001
19.710,-0.008
19.715,-0.016
19.720,-0.003
19.725,-0.003
19.730,-0.018
19.735,-0.011
19.740,-0.003
19.745,-0.016
19.750,-0.017
19.755,-0.005
19.760,-0.015
19.765,-0.024
19.770,-0.008
19.775,-0.008
19.780,-0.026
19.785,-0.016
19.790,-0.005
19.795,-0.021
19.800,-0.023
19.805,-0.010
19.810,-0.022
19.815,-0.031
19.820,-0.015
19.825,-0.013
19.830,-0.028
19.835,-0.023
19.840,-0.013
19.845,-0.025
19.850,-0.025
19.855,-0.013
19.860,-0.022
19.865,-0.028
19.870,-0.016
19.875,-0.017
19.880,-0.029
19.885,-0.020
19.890,-0.011
19.895,-0.028
19.900,-0.033
19.905,-0.025
19.910,-0.038
19.915,-0.053
19.920,-0.045
19.925,-0.044
19.930,-0.057
19.935,-0.061
19.940,-0.064
19.945,-0.081
19.950,-0.077
19.955,-0.058
19.960,-0.068
19.965,-0.083
19.970,-0.066
19.975,-0.048
19.980,-0.050
19.985,-0.039
19.990,-0.019
19.995,-0.008
20.000,0.012
20.005,0.035
20.010,0.029
20.015,0.019
20.020,0.033
20.025,0.039
20.030,0.029
20.035,0.038
20.040,0.048
20.045,0.037
20.050,0.035
20.055,0.047
20.060,0.039
20.065,0.029
20.070,0.039
20.075,0.039
20.080,0.024
20.085,0.026
20.090,0.034
20.095,0.020
20.100,0.017
20.105,0.042
20.110,0.048
20.115,0.037
20.120,0.023
20.125,-0.045
20.130,-0.164
20.135,-0.278
20.140,-0.350
20.145,-0.301
20.150,-0.127
20.155,0.013
20.160,0.023
20.165,0.001
20.170,0.024
20.175,0.032
20.180,0.020
20.185,0.037
20.190,0.050
20.195,0.037
20.200,0.040
20.205,0.052
20.210,0.042
20.215,0.036
20.220,0.046
20.225,0.039
20.230,0.024
20.235,0.031
20.240,0.037
20.245,0.023
20.250,0.021
20.255,0.030
20.260,0.019
20.265,0.009
20.270,0.020
20.275,0.017
20.280,0.001
20.285,0.006
20.290,0.012
20.295,-0.003
20.300,-0.006
20.305,0.004
20.310,-0.005
20.315,-0.015
20.320,-0.008
20.325,-0.013
20.330,-0.029
20.335,-0.024
20.340,-0.020
20.345,-0.036
20.350,-0.041
20.355,-0.035
20.360,-0.050
20.365,-0.064
20.370,-0.058
20.375,-0.062
20.380,-0.080
20.385,-0.078
20.390,-0.073
20.395,-0.089
20.400,-0.087
20.405,-0.070
20.410,-0.079
20.415,-0.082
20.420,-0.056
20.425,-0.041
20.430,-0.035
20.435,-0.007
20.440,0.022
20.445,0.029
20.450,0.047
20.455,0.078
20.460,0.084
20.465,0.088
20.470,0.110
20.475,0.116
20.480,0.106
20.485,0.117
20.490,0.126
20.495,0.112
20.500,0.110
20.505,0.118
20.510,0.104
20.515,0.093
20.520,0.102
20.525,0.094
20.530,0.077
20.535,0.082
20.540,0.085
20.545,0.066
20.550,0.062
20.555,0.072
20.560,0.059
20.565,0.049
20.570,0.058
20.575,0.052
20.580,0.037
20.585,0.043
20.590,0.046
20.595,0.027
20.600,0.025
20.605,0.037
20.610,0.026
20.615,0.015
20.620,0.025
20.625,0.020
20.630,0.005
20.635,0.012
20.640,0.017
20.645,0.001
20.650,-0.001
20.655,0.011
20.660,0.000
20.665,-0.008
20.670,0.006
20.675,0.003
20.680,-0.012
20.685,-0.005
20.690,0.002
20.695,-0.011
20.700,-0.011
20.705,0.001
20.710,-0.010
20.715,-0.019
20.720,-0.004
20.725,-0.007
20.730,-0.021
20.735,-0.011
20.740,-0.002
20.745,-0.018
20.750,-0.020
20.755,-0.006
20.760,-0.017
20.765,-0.026
20.770,-0.012
20.775,-0.015
20.780,-0.029
20.785,-0.016
20.790,-0.010
20.795,-0.026
20.800,-0.024
20.805,-0.012
20.810,-0.023
20.815,-0.028
20.820,-0.014
20.825,-0.018
20.830,-0.032
20.835,-0.021
20.840,-0.011
20.845,-0.024
20.850,-0.024
20.855,-0.009
20.860,-0.021
20.865,-0.031
20.870,-0.015
20.875,-0.017
20.880,-0.033
20.885,-0.026
20.890,-0.022
20.895,-0.040
20.900,-0.042
20.905,-0.038
20.910,-0.054
20.915,-0.058
20.920,-0.047
20.925,-0.063
20.930,-0.087
20.935,-0.079
20.940,-0.066
20.945,-0.075
20.950,-0.075
20.955,-0.066
20.960,-0.065
20.965,-0.057
20.970,-0.035
20.975,-0.029
20.980,-0.026
20.985,0.006
20.990,0.032
20.995,0.025
21.000,0.029
21.005,0.041
21.010,0.032
21.015,0.028
21.020,0.044
21.025,0.041
21.030,0.030
21.035,0.046
21.040,0.053
21.045,0.037
21.050,0.036
21.055,0.044
21.060,0.033
21.065,0.027
21.070,0.039
21.075,0.034
21.080,0.015
21.085,0.023
21.090,0.036
21.095,0.034
21.100,0.044
21.105,0.045
21.110,-0.007
21.115,-0.100
21.120,-0.209
21.125,-0.325
21.130,-0.358
21.135,-0.225
21.140,-0.050
21.145,0.019
21.150,0.015
21.155,0.020
21.160,0.023
21.165,0.020
21.170,0.037
21.175,0.043
21.180,0.035
21.185,0.045
21.190,0.052
21.195,0.037
21.200,0.038
21.205,0.048
21.210,0.035
21.215,0.027
21.220,0.038
21.225,0.031
21.230,0.016
21.235,0.025
21.240,0.029
21.245,0.012
21.250,0.012
21.255,0.023
21.260,0.010
21.265,0.002
21.270,0.013
21.275,0.006
21.280,-0.010
21.285,0.000
21.290,0.006
21.295,-0.011
21.300,-0.010
21.305,-0.004
21.310,-0.020
21.315,-0.029
21.320,-0.018
21.325,-0.025
21.330,-0.041
21.335,-0.034
21.340,-0.036
21.345,-0.058
21.350,-0.060
21.355,-0.053
21.360,-0.070
21.365,-0.081
21.370,-0.075
21.375,-0.083
21.380,-0.098
21.385,-0.089
21.390,-0.081
21.395,-0.088
21.400,-0.079
21.405,-0.061
21.410,-0.059
21.415,-0.047
21.420,-0.015
21.425,0.002
21.430,0.012
21.435,0.045
21.440,0.071
21.445,0.073
21.450,0.091
21.455,0.115
21.460,0.113
21.465,0.113
21.470,0.127
21.475,0.122
21.480,0.113
21.485,0.126
21.490,0.126
21.495,0.105
21.500,0.104
21.505,0.112
21.510,0.096
21.515,0.085
21.520,0.092
21.525,0.086
21.530,0.072
21.535,0.077
21.540,0.076
21.545,0.059
21.550,0.060
21.555,0.069
21.560,0.050
21.565,0.040
21.570,0.052
21.575,0.045
21.580,0.031
21.585,0.038
21.590,0.040
21.595,0.022
21.600,0.021
21.605,0.029
21.610,0.015
21.615,0.008
21.620,0.019
21.625,0.016
21.630,0.005
21.635,0.015
21.640,0.015
21.645,-0.004
21.650,-0.002
21.655,0.009
21.660,-0.002
21.665,-0.008
21.670,0.004
21.675,-0.003
21.680,-0.015
21.685,-0.002
21.690,0.002
21.695,-0.017
21.700,-0.014
21.705,-0.001
21.710,-0.014
21.715,-0.020
21.720,-0.004
21.725,-0.009
21.730,-0.024
21.735,-0.012
21.740,-0.007
21.745,-0.022
21.750,-0.020
21.755,-0.009
21.760,-0.019
21.765,-0.024
21.770,-0.011
21.775,-0.015
21.780,-0.026
21.785,-0.018
21.790,-0.015
21.795,-0.029
21.800,-0.025
21.805,-0.012
21.810,-0.021
21.815,-0.028
21.820,-0.016
21.825,-0.016
21.830,-0.028
21.835,-0.020
21.840,-0.017
21.845,-0.030
21.850,-0.027
21.855,-0.018
21.860,-0.032
21.865,-0.042
21.870,-0.035
21.875,-0.046
21.880,-0.060
21.885,-0.045
21.890,-0.046
21.895,-0.076
21.900,-0.083
21.905,-0.070
21.910,-0.075
21.915,-0.079
21.920,-0.068
21.925,-0.072
21.930,-0.070
21.935,-0.045
21.940,-0.038
21.945,-0.040
21.950,-0.009
21.955,0.022
21.960,0.018
21.965,0.020
21.970,0.035
21.975,0.027
21.980,0.016
21.985,0.032
21.990,0.042
21.995,0.030
22.000,0.035
22.005,0.048
22.010,0.035
22.015,0.029
22.020,0.045
22.025,0.037
22.030,0.017
22.035,0.028
22.040,0.035
22.045,0.015
22.050,0.017
22.055,0.029
22.060,0.020
22.065,0.028
22.070,0.045
22.075,0.016
22.080,-0.052
22.085,-0.135
22.090,-0.258
22.095,-0.364
22.100,-0.311
22.105,-0.140
22.110,-0.014
22.115,0.031
22.120,0.033
22.125,0.024
22.130,0.016
22.135,0.022
22.140,0.033
22.145,0.029
22.150,0.036
22.155,0.050
22.160,0.036
22.165,0.030
22.170,0.044
22.175,0.037
22.180,0.023
22.185,0.034
22.190,0.035
22.195,0.019
22.200,0.022
22.205,0.030
22.210,0.018
22.215,0.010
22.220,0.018
22.225,0.012
22.230,0.002
22.235,0.010
22.240,0.009
22.245,-0.006
22.250,-0.004
22.255,0.003
22.260,-0.010
22.265,-0.016
22.270,-0.007
22.275,-0.015
22.280,-0.028
22.285,-0.020
22.290,-0.018
22.295,-0.035
22.300,-0.038
22.305,-0.035
22.310,-0.053
22.315,-0.065
22.320,-0.056
22.325,-0.063
22.330,-0.081
22.335,-0.077
22.340,-0.078
22.345,-0.096
22.350,-0.089
22.355,-0.077
22.360,-0.087
22.365,-0.086
22.370,-0.064
22.375,-0.057
22.380,-0.052
22.385,-0.020
22.390,0.005
22.395,0.012
22.400,0.039
22.405,0.071
22.410,0.076
22.415,0.090
22.420,0.114
22.425,0.116
22.430,0.116
22.435,0.132
22.440,0.134
22.445,0.119
22.450,0.121
22.455,0.128
22.460,0.112
22.465,0.104
22.470,0.114
22.475,0.104
22.480,0.090
22.485,0.098
22.490,0.094
22.495,0.072
22.500,0.076
22.505,0.082
22.510,0.064
22.515,0.058
22.520,0.068
22.525,0.057
22.530,0.043
22.535,0.054
22.540,0.051
22.545,0.029
22.550,0.033
22.555,0.043
22.560,0.029
22.565,0.020
22.570,0.029
22.575,0.021
22.580,0.009
22.585,0.018
22.590,0.016
22.595,0.001
22.600,0.004
22.605,0.011
22.610,0.001
22.615,-0.002
22.620,0.007
22.625,-0.002
22.630,-0.013
22.635,-0.001
22.640,0.001
22.645,-0.012
22.650,-0.004
22.655,0.005
22.660,-0.011
22.665,-0.012
22.670,0.000
22.675,-0.010
22.680,-0.022
22.685,-0.009
22.690,-0.006
22.695,-0.021
22.700,-0.016
22.705,-0.007
22.710,-0.020
22.715,-0.023
22.720,-0.014
22.725,-0.019
22.730,-0.024
22.735,-0.014
22.740,-0.015
22.745,-0.029
22.750,-0.021
22.755,-0.011
22.760,-0.025
22.765,-0.029
22.770,-0.016
22.775,-0.022
22.780,-0.031
22.785,-0.020
22.790,-0.019
22.795,-0.036
22.800,-0.035
22.805,-0.027
22.810,-0.042
22.815,-0.051
22.820,-0.039
22.825,-0.044
22.830,-0.063
22.835,-0.064
22.840,-0.071
22.845,-0.085
22.850,-0.073
22.855,-0.064
22.860,-0.081
22.865,-0.081
22.870,-0.054
22.875,-0.050
22.880,-0.053
22.885,-0.026
22.890,-0.004
22.895,0.000
22.900,0.016
22.905,0.025
22.910,0.012
22.915,0.013
22.920,0.028
22.925,0.023
22.930,0.016
22.935,0.032
22.940,0.036
22.945,0.020
22.950,0.026
22.955,0.037
22.960,0.024
22.965,0.017
22.970,0.026
22.975,0.018
22.980,0.009
22.985,0.020
22.990,0.017
22.995,0.005
23.000,0.021
23.005,0.040
23.010,0.024
23.015,-0.001
23.020,-0.044
23.025,-0.143
23.030,-0.264
23.035,-0.318
23.040,-0.252
23.045,-0.112
23.050,0.008
23.055,0.040
23.060,0.012
23.065,0.009
23.070,0.025
23.075,0.017
23.080,0.013
23.085,0.032
23.090,0.034
23.095,0.021
23.100,0.029
23.105,0.038
23.110,0.024
23.115,0.022
23.120,0.033
23.125,0.022
23.130,0.010
23.135,0.021
23.140,0.021
23.145,0.006
23.150,0.013
23.155,0.021
23.160,0.002
23.165,-0.002
23.170,0.011
23.175,0.004
23.180,-0.007
23.185,0.004
23.190,0.003
23.195,-0.014
23.200,-0.009
23.205,-0.002
23.210,-0.019
23.215,-0.024
23.220,-0.014
23.225,-0.024
23.230,-0.036
23.235,-0.028
23.240,-0.032
23.245,-0.048
23.250,-0.047
23.255,-0.048
23.260,-0.066
23.265,-0.069
23.270,-0.063
23.275,-0.076
23.280,-0.086
23.285,-0.073
23.290,-0.073
23.295,-0.088
23.300,-0.079
23.305,-0.064
23.310,-0.069
23.315,-0.057
23.320,-0.027
23.325,-0.017
23.330,-0.004
23.335,0.030
23.340,0.049
23.345,0.055
23.350,0.079
23.355,0.101
23.360,0.100
23.365,0.107
23.370,0.125
23.375,0.122
23.380,0.112
23.385,0.121
23.390,0.120
23.395,0.103
23.400,0.107
23.405,0.114
23.410,0.098
23.415,0.092
23.420,0.099
23.425,0.086
23.430,0.074
23.435,0.085
23.440,0.081
23.445,0.062
23.450,0.066
23.455,0.071
23.460,0.054
23.465,0.049
23.470,0.057
23.475,0.046
23.480,0.036
23.485,0.042
23.490,0.036
23.495,0.022
23.500,0.027
23.505,0.032
23.510,0.017
23.515,0.013
23.520,0.024
23.525,0.013
23.530,0.001
23.535,0.012
23.540,0.012
23.545,-0.004
23.550,0.003
23.555,0.011
23.560,-0.004
23.565,-0.004
23.570,0.007
23.575,-0.004
23.580,-0.013
23.585,0.001
23.590,-0.001
23.595,-0.016
23.600,-0.005
23.605,0.003
23.610,-0.012
23.615,-0.012
23.620,0.000
23.625,-0.010
23.630,-0.020
23.635,-0.008
23.640,-0.008
23.645,-0.021
23.650,-0.014
23.655,-0.007
23.660,-0.021
23.665,-0.019
23.670,-0.008
23.675,-0.019
23.680,-0.026
23.685,-0.011
23.690,-0.012
23.695,-0.026
23.700,-0.018
23.705,-0.011
23.710,-0.026
23.715,-0.024
23.720,-0.011
23.725,-0.022
23.730,-0.032
23.735,-0.020
23.740,-0.022
23.745,-0.038
23.750,-0.034
23.755,-0.032
23.760,-0.050
23.765,-0.048
23.770,-0.037
23.775,-0.058
23.780,-0.078
23.785,-0.071
23.790,-0.071
23.795,-0.078
23.800,-0.071
23.805,-0.068
23.810,-0.074
23.815,-0.059
23.820,-0.038
23.825,-0.040
23.830,-0.035
23.835,0.001
23.840,0.021
23.845,0.014
23.850,0.021
23.855,0.031
23.860,0.022
23.865,0.022
23.870,0.034
23.875,0.031
23.880,0.027
23.885,0.040
23.890,0.038
23.895,0.025
23.900,0.034
23.905,0.041
23.910,0.025
23.915,0.024
23.920,0.032
23.925,0.019
23.930,0.011
23.935,0.023
23.940,0.022
23.945,0.023
23.950,0.043
23.955,0.042
23.960,-0.002
23.965,-0.070
23.970,-0.161
23.975,-0.288
23.980,-0.355
23.985,-0.258
23.990,-0.094
23.995,-0.005
24.000,0.014
24.005,0.013
24.010,0.013
24.015,0.020
24.020,0.035
24.025,0.035
24.030,0.031
24.035,0.045
24.040,0.046
24.045,0.034
24.050,0.042
24.055,0.048
24.060,0.033
24.065,0.029
24.070,0.038
24.075,0.027
24.080,0.019
24.085,0.031
24.090,0.027
24.095,0.009
24.100,0.015
24.105,0.024
24.110,0.010
24.115,0.007
24.120,0.016
24.125,0.005
24.130,-0.004
24.135,0.008
24.140,0.003
24.145,-0.015
24.150,-0.008
24.155,-0.004
24.160,-0.022
24.165,-0.024
24.170,-0.013
24.175,-0.024
24.180,-0.035
24.185,-0.030
24.190,-0.038
24.195,-0.054
24.200,-0.048
24.205,-0.045
24.210,-0.068
24.215,-0.073
24.220,-0.064
24.225,-0.079
24.230,-0.088
24.235,-0.076
24.240,-0.077
24.245,-0.084
24.250,-0.070
24.255,-0.061
24.260,-0.064
24.265,-0.044
24.270,-0.012
24.275,-0.002
24.280,0.012
24.285,0.045
24.290,0.061
24.295,0.066
24.300,0.090
24.305,0.105
24.310,0.099
24.315,0.109
24.320,0.124
24.325,0.114
24.330,0.107
24.335,0.120
24.340,0.113
24.345,0.096
24.350,0.100
24.355,0.102
24.360,0.087
24.365,0.084
24.370,0.092
24.375,0.077
24.380,0.064
24.385,0.075
24.390,0.072
24.395,0.053
24.400,0.057
24.405,0.060
24.410,0.043
24.415,0.042
24.420,0.052
24.425,0.038
24.430,0.030
24.435,0.042
24.440,0.035
24.445,0.018
24.450,0.026
24.455,0.030
24.460,0.012
24.465,0.012
24.470,0.022
24.475,0.009
24.480,0.001
24.485,0.014
24.490,0.010
24.495,-0.006
24.500,0.002
24.505,0.006
24.510,-0.009
24.515,-0.007
24.520,0.004
24.525,-0.007
24.530,-0.011
24.535,-0.001
24.540,-0.004
24.545,-0.014
24.550,-0.006
24.555,-0.005
24.560,-0.018
24.565,-0.013
24.570,-0.002
24.575,-0.015
24.580,-0.021
24.585,-0.005
24.590,-0.008
24.595,-0.024
24.600,-0.016
24.605,-0.008
24.610,-0.020
24.615,-0.020
24.620,-0.009
24.625,-0.019
24.630,-0.023
24.635,-0.011
24.640,-0.017
24.645,-0.026
24.650,-0.017
24.655,-0.016
24.660,-0.027
24.665,-0.024
24.670,-0.013
24.675,-0.022
24.680,-0.028
24.685,-0.016
24.690,-0.019
24.695,-0.030
24.700,-0.022
24.705,-0.019
24.710,-0.037
24.715,-0.041
24.720,-0.037
24.725,-0.051
24.730,-0.056
24.735,-0.047
24.740,-0.062
24.745,-0.084
24.750,-0.076
24.755,-0.068
24.760,-0.076
24.765,-0.074
24.770,-0.066
24.775,-0.064
24.780,-0.052
24.785,-0.034
24.790,-0.030
24.795,-0.023
24.800,0.010
24.805,0.031
24.810,0.021
24.815,0.022
24.820,0.034
24.825,0.029
24.830,0.025
24.835,0.037
24.840,0.034
24.845,0.028
24.850,0.045
24.855,0.049
24.860,0.032
24.865,0.033
24.870,0.042
24.875,0.029
24.880,0.023
24.885,0.033
24.890,0.026
24.895,0.013
24.900,0.023
24.905,0.034
24.910,0.035
24.915,0.041
24.920,0.035
24.925,-0.018
24.930,-0.107
24.935,-0.215
24.940,-0.333
24.945,-0.355
24.950,-0.207
24.955,-0.039
24.960,0.013
24.965,0.004
24.970,0.016
24.975,0.024
24.980,0.022
24.985,0.035
24.990,0.039
24.995,0.035
25.000,0.047
25.005,0.050
25.010,0.037
25.015,0.040
25.020,0.049
25.025,0.034
25.030,0.024
25.035,0.035
25.040,0.033
25.045,0.022
25.050,0.028
25.055,0.029
25.060,0.016
25.065,0.016
25.070,0.020
25.075,0.007
25.080,0.002
25.085,0.013
25.090,0.007
25.095,-0.006
25.100,0.000
25.105,0.004
25.110,-0.010
25.115,-0.012
25.120,-0.006
25.125,-0.021
25.130,-0.028
25.135,-0.016
25.140,-0.022
25.145,-0.039
25.150,-0.032
25.155,-0.033
25.160,-0.056
25.165,-0.058
25.170,-0.050
25.175,-0.069
25.180,-0.079
25.185,-0.069
25.190,-0.077
25.195,-0.090
25.200,-0.080
25.205,-0.077
25.210,-0.089
25.215,-0.078
25.220,-0.057
25.225,-0.054
25.230,-0.040
25.235,-0.008
25.240,0.009
25.245,0.019
25.250,0.047
25.255,0.069
25.260,0.072
25.265,0.091
25.270,0.114
25.275,0.111
25.280,0.111
25.285,0.124
25.290,0.121
25.295,0.110
25.300,0.118
25.305,0.117
25.310,0.099
25.315,0.101
25.320,0.106
25.325,0.090
25.330,0.082
25.335,0.089
25.340,0.079
25.345,0.065
25.350,0.074
25.355,0.073
25.360,0.054
25.365,0.055
25.370,0.061
25.375,0.045
25.380,0.039
25.385,0.050
25.390,0.041
25.395,0.029
25.400,0.039
25.405,0.036
25.410,0.019
25.415,0.021
25.420,0.027
25.425,0.013
25.430,0.009
25.435,0.021
25.440,0.014
25.445,0.001
25.450,0.011
25.455,0.011
25.460,-0.006
25.465,0.000
25.470,0.009
25.475,-0.004
25.480,-0.007
25.485,0.003
25.490,-0.005
25.495,-0.012
25.500,0.001
25.505,-0.001
25.510,-0.017
25.515,-0.013
25.520,-0.003
25.525,-0.013
25.530,-0.017
25.535,-0.007
25.540,-0.013
25.545,-0.023
25.550,-0.010
25.555,-0.009
25.560,-0.024
25.565,-0.016
25.570,-0.005
25.575,-0.020
25.580,-0.025
25.585,-0.012
25.590,-0.015
25.595,-0.024
25.600,-0.015
25.605,-0.014
25.610,-0.027
25.615,-0.021
25.620,-0.013
25.625,-0.026
25.630,-0.028
25.635,-0.014
25.640,-0.021
25.645,-0.032
25.650,-0.021
25.655,-0.016
25.660,-0.029
25.665,-0.026
25.670,-0.018
25.675,-0.032
25.680,-0.040
25.685,-0.033
25.690,-0.045
25.695,-0.060
25.700,-0.046
25.705,-0.045
25.710,-0.071
25.715,-0.079
25.720,-0.075
25.725,-0.083
25.730,-0.077
25.735,-0.063
25.740,-0.076
25.745,-0.077
25.750,-0.045
25.755,-0.033
25.760,-0.045
25.765,-0.027
25.770,0.007
25.775,0.014
25.780,0.022
25.785,0.038
25.790,0.030
25.795,0.024
25.800,0.038
25.805,0.040
25.810,0.031
25.815,0.039
25.820,0.048
25.825,0.038
25.830,0.035
25.835,0.045
25.840,0.038
25.845,0.028
25.850,0.034
25.855,0.034
25.860,0.019
25.865,0.021
25.870,0.030
25.875,0.019
25.880,0.030
25.885,0.057
25.890,0.042
25.895,-0.006
25.900,-0.073
25.905,-0.186
25.910,-0.327
25.915,-0.377
25.920,-0.268
25.925,-0.106
25.930,-0.002
25.935,0.026
25.940,0.015
25.945,0.018
25.950,0.035
25.955,0.038
25.960,0.030
25.965,0.041
25.970,0.053
25.975,0.044
25.980,0.041
25.985,0.050
25.990,0.043
25.995,0.032
26.000,0.040
26.005,0.042
26.010,0.027
26.015,0.025
26.020,0.032
26.025,0.021
26.030,0.017
26.035,0.028
26.040,0.018
26.045,0.005
26.050,0.016
26.055,0.017
26.060,0.001
26.065,0.002
26.070,0.005
26.075,-0.010
26.080,-0.012
26.085,0.000
26.090,-0.008
26.095,-0.023
26.100,-0.019
26.105,-0.018
26.110,-0.036
26.115,-0.037
26.120,-0.032
26.125,-0.049
26.130,-0.056
26.135,-0.050
26.140,-0.063
26.145,-0.079
26.150,-0.073
26.155,-0.079
26.160,-0.097
26.165,-0.092
26.170,-0.085
26.175,-0.097
26.180,-0.093
26.185,-0.076
26.190,-0.075
26.195,-0.066
26.200,-0.036
26.205,-0.018
26.210,-0.009
26.215,0.024
26.220,0.056
26.225,0.063
26.230,0.078
26.235,0.106
26.240,0.111
26.245,0.109
26.250,0.126
26.255,0.134
26.260,0.123
26.265,0.127
26.270,0.135
26.275,0.120
26.280,0.113
26.285,0.119
26.290,0.106
26.295,0.091
26.300,0.100
26.305,0.098
26.310,0.079
26.315,0.079
26.320,0.082
26.325,0.065
26.330,0.062
26.335,0.070
26.340,0.059
26.345,0.049
26.350,0.060
26.355,0.056
26.360,0.033
26.365,0.036
26.370,0.045
26.375,0.029
26.380,0.026
26.385,0.038
26.390,0.025
26.395,0.011
26.400,0.023
26.405,0.020
26.410,0.003
26.415,0.010
26.420,0.018
26.425,0.001
26.430,-0.003
26.435,0.011
26.440,0.003
26.445,-0.008
26.450,0.005
26.455,0.004
26.460,-0.013
26.465,-0.007
26.470,0.000
26.475,-0.013
26.480,-0.010
26.485,0.000
26.490,-0.014
26.495,-0.022
26.500,-0.009
26.505,-0.010
26.510,-0.022
26.515,-0.015
26.520,-0.007
26.525,-0.019
26.530,-0.022
26.535,-0.011
26.540,-0.016
26.545,-0.024
26.550,-0.014
26.555,-0.019
26.560,-0.031
26.565,-0.022
26.570,-0.015
26.575,-0.025
26.580,-0.024
26.585,-0.015
26.590,-0.023
26.595,-0.030
26.600,-0.018
26.605,-0.019
26.610,-0.032
26.615,-0.025
26.620,-0.022
26.625,-0.035
26.630,-0.037
26.635,-0.034
26.640,-0.051
26.645,-0.057
26.650,-0.042
26.655,-0.052
26.660,-0.081
26.665,-0.082
26.670,-0.071
26.675,-0.078
26.680,-0.079
26.685,-0.071
26.690,-0.075
26.695,-0.066
26.700,-0.044
26.705,-0.043
26.710,-0.037
26.715,0.001
26.720,0.026
26.725,0.015
26.730,0.014
26.735,0.028
26.740,0.022
26.745,0.016
26.750,0.030
26.755,0.034
26.760,0.022
26.765,0.032
26.770,0.042
26.775,0.027
26.780,0.026
26.785,0.039
26.790,0.025
26.795,0.013
26.800,0.028
26.805,0.026
26.810,0.011
26.815,0.016
26.820,0.024
26.825,0.022
26.830,0.033
26.835,0.036
26.840,-0.003
26.845,-0.069
26.850,-0.153
26.855,-0.272
26.860,-0.348
26.865,-0.266
26.870,-0.097
26.875,0.005
26.880,0.029
26.885,0.025
26.890,0.017
26.895,0.011
26.900,0.025
26.905,0.034
26.910,0.024
26.915,0.031
26.920,0.040
26.925,0.026
26.930,0.026
26.935,0.041
26.940,0.031
26.945,0.021
26.950,0.033
26.955,0.029
26.960,0.014
26.965,0.022
26.970,0.026
26.975,0.009
26.980,0.007
26.985,0.018
26.990,0.010
26.995,0.001
27.000,0.010
27.005,0.003
27.010,-0.012
27.015,-0.003
27.020,0.000
27.025,-0.015
27.030,-0.015
27.035,-0.007
27.040,-0.020
27.045,-0.030
27.050,-0.022
27.055,-0.027
27.060,-0.041
27.065,-0.038
27.070,-0.040
27.075,-0.060
27.080,-0.062
27.085,-0.053
27.090,-0.067
27.095,-0.080
27.100,-0.075
27.105,-0.080
27.110,-0.094
27.115,-0.086
27.120,-0.075
27.125,-0.083
27.130,-0.078
27.135,-0.056
27.140,-0.052
27.145,-0.043
27.150,-0.011
27.155,0.009
27.160,0.019
27.165,0.050
27.170,0.073
27.175,0.077
27.180,0.093
27.185,0.113
27.190,0.113
27.195,0.113
27.200,0.127
27.205,0.124
27.210,0.111
27.215,0.118
27.220,0.122
27.225,0.105
27.230,0.103
27.235,0.109
27.240,0.094
27.245,0.084
27.250,0.094
27.255,0.088
27.260,0.068
27.265,0.072
27.270,0.077
27.275,0.059
27.280,0.056
27.285,0.067
27.290,0.055
27.295,0.042
27.300,0.051
27.305,0.048
27.310,0.029
27.315,0.033
27.320,0.038
27.325,0.021
27.330,0.018
27.335,0.029
27.340,0.020
27.345,0.009
27.350,0.016
27.355,0.013
27.360,0.000
27.365,0.010
27.370,0.015
27.375,-0.002
27.380,-0.003
27.385,0.009
27.390,-0.002
27.395,-0.009
27.400,0.003
27.405,-0.001
27.410,-0.014
27.415,-0.005
27.420,0.000
27.425,-0.013
27.430,-0.010
27.435,0.003
27.440,-0.009
27.445,-0.018
27.450,-0.006
27.455,-0.008
27.460,-0.022
27.465,-0.012
27.470,-0.005
27.475,-0.022
27.480,-0.022
27.485,-0.010
27.490,-0.019
27.495,-0.023
27.500,-0.011
27.505,-0.017
27.510,-0.030
27.515,-0.019
27.520,-0.009
27.525,-0.022
27.530,-0.023
27.535,-0.013
27.540,-0.024
27.545,-0.028
27.550,-0.014
27.555,-0.023
27.560,-0.040
27.565,-0.031
27.570,-0.028
27.575,-0.052
27.580,-0.052
27.585,-0.037
27.590,-0.053
27.595,-0.069
27.600,-0.066
27.605,-0.073
27.610,-0.081
27.615,-0.066
27.620,-0.065
27.625,-0.082
27.630,-0.069
27.635,-0.042
27.640,-0.045
27.645,-0.045
27.650,-0.012
27.655,0.008
27.660,0.007
27.665,0.023
27.670,0.031
27.675,0.017
27.680,0.022
27.685,0.036
27.690,0.027
27.695,0.023
27.700,0.040
27.705,0.038
27.710,0.023
27.715,0.034
27.720,0.041
27.725,0.021
27.730,0.020
27.735,0.032
27.740,0.020
27.745,0.013
27.750,0.025
27.755,0.019
27.760,0.011
27.765,0.037
27.770,0.050
27.775,0.020
27.780,-0.022
27.785,-0.090
27.790,-0.210
27.795,-0.327
27.800,-0.335
27.805,-0.217
27.810,-0.069
27.815,0.018
27.820,0.019
27.825,0.003
27.830,0.020
27.835,0.035
27.840,0.027
27.845,0.030
27.850,0.048
27.855,0.046
27.860,0.033
27.865,0.043
27.870,0.045
27.875,0.029
27.880,0.031
27.885,0.042
27.890,0.028
27.895,0.018
27.900,0.029
27.905,0.024
27.910,0.009
27.915,0.021
27.920,0.025
27.925,0.007
27.930,0.010
27.935,0.019
27.940,0.002
27.945,-0.007
27.950,0.009
27.955,0.005
27.960,-0.012
27.965,-0.006
27.970,-0.005
27.975,-0.021
27.980,-0.017
27.985,-0.008
27.990,-0.026
27.995,-0.037
28.000,-0.025
28.005,-0.033
28.010,-0.052
28.015,-0.042
28.020,-0.042
28.025,-0.067
28.030,-0.068
28.035,-0.063
28.040,-0.080
28.045,-0.088
28.050,-0.073
28.055,-0.075
28.060,-0.089
28.065,-0.076
28.070,-0.065
28.075,-0.068
28.080,-0.051
28.085,-0.024
28.090,-0.014
28.095,0.001
28.100,0.034
28.105,0.051
28.110,0.057
28.115,0.085
28.120,0.104
28.125,0.099
28.130,0.108
28.135,0.123
28.140,0.114
28.145,0.110
28.150,0.124
28.155,0.118
28.160,0.101
28.165,0.109
28.170,0.112
28.175,0.090
28.180,0.087
28.185,0.098
28.190,0.081
28.195,0.068
28.200,0.081
28.205,0.075
28.210,0.058
28.215,0.064
28.220,0.065
28.225,0.048
28.230,0.049
28.235,0.054
28.240,0.039
28.245,0.033
28.250,0.043
28.255,0.035
28.260,0.020
28.265,0.029
28.270,0.031
28.275,0.013
28.280,0.015
28.285,0.023
28.290,0.010
28.295,0.003
28.300,0.015
28.305,0.008
28.310,-0.007
28.315,0.005
28.320,0.010
28.325,-0.008
28.330,-0.004
28.335,0.008
28.340,-0.006
28.345,-0.011
28.350,0.003
28.355,-0.004
28.360,-0.014
28.365,-0.003
28.370,-0.004
28.375,-0.020
28.380,-0.013
28.385,-0.001
28.390,-0.014
28.395,-0.019
28.400,-0.006
28.405,-0.012
28.410,-0.025
28.415,-0.014
28.420,-0.009
28.425,-0.024
28.430,-0.021
28.435,-0.009
28.440,-0.020
28.445,-0.025
28.450,-0.012
28.455,-0.018
28.460,-0.028
28.465,-0.016
28.470,-0.013
28.475,-0.028
28.480,-0.023
28.485,-0.012
28.490,-0.023
28.495,-0.029
28.500,-0.015
28.505,-0.018
28.510,-0.030
28.515,-0.019
28.520,-0.016
28.525,-0.035
28.530,-0.034
28.535,-0.028
28.540,-0.047
28.545,-0.056
28.550,-0.040
28.555,-0.044
28.560,-0.067
28.565,-0.072
28.570,-0.073
28.575,-0.082
28.580,-0.071
28.585,-0.061
28.590,-0.076
28.595,-0.075
28.600,-0.046
28.605,-0.039
28.610,-0.045
28.615,-0.020
28.620,0.008
28.625,0.015
28.630,0.027
28.635,0.038
28.640,0.027
28.645,0.023
28.650,0.037
28.655,0.035
28.660,0.026
28.665,0.038
28.670,0.043
28.675,0.029
28.680,0.036
28.685,0.047
28.690,0.033
28.695,0.026
28.700,0.038
28.705,0.030
28.710,0.019
28.715,0.028
28.720,0.027
28.725,0.017
28.730,0.036
28.735,0.056
28.740,0.035
28.745,-0.001
28.750,-0.061
28.755,-0.178
28.760,-0.310
28.765,-0.353
28.770,-0.258
28.775,-0.098
28.780,0.009
28.785,0.023
28.790,0.004
28.795,0.015
28.800,0.032
28.805,0.027
28.810,0.026
28.815,0.044
28.820,0.052
28.825,0.040
28.830,0.040
28.835,0.049
28.840,0.036
28.845,0.028
28.850,0.042
28.855,0.035
28.860,0.022
28.865,0.033
28.870,0.033
28.875,0.016
28.880,0.017
28.885,0.023
28.890,0.010
28.895,0.004
28.900,0.015
28.905,0.011
28.910,-0.001
28.915,0.008
28.920,0.009
28.925,-0.010
28.930,-0.009
28.935,0.000
28.940,-0.014
28.945,-0.020
28.950,-0.008
28.955,-0.018
28.960,-0.033
28.965,-0.026
28.970,-0.030
28.975,-0.050
28.980,-0.048
28.985,-0.041
28.990,-0.061
28.995,-0.070
29.000,-0.061
29.005,-0.075
29.010,-0.089
29.015,-0.079
29.020,-0.079
29.025,-0.094
29.030,-0.085
29.035,-0.069
29.040,-0.071
29.045,-0.064
29.050,-0.037
29.055,-0.022
29.060,-0.014
29.065,0.018
29.070,0.043
29.075,0.048
29.080,0.070
29.085,0.096
29.090,0.095
29.095,0.100
29.100,0.120
29.105,0.118
29.110,0.107
29.115,0.118
29.120,0.122
29.125,0.104
29.130,0.103
29.135,0.109
29.140,0.092
29.145,0.086
29.150,0.098
29.155,0.085
29.160,0.068
29.165,0.079
29.170,0.078
29.175,0.060
29.180,0.062
29.185,0.067
29.190,0.051
29.195,0.047
29.200,0.056
29.205,0.043
29.210,0.031
29.215,0.041
29.220,0.040
29.225,0.023
29.230,0.025
29.235,0.031
29.240,0.018
29.245,0.015
29.250,0.026
29.255,0.014
29.260,0.002
29.265,0.014
29.270,0.016
29.275,0.001
29.280,0.006
29.285,0.013
29.290,-0.005
29.295,-0.010
29.300,0.007
29.305,0.000
29.310,-0.014
29.315,-0.002
29.320,0.002
29.325,-0.013
29.330,-0.008
29.335,0.003
29.340,-0.013
29.345,-0.018
29.350,-0.002
29.355,-0.010
29.360,-0.023
29.365,-0.010
29.370,-0.007
29.375,-0.022
29.380,-0.015
29.385,-0.005
29.390,-0.019
29.395,-0.022
29.400,-0.008
29.405,-0.015
29.410,-0.026
29.415,-0.014
29.420,-0.011
29.425,-0.027
29.430,-0.021
29.435,-0.010
29.440,-0.023
29.445,-0.026
29.450,-0.011
29.455,-0.016
29.460,-0.030
29.465,-0.019
29.470,-0.013
29.475,-0.027
29.480,-0.023
29.485,-0.012
29.490,-0.026
29.495,-0.030
29.500,-0.019
29.505,-0.031
29.510,-0.046
29.515,-0.041
29.520,-0.047
29.525,-0.059
29.530,-0.052
29.535,-0.056
29.540,-0.082
29.545,-0.084
29.550,-0.066
29.555,-0.068
29.560,-0.078
29.565,-0.068
29.570,-0.060
29.575,-0.060
29.580,-0.045
29.585,-0.029
29.590,-0.029
29.595,-0.007
29.600,0.028
29.605,0.029
29.610,0.022
29.615,0.036
29.620,0.036
29.625,0.023
29.630,0.033
29.635,0.046
29.640,0.034
29.645,0.033
29.650,0.048
29.655,0.038
29.660,0.027
29.665,0.039
29.670,0.039
29.675,0.022
29.680,0.025
29.685,0.032
29.690,0.017
29.695,0.014
29.700,0.027
29.705,0.031
29.710,0.036
29.715,0.044
29.720,0.010
29.725,-0.077
29.730,-0.179
29.735,-0.293
29.740,-0.372
29.745,-0.290
29.750,-0.097
29.755,0.009
29.760,0.010
29.765,0.014
29.770,0.026
29.775,0.017
29.780,0.027
29.785,0.047
29.790,0.036
29.795,0.034
29.800,0.050
29.805,0.043
29.810,0.033
29.815,0.046
29.820,0.045
29.825,0.027
29.830,0.031
29.835,0.038
29.840,0.022
29.845,0.017
29.850,0.030
29.855,0.021
29.860,0.009
29.865,0.020
29.870,0.018
29.875,0.001
29.880,0.007
29.885,0.016
29.890,-0.001
29.895,-0.005
29.900,0.006
29.905,-0.005
29.910,-0.015
29.915,-0.007
29.920,-0.011
29.925,-0.024
29.930,-0.019
29.935,-0.019
29.940,-0.038
29.945,-0.042
29.950,-0.033
29.955,-0.046
29.960,-0.062
29.965,-0.057
29.970,-0.064
29.975,-0.081
29.980,-0.078
29.985,-0.073
29.990,-0.087
29.995,-0.091
30.000,-0.080
30.005,-0.084
30.010,-0.086
30.015,-0.066
30.020,-0.053
30.025,-0.052
30.030,-0.026
30.035,0.004
30.040,0.013
30.045,0.035
30.050,0.067
30.055,0.076
30.060,0.084
30.065,0.111
30.070,0.119
30.075,0.111
30.080,0.122
30.085,0.129
30.090,0.115
30.095,0.116
30.100,0.125
30.105,0.111
30.110,0.100
30.115,0.109
30.120,0.104
30.125,0.087
30.130,0.090
30.135,0.092
30.140,0.076
30.145,0.072
30.150,0.081
30.155,0.068
30.160,0.053
30.165,0.061
30.170,0.058
30.175,0.042
30.180,0.048
30.185,0.054
30.190,0.035
30.195,0.030
30.200,0.040
30.205,0.028
30.210,0.020
30.215,0.032
30.220,0.030
30.225,0.011
30.230,0.012
30.235,0.022
30.240,0.007
30.245,0.004
30.250,0.017
30.255,0.004
30.260,-0.008
30.265,0.006
30.270,0.006
30.275,-0.009
30.280,-0.002
30.285,0.004
30.290,-0.011
30.295,-0.009
30.300,0.003
30.305,-0.010
30.310,-0.019
30.315,-0.003
30.320,-0.003
30.325,-0.019
30.330,-0.012
30.335,-0.007
30.340,-0.021
30.345,-0.018
30.350,-0.004
30.355,-0.017
30.360,-0.027
30.365,-0.014
30.370,-0.013
30.375,-0.024
30.380,-0.019
30.385,-0.013
30.390,-0.025
30.395,-0.025
30.400,-0.011
30.405,-0.020
30.410,-0.029
30.415,-0.015
30.420,-0.016
30.425,-0.031
30.430,-0.020
30.435,-0.014
30.440,-0.030
30.445,-0.027
30.450,-0.015
30.455,-0.026
30.460,-0.032
30.465,-0.017
30.470,-0.020
30.475,-0.034
30.480,-0.029
30.485,-0.027
30.490,-0.047
30.495,-0.053
30.500,-0.043
30.505,-0.050
30.510,-0.060
30.515,-0.062
30.520,-0.075
30.525,-0.088
30.530,-0.075
30.535,-0.063
30.540,-0.077
30.545,-0.079
30.550,-0.056
30.555,-0.050
30.560,-0.048
30.565,-0.028
30.570,-0.011
30.575,0.003
30.580,0.027
30.585,0.039
30.590,0.026
30.595,0.024
30.600,0.038
30.605,0.033
30.610,0.029
30.615,0.046
30.620,0.045
30.625,0.030
30.630,0.039
30.635,0.046
30.640,0.030
30.645,0.031
30.650,0.043
30.655,0.029
30.660,0.019
30.665,0.030
30.670,0.026
30.675,0.012
30.680,0.027
30.685,0.047
30.690,0.040
30.695,0.026
30.700,-0.010
30.705,-0.110
30.710,-0.245
30.715,-0.352
30.720,-0.355
30.725,-0.225
30.730,-0.052
30.735,0.036
30.740,0.022
30.745,0.017
30.750,0.039
30.755,0.027
30.760,0.020
30.765,0.042
30.770,0.047
30.775,0.037
30.780,0.046
30.785,0.051
30.790,0.035
30.795,0.035
30.800,0.047
30.805,0.034
30.810,0.023
30.815,0.036
30.820,0.033
30.825,0.018
30.830,0.025
30.835,0.028
30.840,0.010
30.845,0.011
30.850,0.021
30.855,0.008
30.860,-0.001
30.865,0.010
30.870,0.004
30.875,-0.008
30.880,0.000
30.885,0.000
30.890,-0.018
30.895,-0.018
30.900,-0.009
30.905,-0.023
30.910,-0.033
30.915,-0.025
30.920,-0.032
30.925,-0.049
30.930,-0.046
30.935,-0.046
30.940,-0.068
30.945,-0.071
30.950,-0.063
30.955,-0.079
30.960,-0.093
30.965,-0.083
30.970,-0.086
30.975,-0.099
30.980,-0.088
30.985,-0.079
30.990,-0.085
30.995,-0.072
31.000,-0.046
31.005,-0.036
31.010,-0.018
31.015,0.018
31.020,0.036
31.025,0.043
31.030,0.073
31.035,0.100
31.040,0.102
31.045,0.112
31.050,0.128
31.055,0.123
31.060,0.122
31.065,0.138
31.070,0.132
31.075,0.114
31.080,0.119
31.085,0.122
31.090,0.105
31.095,0.104
31.100,0.110
31.105,0.093
31.110,0.083
31.115,0.094
31.120,0.086
31.125,0.069
31.130,0.074
31.135,0.075
31.140,0.057
31.145,0.056
31.150,0.064
31.155,0.047
31.160,0.037
31.165,0.049
31.170,0.041
31.175,0.023
31.180,0.032
31.185,0.037
31.190,0.021
31.195,0.019
31.200,0.028
31.205,0.015
31.210,0.007
31.215,0.019
31.220,0.014
31.225,-0.001
31.230,0.006
31.235,0.010
31.240,-0.004
31.245,-0.003
31.250,0.007
31.255,-0.007
31.260,-0.014
31.265,0.003
31.270,-0.001
31.275,-0.017
31.280,-0.006
31.285,-0.002
31.290,-0.019
31.295,-0.016
31.300,-0.005
31.305,-0.016
31.310,-0.022
31.315,-0.006
31.320,-0.007
31.325,-0.023
31.330,-0.017
31.335,-0.013
31.340,-0.027
31.345,-0.025
31.350,-0.011
31.355,-0.019
31.360,-0.025
31.365,-0.014
31.370,-0.017
31.375,-0.029
31.380,-0.022
31.385,-0.016
31.390,-0.030
31.395,-0.027
31.400,-0.013
31.405,-0.024
31.410,-0.033
31.415,-0.019
31.420,-0.022
31.425,-0.040
31.430,-0.032
31.435,-0.028
31.440,-0.053
31.445,-0.054
31.450,-0.036
31.455,-0.052
31.460,-0.073
31.465,-0.070
31.470,-0.074
31.475,-0.083
31.480,-0.074
31.485,-0.071
31.490,-0.083
31.495,-0.068
31.500,-0.046
31.505,-0.052
31.510,-0.041
31.515,-0.002
31.520,0.014
31.525,0.009
31.530,0.019
31.535,0.024
31.540,0.012
31.545,0.019
31.550,0.033
31.555,0.024
31.560,0.021
31.565,0.036
31.570,0.033
31.575,0.021
31.580,0.030
31.585,0.035
31.590,0.022
31.595,0.022
31.600,0.029
31.605,0.017
31.610,0.011
31.615,0.022
31.620,0.017
31.625,0.009
31.630,0.033
31.635,0.041
31.640,0.006
31.645,-0.036
31.650,-0.108
31.655,-0.235
31.660,-0.339
31.665,-0.308
31.670,-0.168
31.675,-0.038
31.680,0.031
31.685,0.030
31.690,0.009
31.695,0.018
31.700,0.026
31.705,0.018
31.710,0.022
31.715,0.038
31.720,0.036
31.725,0.026
31.730,0.036
31.735,0.040
31.740,0.025
31.745,0.025
31.750,0.034
31.755,0.021
31.760,0.013
31.765,0.025
31.770,0.021
31.775,0.008
31.780,0.016
31.785,0.018
31.790,0.002
31.795,0.005
31.800,0.013
31.805,-0.002
31.810,-0.009
31.815,0.003
31.820,-0.005
31.825,-0.018
31.830,-0.008
31.835,-0.008
31.840,-0.024
31.845,-0.021
31.850,-0.014
31.855,-0.030
31.860,-0.040
31.865,-0.029
31.870,-0.037
31.875,-0.057
31.880,-0.051
31.885,-0.052
31.890,-0.073
31.895,-0.075
31.900,-0.070
31.905,-0.084
31.910,-0.087
31.915,-0.075
31.920,-0.084
31.925,-0.093
31.930,-0.073
31.935,-0.064
31.940,-0.071
31.945,-0.050
31.950,-0.018
31.955,-0.009
31.960,0.009
31.965,0.042
31.970,0.057
31.975,0.066
31.980,0.094
31.985,0.112
31.990,0.104
31.995,0.114
32.000,0.132
32.005,0.121
32.010,0.113
32.015,0.125
32.020,0.121
32.025,0.107
32.030,0.113
32.035,0.112
32.040,0.092
32.045,0.093
32.050,0.100
32.055,0.083
32.060,0.076
32.065,0.084
32.070,0.076
32.075,0.063
32.080,0.071
32.085,0.070
32.090,0.049
32.095,0.048
32.100,0.055
32.105,0.040
32.110,0.033
32.115,0.042
32.120,0.035
32.125,0.021
32.130,0.029
32.135,0.030
32.140,0.013
32.145,0.014
32.150,0.023
32.155,0.011
32.160,0.003
32.165,0.015
32.170,0.010
32.175,-0.003
32.180,0.008
32.185,0.012
32.190,-0.004
32.195,-0.005
32.200,0.005
32.205,-0.004
32.210,-0.009
32.215,0.002
32.220,-0.003
32.225,-0.015
32.230,-0.004
32.235,0.000
32.240,-0.014
32.245,-0.014
32.250,-0.004
32.255,-0.014
32.260,-0.019
32.265,-0.006
32.270,-0.011
32.275,-0.024
32.280,-0.014
32.285,-0.009
32.290,-0.024
32.295,-0.016
32.300,-0.005
32.305,-0.021
32.310,-0.025
32.315,-0.011
32.320,-0.017
32.325,-0.029
32.330,-0.018
32.335,-0.013
32.340,-0.027
32.345,-0.022
32.350,-0.012
32.355,-0.027
32.360,-0.033
32.365,-0.017
32.370,-0.025
32.375,-0.042
32.380,-0.037
32.385,-0.042
32.390,-0.055
32.395,-0.045
32.400,-0.043
32.405,-0.071
32.410,-0.083
32.415,-0.069
32.420,-0.069
32.425,-0.079
32.430,-0.073
32.435,-0.070
32.440,-0.072
32.445,-0.053
32.450,-0.037
32.455,-0.037
32.460,-0.016
32.465,0.020
32.470,0.022
32.475,0.013
32.480,0.027
32.485,0.034
32.490,0.021
32.495,0.026
32.500,0.038
32.505,0.030
32.510,0.030
32.515,0.042
32.520,0.036
32.525,0.029
32.530,0.039
32.535,0.036
32.540,0.020
32.545,0.025
32.550,0.036
32.555,0.020
32.560,0.014
32.565,0.028
32.570,0.028
32.575,0.032
32.580,0.047
32.585,0.031
32.590,-0.034
32.595,-0.122
32.600,-0.232
32.605,-0.345
32.610,-0.334
32.615,-0.174
32.620,-0.031
32.625,0.009
32.630,0.013
32.635,0.020
32.640,0.018
32.645,0.025
32.650,0.041
32.655,0.037
32.660,0.036
32.665,0.053
32.670,0.047
32.675,0.034
32.680,0.047
32.685,0.048
32.690,0.028
32.695,0.031
32.700,0.041
32.705,0.027
32.710,0.019
32.715,0.029
32.720,0.022
32.725,0.010
32.730,0.019
32.735,0.019
32.740,0.004
32.745,0.009
32.750,0.016
32.755,-0.001
32.760,-0.004
32.765,0.009
32.770,-0.001
32.775,-0.016
32.780,-0.007
32.785,-0.006
32.790,-0.024
32.795,-0.021
32.800,-0.017
32.805,-0.034
32.810,-0.037
32.815,-0.029
32.820,-0.042
32.825,-0.055
32.830,-0.049
32.835,-0.055
32.840,-0.074
32.845,-0.072
32.850,-0.067
32.855,-0.084
32.860,-0.088
32.865,-0.075
32.870,-0.082
32.875,-0.087
32.880,-0.068
32.885,-0.056
32.890,-0.057
32.895,-0.033
32.900,-0.005
32.905,0.004
32.910,0.024
32.915,0.055
32.920,0.066
32.925,0.075
32.930,0.099
32.935,0.108
32.940,0.104
32.945,0.117
32.950,0.126
32.955,0.110
32.960,0.109
32.965,0.121
32.970,0.110
32.975,0.096
32.980,0.103
32.985,0.101
32.990,0.083
32.995,0.083
33.000,0.089
33.005,0.073
33.010,0.066
33.015,0.076
33.020,0.067
33.025,0.051
33.030,0.059
33.035,0.058
33.040,0.041
33.045,0.042
33.050,0.047
33.055,0.032
33.060,0.028
33.065,0.038
33.070,0.029
33.075,0.017
33.080,0.027
33.085,0.025
33.090,0.008
33.095,0.014
33.100,0.020
33.105,0.004
33.110,0.000
33.115,0.012
33.120,0.005
33.125,-0.004
33.130,0.007
33.135,0.006
33.140,-0.009
33.145,-0.004
33.150,0.003
33.155,-0.011
33.160,-0.013
33.165,0.002
33.170,-0.005
33.175,-0.017
33.180,-0.007
33.185,-0.006
33.190,-0.018
33.195,-0.009
33.200,-0.002
33.205,-0.017
33.210,-0.020
33.215,-0.006
33.220,-0.015
33.225,-0.026
33.230,-0.011
33.235,-0.011
33.240,-0.028
33.245,-0.020
33.250,-0.011
33.255,-0.024
33.260,-0.026
33.265,-0.014
33.270,-0.021
33.275,-0.029
33.280,-0.015
33.285,-0.015
33.290,-0.032
33.295,-0.025
33.300,-0.015
33.305,-0.027
33.310,-0.027
33.315,-0.012
33.320,-0.021
33.325,-0.034
33.330,-0.025
33.335,-0.028
33.340,-0.045
33.345,-0.045
33.350,-0.048
33.355,-0.059
33.360,-0.057
33.365,-0.054
33.370,-0.072
33.375,-0.085
33.380,-0.071
33.385,-0.066
33.390,-0.077
33.395,-0.075
33.400,-0.066
33.405,-0.062
33.410,-0.049
33.415,-0.033
33.420,-0.028
33.425,-0.012
33.430,0.021
33.435,0.031
33.440,0.020
33.445,0.027
33.450,0.036
33.455,0.026
33.460,0.028
33.465,0.042
33.470,0.038
33.475,0.031
33.480,0.043
33.485,0.044
33.490,0.030
33.495,0.036
33.500,0.041
33.505,0.024
33.510,0.021
33.515,0.033
33.520,0.023
33.525,0.013
33.530,0.029
33.535,0.042
33.540,0.042
33.545,0.044
33.550,0.017
33.555,-0.069
33.560,-0.178
33.565,-0.288
33.570,-0.361
33.575,-0.286
33.580,-0.097
33.585,0.015
33.590,0.011
33.595,0.008
33.600,0.029
33.605,0.023
33.610,0.025
33.615,0.046
33.620,0.043
33.625,0.036
33.630,0.051
33.635,0.051
33.640,0.036
33.645,0.042
33.650,0.046
33.655,0.029
33.660,0.028
33.665,0.038
33.670,0.026
33.675,0.018
33.680,0.029
33.685,0.027
33.690,0.011
33.695,0.015
33.700,0.021
33.705,0.005
33.710,-0.001
33.715,0.010
33.720,0.005
33.725,-0.005
33.730,0.003
33.735,-0.002
33.740,-0.018
33.745,-0.013
33.750,-0.009
33.755,-0.024
33.760,-0.025
33.765,-0.016
33.770,-0.030
33.775,-0.043
33.780,-0.035
33.785,-0.042
33.790,-0.063
33.795,-0.059
33.800,-0.056
33.805,-0.075
33.810,-0.080
33.815,-0.070
33.820,-0.082
33.825,-0.092
33.830,-0.080
33.835,-0.079
33.840,-0.088
33.845,-0.070
33.850,-0.052
33.855,-0.051
33.860,-0.032
33.865,0.003
33.870,0.015
33.875,0.026
33.880,0.059
33.885,0.076
33.890,0.079
33.895,0.100
33.900,0.115
33.905,0.108
33.910,0.112
33.915,0.128
33.920,0.119
33.925,0.108
33.930,0.120
33.935,0.114
33.940,0.096
33.945,0.102
33.950,0.104
33.955,0.086
33.960,0.086
33.965,0.092
33.970,0.075
33.975,0.064
33.980,0.075
33.985,0.069
33.990,0.052
33.995,0.058
34.000,0.063
34.005,0.047
34.010,0.043
34.015,0.049
34.020,0.037
34.025,0.028
34.030,0.038
34.035,0.032
34.040,0.017
34.045,0.027
34.050,0.031
34.055,0.012
34.060,0.010
34.065,0.021
34.070,0.010
34.075,0.001
34.080,0.014
34.085,0.012
34.090,-0.002
34.095,0.004
34.100,0.007
34.105,-0.007
34.110,-0.007
34.115,0.004
34.120,-0.006
34.125,-0.015
34.130,-0.002
34.135,-0.001
34.140,-0.013
34.145,-0.007
34.150,-0.003
34.155,-0.018
34.160,-0.017
34.165,-0.004
34.170,-0.013
34.175,-0.019
34.180,-0.009
34.185,-0.014
34.190,-0.025
34.195,-0.016
34.200,-0.009
34.205,-0.023
34.210,-0.024
34.215,-0.011
34.220,-0.019
34.225,-0.025
34.230,-0.012
34.235,-0.015
34.240,-0.028
34.245,-0.018
34.250,-0.011
34.255,-0.027
34.260,-0.027
34.265,-0.012
34.270,-0.022
34.275,-0.031
34.280,-0.017
34.285,-0.019
34.290,-0.033
34.295,-0.025
34.300,-0.021
34.305,-0.038
34.310,-0.043
34.315,-0.040
34.320,-0.054
34.325,-0.059
34.330,-0.046
34.335,-0.060
34.340,-0.085
34.345,-0.081
34.350,-0.070
34.355,-0.073
34.360,-0.073
34.365,-0.071
34.370,-0.076
34.375,-0.062
34.380,-0.037
34.385,-0.034
34.390,-0.033
34.395,-0.001
34.400,0.026
34.405,0.023
34.410,0.026
34.415,0.036
34.420,0.029
34.425,0.026
34.430,0.042
34.435,0.040
34.440,0.030
34.445,0.043
34.450,0.046
34.455,0.030
34.460,0.033
34.465,0.044
34.470,0.033
34.475,0.025
34.480,0.034
34.485,0.027
34.490,0.016
34.495,0.026
34.500,0.031
34.505,0.027
34.510,0.043
34.515,0.051
34.520,0.008
34.525,-0.068
34.530,-0.162
34.535,-0.293
34.540,-0.377
34.545,-0.290
34.550,-0.108
34.555,0.001
34.560,0.022
34.565,0.023
34.570,0.021
34.575,0.018
34.580,0.031
34.585,0.039
34.590,0.033
34.595,0.045
34.600,0.053
34.605,0.037
34.610,0.036
34.615,0.047
34.620,0.035
34.625,0.027
34.630,0.039
34.635,0.034
34.640,0.020
34.645,0.025
34.650,0.028
34.655,0.014
34.660,0.014
34.665,0.022
34.670,0.010
34.675,0.002
34.680,0.011
34.685,0.007
34.690,-0.004
34.695,0.001
34.700,0.001
34.705,-0.015
34.710,-0.015
34.715,-0.008
34.720,-0.021
34.725,-0.026
34.730,-0.018
34.735,-0.027
34.740,-0.040
34.745,-0.036
34.750,-0.038
34.755,-0.057
34.760,-0.061
34.765,-0.055
34.770,-0.069
34.775,-0.082
34.780,-0.076
34.785,-0.085
34.790,-0.101
34.795,-0.092
34.800,-0.086
34.805,-0.094
34.810,-0.087
34.815,-0.072
34.820,-0.070
34.825,-0.057
34.830,-0.023
34.835,-0.002
34.840,0.008
34.845,0.041
34.850,0.067
34.855,0.072
34.860,0.092
34.865,0.114
34.870,0.114
34.875,0.118
34.880,0.135
34.885,0.130
34.890,0.119
34.895,0.132
34.900,0.131
34.905,0.109
34.910,0.109
34.915,0.116
34.920,0.102
34.925,0.097
34.930,0.103
34.935,0.090
34.940,0.076
34.945,0.083
34.950,0.083
34.955,0.063
34.960,0.063
34.965,0.071
34.970,0.055
34.975,0.047
34.980,0.060
34.985,0.050
34.990,0.032
34.995,0.040
35.000,0.040
35.005,0.024
35.010,0.028
35.015,0.038
35.020,0.022
35.025,0.012
35.030,0.023
35.035,0.016
35.040,0.003
35.045,0.013
35.050,0.015
35.055,-0.002
35.060,0.001
35.065,0.012
35.070,-0.001
35.075,-0.008
35.080,0.005
35.085,-0.001
35.090,-0.014
35.095,-0.004
35.100,-0.001
35.105,-0.014
35.110,-0.011
35.115,-0.001
35.120,-0.012
35.125,-0.021
35.130,-0.011
35.135,-0.011
35.140,-0.020
35.145,-0.012
35.150,-0.010
35.155,-0.023
35.160,-0.019
35.165,-0.010
35.170,-0.021
35.175,-0.023
35.180,-0.011
35.185,-0.020
35.190,-0.032
35.195,-0.020
35.200,-0.014
35.205,-0.027
35.210,-0.024
35.215,-0.015
35.220,-0.024
35.225,-0.029
35.230,-0.018
35.235,-0.022
35.240,-0.030
35.245,-0.020
35.250,-0.016
35.255,-0.028
35.260,-0.025
35.265,-0.015
35.270,-0.028
35.275,-0.036
35.280,-0.026
35.285,-0.034
35.290,-0.048
35.295,-0.048
35.300,-0.046
35.305,-0.054
35.310,-0.057
35.315,-0.063
35.320,-0.081
35.325,-0.085
35.330,-0.069
35.335,-0.072
35.340,-0.085
35.345,-0.070
35.350,-0.056
35.355,-0.057
35.360,-0.044
35.365,-0.022
35.370,-0.008
35.375,0.010
35.380,0.030
35.385,0.027
35.390,0.018
35.395,0.028
35.400,0.034
35.405,0.026
35.410,0.034
35.415,0.043
35.420,0.031
35.425,0.030
35.430,0.042
35.435,0.036
35.440,0.026
35.445,0.035
35.450,0.034
35.455,0.020
35.460,0.022
35.465,0.028
35.470,0.018
35.475,0.015
35.480,0.029
35.485,0.035
35.490,0.030
35.495,0.023
35.500,-0.029
35.505,-0.136
35.510,-0.255
35.515,-0.348
35.520,-0.329
35.525,-0.173
35.530,-0.013
35.535,0.038
35.540,0.021
35.545,0.027
35.550,0.034
35.555,0.017
35.560,0.026
35.565,0.042
35.570,0.034
35.575,0.035
35.580,0.047
35.585,0.041
35.590,0.031
35.595,0.040
35.600,0.039
35.605,0.022
35.610,0.024
35.615,0.034
35.620,0.021
35.625,0.015
35.630,0.025
35.635,0.016
35.640,0.004
35.645,0.013
35.650,0.014
35.655,0.000
35.660,0.002
35.665,0.009
35.670,-0.006
35.675,-0.010
35.680,0.003
35.685,-0.009
35.690,-0.026
35.695,-0.017
35.700,-0.015
35.705,-0.032
35.710,-0.031
35.715,-0.026
35.720,-0.043
35.725,-0.048
35.730,-0.042
35.735,-0.056
35.740,-0.069
35.745,-0.063
35.750,-0.065
35.755,-0.083
35.760,-0.083
35.765,-0.078
35.770,-0.092
35.775,-0.092
35.780,-0.078
35.785,-0.083
35.790,-0.082
35.795,-0.057
35.800,-0.043
35.805,-0.037
35.810,-0.007
35.815,0.023
35.820,0.034
35.825,0.055
35.830,0.084
35.835,0.092
35.840,0.097
35.845,0.121
35.850,0.129
35.855,0.120
35.860,0.127
35.865,0.135
35.870,0.122
35.875,0.118
35.880,0.125
35.885,0.116
35.890,0.102
35.895,0.107
35.900,0.103
35.905,0.087
35.910,0.089
35.915,0.092
35.920,0.076
35.925,0.070
35.930,0.079
35.935,0.069
35.940,0.055
35.945,0.062
35.950,0.058
35.955,0.041
35.960,0.046
35.965,0.051
35.970,0.034
35.975,0.030
35.980,0.039
35.985,0.028
35.990,0.017
35.995,0.029
36.000,0.027
36.005,0.009
36.010,0.012
36.015,0.018
36.020,0.003
36.025,0.000
36.030,0.012
36.035,0.005
36.040,-0.006
36.045,0.004
36.050,0.003
36.055,-0.010
36.060,-0.002
36.065,0.005
36.070,-0.010
36.075,-0.012
36.080,-0.001
36.085,-0.007
36.090,-0.015
36.095,-0.006
36.100,-0.006
36.105,-0.019
36.110,-0.015
36.115,-0.006
36.120,-0.018
36.125,-0.020
36.130,-0.009
36.135,-0.017
36.140,-0.029
36.145,-0.016
36.150,-0.012
36.155,-0.027
36.160,-0.021
36.165,-0.011
36.170,-0.023
36.175,-0.027
36.180,-0.015
36.185,-0.021
36.190,-0.027
36.195,-0.016
36.200,-0.018
36.205,-0.032
36.210,-0.026
36.215,-0.022
36.220,-0.036
36.225,-0.036
36.230,-0.029
36.235,-0.046
36.240,-0.057
36.245,-0.041
36.250,-0.042
36.255,-0.067
36.260,-0.075
36.265,-0.070
36.270,-0.076
36.275,-0.074
36.280,-0.067
36.285,-0.077
36.290,-0.074
36.295,-0.047
36.300,-0.042
36.305,-0.046
36.310,-0.019
36.315,0.012
36.320,0.011
36.325,0.012
36.330,0.025
36.335,0.021
36.340,0.013
36.345,0.029
36.350,0.034
36.355,0.022
36.360,0.029
36.365,0.038
36.370,0.026
36.375,0.025
36.380,0.037
36.385,0.029
36.390,0.018
36.395,0.027
36.400,0.025
36.405,0.010
36.410,0.014
36.415,0.019
36.420,0.008
36.425,0.018
36.430,0.040
36.435,0.022
36.440,-0.027
36.445,-0.090
36.450,-0.196
36.455,-0.316
36.460,-0.323
36.465,-0.196
36.470,-0.057
36.475,0.022
36.480,0.033
36.485,0.014
36.490,0.013
36.495,0.025
36.500,0.025
36.505,0.019
36.510,0.031
36.515,0.040
36.520,0.028
36.525,0.028
36.530,0.042
36.535,0.035
36.540,0.025
36.545,0.031
36.550,0.030
36.555,0.017
36.560,0.021
36.565,0.026
36.570,0.011
36.575,0.010
36.580,0.019
36.585,0.009
36.590,0.002
36.595,0.013
36.600,0.009
36.605,-0.008
36.610,-0.002
36.615,0.002
36.620,-0.015
36.625,-0.015
36.630,-0.004
36.635,-0.016
36.640,-0.028
36.645,-0.019
36.650,-0.021
36.655,-0.037
36.660,-0.032
36.665,-0.027
36.670,-0.047
36.675,-0.055
36.680,-0.048
36.685,-0.060
36.690,-0.075
36.695,-0.069
36.700,-0.073
36.705,-0.087
36.710,-0.080
36.715,-0.075
36.720,-0.086
36.725,-0.080
36.730,-0.060
36.735,-0.063
36.740,-0.059
36.745,-0.028
36.750,-0.008
36.755,-0.001
36.760,0.028
36.765,0.055
36.770,0.061
36.775,0.077
36.780,0.102
36.785,0.103
36.790,0.103
36.795,0.122
36.800,0.124
36.805,0.111
36.810,0.120
36.815,0.125
36.820,0.108
36.825,0.106
36.830,0.113
36.835,0.100
36.840,0.089
36.845,0.094
36.850,0.089
36.855,0.072
36.860,0.076
36.865,0.079
36.870,0.062
36.875,0.059
36.880,0.065
36.885,0.053
36.890,0.045
36.895,0.055
36.900,0.049
36.905,0.031
36.910,0.037
36.915,0.043
36.920,0.025
36.925,0.021
36.930,0.029
36.935,0.016
36.940,0.007
36.945,0.020
36.950,0.017
36.955,0.000
36.960,0.008
36.965,0.013
36.970,-0.002
36.975,0.000
36.980,0.012
36.985,0.000
36.990,-0.009
36.995,0.003
37.000,0.001
37.005,-0.012
37.010,-0.003
37.015,0.005
37.020,-0.009
37.025,-0.012
37.030,0.001
37.035,-0.007
37.040,-0.018
37.045,-0.006
37.050,-0.005
37.055,-0.020
37.060,-0.014
37.065,-0.006
37.070,-0.019
37.075,-0.018
37.080,-0.005
37.085,-0.015
37.090,-0.024
37.095,-0.012
37.100,-0.013
37.105,-0.026
37.110,-0.020
37.115,-0.012
37.120,-0.021
37.125,-0.022
37.130,-0.012
37.135,-0.020
37.140,-0.029
37.145,-0.018
37.150,-0.017
37.155,-0.027
37.160,-0.017
37.165,-0.012
37.170,-0.029
37.175,-0.034
37.180,-0.023
37.185,-0.034
37.190,-0.051
37.195,-0.043
37.200,-0.042
37.205,-0.058
37.210,-0.061
37.215,-0.064
37.220,-0.079
37.225,-0.074
37.230,-0.058
37.235,-0.070
37.240,-0.083
37.245,-0.061
37.250,-0.049
37.255,-0.054
37.260,-0.038
37.265,-0.013
37.270,0.001
37.275,0.019
37.280,0.033
37.285,0.024
37.290,0.019
37.295,0.032
37.300,0.031
37.305,0.024
37.310,0.037
37.315,0.043
37.320,0.030
37.325,0.032
37.330,0.043
37.335,0.032
37.340,0.024
37.345,0.037
37.350,0.035
37.355,0.018
37.360,0.023
37.365,0.028
37.370,0.012
37.375,0.019
37.380,0.048
37.385,0.045
37.390,0.022
37.395,-0.008
37.400,-0.094
37.405,-0.224
37.410,-0.327
37.415,-0.339
37.420,-0.224
37.425,-0.057
37.430,0.026
37.435,0.008
37.440,0.005
37.445,0.033
37.450,0.029
37.455,0.022
37.460,0.044
37.465,0.052
37.470,0.036
37.475,0.040
37.480,0.053
37.485,0.041
37.490,0.032
37.495,0.043
37.500,0.038
37.505,0.022
37.510,0.030
37.515,0.034
37.520,0.018
37.525,0.020
37.530,0.029
37.535,0.016
37.540,0.007
37.545,0.017
37.550,0.014
37.555,-0.001
37.560,0.005
37.565,0.010
37.570,-0.005
37.575,-0.007
37.580,0.000
37.585,-0.011
37.590,-0.017
37.595,-0.008
37.600,-0.015
37.605,-0.031
37.610,-0.023
37.615,-0.022
37.620,-0.043
37.625,-0.045
37.630,-0.036
37.635,-0.053
37.640,-0.067
37.645,-0.059
37.650,-0.065
37.655,-0.081
37.660,-0.076
37.665,-0.075
37.670,-0.089
37.675,-0.085
37.680,-0.070
37.685,-0.075
37.690,-0.075
37.695,-0.048
37.700,-0.033
37.705,-0.027
37.710,0.003
37.715,0.030
37.720,0.036
37.725,0.056
37.730,0.084
37.735,0.086
37.740,0.093
37.745,0.114
37.750,0.113
37.755,0.103
37.760,0.117
37.765,0.124
37.770,0.108
37.775,0.106
37.780,0.115
37.785,0.099
37.790,0.087
37.795,0.098
37.800,0.094
37.805,0.077
37.810,0.080
37.815,0.081
37.820,0.064
37.825,0.062
37.830,0.068
37.835,0.053
37.840,0.045
37.845,0.057
37.850,0.052
37.855,0.035
37.860,0.042
37.865,0.043
37.870,0.024
37.875,0.026
37.880,0.037
37.885,0.021
37.890,0.011
37.895,0.023
37.900,0.021
37.905,0.005
37.910,0.011
37.915,0.017
37.920,0.002
37.925,0.002
37.930,0.015
37.935,0.002
37.940,-0.006
37.945,0.007
37.950,0.001
37.955,-0.012
37.960,-0.003
37.965,0.001
37.970,-0.013
37.975,-0.010
37.980,0.001
37.985,-0.012
37.990,-0.018
37.995,-0.004
38.000,-0.008
38.005,-0.020
38.010,-0.009
38.015,-0.004
38.020,-0.018
38.025,-0.017
38.030,-0.006
38.035,-0.015
38.040,-0.024
38.045,-0.013
38.050,-0.016
38.055,-0.026
38.060,-0.015
38.065,-0.012
38.070,-0.026
38.075,-0.022
38.080,-0.012
38.085,-0.023
38.090,-0.027
38.095,-0.013
38.100,-0.018
38.105,-0.031
38.110,-0.018
38.115,-0.014
38.120,-0.029
38.125,-0.025
38.130,-0.014
38.135,-0.026
38.140,-0.030
38.145,-0.018
38.150,-0.025
38.155,-0.040
38.160,-0.034
38.165,-0.036
38.170,-0.059
38.175,-0.054
38.180,-0.038
38.185,-0.061
38.190,-0.082
38.195,-0.071
38.200,-0.069
38.205,-0.076
38.210,-0.065
38.215,-0.065
38.220,-0.078
38.225,-0.059
38.230,-0.033
38.235,-0.041
38.240,-0.037
38.245,0.002
38.250,0.021
38.255,0.018
38.260,0.030
38.265,0.033
38.270,0.020
38.275,0.027
38.280,0.042
38.285,0.035
38.290,0.032
38.295,0.047
38.300,0.043
38.305,0.029
38.310,0.037
38.315,0.043
38.320,0.027
38.325,0.027
38.330,0.037
38.335,0.023
38.340,0.015
38.345,0.028
38.350,0.025
38.355,0.026
38.360,0.049
38.365,0.048
38.370,0.005
38.375,-0.061
38.380,-0.155
38.385,-0.288
38.390,-0.366
38.395,-0.278
38.400,-0.107
38.405,-0.001
38.410,0.025
38.415,0.017
38.420,0.014
38.425,0.025
38.430,0.035
38.435,0.031
38.440,0.033
38.445,0.049
38.450,0.046
38.455,0.034
38.460,0.044
38.465,0.048
38.470,0.031
38.475,0.033
38.480,0.043
38.485,0.028
38.490,0.021
38.495,0.033
38.500,0.024
38.505,0.009
38.510,0.018
38.515,0.021
38.520,0.007
38.525,0.011
38.530,0.019
38.535,0.001
38.540,-0.006
38.545,0.007
38.550,-0.002
38.555,-0.017
38.560,-0.006
38.565,-0.003
38.570,-0.021
38.575,-0.021
38.580,-0.014
38.585,-0.029
38.590,-0.038
38.595,-0.028
38.600,-0.036
38.605,-0.054
38.610,-0.049
38.615,-0.048
38.620,-0.069
38.625,-0.071
38.630,-0.064
38.635,-0.082
38.640,-0.091
38.645,-0.077
38.650,-0.080
38.655,-0.092
38.660,-0.075
38.665,-0.063
38.670,-0.072
38.675,-0.053
38.680,-0.021
38.685,-0.013
38.690,0.003
38.695,0.038
38.700,0.054
38.705,0.062
38.710,0.088
38.715,0.101
38.720,0.099
38.725,0.113
38.730,0.127
38.735,0.114
38.740,0.110
38.745,0.123
38.750,0.113
38.755,0.100
38.760,0.111
38.765,0.110
38.770,0.090
38.775,0.088
38.780,0.096
38.785,0.080
38.790,0.068
38.795,0.076
38.800,0.071
38.805,0.056
38.810,0.064
38.815,0.066
38.820,0.049
38.825,0.047
38.830,0.053
38.835,0.042
38.840,0.036
38.845,0.042
38.850,0.033
38.855,0.022
38.860,0.030
38.865,0.030
38.870,0.013
38.875,0.016
38.880,0.025
38.885,0.011
38.890,0.006
38.895,0.019
38.900,0.012
38.905,-0.003
38.910,0.008
38.915,0.011
38.920,-0.007
38.925,-0.006
38.930,0.005
38.935,-0.007
38.940,-0.010
38.945,0.001
38.950,-0.004
38.955,-0.012
38.960,-0.002
38.965,-0.002
38.970,-0.016
38.975,-0.011
38.980,-0.004
38.985,-0.018
38.990,-0.022
38.995,-0.008
39.000,-0.010
39.005,-0.023
39.010,-0.015
39.015,-0.011
39.020,-0.024
39.025,-0.020
39.030,-0.010
39.035,-0.021
39.040,-0.024
39.045,-0.009
39.050,-0.017
39.055,-0.031
39.060,-0.018
39.065,-0.014
39.070,-0.030
39.075,-0.023
39.080,-0.013
39.085,-0.027
39.090,-0.030
39.095,-0.015
39.100,-0.021
39.105,-0.031
39.110,-0.017
39.115,-0.015
39.120,-0.031
39.125,-0.025
39.130,-0.017
39.135,-0.033
39.140,-0.039
39.145,-0.030
39.150,-0.041
39.155,-0.057
39.160,-0.049
39.165,-0.048
39.170,-0.070
39.175,-0.078
39.180,-0.072
39.185,-0.080
39.190,-0.077
39.195,-0.061
39.200,-0.074
39.205,-0.083
39.210,-0.055
39.215,-0.037
39.220,-0.046
39.225,-0.030
39.230,0.006
39.235,0.017
39.240,0.024
39.245,0.040
39.250,0.031
39.255,0.019
39.260,0.038
39.265,0.044
39.270,0.031
39.275,0.040
39.280,0.054
39.285,0.039
39.290,0.033
39.295,0.049
39.300,0.042
39.305,0.027
39.310,0.038
39.315,0.038
39.320,0.019
39.325,0.025
39.330,0.034
39.335,0.017
39.340,0.023
39.345,0.056
39.350,0.050
39.355,0.012
39.360,-0.040
39.365,-0.148
39.370,-0.297
39.375,-0.376
39.380,-0.305
39.385,-0.144
39.390,-0.013
39.395,0.035
39.400,0.021
39.405,0.015
39.410,0.033
39.415,0.033
39.420,0.025
39.425,0.042
39.430,0.053
39.435,0.041
39.440,0.040
39.445,0.053
39.450,0.045
39.455,0.031
39.460,0.043
39.465,0.043
39.470,0.022
39.475,0.027
39.480,0.039
39.485,0.022
39.490,0.015
39.495,0.027
39.500,0.018
39.505,0.007
39.510,0.016
39.515,0.013
39.520,-0.003
39.525,0.002
39.530,0.010
39.535,-0.007
39.540,-0.011
39.545,0.004
39.550,-0.008
39.555,-0.027
39.560,-0.016
39.565,-0.016
39.570,-0.035
39.575,-0.030
39.580,-0.026
39.585,-0.048
39.590,-0.057
39.595,-0.049
39.600,-0.060
39.605,-0.075
39.610,-0.070
39.615,-0.076
39.620,-0.095
39.625,-0.089
39.630,-0.082
39.635,-0.098
39.640,-0.098
39.645,-0.076
39.650,-0.074
39.655,-0.076
39.660,-0.048
39.665,-0.025
39.670,-0.019
39.675,0.010
39.680,0.043
39.685,0.052
39.690,0.068
39.695,0.099
39.700,0.108
39.705,0.108
39.710,0.130
39.715,0.137
39.720,0.120
39.725,0.122
39.730,0.135
39.735,0.124
39.740,0.115
39.745,0.122
39.750,0.110
39.755,0.095
39.760,0.105
39.765,0.102
39.770,0.079
39.775,0.082
39.780,0.091
39.785,0.074
39.790,0.066
39.795,0.074
39.800,0.059
39.805,0.049
39.810,0.065
39.815,0.058
39.820,0.038
39.825,0.043
39.830,0.048
39.835,0.032
39.840,0.027
39.845,0.035
39.850,0.025
39.855,0.013
39.860,0.024
39.865,0.025
39.870,0.006
39.875,0.007
39.880,0.018
39.885,0.005
39.890,-0.004
39.895,0.005
39.900,0.006
39.905,-0.004
39.910,0.001
39.915,0.004
39.920,-0.009
39.925,-0.007
39.930,-0.001
39.935,-0.014
39.940,-0.017
39.945,-0.002
39.950,-0.009
39.955,-0.020
39.960,-0.008
39.965,-0.007
39.970,-0.023
39.975,-0.016
39.980,-0.007
39.985,-0.021
39.990,-0.022
39.995,-0.011
40.000,-0.022
40.005,-0.029
40.010,-0.012
40.015,-0.013
40.020,-0.032
40.025,-0.028
40.030,-0.015
40.035,-0.022
40.040,-0.026
40.045,-0.017
40.050,-0.025
40.055,-0.033
40.060,-0.021
40.065,-0.022
40.070,-0.036
40.075,-0.028
40.080,-0.023
40.085,-0.042
40.090,-0.043
40.095,-0.026
40.100,-0.034
40.105,-0.055
40.110,-0.050
40.115,-0.038
40.120,-0.039
40.125,-0.040
40.130,-0.049
40.135,-0.055
40.140,-0.036
40.145,-0.028
40.150,-0.064
40.155,-0.090
40.160,-0.070
40.165,-0.065
40.170,-0.088
40.175,-0.077
40.180,-0.060
40.185,-0.061
40.190,-0.046
40.195,-0.038
40.200,-0.039
40.205,-0.013
40.210,0.022
40.215,0.033
40.220,0.023
40.225,0.023
40.230,0.026
40.235,0.019
40.240,0.025
40.245,0.035
40.250,0.029
40.255,0.023
40.260,0.039
40.265,0.046
40.270,0.021
40.275,0.011
40.280,0.037
40.285,0.049
40.290,0.036
40.295,0.029
40.300,0.006
40.305,0.005
40.310,0.043
40.315,0.048
40.320,0.034
40.325,0.036
40.330,0.018
40.335,-0.045
40.340,-0.132
40.345,-0.241
40.350,-0.345
40.355,-0.310
40.360,-0.147
40.365,-0.024
40.370,0.026
40.375,0.035
40.380,0.029
40.385,0.025
40.390,0.016
40.395,0.021
40.400,0.028
40.405,0.030
40.410,0.051
40.415,0.051
40.420,0.026
40.425,0.034
40.430,0.042
40.435,0.019
40.440,0.024
40.445,0.046
40.450,0.025
40.455,0.007
40.460,0.021
40.465,0.014
40.470,0.001
40.475,0.025
40.480,0.040
40.485,0.015
40.490,0.000
40.495,0.012
40.500,0.002
40.505,-0.007
40.510,0.002
40.515,-0.006
40.520,-0.008
40.525,0.006
40.530,0.004
40.535,-0.025
40.540,-0.025
40.545,0.001
40.550,-0.026
40.555,-0.049
40.560,-0.030
40.565,-0.028
40.570,-0.050
40.575,-0.058
40.580,-0.051
40.585,-0.064
40.590,-0.078
40.595,-0.066
40.600,-0.066
40.605,-0.091
40.610,-0.087
40.615,-0.058
40.620,-0.061
40.625,-0.064
40.630,-0.050
40.635,-0.043
40.640,-0.020
40.645,0.022
40.650,0.019
40.655,0.011
40.660,0.053
40.665,0.089
40.670,0.097
40.675,0.112
40.680,0.123
40.685,0.120
40.690,0.128
40.695,0.137
40.700,0.129
40.705,0.115
40.710,0.126
40.715,0.131
40.720,0.104
40.725,0.109
40.730,0.112
40.735,0.084
40.740,0.094
40.745,0.103
40.750,0.080
40.755,0.074
40.760,0.082
40.765,0.066
40.770,0.046
40.775,0.055
40.780,0.066
40.785,0.058
40.790,0.045
40.795,0.036
40.800,0.020
40.805,0.022
40.810,0.046
40.815,0.039
40.820,0.006
40.825,0.003
40.830,0.026
40.835,0.021
40.840,0.010
40.845,0.013
40.850,-0.007
40.855,-0.019
40.860,-0.010
40.865,-0.011
40.870,-0.009
40.875,0.011
40.880,0.015
40.885,-0.008
40.890,-0.007
40.895,0.002
40.900,-0.016
40.905,-0.024
40.910,0.004
40.915,0.009
40.920,-0.019
40.925,-0.021
40.930,-0.012
40.935,-0.025
40.940,-0.023
40.945,-0.005
40.950,-0.013
40.955,-0.028
40.960,-0.014
40.965,-0.015
40.970,-0.038
40.975,-0.035
40.980,-0.020
40.985,-0.018
40.990,-0.016
40.995,-0.014
41.000,-0.024
41.005,-0.024
41.010,-0.012
41.015,-0.016
41.020,-0.035
41.025,-0.041
41.030,-0.028
41.035,-0.027
41.040,-0.030
41.045,-0.016
41.050,-0.027
41.055,-0.041
41.060,-0.017
41.065,-0.021
41.070,-0.047
41.075,-0.043
41.080,-0.041
41.085,-0.057
41.090,-0.055
41.095,-0.048
41.100,-0.072
41.105,-0.086
41.110,-0.079
41.115,-0.086
41.120,-0.084
41.125,-0.070
41.130,-0.058
41.135,-0.051
41.140,-0.050
41.145,-0.042
41.150,-0.033
41.155,-0.011
41.160,0.026
41.165,0.031
41.170,0.019
41.175,0.025
41.180,0.032
41.185,0.023
41.190,0.013
41.195,0.027
41.200,0.044
41.205,0.034
41.210,0.034
41.215,0.041
41.220,0.026
41.225,0.033
41.230,0.047
41.235,0.021
41.240,0.012
41.245,0.029
41.250,0.009
41.255,0.002
41.260,0.034
41.265,0.040
41.270,0.022
41.275,-0.013
41.280,-0.143
41.285,-0.334
41.290,-0.397
41.295,-0.355
41.300,-0.339
41.305,-0.326
41.310,-0.302
41.315,-0.286
41.320,-0.267
41.325,-0.249
41.330,-0.231
41.335,-0.214
41.340,-0.197
41.345,-0.181
41.350,-0.165
41.355,-0.150
41.360,-0.136
41.365,-0.121
41.370,-0.107
41.375,-0.094
41.380,-0.082
41.385,-0.069
41.390,-0.058
41.395,-0.047
41.400,-0.036
41.405,-0.026
41.410,-0.016
41.415,-0.007
41.420,0.003
41.425,0.011
41.430,0.019
41.435,0.026
41.440,0.033
41.445,0.041
41.450,0.047
41.455,0.053
41.460,0.059
41.465,0.064
41.470,0.069
41.475,0.073
41.480,0.078
41.485,0.082
41.490,0.086
41.495,0.089
41.500,0.092
41.505,0.095
41.510,0.098
41.515,0.100
41.520,0.103
41.525,0.105
41.530,0.106
41.535,0.108
41.540,0.109
41.545,0.110
41.550,0.111
41.555,0.111
41.560,0.112
41.565,0.112
41.570,0.112
41.575,0.112
41.580,0.112
41.585,0.112
41.590,0.112
41.595,0.111
41.600,0.110
41.605,0.110
41.610,0.109
41.615,0.108
41.620,0.107
41.625,0.106
41.630,0.105
41.635,0.103
41.640,0.102
41.645,0.101
41.650,0.099
41.655,0.097
41.660,0.096
41.665,0.094
41.670,0.091
41.675,0.090
41.680,0.089
41.685,0.086
41.690,0.084
41.695,0.082
41.700,0.080
41.705,0.078
41.710,0.076
41.715,0.075
41.720,0.072
41.725,0.070
41.730,0.069
41.735,0.067
41.740,0.064
41.745,0.062
41.750,0.060
41.755,0.058
41.760,0.056
41.765,0.054
41.770,0.052
41.775,0.050
41.780,0.048
41.785,0.046
41.790,0.045
41.795,0.042
41.800,0.040
41.805,0.038
41.810,0.037
41.815,0.035
41.820,0.033
41.825,0.031
41.830,0.029
41.835,0.027
41.840,0.026
41.845,0.024
41.850,0.023
41.855,0.022
41.860,0.020
41.865,0.017
41.870,0.016
41.875,0.015
41.880,0.013
41.885,0.012
41.890,0.011
41.895,0.010
41.900,0.008
41.905,0.007
41.910,0.006
41.915,0.005
41.920,0.003
41.925,0.002
41.930,0.002
41.935,0.001
41.940,-0.001
41.945,-0.002
41.950,-0.003
41.955,-0.004
41.960,-0.005
41.965,-0.005
41.970,-0.006
41.975,-0.007
41.980,-0.008
41.985,-0.008
41.990,-0.009
41.995,-0.010
42.000,-0.011
42.005,-0.011
42.010,-0.012
42.015,-0.012
42.020,-0.013
42.025,-0.013
42.030,-0.014
42.035,-0.015
42.040,-0.015
42.045,-0.016
42.050,-0.016
42.055,-0.016
42.060,-0.017
42.065,-0.017
42.070,-0.017
42.075,-0.018
42.080,-0.018
42.085,-0.018
42.090,-0.018
42.095,-0.018
42.100,-0.018
42.105,-0.019
42.110,-0.019
42.115,-0.019
42.120,-0.019
42.125,-0.019
42.130,-0.019
42.135,-0.020
42.140,-0.020
42.145,-0.019
42.150,-0.019
42.155,-0.019
42.160,-0.020
42.165,-0.019
42.170,-0.019
42.175,-0.019
42.180,-0.019
42.185,-0.019
42.190,-0.019
42.195,-0.019
42.200,-0.019
42.205,-0.019
42.210,-0.019
42.215,-0.018
42.220,-0.019
42.225,-0.019
42.230,-0.018
42.235,-0.018
42.240,-0.018
42.245,-0.018
42.250,-0.018
42.255,-0.018
42.260,-0.017
42.265,-0.017
42.270,-0.017
42.275,-0.017
42.280,-0.016
42.285,-0.017
42.290,-0.016
42.295,-0.016
42.300,-0.016
42.305,-0.016
42.310,-0.015
42.315,-0.015
42.320,-0.015
42.325,-0.015
42.330,-0.015
42.335,-0.014
42.340,-0.014
42.345,-0.014
42.350,-0.014
42.355,-0.013
42.360,-0.013
42.365,-0.013
42.370,-0.012
42.375,-0.012
42.380,-0.013
42.385,-0.012
42.390,-0.012
42.395,-0.012
42.400,-0.012
42.405,-0.011
42.410,-0.011
42.415,-0.011
42.420,-0.010
42.425,-0.010
42.430,-0.010
42.435,-0.010
42.440,-0.010
42.445,-0.010
42.450,-0.009
42.455,-0.009
42.460,-0.009
42.465,-0.009
42.470,-0.009
42.475,-0.008
42.480,-0.008
42.485,-0.008
42.490,-0.008
42.495,-0.008
42.500,-0.008
42.505,-0.008
42.510,-0.008
42.515,-0.007
42.520,-0.007
42.525,-0.007
42.530,-0.007
42.535,-0.006
42.540,-0.006
42.545,-0.006
42.550,-0.006
42.555,-0.005
42.560,-0.005
42.565,-0.006
42.570,-0.005
42.575,-0.005
42.580,-0.005
42.585,-0.005
42.590,-0.005
42.595,-0.005
42.600,-0.004
42.605,-0.004
42.610,-0.004
42.615,-0.004
42.620,-0.004
42.625,-0.004
42.630,-0.004
42.635,-0.004
42.640,-0.004
42.645,-0.004
42.650,-0.003
42.655,-0.003
42.660,-0.004
42.665,-0.003
42.670,-0.003
42.675,-0.003
42.680,-0.003
42.685,-0.003
42.690,-0.003
42.695,-0.003
42.700,-0.003
42.705,-0.003
42.710,-0.003
42.715,-0.002
42.720,-0.002
42.725,-0.002
42.730,-0.002
42.735,-0.002
42.740,-0.002
42.745,-0.002
42.750,-0.002
42.755,-0.002
42.760,-0.002
42.765,-0.002
42.770,-0.002
42.775,-0.002
42.780,-0.002
42.785,-0.002
42.790,-0.002
42.795,-0.001
42.800,-0.001
42.805,-0.002
42.810,-0.001
42.815,-0.001
42.820,-0.002
42.825,-0.001
42.830,-0.001
42.835,-0.001
42.840,-0.001
42.845,-0.001
42.850,-0.001
42.855,-0.001
42.860,-0.001
42.865,-0.001
42.870,-0.001
42.875,-0.001
42.880,-0.001
42.885,-0.001
42.890,-0.001
42.895,-0.001
42.900,-0.001
42.905,-0.001
42.910,-0.001
42.915,-0.001
42.920,-0.001
42.925,-0.001
42.930,-0.001
42.935,0.000
42.940,0.000
42.945,-0.001
42.950,-0.001
42.955,-0.001
42.960,0.000
42.965,0.000
42.970,-0.001
42.975,0.000
42.980,-0.001
42.985,-0.001
42.990,-0.001
42.995,0.000
43.000,0.000
43.005,-0.001
43.010,-0.001
43.015,-0.001
43.020,0.000
43.025,0.000
43.030,-0.001
43.035,0.000
43.040,0.000
43.045,-0.001
43.050,-0.001
43.055,-0.001
43.060,0.000
43.065,-0.001
43.070,-0.001
43.075,0.000
43.080,0.000
43.085,-0.001
43.090,-0.001
43.095,-0.001
43.100,-0.001
43.105,0.000
43.110,-0.001
43.115,-0.001
43.120,-0.001
43.125,-0.001
43.130,0.000
43.135,0.000
43.140,0.000
43.145,0.000
43.150,0.000
43.155,0.000
43.160,0.000
43.165,0.000
43.170,0.000
43.175,0.000
43.180,0.000
43.185,0.000
43.190,0.000
43.195,0.000
43.200,0.000
43.205,0.000
43.210,0.000
43.215,0.000
43.220,0.000
43.225,0.000
43.230,0.000
43.235,0.000
43.240,0.000
43.245,0.000
43.250,0.000
43.255,0.000
43.260,0.000
43.265,-0.001
43.270,-0.001
43.275,0.000
43.280,0.000
43.285,0.000
43.290,0.000
43.295,0.000
43.300,0.000
43.305,0.000
43.310,-0.001
43.315,-0.001
43.320,0.000
43.325,0.000
43.330,0.000
43.335,0.000
43.340,0.000
43.345,0.000
43.350,-0.001
43.355,0.000
43.360,0.000
43.365,0.000
43.370,0.000
43.375,0.000
43.380,0.000
43.385,0.000
43.390,0.000
43.395,0.000
43.400,0.000
43.405,0.000
43.410,0.000
43.415,0.000
43.420,0.000
43.425,-0.001
43.430,-0.001
43.435,0.000
43.440,0.000
43.445,0.000
43.450,0.000
43.455,0.000
43.460,0.000
43.465,0.000
43.470,0.000
43.475,0.000
43.480,0.000
43.485,0.000
43.490,0.000
43.495,0.000
43.500,0.000
43.505,0.000
43.510,0.000
43.515,0.000
43.520,0.000
43.525,0.000
43.530,-0.001
43.535,-0.001
43.540,0.000
43.545,0.000
43.550,0.000
43.555,0.000
43.560,0.000
43.565,0.000
43.570,0.000
43.575,0.000
43.580,0.000
43.585,0.000
43.590,0.000
43.595,0.000
43.600,0.000
43.605,0.000
43.610,0.000
43.615,0.000
43.620,0.000
43.625,0.000
43.630,0.000
43.635,0.000
43.640,0.000
43.645,0.000
43.650,0.000
43.655,0.000
43.660,0.000
43.665,0.000
43.670,0.000
43.675,0.000
43.680,0.000
43.685,0.000
43.690,0.000
43.695,0.000
43.700,0.000
43.705,0.000
43.710,0.000
43.715,0.000
43.720,0.000
43.725,0.000
43.730,0.000
43.735,0.000
43.740,0.000
43.745,0.000
43.750,0.000
43.755,0.000
43.760,0.000
43.765,0.000
43.770,0.000
43.775,0.000
43.780,0.000
43.785,0.000
43.790,0.000
43.795,0.000
43.800,0.000
43.805,0.000
43.810,0.000
43.815,0.000
43.820,0.000
43.825,0.000
43.830,0.000
43.835,0.000
43.840,0.000
43.845,0.000
43.850,0.000
43.855,0.000
43.860,0.000
43.865,0.000
43.870,0.000
43.875,-0.001
43.880,0.000
43.885,0.000
43.890,0.000
43.895,0.000
43.900,0.000
43.905,0.000
43.910,0.000
43.915,0.000
43.920,0.000
43.925,0.000
43.930,0.000
43.935,0.000
43.940,0.000
43.945,0.000
43.950,0.000
43.955,0.000
43.960,0.000
43.965,0.000
43.970,0.000
43.975,0.000
43.980,0.000
43.985,0.000
43.990,0.000
43.995,0.000
44.000,0.000
44.005,0.000
44.010,0.000
44.015,0.000
44.020,0.000
44.025,0.000
44.030,0.000
44.035,0.000
44.040,0.000
44.045,0.000
44.050,0.000
44.055,0.000
44.060,0.000
44.065,0.000
44.070,0.000
44.075,0.000
44.080,0.000
44.085,0.000
44.090,0.000
44.095,0.000
44.100,0.000
44.105,0.000
44.110,0.000
44.115,0.000
44.120,0.000
44.125,0.000
44.130,0.000
44.135,0.000
44.140,0.000
44.145,0.000
44.150,0.000
44.155,0.000
44.160,0.000
44.165,0.000
44.170,0.000
44.175,0.000
44.180,0.000
44.185,0.000
44.190,0.000
44.195,0.000
44.200,0.000
44.205,0.000
44.210,0.000
44.215,0.000
44.220,0.000
44.225,0.000
44.230,0.000
44.235,0.000
44.240,0.000
44.245,0.000
44.250,0.000
44.255,0.000
44.260,0.000
44.265,0.000
44.270,0.000
44.275,0.000
44.280,0.000
44.285,0.000
44.290,0.000
44.295,0.000
44.300,0.000
44.305,0.000
44.310,0.000
44.315,0.000
44.320,0.000
44.325,0.000
44.330,0.000
44.335,0.000
44.340,0.000
44.345,0.000
44.350,0.000
44.355,0.000
44.360,0.000
44.365,0.000
44.370,0.000
44.375,0.000
44.380,0.000
44.385,0.000
44.390,0.000
44.395,0.000
44.400,0.000
44.405,0.000
44.410,0.000
44.415,0.000
44.420,0.000
44.425,0.000
44.430,0.000
44.435,0.000
44.440,0.000
44.445,0.000
44.450,0.000
44.455,0.000
44.460,0.000
44.465,0.000
44.470,0.000
44.475,0.000
44.480,0.000
44.485,0.000
44.490,0.000
44.495,0.000
44.500,0.000
44.505,0.000
44.510,0.000
44.515,0.000
44.520,0.000
44.525,0.000
44.530,0.000
44.535,0.000
44.540,0.000
44.545,0.000
44.550,0.000
44.555,0.000
44.560,0.000
44.565,0.000
44.570,0.000
44.575,0.000
44.580,0.000
44.585,0.000
44.590,0.000
44.595,0.000
44.600,0.000
44.605,0.000
44.610,0.000
44.615,0.000
44.620,0.000
44.625,0.000
44.630,0.000
44.635,0.000
44.640,0.000
44.645,0.000
44.650,0.000
44.655,0.000
44.660,0.000
44.665,0.000
44.670,0.000
44.675,0.000
44.680,0.000
44.685,0.000
44.690,0.000
44.695,0.000
44.700,0.000
44.705,0.000
44.710,0.000
44.715,0.000
44.720,0.000
44.725,0.000
44.730,0.000
44.735,0.000
44.740,0.000
44.745,0.000
44.750,0.000
44.755,0.000
44.760,0.000
44.765,0.000
44.770,0.000
44.775,0.000
44.780,0.000
44.785,0.000
44.790,0.000
44.795,0.000
44.800,0.000
44.805,0.000
44.810,0.000
44.815,0.000
44.820,0.000
44.825,0.000
44.830,0.001
44.835,0.001
44.840,0.000
44.845,0.000
44.850,0.000
44.855,0.000
44.860,0.000
44.865,0.000
44.870,0.000
44.875,0.000
44.880,0.000
44.885,0.000
44.890,0.000
44.895,0.000
44.900,0.000
44.905,0.000
44.910,0.000
44.915,0.000
44.920,0.000
44.925,0.000
44.930,0.000
44.935,0.000
44.940,0.000
44.945,0.000
44.950,0.000
44.955,0.000
44.960,0.000
44.965,0.000
44.970,0.000
44.975,0.000
44.980,0.000
44.985,0.000
44.990,0.000
44.995,0.000
45.000,0.000
45.005,0.000
45.010,0.000
45.015,0.000
45.020,0.000
45.025,0.000
45.030,0.000
45.035,0.000
45.040,0.000
45.045,0.000
45.050,0.000
45.055,0.000
45.060,0.000
45.065,0.000
45.070,0.000
45.075,0.000
45.080,0.000
45.085,0.000
45.090,0.000
45.095,0.000
45.100,0.000
45.105,0.000
45.110,0.000
45.115,0.000
45.120,0.000
45.125,0.000
45.130,0.000
45.135,0.000
45.140,0.000
45.145,0.000
45.150,0.000
45.155,0.000
45.160,0.000
45.165,0.000
45.170,0.000
45.175,0.000
45.180,0.000
45.185,0.000
45.190,0.000
45.195,0.000
45.200,0.000
45.205,0.000
45.210,0.000
45.215,0.001
45.220,0.000
45.225,-0.001
45.230,0.000
45.235,0.000
45.240,0.000
45.245,0.000
45.250,0.000
45.255,0.000
45.260,0.000
45.265,0.000
45.270,0.000
45.275,0.000
45.280,0.000
45.285,0.000
45.290,0.000
45.295,-0.001
45.300,0.000
