'Elapsed time','ECG'
'seconds','mV'
0.000,-0.109
0.005,-0.065
0.010,0.120
0.015,-0.039
0.020,-0.214
0.025,0.116
0.030,0.062
0.035,-0.241
0.040,0.001
0.045,0.147
0.050,-0.183
0.055,-0.126
0.060,0.167
0.065,-0.077
0.070,-0.227
0.075,0.101
0.080,0.035
0.085,-0.268
0.090,-0.031
0.095,0.112
0.100,-0.216
0.105,-0.150
0.110,0.156
0.115,-0.077
0.120,-0.216
0.125,0.128
0.130,0.082
0.135,-0.206
0.140,0.042
0.145,0.198
0.150,-0.127
0.155,-0.068
0.160,0.229
0.165,-0.007
0.170,-0.152
0.175,0.175
0.180,0.112
0.185,-0.188
0.190,0.051
0.195,0.201
0.200,-0.133
0.205,-0.079
0.210,0.218
0.215,-0.025
0.220,-0.177
0.225,0.151
0.230,0.091
0.235,-0.206
0.240,0.027
0.245,0.175
0.250,-0.146
0.255,-0.094
0.260,0.190
0.265,-0.046
0.270,-0.188
0.275,0.141
0.280,0.090
0.285,-0.205
0.290,0.024
0.295,0.178
0.300,-0.143
0.305,-0.090
0.310,0.205
0.315,-0.027
0.320,-0.178
0.325,0.138
0.330,0.078
0.335,-0.222
0.340,-0.006
0.345,0.127
0.350,-0.202
0.355,-0.152
0.360,0.131
0.365,-0.121
0.370,-0.285
0.375,0.051
0.380,0.017
0.385,-0.270
0.390,-0.026
0.395,0.140
0.400,-0.161
0.405,-0.080
0.410,0.242
0.415,0.040
0.420,-0.093
0.425,0.229
0.430,0.182
0.435,-0.110
0.440,0.109
0.445,0.259
0.450,-0.062
0.455,-0.022
0.460,0.273
0.465,0.056
0.470,-0.093
0.475,0.222
0.480,0.164
0.485,-0.135
0.490,0.092
0.495,0.240
0.500,-0.085
0.505,-0.040
0.510,0.246
0.515,0.009
0.520,-0.151
0.525,0.184
0.530,0.163
0.535,-0.163
0.540,-0.050
0.545,-0.076
0.550,-0.709
0.555,-1.053
0.560,-0.991
0.565,-1.034
0.570,-0.618
0.575,0.244
0.580,0.498
0.585,0.331
0.590,0.537
0.595,0.578
0.600,0.152
0.605,0.129
0.610,0.381
0.615,0.141
0.620,-0.011
0.625,0.308
0.630,0.253
0.635,-0.054
0.640,0.162
0.645,0.309
0.650,-0.022
0.655,0.010
0.660,0.300
0.665,0.068
0.670,-0.100
0.675,0.217
0.680,0.176
0.685,-0.124
0.690,0.093
0.695,0.245
0.700,-0.089
0.705,-0.059
0.710,0.233
0.715,0.011
0.720,-0.146
0.725,0.174
0.730,0.130
0.735,-0.171
0.740,0.045
0.745,0.193
0.750,-0.139
0.755,-0.103
0.760,0.195
0.765,-0.030
0.770,-0.192
0.775,0.128
0.780,0.080
0.785,-0.222
0.790,0.008
0.795,0.160
0.800,-0.174
0.805,-0.131
0.810,0.169
0.815,-0.063
0.820,-0.227
0.825,0.092
0.830,0.047
0.835,-0.251
0.840,-0.032
0.845,0.112
0.850,-0.222
0.855,-0.169
0.860,0.146
0.865,-0.079
0.870,-0.233
0.875,0.103
0.880,0.073
0.885,-0.208
0.890,0.038
0.895,0.204
0.900,-0.127
0.905,-0.075
0.910,0.241
0.915,-0.003
0.920,-0.177
0.925,0.165
0.930,0.124
0.935,-0.184
0.940,0.059
0.945,0.215
0.950,-0.134
0.955,-0.082
0.960,0.239
0.965,-0.003
0.970,-0.185
0.975,0.156
0.980,0.120
0.985,-0.206
0.990,0.019
0.995,0.188
1.000,-0.160
1.005,-0.114
1.010,0.217
1.015,-0.024
1.020,-0.201
1.025,0.149
1.030,0.105
1.035,-0.218
1.040,0.018
1.045,0.189
1.050,-0.151
1.055,-0.127
1.060,0.171
1.065,-0.070
1.070,-0.249
1.075,0.081
1.080,0.044
1.085,-0.270
1.090,-0.063
1.095,0.078
1.100,-0.251
1.105,-0.206
1.110,0.098
1.115,-0.116
1.120,-0.257
1.125,0.104
1.130,0.109
1.135,-0.168
1.140,0.067
1.145,0.242
1.150,-0.076
1.155,-0.040
1.160,0.261
1.165,0.034
1.170,-0.129
1.175,0.205
1.180,0.171
1.185,-0.137
1.190,0.077
1.195,0.241
1.200,-0.081
1.205,-0.053
1.210,0.249
1.215,0.029
1.220,-0.143
1.225,0.182
1.230,0.143
1.235,-0.172
1.240,0.048
1.245,0.212
1.250,-0.115
1.255,-0.064
1.260,0.253
1.265,-0.033
1.270,-0.337
1.275,-0.206
1.280,-0.566
1.285,-1.231
1.290,-1.146
1.295,-0.675
1.300,-0.396
1.305,0.103
1.310,0.632
1.315,0.497
1.320,0.286
1.325,0.508
1.330,0.386
1.335,0.011
1.340,0.190
1.345,0.345
1.350,0.007
1.355,0.027
1.360,0.328
1.365,0.102
1.370,-0.078
1.375,0.239
1.380,0.203
1.385,-0.113
1.390,0.096
1.395,0.264
1.400,-0.066
1.405,-0.043
1.410,0.261
1.415,0.035
1.420,-0.149
1.425,0.172
1.430,0.138
1.435,-0.181
1.440,0.036
1.445,0.210
1.450,-0.122
1.455,-0.100
1.460,0.209
1.465,-0.013
1.470,-0.195
1.475,0.128
1.480,0.099
1.485,-0.212
1.490,0.005
1.495,0.174
1.500,-0.155
1.505,-0.132
1.510,0.171
1.515,-0.046
1.520,-0.223
1.525,0.103
1.530,0.077
1.535,-0.238
1.540,-0.016
1.545,0.165
1.550,-0.169
1.555,-0.147
1.560,0.162
1.565,-0.070
1.570,-0.259
1.575,0.070
1.580,0.047
1.585,-0.267
1.590,-0.042
1.595,0.149
1.600,-0.172
1.605,-0.139
1.610,0.187
1.615,-0.024
1.620,-0.194
1.625,0.145
1.630,0.126
1.635,-0.183
1.640,0.039
1.645,0.220
1.650,-0.111
1.655,-0.092
1.660,0.221
1.665,0.003
1.670,-0.175
1.675,0.159
1.680,0.134
1.685,-0.190
1.690,0.023
1.695,0.203
1.700,-0.130
1.705,-0.113
1.710,0.201
1.715,-0.014
1.720,-0.201
1.725,0.120
1.730,0.097
1.735,-0.223
1.740,-0.007
1.745,0.178
1.750,-0.155
1.755,-0.133
1.760,0.191
1.765,-0.030
1.770,-0.219
1.775,0.112
1.780,0.085
1.785,-0.248
1.790,-0.044
1.795,0.130
1.800,-0.204
1.805,-0.183
1.810,0.133
1.815,-0.093
1.820,-0.301
1.825,0.015
1.830,0.007
1.835,-0.298
1.840,-0.074
1.845,0.131
1.850,-0.180
1.855,-0.140
1.860,0.209
1.865,0.020
1.870,-0.145
1.875,0.199
1.880,0.183
1.885,-0.139
1.890,0.080
1.895,0.272
1.900,-0.062
1.905,-0.045
1.910,0.278
1.915,0.061
1.920,-0.130
1.925,0.200
1.930,0.182
1.935,-0.139
1.940,0.072
1.945,0.255
1.950,-0.078
1.955,-0.066
1.960,0.253
1.965,0.033
1.970,-0.164
1.975,0.166
1.980,0.172
1.985,-0.132
1.990,0.014
1.995,0.064
2.000,-0.472
2.005,-0.805
2.010,-0.845
2.015,-1.165
2.020,-1.028
2.025,-0.095
2.030,0.355
2.035,0.253
2.040,0.543
2.045,0.678
2.050,0.233
2.055,0.156
2.060,0.420
2.065,0.180
2.070,-0.016
2.075,0.306
2.080,0.280
2.085,-0.054
2.090,0.148
2.095,0.334
2.100,-0.005
2.105,-0.002
2.110,0.313
2.115,0.094
2.120,-0.105
2.125,0.223
2.130,0.208
2.135,-0.123
2.140,0.079
2.145,0.268
2.150,-0.061
2.155,-0.057
2.160,0.251
2.165,0.039
2.170,-0.156
2.175,0.165
2.180,0.152
2.185,-0.173
2.190,0.026
2.195,0.213
2.200,-0.112
2.205,-0.105
2.210,0.211
2.215,0.000
2.220,-0.204
2.225,0.122
2.230,0.119
2.235,-0.215
2.240,-0.022
2.245,0.176
2.250,-0.145
2.255,-0.142
2.260,0.176
2.265,-0.029
2.270,-0.222
2.275,0.103
2.280,0.089
2.285,-0.242
2.290,-0.041
2.295,0.153
2.300,-0.185
2.305,-0.181
2.310,0.158
2.315,-0.043
2.320,-0.238
2.325,0.106
2.330,0.103
2.335,-0.231
2.340,-0.004
2.345,0.219
2.350,-0.113
2.355,-0.103
2.360,0.248
2.365,0.051
2.370,-0.163
2.375,0.149
2.380,0.156
2.385,-0.153
2.390,0.042
2.395,0.231
2.400,-0.097
2.405,-0.097
2.410,0.222
2.415,0.014
2.420,-0.190
2.425,0.128
2.430,0.126
2.435,-0.196
2.440,0.001
2.445,0.198
2.450,-0.121
2.455,-0.125
2.460,0.178
2.465,-0.023
2.470,-0.213
2.475,0.109
2.480,0.115
2.485,-0.197
2.490,-0.017
2.495,0.157
2.500,-0.164
2.505,-0.171
2.510,0.111
2.515,-0.102
2.520,-0.271
2.525,0.057
2.530,0.048
2.535,-0.278
2.540,-0.119
2.545,0.058
2.550,-0.228
2.555,-0.201
2.560,0.122
2.565,-0.062
2.570,-0.232
2.575,0.110
2.580,0.147
2.585,-0.132
2.590,0.050
2.595,0.223
2.600,-0.063
2.605,-0.036
2.610,0.269
2.615,0.069
2.620,-0.123
2.625,0.187
2.630,0.182
2.635,-0.134
2.640,0.058
2.645,0.248
2.650,-0.070
2.655,-0.072
2.660,0.244
2.665,0.052
2.670,-0.151
2.675,0.150
2.680,0.153
2.685,-0.156
2.690,0.028
2.695,0.237
2.700,-0.056
2.705,-0.125
2.710,0.041
2.715,-0.369
2.720,-0.923
2.725,-0.980
2.730,-1.057
2.735,-0.990
2.740,-0.189
2.745,0.452
2.750,0.359
2.755,0.418
2.760,0.655
2.765,0.350
2.770,0.067
2.775,0.322
2.780,0.303
2.785,-0.020
2.790,0.163
2.795,0.357
2.800,0.033
2.805,0.016
2.810,0.331
2.815,0.138
2.820,-0.070
2.825,0.231
2.830,0.226
2.835,-0.102
2.840,0.089
2.845,0.291
2.850,-0.036
2.855,-0.050
2.860,0.270
2.865,0.071
2.870,-0.140
2.875,0.175
2.880,0.179
2.885,-0.151
2.890,0.038
2.895,0.242
2.900,-0.078
2.905,-0.096
2.910,0.213
2.915,0.029
2.920,-0.171
2.925,0.128
2.930,0.128
2.935,-0.196
2.940,-0.010
2.945,0.195
2.950,-0.123
2.955,-0.136
2.960,0.185
2.965,-0.006
2.970,-0.213
2.975,0.100
2.980,0.111
2.985,-0.215
2.990,-0.034
2.995,0.166
3.000,-0.160
3.005,-0.179
3.010,0.142
3.015,-0.050
3.020,-0.258
3.025,0.065
3.030,0.085
3.035,-0.227
3.040,-0.029
3.045,0.186
3.050,-0.115
3.055,-0.116
3.060,0.213
3.065,0.031
3.070,-0.177
3.075,0.143
3.080,0.159
3.085,-0.169
3.090,0.018
3.095,0.227
3.100,-0.090
3.105,-0.105
3.110,0.217
3.115,0.022
3.120,-0.194
3.125,0.121
3.130,0.138
3.135,-0.184
3.140,-0.015
3.145,0.182
3.150,-0.120
3.155,-0.133
3.160,0.180
3.165,0.002
3.170,-0.203
3.175,0.100
3.180,0.116
3.185,-0.201
3.190,-0.028
3.195,0.171
3.200,-0.145
3.205,-0.172
3.210,0.135
3.215,-0.052
3.220,-0.261
3.225,0.039
3.230,0.047
3.235,-0.283
3.240,-0.124
3.245,0.076
3.250,-0.227
3.255,-0.238
3.260,0.101
3.265,-0.055
3.270,-0.257
3.275,0.074
3.280,0.132
3.285,-0.158
3.290,0.035
3.295,0.248
3.300,-0.057
3.305,-0.077
3.310,0.248
3.315,0.071
3.320,-0.144
3.325,0.172
3.330,0.196
3.335,-0.129
3.340,0.043
3.345,0.251
3.350,-0.052
3.355,-0.077
3.360,0.231
3.365,0.050
3.370,-0.163
3.375,0.144
3.380,0.163
3.385,-0.165
3.390,0.004
3.395,0.220
3.400,-0.064
3.405,-0.094
3.410,0.131
3.415,-0.213
3.420,-0.702
3.425,-0.773
3.430,-1.043
3.435,-1.301
3.440,-0.616
3.445,0.195
3.450,0.234
3.455,0.364
3.460,0.721
3.465,0.446
3.470,0.105
3.475,0.339
3.480,0.319
3.485,-0.025
3.490,0.142
3.495,0.350
3.500,0.039
3.505,0.000
3.510,0.309
3.515,0.140
3.520,-0.077
3.525,0.204
3.530,0.219
3.535,-0.099
3.540,0.067
3.545,0.273
3.550,-0.031
3.555,-0.064
3.560,0.244
3.565,0.068
3.570,-0.149
3.575,0.149
3.580,0.172
3.585,-0.156
3.590,0.014
3.595,0.232
3.600,-0.082
3.605,-0.116
3.610,0.203
3.615,0.026
3.620,-0.196
3.625,0.106
3.630,0.124
3.635,-0.213
3.640,-0.036
3.645,0.188
3.650,-0.130
3.655,-0.163
3.660,0.166
3.665,-0.006
3.670,-0.227
3.675,0.078
3.680,0.105
3.685,-0.227
3.690,-0.059
3.695,0.157
3.700,-0.158
3.705,-0.192
3.710,0.130
3.715,-0.051
3.720,-0.274
3.725,0.037
3.730,0.072
3.735,-0.245
3.740,-0.062
3.745,0.172
3.750,-0.126
3.755,-0.147
3.760,0.195
3.765,0.034
3.770,-0.182
3.775,0.127
3.780,0.161
3.785,-0.164
3.790,0.000
3.795,0.219
3.800,-0.081
3.805,-0.116
3.810,0.205
3.815,0.043
3.820,-0.180
3.825,0.113
3.830,0.145
3.835,-0.174
3.840,-0.012
3.845,0.204
3.850,-0.095
3.855,-0.133
3.860,0.182
3.865,0.028
3.870,-0.185
3.875,0.097
3.880,0.132
3.885,-0.170
3.890,-0.020
3.895,0.174
3.900,-0.129
3.905,-0.177
3.910,0.121
3.915,-0.045
3.920,-0.258
3.925,0.031
3.930,0.047
3.935,-0.289
3.940,-0.136
3.945,0.090
3.950,-0.191
3.955,-0.214
3.960,0.116
3.965,-0.035
3.970,-0.231
3.975,0.100
3.980,0.161
3.985,-0.141
3.990,0.038
3.995,0.266
4.000,-0.031
4.005,-0.071
4.010,0.251
4.015,0.095
4.020,-0.126
4.025,0.166
4.030,0.202
4.035,-0.118
4.040,0.041
4.045,0.263
4.050,-0.035
4.055,-0.079
4.060,0.240
4.065,0.080
4.070,-0.147
4.075,0.143
4.080,0.176
4.085,-0.147
4.090,0.010
4.095,0.248
4.100,-0.043
4.105,-0.171
4.110,-0.021
4.115,-0.439
4.120,-1.032
4.125,-1.048
4.130,-0.972
4.135,-0.814
4.140,-0.060
4.145,0.542
4.150,0.420
4.155,0.402
4.160,0.612
4.165,0.326
4.170,0.027
4.175,0.289
4.180,0.327
4.185,0.006
4.190,0.147
4.195,0.356
4.200,0.056
4.205,0.005
4.210,0.315
4.215,0.152
4.220,-0.082
4.225,0.203
4.230,0.237
4.235,-0.092
4.240,0.060
4.245,0.283
4.250,-0.017
4.255,-0.062
4.260,0.260
4.265,0.095
4.270,-0.143
4.275,0.149
4.280,0.191
4.285,-0.142
4.290,0.008
4.295,0.232
4.300,-0.071
4.305,-0.119
4.310,0.201
4.315,0.041
4.320,-0.189
4.325,0.102
4.330,0.142
4.335,-0.189
4.340,-0.046
4.345,0.175
4.350,-0.118
4.355,-0.162
4.360,0.163
4.365,0.006
4.370,-0.231
4.375,0.060
4.380,0.108
4.385,-0.220
4.390,-0.079
4.395,0.144
4.400,-0.153
4.405,-0.209
4.410,0.108
4.415,-0.041
4.420,-0.266
4.425,0.032
4.430,0.089
4.435,-0.223
4.440,-0.058
4.445,0.185
4.450,-0.096
4.455,-0.131
4.460,0.203
4.465,0.057
4.470,-0.171
4.475,0.122
4.480,0.174
4.485,-0.147
4.490,0.002
4.495,0.231
4.500,-0.063
4.505,-0.117
4.510,0.204
4.515,0.050
4.520,-0.186
4.525,0.103
4.530,0.155
4.535,-0.170
4.540,-0.025
4.545,0.204
4.550,-0.088
4.555,-0.139
4.560,0.182
4.565,0.031
4.570,-0.199
4.575,0.091
4.580,0.139
4.585,-0.190
4.590,-0.055
4.595,0.166
4.600,-0.132
4.605,-0.201
4.610,0.108
4.615,-0.040
4.620,-0.274
4.625,0.005
4.630,0.037
4.635,-0.299
4.640,-0.147
4.645,0.093
4.650,-0.184
4.655,-0.217
4.660,0.118
4.665,-0.008
4.670,-0.206
4.675,0.108
4.680,0.182
4.685,-0.126
4.690,0.021
4.695,0.254
4.700,-0.034
4.705,-0.080
4.710,0.256
4.715,0.094
4.720,-0.160
4.725,0.147
4.730,0.212
4.735,-0.123
4.740,0.014
4.745,0.246
4.750,-0.046
4.755,-0.105
4.760,0.213
4.765,0.066
4.770,-0.170
4.775,0.124
4.780,0.178
4.785,-0.165
4.790,-0.010
4.795,0.262
4.800,-0.044
4.805,-0.198
4.810,-0.029
4.815,-0.440
4.820,-1.051
4.825,-1.063
4.830,-0.939
4.835,-0.760
4.840,-0.043
4.845,0.540
4.850,0.414
4.855,0.387
4.860,0.617
4.865,0.354
4.870,0.040
4.875,0.281
4.880,0.315
4.885,-0.017
4.890,0.123
4.895,0.354
4.900,0.054
4.905,-0.015
4.910,0.305
4.915,0.160
4.920,-0.089
4.925,0.186
4.930,0.244
4.935,-0.090
4.940,0.039
4.945,0.275
4.950,-0.015
4.955,-0.082
4.960,0.240
4.965,0.097
4.970,-0.145
4.975,0.140
4.980,0.195
4.985,-0.137
4.990,0.001
4.995,0.236
5.000,-0.064
5.005,-0.134
5.010,0.197
5.015,0.060
5.020,-0.184
5.025,0.097
5.030,0.150
5.035,-0.183
5.040,-0.043
5.045,0.199
5.050,-0.095
5.055,-0.159
5.060,0.168
5.065,0.028
5.070,-0.212
5.075,0.077
5.080,0.131
5.085,-0.208
5.090,-0.071
5.095,0.171
5.100,-0.119
5.105,-0.198
5.110,0.106
5.115,-0.029
5.120,-0.263
5.125,0.019
5.130,0.083
5.135,-0.242
5.140,-0.085
5.145,0.184
5.150,-0.106
5.155,-0.169
5.160,0.181
5.165,0.048
5.170,-0.195
5.175,0.101
5.180,0.171
5.185,-0.152
5.190,-0.016
5.195,0.223
5.200,-0.059
5.205,-0.125
5.210,0.192
5.215,0.053
5.220,-0.191
5.225,0.090
5.230,0.154
5.235,-0.174
5.240,-0.044
5.245,0.194
5.250,-0.092
5.255,-0.163
5.260,0.158
5.265,0.021
5.270,-0.223
5.275,0.062
5.280,0.131
5.285,-0.191
5.290,-0.053
5.295,0.188
5.300,-0.111
5.305,-0.197
5.310,0.116
5.315,-0.032
5.320,-0.284
5.325,0.004
5.330,0.078
5.335,-0.255
5.340,-0.150
5.345,0.078
5.350,-0.193
5.355,-0.251
5.360,0.075
5.365,-0.049
5.370,-0.277
5.375,0.036
5.380,0.139
5.385,-0.171
5.390,-0.007
5.395,0.270
5.400,-0.026
5.405,-0.100
5.410,0.243
5.415,0.106
5.420,-0.150
5.425,0.142
5.430,0.218
5.435,-0.113
5.440,0.017
5.445,0.267
5.450,-0.020
5.455,-0.098
5.460,0.233
5.465,0.102
5.470,-0.149
5.475,0.126
5.480,0.191
5.485,-0.139
5.490,-0.016
5.495,0.227
5.500,-0.047
5.505,-0.111
5.510,0.215
5.515,0.039
5.520,-0.333
5.525,-0.269
5.530,-0.532
5.535,-1.212
5.540,-1.226
5.545,-0.678
5.550,-0.340
5.555,0.055
5.560,0.601
5.565,0.572
5.570,0.278
5.575,0.439
5.580,0.422
5.585,0.030
5.590,0.125
5.595,0.368
5.600,0.076
5.605,-0.011
5.610,0.314
5.615,0.175
5.620,-0.092
5.625,0.194
5.630,0.269
5.635,-0.083
5.640,0.034
5.645,0.288
5.650,0.008
5.655,-0.076
5.660,0.240
5.665,0.113
5.670,-0.139
5.675,0.128
5.680,0.204
5.685,-0.115
5.690,-0.006
5.695,0.227
5.700,-0.045
5.705,-0.124
5.710,0.194
5.715,0.066
5.720,-0.194
5.725,0.081
5.730,0.162
5.735,-0.167
5.740,-0.050
5.745,0.198
5.750,-0.081
5.755,-0.166
5.760,0.160
5.765,0.039
5.770,-0.217
5.775,0.062
5.780,0.145
5.785,-0.188
5.790,-0.070
5.795,0.181
5.800,-0.099
5.805,-0.185
5.810,0.131
5.815,0.005
5.820,-0.252
5.825,0.019
5.830,0.095
5.835,-0.242
5.840,-0.108
5.845,0.170
5.850,-0.116
5.855,-0.195
5.860,0.168
5.865,0.048
5.870,-0.217
5.875,0.088
5.880,0.184
5.885,-0.162
5.890,-0.031
5.895,0.242
5.900,-0.054
5.905,-0.142
5.910,0.210
5.915,0.081
5.920,-0.195
5.925,0.095
5.930,0.183
5.935,-0.165
5.940,-0.038
5.945,0.230
5.950,-0.065
5.955,-0.160
5.960,0.182
5.965,0.060
5.970,-0.207
5.975,0.074
5.980,0.161
5.985,-0.179
5.990,-0.059
5.995,0.206
6.000,-0.081
6.005,-0.174
6.010,0.174
6.015,0.049
6.020,-0.228
6.025,0.069
6.030,0.162
6.035,-0.195
6.040,-0.079
6.045,0.181
6.050,-0.127
6.055,-0.231
6.060,0.121
6.065,-0.001
6.070,-0.285
6.075,-0.013
6.080,0.066
6.085,-0.284
6.090,-0.150
6.095,0.140
6.100,-0.139
6.105,-0.220
6.110,0.151
6.115,0.060
6.120,-0.186
6.125,0.124
6.130,0.237
6.135,-0.106
6.140,0.015
6.145,0.293
6.150,0.003
6.155,-0.095
6.160,0.256
6.165,0.140
6.170,-0.137
6.175,0.147
6.180,0.243
6.185,-0.105
6.190,0.008
6.195,0.280
6.200,-0.012
6.205,-0.114
6.210,0.232
6.215,0.106
6.220,-0.175
6.225,0.109
6.230,0.203
6.235,-0.149
6.240,-0.029
6.245,0.270
6.250,-0.032
6.255,-0.233
6.260,-0.055
6.265,-0.462
6.270,-1.128
6.275,-1.117
6.280,-0.909
6.285,-0.725
6.290,-0.023
6.295,0.598
6.300,0.448
6.305,0.345
6.310,0.581
6.315,0.348
6.320,0.003
6.325,0.253
6.330,0.346
6.335,-0.003
6.340,0.101
6.345,0.368
6.350,0.075
6.355,-0.037
6.360,0.298
6.365,0.175
6.370,-0.110
6.375,0.171
6.380,0.268
6.385,-0.087
6.390,0.021
6.395,0.294
6.400,0.001
6.405,-0.111
6.410,0.233
6.415,0.119
6.420,-0.164
6.425,0.114
6.430,0.214
6.435,-0.132
6.440,-0.029
6.445,0.238
6.450,-0.044
6.455,-0.153
6.460,0.188
6.465,0.075
6.470,-0.209
6.475,0.067
6.480,0.170
6.485,-0.173
6.490,-0.069
6.495,0.202
6.500,-0.079
6.505,-0.186
6.510,0.158
6.515,0.053
6.520,-0.229
6.525,0.046
6.530,0.154
6.535,-0.189
6.540,-0.092
6.545,0.178
6.550,-0.102
6.555,-0.220
6.560,0.105
6.565,0.002
6.570,-0.271
6.575,-0.005
6.580,0.108
6.585,-0.215
6.590,-0.101
6.595,0.183
6.600,-0.083
6.605,-0.181
6.610,0.172
6.615,0.071
6.620,-0.208
6.625,0.077
6.630,0.194
6.635,-0.156
6.640,-0.054
6.645,0.234
6.650,-0.047
6.655,-0.161
6.660,0.187
6.665,0.081
6.670,-0.206
6.675,0.072
6.680,0.182
6.685,-0.168
6.690,-0.069
6.695,0.214
6.700,-0.065
6.705,-0.178
6.710,0.167
6.715,0.069
6.720,-0.210
6.725,0.054
6.730,0.163
6.735,-0.168
6.740,-0.074
6.745,0.198
6.750,-0.064
6.755,-0.175
6.760,0.156
6.765,0.066
6.770,-0.205
6.775,0.053
6.780,0.167
6.785,-0.157
6.790,-0.065
6.795,0.204
6.800,-0.064
6.805,-0.186
6.810,0.136
6.815,0.030
6.820,-0.265
6.825,-0.004
6.830,0.115
6.835,-0.230
6.840,-0.164
6.845,0.096
6.850,-0.155
6.855,-0.259
6.860,0.069
6.865,-0.009
6.870,-0.262
6.875,0.018
6.880,0.159
6.885,-0.142
6.890,-0.025
6.895,0.270
6.900,0.019
6.905,-0.094
6.910,0.230
6.915,0.135
6.920,-0.135
6.925,0.130
6.930,0.242
6.935,-0.096
6.940,-0.003
6.945,0.277
6.950,0.007
6.955,-0.117
6.960,0.219
6.965,0.129
6.970,-0.156
6.975,0.101
6.980,0.215
6.985,-0.125
6.990,-0.042
6.995,0.237
7.000,-0.028
7.005,-0.142
7.010,0.213
7.015,0.106
7.020,-0.274
7.025,-0.169
7.030,-0.331
7.035,-1.059
7.040,-1.252
7.045,-0.872
7.050,-0.603
7.055,-0.137
7.060,0.537
7.065,0.599
7.070,0.322
7.075,0.465
7.080,0.464
7.085,0.061
7.090,0.109
7.095,0.377
7.100,0.112
7.105,-0.022
7.110,0.305
7.115,0.214
7.120,-0.077
7.125,0.179
7.130,0.296
7.135,-0.052
7.140,0.022
7.145,0.302
7.150,0.029
7.155,-0.107
7.160,0.233
7.165,0.149
7.170,-0.143
7.175,0.112
7.180,0.235
7.185,-0.104
7.190,-0.027
7.195,0.253
7.200,-0.013
7.205,-0.146
7.210,0.187
7.215,0.100
7.220,-0.188
7.225,0.074
7.230,0.192
7.235,-0.163
7.240,-0.087
7.245,0.203
7.250,-0.069
7.255,-0.203
7.260,0.146
7.265,0.064
7.270,-0.230
7.275,0.036
7.280,0.169
7.285,-0.177
7.290,-0.101
7.295,0.190
7.300,-0.071
7.305,-0.212
7.310,0.114
7.315,0.030
7.320,-0.260
7.325,-0.007
7.330,0.117
7.335,-0.225
7.340,-0.146
7.345,0.147
7.350,-0.100
7.355,-0.217
7.360,0.125
7.365,0.056
7.370,-0.210
7.375,0.058
7.380,0.189
7.385,-0.143
7.390,-0.059
7.395,0.232
7.400,-0.023
7.405,-0.152
7.410,0.184
7.415,0.098
7.420,-0.194
7.425,0.066
7.430,0.195
7.435,-0.149
7.440,-0.072
7.445,0.221
7.450,-0.037
7.455,-0.177
7.460,0.161
7.465,0.088
7.470,-0.204
7.475,0.047
7.480,0.176
7.485,-0.160
7.490,-0.088
7.495,0.193
7.500,-0.054
7.505,-0.181
7.510,0.148
7.515,0.073
7.520,-0.216
7.525,0.029
7.530,0.165
7.535,-0.154
7.540,-0.086
7.545,0.193
7.550,-0.049
7.555,-0.180
7.560,0.146
7.565,0.067
7.570,-0.229
7.575,0.005
7.580,0.122
7.585,-0.212
7.590,-0.143
7.595,0.133
7.600,-0.130
7.605,-0.286
7.610,0.043
7.615,-0.017
7.620,-0.310
7.625,-0.054
7.630,0.114
7.635,-0.193
7.640,-0.100
7.645,0.218
7.650,-0.005
7.655,-0.120
7.660,0.219
7.665,0.145
7.670,-0.145
7.675,0.105
7.680,0.246
7.685,-0.085
7.690,-0.020
7.695,0.270
7.700,0.023
7.705,-0.115
7.710,0.217
7.715,0.144
7.720,-0.155
7.725,0.089
7.730,0.227
7.735,-0.101
7.740,-0.039
7.745,0.243
7.750,-0.002
7.755,-0.145
7.760,0.170
7.765,0.108
7.770,-0.153
7.775,0.100
7.780,0.179
7.785,-0.273
7.790,-0.415
7.795,-0.468
7.800,-1.068
7.805,-1.346
7.810,-0.717
7.815,-0.164
7.820,0.011
7.825,0.469
7.830,0.709
7.835,0.349
7.840,0.298
7.845,0.485
7.850,0.169
7.855,-0.011
7.860,0.308
7.865,0.238
7.870,-0.061
7.875,0.173
7.880,0.305
7.885,-0.035
7.890,0.018
7.895,0.299
7.900,0.054
7.905,-0.091
7.910,0.230
7.915,0.162
7.920,-0.137
7.925,0.097
7.930,0.236
7.935,-0.095
7.940,-0.041
7.945,0.243
7.950,-0.001
7.955,-0.146
7.960,0.179
7.965,0.112
7.970,-0.183
7.975,0.054
7.980,0.191
7.985,-0.145
7.990,-0.089
7.995,0.205
8.000,-0.037
8.005,-0.186
8.010,0.141
8.015,0.077
8.020,-0.223
8.025,0.018
8.030,0.169
8.035,-0.162
8.040,-0.106
8.045,0.190
8.050,-0.046
8.055,-0.192
8.060,0.136
8.065,0.073
8.070,-0.229
8.075,0.008
8.080,0.148
8.085,-0.200
8.090,-0.155
8.095,0.138
8.100,-0.099
8.105,-0.242
8.110,0.092
8.115,0.045
8.120,-0.243
8.125,0.000
8.130,0.155
8.135,-0.167
8.140,-0.100
8.145,0.207
8.150,-0.030
8.155,-0.178
8.160,0.160
8.165,0.104
8.170,-0.200
8.175,0.048
8.180,0.199
8.185,-0.151
8.190,-0.091
8.195,0.222
8.200,-0.027
8.205,-0.187
8.210,0.147
8.215,0.089
8.220,-0.212
8.225,0.033
8.230,0.181
8.235,-0.166
8.240,-0.110
8.245,0.200
8.250,-0.047
8.255,-0.200
8.260,0.146
8.265,0.084
8.270,-0.231
8.275,0.017
8.280,0.177
8.285,-0.168
8.290,-0.110
8.295,0.201
8.300,-0.051
8.305,-0.207
8.310,0.143
8.315,0.092
8.320,-0.216
8.325,0.030
8.330,0.187
8.335,-0.164
8.340,-0.124
8.345,0.177
8.350,-0.080
8.355,-0.249
8.360,0.095
8.365,0.038
8.370,-0.285
8.375,-0.061
8.380,0.085
8.385,-0.255
8.390,-0.202
8.395,0.116
8.400,-0.106
8.405,-0.245
8.410,0.124
8.415,0.104
8.420,-0.183
8.425,0.085
8.430,0.259
8.435,-0.085
8.440,-0.033
8.445,0.281
8.450,0.034
8.455,-0.129
8.460,0.217
8.465,0.166
8.470,-0.144
8.475,0.100
8.480,0.260
8.485,-0.085
8.490,-0.043
8.495,0.259
8.500,0.026
8.505,-0.133
8.510,0.195
8.515,0.136
8.520,-0.178
8.525,0.059
8.530,0.217
8.535,-0.124
8.540,-0.058
8.545,0.268
8.550,-0.031
8.555,-0.329
8.560,-0.199
8.565,-0.594
8.570,-1.273
8.575,-1.159
8.580,-0.669
8.585,-0.387
8.590,0.124
8.595,0.659
8.600,0.513
8.605,0.298
8.610,0.516
8.615,0.376
8.620,0.007
8.625,0.209
8.630,0.361
8.635,0.017
8.640,0.052
8.645,0.354
8.650,0.110
8.655,-0.065
8.660,0.265
8.665,0.215
8.670,-0.104
8.675,0.121
8.680,0.283
8.685,-0.051
8.690,-0.024
8.695,0.272
8.700,0.046
8.705,-0.123
8.710,0.191
8.715,0.150
8.720,-0.150
8.725,0.066
8.730,0.223
8.735,-0.103
8.740,-0.070
8.745,0.223
8.750,-0.003
8.755,-0.165
8.760,0.152
8.765,0.109
8.770,-0.193
8.775,0.026
8.780,0.184
8.785,-0.141
8.790,-0.106
8.795,0.190
8.800,-0.035
8.805,-0.196
8.810,0.128
8.815,0.090
8.820,-0.212
8.825,0.011
8.830,0.173
8.835,-0.152
8.840,-0.124
8.845,0.166
8.850,-0.062
8.855,-0.236
8.860,0.079
8.865,0.041
8.870,-0.262
8.875,-0.036
8.880,0.136
8.885,-0.181
8.890,-0.138
8.895,0.176
8.900,-0.036
8.905,-0.195
8.910,0.140
8.915,0.112
8.920,-0.189
8.925,0.038
8.930,0.207
8.935,-0.115
8.940,-0.084
8.945,0.216
8.950,-0.001
8.955,-0.171
8.960,0.151
8.965,0.120
8.970,-0.191
8.975,0.023
8.980,0.192
8.985,-0.133
8.990,-0.108
8.995,0.197
9.000,-0.019
9.005,-0.190
9.010,0.129
9.015,0.098
9.020,-0.208
9.025,0.007
9.030,0.175
9.035,-0.148
9.040,-0.123
9.045,0.179
9.050,-0.032
9.055,-0.200
9.060,0.118
9.065,0.093
9.070,-0.208
9.075,0.005
9.080,0.172
9.085,-0.159
9.090,-0.130
9.095,0.187
9.100,-0.033
9.105,-0.205
9.110,0.132
9.115,0.095
9.120,-0.239
9.125,-0.027
9.130,0.141
9.135,-0.197
9.140,-0.170
9.145,0.135
9.150,-0.108
9.155,-0.307
9.160,0.031
9.165,0.011
9.170,-0.315
9.175,-0.079
9.180,0.127
9.185,-0.195
9.190,-0.150
9.195,0.200
9.200,0.002
9.205,-0.157
9.210,0.196
9.215,0.167
9.220,-0.162
9.225,0.067
9.230,0.257
9.235,-0.086
9.240,-0.064
9.245,0.261
9.250,0.028
9.255,-0.165
9.260,0.180
9.265,0.158
9.270,-0.173
9.275,0.038
9.280,0.211
9.285,-0.133
9.290,-0.112
9.295,0.212
9.300,-0.013
9.305,-0.208
9.310,0.128
9.315,0.114
9.320,-0.199
9.325,0.026
9.330,0.152
9.335,-0.321
9.340,-0.535
9.345,-0.579
9.350,-1.151
9.355,-1.428
9.360,-0.739
9.365,-0.125
9.370,0.028
9.375,0.453
9.380,0.709
9.385,0.327
9.390,0.214
9.395,0.431
9.400,0.181
9.405,-0.024
9.410,0.290
9.415,0.287
9.420,-0.017
9.425,0.173
9.430,0.342
9.435,0.029
9.440,0.042
9.445,0.343
9.450,0.144
9.455,-0.034
9.460,0.271
9.465,0.249
9.470,-0.058
9.475,0.138
9.480,0.312
9.485,-0.003
9.490,0.003
9.495,0.304
9.500,0.101
9.505,-0.087
9.510,0.220
9.515,0.202
9.520,-0.117
9.525,0.075
9.530,0.249
9.535,-0.088
9.540,-0.073
9.545,0.260
9.550,0.042
9.555,-0.159
9.560,0.178
9.565,0.170
9.570,-0.156
9.575,0.055
9.580,0.250
9.585,-0.088
9.590,-0.082
9.595,0.248
9.600,0.034
9.605,-0.165
9.610,0.172
9.615,0.156
9.620,-0.186
9.625,0.025
9.630,0.218
9.635,-0.136
9.640,-0.136
9.645,0.191
9.650,-0.024
9.655,-0.217
9.660,0.127
9.665,0.125
9.670,-0.201
9.675,0.024
9.680,0.235
9.685,-0.107
9.690,-0.092
9.695,0.254
9.700,0.036
9.705,-0.166
9.710,0.182
9.715,0.171
9.720,-0.176
9.725,0.035
9.730,0.239
9.735,-0.108
9.740,-0.100
9.745,0.243
9.750,0.021
9.755,-0.197
9.760,0.141
9.765,0.139
9.770,-0.203
9.775,0.007
9.780,0.215
9.785,-0.126
9.790,-0.123
9.795,0.214
9.800,0.001
9.805,-0.203
9.810,0.138
9.815,0.136
9.820,-0.205
9.825,0.004
9.830,0.212
9.835,-0.126
9.840,-0.123
9.845,0.211
9.850,0.003
9.855,-0.202
9.860,0.126
9.865,0.126
9.870,-0.199
9.875,0.009
9.880,0.211
9.885,-0.129
9.890,-0.133
9.895,0.188
9.900,-0.033
9.905,-0.251
9.910,0.064
9.915,0.051
9.920,-0.288
9.925,-0.090
9.930,0.103
9.935,-0.256
9.940,-0.272
9.945,0.068
9.950,-0.129
9.955,-0.329
9.960,0.018
9.965,0.037
9.970,-0.271
9.975,-0.034
9.980,0.201
9.985,-0.110
9.990,-0.099
9.995,0.234
10.000,0.028
10.005,-0.173
10.010,0.154
10.015,0.144
10.020,-0.185
10.025,0.026
10.030,0.230
10.035,-0.109
10.040,-0.112
10.045,0.227
10.050,0.029
10.055,-0.186
10.060,0.118
10.065,0.125
10.070,-0.180
10.075,0.014
10.080,0.209
10.085,-0.110
10.090,-0.119
10.095,0.205
10.100,0.023
10.105,-0.203
10.110,0.028
10.115,-0.111
10.120,-0.701
10.125,-0.884
10.130,-0.976
10.135,-1.250
10.140,-0.772
10.145,0.138
10.150,0.295
10.155,0.254
10.160,0.616
10.165,0.537
10.170,0.092
10.175,0.199
10.180,0.351
10.185,0.014
10.190,0.004
10.195,0.320
10.200,0.121
10.205,-0.093
10.210,0.207
10.215,0.209
10.220,-0.112
10.225,0.067
10.230,0.264
10.235,-0.055
10.240,-0.066
10.245,0.258
10.250,0.061
10.255,-0.155
10.260,0.165
10.265,0.174
10.270,-0.162
10.275,0.027
10.280,0.239
10.285,-0.083
10.290,-0.100
10.295,0.224
10.300,0.034
10.305,-0.181
10.310,0.135
10.315,0.155
10.320,-0.169
10.325,0.008
10.330,0.214
10.335,-0.093
10.340,-0.112
10.345,0.202
10.350,0.038
10.355,-0.163
10.360,0.123
10.365,0.143
10.370,-0.162
10.375,0.004
10.380,0.210
10.385,-0.079
10.390,-0.104
10.395,0.195
10.400,0.029
10.405,-0.176
10.410,0.097
10.415,0.110
10.420,-0.196
10.425,-0.036
10.430,0.174
10.435,-0.102
10.440,-0.117
10.445,0.197
10.450,0.034
10.455,-0.165
10.460,0.136
10.465,0.168
10.470,-0.125
10.475,0.046
10.480,0.244
10.485,-0.049
10.490,-0.066
10.495,0.241
10.500,0.074
10.505,-0.130
10.510,0.156
10.515,0.174
10.520,-0.135
10.525,0.022
10.530,0.218
10.535,-0.073
10.540,-0.095
10.545,0.213
10.550,0.033
10.555,-0.186
10.560,0.114
10.565,0.136
10.570,-0.190
10.575,-0.016
10.580,0.199
10.585,-0.108
10.590,-0.138
10.595,0.181
10.600,0.013
10.605,-0.203
10.610,0.097
10.615,0.124
10.620,-0.200
10.625,-0.035
10.630,0.179
10.635,-0.114
10.640,-0.138
10.645,0.173
10.650,-0.007
10.655,-0.240
10.660,0.052
10.665,0.077
10.670,-0.250
10.675,-0.080
10.680,0.131
10.685,-0.193
10.690,-0.250
10.695,0.059
10.700,-0.109
10.705,-0.322
10.710,-0.004
10.715,0.052
10.720,-0.245
10.725,-0.050
10.730,0.197
10.735,-0.092
10.740,-0.102
10.745,0.251
10.750,0.083
10.755,-0.142
10.760,0.171
10.765,0.201
10.770,-0.132
10.775,0.043
10.780,0.272
10.785,-0.037
10.790,-0.076
10.795,0.249
10.800,0.081
10.805,-0.146
10.810,0.155
10.815,0.185
10.820,-0.146
10.825,0.020
10.830,0.244
10.835,-0.067
10.840,-0.119
10.845,0.196
10.850,0.037
10.855,-0.156
10.860,0.159
10.865,0.118
10.870,-0.358
10.875,-0.407
10.880,-0.519
10.885,-1.174
10.890,-1.304
10.895,-0.604
10.900,-0.151
10.905,0.041
10.910,0.547
10.915,0.669
10.920,0.273
10.925,0.315
10.930,0.455
10.935,0.086
10.940,0.007
10.945,0.329
10.950,0.159
10.955,-0.084
10.960,0.218
10.965,0.251
10.970,-0.093
10.975,0.067
10.980,0.290
10.985,-0.035
10.990,-0.086
10.995,0.252
11.000,0.085
11.005,-0.158
11.010,0.145
11.015,0.181
11.020,-0.165
11.025,-0.005
11.030,0.230
11.035,-0.085
11.040,-0.136
11.045,0.205
11.050,0.033
11.055,-0.219
11.060,0.096
11.065,0.141
11.070,-0.213
11.075,-0.048
11.080,0.195
11.085,-0.129
11.090,-0.183
11.095,0.163
11.100,-0.003
11.105,-0.255
11.110,0.062
11.115,0.120
11.120,-0.227
11.125,-0.064
11.130,0.188
11.135,-0.122
11.140,-0.177
11.145,0.162
11.150,-0.002
11.155,-0.249
11.160,0.055
11.165,0.098
11.170,-0.253
11.175,-0.102
11.180,0.144
11.185,-0.155
11.190,-0.202
11.195,0.141
11.200,-0.006
11.205,-0.236
11.210,0.075
11.215,0.136
11.220,-0.195
11.225,-0.028
11.230,0.228
11.235,-0.077
11.240,-0.134
11.245,0.213
11.250,0.057
11.255,-0.194
11.260,0.116
11.265,0.172
11.270,-0.176
11.275,-0.021
11.280,0.228
11.285,-0.083
11.290,-0.144
11.295,0.199
11.300,0.043
11.305,-0.211
11.310,0.095
11.315,0.153
11.320,-0.193
11.325,-0.046
11.330,0.197
11.335,-0.107
11.340,-0.165
11.345,0.178
11.350,0.025
11.355,-0.229
11.360,0.080
11.365,0.145
11.370,-0.206
11.375,-0.054
11.380,0.205
11.385,-0.107
11.390,-0.173
11.395,0.178
11.400,0.026
11.405,-0.236
11.410,0.062
11.415,0.119
11.420,-0.241
11.425,-0.104
11.430,0.152
11.435,-0.157
11.440,-0.233
11.445,0.097
11.450,-0.070
11.455,-0.326
11.460,-0.005
11.465,0.074
11.470,-0.260
11.475,-0.090
11.480,0.189
11.485,-0.098
11.490,-0.141
11.495,0.239
11.500,0.110
11.505,-0.147
11.510,0.158
11.515,0.231
11.520,-0.114
11.525,0.030
11.530,0.288
11.535,-0.017
11.540,-0.090
11.545,0.260
11.550,0.116
11.555,-0.147
11.560,0.151
11.565,0.217
11.570,-0.128
11.575,0.013
11.580,0.264
11.585,-0.038
11.590,-0.114
11.595,0.220
11.600,0.077
11.605,-0.176
11.610,0.138
11.615,0.209
11.620,-0.212
11.625,-0.228
11.630,-0.229
11.635,-0.900
11.640,-1.292
11.645,-0.946
11.650,-0.620
11.655,-0.257
11.660,0.416
11.665,0.654
11.670,0.359
11.675,0.406
11.680,0.540
11.685,0.167
11.690,0.043
11.695,0.364
11.700,0.224
11.705,-0.042
11.710,0.240
11.715,0.308
11.720,-0.041
11.725,0.081
11.730,0.330
11.735,0.035
11.740,-0.050
11.745,0.280
11.750,0.143
11.755,-0.120
11.760,0.166
11.765,0.237
11.770,-0.108
11.775,0.020
11.780,0.275
11.785,-0.019
11.790,-0.106
11.795,0.226
11.800,0.093
11.805,-0.170
11.810,0.115
11.815,0.192
11.820,-0.146
11.825,-0.022
11.830,0.225
11.835,-0.066
11.840,-0.150
11.845,0.179
11.850,0.051
11.855,-0.208
11.860,0.076
11.865,0.155
11.870,-0.186
11.875,-0.063
11.880,0.199
11.885,-0.086
11.890,-0.172
11.895,0.160
11.900,0.030
11.905,-0.236
11.910,0.047
11.915,0.125
11.920,-0.222
11.925,-0.103
11.930,0.155
11.935,-0.135
11.940,-0.216
11.945,0.134
11.950,0.018
11.955,-0.237
11.960,0.056
11.965,0.157
11.970,-0.163
11.975,-0.038
11.980,0.222
11.985,-0.058
11.990,-0.139
11.995,0.206
12.000,0.087
12.005,-0.175
12.010,0.107
12.015,0.190
12.020,-0.151
12.025,-0.030
12.030,0.233
12.035,-0.056
12.040,-0.150
12.045,0.187
12.050,0.066
12.055,-0.203
12.060,0.078
12.065,0.166
12.070,-0.176
12.075,-0.054
12.080,0.212
12.085,-0.082
12.090,-0.177
12.095,0.174
12.100,0.051
12.105,-0.229
12.110,0.061
12.115,0.158
12.120,-0.190
12.125,-0.069
12.130,0.203
12.135,-0.089
12.140,-0.180
12.145,0.174
12.150,0.051
12.155,-0.225
12.160,0.062
12.165,0.143
12.170,-0.219
12.175,-0.107
12.180,0.160
12.185,-0.137
12.190,-0.238
12.195,0.105
12.200,-0.034
12.205,-0.328
12.210,-0.033
12.215,0.074
12.220,-0.262
12.225,-0.125
12.230,0.162
12.235,-0.109
12.240,-0.172
12.245,0.201
12.250,0.102
12.255,-0.153
12.260,0.142
12.265,0.239
12.270,-0.109
12.275,0.009
12.280,0.285
12.285,0.001
12.290,-0.099
12.295,0.243
12.300,0.128
12.305,-0.146
12.310,0.134
12.315,0.229
12.320,-0.117
12.325,-0.006
12.330,0.264
12.335,-0.023
12.340,-0.129
12.345,0.210
12.350,0.092
12.355,-0.190
12.360,0.096
12.365,0.220
12.370,-0.140
12.375,-0.123
12.380,-0.006
12.385,-0.571
12.390,-1.065
12.395,-0.997
12.400,-1.027
12.405,-0.803
12.410,0.074
12.415,0.541
12.420,0.345
12.425,0.454
12.430,0.611
12.435,0.211
12.440,0.041
12.445,0.353
12.450,0.235
12.455,-0.046
12.460,0.230
12.465,0.327
12.470,-0.031
12.475,0.065
12.480,0.338
12.485,0.053
12.490,-0.063
12.495,0.270
12.500,0.163
12.505,-0.116
12.510,0.148
12.515,0.250
12.520,-0.093
12.525,0.005
12.530,0.276
12.535,-0.008
12.540,-0.125
12.545,0.212
12.550,0.109
12.555,-0.172
12.560,0.097
12.565,0.206
12.570,-0.137
12.575,-0.043
12.580,0.227
12.585,-0.051
12.590,-0.166
12.595,0.170
12.600,0.068
12.605,-0.217
12.610,0.054
12.615,0.173
12.620,-0.168
12.625,-0.081
12.630,0.191
12.635,-0.081
12.640,-0.195
12.645,0.145
12.650,0.052
12.655,-0.225
12.660,0.033
12.665,0.137
12.670,-0.199
12.675,-0.116
12.680,0.147
12.685,-0.113
12.690,-0.221
12.695,0.108
12.700,0.025
12.705,-0.232
12.710,0.031
12.715,0.151
12.720,-0.158
12.725,-0.062
12.730,0.211
12.735,-0.032
12.740,-0.142
12.745,0.184
12.750,0.100
12.755,-0.169
12.760,0.089
12.765,0.200
12.770,-0.130
12.775,-0.046
12.780,0.227
12.785,-0.026
12.790,-0.148
12.795,0.170
12.800,0.077
12.805,-0.200
12.810,0.059
12.815,0.177
12.820,-0.151
12.825,-0.071
12.830,0.197
12.835,-0.057
12.840,-0.173
12.845,0.149
12.850,0.065
12.855,-0.203
12.860,0.048
12.865,0.163
12.870,-0.164
12.875,-0.082
12.880,0.198
12.885,-0.051
12.890,-0.172
12.895,0.146
12.900,0.060
12.905,-0.210
12.910,0.043
12.915,0.156
12.920,-0.179
12.925,-0.111
12.930,0.150
12.935,-0.110
12.940,-0.237
12.945,0.085
12.950,0.000
12.955,-0.294
12.960,-0.065
12.965,0.056
12.970,-0.260
12.975,-0.181
12.980,0.110
12.985,-0.106
12.990,-0.210
12.995,0.128
13.000,0.081
13.005,-0.164
13.010,0.101
13.015,0.229
13.020,-0.096
13.025,-0.021
13.030,0.258
13.035,0.014
13.040,-0.114
13.045,0.210
13.050,0.142
13.055,-0.134
13.060,0.108
13.065,0.229
13.070,-0.099
13.075,-0.032
13.080,0.242
13.085,-0.001
13.090,-0.126
13.095,0.191
13.100,0.113
13.105,-0.169
13.110,0.069
13.115,0.187
13.120,-0.128
13.125,-0.030
13.130,0.213
13.135,-0.158
13.140,-0.474
13.145,-0.466
13.150,-0.910
13.155,-1.378
13.160,-0.895
13.165,-0.177
13.170,-0.006
13.175,0.324
13.180,0.729
13.185,0.466
13.190,0.220
13.195,0.436
13.200,0.296
13.205,-0.028
13.210,0.201
13.215,0.329
13.220,0.000
13.225,0.062
13.230,0.329
13.235,0.072
13.240,-0.067
13.245,0.252
13.250,0.176
13.255,-0.116
13.260,0.119
13.265,0.251
13.270,-0.076
13.275,-0.014
13.280,0.265
13.285,0.015
13.290,-0.124
13.295,0.198
13.300,0.121
13.305,-0.170
13.310,0.071
13.315,0.207
13.320,-0.122
13.325,-0.065
13.330,0.209
13.335,-0.041
13.340,-0.173
13.345,0.155
13.350,0.081
13.355,-0.213
13.360,0.028
13.365,0.163
13.370,-0.168
13.375,-0.105
13.380,0.184
13.385,-0.056
13.390,-0.201
13.395,0.124
13.400,0.067
13.405,-0.216
13.410,0.024
13.415,0.154
13.420,-0.180
13.425,-0.126
13.430,0.155
13.435,-0.090
13.440,-0.234
13.445,0.092
13.450,0.036
13.455,-0.249
13.460,-0.012
13.465,0.130
13.470,-0.183
13.475,-0.107
13.480,0.197
13.485,-0.028
13.490,-0.163
13.495,0.165
13.500,0.112
13.505,-0.171
13.510,0.067
13.515,0.210
13.520,-0.117
13.525,-0.064
13.530,0.226
13.535,-0.010
13.540,-0.159
13.545,0.169
13.550,0.112
13.555,-0.190
13.560,0.044
13.565,0.192
13.570,-0.138
13.575,-0.085
13.580,0.204
13.585,-0.037
13.590,-0.186
13.595,0.142
13.600,0.089
13.605,-0.205
13.610,0.029
13.615,0.175
13.620,-0.155
13.625,-0.108
13.630,0.183
13.635,-0.047
13.640,-0.197
13.645,0.128
13.650,0.085
13.655,-0.204
13.660,0.026
13.665,0.175
13.670,-0.159
13.675,-0.124
13.680,0.163
13.685,-0.074
13.690,-0.232
13.695,0.084
13.700,0.024
13.705,-0.283
13.710,-0.070
13.715,0.073
13.720,-0.243
13.725,-0.191
13.730,0.108
13.735,-0.100
13.740,-0.230
13.745,0.112
13.750,0.099
13.755,-0.162
13.760,0.082
13.765,0.244
13.770,-0.079
13.775,-0.033
13.780,0.266
13.785,0.037
13.790,-0.120
13.795,0.207
13.800,0.163
13.805,-0.132
13.810,0.099
13.815,0.251
13.820,-0.080
13.825,-0.044
13.830,0.253
13.835,0.022
13.840,-0.141
13.845,0.186
13.850,0.143
13.855,-0.156
13.860,0.063
13.865,0.208
13.870,-0.121
13.875,-0.064
13.880,0.255
13.885,-0.020
13.890,-0.309
13.895,-0.184
13.900,-0.551
13.905,-1.207
13.910,-1.134
13.915,-0.694
13.920,-0.414
13.925,0.100
13.930,0.631
13.935,0.504
13.940,0.302
13.945,0.515
13.950,0.385
13.955,0.017
13.960,0.196
13.965,0.345
13.970,0.021
13.975,0.046
13.980,0.332
13.985,0.107
13.990,-0.063
13.995,0.242
14.000,0.199
14.005,-0.103
14.010,0.108
14.015,0.262
14.020,-0.069
14.025,-0.041
14.030,0.259
14.035,0.034
14.040,-0.137
14.045,0.183
14.050,0.144
14.055,-0.166
14.060,0.049
14.065,0.212
14.070,-0.116
14.075,-0.086
14.080,0.212
14.085,-0.017
14.090,-0.190
14.095,0.134
14.100,0.100
14.105,-0.208
14.110,0.005
14.115,0.170
14.120,-0.154
14.125,-0.125
14.130,0.179
14.135,-0.037
14.140,-0.206
14.145,0.115
14.150,0.084
14.155,-0.224
14.160,-0.010
14.165,0.161
14.170,-0.162
14.175,-0.142
14.180,0.156
14.185,-0.068
14.190,-0.249
14.195,0.067
14.200,0.042
14.205,-0.257
14.210,-0.040
14.215,0.133
14.220,-0.178
14.225,-0.141
14.230,0.178
14.235,-0.025
14.240,-0.194
14.245,0.133
14.250,0.121
14.255,-0.172
14.260,0.038
14.265,0.208
14.270,-0.103
14.275,-0.082
14.280,0.214
14.285,0.005
14.290,-0.169
14.295,0.148
14.300,0.124
14.305,-0.185
14.310,0.026
14.315,0.199
14.320,-0.125
14.325,-0.104
14.330,0.201
14.335,-0.015
14.340,-0.194
14.345,0.127
14.350,0.106
14.355,-0.201
14.360,0.004
14.365,0.177
14.370,-0.143
14.375,-0.126
14.380,0.179
14.385,-0.026
14.390,-0.201
14.395,0.118
14.400,0.100
14.405,-0.207
14.410,-0.002
14.415,0.177
14.420,-0.139
14.425,-0.121
14.430,0.184
14.435,-0.028
14.440,-0.218
14.445,0.082
14.450,0.056
14.455,-0.248
14.460,-0.051
14.465,0.115
14.470,-0.216
14.475,-0.219
14.480,0.085
14.485,-0.111
14.490,-0.284
14.495,0.050
14.500,0.059
14.505,-0.235
14.510,-0.008
14.515,0.206
14.520,-0.088
14.525,-0.056
14.530,0.261
14.535,0.058
14.540,-0.125
14.545,0.194
14.550,0.183
14.555,-0.131
14.560,0.067
14.565,0.255
14.570,-0.055
14.575,-0.048
14.580,0.257
14.585,0.057
14.590,-0.132
14.595,0.176
14.600,0.168
14.605,-0.140
14.610,0.051
14.615,0.231
14.620,-0.081
14.625,-0.077
14.630,0.222
14.635,0.032
14.640,-0.132
14.645,0.147
14.650,0.026
14.655,-0.463
14.660,-0.579
14.665,-0.776
14.670,-1.316
14.675,-1.138
14.680,-0.253
14.685,0.118
14.690,0.228
14.695,0.651
14.700,0.631
14.705,0.211
14.710,0.291
14.715,0.414
14.720,0.073
14.725,0.063
14.730,0.363
14.735,0.167
14.740,-0.026
14.745,0.268
14.750,0.254
14.755,-0.060
14.760,0.120
14.765,0.299
14.770,-0.012
14.775,-0.017
14.780,0.283
14.785,0.085
14.790,-0.111
14.795,0.192
14.800,0.190
14.805,-0.121
14.810,0.059
14.815,0.242
14.820,-0.068
14.825,-0.073
14.830,0.227
14.835,0.034
14.840,-0.159
14.845,0.144
14.850,0.141
14.855,-0.168
14.860,0.011
14.865,0.195
14.870,-0.106
14.875,-0.113
14.880,0.183
14.885,0.001
14.890,-0.188
14.895,0.105
14.900,0.105
14.905,-0.196
14.910,-0.017
14.915,0.170
14.920,-0.127
14.925,-0.135
14.930,0.161
14.935,-0.027
14.940,-0.222
14.945,0.066
14.950,0.065
14.955,-0.237
14.960,-0.064
14.965,0.123
14.970,-0.162
14.975,-0.161
14.980,0.145
14.985,-0.022
14.990,-0.201
14.995,0.106
15.000,0.124
15.005,-0.172
15.010,0.011
15.015,0.207
15.020,-0.090
15.025,-0.096
15.030,0.214
15.035,0.031
15.040,-0.168
15.045,0.135
15.050,0.142
15.055,-0.170
15.060,0.009
15.065,0.205
15.070,-0.100
15.075,-0.114
15.080,0.191
15.085,0.009
15.090,-0.191
15.095,0.106
15.100,0.117
15.105,-0.193
15.110,-0.020
15.115,0.178
15.120,-0.123
15.125,-0.137
15.130,0.174
15.135,-0.006
15.140,-0.208
15.145,0.095
15.150,0.111
15.155,-0.200
15.160,-0.025
15.165,0.175
15.170,-0.127
15.175,-0.138
15.180,0.179
15.185,-0.002
15.190,-0.204
15.195,0.104
15.200,0.116
15.205,-0.205
15.210,-0.036
15.215,0.156
15.220,-0.165
15.225,-0.191
15.230,0.125
15.235,-0.057
15.240,-0.273
15.245,0.014
15.250,0.021
15.255,-0.289
15.260,-0.101
15.265,0.117
15.270,-0.176
15.275,-0.181
15.280,0.157
15.285,0.015
15.290,-0.167
15.295,0.155
15.300,0.193
15.305,-0.117
15.310,0.058
15.315,0.265
15.320,-0.041
15.325,-0.059
15.330,0.261
15.335,0.089
15.340,-0.119
15.345,0.177
15.350,0.194
15.355,-0.119
15.360,0.048
15.365,0.250
15.370,-0.052
15.375,-0.076
15.380,0.234
15.385,0.057
15.390,-0.155
15.395,0.145
15.400,0.163
15.405,-0.161
15.410,0.028
15.415,0.253
15.420,-0.114
15.425,-0.275
15.430,-0.173
15.435,-0.710
15.440,-1.290
15.445,-1.076
15.450,-0.697
15.455,-0.398
15.460,0.245
15.465,0.681
15.470,0.428
15.475,0.318
15.480,0.516
15.485,0.257
15.490,-0.006
15.495,0.285
15.500,0.311
15.505,-0.018
15.510,0.146
15.515,0.353
15.520,0.036
15.525,-0.002
15.530,0.313
15.535,0.133
15.540,-0.093
15.545,0.209
15.550,0.231
15.555,-0.103
15.560,0.066
15.565,0.284
15.570,-0.033
15.575,-0.072
15.580,0.252
15.585,0.074
15.590,-0.155
15.595,0.151
15.600,0.177
15.605,-0.160
15.610,0.011
15.615,0.234
15.620,-0.087
15.625,-0.126
15.630,0.209
15.635,0.032
15.640,-0.202
15.645,0.108
15.650,0.138
15.655,-0.201
15.660,-0.032
15.665,0.195
15.670,-0.123
15.675,-0.159
15.680,0.184
15.685,0.005
15.690,-0.237
15.695,0.085
15.700,0.120
15.705,-0.234
15.710,-0.064
15.715,0.169
15.720,-0.159
15.725,-0.204
15.730,0.132
15.735,-0.048
15.740,-0.282
15.745,0.050
15.750,0.098
15.755,-0.242
15.760,-0.056
15.765,0.196
15.770,-0.117
15.775,-0.149
15.780,0.209
15.785,0.043
15.790,-0.194
15.795,0.127
15.800,0.169
15.805,-0.176
15.810,-0.006
15.815,0.231
15.820,-0.087
15.825,-0.132
15.830,0.208
15.835,0.034
15.840,-0.211
15.845,0.108
15.850,0.153
15.855,-0.196
15.860,-0.029
15.865,0.214
15.870,-0.106
15.875,-0.155
15.880,0.191
15.885,0.021
15.890,-0.222
15.895,0.094
15.900,0.139
15.905,-0.206
15.910,-0.039
15.915,0.204
15.920,-0.114
15.925,-0.164
15.930,0.182
15.935,0.019
15.940,-0.223
15.945,0.094
15.950,0.148
15.955,-0.195
15.960,-0.033
15.965,0.210
15.970,-0.104
15.975,-0.154
15.980,0.193
15.985,0.022
15.990,-0.241
15.995,0.063
16.000,0.098
16.005,-0.267
16.010,-0.101
16.015,0.146
16.020,-0.180
16.025,-0.252
16.030,0.080
16.035,-0.075
16.040,-0.312
16.045,0.007
16.050,0.077
16.055,-0.249
16.060,-0.072
16.065,0.209
16.070,-0.072
16.075,-0.103
16.080,0.260
16.085,0.103
16.090,-0.144
16.095,0.171
16.100,0.225
16.105,-0.125
16.110,0.028
16.115,0.278
16.120,-0.028
16.125,-0.088
16.130,0.253
16.135,0.096
16.140,-0.156
16.145,0.150
16.150,0.207
16.155,-0.144
16.160,0.008
16.165,0.256
16.170,-0.057
16.175,-0.124
16.180,0.212
16.185,0.056
16.190,-0.178
16.195,0.148
16.200,0.162
16.205,-0.314
16.210,-0.369
16.215,-0.453
16.220,-1.121
16.225,-1.329
16.230,-0.695
16.235,-0.242
16.240,-0.017
16.245,0.529
16.250,0.698
16.255,0.310
16.260,0.332
16.265,0.481
16.270,0.108
16.275,0.012
16.280,0.360
16.285,0.202
16.290,-0.072
16.295,0.233
16.300,0.295
16.305,-0.070
16.310,0.068
16.315,0.324
16.320,0.014
16.325,-0.065
16.330,0.270
16.335,0.127
16.340,-0.123
16.345,0.165
16.350,0.222
16.355,-0.121
16.360,0.016
16.365,0.263
16.370,-0.036
16.375,-0.112
16.380,0.220
16.385,0.076
16.390,-0.183
16.395,0.106
16.400,0.175
16.405,-0.165
16.410,-0.031
16.415,0.216
16.420,-0.087
16.425,-0.164
16.430,0.174
16.435,0.033
16.440,-0.226
16.445,0.071
16.450,0.147
16.455,-0.198
16.460,-0.065
16.465,0.187
16.470,-0.107
16.475,-0.178
16.480,0.154
16.485,0.013
16.490,-0.247
16.495,0.036
16.500,0.104
16.505,-0.242
16.510,-0.114
16.515,0.144
16.520,-0.147
16.525,-0.218
16.530,0.134
16.535,0.008
16.540,-0.238
16.545,0.072
16.550,0.163
16.555,-0.170
16.560,-0.029
16.565,0.238
16.570,-0.054
16.575,-0.128
16.580,0.216
16.585,0.082
16.590,-0.179
16.595,0.111
16.600,0.193
16.605,-0.142
16.610,-0.013
16.615,0.238
16.620,-0.062
16.625,-0.143
16.630,0.201
16.635,0.063
16.640,-0.210
16.645,0.084
16.650,0.175
16.655,-0.168
16.660,-0.047
16.665,0.211
16.670,-0.081
16.675,-0.166
16.680,0.180
16.685,0.049
16.690,-0.224
16.695,0.071
16.700,0.159
16.705,-0.188
16.710,-0.057
16.715,0.208
16.720,-0.089
16.725,-0.180
16.730,0.167
16.735,0.049
16.740,-0.215
16.745,0.075
16.750,0.153
16.755,-0.205
16.760,-0.093
16.765,0.161
16.770,-0.132
16.775,-0.222
16.780,0.118
16.785,-0.018
16.790,-0.312
16.795,-0.037
16.800,0.062
16.805,-0.280
16.810,-0.150
16.815,0.149
16.820,-0.111
16.825,-0.185
16.830,0.182
16.835,0.086
16.840,-0.163
16.845,0.134
16.850,0.232
16.855,-0.103
16.860,0.015
16.865,0.280
16.870,-0.004
16.875,-0.099
16.880,0.237
16.885,0.117
16.890,-0.153
16.895,0.129
16.900,0.222
16.905,-0.120
16.910,-0.008
16.915,0.258
16.920,-0.027
16.925,-0.126
16.930,0.208
16.935,0.094
16.940,-0.178
16.945,0.089
16.950,0.177
16.955,-0.147
16.960,-0.015
16.965,0.208
16.970,-0.193
16.975,-0.478
16.980,-0.458
16.985,-0.938
16.990,-1.386
16.995,-0.848
17.000,-0.141
17.005,0.012
17.010,0.359
17.015,0.733
17.020,0.428
17.025,0.216
17.030,0.453
17.035,0.274
17.040,-0.041
17.045,0.221
17.050,0.316
17.055,-0.035
17.060,0.064
17.065,0.330
17.070,0.046
17.075,-0.067
17.080,0.264
17.085,0.153
17.090,-0.125
17.095,0.143
17.100,0.238
17.105,-0.110
17.110,-0.010
17.115,0.266
17.120,-0.010
17.125,-0.125
17.130,0.208
17.135,0.098
17.140,-0.186
17.145,0.086
17.150,0.193
17.155,-0.153
17.160,-0.053
17.165,0.222
17.170,-0.056
17.175,-0.169
17.180,0.166
17.185,0.060
17.190,-0.220
17.195,0.051
17.200,0.160
17.205,-0.180
17.210,-0.086
17.215,0.189
17.220,-0.080
17.225,-0.189
17.230,0.147
17.235,0.046
17.240,-0.228
17.245,0.040
17.250,0.146
17.255,-0.199
17.260,-0.109
17.265,0.160
17.270,-0.119
17.275,-0.239
17.280,0.098
17.285,0.003
17.290,-0.271
17.295,0.009
17.300,0.132
17.305,-0.197
17.310,-0.092
17.315,0.195
17.320,-0.063
17.325,-0.168
17.330,0.173
17.335,0.082
17.340,-0.194
17.345,0.074
17.350,0.190
17.355,-0.148
17.360,-0.052
17.365,0.228
17.370,-0.048
17.375,-0.162
17.380,0.191
17.385,0.083
17.390,-0.225
17.395,0.067
17.400,0.196
17.405,-0.178
17.410,-0.077
17.415,0.232
17.420,-0.068
17.425,-0.201
17.430,0.171
17.435,0.069
17.440,-0.241
17.445,0.051
17.450,0.178
17.455,-0.196
17.460,-0.095
17.465,0.217
17.470,-0.075
17.475,-0.205
17.480,0.167
17.485,0.065
17.490,-0.246
17.495,0.050
17.500,0.182
17.505,-0.191
17.510,-0.092
17.515,0.220
17.520,-0.075
17.525,-0.216
17.530,0.147
17.535,0.035
17.540,-0.290
17.545,-0.002
17.550,0.128
17.555,-0.253
17.560,-0.177
17.565,0.116
17.570,-0.168
17.575,-0.295
17.580,0.083
17.585,0.007
17.590,-0.287
17.595,0.020
17.600,0.184
17.605,-0.162
17.610,-0.044
17.615,0.289
17.620,0.006
17.625,-0.133
17.630,0.238
17.635,0.146
17.640,-0.168
17.645,0.121
17.650,0.261
17.655,-0.111
17.660,-0.020
17.665,0.293
17.670,0.000
17.675,-0.141
17.680,0.230
17.685,0.135
17.690,-0.186
17.695,0.099
17.700,0.236
17.705,-0.142
17.710,-0.057
17.715,0.256
17.720,-0.038
17.725,-0.174
17.730,0.227
17.735,0.123
17.740,-0.297
17.745,-0.176
17.750,-0.314
17.755,-1.068
17.760,-1.257
17.765,-0.835
17.770,-0.594
17.775,-0.168
17.780,0.537
17.785,0.598
17.790,0.292
17.795,0.477
17.800,0.505
17.805,0.055
17.810,0.098
17.815,0.405
17.820,0.114
17.825,-0.042
17.830,0.326
17.835,0.234
17.840,-0.096
17.845,0.177
17.850,0.315
17.855,-0.066
17.860,0.009
17.865,0.324
17.870,0.035
17.875,-0.121
17.880,0.249
17.885,0.166
17.890,-0.161
17.895,0.111
17.900,0.255
17.905,-0.120
17.910,-0.045
17.915,0.273
17.920,-0.011
17.925,-0.165
17.930,0.204
17.935,0.118
17.940,-0.210
17.945,0.065
17.950,0.211
17.955,-0.164
17.960,-0.090
17.965,0.231
17.970,-0.048
17.975,-0.202
17.980,0.166
17.985,0.087
17.990,-0.237
17.995,0.040
18.000,0.192
18.005,-0.182
18.010,-0.107
18.015,0.216
18.020,-0.063
18.025,-0.223
18.030,0.143
18.035,0.060
18.040,-0.275
18.045,-0.002
18.050,0.150
18.055,-0.224
18.060,-0.142
18.065,0.194
18.070,-0.079
18.075,-0.228
18.080,0.161
18.085,0.099
18.090,-0.220
18.095,0.066
18.100,0.228
18.105,-0.141
18.110,-0.068
18.115,0.262
18.120,-0.011
18.125,-0.169
18.130,0.206
18.135,0.133
18.140,-0.200
18.145,0.065
18.150,0.222
18.155,-0.131
18.160,-0.069
18.165,0.236
18.170,-0.019
18.175,-0.175
18.180,0.167
18.185,0.105
18.190,-0.205
18.195,0.043
18.200,0.193
18.205,-0.155
18.210,-0.097
18.215,0.210
18.220,-0.041
18.225,-0.197
18.230,0.147
18.235,0.086
18.240,-0.221
18.245,0.029
18.250,0.179
18.255,-0.166
18.260,-0.103
18.265,0.207
18.270,-0.044
18.275,-0.200
18.280,0.146
18.285,0.091
18.290,-0.216
18.295,0.032
18.300,0.188
18.305,-0.156
18.310,-0.102
18.315,0.194
18.320,-0.069
18.325,-0.236
18.330,0.094
18.335,0.027
18.340,-0.283
18.345,-0.037
18.350,0.105
18.355,-0.263
18.360,-0.208
18.365,0.118
18.370,-0.121
18.375,-0.268
18.380,0.093
18.385,0.052
18.390,-0.232
18.395,0.046
18.400,0.227
18.405,-0.098
18.410,-0.034
18.415,0.277
18.420,0.027
18.425,-0.132
18.430,0.215
18.435,0.161
18.440,-0.151
18.445,0.096
18.450,0.255
18.455,-0.091
18.460,-0.042
18.465,0.266
18.470,0.020
18.475,-0.144
18.480,0.192
18.485,0.139
18.490,-0.171
18.495,0.068
18.500,0.222
18.505,-0.128
18.510,-0.081
18.515,0.238
18.520,0.013
18.525,-0.156
18.530,0.101
18.535,-0.107
18.540,-0.689
18.545,-0.832
18.550,-0.976
18.555,-1.284
18.560,-0.764
18.565,0.166
18.570,0.316
18.575,0.309
18.580,0.666
18.585,0.513
18.590,0.081
18.595,0.252
18.600,0.379
18.605,0.028
18.610,0.076
18.615,0.381
18.620,0.128
18.625,-0.048
18.630,0.287
18.635,0.234
18.640,-0.090
18.645,0.144
18.650,0.304
18.655,-0.049
18.660,-0.013
18.665,0.297
18.670,0.053
18.675,-0.120
18.680,0.217
18.685,0.168
18.690,-0.151
18.695,0.085
18.700,0.249
18.705,-0.097
18.710,-0.059
18.715,0.250
18.720,0.003
18.725,-0.169
18.730,0.174
18.735,0.127
18.740,-0.196
18.745,0.037
18.750,0.203
18.755,-0.141
18.760,-0.103
18.765,0.208
18.770,-0.033
18.775,-0.206
18.780,0.135
18.785,0.094
18.790,-0.226
18.795,0.013
18.800,0.183
18.805,-0.173
18.810,-0.134
18.815,0.190
18.820,-0.061
18.825,-0.244
18.830,0.109
18.835,0.060
18.840,-0.278
18.845,-0.036
18.850,0.141
18.855,-0.208
18.860,-0.154
18.865,0.187
18.870,-0.046
18.875,-0.214
18.880,0.153
18.885,0.124
18.890,-0.202
18.895,0.044
18.900,0.227
18.905,-0.124
18.910,-0.083
18.915,0.245
18.920,0.001
18.925,-0.179
18.930,0.174
18.935,0.133
18.940,-0.204
18.945,0.035
18.950,0.218
18.955,-0.137
18.960,-0.105
18.965,0.222
18.970,-0.019
18.975,-0.200
18.980,0.149
18.985,0.111
18.990,-0.219
18.995,0.020
19.000,0.202
19.005,-0.152
19.010,-0.122
19.015,0.205
19.020,-0.032
19.025,-0.212
19.030,0.141
19.035,0.104
19.040,-0.231
19.045,0.014
19.050,0.199
19.055,-0.164
19.060,-0.129
19.065,0.214
19.070,-0.025
19.075,-0.214
19.080,0.143
19.085,0.110
19.090,-0.229
19.095,0.012
19.100,0.204
19.105,-0.155
19.110,-0.127
19.115,0.206
19.120,-0.051
19.125,-0.255
19.130,0.093
19.135,0.049
19.140,-0.291
19.145,-0.051
19.150,0.125
19.155,-0.253
19.160,-0.231
19.165,0.118
19.170,-0.111
19.175,-0.296
19.180,0.076
19.185,0.066
19.190,-0.252
19.195,0.018
19.200,0.236
19.205,-0.109
19.210,-0.065
19.215,0.288
19.220,0.043
19.225,-0.155
19.230,0.218
19.235,0.192
19.240,-0.160
19.245,0.083
19.250,0.279
19.255,-0.087
19.260,-0.061
19.265,0.285
19.270,0.042
19.275,-0.159
19.280,0.203
19.285,0.176
19.290,-0.175
19.295,0.059
19.300,0.256
19.305,-0.113
19.310,-0.096
19.315,0.251
19.320,0.020
19.325,-0.165
19.330,0.160
19.335,0.017
19.340,-0.528
19.345,-0.633
19.350,-0.811
19.355,-1.328
19.360,-1.042
19.365,-0.104
19.370,0.176
19.375,0.243
19.380,0.690
19.385,0.619
19.390,0.151
19.395,0.274
19.400,0.416
19.405,0.041
19.410,0.054
19.415,0.383
19.420,0.152
19.425,-0.049
19.430,0.282
19.435,0.254
19.440,-0.089
19.445,0.122
19.450,0.312
19.455,-0.037
19.460,-0.026
19.465,0.305
19.470,0.075
19.475,-0.130
19.480,0.211
19.485,0.185
19.490,-0.163
19.495,0.065
19.500,0.265
19.505,-0.099
19.510,-0.087
19.515,0.253
19.520,0.022
19.525,-0.186
19.530,0.157
19.535,0.137
19.540,-0.204
19.545,0.017
19.550,0.211
19.555,-0.144
19.560,-0.136
19.565,0.201
19.570,-0.020
19.575,-0.220
19.580,0.121
19.585,0.103
19.590,-0.237
19.595,-0.014
19.600,0.187
19.605,-0.176
19.610,-0.168
19.615,0.183
19.620,-0.054
19.625,-0.275
19.630,0.082
19.635,0.066
19.640,-0.294
19.645,-0.068
19.650,0.150
19.655,-0.198
19.660,-0.181
19.665,0.179
19.670,-0.034
19.675,-0.230
19.680,0.133
19.685,0.137
19.690,-0.195
19.695,0.028
19.700,0.235
19.705,-0.108
19.710,-0.098
19.715,0.242
19.720,0.022
19.725,-0.182
19.730,0.163
19.735,0.155
19.740,-0.185
19.745,0.028
19.750,0.230
19.755,-0.120
19.760,-0.118
19.765,0.221
19.770,0.009
19.775,-0.196
19.780,0.141
19.785,0.132
19.790,-0.210
19.795,0.001
19.800,0.208
19.805,-0.137
19.810,-0.136
19.815,0.205
19.820,-0.005
19.825,-0.209
19.830,0.133
19.835,0.123
19.840,-0.225
19.845,-0.014
19.850,0.198
19.855,-0.143
19.860,-0.136
19.865,0.213
19.870,-0.007
19.875,-0.223
19.880,0.130
19.885,0.129
19.890,-0.224
19.895,-0.010
19.900,0.205
19.905,-0.143
19.910,-0.148
19.915,0.191
19.920,-0.036
19.925,-0.273
19.930,0.061
19.935,0.064
19.940,-0.284
19.945,-0.089
19.950,0.104
19.955,-0.240
19.960,-0.233
19.965,0.109
19.970,-0.085
19.975,-0.269
19.980,0.091
19.985,0.120
19.990,-0.190
19.995,0.039
20.000,0.267
20.005,-0.066
20.010,-0.068
20.015,0.275
20.020,0.070
20.025,-0.143
20.030,0.191
20.035,0.189
20.040,-0.152
20.045,0.057
20.050,0.275
20.055,-0.060
20.060,-0.072
20.065,0.263
20.070,0.054
20.075,-0.168
20.080,0.162
20.085,0.166
20.090,-0.177
20.095,0.023
20.100,0.239
20.105,-0.104
20.110,-0.118
20.115,0.246
20.120,0.068
20.125,-0.198
20.130,0.010
20.135,-0.173
20.140,-0.836
20.145,-0.998
20.150,-0.957
20.155,-1.040
20.160,-0.449
20.165,0.389
20.170,0.430
20.175,0.316
20.180,0.633
20.185,0.532
20.190,0.072
20.195,0.205
20.200,0.389
20.205,0.030
20.210,0.015
20.215,0.359
20.220,0.145
20.225,-0.087
20.230,0.239
20.235,0.242
20.240,-0.109
20.245,0.085
20.250,0.300
20.255,-0.042
20.260,-0.064
20.265,0.275
20.270,0.076
20.275,-0.149
20.280,0.178
20.285,0.187
20.290,-0.163
20.295,0.025
20.300,0.244
20.305,-0.091
20.310,-0.112
20.315,0.229
20.320,0.030
20.325,-0.199
20.330,0.126
20.335,0.134
20.340,-0.216
20.345,-0.022
20.350,0.204
20.355,-0.130
20.360,-0.149
20.365,0.195
20.370,-0.002
20.375,-0.230
20.380,0.101
20.385,0.122
20.390,-0.217
20.395,-0.029
20.400,0.190
20.405,-0.128
20.410,-0.152
20.415,0.171
20.420,-0.017
20.425,-0.241
20.430,0.062
20.435,0.075
20.440,-0.253
20.445,-0.068
20.450,0.152
20.455,-0.156
20.460,-0.173
20.465,0.162
20.470,-0.002
20.475,-0.207
20.480,0.108
20.485,0.139
20.490,-0.176
20.495,0.007
20.500,0.225
20.505,-0.085
20.510,-0.110
20.515,0.216
20.520,0.041
20.525,-0.176
20.530,0.133
20.535,0.156
20.540,-0.171
20.545,-0.001
20.550,0.213
20.555,-0.095
20.560,-0.122
20.565,0.201
20.570,0.025
20.575,-0.197
20.580,0.106
20.585,0.129
20.590,-0.200
20.595,-0.026
20.600,0.194
20.605,-0.114
20.610,-0.147
20.615,0.171
20.620,-0.002
20.625,-0.217
20.630,0.092
20.635,0.121
20.640,-0.206
20.645,-0.036
20.650,0.185
20.655,-0.123
20.660,-0.153
20.665,0.175
20.670,0.003
20.675,-0.215
20.680,0.094
20.685,0.123
20.690,-0.201
20.695,-0.036
20.700,0.170
20.705,-0.152
20.710,-0.200
20.715,0.121
20.720,-0.046
20.725,-0.272
20.730,0.013
20.735,0.020
20.740,-0.310
20.745,-0.134
20.750,0.090
20.755,-0.199
20.760,-0.205
20.765,0.140
20.770,-0.005
20.775,-0.199
20.780,0.131
20.785,0.185
20.790,-0.133
20.795,0.030
20.800,0.253
20.805,-0.043
20.810,-0.077
20.815,0.237
20.820,0.076
20.825,-0.135
20.830,0.161
20.835,0.194
20.840,-0.127
20.845,0.026
20.850,0.239
20.855,-0.052
20.860,-0.091
20.865,0.218
20.870,0.060
20.875,-0.159
20.880,0.125
20.885,0.155
20.890,-0.161
20.895,-0.002
20.900,0.230
20.905,-0.045
20.910,-0.134
20.915,0.051
20.920,-0.304
20.925,-0.855
20.930,-0.932
20.935,-1.042
20.940,-1.065
20.945,-0.304
20.950,0.392
20.955,0.335
20.960,0.394
20.965,0.676
20.970,0.401
20.975,0.080
20.980,0.313
20.985,0.314
20.990,-0.018
20.995,0.134
21.000,0.350
21.005,0.051
21.010,0.000
21.015,0.304
21.020,0.142
21.025,-0.084
21.030,0.199
21.035,0.234
21.040,-0.085
21.045,0.062
21.050,0.272
21.055,-0.028
21.060,-0.073
21.065,0.243
21.070,0.087
21.075,-0.140
21.080,0.143
21.085,0.180
21.090,-0.142
21.095,0.007
21.100,0.223
21.105,-0.071
21.110,-0.118
21.115,0.194
21.120,0.040
21.125,-0.188
21.130,0.093
21.135,0.137
21.140,-0.180
21.145,-0.035
21.150,0.183
21.155,-0.107
21.160,-0.155
21.165,0.159
21.170,0.009
21.175,-0.211
21.180,0.076
21.185,0.118
21.190,-0.197
21.195,-0.049
21.200,0.169
21.205,-0.120
21.210,-0.175
21.215,0.128
21.220,-0.026
21.225,-0.251
21.230,0.040
21.235,0.089
21.240,-0.224
21.245,-0.064
21.250,0.174
21.255,-0.103
21.260,-0.139
21.265,0.190
21.270,0.049
21.275,-0.175
21.280,0.115
21.285,0.167
21.290,-0.146
21.295,0.002
21.300,0.224
21.305,-0.061
21.310,-0.110
21.315,0.203
21.320,0.053
21.325,-0.175
21.330,0.106
21.335,0.155
21.340,-0.162
21.345,-0.022
21.350,0.204
21.355,-0.079
21.360,-0.134
21.365,0.175
21.370,0.030
21.375,-0.198
21.380,0.083
21.385,0.133
21.390,-0.185
21.395,-0.045
21.400,0.182
21.405,-0.098
21.410,-0.150
21.415,0.162
21.420,0.019
21.425,-0.206
21.430,0.076
21.435,0.127
21.440,-0.187
21.445,-0.044
21.450,0.183
21.455,-0.097
21.460,-0.149
21.465,0.169
21.470,0.027
21.475,-0.203
21.480,0.083
21.485,0.139
21.490,-0.178
21.495,-0.030
21.500,0.199
21.505,-0.113
21.510,-0.185
21.515,0.136
21.520,-0.024
21.525,-0.268
21.530,0.030
21.535,0.075
21.540,-0.280
21.545,-0.141
21.550,0.110
21.555,-0.179
21.560,-0.233
21.565,0.115
21.570,-0.016
21.575,-0.241
21.580,0.089
21.585,0.177
21.590,-0.140
21.595,0.026
21.600,0.277
21.605,-0.025
21.610,-0.085
21.615,0.252
21.620,0.104
21.625,-0.140
21.630,0.160
21.635,0.219
21.640,-0.119
21.645,0.027
21.650,0.271
21.655,-0.031
21.660,-0.096
21.665,0.241
21.670,0.093
21.675,-0.160
21.680,0.132
21.685,0.194
21.690,-0.144
21.695,-0.007
21.700,0.236
21.705,-0.052
21.710,-0.095
21.715,0.227
21.720,-0.014
21.725,-0.431
21.730,-0.421
21.735,-0.739
21.740,-1.356
21.745,-1.134
21.750,-0.373
21.755,-0.070
21.760,0.220
21.765,0.699
21.770,0.559
21.775,0.199
21.780,0.378
21.785,0.381
21.790,0.007
21.795,0.135
21.800,0.382
21.805,0.083
21.810,0.008
21.815,0.332
21.820,0.181
21.825,-0.077
21.830,0.209
21.835,0.272
21.840,-0.065
21.845,0.058
21.850,0.289
21.855,0.007
21.860,-0.064
21.865,0.247
21.870,0.113
21.875,-0.131
21.880,0.139
21.885,0.203
21.890,-0.123
21.895,0.001
21.900,0.238
21.905,-0.044
21.910,-0.119
21.915,0.199
21.920,0.065
21.925,-0.185
21.930,0.088
21.935,0.158
21.940,-0.163
21.945,-0.042
21.950,0.192
21.955,-0.088
21.960,-0.161
21.965,0.158
21.970,0.030
21.975,-0.215
21.980,0.059
21.985,0.126
21.990,-0.197
21.995,-0.071
22.000,0.172
22.005,-0.110
22.010,-0.192
22.015,0.122
22.020,-0.011
22.025,-0.262
22.030,0.013
22.035,0.089
22.040,-0.232
22.045,-0.103
22.050,0.153
22.055,-0.113
22.060,-0.178
22.065,0.156
22.070,0.042
22.075,-0.196
22.080,0.085
22.085,0.166
22.090,-0.150
22.095,-0.026
22.100,0.221
22.105,-0.050
22.110,-0.129
22.115,0.190
22.120,0.067
22.125,-0.185
22.130,0.090
22.135,0.167
22.140,-0.162
22.145,-0.040
22.150,0.210
22.155,-0.070
22.160,-0.152
22.165,0.175
22.170,0.052
22.175,-0.205
22.180,0.066
22.185,0.146
22.190,-0.177
22.195,-0.058
22.200,0.190
22.205,-0.083
22.210,-0.163
22.215,0.157
22.220,0.037
22.225,-0.213
22.230,0.059
22.235,0.142
22.240,-0.175
22.245,-0.057
22.250,0.188
22.255,-0.083
22.260,-0.162
22.265,0.164
22.270,0.049
22.275,-0.206
22.280,0.068
22.285,0.157
22.290,-0.167
22.295,-0.052
22.300,0.200
22.305,-0.072
22.310,-0.160
22.315,0.164
22.320,0.046
22.325,-0.220
22.330,0.037
22.335,0.109
22.340,-0.233
22.345,-0.125
22.350,0.131
22.355,-0.143
22.360,-0.248
22.365,0.058
22.370,-0.050
22.375,-0.292
22.380,-0.017
22.385,0.081
22.390,-0.224
22.395,-0.099
22.400,0.180
22.405,-0.057
22.410,-0.121
22.415,0.225
22.420,0.122
22.425,-0.134
22.430,0.135
22.435,0.222
22.440,-0.102
22.445,0.009
22.450,0.264
22.455,-0.004
22.460,-0.095
22.465,0.230
22.470,0.118
22.475,-0.143
22.480,0.123
22.485,0.214
22.490,-0.114
22.495,-0.010
22.500,0.243
22.505,-0.031
22.510,-0.126
22.515,0.198
22.520,0.081
22.525,-0.181
22.530,0.118
22.535,0.208
22.540,-0.227
22.545,-0.272
22.550,-0.262
22.555,-0.932
22.560,-1.337
22.565,-0.943
22.570,-0.580
22.575,-0.255
22.580,0.416
22.585,0.683
22.590,0.351
22.595,0.358
22.600,0.514
22.605,0.167
22.610,0.026
22.615,0.343
22.620,0.231
22.625,-0.040
22.630,0.223
22.635,0.310
22.640,-0.030
22.645,0.069
22.650,0.325
22.655,0.047
22.660,-0.061
22.665,0.265
22.670,0.155
22.675,-0.122
22.680,0.140
22.685,0.238
22.690,-0.097
22.695,0.003
22.700,0.267
22.705,-0.006
22.710,-0.115
22.715,0.210
22.720,0.103
22.725,-0.169
22.730,0.095
22.735,0.190
22.740,-0.143
22.745,-0.038
22.750,0.225
22.755,-0.051
22.760,-0.158
22.765,0.166
22.770,0.059
22.775,-0.213
22.780,0.051
22.785,0.151
22.790,-0.181
22.795,-0.080
22.800,0.188
22.805,-0.080
22.810,-0.188
22.815,0.141
22.820,0.040
22.825,-0.237
22.830,0.021
22.835,0.124
22.840,-0.212
22.845,-0.123
22.850,0.142
22.855,-0.125
22.860,-0.231
22.865,0.106
22.870,0.018
22.875,-0.241
22.880,0.035
22.885,0.154
22.890,-0.164
22.895,-0.060
22.900,0.217
22.905,-0.038
22.910,-0.140
22.915,0.189
22.920,0.092
22.925,-0.175
22.930,0.092
22.935,0.199
22.940,-0.137
22.945,-0.041
22.950,0.227
22.955,-0.049
22.960,-0.157
22.965,0.186
22.970,0.081
22.975,-0.209
22.980,0.064
22.985,0.180
22.990,-0.170
22.995,-0.078
23.000,0.208
23.005,-0.070
23.010,-0.186
23.015,0.167
23.020,0.070
23.025,-0.220
23.030,0.049
23.035,0.170
23.040,-0.165
23.045,-0.078
23.050,0.192
23.055,-0.064
23.060,-0.175
23.065,0.152
23.070,0.062
23.075,-0.211
23.080,0.045
23.085,0.162
23.090,-0.164
23.095,-0.079
23.100,0.190
23.105,-0.065
23.110,-0.178
23.115,0.146
23.120,0.060
23.125,-0.207
23.130,0.054
23.135,0.164
23.140,-0.181
23.145,-0.113
23.150,0.148
23.155,-0.116
23.160,-0.234
23.165,0.087
23.170,-0.019
23.175,-0.319
23.180,-0.069
23.185,0.061
23.190,-0.258
23.195,-0.172
23.200,0.125
23.205,-0.096
23.210,-0.195
23.215,0.157
23.220,0.105
23.225,-0.147
23.230,0.117
23.235,0.237
23.240,-0.094
23.245,-0.013
23.250,0.267
23.255,0.013
23.260,-0.105
23.265,0.226
23.270,0.140
23.275,-0.140
23.280,0.114
23.285,0.232
23.290,-0.102
23.295,-0.025
23.300,0.252
23.305,-0.005
23.310,-0.132
23.315,0.198
23.320,0.110
23.325,-0.175
23.330,0.079
23.335,0.196
23.340,-0.127
23.345,-0.022
23.350,0.230
23.355,-0.127
23.360,-0.416
23.365,-0.384
23.370,-0.841
23.375,-1.371
23.380,-0.976
23.385,-0.291
23.390,-0.075
23.395,0.294
23.400,0.717
23.405,0.485
23.410,0.258
23.415,0.475
23.420,0.321
23.425,-0.015
23.430,0.212
23.435,0.332
23.440,-0.004
23.445,0.064
23.450,0.333
23.455,0.071
23.460,-0.061
23.465,0.266
23.470,0.185
23.475,-0.109
23.480,0.129
23.485,0.253
23.490,-0.079
23.495,-0.011
23.500,0.267
23.505,0.012
23.510,-0.124
23.515,0.200
23.520,0.120
23.525,-0.165
23.530,0.088
23.535,0.214
23.540,-0.124
23.545,-0.058
23.550,0.217
23.555,-0.037
23.560,-0.171
23.565,0.158
23.570,0.085
23.575,-0.204
23.580,0.043
23.585,0.174
23.590,-0.161
23.595,-0.093
23.600,0.194
23.605,-0.060
23.610,-0.197
23.615,0.137
23.620,0.065
23.625,-0.227
23.630,0.025
23.635,0.163
23.640,-0.175
23.645,-0.112
23.650,0.168
23.655,-0.093
23.660,-0.234
23.665,0.098
23.670,0.023
23.675,-0.269
23.680,-0.009
23.685,0.142
23.690,-0.188
23.695,-0.113
23.700,0.193
23.705,-0.051
23.710,-0.186
23.715,0.161
23.720,0.102
23.725,-0.186
23.730,0.062
23.735,0.198
23.740,-0.131
23.745,-0.058
23.750,0.234
23.755,-0.017
23.760,-0.156
23.765,0.177
23.770,0.106
23.775,-0.190
23.780,0.056
23.785,0.195
23.790,-0.139
23.795,-0.078
23.800,0.208
23.805,-0.038
23.810,-0.179
23.815,0.149
23.820,0.080
23.825,-0.220
23.830,0.024
23.835,0.167
23.840,-0.166
23.845,-0.101
23.850,0.193
23.855,-0.052
23.860,-0.195
23.865,0.141
23.870,0.076
23.875,-0.225
23.880,0.026
23.885,0.175
23.890,-0.161
23.895,-0.101
23.900,0.194
23.905,-0.047
23.910,-0.196
23.915,0.132
23.920,0.080
23.925,-0.211
23.930,0.021
23.935,0.156
23.940,-0.182
23.945,-0.137
23.950,0.142
23.955,-0.100
23.960,-0.244
23.965,0.071
23.970,-0.011
23.975,-0.317
23.980,-0.067
23.985,0.086
23.990,-0.247
23.995,-0.165
24.000,0.163
24.005,-0.066
24.010,-0.191
24.015,0.177
24.020,0.140
24.025,-0.151
24.030,0.098
24.035,0.253
24.040,-0.089
24.045,-0.038
24.050,0.267
24.055,0.024
24.060,-0.130
24.065,0.211
24.070,0.156
24.075,-0.149
24.080,0.089
24.085,0.239
24.090,-0.099
24.095,-0.049
24.100,0.248
24.105,0.001
24.110,-0.153
24.115,0.186
24.120,0.129
24.125,-0.181
24.130,0.055
24.135,0.215
24.140,-0.097
24.145,-0.060
24.150,0.143
24.155,-0.261
24.160,-0.692
24.165,-0.727
24.170,-1.054
24.175,-1.272
24.180,-0.514
24.185,0.213
24.190,0.198
24.195,0.400
24.200,0.736
24.205,0.399
24.210,0.126
24.215,0.390
24.220,0.286
24.225,-0.044
24.230,0.193
24.235,0.345
24.240,-0.006
24.245,0.034
24.250,0.336
24.255,0.089
24.260,-0.082
24.265,0.246
24.270,0.189
24.275,-0.131
24.280,0.109
24.285,0.271
24.290,-0.084
24.295,-0.042
24.300,0.271
24.305,0.018
24.310,-0.151
24.315,0.199
24.320,0.146
24.325,-0.184
24.330,0.060
24.335,0.227
24.340,-0.137
24.345,-0.095
24.350,0.230
24.355,-0.020
24.360,-0.194
24.365,0.156
24.370,0.105
24.375,-0.225
24.380,0.020
24.385,0.191
24.390,-0.168
24.395,-0.124
24.400,0.203
24.405,-0.047
24.410,-0.220
24.415,0.133
24.420,0.086
24.425,-0.239
24.430,0.008
24.435,0.174
24.440,-0.188
24.445,-0.147
24.450,0.172
24.455,-0.084
24.460,-0.259
24.465,0.098
24.470,0.055
24.475,-0.268
24.480,-0.012
24.485,0.176
24.490,-0.171
24.495,-0.121
24.500,0.218
24.505,-0.020
24.510,-0.189
24.515,0.173
24.520,0.134
24.525,-0.192
24.530,0.056
24.535,0.232
24.540,-0.123
24.545,-0.082
24.550,0.242
24.555,0.000
24.560,-0.177
24.565,0.168
24.570,0.131
24.575,-0.190
24.580,0.037
24.585,0.205
24.590,-0.142
24.595,-0.109
24.600,0.210
24.605,-0.026
24.610,-0.203
24.615,0.139
24.620,0.104
24.625,-0.220
24.630,0.009
24.635,0.185
24.640,-0.159
24.645,-0.127
24.650,0.195
24.655,-0.039
24.660,-0.219
24.665,0.126
24.670,0.094
24.675,-0.226
24.680,0.011
24.685,0.189
24.690,-0.153
24.695,-0.122
24.700,0.198
24.705,-0.030
24.710,-0.206
24.715,0.141
24.720,0.109
24.725,-0.218
24.730,0.012
24.735,0.193
24.740,-0.152
24.745,-0.131
24.750,0.181
24.755,-0.056
24.760,-0.252
24.765,0.075
24.770,0.046
24.775,-0.279
24.780,-0.071
24.785,0.093
24.790,-0.245
24.795,-0.206
24.800,0.121
24.805,-0.097
24.810,-0.261
24.815,0.095
24.820,0.093
24.825,-0.198
24.830,0.052
24.835,0.256
24.840,-0.076
24.845,-0.053
24.850,0.275
24.855,0.051
24.860,-0.137
24.865,0.207
24.870,0.186
24.875,-0.138
24.880,0.082
24.885,0.263
24.890,-0.072
24.895,-0.050
24.900,0.266
24.905,0.044
24.910,-0.144
24.915,0.185
24.920,0.159
24.925,-0.164
24.930,0.053
24.935,0.232
24.940,-0.107
24.945,-0.088
24.950,0.249
24.955,0.043
24.960,-0.208
24.965,-0.017
24.970,-0.264
24.975,-0.947
24.980,-1.082
24.985,-0.974
24.990,-0.945
24.995,-0.309
25.000,0.469
25.005,0.463
25.010,0.341
25.015,0.595
25.020,0.454
25.025,0.052
25.030,0.214
25.035,0.377
25.040,0.044
25.045,0.055
25.050,0.364
25.055,0.144
25.060,-0.054
25.065,0.263
25.070,0.243
25.075,-0.081
25.080,0.118
25.085,0.297
25.090,-0.034
25.095,-0.026
25.100,0.285
25.105,0.068
25.110,-0.124
25.115,0.199
25.120,0.180
25.125,-0.146
25.130,0.057
25.135,0.244
25.140,-0.086
25.145,-0.081
25.150,0.235
25.155,0.020
25.160,-0.176
25.165,0.151
25.170,0.134
25.175,-0.198
25.180,0.013
25.185,0.205
25.190,-0.137
25.195,-0.128
25.200,0.201
25.205,-0.017
25.210,-0.218
25.215,0.115
25.220,0.107
25.225,-0.220
25.230,-0.013
25.235,0.182
25.240,-0.149
25.245,-0.145
25.250,0.178
25.255,-0.039
25.260,-0.246
25.265,0.081
25.270,0.066
25.275,-0.270
25.280,-0.052
25.285,0.153
25.290,-0.180
25.295,-0.162
25.300,0.183
25.305,-0.021
25.310,-0.213
25.315,0.137
25.320,0.142
25.325,-0.187
25.330,0.024
25.335,0.228
25.340,-0.106
25.345,-0.100
25.350,0.233
25.355,0.022
25.360,-0.183
25.365,0.152
25.370,0.146
25.375,-0.191
25.380,0.015
25.385,0.218
25.390,-0.120
25.395,-0.120
25.400,0.213
25.405,0.000
25.410,-0.209
25.415,0.127
25.420,0.124
25.425,-0.212
25.430,-0.006
25.435,0.198
25.440,-0.139
25.445,-0.140
25.450,0.194
25.455,-0.014
25.460,-0.221
25.465,0.118
25.470,0.116
25.475,-0.226
25.480,-0.017
25.485,0.197
25.490,-0.137
25.495,-0.142
25.500,0.193
25.505,-0.007
25.510,-0.214
25.515,0.120
25.520,0.123
25.525,-0.215
25.530,-0.013
25.535,0.197
25.540,-0.134
25.545,-0.136
25.550,0.202
25.555,0.000
25.560,-0.218
25.565,0.100
25.570,0.091
25.575,-0.258
25.580,-0.065
25.585,0.147
25.590,-0.190
25.595,-0.210
25.600,0.112
25.605,-0.099
25.610,-0.308
25.615,0.039
25.620,0.051
25.625,-0.285
25.630,-0.063
25.635,0.172
25.640,-0.136
25.645,-0.111
25.650,0.257
25.655,0.070
25.660,-0.144
25.665,0.194
25.670,0.202
25.675,-0.143
25.680,0.062
25.685,0.280
25.690,-0.060
25.695,-0.067
25.700,0.278
25.705,0.068
25.710,-0.153
25.715,0.188
25.720,0.192
25.725,-0.164
25.730,0.038
25.735,0.257
25.740,-0.088
25.745,-0.097
25.750,0.248
25.755,0.039
25.760,-0.186
25.765,0.159
25.770,0.187
25.775,-0.198
25.780,-0.119
25.785,-0.094
25.790,-0.760
25.795,-1.151
25.800,-0.985
25.805,-0.947
25.810,-0.588
25.815,0.275
25.820,0.572
25.825,0.328
25.830,0.480
25.835,0.571
25.840,0.133
25.845,0.069
25.850,0.389
25.855,0.188
25.860,-0.036
25.865,0.287
25.870,0.291
25.875,-0.064
25.880,0.122
25.885,0.338
25.890,-0.004
25.895,-0.030
25.900,0.309
25.905,0.108
25.910,-0.125
25.915,0.205
25.920,0.219
25.925,-0.134
25.930,0.055
25.935,0.276
25.940,-0.062
25.945,-0.087
25.950,0.252
25.955,0.056
25.960,-0.172
25.965,0.152
25.970,0.165
25.975,-0.184
25.980,0.005
25.985,0.229
25.990,-0.107
25.995,-0.135
26.000,0.208
26.005,0.014
26.010,-0.218
26.015,0.111
26.020,0.131
26.025,-0.221
26.030,-0.034
26.035,0.195
26.040,-0.137
26.045,-0.165
26.050,0.184
26.055,-0.009
26.060,-0.249
26.065,0.082
26.070,0.108
26.075,-0.248
26.080,-0.064
26.085,0.161
26.090,-0.181
26.095,-0.207
26.100,0.150
26.105,-0.032
26.110,-0.256
26.115,0.089
26.120,0.129
26.125,-0.214
26.130,-0.016
26.135,0.227
26.140,-0.100
26.145,-0.124
26.150,0.231
26.155,0.046
26.160,-0.189
26.165,0.145
26.170,0.173
26.175,-0.180
26.180,0.008
26.185,0.240
26.190,-0.097
26.195,-0.126
26.200,0.226
26.205,0.032
26.210,-0.213
26.215,0.124
26.220,0.156
26.225,-0.208
26.230,-0.024
26.235,0.220
26.240,-0.114
26.245,-0.147
26.250,0.206
26.255,0.016
26.260,-0.224
26.265,0.106
26.270,0.138
26.275,-0.209
26.280,-0.027
26.285,0.206
26.290,-0.117
26.295,-0.148
26.300,0.198
26.305,0.020
26.310,-0.219
26.315,0.103
26.320,0.142
26.325,-0.206
26.330,-0.031
26.335,0.205
26.340,-0.118
26.345,-0.149
26.350,0.202
26.355,0.020
26.360,-0.222
26.365,0.101
26.370,0.133
26.375,-0.220
26.380,-0.043
26.385,0.189
26.390,-0.156
26.395,-0.207
26.400,0.142
26.405,-0.051
26.410,-0.308
26.415,0.008
26.420,0.031
26.425,-0.319
26.430,-0.128
26.435,0.121
26.440,-0.195
26.445,-0.209
26.450,0.167
26.455,0.010
26.460,-0.206
26.465,0.151
26.470,0.210
26.475,-0.140
26.480,0.037
26.485,0.280
26.490,-0.048
26.495,-0.090
26.500,0.264
26.505,0.092
26.510,-0.156
26.515,0.164
26.520,0.209
26.525,-0.145
26.530,0.024
26.535,0.268
26.540,-0.058
26.545,-0.108
26.550,0.243
26.555,0.066
26.560,-0.184
26.565,0.141
26.570,0.181
26.575,-0.183
26.580,-0.005
26.585,0.271
26.590,-0.072
26.595,-0.228
26.600,-0.040
26.605,-0.492
26.610,-1.122
26.615,-1.058
26.620,-0.889
26.625,-0.723
26.630,-0.001
26.635,0.576
26.640,0.407
26.645,0.379
26.650,0.632
26.655,0.342
26.660,0.016
26.665,0.293
26.670,0.320
26.675,-0.046
26.680,0.122
26.685,0.371
26.690,0.032
26.695,-0.032
26.700,0.323
26.705,0.145
26.710,-0.122
26.715,0.201
26.720,0.250
26.725,-0.123
26.730,0.040
26.735,0.297
26.740,-0.041
26.745,-0.100
26.750,0.266
26.755,0.088
26.760,-0.182
26.765,0.146
26.770,0.198
26.775,-0.170
26.780,-0.004
26.785,0.252
26.790,-0.079
26.795,-0.144
26.800,0.214
26.805,0.042
26.810,-0.225
26.815,0.101
26.820,0.161
26.825,-0.203
26.830,-0.047
26.835,0.208
26.840,-0.111
26.845,-0.174
26.850,0.179
26.855,0.021
26.860,-0.236
26.865,0.083
26.870,0.142
26.875,-0.221
26.880,-0.070
26.885,0.187
26.890,-0.131
26.895,-0.201
26.900,0.140
26.905,-0.025
26.910,-0.278
26.915,0.040
26.920,0.109
26.925,-0.230
26.930,-0.065
26.935,0.199
26.940,-0.100
26.945,-0.154
26.950,0.197
26.955,0.051
26.960,-0.194
26.965,0.117
26.970,0.184
26.975,-0.161
26.980,-0.011
26.985,0.244
26.990,-0.066
26.995,-0.135
27.000,0.211
27.005,0.059
27.010,-0.194
27.015,0.115
27.020,0.176
27.025,-0.177
27.030,-0.030
27.035,0.220
27.040,-0.090
27.045,-0.156
27.050,0.190
27.055,0.037
27.060,-0.221
27.065,0.082
27.070,0.151
27.075,-0.189
27.080,-0.050
27.085,0.196
27.090,-0.098
27.095,-0.162
27.100,0.180
27.105,0.031
27.110,-0.235
27.115,0.070
27.120,0.148
27.125,-0.201
27.130,-0.060
27.135,0.199
27.140,-0.102
27.145,-0.175
27.150,0.171
27.155,0.035
27.160,-0.219
27.165,0.079
27.170,0.142
27.175,-0.214
27.180,-0.089
27.185,0.157
27.190,-0.144
27.195,-0.220
27.200,0.114
27.205,-0.045
27.210,-0.327
27.215,-0.026
27.220,0.063
27.225,-0.288
27.230,-0.145
27.235,0.147
27.240,-0.119
27.245,-0.170
27.250,0.198
27.255,0.084
27.260,-0.158
27.265,0.146
27.270,0.223
27.275,-0.119
27.280,0.011
27.285,0.270
27.290,-0.018
27.295,-0.096
27.300,0.243
27.305,0.109
27.310,-0.150
27.315,0.138
27.320,0.215
27.325,-0.125
27.330,-0.007
27.335,0.242
27.340,-0.043
27.345,-0.124
27.350,0.212
27.355,0.087
27.360,-0.174
27.365,0.104
27.370,0.180
27.375,-0.138
27.380,0.000
27.385,0.194
27.390,-0.227
27.395,-0.524
27.400,-0.531
27.405,-1.010
27.410,-1.375
27.415,-0.733
27.420,-0.035
27.425,0.056
27.430,0.387
27.435,0.741
27.440,0.402
27.445,0.198
27.450,0.450
27.455,0.259
27.460,-0.045
27.465,0.241
27.470,0.325
27.475,-0.034
27.480,0.083
27.485,0.347
27.490,0.046
27.495,-0.054
27.500,0.284
27.505,0.150
27.510,-0.129
27.515,0.159
27.520,0.243
27.525,-0.114
27.530,0.011
27.535,0.281
27.540,-0.019
27.545,-0.116
27.550,0.227
27.555,0.097
27.560,-0.181
27.565,0.110
27.570,0.199
27.575,-0.160
27.580,-0.042
27.585,0.232
27.590,-0.064
27.595,-0.161
27.600,0.184
27.605,0.052
27.610,-0.228
27.615,0.067
27.620,0.161
27.625,-0.196
27.630,-0.078
27.635,0.196
27.640,-0.094
27.645,-0.191
27.650,0.155
27.655,0.036
27.660,-0.236
27.665,0.049
27.670,0.142
27.675,-0.206
27.680,-0.095
27.685,0.168
27.690,-0.122
27.695,-0.222
27.700,0.116
27.705,0.002
27.710,-0.265
27.715,0.022
27.720,0.132
27.725,-0.200
27.730,-0.080
27.735,0.204
27.740,-0.073
27.745,-0.168
27.750,0.196
27.755,0.087
27.760,-0.196
27.765,0.096
27.770,0.199
27.775,-0.156
27.780,-0.042
27.785,0.238
27.790,-0.053
27.795,-0.156
27.800,0.195
27.805,0.080
27.810,-0.203
27.815,0.084
27.820,0.187
27.825,-0.166
27.830,-0.060
27.835,0.219
27.840,-0.066
27.845,-0.179
27.850,0.162
27.855,0.049
27.860,-0.232
27.865,0.051
27.870,0.158
27.875,-0.188
27.880,-0.080
27.885,0.201
27.890,-0.084
27.895,-0.194
27.900,0.157
27.905,0.051
27.910,-0.232
27.915,0.047
27.920,0.159
27.925,-0.187
27.930,-0.081
27.935,0.203
27.940,-0.078
27.945,-0.190
27.950,0.160
27.955,0.055
27.960,-0.235
27.965,0.033
27.970,0.137
27.975,-0.222
27.980,-0.131
27.985,0.150
27.990,-0.125
27.995,-0.247
28.000,0.071
28.005,-0.040
28.010,-0.313
28.015,-0.037
28.020,0.083
28.025,-0.236
28.030,-0.123
28.035,0.175
28.040,-0.062
28.045,-0.148
28.050,0.211
28.055,0.134
28.060,-0.142
28.065,0.124
28.070,0.241
28.075,-0.099
28.080,-0.006
28.085,0.276
28.090,0.006
28.095,-0.112
28.100,0.230
28.105,0.135
28.110,-0.152
28.115,0.114
28.120,0.231
28.125,-0.113
28.130,-0.023
28.135,0.259
28.140,-0.014
28.145,-0.140
28.150,0.197
28.155,0.105
28.160,-0.179
28.165,0.091
28.170,0.229
28.175,-0.130
28.180,-0.148
28.185,-0.038
28.190,-0.594
28.195,-1.099
28.200,-1.018
28.205,-0.966
28.210,-0.702
28.215,0.117
28.220,0.552
28.225,0.356
28.230,0.451
28.235,0.628
28.240,0.250
28.245,0.058
28.250,0.352
28.255,0.255
28.260,-0.028
28.265,0.221
28.270,0.334
28.275,-0.008
28.280,0.062
28.285,0.332
28.290,0.071
28.295,-0.060
28.300,0.260
28.305,0.173
28.310,-0.111
28.315,0.138
28.320,0.256
28.325,-0.082
28.330,-0.008
28.335,0.269
28.340,0.010
28.345,-0.120
28.350,0.206
28.355,0.122
28.360,-0.165
28.365,0.086
28.370,0.207
28.375,-0.130
28.380,-0.056
28.385,0.224
28.390,-0.035
28.395,-0.168
28.400,0.161
28.405,0.079
28.410,-0.212
28.415,0.043
28.420,0.174
28.425,-0.163
28.430,-0.091
28.435,0.194
28.440,-0.059
28.445,-0.192
28.450,0.139
28.455,0.060
28.460,-0.233
28.465,0.018
28.470,0.146
28.475,-0.197
28.480,-0.129
28.485,0.154
28.490,-0.108
28.495,-0.243
28.500,0.103
28.505,0.036
28.510,-0.252
28.515,0.015
28.520,0.164
28.525,-0.166
28.530,-0.082
28.535,0.226
28.540,-0.024
28.545,-0.161
28.550,0.184
28.555,0.112
28.560,-0.186
28.565,0.074
28.570,0.217
28.575,-0.134
28.580,-0.064
28.585,0.240
28.590,-0.023
28.595,-0.170
28.600,0.178
28.605,0.106
28.610,-0.198
28.615,0.057
28.620,0.195
28.625,-0.156
28.630,-0.089
28.635,0.213
28.640,-0.047
28.645,-0.194
28.650,0.153
28.655,0.081
28.660,-0.224
28.665,0.034
28.670,0.178
28.675,-0.172
28.680,-0.106
28.685,0.202
28.690,-0.051
28.695,-0.199
28.700,0.144
28.705,0.077
28.710,-0.223
28.715,0.033
28.720,0.179
28.725,-0.166
28.730,-0.101
28.735,0.205
28.740,-0.051
28.745,-0.198
28.750,0.155
28.755,0.089
28.760,-0.224
28.765,0.022
28.770,0.162
28.775,-0.196
28.780,-0.150
28.785,0.144
28.790,-0.105
28.795,-0.256
28.800,0.071
28.805,-0.010
28.810,-0.316
28.815,-0.057
28.820,0.104
28.825,-0.230
28.830,-0.159
28.835,0.161
28.840,-0.064
28.845,-0.183
28.850,0.186
28.855,0.145
28.860,-0.148
28.865,0.105
28.870,0.257
28.875,-0.087
28.880,-0.029
28.885,0.277
28.890,0.027
28.895,-0.126
28.900,0.219
28.905,0.162
28.910,-0.148
28.915,0.097
28.920,0.248
28.925,-0.101
28.930,-0.046
28.935,0.261
28.940,0.010
28.945,-0.152
28.950,0.186
28.955,0.127
28.960,-0.183
28.965,0.061
28.970,0.229
28.975,-0.106
28.980,-0.117
28.985,0.049
28.990,-0.425
28.995,-0.946
29.000,-0.956
29.005,-1.082
29.010,-1.022
29.015,-0.162
29.020,0.457
29.025,0.331
29.030,0.435
29.035,0.663
29.040,0.292
29.045,0.048
29.050,0.347
29.055,0.278
29.060,-0.038
29.065,0.198
29.070,0.352
29.075,0.000
29.080,0.036
29.085,0.339
29.090,0.090
29.095,-0.081
29.100,0.256
29.105,0.203
29.110,-0.116
29.115,0.117
29.120,0.276
29.125,-0.069
29.130,-0.034
29.135,0.268
29.140,0.027
29.145,-0.140
29.150,0.199
29.155,0.149
29.160,-0.170
29.165,0.063
29.170,0.224
29.175,-0.118
29.180,-0.080
29.185,0.225
29.190,-0.014
29.195,-0.184
29.200,0.150
29.205,0.106
29.210,-0.208
29.215,0.020
29.220,0.183
29.225,-0.154
29.230,-0.119
29.235,0.188
29.240,-0.047
29.245,-0.217
29.250,0.118
29.255,0.079
29.260,-0.232
29.265,-0.007
29.270,0.151
29.275,-0.190
29.280,-0.155
29.285,0.150
29.290,-0.088
29.295,-0.262
29.300,0.077
29.305,0.049
29.310,-0.254
29.315,-0.013
29.320,0.168
29.325,-0.157
29.330,-0.109
29.335,0.212
29.340,-0.010
29.345,-0.173
29.350,0.166
29.355,0.136
29.360,-0.173
29.365,0.049
29.370,0.219
29.375,-0.112
29.380,-0.083
29.385,0.226
29.390,0.001
29.395,-0.171
29.400,0.160
29.405,0.124
29.410,-0.194
29.415,0.029
29.420,0.200
29.425,-0.132
29.430,-0.102
29.435,0.205
29.440,-0.020
29.445,-0.195
29.450,0.134
29.455,0.105
29.460,-0.206
29.465,0.017
29.470,0.186
29.475,-0.153
29.480,-0.119
29.485,0.200
29.490,-0.027
29.495,-0.205
29.500,0.134
29.505,0.105
29.510,-0.211
29.515,0.018
29.520,0.192
29.525,-0.147
29.530,-0.116
29.535,0.200
29.540,-0.023
29.545,-0.195
29.550,0.139
29.555,0.114
29.560,-0.201
29.565,0.012
29.570,0.174
29.575,-0.177
29.580,-0.167
29.585,0.143
29.590,-0.076
29.595,-0.258
29.600,0.061
29.605,0.014
29.610,-0.319
29.615,-0.090
29.620,0.107
29.625,-0.225
29.630,-0.192
29.635,0.154
29.640,-0.045
29.645,-0.203
29.650,0.159
29.655,0.160
29.660,-0.142
29.665,0.079
29.670,0.260
29.675,-0.068
29.680,-0.047
29.685,0.276
29.690,0.058
29.695,-0.132
29.700,0.201
29.705,0.183
29.710,-0.140
29.715,0.073
29.720,0.255
29.725,-0.081
29.730,-0.064
29.735,0.254
29.740,0.033
29.745,-0.159
29.750,0.171
29.755,0.149
29.760,-0.180
29.765,0.030
29.770,0.228
29.775,-0.083
29.780,-0.097
29.785,0.110
29.790,-0.292
29.795,-0.799
29.800,-0.844
29.805,-1.063
29.810,-1.182
29.815,-0.401
29.820,0.319
29.825,0.279
29.830,0.413
29.835,0.712
29.840,0.381
29.845,0.079
29.850,0.342
29.855,0.297
29.860,-0.035
29.865,0.167
29.870,0.348
29.875,0.011
29.880,0.015
29.885,0.328
29.890,0.116
29.895,-0.081
29.900,0.233
29.905,0.215
29.910,-0.113
29.915,0.083
29.920,0.271
29.925,-0.057
29.930,-0.054
29.935,0.261
29.940,0.053
29.945,-0.141
29.950,0.178
29.955,0.163
29.960,-0.161
29.965,0.041
29.970,0.228
29.975,-0.106
29.980,-0.105
29.985,0.215
29.990,0.011
29.995,-0.189
30.000,0.126
30.005,0.117
30.010,-0.206
30.015,-0.007
30.020,0.186
30.025,-0.146
30.030,-0.149
30.035,0.177
30.040,-0.025
30.045,-0.227
30.050,0.097
30.055,0.095
30.060,-0.235
30.065,-0.040
30.070,0.160
30.075,-0.168
30.080,-0.176
30.085,0.139
30.090,-0.068
30.095,-0.268
30.100,0.057
30.105,0.064
30.110,-0.253
30.115,-0.049
30.120,0.165
30.125,-0.137
30.130,-0.126
30.135,0.206
30.140,0.017
30.145,-0.178
30.150,0.148
30.155,0.157
30.160,-0.164
30.165,0.028
30.170,0.232
30.175,-0.087
30.180,-0.095
30.185,0.226
30.190,0.023
30.195,-0.180
30.200,0.146
30.205,0.151
30.210,-0.177
30.215,0.013
30.220,0.214
30.225,-0.116
30.230,-0.125
30.235,0.207
30.240,0.007
30.245,-0.208
30.250,0.117
30.255,0.126
30.260,-0.204
30.265,-0.007
30.270,0.204
30.275,-0.124
30.280,-0.137
30.285,0.191
30.290,-0.007
30.295,-0.218
30.300,0.106
30.305,0.121
30.310,-0.208
30.315,-0.019
30.320,0.196
30.325,-0.126
30.330,-0.141
30.335,0.190
30.340,0.000
30.345,-0.218
30.350,0.093
30.355,0.096
30.360,-0.249
30.365,-0.073
30.370,0.136
30.375,-0.189
30.380,-0.211
30.385,0.102
30.390,-0.103
30.395,-0.310
30.400,0.013
30.405,0.026
30.410,-0.285
30.415,-0.071
30.420,0.170
30.425,-0.122
30.430,-0.115
30.435,0.244
30.440,0.074
30.445,-0.144
30.450,0.182
30.455,0.204
30.460,-0.133
30.465,0.044
30.470,0.258
30.475,-0.046
30.480,-0.061
30.485,0.257
30.490,0.078
30.495,-0.133
30.500,0.166
30.505,0.181
30.510,-0.145
30.515,0.025
30.520,0.232
30.525,-0.077
30.530,-0.095
30.535,0.225
30.540,0.042
30.545,-0.177
30.550,0.129
30.555,0.178
30.560,-0.136
30.565,-0.051
30.570,0.007
30.575,-0.538
30.580,-0.926
30.585,-0.928
30.590,-1.106
30.595,-0.878
30.600,0.033
30.605,0.441
30.610,0.289
30.615,0.517
30.620,0.658
30.625,0.230
30.630,0.121
30.635,0.392
30.640,0.181
30.645,-0.050
30.650,0.267
30.655,0.287
30.660,-0.061
30.665,0.107
30.670,0.321
30.675,-0.003
30.680,-0.039
30.685,0.288
30.690,0.106
30.695,-0.123
30.700,0.188
30.705,0.212
30.710,-0.133
30.715,0.039
30.720,0.268
30.725,-0.053
30.730,-0.096
30.735,0.231
30.740,0.052
30.745,-0.179
30.750,0.136
30.755,0.166
30.760,-0.178
30.765,-0.008
30.770,0.222
30.775,-0.096
30.780,-0.139
30.785,0.190
30.790,0.016
30.795,-0.215
30.800,0.092
30.805,0.128
30.810,-0.202
30.815,-0.038
30.820,0.181
30.825,-0.130
30.830,-0.161
30.835,0.176
30.840,0.000
30.845,-0.234
30.850,0.079
30.855,0.115
30.860,-0.230
30.865,-0.073
30.870,0.151
30.875,-0.159
30.880,-0.201
30.885,0.132
30.890,-0.026
30.895,-0.245
30.900,0.069
30.905,0.119
30.910,-0.200
30.915,-0.027
30.920,0.211
30.925,-0.083
30.930,-0.117
30.935,0.214
30.940,0.052
30.945,-0.177
30.950,0.131
30.955,0.173
30.960,-0.165
30.965,-0.006
30.970,0.232
30.975,-0.072
30.980,-0.122
30.985,0.207
30.990,0.042
30.995,-0.194
31.000,0.115
31.005,0.157
31.010,-0.185
31.015,-0.031
31.020,0.202
31.025,-0.103
31.030,-0.149
31.035,0.183
31.040,0.020
31.045,-0.218
31.050,0.086
31.055,0.134
31.060,-0.205
31.065,-0.049
31.070,0.192
31.075,-0.110
31.080,-0.160
31.085,0.170
31.090,0.010
31.095,-0.225
31.100,0.079
31.105,0.129
31.110,-0.204
31.115,-0.047
31.120,0.194
31.125,-0.114
31.130,-0.178
31.135,0.146
31.140,-0.023
31.145,-0.272
31.150,0.032
31.155,0.080
31.160,-0.270
31.165,-0.137
31.170,0.087
31.175,-0.207
31.180,-0.249
31.185,0.088
31.190,-0.051
31.195,-0.266
31.200,0.062
31.205,0.143
31.210,-0.173
31.215,0.001
31.220,0.263
31.225,-0.039
31.230,-0.096
31.235,0.245
31.240,0.090
31.245,-0.155
31.250,0.150
31.255,0.207
31.260,-0.132
31.265,0.019
31.270,0.266
31.275,-0.035
31.280,-0.096
31.285,0.236
31.290,0.081
31.295,-0.168
31.300,0.129
31.305,0.184
31.310,-0.154
31.315,-0.006
31.320,0.237
31.325,-0.069
31.330,-0.126
31.335,0.235
31.340,0.073
31.345,-0.273
31.350,-0.139
31.355,-0.354
31.360,-1.067
31.365,-1.204
31.370,-0.866
31.375,-0.642
31.380,-0.133
31.385,0.534
31.390,0.543
31.395,0.321
31.400,0.518
31.405,0.468
31.410,0.062
31.415,0.154
31.420,0.379
31.425,0.084
31.430,0.008
31.435,0.329
31.440,0.181
31.445,-0.078
31.450,0.208
31.455,0.268
31.460,-0.078
31.465,0.055
31.470,0.301
31.475,0.004
31.480,-0.070
31.485,0.255
31.490,0.109
31.495,-0.144
31.500,0.144
31.505,0.209
31.510,-0.129
31.515,0.002
31.520,0.246
31.525,-0.047
31.530,-0.122
31.535,0.203
31.540,0.065
31.545,-0.186
31.550,0.097
31.555,0.164
31.560,-0.175
31.565,-0.047
31.570,0.205
31.575,-0.086
31.580,-0.167
31.585,0.163
31.590,0.028
31.595,-0.227
31.600,0.062
31.605,0.137
31.610,-0.197
31.615,-0.066
31.620,0.181
31.625,-0.111
31.630,-0.187
31.635,0.143
31.640,0.006
31.645,-0.256
31.650,0.023
31.655,0.095
31.660,-0.238
31.665,-0.101
31.670,0.163
31.675,-0.114
31.680,-0.182
31.685,0.159
31.690,0.039
31.695,-0.201
31.700,0.096
31.705,0.181
31.710,-0.147
31.715,-0.018
31.720,0.233
31.725,-0.047
31.730,-0.123
31.735,0.205
31.740,0.077
31.745,-0.176
31.750,0.104
31.755,0.181
31.760,-0.151
31.765,-0.027
31.770,0.224
31.775,-0.062
31.780,-0.142
31.785,0.188
31.790,0.060
31.795,-0.201
31.800,0.075
31.805,0.157
31.810,-0.172
31.815,-0.053
31.820,0.202
31.825,-0.075
31.830,-0.163
31.835,0.165
31.840,0.046
31.845,-0.212
31.850,0.065
31.855,0.149
31.860,-0.186
31.865,-0.065
31.870,0.196
31.875,-0.082
31.880,-0.166
31.885,0.168
31.890,0.047
31.895,-0.214
31.900,0.064
31.905,0.154
31.910,-0.177
31.915,-0.060
31.920,0.200
31.925,-0.086
31.930,-0.190
31.935,0.127
31.940,0.000
31.945,-0.264
31.950,0.011
31.955,0.095
31.960,-0.254
31.965,-0.161
31.970,0.099
31.975,-0.163
31.980,-0.247
31.985,0.097
31.990,0.003
31.995,-0.244
32.000,0.049
32.005,0.169
32.010,-0.132
32.015,0.001
32.020,0.272
32.025,0.001
32.030,-0.094
32.035,0.235
32.040,0.126
32.045,-0.134
32.050,0.138
32.055,0.227
32.060,-0.103
32.065,0.009
32.070,0.267
32.075,-0.007
32.080,-0.103
32.085,0.219
32.090,0.109
32.095,-0.151
32.100,0.116
32.105,0.204
32.110,-0.130
32.115,-0.026
32.120,0.234
32.125,-0.037
32.130,-0.123
32.135,0.216
32.140,0.051
32.145,-0.347
32.150,-0.297
32.155,-0.556
32.160,-1.250
32.165,-1.253
32.170,-0.651
32.175,-0.304
32.180,0.070
32.185,0.631
32.190,0.602
32.195,0.263
32.200,0.401
32.205,0.412
32.210,0.037
32.215,0.118
32.220,0.380
32.225,0.110
32.230,-0.001
32.235,0.317
32.240,0.205
32.245,-0.067
32.250,0.192
32.255,0.281
32.260,-0.058
32.265,0.040
32.270,0.302
32.275,0.032
32.280,-0.080
32.285,0.236
32.290,0.133
32.295,-0.134
32.300,0.123
32.305,0.220
32.310,-0.111
32.315,-0.017
32.320,0.245
32.325,-0.023
32.330,-0.134
32.335,0.188
32.340,0.086
32.345,-0.184
32.350,0.075
32.355,0.181
32.360,-0.145
32.365,-0.060
32.370,0.196
32.375,-0.067
32.380,-0.179
32.385,0.140
32.390,0.047
32.395,-0.222
32.400,0.034
32.405,0.141
32.410,-0.186
32.415,-0.095
32.420,0.170
32.425,-0.093
32.430,-0.207
32.435,0.110
32.440,0.015
32.445,-0.258
32.450,-0.011
32.455,0.096
32.460,-0.222
32.465,-0.130
32.470,0.145
32.475,-0.097
32.480,-0.195
32.485,0.142
32.490,0.066
32.495,-0.193
32.500,0.070
32.505,0.189
32.510,-0.131
32.515,-0.042
32.520,0.231
32.525,-0.025
32.530,-0.143
32.535,0.183
32.540,0.097
32.545,-0.174
32.550,0.079
32.555,0.188
32.560,-0.140
32.565,-0.054
32.570,0.215
32.575,-0.044
32.580,-0.163
32.585,0.158
32.590,0.074
32.595,-0.196
32.600,0.050
32.605,0.164
32.610,-0.154
32.615,-0.072
32.620,0.193
32.625,-0.059
32.630,-0.176
32.635,0.143
32.640,0.062
32.645,-0.205
32.650,0.044
32.655,0.158
32.660,-0.160
32.665,-0.074
32.670,0.197
32.675,-0.055
32.680,-0.175
32.685,0.148
32.690,0.075
32.695,-0.196
32.700,0.043
32.705,0.163
32.710,-0.152
32.715,-0.077
32.720,0.191
32.725,-0.053
32.730,-0.181
32.735,0.120
32.740,0.033
32.745,-0.248
32.750,-0.019
32.755,0.104
32.760,-0.211
32.765,-0.155
32.770,0.094
32.775,-0.153
32.780,-0.261
32.785,0.063
32.790,-0.010
32.795,-0.263
32.800,0.001
32.805,0.143
32.810,-0.150
32.815,-0.052
32.820,0.251
32.825,0.023
32.830,-0.109
32.835,0.213
32.840,0.143
32.845,-0.135
32.850,0.110
32.855,0.239
32.860,-0.084
32.865,-0.015
32.870,0.260
32.875,0.014
32.880,-0.116
32.885,0.204
32.890,0.132
32.895,-0.149
32.900,0.093
32.905,0.221
32.910,-0.112
32.915,-0.049
32.920,0.234
32.925,-0.016
32.930,-0.152
32.935,0.195
32.940,0.136
32.945,-0.222
32.950,-0.121
32.955,-0.213
32.960,-0.903
32.965,-1.184
32.970,-0.963
32.975,-0.822
32.980,-0.349
32.985,0.405
32.990,0.553
32.995,0.349
33.000,0.518
33.005,0.523
33.010,0.106
33.015,0.113
33.020,0.370
33.025,0.125
33.030,-0.020
33.035,0.296
33.040,0.226
33.045,-0.069
33.050,0.162
33.055,0.291
33.060,-0.045
33.065,0.010
33.070,0.292
33.075,0.047
33.080,-0.100
33.085,0.216
33.090,0.158
33.095,-0.122
33.100,0.104
33.105,0.232
33.110,-0.092
33.115,-0.042
33.120,0.237
33.125,0.000
33.130,-0.146
33.135,0.170
33.140,0.107
33.145,-0.180
33.150,0.052
33.155,0.189
33.160,-0.134
33.165,-0.089
33.170,0.186
33.175,-0.041
33.180,-0.186
33.185,0.128
33.190,0.074
33.195,-0.213
33.200,0.017
33.205,0.154
33.210,-0.178
33.215,-0.123
33.220,0.172
33.225,-0.064
33.230,-0.215
33.235,0.107
33.240,0.050
33.245,-0.248
33.250,-0.033
33.255,0.105
33.260,-0.209
33.265,-0.152
33.270,0.140
33.275,-0.080
33.280,-0.217
33.285,0.114
33.290,0.075
33.295,-0.206
33.300,0.033
33.305,0.192
33.310,-0.124
33.315,-0.070
33.320,0.224
33.325,-0.004
33.330,-0.153
33.335,0.174
33.340,0.128
33.345,-0.166
33.350,0.055
33.355,0.198
33.360,-0.124
33.365,-0.078
33.370,0.212
33.375,-0.012
33.380,-0.164
33.385,0.149
33.390,0.104
33.395,-0.189
33.400,0.023
33.405,0.175
33.410,-0.139
33.415,-0.097
33.420,0.190
33.425,-0.036
33.430,-0.189
33.435,0.129
33.440,0.085
33.445,-0.209
33.450,0.014
33.455,0.171
33.460,-0.157
33.465,-0.119
33.470,0.186
33.475,-0.030
33.480,-0.188
33.485,0.128
33.490,0.086
33.495,-0.208
33.500,0.010
33.505,0.169
33.510,-0.142
33.515,-0.123
33.520,0.143
33.525,-0.076
33.530,-0.231
33.535,0.068
33.540,0.023
33.545,-0.281
33.550,-0.091
33.555,0.062
33.560,-0.244
33.565,-0.207
33.570,0.100
33.575,-0.089
33.580,-0.228
33.585,0.109
33.590,0.100
33.595,-0.165
33.600,0.082
33.605,0.251
33.610,-0.072
33.615,-0.041
33.620,0.254
33.625,0.040
33.630,-0.119
33.635,0.200
33.640,0.168
33.645,-0.135
33.650,0.076
33.655,0.244
33.660,-0.070
33.665,-0.046
33.670,0.245
33.675,0.030
33.680,-0.137
33.685,0.177
33.690,0.143
33.695,-0.163
33.700,0.049
33.705,0.213
33.710,-0.113
33.715,-0.074
33.720,0.249
33.725,-0.008
33.730,-0.299
33.735,-0.165
33.740,-0.506
33.745,-1.181
33.750,-1.173
33.755,-0.773
33.760,-0.488
33.765,0.047
33.770,0.605
33.775,0.508
33.780,0.319
33.785,0.532
33.790,0.405
33.795,0.029
33.800,0.199
33.805,0.354
33.810,0.025
33.815,0.040
33.820,0.342
33.825,0.129
33.830,-0.052
33.835,0.258
33.840,0.223
33.845,-0.095
33.850,0.105
33.855,0.274
33.860,-0.048
33.865,-0.032
33.870,0.268
33.875,0.054
33.880,-0.127
33.885,0.186
33.890,0.163
33.895,-0.150
33.900,0.051
33.905,0.224
33.910,-0.095
33.915,-0.080
33.920,0.221
33.925,0.010
33.930,-0.174
33.935,0.136
33.940,0.116
33.945,-0.194
33.950,0.007
33.955,0.181
33.960,-0.136
33.965,-0.120
33.970,0.182
33.975,-0.025
33.980,-0.207
33.985,0.106
33.990,0.092
33.995,-0.216
34.000,-0.015
34.005,0.163
34.010,-0.150
34.015,-0.138
34.020,0.158
34.025,-0.056
34.030,-0.247
34.035,0.064
34.040,0.049
34.045,-0.258
34.050,-0.049
34.055,0.142
34.060,-0.168
34.065,-0.147
34.070,0.177
34.075,-0.012
34.080,-0.187
34.085,0.131
34.090,0.127
34.095,-0.172
34.100,0.031
34.105,0.214
34.110,-0.101
34.115,-0.091
34.120,0.220
34.125,0.019
34.130,-0.170
34.135,0.145
34.140,0.137
34.145,-0.177
34.150,0.019
34.155,0.207
34.160,-0.109
34.165,-0.109
34.170,0.199
34.175,0.000
34.180,-0.193
34.185,0.119
34.190,0.110
34.195,-0.207
34.200,-0.010
34.205,0.180
34.210,-0.136
34.215,-0.135
34.220,0.175
34.225,-0.018
34.230,-0.208
34.235,0.106
34.240,0.105
34.245,-0.209
34.250,-0.019
34.255,0.169
34.260,-0.143
34.265,-0.142
34.270,0.173
34.275,-0.016
34.280,-0.210
34.285,0.101
34.290,0.094
34.295,-0.233
34.300,-0.049
34.305,0.136
34.310,-0.188
34.315,-0.194
34.320,0.119
34.325,-0.086
34.330,-0.303
34.335,0.000
34.340,0.013
34.345,-0.294
34.350,-0.097
34.355,0.124
34.360,-0.165
34.365,-0.147
34.370,0.192
34.375,0.029
34.380,-0.140
34.385,0.178
34.390,0.181
34.395,-0.129
34.400,0.062
34.405,0.260
34.410,-0.062
34.415,-0.069
34.420,0.262
34.425,0.067
34.430,-0.145
34.435,0.177
34.440,0.182
34.445,-0.152
34.450,0.041
34.455,0.249
34.460,-0.081
34.465,-0.095
34.470,0.238
34.475,0.039
34.480,-0.180
34.485,0.140
34.490,0.154
34.495,-0.156
34.500,0.048
34.505,0.208
34.510,-0.227
34.515,-0.427
34.520,-0.426
34.525,-0.987
34.530,-1.392
34.535,-0.850
34.540,-0.238
34.545,-0.043
34.550,0.405
34.555,0.729
34.560,0.395
34.565,0.261
34.570,0.478
34.575,0.237
34.580,-0.008
34.585,0.290
34.590,0.301
34.595,-0.035
34.600,0.141
34.605,0.349
34.610,0.023
34.615,-0.006
34.620,0.313
34.625,0.123
34.630,-0.101
34.635,0.205
34.640,0.217
34.645,-0.115
34.650,0.064
34.655,0.276
34.660,-0.045
34.665,-0.071
34.670,0.256
34.675,0.067
34.680,-0.156
34.685,0.162
34.690,0.177
34.695,-0.168
34.700,0.012
34.705,0.231
34.710,-0.086
34.715,-0.112
34.720,0.207
34.725,0.023
34.730,-0.194
34.735,0.109
34.740,0.129
34.745,-0.196
34.750,-0.025
34.755,0.185
34.760,-0.121
34.765,-0.149
34.770,0.171
34.775,-0.002
34.780,-0.218
34.785,0.085
34.790,0.108
34.795,-0.220
34.800,-0.050
34.805,0.162
34.810,-0.158
34.815,-0.192
34.820,0.139
34.825,-0.032
34.830,-0.249
34.835,0.064
34.840,0.100
34.845,-0.209
34.850,-0.030
34.855,0.194
34.860,-0.096
34.865,-0.115
34.870,0.212
34.875,0.049
34.880,-0.167
34.885,0.132
34.890,0.161
34.895,-0.160
34.900,0.008
34.905,0.226
34.910,-0.075
34.915,-0.110
34.920,0.208
34.925,0.044
34.930,-0.176
34.935,0.118
34.940,0.150
34.945,-0.171
34.950,-0.014
34.955,0.205
34.960,-0.090
34.965,-0.132
34.970,0.178
34.975,0.020
34.980,-0.199
34.985,0.088
34.990,0.127
34.995,-0.189
35.000,-0.036
35.005,0.184
35.010,-0.108
35.015,-0.149
35.020,0.164
35.025,0.007
35.030,-0.211
35.035,0.084
35.040,0.126
35.045,-0.195
35.050,-0.042
35.055,0.182
35.060,-0.106
35.065,-0.144
35.070,0.175
35.075,0.017
35.080,-0.211
35.085,0.076
35.090,0.111
35.095,-0.223
35.100,-0.086
35.105,0.131
35.110,-0.163
35.115,-0.209
35.120,0.101
35.125,-0.073
35.130,-0.306
35.135,-0.005
35.140,0.051
35.145,-0.259
35.150,-0.094
35.155,0.146
35.160,-0.126
35.165,-0.140
35.170,0.211
35.175,0.081
35.180,-0.136
35.185,0.156
35.190,0.207
35.195,-0.113
35.200,0.034
35.205,0.262
35.210,-0.026
35.215,-0.076
35.220,0.245
35.225,0.098
35.230,-0.138
35.235,0.150
35.240,0.197
35.245,-0.138
35.250,0.015
35.255,0.255
35.260,-0.055
35.265,-0.113
35.270,0.227
35.275,0.065
35.280,-0.188
35.285,0.116
35.290,0.190
35.295,-0.138
35.300,-0.044
35.305,0.067
35.310,-0.460
35.315,-0.877
35.320,-0.894
35.325,-1.152
35.330,-1.073
35.335,-0.160
35.340,0.388
35.345,0.290
35.350,0.501
35.355,0.667
35.360,0.245
35.365,0.097
35.370,0.382
35.375,0.213
35.380,-0.031
35.385,0.266
35.390,0.314
35.395,-0.034
35.400,0.105
35.405,0.342
35.410,0.039
35.415,-0.031
35.420,0.294
35.425,0.145
35.430,-0.109
35.435,0.178
35.440,0.236
35.445,-0.103
35.450,0.032
35.455,0.276
35.460,-0.024
35.465,-0.098
35.470,0.237
35.475,0.094
35.480,-0.162
35.485,0.125
35.490,0.187
35.495,-0.153
35.500,-0.019
35.505,0.228
35.510,-0.068
35.515,-0.140
35.520,0.190
35.525,0.043
35.530,-0.211
35.535,0.081
35.540,0.147
35.545,-0.193
35.550,-0.058
35.555,0.190
35.560,-0.104
35.565,-0.177
35.570,0.157
35.575,0.022
35.580,-0.235
35.585,0.050
35.590,0.120
35.595,-0.219
35.600,-0.095
35.605,0.149
35.610,-0.142
35.615,-0.218
35.620,0.117
35.625,-0.013
35.630,-0.259
35.635,0.043
35.640,0.131
35.645,-0.198
35.650,-0.052
35.655,0.222
35.660,-0.063
35.665,-0.137
35.670,0.210
35.675,0.079
35.680,-0.183
35.685,0.109
35.690,0.192
35.695,-0.145
35.700,-0.020
35.705,0.239
35.710,-0.044
35.715,-0.132
35.720,0.190
35.725,0.066
35.730,-0.186
35.735,0.086
35.740,0.163
35.745,-0.164
35.750,-0.046
35.755,0.204
35.760,-0.070
35.765,-0.156
35.770,0.163
35.775,0.048
35.780,-0.200
35.785,0.068
35.790,0.150
35.795,-0.171
35.800,-0.057
35.805,0.192
35.810,-0.076
35.815,-0.160
35.820,0.158
35.825,0.040
35.830,-0.209
35.835,0.068
35.840,0.155
35.845,-0.172
35.850,-0.056
35.855,0.202
35.860,-0.074
35.865,-0.165
35.870,0.167
35.875,0.050
35.880,-0.211
35.885,0.058
35.890,0.129
35.895,-0.219
35.900,-0.117
35.905,0.138
35.910,-0.139
35.915,-0.235
35.920,0.083
35.925,-0.049
35.930,-0.314
35.935,-0.030
35.940,0.068
35.945,-0.250
35.950,-0.115
35.955,0.163
35.960,-0.090
35.965,-0.153
35.970,0.197
35.975,0.111
35.980,-0.134
35.985,0.128
35.990,0.223
35.995,-0.092
36.000,0.011
36.005,0.264
36.010,0.007
36.015,-0.086
36.020,0.226
36.025,0.122
36.030,-0.137
36.035,0.119
36.040,0.213
36.045,-0.115
36.050,-0.012
36.055,0.250
36.060,-0.017
36.065,-0.121
36.070,0.195
36.075,0.085
36.080,-0.178
36.085,0.086
36.090,0.200
36.095,-0.117
36.100,-0.087
36.105,0.030
36.110,-0.471
36.115,-0.940
36.120,-0.954
36.125,-1.085
36.130,-0.936
36.135,-0.075
36.140,0.439
36.145,0.321
36.150,0.482
36.155,0.662
36.160,0.275
36.165,0.082
36.170,0.352
36.175,0.233
36.180,-0.032
36.185,0.218
36.190,0.309
36.195,-0.020
36.200,0.066
36.205,0.319
36.210,0.056
36.215,-0.057
36.220,0.256
36.225,0.153
36.230,-0.115
36.235,0.136
36.240,0.235
36.245,-0.088
36.250,-0.002
36.255,0.253
36.260,-0.006
36.265,-0.117
36.270,0.197
36.275,0.104
36.280,-0.161
36.285,0.091
36.290,0.192
36.295,-0.137
36.300,-0.049
36.305,0.214
36.310,-0.051
36.315,-0.169
36.320,0.147
36.325,0.055
36.330,-0.207
36.335,0.047
36.340,0.149
36.345,-0.175
36.350,-0.085
36.355,0.178
36.360,-0.079
36.365,-0.192
36.370,0.128
36.375,0.040
36.380,-0.227
36.385,0.024
36.390,0.132
36.395,-0.196
36.400,-0.118
36.405,0.141
36.410,-0.122
36.415,-0.237
36.420,0.089
36.425,0.008
36.430,-0.252
36.435,0.019
36.440,0.146
36.445,-0.176
36.450,-0.077
36.455,0.212
36.460,-0.038
36.465,-0.150
36.470,0.183
36.475,0.103
36.480,-0.167
36.485,0.084
36.490,0.197
36.495,-0.129
36.500,-0.047
36.505,0.227
36.510,-0.037
36.515,-0.161
36.520,0.177
36.525,0.099
36.530,-0.180
36.535,0.070
36.540,0.186
36.545,-0.152
36.550,-0.073
36.555,0.211
36.560,-0.046
36.565,-0.177
36.570,0.154
36.575,0.069
36.580,-0.220
36.585,0.037
36.590,0.166
36.595,-0.162
36.600,-0.087
36.605,0.187
36.610,-0.061
36.615,-0.179
36.620,0.148
36.625,0.069
36.630,-0.208
36.635,0.042
36.640,0.163
36.645,-0.165
36.650,-0.088
36.655,0.194
36.660,-0.056
36.665,-0.194
36.670,0.119
36.675,0.033
36.680,-0.261
36.685,-0.018
36.690,0.107
36.695,-0.231
36.700,-0.176
36.705,0.092
36.710,-0.156
36.715,-0.283
36.720,0.052
36.725,0.005
36.730,-0.251
36.735,0.010
36.740,0.165
36.745,-0.135
36.750,-0.039
36.755,0.264
36.760,0.021
36.765,-0.114
36.770,0.212
36.775,0.145
36.780,-0.138
36.785,0.104
36.790,0.242
36.795,-0.084
36.800,-0.025
36.805,0.256
36.810,0.007
36.815,-0.136
36.820,0.199
36.825,0.140
36.830,-0.151
36.835,0.087
36.840,0.218
36.845,-0.117
36.850,-0.057
36.855,0.226
36.860,-0.023
36.865,-0.159
36.870,0.197
36.875,0.132
36.880,-0.251
36.885,-0.170
36.890,-0.283
36.895,-0.976
36.900,-1.223
36.905,-0.906
36.910,-0.673
36.915,-0.225
36.920,0.470
36.925,0.576
36.930,0.327
36.935,0.492
36.940,0.519
36.945,0.101
36.950,0.098
36.955,0.363
36.960,0.121
36.965,-0.030
36.970,0.290
36.975,0.226
36.980,-0.075
36.985,0.150
36.990,0.285
36.995,-0.045
37.000,0.007
37.005,0.290
37.010,0.049
37.015,-0.099
37.020,0.214
37.025,0.153
37.030,-0.136
37.035,0.091
37.040,0.229
37.045,-0.099
37.050,-0.053
37.055,0.233
37.060,-0.003
37.065,-0.154
37.070,0.163
37.075,0.105
37.080,-0.189
37.085,0.038
37.090,0.179
37.095,-0.148
37.100,-0.099
37.105,0.191
37.110,-0.041
37.115,-0.195
37.120,0.125
37.125,0.076
37.130,-0.219
37.135,0.011
37.140,0.162
37.145,-0.166
37.150,-0.116
37.155,0.182
37.160,-0.056
37.165,-0.215
37.170,0.106
37.175,0.048
37.180,-0.253
37.185,-0.027
37.190,0.117
37.195,-0.214
37.200,-0.162
37.205,0.147
37.210,-0.072
37.215,-0.215
37.220,0.119
37.225,0.082
37.230,-0.203
37.235,0.036
37.240,0.199
37.245,-0.125
37.250,-0.080
37.255,0.225
37.260,-0.001
37.265,-0.160
37.270,0.168
37.275,0.127
37.280,-0.174
37.285,0.050
37.290,0.210
37.295,-0.120
37.300,-0.084
37.305,0.216
37.310,-0.015
37.315,-0.180
37.320,0.146
37.325,0.106
37.330,-0.196
37.335,0.027
37.340,0.187
37.345,-0.139
37.350,-0.104
37.355,0.190
37.360,-0.041
37.365,-0.201
37.370,0.126
37.375,0.085
37.380,-0.215
37.385,0.007
37.390,0.165
37.395,-0.157
37.400,-0.121
37.405,0.180
37.410,-0.041
37.415,-0.207
37.420,0.117
37.425,0.088
37.430,-0.208
37.435,0.010
37.440,0.168
37.445,-0.166
37.450,-0.146
37.455,0.140
37.460,-0.088
37.465,-0.248
37.470,0.074
37.475,0.021
37.480,-0.308
37.485,-0.101
37.490,0.076
37.495,-0.238
37.500,-0.200
37.505,0.126
37.510,-0.064
37.515,-0.207
37.520,0.138
37.525,0.133
37.530,-0.145
37.535,0.080
37.540,0.249
37.545,-0.072
37.550,-0.043
37.555,0.266
37.560,0.052
37.565,-0.118
37.570,0.203
37.575,0.173
37.580,-0.136
37.585,0.078
37.590,0.252
37.595,-0.073
37.600,-0.054
37.605,0.250
37.610,0.033
37.615,-0.141
37.620,0.181
37.625,0.148
37.630,-0.167
37.635,0.042
37.640,0.215
37.645,-0.101
37.650,-0.055
37.655,0.226
37.660,-0.106
37.665,-0.469
37.670,-0.460
37.675,-0.859
37.680,-1.378
37.685,-0.971
37.690,-0.217
37.695,-0.006
37.700,0.291
37.705,0.722
37.710,0.504
37.715,0.213
37.720,0.425
37.725,0.343
37.730,-0.007
37.735,0.186
37.740,0.362
37.745,0.032
37.750,0.038
37.755,0.340
37.760,0.122
37.765,-0.070
37.770,0.242
37.775,0.220
37.780,-0.098
37.785,0.105
37.790,0.285
37.795,-0.050
37.800,-0.043
37.805,0.270
37.810,0.057
37.815,-0.132
37.820,0.188
37.825,0.170
37.830,-0.151
37.835,0.053
37.840,0.240
37.845,-0.088
37.850,-0.088
37.855,0.222
37.860,0.013
37.865,-0.181
37.870,0.139
37.875,0.125
37.880,-0.199
37.885,0.003
37.890,0.192
37.895,-0.138
37.900,-0.132
37.905,0.188
37.910,-0.018
37.915,-0.212
37.920,0.110
37.925,0.104
37.930,-0.217
37.935,-0.021
37.940,0.168
37.945,-0.157
37.950,-0.156
37.955,0.155
37.960,-0.053
37.965,-0.253
37.970,0.066
37.975,0.063
37.980,-0.255
37.985,-0.047
37.990,0.158
37.995,-0.155
38.000,-0.139
38.005,0.192
38.010,0.001
38.015,-0.184
38.020,0.145
38.025,0.144
38.030,-0.174
38.035,0.027
38.040,0.228
38.045,-0.093
38.050,-0.096
38.055,0.227
38.060,0.031
38.065,-0.173
38.070,0.142
38.075,0.143
38.080,-0.178
38.085,0.012
38.090,0.206
38.095,-0.113
38.100,-0.118
38.105,0.197
38.110,0.006
38.115,-0.193
38.120,0.116
38.125,0.118
38.130,-0.201
38.135,-0.012
38.140,0.187
38.145,-0.134
38.150,-0.140
38.155,0.185
38.160,-0.008
38.165,-0.213
38.170,0.104
38.175,0.114
38.180,-0.205
38.185,-0.019
38.190,0.180
38.195,-0.131
38.200,-0.136
38.205,0.186
38.210,0.001
38.215,-0.203
38.220,0.108
38.225,0.121
38.230,-0.197
38.235,-0.014
38.240,0.192
38.245,-0.122
38.250,-0.150
38.255,0.157
38.260,-0.037
38.265,-0.260
38.270,0.045
38.275,0.062
38.280,-0.263
38.285,-0.104
38.290,0.084
38.295,-0.216
38.300,-0.217
38.305,0.109
38.310,-0.061
38.315,-0.253
38.320,0.076
38.325,0.121
38.330,-0.175
38.335,0.029
38.340,0.261
38.345,-0.043
38.350,-0.063
38.355,0.259
38.360,0.080
38.365,-0.134
38.370,0.176
38.375,0.201
38.380,-0.122
38.385,0.056
38.390,0.266
38.395,-0.052
38.400,-0.073
38.405,0.255
38.410,0.069
38.415,-0.152
38.420,0.158
38.425,0.174
38.430,-0.157
38.435,0.022
38.440,0.238
38.445,-0.081
38.450,-0.106
38.455,0.244
38.460,0.051
38.465,-0.271
38.470,-0.134
38.475,-0.398
38.480,-1.106
38.485,-1.198
38.490,-0.868
38.495,-0.647
38.500,-0.094
38.505,0.573
38.510,0.536
38.515,0.311
38.520,0.506
38.525,0.418
38.530,0.024
38.535,0.164
38.540,0.377
38.545,0.072
38.550,0.036
38.555,0.349
38.560,0.170
38.565,-0.057
38.570,0.236
38.575,0.259
38.580,-0.071
38.585,0.085
38.590,0.297
38.595,-0.007
38.600,-0.047
38.605,0.269
38.610,0.101
38.615,-0.124
38.620,0.166
38.625,0.188
38.630,-0.140
38.635,0.028
38.640,0.249
38.645,-0.067
38.650,-0.108
38.655,0.224
38.660,0.050
38.665,-0.187
38.670,0.120
38.675,0.151
38.680,-0.192
38.685,-0.027
38.690,0.199
38.695,-0.116
38.700,-0.154
38.705,0.179
38.710,0.005
38.715,-0.233
38.720,0.077
38.725,0.117
38.730,-0.216
38.735,-0.053
38.740,0.174
38.745,-0.137
38.750,-0.185
38.755,0.143
38.760,-0.024
38.765,-0.262
38.770,0.033
38.775,0.070
38.780,-0.260
38.785,-0.093
38.790,0.145
38.795,-0.147
38.800,-0.180
38.805,0.163
38.810,0.021
38.815,-0.201
38.820,0.100
38.825,0.152
38.830,-0.164
38.835,-0.003
38.840,0.231
38.845,-0.063
38.850,-0.113
38.855,0.209
38.860,0.056
38.865,-0.175
38.870,0.117
38.875,0.165
38.880,-0.159
38.885,-0.013
38.890,0.212
38.895,-0.082
38.900,-0.134
38.905,0.187
38.910,0.036
38.915,-0.199
38.920,0.090
38.925,0.140
38.930,-0.186
38.935,-0.038
38.940,0.198
38.945,-0.097
38.950,-0.155
38.955,0.171
38.960,0.026
38.965,-0.211
38.970,0.076
38.975,0.130
38.980,-0.194
38.985,-0.046
38.990,0.193
38.995,-0.096
39.000,-0.148
39.005,0.179
39.010,0.030
39.015,-0.207
39.020,0.085
39.025,0.144
39.030,-0.183
39.035,-0.039
39.040,0.200
39.045,-0.092
39.050,-0.150
39.055,0.177
39.060,0.026
39.065,-0.228
39.070,0.044
39.075,0.090
39.080,-0.243
39.085,-0.105
39.090,0.128
39.095,-0.176
39.100,-0.252
39.105,0.076
39.110,-0.055
39.115,-0.291
39.120,0.006
39.125,0.088
39.130,-0.219
39.135,-0.059
39.140,0.206
39.145,-0.058
39.150,-0.098
39.155,0.242
39.160,0.109
39.165,-0.131
39.170,0.151
39.175,0.212
39.180,-0.111
39.185,0.026
39.190,0.269
39.195,-0.015
39.200,-0.084
39.205,0.235
39.210,0.098
39.215,-0.146
39.220,0.133
39.225,0.199
39.230,-0.128
39.235,-0.002
39.240,0.238
39.245,-0.048
39.250,-0.123
39.255,0.196
39.260,0.065
39.265,-0.161
39.270,0.118
39.275,0.103
39.280,-0.382
39.285,-0.517
39.290,-0.648
39.295,-1.229
39.300,-1.257
39.305,-0.453
39.310,0.012
39.315,0.136
39.320,0.583
39.325,0.686
39.330,0.260
39.335,0.262
39.340,0.431
39.345,0.108
39.350,0.019
39.355,0.344
39.360,0.208
39.365,-0.054
39.370,0.215
39.375,0.282
39.380,-0.051
39.385,0.066
39.390,0.307
39.395,0.023
39.400,-0.061
39.405,0.257
39.410,0.128
39.415,-0.123
39.420,0.151
39.425,0.220
39.430,-0.111
39.435,0.007
39.440,0.248
39.445,-0.032
39.450,-0.113
39.455,0.207
39.460,0.085
39.465,-0.166
39.470,0.102
39.475,0.174
39.480,-0.154
39.485,-0.036
39.490,0.212
39.495,-0.064
39.500,-0.151
39.505,0.165
39.510,0.042
39.515,-0.208
39.520,0.064
39.525,0.140
39.530,-0.191
39.535,-0.076
39.540,0.175
39.545,-0.101
39.550,-0.184
39.555,0.144
39.560,0.021
39.565,-0.243
39.570,0.027
39.575,0.109
39.580,-0.229
39.585,-0.115
39.590,0.144
39.595,-0.136
39.600,-0.218
39.605,0.128
39.610,0.019
39.615,-0.234
39.620,0.060
39.625,0.162
39.630,-0.168
39.635,-0.037
39.640,0.237
39.645,-0.043
39.650,-0.133
39.655,0.204
39.660,0.091
39.665,-0.172
39.670,0.104
39.675,0.196
39.680,-0.144
39.685,-0.033
39.690,0.234
39.695,-0.048
39.700,-0.149
39.705,0.188
39.710,0.073
39.715,-0.199
39.720,0.079
39.725,0.174
39.730,-0.167
39.735,-0.059
39.740,0.205
39.745,-0.073
39.750,-0.169
39.755,0.170
39.760,0.054
39.765,-0.223
39.770,0.061
39.775,0.163
39.780,-0.189
39.785,-0.073
39.790,0.210
39.795,-0.077
39.800,-0.183
39.805,0.163
39.810,0.047
39.815,-0.232
39.820,0.059
39.825,0.160
39.830,-0.193
39.835,-0.076
39.840,0.207
39.845,-0.076
39.850,-0.180
39.855,0.157
39.860,0.034
39.865,-0.251
39.870,0.017
39.875,0.106
39.880,-0.243
39.885,-0.138
39.890,0.127
39.895,-0.178
39.900,-0.297
39.905,0.060
39.910,-0.041
39.915,-0.317
39.920,-0.010
39.925,0.128
39.930,-0.201
39.935,-0.068
39.940,0.247
39.945,-0.013
39.950,-0.114
39.955,0.233
39.960,0.124
39.965,-0.159
39.970,0.125
39.975,0.233
39.980,-0.118
39.985,-0.007
39.990,0.281
39.995,-0.005
40.000,-0.121
40.005,0.227
40.010,0.120
40.015,-0.164
40.020,0.111
40.025,0.215
40.030,-0.133
40.035,-0.029
40.040,0.255
40.045,-0.028
40.050,-0.151
40.055,0.190
40.060,0.099
40.065,-0.161
40.070,0.089
40.075,0.095
40.080,-0.421
40.085,-0.615
40.090,-0.706
40.095,-1.230
40.100,-1.200
40.105,-0.301
40.110,0.148
40.115,0.163
40.120,0.577
40.125,0.707
40.130,0.257
40.135,0.237
40.140,0.451
40.145,0.128
40.150,-0.015
40.155,0.328
40.160,0.228
40.165,-0.071
40.170,0.194
40.175,0.307
40.180,-0.050
40.185,0.037
40.190,0.322
40.195,0.040
40.200,-0.089
40.205,0.254
40.210,0.157
40.215,-0.142
40.220,0.122
40.225,0.243
40.230,-0.110
40.235,-0.024
40.240,0.266
40.245,-0.012
40.250,-0.144
40.255,0.205
40.260,0.109
40.265,-0.193
40.270,0.074
40.275,0.197
40.280,-0.153
40.285,-0.068
40.290,0.221
40.295,-0.055
40.300,-0.186
40.305,0.160
40.310,0.064
40.315,-0.235
40.320,0.039
40.325,0.170
40.330,-0.182
40.335,-0.096
40.340,0.202
40.345,-0.069
40.350,-0.204
40.355,0.141
40.360,0.052
40.365,-0.250
40.370,0.009
40.375,0.132
40.380,-0.226
40.385,-0.149
40.390,0.152
40.395,-0.112
40.400,-0.241
40.405,0.122
40.410,0.050
40.415,-0.239
40.420,0.042
40.425,0.189
40.430,-0.152
40.435,-0.067
40.440,0.236
40.445,-0.025
40.450,-0.161
40.455,0.188
40.460,0.111
40.465,-0.188
40.470,0.077
40.475,0.216
40.480,-0.135
40.485,-0.060
40.490,0.241
40.495,-0.020
40.500,-0.166
40.505,0.167
40.510,0.091
40.515,-0.203
40.520,0.052
40.525,0.189
40.530,-0.153
40.535,-0.087
40.540,0.201
40.545,-0.055
40.550,-0.194
40.555,0.139
40.560,0.071
40.565,-0.216
40.570,0.029
40.575,0.162
40.580,-0.169
40.585,-0.104
40.590,0.183
40.595,-0.058
40.600,-0.195
40.605,0.128
40.610,0.062
40.615,-0.223
40.620,0.024
40.625,0.165
40.630,-0.167
40.635,-0.101
40.640,0.189
40.645,-0.069
40.650,-0.224
40.655,0.096
40.660,0.021
40.665,-0.272
40.670,-0.027
40.675,0.105
40.680,-0.252
40.685,-0.210
40.690,0.088
40.695,-0.144
40.700,-0.280
40.705,0.069
40.710,0.030
40.715,-0.241
40.720,0.028
40.725,0.196
40.730,-0.112
40.735,-0.034
40.740,0.259
40.745,0.028
40.750,-0.106
40.755,0.210
40.760,0.150
40.765,-0.131
40.770,0.099
40.775,0.243
40.780,-0.075
40.785,-0.030
40.790,0.250
40.795,0.021
40.800,-0.125
40.805,0.192
40.810,0.137
40.815,-0.150
40.820,0.076
40.825,0.213
40.830,-0.108
40.835,-0.060
40.840,0.216
40.845,-0.016
40.850,-0.138
40.855,0.185
40.860,0.045
40.865,-0.401
40.870,-0.426
40.875,-0.653
40.880,-1.288
40.885,-1.211
40.890,-0.447
40.895,-0.084
40.900,0.133
40.905,0.632
40.910,0.631
40.915,0.247
40.920,0.358
40.925,0.433
40.930,0.053
40.935,0.074
40.940,0.365
40.945,0.130
40.950,-0.032
40.955,0.287
40.960,0.230
40.965,-0.079
40.970,0.144
40.975,0.291
40.980,-0.047
40.985,-0.009
40.990,0.285
40.995,0.049
41.000,-0.111
41.005,0.212
41.010,0.160
41.015,-0.141
41.020,0.085
41.025,0.234
41.030,-0.097
41.035,-0.058
41.040,0.233
41.045,0.000
41.050,-0.160
41.055,0.165
41.060,0.121
41.065,-0.182
41.070,0.035
41.075,0.189
41.080,-0.141
41.085,-0.105
41.090,0.195
41.095,-0.036
41.100,-0.203
41.105,0.124
41.110,0.085
41.115,-0.219
41.120,0.004
41.125,0.167
41.130,-0.160
41.135,-0.124
41.140,0.177
41.145,-0.052
41.150,-0.223
41.155,0.095
41.160,0.056
41.165,-0.247
41.170,-0.033
41.175,0.171
41.180,-0.013
41.185,-0.075
41.190,-0.046
41.195,-0.065
41.200,-0.055
41.205,-0.052
41.210,-0.051
41.215,-0.047
41.220,-0.045
41.225,-0.042
41.230,-0.039
41.235,-0.037
41.240,-0.035
41.245,-0.032
41.250,-0.030
41.255,-0.028
41.260,-0.026
41.265,-0.024
41.270,-0.021
41.275,-0.019
41.280,-0.018
41.285,-0.016
41.290,-0.014
41.295,-0.012
41.300,-0.011
41.305,-0.009
41.310,-0.007
41.315,-0.006
41.320,-0.005
41.325,-0.004
41.330,-0.002
41.335,-0.001
41.340,0.000
41.345,0.001
41.350,0.002
41.355,0.003
41.360,0.004
41.365,0.005
41.370,0.006
41.375,0.006
41.380,0.007
41.385,0.008
41.390,0.008
41.395,0.009
41.400,0.010
41.405,0.011
41.410,0.011
41.415,0.011
41.420,0.012
41.425,0.012
41.430,0.012
41.435,0.012
41.440,0.013
41.445,0.013
41.450,0.013
41.455,0.013
41.460,0.013
41.465,0.014
41.470,0.014
41.475,0.014
41.480,0.014
41.485,0.014
41.490,0.014
41.495,0.014
41.500,0.014
41.505,0.014
41.510,0.014
41.515,0.014
41.520,0.014
41.525,0.014
41.530,0.014
41.535,0.014
41.540,0.013
41.545,0.013
41.550,0.013
41.555,0.013
41.560,0.013
41.565,0.012
41.570,0.012
41.575,0.012
41.580,0.012
41.585,0.012
41.590,0.012
41.595,0.011
41.600,0.011
41.605,0.011
41.610,0.011
41.615,0.010
41.620,0.010
41.625,0.010
41.630,0.010
41.635,0.010
41.640,0.011
41.645,0.011
41.650,0.011
41.655,0.011
41.660,0.010
41.665,0.010
41.670,0.010
41.675,0.009
41.680,0.009
41.685,0.008
41.690,0.008
41.695,0.008
41.700,0.007
41.705,0.006
41.710,0.006
41.715,0.006
41.720,0.006
41.725,0.006
41.730,0.005
41.735,0.005
41.740,0.004
41.745,0.004
41.750,0.004
41.755,0.003
41.760,0.003
41.765,0.003
41.770,0.002
41.775,0.002
41.780,0.002
41.785,0.002
41.790,0.002
41.795,0.001
41.800,0.001
41.805,0.001
41.810,0.001
41.815,0.000
41.820,0.000
41.825,0.000
41.830,0.000
41.835,-0.001
41.840,-0.001
41.845,-0.001
41.850,-0.001
41.855,-0.001
41.860,-0.001
41.865,-0.001
41.870,-0.001
41.875,-0.001
41.880,-0.002
41.885,-0.002
41.890,-0.002
41.895,-0.002
41.900,-0.002
41.905,-0.002
41.910,-0.002
41.915,-0.003
41.920,-0.003
41.925,-0.003
41.930,-0.003
41.935,-0.003
41.940,-0.003
41.945,-0.003
41.950,-0.003
41.955,-0.003
41.960,-0.003
41.965,-0.003
41.970,-0.003
41.975,-0.003
41.980,-0.003
41.985,-0.004
41.990,-0.004
41.995,-0.003
42.000,-0.003
42.005,-0.003
42.010,-0.003
42.015,-0.003
42.020,-0.003
42.025,-0.003
42.030,-0.004
42.035,-0.004
42.040,-0.004
42.045,-0.003
42.050,-0.003
42.055,-0.003
42.060,-0.003
42.065,-0.003
42.070,-0.003
42.075,-0.004
42.080,-0.004
42.085,-0.004
42.090,-0.004
42.095,-0.004
42.100,-0.003
42.105,-0.003
42.110,-0.003
42.115,-0.003
42.120,-0.003
42.125,-0.003
42.130,-0.003
42.135,-0.003
42.140,-0.003
42.145,-0.003
42.150,-0.003
42.155,-0.003
42.160,-0.003
42.165,-0.003
42.170,-0.002
42.175,-0.002
42.180,-0.002
42.185,-0.003
42.190,-0.003
42.195,-0.002
42.200,-0.002
42.205,-0.002
42.210,-0.002
42.215,-0.002
42.220,-0.002
42.225,-0.002
42.230,-0.002
42.235,-0.002
42.240,-0.002
42.245,-0.002
42.250,-0.002
42.255,-0.002
42.260,-0.002
42.265,-0.002
42.270,-0.002
42.275,-0.002
42.280,-0.002
42.285,-0.002
42.290,-0.002
42.295,-0.002
42.300,-0.002
42.305,-0.001
42.310,-0.001
42.315,-0.001
42.320,-0.001
42.325,-0.001
42.330,-0.001
42.335,-0.001
42.340,-0.001
42.345,-0.001
42.350,-0.001
42.355,-0.001
42.360,-0.001
42.365,-0.001
42.370,-0.001
42.375,-0.001
42.380,-0.001
42.385,-0.001
42.390,-0.001
42.395,-0.001
42.400,-0.001
42.405,-0.001
42.410,-0.001
42.415,-0.001
42.420,-0.001
42.425,-0.001
42.430,0.000
42.435,0.000
42.440,-0.001
42.445,-0.001
42.450,-0.001
42.455,-0.001
42.460,-0.001
42.465,-0.001
42.470,0.000
42.475,0.000
42.480,0.000
42.485,0.000
42.490,0.000
42.495,-0.001
42.500,0.000
42.505,0.000
42.510,-0.001
42.515,0.000
42.520,0.000
42.525,-0.001
42.530,-0.001
42.535,-0.001
42.540,0.000
42.545,0.000
42.550,0.000
42.555,0.000
42.560,0.000
42.565,0.000
42.570,0.000
42.575,0.000
42.580,0.000
42.585,0.000
42.590,0.000
42.595,0.000
42.600,0.000
42.605,0.000
42.610,-0.001
42.615,0.000
42.620,0.000
42.625,0.000
42.630,0.000
42.635,0.000
42.640,0.000
42.645,0.000
42.650,0.000
42.655,0.000
42.660,0.000
42.665,0.000
42.670,0.000
42.675,0.000
42.680,0.000
42.685,0.000
42.690,0.000
42.695,0.000
42.700,0.000
42.705,0.000
42.710,0.000
42.715,-0.001
42.720,0.000
42.725,0.000
42.730,0.000
42.735,0.000
42.740,0.000
42.745,0.000
42.750,0.000
42.755,0.000
42.760,0.000
42.765,0.000
42.770,0.000
42.775,0.000
42.780,0.000
42.785,0.000
42.790,0.000
42.795,0.000
42.800,0.000
42.805,0.000
42.810,0.000
42.815,0.000
42.820,0.000
42.825,0.000
42.830,0.000
42.835,0.000
42.840,0.000
42.845,0.000
42.850,0.000
42.855,0.000
42.860,0.000
42.865,0.000
42.870,0.000
42.875,0.000
42.880,0.000
42.885,0.000
42.890,0.000
42.895,0.000
42.900,0.000
42.905,0.000
42.910,0.000
42.915,0.000
42.920,0.000
42.925,0.000
42.930,0.000
42.935,0.000
42.940,0.000
42.945,0.000
42.950,0.000
42.955,0.000
42.960,0.000
42.965,0.000
42.970,0.000
42.975,0.000
42.980,0.000
42.985,0.000
42.990,0.000
42.995,0.000
43.000,0.000
43.005,0.000
43.010,0.000
43.015,0.000
43.020,0.000
43.025,0.000
43.030,0.000
43.035,0.000
43.040,0.000
43.045,0.000
43.050,0.000
43.055,0.000
43.060,0.000
43.065,0.000
43.070,0.000
43.075,0.000
43.080,0.000
43.085,0.000
43.090,0.000
43.095,0.000
43.100,0.000
43.105,0.000
43.110,0.000
43.115,0.000
43.120,0.000
43.125,0.000
43.130,0.000
43.135,0.000
43.140,0.000
43.145,0.000
43.150,0.000
43.155,0.000
43.160,0.000
43.165,0.000
43.170,0.000
43.175,0.000
43.180,0.000
43.185,0.000
43.190,0.000
43.195,0.000
43.200,0.000
43.205,0.000
43.210,0.000
43.215,0.000
43.220,0.000
43.225,0.000
43.230,0.000
43.235,0.000
43.240,0.000
43.245,0.000
43.250,0.000
43.255,0.000
43.260,-0.001
43.265,-0.001
43.270,0.000
43.275,0.000
43.280,0.000
43.285,0.000
43.290,0.000
43.295,0.000
43.300,0.000
43.305,0.000
43.310,0.000
43.315,0.000
43.320,0.000
43.325,0.000
43.330,0.000
43.335,0.000
43.340,0.000
43.345,0.000
43.350,0.000
43.355,0.000
43.360,0.000
43.365,0.000
43.370,0.000
43.375,0.000
43.380,0.000
43.385,0.000
43.390,0.000
43.395,0.000
43.400,0.000
43.405,0.000
43.410,0.000
43.415,0.000
43.420,0.000
43.425,-0.001
43.430,0.000
43.435,0.000
43.440,0.000
43.445,0.000
43.450,0.000
43.455,0.000
43.460,0.000
43.465,0.000
43.470,0.000
43.475,0.000
43.480,0.000
43.485,0.000
43.490,0.000
43.495,0.000
43.500,0.000
43.505,0.000
43.510,0.000
43.515,0.000
43.520,0.000
43.525,0.000
43.530,0.000
43.535,0.000
43.540,0.000
43.545,0.000
43.550,0.000
43.555,0.000
43.560,0.000
43.565,0.000
43.570,0.000
43.575,0.000
43.580,0.000
43.585,0.000
43.590,0.000
43.595,0.000
43.600,0.000
43.605,0.000
43.610,0.000
43.615,0.000
43.620,0.000
43.625,0.000
43.630,0.000
43.635,0.000
43.640,0.000
43.645,0.000
43.650,0.000
43.655,0.000
43.660,0.000
43.665,0.000
43.670,0.000
43.675,-0.001
43.680,0.000
43.685,0.000
43.690,0.000
43.695,0.000
43.700,0.000
43.705,0.000
43.710,0.000
43.715,0.000
43.720,0.000
43.725,0.000
43.730,0.000
43.735,0.000
43.740,0.000
43.745,0.000
43.750,0.000
43.755,0.000
43.760,0.000
43.765,0.000
43.770,0.000
43.775,0.000
43.780,0.000
43.785,0.000
43.790,0.000
43.795,0.000
43.800,0.000
43.805,0.000
43.810,0.000
43.815,0.000
43.820,0.000
43.825,0.000
43.830,0.000
43.835,0.000
43.840,0.000
43.845,0.000
43.850,0.000
43.855,0.000
43.860,0.000
43.865,0.000
43.870,0.000
43.875,0.000
43.880,0.000
43.885,0.000
43.890,0.000
43.895,0.000
43.900,0.000
43.905,0.000
43.910,0.000
43.915,0.000
43.920,0.000
43.925,0.000
43.930,0.000
43.935,0.000
43.940,0.000
43.945,0.001
43.950,0.000
43.955,0.000
43.960,0.000
43.965,0.000
43.970,0.000
43.975,0.000
43.980,0.000
43.985,0.000
43.990,0.000
43.995,0.000
44.000,0.000
44.005,0.000
44.010,0.000
44.015,0.000
44.020,0.000
44.025,0.000
44.030,0.000
44.035,0.000
44.040,0.000
44.045,0.000
44.050,0.000
44.055,0.000
44.060,0.000
44.065,0.000
44.070,0.000
44.075,0.000
44.080,0.000
44.085,0.000
44.090,0.000
44.095,0.000
44.100,0.000
44.105,0.000
44.110,0.000
44.115,0.000
44.120,0.000
44.125,0.000
44.130,-0.001
44.135,0.000
44.140,0.000
44.145,0.000
44.150,0.000
44.155,0.000
44.160,0.000
44.165,0.000
44.170,0.000
44.175,0.000
44.180,0.000
44.185,0.000
44.190,0.000
44.195,0.000
44.200,0.000
44.205,0.000
44.210,0.000
44.215,0.000
44.220,0.000
44.225,0.000
44.230,0.000
44.235,0.000
44.240,-0.001
44.245,0.000
44.250,0.000
44.255,0.000
44.260,0.000
44.265,0.000
44.270,0.000
44.275,0.000
44.280,0.000
44.285,0.000
44.290,0.000
44.295,0.000
44.300,0.000
44.305,0.000
44.310,0.000
44.315,0.000
44.320,0.000
44.325,0.000
44.330,0.000
44.335,0.000
44.340,0.000
44.345,0.000
44.350,0.000
44.355,0.000
44.360,0.000
44.365,0.000
44.370,0.000
44.375,0.000
44.380,0.000
44.385,0.000
44.390,0.000
44.395,0.000
44.400,0.000
44.405,0.000
44.410,0.000
44.415,0.000
44.420,0.000
44.425,0.000
44.430,0.000
44.435,0.000
44.440,0.000
44.445,0.000
44.450,0.000
44.455,0.000
44.460,0.000
44.465,0.000
44.470,0.000
44.475,0.000
44.480,0.000
44.485,0.000
44.490,0.000
44.495,0.000
44.500,0.000
44.505,0.000
44.510,0.000
44.515,0.000
44.520,0.000
44.525,0.000
44.530,0.000
44.535,0.000
44.540,0.000
44.545,0.000
44.550,0.000
44.555,0.000
44.560,0.000
44.565,0.000
44.570,0.000
44.575,0.000
44.580,0.000
44.585,0.000
44.590,0.000
44.595,0.000
44.600,0.000
44.605,0.000
44.610,0.000
44.615,0.000
44.620,0.000
44.625,0.000
44.630,0.000
44.635,0.000
44.640,0.000
44.645,0.000
44.650,0.000
44.655,0.000
44.660,0.000
44.665,0.000
44.670,0.000
44.675,0.000
44.680,0.000
44.685,0.000
44.690,0.000
44.695,0.000
44.700,0.000
44.705,0.000
44.710,0.000
44.715,0.000
44.720,0.000
44.725,0.000
44.730,0.000
44.735,0.000
44.740,0.000
44.745,0.000
44.750,0.000
44.755,0.000
44.760,0.000
44.765,0.000
44.770,0.000
44.775,0.000
44.780,0.000
44.785,0.000
44.790,0.000
44.795,0.000
44.800,0.000
44.805,0.000
44.810,0.000
44.815,0.000
44.820,0.000
44.825,0.000
44.830,0.000
44.835,0.000
44.840,0.000
44.845,0.000
44.850,0.000
44.855,0.000
44.860,0.000
44.865,0.000
44.870,0.000
44.875,0.000
44.880,0.000
44.885,0.000
44.890,0.000
44.895,0.000
44.900,0.000
44.905,0.000
44.910,0.000
44.915,0.000
44.920,0.000
44.925,0.000
44.930,0.000
44.935,0.000
44.940,0.000
44.945,0.000
44.950,0.000
44.955,0.000
44.960,0.000
44.965,0.000
44.970,0.000
44.975,0.000
44.980,0.000
44.985,0.000
44.990,0.000
44.995,0.000
45.000,0.000
45.005,0.000
45.010,0.000
45.015,0.000
45.020,0.000
45.025,0.000
45.030,0.000
45.035,0.000
45.040,0.000
45.045,0.000
45.050,0.000
45.055,0.000
45.060,0.000
45.065,0.000
45.070,0.000
45.075,0.000
45.080,0.000
45.085,0.000
45.090,0.000
45.095,0.000
45.100,0.000
45.105,0.000
45.110,0.000
45.115,0.000
45.120,0.000
45.125,0.000
45.130,0.000
45.135,0.000
45.140,0.000
45.145,0.000
45.150,0.000
45.155,0.000
45.160,0.000
45.165,0.000
45.170,0.000
45.175,0.000
45.180,0.000
45.185,0.000
45.190,0.000
45.195,0.000
45.200,0.000
45.205,0.000
45.210,0.000
45.215,0.000
45.220,0.000
45.225,0.000
45.230,0.000
45.235,0.000
45.240,0.000
45.245,0.000
45.250,0.000
45.255,0.000
45.260,0.000
45.265,0.000
45.270,0.000
45.275,0.000
45.280,0.000
45.285,0.000
45.290,0.000
45.295,0.000
45.300,0.000
45.305,0.000
45.310,0.000
45.315,0.000
45.320,0.000
45.325,0.000
45.330,0.000
