'Elapsed time','ECG'
'seconds','mV'
0.000,-0.742
0.005,-0.245
0.010,0.369
0.015,0.322
0.020,-0.374
0.025,-0.042
0.030,0.576
0.035,-0.219
0.040,-0.359
0.045,0.510
0.050,0.079
0.055,-0.541
0.060,0.249
0.065,0.354
0.070,-0.519
0.075,-0.099
0.080,0.500
0.085,-0.306
0.090,-0.418
0.095,0.453
0.100,0.028
0.105,-0.576
0.110,0.225
0.115,0.336
0.120,-0.532
0.125,-0.101
0.130,0.506
0.135,-0.292
0.140,-0.397
0.145,0.472
0.150,0.044
0.155,-0.559
0.160,0.247
0.165,0.356
0.170,-0.510
0.175,-0.074
0.180,0.529
0.185,-0.272
0.190,-0.371
0.195,0.499
0.200,0.066
0.205,-0.529
0.210,0.280
0.215,0.386
0.220,-0.477
0.225,-0.037
0.230,0.565
0.235,-0.235
0.240,-0.331
0.245,0.536
0.250,0.098
0.255,-0.496
0.260,0.316
0.265,0.423
0.270,-0.436
0.275,0.002
0.280,0.594
0.285,-0.212
0.290,-0.314
0.295,0.531
0.300,0.067
0.305,-0.542
0.310,0.256
0.315,0.346
0.320,-0.517
0.325,-0.070
0.330,0.522
0.335,-0.287
0.340,-0.375
0.345,0.493
0.350,0.049
0.355,-0.539
0.360,0.271
0.365,0.359
0.370,-0.520
0.375,-0.120
0.380,0.429
0.385,-0.312
0.390,-0.193
0.395,0.941
0.400,0.768
0.405,0.378
0.410,1.237
0.415,1.141
0.420,-0.175
0.425,-0.108
0.430,0.403
0.435,-0.427
0.440,-0.563
0.445,0.286
0.450,-0.168
0.455,-0.753
0.460,0.064
0.465,0.152
0.470,-0.701
0.475,-0.237
0.480,0.351
0.485,-0.454
0.490,-0.519
0.495,0.351
0.500,-0.097
0.505,-0.665
0.510,0.160
0.515,0.241
0.520,-0.612
0.525,-0.143
0.530,0.443
0.535,-0.365
0.540,-0.430
0.545,0.437
0.550,-0.018
0.555,-0.589
0.560,0.236
0.565,0.315
0.570,-0.541
0.575,-0.073
0.580,0.507
0.585,-0.306
0.590,-0.368
0.595,0.497
0.600,0.036
0.605,-0.532
0.610,0.288
0.615,0.355
0.620,-0.499
0.625,-0.026
0.630,0.546
0.635,-0.273
0.640,-0.331
0.645,0.532
0.650,0.064
0.655,-0.502
0.660,0.324
0.665,0.385
0.670,-0.473
0.675,0.001
0.680,0.565
0.685,-0.264
0.690,-0.329
0.695,0.520
0.700,0.037
0.705,-0.534
0.710,0.281
0.715,0.326
0.720,-0.536
0.725,-0.063
0.730,0.494
0.735,-0.334
0.740,-0.386
0.745,0.470
0.750,-0.010
0.755,-0.569
0.760,0.257
0.765,0.307
0.770,-0.548
0.775,-0.067
0.780,0.491
0.785,-0.334
0.790,-0.380
0.795,0.478
0.800,-0.003
0.805,-0.558
0.810,0.269
0.815,0.317
0.820,-0.533
0.825,-0.049
0.830,0.508
0.835,-0.314
0.840,-0.354
0.845,0.501
0.850,0.015
0.855,-0.537
0.860,0.297
0.865,0.345
0.870,-0.501
0.875,-0.007
0.880,0.547
0.885,-0.282
0.890,-0.318
0.895,0.538
0.900,0.051
0.905,-0.499
0.910,0.332
0.915,0.371
0.920,-0.472
0.925,0.030
0.930,0.580
0.935,-0.251
0.940,-0.284
0.945,0.555
0.950,0.037
0.955,-0.532
0.960,0.286
0.965,0.309
0.970,-0.543
0.975,-0.042
0.980,0.507
0.985,-0.323
0.990,-0.348
0.995,0.507
1.000,0.012
1.005,-0.527
1.010,0.310
1.015,0.335
1.020,-0.521
1.025,-0.047
1.030,0.438
1.035,-0.406
1.040,-0.302
1.045,0.788
1.050,0.575
1.055,0.311
1.060,1.307
1.065,1.326
1.070,0.206
1.075,0.224
1.080,0.462
1.085,-0.419
1.090,-0.489
1.095,0.302
1.100,-0.215
1.105,-0.757
1.110,0.079
1.115,0.101
1.120,-0.740
1.125,-0.225
1.130,0.318
1.135,-0.509
1.140,-0.514
1.145,0.342
1.150,-0.157
1.155,-0.680
1.160,0.169
1.165,0.193
1.170,-0.643
1.175,-0.123
1.180,0.413
1.185,-0.416
1.190,-0.416
1.195,0.437
1.200,-0.067
1.205,-0.587
1.210,0.261
1.215,0.276
1.220,-0.563
1.225,-0.041
1.230,0.493
1.235,-0.343
1.240,-0.345
1.245,0.505
1.250,-0.004
1.255,-0.522
1.260,0.324
1.265,0.332
1.270,-0.509
1.275,0.008
1.280,0.533
1.285,-0.305
1.290,-0.306
1.295,0.540
1.300,0.025
1.305,-0.497
1.310,0.346
1.315,0.351
1.320,-0.489
1.325,0.032
1.330,0.549
1.335,-0.297
1.340,-0.299
1.345,0.535
1.350,0.002
1.355,-0.522
1.360,0.316
1.365,0.304
1.370,-0.544
1.375,-0.026
1.380,0.485
1.385,-0.363
1.390,-0.362
1.395,0.477
1.400,-0.048
1.405,-0.563
1.410,0.282
1.415,0.274
1.420,-0.566
1.425,-0.035
1.430,0.479
1.435,-0.367
1.440,-0.355
1.445,0.484
1.450,-0.047
1.455,-0.556
1.460,0.293
1.465,0.285
1.470,-0.550
1.475,-0.017
1.480,0.495
1.485,-0.348
1.490,-0.329
1.495,0.510
1.500,-0.020
1.505,-0.525
1.510,0.322
1.515,0.310
1.520,-0.517
1.525,0.026
1.530,0.538
1.535,-0.306
1.540,-0.285
1.545,0.552
1.550,0.019
1.555,-0.479
1.560,0.371
1.565,0.347
1.570,-0.486
1.575,0.066
1.580,0.579
1.585,-0.271
1.590,-0.247
1.595,0.589
1.600,0.033
1.605,-0.493
1.610,0.333
1.615,0.286
1.620,-0.556
1.625,-0.007
1.630,0.497
1.635,-0.352
1.640,-0.325
1.645,0.511
1.650,-0.029
1.655,-0.525
1.660,0.327
1.665,0.300
1.670,-0.534
1.675,0.005
1.680,0.473
1.685,-0.436
1.690,-0.412
1.695,0.561
1.700,0.270
1.705,0.073
1.710,1.196
1.715,1.317
1.720,0.458
1.725,0.678
1.730,0.679
1.735,-0.431
1.740,-0.433
1.745,0.345
1.750,-0.253
1.755,-0.749
1.760,0.103
1.765,0.068
1.770,-0.756
1.775,-0.200
1.780,0.297
1.785,-0.544
1.790,-0.495
1.795,0.342
1.800,-0.198
1.805,-0.674
1.810,0.188
1.815,0.160
1.820,-0.656
1.825,-0.096
1.830,0.400
1.835,-0.446
1.840,-0.396
1.845,0.443
1.850,-0.100
1.855,-0.574
1.860,0.289
1.865,0.252
1.870,-0.565
1.875,-0.002
1.880,0.485
1.885,-0.365
1.890,-0.315
1.895,0.513
1.900,-0.041
1.905,-0.517
1.910,0.345
1.915,0.303
1.920,-0.521
1.925,0.042
1.930,0.532
1.935,-0.320
1.940,-0.270
1.945,0.560
1.950,0.005
1.955,-0.473
1.960,0.381
1.965,0.330
1.970,-0.491
1.975,0.076
1.980,0.555
1.985,-0.308
1.990,-0.261
1.995,0.556
2.000,-0.014
2.005,-0.497
2.010,0.352
2.015,0.285
2.020,-0.549
2.025,0.007
2.030,0.472
2.035,-0.389
2.040,-0.329
2.045,0.490
2.050,-0.079
2.055,-0.549
2.060,0.307
2.065,0.244
2.070,-0.578
2.075,-0.010
2.080,0.458
2.085,-0.399
2.090,-0.331
2.095,0.493
2.100,-0.072
2.105,-0.539
2.110,0.320
2.115,0.262
2.120,-0.556
2.125,0.014
2.130,0.483
2.135,-0.374
2.140,-0.305
2.145,0.522
2.150,-0.045
2.155,-0.510
2.160,0.353
2.165,0.296
2.170,-0.519
2.175,0.057
2.180,0.530
2.185,-0.327
2.190,-0.259
2.195,0.561
2.200,-0.010
2.205,-0.472
2.210,0.387
2.215,0.322
2.220,-0.485
2.225,0.096
2.230,0.553
2.235,-0.307
2.240,-0.234
2.245,0.569
2.250,-0.034
2.255,-0.516
2.260,0.332
2.265,0.251
2.270,-0.566
2.275,0.018
2.280,0.479
2.285,-0.381
2.290,-0.301
2.295,0.519
2.300,-0.056
2.305,-0.510
2.310,0.355
2.315,0.279
2.320,-0.541
2.325,0.015
2.330,0.418
2.335,-0.457
2.340,-0.254
2.345,0.798
2.350,0.499
2.355,0.316
2.360,1.337
2.365,1.247
2.370,0.131
2.375,0.207
2.380,0.379
2.385,-0.506
2.390,-0.453
2.395,0.320
2.400,-0.266
2.405,-0.706
2.410,0.159
2.415,0.070
2.420,-0.737
2.425,-0.141
2.430,0.316
2.435,-0.538
2.440,-0.443
2.445,0.377
2.450,-0.198
2.455,-0.636
2.460,0.234
2.465,0.158
2.470,-0.643
2.475,-0.044
2.480,0.414
2.485,-0.445
2.490,-0.354
2.495,0.461
2.500,-0.121
2.505,-0.557
2.510,0.316
2.515,0.231
2.520,-0.571
2.525,0.027
2.530,0.475
2.535,-0.383
2.540,-0.288
2.545,0.523
2.550,-0.064
2.555,-0.501
2.560,0.368
2.565,0.274
2.570,-0.532
2.575,0.066
2.580,0.511
2.585,-0.352
2.590,-0.253
2.595,0.557
2.600,-0.035
2.605,-0.471
2.610,0.399
2.615,0.300
2.620,-0.506
2.625,0.093
2.630,0.531
2.635,-0.341
2.640,-0.251
2.645,0.544
2.650,-0.063
2.655,-0.507
2.660,0.350
2.665,0.240
2.670,-0.566
2.675,0.030
2.680,0.457
2.685,-0.415
2.690,-0.313
2.695,0.493
2.700,-0.108
2.705,-0.547
2.710,0.321
2.715,0.224
2.720,-0.577
2.725,0.023
2.730,0.451
2.735,-0.415
2.740,-0.304
2.745,0.501
2.750,-0.102
2.755,-0.528
2.760,0.346
2.765,0.243
2.770,-0.556
2.775,0.051
2.780,0.478
2.785,-0.392
2.790,-0.277
2.795,0.526
2.800,-0.079
2.805,-0.503
2.810,0.373
2.815,0.271
2.820,-0.524
2.825,0.088
2.830,0.517
2.835,-0.349
2.840,-0.233
2.845,0.566
2.850,-0.040
2.855,-0.461
2.860,0.410
2.865,0.307
2.870,-0.480
2.875,0.128
2.880,0.549
2.885,-0.319
2.890,-0.210
2.895,0.569
2.900,-0.065
2.905,-0.506
2.910,0.352
2.915,0.235
2.920,-0.556
2.925,0.059
2.930,0.478
2.935,-0.390
2.940,-0.268
2.945,0.530
2.950,-0.080
2.955,-0.496
2.960,0.376
2.965,0.248
2.970,-0.570
2.975,-0.004
2.980,0.389
2.985,-0.379
2.990,-0.031
2.995,1.040
3.000,0.694
3.005,0.447
3.010,1.321
3.015,0.940
3.020,-0.328
3.025,-0.020
3.030,0.353
3.035,-0.548
3.040,-0.465
3.045,0.320
3.050,-0.301
3.055,-0.710
3.060,0.168
3.065,0.043
3.070,-0.741
3.075,-0.109
3.080,0.309
3.085,-0.554
3.090,-0.413
3.095,0.387
3.100,-0.225
3.105,-0.621
3.110,0.262
3.115,0.137
3.120,-0.645
3.125,-0.011
3.130,0.401
3.135,-0.467
3.140,-0.325
3.145,0.470
3.150,-0.148
3.155,-0.546
3.160,0.336
3.165,0.205
3.170,-0.580
3.175,0.052
3.180,0.462
3.185,-0.407
3.190,-0.263
3.195,0.528
3.200,-0.097
3.205,-0.494
3.210,0.386
3.215,0.249
3.220,-0.533
3.225,0.102
3.230,0.502
3.235,-0.371
3.240,-0.224
3.245,0.566
3.250,-0.063
3.255,-0.458
3.260,0.422
3.265,0.279
3.270,-0.506
3.275,0.128
3.280,0.519
3.285,-0.366
3.290,-0.226
3.295,0.549
3.300,-0.093
3.305,-0.491
3.310,0.377
3.315,0.217
3.320,-0.572
3.325,0.059
3.330,0.447
3.335,-0.430
3.340,-0.279
3.345,0.501
3.350,-0.134
3.355,-0.521
3.360,0.356
3.365,0.201
3.370,-0.580
3.375,0.059
3.380,0.445
3.385,-0.433
3.390,-0.275
3.395,0.510
3.400,-0.127
3.405,-0.510
3.410,0.368
3.415,0.212
3.420,-0.563
3.425,0.081
3.430,0.466
3.435,-0.410
3.440,-0.246
3.445,0.534
3.450,-0.105
3.455,-0.483
3.460,0.399
3.465,0.244
3.470,-0.527
3.475,0.122
3.480,0.505
3.485,-0.372
3.490,-0.205
3.495,0.573
3.500,-0.071
3.505,-0.447
3.510,0.439
3.515,0.284
3.520,-0.487
3.525,0.160
3.530,0.537
3.535,-0.349
3.540,-0.200
3.545,0.548
3.550,-0.120
3.555,-0.504
3.560,0.373
3.565,0.206
3.570,-0.561
3.575,0.093
3.580,0.465
3.585,-0.413
3.590,-0.236
3.595,0.540
3.600,-0.110
3.605,-0.477
3.610,0.401
3.615,0.213
3.620,-0.603
3.625,0.002
3.630,0.421
3.635,-0.263
3.640,0.189
3.645,1.257
3.650,0.835
3.655,0.548
3.660,1.296
3.665,0.700
3.670,-0.501
3.675,0.019
3.680,0.347
3.685,-0.603
3.690,-0.452
3.695,0.308
3.700,-0.351
3.705,-0.706
3.710,0.181
3.715,0.004
3.720,-0.752
3.725,-0.081
3.730,0.287
3.735,-0.585
3.740,-0.386
3.745,0.390
3.750,-0.262
3.755,-0.608
3.760,0.285
3.765,0.105
3.770,-0.650
3.775,0.023
3.780,0.384
3.785,-0.491
3.790,-0.292
3.795,0.480
3.800,-0.177
3.805,-0.520
3.810,0.368
3.815,0.179
3.820,-0.577
3.825,0.097
3.830,0.454
3.835,-0.421
3.840,-0.221
3.845,0.543
3.850,-0.120
3.855,-0.465
3.860,0.420
3.865,0.225
3.870,-0.533
3.875,0.137
3.880,0.488
3.885,-0.389
3.890,-0.188
3.895,0.572
3.900,-0.095
3.905,-0.439
3.910,0.441
3.915,0.241
3.920,-0.512
3.925,0.158
3.930,0.494
3.935,-0.395
3.940,-0.197
3.945,0.554
3.950,-0.126
3.955,-0.477
3.960,0.394
3.965,0.179
3.970,-0.580
3.975,0.093
3.980,0.429
3.985,-0.456
3.990,-0.248
3.995,0.506
4.000,-0.171
4.005,-0.508
4.010,0.375
4.015,0.162
4.020,-0.593
4.025,0.086
4.030,0.423
4.035,-0.460
4.040,-0.246
4.045,0.508
4.050,-0.168
4.055,-0.499
4.060,0.388
4.065,0.178
4.070,-0.569
4.075,0.111
4.080,0.442
4.085,-0.438
4.090,-0.216
4.095,0.537
4.100,-0.139
4.105,-0.463
4.110,0.426
4.115,0.213
4.120,-0.529
4.125,0.157
4.130,0.485
4.135,-0.394
4.140,-0.168
4.145,0.582
4.150,-0.101
4.155,-0.421
4.160,0.475
4.165,0.262
4.170,-0.485
4.175,0.198
4.180,0.525
4.185,-0.363
4.190,-0.160
4.195,0.557
4.200,-0.151
4.205,-0.483
4.210,0.399
4.215,0.174
4.220,-0.566
4.225,0.127
4.230,0.445
4.235,-0.440
4.240,-0.207
4.245,0.535
4.250,-0.156
4.255,-0.467
4.260,0.419
4.265,0.173
4.270,-0.611
4.275,0.027
4.280,0.380
4.285,-0.315
4.290,0.200
4.295,1.244
4.300,0.790
4.305,0.565
4.310,1.333
4.315,0.684
4.320,-0.509
4.325,0.036
4.330,0.321
4.335,-0.631
4.340,-0.429
4.345,0.303
4.350,-0.390
4.355,-0.697
4.360,0.190
4.365,-0.042
4.370,-0.767
4.375,-0.061
4.380,0.257
4.385,-0.615
4.390,-0.362
4.395,0.386
4.400,-0.300
4.405,-0.594
4.410,0.301
4.415,0.065
4.420,-0.657
4.425,0.053
4.430,0.362
4.435,-0.515
4.440,-0.255
4.445,0.488
4.450,-0.204
4.455,-0.498
4.460,0.392
4.465,0.149
4.470,-0.576
4.475,0.131
4.480,0.433
4.485,-0.443
4.490,-0.185
4.495,0.546
4.500,-0.152
4.505,-0.442
4.510,0.443
4.515,0.191
4.520,-0.533
4.525,0.179
4.530,0.476
4.535,-0.405
4.540,-0.149
4.545,0.577
4.550,-0.124
4.555,-0.411
4.560,0.474
4.565,0.221
4.570,-0.502
4.575,0.203
4.580,0.486
4.585,-0.411
4.590,-0.162
4.595,0.552
4.600,-0.165
4.605,-0.459
4.610,0.418
4.615,0.151
4.620,-0.579
4.625,0.126
4.630,0.407
4.635,-0.481
4.640,-0.218
4.645,0.503
4.650,-0.207
4.655,-0.484
4.660,0.404
4.665,0.132
4.670,-0.591
4.675,0.126
4.680,0.409
4.685,-0.475
4.690,-0.205
4.695,0.518
4.700,-0.194
4.705,-0.468
4.710,0.421
4.715,0.151
4.720,-0.566
4.725,0.153
4.730,0.432
4.735,-0.450
4.740,-0.176
4.745,0.545
4.750,-0.163
4.755,-0.430
4.760,0.459
4.765,0.188
4.770,-0.529
4.775,0.188
4.780,0.461
4.785,-0.421
4.790,-0.138
4.795,0.581
4.800,-0.135
4.805,-0.407
4.810,0.483
4.815,0.218
4.820,-0.495
4.825,0.222
4.830,0.490
4.835,-0.410
4.840,-0.156
4.845,0.532
4.850,-0.205
4.855,-0.478
4.860,0.412
4.865,0.139
4.870,-0.568
4.875,0.152
4.880,0.420
4.885,-0.458
4.890,-0.173
4.895,0.538
4.900,-0.184
4.905,-0.446
4.910,0.437
4.915,0.125
4.920,-0.640
4.925,0.087
4.930,0.493
4.935,-0.140
4.940,0.434
4.945,1.400
4.950,0.823
4.955,0.517
4.960,1.043
4.965,0.257
4.970,-0.679
4.975,0.035
4.980,0.252
4.985,-0.672
4.990,-0.378
4.995,0.331
5.000,-0.399
5.005,-0.650
5.010,0.242
5.015,-0.042
5.020,-0.733
5.025,0.005
5.030,0.262
5.035,-0.613
5.040,-0.306
5.045,0.407
5.050,-0.309
5.055,-0.552
5.060,0.336
5.065,0.050
5.070,-0.635
5.075,0.104
5.080,0.357
5.085,-0.519
5.090,-0.212
5.095,0.495
5.100,-0.230
5.105,-0.469
5.110,0.420
5.115,0.123
5.120,-0.570
5.125,0.173
5.130,0.421
5.135,-0.462
5.140,-0.154
5.145,0.544
5.150,-0.189
5.155,-0.424
5.160,0.464
5.165,0.160
5.170,-0.529
5.175,0.211
5.180,0.452
5.185,-0.430
5.190,-0.120
5.195,0.575
5.200,-0.162
5.205,-0.396
5.210,0.491
5.215,0.179
5.220,-0.513
5.225,0.229
5.230,0.457
5.235,-0.442
5.240,-0.139
5.245,0.543
5.250,-0.209
5.255,-0.452
5.260,0.426
5.265,0.106
5.270,-0.589
5.275,0.148
5.280,0.379
5.285,-0.502
5.290,-0.184
5.295,0.505
5.300,-0.238
5.305,-0.468
5.310,0.415
5.315,0.097
5.320,-0.588
5.325,0.157
5.330,0.387
5.335,-0.490
5.340,-0.167
5.345,0.519
5.350,-0.224
5.355,-0.447
5.360,0.441
5.365,0.122
5.370,-0.563
5.375,0.184
5.380,0.410
5.385,-0.469
5.390,-0.145
5.395,0.541
5.400,-0.197
5.405,-0.411
5.410,0.477
5.415,0.156
5.420,-0.521
5.425,0.226
5.430,0.444
5.435,-0.436
5.440,-0.106
5.445,0.573
5.450,-0.171
5.455,-0.376
5.460,0.514
5.465,0.184
5.470,-0.495
5.475,0.253
5.480,0.453
5.485,-0.450
5.490,-0.139
5.495,0.520
5.500,-0.237
5.505,-0.444
5.510,0.443
5.515,0.111
5.520,-0.563
5.525,0.190
5.530,0.401
5.535,-0.478
5.540,-0.139
5.545,0.537
5.550,-0.216
5.555,-0.427
5.560,0.427
5.565,0.035
5.570,-0.637
5.575,0.259
5.580,0.708
5.585,0.105
5.590,0.692
5.595,1.497
5.600,0.703
5.605,0.167
5.610,0.573
5.615,0.008
5.620,-0.681
5.625,0.033
5.630,0.194
5.635,-0.687
5.640,-0.339
5.645,0.330
5.650,-0.423
5.655,-0.614
5.660,0.275
5.665,-0.064
5.670,-0.721
5.675,0.050
5.680,0.258
5.685,-0.612
5.690,-0.254
5.695,0.418
5.700,-0.334
5.705,-0.519
5.710,0.373
5.715,0.029
5.720,-0.626
5.725,0.145
5.730,0.343
5.735,-0.532
5.740,-0.173
5.745,0.492
5.750,-0.264
5.755,-0.443
5.760,0.444
5.765,0.091
5.770,-0.566
5.775,0.203
5.780,0.395
5.785,-0.480
5.790,-0.115
5.795,0.545
5.800,-0.220
5.805,-0.398
5.810,0.483
5.815,0.123
5.820,-0.529
5.825,0.243
5.830,0.427
5.835,-0.451
5.840,-0.084
5.845,0.573
5.850,-0.193
5.855,-0.369
5.860,0.511
5.865,0.141
5.870,-0.516
5.875,0.249
5.880,0.417
5.885,-0.470
5.890,-0.110
5.895,0.530
5.900,-0.247
5.905,-0.425
5.910,0.445
5.915,0.065
5.920,-0.588
5.925,0.185
5.930,0.356
5.935,-0.524
5.940,-0.150
5.945,0.498
5.950,-0.274
5.955,-0.441
5.960,0.438
5.965,0.064
5.970,-0.582
5.975,0.193
5.980,0.360
5.985,-0.513
5.990,-0.131
5.995,0.515
6.000,-0.258
6.005,-0.418
6.010,0.462
6.015,0.083
6.020,-0.555
6.025,0.227
6.030,0.390
6.035,-0.485
6.040,-0.099
6.045,0.548
6.050,-0.221
6.055,-0.372
6.060,0.509
6.065,0.127
6.070,-0.510
6.075,0.271
6.080,0.430
6.085,-0.444
6.090,-0.059
6.095,0.575
6.100,-0.198
6.105,-0.334
6.110,0.547
6.115,0.152
6.120,-0.480
6.125,0.300
6.130,0.427
6.135,-0.476
6.140,-0.103
6.145,0.516
6.150,-0.272
6.155,-0.416
6.160,0.462
6.165,0.069
6.170,-0.556
6.175,0.232
6.180,0.378
6.185,-0.495
6.190,-0.096
6.195,0.532
6.200,-0.255
6.205,-0.406
6.210,0.424
6.215,-0.029
6.220,-0.614
6.225,0.360
6.230,0.771
6.235,0.198
6.240,0.835
6.245,1.553
6.250,0.660
6.255,0.118
6.260,0.543
6.265,-0.011
6.270,-0.667
6.275,0.054
6.280,0.156
6.285,-0.723
6.290,-0.320
6.295,0.303
6.300,-0.482
6.305,-0.605
6.310,0.277
6.315,-0.123
6.320,-0.732
6.325,0.071
6.330,0.212
6.335,-0.649
6.340,-0.226
6.345,0.400
6.350,-0.386
6.355,-0.501
6.360,0.380
6.365,-0.027
6.370,-0.633
6.375,0.171
6.380,0.304
6.385,-0.558
6.390,-0.133
6.395,0.487
6.400,-0.304
6.405,-0.419
6.410,0.459
6.415,0.046
6.420,-0.560
6.425,0.243
6.430,0.367
6.435,-0.499
6.440,-0.075
6.445,0.539
6.450,-0.253
6.455,-0.366
6.460,0.506
6.465,0.085
6.470,-0.522
6.475,0.280
6.480,0.393
6.485,-0.476
6.490,-0.046
6.495,0.564
6.500,-0.235
6.505,-0.344
6.510,0.526
6.515,0.097
6.520,-0.512
6.525,0.283
6.530,0.383
6.535,-0.491
6.540,-0.066
6.545,0.530
6.550,-0.279
6.555,-0.391
6.560,0.471
6.565,0.034
6.570,-0.571
6.575,0.232
6.580,0.334
6.585,-0.535
6.590,-0.100
6.595,0.501
6.600,-0.305
6.605,-0.406
6.610,0.461
6.615,0.025
6.620,-0.571
6.625,0.238
6.630,0.338
6.635,-0.529
6.640,-0.091
6.645,0.507
6.650,-0.297
6.655,-0.393
6.660,0.475
6.665,0.041
6.670,-0.547
6.675,0.263
6.680,0.355
6.685,-0.513
6.690,-0.068
6.695,0.529
6.700,-0.274
6.705,-0.362
6.710,0.509
6.715,0.073
6.720,-0.511
6.725,0.301
6.730,0.389
6.735,-0.475
6.740,-0.027
6.745,0.564
6.750,-0.246
6.755,-0.327
6.760,0.552
6.765,0.112
6.770,-0.477
6.775,0.337
6.780,0.420
6.785,-0.467
6.790,-0.045
6.795,0.522
6.800,-0.302
6.805,-0.389
6.810,0.480
6.815,0.035
6.820,-0.547
6.825,0.267
6.830,0.347
6.835,-0.514
6.840,-0.054
6.845,0.534
6.850,-0.279
6.855,-0.357
6.860,0.497
6.865,0.003
6.870,-0.635
6.875,0.195
6.880,0.435
6.885,-0.164
6.890,0.589
6.895,1.428
6.900,0.743
6.905,0.599
6.910,1.090
6.915,0.154
6.920,-0.631
6.925,0.153
6.930,0.163
6.935,-0.742
6.940,-0.287
6.945,0.286
6.950,-0.527
6.955,-0.588
6.960,0.277
6.965,-0.178
6.970,-0.738
6.975,0.093
6.980,0.169
6.985,-0.684
6.990,-0.208
6.995,0.375
7.000,-0.432
7.005,-0.487
7.010,0.382
7.015,-0.073
7.020,-0.635
7.025,0.191
7.030,0.264
7.035,-0.586
7.040,-0.108
7.045,0.465
7.050,-0.349
7.055,-0.399
7.060,0.469
7.065,0.006
7.070,-0.557
7.075,0.270
7.080,0.335
7.085,-0.520
7.090,-0.040
7.095,0.532
7.100,-0.288
7.105,-0.341
7.110,0.522
7.115,0.051
7.120,-0.512
7.125,0.316
7.130,0.375
7.135,-0.479
7.140,-0.002
7.145,0.558
7.150,-0.262
7.155,-0.308
7.160,0.553
7.165,0.074
7.170,-0.493
7.175,0.328
7.180,0.376
7.185,-0.489
7.190,-0.022
7.195,0.526
7.200,-0.307
7.205,-0.361
7.210,0.487
7.215,-0.003
7.220,-0.566
7.225,0.256
7.230,0.300
7.235,-0.557
7.240,-0.076
7.245,0.481
7.250,-0.341
7.255,-0.385
7.260,0.463
7.265,-0.020
7.270,-0.573
7.275,0.254
7.280,0.301
7.285,-0.545
7.290,-0.059
7.295,0.489
7.300,-0.332
7.305,-0.365
7.310,0.487
7.315,-0.001
7.320,-0.547
7.325,0.290
7.330,0.330
7.335,-0.523
7.340,-0.025
7.345,0.527
7.350,-0.304
7.355,-0.334
7.360,0.521
7.365,0.031
7.370,-0.509
7.375,0.328
7.380,0.364
7.385,-0.486
7.390,0.010
7.395,0.559
7.400,-0.270
7.405,-0.299
7.410,0.558
7.415,0.076
7.420,-0.464
7.425,0.366
7.430,0.400
7.435,-0.455
7.440,0.019
7.445,0.535
7.450,-0.318
7.455,-0.356
7.460,0.489
7.465,-0.009
7.470,-0.543
7.475,0.299
7.480,0.331
7.485,-0.515
7.490,-0.015
7.495,0.521
7.500,-0.312
7.505,-0.331
7.510,0.513
7.515,0.001
7.520,-0.568
7.525,0.215
7.530,0.267
7.535,-0.399
7.540,0.374
7.545,1.204
7.550,0.614
7.555,0.689
7.560,1.404
7.565,0.467
7.570,-0.524
7.575,0.175
7.580,0.179
7.585,-0.723
7.590,-0.240
7.595,0.295
7.600,-0.539
7.605,-0.549
7.610,0.303
7.615,-0.199
7.620,-0.722
7.625,0.126
7.630,0.151
7.635,-0.680
7.640,-0.160
7.645,0.376
7.650,-0.453
7.655,-0.452
7.660,0.404
7.665,-0.097
7.670,-0.612
7.675,0.235
7.680,0.246
7.685,-0.589
7.690,-0.064
7.695,0.467
7.700,-0.366
7.705,-0.361
7.710,0.490
7.715,-0.021
7.720,-0.539
7.725,0.305
7.730,0.311
7.735,-0.526
7.740,-0.003
7.745,0.515
7.750,-0.326
7.755,-0.317
7.760,0.529
7.765,0.011
7.770,-0.501
7.775,0.343
7.780,0.338
7.785,-0.501
7.790,0.026
7.795,0.542
7.800,-0.302
7.805,-0.297
7.810,0.549
7.815,0.027
7.820,-0.490
7.825,0.355
7.830,0.343
7.835,-0.509
7.840,0.007
7.845,0.513
7.850,-0.337
7.855,-0.337
7.860,0.488
7.865,-0.050
7.870,-0.567
7.875,0.275
7.880,0.265
7.885,-0.570
7.890,-0.037
7.895,0.471
7.900,-0.376
7.905,-0.363
7.910,0.477
7.915,-0.052
7.920,-0.561
7.925,0.287
7.930,0.279
7.935,-0.555
7.940,-0.022
7.945,0.489
7.950,-0.355
7.955,-0.335
7.960,0.502
7.965,-0.033
7.970,-0.535
7.975,0.316
7.980,0.298
7.985,-0.537
7.990,0.004
7.995,0.510
8.000,-0.337
8.005,-0.311
8.010,0.530
8.015,-0.004
8.020,-0.502
8.025,0.350
8.030,0.328
8.035,-0.504
8.040,0.038
8.045,0.541
8.050,-0.305
8.055,-0.280
8.060,0.555
8.065,0.025
8.070,-0.458
8.075,0.393
8.080,0.363
8.085,-0.468
8.090,0.067
8.095,0.538
8.100,-0.338
8.105,-0.325
8.110,0.498
8.115,-0.047
8.120,-0.534
8.125,0.319
8.130,0.284
8.135,-0.543
8.140,0.009
8.145,0.500
8.150,-0.349
8.155,-0.310
8.160,0.518
8.165,-0.031
8.170,-0.533
8.175,0.275
8.180,0.198
8.185,-0.563
8.190,0.190
8.195,0.949
8.200,0.377
8.205,0.616
8.210,1.494
8.215,0.760
8.220,-0.185
8.225,0.283
8.230,0.167
8.235,-0.679
8.240,-0.180
8.245,0.290
8.250,-0.561
8.255,-0.515
8.260,0.314
8.265,-0.235
8.270,-0.710
8.275,0.153
8.280,0.116
8.285,-0.701
8.290,-0.132
8.295,0.360
8.300,-0.485
8.305,-0.427
8.310,0.406
8.315,-0.146
8.320,-0.615
8.325,0.251
8.330,0.209
8.335,-0.607
8.340,-0.041
8.345,0.440
8.350,-0.407
8.355,-0.346
8.360,0.482
8.365,-0.076
8.370,-0.542
8.375,0.320
8.380,0.266
8.385,-0.551
8.390,0.019
8.395,0.494
8.400,-0.358
8.405,-0.295
8.410,0.526
8.415,-0.038
8.420,-0.505
8.425,0.357
8.430,0.298
8.435,-0.521
8.440,0.052
8.445,0.522
8.450,-0.336
8.455,-0.267
8.460,0.555
8.465,-0.017
8.470,-0.479
8.475,0.381
8.480,0.308
8.485,-0.513
8.490,0.059
8.495,0.513
8.500,-0.357
8.505,-0.293
8.510,0.516
8.515,-0.070
8.520,-0.537
8.525,0.320
8.530,0.241
8.535,-0.577
8.540,0.002
8.545,0.459
8.550,-0.403
8.555,-0.326
8.560,0.489
8.565,-0.091
8.570,-0.544
8.575,0.320
8.580,0.241
8.585,-0.572
8.590,0.016
8.595,0.472
8.600,-0.389
8.605,-0.304
8.610,0.511
8.615,-0.069
8.620,-0.516
8.625,0.348
8.630,0.268
8.635,-0.539
8.640,0.046
8.645,0.496
8.650,-0.362
8.655,-0.274
8.660,0.537
8.665,-0.046
8.670,-0.487
8.675,0.383
8.680,0.300
8.685,-0.506
8.690,0.083
8.695,0.528
8.700,-0.333
8.705,-0.242
8.710,0.566
8.715,-0.026
8.720,-0.462
8.725,0.416
8.730,0.330
8.735,-0.476
8.740,0.119
8.745,0.556
8.750,-0.325
8.755,-0.251
8.760,0.530
8.765,-0.082
8.770,-0.522
8.775,0.346
8.780,0.248
8.785,-0.553
8.790,0.051
8.795,0.488
8.800,-0.379
8.805,-0.272
8.810,0.536
8.815,-0.063
8.820,-0.495
8.825,0.364
8.830,0.226
8.835,-0.630
8.840,-0.031
8.845,0.533
8.850,-0.090
8.855,0.307
8.860,1.379
8.865,0.932
8.870,0.487
8.875,1.062
8.880,0.475
8.885,-0.602
8.890,-0.043
8.895,0.324
8.900,-0.602
8.905,-0.499
8.910,0.295
8.915,-0.313
8.920,-0.731
8.925,0.144
8.930,0.038
8.935,-0.750
8.940,-0.131
8.945,0.301
8.950,-0.558
8.955,-0.426
8.960,0.381
8.965,-0.223
8.970,-0.631
8.975,0.251
8.980,0.141
8.985,-0.646
8.990,-0.025
8.995,0.398
9.000,-0.465
9.005,-0.334
9.010,0.466
9.015,-0.142
9.020,-0.546
9.025,0.333
9.030,0.214
9.035,-0.573
9.040,0.053
9.045,0.470
9.050,-0.397
9.055,-0.262
9.060,0.535
9.065,-0.082
9.070,-0.486
9.075,0.390
9.080,0.262
9.085,-0.526
9.090,0.100
9.095,0.509
9.100,-0.362
9.105,-0.228
9.110,0.563
9.115,-0.058
9.120,-0.460
9.125,0.415
9.130,0.281
9.135,-0.506
9.140,0.118
9.145,0.514
9.150,-0.368
9.155,-0.236
9.160,0.546
9.165,-0.087
9.170,-0.494
9.175,0.375
9.180,0.227
9.185,-0.566
9.190,0.059
9.195,0.453
9.200,-0.422
9.205,-0.277
9.210,0.508
9.215,-0.125
9.220,-0.521
9.225,0.356
9.230,0.210
9.235,-0.578
9.240,0.053
9.245,0.449
9.250,-0.424
9.255,-0.274
9.260,0.511
9.265,-0.121
9.270,-0.511
9.275,0.368
9.280,0.221
9.285,-0.558
9.290,0.080
9.295,0.473
9.300,-0.399
9.305,-0.242
9.310,0.539
9.315,-0.099
9.320,-0.484
9.325,0.395
9.330,0.245
9.335,-0.529
9.340,0.116
9.345,0.509
9.350,-0.364
9.355,-0.205
9.360,0.576
9.365,-0.064
9.370,-0.447
9.375,0.429
9.380,0.272
9.385,-0.493
9.390,0.164
9.395,0.546
9.400,-0.334
9.405,-0.167
9.410,0.601
9.415,-0.072
9.420,-0.473
9.425,0.389
9.430,0.210
9.435,-0.564
9.440,0.087
9.445,0.464
9.450,-0.410
9.455,-0.238
9.460,0.536
9.465,-0.110
9.470,-0.483
9.475,0.397
9.480,0.227
9.485,-0.550
9.490,0.079
9.495,0.398
9.500,-0.516
9.505,-0.257
9.510,0.733
9.515,0.370
9.520,0.293
9.525,1.371
9.530,1.244
9.535,0.277
9.540,0.450
9.545,0.433
9.550,-0.517
9.555,-0.377
9.560,0.322
9.565,-0.351
9.570,-0.718
9.575,0.159
9.580,-0.018
9.585,-0.778
9.590,-0.115
9.595,0.253
9.600,-0.615
9.605,-0.420
9.610,0.356
9.615,-0.288
9.620,-0.636
9.625,0.253
9.630,0.077
9.635,-0.679
9.640,-0.006
9.645,0.360
9.650,-0.512
9.655,-0.312
9.660,0.460
9.665,-0.194
9.670,-0.539
9.675,0.348
9.680,0.164
9.685,-0.592
9.690,0.078
9.695,0.438
9.700,-0.435
9.705,-0.239
9.710,0.528
9.715,-0.127
9.720,-0.472
9.725,0.413
9.730,0.222
9.735,-0.534
9.740,0.133
9.745,0.483
9.750,-0.391
9.755,-0.187
9.760,0.574
9.765,-0.089
9.770,-0.429
9.775,0.454
9.780,0.252
9.785,-0.503
9.790,0.168
9.795,0.508
9.800,-0.372
9.805,-0.173
9.810,0.571
9.815,-0.109
9.820,-0.459
9.825,0.412
9.830,0.193
9.835,-0.572
9.840,0.094
9.845,0.428
9.850,-0.458
9.855,-0.251
9.860,0.500
9.865,-0.177
9.870,-0.513
9.875,0.367
9.880,0.156
9.885,-0.592
9.890,0.087
9.895,0.420
9.900,-0.460
9.905,-0.246
9.910,0.506
9.915,-0.168
9.920,-0.496
9.925,0.387
9.930,0.178
9.935,-0.565
9.940,0.116
9.945,0.451
9.950,-0.425
9.955,-0.209
9.960,0.539
9.965,-0.138
9.970,-0.465
9.975,0.420
9.980,0.205
9.985,-0.541
9.990,0.147
9.995,0.481
10.000,-0.402
10.005,-0.176
10.010,0.576
10.015,-0.107
10.020,-0.428
10.025,0.459
10.030,0.235
10.035,-0.510
10.040,0.177
10.045,0.507
10.050,-0.364
10.055,-0.138
10.060,0.604
10.065,-0.078
10.070,-0.407
10.075,0.450
10.080,0.191
10.085,-0.568
10.090,0.119
10.095,0.437
10.100,-0.440
10.105,-0.201
10.110,0.535
10.115,-0.155
10.120,-0.461
10.125,0.422
10.130,0.184
10.135,-0.551
10.140,0.146
10.145,0.452
10.150,-0.458
10.155,-0.274
10.160,0.444
10.165,-0.136
10.170,-0.208
10.175,0.965
10.180,1.007
10.185,0.447
10.190,1.133
10.195,1.135
10.200,-0.262
10.205,-0.314
10.210,0.400
10.215,-0.330
10.220,-0.671
10.225,0.215
10.230,-0.039
10.235,-0.775
10.240,-0.067
10.245,0.241
10.250,-0.633
10.255,-0.371
10.260,0.368
10.265,-0.326
10.270,-0.612
10.275,0.282
10.280,0.040
10.285,-0.676
10.290,0.038
10.295,0.341
10.300,-0.536
10.305,-0.275
10.310,0.456
10.315,-0.239
10.320,-0.517
10.325,0.377
10.330,0.123
10.335,-0.601
10.340,0.114
10.345,0.414
10.350,-0.467
10.355,-0.203
10.360,0.527
10.365,-0.176
10.370,-0.458
10.375,0.428
10.380,0.167
10.385,-0.552
10.390,0.160
10.395,0.445
10.400,-0.431
10.405,-0.157
10.410,0.562
10.415,-0.151
10.420,-0.426
10.425,0.463
10.430,0.194
10.435,-0.526
10.440,0.193
10.445,0.474
10.450,-0.407
10.455,-0.136
10.460,0.573
10.465,-0.151
10.470,-0.430
10.475,0.448
10.480,0.164
10.485,-0.560
10.490,0.146
10.495,0.407
10.500,-0.484
10.505,-0.211
10.510,0.501
10.515,-0.218
10.520,-0.488
10.525,0.397
10.530,0.119
10.535,-0.594
10.540,0.125
10.545,0.391
10.550,-0.491
10.555,-0.203
10.560,0.515
10.565,-0.206
10.570,-0.469
10.575,0.420
10.580,0.142
10.585,-0.563
10.590,0.160
10.595,0.416
10.600,-0.467
10.605,-0.174
10.610,0.536
10.615,-0.184
10.620,-0.439
10.625,0.442
10.630,0.152
10.635,-0.547
10.640,0.179
10.645,0.436
10.650,-0.437
10.655,-0.139
10.660,0.565
10.665,-0.161
10.670,-0.410
10.675,0.473
10.680,0.180
10.685,-0.516
10.690,0.216
10.695,0.466
10.700,-0.411
10.705,-0.101
10.710,0.600
10.715,-0.132
10.720,-0.374
10.725,0.503
10.730,0.182
10.735,-0.538
10.740,0.175
10.745,0.408
10.750,-0.477
10.755,-0.171
10.760,0.528
10.765,-0.204
10.770,-0.443
10.775,0.443
10.780,0.142
10.785,-0.548
10.790,0.188
10.795,0.424
10.800,-0.462
10.805,-0.168
10.810,0.477
10.815,-0.300
10.820,-0.470
10.825,0.611
10.830,0.569
10.835,0.157
10.840,1.095
10.845,1.384
10.850,0.329
10.855,0.184
10.860,0.480
10.865,-0.334
10.870,-0.577
10.875,0.251
10.880,-0.080
10.885,-0.761
10.890,-0.017
10.895,0.210
10.900,-0.667
10.905,-0.339
10.910,0.355
10.915,-0.379
10.920,-0.592
10.925,0.301
10.930,-0.012
10.935,-0.684
10.940,0.071
10.945,0.301
10.950,-0.570
10.955,-0.234
10.960,0.453
10.965,-0.287
10.970,-0.499
10.975,0.391
10.980,0.071
10.985,-0.599
10.990,0.157
10.995,0.376
11.000,-0.502
11.005,-0.164
11.010,0.520
11.015,-0.226
11.020,-0.434
11.025,0.451
11.030,0.122
11.035,-0.549
11.040,0.205
11.045,0.416
11.050,-0.462
11.055,-0.121
11.060,0.553
11.065,-0.197
11.070,-0.400
11.075,0.481
11.080,0.143
11.085,-0.525
11.090,0.232
11.095,0.437
11.100,-0.441
11.105,-0.096
11.110,0.573
11.115,-0.186
11.120,-0.390
11.125,0.485
11.130,0.131
11.135,-0.544
11.140,0.203
11.145,0.388
11.150,-0.500
11.155,-0.158
11.160,0.501
11.165,-0.263
11.170,-0.458
11.175,0.421
11.180,0.069
11.185,-0.594
11.190,0.167
11.195,0.359
11.200,-0.521
11.205,-0.166
11.210,0.496
11.215,-0.265
11.220,-0.452
11.225,0.430
11.230,0.079
11.235,-0.575
11.240,0.192
11.245,0.378
11.250,-0.499
11.255,-0.135
11.260,0.526
11.265,-0.237
11.270,-0.418
11.275,0.465
11.280,0.110
11.285,-0.542
11.290,0.225
11.295,0.406
11.300,-0.470
11.305,-0.101
11.310,0.559
11.315,-0.202
11.320,-0.375
11.325,0.507
11.330,0.142
11.335,-0.507
11.340,0.266
11.345,0.442
11.350,-0.437
11.355,-0.068
11.360,0.587
11.365,-0.170
11.370,-0.337
11.375,0.536
11.380,0.166
11.385,-0.482
11.390,0.271
11.395,0.410
11.400,-0.490
11.405,-0.130
11.410,0.512
11.415,-0.260
11.420,-0.423
11.425,0.458
11.430,0.084
11.435,-0.556
11.440,0.223
11.445,0.388
11.450,-0.487
11.455,-0.105
11.460,0.536
11.465,-0.253
11.470,-0.450
11.475,0.373
11.480,0.014
11.485,-0.456
11.490,0.588
11.495,1.049
11.500,0.432
11.505,0.928
11.510,1.488
11.515,0.337
11.520,-0.290
11.525,0.393
11.530,-0.025
11.535,-0.730
11.540,0.008
11.545,0.151
11.550,-0.728
11.555,-0.335
11.560,0.305
11.565,-0.470
11.570,-0.610
11.575,0.273
11.580,-0.111
11.585,-0.732
11.590,0.063
11.595,0.220
11.600,-0.643
11.605,-0.237
11.610,0.401
11.615,-0.375
11.620,-0.507
11.625,0.377
11.630,-0.013
11.635,-0.633
11.640,0.162
11.645,0.311
11.650,-0.554
11.655,-0.146
11.660,0.488
11.665,-0.291
11.670,-0.423
11.675,0.459
11.680,0.065
11.685,-0.555
11.690,0.239
11.695,0.380
11.700,-0.490
11.705,-0.083
11.710,0.542
11.715,-0.246
11.720,-0.376
11.725,0.501
11.730,0.095
11.735,-0.525
11.740,0.270
11.745,0.402
11.750,-0.470
11.755,-0.060
11.760,0.560
11.765,-0.231
11.770,-0.358
11.775,0.514
11.780,0.103
11.785,-0.517
11.790,0.269
11.795,0.388
11.800,-0.491
11.805,-0.086
11.810,0.524
11.815,-0.277
11.820,-0.406
11.825,0.461
11.830,0.043
11.835,-0.571
11.840,0.226
11.845,0.347
11.850,-0.526
11.855,-0.107
11.860,0.506
11.865,-0.290
11.870,-0.407
11.875,0.464
11.880,0.043
11.885,-0.565
11.890,0.230
11.895,0.348
11.900,-0.511
11.905,-0.083
11.910,0.522
11.915,-0.277
11.920,-0.388
11.925,0.485
11.930,0.064
11.935,-0.540
11.940,0.259
11.945,0.371
11.950,-0.496
11.955,-0.066
11.960,0.541
11.965,-0.260
11.970,-0.367
11.975,0.505
11.980,0.083
11.985,-0.512
11.990,0.294
11.995,0.401
12.000,-0.466
12.005,-0.035
12.010,0.570
12.015,-0.230
12.020,-0.337
12.025,0.535
12.030,0.119
12.035,-0.466
12.040,0.338
12.045,0.437
12.050,-0.427
12.055,-0.002
12.060,0.568
12.065,-0.261
12.070,-0.378
12.075,0.481
12.080,0.046
12.085,-0.547
12.090,0.260
12.095,0.360
12.100,-0.504
12.105,-0.061
12.110,0.538
12.115,-0.266
12.120,-0.363
12.125,0.501
12.130,0.060
12.135,-0.553
12.140,0.199
12.145,0.262
12.150,-0.508
12.155,0.158
12.160,1.042
12.165,0.527
12.170,0.622
12.175,1.509
12.180,0.839
12.185,-0.240
12.190,0.204
12.195,0.233
12.200,-0.669
12.205,-0.286
12.210,0.289
12.215,-0.526
12.220,-0.615
12.225,0.255
12.230,-0.186
12.235,-0.763
12.240,0.056
12.245,0.147
12.250,-0.706
12.255,-0.242
12.260,0.357
12.265,-0.443
12.270,-0.518
12.275,0.355
12.280,-0.082
12.285,-0.653
12.290,0.169
12.295,0.257
12.300,-0.598
12.305,-0.135
12.310,0.457
12.315,-0.349
12.320,-0.418
12.325,0.451
12.330,-0.001
12.335,-0.571
12.340,0.254
12.345,0.334
12.350,-0.521
12.355,-0.058
12.360,0.522
12.365,-0.286
12.370,-0.352
12.375,0.512
12.380,0.054
12.385,-0.519
12.390,0.304
12.395,0.377
12.400,-0.482
12.405,-0.015
12.410,0.560
12.415,-0.258
12.420,-0.321
12.425,0.543
12.430,0.077
12.435,-0.491
12.440,0.334
12.445,0.394
12.450,-0.474
12.455,-0.013
12.460,0.547
12.465,-0.282
12.470,-0.353
12.475,0.496
12.480,0.015
12.485,-0.562
12.490,0.255
12.495,0.311
12.500,-0.551
12.505,-0.082
12.510,0.484
12.515,-0.338
12.520,-0.398
12.525,0.457
12.530,-0.016
12.535,-0.583
12.540,0.242
12.545,0.302
12.550,-0.554
12.555,-0.078
12.560,0.487
12.565,-0.332
12.570,-0.381
12.575,0.479
12.580,0.009
12.585,-0.547
12.590,0.279
12.595,0.332
12.600,-0.522
12.605,-0.046
12.610,0.511
12.615,-0.307
12.620,-0.344
12.625,0.516
12.630,0.039
12.635,-0.514
12.640,0.314
12.645,0.363
12.650,-0.486
12.655,0.002
12.660,0.557
12.665,-0.268
12.670,-0.305
12.675,0.550
12.680,0.065
12.685,-0.485
12.690,0.354
12.695,0.403
12.700,-0.452
12.705,0.033
12.710,0.585
12.715,-0.256
12.720,-0.316
12.725,0.512
12.730,0.002
12.735,-0.552
12.740,0.283
12.745,0.322
12.750,-0.528
12.755,-0.036
12.760,0.512
12.765,-0.313
12.770,-0.340
12.775,0.512
12.780,0.018
12.785,-0.531
12.790,0.297
12.795,0.313
12.800,-0.586
12.805,-0.120
12.810,0.514
12.815,-0.093
12.820,0.168
12.825,1.306
12.830,1.006
12.835,0.489
12.840,1.070
12.845,0.590
12.850,-0.616
12.855,-0.166
12.860,0.352
12.865,-0.532
12.870,-0.566
12.875,0.287
12.880,-0.210
12.885,-0.745
12.890,0.098
12.895,0.128
12.900,-0.711
12.905,-0.197
12.910,0.348
12.915,-0.478
12.920,-0.485
12.925,0.374
12.930,-0.120
12.935,-0.646
12.940,0.197
12.945,0.224
12.950,-0.611
12.955,-0.097
12.960,0.442
12.965,-0.384
12.970,-0.388
12.975,0.463
12.980,-0.038
12.985,-0.558
12.990,0.283
12.995,0.300
13.000,-0.536
13.005,-0.021
13.010,0.508
13.015,-0.325
13.020,-0.327
13.025,0.517
13.030,0.002
13.035,-0.519
13.040,0.326
13.045,0.334
13.050,-0.506
13.055,0.014
13.060,0.540
13.065,-0.297
13.070,-0.298
13.075,0.547
13.080,0.029
13.085,-0.494
13.090,0.350
13.095,0.353
13.100,-0.490
13.105,0.028
13.110,0.543
13.115,-0.309
13.120,-0.315
13.125,0.519
13.130,-0.017
13.135,-0.545
13.140,0.296
13.145,0.285
13.150,-0.564
13.155,-0.044
13.160,0.472
13.165,-0.369
13.170,-0.362
13.175,0.476
13.180,-0.051
13.185,-0.564
13.190,0.281
13.195,0.271
13.200,-0.567
13.205,-0.035
13.210,0.481
13.215,-0.359
13.220,-0.344
13.225,0.497
13.230,-0.027
13.235,-0.536
13.240,0.306
13.245,0.297
13.250,-0.536
13.255,-0.004
13.260,0.506
13.265,-0.338
13.270,-0.319
13.275,0.519
13.280,-0.012
13.285,-0.513
13.290,0.337
13.295,0.323
13.300,-0.505
13.305,0.034
13.310,0.538
13.315,-0.307
13.320,-0.282
13.325,0.554
13.330,0.018
13.335,-0.484
13.340,0.365
13.345,0.346
13.350,-0.476
13.355,0.076
13.360,0.574
13.365,-0.278
13.370,-0.251
13.375,0.570
13.380,0.009
13.385,-0.508
13.390,0.321
13.395,0.278
13.400,-0.553
13.405,-0.001
13.410,0.496
13.415,-0.355
13.420,-0.321
13.425,0.510
13.430,-0.033
13.435,-0.522
13.440,0.329
13.445,0.294
13.450,-0.537
13.455,-0.012
13.460,0.426
13.465,-0.444
13.470,-0.303
13.475,0.749
13.480,0.477
13.485,0.257
13.490,1.280
13.495,1.256
13.500,0.178
13.505,0.242
13.510,0.408
13.515,-0.484
13.520,-0.471
13.525,0.305
13.530,-0.256
13.535,-0.736
13.540,0.121
13.545,0.080
13.550,-0.739
13.555,-0.175
13.560,0.313
13.565,-0.532
13.570,-0.471
13.575,0.365
13.580,-0.183
13.585,-0.650
13.590,0.214
13.595,0.171
13.600,-0.643
13.605,-0.072
13.610,0.409
13.615,-0.441
13.620,-0.377
13.625,0.454
13.630,-0.102
13.635,-0.564
13.640,0.299
13.645,0.244
13.650,-0.569
13.655,0.004
13.660,0.478
13.665,-0.373
13.670,-0.307
13.675,0.515
13.680,-0.050
13.685,-0.512
13.690,0.349
13.695,0.286
13.700,-0.530
13.705,0.047
13.710,0.517
13.715,-0.341
13.720,-0.271
13.725,0.550
13.730,-0.021
13.735,-0.481
13.740,0.380
13.745,0.313
13.750,-0.498
13.755,0.079
13.760,0.539
13.765,-0.325
13.770,-0.257
13.775,0.551
13.780,-0.038
13.785,-0.508
13.790,0.345
13.795,0.261
13.800,-0.559
13.805,0.016
13.810,0.465
13.815,-0.402
13.820,-0.326
13.825,0.484
13.830,-0.100
13.835,-0.552
13.840,0.311
13.845,0.230
13.850,-0.580
13.855,0.006
13.860,0.458
13.865,-0.404
13.870,-0.319
13.875,0.493
13.880,-0.090
13.885,-0.534
13.890,0.333
13.895,0.251
13.900,-0.556
13.905,0.034
13.910,0.483
13.915,-0.377
13.920,-0.285
13.925,0.526
13.930,-0.062
13.935,-0.503
13.940,0.364
13.945,0.274
13.950,-0.532
13.955,0.060
13.960,0.507
13.965,-0.350
13.970,-0.251
13.975,0.559
13.980,-0.030
13.985,-0.468
13.990,0.398
13.995,0.303
14.000,-0.500
14.005,0.096
14.010,0.533
14.015,-0.323
14.020,-0.209
14.025,0.598
14.030,-0.004
14.035,-0.436
14.040,0.427
14.045,0.303
14.050,-0.527
14.055,0.052
14.060,0.471
14.065,-0.399
14.070,-0.288
14.075,0.519
14.080,-0.078
14.085,-0.504
14.090,0.361
14.095,0.253
14.100,-0.544
14.105,0.064
14.110,0.492
14.115,-0.378
14.120,-0.278
14.125,0.482
14.130,-0.176
14.135,-0.568
14.140,0.479
14.145,0.635
14.150,0.136
14.155,0.989
14.160,1.519
14.165,0.559
14.170,0.271
14.175,0.604
14.180,-0.170
14.185,-0.621
14.190,0.180
14.195,0.027
14.200,-0.776
14.205,-0.169
14.210,0.250
14.215,-0.614
14.220,-0.484
14.225,0.319
14.230,-0.284
14.235,-0.687
14.240,0.193
14.245,0.079
14.250,-0.702
14.255,-0.075
14.260,0.345
14.265,-0.516
14.270,-0.375
14.275,0.428
14.280,-0.182
14.285,-0.585
14.290,0.294
14.295,0.173
14.300,-0.609
14.305,0.020
14.310,0.435
14.315,-0.432
14.320,-0.291
14.325,0.507
14.330,-0.108
14.335,-0.507
14.340,0.372
14.345,0.242
14.350,-0.542
14.355,0.087
14.360,0.493
14.365,-0.377
14.370,-0.234
14.375,0.557
14.380,-0.067
14.385,-0.466
14.390,0.411
14.395,0.274
14.400,-0.511
14.405,0.120
14.410,0.519
14.415,-0.357
14.420,-0.212
14.425,0.577
14.430,-0.052
14.435,-0.453
14.440,0.415
14.445,0.263
14.450,-0.528
14.455,0.095
14.460,0.476
14.465,-0.409
14.470,-0.267
14.475,0.510
14.480,-0.128
14.485,-0.522
14.490,0.352
14.495,0.198
14.500,-0.586
14.505,0.049
14.510,0.440
14.515,-0.434
14.520,-0.282
14.525,0.497
14.530,-0.140
14.535,-0.525
14.540,0.351
14.545,0.195
14.550,-0.580
14.555,0.062
14.560,0.450
14.565,-0.423
14.570,-0.264
14.575,0.514
14.580,-0.122
14.585,-0.499
14.590,0.379
14.595,0.218
14.600,-0.557
14.605,0.088
14.610,0.469
14.615,-0.406
14.620,-0.236
14.625,0.541
14.630,-0.103
14.635,-0.479
14.640,0.406
14.645,0.250
14.650,-0.517
14.655,0.132
14.660,0.507
14.665,-0.366
14.670,-0.191
14.675,0.588
14.680,-0.057
14.685,-0.429
14.690,0.454
14.695,0.294
14.700,-0.465
14.705,0.183
14.710,0.549
14.715,-0.325
14.720,-0.159
14.725,0.587
14.730,-0.091
14.735,-0.483
14.740,0.383
14.745,0.206
14.750,-0.560
14.755,0.095
14.760,0.459
14.765,-0.418
14.770,-0.231
14.775,0.538
14.780,-0.118
14.785,-0.478
14.790,0.402
14.795,0.214
14.800,-0.572
14.805,0.037
14.810,0.363
14.815,-0.437
14.820,-0.036
14.825,1.019
14.830,0.662
14.835,0.512
14.840,1.434
14.845,1.051
14.850,-0.193
14.855,0.067
14.860,0.343
14.865,-0.568
14.870,-0.442
14.875,0.301
14.880,-0.366
14.885,-0.717
14.890,0.169
14.895,-0.016
14.900,-0.769
14.905,-0.095
14.910,0.269
14.915,-0.595
14.920,-0.387
14.925,0.377
14.930,-0.279
14.935,-0.615
14.940,0.275
14.945,0.086
14.950,-0.663
14.955,0.015
14.960,0.367
14.965,-0.506
14.970,-0.296
14.975,0.472
14.980,-0.187
14.985,-0.523
14.990,0.364
14.995,0.167
15.000,-0.581
15.005,0.098
15.010,0.445
15.015,-0.432
15.020,-0.224
15.025,0.534
15.030,-0.133
15.035,-0.465
15.040,0.420
15.045,0.213
15.050,-0.535
15.055,0.144
15.060,0.484
15.065,-0.390
15.070,-0.177
15.075,0.575
15.080,-0.096
15.085,-0.427
15.090,0.455
15.095,0.243
15.100,-0.506
15.105,0.173
15.110,0.500
15.115,-0.388
15.120,-0.180
15.125,0.555
15.130,-0.133
15.135,-0.464
15.140,0.405
15.145,0.174
15.150,-0.578
15.155,0.096
15.160,0.412
15.165,-0.475
15.170,-0.250
15.175,0.500
15.180,-0.181
15.185,-0.504
15.190,0.379
15.195,0.156
15.200,-0.592
15.205,0.094
15.210,0.416
15.215,-0.468
15.220,-0.238
15.225,0.505
15.230,-0.183
15.235,-0.493
15.240,0.395
15.245,0.165
15.250,-0.571
15.255,0.120
15.260,0.435
15.265,-0.446
15.270,-0.214
15.275,0.529
15.280,-0.151
15.285,-0.456
15.290,0.423
15.295,0.185
15.300,-0.551
15.305,0.144
15.310,0.462
15.315,-0.412
15.320,-0.168
15.325,0.574
15.330,-0.116
15.335,-0.420
15.340,0.461
15.345,0.218
15.350,-0.512
15.355,0.187
15.360,0.493
15.365,-0.377
15.370,-0.115
15.375,0.618
15.380,-0.084
15.385,-0.384
15.390,0.491
15.395,0.219
15.400,-0.535
15.405,0.152
15.410,0.442
15.415,-0.443
15.420,-0.192
15.425,0.538
15.430,-0.161
15.435,-0.456
15.440,0.426
15.445,0.174
15.450,-0.553
15.455,0.155
15.460,0.451
15.465,-0.435
15.470,-0.189
15.475,0.491
15.480,-0.261
15.485,-0.492
15.490,0.595
15.495,0.619
15.500,0.184
15.505,1.100
15.510,1.453
15.515,0.399
15.520,0.185
15.525,0.491
15.530,-0.308
15.535,-0.616
15.540,0.211
15.545,-0.062
15.550,-0.778
15.555,-0.070
15.560,0.215
15.565,-0.659
15.570,-0.383
15.575,0.345
15.580,-0.361
15.585,-0.638
15.590,0.258
15.595,0.005
15.600,-0.704
15.605,0.020
15.610,0.311
15.615,-0.562
15.620,-0.284
15.625,0.441
15.630,-0.262
15.635,-0.528
15.640,0.363
15.645,0.100
15.650,-0.605
15.655,0.118
15.660,0.395
15.665,-0.484
15.670,-0.201
15.675,0.524
15.680,-0.186
15.685,-0.454
15.690,0.434
15.695,0.159
15.700,-0.552
15.705,0.169
15.710,0.443
15.715,-0.435
15.720,-0.151
15.725,0.562
15.730,-0.158
15.735,-0.420
15.740,0.467
15.745,0.184
15.750,-0.522
15.755,0.201
15.760,0.464
15.765,-0.416
15.770,-0.127
15.775,0.581
15.780,-0.143
15.785,-0.407
15.790,0.465
15.795,0.166
15.800,-0.551
15.805,0.161
15.810,0.410
15.815,-0.480
15.820,-0.197
15.825,0.502
15.830,-0.223
15.835,-0.478
15.840,0.403
15.845,0.108
15.850,-0.593
15.855,0.135
15.860,0.388
15.865,-0.493
15.870,-0.199
15.875,0.502
15.880,-0.226
15.885,-0.472
15.890,0.415
15.895,0.122
15.900,-0.572
15.905,0.160
15.910,0.411
15.915,-0.468
15.920,-0.168
15.925,0.532
15.930,-0.196
15.935,-0.440
15.940,0.447
15.945,0.149
15.950,-0.546
15.955,0.188
15.960,0.430
15.965,-0.452
15.970,-0.143
15.975,0.556
15.980,-0.173
15.985,-0.407
15.990,0.476
15.995,0.171
16.000,-0.519
16.005,0.217
16.010,0.455
16.015,-0.428
16.020,-0.119
16.025,0.580
16.030,-0.146
16.035,-0.376
16.040,0.506
16.045,0.198
16.050,-0.492
16.055,0.232
16.060,0.440
16.065,-0.466
16.070,-0.168
16.075,0.516
16.080,-0.217
16.085,-0.441
16.090,0.441
16.095,0.126
16.100,-0.558
16.105,0.184
16.110,0.411
16.115,-0.469
16.120,-0.149
16.125,0.537
16.130,-0.215
16.135,-0.479
16.140,0.355
16.145,0.074
16.150,-0.430
16.155,0.578
16.160,1.087
16.165,0.433
16.170,0.839
16.175,1.400
16.180,0.248
16.185,-0.410
16.190,0.334
16.195,-0.008
16.200,-0.742
16.205,-0.022
16.210,0.193
16.215,-0.685
16.220,-0.355
16.225,0.328
16.230,-0.410
16.235,-0.613
16.240,0.276
16.245,-0.046
16.250,-0.713
16.255,0.048
16.260,0.270
16.265,-0.601
16.270,-0.257
16.275,0.425
16.280,-0.317
16.285,-0.515
16.290,0.375
16.295,0.046
16.300,-0.618
16.305,0.143
16.310,0.356
16.315,-0.517
16.320,-0.171
16.325,0.503
16.330,-0.245
16.335,-0.439
16.340,0.445
16.345,0.106
16.350,-0.556
16.355,0.206
16.360,0.408
16.365,-0.472
16.370,-0.123
16.375,0.549
16.380,-0.208
16.385,-0.402
16.390,0.483
16.395,0.138
16.400,-0.524
16.405,0.239
16.410,0.435
16.415,-0.441
16.420,-0.088
16.425,0.574
16.430,-0.187
16.435,-0.377
16.440,0.501
16.445,0.141
16.450,-0.526
16.455,0.229
16.460,0.408
16.465,-0.482
16.470,-0.136
16.475,0.515
16.480,-0.255
16.485,-0.447
16.490,0.428
16.495,0.066
16.500,-0.595
16.505,0.169
16.510,0.353
16.515,-0.525
16.520,-0.164
16.525,0.492
16.530,-0.274
16.535,-0.452
16.540,0.429
16.545,0.066
16.550,-0.584
16.555,0.187
16.560,0.368
16.565,-0.507
16.570,-0.138
16.575,0.516
16.580,-0.250
16.585,-0.421
16.590,0.458
16.595,0.091
16.600,-0.555
16.605,0.220
16.610,0.392
16.615,-0.483
16.620,-0.107
16.625,0.544
16.630,-0.221
16.635,-0.380
16.640,0.504
16.645,0.131
16.650,-0.512
16.655,0.265
16.660,0.433
16.665,-0.442
16.670,-0.067
16.675,0.575
16.680,-0.195
16.685,-0.346
16.690,0.541
16.695,0.164
16.700,-0.476
16.705,0.302
16.710,0.448
16.715,-0.453
16.720,-0.094
16.725,0.528
16.730,-0.260
16.735,-0.418
16.740,0.463
16.745,0.083
16.750,-0.551
16.755,0.230
16.760,0.385
16.765,-0.488
16.770,-0.098
16.775,0.539
16.780,-0.241
16.785,-0.396
16.790,0.455
16.795,0.012
16.800,-0.642
16.805,0.249
16.810,0.630
16.815,0.043
16.820,0.713
16.825,1.522
16.830,0.760
16.835,0.370
16.840,0.767
16.845,0.047
16.850,-0.645
16.855,0.088
16.860,0.172
16.865,-0.717
16.870,-0.329
16.875,0.298
16.880,-0.481
16.885,-0.616
16.890,0.264
16.895,-0.123
16.900,-0.739
16.905,0.058
16.910,0.208
16.915,-0.652
16.920,-0.240
16.925,0.394
16.930,-0.384
16.935,-0.512
16.940,0.368
16.945,-0.025
16.950,-0.640
16.955,0.157
16.960,0.300
16.965,-0.564
16.970,-0.148
16.975,0.480
16.980,-0.305
16.985,-0.429
16.990,0.450
16.995,0.047
17.000,-0.567
17.005,0.232
17.010,0.368
17.015,-0.500
17.020,-0.085
17.025,0.538
17.030,-0.250
17.035,-0.374
17.040,0.500
17.045,0.092
17.050,-0.521
17.055,0.275
17.060,0.402
17.065,-0.466
17.070,-0.050
17.075,0.568
17.080,-0.224
17.085,-0.347
17.090,0.524
17.095,0.111
17.100,-0.506
17.105,0.282
17.110,0.395
17.115,-0.482
17.120,-0.072
17.125,0.531
17.130,-0.272
17.135,-0.396
17.140,0.467
17.145,0.043
17.150,-0.573
17.155,0.219
17.160,0.336
17.165,-0.532
17.170,-0.111
17.175,0.498
17.180,-0.300
17.185,-0.413
17.190,0.456
17.195,0.032
17.200,-0.576
17.205,0.222
17.210,0.333
17.215,-0.535
17.220,-0.106
17.225,0.502
17.230,-0.298
17.235,-0.406
17.240,0.466
17.245,0.043
17.250,-0.558
17.255,0.246
17.260,0.356
17.265,-0.509
17.270,-0.078
17.275,0.525
17.280,-0.275
17.285,-0.375
17.290,0.499
17.295,0.075
17.300,-0.519
17.305,0.288
17.310,0.395
17.315,-0.467
17.320,-0.030
17.325,0.569
17.330,-0.239
17.335,-0.343
17.340,0.527
17.345,0.104
17.350,-0.476
17.355,0.337
17.360,0.433
17.365,-0.430
17.370,0.004
17.375,0.577
17.380,-0.252
17.385,-0.368
17.390,0.482
17.395,0.039
17.400,-0.549
17.405,0.261
17.410,0.357
17.415,-0.504
17.420,-0.062
17.425,0.534
17.430,-0.272
17.435,-0.363
17.440,0.501
17.445,0.055
17.450,-0.544
17.455,0.227
17.460,0.260
17.465,-0.584
17.470,0.025
17.475,0.873
17.480,0.368
17.485,0.543
17.490,1.526
17.495,1.013
17.500,0.052
17.505,0.375
17.510,0.261
17.515,-0.627
17.520,-0.244
17.525,0.299
17.530,-0.516
17.535,-0.601
17.540,0.260
17.545,-0.187
17.550,-0.763
17.555,0.057
17.560,0.146
17.565,-0.707
17.570,-0.243
17.575,0.354
17.580,-0.442
17.585,-0.510
17.590,0.359
17.595,-0.083
17.600,-0.653
17.605,0.167
17.610,0.251
17.615,-0.599
17.620,-0.133
17.625,0.451
17.630,-0.356
17.635,-0.420
17.640,0.449
17.645,-0.003
17.650,-0.572
17.655,0.251
17.660,0.329
17.665,-0.526
17.670,-0.061
17.675,0.520
17.680,-0.290
17.685,-0.355
17.690,0.508
17.695,0.047
17.700,-0.518
17.705,0.307
17.710,0.373
17.715,-0.483
17.720,-0.012
17.725,0.564
17.730,-0.254
17.735,-0.316
17.740,0.545
17.745,0.081
17.750,-0.483
17.755,0.338
17.760,0.394
17.765,-0.470
17.770,-0.008
17.775,0.550
17.780,-0.281
17.785,-0.350
17.790,0.498
17.795,0.014
17.800,-0.562
17.805,0.253
17.810,0.304
17.815,-0.553
17.820,-0.080
17.825,0.480
17.830,-0.341
17.835,-0.396
17.840,0.457
17.845,-0.019
17.850,-0.580
17.855,0.244
17.860,0.297
17.865,-0.553
17.870,-0.073
17.875,0.482
17.880,-0.340
17.885,-0.382
17.890,0.474
17.895,-0.006
17.900,-0.554
17.905,0.283
17.910,0.332
17.915,-0.523
17.920,-0.040
17.925,0.518
17.930,-0.306
17.935,-0.349
17.940,0.508
17.945,0.033
17.950,-0.512
17.955,0.324
17.960,0.370
17.965,-0.480
17.970,0.010
17.975,0.560
17.980,-0.271
17.985,-0.310
17.990,0.541
17.995,0.051
18.000,-0.488
18.005,0.360
18.010,0.401
18.015,-0.455
18.020,0.039
18.025,0.583
18.030,-0.267
18.035,-0.320
18.040,0.514
18.045,0.005
18.050,-0.546
18.055,0.289
18.060,0.326
18.065,-0.522
18.070,-0.028
18.075,0.515
18.080,-0.310
18.085,-0.329
18.090,0.523
18.095,0.026
18.100,-0.521
18.105,0.297
18.110,0.283
18.115,-0.614
18.120,-0.075
18.125,0.648
18.130,0.097
18.135,0.382
18.140,1.468
18.145,1.056
18.150,0.374
18.155,0.742
18.160,0.305
18.165,-0.661
18.170,-0.166
18.175,0.315
18.180,-0.542
18.185,-0.559
18.190,0.286
18.195,-0.216
18.200,-0.744
18.205,0.099
18.210,0.125
18.215,-0.712
18.220,-0.194
18.225,0.348
18.230,-0.479
18.235,-0.480
18.240,0.379
18.245,-0.122
18.250,-0.643
18.255,0.207
18.260,0.225
18.265,-0.611
18.270,-0.091
18.275,0.443
18.280,-0.388
18.285,-0.386
18.290,0.467
18.295,-0.040
18.300,-0.554
18.305,0.291
18.310,0.296
18.315,-0.542
18.320,-0.020
18.325,0.504
18.330,-0.333
18.335,-0.329
18.340,0.519
18.345,0.002
18.350,-0.517
18.355,0.326
18.360,0.329
18.365,-0.506
18.370,0.019
18.375,0.541
18.380,-0.296
18.385,-0.293
18.390,0.548
18.395,0.027
18.400,-0.487
18.405,0.355
18.410,0.349
18.415,-0.492
18.420,0.027
18.425,0.528
18.430,-0.323
18.435,-0.316
18.440,0.514
18.445,-0.025
18.450,-0.546
18.455,0.286
18.460,0.264
18.465,-0.578
18.470,-0.043
18.475,0.468
18.480,-0.377
18.485,-0.360
18.490,0.473
18.495,-0.063
18.500,-0.569
18.505,0.275
18.510,0.261
18.515,-0.567
18.520,-0.029
18.525,0.470
18.530,-0.376
18.535,-0.345
18.540,0.496
18.545,-0.040
18.550,-0.544
18.555,0.301
18.560,0.284
18.565,-0.543
18.570,0.001
18.575,0.501
18.580,-0.348
18.585,-0.318
18.590,0.517
18.595,-0.024
18.600,-0.514
18.605,0.346
18.610,0.320
18.615,-0.509
18.620,0.042
18.625,0.539
18.630,-0.312
18.635,-0.279
18.640,0.549
18.645,0.004
18.650,-0.481
18.655,0.380
18.660,0.356
18.665,-0.471
18.670,0.077
18.675,0.572
18.680,-0.287
18.685,-0.268
18.690,0.539
18.695,-0.031
18.700,-0.524
18.705,0.327
18.710,0.281
18.715,-0.542
18.720,0.020
18.725,0.506
18.730,-0.348
18.735,-0.300
18.740,0.527
18.745,-0.028
18.750,-0.506
18.755,0.348
18.760,0.271
18.765,-0.609
18.770,-0.046
18.775,0.568
18.780,-0.054
18.785,0.264
18.790,1.328
18.795,0.903
18.800,0.387
18.805,0.918
18.810,0.400
18.815,-0.645
18.820,-0.098
18.825,0.339
18.830,-0.553
18.835,-0.497
18.840,0.323
18.845,-0.244
18.850,-0.708
18.855,0.155
18.860,0.102
18.865,-0.703
18.870,-0.126
18.875,0.346
18.880,-0.503
18.885,-0.424
18.890,0.406
18.895,-0.160
18.900,-0.613
18.905,0.256
18.910,0.194
18.915,-0.615
18.920,-0.036
18.925,0.429
18.930,-0.427
18.935,-0.350
18.940,0.473
18.945,-0.094
18.950,-0.546
18.955,0.318
18.960,0.251
18.965,-0.559
18.970,0.021
18.975,0.481
18.980,-0.375
18.985,-0.294
18.990,0.523
18.995,-0.055
19.000,-0.505
19.005,0.361
19.010,0.284
19.015,-0.524
19.020,0.065
19.025,0.521
19.030,-0.339
19.035,-0.252
19.040,0.563
19.045,-0.022
19.050,-0.466
19.055,0.399
19.060,0.313
19.065,-0.495
19.070,0.088
19.075,0.522
19.080,-0.351
19.085,-0.270
19.090,0.527
19.095,-0.076
19.100,-0.525
19.105,0.334
19.110,0.232
19.115,-0.576
19.120,0.014
19.125,0.446
19.130,-0.414
19.135,-0.309
19.140,0.491
19.145,-0.110
19.150,-0.544
19.155,0.324
19.160,0.224
19.165,-0.581
19.170,0.018
19.175,0.452
19.180,-0.414
19.185,-0.309
19.190,0.497
19.195,-0.102
19.200,-0.531
19.205,0.339
19.210,0.239
19.215,-0.556
19.220,0.049
19.225,0.479
19.230,-0.386
19.235,-0.272
19.240,0.531
19.245,-0.070
19.250,-0.486
19.255,0.389
19.260,0.280
19.265,-0.512
19.270,0.099
19.275,0.521
19.280,-0.346
19.285,-0.227
19.290,0.568
19.295,-0.045
19.300,-0.461
19.305,0.422
19.310,0.313
19.315,-0.485
19.320,0.128
19.325,0.549
19.330,-0.331
19.335,-0.229
19.340,0.541
19.345,-0.095
19.350,-0.515
19.355,0.357
19.360,0.232
19.365,-0.556
19.370,0.064
19.375,0.475
19.380,-0.396
19.385,-0.264
19.390,0.529
19.395,-0.090
19.400,-0.496
19.405,0.367
19.410,0.200
19.415,-0.642
19.420,-0.011
19.425,0.543
19.430,-0.078
19.435,0.344
19.440,1.383
19.445,0.889
19.450,0.432
19.455,0.961
19.460,0.359
19.465,-0.638
19.470,-0.038
19.475,0.308
19.480,-0.607
19.485,-0.470
19.490,0.312
19.495,-0.315
19.500,-0.704
19.505,0.178
19.510,0.041
19.515,-0.731
19.520,-0.090
19.525,0.313
19.530,-0.549
19.535,-0.390
19.540,0.400
19.545,-0.225
19.550,-0.604
19.555,0.278
19.560,0.134
19.565,-0.637
19.570,0.005
19.575,0.400
19.580,-0.464
19.585,-0.298
19.590,0.485
19.595,-0.149
19.600,-0.525
19.605,0.356
19.610,0.202
19.615,-0.568
19.620,0.078
19.625,0.465
19.630,-0.405
19.635,-0.238
19.640,0.543
19.645,-0.095
19.650,-0.470
19.655,0.408
19.660,0.247
19.665,-0.524
19.670,0.123
19.675,0.502
19.680,-0.371
19.685,-0.201
19.690,0.575
19.695,-0.070
19.700,-0.443
19.705,0.435
19.710,0.266
19.715,-0.508
19.720,0.135
19.725,0.498
19.730,-0.389
19.735,-0.227
19.740,0.534
19.745,-0.124
19.750,-0.499
19.755,0.373
19.760,0.191
19.765,-0.581
19.770,0.069
19.775,0.434
19.780,-0.443
19.785,-0.264
19.790,0.504
19.795,-0.147
19.800,-0.511
19.805,0.365
19.810,0.184
19.815,-0.580
19.820,0.077
19.825,0.435
19.830,-0.442
19.835,-0.255
19.840,0.511
19.845,-0.144
19.850,-0.498
19.855,0.384
19.860,0.200
19.865,-0.561
19.870,0.102
19.875,0.460
19.880,-0.417
19.885,-0.225
19.890,0.539
19.895,-0.121
19.900,-0.472
19.905,0.410
19.910,0.219
19.915,-0.540
19.920,0.130
19.925,0.490
19.930,-0.383
19.935,-0.186
19.940,0.574
19.945,-0.088
19.950,-0.432
19.955,0.448
19.960,0.244
19.965,-0.516
19.970,0.155
19.975,0.513
19.980,-0.348
19.985,-0.143
19.990,0.608
19.995,-0.061
20.000,-0.411
20.005,0.452
20.010,0.228
20.015,-0.548
20.020,0.110
20.025,0.449
20.030,-0.429
20.035,-0.219
20.040,0.538
20.045,-0.132
20.050,-0.467
20.055,0.415
20.060,0.208
20.065,-0.542
20.070,0.133
20.075,0.465
20.080,-0.432
20.085,-0.268
20.090,0.439
20.095,-0.171
20.100,-0.300
20.105,0.854
20.110,0.930
20.115,0.395
20.120,1.131
20.125,1.317
20.130,0.010
20.135,-0.197
20.140,0.436
20.145,-0.275
20.150,-0.677
20.155,0.181
20.160,-0.040
20.165,-0.789
20.170,-0.106
20.175,0.225
20.180,-0.648
20.185,-0.416
20.190,0.338
20.195,-0.335
20.200,-0.647
20.205,0.247
20.210,0.035
20.215,-0.699
20.220,-0.003
20.225,0.329
20.230,-0.545
20.235,-0.310
20.240,0.443
20.245,-0.233
20.250,-0.543
20.255,0.348
20.260,0.129
20.265,-0.607
20.270,0.087
20.275,0.413
20.280,-0.462
20.285,-0.222
20.290,0.526
20.295,-0.158
20.300,-0.468
20.305,0.420
20.310,0.193
20.315,-0.541
20.320,0.153
20.325,0.465
20.330,-0.413
20.335,-0.173
20.340,0.565
20.345,-0.126
20.350,-0.432
20.355,0.455
20.360,0.218
20.365,-0.516
20.370,0.181
20.375,0.489
20.380,-0.394
20.385,-0.154
20.390,0.576
20.395,-0.124
20.400,-0.437
20.405,0.437
20.410,0.185
20.415,-0.558
20.420,0.131
20.425,0.425
20.430,-0.468
20.435,-0.228
20.440,0.501
20.445,-0.200
20.450,-0.502
20.455,0.380
20.460,0.133
20.465,-0.596
20.470,0.105
20.475,0.406
20.480,-0.479
20.485,-0.233
20.490,0.501
20.495,-0.196
20.500,-0.492
20.505,0.392
20.510,0.141
20.515,-0.588
20.520,0.115
20.525,0.413
20.530,-0.466
20.535,-0.210
20.540,0.516
20.545,-0.185
20.550,-0.471
20.555,0.413
20.560,0.158
20.565,-0.562
20.570,0.147
20.575,0.439
20.580,-0.439
20.585,-0.172
20.590,0.558
20.595,-0.147
20.600,-0.429
20.605,0.464
20.610,0.207
20.615,-0.514
20.620,0.195
20.625,0.476
20.630,-0.409
20.635,-0.137
20.640,0.594
20.645,-0.105
20.650,-0.379
20.655,0.502
20.660,0.233
20.665,-0.488
20.670,0.207
20.675,0.458
20.680,-0.446
20.685,-0.183
20.690,0.530
20.695,-0.187
20.700,-0.457
20.705,0.430
20.710,0.161
20.715,-0.553
20.720,0.158
20.725,0.434
20.730,-0.445
20.735,-0.171
20.740,0.539
20.745,-0.191
20.750,-0.504
20.755,0.330
20.760,0.103
20.765,-0.409
20.770,0.595
20.775,1.170
20.780,0.521
20.785,0.874
20.790,1.428
20.795,0.254
20.800,-0.447
20.805,0.327
20.810,0.023
20.815,-0.752
20.820,-0.055
20.825,0.206
20.830,-0.679
20.835,-0.392
20.840,0.324
20.845,-0.384
20.850,-0.633
20.855,0.256
20.860,-0.024
20.865,-0.718
20.870,0.019
20.875,0.289
20.880,-0.581
20.885,-0.278
20.890,0.435
20.895,-0.281
20.900,-0.526
20.905,0.364
20.910,0.076
20.915,-0.622
20.920,0.113
20.925,0.379
20.930,-0.498
20.935,-0.199
20.940,0.513
20.945,-0.212
20.950,-0.458
20.955,0.432
20.960,0.139
20.965,-0.555
20.970,0.181
20.975,0.432
20.980,-0.450
20.985,-0.148
20.990,0.552
20.995,-0.176
21.000,-0.416
21.005,0.468
21.010,0.172
21.015,-0.515
21.020,0.220
21.025,0.457
21.030,-0.426
21.035,-0.112
21.040,0.586
21.045,-0.152
21.050,-0.392
21.055,0.490
21.060,0.176
21.065,-0.530
21.070,0.196
21.075,0.423
21.080,-0.472
21.085,-0.169
21.090,0.518
21.095,-0.224
21.100,-0.461
21.105,0.414
21.110,0.096
21.115,-0.592
21.120,0.150
21.125,0.380
21.130,-0.504
21.135,-0.188
21.140,0.501
21.145,-0.237
21.150,-0.467
21.155,0.411
21.160,0.098
21.165,-0.580
21.170,0.167
21.175,0.395
21.180,-0.491
21.185,-0.172
21.190,0.514
21.195,-0.229
21.200,-0.449
21.205,0.439
21.210,0.122
21.215,-0.557
21.220,0.185
21.225,0.404
21.230,-0.473
21.235,-0.144
21.240,0.543
21.245,-0.197
21.250,-0.408
21.255,0.480
21.260,0.152
21.265,-0.525
21.270,0.226
21.275,0.438
21.280,-0.442
21.285,-0.101
21.290,0.576
21.295,-0.177
21.300,-0.383
21.305,0.512
21.310,0.191
21.315,-0.484
21.320,0.267
21.325,0.480
21.330,-0.410
21.335,-0.098
21.340,0.550
21.345,-0.215
21.350,-0.431
21.355,0.444
21.360,0.111
21.365,-0.555
21.370,0.199
21.375,0.403
21.380,-0.470
21.385,-0.123
21.390,0.543
21.395,-0.217
21.400,-0.414
21.405,0.470
21.410,0.105
21.415,-0.616
21.420,0.108
21.425,0.399
21.430,-0.254
21.435,0.376
21.440,1.318
21.445,0.740
21.450,0.551
21.455,1.178
21.460,0.353
21.465,-0.643
21.470,0.066
21.475,0.236
21.480,-0.689
21.485,-0.344
21.490,0.321
21.495,-0.434
21.500,-0.616
21.505,0.265
21.510,-0.083
21.515,-0.731
21.520,0.040
21.525,0.237
21.530,-0.631
21.535,-0.264
21.540,0.405
21.545,-0.346
21.550,-0.520
21.555,0.365
21.560,0.015
21.565,-0.629
21.570,0.145
21.575,0.332
21.580,-0.541
21.585,-0.172
21.590,0.493
21.595,-0.264
21.600,-0.437
21.605,0.444
21.610,0.083
21.615,-0.564
21.620,0.205
21.625,0.385
21.630,-0.482
21.635,-0.110
21.640,0.539
21.645,-0.225
21.650,-0.391
21.655,0.485
21.660,0.117
21.665,-0.525
21.670,0.253
21.675,0.426
21.680,-0.448
21.685,-0.073
21.690,0.573
21.695,-0.198
21.700,-0.365
21.705,0.510
21.710,0.134
21.715,-0.510
21.720,0.260
21.725,0.413
21.730,-0.474
21.735,-0.104
21.740,0.526
21.745,-0.263
21.750,-0.435
21.755,0.431
21.760,0.046
21.765,-0.593
21.770,0.184
21.775,0.342
21.780,-0.534
21.785,-0.149
21.790,0.490
21.795,-0.287
21.800,-0.437
21.805,0.440
21.810,0.050
21.815,-0.586
21.820,0.195
21.825,0.349
21.830,-0.519
21.835,-0.127
21.840,0.505
21.845,-0.276
21.850,-0.423
21.855,0.455
21.860,0.071
21.865,-0.559
21.870,0.218
21.875,0.365
21.880,-0.505
21.885,-0.110
21.890,0.525
21.895,-0.254
21.900,-0.396
21.905,0.483
21.910,0.094
21.915,-0.526
21.920,0.264
21.925,0.409
21.930,-0.464
21.935,-0.064
21.940,0.564
21.945,-0.223
21.950,-0.366
21.955,0.508
21.960,0.116
21.965,-0.494
21.970,0.300
21.975,0.435
21.980,-0.438
21.985,-0.043
21.990,0.562
21.995,-0.247
22.000,-0.398
22.005,0.465
22.010,0.059
22.015,-0.557
22.020,0.236
22.025,0.369
22.030,-0.499
22.035,-0.085
22.040,0.533
22.045,-0.256
22.050,-0.382
22.055,0.485
22.060,0.070
22.065,-0.561
22.070,0.185
22.075,0.283
22.080,-0.493
22.085,0.132
22.090,1.010
22.095,0.480
22.100,0.529
22.105,1.418
22.110,0.778
22.115,-0.292
22.120,0.179
22.125,0.249
22.130,-0.646
22.135,-0.275
22.140,0.326
22.145,-0.469
22.150,-0.582
22.155,0.287
22.160,-0.132
22.165,-0.727
22.170,0.082
22.175,0.203
22.180,-0.657
22.185,-0.219
22.190,0.396
22.195,-0.395
22.200,-0.492
22.205,0.384
22.210,-0.036
22.215,-0.628
22.220,0.181
22.225,0.294
22.230,-0.567
22.235,-0.131
22.240,0.474
22.245,-0.322
22.250,-0.418
22.255,0.454
22.260,0.026
22.265,-0.564
22.270,0.246
22.275,0.350
22.280,-0.512
22.285,-0.070
22.290,0.527
22.295,-0.274
22.300,-0.365
22.305,0.502
22.310,0.066
22.315,-0.522
22.320,0.287
22.325,0.382
22.330,-0.479
22.335,-0.034
22.340,0.559
22.345,-0.245
22.350,-0.330
22.355,0.537
22.360,0.093
22.365,-0.495
22.370,0.313
22.375,0.394
22.380,-0.478
22.385,-0.040
22.390,0.538
22.395,-0.280
22.400,-0.372
22.405,0.481
22.410,0.022
22.415,-0.568
22.420,0.238
22.425,0.315
22.430,-0.546
22.435,-0.093
22.440,0.485
22.445,-0.329
22.450,-0.407
22.455,0.456
22.460,0.006
22.465,-0.574
22.470,0.236
22.475,0.311
22.480,-0.548
22.485,-0.090
22.490,0.486
22.495,-0.329
22.500,-0.397
22.505,0.467
22.510,0.012
22.515,-0.556
22.520,0.262
22.525,0.331
22.530,-0.523
22.535,-0.054
22.540,0.518
22.545,-0.299
22.550,-0.360
22.555,0.502
22.560,0.043
22.565,-0.516
22.570,0.310
22.575,0.376
22.580,-0.479
22.585,-0.008
22.590,0.558
22.595,-0.259
22.600,-0.316
22.605,0.538
22.610,0.067
22.615,-0.489
22.620,0.345
22.625,0.405
22.630,-0.453
22.635,0.025
22.640,0.583
22.645,-0.260
22.650,-0.336
22.655,0.498
22.660,0.008
22.665,-0.553
22.670,0.273
22.675,0.323
22.680,-0.526
22.685,-0.041
22.690,0.517
22.695,-0.305
22.700,-0.349
22.705,0.505
22.710,0.023
22.715,-0.531
22.720,0.285
22.725,0.288
22.730,-0.614
22.735,-0.093
22.740,0.635
22.745,0.072
22.750,0.325
22.755,1.409
22.760,1.021
22.765,0.379
22.770,0.818
22.775,0.409
22.780,-0.600
22.785,-0.144
22.790,0.334
22.795,-0.524
22.800,-0.561
22.805,0.281
22.810,-0.211
22.815,-0.748
22.820,0.090
22.825,0.130
22.830,-0.708
22.835,-0.203
22.840,0.348
22.845,-0.471
22.850,-0.487
22.855,0.370
22.860,-0.115
22.865,-0.642
22.870,0.198
22.875,0.228
22.880,-0.609
22.885,-0.100
22.890,0.444
22.895,-0.381
22.900,-0.392
22.905,0.458
22.910,-0.038
22.915,-0.562
22.920,0.279
22.925,0.302
22.930,-0.539
22.935,-0.028
22.940,0.507
22.945,-0.324
22.950,-0.334
22.955,0.514
22.960,0.011
22.965,-0.512
22.970,0.328
22.975,0.339
22.980,-0.500
22.985,0.016
22.990,0.544
22.995,-0.291
23.000,-0.296
23.005,0.549
23.010,0.039
23.015,-0.482
23.020,0.359
23.025,0.363
23.030,-0.484
23.035,0.027
23.040,0.542
23.045,-0.307
23.050,-0.319
23.055,0.511
23.060,-0.018
23.065,-0.545
23.070,0.288
23.075,0.282
23.080,-0.560
23.085,-0.041
23.090,0.474
23.095,-0.370
23.100,-0.366
23.105,0.473
23.110,-0.051
23.115,-0.566
23.120,0.275
23.125,0.268
23.130,-0.568
23.135,-0.042
23.140,0.470
23.145,-0.372
23.150,-0.362
23.155,0.475
23.160,-0.051
23.165,-0.558
23.170,0.287
23.175,0.274
23.180,-0.556
23.185,-0.018
23.190,0.491
23.195,-0.352
23.200,-0.330
23.205,0.507
23.210,-0.028
23.215,-0.524
23.220,0.332
23.225,0.320
23.230,-0.505
23.235,0.037
23.240,0.539
23.245,-0.303
23.250,-0.274
23.255,0.556
23.260,0.018
23.265,-0.479
23.270,0.367
23.275,0.346
23.280,-0.472
23.285,0.077
23.290,0.575
23.295,-0.272
23.300,-0.243
23.305,0.573
23.310,0.003
23.315,-0.512
23.320,0.322
23.325,0.279
23.330,-0.548
23.335,0.006
23.340,0.500
23.345,-0.348
23.350,-0.309
23.355,0.517
23.360,-0.031
23.365,-0.515
23.370,0.337
23.375,0.297
23.380,-0.536
23.385,-0.010
23.390,0.422
23.395,-0.442
23.400,-0.274
23.405,0.794
23.410,0.538
23.415,0.332
23.420,1.343
23.425,1.292
23.430,0.182
23.435,0.244
23.440,0.435
23.445,-0.461
23.450,-0.467
23.455,0.301
23.460,-0.268
23.465,-0.749
23.470,0.107
23.475,0.064
23.480,-0.750
23.485,-0.180
23.490,0.301
23.495,-0.547
23.500,-0.475
23.505,0.359
23.510,-0.199
23.515,-0.657
23.520,0.212
23.525,0.159
23.530,-0.654
23.535,-0.074
23.540,0.407
23.545,-0.440
23.550,-0.368
23.555,0.457
23.560,-0.105
23.565,-0.560
23.570,0.308
23.575,0.251
23.580,-0.560
23.585,0.017
23.590,0.484
23.595,-0.370
23.600,-0.290
23.605,0.534
23.610,-0.036
23.615,-0.491
23.620,0.370
23.625,0.302
23.630,-0.504
23.635,0.076
23.640,0.536
23.645,-0.319
23.650,-0.243
23.655,0.570
23.660,-0.007
23.665,-0.458
23.670,0.407
23.675,0.328
23.680,-0.483
23.685,0.101
23.690,0.548
23.695,-0.320
23.700,-0.247
23.705,0.550
23.710,-0.048
23.715,-0.508
23.720,0.344
23.725,0.249
23.730,-0.568
23.735,0.012
23.740,0.453
23.745,-0.412
23.750,-0.323
23.755,0.486
23.760,-0.103
23.765,-0.548
23.770,0.313
23.775,0.223
23.780,-0.582
23.785,0.014
23.790,0.459
23.795,-0.405
23.800,-0.312
23.805,0.493
23.810,-0.102
23.815,-0.540
23.820,0.328
23.825,0.234
23.830,-0.569
23.835,0.032
23.840,0.474
23.845,-0.388
23.850,-0.286
23.855,0.516
23.860,-0.081
23.865,-0.503
23.870,0.370
23.875,0.270
23.880,-0.521
23.885,0.084
23.890,0.513
23.895,-0.353
23.900,-0.244
23.905,0.557
23.910,-0.045
23.915,-0.471
23.920,0.395
23.925,0.289
23.930,-0.493
23.935,0.123
23.940,0.539
23.945,-0.330
23.950,-0.212
23.955,0.570
23.960,-0.063
23.965,-0.500
23.970,0.357
23.975,0.229
23.980,-0.568
23.985,0.047
23.990,0.472
23.995,-0.392
24.000,-0.267
24.005,0.531
24.010,-0.079
24.015,-0.494
24.020,0.376
24.025,0.250
24.030,-0.547
24.035,0.042
24.040,0.402
24.045,-0.462
24.050,-0.187
24.055,0.862
24.060,0.540
24.065,0.382
24.070,1.378
24.075,1.183
24.080,0.022
24.085,0.158
24.090,0.362
24.095,-0.522
24.100,-0.431
24.105,0.325
24.110,-0.299
24.115,-0.703
24.120,0.172
24.125,0.039
24.130,-0.742
24.135,-0.103
24.140,0.310
24.145,-0.556
24.150,-0.408
24.155,0.388
24.160,-0.227
24.165,-0.613
24.170,0.268
24.175,0.133
24.180,-0.639
24.185,-0.003
24.190,0.390
24.195,-0.476
24.200,-0.316
24.205,0.476
24.210,-0.151
24.215,-0.530
24.220,0.355
24.225,0.207
24.230,-0.568
24.235,0.075
24.240,0.461
24.245,-0.415
24.250,-0.254
24.255,0.533
24.260,-0.097
24.265,-0.479
24.270,0.400
24.275,0.246
24.280,-0.530
24.285,0.113
24.290,0.495
24.295,-0.377
24.300,-0.211
24.305,0.566
24.310,-0.071
24.315,-0.443
24.320,0.434
24.325,0.269
24.330,-0.505
24.335,0.136
24.340,0.505
24.345,-0.378
24.350,-0.219
24.355,0.540
24.360,-0.119
24.365,-0.500
24.370,0.370
24.375,0.189
24.380,-0.587
24.385,0.057
24.390,0.419
24.395,-0.461
24.400,-0.286
24.405,0.482
24.410,-0.168
24.415,-0.533
24.420,0.342
24.425,0.165
24.430,-0.595
24.435,0.065
24.440,0.429
24.445,-0.450
24.450,-0.267
24.455,0.499
24.460,-0.156
24.465,-0.512
24.470,0.367
24.475,0.185
24.480,-0.573
24.485,0.088
24.490,0.443
24.495,-0.433
24.500,-0.242
24.505,0.524
24.510,-0.132
24.515,-0.480
24.520,0.406
24.525,0.221
24.530,-0.530
24.535,0.138
24.540,0.491
24.545,-0.385
24.550,-0.190
24.555,0.571
24.560,-0.095
24.565,-0.445
24.570,0.435
24.575,0.243
24.580,-0.499
24.585,0.177
24.590,0.517
24.595,-0.362
24.600,-0.164
24.605,0.574
24.610,-0.118
24.615,-0.476
24.620,0.394
24.625,0.185
24.630,-0.566
24.635,0.112
24.640,0.451
24.645,-0.430
24.650,-0.219
24.655,0.535
24.660,-0.137
24.665,-0.466
24.670,0.416
24.675,0.203
24.680,-0.561
24.685,0.074
24.690,0.365
24.695,-0.464
24.700,-0.066
24.705,0.940
24.710,0.535
24.715,0.414
24.720,1.362
24.725,1.005
24.730,-0.156
24.735,0.121
24.740,0.339
24.745,-0.558
24.750,-0.388
24.755,0.336
24.760,-0.346
24.765,-0.666
24.770,0.219
24.775,0.001
24.780,-0.734
24.785,-0.040
24.790,0.288
24.795,-0.585
24.800,-0.347
24.805,0.402
24.810,-0.276
24.815,-0.580
24.820,0.313
24.825,0.089
24.830,-0.643
24.835,0.056
24.840,0.377
24.845,-0.501
24.850,-0.261
24.855,0.486
24.860,-0.196
24.865,-0.499
24.870,0.389
24.875,0.155
24.880,-0.575
24.885,0.124
24.890,0.434
24.895,-0.443
24.900,-0.198
24.905,0.537
24.910,-0.155
24.915,-0.451
24.920,0.436
24.925,0.196
24.930,-0.531
24.935,0.169
24.940,0.470
24.945,-0.409
24.950,-0.155
24.955,0.579
24.960,-0.117
24.965,-0.411
24.970,0.473
24.975,0.224
24.980,-0.502
24.985,0.198
24.990,0.485
24.995,-0.406
25.000,-0.160
25.005,0.554
25.010,-0.161
25.015,-0.458
25.020,0.415
25.025,0.147
25.030,-0.582
25.035,0.120
25.040,0.401
25.045,-0.485
25.050,-0.223
25.055,0.500
25.060,-0.207
25.065,-0.489
25.070,0.393
25.075,0.128
25.080,-0.592
25.085,0.117
25.090,0.396
25.095,-0.485
25.100,-0.217
25.105,0.500
25.110,-0.212
25.115,-0.486
25.120,0.401
25.125,0.134
25.130,-0.577
25.135,0.142
25.140,0.418
25.145,-0.463
25.150,-0.184
25.155,0.531
25.160,-0.183
25.165,-0.448
25.170,0.442
25.175,0.173
25.180,-0.531
25.185,0.192
25.190,0.461
25.195,-0.419
25.200,-0.137
25.205,0.575
25.210,-0.144
25.215,-0.408
25.220,0.476
25.225,0.199
25.230,-0.496
25.235,0.231
25.240,0.491
25.245,-0.390
25.250,-0.107
25.255,0.579
25.260,-0.172
25.265,-0.448
25.270,0.424
25.275,0.130
25.280,-0.569
25.285,0.163
25.290,0.418
25.295,-0.463
25.300,-0.166
25.305,0.539
25.310,-0.183
25.315,-0.432
25.320,0.449
25.325,0.153
25.330,-0.560
25.335,0.125
25.340,0.323
25.345,-0.509
25.350,-0.016
25.355,0.952
25.360,0.513
25.365,0.497
25.370,1.460
25.375,1.040
25.380,-0.063
25.385,0.237
25.390,0.340
25.395,-0.580
25.400,-0.346
25.405,0.319
25.410,-0.423
25.415,-0.663
25.420,0.222
25.425,-0.081
25.430,-0.764
25.435,-0.018
25.440,0.225
25.445,-0.646
25.450,-0.321
25.455,0.376
25.460,-0.354
25.465,-0.572
25.470,0.319
25.475,0.013
25.480,-0.660
25.485,0.091
25.490,0.326
25.495,-0.549
25.500,-0.223
25.505,0.468
25.510,-0.266
25.515,-0.482
25.520,0.406
25.525,0.091
25.530,-0.583
25.535,0.169
25.540,0.395
25.545,-0.482
25.550,-0.149
25.555,0.535
25.560,-0.206
25.565,-0.419
25.570,0.465
25.575,0.139
25.580,-0.533
25.585,0.218
25.590,0.435
25.595,-0.439
25.600,-0.105
25.605,0.570
25.610,-0.179
25.615,-0.387
25.620,0.497
25.625,0.164
25.630,-0.508
25.635,0.245
25.640,0.451
25.645,-0.436
25.650,-0.107
25.655,0.553
25.660,-0.210
25.665,-0.422
25.670,0.451
25.675,0.103
25.680,-0.575
25.685,0.173
25.690,0.369
25.695,-0.513
25.700,-0.166
25.705,0.501
25.710,-0.255
25.715,-0.450
25.720,0.428
25.725,0.081
25.730,-0.582
25.735,0.175
25.740,0.368
25.745,-0.514
25.750,-0.166
25.755,0.498
25.760,-0.259
25.765,-0.448
25.770,0.431
25.775,0.078
25.780,-0.578
25.785,0.187
25.790,0.375
25.795,-0.501
25.800,-0.139
25.805,0.523
25.810,-0.236
25.815,-0.417
25.820,0.461
25.825,0.104
25.830,-0.544
25.835,0.230
25.840,0.418
25.845,-0.454
25.850,-0.086
25.855,0.570
25.860,-0.193
25.865,-0.367
25.870,0.512
25.875,0.149
25.880,-0.498
25.885,0.281
25.890,0.466
25.895,-0.412
25.900,-0.045
25.905,0.604
25.910,-0.177
25.915,-0.371
25.920,0.482
25.925,0.093
25.930,-0.560
25.935,0.211
25.940,0.382
25.945,-0.487
25.950,-0.108
25.955,0.536
25.960,-0.238
25.965,-0.400
25.970,0.483
25.975,0.108
25.980,-0.538
25.985,0.232
25.990,0.367
25.995,-0.569
26.000,-0.200
26.005,0.575
26.010,0.046
26.015,0.182
26.020,1.332
26.025,1.107
26.030,0.449
26.035,0.918
26.040,0.587
26.045,-0.558
26.050,-0.214
26.055,0.364
26.060,-0.469
26.065,-0.632
26.070,0.238
26.075,-0.150
26.080,-0.773
26.085,0.019
26.090,0.174
26.095,-0.694
26.100,-0.291
26.105,0.353
26.110,-0.416
26.115,-0.548
26.120,0.335
26.125,-0.052
26.130,-0.671
26.135,0.125
26.140,0.276
26.145,-0.589
26.150,-0.181
26.155,0.453
26.160,-0.327
26.165,-0.454
26.170,0.433
26.175,0.042
26.180,-0.575
26.185,0.220
26.190,0.356
26.195,-0.512
26.200,-0.100
26.205,0.525
26.210,-0.257
26.215,-0.384
26.220,0.490
26.225,0.087
26.230,-0.529
26.235,0.266
26.240,0.401
26.245,-0.465
26.250,-0.049
26.255,0.571
26.260,-0.219
26.265,-0.341
26.270,0.533
26.275,0.123
26.280,-0.491
26.285,0.303
26.290,0.426
26.295,-0.448
26.300,-0.042
26.305,0.561
26.310,-0.241
26.315,-0.369
26.320,0.486
26.325,0.053
26.330,-0.565
26.335,0.224
26.340,0.335
26.345,-0.536
26.350,-0.123
26.355,0.480
26.360,-0.311
26.365,-0.424
26.370,0.440
26.375,0.016
26.380,-0.585
26.385,0.216
26.390,0.325
26.395,-0.546
26.400,-0.119
26.405,0.489
26.410,-0.308
26.415,-0.416
26.420,0.453
26.425,0.030
26.430,-0.562
26.435,0.245
26.440,0.347
26.445,-0.520
26.450,-0.083
26.455,0.519
26.460,-0.280
26.465,-0.373
26.470,0.496
26.475,0.061
26.480,-0.528
26.485,0.285
26.490,0.387
26.495,-0.475
26.500,-0.039
26.505,0.556
26.510,-0.242
26.515,-0.333
26.520,0.531
26.525,0.087
26.530,-0.501
26.535,0.323
26.540,0.423
26.545,-0.446
26.550,-0.002
26.555,0.588
26.560,-0.232
26.565,-0.343
26.570,0.496
26.575,0.032
26.580,-0.555
26.585,0.261
26.590,0.345
26.595,-0.519
26.600,-0.061
26.605,0.531
26.610,-0.278
26.615,-0.358
26.620,0.503
26.625,0.048
26.630,-0.534
26.635,0.279
26.640,0.332
26.645,-0.588
26.650,-0.145
26.655,0.563
26.660,-0.002
26.665,0.221
26.670,1.346
26.675,1.040
26.680,0.438
26.685,0.933
26.690,0.512
26.695,-0.614
26.700,-0.183
26.705,0.355
26.710,-0.503
26.715,-0.575
26.720,0.282
26.725,-0.183
26.730,-0.750
26.735,0.075
26.740,0.149
26.745,-0.698
26.750,-0.220
26.755,0.360
26.760,-0.448
26.765,-0.503
26.770,0.365
26.775,-0.093
26.780,-0.653
26.785,0.175
26.790,0.244
26.795,-0.603
26.800,-0.120
26.805,0.454
26.810,-0.362
26.815,-0.408
26.820,0.457
26.825,-0.015
26.830,-0.570
26.835,0.263
26.840,0.320
26.845,-0.532
26.850,-0.046
26.855,0.514
26.860,-0.307
26.865,-0.346
26.870,0.513
26.875,0.035
26.880,-0.519
26.885,0.305
26.890,0.349
26.895,-0.497
26.900,-0.004
26.905,0.550
26.910,-0.274
26.915,-0.312
26.920,0.539
26.925,0.054
26.930,-0.492
26.935,0.338
26.940,0.375
26.945,-0.478
26.950,0.004
26.955,0.540
26.960,-0.301
26.965,-0.346
26.970,0.491
26.975,-0.013
26.980,-0.561
26.985,0.267
26.990,0.292
26.995,-0.561
27.000,-0.065
27.005,0.475
27.010,-0.361
27.015,-0.390
27.020,0.460
27.025,-0.034
27.030,-0.571
27.035,0.258
27.040,0.279
27.045,-0.562
27.050,-0.054
27.055,0.484
27.060,-0.347
27.065,-0.367
27.070,0.479
27.075,-0.023
27.080,-0.555
27.085,0.283
27.090,0.303
27.095,-0.539
27.100,-0.029
27.105,0.503
27.110,-0.331
27.115,-0.341
27.120,0.507
27.125,0.004
27.130,-0.516
27.135,0.328
27.140,0.342
27.145,-0.498
27.150,0.020
27.155,0.546
27.160,-0.291
27.165,-0.292
27.170,0.548
27.175,0.030
27.180,-0.478
27.185,0.376
27.190,0.379
27.195,-0.458
27.200,0.068
27.205,0.576
27.210,-0.284
27.215,-0.307
27.220,0.510
27.225,-0.022
27.230,-0.537
27.235,0.309
27.240,0.309
27.245,-0.527
27.250,-0.004
27.255,0.512
27.260,-0.325
27.265,-0.314
27.270,0.522
27.275,-0.008
27.280,-0.520
27.285,0.310
27.290,0.256
27.295,-0.617
27.300,-0.022
27.305,0.681
27.310,0.100
27.315,0.381
27.320,1.405
27.325,0.925
27.330,0.248
27.335,0.657
27.340,0.263
27.345,-0.652
27.350,-0.136
27.355,0.312
27.360,-0.548
27.365,-0.521
27.370,0.309
27.375,-0.229
27.380,-0.720
27.385,0.137
27.390,0.120
27.395,-0.705
27.400,-0.155
27.405,0.351
27.410,-0.486
27.415,-0.446
27.420,0.392
27.425,-0.142
27.430,-0.623
27.435,0.238
27.440,0.211
27.445,-0.611
27.450,-0.053
27.455,0.444
27.460,-0.401
27.465,-0.354
27.470,0.480
27.475,-0.065
27.480,-0.543
27.485,0.316
27.490,0.279
27.495,-0.545
27.500,0.011
27.505,0.502
27.510,-0.344
27.515,-0.298
27.520,0.529
27.525,-0.021
27.530,-0.499
27.535,0.356
27.540,0.313
27.545,-0.504
27.550,0.058
27.555,0.538
27.560,-0.313
27.565,-0.260
27.570,0.564
27.575,0.004
27.580,-0.471
27.585,0.385
27.590,0.332
27.595,-0.493
27.600,0.063
27.605,0.527
27.610,-0.340
27.615,-0.295
27.620,0.515
27.625,-0.058
27.630,-0.536
27.635,0.313
27.640,0.246
27.645,-0.576
27.650,-0.010
27.655,0.455
27.660,-0.402
27.665,-0.339
27.670,0.475
27.675,-0.095
27.680,-0.555
27.685,0.306
27.690,0.238
27.695,-0.580
27.700,-0.006
27.705,0.460
27.710,-0.396
27.715,-0.325
27.720,0.492
27.725,-0.082
27.730,-0.539
27.735,0.327
27.740,0.257
27.745,-0.555
27.750,0.028
27.755,0.489
27.760,-0.370
27.765,-0.289
27.770,0.529
27.775,-0.047
27.780,-0.495
27.785,0.375
27.790,0.299
27.795,-0.513
27.800,0.074
27.805,0.528
27.810,-0.331
27.815,-0.246
27.820,0.566
27.825,-0.013
27.830,-0.451
27.835,0.417
27.840,0.329
27.845,-0.477
27.850,0.111
27.855,0.539
27.860,-0.352
27.865,-0.282
27.870,0.514
27.875,-0.082
27.880,-0.522
27.885,0.346
27.890,0.256
27.895,-0.546
27.900,0.054
27.905,0.497
27.910,-0.375
27.915,-0.283
27.920,0.530
27.925,-0.063
27.930,-0.511
27.935,0.312
27.940,0.161
27.945,-0.606
27.950,0.166
27.955,0.864
27.960,0.294
27.965,0.634
27.970,1.535
27.975,0.842
27.980,0.017
27.985,0.432
27.990,0.169
27.995,-0.661
28.000,-0.127
28.005,0.265
28.010,-0.608
28.015,-0.500
28.020,0.303
28.025,-0.295
28.030,-0.712
28.035,0.163
28.040,0.059
28.045,-0.728
28.050,-0.107
28.055,0.326
28.060,-0.534
28.065,-0.407
28.070,0.402
28.075,-0.197
28.080,-0.606
28.085,0.272
28.090,0.161
28.095,-0.625
28.100,-0.004
28.105,0.421
28.110,-0.440
28.115,-0.310
28.120,0.490
28.125,-0.117
28.130,-0.523
28.135,0.354
28.140,0.234
28.145,-0.552
28.150,0.069
28.155,0.483
28.160,-0.383
28.165,-0.252
28.170,0.540
28.175,-0.073
28.180,-0.475
28.185,0.399
28.190,0.267
28.195,-0.519
28.200,0.109
28.205,0.515
28.210,-0.355
28.215,-0.217
28.220,0.572
28.225,-0.049
28.230,-0.448
28.235,0.423
28.240,0.282
28.245,-0.507
28.250,0.113
28.255,0.504
28.260,-0.379
28.265,-0.245
28.270,0.530
28.275,-0.107
28.280,-0.509
28.285,0.358
28.290,0.205
28.295,-0.581
28.300,0.051
28.305,0.445
28.310,-0.430
28.315,-0.281
28.320,0.499
28.325,-0.135
28.330,-0.525
28.335,0.349
28.340,0.194
28.345,-0.585
28.350,0.053
28.355,0.441
28.360,-0.431
28.365,-0.273
28.370,0.507
28.375,-0.127
28.380,-0.505
28.385,0.370
28.390,0.209
28.395,-0.567
28.400,0.076
28.405,0.461
28.410,-0.410
28.415,-0.246
28.420,0.532
28.425,-0.099
28.430,-0.467
28.435,0.414
28.440,0.252
28.445,-0.516
28.450,0.132
28.455,0.506
28.460,-0.370
28.465,-0.200
28.470,0.571
28.475,-0.071
28.480,-0.427
28.485,0.456
28.490,0.283
28.495,-0.483
28.500,0.162
28.505,0.511
28.510,-0.389
28.515,-0.234
28.520,0.518
28.525,-0.139
28.530,-0.500
28.535,0.381
28.540,0.205
28.545,-0.557
28.550,0.102
28.555,0.465
28.560,-0.410
28.565,-0.222
28.570,0.544
28.575,-0.117
28.580,-0.483
28.585,0.362
28.590,0.123
28.595,-0.619
28.600,0.202
28.605,0.817
28.610,0.235
28.615,0.676
28.620,1.555
28.625,0.825
28.630,0.106
28.635,0.512
28.640,0.123
28.645,-0.668
28.650,-0.072
28.655,0.232
28.660,-0.651
28.665,-0.454
28.670,0.305
28.675,-0.355
28.680,-0.690
28.685,0.200
28.690,0.009
28.695,-0.735
28.700,-0.052
28.705,0.301
28.710,-0.570
28.715,-0.356
28.720,0.408
28.725,-0.251
28.730,-0.582
28.735,0.304
28.740,0.110
28.745,-0.633
28.750,0.047
28.755,0.392
28.760,-0.477
28.765,-0.256
28.770,0.499
28.775,-0.176
28.780,-0.501
28.785,0.390
28.790,0.181
28.795,-0.564
28.800,0.120
28.805,0.453
28.810,-0.426
28.815,-0.205
28.820,0.546
28.825,-0.127
28.830,-0.445
28.835,0.443
28.840,0.224
28.845,-0.518
28.850,0.166
28.855,0.489
28.860,-0.387
28.865,-0.157
28.870,0.586
28.875,-0.097
28.880,-0.410
28.885,0.473
28.890,0.243
28.895,-0.500
28.900,0.176
28.905,0.477
28.910,-0.414
28.915,-0.191
28.920,0.538
28.925,-0.164
28.930,-0.487
28.935,0.392
28.940,0.152
28.945,-0.588
28.950,0.103
28.955,0.411
28.960,-0.472
28.965,-0.235
28.970,0.499
28.975,-0.190
28.980,-0.492
28.985,0.390
28.990,0.147
28.995,-0.588
29.000,0.110
29.005,0.417
29.010,-0.465
29.015,-0.219
29.020,0.514
29.025,-0.182
29.030,-0.478
29.035,0.406
29.040,0.163
29.045,-0.559
29.050,0.143
29.055,0.441
29.060,-0.436
29.065,-0.180
29.070,0.552
29.075,-0.146
29.080,-0.434
29.085,0.454
29.090,0.204
29.095,-0.520
29.100,0.179
29.105,0.470
29.110,-0.406
29.115,-0.146
29.120,0.577
29.125,-0.118
29.130,-0.395
29.135,0.488
29.140,0.227
29.145,-0.498
29.150,0.196
29.155,0.456
29.160,-0.450
29.165,-0.197
29.170,0.515
29.175,-0.198
29.180,-0.472
29.185,0.414
29.190,0.151
29.195,-0.558
29.200,0.152
29.205,0.430
29.210,-0.443
29.215,-0.170
29.220,0.545
29.225,-0.176
29.230,-0.481
29.235,0.350
29.240,0.088
29.245,-0.469
29.250,0.501
29.255,1.060
29.260,0.434
29.265,0.834
29.270,1.478
29.275,0.388
29.280,-0.366
29.285,0.320
29.290,0.025
29.295,-0.737
29.300,-0.052
29.305,0.212
29.310,-0.670
29.315,-0.382
29.320,0.330
29.325,-0.383
29.330,-0.628
29.335,0.263
29.340,-0.020
29.345,-0.716
29.350,0.019
29.355,0.287
29.360,-0.585
29.365,-0.284
29.370,0.427
29.375,-0.292
29.380,-0.534
29.385,0.360
29.390,0.071
29.395,-0.620
29.400,0.118
29.405,0.370
29.410,-0.507
29.415,-0.198
29.420,0.509
29.425,-0.215
29.430,-0.455
29.435,0.433
29.440,0.138
29.445,-0.553
29.450,0.183
29.455,0.426
29.460,-0.453
29.465,-0.140
29.470,0.554
29.475,-0.183
29.480,-0.414
29.485,0.474
29.490,0.167
29.495,-0.518
29.500,0.224
29.505,0.457
29.510,-0.428
29.515,-0.113
29.520,0.579
29.525,-0.161
29.530,-0.388
29.535,0.490
29.540,0.164
29.545,-0.524
29.550,0.207
29.555,0.414
29.560,-0.477
29.565,-0.163
29.570,0.511
29.575,-0.239
29.580,-0.467
29.585,0.406
29.590,0.076
29.595,-0.602
29.600,0.145
29.605,0.362
29.610,-0.515
29.615,-0.183
29.620,0.491
29.625,-0.257
29.630,-0.467
29.635,0.416
29.640,0.088
29.645,-0.588
29.650,0.164
29.655,0.384
29.660,-0.492
29.665,-0.155
29.670,0.522
29.675,-0.226
29.680,-0.432
29.685,0.451
29.690,0.122
29.695,-0.545
29.700,0.205
29.705,0.412
29.710,-0.456
29.715,-0.109
29.720,0.563
29.725,-0.190
29.730,-0.391
29.735,0.491
29.740,0.150
29.745,-0.511
29.750,0.245
29.755,0.439
29.760,-0.437
29.765,-0.079
29.770,0.593
29.775,-0.162
29.780,-0.352
29.785,0.526
29.790,0.159
29.795,-0.528
29.800,0.209
29.805,0.383
29.810,-0.500
29.815,-0.140
29.820,0.525
29.825,-0.236
29.830,-0.419
29.835,0.461
29.840,0.100
29.845,-0.557
29.850,0.213
29.855,0.400
29.860,-0.479
29.865,-0.129
29.870,0.488
29.875,-0.325
29.880,-0.472
29.885,0.572
29.890,0.459
29.895,0.081
29.900,1.066
29.905,1.332
29.910,0.348
29.915,0.316
29.920,0.542
29.925,-0.353
29.930,-0.534
29.935,0.294
29.940,-0.104
29.945,-0.750
29.950,0.026
29.955,0.196
29.960,-0.676
29.965,-0.291
29.970,0.365
29.975,-0.399
29.980,-0.559
29.985,0.324
29.990,-0.042
29.995,-0.673
30.000,0.112
30.005,0.282
30.010,-0.585
30.015,-0.195
30.020,0.452
30.025,-0.319
30.030,-0.468
30.035,0.416
30.040,0.039
30.045,-0.591
30.050,0.192
30.055,0.354
30.060,-0.512
30.065,-0.117
30.070,0.523
30.075,-0.257
30.080,-0.405
30.085,0.474
30.090,0.087
30.095,-0.541
30.100,0.244
30.105,0.394
30.110,-0.477
30.115,-0.080
30.120,0.552
30.125,-0.229
30.130,-0.366
30.135,0.512
30.140,0.116
30.145,-0.510
30.150,0.276
30.155,0.417
30.160,-0.455
30.165,-0.055
30.170,0.569
30.175,-0.219
30.180,-0.361
30.185,0.500
30.190,0.088
30.195,-0.541
30.200,0.238
30.205,0.365
30.210,-0.516
30.215,-0.119
30.220,0.499
30.225,-0.290
30.230,-0.424
30.235,0.442
30.240,0.029
30.245,-0.589
30.250,0.204
30.255,0.333
30.260,-0.536
30.265,-0.123
30.270,0.493
30.275,-0.297
30.280,-0.418
30.285,0.454
30.290,0.040
30.295,-0.572
30.300,0.226
30.305,0.350
30.310,-0.516
30.315,-0.096
30.320,0.519
30.325,-0.275
30.330,-0.391
30.335,0.480
30.340,0.060
30.345,-0.545
30.350,0.262
30.355,0.386
30.360,-0.475
30.365,-0.047
30.370,0.560
30.375,-0.239
30.380,-0.348
30.385,0.521
30.390,0.097
30.395,-0.505
30.400,0.295
30.405,0.411
30.410,-0.443
30.415,-0.013
30.420,0.587
30.425,-0.210
30.430,-0.322
30.435,0.525
30.440,0.069
30.445,-0.551
30.450,0.240
30.455,0.339
30.460,-0.523
30.465,-0.083
30.470,0.515
30.475,-0.287
30.480,-0.381
30.485,0.488
30.490,0.048
30.495,-0.545
30.500,0.265
30.505,0.357
30.510,-0.530
30.515,-0.140
30.520,0.419
30.525,-0.298
30.530,-0.167
30.535,0.981
30.540,0.822
30.545,0.424
30.550,1.259
30.555,1.134
30.560,-0.192
30.565,-0.102
30.570,0.417
30.575,-0.429
30.580,-0.577
30.585,0.270
30.590,-0.182
30.595,-0.764
30.600,0.052
30.605,0.139
30.610,-0.714
30.615,-0.251
30.620,0.340
30.625,-0.462
30.630,-0.526
30.635,0.345
30.640,-0.102
30.645,-0.669
30.650,0.156
30.655,0.241
30.660,-0.610
30.665,-0.144
30.670,0.439
30.675,-0.368
30.680,-0.430
30.685,0.438
30.690,-0.015
30.695,-0.581
30.700,0.243
30.705,0.320
30.710,-0.533
30.715,-0.065
30.720,0.511
30.725,-0.303
30.730,-0.364
30.735,0.500
30.740,0.038
30.745,-0.528
30.750,0.294
30.755,0.358
30.760,-0.496
30.765,-0.023
30.770,0.543
30.775,-0.277
30.780,-0.332
30.785,0.525
30.790,0.053
30.795,-0.509
30.800,0.314
30.805,0.371
30.810,-0.482
30.815,-0.006
30.820,0.552
30.825,-0.276
30.830,-0.333
30.835,0.515
30.840,0.031
30.845,-0.534
30.850,0.283
30.855,0.324
30.860,-0.535
30.865,-0.059
30.870,0.493
30.875,-0.334
30.880,-0.379
30.885,0.473
30.890,-0.012
30.895,-0.566
30.900,0.262
30.905,0.303
30.910,-0.549
30.915,-0.060
30.920,0.492
30.925,-0.336
30.930,-0.372
30.935,0.481
30.940,-0.009
30.945,-0.556
30.950,0.276
30.955,0.314
30.960,-0.534
30.965,-0.038
30.970,0.509
30.975,-0.318
30.980,-0.345
30.985,0.505
30.990,0.013
30.995,-0.525
31.000,0.312
31.005,0.346
31.010,-0.494
31.015,0.009
31.020,0.549
31.025,-0.283
31.030,-0.305
31.035,0.544
31.040,0.045
31.045,-0.493
31.050,0.344
31.055,0.380
31.060,-0.454
31.065,0.049
31.070,0.584
31.075,-0.247
31.080,-0.277
31.085,0.542
31.090,0.014
31.095,-0.534
31.100,0.296
31.105,0.313
31.110,-0.527
31.115,-0.012
31.120,0.518
31.125,-0.317
31.130,-0.323
31.135,0.523
31.140,0.013
31.145,-0.511
31.150,0.328
31.155,0.332
31.160,-0.539
31.165,-0.082
31.170,0.436
31.175,-0.270
31.180,-0.032
31.185,1.097
31.190,0.848
31.195,0.472
31.200,1.290
31.205,1.004
31.210,-0.308
31.215,-0.058
31.220,0.416
31.225,-0.485
31.230,-0.539
31.235,0.289
31.240,-0.240
31.245,-0.755
31.250,0.095
31.255,0.095
31.260,-0.737
31.265,-0.202
31.270,0.320
31.275,-0.514
31.280,-0.495
31.285,0.350
31.290,-0.168
31.295,-0.664
31.300,0.191
31.305,0.181
31.310,-0.645
31.315,-0.102
31.320,0.413
31.325,-0.423
31.330,-0.396
31.335,0.446
31.340,-0.082
31.345,-0.578
31.350,0.273
31.355,0.257
31.360,-0.571
31.365,-0.026
31.370,0.481
31.375,-0.363
31.380,-0.334
31.385,0.505
31.390,-0.028
31.395,-0.522
31.400,0.330
31.405,0.309
31.410,-0.521
31.415,0.023
31.420,0.521
31.425,-0.326
31.430,-0.289
31.435,0.545
31.440,-0.001
31.445,-0.493
31.450,0.360
31.455,0.328
31.460,-0.498
31.465,0.052
31.470,0.540
31.475,-0.319
31.480,-0.289
31.485,0.528
31.490,-0.033
31.495,-0.528
31.500,0.318
31.505,0.269
31.510,-0.564
31.515,-0.015
31.520,0.465
31.525,-0.393
31.530,-0.348
31.535,0.480
31.540,-0.077
31.545,-0.560
31.550,0.293
31.555,0.245
31.560,-0.578
31.565,-0.015
31.570,0.464
31.575,-0.387
31.580,-0.332
31.585,0.490
31.590,-0.071
31.595,-0.541
31.600,0.316
31.605,0.262
31.610,-0.552
31.615,0.021
31.620,0.496
31.625,-0.358
31.630,-0.296
31.635,0.528
31.640,-0.034
31.645,-0.498
31.650,0.367
31.655,0.310
31.660,-0.503
31.665,0.074
31.670,0.542
31.675,-0.319
31.680,-0.250
31.685,0.578
31.690,0.008
31.695,-0.458
31.700,0.407
31.705,0.347
31.710,-0.461
31.715,0.116
31.720,0.575
31.725,-0.286
31.730,-0.229
31.735,0.560
31.740,-0.043
31.745,-0.519
31.750,0.337
31.755,0.262
31.760,-0.548
31.765,0.038
31.770,0.495
31.775,-0.367
31.780,-0.281
31.785,0.535
31.790,-0.051
31.795,-0.499
31.800,0.366
31.805,0.276
31.810,-0.557
31.815,-0.022
31.820,0.407
31.825,-0.340
31.830,-0.014
31.835,1.092
31.840,0.789
31.845,0.516
31.850,1.365
31.855,0.963
31.860,-0.354
31.865,-0.053
31.870,0.359
31.875,-0.540
31.880,-0.495
31.885,0.302
31.890,-0.292
31.895,-0.727
31.900,0.145
31.905,0.053
31.910,-0.742
31.915,-0.133
31.920,0.311
31.925,-0.548
31.930,-0.439
31.935,0.372
31.940,-0.216
31.945,-0.633
31.950,0.249
31.955,0.151
31.960,-0.644
31.965,-0.033
31.970,0.398
31.975,-0.465
31.980,-0.340
31.985,0.472
31.990,-0.127
31.995,-0.545
32.000,0.328
32.005,0.219
32.010,-0.571
32.015,0.046
32.020,0.472
32.025,-0.395
32.030,-0.273
32.035,0.527
32.040,-0.084
32.045,-0.499
32.050,0.375
32.055,0.254
32.060,-0.536
32.065,0.083
32.070,0.500
32.075,-0.365
32.080,-0.237
32.085,0.553
32.090,-0.066
32.095,-0.470
32.100,0.406
32.105,0.278
32.110,-0.509
32.115,0.114
32.120,0.516
32.125,-0.364
32.130,-0.235
32.135,0.547
32.140,-0.086
32.145,-0.494
32.150,0.371
32.155,0.225
32.160,-0.566
32.165,0.055
32.170,0.444
32.175,-0.434
32.180,-0.289
32.185,0.497
32.190,-0.133
32.195,-0.531
32.200,0.343
32.205,0.200
32.210,-0.580
32.215,0.054
32.220,0.448
32.225,-0.423
32.230,-0.274
32.235,0.506
32.240,-0.127
32.245,-0.511
32.250,0.368
32.255,0.213
32.260,-0.564
32.265,0.078
32.270,0.465
32.275,-0.408
32.280,-0.245
32.285,0.534
32.290,-0.108
32.295,-0.485
32.300,0.398
32.305,0.245
32.310,-0.525
32.315,0.118
32.320,0.497
32.325,-0.375
32.330,-0.206
32.335,0.569
32.340,-0.074
32.345,-0.449
32.350,0.428
32.355,0.275
32.360,-0.487
32.365,0.158
32.370,0.534
32.375,-0.337
32.380,-0.180
32.385,0.563
32.390,-0.109
32.395,-0.492
32.400,0.380
32.405,0.209
32.410,-0.559
32.415,0.094
32.420,0.465
32.425,-0.408
32.430,-0.227
32.435,0.544
32.440,-0.109
32.445,-0.473
32.450,0.404
32.455,0.217
32.460,-0.578
32.465,0.028
32.470,0.398
32.475,-0.334
32.480,0.098
32.485,1.142
32.490,0.726
32.495,0.486
32.500,1.293
32.505,0.743
32.510,-0.489
32.515,-0.021
32.520,0.330
32.525,-0.586
32.530,-0.423
32.535,0.338
32.540,-0.323
32.545,-0.670
32.550,0.213
32.555,0.023
32.560,-0.727
32.565,-0.051
32.570,0.305
32.575,-0.565
32.580,-0.356
32.585,0.408
32.590,-0.253
32.595,-0.589
32.600,0.301
32.605,0.108
32.610,-0.641
32.615,0.037
32.620,0.384
32.625,-0.491
32.630,-0.279
32.635,0.482
32.640,-0.182
32.645,-0.511
32.650,0.377
32.655,0.172
32.660,-0.572
32.665,0.111
32.670,0.447
32.675,-0.432
32.680,-0.214
32.685,0.536
32.690,-0.139
32.695,-0.463
32.700,0.421
32.705,0.203
32.710,-0.541
32.715,0.145
32.720,0.476
32.725,-0.402
32.730,-0.179
32.735,0.567
32.740,-0.114
32.745,-0.435
32.750,0.449
32.755,0.228
32.760,-0.515
32.765,0.168
32.770,0.484
32.775,-0.404
32.780,-0.185
32.785,0.544
32.790,-0.152
32.795,-0.473
32.800,0.403
32.805,0.161
32.810,-0.586
32.815,0.102
32.820,0.410
32.825,-0.478
32.830,-0.243
32.835,0.493
32.840,-0.201
32.845,-0.510
32.850,0.374
32.855,0.142
32.860,-0.590
32.865,0.106
32.870,0.414
32.875,-0.467
32.880,-0.223
32.885,0.514
32.890,-0.179
32.895,-0.478
32.900,0.410
32.905,0.166
32.910,-0.563
32.915,0.139
32.920,0.440
32.925,-0.441
32.930,-0.188
32.935,0.544
32.940,-0.156
32.945,-0.449
32.950,0.440
32.955,0.194
32.960,-0.530
32.965,0.176
32.970,0.470
32.975,-0.413
32.980,-0.155
32.985,0.574
32.990,-0.130
32.995,-0.420
33.000,0.472
33.005,0.227
33.010,-0.494
33.015,0.211
33.020,0.498
33.025,-0.393
33.030,-0.150
33.035,0.548
33.040,-0.180
33.045,-0.474
33.050,0.407
33.055,0.145
33.060,-0.571
33.065,0.145
33.070,0.427
33.075,-0.454
33.080,-0.183
33.085,0.535
33.090,-0.179
33.095,-0.454
33.100,0.428
33.105,0.141
33.110,-0.619
33.115,0.054
33.120,0.382
33.125,-0.308
33.130,0.239
33.135,1.241
33.140,0.745
33.145,0.542
33.150,1.267
33.155,0.553
33.160,-0.565
33.165,0.053
33.170,0.295
33.175,-0.650
33.180,-0.388
33.185,0.320
33.190,-0.402
33.195,-0.660
33.200,0.230
33.205,-0.047
33.210,-0.742
33.215,-0.007
33.220,0.260
33.225,-0.615
33.230,-0.313
33.235,0.401
33.240,-0.315
33.245,-0.558
33.250,0.334
33.255,0.050
33.260,-0.644
33.265,0.093
33.270,0.353
33.275,-0.522
33.280,-0.217
33.285,0.489
33.290,-0.233
33.295,-0.474
33.300,0.413
33.305,0.121
33.310,-0.569
33.315,0.167
33.320,0.416
33.325,-0.460
33.330,-0.153
33.335,0.545
33.340,-0.184
33.345,-0.421
33.350,0.465
33.355,0.163
33.360,-0.528
33.365,0.208
33.370,0.448
33.375,-0.431
33.380,-0.123
33.385,0.567
33.390,-0.167
33.395,-0.402
33.400,0.481
33.405,0.173
33.410,-0.516
33.415,0.221
33.420,0.453
33.425,-0.431
33.430,-0.123
33.435,0.555
33.440,-0.193
33.445,-0.431
33.450,0.442
33.455,0.117
33.460,-0.574
33.465,0.162
33.470,0.383
33.475,-0.498
33.480,-0.177
33.485,0.505
33.490,-0.241
33.495,-0.465
33.500,0.416
33.505,0.093
33.510,-0.583
33.515,0.164
33.520,0.383
33.525,-0.497
33.530,-0.170
33.535,0.514
33.540,-0.226
33.545,-0.440
33.550,0.441
33.555,0.115
33.560,-0.558
33.565,0.193
33.570,0.409
33.575,-0.470
33.580,-0.135
33.585,0.540
33.590,-0.210
33.595,-0.416
33.600,0.467
33.605,0.136
33.610,-0.530
33.615,0.227
33.620,0.436
33.625,-0.442
33.630,-0.102
33.635,0.569
33.640,-0.180
33.645,-0.378
33.650,0.498
33.655,0.154
33.660,-0.504
33.665,0.263
33.670,0.466
33.675,-0.412
33.680,-0.059
33.685,0.600
33.690,-0.182
33.695,-0.403
33.700,0.457
33.705,0.096
33.710,-0.569
33.715,0.194
33.720,0.391
33.725,-0.484
33.730,-0.127
33.735,0.537
33.740,-0.223
33.745,-0.412
33.750,0.468
33.755,0.114
33.760,-0.546
33.765,0.203
33.770,0.343
33.775,-0.580
33.780,-0.159
33.785,0.697
33.790,0.203
33.795,0.308
33.800,1.404
33.805,1.118
33.810,0.326
33.815,0.662
33.820,0.424
33.825,-0.569
33.830,-0.242
33.835,0.337
33.840,-0.457
33.845,-0.639
33.850,0.234
33.855,-0.130
33.860,-0.775
33.865,0.003
33.870,0.187
33.875,-0.680
33.880,-0.299
33.885,0.359
33.890,-0.403
33.895,-0.563
33.900,0.326
33.905,-0.035
33.910,-0.673
33.915,0.108
33.920,0.287
33.925,-0.578
33.930,-0.195
33.935,0.457
33.940,-0.307
33.945,-0.462
33.950,0.422
33.955,0.050
33.960,-0.587
33.965,0.195
33.970,0.363
33.975,-0.506
33.980,-0.118
33.985,0.525
33.990,-0.251
33.995,-0.404
34.000,0.477
34.005,0.093
34.010,-0.540
34.015,0.245
34.020,0.399
34.025,-0.475
34.030,-0.085
34.035,0.552
34.040,-0.228
34.045,-0.378
34.050,0.499
34.055,0.109
34.060,-0.522
34.065,0.262
34.070,0.410
34.075,-0.464
34.080,-0.070
34.085,0.556
34.090,-0.233
34.095,-0.385
34.100,0.481
34.105,0.078
34.110,-0.557
34.115,0.222
34.120,0.357
34.125,-0.521
34.130,-0.122
34.135,0.502
34.140,-0.290
34.145,-0.428
34.150,0.446
34.155,0.043
34.160,-0.581
34.165,0.211
34.170,0.348
34.175,-0.525
34.180,-0.122
34.185,0.501
34.190,-0.285
34.195,-0.415
34.200,0.458
34.205,0.053
34.210,-0.560
34.215,0.234
34.220,0.362
34.225,-0.507
34.230,-0.093
34.235,0.525
34.240,-0.266
34.245,-0.388
34.250,0.486
34.255,0.073
34.260,-0.537
34.265,0.267
34.270,0.394
34.275,-0.473
34.280,-0.051
34.285,0.564
34.290,-0.229
34.295,-0.345
34.300,0.526
34.305,0.115
34.310,-0.489
34.315,0.308
34.320,0.432
34.325,-0.423
34.330,0.004
34.335,0.606
34.340,-0.194
34.345,-0.305
34.350,0.542
34.355,0.086
34.360,-0.540
34.365,0.243
34.370,0.347
34.375,-0.516
34.380,-0.081
34.385,0.526
34.390,-0.275
34.395,-0.377
34.400,0.492
34.405,0.058
34.410,-0.539
34.415,0.266
34.420,0.364
34.425,-0.512
34.430,-0.113
34.435,0.425
34.440,-0.361
34.445,-0.290
34.450,0.845
34.455,0.711
34.460,0.376
34.465,1.298
34.470,1.310
34.475,0.056
34.480,0.012
34.485,0.416
34.490,-0.411
34.495,-0.558
34.500,0.273
34.505,-0.176
34.510,-0.768
34.515,0.044
34.520,0.138
34.525,-0.711
34.530,-0.253
34.535,0.334
34.540,-0.465
34.545,-0.531
34.550,0.338
34.555,-0.103
34.560,-0.668
34.565,0.156
34.570,0.244
34.575,-0.613
34.580,-0.153
34.585,0.439
34.590,-0.362
34.595,-0.433
34.600,0.435
34.605,-0.011
34.610,-0.578
34.615,0.246
34.620,0.322
34.625,-0.536
34.630,-0.072
34.635,0.508
34.640,-0.303
34.645,-0.371
34.650,0.491
34.655,0.034
34.660,-0.535
34.665,0.285
34.670,0.353
34.675,-0.501
34.680,-0.036
34.685,0.532
34.690,-0.285
34.695,-0.340
34.700,0.522
34.705,0.054
34.710,-0.510
34.715,0.314
34.720,0.377
34.725,-0.479
34.730,-0.005
34.735,0.560
34.740,-0.268
34.745,-0.325
34.750,0.531
34.755,0.043
34.760,-0.530
34.765,0.287
34.770,0.331
34.775,-0.535
34.780,-0.067
34.785,0.489
34.790,-0.336
34.795,-0.388
34.800,0.463
34.805,-0.020
34.810,-0.577
34.815,0.251
34.820,0.297
34.825,-0.553
34.830,-0.063
34.835,0.492
34.840,-0.335
34.845,-0.377
34.850,0.474
34.855,-0.008
34.860,-0.556
34.865,0.270
34.870,0.314
34.875,-0.529
34.880,-0.038
34.885,0.507
34.890,-0.323
34.895,-0.352
34.900,0.500
34.905,0.008
34.910,-0.533
34.915,0.300
34.920,0.330
34.925,-0.515
34.930,-0.015
34.935,0.532
34.940,-0.294
34.945,-0.318
34.950,0.535
34.955,0.041
34.960,-0.501
34.965,0.331
34.970,0.358
34.975,-0.483
34.980,0.029
34.985,0.578
34.990,-0.249
34.995,-0.270
35.000,0.576
35.005,0.068
35.010,-0.482
35.015,0.331
35.020,0.320
35.025,-0.540
35.030,-0.034
35.035,0.495
35.040,-0.338
35.045,-0.341
35.050,0.507
35.055,-0.003
35.060,-0.532
35.065,0.305
35.070,0.320
35.075,-0.524
35.080,-0.015
35.085,0.508
35.090,-0.355
35.095,-0.407
35.100,0.447
35.105,0.081
35.110,-0.187
35.115,0.932
35.120,1.173
35.125,0.451
35.130,0.892
35.135,1.037
35.140,-0.277
35.145,-0.464
35.150,0.371
35.155,-0.192
35.160,-0.738
35.165,0.106
35.170,0.101
35.175,-0.736
35.180,-0.203
35.185,0.317
35.190,-0.520
35.195,-0.500
35.200,0.346
35.205,-0.174
35.210,-0.675
35.215,0.178
35.220,0.177
35.225,-0.648
35.230,-0.109
35.235,0.409
35.240,-0.426
35.245,-0.400
35.250,0.443
35.255,-0.086
35.260,-0.583
35.265,0.268
35.270,0.254
35.275,-0.570
35.280,-0.025
35.285,0.482
35.290,-0.361
35.295,-0.332
35.300,0.504
35.305,-0.033
35.310,-0.528
35.315,0.326
35.320,0.305
35.325,-0.520
35.330,0.025
35.335,0.519
35.340,-0.330
35.345,-0.299
35.350,0.534
35.355,-0.008
35.360,-0.500
35.365,0.353
35.370,0.321
35.375,-0.507
35.380,0.045
35.385,0.537
35.390,-0.312
35.395,-0.270
35.400,0.557
35.405,-0.005
35.410,-0.503
35.415,0.346
35.420,0.299
35.425,-0.538
35.430,0.006
35.435,0.480
35.440,-0.381
35.445,-0.340
35.450,0.481
35.455,-0.081
35.460,-0.562
35.465,0.294
35.470,0.246
35.475,-0.578
35.480,-0.017
35.485,0.464
35.490,-0.389
35.495,-0.335
35.500,0.490
35.505,-0.069
35.510,-0.541
35.515,0.322
35.520,0.269
35.525,-0.551
35.530,0.019
35.535,0.495
35.540,-0.360
35.545,-0.297
35.550,0.526
35.555,-0.039
35.560,-0.504
35.565,0.357
35.570,0.296
35.575,-0.523
35.580,0.051
35.585,0.521
35.590,-0.331
35.595,-0.257
35.600,0.562
35.605,-0.010
35.610,-0.471
35.615,0.388
35.620,0.319
35.625,-0.493
35.630,0.085
35.635,0.547
35.640,-0.303
35.645,-0.222
35.650,0.591
35.655,0.014
35.660,-0.447
35.665,0.397
35.670,0.296
35.675,-0.538
35.680,0.030
35.685,0.477
35.690,-0.385
35.695,-0.303
35.700,0.511
35.705,-0.069
35.710,-0.514
35.715,0.352
35.720,0.269
35.725,-0.539
35.730,0.049
35.735,0.493
35.740,-0.381
35.745,-0.329
35.750,0.428
35.755,-0.140
35.760,-0.420
35.765,0.702
35.770,0.898
35.775,0.334
35.780,1.037
35.785,1.392
35.790,0.142
35.795,-0.228
35.800,0.406
35.805,-0.202
35.810,-0.691
35.815,0.141
35.820,0.041
35.825,-0.763
35.830,-0.164
35.835,0.275
35.840,-0.585
35.845,-0.473
35.850,0.341
35.855,-0.248
35.860,-0.667
35.865,0.211
35.870,0.113
35.875,-0.679
35.880,-0.066
35.885,0.373
35.890,-0.482
35.895,-0.360
35.900,0.448
35.905,-0.151
35.910,-0.569
35.915,0.307
35.920,0.201
35.925,-0.589
35.930,0.027
35.935,0.456
35.940,-0.407
35.945,-0.284
35.950,0.516
35.955,-0.091
35.960,-0.505
35.965,0.371
35.970,0.255
35.975,-0.536
35.980,0.082
35.985,0.500
35.990,-0.369
35.995,-0.243
36.000,0.553
36.005,-0.065
36.010,-0.477
36.015,0.396
36.020,0.267
36.025,-0.524
36.030,0.097
36.035,0.507
36.040,-0.362
36.045,-0.226
36.050,0.564
36.055,-0.058
36.060,-0.465
36.065,0.403
36.070,0.257
36.075,-0.538
36.080,0.080
36.085,0.473
36.090,-0.406
36.095,-0.271
36.100,0.509
36.105,-0.121
36.110,-0.520
36.115,0.350
36.120,0.205
36.125,-0.579
36.130,0.050
36.135,0.445
36.140,-0.429
36.145,-0.282
36.150,0.503
36.155,-0.127
36.160,-0.517
36.165,0.358
36.170,0.210
36.175,-0.568
36.180,0.069
36.185,0.458
36.190,-0.415
36.195,-0.256
36.200,0.527
36.205,-0.109
36.210,-0.490
36.215,0.389
36.220,0.231
36.225,-0.546
36.230,0.095
36.235,0.479
36.240,-0.393
36.245,-0.226
36.250,0.557
36.255,-0.082
36.260,-0.458
36.265,0.425
36.270,0.262
36.275,-0.513
36.280,0.135
36.285,0.509
36.290,-0.369
36.295,-0.191
36.300,0.596
36.305,-0.047
36.310,-0.419
36.315,0.462
36.320,0.285
36.325,-0.505
36.330,0.120
36.335,0.467
36.340,-0.423
36.345,-0.248
36.350,0.526
36.355,-0.122
36.360,-0.483
36.365,0.400
36.370,0.222
36.375,-0.546
36.380,0.111
36.385,0.474
36.390,-0.405
36.395,-0.223
36.400,0.529
36.405,-0.173
36.410,-0.577
36.415,0.356
36.420,0.361
36.425,-0.133
36.430,0.820
36.435,1.403
36.440,0.609
36.445,0.669
36.450,1.008
36.455,-0.087
36.460,-0.571
36.465,0.276
36.470,0.011
36.475,-0.778
36.480,-0.117
36.485,0.226
36.490,-0.653
36.495,-0.447
36.500,0.320
36.505,-0.341
36.510,-0.675
36.515,0.217
36.520,0.025
36.525,-0.722
36.530,-0.040
36.535,0.312
36.540,-0.559
36.545,-0.343
36.550,0.421
36.555,-0.243
36.560,-0.571
36.565,0.321
36.570,0.122
36.575,-0.623
36.580,0.062
36.585,0.405
36.590,-0.471
36.595,-0.250
36.600,0.508
36.605,-0.163
36.610,-0.486
36.615,0.399
36.620,0.188
36.625,-0.555
36.630,0.129
36.635,0.458
36.640,-0.425
36.645,-0.204
36.650,0.546
36.655,-0.132
36.660,-0.453
36.665,0.430
36.670,0.210
36.675,-0.534
36.680,0.148
36.685,0.471
36.690,-0.408
36.695,-0.182
36.700,0.564
36.705,-0.117
36.710,-0.432
36.715,0.450
36.720,0.220
36.725,-0.523
36.730,0.158
36.735,0.461
36.740,-0.430
36.745,-0.203
36.750,0.527
36.755,-0.170
36.760,-0.485
36.765,0.392
36.770,0.150
36.775,-0.588
36.780,0.105
36.785,0.410
36.790,-0.475
36.795,-0.234
36.800,0.498
36.805,-0.197
36.810,-0.495
36.815,0.391
36.820,0.147
36.825,-0.584
36.830,0.115
36.835,0.418
36.840,-0.463
36.845,-0.212
36.850,0.520
36.855,-0.179
36.860,-0.473
36.865,0.413
36.870,0.166
36.875,-0.557
36.880,0.147
36.885,0.440
36.890,-0.439
36.895,-0.178
36.900,0.553
36.905,-0.142
36.910,-0.425
36.915,0.461
36.920,0.208
36.925,-0.514
36.930,0.194
36.935,0.483
36.940,-0.398
36.945,-0.133
36.950,0.597
36.955,-0.097
36.960,-0.369
36.965,0.511
36.970,0.242
36.975,-0.481
36.980,0.212
36.985,0.465
36.990,-0.440
36.995,-0.185
37.000,0.527
37.005,-0.185
37.010,-0.457
37.015,0.429
37.020,0.159
37.025,-0.555
37.030,0.164
37.035,0.437
37.040,-0.444
37.045,-0.164
37.050,0.545
37.055,-0.182
37.060,-0.487
37.065,0.339
37.070,0.079
37.075,-0.460
37.080,0.527
37.085,1.084
37.090,0.458
37.095,0.860
37.100,1.485
37.105,0.380
37.110,-0.359
37.115,0.336
37.120,0.028
37.125,-0.739
37.130,-0.059
37.135,0.188
37.140,-0.692
37.145,-0.398
37.150,0.308
37.155,-0.406
37.160,-0.647
37.165,0.245
37.170,-0.040
37.175,-0.731
37.180,0.011
37.185,0.274
37.190,-0.601
37.195,-0.295
37.200,0.416
37.205,-0.304
37.210,-0.541
37.215,0.353
37.220,0.063
37.225,-0.624
37.230,0.120
37.235,0.371
37.240,-0.506
37.245,-0.193
37.250,0.509
37.255,-0.215
37.260,-0.446
37.265,0.440
37.270,0.137
37.275,-0.548
37.280,0.190
37.285,0.424
37.290,-0.455
37.295,-0.134
37.300,0.556
37.305,-0.183
37.310,-0.409
37.315,0.477
37.320,0.163
37.325,-0.521
37.330,0.221
37.335,0.448
37.340,-0.432
37.345,-0.111
37.350,0.573
37.355,-0.166
37.360,-0.390
37.365,0.492
37.370,0.170
37.375,-0.517
37.380,0.223
37.385,0.437
37.390,-0.454
37.395,-0.136
37.400,0.533
37.405,-0.221
37.410,-0.446
37.415,0.425
37.420,0.088
37.425,-0.590
37.430,0.161
37.435,0.370
37.440,-0.514
37.445,-0.179
37.450,0.498
37.455,-0.251
37.460,-0.459
37.465,0.423
37.470,0.090
37.475,-0.581
37.480,0.174
37.485,0.382
37.490,-0.493
37.495,-0.150
37.500,0.520
37.505,-0.230
37.510,-0.427
37.515,0.454
37.520,0.110
37.525,-0.556
37.530,0.208
37.535,0.410
37.540,-0.468
37.545,-0.113
37.550,0.559
37.555,-0.200
37.560,-0.393
37.565,0.491
37.570,0.145
37.575,-0.511
37.580,0.251
37.585,0.439
37.590,-0.436
37.595,-0.075
37.600,0.595
37.605,-0.162
37.610,-0.352
37.615,0.527
37.620,0.166
37.625,-0.508
37.630,0.233
37.635,0.397
37.640,-0.496
37.645,-0.142
37.650,0.519
37.655,-0.245
37.660,-0.426
37.665,0.456
37.670,0.096
37.675,-0.555
37.680,0.221
37.685,0.400
37.690,-0.483
37.695,-0.119
37.700,0.523
37.705,-0.283
37.710,-0.501
37.715,0.416
37.720,0.220
37.725,-0.167
37.730,0.897
37.735,1.304
37.740,0.522
37.745,0.757
37.750,0.959
37.755,-0.260
37.760,-0.553
37.765,0.314
37.770,-0.109
37.775,-0.764
37.780,0.014
37.785,0.173
37.790,-0.698
37.795,-0.308
37.800,0.338
37.805,-0.434
37.810,-0.583
37.815,0.305
37.820,-0.066
37.825,-0.692
37.830,0.098
37.835,0.259
37.840,-0.606
37.845,-0.209
37.850,0.431
37.855,-0.340
37.860,-0.478
37.865,0.404
37.870,0.019
37.875,-0.608
37.880,0.181
37.885,0.338
37.890,-0.528
37.895,-0.128
37.900,0.506
37.905,-0.274
37.910,-0.415
37.915,0.463
37.920,0.074
37.925,-0.548
37.930,0.240
37.935,0.381
37.940,-0.491
37.945,-0.087
37.950,0.541
37.955,-0.246
37.960,-0.379
37.965,0.498
37.970,0.094
37.975,-0.524
37.980,0.270
37.985,0.405
37.990,-0.466
37.995,-0.057
38.000,0.567
38.005,-0.222
38.010,-0.354
38.015,0.513
38.020,0.100
38.025,-0.523
38.030,0.262
38.035,0.377
38.040,-0.506
38.045,-0.100
38.050,0.505
38.055,-0.298
38.060,-0.424
38.065,0.442
38.070,0.023
38.075,-0.586
38.080,0.214
38.085,0.334
38.090,-0.534
38.095,-0.111
38.100,0.499
38.105,-0.297
38.110,-0.406
38.115,0.465
38.120,0.043
38.125,-0.561
38.130,0.240
38.135,0.355
38.140,-0.509
38.145,-0.082
38.150,0.525
38.155,-0.271
38.160,-0.375
38.165,0.494
38.170,0.063
38.175,-0.533
38.180,0.276
38.185,0.383
38.190,-0.477
38.195,-0.039
38.200,0.559
38.205,-0.243
38.210,-0.342
38.215,0.522
38.220,0.085
38.225,-0.506
38.230,0.303
38.235,0.405
38.240,-0.449
38.245,-0.005
38.250,0.586
38.255,-0.218
38.260,-0.318
38.265,0.525
38.270,0.059
38.275,-0.550
38.280,0.245
38.285,0.335
38.290,-0.524
38.295,-0.077
38.300,0.513
38.305,-0.295
38.310,-0.379
38.315,0.489
38.320,0.046
38.325,-0.539
38.330,0.269
38.335,0.344
38.340,-0.537
38.345,-0.131
38.350,0.432
38.355,-0.276
38.360,-0.132
38.365,1.000
38.370,0.806
38.375,0.387
38.380,1.191
38.385,0.991
38.390,-0.340
38.395,-0.164
38.400,0.387
38.405,-0.452
38.410,-0.562
38.415,0.293
38.420,-0.168
38.425,-0.741
38.430,0.082
38.435,0.159
38.440,-0.692
38.445,-0.221
38.450,0.359
38.455,-0.448
38.460,-0.502
38.465,0.363
38.470,-0.093
38.475,-0.649
38.480,0.180
38.485,0.249
38.490,-0.601
38.495,-0.124
38.500,0.446
38.505,-0.367
38.510,-0.416
38.515,0.446
38.520,-0.021
38.525,-0.576
38.530,0.251
38.535,0.310
38.540,-0.538
38.545,-0.057
38.550,0.507
38.555,-0.312
38.560,-0.360
38.565,0.497
38.570,0.023
38.575,-0.531
38.580,0.294
38.585,0.343
38.590,-0.505
38.595,-0.021
38.600,0.533
38.605,-0.291
38.610,-0.332
38.615,0.522
38.620,0.040
38.625,-0.509
38.630,0.321
38.635,0.366
38.640,-0.482
38.645,0.005
38.650,0.554
38.655,-0.278
38.660,-0.318
38.665,0.526
38.670,0.027
38.675,-0.526
38.680,0.296
38.685,0.318
38.690,-0.540
38.695,-0.050
38.700,0.493
38.705,-0.341
38.710,-0.374
38.715,0.473
38.720,-0.023
38.725,-0.565
38.730,0.265
38.735,0.291
38.740,-0.555
38.745,-0.054
38.750,0.486
38.755,-0.344
38.760,-0.362
38.765,0.487
38.770,-0.014
38.775,-0.548
38.780,0.291
38.785,0.313
38.790,-0.532
38.795,-0.025
38.800,0.510
38.805,-0.323
38.810,-0.336
38.815,0.512
38.820,0.013
38.825,-0.507
38.830,0.334
38.835,0.346
38.840,-0.496
38.845,0.018
38.850,0.546
38.855,-0.291
38.860,-0.303
38.865,0.540
38.870,0.032
38.875,-0.481
38.880,0.371
38.885,0.381
38.890,-0.462
38.895,0.054
38.900,0.564
38.905,-0.300
38.910,-0.327
38.915,0.497
38.920,-0.029
38.925,-0.544
38.930,0.302
38.935,0.303
38.940,-0.535
38.945,-0.009
38.950,0.510
38.955,-0.327
38.960,-0.319
38.965,0.520
38.970,-0.006
38.975,-0.524
38.980,0.290
38.985,0.228
38.990,-0.613
38.995,0.045
39.000,0.798
39.005,0.245
39.010,0.524
39.015,1.511
39.020,0.962
39.025,0.152
39.030,0.515
39.035,0.239
39.040,-0.632
39.045,-0.154
39.050,0.297
39.055,-0.559
39.060,-0.543
39.065,0.292
39.070,-0.239
39.075,-0.737
39.080,0.119
39.085,0.109
39.090,-0.714
39.095,-0.167
39.100,0.343
39.105,-0.493
39.110,-0.457
39.115,0.385
39.120,-0.148
39.125,-0.637
39.130,0.221
39.135,0.204
39.140,-0.618
39.145,-0.066
39.150,0.436
39.155,-0.407
39.160,-0.367
39.165,0.471
39.170,-0.066
39.175,-0.551
39.180,0.306
39.185,0.276
39.190,-0.547
39.195,0.007
39.200,0.500
39.205,-0.346
39.210,-0.302
39.215,0.529
39.220,-0.019
39.225,-0.501
39.230,0.354
39.235,0.315
39.240,-0.508
39.245,0.047
39.250,0.530
39.255,-0.323
39.260,-0.275
39.265,0.554
39.270,0.000
39.275,-0.478
39.280,0.379
39.285,0.333
39.290,-0.490
39.295,0.065
39.300,0.536
39.305,-0.326
39.310,-0.281
39.315,0.534
39.320,-0.036
39.325,-0.519
39.330,0.330
39.335,0.268
39.340,-0.560
39.345,0.000
39.350,0.469
39.355,-0.388
39.360,-0.331
39.365,0.490
39.370,-0.077
39.375,-0.548
39.380,0.309
39.385,0.250
39.390,-0.564
39.395,0.008
39.400,0.476
39.405,-0.381
39.410,-0.313
39.415,0.505
39.420,-0.065
39.425,-0.523
39.430,0.338
39.435,0.271
39.440,-0.542
39.445,0.037
39.450,0.502
39.455,-0.356
39.460,-0.278
39.465,0.545
39.470,-0.028
39.475,-0.482
39.480,0.383
39.485,0.310
39.490,-0.504
39.495,0.080
39.500,0.535
39.505,-0.332
39.510,-0.250
39.515,0.573
39.520,0.001
39.525,-0.447
39.530,0.414
39.535,0.332
39.540,-0.486
39.545,0.076
39.550,0.499
39.555,-0.384
39.560,-0.310
39.565,0.500
39.570,-0.086
39.575,-0.528
39.580,0.341
39.585,0.254
39.590,-0.553
39.595,0.042
39.600,0.487
39.605,-0.380
39.610,-0.287
39.615,0.522
39.620,-0.089
39.625,-0.580
39.630,0.248
39.635,0.231
39.640,-0.365
39.645,0.504
39.650,1.230
39.655,0.572
39.660,0.722
39.665,1.351
39.670,0.312
39.675,-0.507
39.680,0.271
39.685,0.127
39.690,-0.746
39.695,-0.164
39.700,0.259
39.705,-0.612
39.710,-0.501
39.715,0.307
39.720,-0.288
39.725,-0.704
39.730,0.175
39.735,0.074
39.740,-0.716
39.745,-0.099
39.750,0.336
39.755,-0.524
39.760,-0.400
39.765,0.408
39.770,-0.191
39.775,-0.599
39.780,0.281
39.785,0.169
39.790,-0.621
39.795,-0.002
39.800,0.424
39.805,-0.437
39.810,-0.306
39.815,0.495
39.820,-0.112
39.825,-0.521
39.830,0.357
39.835,0.237
39.840,-0.553
39.845,0.070
39.850,0.486
39.855,-0.384
39.860,-0.254
39.865,0.541
39.870,-0.076
39.875,-0.482
39.880,0.394
39.885,0.263
39.890,-0.526
39.895,0.098
39.900,0.503
39.905,-0.370
39.910,-0.235
39.915,0.554
39.920,-0.068
39.925,-0.465
39.930,0.411
39.935,0.270
39.940,-0.520
39.945,0.102
39.950,0.494
39.955,-0.389
39.960,-0.255
39.965,0.524
39.970,-0.114
39.975,-0.516
39.980,0.357
39.985,0.209
39.990,-0.577
39.995,0.054
40.000,0.445
40.005,-0.431
40.010,-0.279
40.015,0.503
40.020,-0.134
40.025,-0.521
40.030,0.358
40.035,0.208
40.040,-0.570
40.045,0.072
40.050,0.461
40.055,-0.416
40.060,-0.257
40.065,0.525
40.070,-0.113
40.075,-0.492
40.080,0.388
40.085,0.226
40.090,-0.549
40.095,0.097
40.100,0.479
40.105,-0.390
40.110,-0.216
40.115,0.562
40.120,-0.081
40.125,-0.449
40.130,0.429
40.135,0.260
40.140,-0.505
40.145,0.144
40.150,0.509
40.155,-0.363
40.160,-0.174
40.165,0.608
40.170,-0.045
40.175,-0.417
40.180,0.462
40.185,0.276
40.190,-0.518
40.195,0.108
40.200,0.452
40.205,-0.436
40.210,-0.252
40.215,0.520
40.220,-0.132
40.225,-0.487
40.230,0.393
40.235,0.208
40.240,-0.556
40.245,0.106
40.250,0.465
40.255,-0.415
40.260,-0.228
40.265,0.507
40.270,-0.212
40.275,-0.581
40.280,0.415
40.285,0.463
40.290,0.002
40.295,0.951
40.300,1.474
40.305,0.589
40.310,0.478
40.315,0.728
40.320,-0.222
40.325,-0.598
40.330,0.240
40.335,-0.008
40.340,-0.773
40.345,-0.106
40.350,0.238
40.355,-0.635
40.360,-0.425
40.365,0.336
40.370,-0.327
40.375,-0.654
40.380,0.238
40.385,0.043
40.390,-0.697
40.395,-0.012
40.400,0.334
40.405,-0.537
40.410,-0.317
40.415,0.441
40.420,-0.227
40.425,-0.551
40.430,0.338
40.435,0.133
40.440,-0.604
40.445,0.083
40.450,0.416
40.455,-0.460
40.460,-0.233
40.465,0.521
40.470,-0.154
40.475,-0.480
40.480,0.401
40.485,0.187
40.490,-0.550
40.495,0.135
40.500,0.459
40.505,-0.420
40.510,-0.195
40.515,0.549
40.520,-0.134
40.525,-0.449
40.530,0.435
40.535,0.210
40.540,-0.530
40.545,0.162
40.550,0.483
40.555,-0.396
40.560,-0.165
40.565,0.576
40.570,-0.107
40.575,-0.419
40.580,0.457
40.585,0.212
40.590,-0.534
40.595,0.151
40.600,0.450
40.605,-0.440
40.610,-0.205
40.615,0.522
40.620,-0.179
40.625,-0.487
40.630,0.388
40.635,0.140
40.640,-0.593
40.645,0.107
40.650,0.413
40.655,-0.468
40.660,-0.219
40.665,0.516
40.670,-0.182
40.675,-0.480
40.680,0.405
40.685,0.155
40.690,-0.573
40.695,0.131
40.700,0.429
40.705,-0.447
40.710,-0.191
40.715,0.536
40.720,-0.168
40.725,-0.457
40.730,0.433
40.735,0.174
40.740,-0.549
40.745,0.168
40.750,0.461
40.755,-0.420
40.760,-0.154
40.765,0.569
40.770,-0.144
40.775,-0.427
40.780,0.461
40.785,0.201
40.790,-0.515
40.795,0.193
40.800,0.479
40.805,-0.385
40.810,-0.112
40.815,0.601
40.820,-0.115
40.825,-0.404
40.830,0.458
40.835,0.163
40.840,-0.574
40.845,0.129
40.850,0.401
40.855,-0.478
40.860,-0.191
40.865,0.529
40.870,-0.189
40.875,-0.458
40.880,0.427
40.885,0.149
40.890,-0.562
40.895,0.158
40.900,0.424
40.905,-0.481
40.910,-0.251
40.915,0.444
40.920,-0.161
40.925,-0.185
40.930,0.986
40.935,0.972
40.940,0.428
40.945,1.131
40.950,1.078
40.955,-0.303
40.960,-0.287
40.965,0.403
40.970,-0.349
40.975,-0.646
40.980,0.231
40.985,-0.059
40.990,-0.757
40.995,-0.023
41.000,0.238
41.005,-0.638
41.010,-0.336
41.015,0.376
41.020,-0.342
41.025,-0.579
41.030,0.315
41.035,0.022
41.040,-0.669
41.045,0.071
41.050,0.325
41.055,-0.547
41.060,-0.232
41.065,0.474
41.070,-0.255
41.075,-0.493
41.080,0.394
41.085,0.095
41.090,-0.589
41.095,0.151
41.100,0.389
41.105,-0.488
41.110,-0.170
41.115,0.524
41.120,-0.210
41.125,-0.436
41.130,0.450
41.135,0.137
41.140,-0.549
41.145,0.194
41.150,0.428
41.155,-0.452
41.160,-0.135
41.165,0.554
41.170,-0.185
41.175,-0.408
41.180,0.476
41.185,0.158
41.190,-0.525
41.195,0.218
41.200,0.443
41.205,-0.437
41.210,-0.113
41.215,0.571
41.220,-0.176
41.225,-0.402
41.230,0.469
41.235,0.132
41.240,-0.554
41.245,0.186
41.250,0.391
41.255,-0.498
41.260,-0.170
41.265,0.502
41.270,-0.247
41.275,-0.459
41.280,0.419
41.285,0.086
41.290,-0.588
41.295,0.164
41.300,0.374
41.305,-0.504
41.310,-0.163
41.315,0.512
41.320,-0.234
41.325,-0.432
41.330,0.450
41.335,0.110
41.340,-0.558
41.345,0.198
41.350,0.402
41.355,-0.475
41.360,-0.130
41.365,0.536
41.370,-0.220
41.375,-0.415
41.380,0.468
41.385,0.130
41.390,-0.527
41.395,0.233
41.400,0.430
41.405,-0.446
41.410,-0.097
41.415,0.565
41.420,-0.196
41.425,-0.391
41.430,0.488
41.435,0.142
41.440,-0.506
41.445,0.265
41.450,0.456
41.455,-0.422
41.460,-0.070
41.465,0.572
41.470,-0.215
41.475,-0.420
41.480,0.445
41.485,0.080
41.490,-0.575
41.495,0.193
41.500,0.376
41.505,-0.498
41.510,-0.131
41.515,0.523
41.520,-0.243
41.525,-0.419
41.530,0.459
41.535,0.093
41.540,-0.570
41.545,0.156
41.550,0.284
41.555,-0.553
41.560,-0.009
41.565,0.900
41.570,0.416
41.575,0.475
41.580,1.439
41.585,0.947
41.590,-0.112
41.595,0.228
41.600,0.272
41.605,-0.618
41.610,-0.300
41.615,0.321
41.620,-0.454
41.625,-0.620
41.630,0.258
41.635,-0.113
41.640,-0.746
41.645,0.040
41.650,0.211
41.655,-0.654
41.660,-0.262
41.665,0.388
41.670,-0.379
41.675,-0.526
41.680,0.361
41.685,-0.012
41.690,-0.642
41.695,0.146
41.700,0.311
41.705,-0.555
41.710,-0.161
41.715,0.481
41.720,-0.295
41.725,-0.439
41.730,0.445
41.735,0.060
41.740,-0.568
41.745,0.219
41.750,0.370
41.755,-0.499
41.760,-0.100
41.765,0.534
41.770,-0.247
41.775,-0.388
41.780,0.488
41.785,0.092
41.790,-0.532
41.795,0.256
41.800,0.395
41.805,-0.477
41.810,-0.069
41.815,0.556
41.820,-0.236
41.825,-0.371
41.830,0.504
41.835,0.102
41.840,-0.518
41.845,0.274
41.850,0.408
41.855,-0.463
41.860,-0.058
41.865,0.555
41.870,-0.244
41.875,-0.379
41.880,0.485
41.885,0.066
41.890,-0.559
41.895,0.227
41.900,0.351
41.905,-0.521
41.910,-0.110
41.915,0.504
41.920,-0.291
41.925,-0.414
41.930,0.457
41.935,0.042
41.940,-0.570
41.945,0.226
41.950,0.347
41.955,-0.520
41.960,-0.099
41.965,0.513
41.970,-0.281
41.975,-0.393
41.980,0.478
41.985,0.056
41.990,-0.547
41.995,0.257
42.000,0.372
42.005,-0.496
42.010,-0.068
42.015,0.539
42.020,-0.256
42.025,-0.356
42.030,0.519
42.035,0.094
42.040,-0.505
42.045,0.298
42.050,0.402
42.055,-0.464
42.060,-0.035
42.065,0.560
42.070,-0.244
42.075,-0.336
42.080,0.546
42.085,0.117
42.090,-0.484
42.095,0.323
42.100,0.419
42.105,-0.467
42.110,-0.055
42.115,0.518
42.120,-0.303
42.125,-0.400
42.130,0.468
42.135,0.032
42.140,-0.555
42.145,0.256
42.150,0.349
42.155,-0.513
42.160,-0.067
42.165,0.523
42.170,-0.284
42.175,-0.371
42.180,0.475
42.185,-0.020
42.190,-0.639
42.195,0.248
42.200,0.535
42.205,-0.055
42.210,0.679
42.215,1.460
42.220,0.697
42.225,0.439
42.230,0.858
42.235,0.032
42.240,-0.632
42.245,0.141
42.250,0.149
42.255,-0.731
42.260,-0.278
42.265,0.295
42.270,-0.516
42.275,-0.581
42.280,0.288
42.285,-0.162
42.290,-0.725
42.295,0.103
42.300,0.182
42.305,-0.667
42.310,-0.193
42.315,0.387
42.320,-0.421
42.325,-0.475
42.330,0.392
42.335,-0.065
42.340,-0.622
42.345,0.204
42.350,0.270
42.355,-0.578
42.360,-0.101
42.365,0.470
42.370,-0.342
42.375,-0.390
42.380,0.472
42.385,0.006
42.390,-0.549
42.395,0.279
42.400,0.338
42.405,-0.514
42.410,-0.035
42.415,0.529
42.420,-0.290
42.425,-0.337
42.430,0.518
42.435,0.040
42.440,-0.512
42.445,0.314
42.450,0.359
42.455,-0.493
42.460,-0.010
42.465,0.543
42.470,-0.282
42.475,-0.323
42.480,0.533
42.485,0.052
42.490,-0.497
42.495,0.329
42.500,0.363
42.505,-0.495
42.510,-0.013
42.515,0.527
42.520,-0.309
42.525,-0.351
42.530,0.491
42.535,-0.006
42.540,-0.554
42.545,0.271
42.550,0.298
42.555,-0.552
42.560,-0.055
42.565,0.484
42.570,-0.348
42.575,-0.369
42.580,0.481
42.585,-0.020
42.590,-0.559
42.595,0.276
42.600,0.302
42.605,-0.543
42.610,-0.040
42.615,0.498
42.620,-0.333
42.625,-0.349
42.630,0.496
42.635,-0.007
42.640,-0.535
42.645,0.302
42.650,0.316
42.655,-0.524
42.660,-0.011
42.665,0.525
42.670,-0.303
42.675,-0.306
42.680,0.539
42.685,0.031
42.690,-0.492
42.695,0.346
42.700,0.353
42.705,-0.489
42.710,0.027
42.715,0.552
42.720,-0.275
42.725,-0.262
42.730,0.582
42.735,0.063
42.740,-0.456
42.745,0.372
42.750,0.347
42.755,-0.517
42.760,-0.015
42.765,0.491
42.770,-0.350
42.775,-0.339
42.780,0.506
42.785,-0.015
42.790,-0.527
42.795,0.321
42.800,0.313
42.805,-0.523
42.810,0.006
42.815,0.513
42.820,-0.339
42.825,-0.353
42.830,0.427
42.835,-0.111
42.840,-0.481
42.845,0.608
42.850,0.880
42.855,0.320
42.860,1.001
42.865,1.473
42.870,0.312
42.875,-0.158
42.880,0.428
42.885,-0.133
42.890,-0.689
42.895,0.107
42.900,0.074
42.905,-0.763
42.910,-0.224
42.915,0.279
42.920,-0.562
42.925,-0.525
42.930,0.317
42.935,-0.216
42.940,-0.700
42.945,0.162
42.950,0.142
42.955,-0.680
42.960,-0.120
42.965,0.385
42.970,-0.463
42.975,-0.421
42.980,0.420
42.985,-0.118
42.990,-0.593
42.995,0.269
43.000,0.233
43.005,-0.587
43.010,-0.030
43.015,0.459
43.020,-0.382
43.025,-0.332
43.030,0.497
43.035,-0.051
43.040,-0.526
43.045,0.333
43.050,0.288
43.055,-0.530
43.060,0.031
43.065,0.510
43.070,-0.341
43.075,-0.287
43.080,0.538
43.085,-0.022
43.090,-0.497
43.095,0.362
43.100,0.314
43.105,-0.500
43.110,0.063
43.115,0.535
43.120,-0.318
43.125,-0.259
43.130,0.563
43.135,-0.002
43.140,-0.477
43.145,0.375
43.150,0.306
43.155,-0.525
43.160,0.033
43.165,0.494
43.170,-0.371
43.175,-0.317
43.180,0.495
43.185,-0.078
43.190,-0.547
43.195,0.307
43.200,0.238
43.205,-0.578
43.210,0.000
43.215,0.464
43.220,-0.398
43.225,-0.320
43.230,0.499
43.235,-0.078
43.240,-0.530
43.245,0.332
43.250,0.257
43.255,-0.553
43.260,0.029
43.265,0.485
43.270,-0.374
43.275,-0.291
43.280,0.526
43.285,-0.058
43.290,-0.509
43.295,0.360
43.300,0.283
43.305,-0.519
43.310,0.073
43.315,0.520
43.320,-0.343
43.325,-0.249
43.330,0.563
43.335,-0.026
43.340,-0.471
43.345,0.389
43.350,0.301
43.355,-0.496
43.360,0.107
43.365,0.554
43.370,-0.315
43.375,-0.219
43.380,0.586
43.385,-0.024
43.390,-0.482
43.395,0.362
43.400,0.245
43.405,-0.567
43.410,0.036
43.415,0.481
43.420,-0.378
43.425,-0.276
43.430,0.529
43.435,-0.066
43.440,-0.498
43.445,0.371
43.450,0.268
43.455,-0.539
43.460,0.052
43.465,0.446
43.470,-0.467
43.475,-0.314
43.480,0.675
43.485,0.345
43.490,0.213
43.495,1.305
43.500,1.271
43.505,0.303
43.510,0.430
43.515,0.428
43.520,-0.528
43.525,-0.417
43.530,0.332
43.535,-0.295
43.540,-0.710
43.545,0.161
43.550,0.041
43.555,-0.745
43.560,-0.121
43.565,0.300
43.570,-0.564
43.575,-0.426
43.580,0.379
43.585,-0.228
43.590,-0.628
43.595,0.249
43.600,0.126
43.605,-0.656
43.610,-0.029
43.615,0.389
43.620,-0.466
43.625,-0.325
43.630,0.467
43.635,-0.144
43.640,-0.537
43.645,0.342
43.650,0.211
43.655,-0.572
43.660,0.056
43.665,0.464
43.670,-0.400
43.675,-0.257
43.680,0.530
43.685,-0.095
43.690,-0.489
43.695,0.386
43.700,0.247
43.705,-0.531
43.710,0.101
43.715,0.496
43.720,-0.377
43.725,-0.227
43.730,0.562
43.735,-0.067
43.740,-0.458
43.745,0.420
43.750,0.273
43.755,-0.509
43.760,0.127
43.765,0.519
43.770,-0.357
43.775,-0.204
43.780,0.567
43.785,-0.082
43.790,-0.474
43.795,0.391
43.800,0.220
43.805,-0.567
43.810,0.064
43.815,0.439
43.820,-0.438
43.825,-0.278
43.830,0.496
43.835,-0.143
43.840,-0.522
43.845,0.351
43.850,0.188
43.855,-0.585
43.860,0.058
43.865,0.436
43.870,-0.436
43.875,-0.265
43.880,0.513
43.885,-0.130
43.890,-0.505
43.895,0.371
43.900,0.201
43.905,-0.569
43.910,0.078
43.915,0.447
43.920,-0.426
43.925,-0.246
43.930,0.526
43.935,-0.122
43.940,-0.482
43.945,0.404
43.950,0.232
43.955,-0.529
43.960,0.131
43.965,0.494
43.970,-0.384
43.975,-0.202
43.980,0.563
43.985,-0.093
43.990,-0.451
43.995,0.436
44.000,0.263
44.005,-0.496
44.010,0.169
44.015,0.527
44.020,-0.362
44.025,-0.193
44.030,0.544
44.035,-0.134
44.040,-0.493
44.045,0.388
44.050,0.198
44.055,-0.559
44.060,0.108
44.065,0.458
44.070,-0.417
44.075,-0.218
44.080,0.538
44.085,-0.129
44.090,-0.474
44.095,0.399
44.100,0.171
44.105,-0.635
44.110,0.031
44.115,0.502
44.120,-0.143
44.125,0.335
44.130,1.341
44.135,0.811
44.140,0.426
44.145,0.969
44.150,0.295
44.155,-0.675
44.160,-0.016
44.165,0.285
44.170,-0.628
44.175,-0.421
44.180,0.331
44.185,-0.339
44.190,-0.665
44.195,0.221
44.200,0.015
44.205,-0.725
44.210,-0.038
44.215,0.300
44.220,-0.571
44.225,-0.342
44.230,0.412
44.235,-0.260
44.240,-0.576
44.245,0.313
44.250,0.098
44.255,-0.638
44.260,0.054
44.265,0.383
44.270,-0.492
44.275,-0.261
44.280,0.489
44.285,-0.189
44.290,-0.499
44.295,0.390
44.300,0.165
44.305,-0.571
44.310,0.120
44.315,0.440
44.320,-0.434
44.325,-0.199
44.330,0.541
44.335,-0.144
44.340,-0.450
44.345,0.435
44.350,0.201
44.355,-0.534
44.360,0.160
44.365,0.470
44.370,-0.412
44.375,-0.170
44.380,0.568
44.385,-0.123
44.390,-0.425
44.395,0.461
44.400,0.220
44.405,-0.512
44.410,0.183
44.415,0.479
44.420,-0.410
44.425,-0.173
44.430,0.549
44.435,-0.158
44.440,-0.465
44.445,0.408
44.450,0.153
44.455,-0.579
44.460,0.119
44.465,0.409
44.470,-0.476
44.475,-0.224
44.480,0.503
44.485,-0.199
44.490,-0.491
44.495,0.391
44.500,0.138
44.505,-0.585
44.510,0.122
44.515,0.414
44.520,-0.467
44.525,-0.208
44.530,0.515
44.535,-0.188
44.540,-0.469
44.545,0.415
44.550,0.154
44.555,-0.563
44.560,0.149
44.565,0.431
44.570,-0.451
44.575,-0.177
44.580,0.549
44.585,-0.157
44.590,-0.430
44.595,0.456
44.600,0.189
44.605,-0.522
44.610,0.195
44.615,0.468
44.620,-0.422
44.625,-0.149
44.630,0.575
44.635,-0.128
44.640,-0.392
44.645,0.491
44.650,0.216
44.655,-0.498
44.660,0.201
44.665,0.443
44.670,-0.459
44.675,-0.190
44.680,0.516
44.685,-0.197
44.690,-0.455
44.695,0.430
44.700,0.147
44.705,-0.559
44.710,0.165
44.715,0.430
44.720,-0.449
44.725,-0.160
44.730,0.546
44.735,-0.191
44.740,-0.495
44.745,0.344
44.750,0.122
44.755,-0.375
44.760,0.626
44.765,1.168
44.770,0.497
44.775,0.841
44.780,1.370
44.785,0.208
44.790,-0.430
44.795,0.356
44.800,0.021
44.805,-0.744
44.810,-0.036
44.815,0.203
44.820,-0.680
44.825,-0.374
44.830,0.326
44.835,-0.397
44.840,-0.627
44.845,0.263
44.850,-0.033
44.855,-0.715
44.860,0.028
44.865,0.277
44.870,-0.592
44.875,-0.273
44.880,0.424
44.885,-0.304
44.890,-0.527
44.895,0.364
44.900,0.058
44.905,-0.621
44.910,0.127
44.915,0.363
44.920,-0.513
44.925,-0.190
44.930,0.501
44.935,-0.231
44.940,-0.449
44.945,0.437
44.950,0.123
44.955,-0.555
44.960,0.192
44.965,0.418
44.970,-0.460
44.975,-0.132
44.980,0.552
44.985,-0.191
44.990,-0.408
44.995,0.475
45.000,0.149
45.005,-0.528
45.010,0.221
45.015,0.436
45.020,-0.445
45.025,-0.115
45.030,0.562
45.035,-0.183
45.040,-0.392
45.045,0.489
45.050,0.153
45.055,-0.526
45.060,0.217
45.065,0.415
45.070,-0.471
45.075,-0.139
45.080,0.524
45.085,-0.235
45.090,-0.444
45.095,0.433
45.100,0.088
45.105,-0.585
45.110,0.170
45.115,0.373
45.120,-0.509
45.125,-0.166
45.130,0.500
45.135,-0.257
45.140,-0.454
45.145,0.426
45.150,0.079
45.155,-0.586
45.160,0.173
45.165,0.372
45.170,-0.502
