'Elapsed time','ECG'
'seconds','mV'
0.000,0.003
0.005,0.015
0.010,-0.032
0.015,-0.055
0.020,0.000
0.025,-0.036
0.030,-0.097
0.035,-0.044
0.040,-0.035
0.045,-0.102
0.050,-0.078
0.055,-0.049
0.060,-0.122
0.065,-0.135
0.070,-0.070
0.075,-0.112
0.080,-0.182
0.085,-0.137
0.090,-0.131
0.095,-0.201
0.100,-0.174
0.105,-0.129
0.110,-0.189
0.115,-0.197
0.120,-0.127
0.125,-0.147
0.130,-0.182
0.135,-0.120
0.140,-0.108
0.145,-0.163
0.150,-0.112
0.155,-0.031
0.160,-0.053
0.165,-0.031
0.170,0.066
0.175,0.067
0.180,0.047
0.185,0.130
0.190,0.160
0.195,0.106
0.200,0.144
0.205,0.199
0.210,0.144
0.215,0.127
0.220,0.184
0.225,0.152
0.230,0.102
0.235,0.157
0.240,0.162
0.245,0.087
0.250,0.106
0.255,0.150
0.260,0.090
0.265,0.078
0.270,0.142
0.275,0.109
0.280,0.060
0.285,0.113
0.290,0.115
0.295,0.046
0.300,0.070
0.305,0.111
0.310,0.053
0.315,0.039
0.320,0.103
0.325,0.075
0.330,0.024
0.335,0.078
0.340,0.089
0.345,0.022
0.350,0.048
0.355,0.092
0.360,0.028
0.365,0.011
0.370,0.075
0.375,0.046
0.380,-0.003
0.385,0.054
0.390,0.064
0.395,-0.012
0.400,0.006
0.405,0.052
0.410,-0.005
0.415,-0.016
0.420,0.049
0.425,0.022
0.430,-0.029
0.435,0.022
0.440,0.034
0.445,-0.030
0.450,-0.009
0.455,0.031
0.460,-0.033
0.465,-0.049
0.470,0.014
0.475,-0.015
0.480,-0.062
0.485,-0.004
0.490,0.007
0.495,-0.062
0.500,-0.042
0.505,-0.007
0.510,-0.082
0.515,-0.112
0.520,-0.059
0.525,-0.088
0.530,-0.125
0.535,-0.059
0.540,-0.039
0.545,-0.097
0.550,-0.083
0.555,-0.064
0.560,-0.116
0.565,-0.090
0.570,-0.003
0.575,-0.028
0.580,-0.068
0.585,-0.015
0.590,-0.009
0.595,-0.062
0.600,-0.018
0.605,0.045
0.610,-0.003
0.615,-0.008
0.620,0.058
0.625,0.026
0.630,-0.026
0.635,0.026
0.640,0.037
0.645,-0.031
0.650,-0.008
0.655,0.036
0.660,-0.022
0.665,-0.019
0.670,0.089
0.675,0.072
0.680,-0.034
0.685,-0.069
0.690,-0.230
0.695,-0.609
0.700,-0.912
0.705,-0.965
0.710,-0.887
0.715,-0.718
0.720,-0.408
0.725,-0.039
0.730,0.251
0.735,0.409
0.740,0.433
0.745,0.331
0.750,0.268
0.755,0.253
0.760,0.144
0.765,0.094
0.770,0.155
0.775,0.127
0.780,0.071
0.785,0.121
0.790,0.126
0.795,0.051
0.800,0.070
0.805,0.112
0.810,0.047
0.815,0.026
0.820,0.084
0.825,0.051
0.830,-0.004
0.835,0.042
0.840,0.045
0.845,-0.030
0.850,-0.018
0.855,0.019
0.860,-0.050
0.865,-0.079
0.870,-0.026
0.875,-0.067
0.880,-0.132
0.885,-0.084
0.890,-0.072
0.895,-0.140
0.900,-0.115
0.905,-0.061
0.910,-0.111
0.915,-0.120
0.920,-0.047
0.925,-0.066
0.930,-0.110
0.935,-0.042
0.940,-0.009
0.945,-0.051
0.950,0.007
0.955,0.087
0.960,0.058
0.965,0.073
0.970,0.162
0.975,0.157
0.980,0.124
0.985,0.193
0.990,0.218
0.995,0.155
1.000,0.179
1.005,0.225
1.010,0.165
1.015,0.147
1.020,0.209
1.025,0.179
1.030,0.120
1.035,0.166
1.040,0.174
1.045,0.100
1.050,0.117
1.055,0.162
1.060,0.101
1.065,0.078
1.070,0.136
1.075,0.103
1.080,0.046
1.085,0.096
1.090,0.104
1.095,0.036
1.100,0.062
1.105,0.109
1.110,0.044
1.115,0.025
1.120,0.090
1.125,0.064
1.130,0.010
1.135,0.063
1.140,0.079
1.145,0.013
1.150,0.033
1.155,0.078
1.160,0.018
1.165,-0.004
1.170,0.054
1.175,0.025
1.180,-0.028
1.185,0.024
1.190,0.041
1.195,-0.022
1.200,-0.001
1.205,0.044
1.210,-0.016
1.215,-0.034
1.220,0.032
1.225,0.003
1.230,-0.051
1.235,0.004
1.240,0.018
1.245,-0.051
1.250,-0.029
1.255,0.022
1.260,-0.034
1.265,-0.053
1.270,0.011
1.275,-0.016
1.280,-0.071
1.285,-0.015
1.290,0.002
1.295,-0.068
1.300,-0.047
1.305,0.007
1.310,-0.048
1.315,-0.067
1.320,-0.002
1.325,-0.032
1.330,-0.097
1.335,-0.058
1.340,-0.062
1.345,-0.146
1.350,-0.124
1.355,-0.058
1.360,-0.102
1.365,-0.110
1.370,-0.029
1.375,-0.055
1.380,-0.138
1.385,-0.087
1.390,-0.029
1.395,-0.066
1.400,-0.036
1.405,0.023
1.410,-0.036
1.415,-0.063
1.420,0.010
1.425,0.002
1.430,-0.040
1.435,0.022
1.440,0.048
1.445,-0.016
1.450,0.006
1.455,0.060
1.460,0.004
1.465,-0.018
1.470,0.042
1.475,0.012
1.480,-0.040
1.485,0.019
1.490,0.059
1.495,0.033
1.500,0.050
1.505,0.033
1.510,-0.123
1.515,-0.336
1.520,-0.601
1.525,-0.931
1.530,-1.046
1.535,-0.853
1.540,-0.655
1.545,-0.430
1.550,0.040
1.555,0.400
1.560,0.376
1.565,0.323
1.570,0.341
1.575,0.243
1.580,0.135
1.585,0.159
1.590,0.168
1.595,0.101
1.600,0.120
1.605,0.161
1.610,0.095
1.615,0.071
1.620,0.131
1.625,0.100
1.630,0.042
1.635,0.091
1.640,0.100
1.645,0.022
1.650,0.034
1.655,0.079
1.660,0.013
1.665,-0.021
1.670,0.031
1.675,-0.002
1.680,-0.067
1.685,-0.028
1.690,-0.022
1.695,-0.099
1.700,-0.090
1.705,-0.053
1.710,-0.117
1.715,-0.141
1.720,-0.080
1.725,-0.102
1.730,-0.152
1.735,-0.095
1.740,-0.070
1.745,-0.130
1.750,-0.105
1.755,-0.045
1.760,-0.087
1.765,-0.089
1.770,0.001
1.775,0.011
1.780,-0.009
1.785,0.076
1.790,0.127
1.795,0.087
1.800,0.128
1.805,0.198
1.810,0.156
1.815,0.143
1.820,0.211
1.825,0.192
1.830,0.138
1.835,0.188
1.840,0.204
1.845,0.132
1.850,0.145
1.855,0.193
1.860,0.133
1.865,0.106
1.870,0.165
1.875,0.133
1.880,0.070
1.885,0.121
1.890,0.139
1.895,0.067
1.900,0.082
1.905,0.133
1.910,0.074
1.915,0.044
1.920,0.106
1.925,0.082
1.930,0.026
1.935,0.077
1.940,0.095
1.945,0.027
1.950,0.047
1.955,0.097
1.960,0.037
1.965,0.013
1.970,0.078
1.975,0.057
1.980,-0.003
1.985,0.047
1.990,0.066
1.995,-0.005
2.000,0.012
2.005,0.064
2.010,0.009
2.015,-0.018
2.020,0.034
2.025,-0.003
2.030,-0.079
2.035,-0.052
2.040,-0.039
2.045,-0.097
2.050,-0.068
2.055,-0.008
2.060,-0.051
2.065,-0.069
2.070,-0.028
2.075,-0.063
2.080,-0.086
2.085,0.005
2.090,0.036
2.095,-0.028
2.100,-0.010
2.105,0.033
2.110,-0.021
2.115,-0.036
2.120,0.036
2.125,0.026
2.130,-0.020
2.135,0.039
2.140,0.061
2.145,-0.006
2.150,0.008
2.155,0.055
2.160,0.000
2.165,-0.022
2.170,0.039
2.175,0.011
2.180,-0.045
2.185,0.034
2.190,0.098
2.195,0.022
2.200,-0.031
2.205,-0.083
2.210,-0.350
2.215,-0.726
2.220,-0.953
2.225,-0.979
2.230,-0.858
2.235,-0.612
2.240,-0.258
2.245,0.124
2.250,0.366
2.255,0.381
2.260,0.267
2.265,0.196
2.270,0.202
2.275,0.140
2.280,0.070
2.285,0.126
2.290,0.150
2.295,0.079
2.300,0.086
2.305,0.128
2.310,0.065
2.315,0.038
2.320,0.099
2.325,0.071
2.330,0.003
2.335,0.044
2.340,0.061
2.345,-0.005
2.350,0.010
2.355,0.053
2.360,-0.017
2.365,-0.058
2.370,-0.009
2.375,-0.039
2.380,-0.105
2.385,-0.063
2.390,-0.044
2.395,-0.122
2.400,-0.124
2.405,-0.080
2.410,-0.134
2.415,-0.157
2.420,-0.090
2.425,-0.103
2.430,-0.154
2.435,-0.103
2.440,-0.074
2.445,-0.129
2.450,-0.110
2.455,-0.041
2.460,-0.063
2.465,-0.059
2.470,0.041
2.475,0.061
2.480,0.043
2.485,0.129
2.490,0.176
2.495,0.127
2.500,0.157
2.505,0.216
2.510,0.160
2.515,0.132
2.520,0.199
2.525,0.181
2.530,0.125
2.535,0.180
2.540,0.202
2.545,0.121
2.550,0.123
2.555,0.172
2.560,0.112
2.565,0.075
2.570,0.131
2.575,0.113
2.580,0.059
2.585,0.109
2.590,0.132
2.595,0.061
2.600,0.077
2.605,0.132
2.610,0.075
2.615,0.040
2.620,0.092
2.625,0.068
2.630,0.007
2.635,0.053
2.640,0.081
2.645,0.016
2.650,0.026
2.655,0.080
2.660,0.034
2.665,0.007
2.670,0.060
2.675,0.039
2.680,-0.013
2.685,0.039
2.690,0.061
2.695,-0.011
2.700,-0.006
2.705,0.048
2.710,0.008
2.715,-0.013
2.720,0.037
2.725,0.011
2.730,-0.046
2.735,0.004
2.740,0.035
2.745,-0.030
2.750,-0.024
2.755,0.027
2.760,-0.027
2.765,-0.062
2.770,-0.007
2.775,-0.023
2.780,-0.064
2.785,-0.004
2.790,0.016
2.795,-0.049
2.800,-0.032
2.805,0.012
2.810,-0.046
2.815,-0.067
2.820,0.000
2.825,-0.031
2.830,-0.098
2.835,-0.034
2.840,0.005
2.845,-0.060
2.850,-0.047
2.855,0.009
2.860,-0.046
2.865,-0.083
2.870,-0.028
2.875,-0.060
2.880,-0.148
2.885,-0.116
2.890,-0.082
2.895,-0.134
2.900,-0.112
2.905,-0.048
2.910,-0.083
2.915,-0.102
2.920,-0.057
2.925,-0.076
2.930,-0.105
2.935,-0.043
2.940,-0.024
2.945,-0.086
2.950,-0.064
2.955,0.005
2.960,-0.017
2.965,-0.024
2.970,0.048
2.975,0.039
2.980,-0.021
2.985,0.018
2.990,0.044
2.995,-0.016
3.000,-0.005
3.005,0.063
3.010,0.028
3.015,-0.010
3.020,0.043
3.025,0.027
3.030,-0.019
3.035,0.072
3.040,0.098
3.045,-0.051
3.050,-0.153
3.055,-0.291
3.060,-0.646
3.065,-0.937
3.070,-0.894
3.075,-0.743
3.080,-0.623
3.085,-0.312
3.090,0.090
3.095,0.292
3.100,0.414
3.105,0.501
3.110,0.383
3.115,0.240
3.120,0.224
3.125,0.160
3.130,0.090
3.135,0.149
3.140,0.163
3.145,0.078
3.150,0.076
3.155,0.113
3.160,0.051
3.165,0.018
3.170,0.093
3.175,0.093
3.180,0.026
3.185,0.057
3.190,0.060
3.195,-0.026
3.200,0.003
3.205,0.083
3.210,0.023
3.215,-0.052
3.220,-0.028
3.225,-0.047
3.230,-0.091
3.235,-0.035
3.240,-0.037
3.245,-0.141
3.250,-0.128
3.255,-0.052
3.260,-0.099
3.265,-0.153
3.270,-0.108
3.275,-0.103
3.280,-0.130
3.285,-0.071
3.290,-0.041
3.295,-0.123
3.300,-0.134
3.305,-0.061
3.310,-0.068
3.315,-0.049
3.320,0.048
3.325,0.041
3.330,0.018
3.335,0.135
3.340,0.196
3.345,0.123
3.350,0.122
3.355,0.165
3.360,0.124
3.365,0.118
3.370,0.194
3.375,0.179
3.380,0.120
3.385,0.169
3.390,0.191
3.395,0.118
3.400,0.130
3.405,0.189
3.410,0.133
3.415,0.090
3.420,0.144
3.425,0.125
3.430,0.076
3.435,0.133
3.440,0.148
3.445,0.072
3.450,0.086
3.455,0.140
3.460,0.074
3.465,0.035
3.470,0.109
3.475,0.096
3.480,0.024
3.485,0.071
3.490,0.105
3.495,0.042
3.500,0.056
3.505,0.107
3.510,0.044
3.515,0.007
3.520,0.072
3.525,0.062
3.530,0.003
3.535,0.048
3.540,0.088
3.545,0.024
3.550,0.004
3.555,0.044
3.560,-0.009
3.565,-0.042
3.570,0.036
3.575,0.034
3.580,-0.026
3.585,0.017
3.590,0.040
3.595,-0.026
3.600,-0.016
3.605,0.034
3.610,-0.023
3.615,-0.058
3.620,0.018
3.625,0.014
3.630,-0.052
3.635,-0.019
3.640,0.010
3.645,-0.047
3.650,-0.042
3.655,0.001
3.660,-0.058
3.665,-0.096
3.670,-0.041
3.675,-0.063
3.680,-0.132
3.685,-0.085
3.690,-0.054
3.695,-0.127
3.700,-0.108
3.705,-0.032
3.710,-0.086
3.715,-0.131
3.720,-0.061
3.725,-0.044
3.730,-0.087
3.735,-0.040
3.740,0.000
3.745,-0.058
3.750,-0.047
3.755,0.021
3.760,-0.016
3.765,-0.035
3.770,0.039
3.775,0.033
3.780,-0.020
3.785,0.025
3.790,0.046
3.795,-0.022
3.800,-0.009
3.805,0.048
3.810,-0.007
3.815,-0.037
3.820,0.039
3.825,0.048
3.830,0.018
3.835,0.056
3.840,0.031
3.845,-0.128
3.850,-0.323
3.855,-0.604
3.860,-0.955
3.865,-1.038
3.870,-0.804
3.875,-0.604
3.880,-0.378
3.885,0.058
3.890,0.348
3.895,0.360
3.900,0.405
3.905,0.411
3.910,0.251
3.915,0.157
3.920,0.186
3.925,0.145
3.930,0.069
3.935,0.103
3.940,0.128
3.945,0.060
3.950,0.062
3.955,0.110
3.960,0.051
3.965,0.011
3.970,0.068
3.975,0.052
3.980,-0.012
3.985,0.030
3.990,0.053
3.995,-0.026
4.000,-0.027
4.005,0.024
4.010,-0.037
4.015,-0.084
4.020,-0.037
4.025,-0.067
4.030,-0.136
4.035,-0.088
4.040,-0.062
4.045,-0.135
4.050,-0.131
4.055,-0.081
4.060,-0.130
4.065,-0.158
4.070,-0.087
4.075,-0.084
4.080,-0.134
4.085,-0.083
4.090,-0.039
4.095,-0.083
4.100,-0.048
4.105,0.033
4.110,0.009
4.115,0.004
4.120,0.094
4.125,0.115
4.130,0.083
4.135,0.152
4.140,0.200
4.145,0.143
4.150,0.158
4.155,0.226
4.160,0.186
4.165,0.151
4.170,0.205
4.175,0.185
4.180,0.117
4.185,0.156
4.190,0.185
4.195,0.117
4.200,0.121
4.205,0.173
4.210,0.119
4.215,0.079
4.220,0.135
4.225,0.118
4.230,0.056
4.235,0.103
4.240,0.131
4.245,0.055
4.250,0.056
4.255,0.111
4.260,0.061
4.265,0.031
4.270,0.098
4.275,0.087
4.280,0.020
4.285,0.058
4.290,0.091
4.295,0.027
4.300,0.030
4.305,0.087
4.310,0.041
4.315,0.001
4.320,0.059
4.325,0.050
4.330,-0.008
4.335,0.037
4.340,0.066
4.345,-0.007
4.350,-0.009
4.355,0.050
4.360,0.006
4.365,-0.035
4.370,0.019
4.375,-0.001
4.380,-0.077
4.385,-0.047
4.390,-0.027
4.395,-0.096
4.400,-0.087
4.405,-0.029
4.410,-0.069
4.415,-0.089
4.420,-0.033
4.425,-0.059
4.430,-0.106
4.435,-0.029
4.440,0.019
4.445,-0.043
4.450,-0.027
4.455,0.030
4.460,-0.020
4.465,-0.042
4.470,0.033
4.475,0.034
4.480,-0.017
4.485,0.028
4.490,0.059
4.495,-0.007
4.500,-0.001
4.505,0.057
4.510,0.008
4.515,-0.030
4.520,0.033
4.525,0.027
4.530,-0.033
4.535,0.019
4.540,0.091
4.545,0.053
4.550,0.016
4.555,-0.007
4.560,-0.205
4.565,-0.532
4.570,-0.823
4.575,-0.999
4.580,-0.958
4.585,-0.732
4.590,-0.466
4.595,-0.138
4.600,0.246
4.605,0.432
4.610,0.383
4.615,0.310
4.620,0.284
4.625,0.214
4.630,0.114
4.635,0.126
4.640,0.149
4.645,0.073
4.650,0.065
4.655,0.115
4.660,0.061
4.665,0.019
4.670,0.078
4.675,0.065
4.680,-0.003
4.685,0.031
4.690,0.055
4.695,-0.017
4.700,-0.016
4.705,0.040
4.710,-0.012
4.715,-0.054
4.720,0.000
4.725,-0.023
4.730,-0.101
4.735,-0.071
4.740,-0.050
4.745,-0.132
4.750,-0.144
4.755,-0.094
4.760,-0.142
4.765,-0.177
4.770,-0.111
4.775,-0.112
4.780,-0.169
4.785,-0.126
4.790,-0.092
4.795,-0.148
4.800,-0.125
4.805,-0.042
4.810,-0.059
4.815,-0.064
4.820,0.037
4.825,0.071
4.830,0.041
4.835,0.111
4.840,0.173
4.845,0.133
4.850,0.152
4.855,0.221
4.860,0.183
4.865,0.147
4.870,0.208
4.875,0.202
4.880,0.138
4.885,0.177
4.890,0.205
4.895,0.129
4.900,0.128
4.905,0.181
4.910,0.126
4.915,0.084
4.920,0.143
4.925,0.135
4.930,0.073
4.935,0.110
4.940,0.135
4.945,0.062
4.950,0.062
4.955,0.120
4.960,0.076
4.965,0.038
4.970,0.094
4.975,0.084
4.980,0.019
4.985,0.059
4.990,0.093
4.995,0.026
5.000,0.024
5.005,0.081
5.010,0.039
5.015,0.003
5.020,0.061
5.025,0.056
5.030,-0.004
5.035,0.037
5.040,0.071
5.045,0.002
5.050,-0.003
5.055,0.053
5.060,0.010
5.065,-0.028
5.070,0.034
5.075,0.031
5.080,-0.034
5.085,0.001
5.090,0.038
5.095,-0.026
5.100,-0.025
5.105,0.032
5.110,-0.011
5.115,-0.044
5.120,0.018
5.125,0.006
5.130,-0.062
5.135,-0.025
5.140,0.007
5.145,-0.061
5.150,-0.061
5.155,-0.001
5.160,-0.052
5.165,-0.102
5.170,-0.054
5.175,-0.072
5.180,-0.140
5.185,-0.095
5.190,-0.054
5.195,-0.113
5.200,-0.096
5.205,-0.027
5.210,-0.090
5.215,-0.144
5.220,-0.057
5.225,-0.026
5.230,-0.076
5.235,-0.025
5.240,0.018
5.245,-0.056
5.250,-0.054
5.255,0.018
5.260,-0.013
5.265,-0.032
5.270,0.047
5.275,0.051
5.280,-0.012
5.285,0.025
5.290,0.057
5.295,-0.011
5.300,-0.012
5.305,0.048
5.310,0.007
5.315,-0.031
5.320,0.036
5.325,0.062
5.330,0.031
5.335,0.047
5.340,0.015
5.345,-0.162
5.350,-0.393
5.355,-0.669
5.360,-0.932
5.365,-0.926
5.370,-0.712
5.375,-0.546
5.380,-0.291
5.385,0.161
5.390,0.407
5.395,0.362
5.400,0.341
5.405,0.326
5.410,0.210
5.415,0.124
5.420,0.149
5.425,0.135
5.430,0.070
5.435,0.102
5.440,0.134
5.445,0.066
5.450,0.059
5.455,0.110
5.460,0.059
5.465,0.012
5.470,0.067
5.475,0.060
5.480,-0.007
5.485,0.027
5.490,0.055
5.495,-0.021
5.500,-0.033
5.505,0.017
5.510,-0.035
5.515,-0.084
5.520,-0.030
5.525,-0.043
5.530,-0.117
5.535,-0.092
5.540,-0.067
5.545,-0.135
5.550,-0.140
5.555,-0.082
5.560,-0.119
5.565,-0.155
5.570,-0.091
5.575,-0.087
5.580,-0.143
5.585,-0.095
5.590,-0.048
5.595,-0.094
5.600,-0.068
5.605,0.024
5.610,0.018
5.615,0.012
5.620,0.103
5.625,0.129
5.630,0.089
5.635,0.150
5.640,0.206
5.645,0.151
5.650,0.156
5.655,0.220
5.660,0.178
5.665,0.137
5.670,0.200
5.675,0.195
5.680,0.125
5.685,0.157
5.690,0.187
5.695,0.115
5.700,0.107
5.705,0.163
5.710,0.119
5.715,0.074
5.720,0.131
5.725,0.127
5.730,0.060
5.735,0.089
5.740,0.120
5.745,0.052
5.750,0.047
5.755,0.105
5.760,0.063
5.765,0.022
5.770,0.082
5.775,0.081
5.780,0.019
5.785,0.056
5.790,0.092
5.795,0.026
5.800,0.023
5.805,0.083
5.810,0.043
5.815,0.002
5.820,0.060
5.825,0.056
5.830,-0.011
5.835,0.025
5.840,0.062
5.845,-0.003
5.850,-0.005
5.855,0.056
5.860,0.013
5.865,-0.029
5.870,0.033
5.875,0.030
5.880,-0.039
5.885,-0.003
5.890,0.035
5.895,-0.029
5.900,-0.030
5.905,0.030
5.910,-0.010
5.915,-0.050
5.920,0.008
5.925,0.005
5.930,-0.061
5.935,-0.025
5.940,0.012
5.945,-0.053
5.950,-0.057
5.955,0.007
5.960,-0.031
5.965,-0.071
5.970,-0.012
5.975,-0.015
5.980,-0.082
5.985,-0.051
5.990,-0.023
5.995,-0.100
6.000,-0.120
6.005,-0.072
6.010,-0.111
6.015,-0.141
6.020,-0.071
6.025,-0.063
6.030,-0.113
6.035,-0.079
6.040,-0.066
6.045,-0.131
6.050,-0.097
6.055,-0.005
6.060,-0.035
6.065,-0.068
6.070,-0.006
6.075,-0.007
6.080,-0.062
6.085,-0.014
6.090,0.039
6.095,-0.008
6.100,-0.003
6.105,0.061
6.110,0.023
6.115,-0.019
6.120,0.038
6.125,0.037
6.130,-0.027
6.135,0.008
6.140,0.048
6.145,-0.013
6.150,0.000
6.155,0.100
6.160,0.064
6.165,-0.036
6.170,-0.059
6.175,-0.216
6.180,-0.567
6.185,-0.817
6.190,-0.833
6.195,-0.762
6.200,-0.647
6.205,-0.397
6.210,-0.059
6.215,0.225
6.220,0.381
6.225,0.389
6.230,0.288
6.235,0.240
6.240,0.220
6.245,0.115
6.250,0.088
6.255,0.148
6.260,0.108
6.265,0.061
6.270,0.117
6.275,0.114
6.280,0.042
6.285,0.070
6.290,0.103
6.295,0.034
6.300,0.022
6.305,0.077
6.310,0.036
6.315,-0.015
6.320,0.037
6.325,0.031
6.330,-0.044
6.335,-0.021
6.340,0.009
6.345,-0.066
6.350,-0.082
6.355,-0.031
6.360,-0.082
6.365,-0.135
6.370,-0.083
6.375,-0.087
6.380,-0.153
6.385,-0.116
6.390,-0.072
6.395,-0.132
6.400,-0.133
6.405,-0.065
6.410,-0.096
6.415,-0.129
6.420,-0.055
6.425,-0.035
6.430,-0.074
6.435,-0.007
6.440,0.066
6.445,0.036
6.450,0.061
6.455,0.150
6.460,0.136
6.465,0.113
6.470,0.189
6.475,0.200
6.480,0.139
6.485,0.177
6.490,0.218
6.495,0.155
6.500,0.147
6.505,0.205
6.510,0.162
6.515,0.113
6.520,0.167
6.525,0.163
6.530,0.091
6.535,0.118
6.540,0.152
6.545,0.086
6.550,0.076
6.555,0.134
6.560,0.093
6.565,0.045
6.570,0.102
6.575,0.103
6.580,0.035
6.585,0.066
6.590,0.105
6.595,0.040
6.600,0.032
6.605,0.095
6.610,0.058
6.615,0.015
6.620,0.073
6.625,0.077
6.630,0.011
6.635,0.040
6.640,0.079
6.645,0.014
6.650,0.002
6.655,0.055
6.660,0.008
6.665,-0.050
6.670,-0.008
6.675,-0.018
6.680,-0.084
6.685,-0.043
6.690,-0.001
6.695,-0.058
6.700,-0.056
6.705,-0.007
6.710,-0.069
6.715,-0.103
6.720,-0.002
6.725,0.026
6.730,-0.031
6.735,0.007
6.740,0.042
6.745,-0.026
6.750,-0.024
6.755,0.050
6.760,0.030
6.765,0.002
6.770,0.065
6.775,0.069
6.780,0.003
6.785,0.032
6.790,0.071
6.795,0.007
6.800,-0.007
6.805,0.049
6.810,0.011
6.815,-0.040
6.820,0.021
6.825,0.051
6.830,0.019
6.835,0.036
6.840,0.019
6.845,-0.124
6.850,-0.309
6.855,-0.554
6.860,-0.856
6.865,-0.908
6.870,-0.696
6.875,-0.570
6.880,-0.405
6.885,0.022
6.890,0.331
6.895,0.320
6.900,0.298
6.905,0.305
6.910,0.193
6.915,0.094
6.920,0.121
6.925,0.115
6.930,0.046
6.935,0.069
6.940,0.106
6.945,0.042
6.950,0.032
6.955,0.090
6.960,0.048
6.965,-0.007
6.970,0.043
6.975,0.047
6.980,-0.021
6.985,0.002
6.990,0.035
6.995,-0.034
7.000,-0.049
7.005,0.007
7.010,-0.036
7.015,-0.097
7.020,-0.058
7.025,-0.069
7.030,-0.148
7.035,-0.127
7.040,-0.094
7.045,-0.159
7.050,-0.169
7.055,-0.108
7.060,-0.139
7.065,-0.181
7.070,-0.122
7.075,-0.108
7.080,-0.162
7.085,-0.125
7.090,-0.069
7.095,-0.106
7.100,-0.084
7.105,0.015
7.110,0.024
7.115,0.019
7.120,0.112
7.125,0.147
7.130,0.104
7.135,0.155
7.140,0.210
7.145,0.160
7.150,0.160
7.155,0.224
7.160,0.186
7.165,0.136
7.170,0.188
7.175,0.189
7.180,0.120
7.185,0.146
7.190,0.183
7.195,0.115
7.200,0.100
7.205,0.155
7.210,0.120
7.215,0.072
7.220,0.123
7.225,0.128
7.230,0.059
7.235,0.079
7.240,0.112
7.245,0.046
7.250,0.037
7.255,0.103
7.260,0.072
7.265,0.027
7.270,0.083
7.275,0.088
7.280,0.021
7.285,0.044
7.290,0.082
7.295,0.015
7.300,0.003
7.305,0.074
7.310,0.047
7.315,-0.001
7.320,0.058
7.325,0.063
7.330,-0.009
7.335,0.018
7.340,0.061
7.345,-0.002
7.350,-0.013
7.355,0.049
7.360,0.012
7.365,-0.035
7.370,0.024
7.375,0.032
7.380,-0.039
7.385,-0.015
7.390,0.031
7.395,-0.025
7.400,-0.035
7.405,0.027
7.410,-0.007
7.415,-0.058
7.420,-0.005
7.425,-0.002
7.430,-0.070
7.435,-0.038
7.440,0.006
7.445,-0.054
7.450,-0.065
7.455,0.005
7.460,-0.018
7.465,-0.066
7.470,-0.014
7.475,-0.006
7.480,-0.071
7.485,-0.043
7.490,0.005
7.495,-0.052
7.500,-0.074
7.505,-0.019
7.510,-0.049
7.515,-0.103
7.520,-0.060
7.525,-0.063
7.530,-0.139
7.535,-0.111
7.540,-0.052
7.545,-0.100
7.550,-0.113
7.555,-0.043
7.560,-0.068
7.565,-0.141
7.570,-0.094
7.575,-0.048
7.580,-0.086
7.585,-0.055
7.590,0.002
7.595,-0.046
7.600,-0.053
7.605,0.019
7.610,-0.007
7.615,-0.042
7.620,0.041
7.625,0.061
7.630,-0.006
7.635,0.023
7.640,0.067
7.645,0.003
7.650,-0.012
7.655,0.050
7.660,0.014
7.665,-0.037
7.670,0.024
7.675,0.044
7.680,0.016
7.685,0.073
7.690,0.081
7.695,-0.054
7.700,-0.206
7.705,-0.413
7.710,-0.767
7.715,-0.948
7.720,-0.804
7.725,-0.685
7.730,-0.602
7.735,-0.247
7.740,0.175
7.745,0.307
7.750,0.377
7.755,0.461
7.760,0.343
7.765,0.208
7.770,0.214
7.775,0.181
7.780,0.096
7.785,0.117
7.790,0.152
7.795,0.086
7.800,0.066
7.805,0.122
7.810,0.094
7.815,0.046
7.820,0.095
7.825,0.096
7.830,0.028
7.835,0.057
7.840,0.092
7.845,0.012
7.850,-0.018
7.855,0.039
7.860,0.001
7.865,-0.061
7.870,-0.010
7.875,-0.006
7.880,-0.087
7.885,-0.073
7.890,-0.034
7.895,-0.103
7.900,-0.129
7.905,-0.069
7.910,-0.098
7.915,-0.140
7.920,-0.073
7.925,-0.056
7.930,-0.115
7.935,-0.081
7.940,-0.032
7.945,-0.095
7.950,-0.108
7.955,-0.023
7.960,-0.019
7.965,-0.037
7.970,0.049
7.975,0.091
7.980,0.061
7.985,0.124
7.990,0.189
7.995,0.138
8.000,0.133
8.005,0.206
8.010,0.180
8.015,0.134
8.020,0.191
8.025,0.198
8.030,0.132
8.035,0.164
8.040,0.207
8.045,0.137
8.050,0.113
8.055,0.171
8.060,0.132
8.065,0.068
8.070,0.116
8.075,0.126
8.080,0.064
8.085,0.092
8.090,0.138
8.095,0.075
8.100,0.049
8.105,0.104
8.110,0.075
8.115,0.021
8.120,0.073
8.125,0.090
8.130,0.031
8.135,0.053
8.140,0.095
8.145,0.031
8.150,0.011
8.155,0.080
8.160,0.059
8.165,0.003
8.170,0.052
8.175,0.065
8.180,0.001
8.185,0.027
8.190,0.072
8.195,0.010
8.200,-0.009
8.205,0.054
8.210,0.030
8.215,-0.020
8.220,0.030
8.225,0.042
8.230,-0.025
8.235,-0.005
8.240,0.042
8.245,-0.016
8.250,-0.037
8.255,0.023
8.260,-0.005
8.265,-0.055
8.270,0.000
8.275,0.013
8.280,-0.057
8.285,-0.036
8.290,0.011
8.295,-0.045
8.300,-0.058
8.305,0.010
8.310,-0.018
8.315,-0.076
8.320,-0.029
8.325,-0.021
8.330,-0.099
8.335,-0.093
8.340,-0.060
8.345,-0.123
8.350,-0.134
8.355,-0.056
8.360,-0.065
8.365,-0.105
8.370,-0.061
8.375,-0.075
8.380,-0.140
8.385,-0.081
8.390,-0.010
8.395,-0.067
8.400,-0.077
8.405,0.004
8.410,-0.011
8.415,-0.054
8.420,0.010
8.425,0.034
8.430,-0.023
8.435,0.009
8.440,0.061
8.445,0.004
8.450,-0.014
8.455,0.048
8.460,0.022
8.465,-0.030
8.470,0.021
8.475,0.034
8.480,-0.035
8.485,-0.003
8.490,0.089
8.495,0.058
8.500,0.003
8.505,-0.008
8.510,-0.182
8.515,-0.523
8.520,-0.809
8.525,-0.938
8.530,-0.917
8.535,-0.765
8.540,-0.533
8.545,-0.220
8.550,0.158
8.555,0.389
8.560,0.414
8.565,0.359
8.570,0.323
8.575,0.269
8.580,0.155
8.585,0.134
8.590,0.175
8.595,0.120
8.600,0.092
8.605,0.149
8.610,0.119
8.615,0.058
8.620,0.105
8.625,0.114
8.630,0.036
8.635,0.050
8.640,0.096
8.645,0.031
8.650,-0.002
8.655,0.051
8.660,0.015
8.665,-0.048
8.670,-0.002
8.675,0.005
8.680,-0.072
8.685,-0.062
8.690,-0.025
8.695,-0.095
8.700,-0.123
8.705,-0.065
8.710,-0.094
8.715,-0.151
8.720,-0.102
8.725,-0.087
8.730,-0.146
8.735,-0.113
8.740,-0.055
8.745,-0.107
8.750,-0.124
8.755,-0.046
8.760,-0.048
8.765,-0.074
8.770,0.012
8.775,0.062
8.780,0.028
8.785,0.082
8.790,0.163
8.795,0.134
8.800,0.133
8.805,0.212
8.810,0.197
8.815,0.146
8.820,0.202
8.825,0.221
8.830,0.150
8.835,0.162
8.840,0.207
8.845,0.143
8.850,0.115
8.855,0.178
8.860,0.152
8.865,0.091
8.870,0.139
8.875,0.153
8.880,0.077
8.885,0.088
8.890,0.134
8.895,0.074
8.900,0.046
8.905,0.107
8.910,0.085
8.915,0.029
8.920,0.075
8.925,0.091
8.930,0.028
8.935,0.046
8.940,0.094
8.945,0.039
8.950,0.016
8.955,0.080
8.960,0.059
8.965,0.003
8.970,0.053
8.975,0.072
8.980,0.003
8.985,0.022
8.990,0.072
8.995,0.013
9.000,-0.009
9.005,0.052
9.010,0.022
9.015,-0.037
9.020,0.010
9.025,0.024
9.030,-0.053
9.035,-0.057
9.040,-0.025
9.045,-0.082
9.050,-0.099
9.055,-0.034
9.060,-0.051
9.065,-0.092
9.070,-0.041
9.075,-0.049
9.080,-0.121
9.085,-0.067
9.090,0.016
9.095,-0.030
9.100,-0.041
9.105,0.029
9.110,0.002
9.115,-0.051
9.120,0.008
9.125,0.039
9.130,-0.015
9.135,0.012
9.140,0.070
9.145,0.017
9.150,-0.007
9.155,0.054
9.160,0.030
9.165,-0.028
9.170,0.019
9.175,0.035
9.180,-0.038
9.185,-0.020
9.190,0.052
9.195,0.037
9.200,0.015
9.205,0.021
9.210,-0.087
9.215,-0.319
9.220,-0.585
9.225,-0.867
9.230,-1.001
9.235,-0.864
9.240,-0.667
9.245,-0.476
9.250,-0.073
9.255,0.336
9.260,0.389
9.265,0.314
9.270,0.320
9.275,0.262
9.280,0.140
9.285,0.119
9.290,0.152
9.295,0.096
9.300,0.065
9.305,0.121
9.310,0.093
9.315,0.032
9.320,0.081
9.325,0.099
9.330,0.026
9.335,0.035
9.340,0.080
9.345,0.017
9.350,-0.015
9.355,0.042
9.360,0.012
9.365,-0.055
9.370,-0.010
9.375,0.004
9.380,-0.077
9.385,-0.077
9.390,-0.037
9.395,-0.104
9.400,-0.142
9.405,-0.092
9.410,-0.123
9.415,-0.185
9.420,-0.138
9.425,-0.116
9.430,-0.178
9.435,-0.153
9.440,-0.096
9.445,-0.147
9.450,-0.161
9.455,-0.077
9.460,-0.069
9.465,-0.094
9.470,-0.006
9.475,0.059
9.480,0.030
9.485,0.079
9.490,0.164
9.495,0.136
9.500,0.132
9.505,0.216
9.510,0.207
9.515,0.152
9.520,0.200
9.525,0.224
9.530,0.156
9.535,0.167
9.540,0.216
9.545,0.157
9.550,0.123
9.555,0.181
9.560,0.155
9.565,0.090
9.570,0.134
9.575,0.154
9.580,0.082
9.585,0.091
9.590,0.138
9.595,0.080
9.600,0.051
9.605,0.111
9.610,0.092
9.615,0.034
9.620,0.081
9.625,0.100
9.630,0.029
9.635,0.045
9.640,0.097
9.645,0.044
9.650,0.017
9.655,0.077
9.660,0.059
9.665,0.001
9.670,0.047
9.675,0.069
9.680,0.003
9.685,0.017
9.690,0.067
9.695,0.013
9.700,-0.012
9.705,0.051
9.710,0.033
9.715,-0.028
9.720,0.019
9.725,0.041
9.730,-0.027
9.735,-0.013
9.740,0.040
9.745,-0.013
9.750,-0.036
9.755,0.028
9.760,0.009
9.765,-0.051
9.770,-0.004
9.775,0.018
9.780,-0.050
9.785,-0.035
9.790,0.021
9.795,-0.033
9.800,-0.064
9.805,-0.002
9.810,-0.015
9.815,-0.072
9.820,-0.024
9.825,0.000
9.830,-0.067
9.835,-0.054
9.840,0.001
9.845,-0.050
9.850,-0.078
9.855,-0.012
9.860,-0.023
9.865,-0.080
9.870,-0.037
9.875,-0.011
9.880,-0.076
9.885,-0.067
9.890,-0.023
9.895,-0.088
9.900,-0.135
9.905,-0.087
9.910,-0.099
9.915,-0.142
9.920,-0.088
9.925,-0.056
9.930,-0.106
9.935,-0.096
9.940,-0.063
9.945,-0.105
9.950,-0.096
9.955,-0.007
9.960,-0.009
9.965,-0.054
9.970,-0.001
9.975,0.019
9.980,-0.047
9.985,-0.027
9.990,0.036
9.995,0.003
10.000,-0.008
10.005,0.056
10.010,0.041
10.015,-0.016
10.020,0.026
10.025,0.050
10.030,-0.012
10.035,-0.001
10.040,0.049
10.045,0.001
10.050,-0.004
10.055,0.109
10.060,0.102
10.065,-0.030
10.070,-0.110
10.075,-0.287
10.080,-0.670
10.085,-0.937
10.090,-0.900
10.095,-0.808
10.100,-0.691
10.105,-0.345
10.110,0.097
10.115,0.341
10.120,0.420
10.125,0.413
10.130,0.286
10.135,0.218
10.140,0.223
10.145,0.138
10.150,0.099
10.155,0.164
10.160,0.145
10.165,0.082
10.170,0.122
10.175,0.139
10.180,0.067
10.185,0.073
10.190,0.123
10.195,0.068
10.200,0.029
10.205,0.085
10.210,0.065
10.215,-0.005
10.220,0.030
10.225,0.049
10.230,-0.029
10.235,-0.030
10.240,0.019
10.245,-0.041
10.250,-0.088
10.255,-0.039
10.260,-0.065
10.265,-0.135
10.270,-0.094
10.275,-0.073
10.280,-0.142
10.285,-0.128
10.290,-0.068
10.295,-0.116
10.300,-0.141
10.305,-0.072
10.310,-0.078
10.315,-0.128
10.320,-0.065
10.325,-0.013
10.330,-0.051
10.335,-0.010
10.340,0.080
10.345,0.065
10.350,0.065
10.355,0.156
10.360,0.169
10.365,0.131
10.370,0.189
10.375,0.224
10.380,0.162
10.385,0.173
10.390,0.231
10.395,0.180
10.400,0.146
10.405,0.207
10.410,0.189
10.415,0.123
10.420,0.162
10.425,0.182
10.430,0.106
10.435,0.111
10.440,0.163
10.445,0.108
10.450,0.075
10.455,0.135
10.460,0.115
10.465,0.051
10.470,0.092
10.475,0.114
10.480,0.043
10.485,0.051
10.490,0.107
10.495,0.053
10.500,0.020
10.505,0.085
10.510,0.073
10.515,0.015
10.520,0.062
10.525,0.084
10.530,0.010
10.535,0.020
10.540,0.079
10.545,0.030
10.550,-0.001
10.555,0.064
10.560,0.050
10.565,-0.012
10.570,0.033
10.575,0.060
10.580,-0.011
10.585,-0.005
10.590,0.051
10.595,0.000
10.600,-0.032
10.605,0.032
10.610,0.018
10.615,-0.045
10.620,-0.002
10.625,0.026
10.630,-0.040
10.635,-0.031
10.640,0.024
10.645,-0.025
10.650,-0.056
10.655,0.010
10.660,0.000
10.665,-0.063
10.670,-0.020
10.675,0.006
10.680,-0.062
10.685,-0.052
10.690,0.004
10.695,-0.049
10.700,-0.080
10.705,-0.020
10.710,-0.042
10.715,-0.114
10.720,-0.080
10.725,-0.068
10.730,-0.142
10.735,-0.129
10.740,-0.062
10.745,-0.090
10.750,-0.096
10.755,-0.035
10.760,-0.081
10.765,-0.144
10.770,-0.065
10.775,-0.009
10.780,-0.067
10.785,-0.054
10.790,0.011
10.795,-0.037
10.800,-0.070
10.805,0.008
10.810,0.018
10.815,-0.031
10.820,0.020
10.825,0.057
10.830,-0.010
10.835,-0.005
10.840,0.055
10.845,0.006
10.850,-0.030
10.855,0.032
10.860,0.020
10.865,-0.044
10.870,0.015
10.875,0.081
10.880,0.032
10.885,-0.004
10.890,-0.029
10.895,-0.217
10.900,-0.513
10.905,-0.779
10.910,-0.923
10.915,-0.865
10.920,-0.670
10.925,-0.439
10.930,-0.110
10.935,0.283
10.940,0.444
10.945,0.351
10.950,0.262
10.955,0.250
10.960,0.188
10.965,0.092
10.970,0.120
10.975,0.151
10.980,0.083
10.985,0.084
10.990,0.136
10.995,0.086
11.000,0.048
11.005,0.103
11.010,0.088
11.015,0.021
11.020,0.057
11.025,0.082
11.030,0.007
11.035,0.007
11.040,0.062
11.045,0.009
11.050,-0.039
11.055,0.012
11.060,-0.006
11.065,-0.079
11.070,-0.048
11.075,-0.028
11.080,-0.107
11.085,-0.114
11.090,-0.066
11.095,-0.118
11.100,-0.155
11.105,-0.091
11.110,-0.096
11.115,-0.156
11.120,-0.110
11.125,-0.071
11.130,-0.129
11.135,-0.115
11.140,-0.045
11.145,-0.073
11.150,-0.079
11.155,0.018
11.160,0.046
11.165,0.024
11.170,0.103
11.175,0.162
11.180,0.119
11.185,0.146
11.190,0.224
11.195,0.182
11.200,0.148
11.205,0.218
11.210,0.214
11.215,0.151
11.220,0.189
11.225,0.216
11.230,0.146
11.235,0.141
11.240,0.190
11.245,0.140
11.250,0.100
11.255,0.157
11.260,0.142
11.265,0.080
11.270,0.119
11.275,0.144
11.280,0.072
11.285,0.072
11.290,0.123
11.295,0.074
11.300,0.042
11.305,0.101
11.310,0.089
11.315,0.027
11.320,0.067
11.325,0.098
11.330,0.030
11.335,0.029
11.340,0.088
11.345,0.043
11.350,0.003
11.355,0.067
11.360,0.060
11.365,-0.005
11.370,0.034
11.375,0.064
11.380,-0.004
11.385,-0.001
11.390,0.065
11.395,0.019
11.400,-0.026
11.405,0.036
11.410,0.025
11.415,-0.041
11.420,0.003
11.425,0.033
11.430,-0.042
11.435,-0.050
11.440,-0.004
11.445,-0.069
11.450,-0.127
11.455,-0.068
11.460,-0.062
11.465,-0.117
11.470,-0.072
11.475,-0.029
11.480,-0.092
11.485,-0.111
11.490,-0.056
11.495,-0.062
11.500,-0.066
11.505,0.006
11.510,0.011
11.515,-0.050
11.520,-0.021
11.525,0.014
11.530,-0.042
11.535,-0.024
11.540,0.055
11.545,0.022
11.550,-0.015
11.555,0.048
11.560,0.041
11.565,-0.023
11.570,0.016
11.575,0.048
11.580,-0.022
11.585,-0.022
11.590,0.033
11.595,-0.010
11.600,-0.020
11.605,0.079
11.610,0.052
11.615,-0.085
11.620,-0.156
11.625,-0.345
11.630,-0.744
11.635,-0.970
11.640,-0.853
11.645,-0.711
11.650,-0.572
11.655,-0.183
11.660,0.235
11.665,0.357
11.670,0.366
11.675,0.343
11.680,0.204
11.685,0.140
11.690,0.158
11.695,0.096
11.700,0.061
11.705,0.119
11.710,0.108
11.715,0.039
11.720,0.072
11.725,0.103
11.730,0.033
11.735,0.028
11.740,0.083
11.745,0.036
11.750,-0.009
11.755,0.045
11.760,0.035
11.765,-0.035
11.770,-0.004
11.775,0.023
11.780,-0.055
11.785,-0.067
11.790,-0.019
11.795,-0.074
11.800,-0.124
11.805,-0.073
11.810,-0.086
11.815,-0.157
11.820,-0.124
11.825,-0.093
11.830,-0.158
11.835,-0.153
11.840,-0.086
11.845,-0.126
11.850,-0.162
11.855,-0.092
11.860,-0.087
11.865,-0.139
11.870,-0.082
11.875,-0.019
11.880,-0.047
11.885,-0.006
11.890,0.090
11.895,0.080
11.900,0.070
11.905,0.160
11.910,0.182
11.915,0.136
11.920,0.187
11.925,0.227
11.930,0.160
11.935,0.161
11.940,0.222
11.945,0.177
11.950,0.132
11.955,0.188
11.960,0.180
11.965,0.110
11.970,0.140
11.975,0.172
11.980,0.104
11.985,0.098
11.990,0.154
11.995,0.107
12.000,0.063
12.005,0.121
12.010,0.114
12.015,0.048
12.020,0.083
12.025,0.118
12.030,0.053
12.035,0.050
12.040,0.108
12.045,0.065
12.050,0.026
12.055,0.089
12.060,0.084
12.065,0.013
12.070,0.047
12.075,0.084
12.080,0.020
12.085,0.017
12.090,0.074
12.095,0.033
12.100,-0.006
12.105,0.053
12.110,0.050
12.115,-0.014
12.120,0.021
12.125,0.054
12.130,-0.014
12.135,-0.016
12.140,0.046
12.145,0.004
12.150,-0.039
12.155,0.022
12.160,0.018
12.165,-0.048
12.170,-0.009
12.175,0.029
12.180,-0.037
12.185,-0.041
12.190,0.021
12.195,-0.022
12.200,-0.066
12.205,-0.003
12.210,0.001
12.215,-0.063
12.220,-0.030
12.225,0.007
12.230,-0.057
12.235,-0.062
12.240,0.001
12.245,-0.037
12.250,-0.078
12.255,-0.014
12.260,-0.013
12.265,-0.082
12.270,-0.046
12.275,-0.005
12.280,-0.065
12.285,-0.067
12.290,-0.016
12.295,-0.072
12.300,-0.130
12.305,-0.085
12.310,-0.094
12.315,-0.151
12.320,-0.101
12.325,-0.056
12.330,-0.106
12.335,-0.097
12.340,-0.055
12.345,-0.112
12.350,-0.124
12.355,-0.025
12.360,-0.011
12.365,-0.064
12.370,-0.024
12.375,0.007
12.380,-0.055
12.385,-0.044
12.390,0.036
12.395,0.015
12.400,-0.014
12.405,0.052
12.410,0.055
12.415,-0.011
12.420,0.023
12.425,0.062
12.430,-0.002
12.435,-0.008
12.440,0.050
12.445,0.008
12.450,-0.026
12.455,0.067
12.460,0.083
12.465,-0.035
12.470,-0.095
12.475,-0.205
12.480,-0.537
12.485,-0.855
12.490,-0.893
12.495,-0.775
12.500,-0.643
12.505,-0.377
12.510,0.009
12.515,0.292
12.520,0.413
12.525,0.426
12.530,0.312
12.535,0.223
12.540,0.221
12.545,0.141
12.550,0.082
12.555,0.142
12.560,0.139
12.565,0.070
12.570,0.098
12.575,0.132
12.580,0.064
12.585,0.052
12.590,0.110
12.595,0.066
12.600,0.015
12.605,0.072
12.610,0.068
12.615,-0.008
12.620,0.020
12.625,0.054
12.630,-0.022
12.635,-0.036
12.640,0.016
12.645,-0.035
12.650,-0.091
12.655,-0.044
12.660,-0.052
12.665,-0.123
12.670,-0.092
12.675,-0.054
12.680,-0.121
12.685,-0.127
12.690,-0.059
12.695,-0.089
12.700,-0.128
12.705,-0.065
12.710,-0.061
12.715,-0.128
12.720,-0.091
12.725,-0.042
12.730,-0.089
12.735,-0.069
12.740,0.026
12.745,0.025
12.750,0.014
12.755,0.107
12.760,0.141
12.765,0.098
12.770,0.152
12.775,0.210
12.780,0.156
12.785,0.154
12.790,0.221
12.795,0.185
12.800,0.136
12.805,0.189
12.810,0.188
12.815,0.115
12.820,0.144
12.825,0.183
12.830,0.117
12.835,0.106
12.840,0.164
12.845,0.124
12.850,0.076
12.855,0.135
12.860,0.135
12.865,0.063
12.870,0.092
12.875,0.132
12.880,0.066
12.885,0.054
12.890,0.114
12.895,0.080
12.900,0.033
12.905,0.091
12.910,0.097
12.915,0.030
12.920,0.059
12.925,0.099
12.930,0.035
12.935,0.025
12.940,0.085
12.945,0.045
12.950,-0.002
12.955,0.056
12.960,0.059
12.965,-0.008
12.970,0.024
12.975,0.063
12.980,-0.005
12.985,-0.021
12.990,0.031
12.995,-0.020
13.000,-0.090
13.005,-0.050
13.010,-0.045
13.015,-0.103
13.020,-0.066
13.025,-0.015
13.030,-0.065
13.035,-0.080
13.040,-0.044
13.045,-0.072
13.050,-0.070
13.055,0.017
13.060,0.028
13.065,-0.033
13.070,-0.008
13.075,0.021
13.080,-0.041
13.085,-0.037
13.090,0.051
13.095,0.034
13.100,-0.006
13.105,0.055
13.110,0.058
13.115,-0.016
13.120,0.013
13.125,0.058
13.130,-0.007
13.135,-0.020
13.140,0.042
13.145,0.001
13.150,-0.043
13.155,0.046
13.160,0.079
13.165,-0.020
13.170,-0.067
13.175,-0.143
13.180,-0.443
13.185,-0.792
13.190,-0.930
13.195,-0.862
13.200,-0.701
13.205,-0.459
13.210,-0.120
13.215,0.200
13.220,0.372
13.225,0.393
13.230,0.286
13.235,0.198
13.240,0.194
13.245,0.118
13.250,0.055
13.255,0.115
13.260,0.117
13.265,0.041
13.270,0.064
13.275,0.101
13.280,0.036
13.285,0.022
13.290,0.082
13.295,0.042
13.300,-0.012
13.305,0.041
13.310,0.041
13.315,-0.037
13.320,-0.014
13.325,0.025
13.330,-0.047
13.335,-0.067
13.340,-0.011
13.345,-0.057
13.350,-0.117
13.355,-0.067
13.360,-0.072
13.365,-0.151
13.370,-0.126
13.375,-0.085
13.380,-0.151
13.385,-0.160
13.390,-0.091
13.395,-0.118
13.400,-0.163
13.405,-0.101
13.410,-0.088
13.415,-0.154
13.420,-0.117
13.425,-0.050
13.430,-0.086
13.435,-0.067
13.440,0.037
13.445,0.044
13.450,0.032
13.455,0.121
13.460,0.155
13.465,0.113
13.470,0.155
13.475,0.207
13.480,0.153
13.485,0.147
13.490,0.215
13.495,0.179
13.500,0.126
13.505,0.179
13.510,0.182
13.515,0.111
13.520,0.138
13.525,0.180
13.530,0.112
13.535,0.094
13.540,0.157
13.545,0.121
13.550,0.064
13.555,0.116
13.560,0.125
13.565,0.056
13.570,0.082
13.575,0.127
13.580,0.066
13.585,0.051
13.590,0.114
13.595,0.079
13.600,0.026
13.605,0.084
13.610,0.094
13.615,0.021
13.620,0.046
13.625,0.091
13.630,0.028
13.635,0.012
13.640,0.077
13.645,0.046
13.650,-0.008
13.655,0.045
13.660,0.054
13.665,-0.015
13.670,0.010
13.675,0.056
13.680,-0.002
13.685,-0.019
13.690,0.040
13.695,0.008
13.700,-0.040
13.705,0.016
13.710,0.024
13.715,-0.046
13.720,-0.021
13.725,0.028
13.730,-0.032
13.735,-0.047
13.740,0.020
13.745,-0.012
13.750,-0.066
13.755,-0.011
13.760,0.000
13.765,-0.067
13.770,-0.037
13.775,0.011
13.780,-0.050
13.785,-0.064
13.790,0.002
13.795,-0.029
13.800,-0.081
13.805,-0.020
13.810,0.000
13.815,-0.067
13.820,-0.047
13.825,0.002
13.830,-0.056
13.835,-0.072
13.840,-0.009
13.845,-0.037
13.850,-0.087
13.855,-0.035
13.860,-0.034
13.865,-0.120
13.870,-0.115
13.875,-0.077
13.880,-0.129
13.885,-0.131
13.890,-0.058
13.895,-0.076
13.900,-0.115
13.905,-0.072
13.910,-0.078
13.915,-0.122
13.920,-0.055
13.925,0.011
13.930,-0.041
13.935,-0.050
13.940,0.011
13.945,-0.018
13.950,-0.060
13.955,0.011
13.960,0.043
13.965,-0.009
13.970,0.020
13.975,0.070
13.980,0.013
13.985,-0.006
13.990,0.056
13.995,0.031
14.000,-0.020
14.005,0.034
14.010,0.045
14.015,-0.015
14.020,0.038
14.025,0.093
14.030,-0.028
14.035,-0.147
14.040,-0.241
14.045,-0.538
14.050,-0.890
14.055,-0.909
14.060,-0.715
14.065,-0.601
14.070,-0.371
14.075,0.049
14.080,0.307
14.085,0.373
14.090,0.433
14.095,0.361
14.100,0.218
14.105,0.209
14.110,0.180
14.115,0.091
14.120,0.117
14.125,0.168
14.130,0.102
14.135,0.075
14.140,0.132
14.145,0.099
14.150,0.041
14.155,0.090
14.160,0.097
14.165,0.025
14.170,0.044
14.175,0.087
14.180,0.018
14.185,-0.011
14.190,0.044
14.195,0.010
14.200,-0.049
14.205,0.000
14.210,0.004
14.215,-0.075
14.220,-0.059
14.225,-0.017
14.230,-0.085
14.235,-0.111
14.240,-0.050
14.245,-0.081
14.250,-0.138
14.255,-0.080
14.260,-0.064
14.265,-0.135
14.270,-0.111
14.275,-0.059
14.280,-0.121
14.285,-0.143
14.290,-0.067
14.295,-0.067
14.300,-0.092
14.305,-0.007
14.310,0.044
14.315,0.011
14.320,0.072
14.325,0.160
14.330,0.125
14.335,0.118
14.340,0.202
14.345,0.191
14.350,0.137
14.355,0.193
14.360,0.209
14.365,0.141
14.370,0.165
14.375,0.210
14.380,0.153
14.385,0.134
14.390,0.189
14.395,0.157
14.400,0.100
14.405,0.150
14.410,0.166
14.415,0.094
14.420,0.111
14.425,0.165
14.430,0.104
14.435,0.074
14.440,0.134
14.445,0.103
14.450,0.043
14.455,0.095
14.460,0.117
14.465,0.052
14.470,0.069
14.475,0.121
14.480,0.064
14.485,0.033
14.490,0.092
14.495,0.067
14.500,0.005
14.505,0.049
14.510,0.061
14.515,-0.005
14.520,0.025
14.525,0.086
14.530,0.032
14.535,0.006
14.540,0.063
14.545,0.035
14.550,-0.022
14.555,0.025
14.560,0.037
14.565,-0.040
14.570,-0.028
14.575,0.028
14.580,-0.025
14.585,-0.046
14.590,0.026
14.595,0.005
14.600,-0.059
14.605,-0.012
14.610,0.010
14.615,-0.058
14.620,-0.042
14.625,0.013
14.630,-0.043
14.635,-0.065
14.640,0.000
14.645,-0.027
14.650,-0.089
14.655,-0.045
14.660,-0.031
14.665,-0.111
14.670,-0.113
14.675,-0.076
14.680,-0.133
14.685,-0.147
14.690,-0.075
14.695,-0.086
14.700,-0.117
14.705,-0.058
14.710,-0.068
14.715,-0.150
14.720,-0.102
14.725,-0.019
14.730,-0.061
14.735,-0.077
14.740,-0.004
14.745,-0.020
14.750,-0.073
14.755,-0.015
14.760,0.020
14.765,-0.024
14.770,0.013
14.775,0.070
14.780,0.014
14.785,-0.016
14.790,0.036
14.795,0.011
14.800,-0.045
14.805,0.002
14.810,0.026
14.815,-0.039
14.820,-0.015
14.825,0.081
14.830,0.061
14.835,-0.006
14.840,-0.032
14.845,-0.202
14.850,-0.529
14.855,-0.809
14.860,-0.945
14.865,-0.891
14.870,-0.689
14.875,-0.461
14.880,-0.204
14.885,0.112
14.890,0.354
14.895,0.430
14.900,0.393
14.905,0.350
14.910,0.287
14.915,0.159
14.920,0.122
14.925,0.162
14.930,0.102
14.935,0.060
14.940,0.120
14.945,0.099
14.950,0.038
14.955,0.090
14.960,0.111
14.965,0.035
14.970,0.042
14.975,0.091
14.980,0.032
14.985,-0.005
14.990,0.051
14.995,0.032
15.000,-0.033
15.005,0.001
15.010,0.011
15.015,-0.077
15.020,-0.073
15.025,-0.023
15.030,-0.087
15.035,-0.117
15.040,-0.056
15.045,-0.082
15.050,-0.153
15.055,-0.096
15.060,-0.049
15.065,-0.118
15.070,-0.116
15.075,-0.067
15.080,-0.122
15.085,-0.145
15.090,-0.077
15.095,-0.084
15.100,-0.115
15.105,-0.027
15.110,0.042
15.115,0.012
15.120,0.051
15.125,0.127
15.130,0.106
15.135,0.123
15.140,0.211
15.145,0.192
15.150,0.141
15.155,0.204
15.160,0.225
15.165,0.153
15.170,0.170
15.175,0.223
15.180,0.163
15.185,0.124
15.190,0.179
15.195,0.172
15.200,0.120
15.205,0.153
15.210,0.164
15.215,0.088
15.220,0.102
15.225,0.160
15.230,0.096
15.235,0.066
15.240,0.149
15.245,0.140
15.250,0.066
15.255,0.094
15.260,0.110
15.265,0.041
15.270,0.063
15.275,0.120
15.280,0.049
15.285,0.005
15.290,0.071
15.295,0.081
15.300,0.058
15.305,0.088
15.310,0.066
15.315,-0.005
15.320,0.015
15.325,0.062
15.330,0.002
15.335,-0.025
15.340,0.026
15.345,-0.050
15.350,-0.153
15.355,-0.073
15.360,-0.022
15.365,-0.091
15.370,-0.045
15.375,0.018
15.380,-0.061
15.385,-0.104
15.390,-0.064
15.395,-0.063
15.400,-0.044
15.405,0.051
15.410,0.051
15.415,-0.045
15.420,-0.021
15.425,0.037
15.430,-0.033
15.435,-0.040
15.440,0.065
15.445,0.044
15.450,-0.033
15.455,0.012
15.460,0.044
15.465,-0.009
15.470,0.015
15.475,0.072
15.480,0.015
15.485,-0.025
15.490,0.026
15.495,0.006
15.500,-0.012
15.505,0.100
15.510,0.089
15.515,-0.066
15.520,-0.129
15.525,-0.282
15.530,-0.722
15.535,-1.074
15.540,-1.013
15.545,-0.807
15.550,-0.671
15.555,-0.346
15.560,0.112
15.565,0.308
15.570,0.411
15.575,0.532
15.580,0.381
15.585,0.181
15.590,0.176
15.595,0.134
15.600,0.052
15.605,0.086
15.610,0.115
15.615,0.068
15.620,0.077
15.625,0.127
15.630,0.073
15.635,0.000
15.640,0.061
15.645,0.096
15.650,0.006
15.655,0.002
15.660,0.054
15.665,0.010
15.670,-0.020
15.675,-0.002
15.680,-0.044
15.685,-0.048
15.690,-0.015
15.695,-0.111
15.700,-0.187
15.705,-0.075
15.710,-0.006
15.715,-0.117
15.720,-0.151
15.725,-0.088
15.730,-0.142
15.735,-0.185
15.740,-0.088
15.745,-0.071
15.750,-0.190
15.755,-0.185
15.760,-0.086
15.765,-0.058
15.770,0.015
15.775,0.094
15.780,0.028
15.785,-0.005
15.790,0.099
15.795,0.146
15.800,0.103
15.805,0.123
15.810,0.172
15.815,0.173
15.820,0.218
15.825,0.251
15.830,0.171
15.835,0.128
15.840,0.202
15.845,0.176
15.850,0.084
15.855,0.162
15.860,0.214
15.865,0.125
15.870,0.156
15.875,0.223
15.880,0.133
15.885,0.094
15.890,0.105
15.895,0.057
15.900,0.048
15.905,0.079
15.910,0.091
15.915,0.059
15.920,0.078
15.925,0.177
15.930,0.161
15.935,0.017
15.940,-0.024
15.945,-0.025
15.950,0.002
15.955,0.156
15.960,0.118
15.965,-0.061
15.970,-0.025
15.975,0.099
15.980,0.052
15.985,-0.027
15.990,0.079
15.995,0.073
16.000,-0.041
16.005,0.052
16.010,0.056
16.015,-0.097
16.020,-0.047
16.025,0.091
16.030,0.078
16.035,0.036
16.040,0.030
16.045,-0.054
16.050,-0.145
16.055,-0.080
16.060,-0.001
16.065,0.018
16.070,0.002
16.075,-0.144
16.080,-0.246
16.085,-0.153
16.090,-0.013
16.095,0.036
16.100,0.006
16.105,-0.020
16.110,-0.015
16.115,-0.026
16.120,-0.007
16.125,0.000
16.130,-0.124
16.135,-0.141
16.140,0.005
16.145,0.002
16.150,-0.051
16.155,0.060
16.160,0.105
16.165,-0.012
16.170,-0.043
16.175,0.027
16.180,0.022
16.185,-0.002
16.190,0.032
16.195,0.012
16.200,-0.042
16.205,0.022
16.210,0.067
16.215,-0.035
16.220,-0.115
16.225,-0.206
16.230,-0.511
16.235,-0.917
16.240,-1.073
16.245,-0.961
16.250,-0.773
16.255,-0.465
16.260,-0.050
16.265,0.207
16.270,0.288
16.275,0.379
16.280,0.344
16.285,0.226
16.290,0.231
16.295,0.169
16.300,0.025
16.305,0.046
16.310,0.095
16.315,0.024
16.320,0.026
16.325,0.087
16.330,0.021
16.335,-0.046
16.340,0.015
16.345,0.036
16.350,-0.013
16.355,0.005
16.360,0.021
16.365,-0.058
16.370,-0.055
16.375,0.008
16.380,-0.061
16.385,-0.131
16.390,-0.093
16.395,-0.086
16.400,-0.131
16.405,-0.119
16.410,-0.130
16.415,-0.210
16.420,-0.181
16.425,-0.086
16.430,-0.122
16.435,-0.176
16.440,-0.113
16.445,-0.097
16.450,-0.169
16.455,-0.131
16.460,-0.057
16.465,-0.111
16.470,-0.116
16.475,-0.016
16.480,-0.007
16.485,-0.017
16.490,0.072
16.495,0.101
16.500,0.055
16.505,0.131
16.510,0.231
16.515,0.190
16.520,0.192
16.525,0.243
16.530,0.197
16.535,0.220
16.540,0.330
16.545,0.293
16.550,0.203
16.555,0.259
16.560,0.278
16.565,0.201
16.570,0.266
16.575,0.385
16.580,0.353
16.585,0.275
16.590,0.284
16.595,0.270
16.600,0.175
16.605,0.290
16.610,0.424
16.615,0.187
16.620,0.112
16.625,0.355
16.630,0.297
16.635,0.117
16.640,0.192
16.645,0.081
16.650,-0.147
16.655,0.002
16.660,0.147
16.665,0.003
16.670,0.022
16.675,0.137
16.680,0.020
16.685,0.043
16.690,0.103
16.695,-0.138
16.700,-0.223
16.705,-0.113
16.710,-0.112
16.715,-0.131
16.720,-0.056
16.725,0.024
16.730,-0.051
16.735,-0.095
16.740,-0.014
16.745,-0.056
16.750,-0.182
16.755,-0.185
16.760,-0.112
16.765,-0.105
16.770,-0.093
16.775,-0.044
16.780,-0.086
16.785,-0.123
16.790,-0.050
16.795,-0.054
16.800,-0.113
16.805,-0.051
16.810,-0.022
16.815,-0.111
16.820,-0.110
16.825,-0.039
16.830,-0.082
16.835,-0.114
16.840,-0.017
16.845,-0.017
16.850,-0.127
16.855,-0.108
16.860,-0.077
16.865,-0.161
16.870,-0.168
16.875,-0.109
16.880,-0.155
16.885,-0.188
16.890,-0.127
16.895,-0.155
16.900,-0.211
16.905,-0.148
16.910,-0.114
16.915,-0.164
16.920,-0.134
16.925,-0.067
16.930,-0.112
16.935,-0.118
16.940,-0.033
16.945,-0.062
16.950,-0.134
16.955,-0.095
16.960,-0.082
16.965,-0.129
16.970,-0.086
16.975,-0.025
16.980,-0.051
16.985,-0.048
16.990,0.044
16.995,0.060
17.000,0.002
17.005,0.039
17.010,0.064
17.015,0.036
17.020,0.074
17.025,0.062
17.030,-0.028
17.035,-0.004
17.040,0.122
17.045,0.165
17.050,0.118
17.055,0.018
17.060,-0.197
17.065,-0.612
17.070,-1.001
17.075,-1.032
17.080,-0.898
17.085,-0.658
17.090,-0.235
17.095,0.146
17.100,0.325
17.105,0.340
17.110,0.330
17.115,0.251
17.120,0.187
17.125,0.204
17.130,0.144
17.135,0.106
17.140,0.174
17.145,0.157
17.150,0.068
17.155,0.113
17.160,0.172
17.165,0.112
17.170,0.106
17.175,0.162
17.180,0.113
17.185,0.034
17.190,0.060
17.195,0.083
17.200,0.021
17.205,0.020
17.210,0.070
17.215,0.010
17.220,-0.017
17.225,0.032
17.230,-0.012
17.235,-0.050
17.240,-0.003
17.245,-0.006
17.250,-0.061
17.255,-0.048
17.260,-0.035
17.265,-0.101
17.270,-0.108
17.275,-0.042
17.280,-0.051
17.285,-0.074
17.290,-0.043
17.295,-0.071
17.300,-0.136
17.305,-0.087
17.310,-0.017
17.315,-0.066
17.320,-0.035
17.325,0.074
17.330,0.028
17.335,-0.005
17.340,0.097
17.345,0.124
17.350,0.073
17.355,0.129
17.360,0.188
17.365,0.123
17.370,0.129
17.375,0.218
17.380,0.186
17.385,0.141
17.390,0.215
17.395,0.218
17.400,0.114
17.405,0.131
17.410,0.205
17.415,0.144
17.420,0.104
17.425,0.160
17.430,0.132
17.435,0.085
17.440,0.140
17.445,0.138
17.450,0.091
17.455,0.148
17.460,0.165
17.465,0.071
17.470,0.049
17.475,0.108
17.480,0.086
17.485,0.042
17.490,0.098
17.495,0.114
17.500,0.043
17.505,0.074
17.510,0.124
17.515,0.037
17.520,0.029
17.525,0.113
17.530,0.053
17.535,-0.020
17.540,0.053
17.545,0.061
17.550,-0.014
17.555,0.043
17.560,0.087
17.565,0.010
17.570,0.019
17.575,0.083
17.580,0.002
17.585,-0.064
17.590,0.030
17.595,0.064
17.600,0.012
17.605,0.034
17.610,0.042
17.615,-0.023
17.620,-0.021
17.625,0.049
17.630,0.040
17.635,-0.024
17.640,-0.003
17.645,0.062
17.650,0.045
17.655,0.019
17.660,-0.002
17.665,-0.062
17.670,-0.015
17.675,0.078
17.680,-0.025
17.685,-0.183
17.690,-0.110
17.695,-0.028
17.700,-0.139
17.705,-0.165
17.710,-0.108
17.715,-0.101
17.720,0.028
17.725,0.113
17.730,-0.084
17.735,-0.211
17.740,-0.097
17.745,-0.030
17.750,-0.052
17.755,-0.017
17.760,0.047
17.765,0.020
17.770,-0.002
17.775,0.094
17.780,0.089
17.785,-0.061
17.790,-0.043
17.795,0.067
17.800,0.034
17.805,0.034
17.810,0.084
17.815,0.031
17.820,0.037
17.825,0.109
17.830,0.027
17.835,-0.086
17.840,0.026
17.845,0.137
17.850,0.022
17.855,-0.061
17.860,-0.168
17.865,-0.546
17.870,-0.896
17.875,-0.906
17.880,-0.752
17.885,-0.640
17.890,-0.368
17.895,0.102
17.900,0.371
17.905,0.396
17.910,0.395
17.915,0.309
17.920,0.266
17.925,0.320
17.930,0.178
17.935,0.035
17.940,0.140
17.945,0.146
17.950,0.020
17.955,0.079
17.960,0.230
17.965,0.209
17.970,0.104
17.975,0.095
17.980,0.110
17.985,0.048
17.990,-0.021
17.995,-0.027
18.000,0.050
18.005,0.174
18.010,0.118
18.015,-0.061
18.020,-0.014
18.025,0.071
18.030,-0.062
18.035,-0.066
18.040,0.050
18.045,-0.058
18.050,-0.246
18.055,-0.170
18.060,0.049
18.065,0.002
18.070,-0.191
18.075,-0.277
18.080,-0.259
18.085,-0.124
18.090,-0.031
18.095,-0.070
18.100,-0.136
18.105,-0.146
18.110,-0.153
18.115,-0.168
18.120,-0.009
18.125,0.127
18.130,-0.044
18.135,-0.133
18.140,0.113
18.145,0.207
18.150,0.073
18.155,0.108
18.160,0.145
18.165,0.073
18.170,0.164
18.175,0.292
18.180,0.190
18.185,0.042
18.190,0.108
18.195,0.220
18.200,0.135
18.205,0.080
18.210,0.178
18.215,0.161
18.220,0.126
18.225,0.190
18.230,0.152
18.235,0.120
18.240,0.224
18.245,0.133
18.250,-0.084
18.255,0.001
18.260,0.126
18.265,0.027
18.270,-0.018
18.275,0.065
18.280,0.061
18.285,0.019
18.290,0.094
18.295,0.122
18.300,0.008
18.305,-0.019
18.310,0.051
18.315,0.008
18.320,-0.017
18.325,0.049
18.330,0.015
18.335,-0.061
18.340,-0.027
18.345,0.009
18.350,-0.020
18.355,-0.003
18.360,0.001
18.365,-0.077
18.370,-0.074
18.375,-0.011
18.380,-0.072
18.385,-0.143
18.390,-0.085
18.395,-0.047
18.400,-0.074
18.405,-0.024
18.410,-0.040
18.415,-0.195
18.420,-0.206
18.425,-0.081
18.430,-0.022
18.435,-0.004
18.440,0.052
18.445,0.043
18.450,-0.088
18.455,-0.101
18.460,-0.018
18.465,-0.057
18.470,-0.039
18.475,0.083
18.480,0.024
18.485,-0.087
18.490,-0.004
18.495,0.039
18.500,-0.060
18.505,-0.045
18.510,0.025
18.515,-0.017
18.520,-0.011
18.525,0.054
18.530,0.007
18.535,-0.083
18.540,-0.064
18.545,-0.038
18.550,-0.156
18.555,-0.426
18.560,-0.863
18.565,-1.170
18.570,-1.041
18.575,-0.742
18.580,-0.539
18.585,-0.257
18.590,0.148
18.595,0.334
18.600,0.330
18.605,0.390
18.610,0.372
18.615,0.218
18.620,0.153
18.625,0.171
18.630,0.102
18.635,0.025
18.640,0.067
18.645,0.087
18.650,0.017
18.655,0.024
18.660,0.084
18.665,0.062
18.670,0.043
18.675,0.057
18.680,-0.009
18.685,-0.056
18.690,0.019
18.695,0.021
18.700,-0.072
18.705,-0.048
18.710,0.004
18.715,-0.072
18.720,-0.102
18.725,-0.034
18.730,-0.063
18.735,-0.124
18.740,-0.088
18.745,-0.097
18.750,-0.177
18.755,-0.153
18.760,-0.102
18.765,-0.159
18.770,-0.162
18.775,-0.078
18.780,-0.100
18.785,-0.148
18.790,-0.075
18.795,-0.043
18.800,-0.094
18.805,-0.046
18.810,0.029
18.815,0.004
18.820,0.023
18.825,0.114
18.830,0.109
18.835,0.083
18.840,0.175
18.845,0.214
18.850,0.140
18.855,0.158
18.860,0.221
18.865,0.171
18.870,0.142
18.875,0.195
18.880,0.164
18.885,0.105
18.890,0.159
18.895,0.179
18.900,0.108
18.905,0.117
18.910,0.155
18.915,0.096
18.920,0.076
18.925,0.143
18.930,0.124
18.935,0.058
18.940,0.104
18.945,0.129
18.950,0.052
18.955,0.060
18.960,0.107
18.965,0.047
18.970,0.027
18.975,0.095
18.980,0.080
18.985,0.037
18.990,0.088
18.995,0.087
19.000,0.013
19.005,0.047
19.010,0.103
19.015,0.044
19.020,0.023
19.025,0.087
19.030,0.051
19.035,-0.016
19.040,0.034
19.045,0.054
19.050,-0.004
19.055,0.022
19.060,0.063
19.065,0.002
19.070,-0.012
19.075,0.056
19.080,0.027
19.085,-0.034
19.090,0.018
19.095,0.038
19.100,-0.023
19.105,0.006
19.110,0.057
19.115,-0.014
19.120,-0.048
19.125,0.020
19.130,0.006
19.135,-0.049
19.140,-0.005
19.145,0.011
19.150,-0.050
19.155,-0.023
19.160,0.029
19.165,-0.034
19.170,-0.069
19.175,-0.019
19.180,-0.059
19.185,-0.129
19.190,-0.077
19.195,-0.045
19.200,-0.098
19.205,-0.070
19.210,-0.010
19.215,-0.069
19.220,-0.114
19.225,-0.053
19.230,-0.038
19.235,-0.066
19.240,-0.011
19.245,0.016
19.250,-0.050
19.255,-0.040
19.260,0.024
19.265,-0.008
19.270,-0.014
19.275,0.062
19.280,0.046
19.285,-0.012
19.290,0.037
19.295,0.062
19.300,-0.006
19.305,0.006
19.310,0.062
19.315,0.011
19.320,-0.015
19.325,0.053
19.330,0.060
19.335,0.027
19.340,0.050
19.345,0.004
19.350,-0.188
19.355,-0.418
19.360,-0.709
19.365,-0.987
19.370,-0.959
19.375,-0.696
19.380,-0.484
19.385,-0.202
19.390,0.214
19.395,0.397
19.400,0.362
19.405,0.379
19.410,0.355
19.415,0.223
19.420,0.155
19.425,0.177
19.430,0.132
19.435,0.067
19.440,0.111
19.445,0.128
19.450,0.055
19.455,0.065
19.460,0.114
19.465,0.057
19.470,0.028
19.475,0.086
19.480,0.061
19.485,-0.004
19.490,0.040
19.495,0.059
19.500,-0.021
19.505,-0.019
19.510,0.026
19.515,-0.041
19.520,-0.083
19.525,-0.027
19.530,-0.054
19.535,-0.127
19.540,-0.088
19.545,-0.066
19.550,-0.138
19.555,-0.126
19.560,-0.065
19.565,-0.113
19.570,-0.135
19.575,-0.062
19.580,-0.077
19.585,-0.132
19.590,-0.075
19.595,-0.039
19.600,-0.087
19.605,-0.052
19.610,0.031
19.615,0.010
19.620,0.012
19.625,0.106
19.630,0.120
19.635,0.088
19.640,0.160
19.645,0.205
19.650,0.151
19.655,0.171
19.660,0.223
19.665,0.166
19.670,0.138
19.675,0.204
19.680,0.191
19.685,0.129
19.690,0.165
19.695,0.180
19.700,0.109
19.705,0.119
19.710,0.171
19.715,0.115
19.720,0.080
19.725,0.140
19.730,0.123
19.735,0.055
19.740,0.092
19.745,0.119
19.750,0.055
19.755,0.064
19.760,0.116
19.765,0.061
19.770,0.028
19.775,0.088
19.780,0.071
19.785,0.011
19.790,0.059
19.795,0.086
19.800,0.020
19.805,0.031
19.810,0.081
19.815,0.027
19.820,0.001
19.825,0.069
19.830,0.055
19.835,-0.011
19.840,0.034
19.845,0.060
19.850,-0.013
19.855,0.000
19.860,0.065
19.865,0.010
19.870,-0.035
19.875,0.028
19.880,0.023
19.885,-0.037
19.890,0.010
19.895,0.035
19.900,-0.037
19.905,-0.019
19.910,0.038
19.915,-0.019
19.920,-0.055
19.925,0.003
19.930,-0.014
19.935,-0.087
19.940,-0.062
19.945,-0.056
19.950,-0.142
19.955,-0.137
19.960,-0.073
19.965,-0.109
19.970,-0.116
19.975,-0.025
19.980,-0.040
19.985,-0.137
19.990,-0.100
19.995,-0.037
20.000,-0.075
20.005,-0.049
20.010,0.026
20.015,-0.021
20.020,-0.060
20.025,0.014
20.030,0.016
20.035,-0.041
20.040,0.015
20.045,0.055
20.050,-0.007
20.055,0.005
20.060,0.061
20.065,0.014
20.070,-0.017
20.075,0.045
20.080,0.030
20.085,-0.040
20.090,0.014
20.095,0.087
20.100,0.058
20.105,0.039
20.110,0.015
20.115,-0.170
20.120,-0.461
20.125,-0.767
20.130,-1.026
20.135,-1.045
20.140,-0.798
20.145,-0.511
20.150,-0.182
20.155,0.241
20.160,0.438
20.165,0.348
20.170,0.276
20.175,0.275
20.180,0.205
20.185,0.107
20.190,0.132
20.195,0.158
20.200,0.088
20.205,0.086
20.210,0.134
20.215,0.081
20.220,0.051
20.225,0.106
20.230,0.076
20.235,0.014
20.240,0.062
20.245,0.083
20.250,0.007
20.255,0.009
20.260,0.068
20.265,0.016
20.270,-0.040
20.275,0.003
20.280,-0.016
20.285,-0.091
20.290,-0.058
20.295,-0.032
20.300,-0.107
20.305,-0.115
20.310,-0.067
20.315,-0.116
20.320,-0.151
20.325,-0.094
20.330,-0.104
20.335,-0.156
20.340,-0.105
20.345,-0.071
20.350,-0.129
20.355,-0.104
20.360,-0.026
20.365,-0.057
20.370,-0.071
20.375,0.025
20.380,0.047
20.385,0.013
20.390,0.088
20.395,0.149
20.400,0.109
20.405,0.140
20.410,0.222
20.415,0.192
20.420,0.156
20.425,0.205
20.430,0.187
20.435,0.121
20.440,0.170
20.445,0.211
20.450,0.151
20.455,0.159
20.460,0.213
20.465,0.150
20.470,0.096
20.475,0.153
20.480,0.140
20.485,0.068
20.490,0.106
20.495,0.145
20.500,0.079
20.505,0.074
20.510,0.129
20.515,0.080
20.520,0.043
20.525,0.103
20.530,0.091
20.535,0.036
20.540,0.085
20.545,0.111
20.550,0.034
20.555,0.035
20.560,0.097
20.565,0.055
20.570,0.021
20.575,0.081
20.580,0.058
20.585,-0.005
20.590,0.044
20.595,0.069
20.600,0.001
20.605,0.012
20.610,0.068
20.615,0.015
20.620,-0.020
20.625,0.046
20.630,0.036
20.635,-0.033
20.640,0.000
20.645,0.011
20.650,-0.080
20.655,-0.094
20.660,-0.043
20.665,-0.082
20.670,-0.106
20.675,-0.033
20.680,-0.026
20.685,-0.079
20.690,-0.050
20.695,-0.035
20.700,-0.086
20.705,-0.049
20.710,0.028
20.715,-0.010
20.720,-0.048
20.725,-0.007
20.730,-0.019
20.735,-0.056
20.740,0.007
20.745,0.056
20.750,0.002
20.755,0.004
20.760,0.063
20.765,0.015
20.770,-0.030
20.775,0.039
20.780,0.041
20.785,-0.029
20.790,0.000
20.795,0.024
20.800,-0.033
20.805,0.009
20.810,0.085
20.815,-0.008
20.820,-0.138
20.825,-0.253
20.830,-0.580
20.835,-0.979
20.840,-1.037
20.845,-0.843
20.850,-0.682
20.855,-0.368
20.860,0.138
20.865,0.379
20.870,0.345
20.875,0.330
20.880,0.248
20.885,0.129
20.890,0.132
20.895,0.138
20.900,0.072
20.905,0.084
20.910,0.147
20.915,0.096
20.920,0.041
20.925,0.090
20.930,0.080
20.935,0.016
20.940,0.051
20.945,0.079
20.950,0.008
20.955,0.000
20.960,0.048
20.965,-0.001
20.970,-0.040
20.975,0.017
20.980,0.001
20.985,-0.073
20.990,-0.044
20.995,-0.016
21.000,-0.093
21.005,-0.116
21.010,-0.073
21.015,-0.121
21.020,-0.161
21.025,-0.101
21.030,-0.109
21.035,-0.176
21.040,-0.135
21.045,-0.092
21.050,-0.145
21.055,-0.137
21.060,-0.069
21.065,-0.094
21.070,-0.118
21.075,-0.044
21.080,-0.026
21.085,-0.060
21.090,0.015
21.095,0.089
21.100,0.054
21.105,0.082
21.110,0.168
21.115,0.145
21.120,0.118
21.125,0.192
21.130,0.200
21.135,0.133
21.140,0.163
21.145,0.199
21.150,0.136
21.155,0.141
21.160,0.202
21.165,0.145
21.170,0.090
21.175,0.145
21.180,0.139
21.185,0.071
21.190,0.107
21.195,0.142
21.200,0.076
21.205,0.080
21.210,0.142
21.215,0.094
21.220,0.041
21.225,0.093
21.230,0.088
21.235,0.023
21.240,0.063
21.245,0.102
21.250,0.031
21.255,0.026
21.260,0.089
21.265,0.046
21.270,0.000
21.275,0.062
21.280,0.067
21.285,0.004
21.290,0.038
21.295,0.071
21.300,0.004
21.305,0.004
21.310,0.069
21.315,0.028
21.320,-0.020
21.325,0.034
21.330,0.032
21.335,-0.030
21.340,0.011
21.345,0.047
21.350,-0.029
21.355,-0.042
21.360,0.017
21.365,-0.032
21.370,-0.098
21.375,-0.064
21.380,-0.074
21.385,-0.123
21.390,-0.066
21.395,-0.016
21.400,-0.070
21.405,-0.068
21.410,-0.028
21.415,-0.089
21.420,-0.107
21.425,-0.013
21.430,-0.001
21.435,-0.056
21.440,-0.013
21.445,0.023
21.450,-0.038
21.455,-0.030
21.460,0.040
21.465,0.009
21.470,-0.020
21.475,0.051
21.480,0.051
21.485,-0.016
21.490,0.021
21.495,0.057
21.500,-0.013
21.505,-0.021
21.510,0.037
21.515,0.000
21.520,-0.023
21.525,0.064
21.530,0.046
21.535,-0.094
21.540,-0.173
21.545,-0.344
21.550,-0.732
21.555,-0.999
21.560,-0.914
21.565,-0.729
21.570,-0.557
21.575,-0.191
21.580,0.195
21.585,0.326
21.590,0.394
21.595,0.414
21.600,0.266
21.605,0.183
21.610,0.201
21.615,0.133
21.620,0.079
21.625,0.131
21.630,0.120
21.635,0.043
21.640,0.066
21.645,0.102
21.650,0.035
21.655,0.030
21.660,0.093
21.665,0.048
21.670,-0.004
21.675,0.047
21.680,0.045
21.685,-0.021
21.690,0.003
21.695,0.029
21.700,-0.040
21.705,-0.055
21.710,-0.003
21.715,-0.049
21.720,-0.108
21.725,-0.063
21.730,-0.066
21.735,-0.136
21.740,-0.112
21.745,-0.074
21.750,-0.130
21.755,-0.133
21.760,-0.069
21.765,-0.106
21.770,-0.154
21.775,-0.092
21.780,-0.076
21.785,-0.131
21.790,-0.087
21.795,-0.026
21.800,-0.061
21.805,-0.040
21.810,0.053
21.815,0.048
21.820,0.035
21.825,0.126
21.830,0.156
21.835,0.107
21.840,0.154
21.845,0.209
21.850,0.157
21.855,0.152
21.860,0.211
21.865,0.172
21.870,0.122
21.875,0.176
21.880,0.173
21.885,0.104
21.890,0.144
21.895,0.188
21.900,0.117
21.905,0.102
21.910,0.162
21.915,0.121
21.920,0.067
21.925,0.122
21.930,0.121
21.935,0.049
21.940,0.078
21.945,0.123
21.950,0.067
21.955,0.058
21.960,0.119
21.965,0.087
21.970,0.040
21.975,0.093
21.980,0.094
21.985,0.022
21.990,0.049
21.995,0.090
22.000,0.028
22.005,0.020
22.010,0.083
22.015,0.049
22.020,-0.001
22.025,0.051
22.030,0.055
22.035,-0.011
22.040,0.021
22.045,0.059
22.050,-0.011
22.055,-0.025
22.060,0.038
22.065,0.003
22.070,-0.046
22.075,0.014
22.080,0.023
22.085,-0.045
22.090,-0.016
22.095,0.031
22.100,-0.028
22.105,-0.041
22.110,0.023
22.115,-0.011
22.120,-0.067
22.125,-0.014
22.130,-0.011
22.135,-0.088
22.140,-0.069
22.145,-0.045
22.150,-0.127
22.155,-0.138
22.160,-0.062
22.165,-0.087
22.170,-0.126
22.175,-0.052
22.180,-0.043
22.185,-0.136
22.190,-0.111
22.195,-0.031
22.200,-0.062
22.205,-0.064
22.210,0.011
22.215,-0.017
22.220,-0.068
22.225,-0.004
22.230,0.012
22.235,-0.046
22.240,0.002
22.245,0.061
22.250,0.007
22.255,-0.006
22.260,0.051
22.265,0.015
22.270,-0.036
22.275,0.021
22.280,0.035
22.285,-0.033
22.290,-0.003
22.295,0.067
22.300,0.023
22.305,-0.040
22.310,-0.064
22.315,-0.229
22.320,-0.532
22.325,-0.802
22.330,-0.934
22.335,-0.855
22.340,-0.619
22.345,-0.363
22.350,-0.085
22.355,0.228
22.360,0.412
22.365,0.395
22.370,0.309
22.375,0.279
22.380,0.225
22.385,0.114
22.390,0.107
22.395,0.141
22.400,0.072
22.405,0.048
22.410,0.110
22.415,0.078
22.420,0.026
22.425,0.084
22.430,0.091
22.435,0.016
22.440,0.038
22.445,0.079
22.450,0.010
22.455,-0.016
22.460,0.039
22.465,0.001
22.470,-0.055
22.475,-0.003
22.480,0.002
22.485,-0.074
22.490,-0.064
22.495,-0.031
22.500,-0.096
22.505,-0.117
22.510,-0.061
22.515,-0.095
22.520,-0.146
22.525,-0.089
22.530,-0.075
22.535,-0.134
22.540,-0.104
22.545,-0.056
22.550,-0.115
22.555,-0.129
22.560,-0.063
22.565,-0.084
22.570,-0.118
22.575,-0.034
22.580,0.013
22.585,-0.018
22.590,0.042
22.595,0.120
22.600,0.087
22.605,0.097
22.610,0.187
22.615,0.174
22.620,0.131
22.625,0.194
22.630,0.207
22.635,0.135
22.640,0.157
22.645,0.203
22.650,0.141
22.655,0.118
22.660,0.174
22.665,0.142
22.670,0.089
22.675,0.141
22.680,0.149
22.685,0.082
22.690,0.102
22.695,0.144
22.700,0.085
22.705,0.065
22.710,0.127
22.715,0.100
22.720,0.048
22.725,0.102
22.730,0.110
22.735,0.038
22.740,0.060
22.745,0.109
22.750,0.055
22.755,0.042
22.760,0.105
22.765,0.071
22.770,0.014
22.775,0.064
22.780,0.074
22.785,0.005
22.790,0.028
22.795,0.081
22.800,0.022
22.805,-0.001
22.810,0.061
22.815,0.031
22.820,-0.023
22.825,0.032
22.830,0.046
22.835,-0.019
22.840,0.004
22.845,0.046
22.850,-0.017
22.855,-0.036
22.860,0.023
22.865,-0.012
22.870,-0.079
22.875,-0.043
22.880,-0.048
22.885,-0.126
22.890,-0.095
22.895,-0.034
22.900,-0.088
22.905,-0.097
22.910,-0.020
22.915,-0.057
22.920,-0.136
22.925,-0.069
22.930,-0.012
22.935,-0.061
22.940,-0.033
22.945,0.028
22.950,-0.033
22.955,-0.052
22.960,0.025
22.965,0.005
22.970,-0.038
22.975,0.034
22.980,0.056
22.985,-0.012
22.990,0.013
22.995,0.066
23.000,0.007
23.005,-0.018
23.010,0.044
23.015,0.017
23.020,-0.042
23.025,0.019
23.030,0.070
23.035,0.016
23.040,-0.013
23.045,-0.048
23.050,-0.243
23.055,-0.526
23.060,-0.786
23.065,-0.935
23.070,-0.840
23.075,-0.606
23.080,-0.393
23.085,-0.112
23.090,0.241
23.095,0.410
23.100,0.360
23.105,0.296
23.110,0.271
23.115,0.184
23.120,0.087
23.125,0.115
23.130,0.129
23.135,0.054
23.140,0.066
23.145,0.112
23.150,0.053
23.155,0.031
23.160,0.091
23.165,0.060
23.170,0.000
23.175,0.046
23.180,0.056
23.185,-0.021
23.190,-0.004
23.195,0.045
23.200,-0.021
23.205,-0.053
23.210,0.001
23.215,-0.035
23.220,-0.102
23.225,-0.056
23.230,-0.048
23.235,-0.128
23.240,-0.117
23.245,-0.071
23.250,-0.132
23.255,-0.154
23.260,-0.085
23.265,-0.103
23.270,-0.153
23.275,-0.094
23.280,-0.075
23.285,-0.141
23.290,-0.114
23.295,-0.054
23.300,-0.095
23.305,-0.089
23.310,0.010
23.315,0.019
23.320,-0.006
23.325,0.078
23.330,0.127
23.335,0.088
23.340,0.131
23.345,0.202
23.350,0.161
23.355,0.147
23.360,0.211
23.365,0.190
23.370,0.133
23.375,0.179
23.380,0.197
23.385,0.129
23.390,0.135
23.395,0.175
23.400,0.120
23.405,0.103
23.410,0.162
23.415,0.123
23.420,0.066
23.425,0.118
23.430,0.132
23.435,0.062
23.440,0.078
23.445,0.128
23.450,0.070
23.455,0.043
23.460,0.105
23.465,0.082
23.470,0.025
23.475,0.076
23.480,0.096
23.485,0.026
23.490,0.043
23.495,0.096
23.500,0.040
23.505,0.016
23.510,0.081
23.515,0.060
23.520,0.001
23.525,0.047
23.530,0.061
23.535,-0.008
23.540,0.011
23.545,0.066
23.550,0.011
23.555,-0.016
23.560,0.045
23.565,0.019
23.570,-0.041
23.575,0.009
23.580,0.029
23.585,-0.039
23.590,-0.022
23.595,0.031
23.600,-0.021
23.605,-0.045
23.610,0.015
23.615,-0.010
23.620,-0.068
23.625,-0.018
23.630,-0.005
23.635,-0.086
23.640,-0.088
23.645,-0.056
23.650,-0.114
23.655,-0.128
23.660,-0.056
23.665,-0.070
23.670,-0.115
23.675,-0.061
23.680,-0.064
23.685,-0.147
23.690,-0.098
23.695,-0.004
23.700,-0.042
23.705,-0.057
23.710,0.012
23.715,-0.012
23.720,-0.066
23.725,-0.005
23.730,0.027
23.735,-0.026
23.740,0.004
23.745,0.064
23.750,0.009
23.755,-0.017
23.760,0.050
23.765,0.029
23.770,-0.031
23.775,0.017
23.780,0.040
23.785,-0.025
23.790,0.007
23.795,0.091
23.800,0.022
23.805,-0.073
23.810,-0.103
23.815,-0.297
23.820,-0.649
23.825,-0.855
23.830,-0.824
23.835,-0.711
23.840,-0.552
23.845,-0.271
23.850,0.045
23.855,0.268
23.860,0.395
23.865,0.375
23.870,0.255
23.875,0.220
23.880,0.187
23.885,0.083
23.890,0.088
23.895,0.147
23.900,0.089
23.905,0.053
23.910,0.111
23.915,0.086
23.920,0.022
23.925,0.069
23.930,0.086
23.935,0.009
23.940,0.015
23.945,0.065
23.950,0.008
23.955,-0.027
23.960,0.028
23.965,0.003
23.970,-0.064
23.975,-0.023
23.980,-0.004
23.985,-0.078
23.990,-0.075
23.995,-0.032
24.000,-0.096
24.005,-0.134
24.010,-0.079
24.015,-0.100
24.020,-0.155
24.025,-0.104
24.030,-0.075
24.035,-0.136
24.040,-0.118
24.045,-0.059
24.050,-0.105
24.055,-0.125
24.060,-0.050
24.065,-0.050
24.070,-0.083
24.075,-0.006
24.080,0.052
24.085,0.024
24.090,0.071
24.095,0.154
24.100,0.124
24.105,0.111
24.110,0.188
24.115,0.184
24.120,0.134
24.125,0.186
24.130,0.212
24.135,0.142
24.140,0.154
24.145,0.208
24.150,0.150
24.155,0.117
24.160,0.179
24.165,0.154
24.170,0.084
24.175,0.127
24.180,0.152
24.185,0.082
24.190,0.087
24.195,0.133
24.200,0.076
24.205,0.047
24.210,0.118
24.215,0.102
24.220,0.036
24.225,0.080
24.230,0.104
24.235,0.037
24.240,0.049
24.245,0.108
24.250,0.061
24.255,0.028
24.260,0.087
24.265,0.068
24.270,0.008
24.275,0.055
24.280,0.076
24.285,0.003
24.290,0.007
24.295,0.055
24.300,-0.005
24.305,-0.055
24.310,-0.010
24.315,-0.027
24.320,-0.079
24.325,-0.029
24.330,0.001
24.335,-0.058
24.340,-0.049
24.345,-0.014
24.350,-0.072
24.355,-0.074
24.360,0.017
24.365,0.010
24.370,-0.035
24.375,0.025
24.380,0.052
24.385,-0.013
24.390,0.000
24.395,0.062
24.400,0.029
24.405,0.013
24.410,0.075
24.415,0.052
24.420,-0.008
24.425,0.043
24.430,0.069
24.435,-0.006
24.440,-0.001
24.445,0.055
24.450,0.004
24.455,-0.027
24.460,0.065
24.465,0.074
24.470,-0.028
24.475,-0.056
24.480,-0.144
24.485,-0.443
24.490,-0.745
24.495,-0.838
24.500,-0.775
24.505,-0.660
24.510,-0.466
24.515,-0.186
24.520,0.110
24.525,0.320
24.530,0.383
24.535,0.308
24.540,0.236
24.545,0.220
24.550,0.127
24.555,0.066
24.560,0.126
24.565,0.111
24.570,0.038
24.575,0.074
24.580,0.094
24.585,0.014
24.590,0.013
24.595,0.064
24.600,0.011
24.605,-0.018
24.610,0.051
24.615,0.032
24.620,-0.040
24.625,-0.005
24.630,0.011
24.635,-0.064
24.640,-0.060
24.645,-0.007
24.650,-0.067
24.655,-0.120
24.660,-0.070
24.665,-0.088
24.670,-0.159
24.675,-0.125
24.680,-0.102
24.685,-0.174
24.690,-0.169
24.695,-0.106
24.700,-0.143
24.705,-0.170
24.710,-0.100
24.715,-0.096
24.720,-0.144
24.725,-0.082
24.730,-0.024
24.735,-0.067
24.740,-0.039
24.745,0.048
24.750,0.032
24.755,0.032
24.760,0.132
24.765,0.152
24.770,0.110
24.775,0.170
24.780,0.213
24.785,0.146
24.790,0.152
24.795,0.217
24.800,0.169
24.805,0.123
24.810,0.176
24.815,0.161
24.820,0.099
24.825,0.141
24.830,0.170
24.835,0.093
24.840,0.084
24.845,0.134
24.850,0.086
24.855,0.055
24.860,0.118
24.865,0.107
24.870,0.043
24.875,0.083
24.880,0.111
24.885,0.042
24.890,0.044
24.895,0.093
24.900,0.040
24.905,0.007
24.910,0.072
24.915,0.067
24.920,0.008
24.925,0.053
24.930,0.085
24.935,0.013
24.940,0.012
24.945,0.068
24.950,0.020
24.955,-0.019
24.960,0.043
24.965,0.034
24.970,-0.023
24.975,0.024
24.980,0.052
24.985,-0.021
24.990,-0.016
24.995,0.046
25.000,-0.001
25.005,-0.042
25.010,0.018
25.015,0.009
25.020,-0.056
25.025,-0.017
25.030,0.021
25.035,-0.042
25.040,-0.041
25.045,0.014
25.050,-0.031
25.055,-0.063
25.060,0.003
25.065,-0.008
25.070,-0.067
25.075,-0.020
25.080,0.007
25.085,-0.063
25.090,-0.063
25.095,-0.011
25.100,-0.062
25.105,-0.103
25.110,-0.053
25.115,-0.079
25.120,-0.149
25.125,-0.097
25.130,-0.052
25.135,-0.107
25.140,-0.093
25.145,-0.037
25.150,-0.106
25.155,-0.149
25.160,-0.050
25.165,-0.021
25.170,-0.076
25.175,-0.027
25.180,0.015
25.185,-0.055
25.190,-0.050
25.195,0.022
25.200,-0.007
25.205,-0.025
25.210,0.055
25.215,0.054
25.220,-0.013
25.225,0.025
25.230,0.062
25.235,-0.002
25.240,-0.002
25.245,0.054
25.250,0.007
25.255,-0.029
25.260,0.058
25.265,0.087
25.270,0.007
25.275,-0.021
25.280,-0.082
25.285,-0.342
25.290,-0.658
25.295,-0.845
25.300,-0.883
25.305,-0.778
25.310,-0.582
25.315,-0.348
25.320,-0.024
25.325,0.291
25.330,0.420
25.335,0.390
25.340,0.336
25.345,0.296
25.350,0.199
25.355,0.117
25.360,0.153
25.365,0.151
25.370,0.081
25.375,0.112
25.380,0.141
25.385,0.066
25.390,0.062
25.395,0.114
25.400,0.064
25.405,0.021
25.410,0.078
25.415,0.066
25.420,-0.005
25.425,0.030
25.430,0.058
25.435,-0.017
25.440,-0.029
25.445,0.015
25.450,-0.039
25.455,-0.087
25.460,-0.034
25.465,-0.045
25.470,-0.115
25.475,-0.086
25.480,-0.059
25.485,-0.130
25.490,-0.132
25.495,-0.067
25.500,-0.100
25.505,-0.131
25.510,-0.065
25.515,-0.065
25.520,-0.128
25.525,-0.088
25.530,-0.043
25.535,-0.091
25.540,-0.068
25.545,0.023
25.550,0.016
25.555,0.008
25.560,0.103
25.565,0.130
25.570,0.089
25.575,0.147
25.580,0.198
25.585,0.142
25.590,0.147
25.595,0.211
25.600,0.170
25.605,0.131
25.610,0.194
25.615,0.184
25.620,0.111
25.625,0.143
25.630,0.174
25.635,0.106
25.640,0.102
25.645,0.160
25.650,0.115
25.655,0.069
25.660,0.127
25.665,0.122
25.670,0.053
25.675,0.087
25.680,0.120
25.685,0.054
25.690,0.052
25.695,0.110
25.700,0.067
25.705,0.028
25.710,0.092
25.715,0.088
25.720,0.022
25.725,0.061
25.730,0.097
25.735,0.029
25.740,0.024
25.745,0.084
25.750,0.044
25.755,0.003
25.760,0.063
25.765,0.059
25.770,-0.010
25.775,0.022
25.780,0.061
25.785,-0.003
25.790,-0.007
25.795,0.056
25.800,0.017
25.805,-0.029
25.810,0.030
25.815,0.030
25.820,-0.037
25.825,0.000
25.830,0.038
25.835,-0.027
25.840,-0.029
25.845,0.034
25.850,-0.004
25.855,-0.045
25.860,0.008
25.865,0.004
25.870,-0.055
25.875,-0.023
25.880,0.005
25.885,-0.077
25.890,-0.101
25.895,-0.056
25.900,-0.109
25.905,-0.140
25.910,-0.066
25.915,-0.054
25.920,-0.100
25.925,-0.078
25.930,-0.073
25.935,-0.127
25.940,-0.086
25.945,0.007
25.950,-0.017
25.955,-0.060
25.960,-0.009
25.965,-0.006
25.970,-0.061
25.975,-0.012
25.980,0.043
25.985,-0.007
25.990,0.003
25.995,0.066
26.000,0.022
26.005,-0.022
26.010,0.034
26.015,0.032
26.020,-0.033
26.025,-0.004
26.030,0.037
26.035,-0.017
26.040,0.003
26.045,0.104
26.050,0.036
26.055,-0.093
26.060,-0.134
26.065,-0.349
26.070,-0.746
26.075,-0.916
26.080,-0.819
26.085,-0.726
26.090,-0.569
26.095,-0.207
26.100,0.167
26.105,0.329
26.110,0.387
26.115,0.363
26.120,0.224
26.125,0.179
26.130,0.175
26.135,0.079
26.140,0.065
26.145,0.137
26.150,0.106
26.155,0.054
26.160,0.107
26.165,0.111
26.170,0.036
26.175,0.051
26.180,0.079
26.185,0.015
26.190,0.009
26.195,0.066
26.200,0.020
26.205,-0.024
26.210,0.026
26.215,0.010
26.220,-0.055
26.225,-0.025
26.230,-0.010
26.235,-0.091
26.240,-0.096
26.245,-0.043
26.250,-0.093
26.255,-0.143
26.260,-0.090
26.265,-0.092
26.270,-0.158
26.275,-0.119
26.280,-0.074
26.285,-0.133
26.290,-0.136
26.295,-0.067
26.300,-0.085
26.305,-0.125
26.310,-0.057
26.315,-0.014
26.320,-0.051
26.325,0.008
26.330,0.108
26.335,0.078
26.340,0.075
26.345,0.174
26.350,0.168
26.355,0.129
26.360,0.213
26.365,0.223
26.370,0.138
26.375,0.176
26.380,0.223
26.385,0.153
26.390,0.143
26.395,0.199
26.400,0.167
26.405,0.124
26.410,0.164
26.415,0.165
26.420,0.107
26.425,0.115
26.430,0.136
26.435,0.088
26.440,0.082
26.445,0.142
26.450,0.108
26.455,0.042
26.460,0.103
26.465,0.113
26.470,0.026
26.475,0.062
26.480,0.114
26.485,0.038
26.490,0.025
26.495,0.101
26.500,0.063
26.505,0.004
26.510,0.077
26.515,0.076
26.520,-0.020
26.525,0.031
26.530,0.090
26.535,0.012
26.540,0.006
26.545,0.074
26.550,0.033
26.555,-0.020
26.560,0.043
26.565,0.058
26.570,-0.012
26.575,0.011
26.580,0.048
26.585,-0.011
26.590,-0.011
26.595,0.054
26.600,0.003
26.605,-0.058
26.610,0.014
26.615,0.028
26.620,-0.036
26.625,-0.008
26.630,0.017
26.635,-0.041
26.640,-0.038
26.645,0.025
26.650,-0.010
26.655,-0.071
26.660,-0.028
26.665,-0.027
26.670,-0.116
26.675,-0.108
26.680,-0.061
26.685,-0.107
26.690,-0.107
26.695,-0.040
26.700,-0.063
26.705,-0.103
26.710,-0.067
26.715,-0.074
26.720,-0.110
26.725,-0.042
26.730,0.019
26.735,-0.031
26.740,-0.045
26.745,0.010
26.750,-0.018
26.755,-0.053
26.760,0.023
26.765,0.047
26.770,-0.008
26.775,0.025
26.780,0.068
26.785,0.009
26.790,-0.003
26.795,0.061
26.800,0.027
26.805,-0.030
26.810,0.022
26.815,0.034
26.820,-0.008
26.825,0.054
26.830,0.079
26.835,-0.051
26.840,-0.162
26.845,-0.296
26.850,-0.642
26.855,-0.928
26.860,-0.845
26.865,-0.676
26.870,-0.593
26.875,-0.278
26.880,0.189
26.885,0.357
26.890,0.340
26.895,0.360
26.900,0.264
26.905,0.142
26.910,0.148
26.915,0.133
26.920,0.066
26.925,0.088
26.930,0.127
26.935,0.063
26.940,0.044
26.945,0.102
26.950,0.067
26.955,0.015
26.960,0.067
26.965,0.070
26.970,-0.003
26.975,0.016
26.980,0.056
26.985,-0.010
26.990,-0.035
26.995,0.018
27.000,-0.016
27.005,-0.074
27.010,-0.035
27.015,-0.040
27.020,-0.113
27.025,-0.101
27.030,-0.070
27.035,-0.134
27.040,-0.155
27.045,-0.097
27.050,-0.123
27.055,-0.167
27.060,-0.110
27.065,-0.094
27.070,-0.152
27.075,-0.120
27.080,-0.067
27.085,-0.112
27.090,-0.108
27.095,-0.025
27.100,-0.027
27.105,-0.040
27.110,0.047
27.115,0.090
27.120,0.059
27.125,0.110
27.130,0.177
27.135,0.138
27.140,0.138
27.145,0.209
27.150,0.185
27.155,0.141
27.160,0.195
27.165,0.202
27.170,0.135
27.175,0.154
27.180,0.191
27.185,0.129
27.190,0.110
27.195,0.164
27.200,0.129
27.205,0.076
27.210,0.124
27.215,0.132
27.220,0.066
27.225,0.080
27.230,0.118
27.235,0.062
27.240,0.047
27.245,0.106
27.250,0.077
27.255,0.026
27.260,0.072
27.265,0.081
27.270,0.017
27.275,0.039
27.280,0.084
27.285,0.029
27.290,0.013
27.295,0.073
27.300,0.046
27.305,-0.005
27.310,0.043
27.315,0.057
27.320,-0.004
27.325,0.014
27.330,0.059
27.335,0.001
27.340,-0.027
27.345,0.030
27.350,0.005
27.355,-0.044
27.360,0.014
27.365,0.038
27.370,-0.018
27.375,0.005
27.380,0.048
27.385,-0.008
27.390,-0.029
27.395,0.026
27.400,0.002
27.405,-0.050
27.410,-0.006
27.415,0.006
27.420,-0.050
27.425,-0.017
27.430,0.021
27.435,-0.052
27.440,-0.072
27.445,-0.016
27.450,-0.059
27.455,-0.130
27.460,-0.097
27.465,-0.083
27.470,-0.134
27.475,-0.102
27.480,-0.052
27.485,-0.105
27.490,-0.122
27.495,-0.074
27.500,-0.115
27.505,-0.163
27.510,-0.102
27.515,-0.062
27.520,-0.067
27.525,-0.014
27.530,0.022
27.535,-0.033
27.540,-0.044
27.545,0.016
27.550,0.026
27.555,0.011
27.560,0.028
27.565,0.012
27.570,-0.040
27.575,-0.029
27.580,-0.029
27.585,-0.092
27.590,-0.061
27.595,0.077
27.600,0.117
27.605,0.063
27.610,0.055
27.615,-0.033
27.620,-0.182
27.625,-0.182
27.630,-0.242
27.635,-0.610
27.640,-0.910
27.645,-0.823
27.650,-0.681
27.655,-0.620
27.660,-0.300
27.665,0.192
27.670,0.420
27.675,0.450
27.680,0.399
27.685,0.205
27.690,0.115
27.695,0.196
27.700,0.191
27.705,0.112
27.710,0.083
27.715,0.038
27.720,0.006
27.725,0.060
27.730,0.079
27.735,0.021
27.740,0.053
27.745,0.112
27.750,0.023
27.755,-0.055
27.760,0.057
27.765,0.134
27.770,0.023
27.775,-0.025
27.780,0.028
27.785,-0.023
27.790,-0.109
27.795,-0.127
27.800,-0.142
27.805,-0.167
27.810,-0.142
27.815,-0.082
27.820,-0.065
27.825,-0.140
27.830,-0.242
27.835,-0.212
27.840,-0.100
27.845,-0.051
27.850,-0.056
27.855,-0.045
27.860,-0.007
27.865,-0.030
27.870,-0.065
27.875,0.015
27.880,0.066
27.885,-0.076
27.890,-0.141
27.895,0.102
27.900,0.255
27.905,0.118
27.910,0.076
27.915,0.198
27.920,0.263
27.925,0.267
27.930,0.282
27.935,0.220
27.940,0.099
27.945,0.137
27.950,0.215
27.955,0.151
27.960,0.218
27.965,0.351
27.970,0.251
27.975,0.104
27.980,0.100
27.985,0.087
27.990,0.058
27.995,0.194
28.000,0.200
28.005,0.074
28.010,0.211
28.015,0.250
28.020,0.133
28.025,0.289
28.030,0.285
28.035,-0.026
28.040,0.044
28.045,0.304
28.050,0.183
28.055,-0.027
28.060,-0.025
28.065,0.082
28.070,0.172
28.075,0.117
28.080,-0.081
28.085,-0.146
28.090,0.082
28.095,0.278
28.100,0.156
28.105,-0.006
28.110,0.060
28.115,0.101
28.120,-0.020
28.125,-0.010
28.130,0.069
28.135,0.056
28.140,0.124
28.145,0.164
28.150,-0.057
28.155,-0.158
28.160,0.063
28.165,0.100
28.170,0.029
28.175,0.080
28.180,0.008
28.185,-0.040
28.190,0.003
28.195,-0.087
28.200,-0.144
28.205,-0.016
28.210,0.143
28.215,0.125
28.220,-0.012
28.225,0.023
28.230,0.016
28.235,-0.186
28.240,-0.118
28.245,0.137
28.250,0.064
28.255,-0.110
28.260,-0.075
28.265,-0.168
28.270,-0.345
28.275,-0.145
28.280,0.054
28.285,-0.153
28.290,-0.263
28.295,-0.117
28.300,0.020
28.305,0.076
28.310,0.081
28.315,0.086
28.320,-0.017
28.325,-0.068
28.330,0.079
28.335,0.107
28.340,0.027
28.345,0.055
28.350,0.048
28.355,0.003
28.360,0.050
28.365,0.052
28.370,-0.030
28.375,-0.016
28.380,0.040
28.385,-0.022
28.390,-0.043
28.395,0.056
28.400,0.045
28.405,-0.065
28.410,-0.098
28.415,-0.218
28.420,-0.539
28.425,-0.826
28.430,-0.889
28.435,-0.801
28.440,-0.670
28.445,-0.433
28.450,-0.095
28.455,0.207
28.460,0.378
28.465,0.373
28.470,0.245
28.475,0.178
28.480,0.172
28.485,0.104
28.490,0.065
28.495,0.104
28.500,0.094
28.505,0.036
28.510,0.051
28.515,0.057
28.520,-0.051
28.525,-0.049
28.530,0.097
28.535,0.088
28.540,0.019
28.545,0.067
28.550,0.048
28.555,-0.051
28.560,-0.036
28.565,-0.027
28.570,-0.121
28.575,-0.073
28.580,0.025
28.585,-0.101
28.590,-0.153
28.595,-0.047
28.600,-0.117
28.605,-0.173
28.610,-0.047
28.615,-0.084
28.620,-0.233
28.625,-0.148
28.630,-0.036
28.635,-0.137
28.640,-0.168
28.645,-0.038
28.650,-0.035
28.655,-0.127
28.660,-0.123
28.665,-0.109
28.670,-0.137
28.675,-0.084
28.680,0.027
28.685,0.033
28.690,0.030
28.695,0.090
28.700,0.072
28.705,0.036
28.710,0.132
28.715,0.201
28.720,0.120
28.725,0.114
28.730,0.187
28.735,0.133
28.740,0.077
28.745,0.124
28.750,0.103
28.755,0.039
28.760,0.098
28.765,0.155
28.770,0.092
28.775,0.085
28.780,0.137
28.785,0.066
28.790,0.030
28.795,0.117
28.800,0.098
28.805,0.019
28.810,0.070
28.815,0.099
28.820,0.000
28.825,0.006
28.830,0.104
28.835,0.055
28.840,-0.001
28.845,0.071
28.850,0.062
28.855,-0.013
28.860,0.027
28.865,0.060
28.870,-0.004
28.875,0.012
28.880,0.069
28.885,0.006
28.890,-0.031
28.895,0.041
28.900,0.023
28.905,-0.046
28.910,0.002
28.915,0.022
28.920,-0.058
28.925,-0.054
28.930,0.001
28.935,-0.089
28.940,-0.149
28.945,0.007
28.950,0.068
28.955,-0.043
28.960,-0.016
28.965,0.023
28.970,-0.066
28.975,-0.064
28.980,-0.004
28.985,-0.057
28.990,-0.089
28.995,-0.016
29.000,-0.031
29.005,-0.103
29.010,-0.053
29.015,-0.015
29.020,-0.088
29.025,-0.091
29.030,-0.043
29.035,-0.109
29.040,-0.158
29.045,-0.091
29.050,-0.091
29.055,-0.155
29.060,-0.103
29.065,-0.048
29.070,-0.111
29.075,-0.126
29.080,-0.073
29.085,-0.093
29.090,-0.095
29.095,-0.011
29.100,-0.010
29.105,-0.068
29.110,-0.020
29.115,0.012
29.120,-0.047
29.125,-0.017
29.130,0.065
29.135,0.025
29.140,-0.004
29.145,0.072
29.150,0.062
29.155,-0.014
29.160,0.029
29.165,0.061
29.170,-0.012
29.175,0.000
29.180,0.065
29.185,0.029
29.190,0.024
29.195,0.072
29.200,-0.016
29.205,-0.193
29.210,-0.362
29.215,-0.652
29.220,-0.951
29.225,-0.889
29.230,-0.620
29.235,-0.491
29.240,-0.250
29.245,0.207
29.250,0.408
29.255,0.364
29.260,0.389
29.265,0.342
29.270,0.191
29.275,0.160
29.280,0.202
29.285,0.140
29.290,0.091
29.295,0.161
29.300,0.160
29.305,0.080
29.310,0.097
29.315,0.120
29.320,0.061
29.325,0.072
29.330,0.126
29.335,0.063
29.340,0.012
29.345,0.076
29.350,0.078
29.355,0.016
29.360,0.052
29.365,0.065
29.370,-0.033
29.375,-0.039
29.380,0.013
29.385,-0.055
29.390,-0.097
29.395,-0.036
29.400,-0.056
29.405,-0.125
29.410,-0.079
29.415,-0.044
29.420,-0.112
29.425,-0.100
29.430,-0.033
29.435,-0.078
29.440,-0.110
29.445,-0.040
29.450,-0.046
29.455,-0.102
29.460,-0.039
29.465,0.017
29.470,-0.021
29.475,0.020
29.480,0.116
29.485,0.100
29.490,0.094
29.495,0.186
29.500,0.198
29.505,0.148
29.510,0.202
29.515,0.242
29.520,0.172
29.525,0.178
29.530,0.241
29.535,0.188
29.540,0.143
29.545,0.203
29.550,0.187
29.555,0.116
29.560,0.159
29.565,0.186
29.570,0.105
29.575,0.105
29.580,0.169
29.585,0.112
29.590,0.067
29.595,0.133
29.600,0.119
29.605,0.048
29.610,0.102
29.615,0.139
29.620,0.056
29.625,0.051
29.630,0.108
29.635,0.055
29.640,0.016
29.645,0.087
29.650,0.081
29.655,0.014
29.660,0.061
29.665,0.099
29.670,0.018
29.675,0.008
29.680,0.076
29.685,0.034
29.690,-0.007
29.695,0.061
29.700,0.051
29.705,-0.026
29.710,0.012
29.715,0.047
29.720,-0.029
29.725,-0.026
29.730,0.043
29.735,-0.006
29.740,-0.043
29.745,0.029
29.750,0.023
29.755,-0.043
29.760,0.000
29.765,0.027
29.770,-0.050
29.775,-0.046
29.780,0.018
29.785,-0.030
29.790,-0.065
29.795,0.004
29.800,-0.002
29.805,-0.070
29.810,-0.034
29.815,-0.006
29.820,-0.083
29.825,-0.090
29.830,-0.044
29.835,-0.109
29.840,-0.152
29.845,-0.076
29.850,-0.070
29.855,-0.123
29.860,-0.058
29.865,-0.022
29.870,-0.126
29.875,-0.121
29.880,-0.015
29.885,-0.035
29.890,-0.071
29.895,0.000
29.900,0.004
29.905,-0.060
29.910,-0.011
29.915,0.034
29.920,-0.030
29.925,-0.014
29.930,0.061
29.935,0.015
29.940,-0.025
29.945,0.049
29.950,0.045
29.955,-0.026
29.960,0.017
29.965,0.045
29.970,-0.043
29.975,-0.034
29.980,0.064
29.985,0.049
29.990,-0.014
29.995,-0.017
30.000,-0.122
30.005,-0.399
30.010,-0.679
30.015,-0.869
30.020,-0.883
30.025,-0.695
30.030,-0.480
30.035,-0.262
30.040,0.065
30.045,0.342
30.050,0.405
30.055,0.352
30.060,0.321
30.065,0.262
30.070,0.139
30.075,0.114
30.080,0.172
30.085,0.120
30.090,0.061
30.095,0.123
30.100,0.109
30.105,0.035
30.110,0.082
30.115,0.123
30.120,0.055
30.125,0.025
30.130,0.057
30.135,0.015
30.140,-0.027
30.145,0.041
30.150,0.030
30.155,-0.062
30.160,-0.024
30.165,0.011
30.170,-0.081
30.175,-0.097
30.180,-0.041
30.185,-0.093
30.190,-0.136
30.195,-0.066
30.200,-0.079
30.205,-0.172
30.210,-0.138
30.215,-0.091
30.220,-0.160
30.225,-0.164
30.230,-0.084
30.235,-0.103
30.240,-0.138
30.245,-0.073
30.250,-0.072
30.255,-0.124
30.260,-0.052
30.265,0.018
30.270,-0.009
30.275,0.034
30.280,0.137
30.285,0.130
30.290,0.104
30.295,0.171
30.300,0.184
30.305,0.136
30.310,0.193
30.315,0.248
30.320,0.179
30.325,0.164
30.330,0.223
30.335,0.175
30.340,0.138
30.345,0.209
30.350,0.187
30.355,0.102
30.360,0.142
30.365,0.179
30.370,0.104
30.375,0.099
30.380,0.165
30.385,0.119
30.390,0.076
30.395,0.141
30.400,0.114
30.405,0.023
30.410,0.064
30.415,0.109
30.420,0.054
30.425,0.064
30.430,0.124
30.435,0.071
30.440,0.028
30.445,0.094
30.450,0.082
30.455,0.008
30.460,0.047
30.465,0.082
30.470,0.011
30.475,0.014
30.480,0.082
30.485,0.032
30.490,-0.020
30.495,0.051
30.500,0.065
30.505,0.004
30.510,0.040
30.515,0.065
30.520,-0.023
30.525,-0.027
30.530,0.042
30.535,-0.007
30.540,-0.059
30.545,0.004
30.550,0.004
30.555,-0.060
30.560,-0.015
30.565,0.031
30.570,-0.039
30.575,-0.044
30.580,0.018
30.585,-0.040
30.590,-0.102
30.595,-0.041
30.600,-0.048
30.605,-0.138
30.610,-0.105
30.615,-0.057
30.620,-0.132
30.625,-0.128
30.630,-0.028
30.635,-0.054
30.640,-0.127
30.645,-0.082
30.650,-0.058
30.655,-0.097
30.660,-0.048
30.665,0.003
30.670,-0.043
30.675,-0.039
30.680,0.015
30.685,-0.029
30.690,-0.054
30.695,0.032
30.700,0.039
30.705,-0.037
30.710,-0.009
30.715,0.039
30.720,-0.023
30.725,-0.026
30.730,0.048
30.735,0.012
30.740,-0.036
30.745,0.019
30.750,0.026
30.755,-0.003
30.760,0.053
30.765,0.054
30.770,-0.086
30.775,-0.255
30.780,-0.497
30.785,-0.874
30.790,-1.037
30.795,-0.828
30.800,-0.634
30.805,-0.491
30.810,-0.112
30.815,0.245
30.820,0.316
30.825,0.387
30.830,0.448
30.835,0.299
30.840,0.177
30.845,0.208
30.850,0.157
30.855,0.048
30.860,0.077
30.865,0.121
30.870,0.055
30.875,0.050
30.880,0.112
30.885,0.064
30.890,0.011
30.895,0.070
30.900,0.062
30.905,-0.019
30.910,0.010
30.915,0.046
30.920,-0.030
30.925,-0.041
30.930,0.020
30.935,-0.027
30.940,-0.079
30.945,-0.023
30.950,-0.034
30.955,-0.114
30.960,-0.087
30.965,-0.054
30.970,-0.125
30.975,-0.132
30.980,-0.067
30.985,-0.102
30.990,-0.144
30.995,-0.080
31.000,-0.079
31.005,-0.146
31.010,-0.107
31.015,-0.057
31.020,-0.113
31.025,-0.104
31.030,-0.009
31.035,-0.011
31.040,-0.020
31.045,0.085
31.050,0.125
31.055,0.079
31.060,0.132
31.065,0.191
31.070,0.138
31.075,0.141
31.080,0.216
31.085,0.183
31.090,0.135
31.095,0.195
31.100,0.197
31.105,0.124
31.110,0.156
31.115,0.200
31.120,0.129
31.125,0.116
31.130,0.176
31.135,0.131
31.140,0.074
31.145,0.133
31.150,0.135
31.155,0.059
31.160,0.090
31.165,0.133
31.170,0.063
31.175,0.056
31.180,0.125
31.185,0.086
31.190,0.035
31.195,0.093
31.200,0.093
31.205,0.018
31.210,0.053
31.215,0.098
31.220,0.031
31.225,0.022
31.230,0.087
31.235,0.050
31.240,0.003
31.245,0.065
31.250,0.066
31.255,-0.009
31.260,0.019
31.265,0.060
31.270,-0.010
31.275,-0.027
31.280,0.029
31.285,-0.026
31.290,-0.092
31.295,-0.034
31.300,-0.026
31.305,-0.097
31.310,-0.056
31.315,0.004
31.320,-0.068
31.325,-0.105
31.330,-0.038
31.335,-0.035
31.340,-0.055
31.345,0.010
31.350,0.023
31.355,-0.042
31.360,-0.011
31.365,0.039
31.370,-0.018
31.375,-0.018
31.380,0.062
31.385,0.034
31.390,-0.013
31.395,0.050
31.400,0.055
31.405,-0.018
31.410,0.011
31.415,0.052
31.420,-0.019
31.425,-0.029
31.430,0.041
31.435,0.016
31.440,0.003
31.445,0.085
31.450,0.047
31.455,-0.103
31.460,-0.216
31.465,-0.455
31.470,-0.865
31.475,-1.028
31.480,-0.856
31.485,-0.719
31.490,-0.545
31.495,-0.097
31.500,0.285
31.505,0.336
31.510,0.369
31.515,0.391
31.520,0.236
31.525,0.152
31.530,0.175
31.535,0.112
31.540,0.057
31.545,0.112
31.550,0.112
31.555,0.037
31.560,0.065
31.565,0.111
31.570,0.038
31.575,0.017
31.580,0.078
31.585,0.036
31.590,-0.021
31.595,0.036
31.600,0.036
31.605,-0.046
31.610,-0.023
31.615,0.016
31.620,-0.062
31.625,-0.089
31.630,-0.033
31.635,-0.078
31.640,-0.140
31.645,-0.088
31.650,-0.089
31.655,-0.169
31.660,-0.146
31.665,-0.101
31.670,-0.164
31.675,-0.172
31.680,-0.098
31.685,-0.125
31.690,-0.168
31.695,-0.095
31.700,-0.068
31.705,-0.120
31.710,-0.063
31.715,0.022
31.720,-0.006
31.725,0.018
31.730,0.120
31.735,0.117
31.740,0.091
31.745,0.176
31.750,0.203
31.755,0.139
31.760,0.176
31.765,0.230
31.770,0.165
31.775,0.152
31.780,0.222
31.785,0.189
31.790,0.134
31.795,0.186
31.800,0.181
31.805,0.098
31.810,0.126
31.815,0.173
31.820,0.099
31.825,0.079
31.830,0.142
31.835,0.102
31.840,0.047
31.845,0.110
31.850,0.118
31.855,0.040
31.860,0.066
31.865,0.111
31.870,0.041
31.875,0.028
31.880,0.096
31.885,0.059
31.890,0.007
31.895,0.070
31.900,0.080
31.905,0.008
31.910,0.040
31.915,0.087
31.920,0.020
31.925,0.005
31.930,0.071
31.935,0.039
31.940,-0.015
31.945,0.042
31.950,0.051
31.955,-0.022
31.960,0.004
31.965,0.051
31.970,-0.012
31.975,-0.025
31.980,0.044
31.985,0.010
31.990,-0.044
31.995,0.016
32.000,0.024
32.005,-0.050
32.010,-0.020
32.015,0.030
32.020,-0.036
32.025,-0.050
32.030,0.020
32.035,-0.014
32.040,-0.070
32.045,-0.009
32.050,0.005
32.055,-0.067
32.060,-0.036
32.065,0.016
32.070,-0.050
32.075,-0.067
32.080,0.004
32.085,-0.027
32.090,-0.083
32.095,-0.023
32.100,-0.013
32.105,-0.094
32.110,-0.077
32.115,-0.047
32.120,-0.134
32.125,-0.153
32.130,-0.068
32.135,-0.088
32.140,-0.133
32.145,-0.056
32.150,-0.039
32.155,-0.137
32.160,-0.118
32.165,-0.028
32.170,-0.051
32.175,-0.056
32.180,0.018
32.185,-0.010
32.190,-0.069
32.195,-0.006
32.200,0.019
32.205,-0.040
32.210,0.000
32.215,0.060
32.220,0.002
32.225,-0.012
32.230,0.060
32.235,0.029
32.240,-0.029
32.245,0.027
32.250,0.036
32.255,-0.037
32.260,-0.001
32.265,0.083
32.270,0.052
32.275,0.007
32.280,0.001
32.285,-0.147
32.290,-0.445
32.295,-0.737
32.300,-0.942
32.305,-0.959
32.310,-0.770
32.315,-0.523
32.320,-0.218
32.325,0.202
32.330,0.452
32.335,0.396
32.340,0.294
32.345,0.281
32.350,0.231
32.355,0.116
32.360,0.122
32.365,0.172
32.370,0.106
32.375,0.082
32.380,0.145
32.385,0.109
32.390,0.049
32.395,0.107
32.400,0.115
32.405,0.037
32.410,0.055
32.415,0.098
32.420,0.030
32.425,0.006
32.430,0.066
32.435,0.026
32.440,-0.038
32.445,0.010
32.450,0.011
32.455,-0.072
32.460,-0.057
32.465,-0.013
32.470,-0.087
32.475,-0.118
32.480,-0.058
32.485,-0.093
32.490,-0.151
32.495,-0.092
32.500,-0.074
32.505,-0.142
32.510,-0.109
32.515,-0.047
32.520,-0.103
32.525,-0.116
32.530,-0.038
32.535,-0.054
32.540,-0.090
32.545,-0.004
32.550,0.044
32.555,0.007
32.560,0.065
32.565,0.148
32.570,0.112
32.575,0.115
32.580,0.203
32.585,0.187
32.590,0.137
32.595,0.199
32.600,0.217
32.605,0.144
32.610,0.167
32.615,0.218
32.620,0.153
32.625,0.127
32.630,0.190
32.635,0.156
32.640,0.095
32.645,0.148
32.650,0.160
32.655,0.083
32.660,0.101
32.665,0.151
32.670,0.088
32.675,0.063
32.680,0.128
32.685,0.095
32.690,0.030
32.695,0.084
32.700,0.101
32.705,0.026
32.710,0.046
32.715,0.099
32.720,0.036
32.725,0.014
32.730,0.084
32.735,0.056
32.740,-0.004
32.745,0.052
32.750,0.068
32.755,-0.007
32.760,0.011
32.765,0.056
32.770,-0.021
32.775,-0.066
32.780,-0.018
32.785,-0.050
32.790,-0.098
32.795,-0.033
32.800,-0.010
32.805,-0.070
32.810,-0.042
32.815,-0.011
32.820,-0.083
32.825,-0.068
32.830,0.039
32.835,0.022
32.840,-0.029
32.845,0.031
32.850,0.038
32.855,-0.037
32.860,-0.004
32.865,0.064
32.870,0.017
32.875,0.003
32.880,0.074
32.885,0.047
32.890,-0.013
32.895,0.041
32.900,0.058
32.905,-0.016
32.910,0.002
32.915,0.053
32.920,-0.012
32.925,-0.029
32.930,0.077
32.935,0.087
32.940,-0.004
32.945,-0.029
32.950,-0.146
32.955,-0.496
32.960,-0.838
32.965,-0.964
32.970,-0.922
32.975,-0.764
32.980,-0.463
32.985,-0.072
32.990,0.260
32.995,0.405
33.000,0.354
33.005,0.219
33.010,0.178
33.015,0.182
33.020,0.092
33.025,0.061
33.030,0.131
33.035,0.101
33.040,0.037
33.045,0.089
33.050,0.105
33.055,0.029
33.060,0.044
33.065,0.094
33.070,0.029
33.075,0.000
33.080,0.062
33.085,0.031
33.090,-0.036
33.095,0.012
33.100,0.019
33.105,-0.066
33.110,-0.053
33.115,-0.006
33.120,-0.077
33.125,-0.112
33.130,-0.056
33.135,-0.088
33.140,-0.155
33.145,-0.107
33.150,-0.093
33.155,-0.171
33.160,-0.150
33.165,-0.089
33.170,-0.143
33.175,-0.165
33.180,-0.091
33.185,-0.103
33.190,-0.150
33.195,-0.078
33.200,-0.032
33.205,-0.071
33.210,-0.012
33.215,0.082
33.220,0.057
33.225,0.064
33.230,0.162
33.235,0.161
33.240,0.115
33.245,0.181
33.250,0.208
33.255,0.138
33.260,0.158
33.265,0.215
33.270,0.153
33.275,0.122
33.280,0.188
33.285,0.160
33.290,0.093
33.295,0.144
33.300,0.161
33.305,0.083
33.310,0.097
33.315,0.151
33.320,0.090
33.325,0.059
33.330,0.123
33.335,0.098
33.340,0.035
33.345,0.087
33.350,0.107
33.355,0.034
33.360,0.051
33.365,0.106
33.370,0.048
33.375,0.022
33.380,0.087
33.385,0.061
33.390,0.001
33.395,0.056
33.400,0.076
33.405,0.002
33.410,0.020
33.415,0.076
33.420,0.017
33.425,-0.011
33.430,0.057
33.435,0.034
33.440,-0.028
33.445,0.025
33.450,0.047
33.455,-0.028
33.460,-0.012
33.465,0.045
33.470,-0.013
33.475,-0.040
33.480,0.028
33.485,0.005
33.490,-0.057
33.495,-0.003
33.500,0.021
33.505,-0.051
33.510,-0.032
33.515,0.027
33.520,-0.033
33.525,-0.061
33.530,0.010
33.535,-0.011
33.540,-0.075
33.545,-0.021
33.550,0.004
33.555,-0.069
33.560,-0.052
33.565,0.007
33.570,-0.048
33.575,-0.072
33.580,-0.002
33.585,-0.021
33.590,-0.083
33.595,-0.029
33.600,-0.005
33.605,-0.078
33.610,-0.061
33.615,-0.010
33.620,-0.082
33.625,-0.130
33.630,-0.083
33.635,-0.107
33.640,-0.153
33.645,-0.084
33.650,-0.049
33.655,-0.104
33.660,-0.082
33.665,-0.045
33.670,-0.108
33.675,-0.102
33.680,0.000
33.685,-0.009
33.690,-0.063
33.695,-0.008
33.700,0.012
33.705,-0.055
33.710,-0.028
33.715,0.045
33.720,0.004
33.725,-0.014
33.730,0.062
33.735,0.046
33.740,-0.017
33.745,0.034
33.750,0.059
33.755,-0.014
33.760,-0.001
33.765,0.056
33.770,0.008
33.775,0.012
33.780,0.101
33.785,0.029
33.790,-0.131
33.795,-0.229
33.800,-0.476
33.805,-0.875
33.810,-0.984
33.815,-0.773
33.820,-0.633
33.825,-0.433
33.830,0.039
33.835,0.362
33.840,0.363
33.845,0.374
33.850,0.349
33.855,0.202
33.860,0.165
33.865,0.189
33.870,0.119
33.875,0.090
33.880,0.155
33.885,0.130
33.890,0.064
33.895,0.112
33.900,0.131
33.905,0.053
33.910,0.062
33.915,0.114
33.920,0.051
33.925,0.015
33.930,0.078
33.935,0.053
33.940,-0.017
33.945,0.029
33.950,0.045
33.955,-0.040
33.960,-0.036
33.965,0.012
33.970,-0.054
33.975,-0.091
33.980,-0.028
33.985,-0.051
33.990,-0.119
33.995,-0.071
34.000,-0.046
34.005,-0.119
34.010,-0.102
34.015,-0.039
34.020,-0.091
34.025,-0.119
34.030,-0.050
34.035,-0.072
34.040,-0.138
34.045,-0.082
34.050,-0.041
34.055,-0.090
34.060,-0.044
34.065,0.051
34.070,0.031
34.075,0.036
34.080,0.138
34.085,0.147
34.090,0.104
34.095,0.171
34.100,0.207
34.105,0.140
34.110,0.157
34.115,0.218
34.120,0.162
34.125,0.131
34.130,0.196
34.135,0.175
34.140,0.109
34.145,0.156
34.150,0.179
34.155,0.103
34.160,0.114
34.165,0.171
34.170,0.113
34.175,0.080
34.180,0.147
34.185,0.128
34.190,0.060
34.195,0.108
34.200,0.133
34.205,0.057
34.210,0.068
34.215,0.127
34.220,0.071
34.225,0.037
34.230,0.102
34.235,0.086
34.240,0.021
34.245,0.069
34.250,0.095
34.255,0.019
34.260,0.028
34.265,0.085
34.270,0.028
34.275,-0.004
34.280,0.064
34.285,0.046
34.290,-0.020
34.295,0.031
34.300,0.059
34.305,-0.016
34.310,-0.006
34.315,0.053
34.320,-0.003
34.325,-0.036
34.330,0.033
34.335,0.016
34.340,-0.050
34.345,-0.002
34.350,0.026
34.355,-0.045
34.360,-0.035
34.365,0.023
34.370,-0.030
34.375,-0.061
34.380,0.009
34.385,-0.007
34.390,-0.073
34.395,-0.023
34.400,0.007
34.405,-0.065
34.410,-0.055
34.415,0.003
34.420,-0.053
34.425,-0.090
34.430,-0.029
34.435,-0.060
34.440,-0.147
34.445,-0.111
34.450,-0.077
34.455,-0.138
34.460,-0.114
34.465,-0.027
34.470,-0.060
34.475,-0.114
34.480,-0.073
34.485,-0.068
34.490,-0.093
34.495,-0.027
34.500,0.004
34.505,-0.061
34.510,-0.046
34.515,0.015
34.520,-0.030
34.525,-0.049
34.530,0.035
34.535,0.034
34.540,-0.026
34.545,0.024
34.550,0.055
34.555,-0.017
34.560,-0.010
34.565,0.050
34.570,-0.006
34.575,-0.043
34.580,0.026
34.585,0.028
34.590,0.001
34.595,0.050
34.600,0.012
34.605,-0.165
34.610,-0.342
34.615,-0.588
34.620,-0.933
34.625,-0.999
34.630,-0.733
34.635,-0.553
34.640,-0.338
34.645,0.133
34.650,0.419
34.655,0.361
34.660,0.325
34.665,0.320
34.670,0.198
34.675,0.115
34.680,0.154
34.685,0.137
34.690,0.071
34.695,0.114
34.700,0.139
34.705,0.063
34.710,0.069
34.715,0.125
34.720,0.068
34.725,0.028
34.730,0.090
34.735,0.071
34.740,-0.001
34.745,0.040
34.750,0.064
34.755,-0.016
34.760,-0.017
34.765,0.036
34.770,-0.026
34.775,-0.071
34.780,-0.010
34.785,-0.030
34.790,-0.105
34.795,-0.066
34.800,-0.041
34.805,-0.120
34.810,-0.114
34.815,-0.050
34.820,-0.099
34.825,-0.130
34.830,-0.058
34.835,-0.072
34.840,-0.141
34.845,-0.096
34.850,-0.066
34.855,-0.136
34.860,-0.116
34.865,-0.031
34.870,-0.049
34.875,-0.048
34.880,0.057
34.885,0.084
34.890,0.054
34.895,0.131
34.900,0.188
34.905,0.135
34.910,0.152
34.915,0.219
34.920,0.172
34.925,0.137
34.930,0.203
34.935,0.193
34.940,0.127
34.945,0.167
34.950,0.194
34.955,0.121
34.960,0.122
34.965,0.178
34.970,0.127
34.975,0.090
34.980,0.154
34.985,0.141
34.990,0.072
34.995,0.114
35.000,0.144
35.005,0.071
35.010,0.075
35.015,0.136
35.020,0.083
35.025,0.044
35.030,0.110
35.035,0.096
35.040,0.028
35.045,0.073
35.050,0.102
35.055,0.028
35.060,0.034
35.065,0.096
35.070,0.043
35.075,0.004
35.080,0.071
35.085,0.059
35.090,-0.010
35.095,0.034
35.100,0.065
35.105,-0.010
35.110,-0.005
35.115,0.056
35.120,0.005
35.125,-0.033
35.130,0.031
35.135,0.018
35.140,-0.055
35.145,-0.022
35.150,-0.009
35.155,-0.107
35.160,-0.120
35.165,-0.053
35.170,-0.089
35.175,-0.116
35.180,-0.034
35.185,-0.027
35.190,-0.105
35.195,-0.083
35.200,-0.036
35.205,-0.066
35.210,-0.038
35.215,0.034
35.220,-0.008
35.225,-0.054
35.230,0.004
35.235,0.006
35.240,-0.047
35.245,0.012
35.250,0.059
35.255,-0.007
35.260,-0.002
35.265,0.061
35.270,0.010
35.275,-0.030
35.280,0.037
35.285,0.024
35.290,-0.047
35.295,0.000
35.300,0.041
35.305,-0.004
35.310,0.028
35.315,0.053
35.320,-0.091
35.325,-0.276
35.330,-0.479
35.335,-0.836
35.340,-1.073
35.345,-0.887
35.350,-0.626
35.355,-0.470
35.360,-0.084
35.365,0.343
35.370,0.391
35.375,0.312
35.380,0.322
35.385,0.240
35.390,0.118
35.395,0.125
35.400,0.147
35.405,0.080
35.410,0.083
35.415,0.141
35.420,0.086
35.425,0.040
35.430,0.101
35.435,0.088
35.440,0.014
35.445,0.052
35.450,0.082
35.455,0.004
35.460,0.001
35.465,0.059
35.470,0.005
35.475,-0.044
35.480,0.015
35.485,-0.001
35.490,-0.080
35.495,-0.047
35.500,-0.022
35.505,-0.103
35.510,-0.109
35.515,-0.051
35.520,-0.104
35.525,-0.145
35.530,-0.076
35.535,-0.081
35.540,-0.147
35.545,-0.103
35.550,-0.067
35.555,-0.138
35.560,-0.138
35.565,-0.074
35.570,-0.115
35.575,-0.142
35.580,-0.053
35.585,-0.025
35.590,-0.050
35.595,0.035
35.600,0.110
35.605,0.072
35.610,0.103
35.615,0.189
35.620,0.158
35.625,0.129
35.630,0.203
35.635,0.200
35.640,0.135
35.645,0.177
35.650,0.209
35.655,0.137
35.660,0.136
35.665,0.198
35.670,0.149
35.675,0.103
35.680,0.164
35.685,0.154
35.690,0.085
35.695,0.126
35.700,0.158
35.705,0.084
35.710,0.085
35.715,0.148
35.720,0.098
35.725,0.053
35.730,0.118
35.735,0.111
35.740,0.039
35.745,0.078
35.750,0.113
35.755,0.040
35.760,0.039
35.765,0.103
35.770,0.056
35.775,0.013
35.780,0.077
35.785,0.066
35.790,-0.003
35.795,0.040
35.800,0.075
35.805,0.003
35.810,0.003
35.815,0.065
35.820,0.017
35.825,-0.027
35.830,0.036
35.835,0.032
35.840,-0.037
35.845,0.003
35.850,0.040
35.855,-0.032
35.860,-0.031
35.865,0.033
35.870,-0.014
35.875,-0.056
35.880,0.010
35.885,0.005
35.890,-0.064
35.895,-0.023
35.900,0.015
35.905,-0.056
35.910,-0.055
35.915,0.011
35.920,-0.034
35.925,-0.074
35.930,-0.007
35.935,-0.010
35.940,-0.079
35.945,-0.037
35.950,0.002
35.955,-0.069
35.960,-0.068
35.965,-0.001
35.970,-0.047
35.975,-0.091
35.980,-0.030
35.985,-0.044
35.990,-0.130
35.995,-0.112
36.000,-0.084
36.005,-0.142
36.010,-0.129
36.015,-0.055
36.020,-0.081
36.025,-0.109
36.030,-0.062
36.035,-0.082
36.040,-0.123
36.045,-0.044
36.050,0.012
36.055,-0.050
36.060,-0.044
36.065,0.018
36.070,-0.028
36.075,-0.061
36.080,0.021
36.085,0.036
36.090,-0.022
36.095,0.023
36.100,0.065
36.105,-0.004
36.110,-0.007
36.115,0.056
36.120,0.010
36.125,-0.034
36.130,0.031
36.135,0.033
36.140,-0.010
36.145,0.053
36.150,0.048
36.155,-0.123
36.160,-0.271
36.165,-0.463
36.170,-0.842
36.175,-1.052
36.180,-0.840
36.185,-0.609
36.190,-0.455
36.195,-0.040
36.200,0.358
36.205,0.387
36.210,0.360
36.215,0.377
36.220,0.255
36.225,0.151
36.230,0.177
36.235,0.160
36.240,0.092
36.245,0.127
36.250,0.160
36.255,0.086
36.260,0.078
36.265,0.139
36.270,0.089
36.275,0.038
36.280,0.098
36.285,0.090
36.290,0.014
36.295,0.047
36.300,0.080
36.305,0.002
36.310,-0.009
36.315,0.048
36.320,-0.005
36.325,-0.058
36.330,-0.002
36.335,-0.013
36.340,-0.090
36.345,-0.059
36.350,-0.027
36.355,-0.101
36.360,-0.107
36.365,-0.043
36.370,-0.089
36.375,-0.135
36.380,-0.071
36.385,-0.077
36.390,-0.150
36.395,-0.116
36.400,-0.084
36.405,-0.158
36.410,-0.154
36.415,-0.069
36.420,-0.078
36.425,-0.080
36.430,0.029
36.435,0.070
36.440,0.040
36.445,0.113
36.450,0.181
36.455,0.135
36.460,0.148
36.465,0.225
36.470,0.191
36.475,0.150
36.480,0.214
36.485,0.212
36.490,0.141
36.495,0.177
36.500,0.214
36.505,0.142
36.510,0.134
36.515,0.195
36.520,0.150
36.525,0.100
36.530,0.162
36.535,0.162
36.540,0.089
36.545,0.123
36.550,0.160
36.555,0.089
36.560,0.082
36.565,0.146
36.570,0.103
36.575,0.055
36.580,0.116
36.585,0.112
36.590,0.039
36.595,0.079
36.600,0.117
36.605,0.042
36.610,0.034
36.615,0.096
36.620,0.055
36.625,0.008
36.630,0.064
36.635,0.063
36.640,-0.011
36.645,0.020
36.650,0.067
36.655,0.005
36.660,-0.005
36.665,0.056
36.670,0.016
36.675,-0.031
36.680,0.029
36.685,0.025
36.690,-0.049
36.695,-0.012
36.700,0.030
36.705,-0.042
36.710,-0.050
36.715,0.013
36.720,-0.037
36.725,-0.103
36.730,-0.065
36.735,-0.081
36.740,-0.152
36.745,-0.104
36.750,-0.050
36.755,-0.107
36.760,-0.096
36.765,-0.022
36.770,-0.084
36.775,-0.136
36.780,-0.033
36.785,0.000
36.790,-0.068
36.795,-0.023
36.800,0.026
36.805,-0.052
36.810,-0.055
36.815,0.023
36.820,-0.001
36.825,-0.029
36.830,0.043
36.835,0.048
36.840,-0.023
36.845,0.016
36.850,0.061
36.855,-0.014
36.860,-0.028
36.865,0.036
36.870,-0.002
36.875,-0.045
36.880,0.042
36.885,0.071
36.890,-0.041
36.895,-0.109
36.900,-0.218
36.905,-0.558
36.910,-0.915
36.915,-1.016
36.920,-0.908
36.925,-0.718
36.930,-0.408
36.935,-0.011
36.940,0.271
36.945,0.395
36.950,0.405
36.955,0.283
36.960,0.197
36.965,0.209
36.970,0.136
36.975,0.075
36.980,0.142
36.985,0.144
36.990,0.066
36.995,0.094
37.000,0.129
37.005,0.058
37.010,0.049
37.015,0.108
37.020,0.061
37.025,0.005
37.030,0.061
37.035,0.062
37.040,-0.018
37.045,0.007
37.050,0.047
37.055,-0.029
37.060,-0.049
37.065,0.009
37.070,-0.038
37.075,-0.095
37.080,-0.040
37.085,-0.046
37.090,-0.127
37.095,-0.098
37.100,-0.055
37.105,-0.125
37.110,-0.135
37.115,-0.065
37.120,-0.099
37.125,-0.148
37.130,-0.092
37.135,-0.092
37.140,-0.165
37.145,-0.129
37.150,-0.067
37.155,-0.106
37.160,-0.082
37.165,0.024
37.170,0.029
37.175,0.024
37.180,0.124
37.185,0.155
37.190,0.109
37.195,0.164
37.200,0.222
37.205,0.165
37.210,0.162
37.215,0.226
37.220,0.183
37.225,0.130
37.230,0.191
37.235,0.200
37.240,0.125
37.245,0.148
37.250,0.193
37.255,0.126
37.260,0.111
37.265,0.175
37.270,0.137
37.275,0.086
37.280,0.144
37.285,0.143
37.290,0.066
37.295,0.095
37.300,0.143
37.305,0.074
37.310,0.056
37.315,0.123
37.320,0.084
37.325,0.025
37.330,0.085
37.335,0.091
37.340,0.020
37.345,0.050
37.350,0.095
37.355,0.026
37.360,0.013
37.365,0.080
37.370,0.041
37.375,-0.012
37.380,0.050
37.385,0.054
37.390,-0.020
37.395,0.011
37.400,0.057
37.405,-0.010
37.410,-0.022
37.415,0.041
37.420,0.001
37.425,-0.056
37.430,0.004
37.435,0.015
37.440,-0.060
37.445,-0.045
37.450,-0.023
37.455,-0.113
37.460,-0.136
37.465,-0.061
37.470,-0.083
37.475,-0.125
37.480,-0.046
37.485,-0.026
37.490,-0.117
37.495,-0.105
37.500,-0.038
37.505,-0.066
37.510,-0.059
37.515,0.018
37.520,-0.010
37.525,-0.071
37.530,-0.011
37.535,0.012
37.540,-0.043
37.545,0.007
37.550,0.071
37.555,0.009
37.560,-0.003
37.565,0.064
37.570,0.024
37.575,-0.033
37.580,0.028
37.585,0.033
37.590,-0.043
37.595,-0.009
37.600,0.052
37.605,0.012
37.610,-0.010
37.615,-0.023
37.620,-0.177
37.625,-0.422
37.630,-0.676
37.635,-0.957
37.640,-1.024
37.645,-0.746
37.650,-0.488
37.655,-0.288
37.660,0.077
37.665,0.374
37.670,0.406
37.675,0.351
37.680,0.335
37.685,0.264
37.690,0.138
37.695,0.126
37.700,0.158
37.705,0.093
37.710,0.074
37.715,0.138
37.720,0.101
37.725,0.042
37.730,0.095
37.735,0.100
37.740,0.022
37.745,0.044
37.750,0.087
37.755,0.017
37.760,-0.003
37.765,0.059
37.770,0.016
37.775,-0.048
37.780,0.004
37.785,0.006
37.790,-0.075
37.795,-0.057
37.800,-0.019
37.805,-0.093
37.810,-0.119
37.815,-0.060
37.820,-0.095
37.825,-0.152
37.830,-0.098
37.835,-0.091
37.840,-0.164
37.845,-0.137
37.850,-0.092
37.855,-0.161
37.860,-0.181
37.865,-0.113
37.870,-0.135
37.875,-0.164
37.880,-0.066
37.885,-0.007
37.890,-0.033
37.895,0.038
37.900,0.129
37.905,0.102
37.910,0.119
37.915,0.210
37.920,0.189
37.925,0.146
37.930,0.216
37.935,0.229
37.940,0.156
37.945,0.181
37.950,0.227
37.955,0.160
37.960,0.139
37.965,0.203
37.970,0.168
37.975,0.109
37.980,0.164
37.985,0.172
37.990,0.097
37.995,0.122
38.000,0.168
38.005,0.100
38.010,0.080
38.015,0.146
38.020,0.111
38.025,0.053
38.030,0.112
38.035,0.122
38.040,0.047
38.045,0.071
38.050,0.119
38.055,0.053
38.060,0.036
38.065,0.105
38.070,0.070
38.075,0.007
38.080,0.060
38.085,0.071
38.090,-0.002
38.095,0.023
38.100,0.073
38.105,0.008
38.110,-0.012
38.115,0.055
38.120,0.022
38.125,-0.035
38.130,0.023
38.135,0.036
38.140,-0.040
38.145,-0.018
38.150,0.032
38.155,-0.036
38.160,-0.065
38.165,-0.009
38.170,-0.059
38.175,-0.137
38.180,-0.085
38.185,-0.062
38.190,-0.124
38.195,-0.091
38.200,-0.030
38.205,-0.086
38.210,-0.121
38.215,-0.067
38.220,-0.072
38.225,-0.092
38.230,-0.019
38.235,0.001
38.240,-0.065
38.245,-0.045
38.250,0.010
38.255,-0.040
38.260,-0.044
38.265,0.042
38.270,0.026
38.275,-0.026
38.280,0.032
38.285,0.044
38.290,-0.030
38.295,-0.004
38.300,0.047
38.305,-0.019
38.310,-0.040
38.315,0.029
38.320,0.010
38.325,-0.021
38.330,0.033
38.335,-0.020
38.340,-0.195
38.345,-0.336
38.350,-0.568
38.355,-0.925
38.360,-0.977
38.365,-0.680
38.370,-0.517
38.375,-0.373
38.380,0.006
38.385,0.271
38.390,0.313
38.395,0.384
38.400,0.393
38.405,0.230
38.410,0.140
38.415,0.165
38.420,0.113
38.425,0.056
38.430,0.110
38.435,0.119
38.440,0.041
38.445,0.059
38.450,0.108
38.455,0.040
38.460,0.014
38.465,0.079
38.470,0.046
38.475,-0.019
38.480,0.033
38.485,0.046
38.490,-0.034
38.495,-0.019
38.500,0.026
38.505,-0.045
38.510,-0.074
38.515,-0.016
38.520,-0.056
38.525,-0.124
38.530,-0.076
38.535,-0.068
38.540,-0.144
38.545,-0.121
38.550,-0.070
38.555,-0.135
38.560,-0.157
38.565,-0.091
38.570,-0.121
38.575,-0.180
38.580,-0.125
38.585,-0.107
38.590,-0.168
38.595,-0.122
38.600,-0.033
38.605,-0.051
38.610,-0.028
38.615,0.084
38.620,0.099
38.625,0.078
38.630,0.163
38.635,0.201
38.640,0.143
38.645,0.177
38.650,0.236
38.655,0.177
38.660,0.158
38.665,0.226
38.670,0.196
38.675,0.134
38.680,0.187
38.685,0.199
38.690,0.122
38.695,0.139
38.700,0.186
38.705,0.119
38.710,0.093
38.715,0.160
38.720,0.133
38.725,0.071
38.730,0.124
38.735,0.139
38.740,0.064
38.745,0.083
38.750,0.133
38.755,0.069
38.760,0.042
38.765,0.107
38.770,0.081
38.775,0.024
38.780,0.079
38.785,0.094
38.790,0.021
38.795,0.042
38.800,0.094
38.805,0.032
38.810,0.007
38.815,0.072
38.820,0.044
38.825,-0.015
38.830,0.039
38.835,0.056
38.840,-0.014
38.845,0.007
38.850,0.059
38.855,-0.004
38.860,-0.031
38.865,0.037
38.870,0.010
38.875,-0.052
38.880,0.001
38.885,0.023
38.890,-0.047
38.895,-0.025
38.900,0.028
38.905,-0.034
38.910,-0.059
38.915,0.010
38.920,-0.014
38.925,-0.071
38.930,-0.014
38.935,0.005
38.940,-0.069
38.945,-0.050
38.950,0.007
38.955,-0.050
38.960,-0.074
38.965,-0.006
38.970,-0.034
38.975,-0.101
38.980,-0.054
38.985,-0.047
38.990,-0.137
38.995,-0.127
39.000,-0.070
39.005,-0.120
39.010,-0.136
39.015,-0.054
39.020,-0.066
39.025,-0.138
39.030,-0.101
39.035,-0.062
39.040,-0.095
39.045,-0.054
39.050,0.009
39.055,-0.044
39.060,-0.071
39.065,-0.002
39.070,-0.014
39.075,-0.057
39.080,0.016
39.085,0.052
39.090,-0.012
39.095,0.007
39.100,0.064
39.105,0.008
39.110,-0.019
39.115,0.047
39.120,0.022
39.125,-0.040
39.130,0.015
39.135,0.048
39.140,0.003
39.145,0.021
39.150,0.019
39.155,-0.131
39.160,-0.309
39.165,-0.503
39.170,-0.806
39.175,-0.915
39.180,-0.685
39.185,-0.514
39.190,-0.412
39.195,-0.085
39.200,0.238
39.205,0.311
39.210,0.350
39.215,0.401
39.220,0.287
39.225,0.157
39.230,0.164
39.235,0.154
39.240,0.078
39.245,0.094
39.250,0.141
39.255,0.074
39.260,0.042
39.265,0.107
39.270,0.080
39.275,0.016
39.280,0.064
39.285,0.080
39.290,0.001
39.295,0.013
39.300,0.064
39.305,-0.001
39.310,-0.034
39.315,0.027
39.320,-0.005
39.325,-0.076
39.330,-0.033
39.335,-0.019
39.340,-0.100
39.345,-0.092
39.350,-0.042
39.355,-0.106
39.360,-0.137
39.365,-0.067
39.370,-0.086
39.375,-0.146
39.380,-0.091
39.385,-0.064
39.390,-0.136
39.395,-0.122
39.400,-0.065
39.405,-0.117
39.410,-0.132
39.415,-0.041
39.420,-0.028
39.425,-0.050
39.430,0.042
39.435,0.106
39.440,0.070
39.445,0.116
39.450,0.198
39.455,0.160
39.460,0.144
39.465,0.223
39.470,0.209
39.475,0.148
39.480,0.199
39.485,0.221
39.490,0.144
39.495,0.155
39.500,0.211
39.505,0.150
39.510,0.115
39.515,0.178
39.520,0.152
39.525,0.085
39.530,0.134
39.535,0.155
39.540,0.079
39.545,0.092
39.550,0.147
39.555,0.085
39.560,0.052
39.565,0.118
39.570,0.097
39.575,0.033
39.580,0.086
39.585,0.110
39.590,0.036
39.595,0.049
39.600,0.104
39.605,0.046
39.610,0.019
39.615,0.088
39.620,0.068
39.625,0.006
39.630,0.058
39.635,0.079
39.640,0.001
39.645,0.013
39.650,0.068
39.655,0.008
39.660,-0.029
39.665,0.030
39.670,-0.001
39.675,-0.082
39.680,-0.046
39.685,-0.019
39.690,-0.083
39.695,-0.069
39.700,-0.008
39.705,-0.056
39.710,-0.097
39.715,-0.051
39.720,-0.059
39.725,-0.080
39.730,-0.003
39.735,0.029
39.740,-0.035
39.745,-0.025
39.750,0.027
39.755,-0.021
39.760,-0.041
39.765,0.042
39.770,0.044
39.775,-0.009
39.780,0.045
39.785,0.070
39.790,-0.006
39.795,0.005
39.800,0.061
39.805,0.000
39.810,-0.035
39.815,0.034
39.820,0.016
39.825,-0.038
39.830,0.045
39.835,0.079
39.840,-0.043
39.845,-0.107
39.850,-0.189
39.855,-0.510
39.860,-0.845
39.865,-0.864
39.870,-0.725
39.875,-0.647
39.880,-0.439
39.885,-0.088
39.890,0.150
39.895,0.290
39.900,0.391
39.905,0.318
39.910,0.198
39.915,0.197
39.920,0.139
39.925,0.052
39.930,0.101
39.935,0.125
39.940,0.046
39.945,0.051
39.950,0.103
39.955,0.047
39.960,0.012
39.965,0.074
39.970,0.051
39.975,-0.020
39.980,0.023
39.985,0.043
39.990,-0.039
39.995,-0.036
40.000,0.018
40.005,-0.043
40.010,-0.085
40.015,-0.023
40.020,-0.045
40.025,-0.118
40.030,-0.081
40.035,-0.065
40.040,-0.144
40.045,-0.140
40.050,-0.088
40.055,-0.143
40.060,-0.170
40.065,-0.096
40.070,-0.107
40.075,-0.165
40.080,-0.111
40.085,-0.077
40.090,-0.135
40.095,-0.107
40.100,-0.026
40.105,-0.044
40.110,-0.037
40.115,0.067
40.120,0.089
40.125,0.056
40.130,0.130
40.135,0.184
40.140,0.132
40.145,0.154
40.150,0.223
40.155,0.177
40.160,0.146
40.165,0.212
40.170,0.195
40.175,0.129
40.180,0.176
40.185,0.198
40.190,0.117
40.195,0.120
40.200,0.176
40.205,0.118
40.210,0.079
40.215,0.142
40.220,0.124
40.225,0.060
40.230,0.108
40.235,0.134
40.240,0.057
40.245,0.061
40.250,0.117
40.255,0.062
40.260,0.028
40.265,0.095
40.270,0.079
40.275,0.014
40.280,0.064
40.285,0.095
40.290,0.024
40.295,0.028
40.300,0.087
40.305,0.036
40.310,0.002
40.315,0.070
40.320,0.054
40.325,-0.021
40.330,0.022
40.335,0.053
40.340,-0.017
40.345,-0.008
40.350,0.054
40.355,0.008
40.360,-0.022
40.365,0.041
40.370,0.025
40.375,-0.035
40.380,0.010
40.385,0.031
40.390,-0.048
40.395,-0.042
40.400,0.023
40.405,-0.028
40.410,-0.064
40.415,0.007
40.420,-0.005
40.425,-0.066
40.430,-0.016
40.435,0.015
40.440,-0.053
40.445,-0.044
40.450,0.016
40.455,-0.039
40.460,-0.078
40.465,-0.015
40.470,-0.026
40.475,-0.090
40.480,-0.047
40.485,-0.019
40.490,-0.098
40.495,-0.107
40.500,-0.058
40.505,-0.107
40.510,-0.136
40.515,-0.063
40.520,-0.062
40.525,-0.116
40.530,-0.084
40.535,-0.079
40.540,-0.141
40.545,-0.092
40.550,-0.009
40.555,-0.055
40.560,-0.077
40.565,0.003
40.570,-0.004
40.575,-0.060
40.580,0.000
40.585,0.049
40.590,-0.003
40.595,0.010
40.600,0.070
40.605,0.023
40.610,-0.015
40.615,0.051
40.620,0.041
40.625,-0.031
40.630,0.011
40.635,0.045
40.640,-0.023
40.645,0.010
40.650,0.115
40.655,0.056
40.660,-0.045
40.665,-0.079
40.670,-0.292
40.675,-0.684
40.680,-0.881
40.685,-0.832
40.690,-0.771
40.695,-0.651
40.700,-0.360
40.705,-0.029
40.710,0.212
40.715,0.395
40.720,0.445
40.725,0.332
40.730,0.278
40.735,0.252
40.740,0.134
40.745,0.110
40.750,0.173
40.755,0.122
40.760,0.073
40.765,0.128
40.770,0.115
40.775,0.045
40.780,0.084
40.785,0.114
40.790,0.036
40.795,0.030
40.800,0.086
40.805,0.034
40.810,-0.009
40.815,0.048
40.820,0.026
40.825,-0.054
40.830,-0.020
40.835,0.008
40.840,-0.068
40.845,-0.074
40.850,-0.018
40.855,-0.068
40.860,-0.113
40.865,-0.056
40.870,-0.069
40.875,-0.136
40.880,-0.091
40.885,-0.055
40.890,-0.123
40.895,-0.116
40.900,-0.052
40.905,-0.102
40.910,-0.138
40.915,-0.055
40.920,-0.036
40.925,-0.075
40.930,-0.004
40.935,0.061
40.940,0.023
40.945,0.062
40.950,0.162
40.955,0.140
40.960,0.121
40.965,0.202
40.970,0.202
40.975,0.141
40.980,0.184
40.985,0.216
40.990,0.145
40.995,0.142
41.000,0.198
41.005,0.148
41.010,0.108
41.015,0.174
41.020,0.166
41.025,0.092
41.030,0.127
41.035,0.158
41.040,0.087
41.045,0.091
41.050,0.151
41.055,0.092
41.060,0.038
41.065,0.095
41.070,0.089
41.075,0.020
41.080,0.060
41.085,0.103
41.090,0.038
41.095,0.039
41.100,0.102
41.105,0.054
41.110,0.014
41.115,0.080
41.120,0.073
41.125,0.002
41.130,0.041
41.135,0.079
41.140,0.010
41.145,0.003
41.150,0.064
41.155,0.024
41.160,-0.014
41.165,0.050
41.170,0.042
41.175,-0.029
41.180,0.010
41.185,0.039
41.190,-0.046
41.195,-0.059
41.200,-0.007
41.205,-0.073
41.210,-0.121
41.215,-0.039
41.220,-0.025
41.225,-0.083
41.230,-0.046
41.235,-0.028
41.240,-0.124
41.245,-0.124
41.250,-0.025
41.255,-0.043
41.260,-0.079
41.265,0.001
41.270,0.009
41.275,-0.060
41.280,-0.008
41.285,0.052
41.290,-0.004
41.295,0.000
41.300,0.065
41.305,0.017
41.310,-0.028
41.315,0.040
41.320,0.038
41.325,-0.031
41.330,0.010
41.335,0.044
41.340,-0.028
41.345,-0.025
41.350,0.051
41.355,0.040
41.360,0.036
41.365,0.083
41.370,0.005
41.375,-0.186
41.380,-0.391
41.385,-0.704
41.390,-1.000
41.395,-0.975
41.400,-0.773
41.405,-0.659
41.410,-0.399
41.415,0.097
41.420,0.348
41.425,0.347
41.430,0.405
41.435,0.368
41.440,0.207
41.445,0.158
41.450,0.183
41.455,0.119
41.460,0.074
41.465,0.132
41.470,0.119
41.475,0.041
41.480,0.076
41.485,0.111
41.490,0.037
41.495,0.029
41.500,0.087
41.505,0.036
41.510,-0.013
41.515,0.045
41.520,0.033
41.525,-0.048
41.530,-0.019
41.535,0.011
41.540,-0.068
41.545,-0.081
41.550,-0.025
41.555,-0.077
41.560,-0.135
41.565,-0.083
41.570,-0.095
41.575,-0.173
41.580,-0.136
41.585,-0.096
41.590,-0.162
41.595,-0.157
41.600,-0.081
41.605,-0.115
41.610,-0.148
41.615,-0.069
41.620,-0.053
41.625,-0.101
41.630,-0.033
41.635,0.043
41.640,0.008
41.645,0.040
41.650,0.140
41.655,0.125
41.660,0.104
41.665,0.190
41.670,0.205
41.675,0.142
41.680,0.183
41.685,0.226
41.690,0.160
41.695,0.157
41.700,0.219
41.705,0.172
41.710,0.122
41.715,0.179
41.720,0.169
41.725,0.095
41.730,0.130
41.735,0.161
41.740,0.084
41.745,0.076
41.750,0.140
41.755,0.094
41.760,0.042
41.765,0.102
41.770,0.098
41.775,0.024
41.780,0.057
41.785,0.098
41.790,0.032
41.795,0.029
41.800,0.093
41.805,0.049
41.810,0.004
41.815,0.067
41.820,0.065
41.825,-0.004
41.830,0.038
41.835,0.081
41.840,0.011
41.845,0.006
41.850,0.073
41.855,0.032
41.860,-0.016
41.865,0.045
41.870,0.047
41.875,-0.023
41.880,0.011
41.885,0.052
41.890,-0.014
41.895,-0.019
41.900,0.045
41.905,0.003
41.910,-0.045
41.915,0.016
41.920,0.015
41.925,-0.056
41.930,-0.018
41.935,0.026
41.940,-0.040
41.945,-0.047
41.950,0.018
41.955,-0.023
41.960,-0.069
41.965,-0.001
41.970,0.004
41.975,-0.066
41.980,-0.033
41.985,0.009
41.990,-0.057
41.995,-0.060
42.000,0.009
42.005,-0.031
42.010,-0.080
42.015,-0.019
42.020,-0.018
42.025,-0.088
42.030,-0.054
42.035,-0.018
42.040,-0.096
42.045,-0.118
42.050,-0.069
42.055,-0.109
42.060,-0.145
42.065,-0.074
42.070,-0.058
42.075,-0.106
42.080,-0.068
42.085,-0.055
42.090,-0.128
42.095,-0.099
42.100,-0.002
42.105,-0.032
42.110,-0.074
42.115,-0.001
42.120,0.007
42.125,-0.060
42.130,-0.012
42.135,0.048
42.140,-0.005
42.145,-0.002
42.150,0.069
42.155,0.031
42.160,-0.017
42.165,0.046
42.170,0.051
42.175,-0.020
42.180,0.013
42.185,0.055
42.190,-0.012
42.195,-0.003
42.200,0.102
42.205,0.066
42.210,-0.036
42.215,-0.055
42.220,-0.211
42.225,-0.574
42.230,-0.844
42.235,-0.886
42.240,-0.848
42.245,-0.737
42.250,-0.469
42.255,-0.100
42.260,0.236
42.265,0.421
42.270,0.431
42.275,0.330
42.280,0.276
42.285,0.258
42.290,0.149
42.295,0.112
42.300,0.179
42.305,0.138
42.310,0.079
42.315,0.135
42.320,0.135
42.325,0.058
42.330,0.086
42.335,0.128
42.340,0.055
42.345,0.038
42.350,0.100
42.355,0.057
42.360,-0.001
42.365,0.050
42.370,0.047
42.375,-0.034
42.380,-0.013
42.385,0.022
42.390,-0.055
42.395,-0.076
42.400,-0.021
42.405,-0.071
42.410,-0.131
42.415,-0.078
42.420,-0.080
42.425,-0.156
42.430,-0.124
42.435,-0.074
42.440,-0.130
42.445,-0.131
42.450,-0.056
42.455,-0.086
42.460,-0.129
42.465,-0.053
42.470,-0.026
42.475,-0.070
42.480,-0.001
42.485,0.081
42.490,0.050
42.495,0.073
42.500,0.169
42.505,0.156
42.510,0.123
42.515,0.198
42.520,0.213
42.525,0.146
42.530,0.183
42.535,0.233
42.540,0.165
42.545,0.147
42.550,0.207
42.555,0.169
42.560,0.117
42.565,0.173
42.570,0.173
42.575,0.096
42.580,0.121
42.585,0.161
42.590,0.089
42.595,0.072
42.600,0.134
42.605,0.094
42.610,0.039
42.615,0.097
42.620,0.102
42.625,0.026
42.630,0.053
42.635,0.099
42.640,0.032
42.645,0.019
42.650,0.088
42.655,0.051
42.660,-0.005
42.665,0.058
42.670,0.069
42.675,-0.003
42.680,0.030
42.685,0.079
42.690,0.012
42.695,0.000
42.700,0.068
42.705,0.035
42.710,-0.017
42.715,0.043
42.720,0.052
42.725,-0.020
42.730,0.009
42.735,0.057
42.740,-0.011
42.745,-0.028
42.750,0.040
42.755,0.005
42.760,-0.051
42.765,0.006
42.770,0.014
42.775,-0.058
42.780,-0.036
42.785,-0.002
42.790,-0.083
42.795,-0.113
42.800,-0.052
42.805,-0.078
42.810,-0.119
42.815,-0.055
42.820,-0.036
42.825,-0.104
42.830,-0.100
42.835,-0.064
42.840,-0.095
42.845,-0.071
42.850,0.011
42.855,-0.013
42.860,-0.061
42.865,-0.008
42.870,0.000
42.875,-0.061
42.880,-0.014
42.885,0.053
42.890,0.002
42.895,-0.004
42.900,0.065
42.905,0.030
42.910,-0.028
42.915,0.031
42.920,0.041
42.925,-0.034
42.930,-0.007
42.935,0.042
42.940,-0.022
42.945,-0.017
42.950,0.085
42.955,0.041
42.960,-0.075
42.965,-0.101
42.970,-0.260
42.975,-0.631
42.980,-0.867
42.985,-0.839
42.990,-0.777
42.995,-0.683
43.000,-0.393
43.005,-0.008
43.010,0.254
43.015,0.377
43.020,0.376
43.025,0.257
43.030,0.209
43.035,0.207
43.040,0.105
43.045,0.077
43.050,0.148
43.055,0.111
43.060,0.048
43.065,0.101
43.070,0.110
43.075,0.034
43.080,0.055
43.085,0.097
43.090,0.031
43.095,0.010
43.100,0.072
43.105,0.034
43.110,-0.027
43.115,0.024
43.120,0.025
43.125,-0.059
43.130,-0.043
43.135,-0.004
43.140,-0.081
43.145,-0.111
43.150,-0.055
43.155,-0.097
43.160,-0.160
43.165,-0.108
43.170,-0.102
43.175,-0.177
43.180,-0.151
43.185,-0.097
43.190,-0.154
43.195,-0.164
43.200,-0.088
43.205,-0.110
43.210,-0.146
43.215,-0.059
43.220,-0.013
43.225,-0.047
43.230,0.020
43.235,0.109
43.240,0.082
43.245,0.098
43.250,0.193
43.255,0.185
43.260,0.146
43.265,0.216
43.270,0.236
43.275,0.165
43.280,0.190
43.285,0.238
43.290,0.171
43.295,0.148
43.300,0.210
43.305,0.173
43.310,0.113
43.315,0.165
43.320,0.170
43.325,0.092
43.330,0.112
43.335,0.158
43.340,0.089
43.345,0.065
43.350,0.129
43.355,0.096
43.360,0.037
43.365,0.091
43.370,0.102
43.375,0.028
43.380,0.051
43.385,0.101
43.390,0.038
43.395,0.017
43.400,0.084
43.405,0.054
43.410,-0.002
43.415,0.055
43.420,0.069
43.425,-0.003
43.430,0.022
43.435,0.074
43.440,0.011
43.445,-0.008
43.450,0.061
43.455,0.033
43.460,-0.024
43.465,0.033
43.470,0.048
43.475,-0.024
43.480,-0.001
43.485,0.050
43.490,-0.012
43.495,-0.034
43.500,0.030
43.505,0.001
43.510,-0.053
43.515,0.005
43.520,0.019
43.525,-0.054
43.530,-0.032
43.535,0.020
43.540,-0.040
43.545,-0.061
43.550,0.008
43.555,-0.020
43.560,-0.077
43.565,-0.020
43.570,-0.001
43.575,-0.070
43.580,-0.047
43.585,0.007
43.590,-0.053
43.595,-0.073
43.600,-0.004
43.605,-0.033
43.610,-0.090
43.615,-0.029
43.620,-0.011
43.625,-0.083
43.630,-0.061
43.635,-0.009
43.640,-0.075
43.645,-0.101
43.650,-0.039
43.655,-0.080
43.660,-0.153
43.665,-0.096
43.670,-0.068
43.675,-0.131
43.680,-0.094
43.685,-0.020
43.690,-0.084
43.695,-0.139
43.700,-0.074
43.705,-0.064
43.710,-0.090
43.715,-0.021
43.720,0.002
43.725,-0.063
43.730,-0.039
43.735,0.017
43.740,-0.034
43.745,-0.038
43.750,0.050
43.755,0.034
43.760,-0.017
43.765,0.042
43.770,0.060
43.775,-0.015
43.780,0.005
43.785,0.056
43.790,-0.006
43.795,-0.027
43.800,0.042
43.805,0.022
43.810,-0.009
43.815,0.068
43.820,0.054
43.825,-0.087
43.830,-0.170
43.835,-0.323
43.840,-0.694
43.845,-0.907
43.850,-0.787
43.855,-0.704
43.860,-0.656
43.865,-0.313
43.870,0.133
43.875,0.299
43.880,0.364
43.885,0.423
43.890,0.299
43.895,0.199
43.900,0.221
43.905,0.160
43.910,0.091
43.915,0.149
43.920,0.165
43.925,0.088
43.930,0.103
43.935,0.153
43.940,0.089
43.945,0.061
43.950,0.123
43.955,0.090
43.960,0.022
43.965,0.070
43.970,0.080
43.975,0.000
43.980,0.015
43.985,0.061
43.990,-0.011
43.995,-0.045
44.000,0.011
44.005,-0.025
44.010,-0.096
44.015,-0.053
44.020,-0.046
44.025,-0.130
44.030,-0.118
44.035,-0.068
44.040,-0.127
44.045,-0.149
44.050,-0.077
44.055,-0.093
44.060,-0.145
44.065,-0.086
44.070,-0.056
44.075,-0.116
44.080,-0.079
44.085,0.003
44.090,-0.022
44.095,-0.010
44.100,0.095
44.105,0.106
44.110,0.077
44.115,0.159
44.120,0.201
44.125,0.144
44.130,0.173
44.135,0.237
44.140,0.185
44.145,0.162
44.150,0.231
44.155,0.205
44.160,0.142
44.165,0.192
44.170,0.206
44.175,0.125
44.180,0.136
44.185,0.185
44.190,0.120
44.195,0.088
44.200,0.150
44.205,0.124
44.210,0.063
44.215,0.111
44.220,0.125
44.225,0.048
44.230,0.062
44.235,0.115
44.240,0.053
44.245,0.024
44.250,0.092
44.255,0.068
44.260,0.007
44.265,0.059
44.270,0.079
44.275,0.010
44.280,0.029
44.285,0.083
44.290,0.025
44.295,-0.001
44.300,0.068
44.305,0.045
44.310,-0.016
44.315,0.038
44.320,0.059
44.325,-0.012
44.330,0.007
44.335,0.064
44.340,0.006
44.345,-0.021
44.350,0.045
44.355,0.021
44.360,-0.042
44.365,0.013
44.370,0.038
44.375,-0.037
44.380,-0.021
44.385,0.037
44.390,-0.022
44.395,-0.049
44.400,0.019
44.405,-0.003
44.410,-0.064
44.415,-0.011
44.420,0.014
44.425,-0.058
44.430,-0.043
44.435,0.014
44.440,-0.044
44.445,-0.072
44.450,-0.001
44.455,-0.021
44.460,-0.084
44.465,-0.031
44.470,-0.009
44.475,-0.085
44.480,-0.079
44.485,-0.035
44.490,-0.107
44.495,-0.144
44.500,-0.070
44.505,-0.083
44.510,-0.138
44.515,-0.069
44.520,-0.028
44.525,-0.118
44.530,-0.131
44.535,-0.058
44.540,-0.078
44.545,-0.085
44.550,-0.010
44.555,-0.023
44.560,-0.076
44.565,-0.021
44.570,0.008
44.575,-0.052
44.580,-0.017
44.585,0.059
44.590,0.013
44.595,-0.013
44.600,0.054
44.605,0.031
44.610,-0.033
44.615,0.019
44.620,0.046
44.625,-0.027
44.630,-0.012
44.635,0.044
44.640,-0.006
44.645,-0.003
44.650,0.091
44.655,0.040
44.660,-0.090
44.665,-0.144
44.670,-0.340
44.675,-0.733
44.680,-0.910
44.685,-0.808
44.690,-0.767
44.695,-0.693
44.700,-0.344
44.705,0.062
44.710,0.256
44.715,0.382
44.720,0.437
44.725,0.302
44.730,0.229
44.735,0.239
44.740,0.143
44.745,0.095
44.750,0.161
44.755,0.135
44.760,0.066
44.765,0.111
44.770,0.132
44.775,0.059
44.780,0.071
44.785,0.121
44.790,0.057
44.795,0.022
44.800,0.087
44.805,0.066
44.810,-0.004
44.815,0.034
44.820,0.047
44.825,-0.037
44.830,-0.034
44.835,0.010
44.840,-0.057
44.845,-0.094
44.850,-0.043
44.855,-0.081
44.860,-0.153
44.865,-0.107
44.870,-0.084
44.875,-0.156
44.880,-0.138
44.885,-0.075
44.890,-0.125
44.895,-0.149
44.900,-0.073
44.905,-0.076
44.910,-0.124
44.915,-0.053
44.920,0.003
44.925,-0.037
44.930,0.012
44.935,0.111
44.940,0.097
44.945,0.101
44.950,0.196
44.955,0.199
44.960,0.149
44.965,0.205
44.970,0.240
44.975,0.172
44.980,0.182
44.985,0.238
44.990,0.181
44.995,0.145
45.000,0.209
45.005,0.191
45.010,0.123
45.015,0.168
45.020,0.193
45.025,0.111
45.030,0.112
45.035,0.161
45.040,0.096
45.045,0.059
45.050,0.127
45.055,0.104
45.060,0.032
45.065,0.079
45.070,0.104
45.075,0.032
45.080,0.042
45.085,0.102
45.090,0.051
45.095,0.020
45.100,0.090
45.105,0.079
45.110,0.012
45.115,0.057
45.120,0.083
45.125,0.006
45.130,0.013
45.135,0.069
45.140,0.016
45.145,-0.013
45.150,0.056
45.155,0.043
45.160,-0.021
45.165,0.022
45.170,0.049
45.175,-0.020
45.180,-0.011
45.185,0.051
45.190,0.005
45.195,-0.031
45.200,0.031
45.205,0.017
45.210,-0.047
45.215,-0.001
45.220,0.026
45.225,-0.042
45.230,-0.028
45.235,0.030
45.240,-0.028
45.245,-0.061
45.250,0.006
45.255,-0.013
45.260,-0.077
45.265,-0.022
45.270,0.005
45.275,-0.070
45.280,-0.058
45.285,0.006
45.290,-0.044
45.295,-0.078
45.300,-0.012
45.305,-0.031
45.310,-0.102
45.315,-0.060
45.320,-0.041
45.325,-0.129
45.330,-0.131
45.335,-0.066
45.340,-0.110
45.345,-0.131
45.350,-0.037
45.355,-0.039
45.360,-0.136
45.365,-0.113
45.370,-0.063
45.375,-0.101
45.380,-0.068
