'Elapsed time','ECG'
'seconds','mV'
0.000,0.061
0.005,0.051
0.010,0.033
0.015,0.064
0.020,0.028
0.025,-0.056
0.030,-0.025
0.035,-0.024
0.040,-0.115
0.045,-0.114
0.050,-0.079
0.055,-0.154
0.060,-0.188
0.065,-0.124
0.070,-0.154
0.075,-0.217
0.080,-0.151
0.085,-0.122
0.090,-0.187
0.095,-0.150
0.100,-0.082
0.105,-0.123
0.110,-0.104
0.115,0.007
0.120,0.009
0.125,-0.020
0.130,0.077
0.135,0.124
0.140,0.070
0.145,0.115
0.150,0.195
0.155,0.150
0.160,0.125
0.165,0.186
0.170,0.163
0.175,0.118
0.180,0.183
0.185,0.202
0.190,0.130
0.195,0.146
0.200,0.185
0.205,0.103
0.210,0.058
0.215,0.097
0.220,0.017
0.225,-0.136
0.230,-0.210
0.235,-0.330
0.240,-0.563
0.245,-0.709
0.250,-0.768
0.255,-0.930
0.260,-1.092
0.265,-1.145
0.270,-1.225
0.275,-1.296
0.280,-1.275
0.285,-1.260
0.290,-1.212
0.295,-1.061
0.300,-0.897
0.305,-0.659
0.310,-0.130
0.315,0.627
0.320,1.105
0.325,1.170
0.330,1.212
0.335,1.228
0.340,1.128
0.345,1.121
0.350,1.146
0.355,1.049
0.360,0.988
0.365,1.013
0.370,0.946
0.375,0.856
0.380,0.880
0.385,0.854
0.390,0.743
0.395,0.739
0.400,0.764
0.405,0.676
0.410,0.632
0.415,0.673
0.420,0.623
0.425,0.552
0.430,0.590
0.435,0.587
0.440,0.505
0.445,0.512
0.450,0.540
0.455,0.468
0.460,0.439
0.465,0.494
0.470,0.453
0.475,0.377
0.480,0.411
0.485,0.405
0.490,0.300
0.495,0.284
0.500,0.290
0.505,0.176
0.510,0.102
0.515,0.116
0.520,0.029
0.525,-0.093
0.530,-0.095
0.535,-0.136
0.540,-0.268
0.545,-0.300
0.550,-0.296
0.555,-0.403
0.560,-0.459
0.565,-0.421
0.570,-0.474
0.575,-0.541
0.580,-0.492
0.585,-0.481
0.590,-0.552
0.595,-0.530
0.600,-0.475
0.605,-0.537
0.610,-0.555
0.615,-0.475
0.620,-0.489
0.625,-0.537
0.630,-0.471
0.635,-0.441
0.640,-0.499
0.645,-0.462
0.650,-0.389
0.655,-0.436
0.660,-0.453
0.665,-0.372
0.670,-0.379
0.675,-0.418
0.680,-0.345
0.685,-0.313
0.690,-0.373
0.695,-0.335
0.700,-0.263
0.705,-0.308
0.710,-0.314
0.715,-0.225
0.720,-0.233
0.725,-0.277
0.730,-0.203
0.735,-0.170
0.740,-0.234
0.745,-0.197
0.750,-0.123
0.755,-0.172
0.760,-0.180
0.765,-0.095
0.770,-0.113
0.775,-0.158
0.780,-0.085
0.785,-0.058
0.790,-0.121
0.795,-0.086
0.800,-0.022
0.805,-0.076
0.810,-0.088
0.815,-0.006
0.820,-0.024
0.825,-0.079
0.830,-0.014
0.835,0.012
0.840,-0.063
0.845,-0.034
0.850,0.034
0.855,-0.021
0.860,-0.039
0.865,0.042
0.870,0.028
0.875,-0.024
0.880,0.035
0.885,0.057
0.890,-0.005
0.895,0.025
0.900,0.078
0.905,0.021
0.910,0.004
0.915,0.072
0.920,0.052
0.925,-0.003
0.930,0.055
0.935,0.086
0.940,0.020
0.945,0.040
0.950,0.103
0.955,0.051
0.960,0.025
0.965,0.099
0.970,0.080
0.975,0.019
0.980,0.078
0.985,0.100
0.990,0.027
0.995,0.052
1.000,0.114
1.005,0.055
1.010,0.031
1.015,0.103
1.020,0.077
1.025,0.017
1.030,0.083
1.035,0.109
1.040,0.036
1.045,0.056
1.050,0.120
1.055,0.064
1.060,0.033
1.065,0.103
1.070,0.081
1.075,0.016
1.080,0.077
1.085,0.105
1.090,0.030
1.095,0.050
1.100,0.107
1.105,0.042
1.110,0.021
1.115,0.100
1.120,0.077
1.125,0.012
1.130,0.068
1.135,0.092
1.140,0.018
1.145,0.036
1.150,0.098
1.155,0.040
1.160,0.013
1.165,0.083
1.170,0.061
1.175,0.003
1.180,0.063
1.185,0.085
1.190,0.012
1.195,0.032
1.200,0.087
1.205,0.029
1.210,0.004
1.215,0.076
1.220,0.062
1.225,0.002
1.230,0.053
1.235,0.075
1.240,0.001
1.245,0.022
1.250,0.085
1.255,0.020
1.260,-0.011
1.265,0.064
1.270,0.041
1.275,-0.023
1.280,0.034
1.285,0.059
1.290,-0.013
1.295,0.008
1.300,0.068
1.305,0.006
1.310,-0.021
1.315,0.055
1.320,0.036
1.325,-0.030
1.330,0.027
1.335,0.055
1.340,-0.021
1.345,-0.006
1.350,0.049
1.355,-0.023
1.360,-0.065
1.365,0.013
1.370,-0.030
1.375,-0.219
1.380,-0.381
1.385,-0.697
1.390,-1.224
1.395,-1.534
1.400,-1.382
1.405,-0.905
1.410,-0.186
1.415,0.507
1.420,0.690
1.425,0.535
1.430,0.489
1.435,0.458
1.440,0.360
1.445,0.366
1.450,0.410
1.455,0.342
1.460,0.304
1.465,0.361
1.470,0.329
1.475,0.252
1.480,0.288
1.485,0.299
1.490,0.215
1.495,0.219
1.500,0.267
1.505,0.200
1.510,0.158
1.515,0.218
1.520,0.190
1.525,0.116
1.530,0.162
1.535,0.174
1.540,0.087
1.545,0.095
1.550,0.137
1.555,0.063
1.560,0.030
1.565,0.093
1.570,0.060
1.575,-0.012
1.580,0.030
1.585,0.040
1.590,-0.048
1.595,-0.047
1.600,-0.002
1.605,-0.075
1.610,-0.121
1.615,-0.069
1.620,-0.106
1.625,-0.177
1.630,-0.131
1.635,-0.120
1.640,-0.207
1.645,-0.205
1.650,-0.146
1.655,-0.192
1.660,-0.215
1.665,-0.138
1.670,-0.140
1.675,-0.186
1.680,-0.127
1.685,-0.097
1.690,-0.152
1.695,-0.113
1.700,-0.026
1.705,-0.057
1.710,-0.066
1.715,0.033
1.720,0.051
1.725,0.008
1.730,0.075
1.735,0.123
1.740,0.069
1.745,0.092
1.750,0.155
1.755,0.103
1.760,0.077
1.765,0.148
1.770,0.129
1.775,0.062
1.780,0.109
1.785,0.132
1.790,0.055
1.795,0.062
1.800,0.115
1.805,0.049
1.810,0.012
1.815,0.078
1.820,0.050
1.825,-0.021
1.830,0.028
1.835,0.049
1.840,-0.031
1.845,-0.017
1.850,0.042
1.855,-0.018
1.860,-0.043
1.865,0.034
1.870,0.011
1.875,-0.053
1.880,0.008
1.885,0.040
1.890,-0.028
1.895,-0.006
1.900,0.058
1.905,0.000
1.910,-0.025
1.915,0.051
1.920,0.037
1.925,-0.017
1.930,0.037
1.935,0.062
1.940,-0.007
1.945,0.006
1.950,0.063
1.955,0.012
1.960,-0.013
1.965,0.055
1.970,0.037
1.975,-0.025
1.980,0.028
1.985,0.054
1.990,-0.020
1.995,-0.011
2.000,0.048
2.005,-0.004
2.010,-0.038
2.015,0.029
2.020,0.018
2.025,-0.049
2.030,-0.002
2.035,0.029
2.040,-0.040
2.045,-0.026
2.050,0.034
2.055,-0.022
2.060,-0.047
2.065,0.027
2.070,0.005
2.075,-0.066
2.080,-0.011
2.085,0.019
2.090,-0.057
2.095,-0.041
2.100,0.022
2.105,-0.034
2.110,-0.065
2.115,0.004
2.120,-0.012
2.125,-0.075
2.130,-0.023
2.135,0.008
2.140,-0.059
2.145,-0.041
2.150,0.019
2.155,-0.048
2.160,-0.102
2.165,-0.035
2.170,-0.073
2.175,-0.257
2.180,-0.423
2.185,-0.750
2.190,-1.294
2.195,-1.619
2.200,-1.456
2.205,-0.935
2.210,-0.178
2.215,0.514
2.220,0.671
2.225,0.508
2.230,0.451
2.235,0.412
2.240,0.325
2.245,0.331
2.250,0.377
2.255,0.316
2.260,0.278
2.265,0.326
2.270,0.278
2.275,0.191
2.280,0.242
2.285,0.280
2.290,0.191
2.295,0.181
2.300,0.252
2.305,0.193
2.310,0.138
2.315,0.199
2.320,0.171
2.325,0.100
2.330,0.144
2.335,0.147
2.340,0.054
2.345,0.079
2.350,0.150
2.355,0.072
2.360,0.023
2.365,0.094
2.370,0.074
2.375,-0.020
2.380,0.011
2.385,0.046
2.390,-0.042
2.395,-0.059
2.400,-0.009
2.405,-0.077
2.410,-0.131
2.415,-0.079
2.420,-0.109
2.425,-0.190
2.430,-0.157
2.435,-0.142
2.440,-0.224
2.445,-0.209
2.450,-0.146
2.455,-0.211
2.460,-0.234
2.465,-0.142
2.470,-0.150
2.475,-0.214
2.480,-0.158
2.485,-0.083
2.490,-0.087
2.495,-0.039
2.500,0.053
2.505,0.032
2.510,0.013
2.515,0.096
2.520,0.102
2.525,0.052
2.530,0.119
2.535,0.164
2.540,0.089
2.545,0.106
2.550,0.180
2.555,0.127
2.560,0.090
2.565,0.157
2.570,0.142
2.575,0.061
2.580,0.107
2.585,0.157
2.590,0.085
2.595,0.074
2.600,0.136
2.605,0.087
2.610,0.031
2.615,0.097
2.620,0.095
2.625,0.024
2.630,0.078
2.635,0.103
2.640,0.001
2.645,0.001
2.650,0.065
2.655,0.010
2.660,-0.021
2.665,0.051
2.670,0.046
2.675,-0.011
2.680,0.032
2.685,0.048
2.690,-0.041
2.695,-0.034
2.700,0.039
2.705,-0.001
2.710,-0.030
2.715,0.033
2.720,0.008
2.725,-0.055
2.730,0.016
2.735,0.054
2.740,-0.037
2.745,-0.039
2.750,0.026
2.755,-0.024
2.760,-0.052
2.765,0.022
2.770,-0.002
2.775,-0.074
2.780,-0.015
2.785,0.022
2.790,-0.046
2.795,-0.039
2.800,0.021
2.805,-0.030
2.810,-0.060
2.815,0.022
2.820,0.003
2.825,-0.092
2.830,-0.039
2.835,0.021
2.840,-0.053
2.845,-0.052
2.850,0.013
2.855,-0.042
2.860,-0.076
2.865,-0.004
2.870,-0.009
2.875,-0.061
2.880,-0.019
2.885,0.006
2.890,-0.053
2.895,-0.050
2.900,-0.002
2.905,-0.044
2.910,-0.077
2.915,-0.012
2.920,-0.005
2.925,-0.066
2.930,-0.027
2.935,0.002
2.940,-0.069
2.945,-0.056
2.950,0.014
2.955,-0.035
2.960,-0.069
2.965,-0.004
2.970,-0.035
2.975,-0.121
2.980,-0.059
2.985,0.005
2.990,-0.147
2.995,-0.370
3.000,-0.625
3.005,-1.130
3.010,-1.664
3.015,-1.752
3.020,-1.331
3.025,-0.556
3.030,0.345
3.035,0.778
3.040,0.635
3.045,0.505
3.050,0.493
3.055,0.394
3.060,0.337
3.065,0.399
3.070,0.373
3.075,0.282
3.080,0.321
3.085,0.348
3.090,0.254
3.095,0.245
3.100,0.305
3.105,0.240
3.110,0.186
3.115,0.245
3.120,0.224
3.125,0.158
3.130,0.204
3.135,0.220
3.140,0.142
3.145,0.145
3.150,0.194
3.155,0.133
3.160,0.087
3.165,0.138
3.170,0.106
3.175,0.026
3.180,0.071
3.185,0.101
3.190,0.018
3.195,0.020
3.200,0.077
3.205,0.004
3.210,-0.055
3.215,-0.004
3.220,-0.038
3.225,-0.128
3.230,-0.099
3.235,-0.073
3.240,-0.156
3.245,-0.171
3.250,-0.121
3.255,-0.181
3.260,-0.225
3.265,-0.154
3.270,-0.165
3.275,-0.225
3.280,-0.162
3.285,-0.122
3.290,-0.183
3.295,-0.154
3.300,-0.066
3.305,-0.086
3.310,-0.081
3.315,0.028
3.320,0.050
3.325,0.015
3.330,0.090
3.335,0.141
3.340,0.090
3.345,0.120
3.350,0.201
3.355,0.156
3.360,0.122
3.365,0.198
3.370,0.186
3.375,0.118
3.380,0.168
3.385,0.196
3.390,0.116
3.395,0.116
3.400,0.168
3.405,0.107
3.410,0.063
3.415,0.115
3.420,0.084
3.425,0.007
3.430,0.051
3.435,0.076
3.440,-0.006
3.445,-0.006
3.450,0.052
3.455,-0.002
3.460,-0.043
3.465,0.019
3.470,0.010
3.475,-0.055
3.480,-0.011
3.485,0.024
3.490,-0.045
3.495,-0.035
3.500,0.035
3.505,-0.010
3.510,-0.041
3.515,0.035
3.520,0.027
3.525,-0.043
3.530,0.010
3.535,0.051
3.540,-0.018
3.545,-0.012
3.550,0.048
3.555,-0.002
3.560,-0.037
3.565,0.035
3.570,0.029
3.575,-0.038
3.580,0.008
3.585,0.042
3.590,-0.028
3.595,-0.022
3.600,0.041
3.605,-0.003
3.610,-0.036
3.615,0.033
3.620,0.023
3.625,-0.050
3.630,-0.007
3.635,0.030
3.640,-0.042
3.645,-0.039
3.650,0.025
3.655,-0.026
3.660,-0.061
3.665,0.015
3.670,0.010
3.675,-0.058
3.680,-0.011
3.685,0.030
3.690,-0.039
3.695,-0.036
3.700,0.025
3.705,-0.026
3.710,-0.061
3.715,0.009
3.720,-0.003
3.725,-0.069
3.730,-0.017
3.735,0.018
3.740,-0.057
3.745,-0.048
3.750,0.021
3.755,-0.030
3.760,-0.070
3.765,0.002
3.770,-0.001
3.775,-0.069
3.780,-0.025
3.785,0.013
3.790,-0.055
3.795,-0.053
3.800,0.003
3.805,-0.064
3.810,-0.114
3.815,-0.042
3.820,-0.115
3.825,-0.355
3.830,-0.585
3.835,-0.978
3.840,-1.519
3.845,-1.686
3.850,-1.267
3.855,-0.590
3.860,0.146
3.865,0.667
3.870,0.668
3.875,0.471
3.880,0.432
3.885,0.429
3.890,0.346
3.895,0.330
3.900,0.382
3.905,0.326
3.910,0.273
3.915,0.327
3.920,0.305
3.925,0.223
3.930,0.252
3.935,0.277
3.940,0.196
3.945,0.185
3.950,0.241
3.955,0.184
3.960,0.131
3.965,0.194
3.970,0.177
3.975,0.095
3.980,0.134
3.985,0.163
3.990,0.081
3.995,0.076
4.000,0.132
4.005,0.073
4.010,0.027
4.015,0.089
4.020,0.067
4.025,-0.017
4.030,0.019
4.035,0.048
4.040,-0.040
4.045,-0.053
4.050,-0.001
4.055,-0.069
4.060,-0.131
4.065,-0.076
4.070,-0.098
4.075,-0.189
4.080,-0.160
4.085,-0.133
4.090,-0.212
4.095,-0.208
4.100,-0.134
4.105,-0.173
4.110,-0.208
4.115,-0.125
4.120,-0.112
4.125,-0.164
4.130,-0.103
4.135,-0.046
4.140,-0.084
4.145,-0.046
4.150,0.044
4.155,0.025
4.160,0.016
4.165,0.111
4.170,0.123
4.175,0.057
4.180,0.107
4.185,0.165
4.190,0.101
4.195,0.098
4.200,0.166
4.205,0.114
4.210,0.060
4.215,0.128
4.220,0.129
4.225,0.053
4.230,0.094
4.235,0.141
4.240,0.067
4.245,0.054
4.250,0.109
4.255,0.069
4.260,0.038
4.265,0.084
4.270,0.049
4.275,-0.033
4.280,-0.015
4.285,-0.013
4.290,-0.125
4.295,-0.219
4.300,-0.280
4.305,-0.434
4.310,-0.612
4.315,-0.687
4.320,-0.784
4.325,-0.941
4.330,-1.008
4.335,-1.066
4.340,-1.179
4.345,-1.190
4.350,-1.159
4.355,-1.227
4.360,-1.223
4.365,-1.105
4.370,-1.005
4.375,-0.716
4.380,-0.050
4.385,0.654
4.390,0.995
4.395,1.118
4.400,1.197
4.405,1.138
4.410,1.063
4.415,1.098
4.420,1.081
4.425,0.984
4.430,0.981
4.435,0.982
4.440,0.880
4.445,0.842
4.450,0.860
4.455,0.772
4.460,0.683
4.465,0.716
4.470,0.699
4.475,0.608
4.480,0.622
4.485,0.655
4.490,0.584
4.495,0.554
4.500,0.587
4.505,0.521
4.510,0.468
4.515,0.516
4.520,0.494
4.525,0.418
4.530,0.443
4.535,0.479
4.540,0.404
4.545,0.388
4.550,0.457
4.555,0.400
4.560,0.308
4.565,0.336
4.570,0.296
4.575,0.172
4.580,0.160
4.585,0.147
4.590,0.019
4.595,-0.036
4.600,-0.018
4.605,-0.124
4.610,-0.243
4.615,-0.241
4.620,-0.290
4.625,-0.408
4.630,-0.419
4.635,-0.414
4.640,-0.496
4.645,-0.500
4.650,-0.427
4.655,-0.459
4.660,-0.510
4.665,-0.454
4.670,-0.451
4.675,-0.525
4.680,-0.483
4.685,-0.422
4.690,-0.479
4.695,-0.476
4.700,-0.405
4.705,-0.426
4.710,-0.446
4.715,-0.382
4.720,-0.361
4.725,-0.400
4.730,-0.359
4.735,-0.311
4.740,-0.380
4.745,-0.380
4.750,-0.299
4.755,-0.331
4.760,-0.349
4.765,-0.268
4.770,-0.263
4.775,-0.315
4.780,-0.267
4.785,-0.223
4.790,-0.282
4.795,-0.260
4.800,-0.161
4.805,-0.198
4.810,-0.246
4.815,-0.163
4.820,-0.154
4.825,-0.203
4.830,-0.123
4.835,-0.080
4.840,-0.158
4.845,-0.138
4.850,-0.062
4.855,-0.106
4.860,-0.131
4.865,-0.049
4.870,-0.043
4.875,-0.114
4.880,-0.063
4.885,0.003
4.890,-0.057
4.895,-0.060
4.900,0.016
4.905,-0.011
4.910,-0.063
4.915,-0.011
4.920,0.010
4.925,-0.040
4.930,-0.003
4.935,0.049
4.940,-0.015
4.945,-0.014
4.950,0.056
4.955,0.013
4.960,-0.018
4.965,0.042
4.970,0.047
4.975,-0.002
4.980,0.045
4.985,0.087
4.990,0.007
4.995,0.014
5.000,0.100
5.005,0.043
5.010,-0.013
5.015,0.079
5.020,0.095
5.025,0.009
5.030,0.042
5.035,0.102
5.040,0.044
5.045,0.048
5.050,0.121
5.055,0.071
5.060,0.007
5.065,0.082
5.070,0.108
5.075,0.023
5.080,0.046
5.085,0.100
5.090,0.028
5.095,0.013
5.100,0.096
5.105,0.072
5.110,0.028
5.115,0.098
5.120,0.099
5.125,0.016
5.130,0.059
5.135,0.120
5.140,0.047
5.145,0.034
5.150,0.108
5.155,0.072
5.160,0.018
5.165,0.079
5.170,0.095
5.175,0.028
5.180,0.063
5.185,0.095
5.190,0.024
5.195,0.042
5.200,0.105
5.205,0.052
5.210,0.013
5.215,0.087
5.220,0.098
5.225,0.026
5.230,0.061
5.235,0.098
5.240,0.015
5.245,0.012
5.250,0.086
5.255,0.040
5.260,-0.009
5.265,0.069
5.270,0.078
5.275,-0.001
5.280,0.048
5.285,0.100
5.290,0.025
5.295,0.025
5.300,0.091
5.305,0.042
5.310,-0.003
5.315,0.061
5.320,0.051
5.325,-0.017
5.330,0.033
5.335,0.071
5.340,-0.002
5.345,0.001
5.350,0.069
5.355,0.028
5.360,-0.017
5.365,0.045
5.370,0.040
5.375,-0.026
5.380,0.021
5.385,0.062
5.390,-0.009
5.395,-0.013
5.400,0.060
5.405,0.023
5.410,-0.031
5.415,0.032
5.420,0.036
5.425,-0.031
5.430,0.014
5.435,0.052
5.440,-0.017
5.445,-0.012
5.450,0.049
5.455,0.003
5.460,-0.037
5.465,0.029
5.470,0.035
5.475,-0.025
5.480,0.013
5.485,0.049
5.490,-0.024
5.495,-0.026
5.500,0.052
5.505,0.008
5.510,-0.051
5.515,0.023
5.520,0.037
5.525,-0.038
5.530,-0.001
5.535,0.044
5.540,-0.037
5.545,-0.038
5.550,0.042
5.555,-0.080
5.560,-0.339
5.565,-0.604
5.570,-1.046
5.575,-1.571
5.580,-1.686
5.585,-1.246
5.590,-0.520
5.595,0.312
5.600,0.799
5.605,0.692
5.610,0.494
5.615,0.476
5.620,0.441
5.625,0.364
5.630,0.382
5.635,0.406
5.640,0.324
5.645,0.298
5.650,0.348
5.655,0.293
5.660,0.234
5.665,0.297
5.670,0.288
5.675,0.200
5.680,0.219
5.685,0.249
5.690,0.175
5.695,0.155
5.700,0.205
5.705,0.158
5.710,0.102
5.715,0.156
5.720,0.155
5.725,0.073
5.730,0.095
5.735,0.132
5.740,0.059
5.745,0.040
5.750,0.097
5.755,0.060
5.760,0.000
5.765,0.044
5.770,0.040
5.775,-0.049
5.780,-0.035
5.785,-0.005
5.790,-0.089
5.795,-0.116
5.800,-0.063
5.805,-0.116
5.810,-0.181
5.815,-0.131
5.820,-0.132
5.825,-0.208
5.830,-0.178
5.835,-0.129
5.840,-0.190
5.845,-0.192
5.850,-0.113
5.855,-0.143
5.860,-0.181
5.865,-0.099
5.870,-0.074
5.875,-0.126
5.880,-0.073
5.885,-0.003
5.890,-0.038
5.895,-0.018
5.900,0.074
5.905,0.057
5.910,0.028
5.915,0.109
5.920,0.129
5.925,0.069
5.930,0.111
5.935,0.164
5.940,0.104
5.945,0.103
5.950,0.172
5.955,0.129
5.960,0.076
5.965,0.138
5.970,0.139
5.975,0.060
5.980,0.084
5.985,0.122
5.990,0.041
5.995,0.015
6.000,0.077
6.005,0.031
6.010,-0.035
6.015,0.020
6.020,0.023
6.025,-0.058
6.030,-0.031
6.035,0.009
6.040,-0.067
6.045,-0.076
6.050,0.001
6.055,-0.034
6.060,-0.085
6.065,-0.017
6.070,-0.004
6.075,-0.070
6.080,-0.031
6.085,0.025
6.090,-0.034
6.095,-0.042
6.100,0.030
6.105,0.003
6.110,-0.038
6.115,0.032
6.120,0.044
6.125,-0.028
6.130,0.007
6.135,0.062
6.140,-0.001
6.145,-0.011
6.150,0.058
6.155,0.023
6.160,-0.026
6.165,0.043
6.170,0.054
6.175,-0.022
6.180,0.013
6.185,0.065
6.190,-0.004
6.195,-0.018
6.200,0.056
6.205,0.023
6.210,-0.032
6.215,0.033
6.220,0.044
6.225,-0.032
6.230,0.000
6.235,0.050
6.240,-0.017
6.245,-0.030
6.250,0.042
6.255,0.009
6.260,-0.042
6.265,0.024
6.270,0.031
6.275,-0.048
6.280,-0.018
6.285,0.034
6.290,-0.032
6.295,-0.044
6.300,0.026
6.305,-0.008
6.310,-0.059
6.315,0.005
6.320,0.015
6.325,-0.057
6.330,-0.029
6.335,0.017
6.340,-0.044
6.345,-0.057
6.350,0.005
6.355,-0.030
6.360,-0.082
6.365,-0.022
6.370,-0.007
6.375,-0.075
6.380,-0.040
6.385,0.014
6.390,-0.052
6.395,-0.065
6.400,0.009
6.405,-0.025
6.410,-0.082
6.415,-0.019
6.420,-0.004
6.425,-0.078
6.430,-0.048
6.435,0.005
6.440,-0.058
6.445,-0.067
6.450,0.007
6.455,-0.025
6.460,-0.075
6.465,-0.014
6.470,-0.003
6.475,-0.071
6.480,-0.052
6.485,-0.022
6.490,-0.099
6.495,-0.126
6.500,-0.132
6.505,-0.316
6.510,-0.621
6.515,-0.991
6.520,-1.437
6.525,-1.658
6.530,-1.302
6.535,-0.587
6.540,0.076
6.545,0.522
6.550,0.643
6.555,0.511
6.560,0.390
6.565,0.417
6.570,0.422
6.575,0.332
6.580,0.340
6.585,0.381
6.590,0.305
6.595,0.276
6.600,0.334
6.605,0.290
6.610,0.221
6.615,0.269
6.620,0.270
6.625,0.184
6.630,0.194
6.635,0.236
6.640,0.171
6.645,0.146
6.650,0.201
6.655,0.160
6.660,0.096
6.665,0.145
6.670,0.147
6.675,0.062
6.680,0.075
6.685,0.119
6.690,0.049
6.695,0.023
6.700,0.082
6.705,0.035
6.710,-0.030
6.715,0.022
6.720,0.019
6.725,-0.066
6.730,-0.050
6.735,-0.014
6.740,-0.096
6.745,-0.129
6.750,-0.081
6.755,-0.135
6.760,-0.206
6.765,-0.155
6.770,-0.149
6.775,-0.226
6.780,-0.200
6.785,-0.145
6.790,-0.200
6.795,-0.209
6.800,-0.126
6.805,-0.139
6.810,-0.174
6.815,-0.089
6.820,-0.046
6.825,-0.086
6.830,-0.024
6.835,0.060
6.840,0.023
6.845,0.032
6.850,0.122
6.855,0.106
6.860,0.064
6.865,0.135
6.870,0.152
6.875,0.081
6.880,0.113
6.885,0.167
6.890,0.107
6.895,0.097
6.900,0.168
6.905,0.133
6.910,0.075
6.915,0.136
6.920,0.150
6.925,0.071
6.930,0.091
6.935,0.139
6.940,0.068
6.945,0.046
6.950,0.112
6.955,0.075
6.960,0.010
6.965,0.062
6.970,0.074
6.975,0.000
6.980,0.024
6.985,0.072
6.990,0.004
6.995,-0.014
7.000,0.056
7.005,0.027
7.010,-0.029
7.015,0.027
7.020,0.042
7.025,-0.018
7.030,0.019
7.035,0.066
7.040,0.000
7.045,-0.018
7.050,0.056
7.055,0.035
7.060,-0.023
7.065,0.027
7.070,0.039
7.075,-0.034
7.080,-0.014
7.085,0.045
7.090,-0.004
7.095,-0.019
7.100,0.049
7.105,0.018
7.110,-0.037
7.115,0.029
7.120,0.045
7.125,-0.035
7.130,-0.012
7.135,0.039
7.140,-0.030
7.145,-0.045
7.150,0.032
7.155,-0.001
7.160,-0.056
7.165,0.010
7.170,0.020
7.175,-0.052
7.180,-0.025
7.185,0.030
7.190,-0.027
7.195,-0.047
7.200,0.034
7.205,0.008
7.210,-0.065
7.215,-0.007
7.220,0.019
7.225,-0.050
7.230,-0.027
7.235,0.023
7.240,-0.044
7.245,-0.062
7.250,0.018
7.255,-0.004
7.260,-0.055
7.265,0.004
7.270,0.014
7.275,-0.061
7.280,-0.034
7.285,0.022
7.290,-0.040
7.295,-0.057
7.300,0.017
7.305,-0.012
7.310,-0.060
7.315,0.005
7.320,0.008
7.325,-0.077
7.330,-0.055
7.335,0.012
7.340,-0.033
7.345,-0.065
7.350,-0.019
7.355,-0.044
7.360,-0.124
7.365,-0.191
7.370,-0.380
7.375,-0.781
7.380,-1.213
7.385,-1.525
7.390,-1.549
7.395,-1.038
7.400,-0.184
7.405,0.444
7.410,0.617
7.415,0.597
7.420,0.494
7.425,0.340
7.430,0.350
7.435,0.412
7.440,0.329
7.445,0.285
7.450,0.341
7.455,0.304
7.460,0.241
7.465,0.282
7.470,0.279
7.475,0.193
7.480,0.206
7.485,0.245
7.490,0.172
7.495,0.151
7.500,0.216
7.505,0.182
7.510,0.120
7.515,0.166
7.520,0.174
7.525,0.094
7.530,0.105
7.535,0.142
7.540,0.077
7.545,0.057
7.550,0.111
7.555,0.079
7.560,0.013
7.565,0.046
7.570,0.043
7.575,-0.042
7.580,-0.026
7.585,0.018
7.590,-0.054
7.595,-0.088
7.600,-0.043
7.605,-0.104
7.610,-0.191
7.615,-0.141
7.620,-0.126
7.625,-0.223
7.630,-0.214
7.635,-0.153
7.640,-0.216
7.645,-0.234
7.650,-0.150
7.655,-0.177
7.660,-0.240
7.665,-0.164
7.670,-0.112
7.675,-0.153
7.680,-0.111
7.685,-0.030
7.690,-0.033
7.695,0.013
7.700,0.137
7.705,0.118
7.710,0.034
7.715,0.101
7.720,0.154
7.725,0.114
7.730,0.157
7.735,0.210
7.740,0.146
7.745,0.124
7.750,0.195
7.755,0.168
7.760,0.106
7.765,0.159
7.770,0.167
7.775,0.083
7.780,0.091
7.785,0.126
7.790,0.072
7.795,0.057
7.800,0.107
7.805,0.066
7.810,0.002
7.815,0.058
7.820,0.070
7.825,-0.013
7.830,0.007
7.835,0.061
7.840,-0.004
7.845,-0.036
7.850,0.023
7.855,-0.006
7.860,-0.059
7.865,0.013
7.870,0.036
7.875,-0.044
7.880,0.003
7.885,0.072
7.890,-0.015
7.895,-0.045
7.900,0.037
7.905,0.018
7.910,-0.049
7.915,0.015
7.920,0.058
7.925,-0.032
7.930,-0.026
7.935,0.039
7.940,-0.015
7.945,-0.042
7.950,0.021
7.955,-0.001
7.960,-0.052
7.965,0.002
7.970,0.021
7.975,-0.041
7.980,-0.018
7.985,0.039
7.990,-0.016
7.995,-0.045
8.000,0.015
8.005,-0.005
8.010,-0.054
8.015,-0.007
8.020,-0.001
8.025,-0.078
8.030,-0.042
8.035,0.035
8.040,-0.029
8.045,-0.053
8.050,0.026
8.055,-0.008
8.060,-0.073
8.065,-0.009
8.070,0.008
8.075,-0.065
8.080,-0.041
8.085,0.012
8.090,-0.058
8.095,-0.080
8.100,0.004
8.105,-0.017
8.110,-0.073
8.115,-0.008
8.120,0.005
8.125,-0.079
8.130,-0.041
8.135,0.024
8.140,-0.046
8.145,-0.079
8.150,-0.026
8.155,-0.045
8.160,-0.071
8.165,-0.045
8.170,-0.177
8.175,-0.512
8.180,-0.901
8.185,-1.368
8.190,-1.763
8.195,-1.663
8.200,-1.003
8.205,-0.101
8.210,0.573
8.215,0.750
8.220,0.628
8.225,0.446
8.230,0.389
8.235,0.436
8.240,0.375
8.245,0.315
8.250,0.363
8.255,0.342
8.260,0.279
8.265,0.320
8.270,0.318
8.275,0.219
8.280,0.231
8.285,0.288
8.290,0.213
8.295,0.168
8.300,0.227
8.305,0.195
8.310,0.126
8.315,0.172
8.320,0.179
8.325,0.097
8.330,0.118
8.335,0.173
8.340,0.101
8.345,0.057
8.350,0.120
8.355,0.096
8.360,0.023
8.365,0.067
8.370,0.072
8.375,-0.024
8.380,-0.013
8.385,0.043
8.390,-0.036
8.395,-0.085
8.400,-0.030
8.405,-0.068
8.410,-0.150
8.415,-0.124
8.420,-0.121
8.425,-0.205
8.430,-0.210
8.435,-0.166
8.440,-0.223
8.445,-0.242
8.450,-0.163
8.455,-0.185
8.460,-0.234
8.465,-0.154
8.470,-0.111
8.475,-0.165
8.480,-0.119
8.485,-0.021
8.490,-0.042
8.495,-0.039
8.500,0.064
8.505,0.081
8.510,0.050
8.515,0.129
8.520,0.170
8.525,0.105
8.530,0.132
8.535,0.204
8.540,0.158
8.545,0.135
8.550,0.206
8.555,0.184
8.560,0.116
8.565,0.171
8.570,0.192
8.575,0.102
8.580,0.111
8.585,0.162
8.590,0.090
8.595,0.053
8.600,0.121
8.605,0.095
8.610,0.020
8.615,0.062
8.620,0.076
8.625,-0.001
8.630,0.019
8.635,0.071
8.640,-0.001
8.645,-0.033
8.650,0.039
8.655,0.015
8.660,-0.051
8.665,0.003
8.670,0.027
8.675,-0.037
8.680,-0.008
8.685,0.053
8.690,-0.010
8.695,-0.035
8.700,0.041
8.705,0.021
8.710,-0.039
8.715,0.020
8.720,0.043
8.725,-0.033
8.730,-0.017
8.735,0.049
8.740,0.001
8.745,-0.023
8.750,0.045
8.755,0.022
8.760,-0.039
8.765,0.017
8.770,0.039
8.775,-0.036
8.780,-0.015
8.785,0.045
8.790,-0.013
8.795,-0.037
8.800,0.033
8.805,0.008
8.810,-0.053
8.815,0.009
8.820,0.035
8.825,-0.041
8.830,-0.024
8.835,0.037
8.840,-0.020
8.845,-0.050
8.850,0.016
8.855,-0.005
8.860,-0.062
8.865,0.000
8.870,0.028
8.875,-0.049
8.880,-0.034
8.885,0.025
8.890,-0.032
8.895,-0.059
8.900,0.007
8.905,-0.013
8.910,-0.069
8.915,-0.019
8.920,-0.017
8.925,-0.110
8.930,-0.087
8.935,-0.055
8.940,-0.244
8.945,-0.487
8.950,-0.775
8.955,-1.288
8.960,-1.712
8.965,-1.575
8.970,-0.975
8.975,-0.243
8.980,0.436
8.985,0.713
8.990,0.565
8.995,0.432
9.000,0.446
9.005,0.404
9.010,0.323
9.015,0.362
9.020,0.381
9.025,0.291
9.030,0.291
9.035,0.342
9.040,0.273
9.045,0.232
9.050,0.290
9.055,0.257
9.060,0.184
9.065,0.229
9.070,0.245
9.075,0.161
9.080,0.167
9.085,0.216
9.090,0.145
9.095,0.105
9.100,0.168
9.105,0.145
9.110,0.075
9.115,0.115
9.120,0.129
9.125,0.045
9.130,0.047
9.135,0.094
9.140,0.029
9.145,-0.007
9.150,0.049
9.155,0.012
9.160,-0.064
9.165,-0.026
9.170,-0.021
9.175,-0.117
9.180,-0.121
9.185,-0.079
9.190,-0.155
9.195,-0.202
9.200,-0.149
9.205,-0.181
9.210,-0.248
9.215,-0.195
9.220,-0.164
9.225,-0.226
9.230,-0.200
9.235,-0.130
9.240,-0.167
9.245,-0.171
9.250,-0.070
9.255,-0.056
9.260,-0.090
9.265,-0.007
9.270,0.051
9.275,0.007
9.280,0.046
9.285,0.122
9.290,0.077
9.295,0.059
9.300,0.140
9.305,0.125
9.310,0.064
9.315,0.121
9.320,0.149
9.325,0.075
9.330,0.091
9.335,0.149
9.340,0.089
9.345,0.053
9.350,0.116
9.355,0.096
9.360,0.034
9.365,0.084
9.370,0.104
9.375,0.023
9.380,0.036
9.385,0.095
9.390,0.034
9.395,-0.004
9.400,0.061
9.405,0.043
9.410,-0.023
9.415,0.030
9.420,0.055
9.425,-0.026
9.430,-0.014
9.435,0.049
9.440,-0.008
9.445,-0.038
9.450,0.035
9.455,0.018
9.460,-0.046
9.465,0.008
9.470,0.037
9.475,-0.037
9.480,-0.025
9.485,0.040
9.490,-0.008
9.495,-0.037
9.500,0.032
9.505,0.015
9.510,-0.050
9.515,0.007
9.520,0.036
9.525,-0.039
9.530,-0.023
9.535,0.039
9.540,-0.017
9.545,-0.046
9.550,0.024
9.555,0.009
9.560,-0.050
9.565,-0.001
9.570,0.025
9.575,-0.042
9.580,-0.029
9.585,0.030
9.590,-0.023
9.595,-0.054
9.600,0.015
9.605,-0.001
9.610,-0.065
9.615,-0.013
9.620,0.015
9.625,-0.056
9.630,-0.038
9.635,0.023
9.640,-0.038
9.645,-0.069
9.650,0.006
9.655,-0.011
9.660,-0.075
9.665,-0.020
9.670,0.011
9.675,-0.060
9.680,-0.044
9.685,0.017
9.690,-0.037
9.695,-0.064
9.700,0.008
9.705,-0.008
9.710,-0.072
9.715,-0.019
9.720,0.011
9.725,-0.062
9.730,-0.047
9.735,0.018
9.740,-0.033
9.745,-0.062
9.750,0.010
9.755,-0.005
9.760,-0.066
9.765,-0.010
9.770,0.019
9.775,-0.054
9.780,-0.039
9.785,0.025
9.790,-0.029
9.795,-0.059
9.800,0.012
9.805,-0.001
9.810,-0.061
9.815,-0.005
9.820,0.028
9.825,-0.046
9.830,-0.035
9.835,0.026
9.840,-0.026
9.845,-0.052
9.850,0.022
9.855,0.005
9.860,-0.059
9.865,-0.004
9.870,0.027
9.875,-0.047
9.880,-0.032
9.885,0.032
9.890,-0.026
9.895,-0.056
9.900,0.022
9.905,0.001
9.910,-0.070
9.915,-0.012
9.920,0.021
9.925,-0.053
9.930,-0.032
9.935,0.037
9.940,-0.023
9.945,-0.054
9.950,0.024
9.955,0.011
9.960,-0.052
9.965,-0.002
9.970,0.022
9.975,-0.051
9.980,-0.034
9.985,0.033
9.990,-0.019
9.995,-0.052
10.000,0.021
10.005,0.009
10.010,-0.055
10.015,-0.003
10.020,0.021
10.025,-0.068
10.030,-0.072
10.035,-0.017
10.040,-0.125
10.045,-0.297
10.050,-0.466
10.055,-0.871
10.060,-1.371
10.065,-1.501
10.070,-1.210
10.075,-0.688
10.080,0.023
10.085,0.575
10.090,0.605
10.095,0.477
10.100,0.476
10.105,0.422
10.110,0.346
10.115,0.382
10.120,0.394
10.125,0.312
10.130,0.312
10.135,0.359
10.140,0.292
10.145,0.248
10.150,0.307
10.155,0.278
10.160,0.201
10.165,0.241
10.170,0.261
10.175,0.180
10.180,0.182
10.185,0.233
10.190,0.168
10.195,0.123
10.200,0.186
10.205,0.165
10.210,0.089
10.215,0.130
10.220,0.155
10.225,0.075
10.230,0.071
10.235,0.118
10.240,0.053
10.245,0.010
10.250,0.069
10.255,0.042
10.260,-0.038
10.265,-0.003
10.270,0.013
10.275,-0.077
10.280,-0.083
10.285,-0.033
10.290,-0.101
10.295,-0.155
10.300,-0.103
10.305,-0.132
10.310,-0.215
10.315,-0.172
10.320,-0.136
10.325,-0.216
10.330,-0.207
10.335,-0.125
10.340,-0.171
10.345,-0.200
10.350,-0.110
10.355,-0.098
10.360,-0.137
10.365,-0.059
10.370,-0.004
10.375,-0.048
10.380,0.008
10.385,0.107
10.390,0.070
10.395,0.054
10.400,0.142
10.405,0.137
10.410,0.076
10.415,0.134
10.420,0.180
10.425,0.117
10.430,0.123
10.435,0.183
10.440,0.127
10.445,0.086
10.450,0.165
10.455,0.165
10.460,0.089
10.465,0.122
10.470,0.150
10.475,0.081
10.480,0.085
10.485,0.140
10.490,0.084
10.495,0.047
10.500,0.111
10.505,0.087
10.510,0.011
10.515,0.059
10.520,0.088
10.525,0.003
10.530,0.005
10.535,0.059
10.540,-0.001
10.545,-0.022
10.550,0.059
10.555,0.040
10.560,-0.033
10.565,0.015
10.570,0.052
10.575,-0.016
10.580,-0.009
10.585,0.054
10.590,-0.005
10.595,-0.042
10.600,0.040
10.605,0.021
10.610,-0.062
10.615,-0.004
10.620,0.038
10.625,-0.037
10.630,-0.024
10.635,0.045
10.640,-0.013
10.645,-0.058
10.650,0.016
10.655,0.019
10.660,-0.048
10.665,-0.002
10.670,0.024
10.675,-0.064
10.680,-0.052
10.685,0.022
10.690,-0.031
10.695,-0.069
10.700,0.005
10.705,0.000
10.710,-0.071
10.715,-0.021
10.720,0.014
10.725,-0.066
10.730,-0.057
10.735,0.002
10.740,-0.041
10.745,-0.058
10.750,0.000
10.755,-0.020
10.760,-0.084
10.765,-0.040
10.770,-0.007
10.775,-0.074
10.780,-0.059
10.785,0.007
10.790,-0.048
10.795,-0.083
10.800,-0.003
10.805,-0.007
10.810,-0.082
10.815,-0.041
10.820,-0.004
10.825,-0.070
10.830,-0.059
10.835,0.005
10.840,-0.052
10.845,-0.092
10.850,-0.021
10.855,-0.025
10.860,-0.072
10.865,-0.011
10.870,0.019
10.875,-0.050
10.880,-0.043
10.885,0.000
10.890,-0.067
10.895,-0.086
10.900,-0.003
10.905,-0.015
10.910,-0.070
10.915,-0.032
10.920,-0.002
10.925,-0.049
10.930,-0.035
10.935,0.008
10.940,-0.054
10.945,-0.090
10.950,-0.008
10.955,-0.023
10.960,-0.197
10.965,-0.354
10.970,-0.652
10.975,-1.193
10.980,-1.616
10.985,-1.618
10.990,-1.208
10.995,-0.437
11.000,0.418
11.005,0.737
11.010,0.587
11.015,0.510
11.020,0.469
11.025,0.346
11.030,0.342
11.035,0.417
11.040,0.343
11.045,0.278
11.050,0.342
11.055,0.311
11.060,0.224
11.065,0.263
11.070,0.291
11.075,0.221
11.080,0.218
11.085,0.263
11.090,0.189
11.095,0.123
11.100,0.187
11.105,0.182
11.110,0.105
11.115,0.143
11.120,0.171
11.125,0.094
11.130,0.106
11.135,0.161
11.140,0.086
11.145,0.028
11.150,0.086
11.155,0.080
11.160,-0.004
11.165,0.009
11.170,0.023
11.175,-0.050
11.180,-0.040
11.185,0.012
11.190,-0.055
11.195,-0.120
11.200,-0.070
11.205,-0.096
11.210,-0.190
11.215,-0.159
11.220,-0.130
11.225,-0.215
11.230,-0.230
11.235,-0.190
11.240,-0.230
11.245,-0.230
11.250,-0.154
11.255,-0.153
11.260,-0.194
11.265,-0.138
11.270,-0.087
11.275,-0.132
11.280,-0.092
11.285,0.024
11.290,0.023
11.295,0.024
11.300,0.112
11.305,0.115
11.310,0.076
11.315,0.147
11.320,0.202
11.325,0.147
11.330,0.146
11.335,0.210
11.340,0.190
11.345,0.157
11.350,0.203
11.355,0.185
11.360,0.123
11.365,0.165
11.370,0.192
11.375,0.121
11.380,0.101
11.385,0.140
11.390,0.083
11.395,0.047
11.400,0.124
11.405,0.086
11.410,-0.001
11.415,0.046
11.420,0.060
11.425,-0.034
11.430,-0.029
11.435,0.050
11.440,0.004
11.445,-0.048
11.450,0.016
11.455,0.024
11.460,-0.036
11.465,0.003
11.470,0.035
11.475,-0.034
11.480,-0.022
11.485,0.044
11.490,-0.013
11.495,-0.040
11.500,0.045
11.505,0.025
11.510,-0.053
11.515,0.003
11.520,0.047
11.525,-0.020
11.530,-0.021
11.535,0.039
11.540,-0.005
11.545,-0.036
11.550,0.035
11.555,0.024
11.560,-0.047
11.565,-0.005
11.570,0.036
11.575,-0.024
11.580,-0.027
11.585,0.033
11.590,-0.002
11.595,-0.043
11.600,0.013
11.605,0.008
11.610,-0.052
11.615,-0.008
11.620,0.022
11.625,-0.047
11.630,-0.043
11.635,0.021
11.640,-0.029
11.645,-0.075
11.650,0.000
11.655,0.008
11.660,-0.070
11.665,-0.030
11.670,0.016
11.675,-0.045
11.680,-0.023
11.685,0.038
11.690,-0.026
11.695,-0.066
11.700,0.009
11.705,0.000
11.710,-0.074
11.715,-0.026
11.720,0.013
11.725,-0.057
11.730,-0.052
11.735,0.011
11.740,-0.038
11.745,-0.071
11.750,0.010
11.755,-0.002
11.760,-0.077
11.765,-0.029
11.770,0.010
11.775,-0.060
11.780,-0.051
11.785,0.017
11.790,-0.035
11.795,-0.075
11.800,0.005
11.805,-0.002
11.810,-0.068
11.815,-0.007
11.820,0.027
11.825,-0.051
11.830,-0.049
11.835,0.022
11.840,-0.016
11.845,-0.053
11.850,0.015
11.855,0.010
11.860,-0.059
11.865,-0.017
11.870,0.020
11.875,-0.045
11.880,-0.040
11.885,0.023
11.890,-0.025
11.895,-0.062
11.900,0.010
11.905,0.005
11.910,-0.064
11.915,-0.020
11.920,0.019
11.925,-0.049
11.930,-0.044
11.935,0.019
11.940,-0.044
11.945,-0.099
11.950,-0.005
11.955,0.001
11.960,-0.184
11.965,-0.377
11.970,-0.698
11.975,-1.247
11.980,-1.674
11.985,-1.645
11.990,-1.173
11.995,-0.346
12.000,0.513
12.005,0.779
12.010,0.593
12.015,0.518
12.020,0.487
12.025,0.381
12.030,0.371
12.035,0.415
12.040,0.349
12.045,0.302
12.050,0.358
12.055,0.333
12.060,0.253
12.065,0.287
12.070,0.307
12.075,0.223
12.080,0.221
12.085,0.276
12.090,0.214
12.095,0.161
12.100,0.218
12.105,0.204
12.110,0.127
12.115,0.163
12.120,0.190
12.125,0.108
12.130,0.104
12.135,0.162
12.140,0.104
12.145,0.052
12.150,0.110
12.155,0.090
12.160,0.007
12.165,0.045
12.170,0.073
12.175,-0.016
12.180,-0.028
12.185,0.024
12.190,-0.045
12.195,-0.109
12.200,-0.057
12.205,-0.081
12.210,-0.170
12.215,-0.145
12.220,-0.128
12.225,-0.216
12.230,-0.218
12.235,-0.148
12.240,-0.192
12.245,-0.235
12.250,-0.160
12.255,-0.152
12.260,-0.210
12.265,-0.148
12.270,-0.082
12.275,-0.126
12.280,-0.091
12.285,0.012
12.290,0.000
12.295,-0.001
12.300,0.105
12.305,0.126
12.310,0.074
12.315,0.130
12.320,0.183
12.325,0.125
12.330,0.133
12.335,0.201
12.340,0.157
12.345,0.118
12.350,0.191
12.355,0.186
12.360,0.111
12.365,0.151
12.370,0.189
12.375,0.113
12.380,0.104
12.385,0.160
12.390,0.105
12.395,0.054
12.400,0.113
12.405,0.099
12.410,0.016
12.415,0.049
12.420,0.083
12.425,0.003
12.430,-0.005
12.435,0.053
12.440,-0.006
12.445,-0.057
12.450,0.015
12.455,0.015
12.460,-0.067
12.465,-0.033
12.470,0.019
12.475,-0.042
12.480,-0.043
12.485,0.023
12.490,-0.017
12.495,-0.050
12.500,0.022
12.505,0.020
12.510,-0.048
12.515,0.000
12.520,0.045
12.525,-0.032
12.530,-0.036
12.535,0.039
12.540,0.001
12.545,-0.046
12.550,0.019
12.555,0.020
12.560,-0.048
12.565,-0.002
12.570,0.042
12.575,-0.031
12.580,-0.031
12.585,0.043
12.590,-0.003
12.595,-0.050
12.600,0.021
12.605,0.021
12.610,-0.057
12.615,-0.021
12.620,0.020
12.625,-0.047
12.630,-0.035
12.635,0.041
12.640,-0.013
12.645,-0.066
12.650,0.005
12.655,0.003
12.660,-0.068
12.665,-0.018
12.670,0.024
12.675,-0.050
12.680,-0.047
12.685,0.021
12.690,-0.025
12.695,-0.068
12.700,0.006
12.705,0.008
12.710,-0.065
12.715,-0.021
12.720,0.022
12.725,-0.051
12.730,-0.049
12.735,0.018
12.740,-0.028
12.745,-0.066
12.750,0.007
12.755,0.003
12.760,-0.070
12.765,-0.026
12.770,0.018
12.775,-0.051
12.780,-0.050
12.785,0.020
12.790,-0.024
12.795,-0.068
12.800,0.002
12.805,0.003
12.810,-0.068
12.815,-0.027
12.820,0.017
12.825,-0.052
12.830,-0.052
12.835,0.018
12.840,-0.022
12.845,-0.067
12.850,-0.012
12.855,-0.034
12.860,-0.111
12.865,-0.088
12.870,-0.150
12.875,-0.409
12.880,-0.728
12.885,-1.134
12.890,-1.585
12.895,-1.648
12.900,-1.107
12.905,-0.347
12.910,0.293
12.915,0.658
12.920,0.649
12.925,0.463
12.930,0.395
12.935,0.439
12.940,0.387
12.945,0.323
12.950,0.376
12.955,0.363
12.960,0.276
12.965,0.303
12.970,0.335
12.975,0.247
12.980,0.229
12.985,0.289
12.990,0.236
12.995,0.178
13.000,0.234
13.005,0.223
13.010,0.141
13.015,0.176
13.020,0.211
13.025,0.129
13.030,0.116
13.035,0.175
13.040,0.123
13.045,0.067
13.050,0.124
13.055,0.114
13.060,0.033
13.065,0.063
13.070,0.094
13.075,0.011
13.080,-0.002
13.085,0.058
13.090,0.001
13.095,-0.065
13.100,-0.015
13.105,-0.032
13.110,-0.122
13.115,-0.101
13.120,-0.075
13.125,-0.169
13.130,-0.195
13.135,-0.136
13.140,-0.188
13.145,-0.240
13.150,-0.170
13.155,-0.168
13.160,-0.234
13.165,-0.179
13.170,-0.121
13.175,-0.180
13.180,-0.163
13.185,-0.061
13.190,-0.071
13.195,-0.083
13.200,0.025
13.205,0.060
13.210,0.017
13.215,0.081
13.220,0.143
13.225,0.085
13.230,0.093
13.235,0.173
13.240,0.133
13.245,0.088
13.250,0.155
13.255,0.154
13.260,0.083
13.265,0.121
13.270,0.165
13.275,0.093
13.280,0.081
13.285,0.146
13.290,0.104
13.295,0.057
13.300,0.121
13.305,0.115
13.310,0.037
13.315,0.073
13.320,0.107
13.325,0.025
13.330,0.015
13.335,0.077
13.340,0.026
13.345,-0.024
13.350,0.041
13.355,0.036
13.360,-0.039
13.365,0.004
13.370,0.045
13.375,-0.029
13.380,-0.029
13.385,0.043
13.390,0.000
13.395,-0.047
13.400,0.022
13.405,0.026
13.410,-0.045
13.415,-0.003
13.420,0.041
13.425,-0.033
13.430,-0.036
13.435,0.037
13.440,-0.004
13.445,-0.051
13.450,0.017
13.455,0.018
13.460,-0.053
13.465,-0.012
13.470,0.035
13.475,-0.035
13.480,-0.040
13.485,0.030
13.490,-0.013
13.495,-0.060
13.500,0.010
13.505,0.012
13.510,-0.059
13.515,-0.018
13.520,0.028
13.525,-0.045
13.530,-0.053
13.535,0.019
13.540,-0.020
13.545,-0.062
13.550,0.008
13.555,0.008
13.560,-0.065
13.565,-0.024
13.570,0.020
13.575,-0.050
13.580,-0.055
13.585,0.014
13.590,-0.026
13.595,-0.072
13.600,-0.002
13.605,0.002
13.610,-0.073
13.615,-0.028
13.620,0.019
13.625,-0.057
13.630,-0.060
13.635,0.013
13.640,-0.028
13.645,-0.072
13.650,-0.002
13.655,-0.002
13.660,-0.075
13.665,-0.034
13.670,0.012
13.675,-0.055
13.680,-0.067
13.685,-0.018
13.690,-0.079
13.695,-0.130
13.700,-0.103
13.705,-0.232
13.710,-0.522
13.715,-0.851
13.720,-1.266
13.725,-1.602
13.730,-1.426
13.735,-0.768
13.740,-0.075
13.745,0.437
13.750,0.657
13.755,0.566
13.760,0.398
13.765,0.394
13.770,0.435
13.775,0.350
13.780,0.325
13.785,0.388
13.790,0.334
13.795,0.265
13.800,0.322
13.805,0.325
13.810,0.236
13.815,0.253
13.820,0.291
13.825,0.210
13.830,0.187
13.835,0.243
13.840,0.190
13.845,0.136
13.850,0.194
13.855,0.187
13.860,0.110
13.865,0.139
13.870,0.171
13.875,0.085
13.880,0.066
13.885,0.125
13.890,0.076
13.895,0.024
13.900,0.083
13.905,0.070
13.910,-0.017
13.915,0.005
13.920,0.040
13.925,-0.040
13.930,-0.069
13.935,-0.022
13.940,-0.077
13.945,-0.142
13.950,-0.096
13.955,-0.109
13.960,-0.202
13.965,-0.186
13.970,-0.153
13.975,-0.229
13.980,-0.241
13.985,-0.175
13.990,-0.204
13.995,-0.235
14.000,-0.151
14.005,-0.131
14.010,-0.185
14.015,-0.114
14.020,-0.025
14.025,-0.059
14.030,-0.035
14.035,0.065
14.040,0.052
14.045,0.030
14.050,0.129
14.055,0.156
14.060,0.078
14.065,0.118
14.070,0.189
14.075,0.123
14.080,0.108
14.085,0.185
14.090,0.146
14.095,0.090
14.100,0.151
14.105,0.154
14.110,0.077
14.115,0.112
14.120,0.162
14.125,0.087
14.130,0.064
14.135,0.130
14.140,0.100
14.145,0.044
14.150,0.102
14.155,0.106
14.160,0.009
14.165,0.035
14.170,0.091
14.175,0.016
14.180,0.004
14.185,0.073
14.190,0.026
14.195,-0.019
14.200,0.050
14.205,0.036
14.210,-0.060
14.215,-0.010
14.220,0.066
14.225,-0.014
14.230,-0.045
14.235,0.026
14.240,-0.004
14.245,-0.049
14.250,0.012
14.255,0.009
14.260,-0.049
14.265,0.012
14.270,0.052
14.275,-0.034
14.280,-0.051
14.285,0.026
14.290,-0.010
14.295,-0.063
14.300,0.013
14.305,0.013
14.310,-0.068
14.315,-0.018
14.320,0.028
14.325,-0.059
14.330,-0.071
14.335,0.007
14.340,-0.039
14.345,-0.100
14.350,-0.012
14.355,0.018
14.360,-0.055
14.365,-0.014
14.370,0.022
14.375,-0.069
14.380,-0.080
14.385,-0.008
14.390,-0.036
14.395,-0.074
14.400,-0.019
14.405,-0.013
14.410,-0.067
14.415,-0.043
14.420,-0.003
14.425,-0.047
14.430,-0.049
14.435,0.014
14.440,-0.034
14.445,-0.089
14.450,-0.005
14.455,0.017
14.460,-0.066
14.465,-0.044
14.470,0.007
14.475,-0.057
14.480,-0.065
14.485,0.014
14.490,-0.017
14.495,-0.064
14.500,-0.004
14.505,-0.013
14.510,-0.086
14.515,-0.041
14.520,0.013
14.525,-0.055
14.530,-0.055
14.535,0.029
14.540,-0.018
14.545,-0.081
14.550,-0.014
14.555,-0.001
14.560,-0.066
14.565,-0.030
14.570,0.005
14.575,-0.065
14.580,-0.059
14.585,0.012
14.590,-0.030
14.595,-0.069
14.600,0.008
14.605,0.012
14.610,-0.060
14.615,-0.026
14.620,0.022
14.625,-0.037
14.630,-0.047
14.635,0.019
14.640,-0.019
14.645,-0.078
14.650,-0.008
14.655,0.019
14.660,-0.049
14.665,-0.016
14.670,0.035
14.675,-0.039
14.680,-0.062
14.685,0.015
14.690,0.007
14.695,-0.037
14.700,0.014
14.705,0.018
14.710,-0.067
14.715,-0.041
14.720,0.022
14.725,-0.091
14.730,-0.277
14.735,-0.495
14.740,-0.945
14.745,-1.484
14.750,-1.688
14.755,-1.425
14.760,-0.787
14.765,0.117
14.770,0.750
14.775,0.728
14.780,0.557
14.785,0.514
14.790,0.414
14.795,0.343
14.800,0.398
14.805,0.398
14.810,0.316
14.815,0.342
14.820,0.375
14.825,0.284
14.830,0.262
14.835,0.326
14.840,0.279
14.845,0.208
14.850,0.253
14.855,0.261
14.860,0.188
14.865,0.209
14.870,0.244
14.875,0.155
14.880,0.131
14.885,0.207
14.890,0.161
14.895,0.090
14.900,0.148
14.905,0.144
14.910,0.047
14.915,0.069
14.920,0.122
14.925,0.047
14.930,0.020
14.935,0.076
14.940,0.024
14.945,-0.042
14.950,0.007
14.955,0.004
14.960,-0.087
14.965,-0.077
14.970,-0.036
14.975,-0.116
14.980,-0.163
14.985,-0.119
14.990,-0.170
14.995,-0.245
15.000,-0.189
15.005,-0.161
15.010,-0.225
15.015,-0.203
15.020,-0.148
15.025,-0.197
15.030,-0.193
15.035,-0.105
15.040,-0.117
15.045,-0.143
15.050,-0.038
15.055,0.014
15.060,-0.029
15.065,0.032
15.070,0.111
15.075,0.073
15.080,0.083
15.085,0.169
15.090,0.144
15.095,0.101
15.100,0.178
15.105,0.200
15.110,0.133
15.115,0.171
15.120,0.224
15.125,0.152
15.130,0.129
15.135,0.196
15.140,0.154
15.145,0.088
15.150,0.134
15.155,0.132
15.160,0.063
15.165,0.093
15.170,0.122
15.175,0.038
15.180,0.016
15.185,0.075
15.190,0.029
15.195,-0.029
15.200,0.034
15.205,0.039
15.210,-0.048
15.215,-0.023
15.220,0.032
15.225,-0.034
15.230,-0.050
15.235,0.026
15.240,-0.007
15.245,-0.062
15.250,0.007
15.255,0.023
15.260,-0.050
15.265,-0.017
15.270,0.042
15.275,-0.022
15.280,-0.032
15.285,0.044
15.290,0.007
15.295,-0.052
15.300,0.010
15.305,0.023
15.310,-0.046
15.315,-0.006
15.320,0.049
15.325,-0.020
15.330,-0.035
15.335,0.041
15.340,0.009
15.345,-0.049
15.350,0.012
15.355,0.025
15.360,-0.046
15.365,-0.018
15.370,0.031
15.375,-0.033
15.380,-0.043
15.385,0.031
15.390,-0.005
15.395,-0.057
15.400,0.006
15.405,0.015
15.410,-0.060
15.415,-0.027
15.420,0.027
15.425,-0.040
15.430,-0.060
15.435,0.013
15.440,-0.015
15.445,-0.070
15.450,-0.007
15.455,0.009
15.460,-0.061
15.465,-0.032
15.470,0.017
15.475,-0.047
15.480,-0.059
15.485,0.013
15.490,-0.018
15.495,-0.071
15.500,-0.005
15.505,0.011
15.510,-0.066
15.515,-0.039
15.520,0.018
15.525,-0.049
15.530,-0.062
15.535,0.019
15.540,-0.013
15.545,-0.070
15.550,-0.003
15.555,0.014
15.560,-0.060
15.565,-0.032
15.570,0.019
15.575,-0.047
15.580,-0.064
15.585,0.010
15.590,-0.021
15.595,-0.071
15.600,-0.007
15.605,-0.008
15.610,-0.101
15.615,-0.072
15.620,-0.021
15.625,-0.169
15.630,-0.364
15.635,-0.578
15.640,-1.059
15.645,-1.578
15.650,-1.648
15.655,-1.244
15.660,-0.574
15.665,0.226
15.670,0.701
15.675,0.623
15.680,0.483
15.685,0.481
15.690,0.410
15.695,0.341
15.700,0.388
15.705,0.387
15.710,0.299
15.715,0.314
15.720,0.353
15.725,0.271
15.730,0.240
15.735,0.303
15.740,0.261
15.745,0.193
15.750,0.241
15.755,0.242
15.760,0.159
15.765,0.177
15.770,0.222
15.775,0.146
15.780,0.122
15.785,0.186
15.790,0.141
15.795,0.077
15.800,0.132
15.805,0.130
15.810,0.043
15.815,0.064
15.820,0.110
15.825,0.036
15.830,0.012
15.835,0.069
15.840,0.019
15.845,-0.049
15.850,-0.001
15.855,-0.005
15.860,-0.096
15.865,-0.087
15.870,-0.051
15.875,-0.136
15.880,-0.174
15.885,-0.117
15.890,-0.160
15.895,-0.227
15.900,-0.170
15.905,-0.154
15.910,-0.223
15.915,-0.187
15.920,-0.122
15.925,-0.174
15.930,-0.180
15.935,-0.085
15.940,-0.083
15.945,-0.111
15.950,-0.017
15.955,0.032
15.960,-0.011
15.965,0.048
15.970,0.128
15.975,0.081
15.980,0.075
15.985,0.161
15.990,0.143
15.995,0.088
16.000,0.142
16.005,0.154
16.010,0.084
16.015,0.107
16.020,0.162
16.025,0.101
16.030,0.081
16.035,0.154
16.040,0.119
16.045,0.054
16.050,0.112
16.055,0.120
16.060,0.021
16.065,0.012
16.070,0.028
16.075,-0.100
16.080,-0.230
16.085,-0.289
16.090,-0.456
16.095,-0.669
16.100,-0.746
16.105,-0.825
16.110,-1.012
16.115,-1.122
16.120,-1.159
16.125,-1.265
16.130,-1.322
16.135,-1.289
16.140,-1.282
16.145,-1.234
16.150,-1.058
16.155,-0.783
16.160,-0.347
16.165,0.342
16.170,0.970
16.175,1.148
16.180,1.145
16.185,1.215
16.190,1.173
16.195,1.083
16.200,1.113
16.205,1.095
16.210,0.981
16.215,0.966
16.220,0.986
16.225,0.888
16.230,0.830
16.235,0.862
16.240,0.795
16.245,0.706
16.250,0.736
16.255,0.718
16.260,0.614
16.265,0.624
16.270,0.666
16.275,0.584
16.280,0.537
16.285,0.589
16.290,0.548
16.295,0.471
16.300,0.517
16.305,0.525
16.310,0.435
16.315,0.450
16.320,0.505
16.325,0.431
16.330,0.389
16.335,0.435
16.340,0.383
16.345,0.297
16.350,0.322
16.355,0.300
16.360,0.173
16.365,0.143
16.370,0.146
16.375,0.022
16.380,-0.060
16.385,-0.045
16.390,-0.132
16.395,-0.254
16.400,-0.254
16.405,-0.295
16.410,-0.421
16.415,-0.430
16.420,-0.406
16.425,-0.498
16.430,-0.528
16.435,-0.459
16.440,-0.498
16.445,-0.557
16.450,-0.497
16.455,-0.480
16.460,-0.537
16.465,-0.503
16.470,-0.451
16.475,-0.503
16.480,-0.506
16.485,-0.422
16.490,-0.446
16.495,-0.494
16.500,-0.412
16.505,-0.386
16.510,-0.455
16.515,-0.408
16.520,-0.336
16.525,-0.393
16.530,-0.400
16.535,-0.315
16.540,-0.346
16.545,-0.393
16.550,-0.306
16.555,-0.275
16.560,-0.337
16.565,-0.291
16.570,-0.217
16.575,-0.265
16.580,-0.266
16.585,-0.177
16.590,-0.191
16.595,-0.242
16.600,-0.177
16.605,-0.144
16.610,-0.203
16.615,-0.168
16.620,-0.095
16.625,-0.144
16.630,-0.151
16.635,-0.053
16.640,-0.067
16.645,-0.136
16.650,-0.074
16.655,-0.040
16.660,-0.103
16.665,-0.074
16.670,-0.013
16.675,-0.056
16.680,-0.057
16.685,0.011
16.690,-0.007
16.695,-0.039
16.700,0.012
16.705,0.016
16.710,-0.043
16.715,-0.006
16.720,0.050
16.725,-0.016
16.730,-0.038
16.735,0.038
16.740,0.018
16.745,-0.029
16.750,0.045
16.755,0.077
16.760,-0.001
16.765,0.023
16.770,0.095
16.775,0.031
16.780,0.007
16.785,0.086
16.790,0.055
16.795,0.005
16.800,0.079
16.805,0.086
16.810,-0.001
16.815,0.030
16.820,0.106
16.825,0.050
16.830,0.016
16.835,0.087
16.840,0.067
16.845,0.012
16.850,0.069
16.855,0.095
16.860,0.039
16.865,0.065
16.870,0.112
16.875,0.051
16.880,0.026
16.885,0.087
16.890,0.069
16.895,0.015
16.900,0.059
16.905,0.086
16.910,0.030
16.915,0.053
16.920,0.107
16.925,0.043
16.930,0.013
16.935,0.094
16.940,0.083
16.945,0.019
16.950,0.076
16.955,0.102
16.960,0.037
16.965,0.044
16.970,0.084
16.975,0.037
16.980,0.022
16.985,0.097
16.990,0.078
16.995,0.017
17.000,0.071
17.005,0.089
17.010,0.019
17.015,0.033
17.020,0.076
17.025,0.020
17.030,0.009
17.035,0.079
17.040,0.056
17.045,0.008
17.050,0.066
17.055,0.089
17.060,0.017
17.065,0.034
17.070,0.084
17.075,0.016
17.080,-0.008
17.085,0.068
17.090,0.035
17.095,-0.024
17.100,0.065
17.105,0.097
17.110,0.011
17.115,0.022
17.120,0.059
17.125,-0.014
17.130,-0.017
17.135,0.074
17.140,0.042
17.145,-0.029
17.150,0.043
17.155,0.068
17.160,-0.039
17.165,-0.023
17.170,0.078
17.175,0.018
17.180,-0.134
17.185,-0.327
17.190,-0.738
17.195,-1.272
17.200,-1.617
17.205,-1.595
17.210,-1.143
17.215,-0.280
17.220,0.552
17.225,0.759
17.230,0.618
17.235,0.573
17.240,0.481
17.245,0.373
17.250,0.412
17.255,0.417
17.260,0.325
17.265,0.351
17.270,0.408
17.275,0.318
17.280,0.259
17.285,0.319
17.290,0.298
17.295,0.227
17.300,0.273
17.305,0.287
17.310,0.196
17.315,0.191
17.320,0.230
17.325,0.154
17.330,0.117
17.335,0.196
17.340,0.170
17.345,0.089
17.350,0.135
17.355,0.157
17.360,0.079
17.365,0.080
17.370,0.121
17.375,0.048
17.380,0.016
17.385,0.071
17.390,0.019
17.395,-0.054
17.400,-0.008
17.405,-0.004
17.410,-0.093
17.415,-0.098
17.420,-0.043
17.425,-0.100
17.430,-0.161
17.435,-0.119
17.440,-0.148
17.445,-0.214
17.450,-0.164
17.455,-0.148
17.460,-0.220
17.465,-0.191
17.470,-0.126
17.475,-0.178
17.480,-0.198
17.485,-0.114
17.490,-0.110
17.495,-0.158
17.500,-0.096
17.505,-0.042
17.510,-0.073
17.515,-0.019
17.520,0.072
17.525,0.038
17.530,0.026
17.535,0.125
17.540,0.139
17.545,0.087
17.550,0.151
17.555,0.187
17.560,0.111
17.565,0.126
17.570,0.185
17.575,0.123
17.580,0.092
17.585,0.161
17.590,0.129
17.595,0.047
17.600,0.091
17.605,0.105
17.610,0.015
17.615,0.014
17.620,0.064
17.625,0.012
17.630,-0.019
17.635,0.037
17.640,0.000
17.645,-0.068
17.650,-0.011
17.655,0.006
17.660,-0.069
17.665,-0.046
17.670,0.009
17.675,-0.042
17.680,-0.054
17.685,0.019
17.690,0.007
17.695,-0.046
17.700,0.007
17.705,0.040
17.710,-0.029
17.715,-0.011
17.720,0.055
17.725,-0.006
17.730,-0.036
17.735,0.042
17.740,0.034
17.745,-0.014
17.750,0.050
17.755,0.073
17.760,-0.008
17.765,0.007
17.770,0.069
17.775,0.014
17.780,-0.011
17.785,0.059
17.790,0.037
17.795,-0.025
17.800,0.026
17.805,0.047
17.810,-0.019
17.815,0.010
17.820,0.065
17.825,-0.006
17.830,-0.039
17.835,0.039
17.840,0.029
17.845,-0.037
17.850,0.014
17.855,0.041
17.860,-0.041
17.865,-0.032
17.870,0.034
17.875,-0.016
17.880,-0.041
17.885,0.032
17.890,0.007
17.895,-0.062
17.900,-0.006
17.905,0.023
17.910,-0.056
17.915,-0.040
17.920,0.026
17.925,-0.029
17.930,-0.058
17.935,0.013
17.940,-0.006
17.945,-0.072
17.950,-0.017
17.955,0.012
17.960,-0.062
17.965,-0.047
17.970,0.016
17.975,-0.035
17.980,-0.062
17.985,0.010
17.990,-0.002
17.995,-0.066
18.000,-0.014
18.005,0.013
18.010,-0.065
18.015,-0.048
18.020,0.016
18.025,-0.041
18.030,-0.069
18.035,0.006
18.040,-0.008
18.045,-0.071
18.050,-0.015
18.055,0.017
18.060,-0.056
18.065,-0.042
18.070,0.025
18.075,-0.028
18.080,-0.064
18.085,0.009
18.090,-0.006
18.095,-0.071
18.100,-0.017
18.105,0.015
18.110,-0.060
18.115,-0.048
18.120,0.016
18.125,-0.035
18.130,-0.062
18.135,0.010
18.140,-0.009
18.145,-0.077
18.150,-0.022
18.155,0.010
18.160,-0.066
18.165,-0.052
18.170,0.017
18.175,-0.041
18.180,-0.087
18.185,-0.024
18.190,-0.029
18.195,-0.126
18.200,-0.216
18.205,-0.425
18.210,-0.884
18.215,-1.359
18.220,-1.605
18.225,-1.507
18.230,-0.935
18.235,-0.042
18.240,0.579
18.245,0.654
18.250,0.585
18.255,0.507
18.260,0.367
18.265,0.363
18.270,0.420
18.275,0.348
18.280,0.301
18.285,0.362
18.290,0.334
18.295,0.249
18.300,0.284
18.305,0.301
18.310,0.217
18.315,0.220
18.320,0.270
18.325,0.202
18.330,0.158
18.335,0.219
18.340,0.193
18.345,0.120
18.350,0.164
18.355,0.186
18.360,0.103
18.365,0.107
18.370,0.161
18.375,0.095
18.380,0.052
18.385,0.114
18.390,0.087
18.395,0.009
18.400,0.051
18.405,0.070
18.410,-0.018
18.415,-0.021
18.420,0.027
18.425,-0.042
18.430,-0.089
18.435,-0.034
18.440,-0.069
18.445,-0.157
18.450,-0.120
18.455,-0.101
18.460,-0.188
18.465,-0.188
18.470,-0.130
18.475,-0.186
18.480,-0.216
18.485,-0.138
18.490,-0.144
18.495,-0.198
18.500,-0.131
18.505,-0.085
18.510,-0.138
18.515,-0.101
18.520,-0.011
18.525,-0.037
18.530,-0.039
18.535,0.064
18.540,0.078
18.545,0.035
18.550,0.104
18.555,0.151
18.560,0.087
18.565,0.105
18.570,0.176
18.575,0.128
18.580,0.096
18.585,0.167
18.590,0.153
18.595,0.085
18.600,0.133
18.605,0.162
18.610,0.083
18.615,0.087
18.620,0.146
18.625,0.086
18.630,0.047
18.635,0.111
18.640,0.087
18.645,0.013
18.650,0.058
18.655,0.080
18.660,-0.004
18.665,0.001
18.670,0.057
18.675,-0.005
18.680,-0.037
18.685,0.035
18.690,0.019
18.695,-0.047
18.700,0.007
18.705,0.035
18.710,-0.038
18.715,-0.019
18.720,0.045
18.725,-0.010
18.730,-0.041
18.735,0.033
18.740,0.023
18.745,-0.041
18.750,0.013
18.755,0.046
18.760,-0.028
18.765,-0.016
18.770,0.048
18.775,-0.005
18.780,-0.033
18.785,0.042
18.790,0.028
18.795,-0.042
18.800,0.005
18.805,0.040
18.810,-0.033
18.815,-0.025
18.820,0.039
18.825,-0.013
18.830,-0.046
18.835,0.026
18.840,0.013
18.845,-0.055
18.850,-0.004
18.855,0.028
18.860,-0.053
18.865,-0.049
18.870,0.018
18.875,-0.032
18.880,-0.067
18.885,0.005
18.890,-0.005
18.895,-0.070
18.900,-0.018
18.905,0.019
18.910,-0.054
18.915,-0.045
18.920,0.019
18.925,-0.036
18.930,-0.073
18.935,-0.001
18.940,-0.011
18.945,-0.077
18.950,-0.026
18.955,0.008
18.960,-0.064
18.965,-0.053
18.970,0.015
18.975,-0.037
18.980,-0.070
18.985,0.006
18.990,-0.003
18.995,-0.071
19.000,-0.020
19.005,0.016
19.010,-0.062
19.015,-0.053
19.020,0.017
19.025,-0.037
19.030,-0.073
19.035,0.003
19.040,-0.006
19.045,-0.073
19.050,-0.022
19.055,0.011
19.060,-0.063
19.065,-0.049
19.070,0.021
19.075,-0.029
19.080,-0.064
19.085,0.009
19.090,0.002
19.095,-0.063
19.100,-0.020
19.105,-0.003
19.110,-0.097
19.115,-0.090
19.120,-0.059
19.125,-0.239
19.130,-0.484
19.135,-0.765
19.140,-1.254
19.145,-1.635
19.150,-1.446
19.155,-0.840
19.160,-0.166
19.165,0.436
19.170,0.685
19.175,0.553
19.180,0.426
19.185,0.441
19.190,0.413
19.195,0.333
19.200,0.370
19.205,0.394
19.210,0.299
19.215,0.291
19.220,0.354
19.225,0.300
19.230,0.245
19.235,0.293
19.240,0.273
19.245,0.197
19.250,0.228
19.255,0.253
19.260,0.177
19.265,0.172
19.270,0.223
19.275,0.161
19.280,0.114
19.285,0.173
19.290,0.153
19.295,0.078
19.300,0.120
19.305,0.144
19.310,0.055
19.315,0.048
19.320,0.106
19.325,0.045
19.330,-0.003
19.335,0.055
19.340,0.029
19.345,-0.053
19.350,-0.023
19.355,-0.006
19.360,-0.095
19.365,-0.108
19.370,-0.063
19.375,-0.131
19.380,-0.188
19.385,-0.145
19.390,-0.167
19.395,-0.234
19.400,-0.182
19.405,-0.145
19.410,-0.219
19.415,-0.210
19.420,-0.129
19.425,-0.154
19.430,-0.176
19.435,-0.090
19.440,-0.072
19.445,-0.108
19.450,-0.024
19.455,0.047
19.460,0.004
19.465,0.034
19.470,0.122
19.475,0.096
19.480,0.073
19.485,0.159
19.490,0.165
19.495,0.100
19.500,0.149
19.505,0.185
19.510,0.106
19.515,0.105
19.520,0.177
19.525,0.140
19.530,0.093
19.535,0.148
19.540,0.134
19.545,0.063
19.550,0.098
19.555,0.094
19.560,-0.024
19.565,-0.071
19.570,-0.111
19.575,-0.309
19.580,-0.489
19.585,-0.559
19.590,-0.719
19.595,-0.890
19.600,-0.927
19.605,-1.021
19.610,-1.207
19.615,-1.225
19.620,-1.149
19.625,-1.242
19.630,-1.297
19.635,-1.162
19.640,-1.070
19.645,-0.908
19.650,-0.443
19.655,0.193
19.660,0.752
19.665,1.097
19.670,1.234
19.675,1.181
19.680,1.122
19.685,1.173
19.690,1.137
19.695,1.036
19.700,1.047
19.705,1.037
19.710,0.917
19.715,0.872
19.720,0.881
19.725,0.804
19.730,0.745
19.735,0.778
19.740,0.741
19.745,0.638
19.750,0.648
19.755,0.666
19.760,0.565
19.765,0.546
19.770,0.601
19.775,0.532
19.780,0.475
19.785,0.536
19.790,0.516
19.795,0.436
19.800,0.476
19.805,0.495
19.810,0.386
19.815,0.363
19.820,0.426
19.825,0.371
19.830,0.303
19.835,0.342
19.840,0.326
19.845,0.226
19.850,0.217
19.855,0.208
19.860,0.072
19.865,-0.005
19.870,-0.005
19.875,-0.103
19.880,-0.197
19.885,-0.179
19.890,-0.228
19.895,-0.367
19.900,-0.387
19.905,-0.373
19.910,-0.470
19.915,-0.505
19.920,-0.452
19.925,-0.496
19.930,-0.547
19.935,-0.476
19.940,-0.472
19.945,-0.550
19.950,-0.508
19.955,-0.464
19.960,-0.529
19.965,-0.494
19.970,-0.408
19.975,-0.470
19.980,-0.495
19.985,-0.394
19.990,-0.403
19.995,-0.475
20.000,-0.423
20.005,-0.376
20.010,-0.404
20.015,-0.367
20.020,-0.304
20.025,-0.340
20.030,-0.369
20.035,-0.301
20.040,-0.298
20.045,-0.352
20.050,-0.293
20.055,-0.239
20.060,-0.288
20.065,-0.272
20.070,-0.196
20.075,-0.230
20.080,-0.237
20.085,-0.130
20.090,-0.138
20.095,-0.219
20.100,-0.162
20.105,-0.102
20.110,-0.154
20.115,-0.146
20.120,-0.071
20.125,-0.099
20.130,-0.132
20.135,-0.052
20.140,-0.041
20.145,-0.120
20.150,-0.079
20.155,-0.004
20.160,-0.053
20.165,-0.048
20.170,0.029
20.175,-0.020
20.180,-0.066
20.185,0.014
20.190,0.012
20.195,-0.072
20.200,0.005
20.205,0.081
20.210,-0.003
20.215,0.003
20.220,0.078
20.225,0.028
20.230,-0.012
20.235,0.062
20.240,0.064
20.245,-0.005
20.250,0.053
20.255,0.104
20.260,0.025
20.265,0.021
20.270,0.092
20.275,0.048
20.280,0.005
20.285,0.078
20.290,0.075
20.295,-0.014
20.300,0.050
20.305,0.132
20.310,0.038
20.315,0.008
20.320,0.092
20.325,0.060
20.330,0.022
20.335,0.103
20.340,0.098
20.345,0.016
20.350,0.070
20.355,0.119
20.360,0.032
20.365,0.027
20.370,0.111
20.375,0.074
20.380,0.028
20.385,0.083
20.390,0.063
20.395,0.000
20.400,0.067
20.405,0.118
20.410,0.052
20.415,0.047
20.420,0.104
20.425,0.055
20.430,0.006
20.435,0.076
20.440,0.087
20.445,0.022
20.450,0.067
20.455,0.114
20.460,0.038
20.465,0.025
20.470,0.094
20.475,0.063
20.480,0.018
20.485,0.083
20.490,0.075
20.495,-0.012
20.500,0.033
20.505,0.085
20.510,0.022
20.515,0.033
20.520,0.094
20.525,0.040
20.530,0.006
20.535,0.078
20.540,0.075
20.545,0.009
20.550,0.046
20.555,0.077
20.560,0.005
20.565,0.011
20.570,0.085
20.575,0.042
20.580,0.001
20.585,0.068
20.590,0.063
20.595,-0.011
20.600,0.024
20.605,0.066
20.610,-0.009
20.615,-0.009
20.620,0.080
20.625,0.043
20.630,-0.009
20.635,0.056
20.640,0.050
20.645,-0.020
20.650,0.027
20.655,0.066
20.660,-0.009
20.665,-0.010
20.670,0.060
20.675,0.017
20.680,-0.028
20.685,0.041
20.690,0.047
20.695,-0.025
20.700,0.001
20.705,0.032
20.710,-0.020
20.715,-0.016
20.720,-0.046
20.725,-0.312
20.730,-0.702
20.735,-1.093
20.740,-1.529
20.745,-1.698
20.750,-1.222
20.755,-0.361
20.760,0.383
20.765,0.733
20.770,0.719
20.775,0.540
20.780,0.412
20.785,0.436
20.790,0.420
20.795,0.333
20.800,0.361
20.805,0.393
20.810,0.306
20.815,0.288
20.820,0.339
20.825,0.279
20.830,0.230
20.835,0.293
20.840,0.275
20.845,0.186
20.850,0.216
20.855,0.249
20.860,0.166
20.865,0.153
20.870,0.210
20.875,0.155
20.880,0.098
20.885,0.156
20.890,0.146
20.895,0.065
20.900,0.096
20.905,0.127
20.910,0.044
20.915,0.031
20.920,0.089
20.925,0.033
20.930,-0.024
20.935,0.031
20.940,0.013
20.945,-0.076
20.950,-0.049
20.955,-0.019
20.960,-0.106
20.965,-0.127
20.970,-0.073
20.975,-0.129
20.980,-0.187
20.985,-0.125
20.990,-0.132
20.995,-0.212
21.000,-0.170
21.005,-0.118
21.010,-0.184
21.015,-0.187
21.020,-0.111
21.025,-0.138
21.030,-0.174
21.035,-0.094
21.040,-0.074
21.045,-0.123
21.050,-0.055
21.055,0.018
21.060,-0.026
21.065,-0.006
21.070,0.087
21.075,0.065
21.080,0.030
21.085,0.110
21.090,0.125
21.095,0.060
21.100,0.107
21.105,0.159
21.110,0.092
21.115,0.086
21.120,0.153
21.125,0.107
21.130,0.054
21.135,0.114
21.140,0.106
21.145,0.027
21.150,0.059
21.155,0.089
21.160,0.002
21.165,-0.013
21.170,0.051
21.175,0.001
21.180,-0.056
21.185,0.003
21.190,0.003
21.195,-0.069
21.200,-0.030
21.205,0.013
21.210,-0.057
21.215,-0.058
21.220,0.018
21.225,-0.018
21.230,-0.062
21.235,0.012
21.240,0.022
21.245,-0.045
21.250,-0.002
21.255,0.049
21.260,-0.018
21.265,-0.020
21.270,0.054
21.275,0.016
21.280,-0.029
21.285,0.041
21.290,0.050
21.295,-0.019
21.300,0.018
21.305,0.064
21.310,-0.002
21.315,-0.007
21.320,0.064
21.325,0.025
21.330,-0.023
21.335,0.044
21.340,0.047
21.345,-0.024
21.350,0.013
21.355,0.057
21.360,-0.011
21.365,-0.017
21.370,0.052
21.375,0.012
21.380,-0.037
21.385,0.033
21.390,0.038
21.395,-0.038
21.400,0.000
21.405,0.046
21.410,-0.027
21.415,-0.035
21.420,0.037
21.425,-0.006
21.430,-0.059
21.435,0.010
21.440,0.016
21.445,-0.059
21.450,-0.023
21.455,0.026
21.460,-0.041
21.465,-0.050
21.470,0.018
21.475,-0.021
21.480,-0.070
21.485,-0.001
21.490,0.007
21.495,-0.068
21.500,-0.032
21.505,0.018
21.510,-0.051
21.515,-0.059
21.520,0.014
21.525,-0.024
21.530,-0.076
21.535,-0.007
21.540,0.001
21.545,-0.073
21.550,-0.033
21.555,0.019
21.560,-0.048
21.565,-0.058
21.570,0.015
21.575,-0.021
21.580,-0.071
21.585,-0.003
21.590,0.004
21.595,-0.069
21.600,-0.031
21.605,0.020
21.610,-0.049
21.615,-0.060
21.620,0.014
21.625,-0.018
21.630,-0.065
21.635,0.002
21.640,0.011
21.645,-0.063
21.650,-0.029
21.655,0.024
21.660,-0.041
21.665,-0.053
21.670,0.019
21.675,-0.014
21.680,-0.064
21.685,0.002
21.690,0.012
21.695,-0.061
21.700,-0.028
21.705,0.021
21.710,-0.042
21.715,-0.050
21.720,0.014
21.725,-0.025
21.730,-0.071
21.735,-0.004
21.740,0.006
21.745,-0.062
21.750,-0.023
21.755,0.027
21.760,-0.039
21.765,-0.045
21.770,0.029
21.775,-0.007
21.780,-0.061
21.785,0.002
21.790,0.011
21.795,-0.060
21.800,-0.024
21.805,0.028
21.810,-0.039
21.815,-0.048
21.820,0.027
21.825,-0.007
21.830,-0.060
21.835,-0.006
21.840,-0.017
21.845,-0.100
21.850,-0.081
21.855,-0.120
21.860,-0.361
21.865,-0.666
21.870,-1.037
21.875,-1.460
21.880,-1.546
21.885,-1.076
21.890,-0.392
21.895,0.209
21.900,0.597
21.905,0.637
21.910,0.471
21.915,0.399
21.920,0.445
21.925,0.400
21.930,0.331
21.935,0.382
21.940,0.378
21.945,0.292
21.950,0.315
21.955,0.350
21.960,0.267
21.965,0.245
21.970,0.304
21.975,0.254
21.980,0.188
21.985,0.239
21.990,0.243
21.995,0.161
22.000,0.179
22.005,0.218
22.010,0.142
22.015,0.119
22.020,0.182
22.025,0.136
22.030,0.072
22.035,0.128
22.040,0.131
22.045,0.047
22.050,0.066
22.055,0.102
22.060,0.022
22.065,-0.001
22.070,0.062
22.075,0.016
22.080,-0.053
22.085,-0.008
22.090,-0.016
22.095,-0.112
22.100,-0.102
22.105,-0.059
22.110,-0.135
22.115,-0.166
22.120,-0.109
22.125,-0.154
22.130,-0.219
22.135,-0.157
22.140,-0.143
22.145,-0.215
22.150,-0.175
22.155,-0.108
22.160,-0.160
22.165,-0.160
22.170,-0.069
22.175,-0.083
22.180,-0.112
22.185,-0.016
22.190,0.026
22.195,-0.015
22.200,0.048
22.205,0.119
22.210,0.067
22.215,0.074
22.220,0.160
22.225,0.130
22.230,0.079
22.235,0.149
22.240,0.167
22.245,0.092
22.250,0.125
22.255,0.180
22.260,0.110
22.265,0.095
22.270,0.164
22.275,0.124
22.280,0.062
22.285,0.116
22.290,0.125
22.295,0.053
22.300,0.076
22.305,0.115
22.310,0.042
22.315,0.028
22.320,0.093
22.325,0.043
22.330,-0.028
22.335,0.037
22.340,0.058
22.345,-0.019
22.350,0.005
22.355,0.063
22.360,0.000
22.365,-0.026
22.370,0.035
22.375,0.004
22.380,-0.029
22.385,0.045
22.390,0.046
22.395,-0.035
22.400,-0.003
22.405,0.055
22.410,-0.009
22.415,-0.023
22.420,0.047
22.425,0.010
22.430,-0.045
22.435,0.017
22.440,0.022
22.445,-0.055
22.450,-0.021
22.455,0.036
22.460,-0.026
22.465,-0.046
22.470,0.020
22.475,-0.002
22.480,-0.048
22.485,0.006
22.490,0.019
22.495,-0.053
22.500,-0.033
22.505,0.014
22.510,-0.045
22.515,-0.056
22.520,0.015
22.525,-0.018
22.530,-0.070
22.535,-0.001
22.540,0.010
22.545,-0.077
22.550,-0.044
22.555,0.025
22.560,-0.044
22.565,-0.072
22.570,0.006
22.575,-0.013
22.580,-0.071
22.585,-0.017
22.590,-0.009
22.595,-0.085
22.600,-0.046
22.605,0.017
22.610,-0.056
22.615,-0.086
22.620,-0.006
22.625,-0.016
22.630,-0.070
22.635,-0.019
22.640,-0.005
22.645,-0.074
22.650,-0.048
22.655,0.014
22.660,-0.036
22.665,-0.056
22.670,0.002
22.675,-0.034
22.680,-0.088
22.685,-0.020
22.690,0.006
22.695,-0.063
22.700,-0.042
22.705,0.012
22.710,-0.039
22.715,-0.057
22.720,0.009
22.725,-0.020
22.730,-0.080
22.735,-0.020
22.740,0.001
22.745,-0.068
22.750,-0.043
22.755,0.008
22.760,-0.063
22.765,-0.094
22.770,-0.005
22.775,-0.027
22.780,-0.203
22.785,-0.365
22.790,-0.678
22.795,-1.230
22.800,-1.640
22.805,-1.611
22.810,-1.174
22.815,-0.387
22.820,0.442
22.825,0.719
22.830,0.586
22.835,0.520
22.840,0.456
22.845,0.355
22.850,0.362
22.855,0.401
22.860,0.329
22.865,0.285
22.870,0.335
22.875,0.302
22.880,0.227
22.885,0.279
22.890,0.308
22.895,0.225
22.900,0.231
22.905,0.255
22.910,0.165
22.915,0.151
22.920,0.221
22.925,0.181
22.930,0.119
22.935,0.148
22.940,0.143
22.945,0.087
22.950,0.119
22.955,0.150
22.960,0.067
22.965,0.049
22.970,0.111
22.975,0.057
22.980,-0.019
22.985,0.037
22.990,0.052
22.995,-0.031
23.000,-0.019
23.005,0.013
23.010,-0.076
23.015,-0.104
23.020,-0.049
23.025,-0.106
23.030,-0.193
23.035,-0.151
23.040,-0.133
23.045,-0.221
23.050,-0.202
23.055,-0.138
23.060,-0.212
23.065,-0.238
23.070,-0.161
23.075,-0.168
23.080,-0.200
23.085,-0.123
23.090,-0.089
23.095,-0.147
23.100,-0.081
23.105,0.036
23.110,0.004
23.115,0.005
23.120,0.111
23.125,0.111
23.130,0.087
23.135,0.180
23.140,0.208
23.145,0.132
23.150,0.152
23.155,0.203
23.160,0.155
23.165,0.166
23.170,0.237
23.175,0.178
23.180,0.109
23.185,0.159
23.190,0.151
23.195,0.048
23.200,0.014
23.205,-0.054
23.210,-0.261
23.215,-0.416
23.220,-0.510
23.225,-0.702
23.230,-0.865
23.235,-0.911
23.240,-1.025
23.245,-1.212
23.250,-1.254
23.255,-1.220
23.260,-1.300
23.265,-1.299
23.270,-1.103
23.275,-1.023
23.280,-0.958
23.285,-0.549
23.290,0.050
23.295,0.628
23.300,1.077
23.305,1.244
23.310,1.194
23.315,1.170
23.320,1.230
23.325,1.198
23.330,1.092
23.335,1.081
23.340,1.067
23.345,0.955
23.350,0.922
23.355,0.942
23.360,0.846
23.365,0.797
23.370,0.848
23.375,0.791
23.380,0.701
23.385,0.706
23.390,0.664
23.395,0.592
23.400,0.636
23.405,0.650
23.410,0.547
23.415,0.518
23.420,0.575
23.425,0.531
23.430,0.446
23.435,0.483
23.440,0.515
23.445,0.447
23.450,0.442
23.455,0.461
23.460,0.376
23.465,0.345
23.470,0.389
23.475,0.326
23.480,0.227
23.485,0.223
23.490,0.186
23.495,0.055
23.500,0.006
23.505,0.004
23.510,-0.103
23.515,-0.191
23.520,-0.204
23.525,-0.304
23.530,-0.415
23.535,-0.386
23.540,-0.399
23.545,-0.522
23.550,-0.527
23.555,-0.477
23.560,-0.547
23.565,-0.572
23.570,-0.503
23.575,-0.525
23.580,-0.580
23.585,-0.512
23.590,-0.472
23.595,-0.555
23.600,-0.544
23.605,-0.466
23.610,-0.507
23.615,-0.518
23.620,-0.423
23.625,-0.418
23.630,-0.456
23.635,-0.408
23.640,-0.394
23.645,-0.441
23.650,-0.398
23.655,-0.325
23.660,-0.374
23.665,-0.391
23.670,-0.303
23.675,-0.321
23.680,-0.362
23.685,-0.261
23.690,-0.234
23.695,-0.304
23.700,-0.255
23.705,-0.199
23.710,-0.255
23.715,-0.247
23.720,-0.149
23.725,-0.158
23.730,-0.202
23.735,-0.143
23.740,-0.124
23.745,-0.164
23.750,-0.109
23.755,-0.044
23.760,-0.100
23.765,-0.127
23.770,-0.057
23.775,-0.061
23.780,-0.101
23.785,-0.040
23.790,-0.010
23.795,-0.076
23.800,-0.055
23.805,0.016
23.810,-0.022
23.815,-0.037
23.820,0.035
23.825,0.019
23.830,-0.033
23.835,0.021
23.840,0.043
23.845,-0.026
23.850,0.003
23.855,0.078
23.860,0.032
23.865,0.002
23.870,0.064
23.875,0.050
23.880,0.002
23.885,0.069
23.890,0.095
23.895,0.015
23.900,0.047
23.905,0.122
23.910,0.048
23.915,0.006
23.920,0.081
23.925,0.065
23.930,0.000
23.935,0.068
23.940,0.110
23.945,0.045
23.950,0.066
23.955,0.115
23.960,0.053
23.965,0.043
23.970,0.123
23.975,0.084
23.980,0.004
23.985,0.064
23.990,0.105
23.995,0.037
24.000,0.047
24.005,0.113
24.010,0.056
24.015,0.009
24.020,0.095
24.025,0.106
24.030,0.033
24.035,0.066
24.040,0.092
24.045,0.037
24.050,0.063
24.055,0.124
24.060,0.056
24.065,0.004
24.070,0.077
24.075,0.081
24.080,0.016
24.085,0.051
24.090,0.078
24.095,0.014
24.100,0.032
24.105,0.092
24.110,0.035
24.115,0.003
24.120,0.076
24.125,0.065
24.130,0.010
24.135,0.058
24.140,0.077
24.145,0.012
24.150,0.031
24.155,0.084
24.160,0.022
24.165,-0.003
24.170,0.072
24.175,0.050
24.180,-0.012
24.185,0.049
24.190,0.072
24.195,-0.009
24.200,0.010
24.205,0.083
24.210,0.021
24.215,-0.017
24.220,0.059
24.225,0.053
24.230,-0.003
24.235,0.042
24.240,0.069
24.245,0.000
24.250,0.008
24.255,0.071
24.260,0.022
24.265,-0.008
24.270,0.062
24.275,0.041
24.280,-0.022
24.285,0.032
24.290,0.053
24.295,-0.020
24.300,-0.003
24.305,0.059
24.310,0.008
24.315,-0.019
24.320,0.050
24.325,0.022
24.330,-0.041
24.335,0.026
24.340,0.055
24.345,-0.028
24.350,-0.016
24.355,0.044
24.360,-0.018
24.365,-0.044
24.370,0.031
24.375,0.022
24.380,-0.022
24.385,0.030
24.390,0.049
24.395,-0.021
24.400,-0.007
24.405,0.044
24.410,-0.023
24.415,-0.042
24.420,0.038
24.425,0.012
24.430,-0.051
24.435,0.003
24.440,0.017
24.445,-0.069
24.450,-0.036
24.455,0.023
24.460,-0.151
24.465,-0.403
24.470,-0.671
24.475,-1.160
24.480,-1.645
24.485,-1.620
24.490,-1.091
24.495,-0.346
24.500,0.426
24.505,0.785
24.510,0.637
24.515,0.477
24.520,0.474
24.525,0.425
24.530,0.342
24.535,0.385
24.540,0.412
24.545,0.323
24.550,0.322
24.555,0.372
24.560,0.294
24.565,0.242
24.570,0.308
24.575,0.286
24.580,0.205
24.585,0.243
24.590,0.261
24.595,0.174
24.600,0.177
24.605,0.229
24.610,0.161
24.615,0.118
24.620,0.180
24.625,0.150
24.630,0.067
24.635,0.111
24.640,0.139
24.645,0.053
24.650,0.052
24.655,0.104
24.660,0.035
24.665,-0.011
24.670,0.049
24.675,0.018
24.680,-0.064
24.685,-0.024
24.690,-0.006
24.695,-0.100
24.700,-0.110
24.705,-0.064
24.710,-0.130
24.715,-0.178
24.720,-0.117
24.725,-0.134
24.730,-0.206
24.735,-0.162
24.740,-0.132
24.745,-0.206
24.750,-0.192
24.755,-0.120
24.760,-0.163
24.765,-0.183
24.770,-0.098
24.775,-0.098
24.780,-0.155
24.785,-0.087
24.790,-0.022
24.795,-0.070
24.800,-0.037
24.805,0.056
24.810,0.027
24.815,0.015
24.820,0.109
24.825,0.111
24.830,0.055
24.835,0.113
24.840,0.156
24.845,0.088
24.850,0.101
24.855,0.168
24.860,0.111
24.865,0.073
24.870,0.146
24.875,0.125
24.880,0.047
24.885,0.098
24.890,0.128
24.895,0.044
24.900,0.046
24.905,0.104
24.910,0.035
24.915,-0.017
24.920,0.047
24.925,0.032
24.930,-0.044
24.935,-0.003
24.940,0.024
24.945,-0.054
24.950,-0.046
24.955,0.021
24.960,-0.028
24.965,-0.062
24.970,0.013
24.975,0.010
24.980,-0.053
24.985,-0.003
24.990,0.035
24.995,-0.030
25.000,-0.016
25.005,0.054
25.010,0.009
25.015,-0.025
25.020,0.045
25.025,0.037
25.030,-0.029
25.035,0.023
25.040,0.065
25.045,-0.003
25.050,0.002
25.055,0.067
25.060,0.014
25.065,-0.030
25.070,0.040
25.075,0.033
25.080,-0.036
25.085,0.015
25.090,0.053
25.095,-0.019
25.100,-0.012
25.105,0.056
25.110,0.005
25.115,-0.035
25.120,0.035
25.125,0.020
25.130,-0.052
25.135,-0.001
25.140,0.033
25.145,-0.041
25.150,-0.034
25.155,0.031
25.160,-0.017
25.165,-0.053
25.170,0.017
25.175,0.008
25.180,-0.059
25.185,-0.009
25.190,0.026
25.195,-0.046
25.200,-0.038
25.205,0.027
25.210,-0.027
25.215,-0.067
25.220,0.007
25.225,-0.002
25.230,-0.072
25.235,-0.023
25.240,0.012
25.245,-0.063
25.250,-0.053
25.255,0.017
25.260,-0.031
25.265,-0.068
25.270,0.005
25.275,-0.003
25.280,-0.070
25.285,-0.020
25.290,0.016
25.295,-0.058
25.300,-0.050
25.305,0.017
25.310,-0.031
25.315,-0.068
25.320,0.005
25.325,-0.001
25.330,-0.068
25.335,-0.021
25.340,0.016
25.345,-0.057
25.350,-0.053
25.355,0.013
25.360,-0.033
25.365,-0.068
25.370,-0.003
25.375,-0.028
25.380,-0.114
25.385,-0.064
25.390,-0.058
25.395,-0.260
25.400,-0.464
25.405,-0.751
25.410,-1.285
25.415,-1.658
25.420,-1.476
25.425,-0.921
25.430,-0.212
25.435,0.464
25.440,0.688
25.445,0.528
25.450,0.441
25.455,0.450
25.460,0.383
25.465,0.335
25.470,0.388
25.475,0.366
25.480,0.283
25.485,0.315
25.490,0.339
25.495,0.254
25.500,0.247
25.505,0.302
25.510,0.240
25.515,0.189
25.520,0.249
25.525,0.227
25.530,0.145
25.535,0.185
25.540,0.212
25.545,0.124
25.550,0.116
25.555,0.176
25.560,0.122
25.565,0.073
25.570,0.130
25.575,0.111
25.580,0.025
25.585,0.060
25.590,0.097
25.595,0.017
25.600,0.000
25.605,0.054
25.610,0.000
25.615,-0.053
25.620,-0.003
25.625,-0.029
25.630,-0.113
25.635,-0.080
25.640,-0.058
25.645,-0.150
25.650,-0.169
25.655,-0.123
25.660,-0.186
25.665,-0.231
25.670,-0.151
25.675,-0.148
25.680,-0.218
25.685,-0.164
25.690,-0.105
25.695,-0.158
25.700,-0.144
25.705,-0.063
25.710,-0.092
25.715,-0.112
25.720,-0.007
25.725,0.031
25.730,-0.005
25.735,0.068
25.740,0.126
25.745,0.065
25.750,0.081
25.755,0.161
25.760,0.126
25.765,0.091
25.770,0.162
25.775,0.151
25.780,0.071
25.785,0.116
25.790,0.160
25.795,0.086
25.800,0.088
25.805,0.155
25.810,0.104
25.815,0.056
25.820,0.121
25.825,0.120
25.830,0.050
25.835,0.075
25.840,0.098
25.845,0.023
25.850,0.019
25.855,0.080
25.860,0.024
25.865,-0.026
25.870,0.042
25.875,0.036
25.880,-0.031
25.885,0.027
25.890,0.069
25.895,-0.016
25.900,-0.014
25.905,0.064
25.910,0.017
25.915,-0.030
25.920,0.037
25.925,0.033
25.930,-0.037
25.935,0.009
25.940,0.044
25.945,-0.035
25.950,-0.028
25.955,0.043
25.960,-0.001
25.965,-0.044
25.970,0.014
25.975,0.012
25.980,-0.047
25.985,0.000
25.990,0.041
25.995,-0.038
26.000,-0.040
26.005,0.044
26.010,-0.002
26.015,-0.058
26.020,0.017
26.025,0.018
26.030,-0.061
26.035,-0.014
26.040,0.032
26.045,-0.043
26.050,-0.044
26.055,0.028
26.060,-0.015
26.065,-0.062
26.070,0.000
26.075,-0.002
26.080,-0.073
26.085,-0.035
26.090,0.013
26.095,-0.055
26.100,-0.058
26.105,0.017
26.110,-0.020
26.115,-0.076
26.120,-0.019
26.125,-0.010
26.130,-0.071
26.135,-0.024
26.140,0.031
26.145,-0.044
26.150,-0.063
26.155,0.010
26.160,-0.019
26.165,-0.063
26.170,-0.024
26.175,-0.056
26.180,-0.106
26.185,-0.049
26.190,-0.107
26.195,-0.376
26.200,-0.663
26.205,-1.015
26.210,-1.532
26.215,-1.754
26.220,-1.284
26.225,-0.516
26.230,0.179
26.235,0.645
26.240,0.683
26.245,0.486
26.250,0.402
26.255,0.430
26.260,0.368
26.265,0.307
26.270,0.368
26.275,0.345
26.280,0.250
26.285,0.282
26.290,0.317
26.295,0.232
26.300,0.219
26.305,0.283
26.310,0.227
26.315,0.159
26.320,0.214
26.325,0.226
26.330,0.155
26.335,0.164
26.340,0.191
26.345,0.121
26.350,0.110
26.355,0.165
26.360,0.104
26.365,0.048
26.370,0.113
26.375,0.101
26.380,0.014
26.385,0.045
26.390,0.073
26.395,-0.009
26.400,-0.011
26.405,0.048
26.410,-0.018
26.415,-0.081
26.420,-0.030
26.425,-0.052
26.430,-0.149
26.435,-0.128
26.440,-0.104
26.445,-0.196
26.450,-0.214
26.455,-0.156
26.460,-0.208
26.465,-0.256
26.470,-0.177
26.475,-0.169
26.480,-0.243
26.485,-0.195
26.490,-0.135
26.495,-0.182
26.500,-0.156
26.505,-0.055
26.510,-0.066
26.515,-0.078
26.520,0.028
26.525,0.065
26.530,0.030
26.535,0.103
26.540,0.170
26.545,0.117
26.550,0.120
26.555,0.191
26.560,0.158
26.565,0.123
26.570,0.193
26.575,0.192
26.580,0.120
26.585,0.153
26.590,0.192
26.595,0.118
26.600,0.104
26.605,0.160
26.610,0.108
26.615,0.054
26.620,0.114
26.625,0.110
26.630,0.029
26.635,0.051
26.640,0.085
26.645,0.011
26.650,-0.004
26.655,0.059
26.660,0.017
26.665,-0.036
26.670,0.027
26.675,0.030
26.680,-0.039
26.685,0.000
26.690,0.046
26.695,-0.016
26.700,-0.017
26.705,0.049
26.710,0.012
26.715,-0.031
26.720,0.035
26.725,0.037
26.730,-0.033
26.735,0.011
26.740,0.060
26.745,-0.012
26.750,-0.023
26.755,0.044
26.760,0.004
26.765,-0.040
26.770,0.031
26.775,0.036
26.780,-0.036
26.785,0.003
26.790,0.047
26.795,-0.022
26.800,-0.026
26.805,0.042
26.810,-0.003
26.815,-0.055
26.820,0.014
26.825,0.019
26.830,-0.053
26.835,-0.010
26.840,0.038
26.845,-0.036
26.850,-0.042
26.855,0.029
26.860,-0.011
26.865,-0.059
26.870,0.008
26.875,0.014
26.880,-0.059
26.885,-0.022
26.890,0.025
26.895,-0.047
26.900,-0.056
26.905,0.018
26.910,-0.019
26.915,-0.068
26.920,0.001
26.925,0.004
26.930,-0.072
26.935,-0.035
26.940,0.010
26.945,-0.065
26.950,-0.073
26.955,0.002
26.960,-0.044
26.965,-0.111
26.970,-0.048
26.975,-0.046
26.980,-0.209
26.985,-0.362
26.990,-0.608
26.995,-1.112
27.000,-1.564
27.005,-1.611
27.010,-1.230
27.015,-0.516
27.020,0.298
27.025,0.681
27.030,0.577
27.035,0.489
27.040,0.462
27.045,0.363
27.050,0.343
27.055,0.393
27.060,0.338
27.065,0.281
27.070,0.340
27.075,0.329
27.080,0.239
27.085,0.262
27.090,0.297
27.095,0.215
27.100,0.192
27.105,0.254
27.110,0.209
27.115,0.146
27.120,0.201
27.125,0.201
27.130,0.117
27.135,0.139
27.140,0.178
27.145,0.100
27.150,0.080
27.155,0.140
27.160,0.090
27.165,0.029
27.170,0.088
27.175,0.088
27.180,-0.002
27.185,0.014
27.190,0.053
27.195,-0.027
27.200,-0.064
27.205,-0.013
27.210,-0.061
27.215,-0.133
27.220,-0.087
27.225,-0.090
27.230,-0.177
27.235,-0.162
27.240,-0.127
27.245,-0.203
27.250,-0.220
27.255,-0.151
27.260,-0.189
27.265,-0.240
27.270,-0.169
27.275,-0.148
27.280,-0.206
27.285,-0.154
27.290,-0.080
27.295,-0.119
27.300,-0.096
27.305,0.011
27.310,0.007
27.315,-0.013
27.320,0.082
27.325,0.114
27.330,0.058
27.335,0.109
27.340,0.170
27.345,0.104
27.350,0.094
27.355,0.172
27.360,0.138
27.365,0.079
27.370,0.142
27.375,0.151
27.380,0.072
27.385,0.103
27.390,0.151
27.395,0.078
27.400,0.059
27.405,0.129
27.410,0.090
27.415,0.033
27.420,0.093
27.425,0.093
27.430,0.012
27.435,0.039
27.440,0.081
27.445,0.007
27.450,-0.010
27.455,0.059
27.460,0.023
27.465,-0.033
27.470,0.033
27.475,0.044
27.480,-0.030
27.485,0.003
27.490,0.056
27.495,-0.010
27.500,-0.023
27.505,0.052
27.510,0.020
27.515,-0.032
27.520,0.033
27.525,0.044
27.530,-0.031
27.535,0.001
27.540,0.055
27.545,-0.008
27.550,-0.018
27.555,0.054
27.560,0.015
27.565,-0.043
27.570,0.022
27.575,0.035
27.580,-0.038
27.585,-0.007
27.590,0.044
27.595,-0.024
27.600,-0.037
27.605,0.035
27.610,0.002
27.615,-0.052
27.620,0.009
27.625,0.018
27.630,-0.054
27.635,-0.026
27.640,0.019
27.645,-0.049
27.650,-0.060
27.655,0.011
27.660,-0.019
27.665,-0.069
27.670,-0.005
27.675,0.009
27.680,-0.063
27.685,-0.032
27.690,0.020
27.695,-0.044
27.700,-0.063
27.705,0.006
27.710,-0.023
27.715,-0.075
27.720,-0.010
27.725,0.002
27.730,-0.075
27.735,-0.044
27.740,0.010
27.745,-0.053
27.750,-0.064
27.755,0.010
27.760,-0.020
27.765,-0.073
27.770,-0.009
27.775,0.006
27.780,-0.066
27.785,-0.034
27.790,0.023
27.795,-0.041
27.800,-0.056
27.805,0.018
27.810,-0.014
27.815,-0.074
27.820,-0.012
27.825,0.004
27.830,-0.067
27.835,-0.035
27.840,0.020
27.845,-0.044
27.850,-0.060
27.855,0.013
27.860,-0.013
27.865,-0.067
27.870,-0.003
27.875,0.014
27.880,-0.060
27.885,-0.029
27.890,0.028
27.895,-0.037
27.900,-0.053
27.905,0.021
27.910,-0.011
27.915,-0.066
27.920,-0.002
27.925,0.003
27.930,-0.092
27.935,-0.071
27.940,-0.026
27.945,-0.177
27.950,-0.366
27.955,-0.574
27.960,-1.039
27.965,-1.514
27.970,-1.535
27.975,-1.123
27.980,-0.497
27.985,0.228
27.990,0.652
27.995,0.581
28.000,0.460
28.005,0.466
28.010,0.409
28.015,0.347
28.020,0.390
28.025,0.388
28.030,0.304
28.035,0.319
28.040,0.360
28.045,0.283
28.050,0.252
28.055,0.311
28.060,0.268
28.065,0.199
28.070,0.249
28.075,0.252
28.080,0.166
28.085,0.184
28.090,0.228
28.095,0.152
28.100,0.126
28.105,0.191
28.110,0.149
28.115,0.080
28.120,0.135
28.125,0.141
28.130,0.055
28.135,0.069
28.140,0.109
28.145,0.033
28.150,0.004
28.155,0.064
28.160,0.022
28.165,-0.049
28.170,-0.004
28.175,-0.005
28.180,-0.098
28.185,-0.091
28.190,-0.056
28.195,-0.136
28.200,-0.172
28.205,-0.117
28.210,-0.160
28.215,-0.227
28.220,-0.166
28.225,-0.146
28.230,-0.219
28.235,-0.190
28.240,-0.128
28.245,-0.180
28.250,-0.182
28.255,-0.090
28.260,-0.093
28.265,-0.126
28.270,-0.041
28.275,0.009
28.280,-0.030
28.285,0.026
28.290,0.109
28.295,0.068
28.300,0.065
28.305,0.156
28.310,0.139
28.315,0.084
28.320,0.146
28.325,0.168
28.330,0.097
28.335,0.123
28.340,0.178
28.345,0.114
28.350,0.089
28.355,0.156
28.360,0.127
28.365,0.065
28.370,0.120
28.375,0.130
28.380,0.051
28.385,0.070
28.390,0.112
28.395,0.039
28.400,0.014
28.405,0.078
28.410,0.045
28.415,-0.015
28.420,0.041
28.425,0.056
28.430,-0.022
28.435,0.003
28.440,0.062
28.445,-0.007
28.450,-0.034
28.455,0.040
28.460,0.014
28.465,-0.046
28.470,0.015
28.475,0.036
28.480,-0.036
28.485,-0.011
28.490,0.048
28.495,-0.010
28.500,-0.028
28.505,0.043
28.510,0.016
28.515,-0.046
28.520,0.018
28.525,0.045
28.530,-0.033
28.535,-0.015
28.540,0.043
28.545,-0.017
28.550,-0.040
28.555,0.034
28.560,0.010
28.565,-0.055
28.570,0.003
28.575,0.028
28.580,-0.048
28.585,-0.025
28.590,0.033
28.595,-0.031
28.600,-0.051
28.605,0.024
28.610,-0.001
28.615,-0.060
28.620,-0.002
28.625,0.019
28.630,-0.053
28.635,-0.028
28.640,0.030
28.645,-0.039
28.650,-0.068
28.655,0.014
28.660,0.001
28.665,-0.064
28.670,-0.013
28.675,0.008
28.680,-0.063
28.685,-0.037
28.690,0.022
28.695,-0.040
28.700,-0.065
28.705,0.008
28.710,-0.014
28.715,-0.075
28.720,-0.011
28.725,0.014
28.730,-0.067
28.735,-0.045
28.740,0.023
28.745,-0.038
28.750,-0.070
28.755,-0.012
28.760,-0.060
28.765,-0.121
28.770,-0.087
28.775,-0.192
28.780,-0.462
28.785,-0.750
28.790,-1.132
28.795,-1.532
28.800,-1.486
28.805,-0.892
28.810,-0.196
28.815,0.346
28.820,0.629
28.825,0.593
28.830,0.414
28.835,0.363
28.840,0.399
28.845,0.336
28.850,0.302
28.855,0.354
28.860,0.309
28.865,0.246
28.870,0.302
28.875,0.299
28.880,0.199
28.885,0.216
28.890,0.273
28.895,0.201
28.900,0.159
28.905,0.218
28.910,0.185
28.915,0.121
28.920,0.170
28.925,0.172
28.930,0.090
28.935,0.107
28.940,0.151
28.945,0.082
28.950,0.048
28.955,0.117
28.960,0.092
28.965,0.011
28.970,0.050
28.975,0.071
28.980,-0.014
28.985,-0.023
28.990,0.021
28.995,-0.044
29.000,-0.094
29.005,-0.039
29.010,-0.062
29.015,-0.144
29.020,-0.109
29.025,-0.097
29.030,-0.194
29.035,-0.210
29.040,-0.164
29.045,-0.216
29.050,-0.252
29.055,-0.190
29.060,-0.196
29.065,-0.239
29.070,-0.168
29.075,-0.120
29.080,-0.174
29.085,-0.144
29.090,-0.057
29.095,-0.073
29.100,-0.066
29.105,0.029
29.110,0.050
29.115,0.038
29.120,0.132
29.125,0.171
29.130,0.094
29.135,0.122
29.140,0.191
29.145,0.121
29.150,0.091
29.155,0.185
29.160,0.179
29.165,0.108
29.170,0.153
29.175,0.178
29.180,0.107
29.185,0.117
29.190,0.157
29.195,0.090
29.200,0.078
29.205,0.142
29.210,0.099
29.215,0.037
29.220,0.083
29.225,0.094
29.230,0.025
29.235,0.035
29.240,0.081
29.245,0.015
29.250,-0.020
29.255,0.056
29.260,0.040
29.265,-0.034
29.270,0.017
29.275,0.039
29.280,-0.040
29.285,-0.007
29.290,0.055
29.295,-0.017
29.300,-0.052
29.305,0.023
29.310,0.019
29.315,-0.048
29.320,0.005
29.325,0.052
29.330,-0.025
29.335,-0.020
29.340,0.046
29.345,-0.002
29.350,-0.031
29.355,0.017
29.360,-0.023
29.365,-0.079
29.370,0.000
29.375,0.041
29.380,-0.030
29.385,-0.006
29.390,0.043
29.395,-0.042
29.400,-0.062
29.405,0.011
29.410,-0.015
29.415,-0.051
29.420,0.010
29.425,0.026
29.430,-0.047
29.435,-0.060
29.440,-0.018
29.445,-0.044
29.450,-0.051
29.455,0.008
29.460,-0.004
29.465,-0.050
29.470,0.010
29.475,0.037
29.480,-0.053
29.485,-0.053
29.490,-0.001
29.495,-0.052
29.500,-0.068
29.505,0.009
29.510,-0.002
29.515,-0.061
29.520,-0.003
29.525,0.004
29.530,-0.086
29.535,-0.048
29.540,0.019
29.545,-0.049
29.550,-0.070
29.555,0.013
29.560,-0.008
29.565,-0.102
29.570,-0.060
29.575,0.001
29.580,-0.105
29.585,-0.257
29.590,-0.467
29.595,-0.924
29.600,-1.480
29.605,-1.783
29.610,-1.645
29.615,-1.034
29.620,-0.068
29.625,0.650
29.630,0.702
29.635,0.579
29.640,0.541
29.645,0.438
29.650,0.374
29.655,0.402
29.660,0.376
29.665,0.326
29.670,0.378
29.675,0.381
29.680,0.257
29.685,0.261
29.690,0.335
29.695,0.251
29.700,0.210
29.705,0.287
29.710,0.249
29.715,0.181
29.720,0.241
29.725,0.230
29.730,0.119
29.735,0.138
29.740,0.195
29.745,0.125
29.750,0.096
29.755,0.167
29.760,0.131
29.765,0.056
29.770,0.096
29.775,0.083
29.780,-0.007
29.785,0.014
29.790,0.083
29.795,0.023
29.800,-0.041
29.805,0.013
29.810,-0.017
29.815,-0.121
29.820,-0.085
29.825,-0.075
29.830,-0.206
29.835,-0.220
29.840,-0.145
29.845,-0.201
29.850,-0.256
29.855,-0.191
29.860,-0.191
29.865,-0.265
29.870,-0.219
29.875,-0.159
29.880,-0.212
29.885,-0.195
29.890,-0.105
29.895,-0.119
29.900,-0.124
29.905,-0.016
29.910,0.000
29.915,-0.033
29.920,0.092
29.925,0.162
29.930,0.069
29.935,0.111
29.940,0.226
29.945,0.162
29.950,0.117
29.955,0.208
29.960,0.200
29.965,0.128
29.970,0.175
29.975,0.203
29.980,0.118
29.985,0.116
29.990,0.182
29.995,0.125
30.000,0.080
30.005,0.151
30.010,0.132
30.015,0.044
30.020,0.081
30.025,0.105
30.030,0.010
30.035,0.006
30.040,0.064
30.045,0.009
30.050,-0.022
30.055,0.040
30.060,0.015
30.065,-0.049
30.070,0.003
30.075,0.038
30.080,-0.026
30.085,-0.022
30.090,0.029
30.095,-0.025
30.100,-0.052
30.105,0.033
30.110,0.038
30.115,-0.019
30.120,0.037
30.125,0.065
30.130,-0.029
30.135,-0.030
30.140,0.030
30.145,-0.014
30.150,-0.037
30.155,0.030
30.160,0.023
30.165,-0.034
30.170,0.013
30.175,0.055
30.180,-0.013
30.185,-0.020
30.190,0.039
30.195,-0.006
30.200,-0.034
30.205,0.037
30.210,0.019
30.215,-0.044
30.220,0.009
30.225,0.027
30.230,-0.054
30.235,-0.035
30.240,0.026
30.245,-0.026
30.250,-0.045
30.255,0.021
30.260,0.006
30.265,-0.047
30.270,-0.006
30.275,0.010
30.280,-0.062
30.285,-0.054
30.290,0.010
30.295,-0.032
30.300,-0.061
30.305,0.008
30.310,0.008
30.315,-0.048
30.320,-0.014
30.325,0.010
30.330,-0.064
30.335,-0.059
30.340,0.012
30.345,-0.038
30.350,-0.078
30.355,-0.002
30.360,-0.002
30.365,-0.070
30.370,-0.026
30.375,0.009
30.380,-0.060
30.385,-0.043
30.390,0.027
30.395,-0.031
30.400,-0.073
30.405,-0.006
30.410,-0.012
30.415,-0.064
30.420,-0.014
30.425,0.014
30.430,-0.053
30.435,-0.035
30.440,0.026
30.445,-0.033
30.450,-0.066
30.455,0.007
30.460,-0.004
30.465,-0.070
30.470,-0.018
30.475,0.022
30.480,-0.048
30.485,-0.035
30.490,0.029
30.495,-0.040
30.500,-0.068
30.505,0.029
30.510,0.012
30.515,-0.067
30.520,-0.013
30.525,0.025
30.530,-0.049
30.535,-0.046
30.540,0.023
30.545,-0.022
30.550,-0.061
30.555,0.008
30.560,0.005
30.565,-0.060
30.570,-0.016
30.575,0.021
30.580,-0.043
30.585,-0.032
30.590,0.033
30.595,-0.017
30.600,-0.059
30.605,0.007
30.610,0.006
30.615,-0.053
30.620,-0.003
30.625,0.032
30.630,-0.036
30.635,-0.030
30.640,0.033
30.645,-0.016
30.650,-0.051
30.655,0.021
30.660,0.015
30.665,-0.051
30.670,-0.007
30.675,0.012
30.680,-0.073
30.685,-0.056
30.690,-0.039
30.695,-0.260
30.700,-0.572
30.705,-0.913
30.710,-1.405
30.715,-1.731
30.720,-1.440
30.725,-0.719
30.730,0.053
30.735,0.638
30.740,0.766
30.745,0.571
30.750,0.437
30.755,0.457
30.760,0.434
30.765,0.350
30.770,0.381
30.775,0.405
30.780,0.318
30.785,0.310
30.790,0.363
30.795,0.298
30.800,0.248
30.805,0.312
30.810,0.290
30.815,0.202
30.820,0.236
30.825,0.264
30.830,0.180
30.835,0.171
30.840,0.228
30.845,0.168
30.850,0.118
30.855,0.180
30.860,0.160
30.865,0.077
30.870,0.115
30.875,0.142
30.880,0.058
30.885,0.051
30.890,0.107
30.895,0.046
30.900,-0.007
30.905,0.049
30.910,0.024
30.915,-0.057
30.920,-0.019
30.925,-0.001
30.930,-0.098
30.935,-0.112
30.940,-0.066
30.945,-0.138
30.950,-0.195
30.955,-0.139
30.960,-0.165
30.965,-0.249
30.970,-0.203
30.975,-0.165
30.980,-0.235
30.985,-0.218
30.990,-0.137
30.995,-0.175
31.000,-0.200
31.005,-0.106
31.010,-0.082
31.015,-0.119
31.020,-0.036
31.025,0.036
31.030,-0.011
31.035,0.022
31.040,0.118
31.045,0.091
31.050,0.065
31.055,0.148
31.060,0.156
31.065,0.099
31.070,0.150
31.075,0.189
31.080,0.117
31.085,0.123
31.090,0.193
31.095,0.143
31.100,0.097
31.105,0.164
31.110,0.157
31.115,0.083
31.120,0.119
31.125,0.148
31.130,0.069
31.135,0.064
31.140,0.123
31.145,0.063
31.150,0.013
31.155,0.081
31.160,0.071
31.165,-0.007
31.170,0.029
31.175,0.056
31.180,-0.024
31.185,-0.025
31.190,0.038
31.195,-0.008
31.200,-0.042
31.205,0.026
31.210,0.007
31.215,-0.073
31.220,-0.027
31.225,0.023
31.230,-0.043
31.235,-0.042
31.240,0.031
31.245,-0.014
31.250,-0.062
31.255,0.009
31.260,0.011
31.265,-0.059
31.270,-0.012
31.275,0.035
31.280,-0.036
31.285,-0.033
31.290,0.038
31.295,-0.007
31.300,-0.048
31.305,0.024
31.310,0.017
31.315,-0.060
31.320,-0.016
31.325,0.028
31.330,-0.044
31.335,-0.042
31.340,0.026
31.345,-0.018
31.350,-0.058
31.355,0.011
31.360,0.009
31.365,-0.059
31.370,-0.015
31.375,0.025
31.380,-0.045
31.385,-0.045
31.390,0.022
31.395,-0.025
31.400,-0.069
31.405,0.003
31.410,0.003
31.415,-0.068
31.420,-0.024
31.425,0.015
31.430,-0.060
31.435,-0.056
31.440,0.019
31.445,-0.027
31.450,-0.071
31.455,0.003
31.460,0.004
31.465,-0.067
31.470,-0.024
31.475,0.019
31.480,-0.048
31.485,-0.049
31.490,0.019
31.495,-0.025
31.500,-0.068
31.505,0.003
31.510,0.004
31.515,-0.067
31.520,-0.024
31.525,0.021
31.530,-0.050
31.535,-0.051
31.540,0.019
31.545,-0.023
31.550,-0.065
31.555,0.005
31.560,0.005
31.565,-0.065
31.570,-0.025
31.575,0.018
31.580,-0.051
31.585,-0.052
31.590,0.011
31.595,-0.054
31.600,-0.112
31.605,-0.043
31.610,-0.101
31.615,-0.323
31.620,-0.527
31.625,-0.894
31.630,-1.442
31.635,-1.662
31.640,-1.323
31.645,-0.714
31.650,-0.001
31.655,0.582
31.660,0.659
31.665,0.482
31.670,0.448
31.675,0.451
31.680,0.371
31.685,0.354
31.690,0.405
31.695,0.349
31.700,0.290
31.705,0.344
31.710,0.329
31.715,0.245
31.720,0.273
31.725,0.304
31.730,0.221
31.735,0.205
31.740,0.263
31.745,0.209
31.750,0.151
31.755,0.209
31.760,0.200
31.765,0.115
31.770,0.144
31.775,0.181
31.780,0.101
31.785,0.088
31.790,0.150
31.795,0.097
31.800,0.039
31.805,0.096
31.810,0.087
31.815,0.005
31.820,0.031
31.825,0.061
31.830,-0.026
31.835,-0.045
31.840,0.010
31.845,-0.052
31.850,-0.117
31.855,-0.068
31.860,-0.086
31.865,-0.176
31.870,-0.155
31.875,-0.128
31.880,-0.212
31.885,-0.225
31.890,-0.159
31.895,-0.198
31.900,-0.238
31.905,-0.163
31.910,-0.149
31.915,-0.204
31.920,-0.140
31.925,-0.068
31.930,-0.107
31.935,-0.077
31.940,0.024
31.945,0.017
31.950,0.005
31.955,0.095
31.960,0.113
31.965,0.057
31.970,0.112
31.975,0.171
31.980,0.107
31.985,0.105
31.990,0.181
31.995,0.142
32.000,0.093
32.005,0.160
32.010,0.160
32.015,0.086
32.020,0.118
32.025,0.155
32.030,0.083
32.035,0.074
32.040,0.142
32.045,0.097
32.050,0.041
32.055,0.103
32.060,0.103
32.065,0.025
32.070,0.058
32.075,0.098
32.080,0.023
32.085,0.010
32.090,0.074
32.095,0.030
32.100,-0.023
32.105,0.035
32.110,0.033
32.115,-0.040
32.120,-0.001
32.125,0.046
32.130,-0.027
32.135,-0.037
32.140,0.035
32.145,-0.002
32.150,-0.050
32.155,0.018
32.160,0.024
32.165,-0.047
32.170,-0.008
32.175,0.037
32.180,-0.034
32.185,-0.039
32.190,0.032
32.195,-0.008
32.200,-0.055
32.205,0.011
32.210,0.015
32.215,-0.056
32.220,-0.017
32.225,0.031
32.230,-0.039
32.235,-0.048
32.240,0.022
32.245,-0.014
32.250,-0.063
32.255,0.001
32.260,0.007
32.265,-0.065
32.270,-0.029
32.275,0.019
32.280,-0.047
32.285,-0.054
32.290,0.017
32.295,-0.021
32.300,-0.071
32.305,-0.006
32.310,0.002
32.315,-0.070
32.320,-0.032
32.325,0.019
32.330,-0.049
32.335,-0.055
32.340,0.017
32.345,-0.022
32.350,-0.073
32.355,-0.006
32.360,0.001
32.365,-0.071
32.370,-0.033
32.375,0.016
32.380,-0.050
32.385,-0.057
32.390,0.011
32.395,-0.029
32.400,-0.077
32.405,-0.009
32.410,-0.009
32.415,-0.101
32.420,-0.085
32.425,-0.042
32.430,-0.155
32.435,-0.298
32.440,-0.440
32.445,-0.842
32.450,-1.361
32.455,-1.565
32.460,-1.368
32.465,-0.854
32.470,-0.096
32.475,0.504
32.480,0.586
32.485,0.498
32.490,0.490
32.495,0.403
32.500,0.338
32.505,0.394
32.510,0.385
32.515,0.297
32.520,0.318
32.525,0.354
32.530,0.273
32.535,0.252
32.540,0.309
32.545,0.259
32.550,0.194
32.555,0.248
32.560,0.245
32.565,0.160
32.570,0.180
32.575,0.219
32.580,0.148
32.585,0.131
32.590,0.191
32.595,0.142
32.600,0.081
32.605,0.144
32.610,0.141
32.615,0.049
32.620,0.073
32.625,0.113
32.630,0.031
32.635,0.009
32.640,0.072
32.645,0.021
32.650,-0.047
32.655,0.003
32.660,-0.006
32.665,-0.103
32.670,-0.096
32.675,-0.072
32.680,-0.161
32.685,-0.189
32.690,-0.131
32.695,-0.180
32.700,-0.243
32.705,-0.183
32.710,-0.179
32.715,-0.251
32.720,-0.209
32.725,-0.155
32.730,-0.215
32.735,-0.206
32.740,-0.109
32.745,-0.118
32.750,-0.136
32.755,-0.031
32.760,0.014
32.765,-0.029
32.770,0.034
32.775,0.113
32.780,0.076
32.785,0.085
32.790,0.166
32.795,0.138
32.800,0.091
32.805,0.160
32.810,0.173
32.815,0.098
32.820,0.128
32.825,0.178
32.830,0.110
32.835,0.095
32.840,0.157
32.845,0.114
32.850,0.068
32.855,0.134
32.860,0.133
32.865,0.054
32.870,0.084
32.875,0.126
32.880,0.054
32.885,0.044
32.890,0.110
32.895,0.057
32.900,-0.004
32.905,0.067
32.910,0.078
32.915,-0.002
32.920,0.023
32.925,0.065
32.930,-0.011
32.935,-0.025
32.940,0.057
32.945,0.026
32.950,-0.031
32.955,0.030
32.960,0.036
32.965,-0.044
32.970,-0.027
32.975,0.031
32.980,-0.005
32.985,-0.016
32.990,0.039
32.995,0.001
33.000,-0.043
33.005,0.031
33.010,0.033
33.015,-0.050
33.020,-0.019
33.025,0.032
33.030,-0.031
33.035,-0.046
33.040,0.014
33.045,-0.028
33.050,-0.073
33.055,0.006
33.060,0.022
33.065,-0.050
33.070,-0.024
33.075,0.016
33.080,-0.047
33.085,-0.050
33.090,0.020
33.095,-0.028
33.100,-0.075
33.105,0.007
33.110,0.015
33.115,-0.070
33.120,-0.039
33.125,0.014
33.130,-0.055
33.135,-0.064
33.140,0.015
33.145,-0.026
33.150,-0.090
33.155,-0.030
33.160,-0.010
33.165,-0.066
33.170,-0.037
33.175,0.017
33.180,-0.035
33.185,-0.062
33.190,-0.010
33.195,-0.037
33.200,-0.078
33.205,-0.013
33.210,-0.004
33.215,-0.081
33.220,-0.052
33.225,0.016
33.230,-0.030
33.235,-0.053
33.240,0.007
33.245,-0.032
33.250,-0.077
33.255,0.008
33.260,0.011
33.265,-0.076
33.270,-0.025
33.275,0.038
33.280,-0.051
33.285,-0.076
33.290,0.006
33.295,-0.011
33.300,-0.057
33.305,-0.004
33.310,0.007
33.315,-0.060
33.320,-0.034
33.325,0.028
33.330,-0.032
33.335,-0.062
33.340,0.015
33.345,0.000
33.350,-0.048
33.355,0.010
33.360,0.015
33.365,-0.068
33.370,-0.029
33.375,0.044
33.380,-0.031
33.385,-0.060
33.390,0.014
33.395,-0.021
33.400,-0.077
33.405,-0.009
33.410,0.011
33.415,-0.065
33.420,-0.037
33.425,0.034
33.430,-0.009
33.435,-0.022
33.440,0.037
33.445,-0.002
33.450,-0.067
33.455,-0.011
33.460,0.010
33.465,-0.053
33.470,-0.012
33.475,0.034
33.480,-0.037
33.485,-0.039
33.490,0.031
33.495,-0.015
33.500,-0.063
33.505,0.017
33.510,0.033
33.515,-0.033
33.520,0.002
33.525,0.041
33.530,-0.036
33.535,-0.056
33.540,0.014
33.545,-0.001
33.550,-0.097
33.555,-0.209
33.560,-0.479
33.565,-0.960
33.570,-1.411
33.575,-1.635
33.580,-1.483
33.585,-0.835
33.590,0.093
33.595,0.676
33.600,0.693
33.605,0.611
33.610,0.529
33.615,0.390
33.620,0.396
33.625,0.438
33.630,0.351
33.635,0.319
33.640,0.381
33.645,0.336
33.650,0.271
33.655,0.324
33.660,0.318
33.665,0.231
33.670,0.248
33.675,0.280
33.680,0.202
33.685,0.183
33.690,0.247
33.695,0.197
33.700,0.133
33.705,0.200
33.710,0.205
33.715,0.119
33.720,0.142
33.725,0.177
33.730,0.090
33.735,0.058
33.740,0.118
33.745,0.077
33.750,0.018
33.755,0.077
33.760,0.072
33.765,-0.023
33.770,-0.001
33.775,0.042
33.780,-0.048
33.785,-0.089
33.790,-0.031
33.795,-0.075
33.800,-0.157
33.805,-0.123
33.810,-0.122
33.815,-0.208
33.820,-0.186
33.825,-0.138
33.830,-0.219
33.835,-0.244
33.840,-0.167
33.845,-0.193
33.850,-0.242
33.855,-0.168
33.860,-0.130
33.865,-0.176
33.870,-0.121
33.875,-0.034
33.880,-0.061
33.885,-0.044
33.890,0.061
33.895,0.068
33.900,0.038
33.905,0.122
33.910,0.156
33.915,0.091
33.920,0.141
33.925,0.217
33.930,0.157
33.935,0.143
33.940,0.224
33.945,0.203
33.950,0.139
33.955,0.191
33.960,0.208
33.965,0.128
33.970,0.142
33.975,0.188
33.980,0.114
33.985,0.080
33.990,0.131
33.995,0.096
34.000,0.033
34.005,0.070
34.010,0.074
34.015,-0.005
34.020,0.012
34.025,0.061
34.030,-0.012
34.035,-0.040
34.040,0.033
34.045,0.006
34.050,-0.054
34.055,0.003
34.060,0.016
34.065,-0.059
34.070,-0.029
34.075,0.036
34.080,-0.022
34.085,-0.045
34.090,0.032
34.095,0.011
34.100,-0.054
34.105,0.004
34.110,0.030
34.115,-0.041
34.120,-0.010
34.125,0.053
34.130,-0.012
34.135,-0.036
34.140,0.040
34.145,0.023
34.150,-0.032
34.155,0.026
34.160,0.042
34.165,-0.038
34.170,-0.017
34.175,0.038
34.180,-0.020
34.185,-0.035
34.190,0.037
34.195,0.009
34.200,-0.049
34.205,0.011
34.210,0.027
34.215,-0.052
34.220,-0.025
34.225,0.038
34.230,-0.025
34.235,-0.049
34.240,0.019
34.245,-0.008
34.250,-0.061
34.255,0.002
34.260,0.022
34.265,-0.053
34.270,-0.029
34.275,0.028
34.280,-0.038
34.285,-0.065
34.290,0.010
34.295,-0.011
34.300,-0.071
34.305,-0.013
34.310,0.008
34.315,-0.063
34.320,-0.036
34.325,0.025
34.330,-0.037
34.335,-0.061
34.340,0.014
34.345,-0.012
34.350,-0.077
34.355,-0.015
34.360,0.010
34.365,-0.066
34.370,-0.041
34.375,0.020
34.380,-0.043
34.385,-0.066
34.390,0.008
34.395,-0.013
34.400,-0.074
34.405,-0.017
34.410,0.009
34.415,-0.060
34.420,-0.037
34.425,0.020
34.430,-0.042
34.435,-0.066
34.440,0.006
34.445,-0.016
34.450,-0.080
34.455,-0.037
34.460,-0.031
34.465,-0.099
34.470,-0.103
34.475,-0.170
34.480,-0.445
34.485,-0.826
34.490,-1.243
34.495,-1.625
34.500,-1.605
34.505,-0.987
34.510,-0.156
34.515,0.440
34.520,0.666
34.525,0.624
34.530,0.458
34.535,0.372
34.540,0.427
34.545,0.392
34.550,0.311
34.555,0.358
34.560,0.366
34.565,0.276
34.570,0.282
34.575,0.328
34.580,0.259
34.585,0.222
34.590,0.281
34.595,0.244
34.600,0.167
34.605,0.217
34.610,0.231
34.615,0.144
34.620,0.153
34.625,0.202
34.630,0.131
34.635,0.097
34.640,0.161
34.645,0.128
34.650,0.057
34.655,0.106
34.660,0.121
34.665,0.037
34.670,0.044
34.675,0.091
34.680,0.020
34.685,-0.019
34.690,0.039
34.695,0.002
34.700,-0.078
34.705,-0.038
34.710,-0.030
34.715,-0.125
34.720,-0.126
34.725,-0.083
34.730,-0.160
34.735,-0.203
34.740,-0.146
34.745,-0.180
34.750,-0.246
34.755,-0.189
34.760,-0.164
34.765,-0.232
34.770,-0.201
34.775,-0.126
34.780,-0.167
34.785,-0.169
34.790,-0.063
34.795,-0.051
34.800,-0.085
34.805,0.009
34.810,0.068
34.815,0.015
34.820,0.057
34.825,0.141
34.830,0.097
34.835,0.082
34.840,0.170
34.845,0.159
34.850,0.097
34.855,0.154
34.860,0.184
34.865,0.108
34.870,0.120
34.875,0.178
34.880,0.113
34.885,0.078
34.890,0.149
34.895,0.125
34.900,0.055
34.905,0.105
34.910,0.127
34.915,0.047
34.920,0.057
34.925,0.112
34.930,0.048
34.935,0.012
34.940,0.079
34.945,0.055
34.950,-0.012
34.955,0.037
34.960,0.055
34.965,-0.029
34.970,-0.015
34.975,0.048
34.980,-0.011
34.985,-0.042
34.990,0.031
34.995,0.013
35.000,-0.052
35.005,0.005
35.010,0.034
35.015,-0.040
35.020,-0.022
35.025,0.043
35.030,-0.012
35.035,-0.041
35.040,0.031
35.045,0.012
35.050,-0.053
35.055,0.006
35.060,0.034
35.065,-0.044
35.070,-0.029
35.075,0.035
35.080,-0.020
35.085,-0.048
35.090,0.025
35.095,0.006
35.100,-0.061
35.105,-0.007
35.110,0.021
35.115,-0.054
35.120,-0.036
35.125,0.027
35.130,-0.028
35.135,-0.059
35.140,0.012
35.145,-0.004
35.150,-0.068
35.155,-0.013
35.160,0.015
35.165,-0.062
35.170,-0.044
35.175,0.023
35.180,-0.036
35.185,-0.067
35.190,0.011
35.195,-0.001
35.200,-0.066
35.205,-0.012
35.210,0.015
35.215,-0.063
35.220,-0.046
35.225,0.022
35.230,-0.035
35.235,-0.068
35.240,0.006
35.245,-0.009
35.250,-0.076
35.255,-0.022
35.260,0.009
35.265,-0.065
35.270,-0.047
35.275,0.014
35.280,-0.049
35.285,-0.095
35.290,-0.045
35.295,-0.065
35.300,-0.155
35.305,-0.215
35.310,-0.379
35.315,-0.789
35.320,-1.247
35.325,-1.523
35.330,-1.499
35.335,-1.006
35.340,-0.208
35.345,0.391
35.350,0.571
35.355,0.573
35.360,0.501
35.365,0.364
35.370,0.365
35.375,0.424
35.380,0.348
35.385,0.305
35.390,0.371
35.395,0.340
35.400,0.253
35.405,0.289
35.410,0.310
35.415,0.228
35.420,0.230
35.425,0.275
35.430,0.204
35.435,0.166
35.440,0.234
35.445,0.208
35.450,0.130
35.455,0.174
35.460,0.193
35.465,0.104
35.470,0.110
35.475,0.170
35.480,0.104
35.485,0.063
35.490,0.121
35.495,0.085
35.500,0.009
35.505,0.052
35.510,0.066
35.515,-0.025
35.520,-0.027
35.525,0.019
35.530,-0.054
35.535,-0.102
35.540,-0.040
35.545,-0.067
35.550,-0.162
35.555,-0.143
35.560,-0.124
35.565,-0.211
35.570,-0.223
35.575,-0.168
35.580,-0.223
35.585,-0.260
35.590,-0.196
35.595,-0.208
35.600,-0.255
35.605,-0.177
35.610,-0.114
35.615,-0.163
35.620,-0.131
35.625,-0.035
35.630,-0.045
35.635,-0.037
35.640,0.073
35.645,0.096
35.650,0.050
35.655,0.119
35.660,0.169
35.665,0.100
35.670,0.103
35.675,0.172
35.680,0.138
35.685,0.105
35.690,0.169
35.695,0.148
35.700,0.076
35.705,0.136
35.710,0.179
35.715,0.099
35.720,0.093
35.725,0.156
35.730,0.105
35.735,0.063
35.740,0.127
35.745,0.113
35.750,0.045
35.755,0.085
35.760,0.108
35.765,0.034
35.770,0.025
35.775,0.072
35.780,0.037
35.785,0.006
35.790,0.071
35.795,0.064
35.800,-0.015
35.805,0.024
35.810,0.056
35.815,-0.037
35.820,-0.036
35.825,0.054
35.830,0.004
35.835,-0.044
35.840,0.033
35.845,0.025
35.850,-0.045
35.855,0.007
35.860,0.044
35.865,-0.029
35.870,-0.019
35.875,0.036
35.880,-0.024
35.885,-0.042
35.890,0.038
35.895,0.013
35.900,-0.060
35.905,-0.009
35.910,0.024
35.915,-0.049
35.920,-0.038
35.925,0.032
35.930,-0.018
35.935,-0.053
35.940,0.012
35.945,0.005
35.950,-0.057
35.955,-0.016
35.960,0.018
35.965,-0.063
35.970,-0.059
35.975,0.014
35.980,-0.037
35.985,-0.067
35.990,0.012
35.995,0.000
36.000,-0.077
36.005,-0.032
36.010,0.009
36.015,-0.068
36.020,-0.067
36.025,0.009
36.030,-0.038
36.035,-0.076
36.040,-0.001
36.045,-0.016
36.050,-0.084
36.055,-0.022
36.060,0.013
36.065,-0.072
36.070,-0.072
36.075,-0.005
36.080,-0.042
36.085,-0.061
36.090,0.015
36.095,0.002
36.100,-0.068
36.105,-0.020
36.110,0.014
36.115,-0.065
36.120,-0.062
36.125,0.005
36.130,-0.044
36.135,-0.069
36.140,0.017
36.145,0.008
36.150,-0.065
36.155,-0.017
36.160,0.022
36.165,-0.051
36.170,-0.047
36.175,0.019
36.180,-0.026
36.185,-0.064
36.190,0.003
36.195,0.007
36.200,-0.052
36.205,-0.014
36.210,0.019
36.215,-0.050
36.220,-0.046
36.225,0.025
36.230,-0.014
36.235,-0.062
36.240,-0.001
36.245,-0.004
36.250,-0.071
36.255,-0.011
36.260,0.030
36.265,-0.046
36.270,-0.031
36.275,0.033
36.280,-0.028
36.285,-0.071
36.290,0.011
36.295,0.019
36.300,-0.055
36.305,-0.018
36.310,0.030
36.315,-0.036
36.320,-0.034
36.325,0.035
36.330,-0.012
36.335,-0.056
36.340,0.012
36.345,0.013
36.350,-0.048
36.355,0.001
36.360,0.041
36.365,-0.027
36.370,-0.029
36.375,0.026
36.380,-0.023
36.385,-0.050
36.390,0.027
36.395,0.013
36.400,-0.072
36.405,-0.025
36.410,0.031
36.415,-0.103
36.420,-0.285
36.425,-0.505
36.430,-0.964
36.435,-1.464
36.440,-1.611
36.445,-1.330
36.450,-0.699
36.455,0.171
36.460,0.728
36.465,0.674
36.470,0.532
36.475,0.505
36.480,0.404
36.485,0.352
36.490,0.415
36.495,0.391
36.500,0.307
36.505,0.339
36.510,0.364
36.515,0.279
36.520,0.270
36.525,0.324
36.530,0.263
36.535,0.206
36.540,0.262
36.545,0.249
36.550,0.171
36.555,0.204
36.560,0.233
36.565,0.153
36.570,0.139
36.575,0.190
36.580,0.137
36.585,0.090
36.590,0.150
36.595,0.138
36.600,0.056
36.605,0.087
36.610,0.118
36.615,0.038
36.620,0.029
36.625,0.086
36.630,0.027
36.635,-0.030
36.640,0.024
36.645,0.002
36.650,-0.092
36.655,-0.068
36.660,-0.044
36.665,-0.135
36.670,-0.156
36.675,-0.105
36.680,-0.166
36.685,-0.224
36.690,-0.165
36.695,-0.170
36.700,-0.238
36.705,-0.190
36.710,-0.145
36.715,-0.209
36.720,-0.191
36.725,-0.103
36.730,-0.130
36.735,-0.150
36.740,-0.050
36.745,-0.019
36.750,-0.059
36.755,0.016
36.760,0.088
36.765,0.044
36.770,0.067
36.775,0.157
36.780,0.129
36.785,0.097
36.790,0.177
36.795,0.181
36.800,0.113
36.805,0.161
36.810,0.206
36.815,0.136
36.820,0.133
36.825,0.197
36.830,0.145
36.835,0.094
36.840,0.157
36.845,0.148
36.850,0.065
36.855,0.094
36.860,0.129
36.865,0.049
36.870,0.037
36.875,0.095
36.880,0.039
36.885,-0.018
36.890,0.042
36.895,0.036
36.900,-0.041
36.905,-0.006
36.910,0.035
36.915,-0.036
36.920,-0.040
36.925,0.030
36.930,-0.011
36.935,-0.058
36.940,0.007
36.945,0.010
36.950,-0.056
36.955,-0.014
36.960,0.030
36.965,-0.037
36.970,-0.036
36.975,0.037
36.980,-0.003
36.985,-0.046
36.990,0.026
36.995,0.030
37.000,-0.041
37.005,0.001
37.010,0.048
37.015,-0.021
37.020,-0.030
37.025,0.035
37.030,-0.003
37.035,-0.047
37.040,0.020
37.045,0.021
37.050,-0.055
37.055,-0.011
37.060,0.037
37.065,-0.036
37.070,-0.039
37.075,0.036
37.080,-0.006
37.085,-0.054
37.090,0.015
37.095,0.018
37.100,-0.059
37.105,-0.023
37.110,0.022
37.115,-0.046
37.120,-0.050
37.125,0.020
37.130,-0.023
37.135,-0.071
37.140,-0.002
37.145,0.000
37.150,-0.070
37.155,-0.029
37.160,0.018
37.165,-0.053
37.170,-0.055
37.175,0.019
37.180,-0.025
37.185,-0.073
37.190,-0.001
37.195,0.003
37.200,-0.070
37.205,-0.029
37.210,0.017
37.215,-0.053
37.220,-0.056
37.225,0.016
37.230,-0.025
37.235,-0.073
37.240,-0.003
37.245,0.002
37.250,-0.071
37.255,-0.032
37.260,0.017
37.265,-0.050
37.270,-0.055
37.275,0.017
37.280,-0.023
37.285,-0.072
37.290,-0.004
37.295,0.001
37.300,-0.070
37.305,-0.033
37.310,0.001
37.315,-0.089
37.320,-0.100
37.325,-0.037
37.330,-0.163
37.335,-0.380
37.340,-0.595
37.345,-1.035
37.350,-1.541
37.355,-1.592
37.360,-1.145
37.365,-0.509
37.370,0.190
37.375,0.643
37.380,0.601
37.385,0.443
37.390,0.441
37.395,0.417
37.400,0.337
37.405,0.358
37.410,0.390
37.415,0.308
37.420,0.288
37.425,0.347
37.430,0.295
37.435,0.234
37.440,0.289
37.445,0.278
37.450,0.191
37.455,0.218
37.460,0.254
37.465,0.171
37.470,0.153
37.475,0.212
37.480,0.162
37.485,0.105
37.490,0.162
37.495,0.157
37.500,0.077
37.505,0.107
37.510,0.145
37.515,0.064
37.520,0.048
37.525,0.108
37.530,0.055
37.535,-0.004
37.540,0.051
37.545,0.040
37.550,-0.047
37.555,-0.025
37.560,0.005
37.565,-0.082
37.570,-0.109
37.575,-0.056
37.580,-0.112
37.585,-0.180
37.590,-0.132
37.595,-0.143
37.600,-0.230
37.605,-0.201
37.610,-0.153
37.615,-0.221
37.620,-0.227
37.625,-0.147
37.630,-0.171
37.635,-0.202
37.640,-0.113
37.645,-0.082
37.650,-0.129
37.655,-0.056
37.660,0.033
37.665,-0.008
37.670,0.006
37.675,0.105
37.680,0.092
37.685,0.060
37.690,0.141
37.695,0.162
37.700,0.098
37.705,0.136
37.710,0.184
37.715,0.120
37.720,0.115
37.725,0.184
37.730,0.137
37.735,0.077
37.740,0.140
37.745,0.144
37.750,0.070
37.755,0.103
37.760,0.143
37.765,0.071
37.770,0.060
37.775,0.126
37.780,0.081
37.785,0.023
37.790,0.085
37.795,0.089
37.800,0.007
37.805,0.037
37.810,0.081
37.815,-0.001
37.820,-0.015
37.825,0.057
37.830,0.017
37.835,-0.034
37.840,0.024
37.845,0.024
37.850,-0.040
37.855,0.009
37.860,0.053
37.865,-0.023
37.870,-0.029
37.875,0.049
37.880,0.012
37.885,-0.042
37.890,0.025
37.895,0.035
37.900,-0.040
37.905,-0.004
37.910,0.048
37.915,-0.020
37.920,-0.032
37.925,0.038
37.930,0.002
37.935,-0.050
37.940,0.020
37.945,0.030
37.950,-0.050
37.955,-0.021
37.960,0.032
37.965,-0.029
37.970,-0.042
37.975,0.029
37.980,0.001
37.985,-0.054
37.990,-0.006
37.995,-0.005
38.000,-0.064
38.005,-0.019
38.010,0.023
38.015,-0.050
38.020,-0.062
38.025,0.017
38.030,-0.009
38.035,-0.066
38.040,0.000
38.045,0.022
38.050,-0.049
38.055,-0.021
38.060,0.021
38.065,-0.053
38.070,-0.068
38.075,0.004
38.080,-0.026
38.085,-0.076
38.090,-0.017
38.095,-0.010
38.100,-0.072
38.105,-0.033
38.110,0.002
38.115,-0.065
38.120,-0.060
38.125,0.009
38.130,-0.031
38.135,-0.090
38.140,-0.043
38.145,-0.041
38.150,-0.134
38.155,-0.209
38.160,-0.352
38.165,-0.704
38.170,-1.137
38.175,-1.492
38.180,-1.600
38.185,-1.206
38.190,-0.404
38.195,0.313
38.200,0.596
38.205,0.611
38.210,0.536
38.215,0.378
38.220,0.340
38.225,0.402
38.230,0.339
38.235,0.278
38.240,0.351
38.245,0.350
38.250,0.255
38.255,0.274
38.260,0.314
38.265,0.226
38.270,0.195
38.275,0.263
38.280,0.219
38.285,0.154
38.290,0.217
38.295,0.215
38.300,0.128
38.305,0.153
38.310,0.180
38.315,0.095
38.320,0.088
38.325,0.168
38.330,0.123
38.335,0.048
38.340,0.098
38.345,0.095
38.350,0.009
38.355,0.037
38.360,0.070
38.365,-0.023
38.370,-0.050
38.375,0.009
38.380,-0.041
38.385,-0.106
38.390,-0.061
38.395,-0.069
38.400,-0.162
38.405,-0.157
38.410,-0.130
38.415,-0.215
38.420,-0.243
38.425,-0.179
38.430,-0.219
38.435,-0.277
38.440,-0.207
38.445,-0.182
38.450,-0.248
38.455,-0.205
38.460,-0.127
38.465,-0.158
38.470,-0.142
38.475,-0.039
38.480,-0.037
38.485,-0.049
38.490,0.061
38.495,0.110
38.500,0.058
38.505,0.104
38.510,0.173
38.515,0.119
38.520,0.120
38.525,0.209
38.530,0.176
38.535,0.116
38.540,0.178
38.545,0.190
38.550,0.117
38.555,0.144
38.560,0.191
38.565,0.124
38.570,0.104
38.575,0.169
38.580,0.127
38.585,0.061
38.590,0.118
38.595,0.129
38.600,0.046
38.605,0.065
38.610,0.105
38.615,0.028
38.620,0.010
38.625,0.076
38.630,0.032
38.635,-0.026
38.640,0.038
38.645,0.053
38.650,-0.020
38.655,0.011
38.660,0.065
38.665,-0.011
38.670,-0.035
38.675,0.044
38.680,0.017
38.685,-0.044
38.690,0.024
38.695,0.045
38.700,-0.028
38.705,0.002
38.710,0.058
38.715,-0.010
38.720,-0.028
38.725,0.045
38.730,0.014
38.735,-0.042
38.740,0.018
38.745,0.030
38.750,-0.046
38.755,-0.014
38.760,0.045
38.765,-0.024
38.770,-0.039
38.775,0.035
38.780,-0.001
38.785,-0.052
38.790,0.017
38.795,0.025
38.800,-0.058
38.805,-0.032
38.810,0.028
38.815,-0.034
38.820,-0.056
38.825,0.014
38.830,-0.015
38.835,-0.070
38.840,-0.006
38.845,0.008
38.850,-0.068
38.855,-0.038
38.860,0.018
38.865,-0.052
38.870,-0.073
38.875,0.010
38.880,-0.012
38.885,-0.072
38.890,-0.008
38.895,0.011
38.900,-0.067
38.905,-0.044
38.910,0.007
38.915,-0.058
38.920,-0.070
38.925,0.008
38.930,-0.020
38.935,-0.076
38.940,-0.013
38.945,0.006
38.950,-0.064
38.955,-0.035
38.960,0.020
38.965,-0.045
38.970,-0.060
38.975,0.014
38.980,-0.016
38.985,-0.074
38.990,-0.014
38.995,0.004
39.000,-0.067
39.005,-0.036
39.010,0.025
39.015,-0.036
39.020,-0.058
39.025,0.014
39.030,-0.010
39.035,-0.062
39.040,-0.001
39.045,0.014
39.050,-0.061
39.055,-0.033
39.060,0.022
39.065,-0.040
39.070,-0.054
39.075,0.023
39.080,-0.007
39.085,-0.064
39.090,0.000
39.095,0.012
39.100,-0.067
39.105,-0.038
39.110,0.019
39.115,-0.043
39.120,-0.057
39.125,0.022
39.130,-0.003
39.135,-0.059
39.140,0.005
39.145,0.022
39.150,-0.054
39.155,-0.029
39.160,0.026
39.165,-0.036
39.170,-0.055
39.175,0.020
39.180,-0.003
39.185,-0.062
39.190,0.001
39.195,0.024
39.200,-0.049
39.205,-0.022
39.210,0.036
39.215,-0.022
39.220,-0.041
39.225,0.030
39.230,0.007
39.235,-0.050
39.240,0.008
39.245,0.020
39.250,-0.071
39.255,-0.059
39.260,0.002
39.265,-0.092
39.270,-0.243
39.275,-0.389
39.280,-0.765
39.285,-1.282
39.290,-1.523
39.295,-1.376
39.300,-0.910
39.305,-0.142
39.310,0.535
39.315,0.655
39.320,0.537
39.325,0.513
39.330,0.428
39.335,0.349
39.340,0.404
39.345,0.408
39.350,0.316
39.355,0.326
39.360,0.371
39.365,0.296
39.370,0.261
39.375,0.322
39.380,0.282
39.385,0.210
39.390,0.260
39.395,0.265
39.400,0.175
39.405,0.192
39.410,0.241
39.415,0.165
39.420,0.133
39.425,0.198
39.430,0.160
39.435,0.090
39.440,0.140
39.445,0.149
39.450,0.064
39.455,0.078
39.460,0.125
39.465,0.052
39.470,0.019
39.475,0.079
39.480,0.041
39.485,-0.031
39.490,0.013
39.495,0.015
39.500,-0.078
39.505,-0.074
39.510,-0.036
39.515,-0.116
39.520,-0.158
39.525,-0.105
39.530,-0.147
39.535,-0.219
39.540,-0.171
39.545,-0.160
39.550,-0.239
39.555,-0.214
39.560,-0.151
39.565,-0.205
39.570,-0.215
39.575,-0.126
39.580,-0.134
39.585,-0.172
39.590,-0.086
39.595,-0.034
39.600,-0.075
39.605,-0.020
39.610,0.069
39.615,0.036
39.620,0.037
39.625,0.132
39.630,0.128
39.635,0.081
39.640,0.150
39.645,0.181
39.650,0.113
39.655,0.138
39.660,0.198
39.665,0.133
39.670,0.105
39.675,0.177
39.680,0.149
39.685,0.082
39.690,0.135
39.695,0.150
39.700,0.067
39.705,0.084
39.710,0.140
39.715,0.070
39.720,0.037
39.725,0.105
39.730,0.073
39.735,0.005
39.740,0.055
39.745,0.069
39.750,-0.009
39.755,0.007
39.760,0.061
39.765,-0.004
39.770,-0.030
39.775,0.046
39.780,0.023
39.785,-0.041
39.790,0.018
39.795,0.043
39.800,-0.033
39.805,-0.013
39.810,0.045
39.815,-0.020
39.820,-0.043
39.825,0.036
39.830,0.014
39.835,-0.047
39.840,0.016
39.845,0.043
39.850,-0.032
39.855,-0.010
39.860,0.051
39.865,-0.006
39.870,-0.035
39.875,0.032
39.880,0.008
39.885,-0.053
39.890,0.007
39.895,0.031
39.900,-0.047
39.905,-0.024
39.910,0.036
39.915,-0.028
39.920,-0.053
39.925,0.025
39.930,0.004
39.935,-0.058
39.940,0.001
39.945,0.027
39.950,-0.051
39.955,-0.038
39.960,0.020
39.965,-0.034
39.970,-0.061
39.975,0.012
39.980,-0.005
39.985,-0.070
39.990,-0.023
39.995,0.000
40.000,-0.063
40.005,-0.040
40.010,0.018
40.015,-0.043
40.020,-0.068
40.025,0.013
40.030,-0.003
40.035,-0.068
40.040,-0.013
40.045,0.018
40.050,-0.051
40.055,-0.038
40.060,0.015
40.065,-0.048
40.070,-0.073
40.075,0.014
40.080,0.001
40.085,-0.071
40.090,-0.018
40.095,0.008
40.100,-0.066
40.105,-0.036
40.110,0.031
40.115,-0.028
40.120,-0.057
40.125,0.004
40.130,-0.022
40.135,-0.075
40.140,-0.013
40.145,0.011
40.150,-0.064
40.155,-0.053
40.160,-0.011
40.165,-0.080
40.170,-0.108
40.175,-0.103
40.180,-0.289
40.185,-0.610
40.190,-0.945
40.195,-1.356
40.200,-1.620
40.205,-1.297
40.210,-0.557
40.215,0.114
40.220,0.541
40.225,0.665
40.230,0.534
40.235,0.385
40.240,0.393
40.245,0.408
40.250,0.318
40.255,0.312
40.260,0.357
40.265,0.293
40.270,0.260
40.275,0.316
40.280,0.282
40.285,0.214
40.290,0.256
40.295,0.265
40.300,0.177
40.305,0.179
40.310,0.228
40.315,0.167
40.320,0.135
40.325,0.190
40.330,0.154
40.335,0.089
40.340,0.144
40.345,0.154
40.350,0.062
40.355,0.067
40.360,0.119
40.365,0.055
40.370,0.019
40.375,0.084
40.380,0.051
40.385,-0.028
40.390,0.014
40.395,0.024
40.400,-0.071
40.405,-0.070
40.410,-0.019
40.415,-0.092
40.420,-0.145
40.425,-0.097
40.430,-0.131
40.435,-0.203
40.440,-0.166
40.445,-0.163
40.450,-0.247
40.455,-0.225
40.460,-0.164
40.465,-0.226
40.470,-0.250
40.475,-0.167
40.480,-0.164
40.485,-0.192
40.490,-0.108
40.495,-0.063
40.500,-0.113
40.505,-0.056
40.510,0.045
40.515,0.022
40.520,0.042
40.525,0.141
40.530,0.130
40.535,0.083
40.540,0.156
40.545,0.186
40.550,0.104
40.555,0.124
40.560,0.197
40.565,0.140
40.570,0.110
40.575,0.199
40.580,0.188
40.585,0.098
40.590,0.139
40.595,0.176
40.600,0.087
40.605,0.083
40.610,0.141
40.615,0.078
40.620,0.049
40.625,0.124
40.630,0.103
40.635,0.030
40.640,0.068
40.645,0.094
40.650,0.011
40.655,-0.002
40.660,0.064
40.665,0.021
40.670,-0.026
40.675,0.032
40.680,0.022
40.685,-0.034
40.690,0.027
40.695,0.065
40.700,-0.016
40.705,-0.021
40.710,0.040
40.715,0.000
40.720,-0.023
40.725,0.042
40.730,0.019
40.735,-0.047
40.740,0.009
40.745,0.033
40.750,-0.049
40.755,-0.014
40.760,0.061
40.765,-0.018
40.770,-0.047
40.775,0.037
40.780,0.012
40.785,-0.057
40.790,-0.005
40.795,0.025
40.800,-0.048
40.805,-0.042
40.810,0.019
40.815,-0.031
40.820,-0.061
40.825,0.020
40.830,0.010
40.835,-0.057
40.840,-0.007
40.845,0.019
40.850,-0.057
40.855,-0.048
40.860,0.018
40.865,-0.029
40.870,-0.065
40.875,0.003
40.880,-0.008
40.885,-0.078
40.890,-0.026
40.895,0.014
40.900,-0.059
40.905,-0.052
40.910,0.010
40.915,-0.041
40.920,-0.065
40.925,0.008
40.930,-0.010
40.935,-0.077
40.940,-0.024
40.945,0.005
40.950,-0.071
40.955,-0.059
40.960,0.008
40.965,-0.049
40.970,-0.093
40.975,-0.031
40.980,-0.031
40.985,-0.094
40.990,-0.148
40.995,-0.334
41.000,-0.727
41.005,-1.175
41.010,-1.584
41.015,-1.747
41.020,-1.309
41.025,-0.408
41.030,0.367
41.035,0.655
41.040,0.650
41.045,0.547
41.050,0.384
41.055,0.368
41.060,0.420
41.065,0.346
41.070,0.308
41.075,0.368
41.080,0.331
41.085,0.252
41.090,0.302
41.095,0.325
41.100,0.233
41.105,0.229
41.110,0.277
41.115,0.205
41.120,0.166
41.125,0.231
41.130,0.201
41.135,0.128
41.140,0.174
41.145,0.192
41.150,0.109
41.155,0.118
41.160,0.174
41.165,0.103
41.170,0.052
41.175,0.113
41.180,0.089
41.185,0.009
41.190,0.049
41.195,0.068
41.200,-0.020
41.205,-0.020
41.210,0.028
41.215,-0.048
41.220,-0.101
41.225,-0.041
41.230,-0.072
41.235,-0.166
41.240,-0.143
41.245,-0.131
41.250,-0.222
41.255,-0.228
41.260,-0.169
41.265,-0.221
41.270,-0.257
41.275,-0.183
41.280,-0.188
41.285,-0.240
41.290,-0.167
41.295,-0.115
41.300,-0.172
41.305,-0.136
41.310,-0.034
41.315,-0.050
41.320,-0.048
41.325,0.063
41.330,0.083
41.335,0.044
41.340,0.116
41.345,0.163
41.350,0.108
41.355,0.136
41.360,0.205
41.365,0.156
41.370,0.128
41.375,0.203
41.380,0.187
41.385,0.109
41.390,0.151
41.395,0.179
41.400,0.099
41.405,0.107
41.410,0.162
41.415,0.093
41.420,0.048
41.425,0.116
41.430,0.095
41.435,0.016
41.440,0.059
41.445,0.085
41.450,0.003
41.455,0.008
41.460,0.068
41.465,0.007
41.470,-0.033
41.475,0.037
41.480,0.022
41.485,-0.049
41.490,0.004
41.495,0.042
41.500,-0.031
41.505,-0.021
41.510,0.047
41.515,-0.005
41.520,-0.041
41.525,0.030
41.530,0.020
41.535,-0.042
41.540,0.014
41.545,0.048
41.550,-0.024
41.555,-0.015
41.560,0.049
41.565,0.000
41.570,-0.035
41.575,0.037
41.580,0.025
41.585,-0.047
41.590,0.003
41.595,0.040
41.600,-0.035
41.605,-0.026
41.610,0.044
41.615,-0.007
41.620,-0.043
41.625,0.029
41.630,0.018
41.635,-0.052
41.640,-0.004
41.645,0.029
41.650,-0.046
41.655,-0.037
41.660,0.028
41.665,-0.025
41.670,-0.058
41.675,0.013
41.680,-0.002
41.685,-0.068
41.690,-0.015
41.695,0.016
41.700,-0.060
41.705,-0.048
41.710,0.021
41.715,-0.034
41.720,-0.071
41.725,0.002
41.730,-0.008
41.735,-0.071
41.740,-0.020
41.745,0.015
41.750,-0.058
41.755,-0.052
41.760,0.011
41.765,-0.038
41.770,-0.072
41.775,0.000
41.780,-0.006
41.785,-0.069
41.790,-0.019
41.795,0.015
41.800,-0.059
41.805,-0.048
41.810,0.022
41.815,-0.028
41.820,-0.064
41.825,0.008
41.830,-0.001
41.835,-0.069
41.840,-0.017
41.845,0.020
41.850,-0.053
41.855,-0.043
41.860,0.024
41.865,-0.023
41.870,-0.058
41.875,0.014
41.880,0.003
41.885,-0.065
41.890,-0.013
41.895,0.023
41.900,-0.051
41.905,-0.040
41.910,0.029
41.915,-0.021
41.920,-0.056
41.925,0.019
41.930,0.006
41.935,-0.067
41.940,-0.014
41.945,0.023
41.950,-0.055
41.955,-0.049
41.960,0.022
41.965,-0.025
41.970,-0.064
41.975,0.012
41.980,0.007
41.985,-0.060
41.990,-0.006
41.995,0.032
42.000,-0.042
42.005,-0.033
42.010,0.032
42.015,-0.023
42.020,-0.059
42.025,0.016
42.030,0.010
42.035,-0.059
42.040,-0.011
42.045,0.029
42.050,-0.041
42.055,-0.034
42.060,0.036
42.065,-0.013
42.070,-0.050
42.075,0.025
42.080,0.019
42.085,-0.048
42.090,-0.006
42.095,0.006
42.100,-0.090
42.105,-0.085
42.110,-0.056
42.115,-0.234
42.120,-0.483
42.125,-0.765
42.130,-1.227
42.135,-1.563
42.140,-1.358
42.145,-0.789
42.150,-0.154
42.155,0.433
42.160,0.675
42.165,0.547
42.170,0.427
42.175,0.449
42.180,0.427
42.185,0.348
42.190,0.375
42.195,0.398
42.200,0.313
42.205,0.306
42.210,0.360
42.215,0.297
42.220,0.245
42.225,0.304
42.230,0.282
42.235,0.200
42.240,0.236
42.245,0.260
42.250,0.178
42.255,0.172
42.260,0.227
42.265,0.168
42.270,0.118
42.275,0.178
42.280,0.162
42.285,0.083
42.290,0.120
42.295,0.147
42.300,0.062
42.305,0.057
42.310,0.116
42.315,0.054
42.320,0.000
42.325,0.061
42.330,0.041
42.335,-0.042
42.340,-0.010
42.345,0.008
42.350,-0.086
42.355,-0.104
42.360,-0.056
42.365,-0.121
42.370,-0.179
42.375,-0.125
42.380,-0.153
42.385,-0.238
42.390,-0.194
42.395,-0.159
42.400,-0.231
42.405,-0.219
42.410,-0.150
42.415,-0.196
42.420,-0.220
42.425,-0.123
42.430,-0.102
42.435,-0.145
42.440,-0.069
42.445,0.000
42.450,-0.039
42.455,0.000
42.460,0.098
42.465,0.075
42.470,0.052
42.475,0.137
42.480,0.148
42.485,0.091
42.490,0.142
42.495,0.186
42.500,0.122
42.505,0.128
42.510,0.188
42.515,0.133
42.520,0.095
42.525,0.168
42.530,0.156
42.535,0.079
42.540,0.124
42.545,0.160
42.550,0.077
42.555,0.073
42.560,0.136
42.565,0.085
42.570,0.039
42.575,0.100
42.580,0.085
42.585,0.007
42.590,0.046
42.595,0.081
42.600,0.010
42.605,0.006
42.610,0.067
42.615,0.018
42.620,-0.025
42.625,0.046
42.630,0.037
42.635,-0.041
42.640,0.007
42.645,0.054
42.650,-0.022
42.655,-0.017
42.660,0.057
42.665,0.003
42.670,-0.043
42.675,0.029
42.680,0.020
42.685,-0.049
42.690,0.004
42.695,0.045
42.700,-0.029
42.705,-0.024
42.710,0.049
42.715,0.001
42.720,-0.040
42.725,0.030
42.730,0.017
42.735,-0.059
42.740,-0.015
42.745,0.023
42.750,-0.047
42.755,-0.037
42.760,0.029
42.765,-0.025
42.770,-0.057
42.775,0.023
42.780,0.005
42.785,-0.075
42.790,-0.019
42.795,0.031
42.800,-0.040
42.805,-0.038
42.810,0.021
42.815,-0.040
42.820,-0.072
42.825,0.008
42.830,-0.007
42.835,-0.085
42.840,-0.034
42.845,0.014
42.850,-0.064
42.855,-0.067
42.860,0.016
42.865,-0.020
42.870,-0.073
42.875,-0.013
42.880,-0.016
42.885,-0.083
42.890,-0.030
42.895,0.012
42.900,-0.064
42.905,-0.062
42.910,0.016
42.915,-0.029
42.920,-0.082
42.925,-0.005
42.930,0.000
42.935,-0.081
42.940,-0.038
42.945,0.006
42.950,-0.070
42.955,-0.059
42.960,0.021
42.965,-0.026
42.970,-0.070
42.975,0.004
42.980,0.003
42.985,-0.076
42.990,-0.037
42.995,0.007
43.000,-0.070
43.005,-0.078
43.010,-0.009
43.015,-0.050
43.020,-0.088
43.025,-0.076
43.030,-0.246
43.035,-0.597
43.040,-0.970
43.045,-1.391
43.050,-1.695
43.055,-1.438
43.060,-0.687
43.065,0.072
43.070,0.555
43.075,0.690
43.080,0.566
43.085,0.396
43.090,0.382
43.095,0.414
43.100,0.347
43.105,0.337
43.110,0.380
43.115,0.313
43.120,0.250
43.125,0.306
43.130,0.292
43.135,0.200
43.140,0.238
43.145,0.286
43.150,0.196
43.155,0.165
43.160,0.227
43.165,0.192
43.170,0.150
43.175,0.202
43.180,0.175
43.185,0.089
43.190,0.122
43.195,0.148
43.200,0.065
43.205,0.055
43.210,0.115
43.215,0.071
43.220,0.024
43.225,0.075
43.230,0.062
43.235,-0.015
43.240,0.009
43.245,0.029
43.250,-0.069
43.255,-0.080
43.260,-0.007
43.265,-0.075
43.270,-0.147
43.275,-0.094
43.280,-0.123
43.285,-0.212
43.290,-0.183
43.295,-0.167
43.300,-0.247
43.305,-0.233
43.310,-0.166
43.315,-0.225
43.320,-0.262
43.325,-0.183
43.330,-0.168
43.335,-0.196
43.340,-0.115
43.345,-0.042
43.350,-0.084
43.355,-0.059
43.360,0.042
43.365,0.046
43.370,0.060
43.375,0.149
43.380,0.144
43.385,0.096
43.390,0.161
43.395,0.201
43.400,0.133
43.405,0.148
43.410,0.229
43.415,0.191
43.420,0.141
43.425,0.200
43.430,0.196
43.435,0.111
43.440,0.142
43.445,0.193
43.450,0.103
43.455,0.083
43.460,0.162
43.465,0.105
43.470,0.027
43.475,0.071
43.480,0.073
43.485,0.015
43.490,0.039
43.495,0.077
43.500,0.011
43.505,0.001
43.510,0.070
43.515,0.016
43.520,-0.039
43.525,0.020
43.530,0.016
43.535,-0.041
43.540,0.009
43.545,0.048
43.550,-0.029
43.555,-0.025
43.560,0.052
43.565,0.002
43.570,-0.048
43.575,0.021
43.580,0.028
43.585,-0.040
43.590,-0.005
43.595,0.050
43.600,-0.004
43.605,-0.015
43.610,0.049
43.615,0.012
43.620,-0.048
43.625,0.015
43.630,0.028
43.635,-0.049
43.640,-0.013
43.645,0.038
43.650,-0.025
43.655,-0.028
43.660,0.024
43.665,-0.018
43.670,-0.047
43.675,0.018
43.680,0.018
43.685,-0.058
43.690,-0.027
43.695,0.021
43.700,-0.047
43.705,-0.049
43.710,0.025
43.715,-0.011
43.720,-0.065
43.725,-0.020
43.730,-0.010
43.735,-0.051
43.740,-0.020
43.745,0.011
43.750,-0.042
43.755,-0.037
43.760,0.021
43.765,-0.030
43.770,-0.073
43.775,0.001
43.780,0.001
43.785,-0.082
43.790,-0.039
43.795,0.022
43.800,-0.053
43.805,-0.063
43.810,0.024
43.815,-0.012
43.820,-0.086
43.825,-0.043
43.830,-0.031
43.835,-0.082
43.840,-0.092
43.845,-0.215
43.850,-0.559
43.855,-0.978
43.860,-1.421
43.865,-1.768
43.870,-1.630
43.875,-0.924
43.880,-0.016
43.885,0.593
43.890,0.728
43.895,0.629
43.900,0.441
43.905,0.365
43.910,0.430
43.915,0.384
43.920,0.320
43.925,0.375
43.930,0.365
43.935,0.279
43.940,0.306
43.945,0.340
43.950,0.258
43.955,0.235
43.960,0.288
43.965,0.227
43.970,0.162
43.975,0.231
43.980,0.238
43.985,0.146
43.990,0.155
43.995,0.186
44.000,0.118
44.005,0.113
44.010,0.177
44.015,0.124
44.020,0.067
44.025,0.127
44.030,0.119
44.035,0.025
44.040,0.037
44.045,0.071
44.050,-0.005
44.055,-0.024
44.060,0.034
44.065,-0.020
44.070,-0.093
44.075,-0.049
44.080,-0.064
44.085,-0.159
44.090,-0.146
44.095,-0.129
44.100,-0.221
44.105,-0.236
44.110,-0.175
44.115,-0.224
44.120,-0.274
44.125,-0.207
44.130,-0.201
44.135,-0.266
44.140,-0.212
44.145,-0.144
44.150,-0.191
44.155,-0.175
44.160,-0.063
44.165,-0.052
44.170,-0.062
44.175,0.046
44.180,0.092
44.185,0.043
44.190,0.095
44.195,0.161
44.200,0.108
44.205,0.111
44.210,0.194
44.215,0.166
44.220,0.127
44.225,0.198
44.230,0.200
44.235,0.122
44.240,0.148
44.245,0.188
44.250,0.122
44.255,0.113
44.260,0.173
44.265,0.118
44.270,0.054
44.275,0.112
44.280,0.119
44.285,0.051
44.290,0.078
44.295,0.111
44.300,0.027
44.305,0.004
44.310,0.071
44.315,0.029
44.320,-0.036
44.325,0.020
44.330,0.029
44.335,-0.037
44.340,-0.002
44.345,0.046
44.350,-0.022
44.355,-0.041
44.360,0.026
44.365,0.013
44.370,-0.027
44.375,0.027
44.380,0.030
44.385,-0.044
44.390,0.005
44.395,0.066
44.400,-0.010
44.405,-0.023
44.410,0.049
44.415,0.009
44.420,-0.043
44.425,0.024
44.430,0.035
44.435,-0.038
44.440,-0.005
44.445,0.044
44.450,-0.024
44.455,-0.034
44.460,0.035
44.465,-0.001
44.470,-0.046
44.475,0.022
44.480,0.025
44.485,-0.052
44.490,-0.016
44.495,0.031
44.500,-0.046
44.505,-0.049
44.510,0.033
44.515,-0.006
44.520,-0.057
44.525,0.004
44.530,0.009
44.535,-0.062
44.540,-0.028
44.545,0.023
44.550,-0.042
44.555,-0.058
44.560,0.014
44.565,-0.019
44.570,-0.075
44.575,-0.008
44.580,0.001
44.585,-0.076
44.590,-0.031
44.595,0.025
44.600,-0.051
44.605,-0.064
44.610,0.007
44.615,-0.029
44.620,-0.075
44.625,-0.007
44.630,0.002
44.635,-0.064
44.640,-0.025
44.645,0.024
44.650,-0.046
44.655,-0.056
44.660,0.018
44.665,-0.019
44.670,-0.072
44.675,-0.003
44.680,0.006
44.685,-0.072
44.690,-0.035
44.695,0.019
44.700,-0.045
44.705,-0.051
44.710,0.025
44.715,-0.007
44.720,-0.059
44.725,0.008
44.730,0.019
44.735,-0.058
44.740,-0.026
44.745,0.024
44.750,-0.042
44.755,-0.048
44.760,0.025
44.765,-0.011
44.770,-0.062
44.775,0.003
44.780,0.010
44.785,-0.065
44.790,-0.029
44.795,0.027
44.800,-0.038
44.805,-0.056
44.810,0.012
44.815,-0.021
44.820,-0.074
44.825,-0.008
44.830,0.010
44.835,-0.056
44.840,-0.019
44.845,0.032
44.850,-0.035
44.855,-0.044
44.860,0.035
44.865,-0.002
44.870,-0.064
44.875,0.002
44.880,0.014
44.885,-0.059
44.890,-0.022
44.895,0.031
44.900,-0.037
44.905,-0.049
44.910,0.024
44.915,-0.005
44.920,-0.048
44.925,0.021
44.930,0.030
44.935,-0.047
44.940,-0.019
44.945,0.020
44.950,-0.069
44.955,-0.087
44.960,-0.042
44.965,-0.195
44.970,-0.455
44.975,-0.735
44.980,-1.194
44.985,-1.601
44.990,-1.498
44.995,-0.943
45.000,-0.260
45.005,0.394
45.010,0.720
45.015,0.610
45.020,0.450
45.025,0.456
45.030,0.446
45.035,0.361
45.040,0.373
45.045,0.411
45.050,0.333
45.055,0.305
45.060,0.361
45.065,0.313
45.070,0.251
45.075,0.304
45.080,0.299
45.085,0.208
45.090,0.229
45.095,0.270
45.100,0.190
45.105,0.167
45.110,0.228
45.115,0.181
45.120,0.119
45.125,0.176
45.130,0.176
45.135,0.090
45.140,0.110
45.145,0.149
45.150,0.076
45.155,0.055
45.160,0.113
45.165,0.063
45.170,-0.003
45.175,0.052
45.180,0.050
45.185,-0.040
45.190,-0.024
45.195,0.012
45.200,-0.073
45.205,-0.106
45.210,-0.055
45.215,-0.110
45.220,-0.186
45.225,-0.140
45.230,-0.145
45.235,-0.233
45.240,-0.211
45.245,-0.161
45.250,-0.228
45.255,-0.240
45.260,-0.161
45.265,-0.185
45.270,-0.226
45.275,-0.141
45.280,-0.104
45.285,-0.151
45.290,-0.089
45.295,-0.004
45.300,-0.036
