'Elapsed time','ECG'
'seconds','mV'
0.000,0.045
0.005,-0.013
0.010,0.081
0.015,-0.038
0.020,-0.065
0.025,0.107
0.030,-0.001
0.035,-0.104
0.040,0.057
0.045,0.051
0.050,-0.106
0.055,0.002
0.060,0.102
0.065,-0.057
0.070,-0.045
0.075,0.117
0.080,0.012
0.085,-0.086
0.090,0.072
0.095,0.059
0.100,-0.120
0.105,-0.033
0.110,0.051
0.115,-0.128
0.120,-0.139
0.125,0.022
0.130,-0.062
0.135,-0.144
0.140,0.032
0.145,0.060
0.150,-0.069
0.155,0.042
0.160,0.127
0.165,-0.039
0.170,-0.024
0.175,0.142
0.180,0.052
0.185,-0.031
0.190,0.121
0.195,0.104
0.200,-0.058
0.205,0.043
0.210,0.133
0.215,-0.035
0.220,-0.026
0.225,0.135
0.230,0.030
0.235,-0.065
0.240,0.092
0.245,0.080
0.250,-0.076
0.255,0.028
0.260,0.095
0.265,-0.120
0.270,-0.142
0.275,0.022
0.280,-0.099
0.285,-0.254
0.290,-0.154
0.295,-0.019
0.300,0.205
0.305,0.421
0.310,0.245
0.315,-0.087
0.320,-0.084
0.325,0.077
0.330,-0.018
0.335,-0.098
0.340,0.066
0.345,0.059
0.350,-0.090
0.355,0.020
0.360,0.095
0.365,-0.077
0.370,-0.056
0.375,0.102
0.380,-0.010
0.385,-0.099
0.390,0.064
0.395,0.053
0.400,-0.101
0.405,0.008
0.410,0.091
0.415,-0.081
0.420,-0.071
0.425,0.082
0.430,-0.031
0.435,-0.115
0.440,0.048
0.445,0.030
0.450,-0.119
0.455,-0.006
0.460,0.074
0.465,-0.094
0.470,-0.077
0.475,0.073
0.480,-0.041
0.485,-0.127
0.490,0.034
0.495,0.013
0.500,-0.148
0.505,-0.040
0.510,0.044
0.515,-0.123
0.520,-0.104
0.525,0.051
0.530,-0.064
0.535,-0.149
0.540,0.019
0.545,0.005
0.550,-0.153
0.555,-0.041
0.560,0.048
0.565,-0.112
0.570,-0.087
0.575,0.074
0.580,-0.033
0.585,-0.108
0.590,0.069
0.595,0.065
0.600,-0.079
0.605,0.040
0.610,0.133
0.615,-0.027
0.620,-0.007
0.625,0.147
0.630,0.031
0.635,-0.053
0.640,0.110
0.645,0.088
0.650,-0.066
0.655,0.049
0.660,0.129
0.665,-0.040
0.670,-0.019
0.675,0.133
0.680,0.014
0.685,-0.074
0.690,0.086
0.695,0.065
0.700,-0.084
0.705,0.034
0.710,0.110
0.715,-0.058
0.720,-0.036
0.725,0.112
0.730,-0.007
0.735,-0.092
0.740,0.071
0.745,0.051
0.750,-0.101
0.755,0.017
0.760,0.100
0.765,-0.066
0.770,-0.045
0.775,0.107
0.780,-0.008
0.785,-0.089
0.790,0.076
0.795,0.053
0.800,-0.100
0.805,0.016
0.810,0.093
0.815,-0.078
0.820,-0.063
0.825,0.071
0.830,-0.062
0.835,-0.149
0.840,0.005
0.845,-0.035
0.850,-0.195
0.855,-0.062
0.860,0.038
0.865,-0.113
0.870,-0.067
0.875,0.113
0.880,0.010
0.885,-0.072
0.890,0.092
0.895,0.071
0.900,-0.075
0.905,0.055
0.910,0.147
0.915,-0.016
0.920,0.008
0.925,0.156
0.930,0.034
0.935,-0.043
0.940,0.121
0.945,0.092
0.950,-0.055
0.955,0.061
0.960,0.127
0.965,-0.043
0.970,-0.016
0.975,0.127
0.980,0.001
0.985,-0.093
0.990,0.027
0.995,-0.043
1.000,-0.198
1.005,-0.083
1.010,-0.061
1.015,-0.301
1.020,-0.185
1.025,0.333
1.030,0.419
1.035,0.110
1.040,0.060
1.045,0.009
1.050,-0.134
1.055,-0.003
1.060,0.080
1.065,-0.084
1.070,-0.055
1.075,0.092
1.080,-0.030
1.085,-0.099
1.090,0.069
1.095,0.034
1.100,-0.118
1.105,0.005
1.110,0.078
1.115,-0.091
1.120,-0.062
1.125,0.087
1.130,-0.037
1.135,-0.109
1.140,0.062
1.145,0.030
1.150,-0.119
1.155,0.007
1.160,0.076
1.165,-0.093
1.170,-0.061
1.175,0.086
1.180,-0.037
1.185,-0.111
1.190,0.053
1.195,0.019
1.200,-0.129
1.205,-0.004
1.210,0.067
1.215,-0.105
1.220,-0.073
1.225,0.078
1.230,-0.050
1.235,-0.128
1.240,0.034
1.245,0.000
1.250,-0.146
1.255,-0.024
1.260,0.042
1.265,-0.127
1.270,-0.091
1.275,0.054
1.280,-0.073
1.285,-0.140
1.290,0.029
1.295,-0.002
1.300,-0.138
1.305,0.001
1.310,0.088
1.315,-0.066
1.320,-0.023
1.325,0.131
1.330,0.015
1.335,-0.043
1.340,0.134
1.345,0.100
1.350,-0.045
1.355,0.082
1.360,0.150
1.365,-0.022
1.370,0.009
1.375,0.152
1.380,0.021
1.385,-0.047
1.390,0.122
1.395,0.085
1.400,-0.060
1.405,0.066
1.410,0.132
1.415,-0.036
1.420,0.001
1.425,0.144
1.430,0.014
1.435,-0.054
1.440,0.111
1.445,0.072
1.450,-0.073
1.455,0.048
1.460,0.112
1.465,-0.055
1.470,-0.016
1.475,0.131
1.480,0.002
1.485,-0.066
1.490,0.100
1.495,0.059
1.500,-0.086
1.505,0.039
1.510,0.104
1.515,-0.062
1.520,-0.024
1.525,0.120
1.530,-0.010
1.535,-0.072
1.540,0.098
1.545,0.054
1.550,-0.098
1.555,0.020
1.560,0.066
1.565,-0.121
1.570,-0.086
1.575,0.059
1.580,-0.081
1.585,-0.161
1.590,0.004
1.595,-0.024
1.600,-0.156
1.605,-0.014
1.610,0.079
1.615,-0.058
1.620,-0.006
1.625,0.134
1.630,0.006
1.635,-0.048
1.640,0.128
1.645,0.101
1.650,-0.035
1.655,0.088
1.660,0.145
1.665,-0.028
1.670,0.010
1.675,0.152
1.680,0.018
1.685,-0.046
1.690,0.119
1.695,0.068
1.700,-0.077
1.705,0.056
1.710,0.114
1.715,-0.060
1.720,-0.029
1.725,0.073
1.730,-0.107
1.735,-0.182
1.740,-0.009
1.745,-0.080
1.750,-0.292
1.755,-0.154
1.760,0.204
1.765,0.332
1.770,0.221
1.775,0.101
1.780,-0.081
1.785,-0.126
1.790,0.059
1.795,0.031
1.800,-0.104
1.805,0.028
1.810,0.086
1.815,-0.085
1.820,-0.038
1.825,0.103
1.830,-0.032
1.835,-0.088
1.840,0.082
1.845,0.034
1.850,-0.106
1.855,0.031
1.860,0.088
1.865,-0.088
1.870,-0.044
1.875,0.099
1.880,-0.035
1.885,-0.094
1.890,0.070
1.895,0.021
1.900,-0.119
1.905,0.014
1.910,0.070
1.915,-0.100
1.920,-0.055
1.925,0.084
1.930,-0.053
1.935,-0.114
1.940,0.054
1.945,0.005
1.950,-0.136
1.955,-0.002
1.960,0.051
1.965,-0.124
1.970,-0.073
1.975,0.064
1.980,-0.077
1.985,-0.135
1.990,0.030
1.995,-0.020
2.000,-0.162
2.005,-0.028
2.010,0.027
2.015,-0.144
2.020,-0.093
2.025,0.049
2.030,-0.087
2.035,-0.138
2.040,0.040
2.045,0.001
2.050,-0.125
2.055,0.021
2.060,0.084
2.065,-0.079
2.070,-0.020
2.075,0.123
2.080,-0.011
2.085,-0.059
2.090,0.115
2.095,0.070
2.100,-0.065
2.105,0.069
2.110,0.122
2.115,-0.045
2.120,0.005
2.125,0.137
2.130,-0.003
2.135,-0.054
2.140,0.114
2.145,0.060
2.150,-0.077
2.155,0.059
2.160,0.108
2.165,-0.064
2.170,-0.013
2.175,0.119
2.180,-0.020
2.185,-0.070
2.190,0.094
2.195,0.036
2.200,-0.100
2.205,0.037
2.210,0.087
2.215,-0.083
2.220,-0.029
2.225,0.106
2.230,-0.035
2.235,-0.088
2.240,0.081
2.245,0.029
2.250,-0.104
2.255,0.032
2.260,0.078
2.265,-0.092
2.270,-0.035
2.275,0.101
2.280,-0.039
2.285,-0.088
2.290,0.084
2.295,0.029
2.300,-0.108
2.305,0.026
2.310,0.063
2.315,-0.125
2.320,-0.091
2.325,0.040
2.330,-0.089
2.335,-0.138
2.340,0.015
2.345,-0.054
2.350,-0.179
2.355,-0.024
2.360,0.039
2.365,-0.103
2.370,-0.017
2.375,0.131
2.380,-0.009
2.385,-0.058
2.390,0.117
2.395,0.073
2.400,-0.047
2.405,0.100
2.410,0.145
2.415,-0.029
2.420,0.029
2.425,0.160
2.430,0.015
2.435,-0.035
2.440,0.131
2.445,0.067
2.450,-0.072
2.455,0.069
2.460,0.116
2.465,-0.056
2.470,-0.003
2.475,0.119
2.480,-0.055
2.485,-0.149
2.490,-0.007
2.495,-0.068
2.500,-0.214
2.505,-0.127
2.510,-0.124
2.515,-0.085
2.520,0.328
2.525,0.437
2.530,0.017
2.535,-0.134
2.540,0.043
2.545,-0.004
2.550,-0.114
2.555,0.039
2.560,0.081
2.565,-0.087
2.570,-0.025
2.575,0.108
2.580,-0.032
2.585,-0.076
2.590,0.093
2.595,0.031
2.600,-0.100
2.605,0.046
2.610,0.089
2.615,-0.083
2.620,-0.022
2.625,0.106
2.630,-0.041
2.635,-0.082
2.640,0.085
2.645,0.019
2.650,-0.110
2.655,0.033
2.660,0.073
2.665,-0.099
2.670,-0.039
2.675,0.088
2.680,-0.056
2.685,-0.099
2.690,0.065
2.695,0.002
2.700,-0.125
2.705,0.016
2.710,0.054
2.715,-0.113
2.720,-0.053
2.725,0.069
2.730,-0.080
2.735,-0.121
2.740,0.047
2.745,-0.021
2.750,-0.147
2.755,-0.001
2.760,0.036
2.765,-0.132
2.770,-0.066
2.775,0.062
2.780,-0.081
2.785,-0.118
2.790,0.053
2.795,-0.005
2.800,-0.124
2.805,0.027
2.810,0.076
2.815,-0.074
2.820,0.009
2.825,0.143
2.830,0.002
2.835,-0.028
2.840,0.142
2.845,0.074
2.850,-0.051
2.855,0.097
2.860,0.135
2.865,-0.032
2.870,0.038
2.875,0.165
2.880,0.020
2.885,-0.018
2.890,0.147
2.895,0.075
2.900,-0.053
2.905,0.090
2.910,0.122
2.915,-0.047
2.920,0.022
2.925,0.144
2.930,-0.007
2.935,-0.042
2.940,0.123
2.945,0.048
2.950,-0.078
2.955,0.066
2.960,0.097
2.965,-0.074
2.970,-0.005
2.975,0.121
2.980,-0.027
2.985,-0.060
2.990,0.106
2.995,0.031
3.000,-0.093
3.005,0.056
3.010,0.089
3.015,-0.079
3.020,-0.007
3.025,0.116
3.030,-0.033
3.035,-0.065
3.040,0.101
3.045,0.028
3.050,-0.096
3.055,0.051
3.060,0.082
3.065,-0.086
3.070,-0.013
3.075,0.108
3.080,-0.046
3.085,-0.079
3.090,0.082
3.095,-0.001
3.100,-0.140
3.105,-0.016
3.110,0.001
3.115,-0.162
3.120,-0.079
3.125,0.033
3.130,-0.139
3.135,-0.169
3.140,0.015
3.145,-0.039
3.150,-0.134
3.155,0.041
3.160,0.085
3.165,-0.083
3.170,-0.016
3.175,0.111
3.180,-0.027
3.185,-0.040
3.190,0.143
3.195,0.071
3.200,-0.055
3.205,0.091
3.210,0.117
3.215,-0.054
3.220,0.018
3.225,0.137
3.230,-0.013
3.235,-0.042
3.240,0.120
3.245,0.039
3.250,-0.085
3.255,0.058
3.260,0.080
3.265,-0.108
3.270,-0.079
3.275,0.007
3.280,-0.147
3.285,-0.182
3.290,-0.063
3.295,-0.202
3.300,-0.213
3.305,0.281
3.310,0.437
3.315,0.020
3.320,-0.074
3.325,0.047
3.330,-0.090
3.335,-0.093
3.340,0.089
3.345,0.013
3.350,-0.103
3.355,0.047
3.360,0.071
3.365,-0.094
3.370,-0.014
3.375,0.104
3.380,-0.048
3.385,-0.071
3.390,0.093
3.395,0.010
3.400,-0.108
3.405,0.042
3.410,0.064
3.415,-0.106
3.420,-0.027
3.425,0.092
3.430,-0.060
3.435,-0.082
3.440,0.082
3.445,-0.003
3.450,-0.122
3.455,0.028
3.460,0.048
3.465,-0.117
3.470,-0.035
3.475,0.082
3.480,-0.071
3.485,-0.092
3.490,0.071
3.495,-0.014
3.500,-0.133
3.505,0.017
3.510,0.035
3.515,-0.134
3.520,-0.051
3.525,0.063
3.530,-0.094
3.535,-0.115
3.540,0.050
3.545,-0.034
3.550,-0.151
3.555,0.001
3.560,0.019
3.565,-0.150
3.570,-0.068
3.575,0.046
3.580,-0.104
3.585,-0.109
3.590,0.069
3.595,-0.007
3.600,-0.110
3.605,0.055
3.610,0.084
3.615,-0.077
3.620,0.014
3.625,0.135
3.630,-0.018
3.635,-0.035
3.640,0.129
3.645,0.043
3.650,-0.069
3.655,0.086
3.660,0.103
3.665,-0.064
3.670,0.020
3.675,0.132
3.680,-0.026
3.685,-0.039
3.690,0.128
3.695,0.043
3.700,-0.069
3.705,0.083
3.710,0.094
3.715,-0.071
3.720,0.015
3.725,0.121
3.730,-0.038
3.735,-0.052
3.740,0.112
3.745,0.022
3.750,-0.094
3.755,0.061
3.760,0.078
3.765,-0.087
3.770,0.000
3.775,0.113
3.780,-0.041
3.785,-0.057
3.790,0.109
3.795,0.028
3.800,-0.084
3.805,0.067
3.810,0.082
3.815,-0.084
3.820,0.002
3.825,0.110
3.830,-0.048
3.835,-0.060
3.840,0.105
3.845,0.018
3.850,-0.090
3.855,0.064
3.860,0.073
3.865,-0.092
3.870,0.000
3.875,0.108
3.880,-0.058
3.885,-0.086
3.890,0.055
3.895,-0.048
3.900,-0.151
3.905,0.018
3.910,0.028
3.915,-0.161
3.920,-0.083
3.925,0.039
3.930,-0.096
3.935,-0.086
3.940,0.099
3.945,0.032
3.950,-0.065
3.955,0.082
3.960,0.089
3.965,-0.064
3.970,0.042
3.975,0.161
3.980,0.006
3.985,-0.003
3.990,0.160
3.995,0.063
4.000,-0.046
4.005,0.110
4.010,0.117
4.015,-0.047
4.020,0.044
4.025,0.146
4.030,-0.021
4.035,-0.035
4.040,0.122
4.045,0.021
4.050,-0.094
4.055,0.033
4.060,0.001
4.065,-0.170
4.070,-0.074
4.075,0.000
4.080,-0.224
4.085,-0.227
4.090,0.197
4.095,0.357
4.100,0.098
4.105,0.031
4.110,0.015
4.115,-0.130
4.120,-0.021
4.125,0.099
4.130,-0.054
4.135,-0.054
4.140,0.112
4.145,0.013
4.150,-0.097
4.155,0.058
4.160,0.059
4.165,-0.101
4.170,0.000
4.175,0.104
4.180,-0.057
4.185,-0.059
4.190,0.100
4.195,-0.002
4.200,-0.102
4.205,0.063
4.210,0.065
4.215,-0.099
4.220,-0.005
4.225,0.095
4.230,-0.066
4.235,-0.074
4.240,0.078
4.245,-0.024
4.250,-0.120
4.255,0.049
4.260,0.052
4.265,-0.118
4.270,-0.027
4.275,0.069
4.280,-0.096
4.285,-0.092
4.290,0.076
4.295,-0.029
4.300,-0.135
4.305,0.026
4.310,0.024
4.315,-0.141
4.320,-0.040
4.325,0.059
4.330,-0.107
4.335,-0.109
4.340,0.048
4.345,-0.060
4.350,-0.159
4.355,0.003
4.360,0.002
4.365,-0.150
4.370,-0.039
4.375,0.064
4.380,-0.088
4.385,-0.074
4.390,0.093
4.395,0.000
4.400,-0.089
4.405,0.079
4.410,0.083
4.415,-0.076
4.420,0.027
4.425,0.126
4.430,-0.035
4.435,-0.029
4.440,0.134
4.445,0.035
4.450,-0.058
4.455,0.100
4.460,0.089
4.465,-0.073
4.470,0.030
4.475,0.127
4.480,-0.037
4.485,-0.037
4.490,0.121
4.495,0.020
4.500,-0.074
4.505,0.086
4.510,0.077
4.515,-0.086
4.520,0.012
4.525,0.101
4.530,-0.061
4.535,-0.049
4.540,0.117
4.545,0.014
4.550,-0.084
4.555,0.077
4.560,0.071
4.565,-0.091
4.570,0.012
4.575,0.105
4.580,-0.055
4.585,-0.045
4.590,0.111
4.595,0.006
4.600,-0.086
4.605,0.073
4.610,0.066
4.615,-0.091
4.620,0.011
4.625,0.102
4.630,-0.062
4.635,-0.053
4.640,0.107
4.645,0.002
4.650,-0.088
4.655,0.072
4.660,0.058
4.665,-0.108
4.670,-0.019
4.675,0.052
4.680,-0.121
4.685,-0.099
4.690,0.070
4.695,-0.054
4.700,-0.167
4.705,-0.006
4.710,0.003
4.715,-0.130
4.720,-0.004
4.725,0.108
4.730,-0.045
4.735,-0.046
4.740,0.107
4.745,0.013
4.750,-0.060
4.755,0.117
4.760,0.115
4.765,-0.043
4.770,0.061
4.775,0.150
4.780,-0.016
4.785,-0.009
4.790,0.140
4.795,0.027
4.800,-0.058
4.805,0.105
4.810,0.086
4.815,-0.077
4.820,0.030
4.825,0.118
4.830,-0.052
4.835,-0.060
4.840,0.058
4.845,-0.070
4.850,-0.144
4.855,0.016
4.860,-0.053
4.865,-0.274
4.870,-0.069
4.875,0.294
4.880,0.181
4.885,-0.035
4.890,0.014
4.895,-0.066
4.900,-0.127
4.905,0.064
4.910,0.063
4.915,-0.091
4.920,0.021
4.925,0.105
4.930,-0.065
4.935,-0.053
4.940,0.105
4.945,-0.007
4.950,-0.094
4.955,0.071
4.960,0.055
4.965,-0.100
4.970,0.010
4.975,0.091
4.980,-0.080
4.985,-0.065
4.990,0.092
4.995,-0.020
5.000,-0.105
5.005,0.061
5.010,0.045
5.015,-0.112
5.020,-0.003
5.025,0.084
5.030,-0.078
5.035,-0.059
5.040,0.091
5.045,-0.026
5.050,-0.113
5.055,0.049
5.060,0.032
5.065,-0.122
5.070,-0.012
5.075,0.069
5.080,-0.099
5.085,-0.080
5.090,0.072
5.095,-0.044
5.100,-0.129
5.105,0.034
5.110,0.016
5.115,-0.138
5.120,-0.027
5.125,0.050
5.130,-0.121
5.135,-0.100
5.140,0.052
5.145,-0.065
5.150,-0.143
5.155,0.027
5.160,0.014
5.165,-0.130
5.170,-0.003
5.175,0.092
5.180,-0.063
5.185,-0.032
5.190,0.124
5.195,0.009
5.200,-0.068
5.205,0.101
5.210,0.084
5.215,-0.063
5.220,0.050
5.225,0.126
5.230,-0.042
5.235,-0.020
5.240,0.131
5.245,0.014
5.250,-0.066
5.255,0.098
5.260,0.071
5.265,-0.080
5.270,0.041
5.275,0.116
5.280,-0.052
5.285,-0.029
5.290,0.119
5.295,0.002
5.300,-0.076
5.305,0.088
5.310,0.063
5.315,-0.090
5.320,0.029
5.325,0.108
5.330,-0.060
5.335,-0.034
5.340,0.115
5.345,-0.007
5.350,-0.084
5.355,0.083
5.360,0.058
5.365,-0.093
5.370,0.024
5.375,0.102
5.380,-0.063
5.385,-0.037
5.390,0.112
5.395,-0.009
5.400,-0.087
5.405,0.080
5.410,0.053
5.415,-0.098
5.420,0.026
5.425,0.103
5.430,-0.067
5.435,-0.040
5.440,0.107
5.445,-0.015
5.450,-0.090
5.455,0.070
5.460,0.025
5.465,-0.147
5.470,-0.044
5.475,0.033
5.480,-0.118
5.485,-0.089
5.490,0.037
5.495,-0.094
5.500,-0.149
5.505,0.043
5.510,0.030
5.515,-0.098
5.520,0.048
5.525,0.118
5.530,-0.063
5.535,-0.031
5.540,0.124
5.545,0.013
5.550,-0.041
5.555,0.130
5.560,0.092
5.565,-0.061
5.570,0.056
5.575,0.125
5.580,-0.042
5.585,-0.009
5.590,0.140
5.595,0.014
5.600,-0.064
5.605,0.097
5.610,0.061
5.615,-0.086
5.620,0.038
5.625,0.097
5.630,-0.112
5.635,-0.125
5.640,0.013
5.645,-0.110
5.650,-0.214
5.655,-0.113
5.660,-0.130
5.665,0.014
5.670,0.402
5.675,0.303
5.680,-0.098
5.685,-0.089
5.690,0.075
5.695,-0.034
5.700,-0.088
5.705,0.083
5.710,0.048
5.715,-0.096
5.720,0.031
5.725,0.099
5.730,-0.069
5.735,-0.037
5.740,0.107
5.745,-0.016
5.750,-0.083
5.755,0.083
5.760,0.047
5.765,-0.100
5.770,0.025
5.775,0.096
5.780,-0.071
5.785,-0.041
5.790,0.102
5.795,-0.023
5.800,-0.092
5.805,0.077
5.810,0.042
5.815,-0.105
5.820,0.018
5.825,0.087
5.830,-0.082
5.835,-0.050
5.840,0.091
5.845,-0.037
5.850,-0.104
5.855,0.064
5.860,0.026
5.865,-0.122
5.870,0.003
5.875,0.067
5.880,-0.102
5.885,-0.063
5.890,0.079
5.895,-0.053
5.900,-0.122
5.905,0.045
5.910,0.005
5.915,-0.142
5.920,-0.019
5.925,0.041
5.930,-0.128
5.935,-0.086
5.940,0.063
5.945,-0.056
5.950,-0.111
5.955,0.068
5.960,0.040
5.965,-0.095
5.970,0.043
5.975,0.118
5.980,-0.041
5.985,0.003
5.990,0.146
5.995,0.018
6.000,-0.042
6.005,0.128
6.010,0.085
6.015,-0.060
6.020,0.066
6.025,0.123
6.030,-0.047
6.035,-0.006
6.040,0.134
6.045,0.003
6.050,-0.059
6.055,0.105
6.060,0.057
6.065,-0.085
6.070,0.047
6.075,0.107
6.080,-0.064
6.085,-0.022
6.090,0.119
6.095,-0.014
6.100,-0.074
6.105,0.094
6.110,0.047
6.115,-0.097
6.120,0.034
6.125,0.091
6.130,-0.080
6.135,-0.035
6.140,0.107
6.145,-0.025
6.150,-0.083
6.155,0.086
6.160,0.037
6.165,-0.104
6.170,0.031
6.175,0.089
6.180,-0.082
6.185,-0.034
6.190,0.108
6.195,-0.031
6.200,-0.089
6.205,0.084
6.210,0.038
6.215,-0.103
6.220,0.029
6.225,0.086
6.230,-0.086
6.235,-0.044
6.240,0.096
6.245,-0.033
6.250,-0.088
6.255,0.079
6.260,0.028
6.265,-0.120
6.270,-0.002
6.275,0.036
6.280,-0.147
6.285,-0.092
6.290,0.065
6.295,-0.072
6.300,-0.152
6.305,0.007
6.310,-0.023
6.315,-0.140
6.320,0.010
6.325,0.089
6.330,-0.062
6.335,-0.014
6.340,0.119
6.345,-0.015
6.350,-0.068
6.355,0.107
6.360,0.072
6.365,-0.059
6.370,0.071
6.375,0.124
6.380,-0.046
6.385,0.002
6.390,0.136
6.395,-0.006
6.400,-0.061
6.405,0.107
6.410,0.055
6.415,-0.081
6.420,0.054
6.425,0.102
6.430,-0.072
6.435,-0.031
6.440,0.072
6.445,-0.114
6.450,-0.188
6.455,-0.017
6.460,-0.096
6.465,-0.300
6.470,-0.184
6.475,0.120
6.480,0.277
6.485,0.237
6.490,0.113
6.495,-0.087
6.500,-0.124
6.505,0.059
6.510,0.028
6.515,-0.101
6.520,0.036
6.525,0.089
6.530,-0.081
6.535,-0.022
6.540,0.114
6.545,-0.026
6.550,-0.073
6.555,0.093
6.560,0.034
6.565,-0.099
6.570,0.040
6.575,0.089
6.580,-0.081
6.585,-0.028
6.590,0.105
6.595,-0.034
6.600,-0.084
6.605,0.079
6.610,0.023
6.615,-0.108
6.620,0.032
6.625,0.080
6.630,-0.090
6.635,-0.034
6.640,0.098
6.645,-0.045
6.650,-0.096
6.655,0.070
6.660,0.014
6.665,-0.115
6.670,0.022
6.675,0.064
6.680,-0.108
6.685,-0.053
6.690,0.077
6.695,-0.066
6.700,-0.114
6.705,0.050
6.710,-0.010
6.715,-0.142
6.720,-0.003
6.725,0.041
6.730,-0.133
6.735,-0.080
6.740,0.051
6.745,-0.091
6.750,-0.133
6.755,0.043
6.760,-0.006
6.765,-0.127
6.770,0.027
6.775,0.082
6.780,-0.082
6.785,-0.014
6.790,0.127
6.795,-0.009
6.800,-0.048
6.805,0.124
6.810,0.067
6.815,-0.062
6.820,0.078
6.825,0.121
6.830,-0.049
6.835,0.011
6.840,0.141
6.845,-0.002
6.850,-0.044
6.855,0.125
6.860,0.061
6.865,-0.075
6.870,0.063
6.875,0.103
6.880,-0.066
6.885,-0.007
6.890,0.121
6.895,-0.023
6.900,-0.066
6.905,0.102
6.910,0.038
6.915,-0.094
6.920,0.049
6.925,0.091
6.930,-0.079
6.935,-0.015
6.940,0.113
6.945,-0.033
6.950,-0.074
6.955,0.095
6.960,0.031
6.965,-0.097
6.970,0.048
6.975,0.088
6.980,-0.079
6.985,-0.012
6.990,0.116
6.995,-0.029
7.000,-0.068
7.005,0.100
7.010,0.032
7.015,-0.098
7.020,0.049
7.025,0.091
7.030,-0.076
7.035,-0.009
7.040,0.118
7.045,-0.029
7.050,-0.071
7.055,0.095
7.060,0.028
7.065,-0.098
7.070,0.047
7.075,0.081
7.080,-0.092
7.085,-0.035
7.090,0.075
7.095,-0.080
7.100,-0.117
7.105,0.058
7.110,-0.004
7.115,-0.137
7.120,-0.010
7.125,0.021
7.130,-0.127
7.135,-0.037
7.140,0.107
7.145,-0.021
7.150,-0.045
7.155,0.124
7.160,0.050
7.165,-0.078
7.170,0.068
7.175,0.104
7.180,-0.052
7.185,0.026
7.190,0.146
7.195,-0.004
7.200,-0.037
7.205,0.128
7.210,0.053
7.215,-0.074
7.220,0.070
7.225,0.095
7.230,-0.075
7.235,-0.005
7.240,0.113
7.245,-0.040
7.250,-0.072
7.255,0.092
7.260,-0.011
7.265,-0.185
7.270,-0.065
7.275,-0.035
7.280,-0.221
7.285,-0.203
7.290,-0.126
7.295,-0.098
7.300,0.218
7.305,0.403
7.310,0.064
7.315,-0.168
7.320,-0.007
7.325,0.038
7.330,-0.107
7.335,-0.022
7.340,0.102
7.345,-0.047
7.350,-0.075
7.355,0.096
7.360,0.022
7.365,-0.101
7.370,0.047
7.375,0.077
7.380,-0.089
7.385,-0.015
7.390,0.106
7.395,-0.042
7.400,-0.069
7.405,0.098
7.410,0.017
7.415,-0.106
7.420,0.043
7.425,0.070
7.430,-0.097
7.435,-0.021
7.440,0.101
7.445,-0.049
7.450,-0.076
7.455,0.089
7.460,0.008
7.465,-0.112
7.470,0.040
7.475,0.066
7.480,-0.105
7.485,-0.032
7.490,0.083
7.495,-0.071
7.500,-0.100
7.505,0.063
7.510,-0.013
7.515,-0.129
7.520,0.019
7.525,0.040
7.530,-0.127
7.535,-0.049
7.540,0.068
7.545,-0.090
7.550,-0.118
7.555,0.045
7.560,-0.039
7.565,-0.155
7.570,0.003
7.575,0.034
7.580,-0.126
7.585,-0.038
7.590,0.089
7.595,-0.054
7.600,-0.065
7.605,0.112
7.610,0.037
7.615,-0.075
7.620,0.082
7.625,0.107
7.630,-0.058
7.635,0.022
7.640,0.140
7.645,-0.011
7.650,-0.033
7.655,0.132
7.660,0.050
7.665,-0.064
7.670,0.089
7.675,0.107
7.680,-0.063
7.685,0.013
7.690,0.127
7.695,-0.025
7.700,-0.045
7.705,0.120
7.710,0.038
7.715,-0.078
7.720,0.070
7.725,0.087
7.730,-0.078
7.735,0.003
7.740,0.116
7.745,-0.039
7.750,-0.058
7.755,0.108
7.760,0.025
7.765,-0.090
7.770,0.062
7.775,0.081
7.780,-0.083
7.785,-0.001
7.790,0.113
7.795,-0.041
7.800,-0.058
7.805,0.107
7.810,0.023
7.815,-0.089
7.820,0.065
7.825,0.083
7.830,-0.083
7.835,-0.003
7.840,0.110
7.845,-0.045
7.850,-0.064
7.855,0.099
7.860,0.011
7.865,-0.101
7.870,0.054
7.875,0.071
7.880,-0.095
7.885,-0.011
7.890,0.099
7.895,-0.055
7.900,-0.066
7.905,0.096
7.910,0.002
7.915,-0.111
7.920,0.038
7.925,0.041
7.930,-0.132
7.935,-0.047
7.940,0.065
7.945,-0.088
7.950,-0.098
7.955,0.055
7.960,-0.045
7.965,-0.144
7.970,0.031
7.975,0.063
7.980,-0.086
7.985,0.012
7.990,0.128
7.995,-0.037
8.000,-0.060
8.005,0.098
8.010,0.008
8.015,-0.087
8.020,0.079
8.025,0.088
8.030,-0.078
8.035,0.010
8.040,0.114
8.045,-0.047
8.050,-0.061
8.055,0.102
8.060,0.011
8.065,-0.099
8.070,0.057
8.075,0.065
8.080,-0.103
8.085,-0.013
8.090,0.093
8.095,-0.087
8.100,-0.140
8.105,-0.010
8.110,-0.104
8.115,-0.220
8.120,-0.109
8.125,-0.156
8.130,-0.232
8.135,0.198
8.140,0.468
8.145,0.073
8.150,-0.116
8.155,0.048
8.160,-0.029
8.165,-0.114
8.170,0.060
8.175,0.072
8.180,-0.092
8.185,0.004
8.190,0.112
8.195,-0.047
8.200,-0.053
8.205,0.110
8.210,0.015
8.215,-0.091
8.220,0.067
8.225,0.074
8.230,-0.088
8.235,0.006
8.240,0.108
8.245,-0.053
8.250,-0.060
8.255,0.100
8.260,0.005
8.265,-0.102
8.270,0.056
8.275,0.065
8.280,-0.096
8.285,0.000
8.290,0.102
8.295,-0.060
8.300,-0.066
8.305,0.093
8.310,-0.002
8.315,-0.104
8.320,0.054
8.325,0.058
8.330,-0.106
8.335,-0.015
8.340,0.084
8.345,-0.078
8.350,-0.085
8.355,0.071
8.360,-0.028
8.365,-0.129
8.370,0.028
8.375,0.027
8.380,-0.139
8.385,-0.045
8.390,0.054
8.395,-0.107
8.400,-0.112
8.405,0.046
8.410,-0.044
8.415,-0.133
8.420,0.035
8.425,0.044
8.430,-0.106
8.435,0.007
8.440,0.117
8.445,-0.040
8.450,-0.035
8.455,0.132
8.460,0.036
8.465,-0.061
8.470,0.101
8.475,0.103
8.480,-0.056
8.485,0.044
8.490,0.140
8.495,-0.026
8.500,-0.030
8.505,0.129
8.510,0.031
8.515,-0.067
8.520,0.095
8.525,0.097
8.530,-0.066
8.535,0.029
8.540,0.121
8.545,-0.043
8.550,-0.042
8.555,0.118
8.560,0.018
8.565,-0.078
8.570,0.078
8.575,0.067
8.580,-0.096
8.585,0.011
8.590,0.112
8.595,-0.051
8.600,-0.050
8.605,0.108
8.610,0.007
8.615,-0.086
8.620,0.079
8.625,0.072
8.630,-0.091
8.635,0.011
8.640,0.107
8.645,-0.053
8.650,-0.047
8.655,0.110
8.660,0.006
8.665,-0.092
8.670,0.069
8.675,0.067
8.680,-0.091
8.685,0.013
8.690,0.111
8.695,-0.049
8.700,-0.049
8.705,0.103
8.710,0.001
8.715,-0.092
8.720,0.066
8.725,0.061
8.730,-0.098
8.735,0.003
8.740,0.098
8.745,-0.062
8.750,-0.059
8.755,0.087
8.760,-0.032
8.765,-0.125
8.770,0.044
8.775,0.038
8.780,-0.116
8.785,-0.009
8.790,0.068
8.795,-0.103
8.800,-0.079
8.805,0.097
8.810,0.002
8.815,-0.078
8.820,0.098
8.825,0.088
8.830,-0.082
8.835,0.015
8.840,0.105
8.845,-0.051
8.850,-0.031
8.855,0.128
8.860,0.016
8.865,-0.078
8.870,0.087
8.875,0.078
8.880,-0.079
8.885,0.025
8.890,0.116
8.895,-0.051
8.900,-0.050
8.905,0.105
8.910,0.001
8.915,-0.091
8.920,0.066
8.925,0.043
8.930,-0.139
8.935,-0.066
8.940,0.009
8.945,-0.144
8.950,-0.135
8.955,-0.033
8.960,-0.190
8.965,-0.132
8.970,0.301
8.975,0.266
8.980,-0.120
8.985,-0.076
8.990,0.042
8.995,-0.101
9.000,-0.060
9.005,0.109
9.010,-0.001
9.015,-0.094
9.020,0.071
9.025,0.067
9.030,-0.082
9.035,0.022
9.040,0.109
9.045,-0.051
9.050,-0.038
9.055,0.115
9.060,0.003
9.065,-0.084
9.070,0.079
9.075,0.062
9.080,-0.095
9.085,0.012
9.090,0.097
9.095,-0.063
9.100,-0.043
9.105,0.108
9.110,-0.009
9.115,-0.092
9.120,0.074
9.125,0.052
9.130,-0.109
9.135,0.004
9.140,0.095
9.145,-0.073
9.150,-0.066
9.155,0.086
9.160,-0.024
9.165,-0.105
9.170,0.061
9.175,0.039
9.180,-0.123
9.185,-0.019
9.190,0.062
9.195,-0.097
9.200,-0.073
9.205,0.078
9.210,-0.049
9.215,-0.142
9.220,0.016
9.225,-0.009
9.230,-0.159
9.235,-0.037
9.240,0.048
9.245,-0.121
9.250,-0.098
9.255,0.066
9.260,-0.036
9.265,-0.102
9.270,0.077
9.275,0.061
9.280,-0.088
9.285,0.035
9.290,0.129
9.295,-0.034
9.300,-0.017
9.305,0.131
9.310,0.014
9.315,-0.069
9.320,0.094
9.325,0.075
9.330,-0.073
9.335,0.042
9.340,0.121
9.345,-0.047
9.350,-0.027
9.355,0.128
9.360,0.010
9.365,-0.072
9.370,0.096
9.375,0.072
9.380,-0.087
9.385,0.029
9.390,0.107
9.395,-0.063
9.400,-0.035
9.405,0.120
9.410,-0.002
9.415,-0.083
9.420,0.080
9.425,0.054
9.430,-0.090
9.435,0.033
9.440,0.109
9.445,-0.064
9.450,-0.046
9.455,0.104
9.460,-0.012
9.465,-0.085
9.470,0.085
9.475,0.062
9.480,-0.092
9.485,0.019
9.490,0.093
9.495,-0.072
9.500,-0.042
9.505,0.110
9.510,-0.010
9.515,-0.086
9.520,0.082
9.525,0.051
9.530,-0.102
9.535,0.021
9.540,0.100
9.545,-0.064
9.550,-0.035
9.555,0.107
9.560,-0.025
9.565,-0.110
9.570,0.050
9.575,0.027
9.580,-0.118
9.585,-0.001
9.590,0.079
9.595,-0.086
9.600,-0.069
9.605,0.074
9.610,-0.036
9.615,-0.094
9.620,0.080
9.625,0.059
9.630,-0.078
9.635,0.039
9.640,0.096
9.645,-0.079
9.650,-0.048
9.655,0.105
9.660,-0.002
9.665,-0.069
9.670,0.091
9.675,0.061
9.680,-0.087
9.685,0.032
9.690,0.097
9.695,-0.073
9.700,-0.038
9.705,0.110
9.710,-0.019
9.715,-0.095
9.720,0.072
9.725,0.040
9.730,-0.113
9.735,0.002
9.740,0.052
9.745,-0.153
9.750,-0.134
9.755,0.027
9.760,-0.108
9.765,-0.239
9.770,-0.126
9.775,-0.020
9.780,0.104
9.785,0.213
9.790,0.054
9.795,-0.178
9.800,-0.106
9.805,0.067
9.810,-0.028
9.815,-0.081
9.820,0.086
9.825,0.048
9.830,-0.098
9.835,0.027
9.840,0.096
9.845,-0.071
9.850,-0.037
9.855,0.106
9.860,-0.019
9.865,-0.084
9.870,0.086
9.875,0.054
9.880,-0.089
9.885,0.041
9.890,0.105
9.895,-0.072
9.900,-0.035
9.905,0.111
9.910,-0.016
9.915,-0.081
9.920,0.083
9.925,0.044
9.930,-0.101
9.935,0.025
9.940,0.090
9.945,-0.081
9.950,-0.044
9.955,0.102
9.960,-0.026
9.965,-0.088
9.970,0.079
9.975,0.033
9.980,-0.117
9.985,0.008
9.990,0.070
9.995,-0.098
10.000,-0.054
10.005,0.086
10.010,-0.047
10.015,-0.112
10.020,0.052
10.025,0.007
10.030,-0.142
10.035,-0.016
10.040,0.050
10.045,-0.116
10.050,-0.074
10.055,0.069
10.060,-0.055
10.065,-0.109
10.070,0.069
10.075,0.037
10.080,-0.097
10.085,0.039
10.090,0.111
10.095,-0.047
10.100,0.000
10.105,0.145
10.110,0.018
10.115,-0.041
10.120,0.135
10.125,0.098
10.130,-0.046
10.135,0.081
10.140,0.141
10.145,-0.026
10.150,0.022
10.155,0.167
10.160,0.042
10.165,-0.009
10.170,0.156
10.175,0.105
10.180,-0.023
10.185,0.122
10.190,0.183
10.195,0.014
10.200,0.064
10.205,0.204
10.210,0.067
10.215,0.008
10.220,0.178
10.225,0.133
10.230,-0.011
10.235,0.117
10.240,0.169
10.245,-0.009
10.250,0.043
10.255,0.184
10.260,0.037
10.265,-0.022
10.270,0.143
10.275,0.087
10.280,-0.059
10.285,0.071
10.290,0.136
10.295,-0.028
10.300,0.001
10.305,0.111
10.310,-0.028
10.315,-0.081
10.320,0.077
10.325,0.018
10.330,-0.123
10.335,0.014
10.340,0.086
10.345,-0.050
10.350,0.008
10.355,0.125
10.360,-0.045
10.365,-0.140
10.370,0.000
10.375,-0.093
10.380,-0.282
10.385,-0.166
10.390,-0.111
10.395,-0.292
10.400,-0.247
10.405,-0.101
10.410,-0.241
10.415,-0.297
10.420,-0.113
10.425,-0.151
10.430,-0.277
10.435,-0.124
10.440,-0.042
10.445,-0.193
10.450,-0.157
10.455,-0.031
10.460,-0.164
10.465,-0.211
10.470,-0.025
10.475,-0.055
10.480,-0.182
10.485,-0.052
10.490,0.000
10.495,-0.155
10.500,-0.096
10.505,0.042
10.510,-0.092
10.515,-0.143
10.520,0.034
10.525,-0.009
10.530,-0.149
10.535,-0.015
10.540,0.046
10.545,-0.103
10.550,-0.068
10.555,0.014
10.560,-0.151
10.565,-0.207
10.570,-0.059
10.575,-0.159
10.580,-0.335
10.585,-0.013
10.590,0.431
10.595,0.337
10.600,0.126
10.605,0.120
10.610,-0.014
10.615,-0.059
10.620,0.113
10.625,0.070
10.630,-0.052
10.635,0.080
10.640,0.114
10.645,-0.059
10.650,-0.007
10.655,0.125
10.660,-0.014
10.665,-0.067
10.670,0.095
10.675,0.041
10.680,-0.087
10.685,0.051
10.690,0.095
10.695,-0.075
10.700,-0.018
10.705,0.118
10.710,-0.020
10.715,-0.070
10.720,0.093
10.725,0.035
10.730,-0.091
10.735,0.051
10.740,0.096
10.745,-0.074
10.750,-0.018
10.755,0.114
10.760,-0.025
10.765,-0.071
10.770,0.095
10.775,0.036
10.780,-0.093
10.785,0.048
10.790,0.087
10.795,-0.084
10.800,-0.020
10.805,0.112
10.810,-0.030
10.815,-0.072
10.820,0.091
10.825,0.031
10.830,-0.098
10.835,0.041
10.840,0.086
10.845,-0.084
10.850,-0.026
10.855,0.110
10.860,-0.030
10.865,-0.065
10.870,0.115
10.875,0.058
10.880,-0.060
10.885,0.097
10.890,0.151
10.895,-0.005
10.900,0.060
10.905,0.188
10.910,0.050
10.915,0.017
10.920,0.186
10.925,0.122
10.930,-0.007
10.935,0.129
10.940,0.172
10.945,0.007
10.950,0.065
10.955,0.190
10.960,0.044
10.965,0.001
10.970,0.165
10.975,0.096
10.980,-0.036
10.985,0.106
10.990,0.142
10.995,-0.034
11.000,0.024
11.005,0.149
11.010,0.004
11.015,-0.039
11.020,0.118
11.025,0.045
11.030,-0.085
11.035,0.060
11.040,0.089
11.045,-0.090
11.050,-0.022
11.055,0.109
11.060,-0.042
11.065,-0.086
11.070,0.083
11.075,0.017
11.080,-0.111
11.085,0.034
11.090,0.071
11.095,-0.097
11.100,-0.030
11.105,0.096
11.110,-0.049
11.115,-0.084
11.120,0.079
11.125,0.011
11.130,-0.111
11.135,0.040
11.140,0.078
11.145,-0.089
11.150,-0.018
11.155,0.105
11.160,-0.046
11.165,-0.082
11.170,0.081
11.175,0.002
11.180,-0.131
11.185,0.012
11.190,0.049
11.195,-0.118
11.200,-0.047
11.205,0.075
11.210,-0.086
11.215,-0.117
11.220,0.067
11.225,0.014
11.230,-0.097
11.235,0.059
11.240,0.097
11.245,-0.076
11.250,-0.015
11.255,0.098
11.260,-0.057
11.265,-0.076
11.270,0.112
11.275,0.044
11.280,-0.086
11.285,0.059
11.290,0.092
11.295,-0.076
11.300,-0.005
11.305,0.118
11.310,-0.027
11.315,-0.056
11.320,0.110
11.325,0.036
11.330,-0.086
11.335,0.058
11.340,0.083
11.345,-0.105
11.350,-0.081
11.355,0.002
11.360,-0.144
11.365,-0.170
11.370,-0.044
11.375,-0.177
11.380,-0.205
11.385,0.290
11.390,0.484
11.395,0.070
11.400,-0.050
11.405,0.066
11.410,-0.076
11.415,-0.086
11.420,0.094
11.425,0.020
11.430,-0.097
11.435,0.051
11.440,0.078
11.445,-0.088
11.450,-0.015
11.455,0.102
11.460,-0.050
11.465,-0.076
11.470,0.089
11.475,0.011
11.480,-0.108
11.485,0.044
11.490,0.069
11.495,-0.101
11.500,-0.024
11.505,0.099
11.510,-0.051
11.515,-0.080
11.520,0.083
11.525,0.004
11.530,-0.116
11.535,0.035
11.540,0.061
11.545,-0.106
11.550,-0.028
11.555,0.089
11.560,-0.065
11.565,-0.090
11.570,0.076
11.575,-0.005
11.580,-0.124
11.585,0.028
11.590,0.049
11.595,-0.122
11.600,-0.045
11.605,0.071
11.610,-0.083
11.615,-0.107
11.620,0.057
11.625,-0.028
11.630,-0.147
11.635,0.003
11.640,0.022
11.645,-0.147
11.650,-0.069
11.655,0.047
11.660,-0.100
11.665,-0.113
11.670,0.060
11.675,-0.009
11.680,-0.108
11.685,0.058
11.690,0.086
11.695,-0.075
11.700,0.012
11.705,0.132
11.710,-0.018
11.715,-0.038
11.720,0.129
11.725,0.050
11.730,-0.064
11.735,0.089
11.740,0.105
11.745,-0.062
11.750,0.020
11.755,0.131
11.760,-0.021
11.765,-0.042
11.770,0.122
11.775,0.038
11.780,-0.082
11.785,0.067
11.790,0.085
11.795,-0.082
11.800,0.000
11.805,0.112
11.810,-0.040
11.815,-0.061
11.820,0.099
11.825,0.012
11.830,-0.106
11.835,0.043
11.840,0.059
11.845,-0.109
11.850,-0.026
11.855,0.090
11.860,-0.063
11.865,-0.080
11.870,0.088
11.875,0.002
11.880,-0.109
11.885,0.047
11.890,0.064
11.895,-0.099
11.900,-0.012
11.905,0.102
11.910,-0.047
11.915,-0.059
11.920,0.106
11.925,0.020
11.930,-0.088
11.935,0.071
11.940,0.086
11.945,-0.082
11.950,-0.004
11.955,0.089
11.960,-0.083
11.965,-0.105
11.970,0.063
11.975,-0.021
11.980,-0.127
11.985,0.025
11.990,0.025
11.995,-0.131
12.000,-0.020
12.005,0.105
12.010,-0.036
12.015,-0.036
12.020,0.133
12.025,0.042
12.030,-0.072
12.035,0.073
12.040,0.079
12.045,-0.074
12.050,0.028
12.055,0.134
12.060,-0.030
12.065,-0.046
12.070,0.117
12.075,0.027
12.080,-0.083
12.085,0.071
12.090,0.080
12.095,-0.088
12.100,-0.001
12.105,0.104
12.110,-0.057
12.115,-0.070
12.120,0.089
12.125,-0.029
12.130,-0.183
12.135,-0.049
12.140,-0.027
12.145,-0.195
12.150,-0.155
12.155,-0.092
12.160,-0.086
12.165,0.229
12.170,0.407
12.175,0.052
12.180,-0.167
12.185,0.000
12.190,0.019
12.195,-0.118
12.200,-0.013
12.205,0.094
12.210,-0.063
12.215,-0.070
12.220,0.094
12.225,0.002
12.230,-0.103
12.235,0.051
12.240,0.059
12.245,-0.103
12.250,-0.010
12.255,0.097
12.260,-0.062
12.265,-0.073
12.270,0.090
12.275,-0.001
12.280,-0.103
12.285,0.053
12.290,0.059
12.295,-0.102
12.300,-0.010
12.305,0.091
12.310,-0.068
12.315,-0.071
12.320,0.092
12.325,-0.007
12.330,-0.113
12.335,0.043
12.340,0.046
12.345,-0.112
12.350,-0.018
12.355,0.084
12.360,-0.075
12.365,-0.082
12.370,0.077
12.375,-0.021
12.380,-0.128
12.385,0.027
12.390,0.032
12.395,-0.132
12.400,-0.041
12.405,0.060
12.410,-0.098
12.415,-0.104
12.420,0.051
12.425,-0.050
12.430,-0.151
12.435,0.011
12.440,0.020
12.445,-0.132
12.450,-0.022
12.455,0.092
12.460,-0.061
12.465,-0.055
12.470,0.117
12.475,0.025
12.480,-0.071
12.485,0.100
12.490,0.109
12.495,-0.049
12.500,0.050
12.505,0.146
12.510,-0.019
12.515,-0.019
12.520,0.142
12.525,0.042
12.530,-0.060
12.535,0.099
12.540,0.100
12.545,-0.061
12.550,0.035
12.555,0.126
12.560,-0.042
12.565,-0.040
12.570,0.122
12.575,0.021
12.580,-0.077
12.585,0.079
12.590,0.076
12.595,-0.083
12.600,0.015
12.605,0.112
12.610,-0.049
12.615,-0.044
12.620,0.113
12.625,0.011
12.630,-0.083
12.635,0.076
12.640,0.069
12.645,-0.091
12.650,0.012
12.655,0.113
12.660,-0.046
12.665,-0.043
12.670,0.114
12.675,0.009
12.680,-0.089
12.685,0.076
12.690,0.074
12.695,-0.090
12.700,0.008
12.705,0.103
12.710,-0.070
12.715,-0.080
12.720,0.076
12.725,-0.026
12.730,-0.118
12.735,0.049
12.740,0.039
12.745,-0.143
12.750,-0.044
12.755,0.073
12.760,-0.071
12.765,-0.047
12.770,0.127
12.775,0.029
12.780,-0.069
12.785,0.086
12.790,0.073
12.795,-0.093
12.800,0.017
12.805,0.128
12.810,-0.033
12.815,-0.029
12.820,0.126
12.825,0.017
12.830,-0.075
12.835,0.087
12.840,0.077
12.845,-0.083
12.850,0.015
12.855,0.102
12.860,-0.066
12.865,-0.060
12.870,0.096
12.875,-0.018
12.880,-0.136
12.885,-0.020
12.890,-0.057
12.895,-0.210
12.900,-0.109
12.905,-0.064
12.910,-0.276
12.915,-0.120
12.920,0.383
12.925,0.342
12.930,-0.015
12.935,0.000
12.940,-0.002
12.945,-0.142
12.950,-0.013
12.955,0.089
12.960,-0.068
12.965,-0.054
12.970,0.098
12.975,-0.012
12.980,-0.094
12.985,0.069
12.990,0.054
12.995,-0.102
13.000,0.011
13.005,0.101
13.010,-0.064
13.015,-0.048
13.020,0.106
13.025,-0.005
13.030,-0.092
13.035,0.070
13.040,0.054
13.045,-0.105
13.050,0.003
13.055,0.093
13.060,-0.073
13.065,-0.058
13.070,0.097
13.075,-0.015
13.080,-0.101
13.085,0.060
13.090,0.042
13.095,-0.118
13.100,-0.011
13.105,0.075
13.110,-0.090
13.115,-0.080
13.120,0.070
13.125,-0.039
13.130,-0.126
13.135,0.034
13.140,0.017
13.145,-0.141
13.150,-0.035
13.155,0.049
13.160,-0.116
13.165,-0.101
13.170,0.053
13.175,-0.063
13.180,-0.153
13.185,0.011
13.190,0.000
13.195,-0.146
13.200,-0.025
13.205,0.070
13.210,-0.084
13.215,-0.051
13.220,0.116
13.225,0.011
13.230,-0.066
13.235,0.104
13.240,0.089
13.245,-0.064
13.250,0.053
13.255,0.138
13.260,-0.027
13.265,-0.008
13.270,0.141
13.275,0.023
13.280,-0.058
13.285,0.106
13.290,0.084
13.295,-0.067
13.300,0.047
13.305,0.126
13.310,-0.043
13.315,-0.026
13.320,0.125
13.325,0.003
13.330,-0.085
13.335,0.078
13.340,0.055
13.345,-0.100
13.350,0.013
13.355,0.089
13.360,-0.083
13.365,-0.069
13.370,0.076
13.375,-0.042
13.380,-0.127
13.385,0.035
13.390,0.013
13.395,-0.136
13.400,-0.022
13.405,0.055
13.410,-0.109
13.415,-0.081
13.420,0.074
13.425,-0.046
13.430,-0.125
13.435,0.050
13.440,0.024
13.445,-0.139
13.450,-0.033
13.455,0.039
13.460,-0.127
13.465,-0.096
13.470,0.063
13.475,-0.050
13.480,-0.141
13.485,0.010
13.490,0.000
13.495,-0.126
13.500,0.015
13.505,0.110
13.510,-0.047
13.515,-0.018
13.520,0.129
13.525,0.003
13.530,-0.080
13.535,0.086
13.540,0.071
13.545,-0.064
13.550,0.055
13.555,0.124
13.560,-0.044
13.565,-0.016
13.570,0.133
13.575,0.011
13.580,-0.068
13.585,0.096
13.590,0.064
13.595,-0.088
13.600,0.029
13.605,0.103
13.610,-0.063
13.615,-0.044
13.620,0.070
13.625,-0.096
13.630,-0.184
13.635,-0.008
13.640,-0.051
13.645,-0.250
13.650,-0.140
13.655,0.162
13.660,0.282
13.665,0.209
13.670,0.108
13.675,-0.070
13.680,-0.125
13.685,0.061
13.690,0.056
13.695,-0.082
13.700,0.039
13.705,0.112
13.710,-0.051
13.715,-0.019
13.720,0.124
13.725,-0.002
13.730,-0.071
13.735,0.100
13.740,0.069
13.745,-0.076
13.750,0.047
13.755,0.116
13.760,-0.055
13.765,-0.024
13.770,0.126
13.775,0.002
13.780,-0.071
13.785,0.095
13.790,0.058
13.795,-0.089
13.800,0.037
13.805,0.106
13.810,-0.062
13.815,-0.029
13.820,0.118
13.825,-0.007
13.830,-0.077
13.835,0.088
13.840,0.051
13.845,-0.095
13.850,0.025
13.855,0.088
13.860,-0.080
13.865,-0.044
13.870,0.102
13.875,-0.023
13.880,-0.093
13.885,0.071
13.890,0.036
13.895,-0.114
13.900,0.006
13.905,0.071
13.910,-0.105
13.915,-0.073
13.920,0.070
13.925,-0.062
13.930,-0.123
13.935,0.056
13.940,0.029
13.945,-0.106
13.950,0.029
13.955,0.105
13.960,-0.054
13.965,-0.009
13.970,0.139
13.975,0.013
13.980,-0.050
13.985,0.124
13.990,0.093
13.995,-0.055
14.000,0.065
14.005,0.133
14.010,-0.031
14.015,0.009
14.020,0.150
14.025,0.018
14.030,-0.045
14.035,0.119
14.040,0.078
14.045,-0.065
14.050,0.058
14.055,0.118
14.060,-0.048
14.065,-0.005
14.070,0.133
14.075,-0.004
14.080,-0.071
14.085,0.093
14.090,0.049
14.095,-0.094
14.100,0.041
14.105,0.111
14.110,-0.055
14.115,-0.013
14.120,0.130
14.125,-0.005
14.130,-0.070
14.135,0.105
14.140,0.063
14.145,-0.084
14.150,0.044
14.155,0.108
14.160,-0.060
14.165,-0.019
14.170,0.125
14.175,-0.005
14.180,-0.068
14.185,0.099
14.190,0.053
14.195,-0.093
14.200,0.031
14.205,0.081
14.210,-0.100
14.215,-0.058
14.220,0.090
14.225,-0.041
14.230,-0.104
14.235,0.051
14.240,-0.014
14.245,-0.149
14.250,0.007
14.255,0.084
14.260,-0.068
14.265,-0.009
14.270,0.133
14.275,-0.006
14.280,-0.073
14.285,0.085
14.290,0.040
14.295,-0.083
14.300,0.065
14.305,0.122
14.310,-0.061
14.315,-0.018
14.320,0.125
14.325,-0.014
14.330,-0.074
14.335,0.100
14.340,0.057
14.345,-0.091
14.350,0.030
14.355,0.085
14.360,-0.083
14.365,-0.034
14.370,0.101
14.375,-0.048
14.380,-0.140
14.385,-0.007
14.390,-0.054
14.395,-0.179
14.400,-0.067
14.405,-0.067
14.410,-0.229
14.415,0.053
14.420,0.380
14.425,0.070
14.430,-0.171
14.435,0.003
14.440,-0.018
14.445,-0.133
14.450,0.022
14.455,0.086
14.460,-0.083
14.465,-0.033
14.470,0.110
14.475,-0.024
14.480,-0.081
14.485,0.084
14.490,0.033
14.495,-0.104
14.500,0.034
14.505,0.088
14.510,-0.084
14.515,-0.036
14.520,0.103
14.525,-0.024
14.530,-0.075
14.535,0.084
14.540,0.024
14.545,-0.115
14.550,0.022
14.555,0.075
14.560,-0.093
14.565,-0.039
14.570,0.097
14.575,-0.044
14.580,-0.099
14.585,0.067
14.590,0.007
14.595,-0.132
14.600,0.009
14.605,0.063
14.610,-0.105
14.615,-0.051
14.620,0.078
14.625,-0.067
14.630,-0.123
14.635,0.040
14.640,-0.011
14.645,-0.144
14.650,-0.004
14.655,0.050
14.660,-0.126
14.665,-0.078
14.670,0.052
14.675,-0.097
14.680,-0.147
14.685,0.030
14.690,-0.022
14.695,-0.150
14.700,0.001
14.705,0.055
14.710,-0.115
14.715,-0.057
14.720,0.088
14.725,-0.031
14.730,-0.064
14.735,0.113
14.740,0.065
14.745,-0.071
14.750,0.058
14.755,0.102
14.760,-0.060
14.765,0.005
14.770,0.136
14.775,-0.011
14.780,-0.059
14.785,0.115
14.790,0.062
14.795,-0.073
14.800,0.056
14.805,0.094
14.810,-0.077
14.815,-0.019
14.820,0.117
14.825,-0.023
14.830,-0.073
14.835,0.093
14.840,0.033
14.845,-0.101
14.850,0.040
14.855,0.087
14.860,-0.079
14.865,-0.022
14.870,0.105
14.875,-0.034
14.880,-0.078
14.885,0.087
14.890,0.026
14.895,-0.109
14.900,0.034
14.905,0.085
14.910,-0.087
14.915,-0.029
14.920,0.108
14.925,-0.033
14.930,-0.081
14.935,0.085
14.940,0.020
14.945,-0.112
14.950,0.031
14.955,0.068
14.960,-0.111
14.965,-0.056
14.970,0.071
14.975,-0.075
14.980,-0.112
14.985,0.064
14.990,-0.004
14.995,-0.156
15.000,-0.017
15.005,0.049
15.010,-0.098
15.015,-0.020
15.020,0.126
15.025,-0.013
15.030,-0.066
15.035,0.092
15.040,0.032
15.045,-0.096
15.050,0.059
15.055,0.115
15.060,-0.051
15.065,0.008
15.070,0.133
15.075,-0.010
15.080,-0.051
15.085,0.109
15.090,0.039
15.095,-0.088
15.100,0.055
15.105,0.089
15.110,-0.080
15.115,-0.016
15.120,0.105
15.125,-0.043
15.130,-0.084
15.135,0.060
15.140,-0.045
15.145,-0.183
15.150,-0.019
15.155,0.010
15.160,-0.224
15.165,-0.211
15.170,0.057
15.175,0.169
15.180,0.101
15.185,0.045
15.190,-0.075
15.195,-0.160
15.200,0.012
15.205,0.076
15.210,-0.085
15.215,-0.018
15.220,0.114
15.225,-0.026
15.230,-0.061
15.235,0.109
15.240,0.042
15.245,-0.084
15.250,0.060
15.255,0.092
15.260,-0.078
15.265,-0.010
15.270,0.114
15.275,-0.034
15.280,-0.073
15.285,0.091
15.290,0.024
15.295,-0.099
15.300,0.043
15.305,0.077
15.310,-0.089
15.315,-0.022
15.320,0.102
15.325,-0.043
15.330,-0.077
15.335,0.092
15.340,0.023
15.345,-0.104
15.350,0.040
15.355,0.074
15.360,-0.094
15.365,-0.031
15.370,0.088
15.375,-0.057
15.380,-0.089
15.385,0.074
15.390,-0.007
15.395,-0.136
15.400,0.018
15.405,0.057
15.410,-0.111
15.415,-0.044
15.420,0.072
15.425,-0.084
15.430,-0.115
15.435,0.054
15.440,-0.018
15.445,-0.140
15.450,0.009
15.455,0.048
15.460,-0.109
15.465,-0.024
15.470,0.108
15.475,-0.037
15.480,-0.061
15.485,0.113
15.490,0.049
15.495,-0.067
15.500,0.085
15.505,0.119
15.510,-0.050
15.515,0.022
15.520,0.145
15.525,-0.010
15.530,-0.041
15.535,0.127
15.540,0.051
15.545,-0.072
15.550,0.075
15.555,0.104
15.560,-0.065
15.565,0.006
15.570,0.125
15.575,-0.026
15.580,-0.054
15.585,0.110
15.590,0.034
15.595,-0.085
15.600,0.063
15.605,0.088
15.610,-0.084
15.615,-0.009
15.620,0.114
15.625,-0.038
15.630,-0.065
15.635,0.103
15.640,0.024
15.645,-0.100
15.650,0.052
15.655,0.083
15.660,-0.087
15.665,-0.015
15.670,0.106
15.675,-0.038
15.680,-0.058
15.685,0.107
15.690,0.028
15.695,-0.092
15.700,0.056
15.705,0.081
15.710,-0.087
15.715,-0.009
15.720,0.108
15.725,-0.046
15.730,-0.071
15.735,0.091
15.740,0.001
15.745,-0.134
15.750,-0.001
15.755,0.021
15.760,-0.131
15.765,-0.049
15.770,0.055
15.775,-0.115
15.780,-0.133
15.785,0.056
15.790,-0.009
15.795,-0.108
15.800,0.066
15.805,0.096
15.810,-0.073
15.815,0.003
15.820,0.119
15.825,-0.032
15.830,-0.042
15.835,0.136
15.840,0.053
15.845,-0.066
15.850,0.088
15.855,0.109
15.860,-0.062
15.865,0.017
15.870,0.130
15.875,-0.025
15.880,-0.047
15.885,0.112
15.890,0.028
15.895,-0.087
15.900,0.063
15.905,0.079
15.910,-0.107
15.915,-0.068
15.920,0.007
15.925,-0.155
15.930,-0.167
15.935,-0.029
15.940,-0.178
15.945,-0.278
15.950,0.168
15.955,0.464
15.960,0.128
15.965,-0.037
15.970,0.045
15.975,-0.091
15.980,-0.089
15.985,0.093
15.990,0.009
15.995,-0.103
16.000,0.051
16.005,0.068
16.010,-0.094
16.015,-0.007
16.020,0.107
16.025,-0.049
16.030,-0.069
16.035,0.097
16.040,0.018
16.045,-0.091
16.050,0.063
16.055,0.078
16.060,-0.091
16.065,-0.009
16.070,0.099
16.075,-0.058
16.080,-0.072
16.085,0.093
16.090,0.006
16.095,-0.107
16.100,0.044
16.105,0.059
16.110,-0.109
16.115,-0.024
16.120,0.089
16.125,-0.068
16.130,-0.083
16.135,0.079
16.140,-0.009
16.145,-0.117
16.150,0.035
16.155,0.043
16.160,-0.126
16.165,-0.042
16.170,0.066
16.175,-0.089
16.180,-0.103
16.185,0.058
16.190,-0.033
16.195,-0.144
16.200,0.008
16.205,0.017
16.210,-0.145
16.215,-0.056
16.220,0.054
16.225,-0.095
16.230,-0.101
16.235,0.069
16.240,-0.003
16.245,-0.099
16.250,0.062
16.255,0.083
16.260,-0.075
16.265,0.022
16.270,0.139
16.275,-0.014
16.280,-0.022
16.285,0.144
16.290,0.055
16.295,-0.056
16.300,0.100
16.305,0.109
16.310,-0.059
16.315,0.032
16.320,0.139
16.325,-0.020
16.330,-0.030
16.335,0.130
16.340,0.039
16.345,-0.067
16.350,0.087
16.355,0.093
16.360,-0.072
16.365,0.018
16.370,0.123
16.375,-0.036
16.380,-0.046
16.385,0.113
16.390,0.019
16.395,-0.088
16.400,0.067
16.405,0.075
16.410,-0.085
16.415,0.007
16.420,0.111
16.425,-0.046
16.430,-0.054
16.435,0.107
16.440,0.015
16.445,-0.089
16.450,0.069
16.455,0.076
16.460,-0.087
16.465,0.005
16.470,0.109
16.475,-0.048
16.480,-0.055
16.485,0.106
16.490,0.012
16.495,-0.094
16.500,0.065
16.505,0.075
16.510,-0.088
16.515,0.004
16.520,0.104
16.525,-0.055
16.530,-0.062
16.535,0.090
16.540,-0.020
16.545,-0.141
16.550,0.007
16.555,0.018
16.560,-0.128
16.565,-0.041
16.570,0.035
16.575,-0.130
16.580,-0.112
16.585,0.072
16.590,-0.007
16.595,-0.084
16.600,0.095
16.605,0.090
16.610,-0.077
16.615,0.024
16.620,0.127
16.625,-0.027
16.630,-0.019
16.635,0.146
16.640,0.047
16.645,-0.056
16.650,0.102
16.655,0.101
16.660,-0.066
16.665,0.031
16.670,0.134
16.675,-0.030
16.680,-0.037
16.685,0.123
16.690,0.022
16.695,-0.083
16.700,0.075
16.705,0.068
16.710,-0.127
16.715,-0.079
16.720,-0.005
16.725,-0.165
16.730,-0.180
16.735,-0.074
16.740,-0.220
16.745,-0.130
16.750,0.388
16.755,0.395
16.760,-0.038
16.765,-0.055
16.770,0.050
16.775,-0.102
16.780,-0.077
16.785,0.098
16.790,-0.007
16.795,-0.104
16.800,0.060
16.805,0.056
16.810,-0.100
16.815,0.004
16.820,0.099
16.825,-0.063
16.830,-0.061
16.835,0.097
16.840,-0.003
16.845,-0.101
16.850,0.057
16.855,0.058
16.860,-0.101
16.865,-0.005
16.870,0.090
16.875,-0.073
16.880,-0.072
16.885,0.087
16.890,-0.015
16.895,-0.113
16.900,0.049
16.905,0.048
16.910,-0.115
16.915,-0.017
16.920,0.079
16.925,-0.087
16.930,-0.087
16.935,0.073
16.940,-0.030
16.945,-0.126
16.950,0.034
16.955,0.025
16.960,-0.135
16.965,-0.027
16.970,0.068
16.975,-0.104
16.980,-0.102
16.985,0.060
16.990,-0.047
16.995,-0.142
17.000,0.017
17.005,0.009
17.010,-0.151
17.015,-0.052
17.020,0.045
17.025,-0.108
17.030,-0.091
17.035,0.077
17.040,-0.016
17.045,-0.096
17.050,0.078
17.055,0.077
17.060,-0.074
17.065,0.038
17.070,0.135
17.075,-0.024
17.080,-0.017
17.085,0.143
17.090,0.041
17.095,-0.053
17.100,0.105
17.105,0.094
17.110,-0.065
17.115,0.040
17.120,0.132
17.125,-0.031
17.130,-0.021
17.135,0.136
17.140,0.028
17.145,-0.068
17.150,0.088
17.155,0.078
17.160,-0.078
17.165,0.027
17.170,0.119
17.175,-0.045
17.180,-0.038
17.185,0.118
17.190,0.010
17.195,-0.083
17.200,0.077
17.205,0.065
17.210,-0.091
17.215,0.015
17.220,0.108
17.225,-0.054
17.230,-0.042
17.235,0.112
17.240,-0.003
17.245,-0.094
17.250,0.073
17.255,0.062
17.260,-0.096
17.265,0.015
17.270,0.107
17.275,-0.060
17.280,-0.052
17.285,0.105
17.290,-0.002
17.295,-0.092
17.300,0.071
17.305,0.060
17.310,-0.096
17.315,0.011
17.320,0.098
17.325,-0.070
17.330,-0.059
17.335,0.098
17.340,-0.010
17.345,-0.098
17.350,0.063
17.355,0.051
17.360,-0.108
17.365,-0.009
17.370,0.059
17.375,-0.127
17.380,-0.116
17.385,0.053
17.390,-0.049
17.395,-0.154
17.400,-0.010
17.405,-0.015
17.410,-0.148
17.415,-0.020
17.420,0.085
17.425,-0.056
17.430,-0.025
17.435,0.123
17.440,0.006
17.445,-0.071
17.450,0.100
17.455,0.096
17.460,-0.044
17.465,0.065
17.470,0.147
17.475,-0.019
17.480,-0.006
17.485,0.143
17.490,0.027
17.495,-0.056
17.500,0.105
17.505,0.086
17.510,-0.068
17.515,0.040
17.520,0.118
17.525,-0.047
17.530,-0.029
17.535,0.105
17.540,-0.054
17.545,-0.178
17.550,-0.027
17.555,-0.055
17.560,-0.251
17.565,-0.202
17.570,-0.074
17.575,0.085
17.580,0.350
17.585,0.302
17.590,-0.037
17.595,-0.138
17.600,0.036
17.605,0.034
17.610,-0.098
17.615,0.021
17.620,0.106
17.625,-0.061
17.630,-0.045
17.635,0.109
17.640,-0.005
17.645,-0.087
17.650,0.081
17.655,0.062
17.660,-0.092
17.665,0.021
17.670,0.100
17.675,-0.065
17.680,-0.043
17.685,0.106
17.690,-0.012
17.695,-0.093
17.700,0.070
17.705,0.049
17.710,-0.102
17.715,0.014
17.720,0.091
17.725,-0.079
17.730,-0.057
17.735,0.089
17.740,-0.031
17.745,-0.108
17.750,0.055
17.755,0.028
17.760,-0.125
17.765,-0.008
17.770,0.067
17.775,-0.101
17.780,-0.077
17.785,0.069
17.790,-0.055
17.795,-0.134
17.800,0.031
17.805,0.007
17.810,-0.145
17.815,-0.028
17.820,0.047
17.825,-0.126
17.830,-0.100
17.835,0.050
17.840,-0.069
17.845,-0.143
17.850,0.027
17.855,0.005
17.860,-0.137
17.865,-0.009
17.870,0.077
17.875,-0.080
17.880,-0.042
17.885,0.117
17.890,0.006
17.895,-0.063
17.900,0.107
17.905,0.083
17.910,-0.063
17.915,0.057
17.920,0.130
17.925,-0.039
17.930,-0.012
17.935,0.136
17.940,0.015
17.945,-0.059
17.950,0.107
17.955,0.076
17.960,-0.076
17.965,0.043
17.970,0.116
17.975,-0.053
17.980,-0.025
17.985,0.123
17.990,0.000
17.995,-0.076
18.000,0.090
18.005,0.058
18.010,-0.093
18.015,0.030
18.020,0.102
18.025,-0.067
18.030,-0.037
18.035,0.109
18.040,-0.017
18.045,-0.090
18.050,0.080
18.055,0.049
18.060,-0.098
18.065,0.028
18.070,0.098
18.075,-0.070
18.080,-0.035
18.085,0.114
18.090,-0.008
18.095,-0.080
18.100,0.083
18.105,0.047
18.110,-0.097
18.115,0.030
18.120,0.099
18.125,-0.072
18.130,-0.038
18.135,0.112
18.140,-0.012
18.145,-0.085
18.150,0.082
18.155,0.049
18.160,-0.100
18.165,0.022
18.170,0.091
18.175,-0.079
18.180,-0.048
18.185,0.095
18.190,-0.045
18.195,-0.139
18.200,0.014
18.205,-0.014
18.210,-0.143
18.215,-0.022
18.220,0.021
18.225,-0.155
18.230,-0.103
18.235,0.069
18.240,-0.037
18.245,-0.090
18.250,0.100
18.255,0.066
18.260,-0.088
18.265,0.045
18.270,0.119
18.275,-0.043
18.280,0.007
18.285,0.157
18.290,0.026
18.295,-0.040
18.300,0.125
18.305,0.083
18.310,-0.063
18.315,0.056
18.320,0.119
18.325,-0.048
18.330,-0.009
18.335,0.135
18.340,0.005
18.345,-0.063
18.350,0.100
18.355,0.054
18.360,-0.120
18.365,-0.042
18.370,0.005
18.375,-0.156
18.380,-0.138
18.385,-0.050
18.390,-0.217
18.395,-0.116
18.400,0.357
18.405,0.319
18.410,-0.073
18.415,-0.042
18.420,0.044
18.425,-0.104
18.430,-0.035
18.435,0.123
18.440,-0.005
18.445,-0.072
18.450,0.091
18.455,0.051
18.460,-0.090
18.465,0.039
18.470,0.101
18.475,-0.070
18.480,-0.032
18.485,0.113
18.490,-0.012
18.495,-0.073
18.500,0.093
18.505,0.050
18.510,-0.097
18.515,0.028
18.520,0.090
18.525,-0.078
18.530,-0.035
18.535,0.107
18.540,-0.025
18.545,-0.090
18.550,0.071
18.555,0.023
18.560,-0.115
18.565,0.018
18.570,0.079
18.575,-0.084
18.580,-0.039
18.585,0.095
18.590,-0.042
18.595,-0.107
18.600,0.060
18.605,0.012
18.610,-0.136
18.615,-0.006
18.620,0.059
18.625,-0.109
18.630,-0.069
18.635,0.069
18.640,-0.067
18.645,-0.130
18.650,0.034
18.655,-0.016
18.660,-0.157
18.665,-0.022
18.670,0.038
18.675,-0.128
18.680,-0.080
18.685,0.069
18.690,-0.050
18.695,-0.098
18.700,0.080
18.705,0.045
18.710,-0.089
18.715,0.048
18.720,0.110
18.725,-0.057
18.730,-0.003
18.735,0.142
18.740,0.003
18.745,-0.058
18.750,0.110
18.755,0.063
18.760,-0.076
18.765,0.056
18.770,0.113
18.775,-0.056
18.780,-0.011
18.785,0.127
18.790,-0.006
18.795,-0.065
18.800,0.096
18.805,0.052
18.810,-0.080
18.815,0.049
18.820,0.096
18.825,-0.078
18.830,-0.032
18.835,0.115
18.840,-0.012
18.845,-0.069
18.850,0.094
18.855,0.041
18.860,-0.101
18.865,0.033
18.870,0.090
18.875,-0.078
18.880,-0.028
18.885,0.111
18.890,-0.026
18.895,-0.081
18.900,0.083
18.905,0.026
18.910,-0.109
18.915,0.037
18.920,0.098
18.925,-0.073
18.930,-0.027
18.935,0.107
18.940,-0.028
18.945,-0.085
18.950,0.077
18.955,0.031
18.960,-0.097
18.965,0.038
18.970,0.088
18.975,-0.080
18.980,-0.024
18.985,0.113
18.990,-0.030
18.995,-0.094
19.000,0.058
19.005,-0.012
19.010,-0.160
19.015,-0.016
19.020,0.056
19.025,-0.112
19.030,-0.085
19.035,0.030
19.040,-0.093
19.045,-0.111
19.050,0.075
19.055,0.034
19.060,-0.085
19.065,0.051
19.070,0.092
19.075,-0.075
19.080,-0.013
19.085,0.130
19.090,0.005
19.095,-0.035
19.100,0.129
19.105,0.067
19.110,-0.077
19.115,0.059
19.120,0.114
19.125,-0.052
19.130,-0.001
19.135,0.126
19.140,-0.020
19.145,-0.067
19.150,0.107
19.155,0.052
19.160,-0.091
19.165,0.044
19.170,0.076
19.175,-0.131
19.180,-0.096
19.185,0.052
19.190,-0.079
19.195,-0.170
19.200,-0.078
19.205,-0.108
19.210,0.000
19.215,0.265
19.220,0.113
19.225,-0.191
19.230,-0.100
19.235,0.065
19.240,-0.044
19.245,-0.066
19.250,0.106
19.255,0.042
19.260,-0.092
19.265,0.054
19.270,0.101
19.275,-0.072
19.280,-0.015
19.285,0.120
19.290,-0.021
19.295,-0.068
19.300,0.101
19.305,0.042
19.310,-0.091
19.315,0.048
19.320,0.087
19.325,-0.083
19.330,-0.025
19.335,0.101
19.340,-0.043
19.345,-0.086
19.350,0.086
19.355,0.031
19.360,-0.103
19.365,0.031
19.370,0.074
19.375,-0.096
19.380,-0.038
19.385,0.093
19.390,-0.048
19.395,-0.092
19.400,0.070
19.405,0.005
19.410,-0.128
19.415,0.011
19.420,0.057
19.425,-0.111
19.430,-0.050
19.435,0.080
19.440,-0.064
19.445,-0.111
19.450,0.052
19.455,-0.016
19.460,-0.151
19.465,-0.008
19.470,0.035
19.475,-0.137
19.480,-0.073
19.485,0.059
19.490,-0.081
19.495,-0.116
19.500,0.058
19.505,0.004
19.510,-0.111
19.515,0.044
19.520,0.092
19.525,-0.071
19.530,-0.004
19.535,0.123
19.540,-0.018
19.545,-0.053
19.550,0.116
19.555,0.053
19.560,-0.077
19.565,0.064
19.570,0.103
19.575,-0.065
19.580,-0.006
19.585,0.118
19.590,-0.026
19.595,-0.063
19.600,0.104
19.605,0.040
19.610,-0.086
19.615,0.059
19.620,0.097
19.625,-0.073
19.630,-0.008
19.635,0.117
19.640,-0.029
19.645,-0.061
19.650,0.108
19.655,0.040
19.660,-0.089
19.665,0.054
19.670,0.091
19.675,-0.075
19.680,-0.007
19.685,0.116
19.690,-0.031
19.695,-0.066
19.700,0.102
19.705,0.033
19.710,-0.094
19.715,0.051
19.720,0.087
19.725,-0.079
19.730,-0.009
19.735,0.117
19.740,-0.029
19.745,-0.063
19.750,0.106
19.755,0.036
19.760,-0.094
19.765,0.050
19.770,0.084
19.775,-0.084
19.780,-0.013
19.785,0.110
19.790,-0.039
19.795,-0.071
19.800,0.099
19.805,0.026
19.810,-0.109
19.815,0.023
19.820,0.049
19.825,-0.119
19.830,-0.050
19.835,0.078
19.840,-0.061
19.845,-0.106
19.850,0.046
19.855,-0.013
19.860,-0.112
19.865,0.052
19.870,0.095
19.875,-0.066
19.880,0.010
19.885,0.130
19.890,-0.025
19.895,-0.064
19.900,0.101
19.905,0.042
19.910,-0.070
19.915,0.075
19.920,0.101
19.925,-0.069
19.930,0.001
19.935,0.125
19.940,-0.025
19.945,-0.060
19.950,0.105
19.955,0.031
19.960,-0.094
19.965,0.054
19.970,0.081
19.975,-0.088
19.980,-0.011
19.985,0.093
19.990,-0.102
19.995,-0.172
20.000,-0.012
20.005,-0.085
20.010,-0.246
20.015,-0.174
20.020,-0.125
20.025,0.008
20.030,0.332
20.035,0.273
20.040,-0.093
20.045,-0.134
20.050,0.053
20.055,0.002
20.060,-0.097
20.065,0.053
20.070,0.082
20.075,-0.085
20.080,-0.014
20.085,0.108
20.090,-0.042
20.095,-0.070
20.100,0.099
20.105,0.024
20.110,-0.096
20.115,0.052
20.120,0.079
20.125,-0.087
20.130,-0.012
20.135,0.110
20.140,-0.040
20.145,-0.067
20.150,0.098
20.155,0.017
20.160,-0.102
20.165,0.048
20.170,0.073
20.175,-0.094
20.180,-0.019
20.185,0.098
20.190,-0.052
20.195,-0.076
20.200,0.087
20.205,0.007
20.210,-0.111
20.215,0.038
20.220,0.064
20.225,-0.102
20.230,-0.027
20.235,0.092
20.240,-0.063
20.245,-0.094
20.250,0.068
20.255,-0.012
20.260,-0.130
20.265,0.016
20.270,0.034
20.275,-0.138
20.280,-0.062
20.285,0.056
20.290,-0.099
20.295,-0.125
20.300,0.043
20.305,-0.028
20.310,-0.132
20.315,0.029
20.320,0.061
20.325,-0.095
20.330,-0.008
20.335,0.116
20.340,-0.027
20.345,-0.039
20.350,0.128
20.355,0.046
20.360,-0.066
20.365,0.084
20.370,0.105
20.375,-0.056
20.380,0.024
20.385,0.136
20.390,-0.017
20.395,-0.035
20.400,0.125
20.405,0.039
20.410,-0.073
20.415,0.077
20.420,0.096
20.425,-0.068
20.430,0.012
20.435,0.125
20.440,-0.030
20.445,-0.052
20.450,0.109
20.455,0.023
20.460,-0.091
20.465,0.062
20.470,0.083
20.475,-0.083
20.480,-0.003
20.485,0.112
20.490,-0.040
20.495,-0.058
20.500,0.106
20.505,0.022
20.510,-0.091
20.515,0.062
20.520,0.079
20.525,-0.089
20.530,-0.006
20.535,0.107
20.540,-0.049
20.545,-0.068
20.550,0.102
20.555,0.021
20.560,-0.096
20.565,0.056
20.570,0.073
20.575,-0.094
20.580,-0.007
20.585,0.106
20.590,-0.049
20.595,-0.064
20.600,0.101
20.605,0.015
20.610,-0.099
20.615,0.055
20.620,0.072
20.625,-0.098
20.630,-0.013
20.635,0.097
20.640,-0.069
20.645,-0.095
20.650,0.066
20.655,-0.019
20.660,-0.130
20.665,0.029
20.670,0.046
20.675,-0.133
20.680,-0.056
20.685,0.071
20.690,-0.065
20.695,-0.062
20.700,0.114
20.705,0.035
20.710,-0.072
20.715,0.075
20.720,0.083
20.725,-0.090
20.730,-0.009
20.735,0.115
20.740,-0.028
20.745,-0.044
20.750,0.118
20.755,0.030
20.760,-0.084
20.765,0.068
20.770,0.079
20.775,-0.087
20.780,0.003
20.785,0.112
20.790,-0.048
20.795,-0.062
20.800,0.101
20.805,0.010
20.810,-0.102
20.815,0.032
20.820,0.000
20.825,-0.202
20.830,-0.124
20.835,-0.028
20.840,-0.233
20.845,-0.307
20.850,-0.046
20.855,0.222
20.860,0.278
20.865,0.189
20.870,0.020
20.875,-0.142
20.880,-0.042
20.885,0.089
20.890,-0.048
20.895,-0.058
20.900,0.107
20.905,0.019
20.910,-0.088
20.915,0.069
20.920,0.078
20.925,-0.086
20.930,0.006
20.935,0.111
20.940,-0.047
20.945,-0.054
20.950,0.108
20.955,0.015
20.960,-0.090
20.965,0.068
20.970,0.076
20.975,-0.086
20.980,0.004
20.985,0.105
20.990,-0.055
20.995,-0.061
21.000,0.103
21.005,0.010
21.010,-0.097
21.015,0.058
21.020,0.064
21.025,-0.098
21.030,-0.008
21.035,0.092
21.040,-0.071
21.045,-0.081
21.050,0.079
21.055,-0.017
21.060,-0.124
21.065,0.035
21.070,0.042
21.075,-0.126
21.080,-0.038
21.085,0.066
21.090,-0.093
21.095,-0.102
21.100,0.055
21.105,-0.041
21.110,-0.145
21.115,0.013
21.120,0.018
21.125,-0.141
21.130,-0.042
21.135,0.067
21.140,-0.080
21.145,-0.074
21.150,0.098
21.155,0.014
21.160,-0.082
21.165,0.081
21.170,0.091
21.175,-0.063
21.180,0.037
21.185,0.140
21.190,-0.021
21.195,-0.022
21.200,0.140
21.205,0.039
21.210,-0.065
21.215,0.096
21.220,0.096
21.225,-0.069
21.230,0.030
21.235,0.130
21.240,-0.031
21.245,-0.033
21.250,0.125
21.255,0.024
21.260,-0.079
21.265,0.082
21.270,0.083
21.275,-0.080
21.280,0.017
21.285,0.114
21.290,-0.048
21.295,-0.047
21.300,0.113
21.305,0.011
21.310,-0.088
21.315,0.071
21.320,0.066
21.325,-0.098
21.330,0.002
21.335,0.103
21.340,-0.059
21.345,-0.059
21.350,0.101
21.355,-0.002
21.360,-0.100
21.365,0.062
21.370,0.062
21.375,-0.097
21.380,0.003
21.385,0.100
21.390,-0.062
21.395,-0.058
21.400,0.101
21.405,-0.002
21.410,-0.098
21.415,0.064
21.420,0.063
21.425,-0.097
21.430,0.002
21.435,0.097
21.440,-0.065
21.445,-0.060
21.450,0.099
21.455,-0.004
21.460,-0.101
21.465,0.052
21.470,0.036
21.475,-0.126
21.480,-0.025
21.485,0.068
21.490,-0.090
21.495,-0.082
21.500,0.066
21.505,-0.049
21.510,-0.133
21.515,0.052
21.520,0.066
21.525,-0.082
21.530,0.029
21.535,0.131
21.540,-0.035
21.545,-0.040
21.550,0.106
21.555,-0.004
21.560,-0.086
21.565,0.090
21.570,0.080
21.575,-0.086
21.580,0.016
21.585,0.111
21.590,-0.051
21.595,-0.049
21.600,0.109
21.605,0.007
21.610,-0.090
21.615,0.068
21.620,0.059
21.625,-0.102
21.630,0.001
21.635,0.096
21.640,-0.079
21.645,-0.115
21.650,-0.001
21.655,-0.119
21.660,-0.215
21.665,-0.090
21.670,-0.166
21.675,-0.299
21.680,0.117
21.685,0.478
21.690,0.138
21.695,-0.083
21.700,0.050
21.705,-0.045
21.710,-0.116
21.715,0.068
21.720,0.062
21.725,-0.093
21.730,0.015
21.735,0.107
21.740,-0.056
21.745,-0.045
21.750,0.115
21.755,0.007
21.760,-0.086
21.765,0.081
21.770,0.073
21.775,-0.087
21.780,0.017
21.785,0.107
21.790,-0.058
21.795,-0.050
21.800,0.108
21.805,0.003
21.810,-0.088
21.815,0.072
21.820,0.061
21.825,-0.094
21.830,0.012
21.835,0.100
21.840,-0.065
21.845,-0.055
21.850,0.097
21.855,-0.012
21.860,-0.099
21.865,0.061
21.870,0.045
21.875,-0.114
21.880,-0.008
21.885,0.078
21.890,-0.089
21.895,-0.076
21.900,0.077
21.905,-0.039
21.910,-0.128
21.915,0.033
21.920,0.016
21.925,-0.138
21.930,-0.031
21.935,0.047
21.940,-0.123
21.945,-0.107
21.950,0.054
21.955,-0.055
21.960,-0.139
21.965,0.035
21.970,0.032
21.975,-0.113
21.980,0.008
21.985,0.101
21.990,-0.057
21.995,-0.030
22.000,0.131
22.005,0.022
22.010,-0.058
22.015,0.105
22.020,0.087
22.025,-0.065
22.030,0.047
22.035,0.131
22.040,-0.036
22.045,-0.019
22.050,0.134
22.055,0.020
22.060,-0.063
22.065,0.097
22.070,0.078
22.075,-0.072
22.080,0.035
22.085,0.116
22.090,-0.048
22.095,-0.032
22.100,0.125
22.105,0.012
22.110,-0.078
22.115,0.084
22.120,0.067
22.125,-0.087
22.130,0.025
22.135,0.109
22.140,-0.058
22.145,-0.040
22.150,0.111
22.155,-0.006
22.160,-0.089
22.165,0.076
22.170,0.061
22.175,-0.088
22.180,0.025
22.185,0.106
22.190,-0.061
22.195,-0.042
22.200,0.108
22.205,-0.011
22.210,-0.090
22.215,0.081
22.220,0.064
22.225,-0.088
22.230,0.027
22.235,0.104
22.240,-0.063
22.245,-0.040
22.250,0.112
22.255,-0.007
22.260,-0.087
22.265,0.080
22.270,0.057
22.275,-0.099
22.280,0.017
22.285,0.098
22.290,-0.068
22.295,-0.051
22.300,0.087
22.305,-0.038
22.310,-0.112
22.315,0.059
22.320,0.033
22.325,-0.116
22.330,0.004
22.335,0.067
22.340,-0.109
22.345,-0.068
22.350,0.103
22.355,-0.008
22.360,-0.078
22.365,0.101
22.370,0.077
22.375,-0.085
22.380,0.020
22.385,0.091
22.390,-0.073
22.395,-0.036
22.400,0.121
22.405,-0.002
22.410,-0.080
22.415,0.086
22.420,0.058
22.425,-0.093
22.430,0.024
22.435,0.101
22.440,-0.068
22.445,-0.046
22.450,0.104
22.455,-0.013
22.460,-0.090
22.465,0.073
22.470,0.039
22.475,-0.137
22.480,-0.061
22.485,-0.007
22.490,-0.168
22.495,-0.150
22.500,-0.055
22.505,-0.229
22.510,-0.173
22.515,0.304
22.520,0.328
22.525,-0.062
22.530,-0.054
22.535,0.048
22.540,-0.099
22.545,-0.049
22.550,0.115
22.555,0.001
22.560,-0.070
22.565,0.096
22.570,0.068
22.575,-0.081
22.580,0.041
22.585,0.118
22.590,-0.050
22.595,-0.023
22.600,0.125
22.605,0.009
22.610,-0.063
22.615,0.096
22.620,0.063
22.625,-0.082
22.630,0.038
22.635,0.109
22.640,-0.057
22.645,-0.030
22.650,0.116
22.655,-0.005
22.660,-0.078
22.665,0.086
22.670,0.056
22.675,-0.091
22.680,0.028
22.685,0.093
22.690,-0.079
22.695,-0.050
22.700,0.093
22.705,-0.032
22.710,-0.103
22.715,0.057
22.720,0.019
22.725,-0.128
22.730,-0.001
22.735,0.070
22.740,-0.104
22.745,-0.073
22.750,0.075
22.755,-0.051
22.760,-0.126
22.765,0.036
22.770,-0.001
22.775,-0.153
22.780,-0.031
22.785,0.043
22.790,-0.121
22.795,-0.086
22.800,0.065
22.805,-0.051
22.810,-0.114
22.815,0.060
22.820,0.035
22.825,-0.100
22.830,0.034
22.835,0.104
22.840,-0.062
22.845,-0.018
22.850,0.131
22.855,0.003
22.860,-0.067
22.865,0.103
22.870,0.067
22.875,-0.082
22.880,0.042
22.885,0.108
22.890,-0.060
22.895,-0.021
22.900,0.120
22.905,-0.007
22.910,-0.067
22.915,0.096
22.920,0.047
22.925,-0.098
22.930,0.033
22.935,0.097
22.940,-0.071
22.945,-0.035
22.950,0.106
22.955,-0.018
22.960,-0.083
22.965,0.081
22.970,0.038
22.975,-0.107
22.980,0.022
22.985,0.088
22.990,-0.079
22.995,-0.045
23.000,0.096
23.005,-0.028
23.010,-0.093
23.015,0.071
23.020,0.034
23.025,-0.105
23.030,0.021
23.035,0.086
23.040,-0.078
23.045,-0.043
23.050,0.092
23.055,-0.035
23.060,-0.091
23.065,0.081
23.070,0.041
23.075,-0.105
23.080,0.022
23.085,0.089
23.090,-0.079
23.095,-0.040
23.100,0.103
23.105,-0.032
23.110,-0.100
23.115,0.063
23.120,0.017
23.125,-0.121
23.130,0.009
23.135,0.071
23.140,-0.091
23.145,-0.056
23.150,0.078
23.155,-0.039
23.160,-0.080
23.165,0.092
23.170,0.048
23.175,-0.082
23.180,0.061
23.185,0.116
23.190,-0.068
23.195,-0.033
23.200,0.110
23.205,-0.011
23.210,-0.060
23.215,0.107
23.220,0.059
23.225,-0.081
23.230,0.046
23.235,0.106
23.240,-0.064
23.245,-0.025
23.250,0.117
23.255,-0.009
23.260,-0.071
23.265,0.091
23.270,0.048
23.275,-0.096
23.280,0.026
23.285,0.080
23.290,-0.105
23.295,-0.092
23.300,0.034
23.305,-0.084
23.310,-0.148
23.315,-0.041
23.320,-0.145
23.325,-0.182
23.330,0.194
23.335,0.264
23.340,-0.118
23.345,-0.135
23.350,0.050
23.355,-0.064
23.360,-0.093
23.365,0.097
23.370,0.055
23.375,-0.082
23.380,0.049
23.385,0.099
23.390,-0.069
23.395,-0.017
23.400,0.122
23.405,-0.013
23.410,-0.066
23.415,0.100
23.420,0.048
23.425,-0.088
23.430,0.042
23.435,0.094
23.440,-0.073
23.445,-0.021
23.450,0.113
23.455,-0.025
23.460,-0.073
23.465,0.096
23.470,0.044
23.475,-0.097
23.480,0.032
23.485,0.086
23.490,-0.083
23.495,-0.035
23.500,0.103
23.505,-0.032
23.510,-0.088
23.515,0.077
23.520,0.025
23.525,-0.111
23.530,0.020
23.535,0.074
23.540,-0.094
23.545,-0.051
23.550,0.081
23.555,-0.053
23.560,-0.101
23.565,0.066
23.570,0.008
23.575,-0.129
23.580,0.004
23.585,0.049
23.590,-0.123
23.595,-0.074
23.600,0.061
23.605,-0.074
23.610,-0.120
23.615,0.060
23.620,0.021
23.625,-0.105
23.630,0.043
23.635,0.102
23.640,-0.066
23.645,-0.007
23.650,0.140
23.655,0.005
23.660,-0.043
23.665,0.127
23.670,0.073
23.675,-0.065
23.680,0.068
23.685,0.117
23.690,-0.053
23.695,-0.004
23.700,0.126
23.705,-0.014
23.710,-0.062
23.715,0.107
23.720,0.052
23.725,-0.083
23.730,0.053
23.735,0.100
23.740,-0.068
23.745,-0.013
23.750,0.122
23.755,-0.020
23.760,-0.070
23.765,0.098
23.770,0.043
23.775,-0.092
23.780,0.039
23.785,0.087
23.790,-0.080
23.795,-0.023
23.800,0.112
23.805,-0.027
23.810,-0.074
23.815,0.094
23.820,0.035
23.825,-0.102
23.830,0.035
23.835,0.083
23.840,-0.087
23.845,-0.029
23.850,0.103
23.855,-0.039
23.860,-0.085
23.865,0.083
23.870,0.028
23.875,-0.104
23.880,0.034
23.885,0.082
23.890,-0.086
23.895,-0.029
23.900,0.102
23.905,-0.037
23.910,-0.083
23.915,0.079
23.920,0.020
23.925,-0.114
23.930,0.015
23.935,0.054
23.940,-0.110
23.945,-0.048
23.950,0.076
23.955,-0.064
23.960,-0.100
23.965,0.057
23.970,-0.011
23.975,-0.130
23.980,0.026
23.985,0.081
23.990,-0.072
23.995,0.003
24.000,0.132
24.005,-0.023
24.010,-0.082
24.015,0.078
24.020,0.020
24.025,-0.098
24.030,0.055
24.035,0.095
24.040,-0.075
24.045,-0.013
24.050,0.113
24.055,-0.033
24.060,-0.076
24.065,0.091
24.070,0.031
24.075,-0.101
24.080,0.036
24.085,0.077
24.090,-0.094
24.095,-0.035
24.100,0.094
24.105,-0.065
24.110,-0.150
24.115,-0.021
24.120,-0.088
24.125,-0.219
24.130,-0.126
24.135,-0.157
24.140,-0.266
24.145,0.124
24.150,0.455
24.155,0.094
24.160,-0.139
24.165,0.033
24.170,-0.012
24.175,-0.120
24.180,0.044
24.185,0.088
24.190,-0.082
24.195,-0.017
24.200,0.112
24.205,-0.031
24.210,-0.071
24.215,0.097
24.220,0.034
24.225,-0.090
24.230,0.057
24.235,0.096
24.240,-0.073
24.245,-0.007
24.250,0.120
24.255,-0.026
24.260,-0.063
24.265,0.107
24.270,0.043
24.275,-0.083
24.280,0.058
24.285,0.093
24.290,-0.075
24.295,-0.007
24.300,0.120
24.305,-0.027
24.310,-0.068
24.315,0.097
24.320,0.027
24.325,-0.105
24.330,0.039
24.335,0.077
24.340,-0.095
24.345,-0.032
24.350,0.090
24.355,-0.059
24.360,-0.096
24.365,0.071
24.370,0.001
24.375,-0.127
24.380,0.018
24.385,0.053
24.390,-0.118
24.395,-0.055
24.400,0.068
24.405,-0.080
24.410,-0.118
24.415,0.050
24.420,-0.018
24.425,-0.137
24.430,0.018
24.435,0.061
24.440,-0.096
24.445,-0.014
24.450,0.119
24.455,-0.023
24.460,-0.051
24.465,0.121
24.470,0.052
24.475,-0.072
24.480,0.076
24.485,0.112
24.490,-0.055
24.495,0.013
24.500,0.136
24.505,-0.012
24.510,-0.047
24.515,0.121
24.520,0.051
24.525,-0.074
24.530,0.072
24.535,0.106
24.540,-0.065
24.545,0.001
24.550,0.123
24.555,-0.026
24.560,-0.060
24.565,0.108
24.570,0.034
24.575,-0.092
24.580,0.057
24.585,0.087
24.590,-0.081
24.595,-0.007
24.600,0.114
24.605,-0.036
24.610,-0.065
24.615,0.105
24.620,0.034
24.625,-0.090
24.630,0.057
24.635,0.086
24.640,-0.079
24.645,-0.005
24.650,0.116
24.655,-0.034
24.660,-0.062
24.665,0.103
24.670,0.030
24.675,-0.088
24.680,0.057
24.685,0.080
24.690,-0.090
24.695,-0.016
24.700,0.107
24.705,-0.044
24.710,-0.071
24.715,0.097
24.720,0.018
24.725,-0.106
24.730,0.041
24.735,0.067
24.740,-0.101
24.745,-0.031
24.750,0.080
24.755,-0.076
24.760,-0.093
24.765,0.082
24.770,-0.007
24.775,-0.133
24.780,0.027
24.785,0.049
24.790,-0.135
24.795,-0.054
24.800,0.086
24.805,-0.050
24.810,-0.063
24.815,0.117
24.820,0.040
24.825,-0.091
24.830,0.048
24.835,0.063
24.840,-0.105
24.845,-0.016
24.850,0.115
24.855,-0.038
24.860,-0.068
24.865,0.101
24.870,0.022
24.875,-0.099
24.880,0.051
24.885,0.075
24.890,-0.092
24.895,-0.015
24.900,0.103
24.905,-0.051
24.910,-0.075
24.915,0.090
24.920,0.009
24.925,-0.120
24.930,-0.011
24.935,-0.033
24.940,-0.211
24.945,-0.140
24.950,-0.063
24.955,-0.284
24.960,-0.288
24.965,0.195
24.970,0.413
24.975,0.132
24.980,0.034
24.985,0.019
24.990,-0.135
24.995,-0.035
25.000,0.104
25.005,-0.044
25.010,-0.066
25.015,0.101
25.020,0.023
25.025,-0.087
25.030,0.068
25.035,0.089
25.040,-0.079
25.045,0.002
25.050,0.118
25.055,-0.036
25.060,-0.052
25.065,0.115
25.070,0.032
25.075,-0.083
25.080,0.068
25.085,0.088
25.090,-0.079
25.095,0.002
25.100,0.119
25.105,-0.036
25.110,-0.059
25.115,0.103
25.120,0.020
25.125,-0.093
25.130,0.058
25.135,0.073
25.140,-0.096
25.145,-0.016
25.150,0.095
25.155,-0.063
25.160,-0.087
25.165,0.074
25.170,-0.012
25.175,-0.130
25.180,0.017
25.185,0.032
25.190,-0.134
25.195,-0.049
25.200,0.063
25.205,-0.093
25.210,-0.109
25.215,0.052
25.220,-0.037
25.225,-0.147
25.230,0.009
25.235,0.024
25.240,-0.140
25.245,-0.048
25.250,0.072
25.255,-0.072
25.260,-0.074
25.265,0.099
25.270,0.018
25.275,-0.086
25.280,0.077
25.285,0.100
25.290,-0.061
25.295,0.029
25.300,0.141
25.305,-0.016
25.310,-0.029
25.315,0.132
25.320,0.042
25.325,-0.068
25.330,0.087
25.335,0.100
25.340,-0.065
25.345,0.023
25.350,0.131
25.355,-0.029
25.360,-0.045
25.365,0.116
25.370,0.027
25.375,-0.083
25.380,0.068
25.385,0.079
25.390,-0.085
25.395,0.004
25.400,0.108
25.405,-0.051
25.410,-0.061
25.415,0.101
25.420,0.009
25.425,-0.101
25.430,0.055
25.435,0.067
25.440,-0.099
25.445,-0.012
25.450,0.095
25.455,-0.063
25.460,-0.073
25.465,0.092
25.470,0.005
25.475,-0.100
25.480,0.059
25.485,0.071
25.490,-0.094
25.495,-0.004
25.500,0.102
25.505,-0.055
25.510,-0.066
25.515,0.094
25.520,0.004
25.525,-0.103
25.530,0.051
25.535,0.060
25.540,-0.104
25.545,-0.016
25.550,0.091
25.555,-0.064
25.560,-0.073
25.565,0.085
25.570,-0.014
25.575,-0.123
25.580,0.042
25.585,0.059
25.590,-0.114
25.595,-0.028
25.600,0.085
25.605,-0.081
25.610,-0.105
25.615,0.066
25.620,-0.005
25.625,-0.098
25.630,0.072
25.635,0.098
25.640,-0.062
25.645,0.019
25.650,0.110
25.655,-0.059
25.660,-0.067
25.665,0.108
25.670,0.026
25.675,-0.082
25.680,0.071
25.685,0.078
25.690,-0.084
25.695,0.011
25.700,0.113
25.705,-0.048
25.710,-0.053
25.715,0.108
25.720,0.012
25.725,-0.091
25.730,0.065
25.735,0.067
25.740,-0.095
25.745,-0.015
25.750,0.047
25.755,-0.154
25.760,-0.173
25.765,-0.015
25.770,-0.147
25.775,-0.311
25.780,-0.121
25.785,0.195
25.790,0.298
25.795,0.213
25.800,0.083
25.805,-0.101
25.810,-0.092
25.815,0.086
25.820,0.013
25.825,-0.082
25.830,0.078
25.835,0.084
25.840,-0.076
25.845,0.024
25.850,0.124
25.855,-0.039
25.860,-0.039
25.865,0.123
25.870,0.025
25.875,-0.075
25.880,0.085
25.885,0.085
25.890,-0.078
25.895,0.016
25.900,0.115
25.905,-0.041
25.910,-0.044
25.915,0.112
25.920,0.011
25.925,-0.094
25.930,0.064
25.935,0.067
25.940,-0.094
25.945,0.001
25.950,0.097
25.955,-0.067
25.960,-0.068
25.965,0.092
25.970,-0.011
25.975,-0.113
25.980,0.045
25.985,0.039
25.990,-0.126
25.995,-0.029
26.000,0.069
26.005,-0.090
26.010,-0.090
26.015,0.070
26.020,-0.027
26.025,-0.127
26.030,0.030
26.035,0.024
26.040,-0.141
26.045,-0.045
26.050,0.048
26.055,-0.113
26.060,-0.106
26.065,0.060
26.070,-0.031
26.075,-0.117
26.080,0.054
26.085,0.057
26.090,-0.097
26.095,0.021
26.100,0.133
26.105,-0.021
26.110,-0.017
26.115,0.144
26.120,0.043
26.125,-0.057
26.130,0.104
26.135,0.106
26.140,-0.056
26.145,0.040
26.150,0.133
26.155,-0.029
26.160,-0.022
26.165,0.142
26.170,0.036
26.175,-0.063
26.180,0.096
26.185,0.086
26.190,-0.076
26.195,0.026
26.200,0.117
26.205,-0.048
26.210,-0.039
26.215,0.119
26.220,0.007
26.225,-0.090
26.230,0.074
26.235,0.062
26.240,-0.100
26.245,0.010
26.250,0.109
26.255,-0.056
26.260,-0.057
26.265,0.101
26.270,-0.002
26.275,-0.095
26.280,0.066
26.285,0.061
26.290,-0.095
26.295,0.013
26.300,0.110
26.305,-0.059
26.310,-0.055
26.315,0.107
26.320,0.005
26.325,-0.087
26.330,0.077
26.335,0.071
26.340,-0.092
26.345,0.004
26.350,0.093
26.355,-0.067
26.360,-0.053
26.365,0.102
26.370,-0.009
26.375,-0.105
26.380,0.047
26.385,0.039
26.390,-0.103
26.395,0.001
26.400,0.081
26.405,-0.080
26.410,-0.073
26.415,0.067
26.420,-0.039
26.425,-0.108
26.430,0.070
26.435,0.067
26.440,-0.081
26.445,0.032
26.450,0.118
26.455,-0.059
26.460,-0.063
26.465,0.092
26.470,-0.003
26.475,-0.080
26.480,0.079
26.485,0.063
26.490,-0.088
26.495,0.024
26.500,0.109
26.505,-0.062
26.510,-0.055
26.515,0.096
26.520,-0.012
26.525,-0.094
26.530,0.068
26.535,0.054
26.540,-0.107
26.545,-0.003
26.550,0.085
26.555,-0.103
26.560,-0.131
26.565,0.009
26.570,-0.086
26.575,-0.180
26.580,-0.073
26.585,-0.130
26.590,-0.149
26.595,0.224
26.600,0.301
26.605,-0.098
26.610,-0.153
26.615,0.046
26.620,-0.037
26.625,-0.099
26.630,0.076
26.635,0.058
26.640,-0.101
26.645,0.007
26.650,0.097
26.655,-0.060
26.660,-0.046
26.665,0.101
26.670,-0.007
26.675,-0.087
26.680,0.074
26.685,0.058
26.690,-0.100
26.695,0.008
26.700,0.097
26.705,-0.066
26.710,-0.051
26.715,0.103
26.720,-0.008
26.725,-0.094
26.730,0.066
26.735,0.050
26.740,-0.102
26.745,0.007
26.750,0.092
26.755,-0.071
26.760,-0.054
26.765,0.099
26.770,-0.019
26.775,-0.102
26.780,0.065
26.785,0.044
26.790,-0.116
26.795,-0.003
26.800,0.084
26.805,-0.081
26.810,-0.068
26.815,0.079
26.820,-0.038
26.825,-0.123
26.830,0.041
26.835,0.023
26.840,-0.137
26.845,-0.028
26.850,0.058
26.855,-0.109
26.860,-0.098
26.865,0.055
26.870,-0.048
26.875,-0.124
26.880,0.042
26.885,0.032
26.890,-0.113
26.895,0.003
26.900,0.097
26.905,-0.056
26.910,-0.028
26.915,0.133
26.920,0.023
26.925,-0.056
26.930,0.108
26.935,0.082
26.940,-0.071
26.945,0.047
26.950,0.134
26.955,-0.030
26.960,-0.012
26.965,0.135
26.970,0.016
26.975,-0.066
26.980,0.096
26.985,0.073
26.990,-0.083
26.995,0.030
27.000,0.112
27.005,-0.056
27.010,-0.034
27.015,0.124
27.020,0.009
27.025,-0.075
27.030,0.087
27.035,0.057
27.040,-0.098
27.045,0.024
27.050,0.110
27.055,-0.050
27.060,-0.022
27.065,0.124
27.070,0.004
27.075,-0.079
27.080,0.082
27.085,0.059
27.090,-0.095
27.095,0.026
27.100,0.110
27.105,-0.059
27.110,-0.034
27.115,0.114
27.120,-0.006
27.125,-0.080
27.130,0.084
27.135,0.059
27.140,-0.090
27.145,0.028
27.150,0.099
27.155,-0.071
27.160,-0.043
27.165,0.107
27.170,-0.018
27.175,-0.104
27.180,0.063
27.185,0.049
27.190,-0.104
27.195,0.007
27.200,0.085
27.205,-0.082
27.210,-0.065
27.215,0.078
27.220,-0.034
27.225,-0.096
27.230,0.077
27.235,0.062
27.240,-0.077
27.245,0.031
27.250,0.087
27.255,-0.084
27.260,-0.053
27.265,0.107
27.270,0.003
27.275,-0.073
27.280,0.088
27.285,0.064
27.290,-0.085
27.295,0.029
27.300,0.100
27.305,-0.062
27.310,-0.026
27.315,0.121
27.320,-0.005
27.325,-0.083
27.330,0.078
27.335,0.044
27.340,-0.107
27.345,0.010
27.350,0.067
27.355,-0.134
27.360,-0.125
27.365,0.042
27.370,-0.077
27.375,-0.216
27.380,-0.118
27.385,-0.051
27.390,0.051
27.395,0.203
27.400,0.065
27.405,-0.176
27.410,-0.102
27.415,0.074
27.420,-0.021
27.425,-0.079
27.430,0.093
27.435,0.062
27.440,-0.090
27.445,0.030
27.450,0.102
27.455,-0.064
27.460,-0.027
27.465,0.126
27.470,-0.003
27.475,-0.081
27.480,0.090
27.485,0.061
27.490,-0.090
27.495,0.031
27.500,0.103
27.505,-0.061
27.510,-0.032
27.515,0.108
27.520,-0.017
27.525,-0.086
27.530,0.078
27.535,0.040
27.540,-0.106
27.545,0.017
27.550,0.080
27.555,-0.091
27.560,-0.058
27.565,0.087
27.570,-0.036
27.575,-0.108
27.580,0.054
27.585,0.019
27.590,-0.126
27.595,-0.001
27.600,0.070
27.605,-0.099
27.610,-0.071
27.615,0.072
27.620,-0.053
27.625,-0.122
27.630,0.044
27.635,0.008
27.640,-0.140
27.645,-0.018
27.650,0.050
27.655,-0.121
27.660,-0.089
27.665,0.065
27.670,-0.046
27.675,-0.109
27.680,0.060
27.685,0.032
27.690,-0.104
27.695,0.026
27.700,0.099
27.705,-0.058
27.710,-0.016
27.715,0.133
27.720,0.010
27.725,-0.058
27.730,0.109
27.735,0.074
27.740,-0.070
27.745,0.055
27.750,0.120
27.755,-0.047
27.760,-0.013
27.765,0.131
27.770,0.006
27.775,-0.061
27.780,0.103
27.785,0.062
27.790,-0.083
27.795,0.045
27.800,0.110
27.805,-0.062
27.810,-0.027
27.815,0.120
27.820,-0.004
27.825,-0.067
27.830,0.097
27.835,0.052
27.840,-0.094
27.845,0.034
27.850,0.099
27.855,-0.070
27.860,-0.034
27.865,0.110
27.870,-0.017
27.875,-0.083
27.880,0.081
27.885,0.042
27.890,-0.101
27.895,0.023
27.900,0.085
27.905,-0.081
27.910,-0.042
27.915,0.101
27.920,-0.026
27.925,-0.086
27.930,0.077
27.935,0.035
27.940,-0.105
27.945,0.022
27.950,0.084
27.955,-0.087
27.960,-0.060
27.965,0.076
27.970,-0.046
27.975,-0.106
27.980,0.052
27.985,0.009
27.990,-0.127
27.995,-0.006
28.000,0.049
28.005,-0.109
28.010,-0.049
28.015,0.108
28.020,-0.011
28.025,-0.058
28.030,0.113
28.035,0.055
28.040,-0.099
28.045,0.025
28.050,0.085
28.055,-0.070
28.060,-0.017
28.065,0.125
28.070,-0.006
28.075,-0.070
28.080,0.093
28.085,0.050
28.090,-0.089
28.095,0.039
28.100,0.100
28.105,-0.070
28.110,-0.030
28.115,0.109
28.120,-0.024
28.125,-0.087
28.130,0.076
28.135,0.016
28.140,-0.165
28.145,-0.079
28.150,-0.029
28.155,-0.196
28.160,-0.185
28.165,-0.111
28.170,-0.209
28.175,0.049
28.180,0.470
28.185,0.234
28.190,-0.138
28.195,-0.030
28.200,0.045
28.205,-0.103
28.210,-0.039
28.215,0.105
28.220,-0.027
28.225,-0.082
28.230,0.086
28.235,0.040
28.240,-0.102
28.245,0.030
28.250,0.090
28.255,-0.079
28.260,-0.032
28.265,0.110
28.270,-0.022
28.275,-0.079
28.280,0.090
28.285,0.043
28.290,-0.098
28.295,0.035
28.300,0.094
28.305,-0.076
28.310,-0.027
28.315,0.115
28.320,-0.020
28.325,-0.080
28.330,0.084
28.335,0.035
28.340,-0.106
28.345,0.026
28.350,0.080
28.355,-0.093
28.360,-0.044
28.365,0.092
28.370,-0.048
28.375,-0.104
28.380,0.060
28.385,0.008
28.390,-0.130
28.395,0.002
28.400,0.056
28.405,-0.116
28.410,-0.066
28.415,0.074
28.420,-0.065
28.425,-0.124
28.430,0.044
28.435,-0.007
28.440,-0.148
28.445,-0.013
28.450,0.046
28.455,-0.117
28.460,-0.057
28.465,0.091
28.470,-0.035
28.475,-0.077
28.480,0.100
28.485,0.057
28.490,-0.072
28.495,0.069
28.500,0.126
28.505,-0.040
28.510,0.014
28.515,0.150
28.520,0.012
28.525,-0.039
28.530,0.127
28.535,0.073
28.540,-0.063
28.545,0.074
28.550,0.127
28.555,-0.048
28.560,0.001
28.565,0.139
28.570,-0.001
28.575,-0.056
28.580,0.112
28.585,0.058
28.590,-0.079
28.595,0.057
28.600,0.107
28.605,-0.061
28.610,-0.012
28.615,0.119
28.620,-0.020
28.625,-0.072
28.630,0.095
28.635,0.044
28.640,-0.092
28.645,0.043
28.650,0.092
28.655,-0.075
28.660,-0.021
28.665,0.112
28.670,-0.023
28.675,-0.069
28.680,0.098
28.685,0.042
28.690,-0.094
28.695,0.042
28.700,0.088
28.705,-0.083
28.710,-0.027
28.715,0.108
28.720,-0.032
28.725,-0.082
28.730,0.087
28.735,0.034
28.740,-0.103
28.745,0.034
28.750,0.084
28.755,-0.087
28.760,-0.041
28.765,0.085
28.770,-0.049
28.775,-0.092
28.780,0.066
28.785,0.008
28.790,-0.116
28.795,0.012
28.800,0.044
28.805,-0.111
28.810,-0.031
28.815,0.113
28.820,-0.013
28.825,-0.043
28.830,0.125
28.835,0.054
28.840,-0.089
28.845,0.039
28.850,0.081
28.855,-0.076
28.860,-0.006
28.865,0.125
28.870,-0.020
28.875,-0.068
28.880,0.097
28.885,0.037
28.890,-0.094
28.895,0.046
28.900,0.089
28.905,-0.082
28.910,-0.022
28.915,0.110
28.920,-0.033
28.925,-0.083
28.930,0.082
28.935,0.007
28.940,-0.169
28.945,-0.076
28.950,-0.045
28.955,-0.220
28.960,-0.198
28.965,-0.123
28.970,-0.198
28.975,0.110
28.980,0.512
28.985,0.230
28.990,-0.129
28.995,-0.013
29.000,0.036
29.005,-0.114
29.010,-0.037
29.015,0.098
29.020,-0.040
29.025,-0.081
29.030,0.087
29.035,0.027
29.040,-0.103
29.045,0.040
29.050,0.080
29.055,-0.086
29.060,-0.020
29.065,0.109
29.070,-0.034
29.075,-0.076
29.080,0.091
29.085,0.028
29.090,-0.100
29.095,0.041
29.100,0.079
29.105,-0.090
29.110,-0.027
29.115,0.102
29.120,-0.039
29.125,-0.079
29.130,0.087
29.135,0.022
29.140,-0.106
29.145,0.037
29.150,0.072
29.155,-0.101
29.160,-0.039
29.165,0.088
29.170,-0.056
29.175,-0.097
29.180,0.067
29.185,-0.002
29.190,-0.133
29.195,0.008
29.200,0.045
29.205,-0.124
29.210,-0.061
29.215,0.066
29.220,-0.079
29.225,-0.122
29.230,0.043
29.235,-0.024
29.240,-0.153
29.245,-0.007
29.250,0.040
29.255,-0.120
29.260,-0.047
29.265,0.091
29.270,-0.041
29.275,-0.066
29.280,0.113
29.285,0.056
29.290,-0.065
29.295,0.083
29.300,0.123
29.305,-0.043
29.310,0.023
29.315,0.149
29.320,0.004
29.325,-0.035
29.330,0.133
29.335,0.066
29.340,-0.063
29.345,0.081
29.350,0.115
29.355,-0.056
29.360,0.011
29.365,0.138
29.370,-0.011
29.375,-0.055
29.380,0.110
29.385,0.044
29.390,-0.080
29.395,0.062
29.400,0.094
29.405,-0.074
29.410,-0.012
29.415,0.113
29.420,-0.031
29.425,-0.068
29.430,0.101
29.435,0.029
29.440,-0.099
29.445,0.048
29.450,0.082
29.455,-0.088
29.460,-0.022
29.465,0.101
29.470,-0.046
29.475,-0.078
29.480,0.090
29.485,0.020
29.490,-0.102
29.495,0.046
29.500,0.079
29.505,-0.089
29.510,-0.018
29.515,0.106
29.520,-0.042
29.525,-0.075
29.530,0.091
29.535,0.021
29.540,-0.103
29.545,0.041
29.550,0.076
29.555,-0.091
29.560,-0.028
29.565,0.087
29.570,-0.062
29.575,-0.084
29.580,0.082
29.585,-0.001
29.590,-0.122
29.595,0.031
29.600,0.052
29.605,-0.124
29.610,-0.039
29.615,0.104
29.620,-0.032
29.625,-0.048
29.630,0.131
29.635,0.053
29.640,-0.085
29.645,0.048
29.650,0.071
29.655,-0.093
29.660,-0.007
29.665,0.128
29.670,-0.024
29.675,-0.061
29.680,0.102
29.685,0.028
29.690,-0.094
29.695,0.049
29.700,0.078
29.705,-0.089
29.710,-0.020
29.715,0.102
29.720,-0.044
29.725,-0.077
29.730,0.084
29.735,0.007
29.740,-0.136
29.745,-0.038
29.750,-0.048
29.755,-0.220
29.760,-0.150
29.765,-0.069
29.770,-0.271
29.775,-0.204
29.780,0.310
29.785,0.408
29.790,0.043
29.795,-0.010
29.800,0.014
29.805,-0.138
29.810,-0.042
29.815,0.097
29.820,-0.050
29.825,-0.079
29.830,0.086
29.835,0.009
29.840,-0.107
29.845,0.045
29.850,0.075
29.855,-0.089
29.860,-0.013
29.865,0.110
29.870,-0.041
29.875,-0.072
29.880,0.096
29.885,0.024
29.890,-0.096
29.895,0.054
29.900,0.081
29.905,-0.086
29.910,-0.010
29.915,0.110
29.920,-0.038
29.925,-0.065
29.930,0.097
29.935,0.018
29.940,-0.105
29.945,0.042
29.950,0.069
29.955,-0.098
29.960,-0.020
29.965,0.097
29.970,-0.059
29.975,-0.084
29.980,0.082
29.985,0.002
29.990,-0.117
29.995,0.034
30.000,0.055
30.005,-0.117
30.010,-0.043
30.015,0.077
30.020,-0.076
30.025,-0.105
30.030,0.057
30.035,-0.026
30.040,-0.150
30.045,-0.005
30.050,0.020
30.055,-0.138
30.060,-0.053
30.065,0.073
30.070,-0.064
30.075,-0.073
30.080,0.098
30.085,0.027
30.090,-0.080
30.095,0.075
30.100,0.105
30.105,-0.054
30.110,0.026
30.115,0.141
30.120,-0.013
30.125,-0.036
30.130,0.131
30.135,0.050
30.140,-0.068
30.145,0.086
30.150,0.109
30.155,-0.063
30.160,0.016
30.165,0.133
30.170,-0.026
30.175,-0.052
30.180,0.114
30.185,0.034
30.190,-0.079
30.195,0.072
30.200,0.087
30.205,-0.080
30.210,0.007
30.215,0.122
30.220,-0.038
30.225,-0.063
30.230,0.103
30.235,0.019
30.240,-0.096
30.245,0.058
30.250,0.078
30.255,-0.089
30.260,-0.011
30.265,0.098
30.270,-0.049
30.275,-0.058
30.280,0.109
30.285,0.022
30.290,-0.097
30.295,0.056
30.300,0.076
30.305,-0.090
30.310,-0.008
30.315,0.105
30.320,-0.044
30.325,-0.058
30.330,0.104
30.335,0.013
30.340,-0.106
30.345,0.050
30.350,0.066
30.355,-0.107
30.360,-0.024
30.365,0.094
30.370,-0.062
30.375,-0.085
30.380,0.081
30.385,-0.003
30.390,-0.132
30.395,0.019
30.400,0.054
30.405,-0.100
30.410,-0.007
30.415,0.119
30.420,-0.026
30.425,-0.048
30.430,0.104
30.435,0.013
30.440,-0.104
30.445,0.053
30.450,0.091
30.455,-0.069
30.460,0.009
30.465,0.122
30.470,-0.040
30.475,-0.065
30.480,0.102
30.485,0.024
30.490,-0.086
30.495,0.068
30.500,0.079
30.505,-0.093
30.510,-0.012
30.515,0.094
30.520,-0.059
30.525,-0.074
30.530,0.076
30.535,-0.046
30.540,-0.186
30.545,-0.023
30.550,-0.004
30.555,-0.215
30.560,-0.187
30.565,-0.009
30.570,0.101
30.575,0.185
30.580,0.126
30.585,-0.092
30.590,-0.176
30.595,0.008
30.600,0.058
30.605,-0.086
30.610,0.001
30.615,0.110
30.620,-0.046
30.625,-0.061
30.630,0.105
30.635,0.022
30.640,-0.091
30.645,0.067
30.650,0.088
30.655,-0.077
30.660,0.006
30.665,0.114
30.670,-0.043
30.675,-0.058
30.680,0.108
30.685,0.021
30.690,-0.093
30.695,0.061
30.700,0.076
30.705,-0.087
30.710,-0.005
30.715,0.099
30.720,-0.054
30.725,-0.063
30.730,0.102
30.735,0.012
30.740,-0.100
30.745,0.055
30.750,0.067
30.755,-0.100
30.760,-0.013
30.765,0.092
30.770,-0.068
30.775,-0.078
30.780,0.089
30.785,-0.001
30.790,-0.116
30.795,0.032
30.800,0.044
30.805,-0.118
30.810,-0.036
30.815,0.066
30.820,-0.096
30.825,-0.110
30.830,0.052
30.835,-0.038
30.840,-0.140
30.845,0.018
30.850,0.033
30.855,-0.122
30.860,-0.028
30.865,0.088
30.870,-0.055
30.875,-0.052
30.880,0.118
30.885,0.027
30.890,-0.079
30.895,0.081
30.900,0.095
30.905,-0.062
30.910,0.032
30.915,0.136
30.920,-0.022
30.925,-0.037
30.930,0.121
30.935,0.033
30.940,-0.069
30.945,0.082
30.950,0.088
30.955,-0.074
30.960,0.014
30.965,0.116
30.970,-0.043
30.975,-0.048
30.980,0.118
30.985,0.027
30.990,-0.075
30.995,0.077
31.000,0.076
31.005,-0.088
31.010,0.006
31.015,0.109
31.020,-0.049
31.025,-0.059
31.030,0.107
31.035,0.017
31.040,-0.095
31.045,0.059
31.050,0.072
31.055,-0.087
31.060,0.003
31.065,0.104
31.070,-0.057
31.075,-0.060
31.080,0.108
31.085,0.010
31.090,-0.101
31.095,0.060
31.100,0.070
31.105,-0.094
31.110,-0.001
31.115,0.100
31.120,-0.063
31.125,-0.071
31.130,0.079
31.135,-0.022
31.140,-0.120
31.145,0.045
31.150,0.052
31.155,-0.111
31.160,-0.015
31.165,0.084
31.170,-0.090
31.175,-0.102
31.180,0.073
31.185,-0.001
31.190,-0.090
31.195,0.078
31.200,0.091
31.205,-0.082
31.210,-0.003
31.215,0.097
31.220,-0.060
31.225,-0.049
31.230,0.126
31.235,0.025
31.240,-0.083
31.245,0.076
31.250,0.076
31.255,-0.090
31.260,0.000
31.265,0.102
31.270,-0.054
31.275,-0.064
31.280,0.091
31.285,0.001
31.290,-0.096
31.295,0.056
31.300,0.056
31.305,-0.107
31.310,-0.034
31.315,0.028
31.320,-0.149
31.325,-0.138
31.330,0.019
31.335,-0.137
31.340,-0.293
31.345,-0.002
31.350,0.272
31.355,0.111
31.360,-0.015
31.365,0.013
31.370,-0.117
31.375,-0.091
31.380,0.094
31.385,0.004
31.390,-0.092
31.395,0.066
31.400,0.066
31.405,-0.087
31.410,0.014
31.415,0.112
31.420,-0.049
31.425,-0.046
31.430,0.113
31.435,0.012
31.440,-0.088
31.445,0.070
31.450,0.074
31.455,-0.085
31.460,0.011
31.465,0.111
31.470,-0.050
31.475,-0.052
31.480,0.108
31.485,0.010
31.490,-0.091
31.495,0.062
31.500,0.061
31.505,-0.096
31.510,0.003
31.515,0.098
31.520,-0.065
31.525,-0.063
31.530,0.096
31.535,-0.006
31.540,-0.109
31.545,0.049
31.550,0.048
31.555,-0.116
31.560,-0.018
31.565,0.081
31.570,-0.085
31.575,-0.088
31.580,0.069
31.585,-0.033
31.590,-0.133
31.595,0.023
31.600,0.019
31.605,-0.140
31.610,-0.038
31.615,0.061
31.620,-0.100
31.625,-0.096
31.630,0.067
31.635,-0.022
31.640,-0.103
31.645,0.067
31.650,0.072
31.655,-0.079
31.660,0.031
31.665,0.129
31.670,-0.030
31.675,-0.021
31.680,0.138
31.685,0.035
31.690,-0.062
31.695,0.098
31.700,0.095
31.705,-0.062
31.710,0.039
31.715,0.131
31.720,-0.034
31.725,-0.031
31.730,0.127
31.735,0.022
31.740,-0.074
31.745,0.088
31.750,0.083
31.755,-0.080
31.760,0.021
31.765,0.117
31.770,-0.044
31.775,-0.041
31.780,0.114
31.785,0.009
31.790,-0.089
31.795,0.073
31.800,0.070
31.805,-0.091
31.810,0.011
31.815,0.104
31.820,-0.063
31.825,-0.057
31.830,0.103
31.835,0.000
31.840,-0.094
31.845,0.070
31.850,0.065
31.855,-0.095
31.860,0.010
31.865,0.104
31.870,-0.059
31.875,-0.051
31.880,0.105
31.885,0.001
31.890,-0.092
31.895,0.067
31.900,0.064
31.905,-0.093
31.910,0.004
31.915,0.086
31.920,-0.084
31.925,-0.077
31.930,0.083
31.935,-0.025
31.940,-0.120
31.945,0.047
31.950,0.036
31.955,-0.133
31.960,-0.023
31.965,0.087
31.970,-0.061
31.975,-0.041
31.980,0.131
31.985,0.035
31.990,-0.070
31.995,0.078
32.000,0.063
32.005,-0.101
32.010,0.014
32.015,0.123
32.020,-0.036
32.025,-0.033
32.030,0.122
32.035,0.017
32.040,-0.077
32.045,0.081
32.050,0.070
32.055,-0.088
32.060,0.016
32.065,0.104
32.070,-0.063
32.075,-0.059
32.080,0.094
32.085,-0.015
32.090,-0.117
32.095,0.006
32.100,-0.055
32.105,-0.228
32.110,-0.118
32.115,-0.055
32.120,-0.283
32.125,-0.275
32.130,0.175
32.135,0.391
32.140,0.164
32.145,0.063
32.150,-0.001
32.155,-0.148
32.160,-0.022
32.165,0.089
32.170,-0.071
32.175,-0.058
32.180,0.102
32.185,-0.005
32.190,-0.095
32.195,0.068
32.200,0.057
32.205,-0.097
32.210,0.011
32.215,0.098
32.220,-0.068
32.225,-0.054
32.230,0.103
32.235,-0.007
32.240,-0.096
32.245,0.067
32.250,0.052
32.255,-0.103
32.260,0.007
32.265,0.093
32.270,-0.071
32.275,-0.058
32.280,0.095
32.285,-0.013
32.290,-0.099
32.295,0.063
32.300,0.045
32.305,-0.114
32.310,-0.005
32.315,0.081
32.320,-0.086
32.325,-0.075
32.330,0.079
32.335,-0.033
32.340,-0.121
32.345,0.042
32.350,0.025
32.355,-0.131
32.360,-0.020
32.365,0.061
32.370,-0.106
32.375,-0.093
32.380,0.058
32.385,-0.057
32.390,-0.142
32.395,0.022
32.400,0.006
32.405,-0.142
32.410,-0.021
32.415,0.071
32.420,-0.083
32.425,-0.054
32.430,0.109
32.435,0.006
32.440,-0.068
32.445,0.104
32.450,0.094
32.455,-0.055
32.460,0.056
32.465,0.140
32.470,-0.021
32.475,-0.004
32.480,0.148
32.485,0.032
32.490,-0.057
32.495,0.108
32.500,0.092
32.505,-0.062
32.510,0.047
32.515,0.128
32.520,-0.037
32.525,-0.020
32.530,0.131
32.535,0.014
32.540,-0.073
32.545,0.092
32.550,0.074
32.555,-0.080
32.560,0.033
32.565,0.116
32.570,-0.051
32.575,-0.036
32.580,0.114
32.585,-0.001
32.590,-0.084
32.595,0.084
32.600,0.063
32.605,-0.092
32.610,0.023
32.615,0.106
32.620,-0.061
32.625,-0.042
32.630,0.113
32.635,-0.002
32.640,-0.087
32.645,0.080
32.650,0.063
32.655,-0.091
32.660,0.022
32.665,0.102
32.670,-0.062
32.675,-0.039
32.680,0.112
32.685,-0.007
32.690,-0.088
32.695,0.076
32.700,0.048
32.705,-0.111
32.710,0.000
32.715,0.085
32.720,-0.080
32.725,-0.068
32.730,0.085
32.735,-0.027
32.740,-0.120
32.745,0.039
32.750,0.031
32.755,-0.102
32.760,0.029
32.765,0.123
32.770,-0.033
32.775,-0.015
32.780,0.125
32.785,-0.001
32.790,-0.089
32.795,0.073
32.800,0.064
32.805,-0.075
32.810,0.038
32.815,0.111
32.820,-0.057
32.825,-0.035
32.830,0.115
32.835,-0.005
32.840,-0.087
32.845,0.072
32.850,0.046
32.855,-0.105
32.860,0.009
32.865,0.087
32.870,-0.081
32.875,-0.064
32.880,0.056
32.885,-0.114
32.890,-0.225
32.895,-0.064
32.900,-0.103
32.905,-0.303
32.910,-0.233
32.915,0.011
32.920,0.227
32.925,0.336
32.930,0.209
32.935,-0.075
32.940,-0.154
32.945,0.024
32.950,0.019
32.955,-0.115
32.960,0.005
32.965,0.084
32.970,-0.081
32.975,-0.056
32.980,0.094
32.985,-0.022
32.990,-0.095
32.995,0.072
33.000,0.048
33.005,-0.102
33.010,0.016
33.015,0.093
33.020,-0.074
33.025,-0.047
33.030,0.104
33.035,-0.017
33.040,-0.093
33.045,0.071
33.050,0.043
33.055,-0.105
33.060,0.014
33.065,0.091
33.070,-0.077
33.075,-0.051
33.080,0.096
33.085,-0.027
33.090,-0.103
33.095,0.059
33.100,0.031
33.105,-0.117
33.110,-0.002
33.115,0.068
33.120,-0.099
33.125,-0.072
33.130,0.074
33.135,-0.048
33.140,-0.122
33.145,0.043
33.150,0.011
33.155,-0.141
33.160,-0.024
33.165,0.048
33.170,-0.123
33.175,-0.097
33.180,0.051
33.185,-0.070
33.190,-0.138
33.195,0.034
33.200,0.013
33.205,-0.123
33.210,0.009
33.215,0.094
33.220,-0.061
33.225,-0.019
33.230,0.137
33.235,0.021
33.240,-0.046
33.245,0.121
33.250,0.092
33.255,-0.053
33.260,0.066
33.265,0.138
33.270,-0.030
33.275,-0.003
33.280,0.140
33.285,0.013
33.290,-0.062
33.295,0.097
33.300,0.060
33.305,-0.090
33.310,0.028
33.315,0.095
33.320,-0.074
33.325,-0.047
33.330,0.095
33.335,-0.031
33.340,-0.105
33.345,0.061
33.350,0.028
33.355,-0.123
33.360,-0.002
33.365,0.069
33.370,-0.101
33.375,-0.068
33.380,0.079
33.385,-0.047
33.390,-0.116
33.395,0.054
33.400,0.024
33.405,-0.123
33.410,0.001
33.415,0.073
33.420,-0.092
33.425,-0.055
33.430,0.093
33.435,-0.024
33.440,-0.089
33.445,0.080
33.450,0.048
33.455,-0.099
33.460,0.026
33.465,0.096
33.470,-0.069
33.475,-0.033
33.480,0.112
33.485,-0.015
33.490,-0.084
33.495,0.080
33.500,0.038
33.505,-0.108
33.510,0.029
33.515,0.104
33.520,-0.073
33.525,-0.039
33.530,0.111
33.535,-0.026
33.540,-0.104
33.545,0.079
33.550,0.070
33.555,-0.058
33.560,0.079
33.565,0.155
33.570,-0.016
33.575,0.010
33.580,0.147
33.585,0.011
33.590,-0.056
33.595,0.126
33.600,0.097
33.605,-0.056
33.610,0.068
33.615,0.140
33.620,-0.026
33.625,0.009
33.630,0.152
33.635,0.024
33.640,-0.049
33.645,0.118
33.650,0.084
33.655,-0.066
33.660,0.057
33.665,0.122
33.670,-0.051
33.675,-0.036
33.680,0.059
33.685,-0.111
33.690,-0.179
33.695,-0.013
33.700,-0.090
33.705,-0.282
33.710,-0.078
33.715,0.302
33.720,0.306
33.725,0.114
33.730,0.065
33.735,-0.061
33.740,-0.113
33.745,0.071
33.750,0.048
33.755,-0.087
33.760,0.049
33.765,0.111
33.770,-0.060
33.775,-0.020
33.780,0.119
33.785,-0.013
33.790,-0.082
33.795,0.086
33.800,0.055
33.805,-0.088
33.810,0.037
33.815,0.107
33.820,-0.055
33.825,-0.019
33.830,0.116
33.835,-0.018
33.840,-0.083
33.845,0.083
33.850,0.048
33.855,-0.093
33.860,0.028
33.865,0.084
33.870,-0.085
33.875,-0.042
33.880,0.100
33.885,-0.032
33.890,-0.097
33.895,0.069
33.900,0.030
33.905,-0.114
33.910,0.010
33.915,0.069
33.920,-0.098
33.925,-0.055
33.930,0.085
33.935,-0.049
33.940,-0.113
33.945,0.052
33.950,0.004
33.955,-0.147
33.960,-0.020
33.965,0.049
33.970,-0.118
33.975,-0.086
33.980,0.050
33.985,-0.079
33.990,-0.137
33.995,0.037
34.000,0.002
34.005,-0.129
34.010,0.015
34.015,0.092
34.020,-0.064
34.025,-0.017
34.030,0.124
34.035,-0.004
34.040,-0.055
34.045,0.115
34.050,0.069
34.055,-0.067
34.060,0.066
34.065,0.127
34.070,-0.039
34.075,0.002
34.080,0.140
34.085,0.004
34.090,-0.059
34.095,0.106
34.100,0.061
34.105,-0.077
34.110,0.056
34.115,0.118
34.120,-0.052
34.125,-0.013
34.130,0.128
34.135,-0.010
34.140,-0.077
34.145,0.092
34.150,0.051
34.155,-0.093
34.160,0.034
34.165,0.088
34.170,-0.083
34.175,-0.041
34.180,0.104
34.185,-0.021
34.190,-0.084
34.195,0.076
34.200,0.034
34.205,-0.103
34.210,0.027
34.215,0.090
34.220,-0.081
34.225,-0.041
34.230,0.104
34.235,-0.026
34.240,-0.086
34.245,0.082
34.250,0.038
34.255,-0.103
34.260,0.024
34.265,0.080
34.270,-0.095
34.275,-0.060
34.280,0.078
34.285,-0.044
34.290,-0.094
34.295,0.065
34.300,0.011
34.305,-0.122
34.310,0.004
34.315,0.053
34.320,-0.111
34.325,-0.054
34.330,0.100
34.335,-0.019
34.340,-0.073
34.345,0.086
34.350,0.028
34.355,-0.114
34.360,0.026
34.365,0.095
34.370,-0.064
34.375,-0.014
34.380,0.120
34.385,-0.016
34.390,-0.072
34.395,0.091
34.400,0.042
34.405,-0.098
34.410,0.032
34.415,0.090
34.420,-0.080
34.425,-0.038
34.430,0.100
34.435,-0.033
34.440,-0.088
34.445,0.075
34.450,0.009
34.455,-0.163
34.460,-0.050
34.465,0.018
34.470,-0.146
34.475,-0.142
34.480,-0.072
34.485,-0.158
34.490,0.030
34.495,0.287
34.500,0.027
34.505,-0.223
34.510,-0.047
34.515,0.043
34.520,-0.092
34.525,-0.027
34.530,0.109
34.535,-0.029
34.540,-0.084
34.545,0.093
34.550,0.050
34.555,-0.093
34.560,0.036
34.565,0.090
34.570,-0.075
34.575,-0.016
34.580,0.127
34.585,-0.015
34.590,-0.078
34.595,0.082
34.600,0.039
34.605,-0.091
34.610,0.036
34.615,0.090
34.620,-0.071
34.625,-0.022
34.630,0.109
34.635,-0.030
34.640,-0.086
34.645,0.083
34.650,0.035
34.655,-0.098
34.660,0.036
34.665,0.084
34.670,-0.090
34.675,-0.043
34.680,0.089
34.685,-0.050
34.690,-0.108
34.695,0.055
34.700,0.009
34.705,-0.127
34.710,0.003
34.715,0.056
34.720,-0.115
34.725,-0.062
34.730,0.074
34.735,-0.069
34.740,-0.126
34.745,0.035
34.750,-0.022
34.755,-0.156
34.760,-0.019
34.765,0.034
34.770,-0.131
34.775,-0.068
34.780,0.076
34.785,-0.056
34.790,-0.100
34.795,0.077
34.800,0.034
34.805,-0.094
34.810,0.050
34.815,0.107
34.820,-0.060
34.825,-0.003
34.830,0.132
34.835,-0.010
34.840,-0.060
34.845,0.105
34.850,0.052
34.855,-0.082
34.860,0.058
34.865,0.109
34.870,-0.065
34.875,-0.014
34.880,0.119
34.885,-0.018
34.890,-0.061
34.895,0.108
34.900,0.049
34.905,-0.084
34.910,0.055
34.915,0.099
34.920,-0.070
34.925,-0.011
34.930,0.120
34.935,-0.024
34.940,-0.070
34.945,0.104
34.950,0.049
34.955,-0.083
34.960,0.054
34.965,0.098
34.970,-0.070
34.975,-0.018
34.980,0.111
34.985,-0.022
34.990,-0.067
34.995,0.099
35.000,0.046
35.005,-0.085
35.010,0.049
35.015,0.094
35.020,-0.077
35.025,-0.026
35.030,0.105
35.035,-0.030
35.040,-0.079
35.045,0.082
35.050,0.014
35.055,-0.125
35.060,0.017
35.065,0.061
35.070,-0.106
35.075,-0.037
35.080,0.089
35.085,-0.061
35.090,-0.101
35.095,0.076
35.100,0.029
35.105,-0.089
35.110,0.069
35.115,0.119
35.120,-0.068
35.125,-0.021
35.130,0.109
35.135,-0.028
35.140,-0.058
35.145,0.117
35.150,0.052
35.155,-0.085
35.160,0.054
35.165,0.100
35.170,-0.065
35.175,-0.008
35.180,0.115
35.185,-0.029
35.190,-0.073
35.195,0.095
35.200,0.037
35.205,-0.096
35.210,0.041
35.215,0.082
35.220,-0.101
35.225,-0.079
35.230,0.014
35.235,-0.127
35.240,-0.166
35.245,-0.044
35.250,-0.182
35.255,-0.283
35.260,0.154
35.265,0.409
35.270,0.042
35.275,-0.097
35.280,0.033
35.285,-0.085
35.290,-0.105
35.295,0.079
35.300,0.023
35.305,-0.101
35.310,0.043
35.315,0.087
35.320,-0.082
35.325,-0.020
35.330,0.112
35.335,-0.029
35.340,-0.072
35.345,0.095
35.350,0.032
35.355,-0.097
35.360,0.046
35.365,0.085
35.370,-0.084
35.375,-0.020
35.380,0.112
35.385,-0.033
35.390,-0.076
35.395,0.094
35.400,0.031
35.405,-0.099
35.410,0.045
35.415,0.084
35.420,-0.086
35.425,-0.025
35.430,0.099
35.435,-0.049
35.440,-0.089
35.445,0.078
35.450,0.011
35.455,-0.117
35.460,0.021
35.465,0.056
35.470,-0.115
35.475,-0.056
35.480,0.069
35.485,-0.072
35.490,-0.111
35.495,0.056
35.500,-0.013
35.505,-0.143
35.510,-0.001
35.515,0.033
35.520,-0.138
35.525,-0.074
35.530,0.057
35.535,-0.081
35.540,-0.114
35.545,0.060
35.550,0.001
35.555,-0.113
35.560,0.046
35.565,0.096
35.570,-0.063
35.575,0.009
35.580,0.144
35.585,0.004
35.590,-0.033
35.595,0.134
35.600,0.066
35.605,-0.064
35.610,0.079
35.615,0.119
35.620,-0.049
35.625,0.013
35.630,0.144
35.635,-0.002
35.640,-0.048
35.645,0.121
35.650,0.056
35.655,-0.075
35.660,0.069
35.665,0.106
35.670,-0.064
35.675,-0.003
35.680,0.123
35.685,-0.021
35.690,-0.060
35.695,0.106
35.700,0.040
35.705,-0.087
35.710,0.056
35.715,0.090
35.720,-0.078
35.725,-0.011
35.730,0.114
35.735,-0.030
35.740,-0.066
35.745,0.097
35.750,0.028
35.755,-0.094
35.760,0.049
35.765,0.084
35.770,-0.080
35.775,-0.015
35.780,0.109
35.785,-0.035
35.790,-0.073
35.795,0.094
35.800,0.026
35.805,-0.101
35.810,0.041
35.815,0.077
35.820,-0.092
35.825,-0.032
35.830,0.085
35.835,-0.065
35.840,-0.102
35.845,0.067
35.850,-0.002
35.855,-0.125
35.860,0.021
35.865,0.045
35.870,-0.130
35.875,-0.050
35.880,0.094
35.885,-0.035
35.890,-0.055
35.895,0.123
35.900,0.059
35.905,-0.076
35.910,0.052
35.915,0.079
35.920,-0.088
35.925,-0.008
35.930,0.128
35.935,-0.021
35.940,-0.056
35.945,0.112
35.950,0.038
35.955,-0.091
35.960,0.052
35.965,0.085
35.970,-0.084
35.975,-0.016
35.980,0.109
35.985,-0.040
35.990,-0.075
35.995,0.089
36.000,0.014
36.005,-0.131
36.010,-0.033
36.015,-0.039
36.020,-0.212
36.025,-0.149
36.030,-0.074
36.035,-0.294
36.040,-0.239
36.045,0.296
36.050,0.418
36.055,0.049
36.060,-0.009
36.065,0.019
36.070,-0.134
36.075,-0.044
36.080,0.098
36.085,-0.048
36.090,-0.080
36.095,0.088
36.100,0.016
36.105,-0.104
36.110,0.046
36.115,0.078
36.120,-0.088
36.125,-0.013
36.130,0.107
36.135,-0.045
36.140,-0.074
36.145,0.094
36.150,0.021
36.155,-0.101
36.160,0.044
36.165,0.077
36.170,-0.089
36.175,-0.018
36.180,0.107
36.185,-0.043
36.190,-0.075
36.195,0.095
36.200,0.021
36.205,-0.104
36.210,0.042
36.215,0.071
36.220,-0.098
36.225,-0.029
36.230,0.090
36.235,-0.060
36.240,-0.093
36.245,0.074
36.250,0.000
36.255,-0.127
36.260,0.017
36.265,0.046
36.270,-0.123
36.275,-0.053
36.280,0.067
36.285,-0.084
36.290,-0.116
36.295,0.047
36.300,-0.027
36.305,-0.151
36.310,-0.004
36.315,0.031
36.320,-0.134
36.325,-0.054
36.330,0.077
36.335,-0.063
36.340,-0.080
36.345,0.099
36.350,0.033
36.355,-0.079
36.360,0.079
36.365,0.110
36.370,-0.057
36.375,0.018
36.380,0.142
36.385,-0.004
36.390,-0.033
36.395,0.132
36.400,0.057
36.405,-0.067
36.410,0.080
36.415,0.110
36.420,-0.056
36.425,0.018
36.430,0.135
36.435,-0.016
36.440,-0.043
36.445,0.120
36.450,0.044
36.455,-0.077
36.460,0.069
36.465,0.094
36.470,-0.074
36.475,0.001
36.480,0.121
36.485,-0.029
36.490,-0.056
36.495,0.107
36.500,0.030
36.505,-0.089
36.510,0.056
36.515,0.082
36.520,-0.084
36.525,-0.011
36.530,0.111
36.535,-0.037
36.540,-0.065
36.545,0.100
36.550,0.024
36.555,-0.093
36.560,0.055
36.565,0.078
36.570,-0.089
36.575,-0.008
36.580,0.111
36.585,-0.042
36.590,-0.066
36.595,0.100
36.600,0.022
36.605,-0.097
36.610,0.049
36.615,0.068
36.620,-0.107
36.625,-0.037
36.630,0.080
36.635,-0.068
36.640,-0.096
36.645,0.070
36.650,-0.002
36.655,-0.128
36.660,0.013
36.665,0.053
36.670,-0.091
36.675,0.000
36.680,0.129
36.685,-0.012
36.690,-0.037
36.695,0.119
36.700,0.032
36.705,-0.095
36.710,0.053
36.715,0.090
36.720,-0.068
36.725,0.007
36.730,0.121
36.735,-0.028
36.740,-0.051
36.745,0.108
36.750,0.026
36.755,-0.091
36.760,0.055
36.765,0.076
36.770,-0.090
36.775,-0.012
36.780,0.104
36.785,-0.048
36.790,-0.074
36.795,0.073
36.800,-0.052
36.805,-0.211
36.810,-0.072
36.815,-0.060
36.820,-0.268
36.825,-0.249
36.830,-0.057
36.835,0.151
36.840,0.352
36.845,0.288
36.850,-0.015
36.855,-0.153
36.860,0.006
36.865,0.048
36.870,-0.098
36.875,-0.013
36.880,0.103
36.885,-0.046
36.890,-0.067
36.895,0.095
36.900,0.016
36.905,-0.095
36.910,0.057
36.915,0.080
36.920,-0.086
36.925,-0.008
36.930,0.109
36.935,-0.039
36.940,-0.060
36.945,0.103
36.950,0.020
36.955,-0.097
36.960,0.054
36.965,0.076
36.970,-0.089
36.975,-0.011
36.980,0.101
36.985,-0.048
36.990,-0.068
36.995,0.091
37.000,0.005
37.005,-0.111
37.010,0.042
37.015,0.061
37.020,-0.107
37.025,-0.027
37.030,0.085
37.035,-0.074
37.040,-0.098
37.045,0.066
37.050,-0.018
37.055,-0.136
37.060,0.012
37.065,0.032
37.070,-0.128
37.075,-0.047
37.080,0.060
37.085,-0.098
37.090,-0.122
37.095,0.039
37.100,-0.043
37.105,-0.152
37.110,0.006
37.115,0.029
37.120,-0.124
37.125,-0.029
37.130,0.093
37.135,-0.049
37.140,-0.057
37.145,0.118
37.150,0.044
37.155,-0.062
37.160,0.096
37.165,0.114
37.170,-0.050
37.175,0.032
37.180,0.141
37.185,-0.007
37.190,-0.024
37.195,0.136
37.200,0.053
37.205,-0.063
37.210,0.086
37.215,0.098
37.220,-0.069
37.225,0.021
37.230,0.136
37.235,-0.020
37.240,-0.041
37.245,0.121
37.250,0.032
37.255,-0.084
37.260,0.069
37.265,0.085
37.270,-0.081
37.275,0.004
37.280,0.114
37.285,-0.042
37.290,-0.056
37.295,0.108
37.300,0.018
37.305,-0.100
37.310,0.049
37.315,0.064
37.320,-0.097
37.325,-0.005
37.330,0.109
37.335,-0.049
37.340,-0.065
37.345,0.100
37.350,0.011
37.355,-0.101
37.360,0.053
37.365,0.066
37.370,-0.098
37.375,-0.007
37.380,0.106
37.385,-0.050
37.390,-0.068
37.395,0.091
37.400,-0.004
37.405,-0.123
37.410,0.024
37.415,0.039
37.420,-0.118
37.425,-0.033
37.430,0.075
37.435,-0.073
37.440,-0.090
37.445,0.057
37.450,-0.026
37.455,-0.108
37.460,0.068
37.465,0.091
37.470,-0.069
37.475,0.018
37.480,0.122
37.485,-0.044
37.490,-0.070
37.495,0.085
37.500,0.011
37.505,-0.075
37.510,0.083
37.515,0.092
37.520,-0.075
37.525,0.010
37.530,0.117
37.535,-0.045
37.540,-0.061
37.545,0.101
37.550,0.013
37.555,-0.095
37.560,0.058
37.565,0.075
37.570,-0.085
37.575,-0.003
37.580,0.087
37.585,-0.107
37.590,-0.156
37.595,0.001
37.600,-0.081
37.605,-0.214
37.610,-0.121
37.615,-0.119
37.620,-0.057
37.625,0.289
37.630,0.276
37.635,-0.108
37.640,-0.143
37.645,0.052
37.650,-0.019
37.655,-0.101
37.660,0.067
37.665,0.078
37.670,-0.083
37.675,0.008
37.680,0.113
37.685,-0.041
37.690,-0.046
37.695,0.116
37.700,0.020
37.705,-0.088
37.710,0.068
37.715,0.077
37.720,-0.086
37.725,0.007
37.730,0.117
37.735,-0.037
37.740,-0.044
37.745,0.115
37.750,0.020
37.755,-0.089
37.760,0.067
37.765,0.083
37.770,-0.079
37.775,0.001
37.780,0.101
37.785,-0.054
37.790,-0.059
37.795,0.100
37.800,0.006
37.805,-0.098
37.810,0.053
37.815,0.057
37.820,-0.107
37.825,-0.019
37.830,0.084
37.835,-0.075
37.840,-0.084
37.845,0.071
37.850,-0.028
37.855,-0.131
37.860,0.024
37.865,0.024
37.870,-0.143
37.875,-0.050
37.880,0.059
37.885,-0.100
37.890,-0.110
37.895,0.047
37.900,-0.042
37.905,-0.130
37.910,0.036
37.915,0.052
37.920,-0.097
37.925,0.006
37.930,0.116
37.935,-0.041
37.940,-0.042
37.945,0.127
37.950,0.037
37.955,-0.059
37.960,0.097
37.965,0.095
37.970,-0.063
37.975,0.034
37.980,0.133
37.985,-0.028
37.990,-0.037
37.995,0.119
38.000,0.024
38.005,-0.077
38.010,0.082
38.015,0.086
38.020,-0.080
38.025,0.012
38.030,0.111
38.035,-0.047
38.040,-0.044
38.045,0.118
38.050,0.016
38.055,-0.094
38.060,0.064
38.065,0.066
38.070,-0.101
38.075,-0.003
38.080,0.106
38.085,-0.050
38.090,-0.055
38.095,0.098
38.100,-0.002
38.105,-0.102
38.110,0.059
38.115,0.064
38.120,-0.092
38.125,0.008
38.130,0.105
38.135,-0.059
38.140,-0.059
38.145,0.101
38.150,0.004
38.155,-0.092
38.160,0.066
38.165,0.065
38.170,-0.099
38.175,-0.006
38.180,0.087
38.185,-0.082
38.190,-0.083
38.195,0.083
38.200,-0.016
38.205,-0.116
38.210,0.046
38.215,0.038
38.220,-0.133
38.225,-0.031
38.230,0.083
38.235,-0.057
38.240,-0.042
38.245,0.126
38.250,0.027
38.255,-0.086
38.260,0.065
38.265,0.063
38.270,-0.097
38.275,0.021
38.280,0.130
38.285,-0.043
38.290,-0.047
38.295,0.116
38.300,0.016
38.305,-0.081
38.310,0.075
38.315,0.067
38.320,-0.096
38.325,0.000
38.330,0.097
38.335,-0.059
38.340,-0.058
38.345,0.096
38.350,-0.008
38.355,-0.117
38.360,0.012
38.365,-0.021
38.370,-0.184
38.375,-0.068
38.380,0.006
38.385,-0.227
38.390,-0.247
38.395,0.122
38.400,0.256
38.405,0.034
38.410,-0.017
38.415,-0.032
38.420,-0.149
38.425,-0.016
38.430,0.100
38.435,-0.059
38.440,-0.053
38.445,0.110
38.450,0.007
38.455,-0.089
38.460,0.077
38.465,0.077
38.470,-0.080
38.475,0.021
38.480,0.112
38.485,-0.051
38.490,-0.045
38.495,0.115
38.500,0.012
38.505,-0.085
38.510,0.076
38.515,0.068
38.520,-0.093
38.525,0.009
38.530,0.102
38.535,-0.060
38.540,-0.055
38.545,0.100
38.550,-0.002
38.555,-0.093
38.560,0.066
38.565,0.055
38.570,-0.108
38.575,-0.006
38.580,0.088
38.585,-0.072
38.590,-0.063
38.595,0.089
38.600,-0.023
38.605,-0.117
38.610,0.042
38.615,0.028
38.620,-0.132
38.625,-0.028
38.630,0.063
38.635,-0.100
38.640,-0.094
38.645,0.059
38.650,-0.047
38.655,-0.141
38.660,0.019
38.665,0.015
38.670,-0.139
38.675,-0.027
38.680,0.077
38.685,-0.075
38.690,-0.059
38.695,0.108
38.700,0.010
38.705,-0.077
38.710,0.091
38.715,0.089
38.720,-0.064
38.725,0.044
38.730,0.134
38.735,-0.032
38.740,-0.024
38.745,0.135
38.750,0.031
38.755,-0.062
38.760,0.099
38.765,0.091
38.770,-0.062
38.775,0.040
38.780,0.125
38.785,-0.035
38.790,-0.024
38.795,0.129
38.800,0.018
38.805,-0.077
38.810,0.084
38.815,0.078
38.820,-0.077
38.825,0.025
38.830,0.111
38.835,-0.052
38.840,-0.040
38.845,0.116
38.850,0.007
38.855,-0.084
38.860,0.079
38.865,0.069
38.870,-0.086
38.875,0.021
38.880,0.114
38.885,-0.048
38.890,-0.043
38.895,0.108
38.900,-0.001
38.905,-0.091
38.910,0.076
38.915,0.066
38.920,-0.093
38.925,0.016
38.930,0.107
38.935,-0.059
38.940,-0.048
38.945,0.108
38.950,0.002
38.955,-0.086
38.960,0.067
38.965,0.041
38.970,-0.121
38.975,-0.016
38.980,0.066
38.985,-0.100
38.990,-0.076
38.995,0.082
39.000,-0.042
39.005,-0.131
39.010,0.045
39.015,0.049
39.020,-0.092
39.025,0.029
39.030,0.127
39.035,-0.039
39.040,-0.038
39.045,0.109
39.050,-0.004
39.055,-0.086
39.060,0.090
39.065,0.080
39.070,-0.080
39.075,0.028
39.080,0.114
39.085,-0.052
39.090,-0.039
39.095,0.116
39.100,0.006
39.105,-0.087
39.110,0.070
39.115,0.053
39.120,-0.100
39.125,0.011
39.130,0.093
39.135,-0.081
39.140,-0.094
39.145,0.013
39.150,-0.126
39.155,-0.212
39.160,-0.068
39.165,-0.142
39.170,-0.343
39.175,-0.034
39.180,0.421
39.185,0.257
39.190,-0.009
39.195,0.033
39.200,-0.064
39.205,-0.129
39.210,0.060
39.215,0.056
39.220,-0.096
39.225,0.016
39.230,0.101
39.235,-0.065
39.240,-0.048
39.245,0.105
39.250,-0.010
39.255,-0.092
39.260,0.075
39.265,0.057
39.270,-0.096
39.275,0.016
39.280,0.100
39.285,-0.064
39.290,-0.047
39.295,0.106
39.300,-0.009
39.305,-0.094
39.310,0.071
39.315,0.055
39.320,-0.099
39.325,0.009
39.330,0.088
39.335,-0.078
39.340,-0.057
39.345,0.096
39.350,-0.020
39.355,-0.104
39.360,0.060
39.365,0.041
39.370,-0.116
39.375,-0.006
39.380,0.073
39.385,-0.097
39.390,-0.082
39.395,0.067
39.400,-0.046
39.405,-0.127
39.410,0.033
39.415,0.013
39.420,-0.142
39.425,-0.033
39.430,0.047
39.435,-0.121
39.440,-0.103
39.445,0.050
39.450,-0.061
39.455,-0.134
39.460,0.043
39.465,0.032
39.470,-0.109
39.475,0.019
39.480,0.111
39.485,-0.045
39.490,-0.015
39.495,0.142
39.500,0.030
39.505,-0.047
39.510,0.120
39.515,0.099
39.520,-0.055
39.525,0.058
39.530,0.139
39.535,-0.025
39.540,-0.004
39.545,0.145
39.550,0.028
39.555,-0.056
39.560,0.103
39.565,0.081
39.570,-0.073
39.575,0.035
39.580,0.116
39.585,-0.047
39.590,-0.025
39.595,0.124
39.600,0.006
39.605,-0.072
39.610,0.092
39.615,0.066
39.620,-0.088
39.625,0.028
39.630,0.107
39.635,-0.060
39.640,-0.035
39.645,0.114
39.650,-0.007
39.655,-0.086
39.660,0.078
39.665,0.054
39.670,-0.094
39.675,0.025
39.680,0.104
39.685,-0.063
39.690,-0.039
39.695,0.109
39.700,-0.011
39.705,-0.088
39.710,0.079
39.715,0.053
39.720,-0.100
39.725,0.021
39.730,0.100
39.735,-0.067
39.740,-0.040
39.745,0.110
39.750,-0.009
39.755,-0.090
39.760,0.066
39.765,0.030
39.770,-0.125
39.775,-0.004
39.780,0.072
39.785,-0.103
39.790,-0.075
39.795,0.081
39.800,-0.048
39.805,-0.134
39.810,0.046
39.815,0.043
39.820,-0.091
39.825,0.040
39.830,0.124
39.835,-0.045
39.840,-0.029
39.845,0.106
39.850,-0.022
39.855,-0.097
39.860,0.080
39.865,0.067
39.870,-0.082
39.875,0.030
39.880,0.102
39.885,-0.065
39.890,-0.038
39.895,0.109
39.900,-0.012
39.905,-0.088
39.910,0.076
39.915,0.047
39.920,-0.105
39.925,0.010
39.930,0.085
39.935,-0.082
39.940,-0.074
39.945,0.029
39.950,-0.132
39.955,-0.218
39.960,-0.062
39.965,-0.133
39.970,-0.344
39.975,-0.156
39.980,0.276
39.985,0.344
39.990,0.145
39.995,0.067
40.000,-0.072
40.005,-0.138
40.010,0.046
40.015,0.037
40.020,-0.108
40.025,0.011
40.030,0.087
40.035,-0.077
40.040,-0.047
40.045,0.102
40.050,-0.019
40.055,-0.090
40.060,0.077
40.065,0.046
40.070,-0.100
40.075,0.024
40.080,0.095
40.085,-0.072
40.090,-0.040
40.095,0.107
40.100,-0.013
40.105,-0.084
40.110,0.080
40.115,0.048
40.120,-0.101
40.125,0.024
40.130,0.096
40.135,-0.074
40.140,-0.043
40.145,0.105
40.150,-0.020
40.155,-0.093
40.160,0.072
40.165,0.035
40.170,-0.115
40.175,0.006
40.180,0.077
40.185,-0.090
40.190,-0.063
40.195,0.077
40.200,-0.049
40.205,-0.118
40.210,0.045
40.215,0.008
40.220,-0.138
40.225,-0.013
40.230,0.054
40.235,-0.117
40.240,-0.091
40.245,0.053
40.250,-0.064
40.255,-0.130
40.260,0.041
40.265,0.018
40.270,-0.117
40.275,0.018
40.280,0.097
40.285,-0.064
40.290,-0.019
40.295,0.138
40.300,0.017
40.305,-0.050
40.310,0.121
40.315,0.087
40.320,-0.056
40.325,0.070
40.330,0.135
40.335,-0.033
40.340,0.003
40.345,0.145
40.350,0.020
40.355,-0.047
40.360,0.115
40.365,0.076
40.370,-0.067
40.375,0.056
40.380,0.120
40.385,-0.047
40.390,-0.013
40.395,0.131
40.400,0.007
40.405,-0.063
40.410,0.102
40.415,0.063
40.420,-0.084
40.425,0.041
40.430,0.108
40.435,-0.061
40.440,-0.028
40.445,0.115
40.450,-0.011
40.455,-0.076
40.460,0.094
40.465,0.056
40.470,-0.090
40.475,0.037
40.480,0.102
40.485,-0.068
40.490,-0.031
40.495,0.114
40.500,-0.013
40.505,-0.079
40.510,0.087
40.515,0.047
40.520,-0.098
40.525,0.030
40.530,0.097
40.535,-0.072
40.540,-0.035
40.545,0.110
40.550,-0.021
40.555,-0.089
40.560,0.079
40.565,0.039
40.570,-0.108
40.575,0.013
40.580,0.074
40.585,-0.087
40.590,-0.042
40.595,0.090
40.600,-0.044
40.605,-0.103
40.610,0.054
40.615,-0.001
40.620,-0.133
40.625,0.016
40.630,0.096
40.635,-0.060
40.640,-0.009
40.645,0.138
40.650,-0.003
40.655,-0.084
40.660,0.072
40.665,0.031
40.670,-0.097
40.675,0.042
40.680,0.105
40.685,-0.067
40.690,-0.031
40.695,0.110
40.700,-0.020
40.705,-0.086
40.710,0.082
40.715,0.042
40.720,-0.103
40.725,0.024
40.730,0.087
40.735,-0.086
40.740,-0.048
40.745,0.096
40.750,-0.042
40.755,-0.141
40.760,-0.024
40.765,-0.089
40.770,-0.234
40.775,-0.131
40.780,-0.124
40.785,-0.314
40.790,-0.033
40.795,0.462
40.800,0.280
40.805,-0.056
40.810,0.019
40.815,-0.016
40.820,-0.143
40.825,0.010
40.830,0.085
40.835,-0.084
40.840,-0.044
40.845,0.101
40.850,-0.025
40.855,-0.089
40.860,0.076
40.865,0.039
40.870,-0.101
40.875,0.026
40.880,0.089
40.885,-0.079
40.890,-0.036
40.895,0.105
40.900,-0.026
40.905,-0.086
40.910,0.079
40.915,0.034
40.920,-0.106
40.925,0.025
40.930,0.085
40.935,-0.084
40.940,-0.039
40.945,0.104
40.950,-0.032
40.955,-0.095
40.960,0.071
40.965,0.026
40.970,-0.116
40.975,0.015
40.980,0.074
40.985,-0.099
40.990,-0.054
40.995,0.085
41.000,-0.054
41.005,-0.116
41.010,0.050
41.015,0.004
41.020,-0.137
41.025,-0.007
41.030,0.052
41.035,-0.119
41.040,-0.078
41.045,0.058
41.050,-0.076
41.055,-0.135
41.060,0.030
41.065,-0.013
41.070,-0.146
41.075,-0.006
41.080,0.064
41.085,-0.095
41.090,-0.040
41.095,0.109
41.100,-0.013
41.105,-0.055
41.110,0.123
41.115,0.079
41.120,-0.058
41.125,0.075
41.130,0.132
41.135,-0.035
41.140,0.013
41.145,0.152
41.150,0.020
41.155,-0.038
41.160,0.127
41.165,0.079
41.170,-0.062
41.175,0.070
41.180,0.127
41.185,-0.044
41.190,0.003
41.195,0.139
41.200,0.001
41.205,-0.057
41.210,0.107
41.215,0.057
41.220,-0.082
41.225,0.051
41.230,0.104
41.235,-0.066
41.240,-0.017
41.245,0.120
41.250,-0.018
41.255,-0.076
41.260,0.092
41.265,0.045
41.270,-0.093
41.275,0.043
41.280,0.101
41.285,-0.068
41.290,-0.023
41.295,0.110
41.300,-0.029
41.305,-0.086
41.310,0.082
41.315,0.038
41.320,-0.097
41.325,0.038
41.330,0.092
41.335,-0.077
41.340,-0.024
41.345,0.113
41.350,-0.025
41.355,-0.083
41.360,0.082
41.365,0.037
41.370,-0.098
41.375,0.035
41.380,0.084
41.385,-0.093
41.390,-0.049
41.395,0.091
41.400,-0.035
41.405,-0.095
41.410,0.066
41.415,0.022
41.420,-0.117
41.425,0.004
41.430,0.058
41.435,-0.092
41.440,-0.027
41.445,0.118
41.450,-0.008
41.455,-0.056
41.460,0.108
41.465,0.047
41.470,-0.100
41.475,0.031
41.480,0.094
41.485,-0.062
41.490,-0.013
41.495,0.118
41.500,-0.019
41.505,-0.073
41.510,0.094
41.515,0.044
41.520,-0.094
41.525,0.040
41.530,0.094
41.535,-0.074
41.540,-0.024
41.545,0.107
41.550,-0.032
41.555,-0.081
41.560,0.081
41.565,-0.005
41.570,-0.186
41.575,-0.065
41.580,-0.003
41.585,-0.182
41.590,-0.188
41.595,-0.097
41.600,-0.078
41.605,0.154
41.610,0.305
41.615,0.019
41.620,-0.187
41.625,-0.020
41.630,0.053
41.635,-0.095
41.640,-0.035
41.645,0.103
41.650,-0.031
41.655,-0.078
41.660,0.091
41.665,0.037
41.670,-0.096
41.675,0.037
41.680,0.081
41.685,-0.080
41.690,-0.018
41.695,0.114
41.700,-0.025
41.705,-0.074
41.710,0.094
41.715,0.042
41.720,-0.091
41.725,0.044
41.730,0.087
41.735,-0.087
41.740,-0.032
41.745,0.106
41.750,-0.035
41.755,-0.086
41.760,0.083
41.765,0.027
41.770,-0.104
41.775,0.036
41.780,0.084
41.785,-0.089
41.790,-0.039
41.795,0.096
41.800,-0.040
41.805,-0.090
41.810,0.074
41.815,0.014
41.820,-0.122
41.825,0.011
41.830,0.055
41.835,-0.114
41.840,-0.060
41.845,0.068
41.850,-0.079
41.855,-0.128
41.860,0.044
41.865,-0.014
41.870,-0.150
41.875,-0.011
41.880,0.035
41.885,-0.128
41.890,-0.061
41.895,0.087
41.900,-0.040
41.905,-0.084
41.910,0.090
41.915,0.044
41.920,-0.079
41.925,0.065
41.930,0.110
41.935,-0.057
41.940,0.002
41.945,0.134
41.950,-0.005
41.955,-0.051
41.960,0.112
41.965,0.050
41.970,-0.077
41.975,0.068
41.980,0.114
41.985,-0.056
41.990,-0.002
41.995,0.121
42.000,-0.022
42.005,-0.059
42.010,0.109
42.015,0.041
42.020,-0.095
42.025,0.047
42.030,0.094
42.035,-0.073
42.040,-0.015
42.045,0.115
42.050,-0.022
42.055,-0.065
42.060,0.097
42.065,0.034
42.070,-0.094
42.075,0.046
42.080,0.088
42.085,-0.080
42.090,-0.025
42.095,0.104
42.100,-0.030
42.105,-0.073
42.110,0.094
42.115,0.037
42.120,-0.094
42.125,0.046
42.130,0.090
42.135,-0.084
42.140,-0.028
42.145,0.106
42.150,-0.031
42.155,-0.078
42.160,0.086
42.165,0.026
42.170,-0.104
42.175,0.028
42.180,0.063
42.185,-0.102
42.190,-0.032
42.195,0.092
42.200,-0.061
42.205,-0.100
42.210,0.071
42.215,-0.001
42.220,-0.131
42.225,0.025
42.230,0.079
42.235,-0.076
42.240,0.002
42.245,0.135
42.250,-0.025
42.255,-0.082
42.260,0.079
42.265,0.020
42.270,-0.092
42.275,0.059
42.280,0.096
42.285,-0.076
42.290,-0.013
42.295,0.117
42.300,-0.028
42.305,-0.074
42.310,0.094
42.315,0.027
42.320,-0.104
42.325,0.040
42.330,0.079
42.335,-0.093
42.340,-0.037
42.345,0.088
42.350,-0.056
42.355,-0.114
42.360,0.021
42.365,-0.052
42.370,-0.163
42.375,-0.027
42.380,-0.051
42.385,-0.277
42.390,-0.083
42.395,0.310
42.400,0.156
42.405,-0.109
42.410,-0.007
42.415,-0.031
42.420,-0.130
42.425,0.038
42.430,0.083
42.435,-0.082
42.440,-0.014
42.445,0.112
42.450,-0.033
42.455,-0.066
42.460,0.104
42.465,0.040
42.470,-0.083
42.475,0.060
42.480,0.096
42.485,-0.076
42.490,-0.011
42.495,0.120
42.500,-0.023
42.505,-0.063
42.510,0.103
42.515,0.034
42.520,-0.096
42.525,0.049
42.530,0.089
42.535,-0.076
42.540,-0.013
42.545,0.111
42.550,-0.034
42.555,-0.071
42.560,0.092
42.565,0.019
42.570,-0.110
42.575,0.034
42.580,0.072
42.585,-0.097
42.590,-0.032
42.595,0.096
42.600,-0.050
42.605,-0.091
42.610,0.070
42.615,-0.001
42.620,-0.129
42.625,0.012
42.630,0.047
42.635,-0.124
42.640,-0.063
42.645,0.058
42.650,-0.090
42.655,-0.124
42.660,0.040
42.665,-0.028
42.670,-0.146
42.675,0.006
42.680,0.051
42.685,-0.104
42.690,-0.023
42.695,0.112
42.700,-0.027
42.705,-0.056
42.710,0.115
42.715,0.053
42.720,-0.068
42.725,0.075
42.730,0.110
42.735,-0.054
42.740,0.013
42.745,0.135
42.750,-0.013
42.755,-0.045
42.760,0.119
42.765,0.047
42.770,-0.078
42.775,0.064
42.780,0.098
42.785,-0.068
42.790,0.003
42.795,0.124
42.800,-0.027
42.805,-0.058
42.810,0.104
42.815,0.033
42.820,-0.088
42.825,0.056
42.830,0.089
42.835,-0.078
42.840,-0.007
42.845,0.113
42.850,-0.038
42.855,-0.072
42.860,0.097
42.865,0.026
42.870,-0.097
42.875,0.054
42.880,0.087
42.885,-0.081
42.890,-0.007
42.895,0.115
42.900,-0.037
42.905,-0.069
42.910,0.097
42.915,0.025
42.920,-0.096
42.925,0.051
42.930,0.081
42.935,-0.086
42.940,-0.012
42.945,0.110
42.950,-0.037
42.955,-0.065
42.960,0.098
42.965,0.018
42.970,-0.110
42.975,0.032
42.980,0.064
42.985,-0.094
42.990,-0.025
42.995,0.088
43.000,-0.057
43.005,-0.086
43.010,0.066
43.015,-0.008
43.020,-0.108
43.025,0.056
43.030,0.093
43.035,-0.059
43.040,0.025
43.045,0.135
43.050,-0.032
43.055,-0.072
43.060,0.089
43.065,0.024
43.070,-0.082
43.075,0.066
43.080,0.087
43.085,-0.082
43.090,-0.008
43.095,0.109
43.100,-0.040
43.105,-0.064
43.110,0.101
43.115,0.022
43.120,-0.101
43.125,0.044
43.130,0.071
43.135,-0.098
43.140,-0.026
43.145,0.088
43.150,-0.093
43.155,-0.172
43.160,-0.029
43.165,-0.102
43.170,-0.246
43.175,-0.159
43.180,-0.164
43.185,-0.106
43.190,0.320
43.195,0.393
43.200,-0.028
43.205,-0.140
43.210,0.042
43.215,-0.018
43.220,-0.114
43.225,0.046
43.230,0.073
43.235,-0.093
43.240,-0.016
43.245,0.101
43.250,-0.050
43.255,-0.075
43.260,0.093
43.265,0.017
43.270,-0.102
43.275,0.048
43.280,0.076
43.285,-0.089
43.290,-0.009
43.295,0.111
43.300,-0.044
43.305,-0.071
43.310,0.099
43.315,0.019
43.320,-0.104
43.325,0.047
43.330,0.073
43.335,-0.094
43.340,-0.017
43.345,0.101
43.350,-0.050
43.355,-0.077
43.360,0.084
43.365,0.005
43.370,-0.110
43.375,0.038
43.380,0.060
43.385,-0.105
43.390,-0.029
43.395,0.084
43.400,-0.070
43.405,-0.094
43.410,0.069
43.415,-0.014
43.420,-0.133
43.425,0.016
43.430,0.038
43.435,-0.130
43.440,-0.057
43.445,0.055
43.450,-0.098
43.455,-0.117
43.460,0.057
43.465,-0.016
43.470,-0.126
43.475,0.036
43.480,0.068
43.485,-0.089
43.490,0.001
43.495,0.125
43.500,-0.021
43.505,-0.034
43.510,0.134
43.515,0.056
43.520,-0.057
43.525,0.094
43.530,0.116
43.535,-0.050
43.540,0.032
43.545,0.147
43.550,-0.008
43.555,-0.032
43.560,0.132
43.565,0.050
43.570,-0.066
43.575,0.084
43.580,0.101
43.585,-0.065
43.590,0.014
43.595,0.127
43.600,-0.025
43.605,-0.050
43.610,0.109
43.615,0.027
43.620,-0.087
43.625,0.067
43.630,0.086
43.635,-0.079
43.640,0.001
43.645,0.113
43.650,-0.040
43.655,-0.061
43.660,0.104
43.665,0.019
43.670,-0.097
43.675,0.057
43.680,0.078
43.685,-0.087
43.690,-0.006
43.695,0.108
43.700,-0.046
43.705,-0.063
43.710,0.103
43.715,0.019
43.720,-0.094
43.725,0.058
43.730,0.074
43.735,-0.091
43.740,-0.006
43.745,0.107
43.750,-0.049
43.755,-0.070
43.760,0.094
43.765,0.010
43.770,-0.107
43.775,0.038
43.780,0.047
43.785,-0.118
43.790,-0.024
43.795,0.089
43.800,-0.072
43.805,-0.087
43.810,0.078
43.815,-0.017
43.820,-0.131
43.825,0.040
43.830,0.078
43.835,-0.074
43.840,0.022
43.845,0.140
43.850,-0.024
43.855,-0.055
43.860,0.099
43.865,0.006
43.870,-0.098
43.875,0.070
43.880,0.087
43.885,-0.082
43.890,0.000
43.895,0.112
43.900,-0.041
43.905,-0.059
43.910,0.103
43.915,0.016
43.920,-0.097
43.925,0.056
43.930,0.067
43.935,-0.100
43.940,-0.016
43.945,0.093
43.950,-0.071
43.955,-0.117
43.960,-0.003
43.965,-0.114
43.970,-0.227
43.975,-0.098
43.980,-0.143
43.985,-0.344
43.990,-0.028
43.995,0.459
44.000,0.283
44.005,-0.012
44.010,0.040
44.015,-0.043
44.020,-0.138
44.025,0.036
44.030,0.061
44.035,-0.098
44.040,-0.011
44.045,0.099
44.050,-0.053
44.055,-0.065
44.060,0.099
44.065,0.015
44.070,-0.093
44.075,0.060
44.080,0.073
44.085,-0.087
44.090,0.002
44.095,0.113
44.100,-0.043
44.105,-0.057
44.110,0.104
44.115,0.014
44.120,-0.094
44.125,0.060
44.130,0.072
44.135,-0.089
44.140,-0.001
44.145,0.104
44.150,-0.055
44.155,-0.064
44.160,0.097
44.165,0.002
44.170,-0.105
44.175,0.049
44.180,0.057
44.185,-0.107
44.190,-0.021
44.195,0.083
44.200,-0.077
44.205,-0.090
44.210,0.068
44.215,-0.026
44.220,-0.134
44.225,0.021
44.230,0.028
44.235,-0.139
44.240,-0.050
44.245,0.055
44.250,-0.105
44.255,-0.118
44.260,0.044
44.265,-0.041
44.270,-0.138
44.275,0.027
44.280,0.047
44.285,-0.103
44.290,0.000
44.295,0.114
44.300,-0.038
44.305,-0.040
44.310,0.131
44.315,0.046
44.320,-0.056
44.325,0.104
44.330,0.114
44.335,-0.051
44.340,0.039
44.345,0.143
44.350,-0.017
44.355,-0.027
44.360,0.135
44.365,0.043
44.370,-0.062
44.375,0.093
44.380,0.100
44.385,-0.062
44.390,0.027
44.395,0.126
44.400,-0.036
44.405,-0.042
44.410,0.121
44.415,0.025
44.420,-0.081
44.425,0.076
44.430,0.082
44.435,-0.081
44.440,0.011
44.445,0.114
44.450,-0.043
44.455,-0.048
44.460,0.111
44.465,0.015
44.470,-0.089
44.475,0.069
44.480,0.077
44.485,-0.086
44.490,0.006
44.495,0.107
44.500,-0.052
44.505,-0.057
44.510,0.105
44.515,0.012
44.520,-0.093
44.525,0.065
44.530,0.070
44.535,-0.092
44.540,0.002
44.545,0.106
44.550,-0.054
44.555,-0.060
44.560,0.100
44.565,0.005
44.570,-0.102
44.575,0.047
44.580,0.046
44.585,-0.114
44.590,-0.015
44.595,0.085
44.600,-0.080
44.605,-0.084
44.610,0.074
44.615,-0.037
44.620,-0.141
44.625,0.036
44.630,0.063
44.635,-0.084
44.640,0.026
44.645,0.137
44.650,-0.031
44.655,-0.053
44.660,0.096
44.665,-0.001
44.670,-0.095
44.675,0.076
44.680,0.086
44.685,-0.080
44.690,0.012
44.695,0.112
44.700,-0.050
44.705,-0.055
44.710,0.104
44.715,0.003
44.720,-0.098
44.725,0.061
44.730,0.060
44.735,-0.105
44.740,-0.010
44.745,0.088
44.750,-0.079
44.755,-0.108
44.760,0.001
44.765,-0.127
44.770,-0.224
44.775,-0.080
44.780,-0.132
44.785,-0.330
44.790,-0.046
44.795,0.421
44.800,0.296
44.805,0.013
44.810,0.038
44.815,-0.053
44.820,-0.140
44.825,0.043
44.830,0.056
44.835,-0.106
44.840,-0.006
44.845,0.095
44.850,-0.065
44.855,-0.063
44.860,0.100
44.865,0.004
44.870,-0.096
44.875,0.061
44.880,0.063
44.885,-0.098
44.890,-0.003
44.895,0.098
44.900,-0.061
44.905,-0.061
44.910,0.097
44.915,-0.002
44.920,-0.097
44.925,0.063
44.930,0.061
44.935,-0.098
44.940,-0.001
44.945,0.096
44.950,-0.063
44.955,-0.065
44.960,0.091
44.965,-0.006
44.970,-0.103
44.975,0.054
44.980,0.052
44.985,-0.107
44.990,-0.011
44.995,0.083
45.000,-0.075
45.005,-0.070
45.010,0.085
45.015,-0.022
45.020,-0.124
45.025,0.033
45.030,0.028
45.035,-0.134
45.040,-0.038
45.045,0.056
45.050,-0.104
45.055,-0.106
45.060,0.052
45.065,-0.045
45.070,-0.138
45.075,0.029
45.080,0.036
45.085,-0.114
45.090,-0.002
45.095,0.111
45.100,-0.035
45.105,-0.029
45.110,0.134
45.115,0.040
45.120,-0.055
45.125,0.106
45.130,0.107
45.135,-0.052
45.140,0.047
45.145,0.142
