'Elapsed time','ECG'
'seconds','mV'
0.000,0.025
0.005,0.028
0.010,0.019
0.015,0.019
0.020,0.032
0.025,0.031
0.030,0.028
0.035,0.028
0.040,0.026
0.045,0.025
0.050,0.030
0.055,0.037
0.060,0.035
0.065,0.032
0.070,0.033
0.075,0.030
0.080,0.026
0.085,0.033
0.090,0.035
0.095,0.028
0.100,0.030
0.105,0.033
0.110,0.024
0.115,0.017
0.120,0.018
0.125,0.017
0.130,0.019
0.135,0.026
0.140,0.025
0.145,0.019
0.150,0.020
0.155,0.023
0.160,0.019
0.165,0.020
0.170,0.027
0.175,0.026
0.180,0.024
0.185,0.028
0.190,0.022
0.195,0.012
0.200,0.016
0.205,0.021
0.210,0.017
0.215,0.020
0.220,0.027
0.225,0.026
0.230,0.024
0.235,0.028
0.240,0.028
0.245,0.022
0.250,0.025
0.255,0.029
0.260,0.023
0.265,0.022
0.270,0.028
0.275,0.024
0.280,0.019
0.285,0.028
0.290,0.033
0.295,0.030
0.300,0.038
0.305,0.048
0.310,0.047
0.315,0.050
0.320,0.068
0.325,0.078
0.330,0.072
0.335,0.083
0.340,0.101
0.345,0.114
0.350,0.129
0.355,0.133
0.360,0.116
0.365,0.104
0.370,0.107
0.375,0.099
0.380,0.077
0.385,0.071
0.390,0.069
0.395,0.038
0.400,0.016
0.405,0.018
0.410,-0.007
0.415,-0.052
0.420,-0.063
0.425,-0.059
0.430,-0.076
0.435,-0.077
0.440,-0.056
0.445,-0.049
0.450,-0.027
0.455,0.054
0.460,0.141
0.465,0.190
0.470,0.276
0.475,0.431
0.480,0.683
0.485,1.079
0.490,1.475
0.495,1.620
0.500,1.474
0.505,1.171
0.510,0.680
0.515,0.085
0.520,-0.305
0.525,-0.505
0.530,-0.643
0.535,-0.667
0.540,-0.633
0.545,-0.631
0.550,-0.630
0.555,-0.606
0.560,-0.584
0.565,-0.569
0.570,-0.537
0.575,-0.508
0.580,-0.493
0.585,-0.467
0.590,-0.438
0.595,-0.428
0.600,-0.409
0.605,-0.375
0.610,-0.356
0.615,-0.341
0.620,-0.312
0.625,-0.291
0.630,-0.285
0.635,-0.262
0.640,-0.233
0.645,-0.222
0.650,-0.203
0.655,-0.174
0.660,-0.164
0.665,-0.152
0.670,-0.130
0.675,-0.122
0.680,-0.113
0.685,-0.091
0.690,-0.078
0.695,-0.075
0.700,-0.061
0.705,-0.045
0.710,-0.036
0.715,-0.026
0.720,-0.011
0.725,-0.004
0.730,0.001
0.735,0.020
0.740,0.033
0.745,0.039
0.750,0.056
0.755,0.070
0.760,0.067
0.765,0.071
0.770,0.088
0.775,0.094
0.780,0.094
0.785,0.106
0.790,0.117
0.795,0.111
0.800,0.110
0.805,0.117
0.810,0.108
0.815,0.101
0.820,0.106
0.825,0.100
0.830,0.084
0.835,0.085
0.840,0.084
0.845,0.067
0.850,0.061
0.855,0.064
0.860,0.051
0.865,0.035
0.870,0.031
0.875,0.016
0.880,-0.012
0.885,-0.015
0.890,-0.017
0.895,-0.045
0.900,-0.059
0.905,-0.052
0.910,-0.064
0.915,-0.079
0.920,-0.067
0.925,-0.064
0.930,-0.074
0.935,-0.062
0.940,-0.046
0.945,-0.050
0.950,-0.048
0.955,-0.032
0.960,-0.030
0.965,-0.033
0.970,-0.019
0.975,-0.013
0.980,-0.018
0.985,-0.007
0.990,0.002
0.995,-0.008
1.000,-0.003
1.005,0.016
1.010,0.011
1.015,0.004
1.020,0.018
1.025,0.017
1.030,0.007
1.035,0.017
1.040,0.023
1.045,0.010
1.050,0.010
1.055,0.025
1.060,0.017
1.065,0.006
1.070,0.016
1.075,0.016
1.080,0.000
1.085,0.006
1.090,0.017
1.095,0.001
1.100,-0.002
1.105,0.014
1.110,-0.002
1.115,-0.036
1.120,-0.048
1.125,-0.047
1.130,-0.034
1.135,0.003
1.140,0.031
1.145,0.013
1.150,0.001
1.155,0.023
1.160,0.016
1.165,-0.004
1.170,0.019
1.175,0.032
1.180,0.007
1.185,0.014
1.190,0.038
1.195,0.021
1.200,0.015
1.205,0.044
1.210,0.039
1.215,0.015
1.220,0.033
1.225,0.044
1.230,0.017
1.235,0.023
1.240,0.045
1.245,0.021
1.250,0.013
1.255,0.041
1.260,0.032
1.265,0.011
1.270,0.037
1.275,0.049
1.280,0.014
1.285,0.017
1.290,0.052
1.295,0.040
1.300,0.037
1.305,0.080
1.310,0.089
1.315,0.076
1.320,0.103
1.325,0.113
1.330,0.094
1.335,0.126
1.340,0.164
1.345,0.130
1.350,0.105
1.355,0.131
1.360,0.120
1.365,0.082
1.370,0.089
1.375,0.091
1.380,0.054
1.385,0.047
1.390,0.060
1.395,0.024
1.400,-0.010
1.405,-0.011
1.410,-0.044
1.415,-0.082
1.420,-0.057
1.425,-0.039
1.430,-0.067
1.435,-0.052
1.440,0.003
1.445,0.042
1.450,0.129
1.455,0.226
1.460,0.241
1.465,0.295
1.470,0.505
1.475,0.842
1.480,1.209
1.485,1.494
1.490,1.536
1.495,1.307
1.500,0.901
1.505,0.374
1.510,-0.110
1.515,-0.402
1.520,-0.545
1.525,-0.620
1.530,-0.639
1.535,-0.627
1.540,-0.625
1.545,-0.628
1.550,-0.598
1.555,-0.553
1.560,-0.525
1.565,-0.497
1.570,-0.467
1.575,-0.442
1.580,-0.414
1.585,-0.387
1.590,-0.375
1.595,-0.363
1.600,-0.336
1.605,-0.315
1.610,-0.314
1.615,-0.307
1.620,-0.292
1.625,-0.283
1.630,-0.269
1.635,-0.250
1.640,-0.239
1.645,-0.222
1.650,-0.185
1.655,-0.154
1.660,-0.136
1.665,-0.116
1.670,-0.097
1.675,-0.092
1.680,-0.083
1.685,-0.067
1.690,-0.060
1.695,-0.051
1.700,-0.037
1.705,-0.031
1.710,-0.024
1.715,-0.009
1.720,0.003
1.725,0.009
1.730,0.024
1.735,0.043
1.740,0.054
1.745,0.063
1.750,0.075
1.755,0.084
1.760,0.089
1.765,0.102
1.770,0.113
1.775,0.111
1.780,0.114
1.785,0.122
1.790,0.119
1.795,0.117
1.800,0.123
1.805,0.119
1.810,0.112
1.815,0.115
1.820,0.112
1.825,0.100
1.830,0.095
1.835,0.094
1.840,0.081
1.845,0.069
1.850,0.065
1.855,0.055
1.860,0.036
1.865,0.024
1.870,0.013
1.875,-0.005
1.880,-0.020
1.885,-0.024
1.890,-0.034
1.895,-0.049
1.900,-0.051
1.905,-0.051
1.910,-0.059
1.915,-0.060
1.920,-0.058
1.925,-0.062
1.930,-0.061
1.935,-0.054
1.940,-0.051
1.945,-0.050
1.950,-0.048
1.955,-0.048
1.960,-0.048
1.965,-0.042
1.970,-0.036
1.975,-0.036
1.980,-0.030
1.985,-0.024
1.990,-0.027
1.995,-0.031
2.000,-0.022
2.005,-0.013
2.010,-0.013
2.015,-0.010
2.020,-0.006
2.025,-0.008
2.030,-0.003
2.035,0.000
2.040,-0.006
2.045,-0.004
2.050,0.004
2.055,0.002
2.060,-0.007
2.065,-0.004
2.070,0.000
2.075,-0.009
2.080,-0.004
2.085,0.008
2.090,0.006
2.095,0.002
2.100,0.007
2.105,0.010
2.110,0.007
2.115,0.012
2.120,0.012
2.125,0.005
2.130,0.009
2.135,0.018
2.140,0.014
2.145,0.009
2.150,0.016
2.155,0.020
2.160,0.014
2.165,0.020
2.170,0.026
2.175,0.022
2.180,0.024
2.185,0.031
2.190,0.026
2.195,0.024
2.200,0.032
2.205,0.028
2.210,0.022
2.215,0.029
2.220,0.032
2.225,0.027
2.230,0.027
2.235,0.032
2.240,0.031
2.245,0.028
2.250,0.030
2.255,0.031
2.260,0.028
2.265,0.031
2.270,0.036
2.275,0.035
2.280,0.039
2.285,0.046
2.290,0.046
2.295,0.050
2.300,0.065
2.305,0.081
2.310,0.090
2.315,0.094
2.320,0.096
2.325,0.105
2.330,0.127
2.335,0.138
2.340,0.125
2.345,0.114
2.350,0.121
2.355,0.118
2.360,0.102
2.365,0.092
2.370,0.082
2.375,0.065
2.380,0.050
2.385,0.044
2.390,0.032
2.395,0.001
2.400,-0.029
2.405,-0.051
2.410,-0.068
2.415,-0.070
2.420,-0.065
2.425,-0.061
2.430,-0.048
2.435,-0.019
2.440,0.034
2.445,0.123
2.450,0.191
2.455,0.245
2.460,0.362
2.465,0.591
2.470,0.957
2.475,1.355
2.480,1.601
2.485,1.565
2.490,1.292
2.495,0.847
2.500,0.275
2.505,-0.193
2.510,-0.451
2.515,-0.593
2.520,-0.642
2.525,-0.632
2.530,-0.617
2.535,-0.604
2.540,-0.597
2.545,-0.584
2.550,-0.557
2.555,-0.534
2.560,-0.518
2.565,-0.497
2.570,-0.472
2.575,-0.453
2.580,-0.426
2.585,-0.397
2.590,-0.380
2.595,-0.362
2.600,-0.334
2.605,-0.315
2.610,-0.300
2.615,-0.273
2.620,-0.254
2.625,-0.248
2.630,-0.230
2.635,-0.203
2.640,-0.190
2.645,-0.176
2.650,-0.150
2.655,-0.135
2.660,-0.125
2.665,-0.104
2.670,-0.085
2.675,-0.077
2.680,-0.068
2.685,-0.055
2.690,-0.045
2.695,-0.034
2.700,-0.017
2.705,-0.006
2.710,0.001
2.715,0.015
2.720,0.027
2.725,0.033
2.730,0.040
2.735,0.051
2.740,0.060
2.745,0.070
2.750,0.084
2.755,0.089
2.760,0.090
2.765,0.103
2.770,0.109
2.775,0.105
2.780,0.111
2.785,0.117
2.790,0.111
2.795,0.109
2.800,0.116
2.805,0.112
2.810,0.101
2.815,0.099
2.820,0.095
2.825,0.081
2.830,0.070
2.835,0.063
2.840,0.053
2.845,0.043
2.850,0.036
2.855,0.023
2.860,0.004
2.865,-0.004
2.870,-0.015
2.875,-0.036
2.880,-0.044
2.885,-0.047
2.890,-0.060
2.895,-0.068
2.900,-0.066
2.905,-0.068
2.910,-0.071
2.915,-0.064
2.920,-0.061
2.925,-0.065
2.930,-0.061
2.935,-0.052
2.940,-0.051
2.945,-0.048
2.950,-0.036
2.955,-0.033
2.960,-0.036
2.965,-0.027
2.970,-0.020
2.975,-0.019
2.980,-0.011
2.985,-0.003
2.990,-0.004
2.995,-0.002
3.000,0.008
3.005,0.010
3.010,0.007
3.015,0.010
3.020,0.012
3.025,0.008
3.030,0.011
3.035,0.018
3.040,0.012
3.045,0.006
3.050,0.009
3.055,0.008
3.060,0.003
3.065,0.009
3.070,0.011
3.075,0.003
3.080,0.004
3.085,0.008
3.090,0.003
3.095,0.003
3.100,0.008
3.105,0.005
3.110,-0.001
3.115,0.003
3.120,0.009
3.125,0.005
3.130,0.006
3.135,0.013
3.140,0.010
3.145,0.009
3.150,0.018
3.155,0.018
3.160,0.013
3.165,0.016
3.170,0.017
3.175,0.016
3.180,0.021
3.185,0.025
3.190,0.021
3.195,0.020
3.200,0.025
3.205,0.023
3.210,0.021
3.215,0.026
3.220,0.026
3.225,0.023
3.230,0.028
3.235,0.031
3.240,0.025
3.245,0.027
3.250,0.035
3.255,0.034
3.260,0.028
3.265,0.030
3.270,0.034
3.275,0.033
3.280,0.040
3.285,0.053
3.290,0.058
3.295,0.067
3.300,0.087
3.305,0.092
3.310,0.088
3.315,0.105
3.320,0.127
3.325,0.133
3.330,0.135
3.335,0.127
3.340,0.111
3.345,0.110
3.350,0.112
3.355,0.093
3.360,0.078
3.365,0.074
3.370,0.058
3.375,0.036
3.380,0.026
3.385,0.009
3.390,-0.024
3.395,-0.053
3.400,-0.059
3.405,-0.059
3.410,-0.063
3.415,-0.057
3.420,-0.049
3.425,-0.030
3.430,0.033
3.435,0.138
3.440,0.204
3.445,0.225
3.450,0.301
3.455,0.478
3.460,0.796
3.465,1.198
3.470,1.498
3.475,1.546
3.480,1.368
3.485,0.991
3.490,0.430
3.495,-0.073
3.500,-0.360
3.505,-0.533
3.510,-0.628
3.515,-0.624
3.520,-0.607
3.525,-0.608
3.530,-0.597
3.535,-0.579
3.540,-0.563
3.545,-0.542
3.550,-0.514
3.555,-0.493
3.560,-0.475
3.565,-0.448
3.570,-0.422
3.575,-0.406
3.580,-0.383
3.585,-0.356
3.590,-0.338
3.595,-0.319
3.600,-0.294
3.605,-0.277
3.610,-0.262
3.615,-0.240
3.620,-0.220
3.625,-0.208
3.630,-0.190
3.635,-0.170
3.640,-0.159
3.645,-0.144
3.650,-0.125
3.655,-0.114
3.660,-0.103
3.665,-0.085
3.670,-0.072
3.675,-0.065
3.680,-0.050
3.685,-0.035
3.690,-0.029
3.695,-0.019
3.700,-0.002
3.705,0.007
3.710,0.011
3.715,0.025
3.720,0.040
3.725,0.045
3.730,0.056
3.735,0.069
3.740,0.072
3.745,0.079
3.750,0.096
3.755,0.104
3.760,0.106
3.765,0.115
3.770,0.118
3.775,0.115
3.780,0.121
3.785,0.124
3.790,0.117
3.795,0.116
3.800,0.118
3.805,0.111
3.810,0.101
3.815,0.098
3.820,0.090
3.825,0.073
3.830,0.067
3.835,0.064
3.840,0.046
3.845,0.033
3.850,0.026
3.855,0.011
3.860,-0.007
3.865,-0.015
3.870,-0.024
3.875,-0.040
3.880,-0.043
3.885,-0.043
3.890,-0.054
3.895,-0.062
3.900,-0.057
3.905,-0.055
3.910,-0.059
3.915,-0.056
3.920,-0.052
3.925,-0.052
3.930,-0.050
3.935,-0.044
3.940,-0.043
3.945,-0.042
3.950,-0.036
3.955,-0.035
3.960,-0.038
3.965,-0.030
3.970,-0.024
3.975,-0.026
3.980,-0.019
3.985,-0.013
3.990,-0.019
3.995,-0.020
4.000,-0.008
4.005,-0.003
4.010,-0.005
4.015,-0.001
4.020,0.002
4.025,-0.002
4.030,0.001
4.035,0.005
4.040,0.001
4.045,0.001
4.050,0.011
4.055,0.011
4.060,0.005
4.065,0.010
4.070,0.014
4.075,0.006
4.080,0.006
4.085,0.011
4.090,0.010
4.095,0.010
4.100,0.016
4.105,0.012
4.110,0.005
4.115,0.011
4.120,0.019
4.125,0.019
4.130,0.020
4.135,0.020
4.140,0.014
4.145,0.015
4.150,0.024
4.155,0.025
4.160,0.024
4.165,0.030
4.170,0.029
4.175,0.019
4.180,0.023
4.185,0.034
4.190,0.031
4.195,0.027
4.200,0.034
4.205,0.032
4.210,0.028
4.215,0.035
4.220,0.037
4.225,0.031
4.230,0.032
4.235,0.034
4.240,0.029
4.245,0.028
4.250,0.034
4.255,0.032
4.260,0.030
4.265,0.038
4.270,0.045
4.275,0.046
4.280,0.058
4.285,0.072
4.290,0.079
4.295,0.088
4.300,0.093
4.305,0.098
4.310,0.114
4.315,0.132
4.320,0.135
4.325,0.121
4.330,0.116
4.335,0.122
4.340,0.112
4.345,0.091
4.350,0.079
4.355,0.068
4.360,0.052
4.365,0.041
4.370,0.033
4.375,0.009
4.380,-0.018
4.385,-0.037
4.390,-0.056
4.395,-0.063
4.400,-0.058
4.405,-0.061
4.410,-0.062
4.415,-0.035
4.420,0.011
4.425,0.087
4.430,0.167
4.435,0.222
4.440,0.314
4.445,0.499
4.450,0.833
4.455,1.245
4.460,1.560
4.465,1.610
4.470,1.392
4.475,1.010
4.480,0.464
4.485,-0.075
4.490,-0.393
4.495,-0.562
4.500,-0.642
4.505,-0.638
4.510,-0.626
4.515,-0.616
4.520,-0.601
4.525,-0.591
4.530,-0.569
4.535,-0.542
4.540,-0.524
4.545,-0.502
4.550,-0.472
4.555,-0.450
4.560,-0.436
4.565,-0.414
4.570,-0.389
4.575,-0.372
4.580,-0.349
4.585,-0.325
4.590,-0.311
4.595,-0.291
4.600,-0.265
4.605,-0.250
4.610,-0.235
4.615,-0.211
4.620,-0.193
4.625,-0.181
4.630,-0.165
4.635,-0.144
4.640,-0.130
4.645,-0.116
4.650,-0.098
4.655,-0.083
4.660,-0.074
4.665,-0.057
4.670,-0.042
4.675,-0.035
4.680,-0.024
4.685,-0.012
4.690,-0.007
4.695,0.004
4.700,0.021
4.705,0.026
4.710,0.032
4.715,0.052
4.720,0.062
4.725,0.061
4.730,0.073
4.735,0.088
4.740,0.091
4.745,0.098
4.750,0.106
4.755,0.106
4.760,0.108
4.765,0.115
4.770,0.115
4.775,0.111
4.780,0.111
4.785,0.110
4.790,0.102
4.795,0.095
4.800,0.094
4.805,0.084
4.810,0.073
4.815,0.067
4.820,0.057
4.825,0.042
4.830,0.036
4.835,0.028
4.840,0.011
4.845,-0.004
4.850,-0.012
4.855,-0.027
4.860,-0.041
4.865,-0.047
4.870,-0.057
4.875,-0.069
4.880,-0.069
4.885,-0.068
4.890,-0.072
4.895,-0.071
4.900,-0.064
4.905,-0.065
4.910,-0.065
4.915,-0.057
4.920,-0.051
4.925,-0.051
4.930,-0.046
4.935,-0.036
4.940,-0.034
4.945,-0.031
4.950,-0.019
4.955,-0.015
4.960,-0.015
4.965,-0.006
4.970,0.001
4.975,0.002
4.980,0.009
4.985,0.017
4.990,0.012
4.995,0.009
5.000,0.017
5.005,0.016
5.010,0.010
5.015,0.015
5.020,0.016
5.025,0.010
5.030,0.012
5.035,0.014
5.040,0.009
5.045,0.005
5.050,0.009
5.055,0.008
5.060,0.004
5.065,0.007
5.070,0.008
5.075,0.002
5.080,0.003
5.085,0.009
5.090,0.007
5.095,0.003
5.100,0.005
5.105,0.007
5.110,0.006
5.115,0.011
5.120,0.015
5.125,0.010
5.130,0.012
5.135,0.017
5.140,0.011
5.145,0.014
5.150,0.022
5.155,0.019
5.160,0.016
5.165,0.021
5.170,0.023
5.175,0.020
5.180,0.022
5.185,0.027
5.190,0.022
5.195,0.019
5.200,0.025
5.205,0.027
5.210,0.026
5.215,0.028
5.220,0.030
5.225,0.026
5.230,0.027
5.235,0.033
5.240,0.029
5.245,0.031
5.250,0.045
5.255,0.048
5.260,0.054
5.265,0.077
5.270,0.091
5.275,0.088
5.280,0.092
5.285,0.107
5.290,0.123
5.295,0.138
5.300,0.142
5.305,0.125
5.310,0.111
5.315,0.118
5.320,0.115
5.325,0.094
5.330,0.081
5.335,0.076
5.340,0.054
5.345,0.036
5.350,0.032
5.355,0.012
5.360,-0.023
5.365,-0.045
5.370,-0.054
5.375,-0.059
5.380,-0.058
5.385,-0.054
5.390,-0.049
5.395,-0.026
5.400,0.040
5.405,0.139
5.410,0.203
5.415,0.234
5.420,0.310
5.425,0.488
5.430,0.821
5.435,1.224
5.440,1.509
5.445,1.553
5.450,1.371
5.455,0.976
5.460,0.409
5.465,-0.080
5.470,-0.362
5.475,-0.539
5.480,-0.626
5.485,-0.622
5.490,-0.611
5.495,-0.609
5.500,-0.597
5.505,-0.583
5.510,-0.565
5.515,-0.538
5.520,-0.514
5.525,-0.494
5.530,-0.470
5.535,-0.445
5.540,-0.424
5.545,-0.403
5.550,-0.378
5.555,-0.360
5.560,-0.341
5.565,-0.315
5.570,-0.295
5.575,-0.281
5.580,-0.261
5.585,-0.239
5.590,-0.223
5.595,-0.206
5.600,-0.185
5.605,-0.169
5.610,-0.156
5.615,-0.137
5.620,-0.122
5.625,-0.114
5.630,-0.099
5.635,-0.082
5.640,-0.073
5.645,-0.061
5.650,-0.046
5.655,-0.036
5.660,-0.030
5.665,-0.015
5.670,-0.003
5.675,0.002
5.680,0.015
5.685,0.029
5.690,0.035
5.695,0.045
5.700,0.060
5.705,0.068
5.710,0.071
5.715,0.083
5.720,0.096
5.725,0.101
5.730,0.110
5.735,0.117
5.740,0.116
5.745,0.118
5.750,0.123
5.755,0.121
5.760,0.119
5.765,0.120
5.770,0.115
5.775,0.107
5.780,0.105
5.785,0.101
5.790,0.086
5.795,0.074
5.800,0.071
5.805,0.059
5.810,0.041
5.815,0.034
5.820,0.024
5.825,0.003
5.830,-0.010
5.835,-0.017
5.840,-0.032
5.845,-0.042
5.850,-0.045
5.855,-0.054
5.860,-0.060
5.865,-0.057
5.870,-0.058
5.875,-0.064
5.880,-0.060
5.885,-0.053
5.890,-0.054
5.895,-0.056
5.900,-0.050
5.905,-0.048
5.910,-0.050
5.915,-0.045
5.920,-0.040
5.925,-0.042
5.930,-0.039
5.935,-0.032
5.940,-0.033
5.945,-0.032
5.950,-0.026
5.955,-0.022
5.960,-0.020
5.965,-0.014
5.970,-0.011
5.975,-0.014
5.980,-0.009
5.985,-0.002
5.990,-0.003
5.995,-0.001
6.000,0.003
6.005,-0.001
6.010,-0.001
6.015,0.004
6.020,0.005
6.025,0.003
6.030,0.008
6.035,0.013
6.040,0.006
6.045,0.005
6.050,0.013
6.055,0.009
6.060,0.004
6.065,0.010
6.070,0.013
6.075,0.010
6.080,0.014
6.085,0.017
6.090,0.013
6.095,0.011
6.100,0.019
6.105,0.018
6.110,0.014
6.115,0.020
6.120,0.020
6.125,0.019
6.130,0.025
6.135,0.029
6.140,0.029
6.145,0.030
6.150,0.030
6.155,0.025
6.160,0.025
6.165,0.032
6.170,0.033
6.175,0.026
6.180,0.024
6.185,0.029
6.190,0.027
6.195,0.026
6.200,0.033
6.205,0.032
6.210,0.027
6.215,0.034
6.220,0.040
6.225,0.037
6.230,0.042
6.235,0.050
6.240,0.051
6.245,0.059
6.250,0.077
6.255,0.086
6.260,0.088
6.265,0.097
6.270,0.108
6.275,0.123
6.280,0.142
6.285,0.139
6.290,0.121
6.295,0.116
6.300,0.119
6.305,0.107
6.310,0.091
6.315,0.085
6.320,0.072
6.325,0.046
6.330,0.031
6.335,0.024
6.340,-0.001
6.345,-0.033
6.350,-0.052
6.355,-0.063
6.360,-0.063
6.365,-0.058
6.370,-0.058
6.375,-0.053
6.380,-0.021
6.385,0.043
6.390,0.126
6.395,0.188
6.400,0.258
6.405,0.391
6.410,0.636
6.415,1.022
6.420,1.418
6.425,1.620
6.430,1.539
6.435,1.249
6.440,0.780
6.445,0.198
6.450,-0.236
6.455,-0.467
6.460,-0.607
6.465,-0.640
6.470,-0.624
6.475,-0.622
6.480,-0.609
6.485,-0.596
6.490,-0.589
6.495,-0.567
6.500,-0.534
6.505,-0.514
6.510,-0.495
6.515,-0.465
6.520,-0.446
6.525,-0.432
6.530,-0.404
6.535,-0.377
6.540,-0.361
6.545,-0.342
6.550,-0.317
6.555,-0.295
6.560,-0.275
6.565,-0.251
6.570,-0.237
6.575,-0.223
6.580,-0.198
6.585,-0.181
6.590,-0.175
6.595,-0.159
6.600,-0.134
6.605,-0.122
6.610,-0.113
6.615,-0.095
6.620,-0.085
6.625,-0.079
6.630,-0.061
6.635,-0.044
6.640,-0.043
6.645,-0.038
6.650,-0.020
6.655,-0.010
6.660,0.000
6.665,0.018
6.670,0.033
6.675,0.041
6.680,0.050
6.685,0.061
6.690,0.067
6.695,0.074
6.700,0.088
6.705,0.093
6.710,0.098
6.715,0.108
6.720,0.114
6.725,0.113
6.730,0.116
6.735,0.117
6.740,0.111
6.745,0.113
6.750,0.117
6.755,0.107
6.760,0.097
6.765,0.098
6.770,0.092
6.775,0.076
6.780,0.067
6.785,0.060
6.790,0.044
6.795,0.033
6.800,0.025
6.805,0.008
6.810,-0.009
6.815,-0.017
6.820,-0.029
6.825,-0.043
6.830,-0.050
6.835,-0.056
6.840,-0.065
6.845,-0.068
6.850,-0.065
6.855,-0.067
6.860,-0.069
6.865,-0.061
6.870,-0.056
6.875,-0.056
6.880,-0.049
6.885,-0.044
6.890,-0.045
6.895,-0.038
6.900,-0.025
6.905,-0.023
6.910,-0.024
6.915,-0.016
6.920,-0.012
6.925,-0.011
6.930,0.001
6.935,0.008
6.940,0.004
6.945,0.009
6.950,0.014
6.955,0.011
6.960,0.012
6.965,0.017
6.970,0.014
6.975,0.008
6.980,0.013
6.985,0.019
6.990,0.014
6.995,0.011
7.000,0.012
7.005,0.008
7.010,0.007
7.015,0.012
7.020,0.011
7.025,0.003
7.030,0.002
7.035,0.006
7.040,0.002
7.045,0.002
7.050,0.011
7.055,0.009
7.060,0.001
7.065,0.005
7.070,0.009
7.075,0.005
7.080,0.007
7.085,0.013
7.090,0.009
7.095,0.010
7.100,0.018
7.105,0.018
7.110,0.015
7.115,0.021
7.120,0.019
7.125,0.014
7.130,0.020
7.135,0.023
7.140,0.019
7.145,0.022
7.150,0.028
7.155,0.027
7.160,0.025
7.165,0.034
7.170,0.036
7.175,0.028
7.180,0.029
7.185,0.033
7.190,0.031
7.195,0.034
7.200,0.045
7.205,0.047
7.210,0.056
7.215,0.078
7.220,0.092
7.225,0.091
7.230,0.095
7.235,0.110
7.240,0.124
7.245,0.137
7.250,0.139
7.255,0.123
7.260,0.112
7.265,0.118
7.270,0.112
7.275,0.090
7.280,0.083
7.285,0.080
7.290,0.058
7.295,0.042
7.300,0.035
7.305,0.013
7.310,-0.018
7.315,-0.040
7.320,-0.053
7.325,-0.060
7.330,-0.058
7.335,-0.054
7.340,-0.046
7.345,-0.010
7.350,0.068
7.355,0.162
7.360,0.212
7.365,0.245
7.370,0.340
7.375,0.550
7.380,0.910
7.385,1.308
7.390,1.546
7.395,1.535
7.400,1.306
7.405,0.864
7.410,0.291
7.415,-0.155
7.420,-0.410
7.425,-0.569
7.430,-0.632
7.435,-0.622
7.440,-0.614
7.445,-0.607
7.450,-0.590
7.455,-0.578
7.460,-0.564
7.465,-0.536
7.470,-0.509
7.475,-0.491
7.480,-0.465
7.485,-0.439
7.490,-0.422
7.495,-0.401
7.500,-0.374
7.505,-0.355
7.510,-0.335
7.515,-0.309
7.520,-0.290
7.525,-0.275
7.530,-0.253
7.535,-0.233
7.540,-0.221
7.545,-0.203
7.550,-0.183
7.555,-0.172
7.560,-0.156
7.565,-0.134
7.570,-0.122
7.575,-0.115
7.580,-0.099
7.585,-0.083
7.590,-0.073
7.595,-0.061
7.600,-0.045
7.605,-0.034
7.610,-0.026
7.615,-0.012
7.620,-0.001
7.625,0.004
7.630,0.018
7.635,0.032
7.640,0.036
7.645,0.045
7.650,0.062
7.655,0.073
7.660,0.078
7.665,0.091
7.670,0.100
7.675,0.102
7.680,0.112
7.685,0.118
7.690,0.113
7.695,0.118
7.700,0.123
7.705,0.117
7.710,0.113
7.715,0.117
7.720,0.114
7.725,0.104
7.730,0.100
7.735,0.095
7.740,0.080
7.745,0.071
7.750,0.068
7.755,0.055
7.760,0.039
7.765,0.032
7.770,0.021
7.775,0.003
7.780,-0.011
7.785,-0.022
7.790,-0.038
7.795,-0.045
7.800,-0.047
7.805,-0.056
7.810,-0.061
7.815,-0.058
7.820,-0.060
7.825,-0.066
7.830,-0.064
7.835,-0.055
7.840,-0.053
7.845,-0.052
7.850,-0.049
7.855,-0.050
7.860,-0.049
7.865,-0.046
7.870,-0.043
7.875,-0.042
7.880,-0.036
7.885,-0.030
7.890,-0.034
7.895,-0.029
7.900,-0.019
7.905,-0.020
7.910,-0.021
7.915,-0.011
7.920,-0.007
7.925,-0.011
7.930,-0.007
7.935,0.001
7.940,-0.003
7.945,-0.003
7.950,0.000
7.955,-0.004
7.960,-0.003
7.965,0.006
7.970,0.006
7.975,0.001
7.980,0.003
7.985,0.006
7.990,0.003
7.995,0.004
8.000,0.009
8.005,0.006
8.010,0.006
8.015,0.013
8.020,0.010
8.025,0.001
8.030,0.009
8.035,0.017
8.040,0.008
8.045,0.008
8.050,0.014
8.055,0.012
8.060,0.011
8.065,0.017
8.070,0.018
8.075,0.018
8.080,0.026
8.085,0.026
8.090,0.021
8.095,0.022
8.100,0.028
8.105,0.030
8.110,0.031
8.115,0.033
8.120,0.027
8.125,0.021
8.130,0.026
8.135,0.031
8.140,0.028
8.145,0.028
8.150,0.032
8.155,0.034
8.160,0.037
8.165,0.043
8.170,0.046
8.175,0.049
8.180,0.061
8.185,0.066
8.190,0.067
8.195,0.082
8.200,0.096
8.205,0.092
8.210,0.096
8.215,0.121
8.220,0.142
8.225,0.140
8.230,0.130
8.235,0.120
8.240,0.113
8.245,0.106
8.250,0.082
8.255,0.048
8.260,0.023
8.265,0.000
8.270,0.001
8.275,0.030
8.280,0.031
8.285,0.003
8.290,-0.027
8.295,-0.048
8.300,-0.051
8.305,-0.052
8.310,-0.053
8.315,-0.043
8.320,-0.019
8.325,0.024
8.330,0.107
8.335,0.177
8.340,0.230
8.345,0.347
8.350,0.556
8.355,0.899
8.360,1.310
8.365,1.599
8.370,1.597
8.375,1.350
8.380,0.958
8.385,0.399
8.390,-0.129
8.395,-0.431
8.400,-0.592
8.405,-0.651
8.410,-0.627
8.415,-0.612
8.420,-0.608
8.425,-0.593
8.430,-0.574
8.435,-0.552
8.440,-0.536
8.445,-0.514
8.450,-0.479
8.455,-0.459
8.460,-0.453
8.465,-0.431
8.470,-0.405
8.475,-0.385
8.480,-0.358
8.485,-0.333
8.490,-0.320
8.495,-0.296
8.500,-0.262
8.505,-0.251
8.510,-0.252
8.515,-0.229
8.520,-0.198
8.525,-0.179
8.530,-0.158
8.535,-0.136
8.540,-0.122
8.545,-0.102
8.550,-0.080
8.555,-0.070
8.560,-0.065
8.565,-0.055
8.570,-0.045
8.575,-0.041
8.580,-0.028
8.585,-0.017
8.590,-0.012
8.595,-0.001
8.600,0.012
8.605,0.020
8.610,0.034
8.615,0.055
8.620,0.058
8.625,0.056
8.630,0.075
8.635,0.094
8.640,0.093
8.645,0.091
8.650,0.109
8.655,0.123
8.660,0.121
8.665,0.120
8.670,0.112
8.675,0.099
8.680,0.105
8.685,0.114
8.690,0.107
8.695,0.096
8.700,0.094
8.705,0.092
8.710,0.072
8.715,0.051
8.720,0.047
8.725,0.040
8.730,0.019
8.735,0.000
8.740,-0.007
8.745,-0.007
8.750,0.010
8.755,0.016
8.760,-0.021
8.765,-0.051
8.770,-0.050
8.775,-0.059
8.780,-0.074
8.785,-0.070
8.790,-0.066
8.795,-0.064
8.800,-0.059
8.805,-0.061
8.810,-0.063
8.815,-0.075
8.820,-0.100
8.825,-0.098
8.830,-0.083
8.835,-0.078
8.840,-0.064
8.845,-0.043
8.850,-0.017
8.855,0.006
8.860,0.027
8.865,0.048
8.870,0.038
8.875,0.022
8.880,0.034
8.885,0.047
8.890,0.040
8.895,0.039
8.900,0.053
8.905,0.065
8.910,0.080
8.915,0.095
8.920,0.091
8.925,0.089
8.930,0.086
8.935,0.063
8.940,0.037
8.945,0.025
8.950,0.016
8.955,0.005
8.960,-0.012
8.965,-0.049
8.970,-0.082
8.975,-0.087
8.980,-0.086
8.985,-0.084
8.990,-0.074
8.995,-0.058
9.000,-0.034
9.005,-0.030
9.010,-0.046
9.015,-0.049
9.020,-0.039
9.025,-0.024
9.030,-0.005
9.035,0.001
9.040,-0.005
9.045,-0.003
9.050,0.000
9.055,-0.005
9.060,-0.005
9.065,0.000
9.070,-0.010
9.075,-0.019
9.080,-0.010
9.085,-0.002
9.090,-0.005
9.095,-0.006
9.100,-0.001
9.105,0.002
9.110,0.016
9.115,0.043
9.120,0.063
9.125,0.060
9.130,0.050
9.135,0.041
9.140,0.035
9.145,0.052
9.150,0.074
9.155,0.076
9.160,0.082
9.165,0.102
9.170,0.117
9.175,0.127
9.180,0.128
9.185,0.115
9.190,0.114
9.195,0.133
9.200,0.128
9.205,0.091
9.210,0.077
9.215,0.080
9.220,0.051
9.225,0.023
9.230,0.024
9.235,0.011
9.240,-0.027
9.245,-0.055
9.250,-0.066
9.255,-0.068
9.260,-0.063
9.265,-0.050
9.270,-0.022
9.275,0.031
9.280,0.112
9.285,0.161
9.290,0.188
9.295,0.295
9.300,0.495
9.305,0.811
9.310,1.219
9.315,1.561
9.320,1.630
9.325,1.401
9.330,1.030
9.335,0.521
9.340,-0.021
9.345,-0.355
9.350,-0.525
9.355,-0.628
9.360,-0.640
9.365,-0.620
9.370,-0.620
9.375,-0.616
9.380,-0.596
9.385,-0.573
9.390,-0.557
9.395,-0.531
9.400,-0.500
9.405,-0.478
9.410,-0.442
9.415,-0.400
9.420,-0.389
9.425,-0.402
9.430,-0.393
9.435,-0.364
9.440,-0.339
9.445,-0.311
9.450,-0.282
9.455,-0.262
9.460,-0.241
9.465,-0.216
9.470,-0.199
9.475,-0.188
9.480,-0.170
9.485,-0.151
9.490,-0.139
9.495,-0.121
9.500,-0.098
9.505,-0.089
9.510,-0.083
9.515,-0.065
9.520,-0.054
9.525,-0.047
9.530,-0.029
9.535,-0.016
9.540,-0.015
9.545,-0.002
9.550,0.015
9.555,0.022
9.560,0.033
9.565,0.052
9.570,0.065
9.575,0.064
9.580,0.066
9.585,0.074
9.590,0.084
9.595,0.103
9.600,0.124
9.605,0.136
9.610,0.134
9.615,0.118
9.620,0.101
9.625,0.100
9.630,0.111
9.635,0.111
9.640,0.105
9.645,0.107
9.650,0.108
9.655,0.099
9.660,0.091
9.665,0.086
9.670,0.075
9.675,0.063
9.680,0.062
9.685,0.060
9.690,0.047
9.695,0.027
9.700,0.005
9.705,-0.013
9.710,-0.025
9.715,-0.026
9.720,-0.030
9.725,-0.042
9.730,-0.048
9.735,-0.051
9.740,-0.053
9.745,-0.052
9.750,-0.046
9.755,-0.038
9.760,-0.043
9.765,-0.060
9.770,-0.068
9.775,-0.056
9.780,-0.038
9.785,-0.025
9.790,-0.016
9.795,-0.015
9.800,-0.020
9.805,-0.030
9.810,-0.028
9.815,-0.013
9.820,-0.005
9.825,-0.002
9.830,0.002
9.835,0.003
9.840,0.004
9.845,0.010
9.850,0.015
9.855,0.013
9.860,0.012
9.865,0.018
9.870,0.017
9.875,0.011
9.880,0.017
9.885,0.020
9.890,0.014
9.895,0.013
9.900,0.016
9.905,0.013
9.910,0.015
9.915,0.022
9.920,0.022
9.925,0.019
9.930,0.013
9.935,0.004
9.940,0.004
9.945,0.008
9.950,0.001
9.955,-0.006
9.960,-0.001
9.965,0.008
9.970,0.009
9.975,0.009
9.980,0.016
9.985,0.017
9.990,0.013
9.995,0.018
10.000,0.024
10.005,0.022
10.010,0.025
10.015,0.027
10.020,0.014
10.025,0.005
10.030,0.013
10.035,0.019
10.040,0.015
10.045,0.021
10.050,0.028
10.055,0.024
10.060,0.025
10.065,0.033
10.070,0.032
10.075,0.029
10.080,0.034
10.085,0.038
10.090,0.038
10.095,0.049
10.100,0.065
10.105,0.076
10.110,0.086
10.115,0.091
10.120,0.089
10.125,0.097
10.130,0.121
10.135,0.136
10.140,0.132
10.145,0.124
10.150,0.119
10.155,0.116
10.160,0.109
10.165,0.097
10.170,0.086
10.175,0.074
10.180,0.060
10.185,0.045
10.190,0.030
10.195,0.011
10.200,-0.015
10.205,-0.041
10.210,-0.047
10.215,-0.043
10.220,-0.058
10.225,-0.072
10.230,-0.053
10.235,-0.006
10.240,0.072
10.245,0.166
10.250,0.214
10.255,0.245
10.260,0.351
10.265,0.593
10.270,0.962
10.275,1.343
10.280,1.562
10.285,1.523
10.290,1.263
10.295,0.802
10.300,0.237
10.305,-0.194
10.310,-0.439
10.315,-0.586
10.320,-0.639
10.325,-0.628
10.330,-0.611
10.335,-0.604
10.340,-0.600
10.345,-0.583
10.350,-0.558
10.355,-0.538
10.360,-0.515
10.365,-0.485
10.370,-0.463
10.375,-0.442
10.380,-0.413
10.385,-0.386
10.390,-0.369
10.395,-0.354
10.400,-0.334
10.405,-0.315
10.410,-0.295
10.415,-0.269
10.420,-0.253
10.425,-0.242
10.430,-0.221
10.435,-0.202
10.440,-0.191
10.445,-0.173
10.450,-0.152
10.455,-0.141
10.460,-0.127
10.465,-0.107
10.470,-0.095
10.475,-0.089
10.480,-0.076
10.485,-0.067
10.490,-0.058
10.495,-0.041
10.500,-0.025
10.505,-0.018
10.510,-0.006
10.515,0.012
10.520,0.019
10.525,0.023
10.530,0.040
10.535,0.052
10.540,0.058
10.545,0.072
10.550,0.090
10.555,0.098
10.560,0.101
10.565,0.108
10.570,0.111
10.575,0.110
10.580,0.116
10.585,0.120
10.590,0.113
10.595,0.111
10.600,0.112
10.605,0.108
10.610,0.108
10.615,0.106
10.620,0.093
10.625,0.079
10.630,0.075
10.635,0.066
10.640,0.051
10.645,0.045
10.650,0.040
10.655,0.024
10.660,0.013
10.665,0.003
10.670,-0.016
10.675,-0.031
10.680,-0.035
10.685,-0.044
10.690,-0.052
10.695,-0.052
10.700,-0.052
10.705,-0.058
10.710,-0.061
10.715,-0.058
10.720,-0.058
10.725,-0.059
10.730,-0.052
10.735,-0.050
10.740,-0.053
10.745,-0.049
10.750,-0.040
10.755,-0.036
10.760,-0.034
10.765,-0.033
10.770,-0.032
10.775,-0.029
10.780,-0.026
10.785,-0.027
10.790,-0.027
10.795,-0.016
10.800,-0.005
10.805,-0.009
10.810,-0.014
10.815,-0.011
10.820,-0.009
10.825,-0.008
10.830,-0.002
10.835,0.001
10.840,0.000
10.845,0.008
10.850,0.013
10.855,0.010
10.860,0.012
10.865,0.017
10.870,0.013
10.875,0.005
10.880,0.013
10.885,0.018
10.890,0.010
10.895,0.011
10.900,0.015
10.905,0.010
10.910,0.012
10.915,0.017
10.920,0.013
10.925,0.010
10.930,0.015
10.935,0.017
10.940,0.010
10.945,0.014
10.950,0.025
10.955,0.026
10.960,0.023
10.965,0.029
10.970,0.029
10.975,0.024
10.980,0.026
10.985,0.029
10.990,0.032
10.995,0.034
11.000,0.030
11.005,0.019
11.010,0.020
11.015,0.032
11.020,0.035
11.025,0.029
11.030,0.034
11.035,0.045
11.040,0.052
11.045,0.058
11.050,0.064
11.055,0.070
11.060,0.080
11.065,0.090
11.070,0.099
11.075,0.116
11.080,0.131
11.085,0.136
11.090,0.127
11.095,0.116
11.100,0.120
11.105,0.118
11.110,0.103
11.115,0.093
11.120,0.085
11.125,0.078
11.130,0.070
11.135,0.050
11.140,0.025
11.145,0.001
11.150,-0.026
11.155,-0.053
11.160,-0.063
11.165,-0.058
11.170,-0.059
11.175,-0.057
11.180,-0.037
11.185,0.003
11.190,0.082
11.195,0.173
11.200,0.238
11.205,0.326
11.210,0.501
11.215,0.820
11.220,1.227
11.225,1.556
11.230,1.634
11.235,1.427
11.240,1.053
11.245,0.526
11.250,-0.028
11.255,-0.375
11.260,-0.553
11.265,-0.643
11.270,-0.645
11.275,-0.630
11.280,-0.619
11.285,-0.606
11.290,-0.597
11.295,-0.576
11.300,-0.552
11.305,-0.533
11.310,-0.510
11.315,-0.480
11.320,-0.457
11.325,-0.439
11.330,-0.415
11.335,-0.392
11.340,-0.375
11.345,-0.352
11.350,-0.326
11.355,-0.308
11.360,-0.290
11.365,-0.267
11.370,-0.249
11.375,-0.234
11.380,-0.214
11.385,-0.197
11.390,-0.185
11.395,-0.164
11.400,-0.142
11.405,-0.134
11.410,-0.122
11.415,-0.103
11.420,-0.094
11.425,-0.084
11.430,-0.066
11.435,-0.053
11.440,-0.044
11.445,-0.029
11.450,-0.014
11.455,-0.007
11.460,0.003
11.465,0.019
11.470,0.027
11.475,0.034
11.480,0.049
11.485,0.059
11.490,0.063
11.495,0.077
11.500,0.091
11.505,0.093
11.510,0.095
11.515,0.108
11.520,0.119
11.525,0.122
11.530,0.126
11.535,0.128
11.540,0.120
11.545,0.119
11.550,0.120
11.555,0.111
11.560,0.105
11.565,0.101
11.570,0.089
11.575,0.077
11.580,0.074
11.585,0.067
11.590,0.052
11.595,0.043
11.600,0.034
11.605,0.013
11.610,-0.002
11.615,-0.010
11.620,-0.027
11.625,-0.042
11.630,-0.050
11.635,-0.060
11.640,-0.072
11.645,-0.073
11.650,-0.072
11.655,-0.075
11.660,-0.074
11.665,-0.068
11.670,-0.068
11.675,-0.067
11.680,-0.059
11.685,-0.054
11.690,-0.055
11.695,-0.049
11.700,-0.041
11.705,-0.042
11.710,-0.038
11.715,-0.024
11.720,-0.019
11.725,-0.018
11.730,-0.008
11.735,-0.002
11.740,-0.001
11.745,0.004
11.750,0.008
11.755,0.007
11.760,0.010
11.765,0.016
11.770,0.013
11.775,0.011
11.780,0.016
11.785,0.019
11.790,0.013
11.795,0.013
11.800,0.017
11.805,0.011
11.810,0.011
11.815,0.016
11.820,0.013
11.825,0.010
11.830,0.014
11.835,0.015
11.840,0.012
11.845,0.013
11.850,0.013
11.855,0.010
11.860,0.012
11.865,0.018
11.870,0.017
11.875,0.014
11.880,0.017
11.885,0.019
11.890,0.017
11.895,0.021
11.900,0.027
11.905,0.025
11.910,0.023
11.915,0.027
11.920,0.024
11.925,0.022
11.930,0.028
11.935,0.030
11.940,0.026
11.945,0.029
11.950,0.033
11.955,0.027
11.960,0.027
11.965,0.036
11.970,0.033
11.975,0.026
11.980,0.033
11.985,0.039
11.990,0.040
11.995,0.047
12.000,0.058
12.005,0.069
12.010,0.083
12.015,0.093
12.020,0.093
12.025,0.101
12.030,0.124
12.035,0.136
12.040,0.129
12.045,0.119
12.050,0.112
12.055,0.109
12.060,0.106
12.065,0.096
12.070,0.082
12.075,0.069
12.080,0.056
12.085,0.040
12.090,0.024
12.095,0.010
12.100,-0.016
12.105,-0.047
12.110,-0.058
12.115,-0.052
12.120,-0.055
12.125,-0.058
12.130,-0.039
12.135,-0.001
12.140,0.074
12.145,0.177
12.150,0.229
12.155,0.248
12.160,0.341
12.165,0.559
12.170,0.911
12.175,1.297
12.180,1.540
12.185,1.536
12.190,1.308
12.195,0.870
12.200,0.300
12.205,-0.155
12.210,-0.413
12.215,-0.568
12.220,-0.637
12.225,-0.630
12.230,-0.613
12.235,-0.606
12.240,-0.600
12.245,-0.580
12.250,-0.557
12.255,-0.540
12.260,-0.516
12.265,-0.487
12.270,-0.467
12.275,-0.447
12.280,-0.420
12.285,-0.399
12.290,-0.382
12.295,-0.358
12.300,-0.333
12.305,-0.317
12.310,-0.297
12.315,-0.274
12.320,-0.257
12.325,-0.240
12.330,-0.220
12.335,-0.204
12.340,-0.192
12.345,-0.173
12.350,-0.154
12.355,-0.144
12.360,-0.130
12.365,-0.112
12.370,-0.102
12.375,-0.093
12.380,-0.075
12.385,-0.062
12.390,-0.056
12.395,-0.040
12.400,-0.024
12.405,-0.019
12.410,-0.008
12.415,0.009
12.420,0.016
12.425,0.023
12.430,0.040
12.435,0.051
12.440,0.056
12.445,0.069
12.450,0.081
12.455,0.087
12.460,0.098
12.465,0.113
12.470,0.117
12.475,0.118
12.480,0.125
12.485,0.128
12.490,0.124
12.495,0.123
12.500,0.120
12.505,0.112
12.510,0.112
12.515,0.110
12.520,0.096
12.525,0.085
12.530,0.082
12.535,0.071
12.540,0.057
12.545,0.050
12.550,0.040
12.555,0.021
12.560,0.009
12.565,0.002
12.570,-0.014
12.575,-0.030
12.580,-0.033
12.585,-0.039
12.590,-0.055
12.595,-0.060
12.600,-0.060
12.605,-0.063
12.610,-0.059
12.615,-0.055
12.620,-0.059
12.625,-0.061
12.630,-0.054
12.635,-0.048
12.640,-0.044
12.645,-0.020
12.650,0.033
12.655,0.105
12.660,0.180
12.665,0.241
12.670,0.296
12.675,0.414
12.680,0.603
12.685,0.773
12.690,0.927
12.695,1.115
12.700,1.296
12.705,1.416
12.710,1.494
12.715,1.548
12.720,1.523
12.725,1.441
12.730,1.378
12.735,1.305
12.740,1.114
12.745,0.719
12.750,0.187
12.755,-0.321
12.760,-0.765
12.765,-1.089
12.770,-1.153
12.775,-1.065
12.780,-1.014
12.785,-1.022
12.790,-1.071
12.795,-1.138
12.800,-1.170
12.805,-1.144
12.810,-1.104
12.815,-1.069
12.820,-1.033
12.825,-0.997
12.830,-0.959
12.835,-0.925
12.840,-0.890
12.845,-0.849
12.850,-0.819
12.855,-0.787
12.860,-0.730
12.865,-0.668
12.870,-0.628
12.875,-0.602
12.880,-0.561
12.885,-0.513
12.890,-0.477
12.895,-0.435
12.900,-0.393
12.905,-0.360
12.910,-0.317
12.915,-0.280
12.920,-0.260
12.925,-0.233
12.930,-0.200
12.935,-0.184
12.940,-0.180
12.945,-0.168
12.950,-0.147
12.955,-0.130
12.960,-0.109
12.965,-0.090
12.970,-0.084
12.975,-0.075
12.980,-0.055
12.985,-0.030
12.990,-0.008
12.995,0.017
13.000,0.043
13.005,0.065
13.010,0.095
13.015,0.130
13.020,0.161
13.025,0.192
13.030,0.229
13.035,0.266
13.040,0.299
13.045,0.334
13.050,0.365
13.055,0.378
13.060,0.391
13.065,0.412
13.070,0.426
13.075,0.426
13.080,0.429
13.085,0.436
13.090,0.434
13.095,0.431
13.100,0.425
13.105,0.407
13.110,0.395
13.115,0.382
13.120,0.351
13.125,0.332
13.130,0.332
13.135,0.321
13.140,0.299
13.145,0.277
13.150,0.259
13.155,0.243
13.160,0.231
13.165,0.219
13.170,0.206
13.175,0.195
13.180,0.191
13.185,0.184
13.190,0.171
13.195,0.166
13.200,0.161
13.205,0.149
13.210,0.145
13.215,0.144
13.220,0.131
13.225,0.122
13.230,0.119
13.235,0.104
13.240,0.088
13.245,0.087
13.250,0.085
13.255,0.071
13.260,0.065
13.265,0.066
13.270,0.057
13.275,0.046
13.280,0.041
13.285,0.034
13.290,0.027
13.295,0.029
13.300,0.028
13.305,0.019
13.310,0.015
13.315,0.015
13.320,0.008
13.325,0.002
13.330,0.006
13.335,0.002
13.340,-0.007
13.345,-0.005
13.350,-0.004
13.355,-0.012
13.360,-0.013
13.365,-0.009
13.370,-0.015
13.375,-0.020
13.380,-0.016
13.385,-0.018
13.390,-0.023
13.395,-0.019
13.400,-0.017
13.405,-0.022
13.410,-0.022
13.415,-0.017
13.420,-0.021
13.425,-0.025
13.430,-0.021
13.435,-0.023
13.440,-0.029
13.445,-0.024
13.450,-0.022
13.455,-0.029
13.460,-0.029
13.465,-0.024
13.470,-0.026
13.475,-0.029
13.480,-0.025
13.485,-0.026
13.490,-0.032
13.495,-0.029
13.500,-0.026
13.505,-0.031
13.510,-0.029
13.515,-0.025
13.520,-0.028
13.525,-0.030
13.530,-0.026
13.535,-0.026
13.540,-0.027
13.545,-0.023
13.550,-0.019
13.555,-0.022
13.560,-0.021
13.565,-0.017
13.570,-0.019
13.575,-0.019
13.580,-0.014
13.585,-0.013
13.590,-0.015
13.595,-0.011
13.600,-0.008
13.605,-0.012
13.610,-0.012
13.615,-0.006
13.620,-0.009
13.625,-0.014
13.630,-0.009
13.635,-0.007
13.640,-0.013
13.645,-0.009
13.650,-0.006
13.655,-0.011
13.660,-0.011
13.665,-0.006
13.670,-0.009
13.675,-0.012
13.680,-0.006
13.685,-0.006
13.690,-0.012
13.695,-0.010
13.700,-0.008
13.705,-0.014
13.710,-0.013
13.715,-0.008
13.720,-0.012
13.725,-0.015
13.730,-0.010
13.735,-0.010
13.740,-0.014
13.745,-0.010
13.750,-0.009
13.755,-0.015
13.760,-0.013
13.765,-0.008
13.770,-0.009
13.775,-0.009
13.780,-0.003
13.785,-0.003
13.790,-0.009
13.795,-0.007
13.800,-0.003
13.805,-0.008
13.810,-0.006
13.815,0.000
13.820,-0.005
13.825,-0.007
13.830,-0.002
13.835,-0.002
13.840,-0.003
13.845,0.006
13.850,0.015
13.855,0.020
13.860,0.036
13.865,0.051
13.870,0.050
13.875,0.052
13.880,0.070
13.885,0.089
13.890,0.097
13.895,0.100
13.900,0.091
13.905,0.076
13.910,0.077
13.915,0.079
13.920,0.059
13.925,0.046
13.930,0.043
13.935,0.023
13.940,0.001
13.945,-0.005
13.950,-0.023
13.955,-0.060
13.960,-0.082
13.965,-0.086
13.970,-0.089
13.975,-0.092
13.980,-0.080
13.985,-0.045
13.990,0.033
13.995,0.137
14.000,0.201
14.005,0.245
14.010,0.342
14.015,0.543
14.020,0.881
14.025,1.270
14.030,1.505
14.035,1.455
14.040,1.199
14.045,0.780
14.050,0.232
14.055,-0.206
14.060,-0.451
14.065,-0.605
14.070,-0.666
14.075,-0.653
14.080,-0.636
14.085,-0.631
14.090,-0.624
14.095,-0.601
14.100,-0.576
14.105,-0.559
14.110,-0.535
14.115,-0.506
14.120,-0.486
14.125,-0.465
14.130,-0.435
14.135,-0.413
14.140,-0.397
14.145,-0.373
14.150,-0.347
14.155,-0.331
14.160,-0.311
14.165,-0.287
14.170,-0.272
14.175,-0.255
14.180,-0.231
14.185,-0.213
14.190,-0.200
14.195,-0.180
14.200,-0.163
14.205,-0.152
14.210,-0.137
14.215,-0.118
14.220,-0.107
14.225,-0.094
14.230,-0.077
14.235,-0.068
14.240,-0.060
14.245,-0.042
14.250,-0.029
14.255,-0.023
14.260,-0.011
14.265,0.003
14.270,0.009
14.275,0.018
14.280,0.034
14.285,0.045
14.290,0.053
14.295,0.066
14.300,0.076
14.305,0.082
14.310,0.094
14.315,0.105
14.320,0.107
14.325,0.109
14.330,0.119
14.335,0.127
14.340,0.128
14.345,0.135
14.350,0.139
14.355,0.133
14.360,0.137
14.365,0.146
14.370,0.142
14.375,0.137
14.380,0.143
14.385,0.144
14.390,0.137
14.395,0.136
14.400,0.136
14.405,0.130
14.410,0.128
14.415,0.124
14.420,0.112
14.425,0.102
14.430,0.097
14.435,0.084
14.440,0.066
14.445,0.054
14.450,0.041
14.455,0.023
14.460,0.012
14.465,0.005
14.470,-0.011
14.475,-0.021
14.480,-0.022
14.485,-0.031
14.490,-0.041
14.495,-0.042
14.500,-0.044
14.505,-0.058
14.510,-0.064
14.515,-0.060
14.520,-0.066
14.525,-0.068
14.530,-0.064
14.535,-0.066
14.540,-0.065
14.545,-0.056
14.550,-0.057
14.555,-0.062
14.560,-0.057
14.565,-0.051
14.570,-0.053
14.575,-0.055
14.580,-0.051
14.585,-0.051
14.590,-0.055
14.595,-0.052
14.600,-0.046
14.605,-0.046
14.610,-0.044
14.615,-0.040
14.620,-0.045
14.625,-0.047
14.630,-0.041
14.635,-0.043
14.640,-0.044
14.645,-0.036
14.650,-0.032
14.655,-0.036
14.660,-0.034
14.665,-0.026
14.670,-0.024
14.675,-0.024
14.680,-0.020
14.685,-0.023
14.690,-0.020
14.695,-0.012
14.700,-0.013
14.705,-0.012
14.710,-0.005
14.715,0.000
14.720,0.001
14.725,0.004
14.730,0.012
14.735,0.016
14.740,0.016
14.745,0.019
14.750,0.020
14.755,0.014
14.760,0.011
14.765,0.017
14.770,0.013
14.775,0.016
14.780,0.035
14.785,0.036
14.790,0.025
14.795,0.027
14.800,0.033
14.805,0.029
14.810,0.032
14.815,0.044
14.820,0.044
14.825,0.051
14.830,0.078
14.835,0.091
14.840,0.085
14.845,0.091
14.850,0.105
14.855,0.118
14.860,0.134
14.865,0.137
14.870,0.126
14.875,0.117
14.880,0.120
14.885,0.114
14.890,0.098
14.895,0.098
14.900,0.094
14.905,0.068
14.910,0.050
14.915,0.045
14.920,0.021
14.925,-0.009
14.930,-0.026
14.935,-0.040
14.940,-0.043
14.945,-0.043
14.950,-0.046
14.955,-0.038
14.960,-0.007
14.965,0.060
14.970,0.147
14.975,0.208
14.980,0.292
14.985,0.442
14.990,0.687
14.995,1.074
15.000,1.469
15.005,1.650
15.010,1.537
15.015,1.225
15.020,0.745
15.025,0.156
15.030,-0.273
15.035,-0.487
15.040,-0.610
15.045,-0.633
15.050,-0.607
15.055,-0.603
15.060,-0.598
15.065,-0.581
15.070,-0.565
15.075,-0.545
15.080,-0.517
15.085,-0.496
15.090,-0.476
15.095,-0.449
15.100,-0.425
15.105,-0.405
15.110,-0.377
15.115,-0.353
15.120,-0.338
15.125,-0.317
15.130,-0.293
15.135,-0.275
15.140,-0.259
15.145,-0.236
15.150,-0.216
15.155,-0.203
15.160,-0.184
15.165,-0.166
15.170,-0.155
15.175,-0.141
15.180,-0.121
15.185,-0.109
15.190,-0.100
15.195,-0.082
15.200,-0.067
15.205,-0.063
15.210,-0.050
15.215,-0.034
15.220,-0.027
15.225,-0.019
15.230,-0.005
15.235,0.003
15.240,0.009
15.245,0.024
15.250,0.034
15.255,0.038
15.260,0.048
15.265,0.058
15.270,0.062
15.275,0.067
15.280,0.077
15.285,0.081
15.290,0.082
15.295,0.091
15.300,0.096
15.305,0.091
15.310,0.092
15.315,0.095
15.320,0.088
15.325,0.086
15.330,0.089
15.335,0.084
15.340,0.076
15.345,0.075
15.350,0.067
15.355,0.055
15.360,0.049
15.365,0.044
15.370,0.030
15.375,0.020
15.380,0.016
15.385,0.004
15.390,-0.012
15.395,-0.019
15.400,-0.028
15.405,-0.043
15.410,-0.049
15.415,-0.051
15.420,-0.060
15.425,-0.063
15.430,-0.058
15.435,-0.059
15.440,-0.060
15.445,-0.053
15.450,-0.048
15.455,-0.049
15.460,-0.042
15.465,-0.033
15.470,-0.033
15.475,-0.030
15.480,-0.017
15.485,-0.013
15.490,-0.012
15.495,-0.003
15.500,0.003
15.505,-0.001
15.510,0.002
15.515,0.008
15.520,0.007
15.525,0.011
15.530,0.018
15.535,0.015
15.540,0.011
15.545,0.019
15.550,0.019
15.555,0.011
15.560,0.012
15.565,0.015
15.570,0.011
15.575,0.008
15.580,0.012
15.585,0.011
15.590,0.006
15.595,0.008
15.600,0.011
15.605,0.007
15.610,0.008
15.615,0.012
15.620,0.007
15.625,0.006
15.630,0.013
15.635,0.011
15.640,0.005
15.645,0.011
15.650,0.014
15.655,0.010
15.660,0.012
15.665,0.016
15.670,0.012
15.675,0.012
15.680,0.017
15.685,0.016
15.690,0.015
15.695,0.021
15.700,0.022
15.705,0.018
15.710,0.021
15.715,0.025
15.720,0.023
15.725,0.021
15.730,0.025
15.735,0.024
15.740,0.020
15.745,0.027
15.750,0.029
15.755,0.027
15.760,0.037
15.765,0.046
15.770,0.049
15.775,0.064
15.780,0.084
15.785,0.087
15.790,0.086
15.795,0.101
15.800,0.119
15.805,0.130
15.810,0.135
15.815,0.127
15.820,0.111
15.825,0.112
15.830,0.115
15.835,0.098
15.840,0.081
15.845,0.081
15.850,0.069
15.855,0.045
15.860,0.036
15.865,0.022
15.870,-0.015
15.875,-0.042
15.880,-0.050
15.885,-0.054
15.890,-0.055
15.895,-0.049
15.900,-0.040
15.905,-0.015
15.910,0.057
15.915,0.158
15.920,0.211
15.925,0.241
15.930,0.341
15.935,0.551
15.940,0.901
15.945,1.300
15.950,1.551
15.955,1.543
15.960,1.324
15.965,0.900
15.970,0.319
15.975,-0.153
15.980,-0.411
15.985,-0.567
15.990,-0.632
15.995,-0.619
16.000,-0.607
16.005,-0.606
16.010,-0.590
16.015,-0.570
16.020,-0.556
16.025,-0.534
16.030,-0.506
16.035,-0.486
16.040,-0.467
16.045,-0.439
16.050,-0.416
16.055,-0.399
16.060,-0.373
16.065,-0.348
16.070,-0.331
16.075,-0.310
16.080,-0.288
16.085,-0.272
16.090,-0.255
16.095,-0.234
16.100,-0.217
16.105,-0.204
16.110,-0.186
16.115,-0.167
16.120,-0.155
16.125,-0.140
16.130,-0.121
16.135,-0.111
16.140,-0.101
16.145,-0.083
16.150,-0.070
16.155,-0.061
16.160,-0.047
16.165,-0.033
16.170,-0.028
16.175,-0.018
16.180,-0.001
16.185,0.007
16.190,0.013
16.195,0.027
16.200,0.037
16.205,0.042
16.210,0.055
16.215,0.068
16.220,0.073
16.225,0.081
16.230,0.092
16.235,0.096
16.240,0.100
16.245,0.111
16.250,0.113
16.255,0.110
16.260,0.113
16.265,0.116
16.270,0.111
16.275,0.108
16.280,0.110
16.285,0.105
16.290,0.097
16.295,0.094
16.300,0.085
16.305,0.069
16.310,0.059
16.315,0.053
16.320,0.038
16.325,0.027
16.330,0.022
16.335,0.008
16.340,-0.008
16.345,-0.017
16.350,-0.029
16.355,-0.042
16.360,-0.047
16.365,-0.048
16.370,-0.054
16.375,-0.054
16.380,-0.051
16.385,-0.056
16.390,-0.061
16.395,-0.056
16.400,-0.054
16.405,-0.056
16.410,-0.048
16.415,-0.041
16.420,-0.045
16.425,-0.045
16.430,-0.037
16.435,-0.035
16.440,-0.034
16.445,-0.023
16.450,-0.020
16.455,-0.026
16.460,-0.020
16.465,-0.010
16.470,-0.010
16.475,-0.007
16.480,-0.001
16.485,-0.002
16.490,-0.002
16.495,0.005
16.500,0.001
16.505,-0.006
16.510,-0.004
16.515,-0.003
16.520,-0.007
16.525,-0.006
16.530,-0.001
16.535,-0.002
16.540,-0.001
16.545,0.009
16.550,0.009
16.555,-0.003
16.560,0.000
16.565,0.009
16.570,0.005
16.575,0.004
16.580,0.010
16.585,0.008
16.590,0.004
16.595,0.011
16.600,0.014
16.605,0.009
16.610,0.011
16.615,0.016
16.620,0.014
16.625,0.017
16.630,0.028
16.635,0.030
16.640,0.025
16.645,0.026
16.650,0.026
16.655,0.023
16.660,0.027
16.665,0.031
16.670,0.026
16.675,0.026
16.680,0.034
16.685,0.037
16.690,0.035
16.695,0.041
16.700,0.043
16.705,0.037
16.710,0.044
16.715,0.054
16.720,0.056
16.725,0.066
16.730,0.086
16.735,0.091
16.740,0.086
16.745,0.098
16.750,0.118
16.755,0.130
16.760,0.136
16.765,0.126
16.770,0.107
16.775,0.112
16.780,0.121
16.785,0.102
16.790,0.086
16.795,0.082
16.800,0.065
16.805,0.041
16.810,0.033
16.815,0.021
16.820,-0.014
16.825,-0.043
16.830,-0.052
16.835,-0.056
16.840,-0.056
16.845,-0.047
16.850,-0.035
16.855,-0.018
16.860,0.035
16.865,0.129
16.870,0.193
16.875,0.253
16.880,0.380
16.885,0.595
16.890,0.957
16.895,1.367
16.900,1.612
16.905,1.571
16.910,1.310
16.915,0.884
16.920,0.296
16.925,-0.200
16.930,-0.450
16.935,-0.585
16.940,-0.646
16.945,-0.628
16.950,-0.611
16.955,-0.615
16.960,-0.602
16.965,-0.575
16.970,-0.560
16.975,-0.546
16.980,-0.516
16.985,-0.487
16.990,-0.467
16.995,-0.442
17.000,-0.416
17.005,-0.398
17.010,-0.377
17.015,-0.351
17.020,-0.336
17.025,-0.320
17.030,-0.296
17.035,-0.278
17.040,-0.261
17.045,-0.236
17.050,-0.217
17.055,-0.202
17.060,-0.181
17.065,-0.162
17.070,-0.151
17.075,-0.133
17.080,-0.112
17.085,-0.102
17.090,-0.093
17.095,-0.074
17.100,-0.063
17.105,-0.057
17.110,-0.040
17.115,-0.025
17.120,-0.019
17.125,-0.011
17.130,0.003
17.135,0.014
17.140,0.021
17.145,0.033
17.150,0.042
17.155,0.044
17.160,0.057
17.165,0.071
17.170,0.073
17.175,0.080
17.180,0.094
17.185,0.097
17.190,0.099
17.195,0.107
17.200,0.109
17.205,0.106
17.210,0.109
17.215,0.109
17.220,0.102
17.225,0.101
17.230,0.100
17.235,0.090
17.240,0.080
17.245,0.077
17.250,0.067
17.255,0.051
17.260,0.043
17.265,0.036
17.270,0.018
17.275,0.007
17.280,0.001
17.285,-0.017
17.290,-0.035
17.295,-0.043
17.300,-0.055
17.305,-0.070
17.310,-0.073
17.315,-0.073
17.320,-0.081
17.325,-0.082
17.330,-0.075
17.335,-0.075
17.340,-0.075
17.345,-0.066
17.350,-0.061
17.355,-0.060
17.360,-0.049
17.365,-0.039
17.370,-0.039
17.375,-0.032
17.380,-0.021
17.385,-0.017
17.390,-0.016
17.395,-0.007
17.400,0.000
17.405,0.000
17.410,0.005
17.415,0.010
17.420,0.010
17.425,0.015
17.430,0.021
17.435,0.018
17.440,0.015
17.445,0.021
17.450,0.021
17.455,0.015
17.460,0.015
17.465,0.018
17.470,0.012
17.475,0.010
17.480,0.011
17.485,0.006
17.490,0.005
17.495,0.011
17.500,0.008
17.505,0.002
17.510,0.006
17.515,0.009
17.520,0.002
17.525,0.003
17.530,0.010
17.535,0.005
17.540,0.002
17.545,0.010
17.550,0.011
17.555,0.007
17.560,0.011
17.565,0.018
17.570,0.014
17.575,0.015
17.580,0.022
17.585,0.019
17.590,0.019
17.595,0.027
17.600,0.027
17.605,0.024
17.610,0.029
17.615,0.031
17.620,0.025
17.625,0.027
17.630,0.032
17.635,0.030
17.640,0.028
17.645,0.033
17.650,0.034
17.655,0.037
17.660,0.047
17.665,0.055
17.670,0.064
17.675,0.081
17.680,0.093
17.685,0.091
17.690,0.096
17.695,0.117
17.700,0.134
17.705,0.135
17.710,0.128
17.715,0.118
17.720,0.111
17.725,0.112
17.730,0.104
17.735,0.084
17.740,0.072
17.745,0.064
17.750,0.047
17.755,0.033
17.760,0.025
17.765,0.000
17.770,-0.035
17.775,-0.050
17.780,-0.049
17.785,-0.052
17.790,-0.052
17.795,-0.041
17.800,-0.012
17.805,0.052
17.810,0.156
17.815,0.226
17.820,0.251
17.825,0.322
17.830,0.504
17.835,0.827
17.840,1.219
17.845,1.512
17.850,1.561
17.855,1.373
17.860,0.986
17.865,0.422
17.870,-0.090
17.875,-0.378
17.880,-0.539
17.885,-0.627
17.890,-0.627
17.895,-0.607
17.900,-0.603
17.905,-0.597
17.910,-0.579
17.915,-0.558
17.920,-0.542
17.925,-0.517
17.930,-0.489
17.935,-0.470
17.940,-0.450
17.945,-0.423
17.950,-0.401
17.955,-0.384
17.960,-0.356
17.965,-0.333
17.970,-0.320
17.975,-0.299
17.980,-0.274
17.985,-0.259
17.990,-0.243
17.995,-0.220
18.000,-0.205
18.005,-0.193
18.010,-0.172
18.015,-0.152
18.020,-0.142
18.025,-0.128
18.030,-0.109
18.035,-0.101
18.040,-0.090
18.045,-0.071
18.050,-0.060
18.055,-0.051
18.060,-0.035
18.065,-0.022
18.070,-0.016
18.075,-0.006
18.080,0.009
18.085,0.015
18.090,0.021
18.095,0.036
18.100,0.049
18.105,0.054
18.110,0.066
18.115,0.078
18.120,0.081
18.125,0.090
18.130,0.102
18.135,0.105
18.140,0.108
18.145,0.117
18.150,0.119
18.155,0.115
18.160,0.118
18.165,0.119
18.170,0.112
18.175,0.109
18.180,0.108
18.185,0.096
18.190,0.088
18.195,0.085
18.200,0.074
18.205,0.059
18.210,0.052
18.215,0.045
18.220,0.028
18.225,0.017
18.230,0.008
18.235,-0.011
18.240,-0.028
18.245,-0.035
18.250,-0.046
18.255,-0.058
18.260,-0.062
18.265,-0.063
18.270,-0.068
18.275,-0.066
18.280,-0.059
18.285,-0.064
18.290,-0.068
18.295,-0.059
18.300,-0.055
18.305,-0.052
18.310,-0.027
18.315,0.021
18.320,0.084
18.325,0.164
18.330,0.231
18.335,0.282
18.340,0.388
18.345,0.572
18.350,0.743
18.355,0.892
18.360,1.079
18.365,1.272
18.370,1.407
18.375,1.490
18.380,1.544
18.385,1.529
18.390,1.454
18.395,1.391
18.400,1.329
18.405,1.183
18.410,0.842
18.415,0.320
18.420,-0.203
18.425,-0.667
18.430,-1.035
18.435,-1.155
18.440,-1.086
18.445,-1.022
18.450,-1.026
18.455,-1.074
18.460,-1.134
18.465,-1.174
18.470,-1.161
18.475,-1.122
18.480,-1.086
18.485,-1.055
18.490,-1.019
18.495,-0.975
18.500,-0.936
18.505,-0.901
18.510,-0.865
18.515,-0.833
18.520,-0.801
18.525,-0.753
18.530,-0.692
18.535,-0.651
18.540,-0.624
18.545,-0.580
18.550,-0.533
18.555,-0.498
18.560,-0.451
18.565,-0.405
18.570,-0.370
18.575,-0.332
18.580,-0.294
18.585,-0.265
18.590,-0.236
18.595,-0.205
18.600,-0.190
18.605,-0.179
18.610,-0.162
18.615,-0.148
18.620,-0.136
18.625,-0.120
18.630,-0.107
18.635,-0.097
18.640,-0.078
18.645,-0.056
18.650,-0.039
18.655,-0.018
18.660,0.013
18.665,0.044
18.670,0.066
18.675,0.091
18.680,0.125
18.685,0.155
18.690,0.187
18.695,0.227
18.700,0.257
18.705,0.283
18.710,0.313
18.715,0.334
18.720,0.356
18.725,0.389
18.730,0.419
18.735,0.431
18.740,0.436
18.745,0.446
18.750,0.449
18.755,0.438
18.760,0.432
18.765,0.423
18.770,0.405
18.775,0.397
18.780,0.391
18.785,0.369
18.790,0.348
18.795,0.336
18.800,0.317
18.805,0.297
18.810,0.286
18.815,0.272
18.820,0.251
18.825,0.237
18.830,0.234
18.835,0.224
18.840,0.208
18.845,0.197
18.850,0.188
18.855,0.179
18.860,0.176
18.865,0.168
18.870,0.150
18.875,0.141
18.880,0.138
18.885,0.131
18.890,0.124
18.895,0.118
18.900,0.107
18.905,0.097
18.910,0.096
18.915,0.090
18.920,0.074
18.925,0.067
18.930,0.065
18.935,0.056
18.940,0.049
18.945,0.046
18.950,0.035
18.955,0.027
18.960,0.029
18.965,0.027
18.970,0.019
18.975,0.017
18.980,0.018
18.985,0.010
18.990,0.007
18.995,0.012
19.000,0.006
19.005,-0.001
19.010,0.002
19.015,0.003
19.020,-0.004
19.025,-0.005
19.030,-0.001
19.035,-0.007
19.040,-0.012
19.045,-0.009
19.050,-0.013
19.055,-0.016
19.060,-0.011
19.065,-0.012
19.070,-0.019
19.075,-0.018
19.080,-0.015
19.085,-0.018
19.090,-0.020
19.095,-0.015
19.100,-0.019
19.105,-0.023
19.110,-0.020
19.115,-0.020
19.120,-0.025
19.125,-0.024
19.130,-0.020
19.135,-0.026
19.140,-0.028
19.145,-0.021
19.150,-0.020
19.155,-0.024
19.160,-0.022
19.165,-0.022
19.170,-0.025
19.175,-0.020
19.180,-0.017
19.185,-0.023
19.190,-0.025
19.195,-0.019
19.200,-0.022
19.205,-0.025
19.210,-0.020
19.215,-0.019
19.220,-0.023
19.225,-0.022
19.230,-0.019
19.235,-0.021
19.240,-0.022
19.245,-0.016
19.250,-0.015
19.255,-0.021
19.260,-0.017
19.265,-0.013
19.270,-0.018
19.275,-0.015
19.280,-0.009
19.285,-0.012
19.290,-0.015
19.295,-0.011
19.300,-0.013
19.305,-0.015
19.310,-0.009
19.315,-0.010
19.320,-0.015
19.325,-0.011
19.330,-0.007
19.335,-0.008
19.340,-0.008
19.345,-0.006
19.350,-0.007
19.355,-0.010
19.360,-0.006
19.365,-0.005
19.370,-0.011
19.375,-0.010
19.380,-0.004
19.385,-0.009
19.390,-0.013
19.395,-0.007
19.400,-0.010
19.405,-0.017
19.410,-0.011
19.415,-0.007
19.420,-0.014
19.425,-0.012
19.430,-0.008
19.435,-0.012
19.440,-0.012
19.445,-0.007
19.450,-0.009
19.455,-0.013
19.460,-0.009
19.465,-0.006
19.470,-0.011
19.475,-0.010
19.480,-0.007
19.485,-0.009
19.490,-0.011
19.495,-0.006
19.500,-0.006
19.505,-0.007
19.510,-0.002
19.515,0.001
19.520,0.002
19.525,0.010
19.530,0.022
19.535,0.032
19.540,0.046
19.545,0.055
19.550,0.054
19.555,0.061
19.560,0.084
19.565,0.099
19.570,0.096
19.575,0.087
19.580,0.079
19.585,0.073
19.590,0.068
19.595,0.057
19.600,0.043
19.605,0.034
19.610,0.021
19.615,0.005
19.620,-0.012
19.625,-0.030
19.630,-0.055
19.635,-0.084
19.640,-0.097
19.645,-0.090
19.650,-0.088
19.655,-0.087
19.660,-0.048
19.665,0.038
19.670,0.135
19.675,0.196
19.680,0.249
19.685,0.344
19.690,0.536
19.695,0.880
19.700,1.267
19.705,1.488
19.710,1.437
19.715,1.183
19.720,0.752
19.725,0.204
19.730,-0.222
19.735,-0.465
19.740,-0.617
19.745,-0.663
19.750,-0.649
19.755,-0.639
19.760,-0.628
19.765,-0.614
19.770,-0.601
19.775,-0.578
19.780,-0.552
19.785,-0.533
19.790,-0.510
19.795,-0.479
19.800,-0.458
19.805,-0.439
19.810,-0.411
19.815,-0.386
19.820,-0.370
19.825,-0.347
19.830,-0.322
19.835,-0.306
19.840,-0.289
19.845,-0.263
19.850,-0.246
19.855,-0.233
19.860,-0.210
19.865,-0.192
19.870,-0.183
19.875,-0.166
19.880,-0.145
19.885,-0.133
19.890,-0.120
19.895,-0.101
19.900,-0.091
19.905,-0.081
19.910,-0.064
19.915,-0.051
19.920,-0.043
19.925,-0.032
19.930,-0.018
19.935,-0.006
19.940,0.004
19.945,0.019
19.950,0.028
19.955,0.035
19.960,0.049
19.965,0.061
19.970,0.070
19.975,0.080
19.980,0.089
19.985,0.090
19.990,0.094
19.995,0.104
20.000,0.108
20.005,0.110
20.010,0.120
20.015,0.125
20.020,0.125
20.025,0.132
20.030,0.139
20.035,0.138
20.040,0.140
20.045,0.147
20.050,0.145
20.055,0.139
20.060,0.142
20.065,0.146
20.070,0.139
20.075,0.137
20.080,0.137
20.085,0.126
20.090,0.118
20.095,0.112
20.100,0.100
20.105,0.087
20.110,0.080
20.115,0.069
20.120,0.051
20.125,0.040
20.130,0.033
20.135,0.017
20.140,0.002
20.145,-0.002
20.150,-0.010
20.155,-0.027
20.160,-0.036
20.165,-0.040
20.170,-0.047
20.175,-0.050
20.180,-0.051
20.185,-0.057
20.190,-0.062
20.195,-0.060
20.200,-0.061
20.205,-0.064
20.210,-0.061
20.215,-0.062
20.220,-0.067
20.225,-0.058
20.230,-0.048
20.235,-0.049
20.240,-0.050
20.245,-0.048
20.250,-0.049
20.255,-0.051
20.260,-0.046
20.265,-0.044
20.270,-0.046
20.275,-0.040
20.280,-0.037
20.285,-0.043
20.290,-0.040
20.295,-0.032
20.300,-0.034
20.305,-0.039
20.310,-0.037
20.315,-0.039
20.320,-0.043
20.325,-0.034
20.330,-0.025
20.335,-0.028
20.340,-0.028
20.345,-0.017
20.350,-0.014
20.355,-0.023
20.360,-0.023
20.365,-0.017
20.370,-0.018
20.375,-0.014
20.380,-0.006
20.385,-0.008
20.390,-0.003
20.395,0.004
20.400,0.001
20.405,-0.002
20.410,0.006
20.415,0.009
20.420,0.006
20.425,0.011
20.430,0.013
20.435,0.011
20.440,0.015
20.445,0.022
20.450,0.022
20.455,0.021
20.460,0.026
20.465,0.025
20.470,0.018
20.475,0.020
20.480,0.029
20.485,0.032
20.490,0.040
20.495,0.053
20.500,0.056
20.505,0.060
20.510,0.080
20.515,0.092
20.520,0.087
20.525,0.093
20.530,0.119
20.535,0.135
20.540,0.137
20.545,0.135
20.550,0.125
20.555,0.119
20.560,0.128
20.565,0.118
20.570,0.096
20.575,0.092
20.580,0.084
20.585,0.056
20.590,0.041
20.595,0.036
20.600,0.011
20.605,-0.025
20.610,-0.044
20.615,-0.050
20.620,-0.055
20.625,-0.055
20.630,-0.048
20.635,-0.033
20.640,0.004
20.645,0.086
20.650,0.170
20.655,0.223
20.660,0.312
20.665,0.481
20.670,0.775
20.675,1.178
20.680,1.531
20.685,1.635
20.690,1.456
20.695,1.113
20.700,0.601
20.705,0.035
20.710,-0.323
20.715,-0.506
20.720,-0.616
20.725,-0.623
20.730,-0.598
20.735,-0.597
20.740,-0.588
20.745,-0.570
20.750,-0.555
20.755,-0.539
20.760,-0.511
20.765,-0.485
20.770,-0.468
20.775,-0.446
20.780,-0.418
20.785,-0.397
20.790,-0.375
20.795,-0.350
20.800,-0.334
20.805,-0.319
20.810,-0.293
20.815,-0.271
20.820,-0.257
20.825,-0.237
20.830,-0.216
20.835,-0.204
20.840,-0.189
20.845,-0.167
20.850,-0.153
20.855,-0.142
20.860,-0.125
20.865,-0.110
20.870,-0.100
20.875,-0.084
20.880,-0.068
20.885,-0.062
20.890,-0.054
20.895,-0.036
20.900,-0.025
20.905,-0.021
20.910,-0.009
20.915,0.003
20.920,0.008
20.925,0.020
20.930,0.034
20.935,0.038
20.940,0.044
20.945,0.057
20.950,0.063
20.955,0.067
20.960,0.080
20.965,0.088
20.970,0.087
20.975,0.093
20.980,0.099
20.985,0.097
20.990,0.099
20.995,0.102
21.000,0.096
21.005,0.090
21.010,0.092
21.015,0.089
21.020,0.078
21.025,0.075
21.030,0.075
21.035,0.064
21.040,0.053
21.045,0.050
21.050,0.038
21.055,0.024
21.060,0.019
21.065,0.009
21.070,-0.010
21.075,-0.022
21.080,-0.028
21.085,-0.041
21.090,-0.050
21.095,-0.052
21.100,-0.059
21.105,-0.065
21.110,-0.061
21.115,-0.060
21.120,-0.062
21.125,-0.056
21.130,-0.050
21.135,-0.052
21.140,-0.051
21.145,-0.042
21.150,-0.038
21.155,-0.036
21.160,-0.027
21.165,-0.022
21.170,-0.021
21.175,-0.012
21.180,-0.003
21.185,-0.005
21.190,-0.001
21.195,0.008
21.200,0.006
21.205,0.005
21.210,0.016
21.215,0.019
21.220,0.014
21.225,0.017
21.230,0.022
21.235,0.018
21.240,0.017
21.245,0.021
21.250,0.018
21.255,0.015
21.260,0.019
21.265,0.018
21.270,0.012
21.275,0.014
21.280,0.016
21.285,0.010
21.290,0.009
21.295,0.014
21.300,0.014
21.305,0.011
21.310,0.013
21.315,0.013
21.320,0.009
21.325,0.011
21.330,0.017
21.335,0.015
21.340,0.014
21.345,0.020
21.350,0.018
21.355,0.015
21.360,0.020
21.365,0.023
21.370,0.020
21.375,0.024
21.380,0.028
21.385,0.024
21.390,0.023
21.395,0.029
21.400,0.029
21.405,0.027
21.410,0.031
21.415,0.032
21.420,0.027
21.425,0.032
21.430,0.036
21.435,0.031
21.440,0.031
21.445,0.035
21.450,0.035
21.455,0.036
21.460,0.045
21.465,0.049
21.470,0.053
21.475,0.072
21.480,0.092
21.485,0.091
21.490,0.088
21.495,0.104
21.500,0.122
21.505,0.130
21.510,0.133
21.515,0.122
21.520,0.108
21.525,0.110
21.530,0.108
21.535,0.089
21.540,0.079
21.545,0.074
21.550,0.052
21.555,0.032
21.560,0.026
21.565,0.009
21.570,-0.026
21.575,-0.049
21.580,-0.056
21.585,-0.061
21.590,-0.061
21.595,-0.057
21.600,-0.052
21.605,-0.020
21.610,0.060
21.615,0.156
21.620,0.205
21.625,0.237
21.630,0.335
21.635,0.542
21.640,0.895
21.645,1.292
21.650,1.535
21.655,1.522
21.660,1.296
21.665,0.856
21.670,0.278
21.675,-0.168
21.680,-0.418
21.685,-0.574
21.690,-0.633
21.695,-0.617
21.700,-0.608
21.705,-0.607
21.710,-0.591
21.715,-0.573
21.720,-0.558
21.725,-0.534
21.730,-0.508
21.735,-0.489
21.740,-0.468
21.745,-0.441
21.750,-0.420
21.755,-0.400
21.760,-0.373
21.765,-0.353
21.770,-0.336
21.775,-0.313
21.780,-0.290
21.785,-0.275
21.790,-0.257
21.795,-0.234
21.800,-0.218
21.805,-0.204
21.810,-0.182
21.815,-0.165
21.820,-0.155
21.825,-0.138
21.830,-0.120
21.835,-0.109
21.840,-0.096
21.845,-0.080
21.850,-0.071
21.855,-0.063
21.860,-0.048
21.865,-0.035
21.870,-0.026
21.875,-0.011
21.880,0.004
21.885,0.011
21.890,0.021
21.895,0.033
21.900,0.040
21.905,0.046
21.910,0.058
21.915,0.069
21.920,0.074
21.925,0.084
21.930,0.094
21.935,0.093
21.940,0.094
21.945,0.104
21.950,0.106
21.955,0.108
21.960,0.115
21.965,0.115
21.970,0.108
21.975,0.105
21.980,0.101
21.985,0.092
21.990,0.086
21.995,0.084
22.000,0.075
22.005,0.062
22.010,0.056
22.015,0.049
22.020,0.037
22.025,0.026
22.030,0.014
22.035,-0.003
22.040,-0.016
22.045,-0.021
22.050,-0.032
22.055,-0.044
22.060,-0.047
22.065,-0.048
22.070,-0.055
22.075,-0.057
22.080,-0.059
22.085,-0.066
22.090,-0.062
22.095,-0.051
22.100,-0.050
22.105,-0.050
22.110,-0.045
22.115,-0.049
22.120,-0.051
22.125,-0.041
22.130,-0.038
22.135,-0.041
22.140,-0.035
22.145,-0.022
22.150,-0.020
22.155,-0.025
22.160,-0.021
22.165,-0.016
22.170,-0.014
22.175,-0.010
22.180,-0.007
22.185,-0.010
22.190,-0.009
22.195,0.001
22.200,0.001
22.205,-0.005
22.210,-0.001
22.215,0.005
22.220,0.003
22.225,0.003
22.230,0.008
22.235,0.004
22.240,0.005
22.245,0.013
22.250,0.010
22.255,0.006
22.260,0.013
22.265,0.018
22.270,0.014
22.275,0.012
22.280,0.014
22.285,0.012
22.290,0.012
22.295,0.017
22.300,0.018
22.305,0.021
22.310,0.027
22.315,0.022
22.320,0.016
22.325,0.022
22.330,0.024
22.335,0.017
22.340,0.018
22.345,0.025
22.350,0.026
22.355,0.027
22.360,0.033
22.365,0.032
22.370,0.028
22.375,0.031
22.380,0.032
22.385,0.027
22.390,0.030
22.395,0.037
22.400,0.034
22.405,0.034
22.410,0.044
22.415,0.049
22.420,0.051
22.425,0.065
22.430,0.087
22.435,0.093
22.440,0.092
22.445,0.102
22.450,0.114
22.455,0.127
22.460,0.140
22.465,0.135
22.470,0.122
22.475,0.125
22.480,0.126
22.485,0.104
22.490,0.085
22.495,0.082
22.500,0.071
22.505,0.050
22.510,0.041
22.515,0.030
22.520,0.000
22.525,-0.029
22.530,-0.047
22.535,-0.057
22.540,-0.056
22.545,-0.050
22.550,-0.052
22.555,-0.042
22.560,-0.005
22.565,0.073
22.570,0.163
22.575,0.225
22.580,0.307
22.585,0.462
22.590,0.761
22.595,1.169
22.600,1.512
22.605,1.617
22.610,1.444
22.615,1.093
22.620,0.573
22.625,0.012
22.630,-0.346
22.635,-0.535
22.640,-0.639
22.645,-0.640
22.650,-0.623
22.655,-0.618
22.660,-0.598
22.665,-0.582
22.670,-0.568
22.675,-0.544
22.680,-0.518
22.685,-0.498
22.690,-0.471
22.695,-0.441
22.700,-0.423
22.705,-0.404
22.710,-0.377
22.715,-0.354
22.720,-0.338
22.725,-0.318
22.730,-0.295
22.735,-0.278
22.740,-0.257
22.745,-0.234
22.750,-0.220
22.755,-0.206
22.760,-0.183
22.765,-0.168
22.770,-0.159
22.775,-0.142
22.780,-0.124
22.785,-0.115
22.790,-0.100
22.795,-0.083
22.800,-0.074
22.805,-0.064
22.810,-0.047
22.815,-0.036
22.820,-0.029
22.825,-0.015
22.830,-0.005
22.835,0.000
22.840,0.011
22.845,0.027
22.850,0.035
22.855,0.042
22.860,0.055
22.865,0.063
22.870,0.068
22.875,0.080
22.880,0.092
22.885,0.094
22.890,0.099
22.895,0.108
22.900,0.109
22.905,0.108
22.910,0.111
22.915,0.110
22.920,0.103
22.925,0.102
22.930,0.101
22.935,0.092
22.940,0.085
22.945,0.083
22.950,0.071
22.955,0.056
22.960,0.052
22.965,0.041
22.970,0.024
22.975,0.014
22.980,0.003
22.985,-0.014
22.990,-0.029
22.995,-0.039
23.000,-0.055
23.005,-0.067
23.010,-0.070
23.015,-0.075
23.020,-0.081
23.025,-0.078
23.030,-0.074
23.035,-0.077
23.040,-0.073
23.045,-0.064
23.050,-0.063
23.055,-0.061
23.060,-0.051
23.065,-0.047
23.070,-0.045
23.075,-0.034
23.080,-0.027
23.085,-0.028
23.090,-0.020
23.095,-0.010
23.100,-0.008
23.105,-0.004
23.110,0.007
23.115,0.010
23.120,0.009
23.125,0.015
23.130,0.020
23.135,0.013
23.140,0.014
23.145,0.021
23.150,0.016
23.155,0.013
23.160,0.019
23.165,0.015
23.170,0.007
23.175,0.013
23.180,0.018
23.185,0.011
23.190,0.011
23.195,0.016
23.200,0.010
23.205,0.006
23.210,0.012
23.215,0.012
23.220,0.008
23.225,0.012
23.230,0.014
23.235,0.009
23.240,0.009
23.245,0.015
23.250,0.012
23.255,0.011
23.260,0.018
23.265,0.019
23.270,0.015
23.275,0.019
23.280,0.024
23.285,0.020
23.290,0.022
23.295,0.028
23.300,0.024
23.305,0.023
23.310,0.030
23.315,0.028
23.320,0.024
23.325,0.028
23.330,0.029
23.335,0.023
23.340,0.025
23.345,0.032
23.350,0.034
23.355,0.038
23.360,0.049
23.365,0.058
23.370,0.068
23.375,0.085
23.380,0.093
23.385,0.093
23.390,0.106
23.395,0.129
23.400,0.136
23.405,0.132
23.410,0.126
23.415,0.117
23.420,0.114
23.425,0.112
23.430,0.097
23.435,0.083
23.440,0.074
23.445,0.060
23.450,0.042
23.455,0.029
23.460,0.012
23.465,-0.018
23.470,-0.047
23.475,-0.053
23.480,-0.050
23.485,-0.055
23.490,-0.052
23.495,-0.037
23.500,-0.003
23.505,0.076
23.510,0.179
23.515,0.225
23.520,0.244
23.525,0.344
23.530,0.565
23.535,0.914
23.540,1.301
23.545,1.542
23.550,1.524
23.555,1.286
23.560,0.840
23.565,0.267
23.570,-0.178
23.575,-0.420
23.580,-0.569
23.585,-0.633
23.590,-0.620
23.595,-0.604
23.600,-0.602
23.605,-0.592
23.610,-0.570
23.615,-0.549
23.620,-0.531
23.625,-0.503
23.630,-0.479
23.635,-0.462
23.640,-0.437
23.645,-0.411
23.650,-0.393
23.655,-0.372
23.660,-0.346
23.665,-0.327
23.670,-0.309
23.675,-0.284
23.680,-0.265
23.685,-0.253
23.690,-0.234
23.695,-0.211
23.700,-0.199
23.705,-0.186
23.710,-0.164
23.715,-0.150
23.720,-0.138
23.725,-0.119
23.730,-0.103
23.735,-0.096
23.740,-0.083
23.745,-0.065
23.750,-0.056
23.755,-0.046
23.760,-0.030
23.765,-0.020
23.770,-0.012
23.775,0.002
23.780,0.012
23.785,0.017
23.790,0.030
23.795,0.044
23.800,0.052
23.805,0.062
23.810,0.079
23.815,0.087
23.820,0.093
23.825,0.106
23.830,0.116
23.835,0.118
23.840,0.122
23.845,0.129
23.850,0.128
23.855,0.127
23.860,0.132
23.865,0.127
23.870,0.115
23.875,0.116
23.880,0.114
23.885,0.097
23.890,0.086
23.895,0.082
23.900,0.068
23.905,0.056
23.910,0.049
23.915,0.033
23.920,0.015
23.925,0.006
23.930,-0.008
23.935,-0.030
23.940,-0.040
23.945,-0.043
23.950,-0.056
23.955,-0.063
23.960,-0.063
23.965,-0.069
23.970,-0.073
23.975,-0.069
23.980,-0.067
23.985,-0.072
23.990,-0.070
23.995,-0.062
24.000,-0.060
24.005,-0.061
24.010,-0.054
24.015,-0.052
24.020,-0.051
24.025,-0.040
24.030,-0.036
24.035,-0.041
24.040,-0.038
24.045,-0.032
24.050,-0.032
24.055,-0.029
24.060,-0.021
24.065,-0.021
24.070,-0.018
24.075,-0.009
24.080,-0.007
24.085,-0.011
24.090,-0.005
24.095,0.001
24.100,-0.002
24.105,0.001
24.110,0.009
24.115,0.006
24.120,0.003
24.125,0.006
24.130,0.006
24.135,0.003
24.140,0.008
24.145,0.014
24.150,0.009
24.155,0.005
24.160,0.010
24.165,0.010
24.170,0.007
24.175,0.013
24.180,0.017
24.185,0.013
24.190,0.016
24.195,0.021
24.200,0.018
24.205,0.017
24.210,0.023
24.215,0.023
24.220,0.019
24.225,0.027
24.230,0.029
24.235,0.024
24.240,0.029
24.245,0.034
24.250,0.026
24.255,0.025
24.260,0.031
24.265,0.032
24.270,0.031
24.275,0.033
24.280,0.032
24.285,0.030
24.290,0.033
24.295,0.034
24.300,0.030
24.305,0.028
24.310,0.036
24.315,0.040
24.320,0.040
24.325,0.047
24.330,0.056
24.335,0.063
24.340,0.081
24.345,0.093
24.350,0.088
24.355,0.089
24.360,0.110
24.365,0.130
24.370,0.137
24.375,0.135
24.380,0.126
24.385,0.117
24.390,0.120
24.395,0.116
24.400,0.098
24.405,0.085
24.410,0.075
24.415,0.052
24.420,0.034
24.425,0.029
24.430,0.007
24.435,-0.031
24.440,-0.053
24.445,-0.054
24.450,-0.053
24.455,-0.052
24.460,-0.047
24.465,-0.036
24.470,-0.012
24.475,0.059
24.480,0.154
24.485,0.209
24.490,0.272
24.495,0.411
24.500,0.666
24.505,1.050
24.510,1.434
24.515,1.606
24.520,1.496
24.525,1.200
24.530,0.717
24.535,0.133
24.540,-0.272
24.545,-0.484
24.550,-0.619
24.555,-0.650
24.560,-0.624
24.565,-0.613
24.570,-0.606
24.575,-0.589
24.580,-0.566
24.585,-0.548
24.590,-0.531
24.595,-0.508
24.600,-0.485
24.605,-0.461
24.610,-0.436
24.615,-0.412
24.620,-0.391
24.625,-0.364
24.630,-0.341
24.635,-0.328
24.640,-0.308
24.645,-0.284
24.650,-0.271
24.655,-0.252
24.660,-0.227
24.665,-0.213
24.670,-0.200
24.675,-0.178
24.680,-0.159
24.685,-0.148
24.690,-0.133
24.695,-0.119
24.700,-0.111
24.705,-0.100
24.710,-0.085
24.715,-0.073
24.720,-0.063
24.725,-0.046
24.730,-0.032
24.735,-0.027
24.740,-0.018
24.745,-0.004
24.750,0.004
24.755,0.015
24.760,0.032
24.765,0.044
24.770,0.051
24.775,0.064
24.780,0.075
24.785,0.079
24.790,0.089
24.795,0.102
24.800,0.107
24.805,0.113
24.810,0.122
24.815,0.122
24.820,0.120
24.825,0.123
24.830,0.123
24.835,0.116
24.840,0.113
24.845,0.113
24.850,0.101
24.855,0.089
24.860,0.085
24.865,0.073
24.870,0.058
24.875,0.052
24.880,0.042
24.885,0.024
24.890,0.012
24.895,0.002
24.900,-0.014
24.905,-0.030
24.910,-0.038
24.915,-0.053
24.920,-0.067
24.925,-0.067
24.930,-0.069
24.935,-0.077
24.940,-0.076
24.945,-0.073
24.950,-0.075
24.955,-0.072
24.960,-0.066
24.965,-0.065
24.970,-0.065
24.975,-0.056
24.980,-0.049
24.985,-0.048
24.990,-0.041
24.995,-0.034
25.000,-0.035
25.005,-0.031
25.010,-0.019
25.015,-0.015
25.020,-0.016
25.025,-0.008
25.030,-0.003
25.035,-0.006
25.040,0.000
25.045,0.008
25.050,0.007
25.055,0.007
25.060,0.014
25.065,0.013
25.070,0.010
25.075,0.015
25.080,0.015
25.085,0.010
25.090,0.010
25.095,0.014
25.100,0.011
25.105,0.010
25.110,0.014
25.115,0.014
25.120,0.010
25.125,0.013
25.130,0.014
25.135,0.011
25.140,0.014
25.145,0.017
25.150,0.014
25.155,0.015
25.160,0.020
25.165,0.018
25.170,0.014
25.175,0.018
25.180,0.018
25.185,0.014
25.190,0.019
25.195,0.024
25.200,0.019
25.205,0.018
25.210,0.023
25.215,0.024
25.220,0.022
25.225,0.025
25.230,0.024
25.235,0.019
25.240,0.023
25.245,0.027
25.250,0.024
25.255,0.025
25.260,0.030
25.265,0.029
25.270,0.028
25.275,0.038
25.280,0.048
25.285,0.052
25.290,0.067
25.295,0.089
25.300,0.093
25.305,0.091
25.310,0.104
25.315,0.121
25.320,0.134
25.325,0.143
25.330,0.135
25.335,0.116
25.340,0.116
25.345,0.120
25.350,0.104
25.355,0.088
25.360,0.085
25.365,0.070
25.370,0.048
25.375,0.041
25.380,0.026
25.385,-0.007
25.390,-0.033
25.395,-0.048
25.400,-0.059
25.405,-0.057
25.410,-0.051
25.415,-0.050
25.420,-0.032
25.425,0.027
25.430,0.124
25.435,0.204
25.440,0.233
25.445,0.284
25.450,0.419
25.455,0.694
25.460,1.084
25.465,1.423
25.470,1.550
25.475,1.445
25.480,1.130
25.485,0.604
25.490,0.062
25.495,-0.281
25.500,-0.483
25.505,-0.608
25.510,-0.626
25.515,-0.610
25.520,-0.608
25.525,-0.596
25.530,-0.581
25.535,-0.566
25.540,-0.545
25.545,-0.518
25.550,-0.499
25.555,-0.477
25.560,-0.449
25.565,-0.428
25.570,-0.410
25.575,-0.385
25.580,-0.362
25.585,-0.345
25.590,-0.323
25.595,-0.299
25.600,-0.283
25.605,-0.265
25.610,-0.242
25.615,-0.227
25.620,-0.214
25.625,-0.193
25.630,-0.177
25.635,-0.166
25.640,-0.148
25.645,-0.129
25.650,-0.119
25.655,-0.108
25.660,-0.089
25.665,-0.077
25.670,-0.068
25.675,-0.053
25.680,-0.040
25.685,-0.031
25.690,-0.017
25.695,-0.005
25.700,0.001
25.705,0.012
25.710,0.030
25.715,0.040
25.720,0.046
25.725,0.060
25.730,0.072
25.735,0.077
25.740,0.090
25.745,0.103
25.750,0.105
25.755,0.111
25.760,0.120
25.765,0.122
25.770,0.125
25.775,0.131
25.780,0.130
25.785,0.123
25.790,0.120
25.795,0.118
25.800,0.109
25.805,0.102
25.810,0.098
25.815,0.083
25.820,0.068
25.825,0.062
25.830,0.051
25.835,0.035
25.840,0.023
25.845,0.012
25.850,-0.007
25.855,-0.023
25.860,-0.031
25.865,-0.042
25.870,-0.051
25.875,-0.053
25.880,-0.060
25.885,-0.071
25.890,-0.070
25.895,-0.066
25.900,-0.069
25.905,-0.069
25.910,-0.064
25.915,-0.064
25.920,-0.063
25.925,-0.056
25.930,-0.056
25.935,-0.058
25.940,-0.051
25.945,-0.044
25.950,-0.047
25.955,-0.045
25.960,-0.036
25.965,-0.034
25.970,-0.036
25.975,-0.029
25.980,-0.024
25.985,-0.023
25.990,-0.016
25.995,-0.009
26.000,-0.011
26.005,-0.009
26.010,-0.002
26.015,-0.003
26.020,-0.005
26.025,0.004
26.030,0.008
26.035,0.005
26.040,0.009
26.045,0.014
26.050,0.009
26.055,0.006
26.060,0.009
26.065,0.008
26.070,0.009
26.075,0.017
26.080,0.017
26.085,0.008
26.090,0.012
26.095,0.018
26.100,0.013
26.105,0.013
26.110,0.020
26.115,0.019
26.120,0.015
26.125,0.018
26.130,0.016
26.135,0.012
26.140,0.020
26.145,0.026
26.150,0.020
26.155,0.020
26.160,0.029
26.165,0.029
26.170,0.025
26.175,0.028
26.180,0.029
26.185,0.027
26.190,0.031
26.195,0.035
26.200,0.029
26.205,0.028
26.210,0.033
26.215,0.032
26.220,0.031
26.225,0.036
26.230,0.036
26.235,0.031
26.240,0.038
26.245,0.049
26.250,0.052
26.255,0.063
26.260,0.086
26.265,0.095
26.270,0.089
26.275,0.096
26.280,0.116
26.285,0.132
26.290,0.143
26.295,0.138
26.300,0.119
26.305,0.113
26.310,0.118
26.315,0.104
26.320,0.087
26.325,0.084
26.330,0.072
26.335,0.049
26.340,0.038
26.345,0.030
26.350,0.001
26.355,-0.030
26.360,-0.047
26.365,-0.055
26.370,-0.054
26.375,-0.050
26.380,-0.051
26.385,-0.043
26.390,-0.004
26.395,0.071
26.400,0.159
26.405,0.212
26.410,0.264
26.415,0.374
26.420,0.605
26.425,0.981
26.430,1.370
26.435,1.582
26.440,1.529
26.445,1.262
26.450,0.796
26.455,0.218
26.460,-0.211
26.465,-0.452
26.470,-0.603
26.475,-0.642
26.480,-0.621
26.485,-0.613
26.490,-0.604
26.495,-0.592
26.500,-0.582
26.505,-0.562
26.510,-0.535
26.515,-0.517
26.520,-0.500
26.525,-0.468
26.530,-0.439
26.535,-0.418
26.540,-0.393
26.545,-0.371
26.550,-0.360
26.555,-0.338
26.560,-0.306
26.565,-0.289
26.570,-0.279
26.575,-0.256
26.580,-0.236
26.585,-0.222
26.590,-0.200
26.595,-0.183
26.600,-0.176
26.605,-0.162
26.610,-0.140
26.615,-0.126
26.620,-0.114
26.625,-0.094
26.630,-0.078
26.635,-0.069
26.640,-0.055
26.645,-0.041
26.650,-0.034
26.655,-0.022
26.660,-0.004
26.665,0.005
26.670,0.011
26.675,0.024
26.680,0.035
26.685,0.041
26.690,0.055
26.695,0.069
26.700,0.074
26.705,0.084
26.710,0.099
26.715,0.105
26.720,0.109
26.725,0.119
26.730,0.123
26.735,0.120
26.740,0.122
26.745,0.124
26.750,0.119
26.755,0.118
26.760,0.118
26.765,0.109
26.770,0.100
26.775,0.099
26.780,0.090
26.785,0.075
26.790,0.067
26.795,0.057
26.800,0.040
26.805,0.026
26.810,0.018
26.815,0.002
26.820,-0.016
26.825,-0.026
26.830,-0.040
26.835,-0.055
26.840,-0.061
26.845,-0.064
26.850,-0.074
26.855,-0.076
26.860,-0.071
26.865,-0.073
26.870,-0.076
26.875,-0.069
26.880,-0.066
26.885,-0.067
26.890,-0.063
26.895,-0.056
26.900,-0.056
26.905,-0.054
26.910,-0.045
26.915,-0.041
26.920,-0.039
26.925,-0.032
26.930,-0.027
26.935,-0.027
26.940,-0.019
26.945,-0.010
26.950,-0.012
26.955,-0.010
26.960,-0.003
26.965,-0.003
26.970,-0.002
26.975,0.006
26.980,0.008
26.985,0.004
26.990,0.010
26.995,0.016
27.000,0.010
27.005,0.010
27.010,0.016
27.015,0.013
27.020,0.012
27.025,0.018
27.030,0.017
27.035,0.013
27.040,0.017
27.045,0.019
27.050,0.015
27.055,0.015
27.060,0.020
27.065,0.018
27.070,0.014
27.075,0.020
27.080,0.022
27.085,0.019
27.090,0.021
27.095,0.024
27.100,0.019
27.105,0.017
27.110,0.023
27.115,0.022
27.120,0.020
27.125,0.025
27.130,0.026
27.135,0.022
27.140,0.023
27.145,0.028
27.150,0.025
27.155,0.022
27.160,0.027
27.165,0.029
27.170,0.026
27.175,0.029
27.180,0.030
27.185,0.027
27.190,0.032
27.195,0.041
27.200,0.043
27.205,0.052
27.210,0.072
27.215,0.085
27.220,0.089
27.225,0.096
27.230,0.106
27.235,0.119
27.240,0.137
27.245,0.141
27.250,0.125
27.255,0.114
27.260,0.118
27.265,0.113
27.270,0.096
27.275,0.089
27.280,0.082
27.285,0.061
27.290,0.046
27.295,0.039
27.300,0.015
27.305,-0.014
27.310,-0.036
27.315,-0.053
27.320,-0.059
27.325,-0.054
27.330,-0.053
27.335,-0.050
27.340,-0.016
27.345,0.056
27.350,0.154
27.355,0.217
27.360,0.242
27.365,0.307
27.370,0.474
27.375,0.792
27.380,1.190
27.385,1.482
27.390,1.545
27.395,1.375
27.400,0.986
27.405,0.436
27.410,-0.054
27.415,-0.350
27.420,-0.530
27.425,-0.624
27.430,-0.624
27.435,-0.611
27.440,-0.604
27.445,-0.589
27.450,-0.578
27.455,-0.561
27.460,-0.538
27.465,-0.518
27.470,-0.495
27.475,-0.468
27.480,-0.445
27.485,-0.425
27.490,-0.400
27.495,-0.375
27.500,-0.358
27.505,-0.336
27.510,-0.312
27.515,-0.296
27.520,-0.278
27.525,-0.256
27.530,-0.239
27.535,-0.225
27.540,-0.206
27.545,-0.187
27.550,-0.176
27.555,-0.160
27.560,-0.140
27.565,-0.129
27.570,-0.118
27.575,-0.098
27.580,-0.085
27.585,-0.076
27.590,-0.059
27.595,-0.044
27.600,-0.039
27.605,-0.027
27.610,-0.010
27.615,-0.002
27.620,0.004
27.625,0.020
27.630,0.032
27.635,0.038
27.640,0.050
27.645,0.063
27.650,0.067
27.655,0.078
27.660,0.092
27.665,0.099
27.670,0.105
27.675,0.117
27.680,0.123
27.685,0.123
27.690,0.127
27.695,0.130
27.700,0.124
27.705,0.123
27.710,0.126
27.715,0.120
27.720,0.111
27.725,0.107
27.730,0.097
27.735,0.084
27.740,0.074
27.745,0.067
27.750,0.053
27.755,0.037
27.760,0.027
27.765,0.011
27.770,-0.008
27.775,-0.019
27.780,-0.033
27.785,-0.049
27.790,-0.055
27.795,-0.060
27.800,-0.069
27.805,-0.073
27.810,-0.072
27.815,-0.076
27.820,-0.080
27.825,-0.074
27.830,-0.068
27.835,-0.069
27.840,-0.063
27.845,-0.049
27.850,-0.025
27.855,0.027
27.860,0.105
27.865,0.173
27.870,0.223
27.875,0.286
27.880,0.411
27.885,0.592
27.890,0.759
27.895,0.915
27.900,1.100
27.905,1.284
27.910,1.418
27.915,1.490
27.920,1.526
27.925,1.503
27.930,1.426
27.935,1.371
27.940,1.308
27.945,1.103
27.950,0.694
27.955,0.181
27.960,-0.301
27.965,-0.738
27.970,-1.063
27.975,-1.128
27.980,-1.048
27.985,-1.007
27.990,-1.013
27.995,-1.060
28.000,-1.132
28.005,-1.155
28.010,-1.112
28.015,-1.079
28.020,-1.053
28.025,-1.008
28.030,-0.973
28.035,-0.943
28.040,-0.903
28.045,-0.874
28.050,-0.850
28.055,-0.813
28.060,-0.778
28.065,-0.751
28.070,-0.728
28.075,-0.698
28.080,-0.661
28.085,-0.637
28.090,-0.604
28.095,-0.553
28.100,-0.505
28.105,-0.446
28.110,-0.398
28.115,-0.375
28.120,-0.332
28.125,-0.268
28.130,-0.218
28.135,-0.185
28.140,-0.150
28.145,-0.126
28.150,-0.115
28.155,-0.101
28.160,-0.082
28.165,-0.060
28.170,-0.045
28.175,-0.034
28.180,-0.025
28.185,-0.016
28.190,0.006
28.195,0.032
28.200,0.046
28.205,0.068
28.210,0.102
28.215,0.130
28.220,0.157
28.225,0.191
28.230,0.218
28.235,0.241
28.240,0.276
28.245,0.308
28.250,0.334
28.255,0.365
28.260,0.390
28.265,0.400
28.270,0.410
28.275,0.428
28.280,0.438
28.285,0.437
28.290,0.438
28.295,0.435
28.300,0.423
28.305,0.417
28.310,0.413
28.315,0.394
28.320,0.375
28.325,0.361
28.330,0.339
28.335,0.320
28.340,0.313
28.345,0.302
28.350,0.278
28.355,0.258
28.360,0.246
28.365,0.233
28.370,0.224
28.375,0.215
28.380,0.199
28.385,0.188
28.390,0.186
28.395,0.180
28.400,0.167
28.405,0.160
28.410,0.156
28.415,0.142
28.420,0.130
28.425,0.127
28.430,0.119
28.435,0.108
28.440,0.104
28.445,0.101
28.450,0.091
28.455,0.085
28.460,0.082
28.465,0.070
28.470,0.060
28.475,0.060
28.480,0.051
28.485,0.038
28.490,0.038
28.495,0.036
28.500,0.019
28.505,0.010
28.510,0.011
28.515,0.005
28.520,0.000
28.525,0.001
28.530,-0.007
28.535,-0.014
28.540,-0.011
28.545,-0.013
28.550,-0.023
28.555,-0.024
28.560,-0.019
28.565,-0.024
28.570,-0.028
28.575,-0.026
28.580,-0.028
28.585,-0.032
28.590,-0.031
28.595,-0.030
28.600,-0.034
28.605,-0.032
28.610,-0.027
28.615,-0.029
28.620,-0.032
28.625,-0.027
28.630,-0.028
28.635,-0.032
28.640,-0.028
28.645,-0.028
28.650,-0.031
28.655,-0.028
28.660,-0.027
28.665,-0.032
28.670,-0.034
28.675,-0.028
28.680,-0.028
28.685,-0.033
28.690,-0.029
28.695,-0.026
28.700,-0.030
28.705,-0.028
28.710,-0.024
28.715,-0.027
28.720,-0.027
28.725,-0.023
28.730,-0.024
28.735,-0.028
28.740,-0.024
28.745,-0.021
28.750,-0.025
28.755,-0.022
28.760,-0.019
28.765,-0.024
28.770,-0.025
28.775,-0.018
28.780,-0.018
28.785,-0.022
28.790,-0.018
28.795,-0.015
28.800,-0.018
28.805,-0.018
28.810,-0.015
28.815,-0.018
28.820,-0.020
28.825,-0.016
28.830,-0.017
28.835,-0.022
28.840,-0.018
28.845,-0.015
28.850,-0.020
28.855,-0.019
28.860,-0.015
28.865,-0.017
28.870,-0.017
28.875,-0.012
28.880,-0.013
28.885,-0.016
28.890,-0.012
28.895,-0.008
28.900,-0.011
28.905,-0.010
28.910,-0.007
28.915,-0.010
28.920,-0.010
28.925,-0.004
28.930,-0.005
28.935,-0.007
28.940,-0.002
28.945,-0.002
28.950,-0.009
28.955,-0.007
28.960,-0.001
28.965,-0.005
28.970,-0.007
28.975,-0.001
28.980,-0.002
28.985,-0.006
28.990,-0.001
28.995,0.000
29.000,-0.008
29.005,-0.007
29.010,-0.002
29.015,-0.006
29.020,-0.008
29.025,-0.003
29.030,-0.003
29.035,-0.009
29.040,-0.008
29.045,-0.004
29.050,-0.008
29.055,-0.005
29.060,0.000
29.065,-0.001
29.070,0.003
29.075,0.017
29.080,0.029
29.085,0.042
29.090,0.056
29.095,0.059
29.100,0.060
29.105,0.078
29.110,0.100
29.115,0.106
29.120,0.100
29.125,0.090
29.130,0.081
29.135,0.079
29.140,0.072
29.145,0.059
29.150,0.049
29.155,0.042
29.160,0.026
29.165,0.007
29.170,-0.009
29.175,-0.029
29.180,-0.061
29.185,-0.082
29.190,-0.083
29.195,-0.081
29.200,-0.086
29.205,-0.071
29.210,-0.017
29.215,0.076
29.220,0.165
29.225,0.219
29.230,0.276
29.235,0.392
29.240,0.645
29.245,1.022
29.250,1.372
29.255,1.506
29.260,1.370
29.265,1.058
29.270,0.583
29.275,0.058
29.280,-0.297
29.285,-0.508
29.290,-0.640
29.295,-0.661
29.300,-0.644
29.305,-0.636
29.310,-0.623
29.315,-0.612
29.320,-0.592
29.325,-0.566
29.330,-0.545
29.335,-0.524
29.340,-0.496
29.345,-0.469
29.350,-0.448
29.355,-0.423
29.360,-0.398
29.365,-0.379
29.370,-0.359
29.375,-0.333
29.380,-0.315
29.385,-0.300
29.390,-0.275
29.395,-0.254
29.400,-0.241
29.405,-0.223
29.410,-0.203
29.415,-0.189
29.420,-0.175
29.425,-0.156
29.430,-0.141
29.435,-0.130
29.440,-0.116
29.445,-0.101
29.450,-0.091
29.455,-0.077
29.460,-0.063
29.465,-0.056
29.470,-0.047
29.475,-0.030
29.480,-0.018
29.485,-0.010
29.490,0.005
29.495,0.016
29.500,0.021
29.505,0.034
29.510,0.049
29.515,0.058
29.520,0.067
29.525,0.082
29.530,0.090
29.535,0.094
29.540,0.108
29.545,0.121
29.550,0.124
29.555,0.129
29.560,0.137
29.565,0.139
29.570,0.141
29.575,0.150
29.580,0.153
29.585,0.148
29.590,0.150
29.595,0.151
29.600,0.146
29.605,0.148
29.610,0.150
29.615,0.141
29.620,0.134
29.625,0.133
29.630,0.126
29.635,0.115
29.640,0.112
29.645,0.105
29.650,0.088
29.655,0.076
29.660,0.066
29.665,0.046
29.670,0.028
29.675,0.022
29.680,0.007
29.685,-0.010
29.690,-0.015
29.695,-0.021
29.700,-0.036
29.705,-0.047
29.710,-0.047
29.715,-0.052
29.720,-0.057
29.725,-0.056
29.730,-0.063
29.735,-0.073
29.740,-0.071
29.745,-0.065
29.750,-0.066
29.755,-0.066
29.760,-0.064
29.765,-0.061
29.770,-0.057
29.775,-0.053
29.780,-0.054
29.785,-0.054
29.790,-0.047
29.795,-0.044
29.800,-0.047
29.805,-0.043
29.810,-0.037
29.815,-0.041
29.820,-0.044
29.825,-0.040
29.830,-0.042
29.835,-0.046
29.840,-0.042
29.845,-0.038
29.850,-0.041
29.855,-0.036
29.860,-0.027
29.865,-0.032
29.870,-0.034
29.875,-0.027
29.880,-0.027
29.885,-0.031
29.890,-0.025
29.895,-0.020
29.900,-0.021
29.905,-0.017
29.910,-0.013
29.915,-0.014
29.920,-0.011
29.925,-0.006
29.930,-0.005
29.935,0.000
29.940,0.009
29.945,0.009
29.950,0.004
29.955,0.009
29.960,0.014
29.965,0.008
29.970,0.009
29.975,0.016
29.980,0.016
29.985,0.013
29.990,0.018
29.995,0.022
30.000,0.018
30.005,0.021
30.010,0.029
30.015,0.029
30.020,0.029
30.025,0.034
30.030,0.030
30.035,0.026
30.040,0.034
30.045,0.042
30.050,0.046
30.055,0.059
30.060,0.077
30.065,0.088
30.070,0.092
30.075,0.095
30.080,0.106
30.085,0.125
30.090,0.142
30.095,0.139
30.100,0.122
30.105,0.119
30.110,0.128
30.115,0.122
30.120,0.105
30.125,0.099
30.130,0.088
30.135,0.063
30.140,0.048
30.145,0.040
30.150,0.018
30.155,-0.011
30.160,-0.034
30.165,-0.049
30.170,-0.051
30.175,-0.046
30.180,-0.046
30.185,-0.038
30.190,-0.002
30.195,0.069
30.200,0.157
30.205,0.220
30.210,0.291
30.215,0.428
30.220,0.684
30.225,1.071
30.230,1.453
30.235,1.626
30.240,1.515
30.245,1.212
30.250,0.742
30.255,0.179
30.260,-0.233
30.265,-0.461
30.270,-0.596
30.275,-0.622
30.280,-0.604
30.285,-0.599
30.290,-0.588
30.295,-0.574
30.300,-0.561
30.305,-0.540
30.310,-0.515
30.315,-0.497
30.320,-0.475
30.325,-0.448
30.330,-0.428
30.335,-0.410
30.340,-0.384
30.345,-0.361
30.350,-0.344
30.355,-0.322
30.360,-0.298
30.365,-0.283
30.370,-0.264
30.375,-0.240
30.380,-0.225
30.385,-0.212
30.390,-0.192
30.395,-0.176
30.400,-0.165
30.405,-0.149
30.410,-0.131
30.415,-0.120
30.420,-0.108
30.425,-0.091
30.430,-0.080
30.435,-0.073
30.440,-0.058
30.445,-0.045
30.450,-0.039
30.455,-0.025
30.460,-0.011
30.465,-0.007
30.470,0.001
30.475,0.015
30.480,0.022
30.485,0.029
30.490,0.042
30.495,0.051
30.500,0.056
30.505,0.068
30.510,0.081
30.515,0.083
30.520,0.087
30.525,0.096
30.530,0.096
30.535,0.097
30.540,0.103
30.545,0.103
30.550,0.098
30.555,0.100
30.560,0.099
30.565,0.091
30.570,0.088
30.575,0.087
30.580,0.074
30.585,0.062
30.590,0.059
30.595,0.051
30.600,0.036
30.605,0.027
30.610,0.020
30.615,0.006
30.620,-0.008
30.625,-0.016
30.630,-0.028
30.635,-0.043
30.640,-0.050
30.645,-0.056
30.650,-0.064
30.655,-0.065
30.660,-0.063
30.665,-0.066
30.670,-0.066
30.675,-0.062
30.680,-0.061
30.685,-0.060
30.690,-0.052
30.695,-0.046
30.700,-0.046
30.705,-0.040
30.710,-0.032
30.715,-0.029
30.720,-0.024
30.725,-0.015
30.730,-0.012
30.735,-0.009
30.740,0.000
30.745,0.005
30.750,0.006
30.755,0.011
30.760,0.017
30.765,0.015
30.770,0.015
30.775,0.019
30.780,0.017
30.785,0.016
30.790,0.021
30.795,0.020
30.800,0.015
30.805,0.017
30.810,0.020
30.815,0.015
30.820,0.014
30.825,0.018
30.830,0.014
30.835,0.011
30.840,0.016
30.845,0.016
30.850,0.011
30.855,0.015
30.860,0.018
30.865,0.015
30.870,0.014
30.875,0.017
30.880,0.017
30.885,0.015
30.890,0.021
30.895,0.023
30.900,0.017
30.905,0.021
30.910,0.027
30.915,0.025
30.920,0.023
30.925,0.027
30.930,0.026
30.935,0.025
30.940,0.031
30.945,0.032
30.950,0.027
30.955,0.028
30.960,0.032
30.965,0.030
30.970,0.032
30.975,0.036
30.980,0.032
30.985,0.029
30.990,0.037
30.995,0.042
31.000,0.043
31.005,0.051
31.010,0.066
31.015,0.077
31.020,0.088
31.025,0.096
31.030,0.097
31.035,0.108
31.040,0.130
31.045,0.139
31.050,0.129
31.055,0.121
31.060,0.116
31.065,0.111
31.070,0.102
31.075,0.091
31.080,0.079
31.085,0.065
31.090,0.050
31.095,0.036
31.100,0.019
31.105,-0.003
31.110,-0.029
31.115,-0.054
31.120,-0.062
31.125,-0.056
31.130,-0.058
31.135,-0.059
31.140,-0.036
31.145,0.009
31.150,0.091
31.155,0.185
31.160,0.224
31.165,0.256
31.170,0.375
31.175,0.638
31.180,1.016
31.185,1.378
31.190,1.557
31.195,1.481
31.200,1.195
31.205,0.709
31.210,0.159
31.215,-0.228
31.220,-0.453
31.225,-0.594
31.230,-0.633
31.235,-0.618
31.240,-0.607
31.245,-0.599
31.250,-0.591
31.255,-0.571
31.260,-0.549
31.265,-0.530
31.270,-0.507
31.275,-0.480
31.280,-0.462
31.285,-0.443
31.290,-0.414
31.295,-0.391
31.300,-0.375
31.305,-0.349
31.310,-0.326
31.315,-0.312
31.320,-0.291
31.325,-0.268
31.330,-0.253
31.335,-0.237
31.340,-0.214
31.345,-0.196
31.350,-0.184
31.355,-0.165
31.360,-0.146
31.365,-0.138
31.370,-0.124
31.375,-0.103
31.380,-0.093
31.385,-0.085
31.390,-0.070
31.395,-0.057
31.400,-0.048
31.405,-0.035
31.410,-0.021
31.415,-0.013
31.420,-0.004
31.425,0.010
31.430,0.017
31.435,0.023
31.440,0.039
31.445,0.051
31.450,0.054
31.455,0.067
31.460,0.081
31.465,0.084
31.470,0.090
31.475,0.102
31.480,0.105
31.485,0.106
31.490,0.114
31.495,0.117
31.500,0.112
31.505,0.113
31.510,0.112
31.515,0.105
31.520,0.102
31.525,0.103
31.530,0.094
31.535,0.083
31.540,0.078
31.545,0.065
31.550,0.049
31.555,0.043
31.560,0.038
31.565,0.022
31.570,0.007
31.575,0.000
31.580,-0.013
31.585,-0.031
31.590,-0.037
31.595,-0.045
31.600,-0.057
31.605,-0.060
31.610,-0.061
31.615,-0.066
31.620,-0.066
31.625,-0.059
31.630,-0.063
31.635,-0.066
31.640,-0.057
31.645,-0.054
31.650,-0.056
31.655,-0.051
31.660,-0.048
31.665,-0.047
31.670,-0.042
31.675,-0.035
31.680,-0.035
31.685,-0.032
31.690,-0.018
31.695,-0.015
31.700,-0.022
31.705,-0.019
31.710,-0.013
31.715,-0.014
31.720,-0.011
31.725,-0.004
31.730,-0.003
31.735,0.000
31.740,0.006
31.745,0.004
31.750,-0.001
31.755,0.005
31.760,0.010
31.765,0.006
31.770,0.007
31.775,0.008
31.780,0.003
31.785,0.003
31.790,0.011
31.795,0.012
31.800,0.009
31.805,0.011
31.810,0.014
31.815,0.012
31.820,0.014
31.825,0.022
31.830,0.022
31.835,0.016
31.840,0.023
31.845,0.026
31.850,0.017
31.855,0.021
31.860,0.029
31.865,0.027
31.870,0.028
31.875,0.036
31.880,0.035
31.885,0.030
31.890,0.033
31.895,0.032
31.900,0.026
31.905,0.029
31.910,0.034
31.915,0.034
31.920,0.035
31.925,0.035
31.930,0.030
31.935,0.028
31.940,0.035
31.945,0.044
31.950,0.047
31.955,0.055
31.960,0.072
31.965,0.087
31.970,0.092
31.975,0.093
31.980,0.099
31.985,0.114
31.990,0.132
31.995,0.136
32.000,0.126
32.005,0.120
32.010,0.119
32.015,0.108
32.020,0.097
32.025,0.096
32.030,0.084
32.035,0.059
32.040,0.043
32.045,0.033
32.050,0.010
32.055,-0.015
32.060,-0.034
32.065,-0.051
32.070,-0.052
32.075,-0.043
32.080,-0.045
32.085,-0.041
32.090,-0.011
32.095,0.043
32.100,0.124
32.105,0.194
32.110,0.255
32.115,0.365
32.120,0.576
32.125,0.936
32.130,1.339
32.135,1.584
32.140,1.552
32.145,1.294
32.150,0.873
32.155,0.321
32.160,-0.151
32.165,-0.422
32.170,-0.578
32.175,-0.636
32.180,-0.626
32.185,-0.613
32.190,-0.604
32.195,-0.594
32.200,-0.579
32.205,-0.556
32.210,-0.535
32.215,-0.516
32.220,-0.492
32.225,-0.467
32.230,-0.450
32.235,-0.429
32.240,-0.400
32.245,-0.376
32.250,-0.356
32.255,-0.334
32.260,-0.314
32.265,-0.298
32.270,-0.279
32.275,-0.256
32.280,-0.238
32.285,-0.222
32.290,-0.197
32.295,-0.181
32.300,-0.169
32.305,-0.150
32.310,-0.132
32.315,-0.123
32.320,-0.108
32.325,-0.090
32.330,-0.080
32.335,-0.070
32.340,-0.055
32.345,-0.044
32.350,-0.037
32.355,-0.023
32.360,-0.011
32.365,-0.005
32.370,0.008
32.375,0.023
32.380,0.028
32.385,0.036
32.390,0.050
32.395,0.058
32.400,0.063
32.405,0.075
32.410,0.086
32.415,0.092
32.420,0.102
32.425,0.111
32.430,0.111
32.435,0.112
32.440,0.117
32.445,0.114
32.450,0.108
32.455,0.111
32.460,0.110
32.465,0.098
32.470,0.094
32.475,0.093
32.480,0.079
32.485,0.066
32.490,0.062
32.495,0.050
32.500,0.032
32.505,0.024
32.510,0.013
32.515,-0.007
32.520,-0.021
32.525,-0.029
32.530,-0.045
32.535,-0.058
32.540,-0.063
32.545,-0.070
32.550,-0.079
32.555,-0.077
32.560,-0.074
32.565,-0.078
32.570,-0.076
32.575,-0.067
32.580,-0.066
32.585,-0.063
32.590,-0.052
32.595,-0.048
32.600,-0.048
32.605,-0.038
32.610,-0.030
32.615,-0.030
32.620,-0.023
32.625,-0.014
32.630,-0.014
32.635,-0.012
32.640,0.000
32.645,0.006
32.650,0.004
32.655,0.009
32.660,0.012
32.665,0.009
32.670,0.012
32.675,0.017
32.680,0.014
32.685,0.010
32.690,0.016
32.695,0.016
32.700,0.009
32.705,0.011
32.710,0.011
32.715,0.006
32.720,0.007
32.725,0.013
32.730,0.008
32.735,0.004
32.740,0.008
32.745,0.006
32.750,0.003
32.755,0.009
32.760,0.011
32.765,0.006
32.770,0.009
32.775,0.016
32.780,0.014
32.785,0.014
32.790,0.019
32.795,0.018
32.800,0.016
32.805,0.022
32.810,0.027
32.815,0.022
32.820,0.025
32.825,0.032
32.830,0.029
32.835,0.027
32.840,0.034
32.845,0.035
32.850,0.032
32.855,0.035
32.860,0.035
32.865,0.030
32.870,0.033
32.875,0.038
32.880,0.038
32.885,0.043
32.890,0.054
32.895,0.060
32.900,0.071
32.905,0.087
32.910,0.091
32.915,0.090
32.920,0.107
32.925,0.131
32.930,0.138
32.935,0.132
32.940,0.125
32.945,0.116
32.950,0.113
32.955,0.111
32.960,0.097
32.965,0.081
32.970,0.072
32.975,0.059
32.980,0.041
32.985,0.027
32.990,0.010
32.995,-0.019
33.000,-0.046
33.005,-0.051
33.010,-0.049
33.015,-0.052
33.020,-0.047
33.025,-0.026
33.030,0.011
33.035,0.096
33.040,0.196
33.045,0.232
33.050,0.263
33.055,0.384
33.060,0.633
33.065,1.001
33.070,1.370
33.075,1.558
33.080,1.492
33.085,1.223
33.090,0.751
33.095,0.192
33.100,-0.210
33.105,-0.437
33.110,-0.585
33.115,-0.631
33.120,-0.614
33.125,-0.603
33.130,-0.599
33.135,-0.589
33.140,-0.568
33.145,-0.551
33.150,-0.536
33.155,-0.508
33.160,-0.482
33.165,-0.463
33.170,-0.435
33.175,-0.407
33.180,-0.388
33.185,-0.367
33.190,-0.340
33.195,-0.321
33.200,-0.305
33.205,-0.282
33.210,-0.260
33.215,-0.245
33.220,-0.227
33.225,-0.206
33.230,-0.193
33.235,-0.179
33.240,-0.158
33.245,-0.144
33.250,-0.134
33.255,-0.115
33.260,-0.100
33.265,-0.092
33.270,-0.079
33.275,-0.064
33.280,-0.056
33.285,-0.046
33.290,-0.031
33.295,-0.022
33.300,-0.015
33.305,0.001
33.310,0.012
33.315,0.018
33.320,0.032
33.325,0.045
33.330,0.052
33.335,0.061
33.340,0.074
33.345,0.081
33.350,0.085
33.355,0.099
33.360,0.108
33.365,0.107
33.370,0.112
33.375,0.120
33.380,0.116
33.385,0.114
33.390,0.119
33.395,0.117
33.400,0.108
33.405,0.108
33.410,0.106
33.415,0.092
33.420,0.082
33.425,0.074
33.430,0.062
33.435,0.053
33.440,0.047
33.445,0.033
33.450,0.016
33.455,0.006
33.460,-0.006
33.465,-0.026
33.470,-0.037
33.475,-0.042
33.480,-0.056
33.485,-0.064
33.490,-0.064
33.495,-0.070
33.500,-0.075
33.505,-0.072
33.510,-0.069
33.515,-0.070
33.520,-0.067
33.525,-0.061
33.530,-0.060
33.535,-0.055
33.540,-0.033
33.545,0.010
33.550,0.077
33.555,0.158
33.560,0.219
33.565,0.264
33.570,0.364
33.575,0.544
33.580,0.716
33.585,0.866
33.590,1.051
33.595,1.243
33.600,1.383
33.605,1.468
33.610,1.515
33.615,1.501
33.620,1.427
33.625,1.373
33.630,1.333
33.635,1.186
33.640,0.851
33.645,0.365
33.650,-0.136
33.655,-0.591
33.660,-0.974
33.665,-1.136
33.670,-1.079
33.675,-1.010
33.680,-1.013
33.685,-1.053
33.690,-1.110
33.695,-1.159
33.700,-1.147
33.705,-1.104
33.710,-1.076
33.715,-1.048
33.720,-1.012
33.725,-0.973
33.730,-0.933
33.735,-0.892
33.740,-0.860
33.745,-0.839
33.750,-0.806
33.755,-0.752
33.760,-0.694
33.765,-0.645
33.770,-0.609
33.775,-0.578
33.780,-0.540
33.785,-0.495
33.790,-0.449
33.795,-0.407
33.800,-0.369
33.805,-0.327
33.810,-0.292
33.815,-0.269
33.820,-0.238
33.825,-0.203
33.830,-0.186
33.835,-0.178
33.840,-0.165
33.845,-0.157
33.850,-0.144
33.855,-0.118
33.860,-0.100
33.865,-0.093
33.870,-0.073
33.875,-0.051
33.880,-0.038
33.885,-0.018
33.890,0.014
33.895,0.039
33.900,0.060
33.905,0.092
33.910,0.124
33.915,0.152
33.920,0.182
33.925,0.213
33.930,0.241
33.935,0.272
33.940,0.309
33.945,0.340
33.950,0.364
33.955,0.385
33.960,0.401
33.965,0.413
33.970,0.425
33.975,0.433
33.980,0.432
33.985,0.431
33.990,0.428
33.995,0.415
34.000,0.402
34.005,0.397
34.010,0.386
34.015,0.363
34.020,0.346
34.025,0.332
34.030,0.313
34.035,0.299
34.040,0.289
34.045,0.271
34.050,0.253
34.055,0.242
34.060,0.230
34.065,0.214
34.070,0.206
34.075,0.201
34.080,0.189
34.085,0.181
34.090,0.178
34.095,0.165
34.100,0.152
34.105,0.147
34.110,0.137
34.115,0.123
34.120,0.122
34.125,0.121
34.130,0.107
34.135,0.098
34.140,0.092
34.145,0.080
34.150,0.070
34.155,0.069
34.160,0.067
34.165,0.057
34.170,0.051
34.175,0.048
34.180,0.038
34.185,0.030
34.190,0.027
34.195,0.022
34.200,0.010
34.205,0.009
34.210,0.011
34.215,0.002
34.220,-0.002
34.225,0.000
34.230,-0.007
34.235,-0.010
34.240,-0.004
34.245,-0.007
34.250,-0.011
34.255,-0.006
34.260,-0.007
34.265,-0.013
34.270,-0.013
34.275,-0.011
34.280,-0.015
34.285,-0.016
34.290,-0.013
34.295,-0.017
34.300,-0.021
34.305,-0.017
34.310,-0.017
34.315,-0.023
34.320,-0.022
34.325,-0.017
34.330,-0.023
34.335,-0.025
34.340,-0.021
34.345,-0.023
34.350,-0.027
34.355,-0.022
34.360,-0.022
34.365,-0.027
34.370,-0.027
34.375,-0.027
34.380,-0.030
34.385,-0.030
34.390,-0.023
34.395,-0.024
34.400,-0.028
34.405,-0.023
34.410,-0.020
34.415,-0.024
34.420,-0.023
34.425,-0.017
34.430,-0.019
34.435,-0.021
34.440,-0.017
34.445,-0.020
34.450,-0.022
34.455,-0.014
34.460,-0.014
34.465,-0.020
34.470,-0.016
34.475,-0.013
34.480,-0.018
34.485,-0.017
34.490,-0.011
34.495,-0.012
34.500,-0.016
34.505,-0.011
34.510,-0.009
34.515,-0.015
34.520,-0.013
34.525,-0.010
34.530,-0.013
34.535,-0.013
34.540,-0.009
34.545,-0.013
34.550,-0.013
34.555,-0.006
34.560,-0.006
34.565,-0.012
34.570,-0.008
34.575,-0.004
34.580,-0.010
34.585,-0.011
34.590,-0.005
34.595,-0.004
34.600,-0.008
34.605,-0.004
34.610,-0.002
34.615,-0.006
34.620,-0.004
34.625,0.000
34.630,-0.002
34.635,-0.005
34.640,-0.003
34.645,-0.003
34.650,-0.009
34.655,-0.007
34.660,-0.005
34.665,-0.009
34.670,-0.007
34.675,-0.003
34.680,-0.007
34.685,-0.008
34.690,-0.005
34.695,-0.007
34.700,-0.008
34.705,-0.004
34.710,-0.005
34.715,-0.010
34.720,-0.003
34.725,0.005
34.730,0.005
34.735,0.014
34.740,0.035
34.745,0.047
34.750,0.047
34.755,0.053
34.760,0.069
34.765,0.085
34.770,0.100
34.775,0.105
34.780,0.089
34.785,0.077
34.790,0.083
34.795,0.077
34.800,0.056
34.805,0.050
34.810,0.045
34.815,0.022
34.820,0.007
34.825,-0.001
34.830,-0.029
34.835,-0.059
34.840,-0.074
34.845,-0.084
34.850,-0.089
34.855,-0.082
34.860,-0.070
34.865,-0.035
34.870,0.056
34.875,0.153
34.880,0.199
34.885,0.253
34.890,0.369
34.895,0.589
34.900,0.940
34.905,1.318
34.910,1.503
34.915,1.404
34.920,1.131
34.925,0.689
34.930,0.142
34.935,-0.253
34.940,-0.473
34.945,-0.623
34.950,-0.664
34.955,-0.642
34.960,-0.631
34.965,-0.625
34.970,-0.611
34.975,-0.591
34.980,-0.575
34.985,-0.554
34.990,-0.525
34.995,-0.502
35.000,-0.480
35.005,-0.452
35.010,-0.428
35.015,-0.410
35.020,-0.384
35.025,-0.358
35.030,-0.342
35.035,-0.323
35.040,-0.300
35.045,-0.282
35.050,-0.266
35.055,-0.245
35.060,-0.227
35.065,-0.215
35.070,-0.195
35.075,-0.173
35.080,-0.161
35.085,-0.149
35.090,-0.129
35.095,-0.116
35.100,-0.106
35.105,-0.090
35.110,-0.078
35.115,-0.071
35.120,-0.058
35.125,-0.043
35.130,-0.034
35.135,-0.023
35.140,-0.006
35.145,0.002
35.150,0.009
35.155,0.023
35.160,0.032
35.165,0.037
35.170,0.052
35.175,0.066
35.180,0.071
35.185,0.078
35.190,0.092
35.195,0.101
35.200,0.103
35.205,0.115
35.210,0.125
35.215,0.127
35.220,0.135
35.225,0.142
35.230,0.141
35.235,0.144
35.240,0.152
35.245,0.148
35.250,0.143
35.255,0.148
35.260,0.147
35.265,0.137
35.270,0.135
35.275,0.139
35.280,0.128
35.285,0.119
35.290,0.117
35.295,0.105
35.300,0.091
35.305,0.086
35.310,0.076
35.315,0.059
35.320,0.047
35.325,0.036
35.330,0.020
35.335,0.008
35.340,0.000
35.345,-0.013
35.350,-0.025
35.355,-0.030
35.360,-0.037
35.365,-0.048
35.370,-0.051
35.375,-0.054
35.380,-0.063
35.385,-0.065
35.390,-0.059
35.395,-0.063
35.400,-0.068
35.405,-0.062
35.410,-0.060
35.415,-0.063
35.420,-0.061
35.425,-0.059
35.430,-0.063
35.435,-0.059
35.440,-0.051
35.445,-0.049
35.450,-0.049
35.455,-0.043
35.460,-0.040
35.465,-0.043
35.470,-0.044
35.475,-0.039
35.480,-0.042
35.485,-0.048
35.490,-0.044
35.495,-0.042
35.500,-0.045
35.505,-0.044
35.510,-0.040
35.515,-0.042
35.520,-0.038
35.525,-0.034
35.530,-0.037
35.535,-0.035
35.540,-0.026
35.545,-0.026
35.550,-0.025
35.555,-0.020
35.560,-0.019
35.565,-0.020
35.570,-0.014
35.575,-0.011
35.580,-0.011
35.585,-0.007
35.590,-0.001
35.595,-0.002
35.600,-0.003
35.605,0.002
35.610,0.005
35.615,0.002
35.620,0.006
35.625,0.012
35.630,0.011
35.635,0.017
35.640,0.025
35.645,0.020
35.650,0.015
35.655,0.019
35.660,0.023
35.665,0.023
35.670,0.028
35.675,0.037
35.680,0.036
35.685,0.044
35.690,0.071
35.695,0.090
35.700,0.094
35.705,0.098
35.710,0.108
35.715,0.122
35.720,0.140
35.725,0.145
35.730,0.130
35.735,0.122
35.740,0.129
35.745,0.126
35.750,0.103
35.755,0.091
35.760,0.087
35.765,0.071
35.770,0.056
35.775,0.050
35.780,0.034
35.785,0.003
35.790,-0.024
35.795,-0.043
35.800,-0.048
35.805,-0.045
35.810,-0.043
35.815,-0.035
35.820,-0.004
35.825,0.055
35.830,0.138
35.835,0.200
35.840,0.266
35.845,0.390
35.850,0.616
35.855,0.992
35.860,1.395
35.865,1.619
35.870,1.562
35.875,1.289
35.880,0.846
35.885,0.274
35.890,-0.185
35.895,-0.437
35.900,-0.580
35.905,-0.622
35.910,-0.607
35.915,-0.600
35.920,-0.590
35.925,-0.574
35.930,-0.562
35.935,-0.541
35.940,-0.511
35.945,-0.490
35.950,-0.469
35.955,-0.440
35.960,-0.416
35.965,-0.397
35.970,-0.373
35.975,-0.350
35.980,-0.333
35.985,-0.310
35.990,-0.284
35.995,-0.269
36.000,-0.254
36.005,-0.233
36.010,-0.216
36.015,-0.202
36.020,-0.183
36.025,-0.164
36.030,-0.155
36.035,-0.142
36.040,-0.122
36.045,-0.109
36.050,-0.099
36.055,-0.084
36.060,-0.074
36.065,-0.067
36.070,-0.052
36.075,-0.038
36.080,-0.032
36.085,-0.020
36.090,-0.006
36.095,0.001
36.100,0.010
36.105,0.025
36.110,0.032
36.115,0.034
36.120,0.046
36.125,0.059
36.130,0.063
36.135,0.073
36.140,0.085
36.145,0.087
36.150,0.090
36.155,0.100
36.160,0.103
36.165,0.101
36.170,0.105
36.175,0.104
36.180,0.096
36.185,0.093
36.190,0.092
36.195,0.086
36.200,0.077
36.205,0.075
36.210,0.068
36.215,0.054
36.220,0.047
36.225,0.039
36.230,0.025
36.235,0.016
36.240,0.009
36.245,-0.007
36.250,-0.021
36.255,-0.028
36.260,-0.037
36.265,-0.050
36.270,-0.054
36.275,-0.056
36.280,-0.064
36.285,-0.066
36.290,-0.060
36.295,-0.061
36.300,-0.063
36.305,-0.055
36.310,-0.049
36.315,-0.050
36.320,-0.043
36.325,-0.033
36.330,-0.032
36.335,-0.028
36.340,-0.019
36.345,-0.017
36.350,-0.014
36.355,-0.005
36.360,0.000
36.365,-0.001
36.370,0.006
36.375,0.012
36.380,0.007
36.385,0.006
36.390,0.013
36.395,0.011
36.400,0.009
36.405,0.014
36.410,0.015
36.415,0.010
36.420,0.012
36.425,0.015
36.430,0.012
36.435,0.011
36.440,0.014
36.445,0.011
36.450,0.009
36.455,0.015
36.460,0.015
36.465,0.011
36.470,0.013
36.475,0.015
36.480,0.011
36.485,0.011
36.490,0.015
36.495,0.014
36.500,0.014
36.505,0.021
36.510,0.021
36.515,0.017
36.520,0.021
36.525,0.023
36.530,0.020
36.535,0.024
36.540,0.028
36.545,0.024
36.550,0.024
36.555,0.029
36.560,0.026
36.565,0.023
36.570,0.029
36.575,0.032
36.580,0.027
36.585,0.025
36.590,0.029
36.595,0.029
36.600,0.031
36.605,0.041
36.610,0.047
36.615,0.056
36.620,0.077
36.625,0.087
36.630,0.083
36.635,0.090
36.640,0.111
36.645,0.124
36.650,0.126
36.655,0.124
36.660,0.114
36.665,0.108
36.670,0.109
36.675,0.098
36.680,0.080
36.685,0.075
36.690,0.067
36.695,0.046
36.700,0.033
36.705,0.023
36.710,-0.005
36.715,-0.038
36.720,-0.052
36.725,-0.054
36.730,-0.058
36.735,-0.059
36.740,-0.050
36.745,-0.021
36.750,0.042
36.755,0.143
36.760,0.207
36.765,0.226
36.770,0.298
36.775,0.479
36.780,0.802
36.785,1.202
36.790,1.500
36.795,1.552
36.800,1.374
36.805,1.000
36.810,0.447
36.815,-0.061
36.820,-0.358
36.825,-0.532
36.830,-0.625
36.835,-0.623
36.840,-0.604
36.845,-0.604
36.850,-0.595
36.855,-0.573
36.860,-0.554
36.865,-0.537
36.870,-0.510
36.875,-0.484
36.880,-0.468
36.885,-0.445
36.890,-0.417
36.895,-0.396
36.900,-0.376
36.905,-0.349
36.910,-0.329
36.915,-0.313
36.920,-0.290
36.925,-0.266
36.930,-0.253
36.935,-0.236
36.940,-0.214
36.945,-0.201
36.950,-0.188
36.955,-0.167
36.960,-0.152
36.965,-0.141
36.970,-0.124
36.975,-0.106
36.980,-0.097
36.985,-0.088
36.990,-0.071
36.995,-0.060
37.000,-0.054
37.005,-0.040
37.010,-0.027
37.015,-0.020
37.020,-0.007
37.025,0.005
37.030,0.013
37.035,0.026
37.040,0.041
37.045,0.047
37.050,0.055
37.055,0.070
37.060,0.081
37.065,0.083
37.070,0.092
37.075,0.103
37.080,0.104
37.085,0.111
37.090,0.122
37.095,0.118
37.100,0.112
37.105,0.118
37.110,0.119
37.115,0.112
37.120,0.108
37.125,0.101
37.130,0.088
37.135,0.081
37.140,0.078
37.145,0.066
37.150,0.052
37.155,0.044
37.160,0.032
37.165,0.015
37.170,0.001
37.175,-0.009
37.180,-0.025
37.185,-0.038
37.190,-0.045
37.195,-0.058
37.200,-0.063
37.205,-0.062
37.210,-0.067
37.215,-0.072
37.220,-0.067
37.225,-0.065
37.230,-0.070
37.235,-0.069
37.240,-0.062
37.245,-0.056
37.250,-0.051
37.255,-0.035
37.260,-0.002
37.265,0.053
37.270,0.134
37.275,0.207
37.280,0.254
37.285,0.333
37.290,0.492
37.295,0.675
37.300,0.828
37.305,1.002
37.310,1.194
37.315,1.347
37.320,1.449
37.325,1.506
37.330,1.518
37.335,1.462
37.340,1.395
37.345,1.358
37.350,1.259
37.355,0.994
37.360,0.544
37.365,0.023
37.370,-0.456
37.375,-0.871
37.380,-1.118
37.385,-1.113
37.390,-1.025
37.395,-1.007
37.400,-1.037
37.405,-1.091
37.410,-1.154
37.415,-1.161
37.420,-1.118
37.425,-1.087
37.430,-1.057
37.435,-1.018
37.440,-0.982
37.445,-0.943
37.450,-0.907
37.455,-0.874
37.460,-0.840
37.465,-0.803
37.470,-0.747
37.475,-0.687
37.480,-0.647
37.485,-0.618
37.490,-0.580
37.495,-0.539
37.500,-0.499
37.505,-0.454
37.510,-0.411
37.515,-0.373
37.520,-0.336
37.525,-0.305
37.530,-0.280
37.535,-0.251
37.540,-0.224
37.545,-0.212
37.550,-0.203
37.555,-0.186
37.560,-0.170
37.565,-0.156
37.570,-0.136
37.575,-0.120
37.580,-0.110
37.585,-0.091
37.590,-0.069
37.595,-0.054
37.600,-0.034
37.605,-0.008
37.610,0.013
37.615,0.036
37.620,0.072
37.625,0.108
37.630,0.138
37.635,0.176
37.640,0.217
37.645,0.243
37.650,0.263
37.655,0.297
37.660,0.329
37.665,0.354
37.670,0.380
37.675,0.399
37.680,0.411
37.685,0.429
37.690,0.439
37.695,0.436
37.700,0.433
37.705,0.430
37.710,0.419
37.715,0.407
37.720,0.398
37.725,0.387
37.730,0.369
37.735,0.351
37.740,0.338
37.745,0.320
37.750,0.297
37.755,0.283
37.760,0.270
37.765,0.257
37.770,0.248
37.775,0.237
37.780,0.217
37.785,0.206
37.790,0.202
37.795,0.189
37.800,0.176
37.805,0.173
37.810,0.164
37.815,0.150
37.820,0.152
37.825,0.152
37.830,0.136
37.835,0.125
37.840,0.118
37.845,0.108
37.850,0.099
37.855,0.095
37.860,0.091
37.865,0.082
37.870,0.075
37.875,0.071
37.880,0.062
37.885,0.057
37.890,0.057
37.895,0.047
37.900,0.040
37.905,0.041
37.910,0.035
37.915,0.026
37.920,0.024
37.925,0.023
37.930,0.015
37.935,0.011
37.940,0.011
37.945,0.005
37.950,0.001
37.955,0.004
37.960,-0.001
37.965,-0.009
37.970,-0.007
37.975,-0.005
37.980,-0.012
37.985,-0.012
37.990,-0.009
37.995,-0.014
38.000,-0.018
38.005,-0.014
38.010,-0.015
38.015,-0.020
38.020,-0.017
38.025,-0.017
38.030,-0.022
38.035,-0.021
38.040,-0.017
38.045,-0.025
38.050,-0.030
38.055,-0.021
38.060,-0.020
38.065,-0.024
38.070,-0.020
38.075,-0.019
38.080,-0.023
38.085,-0.022
38.090,-0.018
38.095,-0.022
38.100,-0.024
38.105,-0.021
38.110,-0.021
38.115,-0.025
38.120,-0.022
38.125,-0.020
38.130,-0.025
38.135,-0.025
38.140,-0.020
38.145,-0.023
38.150,-0.026
38.155,-0.019
38.160,-0.020
38.165,-0.024
38.170,-0.018
38.175,-0.016
38.180,-0.020
38.185,-0.017
38.190,-0.012
38.195,-0.016
38.200,-0.016
38.205,-0.010
38.210,-0.011
38.215,-0.012
38.220,-0.008
38.225,-0.008
38.230,-0.012
38.235,-0.008
38.240,-0.005
38.245,-0.010
38.250,-0.009
38.255,-0.003
38.260,-0.006
38.265,-0.011
38.270,-0.007
38.275,-0.006
38.280,-0.011
38.285,-0.009
38.290,-0.005
38.295,-0.010
38.300,-0.013
38.305,-0.009
38.310,-0.011
38.315,-0.016
38.320,-0.012
38.325,-0.009
38.330,-0.013
38.335,-0.012
38.340,-0.009
38.345,-0.012
38.350,-0.015
38.355,-0.010
38.360,-0.012
38.365,-0.017
38.370,-0.011
38.375,-0.007
38.380,-0.012
38.385,-0.012
38.390,-0.010
38.395,-0.012
38.400,-0.008
38.405,0.004
38.410,0.010
38.415,0.022
38.420,0.044
38.425,0.054
38.430,0.049
38.435,0.058
38.440,0.079
38.445,0.091
38.450,0.098
38.455,0.098
38.460,0.084
38.465,0.078
38.470,0.083
38.475,0.070
38.480,0.050
38.485,0.045
38.490,0.037
38.495,0.012
38.500,-0.003
38.505,-0.013
38.510,-0.042
38.515,-0.075
38.520,-0.088
38.525,-0.090
38.530,-0.093
38.535,-0.087
38.540,-0.062
38.545,-0.002
38.550,0.103
38.555,0.182
38.560,0.219
38.565,0.284
38.570,0.429
38.575,0.716
38.580,1.105
38.585,1.422
38.590,1.489
38.595,1.301
38.600,0.951
38.605,0.446
38.610,-0.059
38.615,-0.372
38.620,-0.552
38.625,-0.654
38.630,-0.658
38.635,-0.635
38.640,-0.625
38.645,-0.618
38.650,-0.604
38.655,-0.579
38.660,-0.559
38.665,-0.539
38.670,-0.511
38.675,-0.488
38.680,-0.470
38.685,-0.445
38.690,-0.418
38.695,-0.400
38.700,-0.380
38.705,-0.352
38.710,-0.333
38.715,-0.317
38.720,-0.294
38.725,-0.273
38.730,-0.259
38.735,-0.239
38.740,-0.218
38.745,-0.205
38.750,-0.191
38.755,-0.169
38.760,-0.150
38.765,-0.086
38.770,-0.007
38.775,-0.007
38.780,-0.021
38.785,-0.003
38.790,0.005
38.795,0.007
38.800,0.013
38.805,0.024
38.810,0.028
38.815,0.031
38.820,0.044
38.825,0.054
38.830,0.056
38.835,0.064
38.840,0.074
38.845,0.078
38.850,0.084
38.855,0.094
38.860,0.098
38.865,0.102
38.870,0.113
38.875,0.118
38.880,0.116
38.885,0.121
38.890,0.128
38.895,0.126
38.900,0.127
38.905,0.133
38.910,0.131
38.915,0.127
38.920,0.130
38.925,0.131
38.930,0.123
38.935,0.121
38.940,0.120
38.945,0.112
38.950,0.106
38.955,0.103
38.960,0.093
38.965,0.083
38.970,0.077
38.975,0.064
38.980,0.047
38.985,0.037
38.990,0.029
38.995,0.013
39.000,-0.001
39.005,-0.009
39.010,-0.024
39.015,-0.039
39.020,-0.044
39.025,-0.054
39.030,-0.068
39.035,-0.068
39.040,-0.068
39.045,-0.077
39.050,-0.079
39.055,-0.077
39.060,-0.083
39.065,-0.090
39.070,-0.083
39.075,-0.079
39.080,-0.084
39.085,-0.082
39.090,-0.077
39.095,-0.082
39.100,-0.084
39.105,-0.077
39.110,-0.075
39.115,-0.074
39.120,-0.066
39.125,-0.060
39.130,-0.062
39.135,-0.058
39.140,-0.053
39.145,-0.056
39.150,-0.058
39.155,-0.053
39.160,-0.053
39.165,-0.053
39.170,-0.044
39.175,-0.040
39.180,-0.045
39.185,-0.043
39.190,-0.037
39.195,-0.041
39.200,-0.044
39.205,-0.038
39.210,-0.036
39.215,-0.035
39.220,-0.026
39.225,-0.024
39.230,-0.024
39.235,-0.019
39.240,-0.019
39.245,-0.022
39.250,-0.018
39.255,-0.011
39.260,-0.010
39.265,-0.010
39.270,-0.010
39.275,-0.010
39.280,-0.010
39.285,-0.005
39.290,0.003
39.295,0.005
39.300,0.006
39.305,0.013
39.310,0.012
39.315,0.006
39.320,0.012
39.325,0.026
39.330,0.032
39.335,0.039
39.340,0.053
39.345,0.069
39.350,0.079
39.355,0.082
39.360,0.087
39.365,0.106
39.370,0.130
39.375,0.136
39.380,0.122
39.385,0.114
39.390,0.119
39.395,0.116
39.400,0.102
39.405,0.095
39.410,0.088
39.415,0.073
39.420,0.062
39.425,0.054
39.430,0.033
39.435,0.006
39.440,-0.020
39.445,-0.045
39.450,-0.048
39.455,-0.037
39.460,-0.036
39.465,-0.033
39.470,-0.004
39.475,0.051
39.480,0.137
39.485,0.209
39.490,0.262
39.495,0.361
39.500,0.561
39.505,0.915
39.510,1.320
39.515,1.584
39.520,1.585
39.525,1.346
39.530,0.935
39.535,0.382
39.540,-0.110
39.545,-0.397
39.550,-0.555
39.555,-0.615
39.560,-0.604
39.565,-0.590
39.570,-0.577
39.575,-0.565
39.580,-0.551
39.585,-0.528
39.590,-0.505
39.595,-0.487
39.600,-0.460
39.605,-0.430
39.610,-0.410
39.615,-0.392
39.620,-0.366
39.625,-0.344
39.630,-0.327
39.635,-0.302
39.640,-0.280
39.645,-0.267
39.650,-0.249
39.655,-0.228
39.660,-0.213
39.665,-0.197
39.670,-0.177
39.675,-0.163
39.680,-0.153
39.685,-0.134
39.690,-0.114
39.695,-0.104
39.700,-0.092
39.705,-0.075
39.710,-0.067
39.715,-0.061
39.720,-0.045
39.725,-0.032
39.730,-0.028
39.735,-0.016
39.740,-0.001
39.745,0.005
39.750,0.014
39.755,0.029
39.760,0.037
39.765,0.044
39.770,0.057
39.775,0.066
39.780,0.070
39.785,0.080
39.790,0.090
39.795,0.092
39.800,0.098
39.805,0.109
39.810,0.108
39.815,0.104
39.820,0.109
39.825,0.110
39.830,0.103
39.835,0.103
39.840,0.103
39.845,0.096
39.850,0.089
39.855,0.084
39.860,0.073
39.865,0.062
39.870,0.055
39.875,0.044
39.880,0.028
39.885,0.021
39.890,0.015
39.895,-0.005
39.900,-0.020
39.905,-0.028
39.910,-0.043
39.915,-0.057
39.920,-0.060
39.925,-0.064
39.930,-0.072
39.935,-0.071
39.940,-0.068
39.945,-0.072
39.950,-0.071
39.955,-0.064
39.960,-0.065
39.965,-0.062
39.970,-0.053
39.975,-0.049
39.980,-0.050
39.985,-0.043
39.990,-0.033
39.995,-0.030
40.000,-0.024
40.005,-0.014
40.010,-0.010
40.015,-0.009
40.020,-0.001
40.025,0.003
40.030,0.003
40.035,0.009
40.040,0.014
40.045,0.010
40.050,0.011
40.055,0.019
40.060,0.015
40.065,0.014
40.070,0.022
40.075,0.022
40.080,0.015
40.085,0.018
40.090,0.024
40.095,0.020
40.100,0.018
40.105,0.023
40.110,0.019
40.115,0.014
40.120,0.019
40.125,0.021
40.130,0.016
40.135,0.018
40.140,0.022
40.145,0.017
40.150,0.019
40.155,0.026
40.160,0.024
40.165,0.022
40.170,0.026
40.175,0.026
40.180,0.022
40.185,0.025
40.190,0.028
40.195,0.023
40.200,0.025
40.205,0.030
40.210,0.025
40.215,0.024
40.220,0.031
40.225,0.029
40.230,0.024
40.235,0.031
40.240,0.038
40.245,0.040
40.250,0.046
40.255,0.063
40.260,0.078
40.265,0.085
40.270,0.091
40.275,0.097
40.280,0.108
40.285,0.126
40.290,0.138
40.295,0.131
40.300,0.118
40.305,0.116
40.310,0.115
40.315,0.103
40.320,0.093
40.325,0.083
40.330,0.063
40.335,0.047
40.340,0.040
40.345,0.023
40.350,-0.003
40.355,-0.026
40.360,-0.049
40.365,-0.059
40.370,-0.053
40.375,-0.052
40.380,-0.051
40.385,-0.021
40.390,0.045
40.395,0.138
40.400,0.210
40.405,0.235
40.410,0.283
40.415,0.429
40.420,0.736
40.425,1.135
40.430,1.453
40.435,1.554
40.440,1.418
40.445,1.068
40.450,0.535
40.455,0.018
40.460,-0.311
40.465,-0.506
40.470,-0.611
40.475,-0.623
40.480,-0.610
40.485,-0.601
40.490,-0.589
40.495,-0.580
40.500,-0.560
40.505,-0.533
40.510,-0.512
40.515,-0.492
40.520,-0.467
40.525,-0.444
40.530,-0.426
40.535,-0.402
40.540,-0.377
40.545,-0.359
40.550,-0.337
40.555,-0.313
40.560,-0.298
40.565,-0.281
40.570,-0.257
40.575,-0.240
40.580,-0.228
40.585,-0.208
40.590,-0.188
40.595,-0.177
40.600,-0.162
40.605,-0.141
40.610,-0.129
40.615,-0.120
40.620,-0.101
40.625,-0.087
40.630,-0.079
40.635,-0.062
40.640,-0.047
40.645,-0.041
40.650,-0.029
40.655,-0.013
40.660,-0.007
40.665,0.002
40.670,0.018
40.675,0.027
40.680,0.034
40.685,0.048
40.690,0.061
40.695,0.066
40.700,0.077
40.705,0.094
40.710,0.099
40.715,0.104
40.720,0.115
40.725,0.120
40.730,0.119
40.735,0.121
40.740,0.126
40.745,0.121
40.750,0.116
40.755,0.117
40.760,0.109
40.765,0.098
40.770,0.095
40.775,0.086
40.780,0.070
40.785,0.061
40.790,0.053
40.795,0.038
40.800,0.026
40.805,0.015
40.810,-0.005
40.815,-0.022
40.820,-0.029
40.825,-0.040
40.830,-0.055
40.835,-0.060
40.840,-0.064
40.845,-0.075
40.850,-0.077
40.855,-0.070
40.860,-0.073
40.865,-0.075
40.870,-0.064
40.875,-0.059
40.880,-0.063
40.885,-0.059
40.890,-0.052
40.895,-0.051
40.900,-0.034
40.905,0.013
40.910,0.077
40.915,0.149
40.920,0.216
40.925,0.265
40.930,0.349
40.935,0.518
40.940,0.701
40.945,0.848
40.950,1.019
40.955,1.211
40.960,1.354
40.965,1.436
40.970,1.492
40.975,1.499
40.980,1.427
40.985,1.364
40.990,1.341
40.995,1.220
41.000,0.901
41.005,0.435
41.010,-0.065
41.015,-0.532
41.020,-0.920
41.025,-1.112
41.030,-1.084
41.035,-1.007
41.040,-0.991
41.045,-1.025
41.050,-1.087
41.055,-1.142
41.060,-1.136
41.065,-1.092
41.070,-1.060
41.075,-1.030
41.080,-0.997
41.085,-0.955
41.090,-0.912
41.095,-0.887
41.100,-0.860
41.105,-0.815
41.110,-0.768
41.115,-0.721
41.120,-0.671
41.125,-0.636
41.130,-0.605
41.135,-0.558
41.140,-0.515
41.145,-0.482
41.150,-0.436
41.155,-0.388
41.160,-0.354
41.165,-0.322
41.170,-0.290
41.175,-0.265
41.180,-0.240
41.185,-0.214
41.190,-0.198
41.195,-0.192
41.200,-0.176
41.205,-0.151
41.210,-0.139
41.215,-0.130
41.220,-0.110
41.225,-0.096
41.230,-0.086
41.235,-0.063
41.240,-0.038
41.245,-0.020
41.250,0.003
41.255,0.029
41.260,0.052
41.265,0.083
41.270,0.118
41.275,0.143
41.280,0.171
41.285,0.209
41.290,0.243
41.295,0.270
41.300,0.302
41.305,0.334
41.310,0.356
41.315,0.377
41.320,0.398
41.325,0.408
41.330,0.413
41.335,0.423
41.340,0.430
41.345,0.426
41.350,0.420
41.355,0.413
41.360,0.398
41.365,0.383
41.370,0.371
41.375,0.354
41.380,0.336
41.385,0.323
41.390,0.309
41.395,0.292
41.400,0.279
41.405,0.269
41.410,0.249
41.415,0.230
41.420,0.221
41.425,0.211
41.430,0.199
41.435,0.197
41.440,0.193
41.445,0.178
41.450,0.169
41.455,0.164
41.460,0.150
41.465,0.142
41.470,0.140
41.475,0.130
41.480,0.117
41.485,0.115
41.490,0.111
41.495,0.098
41.500,0.092
41.505,0.090
41.510,0.081
41.515,0.073
41.520,0.072
41.525,0.065
41.530,0.056
41.535,0.057
41.540,0.052
41.545,0.037
41.550,0.032
41.555,0.035
41.560,0.026
41.565,0.018
41.570,0.019
41.575,0.016
41.580,0.008
41.585,0.009
41.590,0.007
41.595,-0.001
41.600,-0.002
41.605,-0.002
41.610,-0.009
41.615,-0.012
41.620,-0.009
41.625,-0.011
41.630,-0.018
41.635,-0.018
41.640,-0.017
41.645,-0.020
41.650,-0.020
41.655,-0.018
41.660,-0.022
41.665,-0.026
41.670,-0.023
41.675,-0.025
41.680,-0.029
41.685,-0.025
41.690,-0.025
41.695,-0.032
41.700,-0.031
41.705,-0.025
41.710,-0.026
41.715,-0.030
41.720,-0.027
41.725,-0.030
41.730,-0.034
41.735,-0.029
41.740,-0.028
41.745,-0.032
41.750,-0.030
41.755,-0.025
41.760,-0.029
41.765,-0.030
41.770,-0.025
41.775,-0.026
41.780,-0.029
41.785,-0.021
41.790,-0.019
41.795,-0.025
41.800,-0.021
41.805,-0.018
41.810,-0.023
41.815,-0.025
41.820,-0.017
41.825,-0.017
41.830,-0.021
41.835,-0.016
41.840,-0.013
41.845,-0.017
41.850,-0.016
41.855,-0.011
41.860,-0.013
41.865,-0.013
41.870,-0.008
41.875,-0.010
41.880,-0.015
41.885,-0.010
41.890,-0.006
41.895,-0.010
41.900,-0.010
41.905,-0.006
41.910,-0.009
41.915,-0.011
41.920,-0.005
41.925,-0.007
41.930,-0.011
41.935,-0.008
41.940,-0.008
41.945,-0.013
41.950,-0.012
41.955,0.000
41.960,0.013
41.965,0.011
41.970,0.004
41.975,0.002
41.980,-0.002
41.985,0.000
41.990,0.002
41.995,-0.004
42.000,0.000
42.005,0.005
42.010,0.001
42.015,-0.003
42.020,0.001
42.025,0.004
42.030,0.007
42.035,0.018
42.040,0.027
42.045,0.033
42.050,0.049
42.055,0.059
42.060,0.056
42.065,0.066
42.070,0.088
42.075,0.099
42.080,0.100
42.085,0.096
42.090,0.084
42.095,0.075
42.100,0.076
42.105,0.068
42.110,0.051
42.115,0.040
42.120,0.029
42.125,0.010
42.130,-0.007
42.135,-0.020
42.140,-0.046
42.145,-0.079
42.150,-0.093
42.155,-0.092
42.160,-0.095
42.165,-0.091
42.170,-0.061
42.175,0.005
42.180,0.106
42.185,0.182
42.190,0.224
42.195,0.294
42.200,0.448
42.205,0.750
42.210,1.138
42.215,1.432
42.220,1.477
42.225,1.278
42.230,0.903
42.235,0.383
42.240,-0.097
42.245,-0.391
42.250,-0.567
42.255,-0.656
42.260,-0.657
42.265,-0.640
42.270,-0.628
42.275,-0.616
42.280,-0.604
42.285,-0.582
42.290,-0.558
42.295,-0.538
42.300,-0.514
42.305,-0.486
42.310,-0.467
42.315,-0.447
42.320,-0.419
42.325,-0.397
42.330,-0.379
42.335,-0.357
42.340,-0.334
42.345,-0.317
42.350,-0.297
42.355,-0.275
42.360,-0.259
42.365,-0.243
42.370,-0.218
42.375,-0.203
42.380,-0.194
42.385,-0.173
42.390,-0.154
42.395,-0.145
42.400,-0.128
42.405,-0.109
42.410,-0.098
42.415,-0.086
42.420,-0.069
42.425,-0.061
42.430,-0.054
42.435,-0.034
42.440,-0.020
42.445,-0.014
42.450,0.000
42.455,0.018
42.460,0.026
42.465,0.035
42.470,0.051
42.475,0.059
42.480,0.066
42.485,0.084
42.490,0.096
42.495,0.095
42.500,0.102
42.505,0.114
42.510,0.118
42.515,0.124
42.520,0.135
42.525,0.138
42.530,0.134
42.535,0.140
42.540,0.146
42.545,0.143
42.550,0.146
42.555,0.149
42.560,0.143
42.565,0.139
42.570,0.142
42.575,0.135
42.580,0.122
42.585,0.118
42.590,0.111
42.595,0.096
42.600,0.087
42.605,0.080
42.610,0.064
42.615,0.050
42.620,0.045
42.625,0.030
42.630,0.010
42.635,0.001
42.640,-0.009
42.645,-0.025
42.650,-0.031
42.655,-0.033
42.660,-0.042
42.665,-0.047
42.670,-0.048
42.675,-0.056
42.680,-0.063
42.685,-0.060
42.690,-0.061
42.695,-0.068
42.700,-0.067
42.705,-0.063
42.710,-0.063
42.715,-0.061
42.720,-0.055
42.725,-0.055
42.730,-0.054
42.735,-0.048
42.740,-0.043
42.745,-0.045
42.750,-0.043
42.755,-0.038
42.760,-0.038
42.765,-0.035
42.770,-0.028
42.775,-0.025
42.780,-0.025
42.785,-0.022
42.790,-0.020
42.795,-0.024
42.800,-0.023
42.805,-0.019
42.810,-0.021
42.815,-0.021
42.820,-0.018
42.825,-0.024
42.830,-0.028
42.835,-0.019
42.840,-0.011
42.845,-0.011
42.850,-0.011
42.855,-0.010
42.860,-0.015
42.865,-0.015
42.870,-0.007
42.875,-0.006
42.880,-0.007
42.885,-0.001
42.890,0.001
42.895,-0.003
42.900,0.000
42.905,0.004
42.910,-0.002
42.915,-0.002
42.920,0.008
42.925,0.010
42.930,0.006
42.935,0.013
42.940,0.017
42.945,0.013
42.950,0.015
42.955,0.019
42.960,0.015
42.965,0.021
42.970,0.034
42.975,0.036
42.980,0.043
42.985,0.063
42.990,0.076
42.995,0.079
43.000,0.087
43.005,0.105
43.010,0.120
43.015,0.134
43.020,0.141
43.025,0.124
43.030,0.106
43.035,0.113
43.040,0.114
43.045,0.095
43.050,0.086
43.055,0.083
43.060,0.063
43.065,0.046
43.070,0.040
43.075,0.019
43.080,-0.010
43.085,-0.030
43.090,-0.042
43.095,-0.049
43.100,-0.046
43.105,-0.041
43.110,-0.029
43.115,0.006
43.120,0.082
43.125,0.167
43.130,0.214
43.135,0.282
43.140,0.424
43.145,0.679
43.150,1.063
43.155,1.441
43.160,1.612
43.165,1.506
43.170,1.214
43.175,0.743
43.180,0.170
43.185,-0.238
43.190,-0.458
43.195,-0.596
43.200,-0.626
43.205,-0.602
43.210,-0.595
43.215,-0.588
43.220,-0.569
43.225,-0.550
43.230,-0.532
43.235,-0.504
43.240,-0.480
43.245,-0.465
43.250,-0.441
43.255,-0.411
43.260,-0.391
43.265,-0.374
43.270,-0.348
43.275,-0.327
43.280,-0.314
43.285,-0.290
43.290,-0.268
43.295,-0.255
43.300,-0.237
43.305,-0.217
43.310,-0.203
43.315,-0.185
43.320,-0.162
43.325,-0.149
43.330,-0.140
43.335,-0.122
43.340,-0.105
43.345,-0.096
43.350,-0.081
43.355,-0.064
43.360,-0.057
43.365,-0.048
43.370,-0.033
43.375,-0.025
43.380,-0.019
43.385,-0.005
43.390,0.007
43.395,0.013
43.400,0.028
43.405,0.042
43.410,0.044
43.415,0.051
43.420,0.065
43.425,0.073
43.430,0.078
43.435,0.090
43.440,0.097
43.445,0.098
43.450,0.104
43.455,0.111
43.460,0.108
43.465,0.106
43.470,0.110
43.475,0.107
43.480,0.099
43.485,0.099
43.490,0.095
43.495,0.081
43.500,0.074
43.505,0.068
43.510,0.054
43.515,0.043
43.520,0.037
43.525,0.022
43.530,0.007
43.535,-0.003
43.540,-0.017
43.545,-0.035
43.550,-0.044
43.555,-0.052
43.560,-0.067
43.565,-0.074
43.570,-0.071
43.575,-0.075
43.580,-0.080
43.585,-0.076
43.590,-0.073
43.595,-0.077
43.600,-0.072
43.605,-0.063
43.610,-0.062
43.615,-0.058
43.620,-0.049
43.625,-0.046
43.630,-0.044
43.635,-0.034
43.640,-0.026
43.645,-0.025
43.650,-0.018
43.655,-0.008
43.660,-0.006
43.665,-0.002
43.670,0.006
43.675,0.007
43.680,0.008
43.685,0.016
43.690,0.020
43.695,0.017
43.700,0.020
43.705,0.025
43.710,0.022
43.715,0.020
43.720,0.026
43.725,0.025
43.730,0.021
43.735,0.023
43.740,0.024
43.745,0.020
43.750,0.021
43.755,0.025
43.760,0.021
43.765,0.019
43.770,0.022
43.775,0.021
43.780,0.019
43.785,0.023
43.790,0.026
43.795,0.022
43.800,0.025
43.805,0.031
43.810,0.025
43.815,0.022
43.820,0.027
43.825,0.024
43.830,0.020
43.835,0.027
43.840,0.028
43.845,0.021
43.850,0.023
43.855,0.030
43.860,0.028
43.865,0.027
43.870,0.033
43.875,0.038
43.880,0.041
43.885,0.052
43.890,0.066
43.895,0.078
43.900,0.088
43.905,0.094
43.910,0.097
43.915,0.112
43.920,0.133
43.925,0.139
43.930,0.131
43.935,0.124
43.940,0.119
43.945,0.114
43.950,0.104
43.955,0.091
43.960,0.077
43.965,0.065
43.970,0.053
43.975,0.038
43.980,0.019
43.985,-0.003
43.990,-0.029
43.995,-0.052
44.000,-0.056
44.005,-0.051
44.010,-0.054
44.015,-0.048
44.020,-0.015
44.025,0.050
44.030,0.147
44.035,0.216
44.040,0.231
44.045,0.279
44.050,0.441
44.055,0.751
44.060,1.142
44.065,1.456
44.070,1.552
44.075,1.404
44.080,1.041
44.085,0.506
44.090,-0.002
44.095,-0.321
44.100,-0.506
44.105,-0.611
44.110,-0.624
44.115,-0.603
44.120,-0.592
44.125,-0.587
44.130,-0.576
44.135,-0.549
44.140,-0.527
44.145,-0.513
44.150,-0.489
44.155,-0.461
44.160,-0.443
44.165,-0.421
44.170,-0.393
44.175,-0.375
44.180,-0.358
44.185,-0.334
44.190,-0.312
44.195,-0.295
44.200,-0.274
44.205,-0.251
44.210,-0.237
44.215,-0.223
44.220,-0.201
44.225,-0.185
44.230,-0.173
44.235,-0.153
44.240,-0.138
44.245,-0.131
44.250,-0.115
44.255,-0.099
44.260,-0.091
44.265,-0.080
44.270,-0.062
44.275,-0.053
44.280,-0.043
44.285,-0.025
44.290,-0.014
44.295,-0.008
44.300,0.008
44.305,0.024
44.310,0.030
44.315,0.040
44.320,0.057
44.325,0.066
44.330,0.071
44.335,0.086
44.340,0.099
44.345,0.101
44.350,0.104
44.355,0.114
44.360,0.117
44.365,0.120
44.370,0.125
44.375,0.121
44.380,0.114
44.385,0.116
44.390,0.115
44.395,0.106
44.400,0.102
44.405,0.095
44.410,0.080
44.415,0.067
44.420,0.062
44.425,0.052
44.430,0.036
44.435,0.022
44.440,0.005
44.445,-0.011
44.450,-0.023
44.455,-0.035
44.460,-0.050
44.465,-0.061
44.470,-0.064
44.475,-0.073
44.480,-0.082
44.485,-0.079
44.490,-0.077
44.495,-0.081
44.500,-0.077
44.505,-0.069
44.510,-0.067
44.515,-0.066
44.520,-0.061
44.525,-0.061
44.530,-0.057
44.535,-0.030
44.540,0.021
44.545,0.089
44.550,0.164
44.555,0.222
44.560,0.274
44.565,0.392
44.570,0.575
44.575,0.734
44.580,0.882
44.585,1.072
44.590,1.256
44.595,1.377
44.600,1.452
44.605,1.498
44.610,1.470
44.615,1.385
44.620,1.338
44.625,1.299
44.630,1.116
44.635,0.745
44.640,0.272
44.645,-0.206
44.650,-0.649
44.655,-0.992
44.660,-1.104
44.665,-1.039
44.670,-0.979
44.675,-0.974
44.680,-1.013
44.685,-1.081
44.690,-1.126
44.695,-1.103
44.700,-1.060
44.705,-1.035
44.710,-1.005
44.715,-0.967
44.720,-0.929
44.725,-0.895
44.730,-0.866
44.735,-0.833
44.740,-0.790
44.745,-0.742
44.750,-0.689
44.755,-0.648
44.760,-0.621
44.765,-0.579
44.770,-0.525
44.775,-0.491
44.780,-0.457
44.785,-0.407
44.790,-0.371
44.795,-0.347
44.800,-0.315
44.805,-0.282
44.810,-0.257
44.815,-0.237
44.820,-0.215
44.825,-0.202
44.830,-0.196
44.835,-0.177
44.840,-0.160
44.845,-0.151
44.850,-0.133
44.855,-0.112
44.860,-0.100
44.865,-0.085
44.870,-0.066
44.875,-0.048
44.880,-0.023
44.885,0.006
44.890,0.031
44.895,0.056
44.900,0.088
44.905,0.120
44.910,0.148
44.915,0.182
44.920,0.220
44.925,0.253
44.930,0.286
44.935,0.318
44.940,0.342
44.945,0.362
44.950,0.384
44.955,0.401
44.960,0.409
44.965,0.415
44.970,0.420
44.975,0.420
44.980,0.415
44.985,0.412
44.990,0.407
44.995,0.392
45.000,0.376
45.005,0.363
45.010,0.342
45.015,0.324
45.020,0.311
45.025,0.294
45.030,0.278
45.035,0.269
45.040,0.255
45.045,0.237
45.050,0.227
45.055,0.223
45.060,0.213
45.065,0.205
45.070,0.201
45.075,0.192
45.080,0.182
45.085,0.179
45.090,0.172
45.095,0.163
45.100,0.162
45.105,0.157
45.110,0.144
45.115,0.136
45.120,0.132
45.125,0.121
45.130,0.111
45.135,0.106
45.140,0.097
45.145,0.085
45.150,0.081
45.155,0.078
45.160,0.068
45.165,0.059
45.170,0.055
45.175,0.045
45.180,0.035
45.185,0.033
45.190,0.028
45.195,0.018
45.200,0.016
45.205,0.015
45.210,0.005
45.215,0.001
45.220,0.003
45.225,-0.005
45.230,-0.013
45.235,-0.009
45.240,-0.011
45.245,-0.018
45.250,-0.016
45.255,-0.016
45.260,-0.023
45.265,-0.025
45.270,-0.022
45.275,-0.026
45.280,-0.030
