'Elapsed time','ECG'
'seconds','mV'
0.000,-0.063
0.005,0.028
0.010,0.023
0.015,-0.001
0.020,0.110
0.025,0.125
0.030,0.026
0.035,0.087
0.040,0.150
0.045,0.044
0.050,0.039
0.055,0.139
0.060,0.071
0.065,-0.001
0.070,0.094
0.075,0.093
0.080,-0.013
0.085,0.039
0.090,0.095
0.095,-0.012
0.100,-0.018
0.105,0.079
0.110,0.012
0.115,-0.060
0.120,0.033
0.125,0.027
0.130,-0.078
0.135,-0.017
0.140,0.042
0.145,-0.070
0.150,-0.083
0.155,0.008
0.160,-0.064
0.165,-0.138
0.170,-0.049
0.175,-0.060
0.180,-0.172
0.185,-0.122
0.190,-0.075
0.195,-0.193
0.200,-0.212
0.205,-0.129
0.210,-0.211
0.215,-0.291
0.220,-0.203
0.225,-0.216
0.230,-0.327
0.235,-0.270
0.240,-0.213
0.245,-0.316
0.250,-0.312
0.255,-0.202
0.260,-0.243
0.265,-0.272
0.270,-0.126
0.275,-0.068
0.280,-0.107
0.285,0.022
0.290,0.153
0.295,0.110
0.300,0.161
0.305,0.303
0.310,0.273
0.315,0.236
0.320,0.353
0.325,0.361
0.330,0.262
0.335,0.323
0.340,0.380
0.345,0.269
0.350,0.259
0.355,0.349
0.360,0.275
0.365,0.203
0.370,0.293
0.375,0.282
0.380,0.169
0.385,0.219
0.390,0.270
0.395,0.156
0.400,0.142
0.405,0.231
0.410,0.159
0.415,0.087
0.420,0.179
0.425,0.168
0.430,0.054
0.435,0.108
0.440,0.164
0.445,0.055
0.450,0.046
0.455,0.140
0.460,0.071
0.465,0.001
0.470,0.094
0.475,0.090
0.480,-0.015
0.485,0.042
0.490,0.100
0.495,-0.005
0.500,-0.009
0.505,0.088
0.510,0.022
0.515,-0.043
0.520,0.056
0.525,0.054
0.530,-0.051
0.535,0.007
0.540,0.066
0.545,-0.038
0.550,-0.038
0.555,0.062
0.560,-0.006
0.565,-0.071
0.570,0.028
0.575,0.025
0.580,-0.078
0.585,-0.021
0.590,0.037
0.595,-0.065
0.600,-0.066
0.605,0.033
0.610,-0.031
0.615,-0.095
0.620,0.004
0.625,0.000
0.630,-0.105
0.635,-0.041
0.640,0.024
0.645,-0.078
0.650,-0.081
0.655,0.019
0.660,-0.046
0.665,-0.111
0.670,-0.012
0.675,-0.012
0.680,-0.111
0.685,-0.050
0.690,0.009
0.695,-0.093
0.700,-0.094
0.705,0.007
0.710,-0.054
0.715,-0.115
0.720,-0.014
0.725,-0.017
0.730,-0.118
0.735,-0.054
0.740,0.007
0.745,-0.092
0.750,-0.092
0.755,0.007
0.760,-0.053
0.765,-0.116
0.770,-0.016
0.775,-0.014
0.780,-0.112
0.785,-0.050
0.790,0.012
0.795,-0.089
0.800,-0.087
0.805,0.015
0.810,-0.049
0.815,-0.111
0.820,-0.008
0.825,-0.009
0.830,-0.108
0.835,-0.044
0.840,0.019
0.845,-0.080
0.850,-0.078
0.855,0.023
0.860,-0.040
0.865,-0.101
0.870,0.002
0.875,0.003
0.880,-0.098
0.885,-0.034
0.890,0.028
0.895,-0.075
0.900,-0.071
0.905,0.032
0.910,-0.033
0.915,-0.093
0.920,0.010
0.925,0.009
0.930,-0.090
0.935,-0.025
0.940,0.037
0.945,-0.062
0.950,-0.061
0.955,0.039
0.960,-0.023
0.965,-0.083
0.970,0.020
0.975,0.020
0.980,-0.077
0.985,-0.012
0.990,0.050
0.995,-0.052
1.000,-0.053
1.005,0.048
1.010,-0.014
1.015,-0.074
1.020,0.028
1.025,0.028
1.030,-0.074
1.035,-0.010
1.040,0.053
1.045,-0.047
1.050,-0.043
1.055,0.057
1.060,-0.012
1.065,-0.083
1.070,0.010
1.075,0.004
1.080,-0.098
1.085,-0.035
1.090,0.025
1.095,-0.080
1.100,-0.083
1.105,0.011
1.110,-0.052
1.115,-0.105
1.120,0.001
1.125,0.005
1.130,-0.085
1.135,-0.011
1.140,0.049
1.145,-0.056
1.150,-0.041
1.155,0.078
1.160,0.029
1.165,-0.017
1.170,0.090
1.175,0.087
1.180,-0.014
1.185,0.049
1.190,0.108
1.195,0.006
1.200,0.010
1.205,0.112
1.210,0.047
1.215,-0.014
1.220,0.086
1.225,0.078
1.230,-0.022
1.235,0.053
1.240,0.100
1.245,-0.096
1.250,-0.299
1.255,-0.541
1.260,-1.057
1.265,-1.487
1.270,-1.407
1.275,-0.976
1.280,-0.390
1.285,0.154
1.290,0.313
1.295,0.184
1.300,0.191
1.305,0.322
1.310,0.297
1.315,0.261
1.320,0.375
1.325,0.376
1.330,0.275
1.335,0.333
1.340,0.386
1.345,0.274
1.350,0.263
1.355,0.350
1.360,0.273
1.365,0.197
1.370,0.284
1.375,0.269
1.380,0.157
1.385,0.209
1.390,0.257
1.395,0.146
1.400,0.136
1.405,0.224
1.410,0.148
1.415,0.073
1.420,0.159
1.425,0.145
1.430,0.035
1.435,0.089
1.440,0.136
1.445,0.019
1.450,0.009
1.455,0.098
1.460,0.020
1.465,-0.054
1.470,0.034
1.475,0.016
1.480,-0.100
1.485,-0.054
1.490,-0.012
1.495,-0.134
1.500,-0.157
1.505,-0.076
1.510,-0.158
1.515,-0.243
1.520,-0.161
1.525,-0.177
1.530,-0.290
1.535,-0.235
1.540,-0.180
1.545,-0.286
1.550,-0.286
1.555,-0.183
1.560,-0.237
1.565,-0.275
1.570,-0.136
1.575,-0.086
1.580,-0.128
1.585,-0.003
1.590,0.119
1.595,0.073
1.600,0.125
1.605,0.269
1.610,0.239
1.615,0.204
1.620,0.323
1.625,0.329
1.630,0.233
1.635,0.297
1.640,0.354
1.645,0.249
1.650,0.244
1.655,0.333
1.660,0.255
1.665,0.182
1.670,0.273
1.675,0.258
1.680,0.143
1.685,0.197
1.690,0.247
1.695,0.131
1.700,0.122
1.705,0.212
1.710,0.135
1.715,0.063
1.720,0.155
1.725,0.145
1.730,0.036
1.735,0.087
1.740,0.138
1.745,0.030
1.750,0.025
1.755,0.120
1.760,0.050
1.765,-0.018
1.770,0.078
1.775,0.070
1.780,-0.037
1.785,0.021
1.790,0.077
1.795,-0.028
1.800,-0.029
1.805,0.069
1.810,0.001
1.815,-0.064
1.820,0.034
1.825,0.029
1.830,-0.072
1.835,-0.006
1.840,0.049
1.845,-0.061
1.850,-0.063
1.855,0.036
1.860,-0.028
1.865,-0.086
1.870,0.013
1.875,0.005
1.880,-0.102
1.885,-0.040
1.890,0.017
1.895,-0.089
1.900,-0.087
1.905,0.015
1.910,-0.050
1.915,-0.112
1.920,-0.012
1.925,-0.018
1.930,-0.120
1.935,-0.057
1.940,-0.001
1.945,-0.104
1.950,-0.100
1.955,-0.002
1.960,-0.070
1.965,-0.131
1.970,-0.029
1.975,-0.031
1.980,-0.127
1.985,-0.060
1.990,-0.002
1.995,-0.107
2.000,-0.105
2.005,-0.006
2.010,-0.069
2.015,-0.129
2.020,-0.030
2.025,-0.036
2.030,-0.134
2.035,-0.069
2.040,-0.009
2.045,-0.108
2.050,-0.103
2.055,-0.001
2.060,-0.063
2.065,-0.122
2.070,-0.022
2.075,-0.028
2.080,-0.126
2.085,-0.058
2.090,-0.001
2.095,-0.106
2.100,-0.098
2.105,0.005
2.110,-0.060
2.115,-0.117
2.120,-0.015
2.125,-0.020
2.130,-0.119
2.135,-0.050
2.140,0.008
2.145,-0.096
2.150,-0.090
2.155,0.012
2.160,-0.051
2.165,-0.106
2.170,-0.001
2.175,-0.008
2.180,-0.110
2.185,-0.040
2.190,0.020
2.195,-0.081
2.200,-0.075
2.205,0.025
2.210,-0.040
2.215,-0.098
2.220,0.004
2.225,0.002
2.230,-0.096
2.235,-0.029
2.240,0.032
2.245,-0.067
2.250,-0.062
2.255,0.037
2.260,-0.027
2.265,-0.083
2.270,0.021
2.275,0.016
2.280,-0.084
2.285,-0.016
2.290,0.044
2.295,-0.058
2.300,-0.055
2.305,0.036
2.310,-0.040
2.315,-0.105
2.320,-0.006
2.325,-0.011
2.330,-0.110
2.335,-0.047
2.340,0.009
2.345,-0.096
2.350,-0.094
2.355,0.008
2.360,-0.054
2.365,-0.110
2.370,0.002
2.375,0.013
2.380,-0.080
2.385,-0.018
2.390,0.049
2.395,-0.035
2.400,-0.014
2.405,0.103
2.410,0.046
2.415,-0.013
2.420,0.087
2.425,0.079
2.430,-0.020
2.435,0.049
2.440,0.105
2.445,0.002
2.450,0.009
2.455,0.108
2.460,0.038
2.465,-0.024
2.470,0.080
2.475,0.081
2.480,-0.016
2.485,0.009
2.490,-0.067
2.495,-0.436
2.500,-0.847
2.505,-1.195
2.510,-1.481
2.515,-1.336
2.520,-0.633
2.525,-0.001
2.530,0.181
2.535,0.258
2.540,0.295
2.545,0.199
2.550,0.240
2.555,0.372
2.560,0.323
2.565,0.274
2.570,0.376
2.575,0.367
2.580,0.262
2.585,0.319
2.590,0.367
2.595,0.255
2.600,0.246
2.605,0.328
2.610,0.247
2.615,0.177
2.620,0.266
2.625,0.249
2.630,0.138
2.635,0.193
2.640,0.239
2.645,0.123
2.650,0.115
2.655,0.203
2.660,0.125
2.665,0.054
2.670,0.146
2.675,0.130
2.680,0.016
2.685,0.072
2.690,0.119
2.695,0.003
2.700,-0.004
2.705,0.080
2.710,-0.004
2.715,-0.076
2.720,0.014
2.725,-0.009
2.730,-0.128
2.735,-0.079
2.740,-0.041
2.745,-0.169
2.750,-0.185
2.755,-0.103
2.760,-0.189
2.765,-0.268
2.770,-0.179
2.775,-0.191
2.780,-0.296
2.785,-0.233
2.790,-0.181
2.795,-0.288
2.800,-0.278
2.805,-0.163
2.810,-0.196
2.815,-0.207
2.820,-0.046
2.825,0.013
2.830,-0.025
2.835,0.100
2.840,0.212
2.845,0.156
2.850,0.198
2.855,0.325
2.860,0.281
2.865,0.237
2.870,0.345
2.875,0.340
2.880,0.242
2.885,0.306
2.890,0.353
2.895,0.241
2.900,0.236
2.905,0.321
2.910,0.242
2.915,0.172
2.920,0.261
2.925,0.239
2.930,0.125
2.935,0.180
2.940,0.226
2.945,0.111
2.950,0.106
2.955,0.198
2.960,0.123
2.965,0.052
2.970,0.142
2.975,0.129
2.980,0.022
2.985,0.075
2.990,0.122
2.995,0.012
3.000,0.011
3.005,0.107
3.010,0.033
3.015,-0.031
3.020,0.068
3.025,0.061
3.030,-0.045
3.035,0.015
3.040,0.070
3.045,-0.035
3.050,-0.031
3.055,0.063
3.060,-0.008
3.065,-0.068
3.070,0.032
3.075,0.022
3.080,-0.080
3.085,-0.014
3.090,0.037
3.095,-0.073
3.100,-0.068
3.105,0.030
3.110,-0.038
3.115,-0.094
3.120,0.004
3.125,-0.005
3.130,-0.100
3.135,-0.034
3.140,0.016
3.145,-0.091
3.150,-0.086
3.155,0.011
3.160,-0.060
3.165,-0.119
3.170,-0.019
3.175,-0.027
3.180,-0.125
3.185,-0.055
3.190,0.003
3.195,-0.102
3.200,-0.098
3.205,0.000
3.210,-0.069
3.215,-0.126
3.220,-0.025
3.225,-0.034
3.230,-0.131
3.235,-0.061
3.240,-0.004
3.245,-0.106
3.250,-0.097
3.255,0.001
3.260,-0.071
3.265,-0.129
3.270,-0.025
3.275,-0.032
3.280,-0.131
3.285,-0.063
3.290,-0.006
3.295,-0.107
3.300,-0.100
3.305,0.000
3.310,-0.066
3.315,-0.123
3.320,-0.021
3.325,-0.027
3.330,-0.123
3.335,-0.052
3.340,0.005
3.345,-0.100
3.350,-0.090
3.355,0.011
3.360,-0.058
3.365,-0.113
3.370,-0.012
3.375,-0.021
3.380,-0.117
3.385,-0.047
3.390,0.011
3.395,-0.089
3.400,-0.081
3.405,0.019
3.410,-0.048
3.415,-0.105
3.420,0.000
3.425,-0.005
3.430,-0.103
3.435,-0.033
3.440,0.025
3.445,-0.077
3.450,-0.067
3.455,0.033
3.460,-0.037
3.465,-0.093
3.470,0.012
3.475,0.002
3.480,-0.099
3.485,-0.028
3.490,0.032
3.495,-0.069
3.500,-0.059
3.505,0.043
3.510,-0.027
3.515,-0.091
3.520,0.004
3.525,-0.012
3.530,-0.115
3.535,-0.044
3.540,0.013
3.545,-0.094
3.550,-0.092
3.555,-0.001
3.560,-0.071
3.565,-0.119
3.570,-0.010
3.575,-0.015
3.580,-0.102
3.585,-0.021
3.590,0.038
3.595,-0.064
3.600,-0.046
3.605,0.070
3.610,0.018
3.615,-0.024
3.620,0.084
3.625,0.076
3.630,-0.021
3.635,0.046
3.640,0.103
3.645,0.000
3.650,0.007
3.655,0.109
3.660,0.044
3.665,-0.015
3.670,0.083
3.675,0.071
3.680,-0.030
3.685,0.047
3.690,0.110
3.695,-0.035
3.700,-0.164
3.705,-0.331
3.710,-0.811
3.715,-1.316
3.720,-1.443
3.725,-1.255
3.730,-0.748
3.735,-0.037
3.740,0.300
3.745,0.212
3.750,0.201
3.755,0.302
3.760,0.265
3.765,0.246
3.770,0.368
3.775,0.368
3.780,0.271
3.785,0.336
3.790,0.383
3.795,0.266
3.800,0.266
3.805,0.358
3.810,0.273
3.815,0.202
3.820,0.293
3.825,0.270
3.830,0.161
3.835,0.218
3.840,0.260
3.845,0.146
3.850,0.144
3.855,0.227
3.860,0.144
3.865,0.079
3.870,0.171
3.875,0.150
3.880,0.041
3.885,0.097
3.890,0.138
3.895,0.022
3.900,0.019
3.905,0.104
3.910,0.023
3.915,-0.045
3.920,0.044
3.925,0.023
3.930,-0.090
3.935,-0.039
3.940,-0.004
3.945,-0.128
3.950,-0.140
3.955,-0.061
3.960,-0.152
3.965,-0.230
3.970,-0.147
3.975,-0.172
3.980,-0.283
3.985,-0.224
3.990,-0.177
3.995,-0.284
4.000,-0.275
4.005,-0.175
4.010,-0.238
4.015,-0.278
4.020,-0.146
4.025,-0.111
4.030,-0.153
4.035,-0.022
4.040,0.097
4.045,0.059
4.050,0.123
4.055,0.263
4.060,0.229
4.065,0.204
4.070,0.326
4.075,0.330
4.080,0.240
4.085,0.312
4.090,0.363
4.095,0.253
4.100,0.253
4.105,0.340
4.110,0.260
4.115,0.194
4.120,0.285
4.125,0.261
4.130,0.147
4.135,0.206
4.140,0.251
4.145,0.133
4.150,0.127
4.155,0.213
4.160,0.133
4.165,0.069
4.170,0.164
4.175,0.143
4.180,0.035
4.185,0.095
4.190,0.138
4.195,0.025
4.200,0.029
4.205,0.121
4.210,0.044
4.215,-0.019
4.220,0.078
4.225,0.067
4.230,-0.034
4.235,0.028
4.240,0.076
4.245,-0.032
4.250,-0.028
4.255,0.067
4.260,-0.006
4.265,-0.061
4.270,0.041
4.275,0.027
4.280,-0.074
4.285,-0.006
4.290,0.044
4.295,-0.063
4.300,-0.057
4.305,0.038
4.310,-0.032
4.315,-0.088
4.320,0.012
4.325,0.000
4.330,-0.101
4.335,-0.035
4.340,0.016
4.345,-0.089
4.350,-0.081
4.355,0.016
4.360,-0.054
4.365,-0.110
4.370,-0.009
4.375,-0.023
4.380,-0.123
4.385,-0.051
4.390,0.004
4.395,-0.102
4.400,-0.096
4.405,0.001
4.410,-0.069
4.415,-0.122
4.420,-0.017
4.425,-0.028
4.430,-0.129
4.435,-0.061
4.440,-0.008
4.445,-0.110
4.450,-0.099
4.455,-0.005
4.460,-0.075
4.465,-0.128
4.470,-0.023
4.475,-0.031
4.480,-0.128
4.485,-0.057
4.490,-0.004
4.495,-0.107
4.500,-0.097
4.505,0.000
4.510,-0.070
4.515,-0.124
4.520,-0.020
4.525,-0.029
4.530,-0.124
4.535,-0.051
4.540,0.005
4.545,-0.099
4.550,-0.086
4.555,0.014
4.560,-0.058
4.565,-0.115
4.570,-0.013
4.575,-0.023
4.580,-0.118
4.585,-0.045
4.590,0.010
4.595,-0.093
4.600,-0.081
4.605,0.018
4.610,-0.049
4.615,-0.099
4.620,0.005
4.625,-0.007
4.630,-0.104
4.635,-0.033
4.640,0.021
4.645,-0.081
4.650,-0.069
4.655,0.029
4.660,-0.041
4.665,-0.092
4.670,0.013
4.675,0.004
4.680,-0.094
4.685,-0.024
4.690,0.032
4.695,-0.067
4.700,-0.055
4.705,0.038
4.710,-0.042
4.715,-0.106
4.720,-0.008
4.725,-0.021
4.730,-0.116
4.735,-0.045
4.740,0.004
4.745,-0.105
4.750,-0.099
4.755,-0.003
4.760,-0.070
4.765,-0.115
4.770,-0.002
4.775,-0.001
4.780,-0.090
4.785,-0.020
4.790,0.032
4.795,-0.058
4.800,-0.028
4.805,0.084
4.810,0.031
4.815,-0.017
4.820,0.085
4.825,0.075
4.830,-0.024
4.835,0.046
4.840,0.101
4.845,-0.003
4.850,0.006
4.855,0.103
4.860,0.033
4.865,-0.021
4.870,0.080
4.875,0.069
4.880,-0.019
4.885,0.051
4.890,0.045
4.895,-0.218
4.900,-0.498
4.905,-0.831
4.910,-1.332
4.915,-1.558
4.920,-1.189
4.925,-0.556
4.930,-0.043
4.935,0.253
4.940,0.303
4.945,0.186
4.950,0.213
4.955,0.350
4.960,0.309
4.965,0.272
4.970,0.382
4.975,0.371
4.980,0.266
4.985,0.329
4.990,0.373
4.995,0.259
5.000,0.258
5.005,0.341
5.010,0.257
5.015,0.191
5.020,0.281
5.025,0.256
5.030,0.149
5.035,0.208
5.040,0.246
5.045,0.130
5.050,0.132
5.055,0.216
5.060,0.130
5.065,0.064
5.070,0.157
5.075,0.134
5.080,0.024
5.085,0.083
5.090,0.124
5.095,0.007
5.100,0.003
5.105,0.089
5.110,0.009
5.115,-0.060
5.120,0.028
5.125,0.001
5.130,-0.114
5.135,-0.063
5.140,-0.029
5.145,-0.152
5.150,-0.162
5.155,-0.087
5.160,-0.180
5.165,-0.253
5.170,-0.166
5.175,-0.194
5.180,-0.302
5.185,-0.237
5.190,-0.189
5.195,-0.299
5.200,-0.285
5.205,-0.177
5.210,-0.229
5.215,-0.247
5.220,-0.094
5.225,-0.046
5.230,-0.080
5.235,0.054
5.240,0.167
5.245,0.115
5.250,0.169
5.255,0.304
5.260,0.263
5.265,0.230
5.270,0.345
5.275,0.339
5.280,0.242
5.285,0.309
5.290,0.356
5.295,0.242
5.300,0.244
5.305,0.331
5.310,0.248
5.315,0.183
5.320,0.275
5.325,0.248
5.330,0.135
5.335,0.194
5.340,0.235
5.345,0.117
5.350,0.118
5.355,0.208
5.360,0.125
5.365,0.058
5.370,0.152
5.375,0.132
5.380,0.027
5.385,0.089
5.390,0.132
5.395,0.021
5.400,0.024
5.405,0.112
5.410,0.034
5.415,-0.024
5.420,0.076
5.425,0.059
5.430,-0.044
5.435,0.025
5.440,0.075
5.445,-0.036
5.450,-0.031
5.455,0.065
5.460,-0.010
5.465,-0.066
5.470,0.036
5.475,0.019
5.480,-0.081
5.485,-0.010
5.490,0.039
5.495,-0.068
5.500,-0.058
5.505,0.036
5.510,-0.038
5.515,-0.093
5.520,0.006
5.525,-0.007
5.530,-0.104
5.535,-0.036
5.540,0.013
5.545,-0.094
5.550,-0.082
5.555,0.013
5.560,-0.061
5.565,-0.112
5.570,-0.008
5.575,-0.021
5.580,-0.119
5.585,-0.052
5.590,-0.003
5.595,-0.108
5.600,-0.096
5.605,0.001
5.610,-0.072
5.615,-0.124
5.620,-0.019
5.625,-0.032
5.630,-0.129
5.635,-0.056
5.640,-0.005
5.645,-0.110
5.650,-0.097
5.655,-0.001
5.660,-0.073
5.665,-0.124
5.670,-0.023
5.675,-0.036
5.680,-0.129
5.685,-0.056
5.690,-0.005
5.695,-0.110
5.700,-0.094
5.705,0.004
5.710,-0.071
5.715,-0.121
5.720,-0.014
5.725,-0.026
5.730,-0.120
5.735,-0.047
5.740,0.003
5.745,-0.100
5.750,-0.084
5.755,0.011
5.760,-0.063
5.765,-0.114
5.770,-0.009
5.775,-0.021
5.780,-0.114
5.785,-0.041
5.790,0.011
5.795,-0.090
5.800,-0.074
5.805,0.022
5.810,-0.049
5.815,-0.098
5.820,0.008
5.825,-0.008
5.830,-0.105
5.835,-0.033
5.840,0.020
5.845,-0.082
5.850,-0.067
5.855,0.030
5.860,-0.041
5.865,-0.089
5.870,0.019
5.875,0.007
5.880,-0.090
5.885,-0.016
5.890,0.037
5.895,-0.067
5.900,-0.052
5.905,0.046
5.910,-0.026
5.915,-0.079
5.920,0.025
5.925,0.011
5.930,-0.084
5.935,-0.007
5.940,0.047
5.945,-0.058
5.950,-0.043
5.955,0.055
5.960,-0.019
5.965,-0.069
5.970,0.038
5.975,0.026
5.980,-0.072
5.985,-0.002
5.990,0.045
5.995,-0.067
6.000,-0.061
6.005,0.032
6.010,-0.041
6.015,-0.094
6.020,0.007
6.025,-0.011
6.030,-0.112
6.035,-0.044
6.040,0.005
6.045,-0.095
6.050,-0.072
6.055,0.030
6.060,-0.036
6.065,-0.078
6.070,0.031
6.075,0.018
6.080,-0.067
6.085,0.024
6.090,0.090
6.095,-0.002
6.100,0.017
6.105,0.114
6.110,0.041
6.115,-0.011
6.120,0.092
6.125,0.078
6.130,-0.015
6.135,0.059
6.140,0.106
6.145,0.001
6.150,0.015
6.155,0.106
6.160,0.034
6.165,-0.007
6.170,0.094
6.175,0.017
6.180,-0.241
6.185,-0.462
6.190,-0.842
6.195,-1.367
6.200,-1.505
6.205,-1.125
6.210,-0.555
6.215,-0.013
6.220,0.299
6.225,0.274
6.230,0.163
6.235,0.253
6.240,0.340
6.245,0.267
6.250,0.301
6.255,0.401
6.260,0.327
6.265,0.273
6.270,0.369
6.275,0.344
6.280,0.238
6.285,0.298
6.290,0.333
6.295,0.213
6.300,0.215
6.305,0.299
6.310,0.214
6.315,0.153
6.320,0.244
6.325,0.214
6.330,0.106
6.335,0.170
6.340,0.210
6.345,0.094
6.350,0.097
6.355,0.178
6.360,0.090
6.365,0.028
6.370,0.121
6.375,0.092
6.380,-0.016
6.385,0.046
6.390,0.086
6.395,-0.030
6.400,-0.034
6.405,0.045
6.410,-0.040
6.415,-0.107
6.420,-0.024
6.425,-0.059
6.430,-0.171
6.435,-0.118
6.440,-0.090
6.445,-0.213
6.450,-0.220
6.455,-0.145
6.460,-0.231
6.465,-0.288
6.470,-0.188
6.475,-0.208
6.480,-0.309
6.485,-0.234
6.490,-0.176
6.495,-0.266
6.500,-0.225
6.505,-0.089
6.510,-0.108
6.515,-0.093
6.520,0.075
6.525,0.117
6.530,0.072
6.535,0.193
6.540,0.284
6.545,0.211
6.550,0.251
6.555,0.359
6.560,0.288
6.565,0.240
6.570,0.340
6.575,0.315
6.580,0.216
6.585,0.284
6.590,0.320
6.595,0.203
6.600,0.206
6.605,0.288
6.610,0.202
6.615,0.141
6.620,0.232
6.625,0.201
6.630,0.095
6.635,0.161
6.640,0.198
6.645,0.082
6.650,0.087
6.655,0.173
6.660,0.089
6.665,0.028
6.670,0.123
6.675,0.100
6.680,-0.004
6.685,0.063
6.690,0.107
6.695,-0.002
6.700,0.010
6.705,0.097
6.710,0.013
6.715,-0.042
6.720,0.060
6.725,0.040
6.730,-0.058
6.735,0.015
6.740,0.059
6.745,-0.050
6.750,-0.039
6.755,0.050
6.760,-0.027
6.765,-0.075
6.770,0.030
6.775,0.010
6.780,-0.090
6.785,-0.016
6.790,0.030
6.795,-0.077
6.800,-0.062
6.805,0.030
6.810,-0.047
6.815,-0.098
6.820,0.004
6.825,-0.016
6.830,-0.111
6.835,-0.033
6.840,0.011
6.845,-0.100
6.850,-0.083
6.855,0.010
6.860,-0.070
6.865,-0.118
6.870,-0.011
6.875,-0.028
6.880,-0.123
6.885,-0.051
6.890,-0.009
6.895,-0.116
6.900,-0.096
6.905,0.002
6.910,-0.075
6.915,-0.125
6.920,-0.019
6.925,-0.034
6.930,-0.128
6.935,-0.054
6.940,-0.006
6.945,-0.112
6.950,-0.095
6.955,-0.002
6.960,-0.077
6.965,-0.122
6.970,-0.014
6.975,-0.030
6.980,-0.125
6.985,-0.051
6.990,-0.005
6.995,-0.108
7.000,-0.091
7.005,0.001
7.010,-0.073
7.015,-0.117
7.020,-0.012
7.025,-0.030
7.030,-0.121
7.035,-0.043
7.040,0.004
7.045,-0.102
7.050,-0.083
7.055,0.015
7.060,-0.057
7.065,-0.106
7.070,0.000
7.075,-0.017
7.080,-0.112
7.085,-0.035
7.090,0.014
7.095,-0.091
7.100,-0.068
7.105,0.028
7.110,-0.050
7.115,-0.093
7.120,0.015
7.125,-0.006
7.130,-0.101
7.135,-0.025
7.140,0.024
7.145,-0.078
7.150,-0.057
7.155,0.037
7.160,-0.038
7.165,-0.082
7.170,0.023
7.175,0.002
7.180,-0.091
7.185,-0.013
7.190,0.035
7.195,-0.069
7.200,-0.055
7.205,0.028
7.210,-0.056
7.215,-0.104
7.220,-0.001
7.225,-0.018
7.230,-0.112
7.235,-0.040
7.240,0.003
7.245,-0.105
7.250,-0.089
7.255,0.005
7.260,-0.064
7.265,-0.101
7.270,0.013
7.275,0.003
7.280,-0.089
7.285,-0.009
7.290,0.056
7.295,-0.030
7.300,0.001
7.305,0.103
7.310,0.030
7.315,-0.016
7.320,0.090
7.325,0.070
7.330,-0.023
7.335,0.056
7.340,0.102
7.345,-0.004
7.350,0.014
7.355,0.107
7.360,0.029
7.365,-0.021
7.370,0.085
7.375,0.075
7.380,-0.033
7.385,-0.044
7.390,-0.195
7.395,-0.641
7.400,-1.083
7.405,-1.358
7.410,-1.447
7.415,-1.065
7.420,-0.284
7.425,0.179
7.430,0.196
7.435,0.251
7.440,0.288
7.445,0.202
7.450,0.263
7.455,0.384
7.460,0.317
7.465,0.272
7.470,0.373
7.475,0.349
7.480,0.248
7.485,0.311
7.490,0.345
7.495,0.229
7.500,0.236
7.505,0.319
7.510,0.229
7.515,0.168
7.520,0.263
7.525,0.232
7.530,0.124
7.535,0.190
7.540,0.225
7.545,0.105
7.550,0.113
7.555,0.197
7.560,0.109
7.565,0.051
7.570,0.144
7.575,0.110
7.580,0.004
7.585,0.070
7.590,0.104
7.595,-0.012
7.600,-0.006
7.605,0.072
7.610,-0.018
7.615,-0.078
7.620,0.012
7.625,-0.025
7.630,-0.140
7.635,-0.086
7.640,-0.060
7.645,-0.183
7.650,-0.184
7.655,-0.110
7.660,-0.207
7.665,-0.269
7.670,-0.174
7.675,-0.200
7.680,-0.300
7.685,-0.229
7.690,-0.183
7.695,-0.282
7.700,-0.255
7.705,-0.141
7.710,-0.178
7.715,-0.173
7.720,-0.009
7.725,0.037
7.730,0.005
7.735,0.140
7.740,0.234
7.745,0.167
7.750,0.221
7.755,0.340
7.760,0.280
7.765,0.246
7.770,0.355
7.775,0.333
7.780,0.234
7.785,0.306
7.790,0.344
7.795,0.227
7.800,0.233
7.805,0.312
7.810,0.222
7.815,0.165
7.820,0.257
7.825,0.223
7.830,0.118
7.835,0.182
7.840,0.216
7.845,0.099
7.850,0.108
7.855,0.192
7.860,0.103
7.865,0.050
7.870,0.150
7.875,0.119
7.880,0.015
7.885,0.081
7.890,0.116
7.895,0.002
7.900,0.017
7.905,0.106
7.910,0.023
7.915,-0.027
7.920,0.074
7.925,0.050
7.930,-0.045
7.935,0.030
7.940,0.067
7.945,-0.045
7.950,-0.028
7.955,0.062
7.960,-0.016
7.965,-0.064
7.970,0.038
7.975,0.015
7.980,-0.080
7.985,-0.007
7.990,0.032
7.995,-0.076
8.000,-0.056
8.005,0.035
8.010,-0.048
8.015,-0.095
8.020,0.009
8.025,-0.013
8.030,-0.108
8.035,-0.031
8.040,0.014
8.045,-0.095
8.050,-0.080
8.055,0.010
8.060,-0.067
8.065,-0.111
8.070,-0.006
8.075,-0.029
8.080,-0.124
8.085,-0.049
8.090,-0.006
8.095,-0.112
8.100,-0.092
8.105,0.000
8.110,-0.077
8.115,-0.120
8.120,-0.014
8.125,-0.037
8.130,-0.130
8.135,-0.052
8.140,-0.009
8.145,-0.114
8.150,-0.093
8.155,0.000
8.160,-0.079
8.165,-0.124
8.170,-0.017
8.175,-0.036
8.180,-0.127
8.185,-0.050
8.190,-0.006
8.195,-0.111
8.200,-0.088
8.205,0.006
8.210,-0.071
8.215,-0.113
8.220,-0.007
8.225,-0.029
8.230,-0.124
8.235,-0.045
8.240,0.000
8.245,-0.106
8.250,-0.084
8.255,0.009
8.260,-0.068
8.265,-0.110
8.270,-0.004
8.275,-0.022
8.280,-0.113
8.285,-0.036
8.290,0.010
8.295,-0.093
8.300,-0.070
8.305,0.025
8.310,-0.053
8.315,-0.099
8.320,0.006
8.325,-0.015
8.330,-0.105
8.335,-0.022
8.340,0.021
8.345,-0.085
8.350,-0.060
8.355,0.034
8.360,-0.043
8.365,-0.084
8.370,0.023
8.375,0.000
8.380,-0.091
8.385,-0.013
8.390,0.029
8.395,-0.074
8.400,-0.052
8.405,0.032
8.410,-0.054
8.415,-0.102
8.420,0.001
8.425,-0.024
8.430,-0.118
8.435,-0.041
8.440,-0.001
8.445,-0.112
8.450,-0.093
8.455,0.003
8.460,-0.070
8.465,-0.107
8.470,0.011
8.475,0.001
8.480,-0.089
8.485,-0.012
8.490,0.041
8.495,-0.042
8.500,-0.003
8.505,0.101
8.510,0.030
8.515,-0.013
8.520,0.092
8.525,0.068
8.530,-0.028
8.535,0.052
8.540,0.097
8.545,-0.008
8.550,0.014
8.555,0.105
8.560,0.027
8.565,-0.018
8.570,0.088
8.575,0.073
8.580,-0.017
8.585,0.012
8.590,-0.096
8.595,-0.483
8.600,-0.885
8.605,-1.236
8.610,-1.513
8.615,-1.321
8.620,-0.589
8.625,0.017
8.630,0.181
8.635,0.262
8.640,0.285
8.645,0.193
8.650,0.252
8.655,0.374
8.660,0.315
8.665,0.280
8.670,0.383
8.675,0.355
8.680,0.256
8.685,0.328
8.690,0.361
8.695,0.242
8.700,0.251
8.705,0.330
8.710,0.235
8.715,0.178
8.720,0.271
8.725,0.237
8.730,0.133
8.735,0.202
8.740,0.233
8.745,0.112
8.750,0.121
8.755,0.201
8.760,0.111
8.765,0.058
8.770,0.151
8.775,0.116
8.780,0.011
8.785,0.078
8.790,0.109
8.795,-0.009
8.800,0.001
8.805,0.077
8.810,-0.016
8.815,-0.074
8.820,0.015
8.825,-0.025
8.830,-0.137
8.835,-0.076
8.840,-0.051
8.845,-0.179
8.850,-0.178
8.855,-0.105
8.860,-0.204
8.865,-0.264
8.870,-0.172
8.875,-0.207
8.880,-0.307
8.885,-0.233
8.890,-0.193
8.895,-0.296
8.900,-0.267
8.905,-0.158
8.910,-0.207
8.915,-0.205
8.920,-0.041
8.925,0.000
8.930,-0.028
8.935,0.112
8.940,0.208
8.945,0.147
8.950,0.206
8.955,0.328
8.960,0.268
8.965,0.238
8.970,0.354
8.975,0.335
8.980,0.241
8.985,0.310
8.990,0.343
8.995,0.227
9.000,0.238
9.005,0.320
9.010,0.233
9.015,0.178
9.020,0.267
9.025,0.228
9.030,0.123
9.035,0.190
9.040,0.222
9.045,0.105
9.050,0.117
9.055,0.197
9.060,0.104
9.065,0.051
9.070,0.150
9.075,0.120
9.080,0.018
9.085,0.085
9.090,0.117
9.095,0.004
9.100,0.022
9.105,0.107
9.110,0.022
9.115,-0.026
9.120,0.074
9.125,0.044
9.130,-0.053
9.135,0.025
9.140,0.069
9.145,-0.041
9.150,-0.026
9.155,0.060
9.160,-0.022
9.165,-0.065
9.170,0.038
9.175,0.009
9.180,-0.085
9.185,-0.006
9.190,0.034
9.195,-0.075
9.200,-0.054
9.205,0.034
9.210,-0.048
9.215,-0.090
9.220,0.012
9.225,-0.015
9.230,-0.105
9.235,-0.025
9.240,0.012
9.245,-0.097
9.250,-0.073
9.255,0.016
9.260,-0.068
9.265,-0.112
9.270,-0.005
9.275,-0.027
9.280,-0.120
9.285,-0.040
9.290,-0.001
9.295,-0.110
9.300,-0.087
9.305,0.003
9.310,-0.078
9.315,-0.119
9.320,-0.013
9.325,-0.039
9.330,-0.132
9.335,-0.051
9.340,-0.008
9.345,-0.113
9.350,-0.089
9.355,0.001
9.360,-0.078
9.365,-0.121
9.370,-0.014
9.375,-0.037
9.380,-0.129
9.385,-0.049
9.390,-0.008
9.395,-0.114
9.400,-0.089
9.405,0.004
9.410,-0.076
9.415,-0.116
9.420,-0.009
9.425,-0.031
9.430,-0.121
9.435,-0.041
9.440,0.000
9.445,-0.105
9.450,-0.081
9.455,0.011
9.460,-0.067
9.465,-0.106
9.470,0.000
9.475,-0.023
9.480,-0.113
9.485,-0.032
9.490,0.010
9.495,-0.096
9.500,-0.069
9.505,0.024
9.510,-0.058
9.515,-0.097
9.520,0.010
9.525,-0.015
9.530,-0.105
9.535,-0.021
9.540,0.021
9.545,-0.084
9.550,-0.058
9.555,0.033
9.560,-0.045
9.565,-0.082
9.570,0.022
9.575,-0.004
9.580,-0.092
9.585,-0.009
9.590,0.034
9.595,-0.070
9.600,-0.046
9.605,0.044
9.610,-0.036
9.615,-0.075
9.620,0.033
9.625,0.010
9.630,-0.083
9.635,-0.012
9.640,0.019
9.645,-0.090
9.650,-0.067
9.655,0.023
9.660,-0.058
9.665,-0.103
9.670,-0.003
9.675,-0.032
9.680,-0.124
9.685,-0.038
9.690,0.010
9.695,-0.090
9.700,-0.057
9.705,0.044
9.710,-0.035
9.715,-0.076
9.720,0.041
9.725,0.038
9.730,-0.037
9.735,0.053
9.740,0.100
9.745,-0.005
9.750,0.019
9.755,0.108
9.760,0.027
9.765,-0.013
9.770,0.093
9.775,0.070
9.780,-0.020
9.785,0.059
9.790,0.098
9.795,-0.010
9.800,0.014
9.805,0.111
9.810,0.030
9.815,-0.069
9.820,-0.120
9.825,-0.431
9.830,-0.951
9.835,-1.302
9.840,-1.424
9.845,-1.255
9.850,-0.596
9.855,0.093
9.860,0.233
9.865,0.183
9.870,0.273
9.875,0.268
9.880,0.216
9.885,0.326
9.890,0.383
9.895,0.282
9.900,0.307
9.905,0.395
9.910,0.305
9.915,0.252
9.920,0.348
9.925,0.312
9.930,0.211
9.935,0.281
9.940,0.306
9.945,0.185
9.950,0.200
9.955,0.280
9.960,0.185
9.965,0.129
9.970,0.220
9.975,0.182
9.980,0.084
9.985,0.157
9.990,0.186
9.995,0.068
10.000,0.079
10.005,0.154
10.010,0.060
10.015,0.009
10.020,0.105
10.025,0.067
10.030,-0.039
10.035,0.028
10.040,0.058
10.045,-0.064
10.050,-0.057
10.055,0.017
10.060,-0.082
10.065,-0.142
10.070,-0.057
10.075,-0.104
10.080,-0.216
10.085,-0.155
10.090,-0.132
10.095,-0.253
10.100,-0.242
10.105,-0.163
10.110,-0.252
10.115,-0.298
10.120,-0.196
10.125,-0.220
10.130,-0.302
10.135,-0.204
10.140,-0.133
10.145,-0.193
10.150,-0.112
10.155,0.038
10.160,0.020
10.165,0.041
10.170,0.198
10.175,0.218
10.180,0.166
10.185,0.273
10.190,0.333
10.195,0.243
10.200,0.273
10.205,0.365
10.210,0.284
10.215,0.237
10.220,0.333
10.225,0.298
10.230,0.198
10.235,0.267
10.240,0.294
10.245,0.176
10.250,0.188
10.255,0.264
10.260,0.169
10.265,0.118
10.270,0.214
10.275,0.178
10.280,0.073
10.285,0.141
10.290,0.175
10.295,0.061
10.300,0.076
10.305,0.157
10.310,0.065
10.315,0.016
10.320,0.115
10.325,0.079
10.330,-0.021
10.335,0.054
10.340,0.089
10.345,-0.021
10.350,-0.003
10.355,0.080
10.360,-0.004
10.365,-0.046
10.370,0.056
10.375,0.028
10.380,-0.064
10.385,0.013
10.390,0.050
10.395,-0.059
10.400,-0.037
10.405,0.049
10.410,-0.035
10.415,-0.077
10.420,0.027
10.425,0.003
10.430,-0.089
10.435,-0.012
10.440,0.024
10.445,-0.088
10.450,-0.064
10.455,0.027
10.460,-0.055
10.465,-0.095
10.470,0.009
10.475,-0.022
10.480,-0.114
10.485,-0.033
10.490,0.006
10.495,-0.102
10.500,-0.080
10.505,0.006
10.510,-0.074
10.515,-0.111
10.520,-0.006
10.525,-0.036
10.530,-0.128
10.535,-0.047
10.540,-0.008
10.545,-0.113
10.550,-0.086
10.555,0.005
10.560,-0.077
10.565,-0.118
10.570,-0.014
10.575,-0.041
10.580,-0.131
10.585,-0.050
10.590,-0.011
10.595,-0.114
10.600,-0.086
10.605,0.003
10.610,-0.077
10.615,-0.117
10.620,-0.013
10.625,-0.038
10.630,-0.126
10.635,-0.043
10.640,-0.002
10.645,-0.108
10.650,-0.082
10.655,0.010
10.660,-0.070
10.665,-0.109
10.670,-0.004
10.675,-0.030
10.680,-0.119
10.685,-0.036
10.690,0.004
10.695,-0.102
10.700,-0.076
10.705,0.014
10.710,-0.065
10.715,-0.102
10.720,0.007
10.725,-0.017
10.730,-0.107
10.735,-0.025
10.740,0.015
10.745,-0.091
10.750,-0.064
10.755,0.029
10.760,-0.052
10.765,-0.092
10.770,0.014
10.775,-0.012
10.780,-0.101
10.785,-0.018
10.790,0.025
10.795,-0.078
10.800,-0.055
10.805,0.027
10.810,-0.064
10.815,-0.110
10.820,-0.008
10.825,-0.031
10.830,-0.118
10.835,-0.038
10.840,-0.007
10.845,-0.121
10.850,-0.097
10.855,-0.002
10.860,-0.076
10.865,-0.110
10.870,0.005
10.875,-0.007
10.880,-0.092
10.885,-0.011
10.890,0.038
10.895,-0.050
10.900,-0.007
10.905,0.098
10.910,0.022
10.915,-0.021
10.920,0.084
10.925,0.060
10.930,-0.030
10.935,0.051
10.940,0.095
10.945,-0.006
10.950,0.019
10.955,0.104
10.960,0.021
10.965,-0.020
10.970,0.085
10.975,0.066
10.980,-0.022
10.985,0.015
10.990,-0.079
10.995,-0.443
11.000,-0.825
11.005,-1.184
11.010,-1.491
11.015,-1.338
11.020,-0.642
11.025,-0.032
11.030,0.165
11.035,0.261
11.040,0.280
11.045,0.183
11.050,0.240
11.055,0.364
11.060,0.303
11.065,0.270
11.070,0.378
11.075,0.347
11.080,0.251
11.085,0.326
11.090,0.355
11.095,0.235
11.100,0.249
11.105,0.328
11.110,0.233
11.115,0.180
11.120,0.270
11.125,0.231
11.130,0.130
11.135,0.199
11.140,0.227
11.145,0.110
11.150,0.126
11.155,0.203
11.160,0.109
11.165,0.058
11.170,0.153
11.175,0.115
11.180,0.012
11.185,0.080
11.190,0.107
11.195,-0.013
11.200,0.000
11.205,0.077
11.210,-0.017
11.215,-0.068
11.220,0.023
11.225,-0.020
11.230,-0.130
11.235,-0.074
11.240,-0.058
11.245,-0.181
11.250,-0.172
11.255,-0.101
11.260,-0.203
11.265,-0.260
11.270,-0.170
11.275,-0.209
11.280,-0.305
11.285,-0.227
11.290,-0.192
11.295,-0.298
11.300,-0.266
11.305,-0.160
11.310,-0.207
11.315,-0.201
11.320,-0.038
11.325,0.001
11.330,-0.025
11.335,0.116
11.340,0.207
11.345,0.147
11.350,0.211
11.355,0.328
11.360,0.267
11.365,0.243
11.370,0.356
11.375,0.330
11.380,0.238
11.385,0.314
11.390,0.341
11.395,0.224
11.400,0.243
11.405,0.324
11.410,0.230
11.415,0.178
11.420,0.270
11.425,0.227
11.430,0.120
11.435,0.187
11.440,0.214
11.445,0.104
11.450,0.123
11.455,0.200
11.460,0.107
11.465,0.056
11.470,0.152
11.475,0.115
11.480,0.014
11.485,0.090
11.490,0.121
11.495,0.005
11.500,0.024
11.505,0.109
11.510,0.024
11.515,-0.020
11.520,0.077
11.525,0.043
11.530,-0.054
11.535,0.024
11.540,0.060
11.545,-0.047
11.550,-0.025
11.555,0.061
11.560,-0.021
11.565,-0.061
11.570,0.042
11.575,0.010
11.580,-0.083
11.585,-0.001
11.590,0.035
11.595,-0.077
11.600,-0.056
11.605,0.031
11.610,-0.055
11.615,-0.094
11.620,0.013
11.625,-0.015
11.630,-0.108
11.635,-0.028
11.640,0.010
11.645,-0.097
11.650,-0.071
11.655,0.013
11.660,-0.073
11.665,-0.113
11.670,-0.008
11.675,-0.037
11.680,-0.127
11.685,-0.044
11.690,-0.007
11.695,-0.115
11.700,-0.090
11.705,-0.001
11.710,-0.079
11.715,-0.113
11.720,-0.008
11.725,-0.041
11.730,-0.132
11.735,-0.047
11.740,-0.010
11.745,-0.118
11.750,-0.089
11.755,-0.001
11.760,-0.086
11.765,-0.124
11.770,-0.017
11.775,-0.044
11.780,-0.129
11.785,-0.045
11.790,-0.009
11.795,-0.116
11.800,-0.090
11.805,0.001
11.810,-0.079
11.815,-0.119
11.820,-0.012
11.825,-0.033
11.830,-0.123
11.835,-0.042
11.840,-0.001
11.845,-0.105
11.850,-0.075
11.855,0.015
11.860,-0.068
11.865,-0.106
11.870,-0.001
11.875,-0.026
11.880,-0.113
11.885,-0.031
11.890,0.002
11.895,-0.113
11.900,-0.094
11.905,-0.006
11.910,-0.086
11.915,-0.124
11.920,-0.024
11.925,-0.057
11.930,-0.147
11.935,-0.068
11.940,-0.035
11.945,-0.133
11.950,-0.098
11.955,-0.005
11.960,-0.075
11.965,-0.106
11.970,0.001
11.975,-0.021
11.980,-0.094
11.985,0.011
11.990,0.067
11.995,-0.027
12.000,-0.001
12.005,0.084
12.010,0.007
12.015,-0.028
12.020,0.077
12.025,0.049
12.030,-0.040
12.035,0.043
12.040,0.084
12.045,-0.024
12.050,-0.002
12.055,0.088
12.060,0.012
12.065,-0.023
12.070,0.078
12.075,-0.002
12.080,-0.240
12.085,-0.441
12.090,-0.828
12.095,-1.369
12.100,-1.518
12.105,-1.164
12.110,-0.610
12.115,-0.045
12.120,0.289
12.125,0.264
12.130,0.160
12.135,0.249
12.140,0.323
12.145,0.248
12.150,0.290
12.155,0.385
12.160,0.304
12.165,0.264
12.170,0.363
12.175,0.327
12.180,0.231
12.185,0.302
12.190,0.323
12.195,0.203
12.200,0.218
12.205,0.296
12.210,0.201
12.215,0.149
12.220,0.244
12.225,0.207
12.230,0.107
12.235,0.177
12.240,0.201
12.245,0.085
12.250,0.103
12.255,0.178
12.260,0.082
12.265,0.031
12.270,0.125
12.275,0.087
12.280,-0.012
12.285,0.058
12.290,0.079
12.295,-0.041
12.300,-0.027
12.305,0.047
12.310,-0.052
12.315,-0.108
12.320,-0.016
12.325,-0.062
12.330,-0.175
12.335,-0.116
12.340,-0.100
12.345,-0.229
12.350,-0.223
12.355,-0.149
12.360,-0.239
12.365,-0.285
12.370,-0.187
12.375,-0.217
12.380,-0.310
12.385,-0.228
12.390,-0.178
12.395,-0.259
12.400,-0.193
12.405,-0.052
12.410,-0.074
12.415,-0.047
12.420,0.123
12.425,0.153
12.430,0.117
12.435,0.244
12.440,0.315
12.445,0.234
12.450,0.277
12.455,0.373
12.460,0.294
12.465,0.255
12.470,0.357
12.475,0.323
12.480,0.223
12.485,0.295
12.490,0.321
12.495,0.201
12.500,0.215
12.505,0.290
12.510,0.194
12.515,0.144
12.520,0.240
12.525,0.202
12.530,0.099
12.535,0.167
12.540,0.190
12.545,0.072
12.550,0.090
12.555,0.169
12.560,0.076
12.565,0.030
12.570,0.128
12.575,0.092
12.580,-0.006
12.585,0.068
12.590,0.102
12.595,-0.008
12.600,0.013
12.605,0.098
12.610,0.010
12.615,-0.035
12.620,0.066
12.625,0.035
12.630,-0.056
12.635,0.024
12.640,0.062
12.645,-0.048
12.650,-0.031
12.655,0.052
12.660,-0.029
12.665,-0.068
12.670,0.034
12.675,0.002
12.680,-0.093
12.685,-0.014
12.690,0.022
12.695,-0.086
12.700,-0.059
12.705,0.028
12.710,-0.058
12.715,-0.096
12.720,0.011
12.725,-0.018
12.730,-0.109
12.735,-0.028
12.740,0.006
12.745,-0.103
12.750,-0.076
12.755,0.012
12.760,-0.074
12.765,-0.115
12.770,-0.009
12.775,-0.038
12.780,-0.127
12.785,-0.043
12.790,-0.006
12.795,-0.115
12.800,-0.088
12.805,0.001
12.810,-0.082
12.815,-0.121
12.820,-0.014
12.825,-0.041
12.830,-0.131
12.835,-0.050
12.840,-0.010
12.845,-0.116
12.850,-0.089
12.855,0.002
12.860,-0.081
12.865,-0.122
12.870,-0.016
12.875,-0.040
12.880,-0.127
12.885,-0.044
12.890,-0.005
12.895,-0.110
12.900,-0.085
12.905,0.003
12.910,-0.078
12.915,-0.114
12.920,-0.007
12.925,-0.033
12.930,-0.121
12.935,-0.038
12.940,0.000
12.945,-0.106
12.950,-0.078
12.955,0.014
12.960,-0.065
12.965,-0.105
12.970,-0.007
12.975,-0.043
12.980,-0.138
12.985,-0.059
12.990,-0.019
12.995,-0.125
13.000,-0.102
13.005,-0.016
13.010,-0.102
13.015,-0.145
13.020,-0.035
13.025,-0.054
13.030,-0.139
13.035,-0.049
13.040,0.003
13.045,-0.098
13.050,-0.076
13.055,0.021
13.060,-0.038
13.065,-0.060
13.070,0.058
13.075,0.044
13.080,-0.040
13.085,0.043
13.090,0.082
13.095,-0.023
13.100,0.004
13.105,0.093
13.110,0.011
13.115,-0.028
13.120,0.078
13.125,0.051
13.130,-0.040
13.135,0.038
13.140,0.078
13.145,-0.017
13.150,0.004
13.155,0.021
13.160,-0.232
13.165,-0.582
13.170,-0.922
13.175,-1.362
13.180,-1.567
13.185,-1.150
13.190,-0.440
13.195,0.020
13.200,0.223
13.205,0.302
13.210,0.209
13.215,0.185
13.220,0.329
13.225,0.330
13.230,0.252
13.235,0.339
13.240,0.379
13.245,0.271
13.250,0.291
13.255,0.368
13.260,0.273
13.265,0.224
13.270,0.322
13.275,0.285
13.280,0.181
13.285,0.247
13.290,0.270
13.295,0.152
13.300,0.168
13.305,0.247
13.310,0.153
13.315,0.102
13.320,0.199
13.325,0.160
13.330,0.054
13.335,0.123
13.340,0.151
13.345,0.032
13.350,0.048
13.355,0.128
13.360,0.032
13.365,-0.021
13.370,0.074
13.375,0.036
13.380,-0.069
13.385,-0.004
13.390,0.017
13.395,-0.108
13.400,-0.102
13.405,-0.036
13.410,-0.139
13.415,-0.198
13.420,-0.113
13.425,-0.159
13.430,-0.267
13.435,-0.201
13.440,-0.174
13.445,-0.292
13.450,-0.274
13.455,-0.187
13.460,-0.267
13.465,-0.300
13.470,-0.180
13.475,-0.180
13.480,-0.226
13.485,-0.088
13.490,0.011
13.495,-0.032
13.500,0.056
13.505,0.202
13.510,0.172
13.515,0.175
13.520,0.314
13.525,0.310
13.530,0.236
13.535,0.327
13.540,0.368
13.545,0.259
13.550,0.278
13.555,0.359
13.560,0.268
13.565,0.218
13.570,0.313
13.575,0.275
13.580,0.171
13.585,0.239
13.590,0.268
13.595,0.150
13.600,0.163
13.605,0.238
13.610,0.141
13.615,0.089
13.620,0.187
13.625,0.152
13.630,0.052
13.635,0.123
13.640,0.150
13.645,0.035
13.650,0.053
13.655,0.133
13.660,0.044
13.665,-0.001
13.670,0.098
13.675,0.063
13.680,-0.034
13.685,0.045
13.690,0.081
13.695,-0.031
13.700,-0.014
13.705,0.071
13.710,-0.010
13.715,-0.051
13.720,0.051
13.725,0.021
13.730,-0.070
13.735,0.009
13.740,0.042
13.745,-0.069
13.750,-0.045
13.755,0.045
13.760,-0.039
13.765,-0.080
13.770,0.027
13.775,-0.005
13.780,-0.101
13.785,-0.021
13.790,0.015
13.795,-0.092
13.800,-0.066
13.805,0.021
13.810,-0.062
13.815,-0.105
13.820,-0.001
13.825,-0.027
13.830,-0.120
13.835,-0.041
13.840,-0.002
13.845,-0.109
13.850,-0.081
13.855,0.008
13.860,-0.078
13.865,-0.118
13.870,-0.013
13.875,-0.039
13.880,-0.128
13.885,-0.047
13.890,-0.008
13.895,-0.113
13.900,-0.090
13.905,-0.002
13.910,-0.083
13.915,-0.122
13.920,-0.015
13.925,-0.039
13.930,-0.129
13.935,-0.049
13.940,-0.009
13.945,-0.113
13.950,-0.085
13.955,0.003
13.960,-0.080
13.965,-0.118
13.970,-0.010
13.975,-0.038
13.980,-0.129
13.985,-0.046
13.990,-0.004
13.995,-0.107
14.000,-0.080
14.005,0.011
14.010,-0.069
14.015,-0.110
14.020,-0.006
14.025,-0.031
14.030,-0.116
14.035,-0.031
14.040,0.009
14.045,-0.098
14.050,-0.070
14.055,0.022
14.060,-0.057
14.065,-0.096
14.070,0.011
14.075,-0.014
14.080,-0.105
14.085,-0.024
14.090,0.018
14.095,-0.084
14.100,-0.059
14.105,0.030
14.110,-0.050
14.115,-0.087
14.120,0.022
14.125,0.000
14.130,-0.092
14.135,-0.014
14.140,0.026
14.145,-0.078
14.150,-0.051
14.155,0.041
14.160,-0.039
14.165,-0.077
14.170,0.032
14.175,0.008
14.180,-0.084
14.185,-0.005
14.190,0.034
14.195,-0.067
14.200,-0.039
14.205,0.048
14.210,-0.032
14.215,-0.067
14.220,0.040
14.225,0.013
14.230,-0.077
14.235,-0.001
14.240,0.028
14.245,-0.086
14.250,-0.066
14.255,0.025
14.260,-0.054
14.265,-0.098
14.270,0.005
14.275,-0.024
14.280,-0.118
14.285,-0.035
14.290,0.009
14.295,-0.092
14.300,-0.058
14.305,0.043
14.310,-0.031
14.315,-0.069
14.320,0.042
14.325,0.031
14.330,-0.041
14.335,0.056
14.340,0.105
14.345,-0.002
14.350,0.022
14.355,0.114
14.360,0.031
14.365,-0.011
14.370,0.095
14.375,0.069
14.380,-0.022
14.385,0.060
14.390,0.102
14.395,-0.004
14.400,0.020
14.405,0.114
14.410,0.036
14.415,-0.040
14.420,-0.058
14.425,-0.325
14.430,-0.802
14.435,-1.180
14.440,-1.433
14.445,-1.425
14.450,-0.849
14.455,-0.087
14.460,0.193
14.465,0.192
14.470,0.277
14.475,0.264
14.480,0.209
14.485,0.327
14.490,0.389
14.495,0.293
14.500,0.321
14.505,0.405
14.510,0.315
14.515,0.268
14.520,0.363
14.525,0.324
14.530,0.222
14.535,0.291
14.540,0.316
14.545,0.197
14.550,0.211
14.555,0.287
14.560,0.191
14.565,0.140
14.570,0.234
14.575,0.193
14.580,0.090
14.585,0.162
14.590,0.192
14.595,0.072
14.600,0.082
14.605,0.160
14.610,0.068
14.615,0.016
14.620,0.111
14.625,0.073
14.630,-0.032
14.635,0.038
14.640,0.063
14.645,-0.059
14.650,-0.048
14.655,0.025
14.660,-0.075
14.665,-0.135
14.670,-0.050
14.675,-0.095
14.680,-0.205
14.685,-0.145
14.690,-0.125
14.695,-0.247
14.700,-0.236
14.705,-0.161
14.710,-0.249
14.715,-0.293
14.720,-0.194
14.725,-0.223
14.730,-0.309
14.735,-0.214
14.740,-0.149
14.745,-0.215
14.750,-0.138
14.755,0.011
14.760,-0.006
14.765,0.019
14.770,0.181
14.775,0.201
14.780,0.149
14.785,0.259
14.790,0.321
14.795,0.235
14.800,0.271
14.805,0.364
14.810,0.281
14.815,0.234
14.820,0.329
14.825,0.294
14.830,0.196
14.835,0.266
14.840,0.295
14.845,0.177
14.850,0.186
14.855,0.261
14.860,0.169
14.865,0.122
14.870,0.219
14.875,0.181
14.880,0.075
14.885,0.139
14.890,0.166
14.895,0.054
14.900,0.074
14.905,0.155
14.910,0.066
14.915,0.020
14.920,0.118
14.925,0.085
14.930,-0.015
14.935,0.057
14.940,0.092
14.945,-0.019
14.950,-0.001
14.955,0.085
14.960,-0.002
14.965,-0.046
14.970,0.057
14.975,0.027
14.980,-0.067
14.985,0.013
14.990,0.048
14.995,-0.059
15.000,-0.031
15.005,0.057
15.010,-0.031
15.015,-0.074
15.020,0.028
15.025,-0.002
15.030,-0.091
15.035,-0.010
15.040,0.025
15.045,-0.086
15.050,-0.061
15.055,0.030
15.060,-0.054
15.065,-0.096
15.070,0.007
15.075,-0.025
15.080,-0.120
15.085,-0.041
15.090,-0.003
15.095,-0.108
15.100,-0.081
15.105,0.010
15.110,-0.070
15.115,-0.111
15.120,-0.010
15.125,-0.038
15.130,-0.128
15.135,-0.044
15.140,-0.006
15.145,-0.113
15.150,-0.086
15.155,0.000
15.160,-0.082
15.165,-0.122
15.170,-0.014
15.175,-0.039
15.180,-0.134
15.185,-0.051
15.190,-0.009
15.195,-0.115
15.200,-0.085
15.205,0.005
15.210,-0.077
15.215,-0.117
15.220,-0.013
15.225,-0.038
15.230,-0.127
15.235,-0.047
15.240,-0.009
15.245,-0.113
15.250,-0.085
15.255,0.007
15.260,-0.072
15.265,-0.112
15.270,-0.008
15.275,-0.032
15.280,-0.116
15.285,-0.034
15.290,0.003
15.295,-0.101
15.300,-0.074
15.305,0.016
15.310,-0.065
15.315,-0.102
15.320,0.003
15.325,-0.025
15.330,-0.112
15.335,-0.028
15.340,0.013
15.345,-0.089
15.350,-0.060
15.355,0.029
15.360,-0.056
15.365,-0.094
15.370,0.013
15.375,-0.011
15.380,-0.099
15.385,-0.018
15.390,0.020
15.395,-0.083
15.400,-0.054
15.405,0.036
15.410,-0.044
15.415,-0.081
15.420,0.025
15.425,-0.002
15.430,-0.088
15.435,-0.004
15.440,0.037
15.445,-0.071
15.450,-0.046
15.455,0.044
15.460,-0.037
15.465,-0.073
15.470,0.038
15.475,0.013
15.480,-0.079
15.485,0.002
15.490,0.034
15.495,-0.083
15.500,-0.064
15.505,0.022
15.510,-0.060
15.515,-0.097
15.520,0.008
15.525,-0.025
15.530,-0.119
15.535,-0.037
15.540,0.003
15.545,-0.099
15.550,-0.066
15.555,0.037
15.560,-0.034
15.565,-0.071
15.570,0.033
15.575,0.015
15.580,-0.055
15.585,0.044
15.590,0.094
15.595,-0.007
15.600,0.022
15.605,0.114
15.610,0.030
15.615,-0.009
15.620,0.098
15.625,0.070
15.630,-0.020
15.635,0.064
15.640,0.105
15.645,-0.003
15.650,0.016
15.655,0.102
15.660,0.029
15.665,-0.002
15.670,0.062
15.675,-0.098
15.680,-0.447
15.685,-0.781
15.690,-1.203
15.695,-1.544
15.700,-1.330
15.705,-0.643
15.710,-0.074
15.715,0.178
15.720,0.300
15.725,0.257
15.730,0.176
15.735,0.290
15.740,0.361
15.745,0.274
15.750,0.312
15.755,0.403
15.760,0.317
15.765,0.272
15.770,0.368
15.775,0.329
15.780,0.227
15.785,0.297
15.790,0.324
15.795,0.206
15.800,0.219
15.805,0.295
15.810,0.197
15.815,0.145
15.820,0.241
15.825,0.200
15.830,0.097
15.835,0.166
15.840,0.192
15.845,0.078
15.850,0.095
15.855,0.170
15.860,0.072
15.865,0.026
15.870,0.124
15.875,0.081
15.880,-0.026
15.885,0.042
15.890,0.069
15.895,-0.049
15.900,-0.039
15.905,0.031
15.910,-0.068
15.915,-0.121
15.920,-0.033
15.925,-0.082
15.930,-0.194
15.935,-0.129
15.940,-0.106
15.945,-0.228
15.950,-0.217
15.955,-0.145
15.960,-0.238
15.965,-0.287
15.970,-0.193
15.975,-0.224
15.980,-0.308
15.985,-0.217
15.990,-0.165
15.995,-0.246
16.000,-0.179
16.005,-0.037
16.010,-0.058
16.015,-0.035
16.020,0.131
16.025,0.161
16.030,0.121
16.035,0.241
16.040,0.308
16.045,0.223
16.050,0.261
16.055,0.360
16.060,0.283
16.065,0.241
16.070,0.339
16.075,0.304
16.080,0.205
16.085,0.274
16.090,0.300
16.095,0.182
16.100,0.199
16.105,0.279
16.110,0.188
16.115,0.136
16.120,0.221
16.125,0.179
16.130,0.083
16.135,0.157
16.140,0.181
16.145,0.061
16.150,0.081
16.155,0.164
16.160,0.074
16.165,0.027
16.170,0.125
16.175,0.084
16.180,-0.014
16.185,0.067
16.190,0.101
16.195,-0.012
16.200,0.010
16.205,0.094
16.210,0.005
16.215,-0.042
16.220,0.061
16.225,0.033
16.230,-0.058
16.235,0.019
16.240,0.051
16.245,-0.055
16.250,-0.026
16.255,0.063
16.260,-0.023
16.265,-0.068
16.270,0.030
16.275,-0.001
16.280,-0.091
16.285,-0.013
16.290,0.023
16.295,-0.083
16.300,-0.058
16.305,0.030
16.310,-0.053
16.315,-0.094
16.320,0.010
16.325,-0.017
16.330,-0.111
16.335,-0.036
16.340,0.000
16.345,-0.105
16.350,-0.080
16.355,0.010
16.360,-0.070
16.365,-0.112
16.370,-0.009
16.375,-0.036
16.380,-0.129
16.385,-0.048
16.390,-0.009
16.395,-0.116
16.400,-0.086
16.405,0.008
16.410,-0.076
16.415,-0.118
16.420,-0.011
16.425,-0.039
16.430,-0.130
16.435,-0.050
16.440,-0.013
16.445,-0.117
16.450,-0.086
16.455,0.005
16.460,-0.078
16.465,-0.121
16.470,-0.016
16.475,-0.042
16.480,-0.128
16.485,-0.043
16.490,-0.006
16.495,-0.114
16.500,-0.084
16.505,0.006
16.510,-0.078
16.515,-0.111
16.520,-0.001
16.525,-0.026
16.530,-0.114
16.535,-0.030
16.540,0.004
16.545,-0.105
16.550,-0.075
16.555,0.017
16.560,-0.065
16.565,-0.103
16.570,0.004
16.575,-0.025
16.580,-0.114
16.585,-0.029
16.590,0.012
16.595,-0.091
16.600,-0.063
16.605,0.027
16.610,-0.055
16.615,-0.091
16.620,0.015
16.625,-0.014
16.630,-0.104
16.635,-0.025
16.640,0.003
16.645,-0.114
16.650,-0.088
16.655,0.003
16.660,-0.080
16.665,-0.117
16.670,-0.014
16.675,-0.047
16.680,-0.137
16.685,-0.054
16.690,-0.017
16.695,-0.120
16.700,-0.077
16.705,0.030
16.710,-0.048
16.715,-0.091
16.720,0.028
16.725,0.023
16.730,-0.054
16.735,0.037
16.740,0.082
16.745,-0.021
16.750,0.011
16.755,0.100
16.760,0.017
16.765,-0.019
16.770,0.088
16.775,0.061
16.780,-0.031
16.785,0.049
16.790,0.088
16.795,-0.020
16.800,0.008
16.805,0.103
16.810,0.024
16.815,-0.043
16.820,-0.048
16.825,-0.298
16.830,-0.749
16.835,-1.127
16.840,-1.416
16.845,-1.460
16.850,-0.923
16.855,-0.145
16.860,0.183
16.865,0.209
16.870,0.294
16.875,0.262
16.880,0.193
16.885,0.308
16.890,0.366
16.895,0.271
16.900,0.305
16.905,0.393
16.910,0.306
16.915,0.257
16.920,0.347
16.925,0.308
16.930,0.207
16.935,0.277
16.940,0.305
16.945,0.186
16.950,0.201
16.955,0.283
16.960,0.191
16.965,0.136
16.970,0.226
16.975,0.186
16.980,0.085
16.985,0.155
16.990,0.179
16.995,0.066
17.000,0.088
17.005,0.161
17.010,0.060
17.015,0.011
17.020,0.107
17.025,0.070
17.030,-0.027
17.035,0.038
17.040,0.057
17.045,-0.065
17.050,-0.057
17.055,0.014
17.060,-0.085
17.065,-0.143
17.070,-0.059
17.075,-0.107
17.080,-0.218
17.085,-0.158
17.090,-0.136
17.095,-0.255
17.100,-0.238
17.105,-0.161
17.110,-0.258
17.115,-0.306
17.120,-0.201
17.125,-0.227
17.130,-0.309
17.135,-0.207
17.140,-0.135
17.145,-0.201
17.150,-0.123
17.155,0.034
17.160,0.019
17.165,0.037
17.170,0.192
17.175,0.215
17.180,0.178
17.185,0.293
17.190,0.346
17.195,0.256
17.200,0.295
17.205,0.384
17.210,0.295
17.215,0.251
17.220,0.351
17.225,0.312
17.230,0.210
17.235,0.280
17.240,0.306
17.245,0.185
17.250,0.198
17.255,0.277
17.260,0.182
17.265,0.127
17.270,0.219
17.275,0.181
17.280,0.085
17.285,0.157
17.290,0.180
17.295,0.063
17.300,0.083
17.305,0.166
17.310,0.071
17.315,0.018
17.320,0.117
17.325,0.086
17.330,-0.008
17.335,0.068
17.340,0.096
17.345,-0.016
17.350,0.010
17.355,0.093
17.360,0.003
17.365,-0.039
17.370,0.065
17.375,0.031
17.380,-0.065
17.385,0.014
17.390,0.047
17.395,-0.062
17.400,-0.031
17.405,0.057
17.410,-0.031
17.415,-0.074
17.420,0.030
17.425,0.000
17.430,-0.093
17.435,-0.012
17.440,0.022
17.445,-0.089
17.450,-0.067
17.455,0.023
17.460,-0.059
17.465,-0.099
17.470,0.006
17.475,-0.021
17.480,-0.113
17.485,-0.036
17.490,-0.004
17.495,-0.113
17.500,-0.083
17.505,0.011
17.510,-0.069
17.515,-0.110
17.520,-0.008
17.525,-0.038
17.530,-0.130
17.535,-0.049
17.540,-0.011
17.545,-0.117
17.550,-0.090
17.555,-0.002
17.560,-0.084
17.565,-0.123
17.570,-0.018
17.575,-0.043
17.580,-0.131
17.585,-0.048
17.590,-0.009
17.595,-0.116
17.600,-0.090
17.605,0.001
17.610,-0.079
17.615,-0.116
17.620,-0.010
17.625,-0.037
17.630,-0.130
17.635,-0.050
17.640,-0.010
17.645,-0.112
17.650,-0.085
17.655,0.006
17.660,-0.074
17.665,-0.111
17.670,-0.006
17.675,-0.034
17.680,-0.121
17.685,-0.036
17.690,0.002
17.695,-0.102
17.700,-0.074
17.705,0.014
17.710,-0.068
17.715,-0.105
17.720,0.003
17.725,-0.022
17.730,-0.110
17.735,-0.034
17.740,-0.008
17.745,-0.123
17.750,-0.101
17.755,-0.012
17.760,-0.092
17.765,-0.130
17.770,-0.026
17.775,-0.057
17.780,-0.146
17.785,-0.060
17.790,-0.021
17.795,-0.122
17.800,-0.082
17.805,0.020
17.810,-0.058
17.815,-0.097
17.820,0.018
17.825,0.011
17.830,-0.060
17.835,0.036
17.840,0.083
17.845,-0.019
17.850,0.008
17.855,0.095
17.860,0.013
17.865,-0.022
17.870,0.084
17.875,0.053
17.880,-0.037
17.885,0.047
17.890,0.085
17.895,-0.022
17.900,0.004
17.905,0.097
17.910,0.021
17.915,-0.041
17.920,-0.033
17.925,-0.267
17.930,-0.710
17.935,-1.088
17.940,-1.401
17.945,-1.488
17.950,-0.990
17.955,-0.207
17.960,0.165
17.965,0.211
17.970,0.292
17.975,0.261
17.980,0.191
17.985,0.310
17.990,0.370
17.995,0.272
18.000,0.301
18.005,0.388
18.010,0.300
18.015,0.254
18.020,0.349
18.025,0.309
18.030,0.207
18.035,0.277
18.040,0.302
18.045,0.184
18.050,0.200
18.055,0.277
18.060,0.183
18.065,0.133
18.070,0.226
18.075,0.189
18.080,0.090
18.085,0.158
18.090,0.182
18.095,0.064
18.100,0.080
18.105,0.159
18.110,0.064
18.115,0.014
18.120,0.110
18.125,0.071
18.130,-0.032
18.135,0.039
18.140,0.063
18.145,-0.062
18.150,-0.054
18.155,0.020
18.160,-0.078
18.165,-0.135
18.170,-0.051
18.175,-0.098
18.180,-0.208
18.185,-0.148
18.190,-0.133
18.195,-0.258
18.200,-0.246
18.205,-0.167
18.210,-0.256
18.215,-0.301
18.220,-0.201
18.225,-0.227
18.230,-0.309
18.235,-0.212
18.240,-0.141
18.245,-0.203
18.250,-0.123
18.255,0.032
18.260,0.016
18.265,0.038
18.270,0.200
18.275,0.222
18.280,0.173
18.285,0.284
18.290,0.342
18.295,0.251
18.300,0.285
18.305,0.376
18.310,0.293
18.315,0.249
18.320,0.347
18.325,0.312
18.330,0.212
18.335,0.278
18.340,0.302
18.345,0.185
18.350,0.197
18.355,0.270
18.360,0.176
18.365,0.128
18.370,0.222
18.375,0.181
18.380,0.080
18.385,0.151
18.390,0.179
18.395,0.061
18.400,0.076
18.405,0.156
18.410,0.065
18.415,0.018
18.420,0.115
18.425,0.080
18.430,-0.015
18.435,0.063
18.440,0.095
18.445,-0.019
18.450,0.002
18.455,0.088
18.460,-0.001
18.465,-0.045
18.470,0.058
18.475,0.028
18.480,-0.063
18.485,0.016
18.490,0.051
18.495,-0.058
18.500,-0.036
18.505,0.051
18.510,-0.032
18.515,-0.074
18.520,0.028
18.525,0.000
18.530,-0.093
18.535,-0.016
18.540,0.020
18.545,-0.088
18.550,-0.064
18.555,0.024
18.560,-0.058
18.565,-0.099
18.570,0.003
18.575,-0.024
18.580,-0.115
18.585,-0.037
18.590,0.002
18.595,-0.104
18.600,-0.078
18.605,0.009
18.610,-0.073
18.615,-0.113
18.620,-0.011
18.625,-0.038
18.630,-0.128
18.635,-0.047
18.640,-0.010
18.645,-0.118
18.650,-0.089
18.655,0.002
18.660,-0.081
18.665,-0.123
18.670,-0.018
18.675,-0.043
18.680,-0.130
18.685,-0.048
18.690,-0.007
18.695,-0.112
18.700,-0.088
18.705,0.002
18.710,-0.078
18.715,-0.121
18.720,-0.016
18.725,-0.041
18.730,-0.130
18.735,-0.047
18.740,-0.006
18.745,-0.110
18.750,-0.084
18.755,0.005
18.760,-0.075
18.765,-0.113
18.770,-0.007
18.775,-0.030
18.780,-0.119
18.785,-0.039
18.790,0.001
18.795,-0.103
18.800,-0.078
18.805,0.014
18.810,-0.062
18.815,-0.102
18.820,0.003
18.825,-0.020
18.830,-0.111
18.835,-0.031
18.840,0.012
18.845,-0.090
18.850,-0.062
18.855,0.027
18.860,-0.055
18.865,-0.093
18.870,0.014
18.875,-0.011
18.880,-0.098
18.885,-0.017
18.890,0.023
18.895,-0.079
18.900,-0.053
18.905,0.037
18.910,-0.041
18.915,-0.080
18.920,0.024
18.925,0.000
18.930,-0.089
18.935,-0.007
18.940,0.036
18.945,-0.078
18.950,-0.065
18.955,0.020
18.960,-0.064
18.965,-0.104
18.970,0.001
18.975,-0.028
18.980,-0.121
18.985,-0.043
18.990,-0.003
18.995,-0.106
19.000,-0.075
19.005,0.020
19.010,-0.053
19.015,-0.083
19.020,0.027
19.025,-0.004
19.030,-0.088
19.035,0.014
19.040,0.076
19.045,-0.014
19.050,0.020
19.055,0.112
19.060,0.029
19.065,-0.016
19.070,0.087
19.075,0.064
19.080,-0.026
19.085,0.054
19.090,0.097
19.095,-0.007
19.100,0.019
19.105,0.109
19.110,0.027
19.115,-0.012
19.120,0.094
19.125,0.036
19.130,-0.175
19.135,-0.336
19.140,-0.680
19.145,-1.242
19.150,-1.522
19.155,-1.336
19.160,-0.866
19.165,-0.219
19.170,0.260
19.175,0.277
19.180,0.164
19.185,0.258
19.190,0.330
19.195,0.262
19.200,0.312
19.205,0.412
19.210,0.329
19.215,0.284
19.220,0.384
19.225,0.350
19.230,0.250
19.235,0.320
19.240,0.346
19.245,0.225
19.250,0.235
19.255,0.311
19.260,0.221
19.265,0.169
19.270,0.261
19.275,0.223
19.280,0.119
19.285,0.188
19.290,0.216
19.295,0.097
19.300,0.110
19.305,0.187
19.310,0.095
19.315,0.045
19.320,0.139
19.325,0.103
19.330,-0.001
19.335,0.064
19.340,0.092
19.345,-0.025
19.350,-0.016
19.355,0.057
19.360,-0.041
19.365,-0.098
19.370,-0.009
19.375,-0.051
19.380,-0.161
19.385,-0.103
19.390,-0.086
19.395,-0.211
19.400,-0.205
19.405,-0.134
19.410,-0.228
19.415,-0.280
19.420,-0.186
19.425,-0.215
19.430,-0.308
19.435,-0.228
19.440,-0.185
19.445,-0.280
19.450,-0.230
19.455,-0.099
19.460,-0.125
19.465,-0.100
19.470,0.067
19.475,0.098
19.480,0.063
19.485,0.192
19.490,0.271
19.495,0.198
19.500,0.246
19.505,0.351
19.510,0.279
19.515,0.242
19.520,0.348
19.525,0.319
19.530,0.219
19.535,0.289
19.540,0.320
19.545,0.202
19.550,0.214
19.555,0.293
19.560,0.200
19.565,0.147
19.570,0.238
19.575,0.202
19.580,0.100
19.585,0.168
19.590,0.200
19.595,0.085
19.600,0.096
19.605,0.172
19.610,0.083
19.615,0.033
19.620,0.130
19.625,0.099
19.630,0.001
19.635,0.075
19.640,0.111
19.645,0.001
19.650,0.017
19.655,0.098
19.660,0.013
19.665,-0.033
19.670,0.066
19.675,0.038
19.680,-0.056
19.685,0.020
19.690,0.058
19.695,-0.050
19.700,-0.028
19.705,0.059
19.710,-0.023
19.715,-0.067
19.720,0.034
19.725,0.007
19.730,-0.086
19.735,-0.009
19.740,0.029
19.745,-0.081
19.750,-0.060
19.755,0.031
19.760,-0.049
19.765,-0.092
19.770,0.009
19.775,-0.020
19.780,-0.113
19.785,-0.034
19.790,0.007
19.795,-0.100
19.800,-0.076
19.805,0.013
19.810,-0.072
19.815,-0.116
19.820,-0.010
19.825,-0.035
19.830,-0.127
19.835,-0.047
19.840,-0.004
19.845,-0.111
19.850,-0.088
19.855,0.003
19.860,-0.079
19.865,-0.120
19.870,-0.017
19.875,-0.044
19.880,-0.133
19.885,-0.051
19.890,-0.010
19.895,-0.118
19.900,-0.093
19.905,0.002
19.910,-0.075
19.915,-0.117
19.920,-0.012
19.925,-0.037
19.930,-0.129
19.935,-0.051
19.940,-0.007
19.945,-0.111
19.950,-0.088
19.955,0.004
19.960,-0.075
19.965,-0.117
19.970,-0.009
19.975,-0.030
19.980,-0.121
19.985,-0.041
19.990,0.002
19.995,-0.103
20.000,-0.078
20.005,0.015
20.010,-0.063
20.015,-0.106
20.020,-0.002
20.025,-0.024
20.030,-0.113
20.035,-0.032
20.040,0.011
20.045,-0.093
20.050,-0.068
20.055,0.024
20.060,-0.056
20.065,-0.096
20.070,0.011
20.075,-0.011
20.080,-0.101
20.085,-0.021
20.090,0.019
20.095,-0.085
20.100,-0.058
20.105,0.033
20.110,-0.047
20.115,-0.086
20.120,0.021
20.125,-0.001
20.130,-0.088
20.135,-0.005
20.140,0.036
20.145,-0.074
20.150,-0.062
20.155,0.017
20.160,-0.067
20.165,-0.109
20.170,-0.003
20.175,-0.027
20.180,-0.122
20.185,-0.047
20.190,-0.010
20.195,-0.114
20.200,-0.085
20.205,0.013
20.210,-0.062
20.215,-0.100
20.220,0.017
20.225,-0.001
20.230,-0.094
20.235,-0.001
20.240,0.065
20.245,-0.023
20.250,0.013
20.255,0.110
20.260,0.027
20.265,-0.015
20.270,0.091
20.275,0.067
20.280,-0.025
20.285,0.054
20.290,0.098
20.295,-0.007
20.300,0.015
20.305,0.106
20.310,0.025
20.315,-0.017
20.320,0.095
20.325,0.075
20.330,-0.056
20.335,-0.106
20.340,-0.316
20.345,-0.817
20.350,-1.246
20.355,-1.422
20.360,-1.357
20.365,-0.824
20.370,-0.053
20.375,0.254
20.380,0.186
20.385,0.240
20.390,0.294
20.395,0.224
20.400,0.281
20.405,0.391
20.410,0.321
20.415,0.278
20.420,0.379
20.425,0.350
20.430,0.249
20.435,0.319
20.440,0.350
20.445,0.227
20.450,0.236
20.455,0.319
20.460,0.227
20.465,0.171
20.470,0.265
20.475,0.229
20.480,0.123
20.485,0.188
20.490,0.217
20.495,0.101
20.500,0.112
20.505,0.192
20.510,0.102
20.515,0.049
20.520,0.143
20.525,0.109
20.530,0.006
20.535,0.072
20.540,0.100
20.545,-0.016
20.550,-0.008
20.555,0.068
20.560,-0.025
20.565,-0.081
20.570,0.008
20.575,-0.032
20.580,-0.143
20.585,-0.088
20.590,-0.068
20.595,-0.190
20.600,-0.185
20.605,-0.111
20.610,-0.205
20.615,-0.265
20.620,-0.174
20.625,-0.204
20.630,-0.302
20.635,-0.227
20.640,-0.184
20.645,-0.285
20.650,-0.253
20.655,-0.137
20.660,-0.175
20.665,-0.164
20.670,0.005
20.675,0.051
20.680,0.019
20.685,0.148
20.690,0.238
20.695,0.173
20.700,0.226
20.705,0.338
20.710,0.274
20.715,0.241
20.720,0.349
20.725,0.324
20.730,0.228
20.735,0.303
20.740,0.339
20.745,0.222
20.750,0.232
20.755,0.310
20.760,0.216
20.765,0.160
20.770,0.255
20.775,0.222
20.780,0.114
20.785,0.177
20.790,0.212
20.795,0.097
20.800,0.106
20.805,0.186
20.810,0.097
20.815,0.044
20.820,0.141
20.825,0.114
20.830,0.014
20.835,0.082
20.840,0.118
20.845,0.004
20.850,0.018
20.855,0.105
20.860,0.023
20.865,-0.026
20.870,0.076
20.875,0.048
20.880,-0.051
20.885,0.022
20.890,0.063
20.895,-0.044
20.900,-0.024
20.905,0.067
20.910,-0.016
20.915,-0.064
20.920,0.038
20.925,0.013
20.930,-0.083
20.935,-0.010
20.940,0.028
20.945,-0.077
20.950,-0.057
20.955,0.034
20.960,-0.043
20.965,-0.090
20.970,0.008
20.975,-0.015
20.980,-0.106
20.985,-0.031
20.990,0.007
20.995,-0.101
21.000,-0.081
21.005,0.010
21.010,-0.068
21.015,-0.115
21.020,-0.010
21.025,-0.030
21.030,-0.124
21.035,-0.048
21.040,-0.003
21.045,-0.108
21.050,-0.091
21.055,-0.001
21.060,-0.078
21.065,-0.123
21.070,-0.019
21.075,-0.040
21.080,-0.131
21.085,-0.054
21.090,-0.012
21.095,-0.117
21.100,-0.094
21.105,0.000
21.110,-0.082
21.115,-0.127
21.120,-0.018
21.125,-0.035
21.130,-0.129
21.135,-0.054
21.140,-0.006
21.145,-0.107
21.150,-0.088
21.155,0.003
21.160,-0.077
21.165,-0.120
21.170,-0.011
21.175,-0.028
21.180,-0.119
21.185,-0.044
21.190,-0.002
21.195,-0.104
21.200,-0.081
21.205,0.010
21.210,-0.067
21.215,-0.109
21.220,-0.003
21.225,-0.020
21.230,-0.111
21.235,-0.036
21.240,0.010
21.245,-0.092
21.250,-0.070
21.255,0.021
21.260,-0.059
21.265,-0.101
21.270,0.009
21.275,-0.007
21.280,-0.100
21.285,-0.028
21.290,0.013
21.295,-0.097
21.300,-0.084
21.305,0.001
21.310,-0.080
21.315,-0.123
21.320,-0.017
21.325,-0.039
21.330,-0.139
21.335,-0.067
21.340,-0.018
21.345,-0.116
21.350,-0.092
21.355,0.009
21.360,-0.054
21.365,-0.091
21.370,0.011
21.375,-0.007
21.380,-0.077
21.385,0.021
21.390,0.078
21.395,-0.019
21.400,0.006
21.405,0.103
21.410,0.023
21.415,-0.026
21.420,0.081
21.425,0.063
21.430,-0.027
21.435,0.051
21.440,0.091
21.445,-0.017
21.450,0.005
21.455,0.096
21.460,0.021
21.465,-0.014
21.470,0.071
21.475,-0.053
21.480,-0.363
21.485,-0.650
21.490,-1.067
21.495,-1.501
21.500,-1.430
21.505,-0.844
21.510,-0.240
21.515,0.132
21.520,0.307
21.525,0.264
21.530,0.165
21.535,0.267
21.540,0.352
21.545,0.269
21.550,0.299
21.555,0.395
21.560,0.316
21.565,0.266
21.570,0.363
21.575,0.332
21.580,0.223
21.585,0.285
21.590,0.319
21.595,0.200
21.600,0.208
21.605,0.292
21.610,0.205
21.615,0.147
21.620,0.237
21.625,0.203
21.630,0.100
21.635,0.166
21.640,0.200
21.645,0.085
21.650,0.091
21.655,0.169
21.660,0.079
21.665,0.024
21.670,0.118
21.675,0.089
21.680,-0.015
21.685,0.045
21.690,0.075
21.695,-0.043
21.700,-0.038
21.705,0.041
21.710,-0.054
21.715,-0.119
21.720,-0.031
21.725,-0.071
21.730,-0.184
21.735,-0.124
21.740,-0.101
21.745,-0.223
21.750,-0.216
21.755,-0.139
21.760,-0.229
21.765,-0.280
21.770,-0.177
21.775,-0.197
21.780,-0.295
21.785,-0.221
21.790,-0.161
21.795,-0.240
21.800,-0.187
21.805,-0.041
21.810,-0.056
21.815,-0.041
21.820,0.122
21.825,0.159
21.830,0.115
21.835,0.232
21.840,0.309
21.845,0.225
21.850,0.260
21.855,0.365
21.860,0.293
21.865,0.244
21.870,0.339
21.875,0.309
21.880,0.208
21.885,0.276
21.890,0.311
21.895,0.192
21.900,0.194
21.905,0.276
21.910,0.189
21.915,0.129
21.920,0.223
21.925,0.197
21.930,0.096
21.935,0.154
21.940,0.186
21.945,0.073
21.950,0.078
21.955,0.159
21.960,0.079
21.965,0.027
21.970,0.120
21.975,0.092
21.980,-0.005
21.985,0.068
21.990,0.109
21.995,-0.005
22.000,0.004
22.005,0.093
22.010,0.012
22.015,-0.037
22.020,0.066
22.025,0.043
22.030,-0.056
22.035,0.017
22.040,0.061
22.045,-0.047
22.050,-0.032
22.055,0.058
22.060,-0.020
22.065,-0.068
22.070,0.029
22.075,0.002
22.080,-0.093
22.085,-0.017
22.090,0.029
22.095,-0.076
22.100,-0.058
22.105,0.031
22.110,-0.050
22.115,-0.097
22.120,0.007
22.125,-0.014
22.130,-0.112
22.135,-0.039
22.140,0.006
22.145,-0.101
22.150,-0.085
22.155,0.010
22.160,-0.065
22.165,-0.110
22.170,-0.005
22.175,-0.030
22.180,-0.125
22.185,-0.049
22.190,-0.005
22.195,-0.112
22.200,-0.091
22.205,0.002
22.210,-0.076
22.215,-0.124
22.220,-0.019
22.225,-0.036
22.230,-0.129
22.235,-0.054
22.240,-0.008
22.245,-0.111
22.250,-0.092
22.255,-0.003
22.260,-0.080
22.265,-0.125
22.270,-0.018
22.275,-0.032
22.280,-0.126
22.285,-0.050
22.290,-0.001
22.295,-0.107
22.300,-0.087
22.305,0.007
22.310,-0.072
22.315,-0.116
22.320,-0.009
22.325,-0.028
22.330,-0.120
22.335,-0.044
22.340,0.003
22.345,-0.097
22.350,-0.080
22.355,0.000
22.360,-0.087
22.365,-0.136
22.370,-0.034
22.375,-0.051
22.380,-0.142
22.385,-0.071
22.390,-0.031
22.395,-0.138
22.400,-0.121
22.405,-0.024
22.410,-0.094
22.415,-0.132
22.420,-0.012
22.425,-0.024
22.430,-0.117
22.435,-0.038
22.440,0.021
22.445,-0.062
22.450,-0.026
22.455,0.080
22.460,0.008
22.465,-0.039
22.470,0.065
22.475,0.047
22.480,-0.045
22.485,0.033
22.490,0.083
22.495,-0.020
22.500,-0.005
22.505,0.088
22.510,0.011
22.515,-0.039
22.520,0.066
22.525,0.058
22.530,-0.033
22.535,0.000
22.540,-0.083
22.545,-0.439
22.550,-0.825
22.555,-1.187
22.560,-1.514
22.565,-1.397
22.570,-0.712
22.575,-0.075
22.580,0.150
22.585,0.254
22.590,0.282
22.595,0.187
22.600,0.236
22.605,0.357
22.610,0.301
22.615,0.262
22.620,0.366
22.625,0.344
22.630,0.242
22.635,0.307
22.640,0.345
22.645,0.230
22.650,0.238
22.655,0.323
22.660,0.237
22.665,0.176
22.670,0.269
22.675,0.238
22.680,0.129
22.685,0.194
22.690,0.229
22.695,0.108
22.700,0.114
22.705,0.200
22.710,0.115
22.715,0.054
22.720,0.144
22.725,0.114
22.730,0.011
22.735,0.078
22.740,0.113
22.745,-0.009
22.750,-0.006
22.755,0.076
22.760,-0.010
22.765,-0.073
22.770,0.014
22.775,-0.021
22.780,-0.133
22.785,-0.078
22.790,-0.050
22.795,-0.171
22.800,-0.175
22.805,-0.106
22.810,-0.199
22.815,-0.257
22.820,-0.165
22.825,-0.197
22.830,-0.299
22.835,-0.227
22.840,-0.183
22.845,-0.289
22.850,-0.263
22.855,-0.148
22.860,-0.188
22.865,-0.187
22.870,-0.029
22.875,0.007
22.880,-0.024
22.885,0.115
22.890,0.218
22.895,0.159
22.900,0.214
22.905,0.339
22.910,0.282
22.915,0.241
22.920,0.354
22.925,0.344
22.930,0.242
22.935,0.303
22.940,0.345
22.945,0.232
22.950,0.234
22.955,0.319
22.960,0.236
22.965,0.173
22.970,0.262
22.975,0.236
22.980,0.128
22.985,0.185
22.990,0.221
22.995,0.109
23.000,0.116
23.005,0.200
23.010,0.114
23.015,0.052
23.020,0.139
23.025,0.116
23.030,0.020
23.035,0.087
23.040,0.127
23.045,0.014
23.050,0.020
23.055,0.108
23.060,0.030
23.065,-0.024
23.070,0.077
23.075,0.058
23.080,-0.044
23.085,0.022
23.090,0.068
23.095,-0.038
23.100,-0.026
23.105,0.066
23.110,-0.009
23.115,-0.061
23.120,0.038
23.125,0.020
23.130,-0.077
23.135,-0.006
23.140,0.038
23.145,-0.072
23.150,-0.058
23.155,0.037
23.160,-0.040
23.165,-0.093
23.170,0.009
23.175,-0.009
23.180,-0.110
23.185,-0.035
23.190,0.016
23.195,-0.096
23.200,-0.083
23.205,0.014
23.210,-0.062
23.215,-0.116
23.220,-0.014
23.225,-0.028
23.230,-0.125
23.235,-0.050
23.240,0.001
23.245,-0.108
23.250,-0.097
23.255,-0.002
23.260,-0.077
23.265,-0.127
23.270,-0.019
23.275,-0.033
23.280,-0.132
23.285,-0.063
23.290,-0.012
23.295,-0.114
23.300,-0.098
23.305,-0.002
23.310,-0.074
23.315,-0.126
23.320,-0.023
23.325,-0.033
23.330,-0.126
23.335,-0.054
23.340,-0.011
23.345,-0.123
23.350,-0.116
23.355,-0.029
23.360,-0.106
23.365,-0.155
23.370,-0.047
23.375,-0.064
23.380,-0.169
23.385,-0.102
23.390,-0.055
23.395,-0.153
23.400,-0.128
23.405,-0.029
23.410,-0.096
23.415,-0.134
23.420,-0.021
23.425,-0.035
23.430,-0.126
23.435,-0.033
23.440,0.038
23.445,-0.050
23.450,-0.028
23.455,0.068
23.460,-0.001
23.465,-0.049
23.470,0.052
23.475,0.038
23.480,-0.060
23.485,0.011
23.490,0.064
23.495,-0.038
23.500,-0.023
23.505,0.070
23.510,-0.007
23.515,-0.051
23.520,0.065
23.525,0.032
23.530,-0.153
23.535,-0.281
23.540,-0.583
23.545,-1.149
23.550,-1.499
23.555,-1.400
23.560,-1.014
23.565,-0.378
23.570,0.189
23.575,0.273
23.580,0.153
23.585,0.217
23.590,0.290
23.595,0.225
23.600,0.263
23.605,0.371
23.610,0.302
23.615,0.248
23.620,0.345
23.625,0.325
23.630,0.220
23.635,0.283
23.640,0.324
23.645,0.207
23.650,0.204
23.655,0.288
23.660,0.206
23.665,0.143
23.670,0.236
23.675,0.213
23.680,0.106
23.685,0.174
23.690,0.215
23.695,0.089
23.700,0.087
23.705,0.174
23.710,0.090
23.715,0.027
23.720,0.117
23.725,0.089
23.730,-0.016
23.735,0.050
23.740,0.089
23.745,-0.031
23.750,-0.031
23.755,0.056
23.760,-0.031
23.765,-0.105
23.770,-0.020
23.775,-0.053
23.780,-0.172
23.785,-0.122
23.790,-0.097
23.795,-0.226
23.800,-0.231
23.805,-0.148
23.810,-0.234
23.815,-0.303
23.820,-0.203
23.825,-0.216
23.830,-0.317
23.835,-0.247
23.840,-0.190
23.845,-0.278
23.850,-0.234
23.855,-0.086
23.860,-0.093
23.865,-0.081
23.870,0.084
23.875,0.135
23.880,0.099
23.885,0.219
23.890,0.311
23.895,0.239
23.900,0.271
23.905,0.373
23.910,0.303
23.915,0.254
23.920,0.360
23.925,0.343
23.930,0.238
23.935,0.297
23.940,0.336
23.945,0.225
23.950,0.230
23.955,0.310
23.960,0.219
23.965,0.151
23.970,0.243
23.975,0.219
23.980,0.110
23.985,0.171
23.990,0.211
23.995,0.097
24.000,0.101
24.005,0.185
24.010,0.098
24.015,0.037
24.020,0.136
24.025,0.114
24.030,0.010
24.035,0.078
24.040,0.121
24.045,0.008
24.050,0.014
24.055,0.104
24.060,0.027
24.065,-0.031
24.070,0.066
24.075,0.050
24.080,-0.046
24.085,0.020
24.090,0.066
24.095,-0.040
24.100,-0.031
24.105,0.061
24.110,-0.012
24.115,-0.066
24.120,0.032
24.125,0.013
24.130,-0.085
24.135,-0.014
24.140,0.034
24.145,-0.074
24.150,-0.065
24.155,0.031
24.160,-0.044
24.165,-0.102
24.170,0.001
24.175,-0.011
24.180,-0.108
24.185,-0.037
24.190,0.013
24.195,-0.098
24.200,-0.090
24.205,0.007
24.210,-0.063
24.215,-0.114
24.220,-0.010
24.225,-0.023
24.230,-0.123
24.235,-0.055
24.240,-0.005
24.245,-0.109
24.250,-0.092
24.255,0.003
24.260,-0.077
24.265,-0.127
24.270,-0.021
24.275,-0.035
24.280,-0.130
24.285,-0.054
24.290,-0.002
24.295,-0.111
24.300,-0.101
24.305,-0.002
24.310,-0.073
24.315,-0.125
24.320,-0.025
24.325,-0.049
24.330,-0.160
24.335,-0.093
24.340,-0.036
24.345,-0.138
24.350,-0.131
24.355,-0.041
24.360,-0.112
24.365,-0.167
24.370,-0.068
24.375,-0.076
24.380,-0.168
24.385,-0.089
24.390,-0.023
24.395,-0.117
24.400,-0.101
24.405,0.004
24.410,-0.054
24.415,-0.088
24.420,0.040
24.425,0.038
24.430,-0.065
24.435,0.003
24.440,0.060
24.445,-0.041
24.450,-0.028
24.455,0.070
24.460,-0.004
24.465,-0.056
24.470,0.050
24.475,0.040
24.480,-0.060
24.485,0.009
24.490,0.065
24.495,-0.036
24.500,-0.033
24.505,-0.002
24.510,-0.259
24.515,-0.647
24.520,-0.994
24.525,-1.392
24.530,-1.549
24.535,-1.083
24.540,-0.343
24.545,0.067
24.550,0.208
24.555,0.290
24.560,0.197
24.565,0.146
24.570,0.297
24.575,0.322
24.580,0.231
24.585,0.305
24.590,0.366
24.595,0.262
24.600,0.259
24.605,0.337
24.610,0.258
24.615,0.201
24.620,0.291
24.625,0.264
24.630,0.159
24.635,0.218
24.640,0.257
24.645,0.144
24.650,0.145
24.655,0.229
24.660,0.148
24.665,0.086
24.670,0.173
24.675,0.147
24.680,0.043
24.685,0.107
24.690,0.150
24.695,0.032
24.700,0.024
24.705,0.114
24.710,0.037
24.715,-0.031
24.720,0.059
24.725,0.037
24.730,-0.073
24.735,-0.017
24.740,0.016
24.745,-0.110
24.750,-0.117
24.755,-0.041
24.760,-0.135
24.765,-0.206
24.770,-0.115
24.775,-0.147
24.780,-0.265
24.785,-0.208
24.790,-0.167
24.795,-0.277
24.800,-0.268
24.805,-0.170
24.810,-0.239
24.815,-0.290
24.820,-0.170
24.825,-0.149
24.830,-0.194
24.835,-0.057
24.840,0.050
24.845,-0.009
24.850,0.064
24.855,0.229
24.860,0.203
24.865,0.178
24.870,0.312
24.875,0.326
24.880,0.242
24.885,0.319
24.890,0.369
24.895,0.259
24.900,0.268
24.905,0.359
24.910,0.279
24.915,0.216
24.920,0.292
24.925,0.254
24.930,0.163
24.935,0.233
24.940,0.260
24.945,0.138
24.950,0.139
24.955,0.227
24.960,0.152
24.965,0.085
24.970,0.169
24.975,0.154
24.980,0.060
24.985,0.118
24.990,0.148
24.995,0.034
25.000,0.044
25.005,0.134
25.010,0.047
25.015,-0.019
25.020,0.085
25.025,0.075
25.030,-0.023
25.035,0.041
25.040,0.086
25.045,-0.021
25.050,-0.014
25.055,0.081
25.060,0.007
25.065,-0.055
25.070,0.045
25.075,0.037
25.080,-0.059
25.085,0.003
25.090,0.049
25.095,-0.055
25.100,-0.044
25.105,0.047
25.110,-0.029
25.115,-0.086
25.120,0.014
25.125,0.003
25.130,-0.098
25.135,-0.030
25.140,0.024
25.145,-0.086
25.150,-0.079
25.155,0.019
25.160,-0.056
25.165,-0.113
25.170,-0.007
25.175,-0.018
25.180,-0.118
25.185,-0.048
25.190,0.005
25.195,-0.099
25.200,-0.089
25.205,0.003
25.210,-0.087
25.215,-0.157
25.220,-0.053
25.225,-0.063
25.230,-0.162
25.235,-0.093
25.240,-0.044
25.245,-0.153
25.250,-0.149
25.255,-0.059
25.260,-0.132
25.265,-0.178
25.270,-0.064
25.275,-0.064
25.280,-0.148
25.285,-0.071
25.290,-0.022
25.295,-0.121
25.300,-0.090
25.305,0.027
25.310,-0.024
25.315,-0.070
25.320,0.031
25.325,0.022
25.330,-0.075
25.335,-0.006
25.340,0.049
25.345,-0.055
25.350,-0.043
25.355,0.056
25.360,-0.018
25.365,-0.071
25.370,0.035
25.375,0.020
25.380,-0.077
25.385,0.001
25.390,0.034
25.395,-0.163
25.400,-0.363
25.405,-0.634
25.410,-1.176
25.415,-1.578
25.420,-1.444
25.425,-0.962
25.430,-0.358
25.435,0.152
25.440,0.286
25.445,0.158
25.450,0.157
25.455,0.273
25.460,0.241
25.465,0.210
25.470,0.323
25.475,0.314
25.480,0.216
25.485,0.283
25.490,0.331
25.495,0.220
25.500,0.220
25.505,0.306
25.510,0.221
25.515,0.155
25.520,0.250
25.525,0.225
25.530,0.113
25.535,0.173
25.540,0.219
25.545,0.104
25.550,0.102
25.555,0.189
25.560,0.107
25.565,0.040
25.570,0.134
25.575,0.118
25.580,0.010
25.585,0.067
25.590,0.108
25.595,-0.004
25.600,-0.004
25.605,0.080
25.610,-0.005
25.615,-0.075
25.620,0.012
25.625,-0.011
25.630,-0.124
25.635,-0.073
25.640,-0.036
25.645,-0.159
25.650,-0.173
25.655,-0.098
25.660,-0.188
25.665,-0.262
25.670,-0.174
25.675,-0.191
25.680,-0.299
25.685,-0.237
25.690,-0.183
25.695,-0.288
25.700,-0.276
25.705,-0.165
25.710,-0.210
25.715,-0.223
25.720,-0.062
25.725,-0.004
25.730,-0.033
25.735,0.098
25.740,0.207
25.745,0.153
25.750,0.202
25.755,0.330
25.760,0.282
25.765,0.242
25.770,0.355
25.775,0.345
25.780,0.244
25.785,0.309
25.790,0.358
25.795,0.247
25.800,0.245
25.805,0.329
25.810,0.245
25.815,0.177
25.820,0.268
25.825,0.246
25.830,0.133
25.835,0.190
25.840,0.235
25.845,0.120
25.850,0.116
25.855,0.199
25.860,0.122
25.865,0.061
25.870,0.155
25.875,0.136
25.880,0.029
25.885,0.088
25.890,0.134
25.895,0.023
25.900,0.026
25.905,0.120
25.910,0.046
25.915,-0.017
25.920,0.079
25.925,0.067
25.930,-0.033
25.935,0.033
25.940,0.082
25.945,-0.026
25.950,-0.019
25.955,0.074
25.960,-0.001
25.965,-0.059
25.970,0.042
25.975,0.028
25.980,-0.072
25.985,-0.006
25.990,0.043
25.995,-0.061
26.000,-0.053
26.005,0.041
26.010,-0.033
26.015,-0.091
26.020,0.011
26.025,0.001
26.030,-0.099
26.035,-0.036
26.040,0.011
26.045,-0.102
26.050,-0.105
26.055,-0.019
26.060,-0.094
26.065,-0.150
26.070,-0.049
26.075,-0.063
26.080,-0.164
26.085,-0.100
26.090,-0.050
26.095,-0.153
26.100,-0.142
26.105,-0.041
26.110,-0.098
26.115,-0.140
26.120,-0.034
26.125,-0.047
26.130,-0.137
26.135,-0.047
26.140,0.026
26.145,-0.064
26.150,-0.049
26.155,0.048
26.160,-0.022
26.165,-0.079
26.170,0.024
26.175,0.015
26.180,-0.080
26.185,-0.008
26.190,0.043
26.195,-0.063
26.200,-0.053
26.205,0.043
26.210,-0.029
26.215,-0.081
26.220,0.030
26.225,-0.005
26.230,-0.208
26.235,-0.356
26.240,-0.671
26.245,-1.239
26.250,-1.550
26.255,-1.378
26.260,-0.928
26.265,-0.308
26.270,0.188
26.275,0.235
26.280,0.106
26.285,0.172
26.290,0.254
26.295,0.188
26.300,0.222
26.305,0.333
26.310,0.265
26.315,0.202
26.320,0.299
26.325,0.288
26.330,0.182
26.335,0.239
26.340,0.284
26.345,0.170
26.350,0.166
26.355,0.251
26.360,0.172
26.365,0.107
26.370,0.199
26.375,0.178
26.380,0.069
26.385,0.128
26.390,0.175
26.395,0.063
26.400,0.059
26.405,0.145
26.410,0.067
26.415,0.004
26.420,0.093
26.425,0.067
26.430,-0.042
26.435,0.018
26.440,0.062
26.445,-0.054
26.450,-0.060
26.455,0.024
26.460,-0.059
26.465,-0.134
26.470,-0.051
26.475,-0.077
26.480,-0.194
26.485,-0.147
26.490,-0.113
26.495,-0.234
26.500,-0.242
26.505,-0.157
26.510,-0.235
26.515,-0.298
26.520,-0.201
26.525,-0.212
26.530,-0.310
26.535,-0.234
26.540,-0.157
26.545,-0.227
26.550,-0.171
26.555,-0.011
26.560,-0.018
26.565,-0.010
26.570,0.154
26.575,0.198
26.580,0.144
26.585,0.249
26.590,0.332
26.595,0.247
26.600,0.266
26.605,0.369
26.610,0.298
26.615,0.237
26.620,0.335
26.625,0.319
26.630,0.208
26.635,0.263
26.640,0.309
26.645,0.196
26.650,0.192
26.655,0.279
26.660,0.197
26.665,0.128
26.670,0.223
26.675,0.203
26.680,0.090
26.685,0.146
26.690,0.192
26.695,0.080
26.700,0.079
26.705,0.170
26.710,0.094
26.715,0.027
26.720,0.123
26.725,0.112
26.730,0.007
26.735,0.067
26.740,0.117
26.745,0.006
26.750,0.004
26.755,0.099
26.760,0.028
26.765,-0.031
26.770,0.070
26.775,0.058
26.780,-0.045
26.785,0.020
26.790,0.076
26.795,-0.030
26.800,-0.028
26.805,0.063
26.810,-0.014
26.815,-0.074
26.820,0.028
26.825,0.020
26.830,-0.085
26.835,-0.024
26.840,0.035
26.845,-0.068
26.850,-0.066
26.855,0.030
26.860,-0.037
26.865,-0.096
26.870,0.004
26.875,-0.005
26.880,-0.107
26.885,-0.044
26.890,0.005
26.895,-0.112
26.900,-0.115
26.905,-0.020
26.910,-0.091
26.915,-0.154
26.920,-0.055
26.925,-0.064
26.930,-0.166
26.935,-0.108
26.940,-0.053
26.945,-0.149
26.950,-0.142
26.955,-0.042
26.960,-0.096
26.965,-0.142
26.970,-0.039
26.975,-0.043
26.980,-0.125
26.985,-0.039
26.990,0.032
26.995,-0.058
27.000,-0.050
27.005,0.047
27.010,-0.017
27.015,-0.074
27.020,0.026
27.025,0.018
27.030,-0.081
27.035,-0.014
27.040,0.044
27.045,-0.057
27.050,-0.053
27.055,0.041
27.060,-0.021
27.065,-0.072
27.070,0.027
27.075,-0.031
27.080,-0.272
27.085,-0.477
27.090,-0.847
27.095,-1.390
27.100,-1.559
27.105,-1.191
27.110,-0.614
27.115,-0.072
27.120,0.246
27.125,0.234
27.130,0.113
27.135,0.186
27.140,0.280
27.145,0.207
27.150,0.227
27.155,0.331
27.160,0.263
27.165,0.204
27.170,0.305
27.175,0.292
27.180,0.182
27.185,0.235
27.190,0.279
27.195,0.167
27.200,0.164
27.205,0.251
27.210,0.172
27.215,0.105
27.220,0.196
27.225,0.177
27.230,0.065
27.235,0.120
27.240,0.169
27.245,0.058
27.250,0.053
27.255,0.143
27.260,0.067
27.265,-0.002
27.270,0.088
27.275,0.070
27.280,-0.043
27.285,0.013
27.290,0.064
27.295,-0.053
27.300,-0.068
27.305,0.017
27.310,-0.064
27.315,-0.140
27.320,-0.055
27.325,-0.077
27.330,-0.195
27.335,-0.150
27.340,-0.115
27.345,-0.238
27.350,-0.251
27.355,-0.164
27.360,-0.235
27.365,-0.298
27.370,-0.202
27.375,-0.207
27.380,-0.303
27.385,-0.223
27.390,-0.140
27.395,-0.209
27.400,-0.157
27.405,0.003
27.410,0.003
27.415,0.009
27.420,0.168
27.425,0.211
27.430,0.153
27.435,0.254
27.440,0.333
27.445,0.241
27.450,0.255
27.455,0.357
27.460,0.288
27.465,0.227
27.470,0.322
27.475,0.307
27.480,0.198
27.485,0.254
27.490,0.299
27.495,0.182
27.500,0.175
27.505,0.263
27.510,0.187
27.515,0.117
27.520,0.208
27.525,0.194
27.530,0.082
27.535,0.139
27.540,0.190
27.545,0.075
27.550,0.067
27.555,0.157
27.560,0.087
27.565,0.026
27.570,0.122
27.575,0.109
27.580,0.002
27.585,0.059
27.590,0.114
27.595,0.011
27.600,0.009
27.605,0.103
27.610,0.035
27.615,-0.032
27.620,0.063
27.625,0.056
27.630,-0.043
27.635,0.019
27.640,0.075
27.645,-0.028
27.650,-0.033
27.655,0.056
27.660,-0.011
27.665,-0.070
27.670,0.026
27.675,0.017
27.680,-0.084
27.685,-0.022
27.690,0.036
27.695,-0.066
27.700,-0.063
27.705,0.031
27.710,-0.041
27.715,-0.104
27.720,-0.004
27.725,-0.010
27.730,-0.110
27.735,-0.046
27.740,0.010
27.745,-0.093
27.750,-0.086
27.755,0.014
27.760,-0.051
27.765,-0.121
27.770,-0.039
27.775,-0.050
27.780,-0.151
27.785,-0.087
27.790,-0.027
27.795,-0.133
27.800,-0.137
27.805,-0.042
27.810,-0.113
27.815,-0.180
27.820,-0.078
27.825,-0.076
27.830,-0.165
27.835,-0.082
27.840,-0.011
27.845,-0.114
27.850,-0.114
27.855,-0.001
27.860,-0.040
27.865,-0.079
27.870,0.033
27.875,0.030
27.880,-0.072
27.885,-0.009
27.890,0.051
27.895,-0.050
27.900,-0.052
27.905,0.048
27.910,-0.014
27.915,-0.069
27.920,0.035
27.925,0.028
27.930,-0.076
27.935,-0.012
27.940,0.055
27.945,-0.049
27.950,-0.104
27.955,-0.157
27.960,-0.517
27.965,-1.026
27.970,-1.360
27.975,-1.496
27.980,-1.274
27.985,-0.538
27.990,0.109
27.995,0.193
28.000,0.179
28.005,0.257
28.010,0.194
28.015,0.163
28.020,0.293
28.025,0.309
28.030,0.215
28.035,0.279
28.040,0.332
28.045,0.223
28.050,0.218
28.055,0.306
28.060,0.231
28.065,0.161
28.070,0.252
28.075,0.240
28.080,0.130
28.085,0.183
28.090,0.232
28.095,0.120
28.100,0.108
28.105,0.197
28.110,0.125
28.115,0.052
28.120,0.141
28.125,0.129
28.130,0.017
28.135,0.069
28.140,0.120
28.145,0.008
28.150,-0.001
28.155,0.088
28.160,0.013
28.165,-0.059
28.170,0.029
28.175,0.012
28.180,-0.106
28.185,-0.059
28.190,-0.015
28.195,-0.136
28.200,-0.155
28.205,-0.073
28.210,-0.156
28.215,-0.234
28.220,-0.147
28.225,-0.159
28.230,-0.269
28.235,-0.216
28.240,-0.163
28.245,-0.269
28.250,-0.269
28.255,-0.164
28.260,-0.214
28.265,-0.253
28.270,-0.117
28.275,-0.070
28.280,-0.111
28.285,0.014
28.290,0.133
28.295,0.087
28.300,0.138
28.305,0.276
28.310,0.241
28.315,0.204
28.320,0.318
28.325,0.320
28.330,0.223
28.335,0.286
28.340,0.343
28.345,0.237
28.350,0.228
28.355,0.314
28.360,0.236
28.365,0.165
28.370,0.257
28.375,0.245
28.380,0.134
28.385,0.185
28.390,0.230
28.395,0.119
28.400,0.113
28.405,0.202
28.410,0.128
28.415,0.060
28.420,0.152
28.425,0.143
28.430,0.033
28.435,0.086
28.440,0.141
28.445,0.035
28.450,0.032
28.455,0.128
28.460,0.059
28.465,-0.005
28.470,0.093
28.475,0.085
28.480,-0.023
28.485,0.035
28.490,0.092
28.495,-0.014
28.500,-0.017
28.505,0.080
28.510,0.013
28.515,-0.051
28.520,0.046
28.525,0.040
28.530,-0.064
28.535,-0.006
28.540,0.052
28.545,-0.049
28.550,-0.050
28.555,0.046
28.560,-0.021
28.565,-0.086
28.570,0.012
28.575,0.008
28.580,-0.096
28.585,-0.037
28.590,0.026
28.595,-0.072
28.600,-0.077
28.605,0.017
28.610,-0.047
28.615,-0.109
28.620,-0.009
28.625,-0.010
28.630,-0.112
28.635,-0.051
28.640,0.010
28.645,-0.094
28.650,-0.096
28.655,0.007
28.660,-0.055
28.665,-0.118
28.670,-0.017
28.675,-0.017
28.680,-0.120
28.685,-0.060
28.690,0.001
28.695,-0.101
28.700,-0.102
28.705,-0.003
28.710,-0.065
28.715,-0.123
28.720,-0.020
28.725,-0.023
28.730,-0.124
28.735,-0.059
28.740,-0.001
28.745,-0.110
28.750,-0.120
28.755,-0.027
28.760,-0.092
28.765,-0.154
28.770,-0.053
28.775,-0.056
28.780,-0.160
28.785,-0.105
28.790,-0.047
28.795,-0.142
28.800,-0.136
28.805,-0.030
28.810,-0.083
28.815,-0.134
28.820,-0.026
28.825,-0.028
28.830,-0.123
28.835,-0.039
28.840,0.044
28.845,-0.041
28.850,-0.030
28.855,0.072
28.860,0.011
28.865,-0.053
28.870,0.045
28.875,0.047
28.880,-0.049
28.885,0.014
28.890,0.076
28.895,-0.025
28.900,-0.025
28.905,0.075
28.910,0.011
28.915,-0.050
28.920,0.058
28.925,0.042
28.930,-0.151
28.935,-0.292
28.940,-0.580
28.945,-1.146
28.950,-1.518
28.955,-1.424
28.960,-1.026
28.965,-0.388
28.970,0.182
28.975,0.274
28.980,0.151
28.985,0.214
28.990,0.300
28.995,0.237
29.000,0.261
29.005,0.374
29.010,0.314
29.015,0.246
29.020,0.340
29.025,0.333
29.030,0.223
29.035,0.273
29.040,0.324
29.045,0.213
29.050,0.201
29.055,0.288
29.060,0.216
29.065,0.145
29.070,0.232
29.075,0.219
29.080,0.105
29.085,0.154
29.090,0.208
29.095,0.096
29.100,0.082
29.105,0.172
29.110,0.099
29.115,0.023
29.120,0.113
29.125,0.105
29.130,-0.008
29.135,0.038
29.140,0.088
29.145,-0.025
29.150,-0.042
29.155,0.040
29.160,-0.036
29.165,-0.114
29.170,-0.032
29.175,-0.048
29.180,-0.167
29.185,-0.125
29.190,-0.081
29.195,-0.203
29.200,-0.219
29.205,-0.128
29.210,-0.201
29.215,-0.271
29.220,-0.177
29.225,-0.184
29.230,-0.288
29.235,-0.228
29.240,-0.157
29.245,-0.234
29.250,-0.202
29.255,-0.052
29.260,-0.055
29.265,-0.061
29.270,0.097
29.275,0.154
29.280,0.101
29.285,0.201
29.290,0.295
29.295,0.216
29.300,0.229
29.305,0.338
29.310,0.279
29.315,0.215
29.320,0.313
29.325,0.311
29.330,0.202
29.335,0.250
29.340,0.304
29.345,0.190
29.350,0.174
29.355,0.264
29.360,0.192
29.365,0.117
29.370,0.205
29.375,0.196
29.380,0.083
29.385,0.135
29.390,0.189
29.395,0.078
29.400,0.067
29.405,0.162
29.410,0.093
29.415,0.021
29.420,0.114
29.425,0.108
29.430,0.000
29.435,0.056
29.440,0.113
29.445,0.008
29.450,0.006
29.455,0.102
29.460,0.036
29.465,-0.031
29.470,0.065
29.475,0.064
29.480,-0.040
29.485,0.017
29.490,0.078
29.495,-0.026
29.500,-0.029
29.505,0.070
29.510,0.004
29.515,-0.063
29.520,0.033
29.525,0.029
29.530,-0.076
29.535,-0.019
29.540,0.043
29.545,-0.058
29.550,-0.065
29.555,0.030
29.560,-0.032
29.565,-0.096
29.570,0.003
29.575,0.003
29.580,-0.101
29.585,-0.044
29.590,0.016
29.595,-0.086
29.600,-0.089
29.605,0.011
29.610,-0.051
29.615,-0.114
29.620,-0.015
29.625,-0.017
29.630,-0.121
29.635,-0.060
29.640,0.003
29.645,-0.099
29.650,-0.104
29.655,-0.005
29.660,-0.064
29.665,-0.126
29.670,-0.025
29.675,-0.022
29.680,-0.122
29.685,-0.060
29.690,0.006
29.695,-0.095
29.700,-0.101
29.705,-0.004
29.710,-0.067
29.715,-0.131
29.720,-0.031
29.725,-0.027
29.730,-0.123
29.735,-0.061
29.740,0.003
29.745,-0.096
29.750,-0.099
29.755,0.002
29.760,-0.056
29.765,-0.119
29.770,-0.021
29.775,-0.021
29.780,-0.120
29.785,-0.056
29.790,0.010
29.795,-0.087
29.800,-0.085
29.805,0.018
29.810,-0.046
29.815,-0.113
29.820,-0.011
29.825,-0.006
29.830,-0.109
29.835,-0.047
29.840,0.023
29.845,-0.074
29.850,-0.078
29.855,0.022
29.860,-0.037
29.865,-0.099
29.870,0.003
29.875,0.005
29.880,-0.098
29.885,-0.037
29.890,0.032
29.895,-0.066
29.900,-0.072
29.905,0.022
29.910,-0.045
29.915,-0.117
29.920,-0.022
29.925,-0.017
29.930,-0.115
29.935,-0.059
29.940,-0.002
29.945,-0.106
29.950,-0.114
29.955,-0.011
29.960,-0.063
29.965,-0.122
29.970,-0.010
29.975,0.005
29.980,-0.092
29.985,-0.033
29.990,0.039
29.995,-0.043
30.000,-0.030
30.005,0.087
30.010,0.036
30.015,-0.027
30.020,0.074
30.025,0.074
30.030,-0.027
30.035,0.036
30.040,0.101
30.045,0.003
30.050,0.003
30.055,0.102
30.060,0.038
30.065,-0.027
30.070,0.073
30.075,0.080
30.080,-0.021
30.085,-0.013
30.090,-0.092
30.095,-0.460
30.100,-0.883
30.105,-1.234
30.110,-1.504
30.115,-1.347
30.120,-0.623
30.125,0.019
30.130,0.177
30.135,0.242
30.140,0.292
30.145,0.205
30.150,0.239
30.155,0.370
30.160,0.328
30.165,0.272
30.170,0.370
30.175,0.369
30.180,0.263
30.185,0.313
30.190,0.364
30.195,0.252
30.200,0.239
30.205,0.330
30.210,0.257
30.215,0.176
30.220,0.263
30.225,0.255
30.230,0.141
30.235,0.188
30.240,0.242
30.245,0.131
30.250,0.116
30.255,0.206
30.260,0.133
30.265,0.053
30.270,0.140
30.275,0.132
30.280,0.020
30.285,0.070
30.290,0.122
30.295,0.010
30.300,-0.005
30.305,0.080
30.310,0.000
30.315,-0.082
30.320,0.004
30.325,-0.006
30.330,-0.124
30.335,-0.081
30.340,-0.033
30.345,-0.152
30.350,-0.175
30.355,-0.088
30.360,-0.164
30.365,-0.242
30.370,-0.148
30.375,-0.153
30.380,-0.266
30.385,-0.213
30.390,-0.149
30.395,-0.249
30.400,-0.246
30.405,-0.128
30.410,-0.159
30.415,-0.183
30.420,-0.033
30.425,0.025
30.430,-0.018
30.435,0.094
30.440,0.205
30.445,0.146
30.450,0.172
30.455,0.298
30.460,0.258
30.465,0.207
30.470,0.310
30.475,0.311
30.480,0.209
30.485,0.262
30.490,0.316
30.495,0.207
30.500,0.193
30.505,0.280
30.510,0.209
30.515,0.136
30.520,0.225
30.525,0.218
30.530,0.104
30.535,0.150
30.540,0.204
30.545,0.096
30.550,0.083
30.555,0.176
30.560,0.108
30.565,0.034
30.570,0.126
30.575,0.122
30.580,0.014
30.585,0.066
30.590,0.124
30.595,0.021
30.600,0.016
30.605,0.110
30.610,0.042
30.615,-0.028
30.620,0.070
30.625,0.072
30.630,-0.035
30.635,0.021
30.640,0.085
30.645,-0.020
30.650,-0.026
30.655,0.075
30.660,0.012
30.665,-0.059
30.670,0.033
30.675,0.030
30.680,-0.073
30.685,-0.016
30.690,0.047
30.695,-0.054
30.700,-0.062
30.705,0.034
30.710,-0.030
30.715,-0.097
30.720,0.003
30.725,0.003
30.730,-0.102
30.735,-0.043
30.740,0.020
30.745,-0.084
30.750,-0.089
30.755,0.014
30.760,-0.045
30.765,-0.112
30.770,-0.015
30.775,-0.016
30.780,-0.123
30.785,-0.062
30.790,0.009
30.795,-0.091
30.800,-0.102
30.805,-0.003
30.810,-0.062
30.815,-0.128
30.820,-0.030
30.825,-0.025
30.830,-0.126
30.835,-0.065
30.840,0.003
30.845,-0.097
30.850,-0.104
30.855,-0.002
30.860,-0.059
30.865,-0.125
30.870,-0.028
30.875,-0.026
30.880,-0.126
30.885,-0.065
30.890,0.004
30.895,-0.096
30.900,-0.105
30.905,-0.003
30.910,-0.058
30.915,-0.121
30.920,-0.020
30.925,-0.019
30.930,-0.121
30.935,-0.060
30.940,0.009
30.945,-0.087
30.950,-0.090
30.955,0.012
30.960,-0.047
30.965,-0.115
30.970,-0.018
30.975,-0.011
30.980,-0.109
30.985,-0.050
30.990,0.017
30.995,-0.080
31.000,-0.082
31.005,0.021
31.010,-0.039
31.015,-0.105
31.020,-0.005
31.025,0.001
31.030,-0.101
31.035,-0.044
31.040,0.025
31.045,-0.068
31.050,-0.070
31.055,0.032
31.060,-0.028
31.065,-0.097
31.070,0.001
31.075,0.005
31.080,-0.095
31.085,-0.034
31.090,0.026
31.095,-0.083
31.100,-0.093
31.105,0.007
31.110,-0.048
31.115,-0.117
31.120,-0.025
31.125,-0.024
31.130,-0.132
31.135,-0.076
31.140,-0.005
31.145,-0.098
31.150,-0.097
31.155,0.018
31.160,-0.030
31.165,-0.092
31.170,0.008
31.175,0.024
31.180,-0.056
31.185,0.017
31.190,0.093
31.195,0.001
31.200,-0.001
31.205,0.103
31.210,0.041
31.215,-0.030
31.220,0.071
31.225,0.080
31.230,-0.020
31.235,0.038
31.240,0.103
31.245,0.001
31.250,-0.007
31.255,0.097
31.260,0.048
31.265,-0.014
31.270,0.037
31.275,-0.098
31.280,-0.471
31.285,-0.838
31.290,-1.224
31.295,-1.535
31.300,-1.314
31.305,-0.580
31.310,-0.002
31.315,0.185
31.320,0.287
31.325,0.274
31.330,0.177
31.335,0.271
31.340,0.370
31.345,0.288
31.350,0.288
31.355,0.391
31.360,0.331
31.365,0.257
31.370,0.345
31.375,0.339
31.380,0.225
31.385,0.273
31.390,0.328
31.395,0.212
31.400,0.193
31.405,0.285
31.410,0.215
31.415,0.135
31.420,0.222
31.425,0.216
31.430,0.103
31.435,0.148
31.440,0.202
31.445,0.089
31.450,0.071
31.455,0.166
31.460,0.098
31.465,0.021
31.470,0.106
31.475,0.097
31.480,-0.019
31.485,0.024
31.490,0.078
31.495,-0.034
31.500,-0.054
31.505,0.035
31.510,-0.039
31.515,-0.123
31.520,-0.040
31.525,-0.050
31.530,-0.172
31.535,-0.133
31.540,-0.084
31.545,-0.200
31.550,-0.218
31.555,-0.124
31.560,-0.189
31.565,-0.261
31.570,-0.166
31.575,-0.162
31.580,-0.264
31.585,-0.203
31.590,-0.123
31.595,-0.192
31.600,-0.157
31.605,-0.003
31.610,-0.004
31.615,-0.017
31.620,0.134
31.625,0.188
31.630,0.124
31.635,0.214
31.640,0.305
31.645,0.221
31.650,0.225
31.655,0.334
31.660,0.277
31.665,0.206
31.670,0.298
31.675,0.297
31.680,0.186
31.685,0.231
31.690,0.286
31.695,0.176
31.700,0.154
31.705,0.242
31.710,0.175
31.715,0.099
31.720,0.188
31.725,0.184
31.730,0.069
31.735,0.116
31.740,0.175
31.745,0.066
31.750,0.050
31.755,0.146
31.760,0.085
31.765,0.012
31.770,0.101
31.775,0.099
31.780,-0.009
31.785,0.043
31.790,0.107
31.795,0.006
31.800,-0.006
31.805,0.090
31.810,0.029
31.815,-0.044
31.820,0.049
31.825,0.052
31.830,-0.053
31.835,0.002
31.840,0.068
31.845,-0.032
31.850,-0.042
31.855,0.057
31.860,-0.007
31.865,-0.079
31.870,0.020
31.875,0.025
31.880,-0.084
31.885,-0.031
31.890,0.034
31.895,-0.067
31.900,-0.077
31.905,0.024
31.910,-0.037
31.915,-0.108
31.920,-0.009
31.925,0.001
31.930,-0.104
31.935,-0.052
31.940,0.014
31.945,-0.086
31.950,-0.095
31.955,0.004
31.960,-0.054
31.965,-0.123
31.970,-0.026
31.975,-0.018
31.980,-0.120
31.985,-0.063
31.990,0.004
31.995,-0.095
32.000,-0.103
32.005,-0.005
32.010,-0.063
32.015,-0.127
32.020,-0.028
32.025,-0.022
32.030,-0.125
32.035,-0.069
32.040,-0.003
32.045,-0.102
32.050,-0.107
32.055,-0.004
32.060,-0.061
32.065,-0.130
32.070,-0.029
32.075,-0.021
32.080,-0.124
32.085,-0.066
32.090,0.002
32.095,-0.096
32.100,-0.102
32.105,0.002
32.110,-0.050
32.115,-0.116
32.120,-0.021
32.125,-0.015
32.130,-0.116
32.135,-0.058
32.140,0.010
32.145,-0.088
32.150,-0.095
32.155,0.010
32.160,-0.040
32.165,-0.105
32.170,-0.009
32.175,-0.004
32.180,-0.108
32.185,-0.054
32.190,0.016
32.195,-0.079
32.200,-0.084
32.205,0.022
32.210,-0.031
32.215,-0.099
32.220,0.000
32.225,0.008
32.230,-0.096
32.235,-0.037
32.240,0.035
32.245,-0.065
32.250,-0.075
32.255,0.028
32.260,-0.025
32.265,-0.089
32.270,0.013
32.275,0.022
32.280,-0.087
32.285,-0.038
32.290,0.022
32.295,-0.084
32.300,-0.096
32.305,0.009
32.310,-0.045
32.315,-0.116
32.320,-0.023
32.325,-0.023
32.330,-0.127
32.335,-0.065
32.340,0.009
32.345,-0.083
32.350,-0.081
32.355,0.033
32.360,-0.017
32.365,-0.088
32.370,0.017
32.375,0.045
32.380,-0.040
32.385,0.029
32.390,0.108
32.395,0.012
32.400,0.001
32.405,0.105
32.410,0.049
32.415,-0.018
32.420,0.081
32.425,0.087
32.430,-0.019
32.435,0.038
32.440,0.108
32.445,0.008
32.450,-0.002
32.455,0.103
32.460,0.052
32.465,-0.054
32.470,-0.091
32.475,-0.339
32.480,-0.842
32.485,-1.243
32.490,-1.435
32.495,-1.376
32.500,-0.797
32.505,-0.029
32.510,0.233
32.515,0.184
32.520,0.259
32.525,0.279
32.530,0.212
32.535,0.302
32.540,0.392
32.545,0.308
32.550,0.302
32.555,0.396
32.560,0.329
32.565,0.250
32.570,0.340
32.575,0.339
32.580,0.224
32.585,0.264
32.590,0.319
32.595,0.210
32.600,0.189
32.605,0.278
32.610,0.211
32.615,0.132
32.620,0.215
32.625,0.209
32.630,0.095
32.635,0.138
32.640,0.195
32.645,0.086
32.650,0.065
32.655,0.156
32.660,0.088
32.665,0.006
32.670,0.090
32.675,0.087
32.680,-0.027
32.685,0.014
32.690,0.067
32.695,-0.043
32.700,-0.066
32.705,0.019
32.710,-0.053
32.715,-0.139
32.720,-0.062
32.725,-0.072
32.730,-0.193
32.735,-0.155
32.740,-0.103
32.745,-0.214
32.750,-0.234
32.755,-0.142
32.760,-0.203
32.765,-0.276
32.770,-0.183
32.775,-0.176
32.780,-0.275
32.785,-0.206
32.790,-0.109
32.795,-0.162
32.800,-0.120
32.805,0.039
32.810,0.044
32.815,0.032
32.820,0.179
32.825,0.228
32.830,0.158
32.835,0.241
32.840,0.330
32.845,0.246
32.850,0.242
32.855,0.343
32.860,0.284
32.865,0.207
32.870,0.296
32.875,0.296
32.880,0.183
32.885,0.228
32.890,0.288
32.895,0.178
32.900,0.152
32.905,0.241
32.910,0.177
32.915,0.098
32.920,0.182
32.925,0.180
32.930,0.068
32.935,0.115
32.940,0.176
32.945,0.068
32.950,0.047
32.955,0.139
32.960,0.076
32.965,-0.001
32.970,0.093
32.975,0.100
32.980,-0.009
32.985,0.037
32.990,0.098
32.995,-0.003
33.000,-0.014
33.005,0.084
33.010,0.023
33.015,-0.052
33.020,0.043
33.025,0.050
33.030,-0.058
33.035,-0.006
33.040,0.064
33.045,-0.035
33.050,-0.052
33.055,0.046
33.060,-0.008
33.065,-0.079
33.070,0.014
33.075,0.019
33.080,-0.088
33.085,-0.036
33.090,0.032
33.095,-0.067
33.100,-0.079
33.105,0.023
33.110,-0.035
33.115,-0.109
33.120,-0.013
33.125,-0.004
33.130,-0.110
33.135,-0.058
33.140,0.010
33.145,-0.089
33.150,-0.100
33.155,0.004
33.160,-0.049
33.165,-0.120
33.170,-0.025
33.175,-0.018
33.180,-0.125
33.185,-0.072
33.190,0.000
33.195,-0.097
33.200,-0.108
33.205,-0.005
33.210,-0.060
33.215,-0.131
33.220,-0.033
33.225,-0.022
33.230,-0.126
33.235,-0.071
33.240,0.001
33.245,-0.095
33.250,-0.103
33.255,0.000
33.260,-0.057
33.265,-0.129
33.270,-0.028
33.275,-0.018
33.280,-0.122
33.285,-0.066
33.290,0.005
33.295,-0.090
33.300,-0.099
33.305,0.003
33.310,-0.052
33.315,-0.122
33.320,-0.021
33.325,-0.009
33.330,-0.112
33.335,-0.057
33.340,0.015
33.345,-0.082
33.350,-0.091
33.355,0.015
33.360,-0.039
33.365,-0.109
33.370,-0.011
33.375,0.001
33.380,-0.101
33.385,-0.048
33.390,0.024
33.395,-0.070
33.400,-0.079
33.405,0.024
33.410,-0.031
33.415,-0.101
33.420,-0.004
33.425,0.007
33.430,-0.094
33.435,-0.039
33.440,0.035
33.445,-0.059
33.450,-0.071
33.455,0.031
33.460,-0.022
33.465,-0.092
33.470,0.003
33.475,0.013
33.480,-0.097
33.485,-0.056
33.490,0.010
33.495,-0.085
33.500,-0.094
33.505,0.005
33.510,-0.055
33.515,-0.130
33.520,-0.036
33.525,-0.023
33.530,-0.120
33.535,-0.061
33.540,0.021
33.545,-0.062
33.550,-0.068
33.555,0.035
33.560,-0.012
33.565,-0.065
33.570,0.052
33.575,0.081
33.580,-0.014
33.585,0.037
33.590,0.106
33.595,0.006
33.600,-0.007
33.605,0.098
33.610,0.047
33.615,-0.023
33.620,0.074
33.625,0.084
33.630,-0.021
33.635,0.030
33.640,0.100
33.645,0.009
33.650,0.001
33.655,0.063
33.660,-0.119
33.665,-0.448
33.670,-0.763
33.675,-1.203
33.680,-1.548
33.685,-1.317
33.690,-0.645
33.695,-0.092
33.700,0.185
33.705,0.303
33.710,0.230
33.715,0.166
33.720,0.298
33.725,0.343
33.730,0.256
33.735,0.315
33.740,0.388
33.745,0.289
33.750,0.271
33.755,0.366
33.760,0.304
33.765,0.223
33.770,0.308
33.775,0.305
33.780,0.184
33.785,0.222
33.790,0.286
33.795,0.181
33.800,0.151
33.805,0.241
33.810,0.180
33.815,0.095
33.820,0.177
33.825,0.180
33.830,0.067
33.835,0.108
33.840,0.168
33.845,0.057
33.850,0.029
33.855,0.120
33.860,0.058
33.865,-0.024
33.870,0.061
33.875,0.060
33.880,-0.057
33.885,-0.019
33.890,0.036
33.895,-0.078
33.900,-0.108
33.905,-0.022
33.910,-0.091
33.915,-0.181
33.920,-0.106
33.925,-0.110
33.930,-0.232
33.935,-0.197
33.940,-0.135
33.945,-0.237
33.950,-0.258
33.955,-0.158
33.960,-0.208
33.965,-0.277
33.970,-0.177
33.975,-0.154
33.980,-0.234
33.985,-0.140
33.990,-0.013
33.995,-0.049
34.000,-0.006
34.005,0.154
34.010,0.151
34.015,0.115
34.020,0.247
34.025,0.290
34.030,0.203
34.035,0.267
34.040,0.350
34.045,0.258
34.050,0.240
34.055,0.335
34.060,0.276
34.065,0.195
34.070,0.279
34.075,0.280
34.080,0.162
34.085,0.196
34.090,0.260
34.095,0.159
34.100,0.136
34.105,0.225
34.110,0.159
34.115,0.073
34.120,0.158
34.125,0.162
34.130,0.050
34.135,0.095
34.140,0.158
34.145,0.052
34.150,0.029
34.155,0.124
34.160,0.069
34.165,-0.009
34.170,0.079
34.175,0.087
34.180,-0.023
34.185,0.024
34.190,0.095
34.195,-0.004
34.200,-0.023
34.205,0.078
34.210,0.024
34.215,-0.054
34.220,0.036
34.225,0.046
34.230,-0.057
34.235,-0.009
34.240,0.056
34.245,-0.045
34.250,-0.063
34.255,0.039
34.260,-0.013
34.265,-0.086
34.270,0.009
34.275,0.021
34.280,-0.086
34.285,-0.039
34.290,0.029
34.295,-0.073
34.300,-0.089
34.305,0.016
34.310,-0.036
34.315,-0.110
34.320,-0.016
34.325,-0.002
34.330,-0.110
34.335,-0.062
34.340,0.010
34.345,-0.086
34.350,-0.099
34.355,0.000
34.360,-0.056
34.365,-0.129
34.370,-0.033
34.375,-0.016
34.380,-0.120
34.385,-0.073
34.390,0.002
34.395,-0.091
34.400,-0.106
34.405,-0.001
34.410,-0.050
34.415,-0.126
34.420,-0.035
34.425,-0.021
34.430,-0.123
34.435,-0.074
34.440,-0.001
34.445,-0.096
34.450,-0.113
34.455,-0.006
34.460,-0.051
34.465,-0.123
34.470,-0.030
34.475,-0.016
34.480,-0.119
34.485,-0.069
34.490,0.007
34.495,-0.087
34.500,-0.107
34.505,-0.003
34.510,-0.045
34.515,-0.115
34.520,-0.019
34.525,-0.002
34.530,-0.108
34.535,-0.061
34.540,0.013
34.545,-0.081
34.550,-0.094
34.555,0.012
34.560,-0.038
34.565,-0.110
34.570,-0.009
34.575,0.007
34.580,-0.101
34.585,-0.055
34.590,0.013
34.595,-0.091
34.600,-0.112
34.605,-0.009
34.610,-0.057
34.615,-0.128
34.620,-0.034
34.625,-0.024
34.630,-0.134
34.635,-0.091
34.640,-0.013
34.645,-0.100
34.650,-0.115
34.655,-0.006
34.660,-0.041
34.665,-0.107
34.670,-0.013
34.675,0.004
34.680,-0.081
34.685,-0.006
34.690,0.086
34.695,0.000
34.700,-0.014
34.705,0.090
34.710,0.039
34.715,-0.037
34.720,0.061
34.725,0.080
34.730,-0.026
34.735,0.019
34.740,0.094
34.745,0.002
34.750,-0.014
34.755,0.089
34.760,0.041
34.765,-0.029
34.770,0.056
34.775,-0.004
34.780,-0.292
34.785,-0.576
34.790,-0.962
34.795,-1.442
34.800,-1.502
34.805,-0.985
34.810,-0.344
34.815,0.079
34.820,0.289
34.825,0.288
34.830,0.170
34.835,0.226
34.840,0.337
34.845,0.272
34.850,0.270
34.855,0.377
34.860,0.327
34.865,0.247
34.870,0.332
34.875,0.337
34.880,0.225
34.885,0.264
34.890,0.324
34.895,0.217
34.900,0.188
34.905,0.279
34.910,0.217
34.915,0.133
34.920,0.218
34.925,0.224
34.930,0.107
34.935,0.143
34.940,0.206
34.945,0.098
34.950,0.068
34.955,0.161
34.960,0.103
34.965,0.019
34.970,0.103
34.975,0.109
34.980,-0.012
34.985,0.019
34.990,0.081
34.995,-0.025
35.000,-0.055
35.005,0.036
35.010,-0.028
35.015,-0.122
35.020,-0.044
35.025,-0.043
35.030,-0.166
35.035,-0.138
35.040,-0.082
35.045,-0.191
35.050,-0.222
35.055,-0.130
35.060,-0.187
35.065,-0.270
35.070,-0.183
35.075,-0.168
35.080,-0.269
35.085,-0.216
35.090,-0.129
35.095,-0.202
35.100,-0.187
35.105,-0.033
35.110,-0.021
35.115,-0.035
35.120,0.118
35.125,0.188
35.130,0.127
35.135,0.209
35.140,0.311
35.145,0.239
35.150,0.235
35.155,0.345
35.160,0.299
35.165,0.221
35.170,0.310
35.175,0.322
35.180,0.209
35.185,0.244
35.190,0.309
35.195,0.204
35.200,0.171
35.205,0.262
35.210,0.204
35.215,0.116
35.220,0.198
35.225,0.205
35.230,0.088
35.235,0.124
35.240,0.189
35.245,0.084
35.250,0.057
35.255,0.154
35.260,0.098
35.265,0.014
35.270,0.098
35.275,0.110
35.280,0.000
35.285,0.041
35.290,0.113
35.295,0.015
35.300,-0.009
35.305,0.090
35.310,0.038
35.315,-0.040
35.320,0.050
35.325,0.062
35.330,-0.047
35.335,-0.004
35.340,0.069
35.345,-0.028
35.350,-0.049
35.355,0.051
35.360,-0.003
35.365,-0.082
35.370,0.012
35.375,0.026
35.380,-0.083
35.385,-0.036
35.390,0.039
35.395,-0.058
35.400,-0.079
35.405,0.023
35.410,-0.028
35.415,-0.105
35.420,-0.011
35.425,0.005
35.430,-0.104
35.435,-0.063
35.440,0.011
35.445,-0.080
35.450,-0.100
35.455,0.002
35.460,-0.045
35.465,-0.118
35.470,-0.024
35.475,-0.011
35.480,-0.120
35.485,-0.073
35.490,0.001
35.495,-0.093
35.500,-0.108
35.505,-0.002
35.510,-0.049
35.515,-0.126
35.520,-0.036
35.525,-0.018
35.530,-0.123
35.535,-0.077
35.540,-0.001
35.545,-0.094
35.550,-0.112
35.555,-0.007
35.560,-0.055
35.565,-0.131
35.570,-0.037
35.575,-0.018
35.580,-0.123
35.585,-0.076
35.590,0.001
35.595,-0.092
35.600,-0.109
35.605,-0.001
35.610,-0.044
35.615,-0.119
35.620,-0.029
35.625,-0.015
35.630,-0.115
35.635,-0.065
35.640,0.009
35.645,-0.084
35.650,-0.099
35.655,0.004
35.660,-0.041
35.665,-0.111
35.670,-0.015
35.675,0.003
35.680,-0.102
35.685,-0.061
35.690,0.009
35.695,-0.092
35.700,-0.118
35.705,-0.016
35.710,-0.061
35.715,-0.135
35.720,-0.045
35.725,-0.035
35.730,-0.144
35.735,-0.098
35.740,-0.019
35.745,-0.106
35.750,-0.116
35.755,0.001
35.760,-0.033
35.765,-0.104
35.770,-0.012
35.775,0.015
35.780,-0.068
35.785,-0.004
35.790,0.083
35.795,-0.004
35.800,-0.021
35.805,0.086
35.810,0.042
35.815,-0.034
35.820,0.059
35.825,0.079
35.830,-0.025
35.835,0.019
35.840,0.096
35.845,0.004
35.850,-0.019
35.855,0.083
35.860,0.043
35.865,-0.025
35.870,0.031
35.875,-0.082
35.880,-0.441
35.885,-0.797
35.890,-1.178
35.895,-1.528
35.900,-1.388
35.905,-0.700
35.910,-0.082
35.915,0.158
35.920,0.270
35.925,0.266
35.930,0.171
35.935,0.250
35.940,0.362
35.945,0.289
35.950,0.278
35.955,0.381
35.960,0.332
35.965,0.251
35.970,0.335
35.975,0.340
35.980,0.224
35.985,0.260
35.990,0.324
35.995,0.217
36.000,0.187
36.005,0.279
36.010,0.221
36.015,0.131
36.020,0.210
36.025,0.219
36.030,0.106
36.035,0.141
36.040,0.207
36.045,0.101
36.050,0.064
36.055,0.155
36.060,0.100
36.065,0.011
36.070,0.090
36.075,0.097
36.080,-0.019
36.085,0.017
36.090,0.082
36.095,-0.027
36.100,-0.063
36.105,0.025
36.110,-0.036
36.115,-0.130
36.120,-0.056
36.125,-0.058
36.130,-0.184
36.135,-0.158
36.140,-0.097
36.145,-0.205
36.150,-0.238
36.155,-0.145
36.160,-0.198
36.165,-0.280
36.170,-0.193
36.175,-0.177
36.180,-0.279
36.185,-0.227
36.190,-0.132
36.195,-0.192
36.200,-0.164
36.205,-0.001
36.210,0.013
36.215,-0.003
36.220,0.149
36.225,0.218
36.230,0.153
36.235,0.229
36.240,0.327
36.245,0.250
36.250,0.242
36.255,0.351
36.260,0.303
36.265,0.220
36.270,0.309
36.275,0.321
36.280,0.205
36.285,0.241
36.290,0.306
36.295,0.199
36.300,0.166
36.305,0.256
36.310,0.199
36.315,0.113
36.320,0.192
36.325,0.199
36.330,0.087
36.335,0.121
36.340,0.185
36.345,0.082
36.350,0.052
36.355,0.146
36.360,0.091
36.365,0.008
36.370,0.095
36.375,0.106
36.380,-0.006
36.385,0.033
36.390,0.106
36.395,0.012
36.400,-0.013
36.405,0.084
36.410,0.032
36.415,-0.049
36.420,0.042
36.425,0.058
36.430,-0.050
36.435,-0.009
36.440,0.065
36.445,-0.029
36.450,-0.052
36.455,0.046
36.460,-0.002
36.465,-0.080
36.470,0.011
36.475,0.026
36.480,-0.080
36.485,-0.036
36.490,0.039
36.495,-0.056
36.500,-0.078
36.505,0.023
36.510,-0.027
36.515,-0.106
36.520,-0.017
36.525,-0.001
36.530,-0.105
36.535,-0.059
36.540,0.015
36.545,-0.081
36.550,-0.099
36.555,0.006
36.560,-0.042
36.565,-0.121
36.570,-0.032
36.575,-0.014
36.580,-0.119
36.585,-0.075
36.590,0.003
36.595,-0.090
36.600,-0.111
36.605,-0.006
36.610,-0.049
36.615,-0.125
36.620,-0.034
36.625,-0.017
36.630,-0.122
36.635,-0.077
36.640,-0.001
36.645,-0.094
36.650,-0.114
36.655,-0.009
36.660,-0.053
36.665,-0.128
36.670,-0.033
36.675,-0.011
36.680,-0.117
36.685,-0.073
36.690,0.006
36.695,-0.085
36.700,-0.106
36.705,-0.002
36.710,-0.045
36.715,-0.119
36.720,-0.025
36.725,-0.003
36.730,-0.109
36.735,-0.065
36.740,0.013
36.745,-0.078
36.750,-0.099
36.755,0.006
36.760,-0.037
36.765,-0.113
36.770,-0.017
36.775,0.005
36.780,-0.098
36.785,-0.052
36.790,0.024
36.795,-0.069
36.800,-0.086
36.805,0.022
36.810,-0.023
36.815,-0.099
36.820,-0.010
36.825,0.000
36.830,-0.113
36.835,-0.076
36.840,0.001
36.845,-0.090
36.850,-0.113
36.855,-0.011
36.860,-0.060
36.865,-0.144
36.870,-0.052
36.875,-0.026
36.880,-0.124
36.885,-0.073
36.890,0.018
36.895,-0.061
36.900,-0.080
36.905,0.022
36.910,-0.009
36.915,-0.065
36.920,0.043
36.925,0.079
36.930,-0.020
36.935,0.022
36.940,0.100
36.945,0.008
36.950,-0.013
36.955,0.092
36.960,0.049
36.965,-0.026
36.970,0.066
36.975,0.086
36.980,-0.020
36.985,0.021
36.990,0.099
36.995,0.015
37.000,-0.011
37.005,0.024
37.010,-0.190
37.015,-0.573
37.020,-0.922
37.025,-1.308
37.030,-1.521
37.035,-1.146
37.040,-0.404
37.045,0.059
37.050,0.199
37.055,0.283
37.060,0.231
37.065,0.171
37.070,0.300
37.075,0.351
37.080,0.263
37.085,0.311
37.090,0.390
37.095,0.293
37.100,0.262
37.105,0.356
37.110,0.302
37.115,0.210
37.120,0.287
37.125,0.299
37.130,0.183
37.135,0.212
37.140,0.280
37.145,0.178
37.150,0.144
37.155,0.234
37.160,0.178
37.165,0.089
37.170,0.167
37.175,0.178
37.180,0.063
37.185,0.093
37.190,0.160
37.195,0.058
37.200,0.021
37.205,0.113
37.210,0.060
37.215,-0.031
37.220,0.047
37.225,0.054
37.230,-0.067
37.235,-0.041
37.240,0.024
37.245,-0.079
37.250,-0.118
37.255,-0.034
37.260,-0.098
37.265,-0.194
37.270,-0.122
37.275,-0.118
37.280,-0.236
37.285,-0.206
37.290,-0.137
37.295,-0.238
37.300,-0.270
37.305,-0.168
37.310,-0.212
37.315,-0.289
37.320,-0.184
37.325,-0.136
37.330,-0.207
37.335,-0.117
37.340,0.022
37.345,-0.007
37.350,0.028
37.355,0.185
37.360,0.188
37.365,0.148
37.370,0.269
37.375,0.312
37.380,0.222
37.385,0.275
37.390,0.356
37.395,0.263
37.400,0.237
37.405,0.334
37.410,0.281
37.415,0.189
37.420,0.268
37.425,0.280
37.430,0.165
37.435,0.194
37.440,0.261
37.445,0.160
37.450,0.125
37.455,0.217
37.460,0.163
37.465,0.072
37.470,0.152
37.475,0.162
37.480,0.047
37.485,0.080
37.490,0.148
37.495,0.051
37.500,0.023
37.505,0.119
37.510,0.070
37.515,-0.016
37.520,0.067
37.525,0.088
37.530,-0.022
37.535,0.011
37.540,0.087
37.545,-0.008
37.550,-0.038
37.555,0.066
37.560,0.024
37.565,-0.056
37.570,0.032
37.575,0.049
37.580,-0.062
37.585,-0.023
37.590,0.054
37.595,-0.039
37.600,-0.066
37.605,0.037
37.610,-0.006
37.615,-0.090
37.620,-0.003
37.625,0.020
37.630,-0.087
37.635,-0.053
37.640,0.023
37.645,-0.065
37.650,-0.089
37.655,0.014
37.660,-0.030
37.665,-0.110
37.670,-0.020
37.675,0.002
37.680,-0.107
37.685,-0.069
37.690,0.008
37.695,-0.087
37.700,-0.111
37.705,-0.002
37.710,-0.044
37.715,-0.124
37.720,-0.034
37.725,-0.015
37.730,-0.117
37.735,-0.072
37.740,0.006
37.745,-0.087
37.750,-0.112
37.755,-0.010
37.760,-0.053
37.765,-0.132
37.770,-0.041
37.775,-0.015
37.780,-0.120
37.785,-0.081
37.790,0.004
37.795,-0.083
37.800,-0.109
37.805,-0.005
37.810,-0.048
37.815,-0.126
37.820,-0.033
37.825,-0.013
37.830,-0.119
37.835,-0.074
37.840,0.009
37.845,-0.079
37.850,-0.103
37.855,-0.001
37.860,-0.041
37.865,-0.117
37.870,-0.026
37.875,-0.003
37.880,-0.107
37.885,-0.063
37.890,0.020
37.895,-0.069
37.900,-0.096
37.905,0.006
37.910,-0.035
37.915,-0.109
37.920,-0.015
37.925,0.009
37.930,-0.097
37.935,-0.056
37.940,0.021
37.945,-0.077
37.950,-0.108
37.955,-0.008
37.960,-0.052
37.965,-0.129
37.970,-0.039
37.975,-0.022
37.980,-0.133
37.985,-0.095
37.990,-0.013
37.995,-0.098
38.000,-0.119
38.005,-0.010
38.010,-0.042
38.015,-0.108
38.020,-0.010
38.025,0.017
38.030,-0.077
38.035,-0.017
38.040,0.080
38.045,0.003
38.050,-0.017
38.055,0.088
38.060,0.048
38.065,-0.034
38.070,0.056
38.075,0.080
38.080,-0.026
38.085,0.013
38.090,0.091
38.095,0.002
38.100,-0.020
38.105,0.086
38.110,0.047
38.115,-0.028
38.120,0.062
38.125,0.040
38.130,-0.210
38.135,-0.450
38.140,-0.798
38.145,-1.324
38.150,-1.520
38.155,-1.154
38.160,-0.564
38.165,-0.046
38.170,0.263
38.175,0.287
38.180,0.167
38.185,0.212
38.190,0.329
38.195,0.272
38.200,0.264
38.205,0.373
38.210,0.330
38.215,0.244
38.220,0.329
38.225,0.346
38.230,0.230
38.235,0.261
38.240,0.331
38.245,0.228
38.250,0.188
38.255,0.280
38.260,0.231
38.265,0.139
38.270,0.215
38.275,0.228
38.280,0.112
38.285,0.143
38.290,0.210
38.295,0.103
38.300,0.065
38.305,0.161
38.310,0.111
38.315,0.019
38.320,0.095
38.325,0.110
38.330,-0.004
38.335,0.024
38.340,0.091
38.345,-0.014
38.350,-0.055
38.355,0.037
38.360,-0.017
38.365,-0.116
38.370,-0.045
38.375,-0.036
38.380,-0.159
38.385,-0.141
38.390,-0.078
38.395,-0.182
38.400,-0.225
38.405,-0.134
38.410,-0.183
38.415,-0.271
38.420,-0.187
38.425,-0.170
38.430,-0.277
38.435,-0.234
38.440,-0.145
38.445,-0.211
38.450,-0.197
38.455,-0.044
38.460,-0.032
38.465,-0.058
38.470,0.092
38.475,0.173
38.480,0.113
38.485,0.192
38.490,0.305
38.495,0.239
38.500,0.227
38.505,0.345
38.510,0.309
38.515,0.223
38.520,0.307
38.525,0.328
38.530,0.211
38.535,0.238
38.540,0.307
38.545,0.207
38.550,0.172
38.555,0.263
38.560,0.208
38.565,0.115
38.570,0.196
38.575,0.213
38.580,0.093
38.585,0.120
38.590,0.194
38.595,0.094
38.600,0.053
38.605,0.149
38.610,0.100
38.615,0.010
38.620,0.095
38.625,0.117
38.630,0.008
38.635,0.041
38.640,0.114
38.645,0.020
38.650,-0.009
38.655,0.089
38.660,0.040
38.665,-0.044
38.670,0.042
38.675,0.065
38.680,-0.041
38.685,-0.002
38.690,0.077
38.695,-0.019
38.700,-0.056
38.705,0.045
38.710,0.004
38.715,-0.079
38.720,0.010
38.725,0.034
38.730,-0.075
38.735,-0.038
38.740,0.040
38.745,-0.052
38.750,-0.079
38.755,0.020
38.760,-0.025
38.765,-0.108
38.770,-0.020
38.775,0.006
38.780,-0.099
38.785,-0.062
38.790,0.017
38.795,-0.075
38.800,-0.105
38.805,-0.002
38.810,-0.040
38.815,-0.121
38.820,-0.032
38.825,-0.004
38.830,-0.109
38.835,-0.073
38.840,0.005
38.845,-0.085
38.850,-0.113
38.855,-0.008
38.860,-0.049
38.865,-0.129
38.870,-0.039
38.875,-0.013
38.880,-0.119
38.885,-0.080
38.890,0.002
38.895,-0.090
38.900,-0.119
38.905,-0.013
38.910,-0.049
38.915,-0.130
38.920,-0.039
38.925,-0.010
38.930,-0.115
38.935,-0.077
38.940,0.008
38.945,-0.081
38.950,-0.110
38.955,-0.003
38.960,-0.042
38.965,-0.125
38.970,-0.034
38.975,-0.005
38.980,-0.108
38.985,-0.067
38.990,0.015
38.995,-0.075
39.000,-0.103
39.005,0.004
39.010,-0.032
39.015,-0.112
39.020,-0.024
39.025,0.003
39.030,-0.099
39.035,-0.057
39.040,0.026
39.045,-0.064
39.050,-0.093
39.055,0.009
39.060,-0.037
39.065,-0.128
39.070,-0.043
39.075,-0.018
39.080,-0.124
39.085,-0.087
39.090,-0.006
39.095,-0.098
39.100,-0.129
39.105,-0.021
39.110,-0.052
39.115,-0.130
39.120,-0.037
39.125,0.001
39.130,-0.096
39.135,-0.058
39.140,0.032
39.145,-0.035
39.150,-0.043
39.155,0.077
39.160,0.047
39.165,-0.036
39.170,0.052
39.175,0.080
39.180,-0.022
39.185,0.017
39.190,0.097
39.195,0.006
39.200,-0.021
39.205,0.086
39.210,0.052
39.215,-0.029
39.220,0.059
39.225,0.088
39.230,-0.012
39.235,-0.001
39.240,-0.026
39.245,-0.337
39.250,-0.741
39.255,-1.097
39.260,-1.443
39.265,-1.450
39.270,-0.844
39.275,-0.135
39.280,0.144
39.285,0.233
39.290,0.294
39.295,0.205
39.300,0.199
39.305,0.341
39.310,0.328
39.315,0.255
39.320,0.343
39.325,0.366
39.330,0.255
39.335,0.285
39.340,0.356
39.345,0.257
39.350,0.218
39.355,0.312
39.360,0.264
39.365,0.169
39.370,0.243
39.375,0.259
39.380,0.141
39.385,0.164
39.390,0.236
39.395,0.140
39.400,0.099
39.405,0.190
39.410,0.138
39.415,0.043
39.420,0.122
39.425,0.140
39.430,0.024
39.435,0.048
39.440,0.116
39.445,0.016
39.450,-0.025
39.455,0.067
39.460,0.017
39.465,-0.079
39.470,-0.006
39.475,0.005
39.480,-0.117
39.485,-0.096
39.490,-0.036
39.495,-0.146
39.500,-0.195
39.505,-0.109
39.510,-0.160
39.515,-0.255
39.520,-0.177
39.525,-0.156
39.530,-0.268
39.535,-0.238
39.540,-0.161
39.545,-0.249
39.550,-0.268
39.555,-0.142
39.560,-0.146
39.565,-0.186
39.570,-0.044
39.575,0.047
39.580,0.004
39.585,0.096
39.590,0.228
39.595,0.181
39.600,0.185
39.605,0.313
39.610,0.293
39.615,0.221
39.620,0.314
39.625,0.343
39.630,0.235
39.635,0.265
39.640,0.339
39.645,0.242
39.650,0.203
39.655,0.293
39.660,0.241
39.665,0.147
39.670,0.224
39.675,0.241
39.680,0.125
39.685,0.150
39.690,0.219
39.695,0.119
39.700,0.081
39.705,0.173
39.710,0.127
39.715,0.036
39.720,0.112
39.725,0.133
39.730,0.020
39.735,0.048
39.740,0.123
39.745,0.029
39.750,-0.005
39.755,0.094
39.760,0.052
39.765,-0.034
39.770,0.050
39.775,0.074
39.780,-0.037
39.785,-0.004
39.790,0.076
39.795,-0.015
39.800,-0.044
39.805,0.058
39.810,0.016
39.815,-0.069
39.820,0.014
39.825,0.039
39.830,-0.069
39.835,-0.034
39.840,0.047
39.845,-0.044
39.850,-0.075
39.855,0.026
39.860,-0.015
39.865,-0.100
39.870,-0.014
39.875,0.013
39.880,-0.094
39.885,-0.061
39.890,0.021
39.895,-0.064
39.900,-0.096
39.905,0.003
39.910,-0.036
39.915,-0.120
39.920,-0.034
39.925,-0.006
39.930,-0.112
39.935,-0.077
39.940,0.005
39.945,-0.082
39.950,-0.111
39.955,-0.007
39.960,-0.047
39.965,-0.130
39.970,-0.039
39.975,-0.010
39.980,-0.118
39.985,-0.083
39.990,-0.001
39.995,-0.087
40.000,-0.114
40.005,-0.010
40.010,-0.047
40.015,-0.131
40.020,-0.043
40.025,-0.012
40.030,-0.117
40.035,-0.080
40.040,0.001
40.045,-0.086
40.050,-0.112
40.055,-0.004
40.060,-0.041
40.065,-0.124
40.070,-0.034
40.075,-0.004
40.080,-0.108
40.085,-0.073
40.090,0.009
40.095,-0.076
40.100,-0.106
40.105,-0.001
40.110,-0.034
40.115,-0.116
40.120,-0.027
40.125,0.001
40.130,-0.104
40.135,-0.066
40.140,0.018
40.145,-0.069
40.150,-0.097
40.155,0.012
40.160,-0.022
40.165,-0.106
40.170,-0.018
40.175,0.012
40.180,-0.093
40.185,-0.056
40.190,0.028
40.195,-0.060
40.200,-0.087
40.205,0.022
40.210,-0.013
40.215,-0.098
40.220,-0.018
40.225,0.001
40.230,-0.112
40.235,-0.079
40.240,0.006
40.245,-0.080
40.250,-0.111
40.255,-0.011
40.260,-0.053
40.265,-0.137
40.270,-0.044
40.275,-0.010
40.280,-0.110
40.285,-0.062
40.290,0.032
40.295,-0.052
40.300,-0.080
40.305,0.037
40.310,0.021
40.315,-0.046
40.320,0.053
40.325,0.089
40.330,-0.015
40.335,0.020
40.340,0.102
40.345,0.017
40.350,-0.014
40.355,0.091
40.360,0.058
40.365,-0.024
40.370,0.063
40.375,0.093
40.380,-0.013
40.385,0.020
40.390,0.108
40.395,0.020
40.400,-0.065
40.405,-0.112
40.410,-0.425
40.415,-0.927
40.420,-1.278
40.425,-1.436
40.430,-1.292
40.435,-0.624
40.440,0.075
40.445,0.224
40.450,0.188
40.455,0.276
40.460,0.256
40.465,0.209
40.470,0.328
40.475,0.377
40.480,0.277
40.485,0.310
40.490,0.388
40.495,0.295
40.500,0.257
40.505,0.352
40.510,0.303
40.515,0.205
40.520,0.277
40.525,0.295
40.530,0.180
40.535,0.204
40.540,0.275
40.545,0.176
40.550,0.132
40.555,0.226
40.560,0.180
40.565,0.084
40.570,0.158
40.575,0.175
40.580,0.056
40.585,0.080
40.590,0.154
40.595,0.056
40.600,0.014
40.605,0.110
40.610,0.062
40.615,-0.037
40.620,0.038
40.625,0.054
40.630,-0.068
40.635,-0.050
40.640,0.016
40.645,-0.090
40.650,-0.140
40.655,-0.055
40.660,-0.109
40.665,-0.212
40.670,-0.145
40.675,-0.132
40.680,-0.253
40.685,-0.232
40.690,-0.156
40.695,-0.247
40.700,-0.282
40.705,-0.180
40.710,-0.213
40.715,-0.286
40.720,-0.177
40.725,-0.108
40.730,-0.163
40.735,-0.071
40.740,0.077
40.745,0.053
40.750,0.076
40.755,0.229
40.760,0.233
40.765,0.179
40.770,0.288
40.775,0.334
40.780,0.238
40.785,0.277
40.790,0.360
40.795,0.270
40.800,0.234
40.805,0.329
40.810,0.282
40.815,0.186
40.820,0.261
40.825,0.280
40.830,0.161
40.835,0.182
40.840,0.257
40.845,0.159
40.850,0.113
40.855,0.204
40.860,0.156
40.865,0.062
40.870,0.140
40.875,0.164
40.880,0.049
40.885,0.070
40.890,0.144
40.895,0.051
40.900,0.017
40.905,0.117
40.910,0.072
40.915,-0.021
40.920,0.056
40.925,0.080
40.930,-0.030
40.935,-0.002
40.940,0.080
40.945,-0.006
40.950,-0.039
40.955,0.061
40.960,0.024
40.965,-0.061
40.970,0.024
40.975,0.052
40.980,-0.059
40.985,-0.030
40.990,0.053
40.995,-0.034
41.000,-0.071
41.005,0.032
41.010,-0.004
41.015,-0.093
41.020,-0.007
41.025,0.024
41.030,-0.084
41.035,-0.054
41.040,0.025
41.045,-0.065
41.050,-0.098
41.055,0.007
41.060,-0.027
41.065,-0.114
41.070,-0.032
41.075,-0.002
41.080,-0.107
41.085,-0.072
41.090,0.012
41.095,-0.079
41.100,-0.116
41.105,-0.012
41.110,-0.044
41.115,-0.126
41.120,-0.041
41.125,-0.013
41.130,-0.120
41.135,-0.085
41.140,0.002
41.145,-0.087
41.150,-0.122
41.155,-0.016
41.160,-0.049
41.165,-0.135
41.170,-0.051
41.175,-0.017
41.180,-0.120
41.185,-0.087
41.190,-0.001
41.195,-0.087
41.200,-0.119
41.205,-0.012
41.210,-0.043
41.215,-0.127
41.220,-0.040
41.225,-0.007
41.230,-0.114
41.235,-0.083
41.240,0.004
41.245,-0.078
41.250,-0.110
41.255,-0.007
41.260,-0.039
41.265,-0.122
41.270,-0.035
41.275,0.000
41.280,-0.104
41.285,-0.071
41.290,0.015
41.295,-0.071
41.300,-0.104
41.305,0.005
41.310,-0.025
41.315,-0.109
41.320,-0.022
41.325,0.010
41.330,-0.094
41.335,-0.057
41.340,0.029
41.345,-0.058
41.350,-0.091
41.355,0.016
41.360,-0.015
41.365,-0.097
41.370,-0.009
41.375,0.024
41.380,-0.083
41.385,-0.049
41.390,0.038
41.395,-0.047
41.400,-0.077
41.405,0.029
41.410,-0.003
41.415,-0.088
41.420,-0.001
41.425,0.033
41.430,-0.073
41.435,-0.040
41.440,0.046
41.445,-0.038
41.450,-0.068
41.455,0.038
41.460,0.007
41.465,-0.079
41.470,0.005
41.475,0.040
41.480,-0.062
41.485,-0.027
41.490,0.060
41.495,-0.025
41.500,-0.060
41.505,0.043
41.510,0.013
41.515,-0.069
41.520,0.017
41.525,0.048
41.530,-0.057
41.535,-0.023
41.540,0.064
41.545,-0.024
41.550,-0.066
41.555,0.030
41.560,-0.009
41.565,-0.096
41.570,-0.010
41.575,0.023
41.580,-0.086
41.585,-0.059
41.590,0.021
41.595,-0.066
41.600,-0.095
41.605,0.017
41.610,-0.010
41.615,-0.087
41.620,0.008
41.625,0.044
41.630,-0.061
41.635,-0.018
41.640,0.085
41.645,0.016
41.650,-0.006
41.655,0.102
41.660,0.069
41.665,-0.015
41.670,0.069
41.675,0.102
41.680,-0.001
41.685,0.033
41.690,0.119
41.695,0.033
41.700,-0.003
41.705,0.099
41.710,0.063
41.715,-0.024
41.720,0.067
41.725,0.102
41.730,-0.054
41.735,-0.165
41.740,-0.349
41.745,-0.848
41.750,-1.323
41.755,-1.418
41.760,-1.217
41.765,-0.687
41.770,0.012
41.775,0.295
41.780,0.188
41.785,0.200
41.790,0.302
41.795,0.256
41.800,0.256
41.805,0.378
41.810,0.352
41.815,0.265
41.820,0.346
41.825,0.373
41.830,0.256
41.835,0.277
41.840,0.353
41.845,0.255
41.850,0.209
41.855,0.303
41.860,0.256
41.865,0.155
41.870,0.228
41.875,0.250
41.880,0.134
41.885,0.154
41.890,0.227
41.895,0.132
41.900,0.085
41.905,0.178
41.910,0.135
41.915,0.036
41.920,0.110
41.925,0.134
41.930,0.015
41.935,0.032
41.940,0.105
41.945,0.011
41.950,-0.036
41.955,0.053
41.960,0.007
41.965,-0.094
41.970,-0.026
41.975,-0.009
41.980,-0.131
41.985,-0.116
41.990,-0.049
41.995,-0.155
42.000,-0.211
42.005,-0.127
42.010,-0.174
42.015,-0.269
42.020,-0.193
42.025,-0.169
42.030,-0.280
42.035,-0.247
42.040,-0.157
42.045,-0.235
42.050,-0.255
42.055,-0.125
42.060,-0.115
42.065,-0.149
42.070,-0.007
42.075,0.087
42.080,0.040
42.085,0.120
42.090,0.249
42.095,0.202
42.100,0.195
42.105,0.319
42.110,0.299
42.115,0.215
42.120,0.300
42.125,0.333
42.130,0.224
42.135,0.249
42.140,0.326
42.145,0.231
42.150,0.186
42.155,0.279
42.160,0.235
42.165,0.136
42.170,0.205
42.175,0.227
42.180,0.111
42.185,0.132
42.190,0.209
42.195,0.114
42.200,0.067
42.205,0.164
42.210,0.129
42.215,0.030
42.220,0.100
42.225,0.125
42.230,0.010
42.235,0.032
42.240,0.112
42.245,0.023
42.250,-0.015
42.255,0.085
42.260,0.052
42.265,-0.041
42.270,0.037
42.275,0.070
42.280,-0.040
42.285,-0.018
42.290,0.067
42.295,-0.017
42.300,-0.053
42.305,0.049
42.310,0.015
42.315,-0.074
42.320,0.008
42.325,0.038
42.330,-0.072
42.335,-0.047
42.340,0.036
42.345,-0.048
42.350,-0.084
42.355,0.020
42.360,-0.011
42.365,-0.099
42.370,-0.018
42.375,0.013
42.380,-0.096
42.385,-0.068
42.390,0.018
42.395,-0.067
42.400,-0.106
42.405,-0.003
42.410,-0.037
42.415,-0.125
42.420,-0.039
42.425,-0.004
42.430,-0.110
42.435,-0.081
42.440,0.006
42.445,-0.080
42.450,-0.119
42.455,-0.015
42.460,-0.044
42.465,-0.130
42.470,-0.046
42.475,-0.012
42.480,-0.120
42.485,-0.092
42.490,-0.005
42.495,-0.087
42.500,-0.123
42.505,-0.016
42.510,-0.043
42.515,-0.129
42.520,-0.046
42.525,-0.013
42.530,-0.118
42.535,-0.088
42.540,0.000
42.545,-0.084
42.550,-0.121
42.555,-0.015
42.560,-0.044
42.565,-0.129
42.570,-0.044
42.575,-0.005
42.580,-0.111
42.585,-0.082
42.590,0.009
42.595,-0.075
42.600,-0.111
42.605,-0.003
42.610,-0.032
42.615,-0.116
42.620,-0.033
42.625,0.002
42.630,-0.101
42.635,-0.069
42.640,0.020
42.645,-0.062
42.650,-0.097
42.655,0.009
42.660,-0.021
42.665,-0.108
42.670,-0.022
42.675,0.016
42.680,-0.088
42.685,-0.058
42.690,0.031
42.695,-0.050
42.700,-0.084
42.705,0.021
42.710,-0.007
42.715,-0.092
42.720,-0.005
42.725,0.032
42.730,-0.076
42.735,-0.047
42.740,0.041
42.745,-0.040
42.750,-0.073
42.755,0.032
42.760,0.002
42.765,-0.083
42.770,0.003
42.775,0.041
42.780,-0.066
42.785,-0.045
42.790,0.032
42.795,-0.057
42.800,-0.096
42.805,0.010
42.810,-0.019
42.815,-0.108
42.820,-0.030
42.825,-0.002
42.830,-0.109
42.835,-0.076
42.840,0.014
42.845,-0.065
42.850,-0.093
42.855,0.025
42.860,0.005
42.865,-0.082
42.870,0.005
42.875,0.057
42.880,-0.028
42.885,0.020
42.890,0.115
42.895,0.028
42.900,-0.010
42.905,0.096
42.910,0.067
42.915,-0.020
42.920,0.063
42.925,0.097
42.930,-0.009
42.935,0.021
42.940,0.107
42.945,0.023
42.950,-0.014
42.955,0.093
42.960,0.073
42.965,-0.027
42.970,-0.028
42.975,-0.180
42.980,-0.615
42.985,-1.039
42.990,-1.331
42.995,-1.450
43.000,-1.078
43.005,-0.302
43.010,0.159
43.015,0.189
43.020,0.255
43.025,0.285
43.030,0.196
43.035,0.262
43.040,0.375
43.045,0.308
43.050,0.279
43.055,0.384
43.060,0.345
43.065,0.245
43.070,0.319
43.075,0.345
43.080,0.225
43.085,0.242
43.090,0.318
43.095,0.223
43.100,0.178
43.105,0.270
43.110,0.227
43.115,0.127
43.120,0.193
43.125,0.215
43.130,0.100
43.135,0.119
43.140,0.197
43.145,0.102
43.150,0.053
43.155,0.149
43.160,0.112
43.165,0.013
43.170,0.082
43.175,0.105
43.180,-0.016
43.185,-0.003
43.190,0.071
43.195,-0.027
43.200,-0.078
43.205,0.013
43.210,-0.032
43.215,-0.140
43.220,-0.081
43.225,-0.065
43.230,-0.187
43.235,-0.177
43.240,-0.106
43.245,-0.201
43.250,-0.252
43.255,-0.161
43.260,-0.197
43.265,-0.290
43.270,-0.210
43.275,-0.176
43.280,-0.278
43.285,-0.237
43.290,-0.125
43.295,-0.168
43.300,-0.153
43.305,0.012
43.310,0.042
43.315,0.011
43.320,0.148
43.325,0.233
43.330,0.168
43.335,0.226
43.340,0.331
43.345,0.262
43.350,0.235
43.355,0.343
43.360,0.313
43.365,0.222
43.370,0.297
43.375,0.323
43.380,0.206
43.385,0.221
43.390,0.295
43.395,0.200
43.400,0.151
43.405,0.248
43.410,0.212
43.415,0.108
43.420,0.175
43.425,0.201
43.430,0.086
43.435,0.101
43.440,0.178
43.445,0.085
43.450,0.039
43.455,0.135
43.460,0.099
43.465,0.005
43.470,0.083
43.475,0.115
43.480,0.003
43.485,0.022
43.490,0.104
43.495,0.016
43.500,-0.026
43.505,0.074
43.510,0.040
43.515,-0.050
43.520,0.028
43.525,0.062
43.530,-0.045
43.535,-0.020
43.540,0.064
43.545,-0.021
43.550,-0.060
43.555,0.040
43.560,0.009
43.565,-0.077
43.570,0.004
43.575,0.034
43.580,-0.075
43.585,-0.049
43.590,0.036
43.595,-0.049
43.600,-0.089
43.605,0.015
43.610,-0.016
43.615,-0.108
43.620,-0.025
43.625,0.010
43.630,-0.102
43.635,-0.076
43.640,0.012
43.645,-0.071
43.650,-0.107
43.655,-0.001
43.660,-0.031
43.665,-0.125
43.670,-0.043
43.675,-0.005
43.680,-0.112
43.685,-0.083
43.690,0.004
43.695,-0.083
43.700,-0.119
43.705,-0.012
43.710,-0.041
43.715,-0.130
43.720,-0.046
43.725,-0.010
43.730,-0.118
43.735,-0.093
43.740,-0.003
43.745,-0.082
43.750,-0.119
43.755,-0.014
43.760,-0.041
43.765,-0.129
43.770,-0.047
43.775,-0.009
43.780,-0.113
43.785,-0.085
43.790,0.004
43.795,-0.077
43.800,-0.111
43.805,-0.006
43.810,-0.038
43.815,-0.128
43.820,-0.045
43.825,-0.005
43.830,-0.107
43.835,-0.076
43.840,0.013
43.845,-0.070
43.850,-0.106
43.855,0.001
43.860,-0.027
43.865,-0.115
43.870,-0.029
43.875,0.009
43.880,-0.097
43.885,-0.065
43.890,0.025
43.895,-0.059
43.900,-0.097
43.905,0.010
43.910,-0.013
43.915,-0.098
43.920,-0.015
43.925,0.020
43.930,-0.084
43.935,-0.053
43.940,0.037
43.945,-0.045
43.950,-0.083
43.955,0.021
43.960,-0.007
43.965,-0.092
43.970,-0.006
43.975,0.031
43.980,-0.076
43.985,-0.053
43.990,0.029
43.995,-0.060
44.000,-0.101
44.005,0.002
44.010,-0.027
44.015,-0.115
44.020,-0.035
44.025,-0.002
44.030,-0.113
44.035,-0.086
44.040,0.007
44.045,-0.069
44.050,-0.102
44.055,0.013
44.060,-0.002
44.065,-0.087
44.070,-0.007
44.075,0.042
44.080,-0.040
44.085,0.004
44.090,0.104
44.095,0.029
44.100,-0.008
44.105,0.095
44.110,0.063
44.115,-0.028
44.120,0.055
44.125,0.095
44.130,-0.007
44.135,0.022
44.140,0.107
44.145,0.024
44.150,-0.018
44.155,0.086
44.160,0.065
44.165,-0.020
44.170,0.016
44.175,-0.086
44.180,-0.457
44.185,-0.843
44.190,-1.200
44.195,-1.499
44.200,-1.332
44.205,-0.623
44.210,-0.017
44.215,0.169
44.220,0.261
44.225,0.280
44.230,0.186
44.235,0.250
44.240,0.371
44.245,0.304
44.250,0.273
44.255,0.381
44.260,0.350
44.265,0.254
44.270,0.327
44.275,0.354
44.280,0.235
44.285,0.248
44.290,0.326
44.295,0.233
44.300,0.182
44.305,0.273
44.310,0.234
44.315,0.131
44.320,0.200
44.325,0.227
44.330,0.110
44.335,0.126
44.340,0.203
44.345,0.108
44.350,0.059
44.355,0.155
44.360,0.115
44.365,0.013
44.370,0.081
44.375,0.105
44.380,-0.010
44.385,0.007
44.390,0.081
44.395,-0.016
44.400,-0.070
44.405,0.018
44.410,-0.026
44.415,-0.132
44.420,-0.069
44.425,-0.051
44.430,-0.179
44.435,-0.173
44.440,-0.103
44.445,-0.202
44.450,-0.255
44.455,-0.164
44.460,-0.202
44.465,-0.299
44.470,-0.225
44.475,-0.188
44.480,-0.287
44.485,-0.249
44.490,-0.141
44.495,-0.190
44.500,-0.178
44.505,-0.011
44.510,0.027
44.515,-0.003
44.520,0.134
44.525,0.222
44.530,0.159
44.535,0.220
44.540,0.333
44.545,0.268
44.550,0.242
44.555,0.352
44.560,0.324
44.565,0.232
44.570,0.306
44.575,0.333
44.580,0.217
44.585,0.234
44.590,0.310
44.595,0.215
44.600,0.167
44.605,0.260
44.610,0.216
44.615,0.115
44.620,0.184
44.625,0.210
44.630,0.096
44.635,0.111
44.640,0.187
44.645,0.094
44.650,0.047
44.655,0.147
44.660,0.111
44.665,0.014
44.670,0.089
44.675,0.117
44.680,0.004
44.685,0.026
44.690,0.107
44.695,0.019
44.700,-0.022
44.705,0.076
44.710,0.044
44.715,-0.048
44.720,0.030
44.725,0.064
44.730,-0.044
44.735,-0.020
44.740,0.063
44.745,-0.023
44.750,-0.062
44.755,0.041
44.760,0.011
44.765,-0.080
44.770,0.001
44.775,0.037
44.780,-0.073
44.785,-0.048
44.790,0.037
44.795,-0.048
44.800,-0.089
44.805,0.014
44.810,-0.015
44.815,-0.107
44.820,-0.028
44.825,0.009
44.830,-0.098
44.835,-0.072
44.840,0.015
44.845,-0.070
44.850,-0.111
44.855,-0.006
44.860,-0.033
44.865,-0.123
44.870,-0.043
44.875,-0.007
44.880,-0.112
44.885,-0.086
44.890,-0.001
44.895,-0.083
44.900,-0.121
44.905,-0.017
44.910,-0.043
44.915,-0.131
44.920,-0.051
44.925,-0.013
44.930,-0.119
44.935,-0.093
44.940,-0.004
44.945,-0.085
44.950,-0.122
44.955,-0.019
44.960,-0.043
44.965,-0.128
44.970,-0.048
44.975,-0.013
44.980,-0.116
44.985,-0.086
44.990,0.000
44.995,-0.085
45.000,-0.122
45.005,-0.013
45.010,-0.038
45.015,-0.125
45.020,-0.042
45.025,-0.004
45.030,-0.108
45.035,-0.079
45.040,0.008
45.045,-0.073
45.050,-0.108
45.055,-0.003
45.060,-0.031
45.065,-0.119
45.070,-0.035
45.075,0.005
45.080,-0.099
45.085,-0.068
45.090,0.020
45.095,-0.065
45.100,-0.100
45.105,0.009
45.110,-0.019
45.115,-0.107
45.120,-0.023
