'Elapsed time','ECG'
'seconds','mV'
0.000,0.249
0.005,0.068
0.010,0.080
0.015,0.170
0.020,0.008
0.025,-0.046
0.030,0.114
0.035,0.075
0.040,-0.049
0.045,0.048
0.050,0.063
0.055,-0.092
0.060,-0.043
0.065,0.089
0.070,-0.016
0.075,-0.062
0.080,0.080
0.085,0.026
0.090,-0.065
0.095,0.107
0.100,0.157
0.105,-0.002
0.110,0.066
0.115,0.190
0.120,0.039
0.125,-0.010
0.130,0.147
0.135,0.087
0.140,-0.024
0.145,0.109
0.150,0.129
0.155,-0.036
0.160,0.012
0.165,0.107
0.170,-0.036
0.175,-0.066
0.180,0.093
0.185,0.052
0.190,-0.027
0.195,0.074
0.200,0.016
0.205,-0.347
0.210,-0.860
0.215,-1.505
0.220,-1.921
0.225,-1.779
0.230,-1.337
0.235,-0.687
0.240,0.060
0.245,0.580
0.250,0.616
0.255,0.376
0.260,0.401
0.265,0.500
0.270,0.309
0.275,0.223
0.280,0.379
0.285,0.331
0.290,0.202
0.295,0.321
0.300,0.335
0.305,0.149
0.310,0.195
0.315,0.312
0.320,0.171
0.325,0.111
0.330,0.238
0.335,0.165
0.340,0.040
0.345,0.157
0.350,0.178
0.355,0.019
0.360,0.061
0.365,0.153
0.370,0.024
0.375,-0.006
0.380,0.127
0.385,0.046
0.390,-0.077
0.395,0.051
0.400,0.068
0.405,-0.100
0.410,-0.043
0.415,0.048
0.420,-0.120
0.425,-0.171
0.430,-0.024
0.435,-0.080
0.440,-0.183
0.445,-0.065
0.450,-0.070
0.455,-0.244
0.460,-0.179
0.465,-0.056
0.470,-0.164
0.475,-0.155
0.480,0.023
0.485,-0.018
0.490,-0.081
0.495,0.106
0.500,0.161
0.505,0.037
0.510,0.143
0.515,0.275
0.520,0.150
0.525,0.143
0.530,0.315
0.535,0.239
0.540,0.103
0.545,0.230
0.550,0.254
0.555,0.090
0.560,0.149
0.565,0.258
0.570,0.115
0.575,0.065
0.580,0.197
0.585,0.128
0.590,0.019
0.595,0.160
0.600,0.197
0.605,0.026
0.610,0.049
0.615,0.142
0.620,0.020
0.625,0.005
0.630,0.142
0.635,0.046
0.640,-0.081
0.645,0.053
0.650,0.082
0.655,-0.076
0.660,-0.011
0.665,0.099
0.670,-0.053
0.675,-0.087
0.680,0.073
0.685,0.007
0.690,-0.108
0.695,0.014
0.700,0.021
0.705,-0.137
0.710,-0.060
0.715,0.060
0.720,-0.077
0.725,-0.112
0.730,0.029
0.735,-0.041
0.740,-0.139
0.745,0.013
0.750,0.036
0.755,-0.137
0.760,-0.074
0.765,0.039
0.770,-0.092
0.775,-0.113
0.780,0.032
0.785,-0.043
0.790,-0.156
0.795,-0.018
0.800,0.020
0.805,-0.127
0.810,-0.073
0.815,0.027
0.820,-0.104
0.825,-0.126
0.830,0.022
0.835,-0.060
0.840,-0.193
0.845,-0.084
0.850,-0.063
0.855,-0.186
0.860,-0.090
0.865,0.000
0.870,-0.184
0.875,-0.220
0.880,-0.059
0.885,-0.135
0.890,-0.229
0.895,-0.067
0.900,-0.023
0.905,-0.151
0.910,-0.069
0.915,0.042
0.920,-0.085
0.925,-0.077
0.930,0.099
0.935,0.037
0.940,-0.052
0.945,0.093
0.950,0.100
0.955,-0.072
0.960,-0.001
0.965,0.115
0.970,-0.029
0.975,-0.054
0.980,0.089
0.985,0.005
0.990,-0.091
0.995,0.058
1.000,0.070
1.005,-0.088
1.010,0.000
1.015,0.136
1.020,-0.015
1.025,-0.105
1.030,-0.154
1.035,-0.761
1.040,-1.624
1.045,-1.934
1.050,-1.789
1.055,-1.502
1.060,-0.743
1.065,0.181
1.070,0.485
1.075,0.486
1.080,0.571
1.085,0.468
1.090,0.338
1.095,0.432
1.100,0.418
1.105,0.248
1.110,0.308
1.115,0.407
1.120,0.255
1.125,0.223
1.130,0.357
1.135,0.259
1.140,0.146
1.145,0.271
1.150,0.272
1.155,0.126
1.160,0.206
1.165,0.289
1.170,0.118
1.175,0.086
1.180,0.229
1.185,0.129
1.190,0.012
1.195,0.150
1.200,0.159
1.205,0.004
1.210,0.068
1.215,0.141
1.220,-0.015
1.225,-0.031
1.230,0.105
1.235,0.012
1.240,-0.105
1.245,0.018
1.250,0.021
1.255,-0.130
1.260,-0.054
1.265,0.018
1.270,-0.148
1.275,-0.165
1.280,-0.024
1.285,-0.102
1.290,-0.180
1.295,-0.022
1.300,0.010
1.305,-0.104
1.310,0.007
1.315,0.125
1.320,0.019
1.325,0.052
1.330,0.227
1.335,0.181
1.340,0.121
1.345,0.277
1.350,0.293
1.355,0.153
1.360,0.227
1.365,0.308
1.370,0.165
1.375,0.156
1.380,0.285
1.385,0.181
1.390,0.076
1.395,0.210
1.400,0.207
1.405,0.061
1.410,0.153
1.415,0.234
1.420,0.065
1.425,0.052
1.430,0.201
1.435,0.106
1.440,-0.009
1.445,0.117
1.450,0.110
1.455,-0.046
1.460,0.036
1.465,0.141
1.470,0.009
1.475,-0.012
1.480,0.107
1.485,0.007
1.490,-0.094
1.495,0.036
1.500,0.030
1.505,-0.112
1.510,-0.012
1.515,0.086
1.520,-0.073
1.525,-0.086
1.530,0.058
1.535,-0.047
1.540,-0.149
1.545,0.008
1.550,0.026
1.555,-0.113
1.560,-0.018
1.565,0.072
1.570,-0.086
1.575,-0.104
1.580,0.026
1.585,-0.068
1.590,-0.150
1.595,0.005
1.600,0.003
1.605,-0.160
1.610,-0.073
1.615,0.045
1.620,-0.096
1.625,-0.129
1.630,-0.012
1.635,-0.116
1.640,-0.206
1.645,-0.048
1.650,-0.039
1.655,-0.192
1.660,-0.120
1.665,-0.052
1.670,-0.202
1.675,-0.187
1.680,-0.041
1.685,-0.124
1.690,-0.187
1.695,-0.027
1.700,-0.019
1.705,-0.135
1.710,-0.022
1.715,0.071
1.720,-0.059
1.725,-0.034
1.730,0.111
1.735,0.018
1.740,-0.065
1.745,0.076
1.750,0.076
1.755,-0.061
1.760,0.027
1.765,0.116
1.770,-0.036
1.775,-0.055
1.780,0.084
1.785,0.000
1.790,-0.087
1.795,0.053
1.800,0.065
1.805,-0.049
1.810,0.012
1.815,-0.001
1.820,-0.370
1.825,-0.905
1.830,-1.494
1.835,-1.889
1.840,-1.793
1.845,-1.367
1.850,-0.692
1.855,0.038
1.860,0.517
1.865,0.581
1.870,0.370
1.875,0.386
1.880,0.523
1.885,0.378
1.890,0.258
1.895,0.386
1.900,0.378
1.905,0.228
1.910,0.298
1.915,0.370
1.920,0.222
1.925,0.210
1.930,0.319
1.935,0.212
1.940,0.128
1.945,0.256
1.950,0.233
1.955,0.088
1.960,0.169
1.965,0.228
1.970,0.072
1.975,0.083
1.980,0.220
1.985,0.113
1.990,0.014
1.995,0.140
2.000,0.115
2.005,-0.034
2.010,0.053
2.015,0.117
2.020,-0.050
2.025,-0.064
2.030,0.060
2.035,-0.043
2.040,-0.138
2.045,-0.013
2.050,-0.041
2.055,-0.189
2.060,-0.085
2.065,-0.002
2.070,-0.156
2.075,-0.149
2.080,-0.009
2.085,-0.089
2.090,-0.141
2.095,0.031
2.100,0.056
2.105,-0.043
2.110,0.104
2.115,0.236
2.120,0.115
2.125,0.130
2.130,0.286
2.135,0.214
2.140,0.135
2.145,0.276
2.150,0.268
2.155,0.125
2.160,0.217
2.165,0.297
2.170,0.156
2.175,0.162
2.180,0.285
2.185,0.166
2.190,0.068
2.195,0.210
2.200,0.200
2.205,0.053
2.210,0.126
2.215,0.180
2.220,0.028
2.225,0.035
2.230,0.161
2.235,0.046
2.240,-0.045
2.245,0.098
2.250,0.090
2.255,-0.050
2.260,0.041
2.265,0.114
2.270,-0.040
2.275,-0.042
2.280,0.088
2.285,-0.010
2.290,-0.084
2.295,0.064
2.300,0.042
2.305,-0.104
2.310,-0.005
2.315,0.072
2.320,-0.085
2.325,-0.078
2.330,0.053
2.335,-0.067
2.340,-0.143
2.345,0.021
2.350,0.014
2.355,-0.112
2.360,-0.010
2.365,0.053
2.370,-0.109
2.375,-0.108
2.380,0.029
2.385,-0.060
2.390,-0.125
2.395,0.026
2.400,0.006
2.405,-0.139
2.410,-0.051
2.415,0.019
2.420,-0.120
2.425,-0.098
2.430,0.039
2.435,-0.066
2.440,-0.150
2.445,-0.008
2.450,-0.023
2.455,-0.157
2.460,-0.052
2.465,0.022
2.470,-0.141
2.475,-0.138
2.480,0.003
2.485,-0.105
2.490,-0.199
2.495,-0.059
2.500,-0.063
2.505,-0.193
2.510,-0.113
2.515,-0.063
2.520,-0.208
2.525,-0.190
2.530,-0.053
2.535,-0.138
2.540,-0.188
2.545,-0.012
2.550,-0.020
2.555,-0.164
2.560,-0.033
2.565,0.082
2.570,-0.052
2.575,-0.034
2.580,0.109
2.585,0.026
2.590,-0.033
2.595,0.106
2.600,0.074
2.605,-0.059
2.610,0.055
2.615,0.124
2.620,-0.038
2.625,-0.028
2.630,0.107
2.635,0.006
2.640,-0.073
2.645,0.058
2.650,0.038
2.655,-0.063
2.660,0.073
2.665,0.102
2.670,-0.161
2.675,-0.407
2.680,-0.883
2.685,-1.647
2.690,-1.937
2.695,-1.688
2.700,-1.335
2.705,-0.649
2.710,0.255
2.715,0.639
2.720,0.450
2.725,0.390
2.730,0.547
2.735,0.434
2.740,0.309
2.745,0.433
2.750,0.390
2.755,0.242
2.760,0.341
2.765,0.391
2.770,0.223
2.775,0.231
2.780,0.358
2.785,0.252
2.790,0.175
2.795,0.307
2.800,0.258
2.805,0.099
2.810,0.200
2.815,0.257
2.820,0.080
2.825,0.088
2.830,0.219
2.835,0.103
2.840,0.024
2.845,0.168
2.850,0.137
2.855,-0.007
2.860,0.077
2.865,0.109
2.870,-0.047
2.875,-0.013
2.880,0.105
2.885,-0.025
2.890,-0.106
2.895,0.027
2.900,-0.021
2.905,-0.171
2.910,-0.050
2.915,0.020
2.920,-0.169
2.925,-0.178
2.930,-0.047
2.935,-0.131
2.940,-0.154
2.945,0.026
2.950,0.007
2.955,-0.097
2.960,0.059
2.965,0.162
2.970,0.055
2.975,0.126
2.980,0.285
2.985,0.192
2.990,0.138
2.995,0.294
3.000,0.275
3.005,0.141
3.010,0.238
3.015,0.300
3.020,0.150
3.025,0.177
3.030,0.297
3.035,0.174
3.040,0.113
3.045,0.243
3.050,0.169
3.055,0.021
3.060,0.137
3.065,0.193
3.070,0.040
3.075,0.068
3.080,0.184
3.085,0.060
3.090,-0.003
3.095,0.137
3.100,0.098
3.105,-0.038
3.110,0.053
3.115,0.099
3.120,-0.058
3.125,-0.028
3.130,0.106
3.135,-0.006
3.140,-0.068
3.145,0.079
3.150,0.040
3.155,-0.096
3.160,0.008
3.165,0.057
3.170,-0.093
3.175,-0.051
3.180,0.078
3.185,-0.044
3.190,-0.108
3.195,0.045
3.200,0.006
3.205,-0.134
3.210,-0.025
3.215,0.038
3.220,-0.103
3.225,-0.063
3.230,0.067
3.235,-0.056
3.240,-0.131
3.245,0.008
3.250,-0.033
3.255,-0.159
3.260,-0.028
3.265,0.039
3.270,-0.111
3.275,-0.079
3.280,0.040
3.285,-0.079
3.290,-0.143
3.295,0.002
3.300,-0.030
3.305,-0.154
3.310,-0.032
3.315,0.023
3.320,-0.138
3.325,-0.094
3.330,0.037
3.335,-0.080
3.340,-0.125
3.345,0.023
3.350,-0.023
3.355,-0.149
3.360,-0.035
3.365,0.012
3.370,-0.148
3.375,-0.108
3.380,0.026
3.385,-0.089
3.390,-0.138
3.395,0.019
3.400,-0.019
3.405,-0.149
3.410,-0.048
3.415,-0.027
3.420,-0.199
3.425,-0.151
3.430,-0.012
3.435,-0.117
3.440,-0.157
3.445,-0.024
3.450,-0.091
3.455,-0.211
3.460,-0.089
3.465,-0.050
3.470,-0.182
3.475,-0.104
3.480,0.042
3.485,-0.073
3.490,-0.127
3.495,0.035
3.500,0.019
3.505,-0.082
3.510,0.044
3.515,0.097
3.520,-0.029
3.525,0.029
3.530,0.138
3.535,0.010
3.540,-0.047
3.545,0.086
3.550,0.044
3.555,-0.064
3.560,0.063
3.565,0.113
3.570,-0.035
3.575,0.013
3.580,0.136
3.585,0.010
3.590,-0.026
3.595,0.120
3.600,0.009
3.605,-0.233
3.610,-0.458
3.615,-1.107
3.620,-1.823
3.625,-1.876
3.630,-1.601
3.635,-1.178
3.640,-0.315
3.645,0.502
3.650,0.628
3.655,0.422
3.660,0.475
3.665,0.538
3.670,0.360
3.675,0.347
3.680,0.452
3.685,0.316
3.690,0.259
3.695,0.411
3.700,0.351
3.705,0.210
3.710,0.318
3.715,0.343
3.720,0.172
3.725,0.204
3.730,0.304
3.735,0.171
3.740,0.137
3.745,0.285
3.750,0.207
3.755,0.064
3.760,0.182
3.765,0.210
3.770,0.035
3.775,0.070
3.780,0.179
3.785,0.046
3.790,0.004
3.795,0.154
3.800,0.082
3.805,-0.063
3.810,0.045
3.815,0.073
3.820,-0.094
3.825,-0.065
3.830,0.036
3.835,-0.091
3.840,-0.137
3.845,-0.005
3.850,-0.084
3.855,-0.220
3.860,-0.092
3.865,-0.046
3.870,-0.184
3.875,-0.106
3.880,0.025
3.885,-0.085
3.890,-0.079
3.895,0.123
3.900,0.111
3.905,0.025
3.910,0.185
3.915,0.257
3.920,0.120
3.925,0.188
3.930,0.319
3.935,0.206
3.940,0.179
3.945,0.322
3.950,0.260
3.955,0.139
3.960,0.244
3.965,0.260
3.970,0.103
3.975,0.155
3.980,0.261
3.985,0.112
3.990,0.053
3.995,0.196
4.000,0.141
4.005,0.027
4.010,0.145
4.015,0.164
4.020,0.002
4.025,0.049
4.030,0.145
4.035,-0.002
4.040,-0.033
4.045,0.127
4.050,0.065
4.055,-0.066
4.060,0.054
4.065,0.085
4.070,-0.071
4.075,-0.014
4.080,0.098
4.085,-0.036
4.090,-0.082
4.095,0.055
4.100,0.000
4.105,-0.103
4.110,0.028
4.115,0.053
4.120,-0.111
4.125,-0.052
4.130,0.071
4.135,-0.055
4.140,-0.094
4.145,0.052
4.150,-0.014
4.155,-0.131
4.160,0.002
4.165,0.028
4.170,-0.136
4.175,-0.076
4.180,0.045
4.185,-0.081
4.190,-0.112
4.195,0.037
4.200,-0.021
4.205,-0.131
4.210,-0.007
4.215,0.008
4.220,-0.154
4.225,-0.082
4.230,0.037
4.235,-0.100
4.240,-0.125
4.245,0.033
4.250,-0.038
4.255,-0.159
4.260,-0.029
4.265,0.009
4.270,-0.133
4.275,-0.075
4.280,0.034
4.285,-0.097
4.290,-0.130
4.295,0.012
4.300,-0.058
4.305,-0.157
4.310,-0.005
4.315,0.023
4.320,-0.137
4.325,-0.074
4.330,0.028
4.335,-0.115
4.340,-0.144
4.345,0.009
4.350,-0.069
4.355,-0.206
4.360,-0.075
4.365,-0.025
4.370,-0.159
4.375,-0.099
4.380,-0.012
4.385,-0.171
4.390,-0.203
4.395,-0.039
4.400,-0.099
4.405,-0.193
4.410,-0.031
4.415,0.013
4.420,-0.132
4.425,-0.067
4.430,0.055
4.435,-0.045
4.440,-0.049
4.445,0.107
4.450,0.052
4.455,-0.055
4.460,0.073
4.465,0.109
4.470,-0.037
4.475,0.027
4.480,0.141
4.485,-0.008
4.490,-0.053
4.495,0.099
4.500,0.039
4.505,-0.056
4.510,0.088
4.515,0.095
4.520,-0.062
4.525,0.044
4.530,0.168
4.535,-0.028
4.540,-0.191
4.545,-0.411
4.550,-1.179
4.555,-1.874
4.560,-1.859
4.565,-1.627
4.570,-1.191
4.575,-0.241
4.580,0.530
4.585,0.569
4.590,0.455
4.595,0.550
4.600,0.482
4.605,0.333
4.610,0.424
4.615,0.432
4.620,0.263
4.625,0.318
4.630,0.419
4.635,0.276
4.640,0.242
4.645,0.376
4.650,0.276
4.655,0.146
4.660,0.273
4.665,0.275
4.670,0.112
4.675,0.188
4.680,0.294
4.685,0.155
4.690,0.121
4.695,0.236
4.700,0.139
4.705,0.022
4.710,0.145
4.715,0.150
4.720,-0.004
4.725,0.063
4.730,0.150
4.735,-0.004
4.740,-0.040
4.745,0.094
4.750,0.008
4.755,-0.110
4.760,0.018
4.765,0.025
4.770,-0.142
4.775,-0.089
4.780,0.000
4.785,-0.144
4.790,-0.175
4.795,-0.034
4.800,-0.111
4.805,-0.208
4.810,-0.048
4.815,0.001
4.820,-0.096
4.825,0.032
4.830,0.177
4.835,0.068
4.840,0.061
4.845,0.226
4.850,0.190
4.855,0.122
4.860,0.269
4.865,0.284
4.870,0.140
4.875,0.215
4.880,0.312
4.885,0.173
4.890,0.149
4.895,0.283
4.900,0.197
4.905,0.088
4.910,0.220
4.915,0.231
4.920,0.068
4.925,0.127
4.930,0.213
4.935,0.057
4.940,0.027
4.945,0.156
4.950,0.076
4.955,0.001
4.960,0.157
4.965,0.159
4.970,-0.022
4.975,0.021
4.980,0.105
4.985,-0.028
4.990,-0.030
4.995,0.113
5.000,0.022
5.005,-0.086
5.010,0.045
5.015,0.043
5.020,-0.115
5.025,-0.036
5.030,0.070
5.035,-0.060
5.040,-0.070
5.045,0.071
5.050,-0.019
5.055,-0.124
5.060,0.020
5.065,0.027
5.070,-0.131
5.075,-0.049
5.080,0.050
5.085,-0.101
5.090,-0.115
5.095,0.044
5.100,-0.027
5.105,-0.130
5.110,-0.005
5.115,0.000
5.120,-0.140
5.125,-0.062
5.130,0.028
5.135,-0.098
5.140,-0.098
5.145,0.041
5.150,-0.042
5.155,-0.136
5.160,-0.003
5.165,-0.005
5.170,-0.152
5.175,-0.054
5.180,0.041
5.185,-0.113
5.190,-0.130
5.195,0.011
5.200,-0.070
5.205,-0.167
5.210,-0.006
5.215,0.019
5.220,-0.139
5.225,-0.059
5.230,0.042
5.235,-0.098
5.240,-0.111
5.245,0.010
5.250,-0.103
5.255,-0.209
5.260,-0.067
5.265,-0.059
5.270,-0.193
5.275,-0.100
5.280,-0.020
5.285,-0.168
5.290,-0.158
5.295,-0.006
5.300,-0.099
5.305,-0.193
5.310,-0.041
5.315,-0.019
5.320,-0.150
5.325,-0.053
5.330,0.059
5.335,-0.058
5.340,-0.041
5.345,0.114
5.350,0.031
5.355,-0.066
5.360,0.074
5.365,0.080
5.370,-0.068
5.375,0.017
5.380,0.109
5.385,-0.035
5.390,-0.031
5.395,0.110
5.400,0.012
5.405,-0.076
5.410,0.072
5.415,0.071
5.420,-0.057
5.425,0.064
5.430,0.128
5.435,-0.099
5.440,-0.314
5.445,-0.736
5.450,-1.545
5.455,-1.956
5.460,-1.735
5.465,-1.393
5.470,-0.759
5.475,0.160
5.480,0.634
5.485,0.499
5.490,0.426
5.495,0.560
5.500,0.441
5.505,0.284
5.510,0.395
5.515,0.388
5.520,0.243
5.525,0.341
5.530,0.419
5.535,0.255
5.540,0.241
5.545,0.366
5.550,0.260
5.555,0.153
5.560,0.275
5.565,0.264
5.570,0.105
5.575,0.176
5.580,0.264
5.585,0.117
5.590,0.101
5.595,0.222
5.600,0.112
5.605,0.017
5.610,0.143
5.615,0.123
5.620,-0.017
5.625,0.066
5.630,0.134
5.635,-0.018
5.640,-0.023
5.645,0.104
5.650,-0.008
5.655,-0.106
5.660,0.032
5.665,0.007
5.670,-0.158
5.675,-0.080
5.680,-0.011
5.685,-0.161
5.690,-0.159
5.695,-0.024
5.700,-0.110
5.705,-0.173
5.710,0.001
5.715,0.021
5.720,-0.090
5.725,0.043
5.730,0.162
5.735,0.056
5.740,0.110
5.745,0.287
5.750,0.202
5.755,0.117
5.760,0.273
5.765,0.278
5.770,0.142
5.775,0.235
5.780,0.302
5.785,0.143
5.790,0.145
5.795,0.273
5.800,0.161
5.805,0.068
5.810,0.210
5.815,0.204
5.820,0.069
5.825,0.158
5.830,0.218
5.835,0.061
5.840,0.066
5.845,0.188
5.850,0.076
5.855,-0.009
5.860,0.131
5.865,0.117
5.870,-0.029
5.875,0.054
5.880,0.122
5.885,-0.031
5.890,-0.024
5.895,0.094
5.900,-0.032
5.905,-0.115
5.910,0.041
5.915,0.039
5.920,-0.095
5.925,-0.006
5.930,0.060
5.935,-0.093
5.940,-0.079
5.945,0.061
5.950,-0.051
5.955,-0.141
5.960,0.012
5.965,0.002
5.970,-0.137
5.975,-0.029
5.980,0.051
5.985,-0.108
5.990,-0.097
5.995,0.047
6.000,-0.056
6.005,-0.140
6.010,0.004
6.015,-0.013
6.020,-0.149
6.025,-0.041
6.030,0.028
6.035,-0.137
6.040,-0.122
6.045,0.033
6.050,-0.063
6.055,-0.139
6.060,0.012
6.065,-0.001
6.070,-0.143
6.075,-0.046
6.080,0.024
6.085,-0.131
6.090,-0.110
6.095,0.041
6.100,-0.056
6.105,-0.141
6.110,-0.014
6.115,-0.048
6.120,-0.196
6.125,-0.106
6.130,-0.036
6.135,-0.187
6.140,-0.173
6.145,-0.017
6.150,-0.117
6.155,-0.211
6.160,-0.045
6.165,-0.046
6.170,-0.198
6.175,-0.094
6.180,-0.011
6.185,-0.148
6.190,-0.108
6.195,0.038
6.200,-0.062
6.205,-0.112
6.210,0.069
6.215,0.058
6.220,-0.082
6.225,0.023
6.230,0.096
6.235,-0.045
6.240,-0.008
6.245,0.135
6.250,0.023
6.255,-0.056
6.260,0.088
6.265,0.064
6.270,-0.076
6.275,0.028
6.280,0.103
6.285,-0.058
6.290,-0.040
6.295,0.139
6.300,0.041
6.305,-0.104
6.310,-0.095
6.315,-0.502
6.320,-1.354
6.325,-1.873
6.330,-1.840
6.335,-1.644
6.340,-1.101
6.345,-0.138
6.350,0.419
6.355,0.474
6.360,0.534
6.365,0.485
6.370,0.368
6.375,0.434
6.380,0.445
6.385,0.283
6.390,0.314
6.395,0.451
6.400,0.332
6.405,0.246
6.410,0.376
6.415,0.339
6.420,0.193
6.425,0.275
6.430,0.321
6.435,0.161
6.440,0.183
6.445,0.312
6.450,0.188
6.455,0.106
6.460,0.231
6.465,0.176
6.470,0.030
6.475,0.129
6.480,0.181
6.485,0.021
6.490,0.049
6.495,0.188
6.500,0.066
6.505,-0.026
6.510,0.110
6.515,0.078
6.520,-0.071
6.525,0.013
6.530,0.061
6.535,-0.106
6.540,-0.106
6.545,0.005
6.550,-0.116
6.555,-0.178
6.560,-0.021
6.565,-0.060
6.570,-0.200
6.575,-0.088
6.580,-0.016
6.585,-0.137
6.590,-0.071
6.595,0.101
6.600,0.029
6.605,0.004
6.610,0.196
6.615,0.212
6.620,0.116
6.625,0.235
6.630,0.298
6.635,0.156
6.640,0.193
6.645,0.329
6.650,0.209
6.655,0.130
6.660,0.277
6.665,0.232
6.670,0.078
6.675,0.193
6.680,0.250
6.685,0.085
6.690,0.112
6.695,0.232
6.700,0.099
6.705,0.026
6.710,0.173
6.715,0.129
6.720,-0.019
6.725,0.088
6.730,0.154
6.735,-0.001
6.740,0.011
6.745,0.116
6.750,-0.020
6.755,-0.083
6.760,0.091
6.765,0.071
6.770,-0.073
6.775,0.025
6.780,0.070
6.785,-0.085
6.790,-0.037
6.795,0.093
6.800,-0.040
6.805,-0.108
6.810,0.041
6.815,0.006
6.820,-0.121
6.825,-0.012
6.830,0.036
6.835,-0.119
6.840,-0.079
6.845,0.057
6.850,-0.061
6.855,-0.126
6.860,0.023
6.865,-0.007
6.870,-0.134
6.875,-0.020
6.880,0.033
6.885,-0.128
6.890,-0.095
6.895,0.036
6.900,-0.079
6.905,-0.140
6.910,0.003
6.915,-0.034
6.920,-0.160
6.925,-0.051
6.930,0.005
6.935,-0.131
6.940,-0.082
6.945,0.046
6.950,-0.075
6.955,-0.129
6.960,0.025
6.965,-0.030
6.970,-0.174
6.975,-0.042
6.980,0.029
6.985,-0.123
6.990,-0.091
6.995,0.029
7.000,-0.098
7.005,-0.175
7.010,-0.049
7.015,-0.092
7.020,-0.207
7.025,-0.070
7.030,-0.003
7.035,-0.162
7.040,-0.146
7.045,-0.042
7.050,-0.154
7.055,-0.193
7.060,-0.041
7.065,-0.078
7.070,-0.185
7.075,-0.034
7.080,0.025
7.085,-0.144
7.090,-0.080
7.095,0.100
7.100,0.003
7.105,-0.049
7.110,0.111
7.115,0.076
7.120,-0.054
7.125,0.051
7.130,0.093
7.135,-0.052
7.140,-0.001
7.145,0.119
7.150,-0.006
7.155,-0.055
7.160,0.092
7.165,0.049
7.170,-0.068
7.175,0.057
7.180,0.124
7.185,0.002
7.190,0.009
7.195,0.042
7.200,-0.267
7.205,-0.834
7.210,-1.439
7.215,-1.842
7.220,-1.789
7.225,-1.404
7.230,-0.745
7.235,-0.007
7.240,0.499
7.245,0.631
7.250,0.415
7.255,0.357
7.260,0.525
7.265,0.441
7.270,0.276
7.275,0.365
7.280,0.393
7.285,0.239
7.290,0.293
7.295,0.425
7.300,0.295
7.305,0.232
7.310,0.361
7.315,0.280
7.320,0.135
7.325,0.247
7.330,0.279
7.335,0.110
7.340,0.142
7.345,0.256
7.350,0.121
7.355,0.060
7.360,0.189
7.365,0.124
7.370,0.017
7.375,0.141
7.380,0.154
7.385,-0.018
7.390,0.018
7.395,0.116
7.400,-0.012
7.405,-0.046
7.410,0.091
7.415,0.008
7.420,-0.132
7.425,-0.020
7.430,0.008
7.435,-0.160
7.440,-0.123
7.445,-0.013
7.450,-0.140
7.455,-0.177
7.460,-0.027
7.465,-0.081
7.470,-0.182
7.475,-0.023
7.480,0.052
7.485,-0.067
7.490,0.032
7.495,0.207
7.500,0.116
7.505,0.102
7.510,0.288
7.515,0.245
7.520,0.124
7.525,0.258
7.530,0.298
7.535,0.147
7.540,0.203
7.545,0.310
7.550,0.175
7.555,0.133
7.560,0.269
7.565,0.197
7.570,0.072
7.575,0.186
7.580,0.207
7.585,0.050
7.590,0.103
7.595,0.220
7.600,0.085
7.605,0.023
7.610,0.154
7.615,0.095
7.620,-0.021
7.625,0.110
7.630,0.139
7.635,-0.036
7.640,0.010
7.645,0.118
7.650,-0.029
7.655,-0.069
7.660,0.085
7.665,0.022
7.670,-0.090
7.675,0.052
7.680,0.092
7.685,-0.073
7.690,-0.036
7.695,0.060
7.700,-0.079
7.705,-0.109
7.710,0.048
7.715,-0.012
7.720,-0.135
7.725,-0.012
7.730,0.033
7.735,-0.110
7.740,-0.057
7.745,0.058
7.750,-0.072
7.755,-0.116
7.760,0.030
7.765,-0.027
7.770,-0.144
7.775,-0.021
7.780,0.011
7.785,-0.139
7.790,-0.083
7.795,0.030
7.800,-0.100
7.805,-0.138
7.810,0.007
7.815,-0.057
7.820,-0.165
7.825,-0.019
7.830,0.020
7.835,-0.140
7.840,-0.085
7.845,0.032
7.850,-0.105
7.855,-0.151
7.860,0.010
7.865,-0.029
7.870,-0.138
7.875,-0.010
7.880,0.001
7.885,-0.169
7.890,-0.096
7.895,0.028
7.900,-0.103
7.905,-0.131
7.910,0.012
7.915,-0.061
7.920,-0.182
7.925,-0.059
7.930,-0.031
7.935,-0.174
7.940,-0.105
7.945,-0.012
7.950,-0.172
7.955,-0.185
7.960,0.006
7.965,-0.067
7.970,-0.199
7.975,-0.034
7.980,0.031
7.985,-0.120
7.990,-0.064
7.995,0.060
8.000,-0.049
8.005,-0.054
8.010,0.118
8.015,0.063
8.020,-0.044
8.025,0.081
8.030,0.095
8.035,-0.052
8.040,0.018
8.045,0.120
8.050,-0.017
8.055,-0.031
8.060,0.126
8.065,0.051
8.070,-0.068
8.075,0.059
8.080,0.085
8.085,-0.053
8.090,0.049
8.095,0.154
8.100,-0.067
8.105,-0.240
8.110,-0.468
8.115,-1.232
8.120,-1.888
8.125,-1.846
8.130,-1.617
8.135,-1.154
8.140,-0.181
8.145,0.533
8.150,0.531
8.155,0.429
8.160,0.526
8.165,0.456
8.170,0.324
8.175,0.441
8.180,0.458
8.185,0.279
8.190,0.324
8.195,0.428
8.200,0.301
8.205,0.277
8.210,0.410
8.215,0.325
8.220,0.193
8.225,0.282
8.230,0.275
8.235,0.124
8.240,0.189
8.245,0.290
8.250,0.153
8.255,0.102
8.260,0.210
8.265,0.122
8.270,-0.005
8.275,0.108
8.280,0.124
8.285,-0.023
8.290,0.048
8.295,0.146
8.300,-0.017
8.305,-0.057
8.310,0.081
8.315,-0.011
8.320,-0.129
8.325,-0.002
8.330,0.005
8.335,-0.162
8.340,-0.108
8.345,-0.011
8.350,-0.155
8.355,-0.188
8.360,-0.050
8.365,-0.138
8.370,-0.233
8.375,-0.055
8.380,0.002
8.385,-0.117
8.390,-0.006
8.395,0.137
8.400,0.032
8.405,0.047
8.410,0.237
8.415,0.194
8.420,0.110
8.425,0.262
8.430,0.292
8.435,0.158
8.440,0.237
8.445,0.325
8.450,0.175
8.455,0.161
8.460,0.304
8.465,0.208
8.470,0.086
8.475,0.209
8.480,0.211
8.485,0.058
8.490,0.133
8.495,0.225
8.500,0.074
8.505,0.050
8.510,0.187
8.515,0.100
8.520,-0.006
8.525,0.127
8.530,0.130
8.535,-0.036
8.540,0.039
8.545,0.146
8.550,-0.006
8.555,-0.040
8.560,0.100
8.565,0.017
8.570,-0.098
8.575,0.037
8.580,0.057
8.585,-0.080
8.590,0.000
8.595,0.084
8.600,-0.065
8.605,-0.065
8.610,0.091
8.615,-0.001
8.620,-0.112
8.625,0.025
8.630,0.045
8.635,-0.104
8.640,-0.042
8.645,0.055
8.650,-0.078
8.655,-0.089
8.660,0.049
8.665,-0.039
8.670,-0.130
8.675,0.020
8.680,0.029
8.685,-0.124
8.690,-0.052
8.695,0.028
8.700,-0.109
8.705,-0.107
8.710,0.033
8.715,-0.048
8.720,-0.143
8.725,-0.008
8.730,-0.001
8.735,-0.143
8.740,-0.053
8.745,0.040
8.750,-0.112
8.755,-0.115
8.760,0.040
8.765,-0.047
8.770,-0.154
8.775,-0.019
8.780,-0.004
8.785,-0.148
8.790,-0.080
8.795,0.006
8.800,-0.127
8.805,-0.128
8.810,0.003
8.815,-0.101
8.820,-0.205
8.825,-0.057
8.830,-0.037
8.835,-0.201
8.840,-0.149
8.845,-0.048
8.850,-0.158
8.855,-0.169
8.860,-0.032
8.865,-0.091
8.870,-0.169
8.875,-0.027
8.880,-0.025
8.885,-0.160
8.890,-0.033
8.895,0.101
8.900,-0.017
8.905,-0.011
8.910,0.129
8.915,0.031
8.920,-0.076
8.925,0.067
8.930,0.076
8.935,-0.072
8.940,0.024
8.945,0.123
8.950,-0.038
8.955,-0.051
8.960,0.098
8.965,0.010
8.970,-0.079
8.975,0.080
8.980,0.129
8.985,0.003
8.990,0.029
8.995,0.009
9.000,-0.454
9.005,-1.153
9.010,-1.707
9.015,-1.881
9.020,-1.670
9.025,-1.139
9.030,-0.331
9.035,0.305
9.040,0.593
9.045,0.606
9.050,0.403
9.055,0.394
9.060,0.505
9.065,0.370
9.070,0.277
9.075,0.425
9.080,0.416
9.085,0.239
9.090,0.278
9.095,0.333
9.100,0.184
9.105,0.189
9.110,0.323
9.115,0.213
9.120,0.121
9.125,0.280
9.130,0.279
9.135,0.107
9.140,0.165
9.145,0.238
9.150,0.097
9.155,0.095
9.160,0.194
9.165,0.059
9.170,-0.037
9.175,0.108
9.180,0.105
9.185,-0.044
9.190,0.032
9.195,0.102
9.200,-0.055
9.205,-0.059
9.210,0.069
9.215,-0.041
9.220,-0.130
9.225,0.024
9.230,0.019
9.235,-0.159
9.240,-0.106
9.245,-0.029
9.250,-0.180
9.255,-0.171
9.260,-0.007
9.265,-0.085
9.270,-0.156
9.275,0.021
9.280,0.055
9.285,-0.044
9.290,0.100
9.295,0.225
9.300,0.099
9.305,0.128
9.310,0.295
9.315,0.207
9.320,0.122
9.325,0.283
9.330,0.289
9.335,0.147
9.340,0.242
9.345,0.324
9.350,0.162
9.355,0.150
9.360,0.274
9.365,0.160
9.370,0.072
9.375,0.222
9.380,0.192
9.385,0.023
9.390,0.123
9.395,0.217
9.400,0.062
9.405,0.058
9.410,0.186
9.415,0.077
9.420,-0.016
9.425,0.121
9.430,0.105
9.435,-0.047
9.440,0.039
9.445,0.115
9.450,-0.034
9.455,-0.034
9.460,0.091
9.465,-0.011
9.470,-0.091
9.475,0.051
9.480,0.031
9.485,-0.121
9.490,-0.035
9.495,0.040
9.500,-0.102
9.505,-0.096
9.510,0.043
9.515,-0.037
9.520,-0.112
9.525,0.019
9.530,0.000
9.535,-0.137
9.540,-0.036
9.545,0.046
9.550,-0.100
9.555,-0.080
9.560,0.066
9.565,-0.055
9.570,-0.158
9.575,-0.002
9.580,0.001
9.585,-0.144
9.590,-0.058
9.595,0.021
9.600,-0.119
9.605,-0.103
9.610,0.036
9.615,-0.066
9.620,-0.135
9.625,0.019
9.630,-0.017
9.635,-0.177
9.640,-0.078
9.645,0.007
9.650,-0.129
9.655,-0.120
9.660,0.010
9.665,-0.083
9.670,-0.166
9.675,-0.041
9.680,-0.059
9.685,-0.183
9.690,-0.083
9.695,-0.036
9.700,-0.217
9.705,-0.198
9.710,-0.029
9.715,-0.115
9.720,-0.182
9.725,-0.026
9.730,-0.039
9.735,-0.170
9.740,-0.065
9.745,0.018
9.750,-0.095
9.755,-0.041
9.760,0.106
9.765,-0.004
9.770,-0.075
9.775,0.087
9.780,0.077
9.785,-0.067
9.790,0.028
9.795,0.096
9.800,-0.052
9.805,-0.024
9.810,0.120
9.815,0.017
9.820,-0.066
9.825,0.070
9.830,0.047
9.835,-0.079
9.840,0.055
9.845,0.137
9.850,-0.068
9.855,-0.178
9.860,-0.370
9.865,-1.143
9.870,-1.870
9.875,-1.893
9.880,-1.670
9.885,-1.242
9.890,-0.296
9.895,0.452
9.900,0.506
9.905,0.470
9.910,0.554
9.915,0.438
9.920,0.334
9.925,0.434
9.930,0.391
9.935,0.247
9.940,0.341
9.945,0.401
9.950,0.249
9.955,0.266
9.960,0.385
9.965,0.256
9.970,0.171
9.975,0.307
9.980,0.266
9.985,0.120
9.990,0.204
9.995,0.250
10.000,0.098
10.005,0.105
10.010,0.217
10.015,0.113
10.020,0.044
10.025,0.174
10.030,0.136
10.035,-0.002
10.040,0.099
10.045,0.140
10.050,-0.041
10.055,-0.027
10.060,0.103
10.065,-0.019
10.070,-0.087
10.075,0.061
10.080,0.010
10.085,-0.151
10.090,-0.053
10.095,-0.004
10.100,-0.176
10.105,-0.151
10.110,-0.006
10.115,-0.107
10.120,-0.165
10.125,-0.001
10.130,-0.005
10.135,-0.106
10.140,0.037
10.145,0.140
10.150,0.027
10.155,0.086
10.160,0.259
10.165,0.191
10.170,0.156
10.175,0.309
10.180,0.250
10.185,0.104
10.190,0.223
10.195,0.274
10.200,0.124
10.205,0.174
10.210,0.303
10.215,0.171
10.220,0.099
10.225,0.242
10.230,0.186
10.235,0.042
10.240,0.166
10.245,0.227
10.250,0.056
10.255,0.064
10.260,0.190
10.265,0.086
10.270,-0.002
10.275,0.105
10.280,0.061
10.285,-0.062
10.290,0.061
10.295,0.110
10.300,-0.059
10.305,-0.027
10.310,0.105
10.315,-0.018
10.320,-0.083
10.325,0.082
10.330,0.047
10.335,-0.104
10.340,0.010
10.345,0.066
10.350,-0.111
10.355,-0.096
10.360,0.037
10.365,-0.069
10.370,-0.120
10.375,0.023
10.380,-0.027
10.385,-0.142
10.390,-0.004
10.395,0.066
10.400,-0.091
10.405,-0.081
10.410,0.033
10.415,-0.074
10.420,-0.115
10.425,0.049
10.430,0.009
10.435,-0.135
10.440,-0.014
10.445,0.049
10.450,-0.110
10.455,-0.074
10.460,0.054
10.465,-0.070
10.470,-0.127
10.475,0.029
10.480,-0.009
10.485,-0.145
10.490,-0.040
10.495,0.008
10.500,-0.147
10.505,-0.119
10.510,-0.015
10.515,-0.149
10.520,-0.195
10.525,-0.025
10.530,-0.055
10.535,-0.191
10.540,-0.089
10.545,-0.042
10.550,-0.199
10.555,-0.169
10.560,-0.024
10.565,-0.099
10.570,-0.126
10.575,0.025
10.580,-0.028
10.585,-0.131
10.590,0.031
10.595,0.103
10.600,-0.046
10.605,-0.016
10.610,0.106
10.615,-0.009
10.620,-0.064
10.625,0.092
10.630,0.061
10.635,-0.066
10.640,0.042
10.645,0.084
10.650,-0.081
10.655,-0.040
10.660,0.101
10.665,-0.016
10.670,-0.071
10.675,0.095
10.680,0.093
10.685,-0.036
10.690,-0.002
10.695,-0.104
10.700,-0.646
10.705,-1.324
10.710,-1.791
10.715,-1.888
10.720,-1.630
10.725,-1.034
10.730,-0.234
10.735,0.318
10.740,0.556
10.745,0.514
10.750,0.325
10.755,0.399
10.760,0.505
10.765,0.346
10.770,0.291
10.775,0.427
10.780,0.359
10.785,0.223
10.790,0.333
10.795,0.365
10.800,0.192
10.805,0.216
10.810,0.332
10.815,0.204
10.820,0.138
10.825,0.277
10.830,0.223
10.835,0.081
10.840,0.184
10.845,0.214
10.850,0.052
10.855,0.102
10.860,0.225
10.865,0.082
10.870,0.005
10.875,0.147
10.880,0.095
10.885,-0.047
10.890,0.063
10.895,0.101
10.900,-0.069
10.905,-0.034
10.910,0.087
10.915,-0.051
10.920,-0.122
10.925,0.011
10.930,-0.049
10.935,-0.184
10.940,-0.068
10.945,-0.021
10.950,-0.183
10.955,-0.146
10.960,-0.001
10.965,-0.097
10.970,-0.132
10.975,0.051
10.980,0.050
10.985,-0.037
10.990,0.121
10.995,0.199
11.000,0.075
11.005,0.158
11.010,0.311
11.015,0.201
11.020,0.154
11.025,0.306
11.030,0.262
11.035,0.136
11.040,0.245
11.045,0.276
11.050,0.124
11.055,0.173
11.060,0.277
11.065,0.138
11.070,0.090
11.075,0.226
11.080,0.154
11.085,0.017
11.090,0.140
11.095,0.184
11.100,0.022
11.105,0.050
11.110,0.152
11.115,0.030
11.120,-0.003
11.125,0.152
11.130,0.090
11.135,-0.049
11.140,0.062
11.145,0.094
11.150,-0.067
11.155,-0.021
11.160,0.094
11.165,-0.040
11.170,-0.089
11.175,0.064
11.180,0.016
11.185,-0.104
11.190,0.021
11.195,0.065
11.200,-0.096
11.205,-0.058
11.210,0.055
11.215,-0.082
11.220,-0.121
11.225,0.051
11.230,0.002
11.235,-0.129
11.240,-0.006
11.245,0.034
11.250,-0.124
11.255,-0.075
11.260,0.044
11.265,-0.077
11.270,-0.113
11.275,0.034
11.280,-0.028
11.285,-0.155
11.290,-0.024
11.295,0.028
11.300,-0.132
11.305,-0.090
11.310,0.032
11.315,-0.095
11.320,-0.138
11.325,0.015
11.330,-0.052
11.335,-0.174
11.340,-0.033
11.345,0.000
11.350,-0.171
11.355,-0.121
11.360,-0.010
11.365,-0.143
11.370,-0.178
11.375,-0.017
11.380,-0.064
11.385,-0.207
11.390,-0.109
11.395,-0.062
11.400,-0.207
11.405,-0.164
11.410,-0.036
11.415,-0.128
11.420,-0.139
11.425,0.010
11.430,-0.048
11.435,-0.132
11.440,0.030
11.445,0.074
11.450,-0.071
11.455,0.008
11.460,0.137
11.465,-0.008
11.470,-0.057
11.475,0.101
11.480,0.051
11.485,-0.065
11.490,0.055
11.495,0.076
11.500,-0.082
11.505,-0.023
11.510,0.094
11.515,-0.036
11.520,-0.072
11.525,0.092
11.530,0.069
11.535,-0.039
11.540,0.026
11.545,-0.048
11.550,-0.491
11.555,-1.091
11.560,-1.663
11.565,-1.903
11.570,-1.690
11.575,-1.185
11.580,-0.438
11.585,0.250
11.590,0.624
11.595,0.574
11.600,0.343
11.605,0.431
11.610,0.522
11.615,0.320
11.620,0.263
11.625,0.412
11.630,0.356
11.635,0.234
11.640,0.350
11.645,0.369
11.650,0.202
11.655,0.247
11.660,0.338
11.665,0.200
11.670,0.162
11.675,0.281
11.680,0.200
11.685,0.088
11.690,0.207
11.695,0.215
11.700,0.045
11.705,0.097
11.710,0.206
11.715,0.064
11.720,0.019
11.725,0.159
11.730,0.076
11.735,-0.059
11.740,0.069
11.745,0.103
11.750,-0.058
11.755,-0.011
11.760,0.094
11.765,-0.054
11.770,-0.108
11.775,0.023
11.780,-0.062
11.785,-0.190
11.790,-0.070
11.795,-0.050
11.800,-0.200
11.805,-0.125
11.810,-0.014
11.815,-0.146
11.820,-0.138
11.825,0.052
11.830,0.009
11.835,-0.062
11.840,0.120
11.845,0.181
11.850,0.062
11.855,0.169
11.860,0.310
11.865,0.195
11.870,0.182
11.875,0.329
11.880,0.252
11.885,0.136
11.890,0.256
11.895,0.283
11.900,0.151
11.905,0.211
11.910,0.290
11.915,0.130
11.920,0.083
11.925,0.214
11.930,0.141
11.935,0.030
11.940,0.162
11.945,0.186
11.950,0.026
11.955,0.082
11.960,0.175
11.965,0.025
11.970,-0.002
11.975,0.145
11.980,0.058
11.985,-0.061
11.990,0.080
11.995,0.108
12.000,-0.055
12.005,-0.007
12.010,0.092
12.015,-0.038
12.020,-0.061
12.025,0.078
12.030,-0.005
12.035,-0.113
12.040,0.040
12.045,0.064
12.050,-0.105
12.055,-0.042
12.060,0.064
12.065,-0.071
12.070,-0.086
12.075,0.058
12.080,-0.028
12.085,-0.136
12.090,0.010
12.095,0.035
12.100,-0.114
12.105,-0.041
12.110,0.048
12.115,-0.108
12.120,-0.128
12.125,0.031
12.130,-0.034
12.135,-0.138
12.140,0.002
12.145,0.029
12.150,-0.123
12.155,-0.052
12.160,0.052
12.165,-0.096
12.170,-0.121
12.175,0.027
12.180,-0.051
12.185,-0.150
12.190,-0.008
12.195,-0.003
12.200,-0.161
12.205,-0.081
12.210,0.028
12.215,-0.111
12.220,-0.128
12.225,0.018
12.230,-0.083
12.235,-0.205
12.240,-0.061
12.245,-0.042
12.250,-0.191
12.255,-0.112
12.260,-0.024
12.265,-0.191
12.270,-0.203
12.275,-0.036
12.280,-0.120
12.285,-0.216
12.290,-0.048
12.295,-0.006
12.300,-0.138
12.305,-0.059
12.310,0.051
12.315,-0.065
12.320,-0.064
12.325,0.098
12.330,0.040
12.335,-0.049
12.340,0.080
12.345,0.074
12.350,-0.077
12.355,0.018
12.360,0.124
12.365,-0.017
12.370,-0.022
12.375,0.124
12.380,0.038
12.385,-0.063
12.390,0.065
12.395,0.061
12.400,-0.078
12.405,0.035
12.410,0.147
12.415,-0.044
12.420,-0.148
12.425,-0.244
12.430,-0.926
12.435,-1.750
12.440,-1.927
12.445,-1.739
12.450,-1.419
12.455,-0.565
12.460,0.332
12.465,0.543
12.470,0.493
12.475,0.538
12.480,0.458
12.485,0.361
12.490,0.437
12.495,0.404
12.500,0.247
12.505,0.334
12.510,0.430
12.515,0.269
12.520,0.240
12.525,0.367
12.530,0.257
12.535,0.146
12.540,0.295
12.545,0.295
12.550,0.123
12.555,0.188
12.560,0.261
12.565,0.104
12.570,0.096
12.575,0.230
12.580,0.133
12.585,0.035
12.590,0.154
12.595,0.131
12.600,-0.012
12.605,0.082
12.610,0.161
12.615,0.000
12.620,-0.030
12.625,0.090
12.630,-0.005
12.635,-0.101
12.640,0.030
12.645,0.019
12.650,-0.134
12.655,-0.061
12.660,0.003
12.665,-0.167
12.670,-0.179
12.675,-0.034
12.680,-0.118
12.685,-0.213
12.690,-0.070
12.695,-0.037
12.700,-0.129
12.705,0.006
12.710,0.133
12.715,0.024
12.720,0.058
12.725,0.238
12.730,0.176
12.735,0.103
12.740,0.275
12.745,0.293
12.750,0.158
12.755,0.260
12.760,0.343
12.765,0.182
12.770,0.168
12.775,0.293
12.780,0.202
12.785,0.118
12.790,0.243
12.795,0.222
12.800,0.072
12.805,0.156
12.810,0.228
12.815,0.070
12.820,0.068
12.825,0.199
12.830,0.087
12.835,-0.020
12.840,0.119
12.845,0.120
12.850,-0.022
12.855,0.070
12.860,0.143
12.865,-0.025
12.870,-0.034
12.875,0.107
12.880,0.013
12.885,-0.071
12.890,0.073
12.895,0.053
12.900,-0.110
12.905,-0.021
12.910,0.075
12.915,-0.066
12.920,-0.062
12.925,0.080
12.930,-0.017
12.935,-0.108
12.940,0.029
12.945,0.016
12.950,-0.130
12.955,-0.036
12.960,0.052
12.965,-0.088
12.970,-0.081
12.975,0.047
12.980,-0.064
12.985,-0.148
12.990,0.006
12.995,0.009
13.000,-0.128
13.005,-0.046
13.010,0.024
13.015,-0.119
13.020,-0.098
13.025,0.050
13.030,-0.048
13.035,-0.127
13.040,0.021
13.045,0.000
13.050,-0.159
13.055,-0.075
13.060,0.010
13.065,-0.129
13.070,-0.110
13.075,0.035
13.080,-0.070
13.085,-0.160
13.090,-0.024
13.095,-0.053
13.100,-0.200
13.105,-0.099
13.110,-0.011
13.115,-0.157
13.120,-0.161
13.125,-0.047
13.130,-0.166
13.135,-0.233
13.140,-0.066
13.145,-0.074
13.150,-0.205
13.155,-0.088
13.160,0.015
13.165,-0.119
13.170,-0.104
13.175,0.062
13.180,-0.008
13.185,-0.085
13.190,0.065
13.195,0.068
13.200,-0.060
13.205,0.041
13.210,0.109
13.215,-0.055
13.220,-0.037
13.225,0.116
13.230,0.017
13.235,-0.067
13.240,0.082
13.245,0.070
13.250,-0.073
13.255,0.026
13.260,0.104
13.265,-0.043
13.270,-0.007
13.275,0.134
13.280,-0.022
13.285,-0.253
13.290,-0.535
13.295,-1.280
13.300,-1.921
13.305,-1.858
13.310,-1.565
13.315,-1.066
13.320,-0.139
13.325,0.589
13.330,0.616
13.335,0.457
13.340,0.545
13.345,0.498
13.350,0.303
13.355,0.370
13.360,0.440
13.365,0.275
13.370,0.279
13.375,0.402
13.380,0.279
13.385,0.185
13.390,0.321
13.395,0.294
13.400,0.130
13.405,0.205
13.410,0.274
13.415,0.120
13.420,0.124
13.425,0.251
13.430,0.143
13.435,0.067
13.440,0.205
13.445,0.164
13.450,0.006
13.455,0.091
13.460,0.156
13.465,0.007
13.470,0.024
13.475,0.147
13.480,0.018
13.485,-0.080
13.490,0.054
13.495,0.028
13.500,-0.114
13.505,-0.017
13.510,0.040
13.515,-0.131
13.520,-0.128
13.525,0.000
13.530,-0.116
13.535,-0.200
13.540,-0.051
13.545,-0.068
13.550,-0.191
13.555,-0.058
13.560,0.039
13.565,-0.084
13.570,-0.024
13.575,0.154
13.580,0.085
13.585,0.051
13.590,0.237
13.595,0.242
13.600,0.119
13.605,0.245
13.610,0.338
13.615,0.189
13.620,0.197
13.625,0.324
13.630,0.211
13.635,0.135
13.640,0.278
13.645,0.238
13.650,0.079
13.655,0.178
13.660,0.250
13.665,0.086
13.670,0.096
13.675,0.226
13.680,0.108
13.685,0.031
13.690,0.179
13.695,0.140
13.700,-0.018
13.705,0.076
13.710,0.136
13.715,-0.021
13.720,-0.005
13.725,0.125
13.730,0.015
13.735,-0.058
13.740,0.084
13.745,0.049
13.750,-0.095
13.755,0.010
13.760,0.081
13.765,-0.073
13.770,-0.055
13.775,0.076
13.780,-0.044
13.785,-0.122
13.790,0.029
13.795,0.006
13.800,-0.123
13.805,-0.014
13.810,0.043
13.815,-0.105
13.820,-0.075
13.825,0.045
13.830,-0.073
13.835,-0.137
13.840,0.016
13.845,-0.018
13.850,-0.159
13.855,-0.035
13.860,0.047
13.865,-0.101
13.870,-0.079
13.875,0.044
13.880,-0.067
13.885,-0.135
13.890,0.005
13.895,-0.022
13.900,-0.153
13.905,-0.048
13.910,0.019
13.915,-0.121
13.920,-0.089
13.925,0.036
13.930,-0.077
13.935,-0.140
13.940,-0.007
13.945,-0.060
13.950,-0.203
13.955,-0.093
13.960,-0.030
13.965,-0.173
13.970,-0.136
13.975,-0.025
13.980,-0.158
13.985,-0.199
13.990,-0.035
13.995,-0.083
14.000,-0.210
14.005,-0.068
14.010,0.014
14.015,-0.140
14.020,-0.108
14.025,0.044
14.030,-0.045
14.035,-0.085
14.040,0.086
14.045,0.061
14.050,-0.077
14.055,0.034
14.060,0.104
14.065,-0.041
14.070,-0.014
14.075,0.101
14.080,-0.017
14.085,-0.065
14.090,0.086
14.095,0.040
14.100,-0.097
14.105,0.018
14.110,0.083
14.115,-0.051
14.120,0.023
14.125,0.155
14.130,-0.033
14.135,-0.266
14.140,-0.569
14.145,-1.329
14.150,-1.935
14.155,-1.837
14.160,-1.515
14.165,-0.980
14.170,-0.067
14.175,0.586
14.180,0.551
14.185,0.419
14.190,0.542
14.195,0.483
14.200,0.303
14.205,0.375
14.210,0.412
14.215,0.252
14.220,0.283
14.225,0.396
14.230,0.262
14.235,0.190
14.240,0.323
14.245,0.274
14.250,0.143
14.255,0.252
14.260,0.286
14.265,0.114
14.270,0.140
14.275,0.251
14.280,0.122
14.285,0.059
14.290,0.197
14.295,0.135
14.300,-0.011
14.305,0.103
14.310,0.161
14.315,0.008
14.320,0.036
14.325,0.151
14.330,0.023
14.335,-0.041
14.340,0.095
14.345,0.031
14.350,-0.116
14.355,-0.011
14.360,0.028
14.365,-0.140
14.370,-0.115
14.375,-0.006
14.380,-0.140
14.385,-0.192
14.390,-0.028
14.395,-0.057
14.400,-0.166
14.405,-0.033
14.410,0.030
14.415,-0.085
14.420,0.005
14.425,0.170
14.430,0.085
14.435,0.068
14.440,0.249
14.445,0.223
14.450,0.109
14.455,0.243
14.460,0.299
14.465,0.142
14.470,0.179
14.475,0.302
14.480,0.177
14.485,0.124
14.490,0.269
14.495,0.208
14.500,0.071
14.505,0.185
14.510,0.224
14.515,0.062
14.520,0.100
14.525,0.215
14.530,0.079
14.535,0.016
14.540,0.167
14.545,0.120
14.550,-0.019
14.555,0.091
14.560,0.131
14.565,-0.033
14.570,0.003
14.575,0.123
14.580,-0.006
14.585,-0.063
14.590,0.082
14.595,0.031
14.600,-0.096
14.605,0.027
14.610,0.078
14.615,-0.086
14.620,-0.055
14.625,0.068
14.630,-0.056
14.635,-0.099
14.640,0.059
14.645,0.004
14.650,-0.126
14.655,-0.006
14.660,0.037
14.665,-0.117
14.670,-0.070
14.675,0.058
14.680,-0.065
14.685,-0.113
14.690,0.038
14.695,-0.020
14.700,-0.145
14.705,-0.014
14.710,0.031
14.715,-0.130
14.720,-0.082
14.725,0.045
14.730,-0.075
14.735,-0.117
14.740,0.037
14.745,-0.021
14.750,-0.163
14.755,-0.058
14.760,-0.029
14.765,-0.187
14.770,-0.132
14.775,0.000
14.780,-0.116
14.785,-0.179
14.790,-0.063
14.795,-0.117
14.800,-0.221
14.805,-0.093
14.810,-0.049
14.815,-0.184
14.820,-0.104
14.825,0.030
14.830,-0.100
14.835,-0.130
14.840,0.050
14.845,0.023
14.850,-0.074
14.855,0.064
14.860,0.096
14.865,-0.069
14.870,-0.020
14.875,0.107
14.880,-0.014
14.885,-0.054
14.890,0.101
14.895,0.047
14.900,-0.081
14.905,0.042
14.910,0.077
14.915,-0.081
14.920,-0.023
14.925,0.101
14.930,0.001
14.935,-0.007
14.940,0.098
14.945,-0.077
14.950,-0.463
14.955,-0.932
14.960,-1.574
14.965,-1.933
14.970,-1.711
14.975,-1.262
14.980,-0.619
14.985,0.149
14.990,0.602
14.995,0.513
15.000,0.330
15.005,0.468
15.010,0.495
15.015,0.294
15.020,0.329
15.025,0.435
15.030,0.290
15.035,0.241
15.040,0.383
15.045,0.313
15.050,0.178
15.055,0.287
15.060,0.306
15.065,0.141
15.070,0.187
15.075,0.295
15.080,0.159
15.085,0.111
15.090,0.246
15.095,0.171
15.100,0.039
15.105,0.157
15.110,0.185
15.115,0.026
15.120,0.074
15.125,0.173
15.130,0.025
15.135,-0.021
15.140,0.120
15.145,0.050
15.150,-0.076
15.155,0.033
15.160,0.044
15.165,-0.119
15.170,-0.071
15.175,0.025
15.180,-0.114
15.185,-0.152
15.190,-0.009
15.195,-0.079
15.200,-0.203
15.205,-0.072
15.210,-0.038
15.215,-0.180
15.220,-0.084
15.225,0.068
15.230,-0.032
15.235,-0.022
15.240,0.175
15.245,0.143
15.250,0.057
15.255,0.213
15.260,0.263
15.265,0.141
15.270,0.233
15.275,0.352
15.280,0.204
15.285,0.155
15.290,0.297
15.295,0.229
15.300,0.113
15.305,0.241
15.310,0.258
15.315,0.085
15.320,0.130
15.325,0.233
15.330,0.097
15.335,0.060
15.340,0.199
15.345,0.120
15.350,0.000
15.355,0.133
15.360,0.153
15.365,-0.018
15.370,0.028
15.375,0.127
15.380,-0.009
15.385,-0.034
15.390,0.116
15.395,0.046
15.400,-0.067
15.405,0.065
15.410,0.087
15.415,-0.077
15.420,-0.021
15.425,0.087
15.430,-0.053
15.435,-0.085
15.440,0.066
15.445,-0.001
15.450,-0.115
15.455,0.008
15.460,0.032
15.465,-0.111
15.470,-0.049
15.475,0.046
15.480,-0.095
15.485,-0.116
15.490,0.048
15.495,-0.014
15.500,-0.127
15.505,0.004
15.510,0.021
15.515,-0.135
15.520,-0.067
15.525,0.039
15.530,-0.098
15.535,-0.121
15.540,0.030
15.545,-0.041
15.550,-0.154
15.555,-0.022
15.560,0.003
15.565,-0.144
15.570,-0.065
15.575,0.044
15.580,-0.105
15.585,-0.142
15.590,-0.002
15.595,-0.084
15.600,-0.210
15.605,-0.083
15.610,-0.053
15.615,-0.193
15.620,-0.120
15.625,-0.030
15.630,-0.183
15.635,-0.192
15.640,-0.034
15.645,-0.113
15.650,-0.203
15.655,-0.039
15.660,-0.006
15.665,-0.161
15.670,-0.087
15.675,0.045
15.680,-0.059
15.685,-0.061
15.690,0.096
15.695,0.036
15.700,-0.055
15.705,0.079
15.710,0.086
15.715,-0.067
15.720,0.009
15.725,0.112
15.730,-0.026
15.735,-0.043
15.740,0.106
15.745,0.025
15.750,-0.086
15.755,0.047
15.760,0.059
15.765,-0.082
15.770,0.027
15.775,0.132
15.780,-0.071
15.785,-0.208
15.790,-0.407
15.795,-1.174
15.800,-1.879
15.805,-1.878
15.810,-1.655
15.815,-1.226
15.820,-0.271
15.825,0.492
15.830,0.535
15.835,0.442
15.840,0.536
15.845,0.474
15.850,0.335
15.855,0.415
15.860,0.413
15.865,0.256
15.870,0.328
15.875,0.411
15.880,0.256
15.885,0.235
15.890,0.371
15.895,0.276
15.900,0.162
15.905,0.291
15.910,0.282
15.915,0.113
15.920,0.183
15.925,0.268
15.930,0.110
15.935,0.083
15.940,0.218
15.945,0.126
15.950,0.019
15.955,0.158
15.960,0.162
15.965,-0.005
15.970,0.066
15.975,0.159
15.980,-0.003
15.985,-0.030
15.990,0.106
15.995,0.005
16.000,-0.111
16.005,0.014
16.010,0.010
16.015,-0.156
16.020,-0.093
16.025,-0.005
16.030,-0.157
16.035,-0.176
16.040,-0.029
16.045,-0.118
16.050,-0.213
16.055,-0.046
16.060,-0.005
16.065,-0.116
16.070,0.009
16.075,0.150
16.080,0.052
16.085,0.086
16.090,0.259
16.095,0.188
16.100,0.105
16.105,0.268
16.110,0.298
16.115,0.163
16.120,0.246
16.125,0.332
16.130,0.183
16.135,0.168
16.140,0.302
16.145,0.204
16.150,0.095
16.155,0.229
16.160,0.222
16.165,0.055
16.170,0.128
16.175,0.214
16.180,0.052
16.185,0.035
16.190,0.184
16.195,0.091
16.200,-0.018
16.205,0.116
16.210,0.114
16.215,-0.043
16.220,0.036
16.225,0.134
16.230,-0.010
16.235,-0.024
16.240,0.115
16.245,0.021
16.250,-0.075
16.255,0.070
16.260,0.065
16.265,-0.094
16.270,-0.012
16.275,0.078
16.280,-0.071
16.285,-0.079
16.290,0.063
16.295,-0.030
16.300,-0.126
16.305,0.021
16.310,0.031
16.315,-0.117
16.320,-0.040
16.325,0.053
16.330,-0.087
16.335,-0.093
16.340,0.048
16.345,-0.039
16.350,-0.127
16.355,0.009
16.360,-0.002
16.365,-0.145
16.370,-0.046
16.375,0.040
16.380,-0.112
16.385,-0.110
16.390,0.033
16.395,-0.061
16.400,-0.154
16.405,-0.008
16.410,0.002
16.415,-0.140
16.420,-0.057
16.425,0.029
16.430,-0.120
16.435,-0.125
16.440,0.021
16.445,-0.067
16.450,-0.151
16.455,-0.001
16.460,-0.008
16.465,-0.157
16.470,-0.059
16.475,0.034
16.480,-0.116
16.485,-0.119
16.490,0.017
16.495,-0.083
16.500,-0.180
16.505,-0.047
16.510,-0.063
16.515,-0.209
16.520,-0.103
16.525,-0.007
16.530,-0.174
16.535,-0.191
16.540,-0.032
16.545,-0.115
16.550,-0.211
16.555,-0.048
16.560,-0.027
16.565,-0.161
16.570,-0.062
16.575,0.031
16.580,-0.098
16.585,-0.059
16.590,0.109
16.595,0.018
16.600,-0.070
16.605,0.083
16.610,0.082
16.615,-0.063
16.620,0.033
16.625,0.116
16.630,-0.025
16.635,-0.013
16.640,0.120
16.645,0.017
16.650,-0.067
16.655,0.076
16.660,0.063
16.665,-0.081
16.670,0.012
16.675,0.110
16.680,-0.002
16.685,-0.013
16.690,0.047
16.695,-0.231
16.700,-0.816
16.705,-1.438
16.710,-1.841
16.715,-1.811
16.720,-1.436
16.725,-0.756
16.730,0.005
16.735,0.510
16.740,0.676
16.745,0.493
16.750,0.372
16.755,0.503
16.760,0.438
16.765,0.260
16.770,0.349
16.775,0.418
16.780,0.263
16.785,0.259
16.790,0.384
16.795,0.274
16.800,0.184
16.805,0.323
16.810,0.289
16.815,0.122
16.820,0.210
16.825,0.282
16.830,0.119
16.835,0.123
16.840,0.250
16.845,0.133
16.850,0.048
16.855,0.187
16.860,0.160
16.865,0.010
16.870,0.093
16.875,0.149
16.880,-0.017
16.885,-0.010
16.890,0.134
16.895,0.030
16.900,-0.067
16.905,0.059
16.910,0.023
16.915,-0.140
16.920,-0.055
16.925,0.010
16.930,-0.155
16.935,-0.149
16.940,-0.011
16.945,-0.120
16.950,-0.204
16.955,-0.054
16.960,-0.062
16.965,-0.181
16.970,-0.052
16.975,0.054
16.980,-0.056
16.985,0.006
16.990,0.182
16.995,0.113
17.000,0.077
17.005,0.261
17.010,0.266
17.015,0.143
17.020,0.248
17.025,0.315
17.030,0.166
17.035,0.189
17.040,0.327
17.045,0.217
17.050,0.130
17.055,0.268
17.060,0.236
17.065,0.087
17.070,0.175
17.075,0.234
17.080,0.077
17.085,0.083
17.090,0.205
17.095,0.088
17.100,0.009
17.105,0.152
17.110,0.119
17.115,-0.027
17.120,0.081
17.125,0.149
17.130,-0.022
17.135,-0.012
17.140,0.132
17.145,0.022
17.150,-0.058
17.155,0.089
17.160,0.062
17.165,-0.087
17.170,0.008
17.175,0.081
17.180,-0.066
17.185,-0.051
17.190,0.077
17.195,-0.040
17.200,-0.115
17.205,0.047
17.210,0.035
17.215,-0.102
17.220,-0.004
17.225,0.054
17.230,-0.104
17.235,-0.082
17.240,0.054
17.245,-0.052
17.250,-0.118
17.255,0.038
17.260,0.009
17.265,-0.142
17.270,-0.040
17.275,0.032
17.280,-0.115
17.285,-0.086
17.290,0.054
17.295,-0.054
17.300,-0.132
17.305,0.011
17.310,-0.015
17.315,-0.154
17.320,-0.047
17.325,0.023
17.330,-0.127
17.335,-0.093
17.340,0.041
17.345,-0.080
17.350,-0.152
17.355,0.007
17.360,-0.017
17.365,-0.160
17.370,-0.047
17.375,0.028
17.380,-0.124
17.385,-0.096
17.390,0.030
17.395,-0.090
17.400,-0.147
17.405,0.010
17.410,-0.030
17.415,-0.176
17.420,-0.078
17.425,-0.027
17.430,-0.183
17.435,-0.142
17.440,-0.001
17.445,-0.128
17.450,-0.219
17.455,-0.071
17.460,-0.079
17.465,-0.210
17.470,-0.097
17.475,-0.002
17.480,-0.128
17.485,-0.089
17.490,0.046
17.495,-0.057
17.500,-0.095
17.505,0.083
17.510,0.066
17.515,-0.060
17.520,0.060
17.525,0.126
17.530,-0.032
17.535,-0.008
17.540,0.125
17.545,0.015
17.550,-0.045
17.555,0.102
17.560,0.069
17.565,-0.065
17.570,0.044
17.575,0.105
17.580,-0.052
17.585,-0.023
17.590,0.122
17.595,0.044
17.600,-0.023
17.605,0.056
17.610,-0.138
17.615,-0.722
17.620,-1.377
17.625,-1.815
17.630,-1.837
17.635,-1.508
17.640,-0.857
17.645,-0.072
17.650,0.456
17.655,0.677
17.660,0.567
17.665,0.388
17.670,0.482
17.675,0.497
17.680,0.299
17.685,0.310
17.690,0.430
17.695,0.307
17.700,0.230
17.705,0.367
17.710,0.321
17.715,0.179
17.720,0.280
17.725,0.319
17.730,0.152
17.735,0.177
17.740,0.287
17.745,0.151
17.750,0.082
17.755,0.219
17.760,0.169
17.765,0.029
17.770,0.133
17.775,0.174
17.780,0.008
17.785,0.044
17.790,0.176
17.795,0.047
17.800,-0.027
17.805,0.111
17.810,0.052
17.815,-0.096
17.820,0.012
17.825,0.046
17.830,-0.132
17.835,-0.098
17.840,0.021
17.845,-0.114
17.850,-0.178
17.855,-0.031
17.860,-0.077
17.865,-0.208
17.870,-0.082
17.875,-0.025
17.880,-0.171
17.885,-0.106
17.890,0.052
17.895,-0.024
17.900,-0.021
17.905,0.174
17.910,0.163
17.915,0.066
17.920,0.207
17.925,0.279
17.930,0.152
17.935,0.215
17.940,0.339
17.945,0.202
17.950,0.147
17.955,0.298
17.960,0.239
17.965,0.100
17.970,0.228
17.975,0.278
17.980,0.104
17.985,0.131
17.990,0.248
17.995,0.114
18.000,0.057
18.005,0.206
18.010,0.145
18.015,0.001
18.020,0.113
18.025,0.153
18.030,-0.012
18.035,0.023
18.040,0.140
18.045,0.018
18.050,-0.030
18.055,0.111
18.060,0.053
18.065,-0.076
18.070,0.037
18.075,0.074
18.080,-0.076
18.085,-0.022
18.090,0.100
18.095,-0.030
18.100,-0.088
18.105,0.057
18.110,0.003
18.115,-0.134
18.120,-0.009
18.125,0.050
18.130,-0.110
18.135,-0.072
18.140,0.063
18.145,-0.053
18.150,-0.105
18.155,0.043
18.160,-0.010
18.165,-0.134
18.170,-0.010
18.175,0.027
18.180,-0.126
18.185,-0.074
18.190,0.043
18.195,-0.090
18.200,-0.130
18.205,0.033
18.210,-0.026
18.215,-0.159
18.220,-0.024
18.225,0.028
18.230,-0.137
18.235,-0.093
18.240,0.029
18.245,-0.103
18.250,-0.144
18.255,0.025
18.260,-0.026
18.265,-0.151
18.270,-0.018
18.275,0.017
18.280,-0.151
18.285,-0.103
18.290,0.014
18.295,-0.130
18.300,-0.197
18.305,-0.052
18.310,-0.096
18.315,-0.201
18.320,-0.061
18.325,-0.041
18.330,-0.213
18.335,-0.142
18.340,-0.017
18.345,-0.143
18.350,-0.161
18.355,0.009
18.360,-0.043
18.365,-0.171
18.370,-0.030
18.375,0.052
18.380,-0.074
18.385,-0.018
18.390,0.104
18.395,-0.014
18.400,-0.051
18.405,0.103
18.410,0.049
18.415,-0.067
18.420,0.071
18.425,0.102
18.430,-0.067
18.435,-0.009
18.440,0.112
18.445,-0.026
18.450,-0.064
18.455,0.100
18.460,0.043
18.465,-0.061
18.470,0.100
18.475,0.111
18.480,-0.133
18.485,-0.326
18.490,-0.826
18.495,-1.651
18.500,-1.958
18.505,-1.704
18.510,-1.346
18.515,-0.642
18.520,0.283
18.525,0.647
18.530,0.476
18.535,0.468
18.540,0.560
18.545,0.396
18.550,0.316
18.555,0.433
18.560,0.354
18.565,0.231
18.570,0.347
18.575,0.362
18.580,0.197
18.585,0.239
18.590,0.342
18.595,0.208
18.600,0.159
18.605,0.292
18.610,0.218
18.615,0.084
18.620,0.197
18.625,0.218
18.630,0.050
18.635,0.100
18.640,0.209
18.645,0.072
18.650,0.040
18.655,0.186
18.660,0.110
18.665,-0.017
18.670,0.095
18.675,0.105
18.680,-0.062
18.685,-0.009
18.690,0.092
18.695,-0.057
18.700,-0.100
18.705,0.045
18.710,-0.022
18.715,-0.150
18.720,-0.049
18.725,-0.039
18.730,-0.195
18.735,-0.126
18.740,-0.003
18.745,-0.123
18.750,-0.135
18.755,0.031
18.760,-0.015
18.765,-0.101
18.770,0.073
18.775,0.147
18.780,0.032
18.785,0.129
18.790,0.266
18.795,0.150
18.800,0.145
18.805,0.316
18.810,0.255
18.815,0.144
18.820,0.276
18.825,0.288
18.830,0.123
18.835,0.188
18.840,0.288
18.845,0.131
18.850,0.088
18.855,0.230
18.860,0.153
18.865,0.036
18.870,0.172
18.875,0.195
18.880,0.028
18.885,0.081
18.890,0.186
18.895,0.040
18.900,0.000
18.905,0.141
18.910,0.060
18.915,-0.053
18.920,0.090
18.925,0.113
18.930,-0.056
18.935,0.001
18.940,0.119
18.945,-0.021
18.950,-0.068
18.955,0.066
18.960,-0.010
18.965,-0.113
18.970,0.034
18.975,0.057
18.980,-0.110
18.985,-0.049
18.990,0.058
18.995,-0.087
19.000,-0.116
19.005,0.045
19.010,-0.016
19.015,-0.126
19.020,0.008
19.025,0.023
19.030,-0.134
19.035,-0.061
19.040,0.052
19.045,-0.083
19.050,-0.106
19.055,0.046
19.060,-0.035
19.065,-0.153
19.070,-0.014
19.075,0.015
19.080,-0.138
19.085,-0.071
19.090,0.038
19.095,-0.095
19.100,-0.119
19.105,0.026
19.110,-0.050
19.115,-0.159
19.120,-0.028
19.125,-0.022
19.130,-0.190
19.135,-0.129
19.140,-0.024
19.145,-0.147
19.150,-0.152
19.155,-0.029
19.160,-0.134
19.165,-0.228
19.170,-0.078
19.175,-0.062
19.180,-0.200
19.185,-0.102
19.190,0.017
19.195,-0.121
19.200,-0.133
19.205,0.044
19.210,-0.001
19.215,-0.095
19.220,0.045
19.225,0.077
19.230,-0.056
19.235,0.021
19.240,0.116
19.245,-0.024
19.250,-0.040
19.255,0.103
19.260,0.022
19.265,-0.078
19.270,0.061
19.275,0.068
19.280,-0.088
19.285,-0.013
19.290,0.097
19.295,-0.027
19.300,-0.009
19.305,0.144
19.310,-0.005
19.315,-0.265
19.320,-0.523
19.325,-1.202
19.330,-1.874
19.335,-1.873
19.340,-1.577
19.345,-1.110
19.350,-0.238
19.355,0.514
19.360,0.573
19.365,0.392
19.370,0.498
19.375,0.519
19.380,0.329
19.385,0.362
19.390,0.442
19.395,0.285
19.400,0.266
19.405,0.404
19.410,0.307
19.415,0.194
19.420,0.328
19.425,0.329
19.430,0.159
19.435,0.218
19.440,0.303
19.445,0.148
19.450,0.123
19.455,0.263
19.460,0.173
19.465,0.058
19.470,0.185
19.475,0.181
19.480,0.015
19.485,0.100
19.490,0.200
19.495,0.037
19.500,0.007
19.505,0.140
19.510,0.035
19.515,-0.080
19.520,0.056
19.525,0.056
19.530,-0.108
19.535,-0.037
19.540,0.048
19.545,-0.120
19.550,-0.149
19.555,-0.010
19.560,-0.099
19.565,-0.202
19.570,-0.057
19.575,-0.043
19.580,-0.188
19.585,-0.095
19.590,0.028
19.595,-0.079
19.600,-0.041
19.605,0.158
19.610,0.115
19.615,0.060
19.620,0.238
19.625,0.262
19.630,0.123
19.635,0.217
19.640,0.325
19.645,0.189
19.650,0.181
19.655,0.320
19.660,0.223
19.665,0.116
19.670,0.251
19.675,0.261
19.680,0.109
19.685,0.172
19.690,0.242
19.695,0.083
19.700,0.068
19.705,0.204
19.710,0.114
19.715,0.016
19.720,0.150
19.725,0.149
19.730,-0.003
19.735,0.070
19.740,0.157
19.745,0.013
19.750,-0.008
19.755,0.117
19.760,0.018
19.765,-0.077
19.770,0.069
19.775,0.072
19.780,-0.083
19.785,-0.009
19.790,0.076
19.795,-0.073
19.800,-0.081
19.805,0.069
19.810,-0.019
19.815,-0.120
19.820,0.034
19.825,0.044
19.830,-0.112
19.835,-0.037
19.840,0.047
19.845,-0.094
19.850,-0.098
19.855,0.034
19.860,-0.057
19.865,-0.144
19.870,0.006
19.875,0.017
19.880,-0.129
19.885,-0.043
19.890,0.049
19.895,-0.101
19.900,-0.114
19.905,0.023
19.910,-0.068
19.915,-0.146
19.920,0.006
19.925,-0.002
19.930,-0.151
19.935,-0.059
19.940,0.026
19.945,-0.123
19.950,-0.119
19.955,0.029
19.960,-0.070
19.965,-0.184
19.970,-0.055
19.975,-0.061
19.980,-0.206
19.985,-0.110
19.990,-0.016
19.995,-0.174
20.000,-0.196
20.005,-0.044
20.010,-0.111
20.015,-0.210
20.020,-0.074
20.025,-0.046
20.030,-0.156
20.035,-0.064
20.040,0.011
20.045,-0.123
20.050,-0.086
20.055,0.093
20.060,0.011
20.065,-0.079
20.070,0.078
20.075,0.086
20.080,-0.060
20.085,0.029
20.090,0.109
20.095,-0.038
20.100,-0.028
20.105,0.099
20.110,-0.008
20.115,-0.084
20.120,0.069
20.125,0.058
20.130,-0.092
20.135,0.002
20.140,0.120
20.145,0.001
20.150,-0.048
20.155,-0.010
20.160,-0.327
20.165,-0.980
20.170,-1.590
20.175,-1.883
20.180,-1.780
20.185,-1.348
20.190,-0.579
20.195,0.144
20.200,0.530
20.205,0.638
20.210,0.440
20.215,0.337
20.220,0.490
20.225,0.437
20.230,0.261
20.235,0.351
20.240,0.423
20.245,0.262
20.250,0.259
20.255,0.383
20.260,0.270
20.265,0.179
20.270,0.313
20.275,0.287
20.280,0.120
20.285,0.195
20.290,0.267
20.295,0.101
20.300,0.099
20.305,0.242
20.310,0.144
20.315,0.060
20.320,0.192
20.325,0.155
20.330,-0.003
20.335,0.093
20.340,0.161
20.345,-0.012
20.350,-0.012
20.355,0.129
20.360,0.021
20.365,-0.085
20.370,0.040
20.375,0.014
20.380,-0.144
20.385,-0.058
20.390,0.000
20.395,-0.164
20.400,-0.141
20.405,0.001
20.410,-0.121
20.415,-0.221
20.420,-0.072
20.425,-0.062
20.430,-0.170
20.435,-0.036
20.440,0.079
20.445,-0.026
20.450,0.039
20.455,0.223
20.460,0.145
20.465,0.089
20.470,0.271
20.475,0.282
20.480,0.156
20.485,0.250
20.490,0.305
20.495,0.151
20.500,0.179
20.505,0.314
20.510,0.197
20.515,0.114
20.520,0.253
20.525,0.222
20.530,0.065
20.535,0.159
20.540,0.235
20.545,0.080
20.550,0.086
20.555,0.211
20.560,0.095
20.565,0.008
20.570,0.138
20.575,0.108
20.580,-0.033
20.585,0.072
20.590,0.148
20.595,-0.007
20.600,0.002
20.605,0.129
20.610,0.012
20.615,-0.070
20.620,0.072
20.625,0.040
20.630,-0.101
20.635,0.013
20.640,0.085
20.645,-0.078
20.650,-0.070
20.655,0.069
20.660,-0.027
20.665,-0.105
20.670,0.036
20.675,0.014
20.680,-0.127
20.685,-0.021
20.690,0.053
20.695,-0.097
20.700,-0.076
20.705,0.054
20.710,-0.055
20.715,-0.117
20.720,0.035
20.725,0.002
20.730,-0.151
20.735,-0.049
20.740,0.032
20.745,-0.112
20.750,-0.089
20.755,0.049
20.760,-0.067
20.765,-0.147
20.770,0.009
20.775,-0.013
20.780,-0.154
20.785,-0.052
20.790,0.018
20.795,-0.131
20.800,-0.110
20.805,0.028
20.810,-0.081
20.815,-0.159
20.820,-0.016
20.825,-0.058
20.830,-0.209
20.835,-0.095
20.840,-0.022
20.845,-0.173
20.850,-0.148
20.855,-0.033
20.860,-0.169
20.865,-0.224
20.870,-0.052
20.875,-0.083
20.880,-0.210
20.885,-0.072
20.890,0.013
20.895,-0.137
20.900,-0.106
20.905,0.048
20.910,-0.032
20.915,-0.073
20.920,0.091
20.925,0.063
20.930,-0.071
20.935,0.047
20.940,0.107
20.945,-0.054
20.950,-0.019
20.955,0.122
20.960,0.009
20.965,-0.064
20.970,0.078
20.975,0.040
20.980,-0.096
20.985,0.017
20.990,0.084
20.995,-0.056
21.000,-0.001
21.005,0.141
21.010,-0.022
21.015,-0.181
21.020,-0.283
21.025,-0.936
21.030,-1.772
21.035,-1.934
21.040,-1.725
21.045,-1.403
21.050,-0.532
21.055,0.391
21.060,0.583
21.065,0.458
21.070,0.510
21.075,0.478
21.080,0.329
21.085,0.388
21.090,0.428
21.095,0.265
21.100,0.296
21.105,0.430
21.110,0.299
21.115,0.219
21.120,0.358
21.125,0.305
21.130,0.158
21.135,0.259
21.140,0.298
21.145,0.135
21.150,0.167
21.155,0.281
21.160,0.138
21.165,0.066
21.170,0.211
21.175,0.161
21.180,0.030
21.185,0.145
21.190,0.178
21.195,-0.002
21.200,0.026
21.205,0.153
21.210,0.023
21.215,-0.052
21.220,0.088
21.225,0.033
21.230,-0.109
21.235,0.002
21.240,0.046
21.245,-0.125
21.250,-0.110
21.255,0.002
21.260,-0.131
21.265,-0.198
21.270,-0.043
21.275,-0.081
21.280,-0.211
21.285,-0.082
21.290,-0.006
21.295,-0.123
21.300,-0.032
21.305,0.147
21.310,0.067
21.315,0.050
21.320,0.233
21.325,0.212
21.330,0.111
21.335,0.253
21.340,0.315
21.345,0.170
21.350,0.216
21.355,0.334
21.360,0.204
21.365,0.147
21.370,0.292
21.375,0.239
21.380,0.091
21.385,0.196
21.390,0.242
21.395,0.080
21.400,0.111
21.405,0.226
21.410,0.095
21.415,0.040
21.420,0.185
21.425,0.126
21.430,-0.008
21.435,0.103
21.440,0.136
21.445,-0.022
21.450,0.012
21.455,0.123
21.460,0.003
21.465,-0.045
21.470,0.110
21.475,0.060
21.480,-0.088
21.485,0.022
21.490,0.064
21.495,-0.091
21.500,-0.026
21.505,0.102
21.510,-0.041
21.515,-0.097
21.520,0.064
21.525,0.014
21.530,-0.120
21.535,0.007
21.540,0.057
21.545,-0.098
21.550,-0.059
21.555,0.058
21.560,-0.065
21.565,-0.121
21.570,0.026
21.575,-0.014
21.580,-0.131
21.585,-0.005
21.590,0.040
21.595,-0.119
21.600,-0.080
21.605,0.034
21.610,-0.091
21.615,-0.136
21.620,0.016
21.625,-0.028
21.630,-0.146
21.635,-0.025
21.640,0.013
21.645,-0.149
21.650,-0.098
21.655,0.031
21.660,-0.090
21.665,-0.127
21.670,0.029
21.675,-0.027
21.680,-0.156
21.685,-0.038
21.690,0.004
21.695,-0.148
21.700,-0.101
21.705,0.015
21.710,-0.115
21.715,-0.163
21.720,-0.028
21.725,-0.099
21.730,-0.214
21.735,-0.071
21.740,-0.033
21.745,-0.214
21.750,-0.171
21.755,-0.031
21.760,-0.155
21.765,-0.195
21.770,-0.015
21.775,-0.041
21.780,-0.151
21.785,-0.028
21.790,0.020
21.795,-0.101
21.800,-0.018
21.805,0.110
21.810,-0.008
21.815,-0.035
21.820,0.109
21.825,0.045
21.830,-0.064
21.835,0.077
21.840,0.115
21.845,-0.057
21.850,-0.013
21.855,0.111
21.860,-0.025
21.865,-0.065
21.870,0.097
21.875,0.038
21.880,-0.085
21.885,0.060
21.890,0.133
21.895,-0.040
21.900,-0.073
21.905,-0.162
21.910,-0.832
21.915,-1.649
21.920,-1.909
21.925,-1.765
21.930,-1.464
21.935,-0.681
21.940,0.213
21.945,0.511
21.950,0.562
21.955,0.601
21.960,0.440
21.965,0.373
21.970,0.476
21.975,0.386
21.980,0.252
21.985,0.370
21.990,0.397
21.995,0.229
22.000,0.270
22.005,0.365
22.010,0.222
22.015,0.184
22.020,0.325
22.025,0.245
22.030,0.111
22.035,0.228
22.040,0.246
22.045,0.077
22.050,0.137
22.055,0.250
22.060,0.099
22.065,0.044
22.070,0.180
22.075,0.105
22.080,-0.016
22.085,0.111
22.090,0.128
22.095,-0.050
22.100,-0.004
22.105,0.108
22.110,-0.028
22.115,-0.071
22.120,0.061
22.125,-0.023
22.130,-0.147
22.135,-0.025
22.140,-0.009
22.145,-0.169
22.150,-0.116
22.155,-0.015
22.160,-0.159
22.165,-0.191
22.170,-0.016
22.175,-0.048
22.180,-0.139
22.185,0.019
22.190,0.090
22.195,-0.019
22.200,0.085
22.205,0.234
22.210,0.133
22.215,0.133
22.220,0.307
22.225,0.250
22.230,0.134
22.235,0.275
22.240,0.312
22.245,0.146
22.250,0.203
22.255,0.314
22.260,0.163
22.265,0.121
22.270,0.269
22.275,0.192
22.280,0.066
22.285,0.185
22.290,0.191
22.295,0.024
22.300,0.084
22.305,0.192
22.310,0.049
22.315,0.017
22.320,0.165
22.325,0.079
22.330,-0.045
22.335,0.089
22.340,0.115
22.345,-0.033
22.350,0.025
22.355,0.116
22.360,-0.041
22.365,-0.073
22.370,0.086
22.375,0.004
22.380,-0.112
22.385,0.035
22.390,0.055
22.395,-0.104
22.400,-0.029
22.405,0.079
22.410,-0.074
22.415,-0.111
22.420,0.051
22.425,-0.004
22.430,-0.114
22.435,0.016
22.440,0.032
22.445,-0.122
22.450,-0.047
22.455,0.054
22.460,-0.096
22.465,-0.119
22.470,0.040
22.475,-0.026
22.480,-0.140
22.485,-0.006
22.490,0.019
22.495,-0.125
22.500,-0.049
22.505,0.050
22.510,-0.092
22.515,-0.121
22.520,0.019
22.525,-0.057
22.530,-0.168
22.535,-0.026
22.540,0.007
22.545,-0.141
22.550,-0.068
22.555,0.040
22.560,-0.099
22.565,-0.125
22.570,0.019
22.575,-0.061
22.580,-0.178
22.585,-0.050
22.590,-0.028
22.595,-0.182
22.600,-0.119
22.605,-0.021
22.610,-0.162
22.615,-0.193
22.620,-0.061
22.625,-0.118
22.630,-0.198
22.635,-0.058
22.640,-0.031
22.645,-0.166
22.650,-0.091
22.655,0.008
22.660,-0.120
22.665,-0.096
22.670,0.094
22.675,0.030
22.680,-0.072
22.685,0.076
22.690,0.101
22.695,-0.052
22.700,0.013
22.705,0.109
22.710,-0.028
22.715,-0.037
22.720,0.103
22.725,0.016
22.730,-0.075
22.735,0.073
22.740,0.080
22.745,-0.084
22.750,-0.006
22.755,0.118
22.760,0.015
22.765,-0.007
22.770,0.061
22.775,-0.206
22.780,-0.784
22.785,-1.396
22.790,-1.827
22.795,-1.830
22.800,-1.458
22.805,-0.797
22.810,-0.053
22.815,0.461
22.820,0.650
22.825,0.502
22.830,0.370
22.835,0.494
22.840,0.466
22.845,0.278
22.850,0.334
22.855,0.411
22.860,0.259
22.865,0.238
22.870,0.370
22.875,0.276
22.880,0.172
22.885,0.307
22.890,0.304
22.895,0.139
22.900,0.201
22.905,0.281
22.910,0.123
22.915,0.095
22.920,0.233
22.925,0.151
22.930,0.047
22.935,0.171
22.940,0.165
22.945,0.010
22.950,0.090
22.955,0.176
22.960,0.011
22.965,-0.019
22.970,0.110
22.975,0.013
22.980,-0.090
22.985,0.045
22.990,0.039
22.995,-0.126
23.000,-0.061
23.005,0.018
23.010,-0.130
23.015,-0.132
23.020,0.006
23.025,-0.093
23.030,-0.185
23.035,-0.042
23.040,-0.039
23.045,-0.166
23.050,-0.043
23.055,0.090
23.060,-0.015
23.065,0.011
23.070,0.187
23.075,0.133
23.080,0.071
23.085,0.245
23.090,0.267
23.095,0.120
23.100,0.212
23.105,0.319
23.110,0.168
23.115,0.155
23.120,0.300
23.125,0.205
23.130,0.110
23.135,0.244
23.140,0.220
23.145,0.055
23.150,0.141
23.155,0.231
23.160,0.076
23.165,0.066
23.170,0.207
23.175,0.101
23.180,-0.003
23.185,0.143
23.190,0.132
23.195,-0.031
23.200,0.047
23.205,0.132
23.210,-0.018
23.215,-0.027
23.220,0.109
23.225,0.019
23.230,-0.067
23.235,0.071
23.240,0.062
23.245,-0.086
23.250,-0.002
23.255,0.077
23.260,-0.077
23.265,-0.080
23.270,0.062
23.275,-0.031
23.280,-0.116
23.285,0.030
23.290,0.028
23.295,-0.121
23.300,-0.043
23.305,0.039
23.310,-0.110
23.315,-0.103
23.320,0.055
23.325,-0.036
23.330,-0.127
23.335,0.017
23.340,0.015
23.345,-0.119
23.350,-0.024
23.355,0.046
23.360,-0.118
23.365,-0.116
23.370,0.033
23.375,-0.057
23.380,-0.134
23.385,0.011
23.390,-0.002
23.395,-0.143
23.400,-0.046
23.405,0.038
23.410,-0.110
23.415,-0.104
23.420,0.029
23.425,-0.072
23.430,-0.155
23.435,-0.021
23.440,-0.052
23.445,-0.212
23.450,-0.115
23.455,-0.016
23.460,-0.156
23.465,-0.159
23.470,-0.038
23.475,-0.135
23.480,-0.202
23.485,-0.061
23.490,-0.072
23.495,-0.189
23.500,-0.061
23.505,0.035
23.510,-0.110
23.515,-0.091
23.520,0.067
23.525,-0.013
23.530,-0.082
23.535,0.073
23.540,0.077
23.545,-0.050
23.550,0.038
23.555,0.107
23.560,-0.041
23.565,-0.028
23.570,0.114
23.575,0.004
23.580,-0.087
23.585,0.064
23.590,0.064
23.595,-0.072
23.600,0.018
23.605,0.099
23.610,-0.026
23.615,-0.006
23.620,0.085
23.625,-0.137
23.630,-0.554
23.635,-1.084
23.640,-1.702
23.645,-1.912
23.650,-1.616
23.655,-1.112
23.660,-0.401
23.665,0.322
23.670,0.653
23.675,0.496
23.680,0.354
23.685,0.504
23.690,0.452
23.695,0.258
23.700,0.359
23.705,0.433
23.710,0.274
23.715,0.282
23.720,0.411
23.725,0.290
23.730,0.191
23.735,0.321
23.740,0.286
23.745,0.135
23.750,0.232
23.755,0.297
23.760,0.127
23.765,0.136
23.770,0.271
23.775,0.145
23.780,0.050
23.785,0.186
23.790,0.155
23.795,0.005
23.800,0.096
23.805,0.149
23.810,-0.020
23.815,-0.003
23.820,0.143
23.825,0.031
23.830,-0.070
23.835,0.053
23.840,0.022
23.845,-0.124
23.850,-0.028
23.855,0.041
23.860,-0.126
23.865,-0.124
23.870,0.001
23.875,-0.118
23.880,-0.197
23.885,-0.050
23.890,-0.073
23.895,-0.202
23.900,-0.063
23.905,0.052
23.910,-0.057
23.915,0.006
23.920,0.179
23.925,0.103
23.930,0.066
23.935,0.256
23.940,0.258
23.945,0.129
23.950,0.236
23.955,0.309
23.960,0.167
23.965,0.188
23.970,0.313
23.975,0.196
23.980,0.115
23.985,0.252
23.990,0.212
23.995,0.064
24.000,0.169
24.005,0.238
24.010,0.073
24.015,0.073
24.020,0.197
24.025,0.095
24.030,0.027
24.035,0.166
24.040,0.125
24.045,-0.025
24.050,0.074
24.055,0.128
24.060,-0.037
24.065,-0.012
24.070,0.118
24.075,0.003
24.080,-0.063
24.085,0.078
24.090,0.047
24.095,-0.082
24.100,0.029
24.105,0.084
24.110,-0.083
24.115,-0.059
24.120,0.075
24.125,-0.036
24.130,-0.103
24.135,0.041
24.140,0.010
24.145,-0.126
24.150,-0.018
24.155,0.048
24.160,-0.103
24.165,-0.078
24.170,0.056
24.175,-0.053
24.180,-0.113
24.185,0.042
24.190,0.004
24.195,-0.140
24.200,-0.038
24.205,0.021
24.210,-0.131
24.215,-0.101
24.220,0.040
24.225,-0.074
24.230,-0.144
24.235,0.016
24.240,-0.010
24.245,-0.139
24.250,-0.024
24.255,0.024
24.260,-0.140
24.265,-0.101
24.270,0.041
24.275,-0.074
24.280,-0.138
24.285,0.023
24.290,-0.019
24.295,-0.170
24.300,-0.062
24.305,-0.015
24.310,-0.183
24.315,-0.152
24.320,-0.024
24.325,-0.141
24.330,-0.193
24.335,-0.046
24.340,-0.102
24.345,-0.231
24.350,-0.091
24.355,-0.025
24.360,-0.177
24.365,-0.123
24.370,0.022
24.375,-0.086
24.380,-0.135
24.385,0.025
24.390,0.007
24.395,-0.105
24.400,0.018
24.405,0.088
24.410,-0.043
24.415,0.014
24.420,0.145
24.425,0.022
24.430,-0.044
24.435,0.091
24.440,0.044
24.445,-0.080
24.450,0.043
24.455,0.096
24.460,-0.060
24.465,-0.020
24.470,0.114
24.475,-0.002
24.480,-0.039
24.485,0.133
24.490,0.042
24.495,-0.188
24.500,-0.305
24.505,-0.842
24.510,-1.689
24.515,-1.951
24.520,-1.724
24.525,-1.408
24.530,-0.638
24.535,0.318
24.540,0.617
24.545,0.453
24.550,0.482
24.555,0.541
24.560,0.374
24.565,0.358
24.570,0.464
24.575,0.335
24.580,0.268
24.585,0.410
24.590,0.353
24.595,0.203
24.600,0.299
24.605,0.341
24.610,0.182
24.615,0.206
24.620,0.311
24.625,0.186
24.630,0.132
24.635,0.265
24.640,0.197
24.645,0.054
24.650,0.169
24.655,0.211
24.660,0.050
24.665,0.086
24.670,0.192
24.675,0.051
24.680,-0.014
24.685,0.126
24.690,0.071
24.695,-0.064
24.700,0.057
24.705,0.098
24.710,-0.077
24.715,-0.060
24.720,0.043
24.725,-0.090
24.730,-0.150
24.735,-0.012
24.740,-0.069
24.745,-0.200
24.750,-0.081
24.755,-0.034
24.760,-0.183
24.765,-0.127
24.770,0.009
24.775,-0.085
24.780,-0.082
24.785,0.117
24.790,0.103
24.795,0.011
24.800,0.161
24.805,0.232
24.810,0.116
24.815,0.196
24.820,0.326
24.825,0.201
24.830,0.162
24.835,0.318
24.840,0.258
24.845,0.120
24.850,0.235
24.855,0.269
24.860,0.105
24.865,0.148
24.870,0.263
24.875,0.126
24.880,0.070
24.885,0.211
24.890,0.146
24.895,0.012
24.900,0.125
24.905,0.154
24.910,-0.006
24.915,0.043
24.920,0.150
24.925,0.014
24.930,-0.032
24.935,0.115
24.940,0.054
24.945,-0.078
24.950,0.039
24.955,0.074
24.960,-0.077
24.965,-0.013
24.970,0.105
24.975,-0.032
24.980,-0.079
24.985,0.062
24.990,0.001
24.995,-0.111
25.000,0.022
25.005,0.046
25.010,-0.119
25.015,-0.050
25.020,0.069
25.025,-0.071
25.030,-0.112
25.035,0.042
25.040,-0.015
25.045,-0.135
25.050,-0.007
25.055,0.027
25.060,-0.126
25.065,-0.061
25.070,0.053
25.075,-0.087
25.080,-0.126
25.085,0.026
25.090,-0.031
25.095,-0.147
25.100,-0.022
25.105,0.006
25.110,-0.150
25.115,-0.090
25.120,0.029
25.125,-0.095
25.130,-0.124
25.135,0.036
25.140,-0.025
25.145,-0.157
25.150,-0.030
25.155,0.011
25.160,-0.143
25.165,-0.088
25.170,0.024
25.175,-0.109
25.180,-0.147
25.185,-0.006
25.190,-0.086
25.195,-0.215
25.200,-0.081
25.205,-0.037
25.210,-0.189
25.215,-0.151
25.220,-0.065
25.225,-0.181
25.230,-0.175
25.235,-0.024
25.240,-0.086
25.245,-0.172
25.250,-0.013
25.255,0.018
25.260,-0.147
25.265,-0.075
25.270,0.064
25.275,-0.039
25.280,-0.045
25.285,0.122
25.290,0.067
25.295,-0.050
25.300,0.077
25.305,0.102
25.310,-0.058
25.315,0.004
25.320,0.117
25.325,-0.016
25.330,-0.041
25.335,0.113
25.340,0.043
25.345,-0.073
25.350,0.057
25.355,0.073
25.360,-0.056
25.365,0.039
25.370,0.093
25.375,-0.150
25.380,-0.444
25.385,-0.933
25.390,-1.663
25.395,-1.943
25.400,-1.668
25.405,-1.251
25.410,-0.545
25.415,0.313
25.420,0.688
25.425,0.494
25.430,0.379
25.435,0.536
25.440,0.452
25.445,0.290
25.450,0.404
25.455,0.413
25.460,0.253
25.465,0.312
25.470,0.401
25.475,0.245
25.480,0.204
25.485,0.336
25.490,0.249
25.495,0.134
25.500,0.267
25.505,0.282
25.510,0.116
25.515,0.169
25.520,0.256
25.525,0.104
25.530,0.072
25.535,0.205
25.540,0.111
25.545,-0.007
25.550,0.131
25.555,0.144
25.560,-0.017
25.565,0.052
25.570,0.153
25.575,0.002
25.580,-0.042
25.585,0.085
25.590,0.000
25.595,-0.111
25.600,0.005
25.605,-0.009
25.610,-0.169
25.615,-0.095
25.620,0.000
25.625,-0.148
25.630,-0.174
25.635,-0.027
25.640,-0.099
25.645,-0.192
25.650,-0.034
25.655,0.006
25.660,-0.107
25.665,0.020
25.670,0.166
25.675,0.057
25.680,0.073
25.685,0.251
25.690,0.204
25.695,0.134
25.700,0.291
25.705,0.309
25.710,0.162
25.715,0.235
25.720,0.321
25.725,0.172
25.730,0.152
25.735,0.291
25.740,0.200
25.745,0.087
25.750,0.216
25.755,0.223
25.760,0.062
25.765,0.120
25.770,0.205
25.775,0.057
25.780,0.040
25.785,0.184
25.790,0.097
25.795,-0.013
25.800,0.112
25.805,0.116
25.810,-0.033
25.815,0.045
25.820,0.134
25.825,-0.021
25.830,-0.038
25.835,0.110
25.840,0.024
25.845,-0.087
25.850,0.043
25.855,0.048
25.860,-0.100
25.865,-0.015
25.870,0.077
25.875,-0.074
25.880,-0.083
25.885,0.061
25.890,-0.028
25.895,-0.116
25.900,0.029
25.905,0.025
25.910,-0.124
25.915,-0.032
25.920,0.067
25.925,-0.076
25.930,-0.088
25.935,0.042
25.940,-0.051
25.945,-0.139
25.950,0.011
25.955,0.011
25.960,-0.148
25.965,-0.058
25.970,0.044
25.975,-0.103
25.980,-0.121
25.985,0.017
25.990,-0.056
25.995,-0.135
26.000,0.002
26.005,-0.013
26.010,-0.167
26.015,-0.067
26.020,0.035
26.025,-0.112
26.030,-0.120
26.035,0.022
26.040,-0.084
26.045,-0.207
26.050,-0.075
26.055,-0.067
26.060,-0.203
26.065,-0.098
26.070,-0.006
26.075,-0.191
26.080,-0.213
26.085,-0.038
26.090,-0.113
26.095,-0.211
26.100,-0.045
26.105,-0.023
26.110,-0.165
26.115,-0.073
26.120,0.027
26.125,-0.087
26.130,-0.058
26.135,0.093
26.140,0.001
26.145,-0.085
26.150,0.076
26.155,0.084
26.160,-0.062
26.165,0.027
26.170,0.112
26.175,-0.034
26.180,-0.025
26.185,0.125
26.190,0.030
26.195,-0.072
26.200,0.056
26.205,0.046
26.210,-0.097
26.215,0.006
26.220,0.139
26.225,-0.004
26.230,-0.082
26.235,-0.100
26.240,-0.635
26.245,-1.488
26.250,-1.904
26.255,-1.831
26.260,-1.572
26.265,-0.882
26.270,0.062
26.275,0.484
26.280,0.561
26.285,0.637
26.290,0.482
26.295,0.344
26.300,0.439
26.305,0.396
26.310,0.238
26.315,0.329
26.320,0.415
26.325,0.247
26.330,0.232
26.335,0.359
26.340,0.248
26.345,0.156
26.350,0.286
26.355,0.249
26.360,0.089
26.365,0.187
26.370,0.273
26.375,0.113
26.380,0.101
26.385,0.224
26.390,0.115
26.395,0.028
26.400,0.167
26.405,0.141
26.410,-0.015
26.415,0.074
26.420,0.142
26.425,-0.027
26.430,-0.031
26.435,0.099
26.440,-0.009
26.445,-0.088
26.450,0.048
26.455,0.008
26.460,-0.154
26.465,-0.064
26.470,0.012
26.475,-0.139
26.480,-0.135
26.485,-0.004
26.490,-0.114
26.495,-0.198
26.500,-0.039
26.505,-0.028
26.510,-0.137
26.515,-0.003
26.520,0.115
26.525,0.003
26.530,0.048
26.535,0.221
26.540,0.156
26.545,0.107
26.550,0.269
26.555,0.257
26.560,0.123
26.565,0.239
26.570,0.323
26.575,0.177
26.580,0.190
26.585,0.312
26.590,0.185
26.595,0.097
26.600,0.240
26.605,0.203
26.610,0.047
26.615,0.139
26.620,0.210
26.625,0.064
26.630,0.067
26.635,0.184
26.640,0.071
26.645,-0.003
26.650,0.153
26.655,0.130
26.660,-0.029
26.665,0.069
26.670,0.140
26.675,-0.025
26.680,-0.020
26.685,0.109
26.690,0.008
26.695,-0.066
26.700,0.064
26.705,0.038
26.710,-0.095
26.715,0.002
26.720,0.064
26.725,-0.083
26.730,-0.065
26.735,0.059
26.740,-0.052
26.745,-0.123
26.750,0.033
26.755,0.016
26.760,-0.117
26.765,-0.008
26.770,0.049
26.775,-0.108
26.780,-0.070
26.785,0.072
26.790,-0.044
26.795,-0.123
26.800,0.022
26.805,-0.008
26.810,-0.152
26.815,-0.046
26.820,0.029
26.825,-0.118
26.830,-0.098
26.835,0.029
26.840,-0.076
26.845,-0.129
26.850,0.029
26.855,-0.009
26.860,-0.157
26.865,-0.038
26.870,0.047
26.875,-0.110
26.880,-0.108
26.885,-0.001
26.890,-0.127
26.895,-0.191
26.900,-0.032
26.905,-0.046
26.910,-0.186
26.915,-0.113
26.920,-0.061
26.925,-0.191
26.930,-0.163
26.935,-0.044
26.940,-0.142
26.945,-0.169
26.950,0.010
26.955,-0.019
26.960,-0.151
26.965,-0.011
26.970,0.081
26.975,-0.059
26.980,-0.023
26.985,0.125
26.990,0.021
26.995,-0.055
27.000,0.084
27.005,0.051
27.010,-0.077
27.015,0.038
27.020,0.092
27.025,-0.069
27.030,-0.040
27.035,0.097
27.040,-0.017
27.045,-0.086
27.050,0.073
27.055,0.059
27.060,-0.045
27.065,0.049
27.070,0.021
27.075,-0.333
27.080,-0.824
27.085,-1.443
27.090,-1.895
27.095,-1.800
27.100,-1.365
27.105,-0.712
27.110,0.032
27.115,0.563
27.120,0.626
27.125,0.385
27.130,0.389
27.135,0.509
27.140,0.360
27.145,0.267
27.150,0.396
27.155,0.357
27.160,0.222
27.165,0.321
27.170,0.364
27.175,0.197
27.180,0.218
27.185,0.339
27.190,0.214
27.195,0.142
27.200,0.276
27.205,0.219
27.210,0.067
27.215,0.176
27.220,0.229
27.225,0.057
27.230,0.067
27.235,0.182
27.240,0.066
27.245,0.020
27.250,0.178
27.255,0.116
27.260,-0.043
27.265,0.065
27.270,0.113
27.275,-0.051
27.280,-0.023
27.285,0.088
27.290,-0.047
27.295,-0.110
27.300,0.032
27.305,-0.031
27.310,-0.180
27.315,-0.068
27.320,-0.020
27.325,-0.180
27.330,-0.140
27.335,-0.008
27.340,-0.117
27.345,-0.140
27.350,0.053
27.355,0.032
27.360,-0.078
27.365,0.084
27.370,0.185
27.375,0.070
27.380,0.141
27.385,0.289
27.390,0.183
27.395,0.146
27.400,0.310
27.405,0.263
27.410,0.122
27.415,0.229
27.420,0.275
27.425,0.123
27.430,0.162
27.435,0.282
27.440,0.151
27.445,0.092
27.450,0.238
27.455,0.177
27.460,0.035
27.465,0.143
27.470,0.173
27.475,0.011
27.480,0.060
27.485,0.182
27.490,0.047
27.495,-0.013
27.500,0.131
27.505,0.075
27.510,-0.050
27.515,0.071
27.520,0.106
27.525,-0.067
27.530,-0.034
27.535,0.093
27.540,-0.022
27.545,-0.064
27.550,0.082
27.555,0.015
27.560,-0.119
27.565,0.010
27.570,0.060
27.575,-0.097
27.580,-0.061
27.585,0.046
27.590,-0.077
27.595,-0.105
27.600,0.056
27.605,0.006
27.610,-0.120
27.615,-0.003
27.620,0.027
27.625,-0.123
27.630,-0.060
27.635,0.054
27.640,-0.079
27.645,-0.119
27.650,0.034
27.655,-0.027
27.660,-0.154
27.665,-0.023
27.670,0.022
27.675,-0.133
27.680,-0.080
27.685,0.041
27.690,-0.088
27.695,-0.135
27.700,0.015
27.705,-0.041
27.710,-0.169
27.715,-0.045
27.720,-0.018
27.725,-0.185
27.730,-0.124
27.735,0.000
27.740,-0.128
27.745,-0.170
27.750,-0.047
27.755,-0.129
27.760,-0.247
27.765,-0.121
27.770,-0.081
27.775,-0.219
27.780,-0.127
27.785,0.030
27.790,-0.092
27.795,-0.133
27.800,0.032
27.805,-0.007
27.810,-0.119
27.815,0.019
27.820,0.079
27.825,-0.050
27.830,0.031
27.835,0.143
27.840,-0.006
27.845,-0.040
27.850,0.115
27.855,0.048
27.860,-0.076
27.865,0.055
27.870,0.090
27.875,-0.066
27.880,-0.011
27.885,0.097
27.890,-0.031
27.895,-0.036
27.900,0.114
27.905,-0.022
27.910,-0.269
27.915,-0.483
27.920,-1.130
27.925,-1.843
27.930,-1.894
27.935,-1.606
27.940,-1.157
27.945,-0.286
27.950,0.509
27.955,0.599
27.960,0.386
27.965,0.461
27.970,0.518
27.975,0.331
27.980,0.344
27.985,0.449
27.990,0.305
27.995,0.268
28.000,0.409
28.005,0.324
28.010,0.193
28.015,0.315
28.020,0.336
28.025,0.171
28.030,0.215
28.035,0.307
28.040,0.162
28.045,0.117
28.050,0.247
28.055,0.170
28.060,0.053
28.065,0.180
28.070,0.194
28.075,0.027
28.080,0.087
28.085,0.182
28.090,0.029
28.095,-0.004
28.100,0.141
28.105,0.067
28.110,-0.055
28.115,0.059
28.120,0.065
28.125,-0.105
28.130,-0.053
28.135,0.045
28.140,-0.107
28.145,-0.147
28.150,-0.005
28.155,-0.086
28.160,-0.205
28.165,-0.073
28.170,-0.062
28.175,-0.213
28.180,-0.110
28.185,0.044
28.190,-0.050
28.195,-0.034
28.200,0.154
28.205,0.113
28.210,0.035
28.215,0.207
28.220,0.253
28.225,0.115
28.230,0.204
28.235,0.329
28.240,0.199
28.245,0.178
28.250,0.318
28.255,0.232
28.260,0.111
28.265,0.235
28.270,0.256
28.275,0.100
28.280,0.148
28.285,0.230
28.290,0.082
28.295,0.065
28.300,0.221
28.305,0.142
28.310,0.014
28.315,0.125
28.320,0.134
28.325,-0.010
28.330,0.068
28.335,0.158
28.340,0.006
28.345,-0.012
28.350,0.136
28.355,0.048
28.360,-0.063
28.365,0.074
28.370,0.077
28.375,-0.087
28.380,-0.018
28.385,0.078
28.390,-0.065
28.395,-0.082
28.400,0.066
28.405,-0.015
28.410,-0.118
28.415,0.031
28.420,0.052
28.425,-0.100
28.430,-0.030
28.435,0.060
28.440,-0.089
28.445,-0.102
28.450,0.055
28.455,-0.016
28.460,-0.116
28.465,0.018
28.470,0.020
28.475,-0.133
28.480,-0.050
28.485,0.044
28.490,-0.107
28.495,-0.116
28.500,0.036
28.505,-0.051
28.510,-0.148
28.515,-0.005
28.520,0.001
28.525,-0.148
28.530,-0.059
28.535,0.039
28.540,-0.113
28.545,-0.128
28.550,0.019
28.555,-0.065
28.560,-0.158
28.565,-0.009
28.570,-0.008
28.575,-0.182
28.580,-0.126
28.585,-0.039
28.590,-0.173
28.595,-0.173
28.600,-0.029
28.605,-0.143
28.610,-0.258
28.615,-0.092
28.620,-0.064
28.625,-0.211
28.630,-0.114
28.635,0.007
28.640,-0.121
28.645,-0.119
28.650,0.035
28.655,-0.037
28.660,-0.111
28.665,0.060
28.670,0.087
28.675,-0.049
28.680,0.037
28.685,0.119
28.690,-0.034
28.695,-0.038
28.700,0.110
28.705,0.028
28.710,-0.064
28.715,0.079
28.720,0.083
28.725,-0.069
28.730,0.009
28.735,0.100
28.740,-0.047
28.745,-0.048
28.750,0.134
28.755,0.052
28.760,-0.113
28.765,-0.090
28.770,-0.427
28.775,-1.282
28.780,-1.867
28.785,-1.862
28.790,-1.668
28.795,-1.145
28.800,-0.169
28.805,0.447
28.810,0.533
28.815,0.584
28.820,0.502
28.825,0.344
28.830,0.399
28.835,0.447
28.840,0.297
28.845,0.286
28.850,0.420
28.855,0.320
28.860,0.216
28.865,0.345
28.870,0.328
28.875,0.173
28.880,0.253
28.885,0.317
28.890,0.147
28.895,0.137
28.900,0.267
28.905,0.157
28.910,0.063
28.915,0.214
28.920,0.201
28.925,0.037
28.930,0.120
28.935,0.194
28.940,0.023
28.945,0.012
28.950,0.151
28.955,0.050
28.960,-0.051
28.965,0.080
28.970,0.063
28.975,-0.092
28.980,-0.010
28.985,0.063
28.990,-0.107
28.995,-0.121
29.000,0.016
29.005,-0.090
29.010,-0.200
29.015,-0.069
29.020,-0.069
29.025,-0.211
29.030,-0.116
29.035,-0.001
29.040,-0.110
29.045,-0.075
29.050,0.104
29.055,0.049
29.060,0.001
29.065,0.181
29.070,0.205
29.075,0.091
29.080,0.213
29.085,0.313
29.090,0.171
29.095,0.186
29.100,0.330
29.105,0.229
29.110,0.142
29.115,0.286
29.120,0.272
29.125,0.112
29.130,0.188
29.135,0.251
29.140,0.095
29.145,0.110
29.150,0.241
29.155,0.119
29.160,0.027
29.165,0.170
29.170,0.151
29.175,0.003
29.180,0.097
29.185,0.164
29.190,-0.003
29.195,-0.001
29.200,0.138
29.205,0.033
29.210,-0.051
29.215,0.094
29.220,0.069
29.225,-0.085
29.230,0.009
29.235,0.083
29.240,-0.065
29.245,-0.048
29.250,0.090
29.255,-0.017
29.260,-0.103
29.265,0.040
29.270,0.025
29.275,-0.111
29.280,-0.009
29.285,0.064
29.290,-0.092
29.295,-0.081
29.300,0.061
29.305,-0.038
29.310,-0.115
29.315,0.031
29.320,0.007
29.325,-0.142
29.330,-0.050
29.335,0.026
29.340,-0.118
29.345,-0.103
29.350,0.035
29.355,-0.061
29.360,-0.129
29.365,0.020
29.370,-0.003
29.375,-0.149
29.380,-0.047
29.385,0.026
29.390,-0.129
29.395,-0.108
29.400,0.036
29.405,-0.068
29.410,-0.144
29.415,0.003
29.420,-0.018
29.425,-0.155
29.430,-0.043
29.435,0.031
29.440,-0.130
29.445,-0.129
29.450,0.004
29.455,-0.102
29.460,-0.194
29.465,-0.056
29.470,-0.074
29.475,-0.206
29.480,-0.090
29.485,-0.021
29.490,-0.202
29.495,-0.190
29.500,-0.025
29.505,-0.130
29.510,-0.208
29.515,-0.036
29.520,-0.041
29.525,-0.168
29.530,-0.052
29.535,0.033
29.540,-0.088
29.545,-0.035
29.550,0.115
29.555,0.014
29.560,-0.047
29.565,0.107
29.570,0.076
29.575,-0.064
29.580,0.044
29.585,0.110
29.590,-0.041
29.595,-0.015
29.600,0.111
29.605,-0.003
29.610,-0.069
29.615,0.080
29.620,0.048
29.625,-0.093
29.630,0.039
29.635,0.149
29.640,-0.024
29.645,-0.079
29.650,-0.095
29.655,-0.646
29.660,-1.472
29.665,-1.877
29.670,-1.820
29.675,-1.559
29.680,-0.857
29.685,0.080
29.690,0.491
29.695,0.574
29.700,0.622
29.705,0.458
29.710,0.371
29.715,0.469
29.720,0.389
29.725,0.238
29.730,0.343
29.735,0.403
29.740,0.240
29.745,0.254
29.750,0.371
29.755,0.243
29.760,0.169
29.765,0.311
29.770,0.265
29.775,0.108
29.780,0.194
29.785,0.247
29.790,0.092
29.795,0.116
29.800,0.244
29.805,0.114
29.810,0.024
29.815,0.161
29.820,0.122
29.825,-0.024
29.830,0.089
29.835,0.143
29.840,-0.034
29.845,-0.013
29.850,0.118
29.855,-0.009
29.860,-0.091
29.865,0.043
29.870,-0.005
29.875,-0.157
29.880,-0.056
29.885,0.003
29.890,-0.154
29.895,-0.135
29.900,-0.019
29.905,-0.144
29.910,-0.206
29.915,-0.047
29.920,-0.062
29.925,-0.158
29.930,0.001
29.935,0.103
29.940,-0.011
29.945,0.061
29.950,0.224
29.955,0.137
29.960,0.105
29.965,0.279
29.970,0.256
29.975,0.140
29.980,0.268
29.985,0.324
29.990,0.171
29.995,0.206
30.000,0.325
30.005,0.192
30.010,0.116
30.015,0.254
30.020,0.207
30.025,0.068
30.030,0.180
30.035,0.232
30.040,0.062
30.045,0.080
30.050,0.201
30.055,0.073
30.060,0.006
30.065,0.156
30.070,0.104
30.075,-0.038
30.080,0.074
30.085,0.119
30.090,-0.037
30.095,0.008
30.100,0.138
30.105,0.010
30.110,-0.058
30.115,0.081
30.120,0.027
30.125,-0.109
30.130,0.016
30.135,0.075
30.140,-0.085
30.145,-0.053
30.150,0.068
30.155,-0.056
30.160,-0.103
30.165,0.055
30.170,0.010
30.175,-0.113
30.180,0.007
30.185,0.041
30.190,-0.120
30.195,-0.071
30.200,0.055
30.205,-0.074
30.210,-0.125
30.215,0.037
30.220,-0.006
30.225,-0.134
30.230,-0.017
30.235,0.025
30.240,-0.134
30.245,-0.088
30.250,0.043
30.255,-0.078
30.260,-0.126
30.265,0.028
30.270,-0.030
30.275,-0.160
30.280,-0.033
30.285,0.014
30.290,-0.132
30.295,-0.079
30.300,0.047
30.305,-0.081
30.310,-0.139
30.315,0.005
30.320,-0.057
30.325,-0.204
30.330,-0.101
30.335,-0.053
30.340,-0.190
30.345,-0.127
30.350,-0.005
30.355,-0.150
30.360,-0.204
30.365,-0.026
30.370,-0.063
30.375,-0.208
30.380,-0.091
30.385,-0.026
30.390,-0.163
30.395,-0.106
30.400,0.032
30.405,-0.070
30.410,-0.092
30.415,0.077
30.420,0.036
30.425,-0.080
30.430,0.059
30.435,0.109
30.440,-0.045
30.445,0.009
30.450,0.122
30.455,-0.015
30.460,-0.061
30.465,0.088
30.470,0.034
30.475,-0.085
30.480,0.037
30.485,0.077
30.490,-0.070
30.495,-0.005
30.500,0.145
30.505,0.027
30.510,-0.066
30.515,-0.034
30.520,-0.447
30.525,-1.291
30.530,-1.844
30.535,-1.865
30.540,-1.644
30.545,-1.071
30.550,-0.146
30.555,0.409
30.560,0.529
30.565,0.621
30.570,0.512
30.575,0.355
30.580,0.448
30.585,0.442
30.590,0.260
30.595,0.302
30.600,0.413
30.605,0.273
30.610,0.218
30.615,0.351
30.620,0.274
30.625,0.141
30.630,0.259
30.635,0.285
30.640,0.122
30.645,0.165
30.650,0.265
30.655,0.123
30.660,0.077
30.665,0.216
30.670,0.144
30.675,0.018
30.680,0.139
30.685,0.162
30.690,-0.004
30.695,0.045
30.700,0.158
30.705,0.021
30.710,-0.031
30.715,0.098
30.720,0.019
30.725,-0.100
30.730,0.020
30.735,0.031
30.740,-0.133
30.745,-0.081
30.750,0.024
30.755,-0.127
30.760,-0.187
30.765,-0.040
30.770,-0.081
30.775,-0.177
30.780,-0.038
30.785,0.005
30.790,-0.129
30.795,-0.036
30.800,0.115
30.805,0.015
30.810,0.026
30.815,0.225
30.820,0.195
30.825,0.098
30.830,0.236
30.835,0.264
30.840,0.116
30.845,0.205
30.850,0.340
30.855,0.201
30.860,0.161
30.865,0.297
30.870,0.216
30.875,0.097
30.880,0.212
30.885,0.212
30.890,0.041
30.895,0.102
30.900,0.216
30.905,0.082
30.910,0.048
30.915,0.189
30.920,0.120
30.925,0.006
30.930,0.127
30.935,0.140
30.940,-0.023
30.945,0.037
30.950,0.143
30.955,0.004
30.960,-0.028
30.965,0.110
30.970,0.028
30.975,-0.086
30.980,0.046
30.985,0.060
30.990,-0.099
30.995,-0.027
31.000,0.080
31.005,-0.065
31.010,-0.093
31.015,0.053
31.020,-0.024
31.025,-0.131
31.030,0.012
31.035,0.042
31.040,-0.110
31.045,-0.046
31.050,0.057
31.055,-0.081
31.060,-0.103
31.065,0.046
31.070,-0.025
31.075,-0.129
31.080,0.006
31.085,0.024
31.090,-0.127
31.095,-0.058
31.100,0.037
31.105,-0.096
31.110,-0.103
31.115,0.047
31.120,-0.037
31.125,-0.148
31.130,-0.012
31.135,-0.002
31.140,-0.164
31.145,-0.101
31.150,-0.006
31.155,-0.146
31.160,-0.161
31.165,-0.012
31.170,-0.096
31.175,-0.225
31.180,-0.101
31.185,-0.072
31.190,-0.221
31.195,-0.150
31.200,-0.037
31.205,-0.155
31.210,-0.152
31.215,0.005
31.220,-0.061
31.225,-0.129
31.230,0.044
31.235,0.070
31.240,-0.074
31.245,0.013
31.250,0.124
31.255,-0.005
31.260,-0.019
31.265,0.121
31.270,0.036
31.275,-0.072
31.280,0.064
31.285,0.072
31.290,-0.081
31.295,0.006
31.300,0.112
31.305,-0.033
31.310,-0.048
31.315,0.106
31.320,0.055
31.325,-0.043
31.330,0.024
31.335,-0.125
31.340,-0.682
31.345,-1.329
31.350,-1.792
31.355,-1.880
31.360,-1.579
31.365,-0.945
31.370,-0.162
31.375,0.374
31.380,0.613
31.385,0.545
31.390,0.349
31.395,0.429
31.400,0.494
31.405,0.308
31.410,0.281
31.415,0.419
31.420,0.332
31.425,0.225
31.430,0.351
31.435,0.342
31.440,0.180
31.445,0.243
31.450,0.323
31.455,0.173
31.460,0.154
31.465,0.283
31.470,0.175
31.475,0.067
31.480,0.199
31.485,0.188
31.490,0.038
31.495,0.124
31.500,0.211
31.505,0.053
31.510,0.028
31.515,0.154
31.520,0.051
31.525,-0.054
31.530,0.088
31.535,0.086
31.540,-0.077
31.545,-0.016
31.550,0.051
31.555,-0.110
31.560,-0.127
31.565,0.010
31.570,-0.084
31.575,-0.188
31.580,-0.050
31.585,-0.049
31.590,-0.206
31.595,-0.124
31.600,-0.021
31.605,-0.145
31.610,-0.119
31.615,0.067
31.620,0.023
31.625,-0.028
31.630,0.157
31.635,0.199
31.640,0.087
31.645,0.198
31.650,0.303
31.655,0.169
31.660,0.171
31.665,0.317
31.670,0.229
31.675,0.135
31.680,0.275
31.685,0.266
31.690,0.106
31.695,0.177
31.700,0.252
31.705,0.101
31.710,0.097
31.715,0.231
31.720,0.130
31.725,0.033
31.730,0.164
31.735,0.146
31.740,-0.006
31.745,0.089
31.750,0.175
31.755,0.021
31.760,0.016
31.765,0.155
31.770,0.051
31.775,-0.050
31.780,0.087
31.785,0.073
31.790,-0.077
31.795,0.011
31.800,0.087
31.805,-0.062
31.810,-0.054
31.815,0.082
31.820,-0.027
31.825,-0.116
31.830,0.040
31.835,0.032
31.840,-0.131
31.845,-0.044
31.850,0.050
31.855,-0.087
31.860,-0.075
31.865,0.073
31.870,-0.026
31.875,-0.127
31.880,0.013
31.885,0.010
31.890,-0.131
31.895,-0.039
31.900,0.035
31.905,-0.118
31.910,-0.107
31.915,0.040
31.920,-0.054
31.925,-0.144
31.930,-0.001
31.935,-0.011
31.940,-0.163
31.945,-0.062
31.950,0.032
31.955,-0.121
31.960,-0.123
31.965,0.009
31.970,-0.099
31.975,-0.185
31.980,-0.044
31.985,-0.063
31.990,-0.200
31.995,-0.113
32.000,-0.066
32.005,-0.221
32.010,-0.195
32.015,-0.053
32.020,-0.149
32.025,-0.209
32.030,-0.035
32.035,-0.029
32.040,-0.165
32.045,-0.054
32.050,0.053
32.055,-0.071
32.060,-0.042
32.065,0.112
32.070,0.021
32.075,-0.056
32.080,0.090
32.085,0.068
32.090,-0.081
32.095,0.019
32.100,0.103
32.105,-0.041
32.110,-0.032
32.115,0.105
32.120,0.007
32.125,-0.074
32.130,0.075
32.135,0.062
32.140,-0.079
32.145,0.056
32.150,0.133
32.155,-0.096
32.160,-0.222
32.165,-0.477
32.170,-1.301
32.175,-1.934
32.180,-1.861
32.185,-1.623
32.190,-1.113
32.195,-0.112
32.200,0.558
32.205,0.524
32.210,0.447
32.215,0.536
32.220,0.432
32.225,0.310
32.230,0.416
32.235,0.394
32.240,0.242
32.245,0.337
32.250,0.411
32.255,0.249
32.260,0.252
32.265,0.373
32.270,0.243
32.275,0.152
32.280,0.288
32.285,0.252
32.290,0.103
32.295,0.198
32.300,0.260
32.305,0.099
32.310,0.101
32.315,0.222
32.320,0.105
32.325,0.016
32.330,0.155
32.335,0.125
32.340,-0.028
32.345,0.071
32.350,0.139
32.355,-0.027
32.360,-0.026
32.365,0.099
32.370,-0.022
32.375,-0.114
32.380,0.022
32.385,-0.012
32.390,-0.166
32.395,-0.074
32.400,-0.017
32.405,-0.180
32.410,-0.166
32.415,-0.024
32.420,-0.117
32.425,-0.182
32.430,-0.023
32.435,-0.021
32.440,-0.120
32.445,0.035
32.450,0.150
32.455,0.032
32.460,0.091
32.465,0.263
32.470,0.173
32.475,0.117
32.480,0.291
32.485,0.278
32.490,0.146
32.495,0.261
32.500,0.325
32.505,0.157
32.510,0.166
32.515,0.290
32.520,0.174
32.525,0.097
32.530,0.241
32.535,0.209
32.540,0.060
32.545,0.155
32.550,0.206
32.555,0.035
32.560,0.054
32.565,0.184
32.570,0.061
32.575,-0.010
32.580,0.145
32.585,0.108
32.590,-0.044
32.595,0.057
32.600,0.121
32.605,-0.033
32.610,-0.010
32.615,0.119
32.620,0.006
32.625,-0.057
32.630,0.089
32.635,0.044
32.640,-0.100
32.645,0.008
32.650,0.065
32.655,-0.098
32.660,-0.070
32.665,0.072
32.670,-0.040
32.675,-0.115
32.680,0.030
32.685,0.007
32.690,-0.123
32.695,-0.015
32.700,0.045
32.705,-0.106
32.710,-0.075
32.715,0.052
32.720,-0.059
32.725,-0.117
32.730,0.026
32.735,-0.017
32.740,-0.154
32.745,-0.044
32.750,0.015
32.755,-0.130
32.760,-0.086
32.765,0.048
32.770,-0.073
32.775,-0.141
32.780,0.012
32.785,-0.019
32.790,-0.154
32.795,-0.043
32.800,0.017
32.805,-0.141
32.810,-0.111
32.815,0.026
32.820,-0.094
32.825,-0.181
32.830,-0.051
32.835,-0.086
32.840,-0.207
32.845,-0.083
32.850,-0.035
32.855,-0.216
32.860,-0.190
32.865,-0.050
32.870,-0.169
32.875,-0.224
32.880,-0.041
32.885,-0.046
32.890,-0.169
32.895,-0.048
32.900,0.029
32.905,-0.094
32.910,-0.032
32.915,0.105
32.920,-0.009
32.925,-0.053
32.930,0.108
32.935,0.069
32.940,-0.061
32.945,0.056
32.950,0.109
32.955,-0.047
32.960,-0.008
32.965,0.124
32.970,0.000
32.975,-0.068
32.980,0.085
32.985,0.051
32.990,-0.084
32.995,0.037
33.000,0.123
33.005,-0.026
33.010,-0.056
33.015,-0.045
33.020,-0.493
33.025,-1.249
33.030,-1.777
33.035,-1.873
33.040,-1.667
33.045,-1.107
33.050,-0.226
33.055,0.360
33.060,0.572
33.065,0.613
33.070,0.417
33.075,0.363
33.080,0.489
33.085,0.387
33.090,0.241
33.095,0.361
33.100,0.412
33.105,0.246
33.110,0.275
33.115,0.389
33.120,0.244
33.125,0.173
33.130,0.311
33.135,0.250
33.140,0.119
33.145,0.239
33.150,0.274
33.155,0.096
33.160,0.116
33.165,0.232
33.170,0.104
33.175,0.044
33.180,0.186
33.185,0.134
33.190,-0.001
33.195,0.106
33.200,0.138
33.205,-0.032
33.210,0.002
33.215,0.119
33.220,-0.017
33.225,-0.083
33.230,0.051
33.235,-0.010
33.240,-0.146
33.245,-0.035
33.250,0.002
33.255,-0.163
33.260,-0.133
33.265,-0.020
33.270,-0.149
33.275,-0.197
33.280,-0.039
33.285,-0.071
33.290,-0.172
33.295,-0.013
33.300,0.082
33.305,-0.029
33.310,0.049
33.315,0.207
33.320,0.127
33.325,0.116
33.330,0.294
33.335,0.260
33.340,0.141
33.345,0.266
33.350,0.312
33.355,0.162
33.360,0.207
33.365,0.316
33.370,0.178
33.375,0.123
33.380,0.270
33.385,0.210
33.390,0.073
33.395,0.192
33.400,0.216
33.405,0.039
33.410,0.087
33.415,0.207
33.420,0.074
33.425,0.024
33.430,0.170
33.435,0.107
33.440,-0.032
33.445,0.080
33.450,0.115
33.455,-0.044
33.460,0.000
33.465,0.115
33.470,-0.015
33.475,-0.061
33.480,0.091
33.485,0.037
33.490,-0.094
33.495,0.026
33.500,0.072
33.505,-0.081
33.510,-0.030
33.515,0.088
33.520,-0.050
33.525,-0.100
33.530,0.052
33.535,-0.006
33.540,-0.132
33.545,0.001
33.550,0.048
33.555,-0.102
33.560,-0.047
33.565,0.063
33.570,-0.076
33.575,-0.120
33.580,0.029
33.585,-0.025
33.590,-0.143
33.595,-0.018
33.600,0.015
33.605,-0.135
33.610,-0.074
33.615,0.041
33.620,-0.089
33.625,-0.128
33.630,0.021
33.635,-0.031
33.640,-0.145
33.645,-0.022
33.650,0.009
33.655,-0.145
33.660,-0.087
33.665,0.038
33.670,-0.085
33.675,-0.125
33.680,0.024
33.685,-0.037
33.690,-0.157
33.695,-0.032
33.700,-0.001
33.705,-0.163
33.710,-0.118
33.715,-0.012
33.720,-0.149
33.725,-0.186
33.730,-0.026
33.735,-0.087
33.740,-0.231
33.745,-0.116
33.750,-0.061
33.755,-0.201
33.760,-0.140
33.765,-0.010
33.770,-0.120
33.775,-0.139
33.780,0.018
33.785,-0.031
33.790,-0.116
33.795,0.044
33.800,0.088
33.805,-0.057
33.810,0.018
33.815,0.137
33.820,-0.005
33.825,-0.042
33.830,0.111
33.835,0.044
33.840,-0.074
33.845,0.058
33.850,0.089
33.855,-0.055
33.860,0.011
33.865,0.118
33.870,-0.017
33.875,-0.052
33.880,0.110
33.885,0.083
33.890,-0.044
33.895,0.005
33.900,-0.148
33.905,-0.801
33.910,-1.536
33.915,-1.878
33.920,-1.808
33.925,-1.478
33.930,-0.741
33.935,0.088
33.940,0.487
33.945,0.653
33.950,0.610
33.955,0.405
33.960,0.432
33.965,0.488
33.970,0.306
33.975,0.266
33.980,0.419
33.985,0.349
33.990,0.224
33.995,0.346
34.000,0.362
34.005,0.194
34.010,0.235
34.015,0.319
34.020,0.171
34.025,0.139
34.030,0.274
34.035,0.187
34.040,0.069
34.045,0.197
34.050,0.212
34.055,0.048
34.060,0.101
34.065,0.189
34.070,0.038
34.075,0.008
34.080,0.157
34.085,0.080
34.090,-0.050
34.095,0.069
34.100,0.087
34.105,-0.078
34.110,-0.028
34.115,0.059
34.120,-0.093
34.125,-0.121
34.130,0.016
34.135,-0.073
34.140,-0.194
34.145,-0.070
34.150,-0.056
34.155,-0.204
34.160,-0.126
34.165,-0.011
34.170,-0.125
34.175,-0.111
34.180,0.075
34.185,0.038
34.190,-0.033
34.195,0.138
34.200,0.191
34.205,0.076
34.210,0.185
34.215,0.311
34.220,0.173
34.225,0.157
34.230,0.319
34.235,0.247
34.240,0.130
34.245,0.258
34.250,0.271
34.255,0.111
34.260,0.179
34.265,0.274
34.270,0.120
34.275,0.095
34.280,0.239
34.285,0.138
34.290,0.010
34.295,0.140
34.300,0.158
34.305,0.009
34.310,0.079
34.315,0.166
34.320,0.009
34.325,-0.011
34.330,0.138
34.335,0.051
34.340,-0.056
34.345,0.079
34.350,0.082
34.355,-0.076
34.360,0.002
34.365,0.107
34.370,-0.041
34.375,-0.075
34.380,0.061
34.385,-0.017
34.390,-0.116
34.395,0.028
34.400,0.037
34.405,-0.123
34.410,-0.047
34.415,0.057
34.420,-0.086
34.425,-0.105
34.430,0.052
34.435,-0.018
34.440,-0.122
34.445,0.013
34.450,0.017
34.455,-0.136
34.460,-0.046
34.465,0.056
34.470,-0.093
34.475,-0.112
34.480,0.034
34.485,-0.048
34.490,-0.145
34.495,-0.004
34.500,0.005
34.505,-0.137
34.510,-0.051
34.515,0.038
34.520,-0.110
34.525,-0.112
34.530,0.037
34.535,-0.057
34.540,-0.169
34.545,-0.031
34.550,-0.035
34.555,-0.198
34.560,-0.118
34.565,-0.023
34.570,-0.159
34.575,-0.160
34.580,-0.038
34.585,-0.145
34.590,-0.223
34.595,-0.068
34.600,-0.077
34.605,-0.220
34.610,-0.098
34.615,0.021
34.620,-0.129
34.625,-0.129
34.630,0.048
34.635,-0.007
34.640,-0.082
34.645,0.074
34.650,0.085
34.655,-0.053
34.660,0.035
34.665,0.116
34.670,-0.036
34.675,-0.033
34.680,0.121
34.685,0.023
34.690,-0.082
34.695,0.060
34.700,0.057
34.705,-0.090
34.710,0.001
34.715,0.096
34.720,-0.035
34.725,-0.011
34.730,0.154
34.735,0.025
34.740,-0.181
34.745,-0.351
34.750,-1.021
34.755,-1.819
34.760,-1.932
34.765,-1.673
34.770,-1.283
34.775,-0.432
34.780,0.430
34.785,0.594
34.790,0.463
34.795,0.549
34.800,0.515
34.805,0.326
34.810,0.372
34.815,0.431
34.820,0.267
34.825,0.265
34.830,0.401
34.835,0.289
34.840,0.188
34.845,0.322
34.850,0.303
34.855,0.145
34.860,0.221
34.865,0.293
34.870,0.138
34.875,0.124
34.880,0.248
34.885,0.140
34.890,0.045
34.895,0.186
34.900,0.167
34.905,0.005
34.910,0.088
34.915,0.164
34.920,0.004
34.925,0.003
34.930,0.142
34.935,0.028
34.940,-0.076
34.945,0.067
34.950,0.055
34.955,-0.104
34.960,-0.021
34.965,0.051
34.970,-0.117
34.975,-0.128
34.980,0.011
34.985,-0.090
34.990,-0.182
34.995,-0.036
35.000,-0.043
35.005,-0.185
35.010,-0.073
35.015,0.037
35.020,-0.085
35.025,-0.038
35.030,0.155
35.035,0.094
35.040,0.044
35.045,0.229
35.050,0.240
35.055,0.111
35.060,0.221
35.065,0.308
35.070,0.164
35.075,0.179
35.080,0.321
35.085,0.210
35.090,0.120
35.095,0.268
35.100,0.247
35.105,0.090
35.110,0.178
35.115,0.247
35.120,0.079
35.125,0.072
35.130,0.214
35.135,0.116
35.140,0.026
35.145,0.164
35.150,0.135
35.155,-0.021
35.160,0.074
35.165,0.152
35.170,0.000
35.175,0.005
35.180,0.130
35.185,0.008
35.190,-0.077
35.195,0.082
35.200,0.068
35.205,-0.081
35.210,0.013
35.215,0.081
35.220,-0.074
35.225,-0.062
35.230,0.072
35.235,-0.035
35.240,-0.114
35.245,0.034
35.250,0.016
35.255,-0.126
35.260,-0.025
35.265,0.052
35.270,-0.100
35.275,-0.087
35.280,0.055
35.285,-0.048
35.290,-0.133
35.295,0.018
35.300,0.011
35.305,-0.128
35.310,-0.030
35.315,0.041
35.320,-0.119
35.325,-0.103
35.330,0.039
35.335,-0.074
35.340,-0.154
35.345,-0.010
35.350,-0.043
35.355,-0.186
35.360,-0.081
35.365,-0.007
35.370,-0.161
35.375,-0.153
35.380,-0.038
35.385,-0.158
35.390,-0.233
35.395,-0.082
35.400,-0.100
35.405,-0.225
35.410,-0.082
35.415,0.018
35.420,-0.139
35.425,-0.113
35.430,0.050
35.435,-0.042
35.440,-0.098
35.445,0.072
35.450,0.054
35.455,-0.081
35.460,0.032
35.465,0.108
35.470,-0.040
35.475,-0.018
35.480,0.112
35.485,-0.001
35.490,-0.070
35.495,0.080
35.500,0.048
35.505,-0.091
35.510,0.016
35.515,0.083
35.520,-0.059
35.525,0.001
35.530,0.143
35.535,-0.032
35.540,-0.244
35.545,-0.473
35.550,-1.195
35.555,-1.897
35.560,-1.902
35.565,-1.639
35.570,-1.198
35.575,-0.284
35.580,0.493
35.585,0.542
35.590,0.397
35.595,0.505
35.600,0.486
35.605,0.317
35.610,0.384
35.615,0.432
35.620,0.267
35.625,0.293
35.630,0.417
35.635,0.283
35.640,0.203
35.645,0.342
35.650,0.295
35.655,0.141
35.660,0.235
35.665,0.285
35.670,0.122
35.675,0.142
35.680,0.267
35.685,0.145
35.690,0.066
35.695,0.199
35.700,0.152
35.705,0.007
35.710,0.106
35.715,0.147
35.720,-0.011
35.725,0.027
35.730,0.149
35.735,0.017
35.740,-0.061
35.745,0.078
35.750,0.033
35.755,-0.115
35.760,-0.021
35.765,0.030
35.770,-0.132
35.775,-0.116
35.780,0.008
35.785,-0.117
35.790,-0.195
35.795,-0.049
35.800,-0.076
35.805,-0.197
35.810,-0.065
35.815,0.028
35.820,-0.089
35.825,-0.020
35.830,0.157
35.835,0.085
35.840,0.054
35.845,0.234
35.850,0.227
35.855,0.120
35.860,0.252
35.865,0.319
35.870,0.170
35.875,0.205
35.880,0.327
35.885,0.193
35.890,0.126
35.895,0.273
35.900,0.215
35.905,0.070
35.910,0.190
35.915,0.242
35.920,0.071
35.925,0.099
35.930,0.221
35.935,0.085
35.940,0.014
35.945,0.163
35.950,0.123
35.955,-0.020
35.960,0.084
35.965,0.132
35.970,-0.032
35.975,0.004
35.980,0.133
35.985,0.007
35.990,-0.056
35.995,0.094
36.000,0.044
36.005,-0.092
36.010,0.024
36.015,0.073
36.020,-0.082
36.025,-0.044
36.030,0.078
36.035,-0.044
36.040,-0.101
36.045,0.053
36.050,0.010
36.055,-0.128
36.060,-0.011
36.065,0.047
36.070,-0.107
36.075,-0.072
36.080,0.051
36.085,-0.076
36.090,-0.133
36.095,0.026
36.100,-0.011
36.105,-0.143
36.110,-0.032
36.115,0.019
36.120,-0.127
36.125,-0.084
36.130,0.037
36.135,-0.086
36.140,-0.138
36.145,0.013
36.150,-0.029
36.155,-0.151
36.160,-0.024
36.165,0.026
36.170,-0.133
36.175,-0.098
36.180,0.004
36.185,-0.146
36.190,-0.204
36.195,-0.040
36.200,-0.075
36.205,-0.196
36.210,-0.098
36.215,-0.083
36.220,-0.236
36.225,-0.175
36.230,-0.047
36.235,-0.166
36.240,-0.188
36.245,-0.008
36.250,-0.047
36.255,-0.163
36.260,-0.016
36.265,0.059
36.270,-0.086
36.275,-0.036
36.280,0.107
36.285,-0.005
36.290,-0.048
36.295,0.102
36.300,0.054
36.305,-0.065
36.310,0.058
36.315,0.103
36.320,-0.048
36.325,-0.003
36.330,0.116
36.335,-0.015
36.340,-0.063
36.345,0.091
36.350,0.042
36.355,-0.061
36.360,0.087
36.365,0.082
36.370,-0.177
36.375,-0.365
36.380,-0.837
36.385,-1.646
36.390,-1.954
36.395,-1.717
36.400,-1.371
36.405,-0.641
36.410,0.297
36.415,0.654
36.420,0.458
36.425,0.421
36.430,0.547
36.435,0.398
36.440,0.296
36.445,0.428
36.450,0.365
36.455,0.239
36.460,0.362
36.465,0.388
36.470,0.216
36.475,0.259
36.480,0.365
36.485,0.212
36.490,0.159
36.495,0.308
36.500,0.243
36.505,0.099
36.510,0.203
36.515,0.232
36.520,0.064
36.525,0.105
36.530,0.221
36.535,0.086
36.540,0.033
36.545,0.170
36.550,0.098
36.555,-0.036
36.560,0.083
36.565,0.110
36.570,-0.064
36.575,-0.018
36.580,0.093
36.585,-0.055
36.590,-0.108
36.595,0.033
36.600,-0.043
36.605,-0.177
36.610,-0.052
36.615,-0.021
36.620,-0.189
36.625,-0.140
36.630,-0.022
36.635,-0.149
36.640,-0.176
36.645,-0.004
36.650,-0.031
36.655,-0.105
36.660,0.074
36.665,0.151
36.670,0.038
36.675,0.136
36.680,0.274
36.685,0.159
36.690,0.150
36.695,0.320
36.700,0.264
36.705,0.150
36.710,0.279
36.715,0.307
36.720,0.146
36.725,0.189
36.730,0.285
36.735,0.144
36.740,0.106
36.745,0.251
36.750,0.175
36.755,0.046
36.760,0.168
36.765,0.188
36.770,0.023
36.775,0.080
36.780,0.191
36.785,0.048
36.790,0.003
36.795,0.143
36.800,0.069
36.805,-0.053
36.810,0.075
36.815,0.108
36.820,-0.044
36.825,0.011
36.830,0.112
36.835,-0.031
36.840,-0.063
36.845,0.090
36.850,0.020
36.855,-0.100
36.860,0.031
36.865,0.057
36.870,-0.098
36.875,-0.031
36.880,0.079
36.885,-0.058
36.890,-0.088
36.895,0.057
36.900,-0.020
36.905,-0.133
36.910,0.009
36.915,0.040
36.920,-0.118
36.925,-0.058
36.930,0.050
36.935,-0.089
36.940,-0.119
36.945,0.034
36.950,-0.033
36.955,-0.145
36.960,-0.008
36.965,0.020
36.970,-0.136
36.975,-0.066
36.980,0.045
36.985,-0.104
36.990,-0.135
36.995,0.025
37.000,-0.046
37.005,-0.159
37.010,-0.017
37.015,0.011
37.020,-0.145
37.025,-0.082
37.030,0.029
37.035,-0.104
37.040,-0.129
37.045,0.014
37.050,-0.080
37.055,-0.205
37.060,-0.066
37.065,-0.044
37.070,-0.200
37.075,-0.139
37.080,-0.057
37.085,-0.204
37.090,-0.209
37.095,-0.046
37.100,-0.115
37.105,-0.210
37.110,-0.056
37.115,-0.020
37.120,-0.164
37.125,-0.082
37.130,0.054
37.135,-0.054
37.140,-0.056
37.145,0.117
37.150,0.060
37.155,-0.054
37.160,0.076
37.165,0.099
37.170,-0.058
37.175,0.012
37.180,0.121
37.185,-0.018
37.190,-0.045
37.195,0.100
37.200,0.026
37.205,-0.075
37.210,0.069
37.215,0.082
37.220,-0.070
37.225,0.038
37.230,0.140
37.235,-0.075
37.240,-0.232
37.245,-0.486
37.250,-1.288
37.255,-1.924
37.260,-1.843
37.265,-1.599
37.270,-1.099
37.275,-0.106
37.280,0.586
37.285,0.564
37.290,0.454
37.295,0.543
37.300,0.460
37.305,0.312
37.310,0.409
37.315,0.413
37.320,0.254
37.325,0.324
37.330,0.408
37.335,0.250
37.340,0.219
37.345,0.357
37.350,0.269
37.355,0.148
37.360,0.272
37.365,0.275
37.370,0.112
37.375,0.170
37.380,0.246
37.385,0.090
37.390,0.078
37.395,0.227
37.400,0.136
37.405,0.019
37.410,0.144
37.415,0.144
37.420,-0.014
37.425,0.052
37.430,0.134
37.435,-0.019
37.440,-0.042
37.445,0.094
37.450,0.002
37.455,-0.113
37.460,0.009
37.465,0.003
37.470,-0.158
37.475,-0.085
37.480,0.001
37.485,-0.158
37.490,-0.174
37.495,-0.025
37.500,-0.114
37.505,-0.213
37.510,-0.052
37.515,-0.015
37.520,-0.131
37.525,0.000
37.530,0.151
37.535,0.047
37.540,0.067
37.545,0.250
37.550,0.201
37.555,0.129
37.560,0.286
37.565,0.301
37.570,0.159
37.575,0.244
37.580,0.332
37.585,0.181
37.590,0.168
37.595,0.308
37.600,0.213
37.605,0.102
37.610,0.228
37.615,0.219
37.620,0.061
37.625,0.143
37.630,0.226
37.635,0.068
37.640,0.060
37.645,0.202
37.650,0.102
37.655,-0.012
37.660,0.116
37.665,0.110
37.670,-0.044
37.675,0.046
37.680,0.138
37.685,-0.019
37.690,-0.027
37.695,0.115
37.700,0.019
37.705,-0.075
37.710,0.066
37.715,0.057
37.720,-0.092
37.725,0.000
37.730,0.085
37.735,-0.071
37.740,-0.070
37.745,0.079
37.750,-0.015
37.755,-0.110
37.760,0.035
37.765,0.035
37.770,-0.118
37.775,-0.035
37.780,0.059
37.785,-0.091
37.790,-0.100
37.795,0.045
37.800,-0.043
37.805,-0.134
37.810,0.010
37.815,0.013
37.820,-0.134
37.825,-0.050
37.830,0.035
37.835,-0.111
37.840,-0.109
37.845,0.031
37.850,-0.060
37.855,-0.138
37.860,0.013
37.865,0.004
37.870,-0.142
37.875,-0.050
37.880,0.033
37.885,-0.117
37.890,-0.117
37.895,0.022
37.900,-0.080
37.905,-0.171
37.910,-0.021
37.915,-0.017
37.920,-0.151
37.925,-0.055
37.930,0.021
37.935,-0.140
37.940,-0.152
37.945,-0.024
37.950,-0.119
37.955,-0.200
37.960,-0.047
37.965,-0.045
37.970,-0.206
37.975,-0.140
37.980,-0.048
37.985,-0.182
37.990,-0.179
37.995,-0.024
38.000,-0.094
38.005,-0.157
38.010,0.001
38.015,0.002
38.020,-0.122
38.025,0.001
38.030,0.099
38.035,-0.044
38.040,-0.026
38.045,0.129
38.050,0.036
38.055,-0.048
38.060,0.098
38.065,0.085
38.070,-0.056
38.075,0.042
38.080,0.118
38.085,-0.035
38.090,-0.031
38.095,0.108
38.100,0.013
38.105,-0.074
38.110,0.081
38.115,0.108
38.120,-0.035
38.125,-0.003
38.130,-0.053
38.135,-0.582
38.140,-1.316
38.145,-1.804
38.150,-1.868
38.155,-1.606
38.160,-0.981
38.165,-0.126
38.170,0.409
38.175,0.633
38.180,0.648
38.185,0.438
38.190,0.412
38.195,0.498
38.200,0.343
38.205,0.249
38.210,0.391
38.215,0.369
38.220,0.218
38.225,0.303
38.230,0.366
38.235,0.205
38.240,0.206
38.245,0.327
38.250,0.211
38.255,0.124
38.260,0.260
38.265,0.226
38.270,0.077
38.275,0.171
38.280,0.224
38.285,0.053
38.290,0.059
38.295,0.193
38.300,0.078
38.305,-0.013
38.310,0.135
38.315,0.102
38.320,-0.065
38.325,0.034
38.330,0.104
38.335,-0.066
38.340,-0.062
38.345,0.066
38.350,-0.050
38.355,-0.129
38.360,0.003
38.365,-0.045
38.370,-0.196
38.375,-0.094
38.380,-0.026
38.385,-0.181
38.390,-0.166
38.395,-0.026
38.400,-0.114
38.405,-0.161
38.410,0.019
38.415,0.040
38.420,-0.053
38.425,0.103
38.430,0.218
38.435,0.092
38.440,0.145
38.445,0.312
38.450,0.218
38.455,0.155
38.460,0.307
38.465,0.281
38.470,0.144
38.475,0.248
38.480,0.309
38.485,0.146
38.490,0.157
38.495,0.281
38.500,0.164
38.505,0.083
38.510,0.219
38.515,0.185
38.520,0.041
38.525,0.136
38.530,0.191
38.535,0.028
38.540,0.040
38.545,0.170
38.550,0.062
38.555,-0.015
38.560,0.124
38.565,0.089
38.570,-0.057
38.575,0.049
38.580,0.115
38.585,-0.047
38.590,-0.029
38.595,0.105
38.600,-0.002
38.605,-0.074
38.610,0.065
38.615,0.028
38.620,-0.113
38.625,-0.004
38.630,0.058
38.635,-0.103
38.640,-0.076
38.645,0.067
38.650,-0.042
38.655,-0.117
38.660,0.028
38.665,0.007
38.670,-0.121
38.675,-0.014
38.680,0.045
38.685,-0.108
38.690,-0.077
38.695,0.054
38.700,-0.066
38.705,-0.136
38.710,0.015
38.715,-0.012
38.720,-0.139
38.725,-0.027
38.730,0.026
38.735,-0.132
38.740,-0.097
38.745,0.041
38.750,-0.078
38.755,-0.145
38.760,0.011
38.765,-0.021
38.770,-0.156
38.775,-0.047
38.780,0.006
38.785,-0.154
38.790,-0.137
38.795,-0.025
38.800,-0.141
38.805,-0.190
38.810,-0.032
38.815,-0.070
38.820,-0.223
38.825,-0.117
38.830,-0.039
38.835,-0.198
38.840,-0.177
38.845,-0.023
38.850,-0.107
38.855,-0.152
38.860,-0.002
38.865,-0.028
38.870,-0.126
38.875,0.019
38.880,0.097
38.885,-0.051
38.890,-0.021
38.895,0.109
38.900,-0.007
38.905,-0.062
38.910,0.099
38.915,0.060
38.920,-0.090
38.925,0.026
38.930,0.104
38.935,-0.059
38.940,-0.043
38.945,0.090
38.950,-0.018
38.955,-0.068
38.960,0.101
38.965,0.096
38.970,-0.050
38.975,-0.017
38.980,-0.180
38.985,-0.895
38.990,-1.647
38.995,-1.911
39.000,-1.792
39.005,-1.414
39.010,-0.602
39.015,0.194
39.020,0.481
39.025,0.586
39.030,0.579
39.035,0.399
39.040,0.400
39.045,0.477
39.050,0.318
39.055,0.237
39.060,0.382
39.065,0.343
39.070,0.206
39.075,0.314
39.080,0.354
39.085,0.181
39.090,0.199
39.095,0.302
39.100,0.165
39.105,0.106
39.110,0.250
39.115,0.197
39.120,0.064
39.125,0.172
39.130,0.212
39.135,0.056
39.140,0.083
39.145,0.187
39.150,0.055
39.155,-0.006
39.160,0.138
39.165,0.084
39.170,-0.062
39.175,0.041
39.180,0.084
39.185,-0.079
39.190,-0.049
39.195,0.064
39.200,-0.073
39.205,-0.131
39.210,0.013
39.215,-0.054
39.220,-0.195
39.225,-0.078
39.230,-0.027
39.235,-0.175
39.240,-0.128
39.245,0.011
39.250,-0.086
39.255,-0.109
39.260,0.068
39.265,0.055
39.270,-0.025
39.275,0.148
39.280,0.239
39.285,0.111
39.290,0.178
39.295,0.312
39.300,0.191
39.305,0.151
39.310,0.309
39.315,0.264
39.320,0.136
39.325,0.248
39.330,0.281
39.335,0.119
39.340,0.159
39.345,0.262
39.350,0.114
39.355,0.062
39.360,0.214
39.365,0.160
39.370,0.029
39.375,0.141
39.380,0.180
39.385,0.017
39.390,0.054
39.395,0.173
39.400,0.033
39.405,-0.029
39.410,0.117
39.415,0.064
39.420,-0.058
39.425,0.063
39.430,0.094
39.435,-0.070
39.440,-0.021
39.445,0.096
39.450,-0.044
39.455,-0.096
39.460,0.060
39.465,0.007
39.470,-0.127
39.475,-0.004
39.480,0.041
39.485,-0.112
39.490,-0.052
39.495,0.071
39.500,-0.062
39.505,-0.107
39.510,0.046
39.515,-0.014
39.520,-0.145
39.525,-0.012
39.530,0.039
39.535,-0.123
39.540,-0.071
39.545,0.054
39.550,-0.080
39.555,-0.125
39.560,0.027
39.565,-0.032
39.570,-0.152
39.575,-0.016
39.580,0.025
39.585,-0.135
39.590,-0.076
39.595,0.036
39.600,-0.126
39.605,-0.187
39.610,-0.032
39.615,-0.075
39.620,-0.177
39.625,-0.050
39.630,-0.040
39.635,-0.218
39.640,-0.167
39.645,-0.047
39.650,-0.178
39.655,-0.216
39.660,-0.046
39.665,-0.075
39.670,-0.175
39.675,-0.039
39.680,0.008
39.685,-0.120
39.690,-0.034
39.695,0.096
39.700,-0.033
39.705,-0.069
39.710,0.100
39.715,0.061
39.720,-0.065
39.725,0.055
39.730,0.097
39.735,-0.060
39.740,-0.008
39.745,0.107
39.750,-0.026
39.755,-0.061
39.760,0.091
39.765,0.025
39.770,-0.092
39.775,0.071
39.780,0.140
39.785,-0.049
39.790,-0.095
39.795,-0.229
39.800,-0.954
39.805,-1.740
39.810,-1.919
39.815,-1.754
39.820,-1.416
39.825,-0.570
39.830,0.276
39.835,0.487
39.840,0.512
39.845,0.558
39.850,0.417
39.855,0.366
39.860,0.470
39.865,0.370
39.870,0.241
39.875,0.375
39.880,0.395
39.885,0.222
39.890,0.276
39.895,0.378
39.900,0.232
39.905,0.189
39.910,0.319
39.915,0.235
39.920,0.113
39.925,0.227
39.930,0.238
39.935,0.080
39.940,0.134
39.945,0.230
39.950,0.087
39.955,0.047
39.960,0.180
39.965,0.095
39.970,-0.021
39.975,0.114
39.980,0.128
39.985,-0.043
39.990,0.014
39.995,0.112
40.000,-0.037
40.005,-0.075
40.010,0.056
40.015,-0.033
40.020,-0.163
40.025,-0.044
40.030,-0.026
40.035,-0.184
40.040,-0.120
40.045,-0.015
40.050,-0.155
40.055,-0.178
40.060,-0.008
40.065,-0.042
40.070,-0.115
40.075,0.055
40.080,0.117
40.085,0.002
40.090,0.103
40.095,0.246
40.100,0.143
40.105,0.145
40.110,0.309
40.115,0.239
40.120,0.131
40.125,0.273
40.130,0.297
40.135,0.141
40.140,0.206
40.145,0.302
40.150,0.152
40.155,0.123
40.160,0.261
40.165,0.172
40.170,0.057
40.175,0.184
40.180,0.190
40.185,0.028
40.190,0.094
40.195,0.193
40.200,0.043
40.205,0.017
40.210,0.167
40.215,0.084
40.220,-0.032
40.225,0.100
40.230,0.107
40.235,-0.054
40.240,0.016
40.245,0.111
40.250,-0.037
40.255,-0.058
40.260,0.089
40.265,0.005
40.270,-0.104
40.275,0.037
40.280,0.051
40.285,-0.101
40.290,-0.021
40.295,0.075
40.300,-0.076
40.305,-0.090
40.310,0.066
40.315,-0.014
40.320,-0.116
40.325,0.029
40.330,0.041
40.335,-0.124
40.340,-0.054
40.345,0.049
40.350,-0.096
40.355,-0.115
40.360,0.041
40.365,-0.031
40.370,-0.133
40.375,0.006
40.380,0.014
40.385,-0.147
40.390,-0.069
40.395,0.038
40.400,-0.099
40.405,-0.113
40.410,0.030
40.415,-0.055
40.420,-0.157
40.425,-0.012
40.430,0.008
40.435,-0.143
40.440,-0.076
40.445,0.003
40.450,-0.161
40.455,-0.182
40.460,-0.033
40.465,-0.106
40.470,-0.189
40.475,-0.050
40.480,-0.074
40.485,-0.243
40.490,-0.153
40.495,-0.047
40.500,-0.189
40.505,-0.191
40.510,-0.016
40.515,-0.077
40.520,-0.160
40.525,0.000
40.530,0.028
40.535,-0.104
40.540,-0.015
40.545,0.092
40.550,-0.035
40.555,-0.043
40.560,0.103
40.565,0.026
40.570,-0.064
40.575,0.084
40.580,0.089
40.585,-0.065
40.590,0.017
40.595,0.101
40.600,-0.055
40.605,-0.061
40.610,0.090
40.615,0.009
40.620,-0.057
40.625,0.113
40.630,0.070
40.635,-0.179
40.640,-0.339
40.645,-0.847
40.650,-1.674
40.655,-1.958
40.660,-1.727
40.665,-1.405
40.670,-0.658
40.675,0.295
40.680,0.623
40.685,0.443
40.690,0.442
40.695,0.531
40.700,0.375
40.705,0.324
40.710,0.442
40.715,0.340
40.720,0.251
40.725,0.396
40.730,0.374
40.735,0.208
40.740,0.290
40.745,0.361
40.750,0.191
40.755,0.173
40.760,0.305
40.765,0.200
40.770,0.093
40.775,0.231
40.780,0.223
40.785,0.062
40.790,0.143
40.795,0.222
40.800,0.061
40.805,0.052
40.810,0.182
40.815,0.070
40.820,-0.028
40.825,0.114
40.830,0.095
40.835,-0.072
40.840,0.006
40.845,0.085
40.850,-0.073
40.855,-0.083
40.860,0.049
40.865,-0.057
40.870,-0.161
40.875,-0.029
40.880,-0.046
40.885,-0.209
40.890,-0.120
40.895,-0.027
40.900,-0.170
40.905,-0.161
40.910,-0.003
40.915,-0.059
40.920,-0.094
40.925,0.092
40.930,0.125
40.935,0.030
40.940,0.166
40.945,0.277
40.950,0.150
40.955,0.175
40.960,0.332
40.965,0.242
40.970,0.151
40.975,0.290
40.980,0.283
40.985,0.135
40.990,0.212
40.995,0.284
41.000,0.139
41.005,0.136
41.010,0.259
41.015,0.153
41.020,0.065
41.025,0.201
41.030,0.169
41.035,0.008
41.040,0.102
41.045,0.177
41.050,0.014
41.055,0.021
41.060,0.159
41.065,0.051
41.070,-0.035
41.075,0.105
41.080,0.086
41.085,-0.054
41.090,0.037
41.095,0.100
41.100,-0.054
41.105,-0.040
41.110,0.100
41.115,-0.010
41.120,-0.097
41.125,0.049
41.130,0.028
41.135,-0.117
41.140,-0.007
41.145,0.079
41.150,-0.080
41.155,-0.078
41.160,0.060
41.165,-0.039
41.170,-0.119
41.175,0.031
41.180,0.015
41.185,-0.128
41.190,-0.018
41.195,0.056
41.200,-0.112
41.205,-0.102
41.210,0.047
41.215,-0.050
41.220,-0.132
41.225,0.015
41.230,-0.008
41.235,-0.154
41.240,-0.044
41.245,0.033
41.250,-0.120
41.255,-0.097
41.260,0.042
41.265,-0.066
41.270,-0.145
41.275,-0.002
41.280,-0.019
41.285,-0.153
41.290,-0.047
41.295,0.022
41.300,-0.136
41.305,-0.120
41.310,0.004
41.315,-0.122
41.320,-0.206
41.325,-0.052
41.330,-0.063
41.335,-0.196
41.340,-0.104
41.345,-0.062
41.350,-0.207
41.355,-0.160
41.360,-0.026
41.365,-0.132
41.370,-0.181
41.375,-0.007
41.380,-0.019
41.385,-0.151
41.390,-0.022
41.395,0.071
41.400,-0.075
41.405,-0.038
41.410,0.119
41.415,0.018
41.420,-0.052
41.425,0.095
41.430,0.064
41.435,-0.072
41.440,0.034
41.445,0.099
41.450,-0.048
41.455,-0.018
41.460,0.116
41.465,-0.005
41.470,-0.080
41.475,0.080
41.480,0.055
41.485,-0.063
41.490,0.080
41.495,0.106
41.500,-0.145
41.505,-0.326
41.510,-0.749
41.515,-1.571
41.520,-1.957
41.525,-1.750
41.530,-1.446
41.535,-0.774
41.540,0.202
41.545,0.657
41.550,0.502
41.555,0.431
41.560,0.542
41.565,0.417
41.570,0.295
41.575,0.416
41.580,0.375
41.585,0.237
41.590,0.357
41.595,0.411
41.600,0.234
41.605,0.247
41.610,0.366
41.615,0.232
41.620,0.151
41.625,0.292
41.630,0.250
41.635,0.105
41.640,0.202
41.645,0.243
41.650,0.071
41.655,0.089
41.660,0.211
41.665,0.092
41.670,0.031
41.675,0.179
41.680,0.128
41.685,-0.023
41.690,0.080
41.695,0.126
41.700,-0.043
41.705,-0.023
41.710,0.091
41.715,-0.042
41.720,-0.113
41.725,0.035
41.730,-0.018
41.735,-0.173
41.740,-0.069
41.745,-0.022
41.750,-0.181
41.755,-0.147
41.760,-0.019
41.765,-0.132
41.770,-0.182
41.775,-0.017
41.780,-0.024
41.785,-0.112
41.790,0.051
41.795,0.156
41.800,0.038
41.805,0.105
41.810,0.272
41.815,0.183
41.820,0.145
41.825,0.309
41.830,0.278
41.835,0.152
41.840,0.266
41.845,0.312
41.850,0.147
41.855,0.178
41.860,0.295
41.865,0.163
41.870,0.099
41.875,0.242
41.880,0.183
41.885,0.041
41.890,0.163
41.895,0.210
41.900,0.036
41.905,0.066
41.910,0.193
41.915,0.065
41.920,0.004
41.925,0.151
41.930,0.098
41.935,-0.040
41.940,0.073
41.945,0.112
41.950,-0.058
41.955,-0.019
41.960,0.114
41.965,-0.008
41.970,-0.065
41.975,0.081
41.980,0.028
41.985,-0.107
41.990,0.012
41.995,0.062
42.000,-0.092
42.005,-0.048
42.010,0.082
42.015,-0.047
42.020,-0.110
42.025,0.056
42.030,0.021
42.035,-0.115
42.040,0.000
42.045,0.048
42.050,-0.110
42.055,-0.070
42.060,0.051
42.065,-0.079
42.070,-0.130
42.075,0.027
42.080,-0.019
42.085,-0.145
42.090,-0.019
42.095,0.025
42.100,-0.134
42.105,-0.083
42.110,0.044
42.115,-0.085
42.120,-0.132
42.125,0.017
42.130,-0.035
42.135,-0.154
42.140,-0.026
42.145,0.020
42.150,-0.131
42.155,-0.078
42.160,0.041
42.165,-0.091
42.170,-0.142
42.175,0.006
42.180,-0.050
42.185,-0.178
42.190,-0.054
42.195,-0.017
42.200,-0.181
42.205,-0.140
42.210,-0.026
42.215,-0.146
42.220,-0.184
42.225,-0.051
42.230,-0.120
42.235,-0.230
42.240,-0.091
42.245,-0.043
42.250,-0.183
42.255,-0.111
42.260,0.028
42.265,-0.102
42.270,-0.140
42.275,0.045
42.280,0.023
42.285,-0.080
42.290,0.052
42.295,0.094
42.300,-0.046
42.305,0.008
42.310,0.123
42.315,-0.001
42.320,-0.047
42.325,0.098
42.330,0.042
42.335,-0.075
42.340,0.047
42.345,0.061
42.350,-0.093
42.355,-0.124
42.360,-0.114
42.365,-0.122
42.370,-0.108
42.375,-0.103
42.380,-0.098
42.385,-0.092
42.390,-0.087
42.395,-0.081
42.400,-0.075
42.405,-0.070
42.410,-0.065
42.415,-0.060
42.420,-0.055
42.425,-0.050
42.430,-0.046
42.435,-0.041
42.440,-0.037
42.445,-0.033
42.450,-0.029
42.455,-0.026
42.460,-0.022
42.465,-0.019
42.470,-0.015
42.475,-0.012
42.480,-0.009
42.485,-0.006
42.490,-0.004
42.495,-0.001
42.500,0.002
42.505,0.004
42.510,0.006
42.515,0.008
42.520,0.010
42.525,0.012
42.530,0.014
42.535,0.015
42.540,0.017
42.545,0.019
42.550,0.021
42.555,0.022
42.560,0.023
42.565,0.024
42.570,0.025
42.575,0.026
42.580,0.027
42.585,0.028
42.590,0.029
42.595,0.030
42.600,0.030
42.605,0.031
42.610,0.031
42.615,0.032
42.620,0.032
42.625,0.032
42.630,0.033
42.635,0.033
42.640,0.033
42.645,0.033
42.650,0.033
42.655,0.034
42.660,0.034
42.665,0.034
42.670,0.033
42.675,0.033
42.680,0.033
42.685,0.033
42.690,0.033
42.695,0.033
42.700,0.033
42.705,0.033
42.710,0.032
42.715,0.032
42.720,0.031
42.725,0.031
42.730,0.031
42.735,0.030
42.740,0.030
42.745,0.029
42.750,0.029
42.755,0.029
42.760,0.029
42.765,0.028
42.770,0.027
42.775,0.027
42.780,0.026
42.785,0.026
42.790,0.026
42.795,0.025
42.800,0.024
42.805,0.023
42.810,0.023
42.815,0.022
42.820,0.022
42.825,0.021
42.830,0.021
42.835,0.020
42.840,0.020
42.845,0.019
42.850,0.019
42.855,0.018
42.860,0.017
42.865,0.017
42.870,0.016
42.875,0.015
42.880,0.015
42.885,0.015
42.890,0.014
42.895,0.013
42.900,0.013
42.905,0.012
42.910,0.012
42.915,0.012
42.920,0.011
42.925,0.011
42.930,0.010
42.935,0.010
42.940,0.009
42.945,0.009
42.950,0.008
42.955,0.008
42.960,0.008
42.965,0.007
42.970,0.007
42.975,0.006
42.980,0.006
42.985,0.005
42.990,0.005
42.995,0.005
43.000,0.004
43.005,0.004
43.010,0.004
43.015,0.003
43.020,0.003
43.025,0.003
43.030,0.003
43.035,0.002
43.040,0.002
43.045,0.001
43.050,0.001
43.055,0.001
43.060,0.001
43.065,0.001
43.070,0.001
43.075,0.001
43.080,0.000
43.085,0.000
43.090,0.000
43.095,-0.001
43.100,-0.001
43.105,-0.001
43.110,-0.001
43.115,-0.001
43.120,-0.001
43.125,-0.001
43.130,-0.001
43.135,-0.002
43.140,-0.002
43.145,-0.002
43.150,-0.002
43.155,-0.002
43.160,-0.002
43.165,-0.002
43.170,-0.003
43.175,-0.003
43.180,-0.003
43.185,-0.003
43.190,-0.003
43.195,-0.003
43.200,-0.003
43.205,-0.003
43.210,-0.003
43.215,-0.003
43.220,-0.003
43.225,-0.003
43.230,-0.003
43.235,-0.003
43.240,-0.003
43.245,-0.003
43.250,-0.003
43.255,-0.004
43.260,-0.004
43.265,-0.004
43.270,-0.004
43.275,-0.004
43.280,-0.004
43.285,-0.004
43.290,-0.004
43.295,-0.004
43.300,-0.003
43.305,-0.003
43.310,-0.004
43.315,-0.004
43.320,-0.004
43.325,-0.004
43.330,-0.003
43.335,-0.003
43.340,-0.003
43.345,-0.003
43.350,-0.003
43.355,-0.003
43.360,-0.003
43.365,-0.003
43.370,-0.003
43.375,-0.003
43.380,-0.003
43.385,-0.003
43.390,-0.003
43.395,-0.003
43.400,-0.003
43.405,-0.003
43.410,-0.003
43.415,-0.003
43.420,-0.003
43.425,-0.003
43.430,-0.003
43.435,-0.003
43.440,-0.003
43.445,-0.003
43.450,-0.003
43.455,-0.003
43.460,-0.003
43.465,-0.003
43.470,-0.002
43.475,-0.002
43.480,-0.002
43.485,-0.002
43.490,-0.002
43.495,-0.002
43.500,-0.002
43.505,-0.002
43.510,-0.003
43.515,-0.002
43.520,-0.002
43.525,-0.002
43.530,-0.002
43.535,-0.002
43.540,-0.001
43.545,-0.002
43.550,-0.002
43.555,-0.001
43.560,-0.001
43.565,-0.001
43.570,-0.002
43.575,-0.002
43.580,-0.002
43.585,-0.002
43.590,-0.002
43.595,-0.002
43.600,-0.002
43.605,-0.001
43.610,-0.002
43.615,-0.002
43.620,-0.001
43.625,-0.002
43.630,-0.002
43.635,-0.002
43.640,-0.002
43.645,-0.001
43.650,-0.001
43.655,-0.002
43.660,-0.001
43.665,-0.001
43.670,-0.001
43.675,-0.001
43.680,-0.001
43.685,-0.001
43.690,-0.001
43.695,-0.001
43.700,-0.001
43.705,-0.001
43.710,-0.001
43.715,-0.001
43.720,-0.001
43.725,-0.001
43.730,-0.001
43.735,0.000
43.740,-0.001
43.745,-0.001
43.750,0.000
43.755,0.000
43.760,0.000
43.765,0.000
43.770,0.000
43.775,0.000
43.780,0.000
43.785,0.000
43.790,0.000
43.795,0.000
43.800,0.000
43.805,0.000
43.810,0.000
43.815,0.000
43.820,0.000
43.825,0.000
43.830,0.000
43.835,0.000
43.840,-0.001
43.845,-0.001
43.850,0.000
43.855,0.000
43.860,-0.001
43.865,-0.001
43.870,0.000
43.875,0.000
43.880,-0.001
43.885,0.000
43.890,0.000
43.895,0.000
43.900,0.000
43.905,0.000
43.910,0.000
43.915,0.000
43.920,0.000
43.925,0.000
43.930,0.000
43.935,0.000
43.940,0.000
43.945,0.000
43.950,0.000
43.955,0.000
43.960,0.000
43.965,0.000
43.970,0.000
43.975,0.000
43.980,0.000
43.985,0.000
43.990,0.000
43.995,0.000
44.000,0.000
44.005,0.000
44.010,0.000
44.015,0.000
44.020,0.000
44.025,0.000
44.030,0.000
44.035,0.000
44.040,0.000
44.045,0.000
44.050,-0.001
44.055,-0.001
44.060,0.000
44.065,0.000
44.070,0.000
44.075,0.000
44.080,0.000
44.085,0.000
44.090,0.000
44.095,0.000
44.100,0.000
44.105,0.000
44.110,0.000
44.115,0.000
44.120,0.000
44.125,0.000
44.130,0.000
44.135,0.000
44.140,0.000
44.145,0.000
44.150,0.000
44.155,0.000
44.160,0.000
44.165,0.001
44.170,0.000
44.175,0.000
44.180,0.000
44.185,0.000
44.190,0.000
44.195,0.001
44.200,0.001
44.205,0.000
44.210,0.000
44.215,0.000
44.220,0.000
44.225,0.000
44.230,0.000
44.235,0.000
44.240,0.000
44.245,0.000
44.250,0.000
44.255,0.000
44.260,0.000
44.265,0.000
44.270,0.000
44.275,0.000
44.280,0.000
44.285,0.000
44.290,0.000
44.295,0.000
44.300,0.000
44.305,-0.001
44.310,0.000
44.315,0.000
44.320,0.000
44.325,0.000
44.330,0.000
44.335,0.000
44.340,0.000
44.345,0.000
44.350,0.000
44.355,0.000
44.360,0.000
44.365,0.000
44.370,0.000
44.375,0.000
44.380,0.000
44.385,0.000
44.390,0.000
44.395,0.000
44.400,0.000
44.405,0.000
44.410,0.000
44.415,0.000
44.420,0.000
44.425,0.000
44.430,0.000
44.435,0.000
44.440,0.000
44.445,0.000
44.450,-0.001
44.455,0.000
44.460,0.000
44.465,0.000
44.470,0.000
44.475,0.000
44.480,0.000
44.485,0.000
44.490,0.000
44.495,0.000
44.500,0.000
44.505,0.000
44.510,0.000
44.515,0.000
44.520,0.000
44.525,0.000
44.530,0.000
44.535,0.000
44.540,0.000
44.545,0.000
44.550,0.000
44.555,0.000
44.560,0.000
44.565,0.000
44.570,0.000
44.575,0.000
44.580,0.000
44.585,0.000
44.590,0.000
44.595,0.000
44.600,0.000
44.605,0.000
44.610,0.000
44.615,0.000
44.620,0.000
44.625,0.000
44.630,0.000
44.635,0.000
44.640,0.000
44.645,0.000
44.650,0.000
44.655,0.000
44.660,0.000
44.665,0.000
44.670,0.000
44.675,0.000
44.680,0.000
44.685,0.000
44.690,0.000
44.695,0.000
44.700,0.000
44.705,0.000
44.710,0.000
44.715,0.000
44.720,0.000
44.725,0.000
44.730,0.000
44.735,0.000
44.740,0.000
44.745,0.000
44.750,0.000
44.755,0.000
44.760,0.000
44.765,0.000
44.770,0.000
44.775,0.000
44.780,0.000
44.785,0.001
44.790,0.001
44.795,0.000
44.800,0.000
44.805,0.000
44.810,0.000
44.815,0.000
44.820,0.000
44.825,0.000
44.830,0.000
44.835,0.000
44.840,0.000
44.845,0.000
44.850,0.000
44.855,0.000
44.860,0.000
44.865,0.000
44.870,0.000
44.875,0.000
44.880,0.000
44.885,0.000
44.890,0.000
44.895,0.000
44.900,0.000
44.905,0.001
44.910,0.001
44.915,0.000
44.920,0.000
44.925,0.000
44.930,0.000
44.935,0.000
44.940,0.000
44.945,0.000
44.950,0.000
44.955,0.000
44.960,0.000
44.965,0.000
44.970,0.000
44.975,0.000
44.980,0.000
44.985,0.000
44.990,0.000
44.995,0.000
45.000,0.000
45.005,0.000
45.010,0.000
45.015,0.000
45.020,0.000
45.025,0.000
45.030,0.000
45.035,0.000
45.040,0.000
45.045,0.000
45.050,0.000
45.055,0.000
45.060,0.000
45.065,0.000
45.070,0.000
45.075,0.000
45.080,0.000
45.085,0.000
45.090,0.000
45.095,0.000
45.100,0.000
45.105,0.000
45.110,0.000
45.115,0.000
45.120,0.000
45.125,0.000
45.130,0.000
45.135,0.000
45.140,0.000
45.145,0.000
45.150,0.000
45.155,0.000
45.160,0.000
45.165,0.000
45.170,0.000
45.175,0.001
45.180,0.001
45.185,0.000
45.190,0.000
45.195,0.000
45.200,0.000
45.205,0.000
45.210,0.000
45.215,0.000
45.220,0.000
45.225,0.000
45.230,0.000
45.235,0.000
45.240,0.000
45.245,0.000
45.250,0.000
45.255,0.000
45.260,0.000
45.265,0.000
45.270,0.000
45.275,0.000
45.280,0.000
45.285,0.000
45.290,0.000
45.295,0.000
45.300,0.000
45.305,0.000
45.310,0.000
45.315,0.000
45.320,0.000
45.325,0.000
45.330,0.000
45.335,0.000
45.340,0.000
45.345,0.000
45.350,0.000
45.355,0.000
45.360,0.000
45.365,0.000
45.370,0.000
