'Elapsed time','ECG'
'seconds','mV'
0.000,-0.264
0.005,0.217
0.010,0.349
0.015,0.353
0.020,0.284
0.025,0.247
0.030,0.316
0.035,0.270
0.040,0.234
0.045,0.269
0.050,0.262
0.055,0.237
0.060,0.230
0.065,0.220
0.070,0.187
0.075,0.183
0.080,0.195
0.085,0.167
0.090,0.152
0.095,0.153
0.100,0.131
0.105,0.127
0.110,0.143
0.115,0.136
0.120,0.111
0.125,0.096
0.130,0.091
0.135,0.082
0.140,0.072
0.145,0.062
0.150,0.052
0.155,0.045
0.160,0.037
0.165,0.035
0.170,0.036
0.175,0.041
0.180,0.038
0.185,0.024
0.190,0.018
0.195,0.012
0.200,-0.005
0.205,-0.017
0.210,-0.013
0.215,-0.014
0.220,-0.023
0.225,-0.034
0.230,-0.046
0.235,-0.049
0.240,-0.057
0.245,-0.067
0.250,-0.061
0.255,-0.056
0.260,-0.057
0.265,-0.055
0.270,-0.052
0.275,-0.047
0.280,-0.047
0.285,-0.051
0.290,-0.050
0.295,-0.043
0.300,-0.036
0.305,-0.037
0.310,-0.043
0.315,-0.044
0.320,-0.039
0.325,-0.038
0.330,-0.039
0.335,-0.037
0.340,-0.034
0.345,-0.036
0.350,-0.038
0.355,-0.037
0.360,-0.034
0.365,-0.032
0.370,-0.036
0.375,-0.041
0.380,-0.042
0.385,-0.038
0.390,-0.029
0.395,-0.027
0.400,-0.031
0.405,-0.036
0.410,-0.034
0.415,-0.022
0.420,-0.019
0.425,-0.019
0.430,-0.015
0.435,-0.017
0.440,-0.020
0.445,-0.019
0.450,-0.016
0.455,-0.012
0.460,-0.007
0.465,-0.005
0.470,-0.010
0.475,-0.015
0.480,-0.019
0.485,-0.020
0.490,-0.016
0.495,-0.016
0.500,-0.019
0.505,-0.012
0.510,0.001
0.515,0.000
0.520,-0.007
0.525,-0.013
0.530,-0.015
0.535,-0.012
0.540,-0.008
0.545,-0.006
0.550,-0.001
0.555,-0.002
0.560,-0.013
0.565,-0.018
0.570,-0.013
0.575,-0.014
0.580,-0.021
0.585,-0.025
0.590,-0.028
0.595,-0.031
0.600,-0.031
0.605,-0.032
0.610,-0.035
0.615,-0.041
0.620,-0.045
0.625,-0.043
0.630,-0.041
0.635,-0.037
0.640,-0.039
0.645,-0.042
0.650,-0.038
0.655,-0.031
0.660,-0.028
0.665,-0.024
0.670,-0.011
0.675,0.008
0.680,0.019
0.685,0.022
0.690,0.023
0.695,0.026
0.700,0.027
0.705,0.025
0.710,0.026
0.715,0.030
0.720,0.033
0.725,0.032
0.730,0.031
0.735,0.026
0.740,0.019
0.745,0.022
0.750,0.029
0.755,0.041
0.760,0.058
0.765,0.061
0.770,0.028
0.775,-0.085
0.780,-0.278
0.785,-0.493
0.790,-0.675
0.795,-0.743
0.800,-0.680
0.805,-0.538
0.810,-0.346
0.815,-0.190
0.820,-0.123
0.825,-0.083
0.830,-0.032
0.835,0.049
0.840,0.145
0.845,0.209
0.850,0.244
0.855,0.265
0.860,0.268
0.865,0.268
0.870,0.271
0.875,0.268
0.880,0.263
0.885,0.259
0.890,0.250
0.895,0.234
0.900,0.223
0.905,0.218
0.910,0.210
0.915,0.193
0.920,0.176
0.925,0.164
0.930,0.157
0.935,0.150
0.940,0.144
0.945,0.134
0.950,0.122
0.955,0.117
0.960,0.112
0.965,0.102
0.970,0.093
0.975,0.088
0.980,0.086
0.985,0.083
0.990,0.073
0.995,0.061
1.000,0.050
1.005,0.039
1.010,0.033
1.015,0.032
1.020,0.031
1.025,0.024
1.030,0.016
1.035,0.011
1.040,0.009
1.045,0.005
1.050,-0.007
1.055,-0.017
1.060,-0.021
1.065,-0.024
1.070,-0.027
1.075,-0.032
1.080,-0.036
1.085,-0.040
1.090,-0.046
1.095,-0.047
1.100,-0.045
1.105,-0.045
1.110,-0.043
1.115,-0.037
1.120,-0.034
1.125,-0.032
1.130,-0.027
1.135,-0.024
1.140,-0.023
1.145,-0.023
1.150,-0.023
1.155,-0.023
1.160,-0.025
1.165,-0.028
1.170,-0.028
1.175,-0.031
1.180,-0.033
1.185,-0.030
1.190,-0.023
1.195,-0.022
1.200,-0.022
1.205,-0.017
1.210,-0.017
1.215,-0.016
1.220,-0.017
1.225,-0.025
1.230,-0.025
1.235,-0.023
1.240,-0.018
1.245,-0.014
1.250,-0.015
1.255,-0.012
1.260,-0.011
1.265,-0.012
1.270,-0.009
1.275,-0.007
1.280,-0.008
1.285,-0.010
1.290,-0.007
1.295,-0.003
1.300,-0.007
1.305,-0.017
1.310,-0.020
1.315,-0.015
1.320,-0.010
1.325,-0.008
1.330,-0.006
1.335,-0.008
1.340,-0.009
1.345,-0.006
1.350,-0.003
1.355,-0.003
1.360,-0.006
1.365,-0.004
1.370,-0.004
1.375,-0.010
1.380,-0.011
1.385,-0.010
1.390,-0.011
1.395,-0.011
1.400,-0.017
1.405,-0.022
1.410,-0.029
1.415,-0.033
1.420,-0.024
1.425,-0.022
1.430,-0.031
1.435,-0.040
1.440,-0.047
1.445,-0.045
1.450,-0.043
1.455,-0.043
1.460,-0.041
1.465,-0.041
1.470,-0.039
1.475,-0.035
1.480,-0.030
1.485,-0.022
1.490,-0.013
1.495,-0.003
1.500,0.010
1.505,0.018
1.510,0.020
1.515,0.016
1.520,0.013
1.525,0.018
1.530,0.025
1.535,0.029
1.540,0.028
1.545,0.025
1.550,0.021
1.555,0.023
1.560,0.024
1.565,0.021
1.570,0.019
1.575,0.024
1.580,0.039
1.585,0.055
1.590,0.051
1.595,0.009
1.600,-0.105
1.605,-0.285
1.610,-0.476
1.615,-0.623
1.620,-0.654
1.625,-0.563
1.630,-0.413
1.635,-0.234
1.640,-0.112
1.645,-0.069
1.650,-0.032
1.655,0.006
1.660,0.066
1.665,0.136
1.670,0.177
1.675,0.204
1.680,0.220
1.685,0.218
1.690,0.216
1.695,0.217
1.700,0.210
1.705,0.200
1.710,0.194
1.715,0.187
1.720,0.177
1.725,0.170
1.730,0.164
1.735,0.155
1.740,0.150
1.745,0.143
1.750,0.136
1.755,0.128
1.760,0.117
1.765,0.109
1.770,0.102
1.775,0.091
1.780,0.082
1.785,0.080
1.790,0.074
1.795,0.066
1.800,0.060
1.805,0.053
1.810,0.049
1.815,0.046
1.820,0.041
1.825,0.038
1.830,0.032
1.835,0.026
1.840,0.025
1.845,0.025
1.850,0.021
1.855,0.019
1.860,0.013
1.865,0.004
1.870,-0.004
1.875,-0.008
1.880,-0.011
1.885,-0.012
1.890,-0.018
1.895,-0.023
1.900,-0.025
1.905,-0.030
1.910,-0.031
1.915,-0.030
1.920,-0.033
1.925,-0.030
1.930,-0.024
1.935,-0.020
1.940,-0.019
1.945,-0.021
1.950,-0.019
1.955,-0.015
1.960,-0.014
1.965,-0.017
1.970,-0.019
1.975,-0.021
1.980,-0.021
1.985,-0.018
1.990,-0.016
1.995,-0.017
2.000,-0.019
2.005,-0.024
2.010,-0.026
2.015,-0.025
2.020,-0.022
2.025,-0.018
2.030,-0.020
2.035,-0.022
2.040,-0.022
2.045,-0.027
2.050,-0.029
2.055,-0.029
2.060,-0.026
2.065,-0.021
2.070,-0.019
2.075,-0.017
2.080,-0.014
2.085,-0.012
2.090,-0.012
2.095,-0.013
2.100,-0.013
2.105,-0.010
2.110,-0.007
2.115,-0.007
2.120,-0.006
2.125,-0.006
2.130,-0.005
2.135,-0.008
2.140,-0.012
2.145,-0.012
2.150,-0.010
2.155,-0.008
2.160,-0.006
2.165,-0.004
2.170,-0.005
2.175,-0.006
2.180,-0.006
2.185,-0.007
2.190,-0.008
2.195,-0.006
2.200,-0.005
2.205,-0.006
2.210,-0.006
2.215,-0.007
2.220,-0.008
2.225,-0.010
2.230,-0.011
2.235,-0.012
2.240,-0.016
2.245,-0.023
2.250,-0.026
2.255,-0.027
2.260,-0.028
2.265,-0.030
2.270,-0.033
2.275,-0.037
2.280,-0.038
2.285,-0.041
2.290,-0.043
2.295,-0.042
2.300,-0.041
2.305,-0.037
2.310,-0.031
2.315,-0.027
2.320,-0.022
2.325,-0.010
2.330,0.002
2.335,0.010
2.340,0.016
2.345,0.021
2.350,0.027
2.355,0.028
2.360,0.025
2.365,0.024
2.370,0.026
2.375,0.026
2.380,0.020
2.385,0.020
2.390,0.021
2.395,0.021
2.400,0.022
2.405,0.024
2.410,0.033
2.415,0.052
2.420,0.063
2.425,0.052
2.430,0.001
2.435,-0.126
2.440,-0.313
2.445,-0.514
2.450,-0.678
2.455,-0.734
2.460,-0.681
2.465,-0.558
2.470,-0.379
2.475,-0.227
2.480,-0.153
2.485,-0.101
2.490,-0.040
2.495,0.042
2.500,0.135
2.505,0.202
2.510,0.245
2.515,0.277
2.520,0.283
2.525,0.277
2.530,0.280
2.535,0.279
2.540,0.270
2.545,0.263
2.550,0.257
2.555,0.245
2.560,0.234
2.565,0.224
2.570,0.212
2.575,0.204
2.580,0.194
2.585,0.183
2.590,0.173
2.595,0.165
2.600,0.157
2.605,0.145
2.610,0.135
2.615,0.128
2.620,0.118
2.625,0.109
2.630,0.100
2.635,0.095
2.640,0.087
2.645,0.079
2.650,0.072
2.655,0.066
2.660,0.058
2.665,0.053
2.670,0.050
2.675,0.044
2.680,0.036
2.685,0.028
2.690,0.020
2.695,0.012
2.700,0.005
2.705,-0.001
2.710,-0.006
2.715,-0.011
2.720,-0.018
2.725,-0.027
2.730,-0.033
2.735,-0.036
2.740,-0.037
2.745,-0.040
2.750,-0.043
2.755,-0.041
2.760,-0.037
2.765,-0.036
2.770,-0.037
2.775,-0.036
2.780,-0.032
2.785,-0.029
2.790,-0.030
2.795,-0.028
2.800,-0.027
2.805,-0.030
2.810,-0.032
2.815,-0.032
2.820,-0.032
2.825,-0.030
2.830,-0.029
2.835,-0.030
2.840,-0.030
2.845,-0.031
2.850,-0.029
2.855,-0.025
2.860,-0.024
2.865,-0.025
2.870,-0.026
2.875,-0.026
2.880,-0.021
2.885,-0.017
2.890,-0.020
2.895,-0.025
2.900,-0.024
2.905,-0.021
2.910,-0.018
2.915,-0.015
2.920,-0.015
2.925,-0.022
2.930,-0.024
2.935,-0.017
2.940,-0.015
2.945,-0.013
2.950,-0.014
2.955,-0.016
2.960,-0.013
2.965,-0.013
2.970,-0.013
2.975,-0.009
2.980,-0.009
2.985,-0.015
2.990,-0.015
2.995,-0.012
3.000,-0.012
3.005,-0.011
3.010,-0.010
3.015,-0.012
3.020,-0.011
3.025,-0.011
3.030,-0.013
3.035,-0.014
3.040,-0.014
3.045,-0.014
3.050,-0.012
3.055,-0.009
3.060,-0.012
3.065,-0.016
3.070,-0.019
3.075,-0.020
3.080,-0.017
3.085,-0.019
3.090,-0.026
3.095,-0.028
3.100,-0.030
3.105,-0.034
3.110,-0.037
3.115,-0.042
3.120,-0.042
3.125,-0.044
3.130,-0.047
3.135,-0.044
3.140,-0.043
3.145,-0.043
3.150,-0.039
3.155,-0.035
3.160,-0.032
3.165,-0.024
3.170,-0.012
3.175,0.003
3.180,0.016
3.185,0.020
3.190,0.023
3.195,0.026
3.200,0.025
3.205,0.024
3.210,0.024
3.215,0.024
3.220,0.023
3.225,0.023
3.230,0.021
3.235,0.022
3.240,0.023
3.245,0.022
3.250,0.023
3.255,0.030
3.260,0.047
3.265,0.057
3.270,0.044
3.275,-0.023
3.280,-0.176
3.285,-0.388
3.290,-0.598
3.295,-0.739
3.300,-0.760
3.305,-0.692
3.310,-0.553
3.315,-0.365
3.320,-0.224
3.325,-0.158
3.330,-0.104
3.335,-0.027
3.340,0.071
3.345,0.162
3.350,0.227
3.355,0.275
3.360,0.303
3.365,0.300
3.370,0.292
3.375,0.298
3.380,0.295
3.385,0.283
3.390,0.275
3.395,0.267
3.400,0.256
3.405,0.245
3.410,0.239
3.415,0.227
3.420,0.212
3.425,0.201
3.430,0.191
3.435,0.181
3.440,0.173
3.445,0.161
3.450,0.149
3.455,0.140
3.460,0.130
3.465,0.123
3.470,0.118
3.475,0.110
3.480,0.099
3.485,0.091
3.490,0.084
3.495,0.075
3.500,0.068
3.505,0.064
3.510,0.057
3.515,0.049
3.520,0.045
3.525,0.037
3.530,0.028
3.535,0.021
3.540,0.013
3.545,0.006
3.550,-0.002
3.555,-0.010
3.560,-0.016
3.565,-0.021
3.570,-0.029
3.575,-0.038
3.580,-0.039
3.585,-0.038
3.590,-0.041
3.595,-0.044
3.600,-0.046
3.605,-0.043
3.610,-0.035
3.615,-0.032
3.620,-0.035
3.625,-0.037
3.630,-0.036
3.635,-0.034
3.640,-0.035
3.645,-0.036
3.650,-0.035
3.655,-0.033
3.660,-0.033
3.665,-0.034
3.670,-0.031
3.675,-0.030
3.680,-0.032
3.685,-0.032
3.690,-0.031
3.695,-0.030
3.700,-0.028
3.705,-0.027
3.710,-0.028
3.715,-0.027
3.720,-0.026
3.725,-0.024
3.730,-0.019
3.735,-0.020
3.740,-0.020
3.745,-0.023
3.750,-0.025
3.755,-0.022
3.760,-0.019
3.765,-0.018
3.770,-0.017
3.775,-0.017
3.780,-0.016
3.785,-0.014
3.790,-0.015
3.795,-0.015
3.800,-0.014
3.805,-0.012
3.810,-0.010
3.815,-0.012
3.820,-0.013
3.825,-0.011
3.830,-0.012
3.835,-0.012
3.840,-0.011
3.845,-0.011
3.850,-0.010
3.855,-0.012
3.860,-0.012
3.865,-0.009
3.870,-0.009
3.875,-0.014
3.880,-0.015
3.885,-0.014
3.890,-0.013
3.895,-0.009
3.900,-0.007
3.905,-0.008
3.910,-0.013
3.915,-0.018
3.920,-0.021
3.925,-0.022
3.930,-0.024
3.935,-0.027
3.940,-0.027
3.945,-0.026
3.950,-0.029
3.955,-0.032
3.960,-0.038
3.965,-0.044
3.970,-0.044
3.975,-0.044
3.980,-0.048
3.985,-0.047
3.990,-0.043
3.995,-0.042
4.000,-0.040
4.005,-0.036
4.010,-0.031
4.015,-0.020
4.020,-0.007
4.025,0.005
4.030,0.017
4.035,0.025
4.040,0.027
4.045,0.025
4.050,0.025
4.055,0.023
4.060,0.019
4.065,0.021
4.070,0.023
4.075,0.024
4.080,0.023
4.085,0.019
4.090,0.018
4.095,0.020
4.100,0.022
4.105,0.035
4.110,0.052
4.115,0.058
4.120,0.036
4.125,-0.052
4.130,-0.230
4.135,-0.457
4.140,-0.660
4.145,-0.770
4.150,-0.754
4.155,-0.656
4.160,-0.491
4.165,-0.306
4.170,-0.196
4.175,-0.137
4.180,-0.077
4.185,0.002
4.190,0.102
4.195,0.187
4.200,0.245
4.205,0.286
4.210,0.299
4.215,0.293
4.220,0.292
4.225,0.295
4.230,0.287
4.235,0.279
4.240,0.275
4.245,0.263
4.250,0.252
4.255,0.242
4.260,0.229
4.265,0.218
4.270,0.206
4.275,0.198
4.280,0.190
4.285,0.176
4.290,0.167
4.295,0.158
4.300,0.146
4.305,0.135
4.310,0.125
4.315,0.119
4.320,0.115
4.325,0.106
4.330,0.095
4.335,0.088
4.340,0.083
4.345,0.073
4.350,0.067
4.355,0.062
4.360,0.051
4.365,0.043
4.370,0.040
4.375,0.034
4.380,0.029
4.385,0.023
4.390,0.014
4.395,0.009
4.400,-0.002
4.405,-0.013
4.410,-0.017
4.415,-0.024
4.420,-0.030
4.425,-0.031
4.430,-0.036
4.435,-0.042
4.440,-0.045
4.445,-0.045
4.450,-0.041
4.455,-0.038
4.460,-0.039
4.465,-0.038
4.470,-0.033
4.475,-0.035
4.480,-0.036
4.485,-0.033
4.490,-0.035
4.495,-0.033
4.500,-0.032
4.505,-0.031
4.510,-0.030
4.515,-0.032
4.520,-0.029
4.525,-0.029
4.530,-0.031
4.535,-0.029
4.540,-0.029
4.545,-0.025
4.550,-0.023
4.555,-0.027
4.560,-0.025
4.565,-0.022
4.570,-0.023
4.575,-0.022
4.580,-0.020
4.585,-0.022
4.590,-0.022
4.595,-0.021
4.600,-0.018
4.605,-0.018
4.610,-0.019
4.615,-0.018
4.620,-0.016
4.625,-0.014
4.630,-0.014
4.635,-0.016
4.640,-0.018
4.645,-0.012
4.650,-0.007
4.655,-0.008
4.660,-0.010
4.665,-0.011
4.670,-0.011
4.675,-0.008
4.680,-0.007
4.685,-0.009
4.690,-0.009
4.695,-0.011
4.700,-0.014
4.705,-0.011
4.710,-0.012
4.715,-0.012
4.720,-0.008
4.725,-0.008
4.730,-0.011
4.735,-0.009
4.740,-0.009
4.745,-0.012
4.750,-0.015
4.755,-0.015
4.760,-0.014
4.765,-0.016
4.770,-0.018
4.775,-0.021
4.780,-0.025
4.785,-0.030
4.790,-0.033
4.795,-0.032
4.800,-0.033
4.805,-0.037
4.810,-0.035
4.815,-0.039
4.820,-0.045
4.825,-0.045
4.830,-0.045
4.835,-0.044
4.840,-0.046
4.845,-0.047
4.850,-0.036
4.855,-0.029
4.860,-0.022
4.865,-0.009
4.870,0.002
4.875,0.013
4.880,0.019
4.885,0.021
4.890,0.022
4.895,0.019
4.900,0.020
4.905,0.025
4.910,0.022
4.915,0.021
4.920,0.021
4.925,0.018
4.930,0.018
4.935,0.017
4.940,0.014
4.945,0.017
4.950,0.026
4.955,0.045
4.960,0.063
4.965,0.055
4.970,-0.006
4.975,-0.146
4.980,-0.347
4.985,-0.549
4.990,-0.694
4.995,-0.714
5.000,-0.610
5.005,-0.442
5.010,-0.254
5.015,-0.138
5.020,-0.092
5.025,-0.046
5.030,0.004
5.035,0.080
5.040,0.158
5.045,0.203
5.050,0.235
5.055,0.250
5.060,0.248
5.065,0.250
5.070,0.249
5.075,0.239
5.080,0.230
5.085,0.223
5.090,0.217
5.095,0.211
5.100,0.203
5.105,0.193
5.110,0.183
5.115,0.170
5.120,0.157
5.125,0.150
5.130,0.145
5.135,0.137
5.140,0.126
5.145,0.117
5.150,0.113
5.155,0.106
5.160,0.095
5.165,0.088
5.170,0.083
5.175,0.078
5.180,0.073
5.185,0.064
5.190,0.056
5.195,0.051
5.200,0.044
5.205,0.040
5.210,0.033
5.215,0.024
5.220,0.024
5.225,0.023
5.230,0.016
5.235,0.010
5.240,0.004
5.245,-0.005
5.250,-0.008
5.255,-0.009
5.260,-0.012
5.265,-0.016
5.270,-0.023
5.275,-0.029
5.280,-0.032
5.285,-0.037
5.290,-0.040
5.295,-0.035
5.300,-0.028
5.305,-0.026
5.310,-0.028
5.315,-0.027
5.320,-0.021
5.325,-0.020
5.330,-0.021
5.335,-0.020
5.340,-0.017
5.345,-0.017
5.350,-0.023
5.355,-0.024
5.360,-0.019
5.365,-0.015
5.370,-0.016
5.375,-0.022
5.380,-0.021
5.385,-0.018
5.390,-0.020
5.395,-0.019
5.400,-0.019
5.405,-0.023
5.410,-0.022
5.415,-0.019
5.420,-0.017
5.425,-0.017
5.430,-0.015
5.435,-0.013
5.440,-0.015
5.445,-0.020
5.450,-0.022
5.455,-0.019
5.460,-0.015
5.465,-0.013
5.470,-0.014
5.475,-0.011
5.480,-0.011
5.485,-0.012
5.490,-0.010
5.495,-0.011
5.500,-0.010
5.505,-0.005
5.510,-0.002
5.515,-0.003
5.520,-0.007
5.525,-0.010
5.530,-0.008
5.535,-0.004
5.540,-0.004
5.545,-0.009
5.550,-0.010
5.555,-0.012
5.560,-0.011
5.565,-0.009
5.570,-0.011
5.575,-0.008
5.580,-0.006
5.585,-0.008
5.590,-0.009
5.595,-0.010
5.600,-0.010
5.605,-0.009
5.610,-0.008
5.615,-0.009
5.620,-0.014
5.625,-0.015
5.630,-0.020
5.635,-0.025
5.640,-0.023
5.645,-0.026
5.650,-0.031
5.655,-0.037
5.660,-0.043
5.665,-0.044
5.670,-0.043
5.675,-0.043
5.680,-0.042
5.685,-0.039
5.690,-0.038
5.695,-0.036
5.700,-0.029
5.705,-0.023
5.710,-0.020
5.715,-0.013
5.720,-0.001
5.725,0.010
5.730,0.020
5.735,0.023
5.740,0.018
5.745,0.016
5.750,0.020
5.755,0.021
5.760,0.020
5.765,0.019
5.770,0.016
5.775,0.013
5.780,0.012
5.785,0.015
5.790,0.018
5.795,0.017
5.800,0.021
5.805,0.039
5.810,0.059
5.815,0.049
5.820,-0.006
5.825,-0.138
5.830,-0.329
5.835,-0.521
5.840,-0.665
5.845,-0.686
5.850,-0.597
5.855,-0.449
5.860,-0.263
5.865,-0.137
5.870,-0.091
5.875,-0.051
5.880,0.001
5.885,0.074
5.890,0.148
5.895,0.190
5.900,0.220
5.905,0.240
5.910,0.239
5.915,0.237
5.920,0.241
5.925,0.237
5.930,0.227
5.935,0.218
5.940,0.210
5.945,0.202
5.950,0.195
5.955,0.187
5.960,0.176
5.965,0.168
5.970,0.160
5.975,0.151
5.980,0.143
5.985,0.135
5.990,0.126
5.995,0.121
6.000,0.114
6.005,0.103
6.010,0.095
6.015,0.086
6.020,0.079
6.025,0.076
6.030,0.070
6.035,0.063
6.040,0.056
6.045,0.048
6.050,0.046
6.055,0.042
6.060,0.033
6.065,0.030
6.070,0.026
6.075,0.019
6.080,0.016
6.085,0.012
6.090,0.009
6.095,0.005
6.100,-0.003
6.105,-0.010
6.110,-0.018
6.115,-0.024
6.120,-0.025
6.125,-0.026
6.130,-0.032
6.135,-0.037
6.140,-0.037
6.145,-0.034
6.150,-0.030
6.155,-0.028
6.160,-0.029
6.165,-0.028
6.170,-0.026
6.175,-0.023
6.180,-0.020
6.185,-0.021
6.190,-0.023
6.195,-0.021
6.200,-0.019
6.205,-0.019
6.210,-0.019
6.215,-0.020
6.220,-0.020
6.225,-0.021
6.230,-0.020
6.235,-0.018
6.240,-0.020
6.245,-0.025
6.250,-0.025
6.255,-0.023
6.260,-0.021
6.265,-0.020
6.270,-0.021
6.275,-0.021
6.280,-0.021
6.285,-0.019
6.290,-0.017
6.295,-0.017
6.300,-0.017
6.305,-0.017
6.310,-0.016
6.315,-0.012
6.320,-0.009
6.325,-0.009
6.330,-0.010
6.335,-0.011
6.340,-0.013
6.345,-0.013
6.350,-0.012
6.355,-0.010
6.360,-0.008
6.365,-0.007
6.370,-0.008
6.375,-0.008
6.380,-0.007
6.385,-0.008
6.390,-0.007
6.395,-0.007
6.400,-0.008
6.405,-0.006
6.410,-0.007
6.415,-0.010
6.420,-0.008
6.425,-0.007
6.430,-0.007
6.435,-0.011
6.440,-0.013
6.445,-0.010
6.450,-0.008
6.455,-0.005
6.460,-0.008
6.465,-0.012
6.470,-0.010
6.475,-0.010
6.480,-0.012
6.485,-0.014
6.490,-0.016
6.495,-0.018
6.500,-0.023
6.505,-0.026
6.510,-0.024
6.515,-0.025
6.520,-0.030
6.525,-0.034
6.530,-0.037
6.535,-0.040
6.540,-0.042
6.545,-0.044
6.550,-0.042
6.555,-0.043
6.560,-0.045
6.565,-0.039
6.570,-0.031
6.575,-0.027
6.580,-0.019
6.585,-0.011
6.590,0.000
6.595,0.012
6.600,0.022
6.605,0.028
6.610,0.028
6.615,0.026
6.620,0.027
6.625,0.026
6.630,0.022
6.635,0.020
6.640,0.021
6.645,0.022
6.650,0.023
6.655,0.021
6.660,0.021
6.665,0.025
6.670,0.033
6.675,0.051
6.680,0.058
6.685,0.040
6.690,-0.026
6.695,-0.175
6.700,-0.380
6.705,-0.586
6.710,-0.730
6.715,-0.748
6.720,-0.674
6.725,-0.539
6.730,-0.356
6.735,-0.218
6.740,-0.153
6.745,-0.098
6.750,-0.023
6.755,0.072
6.760,0.164
6.765,0.223
6.770,0.266
6.775,0.295
6.780,0.296
6.785,0.292
6.790,0.295
6.795,0.289
6.800,0.279
6.805,0.272
6.810,0.262
6.815,0.249
6.820,0.238
6.825,0.232
6.830,0.221
6.835,0.204
6.840,0.194
6.845,0.187
6.850,0.179
6.855,0.172
6.860,0.160
6.865,0.147
6.870,0.139
6.875,0.130
6.880,0.123
6.885,0.118
6.890,0.109
6.895,0.098
6.900,0.088
6.905,0.080
6.910,0.076
6.915,0.071
6.920,0.063
6.925,0.055
6.930,0.049
6.935,0.043
6.940,0.035
6.945,0.027
6.950,0.022
6.955,0.018
6.960,0.012
6.965,0.004
6.970,-0.005
6.975,-0.014
6.980,-0.021
6.985,-0.026
6.990,-0.033
6.995,-0.038
7.000,-0.038
7.005,-0.040
7.010,-0.043
7.015,-0.043
7.020,-0.043
7.025,-0.040
7.030,-0.038
7.035,-0.038
7.040,-0.036
7.045,-0.033
7.050,-0.032
7.055,-0.032
7.060,-0.035
7.065,-0.036
7.070,-0.034
7.075,-0.033
7.080,-0.033
7.085,-0.032
7.090,-0.032
7.095,-0.034
7.100,-0.034
7.105,-0.031
7.110,-0.029
7.115,-0.027
7.120,-0.027
7.125,-0.029
7.130,-0.027
7.135,-0.028
7.140,-0.026
7.145,-0.022
7.150,-0.024
7.155,-0.025
7.160,-0.022
7.165,-0.018
7.170,-0.014
7.175,-0.017
7.180,-0.020
7.185,-0.020
7.190,-0.019
7.195,-0.016
7.200,-0.015
7.205,-0.014
7.210,-0.013
7.215,-0.015
7.220,-0.015
7.225,-0.014
7.230,-0.015
7.235,-0.013
7.240,-0.010
7.245,-0.011
7.250,-0.011
7.255,-0.011
7.260,-0.011
7.265,-0.007
7.270,-0.009
7.275,-0.014
7.280,-0.015
7.285,-0.014
7.290,-0.011
7.295,-0.011
7.300,-0.014
7.305,-0.014
7.310,-0.016
7.315,-0.016
7.320,-0.012
7.325,-0.008
7.330,-0.008
7.335,-0.014
7.340,-0.015
7.345,-0.012
7.350,-0.010
7.355,-0.012
7.360,-0.019
7.365,-0.024
7.370,-0.027
7.375,-0.030
7.380,-0.028
7.385,-0.028
7.390,-0.034
7.395,-0.040
7.400,-0.043
7.405,-0.045
7.410,-0.047
7.415,-0.051
7.420,-0.053
7.425,-0.050
7.430,-0.045
7.435,-0.040
7.440,-0.035
7.445,-0.032
7.450,-0.027
7.455,-0.017
7.460,-0.001
7.465,0.012
7.470,0.020
7.475,0.023
7.480,0.019
7.485,0.015
7.490,0.017
7.495,0.019
7.500,0.020
7.505,0.020
7.510,0.019
7.515,0.020
7.520,0.021
7.525,0.019
7.530,0.019
7.535,0.020
7.540,0.029
7.545,0.048
7.550,0.057
7.555,0.040
7.560,-0.025
7.565,-0.172
7.570,-0.382
7.575,-0.596
7.580,-0.742
7.585,-0.764
7.590,-0.692
7.595,-0.551
7.600,-0.363
7.605,-0.223
7.610,-0.156
7.615,-0.096
7.620,-0.014
7.625,0.084
7.630,0.175
7.635,0.237
7.640,0.282
7.645,0.307
7.650,0.304
7.655,0.299
7.660,0.303
7.665,0.298
7.670,0.286
7.675,0.280
7.680,0.272
7.685,0.259
7.690,0.248
7.695,0.238
7.700,0.228
7.705,0.216
7.710,0.206
7.715,0.198
7.720,0.187
7.725,0.176
7.730,0.168
7.735,0.159
7.740,0.146
7.745,0.135
7.750,0.127
7.755,0.121
7.760,0.116
7.765,0.108
7.770,0.099
7.775,0.090
7.780,0.080
7.785,0.071
7.790,0.065
7.795,0.060
7.800,0.053
7.805,0.049
7.810,0.042
7.815,0.034
7.820,0.030
7.825,0.024
7.830,0.015
7.835,0.004
7.840,-0.004
7.845,-0.009
7.850,-0.015
7.855,-0.023
7.860,-0.028
7.865,-0.034
7.870,-0.040
7.875,-0.044
7.880,-0.044
7.885,-0.042
7.890,-0.043
7.895,-0.041
7.900,-0.038
7.905,-0.034
7.910,-0.029
7.915,-0.031
7.920,-0.036
7.925,-0.038
7.930,-0.043
7.935,-0.042
7.940,-0.037
7.945,-0.042
7.950,-0.044
7.955,-0.043
7.960,-0.038
7.965,-0.029
7.970,-0.020
7.975,-0.023
7.980,-0.030
7.985,-0.034
7.990,-0.039
7.995,-0.032
8.000,-0.026
8.005,-0.024
8.010,-0.016
8.015,-0.007
8.020,0.007
8.025,0.006
8.030,-0.002
8.035,-0.008
8.040,-0.021
8.045,-0.036
8.050,-0.048
8.055,-0.042
8.060,-0.028
8.065,-0.024
8.070,-0.029
8.075,-0.030
8.080,-0.029
8.085,-0.027
8.090,-0.015
8.095,-0.014
8.100,-0.017
8.105,-0.016
8.110,-0.025
8.115,-0.031
8.120,-0.027
8.125,-0.014
8.130,0.019
8.135,0.025
8.140,-0.010
8.145,-0.041
8.150,-0.053
8.155,-0.034
8.160,-0.002
8.165,-0.003
8.170,-0.024
8.175,-0.012
8.180,-0.005
8.185,-0.033
8.190,-0.047
8.195,-0.035
8.200,-0.008
8.205,-0.010
8.210,-0.036
8.215,-0.028
8.220,-0.001
8.225,-0.006
8.230,-0.026
8.235,-0.022
8.240,-0.008
8.245,0.001
8.250,-0.006
8.255,-0.045
8.260,-0.058
8.265,-0.026
8.270,-0.043
8.275,-0.084
8.280,-0.075
8.285,-0.050
8.290,-0.030
8.295,-0.054
8.300,-0.103
8.305,-0.101
8.310,-0.052
8.315,-0.013
8.320,-0.008
8.325,-0.009
8.330,-0.020
8.335,-0.037
8.340,-0.042
8.345,-0.033
8.350,0.004
8.355,0.043
8.360,0.041
8.365,0.020
8.370,0.023
8.375,0.041
8.380,0.028
8.385,-0.002
8.390,-0.013
8.395,-0.004
8.400,0.014
8.405,0.029
8.410,0.035
8.415,0.025
8.420,0.031
8.425,0.050
8.430,0.066
8.435,0.072
8.440,0.051
8.445,0.011
8.450,-0.053
8.455,-0.193
8.460,-0.405
8.465,-0.626
8.470,-0.766
8.475,-0.766
8.480,-0.680
8.485,-0.530
8.490,-0.335
8.495,-0.177
8.500,-0.086
8.505,-0.038
8.510,0.018
8.515,0.112
8.520,0.199
8.525,0.245
8.530,0.271
8.535,0.302
8.540,0.307
8.545,0.295
8.550,0.307
8.555,0.305
8.560,0.269
8.565,0.233
8.570,0.247
8.575,0.284
8.580,0.279
8.585,0.241
8.590,0.204
8.595,0.220
8.600,0.245
8.605,0.216
8.610,0.174
8.615,0.158
8.620,0.158
8.625,0.155
8.630,0.153
8.635,0.142
8.640,0.126
8.645,0.123
8.650,0.108
8.655,0.096
8.660,0.102
8.665,0.085
8.670,0.071
8.675,0.075
8.680,0.075
8.685,0.073
8.690,0.056
8.695,0.043
8.700,0.032
8.705,0.019
8.710,0.003
8.715,0.007
8.720,0.039
8.725,0.033
8.730,-0.006
8.735,-0.037
8.740,-0.049
8.745,-0.038
8.750,-0.019
8.755,-0.004
8.760,-0.008
8.765,-0.025
8.770,-0.044
8.775,-0.051
8.780,-0.043
8.785,-0.028
8.790,-0.017
8.795,-0.017
8.800,-0.029
8.805,-0.053
8.810,-0.040
8.815,-0.009
8.820,-0.005
8.825,-0.014
8.830,-0.040
8.835,-0.054
8.840,-0.025
8.845,0.012
8.850,0.018
8.855,-0.007
8.860,-0.029
8.865,-0.035
8.870,-0.023
8.875,-0.011
8.880,-0.014
8.885,-0.011
8.890,-0.014
8.895,-0.037
8.900,-0.042
8.905,-0.023
8.910,-0.015
8.915,-0.027
8.920,-0.026
8.925,-0.013
8.930,-0.018
8.935,-0.019
8.940,-0.039
8.945,-0.040
8.950,0.009
8.955,0.014
8.960,-0.003
8.965,-0.020
8.970,-0.050
8.975,-0.045
8.980,-0.024
8.985,-0.006
8.990,-0.002
8.995,-0.015
9.000,-0.019
9.005,-0.009
9.010,0.018
9.015,0.004
9.020,-0.035
9.025,-0.028
9.030,-0.007
9.035,-0.017
9.040,-0.052
9.045,-0.058
9.050,-0.045
9.055,-0.030
9.060,-0.015
9.065,-0.014
9.070,-0.011
9.075,-0.028
9.080,-0.041
9.085,0.000
9.090,0.027
9.095,0.008
9.100,-0.003
9.105,-0.008
9.110,-0.020
9.115,-0.033
9.120,-0.058
9.125,-0.057
9.130,-0.028
9.135,-0.017
9.140,-0.023
9.145,-0.038
9.150,-0.036
9.155,-0.018
9.160,-0.030
9.165,-0.071
9.170,-0.080
9.175,-0.058
9.180,-0.042
9.185,-0.040
9.190,-0.042
9.195,-0.032
9.200,-0.024
9.205,-0.009
9.210,0.024
9.215,0.049
9.220,0.054
9.225,0.034
9.230,0.007
9.235,-0.005
9.240,0.001
9.245,0.017
9.250,0.021
9.255,0.022
9.260,0.026
9.265,0.011
9.270,0.013
9.275,0.035
9.280,0.044
9.285,0.044
9.290,0.032
9.295,0.035
9.300,0.061
9.305,0.055
9.310,-0.005
9.315,-0.109
9.320,-0.286
9.325,-0.502
9.330,-0.670
9.335,-0.728
9.340,-0.659
9.345,-0.511
9.350,-0.335
9.355,-0.216
9.360,-0.162
9.365,-0.107
9.370,-0.040
9.375,0.051
9.380,0.140
9.385,0.182
9.390,0.216
9.395,0.257
9.400,0.245
9.405,0.226
9.410,0.240
9.415,0.254
9.420,0.266
9.425,0.247
9.430,0.235
9.435,0.243
9.440,0.209
9.445,0.174
9.450,0.176
9.455,0.181
9.460,0.177
9.465,0.158
9.470,0.157
9.475,0.178
9.480,0.161
9.485,0.139
9.490,0.135
9.495,0.129
9.500,0.122
9.505,0.104
9.510,0.088
9.515,0.087
9.520,0.090
9.525,0.075
9.530,0.051
9.535,0.061
9.540,0.076
9.545,0.070
9.550,0.050
9.555,0.032
9.560,0.050
9.565,0.055
9.570,0.035
9.575,0.014
9.580,-0.005
9.585,0.001
9.590,-0.005
9.595,-0.010
9.600,-0.007
9.605,-0.023
9.610,-0.030
9.615,-0.036
9.620,-0.053
9.625,-0.066
9.630,-0.068
9.635,-0.045
9.640,-0.020
9.645,-0.031
9.650,-0.049
9.655,-0.044
9.660,-0.042
9.665,-0.042
9.670,-0.042
9.675,-0.051
9.680,-0.039
9.685,-0.034
9.690,-0.051
9.695,-0.056
9.700,-0.050
9.705,-0.030
9.710,-0.011
9.715,-0.028
9.720,-0.057
9.725,-0.053
9.730,-0.024
9.735,-0.017
9.740,-0.031
9.745,-0.045
9.750,-0.057
9.755,-0.058
9.760,-0.033
9.765,-0.010
9.770,-0.017
9.775,-0.021
9.780,-0.013
9.785,-0.015
9.790,-0.008
9.795,-0.004
9.800,-0.017
9.805,-0.023
9.810,-0.026
9.815,-0.014
9.820,0.000
9.825,-0.011
9.830,-0.026
9.835,-0.022
9.840,-0.004
9.845,-0.003
9.850,-0.013
9.855,-0.015
9.860,-0.015
9.865,-0.009
9.870,-0.006
9.875,-0.017
9.880,-0.025
9.885,-0.015
9.890,-0.006
9.895,0.008
9.900,0.021
9.905,0.025
9.910,0.019
9.915,-0.008
9.920,-0.009
9.925,-0.002
9.930,-0.018
9.935,-0.010
9.940,0.006
9.945,0.000
9.950,-0.002
9.955,0.002
9.960,0.004
9.965,0.008
9.970,-0.001
9.975,-0.005
9.980,0.008
9.985,0.008
9.990,0.005
9.995,0.013
10.000,0.008
10.005,-0.014
10.010,-0.042
10.015,-0.041
10.020,-0.018
10.025,-0.010
10.030,-0.012
10.035,-0.019
10.040,-0.037
10.045,-0.044
10.050,-0.044
10.055,-0.057
10.060,-0.043
10.065,-0.021
10.070,-0.027
10.075,-0.028
10.080,-0.024
10.085,-0.022
10.090,-0.010
10.095,0.002
10.100,0.003
10.105,0.016
10.110,0.034
10.115,0.040
10.120,0.056
10.125,0.050
10.130,0.022
10.135,0.002
10.140,0.007
10.145,0.033
10.150,0.033
10.155,0.029
10.160,0.044
10.165,0.043
10.170,0.021
10.175,0.013
10.180,0.035
10.185,0.065
10.190,0.062
10.195,0.006
10.200,-0.134
10.205,-0.340
10.210,-0.560
10.215,-0.720
10.220,-0.739
10.225,-0.662
10.230,-0.536
10.235,-0.365
10.240,-0.218
10.245,-0.138
10.250,-0.086
10.255,-0.024
10.260,0.063
10.265,0.156
10.270,0.219
10.275,0.250
10.280,0.272
10.285,0.294
10.290,0.293
10.295,0.278
10.300,0.276
10.305,0.267
10.310,0.262
10.315,0.265
10.320,0.245
10.325,0.227
10.330,0.224
10.335,0.223
10.340,0.220
10.345,0.195
10.350,0.162
10.355,0.164
10.360,0.180
10.365,0.170
10.370,0.161
10.375,0.145
10.380,0.120
10.385,0.107
10.390,0.097
10.395,0.098
10.400,0.112
10.405,0.104
10.410,0.086
10.415,0.079
10.420,0.066
10.425,0.064
10.430,0.066
10.435,0.053
10.440,0.049
10.445,0.056
10.450,0.042
10.455,0.008
10.460,-0.001
10.465,0.013
10.470,0.009
10.475,-0.014
10.480,-0.026
10.485,-0.011
10.490,-0.011
10.495,-0.028
10.500,-0.037
10.505,-0.038
10.510,-0.037
10.515,-0.048
10.520,-0.050
10.525,-0.058
10.530,-0.066
10.535,-0.050
10.540,-0.051
10.545,-0.065
10.550,-0.057
10.555,-0.044
10.560,-0.031
10.565,-0.035
10.570,-0.051
10.575,-0.032
10.580,-0.015
10.585,-0.033
10.590,-0.044
10.595,-0.046
10.600,-0.042
10.605,-0.040
10.610,-0.044
10.615,-0.039
10.620,-0.030
10.625,-0.033
10.630,-0.040
10.635,-0.028
10.640,-0.026
10.645,-0.031
10.650,-0.021
10.655,-0.017
10.660,-0.021
10.665,-0.026
10.670,-0.026
10.675,-0.022
10.680,-0.013
10.685,-0.016
10.690,-0.032
10.695,-0.034
10.700,-0.032
10.705,-0.013
10.710,0.005
10.715,0.005
10.720,0.002
10.725,-0.016
10.730,-0.032
10.735,-0.029
10.740,-0.020
10.745,-0.004
10.750,-0.001
10.755,-0.008
10.760,-0.009
10.765,-0.015
10.770,-0.021
10.775,-0.020
10.780,-0.013
10.785,-0.017
10.790,-0.017
10.795,0.000
10.800,-0.003
10.805,-0.012
10.810,-0.017
10.815,-0.010
10.820,0.007
10.825,-0.002
10.830,-0.018
10.835,-0.020
10.840,-0.014
10.845,-0.002
10.850,-0.001
10.855,-0.014
10.860,-0.023
10.865,-0.020
10.870,-0.007
10.875,-0.012
10.880,-0.030
10.885,-0.013
10.890,-0.007
10.895,-0.023
10.900,-0.031
10.905,-0.040
10.910,-0.031
10.915,-0.027
10.920,-0.040
10.925,-0.032
10.930,-0.011
10.935,-0.023
10.940,-0.043
10.945,-0.055
10.950,-0.070
10.955,-0.057
10.960,-0.034
10.965,-0.038
10.970,-0.038
10.975,-0.016
10.980,0.004
10.985,0.011
10.990,0.014
10.995,0.020
11.000,0.042
11.005,0.050
11.010,0.034
11.015,0.020
11.020,0.018
11.025,0.025
11.030,0.028
11.035,0.022
11.040,0.018
11.045,0.020
11.050,0.031
11.055,0.023
11.060,0.001
11.065,0.012
11.070,0.048
11.075,0.069
11.080,0.028
11.085,-0.110
11.090,-0.313
11.095,-0.535
11.100,-0.712
11.105,-0.751
11.110,-0.679
11.115,-0.555
11.120,-0.399
11.125,-0.268
11.130,-0.186
11.135,-0.114
11.140,-0.033
11.145,0.051
11.150,0.138
11.155,0.212
11.160,0.260
11.165,0.286
11.170,0.297
11.175,0.302
11.180,0.305
11.185,0.293
11.190,0.270
11.195,0.266
11.200,0.271
11.205,0.261
11.210,0.255
11.215,0.239
11.220,0.216
11.225,0.210
11.230,0.205
11.235,0.199
11.240,0.182
11.245,0.159
11.250,0.154
11.255,0.156
11.260,0.155
11.265,0.149
11.270,0.125
11.275,0.101
11.280,0.110
11.285,0.121
11.290,0.115
11.295,0.100
11.300,0.087
11.305,0.084
11.310,0.078
11.315,0.072
11.320,0.068
11.325,0.050
11.330,0.028
11.335,0.031
11.340,0.033
11.345,0.019
11.350,0.016
11.355,0.022
11.360,0.017
11.365,-0.001
11.370,-0.028
11.375,-0.042
11.380,-0.040
11.385,-0.040
11.390,-0.038
11.395,-0.035
11.400,-0.050
11.405,-0.076
11.410,-0.067
11.415,-0.039
11.420,-0.031
11.425,-0.040
11.430,-0.058
11.435,-0.066
11.440,-0.050
11.445,-0.041
11.450,-0.047
11.455,-0.044
11.460,-0.036
11.465,-0.030
11.470,-0.041
11.475,-0.053
11.480,-0.042
11.485,-0.036
11.490,-0.046
11.495,-0.052
11.500,-0.049
11.505,-0.039
11.510,-0.031
11.515,-0.021
11.520,-0.007
11.525,-0.015
11.530,-0.033
11.535,-0.043
11.540,-0.026
11.545,-0.013
11.550,-0.025
11.555,-0.025
11.560,-0.024
11.565,-0.027
11.570,-0.015
11.575,-0.003
11.580,-0.014
11.585,-0.029
11.590,-0.035
11.595,-0.023
11.600,-0.003
11.605,-0.004
11.610,-0.011
11.615,-0.018
11.620,-0.024
11.625,-0.017
11.630,-0.014
11.635,-0.011
11.640,-0.009
11.645,-0.020
11.650,-0.018
11.655,-0.011
11.660,-0.015
11.665,-0.013
11.670,-0.019
11.675,-0.026
11.680,0.006
11.685,0.021
11.690,-0.012
11.695,-0.033
11.700,-0.023
11.705,-0.006
11.710,-0.003
11.715,-0.014
11.720,-0.016
11.725,-0.016
11.730,-0.025
11.735,-0.014
11.740,0.002
11.745,-0.006
11.750,-0.019
11.755,-0.018
11.760,-0.006
11.765,-0.010
11.770,-0.015
11.775,-0.001
11.780,-0.007
11.785,-0.024
11.790,-0.034
11.795,-0.028
11.800,-0.012
11.805,-0.026
11.810,-0.043
11.815,-0.041
11.820,-0.044
11.825,-0.038
11.830,-0.039
11.835,-0.057
11.840,-0.064
11.845,-0.060
11.850,-0.042
11.855,-0.018
11.860,-0.013
11.865,-0.013
11.870,-0.005
11.875,-0.001
11.880,0.006
11.885,0.021
11.890,0.043
11.895,0.044
11.900,0.021
11.905,0.017
11.910,0.026
11.915,0.023
11.920,0.021
11.925,0.031
11.930,0.028
11.935,0.013
11.940,0.004
11.945,0.016
11.950,0.042
11.955,0.057
11.960,0.065
11.965,0.065
11.970,0.032
11.975,-0.064
11.980,-0.219
11.985,-0.416
11.990,-0.623
11.995,-0.737
12.000,-0.728
12.005,-0.636
12.010,-0.484
12.015,-0.327
12.020,-0.215
12.025,-0.148
12.030,-0.090
12.035,0.001
12.040,0.108
12.045,0.196
12.050,0.253
12.055,0.282
12.060,0.300
12.065,0.291
12.070,0.281
12.075,0.302
12.080,0.294
12.085,0.269
12.090,0.265
12.095,0.259
12.100,0.262
12.105,0.252
12.110,0.218
12.115,0.219
12.120,0.232
12.125,0.216
12.130,0.194
12.135,0.176
12.140,0.159
12.145,0.158
12.150,0.157
12.155,0.138
12.160,0.123
12.165,0.125
12.170,0.136
12.175,0.117
12.180,0.083
12.185,0.086
12.190,0.096
12.195,0.088
12.200,0.079
12.205,0.074
12.210,0.080
12.215,0.075
12.220,0.048
12.225,0.040
12.230,0.046
12.235,0.039
12.240,0.033
12.245,0.032
12.250,0.007
12.255,-0.016
12.260,-0.011
12.265,-0.009
12.270,-0.023
12.275,-0.051
12.280,-0.073
12.285,-0.059
12.290,-0.051
12.295,-0.050
12.300,-0.038
12.305,-0.038
12.310,-0.053
12.315,-0.061
12.320,-0.051
12.325,-0.045
12.330,-0.054
12.335,-0.077
12.340,-0.072
12.345,-0.035
12.350,-0.046
12.355,-0.071
12.360,-0.059
12.365,-0.042
12.370,-0.043
12.375,-0.049
12.380,-0.041
12.385,-0.028
12.390,-0.030
12.395,-0.043
12.400,-0.025
12.405,-0.005
12.410,-0.020
12.415,-0.029
12.420,-0.042
12.425,-0.045
12.430,-0.023
12.435,-0.019
12.440,-0.019
12.445,-0.023
12.450,-0.036
12.455,-0.026
12.460,-0.011
12.465,-0.013
12.470,-0.025
12.475,-0.037
12.480,-0.030
12.485,-0.004
12.490,-0.001
12.495,-0.020
12.500,-0.030
12.505,-0.029
12.510,-0.019
12.515,-0.013
12.520,-0.005
12.525,0.007
12.530,0.003
12.535,-0.024
12.540,-0.032
12.545,-0.021
12.550,-0.012
12.555,0.003
12.560,0.000
12.565,-0.008
12.570,-0.010
12.575,-0.022
12.580,-0.024
12.585,-0.020
12.590,-0.021
12.595,-0.016
12.600,-0.017
12.605,-0.006
12.610,0.012
12.615,0.009
12.620,-0.005
12.625,-0.025
12.630,-0.021
12.635,0.001
12.640,0.000
12.645,-0.011
12.650,-0.014
12.655,-0.019
12.660,-0.015
12.665,-0.013
12.670,-0.011
12.675,-0.002
12.680,-0.005
12.685,-0.012
12.690,-0.018
12.695,-0.028
12.700,-0.029
12.705,-0.019
12.710,-0.022
12.715,-0.040
12.720,-0.052
12.725,-0.051
12.730,-0.054
12.735,-0.056
12.740,-0.046
12.745,-0.042
12.750,-0.038
12.755,-0.037
12.760,-0.036
12.765,-0.020
12.770,0.001
12.775,0.013
12.780,0.015
12.785,0.019
12.790,0.020
12.795,0.025
12.800,0.019
12.805,0.009
12.810,0.028
12.815,0.046
12.820,0.037
12.825,0.033
12.830,0.033
12.835,0.026
12.840,0.019
12.845,0.021
12.850,0.038
12.855,0.049
12.860,0.049
12.865,0.047
12.870,0.039
12.875,0.003
12.880,-0.124
12.885,-0.319
12.890,-0.538
12.895,-0.716
12.900,-0.748
12.905,-0.683
12.910,-0.560
12.915,-0.377
12.920,-0.233
12.925,-0.163
12.930,-0.104
12.935,-0.036
12.940,0.053
12.945,0.147
12.950,0.216
12.955,0.265
12.960,0.286
12.965,0.284
12.970,0.290
12.975,0.306
12.980,0.302
12.985,0.277
12.990,0.271
12.995,0.275
13.000,0.264
13.005,0.252
13.010,0.235
13.015,0.223
13.020,0.222
13.025,0.211
13.030,0.193
13.035,0.181
13.040,0.181
13.045,0.176
13.050,0.162
13.055,0.144
13.060,0.127
13.065,0.117
13.070,0.105
13.075,0.112
13.080,0.123
13.085,0.113
13.090,0.101
13.095,0.087
13.100,0.079
13.105,0.077
13.110,0.075
13.115,0.075
13.120,0.061
13.125,0.043
13.130,0.038
13.135,0.037
13.140,0.023
13.145,0.018
13.150,0.032
13.155,0.024
13.160,0.012
13.165,-0.013
13.170,-0.043
13.175,-0.037
13.180,-0.032
13.185,-0.038
13.190,-0.050
13.195,-0.069
13.200,-0.069
13.205,-0.054
13.210,-0.056
13.215,-0.070
13.220,-0.072
13.225,-0.062
13.230,-0.055
13.235,-0.059
13.240,-0.059
13.245,-0.059
13.250,-0.061
13.255,-0.043
13.260,-0.033
13.265,-0.053
13.270,-0.061
13.275,-0.051
13.280,-0.042
13.285,-0.038
13.290,-0.043
13.295,-0.033
13.300,-0.027
13.305,-0.056
13.310,-0.059
13.315,-0.020
13.320,-0.005
13.325,-0.027
13.330,-0.042
13.335,-0.024
13.340,-0.013
13.345,-0.034
13.350,-0.043
13.355,-0.033
13.360,-0.021
13.365,-0.012
13.370,-0.020
13.375,-0.030
13.380,-0.025
13.385,-0.012
13.390,-0.008
13.395,-0.019
13.400,-0.015
13.405,-0.005
13.410,-0.017
13.415,-0.022
13.420,-0.006
13.425,-0.013
13.430,-0.036
13.435,-0.045
13.440,-0.034
13.445,0.006
13.450,0.018
13.455,-0.003
13.460,-0.004
13.465,-0.014
13.470,-0.031
13.475,-0.018
13.480,-0.003
13.485,-0.003
13.490,-0.004
13.495,-0.015
13.500,-0.028
13.505,-0.014
13.510,-0.005
13.515,-0.014
13.520,-0.006
13.525,-0.006
13.530,-0.014
13.535,-0.009
13.540,-0.007
13.545,-0.005
13.550,-0.010
13.555,-0.022
13.560,-0.021
13.565,-0.008
13.570,-0.005
13.575,-0.013
13.580,0.000
13.585,0.004
13.590,-0.014
13.595,-0.026
13.600,-0.023
13.605,-0.009
13.610,-0.020
13.615,-0.033
13.620,-0.032
13.625,-0.039
13.630,-0.038
13.635,-0.051
13.640,-0.066
13.645,-0.057
13.650,-0.054
13.655,-0.042
13.660,-0.023
13.665,-0.028
13.670,-0.039
13.675,-0.022
13.680,0.010
13.685,0.016
13.690,0.020
13.695,0.038
13.700,0.047
13.705,0.039
13.710,0.018
13.715,0.016
13.720,0.040
13.725,0.040
13.730,0.015
13.735,0.023
13.740,0.038
13.745,0.033
13.750,0.026
13.755,0.017
13.760,0.022
13.765,0.029
13.770,0.045
13.775,0.063
13.780,0.023
13.785,-0.101
13.790,-0.302
13.795,-0.530
13.800,-0.706
13.805,-0.754
13.810,-0.681
13.815,-0.542
13.820,-0.369
13.825,-0.230
13.830,-0.156
13.835,-0.102
13.840,-0.036
13.845,0.067
13.850,0.171
13.855,0.218
13.860,0.249
13.865,0.294
13.870,0.307
13.875,0.301
13.880,0.299
13.885,0.280
13.890,0.274
13.895,0.269
13.900,0.250
13.905,0.242
13.910,0.233
13.915,0.233
13.920,0.219
13.925,0.205
13.930,0.213
13.935,0.211
13.940,0.193
13.945,0.172
13.950,0.162
13.955,0.159
13.960,0.144
13.965,0.123
13.970,0.125
13.975,0.129
13.980,0.101
13.985,0.093
13.990,0.095
13.995,0.087
14.000,0.090
14.005,0.088
14.010,0.077
14.015,0.071
14.020,0.074
14.025,0.081
14.030,0.078
14.035,0.061
14.040,0.037
14.045,0.034
14.050,0.040
14.055,0.016
14.060,-0.010
14.065,-0.015
14.070,-0.020
14.075,-0.027
14.080,-0.039
14.085,-0.048
14.090,-0.036
14.095,-0.034
14.100,-0.054
14.105,-0.071
14.110,-0.072
14.115,-0.072
14.120,-0.079
14.125,-0.073
14.130,-0.058
14.135,-0.054
14.140,-0.057
14.145,-0.063
14.150,-0.061
14.155,-0.052
14.160,-0.059
14.165,-0.054
14.170,-0.039
14.175,-0.032
14.180,-0.029
14.185,-0.046
14.190,-0.052
14.195,-0.029
14.200,-0.027
14.205,-0.038
14.210,-0.050
14.215,-0.055
14.220,-0.034
14.225,-0.025
14.230,-0.037
14.235,-0.035
14.240,-0.033
14.245,-0.037
14.250,-0.030
14.255,-0.019
14.260,-0.021
14.265,-0.027
14.270,-0.028
14.275,-0.018
14.280,-0.003
14.285,-0.010
14.290,-0.032
14.295,-0.032
14.300,-0.018
14.305,-0.013
14.310,-0.017
14.315,-0.023
14.320,-0.031
14.325,-0.022
14.330,-0.007
14.335,-0.011
14.340,-0.016
14.345,-0.021
14.350,-0.018
14.355,0.007
14.360,0.013
14.365,-0.012
14.370,-0.027
14.375,-0.026
14.380,-0.016
14.385,-0.007
14.390,-0.010
14.395,-0.010
14.400,-0.003
14.405,-0.004
14.410,-0.005
14.415,-0.006
14.420,-0.005
14.425,-0.002
14.430,-0.014
14.435,-0.030
14.440,-0.032
14.445,-0.015
14.450,0.004
14.455,0.006
14.460,0.006
14.465,0.006
14.470,-0.002
14.475,-0.015
14.480,-0.027
14.485,-0.019
14.490,-0.006
14.495,-0.001
14.500,-0.006
14.505,-0.018
14.510,-0.013
14.515,-0.012
14.520,-0.029
14.525,-0.032
14.530,-0.037
14.535,-0.053
14.540,-0.056
14.545,-0.052
14.550,-0.056
14.555,-0.062
14.560,-0.055
14.565,-0.033
14.570,-0.014
14.575,-0.018
14.580,-0.011
14.585,0.016
14.590,0.008
14.595,-0.010
14.600,0.012
14.605,0.024
14.610,0.012
14.615,0.005
14.620,0.023
14.625,0.047
14.630,0.046
14.635,0.034
14.640,0.015
14.645,0.024
14.650,0.034
14.655,0.023
14.660,0.032
14.665,0.045
14.670,0.045
14.675,0.053
14.680,0.068
14.685,0.065
14.690,0.007
14.695,-0.124
14.700,-0.325
14.705,-0.552
14.710,-0.712
14.715,-0.739
14.720,-0.649
14.725,-0.504
14.730,-0.351
14.735,-0.237
14.740,-0.145
14.745,-0.055
14.750,0.011
14.755,0.090
14.760,0.169
14.765,0.214
14.770,0.243
14.775,0.261
14.780,0.259
14.785,0.262
14.790,0.280
14.795,0.291
14.800,0.292
14.805,0.273
14.810,0.257
14.815,0.252
14.820,0.254
14.825,0.259
14.830,0.232
14.835,0.205
14.840,0.186
14.845,0.161
14.850,0.160
14.855,0.173
14.860,0.168
14.865,0.147
14.870,0.120
14.875,0.114
14.880,0.130
14.885,0.133
14.890,0.126
14.895,0.100
14.900,0.065
14.905,0.071
14.910,0.107
14.915,0.124
14.920,0.116
14.925,0.105
14.930,0.096
14.935,0.082
14.940,0.035
14.945,-0.007
14.950,0.002
14.955,0.013
14.960,0.024
14.965,0.054
14.970,0.070
14.975,0.051
14.980,0.004
14.985,-0.019
14.990,-0.019
14.995,-0.045
15.000,-0.058
15.005,-0.060
15.010,-0.078
15.015,-0.076
15.020,-0.069
15.025,-0.068
15.030,-0.058
15.035,-0.063
15.040,-0.065
15.045,-0.056
15.050,-0.059
15.055,-0.061
15.060,-0.059
15.065,-0.052
15.070,-0.040
15.075,-0.053
15.080,-0.067
15.085,-0.062
15.090,-0.058
15.095,-0.051
15.100,-0.046
15.105,-0.045
15.110,-0.044
15.115,-0.050
15.120,-0.057
15.125,-0.042
15.130,-0.031
15.135,-0.039
15.140,-0.041
15.145,-0.042
15.150,-0.042
15.155,-0.043
15.160,-0.046
15.165,-0.042
15.170,-0.047
15.175,-0.039
15.180,-0.025
15.185,-0.029
15.190,-0.029
15.195,-0.018
15.200,-0.020
15.205,-0.023
15.210,-0.012
15.215,-0.009
15.220,-0.010
15.225,-0.020
15.230,-0.031
15.235,-0.020
15.240,-0.012
15.245,-0.024
15.250,-0.028
15.255,-0.025
15.260,-0.019
15.265,-0.020
15.270,-0.031
15.275,-0.022
15.280,-0.007
15.285,-0.002
15.290,-0.012
15.295,-0.026
15.300,-0.019
15.305,-0.006
15.310,-0.005
15.315,-0.011
15.320,-0.014
15.325,-0.012
15.330,-0.006
15.335,-0.014
15.340,-0.038
15.345,-0.033
15.350,-0.017
15.355,-0.009
15.360,0.000
15.365,-0.005
15.370,-0.003
15.375,0.004
15.380,-0.006
15.385,-0.008
15.390,-0.007
15.395,-0.017
15.400,-0.014
15.405,-0.006
15.410,-0.017
15.415,-0.025
15.420,-0.016
15.425,-0.005
15.430,-0.004
15.435,-0.016
15.440,-0.033
15.445,-0.033
15.450,-0.032
15.455,-0.039
15.460,-0.042
15.465,-0.048
15.470,-0.036
15.475,-0.018
15.480,-0.010
15.485,0.008
15.490,0.020
15.495,0.025
15.500,0.033
15.505,0.027
15.510,0.029
15.515,0.041
15.520,0.043
15.525,0.043
15.530,0.045
15.535,0.051
15.540,0.053
15.545,0.046
15.550,0.039
15.555,0.043
15.560,0.053
15.565,0.043
15.570,0.024
15.575,0.020
15.580,0.034
15.585,0.054
15.590,0.055
15.595,0.000
15.600,-0.136
15.605,-0.339
15.610,-0.554
15.615,-0.700
15.620,-0.727
15.625,-0.643
15.630,-0.501
15.635,-0.350
15.640,-0.234
15.645,-0.173
15.650,-0.102
15.655,-0.012
15.660,0.070
15.665,0.148
15.670,0.197
15.675,0.242
15.680,0.285
15.685,0.292
15.690,0.284
15.695,0.276
15.700,0.273
15.705,0.268
15.710,0.252
15.715,0.238
15.720,0.230
15.725,0.223
15.730,0.216
15.735,0.208
15.740,0.193
15.745,0.189
15.750,0.190
15.755,0.170
15.760,0.159
15.765,0.151
15.770,0.134
15.775,0.139
15.780,0.154
15.785,0.146
15.790,0.113
15.795,0.083
15.800,0.069
15.805,0.072
15.810,0.095
15.815,0.098
15.820,0.077
15.825,0.069
15.830,0.066
15.835,0.077
15.840,0.083
15.845,0.059
15.850,0.044
15.855,0.046
15.860,0.052
15.865,0.047
15.870,0.017
15.875,-0.018
15.880,-0.037
15.885,-0.033
15.890,-0.025
15.895,-0.036
15.900,-0.045
15.905,-0.041
15.910,-0.051
15.915,-0.077
15.920,-0.085
15.925,-0.070
15.930,-0.060
15.935,-0.060
15.940,-0.067
15.945,-0.064
15.950,-0.064
15.955,-0.078
15.960,-0.072
15.965,-0.062
15.970,-0.062
15.975,-0.038
15.980,-0.020
15.985,-0.024
15.990,-0.040
15.995,-0.060
16.000,-0.043
16.005,-0.035
16.010,-0.062
16.015,-0.063
16.020,-0.038
16.025,-0.024
16.030,-0.026
16.035,-0.030
16.040,-0.033
16.045,-0.039
16.050,-0.044
16.055,-0.042
16.060,-0.034
16.065,-0.026
16.070,-0.026
16.075,-0.032
16.080,-0.018
16.085,-0.009
16.090,-0.014
16.095,-0.010
16.100,-0.014
16.105,-0.026
16.110,-0.028
16.115,-0.004
16.120,0.008
16.125,-0.004
16.130,-0.006
16.135,-0.009
16.140,-0.010
16.145,-0.009
16.150,-0.007
16.155,0.008
16.160,0.003
16.165,-0.021
16.170,-0.023
16.175,0.002
16.180,0.019
16.185,0.003
16.190,-0.014
16.195,-0.006
16.200,0.003
16.205,0.008
16.210,0.003
16.215,-0.012
16.220,-0.010
16.225,0.003
16.230,0.003
16.235,0.003
16.240,0.006
16.245,-0.006
16.250,-0.007
16.255,0.004
16.260,0.004
16.265,0.003
16.270,-0.010
16.275,-0.029
16.280,-0.029
16.285,-0.011
16.290,-0.007
16.295,-0.013
16.300,-0.020
16.305,-0.022
16.310,-0.014
16.315,-0.020
16.320,-0.019
16.325,-0.004
16.330,-0.005
16.335,-0.023
16.340,-0.032
16.345,-0.045
16.350,-0.068
16.355,-0.070
16.360,-0.061
16.365,-0.052
16.370,-0.046
16.375,-0.039
16.380,-0.017
16.385,-0.002
16.390,0.001
16.395,0.020
16.400,0.035
16.405,0.026
16.410,0.020
16.415,0.028
16.420,0.035
16.425,0.036
16.430,0.037
16.435,0.040
16.440,0.032
16.445,0.012
16.450,0.013
16.455,0.032
16.460,0.040
16.465,0.046
16.470,0.048
16.475,0.054
16.480,0.061
16.485,0.023
16.490,-0.106
16.495,-0.326
16.500,-0.570
16.505,-0.744
16.510,-0.774
16.515,-0.686
16.520,-0.544
16.525,-0.379
16.530,-0.253
16.535,-0.178
16.540,-0.102
16.545,-0.023
16.550,0.063
16.555,0.158
16.560,0.216
16.565,0.259
16.570,0.295
16.575,0.298
16.580,0.303
16.585,0.314
16.590,0.309
16.595,0.298
16.600,0.287
16.605,0.283
16.610,0.266
16.615,0.234
16.620,0.226
16.625,0.222
16.630,0.217
16.635,0.210
16.640,0.209
16.645,0.219
16.650,0.194
16.655,0.160
16.660,0.150
16.665,0.149
16.670,0.147
16.675,0.149
16.680,0.144
16.685,0.129
16.690,0.110
16.695,0.102
16.700,0.107
16.705,0.097
16.710,0.081
16.715,0.080
16.720,0.081
16.725,0.065
16.730,0.056
16.735,0.059
16.740,0.050
16.745,0.035
16.750,0.029
16.755,0.032
16.760,0.030
16.765,0.014
16.770,-0.004
16.775,-0.019
16.780,-0.038
16.785,-0.049
16.790,-0.060
16.795,-0.075
16.800,-0.081
16.805,-0.085
16.810,-0.082
16.815,-0.078
16.820,-0.085
16.825,-0.078
16.830,-0.065
16.835,-0.061
16.840,-0.064
16.845,-0.064
16.850,-0.050
16.855,-0.046
16.860,-0.061
16.865,-0.070
16.870,-0.068
16.875,-0.063
16.880,-0.065
16.885,-0.063
16.890,-0.055
16.895,-0.057
16.900,-0.052
16.905,-0.029
16.910,-0.023
16.915,-0.043
16.920,-0.057
16.925,-0.061
16.930,-0.057
16.935,-0.050
16.940,-0.052
16.945,-0.045
16.950,-0.031
16.955,-0.035
16.960,-0.040
16.965,-0.039
16.970,-0.028
16.975,-0.018
16.980,-0.018
16.985,-0.024
16.990,-0.030
16.995,-0.030
17.000,-0.032
17.005,-0.033
17.010,-0.020
17.015,-0.003
17.020,-0.025
17.025,-0.039
17.030,-0.018
17.035,-0.013
17.040,-0.012
17.045,-0.012
17.050,-0.017
17.055,-0.011
17.060,-0.007
17.065,-0.011
17.070,0.001
17.075,0.015
17.080,0.009
17.085,-0.011
17.090,-0.021
17.095,-0.015
17.100,-0.005
17.105,0.003
17.110,0.002
17.115,-0.002
17.120,-0.002
17.125,-0.006
17.130,-0.015
17.135,-0.012
17.140,-0.009
17.145,-0.006
17.150,0.004
17.155,0.003
17.160,-0.005
17.165,-0.012
17.170,-0.008
17.175,0.005
17.180,-0.001
17.185,-0.016
17.190,-0.029
17.195,-0.041
17.200,-0.033
17.205,-0.021
17.210,-0.022
17.215,-0.026
17.220,-0.047
17.225,-0.083
17.230,-0.076
17.235,-0.032
17.240,-0.018
17.245,-0.034
17.250,-0.053
17.255,-0.051
17.260,-0.013
17.265,0.015
17.270,0.018
17.275,0.027
17.280,0.031
17.285,0.017
17.290,0.011
17.295,0.023
17.300,0.022
17.305,0.016
17.310,0.020
17.315,0.032
17.320,0.038
17.325,0.018
17.330,0.008
17.335,0.023
17.340,0.027
17.345,0.026
17.350,0.038
17.355,0.052
17.360,0.054
17.365,0.018
17.370,-0.085
17.375,-0.283
17.380,-0.547
17.385,-0.764
17.390,-0.827
17.395,-0.761
17.400,-0.627
17.405,-0.445
17.410,-0.298
17.415,-0.216
17.420,-0.146
17.425,-0.071
17.430,0.031
17.435,0.135
17.440,0.211
17.445,0.296
17.450,0.350
17.455,0.337
17.460,0.313
17.465,0.325
17.470,0.349
17.475,0.348
17.480,0.318
17.485,0.279
17.490,0.278
17.495,0.263
17.500,0.237
17.505,0.225
17.510,0.199
17.515,0.222
17.520,0.258
17.525,0.269
17.530,0.279
17.535,0.257
17.540,0.230
17.545,0.209
17.550,0.169
17.555,0.136
17.560,0.126
17.565,0.096
17.570,0.086
17.575,0.153
17.580,0.195
17.585,0.167
17.590,0.129
17.595,0.103
17.600,0.117
17.605,0.134
17.610,0.106
17.615,0.081
17.620,0.078
17.625,0.068
17.630,0.055
17.635,0.052
17.640,0.033
17.645,0.003
17.650,-0.016
17.655,-0.043
17.660,-0.049
17.665,-0.039
17.670,-0.061
17.675,-0.076
17.680,-0.073
17.685,-0.083
17.690,-0.098
17.695,-0.103
17.700,-0.093
17.705,-0.078
17.710,-0.074
17.715,-0.075
17.720,-0.070
17.725,-0.072
17.730,-0.094
17.735,-0.086
17.740,-0.048
17.745,-0.048
17.750,-0.062
17.755,-0.068
17.760,-0.067
17.765,-0.050
17.770,-0.045
17.775,-0.065
17.780,-0.104
17.785,-0.125
17.790,-0.085
17.795,-0.046
17.800,-0.026
17.805,-0.033
17.810,-0.061
17.815,-0.060
17.820,-0.076
17.825,-0.088
17.830,-0.036
17.835,0.010
17.840,0.013
17.845,0.015
17.850,-0.016
17.855,-0.063
17.860,-0.065
17.865,-0.032
17.870,-0.001
17.875,-0.018
17.880,-0.111
17.885,-0.107
17.890,0.037
17.895,0.114
17.900,0.102
17.905,0.052
17.910,0.016
17.915,0.016
17.920,0.004
17.925,-0.008
17.930,-0.004
17.935,0.004
17.940,-0.003
17.945,-0.010
17.950,-0.017
17.955,-0.030
17.960,-0.037
17.965,-0.032
17.970,-0.024
17.975,-0.027
17.980,-0.023
17.985,-0.025
17.990,-0.036
17.995,-0.025
18.000,-0.015
18.005,-0.014
18.010,-0.021
18.015,-0.037
18.020,-0.042
18.025,-0.030
18.030,-0.020
18.035,-0.019
18.040,-0.019
18.045,-0.028
18.050,-0.041
18.055,-0.047
18.060,-0.047
18.065,-0.032
18.070,-0.029
18.075,-0.045
18.080,-0.044
18.085,-0.049
18.090,-0.061
18.095,-0.058
18.100,-0.068
18.105,-0.071
18.110,-0.062
18.115,-0.060
18.120,-0.053
18.125,-0.047
18.130,-0.041
18.135,-0.027
18.140,-0.016
18.145,0.002
18.150,0.016
18.155,0.017
18.160,0.014
18.165,0.016
18.170,0.026
18.175,0.024
18.180,0.019
18.185,0.019
18.190,0.025
18.195,0.026
18.200,0.017
18.205,0.009
18.210,0.008
18.215,0.015
18.220,0.025
18.225,0.039
18.230,0.054
18.235,0.057
18.240,0.009
18.245,-0.130
18.250,-0.349
18.255,-0.608
18.260,-0.805
18.265,-0.836
18.270,-0.745
18.275,-0.594
18.280,-0.429
18.285,-0.322
18.290,-0.249
18.295,-0.163
18.300,-0.066
18.305,0.053
18.310,0.168
18.315,0.244
18.320,0.299
18.325,0.332
18.330,0.342
18.335,0.346
18.340,0.342
18.345,0.324
18.350,0.310
18.355,0.309
18.360,0.301
18.365,0.279
18.370,0.262
18.375,0.266
18.380,0.267
18.385,0.253
18.390,0.233
18.395,0.220
18.400,0.216
18.405,0.211
18.410,0.205
18.415,0.199
18.420,0.187
18.425,0.169
18.430,0.158
18.435,0.148
18.440,0.141
18.445,0.143
18.450,0.137
18.455,0.130
18.460,0.126
18.465,0.116
18.470,0.100
18.475,0.080
18.480,0.074
18.485,0.084
18.490,0.083
18.495,0.075
18.500,0.069
18.505,0.064
18.510,0.064
18.515,0.055
18.520,0.035
18.525,0.016
18.530,0.007
18.535,-0.008
18.540,-0.041
18.545,-0.064
18.550,-0.067
18.555,-0.060
18.560,-0.064
18.565,-0.078
18.570,-0.070
18.575,-0.057
18.580,-0.054
18.585,-0.040
18.590,-0.027
18.595,-0.030
18.600,-0.029
18.605,-0.034
18.610,-0.038
18.615,-0.031
18.620,-0.040
18.625,-0.048
18.630,-0.050
18.635,-0.048
18.640,-0.035
18.645,-0.039
18.650,-0.041
18.655,-0.030
18.660,-0.031
18.665,-0.032
18.670,-0.030
18.675,-0.026
18.680,-0.017
18.685,-0.019
18.690,-0.027
18.695,-0.026
18.700,-0.028
18.705,-0.027
18.710,-0.020
18.715,-0.027
18.720,-0.033
18.725,-0.025
18.730,-0.019
18.735,-0.019
18.740,-0.022
18.745,-0.024
18.750,-0.028
18.755,-0.035
18.760,-0.024
18.765,-0.014
18.770,-0.008
18.775,-0.008
18.780,-0.014
18.785,-0.009
18.790,-0.013
18.795,-0.017
18.800,-0.017
18.805,-0.023
18.810,-0.026
18.815,-0.025
18.820,-0.015
18.825,-0.009
18.830,-0.020
18.835,-0.023
18.840,-0.008
18.845,-0.006
18.850,-0.014
18.855,-0.018
18.860,-0.022
18.865,-0.025
18.870,-0.020
18.875,-0.023
18.880,-0.020
18.885,-0.009
18.890,-0.013
18.895,-0.017
18.900,-0.018
18.905,-0.022
18.910,-0.018
18.915,-0.022
18.920,-0.030
18.925,-0.033
18.930,-0.034
18.935,-0.039
18.940,-0.052
18.945,-0.060
18.950,-0.065
18.955,-0.063
18.960,-0.056
18.965,-0.064
18.970,-0.064
18.975,-0.052
18.980,-0.039
18.985,-0.031
18.990,-0.034
18.995,-0.027
19.000,-0.009
19.005,0.012
19.010,0.028
19.015,0.029
19.020,0.016
19.025,0.010
19.030,0.024
19.035,0.031
19.040,0.026
19.045,0.027
19.050,0.030
19.055,0.028
19.060,0.033
19.065,0.031
19.070,0.015
19.075,0.016
19.080,0.026
19.085,0.052
19.090,0.072
19.095,0.053
19.100,-0.013
19.105,-0.162
19.110,-0.388
19.115,-0.627
19.120,-0.793
19.125,-0.798
19.130,-0.679
19.135,-0.510
19.140,-0.350
19.145,-0.253
19.150,-0.181
19.155,-0.100
19.160,-0.011
19.165,0.100
19.170,0.195
19.175,0.249
19.180,0.290
19.185,0.308
19.190,0.299
19.195,0.294
19.200,0.301
19.205,0.308
19.210,0.302
19.215,0.284
19.220,0.270
19.225,0.258
19.230,0.249
19.235,0.238
19.240,0.222
19.245,0.211
19.250,0.202
19.255,0.199
19.260,0.191
19.265,0.171
19.270,0.153
19.275,0.147
19.280,0.146
19.285,0.145
19.290,0.134
19.295,0.112
19.300,0.102
19.305,0.106
19.310,0.112
19.315,0.101
19.320,0.076
19.325,0.068
19.330,0.068
19.335,0.064
19.340,0.070
19.345,0.079
19.350,0.064
19.355,0.031
19.360,0.009
19.365,0.008
19.370,0.015
19.375,-0.001
19.380,-0.024
19.385,-0.028
19.390,-0.033
19.395,-0.042
19.400,-0.051
19.405,-0.055
19.410,-0.058
19.415,-0.070
19.420,-0.072
19.425,-0.063
19.430,-0.057
19.435,-0.052
19.440,-0.053
19.445,-0.059
19.450,-0.052
19.455,-0.041
19.460,-0.041
19.465,-0.039
19.470,-0.045
19.475,-0.047
19.480,-0.029
19.485,-0.021
19.490,-0.031
19.495,-0.039
19.500,-0.037
19.505,-0.029
19.510,-0.032
19.515,-0.045
19.520,-0.047
19.525,-0.039
19.530,-0.026
19.535,-0.026
19.540,-0.027
19.545,-0.029
19.550,-0.043
19.555,-0.045
19.560,-0.032
19.565,-0.022
19.570,-0.011
19.575,-0.002
19.580,-0.013
19.585,-0.031
19.590,-0.032
19.595,-0.026
19.600,-0.019
19.605,-0.011
19.610,-0.018
19.615,-0.023
19.620,-0.013
19.625,0.000
19.630,0.003
19.635,-0.011
19.640,-0.030
19.645,-0.028
19.650,-0.010
19.655,-0.005
19.660,-0.007
19.665,-0.004
19.670,-0.004
19.675,-0.013
19.680,-0.016
19.685,-0.013
19.690,-0.011
19.695,-0.016
19.700,-0.025
19.705,-0.020
19.710,-0.012
19.715,-0.004
19.720,-0.001
19.725,-0.010
19.730,-0.012
19.735,-0.017
19.740,-0.028
19.745,-0.039
19.750,-0.039
19.755,-0.028
19.760,-0.022
19.765,-0.018
19.770,-0.020
19.775,-0.036
19.780,-0.045
19.785,-0.049
19.790,-0.057
19.795,-0.058
19.800,-0.057
19.805,-0.056
19.810,-0.042
19.815,-0.026
19.820,-0.033
19.825,-0.028
19.830,0.001
19.835,0.012
19.840,0.020
19.845,0.027
19.850,0.024
19.855,0.023
19.860,0.012
19.865,0.010
19.870,0.025
19.875,0.036
19.880,0.033
19.885,0.026
19.890,0.024
19.895,0.015
19.900,0.012
19.905,0.022
19.910,0.030
19.915,0.046
19.920,0.067
19.925,0.073
19.930,0.044
19.935,-0.058
19.940,-0.246
19.945,-0.480
19.950,-0.686
19.955,-0.760
19.960,-0.674
19.965,-0.518
19.970,-0.351
19.975,-0.216
19.980,-0.133
19.985,-0.074
19.990,-0.027
19.995,0.038
20.000,0.132
20.005,0.210
20.010,0.252
20.015,0.274
20.020,0.267
20.025,0.253
20.030,0.261
20.035,0.257
20.040,0.244
20.045,0.234
20.050,0.228
20.055,0.229
20.060,0.218
20.065,0.200
20.070,0.187
20.075,0.182
20.080,0.180
20.085,0.172
20.090,0.171
20.095,0.161
20.100,0.140
20.105,0.133
20.110,0.126
20.115,0.111
20.120,0.109
20.125,0.106
20.130,0.091
20.135,0.077
20.140,0.066
20.145,0.065
20.150,0.072
20.155,0.069
20.160,0.065
20.165,0.065
20.170,0.056
20.175,0.035
20.180,0.021
20.185,0.025
20.190,0.023
20.195,0.012
20.200,0.004
20.205,0.000
20.210,0.006
20.215,0.009
20.220,-0.016
20.225,-0.031
20.230,-0.030
20.235,-0.040
20.240,-0.045
20.245,-0.049
20.250,-0.059
20.255,-0.058
20.260,-0.056
20.265,-0.052
20.270,-0.035
20.275,-0.024
20.280,-0.026
20.285,-0.022
20.290,-0.025
20.295,-0.035
20.300,-0.033
20.305,-0.030
20.310,-0.029
20.315,-0.026
20.320,-0.025
20.325,-0.024
20.330,-0.015
20.335,-0.011
20.340,-0.023
20.345,-0.036
20.350,-0.034
20.355,-0.022
20.360,-0.022
20.365,-0.030
20.370,-0.024
20.375,-0.018
20.380,-0.028
20.385,-0.036
20.390,-0.032
20.395,-0.020
20.400,-0.012
20.405,-0.022
20.410,-0.017
20.415,-0.008
20.420,-0.018
20.425,-0.018
20.430,-0.016
20.435,-0.005
20.440,0.000
20.445,-0.011
20.450,-0.018
20.455,-0.027
20.460,-0.017
20.465,-0.006
20.470,-0.009
20.475,-0.005
20.480,0.001
20.485,-0.001
20.490,-0.011
20.495,-0.013
20.500,-0.005
20.505,0.007
20.510,0.009
20.515,-0.011
20.520,-0.027
20.525,-0.021
20.530,-0.007
20.535,0.003
20.540,-0.005
20.545,-0.014
20.550,-0.010
20.555,-0.004
20.560,-0.004
20.565,-0.008
20.570,-0.015
20.575,-0.025
20.580,-0.029
20.585,-0.027
20.590,-0.021
20.595,-0.026
20.600,-0.037
20.605,-0.037
20.610,-0.034
20.615,-0.042
20.620,-0.052
20.625,-0.051
20.630,-0.043
20.635,-0.038
20.640,-0.043
20.645,-0.045
20.650,-0.038
20.655,-0.032
20.660,-0.024
20.665,-0.005
20.670,0.011
20.675,0.024
20.680,0.037
20.685,0.033
20.690,0.024
20.695,0.016
20.700,0.007
20.705,0.018
20.710,0.024
20.715,0.024
20.720,0.034
20.725,0.025
20.730,0.015
20.735,0.021
20.740,0.019
20.745,0.031
20.750,0.058
20.755,0.076
20.760,0.066
20.765,-0.003
20.770,-0.150
20.775,-0.356
20.780,-0.570
20.785,-0.724
20.790,-0.750
20.795,-0.669
20.800,-0.542
20.805,-0.380
20.810,-0.235
20.815,-0.155
20.820,-0.098
20.825,-0.036
20.830,0.055
20.835,0.163
20.840,0.225
20.845,0.259
20.850,0.292
20.855,0.294
20.860,0.284
20.865,0.277
20.870,0.275
20.875,0.282
20.880,0.276
20.885,0.258
20.890,0.243
20.895,0.244
20.900,0.236
20.905,0.217
20.910,0.200
20.915,0.189
20.920,0.187
20.925,0.185
20.930,0.175
20.935,0.162
20.940,0.157
20.945,0.138
20.950,0.122
20.955,0.127
20.960,0.126
20.965,0.117
20.970,0.103
20.975,0.086
20.980,0.086
20.985,0.086
20.990,0.068
20.995,0.062
21.000,0.063
21.005,0.057
21.010,0.053
21.015,0.043
21.020,0.037
21.025,0.036
21.030,0.025
21.035,0.016
21.040,0.011
21.045,0.003
21.050,-0.012
21.055,-0.030
21.060,-0.029
21.065,-0.020
21.070,-0.030
21.075,-0.050
21.080,-0.059
21.085,-0.061
21.090,-0.058
21.095,-0.049
21.100,-0.042
21.105,-0.041
21.110,-0.047
21.115,-0.052
21.120,-0.049
21.125,-0.050
21.130,-0.046
21.135,-0.040
21.140,-0.046
21.145,-0.042
21.150,-0.036
21.155,-0.034
21.160,-0.036
21.165,-0.051
21.170,-0.049
21.175,-0.040
21.180,-0.033
21.185,-0.021
21.190,-0.018
21.195,-0.031
21.200,-0.047
21.205,-0.048
21.210,-0.037
21.215,-0.031
21.220,-0.032
21.225,-0.027
21.230,-0.019
21.235,-0.022
21.240,-0.027
21.245,-0.027
21.250,-0.021
21.255,-0.012
21.260,-0.004
21.265,-0.013
21.270,-0.032
21.275,-0.034
21.280,-0.020
21.285,-0.006
21.290,-0.010
21.295,-0.021
21.300,-0.019
21.305,-0.015
21.310,-0.015
21.315,-0.010
21.320,-0.005
21.325,-0.010
21.330,-0.018
21.335,-0.025
21.340,-0.024
21.345,-0.013
21.350,-0.007
21.355,-0.006
21.360,-0.006
21.365,-0.003
21.370,-0.001
21.375,-0.004
21.380,-0.005
21.385,-0.010
21.390,-0.012
21.395,-0.007
21.400,-0.011
21.405,-0.020
21.410,-0.021
21.415,-0.028
21.420,-0.033
21.425,-0.030
21.430,-0.033
21.435,-0.031
21.440,-0.035
21.445,-0.050
21.450,-0.047
21.455,-0.039
21.460,-0.043
21.465,-0.045
21.470,-0.046
21.475,-0.043
21.480,-0.032
21.485,-0.023
21.490,-0.007
21.495,0.013
21.500,0.022
21.505,0.018
21.510,0.011
21.515,0.009
21.520,0.008
21.525,0.011
21.530,0.017
21.535,0.025
21.540,0.034
21.545,0.028
21.550,0.015
21.555,0.015
21.560,0.024
21.565,0.024
21.570,0.026
21.575,0.034
21.580,0.048
21.585,0.069
21.590,0.069
21.595,0.028
21.600,-0.085
21.605,-0.284
21.610,-0.512
21.615,-0.695
21.620,-0.761
21.625,-0.717
21.630,-0.612
21.635,-0.446
21.640,-0.287
21.645,-0.192
21.650,-0.131
21.655,-0.063
21.660,0.039
21.665,0.147
21.670,0.224
21.675,0.275
21.680,0.304
21.685,0.301
21.690,0.284
21.695,0.281
21.700,0.283
21.705,0.279
21.710,0.277
21.715,0.275
21.720,0.263
21.725,0.245
21.730,0.235
21.735,0.236
21.740,0.236
21.745,0.222
21.750,0.205
21.755,0.196
21.760,0.193
21.765,0.187
21.770,0.169
21.775,0.144
21.780,0.122
21.785,0.118
21.790,0.117
21.795,0.113
21.800,0.109
21.805,0.105
21.810,0.107
21.815,0.098
21.820,0.078
21.825,0.067
21.830,0.073
21.835,0.068
21.840,0.045
21.845,0.038
21.850,0.037
21.855,0.030
21.860,0.028
21.865,0.027
21.870,0.014
21.875,-0.012
21.880,-0.026
21.885,-0.023
21.890,-0.025
21.895,-0.036
21.900,-0.048
21.905,-0.050
21.910,-0.052
21.915,-0.055
21.920,-0.050
21.925,-0.050
21.930,-0.062
21.935,-0.063
21.940,-0.045
21.945,-0.028
21.950,-0.038
21.955,-0.049
21.960,-0.051
21.965,-0.047
21.970,-0.035
21.975,-0.043
21.980,-0.054
21.985,-0.053
21.990,-0.056
21.995,-0.054
22.000,-0.050
22.005,-0.046
22.010,-0.036
22.015,-0.030
22.020,-0.028
22.025,-0.028
22.030,-0.033
22.035,-0.039
22.040,-0.041
22.045,-0.032
22.050,-0.032
22.055,-0.032
22.060,-0.024
22.065,-0.027
22.070,-0.021
22.075,-0.021
22.080,-0.033
22.085,-0.030
22.090,-0.026
22.095,-0.021
22.100,-0.013
22.105,-0.015
22.110,-0.018
22.115,-0.015
22.120,-0.015
22.125,-0.013
22.130,-0.018
22.135,-0.025
22.140,-0.017
22.145,-0.014
22.150,-0.017
22.155,-0.018
22.160,-0.016
22.165,-0.006
22.170,0.004
22.175,-0.004
22.180,-0.014
22.185,-0.005
22.190,-0.001
22.195,0.000
22.200,-0.008
22.205,-0.026
22.210,-0.024
22.215,-0.014
22.220,-0.011
22.225,-0.010
22.230,-0.014
22.235,-0.023
22.240,-0.024
22.245,-0.020
22.250,-0.020
22.255,-0.020
22.260,-0.025
22.265,-0.029
22.270,-0.035
22.275,-0.042
22.280,-0.037
22.285,-0.042
22.290,-0.046
22.295,-0.043
22.300,-0.046
22.305,-0.044
22.310,-0.036
22.315,-0.032
22.320,-0.029
22.325,-0.027
22.330,-0.017
22.335,0.009
22.340,0.023
22.345,0.019
22.350,0.023
22.355,0.028
22.360,0.027
22.365,0.023
22.370,0.023
22.375,0.033
22.380,0.032
22.385,0.024
22.390,0.025
22.395,0.031
22.400,0.034
22.405,0.037
22.410,0.039
22.415,0.036
22.420,0.041
22.425,0.050
22.430,0.022
22.435,-0.086
22.440,-0.281
22.445,-0.513
22.450,-0.689
22.455,-0.751
22.460,-0.717
22.465,-0.610
22.470,-0.452
22.475,-0.306
22.480,-0.201
22.485,-0.133
22.490,-0.066
22.495,0.026
22.500,0.122
22.505,0.204
22.510,0.267
22.515,0.301
22.520,0.302
22.525,0.293
22.530,0.294
22.535,0.297
22.540,0.297
22.545,0.292
22.550,0.288
22.555,0.275
22.560,0.257
22.565,0.244
22.570,0.233
22.575,0.224
22.580,0.220
22.585,0.206
22.590,0.187
22.595,0.178
22.600,0.173
22.605,0.169
22.610,0.160
22.615,0.144
22.620,0.134
22.625,0.126
22.630,0.115
22.635,0.108
22.640,0.106
22.645,0.106
22.650,0.104
22.655,0.091
22.660,0.067
22.665,0.059
22.670,0.065
22.675,0.060
22.680,0.050
22.685,0.040
22.690,0.034
22.695,0.033
22.700,0.024
22.705,0.009
22.710,0.003
22.715,-0.005
22.720,-0.022
22.725,-0.028
22.730,-0.032
22.735,-0.039
22.740,-0.044
22.745,-0.051
22.750,-0.056
22.755,-0.060
22.760,-0.059
22.765,-0.055
22.770,-0.057
22.775,-0.053
22.780,-0.044
22.785,-0.040
22.790,-0.045
22.795,-0.055
22.800,-0.056
22.805,-0.050
22.810,-0.047
22.815,-0.055
22.820,-0.058
22.825,-0.052
22.830,-0.051
22.835,-0.049
22.840,-0.052
22.845,-0.054
22.850,-0.045
22.855,-0.035
22.860,-0.028
22.865,-0.019
22.870,-0.023
22.875,-0.033
22.880,-0.032
22.885,-0.039
22.890,-0.043
22.895,-0.035
22.900,-0.037
22.905,-0.029
22.910,-0.018
22.915,-0.016
22.920,-0.016
22.925,-0.027
22.930,-0.035
22.935,-0.023
22.940,-0.012
22.945,-0.014
22.950,-0.015
22.955,-0.011
22.960,-0.012
22.965,-0.017
22.970,-0.021
22.975,-0.021
22.980,-0.016
22.985,-0.011
22.990,-0.012
22.995,-0.016
23.000,-0.015
23.005,-0.013
23.010,-0.011
23.015,-0.010
23.020,-0.010
23.025,-0.009
23.030,-0.017
23.035,-0.020
23.040,-0.012
23.045,-0.007
23.050,-0.010
23.055,-0.014
23.060,-0.007
23.065,-0.003
23.070,-0.008
23.075,-0.019
23.080,-0.028
23.085,-0.030
23.090,-0.030
23.095,-0.026
23.100,-0.022
23.105,-0.032
23.110,-0.046
23.115,-0.050
23.120,-0.047
23.125,-0.044
23.130,-0.044
23.135,-0.045
23.140,-0.044
23.145,-0.043
23.150,-0.037
23.155,-0.027
23.160,-0.017
23.165,-0.007
23.170,0.003
23.175,0.020
23.180,0.031
23.185,0.030
23.190,0.036
23.195,0.037
23.200,0.028
23.205,0.022
23.210,0.023
23.215,0.033
23.220,0.030
23.225,0.015
23.230,0.014
23.235,0.018
23.240,0.021
23.245,0.037
23.250,0.053
23.255,0.062
23.260,0.065
23.265,0.034
23.270,-0.079
23.275,-0.277
23.280,-0.514
23.285,-0.722
23.290,-0.807
23.295,-0.763
23.300,-0.647
23.305,-0.480
23.310,-0.325
23.315,-0.233
23.320,-0.160
23.325,-0.082
23.330,0.011
23.335,0.127
23.340,0.217
23.345,0.272
23.350,0.309
23.355,0.318
23.360,0.314
23.365,0.320
23.370,0.324
23.375,0.322
23.380,0.314
23.385,0.296
23.390,0.281
23.395,0.270
23.400,0.261
23.405,0.249
23.410,0.234
23.415,0.229
23.420,0.219
23.425,0.201
23.430,0.197
23.435,0.194
23.440,0.180
23.445,0.161
23.450,0.144
23.455,0.134
23.460,0.127
23.465,0.120
23.470,0.120
23.475,0.120
23.480,0.111
23.485,0.100
23.490,0.087
23.495,0.077
23.500,0.074
23.505,0.068
23.510,0.059
23.515,0.053
23.520,0.050
23.525,0.047
23.530,0.035
23.535,0.019
23.540,0.007
23.545,-0.003
23.550,-0.005
23.555,-0.007
23.560,-0.015
23.565,-0.031
23.570,-0.050
23.575,-0.055
23.580,-0.054
23.585,-0.061
23.590,-0.066
23.595,-0.067
23.600,-0.067
23.605,-0.063
23.610,-0.058
23.615,-0.057
23.620,-0.060
23.625,-0.056
23.630,-0.047
23.635,-0.045
23.640,-0.048
23.645,-0.048
23.650,-0.048
23.655,-0.050
23.660,-0.048
23.665,-0.037
23.670,-0.024
23.675,-0.035
23.680,-0.057
23.685,-0.057
23.690,-0.048
23.695,-0.045
23.700,-0.039
23.705,-0.032
23.710,-0.030
23.715,-0.031
23.720,-0.031
23.725,-0.030
23.730,-0.024
23.735,-0.018
23.740,-0.021
23.745,-0.031
23.750,-0.034
23.755,-0.030
23.760,-0.025
23.765,-0.022
23.770,-0.022
23.775,-0.019
23.780,-0.003
23.785,-0.004
23.790,-0.022
23.795,-0.016
23.800,-0.010
23.805,-0.012
23.810,-0.014
23.815,-0.028
23.820,-0.028
23.825,-0.017
23.830,-0.011
23.835,-0.008
23.840,-0.009
23.845,-0.015
23.850,-0.011
23.855,0.001
23.860,0.001
23.865,-0.008
23.870,-0.017
23.875,-0.016
23.880,-0.009
23.885,-0.009
23.890,-0.019
23.895,-0.022
23.900,-0.018
23.905,-0.019
23.910,-0.022
23.915,-0.028
23.920,-0.032
23.925,-0.031
23.930,-0.036
23.935,-0.038
23.940,-0.033
23.945,-0.040
23.950,-0.048
23.955,-0.047
23.960,-0.044
23.965,-0.044
23.970,-0.048
23.975,-0.047
23.980,-0.040
23.985,-0.030
23.990,-0.019
23.995,-0.010
24.000,0.006
24.005,0.017
24.010,0.028
24.015,0.034
24.020,0.026
24.025,0.026
24.030,0.028
24.035,0.026
24.040,0.025
24.045,0.030
24.050,0.035
24.055,0.029
24.060,0.019
24.065,0.012
24.070,0.015
24.075,0.022
24.080,0.037
24.085,0.063
24.090,0.071
24.095,0.048
24.100,-0.032
24.105,-0.200
24.110,-0.426
24.115,-0.652
24.120,-0.786
24.125,-0.752
24.130,-0.622
24.135,-0.455
24.140,-0.286
24.145,-0.189
24.150,-0.133
24.155,-0.068
24.160,0.015
24.165,0.124
24.170,0.204
24.175,0.241
24.180,0.269
24.185,0.287
24.190,0.281
24.195,0.273
24.200,0.275
24.205,0.275
24.210,0.276
24.215,0.268
24.220,0.256
24.225,0.244
24.230,0.230
24.235,0.218
24.240,0.207
24.245,0.204
24.250,0.200
24.255,0.181
24.260,0.163
24.265,0.149
24.270,0.145
24.275,0.143
24.280,0.128
24.285,0.124
24.290,0.123
24.295,0.113
24.300,0.102
24.305,0.089
24.310,0.086
24.315,0.084
24.320,0.073
24.325,0.067
24.330,0.063
24.335,0.053
24.340,0.051
24.345,0.045
24.350,0.037
24.355,0.042
24.360,0.032
24.365,0.019
24.370,0.008
24.375,-0.008
24.380,-0.010
24.385,-0.021
24.390,-0.032
24.395,-0.032
24.400,-0.033
24.405,-0.034
24.410,-0.042
24.415,-0.049
24.420,-0.050
24.425,-0.047
24.430,-0.042
24.435,-0.036
24.440,-0.036
24.445,-0.044
24.450,-0.042
24.455,-0.039
24.460,-0.037
24.465,-0.028
24.470,-0.026
24.475,-0.031
24.480,-0.029
24.485,-0.034
24.490,-0.045
24.495,-0.043
24.500,-0.035
24.505,-0.030
24.510,-0.027
24.515,-0.028
24.520,-0.029
24.525,-0.025
24.530,-0.029
24.535,-0.036
24.540,-0.028
24.545,-0.026
24.550,-0.033
24.555,-0.028
24.560,-0.025
24.565,-0.033
24.570,-0.030
24.575,-0.024
24.580,-0.020
24.585,-0.023
24.590,-0.029
24.595,-0.020
24.600,-0.008
24.605,-0.011
24.610,-0.015
24.615,-0.011
24.620,-0.012
24.625,-0.016
24.630,-0.018
24.635,-0.019
24.640,-0.013
24.645,-0.008
24.650,-0.007
24.655,-0.003
24.660,-0.007
24.665,-0.016
24.670,-0.018
24.675,-0.012
24.680,-0.008
24.685,-0.009
24.690,-0.012
24.695,-0.012
24.700,-0.008
24.705,-0.013
24.710,-0.020
24.715,-0.016
24.720,-0.014
24.725,-0.014
24.730,-0.014
24.735,-0.023
24.740,-0.027
24.745,-0.029
24.750,-0.031
24.755,-0.037
24.760,-0.052
24.765,-0.056
24.770,-0.050
24.775,-0.043
24.780,-0.038
24.785,-0.039
24.790,-0.045
24.795,-0.046
24.800,-0.042
24.805,-0.031
24.810,-0.014
24.815,-0.008
24.820,-0.001
24.825,0.012
24.830,0.024
24.835,0.030
24.840,0.024
24.845,0.020
24.850,0.028
24.855,0.025
24.860,0.018
24.865,0.022
24.870,0.025
24.875,0.017
24.880,0.007
24.885,0.004
24.890,0.016
24.895,0.030
24.900,0.040
24.905,0.057
24.910,0.069
24.915,0.047
24.920,-0.030
24.925,-0.177
24.930,-0.382
24.935,-0.595
24.940,-0.712
24.945,-0.692
24.950,-0.583
24.955,-0.421
24.960,-0.261
24.965,-0.156
24.970,-0.095
24.975,-0.049
24.980,0.010
24.985,0.093
24.990,0.165
24.995,0.213
25.000,0.252
25.005,0.268
25.010,0.258
25.015,0.247
25.020,0.241
25.025,0.240
25.030,0.241
25.035,0.240
25.040,0.229
25.045,0.212
25.050,0.203
25.055,0.197
25.060,0.193
25.065,0.181
25.070,0.163
25.075,0.152
25.080,0.142
25.085,0.140
25.090,0.143
25.095,0.137
25.100,0.123
25.105,0.101
25.110,0.094
25.115,0.100
25.120,0.094
25.125,0.082
25.130,0.076
25.135,0.065
25.140,0.057
25.145,0.053
25.150,0.047
25.155,0.041
25.160,0.033
25.165,0.027
25.170,0.030
25.175,0.025
25.180,0.014
25.185,0.009
25.190,0.006
25.195,-0.002
25.200,-0.008
25.205,-0.010
25.210,-0.016
25.215,-0.021
25.220,-0.021
25.225,-0.025
25.230,-0.036
25.235,-0.049
25.240,-0.053
25.245,-0.047
25.250,-0.036
25.255,-0.031
25.260,-0.030
25.265,-0.033
25.270,-0.033
25.275,-0.023
25.280,-0.020
25.285,-0.030
25.290,-0.030
25.295,-0.023
25.300,-0.020
25.305,-0.025
25.310,-0.025
25.315,-0.019
25.320,-0.021
25.325,-0.027
25.330,-0.031
25.335,-0.024
25.340,-0.020
25.345,-0.032
25.350,-0.032
25.355,-0.026
25.360,-0.023
25.365,-0.029
25.370,-0.030
25.375,-0.024
25.380,-0.020
25.385,-0.017
25.390,-0.024
25.395,-0.026
25.400,-0.021
25.405,-0.021
25.410,-0.019
25.415,-0.012
25.420,-0.019
25.425,-0.030
25.430,-0.026
25.435,-0.018
25.440,-0.009
25.445,-0.003
25.450,-0.011
25.455,-0.013
25.460,-0.012
25.465,-0.016
25.470,-0.009
25.475,-0.004
25.480,-0.007
25.485,-0.004
25.490,0.001
25.495,0.000
25.500,-0.005
25.505,-0.013
25.510,-0.008
25.515,-0.003
25.520,-0.012
25.525,-0.014
25.530,-0.013
25.535,-0.013
25.540,-0.015
25.545,-0.023
25.550,-0.018
25.555,-0.010
25.560,-0.014
25.565,-0.020
25.570,-0.031
25.575,-0.036
25.580,-0.031
25.585,-0.032
25.590,-0.040
25.595,-0.039
25.600,-0.034
25.605,-0.045
25.610,-0.048
25.615,-0.046
25.620,-0.043
25.625,-0.036
25.630,-0.034
25.635,-0.022
25.640,-0.004
25.645,-0.002
25.650,0.004
25.655,0.017
25.660,0.024
25.665,0.033
25.670,0.031
25.675,0.023
25.680,0.022
25.685,0.019
25.690,0.020
25.695,0.030
25.700,0.031
25.705,0.028
25.710,0.030
25.715,0.024
25.720,0.024
25.725,0.040
25.730,0.059
25.735,0.062
25.740,0.039
25.745,-0.043
25.750,-0.214
25.755,-0.434
25.760,-0.644
25.765,-0.760
25.770,-0.738
25.775,-0.647
25.780,-0.500
25.785,-0.322
25.790,-0.210
25.795,-0.144
25.800,-0.080
25.805,-0.008
25.810,0.090
25.815,0.178
25.820,0.235
25.825,0.278
25.830,0.296
25.835,0.289
25.840,0.283
25.845,0.285
25.850,0.285
25.855,0.285
25.860,0.279
25.865,0.263
25.870,0.249
25.875,0.239
25.880,0.229
25.885,0.215
25.890,0.205
25.895,0.200
25.900,0.192
25.905,0.176
25.910,0.162
25.915,0.162
25.920,0.160
25.925,0.150
25.930,0.137
25.935,0.125
25.940,0.120
25.945,0.116
25.950,0.102
25.955,0.090
25.960,0.085
25.965,0.072
25.970,0.068
25.975,0.071
25.980,0.063
25.985,0.056
25.990,0.045
25.995,0.034
26.000,0.033
26.005,0.022
26.010,0.010
26.015,0.002
26.020,-0.003
26.025,-0.003
26.030,-0.010
26.035,-0.021
26.040,-0.029
26.045,-0.035
26.050,-0.040
26.055,-0.044
26.060,-0.050
26.065,-0.051
26.070,-0.041
26.075,-0.037
26.080,-0.038
26.085,-0.038
26.090,-0.039
26.095,-0.034
26.100,-0.039
26.105,-0.044
26.110,-0.039
26.115,-0.043
26.120,-0.041
26.125,-0.033
26.130,-0.037
26.135,-0.039
26.140,-0.039
26.145,-0.041
26.150,-0.040
26.155,-0.039
26.160,-0.039
26.165,-0.038
26.170,-0.033
26.175,-0.032
26.180,-0.036
26.185,-0.035
26.190,-0.031
26.195,-0.025
26.200,-0.020
26.205,-0.021
26.210,-0.026
26.215,-0.028
26.220,-0.027
26.225,-0.029
26.230,-0.024
26.235,-0.028
26.240,-0.032
26.245,-0.021
26.250,-0.021
26.255,-0.019
26.260,-0.012
26.265,-0.012
26.270,-0.012
26.275,-0.019
26.280,-0.019
26.285,-0.015
26.290,-0.015
26.295,-0.012
26.300,-0.012
26.305,-0.012
26.310,-0.004
26.315,-0.014
26.320,-0.026
26.325,-0.021
26.330,-0.012
26.335,0.002
26.340,-0.002
26.345,-0.017
26.350,-0.014
26.355,-0.009
26.360,-0.011
26.365,-0.013
26.370,-0.013
26.375,-0.014
26.380,-0.016
26.385,-0.023
26.390,-0.033
26.395,-0.028
26.400,-0.017
26.405,-0.014
26.410,-0.024
26.415,-0.037
26.420,-0.045
26.425,-0.046
26.430,-0.046
26.435,-0.046
26.440,-0.046
26.445,-0.048
26.450,-0.045
26.455,-0.040
26.460,-0.034
26.465,-0.021
26.470,-0.018
26.475,-0.021
26.480,-0.008
26.485,0.010
26.490,0.026
26.495,0.036
26.500,0.034
26.505,0.024
26.510,0.017
26.515,0.019
26.520,0.029
26.525,0.033
26.530,0.025
26.535,0.019
26.540,0.026
26.545,0.030
26.550,0.024
26.555,0.026
26.560,0.035
26.565,0.053
26.570,0.064
26.575,0.048
26.580,-0.027
26.585,-0.203
26.590,-0.435
26.595,-0.648
26.600,-0.776
26.605,-0.784
26.610,-0.714
26.615,-0.583
26.620,-0.409
26.625,-0.270
26.630,-0.194
26.635,-0.131
26.640,-0.040
26.645,0.075
26.650,0.174
26.655,0.240
26.660,0.290
26.665,0.321
26.670,0.329
26.675,0.328
26.680,0.331
26.685,0.323
26.690,0.303
26.695,0.294
26.700,0.296
26.705,0.288
26.710,0.269
26.715,0.249
26.720,0.238
26.725,0.234
26.730,0.229
26.735,0.214
26.740,0.196
26.745,0.191
26.750,0.193
26.755,0.184
26.760,0.163
26.765,0.145
26.770,0.136
26.775,0.134
26.780,0.134
26.785,0.119
26.790,0.100
26.795,0.093
26.800,0.087
26.805,0.087
26.810,0.081
26.815,0.054
26.820,0.042
26.825,0.047
26.830,0.043
26.835,0.037
26.840,0.032
26.845,0.026
26.850,0.017
26.855,0.000
26.860,-0.018
26.865,-0.020
26.870,-0.026
26.875,-0.039
26.880,-0.032
26.885,-0.033
26.890,-0.047
26.895,-0.051
26.900,-0.054
26.905,-0.052
26.910,-0.045
26.915,-0.048
26.920,-0.043
26.925,-0.034
26.930,-0.040
26.935,-0.042
26.940,-0.040
26.945,-0.043
26.950,-0.039
26.955,-0.038
26.960,-0.042
26.965,-0.038
26.970,-0.033
26.975,-0.034
26.980,-0.040
26.985,-0.043
26.990,-0.044
26.995,-0.043
27.000,-0.042
27.005,-0.038
27.010,-0.032
27.015,-0.035
27.020,-0.037
27.025,-0.042
27.030,-0.047
27.035,-0.034
27.040,-0.019
27.045,-0.016
27.050,-0.023
27.055,-0.039
27.060,-0.039
27.065,-0.026
27.070,-0.015
27.075,-0.010
27.080,-0.020
27.085,-0.030
27.090,-0.029
27.095,-0.020
27.100,-0.010
27.105,-0.014
27.110,-0.025
27.115,-0.027
27.120,-0.022
27.125,-0.015
27.130,-0.010
27.135,-0.015
27.140,-0.017
27.145,-0.013
27.150,-0.011
27.155,-0.013
27.160,-0.014
27.165,-0.015
27.170,-0.021
27.175,-0.020
27.180,-0.019
27.185,-0.020
27.190,-0.012
27.195,-0.006
27.200,-0.005
27.205,-0.012
27.210,-0.020
27.215,-0.016
27.220,-0.015
27.225,-0.024
27.230,-0.031
27.235,-0.030
27.240,-0.027
27.245,-0.024
27.250,-0.029
27.255,-0.034
27.260,-0.032
27.265,-0.037
27.270,-0.047
27.275,-0.051
27.280,-0.051
27.285,-0.051
27.290,-0.046
27.295,-0.052
27.300,-0.052
27.305,-0.034
27.310,-0.025
27.315,-0.020
27.320,-0.004
27.325,0.010
27.330,0.025
27.335,0.028
27.340,0.020
27.345,0.028
27.350,0.029
27.355,0.020
27.360,0.026
27.365,0.030
27.370,0.032
27.375,0.030
27.380,0.023
27.385,0.029
27.390,0.029
27.395,0.020
27.400,0.030
27.405,0.052
27.410,0.067
27.415,0.059
27.420,-0.004
27.425,-0.150
27.430,-0.369
27.435,-0.602
27.440,-0.773
27.445,-0.819
27.450,-0.753
27.455,-0.625
27.460,-0.453
27.465,-0.297
27.470,-0.211
27.475,-0.138
27.480,-0.048
27.485,0.048
27.490,0.154
27.495,0.235
27.500,0.287
27.505,0.327
27.510,0.330
27.515,0.321
27.520,0.331
27.525,0.336
27.530,0.321
27.535,0.306
27.540,0.299
27.545,0.284
27.550,0.273
27.555,0.263
27.560,0.250
27.565,0.243
27.570,0.237
27.575,0.226
27.580,0.213
27.585,0.191
27.590,0.173
27.595,0.172
27.600,0.164
27.605,0.154
27.610,0.149
27.615,0.146
27.620,0.133
27.625,0.108
27.630,0.096
27.635,0.096
27.640,0.095
27.645,0.089
27.650,0.083
27.655,0.080
27.660,0.061
27.665,0.041
27.670,0.043
27.675,0.046
27.680,0.041
27.685,0.022
27.690,0.002
27.695,-0.004
27.700,-0.011
27.705,-0.025
27.710,-0.026
27.715,-0.029
27.720,-0.037
27.725,-0.038
27.730,-0.049
27.735,-0.055
27.740,-0.056
27.745,-0.048
27.750,-0.033
27.755,-0.042
27.760,-0.053
27.765,-0.046
27.770,-0.037
27.775,-0.031
27.780,-0.030
27.785,-0.042
27.790,-0.048
27.795,-0.040
27.800,-0.037
27.805,-0.037
27.810,-0.040
27.815,-0.045
27.820,-0.041
27.825,-0.039
27.830,-0.043
27.835,-0.042
27.840,-0.035
27.845,-0.029
27.850,-0.035
27.855,-0.041
27.860,-0.040
27.865,-0.039
27.870,-0.033
27.875,-0.031
27.880,-0.032
27.885,-0.028
27.890,-0.018
27.895,-0.017
27.900,-0.024
27.905,-0.026
27.910,-0.027
27.915,-0.024
27.920,-0.011
27.925,-0.008
27.930,-0.018
27.935,-0.021
27.940,-0.023
27.945,-0.027
27.950,-0.026
27.955,-0.021
27.960,-0.012
27.965,-0.008
27.970,-0.010
27.975,-0.012
27.980,-0.013
27.985,-0.018
27.990,-0.019
27.995,-0.011
28.000,-0.002
28.005,-0.008
28.010,-0.020
28.015,-0.016
28.020,-0.013
28.025,-0.020
28.030,-0.014
28.035,-0.011
28.040,-0.016
28.045,-0.016
28.050,-0.018
28.055,-0.013
28.060,-0.006
28.065,-0.015
28.070,-0.024
28.075,-0.031
28.080,-0.036
28.085,-0.026
28.090,-0.018
28.095,-0.023
28.100,-0.040
28.105,-0.047
28.110,-0.039
28.115,-0.039
28.120,-0.050
28.125,-0.058
28.130,-0.058
28.135,-0.049
28.140,-0.043
28.145,-0.035
28.150,-0.030
28.155,-0.028
28.160,-0.014
28.165,-0.002
28.170,0.006
28.175,0.016
28.180,0.020
28.185,0.025
28.190,0.025
28.195,0.020
28.200,0.020
28.205,0.029
28.210,0.035
28.215,0.024
28.220,0.017
28.225,0.022
28.230,0.026
28.235,0.031
28.240,0.021
28.245,0.021
28.250,0.045
28.255,0.057
28.260,0.059
28.265,0.033
28.270,-0.072
28.275,-0.260
28.280,-0.488
28.285,-0.694
28.290,-0.784
28.295,-0.734
28.300,-0.610
28.305,-0.433
28.310,-0.264
28.315,-0.168
28.320,-0.109
28.325,-0.053
28.330,0.031
28.335,0.131
28.340,0.201
28.345,0.240
28.350,0.270
28.355,0.286
28.360,0.283
28.365,0.289
28.370,0.290
28.375,0.277
28.380,0.275
28.385,0.268
28.390,0.257
28.395,0.249
28.400,0.235
28.405,0.220
28.410,0.203
28.415,0.181
28.420,0.174
28.425,0.181
28.430,0.171
28.435,0.161
28.440,0.155
28.445,0.143
28.450,0.139
28.455,0.128
28.460,0.118
28.465,0.118
28.470,0.106
28.475,0.084
28.480,0.068
28.485,0.073
28.490,0.080
28.495,0.070
28.500,0.056
28.505,0.046
28.510,0.041
28.515,0.033
28.520,0.017
28.525,0.000
28.530,-0.007
28.535,0.016
28.540,0.033
28.545,0.015
28.550,-0.008
28.555,-0.024
28.560,-0.019
28.565,-0.018
28.570,-0.039
28.575,-0.053
28.580,-0.037
28.585,-0.020
28.590,-0.026
28.595,-0.029
28.600,-0.025
28.605,-0.023
28.610,-0.022
28.615,-0.039
28.620,-0.056
28.625,-0.044
28.630,-0.029
28.635,-0.028
28.640,-0.032
28.645,-0.036
28.650,-0.020
28.655,-0.003
28.660,-0.018
28.665,-0.027
28.670,-0.015
28.675,-0.007
28.680,-0.019
28.685,-0.040
28.690,-0.040
28.695,-0.039
28.700,-0.048
28.705,-0.044
28.710,-0.034
28.715,-0.026
28.720,-0.022
28.725,-0.013
28.730,-0.005
28.735,-0.016
28.740,-0.035
28.745,-0.045
28.750,-0.042
28.755,-0.040
28.760,-0.029
28.765,-0.010
28.770,-0.008
28.775,-0.009
28.780,-0.014
28.785,-0.029
28.790,-0.021
28.795,0.000
28.800,-0.013
28.805,-0.022
28.810,-0.013
28.815,-0.026
28.820,-0.043
28.825,-0.032
28.830,0.004
28.835,0.017
28.840,-0.002
28.845,-0.013
28.850,0.004
28.855,-0.006
28.860,-0.071
28.865,-0.098
28.870,-0.040
28.875,0.022
28.880,0.041
28.885,0.045
28.890,0.041
28.895,0.028
28.900,0.004
28.905,-0.021
28.910,-0.029
28.915,-0.035
28.920,-0.040
28.925,-0.051
28.930,-0.059
28.935,-0.033
28.940,0.001
28.945,0.015
28.950,0.003
28.955,-0.031
28.960,-0.059
28.965,-0.068
28.970,-0.054
28.975,-0.034
28.980,-0.027
28.985,-0.017
28.990,-0.016
28.995,-0.025
29.000,-0.026
29.005,-0.025
29.010,-0.007
29.015,0.015
29.020,0.019
29.025,0.026
29.030,0.033
29.035,0.031
29.040,0.031
29.045,0.033
29.050,0.018
29.055,0.002
29.060,0.007
29.065,0.022
29.070,0.033
29.075,0.024
29.080,0.013
29.085,0.018
29.090,0.016
29.095,0.022
29.100,0.046
29.105,0.056
29.110,0.023
29.115,-0.073
29.120,-0.245
29.125,-0.449
29.130,-0.627
29.135,-0.717
29.140,-0.679
29.145,-0.554
29.150,-0.372
29.155,-0.214
29.160,-0.149
29.165,-0.113
29.170,-0.066
29.175,0.009
29.180,0.102
29.185,0.164
29.190,0.215
29.195,0.250
29.200,0.250
29.205,0.244
29.210,0.251
29.215,0.252
29.220,0.245
29.225,0.243
29.230,0.238
29.235,0.227
29.240,0.214
29.245,0.199
29.250,0.192
29.255,0.190
29.260,0.181
29.265,0.160
29.270,0.136
29.275,0.125
29.280,0.120
29.285,0.114
29.290,0.109
29.295,0.110
29.300,0.109
29.305,0.103
29.310,0.097
29.315,0.092
29.320,0.084
29.325,0.073
29.330,0.067
29.335,0.060
29.340,0.047
29.345,0.039
29.350,0.029
29.355,0.024
29.360,0.027
29.365,0.023
29.370,0.016
29.375,0.005
29.380,-0.008
29.385,-0.006
29.390,0.002
29.395,0.003
29.400,-0.013
29.405,-0.033
29.410,-0.043
29.415,-0.037
29.420,-0.029
29.425,-0.038
29.430,-0.039
29.435,-0.033
29.440,-0.034
29.445,-0.032
29.450,-0.028
29.455,-0.014
29.460,-0.011
29.465,-0.023
29.470,-0.028
29.475,-0.026
29.480,-0.020
29.485,-0.019
29.490,-0.018
29.495,-0.020
29.500,-0.026
29.505,-0.025
29.510,-0.028
29.515,-0.024
29.520,-0.030
29.525,-0.046
29.530,-0.026
29.535,-0.006
29.540,-0.013
29.545,-0.020
29.550,-0.025
29.555,-0.021
29.560,-0.012
29.565,-0.016
29.570,-0.014
29.575,-0.009
29.580,-0.022
29.585,-0.025
29.590,-0.018
29.595,-0.016
29.600,-0.016
29.605,-0.015
29.610,-0.011
29.615,-0.019
29.620,-0.019
29.625,-0.001
29.630,0.009
29.635,0.004
29.640,-0.007
29.645,-0.005
29.650,0.000
29.655,-0.003
29.660,-0.007
29.665,-0.016
29.670,-0.020
29.675,-0.013
29.680,-0.008
29.685,-0.004
29.690,0.001
29.695,-0.001
29.700,-0.003
29.705,-0.004
29.710,-0.004
29.715,0.001
29.720,-0.002
29.725,-0.011
29.730,-0.011
29.735,-0.005
29.740,-0.001
29.745,0.000
29.750,-0.006
29.755,-0.010
29.760,-0.017
29.765,-0.025
29.770,-0.026
29.775,-0.028
29.780,-0.025
29.785,-0.020
29.790,-0.032
29.795,-0.038
29.800,-0.038
29.805,-0.045
29.810,-0.046
29.815,-0.049
29.820,-0.049
29.825,-0.045
29.830,-0.048
29.835,-0.043
29.840,-0.029
29.845,-0.018
29.850,-0.017
29.855,-0.022
29.860,-0.018
29.865,-0.009
29.870,0.005
29.875,0.020
29.880,0.028
29.885,0.022
29.890,0.013
29.895,0.018
29.900,0.026
29.905,0.025
29.910,0.017
29.915,0.016
29.920,0.025
29.925,0.033
29.930,0.026
29.935,0.015
29.940,0.019
29.945,0.040
29.950,0.061
29.955,0.058
29.960,0.030
29.965,-0.056
29.970,-0.230
29.975,-0.444
29.980,-0.644
29.985,-0.756
29.990,-0.743
29.995,-0.651
30.000,-0.494
30.005,-0.319
30.010,-0.207
30.015,-0.144
30.020,-0.081
30.025,-0.004
30.030,0.093
30.035,0.176
30.040,0.233
30.045,0.280
30.050,0.302
30.055,0.295
30.060,0.285
30.065,0.280
30.070,0.278
30.075,0.279
30.080,0.277
30.085,0.269
30.090,0.255
30.095,0.240
30.100,0.231
30.105,0.224
30.110,0.217
30.115,0.207
30.120,0.194
30.125,0.182
30.130,0.175
30.135,0.162
30.140,0.145
30.145,0.139
30.150,0.136
30.155,0.126
30.160,0.117
30.165,0.110
30.170,0.099
30.175,0.089
30.180,0.077
30.185,0.072
30.190,0.074
30.195,0.071
30.200,0.068
30.205,0.057
30.210,0.039
30.215,0.031
30.220,0.024
30.225,0.017
30.230,0.008
30.235,-0.001
30.240,-0.003
30.245,-0.008
30.250,-0.019
30.255,-0.025
30.260,-0.023
30.265,-0.030
30.270,-0.036
30.275,-0.037
30.280,-0.042
30.285,-0.040
30.290,-0.041
30.295,-0.048
30.300,-0.046
30.305,-0.040
30.310,-0.032
30.315,-0.029
30.320,-0.030
30.325,-0.031
30.330,-0.033
30.335,-0.034
30.340,-0.032
30.345,-0.029
30.350,-0.029
30.355,-0.023
30.360,-0.016
30.365,-0.014
30.370,-0.009
30.375,-0.003
30.380,-0.018
30.385,-0.053
30.390,-0.067
30.395,-0.055
30.400,-0.039
30.405,-0.025
30.410,-0.023
30.415,-0.032
30.420,-0.039
30.425,-0.041
30.430,-0.037
30.435,-0.028
30.440,-0.029
30.445,-0.028
30.450,-0.011
30.455,0.000
30.460,-0.002
30.465,0.000
30.470,-0.004
30.475,-0.014
30.480,-0.030
30.485,-0.043
30.490,-0.037
30.495,-0.027
30.500,-0.021
30.505,-0.020
30.510,-0.023
30.515,-0.021
30.520,-0.019
30.525,-0.018
30.530,-0.011
30.535,-0.007
30.540,-0.008
30.545,-0.009
30.550,-0.008
30.555,-0.006
30.560,-0.005
30.565,-0.005
30.570,-0.005
30.575,-0.008
30.580,-0.008
30.585,-0.007
30.590,-0.002
30.595,0.001
30.600,-0.010
30.605,-0.019
30.610,-0.018
30.615,-0.014
30.620,-0.011
30.625,-0.013
30.630,-0.018
30.635,-0.017
30.640,-0.013
30.645,-0.016
30.650,-0.026
30.655,-0.035
30.660,-0.038
30.665,-0.035
30.670,-0.038
30.675,-0.043
30.680,-0.038
30.685,-0.035
30.690,-0.039
30.695,-0.039
30.700,-0.036
30.705,-0.032
30.710,-0.025
30.715,-0.014
30.720,-0.006
30.725,0.002
30.730,0.011
30.735,0.023
30.740,0.035
30.745,0.038
30.750,0.033
30.755,0.032
30.760,0.035
30.765,0.041
30.770,0.040
30.775,0.028
30.780,0.020
30.785,0.026
30.790,0.034
30.795,0.031
30.800,0.027
30.805,0.040
30.810,0.058
30.815,0.061
30.820,0.029
30.825,-0.075
30.830,-0.260
30.835,-0.487
30.840,-0.685
30.845,-0.770
30.850,-0.748
30.855,-0.662
30.860,-0.503
30.865,-0.328
30.870,-0.215
30.875,-0.144
30.880,-0.076
30.885,0.006
30.890,0.097
30.895,0.174
30.900,0.238
30.905,0.291
30.910,0.311
30.915,0.309
30.920,0.316
30.925,0.324
30.930,0.317
30.935,0.311
30.940,0.307
30.945,0.297
30.950,0.282
30.955,0.268
30.960,0.247
30.965,0.223
30.970,0.210
30.975,0.203
30.980,0.194
30.985,0.187
30.990,0.177
30.995,0.169
31.000,0.167
31.005,0.159
31.010,0.140
31.015,0.123
31.020,0.108
31.025,0.098
31.030,0.091
31.035,0.085
31.040,0.083
31.045,0.080
31.050,0.070
31.055,0.061
31.060,0.055
31.065,0.049
31.070,0.043
31.075,0.036
31.080,0.026
31.085,0.012
31.090,0.002
31.095,-0.002
31.100,-0.008
31.105,-0.019
31.110,-0.030
31.115,-0.038
31.120,-0.039
31.125,-0.043
31.130,-0.051
31.135,-0.053
31.140,-0.051
31.145,-0.044
31.150,-0.038
31.155,-0.041
31.160,-0.049
31.165,-0.052
31.170,-0.048
31.175,-0.042
31.180,-0.039
31.185,-0.045
31.190,-0.043
31.195,-0.036
31.200,-0.039
31.205,-0.042
31.210,-0.040
31.215,-0.038
31.220,-0.036
31.225,-0.032
31.230,-0.029
31.235,-0.031
31.240,-0.034
31.245,-0.030
31.250,-0.027
31.255,-0.035
31.260,-0.043
31.265,-0.039
31.270,-0.031
31.275,-0.027
31.280,-0.027
31.285,-0.026
31.290,-0.021
31.295,-0.019
31.300,-0.020
31.305,-0.018
31.310,-0.013
31.315,-0.008
31.320,-0.008
31.325,-0.013
31.330,-0.017
31.335,-0.021
31.340,-0.025
31.345,-0.028
31.350,-0.029
31.355,-0.027
31.360,-0.026
31.365,-0.021
31.370,-0.013
31.375,-0.011
31.380,-0.010
31.385,-0.011
31.390,-0.013
31.395,-0.011
31.400,-0.012
31.405,-0.014
31.410,-0.013
31.415,-0.009
31.420,-0.005
31.425,-0.008
31.430,-0.013
31.435,-0.015
31.440,-0.012
31.445,-0.008
31.450,-0.006
31.455,-0.009
31.460,-0.014
31.465,-0.015
31.470,-0.017
31.475,-0.021
31.480,-0.023
31.485,-0.026
31.490,-0.028
31.495,-0.029
31.500,-0.025
31.505,-0.017
31.510,-0.021
31.515,-0.033
31.520,-0.039
31.525,-0.039
31.530,-0.040
31.535,-0.045
31.540,-0.046
31.545,-0.042
31.550,-0.049
31.555,-0.052
31.560,-0.033
31.565,-0.021
31.570,-0.020
31.575,-0.012
31.580,-0.004
31.585,0.014
31.590,0.030
31.595,0.027
31.600,0.025
31.605,0.025
31.610,0.021
31.615,0.025
31.620,0.030
31.625,0.028
31.630,0.027
31.635,0.027
31.640,0.026
31.645,0.025
31.650,0.022
31.655,0.024
31.660,0.035
31.665,0.055
31.670,0.071
31.675,0.061
31.680,0.007
31.685,-0.131
31.690,-0.339
31.695,-0.561
31.700,-0.740
31.705,-0.793
31.710,-0.724
31.715,-0.588
31.720,-0.409
31.725,-0.259
31.730,-0.176
31.735,-0.114
31.740,-0.048
31.745,0.042
31.750,0.146
31.755,0.221
31.760,0.267
31.765,0.297
31.770,0.309
31.775,0.309
31.780,0.306
31.785,0.300
31.790,0.293
31.795,0.284
31.800,0.273
31.805,0.265
31.810,0.255
31.815,0.243
31.820,0.229
31.825,0.216
31.830,0.209
31.835,0.197
31.840,0.181
31.845,0.177
31.850,0.173
31.855,0.159
31.860,0.147
31.865,0.140
31.870,0.130
31.875,0.122
31.880,0.116
31.885,0.109
31.890,0.103
31.895,0.091
31.900,0.079
31.905,0.070
31.910,0.065
31.915,0.060
31.920,0.053
31.925,0.050
31.930,0.044
31.935,0.029
31.940,0.019
31.945,0.010
31.950,-0.002
31.955,-0.004
31.960,-0.006
31.965,-0.013
31.970,-0.019
31.975,-0.028
31.980,-0.033
31.985,-0.035
31.990,-0.045
31.995,-0.048
32.000,-0.042
32.005,-0.045
32.010,-0.046
32.015,-0.038
32.020,-0.029
32.025,-0.028
32.030,-0.034
32.035,-0.037
32.040,-0.033
32.045,-0.030
32.050,-0.027
32.055,-0.022
32.060,-0.022
32.065,-0.033
32.070,-0.040
32.075,-0.036
32.080,-0.033
32.085,-0.037
32.090,-0.038
32.095,-0.030
32.100,-0.025
32.105,-0.028
32.110,-0.031
32.115,-0.033
32.120,-0.030
32.125,-0.031
32.130,-0.028
32.135,-0.022
32.140,-0.022
32.145,-0.024
32.150,-0.027
32.155,-0.026
32.160,-0.022
32.165,-0.023
32.170,-0.023
32.175,-0.022
32.180,-0.022
32.185,-0.022
32.190,-0.019
32.195,-0.016
32.200,-0.019
32.205,-0.020
32.210,-0.014
32.215,-0.005
32.220,-0.006
32.225,-0.017
32.230,-0.021
32.235,-0.015
32.240,-0.007
32.245,-0.013
32.250,-0.025
32.255,-0.021
32.260,-0.015
32.265,-0.015
32.270,-0.012
32.275,-0.015
32.280,-0.013
32.285,-0.007
32.290,-0.010
32.295,-0.016
32.300,-0.023
32.305,-0.024
32.310,-0.017
32.315,-0.013
32.320,-0.016
32.325,-0.021
32.330,-0.028
32.335,-0.030
32.340,-0.026
32.345,-0.022
32.350,-0.030
32.355,-0.041
32.360,-0.039
32.365,-0.033
32.370,-0.038
32.375,-0.051
32.380,-0.056
32.385,-0.054
32.390,-0.051
32.395,-0.044
32.400,-0.038
32.405,-0.032
32.410,-0.023
32.415,-0.009
32.420,0.004
32.425,0.015
32.430,0.025
32.435,0.025
32.440,0.023
32.445,0.023
32.450,0.016
32.455,0.012
32.460,0.015
32.465,0.019
32.470,0.025
32.475,0.024
32.480,0.020
32.485,0.021
32.490,0.015
32.495,0.016
32.500,0.034
32.505,0.053
32.510,0.060
32.515,0.038
32.520,-0.044
32.525,-0.207
32.530,-0.414
32.535,-0.607
32.540,-0.705
32.545,-0.672
32.550,-0.560
32.555,-0.400
32.560,-0.239
32.565,-0.149
32.570,-0.102
32.575,-0.054
32.580,0.008
32.585,0.093
32.590,0.165
32.595,0.209
32.600,0.241
32.605,0.251
32.610,0.248
32.615,0.250
32.620,0.249
32.625,0.244
32.630,0.237
32.635,0.231
32.640,0.227
32.645,0.219
32.650,0.207
32.655,0.190
32.660,0.175
32.665,0.169
32.670,0.167
32.675,0.161
32.680,0.154
32.685,0.147
32.690,0.139
32.695,0.121
32.700,0.109
32.705,0.108
32.710,0.099
32.715,0.088
32.720,0.080
32.725,0.074
32.730,0.070
32.735,0.064
32.740,0.063
32.745,0.061
32.750,0.050
32.755,0.040
32.760,0.033
32.765,0.029
32.770,0.024
32.775,0.018
32.780,0.012
32.785,0.005
32.790,-0.002
32.795,-0.005
32.800,-0.008
32.805,-0.017
32.810,-0.021
32.815,-0.024
32.820,-0.032
32.825,-0.035
32.830,-0.031
32.835,-0.030
32.840,-0.033
32.845,-0.033
32.850,-0.032
32.855,-0.032
32.860,-0.030
32.865,-0.026
32.870,-0.021
32.875,-0.018
32.880,-0.020
32.885,-0.021
32.890,-0.022
32.895,-0.025
32.900,-0.025
32.905,-0.022
32.910,-0.020
32.915,-0.018
32.920,-0.018
32.925,-0.022
32.930,-0.023
32.935,-0.021
32.940,-0.023
32.945,-0.023
32.950,-0.023
32.955,-0.021
32.960,-0.017
32.965,-0.018
32.970,-0.021
32.975,-0.025
32.980,-0.028
32.985,-0.025
32.990,-0.021
32.995,-0.020
33.000,-0.018
33.005,-0.016
33.010,-0.016
33.015,-0.016
33.020,-0.016
33.025,-0.014
33.030,-0.011
33.035,-0.014
33.040,-0.017
33.045,-0.014
33.050,-0.011
33.055,-0.010
33.060,-0.012
33.065,-0.012
33.070,-0.008
33.075,-0.008
33.080,-0.009
33.085,-0.006
33.090,-0.002
33.095,-0.005
33.100,-0.014
33.105,-0.013
33.110,-0.007
33.115,-0.006
33.120,-0.009
33.125,-0.012
33.130,-0.010
33.135,-0.009
33.140,-0.012
33.145,-0.011
33.150,-0.009
33.155,-0.005
33.160,-0.003
33.165,-0.008
33.170,-0.012
33.175,-0.016
33.180,-0.023
33.185,-0.025
33.190,-0.023
33.195,-0.024
33.200,-0.035
33.205,-0.043
33.210,-0.046
33.215,-0.045
33.220,-0.039
33.225,-0.037
33.230,-0.040
33.235,-0.043
33.240,-0.045
33.245,-0.043
33.250,-0.037
33.255,-0.024
33.260,-0.008
33.265,0.004
33.270,0.013
33.275,0.021
33.280,0.028
33.285,0.030
33.290,0.028
33.295,0.026
33.300,0.024
33.305,0.020
33.310,0.021
33.315,0.026
33.320,0.022
33.325,0.016
33.330,0.018
33.335,0.035
33.340,0.049
33.345,0.051
33.350,0.050
33.355,0.050
33.360,0.035
33.365,-0.013
33.370,-0.132
33.375,-0.320
33.380,-0.532
33.385,-0.711
33.390,-0.781
33.395,-0.732
33.400,-0.600
33.405,-0.414
33.410,-0.265
33.415,-0.190
33.420,-0.128
33.425,-0.055
33.430,0.036
33.435,0.136
33.440,0.217
33.445,0.284
33.450,0.328
33.455,0.324
33.460,0.307
33.465,0.312
33.470,0.311
33.475,0.307
33.480,0.315
33.485,0.290
33.490,0.247
33.495,0.232
33.500,0.229
33.505,0.216
33.510,0.200
33.515,0.187
33.520,0.186
33.525,0.179
33.530,0.160
33.535,0.160
33.540,0.163
33.545,0.146
33.550,0.124
33.555,0.116
33.560,0.119
33.565,0.114
33.570,0.108
33.575,0.103
33.580,0.092
33.585,0.080
33.590,0.079
33.595,0.076
33.600,0.056
33.605,0.043
33.610,0.041
33.615,0.040
33.620,0.035
33.625,0.021
33.630,0.006
33.635,-0.006
33.640,-0.012
33.645,-0.018
33.650,-0.024
33.655,-0.025
33.660,-0.024
33.665,-0.025
33.670,-0.037
33.675,-0.046
33.680,-0.043
33.685,-0.035
33.690,-0.039
33.695,-0.045
33.700,-0.035
33.705,-0.028
33.710,-0.033
33.715,-0.039
33.720,-0.042
33.725,-0.036
33.730,-0.031
33.735,-0.040
33.740,-0.038
33.745,-0.028
33.750,-0.026
33.755,-0.026
33.760,-0.030
33.765,-0.033
33.770,-0.029
33.775,-0.031
33.780,-0.033
33.785,-0.023
33.790,-0.016
33.795,-0.022
33.800,-0.032
33.805,-0.034
33.810,-0.033
33.815,-0.030
33.820,-0.026
33.825,-0.021
33.830,-0.015
33.835,-0.011
33.840,-0.011
33.845,-0.013
33.850,-0.013
33.855,-0.015
33.860,-0.019
33.865,-0.019
33.870,-0.014
33.875,-0.013
33.880,-0.012
33.885,-0.008
33.890,-0.011
33.895,-0.015
33.900,-0.018
33.905,-0.017
33.910,-0.010
33.915,-0.010
33.920,-0.018
33.925,-0.018
33.930,-0.013
33.935,-0.012
33.940,-0.011
33.945,-0.009
33.950,-0.008
33.955,-0.009
33.960,-0.011
33.965,-0.013
33.970,-0.012
33.975,-0.011
33.980,-0.002
33.985,0.002
33.990,-0.003
33.995,-0.007
34.000,-0.015
34.005,-0.017
34.010,-0.014
34.015,-0.010
34.020,0.000
34.025,-0.002
34.030,-0.026
34.035,-0.044
34.040,-0.041
34.045,-0.035
34.050,-0.032
34.055,-0.033
34.060,-0.038
34.065,-0.039
34.070,-0.039
34.075,-0.045
34.080,-0.054
34.085,-0.062
34.090,-0.061
34.095,-0.054
34.100,-0.052
34.105,-0.048
34.110,-0.030
34.115,-0.014
34.120,-0.004
34.125,0.011
34.130,0.021
34.135,0.020
34.140,0.018
34.145,0.019
34.150,0.026
34.155,0.039
34.160,0.053
34.165,0.058
34.170,0.048
34.175,0.026
34.180,0.024
34.185,0.032
34.190,0.008
34.195,-0.010
34.200,-0.001
34.205,0.015
34.210,0.035
34.215,0.041
34.220,0.031
34.225,-0.024
34.230,-0.180
34.235,-0.403
34.240,-0.617
34.245,-0.757
34.250,-0.777
34.255,-0.712
34.260,-0.580
34.265,-0.400
34.270,-0.260
34.275,-0.190
34.280,-0.128
34.285,-0.046
34.290,0.058
34.295,0.160
34.300,0.229
34.305,0.283
34.310,0.318
34.315,0.320
34.320,0.315
34.325,0.318
34.330,0.319
34.335,0.309
34.340,0.297
34.345,0.279
34.350,0.258
34.355,0.253
34.360,0.251
34.365,0.243
34.370,0.232
34.375,0.218
34.380,0.208
34.385,0.205
34.390,0.202
34.395,0.189
34.400,0.177
34.405,0.167
34.410,0.143
34.415,0.113
34.420,0.097
34.425,0.102
34.430,0.106
34.435,0.090
34.440,0.077
34.445,0.080
34.450,0.088
34.455,0.090
34.460,0.077
34.465,0.059
34.470,0.052
34.475,0.049
34.480,0.040
34.485,0.014
34.490,0.000
34.495,0.004
34.500,-0.002
34.505,-0.010
34.510,-0.016
34.515,-0.026
34.520,-0.029
34.525,-0.036
34.530,-0.040
34.535,-0.034
34.540,-0.033
34.545,-0.029
34.550,-0.027
34.555,-0.030
34.560,-0.028
34.565,-0.037
34.570,-0.052
34.575,-0.062
34.580,-0.063
34.585,-0.041
34.590,-0.025
34.595,-0.028
34.600,-0.030
34.605,-0.039
34.610,-0.050
34.615,-0.049
34.620,-0.045
34.625,-0.038
34.630,-0.029
34.635,-0.030
34.640,-0.036
34.645,-0.043
34.650,-0.046
34.655,-0.038
34.660,-0.027
34.665,-0.023
34.670,-0.024
34.675,-0.030
34.680,-0.037
34.685,-0.032
34.690,-0.028
34.695,-0.030
34.700,-0.027
34.705,-0.026
34.710,-0.017
34.715,-0.008
34.720,-0.019
34.725,-0.023
34.730,-0.017
34.735,-0.026
34.740,-0.035
34.745,-0.034
34.750,-0.023
34.755,-0.007
34.760,-0.006
34.765,-0.014
34.770,-0.011
34.775,-0.015
34.780,-0.029
34.785,-0.032
34.790,-0.022
34.795,-0.010
34.800,-0.001
34.805,-0.002
34.810,-0.018
34.815,-0.030
34.820,-0.022
34.825,-0.004
34.830,0.008
34.835,0.008
34.840,0.002
34.845,-0.004
34.850,-0.018
34.855,-0.022
34.860,-0.011
34.865,-0.001
34.870,-0.006
34.875,-0.021
34.880,-0.028
34.885,-0.023
34.890,-0.013
34.895,-0.019
34.900,-0.029
34.905,-0.023
34.910,-0.010
34.915,-0.003
34.920,-0.026
34.925,-0.068
34.930,-0.075
34.935,-0.060
34.940,-0.049
34.945,-0.049
34.950,-0.065
34.955,-0.064
34.960,-0.047
34.965,-0.029
34.970,-0.013
34.975,-0.009
34.980,-0.010
34.985,0.000
34.990,0.011
34.995,0.016
35.000,0.017
35.005,0.013
35.010,0.020
35.015,0.030
35.020,0.029
35.025,0.029
35.030,0.043
35.035,0.053
35.040,0.043
35.045,0.022
35.050,0.008
35.055,0.013
35.060,0.025
35.065,0.042
35.070,0.063
35.075,0.069
35.080,0.024
35.085,-0.102
35.090,-0.290
35.095,-0.509
35.100,-0.709
35.105,-0.806
35.110,-0.776
35.115,-0.662
35.120,-0.488
35.125,-0.318
35.130,-0.220
35.135,-0.161
35.140,-0.088
35.145,0.016
35.150,0.132
35.155,0.212
35.160,0.260
35.165,0.300
35.170,0.312
35.175,0.309
35.180,0.322
35.185,0.329
35.190,0.307
35.195,0.291
35.200,0.279
35.205,0.261
35.210,0.253
35.215,0.245
35.220,0.244
35.225,0.242
35.230,0.224
35.235,0.210
35.240,0.203
35.245,0.188
35.250,0.176
35.255,0.173
35.260,0.170
35.265,0.162
35.270,0.150
35.275,0.135
35.280,0.121
35.285,0.107
35.290,0.097
35.295,0.094
35.300,0.090
35.305,0.085
35.310,0.076
35.315,0.069
35.320,0.069
35.325,0.064
35.330,0.061
35.335,0.058
35.340,0.055
35.345,0.046
35.350,0.018
35.355,-0.008
35.360,-0.023
35.365,-0.033
35.370,-0.033
35.375,-0.029
35.380,-0.024
35.385,-0.022
35.390,-0.029
35.395,-0.040
35.400,-0.040
35.405,-0.044
35.410,-0.054
35.415,-0.047
35.420,-0.041
35.425,-0.042
35.430,-0.034
35.435,-0.026
35.440,-0.022
35.445,-0.029
35.450,-0.047
35.455,-0.048
35.460,-0.045
35.465,-0.048
35.470,-0.046
35.475,-0.038
35.480,-0.033
35.485,-0.033
35.490,-0.028
35.495,-0.021
35.500,-0.022
35.505,-0.028
35.510,-0.030
35.515,-0.026
35.520,-0.024
35.525,-0.035
35.530,-0.045
35.535,-0.042
35.540,-0.040
35.545,-0.033
35.550,-0.021
35.555,-0.017
35.560,-0.025
35.565,-0.034
35.570,-0.035
35.575,-0.027
35.580,-0.020
35.585,-0.018
35.590,-0.013
35.595,-0.009
35.600,-0.008
35.605,-0.009
35.610,-0.018
35.615,-0.028
35.620,-0.025
35.625,-0.010
35.630,0.007
35.635,0.004
35.640,-0.013
35.645,-0.025
35.650,-0.017
35.655,-0.003
35.660,-0.007
35.665,-0.022
35.670,-0.035
35.675,-0.028
35.680,-0.016
35.685,-0.015
35.690,-0.010
35.695,-0.013
35.700,-0.020
35.705,-0.016
35.710,-0.016
35.715,-0.018
35.720,-0.014
35.725,-0.006
35.730,0.000
35.735,-0.006
35.740,-0.019
35.745,-0.031
35.750,-0.043
35.755,-0.049
35.760,-0.042
35.765,-0.038
35.770,-0.045
35.775,-0.049
35.780,-0.047
35.785,-0.040
35.790,-0.029
35.795,-0.014
35.800,-0.023
35.805,-0.059
35.810,-0.073
35.815,-0.070
35.820,-0.061
35.825,-0.046
35.830,-0.034
35.835,-0.011
35.840,0.011
35.845,0.016
35.850,0.024
35.855,0.029
35.860,0.026
35.865,0.030
35.870,0.034
35.875,0.031
35.880,0.024
35.885,0.019
35.890,0.025
35.895,0.025
35.900,0.020
35.905,0.020
35.910,0.019
35.915,0.022
35.920,0.037
35.925,0.050
35.930,0.062
35.935,0.064
35.940,0.020
35.945,-0.095
35.950,-0.292
35.955,-0.541
35.960,-0.739
35.965,-0.808
35.970,-0.757
35.975,-0.634
35.980,-0.461
35.985,-0.302
35.990,-0.206
35.995,-0.144
36.000,-0.084
36.005,0.011
36.010,0.124
36.015,0.208
36.020,0.268
36.025,0.302
36.030,0.308
36.035,0.308
36.040,0.319
36.045,0.327
36.050,0.322
36.055,0.316
36.060,0.303
36.065,0.282
36.070,0.264
36.075,0.258
36.080,0.247
36.085,0.226
36.090,0.215
36.095,0.211
36.100,0.208
36.105,0.204
36.110,0.190
36.115,0.174
36.120,0.150
36.125,0.128
36.130,0.125
36.135,0.124
36.140,0.114
36.145,0.109
36.150,0.116
36.155,0.120
36.160,0.114
36.165,0.099
36.170,0.077
36.175,0.058
36.180,0.047
36.185,0.043
36.190,0.042
36.195,0.036
36.200,0.028
36.205,0.022
36.210,0.018
36.215,0.011
36.220,0.008
36.225,0.003
36.230,-0.010
36.235,-0.024
36.240,-0.034
36.245,-0.044
36.250,-0.051
36.255,-0.052
36.260,-0.047
36.265,-0.041
36.270,-0.040
36.275,-0.045
36.280,-0.053
36.285,-0.059
36.290,-0.058
36.295,-0.052
36.300,-0.044
36.305,-0.036
36.310,-0.033
36.315,-0.034
36.320,-0.032
36.325,-0.034
36.330,-0.039
36.335,-0.034
36.340,-0.033
36.345,-0.039
36.350,-0.049
36.355,-0.055
36.360,-0.047
36.365,-0.036
36.370,-0.034
36.375,-0.035
36.380,-0.033
36.385,-0.026
36.390,-0.016
36.395,-0.007
36.400,-0.008
36.405,-0.023
36.410,-0.035
36.415,-0.040
36.420,-0.045
36.425,-0.038
36.430,-0.030
36.435,-0.029
36.440,-0.025
36.445,-0.023
36.450,-0.020
36.455,-0.012
36.460,-0.008
36.465,-0.010
36.470,-0.015
36.475,-0.020
36.480,-0.015
36.485,-0.008
36.490,-0.011
36.495,-0.011
36.500,-0.013
36.505,-0.017
36.510,-0.022
36.515,-0.023
36.520,-0.012
36.525,-0.005
36.530,-0.011
36.535,-0.021
36.540,-0.023
36.545,-0.018
36.550,-0.012
36.555,-0.002
36.560,-0.001
36.565,-0.005
36.570,-0.009
36.575,-0.015
36.580,-0.015
36.585,-0.015
36.590,-0.018
36.595,-0.020
36.600,-0.021
36.605,-0.024
36.610,-0.029
36.615,-0.032
36.620,-0.033
36.625,-0.030
36.630,-0.028
36.635,-0.031
36.640,-0.036
36.645,-0.034
36.650,-0.034
36.655,-0.051
36.660,-0.065
36.665,-0.067
36.670,-0.062
36.675,-0.049
36.680,-0.039
36.685,-0.036
36.690,-0.023
36.695,-0.006
36.700,0.006
36.705,0.024
36.710,0.037
36.715,0.035
36.720,0.033
36.725,0.032
36.730,0.029
36.735,0.028
36.740,0.025
36.745,0.025
36.750,0.026
36.755,0.023
36.760,0.022
36.765,0.031
36.770,0.033
36.775,0.020
36.780,0.019
36.785,0.037
36.790,0.057
36.795,0.054
36.800,0.003
36.805,-0.128
36.810,-0.338
36.815,-0.568
36.820,-0.754
36.825,-0.804
36.830,-0.732
36.835,-0.606
36.840,-0.426
36.845,-0.273
36.850,-0.191
36.855,-0.117
36.860,-0.040
36.865,0.045
36.870,0.131
36.875,0.203
36.880,0.265
36.885,0.306
36.890,0.314
36.895,0.310
36.900,0.312
36.905,0.313
36.910,0.302
36.915,0.292
36.920,0.292
36.925,0.281
36.930,0.266
36.935,0.261
36.940,0.249
36.945,0.232
36.950,0.217
36.955,0.203
36.960,0.191
36.965,0.182
36.970,0.172
36.975,0.162
36.980,0.153
36.985,0.144
36.990,0.141
36.995,0.134
37.000,0.123
37.005,0.116
37.010,0.111
37.015,0.106
37.020,0.098
37.025,0.085
37.030,0.074
37.035,0.072
37.040,0.074
37.045,0.068
37.050,0.055
37.055,0.037
37.060,0.026
37.065,0.022
37.070,0.018
37.075,0.011
37.080,0.004
37.085,-0.001
37.090,-0.010
37.095,-0.021
37.100,-0.030
37.105,-0.037
37.110,-0.029
37.115,-0.029
37.120,-0.046
37.125,-0.065
37.130,-0.078
37.135,-0.072
37.140,-0.060
37.145,-0.063
37.150,-0.061
37.155,-0.053
37.160,-0.043
37.165,-0.030
37.170,-0.037
37.175,-0.051
37.180,-0.046
37.185,-0.038
37.190,-0.035
37.195,-0.032
37.200,-0.030
37.205,-0.030
37.210,-0.038
37.215,-0.046
37.220,-0.037
37.225,-0.028
37.230,-0.034
37.235,-0.046
37.240,-0.043
37.245,-0.031
37.250,-0.026
37.255,-0.024
37.260,-0.025
37.265,-0.024
37.270,-0.025
37.275,-0.027
37.280,-0.020
37.285,-0.015
37.290,-0.021
37.295,-0.036
37.300,-0.043
37.305,-0.028
37.310,-0.017
37.315,-0.016
37.320,-0.015
37.325,-0.014
37.330,-0.014
37.335,-0.018
37.340,-0.025
37.345,-0.029
37.350,-0.025
37.355,-0.015
37.360,-0.007
37.365,-0.009
37.370,-0.008
37.375,-0.001
37.380,-0.002
37.385,-0.003
37.390,-0.006
37.395,-0.007
37.400,-0.005
37.405,-0.008
37.410,-0.004
37.415,-0.001
37.420,-0.013
37.425,-0.020
37.430,-0.018
37.435,-0.018
37.440,-0.016
37.445,-0.009
37.450,0.010
37.455,0.014
37.460,-0.008
37.465,-0.036
37.470,-0.051
37.475,-0.052
37.480,-0.047
37.485,-0.033
37.490,-0.017
37.495,-0.015
37.500,-0.028
37.505,-0.039
37.510,-0.044
37.515,-0.047
37.520,-0.053
37.525,-0.057
37.530,-0.060
37.535,-0.061
37.540,-0.046
37.545,-0.029
37.550,-0.027
37.555,-0.025
37.560,-0.008
37.565,0.012
37.570,0.019
37.575,0.017
37.580,0.018
37.585,0.024
37.590,0.027
37.595,0.029
37.600,0.033
37.605,0.031
37.610,0.021
37.615,0.020
37.620,0.029
37.625,0.027
37.630,0.022
37.635,0.027
37.640,0.038
37.645,0.051
37.650,0.058
37.655,0.055
37.660,0.037
37.665,-0.040
37.670,-0.205
37.675,-0.431
37.680,-0.651
37.685,-0.779
37.690,-0.778
37.695,-0.684
37.700,-0.527
37.705,-0.349
37.710,-0.228
37.715,-0.162
37.720,-0.097
37.725,-0.004
37.730,0.107
37.735,0.197
37.740,0.258
37.745,0.306
37.750,0.320
37.755,0.300
37.760,0.286
37.765,0.286
37.770,0.291
37.775,0.292
37.780,0.286
37.785,0.277
37.790,0.260
37.795,0.255
37.800,0.256
37.805,0.244
37.810,0.222
37.815,0.194
37.820,0.181
37.825,0.180
37.830,0.177
37.835,0.174
37.840,0.165
37.845,0.154
37.850,0.147
37.855,0.129
37.860,0.112
37.865,0.105
37.870,0.097
37.875,0.089
37.880,0.086
37.885,0.082
37.890,0.076
37.895,0.071
37.900,0.063
37.905,0.059
37.910,0.060
37.915,0.053
37.920,0.045
37.925,0.039
37.930,0.034
37.935,0.029
37.940,0.018
37.945,-0.001
37.950,-0.018
37.955,-0.027
37.960,-0.033
37.965,-0.038
37.970,-0.040
37.975,-0.038
37.980,-0.046
37.985,-0.054
37.990,-0.045
37.995,-0.046
38.000,-0.061
38.005,-0.065
38.010,-0.054
38.015,-0.040
38.020,-0.038
38.025,-0.043
38.030,-0.046
38.035,-0.044
38.040,-0.039
38.045,-0.035
38.050,-0.037
38.055,-0.041
38.060,-0.040
38.065,-0.035
38.070,-0.031
38.075,-0.036
38.080,-0.037
38.085,-0.028
38.090,-0.026
38.095,-0.030
38.100,-0.035
38.105,-0.034
38.110,-0.031
38.115,-0.028
38.120,-0.029
38.125,-0.037
38.130,-0.039
38.135,-0.036
38.140,-0.040
38.145,-0.035
38.150,-0.028
38.155,-0.024
38.160,-0.017
38.165,-0.018
38.170,-0.021
38.175,-0.017
38.180,-0.015
38.185,-0.012
38.190,-0.009
38.195,-0.008
38.200,-0.009
38.205,-0.011
38.210,-0.003
38.215,0.002
38.220,-0.009
38.225,-0.022
38.230,-0.029
38.235,-0.029
38.240,-0.029
38.245,-0.028
38.250,-0.021
38.255,-0.010
38.260,-0.006
38.265,-0.013
38.270,-0.017
38.275,-0.013
38.280,-0.012
38.285,-0.009
38.290,-0.003
38.295,-0.003
38.300,0.000
38.305,0.007
38.310,0.006
38.315,-0.014
38.320,-0.040
38.325,-0.051
38.330,-0.047
38.335,-0.039
38.340,-0.035
38.345,-0.031
38.350,-0.027
38.355,-0.032
38.360,-0.040
38.365,-0.042
38.370,-0.044
38.375,-0.048
38.380,-0.051
38.385,-0.052
38.390,-0.050
38.395,-0.043
38.400,-0.034
38.405,-0.029
38.410,-0.026
38.415,-0.013
38.420,0.009
38.425,0.021
38.430,0.023
38.435,0.032
38.440,0.035
38.445,0.027
38.450,0.022
38.455,0.013
38.460,0.015
38.465,0.020
38.470,0.017
38.475,0.026
38.480,0.030
38.485,0.029
38.490,0.032
38.495,0.030
38.500,0.028
38.505,0.037
38.510,0.052
38.515,0.062
38.520,0.039
38.525,-0.058
38.530,-0.235
38.535,-0.462
38.540,-0.679
38.545,-0.796
38.550,-0.775
38.555,-0.666
38.560,-0.504
38.565,-0.332
38.570,-0.217
38.575,-0.150
38.580,-0.087
38.585,0.000
38.590,0.113
38.595,0.209
38.600,0.267
38.605,0.301
38.610,0.314
38.615,0.310
38.620,0.307
38.625,0.309
38.630,0.301
38.635,0.286
38.640,0.279
38.645,0.274
38.650,0.263
38.655,0.253
38.660,0.243
38.665,0.233
38.670,0.228
38.675,0.221
38.680,0.205
38.685,0.186
38.690,0.171
38.695,0.161
38.700,0.149
38.705,0.139
38.710,0.134
38.715,0.126
38.720,0.121
38.725,0.115
38.730,0.106
38.735,0.103
38.740,0.096
38.745,0.086
38.750,0.077
38.755,0.068
38.760,0.064
38.765,0.055
38.770,0.045
38.775,0.041
38.780,0.033
38.785,0.018
38.790,0.005
38.795,0.007
38.800,0.015
38.805,0.008
38.810,-0.010
38.815,-0.023
38.820,-0.028
38.825,-0.032
38.830,-0.036
38.835,-0.042
38.840,-0.050
38.845,-0.059
38.850,-0.064
38.855,-0.055
38.860,-0.046
38.865,-0.043
38.870,-0.036
38.875,-0.035
38.880,-0.039
38.885,-0.040
38.890,-0.038
38.895,-0.034
38.900,-0.038
38.905,-0.045
38.910,-0.045
38.915,-0.045
38.920,-0.042
38.925,-0.036
38.930,-0.037
38.935,-0.036
38.940,-0.024
38.945,-0.012
38.950,-0.017
38.955,-0.031
38.960,-0.045
38.965,-0.050
38.970,-0.044
38.975,-0.041
38.980,-0.036
38.985,-0.025
38.990,-0.023
38.995,-0.027
39.000,-0.023
39.005,-0.017
39.010,-0.014
39.015,-0.022
39.020,-0.030
39.025,-0.023
39.030,-0.008
39.035,0.000
39.040,-0.014
39.045,-0.024
39.050,-0.016
39.055,-0.014
39.060,-0.013
39.065,-0.015
39.070,-0.012
39.075,-0.001
39.080,-0.002
39.085,-0.010
39.090,-0.012
39.095,-0.013
39.100,-0.010
39.105,-0.008
39.110,-0.004
39.115,-0.001
39.120,-0.011
39.125,-0.023
39.130,-0.027
39.135,-0.018
39.140,-0.004
39.145,0.005
39.150,-0.001
39.155,-0.027
39.160,-0.040
39.165,-0.026
39.170,-0.005
39.175,-0.003
39.180,-0.019
39.185,-0.032
39.190,-0.034
39.195,-0.032
39.200,-0.030
39.205,-0.028
39.210,-0.032
39.215,-0.041
39.220,-0.049
39.225,-0.049
39.230,-0.046
39.235,-0.042
39.240,-0.040
39.245,-0.045
39.250,-0.046
39.255,-0.033
39.260,-0.018
39.265,-0.006
39.270,0.003
39.275,0.008
39.280,0.016
39.285,0.020
39.290,0.019
39.295,0.020
39.300,0.020
39.305,0.020
39.310,0.022
39.315,0.017
39.320,0.014
39.325,0.025
39.330,0.026
39.335,0.016
39.340,0.016
39.345,0.020
39.350,0.029
39.355,0.049
39.360,0.074
39.365,0.086
39.370,0.045
39.375,-0.075
39.380,-0.265
39.385,-0.486
39.390,-0.677
39.395,-0.756
39.400,-0.698
39.405,-0.556
39.410,-0.373
39.415,-0.219
39.420,-0.133
39.425,-0.079
39.430,-0.034
39.435,0.037
39.440,0.133
39.445,0.205
39.450,0.247
39.455,0.263
39.460,0.261
39.465,0.260
39.470,0.258
39.475,0.248
39.480,0.238
39.485,0.235
39.490,0.236
39.495,0.233
39.500,0.227
39.505,0.220
39.510,0.207
39.515,0.190
39.520,0.183
39.525,0.178
39.530,0.164
39.535,0.151
39.540,0.142
39.545,0.139
39.550,0.131
39.555,0.121
39.560,0.111
39.565,0.098
39.570,0.091
39.575,0.086
39.580,0.085
39.585,0.081
39.590,0.072
39.595,0.069
39.600,0.073
39.605,0.066
39.610,0.042
39.615,0.025
39.620,0.023
39.625,0.024
39.630,0.020
39.635,0.015
39.640,0.012
39.645,0.009
39.650,0.007
39.655,0.003
39.660,-0.013
39.665,-0.030
39.670,-0.044
39.675,-0.043
39.680,-0.035
39.685,-0.042
39.690,-0.041
39.695,-0.023
39.700,-0.012
39.705,-0.018
39.710,-0.039
39.715,-0.048
39.720,-0.039
39.725,-0.033
39.730,-0.028
39.735,-0.024
39.740,-0.029
39.745,-0.029
39.750,-0.017
39.755,-0.013
39.760,-0.017
39.765,-0.027
39.770,-0.033
39.775,-0.021
39.780,-0.015
39.785,-0.021
39.790,-0.025
39.795,-0.030
39.800,-0.033
39.805,-0.030
39.810,-0.036
39.815,-0.040
39.820,-0.037
39.825,-0.036
39.830,-0.029
39.835,-0.026
39.840,-0.030
39.845,-0.037
39.850,-0.040
39.855,-0.027
39.860,-0.011
39.865,-0.008
39.870,-0.015
39.875,-0.015
39.880,-0.009
39.885,-0.021
39.890,-0.034
39.895,-0.027
39.900,-0.020
39.905,-0.017
39.910,-0.013
39.915,-0.011
39.920,-0.004
39.925,0.000
39.930,0.000
39.935,0.005
39.940,0.005
39.945,-0.008
39.950,-0.013
39.955,-0.008
39.960,-0.009
39.965,-0.009
39.970,-0.012
39.975,-0.010
39.980,-0.003
39.985,0.002
39.990,-0.001
39.995,-0.010
40.000,-0.004
40.005,0.008
40.010,-0.008
40.015,-0.035
40.020,-0.049
40.025,-0.048
40.030,-0.034
40.035,-0.030
40.040,-0.033
40.045,-0.027
40.050,-0.018
40.055,-0.005
40.060,-0.011
40.065,-0.049
40.070,-0.080
40.075,-0.083
40.080,-0.075
40.085,-0.064
40.090,-0.048
40.095,-0.035
40.100,-0.020
40.105,-0.009
40.110,0.003
40.115,0.024
40.120,0.026
40.125,0.016
40.130,0.017
40.135,0.024
40.140,0.038
40.145,0.045
40.150,0.033
40.155,0.016
40.160,0.003
40.165,-0.003
40.170,0.001
40.175,0.013
40.180,0.025
40.185,0.029
40.190,0.037
40.195,0.057
40.200,0.075
40.205,0.066
40.210,0.016
40.215,-0.088
40.220,-0.257
40.225,-0.458
40.230,-0.646
40.235,-0.739
40.240,-0.694
40.245,-0.572
40.250,-0.403
40.255,-0.252
40.260,-0.183
40.265,-0.102
40.270,-0.023
40.275,0.021
40.280,0.111
40.285,0.192
40.290,0.241
40.295,0.285
40.300,0.273
40.305,0.249
40.310,0.250
40.315,0.261
40.320,0.273
40.325,0.270
40.330,0.251
40.335,0.227
40.340,0.237
40.345,0.260
40.350,0.242
40.355,0.213
40.360,0.193
40.365,0.173
40.370,0.152
40.375,0.149
40.380,0.148
40.385,0.148
40.390,0.157
40.395,0.136
40.400,0.118
40.405,0.115
40.410,0.100
40.415,0.091
40.420,0.087
40.425,0.086
40.430,0.081
40.435,0.064
40.440,0.045
40.445,0.032
40.450,0.032
40.455,0.038
40.460,0.023
40.465,0.008
40.470,0.013
40.475,0.017
40.480,0.017
40.485,0.006
40.490,-0.006
40.495,-0.015
40.500,-0.027
40.505,-0.029
40.510,-0.028
40.515,-0.027
40.520,-0.033
40.525,-0.042
40.530,-0.054
40.535,-0.052
40.540,-0.045
40.545,-0.053
40.550,-0.041
40.555,-0.019
40.560,-0.015
40.565,-0.022
40.570,-0.029
40.575,-0.016
40.580,-0.011
40.585,-0.022
40.590,-0.031
40.595,-0.046
40.600,-0.055
40.605,-0.056
40.610,-0.033
40.615,-0.006
40.620,-0.018
40.625,-0.028
40.630,-0.028
40.635,-0.028
40.640,-0.023
40.645,-0.021
40.650,-0.022
40.655,-0.028
40.660,-0.033
40.665,-0.032
40.670,-0.046
40.675,-0.040
40.680,-0.008
40.685,-0.007
40.690,-0.015
40.695,-0.025
40.700,-0.022
40.705,-0.009
40.710,-0.020
40.715,-0.025
40.720,-0.016
40.725,-0.014
40.730,-0.023
40.735,-0.026
40.740,-0.012
40.745,-0.012
40.750,-0.018
40.755,-0.014
40.760,-0.012
40.765,-0.005
40.770,0.001
40.775,-0.003
40.780,-0.011
40.785,-0.011
40.790,-0.004
40.795,-0.005
40.800,-0.015
40.805,-0.017
40.810,-0.009
40.815,-0.005
40.820,-0.012
40.825,-0.013
40.830,0.001
40.835,0.009
40.840,-0.004
40.845,-0.015
40.850,-0.017
40.855,-0.020
40.860,-0.019
40.865,-0.019
40.870,-0.022
40.875,-0.022
40.880,-0.021
40.885,-0.019
40.890,-0.023
40.895,-0.031
40.900,-0.036
40.905,-0.044
40.910,-0.052
40.915,-0.055
40.920,-0.050
40.925,-0.045
40.930,-0.046
40.935,-0.045
40.940,-0.040
40.945,-0.030
40.950,-0.021
40.955,-0.019
40.960,-0.016
40.965,-0.004
40.970,0.013
40.975,0.026
40.980,0.027
40.985,0.023
40.990,0.026
40.995,0.031
41.000,0.032
41.005,0.030
41.010,0.026
41.015,0.024
41.020,0.031
41.025,0.033
41.030,0.026
41.035,0.022
41.040,0.026
41.045,0.039
41.050,0.055
41.055,0.057
41.060,0.050
41.065,0.019
41.070,-0.094
41.075,-0.287
41.080,-0.514
41.085,-0.709
41.090,-0.780
41.095,-0.731
41.100,-0.621
41.105,-0.450
41.110,-0.283
41.115,-0.186
41.120,-0.121
41.125,-0.055
41.130,0.031
41.135,0.131
41.140,0.210
41.145,0.260
41.150,0.298
41.155,0.311
41.160,0.302
41.165,0.298
41.170,0.295
41.175,0.286
41.180,0.281
41.185,0.274
41.190,0.265
41.195,0.259
41.200,0.252
41.205,0.242
41.210,0.226
41.215,0.213
41.220,0.205
41.225,0.194
41.230,0.184
41.235,0.176
41.240,0.167
41.245,0.158
41.250,0.148
41.255,0.139
41.260,0.125
41.265,0.110
41.270,0.102
41.275,0.095
41.280,0.084
41.285,0.079
41.290,0.078
41.295,0.074
41.300,0.066
41.305,0.054
41.310,0.044
41.315,0.040
41.320,0.034
41.325,0.025
41.330,0.020
41.335,0.013
41.340,0.002
41.345,-0.006
41.350,-0.013
41.355,-0.022
41.360,-0.030
41.365,-0.035
41.370,-0.035
41.375,-0.034
41.380,-0.044
41.385,-0.049
41.390,-0.044
41.395,-0.039
41.400,-0.033
41.405,-0.030
41.410,-0.031
41.415,-0.033
41.420,-0.036
41.425,-0.033
41.430,-0.026
41.435,-0.025
41.440,-0.033
41.445,-0.040
41.450,-0.039
41.455,-0.031
41.460,-0.026
41.465,-0.029
41.470,-0.032
41.475,-0.029
41.480,-0.024
41.485,-0.025
41.490,-0.026
41.495,-0.021
41.500,-0.021
41.505,-0.023
41.510,-0.030
41.515,-0.037
41.520,-0.033
41.525,-0.026
41.530,-0.023
41.535,-0.026
41.540,-0.026
41.545,-0.020
41.550,-0.018
41.555,-0.016
41.560,-0.011
41.565,-0.011
41.570,-0.016
41.575,-0.021
41.580,-0.022
41.585,-0.021
41.590,-0.027
41.595,-0.025
41.600,-0.014
41.605,-0.010
41.610,-0.015
41.615,-0.017
41.620,-0.015
41.625,-0.019
41.630,-0.023
41.635,-0.019
41.640,-0.019
41.645,-0.018
41.650,-0.014
41.655,-0.012
41.660,-0.005
41.665,-0.007
41.670,-0.012
41.675,-0.011
41.680,-0.014
41.685,-0.017
41.690,-0.015
41.695,-0.017
41.700,-0.025
41.705,-0.029
41.710,-0.032
41.715,-0.038
41.720,-0.039
41.725,-0.036
41.730,-0.033
41.735,-0.028
41.740,-0.030
41.745,-0.038
41.750,-0.044
41.755,-0.052
41.760,-0.056
41.765,-0.054
41.770,-0.054
41.775,-0.049
41.780,-0.040
41.785,-0.035
41.790,-0.031
41.795,-0.018
41.800,-0.002
41.805,0.006
41.810,0.013
41.815,0.016
41.820,0.020
41.825,0.021
41.830,0.015
41.835,0.014
41.840,0.017
41.845,0.015
41.850,0.013
41.855,0.017
41.860,0.017
41.865,0.015
41.870,0.019
41.875,0.021
41.880,0.022
41.885,0.033
41.890,0.050
41.895,0.061
41.900,0.047
41.905,-0.031
41.910,-0.181
41.915,-0.374
41.920,-0.577
41.925,-0.707
41.930,-0.703
41.935,-0.604
41.940,-0.446
41.945,-0.272
41.950,-0.163
41.955,-0.116
41.960,-0.070
41.965,-0.009
41.970,0.077
41.975,0.162
41.980,0.217
41.985,0.251
41.990,0.259
41.995,0.249
42.000,0.246
42.005,0.254
42.010,0.254
42.015,0.244
42.020,0.239
42.025,0.235
42.030,0.225
42.035,0.215
42.040,0.205
42.045,0.192
42.050,0.182
42.055,0.175
42.060,0.167
42.065,0.154
42.070,0.142
42.075,0.134
42.080,0.128
42.085,0.126
42.090,0.118
42.095,0.107
42.100,0.103
42.105,0.096
42.110,0.085
42.115,0.076
42.120,0.068
42.125,0.061
42.130,0.054
42.135,0.045
42.140,0.043
42.145,0.036
42.150,0.025
42.155,0.023
42.160,0.015
42.165,0.010
42.170,0.008
42.175,0.001
42.180,-0.005
42.185,-0.010
42.190,-0.014
42.195,-0.019
42.200,-0.024
42.205,-0.025
42.210,-0.024
42.215,-0.030
42.220,-0.041
42.225,-0.038
42.230,-0.031
42.235,-0.032
42.240,-0.031
42.245,-0.027
42.250,-0.023
42.255,-0.018
42.260,-0.018
42.265,-0.022
42.270,-0.020
42.275,-0.017
42.280,-0.016
42.285,-0.016
42.290,-0.015
42.295,-0.014
42.300,-0.020
42.305,-0.026
42.310,-0.025
42.315,-0.019
42.320,-0.020
42.325,-0.027
42.330,-0.027
42.335,-0.020
42.340,-0.016
42.345,-0.021
42.350,-0.029
42.355,-0.032
42.360,-0.035
42.365,-0.029
42.370,-0.020
42.375,-0.020
42.380,-0.021
42.385,-0.024
42.390,-0.023
42.395,-0.015
42.400,-0.012
42.405,-0.015
42.410,-0.016
42.415,-0.017
42.420,-0.017
42.425,-0.015
42.430,-0.014
42.435,-0.011
42.440,-0.010
42.445,-0.014
42.450,-0.018
42.455,-0.018
42.460,-0.013
42.465,-0.011
42.470,-0.008
42.475,-0.010
42.480,-0.010
42.485,-0.006
42.490,-0.011
42.495,-0.015
42.500,-0.014
42.505,-0.012
42.510,-0.011
42.515,-0.008
42.520,-0.007
42.525,-0.009
42.530,-0.008
42.535,-0.012
42.540,-0.012
42.545,-0.010
42.550,-0.017
42.555,-0.022
42.560,-0.020
42.565,-0.020
42.570,-0.021
42.575,-0.026
42.580,-0.036
42.585,-0.040
42.590,-0.042
42.595,-0.044
42.600,-0.042
42.605,-0.036
42.610,-0.041
42.615,-0.051
42.620,-0.044
42.625,-0.034
42.630,-0.028
42.635,-0.023
42.640,-0.012
42.645,0.008
42.650,0.015
42.655,0.015
42.660,0.019
42.665,0.022
42.670,0.023
42.675,0.022
42.680,0.021
42.685,0.022
42.690,0.022
42.695,0.020
42.700,0.019
42.705,0.018
42.710,0.015
42.715,0.020
42.720,0.031
42.725,0.042
42.730,0.054
42.735,0.055
42.740,0.033
42.745,-0.037
42.750,-0.189
42.755,-0.389
42.760,-0.583
42.765,-0.707
42.770,-0.710
42.775,-0.628
42.780,-0.484
42.785,-0.312
42.790,-0.191
42.795,-0.126
42.800,-0.076
42.805,-0.012
42.810,0.077
42.815,0.161
42.820,0.215
42.825,0.251
42.830,0.269
42.835,0.267
42.840,0.266
42.845,0.271
42.850,0.268
42.855,0.259
42.860,0.253
42.865,0.247
42.870,0.240
42.875,0.232
42.880,0.219
42.885,0.206
42.890,0.193
42.895,0.184
42.900,0.177
42.905,0.164
42.910,0.154
42.915,0.147
42.920,0.140
42.925,0.135
42.930,0.125
42.935,0.115
42.940,0.108
42.945,0.100
42.950,0.090
42.955,0.085
42.960,0.078
42.965,0.072
42.970,0.067
42.975,0.059
42.980,0.050
42.985,0.042
42.990,0.035
42.995,0.025
43.000,0.018
43.005,0.016
43.010,0.011
43.015,0.003
43.020,-0.005
43.025,-0.013
43.030,-0.017
43.035,-0.022
43.040,-0.029
43.045,-0.033
43.050,-0.038
43.055,-0.041
43.060,-0.040
43.065,-0.038
43.070,-0.036
43.075,-0.035
43.080,-0.035
43.085,-0.035
43.090,-0.031
43.095,-0.025
43.100,-0.026
43.105,-0.028
43.110,-0.025
43.115,-0.022
43.120,-0.024
43.125,-0.025
43.130,-0.025
43.135,-0.025
43.140,-0.025
43.145,-0.026
43.150,-0.026
43.155,-0.021
43.160,-0.014
43.165,-0.016
43.170,-0.025
43.175,-0.029
43.180,-0.030
43.185,-0.025
43.190,-0.023
43.195,-0.026
43.200,-0.022
43.205,-0.018
43.210,-0.020
43.215,-0.020
43.220,-0.022
43.225,-0.023
43.230,-0.020
43.235,-0.019
43.240,-0.017
43.245,-0.016
43.250,-0.019
43.255,-0.019
43.260,-0.018
43.265,-0.017
43.270,-0.015
43.275,-0.011
43.280,-0.007
43.285,-0.009
43.290,-0.014
43.295,-0.017
43.300,-0.016
43.305,-0.011
43.310,-0.008
43.315,-0.009
43.320,-0.009
43.325,-0.013
43.330,-0.011
43.335,-0.008
43.340,-0.010
43.345,-0.013
43.350,-0.013
43.355,-0.012
43.360,-0.013
43.365,-0.016
43.370,-0.014
43.375,-0.006
43.380,-0.005
43.385,-0.011
43.390,-0.012
43.395,-0.015
43.400,-0.016
43.405,-0.017
43.410,-0.022
43.415,-0.024
43.420,-0.021
43.425,-0.021
43.430,-0.025
43.435,-0.030
43.440,-0.033
43.445,-0.037
43.450,-0.042
43.455,-0.044
43.460,-0.043
43.465,-0.043
43.470,-0.045
43.475,-0.046
43.480,-0.038
43.485,-0.033
43.490,-0.029
43.495,-0.013
43.500,0.001
43.505,0.007
43.510,0.015
43.515,0.022
43.520,0.026
43.525,0.024
43.530,0.018
43.535,0.019
43.540,0.023
43.545,0.023
43.550,0.018
43.555,0.017
43.560,0.020
43.565,0.021
43.570,0.021
43.575,0.022
43.580,0.026
43.585,0.043
43.590,0.057
43.595,0.054
43.600,0.028
43.605,-0.059
43.610,-0.230
43.615,-0.446
43.620,-0.646
43.625,-0.754
43.630,-0.749
43.635,-0.672
43.640,-0.527
43.645,-0.352
43.650,-0.228
43.655,-0.158
43.660,-0.096
43.665,-0.017
43.670,0.079
43.675,0.166
43.680,0.232
43.685,0.285
43.690,0.313
43.695,0.315
43.700,0.310
43.705,0.307
43.710,0.300
43.715,0.289
43.720,0.286
43.725,0.280
43.730,0.268
43.735,0.256
43.740,0.247
43.745,0.233
43.750,0.220
43.755,0.210
43.760,0.197
43.765,0.187
43.770,0.184
43.775,0.174
43.780,0.158
43.785,0.148
43.790,0.138
43.795,0.127
43.800,0.120
43.805,0.113
43.810,0.106
43.815,0.101
43.820,0.094
43.825,0.086
43.830,0.075
43.835,0.063
43.840,0.055
43.845,0.052
43.850,0.049
43.855,0.038
43.860,0.029
43.865,0.026
43.870,0.017
43.875,0.005
43.880,-0.006
43.885,-0.018
43.890,-0.023
43.895,-0.027
43.900,-0.034
43.905,-0.038
43.910,-0.043
43.915,-0.044
43.920,-0.042
43.925,-0.043
43.930,-0.043
43.935,-0.043
43.940,-0.043
43.945,-0.039
43.950,-0.036
43.955,-0.031
43.960,-0.030
43.965,-0.035
43.970,-0.036
43.975,-0.034
43.980,-0.033
43.985,-0.035
43.990,-0.033
43.995,-0.032
44.000,-0.035
44.005,-0.036
44.010,-0.037
44.015,-0.034
44.020,-0.032
44.025,-0.032
44.030,-0.033
44.035,-0.029
44.040,-0.027
44.045,-0.031
44.050,-0.029
44.055,-0.028
44.060,-0.027
44.065,-0.024
44.070,-0.026
44.075,-0.021
44.080,-0.014
44.085,-0.024
44.090,-0.031
44.095,-0.025
44.100,-0.020
44.105,-0.016
44.110,-0.016
44.115,-0.021
44.120,-0.020
44.125,-0.019
44.130,-0.016
44.135,-0.010
44.140,-0.009
44.145,-0.012
44.150,-0.015
44.155,-0.016
44.160,-0.022
44.165,-0.023
44.170,-0.019
44.175,-0.018
44.180,-0.017
44.185,-0.017
44.190,-0.016
44.195,-0.013
44.200,-0.012
44.205,-0.013
44.210,-0.015
44.215,-0.014
44.220,-0.012
44.225,-0.012
44.230,-0.014
44.235,-0.015
44.240,-0.010
44.245,-0.006
44.250,-0.013
44.255,-0.022
44.260,-0.022
44.265,-0.018
44.270,-0.017
44.275,-0.017
44.280,-0.023
44.285,-0.027
44.290,-0.027
44.295,-0.027
44.300,-0.032
44.305,-0.039
44.310,-0.044
44.315,-0.045
44.320,-0.046
44.325,-0.052
44.330,-0.054
44.335,-0.050
44.340,-0.044
44.345,-0.037
44.350,-0.032
44.355,-0.030
44.360,-0.019
44.365,-0.004
44.370,0.010
44.375,0.022
44.380,0.024
44.385,0.024
44.390,0.024
44.395,0.023
44.400,0.028
44.405,0.028
44.410,0.022
44.415,0.022
44.420,0.025
44.425,0.025
44.430,0.021
44.435,0.020
44.440,0.025
44.445,0.026
44.450,0.033
44.455,0.045
44.460,0.050
44.465,0.036
44.470,-0.037
44.475,-0.195
44.480,-0.408
44.485,-0.623
44.490,-0.762
44.495,-0.782
44.500,-0.715
44.505,-0.574
44.510,-0.392
44.515,-0.259
44.520,-0.189
44.525,-0.124
44.530,-0.035
44.535,0.070
44.540,0.163
44.545,0.233
44.550,0.289
44.555,0.322
44.560,0.323
44.565,0.313
44.570,0.317
44.575,0.318
44.580,0.310
44.585,0.305
44.590,0.290
44.595,0.271
44.600,0.262
44.605,0.256
44.610,0.245
44.615,0.231
44.620,0.221
44.625,0.209
44.630,0.192
44.635,0.184
44.640,0.179
44.645,0.169
44.650,0.159
44.655,0.147
44.660,0.141
44.665,0.133
44.670,0.120
44.675,0.111
44.680,0.105
44.685,0.095
44.690,0.087
44.695,0.081
44.700,0.073
44.705,0.067
44.710,0.058
44.715,0.048
44.720,0.041
44.725,0.035
44.730,0.027
44.735,0.016
44.740,0.003
44.745,-0.006
44.750,-0.009
44.755,-0.018
44.760,-0.029
44.765,-0.031
44.770,-0.034
44.775,-0.041
44.780,-0.046
44.785,-0.049
44.790,-0.048
44.795,-0.045
