'Elapsed time','ECG'
'seconds','mV'
0.000,-0.083
0.005,-0.054
0.010,-0.074
0.015,0.034
0.020,0.164
0.025,0.119
0.030,0.080
0.035,0.054
0.040,-0.169
0.045,-0.452
0.050,-0.553
0.055,-0.528
0.060,-0.451
0.065,-0.311
0.070,-0.170
0.075,-0.062
0.080,0.006
0.085,0.031
0.090,0.039
0.095,0.029
0.100,0.031
0.105,0.049
0.110,0.049
0.115,0.047
0.120,0.051
0.125,0.046
0.130,0.047
0.135,0.056
0.140,0.054
0.145,0.045
0.150,0.051
0.155,0.057
0.160,0.049
0.165,0.054
0.170,0.066
0.175,0.061
0.180,0.054
0.185,0.062
0.190,0.067
0.195,0.066
0.200,0.069
0.205,0.068
0.210,0.068
0.215,0.076
0.220,0.090
0.225,0.092
0.230,0.089
0.235,0.099
0.240,0.111
0.245,0.115
0.250,0.130
0.255,0.143
0.260,0.143
0.265,0.150
0.270,0.162
0.275,0.161
0.280,0.154
0.285,0.158
0.290,0.156
0.295,0.145
0.300,0.144
0.305,0.139
0.310,0.123
0.315,0.115
0.320,0.102
0.325,0.068
0.330,0.040
0.335,0.024
0.340,0.000
0.345,-0.025
0.350,-0.037
0.355,-0.053
0.360,-0.082
0.365,-0.098
0.370,-0.103
0.375,-0.117
0.380,-0.125
0.385,-0.121
0.390,-0.129
0.395,-0.138
0.400,-0.132
0.405,-0.127
0.410,-0.130
0.415,-0.128
0.420,-0.124
0.425,-0.124
0.430,-0.119
0.435,-0.108
0.440,-0.107
0.445,-0.107
0.450,-0.091
0.455,-0.079
0.460,-0.085
0.465,-0.081
0.470,-0.068
0.475,-0.067
0.480,-0.065
0.485,-0.051
0.490,-0.045
0.495,-0.044
0.500,-0.036
0.505,-0.030
0.510,-0.036
0.515,-0.031
0.520,-0.018
0.525,-0.019
0.530,-0.022
0.535,-0.018
0.540,-0.017
0.545,-0.019
0.550,-0.010
0.555,0.000
0.560,-0.007
0.565,-0.013
0.570,-0.010
0.575,-0.016
0.580,-0.016
0.585,-0.007
0.590,-0.010
0.595,-0.014
0.600,-0.008
0.605,-0.005
0.610,-0.012
0.615,-0.011
0.620,-0.006
0.625,-0.010
0.630,-0.009
0.635,0.003
0.640,-0.005
0.645,-0.019
0.650,-0.010
0.655,-0.001
0.660,-0.005
0.665,-0.003
0.670,0.003
0.675,-0.007
0.680,-0.015
0.685,-0.003
0.690,0.003
0.695,-0.001
0.700,0.004
0.705,0.006
0.710,0.002
0.715,0.008
0.720,0.013
0.725,0.006
0.730,0.005
0.735,0.010
0.740,0.011
0.745,0.006
0.750,0.010
0.755,0.021
0.760,0.016
0.765,0.008
0.770,0.016
0.775,0.016
0.780,0.014
0.785,0.022
0.790,0.018
0.795,0.011
0.800,0.019
0.805,0.026
0.810,0.027
0.815,0.041
0.820,0.053
0.825,0.047
0.830,0.045
0.835,0.054
0.840,0.057
0.845,0.066
0.850,0.091
0.855,0.111
0.860,0.103
0.865,0.085
0.870,0.071
0.875,0.056
0.880,0.046
0.885,0.040
0.890,0.025
0.895,0.003
0.900,-0.008
0.905,-0.016
0.910,-0.033
0.915,-0.035
0.920,-0.029
0.925,-0.036
0.930,-0.038
0.935,-0.025
0.940,-0.028
0.945,-0.040
0.950,-0.030
0.955,-0.021
0.960,-0.029
0.965,-0.031
0.970,-0.023
0.975,-0.023
0.980,-0.027
0.985,-0.024
0.990,-0.016
0.995,0.015
1.000,0.087
1.005,0.177
1.010,0.224
1.015,0.220
1.020,0.202
1.025,0.110
1.030,-0.102
1.035,-0.330
1.040,-0.453
1.045,-0.450
1.050,-0.345
1.055,-0.214
1.060,-0.105
1.065,0.013
1.070,0.074
1.075,0.071
1.080,0.084
1.085,0.090
1.090,0.071
1.095,0.065
1.100,0.076
1.105,0.078
1.110,0.068
1.115,0.066
1.120,0.076
1.125,0.075
1.130,0.070
1.135,0.076
1.140,0.068
1.145,0.056
1.150,0.060
1.155,0.059
1.160,0.054
1.165,0.057
1.170,0.068
1.175,0.069
1.180,0.067
1.185,0.075
1.190,0.064
1.195,0.052
1.200,0.063
1.205,0.074
1.210,0.079
1.215,0.084
1.220,0.088
1.225,0.088
1.230,0.091
1.235,0.107
1.240,0.118
1.245,0.119
1.250,0.133
1.255,0.145
1.260,0.140
1.265,0.143
1.270,0.149
1.275,0.143
1.280,0.136
1.285,0.137
1.290,0.132
1.295,0.119
1.300,0.111
1.305,0.104
1.310,0.082
1.315,0.066
1.320,0.050
1.325,-0.005
1.330,-0.040
1.335,-0.036
1.340,-0.061
1.345,-0.096
1.350,-0.107
1.355,-0.118
1.360,-0.124
1.365,-0.134
1.370,-0.153
1.375,-0.162
1.380,-0.170
1.385,-0.164
1.390,-0.151
1.395,-0.155
1.400,-0.163
1.405,-0.164
1.410,-0.150
1.415,-0.136
1.420,-0.140
1.425,-0.154
1.430,-0.148
1.435,-0.123
1.440,-0.115
1.445,-0.115
1.450,-0.104
1.455,-0.093
1.460,-0.094
1.465,-0.091
1.470,-0.075
1.475,-0.074
1.480,-0.072
1.485,-0.060
1.490,-0.057
1.495,-0.061
1.500,-0.050
1.505,-0.031
1.510,-0.025
1.515,-0.028
1.520,-0.034
1.525,-0.035
1.530,-0.029
1.535,-0.018
1.540,-0.012
1.545,-0.016
1.550,-0.017
1.555,-0.020
1.560,-0.027
1.565,-0.009
1.570,-0.003
1.575,-0.032
1.580,-0.026
1.585,0.001
1.590,0.000
1.595,-0.017
1.600,-0.023
1.605,0.002
1.610,0.027
1.615,0.007
1.620,-0.021
1.625,-0.031
1.630,-0.032
1.635,-0.013
1.640,-0.010
1.645,-0.019
1.650,-0.004
1.655,0.023
1.660,0.026
1.665,-0.020
1.670,-0.037
1.675,-0.022
1.680,-0.011
1.685,0.023
1.690,0.016
1.695,-0.024
1.700,0.005
1.705,0.013
1.710,-0.024
1.715,-0.010
1.720,-0.003
1.725,-0.007
1.730,0.000
1.735,0.003
1.740,0.005
1.745,0.003
1.750,0.007
1.755,0.012
1.760,0.013
1.765,0.017
1.770,0.020
1.775,0.013
1.780,0.005
1.785,0.017
1.790,0.024
1.795,0.023
1.800,0.034
1.805,0.045
1.810,0.048
1.815,0.055
1.820,0.062
1.825,0.049
1.830,0.049
1.835,0.079
1.840,0.101
1.845,0.110
1.850,0.111
1.855,0.094
1.860,0.074
1.865,0.072
1.870,0.072
1.875,0.049
1.880,0.027
1.885,0.021
1.890,0.006
1.895,-0.018
1.900,-0.028
1.905,-0.027
1.910,-0.029
1.915,-0.028
1.920,-0.025
1.925,-0.029
1.930,-0.027
1.935,-0.017
1.940,-0.019
1.945,-0.024
1.950,-0.019
1.955,-0.012
1.960,-0.014
1.965,-0.011
1.970,-0.005
1.975,-0.011
1.980,-0.002
1.985,0.051
1.990,0.135
1.995,0.211
2.000,0.242
2.005,0.235
2.010,0.185
2.015,0.032
2.020,-0.210
2.025,-0.411
2.030,-0.465
2.035,-0.397
2.040,-0.285
2.045,-0.167
2.050,-0.035
2.055,0.063
2.060,0.074
2.065,0.070
2.070,0.080
2.075,0.071
2.080,0.063
2.085,0.075
2.090,0.079
2.095,0.065
2.100,0.067
2.105,0.073
2.110,0.060
2.115,0.061
2.120,0.069
2.125,0.061
2.130,0.059
2.135,0.064
2.140,0.058
2.145,0.051
2.150,0.059
2.155,0.067
2.160,0.058
2.165,0.057
2.170,0.063
2.175,0.059
2.180,0.057
2.185,0.066
2.190,0.071
2.195,0.067
2.200,0.076
2.205,0.088
2.210,0.086
2.215,0.093
2.220,0.107
2.225,0.110
2.230,0.118
2.235,0.130
2.240,0.136
2.245,0.140
2.250,0.152
2.255,0.159
2.260,0.151
2.265,0.154
2.270,0.159
2.275,0.148
2.280,0.133
2.285,0.125
2.290,0.114
2.295,0.094
2.300,0.076
2.305,0.053
2.310,0.017
2.315,-0.008
2.320,-0.023
2.325,-0.051
2.330,-0.081
2.335,-0.092
2.340,-0.104
2.345,-0.128
2.350,-0.140
2.355,-0.146
2.360,-0.160
2.365,-0.164
2.370,-0.157
2.375,-0.162
2.380,-0.163
2.385,-0.151
2.390,-0.158
2.395,-0.165
2.400,-0.153
2.405,-0.147
2.410,-0.153
2.415,-0.146
2.420,-0.131
2.425,-0.124
2.430,-0.116
2.435,-0.108
2.440,-0.107
2.445,-0.107
2.450,-0.087
2.455,-0.072
2.460,-0.080
2.465,-0.076
2.470,-0.062
2.475,-0.057
2.480,-0.056
2.485,-0.051
2.490,-0.046
2.495,-0.049
2.500,-0.035
2.505,-0.025
2.510,-0.038
2.515,-0.038
2.520,-0.029
2.525,-0.031
2.530,-0.034
2.535,-0.023
2.540,-0.017
2.545,-0.025
2.550,-0.019
2.555,-0.016
2.560,-0.024
2.565,-0.024
2.570,-0.020
2.575,-0.019
2.580,-0.018
2.585,-0.012
2.590,-0.010
2.595,-0.014
2.600,-0.012
2.605,-0.013
2.610,-0.013
2.615,-0.005
2.620,0.000
2.625,-0.006
2.630,-0.007
2.635,0.002
2.640,0.000
2.645,-0.006
2.650,0.002
2.655,0.003
2.660,-0.008
2.665,-0.003
2.670,0.011
2.675,0.013
2.680,0.010
2.685,0.013
2.690,0.010
2.695,0.002
2.700,0.011
2.705,0.019
2.710,0.015
2.715,0.021
2.720,0.037
2.725,0.044
2.730,0.044
2.735,0.053
2.740,0.055
2.745,0.054
2.750,0.077
2.755,0.105
2.760,0.107
2.765,0.092
2.770,0.079
2.775,0.064
2.780,0.059
2.785,0.058
2.790,0.037
2.795,0.013
2.800,0.004
2.805,-0.006
2.810,-0.024
2.815,-0.036
2.820,-0.035
2.825,-0.038
2.830,-0.038
2.835,-0.031
2.840,-0.035
2.845,-0.041
2.850,-0.032
2.855,-0.026
2.860,-0.031
2.865,-0.031
2.870,-0.025
2.875,-0.027
2.880,-0.026
2.885,-0.015
2.890,-0.013
2.895,0.006
2.900,0.080
2.905,0.177
2.910,0.227
2.915,0.228
2.920,0.212
2.925,0.124
2.930,-0.093
2.935,-0.329
2.940,-0.451
2.945,-0.447
2.950,-0.346
2.955,-0.216
2.960,-0.104
2.965,0.016
2.970,0.079
2.975,0.068
2.980,0.073
2.985,0.085
2.990,0.073
2.995,0.070
3.000,0.080
3.005,0.079
3.010,0.070
3.015,0.073
3.020,0.078
3.025,0.070
3.030,0.065
3.035,0.072
3.040,0.069
3.045,0.057
3.050,0.063
3.055,0.067
3.060,0.057
3.065,0.062
3.070,0.073
3.075,0.064
3.080,0.057
3.085,0.067
3.090,0.068
3.095,0.063
3.100,0.069
3.105,0.075
3.110,0.076
3.115,0.085
3.120,0.095
3.125,0.098
3.130,0.103
3.135,0.118
3.140,0.124
3.145,0.122
3.150,0.130
3.155,0.142
3.160,0.146
3.165,0.151
3.170,0.160
3.175,0.158
3.180,0.152
3.185,0.151
3.190,0.142
3.195,0.123
3.200,0.117
3.205,0.109
3.210,0.080
3.215,0.058
3.220,0.040
3.225,0.009
3.230,-0.018
3.235,-0.032
3.240,-0.052
3.245,-0.082
3.250,-0.097
3.255,-0.109
3.260,-0.131
3.265,-0.137
3.270,-0.138
3.275,-0.149
3.280,-0.155
3.285,-0.152
3.290,-0.155
3.295,-0.158
3.300,-0.149
3.305,-0.139
3.310,-0.143
3.315,-0.139
3.320,-0.125
3.325,-0.125
3.330,-0.124
3.335,-0.113
3.340,-0.111
3.345,-0.106
3.350,-0.094
3.355,-0.087
3.360,-0.087
3.365,-0.077
3.370,-0.062
3.375,-0.069
3.380,-0.076
3.385,-0.062
3.390,-0.048
3.395,-0.046
3.400,-0.041
3.405,-0.036
3.410,-0.041
3.415,-0.037
3.420,-0.023
3.425,-0.028
3.430,-0.036
3.435,-0.029
3.440,-0.025
3.445,-0.026
3.450,-0.017
3.455,-0.016
3.460,-0.027
3.465,-0.028
3.470,-0.021
3.475,-0.025
3.480,-0.027
3.485,-0.022
3.490,-0.018
3.495,-0.019
3.500,-0.016
3.505,-0.011
3.510,-0.015
3.515,-0.018
3.520,-0.013
3.525,-0.018
3.530,-0.017
3.535,-0.004
3.540,-0.007
3.545,-0.013
3.550,-0.002
3.555,0.003
3.560,-0.004
3.565,-0.003
3.570,0.003
3.575,-0.004
3.580,-0.005
3.585,0.004
3.590,0.008
3.595,0.001
3.600,0.002
3.605,0.013
3.610,0.006
3.615,0.006
3.620,0.016
3.625,0.011
3.630,0.007
3.635,0.014
3.640,0.016
3.645,0.012
3.650,0.019
3.655,0.022
3.660,0.014
3.665,0.014
3.670,0.022
3.675,0.027
3.680,0.038
3.685,0.053
3.690,0.054
3.695,0.046
3.700,0.051
3.705,0.065
3.710,0.082
3.715,0.104
3.720,0.116
3.725,0.094
3.730,0.069
3.735,0.072
3.740,0.072
3.745,0.047
3.750,0.026
3.755,0.009
3.760,-0.010
3.765,-0.015
3.770,-0.023
3.775,-0.036
3.780,-0.038
3.785,-0.030
3.790,-0.028
3.795,-0.035
3.800,-0.030
3.805,-0.023
3.810,-0.033
3.815,-0.037
3.820,-0.024
3.825,-0.021
3.830,-0.024
3.835,-0.017
3.840,-0.018
3.845,-0.028
3.850,-0.022
3.855,0.008
3.860,0.068
3.865,0.157
3.870,0.211
3.875,0.205
3.880,0.184
3.885,0.082
3.890,-0.160
3.895,-0.403
3.900,-0.494
3.905,-0.454
3.910,-0.340
3.915,-0.212
3.920,-0.095
3.925,0.016
3.930,0.069
3.935,0.089
3.940,0.109
3.945,0.098
3.950,0.093
3.955,0.103
3.960,0.096
3.965,0.087
3.970,0.091
3.975,0.086
3.980,0.081
3.985,0.089
3.990,0.090
3.995,0.081
4.000,0.082
4.005,0.087
4.010,0.082
4.015,0.076
4.020,0.075
4.025,0.069
4.030,0.067
4.035,0.080
4.040,0.081
4.045,0.070
4.050,0.075
4.055,0.082
4.060,0.079
4.065,0.085
4.070,0.091
4.075,0.084
4.080,0.085
4.085,0.101
4.090,0.113
4.095,0.113
4.100,0.122
4.105,0.135
4.110,0.135
4.115,0.140
4.120,0.145
4.125,0.137
4.130,0.137
4.135,0.145
4.140,0.140
4.145,0.128
4.150,0.124
4.155,0.116
4.160,0.095
4.165,0.078
4.170,0.068
4.175,0.046
4.180,0.018
4.185,0.004
4.190,-0.017
4.195,-0.047
4.200,-0.063
4.205,-0.075
4.210,-0.097
4.215,-0.113
4.220,-0.121
4.225,-0.136
4.230,-0.145
4.235,-0.143
4.240,-0.148
4.245,-0.155
4.250,-0.150
4.255,-0.148
4.260,-0.154
4.265,-0.149
4.270,-0.138
4.275,-0.136
4.280,-0.135
4.285,-0.124
4.290,-0.115
4.295,-0.119
4.300,-0.109
4.305,-0.096
4.310,-0.098
4.315,-0.090
4.320,-0.076
4.325,-0.078
4.330,-0.076
4.335,-0.064
4.340,-0.060
4.345,-0.059
4.350,-0.048
4.355,-0.039
4.360,-0.043
4.365,-0.042
4.370,-0.036
4.375,-0.039
4.380,-0.043
4.385,-0.036
4.390,-0.031
4.395,-0.034
4.400,-0.028
4.405,-0.021
4.410,-0.029
4.415,-0.034
4.420,-0.028
4.425,-0.028
4.430,-0.026
4.435,-0.017
4.440,-0.023
4.445,-0.029
4.450,-0.018
4.455,-0.012
4.460,-0.024
4.465,-0.028
4.470,-0.019
4.475,-0.021
4.480,-0.024
4.485,-0.016
4.490,-0.014
4.495,-0.019
4.500,-0.016
4.505,-0.013
4.510,-0.016
4.515,-0.012
4.520,-0.006
4.525,-0.013
4.530,-0.015
4.535,-0.003
4.540,-0.001
4.545,-0.009
4.550,-0.004
4.555,0.000
4.560,-0.004
4.565,0.002
4.570,0.010
4.575,0.002
4.580,-0.003
4.585,0.006
4.590,0.011
4.595,0.005
4.600,0.007
4.605,0.013
4.610,0.008
4.615,0.009
4.620,0.024
4.625,0.030
4.630,0.034
4.635,0.046
4.640,0.046
4.645,0.039
4.650,0.053
4.655,0.074
4.660,0.091
4.665,0.103
4.670,0.098
4.675,0.074
4.680,0.058
4.685,0.057
4.690,0.047
4.695,0.025
4.700,0.016
4.705,0.008
4.710,-0.015
4.715,-0.030
4.720,-0.034
4.725,-0.038
4.730,-0.036
4.735,-0.030
4.740,-0.035
4.745,-0.043
4.750,-0.033
4.755,-0.025
4.760,-0.032
4.765,-0.031
4.770,-0.021
4.775,-0.021
4.780,-0.021
4.785,-0.013
4.790,-0.015
4.795,-0.019
4.800,0.002
4.805,0.055
4.810,0.134
4.815,0.211
4.820,0.238
4.825,0.222
4.830,0.164
4.835,0.000
4.840,-0.253
4.845,-0.437
4.850,-0.470
4.855,-0.399
4.860,-0.281
4.865,-0.154
4.870,-0.025
4.875,0.058
4.880,0.071
4.885,0.086
4.890,0.097
4.895,0.079
4.900,0.081
4.905,0.095
4.910,0.086
4.915,0.079
4.920,0.083
4.925,0.080
4.930,0.077
4.935,0.084
4.940,0.080
4.945,0.067
4.950,0.074
4.955,0.083
4.960,0.070
4.965,0.065
4.970,0.076
4.975,0.073
4.980,0.066
4.985,0.069
4.990,0.070
4.995,0.069
5.000,0.076
5.005,0.082
5.010,0.076
5.015,0.079
5.020,0.091
5.025,0.093
5.030,0.098
5.035,0.114
5.040,0.119
5.045,0.112
5.050,0.122
5.055,0.135
5.060,0.136
5.065,0.144
5.070,0.153
5.075,0.150
5.080,0.147
5.085,0.150
5.090,0.145
5.095,0.131
5.100,0.129
5.105,0.123
5.110,0.099
5.115,0.083
5.120,0.070
5.125,0.042
5.130,0.014
5.135,-0.006
5.140,-0.030
5.145,-0.058
5.150,-0.076
5.155,-0.089
5.160,-0.110
5.165,-0.124
5.170,-0.130
5.175,-0.143
5.180,-0.149
5.185,-0.146
5.190,-0.153
5.195,-0.162
5.200,-0.156
5.205,-0.145
5.210,-0.146
5.215,-0.145
5.220,-0.136
5.225,-0.138
5.230,-0.141
5.235,-0.125
5.240,-0.116
5.245,-0.120
5.250,-0.112
5.255,-0.104
5.260,-0.101
5.265,-0.091
5.270,-0.080
5.275,-0.081
5.280,-0.079
5.285,-0.067
5.290,-0.062
5.295,-0.059
5.300,-0.048
5.305,-0.046
5.310,-0.051
5.315,-0.047
5.320,-0.038
5.325,-0.036
5.330,-0.035
5.335,-0.028
5.340,-0.025
5.345,-0.032
5.350,-0.029
5.355,-0.023
5.360,-0.031
5.365,-0.030
5.370,-0.019
5.375,-0.023
5.380,-0.029
5.385,-0.021
5.390,-0.021
5.395,-0.026
5.400,-0.017
5.405,-0.013
5.410,-0.021
5.415,-0.018
5.420,-0.009
5.425,-0.013
5.430,-0.018
5.435,-0.011
5.440,-0.007
5.445,-0.011
5.450,-0.007
5.455,-0.005
5.460,-0.011
5.465,-0.008
5.470,0.001
5.475,-0.002
5.480,-0.007
5.485,0.001
5.490,0.005
5.495,0.000
5.500,0.005
5.505,0.009
5.510,0.000
5.515,0.004
5.520,0.012
5.525,0.005
5.530,0.005
5.535,0.015
5.540,0.016
5.545,0.009
5.550,0.012
5.555,0.016
5.560,0.010
5.565,0.013
5.570,0.019
5.575,0.011
5.580,0.009
5.585,0.019
5.590,0.022
5.595,0.016
5.600,0.015
5.605,0.019
5.610,0.015
5.615,0.017
5.620,0.024
5.625,0.020
5.630,0.019
5.635,0.032
5.640,0.037
5.645,0.039
5.650,0.055
5.655,0.063
5.660,0.054
5.665,0.058
5.670,0.078
5.675,0.095
5.680,0.106
5.685,0.107
5.690,0.085
5.695,0.058
5.700,0.053
5.705,0.054
5.710,0.035
5.715,0.013
5.720,0.000
5.725,-0.015
5.730,-0.029
5.735,-0.035
5.740,-0.040
5.745,-0.045
5.750,-0.036
5.755,-0.029
5.760,-0.034
5.765,-0.034
5.770,-0.035
5.775,-0.042
5.780,-0.041
5.785,-0.021
5.790,-0.015
5.795,-0.024
5.800,-0.015
5.805,-0.020
5.810,-0.032
5.815,-0.007
5.820,0.057
5.825,0.146
5.830,0.216
5.835,0.222
5.840,0.202
5.845,0.150
5.850,-0.009
5.855,-0.253
5.860,-0.435
5.865,-0.465
5.870,-0.378
5.875,-0.258
5.880,-0.142
5.885,-0.013
5.890,0.066
5.895,0.059
5.900,0.060
5.905,0.083
5.910,0.074
5.915,0.067
5.920,0.079
5.925,0.074
5.930,0.066
5.935,0.075
5.940,0.070
5.945,0.058
5.950,0.071
5.955,0.078
5.960,0.063
5.965,0.059
5.970,0.061
5.975,0.059
5.980,0.061
5.985,0.067
5.990,0.066
5.995,0.060
6.000,0.060
6.005,0.068
6.010,0.067
6.015,0.069
6.020,0.077
6.025,0.077
6.030,0.075
6.035,0.083
6.040,0.085
6.045,0.081
6.050,0.096
6.055,0.113
6.060,0.112
6.065,0.115
6.070,0.129
6.075,0.137
6.080,0.143
6.085,0.154
6.090,0.155
6.095,0.148
6.100,0.153
6.105,0.153
6.110,0.133
6.115,0.126
6.120,0.122
6.125,0.098
6.130,0.080
6.135,0.074
6.140,0.054
6.145,0.018
6.150,-0.008
6.155,-0.026
6.160,-0.054
6.165,-0.076
6.170,-0.086
6.175,-0.102
6.180,-0.125
6.185,-0.139
6.190,-0.147
6.195,-0.150
6.200,-0.147
6.205,-0.155
6.210,-0.159
6.215,-0.151
6.220,-0.149
6.225,-0.153
6.230,-0.151
6.235,-0.137
6.240,-0.138
6.245,-0.141
6.250,-0.131
6.255,-0.123
6.260,-0.111
6.265,-0.102
6.270,-0.096
6.275,-0.095
6.280,-0.101
6.285,-0.084
6.290,-0.074
6.295,-0.081
6.300,-0.064
6.305,-0.050
6.310,-0.056
6.315,-0.051
6.320,-0.049
6.325,-0.054
6.330,-0.046
6.335,-0.032
6.340,-0.024
6.345,-0.029
6.350,-0.031
6.355,-0.026
6.360,-0.029
6.365,-0.028
6.370,-0.022
6.375,-0.030
6.380,-0.034
6.385,-0.025
6.390,-0.024
6.395,-0.027
6.400,-0.017
6.405,-0.017
6.410,-0.030
6.415,-0.028
6.420,-0.014
6.425,-0.018
6.430,-0.027
6.435,-0.013
6.440,-0.013
6.445,-0.027
6.450,-0.021
6.455,-0.012
6.460,-0.007
6.465,-0.005
6.470,-0.010
6.475,-0.015
6.480,-0.017
6.485,0.000
6.490,0.006
6.495,-0.009
6.500,-0.008
6.505,0.001
6.510,0.000
6.515,0.004
6.520,0.008
6.525,0.003
6.530,0.002
6.535,0.010
6.540,0.011
6.545,0.004
6.550,0.011
6.555,0.015
6.560,0.004
6.565,0.007
6.570,0.017
6.575,0.015
6.580,0.011
6.585,0.016
6.590,0.017
6.595,0.012
6.600,0.019
6.605,0.024
6.610,0.019
6.615,0.018
6.620,0.021
6.625,0.020
6.630,0.018
6.635,0.025
6.640,0.033
6.645,0.036
6.650,0.048
6.655,0.053
6.660,0.049
6.665,0.055
6.670,0.071
6.675,0.086
6.680,0.102
6.685,0.112
6.690,0.093
6.695,0.067
6.700,0.063
6.705,0.058
6.710,0.039
6.715,0.019
6.720,0.008
6.725,-0.009
6.730,-0.028
6.735,-0.028
6.740,-0.023
6.745,-0.032
6.750,-0.032
6.755,-0.029
6.760,-0.037
6.765,-0.034
6.770,-0.027
6.775,-0.029
6.780,-0.028
6.785,-0.022
6.790,-0.025
6.795,-0.029
6.800,-0.016
6.805,-0.010
6.810,-0.019
6.815,-0.015
6.820,0.018
6.825,0.073
6.830,0.148
6.835,0.203
6.840,0.207
6.845,0.183
6.850,0.079
6.855,-0.154
6.860,-0.387
6.865,-0.483
6.870,-0.446
6.875,-0.333
6.880,-0.199
6.885,-0.077
6.890,0.025
6.895,0.064
6.900,0.076
6.905,0.101
6.910,0.094
6.915,0.084
6.920,0.097
6.925,0.092
6.930,0.080
6.935,0.090
6.940,0.092
6.945,0.080
6.950,0.082
6.955,0.086
6.960,0.075
6.965,0.073
6.970,0.083
6.975,0.076
6.980,0.067
6.985,0.076
6.990,0.075
6.995,0.064
7.000,0.064
7.005,0.071
7.010,0.069
7.015,0.071
7.020,0.078
7.025,0.077
7.030,0.074
7.035,0.082
7.040,0.089
7.045,0.088
7.050,0.102
7.055,0.114
7.060,0.107
7.065,0.115
7.070,0.134
7.075,0.131
7.080,0.129
7.085,0.139
7.090,0.140
7.095,0.137
7.100,0.141
7.105,0.137
7.110,0.131
7.115,0.129
7.120,0.115
7.125,0.092
7.130,0.073
7.135,0.068
7.140,0.053
7.145,0.017
7.150,-0.007
7.155,-0.017
7.160,-0.042
7.165,-0.070
7.170,-0.082
7.175,-0.089
7.180,-0.097
7.185,-0.112
7.190,-0.146
7.195,-0.163
7.200,-0.153
7.205,-0.155
7.210,-0.164
7.215,-0.159
7.220,-0.144
7.225,-0.145
7.230,-0.153
7.235,-0.143
7.240,-0.139
7.245,-0.141
7.250,-0.126
7.255,-0.112
7.260,-0.114
7.265,-0.111
7.270,-0.102
7.275,-0.101
7.280,-0.096
7.285,-0.081
7.290,-0.074
7.295,-0.074
7.300,-0.064
7.305,-0.056
7.310,-0.055
7.315,-0.052
7.320,-0.045
7.325,-0.045
7.330,-0.046
7.335,-0.033
7.340,-0.029
7.345,-0.039
7.350,-0.036
7.355,-0.030
7.360,-0.035
7.365,-0.029
7.370,-0.020
7.375,-0.023
7.380,-0.023
7.385,-0.016
7.390,-0.018
7.395,-0.025
7.400,-0.018
7.405,-0.010
7.410,-0.019
7.415,-0.021
7.420,-0.013
7.425,-0.017
7.430,-0.021
7.435,-0.015
7.440,-0.013
7.445,-0.017
7.450,-0.013
7.455,-0.008
7.460,-0.013
7.465,-0.012
7.470,-0.003
7.475,-0.006
7.480,-0.012
7.485,-0.004
7.490,-0.002
7.495,-0.005
7.500,0.003
7.505,0.005
7.510,-0.001
7.515,0.001
7.520,0.004
7.525,0.002
7.530,0.003
7.535,0.010
7.540,0.010
7.545,0.006
7.550,0.016
7.555,0.018
7.560,0.004
7.565,0.004
7.570,0.016
7.575,0.014
7.580,0.011
7.585,0.017
7.590,0.018
7.595,0.011
7.600,0.017
7.605,0.022
7.610,0.012
7.615,0.016
7.620,0.035
7.625,0.044
7.630,0.047
7.635,0.054
7.640,0.050
7.645,0.046
7.650,0.067
7.655,0.092
7.660,0.105
7.665,0.099
7.670,0.079
7.675,0.057
7.680,0.048
7.685,0.052
7.690,0.037
7.695,0.009
7.700,-0.003
7.705,-0.009
7.710,-0.030
7.715,-0.047
7.720,-0.048
7.725,-0.049
7.730,-0.047
7.735,-0.037
7.740,-0.038
7.745,-0.045
7.750,-0.039
7.755,-0.033
7.760,-0.039
7.765,-0.039
7.770,-0.028
7.775,-0.028
7.780,-0.028
7.785,-0.019
7.790,-0.022
7.795,-0.018
7.800,0.028
7.805,0.107
7.810,0.185
7.815,0.218
7.820,0.215
7.825,0.184
7.830,0.055
7.835,-0.181
7.840,-0.393
7.845,-0.470
7.850,-0.418
7.855,-0.297
7.860,-0.178
7.865,-0.059
7.870,0.051
7.875,0.078
7.880,0.070
7.885,0.088
7.890,0.085
7.895,0.069
7.900,0.080
7.905,0.087
7.910,0.072
7.915,0.078
7.920,0.088
7.925,0.077
7.930,0.076
7.935,0.079
7.940,0.072
7.945,0.065
7.950,0.071
7.955,0.075
7.960,0.069
7.965,0.070
7.970,0.078
7.975,0.070
7.980,0.063
7.985,0.070
7.990,0.071
7.995,0.067
8.000,0.076
8.005,0.087
8.010,0.084
8.015,0.081
8.020,0.090
8.025,0.093
8.030,0.099
8.035,0.113
8.040,0.117
8.045,0.115
8.050,0.127
8.055,0.138
8.060,0.140
8.065,0.149
8.070,0.156
8.075,0.147
8.080,0.142
8.085,0.150
8.090,0.144
8.095,0.127
8.100,0.123
8.105,0.114
8.110,0.088
8.115,0.068
8.120,0.053
8.125,0.027
8.130,-0.001
8.135,-0.021
8.140,-0.044
8.145,-0.068
8.150,-0.083
8.155,-0.100
8.160,-0.122
8.165,-0.132
8.170,-0.137
8.175,-0.151
8.180,-0.159
8.185,-0.152
8.190,-0.152
8.195,-0.160
8.200,-0.157
8.205,-0.151
8.210,-0.153
8.215,-0.147
8.220,-0.135
8.225,-0.135
8.230,-0.134
8.235,-0.121
8.240,-0.114
8.245,-0.115
8.250,-0.106
8.255,-0.095
8.260,-0.096
8.265,-0.094
8.270,-0.081
8.275,-0.074
8.280,-0.070
8.285,-0.057
8.290,-0.055
8.295,-0.058
8.300,-0.045
8.305,-0.037
8.310,-0.043
8.315,-0.039
8.320,-0.029
8.325,-0.033
8.330,-0.039
8.335,-0.028
8.340,-0.022
8.345,-0.029
8.350,-0.025
8.355,-0.019
8.360,-0.025
8.365,-0.024
8.370,-0.020
8.375,-0.025
8.380,-0.025
8.385,-0.016
8.390,-0.017
8.395,-0.021
8.400,-0.016
8.405,-0.010
8.410,-0.014
8.415,-0.018
8.420,-0.011
8.425,-0.010
8.430,-0.013
8.435,-0.007
8.440,-0.008
8.445,-0.012
8.450,-0.005
8.455,-0.003
8.460,-0.006
8.465,-0.001
8.470,0.005
8.475,-0.003
8.480,-0.006
8.485,0.004
8.490,0.006
8.495,-0.001
8.500,0.003
8.505,0.008
8.510,0.004
8.515,0.009
8.520,0.015
8.525,0.009
8.530,0.005
8.535,0.012
8.540,0.016
8.545,0.011
8.550,0.014
8.555,0.017
8.560,0.008
8.565,0.014
8.570,0.026
8.575,0.018
8.580,0.012
8.585,0.021
8.590,0.022
8.595,0.018
8.600,0.022
8.605,0.024
8.610,0.020
8.615,0.024
8.620,0.036
8.625,0.043
8.630,0.048
8.635,0.059
8.640,0.063
8.645,0.057
8.650,0.069
8.655,0.089
8.660,0.102
8.665,0.114
8.670,0.107
8.675,0.079
8.680,0.060
8.685,0.061
8.690,0.055
8.695,0.026
8.700,0.008
8.705,-0.001
8.710,-0.020
8.715,-0.028
8.720,-0.029
8.725,-0.038
8.730,-0.042
8.735,-0.036
8.740,-0.038
8.745,-0.040
8.750,-0.033
8.755,-0.031
8.760,-0.037
8.765,-0.034
8.770,-0.027
8.775,-0.029
8.780,-0.025
8.785,-0.014
8.790,-0.020
8.795,-0.023
8.800,0.014
8.805,0.089
8.810,0.174
8.815,0.228
8.820,0.228
8.825,0.199
8.830,0.104
8.835,-0.107
8.840,-0.345
8.845,-0.468
8.850,-0.443
8.855,-0.334
8.860,-0.216
8.865,-0.099
8.870,0.022
8.875,0.070
8.880,0.060
8.885,0.074
8.890,0.081
8.895,0.068
8.900,0.071
8.905,0.074
8.910,0.064
8.915,0.066
8.920,0.074
8.925,0.068
8.930,0.063
8.935,0.065
8.940,0.060
8.945,0.054
8.950,0.063
8.955,0.068
8.960,0.054
8.965,0.054
8.970,0.067
8.975,0.062
8.980,0.053
8.985,0.060
8.990,0.062
8.995,0.053
9.000,0.063
9.005,0.072
9.010,0.070
9.015,0.077
9.020,0.084
9.025,0.084
9.030,0.082
9.035,0.092
9.040,0.108
9.045,0.109
9.050,0.114
9.055,0.129
9.060,0.133
9.065,0.140
9.070,0.149
9.075,0.142
9.080,0.141
9.085,0.154
9.090,0.147
9.095,0.124
9.100,0.117
9.105,0.109
9.110,0.086
9.115,0.073
9.120,0.059
9.125,0.031
9.130,0.004
9.135,-0.020
9.140,-0.045
9.145,-0.071
9.150,-0.091
9.155,-0.106
9.160,-0.123
9.165,-0.133
9.170,-0.139
9.175,-0.156
9.180,-0.157
9.185,-0.144
9.190,-0.152
9.195,-0.167
9.200,-0.159
9.205,-0.149
9.210,-0.149
9.215,-0.146
9.220,-0.141
9.225,-0.141
9.230,-0.136
9.235,-0.121
9.240,-0.114
9.245,-0.114
9.250,-0.107
9.255,-0.096
9.260,-0.094
9.265,-0.089
9.270,-0.078
9.275,-0.077
9.280,-0.075
9.285,-0.063
9.290,-0.059
9.295,-0.064
9.300,-0.053
9.305,-0.038
9.310,-0.042
9.315,-0.042
9.320,-0.032
9.325,-0.038
9.330,-0.041
9.335,-0.026
9.340,-0.023
9.345,-0.029
9.350,-0.025
9.355,-0.021
9.360,-0.026
9.365,-0.023
9.370,-0.020
9.375,-0.026
9.380,-0.025
9.385,-0.017
9.390,-0.014
9.395,-0.010
9.400,-0.007
9.405,-0.012
9.410,-0.019
9.415,-0.016
9.420,-0.008
9.425,-0.009
9.430,-0.014
9.435,-0.004
9.440,-0.002
9.445,-0.015
9.450,-0.010
9.455,-0.001
9.460,-0.006
9.465,0.000
9.470,0.005
9.475,-0.005
9.480,-0.006
9.485,0.001
9.490,0.002
9.495,-0.002
9.500,0.005
9.505,0.013
9.510,0.008
9.515,0.008
9.520,0.013
9.525,0.013
9.530,0.009
9.535,0.012
9.540,0.015
9.545,0.011
9.550,0.017
9.555,0.019
9.560,0.011
9.565,0.014
9.570,0.022
9.575,0.017
9.580,0.014
9.585,0.024
9.590,0.028
9.595,0.024
9.600,0.031
9.605,0.041
9.610,0.046
9.615,0.052
9.620,0.056
9.625,0.048
9.630,0.053
9.635,0.084
9.640,0.108
9.645,0.107
9.650,0.101
9.655,0.088
9.660,0.067
9.665,0.058
9.670,0.054
9.675,0.032
9.680,0.013
9.685,0.005
9.690,-0.008
9.695,-0.025
9.700,-0.032
9.705,-0.032
9.710,-0.036
9.715,-0.034
9.720,-0.030
9.725,-0.034
9.730,-0.036
9.735,-0.026
9.740,-0.022
9.745,-0.029
9.750,-0.023
9.755,-0.015
9.760,-0.020
9.765,-0.016
9.770,-0.008
9.775,-0.015
9.780,-0.004
9.785,0.051
9.790,0.129
9.795,0.188
9.800,0.209
9.805,0.204
9.810,0.130
9.815,-0.066
9.820,-0.309
9.825,-0.463
9.830,-0.480
9.835,-0.385
9.840,-0.250
9.845,-0.133
9.850,-0.015
9.855,0.066
9.860,0.078
9.865,0.094
9.870,0.108
9.875,0.095
9.880,0.093
9.885,0.102
9.890,0.091
9.895,0.084
9.900,0.096
9.905,0.098
9.910,0.085
9.915,0.086
9.920,0.089
9.925,0.081
9.930,0.077
9.935,0.081
9.940,0.076
9.945,0.071
9.950,0.080
9.955,0.085
9.960,0.076
9.965,0.076
9.970,0.079
9.975,0.072
9.980,0.074
9.985,0.086
9.990,0.086
9.995,0.084
10.000,0.095
10.005,0.105
10.010,0.103
10.015,0.105
10.020,0.113
10.025,0.117
10.030,0.122
10.035,0.135
10.040,0.139
10.045,0.137
10.050,0.147
10.055,0.155
10.060,0.145
10.065,0.139
10.070,0.140
10.075,0.127
10.080,0.113
10.085,0.110
10.090,0.095
10.095,0.070
10.100,0.056
10.105,0.037
10.110,0.006
10.115,-0.016
10.120,-0.032
10.125,-0.058
10.130,-0.081
10.135,-0.090
10.140,-0.105
10.145,-0.125
10.150,-0.135
10.155,-0.141
10.160,-0.150
10.165,-0.153
10.170,-0.149
10.175,-0.154
10.180,-0.159
10.185,-0.153
10.190,-0.151
10.195,-0.154
10.200,-0.142
10.205,-0.132
10.210,-0.136
10.215,-0.127
10.220,-0.112
10.225,-0.113
10.230,-0.113
10.235,-0.100
10.240,-0.095
10.245,-0.092
10.250,-0.079
10.255,-0.071
10.260,-0.071
10.265,-0.067
10.270,-0.060
10.275,-0.058
10.280,-0.056
10.285,-0.046
10.290,-0.045
10.295,-0.048
10.300,-0.039
10.305,-0.031
10.310,-0.036
10.315,-0.037
10.320,-0.032
10.325,-0.036
10.330,-0.035
10.335,-0.024
10.340,-0.026
10.345,-0.033
10.350,-0.026
10.355,-0.020
10.360,-0.025
10.365,-0.025
10.370,-0.023
10.375,-0.025
10.380,-0.025
10.385,-0.018
10.390,-0.017
10.395,-0.024
10.400,-0.020
10.405,-0.015
10.410,-0.022
10.415,-0.021
10.420,-0.013
10.425,-0.017
10.430,-0.020
10.435,-0.009
10.440,-0.010
10.445,-0.015
10.450,-0.007
10.455,0.000
10.460,-0.007
10.465,-0.009
10.470,-0.003
10.475,-0.005
10.480,-0.005
10.485,0.002
10.490,0.001
10.495,-0.004
10.500,0.006
10.505,0.013
10.510,0.004
10.515,0.006
10.520,0.013
10.525,0.006
10.530,0.001
10.535,0.009
10.540,0.012
10.545,0.010
10.550,0.015
10.555,0.016
10.560,0.012
10.565,0.017
10.570,0.024
10.575,0.020
10.580,0.021
10.585,0.034
10.590,0.045
10.595,0.045
10.600,0.049
10.605,0.055
10.610,0.051
10.615,0.064
10.620,0.095
10.625,0.111
10.630,0.105
10.635,0.090
10.640,0.067
10.645,0.051
10.650,0.056
10.655,0.050
10.660,0.023
10.665,0.005
10.670,-0.005
10.675,-0.020
10.680,-0.034
10.685,-0.035
10.690,-0.035
10.695,-0.039
10.700,-0.034
10.705,-0.031
10.710,-0.038
10.715,-0.035
10.720,-0.027
10.725,-0.033
10.730,-0.035
10.735,-0.026
10.740,-0.024
10.745,-0.025
10.750,-0.014
10.755,-0.010
10.760,-0.014
10.765,0.017
10.770,0.093
10.775,0.177
10.780,0.223
10.785,0.225
10.790,0.202
10.795,0.102
10.800,-0.114
10.805,-0.342
10.810,-0.454
10.815,-0.431
10.820,-0.326
10.825,-0.207
10.830,-0.093
10.835,0.026
10.840,0.072
10.845,0.057
10.850,0.072
10.855,0.082
10.860,0.067
10.865,0.071
10.870,0.079
10.875,0.069
10.880,0.066
10.885,0.075
10.890,0.071
10.895,0.062
10.900,0.066
10.905,0.070
10.910,0.064
10.915,0.067
10.920,0.072
10.925,0.060
10.930,0.054
10.935,0.064
10.940,0.064
10.945,0.056
10.950,0.062
10.955,0.069
10.960,0.063
10.965,0.066
10.970,0.075
10.975,0.070
10.980,0.070
10.985,0.084
10.990,0.089
10.995,0.090
11.000,0.101
11.005,0.107
11.010,0.112
11.015,0.122
11.020,0.130
11.025,0.133
11.030,0.136
11.035,0.145
11.040,0.148
11.045,0.142
11.050,0.144
11.055,0.145
11.060,0.131
11.065,0.119
11.070,0.111
11.075,0.091
11.080,0.071
11.085,0.060
11.090,0.037
11.095,0.003
11.100,-0.014
11.105,-0.029
11.110,-0.056
11.115,-0.080
11.120,-0.100
11.125,-0.120
11.130,-0.131
11.135,-0.131
11.140,-0.141
11.145,-0.153
11.150,-0.150
11.155,-0.144
11.160,-0.152
11.165,-0.153
11.170,-0.143
11.175,-0.148
11.180,-0.149
11.185,-0.132
11.190,-0.128
11.195,-0.131
11.200,-0.120
11.205,-0.112
11.210,-0.112
11.215,-0.108
11.220,-0.098
11.225,-0.093
11.230,-0.086
11.235,-0.073
11.240,-0.070
11.245,-0.072
11.250,-0.062
11.255,-0.052
11.260,-0.053
11.265,-0.048
11.270,-0.039
11.275,-0.039
11.280,-0.040
11.285,-0.029
11.290,-0.028
11.295,-0.034
11.300,-0.026
11.305,-0.020
11.310,-0.024
11.315,-0.023
11.320,-0.021
11.325,-0.023
11.330,-0.022
11.335,-0.017
11.340,-0.020
11.345,-0.025
11.350,-0.018
11.355,-0.012
11.360,-0.020
11.365,-0.016
11.370,-0.007
11.375,-0.015
11.380,-0.019
11.385,-0.010
11.390,-0.009
11.395,-0.014
11.400,-0.012
11.405,-0.009
11.410,-0.012
11.415,-0.009
11.420,-0.002
11.425,-0.004
11.430,-0.007
11.435,0.000
11.440,0.000
11.445,-0.006
11.450,-0.002
11.455,0.004
11.460,0.000
11.465,0.003
11.470,0.010
11.475,0.006
11.480,0.003
11.485,0.011
11.490,0.011
11.495,0.005
11.500,0.014
11.505,0.016
11.510,0.006
11.515,0.009
11.520,0.016
11.525,0.011
11.530,0.011
11.535,0.018
11.540,0.017
11.545,0.015
11.550,0.019
11.555,0.020
11.560,0.013
11.565,0.015
11.570,0.024
11.575,0.022
11.580,0.017
11.585,0.024
11.590,0.024
11.595,0.016
11.600,0.021
11.605,0.026
11.610,0.019
11.615,0.018
11.620,0.024
11.625,0.018
11.630,0.016
11.635,0.026
11.640,0.030
11.645,0.033
11.650,0.048
11.655,0.055
11.660,0.049
11.665,0.051
11.670,0.060
11.675,0.073
11.680,0.096
11.685,0.117
11.690,0.105
11.695,0.073
11.700,0.063
11.705,0.064
11.710,0.053
11.715,0.037
11.720,0.020
11.725,-0.004
11.730,-0.022
11.735,-0.023
11.740,-0.033
11.745,-0.048
11.750,-0.045
11.755,-0.041
11.760,-0.043
11.765,-0.039
11.770,-0.036
11.775,-0.040
11.780,-0.042
11.785,-0.037
11.790,-0.036
11.795,-0.037
11.800,-0.029
11.805,-0.022
11.810,-0.030
11.815,-0.030
11.820,-0.007
11.825,0.029
11.830,0.100
11.835,0.196
11.840,0.236
11.845,0.227
11.850,0.199
11.855,0.057
11.860,-0.208
11.865,-0.430
11.870,-0.496
11.875,-0.449
11.880,-0.333
11.885,-0.197
11.890,-0.076
11.895,0.026
11.900,0.067
11.905,0.070
11.910,0.077
11.915,0.077
11.920,0.074
11.925,0.072
11.930,0.070
11.935,0.072
11.940,0.073
11.945,0.070
11.950,0.070
11.955,0.071
11.960,0.062
11.965,0.060
11.970,0.065
11.975,0.058
11.980,0.054
11.985,0.064
11.990,0.066
11.995,0.060
12.000,0.061
12.005,0.062
12.010,0.057
12.015,0.060
12.020,0.069
12.025,0.067
12.030,0.067
12.035,0.082
12.040,0.086
12.045,0.081
12.050,0.089
12.055,0.097
12.060,0.099
12.065,0.110
12.070,0.120
12.075,0.121
12.080,0.129
12.085,0.144
12.090,0.150
12.095,0.148
12.100,0.151
12.105,0.150
12.110,0.141
12.115,0.137
12.120,0.133
12.125,0.118
12.130,0.104
12.135,0.094
12.140,0.075
12.145,0.047
12.150,0.028
12.155,0.006
12.160,-0.026
12.165,-0.047
12.170,-0.062
12.175,-0.086
12.180,-0.106
12.185,-0.111
12.190,-0.124
12.195,-0.141
12.200,-0.145
12.205,-0.148
12.210,-0.155
12.215,-0.152
12.220,-0.146
12.225,-0.151
12.230,-0.154
12.235,-0.145
12.240,-0.142
12.245,-0.144
12.250,-0.133
12.255,-0.125
12.260,-0.128
12.265,-0.119
12.270,-0.106
12.275,-0.104
12.280,-0.102
12.285,-0.091
12.290,-0.084
12.295,-0.083
12.300,-0.074
12.305,-0.066
12.310,-0.068
12.315,-0.059
12.320,-0.048
12.325,-0.049
12.330,-0.047
12.335,-0.037
12.340,-0.036
12.345,-0.041
12.350,-0.034
12.355,-0.027
12.360,-0.032
12.365,-0.027
12.370,-0.019
12.375,-0.028
12.380,-0.030
12.385,-0.021
12.390,-0.024
12.395,-0.031
12.400,-0.024
12.405,-0.019
12.410,-0.024
12.415,-0.020
12.420,-0.014
12.425,-0.023
12.430,-0.026
12.435,-0.017
12.440,-0.016
12.445,-0.019
12.450,-0.017
12.455,-0.011
12.460,-0.013
12.465,-0.011
12.470,-0.004
12.475,-0.012
12.480,-0.019
12.485,-0.008
12.490,-0.005
12.495,-0.012
12.500,-0.007
12.505,0.000
12.510,-0.002
12.515,0.002
12.520,0.008
12.525,0.001
12.530,-0.001
12.535,0.008
12.540,0.009
12.545,0.002
12.550,0.005
12.555,0.008
12.560,0.005
12.565,0.009
12.570,0.016
12.575,0.012
12.580,0.012
12.585,0.019
12.590,0.017
12.595,0.011
12.600,0.016
12.605,0.019
12.610,0.011
12.615,0.015
12.620,0.024
12.625,0.018
12.630,0.015
12.635,0.022
12.640,0.024
12.645,0.021
12.650,0.025
12.655,0.028
12.660,0.024
12.665,0.034
12.670,0.047
12.675,0.045
12.680,0.045
12.685,0.054
12.690,0.056
12.695,0.061
12.700,0.089
12.705,0.114
12.710,0.108
12.715,0.090
12.720,0.075
12.725,0.063
12.730,0.057
12.735,0.048
12.740,0.025
12.745,0.004
12.750,-0.002
12.755,-0.010
12.760,-0.029
12.765,-0.034
12.770,-0.024
12.775,-0.026
12.780,-0.033
12.785,-0.029
12.790,-0.029
12.795,-0.035
12.800,-0.029
12.805,-0.022
12.810,-0.027
12.815,-0.025
12.820,-0.017
12.825,-0.023
12.830,-0.022
12.835,-0.012
12.840,-0.015
12.845,-0.005
12.850,0.053
12.855,0.141
12.860,0.203
12.865,0.216
12.870,0.207
12.875,0.132
12.880,-0.071
12.885,-0.317
12.890,-0.468
12.895,-0.485
12.900,-0.388
12.905,-0.250
12.910,-0.136
12.915,-0.018
12.920,0.066
12.925,0.080
12.930,0.091
12.935,0.102
12.940,0.089
12.945,0.089
12.950,0.103
12.955,0.097
12.960,0.085
12.965,0.090
12.970,0.091
12.975,0.081
12.980,0.081
12.985,0.088
12.990,0.081
12.995,0.074
13.000,0.081
13.005,0.083
13.010,0.076
13.015,0.075
13.020,0.079
13.025,0.072
13.030,0.068
13.035,0.077
13.040,0.076
13.045,0.072
13.050,0.083
13.055,0.090
13.060,0.085
13.065,0.089
13.070,0.099
13.075,0.101
13.080,0.106
13.085,0.115
13.090,0.118
13.095,0.121
13.100,0.138
13.105,0.148
13.110,0.143
13.115,0.147
13.120,0.155
13.125,0.150
13.130,0.142
13.135,0.139
13.140,0.130
13.145,0.117
13.150,0.112
13.155,0.102
13.160,0.074
13.165,0.051
13.170,0.036
13.175,0.010
13.180,-0.007
13.185,-0.019
13.190,-0.056
13.195,-0.090
13.200,-0.099
13.205,-0.109
13.210,-0.126
13.215,-0.138
13.220,-0.141
13.225,-0.148
13.230,-0.155
13.235,-0.155
13.240,-0.158
13.245,-0.166
13.250,-0.161
13.255,-0.154
13.260,-0.155
13.265,-0.149
13.270,-0.139
13.275,-0.140
13.280,-0.137
13.285,-0.121
13.290,-0.116
13.295,-0.115
13.300,-0.106
13.305,-0.100
13.310,-0.101
13.315,-0.089
13.320,-0.076
13.325,-0.077
13.330,-0.075
13.335,-0.065
13.340,-0.059
13.345,-0.063
13.350,-0.055
13.355,-0.045
13.360,-0.048
13.365,-0.044
13.370,-0.033
13.375,-0.035
13.380,-0.034
13.385,-0.027
13.390,-0.030
13.395,-0.035
13.400,-0.027
13.405,-0.023
13.410,-0.031
13.415,-0.028
13.420,-0.021
13.425,-0.026
13.430,-0.024
13.435,-0.014
13.440,-0.015
13.445,-0.023
13.450,-0.021
13.455,-0.017
13.460,-0.020
13.465,-0.019
13.470,-0.013
13.475,-0.016
13.480,-0.020
13.485,-0.013
13.490,-0.010
13.495,-0.017
13.500,-0.011
13.505,-0.007
13.510,-0.014
13.515,-0.011
13.520,-0.003
13.525,-0.006
13.530,-0.008
13.535,-0.001
13.540,-0.001
13.545,-0.008
13.550,0.001
13.555,0.008
13.560,0.000
13.565,0.003
13.570,0.011
13.575,0.005
13.580,0.004
13.585,0.012
13.590,0.011
13.595,0.007
13.600,0.013
13.605,0.013
13.610,0.008
13.615,0.013
13.620,0.019
13.625,0.013
13.630,0.011
13.635,0.019
13.640,0.019
13.645,0.015
13.650,0.018
13.655,0.018
13.660,0.012
13.665,0.018
13.670,0.028
13.675,0.020
13.680,0.011
13.685,0.020
13.690,0.025
13.695,0.017
13.700,0.020
13.705,0.023
13.710,0.016
13.715,0.023
13.720,0.035
13.725,0.037
13.730,0.045
13.735,0.058
13.740,0.056
13.745,0.047
13.750,0.058
13.755,0.080
13.760,0.096
13.765,0.112
13.770,0.105
13.775,0.073
13.780,0.056
13.785,0.061
13.790,0.056
13.795,0.033
13.800,0.016
13.805,0.002
13.810,-0.018
13.815,-0.026
13.820,-0.032
13.825,-0.041
13.830,-0.042
13.835,-0.035
13.840,-0.034
13.845,-0.039
13.850,-0.035
13.855,-0.032
13.860,-0.038
13.865,-0.035
13.870,-0.028
13.875,-0.028
13.880,-0.029
13.885,-0.022
13.890,-0.024
13.895,-0.030
13.900,-0.011
13.905,0.040
13.910,0.119
13.915,0.202
13.920,0.233
13.925,0.213
13.930,0.172
13.935,0.035
13.940,-0.214
13.945,-0.416
13.950,-0.458
13.955,-0.393
13.960,-0.284
13.965,-0.162
13.970,-0.037
13.975,0.049
13.980,0.061
13.985,0.063
13.990,0.070
13.995,0.062
14.000,0.063
14.005,0.075
14.010,0.068
14.015,0.060
14.020,0.066
14.025,0.064
14.030,0.059
14.035,0.065
14.040,0.063
14.045,0.056
14.050,0.061
14.055,0.064
14.060,0.058
14.065,0.056
14.070,0.059
14.075,0.053
14.080,0.049
14.085,0.058
14.090,0.061
14.095,0.056
14.100,0.062
14.105,0.067
14.110,0.064
14.115,0.070
14.120,0.077
14.125,0.073
14.130,0.075
14.135,0.090
14.140,0.101
14.145,0.103
14.150,0.113
14.155,0.121
14.160,0.119
14.165,0.129
14.170,0.144
14.175,0.139
14.180,0.135
14.185,0.142
14.190,0.136
14.195,0.126
14.200,0.124
14.205,0.115
14.210,0.094
14.215,0.083
14.220,0.074
14.225,0.048
14.230,0.021
14.235,0.002
14.240,-0.021
14.245,-0.046
14.250,-0.061
14.255,-0.081
14.260,-0.108
14.265,-0.120
14.270,-0.125
14.275,-0.140
14.280,-0.148
14.285,-0.142
14.290,-0.146
14.295,-0.156
14.300,-0.153
14.305,-0.148
14.310,-0.149
14.315,-0.145
14.320,-0.137
14.325,-0.137
14.330,-0.133
14.335,-0.121
14.340,-0.117
14.345,-0.118
14.350,-0.111
14.355,-0.102
14.360,-0.102
14.365,-0.092
14.370,-0.076
14.375,-0.077
14.380,-0.071
14.385,-0.057
14.390,-0.058
14.395,-0.061
14.400,-0.050
14.405,-0.040
14.410,-0.042
14.415,-0.038
14.420,-0.028
14.425,-0.031
14.430,-0.032
14.435,-0.025
14.440,-0.025
14.445,-0.029
14.450,-0.025
14.455,-0.021
14.460,-0.023
14.465,-0.018
14.470,-0.012
14.475,-0.019
14.480,-0.025
14.485,-0.016
14.490,-0.014
14.495,-0.021
14.500,-0.016
14.505,-0.014
14.510,-0.019
14.515,-0.013
14.520,-0.007
14.525,-0.014
14.530,-0.018
14.535,-0.010
14.540,-0.010
14.545,-0.015
14.550,-0.009
14.555,-0.002
14.560,-0.011
14.565,-0.014
14.570,-0.003
14.575,-0.006
14.580,-0.008
14.585,0.001
14.590,0.002
14.595,0.001
14.600,0.004
14.605,0.001
14.610,-0.005
14.615,0.001
14.620,0.011
14.625,0.005
14.630,0.004
14.635,0.014
14.640,0.011
14.645,0.003
14.650,0.010
14.655,0.016
14.660,0.013
14.665,0.015
14.670,0.018
14.675,0.011
14.680,0.011
14.685,0.023
14.690,0.022
14.695,0.014
14.700,0.018
14.705,0.018
14.710,0.011
14.715,0.016
14.720,0.025
14.725,0.022
14.730,0.019
14.735,0.023
14.740,0.023
14.745,0.018
14.750,0.021
14.755,0.024
14.760,0.018
14.765,0.022
14.770,0.032
14.775,0.030
14.780,0.031
14.785,0.042
14.790,0.048
14.795,0.051
14.800,0.057
14.805,0.057
14.810,0.061
14.815,0.091
14.820,0.117
14.825,0.109
14.830,0.086
14.835,0.070
14.840,0.060
14.845,0.052
14.850,0.041
14.855,0.024
14.860,-0.001
14.865,-0.017
14.870,-0.020
14.875,-0.035
14.880,-0.048
14.885,-0.038
14.890,-0.037
14.895,-0.044
14.900,-0.035
14.905,-0.032
14.910,-0.038
14.915,-0.036
14.920,-0.034
14.925,-0.040
14.930,-0.039
14.935,-0.026
14.940,-0.019
14.945,-0.024
14.950,-0.022
14.955,-0.011
14.960,0.019
14.965,0.100
14.970,0.193
14.975,0.221
14.980,0.213
14.985,0.190
14.990,0.049
14.995,-0.217
15.000,-0.437
15.005,-0.510
15.010,-0.465
15.015,-0.338
15.020,-0.196
15.025,-0.077
15.030,0.031
15.035,0.072
15.040,0.067
15.045,0.078
15.050,0.085
15.055,0.082
15.060,0.082
15.065,0.081
15.070,0.082
15.075,0.085
15.080,0.080
15.085,0.077
15.090,0.074
15.095,0.071
15.100,0.072
15.105,0.072
15.110,0.068
15.115,0.069
15.120,0.070
15.125,0.064
15.130,0.064
15.135,0.074
15.140,0.071
15.145,0.062
15.150,0.069
15.155,0.075
15.160,0.068
15.165,0.072
15.170,0.084
15.175,0.085
15.180,0.086
15.185,0.094
15.190,0.100
15.195,0.103
15.200,0.115
15.205,0.120
15.210,0.120
15.215,0.136
15.220,0.149
15.225,0.144
15.230,0.144
15.235,0.152
15.240,0.146
15.245,0.135
15.250,0.137
15.255,0.137
15.260,0.117
15.265,0.098
15.270,0.084
15.275,0.060
15.280,0.040
15.285,0.026
15.290,0.002
15.295,-0.029
15.300,-0.048
15.305,-0.065
15.310,-0.088
15.315,-0.103
15.320,-0.115
15.325,-0.133
15.330,-0.143
15.335,-0.146
15.340,-0.153
15.345,-0.158
15.350,-0.150
15.355,-0.149
15.360,-0.156
15.365,-0.149
15.370,-0.142
15.375,-0.150
15.380,-0.151
15.385,-0.136
15.390,-0.128
15.395,-0.124
15.400,-0.111
15.405,-0.105
15.410,-0.108
15.415,-0.100
15.420,-0.087
15.425,-0.085
15.430,-0.083
15.435,-0.070
15.440,-0.066
15.445,-0.069
15.450,-0.058
15.455,-0.048
15.460,-0.050
15.465,-0.047
15.470,-0.042
15.475,-0.043
15.480,-0.041
15.485,-0.031
15.490,-0.028
15.495,-0.030
15.500,-0.023
15.505,-0.019
15.510,-0.023
15.515,-0.024
15.520,-0.022
15.525,-0.024
15.530,-0.022
15.535,-0.013
15.540,-0.015
15.545,-0.025
15.550,-0.022
15.555,-0.014
15.560,-0.019
15.565,-0.019
15.570,-0.012
15.575,-0.016
15.580,-0.016
15.585,-0.005
15.590,-0.009
15.595,-0.016
15.600,-0.008
15.605,-0.005
15.610,-0.013
15.615,-0.008
15.620,0.001
15.625,-0.003
15.630,-0.005
15.635,0.003
15.640,0.005
15.645,-0.001
15.650,0.003
15.655,0.006
15.660,-0.001
15.665,0.005
15.670,0.013
15.675,0.007
15.680,0.006
15.685,0.014
15.690,0.017
15.695,0.012
15.700,0.014
15.705,0.016
15.710,0.013
15.715,0.017
15.720,0.021
15.725,0.015
15.730,0.014
15.735,0.025
15.740,0.025
15.745,0.019
15.750,0.024
15.755,0.026
15.760,0.019
15.765,0.027
15.770,0.043
15.775,0.045
15.780,0.048
15.785,0.057
15.790,0.054
15.795,0.055
15.800,0.075
15.805,0.099
15.810,0.109
15.815,0.102
15.820,0.084
15.825,0.066
15.830,0.058
15.835,0.058
15.840,0.037
15.845,0.012
15.850,0.007
15.855,-0.003
15.860,-0.022
15.865,-0.028
15.870,-0.027
15.875,-0.032
15.880,-0.037
15.885,-0.030
15.890,-0.030
15.895,-0.037
15.900,-0.030
15.905,-0.021
15.910,-0.025
15.915,-0.022
15.920,-0.017
15.925,-0.021
15.930,-0.019
15.935,-0.011
15.940,-0.013
15.945,-0.005
15.950,0.046
15.955,0.131
15.960,0.199
15.965,0.219
15.970,0.216
15.975,0.161
15.980,-0.007
15.985,-0.250
15.990,-0.435
15.995,-0.486
16.000,-0.413
16.005,-0.282
16.010,-0.164
16.015,-0.044
16.020,0.054
16.025,0.072
16.030,0.079
16.035,0.100
16.040,0.089
16.045,0.079
16.050,0.090
16.055,0.090
16.060,0.079
16.065,0.083
16.070,0.088
16.075,0.078
16.080,0.077
16.085,0.084
16.090,0.075
16.095,0.067
16.100,0.076
16.105,0.076
16.110,0.070
16.115,0.073
16.120,0.075
16.125,0.068
16.130,0.064
16.135,0.070
16.140,0.070
16.145,0.069
16.150,0.078
16.155,0.081
16.160,0.075
16.165,0.082
16.170,0.091
16.175,0.091
16.180,0.097
16.185,0.113
16.190,0.120
16.195,0.121
16.200,0.132
16.205,0.142
16.210,0.141
16.215,0.148
16.220,0.156
16.225,0.149
16.230,0.143
16.235,0.146
16.240,0.142
16.245,0.126
16.250,0.116
16.255,0.105
16.260,0.083
16.265,0.066
16.270,0.048
16.275,0.016
16.280,-0.010
16.285,-0.028
16.290,-0.054
16.295,-0.080
16.300,-0.093
16.305,-0.107
16.310,-0.130
16.315,-0.141
16.320,-0.144
16.325,-0.155
16.330,-0.160
16.335,-0.156
16.340,-0.161
16.345,-0.166
16.350,-0.158
16.355,-0.154
16.360,-0.159
16.365,-0.152
16.370,-0.142
16.375,-0.143
16.380,-0.139
16.385,-0.126
16.390,-0.122
16.395,-0.120
16.400,-0.109
16.405,-0.103
16.410,-0.105
16.415,-0.096
16.420,-0.081
16.425,-0.080
16.430,-0.078
16.435,-0.065
16.440,-0.060
16.445,-0.060
16.450,-0.049
16.455,-0.045
16.460,-0.049
16.465,-0.042
16.470,-0.030
16.475,-0.031
16.480,-0.031
16.485,-0.026
16.490,-0.026
16.495,-0.031
16.500,-0.026
16.505,-0.019
16.510,-0.024
16.515,-0.024
16.520,-0.018
16.525,-0.022
16.530,-0.023
16.535,-0.016
16.540,-0.017
16.545,-0.023
16.550,-0.019
16.555,-0.017
16.560,-0.023
16.565,-0.015
16.570,-0.004
16.575,-0.013
16.580,-0.018
16.585,-0.010
16.590,-0.007
16.595,-0.010
16.600,-0.011
16.605,-0.010
16.610,-0.013
16.615,-0.009
16.620,-0.001
16.625,-0.005
16.630,-0.006
16.635,0.001
16.640,0.002
16.645,-0.002
16.650,0.004
16.655,0.007
16.660,0.000
16.665,0.005
16.670,0.012
16.675,0.005
16.680,0.005
16.685,0.015
16.690,0.013
16.695,0.007
16.700,0.010
16.705,0.012
16.710,0.007
16.715,0.011
16.720,0.019
16.725,0.013
16.730,0.011
16.735,0.021
16.740,0.020
16.745,0.015
16.750,0.020
16.755,0.022
16.760,0.015
16.765,0.019
16.770,0.026
16.775,0.019
16.780,0.019
16.785,0.033
16.790,0.040
16.795,0.043
16.800,0.053
16.805,0.057
16.810,0.053
16.815,0.062
16.820,0.084
16.825,0.101
16.830,0.109
16.835,0.103
16.840,0.075
16.845,0.055
16.850,0.060
16.855,0.055
16.860,0.028
16.865,0.012
16.870,0.004
16.875,-0.014
16.880,-0.029
16.885,-0.034
16.890,-0.037
16.895,-0.041
16.900,-0.036
16.905,-0.031
16.910,-0.042
16.915,-0.041
16.920,-0.031
16.925,-0.034
16.930,-0.032
16.935,-0.022
16.940,-0.023
16.945,-0.026
16.950,-0.020
16.955,-0.017
16.960,-0.022
16.965,-0.002
16.970,0.055
16.975,0.135
16.980,0.208
16.985,0.233
16.990,0.216
16.995,0.161
17.000,0.004
17.005,-0.240
17.010,-0.423
17.015,-0.452
17.020,-0.373
17.025,-0.258
17.030,-0.142
17.035,-0.019
17.040,0.060
17.045,0.065
17.050,0.068
17.055,0.077
17.060,0.064
17.065,0.063
17.070,0.076
17.075,0.071
17.080,0.064
17.085,0.071
17.090,0.072
17.095,0.064
17.100,0.066
17.105,0.066
17.110,0.056
17.115,0.059
17.120,0.063
17.125,0.055
17.130,0.055
17.135,0.064
17.140,0.061
17.145,0.051
17.150,0.055
17.155,0.060
17.160,0.055
17.165,0.059
17.170,0.068
17.175,0.069
17.180,0.072
17.185,0.080
17.190,0.077
17.195,0.077
17.200,0.090
17.205,0.102
17.210,0.104
17.215,0.110
17.220,0.122
17.225,0.126
17.230,0.133
17.235,0.144
17.240,0.142
17.245,0.136
17.250,0.141
17.255,0.142
17.260,0.129
17.265,0.120
17.270,0.117
17.275,0.102
17.280,0.083
17.285,0.067
17.290,0.042
17.295,0.012
17.300,-0.003
17.305,-0.025
17.310,-0.055
17.315,-0.071
17.320,-0.084
17.325,-0.109
17.330,-0.128
17.335,-0.134
17.340,-0.143
17.345,-0.152
17.350,-0.149
17.355,-0.148
17.360,-0.156
17.365,-0.153
17.370,-0.144
17.375,-0.149
17.380,-0.150
17.385,-0.140
17.390,-0.138
17.395,-0.139
17.400,-0.126
17.405,-0.117
17.410,-0.119
17.415,-0.110
17.420,-0.096
17.425,-0.097
17.430,-0.095
17.435,-0.080
17.440,-0.074
17.445,-0.074
17.450,-0.062
17.455,-0.054
17.460,-0.054
17.465,-0.048
17.470,-0.043
17.475,-0.044
17.480,-0.042
17.485,-0.034
17.490,-0.032
17.495,-0.031
17.500,-0.022
17.505,-0.019
17.510,-0.028
17.515,-0.028
17.520,-0.020
17.525,-0.022
17.530,-0.024
17.535,-0.017
17.540,-0.017
17.545,-0.020
17.550,-0.013
17.555,-0.013
17.560,-0.021
17.565,-0.018
17.570,-0.012
17.575,-0.021
17.580,-0.019
17.585,-0.007
17.590,-0.010
17.595,-0.016
17.600,-0.010
17.605,-0.006
17.610,-0.011
17.615,-0.009
17.620,-0.004
17.625,-0.008
17.630,-0.007
17.635,0.003
17.640,0.001
17.645,-0.005
17.650,0.000
17.655,0.004
17.660,0.001
17.665,0.002
17.670,0.004
17.675,0.001
17.680,0.004
17.685,0.014
17.690,0.013
17.695,0.004
17.700,0.008
17.705,0.015
17.710,0.008
17.715,0.011
17.720,0.018
17.725,0.011
17.730,0.014
17.735,0.023
17.740,0.017
17.745,0.012
17.750,0.018
17.755,0.020
17.760,0.015
17.765,0.017
17.770,0.024
17.775,0.022
17.780,0.021
17.785,0.025
17.790,0.020
17.795,0.016
17.800,0.021
17.805,0.023
17.810,0.015
17.815,0.017
17.820,0.028
17.825,0.026
17.830,0.020
17.835,0.031
17.840,0.041
17.845,0.043
17.850,0.055
17.855,0.060
17.860,0.051
17.865,0.063
17.870,0.088
17.875,0.101
17.880,0.111
17.885,0.105
17.890,0.077
17.895,0.056
17.900,0.054
17.905,0.046
17.910,0.027
17.915,0.015
17.920,0.002
17.925,-0.016
17.930,-0.031
17.935,-0.038
17.940,-0.039
17.945,-0.042
17.950,-0.037
17.955,-0.033
17.960,-0.043
17.965,-0.040
17.970,-0.033
17.975,-0.038
17.980,-0.034
17.985,-0.026
17.990,-0.029
17.995,-0.031
18.000,-0.023
18.005,-0.019
18.010,-0.023
18.015,-0.009
18.020,0.040
18.025,0.119
18.030,0.202
18.035,0.239
18.040,0.229
18.045,0.176
18.050,0.016
18.055,-0.244
18.060,-0.459
18.065,-0.514
18.070,-0.442
18.075,-0.320
18.080,-0.187
18.085,-0.051
18.090,0.046
18.095,0.066
18.100,0.076
18.105,0.092
18.110,0.078
18.115,0.075
18.120,0.086
18.125,0.078
18.130,0.076
18.135,0.087
18.140,0.084
18.145,0.072
18.150,0.076
18.155,0.076
18.160,0.062
18.165,0.063
18.170,0.072
18.175,0.069
18.180,0.069
18.185,0.076
18.190,0.072
18.195,0.065
18.200,0.069
18.205,0.068
18.210,0.061
18.215,0.065
18.220,0.076
18.225,0.075
18.230,0.074
18.235,0.083
18.240,0.086
18.245,0.085
18.250,0.098
18.255,0.105
18.260,0.102
18.265,0.114
18.270,0.130
18.275,0.133
18.280,0.140
18.285,0.152
18.290,0.149
18.295,0.140
18.300,0.141
18.305,0.142
18.310,0.133
18.315,0.127
18.320,0.119
18.325,0.099
18.330,0.080
18.335,0.065
18.340,0.041
18.345,0.017
18.350,0.001
18.355,-0.020
18.360,-0.053
18.365,-0.072
18.370,-0.086
18.375,-0.111
18.380,-0.126
18.385,-0.129
18.390,-0.143
18.395,-0.152
18.400,-0.147
18.405,-0.150
18.410,-0.161
18.415,-0.159
18.420,-0.149
18.425,-0.153
18.430,-0.152
18.435,-0.142
18.440,-0.137
18.445,-0.137
18.450,-0.131
18.455,-0.124
18.460,-0.122
18.465,-0.112
18.470,-0.099
18.475,-0.101
18.480,-0.098
18.485,-0.084
18.490,-0.081
18.495,-0.080
18.500,-0.066
18.505,-0.059
18.510,-0.065
18.515,-0.058
18.520,-0.047
18.525,-0.046
18.530,-0.045
18.535,-0.038
18.540,-0.035
18.545,-0.036
18.550,-0.029
18.555,-0.024
18.560,-0.032
18.565,-0.028
18.570,-0.017
18.575,-0.021
18.580,-0.025
18.585,-0.018
18.590,-0.020
18.595,-0.025
18.600,-0.020
18.605,-0.019
18.610,-0.024
18.615,-0.019
18.620,-0.013
18.625,-0.017
18.630,-0.017
18.635,-0.011
18.640,-0.016
18.645,-0.018
18.650,-0.008
18.655,-0.009
18.660,-0.016
18.665,-0.012
18.670,-0.005
18.675,-0.009
18.680,-0.009
18.685,0.000
18.690,0.001
18.695,-0.004
18.700,0.001
18.705,0.005
18.710,-0.002
18.715,0.001
18.720,0.008
18.725,0.001
18.730,0.001
18.735,0.012
18.740,0.011
18.745,0.003
18.750,0.009
18.755,0.014
18.760,0.009
18.765,0.013
18.770,0.019
18.775,0.016
18.780,0.016
18.785,0.021
18.790,0.019
18.795,0.012
18.800,0.016
18.805,0.021
18.810,0.017
18.815,0.020
18.820,0.027
18.825,0.021
18.830,0.020
18.835,0.028
18.840,0.022
18.845,0.017
18.850,0.028
18.855,0.038
18.860,0.043
18.865,0.051
18.870,0.057
18.875,0.052
18.880,0.054
18.885,0.078
18.890,0.097
18.895,0.108
18.900,0.108
18.905,0.087
18.910,0.062
18.915,0.061
18.920,0.065
18.925,0.044
18.930,0.020
18.935,0.010
18.940,-0.002
18.945,-0.018
18.950,-0.024
18.955,-0.026
18.960,-0.036
18.965,-0.033
18.970,-0.024
18.975,-0.032
18.980,-0.034
18.985,-0.025
18.990,-0.027
18.995,-0.030
19.000,-0.025
19.005,-0.020
19.010,-0.019
19.015,-0.013
19.020,-0.008
19.025,-0.017
19.030,-0.014
19.035,0.017
19.040,0.070
19.045,0.151
19.050,0.226
19.055,0.237
19.060,0.215
19.065,0.147
19.070,-0.044
19.075,-0.301
19.080,-0.461
19.085,-0.472
19.090,-0.390
19.095,-0.265
19.100,-0.138
19.105,-0.016
19.110,0.058
19.115,0.072
19.120,0.085
19.125,0.084
19.130,0.072
19.135,0.083
19.140,0.088
19.145,0.075
19.150,0.078
19.155,0.084
19.160,0.074
19.165,0.073
19.170,0.078
19.175,0.070
19.180,0.072
19.185,0.082
19.190,0.071
19.195,0.055
19.200,0.060
19.205,0.068
19.210,0.064
19.215,0.062
19.220,0.065
19.225,0.063
19.230,0.064
19.235,0.071
19.240,0.070
19.245,0.067
19.250,0.078
19.255,0.087
19.260,0.083
19.265,0.087
19.270,0.097
19.275,0.100
19.280,0.107
19.285,0.124
19.290,0.131
19.295,0.130
19.300,0.138
19.305,0.145
19.310,0.140
19.315,0.141
19.320,0.143
19.325,0.132
19.330,0.126
19.335,0.126
19.340,0.113
19.345,0.091
19.350,0.078
19.355,0.060
19.360,0.032
19.365,0.009
19.370,-0.015
19.375,-0.043
19.380,-0.064
19.385,-0.078
19.390,-0.101
19.395,-0.124
19.400,-0.131
19.405,-0.140
19.410,-0.155
19.415,-0.156
19.420,-0.155
19.425,-0.166
19.430,-0.167
19.435,-0.158
19.440,-0.160
19.445,-0.164
19.450,-0.155
19.455,-0.146
19.460,-0.148
19.465,-0.141
19.470,-0.131
19.475,-0.130
19.480,-0.126
19.485,-0.114
19.490,-0.109
19.495,-0.108
19.500,-0.094
19.505,-0.085
19.510,-0.088
19.515,-0.079
19.520,-0.066
19.525,-0.064
19.530,-0.058
19.535,-0.046
19.540,-0.043
19.545,-0.047
19.550,-0.039
19.555,-0.033
19.560,-0.036
19.565,-0.031
19.570,-0.022
19.575,-0.025
19.580,-0.025
19.585,-0.016
19.590,-0.019
19.595,-0.023
19.600,-0.013
19.605,-0.011
19.610,-0.018
19.615,-0.015
19.620,-0.011
19.625,-0.018
19.630,-0.019
19.635,-0.011
19.640,-0.012
19.645,-0.017
19.650,-0.011
19.655,-0.008
19.660,-0.013
19.665,-0.010
19.670,-0.005
19.675,-0.010
19.680,-0.012
19.685,-0.006
19.690,-0.006
19.695,-0.008
19.700,-0.004
19.705,-0.003
19.710,-0.010
19.715,-0.004
19.720,0.001
19.725,-0.003
19.730,0.000
19.735,0.007
19.740,0.002
19.745,-0.001
19.750,0.009
19.755,0.011
19.760,0.003
19.765,0.008
19.770,0.014
19.775,0.009
19.780,0.008
19.785,0.014
19.790,0.014
19.795,0.012
19.800,0.016
19.805,0.016
19.810,0.008
19.815,0.011
19.820,0.021
19.825,0.017
19.830,0.014
19.835,0.020
19.840,0.017
19.845,0.012
19.850,0.019
19.855,0.021
19.860,0.014
19.865,0.018
19.870,0.025
19.875,0.020
19.880,0.018
19.885,0.024
19.890,0.021
19.895,0.015
19.900,0.021
19.905,0.024
19.910,0.018
19.915,0.020
19.920,0.025
19.925,0.021
19.930,0.019
19.935,0.025
19.940,0.022
19.945,0.015
19.950,0.024
19.955,0.029
19.960,0.019
19.965,0.021
19.970,0.031
19.975,0.034
19.980,0.043
19.985,0.053
19.990,0.051
19.995,0.050
20.000,0.063
20.005,0.079
20.010,0.093
20.015,0.111
20.020,0.109
20.025,0.077
20.030,0.056
20.035,0.056
20.040,0.047
20.045,0.028
20.050,0.016
20.055,0.001
20.060,-0.017
20.065,-0.025
20.070,-0.033
20.075,-0.044
20.080,-0.045
20.085,-0.038
20.090,-0.039
20.095,-0.045
20.100,-0.040
20.105,-0.036
20.110,-0.040
20.115,-0.035
20.120,-0.028
20.125,-0.033
20.130,-0.034
20.135,-0.023
20.140,-0.022
20.145,-0.030
20.150,-0.015
20.155,0.028
20.160,0.102
20.165,0.194
20.170,0.234
20.175,0.215
20.180,0.182
20.185,0.070
20.190,-0.170
20.195,-0.394
20.200,-0.464
20.205,-0.417
20.210,-0.312
20.215,-0.184
20.220,-0.057
20.225,0.037
20.230,0.061
20.235,0.058
20.240,0.066
20.245,0.063
20.250,0.062
20.255,0.070
20.260,0.066
20.265,0.063
20.270,0.070
20.275,0.068
20.280,0.062
20.285,0.062
20.290,0.056
20.295,0.050
20.300,0.056
20.305,0.059
20.310,0.054
20.315,0.053
20.320,0.054
20.325,0.051
20.330,0.052
20.335,0.059
20.340,0.058
20.345,0.053
20.350,0.062
20.355,0.067
20.360,0.062
20.365,0.068
20.370,0.075
20.375,0.073
20.380,0.079
20.385,0.090
20.390,0.090
20.395,0.094
20.400,0.112
20.405,0.121
20.410,0.118
20.415,0.126
20.420,0.144
20.425,0.149
20.430,0.145
20.435,0.143
20.440,0.135
20.445,0.129
20.450,0.132
20.455,0.121
20.460,0.101
20.465,0.091
20.470,0.080
20.475,0.054
20.480,0.032
20.485,0.016
20.490,-0.014
20.495,-0.043
20.500,-0.060
20.505,-0.079
20.510,-0.104
20.515,-0.119
20.520,-0.128
20.525,-0.145
20.530,-0.152
20.535,-0.146
20.540,-0.150
20.545,-0.160
20.550,-0.155
20.555,-0.149
20.560,-0.156
20.565,-0.149
20.570,-0.138
20.575,-0.142
20.580,-0.140
20.585,-0.127
20.590,-0.125
20.595,-0.123
20.600,-0.112
20.605,-0.107
20.610,-0.105
20.615,-0.094
20.620,-0.080
20.625,-0.077
20.630,-0.078
20.635,-0.069
20.640,-0.065
20.645,-0.064
20.650,-0.051
20.655,-0.045
20.660,-0.050
20.665,-0.041
20.670,-0.032
20.675,-0.035
20.680,-0.033
20.685,-0.026
20.690,-0.029
20.695,-0.032
20.700,-0.024
20.705,-0.020
20.710,-0.022
20.715,-0.018
20.720,-0.016
20.725,-0.023
20.730,-0.022
20.735,-0.013
20.740,-0.018
20.745,-0.026
20.750,-0.017
20.755,-0.011
20.760,-0.018
20.765,-0.018
20.770,-0.012
20.775,-0.017
20.780,-0.015
20.785,-0.008
20.790,-0.015
20.795,-0.018
20.800,-0.010
20.805,-0.006
20.810,-0.012
20.815,-0.010
20.820,-0.004
20.825,-0.007
20.830,-0.007
20.835,0.003
20.840,-0.001
20.845,-0.011
20.850,-0.003
20.855,0.003
20.860,-0.004
20.865,-0.002
20.870,0.002
20.875,-0.002
20.880,0.001
20.885,0.010
20.890,0.008
20.895,0.004
20.900,0.011
20.905,0.012
20.910,0.006
20.915,0.011
20.920,0.018
20.925,0.012
20.930,0.013
20.935,0.020
20.940,0.020
20.945,0.016
20.950,0.019
20.955,0.020
20.960,0.011
20.965,0.015
20.970,0.027
20.975,0.021
20.980,0.019
20.985,0.027
20.990,0.022
20.995,0.016
21.000,0.022
21.005,0.023
21.010,0.020
21.015,0.023
21.020,0.028
21.025,0.023
21.030,0.020
21.035,0.025
21.040,0.023
21.045,0.023
21.050,0.033
21.055,0.038
21.060,0.038
21.065,0.044
21.070,0.056
21.075,0.055
21.080,0.052
21.085,0.069
21.090,0.090
21.095,0.107
21.100,0.118
21.105,0.097
21.110,0.062
21.115,0.056
21.120,0.060
21.125,0.042
21.130,0.018
21.135,0.001
21.140,-0.012
21.145,-0.021
21.150,-0.027
21.155,-0.035
21.160,-0.042
21.165,-0.035
21.170,-0.029
21.175,-0.037
21.180,-0.037
21.185,-0.026
21.190,-0.031
21.195,-0.036
21.200,-0.028
21.205,-0.027
21.210,-0.031
21.215,-0.024
21.220,-0.015
21.225,-0.021
21.230,-0.024
21.235,-0.003
21.240,0.043
21.245,0.124
21.250,0.201
21.255,0.220
21.260,0.205
21.265,0.145
21.270,-0.038
21.275,-0.303
21.280,-0.476
21.285,-0.488
21.290,-0.405
21.295,-0.279
21.300,-0.148
21.305,-0.028
21.310,0.050
21.315,0.069
21.320,0.079
21.325,0.082
21.330,0.080
21.335,0.092
21.340,0.091
21.345,0.075
21.350,0.080
21.355,0.089
21.360,0.080
21.365,0.076
21.370,0.080
21.375,0.076
21.380,0.070
21.385,0.072
21.390,0.071
21.395,0.066
21.400,0.072
21.405,0.073
21.410,0.064
21.415,0.066
21.420,0.073
21.425,0.067
21.430,0.066
21.435,0.074
21.440,0.074
21.445,0.069
21.450,0.077
21.455,0.083
21.460,0.081
21.465,0.091
21.470,0.104
21.475,0.104
21.480,0.108
21.485,0.122
21.490,0.124
21.495,0.124
21.500,0.135
21.505,0.142
21.510,0.138
21.515,0.138
21.520,0.138
21.525,0.128
21.530,0.123
21.535,0.121
21.540,0.106
21.545,0.083
21.550,0.073
21.555,0.060
21.560,0.032
21.565,0.010
21.570,-0.005
21.575,-0.033
21.580,-0.055
21.585,-0.068
21.590,-0.089
21.595,-0.109
21.600,-0.118
21.605,-0.129
21.610,-0.144
21.615,-0.147
21.620,-0.145
21.625,-0.153
21.630,-0.154
21.635,-0.143
21.640,-0.147
21.645,-0.153
21.650,-0.145
21.655,-0.138
21.660,-0.138
21.665,-0.131
21.670,-0.120
21.675,-0.118
21.680,-0.116
21.685,-0.103
21.690,-0.098
21.695,-0.099
21.700,-0.087
21.705,-0.080
21.710,-0.081
21.715,-0.069
21.720,-0.060
21.725,-0.061
21.730,-0.055
21.735,-0.046
21.740,-0.046
21.745,-0.045
21.750,-0.036
21.755,-0.030
21.760,-0.036
21.765,-0.031
21.770,-0.022
21.775,-0.029
21.780,-0.028
21.785,-0.016
21.790,-0.021
21.795,-0.026
21.800,-0.016
21.805,-0.015
21.810,-0.021
21.815,-0.018
21.820,-0.011
21.825,-0.012
21.830,-0.012
21.835,-0.009
21.840,-0.013
21.845,-0.019
21.850,-0.014
21.855,-0.011
21.860,-0.017
21.865,-0.010
21.870,-0.004
21.875,-0.010
21.880,-0.009
21.885,-0.004
21.890,-0.009
21.895,-0.011
21.900,-0.002
21.905,-0.003
21.910,-0.010
21.915,-0.003
21.920,0.003
21.925,-0.002
21.930,-0.005
21.935,0.001
21.940,0.002
21.945,0.000
21.950,0.010
21.955,0.012
21.960,0.002
21.965,0.006
21.970,0.014
21.975,0.008
21.980,0.007
21.985,0.014
21.990,0.013
21.995,0.010
22.000,0.014
22.005,0.015
22.010,0.012
22.015,0.016
22.020,0.025
22.025,0.019
22.030,0.013
22.035,0.019
22.040,0.018
22.045,0.020
22.050,0.030
22.055,0.028
22.060,0.017
22.065,0.018
22.070,0.024
22.075,0.021
22.080,0.023
22.085,0.038
22.090,0.044
22.095,0.045
22.100,0.057
22.105,0.057
22.110,0.048
22.115,0.063
22.120,0.087
22.125,0.102
22.130,0.106
22.135,0.093
22.140,0.070
22.145,0.054
22.150,0.056
22.155,0.051
22.160,0.027
22.165,0.008
22.170,-0.003
22.175,-0.019
22.180,-0.030
22.185,-0.036
22.190,-0.043
22.195,-0.045
22.200,-0.035
22.205,-0.035
22.210,-0.044
22.215,-0.037
22.220,-0.030
22.225,-0.037
22.230,-0.037
22.235,-0.026
22.240,-0.027
22.245,-0.032
22.250,-0.022
22.255,-0.018
22.260,-0.028
22.265,-0.016
22.270,0.030
22.275,0.099
22.280,0.185
22.285,0.234
22.290,0.225
22.295,0.191
22.300,0.080
22.305,-0.155
22.310,-0.387
22.315,-0.474
22.320,-0.434
22.325,-0.328
22.330,-0.199
22.335,-0.074
22.340,0.024
22.345,0.055
22.350,0.059
22.355,0.076
22.360,0.071
22.365,0.064
22.370,0.073
22.375,0.070
22.380,0.065
22.385,0.074
22.390,0.071
22.395,0.060
22.400,0.063
22.405,0.066
22.410,0.058
22.415,0.059
22.420,0.066
22.425,0.058
22.430,0.055
22.435,0.063
22.440,0.058
22.445,0.054
22.450,0.060
22.455,0.060
22.460,0.056
22.465,0.061
22.470,0.067
22.475,0.064
22.480,0.067
22.485,0.078
22.490,0.080
22.495,0.078
22.500,0.088
22.505,0.097
22.510,0.099
22.515,0.110
22.520,0.124
22.525,0.125
22.530,0.131
22.535,0.147
22.540,0.150
22.545,0.144
22.550,0.149
22.555,0.145
22.560,0.131
22.565,0.131
22.570,0.129
22.575,0.110
22.580,0.092
22.585,0.079
22.590,0.056
22.595,0.030
22.600,0.008
22.605,-0.019
22.610,-0.047
22.615,-0.065
22.620,-0.080
22.625,-0.105
22.630,-0.125
22.635,-0.129
22.640,-0.140
22.645,-0.153
22.650,-0.152
22.655,-0.153
22.660,-0.159
22.665,-0.159
22.670,-0.156
22.675,-0.159
22.680,-0.155
22.685,-0.142
22.690,-0.143
22.695,-0.146
22.700,-0.133
22.705,-0.125
22.710,-0.127
22.715,-0.118
22.720,-0.105
22.725,-0.105
22.730,-0.101
22.735,-0.088
22.740,-0.084
22.745,-0.080
22.750,-0.068
22.755,-0.063
22.760,-0.066
22.765,-0.057
22.770,-0.045
22.775,-0.045
22.780,-0.043
22.785,-0.035
22.790,-0.035
22.795,-0.035
22.800,-0.025
22.805,-0.022
22.810,-0.027
22.815,-0.023
22.820,-0.015
22.825,-0.023
22.830,-0.023
22.835,-0.016
22.840,-0.021
22.845,-0.023
22.850,-0.013
22.855,-0.012
22.860,-0.020
22.865,-0.016
22.870,-0.010
22.875,-0.016
22.880,-0.016
22.885,-0.008
22.890,-0.011
22.895,-0.017
22.900,-0.010
22.905,-0.007
22.910,-0.014
22.915,-0.010
22.920,-0.004
22.925,-0.008
22.930,-0.006
22.935,0.002
22.940,0.001
22.945,-0.003
22.950,0.002
22.955,0.002
22.960,-0.004
22.965,0.000
22.970,0.007
22.975,0.005
22.980,0.005
22.985,0.009
22.990,0.006
22.995,0.005
23.000,0.012
23.005,0.013
23.010,0.008
23.015,0.013
23.020,0.020
23.025,0.012
23.030,0.010
23.035,0.020
23.040,0.018
23.045,0.011
23.050,0.018
23.055,0.020
23.060,0.011
23.065,0.017
23.070,0.026
23.075,0.021
23.080,0.020
23.085,0.027
23.090,0.022
23.095,0.016
23.100,0.020
23.105,0.020
23.110,0.016
23.115,0.022
23.120,0.027
23.125,0.022
23.130,0.020
23.135,0.028
23.140,0.026
23.145,0.016
23.150,0.020
23.155,0.023
23.160,0.020
23.165,0.031
23.170,0.045
23.175,0.048
23.180,0.052
23.185,0.059
23.190,0.055
23.195,0.058
23.200,0.084
23.205,0.107
23.210,0.107
23.215,0.093
23.220,0.073
23.225,0.054
23.230,0.053
23.235,0.057
23.240,0.035
23.245,0.010
23.250,-0.001
23.255,-0.015
23.260,-0.034
23.265,-0.043
23.270,-0.042
23.275,-0.043
23.280,-0.041
23.285,-0.032
23.290,-0.037
23.295,-0.045
23.300,-0.037
23.305,-0.031
23.310,-0.036
23.315,-0.030
23.320,-0.025
23.325,-0.032
23.330,-0.029
23.335,-0.019
23.340,-0.020
23.345,-0.009
23.350,0.051
23.355,0.146
23.360,0.216
23.365,0.231
23.370,0.217
23.375,0.155
23.380,-0.014
23.385,-0.256
23.390,-0.429
23.395,-0.456
23.400,-0.373
23.405,-0.250
23.410,-0.137
23.415,-0.016
23.420,0.066
23.425,0.060
23.430,0.056
23.435,0.070
23.440,0.061
23.445,0.055
23.450,0.069
23.455,0.070
23.460,0.057
23.465,0.062
23.470,0.068
23.475,0.057
23.480,0.053
23.485,0.061
23.490,0.058
23.495,0.049
23.500,0.054
23.505,0.055
23.510,0.049
23.515,0.056
23.520,0.061
23.525,0.051
23.530,0.051
23.535,0.059
23.540,0.060
23.545,0.059
23.550,0.067
23.555,0.071
23.560,0.065
23.565,0.069
23.570,0.078
23.575,0.081
23.580,0.087
23.585,0.099
23.590,0.103
23.595,0.107
23.600,0.124
23.605,0.134
23.610,0.131
23.615,0.137
23.620,0.146
23.625,0.142
23.630,0.145
23.635,0.149
23.640,0.133
23.645,0.119
23.650,0.119
23.655,0.106
23.660,0.079
23.665,0.062
23.670,0.047
23.675,0.021
23.680,-0.002
23.685,-0.019
23.690,-0.044
23.695,-0.069
23.700,-0.084
23.705,-0.103
23.710,-0.125
23.715,-0.135
23.720,-0.142
23.725,-0.154
23.730,-0.157
23.735,-0.148
23.740,-0.150
23.745,-0.157
23.750,-0.149
23.755,-0.143
23.760,-0.148
23.765,-0.142
23.770,-0.133
23.775,-0.135
23.780,-0.131
23.785,-0.120
23.790,-0.121
23.795,-0.121
23.800,-0.104
23.805,-0.092
23.810,-0.091
23.815,-0.083
23.820,-0.075
23.825,-0.073
23.830,-0.065
23.835,-0.058
23.840,-0.060
23.845,-0.059
23.850,-0.047
23.855,-0.038
23.860,-0.041
23.865,-0.039
23.870,-0.029
23.875,-0.032
23.880,-0.034
23.885,-0.025
23.890,-0.025
23.895,-0.029
23.900,-0.019
23.905,-0.018
23.910,-0.028
23.915,-0.024
23.920,-0.018
23.925,-0.024
23.930,-0.024
23.935,-0.017
23.940,-0.018
23.945,-0.021
23.950,-0.013
23.955,-0.011
23.960,-0.020
23.965,-0.016
23.970,-0.012
23.975,-0.021
23.980,-0.019
23.985,-0.011
23.990,-0.015
23.995,-0.015
24.000,-0.006
24.005,-0.003
24.010,-0.010
24.015,-0.009
24.020,-0.002
24.025,-0.007
24.030,-0.011
24.035,-0.002
24.040,0.000
24.045,-0.004
24.050,0.004
24.055,0.005
24.060,-0.001
24.065,0.007
24.070,0.009
24.075,0.000
24.080,0.003
24.085,0.014
24.090,0.010
24.095,0.005
24.100,0.013
24.105,0.015
24.110,0.010
24.115,0.015
24.120,0.020
24.125,0.012
24.130,0.012
24.135,0.022
24.140,0.020
24.145,0.017
24.150,0.024
24.155,0.025
24.160,0.014
24.165,0.016
24.170,0.027
24.175,0.021
24.180,0.016
24.185,0.021
24.190,0.020
24.195,0.023
24.200,0.029
24.205,0.024
24.210,0.016
24.215,0.023
24.220,0.036
24.225,0.042
24.230,0.044
24.235,0.051
24.240,0.050
24.245,0.052
24.250,0.074
24.255,0.096
24.260,0.106
24.265,0.108
24.270,0.091
24.275,0.070
24.280,0.063
24.285,0.063
24.290,0.044
24.295,0.015
24.300,0.004
24.305,-0.007
24.310,-0.026
24.315,-0.034
24.320,-0.034
24.325,-0.036
24.330,-0.034
24.335,-0.029
24.340,-0.034
24.345,-0.038
24.350,-0.031
24.355,-0.029
24.360,-0.036
24.365,-0.031
24.370,-0.020
24.375,-0.026
24.380,-0.025
24.385,-0.012
24.390,-0.019
24.395,-0.024
24.400,0.010
24.405,0.074
24.410,0.150
24.415,0.207
24.420,0.217
24.425,0.192
24.430,0.093
24.435,-0.128
24.440,-0.378
24.445,-0.506
24.450,-0.479
24.455,-0.364
24.460,-0.233
24.465,-0.111
24.470,0.005
24.475,0.064
24.480,0.075
24.485,0.095
24.490,0.093
24.495,0.077
24.500,0.088
24.505,0.093
24.510,0.079
24.515,0.081
24.520,0.088
24.525,0.080
24.530,0.076
24.535,0.082
24.540,0.077
24.545,0.071
24.550,0.078
24.555,0.076
24.560,0.064
24.565,0.067
24.570,0.075
24.575,0.072
24.580,0.070
24.585,0.074
24.590,0.072
24.595,0.070
24.600,0.078
24.605,0.080
24.610,0.071
24.615,0.079
24.620,0.094
24.625,0.092
24.630,0.095
24.635,0.109
24.640,0.110
24.645,0.111
24.650,0.125
24.655,0.132
24.660,0.131
24.665,0.144
24.670,0.154
24.675,0.146
24.680,0.142
24.685,0.144
24.690,0.135
24.695,0.122
24.700,0.117
24.705,0.108
24.710,0.086
24.715,0.070
24.720,0.055
24.725,0.028
24.730,0.007
24.735,-0.006
24.740,-0.032
24.745,-0.059
24.750,-0.075
24.755,-0.093
24.760,-0.114
24.765,-0.122
24.770,-0.128
24.775,-0.145
24.780,-0.151
24.785,-0.145
24.790,-0.149
24.795,-0.158
24.800,-0.151
24.805,-0.146
24.810,-0.152
24.815,-0.146
24.820,-0.138
24.825,-0.142
24.830,-0.135
24.835,-0.120
24.840,-0.116
24.845,-0.114
24.850,-0.106
24.855,-0.102
24.860,-0.102
24.865,-0.087
24.870,-0.073
24.875,-0.076
24.880,-0.075
24.885,-0.063
24.890,-0.058
24.895,-0.054
24.900,-0.046
24.905,-0.043
24.910,-0.048
24.915,-0.043
24.920,-0.034
24.925,-0.035
24.930,-0.032
24.935,-0.022
24.940,-0.024
24.945,-0.030
24.950,-0.023
24.955,-0.020
24.960,-0.026
24.965,-0.019
24.970,-0.014
24.975,-0.023
24.980,-0.019
24.985,-0.010
24.990,-0.012
24.995,-0.017
25.000,-0.014
25.005,-0.012
25.010,-0.017
25.015,-0.015
25.020,-0.010
25.025,-0.016
25.030,-0.018
25.035,-0.008
25.040,-0.008
25.045,-0.013
25.050,-0.010
25.055,-0.009
25.060,-0.011
25.065,-0.006
25.070,-0.003
25.075,-0.011
25.080,-0.009
25.085,0.003
25.090,0.000
25.095,-0.005
25.100,0.003
25.105,0.004
25.110,-0.001
25.115,0.005
25.120,0.009
25.125,0.004
25.130,0.006
25.135,0.014
25.140,0.012
25.145,0.008
25.150,0.013
25.155,0.016
25.160,0.009
25.165,0.010
25.170,0.018
25.175,0.013
25.180,0.020
25.185,0.032
25.190,0.017
25.195,0.008
25.200,0.018
25.205,0.021
25.210,0.018
25.215,0.017
25.220,0.019
25.225,0.019
25.230,0.020
25.235,0.031
25.240,0.038
25.245,0.040
25.250,0.051
25.255,0.055
25.260,0.048
25.265,0.056
25.270,0.077
25.275,0.091
25.280,0.104
25.285,0.104
25.290,0.080
25.295,0.058
25.300,0.059
25.305,0.054
25.310,0.033
25.315,0.020
25.320,0.009
25.325,-0.014
25.330,-0.024
25.335,-0.026
25.340,-0.035
25.345,-0.043
25.350,-0.038
25.355,-0.033
25.360,-0.038
25.365,-0.035
25.370,-0.028
25.375,-0.034
25.380,-0.035
25.385,-0.025
25.390,-0.024
25.395,-0.026
25.400,-0.022
25.405,-0.020
25.410,-0.025
25.415,-0.014
25.420,0.023
25.425,0.085
25.430,0.174
25.435,0.233
25.440,0.228
25.445,0.202
25.450,0.111
25.455,-0.116
25.460,-0.361
25.465,-0.463
25.470,-0.432
25.475,-0.336
25.480,-0.215
25.485,-0.093
25.490,0.017
25.495,0.062
25.500,0.066
25.505,0.076
25.510,0.069
25.515,0.066
25.520,0.077
25.525,0.077
25.530,0.072
25.535,0.074
25.540,0.071
25.545,0.063
25.550,0.067
25.555,0.070
25.560,0.060
25.565,0.057
25.570,0.063
25.575,0.060
25.580,0.059
25.585,0.062
25.590,0.056
25.595,0.051
25.600,0.061
25.605,0.066
25.610,0.059
25.615,0.062
25.620,0.067
25.625,0.062
25.630,0.066
25.635,0.080
25.640,0.079
25.645,0.078
25.650,0.090
25.655,0.096
25.660,0.098
25.665,0.112
25.670,0.124
25.675,0.126
25.680,0.128
25.685,0.140
25.690,0.143
25.695,0.140
25.700,0.146
25.705,0.144
25.710,0.133
25.715,0.133
25.720,0.130
25.725,0.110
25.730,0.094
25.735,0.083
25.740,0.058
25.745,0.032
25.750,0.016
25.755,-0.008
25.760,-0.041
25.765,-0.063
25.770,-0.076
25.775,-0.099
25.780,-0.119
25.785,-0.126
25.790,-0.138
25.795,-0.149
25.800,-0.146
25.805,-0.151
25.810,-0.164
25.815,-0.157
25.820,-0.148
25.825,-0.153
25.830,-0.152
25.835,-0.142
25.840,-0.140
25.845,-0.139
25.850,-0.132
25.855,-0.127
25.860,-0.128
25.865,-0.118
25.870,-0.105
25.875,-0.105
25.880,-0.100
25.885,-0.087
25.890,-0.085
25.895,-0.084
25.900,-0.070
25.905,-0.065
25.910,-0.065
25.915,-0.054
25.920,-0.045
25.925,-0.047
25.930,-0.043
25.935,-0.033
25.940,-0.032
25.945,-0.035
25.950,-0.027
25.955,-0.022
25.960,-0.030
25.965,-0.027
25.970,-0.019
25.975,-0.024
25.980,-0.019
25.985,-0.011
25.990,-0.019
25.995,-0.025
26.000,-0.018
26.005,-0.012
26.010,-0.016
26.015,-0.014
26.020,-0.009
26.025,-0.017
26.030,-0.017
26.035,-0.007
26.040,-0.010
26.045,-0.016
26.050,-0.010
26.055,-0.006
26.060,-0.012
26.065,-0.010
26.070,-0.002
26.075,-0.005
26.080,-0.004
26.085,0.002
26.090,-0.005
26.095,-0.009
26.100,-0.001
26.105,0.002
26.110,-0.001
26.115,0.004
26.120,0.009
26.125,0.002
26.130,0.003
26.135,0.012
26.140,0.011
26.145,0.007
26.150,0.012
26.155,0.013
26.160,0.006
26.165,0.009
26.170,0.016
26.175,0.011
26.180,0.012
26.185,0.018
26.190,0.013
26.195,0.011
26.200,0.020
26.205,0.022
26.210,0.015
26.215,0.014
26.220,0.020
26.225,0.016
26.230,0.014
26.235,0.022
26.240,0.021
26.245,0.018
26.250,0.024
26.255,0.022
26.260,0.015
26.265,0.023
26.270,0.028
26.275,0.019
26.280,0.015
26.285,0.023
26.290,0.027
26.295,0.033
26.300,0.048
26.305,0.051
26.310,0.048
26.315,0.055
26.320,0.067
26.325,0.078
26.330,0.097
26.335,0.113
26.340,0.097
26.345,0.067
26.350,0.060
26.355,0.059
26.360,0.046
26.365,0.032
26.370,0.017
26.375,-0.006
26.380,-0.019
26.385,-0.027
26.390,-0.042
26.395,-0.047
26.400,-0.039
26.405,-0.033
26.410,-0.038
26.415,-0.039
26.420,-0.034
26.425,-0.037
26.430,-0.036
26.435,-0.024
26.440,-0.029
26.445,-0.037
26.450,-0.028
26.455,-0.021
26.460,-0.025
26.465,-0.023
26.470,-0.001
26.475,0.050
26.480,0.144
26.485,0.226
26.490,0.230
26.495,0.210
26.500,0.169
26.505,-0.003
26.510,-0.268
26.515,-0.441
26.520,-0.464
26.525,-0.394
26.530,-0.271
26.535,-0.146
26.540,-0.029
26.545,0.051
26.550,0.066
26.555,0.067
26.560,0.068
26.565,0.069
26.570,0.077
26.575,0.077
26.580,0.075
26.585,0.072
26.590,0.066
26.595,0.063
26.600,0.065
26.605,0.067
26.610,0.061
26.615,0.058
26.620,0.066
26.625,0.065
26.630,0.059
26.635,0.064
26.640,0.062
26.645,0.053
26.650,0.059
26.655,0.061
26.660,0.056
26.665,0.063
26.670,0.068
26.675,0.064
26.680,0.068
26.685,0.077
26.690,0.078
26.695,0.079
26.700,0.091
26.705,0.097
26.710,0.096
26.715,0.111
26.720,0.122
26.725,0.121
26.730,0.129
26.735,0.146
26.740,0.148
26.745,0.144
26.750,0.151
26.755,0.153
26.760,0.145
26.765,0.143
26.770,0.136
26.775,0.117
26.780,0.102
26.785,0.093
26.790,0.070
26.795,0.047
26.800,0.030
26.805,0.005
26.810,-0.026
26.815,-0.049
26.820,-0.068
26.825,-0.094
26.830,-0.114
26.835,-0.121
26.840,-0.138
26.845,-0.149
26.850,-0.144
26.855,-0.150
26.860,-0.162
26.865,-0.162
26.870,-0.156
26.875,-0.160
26.880,-0.159
26.885,-0.146
26.890,-0.144
26.895,-0.147
26.900,-0.137
26.905,-0.129
26.910,-0.132
26.915,-0.125
26.920,-0.111
26.925,-0.110
26.930,-0.105
26.935,-0.093
26.940,-0.093
26.945,-0.089
26.950,-0.075
26.955,-0.074
26.960,-0.076
26.965,-0.063
26.970,-0.050
26.975,-0.051
26.980,-0.052
26.985,-0.043
26.990,-0.040
26.995,-0.043
27.000,-0.033
27.005,-0.026
27.010,-0.032
27.015,-0.030
27.020,-0.020
27.025,-0.021
27.030,-0.022
27.035,-0.017
27.040,-0.025
27.045,-0.028
27.050,-0.018
27.055,-0.019
27.060,-0.023
27.065,-0.018
27.070,-0.014
27.075,-0.015
27.080,-0.014
27.085,-0.013
27.090,-0.017
27.095,-0.022
27.100,-0.011
27.105,-0.005
27.110,-0.016
27.115,-0.011
27.120,-0.004
27.125,-0.009
27.130,-0.007
27.135,-0.002
27.140,-0.005
27.145,-0.005
27.150,0.002
27.155,0.003
27.160,-0.005
27.165,-0.001
27.170,0.005
27.175,0.001
27.180,0.003
27.185,0.010
27.190,0.006
27.195,0.001
27.200,0.010
27.205,0.015
27.210,0.011
27.215,0.015
27.220,0.015
27.225,0.005
27.230,0.006
27.235,0.020
27.240,0.018
27.245,0.011
27.250,0.019
27.255,0.022
27.260,0.017
27.265,0.020
27.270,0.026
27.275,0.020
27.280,0.016
27.285,0.021
27.290,0.020
27.295,0.021
27.300,0.028
27.305,0.023
27.310,0.016
27.315,0.028
27.320,0.042
27.325,0.040
27.330,0.042
27.335,0.051
27.340,0.052
27.345,0.052
27.350,0.072
27.355,0.098
27.360,0.108
27.365,0.108
27.370,0.094
27.375,0.069
27.380,0.058
27.385,0.059
27.390,0.039
27.395,0.013
27.400,0.003
27.405,-0.007
27.410,-0.024
27.415,-0.030
27.420,-0.028
27.425,-0.032
27.430,-0.032
27.435,-0.026
27.440,-0.031
27.445,-0.033
27.450,-0.025
27.455,-0.027
27.460,-0.036
27.465,-0.029
27.470,-0.019
27.475,-0.023
27.480,-0.021
27.485,-0.013
27.490,-0.014
27.495,-0.013
27.500,0.023
27.505,0.094
27.510,0.167
27.515,0.207
27.520,0.207
27.525,0.172
27.530,0.045
27.535,-0.190
27.540,-0.411
27.545,-0.497
27.550,-0.447
27.555,-0.326
27.560,-0.200
27.565,-0.077
27.570,0.030
27.575,0.069
27.580,0.080
27.585,0.102
27.590,0.097
27.595,0.085
27.600,0.097
27.605,0.098
27.610,0.081
27.615,0.083
27.620,0.092
27.625,0.083
27.630,0.079
27.635,0.086
27.640,0.078
27.645,0.072
27.650,0.079
27.655,0.076
27.660,0.069
27.665,0.078
27.670,0.082
27.675,0.068
27.680,0.068
27.685,0.080
27.690,0.081
27.695,0.077
27.700,0.083
27.705,0.083
27.710,0.079
27.715,0.088
27.720,0.098
27.725,0.092
27.730,0.094
27.735,0.109
27.740,0.117
27.745,0.119
27.750,0.128
27.755,0.137
27.760,0.139
27.765,0.148
27.770,0.157
27.775,0.149
27.780,0.146
27.785,0.149
27.790,0.136
27.795,0.122
27.800,0.117
27.805,0.107
27.810,0.088
27.815,0.073
27.820,0.055
27.825,0.024
27.830,0.000
27.835,-0.014
27.840,-0.038
27.845,-0.064
27.850,-0.077
27.855,-0.092
27.860,-0.115
27.865,-0.129
27.870,-0.136
27.875,-0.150
27.880,-0.155
27.885,-0.150
27.890,-0.155
27.895,-0.159
27.900,-0.152
27.905,-0.154
27.910,-0.159
27.915,-0.147
27.920,-0.136
27.925,-0.139
27.930,-0.136
27.935,-0.125
27.940,-0.120
27.945,-0.114
27.950,-0.099
27.955,-0.093
27.960,-0.098
27.965,-0.091
27.970,-0.079
27.975,-0.078
27.980,-0.071
27.985,-0.058
27.990,-0.058
27.995,-0.059
28.000,-0.048
28.005,-0.044
28.010,-0.048
28.015,-0.043
28.020,-0.035
28.025,-0.038
28.030,-0.035
28.035,-0.028
28.040,-0.032
28.045,-0.034
28.050,-0.025
28.055,-0.020
28.060,-0.025
28.065,-0.022
28.070,-0.017
28.075,-0.021
28.080,-0.023
28.085,-0.018
28.090,-0.022
28.095,-0.025
28.100,-0.017
28.105,-0.015
28.110,-0.022
28.115,-0.019
28.120,-0.016
28.125,-0.023
28.130,-0.022
28.135,-0.013
28.140,-0.016
28.145,-0.020
28.150,-0.010
28.155,-0.008
28.160,-0.016
28.165,-0.011
28.170,-0.004
28.175,-0.010
28.180,-0.010
28.185,-0.002
28.190,-0.006
28.195,-0.008
28.200,0.001
28.205,0.004
28.210,-0.003
28.215,0.000
28.220,0.005
28.225,0.001
28.230,0.003
28.235,0.009
28.240,0.005
28.245,0.001
28.250,0.008
28.255,0.012
28.260,0.005
28.265,0.008
28.270,0.016
28.275,0.011
28.280,0.011
28.285,0.016
28.290,0.013
28.295,0.011
28.300,0.019
28.305,0.020
28.310,0.013
28.315,0.020
28.320,0.027
28.325,0.026
28.330,0.036
28.335,0.052
28.340,0.051
28.345,0.047
28.350,0.052
28.355,0.059
28.360,0.072
28.365,0.097
28.370,0.115
28.375,0.098
28.380,0.074
28.385,0.065
28.390,0.054
28.395,0.045
28.400,0.038
28.405,0.022
28.410,-0.002
28.415,-0.014
28.420,-0.019
28.425,-0.035
28.430,-0.041
28.435,-0.033
28.440,-0.038
28.445,-0.042
28.450,-0.032
28.455,-0.031
28.460,-0.035
28.465,-0.032
28.470,-0.028
28.475,-0.032
28.480,-0.030
28.485,-0.023
28.490,-0.024
28.495,-0.026
28.500,-0.018
28.505,-0.008
28.510,0.025
28.515,0.110
28.520,0.204
28.525,0.234
28.530,0.223
28.535,0.195
28.540,0.065
28.545,-0.179
28.550,-0.386
28.555,-0.459
28.560,-0.427
28.565,-0.310
28.570,-0.180
28.575,-0.074
28.580,0.028
28.585,0.066
28.590,0.063
28.595,0.075
28.600,0.079
28.605,0.071
28.610,0.070
28.615,0.073
28.620,0.074
28.625,0.069
28.630,0.069
28.635,0.071
28.640,0.066
28.645,0.065
28.650,0.069
28.655,0.066
28.660,0.059
28.665,0.064
28.670,0.067
28.675,0.060
28.680,0.063
28.685,0.069
28.690,0.063
28.695,0.060
28.700,0.067
28.705,0.067
28.710,0.062
28.715,0.069
28.720,0.078
28.725,0.078
28.730,0.082
28.735,0.095
28.740,0.096
28.745,0.094
28.750,0.107
28.755,0.117
28.760,0.117
28.765,0.129
28.770,0.144
28.775,0.144
28.780,0.147
28.785,0.155
28.790,0.148
28.795,0.140
28.800,0.142
28.805,0.137
28.810,0.123
28.815,0.112
28.820,0.099
28.825,0.073
28.830,0.050
28.835,0.033
28.840,0.005
28.845,-0.023
28.850,-0.037
28.855,-0.059
28.860,-0.087
28.865,-0.101
28.870,-0.113
28.875,-0.130
28.880,-0.142
28.885,-0.146
28.890,-0.155
28.895,-0.162
28.900,-0.157
28.905,-0.155
28.910,-0.159
28.915,-0.152
28.920,-0.144
28.925,-0.147
28.930,-0.145
28.935,-0.133
28.940,-0.127
28.945,-0.128
28.950,-0.120
28.955,-0.112
28.960,-0.113
28.965,-0.104
28.970,-0.095
28.975,-0.094
28.980,-0.083
28.985,-0.069
28.990,-0.069
28.995,-0.067
29.000,-0.054
29.005,-0.050
29.010,-0.055
29.015,-0.048
29.020,-0.038
29.025,-0.040
29.030,-0.037
29.035,-0.024
29.040,-0.027
29.045,-0.033
29.050,-0.023
29.055,-0.019
29.060,-0.025
29.065,-0.019
29.070,-0.013
29.075,-0.018
29.080,-0.016
29.085,-0.011
29.090,-0.016
29.095,-0.021
29.100,-0.016
29.105,-0.012
29.110,-0.015
29.115,-0.012
29.120,-0.009
29.125,-0.014
29.130,-0.014
29.135,-0.007
29.140,-0.005
29.145,-0.011
29.150,-0.008
29.155,-0.008
29.160,-0.018
29.165,-0.012
29.170,-0.006
29.175,-0.013
29.180,-0.010
29.185,-0.002
29.190,-0.005
29.195,-0.005
29.200,0.005
29.205,0.006
29.210,-0.001
29.215,0.004
29.220,0.008
29.225,0.001
29.230,0.003
29.235,0.012
29.240,0.009
29.245,0.007
29.250,0.017
29.255,0.017
29.260,0.007
29.265,0.009
29.270,0.015
29.275,0.010
29.280,0.010
29.285,0.018
29.290,0.017
29.295,0.014
29.300,0.021
29.305,0.021
29.310,0.013
29.315,0.020
29.320,0.026
29.325,0.016
29.330,0.013
29.335,0.021
29.340,0.021
29.345,0.017
29.350,0.020
29.355,0.024
29.360,0.021
29.365,0.022
29.370,0.029
29.375,0.033
29.380,0.043
29.385,0.056
29.390,0.057
29.395,0.052
29.400,0.057
29.405,0.068
29.410,0.082
29.415,0.109
29.420,0.116
29.425,0.083
29.430,0.062
29.435,0.064
29.440,0.054
29.445,0.039
29.450,0.027
29.455,0.009
29.460,-0.016
29.465,-0.027
29.470,-0.029
29.475,-0.040
29.480,-0.043
29.485,-0.038
29.490,-0.042
29.495,-0.041
29.500,-0.034
29.505,-0.039
29.510,-0.048
29.515,-0.041
29.520,-0.029
29.525,-0.030
29.530,-0.029
29.535,-0.020
29.540,-0.022
29.545,-0.026
29.550,-0.014
29.555,0.016
29.560,0.078
29.565,0.175
29.570,0.238
29.575,0.234
29.580,0.209
29.585,0.118
29.590,-0.111
29.595,-0.367
29.600,-0.481
29.605,-0.457
29.610,-0.360
29.615,-0.228
29.620,-0.108
29.625,0.001
29.630,0.062
29.635,0.069
29.640,0.071
29.645,0.071
29.650,0.073
29.655,0.080
29.660,0.076
29.665,0.073
29.670,0.074
29.675,0.068
29.680,0.066
29.685,0.070
29.690,0.067
29.695,0.064
29.700,0.071
29.705,0.069
29.710,0.058
29.715,0.059
29.720,0.064
29.725,0.060
29.730,0.058
29.735,0.064
29.740,0.066
29.745,0.063
29.750,0.070
29.755,0.073
29.760,0.063
29.765,0.070
29.770,0.082
29.775,0.081
29.780,0.087
29.785,0.096
29.790,0.098
29.795,0.104
29.800,0.115
29.805,0.121
29.810,0.127
29.815,0.140
29.820,0.151
29.825,0.149
29.830,0.145
29.835,0.151
29.840,0.150
29.845,0.144
29.850,0.143
29.855,0.129
29.860,0.107
29.865,0.100
29.870,0.091
29.875,0.061
29.880,0.034
29.885,0.017
29.890,-0.011
29.895,-0.040
29.900,-0.057
29.905,-0.078
29.910,-0.104
29.915,-0.117
29.920,-0.128
29.925,-0.148
29.930,-0.155
29.935,-0.152
29.940,-0.159
29.945,-0.165
29.950,-0.157
29.955,-0.150
29.960,-0.158
29.965,-0.157
29.970,-0.150
29.975,-0.150
29.980,-0.142
29.985,-0.133
29.990,-0.137
29.995,-0.134
30.000,-0.116
30.005,-0.107
30.010,-0.106
30.015,-0.096
30.020,-0.091
30.025,-0.092
30.030,-0.083
30.035,-0.069
30.040,-0.069
30.045,-0.072
30.050,-0.060
30.055,-0.051
30.060,-0.049
30.065,-0.042
30.070,-0.036
30.075,-0.040
30.080,-0.037
30.085,-0.029
30.090,-0.033
30.095,-0.033
30.100,-0.023
30.105,-0.021
30.110,-0.027
30.115,-0.021
30.120,-0.013
30.125,-0.019
30.130,-0.021
30.135,-0.016
30.140,-0.017
30.145,-0.020
30.150,-0.014
30.155,-0.011
30.160,-0.020
30.165,-0.017
30.170,-0.009
30.175,-0.017
30.180,-0.016
30.185,-0.008
30.190,-0.012
30.195,-0.013
30.200,-0.005
30.205,-0.003
30.210,-0.012
30.215,-0.009
30.220,0.000
30.225,-0.004
30.230,-0.003
30.235,0.005
30.240,-0.001
30.245,-0.004
30.250,0.006
30.255,0.008
30.260,0.003
30.265,0.004
30.270,0.010
30.275,0.006
30.280,0.004
30.285,0.012
30.290,0.011
30.295,0.006
30.300,0.015
30.305,0.016
30.310,0.011
30.315,0.018
30.320,0.022
30.325,0.014
30.330,0.015
30.335,0.021
30.340,0.016
30.345,0.010
30.350,0.018
30.355,0.021
30.360,0.017
30.365,0.022
30.370,0.026
30.375,0.022
30.380,0.027
30.385,0.043
30.390,0.046
30.395,0.045
30.400,0.053
30.405,0.052
30.410,0.052
30.415,0.075
30.420,0.099
30.425,0.106
30.430,0.099
30.435,0.085
30.440,0.067
30.445,0.056
30.450,0.056
30.455,0.044
30.460,0.019
30.465,0.004
30.470,-0.001
30.475,-0.018
30.480,-0.034
30.485,-0.030
30.490,-0.029
30.495,-0.033
30.500,-0.027
30.505,-0.028
30.510,-0.038
30.515,-0.030
30.520,-0.023
30.525,-0.028
30.530,-0.023
30.535,-0.016
30.540,-0.018
30.545,-0.019
30.550,-0.013
30.555,-0.011
30.560,-0.012
30.565,0.022
30.570,0.096
30.575,0.172
30.580,0.214
30.585,0.216
30.590,0.185
30.595,0.066
30.600,-0.160
30.605,-0.385
30.610,-0.491
30.615,-0.457
30.620,-0.338
30.625,-0.209
30.630,-0.091
30.635,0.019
30.640,0.065
30.645,0.075
30.650,0.098
30.655,0.096
30.660,0.083
30.665,0.094
30.670,0.099
30.675,0.082
30.680,0.079
30.685,0.088
30.690,0.083
30.695,0.077
30.700,0.087
30.705,0.086
30.710,0.073
30.715,0.078
30.720,0.083
30.725,0.071
30.730,0.072
30.735,0.080
30.740,0.075
30.745,0.068
30.750,0.077
30.755,0.080
30.760,0.070
30.765,0.076
30.770,0.083
30.775,0.079
30.780,0.086
30.785,0.093
30.790,0.092
30.795,0.095
30.800,0.107
30.805,0.117
30.810,0.119
30.815,0.129
30.820,0.141
30.825,0.138
30.830,0.140
30.835,0.150
30.840,0.148
30.845,0.142
30.850,0.146
30.855,0.143
30.860,0.130
30.865,0.124
30.870,0.113
30.875,0.091
30.880,0.071
30.885,0.055
30.890,0.031
30.895,0.005
30.900,-0.015
30.905,-0.041
30.910,-0.069
30.915,-0.082
30.920,-0.095
30.925,-0.120
30.930,-0.135
30.935,-0.138
30.940,-0.148
30.945,-0.157
30.950,-0.152
30.955,-0.155
30.960,-0.165
30.965,-0.158
30.970,-0.150
30.975,-0.156
30.980,-0.153
30.985,-0.141
30.990,-0.141
30.995,-0.142
31.000,-0.130
31.005,-0.122
31.010,-0.123
31.015,-0.113
31.020,-0.101
31.025,-0.100
31.030,-0.092
31.035,-0.081
31.040,-0.081
31.045,-0.076
31.050,-0.062
31.055,-0.056
31.060,-0.059
31.065,-0.054
31.070,-0.044
31.075,-0.042
31.080,-0.039
31.085,-0.031
31.090,-0.033
31.095,-0.036
31.100,-0.026
31.105,-0.023
31.110,-0.030
31.115,-0.026
31.120,-0.022
31.125,-0.026
31.130,-0.023
31.135,-0.015
31.140,-0.021
31.145,-0.028
31.150,-0.020
31.155,-0.015
31.160,-0.023
31.165,-0.021
31.170,-0.016
31.175,-0.022
31.180,-0.015
31.185,-0.007
31.190,-0.023
31.195,-0.029
31.200,-0.016
31.205,-0.011
31.210,-0.016
31.215,-0.016
31.220,-0.009
31.225,-0.013
31.230,-0.015
31.235,-0.006
31.240,-0.006
31.245,-0.010
31.250,-0.006
31.255,-0.005
31.260,-0.006
31.265,0.001
31.270,0.003
31.275,-0.005
31.280,-0.004
31.285,0.006
31.290,0.006
31.295,0.004
31.300,0.010
31.305,0.009
31.310,0.003
31.315,0.010
31.320,0.014
31.325,0.006
31.330,0.007
31.335,0.018
31.340,0.017
31.345,0.010
31.350,0.015
31.355,0.019
31.360,0.012
31.365,0.014
31.370,0.021
31.375,0.016
31.380,0.018
31.385,0.028
31.390,0.026
31.395,0.028
31.400,0.044
31.405,0.051
31.410,0.049
31.415,0.055
31.420,0.055
31.425,0.056
31.430,0.080
31.435,0.111
31.440,0.115
31.445,0.090
31.450,0.072
31.455,0.063
31.460,0.055
31.465,0.051
31.470,0.037
31.475,0.012
31.480,-0.005
31.485,-0.012
31.490,-0.028
31.495,-0.040
31.500,-0.032
31.505,-0.030
31.510,-0.037
31.515,-0.034
31.520,-0.032
31.525,-0.038
31.530,-0.036
31.535,-0.028
31.540,-0.031
31.545,-0.032
31.550,-0.021
31.555,-0.018
31.560,-0.021
31.565,-0.017
31.570,-0.008
31.575,0.015
31.580,0.081
31.585,0.178
31.590,0.231
31.595,0.225
31.600,0.209
31.605,0.124
31.610,-0.096
31.615,-0.331
31.620,-0.442
31.625,-0.438
31.630,-0.347
31.635,-0.219
31.640,-0.109
31.645,0.005
31.650,0.069
31.655,0.064
31.660,0.068
31.665,0.076
31.670,0.072
31.675,0.068
31.680,0.071
31.685,0.071
31.690,0.066
31.695,0.065
31.700,0.071
31.705,0.068
31.710,0.062
31.715,0.067
31.720,0.068
31.725,0.058
31.730,0.060
31.735,0.065
31.740,0.059
31.745,0.058
31.750,0.065
31.755,0.067
31.760,0.062
31.765,0.064
31.770,0.067
31.775,0.062
31.780,0.065
31.785,0.075
31.790,0.077
31.795,0.076
31.800,0.086
31.805,0.093
31.810,0.091
31.815,0.104
31.820,0.116
31.825,0.114
31.830,0.120
31.835,0.132
31.840,0.135
31.845,0.137
31.850,0.148
31.855,0.150
31.860,0.141
31.865,0.138
31.870,0.134
31.875,0.119
31.880,0.106
31.885,0.100
31.890,0.081
31.895,0.056
31.900,0.042
31.905,0.020
31.910,-0.015
31.915,-0.035
31.920,-0.053
31.925,-0.082
31.930,-0.100
31.935,-0.108
31.940,-0.125
31.945,-0.140
31.950,-0.143
31.955,-0.150
31.960,-0.160
31.965,-0.156
31.970,-0.151
31.975,-0.156
31.980,-0.155
31.985,-0.144
31.990,-0.141
31.995,-0.142
32.000,-0.136
32.005,-0.132
32.010,-0.134
32.015,-0.125
32.020,-0.112
32.025,-0.109
32.030,-0.103
32.035,-0.091
32.040,-0.092
32.045,-0.092
32.050,-0.077
32.055,-0.068
32.060,-0.069
32.065,-0.061
32.070,-0.052
32.075,-0.053
32.080,-0.049
32.085,-0.037
32.090,-0.033
32.095,-0.034
32.100,-0.026
32.105,-0.023
32.110,-0.028
32.115,-0.020
32.120,-0.014
32.125,-0.022
32.130,-0.023
32.135,-0.016
32.140,-0.019
32.145,-0.021
32.150,-0.015
32.155,-0.014
32.160,-0.017
32.165,-0.012
32.170,-0.009
32.175,-0.015
32.180,-0.013
32.185,-0.010
32.190,-0.016
32.195,-0.017
32.200,-0.010
32.205,-0.011
32.210,-0.019
32.215,-0.013
32.220,-0.006
32.225,-0.013
32.230,-0.011
32.235,0.000
32.240,-0.008
32.245,-0.014
32.250,-0.002
32.255,0.001
32.260,-0.006
32.265,-0.003
32.270,0.005
32.275,0.003
32.280,0.002
32.285,0.008
32.290,0.003
32.295,-0.001
32.300,0.008
32.305,0.009
32.310,0.004
32.315,0.009
32.320,0.013
32.325,0.007
32.330,0.008
32.335,0.017
32.340,0.014
32.345,0.009
32.350,0.017
32.355,0.024
32.360,0.019
32.365,0.018
32.370,0.018
32.375,0.010
32.380,0.015
32.385,0.026
32.390,0.021
32.395,0.015
32.400,0.018
32.405,0.019
32.410,0.017
32.415,0.022
32.420,0.025
32.425,0.018
32.430,0.019
32.435,0.032
32.440,0.033
32.445,0.035
32.450,0.049
32.455,0.053
32.460,0.047
32.465,0.056
32.470,0.076
32.475,0.093
32.480,0.108
32.485,0.108
32.490,0.083
32.495,0.058
32.500,0.056
32.505,0.056
32.510,0.036
32.515,0.020
32.520,0.008
32.525,-0.012
32.530,-0.022
32.535,-0.025
32.540,-0.037
32.545,-0.044
32.550,-0.040
32.555,-0.040
32.560,-0.042
32.565,-0.032
32.570,-0.027
32.575,-0.034
32.580,-0.033
32.585,-0.025
32.590,-0.028
32.595,-0.031
32.600,-0.020
32.605,-0.018
32.610,-0.025
32.615,-0.008
32.620,0.045
32.625,0.124
32.630,0.197
32.635,0.221
32.640,0.208
32.645,0.158
32.650,-0.007
32.655,-0.265
32.660,-0.461
32.665,-0.499
32.670,-0.420
32.675,-0.299
32.680,-0.175
32.685,-0.049
32.690,0.040
32.695,0.065
32.700,0.082
32.705,0.092
32.710,0.077
32.715,0.081
32.720,0.094
32.725,0.086
32.730,0.080
32.735,0.087
32.740,0.080
32.745,0.069
32.750,0.076
32.755,0.080
32.760,0.069
32.765,0.071
32.770,0.077
32.775,0.071
32.780,0.071
32.785,0.075
32.790,0.066
32.795,0.064
32.800,0.076
32.805,0.076
32.810,0.064
32.815,0.068
32.820,0.076
32.825,0.074
32.830,0.078
32.835,0.089
32.840,0.090
32.845,0.091
32.850,0.101
32.855,0.109
32.860,0.110
32.865,0.121
32.870,0.133
32.875,0.132
32.880,0.136
32.885,0.150
32.890,0.151
32.895,0.143
32.900,0.143
32.905,0.136
32.910,0.125
32.915,0.118
32.920,0.108
32.925,0.093
32.930,0.080
32.935,0.066
32.940,0.043
32.945,0.021
32.950,0.000
32.955,-0.030
32.960,-0.059
32.965,-0.074
32.970,-0.089
32.975,-0.115
32.980,-0.127
32.985,-0.124
32.990,-0.137
32.995,-0.153
33.000,-0.148
33.005,-0.147
33.010,-0.159
33.015,-0.159
33.020,-0.151
33.025,-0.153
33.030,-0.149
33.035,-0.141
33.040,-0.144
33.045,-0.142
33.050,-0.127
33.055,-0.118
33.060,-0.119
33.065,-0.111
33.070,-0.102
33.075,-0.100
33.080,-0.092
33.085,-0.083
33.090,-0.083
33.095,-0.079
33.100,-0.066
33.105,-0.060
33.110,-0.060
33.115,-0.052
33.120,-0.044
33.125,-0.049
33.130,-0.043
33.135,-0.028
33.140,-0.031
33.145,-0.036
33.150,-0.025
33.155,-0.020
33.160,-0.026
33.165,-0.024
33.170,-0.021
33.175,-0.024
33.180,-0.018
33.185,-0.010
33.190,-0.012
33.195,-0.015
33.200,-0.010
33.205,-0.009
33.210,-0.015
33.215,-0.012
33.220,-0.007
33.225,-0.017
33.230,-0.017
33.235,-0.006
33.240,-0.008
33.245,-0.010
33.250,-0.004
33.255,-0.005
33.260,-0.011
33.265,-0.006
33.270,-0.001
33.275,-0.006
33.280,-0.007
33.285,0.002
33.290,0.000
33.295,-0.007
33.300,-0.001
33.305,0.002
33.310,-0.001
33.315,0.008
33.320,0.013
33.325,0.004
33.330,0.004
33.335,0.010
33.340,0.005
33.345,0.004
33.350,0.014
33.355,0.016
33.360,0.009
33.365,0.014
33.370,0.021
33.375,0.013
33.380,0.011
33.385,0.018
33.390,0.017
33.395,0.017
33.400,0.020
33.405,0.018
33.410,0.016
33.415,0.024
33.420,0.030
33.425,0.021
33.430,0.026
33.435,0.043
33.440,0.046
33.445,0.045
33.450,0.051
33.455,0.052
33.460,0.058
33.465,0.080
33.470,0.102
33.475,0.103
33.480,0.090
33.485,0.076
33.490,0.058
33.495,0.049
33.500,0.052
33.505,0.038
33.510,0.010
33.515,-0.007
33.520,-0.014
33.525,-0.029
33.530,-0.036
33.535,-0.027
33.540,-0.029
33.545,-0.036
33.550,-0.030
33.555,-0.030
33.560,-0.037
33.565,-0.030
33.570,-0.025
33.575,-0.030
33.580,-0.024
33.585,-0.017
33.590,-0.019
33.595,-0.021
33.600,-0.019
33.605,-0.011
33.610,0.023
33.615,0.107
33.620,0.198
33.625,0.226
33.630,0.215
33.635,0.189
33.640,0.056
33.645,-0.189
33.650,-0.392
33.655,-0.468
33.660,-0.437
33.665,-0.320
33.670,-0.187
33.675,-0.078
33.680,0.027
33.685,0.074
33.690,0.075
33.695,0.083
33.700,0.083
33.705,0.074
33.710,0.075
33.715,0.079
33.720,0.077
33.725,0.072
33.730,0.076
33.735,0.081
33.740,0.076
33.745,0.068
33.750,0.070
33.755,0.068
33.760,0.062
33.765,0.067
33.770,0.070
33.775,0.061
33.780,0.062
33.785,0.068
33.790,0.064
33.795,0.064
33.800,0.071
33.805,0.072
33.810,0.065
33.815,0.071
33.820,0.080
33.825,0.080
33.830,0.085
33.835,0.095
33.840,0.095
33.845,0.098
33.850,0.110
33.855,0.118
33.860,0.121
33.865,0.132
33.870,0.144
33.875,0.144
33.880,0.147
33.885,0.153
33.890,0.146
33.895,0.140
33.900,0.145
33.905,0.137
33.910,0.116
33.915,0.107
33.920,0.099
33.925,0.076
33.930,0.051
33.935,0.028
33.940,-0.001
33.945,-0.026
33.950,-0.044
33.955,-0.065
33.960,-0.091
33.965,-0.106
33.970,-0.116
33.975,-0.133
33.980,-0.143
33.985,-0.146
33.990,-0.158
33.995,-0.166
34.000,-0.157
34.005,-0.153
34.010,-0.159
34.015,-0.153
34.020,-0.149
34.025,-0.156
34.030,-0.150
34.035,-0.136
34.040,-0.135
34.045,-0.138
34.050,-0.127
34.055,-0.119
34.060,-0.117
34.065,-0.106
34.070,-0.096
34.075,-0.096
34.080,-0.090
34.085,-0.076
34.090,-0.071
34.095,-0.070
34.100,-0.057
34.105,-0.053
34.110,-0.057
34.115,-0.045
34.120,-0.035
34.125,-0.040
34.130,-0.036
34.135,-0.026
34.140,-0.027
34.145,-0.026
34.150,-0.020
34.155,-0.021
34.160,-0.024
34.165,-0.018
34.170,-0.014
34.175,-0.020
34.180,-0.021
34.185,-0.013
34.190,-0.015
34.195,-0.018
34.200,-0.010
34.205,-0.007
34.210,-0.017
34.215,-0.012
34.220,-0.006
34.225,-0.017
34.230,-0.018
34.235,-0.011
34.240,-0.016
34.245,-0.016
34.250,-0.008
34.255,-0.009
34.260,-0.012
34.265,-0.008
34.270,-0.003
34.275,-0.007
34.280,-0.005
34.285,0.000
34.290,-0.008
34.295,-0.011
34.300,0.002
34.305,0.006
34.310,0.000
34.315,0.003
34.320,0.009
34.325,0.005
34.330,0.005
34.335,0.011
34.340,0.006
34.345,0.002
34.350,0.010
34.355,0.014
34.360,0.008
34.365,0.011
34.370,0.016
34.375,0.010
34.380,0.012
34.385,0.022
34.390,0.018
34.395,0.011
34.400,0.016
34.405,0.019
34.410,0.012
34.415,0.015
34.420,0.021
34.425,0.013
34.430,0.017
34.435,0.027
34.440,0.021
34.445,0.017
34.450,0.029
34.455,0.038
34.460,0.041
34.465,0.051
34.470,0.056
34.475,0.051
34.480,0.060
34.485,0.084
34.490,0.100
34.495,0.104
34.500,0.093
34.505,0.070
34.510,0.051
34.515,0.052
34.520,0.053
34.525,0.032
34.530,0.016
34.535,0.007
34.540,-0.012
34.545,-0.032
34.550,-0.036
34.555,-0.036
34.560,-0.039
34.565,-0.034
34.570,-0.032
34.575,-0.039
34.580,-0.035
34.585,-0.027
34.590,-0.032
34.595,-0.035
34.600,-0.024
34.605,-0.020
34.610,-0.028
34.615,-0.021
34.620,-0.014
34.625,-0.021
34.630,0.006
34.635,0.083
34.640,0.172
34.645,0.222
34.650,0.221
34.655,0.199
34.660,0.116
34.665,-0.081
34.670,-0.311
34.675,-0.441
34.680,-0.433
34.685,-0.336
34.690,-0.217
34.695,-0.101
34.700,0.018
34.705,0.066
34.710,0.051
34.715,0.064
34.720,0.077
34.725,0.064
34.730,0.063
34.735,0.071
34.740,0.064
34.745,0.060
34.750,0.070
34.755,0.069
34.760,0.057
34.765,0.060
34.770,0.063
34.775,0.053
34.780,0.055
34.785,0.062
34.790,0.053
34.795,0.047
34.800,0.057
34.805,0.061
34.810,0.054
34.815,0.054
34.820,0.057
34.825,0.053
34.830,0.058
34.835,0.071
34.840,0.070
34.845,0.068
34.850,0.077
34.855,0.081
34.860,0.082
34.865,0.093
34.870,0.100
34.875,0.102
34.880,0.114
34.885,0.127
34.890,0.129
34.895,0.132
34.900,0.144
34.905,0.144
34.910,0.135
34.915,0.139
34.920,0.143
34.925,0.130
34.930,0.119
34.935,0.116
34.940,0.101
34.945,0.077
34.950,0.063
34.955,0.044
34.960,0.015
34.965,-0.007
34.970,-0.030
34.975,-0.061
34.980,-0.077
34.985,-0.089
34.990,-0.113
34.995,-0.128
35.000,-0.131
35.005,-0.140
35.010,-0.152
35.015,-0.151
35.020,-0.148
35.025,-0.154
35.030,-0.154
35.035,-0.147
35.040,-0.148
35.045,-0.147
35.050,-0.134
35.055,-0.127
35.060,-0.132
35.065,-0.123
35.070,-0.113
35.075,-0.114
35.080,-0.107
35.085,-0.094
35.090,-0.092
35.095,-0.091
35.100,-0.079
35.105,-0.072
35.110,-0.073
35.115,-0.064
35.120,-0.054
35.125,-0.052
35.130,-0.048
35.135,-0.040
35.140,-0.039
35.145,-0.039
35.150,-0.028
35.155,-0.024
35.160,-0.032
35.165,-0.027
35.170,-0.020
35.175,-0.025
35.180,-0.022
35.185,-0.015
35.190,-0.018
35.195,-0.020
35.200,-0.015
35.205,-0.016
35.210,-0.020
35.215,-0.012
35.220,-0.009
35.225,-0.017
35.230,-0.016
35.235,-0.008
35.240,-0.013
35.245,-0.017
35.250,-0.011
35.255,-0.011
35.260,-0.017
35.265,-0.010
35.270,-0.004
35.275,-0.011
35.280,-0.010
35.285,-0.003
35.290,-0.005
35.295,-0.007
35.300,0.000
35.305,0.001
35.310,-0.005
35.315,-0.002
35.320,0.003
35.325,0.000
35.330,0.000
35.335,0.008
35.340,0.005
35.345,0.000
35.350,0.009
35.355,0.011
35.360,0.007
35.365,0.014
35.370,0.017
35.375,0.010
35.380,0.010
35.385,0.016
35.390,0.013
35.395,0.010
35.400,0.017
35.405,0.019
35.410,0.011
35.415,0.016
35.420,0.024
35.425,0.018
35.430,0.014
35.435,0.016
35.440,0.015
35.445,0.017
35.450,0.023
35.455,0.020
35.460,0.014
35.465,0.022
35.470,0.025
35.475,0.013
35.480,0.012
35.485,0.021
35.490,0.017
35.495,0.025
35.500,0.048
35.505,0.048
35.510,0.040
35.515,0.044
35.520,0.055
35.525,0.058
35.530,0.068
35.535,0.102
35.540,0.109
35.545,0.095
35.550,0.094
35.555,0.080
35.560,0.073
35.565,0.069
35.570,0.040
35.575,0.019
35.580,0.007
35.585,-0.010
35.590,-0.015
35.595,-0.024
35.600,-0.026
35.605,-0.029
35.610,-0.051
35.615,-0.050
35.620,-0.026
35.625,-0.024
35.630,-0.031
35.635,-0.026
35.640,-0.032
35.645,-0.038
35.650,-0.027
35.655,-0.029
35.660,-0.035
35.665,-0.025
35.670,-0.019
35.675,-0.019
35.680,0.007
35.685,0.072
35.690,0.157
35.695,0.207
35.700,0.207
35.705,0.186
35.710,0.096
35.715,-0.115
35.720,-0.360
35.725,-0.493
35.730,-0.474
35.735,-0.358
35.740,-0.227
35.745,-0.117
35.750,-0.001
35.755,0.063
35.760,0.064
35.765,0.080
35.770,0.086
35.775,0.071
35.780,0.076
35.785,0.082
35.790,0.069
35.795,0.067
35.800,0.080
35.805,0.077
35.810,0.065
35.815,0.068
35.820,0.073
35.825,0.061
35.830,0.059
35.835,0.067
35.840,0.062
35.845,0.060
35.850,0.067
35.855,0.061
35.860,0.054
35.865,0.063
35.870,0.064
35.875,0.057
35.880,0.062
35.885,0.071
35.890,0.070
35.895,0.071
35.900,0.081
35.905,0.083
35.910,0.080
35.915,0.091
35.920,0.103
35.925,0.104
35.930,0.111
35.935,0.129
35.940,0.136
35.945,0.133
35.950,0.138
35.955,0.134
35.960,0.123
35.965,0.128
35.970,0.130
35.975,0.117
35.980,0.106
35.985,0.099
35.990,0.086
35.995,0.069
36.000,0.057
36.005,0.038
36.010,0.010
36.015,-0.009
36.020,-0.025
36.025,-0.050
36.030,-0.066
36.035,-0.077
36.040,-0.100
36.045,-0.114
36.050,-0.115
36.055,-0.122
36.060,-0.134
36.065,-0.136
36.070,-0.139
36.075,-0.147
36.080,-0.144
36.085,-0.132
36.090,-0.134
36.095,-0.141
36.100,-0.133
36.105,-0.125
36.110,-0.123
36.115,-0.111
36.120,-0.103
36.125,-0.110
36.130,-0.103
36.135,-0.089
36.140,-0.083
36.145,-0.081
36.150,-0.074
36.155,-0.068
36.160,-0.068
36.165,-0.059
36.170,-0.050
36.175,-0.054
36.180,-0.050
36.185,-0.037
36.190,-0.036
36.195,-0.038
36.200,-0.029
36.205,-0.029
36.210,-0.036
36.215,-0.027
36.220,-0.022
36.225,-0.030
36.230,-0.026
36.235,-0.017
36.240,-0.022
36.245,-0.021
36.250,-0.016
36.255,-0.019
36.260,-0.025
36.265,-0.021
36.270,-0.016
36.275,-0.020
36.280,-0.019
36.285,-0.014
36.290,-0.015
36.295,-0.016
36.300,-0.013
36.305,-0.016
36.310,-0.021
36.315,-0.014
36.320,-0.010
36.325,-0.017
36.330,-0.014
36.335,0.000
36.340,-0.005
36.345,-0.018
36.350,-0.011
36.355,-0.002
36.360,-0.004
36.365,-0.003
36.370,0.003
36.375,0.004
36.380,0.004
36.385,0.004
36.390,-0.002
36.395,-0.006
36.400,0.003
36.405,0.003
36.410,-0.003
36.415,0.005
36.420,0.015
36.425,0.013
36.430,0.001
36.435,0.009
36.440,0.018
36.445,0.028
36.450,0.046
36.455,0.039
36.460,0.031
36.465,0.040
36.470,0.044
36.475,0.054
36.480,0.085
36.485,0.120
36.490,0.110
36.495,0.054
36.500,0.030
36.505,0.035
36.510,0.044
36.515,0.055
36.520,0.022
36.525,-0.016
36.530,-0.017
36.535,-0.014
36.540,-0.027
36.545,-0.039
36.550,-0.036
36.555,-0.029
36.560,-0.032
36.565,-0.034
36.570,-0.029
36.575,-0.030
36.580,-0.029
36.585,-0.020
36.590,-0.020
36.595,-0.021
36.600,-0.013
36.605,-0.012
36.610,-0.018
36.615,-0.011
36.620,0.008
36.625,0.054
36.630,0.142
36.635,0.214
36.640,0.219
36.645,0.205
36.650,0.155
36.655,-0.024
36.660,-0.266
36.665,-0.400
36.670,-0.413
36.675,-0.363
36.680,-0.255
36.685,-0.134
36.690,-0.015
36.695,0.064
36.700,0.073
36.705,0.078
36.710,0.078
36.715,0.072
36.720,0.075
36.725,0.073
36.730,0.077
36.735,0.081
36.740,0.091
36.745,0.109
36.750,0.084
36.755,0.049
36.760,0.043
36.765,0.058
36.770,0.082
36.775,0.071
36.780,0.050
36.785,0.061
36.790,0.065
36.795,0.060
36.800,0.075
36.805,0.075
36.810,0.054
36.815,0.059
36.820,0.066
36.825,0.060
36.830,0.067
36.835,0.082
36.840,0.083
36.845,0.079
36.850,0.093
36.855,0.092
36.860,0.087
36.865,0.103
36.870,0.118
36.875,0.124
36.880,0.127
36.885,0.137
36.890,0.143
36.895,0.137
36.900,0.136
36.905,0.139
36.910,0.135
36.915,0.133
36.920,0.124
36.925,0.114
36.930,0.103
36.935,0.080
36.940,0.055
36.945,0.032
36.950,0.016
36.955,-0.006
36.960,-0.039
36.965,-0.053
36.970,-0.063
36.975,-0.092
36.980,-0.113
36.985,-0.114
36.990,-0.126
36.995,-0.139
37.000,-0.137
37.005,-0.140
37.010,-0.151
37.015,-0.145
37.020,-0.137
37.025,-0.146
37.030,-0.146
37.035,-0.136
37.040,-0.136
37.045,-0.130
37.050,-0.122
37.055,-0.132
37.060,-0.131
37.065,-0.106
37.070,-0.093
37.075,-0.101
37.080,-0.097
37.085,-0.089
37.090,-0.079
37.095,-0.067
37.100,-0.069
37.105,-0.064
37.110,-0.060
37.115,-0.058
37.120,-0.046
37.125,-0.039
37.130,-0.034
37.135,-0.037
37.140,-0.041
37.145,-0.036
37.150,-0.020
37.155,-0.009
37.160,-0.024
37.165,-0.023
37.170,-0.010
37.175,-0.018
37.180,-0.013
37.185,-0.008
37.190,-0.024
37.195,-0.021
37.200,-0.015
37.205,-0.011
37.210,0.009
37.215,0.023
37.220,0.004
37.225,-0.027
37.230,-0.023
37.235,-0.003
37.240,-0.018
37.245,-0.039
37.250,-0.016
37.255,-0.003
37.260,-0.020
37.265,0.000
37.270,0.017
37.275,-0.009
37.280,-0.015
37.285,-0.003
37.290,0.003
37.295,0.005
37.300,0.014
37.305,0.017
37.310,-0.014
37.315,-0.030
37.320,-0.019
37.325,0.002
37.330,0.015
37.335,0.010
37.340,0.026
37.345,0.021
37.350,-0.010
37.355,-0.005
37.360,0.003
37.365,0.042
37.370,0.065
37.375,0.018
37.380,-0.005
37.385,-0.013
37.390,-0.012
37.395,0.012
37.400,0.026
37.405,0.021
37.410,0.017
37.415,0.034
37.420,0.035
37.425,0.027
37.430,0.041
37.435,0.048
37.440,0.044
37.445,0.057
37.450,0.077
37.455,0.092
37.460,0.092
37.465,0.078
37.470,0.069
37.475,0.062
37.480,0.053
37.485,0.048
37.490,0.029
37.495,0.005
37.500,0.002
37.505,-0.007
37.510,-0.026
37.515,-0.037
37.520,-0.040
37.525,-0.037
37.530,-0.030
37.535,-0.033
37.540,-0.041
37.545,-0.031
37.550,-0.014
37.555,-0.020
37.560,-0.037
37.565,-0.034
37.570,-0.017
37.575,-0.019
37.580,-0.020
37.585,-0.007
37.590,0.003
37.595,0.044
37.600,0.131
37.605,0.200
37.610,0.212
37.615,0.210
37.620,0.170
37.625,0.000
37.630,-0.235
37.635,-0.392
37.640,-0.427
37.645,-0.368
37.650,-0.255
37.655,-0.142
37.660,-0.035
37.665,0.050
37.670,0.065
37.675,0.060
37.680,0.071
37.685,0.073
37.690,0.070
37.695,0.073
37.700,0.077
37.705,0.072
37.710,0.067
37.715,0.071
37.720,0.068
37.725,0.059
37.730,0.060
37.735,0.065
37.740,0.058
37.745,0.055
37.750,0.062
37.755,0.061
37.760,0.055
37.765,0.060
37.770,0.065
37.775,0.061
37.780,0.061
37.785,0.067
37.790,0.068
37.795,0.067
37.800,0.073
37.805,0.077
37.810,0.077
37.815,0.088
37.820,0.097
37.825,0.092
37.830,0.101
37.835,0.116
37.840,0.118
37.845,0.123
37.850,0.139
37.855,0.144
37.860,0.143
37.865,0.151
37.870,0.155
37.875,0.146
37.880,0.144
37.885,0.143
37.890,0.129
37.895,0.118
37.900,0.114
37.905,0.098
37.910,0.072
37.915,0.049
37.920,0.029
37.925,0.001
37.930,-0.020
37.935,-0.039
37.940,-0.069
37.945,-0.089
37.950,-0.094
37.955,-0.111
37.960,-0.131
37.965,-0.137
37.970,-0.140
37.975,-0.149
37.980,-0.148
37.985,-0.141
37.990,-0.146
37.995,-0.150
38.000,-0.145
38.005,-0.138
38.010,-0.136
38.015,-0.132
38.020,-0.127
38.025,-0.128
38.030,-0.122
38.035,-0.108
38.040,-0.109
38.045,-0.108
38.050,-0.091
38.055,-0.086
38.060,-0.092
38.065,-0.079
38.070,-0.067
38.075,-0.068
38.080,-0.059
38.085,-0.051
38.090,-0.057
38.095,-0.057
38.100,-0.043
38.105,-0.033
38.110,-0.034
38.115,-0.030
38.120,-0.028
38.125,-0.033
38.130,-0.033
38.135,-0.023
38.140,-0.016
38.145,-0.018
38.150,-0.019
38.155,-0.020
38.160,-0.022
38.165,-0.016
38.170,-0.014
38.175,-0.019
38.180,-0.015
38.185,-0.012
38.190,-0.019
38.195,-0.022
38.200,-0.017
38.205,-0.015
38.210,-0.023
38.215,-0.016
38.220,-0.009
38.225,-0.019
38.230,-0.016
38.235,-0.006
38.240,-0.013
38.245,-0.016
38.250,-0.007
38.255,-0.007
38.260,-0.010
38.265,-0.003
38.270,0.001
38.275,-0.008
38.280,-0.010
38.285,0.002
38.290,0.006
38.295,0.004
38.300,0.010
38.305,0.006
38.310,0.002
38.315,0.013
38.320,0.014
38.325,0.002
38.330,0.006
38.335,0.013
38.340,0.008
38.345,0.009
38.350,0.014
38.355,0.017
38.360,0.018
38.365,0.020
38.370,0.021
38.375,0.019
38.380,0.031
38.385,0.049
38.390,0.046
38.395,0.042
38.400,0.051
38.405,0.061
38.410,0.072
38.415,0.097
38.420,0.114
38.425,0.096
38.430,0.073
38.435,0.065
38.440,0.055
38.445,0.043
38.450,0.028
38.455,0.012
38.460,-0.007
38.465,-0.016
38.470,-0.025
38.475,-0.043
38.480,-0.040
38.485,-0.029
38.490,-0.036
38.495,-0.041
38.500,-0.038
38.505,-0.039
38.510,-0.037
38.515,-0.027
38.520,-0.026
38.525,-0.031
38.530,-0.030
38.535,-0.025
38.540,-0.027
38.545,-0.029
38.550,-0.009
38.555,0.028
38.560,0.091
38.565,0.181
38.570,0.230
38.575,0.221
38.580,0.195
38.585,0.086
38.590,-0.148
38.595,-0.374
38.600,-0.460
38.605,-0.429
38.610,-0.332
38.615,-0.203
38.620,-0.088
38.625,0.014
38.630,0.066
38.635,0.070
38.640,0.081
38.645,0.081
38.650,0.074
38.655,0.078
38.660,0.073
38.665,0.071
38.670,0.079
38.675,0.070
38.680,0.065
38.685,0.072
38.690,0.064
38.695,0.057
38.700,0.067
38.705,0.064
38.710,0.057
38.715,0.066
38.720,0.065
38.725,0.061
38.730,0.066
38.735,0.067
38.740,0.060
38.745,0.055
38.750,0.063
38.755,0.070
38.760,0.067
38.765,0.073
38.770,0.081
38.775,0.083
38.780,0.091
38.785,0.102
38.790,0.098
38.795,0.093
38.800,0.113
38.805,0.131
38.810,0.130
38.815,0.134
38.820,0.141
38.825,0.142
38.830,0.149
38.835,0.156
38.840,0.148
38.845,0.135
38.850,0.135
38.855,0.125
38.860,0.114
38.865,0.106
38.870,0.081
38.875,0.054
38.880,0.035
38.885,0.017
38.890,-0.008
38.895,-0.025
38.900,-0.042
38.905,-0.077
38.910,-0.104
38.915,-0.109
38.920,-0.112
38.925,-0.130
38.930,-0.142
38.935,-0.142
38.940,-0.151
38.945,-0.157
38.950,-0.146
38.955,-0.132
38.960,-0.135
38.965,-0.135
38.970,-0.130
38.975,-0.133
38.980,-0.125
38.985,-0.112
38.990,-0.113
38.995,-0.113
39.000,-0.101
39.005,-0.099
39.010,-0.104
39.015,-0.089
39.020,-0.077
39.025,-0.084
39.030,-0.074
39.035,-0.054
39.040,-0.053
39.045,-0.056
39.050,-0.052
39.055,-0.053
39.060,-0.053
39.065,-0.044
39.070,-0.038
39.075,-0.036
39.080,-0.033
39.085,-0.022
39.090,-0.014
39.095,-0.017
39.100,-0.017
39.105,-0.026
39.110,-0.044
39.115,-0.038
39.120,-0.019
39.125,-0.018
39.130,-0.013
39.135,-0.012
39.140,-0.023
39.145,-0.022
39.150,-0.017
39.155,-0.019
39.160,-0.020
39.165,-0.010
39.170,-0.006
39.175,-0.018
39.180,-0.020
39.185,-0.012
39.190,-0.013
39.195,-0.018
39.200,-0.010
39.205,-0.005
39.210,-0.009
39.215,-0.010
39.220,-0.006
39.225,-0.004
39.230,-0.003
39.235,-0.002
39.240,-0.007
39.245,-0.005
39.250,0.002
39.255,-0.002
39.260,-0.003
39.265,0.007
39.270,0.008
39.275,-0.002
39.280,0.000
39.285,0.011
39.290,0.007
39.295,0.005
39.300,0.014
39.305,0.011
39.310,0.004
39.315,0.011
39.320,0.016
39.325,0.011
39.330,0.011
39.335,0.016
39.340,0.013
39.345,0.011
39.350,0.022
39.355,0.023
39.360,0.010
39.365,0.013
39.370,0.021
39.375,0.015
39.380,0.014
39.385,0.014
39.390,0.012
39.395,0.026
39.400,0.044
39.405,0.047
39.410,0.045
39.415,0.052
39.420,0.052
39.425,0.049
39.430,0.068
39.435,0.093
39.440,0.101
39.445,0.092
39.450,0.081
39.455,0.068
39.460,0.050
39.465,0.050
39.470,0.041
39.475,0.008
39.480,-0.006
39.485,-0.007
39.490,-0.023
39.495,-0.040
39.500,-0.045
39.505,-0.047
39.510,-0.048
39.515,-0.039
39.520,-0.037
39.525,-0.042
39.530,-0.037
39.535,-0.032
39.540,-0.031
39.545,-0.033
39.550,-0.026
39.555,-0.023
39.560,-0.032
39.565,-0.029
39.570,-0.019
39.575,-0.012
39.580,0.029
39.585,0.115
39.590,0.198
39.595,0.221
39.600,0.214
39.605,0.176
39.610,0.028
39.615,-0.211
39.620,-0.413
39.625,-0.480
39.630,-0.419
39.635,-0.297
39.640,-0.182
39.645,-0.063
39.650,0.045
39.655,0.067
39.660,0.059
39.665,0.078
39.670,0.077
39.675,0.065
39.680,0.074
39.685,0.078
39.690,0.066
39.695,0.068
39.700,0.074
39.705,0.068
39.710,0.063
39.715,0.069
39.720,0.070
39.725,0.060
39.730,0.057
39.735,0.064
39.740,0.061
39.745,0.057
39.750,0.066
39.755,0.065
39.760,0.059
39.765,0.065
39.770,0.067
39.775,0.060
39.780,0.067
39.785,0.078
39.790,0.074
39.795,0.076
39.800,0.085
39.805,0.084
39.810,0.087
39.815,0.098
39.820,0.108
39.825,0.109
39.830,0.118
39.835,0.134
39.840,0.136
39.845,0.136
39.850,0.144
39.855,0.146
39.860,0.139
39.865,0.139
39.870,0.139
39.875,0.126
39.880,0.120
39.885,0.120
39.890,0.096
39.895,0.072
39.900,0.059
39.905,0.033
39.910,0.002
39.915,-0.020
39.920,-0.038
39.925,-0.064
39.930,-0.087
39.935,-0.099
39.940,-0.115
39.945,-0.128
39.950,-0.131
39.955,-0.143
39.960,-0.156
39.965,-0.151
39.970,-0.146
39.975,-0.150
39.980,-0.147
39.985,-0.142
39.990,-0.145
39.995,-0.144
40.000,-0.136
40.005,-0.131
40.010,-0.129
40.015,-0.120
40.020,-0.112
40.025,-0.117
40.030,-0.112
40.035,-0.099
40.040,-0.097
40.045,-0.091
40.050,-0.077
40.055,-0.079
40.060,-0.081
40.065,-0.067
40.070,-0.063
40.075,-0.067
40.080,-0.060
40.085,-0.046
40.090,-0.041
40.095,-0.042
40.100,-0.038
40.105,-0.036
40.110,-0.039
40.115,-0.028
40.120,-0.024
40.125,-0.034
40.130,-0.030
40.135,-0.021
40.140,-0.029
40.145,-0.032
40.150,-0.023
40.155,-0.023
40.160,-0.026
40.165,-0.021
40.170,-0.018
40.175,-0.024
40.180,-0.023
40.185,-0.015
40.190,-0.016
40.195,-0.018
40.200,-0.013
40.205,-0.015
40.210,-0.021
40.215,-0.018
40.220,-0.012
40.225,-0.014
40.230,-0.010
40.235,-0.006
40.240,-0.011
40.245,-0.009
40.250,0.002
40.255,-0.001
40.260,-0.008
40.265,-0.002
40.270,0.002
40.275,-0.004
40.280,0.001
40.285,0.009
40.290,0.002
40.295,0.000
40.300,0.011
40.305,0.015
40.310,0.009
40.315,0.010
40.320,0.012
40.325,0.007
40.330,0.010
40.335,0.017
40.340,0.013
40.345,0.013
40.350,0.021
40.355,0.019
40.360,0.012
40.365,0.019
40.370,0.024
40.375,0.019
40.380,0.019
40.385,0.024
40.390,0.020
40.395,0.015
40.400,0.026
40.405,0.035
40.410,0.034
40.415,0.044
40.420,0.051
40.425,0.046
40.430,0.052
40.435,0.065
40.440,0.074
40.445,0.093
40.450,0.115
40.455,0.107
40.460,0.079
40.465,0.067
40.470,0.063
40.475,0.053
40.480,0.041
40.485,0.027
40.490,0.007
40.495,-0.010
40.500,-0.017
40.505,-0.028
40.510,-0.034
40.515,-0.023
40.520,-0.020
40.525,-0.031
40.530,-0.033
40.535,-0.026
40.540,-0.027
40.545,-0.030
40.550,-0.026
40.555,-0.026
40.560,-0.028
40.565,-0.021
40.570,-0.016
40.575,-0.022
40.580,-0.019
40.585,-0.003
40.590,0.031
40.595,0.102
40.600,0.188
40.605,0.221
40.610,0.210
40.615,0.180
40.620,0.044
40.625,-0.209
40.630,-0.417
40.635,-0.482
40.640,-0.440
40.645,-0.322
40.650,-0.181
40.655,-0.063
40.660,0.033
40.665,0.075
40.670,0.084
40.675,0.093
40.680,0.088
40.685,0.088
40.690,0.093
40.695,0.088
40.700,0.088
40.705,0.087
40.710,0.081
40.715,0.082
40.720,0.085
40.725,0.079
40.730,0.075
40.735,0.076
40.740,0.072
40.745,0.068
40.750,0.072
40.755,0.069
40.760,0.064
40.765,0.073
40.770,0.077
40.775,0.065
40.780,0.064
40.785,0.074
40.790,0.075
40.795,0.078
40.800,0.083
40.805,0.085
40.810,0.086
40.815,0.096
40.820,0.104
40.825,0.103
40.830,0.112
40.835,0.127
40.840,0.126
40.845,0.130
40.850,0.147
40.855,0.151
40.860,0.144
40.865,0.147
40.870,0.148
40.875,0.141
40.880,0.139
40.885,0.137
40.890,0.122
40.895,0.103
40.900,0.093
40.905,0.073
40.910,0.046
40.915,0.029
40.920,0.007
40.925,-0.024
40.930,-0.043
40.935,-0.057
40.940,-0.083
40.945,-0.107
40.950,-0.118
40.955,-0.131
40.960,-0.144
40.965,-0.143
40.970,-0.146
40.975,-0.160
40.980,-0.161
40.985,-0.155
40.990,-0.157
40.995,-0.154
41.000,-0.148
41.005,-0.148
41.010,-0.148
41.015,-0.136
41.020,-0.126
41.025,-0.126
41.030,-0.122
41.035,-0.115
41.040,-0.111
41.045,-0.105
41.050,-0.092
41.055,-0.087
41.060,-0.089
41.065,-0.079
41.070,-0.067
41.075,-0.067
41.080,-0.059
41.085,-0.046
41.090,-0.047
41.095,-0.045
41.100,-0.034
41.105,-0.033
41.110,-0.036
41.115,-0.029
41.120,-0.026
41.125,-0.030
41.130,-0.026
41.135,-0.020
41.140,-0.026
41.145,-0.030
41.150,-0.021
41.155,-0.018
41.160,-0.024
41.165,-0.020
41.170,-0.017
41.175,-0.023
41.180,-0.014
41.185,-0.006
41.190,-0.018
41.195,-0.025
41.200,-0.018
41.205,-0.014
41.210,-0.015
41.215,-0.011
41.220,-0.008
41.225,-0.012
41.230,-0.010
41.235,-0.007
41.240,-0.013
41.245,-0.013
41.250,-0.002
41.255,-0.001
41.260,-0.007
41.265,0.000
41.270,0.005
41.275,-0.001
41.280,0.001
41.285,0.009
41.290,0.002
41.295,-0.005
41.300,0.005
41.305,0.009
41.310,0.007
41.315,0.012
41.320,0.012
41.325,0.006
41.330,0.012
41.335,0.015
41.340,0.009
41.345,0.009
41.350,0.019
41.355,0.021
41.360,0.018
41.365,0.019
41.370,0.015
41.375,0.010
41.380,0.016
41.385,0.028
41.390,0.024
41.395,0.016
41.400,0.023
41.405,0.026
41.410,0.025
41.415,0.039
41.420,0.053
41.425,0.054
41.430,0.053
41.435,0.056
41.440,0.058
41.445,0.073
41.450,0.103
41.455,0.113
41.460,0.094
41.465,0.077
41.470,0.067
41.475,0.053
41.480,0.049
41.485,0.040
41.490,0.018
41.495,-0.001
41.500,-0.013
41.505,-0.029
41.510,-0.041
41.515,-0.036
41.520,-0.037
41.525,-0.045
41.530,-0.039
41.535,-0.030
41.540,-0.036
41.545,-0.038
41.550,-0.030
41.555,-0.030
41.560,-0.036
41.565,-0.028
41.570,-0.020
41.575,-0.023
41.580,-0.019
41.585,-0.015
41.590,-0.010
41.595,0.037
41.600,0.128
41.605,0.208
41.610,0.228
41.615,0.220
41.620,0.182
41.625,0.035
41.630,-0.205
41.635,-0.398
41.640,-0.459
41.645,-0.405
41.650,-0.280
41.655,-0.161
41.660,-0.054
41.665,0.043
41.670,0.067
41.675,0.060
41.680,0.074
41.685,0.076
41.690,0.065
41.695,0.068
41.700,0.077
41.705,0.069
41.710,0.065
41.715,0.073
41.720,0.069
41.725,0.057
41.730,0.058
41.735,0.064
41.740,0.059
41.745,0.058
41.750,0.064
41.755,0.062
41.760,0.056
41.765,0.062
41.770,0.063
41.775,0.053
41.780,0.058
41.785,0.068
41.790,0.065
41.795,0.061
41.800,0.068
41.805,0.071
41.810,0.071
41.815,0.080
41.820,0.088
41.825,0.085
41.830,0.091
41.835,0.105
41.840,0.111
41.845,0.116
41.850,0.127
41.855,0.129
41.860,0.129
41.865,0.142
41.870,0.149
41.875,0.142
41.880,0.139
41.885,0.136
41.890,0.124
41.895,0.116
41.900,0.112
41.905,0.092
41.910,0.066
41.915,0.051
41.920,0.030
41.925,-0.002
41.930,-0.024
41.935,-0.040
41.940,-0.064
41.945,-0.085
41.950,-0.098
41.955,-0.116
41.960,-0.132
41.965,-0.138
41.970,-0.146
41.975,-0.158
41.980,-0.156
41.985,-0.148
41.990,-0.151
41.995,-0.151
42.000,-0.144
42.005,-0.144
42.010,-0.146
42.015,-0.138
42.020,-0.130
42.025,-0.130
42.030,-0.121
42.035,-0.108
42.040,-0.113
42.045,-0.111
42.050,-0.094
42.055,-0.091
42.060,-0.090
42.065,-0.075
42.070,-0.064
42.075,-0.067
42.080,-0.066
42.085,-0.058
42.090,-0.056
42.095,-0.051
42.100,-0.037
42.105,-0.036
42.110,-0.038
42.115,-0.032
42.120,-0.026
42.125,-0.028
42.130,-0.029
42.135,-0.024
42.140,-0.027
42.145,-0.026
42.150,-0.018
42.155,-0.021
42.160,-0.026
42.165,-0.017
42.170,-0.013
42.175,-0.022
42.180,-0.018
42.185,-0.011
42.190,-0.021
42.195,-0.027
42.200,-0.018
42.205,-0.014
42.210,-0.017
42.215,-0.011
42.220,-0.008
42.225,-0.015
42.230,-0.013
42.235,-0.007
42.240,-0.013
42.245,-0.014
42.250,-0.005
42.255,-0.005
42.260,-0.010
42.265,-0.007
42.270,-0.001
42.275,0.000
42.280,0.002
42.285,0.006
42.290,0.000
42.295,-0.002
42.300,0.007
42.305,0.008
42.310,0.002
42.315,0.008
42.320,0.012
42.325,0.005
42.330,0.007
42.335,0.015
42.340,0.009
42.345,0.008
42.350,0.018
42.355,0.018
42.360,0.010
42.365,0.016
42.370,0.019
42.375,0.013
42.380,0.017
42.385,0.020
42.390,0.015
42.395,0.014
42.400,0.021
42.405,0.020
42.410,0.012
42.415,0.020
42.420,0.024
42.425,0.018
42.430,0.022
42.435,0.026
42.440,0.020
42.445,0.018
42.450,0.024
42.455,0.025
42.460,0.032
42.465,0.050
42.470,0.058
42.475,0.054
42.480,0.053
42.485,0.065
42.490,0.077
42.495,0.098
42.500,0.119
42.505,0.103
42.510,0.069
42.515,0.060
42.520,0.063
42.525,0.054
42.530,0.037
42.535,0.020
42.540,0.001
42.545,-0.014
42.550,-0.021
42.555,-0.035
42.560,-0.046
42.565,-0.040
42.570,-0.039
42.575,-0.047
42.580,-0.043
42.585,-0.033
42.590,-0.038
42.595,-0.038
42.600,-0.027
42.605,-0.029
42.610,-0.034
42.615,-0.026
42.620,-0.019
42.625,-0.024
42.630,-0.025
42.635,-0.010
42.640,0.026
42.645,0.099
42.650,0.193
42.655,0.237
42.660,0.228
42.665,0.203
42.670,0.075
42.675,-0.182
42.680,-0.413
42.685,-0.495
42.690,-0.460
42.695,-0.346
42.700,-0.203
42.705,-0.084
42.710,0.019
42.715,0.069
42.720,0.071
42.725,0.078
42.730,0.082
42.735,0.075
42.740,0.075
42.745,0.077
42.750,0.078
42.755,0.079
42.760,0.076
42.765,0.077
42.770,0.075
42.775,0.067
42.780,0.064
42.785,0.065
42.790,0.066
42.795,0.066
42.800,0.069
42.805,0.069
42.810,0.065
42.815,0.069
42.820,0.069
42.825,0.057
42.830,0.059
42.835,0.069
42.840,0.067
42.845,0.070
42.850,0.080
42.855,0.074
42.860,0.076
42.865,0.098
42.870,0.106
42.875,0.099
42.880,0.105
42.885,0.122
42.890,0.124
42.895,0.124
42.900,0.138
42.905,0.151
42.910,0.154
42.915,0.154
42.920,0.152
42.925,0.144
42.930,0.139
42.935,0.140
42.940,0.126
42.945,0.106
42.950,0.097
42.955,0.080
42.960,0.054
42.965,0.036
42.970,0.012
42.975,-0.018
42.980,-0.038
42.985,-0.057
42.990,-0.083
42.995,-0.101
43.000,-0.109
43.005,-0.124
43.010,-0.143
43.015,-0.147
43.020,-0.150
43.025,-0.160
43.030,-0.157
43.035,-0.152
43.040,-0.156
43.045,-0.153
43.050,-0.147
43.055,-0.148
43.060,-0.146
43.065,-0.138
43.070,-0.132
43.075,-0.134
43.080,-0.123
43.085,-0.109
43.090,-0.111
43.095,-0.107
43.100,-0.093
43.105,-0.089
43.110,-0.092
43.115,-0.084
43.120,-0.072
43.125,-0.065
43.130,-0.059
43.135,-0.056
43.140,-0.059
43.145,-0.055
43.150,-0.040
43.155,-0.037
43.160,-0.040
43.165,-0.033
43.170,-0.032
43.175,-0.038
43.180,-0.024
43.185,-0.016
43.190,-0.034
43.195,-0.037
43.200,-0.026
43.205,-0.024
43.210,-0.026
43.215,-0.020
43.220,-0.014
43.225,-0.020
43.230,-0.022
43.235,-0.017
43.240,-0.019
43.245,-0.023
43.250,-0.017
43.255,-0.017
43.260,-0.022
43.265,-0.015
43.270,-0.009
43.275,-0.017
43.280,-0.016
43.285,-0.004
43.290,-0.004
43.295,-0.009
43.300,-0.008
43.305,-0.013
43.310,-0.016
43.315,-0.005
43.320,0.000
43.325,-0.005
43.330,0.000
43.335,0.006
43.340,-0.002
43.345,-0.002
43.350,0.008
43.355,0.006
43.360,0.000
43.365,0.009
43.370,0.012
43.375,0.005
43.380,0.011
43.385,0.018
43.390,0.012
43.395,0.009
43.400,0.015
43.405,0.015
43.410,0.012
43.415,0.016
43.420,0.020
43.425,0.012
43.430,0.014
43.435,0.024
43.440,0.023
43.445,0.021
43.450,0.025
43.455,0.028
43.460,0.033
43.465,0.045
43.470,0.053
43.475,0.052
43.480,0.053
43.485,0.064
43.490,0.077
43.495,0.095
43.500,0.115
43.505,0.104
43.510,0.074
43.515,0.064
43.520,0.060
43.525,0.051
43.530,0.040
43.535,0.020
43.540,-0.002
43.545,-0.013
43.550,-0.014
43.555,-0.026
43.560,-0.034
43.565,-0.024
43.570,-0.025
43.575,-0.034
43.580,-0.026
43.585,-0.019
43.590,-0.033
43.595,-0.038
43.600,-0.022
43.605,-0.014
43.610,-0.019
43.615,-0.018
43.620,-0.015
43.625,-0.015
43.630,-0.012
43.635,-0.004
43.640,0.015
43.645,0.079
43.650,0.177
43.655,0.231
43.660,0.227
43.665,0.209
43.670,0.111
43.675,-0.123
43.680,-0.361
43.685,-0.471
43.690,-0.463
43.695,-0.362
43.700,-0.221
43.705,-0.102
43.710,0.006
43.715,0.071
43.720,0.082
43.725,0.090
43.730,0.094
43.735,0.087
43.740,0.085
43.745,0.085
43.750,0.085
43.755,0.084
43.760,0.081
43.765,0.080
43.770,0.080
43.775,0.075
43.780,0.076
43.785,0.079
43.790,0.072
43.795,0.071
43.800,0.078
43.805,0.073
43.810,0.066
43.815,0.069
43.820,0.074
43.825,0.071
43.830,0.071
43.835,0.073
43.840,0.071
43.845,0.074
43.850,0.082
43.855,0.080
43.860,0.079
43.865,0.093
43.870,0.101
43.875,0.100
43.880,0.108
43.885,0.119
43.890,0.118
43.895,0.123
43.900,0.140
43.905,0.145
43.910,0.143
43.915,0.150
43.920,0.150
43.925,0.139
43.930,0.136
43.935,0.135
43.940,0.122
43.945,0.109
43.950,0.100
43.955,0.083
43.960,0.056
43.965,0.036
43.970,0.012
43.975,-0.021
43.980,-0.038
43.985,-0.051
43.990,-0.081
43.995,-0.103
44.000,-0.114
44.005,-0.130
44.010,-0.144
44.015,-0.148
44.020,-0.153
44.025,-0.162
44.030,-0.159
44.035,-0.155
44.040,-0.163
44.045,-0.164
44.050,-0.153
44.055,-0.147
44.060,-0.148
44.065,-0.144
44.070,-0.137
44.075,-0.137
44.080,-0.127
44.085,-0.114
44.090,-0.115
44.095,-0.110
44.100,-0.098
44.105,-0.095
44.110,-0.093
44.115,-0.080
44.120,-0.070
44.125,-0.072
44.130,-0.065
44.135,-0.054
44.140,-0.055
44.145,-0.051
44.150,-0.040
44.155,-0.041
44.160,-0.041
44.165,-0.028
44.170,-0.024
44.175,-0.032
44.180,-0.029
44.185,-0.023
44.190,-0.028
44.195,-0.026
44.200,-0.015
44.205,-0.016
44.210,-0.023
44.215,-0.018
44.220,-0.015
44.225,-0.021
44.230,-0.018
44.235,-0.012
44.240,-0.019
44.245,-0.021
44.250,-0.013
44.255,-0.012
44.260,-0.016
44.265,-0.013
44.270,-0.013
44.275,-0.019
44.280,-0.016
44.285,-0.008
44.290,-0.011
44.295,-0.011
44.300,-0.003
44.305,-0.005
44.310,-0.009
44.315,-0.005
44.320,-0.003
44.325,-0.006
44.330,-0.003
44.335,0.004
44.340,-0.002
44.345,-0.002
44.350,0.011
44.355,0.010
44.360,0.004
44.365,0.009
44.370,0.010
44.375,0.003
44.380,0.008
44.385,0.014
44.390,0.009
44.395,0.006
44.400,0.012
44.405,0.017
44.410,0.016
44.415,0.018
44.420,0.017
44.425,0.010
44.430,0.019
44.435,0.026
44.440,0.015
44.445,0.012
44.450,0.025
44.455,0.024
44.460,0.015
44.465,0.022
44.470,0.026
44.475,0.018
44.480,0.017
44.485,0.023
44.490,0.020
44.495,0.020
44.500,0.023
44.505,0.016
44.510,0.015
44.515,0.024
44.520,0.027
44.525,0.023
44.530,0.034
44.535,0.047
44.540,0.048
44.545,0.050
44.550,0.057
44.555,0.059
44.560,0.065
44.565,0.090
44.570,0.110
44.575,0.100
44.580,0.080
44.585,0.065
44.590,0.051
44.595,0.048
44.600,0.044
44.605,0.025
44.610,0.000
44.615,-0.016
44.620,-0.024
44.625,-0.038
44.630,-0.040
44.635,-0.032
44.640,-0.039
44.645,-0.040
44.650,-0.034
44.655,-0.040
44.660,-0.045
44.665,-0.035
44.670,-0.032
44.675,-0.038
44.680,-0.032
44.685,-0.026
44.690,-0.032
44.695,-0.029
44.700,-0.019
44.705,-0.014
44.710,0.016
44.715,0.096
44.720,0.187
44.725,0.225
44.730,0.218
44.735,0.193
44.740,0.083
44.745,-0.143
44.750,-0.360
44.755,-0.449
44.760,-0.420
44.765,-0.310
44.770,-0.185
44.775,-0.077
44.780,0.029
44.785,0.069
44.790,0.055
44.795,0.066
44.800,0.077
44.805,0.063
44.810,0.057
44.815,0.066
44.820,0.064
44.825,0.056
44.830,0.062
44.835,0.067
44.840,0.060
44.845,0.058
44.850,0.062
44.855,0.056
44.860,0.050
44.865,0.055
44.870,0.055
44.875,0.048
44.880,0.054
44.885,0.062
44.890,0.057
44.895,0.053
44.900,0.060
44.905,0.059
44.910,0.058
44.915,0.068
44.920,0.070
44.925,0.064
44.930,0.075
44.935,0.087
44.940,0.086
44.945,0.087
44.950,0.098
44.955,0.108
44.960,0.115
44.965,0.125
44.970,0.131
44.975,0.127
44.980,0.134
44.985,0.147
44.990,0.142
44.995,0.138
45.000,0.142
45.005,0.132
45.010,0.117
45.015,0.113
45.020,0.100
45.025,0.073
45.030,0.056
45.035,0.040
45.040,0.013
45.045,-0.011
45.050,-0.030
45.055,-0.054
45.060,-0.077
45.065,-0.088
45.070,-0.104
45.075,-0.126
45.080,-0.137
45.085,-0.138
45.090,-0.149
45.095,-0.154
45.100,-0.143
45.105,-0.147
45.110,-0.155
45.115,-0.147
45.120,-0.145
45.125,-0.149
45.130,-0.141
45.135,-0.132
45.140,-0.131
45.145,-0.125
45.150,-0.112
45.155,-0.108
45.160,-0.110
45.165,-0.100
45.170,-0.092
45.175,-0.089
45.180,-0.079
45.185,-0.070
45.190,-0.069
45.195,-0.065
45.200,-0.055
45.205,-0.054
45.210,-0.055
45.215,-0.045
45.220,-0.039
45.225,-0.045
45.230,-0.038
45.235,-0.026
