'Elapsed time','ECG'
'seconds','mV'
0.000,-0.035
0.005,-0.040
0.010,-0.032
0.015,-0.007
0.020,-0.029
0.025,-0.042
0.030,-0.013
0.035,-0.022
0.040,-0.015
0.045,0.044
0.050,0.053
0.055,-0.017
0.060,-0.106
0.065,-0.257
0.070,-0.539
0.075,-0.857
0.080,-1.021
0.085,-0.974
0.090,-0.790
0.095,-0.567
0.100,-0.397
0.105,-0.236
0.110,-0.084
0.115,0.001
0.120,0.070
0.125,0.140
0.130,0.200
0.135,0.246
0.140,0.259
0.145,0.250
0.150,0.254
0.155,0.260
0.160,0.253
0.165,0.242
0.170,0.232
0.175,0.221
0.180,0.212
0.185,0.206
0.190,0.198
0.195,0.189
0.200,0.178
0.205,0.167
0.210,0.156
0.215,0.148
0.220,0.141
0.225,0.129
0.230,0.119
0.235,0.109
0.240,0.095
0.245,0.084
0.250,0.073
0.255,0.064
0.260,0.053
0.265,0.038
0.270,0.019
0.275,0.001
0.280,-0.010
0.285,-0.023
0.290,-0.042
0.295,-0.064
0.300,-0.082
0.305,-0.097
0.310,-0.111
0.315,-0.118
0.320,-0.128
0.325,-0.144
0.330,-0.149
0.335,-0.147
0.340,-0.141
0.345,-0.124
0.350,-0.098
0.355,-0.066
0.360,-0.030
0.365,0.004
0.370,0.040
0.375,0.072
0.380,0.101
0.385,0.123
0.390,0.136
0.395,0.145
0.400,0.149
0.405,0.149
0.410,0.151
0.415,0.150
0.420,0.145
0.425,0.141
0.430,0.137
0.435,0.131
0.440,0.123
0.445,0.115
0.450,0.111
0.455,0.107
0.460,0.100
0.465,0.096
0.470,0.089
0.475,0.079
0.480,0.075
0.485,0.074
0.490,0.068
0.495,0.064
0.500,0.060
0.505,0.052
0.510,0.051
0.515,0.051
0.520,0.043
0.525,0.038
0.530,0.034
0.535,0.030
0.540,0.027
0.545,0.024
0.550,0.023
0.555,0.021
0.560,0.015
0.565,0.012
0.570,0.014
0.575,0.012
0.580,0.008
0.585,0.005
0.590,0.000
0.595,-0.002
0.600,-0.002
0.605,-0.007
0.610,-0.011
0.615,-0.013
0.620,-0.014
0.625,-0.014
0.630,-0.017
0.635,-0.020
0.640,-0.023
0.645,-0.024
0.650,-0.021
0.655,-0.021
0.660,-0.022
0.665,-0.021
0.670,-0.025
0.675,-0.029
0.680,-0.028
0.685,-0.027
0.690,-0.029
0.695,-0.030
0.700,-0.032
0.705,-0.033
0.710,-0.032
0.715,-0.034
0.720,-0.035
0.725,-0.033
0.730,-0.030
0.735,-0.031
0.740,-0.036
0.745,-0.037
0.750,-0.032
0.755,-0.031
0.760,-0.035
0.765,-0.036
0.770,-0.034
0.775,-0.033
0.780,-0.035
0.785,-0.049
0.790,-0.065
0.795,-0.075
0.800,-0.083
0.805,-0.085
0.810,-0.087
0.815,-0.092
0.820,-0.103
0.825,-0.114
0.830,-0.109
0.835,-0.091
0.840,-0.068
0.845,-0.045
0.850,-0.031
0.855,-0.027
0.860,-0.019
0.865,-0.001
0.870,0.016
0.875,0.029
0.880,0.042
0.885,0.043
0.890,0.034
0.895,0.030
0.900,0.030
0.905,0.031
0.910,0.030
0.915,0.028
0.920,0.025
0.925,0.018
0.930,0.014
0.935,0.015
0.940,0.017
0.945,0.016
0.950,0.028
0.955,0.067
0.960,0.098
0.965,0.071
0.970,-0.006
0.975,-0.124
0.980,-0.343
0.985,-0.658
0.990,-0.894
0.995,-0.921
1.000,-0.797
1.005,-0.607
1.010,-0.430
1.015,-0.263
1.020,-0.091
1.025,0.005
1.030,0.059
1.035,0.126
1.040,0.181
1.045,0.227
1.050,0.258
1.055,0.257
1.060,0.248
1.065,0.253
1.070,0.252
1.075,0.241
1.080,0.235
1.085,0.228
1.090,0.215
1.095,0.207
1.100,0.203
1.105,0.189
1.110,0.174
1.115,0.161
1.120,0.152
1.125,0.145
1.130,0.136
1.135,0.127
1.140,0.115
1.145,0.104
1.150,0.096
1.155,0.088
1.160,0.077
1.165,0.066
1.170,0.052
1.175,0.036
1.180,0.024
1.185,0.010
1.190,-0.010
1.195,-0.030
1.200,-0.045
1.205,-0.059
1.210,-0.077
1.215,-0.093
1.220,-0.108
1.225,-0.122
1.230,-0.132
1.235,-0.142
1.240,-0.155
1.245,-0.156
1.250,-0.148
1.255,-0.136
1.260,-0.110
1.265,-0.074
1.270,-0.044
1.275,-0.013
1.280,0.022
1.285,0.057
1.290,0.089
1.295,0.113
1.300,0.131
1.305,0.146
1.310,0.154
1.315,0.155
1.320,0.154
1.325,0.153
1.330,0.149
1.335,0.145
1.340,0.141
1.345,0.134
1.350,0.130
1.355,0.123
1.360,0.117
1.365,0.113
1.370,0.101
1.375,0.093
1.380,0.094
1.385,0.090
1.390,0.077
1.395,0.069
1.400,0.065
1.405,0.060
1.410,0.055
1.415,0.052
1.420,0.051
1.425,0.048
1.430,0.041
1.435,0.035
1.440,0.032
1.445,0.029
1.450,0.026
1.455,0.018
1.460,0.012
1.465,0.011
1.470,0.007
1.475,0.002
1.480,0.000
1.485,-0.003
1.490,-0.007
1.495,-0.008
1.500,-0.002
1.505,0.003
1.510,0.000
1.515,-0.005
1.520,-0.007
1.525,-0.008
1.530,-0.014
1.535,-0.022
1.540,-0.027
1.545,-0.023
1.550,-0.019
1.555,-0.021
1.560,-0.021
1.565,-0.023
1.570,-0.030
1.575,-0.035
1.580,-0.032
1.585,-0.028
1.590,-0.026
1.595,-0.027
1.600,-0.032
1.605,-0.033
1.610,-0.034
1.615,-0.036
1.620,-0.040
1.625,-0.042
1.630,-0.038
1.635,-0.034
1.640,-0.032
1.645,-0.030
1.650,-0.034
1.655,-0.038
1.660,-0.040
1.665,-0.038
1.670,-0.040
1.675,-0.057
1.680,-0.075
1.685,-0.085
1.690,-0.088
1.695,-0.087
1.700,-0.089
1.705,-0.101
1.710,-0.115
1.715,-0.117
1.720,-0.106
1.725,-0.087
1.730,-0.057
1.735,-0.039
1.740,-0.038
1.745,-0.034
1.750,-0.021
1.755,-0.002
1.760,0.011
1.765,0.021
1.770,0.029
1.775,0.030
1.780,0.026
1.785,0.022
1.790,0.020
1.795,0.022
1.800,0.024
1.805,0.022
1.810,0.018
1.815,0.011
1.820,0.003
1.825,0.006
1.830,0.016
1.835,0.023
1.840,0.052
1.845,0.091
1.850,0.081
1.855,0.012
1.860,-0.090
1.865,-0.263
1.870,-0.541
1.875,-0.814
1.880,-0.910
1.885,-0.833
1.890,-0.676
1.895,-0.488
1.900,-0.293
1.905,-0.108
1.910,0.007
1.915,0.066
1.920,0.129
1.925,0.178
1.930,0.206
1.935,0.227
1.940,0.235
1.945,0.232
1.950,0.231
1.955,0.234
1.960,0.227
1.965,0.216
1.970,0.211
1.975,0.201
1.980,0.185
1.985,0.174
1.990,0.171
1.995,0.170
2.000,0.156
2.005,0.141
2.010,0.134
2.015,0.126
2.020,0.115
2.025,0.099
2.030,0.083
2.035,0.074
2.040,0.065
2.045,0.057
2.050,0.056
2.055,0.047
2.060,0.031
2.065,0.014
2.070,-0.006
2.075,-0.028
2.080,-0.044
2.085,-0.057
2.090,-0.075
2.095,-0.093
2.100,-0.106
2.105,-0.117
2.110,-0.128
2.115,-0.140
2.120,-0.150
2.125,-0.153
2.130,-0.147
2.135,-0.138
2.140,-0.123
2.145,-0.097
2.150,-0.062
2.155,-0.025
2.160,0.009
2.165,0.044
2.170,0.081
2.175,0.110
2.180,0.131
2.185,0.146
2.190,0.159
2.195,0.170
2.200,0.175
2.205,0.176
2.210,0.176
2.215,0.173
2.220,0.166
2.225,0.159
2.230,0.152
2.235,0.145
2.240,0.138
2.245,0.131
2.250,0.130
2.255,0.129
2.260,0.124
2.265,0.114
2.270,0.103
2.275,0.092
2.280,0.086
2.285,0.079
2.290,0.066
2.295,0.060
2.300,0.061
2.305,0.057
2.310,0.052
2.315,0.046
2.320,0.040
2.325,0.034
2.330,0.030
2.335,0.026
2.340,0.019
2.345,0.012
2.350,0.010
2.355,0.008
2.360,0.008
2.365,0.007
2.370,0.004
2.375,0.003
2.380,0.005
2.385,0.004
2.390,0.001
2.395,-0.005
2.400,-0.010
2.405,-0.011
2.410,-0.013
2.415,-0.012
2.420,-0.012
2.425,-0.018
2.430,-0.020
2.435,-0.016
2.440,-0.014
2.445,-0.015
2.450,-0.018
2.455,-0.026
2.460,-0.028
2.465,-0.025
2.470,-0.026
2.475,-0.029
2.480,-0.028
2.485,-0.028
2.490,-0.028
2.495,-0.030
2.500,-0.031
2.505,-0.032
2.510,-0.038
2.515,-0.040
2.520,-0.040
2.525,-0.046
2.530,-0.057
2.535,-0.069
2.540,-0.078
2.545,-0.080
2.550,-0.082
2.555,-0.091
2.560,-0.103
2.565,-0.109
2.570,-0.109
2.575,-0.104
2.580,-0.085
2.585,-0.058
2.590,-0.045
2.595,-0.045
2.600,-0.043
2.605,-0.030
2.610,-0.007
2.615,0.014
2.620,0.023
2.625,0.021
2.630,0.015
2.635,0.014
2.640,0.016
2.645,0.018
2.650,0.017
2.655,0.013
2.660,0.010
2.665,0.010
2.670,0.006
2.675,0.004
2.680,0.005
2.685,0.006
2.690,0.022
2.695,0.067
2.700,0.086
2.705,0.033
2.710,-0.057
2.715,-0.193
2.720,-0.445
2.725,-0.771
2.730,-0.979
2.735,-0.975
2.740,-0.829
2.745,-0.623
2.750,-0.434
2.755,-0.245
2.760,-0.070
2.765,0.026
2.770,0.097
2.775,0.167
2.780,0.218
2.785,0.255
2.790,0.266
2.795,0.255
2.800,0.251
2.805,0.256
2.810,0.253
2.815,0.245
2.820,0.238
2.825,0.233
2.830,0.228
2.835,0.219
2.840,0.207
2.845,0.192
2.850,0.179
2.855,0.171
2.860,0.162
2.865,0.152
2.870,0.143
2.875,0.130
2.880,0.118
2.885,0.109
2.890,0.096
2.895,0.083
2.900,0.073
2.905,0.060
2.910,0.049
2.915,0.037
2.920,0.021
2.925,0.005
2.930,-0.012
2.935,-0.034
2.940,-0.053
2.945,-0.070
2.950,-0.082
2.955,-0.093
2.960,-0.111
2.965,-0.124
2.970,-0.132
2.975,-0.143
2.980,-0.149
2.985,-0.149
2.990,-0.144
2.995,-0.124
3.000,-0.093
3.005,-0.059
3.010,-0.021
3.015,0.017
3.020,0.053
3.025,0.085
3.030,0.113
3.035,0.133
3.040,0.149
3.045,0.158
3.050,0.163
3.055,0.168
3.060,0.168
3.065,0.166
3.070,0.163
3.075,0.156
3.080,0.149
3.085,0.141
3.090,0.130
3.095,0.125
3.100,0.122
3.105,0.113
3.110,0.105
3.115,0.100
3.120,0.093
3.125,0.087
3.130,0.085
3.135,0.082
3.140,0.076
3.145,0.066
3.150,0.060
3.155,0.053
3.160,0.046
3.165,0.044
3.170,0.036
3.175,0.029
3.180,0.029
3.185,0.029
3.190,0.025
3.195,0.018
3.200,0.011
3.205,0.006
3.210,0.005
3.215,0.003
3.220,0.000
3.225,-0.001
3.230,-0.003
3.235,-0.002
3.240,-0.003
3.245,-0.007
3.250,-0.008
3.255,-0.011
3.260,-0.016
3.265,-0.016
3.270,-0.019
3.275,-0.021
3.280,-0.019
3.285,-0.021
3.290,-0.025
3.295,-0.028
3.300,-0.028
3.305,-0.025
3.310,-0.025
3.315,-0.029
3.320,-0.033
3.325,-0.035
3.330,-0.033
3.335,-0.031
3.340,-0.032
3.345,-0.036
3.350,-0.035
3.355,-0.037
3.360,-0.039
3.365,-0.033
3.370,-0.033
3.375,-0.038
3.380,-0.044
3.385,-0.042
3.390,-0.037
3.395,-0.043
3.400,-0.057
3.405,-0.075
3.410,-0.090
3.415,-0.095
3.420,-0.095
3.425,-0.091
3.430,-0.091
3.435,-0.099
3.440,-0.107
3.445,-0.104
3.450,-0.089
3.455,-0.068
3.460,-0.051
3.465,-0.041
3.470,-0.039
3.475,-0.030
3.480,-0.012
3.485,0.003
3.490,0.017
3.495,0.031
3.500,0.034
3.505,0.026
3.510,0.019
3.515,0.021
3.520,0.023
3.525,0.017
3.530,0.014
3.535,0.019
3.540,0.019
3.545,0.014
3.550,0.013
3.555,0.010
3.560,0.012
3.565,0.043
3.570,0.086
3.575,0.079
3.580,0.009
3.585,-0.094
3.590,-0.272
3.595,-0.567
3.600,-0.878
3.605,-1.020
3.610,-0.944
3.615,-0.744
3.620,-0.524
3.625,-0.355
3.630,-0.184
3.635,-0.037
3.640,0.037
3.645,0.106
3.650,0.177
3.655,0.231
3.660,0.272
3.665,0.285
3.670,0.279
3.675,0.276
3.680,0.277
3.685,0.269
3.690,0.261
3.695,0.257
3.700,0.245
3.705,0.231
3.710,0.223
3.715,0.214
3.720,0.199
3.725,0.189
3.730,0.180
3.735,0.167
3.740,0.158
3.745,0.150
3.750,0.137
3.755,0.125
3.760,0.113
3.765,0.103
3.770,0.094
3.775,0.080
3.780,0.067
3.785,0.057
3.790,0.044
3.795,0.027
3.800,0.008
3.805,-0.010
3.810,-0.027
3.815,-0.041
3.820,-0.059
3.825,-0.079
3.830,-0.095
3.835,-0.109
3.840,-0.121
3.845,-0.132
3.850,-0.139
3.855,-0.145
3.860,-0.150
3.865,-0.143
3.870,-0.128
3.875,-0.106
3.880,-0.072
3.885,-0.029
3.890,0.009
3.895,0.039
3.900,0.071
3.905,0.100
3.910,0.121
3.915,0.138
3.920,0.146
3.925,0.150
3.930,0.155
3.935,0.154
3.940,0.151
3.945,0.149
3.950,0.143
3.955,0.134
3.960,0.125
3.965,0.119
3.970,0.114
3.975,0.106
3.980,0.097
3.985,0.091
3.990,0.084
3.995,0.078
4.000,0.074
4.005,0.070
4.010,0.065
4.015,0.060
4.020,0.055
4.025,0.051
4.030,0.050
4.035,0.046
4.040,0.041
4.045,0.036
4.050,0.032
4.055,0.027
4.060,0.023
4.065,0.022
4.070,0.020
4.075,0.015
4.080,0.008
4.085,0.007
4.090,0.005
4.095,0.004
4.100,0.005
4.105,-0.001
4.110,-0.007
4.115,-0.006
4.120,-0.008
4.125,-0.010
4.130,-0.011
4.135,-0.012
4.140,-0.014
4.145,-0.016
4.150,-0.017
4.155,-0.018
4.160,-0.018
4.165,-0.021
4.170,-0.025
4.175,-0.026
4.180,-0.027
4.185,-0.026
4.190,-0.028
4.195,-0.031
4.200,-0.029
4.205,-0.033
4.210,-0.037
4.215,-0.033
4.220,-0.031
4.225,-0.031
4.230,-0.031
4.235,-0.031
4.240,-0.032
4.245,-0.036
4.250,-0.037
4.255,-0.036
4.260,-0.037
4.265,-0.039
4.270,-0.043
4.275,-0.046
4.280,-0.042
4.285,-0.037
4.290,-0.038
4.295,-0.039
4.300,-0.045
4.305,-0.059
4.310,-0.071
4.315,-0.084
4.320,-0.089
4.325,-0.089
4.330,-0.092
4.335,-0.097
4.340,-0.109
4.345,-0.120
4.350,-0.110
4.355,-0.085
4.360,-0.057
4.365,-0.039
4.370,-0.036
4.375,-0.034
4.380,-0.019
4.385,0.002
4.390,0.021
4.395,0.039
4.400,0.047
4.405,0.035
4.410,0.022
4.415,0.020
4.420,0.021
4.425,0.022
4.430,0.021
4.435,0.019
4.440,0.018
4.445,0.015
4.450,0.015
4.455,0.016
4.460,0.015
4.465,0.031
4.470,0.070
4.475,0.093
4.480,0.059
4.485,-0.016
4.490,-0.133
4.495,-0.363
4.500,-0.680
4.505,-0.905
4.510,-0.929
4.515,-0.812
4.520,-0.625
4.525,-0.444
4.530,-0.269
4.535,-0.093
4.540,0.006
4.545,0.067
4.550,0.141
4.555,0.196
4.560,0.238
4.565,0.268
4.570,0.267
4.575,0.253
4.580,0.253
4.585,0.254
4.590,0.244
4.595,0.238
4.600,0.228
4.605,0.214
4.610,0.205
4.615,0.198
4.620,0.187
4.625,0.176
4.630,0.165
4.635,0.157
4.640,0.149
4.645,0.140
4.650,0.133
4.655,0.123
4.660,0.109
4.665,0.100
4.670,0.090
4.675,0.077
4.680,0.068
4.685,0.055
4.690,0.033
4.695,0.013
4.700,0.001
4.705,-0.009
4.710,-0.025
4.715,-0.044
4.720,-0.065
4.725,-0.085
4.730,-0.098
4.735,-0.108
4.740,-0.120
4.745,-0.134
4.750,-0.145
4.755,-0.150
4.760,-0.152
4.765,-0.145
4.770,-0.132
4.775,-0.113
4.780,-0.078
4.785,-0.036
4.790,0.000
4.795,0.038
4.800,0.073
4.805,0.100
4.810,0.121
4.815,0.139
4.820,0.155
4.825,0.165
4.830,0.168
4.835,0.168
4.840,0.166
4.845,0.165
4.850,0.160
4.855,0.146
4.860,0.133
4.865,0.129
4.870,0.126
4.875,0.121
4.880,0.118
4.885,0.111
4.890,0.105
4.895,0.097
4.900,0.090
4.905,0.089
4.910,0.088
4.915,0.081
4.920,0.070
4.925,0.056
4.930,0.048
4.935,0.047
4.940,0.045
4.945,0.038
4.950,0.032
4.955,0.031
4.960,0.026
4.965,0.021
4.970,0.019
4.975,0.016
4.980,0.014
4.985,0.006
4.990,-0.001
4.995,0.000
5.000,0.003
5.005,0.001
5.010,-0.005
5.015,-0.004
5.020,-0.001
5.025,-0.003
5.030,-0.009
5.035,-0.017
5.040,-0.020
5.045,-0.016
5.050,-0.014
5.055,-0.017
5.060,-0.024
5.065,-0.025
5.070,-0.021
5.075,-0.021
5.080,-0.023
5.085,-0.026
5.090,-0.029
5.095,-0.028
5.100,-0.028
5.105,-0.032
5.110,-0.031
5.115,-0.028
5.120,-0.031
5.125,-0.037
5.130,-0.040
5.135,-0.041
5.140,-0.039
5.145,-0.035
5.150,-0.028
5.155,-0.030
5.160,-0.049
5.165,-0.067
5.170,-0.082
5.175,-0.092
5.180,-0.096
5.185,-0.091
5.190,-0.091
5.195,-0.103
5.200,-0.109
5.205,-0.106
5.210,-0.092
5.215,-0.063
5.220,-0.049
5.225,-0.050
5.230,-0.043
5.235,-0.029
5.240,-0.009
5.245,0.010
5.250,0.027
5.255,0.032
5.260,0.023
5.265,0.016
5.270,0.014
5.275,0.017
5.280,0.020
5.285,0.015
5.290,0.010
5.295,0.009
5.300,0.007
5.305,0.007
5.310,0.005
5.315,0.004
5.320,0.011
5.325,0.043
5.330,0.080
5.335,0.064
5.340,-0.006
5.345,-0.110
5.350,-0.302
5.355,-0.597
5.360,-0.866
5.365,-0.949
5.370,-0.858
5.375,-0.687
5.380,-0.492
5.385,-0.299
5.390,-0.113
5.395,0.005
5.400,0.071
5.405,0.137
5.410,0.187
5.415,0.219
5.420,0.237
5.425,0.242
5.430,0.241
5.435,0.240
5.440,0.241
5.445,0.233
5.450,0.223
5.455,0.219
5.460,0.209
5.465,0.195
5.470,0.187
5.475,0.181
5.480,0.170
5.485,0.156
5.490,0.145
5.495,0.138
5.500,0.131
5.505,0.119
5.510,0.104
5.515,0.095
5.520,0.088
5.525,0.076
5.530,0.064
5.535,0.054
5.540,0.042
5.545,0.027
5.550,0.013
5.555,-0.001
5.560,-0.017
5.565,-0.032
5.570,-0.051
5.575,-0.077
5.580,-0.096
5.585,-0.108
5.590,-0.121
5.595,-0.131
5.600,-0.141
5.605,-0.152
5.610,-0.158
5.615,-0.156
5.620,-0.146
5.625,-0.130
5.630,-0.107
5.635,-0.072
5.640,-0.031
5.645,0.009
5.650,0.050
5.655,0.085
5.660,0.114
5.665,0.138
5.670,0.155
5.675,0.167
5.680,0.177
5.685,0.181
5.690,0.181
5.695,0.178
5.700,0.172
5.705,0.165
5.710,0.157
5.715,0.152
5.720,0.147
5.725,0.139
5.730,0.131
5.735,0.126
5.740,0.121
5.745,0.115
5.750,0.108
5.755,0.101
5.760,0.094
5.765,0.088
5.770,0.079
5.775,0.073
5.780,0.068
5.785,0.063
5.790,0.059
5.795,0.053
5.800,0.044
5.805,0.037
5.810,0.034
5.815,0.030
5.820,0.026
5.825,0.021
5.830,0.017
5.835,0.015
5.840,0.009
5.845,0.002
5.850,0.004
5.855,0.004
5.860,0.001
5.865,0.001
5.870,-0.001
5.875,-0.004
5.880,-0.006
5.885,-0.006
5.890,-0.006
5.895,-0.010
5.900,-0.011
5.905,-0.016
5.910,-0.022
5.915,-0.022
5.920,-0.022
5.925,-0.023
5.930,-0.022
5.935,-0.021
5.940,-0.023
5.945,-0.026
5.950,-0.028
5.955,-0.029
5.960,-0.030
5.965,-0.030
5.970,-0.032
5.975,-0.036
5.980,-0.035
5.985,-0.032
5.990,-0.031
5.995,-0.034
6.000,-0.036
6.005,-0.038
6.010,-0.043
6.015,-0.055
6.020,-0.069
6.025,-0.084
6.030,-0.091
6.035,-0.090
6.040,-0.089
6.045,-0.096
6.050,-0.105
6.055,-0.110
6.060,-0.106
6.065,-0.089
6.070,-0.065
6.075,-0.047
6.080,-0.041
6.085,-0.039
6.090,-0.032
6.095,-0.015
6.100,0.004
6.105,0.018
6.110,0.030
6.115,0.029
6.120,0.022
6.125,0.017
6.130,0.017
6.135,0.021
6.140,0.018
6.145,0.013
6.150,0.014
6.155,0.012
6.160,0.008
6.165,0.010
6.170,0.009
6.175,0.013
6.180,0.046
6.185,0.087
6.190,0.071
6.195,-0.005
6.200,-0.111
6.205,-0.303
6.210,-0.612
6.215,-0.910
6.220,-1.022
6.225,-0.927
6.230,-0.724
6.235,-0.513
6.240,-0.339
6.245,-0.162
6.250,-0.029
6.255,0.042
6.260,0.116
6.265,0.185
6.270,0.236
6.275,0.272
6.280,0.276
6.285,0.270
6.290,0.272
6.295,0.270
6.300,0.261
6.305,0.253
6.310,0.246
6.315,0.235
6.320,0.224
6.325,0.213
6.330,0.203
6.335,0.193
6.340,0.182
6.345,0.171
6.350,0.163
6.355,0.151
6.360,0.141
6.365,0.132
6.370,0.121
6.375,0.112
6.380,0.102
6.385,0.089
6.390,0.075
6.395,0.062
6.400,0.052
6.405,0.036
6.410,0.019
6.415,0.005
6.420,-0.009
6.425,-0.028
6.430,-0.051
6.435,-0.068
6.440,-0.083
6.445,-0.099
6.450,-0.112
6.455,-0.123
6.460,-0.135
6.465,-0.146
6.470,-0.151
6.475,-0.148
6.480,-0.138
6.485,-0.120
6.490,-0.093
6.495,-0.055
6.500,-0.013
6.505,0.024
6.510,0.058
6.515,0.088
6.520,0.111
6.525,0.130
6.530,0.147
6.535,0.156
6.540,0.160
6.545,0.160
6.550,0.159
6.555,0.157
6.560,0.148
6.565,0.143
6.570,0.141
6.575,0.130
6.580,0.118
6.585,0.114
6.590,0.108
6.595,0.101
6.600,0.097
6.605,0.089
6.610,0.085
6.615,0.081
6.620,0.074
6.625,0.068
6.630,0.063
6.635,0.061
6.640,0.056
6.645,0.048
6.650,0.042
6.655,0.038
6.660,0.035
6.665,0.033
6.670,0.028
6.675,0.022
6.680,0.020
6.685,0.019
6.690,0.012
6.695,0.007
6.700,0.005
6.705,0.004
6.710,0.002
6.715,-0.003
6.720,-0.004
6.725,-0.005
6.730,-0.008
6.735,-0.010
6.740,-0.015
6.745,-0.017
6.750,-0.016
6.755,-0.017
6.760,-0.019
6.765,-0.021
6.770,-0.020
6.775,-0.024
6.780,-0.027
6.785,-0.027
6.790,-0.027
6.795,-0.028
6.800,-0.030
6.805,-0.035
6.810,-0.036
6.815,-0.033
6.820,-0.030
6.825,-0.031
6.830,-0.036
6.835,-0.039
6.840,-0.037
6.845,-0.037
6.850,-0.036
6.855,-0.035
6.860,-0.037
6.865,-0.039
6.870,-0.040
6.875,-0.047
6.880,-0.058
6.885,-0.071
6.890,-0.089
6.895,-0.098
6.900,-0.093
6.905,-0.090
6.910,-0.093
6.915,-0.100
6.920,-0.107
6.925,-0.106
6.930,-0.094
6.935,-0.072
6.940,-0.050
6.945,-0.037
6.950,-0.037
6.955,-0.033
6.960,-0.017
6.965,0.004
6.970,0.021
6.975,0.032
6.980,0.029
6.985,0.024
6.990,0.019
6.995,0.020
7.000,0.026
7.005,0.026
7.010,0.020
7.015,0.017
7.020,0.017
7.025,0.012
7.030,0.007
7.035,0.009
7.040,0.013
7.045,0.033
7.050,0.075
7.055,0.076
7.060,0.012
7.065,-0.084
7.070,-0.253
7.075,-0.540
7.080,-0.846
7.085,-0.981
7.090,-0.904
7.095,-0.715
7.100,-0.504
7.105,-0.340
7.110,-0.179
7.115,-0.039
7.120,0.029
7.125,0.097
7.130,0.168
7.135,0.220
7.140,0.259
7.145,0.269
7.150,0.261
7.155,0.261
7.160,0.262
7.165,0.252
7.170,0.244
7.175,0.242
7.180,0.231
7.185,0.216
7.190,0.205
7.195,0.194
7.200,0.188
7.205,0.183
7.210,0.173
7.215,0.160
7.220,0.149
7.225,0.139
7.230,0.129
7.235,0.119
7.240,0.104
7.245,0.093
7.250,0.086
7.255,0.073
7.260,0.061
7.265,0.051
7.270,0.037
7.275,0.017
7.280,-0.006
7.285,-0.027
7.290,-0.040
7.295,-0.055
7.300,-0.073
7.305,-0.088
7.310,-0.101
7.315,-0.113
7.320,-0.123
7.325,-0.139
7.330,-0.154
7.335,-0.160
7.340,-0.161
7.345,-0.153
7.350,-0.129
7.355,-0.097
7.360,-0.060
7.365,-0.020
7.370,0.019
7.375,0.057
7.380,0.087
7.385,0.110
7.390,0.126
7.395,0.139
7.400,0.155
7.405,0.163
7.410,0.165
7.415,0.163
7.420,0.158
7.425,0.151
7.430,0.141
7.435,0.135
7.440,0.129
7.445,0.121
7.450,0.117
7.455,0.112
7.460,0.107
7.465,0.102
7.470,0.097
7.475,0.092
7.480,0.084
7.485,0.076
7.490,0.070
7.495,0.065
7.500,0.061
7.505,0.054
7.510,0.046
7.515,0.045
7.520,0.045
7.525,0.040
7.530,0.036
7.535,0.032
7.540,0.023
7.545,0.019
7.550,0.020
7.555,0.020
7.560,0.020
7.565,0.015
7.570,0.006
7.575,0.000
7.580,-0.006
7.585,-0.003
7.590,-0.001
7.595,-0.006
7.600,-0.010
7.605,-0.017
7.610,-0.017
7.615,-0.010
7.620,-0.007
7.625,-0.012
7.630,-0.022
7.635,-0.025
7.640,-0.025
7.645,-0.026
7.650,-0.024
7.655,-0.025
7.660,-0.029
7.665,-0.030
7.670,-0.028
7.675,-0.030
7.680,-0.034
7.685,-0.034
7.690,-0.034
7.695,-0.034
7.700,-0.033
7.705,-0.033
7.710,-0.033
7.715,-0.033
7.720,-0.043
7.725,-0.058
7.730,-0.072
7.735,-0.083
7.740,-0.091
7.745,-0.093
7.750,-0.095
7.755,-0.101
7.760,-0.107
7.765,-0.110
7.770,-0.104
7.775,-0.088
7.780,-0.063
7.785,-0.040
7.790,-0.032
7.795,-0.034
7.800,-0.027
7.805,-0.011
7.810,0.006
7.815,0.023
7.820,0.029
7.825,0.024
7.830,0.015
7.835,0.012
7.840,0.017
7.845,0.018
7.850,0.018
7.855,0.019
7.860,0.018
7.865,0.014
7.870,0.008
7.875,-0.001
7.880,-0.004
7.885,0.013
7.890,0.052
7.895,0.087
7.900,0.071
7.905,-0.001
7.910,-0.108
7.915,-0.303
7.920,-0.598
7.925,-0.847
7.930,-0.910
7.935,-0.824
7.940,-0.664
7.945,-0.478
7.950,-0.289
7.955,-0.106
7.960,0.006
7.965,0.072
7.970,0.143
7.975,0.187
7.980,0.211
7.985,0.233
7.990,0.240
7.995,0.233
8.000,0.230
8.005,0.231
8.010,0.220
8.015,0.207
8.020,0.202
8.025,0.195
8.030,0.183
8.035,0.174
8.040,0.170
8.045,0.164
8.050,0.154
8.055,0.146
8.060,0.134
8.065,0.118
8.070,0.107
8.075,0.097
8.080,0.089
8.085,0.083
8.090,0.071
8.095,0.058
8.100,0.050
8.105,0.038
8.110,0.017
8.115,0.001
8.120,-0.011
8.125,-0.028
8.130,-0.043
8.135,-0.058
8.140,-0.079
8.145,-0.100
8.150,-0.115
8.155,-0.129
8.160,-0.141
8.165,-0.150
8.170,-0.159
8.175,-0.163
8.180,-0.161
8.185,-0.152
8.190,-0.133
8.195,-0.104
8.200,-0.067
8.205,-0.022
8.210,0.020
8.215,0.057
8.220,0.096
8.225,0.127
8.230,0.147
8.235,0.165
8.240,0.174
8.245,0.178
8.250,0.183
8.255,0.180
8.260,0.175
8.265,0.172
8.270,0.165
8.275,0.156
8.280,0.152
8.285,0.146
8.290,0.138
8.295,0.128
8.300,0.119
8.305,0.118
8.310,0.118
8.315,0.111
8.320,0.103
8.325,0.093
8.330,0.084
8.335,0.080
8.340,0.075
8.345,0.066
8.350,0.061
8.355,0.053
8.360,0.045
8.365,0.042
8.370,0.038
8.375,0.032
8.380,0.026
8.385,0.020
8.390,0.017
8.395,0.014
8.400,0.011
8.405,0.007
8.410,0.004
8.415,0.004
8.420,0.003
8.425,-0.001
8.430,-0.003
8.435,-0.002
8.440,-0.006
8.445,-0.010
8.450,-0.010
8.455,-0.011
8.460,-0.014
8.465,-0.014
8.470,-0.015
8.475,-0.017
8.480,-0.020
8.485,-0.023
8.490,-0.024
8.495,-0.026
8.500,-0.024
8.505,-0.023
8.510,-0.027
8.515,-0.031
8.520,-0.033
8.525,-0.034
8.530,-0.032
8.535,-0.028
8.540,-0.029
8.545,-0.034
8.550,-0.036
8.555,-0.036
8.560,-0.034
8.565,-0.035
8.570,-0.043
8.575,-0.057
8.580,-0.077
8.585,-0.090
8.590,-0.091
8.595,-0.090
8.600,-0.091
8.605,-0.099
8.610,-0.110
8.615,-0.110
8.620,-0.095
8.625,-0.069
8.630,-0.045
8.635,-0.036
8.640,-0.039
8.645,-0.035
8.650,-0.018
8.655,0.002
8.660,0.015
8.665,0.024
8.670,0.027
8.675,0.020
8.680,0.014
8.685,0.017
8.690,0.022
8.695,0.016
8.700,0.010
8.705,0.010
8.710,0.008
8.715,0.008
8.720,0.009
8.725,0.006
8.730,0.007
8.735,0.032
8.740,0.075
8.745,0.082
8.750,0.024
8.755,-0.071
8.760,-0.222
8.765,-0.489
8.770,-0.807
8.775,-0.979
8.780,-0.942
8.785,-0.776
8.790,-0.565
8.795,-0.385
8.800,-0.207
8.805,-0.054
8.810,0.023
8.815,0.093
8.820,0.165
8.825,0.215
8.830,0.253
8.835,0.267
8.840,0.259
8.845,0.253
8.850,0.258
8.855,0.256
8.860,0.244
8.865,0.238
8.870,0.233
8.875,0.219
8.880,0.207
8.885,0.197
8.890,0.185
8.895,0.175
8.900,0.170
8.905,0.161
8.910,0.148
8.915,0.138
8.920,0.127
8.925,0.118
8.930,0.109
8.935,0.096
8.940,0.084
8.945,0.073
8.950,0.061
8.955,0.048
8.960,0.031
8.965,0.016
8.970,0.003
8.975,-0.015
8.980,-0.033
8.985,-0.047
8.990,-0.068
8.995,-0.090
9.000,-0.104
9.005,-0.116
9.010,-0.130
9.015,-0.138
9.020,-0.146
9.025,-0.153
9.030,-0.152
9.035,-0.143
9.040,-0.122
9.045,-0.089
9.050,-0.053
9.055,-0.015
9.060,0.021
9.065,0.055
9.070,0.090
9.075,0.119
9.080,0.135
9.085,0.148
9.090,0.158
9.095,0.162
9.100,0.167
9.105,0.167
9.110,0.161
9.115,0.155
9.120,0.150
9.125,0.143
9.130,0.137
9.135,0.129
9.140,0.118
9.145,0.111
9.150,0.107
9.155,0.101
9.160,0.094
9.165,0.089
9.170,0.086
9.175,0.079
9.180,0.072
9.185,0.066
9.190,0.062
9.195,0.057
9.200,0.051
9.205,0.047
9.210,0.043
9.215,0.036
9.220,0.033
9.225,0.029
9.230,0.023
9.235,0.018
9.240,0.012
9.245,0.008
9.250,0.008
9.255,0.007
9.260,0.001
9.265,-0.002
9.270,-0.001
9.275,-0.007
9.280,-0.012
9.285,-0.009
9.290,-0.010
9.295,-0.013
9.300,-0.014
9.305,-0.017
9.310,-0.019
9.315,-0.019
9.320,-0.021
9.325,-0.021
9.330,-0.023
9.335,-0.024
9.340,-0.025
9.345,-0.027
9.350,-0.029
9.355,-0.030
9.360,-0.031
9.365,-0.032
9.370,-0.033
9.375,-0.035
9.380,-0.038
9.385,-0.037
9.390,-0.037
9.395,-0.038
9.400,-0.035
9.405,-0.035
9.410,-0.039
9.415,-0.042
9.420,-0.039
9.425,-0.035
9.430,-0.040
9.435,-0.054
9.440,-0.070
9.445,-0.085
9.450,-0.094
9.455,-0.093
9.460,-0.092
9.465,-0.092
9.470,-0.097
9.475,-0.110
9.480,-0.111
9.485,-0.097
9.490,-0.074
9.495,-0.051
9.500,-0.041
9.505,-0.038
9.510,-0.030
9.515,-0.015
9.520,0.002
9.525,0.013
9.530,0.029
9.535,0.039
9.540,0.030
9.545,0.021
9.550,0.022
9.555,0.024
9.560,0.022
9.565,0.017
9.570,0.017
9.575,0.019
9.580,0.014
9.585,0.012
9.590,0.011
9.595,0.007
9.600,0.026
9.605,0.069
9.610,0.083
9.615,0.032
9.620,-0.060
9.625,-0.210
9.630,-0.469
9.635,-0.788
9.640,-0.977
9.645,-0.944
9.650,-0.767
9.655,-0.545
9.660,-0.370
9.665,-0.214
9.670,-0.060
9.675,0.021
9.680,0.079
9.685,0.148
9.690,0.205
9.695,0.252
9.700,0.271
9.705,0.264
9.710,0.260
9.715,0.263
9.720,0.259
9.725,0.247
9.730,0.238
9.735,0.230
9.740,0.218
9.745,0.212
9.750,0.211
9.755,0.202
9.760,0.188
9.765,0.177
9.770,0.167
9.775,0.156
9.780,0.145
9.785,0.136
9.790,0.126
9.795,0.115
9.800,0.105
9.805,0.092
9.810,0.075
9.815,0.060
9.820,0.050
9.825,0.039
9.830,0.025
9.835,0.010
9.840,-0.005
9.845,-0.021
9.850,-0.037
9.855,-0.057
9.860,-0.080
9.865,-0.097
9.870,-0.108
9.875,-0.119
9.880,-0.133
9.885,-0.146
9.890,-0.154
9.895,-0.157
9.900,-0.149
9.905,-0.128
9.910,-0.100
9.915,-0.067
9.920,-0.033
9.925,0.004
9.930,0.044
9.935,0.078
9.940,0.103
9.945,0.127
9.950,0.145
9.955,0.152
9.960,0.155
9.965,0.158
9.970,0.161
9.975,0.161
9.980,0.159
9.985,0.156
9.990,0.149
9.995,0.140
10.000,0.135
10.005,0.128
10.010,0.113
10.015,0.098
10.020,0.093
10.025,0.092
10.030,0.087
10.035,0.081
10.040,0.075
10.045,0.073
10.050,0.072
10.055,0.067
10.060,0.060
10.065,0.055
10.070,0.056
10.075,0.051
10.080,0.045
10.085,0.047
10.090,0.042
10.095,0.033
10.100,0.024
10.105,0.017
10.110,0.013
10.115,0.012
10.120,0.012
10.125,0.010
10.130,0.005
10.135,0.000
10.140,-0.003
10.145,-0.005
10.150,-0.005
10.155,-0.006
10.160,-0.011
10.165,-0.014
10.170,-0.014
10.175,-0.016
10.180,-0.020
10.185,-0.021
10.190,-0.022
10.195,-0.029
10.200,-0.031
10.205,-0.026
10.210,-0.027
10.215,-0.030
10.220,-0.030
10.225,-0.033
10.230,-0.031
10.235,-0.027
10.240,-0.030
10.245,-0.035
10.250,-0.038
10.255,-0.043
10.260,-0.044
10.265,-0.042
10.270,-0.041
10.275,-0.037
10.280,-0.038
10.285,-0.041
10.290,-0.041
10.295,-0.040
10.300,-0.039
10.305,-0.041
10.310,-0.053
10.315,-0.067
10.320,-0.074
10.325,-0.086
10.330,-0.099
10.335,-0.100
10.340,-0.101
10.345,-0.104
10.350,-0.112
10.355,-0.115
10.360,-0.103
10.365,-0.077
10.370,-0.049
10.375,-0.042
10.380,-0.048
10.385,-0.040
10.390,-0.020
10.395,0.004
10.400,0.023
10.405,0.032
10.410,0.030
10.415,0.019
10.420,0.013
10.425,0.013
10.430,0.016
10.435,0.015
10.440,0.015
10.445,0.015
10.450,0.016
10.455,0.015
10.460,0.010
10.465,0.007
10.470,0.008
10.475,0.024
10.480,0.064
10.485,0.082
10.490,0.039
10.495,-0.045
10.500,-0.182
10.505,-0.422
10.510,-0.720
10.515,-0.893
10.520,-0.877
10.525,-0.755
10.530,-0.575
10.535,-0.392
10.540,-0.204
10.545,-0.045
10.550,0.031
10.555,0.089
10.560,0.153
10.565,0.197
10.570,0.224
10.575,0.235
10.580,0.232
10.585,0.229
10.590,0.233
10.595,0.233
10.600,0.225
10.605,0.219
10.610,0.211
10.615,0.198
10.620,0.187
10.625,0.179
10.630,0.168
10.635,0.159
10.640,0.151
10.645,0.140
10.650,0.128
10.655,0.120
10.660,0.110
10.665,0.099
10.670,0.088
10.675,0.076
10.680,0.065
10.685,0.057
10.690,0.048
10.695,0.037
10.700,0.019
10.705,0.003
10.710,-0.013
10.715,-0.035
10.720,-0.049
10.725,-0.067
10.730,-0.089
10.735,-0.102
10.740,-0.113
10.745,-0.127
10.750,-0.137
10.755,-0.147
10.760,-0.156
10.765,-0.156
10.770,-0.153
10.775,-0.145
10.780,-0.120
10.785,-0.086
10.790,-0.048
10.795,-0.010
10.800,0.032
10.805,0.072
10.810,0.098
10.815,0.120
10.820,0.147
10.825,0.169
10.830,0.181
10.835,0.183
10.840,0.180
10.845,0.180
10.850,0.178
10.855,0.175
10.860,0.166
10.865,0.153
10.870,0.142
10.875,0.136
10.880,0.134
10.885,0.131
10.890,0.123
10.895,0.115
10.900,0.111
10.905,0.107
10.910,0.097
10.915,0.088
10.920,0.084
10.925,0.077
10.930,0.070
10.935,0.067
10.940,0.060
10.945,0.051
10.950,0.048
10.955,0.042
10.960,0.036
10.965,0.031
10.970,0.027
10.975,0.024
10.980,0.018
10.985,0.012
10.990,0.009
10.995,0.006
11.000,0.005
11.005,0.004
11.010,0.001
11.015,0.001
11.020,-0.001
11.025,-0.004
11.030,-0.008
11.035,-0.011
11.040,-0.012
11.045,-0.013
11.050,-0.015
11.055,-0.016
11.060,-0.019
11.065,-0.022
11.070,-0.021
11.075,-0.020
11.080,-0.024
11.085,-0.026
11.090,-0.026
11.095,-0.029
11.100,-0.029
11.105,-0.026
11.110,-0.030
11.115,-0.031
11.120,-0.028
11.125,-0.028
11.130,-0.032
11.135,-0.037
11.140,-0.039
11.145,-0.040
11.150,-0.040
11.155,-0.039
11.160,-0.036
11.165,-0.037
11.170,-0.048
11.175,-0.068
11.180,-0.084
11.185,-0.091
11.190,-0.090
11.195,-0.088
11.200,-0.089
11.205,-0.095
11.210,-0.105
11.215,-0.107
11.220,-0.092
11.225,-0.068
11.230,-0.048
11.235,-0.041
11.240,-0.042
11.245,-0.035
11.250,-0.018
11.255,-0.001
11.260,0.015
11.265,0.030
11.270,0.032
11.275,0.023
11.280,0.014
11.285,0.015
11.290,0.019
11.295,0.014
11.300,0.011
11.305,0.012
11.310,0.010
11.315,0.008
11.320,0.010
11.325,0.007
11.330,0.005
11.335,0.030
11.340,0.077
11.345,0.086
11.350,0.025
11.355,-0.075
11.360,-0.235
11.365,-0.506
11.370,-0.817
11.375,-0.979
11.380,-0.930
11.385,-0.759
11.390,-0.553
11.395,-0.377
11.400,-0.198
11.405,-0.044
11.410,0.032
11.415,0.100
11.420,0.170
11.425,0.219
11.430,0.255
11.435,0.266
11.440,0.260
11.445,0.258
11.450,0.262
11.455,0.258
11.460,0.245
11.465,0.238
11.470,0.231
11.475,0.219
11.480,0.209
11.485,0.201
11.490,0.189
11.495,0.178
11.500,0.172
11.505,0.162
11.510,0.150
11.515,0.140
11.520,0.129
11.525,0.115
11.530,0.103
11.535,0.094
11.540,0.087
11.545,0.073
11.550,0.059
11.555,0.049
11.560,0.036
11.565,0.020
11.570,0.006
11.575,-0.014
11.580,-0.034
11.585,-0.052
11.590,-0.071
11.595,-0.086
11.600,-0.101
11.605,-0.113
11.610,-0.125
11.615,-0.138
11.620,-0.146
11.625,-0.150
11.630,-0.149
11.635,-0.138
11.640,-0.116
11.645,-0.087
11.650,-0.050
11.655,-0.011
11.660,0.021
11.665,0.055
11.670,0.091
11.675,0.121
11.680,0.142
11.685,0.156
11.690,0.168
11.695,0.171
11.700,0.169
11.705,0.167
11.710,0.165
11.715,0.161
11.720,0.156
11.725,0.149
11.730,0.142
11.735,0.134
11.740,0.125
11.745,0.116
11.750,0.112
11.755,0.106
11.760,0.098
11.765,0.093
11.770,0.088
11.775,0.081
11.780,0.075
11.785,0.074
11.790,0.068
11.795,0.058
11.800,0.051
11.805,0.047
11.810,0.043
11.815,0.037
11.820,0.032
11.825,0.025
11.830,0.022
11.835,0.020
11.840,0.016
11.845,0.011
11.850,0.007
11.855,0.004
11.860,0.000
11.865,-0.001
11.870,-0.002
11.875,-0.004
11.880,-0.005
11.885,-0.008
11.890,-0.011
11.895,-0.016
11.900,-0.019
11.905,-0.017
11.910,-0.017
11.915,-0.018
11.920,-0.017
11.925,-0.020
11.930,-0.025
11.935,-0.025
11.940,-0.026
11.945,-0.029
11.950,-0.029
11.955,-0.029
11.960,-0.033
11.965,-0.035
11.970,-0.032
11.975,-0.030
11.980,-0.033
11.985,-0.035
11.990,-0.034
11.995,-0.035
12.000,-0.038
12.005,-0.038
12.010,-0.039
12.015,-0.039
12.020,-0.040
12.025,-0.039
12.030,-0.038
12.035,-0.038
12.040,-0.039
12.045,-0.048
12.050,-0.062
12.055,-0.077
12.060,-0.090
12.065,-0.096
12.070,-0.091
12.075,-0.090
12.080,-0.099
12.085,-0.106
12.090,-0.110
12.095,-0.106
12.100,-0.089
12.105,-0.065
12.110,-0.047
12.115,-0.042
12.120,-0.039
12.125,-0.029
12.130,-0.014
12.135,0.003
12.140,0.019
12.145,0.033
12.150,0.036
12.155,0.027
12.160,0.021
12.165,0.021
12.170,0.024
12.175,0.018
12.180,0.012
12.185,0.016
12.190,0.016
12.195,0.012
12.200,0.011
12.205,0.011
12.210,0.017
12.215,0.050
12.220,0.085
12.225,0.063
12.230,-0.017
12.235,-0.135
12.240,-0.343
12.245,-0.651
12.250,-0.924
12.255,-0.988
12.260,-0.854
12.265,-0.638
12.270,-0.436
12.275,-0.278
12.280,-0.120
12.285,-0.005
12.290,0.053
12.295,0.115
12.300,0.179
12.305,0.233
12.310,0.265
12.315,0.265
12.320,0.258
12.325,0.261
12.330,0.260
12.335,0.250
12.340,0.241
12.345,0.235
12.350,0.225
12.355,0.215
12.360,0.207
12.365,0.199
12.370,0.189
12.375,0.180
12.380,0.167
12.385,0.156
12.390,0.149
12.395,0.139
12.400,0.125
12.405,0.113
12.410,0.102
12.415,0.095
12.420,0.088
12.425,0.075
12.430,0.062
12.435,0.049
12.440,0.035
12.445,0.020
12.450,0.006
12.455,-0.010
12.460,-0.030
12.465,-0.049
12.470,-0.067
12.475,-0.086
12.480,-0.103
12.485,-0.119
12.490,-0.129
12.495,-0.138
12.500,-0.146
12.505,-0.153
12.510,-0.156
12.515,-0.144
12.520,-0.117
12.525,-0.083
12.530,-0.050
12.535,-0.015
12.540,0.024
12.545,0.063
12.550,0.093
12.555,0.116
12.560,0.137
12.565,0.151
12.570,0.160
12.575,0.162
12.580,0.161
12.585,0.161
12.590,0.157
12.595,0.148
12.600,0.142
12.605,0.141
12.610,0.133
12.615,0.122
12.620,0.115
12.625,0.110
12.630,0.106
12.635,0.099
12.640,0.092
12.645,0.083
12.650,0.078
12.655,0.074
12.660,0.070
12.665,0.070
12.670,0.068
12.675,0.058
12.680,0.047
12.685,0.045
12.690,0.043
12.695,0.038
12.700,0.034
12.705,0.030
12.710,0.027
12.715,0.023
12.720,0.021
12.725,0.017
12.730,0.010
12.735,0.006
12.740,0.005
12.745,0.005
12.750,0.003
12.755,-0.001
12.760,-0.006
12.765,-0.013
12.770,-0.014
12.775,-0.016
12.780,-0.017
12.785,-0.014
12.790,-0.015
12.795,-0.021
12.800,-0.025
12.805,-0.024
12.810,-0.024
12.815,-0.029
12.820,-0.029
12.825,-0.027
12.830,-0.028
12.835,-0.030
12.840,-0.034
12.845,-0.037
12.850,-0.034
12.855,-0.030
12.860,-0.031
12.865,-0.033
12.870,-0.038
12.875,-0.043
12.880,-0.040
12.885,-0.039
12.890,-0.044
12.895,-0.047
12.900,-0.049
12.905,-0.047
12.910,-0.042
12.915,-0.041
12.920,-0.037
12.925,-0.034
12.930,-0.040
12.935,-0.045
12.940,-0.048
12.945,-0.061
12.950,-0.076
12.955,-0.085
12.960,-0.091
12.965,-0.090
12.970,-0.095
12.975,-0.109
12.980,-0.117
12.985,-0.114
12.990,-0.098
12.995,-0.072
13.000,-0.050
13.005,-0.041
13.010,-0.035
13.015,-0.021
13.020,-0.001
13.025,0.014
13.030,0.026
13.035,0.036
13.040,0.031
13.045,0.020
13.050,0.016
13.055,0.020
13.060,0.022
13.065,0.018
13.070,0.018
13.075,0.020
13.080,0.017
13.085,0.016
13.090,0.013
13.095,0.006
13.100,0.011
13.105,0.047
13.110,0.090
13.115,0.080
13.120,0.014
13.125,-0.084
13.130,-0.258
13.135,-0.541
13.140,-0.819
13.145,-0.915
13.150,-0.844
13.155,-0.692
13.160,-0.502
13.165,-0.321
13.170,-0.134
13.175,-0.003
13.180,0.059
13.185,0.126
13.190,0.185
13.195,0.221
13.200,0.243
13.205,0.252
13.210,0.242
13.215,0.231
13.220,0.233
13.225,0.227
13.230,0.216
13.235,0.219
13.240,0.211
13.245,0.196
13.250,0.187
13.255,0.176
13.260,0.165
13.265,0.159
13.270,0.155
13.275,0.146
13.280,0.129
13.285,0.116
13.290,0.106
13.295,0.097
13.300,0.089
13.305,0.081
13.310,0.064
13.315,0.046
13.320,0.042
13.325,0.034
13.330,0.016
13.335,0.002
13.340,-0.017
13.345,-0.039
13.350,-0.055
13.355,-0.073
13.360,-0.092
13.365,-0.106
13.370,-0.119
13.375,-0.130
13.380,-0.143
13.385,-0.156
13.390,-0.163
13.395,-0.159
13.400,-0.150
13.405,-0.134
13.410,-0.110
13.415,-0.078
13.420,-0.036
13.425,0.007
13.430,0.044
13.435,0.077
13.440,0.108
13.445,0.133
13.450,0.154
13.455,0.169
13.460,0.174
13.465,0.174
13.470,0.177
13.475,0.178
13.480,0.173
13.485,0.168
13.490,0.164
13.495,0.155
13.500,0.144
13.505,0.139
13.510,0.136
13.515,0.133
13.520,0.123
13.525,0.108
13.530,0.101
13.535,0.098
13.540,0.091
13.545,0.086
13.550,0.081
13.555,0.075
13.560,0.071
13.565,0.062
13.570,0.054
13.575,0.049
13.580,0.038
13.585,0.032
13.590,0.030
13.595,0.028
13.600,0.030
13.605,0.030
13.610,0.023
13.615,0.017
13.620,0.017
13.625,0.012
13.630,0.004
13.635,0.000
13.640,0.001
13.645,0.003
13.650,-0.003
13.655,-0.008
13.660,-0.014
13.665,-0.020
13.670,-0.017
13.675,-0.011
13.680,-0.009
13.685,-0.012
13.690,-0.014
13.695,-0.015
13.700,-0.017
13.705,-0.017
13.710,-0.016
13.715,-0.017
13.720,-0.018
13.725,-0.024
13.730,-0.033
13.735,-0.034
13.740,-0.029
13.745,-0.026
13.750,-0.024
13.755,-0.031
13.760,-0.037
13.765,-0.032
13.770,-0.026
13.775,-0.029
13.780,-0.041
13.785,-0.056
13.790,-0.074
13.795,-0.092
13.800,-0.094
13.805,-0.088
13.810,-0.090
13.815,-0.092
13.820,-0.094
13.825,-0.097
13.830,-0.094
13.835,-0.076
13.840,-0.050
13.845,-0.041
13.850,-0.041
13.855,-0.036
13.860,-0.018
13.865,0.001
13.870,0.012
13.875,0.025
13.880,0.027
13.885,0.022
13.890,0.019
13.895,0.009
13.900,0.003
13.905,0.005
13.910,0.008
13.915,0.012
13.920,0.010
13.925,0.000
13.930,0.000
13.935,0.004
13.940,0.008
13.945,0.040
13.950,0.080
13.955,0.067
13.960,-0.011
13.965,-0.138
13.970,-0.340
13.975,-0.632
13.980,-0.900
13.985,-0.971
13.990,-0.861
13.995,-0.681
14.000,-0.483
14.005,-0.289
14.010,-0.101
14.015,0.017
14.020,0.076
14.025,0.138
14.030,0.192
14.035,0.225
14.040,0.237
14.045,0.242
14.050,0.245
14.055,0.241
14.060,0.237
14.065,0.230
14.070,0.225
14.075,0.223
14.080,0.215
14.085,0.198
14.090,0.184
14.095,0.173
14.100,0.163
14.105,0.155
14.110,0.150
14.115,0.141
14.120,0.133
14.125,0.123
14.130,0.105
14.135,0.092
14.140,0.084
14.145,0.079
14.150,0.071
14.155,0.056
14.160,0.042
14.165,0.028
14.170,0.010
14.175,-0.015
14.180,-0.030
14.185,-0.037
14.190,-0.050
14.195,-0.071
14.200,-0.096
14.205,-0.113
14.210,-0.130
14.215,-0.148
14.220,-0.157
14.225,-0.165
14.230,-0.172
14.235,-0.171
14.240,-0.157
14.245,-0.132
14.250,-0.099
14.255,-0.056
14.260,-0.015
14.265,0.021
14.270,0.062
14.275,0.094
14.280,0.120
14.285,0.148
14.290,0.168
14.295,0.181
14.300,0.184
14.305,0.188
14.310,0.189
14.315,0.178
14.320,0.172
14.325,0.166
14.330,0.158
14.335,0.153
14.340,0.148
14.345,0.146
14.350,0.138
14.355,0.125
14.360,0.115
14.365,0.106
14.370,0.106
14.375,0.109
14.380,0.104
14.385,0.097
14.390,0.087
14.395,0.077
14.400,0.069
14.405,0.062
14.410,0.052
14.415,0.050
14.420,0.051
14.425,0.042
14.430,0.032
14.435,0.024
14.440,0.022
14.445,0.018
14.450,0.004
14.455,-0.005
14.460,0.000
14.465,0.011
14.470,0.016
14.475,0.004
14.480,-0.011
14.485,-0.012
14.490,-0.005
14.495,-0.005
14.500,-0.016
14.505,-0.025
14.510,-0.028
14.515,-0.026
14.520,-0.021
14.525,-0.020
14.530,-0.014
14.535,-0.010
14.540,-0.016
14.545,-0.020
14.550,-0.021
14.555,-0.025
14.560,-0.028
14.565,-0.036
14.570,-0.032
14.575,-0.020
14.580,-0.023
14.585,-0.032
14.590,-0.040
14.595,-0.052
14.600,-0.065
14.605,-0.080
14.610,-0.093
14.615,-0.092
14.620,-0.082
14.625,-0.081
14.630,-0.090
14.635,-0.101
14.640,-0.103
14.645,-0.084
14.650,-0.057
14.655,-0.045
14.660,-0.047
14.665,-0.043
14.670,-0.024
14.675,-0.005
14.680,0.008
14.685,0.020
14.690,0.024
14.695,0.016
14.700,0.010
14.705,0.008
14.710,0.008
14.715,0.008
14.720,0.004
14.725,0.004
14.730,0.007
14.735,0.006
14.740,0.002
14.745,-0.004
14.750,-0.004
14.755,0.024
14.760,0.074
14.765,0.088
14.770,0.030
14.775,-0.075
14.780,-0.227
14.785,-0.479
14.790,-0.792
14.795,-0.995
14.800,-0.984
14.805,-0.823
14.810,-0.610
14.815,-0.413
14.820,-0.220
14.825,-0.048
14.830,0.044
14.835,0.106
14.840,0.169
14.845,0.213
14.850,0.241
14.855,0.254
14.860,0.257
14.865,0.259
14.870,0.257
14.875,0.246
14.880,0.227
14.885,0.220
14.890,0.225
14.895,0.222
14.900,0.211
14.905,0.197
14.910,0.180
14.915,0.161
14.920,0.152
14.925,0.147
14.930,0.140
14.935,0.134
14.940,0.123
14.945,0.106
14.950,0.099
14.955,0.095
14.960,0.084
14.965,0.069
14.970,0.057
14.975,0.043
14.980,0.027
14.985,0.011
14.990,-0.007
14.995,-0.025
15.000,-0.044
15.005,-0.063
15.010,-0.082
15.015,-0.100
15.020,-0.112
15.025,-0.125
15.030,-0.137
15.035,-0.147
15.040,-0.158
15.045,-0.164
15.050,-0.160
15.055,-0.146
15.060,-0.121
15.065,-0.087
15.070,-0.047
15.075,-0.012
15.080,0.020
15.085,0.057
15.090,0.094
15.095,0.123
15.100,0.141
15.105,0.154
15.110,0.164
15.115,0.169
15.120,0.173
15.125,0.170
15.130,0.164
15.135,0.162
15.140,0.161
15.145,0.155
15.150,0.144
15.155,0.135
15.160,0.127
15.165,0.122
15.170,0.118
15.175,0.106
15.180,0.095
15.185,0.093
15.190,0.092
15.195,0.088
15.200,0.078
15.205,0.070
15.210,0.066
15.215,0.062
15.220,0.058
15.225,0.053
15.230,0.045
15.235,0.035
15.240,0.028
15.245,0.025
15.250,0.021
15.255,0.017
15.260,0.011
15.265,0.005
15.270,0.006
15.275,0.004
15.280,-0.001
15.285,0.000
15.290,-0.002
15.295,-0.005
15.300,-0.005
15.305,-0.007
15.310,-0.009
15.315,-0.012
15.320,-0.014
15.325,-0.015
15.330,-0.018
15.335,-0.020
15.340,-0.018
15.345,-0.020
15.350,-0.026
15.355,-0.026
15.360,-0.026
15.365,-0.027
15.370,-0.027
15.375,-0.030
15.380,-0.030
15.385,-0.031
15.390,-0.033
15.395,-0.034
15.400,-0.033
15.405,-0.031
15.410,-0.033
15.415,-0.037
15.420,-0.034
15.425,-0.036
15.430,-0.050
15.435,-0.067
15.440,-0.081
15.445,-0.093
15.450,-0.092
15.455,-0.083
15.460,-0.085
15.465,-0.095
15.470,-0.105
15.475,-0.109
15.480,-0.095
15.485,-0.071
15.490,-0.049
15.495,-0.039
15.500,-0.041
15.505,-0.037
15.510,-0.022
15.515,-0.004
15.520,0.018
15.525,0.030
15.530,0.024
15.535,0.018
15.540,0.017
15.545,0.019
15.550,0.019
15.555,0.015
15.560,0.014
15.565,0.013
15.570,0.011
15.575,0.010
15.580,0.009
15.585,0.006
15.590,0.007
15.595,0.029
15.600,0.071
15.605,0.075
15.610,0.010
15.615,-0.089
15.620,-0.261
15.625,-0.554
15.630,-0.877
15.635,-1.037
15.640,-0.974
15.645,-0.788
15.650,-0.578
15.655,-0.402
15.660,-0.218
15.665,-0.057
15.670,0.027
15.675,0.103
15.680,0.178
15.685,0.235
15.690,0.278
15.695,0.285
15.700,0.274
15.705,0.277
15.710,0.279
15.715,0.269
15.720,0.261
15.725,0.255
15.730,0.246
15.735,0.236
15.740,0.225
15.745,0.211
15.750,0.199
15.755,0.189
15.760,0.179
15.765,0.168
15.770,0.158
15.775,0.150
15.780,0.136
15.785,0.124
15.790,0.116
15.795,0.104
15.800,0.090
15.805,0.079
15.810,0.068
15.815,0.055
15.820,0.040
15.825,0.025
15.830,0.009
15.835,-0.008
15.840,-0.024
15.845,-0.046
15.850,-0.067
15.855,-0.082
15.860,-0.099
15.865,-0.114
15.870,-0.126
15.875,-0.138
15.880,-0.149
15.885,-0.153
15.890,-0.153
15.895,-0.147
15.900,-0.128
15.905,-0.098
15.910,-0.059
15.915,-0.018
15.920,0.020
15.925,0.053
15.930,0.084
15.935,0.111
15.940,0.131
15.945,0.144
15.950,0.150
15.955,0.158
15.960,0.164
15.965,0.160
15.970,0.157
15.975,0.155
15.980,0.145
15.985,0.136
15.990,0.131
15.995,0.124
16.000,0.116
16.005,0.109
16.010,0.101
16.015,0.095
16.020,0.090
16.025,0.084
16.030,0.077
16.035,0.073
16.040,0.072
16.045,0.067
16.050,0.060
16.055,0.055
16.060,0.048
16.065,0.043
16.070,0.038
16.075,0.034
16.080,0.032
16.085,0.028
16.090,0.025
16.095,0.020
16.100,0.018
16.105,0.017
16.110,0.012
16.115,0.008
16.120,0.006
16.125,0.003
16.130,0.003
16.135,0.001
16.140,-0.005
16.145,-0.008
16.150,-0.011
16.155,-0.010
16.160,-0.010
16.165,-0.014
16.170,-0.017
16.175,-0.018
16.180,-0.021
16.185,-0.023
16.190,-0.023
16.195,-0.027
16.200,-0.028
16.205,-0.025
16.210,-0.028
16.215,-0.032
16.220,-0.034
16.225,-0.035
16.230,-0.033
16.235,-0.033
16.240,-0.034
16.245,-0.035
16.250,-0.038
16.255,-0.038
16.260,-0.035
16.265,-0.036
16.270,-0.035
16.275,-0.036
16.280,-0.039
16.285,-0.037
16.290,-0.036
16.295,-0.042
16.300,-0.054
16.305,-0.065
16.310,-0.079
16.315,-0.091
16.320,-0.092
16.325,-0.090
16.330,-0.092
16.335,-0.099
16.340,-0.105
16.345,-0.107
16.350,-0.098
16.355,-0.076
16.360,-0.054
16.365,-0.040
16.370,-0.033
16.375,-0.028
16.380,-0.019
16.385,-0.005
16.390,0.009
16.395,0.029
16.400,0.038
16.405,0.031
16.410,0.023
16.415,0.020
16.420,0.022
16.425,0.022
16.430,0.017
16.435,0.016
16.440,0.018
16.445,0.015
16.450,0.011
16.455,0.012
16.460,0.011
16.465,0.027
16.470,0.070
16.475,0.085
16.480,0.034
16.485,-0.057
16.490,-0.201
16.495,-0.453
16.500,-0.775
16.505,-0.981
16.510,-0.967
16.515,-0.799
16.520,-0.575
16.525,-0.392
16.530,-0.229
16.535,-0.071
16.540,0.018
16.545,0.082
16.550,0.153
16.555,0.211
16.560,0.257
16.565,0.276
16.570,0.270
16.575,0.267
16.580,0.268
16.585,0.264
16.590,0.255
16.595,0.247
16.600,0.239
16.605,0.228
16.610,0.217
16.615,0.206
16.620,0.196
16.625,0.188
16.630,0.178
16.635,0.166
16.640,0.156
16.645,0.147
16.650,0.137
16.655,0.126
16.660,0.116
16.665,0.104
16.670,0.093
16.675,0.084
16.680,0.073
16.685,0.057
16.690,0.041
16.695,0.026
16.700,0.008
16.705,-0.007
16.710,-0.022
16.715,-0.038
16.720,-0.053
16.725,-0.069
16.730,-0.087
16.735,-0.107
16.740,-0.121
16.745,-0.132
16.750,-0.139
16.755,-0.148
16.760,-0.156
16.765,-0.149
16.770,-0.129
16.775,-0.107
16.780,-0.075
16.785,-0.039
16.790,0.000
16.795,0.036
16.800,0.066
16.805,0.097
16.810,0.121
16.815,0.137
16.820,0.151
16.825,0.159
16.830,0.163
16.835,0.164
16.840,0.162
16.845,0.159
16.850,0.154
16.855,0.149
16.860,0.139
16.865,0.125
16.870,0.115
16.875,0.108
16.880,0.102
16.885,0.096
16.890,0.090
16.895,0.086
16.900,0.082
16.905,0.079
16.910,0.070
16.915,0.062
16.920,0.060
16.925,0.058
16.930,0.056
16.935,0.053
16.940,0.046
16.945,0.042
16.950,0.040
16.955,0.037
16.960,0.032
16.965,0.023
16.970,0.018
16.975,0.014
16.980,0.010
16.985,0.010
16.990,0.013
16.995,0.009
17.000,-0.003
17.005,-0.010
17.010,-0.011
17.015,-0.008
17.020,-0.005
17.025,-0.005
17.030,-0.009
17.035,-0.016
17.040,-0.018
17.045,-0.020
17.050,-0.021
17.055,-0.018
17.060,-0.022
17.065,-0.027
17.070,-0.025
17.075,-0.028
17.080,-0.032
17.085,-0.030
17.090,-0.034
17.095,-0.043
17.100,-0.044
17.105,-0.036
17.110,-0.032
17.115,-0.034
17.120,-0.035
17.125,-0.034
17.130,-0.036
17.135,-0.038
17.140,-0.037
17.145,-0.037
17.150,-0.041
17.155,-0.044
17.160,-0.044
17.165,-0.043
17.170,-0.042
17.175,-0.037
17.180,-0.035
17.185,-0.040
17.190,-0.052
17.195,-0.067
17.200,-0.079
17.205,-0.091
17.210,-0.095
17.215,-0.093
17.220,-0.091
17.225,-0.096
17.230,-0.107
17.235,-0.109
17.240,-0.098
17.245,-0.078
17.250,-0.055
17.255,-0.043
17.260,-0.040
17.265,-0.036
17.270,-0.019
17.275,0.004
17.280,0.023
17.285,0.037
17.290,0.040
17.295,0.030
17.300,0.025
17.305,0.026
17.310,0.028
17.315,0.025
17.320,0.020
17.325,0.020
17.330,0.018
17.335,0.011
17.340,0.009
17.345,0.008
17.350,0.006
17.355,0.023
17.360,0.067
17.365,0.087
17.370,0.048
17.375,-0.028
17.380,-0.158
17.385,-0.398
17.390,-0.703
17.395,-0.891
17.400,-0.886
17.405,-0.765
17.410,-0.585
17.415,-0.404
17.420,-0.219
17.425,-0.055
17.430,0.021
17.435,0.081
17.440,0.156
17.445,0.206
17.450,0.238
17.455,0.254
17.460,0.252
17.465,0.243
17.470,0.241
17.475,0.236
17.480,0.228
17.485,0.226
17.490,0.217
17.495,0.196
17.500,0.185
17.505,0.183
17.510,0.176
17.515,0.168
17.520,0.162
17.525,0.152
17.530,0.140
17.535,0.128
17.540,0.118
17.545,0.104
17.550,0.092
17.555,0.088
17.560,0.080
17.565,0.065
17.570,0.051
17.575,0.039
17.580,0.023
17.585,0.010
17.590,-0.006
17.595,-0.025
17.600,-0.042
17.605,-0.062
17.610,-0.083
17.615,-0.099
17.620,-0.109
17.625,-0.114
17.630,-0.123
17.635,-0.137
17.640,-0.149
17.645,-0.157
17.650,-0.155
17.655,-0.142
17.660,-0.123
17.665,-0.094
17.670,-0.057
17.675,-0.018
17.680,0.020
17.685,0.057
17.690,0.090
17.695,0.119
17.700,0.140
17.705,0.157
17.710,0.173
17.715,0.176
17.720,0.175
17.725,0.174
17.730,0.168
17.735,0.162
17.740,0.160
17.745,0.153
17.750,0.145
17.755,0.143
17.760,0.137
17.765,0.128
17.770,0.122
17.775,0.114
17.780,0.105
17.785,0.095
17.790,0.089
17.795,0.084
17.800,0.080
17.805,0.077
17.810,0.072
17.815,0.065
17.820,0.062
17.825,0.054
17.830,0.046
17.835,0.041
17.840,0.036
17.845,0.030
17.850,0.023
17.855,0.019
17.860,0.018
17.865,0.013
17.870,0.013
17.875,0.012
17.880,0.006
17.885,0.004
17.890,0.004
17.895,0.000
17.900,-0.002
17.905,-0.004
17.910,-0.007
17.915,-0.008
17.920,-0.009
17.925,-0.010
17.930,-0.011
17.935,-0.013
17.940,-0.013
17.945,-0.014
17.950,-0.018
17.955,-0.022
17.960,-0.025
17.965,-0.027
17.970,-0.026
17.975,-0.025
17.980,-0.026
17.985,-0.027
17.990,-0.025
17.995,-0.029
18.000,-0.030
18.005,-0.025
18.010,-0.027
18.015,-0.033
18.020,-0.038
18.025,-0.038
18.030,-0.035
18.035,-0.035
18.040,-0.036
18.045,-0.036
18.050,-0.038
18.055,-0.037
18.060,-0.037
18.065,-0.046
18.070,-0.061
18.075,-0.076
18.080,-0.088
18.085,-0.091
18.090,-0.089
18.095,-0.091
18.100,-0.097
18.105,-0.102
18.110,-0.104
18.115,-0.092
18.120,-0.067
18.125,-0.047
18.130,-0.042
18.135,-0.043
18.140,-0.039
18.145,-0.019
18.150,0.004
18.155,0.018
18.160,0.028
18.165,0.024
18.170,0.016
18.175,0.013
18.180,0.013
18.185,0.014
18.190,0.016
18.195,0.014
18.200,0.011
18.205,0.011
18.210,0.006
18.215,0.004
18.220,0.005
18.225,0.006
18.230,0.026
18.235,0.072
18.240,0.084
18.245,0.026
18.250,-0.072
18.255,-0.225
18.260,-0.489
18.265,-0.797
18.270,-0.956
18.275,-0.915
18.280,-0.765
18.285,-0.567
18.290,-0.379
18.295,-0.191
18.300,-0.034
18.305,0.043
18.310,0.106
18.315,0.167
18.320,0.210
18.325,0.241
18.330,0.254
18.335,0.249
18.340,0.242
18.345,0.244
18.350,0.242
18.355,0.233
18.360,0.227
18.365,0.220
18.370,0.206
18.375,0.194
18.380,0.183
18.385,0.171
18.390,0.166
18.395,0.158
18.400,0.149
18.405,0.142
18.410,0.130
18.415,0.118
18.420,0.108
18.425,0.100
18.430,0.090
18.435,0.075
18.440,0.063
18.445,0.053
18.450,0.038
18.455,0.027
18.460,0.014
18.465,-0.006
18.470,-0.021
18.475,-0.037
18.480,-0.057
18.485,-0.076
18.490,-0.092
18.495,-0.107
18.500,-0.118
18.505,-0.127
18.510,-0.137
18.515,-0.146
18.520,-0.152
18.525,-0.150
18.530,-0.139
18.535,-0.117
18.540,-0.085
18.545,-0.047
18.550,-0.010
18.555,0.030
18.560,0.067
18.565,0.097
18.570,0.125
18.575,0.146
18.580,0.158
18.585,0.169
18.590,0.174
18.595,0.175
18.600,0.177
18.605,0.176
18.610,0.171
18.615,0.161
18.620,0.153
18.625,0.148
18.630,0.140
18.635,0.129
18.640,0.121
18.645,0.115
18.650,0.110
18.655,0.106
18.660,0.099
18.665,0.090
18.670,0.084
18.675,0.081
18.680,0.077
18.685,0.073
18.690,0.065
18.695,0.055
18.700,0.050
18.705,0.047
18.710,0.039
18.715,0.031
18.720,0.029
18.725,0.027
18.730,0.023
18.735,0.018
18.740,0.013
18.745,0.011
18.750,0.007
18.755,0.004
18.760,0.001
18.765,-0.002
18.770,0.000
18.775,0.003
18.780,-0.001
18.785,-0.005
18.790,-0.005
18.795,-0.010
18.800,-0.013
18.805,-0.014
18.810,-0.016
18.815,-0.017
18.820,-0.019
18.825,-0.019
18.830,-0.022
18.835,-0.025
18.840,-0.022
18.845,-0.023
18.850,-0.025
18.855,-0.026
18.860,-0.030
18.865,-0.034
18.870,-0.034
18.875,-0.033
18.880,-0.032
18.885,-0.031
18.890,-0.034
18.895,-0.034
18.900,-0.035
18.905,-0.037
18.910,-0.039
18.915,-0.040
18.920,-0.038
18.925,-0.036
18.930,-0.036
18.935,-0.036
18.940,-0.037
18.945,-0.039
18.950,-0.041
18.955,-0.044
18.960,-0.056
18.965,-0.071
18.970,-0.084
18.975,-0.093
18.980,-0.094
18.985,-0.094
18.990,-0.096
18.995,-0.101
19.000,-0.108
19.005,-0.106
19.010,-0.090
19.015,-0.066
19.020,-0.046
19.025,-0.037
19.030,-0.036
19.035,-0.029
19.040,-0.014
19.045,-0.002
19.050,0.013
19.055,0.031
19.060,0.033
19.065,0.023
19.070,0.019
19.075,0.021
19.080,0.020
19.085,0.017
19.090,0.015
19.095,0.015
19.100,0.011
19.105,0.008
19.110,0.010
19.115,0.011
19.120,0.016
19.125,0.044
19.130,0.085
19.135,0.073
19.140,0.001
19.145,-0.106
19.150,-0.294
19.155,-0.592
19.160,-0.890
19.165,-1.005
19.170,-0.907
19.175,-0.705
19.180,-0.498
19.185,-0.328
19.190,-0.158
19.195,-0.027
19.200,0.042
19.205,0.116
19.210,0.185
19.215,0.235
19.220,0.268
19.225,0.274
19.230,0.267
19.235,0.269
19.240,0.269
19.245,0.261
19.250,0.251
19.255,0.247
19.260,0.237
19.265,0.221
19.270,0.212
19.275,0.206
19.280,0.192
19.285,0.179
19.290,0.173
19.295,0.162
19.300,0.150
19.305,0.142
19.310,0.130
19.315,0.116
19.320,0.108
19.325,0.100
19.330,0.089
19.335,0.077
19.340,0.062
19.345,0.048
19.350,0.036
19.355,0.022
19.360,0.006
19.365,-0.010
19.370,-0.027
19.375,-0.046
19.380,-0.066
19.385,-0.082
19.390,-0.094
19.395,-0.107
19.400,-0.122
19.405,-0.130
19.410,-0.140
19.415,-0.148
19.420,-0.147
19.425,-0.141
19.430,-0.124
19.435,-0.097
19.440,-0.064
19.445,-0.026
19.450,0.011
19.455,0.048
19.460,0.082
19.465,0.106
19.470,0.124
19.475,0.142
19.480,0.152
19.485,0.159
19.490,0.163
19.495,0.159
19.500,0.156
19.505,0.154
19.510,0.149
19.515,0.138
19.520,0.129
19.525,0.123
19.530,0.115
19.535,0.108
19.540,0.103
19.545,0.097
19.550,0.090
19.555,0.083
19.560,0.079
19.565,0.074
19.570,0.069
19.575,0.065
19.580,0.060
19.585,0.053
19.590,0.050
19.595,0.044
19.600,0.038
19.605,0.035
19.610,0.030
19.615,0.027
19.620,0.026
19.625,0.021
19.630,0.015
19.635,0.011
19.640,0.010
19.645,0.008
19.650,0.007
19.655,0.005
19.660,0.002
19.665,-0.003
19.670,-0.007
19.675,-0.008
19.680,-0.009
19.685,-0.012
19.690,-0.011
19.695,-0.011
19.700,-0.014
19.705,-0.017
19.710,-0.018
19.715,-0.019
19.720,-0.021
19.725,-0.023
19.730,-0.027
19.735,-0.031
19.740,-0.030
19.745,-0.029
19.750,-0.030
19.755,-0.030
19.760,-0.031
19.765,-0.032
19.770,-0.033
19.775,-0.034
19.780,-0.036
19.785,-0.033
19.790,-0.028
19.795,-0.030
19.800,-0.032
19.805,-0.033
19.810,-0.035
19.815,-0.034
19.820,-0.038
19.825,-0.041
19.830,-0.040
19.835,-0.038
19.840,-0.033
19.845,-0.034
19.850,-0.038
19.855,-0.037
19.860,-0.034
19.865,-0.042
19.870,-0.055
19.875,-0.067
19.880,-0.080
19.885,-0.089
19.890,-0.089
19.895,-0.088
19.900,-0.093
19.905,-0.102
19.910,-0.106
19.915,-0.099
19.920,-0.076
19.925,-0.050
19.930,-0.035
19.935,-0.030
19.940,-0.027
19.945,-0.022
19.950,-0.008
19.955,0.010
19.960,0.026
19.965,0.038
19.970,0.038
19.975,0.029
19.980,0.024
19.985,0.025
19.990,0.028
19.995,0.022
20.000,0.019
20.005,0.023
20.010,0.022
20.015,0.017
20.020,0.016
20.025,0.016
20.030,0.023
20.035,0.055
20.040,0.094
20.045,0.073
20.050,-0.010
20.055,-0.117
20.060,-0.309
20.065,-0.608
20.070,-0.866
20.075,-0.933
20.080,-0.827
20.085,-0.638
20.090,-0.449
20.095,-0.285
20.100,-0.112
20.105,0.005
20.110,0.063
20.115,0.129
20.120,0.188
20.125,0.232
20.130,0.259
20.135,0.259
20.140,0.249
20.145,0.251
20.150,0.255
20.155,0.247
20.160,0.235
20.165,0.230
20.170,0.219
20.175,0.204
20.180,0.197
20.185,0.189
20.190,0.179
20.195,0.172
20.200,0.161
20.205,0.149
20.210,0.140
20.215,0.128
20.220,0.116
20.225,0.109
20.230,0.099
20.235,0.088
20.240,0.078
20.245,0.064
20.250,0.048
20.255,0.036
20.260,0.023
20.265,0.004
20.270,-0.016
20.275,-0.030
20.280,-0.042
20.285,-0.058
20.290,-0.075
20.295,-0.091
20.300,-0.108
20.305,-0.121
20.310,-0.132
20.315,-0.143
20.320,-0.151
20.325,-0.155
20.330,-0.153
20.335,-0.139
20.340,-0.116
20.345,-0.088
20.350,-0.056
20.355,-0.018
20.360,0.021
20.365,0.061
20.370,0.097
20.375,0.121
20.380,0.138
20.385,0.150
20.390,0.162
20.395,0.171
20.400,0.166
20.405,0.162
20.410,0.163
20.415,0.157
20.420,0.152
20.425,0.147
20.430,0.135
20.435,0.129
20.440,0.123
20.445,0.114
20.450,0.105
20.455,0.098
20.460,0.093
20.465,0.090
20.470,0.086
20.475,0.081
20.480,0.073
20.485,0.065
20.490,0.061
20.495,0.054
20.500,0.048
20.505,0.046
20.510,0.038
20.515,0.031
20.520,0.029
20.525,0.029
20.530,0.024
20.535,0.017
20.540,0.013
20.545,0.012
20.550,0.009
20.555,0.006
20.560,0.005
20.565,0.003
20.570,0.002
20.575,-0.001
20.580,-0.005
20.585,-0.007
20.590,-0.009
20.595,-0.011
20.600,-0.013
20.605,-0.016
20.610,-0.020
20.615,-0.022
20.620,-0.020
20.625,-0.019
20.630,-0.023
20.635,-0.027
20.640,-0.026
20.645,-0.029
20.650,-0.029
20.655,-0.026
20.660,-0.026
20.665,-0.028
20.670,-0.029
20.675,-0.030
20.680,-0.033
20.685,-0.038
20.690,-0.041
20.695,-0.044
20.700,-0.041
20.705,-0.031
20.710,-0.025
20.715,-0.028
20.720,-0.033
20.725,-0.034
20.730,-0.045
20.735,-0.066
20.740,-0.081
20.745,-0.087
20.750,-0.089
20.755,-0.088
20.760,-0.092
20.765,-0.104
20.770,-0.115
20.775,-0.114
20.780,-0.101
20.785,-0.075
20.790,-0.047
20.795,-0.038
20.800,-0.042
20.805,-0.040
20.810,-0.025
20.815,0.001
20.820,0.020
20.825,0.024
20.830,0.021
20.835,0.017
20.840,0.016
20.845,0.018
20.850,0.020
20.855,0.019
20.860,0.014
20.865,0.010
20.870,0.011
20.875,0.009
20.880,0.008
20.885,0.009
20.890,0.009
20.895,0.025
20.900,0.064
20.905,0.084
20.910,0.043
20.915,-0.040
20.920,-0.166
20.925,-0.396
20.930,-0.702
20.935,-0.901
20.940,-0.900
20.945,-0.779
20.950,-0.597
20.955,-0.408
20.960,-0.217
20.965,-0.054
20.970,0.028
20.975,0.092
20.980,0.162
20.985,0.204
20.990,0.226
20.995,0.237
21.000,0.236
21.005,0.237
21.010,0.243
21.015,0.238
21.020,0.222
21.025,0.213
21.030,0.208
21.035,0.196
21.040,0.187
21.045,0.183
21.050,0.172
21.055,0.159
21.060,0.152
21.065,0.145
21.070,0.135
21.075,0.122
21.080,0.109
21.085,0.099
21.090,0.090
21.095,0.080
21.100,0.070
21.105,0.063
21.110,0.051
21.115,0.035
21.120,0.022
21.125,0.008
21.130,-0.009
21.135,-0.027
21.140,-0.045
21.145,-0.062
21.150,-0.081
21.155,-0.097
21.160,-0.111
21.165,-0.126
21.170,-0.135
21.175,-0.142
21.180,-0.150
21.185,-0.154
21.190,-0.151
21.195,-0.143
21.200,-0.125
21.205,-0.092
21.210,-0.051
21.215,-0.009
21.220,0.030
21.225,0.067
21.230,0.098
21.235,0.122
21.240,0.147
21.245,0.168
21.250,0.178
21.255,0.184
21.260,0.183
21.265,0.180
21.270,0.178
21.275,0.173
21.280,0.168
21.285,0.160
21.290,0.150
21.295,0.143
21.300,0.135
21.305,0.129
21.310,0.123
21.315,0.113
21.320,0.108
21.325,0.104
21.330,0.095
21.335,0.091
21.340,0.087
21.345,0.077
21.350,0.070
21.355,0.065
21.360,0.061
21.365,0.054
21.370,0.047
21.375,0.042
21.380,0.037
21.385,0.029
21.390,0.023
21.395,0.020
21.400,0.016
21.405,0.012
21.410,0.009
21.415,0.005
21.420,0.002
21.425,0.001
21.430,0.000
21.435,-0.001
21.440,-0.001
21.445,-0.003
21.450,-0.009
21.455,-0.012
21.460,-0.013
21.465,-0.014
21.470,-0.015
21.475,-0.015
21.480,-0.015
21.485,-0.015
21.490,-0.016
21.495,-0.020
21.500,-0.023
21.505,-0.024
21.510,-0.027
21.515,-0.027
21.520,-0.025
21.525,-0.024
21.530,-0.030
21.535,-0.035
21.540,-0.032
21.545,-0.031
21.550,-0.033
21.555,-0.032
21.560,-0.031
21.565,-0.030
21.570,-0.032
21.575,-0.039
21.580,-0.055
21.585,-0.076
21.590,-0.088
21.595,-0.089
21.600,-0.088
21.605,-0.087
21.610,-0.094
21.615,-0.105
21.620,-0.108
21.625,-0.103
21.630,-0.087
21.635,-0.062
21.640,-0.044
21.645,-0.038
21.650,-0.036
21.655,-0.027
21.660,-0.010
21.665,0.005
21.670,0.021
21.675,0.032
21.680,0.025
21.685,0.015
21.690,0.010
21.695,0.013
21.700,0.016
21.705,0.015
21.710,0.013
21.715,0.009
21.720,0.008
21.725,0.007
21.730,0.004
21.735,0.000
21.740,0.009
21.745,0.049
21.750,0.088
21.755,0.064
21.760,-0.016
21.765,-0.132
21.770,-0.343
21.775,-0.654
21.780,-0.925
21.785,-0.997
21.790,-0.878
21.795,-0.674
21.800,-0.479
21.805,-0.303
21.810,-0.127
21.815,-0.012
21.820,0.056
21.825,0.129
21.830,0.189
21.835,0.236
21.840,0.264
21.845,0.266
21.850,0.258
21.855,0.261
21.860,0.263
21.865,0.250
21.870,0.239
21.875,0.237
21.880,0.229
21.885,0.219
21.890,0.210
21.895,0.196
21.900,0.184
21.905,0.177
21.910,0.165
21.915,0.153
21.920,0.143
21.925,0.134
21.930,0.124
21.935,0.112
21.940,0.099
21.945,0.087
21.950,0.077
21.955,0.068
21.960,0.057
21.965,0.042
21.970,0.029
21.975,0.016
21.980,-0.005
21.985,-0.028
21.990,-0.042
21.995,-0.058
22.000,-0.076
22.005,-0.092
22.010,-0.109
22.015,-0.120
22.020,-0.129
22.025,-0.140
22.030,-0.149
22.035,-0.152
22.040,-0.146
22.045,-0.134
22.050,-0.114
22.055,-0.078
22.060,-0.037
22.065,0.001
22.070,0.035
22.075,0.069
22.080,0.101
22.085,0.124
22.090,0.142
22.095,0.154
22.100,0.160
22.105,0.164
22.110,0.166
22.115,0.164
22.120,0.159
22.125,0.155
22.130,0.147
22.135,0.137
22.140,0.132
22.145,0.126
22.150,0.120
22.155,0.113
22.160,0.103
22.165,0.096
22.170,0.092
22.175,0.088
22.180,0.080
22.185,0.073
22.190,0.069
22.195,0.063
22.200,0.059
22.205,0.057
22.210,0.053
22.215,0.044
22.220,0.034
22.225,0.031
22.230,0.031
22.235,0.027
22.240,0.023
22.245,0.018
22.250,0.012
22.255,0.009
22.260,0.009
22.265,0.004
22.270,0.001
22.275,0.001
22.280,-0.004
22.285,-0.004
22.290,-0.004
22.295,-0.007
22.300,-0.011
22.305,-0.013
22.310,-0.016
22.315,-0.017
22.320,-0.018
22.325,-0.020
22.330,-0.020
22.335,-0.024
22.340,-0.026
22.345,-0.027
22.350,-0.028
22.355,-0.027
22.360,-0.025
22.365,-0.028
22.370,-0.032
22.375,-0.032
22.380,-0.034
22.385,-0.034
22.390,-0.032
22.395,-0.032
22.400,-0.033
22.405,-0.032
22.410,-0.034
22.415,-0.041
22.420,-0.054
22.425,-0.069
22.430,-0.083
22.435,-0.093
22.440,-0.093
22.445,-0.090
22.450,-0.093
22.455,-0.101
22.460,-0.112
22.465,-0.111
22.470,-0.097
22.475,-0.075
22.480,-0.054
22.485,-0.042
22.490,-0.039
22.495,-0.034
22.500,-0.019
22.505,-0.001
22.510,0.016
22.515,0.033
22.520,0.036
22.525,0.026
22.530,0.020
22.535,0.015
22.540,0.018
22.545,0.016
22.550,0.010
22.555,0.014
22.560,0.015
22.565,0.011
22.570,0.010
22.575,0.010
22.580,0.010
22.585,0.027
22.590,0.073
22.595,0.087
22.600,0.027
22.605,-0.066
22.610,-0.217
22.615,-0.486
22.620,-0.808
22.625,-0.988
22.630,-0.941
22.635,-0.754
22.640,-0.536
22.645,-0.370
22.650,-0.209
22.655,-0.053
22.660,0.022
22.665,0.081
22.670,0.149
22.675,0.206
22.680,0.255
22.685,0.272
22.690,0.265
22.695,0.266
22.700,0.264
22.705,0.255
22.710,0.251
22.715,0.247
22.720,0.235
22.725,0.222
22.730,0.207
22.735,0.194
22.740,0.185
22.745,0.172
22.750,0.159
22.755,0.150
22.760,0.142
22.765,0.139
22.770,0.130
22.775,0.119
22.780,0.108
22.785,0.097
22.790,0.088
22.795,0.077
22.800,0.060
22.805,0.050
22.810,0.040
22.815,0.025
22.820,0.008
22.825,-0.014
22.830,-0.036
22.835,-0.054
22.840,-0.073
22.845,-0.089
22.850,-0.103
22.855,-0.118
22.860,-0.131
22.865,-0.143
22.870,-0.154
22.875,-0.159
22.880,-0.158
22.885,-0.152
22.890,-0.131
22.895,-0.101
22.900,-0.066
22.905,-0.025
22.910,0.012
22.915,0.044
22.920,0.079
22.925,0.112
22.930,0.137
22.935,0.150
22.940,0.156
22.945,0.159
22.950,0.161
22.955,0.163
22.960,0.163
22.965,0.157
22.970,0.147
22.975,0.141
22.980,0.137
22.985,0.128
22.990,0.119
22.995,0.105
23.000,0.093
23.005,0.092
23.010,0.092
23.015,0.091
23.020,0.084
23.025,0.072
23.030,0.065
23.035,0.062
23.040,0.060
23.045,0.056
23.050,0.052
23.055,0.053
23.060,0.051
23.065,0.048
23.070,0.038
23.075,0.024
23.080,0.017
23.085,0.015
23.090,0.021
23.095,0.022
23.100,0.014
23.105,0.009
23.110,0.004
23.115,-0.003
23.120,-0.002
23.125,0.002
23.130,-0.001
23.135,-0.006
23.140,-0.007
23.145,-0.010
23.150,-0.013
23.155,-0.016
23.160,-0.021
23.165,-0.022
23.170,-0.023
23.175,-0.025
23.180,-0.029
23.185,-0.033
23.190,-0.028
23.195,-0.025
23.200,-0.028
23.205,-0.030
23.210,-0.030
23.215,-0.031
23.220,-0.037
23.225,-0.050
23.230,-0.067
23.235,-0.080
23.240,-0.084
23.245,-0.081
23.250,-0.080
23.255,-0.090
23.260,-0.108
23.265,-0.120
23.270,-0.114
23.275,-0.095
23.280,-0.069
23.285,-0.055
23.290,-0.050
23.295,-0.041
23.300,-0.027
23.305,-0.005
23.310,0.016
23.315,0.027
23.320,0.025
23.325,0.013
23.330,0.009
23.335,0.010
23.340,0.015
23.345,0.019
23.350,0.012
23.355,0.007
23.360,0.007
23.365,0.005
23.370,0.005
23.375,0.003
23.380,0.001
23.385,0.014
23.390,0.050
23.395,0.075
23.400,0.049
23.405,-0.021
23.410,-0.129
23.415,-0.333
23.420,-0.631
23.425,-0.862
23.430,-0.908
23.435,-0.819
23.440,-0.652
23.445,-0.464
23.450,-0.275
23.455,-0.099
23.460,0.001
23.465,0.063
23.470,0.133
23.475,0.182
23.480,0.208
23.485,0.227
23.490,0.236
23.495,0.230
23.500,0.223
23.505,0.222
23.510,0.214
23.515,0.205
23.520,0.202
23.525,0.196
23.530,0.186
23.535,0.178
23.540,0.169
23.545,0.153
23.550,0.136
23.555,0.129
23.560,0.125
23.565,0.113
23.570,0.101
23.575,0.093
23.580,0.085
23.585,0.076
23.590,0.069
23.595,0.058
23.600,0.042
23.605,0.024
23.610,0.008
23.615,-0.004
23.620,-0.018
23.625,-0.038
23.630,-0.059
23.635,-0.078
23.640,-0.096
23.645,-0.113
23.650,-0.126
23.655,-0.135
23.660,-0.144
23.665,-0.154
23.670,-0.160
23.675,-0.162
23.680,-0.161
23.685,-0.147
23.690,-0.120
23.695,-0.085
23.700,-0.044
23.705,-0.001
23.710,0.042
23.715,0.078
23.720,0.110
23.725,0.140
23.730,0.161
23.735,0.173
23.740,0.180
23.745,0.183
23.750,0.183
23.755,0.181
23.760,0.183
23.765,0.180
23.770,0.172
23.775,0.165
23.780,0.157
23.785,0.147
23.790,0.135
23.795,0.124
23.800,0.121
23.805,0.122
23.810,0.113
23.815,0.099
23.820,0.091
23.825,0.087
23.830,0.081
23.835,0.076
23.840,0.072
23.845,0.064
23.850,0.056
23.855,0.047
23.860,0.041
23.865,0.041
23.870,0.043
23.875,0.047
23.880,0.040
23.885,0.028
23.890,0.025
23.895,0.016
23.900,-0.002
23.905,-0.002
23.910,0.006
23.915,0.005
23.920,0.003
23.925,0.005
23.930,0.004
23.935,-0.002
23.940,-0.007
23.945,-0.006
23.950,-0.005
23.955,-0.006
23.960,-0.009
23.965,-0.008
23.970,-0.012
23.975,-0.017
23.980,-0.017
23.985,-0.018
23.990,-0.020
23.995,-0.021
24.000,-0.021
24.005,-0.022
24.010,-0.026
24.015,-0.029
24.020,-0.033
24.025,-0.033
24.030,-0.036
24.035,-0.051
24.040,-0.069
24.045,-0.082
24.050,-0.090
24.055,-0.088
24.060,-0.087
24.065,-0.099
24.070,-0.110
24.075,-0.111
24.080,-0.107
24.085,-0.090
24.090,-0.063
24.095,-0.048
24.100,-0.048
24.105,-0.046
24.110,-0.037
24.115,-0.018
24.120,0.005
24.125,0.016
24.130,0.018
24.135,0.015
24.140,0.010
24.145,0.009
24.150,0.004
24.155,0.001
24.160,0.002
24.165,0.004
24.170,0.002
24.175,0.000
24.180,-0.002
24.185,-0.008
24.190,-0.011
24.195,0.002
24.200,0.042
24.205,0.079
24.210,0.051
24.215,-0.036
24.220,-0.161
24.225,-0.384
24.230,-0.700
24.235,-0.943
24.240,-0.985
24.245,-0.861
24.250,-0.659
24.255,-0.456
24.260,-0.264
24.265,-0.084
24.270,0.016
24.275,0.073
24.280,0.137
24.285,0.188
24.290,0.226
24.295,0.245
24.300,0.245
24.305,0.242
24.310,0.238
24.315,0.230
24.320,0.218
24.325,0.212
24.330,0.210
24.335,0.199
24.340,0.189
24.345,0.185
24.350,0.175
24.355,0.162
24.360,0.156
24.365,0.145
24.370,0.132
24.375,0.126
24.380,0.116
24.385,0.104
24.390,0.097
24.395,0.089
24.400,0.077
24.405,0.065
24.410,0.048
24.415,0.033
24.420,0.022
24.425,0.008
24.430,-0.007
24.435,-0.025
24.440,-0.041
24.445,-0.059
24.450,-0.082
24.455,-0.103
24.460,-0.114
24.465,-0.122
24.470,-0.134
24.475,-0.144
24.480,-0.155
24.485,-0.160
24.490,-0.155
24.495,-0.142
24.500,-0.116
24.505,-0.083
24.510,-0.044
24.515,-0.001
24.520,0.040
24.525,0.081
24.530,0.117
24.535,0.139
24.540,0.155
24.545,0.168
24.550,0.177
24.555,0.184
24.560,0.187
24.565,0.184
24.570,0.180
24.575,0.176
24.580,0.167
24.585,0.158
24.590,0.154
24.595,0.146
24.600,0.136
24.605,0.128
24.610,0.120
24.615,0.116
24.620,0.110
24.625,0.104
24.630,0.101
24.635,0.094
24.640,0.089
24.645,0.084
24.650,0.076
24.655,0.070
24.660,0.065
24.665,0.058
24.670,0.054
24.675,0.050
24.680,0.043
24.685,0.037
24.690,0.033
24.695,0.027
24.700,0.020
24.705,0.018
24.710,0.015
24.715,0.011
24.720,0.007
24.725,0.004
24.730,0.001
24.735,-0.003
24.740,-0.004
24.745,-0.004
24.750,-0.006
24.755,-0.008
24.760,-0.010
24.765,-0.015
24.770,-0.017
24.775,-0.016
24.780,-0.016
24.785,-0.019
24.790,-0.019
24.795,-0.020
24.800,-0.023
24.805,-0.022
24.810,-0.021
24.815,-0.023
24.820,-0.028
24.825,-0.040
24.830,-0.057
24.835,-0.074
24.840,-0.085
24.845,-0.083
24.850,-0.080
24.855,-0.083
24.860,-0.095
24.865,-0.111
24.870,-0.112
24.875,-0.094
24.880,-0.066
24.885,-0.046
24.890,-0.039
24.895,-0.038
24.900,-0.035
24.905,-0.021
24.910,0.000
24.915,0.016
24.920,0.025
24.925,0.023
24.930,0.015
24.935,0.012
24.940,0.013
24.945,0.014
24.950,0.011
24.955,0.007
24.960,0.007
24.965,0.004
24.970,0.000
24.975,0.000
24.980,-0.003
24.985,0.005
24.990,0.043
24.995,0.078
25.000,0.053
25.005,-0.025
25.010,-0.135
25.015,-0.347
25.020,-0.670
25.025,-0.951
25.030,-1.032
25.035,-0.916
25.040,-0.702
25.045,-0.503
25.050,-0.331
25.055,-0.152
25.060,-0.030
25.065,0.039
25.070,0.117
25.075,0.185
25.080,0.232
25.085,0.259
25.090,0.259
25.095,0.256
25.100,0.258
25.105,0.251
25.110,0.244
25.115,0.241
25.120,0.233
25.125,0.220
25.130,0.207
25.135,0.198
25.140,0.189
25.145,0.178
25.150,0.169
25.155,0.161
25.160,0.149
25.165,0.136
25.170,0.124
25.175,0.115
25.180,0.107
25.185,0.096
25.190,0.083
25.195,0.070
25.200,0.059
25.205,0.049
25.210,0.037
25.215,0.020
25.220,0.001
25.225,-0.017
25.230,-0.036
25.235,-0.055
25.240,-0.073
25.245,-0.090
25.250,-0.109
25.255,-0.123
25.260,-0.134
25.265,-0.144
25.270,-0.154
25.275,-0.161
25.280,-0.165
25.285,-0.156
25.290,-0.130
25.295,-0.097
25.300,-0.059
25.305,-0.021
25.310,0.017
25.315,0.052
25.320,0.085
25.325,0.114
25.330,0.134
25.335,0.145
25.340,0.154
25.345,0.162
25.350,0.166
25.355,0.161
25.360,0.155
25.365,0.149
25.370,0.142
25.375,0.136
25.380,0.127
25.385,0.120
25.390,0.117
25.395,0.108
25.400,0.100
25.405,0.096
25.410,0.092
25.415,0.087
25.420,0.082
25.425,0.079
25.430,0.075
25.435,0.065
25.440,0.058
25.445,0.055
25.450,0.053
25.455,0.050
25.460,0.046
25.465,0.041
25.470,0.036
25.475,0.034
25.480,0.028
25.485,0.024
25.490,0.024
25.495,0.022
25.500,0.017
25.505,0.014
25.510,0.011
25.515,0.009
25.520,0.006
25.525,0.003
25.530,0.001
25.535,-0.002
25.540,-0.002
25.545,-0.005
25.550,-0.011
25.555,-0.010
25.560,-0.009
25.565,-0.012
25.570,-0.014
25.575,-0.014
25.580,-0.019
25.585,-0.022
25.590,-0.019
25.595,-0.017
25.600,-0.021
25.605,-0.032
25.610,-0.050
25.615,-0.064
25.620,-0.076
25.625,-0.085
25.630,-0.085
25.635,-0.083
25.640,-0.084
25.645,-0.092
25.650,-0.106
25.655,-0.112
25.660,-0.102
25.665,-0.076
25.670,-0.052
25.675,-0.040
25.680,-0.040
25.685,-0.036
25.690,-0.018
25.695,0.001
25.700,0.015
25.705,0.030
25.710,0.031
25.715,0.022
25.720,0.015
25.725,0.014
25.730,0.019
25.735,0.013
25.740,0.006
25.745,0.010
25.750,0.008
25.755,0.004
25.760,0.005
25.765,-0.001
25.770,-0.001
25.775,0.023
25.780,0.064
25.785,0.076
25.790,0.023
25.795,-0.070
25.800,-0.220
25.805,-0.483
25.810,-0.800
25.815,-0.979
25.820,-0.938
25.825,-0.752
25.830,-0.530
25.835,-0.365
25.840,-0.210
25.845,-0.063
25.850,0.011
25.855,0.072
25.860,0.139
25.865,0.191
25.870,0.236
25.875,0.254
25.880,0.243
25.885,0.242
25.890,0.247
25.895,0.239
25.900,0.231
25.905,0.227
25.910,0.216
25.915,0.202
25.920,0.193
25.925,0.185
25.930,0.176
25.935,0.167
25.940,0.160
25.945,0.149
25.950,0.136
25.955,0.126
25.960,0.118
25.965,0.108
25.970,0.095
25.975,0.085
25.980,0.075
25.985,0.062
25.990,0.050
25.995,0.039
26.000,0.023
26.005,0.005
26.010,-0.008
26.015,-0.023
26.020,-0.044
26.025,-0.062
26.030,-0.084
26.035,-0.103
26.040,-0.113
26.045,-0.127
26.050,-0.144
26.055,-0.154
26.060,-0.165
26.065,-0.170
26.070,-0.164
26.075,-0.148
26.080,-0.119
26.085,-0.083
26.090,-0.044
26.095,-0.001
26.100,0.034
26.105,0.063
26.110,0.095
26.115,0.121
26.120,0.139
26.125,0.154
26.130,0.162
26.135,0.164
26.140,0.164
26.145,0.162
26.150,0.158
26.155,0.153
26.160,0.144
26.165,0.136
26.170,0.129
26.175,0.125
26.180,0.119
26.185,0.112
26.190,0.110
26.195,0.104
26.200,0.092
26.205,0.082
26.210,0.078
26.215,0.073
26.220,0.070
26.225,0.068
26.230,0.064
26.235,0.060
26.240,0.056
26.245,0.048
26.250,0.044
26.255,0.040
26.260,0.036
26.265,0.035
26.270,0.031
26.275,0.028
26.280,0.024
26.285,0.016
26.290,0.016
26.295,0.015
26.300,0.005
26.305,0.001
26.310,0.002
26.315,-0.002
26.320,-0.005
26.325,-0.009
26.330,-0.016
26.335,-0.019
26.340,-0.018
26.345,-0.018
26.350,-0.018
26.355,-0.020
26.360,-0.020
26.365,-0.021
26.370,-0.027
26.375,-0.029
26.380,-0.028
26.385,-0.029
26.390,-0.031
26.395,-0.033
26.400,-0.036
26.405,-0.036
26.410,-0.034
26.415,-0.037
26.420,-0.039
26.425,-0.037
26.430,-0.035
26.435,-0.033
26.440,-0.035
26.445,-0.046
26.450,-0.065
26.455,-0.079
26.460,-0.090
26.465,-0.095
26.470,-0.095
26.475,-0.096
26.480,-0.101
26.485,-0.110
26.490,-0.113
26.495,-0.102
26.500,-0.083
26.505,-0.060
26.510,-0.043
26.515,-0.038
26.520,-0.039
26.525,-0.025
26.530,-0.002
26.535,0.012
26.540,0.024
26.545,0.027
26.550,0.021
26.555,0.018
26.560,0.019
26.565,0.023
26.570,0.020
26.575,0.014
26.580,0.017
26.585,0.020
26.590,0.014
26.595,0.008
26.600,0.008
26.605,0.008
26.610,0.006
26.615,0.018
26.620,0.057
26.625,0.081
26.630,0.042
26.635,-0.040
26.640,-0.165
26.645,-0.400
26.650,-0.712
26.655,-0.900
26.660,-0.888
26.665,-0.763
26.670,-0.577
26.675,-0.401
26.680,-0.227
26.685,-0.067
26.690,0.010
26.695,0.068
26.700,0.136
26.705,0.185
26.710,0.219
26.715,0.236
26.720,0.233
26.725,0.229
26.730,0.233
26.735,0.228
26.740,0.218
26.745,0.211
26.750,0.200
26.755,0.190
26.760,0.185
26.765,0.179
26.770,0.165
26.775,0.150
26.780,0.141
26.785,0.134
26.790,0.127
26.795,0.118
26.800,0.107
26.805,0.098
26.810,0.092
26.815,0.081
26.820,0.066
26.825,0.055
26.830,0.044
26.835,0.033
26.840,0.021
26.845,0.004
26.850,-0.013
26.855,-0.035
26.860,-0.056
26.865,-0.074
26.870,-0.095
26.875,-0.109
26.880,-0.121
26.885,-0.135
26.890,-0.150
26.895,-0.164
26.900,-0.169
26.905,-0.164
26.910,-0.155
26.915,-0.141
26.920,-0.116
26.925,-0.076
26.930,-0.028
26.935,0.012
26.940,0.049
26.945,0.086
26.950,0.113
26.955,0.134
26.960,0.152
26.965,0.164
26.970,0.176
26.975,0.186
26.980,0.185
26.985,0.176
26.990,0.169
26.995,0.170
27.000,0.169
27.005,0.162
27.010,0.149
27.015,0.137
27.020,0.130
27.025,0.127
27.030,0.125
27.035,0.118
27.040,0.113
27.045,0.105
27.050,0.094
27.055,0.090
27.060,0.087
27.065,0.081
27.070,0.073
27.075,0.068
27.080,0.065
27.085,0.056
27.090,0.049
27.095,0.045
27.100,0.039
27.105,0.035
27.110,0.034
27.115,0.028
27.120,0.021
27.125,0.018
27.130,0.014
27.135,0.009
27.140,0.010
27.145,0.007
27.150,0.003
27.155,0.000
27.160,-0.007
27.165,-0.010
27.170,-0.008
27.175,-0.010
27.180,-0.010
27.185,-0.009
27.190,-0.011
27.195,-0.012
27.200,-0.014
27.205,-0.017
27.210,-0.016
27.215,-0.015
27.220,-0.020
27.225,-0.022
27.230,-0.022
27.235,-0.026
27.240,-0.028
27.245,-0.031
27.250,-0.036
27.255,-0.036
27.260,-0.031
27.265,-0.031
27.270,-0.032
27.275,-0.029
27.280,-0.029
27.285,-0.033
27.290,-0.047
27.295,-0.067
27.300,-0.080
27.305,-0.084
27.310,-0.083
27.315,-0.084
27.320,-0.090
27.325,-0.102
27.330,-0.109
27.335,-0.103
27.340,-0.083
27.345,-0.055
27.350,-0.042
27.355,-0.043
27.360,-0.040
27.365,-0.027
27.370,-0.008
27.375,0.012
27.380,0.030
27.385,0.032
27.390,0.025
27.395,0.020
27.400,0.013
27.405,0.017
27.410,0.023
27.415,0.016
27.420,0.012
27.425,0.016
27.430,0.015
27.435,0.011
27.440,0.009
27.445,0.004
27.450,0.004
27.455,0.020
27.460,0.058
27.465,0.082
27.470,0.042
27.475,-0.042
27.480,-0.168
27.485,-0.402
27.490,-0.716
27.495,-0.934
27.500,-0.952
27.505,-0.822
27.510,-0.622
27.515,-0.430
27.520,-0.241
27.525,-0.065
27.530,0.026
27.535,0.083
27.540,0.148
27.545,0.194
27.550,0.228
27.555,0.247
27.560,0.244
27.565,0.236
27.570,0.239
27.575,0.241
27.580,0.230
27.585,0.220
27.590,0.213
27.595,0.202
27.600,0.192
27.605,0.185
27.610,0.175
27.615,0.164
27.620,0.155
27.625,0.148
27.630,0.139
27.635,0.126
27.640,0.116
27.645,0.109
27.650,0.098
27.655,0.085
27.660,0.074
27.665,0.061
27.670,0.047
27.675,0.036
27.680,0.024
27.685,0.008
27.690,-0.008
27.695,-0.028
27.700,-0.047
27.705,-0.063
27.710,-0.081
27.715,-0.100
27.720,-0.116
27.725,-0.127
27.730,-0.136
27.735,-0.148
27.740,-0.160
27.745,-0.160
27.750,-0.152
27.755,-0.137
27.760,-0.109
27.765,-0.078
27.770,-0.041
27.775,0.002
27.780,0.043
27.785,0.076
27.790,0.108
27.795,0.133
27.800,0.151
27.805,0.167
27.810,0.176
27.815,0.179
27.820,0.180
27.825,0.180
27.830,0.176
27.835,0.169
27.840,0.161
27.845,0.155
27.850,0.148
27.855,0.142
27.860,0.135
27.865,0.125
27.870,0.115
27.875,0.111
27.880,0.106
27.885,0.099
27.890,0.093
27.895,0.087
27.900,0.080
27.905,0.075
27.910,0.068
27.915,0.062
27.920,0.056
27.925,0.052
27.930,0.047
27.935,0.040
27.940,0.035
27.945,0.035
27.950,0.031
27.955,0.025
27.960,0.020
27.965,0.015
27.970,0.011
27.975,0.010
27.980,0.006
27.985,0.000
27.990,-0.001
27.995,-0.004
28.000,-0.007
28.005,-0.009
28.010,-0.011
28.015,-0.012
28.020,-0.012
28.025,-0.014
28.030,-0.014
28.035,-0.016
28.040,-0.019
28.045,-0.019
28.050,-0.019
28.055,-0.021
28.060,-0.024
28.065,-0.026
28.070,-0.028
28.075,-0.028
28.080,-0.029
28.085,-0.031
28.090,-0.031
28.095,-0.031
28.100,-0.035
28.105,-0.038
28.110,-0.036
28.115,-0.035
28.120,-0.040
28.125,-0.041
28.130,-0.040
28.135,-0.043
28.140,-0.042
28.145,-0.039
28.150,-0.040
28.155,-0.038
28.160,-0.036
28.165,-0.041
28.170,-0.047
28.175,-0.057
28.180,-0.072
28.185,-0.084
28.190,-0.096
28.195,-0.096
28.200,-0.091
28.205,-0.095
28.210,-0.101
28.215,-0.109
28.220,-0.114
28.225,-0.101
28.230,-0.077
28.235,-0.055
28.240,-0.040
28.245,-0.038
28.250,-0.035
28.255,-0.018
28.260,-0.001
28.265,0.013
28.270,0.030
28.275,0.039
28.280,0.032
28.285,0.021
28.290,0.016
28.295,0.017
28.300,0.019
28.305,0.018
28.310,0.020
28.315,0.021
28.320,0.015
28.325,0.013
28.330,0.013
28.335,0.011
28.340,0.020
28.345,0.055
28.350,0.090
28.355,0.069
28.360,-0.005
28.365,-0.117
28.370,-0.328
28.375,-0.646
28.380,-0.929
28.385,-1.016
28.390,-0.897
28.395,-0.678
28.400,-0.474
28.405,-0.311
28.410,-0.143
28.415,-0.023
28.420,0.046
28.425,0.122
28.430,0.188
28.435,0.240
28.440,0.274
28.445,0.275
28.450,0.268
28.455,0.274
28.460,0.274
28.465,0.262
28.470,0.252
28.475,0.248
28.480,0.238
28.485,0.226
28.490,0.216
28.495,0.206
28.500,0.194
28.505,0.184
28.510,0.175
28.515,0.165
28.520,0.153
28.525,0.142
28.530,0.133
28.535,0.121
28.540,0.111
28.545,0.102
28.550,0.089
28.555,0.076
28.560,0.065
28.565,0.051
28.570,0.036
28.575,0.021
28.580,0.000
28.585,-0.021
28.590,-0.036
28.595,-0.051
28.600,-0.070
28.605,-0.089
28.610,-0.104
28.615,-0.116
28.620,-0.130
28.625,-0.142
28.630,-0.151
28.635,-0.157
28.640,-0.153
28.645,-0.138
28.650,-0.114
28.655,-0.080
28.660,-0.042
28.665,-0.005
28.670,0.032
28.675,0.067
28.680,0.098
28.685,0.122
28.690,0.141
28.695,0.155
28.700,0.157
28.705,0.157
28.710,0.160
28.715,0.160
28.720,0.156
28.725,0.147
28.730,0.139
28.735,0.132
28.740,0.127
28.745,0.121
28.750,0.111
28.755,0.104
28.760,0.100
28.765,0.094
28.770,0.087
28.775,0.081
28.780,0.078
28.785,0.072
28.790,0.068
28.795,0.062
28.800,0.056
28.805,0.053
28.810,0.051
28.815,0.051
28.820,0.043
28.825,0.036
28.830,0.033
28.835,0.028
28.840,0.024
28.845,0.020
28.850,0.017
28.855,0.014
28.860,0.012
28.865,0.009
28.870,0.006
28.875,0.003
28.880,0.000
28.885,-0.005
28.890,-0.008
28.895,-0.008
28.900,-0.012
28.905,-0.016
28.910,-0.016
28.915,-0.016
28.920,-0.017
28.925,-0.020
28.930,-0.024
28.935,-0.026
28.940,-0.029
28.945,-0.029
28.950,-0.030
28.955,-0.033
28.960,-0.032
28.965,-0.031
28.970,-0.033
28.975,-0.034
28.980,-0.033
28.985,-0.034
28.990,-0.036
28.995,-0.038
29.000,-0.039
29.005,-0.035
29.010,-0.032
29.015,-0.034
29.020,-0.038
29.025,-0.040
29.030,-0.041
29.035,-0.042
29.040,-0.040
29.045,-0.036
29.050,-0.033
29.055,-0.034
29.060,-0.035
29.065,-0.039
29.070,-0.042
29.075,-0.038
29.080,-0.036
29.085,-0.035
29.090,-0.037
29.095,-0.043
29.100,-0.043
29.105,-0.044
29.110,-0.051
29.115,-0.064
29.120,-0.081
29.125,-0.089
29.130,-0.088
29.135,-0.088
29.140,-0.091
29.145,-0.097
29.150,-0.107
29.155,-0.108
29.160,-0.092
29.165,-0.070
29.170,-0.047
29.175,-0.033
29.180,-0.033
29.185,-0.026
29.190,-0.011
29.195,0.000
29.200,0.015
29.205,0.032
29.210,0.039
29.215,0.035
29.220,0.030
29.225,0.031
29.230,0.035
29.235,0.026
29.240,0.020
29.245,0.027
29.250,0.028
29.255,0.024
29.260,0.024
29.265,0.022
29.270,0.019
29.275,0.027
29.280,0.055
29.285,0.087
29.290,0.073
29.295,0.007
29.300,-0.087
29.305,-0.265
29.310,-0.560
29.315,-0.850
29.320,-0.956
29.325,-0.865
29.330,-0.677
29.335,-0.480
29.340,-0.315
29.345,-0.145
29.350,-0.020
29.355,0.041
29.360,0.110
29.365,0.177
29.370,0.222
29.375,0.255
29.380,0.262
29.385,0.249
29.390,0.251
29.395,0.257
29.400,0.251
29.405,0.243
29.410,0.234
29.415,0.226
29.420,0.214
29.425,0.202
29.430,0.192
29.435,0.178
29.440,0.172
29.445,0.169
29.450,0.155
29.455,0.143
29.460,0.135
29.465,0.122
29.470,0.109
29.475,0.100
29.480,0.090
29.485,0.080
29.490,0.070
29.495,0.056
29.500,0.042
29.505,0.029
29.510,0.016
29.515,0.001
29.520,-0.018
29.525,-0.037
29.530,-0.057
29.535,-0.077
29.540,-0.093
29.545,-0.108
29.550,-0.124
29.555,-0.137
29.560,-0.142
29.565,-0.145
29.570,-0.151
29.575,-0.154
29.580,-0.145
29.585,-0.117
29.590,-0.081
29.595,-0.040
29.600,0.000
29.605,0.033
29.610,0.063
29.615,0.091
29.620,0.119
29.625,0.144
29.630,0.159
29.635,0.164
29.640,0.172
29.645,0.177
29.650,0.172
29.655,0.166
29.660,0.160
29.665,0.152
29.670,0.142
29.675,0.138
29.680,0.136
29.685,0.125
29.690,0.111
29.695,0.100
29.700,0.096
29.705,0.098
29.710,0.097
29.715,0.092
29.720,0.087
29.725,0.080
29.730,0.072
29.735,0.067
29.740,0.062
29.745,0.058
29.750,0.051
29.755,0.042
29.760,0.041
29.765,0.039
29.770,0.035
29.775,0.032
29.780,0.027
29.785,0.020
29.790,0.014
29.795,0.009
29.800,0.004
29.805,0.001
29.810,0.001
29.815,-0.005
29.820,-0.013
29.825,-0.011
29.830,-0.007
29.835,-0.007
29.840,-0.009
29.845,-0.007
29.850,-0.006
29.855,-0.010
29.860,-0.012
29.865,-0.020
29.870,-0.029
29.875,-0.030
29.880,-0.030
29.885,-0.029
29.890,-0.029
29.895,-0.033
29.900,-0.036
29.905,-0.034
29.910,-0.029
29.915,-0.030
29.920,-0.034
29.925,-0.034
29.930,-0.034
29.935,-0.033
29.940,-0.032
29.945,-0.035
29.950,-0.039
29.955,-0.044
29.960,-0.043
29.965,-0.039
29.970,-0.039
29.975,-0.040
29.980,-0.041
29.985,-0.042
29.990,-0.038
29.995,-0.036
30.000,-0.040
30.005,-0.048
30.010,-0.062
30.015,-0.072
30.020,-0.083
30.025,-0.087
30.030,-0.089
30.035,-0.095
30.040,-0.104
30.045,-0.114
30.050,-0.114
30.055,-0.103
30.060,-0.075
30.065,-0.047
30.070,-0.040
30.075,-0.039
30.080,-0.032
30.085,-0.013
30.090,0.012
30.095,0.030
30.100,0.037
30.105,0.029
30.110,0.018
30.115,0.017
30.120,0.019
30.125,0.019
30.130,0.017
30.135,0.011
30.140,0.014
30.145,0.020
30.150,0.020
30.155,0.017
30.160,0.014
30.165,0.007
30.170,0.018
30.175,0.064
30.180,0.093
30.185,0.052
30.190,-0.031
30.195,-0.154
30.200,-0.382
30.205,-0.689
30.210,-0.903
30.215,-0.914
30.220,-0.787
30.225,-0.599
30.230,-0.406
30.235,-0.211
30.240,-0.041
30.245,0.043
30.250,0.095
30.255,0.156
30.260,0.200
30.265,0.226
30.270,0.239
30.275,0.242
30.280,0.237
30.285,0.237
30.290,0.234
30.295,0.220
30.300,0.211
30.305,0.207
30.310,0.198
30.315,0.186
30.320,0.173
30.325,0.164
30.330,0.157
30.335,0.152
30.340,0.146
30.345,0.135
30.350,0.121
30.355,0.107
30.360,0.099
30.365,0.091
30.370,0.080
30.375,0.067
30.380,0.052
30.385,0.043
30.390,0.036
30.395,0.023
30.400,0.005
30.405,-0.015
30.410,-0.033
30.415,-0.050
30.420,-0.068
30.425,-0.086
30.430,-0.102
30.435,-0.118
30.440,-0.134
30.445,-0.141
30.450,-0.150
30.455,-0.159
30.460,-0.161
30.465,-0.158
30.470,-0.145
30.475,-0.120
30.480,-0.084
30.485,-0.046
30.490,-0.006
30.495,0.034
30.500,0.069
30.505,0.103
30.510,0.135
30.515,0.158
30.520,0.169
30.525,0.179
30.530,0.184
30.535,0.182
30.540,0.182
30.545,0.181
30.550,0.175
30.555,0.167
30.560,0.159
30.565,0.152
30.570,0.148
30.575,0.141
30.580,0.133
30.585,0.125
30.590,0.117
30.595,0.113
30.600,0.111
30.605,0.103
30.610,0.097
30.615,0.090
30.620,0.082
30.625,0.078
30.630,0.068
30.635,0.058
30.640,0.054
30.645,0.049
30.650,0.046
30.655,0.040
30.660,0.034
30.665,0.028
30.670,0.020
30.675,0.018
30.680,0.017
30.685,0.011
30.690,0.004
30.695,0.003
30.700,0.003
30.705,0.001
30.710,-0.001
30.715,-0.004
30.720,-0.008
30.725,-0.011
30.730,-0.012
30.735,-0.013
30.740,-0.013
30.745,-0.013
30.750,-0.015
30.755,-0.019
30.760,-0.021
30.765,-0.022
30.770,-0.024
30.775,-0.024
30.780,-0.022
30.785,-0.020
30.790,-0.022
30.795,-0.023
30.800,-0.024
30.805,-0.027
30.810,-0.028
30.815,-0.029
30.820,-0.033
30.825,-0.032
30.830,-0.031
30.835,-0.033
30.840,-0.032
30.845,-0.035
30.850,-0.039
30.855,-0.039
30.860,-0.035
30.865,-0.032
30.870,-0.033
30.875,-0.043
30.880,-0.058
30.885,-0.075
30.890,-0.087
30.895,-0.090
30.900,-0.088
30.905,-0.089
30.910,-0.094
30.915,-0.103
30.920,-0.108
30.925,-0.098
30.930,-0.077
30.935,-0.054
30.940,-0.039
30.945,-0.033
30.950,-0.033
30.955,-0.027
30.960,-0.010
30.965,0.008
30.970,0.024
30.975,0.034
30.980,0.030
30.985,0.022
30.990,0.018
30.995,0.018
31.000,0.017
31.005,0.015
31.010,0.014
31.015,0.015
31.020,0.010
31.025,0.010
31.030,0.013
31.035,0.012
31.040,0.024
31.045,0.066
31.050,0.093
31.055,0.050
31.060,-0.039
31.065,-0.169
31.070,-0.407
31.075,-0.734
31.080,-0.981
31.085,-1.016
31.090,-0.870
31.095,-0.645
31.100,-0.448
31.105,-0.273
31.110,-0.100
31.115,0.000
31.120,0.069
31.125,0.148
31.130,0.208
31.135,0.254
31.140,0.278
31.145,0.275
31.150,0.272
31.155,0.275
31.160,0.270
31.165,0.261
31.170,0.255
31.175,0.245
31.180,0.231
31.185,0.221
31.190,0.213
31.195,0.202
31.200,0.189
31.205,0.179
31.210,0.173
31.215,0.163
31.220,0.150
31.225,0.138
31.230,0.127
31.235,0.115
31.240,0.101
31.245,0.091
31.250,0.082
31.255,0.068
31.260,0.055
31.265,0.041
31.270,0.028
31.275,0.016
31.280,-0.002
31.285,-0.028
31.290,-0.047
31.295,-0.061
31.300,-0.078
31.305,-0.098
31.310,-0.113
31.315,-0.124
31.320,-0.134
31.325,-0.143
31.330,-0.150
31.335,-0.155
31.340,-0.153
31.345,-0.136
31.350,-0.107
31.355,-0.074
31.360,-0.034
31.365,0.006
31.370,0.041
31.375,0.075
31.380,0.106
31.385,0.130
31.390,0.148
31.395,0.160
31.400,0.166
31.405,0.171
31.410,0.172
31.415,0.165
31.420,0.157
31.425,0.150
31.430,0.146
31.435,0.141
31.440,0.131
31.445,0.126
31.450,0.121
31.455,0.111
31.460,0.102
31.465,0.094
31.470,0.088
31.475,0.083
31.480,0.079
31.485,0.074
31.490,0.071
31.495,0.065
31.500,0.058
31.505,0.051
31.510,0.048
31.515,0.044
31.520,0.037
31.525,0.032
31.530,0.028
31.535,0.021
31.540,0.016
31.545,0.015
31.550,0.011
31.555,0.006
31.560,0.005
31.565,0.005
31.570,0.003
31.575,0.000
31.580,-0.006
31.585,-0.009
31.590,-0.010
31.595,-0.009
31.600,-0.008
31.605,-0.012
31.610,-0.016
31.615,-0.021
31.620,-0.024
31.625,-0.023
31.630,-0.021
31.635,-0.022
31.640,-0.025
31.645,-0.025
31.650,-0.028
31.655,-0.029
31.660,-0.028
31.665,-0.032
31.670,-0.036
31.675,-0.036
31.680,-0.032
31.685,-0.032
31.690,-0.032
31.695,-0.031
31.700,-0.033
31.705,-0.035
31.710,-0.035
31.715,-0.036
31.720,-0.037
31.725,-0.037
31.730,-0.037
31.735,-0.039
31.740,-0.040
31.745,-0.037
31.750,-0.037
31.755,-0.042
31.760,-0.045
31.765,-0.054
31.770,-0.070
31.775,-0.084
31.780,-0.093
31.785,-0.093
31.790,-0.087
31.795,-0.090
31.800,-0.100
31.805,-0.110
31.810,-0.109
31.815,-0.098
31.820,-0.076
31.825,-0.050
31.830,-0.035
31.835,-0.033
31.840,-0.030
31.845,-0.017
31.850,0.001
31.855,0.016
31.860,0.034
31.865,0.040
31.870,0.031
31.875,0.022
31.880,0.019
31.885,0.021
31.890,0.019
31.895,0.019
31.900,0.022
31.905,0.020
31.910,0.019
31.915,0.019
31.920,0.014
31.925,0.015
31.930,0.042
31.935,0.085
31.940,0.087
31.945,0.024
31.950,-0.077
31.955,-0.245
31.960,-0.528
31.965,-0.846
31.970,-1.009
31.975,-0.946
31.980,-0.748
31.985,-0.528
31.990,-0.362
31.995,-0.199
32.000,-0.053
32.005,0.021
32.010,0.094
32.015,0.168
32.020,0.226
32.025,0.271
32.030,0.279
32.035,0.268
32.040,0.273
32.045,0.281
32.050,0.275
32.055,0.263
32.060,0.253
32.065,0.241
32.070,0.229
32.075,0.222
32.080,0.217
32.085,0.204
32.090,0.189
32.095,0.176
32.100,0.164
32.105,0.158
32.110,0.151
32.115,0.141
32.120,0.131
32.125,0.123
32.130,0.111
32.135,0.093
32.140,0.078
32.145,0.069
32.150,0.055
32.155,0.038
32.160,0.024
32.165,0.014
32.170,-0.002
32.175,-0.024
32.180,-0.048
32.185,-0.073
32.190,-0.090
32.195,-0.101
32.200,-0.119
32.205,-0.135
32.210,-0.142
32.215,-0.146
32.220,-0.152
32.225,-0.155
32.230,-0.146
32.235,-0.126
32.240,-0.097
32.245,-0.060
32.250,-0.019
32.255,0.019
32.260,0.054
32.265,0.085
32.270,0.108
32.275,0.124
32.280,0.141
32.285,0.157
32.290,0.166
32.295,0.172
32.300,0.169
32.305,0.158
32.310,0.154
32.315,0.152
32.320,0.145
32.325,0.134
32.330,0.124
32.335,0.116
32.340,0.110
32.345,0.105
32.350,0.098
32.355,0.092
32.360,0.085
32.365,0.076
32.370,0.074
32.375,0.075
32.380,0.070
32.385,0.062
32.390,0.054
32.395,0.050
32.400,0.046
32.405,0.043
32.410,0.039
32.415,0.035
32.420,0.029
32.425,0.024
32.430,0.023
32.435,0.018
32.440,0.007
32.445,0.005
32.450,0.004
32.455,0.005
32.460,0.006
32.465,-0.001
32.470,-0.011
32.475,-0.013
32.480,-0.012
32.485,-0.013
32.490,-0.014
32.495,-0.012
32.500,-0.015
32.505,-0.019
32.510,-0.022
32.515,-0.024
32.520,-0.027
32.525,-0.028
32.530,-0.028
32.535,-0.027
32.540,-0.031
32.545,-0.033
32.550,-0.031
32.555,-0.032
32.560,-0.035
32.565,-0.036
32.570,-0.040
32.575,-0.042
32.580,-0.039
32.585,-0.039
32.590,-0.037
32.595,-0.036
32.600,-0.037
32.605,-0.037
32.610,-0.038
32.615,-0.045
32.620,-0.061
32.625,-0.078
32.630,-0.089
32.635,-0.097
32.640,-0.100
32.645,-0.097
32.650,-0.104
32.655,-0.115
32.660,-0.113
32.665,-0.104
32.670,-0.084
32.675,-0.056
32.680,-0.039
32.685,-0.036
32.690,-0.035
32.695,-0.028
32.700,-0.008
32.705,0.012
32.710,0.023
32.715,0.022
32.720,0.009
32.725,0.004
32.730,0.011
32.735,0.015
32.740,0.015
32.745,0.019
32.750,0.020
32.755,0.013
32.760,0.005
32.765,0.003
32.770,0.006
32.775,0.005
32.780,0.015
32.785,0.055
32.790,0.086
32.795,0.051
32.800,-0.034
32.805,-0.160
32.810,-0.387
32.815,-0.697
32.820,-0.911
32.825,-0.924
32.830,-0.794
32.835,-0.599
32.840,-0.411
32.845,-0.222
32.850,-0.053
32.855,0.038
32.860,0.103
32.865,0.162
32.870,0.194
32.875,0.215
32.880,0.232
32.885,0.239
32.890,0.234
32.895,0.232
32.900,0.226
32.905,0.215
32.910,0.214
32.915,0.209
32.920,0.195
32.925,0.185
32.930,0.179
32.935,0.168
32.940,0.154
32.945,0.144
32.950,0.137
32.955,0.129
32.960,0.119
32.965,0.110
32.970,0.101
32.975,0.090
32.980,0.080
32.985,0.069
32.990,0.056
32.995,0.046
33.000,0.034
33.005,0.017
33.010,0.002
33.015,-0.013
33.020,-0.034
33.025,-0.052
33.030,-0.067
33.035,-0.088
33.040,-0.108
33.045,-0.122
33.050,-0.136
33.055,-0.147
33.060,-0.154
33.065,-0.163
33.070,-0.167
33.075,-0.167
33.080,-0.155
33.085,-0.124
33.090,-0.088
33.095,-0.046
33.100,0.002
33.105,0.044
33.110,0.080
33.115,0.110
33.120,0.135
33.125,0.160
33.130,0.178
33.135,0.186
33.140,0.188
33.145,0.188
33.150,0.186
33.155,0.180
33.160,0.175
33.165,0.168
33.170,0.159
33.175,0.151
33.180,0.145
33.185,0.140
33.190,0.135
33.195,0.130
33.200,0.123
33.205,0.116
33.210,0.110
33.215,0.105
33.220,0.101
33.225,0.093
33.230,0.084
33.235,0.074
33.240,0.065
33.245,0.062
33.250,0.058
33.255,0.049
33.260,0.044
33.265,0.039
33.270,0.033
33.275,0.027
33.280,0.023
33.285,0.015
33.290,0.006
33.295,0.004
33.300,0.006
33.305,0.005
33.310,0.004
33.315,0.003
33.320,0.000
33.325,-0.001
33.330,-0.004
33.335,-0.008
33.340,-0.008
33.345,-0.009
33.350,-0.012
33.355,-0.013
33.360,-0.013
33.365,-0.014
33.370,-0.016
33.375,-0.017
33.380,-0.017
33.385,-0.022
33.390,-0.025
33.395,-0.023
33.400,-0.025
33.405,-0.030
33.410,-0.030
33.415,-0.030
33.420,-0.031
33.425,-0.030
33.430,-0.029
33.435,-0.030
33.440,-0.034
33.445,-0.035
33.450,-0.032
33.455,-0.035
33.460,-0.048
33.465,-0.063
33.470,-0.078
33.475,-0.089
33.480,-0.087
33.485,-0.084
33.490,-0.087
33.495,-0.092
33.500,-0.103
33.505,-0.104
33.510,-0.091
33.515,-0.071
33.520,-0.048
33.525,-0.039
33.530,-0.041
33.535,-0.034
33.540,-0.017
33.545,-0.001
33.550,0.011
33.555,0.021
33.560,0.022
33.565,0.019
33.570,0.012
33.575,0.012
33.580,0.020
33.585,0.016
33.590,0.011
33.595,0.015
33.600,0.012
33.605,0.005
33.610,0.003
33.615,0.001
33.620,0.004
33.625,0.027
33.630,0.075
33.635,0.084
33.640,0.019
33.645,-0.083
33.650,-0.250
33.655,-0.533
33.660,-0.852
33.665,-1.025
33.670,-0.975
33.675,-0.788
33.680,-0.566
33.685,-0.388
33.690,-0.213
33.695,-0.056
33.700,0.027
33.705,0.098
33.710,0.169
33.715,0.223
33.720,0.266
33.725,0.278
33.730,0.270
33.735,0.268
33.740,0.267
33.745,0.261
33.750,0.254
33.755,0.245
33.760,0.238
33.765,0.226
33.770,0.213
33.775,0.206
33.780,0.196
33.785,0.181
33.790,0.172
33.795,0.163
33.800,0.154
33.805,0.145
33.810,0.133
33.815,0.122
33.820,0.110
33.825,0.098
33.830,0.089
33.835,0.076
33.840,0.061
33.845,0.049
33.850,0.036
33.855,0.019
33.860,0.003
33.865,-0.014
33.870,-0.035
33.875,-0.054
33.880,-0.071
33.885,-0.087
33.890,-0.103
33.895,-0.118
33.900,-0.131
33.905,-0.141
33.910,-0.153
33.915,-0.158
33.920,-0.154
33.925,-0.144
33.930,-0.121
33.935,-0.090
33.940,-0.055
33.945,-0.012
33.950,0.026
33.955,0.062
33.960,0.099
33.965,0.127
33.970,0.144
33.975,0.155
33.980,0.163
33.985,0.169
33.990,0.173
33.995,0.169
34.000,0.163
34.005,0.159
34.010,0.153
34.015,0.149
34.020,0.141
34.025,0.130
34.030,0.123
34.035,0.114
34.040,0.106
34.045,0.102
34.050,0.094
34.055,0.087
34.060,0.085
34.065,0.083
34.070,0.077
34.075,0.067
34.080,0.061
34.085,0.058
34.090,0.053
34.095,0.049
34.100,0.043
34.105,0.036
34.110,0.033
34.115,0.028
34.120,0.021
34.125,0.019
34.130,0.017
34.135,0.010
34.140,0.006
34.145,0.006
34.150,0.004
34.155,0.001
34.160,-0.002
34.165,-0.005
34.170,-0.005
34.175,-0.009
34.180,-0.011
34.185,-0.012
34.190,-0.016
34.195,-0.019
34.200,-0.018
34.205,-0.021
34.210,-0.023
34.215,-0.023
34.220,-0.026
34.225,-0.028
34.230,-0.029
34.235,-0.030
34.240,-0.028
34.245,-0.029
34.250,-0.033
34.255,-0.035
34.260,-0.032
34.265,-0.032
34.270,-0.037
34.275,-0.042
34.280,-0.042
34.285,-0.039
34.290,-0.040
34.295,-0.040
34.300,-0.038
34.305,-0.038
34.310,-0.039
34.315,-0.040
34.320,-0.042
34.325,-0.044
34.330,-0.052
34.335,-0.068
34.340,-0.086
34.345,-0.094
34.350,-0.093
34.355,-0.090
34.360,-0.092
34.365,-0.098
34.370,-0.107
34.375,-0.107
34.380,-0.098
34.385,-0.081
34.390,-0.057
34.395,-0.041
34.400,-0.037
34.405,-0.036
34.410,-0.027
34.415,-0.008
34.420,0.009
34.425,0.027
34.430,0.041
34.435,0.035
34.440,0.024
34.445,0.020
34.450,0.017
34.455,0.017
34.460,0.014
34.465,0.014
34.470,0.015
34.475,0.011
34.480,0.012
34.485,0.012
34.490,0.010
34.495,0.028
34.500,0.063
34.505,0.079
34.510,0.038
34.515,-0.053
34.520,-0.198
34.525,-0.452
34.530,-0.783
34.535,-1.014
34.540,-1.015
34.545,-0.834
34.550,-0.590
34.555,-0.403
34.560,-0.249
34.565,-0.091
34.570,0.003
34.575,0.069
34.580,0.147
34.585,0.214
34.590,0.267
34.595,0.291
34.600,0.285
34.605,0.282
34.610,0.289
34.615,0.282
34.620,0.267
34.625,0.257
34.630,0.249
34.635,0.239
34.640,0.231
34.645,0.223
34.650,0.211
34.655,0.199
34.660,0.188
34.665,0.176
34.670,0.166
34.675,0.157
34.680,0.146
34.685,0.131
34.690,0.119
34.695,0.111
34.700,0.100
34.705,0.088
34.710,0.077
34.715,0.066
34.720,0.052
34.725,0.032
34.730,0.013
34.735,-0.004
34.740,-0.023
34.745,-0.042
34.750,-0.062
34.755,-0.079
34.760,-0.093
34.765,-0.107
34.770,-0.124
34.775,-0.137
34.780,-0.144
34.785,-0.155
34.790,-0.160
34.795,-0.153
34.800,-0.139
34.805,-0.112
34.810,-0.077
34.815,-0.035
34.820,0.007
34.825,0.044
34.830,0.079
34.835,0.108
34.840,0.127
34.845,0.142
34.850,0.153
34.855,0.158
34.860,0.163
34.865,0.165
34.870,0.160
34.875,0.150
34.880,0.145
34.885,0.140
34.890,0.134
34.895,0.130
34.900,0.123
34.905,0.115
34.910,0.111
34.915,0.105
34.920,0.094
34.925,0.088
34.930,0.081
34.935,0.071
34.940,0.064
34.945,0.063
34.950,0.064
34.955,0.061
34.960,0.052
34.965,0.046
34.970,0.042
34.975,0.038
34.980,0.038
34.985,0.039
34.990,0.034
34.995,0.028
35.000,0.024
35.005,0.018
35.010,0.014
35.015,0.010
35.020,0.004
35.025,-0.001
35.030,0.002
35.035,0.006
35.040,0.002
35.045,-0.005
35.050,-0.011
35.055,-0.017
35.060,-0.020
35.065,-0.024
35.070,-0.029
35.075,-0.024
35.080,-0.017
35.085,-0.017
35.090,-0.020
35.095,-0.026
35.100,-0.032
35.105,-0.034
35.110,-0.036
35.115,-0.032
35.120,-0.030
35.125,-0.032
35.130,-0.032
35.135,-0.037
35.140,-0.046
35.145,-0.049
35.150,-0.048
35.155,-0.048
35.160,-0.041
35.165,-0.036
35.170,-0.039
35.175,-0.041
35.180,-0.038
35.185,-0.037
35.190,-0.041
35.195,-0.056
35.200,-0.074
35.205,-0.088
35.210,-0.098
35.215,-0.101
35.220,-0.098
35.225,-0.101
35.230,-0.108
35.235,-0.115
35.240,-0.113
35.245,-0.089
35.250,-0.058
35.255,-0.043
35.260,-0.043
35.265,-0.042
35.270,-0.027
35.275,-0.006
35.280,0.013
35.285,0.027
35.290,0.030
35.295,0.025
35.300,0.020
35.305,0.012
35.310,0.010
35.315,0.014
35.320,0.014
35.325,0.013
35.330,0.014
35.335,0.009
35.340,0.008
35.345,0.010
35.350,0.005
35.355,0.011
35.360,0.048
35.365,0.085
35.370,0.067
35.375,-0.002
35.380,-0.106
35.385,-0.300
35.390,-0.604
35.395,-0.867
35.400,-0.929
35.405,-0.836
35.410,-0.666
35.415,-0.478
35.420,-0.298
35.425,-0.111
35.430,0.009
35.435,0.070
35.440,0.138
35.445,0.194
35.450,0.228
35.455,0.247
35.460,0.248
35.465,0.240
35.470,0.238
35.475,0.237
35.480,0.223
35.485,0.209
35.490,0.206
35.495,0.202
35.500,0.191
35.505,0.180
35.510,0.170
35.515,0.163
35.520,0.158
35.525,0.151
35.530,0.144
35.535,0.132
35.540,0.118
35.545,0.106
35.550,0.091
35.555,0.078
35.560,0.069
35.565,0.062
35.570,0.053
35.575,0.043
35.580,0.029
35.585,0.011
35.590,-0.010
35.595,-0.028
35.600,-0.044
35.605,-0.064
35.610,-0.081
35.615,-0.097
35.620,-0.116
35.625,-0.133
35.630,-0.142
35.635,-0.150
35.640,-0.162
35.645,-0.168
35.650,-0.164
35.655,-0.155
35.660,-0.134
35.665,-0.100
35.670,-0.059
35.675,-0.016
35.680,0.025
35.685,0.064
35.690,0.099
35.695,0.128
35.700,0.150
35.705,0.165
35.710,0.175
35.715,0.181
35.720,0.181
35.725,0.182
35.730,0.183
35.735,0.176
35.740,0.166
35.745,0.158
35.750,0.154
35.755,0.149
35.760,0.140
35.765,0.134
35.770,0.127
35.775,0.118
35.780,0.114
35.785,0.108
35.790,0.100
35.795,0.095
35.800,0.088
35.805,0.080
35.810,0.072
35.815,0.064
35.820,0.058
35.825,0.056
35.830,0.052
35.835,0.044
35.840,0.038
35.845,0.035
35.850,0.031
35.855,0.025
35.860,0.018
35.865,0.014
35.870,0.011
35.875,0.004
35.880,0.002
35.885,-0.002
35.890,-0.006
35.895,-0.004
35.900,-0.006
35.905,-0.008
35.910,-0.006
35.915,-0.006
35.920,-0.010
35.925,-0.015
35.930,-0.019
35.935,-0.019
35.940,-0.017
35.945,-0.016
35.950,-0.019
35.955,-0.024
35.960,-0.027
35.965,-0.029
35.970,-0.032
35.975,-0.032
35.980,-0.032
35.985,-0.033
35.990,-0.036
35.995,-0.035
36.000,-0.032
36.005,-0.035
36.010,-0.039
36.015,-0.039
36.020,-0.035
36.025,-0.035
36.030,-0.036
36.035,-0.037
36.040,-0.041
36.045,-0.053
36.050,-0.068
36.055,-0.083
36.060,-0.089
36.065,-0.086
36.070,-0.087
36.075,-0.093
36.080,-0.100
36.085,-0.108
36.090,-0.106
36.095,-0.089
36.100,-0.066
36.105,-0.047
36.110,-0.043
36.115,-0.042
36.120,-0.034
36.125,-0.021
36.130,-0.002
36.135,0.018
36.140,0.029
36.145,0.027
36.150,0.019
36.155,0.011
36.160,0.012
36.165,0.019
36.170,0.016
36.175,0.013
36.180,0.014
36.185,0.009
36.190,0.005
36.195,0.006
36.200,0.005
36.205,0.008
36.210,0.034
36.215,0.079
36.220,0.084
36.225,0.017
36.230,-0.087
36.235,-0.255
36.240,-0.537
36.245,-0.845
36.250,-1.002
36.255,-0.950
36.260,-0.768
36.265,-0.550
36.270,-0.370
36.275,-0.192
36.280,-0.041
36.285,0.038
36.290,0.108
36.295,0.176
36.300,0.225
36.305,0.261
36.310,0.272
36.315,0.267
36.320,0.266
36.325,0.267
36.330,0.261
36.335,0.250
36.340,0.243
36.345,0.236
36.350,0.221
36.355,0.210
36.360,0.201
36.365,0.191
36.370,0.183
36.375,0.172
36.380,0.161
36.385,0.152
36.390,0.140
36.395,0.127
36.400,0.117
36.405,0.108
36.410,0.095
36.415,0.081
36.420,0.070
36.425,0.061
36.430,0.052
36.435,0.034
36.440,0.013
36.445,0.000
36.450,-0.015
36.455,-0.036
36.460,-0.058
36.465,-0.077
36.470,-0.094
36.475,-0.110
36.480,-0.124
36.485,-0.137
36.490,-0.146
36.495,-0.153
36.500,-0.156
36.505,-0.155
36.510,-0.145
36.515,-0.119
36.520,-0.084
36.525,-0.045
36.530,-0.002
36.535,0.035
36.540,0.069
36.545,0.103
36.550,0.128
36.555,0.146
36.560,0.160
36.565,0.170
36.570,0.175
36.575,0.175
36.580,0.173
36.585,0.168
36.590,0.159
36.595,0.153
36.600,0.149
36.605,0.141
36.610,0.135
36.615,0.130
36.620,0.119
36.625,0.109
36.630,0.103
36.635,0.097
36.640,0.093
36.645,0.086
36.650,0.077
36.655,0.070
36.660,0.067
36.665,0.064
36.670,0.060
36.675,0.054
36.680,0.049
36.685,0.043
36.690,0.039
36.695,0.036
36.700,0.032
36.705,0.026
36.710,0.017
36.715,0.015
36.720,0.012
36.725,0.008
36.730,0.010
36.735,0.006
36.740,0.000
36.745,-0.005
36.750,-0.009
36.755,-0.010
36.760,-0.009
36.765,-0.010
36.770,-0.015
36.775,-0.020
36.780,-0.019
36.785,-0.018
36.790,-0.021
36.795,-0.024
36.800,-0.024
36.805,-0.025
36.810,-0.028
36.815,-0.030
36.820,-0.030
36.825,-0.029
36.830,-0.031
36.835,-0.035
36.840,-0.034
36.845,-0.033
36.850,-0.034
36.855,-0.037
36.860,-0.041
36.865,-0.039
36.870,-0.040
36.875,-0.042
36.880,-0.038
36.885,-0.037
36.890,-0.043
36.895,-0.044
36.900,-0.039
36.905,-0.040
36.910,-0.041
36.915,-0.040
36.920,-0.040
36.925,-0.040
36.930,-0.041
36.935,-0.045
36.940,-0.058
36.945,-0.072
36.950,-0.084
36.955,-0.092
36.960,-0.090
36.965,-0.087
36.970,-0.090
36.975,-0.098
36.980,-0.104
36.985,-0.104
36.990,-0.095
36.995,-0.073
37.000,-0.050
37.005,-0.038
37.010,-0.035
37.015,-0.028
37.020,-0.016
37.025,-0.004
37.030,0.011
37.035,0.031
37.040,0.039
37.045,0.032
37.050,0.025
37.055,0.022
37.060,0.023
37.065,0.025
37.070,0.019
37.075,0.019
37.080,0.021
37.085,0.017
37.090,0.016
37.095,0.017
37.100,0.016
37.105,0.032
37.110,0.073
37.115,0.087
37.120,0.033
37.125,-0.064
37.130,-0.217
37.135,-0.479
37.140,-0.804
37.145,-1.008
37.150,-0.980
37.155,-0.796
37.160,-0.565
37.165,-0.380
37.170,-0.215
37.175,-0.059
37.180,0.029
37.185,0.095
37.190,0.169
37.195,0.234
37.200,0.283
37.205,0.295
37.210,0.283
37.215,0.280
37.220,0.281
37.225,0.275
37.230,0.265
37.235,0.259
37.240,0.249
37.245,0.237
37.250,0.231
37.255,0.226
37.260,0.213
37.265,0.201
37.270,0.189
37.275,0.179
37.280,0.173
37.285,0.161
37.290,0.146
37.295,0.134
37.300,0.122
37.305,0.110
37.310,0.097
37.315,0.087
37.320,0.077
37.325,0.060
37.330,0.044
37.335,0.031
37.340,0.012
37.345,-0.005
37.350,-0.019
37.355,-0.038
37.360,-0.055
37.365,-0.076
37.370,-0.101
37.375,-0.117
37.380,-0.130
37.385,-0.145
37.390,-0.155
37.395,-0.161
37.400,-0.161
37.405,-0.151
37.410,-0.136
37.415,-0.105
37.420,-0.065
37.425,-0.025
37.430,0.015
37.435,0.051
37.440,0.081
37.445,0.110
37.450,0.133
37.455,0.146
37.460,0.153
37.465,0.163
37.470,0.171
37.475,0.169
37.480,0.162
37.485,0.154
37.490,0.145
37.495,0.141
37.500,0.140
37.505,0.133
37.510,0.125
37.515,0.119
37.520,0.106
37.525,0.093
37.530,0.087
37.535,0.082
37.540,0.078
37.545,0.074
37.550,0.070
37.555,0.067
37.560,0.062
37.565,0.054
37.570,0.050
37.575,0.050
37.580,0.050
37.585,0.045
37.590,0.034
37.595,0.030
37.600,0.031
37.605,0.029
37.610,0.024
37.615,0.017
37.620,0.009
37.625,0.005
37.630,0.006
37.635,0.001
37.640,-0.008
37.645,-0.010
37.650,-0.010
37.655,-0.007
37.660,-0.008
37.665,-0.013
37.670,-0.017
37.675,-0.021
37.680,-0.021
37.685,-0.021
37.690,-0.022
37.695,-0.026
37.700,-0.029
37.705,-0.029
37.710,-0.031
37.715,-0.033
37.720,-0.034
37.725,-0.035
37.730,-0.036
37.735,-0.036
37.740,-0.034
37.745,-0.035
37.750,-0.039
37.755,-0.044
37.760,-0.044
37.765,-0.038
37.770,-0.036
37.775,-0.039
37.780,-0.036
37.785,-0.034
37.790,-0.039
37.795,-0.044
37.800,-0.049
37.805,-0.051
37.810,-0.047
37.815,-0.046
37.820,-0.051
37.825,-0.060
37.830,-0.070
37.835,-0.082
37.840,-0.091
37.845,-0.093
37.850,-0.093
37.855,-0.098
37.860,-0.109
37.865,-0.116
37.870,-0.113
37.875,-0.098
37.880,-0.067
37.885,-0.041
37.890,-0.036
37.895,-0.037
37.900,-0.027
37.905,-0.008
37.910,0.012
37.915,0.025
37.920,0.027
37.925,0.020
37.930,0.015
37.935,0.013
37.940,0.017
37.945,0.020
37.950,0.015
37.955,0.011
37.960,0.010
37.965,0.012
37.970,0.011
37.975,0.008
37.980,0.010
37.985,0.016
37.990,0.042
37.995,0.083
38.000,0.078
38.005,0.011
38.010,-0.091
38.015,-0.272
38.020,-0.561
38.025,-0.839
38.030,-0.935
38.035,-0.853
38.040,-0.690
38.045,-0.500
38.050,-0.312
38.055,-0.122
38.060,0.004
38.065,0.066
38.070,0.132
38.075,0.186
38.080,0.220
38.085,0.242
38.090,0.243
38.095,0.235
38.100,0.236
38.105,0.239
38.110,0.233
38.115,0.223
38.120,0.213
38.125,0.203
38.130,0.195
38.135,0.188
38.140,0.183
38.145,0.176
38.150,0.165
38.155,0.155
38.160,0.143
38.165,0.129
38.170,0.121
38.175,0.111
38.180,0.099
38.185,0.086
38.190,0.073
38.195,0.065
38.200,0.057
38.205,0.045
38.210,0.030
38.215,0.015
38.220,-0.005
38.225,-0.026
38.230,-0.040
38.235,-0.057
38.240,-0.078
38.245,-0.094
38.250,-0.108
38.255,-0.122
38.260,-0.136
38.265,-0.150
38.270,-0.161
38.275,-0.169
38.280,-0.171
38.285,-0.162
38.290,-0.142
38.295,-0.109
38.300,-0.067
38.305,-0.027
38.310,0.015
38.315,0.058
38.320,0.096
38.325,0.127
38.330,0.151
38.335,0.169
38.340,0.179
38.345,0.186
38.350,0.190
38.355,0.188
38.360,0.182
38.365,0.176
38.370,0.173
38.375,0.167
38.380,0.158
38.385,0.152
38.390,0.147
38.395,0.141
38.400,0.134
38.405,0.127
38.410,0.118
38.415,0.109
38.420,0.102
38.425,0.096
38.430,0.091
38.435,0.085
38.440,0.077
38.445,0.073
38.450,0.068
38.455,0.059
38.460,0.053
38.465,0.048
38.470,0.041
38.475,0.032
38.480,0.029
38.485,0.028
38.490,0.024
38.495,0.020
38.500,0.015
38.505,0.008
38.510,0.006
38.515,0.007
38.520,0.002
38.525,-0.003
38.530,-0.006
38.535,-0.008
38.540,-0.010
38.545,-0.009
38.550,-0.008
38.555,-0.015
38.560,-0.019
38.565,-0.020
38.570,-0.021
38.575,-0.020
38.580,-0.019
38.585,-0.020
38.590,-0.023
38.595,-0.029
38.600,-0.030
38.605,-0.028
38.610,-0.031
38.615,-0.031
38.620,-0.030
38.625,-0.032
38.630,-0.032
38.635,-0.031
38.640,-0.032
38.645,-0.034
38.650,-0.035
38.655,-0.036
38.660,-0.038
38.665,-0.037
38.670,-0.038
38.675,-0.037
38.680,-0.033
38.685,-0.031
38.690,-0.034
38.695,-0.038
38.700,-0.045
38.705,-0.061
38.710,-0.078
38.715,-0.090
38.720,-0.093
38.725,-0.092
38.730,-0.093
38.735,-0.095
38.740,-0.101
38.745,-0.103
38.750,-0.098
38.755,-0.080
38.760,-0.053
38.765,-0.036
38.770,-0.037
38.775,-0.036
38.780,-0.019
38.785,-0.001
38.790,0.009
38.795,0.023
38.800,0.031
38.805,0.025
38.810,0.015
38.815,0.013
38.820,0.017
38.825,0.019
38.830,0.018
38.835,0.018
38.840,0.017
38.845,0.015
38.850,0.012
38.855,0.010
38.860,0.009
38.865,0.023
38.870,0.062
38.875,0.090
38.880,0.058
38.885,-0.026
38.890,-0.154
38.895,-0.381
38.900,-0.698
38.905,-0.955
38.910,-1.009
38.915,-0.874
38.920,-0.658
38.925,-0.461
38.930,-0.284
38.935,-0.109
38.940,0.001
38.945,0.073
38.950,0.150
38.955,0.208
38.960,0.249
38.965,0.273
38.970,0.270
38.975,0.264
38.980,0.270
38.985,0.269
38.990,0.259
38.995,0.249
39.000,0.239
39.005,0.230
39.010,0.222
39.015,0.214
39.020,0.200
39.025,0.188
39.030,0.183
39.035,0.176
39.040,0.161
39.045,0.143
39.050,0.132
39.055,0.126
39.060,0.118
39.065,0.107
39.070,0.095
39.075,0.083
39.080,0.073
39.085,0.060
39.090,0.043
39.095,0.027
39.100,0.011
39.105,-0.006
39.110,-0.025
39.115,-0.043
39.120,-0.062
39.125,-0.082
39.130,-0.097
39.135,-0.111
39.140,-0.126
39.145,-0.138
39.150,-0.145
39.155,-0.152
39.160,-0.158
39.165,-0.154
39.170,-0.140
39.175,-0.112
39.180,-0.074
39.185,-0.034
39.190,0.006
39.195,0.046
39.200,0.084
39.205,0.112
39.210,0.133
39.215,0.151
39.220,0.164
39.225,0.171
39.230,0.172
39.235,0.172
39.240,0.170
39.245,0.165
39.250,0.162
39.255,0.153
39.260,0.144
39.265,0.140
39.270,0.132
39.275,0.122
39.280,0.114
39.285,0.107
39.290,0.096
39.295,0.091
39.300,0.091
39.305,0.087
39.310,0.079
39.315,0.071
39.320,0.063
39.325,0.058
39.330,0.055
39.335,0.051
39.340,0.045
39.345,0.040
39.350,0.036
39.355,0.031
39.360,0.027
39.365,0.024
39.370,0.018
39.375,0.013
39.380,0.009
39.385,0.004
39.390,0.002
39.395,0.001
39.400,-0.004
39.405,-0.008
39.410,-0.010
39.415,-0.010
39.420,-0.012
39.425,-0.015
39.430,-0.016
39.435,-0.017
39.440,-0.019
39.445,-0.022
39.450,-0.023
39.455,-0.025
39.460,-0.028
39.465,-0.028
39.470,-0.028
39.475,-0.030
39.480,-0.031
39.485,-0.031
39.490,-0.034
39.495,-0.037
39.500,-0.038
39.505,-0.039
39.510,-0.035
39.515,-0.036
39.520,-0.040
39.525,-0.040
39.530,-0.041
39.535,-0.039
39.540,-0.039
39.545,-0.042
39.550,-0.040
39.555,-0.041
39.560,-0.045
39.565,-0.042
39.570,-0.039
39.575,-0.042
39.580,-0.042
39.585,-0.040
39.590,-0.042
39.595,-0.041
39.600,-0.038
39.605,-0.040
39.610,-0.044
39.615,-0.051
39.620,-0.065
39.625,-0.079
39.630,-0.087
39.635,-0.089
39.640,-0.089
39.645,-0.089
39.650,-0.097
39.655,-0.110
39.660,-0.111
39.665,-0.098
39.670,-0.077
39.675,-0.052
39.680,-0.035
39.685,-0.031
39.690,-0.031
39.695,-0.025
39.700,-0.006
39.705,0.012
39.710,0.027
39.715,0.039
39.720,0.036
39.725,0.027
39.730,0.026
39.735,0.030
39.740,0.026
39.745,0.016
39.750,0.015
39.755,0.021
39.760,0.021
39.765,0.017
39.770,0.013
39.775,0.010
39.780,0.021
39.785,0.059
39.790,0.094
39.795,0.066
39.800,-0.019
39.805,-0.137
39.810,-0.350
39.815,-0.668
39.820,-0.943
39.825,-1.010
39.830,-0.877
39.835,-0.656
39.840,-0.457
39.845,-0.291
39.850,-0.117
39.855,0.001
39.860,0.065
39.865,0.135
39.870,0.200
39.875,0.254
39.880,0.285
39.885,0.284
39.890,0.278
39.895,0.284
39.900,0.283
39.905,0.268
39.910,0.257
39.915,0.254
39.920,0.242
39.925,0.229
39.930,0.223
39.935,0.208
39.940,0.189
39.945,0.183
39.950,0.177
39.955,0.166
39.960,0.157
39.965,0.148
39.970,0.138
39.975,0.123
39.980,0.110
39.985,0.103
39.990,0.089
39.995,0.074
40.000,0.064
40.005,0.051
40.010,0.034
40.015,0.019
40.020,0.005
40.025,-0.013
40.030,-0.031
40.035,-0.053
40.040,-0.077
40.045,-0.099
40.050,-0.113
40.055,-0.120
40.060,-0.133
40.065,-0.147
40.070,-0.157
40.075,-0.162
40.080,-0.160
40.085,-0.148
40.090,-0.124
40.095,-0.090
40.100,-0.049
40.105,-0.009
40.110,0.030
40.115,0.068
40.120,0.100
40.125,0.123
40.130,0.140
40.135,0.150
40.140,0.155
40.145,0.164
40.150,0.172
40.155,0.169
40.160,0.158
40.165,0.152
40.170,0.148
40.175,0.142
40.180,0.138
40.185,0.130
40.190,0.119
40.195,0.111
40.200,0.106
40.205,0.096
40.210,0.086
40.215,0.081
40.220,0.077
40.225,0.072
40.230,0.070
40.235,0.065
40.240,0.061
40.245,0.056
40.250,0.051
40.255,0.047
40.260,0.045
40.265,0.043
40.270,0.038
40.275,0.033
40.280,0.027
40.285,0.020
40.290,0.013
40.295,0.009
40.300,0.010
40.305,0.008
40.310,0.001
40.315,-0.002
40.320,0.000
40.325,0.000
40.330,-0.003
40.335,-0.008
40.340,-0.015
40.345,-0.020
40.350,-0.021
40.355,-0.022
40.360,-0.025
40.365,-0.028
40.370,-0.031
40.375,-0.030
40.380,-0.024
40.385,-0.024
40.390,-0.026
40.395,-0.026
40.400,-0.028
40.405,-0.028
40.410,-0.033
40.415,-0.032
40.420,-0.028
40.425,-0.033
40.430,-0.038
40.435,-0.041
40.440,-0.042
40.445,-0.043
40.450,-0.040
40.455,-0.036
40.460,-0.037
40.465,-0.035
40.470,-0.040
40.475,-0.044
40.480,-0.038
40.485,-0.038
40.490,-0.044
40.495,-0.043
40.500,-0.039
40.505,-0.038
40.510,-0.047
40.515,-0.060
40.520,-0.073
40.525,-0.084
40.530,-0.091
40.535,-0.096
40.540,-0.102
40.545,-0.109
40.550,-0.115
40.555,-0.113
40.560,-0.100
40.565,-0.074
40.570,-0.047
40.575,-0.038
40.580,-0.039
40.585,-0.032
40.590,-0.016
40.595,0.002
40.600,0.019
40.605,0.026
40.610,0.024
40.615,0.017
40.620,0.011
40.625,0.012
40.630,0.018
40.635,0.021
40.640,0.018
40.645,0.017
40.650,0.022
40.655,0.022
40.660,0.017
40.665,0.012
40.670,0.006
40.675,0.019
40.680,0.064
40.685,0.088
40.690,0.044
40.695,-0.042
40.700,-0.177
40.705,-0.421
40.710,-0.731
40.715,-0.919
40.720,-0.904
40.725,-0.768
40.730,-0.578
40.735,-0.389
40.740,-0.193
40.745,-0.028
40.750,0.050
40.755,0.108
40.760,0.169
40.765,0.213
40.770,0.236
40.775,0.241
40.780,0.242
40.785,0.241
40.790,0.244
40.795,0.242
40.800,0.228
40.805,0.216
40.810,0.207
40.815,0.198
40.820,0.194
40.825,0.187
40.830,0.179
40.835,0.170
40.840,0.158
40.845,0.146
40.850,0.136
40.855,0.126
40.860,0.115
40.865,0.104
40.870,0.094
40.875,0.083
40.880,0.069
40.885,0.057
40.890,0.052
40.895,0.040
40.900,0.023
40.905,0.009
40.910,-0.009
40.915,-0.025
40.920,-0.044
40.925,-0.066
40.930,-0.084
40.935,-0.103
40.940,-0.125
40.945,-0.134
40.950,-0.138
40.955,-0.149
40.960,-0.160
40.965,-0.160
40.970,-0.157
40.975,-0.148
40.980,-0.124
40.985,-0.089
40.990,-0.048
40.995,-0.006
41.000,0.034
41.005,0.072
41.010,0.105
41.015,0.133
41.020,0.156
41.025,0.172
41.030,0.181
41.035,0.187
41.040,0.190
41.045,0.191
41.050,0.187
41.055,0.177
41.060,0.169
41.065,0.163
41.070,0.156
41.075,0.150
41.080,0.143
41.085,0.138
41.090,0.129
41.095,0.117
41.100,0.112
41.105,0.107
41.110,0.100
41.115,0.097
41.120,0.091
41.125,0.082
41.130,0.078
41.135,0.074
41.140,0.066
41.145,0.057
41.150,0.049
41.155,0.040
41.160,0.035
41.165,0.031
41.170,0.028
41.175,0.023
41.180,0.017
41.185,0.014
41.190,0.010
41.195,0.006
41.200,0.004
41.205,0.001
41.210,-0.002
41.215,-0.004
41.220,-0.001
41.225,-0.001
41.230,-0.005
41.235,-0.009
41.240,-0.012
41.245,-0.012
41.250,-0.013
41.255,-0.017
41.260,-0.019
41.265,-0.018
41.270,-0.019
41.275,-0.021
41.280,-0.024
41.285,-0.027
41.290,-0.028
41.295,-0.029
41.300,-0.027
41.305,-0.025
41.310,-0.028
41.315,-0.027
41.320,-0.031
41.325,-0.037
41.330,-0.037
41.335,-0.037
41.340,-0.037
41.345,-0.037
41.350,-0.034
41.355,-0.032
41.360,-0.034
41.365,-0.036
41.370,-0.039
41.375,-0.045
41.380,-0.057
41.385,-0.071
41.390,-0.085
41.395,-0.094
41.400,-0.092
41.405,-0.090
41.410,-0.097
41.415,-0.103
41.420,-0.105
41.425,-0.100
41.430,-0.082
41.435,-0.060
41.440,-0.045
41.445,-0.041
41.450,-0.042
41.455,-0.036
41.460,-0.016
41.465,0.005
41.470,0.023
41.475,0.029
41.480,0.023
41.485,0.021
41.490,0.016
41.495,0.012
41.500,0.018
41.505,0.017
41.510,0.014
41.515,0.013
41.520,0.009
41.525,0.007
41.530,0.006
41.535,0.004
41.540,0.010
41.545,0.045
41.550,0.089
41.555,0.073
41.560,-0.010
41.565,-0.126
41.570,-0.327
41.575,-0.637
41.580,-0.922
41.585,-1.018
41.590,-0.917
41.595,-0.712
41.600,-0.503
41.605,-0.324
41.610,-0.143
41.615,-0.014
41.620,0.058
41.625,0.131
41.630,0.195
41.635,0.241
41.640,0.268
41.645,0.271
41.650,0.268
41.655,0.270
41.660,0.270
41.665,0.265
41.670,0.255
41.675,0.242
41.680,0.231
41.685,0.223
41.690,0.213
41.695,0.200
41.700,0.191
41.705,0.185
41.710,0.175
41.715,0.163
41.720,0.151
41.725,0.142
41.730,0.130
41.735,0.119
41.740,0.110
41.745,0.099
41.750,0.085
41.755,0.069
41.760,0.056
41.765,0.045
41.770,0.033
41.775,0.017
41.780,0.001
41.785,-0.016
41.790,-0.038
41.795,-0.058
41.800,-0.074
41.805,-0.093
41.810,-0.110
41.815,-0.121
41.820,-0.132
41.825,-0.144
41.830,-0.153
41.835,-0.157
41.840,-0.153
41.845,-0.141
41.850,-0.118
41.855,-0.086
41.860,-0.051
41.865,-0.011
41.870,0.030
41.875,0.067
41.880,0.099
41.885,0.125
41.890,0.145
41.895,0.158
41.900,0.167
41.905,0.171
41.910,0.169
41.915,0.168
41.920,0.165
41.925,0.158
41.930,0.153
41.935,0.144
41.940,0.135
41.945,0.130
41.950,0.125
41.955,0.116
41.960,0.106
41.965,0.101
41.970,0.098
41.975,0.091
41.980,0.083
41.985,0.078
41.990,0.073
41.995,0.067
42.000,0.064
42.005,0.059
42.010,0.049
42.015,0.046
42.020,0.044
42.025,0.036
42.030,0.031
42.035,0.031
42.040,0.024
42.045,0.016
42.050,0.014
42.055,0.010
42.060,0.009
42.065,0.005
42.070,-0.001
42.075,-0.002
42.080,-0.006
42.085,-0.009
42.090,-0.009
42.095,-0.010
42.100,-0.010
42.105,-0.012
42.110,-0.016
42.115,-0.020
42.120,-0.021
42.125,-0.020
42.130,-0.021
42.135,-0.023
42.140,-0.026
42.145,-0.030
42.150,-0.029
42.155,-0.031
42.160,-0.035
42.165,-0.035
42.170,-0.035
42.175,-0.037
42.180,-0.036
42.185,-0.035
42.190,-0.035
42.195,-0.036
42.200,-0.039
42.205,-0.041
42.210,-0.041
42.215,-0.037
42.220,-0.035
42.225,-0.037
42.230,-0.039
42.235,-0.038
42.240,-0.038
42.245,-0.039
42.250,-0.037
42.255,-0.037
42.260,-0.041
42.265,-0.043
42.270,-0.043
42.275,-0.055
42.280,-0.071
42.285,-0.082
42.290,-0.090
42.295,-0.091
42.300,-0.091
42.305,-0.094
42.310,-0.100
42.315,-0.105
42.320,-0.102
42.325,-0.093
42.330,-0.073
42.335,-0.049
42.340,-0.040
42.345,-0.039
42.350,-0.032
42.355,-0.016
42.360,0.001
42.365,0.015
42.370,0.030
42.375,0.033
42.380,0.025
42.385,0.022
42.390,0.023
42.395,0.025
42.400,0.026
42.405,0.021
42.410,0.019
42.415,0.020
42.420,0.017
42.425,0.012
42.430,0.010
42.435,0.012
42.440,0.034
42.445,0.078
42.450,0.085
42.455,0.022
42.460,-0.079
42.465,-0.248
42.470,-0.533
42.475,-0.855
42.480,-1.020
42.485,-0.955
42.490,-0.758
42.495,-0.533
42.500,-0.358
42.505,-0.191
42.510,-0.044
42.515,0.031
42.520,0.101
42.525,0.174
42.530,0.233
42.535,0.280
42.540,0.291
42.545,0.281
42.550,0.280
42.555,0.282
42.560,0.274
42.565,0.266
42.570,0.260
42.575,0.247
42.580,0.234
42.585,0.226
42.590,0.215
42.595,0.201
42.600,0.193
42.605,0.182
42.610,0.170
42.615,0.163
42.620,0.152
42.625,0.141
42.630,0.136
42.635,0.125
42.640,0.110
42.645,0.097
42.650,0.086
42.655,0.076
42.660,0.061
42.665,0.041
42.670,0.026
42.675,0.006
42.680,-0.014
42.685,-0.026
42.690,-0.045
42.695,-0.067
42.700,-0.082
42.705,-0.096
42.710,-0.113
42.715,-0.126
42.720,-0.136
42.725,-0.146
42.730,-0.152
42.735,-0.152
42.740,-0.147
42.745,-0.132
42.750,-0.104
42.755,-0.069
42.760,-0.030
42.765,0.005
42.770,0.037
42.775,0.070
42.780,0.102
42.785,0.128
42.790,0.145
42.795,0.160
42.800,0.167
42.805,0.166
42.810,0.162
42.815,0.160
42.820,0.160
42.825,0.156
42.830,0.146
42.835,0.136
42.840,0.126
42.845,0.121
42.850,0.118
42.855,0.108
42.860,0.099
42.865,0.097
42.870,0.092
42.875,0.082
42.880,0.073
42.885,0.068
42.890,0.065
42.895,0.063
42.900,0.061
42.905,0.058
42.910,0.054
42.915,0.044
42.920,0.037
42.925,0.038
42.930,0.035
42.935,0.032
42.940,0.025
42.945,0.016
42.950,0.016
42.955,0.016
42.960,0.009
42.965,0.008
42.970,0.007
42.975,0.002
42.980,-0.002
42.985,-0.002
42.990,-0.007
42.995,-0.010
43.000,-0.010
43.005,-0.014
43.010,-0.019
43.015,-0.022
43.020,-0.024
43.025,-0.026
43.030,-0.023
43.035,-0.021
43.040,-0.025
43.045,-0.029
43.050,-0.029
43.055,-0.030
43.060,-0.032
43.065,-0.033
43.070,-0.033
43.075,-0.035
43.080,-0.038
43.085,-0.038
43.090,-0.033
43.095,-0.034
43.100,-0.039
43.105,-0.043
43.110,-0.049
43.115,-0.043
43.120,-0.033
43.125,-0.039
43.130,-0.047
43.135,-0.048
43.140,-0.048
43.145,-0.048
43.150,-0.054
43.155,-0.065
43.160,-0.077
43.165,-0.086
43.170,-0.090
43.175,-0.092
43.180,-0.100
43.185,-0.109
43.190,-0.118
43.195,-0.116
43.200,-0.100
43.205,-0.071
43.210,-0.048
43.215,-0.040
43.220,-0.037
43.225,-0.032
43.230,-0.019
43.235,0.002
43.240,0.018
43.245,0.025
43.250,0.022
43.255,0.016
43.260,0.013
43.265,0.014
43.270,0.017
43.275,0.017
43.280,0.018
43.285,0.019
43.290,0.015
43.295,0.014
43.300,0.018
43.305,0.014
43.310,0.006
43.315,0.023
43.320,0.066
43.325,0.074
43.330,0.019
43.335,-0.073
43.340,-0.145
43.345,-0.444
43.350,-1.331
43.355,-2.006
43.360,-1.951
43.365,-1.779
43.370,-1.599
43.375,-1.587
43.380,-1.605
43.385,-1.387
43.390,-1.325
43.395,-1.349
43.400,-1.210
43.405,-1.108
43.410,-1.106
43.415,-1.027
43.420,-0.922
43.425,-0.891
43.430,-0.843
43.435,-0.755
43.440,-0.704
43.445,-0.667
43.450,-0.599
43.455,-0.542
43.460,-0.505
43.465,-0.454
43.470,-0.399
43.475,-0.361
43.480,-0.320
43.485,-0.272
43.490,-0.233
43.495,-0.198
43.500,-0.157
43.505,-0.121
43.510,-0.089
43.515,-0.055
43.520,-0.022
43.525,0.007
43.530,0.035
43.535,0.064
43.540,0.090
43.545,0.115
43.550,0.139
43.555,0.162
43.560,0.183
43.565,0.204
43.570,0.223
43.575,0.242
43.580,0.259
43.585,0.275
43.590,0.290
43.595,0.305
43.600,0.318
43.605,0.331
43.610,0.342
43.615,0.353
43.620,0.363
43.625,0.372
43.630,0.381
43.635,0.389
43.640,0.396
43.645,0.402
43.650,0.408
43.655,0.413
43.660,0.417
43.665,0.421
43.670,0.424
43.675,0.426
43.680,0.429
43.685,0.430
43.690,0.432
43.695,0.432
43.700,0.432
43.705,0.432
43.710,0.431
43.715,0.430
43.720,0.429
43.725,0.427
43.730,0.425
43.735,0.423
43.740,0.420
43.745,0.417
43.750,0.414
43.755,0.410
43.760,0.406
43.765,0.402
43.770,0.398
43.775,0.393
43.780,0.389
43.785,0.384
43.790,0.379
43.795,0.373
43.800,0.368
43.805,0.362
43.810,0.357
43.815,0.351
43.820,0.346
43.825,0.340
43.830,0.334
43.835,0.328
43.840,0.322
43.845,0.315
43.850,0.309
43.855,0.303
43.860,0.297
43.865,0.291
43.870,0.284
43.875,0.278
43.880,0.272
43.885,0.266
43.890,0.259
43.895,0.253
43.900,0.247
43.905,0.241
43.910,0.235
43.915,0.229
43.920,0.223
43.925,0.217
43.930,0.211
43.935,0.205
43.940,0.199
43.945,0.193
43.950,0.187
43.955,0.182
43.960,0.176
43.965,0.170
43.970,0.165
43.975,0.159
43.980,0.154
43.985,0.149
43.990,0.144
43.995,0.139
44.000,0.134
44.005,0.129
44.010,0.124
44.015,0.119
44.020,0.114
44.025,0.110
44.030,0.106
44.035,0.101
44.040,0.097
44.045,0.093
44.050,0.089
44.055,0.085
44.060,0.081
44.065,0.077
44.070,0.073
44.075,0.069
44.080,0.066
44.085,0.062
44.090,0.059
44.095,0.056
44.100,0.071
44.105,0.126
44.110,0.176
44.115,0.190
44.120,0.193
44.125,0.196
44.130,0.207
44.135,0.217
44.140,0.215
44.145,0.221
44.150,0.230
44.155,0.230
44.160,0.232
44.165,0.237
44.170,0.239
44.175,0.238
44.180,0.241
44.185,0.242
44.190,0.241
44.195,0.241
44.200,0.143
44.205,-0.081
44.210,-0.215
44.215,-0.210
44.220,-0.168
44.225,-0.130
44.230,-0.133
44.235,-0.115
44.240,-0.069
44.245,-0.064
44.250,-0.057
44.255,-0.023
44.260,-0.008
44.265,-0.004
44.270,0.017
44.275,0.035
44.280,0.040
44.285,0.053
44.290,0.069
44.295,0.076
44.300,0.183
44.305,0.428
44.310,0.576
44.315,0.565
44.320,0.520
44.325,0.484
44.330,0.491
44.335,0.478
44.340,0.432
44.345,0.426
44.350,0.421
44.355,0.386
44.360,0.368
44.365,0.363
44.370,0.340
44.375,0.318
44.380,0.310
44.385,0.294
44.390,0.273
44.395,0.261
44.400,0.149
44.405,-0.101
44.410,-0.257
44.415,-0.253
44.420,-0.213
44.425,-0.184
44.430,-0.198
44.435,-0.193
44.440,-0.154
44.445,-0.156
44.450,-0.159
44.455,-0.133
44.460,-0.124
44.465,-0.127
44.470,-0.113
44.475,-0.100
44.480,-0.100
44.485,-0.093
44.490,-0.080
44.495,-0.077
44.500,0.025
44.505,0.267
44.510,0.413
44.515,0.400
44.520,0.352
44.525,0.314
44.530,0.319
44.535,0.305
44.540,0.258
44.545,0.251
44.550,0.246
44.555,0.210
44.560,0.192
44.565,0.188
44.570,0.165
44.575,0.144
44.580,0.136
44.585,0.121
44.590,0.102
44.595,0.091
44.600,-0.020
44.605,-0.269
44.610,-0.422
44.615,-0.415
44.620,-0.374
44.625,-0.343
44.630,-0.355
44.635,-0.347
44.640,-0.306
44.645,-0.305
44.650,-0.306
44.655,-0.277
44.660,-0.265
44.665,-0.265
44.670,-0.248
44.675,-0.231
44.680,-0.229
44.685,-0.219
44.690,-0.203
44.695,-0.197
44.700,-0.091
44.705,0.153
44.710,0.303
44.715,0.292
44.720,0.247
44.725,0.213
44.730,0.221
44.735,0.210
44.740,0.165
44.745,0.161
44.750,0.160
44.755,0.128
44.760,0.113
44.765,0.112
44.770,0.092
44.775,0.074
44.780,0.069
44.785,0.057
44.790,0.039
44.795,0.031
44.800,-0.076
44.805,-0.322
44.810,-0.472
44.815,-0.463
44.820,-0.419
44.825,-0.386
44.830,-0.395
44.835,-0.384
44.840,-0.341
44.845,-0.338
44.850,-0.336
44.855,-0.304
44.860,-0.290
44.865,-0.289
44.870,-0.269
44.875,-0.251
44.880,-0.246
44.885,-0.233
44.890,-0.216
44.895,-0.208
44.900,-0.100
44.905,0.147
44.910,0.298
44.915,0.289
44.920,0.246
44.925,0.212
44.930,0.222
44.935,0.213
44.940,0.170
44.945,0.168
44.950,0.167
44.955,0.137
44.960,0.123
44.965,0.123
44.970,0.104
44.975,0.087
44.980,0.083
44.985,0.073
44.990,0.057
44.995,0.049
45.000,-0.058
45.005,-0.303
45.010,-0.452
45.015,-0.442
45.020,-0.397
45.025,-0.363
45.030,-0.371
45.035,-0.360
45.040,-0.316
45.045,-0.312
45.050,-0.310
45.055,-0.278
45.060,-0.263
45.065,-0.261
45.070,-0.240
45.075,-0.222
45.080,-0.216
45.085,-0.204
45.090,-0.187
45.095,-0.178
45.100,-0.069
45.105,0.178
45.110,0.328
45.115,0.319
45.120,0.276
45.125,0.244
45.130,0.254
45.135,0.244
45.140,0.201
45.145,0.200
45.150,0.199
45.155,0.168
45.160,0.154
45.165,0.154
45.170,0.135
45.175,0.118
45.180,0.114
45.185,0.103
45.190,0.087
45.195,0.080
45.200,-0.027
45.205,-0.272
45.210,-0.422
45.215,-0.412
45.220,-0.367
45.225,-0.333
45.230,-0.342
45.235,-0.331
45.240,-0.286
45.245,-0.283
45.250,-0.281
45.255,-0.249
45.260,-0.234
45.265,-0.233
45.270,-0.212
45.275,-0.194
45.280,-0.189
45.285,-0.177
45.290,-0.159
45.295,-0.151
45.300,-0.043
45.305,0.204
45.310,0.354
45.315,0.345
45.320,0.302
45.325,0.268
45.330,0.278
45.335,0.268
