'Elapsed time','ECG'
'seconds','mV'
0.000,0.005
0.005,-0.032
0.010,-0.032
0.015,-0.020
0.020,-0.012
0.025,-0.015
0.030,-0.019
0.035,-0.009
0.040,-0.010
0.045,-0.016
0.050,-0.010
0.055,-0.007
0.060,-0.005
0.065,-0.004
0.070,0.004
0.075,0.011
0.080,0.006
0.085,0.007
0.090,0.013
0.095,0.014
0.100,0.016
0.105,0.018
0.110,0.021
0.115,0.023
0.120,0.028
0.125,0.030
0.130,0.029
0.135,0.036
0.140,0.049
0.145,0.062
0.150,0.065
0.155,0.061
0.160,0.063
0.165,0.070
0.170,0.069
0.175,0.061
0.180,0.056
0.185,0.057
0.190,0.055
0.195,0.053
0.200,0.047
0.205,0.030
0.210,0.017
0.215,0.000
0.220,-0.020
0.225,-0.021
0.230,-0.028
0.235,-0.044
0.240,-0.051
0.245,-0.062
0.250,-0.070
0.255,-0.079
0.260,-0.088
0.265,-0.085
0.270,-0.082
0.275,-0.079
0.280,-0.079
0.285,-0.075
0.290,-0.074
0.295,-0.075
0.300,-0.066
0.305,-0.060
0.310,-0.063
0.315,-0.062
0.320,-0.057
0.325,-0.057
0.330,-0.051
0.335,-0.044
0.340,-0.048
0.345,-0.042
0.350,-0.042
0.355,-0.046
0.360,-0.032
0.365,-0.026
0.370,-0.031
0.375,-0.028
0.380,-0.034
0.385,-0.038
0.390,-0.031
0.395,-0.033
0.400,-0.034
0.405,-0.021
0.410,-0.019
0.415,-0.023
0.420,-0.023
0.425,-0.022
0.430,-0.017
0.435,-0.013
0.440,-0.016
0.445,-0.019
0.450,-0.010
0.455,-0.002
0.460,0.007
0.465,0.023
0.470,0.027
0.475,0.023
0.480,0.034
0.485,0.041
0.490,0.040
0.495,0.051
0.500,0.057
0.505,0.056
0.510,0.052
0.515,0.042
0.520,0.049
0.525,0.064
0.530,0.060
0.535,0.045
0.540,0.032
0.545,0.006
0.550,-0.026
0.555,-0.035
0.560,-0.025
0.565,-0.026
0.570,-0.032
0.575,-0.031
0.580,-0.037
0.585,-0.038
0.590,-0.033
0.595,-0.027
0.600,-0.013
0.605,-0.012
0.610,-0.017
0.615,-0.014
0.620,-0.013
0.625,-0.018
0.630,-0.020
0.635,-0.015
0.640,-0.015
0.645,-0.033
0.650,-0.035
0.655,0.031
0.660,0.179
0.665,0.359
0.670,0.430
0.675,0.303
0.680,0.066
0.685,-0.156
0.690,-0.251
0.695,-0.194
0.700,-0.109
0.705,-0.057
0.710,-0.027
0.715,-0.019
0.720,-0.009
0.725,0.006
0.730,0.007
0.735,0.001
0.740,-0.001
0.745,-0.004
0.750,0.009
0.755,0.024
0.760,0.014
0.765,0.008
0.770,0.012
0.775,0.012
0.780,0.013
0.785,0.016
0.790,0.016
0.795,0.016
0.800,0.010
0.805,0.013
0.810,0.025
0.815,0.029
0.820,0.031
0.825,0.032
0.830,0.027
0.835,0.030
0.840,0.041
0.845,0.040
0.850,0.032
0.855,0.034
0.860,0.044
0.865,0.049
0.870,0.052
0.875,0.054
0.880,0.059
0.885,0.061
0.890,0.057
0.895,0.064
0.900,0.078
0.905,0.080
0.910,0.069
0.915,0.070
0.920,0.070
0.925,0.061
0.930,0.061
0.935,0.064
0.940,0.056
0.945,0.049
0.950,0.047
0.955,0.034
0.960,0.006
0.965,-0.017
0.970,-0.026
0.975,-0.029
0.980,-0.037
0.985,-0.052
0.990,-0.066
0.995,-0.077
1.000,-0.096
1.005,-0.102
1.010,-0.091
1.015,-0.091
1.020,-0.095
1.025,-0.091
1.030,-0.082
1.035,-0.077
1.040,-0.081
1.045,-0.079
1.050,-0.071
1.055,-0.062
1.060,-0.057
1.065,-0.060
1.070,-0.063
1.075,-0.057
1.080,-0.049
1.085,-0.048
1.090,-0.053
1.095,-0.049
1.100,-0.038
1.105,-0.034
1.110,-0.034
1.115,-0.041
1.120,-0.040
1.125,-0.035
1.130,-0.034
1.135,-0.029
1.140,-0.031
1.145,-0.038
1.150,-0.038
1.155,-0.031
1.160,-0.023
1.165,-0.023
1.170,-0.025
1.175,-0.020
1.180,-0.014
1.185,-0.007
1.190,0.005
1.195,0.011
1.200,0.017
1.205,0.024
1.210,0.031
1.215,0.036
1.220,0.031
1.225,0.032
1.230,0.034
1.235,0.032
1.240,0.045
1.245,0.050
1.250,0.051
1.255,0.052
1.260,0.040
1.265,0.022
1.270,-0.009
1.275,-0.042
1.280,-0.054
1.285,-0.047
1.290,-0.038
1.295,-0.033
1.300,-0.027
1.305,-0.024
1.310,-0.028
1.315,-0.027
1.320,-0.021
1.325,-0.019
1.330,-0.023
1.335,-0.026
1.340,-0.025
1.345,-0.014
1.350,0.000
1.355,-0.002
1.360,-0.019
1.365,-0.035
1.370,-0.043
1.375,-0.008
1.380,0.112
1.385,0.278
1.390,0.383
1.395,0.332
1.400,0.132
1.405,-0.085
1.410,-0.213
1.415,-0.215
1.420,-0.131
1.425,-0.064
1.430,-0.028
1.435,-0.007
1.440,0.001
1.445,0.006
1.450,-0.002
1.455,-0.005
1.460,0.014
1.465,0.014
1.470,-0.003
1.475,0.010
1.480,0.018
1.485,0.010
1.490,0.007
1.495,0.018
1.500,0.032
1.505,0.030
1.510,0.014
1.515,0.008
1.520,0.023
1.525,0.026
1.530,0.025
1.535,0.030
1.540,0.025
1.545,0.026
1.550,0.034
1.555,0.037
1.560,0.041
1.565,0.043
1.570,0.039
1.575,0.040
1.580,0.042
1.585,0.038
1.590,0.044
1.595,0.052
1.600,0.057
1.605,0.065
1.610,0.067
1.615,0.063
1.620,0.073
1.625,0.085
1.630,0.081
1.635,0.066
1.640,0.061
1.645,0.076
1.650,0.080
1.655,0.061
1.660,0.051
1.665,0.055
1.670,0.049
1.675,0.029
1.680,0.002
1.685,-0.014
1.690,-0.021
1.695,-0.036
1.700,-0.050
1.705,-0.057
1.710,-0.067
1.715,-0.078
1.720,-0.079
1.725,-0.084
1.730,-0.088
1.735,-0.085
1.740,-0.078
1.745,-0.076
1.750,-0.080
1.755,-0.079
1.760,-0.074
1.765,-0.070
1.770,-0.068
1.775,-0.063
1.780,-0.057
1.785,-0.058
1.790,-0.060
1.795,-0.051
1.800,-0.045
1.805,-0.048
1.810,-0.044
1.815,-0.032
1.820,-0.029
1.825,-0.032
1.830,-0.035
1.835,-0.033
1.840,-0.033
1.845,-0.037
1.850,-0.028
1.855,-0.023
1.860,-0.030
1.865,-0.028
1.870,-0.021
1.875,-0.019
1.880,-0.022
1.885,-0.026
1.890,-0.026
1.895,-0.020
1.900,-0.018
1.905,-0.015
1.910,-0.004
1.915,0.005
1.920,0.013
1.925,0.025
1.930,0.025
1.935,0.027
1.940,0.037
1.945,0.035
1.950,0.031
1.955,0.033
1.960,0.039
1.965,0.047
1.970,0.048
1.975,0.044
1.980,0.041
1.985,0.022
1.990,-0.011
1.995,-0.032
2.000,-0.037
2.005,-0.035
2.010,-0.033
2.015,-0.037
2.020,-0.033
2.025,-0.025
2.030,-0.024
2.035,-0.027
2.040,-0.034
2.045,-0.036
2.050,-0.024
2.055,-0.015
2.060,-0.012
2.065,-0.009
2.070,-0.012
2.075,-0.012
2.080,-0.016
2.085,-0.036
2.090,-0.037
2.095,0.007
2.100,0.115
2.105,0.271
2.110,0.373
2.115,0.329
2.120,0.153
2.125,-0.056
2.130,-0.191
2.135,-0.194
2.140,-0.116
2.145,-0.057
2.150,-0.032
2.155,-0.022
2.160,-0.013
2.165,-0.002
2.170,-0.005
2.175,-0.009
2.180,-0.006
2.185,-0.006
2.190,-0.004
2.195,0.003
2.200,0.009
2.205,0.005
2.210,0.004
2.215,0.016
2.220,0.017
2.225,0.008
2.230,0.011
2.235,0.016
2.240,0.015
2.245,0.017
2.250,0.016
2.255,0.022
2.260,0.027
2.265,0.022
2.270,0.029
2.275,0.035
2.280,0.023
2.285,0.019
2.290,0.036
2.295,0.047
2.300,0.044
2.305,0.044
2.310,0.043
2.315,0.049
2.320,0.056
2.325,0.049
2.330,0.053
2.335,0.065
2.340,0.063
2.345,0.072
2.350,0.078
2.355,0.063
2.360,0.066
2.365,0.079
2.370,0.074
2.375,0.062
2.380,0.051
2.385,0.052
2.390,0.055
2.395,0.034
2.400,0.006
2.405,-0.006
2.410,-0.017
2.415,-0.032
2.420,-0.046
2.425,-0.055
2.430,-0.061
2.435,-0.077
2.440,-0.089
2.445,-0.084
2.450,-0.080
2.455,-0.079
2.460,-0.074
2.465,-0.074
2.470,-0.076
2.475,-0.073
2.480,-0.068
2.485,-0.066
2.490,-0.068
2.495,-0.065
2.500,-0.057
2.505,-0.051
2.510,-0.053
2.515,-0.059
2.520,-0.052
2.525,-0.047
2.530,-0.046
2.535,-0.034
2.540,-0.034
2.545,-0.037
2.550,-0.031
2.555,-0.029
2.560,-0.025
2.565,-0.034
2.570,-0.034
2.575,-0.023
2.580,-0.027
2.585,-0.035
2.590,-0.036
2.595,-0.034
2.600,-0.035
2.605,-0.028
2.610,-0.019
2.615,-0.009
2.620,-0.011
2.625,-0.019
2.630,-0.012
2.635,0.000
2.640,0.011
2.645,0.023
2.650,0.026
2.655,0.024
2.660,0.029
2.665,0.034
2.670,0.036
2.675,0.035
2.680,0.033
2.685,0.045
2.690,0.056
2.695,0.051
2.700,0.046
2.705,0.045
2.710,0.042
2.715,0.024
2.720,-0.010
2.725,-0.034
2.730,-0.034
2.735,-0.030
2.740,-0.032
2.745,-0.030
2.750,-0.030
2.755,-0.034
2.760,-0.033
2.765,-0.026
2.770,-0.018
2.775,-0.016
2.780,-0.019
2.785,-0.020
2.790,-0.014
2.795,-0.010
2.800,-0.012
2.805,-0.013
2.810,-0.023
2.815,-0.036
2.820,-0.031
2.825,0.013
2.830,0.132
2.835,0.301
2.840,0.397
2.845,0.331
2.850,0.141
2.855,-0.068
2.860,-0.190
2.865,-0.190
2.870,-0.122
2.875,-0.063
2.880,-0.032
2.885,-0.026
2.890,-0.023
2.895,-0.013
2.900,-0.011
2.905,-0.014
2.910,-0.009
2.915,-0.005
2.920,-0.001
2.925,0.006
2.930,0.008
2.935,0.004
2.940,0.007
2.945,0.012
2.950,0.004
2.955,0.000
2.960,0.013
2.965,0.020
2.970,0.020
2.975,0.014
2.980,0.007
2.985,0.014
2.990,0.025
2.995,0.027
3.000,0.023
3.005,0.025
3.010,0.030
3.015,0.030
3.020,0.032
3.025,0.032
3.030,0.038
3.035,0.044
3.040,0.040
3.045,0.044
3.050,0.052
3.055,0.057
3.060,0.059
3.065,0.062
3.070,0.066
3.075,0.073
3.080,0.076
3.085,0.067
3.090,0.064
3.095,0.064
3.100,0.065
3.105,0.070
3.110,0.063
3.115,0.050
3.120,0.044
3.125,0.026
3.130,0.011
3.135,0.002
3.140,-0.016
3.145,-0.027
3.150,-0.036
3.155,-0.055
3.160,-0.065
3.165,-0.072
3.170,-0.082
3.175,-0.082
3.180,-0.083
3.185,-0.089
3.190,-0.083
3.195,-0.074
3.200,-0.078
3.205,-0.077
3.210,-0.074
3.215,-0.072
3.220,-0.061
3.225,-0.059
3.230,-0.061
3.235,-0.053
3.240,-0.048
3.245,-0.050
3.250,-0.056
3.255,-0.057
3.260,-0.044
3.265,-0.037
3.270,-0.042
3.275,-0.046
3.280,-0.042
3.285,-0.033
3.290,-0.030
3.295,-0.031
3.300,-0.029
3.305,-0.031
3.310,-0.031
3.315,-0.029
3.320,-0.034
3.325,-0.028
3.330,-0.026
3.335,-0.026
3.340,-0.018
3.345,-0.016
3.350,-0.014
3.355,-0.015
3.360,-0.017
3.365,-0.012
3.370,-0.011
3.375,-0.010
3.380,0.000
3.385,0.010
3.390,0.015
3.395,0.018
3.400,0.025
3.405,0.031
3.410,0.034
3.415,0.038
3.420,0.046
3.425,0.056
3.430,0.057
3.435,0.051
3.440,0.051
3.445,0.054
3.450,0.058
3.455,0.061
3.460,0.047
3.465,0.018
3.470,-0.012
3.475,-0.037
3.480,-0.040
3.485,-0.036
3.490,-0.033
3.495,-0.027
3.500,-0.027
3.505,-0.033
3.510,-0.034
3.515,-0.026
3.520,-0.021
3.525,-0.019
3.530,-0.014
3.535,-0.013
3.540,-0.015
3.545,-0.014
3.550,-0.012
3.555,-0.010
3.560,-0.020
3.565,-0.033
3.570,-0.029
3.575,0.013
3.580,0.128
3.585,0.294
3.590,0.398
3.595,0.340
3.600,0.136
3.605,-0.078
3.610,-0.195
3.615,-0.198
3.620,-0.128
3.625,-0.067
3.630,-0.033
3.635,-0.017
3.640,-0.010
3.645,-0.005
3.650,-0.008
3.655,-0.009
3.660,-0.006
3.665,-0.009
3.670,-0.010
3.675,-0.006
3.680,-0.003
3.685,0.003
3.690,0.010
3.695,0.011
3.700,0.010
3.705,0.011
3.710,0.014
3.715,0.016
3.720,0.015
3.725,0.015
3.730,0.020
3.735,0.021
3.740,0.019
3.745,0.025
3.750,0.030
3.755,0.026
3.760,0.027
3.765,0.026
3.770,0.025
3.775,0.034
3.780,0.043
3.785,0.044
3.790,0.045
3.795,0.045
3.800,0.046
3.805,0.053
3.810,0.060
3.815,0.062
3.820,0.063
3.825,0.063
3.830,0.068
3.835,0.071
3.840,0.072
3.845,0.069
3.850,0.060
3.855,0.058
3.860,0.057
3.865,0.057
3.870,0.054
3.875,0.032
3.880,0.012
3.885,0.003
3.890,-0.005
3.895,-0.019
3.900,-0.037
3.905,-0.053
3.910,-0.066
3.915,-0.074
3.920,-0.077
3.925,-0.077
3.930,-0.075
3.935,-0.079
3.940,-0.088
3.945,-0.084
3.950,-0.076
3.955,-0.073
3.960,-0.067
3.965,-0.067
3.970,-0.062
3.975,-0.057
3.980,-0.059
3.985,-0.058
3.990,-0.063
3.995,-0.056
4.000,-0.043
4.005,-0.043
4.010,-0.044
4.015,-0.043
4.020,-0.044
4.025,-0.041
4.030,-0.041
4.035,-0.042
4.040,-0.038
4.045,-0.033
4.050,-0.033
4.055,-0.029
4.060,-0.022
4.065,-0.025
4.070,-0.023
4.075,-0.021
4.080,-0.030
4.085,-0.030
4.090,-0.023
4.095,-0.022
4.100,-0.021
4.105,-0.019
4.110,-0.018
4.115,-0.013
4.120,-0.011
4.125,-0.012
4.130,-0.010
4.135,-0.005
4.140,-0.005
4.145,-0.002
4.150,0.002
4.155,-0.001
4.160,-0.003
4.165,0.000
4.170,0.003
4.175,0.001
4.180,-0.001
4.185,0.009
4.190,0.021
4.195,0.033
4.200,0.041
4.205,0.040
4.210,0.044
4.215,0.048
4.220,0.049
4.225,0.059
4.230,0.066
4.235,0.064
4.240,0.059
4.245,0.062
4.250,0.063
4.255,0.061
4.260,0.058
4.265,0.034
4.270,-0.001
4.275,-0.028
4.280,-0.037
4.285,-0.029
4.290,-0.020
4.295,-0.020
4.300,-0.022
4.305,-0.018
4.310,-0.016
4.315,-0.022
4.320,-0.021
4.325,-0.018
4.330,-0.017
4.335,-0.010
4.340,-0.010
4.345,-0.016
4.350,-0.014
4.355,-0.012
4.360,-0.020
4.365,-0.025
4.370,-0.021
4.375,0.002
4.380,0.087
4.385,0.231
4.390,0.367
4.395,0.380
4.400,0.216
4.405,-0.012
4.410,-0.177
4.415,-0.223
4.420,-0.163
4.425,-0.086
4.430,-0.042
4.435,-0.023
4.440,-0.022
4.445,-0.011
4.450,-0.003
4.455,-0.011
4.460,-0.005
4.465,0.004
4.470,-0.003
4.475,-0.005
4.480,0.002
4.485,0.005
4.490,0.000
4.495,-0.005
4.500,-0.001
4.505,0.003
4.510,-0.001
4.515,-0.001
4.520,0.010
4.525,0.023
4.530,0.025
4.535,0.016
4.540,0.018
4.545,0.022
4.550,0.019
4.555,0.016
4.560,0.018
4.565,0.030
4.570,0.036
4.575,0.036
4.580,0.039
4.585,0.037
4.590,0.035
4.595,0.038
4.600,0.043
4.605,0.050
4.610,0.049
4.615,0.048
4.620,0.055
4.625,0.063
4.630,0.070
4.635,0.069
4.640,0.065
4.645,0.068
4.650,0.073
4.655,0.070
4.660,0.064
4.665,0.058
4.670,0.046
4.675,0.035
4.680,0.026
4.685,0.015
4.690,0.002
4.695,-0.015
4.700,-0.029
4.705,-0.042
4.710,-0.058
4.715,-0.076
4.720,-0.086
4.725,-0.090
4.730,-0.097
4.735,-0.088
4.740,-0.081
4.745,-0.087
4.750,-0.090
4.755,-0.089
4.760,-0.085
4.765,-0.089
4.770,-0.085
4.775,-0.071
4.780,-0.068
4.785,-0.071
4.790,-0.071
4.795,-0.060
4.800,-0.053
4.805,-0.052
4.810,-0.049
4.815,-0.048
4.820,-0.046
4.825,-0.055
4.830,-0.064
4.835,-0.051
4.840,-0.038
4.845,-0.036
4.850,-0.041
4.855,-0.044
4.860,-0.033
4.865,-0.028
4.870,-0.032
4.875,-0.027
4.880,-0.024
4.885,-0.030
4.890,-0.036
4.895,-0.036
4.900,-0.027
4.905,-0.020
4.910,-0.016
4.915,-0.014
4.920,-0.008
4.925,-0.007
4.930,-0.010
4.935,-0.007
4.940,-0.006
4.945,0.008
4.950,0.019
4.955,0.026
4.960,0.034
4.965,0.029
4.970,0.030
4.975,0.037
4.980,0.049
4.985,0.058
4.990,0.056
4.995,0.056
5.000,0.061
5.005,0.067
5.010,0.054
5.015,0.045
5.020,0.043
5.025,0.008
5.030,-0.026
5.035,-0.038
5.040,-0.037
5.045,-0.023
5.050,-0.027
5.055,-0.035
5.060,-0.027
5.065,-0.025
5.070,-0.022
5.075,-0.016
5.080,-0.014
5.085,-0.021
5.090,-0.027
5.095,-0.015
5.100,-0.009
5.105,-0.012
5.110,-0.012
5.115,-0.015
5.120,-0.018
5.125,-0.027
5.130,-0.029
5.135,0.028
5.140,0.161
5.145,0.323
5.150,0.404
5.155,0.297
5.160,0.058
5.165,-0.157
5.170,-0.257
5.175,-0.218
5.180,-0.118
5.185,-0.053
5.190,-0.015
5.195,-0.003
5.200,-0.002
5.205,0.005
5.210,0.001
5.215,0.003
5.220,0.011
5.225,0.017
5.230,0.017
5.235,0.008
5.240,0.009
5.245,0.019
5.250,0.028
5.255,0.030
5.260,0.022
5.265,0.013
5.270,0.014
5.275,0.022
5.280,0.025
5.285,0.032
5.290,0.033
5.295,0.023
5.300,0.025
5.305,0.032
5.310,0.041
5.315,0.050
5.320,0.041
5.325,0.035
5.330,0.036
5.335,0.043
5.340,0.055
5.345,0.050
5.350,0.044
5.355,0.049
5.360,0.061
5.365,0.064
5.370,0.063
5.375,0.066
5.380,0.070
5.385,0.078
5.390,0.081
5.395,0.076
5.400,0.078
5.405,0.073
5.410,0.059
5.415,0.071
5.420,0.074
5.425,0.051
5.430,0.040
5.435,0.023
5.440,0.010
5.445,0.003
5.450,-0.021
5.455,-0.037
5.460,-0.052
5.465,-0.072
5.470,-0.081
5.475,-0.081
5.480,-0.079
5.485,-0.085
5.490,-0.096
5.495,-0.099
5.500,-0.096
5.505,-0.089
5.510,-0.090
5.515,-0.094
5.520,-0.089
5.525,-0.078
5.530,-0.066
5.535,-0.062
5.540,-0.064
5.545,-0.064
5.550,-0.060
5.555,-0.050
5.560,-0.044
5.565,-0.050
5.570,-0.050
5.575,-0.046
5.580,-0.047
5.585,-0.040
5.590,-0.035
5.595,-0.029
5.600,-0.021
5.605,-0.030
5.610,-0.034
5.615,-0.029
5.620,-0.031
5.625,-0.032
5.630,-0.036
5.635,-0.038
5.640,-0.030
5.645,-0.025
5.650,-0.027
5.655,-0.022
5.660,-0.016
5.665,-0.011
5.670,-0.009
5.675,-0.025
5.680,-0.030
5.685,-0.013
5.690,0.002
5.695,0.011
5.700,0.006
5.705,-0.008
5.710,-0.007
5.715,0.012
5.720,0.031
5.725,0.039
5.730,0.039
5.735,0.040
5.740,0.043
5.745,0.051
5.750,0.060
5.755,0.055
5.760,0.050
5.765,0.048
5.770,0.047
5.775,0.053
5.780,0.038
5.785,0.012
5.790,-0.009
5.795,-0.027
5.800,-0.036
5.805,-0.030
5.810,-0.018
5.815,-0.020
5.820,-0.028
5.825,-0.032
5.830,-0.031
5.835,-0.024
5.840,-0.018
5.845,-0.014
5.850,-0.010
5.855,-0.009
5.860,-0.015
5.865,-0.013
5.870,-0.011
5.875,-0.017
5.880,-0.027
5.885,-0.036
5.890,-0.005
5.895,0.099
5.900,0.250
5.905,0.361
5.910,0.341
5.915,0.168
5.920,-0.052
5.925,-0.199
5.930,-0.224
5.935,-0.151
5.940,-0.072
5.945,-0.029
5.950,-0.012
5.955,-0.010
5.960,-0.007
5.965,-0.002
5.970,0.002
5.975,0.008
5.980,0.011
5.985,0.001
5.990,-0.001
5.995,0.009
6.000,0.015
6.005,0.018
6.010,0.012
6.015,-0.001
6.020,0.004
6.025,0.011
6.030,0.014
6.035,0.022
6.040,0.028
6.045,0.030
6.050,0.022
6.055,0.020
6.060,0.031
6.065,0.039
6.070,0.037
6.075,0.030
6.080,0.028
6.085,0.028
6.090,0.032
6.095,0.040
6.100,0.041
6.105,0.042
6.110,0.046
6.115,0.051
6.120,0.055
6.125,0.056
6.130,0.054
6.135,0.053
6.140,0.060
6.145,0.064
6.150,0.072
6.155,0.082
6.160,0.077
6.165,0.074
6.170,0.071
6.175,0.060
6.180,0.045
6.185,0.030
6.190,0.022
6.195,0.014
6.200,0.002
6.205,-0.011
6.210,-0.022
6.215,-0.037
6.220,-0.054
6.225,-0.062
6.230,-0.068
6.235,-0.075
6.240,-0.085
6.245,-0.091
6.250,-0.083
6.255,-0.080
6.260,-0.082
6.265,-0.086
6.270,-0.088
6.275,-0.076
6.280,-0.062
6.285,-0.057
6.290,-0.062
6.295,-0.066
6.300,-0.063
6.305,-0.060
6.310,-0.055
6.315,-0.051
6.320,-0.050
6.325,-0.041
6.330,-0.035
6.335,-0.039
6.340,-0.042
6.345,-0.034
6.350,-0.029
6.355,-0.032
6.360,-0.028
6.365,-0.024
6.370,-0.027
6.375,-0.034
6.380,-0.038
6.385,-0.029
6.390,-0.021
6.395,-0.020
6.400,-0.018
6.405,-0.025
6.410,-0.031
6.415,-0.031
6.420,-0.027
6.425,-0.017
6.430,-0.011
6.435,-0.013
6.440,-0.015
6.445,-0.014
6.450,-0.010
6.455,0.001
6.460,0.008
6.465,0.011
6.470,0.018
6.475,0.018
6.480,0.019
6.485,0.030
6.490,0.035
6.495,0.044
6.500,0.051
6.505,0.050
6.510,0.045
6.515,0.042
6.520,0.047
6.525,0.059
6.530,0.058
6.535,0.044
6.540,0.033
6.545,0.007
6.550,-0.025
6.555,-0.035
6.560,-0.034
6.565,-0.027
6.570,-0.022
6.575,-0.029
6.580,-0.029
6.585,-0.021
6.590,-0.020
6.595,-0.018
6.600,-0.012
6.605,-0.015
6.610,-0.018
6.615,-0.012
6.620,-0.014
6.625,-0.013
6.630,-0.013
6.635,-0.029
6.640,-0.035
6.645,-0.017
6.650,0.041
6.655,0.169
6.660,0.319
6.665,0.382
6.670,0.292
6.675,0.089
6.680,-0.110
6.685,-0.197
6.690,-0.163
6.695,-0.095
6.700,-0.054
6.705,-0.032
6.710,-0.026
6.715,-0.019
6.720,-0.005
6.725,-0.010
6.730,-0.008
6.735,0.004
6.740,-0.006
6.745,-0.011
6.750,0.003
6.755,0.007
6.760,0.006
6.765,0.003
6.770,0.004
6.775,0.012
6.780,0.015
6.785,0.017
6.790,0.019
6.795,0.018
6.800,0.018
6.805,0.019
6.810,0.024
6.815,0.023
6.820,0.018
6.825,0.018
6.830,0.018
6.835,0.020
6.840,0.028
6.845,0.035
6.850,0.036
6.855,0.038
6.860,0.043
6.865,0.046
6.870,0.051
6.875,0.054
6.880,0.056
6.885,0.060
6.890,0.064
6.895,0.066
6.900,0.064
6.905,0.060
6.910,0.064
6.915,0.070
6.920,0.064
6.925,0.060
6.930,0.060
6.935,0.057
6.940,0.057
6.945,0.047
6.950,0.037
6.955,0.021
6.960,-0.004
6.965,-0.022
6.970,-0.032
6.975,-0.041
6.980,-0.057
6.985,-0.076
6.990,-0.088
6.995,-0.082
7.000,-0.070
7.005,-0.077
7.010,-0.085
7.015,-0.082
7.020,-0.082
7.025,-0.078
7.030,-0.078
7.035,-0.080
7.040,-0.068
7.045,-0.067
7.050,-0.068
7.055,-0.057
7.060,-0.054
7.065,-0.055
7.070,-0.057
7.075,-0.058
7.080,-0.047
7.085,-0.040
7.090,-0.041
7.095,-0.038
7.100,-0.036
7.105,-0.044
7.110,-0.045
7.115,-0.036
7.120,-0.030
7.125,-0.029
7.130,-0.033
7.135,-0.031
7.140,-0.022
7.145,-0.026
7.150,-0.029
7.155,-0.026
7.160,-0.025
7.165,-0.020
7.170,-0.016
7.175,-0.016
7.180,-0.017
7.185,-0.019
7.190,-0.013
7.195,-0.009
7.200,-0.009
7.205,-0.007
7.210,-0.009
7.215,-0.010
7.220,-0.007
7.225,-0.005
7.230,-0.001
7.235,0.002
7.240,0.012
7.245,0.027
7.250,0.034
7.255,0.031
7.260,0.031
7.265,0.041
7.270,0.046
7.275,0.049
7.280,0.055
7.285,0.050
7.290,0.046
7.295,0.049
7.300,0.058
7.305,0.061
7.310,0.055
7.315,0.047
7.320,0.032
7.325,-0.001
7.330,-0.032
7.335,-0.038
7.340,-0.028
7.345,-0.019
7.350,-0.021
7.355,-0.028
7.360,-0.028
7.365,-0.022
7.370,-0.019
7.375,-0.024
7.380,-0.027
7.385,-0.021
7.390,-0.011
7.395,-0.005
7.400,-0.008
7.405,-0.012
7.410,-0.016
7.415,-0.027
7.420,-0.033
7.425,-0.013
7.430,0.052
7.435,0.186
7.440,0.348
7.445,0.398
7.450,0.265
7.455,0.040
7.460,-0.157
7.465,-0.230
7.470,-0.179
7.475,-0.105
7.480,-0.055
7.485,-0.027
7.490,-0.020
7.495,-0.005
7.500,0.002
7.505,-0.012
7.510,-0.013
7.515,-0.006
7.520,-0.003
7.525,0.000
7.530,0.006
7.535,0.007
7.540,0.006
7.545,0.009
7.550,0.008
7.555,0.007
7.560,0.008
7.565,0.008
7.570,0.010
7.575,0.019
7.580,0.020
7.585,0.017
7.590,0.018
7.595,0.018
7.600,0.021
7.605,0.023
7.610,0.027
7.615,0.035
7.620,0.035
7.625,0.031
7.630,0.029
7.635,0.035
7.640,0.043
7.645,0.046
7.650,0.043
7.655,0.043
7.660,0.049
7.665,0.055
7.670,0.060
7.675,0.066
7.680,0.072
7.685,0.073
7.690,0.070
7.695,0.064
7.700,0.064
7.705,0.066
7.710,0.057
7.715,0.050
7.720,0.051
7.725,0.043
7.730,0.026
7.735,0.010
7.740,-0.004
7.745,-0.010
7.750,-0.020
7.755,-0.044
7.760,-0.060
7.765,-0.060
7.770,-0.062
7.775,-0.073
7.780,-0.080
7.785,-0.085
7.790,-0.084
7.795,-0.082
7.800,-0.080
7.805,-0.076
7.810,-0.074
7.815,-0.074
7.820,-0.073
7.825,-0.071
7.830,-0.070
7.835,-0.066
7.840,-0.058
7.845,-0.050
7.850,-0.048
7.855,-0.050
7.860,-0.048
7.865,-0.047
7.870,-0.048
7.875,-0.043
7.880,-0.037
7.885,-0.038
7.890,-0.034
7.895,-0.027
7.900,-0.027
7.905,-0.027
7.910,-0.033
7.915,-0.038
7.920,-0.034
7.925,-0.031
7.930,-0.023
7.935,-0.021
7.940,-0.029
7.945,-0.030
7.950,-0.021
7.955,-0.015
7.960,-0.013
7.965,-0.020
7.970,-0.026
7.975,-0.018
7.980,-0.010
7.985,-0.004
7.990,0.002
7.995,-0.009
8.000,-0.018
8.005,-0.011
8.010,-0.006
8.015,-0.001
8.020,0.001
8.025,0.001
8.030,0.004
8.035,0.005
8.040,0.002
8.045,0.007
8.050,0.020
8.055,0.030
8.060,0.038
8.065,0.042
8.070,0.043
8.075,0.048
8.080,0.050
8.085,0.053
8.090,0.057
8.095,0.055
8.100,0.054
8.105,0.058
8.110,0.063
8.115,0.062
8.120,0.054
8.125,0.044
8.130,0.024
8.135,-0.009
8.140,-0.033
8.145,-0.035
8.150,-0.021
8.155,-0.019
8.160,-0.030
8.165,-0.025
8.170,-0.014
8.175,-0.020
8.180,-0.028
8.185,-0.028
8.190,-0.020
8.195,-0.011
8.200,-0.007
8.205,-0.010
8.210,-0.008
8.215,-0.007
8.220,-0.017
8.225,-0.026
8.230,-0.030
8.235,-0.018
8.240,0.049
8.245,0.188
8.250,0.336
8.255,0.384
8.260,0.269
8.265,0.050
8.270,-0.148
8.275,-0.231
8.280,-0.185
8.285,-0.102
8.290,-0.049
8.295,-0.026
8.300,-0.021
8.305,-0.008
8.310,-0.004
8.315,-0.017
8.320,-0.013
8.325,-0.005
8.330,-0.012
8.335,-0.012
8.340,0.003
8.345,0.010
8.350,0.010
8.355,0.005
8.360,0.002
8.365,0.005
8.370,0.009
8.375,0.014
8.380,0.014
8.385,0.013
8.390,0.016
8.395,0.018
8.400,0.017
8.405,0.018
8.410,0.022
8.415,0.024
8.420,0.017
8.425,0.020
8.430,0.031
8.435,0.035
8.440,0.039
8.445,0.035
8.450,0.035
8.455,0.038
8.460,0.036
8.465,0.046
8.470,0.058
8.475,0.054
8.480,0.051
8.485,0.055
8.490,0.063
8.495,0.069
8.500,0.068
8.505,0.062
8.510,0.061
8.515,0.065
8.520,0.061
8.525,0.055
8.530,0.053
8.535,0.041
8.540,0.026
8.545,0.015
8.550,0.002
8.555,-0.005
8.560,-0.021
8.565,-0.041
8.570,-0.050
8.575,-0.058
8.580,-0.071
8.585,-0.083
8.590,-0.088
8.595,-0.087
8.600,-0.083
8.605,-0.077
8.610,-0.074
8.615,-0.078
8.620,-0.082
8.625,-0.083
8.630,-0.076
8.635,-0.069
8.640,-0.067
8.645,-0.068
8.650,-0.068
8.655,-0.062
8.660,-0.051
8.665,-0.048
8.670,-0.047
8.675,-0.042
8.680,-0.044
8.685,-0.047
8.690,-0.050
8.695,-0.049
8.700,-0.037
8.705,-0.030
8.710,-0.032
8.715,-0.037
8.720,-0.035
8.725,-0.031
8.730,-0.032
8.735,-0.028
8.740,-0.025
8.745,-0.022
8.750,-0.023
8.755,-0.029
8.760,-0.025
8.765,-0.015
8.770,-0.013
8.775,-0.013
8.780,-0.017
8.785,-0.017
8.790,-0.011
8.795,-0.009
8.800,-0.008
8.805,-0.009
8.810,-0.006
8.815,-0.002
8.820,-0.004
8.825,-0.006
8.830,-0.005
8.835,-0.004
8.840,-0.001
8.845,0.006
8.850,0.010
8.855,0.011
8.860,0.012
8.865,0.020
8.870,0.030
8.875,0.033
8.880,0.042
8.885,0.049
8.890,0.051
8.895,0.050
8.900,0.047
8.905,0.056
8.910,0.068
8.915,0.064
8.920,0.060
8.925,0.067
8.930,0.062
8.935,0.054
8.940,0.047
8.945,0.031
8.950,0.007
8.955,-0.025
8.960,-0.039
8.965,-0.023
8.970,-0.020
8.975,-0.035
8.980,-0.034
8.985,-0.016
8.990,-0.011
8.995,-0.023
9.000,-0.028
9.005,-0.023
9.010,-0.022
9.015,-0.023
9.020,-0.013
9.025,-0.008
9.030,-0.009
9.035,-0.017
9.040,-0.034
9.045,-0.039
9.050,-0.033
9.055,0.021
9.060,0.161
9.065,0.325
9.070,0.406
9.075,0.316
9.080,0.092
9.085,-0.126
9.090,-0.251
9.095,-0.242
9.100,-0.147
9.105,-0.072
9.110,-0.027
9.115,-0.014
9.120,-0.013
9.125,0.003
9.130,0.000
9.135,-0.009
9.140,0.000
9.145,0.001
9.150,0.001
9.155,0.010
9.160,0.007
9.165,-0.002
9.170,0.004
9.175,0.019
9.180,0.020
9.185,0.011
9.190,0.012
9.195,0.022
9.200,0.021
9.205,0.016
9.210,0.019
9.215,0.025
9.220,0.028
9.225,0.029
9.230,0.029
9.235,0.030
9.240,0.033
9.245,0.031
9.250,0.031
9.255,0.036
9.260,0.040
9.265,0.042
9.270,0.041
9.275,0.046
9.280,0.062
9.285,0.066
9.290,0.062
9.295,0.066
9.300,0.066
9.305,0.072
9.310,0.082
9.315,0.079
9.320,0.071
9.325,0.068
9.330,0.067
9.335,0.071
9.340,0.068
9.345,0.059
9.350,0.057
9.355,0.041
9.360,0.013
9.365,0.000
9.370,-0.005
9.375,-0.019
9.380,-0.041
9.385,-0.057
9.390,-0.066
9.395,-0.077
9.400,-0.088
9.405,-0.091
9.410,-0.088
9.415,-0.091
9.420,-0.106
9.425,-0.111
9.430,-0.096
9.435,-0.081
9.440,-0.074
9.445,-0.082
9.450,-0.085
9.455,-0.075
9.460,-0.067
9.465,-0.061
9.470,-0.061
9.475,-0.061
9.480,-0.058
9.485,-0.058
9.490,-0.053
9.495,-0.046
9.500,-0.042
9.505,-0.040
9.510,-0.048
9.515,-0.052
9.520,-0.045
9.525,-0.041
9.530,-0.038
9.535,-0.032
9.540,-0.028
9.545,-0.029
9.550,-0.029
9.555,-0.029
9.560,-0.025
9.565,-0.019
9.570,-0.026
9.575,-0.031
9.580,-0.020
9.585,-0.013
9.590,-0.020
9.595,-0.028
9.600,-0.026
9.605,-0.012
9.610,-0.004
9.615,-0.007
9.620,-0.004
9.625,0.013
9.630,0.031
9.635,0.033
9.640,0.029
9.645,0.036
9.650,0.044
9.655,0.046
9.660,0.050
9.665,0.048
9.670,0.039
9.675,0.048
9.680,0.062
9.685,0.058
9.690,0.053
9.695,0.036
9.700,0.007
9.705,-0.010
9.710,-0.029
9.715,-0.040
9.720,-0.030
9.725,-0.027
9.730,-0.023
9.735,-0.026
9.740,-0.036
9.745,-0.028
9.750,-0.015
9.755,-0.011
9.760,-0.017
9.765,-0.023
9.770,-0.021
9.775,-0.012
9.780,-0.007
9.785,-0.008
9.790,-0.008
9.795,-0.018
9.800,-0.034
9.805,-0.031
9.810,0.015
9.815,0.143
9.820,0.316
9.825,0.400
9.830,0.293
9.835,0.063
9.840,-0.153
9.845,-0.262
9.850,-0.223
9.855,-0.130
9.860,-0.064
9.865,-0.016
9.870,0.006
9.875,0.010
9.880,0.014
9.885,0.011
9.890,0.008
9.895,0.012
9.900,0.013
9.905,0.006
9.910,0.014
9.915,0.016
9.920,0.004
9.925,0.013
9.930,0.028
9.935,0.033
9.940,0.035
9.945,0.029
9.950,0.023
9.955,0.016
9.960,0.022
9.965,0.028
9.970,0.027
9.975,0.035
9.980,0.035
9.985,0.034
9.990,0.039
9.995,0.045
10.000,0.051
10.005,0.045
10.010,0.037
10.015,0.034
10.020,0.042
10.025,0.057
10.030,0.063
10.035,0.061
10.040,0.054
10.045,0.051
10.050,0.063
10.055,0.072
10.060,0.072
10.065,0.079
10.070,0.090
10.075,0.084
10.080,0.069
10.085,0.060
10.090,0.054
10.095,0.057
10.100,0.058
10.105,0.040
10.110,0.021
10.115,0.012
10.120,-0.001
10.125,-0.018
10.130,-0.037
10.135,-0.063
10.140,-0.070
10.145,-0.068
10.150,-0.081
10.155,-0.091
10.160,-0.091
10.165,-0.084
10.170,-0.087
10.175,-0.095
10.180,-0.096
10.185,-0.092
10.190,-0.088
10.195,-0.089
10.200,-0.087
10.205,-0.075
10.210,-0.062
10.215,-0.055
10.220,-0.049
10.225,-0.046
10.230,-0.052
10.235,-0.053
10.240,-0.050
10.245,-0.048
10.250,-0.041
10.255,-0.034
10.260,-0.032
10.265,-0.037
10.270,-0.045
10.275,-0.043
10.280,-0.034
10.285,-0.028
10.290,-0.023
10.295,-0.026
10.300,-0.032
10.305,-0.030
10.310,-0.025
10.315,-0.018
10.320,-0.014
10.325,-0.017
10.330,-0.025
10.335,-0.029
10.340,-0.028
10.345,-0.021
10.350,-0.007
10.355,-0.002
10.360,-0.004
10.365,0.006
10.370,0.020
10.375,0.029
10.380,0.029
10.385,0.030
10.390,0.035
10.395,0.041
10.400,0.049
10.405,0.046
10.410,0.040
10.415,0.041
10.420,0.046
10.425,0.049
10.430,0.042
10.435,0.025
10.440,-0.003
10.445,-0.023
10.450,-0.021
10.455,-0.021
10.460,-0.021
10.465,-0.028
10.470,-0.035
10.475,-0.026
10.480,-0.021
10.485,-0.022
10.490,-0.022
10.495,-0.022
10.500,-0.024
10.505,-0.023
10.510,-0.017
10.515,-0.011
10.520,-0.004
10.525,-0.006
10.530,-0.021
10.535,-0.034
10.540,-0.029
10.545,0.016
10.550,0.125
10.555,0.275
10.560,0.371
10.565,0.315
10.570,0.131
10.575,-0.073
10.580,-0.199
10.585,-0.197
10.590,-0.121
10.595,-0.061
10.600,-0.029
10.605,-0.019
10.610,-0.018
10.615,-0.011
10.620,-0.004
10.625,0.002
10.630,0.003
10.635,-0.005
10.640,0.001
10.645,0.017
10.650,0.016
10.655,0.009
10.660,0.010
10.665,0.011
10.670,0.006
10.675,0.001
10.680,0.009
10.685,0.018
10.690,0.016
10.695,0.012
10.700,0.013
10.705,0.011
10.710,0.016
10.715,0.033
10.720,0.035
10.725,0.029
10.730,0.029
10.735,0.034
10.740,0.041
10.745,0.042
10.750,0.036
10.755,0.041
10.760,0.048
10.765,0.043
10.770,0.048
10.775,0.058
10.780,0.057
10.785,0.059
10.790,0.061
10.795,0.066
10.800,0.076
10.805,0.081
10.810,0.079
10.815,0.073
10.820,0.067
10.825,0.066
10.830,0.064
10.835,0.051
10.840,0.040
10.845,0.035
10.850,0.025
10.855,0.002
10.860,-0.020
10.865,-0.025
10.870,-0.037
10.875,-0.057
10.880,-0.071
10.885,-0.084
10.890,-0.084
10.895,-0.077
10.900,-0.075
10.905,-0.078
10.910,-0.085
10.915,-0.083
10.920,-0.073
10.925,-0.065
10.930,-0.068
10.935,-0.070
10.940,-0.066
10.945,-0.064
10.950,-0.059
10.955,-0.053
10.960,-0.050
10.965,-0.051
10.970,-0.052
10.975,-0.045
10.980,-0.036
10.985,-0.036
10.990,-0.037
10.995,-0.034
11.000,-0.030
11.005,-0.027
11.010,-0.031
11.015,-0.035
11.020,-0.034
11.025,-0.029
11.030,-0.028
11.035,-0.025
11.040,-0.024
11.045,-0.018
11.050,-0.013
11.055,-0.020
11.060,-0.024
11.065,-0.021
11.070,-0.019
11.075,-0.015
11.080,-0.012
11.085,-0.004
11.090,0.011
11.095,0.021
11.100,0.023
11.105,0.019
11.110,0.014
11.115,0.021
11.120,0.035
11.125,0.042
11.130,0.042
11.135,0.041
11.140,0.044
11.145,0.050
11.150,0.054
11.155,0.051
11.160,0.048
11.165,0.032
11.170,0.003
11.175,-0.030
11.180,-0.047
11.185,-0.042
11.190,-0.034
11.195,-0.034
11.200,-0.035
11.205,-0.029
11.210,-0.029
11.215,-0.032
11.220,-0.024
11.225,-0.020
11.230,-0.018
11.235,-0.012
11.240,-0.019
11.245,-0.019
11.250,-0.013
11.255,-0.014
11.260,-0.015
11.265,-0.026
11.270,-0.040
11.275,-0.016
11.280,0.079
11.285,0.238
11.290,0.374
11.295,0.374
11.300,0.221
11.305,0.010
11.310,-0.153
11.315,-0.199
11.320,-0.147
11.325,-0.085
11.330,-0.045
11.335,-0.027
11.340,-0.018
11.345,-0.005
11.350,-0.012
11.355,-0.024
11.360,-0.013
11.365,-0.004
11.370,-0.007
11.375,-0.005
11.380,-0.001
11.385,0.002
11.390,0.003
11.395,0.001
11.400,0.001
11.405,0.004
11.410,0.010
11.415,0.012
11.420,0.007
11.425,0.004
11.430,0.006
11.435,0.011
11.440,0.019
11.445,0.025
11.450,0.027
11.455,0.025
11.460,0.023
11.465,0.027
11.470,0.032
11.475,0.033
11.480,0.040
11.485,0.041
11.490,0.042
11.495,0.042
11.500,0.043
11.505,0.053
11.510,0.060
11.515,0.055
11.520,0.057
11.525,0.070
11.530,0.080
11.535,0.075
11.540,0.067
11.545,0.072
11.550,0.078
11.555,0.069
11.560,0.060
11.565,0.057
11.570,0.053
11.575,0.041
11.580,0.022
11.585,0.005
11.590,-0.007
11.595,-0.023
11.600,-0.039
11.605,-0.054
11.610,-0.068
11.615,-0.071
11.620,-0.073
11.625,-0.079
11.630,-0.083
11.635,-0.088
11.640,-0.084
11.645,-0.077
11.650,-0.077
11.655,-0.075
11.660,-0.070
11.665,-0.066
11.670,-0.060
11.675,-0.059
11.680,-0.066
11.685,-0.068
11.690,-0.061
11.695,-0.051
11.700,-0.048
11.705,-0.051
11.710,-0.047
11.715,-0.042
11.720,-0.042
11.725,-0.042
11.730,-0.040
11.735,-0.039
11.740,-0.039
11.745,-0.039
11.750,-0.035
11.755,-0.030
11.760,-0.029
11.765,-0.025
11.770,-0.019
11.775,-0.021
11.780,-0.028
11.785,-0.032
11.790,-0.027
11.795,-0.019
11.800,-0.019
11.805,-0.020
11.810,-0.019
11.815,-0.014
11.820,-0.009
11.825,-0.013
11.830,-0.013
11.835,-0.011
11.840,-0.006
11.845,0.004
11.850,0.017
11.855,0.030
11.860,0.030
11.865,0.027
11.870,0.029
11.875,0.038
11.880,0.048
11.885,0.049
11.890,0.049
11.895,0.046
11.900,0.048
11.905,0.057
11.910,0.060
11.915,0.056
11.920,0.045
11.925,0.021
11.930,-0.009
11.935,-0.029
11.940,-0.039
11.945,-0.036
11.950,-0.028
11.955,-0.026
11.960,-0.028
11.965,-0.025
11.970,-0.020
11.975,-0.015
11.980,-0.015
11.985,-0.024
11.990,-0.023
11.995,-0.013
12.000,-0.013
12.005,-0.016
12.010,-0.013
12.015,-0.013
12.020,-0.023
12.025,-0.033
12.030,-0.034
12.035,0.005
12.040,0.118
12.045,0.284
12.050,0.398
12.055,0.358
12.060,0.171
12.065,-0.046
12.070,-0.186
12.075,-0.206
12.080,-0.139
12.085,-0.072
12.090,-0.032
12.095,-0.019
12.100,-0.022
12.105,-0.017
12.110,-0.018
12.115,-0.017
12.120,-0.006
12.125,-0.002
12.130,-0.007
12.135,-0.005
12.140,0.003
12.145,0.006
12.150,0.005
12.155,0.007
12.160,0.008
12.165,0.007
12.170,0.010
12.175,0.013
12.180,0.011
12.185,0.012
12.190,0.014
12.195,0.022
12.200,0.029
12.205,0.027
12.210,0.021
12.215,0.018
12.220,0.024
12.225,0.030
12.230,0.031
12.235,0.034
12.240,0.040
12.245,0.043
12.250,0.042
12.255,0.043
12.260,0.042
12.265,0.048
12.270,0.053
12.275,0.056
12.280,0.065
12.285,0.071
12.290,0.071
12.295,0.073
12.300,0.078
12.305,0.076
12.310,0.069
12.315,0.062
12.320,0.054
12.325,0.056
12.330,0.053
12.335,0.034
12.340,0.019
12.345,0.010
12.350,-0.003
12.355,-0.019
12.360,-0.036
12.365,-0.048
12.370,-0.062
12.375,-0.077
12.380,-0.082
12.385,-0.080
12.390,-0.078
12.395,-0.080
12.400,-0.082
12.405,-0.081
12.410,-0.077
12.415,-0.070
12.420,-0.066
12.425,-0.066
12.430,-0.072
12.435,-0.073
12.440,-0.066
12.445,-0.056
12.450,-0.052
12.455,-0.050
12.460,-0.048
12.465,-0.052
12.470,-0.051
12.475,-0.045
12.480,-0.040
12.485,-0.035
12.490,-0.035
12.495,-0.035
12.500,-0.034
12.505,-0.033
12.510,-0.028
12.515,-0.029
12.520,-0.032
12.525,-0.031
12.530,-0.031
12.535,-0.028
12.540,-0.026
12.545,-0.023
12.550,-0.020
12.555,-0.022
12.560,-0.022
12.565,-0.018
12.570,-0.015
12.575,-0.014
12.580,-0.012
12.585,-0.009
12.590,-0.007
12.595,-0.007
12.600,-0.011
12.605,-0.005
12.610,0.000
12.615,-0.003
12.620,-0.002
12.625,-0.005
12.630,-0.006
12.635,0.002
12.640,0.005
12.645,0.009
12.650,0.023
12.655,0.033
12.660,0.043
12.665,0.047
12.670,0.042
12.675,0.044
12.680,0.051
12.685,0.059
12.690,0.060
12.695,0.055
12.700,0.059
12.705,0.062
12.710,0.058
12.715,0.050
12.720,0.045
12.725,0.041
12.730,0.016
12.735,-0.022
12.740,-0.035
12.745,-0.024
12.750,-0.015
12.755,-0.022
12.760,-0.030
12.765,-0.024
12.770,-0.021
12.775,-0.026
12.780,-0.017
12.785,-0.012
12.790,-0.018
12.795,-0.017
12.800,-0.015
12.805,-0.012
12.810,-0.008
12.815,-0.012
12.820,-0.017
12.825,-0.024
12.830,-0.032
12.835,-0.018
12.840,0.042
12.845,0.169
12.850,0.329
12.855,0.402
12.860,0.304
12.865,0.089
12.870,-0.120
12.875,-0.221
12.880,-0.190
12.885,-0.112
12.890,-0.059
12.895,-0.033
12.900,-0.025
12.905,-0.021
12.910,-0.012
12.915,-0.013
12.920,-0.013
12.925,-0.002
12.930,-0.002
12.935,-0.008
12.940,-0.002
12.945,0.005
12.950,0.003
12.955,0.001
12.960,-0.001
12.965,0.000
12.970,0.011
12.975,0.013
12.980,0.002
12.985,0.009
12.990,0.022
12.995,0.025
13.000,0.027
13.005,0.020
13.010,0.016
13.015,0.018
13.020,0.019
13.025,0.027
13.030,0.035
13.035,0.031
13.040,0.028
13.045,0.031
13.050,0.036
13.055,0.039
13.060,0.044
13.065,0.048
13.070,0.054
13.075,0.063
13.080,0.061
13.085,0.064
13.090,0.074
13.095,0.070
13.100,0.072
13.105,0.075
13.110,0.073
13.115,0.073
13.120,0.068
13.125,0.065
13.130,0.057
13.135,0.045
13.140,0.039
13.145,0.025
13.150,0.006
13.155,-0.009
13.160,-0.022
13.165,-0.038
13.170,-0.052
13.175,-0.066
13.180,-0.079
13.185,-0.083
13.190,-0.089
13.195,-0.093
13.200,-0.083
13.205,-0.083
13.210,-0.086
13.215,-0.082
13.220,-0.089
13.225,-0.083
13.230,-0.068
13.235,-0.075
13.240,-0.078
13.245,-0.070
13.250,-0.065
13.255,-0.062
13.260,-0.061
13.265,-0.062
13.270,-0.056
13.275,-0.049
13.280,-0.049
13.285,-0.047
13.290,-0.043
13.295,-0.038
13.300,-0.033
13.305,-0.036
13.310,-0.038
13.315,-0.036
13.320,-0.041
13.325,-0.041
13.330,-0.031
13.335,-0.025
13.340,-0.028
13.345,-0.039
13.350,-0.037
13.355,-0.018
13.360,-0.015
13.365,-0.023
13.370,-0.019
13.375,-0.019
13.380,-0.018
13.385,-0.017
13.390,-0.014
13.395,-0.010
13.400,-0.012
13.405,-0.010
13.410,-0.009
13.415,-0.006
13.420,-0.002
13.425,0.001
13.430,0.006
13.435,0.015
13.440,0.029
13.445,0.038
13.450,0.039
13.455,0.040
13.460,0.045
13.465,0.055
13.470,0.066
13.475,0.075
13.480,0.082
13.485,0.078
13.490,0.069
13.495,0.064
13.500,0.051
13.505,0.026
13.510,-0.010
13.515,-0.036
13.520,-0.036
13.525,-0.028
13.530,-0.025
13.535,-0.027
13.540,-0.025
13.545,-0.017
13.550,-0.020
13.555,-0.025
13.560,-0.024
13.565,-0.022
13.570,-0.014
13.575,-0.019
13.580,-0.022
13.585,-0.014
13.590,-0.007
13.595,-0.001
13.600,-0.011
13.605,-0.031
13.610,-0.041
13.615,-0.029
13.620,0.042
13.625,0.195
13.630,0.364
13.635,0.412
13.640,0.265
13.645,0.019
13.650,-0.188
13.655,-0.268
13.660,-0.204
13.665,-0.108
13.670,-0.046
13.675,-0.012
13.680,-0.007
13.685,0.003
13.690,0.006
13.695,-0.004
13.700,0.000
13.705,0.010
13.710,0.008
13.715,-0.003
13.720,0.001
13.725,0.013
13.730,0.014
13.735,0.019
13.740,0.019
13.745,0.013
13.750,0.020
13.755,0.028
13.760,0.027
13.765,0.024
13.770,0.021
13.775,0.017
13.780,0.019
13.785,0.032
13.790,0.040
13.795,0.034
13.800,0.031
13.805,0.037
13.810,0.048
13.815,0.046
13.820,0.032
13.825,0.035
13.830,0.049
13.835,0.049
13.840,0.046
13.845,0.059
13.850,0.069
13.855,0.070
13.860,0.074
13.865,0.076
13.870,0.075
13.875,0.072
13.880,0.070
13.885,0.074
13.890,0.086
13.895,0.086
13.900,0.071
13.905,0.054
13.910,0.039
13.915,0.037
13.920,0.035
13.925,0.017
13.930,-0.001
13.935,-0.024
13.940,-0.044
13.945,-0.054
13.950,-0.070
13.955,-0.085
13.960,-0.086
13.965,-0.090
13.970,-0.097
13.975,-0.104
13.980,-0.100
13.985,-0.089
13.990,-0.096
13.995,-0.098
14.000,-0.087
14.005,-0.085
14.010,-0.088
14.015,-0.083
14.020,-0.065
14.025,-0.062
14.030,-0.075
14.035,-0.070
14.040,-0.054
14.045,-0.055
14.050,-0.058
14.055,-0.050
14.060,-0.041
14.065,-0.032
14.070,-0.040
14.075,-0.045
14.080,-0.042
14.085,-0.038
14.090,-0.029
14.095,-0.024
14.100,-0.036
14.105,-0.046
14.110,-0.037
14.115,-0.027
14.120,-0.023
14.125,-0.022
14.130,-0.029
14.135,-0.036
14.140,-0.028
14.145,-0.014
14.150,-0.013
14.155,-0.014
14.160,-0.016
14.165,-0.022
14.170,-0.019
14.175,-0.017
14.180,-0.016
14.185,-0.006
14.190,0.004
14.195,0.011
14.200,0.021
14.205,0.026
14.210,0.021
14.215,0.031
14.220,0.045
14.225,0.046
14.230,0.048
14.235,0.048
14.240,0.063
14.245,0.072
14.250,0.055
14.255,0.043
14.260,0.043
14.265,0.044
14.270,0.024
14.275,-0.008
14.280,-0.030
14.285,-0.039
14.290,-0.031
14.295,-0.024
14.300,-0.017
14.305,-0.015
14.310,-0.027
14.315,-0.028
14.320,-0.020
14.325,-0.016
14.330,-0.015
14.335,-0.017
14.340,-0.014
14.345,-0.004
14.350,-0.006
14.355,-0.018
14.360,-0.014
14.365,-0.015
14.370,-0.024
14.375,-0.028
14.380,-0.004
14.385,0.107
14.390,0.270
14.395,0.372
14.400,0.332
14.405,0.145
14.410,-0.071
14.415,-0.200
14.420,-0.213
14.425,-0.138
14.430,-0.070
14.435,-0.035
14.440,-0.013
14.445,-0.003
14.450,0.006
14.455,0.000
14.460,-0.001
14.465,0.006
14.470,0.004
14.475,0.007
14.480,0.003
14.485,-0.003
14.490,0.007
14.495,0.014
14.500,0.021
14.505,0.024
14.510,0.017
14.515,0.021
14.520,0.027
14.525,0.021
14.530,0.019
14.535,0.021
14.540,0.014
14.545,0.018
14.550,0.024
14.555,0.026
14.560,0.030
14.565,0.039
14.570,0.046
14.575,0.033
14.580,0.028
14.585,0.042
14.590,0.045
14.595,0.045
14.600,0.045
14.605,0.047
14.610,0.056
14.615,0.059
14.620,0.060
14.625,0.064
14.630,0.062
14.635,0.066
14.640,0.070
14.645,0.071
14.650,0.076
14.655,0.081
14.660,0.079
14.665,0.063
14.670,0.047
14.675,0.035
14.680,0.023
14.685,0.008
14.690,-0.013
14.695,-0.020
14.700,-0.023
14.705,-0.033
14.710,-0.048
14.715,-0.066
14.720,-0.078
14.725,-0.081
14.730,-0.077
14.735,-0.079
14.740,-0.083
14.745,-0.081
14.750,-0.087
14.755,-0.092
14.760,-0.084
14.765,-0.077
14.770,-0.072
14.775,-0.070
14.780,-0.069
14.785,-0.060
14.790,-0.055
14.795,-0.055
14.800,-0.049
14.805,-0.041
14.810,-0.034
14.815,-0.036
14.820,-0.044
14.825,-0.041
14.830,-0.039
14.835,-0.039
14.840,-0.034
14.845,-0.032
14.850,-0.027
14.855,-0.026
14.860,-0.029
14.865,-0.033
14.870,-0.026
14.875,-0.014
14.880,-0.022
14.885,-0.029
14.890,-0.025
14.895,-0.021
14.900,-0.015
14.905,-0.018
14.910,-0.021
14.915,-0.011
14.920,-0.014
14.925,-0.020
14.930,-0.010
14.935,0.006
14.940,0.018
14.945,0.017
14.950,0.010
14.955,0.017
14.960,0.033
14.965,0.039
14.970,0.038
14.975,0.035
14.980,0.037
14.985,0.046
14.990,0.050
14.995,0.051
15.000,0.047
15.005,0.039
15.010,0.034
15.015,0.020
15.020,-0.008
15.025,-0.030
15.030,-0.036
15.035,-0.030
15.040,-0.029
15.045,-0.031
15.050,-0.027
15.055,-0.023
15.060,-0.019
15.065,-0.022
15.070,-0.024
15.075,-0.022
15.080,-0.018
15.085,-0.015
15.090,-0.019
15.095,-0.019
15.100,-0.017
15.105,-0.019
15.110,-0.025
15.115,-0.028
15.120,-0.012
15.125,0.059
15.130,0.196
15.135,0.334
15.140,0.367
15.145,0.246
15.150,0.044
15.155,-0.133
15.160,-0.202
15.165,-0.162
15.170,-0.096
15.175,-0.046
15.180,-0.025
15.185,-0.025
15.190,-0.010
15.195,-0.001
15.200,-0.007
15.205,-0.007
15.210,-0.004
15.215,0.004
15.220,0.002
15.225,-0.004
15.230,0.001
15.235,0.002
15.240,0.003
15.245,0.000
15.250,0.001
15.255,0.012
15.260,0.016
15.265,0.013
15.270,0.017
15.275,0.018
15.280,0.014
15.285,0.016
15.290,0.022
15.295,0.028
15.300,0.031
15.305,0.036
15.310,0.036
15.315,0.034
15.320,0.032
15.325,0.032
15.330,0.035
15.335,0.033
15.340,0.041
15.345,0.053
15.350,0.053
15.355,0.055
15.360,0.059
15.365,0.062
15.370,0.065
15.375,0.068
15.380,0.071
15.385,0.074
15.390,0.071
15.395,0.071
15.400,0.074
15.405,0.066
15.410,0.060
15.415,0.056
15.420,0.033
15.425,0.013
15.430,0.008
15.435,-0.004
15.440,-0.017
15.445,-0.030
15.450,-0.049
15.455,-0.058
15.460,-0.067
15.465,-0.077
15.470,-0.080
15.475,-0.087
15.480,-0.093
15.485,-0.086
15.490,-0.077
15.495,-0.074
15.500,-0.076
15.505,-0.077
15.510,-0.073
15.515,-0.065
15.520,-0.061
15.525,-0.063
15.530,-0.069
15.535,-0.069
15.540,-0.058
15.545,-0.046
15.550,-0.043
15.555,-0.043
15.560,-0.040
15.565,-0.043
15.570,-0.039
15.575,-0.032
15.580,-0.033
15.585,-0.029
15.590,-0.026
15.595,-0.025
15.600,-0.019
15.605,-0.025
15.610,-0.036
15.615,-0.034
15.620,-0.030
15.625,-0.020
15.630,-0.010
15.635,-0.018
15.640,-0.025
15.645,-0.025
15.650,-0.020
15.655,-0.011
15.660,-0.013
15.665,-0.018
15.670,-0.013
15.675,-0.010
15.680,-0.011
15.685,-0.006
15.690,0.002
15.695,0.008
15.700,0.007
15.705,0.006
15.710,0.013
15.715,0.023
15.720,0.033
15.725,0.037
15.730,0.035
15.735,0.041
15.740,0.044
15.745,0.046
15.750,0.050
15.755,0.053
15.760,0.059
15.765,0.064
15.770,0.062
15.775,0.055
15.780,0.045
15.785,0.020
15.790,-0.012
15.795,-0.030
15.800,-0.031
15.805,-0.024
15.810,-0.023
15.815,-0.029
15.820,-0.028
15.825,-0.023
15.830,-0.023
15.835,-0.025
15.840,-0.015
15.845,-0.009
15.850,-0.014
15.855,-0.019
15.860,-0.017
15.865,-0.012
15.870,-0.006
15.875,-0.006
15.880,-0.017
15.885,-0.031
15.890,-0.030
15.895,0.021
15.900,0.148
15.905,0.308
15.910,0.393
15.915,0.326
15.920,0.134
15.925,-0.075
15.930,-0.196
15.935,-0.192
15.940,-0.120
15.945,-0.063
15.950,-0.036
15.955,-0.020
15.960,-0.014
15.965,-0.010
15.970,-0.016
15.975,-0.018
15.980,-0.008
15.985,-0.005
15.990,-0.008
15.995,0.000
16.000,0.008
16.005,0.001
16.010,0.000
16.015,0.011
16.020,0.014
16.025,0.009
16.030,0.002
16.035,0.003
16.040,0.011
16.045,0.017
16.050,0.016
16.055,0.015
16.060,0.015
16.065,0.017
16.070,0.020
16.075,0.017
16.080,0.020
16.085,0.030
16.090,0.034
16.095,0.038
16.100,0.037
16.105,0.034
16.110,0.041
16.115,0.047
16.120,0.053
16.125,0.057
16.130,0.054
16.135,0.056
16.140,0.057
16.145,0.063
16.150,0.072
16.155,0.070
16.160,0.071
16.165,0.072
16.170,0.070
16.175,0.066
16.180,0.062
16.185,0.057
16.190,0.043
16.195,0.028
16.200,0.014
16.205,0.006
16.210,-0.003
16.215,-0.022
16.220,-0.039
16.225,-0.052
16.230,-0.065
16.235,-0.075
16.240,-0.078
16.245,-0.076
16.250,-0.081
16.255,-0.086
16.260,-0.086
16.265,-0.089
16.270,-0.086
16.275,-0.079
16.280,-0.076
16.285,-0.067
16.290,-0.063
16.295,-0.065
16.300,-0.063
16.305,-0.061
16.310,-0.062
16.315,-0.058
16.320,-0.053
16.325,-0.050
16.330,-0.045
16.335,-0.046
16.340,-0.045
16.345,-0.038
16.350,-0.033
16.355,-0.034
16.360,-0.038
16.365,-0.037
16.370,-0.030
16.375,-0.031
16.380,-0.034
16.385,-0.032
16.390,-0.031
16.395,-0.033
16.400,-0.028
16.405,-0.016
16.410,-0.016
16.415,-0.021
16.420,-0.024
16.425,-0.019
16.430,-0.014
16.435,-0.022
16.440,-0.023
16.445,-0.015
16.450,-0.010
16.455,-0.010
16.460,-0.010
16.465,-0.008
16.470,-0.008
16.475,-0.007
16.480,-0.005
16.485,0.000
16.490,0.007
16.495,0.010
16.500,0.017
16.505,0.021
16.510,0.023
16.515,0.032
16.520,0.035
16.525,0.036
16.530,0.046
16.535,0.054
16.540,0.056
16.545,0.060
16.550,0.064
16.555,0.063
16.560,0.060
16.565,0.053
16.570,0.049
16.575,0.044
16.580,0.018
16.585,-0.016
16.590,-0.030
16.595,-0.025
16.600,-0.025
16.605,-0.026
16.610,-0.028
16.615,-0.037
16.620,-0.030
16.625,-0.014
16.630,-0.012
16.635,-0.018
16.640,-0.025
16.645,-0.023
16.650,-0.012
16.655,-0.007
16.660,-0.009
16.665,-0.008
16.670,-0.010
16.675,-0.026
16.680,-0.033
16.685,-0.016
16.690,0.046
16.695,0.178
16.700,0.333
16.705,0.390
16.710,0.285
16.715,0.069
16.720,-0.133
16.725,-0.222
16.730,-0.183
16.735,-0.104
16.740,-0.058
16.745,-0.031
16.750,-0.020
16.755,-0.018
16.760,-0.012
16.765,-0.013
16.770,-0.009
16.775,0.000
16.780,0.002
16.785,0.000
16.790,0.001
16.795,0.003
16.800,0.005
16.805,0.009
16.810,0.012
16.815,0.005
16.820,0.000
16.825,0.009
16.830,0.011
16.835,0.008
16.840,0.015
16.845,0.021
16.850,0.019
16.855,0.017
16.860,0.017
16.865,0.022
16.870,0.028
16.875,0.031
16.880,0.031
16.885,0.035
16.890,0.039
16.895,0.037
16.900,0.037
16.905,0.039
16.910,0.042
16.915,0.051
16.920,0.057
16.925,0.056
16.930,0.053
16.935,0.057
16.940,0.062
16.945,0.064
16.950,0.070
16.955,0.071
16.960,0.065
16.965,0.059
16.970,0.060
16.975,0.060
16.980,0.051
16.985,0.045
16.990,0.039
16.995,0.027
17.000,0.009
17.005,-0.015
17.010,-0.027
17.015,-0.030
17.020,-0.043
17.025,-0.056
17.030,-0.072
17.035,-0.087
17.040,-0.088
17.045,-0.085
17.050,-0.083
17.055,-0.080
17.060,-0.081
17.065,-0.083
17.070,-0.076
17.075,-0.064
17.080,-0.061
17.085,-0.067
17.090,-0.070
17.095,-0.064
17.100,-0.054
17.105,-0.053
17.110,-0.054
17.115,-0.049
17.120,-0.049
17.125,-0.052
17.130,-0.048
17.135,-0.042
17.140,-0.038
17.145,-0.033
17.150,-0.033
17.155,-0.033
17.160,-0.033
17.165,-0.034
17.170,-0.031
17.175,-0.028
17.180,-0.026
17.185,-0.021
17.190,-0.020
17.195,-0.022
17.200,-0.024
17.205,-0.023
17.210,-0.021
17.215,-0.016
17.220,-0.013
17.225,-0.014
17.230,-0.013
17.235,-0.017
17.240,-0.020
17.245,-0.014
17.250,-0.013
17.255,-0.010
17.260,-0.004
17.265,-0.004
17.270,-0.003
17.275,0.000
17.280,-0.001
17.285,-0.001
17.290,0.004
17.295,0.009
17.300,0.009
17.305,0.005
17.310,0.003
17.315,0.016
17.320,0.030
17.325,0.033
17.330,0.036
17.335,0.037
17.340,0.037
17.345,0.047
17.350,0.059
17.355,0.065
17.360,0.067
17.365,0.069
17.370,0.068
17.375,0.063
17.380,0.059
17.385,0.052
17.390,0.054
17.395,0.047
17.400,0.006
17.405,-0.030
17.410,-0.037
17.415,-0.025
17.420,-0.018
17.425,-0.027
17.430,-0.032
17.435,-0.027
17.440,-0.028
17.445,-0.032
17.450,-0.030
17.455,-0.018
17.460,-0.009
17.465,-0.013
17.470,-0.015
17.475,-0.015
17.480,-0.017
17.485,-0.017
17.490,-0.020
17.495,-0.026
17.500,-0.029
17.505,-0.005
17.510,0.103
17.515,0.284
17.520,0.403
17.525,0.352
17.530,0.146
17.535,-0.081
17.540,-0.225
17.545,-0.254
17.550,-0.169
17.555,-0.081
17.560,-0.037
17.565,-0.017
17.570,-0.015
17.575,-0.004
17.580,-0.005
17.585,-0.016
17.590,-0.001
17.595,0.011
17.600,0.003
17.605,0.005
17.610,0.011
17.615,0.008
17.620,0.013
17.625,0.022
17.630,0.015
17.635,0.007
17.640,0.009
17.645,0.013
17.650,0.016
17.655,0.019
17.660,0.016
17.665,0.019
17.670,0.026
17.675,0.022
17.680,0.027
17.685,0.028
17.690,0.025
17.695,0.038
17.700,0.038
17.705,0.025
17.710,0.032
17.715,0.046
17.720,0.058
17.725,0.061
17.730,0.054
17.735,0.056
17.740,0.062
17.745,0.062
17.750,0.065
17.755,0.074
17.760,0.079
17.765,0.070
17.770,0.068
17.775,0.074
17.780,0.069
17.785,0.067
17.790,0.061
17.795,0.048
17.800,0.045
17.805,0.038
17.810,0.027
17.815,0.017
17.820,0.002
17.825,-0.015
17.830,-0.032
17.835,-0.050
17.840,-0.068
17.845,-0.079
17.850,-0.089
17.855,-0.095
17.860,-0.093
17.865,-0.097
17.870,-0.101
17.875,-0.092
17.880,-0.088
17.885,-0.095
17.890,-0.095
17.895,-0.088
17.900,-0.078
17.905,-0.073
17.910,-0.072
17.915,-0.070
17.920,-0.075
17.925,-0.067
17.930,-0.055
17.935,-0.055
17.940,-0.055
17.945,-0.050
17.950,-0.045
17.955,-0.045
17.960,-0.053
17.965,-0.046
17.970,-0.029
17.975,-0.030
17.980,-0.040
17.985,-0.048
17.990,-0.044
17.995,-0.038
18.000,-0.029
18.005,-0.027
18.010,-0.027
18.015,-0.021
18.020,-0.027
18.025,-0.030
18.030,-0.025
18.035,-0.020
18.040,-0.014
18.045,-0.010
18.050,-0.014
18.055,-0.023
18.060,-0.022
18.065,-0.015
18.070,-0.015
18.075,-0.013
18.080,-0.007
18.085,0.006
18.090,0.014
18.095,0.013
18.100,0.024
18.105,0.030
18.110,0.027
18.115,0.038
18.120,0.050
18.125,0.056
18.130,0.059
18.135,0.058
18.140,0.054
18.145,0.048
18.150,0.044
18.155,0.055
18.160,0.055
18.165,0.027
18.170,-0.003
18.175,-0.022
18.180,-0.028
18.185,-0.032
18.190,-0.037
18.195,-0.027
18.200,-0.028
18.205,-0.036
18.210,-0.028
18.215,-0.021
18.220,-0.019
18.225,-0.011
18.230,-0.012
18.235,-0.013
18.240,-0.002
18.245,-0.008
18.250,-0.014
18.255,0.000
18.260,-0.005
18.265,-0.027
18.270,-0.035
18.275,-0.026
18.280,0.045
18.285,0.196
18.290,0.340
18.295,0.375
18.300,0.243
18.305,0.010
18.310,-0.183
18.315,-0.242
18.320,-0.183
18.325,-0.098
18.330,-0.038
18.335,-0.016
18.340,-0.013
18.345,0.004
18.350,0.008
18.355,0.003
18.360,0.009
18.365,0.013
18.370,0.009
18.375,0.004
18.380,0.008
18.385,0.018
18.390,0.019
18.395,0.013
18.400,0.019
18.405,0.029
18.410,0.029
18.415,0.025
18.420,0.015
18.425,0.015
18.430,0.027
18.435,0.034
18.440,0.034
18.445,0.032
18.450,0.033
18.455,0.032
18.460,0.029
18.465,0.029
18.470,0.031
18.475,0.043
18.480,0.047
18.485,0.047
18.490,0.052
18.495,0.047
18.500,0.047
18.505,0.059
18.510,0.065
18.515,0.066
18.520,0.060
18.525,0.056
18.530,0.065
18.535,0.081
18.540,0.089
18.545,0.084
18.550,0.068
18.555,0.056
18.560,0.065
18.565,0.062
18.570,0.046
18.575,0.027
18.580,0.012
18.585,0.011
18.590,-0.001
18.595,-0.019
18.600,-0.032
18.605,-0.040
18.610,-0.052
18.615,-0.074
18.620,-0.094
18.625,-0.099
18.630,-0.094
18.635,-0.094
18.640,-0.098
18.645,-0.095
18.650,-0.087
18.655,-0.078
18.660,-0.074
18.665,-0.079
18.670,-0.082
18.675,-0.074
18.680,-0.065
18.685,-0.057
18.690,-0.053
18.695,-0.055
18.700,-0.050
18.705,-0.049
18.710,-0.055
18.715,-0.050
18.720,-0.044
18.725,-0.042
18.730,-0.042
18.735,-0.037
18.740,-0.028
18.745,-0.021
18.750,-0.024
18.755,-0.030
18.760,-0.023
18.765,-0.022
18.770,-0.031
18.775,-0.024
18.780,-0.014
18.785,-0.021
18.790,-0.034
18.795,-0.034
18.800,-0.024
18.805,-0.020
18.810,-0.022
18.815,-0.021
18.820,-0.013
18.825,-0.010
18.830,-0.004
18.835,0.006
18.840,0.005
18.845,0.005
18.850,0.013
18.855,0.025
18.860,0.034
18.865,0.036
18.870,0.038
18.875,0.040
18.880,0.039
18.885,0.044
18.890,0.055
18.895,0.058
18.900,0.050
18.905,0.042
18.910,0.038
18.915,0.025
18.920,-0.006
18.925,-0.031
18.930,-0.036
18.935,-0.031
18.940,-0.027
18.945,-0.031
18.950,-0.034
18.955,-0.027
18.960,-0.026
18.965,-0.026
18.970,-0.018
18.975,-0.017
18.980,-0.014
18.985,-0.007
18.990,-0.009
18.995,-0.009
19.000,-0.003
19.005,-0.005
19.010,-0.021
19.015,-0.035
19.020,-0.030
19.025,0.026
19.030,0.154
19.035,0.299
19.040,0.367
19.045,0.287
19.050,0.090
19.055,-0.100
19.060,-0.194
19.065,-0.175
19.070,-0.102
19.075,-0.053
19.080,-0.029
19.085,-0.022
19.090,-0.016
19.095,-0.001
19.100,-0.007
19.105,-0.015
19.110,-0.004
19.115,-0.002
19.120,-0.004
19.125,0.004
19.130,0.008
19.135,0.010
19.140,0.013
19.145,0.011
19.150,0.014
19.155,0.015
19.160,0.014
19.165,0.013
19.170,0.012
19.175,0.013
19.180,0.015
19.185,0.021
19.190,0.030
19.195,0.032
19.200,0.029
19.205,0.024
19.210,0.023
19.215,0.032
19.220,0.042
19.225,0.042
19.230,0.036
19.235,0.035
19.240,0.038
19.245,0.042
19.250,0.049
19.255,0.055
19.260,0.059
19.265,0.063
19.270,0.066
19.275,0.075
19.280,0.073
19.285,0.060
19.290,0.063
19.295,0.066
19.300,0.066
19.305,0.067
19.310,0.059
19.315,0.050
19.320,0.041
19.325,0.029
19.330,0.017
19.335,0.008
19.340,-0.012
19.345,-0.035
19.350,-0.046
19.355,-0.057
19.360,-0.065
19.365,-0.073
19.370,-0.087
19.375,-0.085
19.380,-0.081
19.385,-0.086
19.390,-0.084
19.395,-0.077
19.400,-0.074
19.405,-0.072
19.410,-0.074
19.415,-0.077
19.420,-0.068
19.425,-0.061
19.430,-0.060
19.435,-0.055
19.440,-0.054
19.445,-0.055
19.450,-0.049
19.455,-0.043
19.460,-0.041
19.465,-0.036
19.470,-0.034
19.475,-0.037
19.480,-0.037
19.485,-0.036
19.490,-0.031
19.495,-0.023
19.500,-0.021
19.505,-0.023
19.510,-0.024
19.515,-0.026
19.520,-0.033
19.525,-0.033
19.530,-0.031
19.535,-0.026
19.540,-0.020
19.545,-0.015
19.550,-0.009
19.555,-0.011
19.560,-0.015
19.565,-0.015
19.570,-0.013
19.575,-0.008
19.580,-0.002
19.585,0.004
19.590,0.012
19.595,0.024
19.600,0.032
19.605,0.033
19.610,0.033
19.615,0.035
19.620,0.039
19.625,0.042
19.630,0.048
19.635,0.051
19.640,0.052
19.645,0.054
19.650,0.048
19.655,0.040
19.660,0.029
19.665,0.011
19.670,-0.012
19.675,-0.030
19.680,-0.028
19.685,-0.029
19.690,-0.034
19.695,-0.029
19.700,-0.028
19.705,-0.024
19.710,-0.023
19.715,-0.029
19.720,-0.026
19.725,-0.024
19.730,-0.023
19.735,-0.016
19.740,-0.011
19.745,-0.010
19.750,-0.013
19.755,-0.015
19.760,-0.026
19.765,-0.038
19.770,-0.020
19.775,0.041
19.780,0.171
19.785,0.328
19.790,0.396
19.795,0.305
19.800,0.096
19.805,-0.106
19.810,-0.207
19.815,-0.184
19.820,-0.105
19.825,-0.050
19.830,-0.027
19.835,-0.024
19.840,-0.023
19.845,-0.017
19.850,-0.018
19.855,-0.015
19.860,-0.006
19.865,-0.006
19.870,-0.005
19.875,0.000
19.880,0.003
19.885,0.007
19.890,0.007
19.895,0.006
19.900,0.005
19.905,0.007
19.910,0.008
19.915,0.008
19.920,0.012
19.925,0.014
19.930,0.015
19.935,0.018
19.940,0.020
19.945,0.025
19.950,0.026
19.955,0.023
19.960,0.029
19.965,0.039
19.970,0.038
19.975,0.037
19.980,0.043
19.985,0.044
19.990,0.039
19.995,0.039
20.000,0.046
20.005,0.057
20.010,0.063
20.015,0.057
20.020,0.055
20.025,0.065
20.030,0.072
20.035,0.075
20.040,0.077
20.045,0.071
20.050,0.067
20.055,0.065
20.060,0.057
20.065,0.052
20.070,0.048
20.075,0.038
20.080,0.027
20.085,0.009
20.090,-0.016
20.095,-0.032
20.100,-0.046
20.105,-0.054
20.110,-0.063
20.115,-0.076
20.120,-0.082
20.125,-0.084
20.130,-0.085
20.135,-0.084
20.140,-0.084
20.145,-0.078
20.150,-0.079
20.155,-0.083
20.160,-0.070
20.165,-0.060
20.170,-0.060
20.175,-0.060
20.180,-0.061
20.185,-0.060
20.190,-0.055
20.195,-0.056
20.200,-0.055
20.205,-0.047
20.210,-0.046
20.215,-0.046
20.220,-0.037
20.225,-0.031
20.230,-0.033
20.235,-0.035
20.240,-0.035
20.245,-0.031
20.250,-0.030
20.255,-0.038
20.260,-0.033
20.265,-0.017
20.270,-0.019
20.275,-0.025
20.280,-0.024
20.285,-0.022
20.290,-0.018
20.295,-0.021
20.300,-0.027
20.305,-0.021
20.310,-0.015
20.315,-0.013
20.320,-0.009
20.325,-0.011
20.330,-0.015
20.335,-0.010
20.340,-0.004
20.345,-0.010
20.350,-0.009
20.355,0.001
20.360,0.006
20.365,0.010
20.370,0.011
20.375,0.019
20.380,0.037
20.385,0.043
20.390,0.040
20.395,0.043
20.400,0.046
20.405,0.047
20.410,0.052
20.415,0.050
20.420,0.048
20.425,0.052
20.430,0.055
20.435,0.056
20.440,0.056
20.445,0.049
20.450,0.029
20.455,-0.004
20.460,-0.033
20.465,-0.043
20.470,-0.033
20.475,-0.020
20.480,-0.020
20.485,-0.024
20.490,-0.020
20.495,-0.019
20.500,-0.026
20.505,-0.031
20.510,-0.027
20.515,-0.020
20.520,-0.014
20.525,-0.010
20.530,-0.005
20.535,-0.001
20.540,-0.007
20.545,-0.019
20.550,-0.027
20.555,-0.021
20.560,0.015
20.565,0.120
20.570,0.280
20.575,0.385
20.580,0.345
20.585,0.161
20.590,-0.058
20.595,-0.198
20.600,-0.214
20.605,-0.144
20.610,-0.076
20.615,-0.037
20.620,-0.021
20.625,-0.017
20.630,-0.007
20.635,-0.006
20.640,-0.012
20.645,-0.005
20.650,0.001
20.655,-0.002
20.660,0.004
20.665,0.008
20.670,0.001
20.675,0.004
20.680,0.004
20.685,0.003
20.690,0.009
20.695,0.010
20.700,0.011
20.705,0.015
20.710,0.016
20.715,0.015
20.720,0.015
20.725,0.014
20.730,0.016
20.735,0.020
20.740,0.022
20.745,0.026
20.750,0.031
20.755,0.032
20.760,0.037
20.765,0.041
20.770,0.038
20.775,0.039
20.780,0.046
20.785,0.049
20.790,0.048
20.795,0.047
20.800,0.056
20.805,0.063
20.810,0.060
20.815,0.057
20.820,0.065
20.825,0.069
20.830,0.063
20.835,0.064
20.840,0.064
20.845,0.065
20.850,0.061
20.855,0.047
20.860,0.038
20.865,0.023
20.870,0.010
20.875,0.004
20.880,-0.012
20.885,-0.035
20.890,-0.052
20.895,-0.061
20.900,-0.069
20.905,-0.076
20.910,-0.082
20.915,-0.085
20.920,-0.088
20.925,-0.089
20.930,-0.084
20.935,-0.078
20.940,-0.077
20.945,-0.073
20.950,-0.070
20.955,-0.068
20.960,-0.069
20.965,-0.067
20.970,-0.058
20.975,-0.055
20.980,-0.056
20.985,-0.055
20.990,-0.057
20.995,-0.054
21.000,-0.046
21.005,-0.042
21.010,-0.040
21.015,-0.041
21.020,-0.040
21.025,-0.033
21.030,-0.032
21.035,-0.038
21.040,-0.034
21.045,-0.025
21.050,-0.024
21.055,-0.026
21.060,-0.028
21.065,-0.028
21.070,-0.028
21.075,-0.023
21.080,-0.014
21.085,-0.012
21.090,-0.019
21.095,-0.029
21.100,-0.028
21.105,-0.014
21.110,-0.012
21.115,-0.017
21.120,-0.012
21.125,-0.009
21.130,-0.002
21.135,0.002
21.140,-0.002
21.145,0.001
21.150,-0.002
21.155,-0.006
21.160,0.002
21.165,0.006
21.170,0.006
21.175,0.010
21.180,0.017
21.185,0.031
21.190,0.040
21.195,0.036
21.200,0.040
21.205,0.052
21.210,0.055
21.215,0.058
21.220,0.056
21.225,0.050
21.230,0.052
21.235,0.065
21.240,0.073
21.245,0.068
21.250,0.057
21.255,0.040
21.260,0.019
21.265,-0.006
21.270,-0.029
21.275,-0.031
21.280,-0.022
21.285,-0.020
21.290,-0.027
21.295,-0.028
21.300,-0.022
21.305,-0.021
21.310,-0.019
21.315,-0.016
21.320,-0.020
21.325,-0.020
21.330,-0.015
21.335,-0.008
21.340,-0.002
21.345,-0.005
21.350,-0.015
21.355,-0.023
21.360,-0.026
21.365,-0.023
21.370,0.012
21.375,0.120
21.380,0.283
21.385,0.395
21.390,0.347
21.395,0.150
21.400,-0.074
21.405,-0.213
21.410,-0.216
21.415,-0.138
21.420,-0.075
21.425,-0.029
21.430,-0.012
21.435,-0.016
21.440,-0.010
21.445,-0.012
21.450,-0.014
21.455,-0.007
21.460,-0.005
21.465,-0.004
21.470,0.006
21.475,0.008
21.480,0.000
21.485,0.001
21.490,0.008
21.495,0.005
21.500,0.011
21.505,0.022
21.510,0.014
21.515,0.010
21.520,0.015
21.525,0.015
21.530,0.014
21.535,0.018
21.540,0.028
21.545,0.037
21.550,0.031
21.555,0.022
21.560,0.021
21.565,0.029
21.570,0.032
21.575,0.036
21.580,0.042
21.585,0.045
21.590,0.048
21.595,0.050
21.600,0.054
21.605,0.061
21.610,0.065
21.615,0.065
21.620,0.063
21.625,0.061
21.630,0.067
21.635,0.074
21.640,0.079
21.645,0.081
21.650,0.071
21.655,0.061
21.660,0.058
21.665,0.058
21.670,0.046
21.675,0.028
21.680,0.016
21.685,-0.001
21.690,-0.019
21.695,-0.033
21.700,-0.053
21.705,-0.069
21.710,-0.076
21.715,-0.085
21.720,-0.088
21.725,-0.088
21.730,-0.095
21.735,-0.096
21.740,-0.091
21.745,-0.084
21.750,-0.078
21.755,-0.079
21.760,-0.088
21.765,-0.086
21.770,-0.072
21.775,-0.068
21.780,-0.071
21.785,-0.067
21.790,-0.061
21.795,-0.062
21.800,-0.063
21.805,-0.060
21.810,-0.056
21.815,-0.049
21.820,-0.044
21.825,-0.041
21.830,-0.039
21.835,-0.044
21.840,-0.045
21.845,-0.036
21.850,-0.036
21.855,-0.036
21.860,-0.034
21.865,-0.037
21.870,-0.036
21.875,-0.028
21.880,-0.023
21.885,-0.020
21.890,-0.019
21.895,-0.023
21.900,-0.021
21.905,-0.026
21.910,-0.028
21.915,-0.016
21.920,-0.008
21.925,-0.006
21.930,-0.009
21.935,-0.006
21.940,0.000
21.945,0.008
21.950,0.015
21.955,0.015
21.960,0.025
21.965,0.040
21.970,0.039
21.975,0.040
21.980,0.047
21.985,0.052
21.990,0.059
21.995,0.059
22.000,0.059
22.005,0.067
22.010,0.064
22.015,0.050
22.020,0.035
22.025,0.011
22.030,-0.021
22.035,-0.040
22.040,-0.041
22.045,-0.030
22.050,-0.017
22.055,-0.020
22.060,-0.034
22.065,-0.028
22.070,-0.015
22.075,-0.016
22.080,-0.022
22.085,-0.025
22.090,-0.023
22.095,-0.024
22.100,-0.017
22.105,-0.005
22.110,-0.004
22.115,-0.015
22.120,-0.027
22.125,-0.031
22.130,-0.029
22.135,-0.009
22.140,0.076
22.145,0.242
22.150,0.392
22.155,0.383
22.160,0.193
22.165,-0.052
22.170,-0.227
22.175,-0.264
22.180,-0.185
22.185,-0.097
22.190,-0.038
22.195,-0.006
22.200,-0.005
22.205,-0.003
22.210,0.005
22.215,0.007
22.220,0.012
22.225,0.016
22.230,0.009
22.235,0.008
22.240,0.018
22.245,0.017
22.250,0.014
22.255,0.023
22.260,0.027
22.265,0.017
22.270,0.019
22.275,0.033
22.280,0.030
22.285,0.026
22.290,0.031
22.295,0.031
22.300,0.031
22.305,0.027
22.310,0.026
22.315,0.035
22.320,0.039
22.325,0.040
22.330,0.046
22.335,0.045
22.340,0.039
22.345,0.039
22.350,0.047
22.355,0.054
22.360,0.060
22.365,0.072
22.370,0.078
22.375,0.070
22.380,0.066
22.385,0.075
22.390,0.080
22.395,0.076
22.400,0.070
22.405,0.076
22.410,0.084
22.415,0.073
22.420,0.058
22.425,0.056
22.430,0.056
22.435,0.047
22.440,0.028
22.445,0.013
22.450,-0.004
22.455,-0.029
22.460,-0.042
22.465,-0.056
22.470,-0.068
22.475,-0.080
22.480,-0.097
22.485,-0.105
22.490,-0.111
22.495,-0.105
22.500,-0.092
22.505,-0.100
22.510,-0.104
22.515,-0.094
22.520,-0.082
22.525,-0.080
22.530,-0.088
22.535,-0.083
22.540,-0.071
22.545,-0.063
22.550,-0.056
22.555,-0.054
22.560,-0.048
22.565,-0.057
22.570,-0.067
22.575,-0.052
22.580,-0.045
22.585,-0.049
22.590,-0.052
22.595,-0.046
22.600,-0.032
22.605,-0.029
22.610,-0.035
22.615,-0.030
22.620,-0.022
22.625,-0.024
22.630,-0.031
22.635,-0.040
22.640,-0.038
22.645,-0.025
22.650,-0.019
22.655,-0.020
22.660,-0.022
22.665,-0.024
22.670,-0.020
22.675,-0.019
22.680,-0.026
22.685,-0.019
22.690,-0.005
22.695,-0.002
22.700,0.005
22.705,0.014
22.710,0.024
22.715,0.033
22.720,0.034
22.725,0.038
22.730,0.040
22.735,0.040
22.740,0.042
22.745,0.038
22.750,0.037
22.755,0.049
22.760,0.051
22.765,0.046
22.770,0.042
22.775,0.023
22.780,-0.001
22.785,-0.017
22.790,-0.029
22.795,-0.031
22.800,-0.022
22.805,-0.024
22.810,-0.026
22.815,-0.019
22.820,-0.025
22.825,-0.024
22.830,-0.014
22.835,-0.014
22.840,-0.016
22.845,-0.020
22.850,-0.019
22.855,-0.015
22.860,-0.017
22.865,-0.019
22.870,-0.015
22.875,-0.015
22.880,-0.022
22.885,-0.002
22.890,0.086
22.895,0.240
22.900,0.369
22.905,0.348
22.910,0.178
22.915,-0.034
22.920,-0.198
22.925,-0.234
22.930,-0.153
22.935,-0.077
22.940,-0.034
22.945,-0.015
22.950,-0.016
22.955,0.000
22.960,0.004
22.965,-0.002
22.970,0.012
22.975,0.016
22.980,0.009
22.985,0.007
22.990,0.012
22.995,0.012
23.000,0.007
23.005,0.014
23.010,0.020
23.015,0.021
23.020,0.021
23.025,0.024
23.030,0.021
23.035,0.022
23.040,0.025
23.045,0.025
23.050,0.022
23.055,0.024
23.060,0.031
23.065,0.037
23.070,0.038
23.075,0.033
23.080,0.035
23.085,0.044
23.090,0.044
23.095,0.041
23.100,0.044
23.105,0.050
23.110,0.055
23.115,0.059
23.120,0.060
23.125,0.060
23.130,0.066
23.135,0.071
23.140,0.078
23.145,0.079
23.150,0.073
23.155,0.073
23.160,0.072
23.165,0.067
23.170,0.060
23.175,0.055
23.180,0.050
23.185,0.032
23.190,0.016
23.195,0.007
23.200,-0.011
23.205,-0.029
23.210,-0.038
23.215,-0.045
23.220,-0.057
23.225,-0.068
23.230,-0.078
23.235,-0.080
23.240,-0.085
23.245,-0.092
23.250,-0.089
23.255,-0.082
23.260,-0.084
23.265,-0.086
23.270,-0.084
23.275,-0.084
23.280,-0.077
23.285,-0.069
23.290,-0.067
23.295,-0.063
23.300,-0.055
23.305,-0.045
23.310,-0.038
23.315,-0.038
23.320,-0.039
23.325,-0.044
23.330,-0.042
23.335,-0.038
23.340,-0.040
23.345,-0.037
23.350,-0.038
23.355,-0.042
23.360,-0.039
23.365,-0.033
23.370,-0.026
23.375,-0.022
23.380,-0.024
23.385,-0.026
23.390,-0.025
23.395,-0.022
23.400,-0.022
23.405,-0.022
23.410,-0.021
23.415,-0.023
23.420,-0.019
23.425,-0.013
23.430,-0.010
23.435,-0.009
23.440,-0.004
23.445,0.001
23.450,0.013
23.455,0.026
23.460,0.030
23.465,0.032
23.470,0.030
23.475,0.031
23.480,0.039
23.485,0.040
23.490,0.043
23.495,0.050
23.500,0.046
23.505,0.048
23.510,0.052
23.515,0.048
23.520,0.041
23.525,0.014
23.530,-0.022
23.535,-0.036
23.540,-0.037
23.545,-0.029
23.550,-0.027
23.555,-0.030
23.560,-0.028
23.565,-0.027
23.570,-0.022
23.575,-0.020
23.580,-0.020
23.585,-0.019
23.590,-0.019
23.595,-0.015
23.600,-0.012
23.605,-0.014
23.610,-0.013
23.615,-0.009
23.620,-0.021
23.625,-0.030
23.630,-0.012
23.635,0.054
23.640,0.183
23.645,0.329
23.650,0.384
23.655,0.277
23.660,0.058
23.665,-0.143
23.670,-0.223
23.675,-0.174
23.680,-0.094
23.685,-0.051
23.690,-0.032
23.695,-0.024
23.700,-0.015
23.705,-0.003
23.710,-0.008
23.715,-0.013
23.720,-0.005
23.725,0.000
23.730,0.004
23.735,0.005
23.740,0.001
23.745,0.003
23.750,0.006
23.755,0.007
23.760,0.010
23.765,0.011
23.770,0.006
23.775,0.004
23.780,0.010
23.785,0.021
23.790,0.029
23.795,0.023
23.800,0.023
23.805,0.028
23.810,0.024
23.815,0.020
23.820,0.022
23.825,0.028
23.830,0.037
23.835,0.042
23.840,0.043
23.845,0.041
23.850,0.033
23.855,0.033
23.860,0.053
23.865,0.065
23.870,0.062
23.875,0.063
23.880,0.064
23.885,0.066
23.890,0.064
23.895,0.062
23.900,0.076
23.905,0.081
23.910,0.071
23.915,0.063
23.920,0.058
23.925,0.053
23.930,0.044
23.935,0.023
23.940,0.004
23.945,0.000
23.950,-0.010
23.955,-0.027
23.960,-0.043
23.965,-0.055
23.970,-0.062
23.975,-0.068
23.980,-0.076
23.985,-0.083
23.990,-0.087
23.995,-0.090
24.000,-0.089
24.005,-0.083
24.010,-0.079
24.015,-0.075
24.020,-0.071
24.025,-0.078
24.030,-0.081
24.035,-0.067
24.040,-0.057
24.045,-0.054
24.050,-0.046
24.055,-0.041
24.060,-0.044
24.065,-0.050
24.070,-0.051
24.075,-0.042
24.080,-0.036
24.085,-0.039
24.090,-0.043
24.095,-0.038
24.100,-0.033
24.105,-0.030
24.110,-0.023
24.115,-0.027
24.120,-0.040
24.125,-0.038
24.130,-0.028
24.135,-0.021
24.140,-0.020
24.145,-0.022
24.150,-0.021
24.155,-0.016
24.160,-0.017
24.165,-0.023
24.170,-0.019
24.175,-0.018
24.180,-0.017
24.185,-0.012
24.190,-0.009
24.195,-0.001
24.200,0.005
24.205,-0.004
24.210,-0.007
24.215,0.005
24.220,0.016
24.225,0.025
24.230,0.032
24.235,0.034
24.240,0.036
24.245,0.043
24.250,0.045
24.255,0.047
24.260,0.046
24.265,0.043
24.270,0.050
24.275,0.056
24.280,0.058
24.285,0.061
24.290,0.054
24.295,0.042
24.300,0.024
24.305,-0.014
24.310,-0.041
24.315,-0.039
24.320,-0.026
24.325,-0.019
24.330,-0.024
24.335,-0.030
24.340,-0.021
24.345,-0.014
24.350,-0.023
24.355,-0.020
24.360,-0.014
24.365,-0.019
24.370,-0.017
24.375,-0.014
24.380,-0.010
24.385,-0.006
24.390,-0.016
24.395,-0.027
24.400,-0.022
24.405,-0.010
24.410,0.045
24.415,0.177
24.420,0.331
24.425,0.390
24.430,0.275
24.435,0.051
24.440,-0.146
24.445,-0.226
24.450,-0.183
24.455,-0.107
24.460,-0.058
24.465,-0.029
24.470,-0.016
24.475,-0.003
24.480,-0.001
24.485,-0.017
24.490,-0.015
24.495,-0.002
24.500,0.003
24.505,0.002
24.510,0.009
24.515,0.013
24.520,0.005
24.525,-0.001
24.530,0.000
24.535,0.005
24.540,0.015
24.545,0.018
24.550,0.015
24.555,0.017
24.560,0.018
24.565,0.018
24.570,0.023
24.575,0.023
24.580,0.023
24.585,0.029
24.590,0.030
24.595,0.031
24.600,0.036
24.605,0.034
24.610,0.032
24.615,0.034
24.620,0.040
24.625,0.050
24.630,0.050
24.635,0.043
24.640,0.047
24.645,0.054
24.650,0.058
24.655,0.067
24.660,0.072
24.665,0.070
24.670,0.067
24.675,0.066
24.680,0.069
24.685,0.067
24.690,0.063
24.695,0.061
24.700,0.054
24.705,0.043
24.710,0.034
24.715,0.024
24.720,0.009
24.725,-0.012
24.730,-0.033
24.735,-0.041
24.740,-0.045
24.745,-0.054
24.750,-0.070
24.755,-0.082
24.760,-0.082
24.765,-0.078
24.770,-0.082
24.775,-0.086
24.780,-0.083
24.785,-0.079
24.790,-0.080
24.795,-0.085
24.800,-0.080
24.805,-0.070
24.810,-0.062
24.815,-0.060
24.820,-0.064
24.825,-0.061
24.830,-0.052
24.835,-0.048
24.840,-0.045
24.845,-0.045
24.850,-0.049
24.855,-0.045
24.860,-0.042
24.865,-0.041
24.870,-0.037
24.875,-0.042
24.880,-0.047
24.885,-0.037
24.890,-0.033
24.895,-0.034
24.900,-0.030
24.905,-0.031
24.910,-0.025
24.915,-0.020
24.920,-0.029
24.925,-0.028
24.930,-0.022
24.935,-0.027
24.940,-0.026
24.945,-0.020
24.950,-0.011
24.955,-0.003
24.960,-0.010
24.965,-0.020
24.970,-0.018
24.975,-0.009
24.980,-0.002
24.985,-0.004
24.990,-0.006
24.995,0.000
25.000,0.002
25.005,-0.004
25.010,0.001
25.015,0.011
25.020,0.018
25.025,0.029
25.030,0.036
25.035,0.036
25.040,0.039
25.045,0.049
25.050,0.058
25.055,0.058
25.060,0.049
25.065,0.049
25.070,0.059
25.075,0.060
25.080,0.053
25.085,0.054
25.090,0.058
25.095,0.050
25.100,0.026
25.105,-0.004
25.110,-0.024
25.115,-0.032
25.120,-0.030
25.125,-0.023
25.130,-0.020
25.135,-0.020
25.140,-0.022
25.145,-0.024
25.150,-0.023
25.155,-0.022
25.160,-0.021
25.165,-0.018
25.170,-0.018
25.175,-0.019
25.180,-0.015
25.185,-0.007
25.190,-0.004
25.195,-0.013
25.200,-0.027
25.205,-0.023
25.210,0.023
25.215,0.133
25.220,0.295
25.225,0.393
25.230,0.327
25.235,0.124
25.240,-0.097
25.245,-0.225
25.250,-0.217
25.255,-0.133
25.260,-0.064
25.265,-0.027
25.270,-0.019
25.275,-0.020
25.280,-0.007
25.285,-0.007
25.290,-0.012
25.295,-0.008
25.300,-0.007
25.305,-0.007
25.310,-0.003
25.315,-0.002
25.320,-0.001
25.325,0.005
25.330,0.007
25.335,0.005
25.340,0.009
25.345,0.013
25.350,0.014
25.355,0.014
25.360,0.015
25.365,0.018
25.370,0.018
25.375,0.014
25.380,0.013
25.385,0.020
25.390,0.027
25.395,0.030
25.400,0.032
25.405,0.031
25.410,0.031
25.415,0.035
25.420,0.038
25.425,0.045
25.430,0.043
25.435,0.039
25.440,0.045
25.445,0.053
25.450,0.061
25.455,0.062
25.460,0.060
25.465,0.067
25.470,0.073
25.475,0.072
25.480,0.070
25.485,0.066
25.490,0.061
25.495,0.061
25.500,0.055
25.505,0.052
25.510,0.050
25.515,0.031
25.520,0.010
25.525,-0.008
25.530,-0.018
25.535,-0.024
25.540,-0.040
25.545,-0.060
25.550,-0.072
25.555,-0.082
25.560,-0.087
25.565,-0.083
25.570,-0.083
25.575,-0.085
25.580,-0.084
25.585,-0.088
25.590,-0.086
25.595,-0.078
25.600,-0.073
25.605,-0.071
25.610,-0.071
25.615,-0.068
25.620,-0.064
25.625,-0.059
25.630,-0.054
25.635,-0.052
25.640,-0.049
25.645,-0.045
25.650,-0.049
25.655,-0.051
25.660,-0.046
25.665,-0.038
25.670,-0.033
25.675,-0.033
25.680,-0.032
25.685,-0.035
25.690,-0.037
25.695,-0.036
25.700,-0.039
25.705,-0.034
25.710,-0.023
25.715,-0.025
25.720,-0.031
25.725,-0.024
25.730,-0.016
25.735,-0.014
25.740,-0.014
25.745,-0.017
25.750,-0.012
25.755,-0.011
25.760,-0.017
25.765,-0.018
25.770,-0.010
25.775,-0.007
25.780,-0.010
25.785,-0.011
25.790,-0.006
25.795,0.001
25.800,0.000
25.805,0.003
25.810,0.015
25.815,0.025
25.820,0.032
25.825,0.034
25.830,0.034
25.835,0.038
25.840,0.038
25.845,0.042
25.850,0.058
25.855,0.064
25.860,0.059
25.865,0.061
25.870,0.067
25.875,0.065
25.880,0.055
25.885,0.048
25.890,0.042
25.895,0.024
25.900,-0.005
25.905,-0.031
25.910,-0.040
25.915,-0.026
25.920,-0.019
25.925,-0.025
25.930,-0.028
25.935,-0.030
25.940,-0.026
25.945,-0.014
25.950,-0.019
25.955,-0.026
25.960,-0.025
25.965,-0.029
25.970,-0.016
25.975,-0.005
25.980,-0.013
25.985,-0.012
25.990,-0.015
25.995,-0.032
26.000,-0.036
26.005,0.009
26.010,0.134
26.015,0.309
26.020,0.411
26.025,0.334
26.030,0.117
26.035,-0.121
26.040,-0.265
26.045,-0.255
26.050,-0.161
26.055,-0.077
26.060,-0.023
26.065,-0.009
26.070,-0.004
26.075,0.004
26.080,-0.002
26.085,-0.009
26.090,-0.005
26.095,0.008
26.100,0.014
26.105,0.016
26.110,0.011
26.115,0.008
26.120,0.012
26.125,0.015
26.130,0.017
26.135,0.013
26.140,0.014
26.145,0.018
26.150,0.017
26.155,0.021
26.160,0.026
26.165,0.031
26.170,0.030
26.175,0.025
26.180,0.029
26.185,0.035
26.190,0.030
26.195,0.028
26.200,0.035
26.205,0.040
26.210,0.043
26.215,0.047
26.220,0.054
26.225,0.067
26.230,0.062
26.235,0.054
26.240,0.065
26.245,0.069
26.250,0.067
26.255,0.073
26.260,0.074
26.265,0.071
26.270,0.075
26.275,0.072
26.280,0.069
26.285,0.071
26.290,0.068
26.295,0.068
26.300,0.055
26.305,0.037
26.310,0.025
26.315,0.003
26.320,-0.011
26.325,-0.021
26.330,-0.035
26.335,-0.048
26.340,-0.069
26.345,-0.084
26.350,-0.091
26.355,-0.101
26.360,-0.104
26.365,-0.103
26.370,-0.105
26.375,-0.099
26.380,-0.082
26.385,-0.078
26.390,-0.090
26.395,-0.093
26.400,-0.082
26.405,-0.073
26.410,-0.072
26.415,-0.077
26.420,-0.067
26.425,-0.050
26.430,-0.050
26.435,-0.053
26.440,-0.045
26.445,-0.047
26.450,-0.054
26.455,-0.051
26.460,-0.049
26.465,-0.043
26.470,-0.043
26.475,-0.048
26.480,-0.036
26.485,-0.029
26.490,-0.030
26.495,-0.028
26.500,-0.028
26.505,-0.026
26.510,-0.025
26.515,-0.029
26.520,-0.031
26.525,-0.032
26.530,-0.028
26.535,-0.018
26.540,-0.016
26.545,-0.014
26.550,-0.009
26.555,-0.017
26.560,-0.017
26.565,0.002
26.570,0.011
26.575,0.013
26.580,0.017
26.585,0.018
26.590,0.037
26.595,0.049
26.600,0.038
26.605,0.037
26.610,0.045
26.615,0.048
26.620,0.055
26.625,0.061
26.630,0.054
26.635,0.045
26.640,0.043
26.645,0.033
26.650,0.006
26.655,-0.025
26.660,-0.046
26.665,-0.039
26.670,-0.019
26.675,-0.022
26.680,-0.029
26.685,-0.024
26.690,-0.031
26.695,-0.028
26.700,-0.018
26.705,-0.017
26.710,-0.009
26.715,-0.009
26.720,-0.017
26.725,-0.016
26.730,-0.014
26.735,-0.010
26.740,-0.017
26.745,-0.030
26.750,-0.026
26.755,0.005
26.760,0.101
26.765,0.257
26.770,0.374
26.775,0.343
26.780,0.159
26.785,-0.067
26.790,-0.224
26.795,-0.247
26.800,-0.163
26.805,-0.077
26.810,-0.021
26.815,-0.001
26.820,-0.002
26.825,0.007
26.830,0.011
26.835,0.006
26.840,0.007
26.845,0.013
26.850,0.010
26.855,0.004
26.860,0.006
26.865,0.015
26.870,0.029
26.875,0.038
26.880,0.027
26.885,0.014
26.890,0.019
26.895,0.024
26.900,0.027
26.905,0.033
26.910,0.030
26.915,0.018
26.920,0.022
26.925,0.034
26.930,0.035
26.935,0.034
26.940,0.036
26.945,0.041
26.950,0.045
26.955,0.046
26.960,0.046
26.965,0.044
26.970,0.052
26.975,0.067
26.980,0.067
26.985,0.051
26.990,0.049
26.995,0.061
27.000,0.072
27.005,0.070
27.010,0.066
27.015,0.077
27.020,0.079
27.025,0.064
27.030,0.057
27.035,0.066
27.040,0.071
27.045,0.064
27.050,0.052
27.055,0.029
27.060,0.012
27.065,0.005
27.070,-0.010
27.075,-0.024
27.080,-0.031
27.085,-0.046
27.090,-0.065
27.095,-0.079
27.100,-0.094
27.105,-0.096
27.110,-0.093
27.115,-0.101
27.120,-0.090
27.125,-0.083
27.130,-0.085
27.135,-0.079
27.140,-0.079
27.145,-0.077
27.150,-0.068
27.155,-0.063
27.160,-0.066
27.165,-0.066
27.170,-0.059
27.175,-0.053
27.180,-0.049
27.185,-0.052
27.190,-0.054
27.195,-0.045
27.200,-0.040
27.205,-0.039
27.210,-0.032
27.215,-0.029
27.220,-0.037
27.225,-0.039
27.230,-0.026
27.235,-0.021
27.240,-0.023
27.245,-0.027
27.250,-0.027
27.255,-0.016
27.260,-0.021
27.265,-0.032
27.270,-0.033
27.275,-0.027
27.280,-0.020
27.285,-0.024
27.290,-0.025
27.295,-0.012
27.300,0.002
27.305,0.006
27.310,0.013
27.315,0.022
27.320,0.026
27.325,0.029
27.330,0.028
27.335,0.035
27.340,0.046
27.345,0.043
27.350,0.043
27.355,0.051
27.360,0.048
27.365,0.038
27.370,0.039
27.375,0.036
27.380,0.023
27.385,-0.005
27.390,-0.039
27.395,-0.045
27.400,-0.034
27.405,-0.032
27.410,-0.028
27.415,-0.031
27.420,-0.032
27.425,-0.023
27.430,-0.024
27.435,-0.021
27.440,-0.015
27.445,-0.021
27.450,-0.022
27.455,-0.014
27.460,-0.010
27.465,-0.010
27.470,-0.013
27.475,-0.023
27.480,-0.030
27.485,-0.020
27.490,0.027
27.495,0.156
27.500,0.322
27.505,0.391
27.510,0.294
27.515,0.084
27.520,-0.117
27.525,-0.212
27.530,-0.191
27.535,-0.119
27.540,-0.058
27.545,-0.021
27.550,-0.015
27.555,-0.016
27.560,-0.002
27.565,0.000
27.570,-0.004
27.575,0.004
27.580,0.002
27.585,-0.004
27.590,0.000
27.595,0.003
27.600,0.010
27.605,0.012
27.610,0.006
27.615,0.006
27.620,0.009
27.625,0.014
27.630,0.015
27.635,0.016
27.640,0.023
27.645,0.023
27.650,0.024
27.655,0.027
27.660,0.026
27.665,0.023
27.670,0.023
27.675,0.027
27.680,0.031
27.685,0.030
27.690,0.035
27.695,0.044
27.700,0.048
27.705,0.052
27.710,0.051
27.715,0.051
27.720,0.059
27.725,0.066
27.730,0.069
27.735,0.070
27.740,0.068
27.745,0.070
27.750,0.076
27.755,0.074
27.760,0.070
27.765,0.072
27.770,0.066
27.775,0.053
27.780,0.046
27.785,0.036
27.790,0.029
27.795,0.025
27.800,0.007
27.805,-0.016
27.810,-0.031
27.815,-0.041
27.820,-0.050
27.825,-0.064
27.830,-0.080
27.835,-0.086
27.840,-0.088
27.845,-0.090
27.850,-0.085
27.855,-0.087
27.860,-0.092
27.865,-0.088
27.870,-0.079
27.875,-0.070
27.880,-0.070
27.885,-0.069
27.890,-0.063
27.895,-0.058
27.900,-0.055
27.905,-0.053
27.910,-0.051
27.915,-0.050
27.920,-0.047
27.925,-0.041
27.930,-0.039
27.935,-0.041
27.940,-0.043
27.945,-0.041
27.950,-0.038
27.955,-0.034
27.960,-0.030
27.965,-0.035
27.970,-0.035
27.975,-0.027
27.980,-0.022
27.985,-0.018
27.990,-0.027
27.995,-0.029
28.000,-0.022
28.005,-0.023
28.010,-0.021
28.015,-0.017
28.020,-0.016
28.025,-0.012
28.030,-0.015
28.035,-0.017
28.040,-0.010
28.045,-0.006
28.050,0.002
28.055,0.017
28.060,0.028
28.065,0.033
28.070,0.027
28.075,0.023
28.080,0.033
28.085,0.045
28.090,0.043
28.095,0.039
28.100,0.045
28.105,0.049
28.110,0.049
28.115,0.052
28.120,0.050
28.125,0.043
28.130,0.035
28.135,0.008
28.140,-0.018
28.145,-0.033
28.150,-0.039
28.155,-0.030
28.160,-0.024
28.165,-0.028
28.170,-0.028
28.175,-0.027
28.180,-0.027
28.185,-0.026
28.190,-0.021
28.195,-0.016
28.200,-0.022
28.205,-0.027
28.210,-0.023
28.215,-0.010
28.220,0.000
28.225,-0.008
28.230,-0.023
28.235,-0.029
28.240,-0.006
28.245,0.085
28.250,0.242
28.255,0.377
28.260,0.373
28.265,0.206
28.270,-0.015
28.275,-0.182
28.280,-0.229
28.285,-0.161
28.290,-0.081
28.295,-0.033
28.300,-0.015
28.305,-0.014
28.310,-0.007
28.315,-0.008
28.320,-0.017
28.325,-0.009
28.330,0.000
28.335,-0.005
28.340,0.000
28.345,0.006
28.350,0.004
28.355,0.005
28.360,0.006
28.365,0.010
28.370,0.015
28.375,0.015
28.380,0.014
28.385,0.015
28.390,0.014
28.395,0.020
28.400,0.023
28.405,0.015
28.410,0.021
28.415,0.029
28.420,0.027
28.425,0.028
28.430,0.030
28.435,0.033
28.440,0.035
28.445,0.035
28.450,0.039
28.455,0.045
28.460,0.045
28.465,0.048
28.470,0.059
28.475,0.062
28.480,0.061
28.485,0.064
28.490,0.063
28.495,0.068
28.500,0.075
28.505,0.075
28.510,0.074
28.515,0.073
28.520,0.069
28.525,0.067
28.530,0.057
28.535,0.044
28.540,0.038
28.545,0.027
28.550,0.009
28.555,-0.005
28.560,-0.015
28.565,-0.028
28.570,-0.045
28.575,-0.057
28.580,-0.067
28.585,-0.076
28.590,-0.080
28.595,-0.085
28.600,-0.089
28.605,-0.089
28.610,-0.087
28.615,-0.078
28.620,-0.074
28.625,-0.077
28.630,-0.075
28.635,-0.070
28.640,-0.065
28.645,-0.063
28.650,-0.057
28.655,-0.048
28.660,-0.045
28.665,-0.049
28.670,-0.055
28.675,-0.052
28.680,-0.045
28.685,-0.045
28.690,-0.041
28.695,-0.041
28.700,-0.045
28.705,-0.044
28.710,-0.041
28.715,-0.040
28.720,-0.036
28.725,-0.031
28.730,-0.027
28.735,-0.027
28.740,-0.027
28.745,-0.024
28.750,-0.024
28.755,-0.022
28.760,-0.016
28.765,-0.016
28.770,-0.020
28.775,-0.022
28.780,-0.018
28.785,-0.011
28.790,-0.008
28.795,-0.007
28.800,-0.008
28.805,-0.011
28.810,-0.014
28.815,-0.007
28.820,0.006
28.825,0.015
28.830,0.024
28.835,0.031
28.840,0.031
28.845,0.032
28.850,0.041
28.855,0.048
28.860,0.047
28.865,0.045
28.870,0.048
28.875,0.053
28.880,0.056
28.885,0.057
28.890,0.059
28.895,0.055
28.900,0.037
28.905,0.012
28.910,-0.019
28.915,-0.040
28.920,-0.042
28.925,-0.036
28.930,-0.028
28.935,-0.026
28.940,-0.027
28.945,-0.022
28.950,-0.015
28.955,-0.011
28.960,-0.012
28.965,-0.015
28.970,-0.023
28.975,-0.021
28.980,-0.012
28.985,-0.009
28.990,-0.005
28.995,-0.008
29.000,-0.021
29.005,-0.027
29.010,-0.017
29.015,0.043
29.020,0.186
29.025,0.346
29.030,0.397
29.035,0.283
29.040,0.062
29.045,-0.139
29.050,-0.220
29.055,-0.177
29.060,-0.100
29.065,-0.048
29.070,-0.026
29.075,-0.028
29.080,-0.019
29.085,-0.006
29.090,-0.012
29.095,-0.011
29.100,-0.005
29.105,-0.005
29.110,-0.002
29.115,-0.002
29.120,-0.004
29.125,0.004
29.130,0.010
29.135,0.010
29.140,0.008
29.145,0.010
29.150,0.013
29.155,0.009
29.160,0.009
29.165,0.015
29.170,0.020
29.175,0.024
29.180,0.025
29.185,0.020
29.190,0.022
29.195,0.027
29.200,0.031
29.205,0.040
29.210,0.038
29.215,0.035
29.220,0.036
29.225,0.036
29.230,0.040
29.235,0.039
29.240,0.044
29.245,0.054
29.250,0.056
29.255,0.054
29.260,0.055
29.265,0.066
29.270,0.076
29.275,0.072
29.280,0.070
29.285,0.072
29.290,0.067
29.295,0.064
29.300,0.059
29.305,0.054
29.310,0.047
29.315,0.032
29.320,0.018
29.325,0.006
29.330,-0.005
29.335,-0.018
29.340,-0.035
29.345,-0.046
29.350,-0.062
29.355,-0.076
29.360,-0.084
29.365,-0.095
29.370,-0.088
29.375,-0.082
29.380,-0.090
29.385,-0.088
29.390,-0.084
29.395,-0.080
29.400,-0.072
29.405,-0.073
29.410,-0.074
29.415,-0.068
29.420,-0.064
29.425,-0.060
29.430,-0.054
29.435,-0.052
29.440,-0.056
29.445,-0.056
29.450,-0.047
29.455,-0.046
29.460,-0.046
29.465,-0.042
29.470,-0.042
29.475,-0.037
29.480,-0.035
29.485,-0.039
29.490,-0.033
29.495,-0.031
29.500,-0.033
29.505,-0.032
29.510,-0.028
29.515,-0.025
29.520,-0.025
29.525,-0.027
29.530,-0.025
29.535,-0.019
29.540,-0.016
29.545,-0.019
29.550,-0.021
29.555,-0.019
29.560,-0.014
29.565,-0.008
29.570,-0.010
29.575,-0.013
29.580,-0.006
29.585,0.004
29.590,0.003
29.595,0.000
29.600,0.004
29.605,0.012
29.610,0.023
29.615,0.034
29.620,0.041
29.625,0.048
29.630,0.048
29.635,0.045
29.640,0.052
29.645,0.052
29.650,0.051
29.655,0.058
29.660,0.060
29.665,0.057
29.670,0.054
29.675,0.052
29.680,0.040
29.685,0.009
29.690,-0.023
29.695,-0.035
29.700,-0.028
29.705,-0.022
29.710,-0.029
29.715,-0.035
29.720,-0.035
29.725,-0.025
29.730,-0.014
29.735,-0.018
29.740,-0.021
29.745,-0.015
29.750,-0.015
29.755,-0.017
29.760,-0.012
29.765,-0.009
29.770,-0.008
29.775,-0.013
29.780,-0.026
29.785,-0.037
29.790,-0.026
29.795,0.041
29.800,0.187
29.805,0.356
29.810,0.414
29.815,0.296
29.820,0.070
29.825,-0.153
29.830,-0.261
29.835,-0.214
29.840,-0.114
29.845,-0.047
29.850,-0.017
29.855,-0.016
29.860,-0.010
29.865,-0.001
29.870,-0.006
29.875,0.002
29.880,0.011
29.885,-0.003
29.890,-0.013
29.895,-0.008
29.900,0.003
29.905,0.006
29.910,0.004
29.915,0.007
29.920,0.011
29.925,0.016
29.930,0.018
29.935,0.020
29.940,0.021
29.945,0.018
29.950,0.019
29.955,0.022
29.960,0.020
29.965,0.021
29.970,0.027
29.975,0.035
29.980,0.041
29.985,0.043
29.990,0.045
29.995,0.040
30.000,0.031
30.005,0.036
30.010,0.046
30.015,0.056
30.020,0.060
30.025,0.054
30.030,0.065
30.035,0.076
30.040,0.068
30.045,0.067
30.050,0.068
30.055,0.069
30.060,0.082
30.065,0.089
30.070,0.083
30.075,0.075
30.080,0.060
30.085,0.050
30.090,0.047
30.095,0.039
30.100,0.021
30.105,0.001
30.110,-0.010
30.115,-0.026
30.120,-0.038
30.125,-0.053
30.130,-0.071
30.135,-0.078
30.140,-0.086
30.145,-0.092
30.150,-0.093
30.155,-0.099
30.160,-0.104
30.165,-0.102
30.170,-0.092
30.175,-0.082
30.180,-0.078
30.185,-0.081
30.190,-0.082
30.195,-0.069
30.200,-0.066
30.205,-0.075
30.210,-0.076
30.215,-0.069
30.220,-0.055
30.225,-0.044
30.230,-0.045
30.235,-0.051
30.240,-0.048
30.245,-0.047
30.250,-0.049
30.255,-0.041
30.260,-0.040
30.265,-0.040
30.270,-0.040
30.275,-0.045
30.280,-0.037
30.285,-0.027
30.290,-0.036
30.295,-0.038
30.300,-0.031
30.305,-0.025
30.310,-0.016
30.315,-0.019
30.320,-0.021
30.325,-0.023
30.330,-0.028
30.335,-0.021
30.340,-0.005
30.345,0.009
30.350,0.008
30.355,0.012
30.360,0.029
30.365,0.029
30.370,0.023
30.375,0.024
30.380,0.031
30.385,0.042
30.390,0.046
30.395,0.050
30.400,0.056
30.405,0.060
30.410,0.065
30.415,0.056
30.420,0.043
30.425,0.031
30.430,0.005
30.435,-0.022
30.440,-0.042
30.445,-0.042
30.450,-0.026
30.455,-0.026
30.460,-0.032
30.465,-0.035
30.470,-0.032
30.475,-0.024
30.480,-0.021
30.485,-0.021
30.490,-0.022
30.495,-0.021
30.500,-0.016
30.505,-0.012
30.510,-0.013
30.515,-0.005
30.520,-0.004
30.525,-0.020
30.530,-0.025
30.535,-0.027
30.540,-0.002
30.545,0.108
30.550,0.271
30.555,0.391
30.560,0.350
30.565,0.135
30.570,-0.105
30.575,-0.244
30.580,-0.251
30.585,-0.157
30.590,-0.073
30.595,-0.034
30.600,-0.013
30.605,0.003
30.610,0.014
30.615,0.012
30.620,0.009
30.625,0.013
30.630,0.015
30.635,0.012
30.640,0.011
30.645,0.020
30.650,0.026
30.655,0.023
30.660,0.024
30.665,0.024
30.670,0.023
30.675,0.034
30.680,0.033
30.685,0.025
30.690,0.030
30.695,0.034
30.700,0.034
30.705,0.030
30.710,0.034
30.715,0.045
30.720,0.044
30.725,0.040
30.730,0.036
30.735,0.033
30.740,0.043
30.745,0.050
30.750,0.050
30.755,0.052
30.760,0.053
30.765,0.060
30.770,0.069
30.775,0.065
30.780,0.069
30.785,0.090
30.790,0.088
30.795,0.076
30.800,0.077
30.805,0.078
30.810,0.081
30.815,0.079
30.820,0.069
30.825,0.065
30.830,0.063
30.835,0.054
30.840,0.043
30.845,0.021
30.850,-0.007
30.855,-0.020
30.860,-0.030
30.865,-0.045
30.870,-0.058
30.875,-0.064
30.880,-0.074
30.885,-0.092
30.890,-0.103
30.895,-0.102
30.900,-0.092
30.905,-0.091
30.910,-0.092
30.915,-0.095
30.920,-0.101
30.925,-0.090
30.930,-0.075
30.935,-0.069
30.940,-0.073
30.945,-0.074
30.950,-0.066
30.955,-0.062
30.960,-0.060
30.965,-0.064
30.970,-0.059
30.975,-0.046
30.980,-0.047
30.985,-0.046
30.990,-0.042
30.995,-0.048
31.000,-0.037
31.005,-0.028
31.010,-0.040
31.015,-0.041
31.020,-0.032
31.025,-0.029
31.030,-0.035
31.035,-0.037
31.040,-0.032
31.045,-0.025
31.050,-0.025
31.055,-0.027
31.060,-0.017
31.065,-0.014
31.070,-0.022
31.075,-0.024
31.080,-0.022
31.085,-0.015
31.090,-0.004
31.095,0.004
31.100,0.011
31.105,0.022
31.110,0.025
31.115,0.022
31.120,0.024
31.125,0.035
31.130,0.043
31.135,0.039
31.140,0.035
31.145,0.039
31.150,0.045
31.155,0.049
31.160,0.055
31.165,0.053
31.170,0.023
31.175,-0.017
31.180,-0.038
31.185,-0.039
31.190,-0.030
31.195,-0.026
31.200,-0.027
31.205,-0.028
31.210,-0.025
31.215,-0.020
31.220,-0.020
31.225,-0.023
31.230,-0.024
31.235,-0.020
31.240,-0.013
31.245,-0.012
31.250,-0.011
31.255,-0.009
31.260,-0.013
31.265,-0.027
31.270,-0.036
31.275,-0.024
31.280,0.022
31.285,0.134
31.290,0.289
31.295,0.383
31.300,0.321
31.305,0.118
31.310,-0.096
31.315,-0.210
31.320,-0.206
31.325,-0.128
31.330,-0.060
31.335,-0.033
31.340,-0.021
31.345,-0.007
31.350,0.002
31.355,-0.001
31.360,-0.007
31.365,-0.003
31.370,0.004
31.375,0.003
31.380,0.001
31.385,0.013
31.390,0.017
31.395,0.009
31.400,0.011
31.405,0.010
31.410,0.015
31.415,0.024
31.420,0.025
31.425,0.027
31.430,0.024
31.435,0.018
31.440,0.019
31.445,0.026
31.450,0.038
31.455,0.037
31.460,0.027
31.465,0.024
31.470,0.027
31.475,0.038
31.480,0.046
31.485,0.039
31.490,0.037
31.495,0.045
31.500,0.053
31.505,0.058
31.510,0.058
31.515,0.061
31.520,0.066
31.525,0.066
31.530,0.067
31.535,0.074
31.540,0.074
31.545,0.072
31.550,0.073
31.555,0.074
31.560,0.067
31.565,0.059
31.570,0.059
31.575,0.051
31.580,0.032
31.585,0.017
31.590,0.008
31.595,-0.003
31.600,-0.023
31.605,-0.048
31.610,-0.058
31.615,-0.062
31.620,-0.076
31.625,-0.084
31.630,-0.085
31.635,-0.092
31.640,-0.098
31.645,-0.095
31.650,-0.087
31.655,-0.080
31.660,-0.076
31.665,-0.076
31.670,-0.077
31.675,-0.064
31.680,-0.056
31.685,-0.059
31.690,-0.056
31.695,-0.056
31.700,-0.056
31.705,-0.051
31.710,-0.052
31.715,-0.047
31.720,-0.042
31.725,-0.044
31.730,-0.039
31.735,-0.037
31.740,-0.037
31.745,-0.038
31.750,-0.036
31.755,-0.035
31.760,-0.038
31.765,-0.033
31.770,-0.024
31.775,-0.021
31.780,-0.022
31.785,-0.025
31.790,-0.028
31.795,-0.027
31.800,-0.023
31.805,-0.016
31.810,-0.012
31.815,-0.011
31.820,-0.004
31.825,0.001
31.830,0.004
31.835,0.010
31.840,0.019
31.845,0.024
31.850,0.026
31.855,0.028
31.860,0.034
31.865,0.039
31.870,0.040
31.875,0.044
31.880,0.047
31.885,0.049
31.890,0.048
31.895,0.048
31.900,0.046
31.905,0.027
31.910,-0.004
31.915,-0.033
31.920,-0.044
31.925,-0.036
31.930,-0.031
31.935,-0.032
31.940,-0.032
31.945,-0.024
31.950,-0.016
31.955,-0.021
31.960,-0.030
31.965,-0.024
31.970,-0.017
31.975,-0.017
31.980,-0.016
31.985,-0.018
31.990,-0.016
31.995,-0.016
32.000,-0.021
32.005,-0.027
32.010,-0.033
32.015,-0.010
32.020,0.085
32.025,0.254
32.030,0.390
32.035,0.376
32.040,0.202
32.045,-0.025
32.050,-0.183
32.055,-0.214
32.060,-0.144
32.065,-0.076
32.070,-0.042
32.075,-0.024
32.080,-0.015
32.085,-0.007
32.090,-0.011
32.095,-0.015
32.100,-0.007
32.105,0.000
32.110,-0.001
32.115,0.002
32.120,0.011
32.125,0.009
32.130,0.005
32.135,0.007
32.140,0.008
32.145,0.013
32.150,0.018
32.155,0.019
32.160,0.013
32.165,0.010
32.170,0.014
32.175,0.018
32.180,0.017
32.185,0.023
32.190,0.033
32.195,0.032
32.200,0.025
32.205,0.025
32.210,0.030
32.215,0.039
32.220,0.044
32.225,0.044
32.230,0.046
32.235,0.048
32.240,0.054
32.245,0.059
32.250,0.057
32.255,0.054
32.260,0.065
32.265,0.077
32.270,0.077
32.275,0.066
32.280,0.064
32.285,0.075
32.290,0.075
32.295,0.069
32.300,0.062
32.305,0.051
32.310,0.044
32.315,0.038
32.320,0.032
32.325,0.024
32.330,0.005
32.335,-0.019
32.340,-0.035
32.345,-0.047
32.350,-0.061
32.355,-0.071
32.360,-0.076
32.365,-0.081
32.370,-0.086
32.375,-0.088
32.380,-0.088
32.385,-0.078
32.390,-0.069
32.395,-0.066
32.400,-0.068
32.405,-0.070
32.410,-0.069
32.415,-0.066
32.420,-0.061
32.425,-0.058
32.430,-0.054
32.435,-0.054
32.440,-0.055
32.445,-0.053
32.450,-0.052
32.455,-0.048
32.460,-0.043
32.465,-0.041
32.470,-0.038
32.475,-0.037
32.480,-0.036
32.485,-0.032
32.490,-0.028
32.495,-0.028
32.500,-0.029
32.505,-0.029
32.510,-0.029
32.515,-0.026
32.520,-0.027
32.525,-0.029
32.530,-0.022
32.535,-0.015
32.540,-0.019
32.545,-0.024
32.550,-0.026
32.555,-0.019
32.560,-0.008
32.565,-0.009
32.570,-0.013
32.575,-0.009
32.580,-0.002
32.585,0.008
32.590,0.020
32.595,0.028
32.600,0.033
32.605,0.032
32.610,0.032
32.615,0.042
32.620,0.048
32.625,0.043
32.630,0.046
32.635,0.050
32.640,0.055
32.645,0.058
32.650,0.051
32.655,0.045
32.660,0.030
32.665,0.001
32.670,-0.020
32.675,-0.030
32.680,-0.033
32.685,-0.032
32.690,-0.033
32.695,-0.033
32.700,-0.027
32.705,-0.024
32.710,-0.023
32.715,-0.018
32.720,-0.020
32.725,-0.021
32.730,-0.020
32.735,-0.024
32.740,-0.019
32.745,-0.011
32.750,-0.008
32.755,-0.012
32.760,-0.024
32.765,-0.032
32.770,-0.017
32.775,0.051
32.780,0.192
32.785,0.351
32.790,0.403
32.795,0.280
32.800,0.056
32.805,-0.142
32.810,-0.223
32.815,-0.176
32.820,-0.097
32.825,-0.052
32.830,-0.031
32.835,-0.024
32.840,-0.016
32.845,-0.004
32.850,-0.007
32.855,-0.008
32.860,0.001
32.865,-0.003
32.870,-0.005
32.875,0.000
32.880,-0.001
32.885,0.007
32.890,0.017
32.895,0.012
32.900,0.009
32.905,0.012
32.910,0.016
32.915,0.013
32.920,0.008
32.925,0.017
32.930,0.025
32.935,0.024
32.940,0.017
32.945,0.014
32.950,0.018
32.955,0.021
32.960,0.027
32.965,0.031
32.970,0.034
32.975,0.037
32.980,0.036
32.985,0.037
32.990,0.039
32.995,0.043
33.000,0.050
33.005,0.057
33.010,0.058
33.015,0.057
33.020,0.060
33.025,0.063
33.030,0.066
33.035,0.069
33.040,0.070
33.045,0.069
33.050,0.072
33.055,0.074
33.060,0.069
33.065,0.056
33.070,0.040
33.075,0.029
33.080,0.016
33.085,0.002
33.090,-0.007
33.095,-0.017
33.100,-0.031
33.105,-0.049
33.110,-0.064
33.115,-0.072
33.120,-0.078
33.125,-0.082
33.130,-0.086
33.135,-0.087
33.140,-0.080
33.145,-0.079
33.150,-0.081
33.155,-0.079
33.160,-0.076
33.165,-0.071
33.170,-0.065
33.175,-0.065
33.180,-0.061
33.185,-0.056
33.190,-0.058
33.195,-0.056
33.200,-0.054
33.205,-0.052
33.210,-0.042
33.215,-0.037
33.220,-0.044
33.225,-0.048
33.230,-0.044
33.235,-0.035
33.240,-0.031
33.245,-0.033
33.250,-0.032
33.255,-0.030
33.260,-0.029
33.265,-0.030
33.270,-0.031
33.275,-0.029
33.280,-0.030
33.285,-0.031
33.290,-0.027
33.295,-0.019
33.300,-0.016
33.305,-0.023
33.310,-0.023
33.315,-0.013
33.320,-0.007
33.325,-0.006
33.330,-0.007
33.335,-0.010
33.340,-0.009
33.345,-0.007
33.350,-0.007
33.355,-0.002
33.360,0.000
33.365,0.000
33.370,0.005
33.375,0.010
33.380,0.019
33.385,0.029
33.390,0.035
33.395,0.040
33.400,0.046
33.405,0.053
33.410,0.055
33.415,0.052
33.420,0.051
33.425,0.051
33.430,0.057
33.435,0.059
33.440,0.060
33.445,0.060
33.450,0.050
33.455,0.032
33.460,0.004
33.465,-0.027
33.470,-0.037
33.475,-0.028
33.480,-0.021
33.485,-0.023
33.490,-0.025
33.495,-0.028
33.500,-0.029
33.505,-0.025
33.510,-0.016
33.515,-0.013
33.520,-0.020
33.525,-0.022
33.530,-0.018
33.535,-0.012
33.540,-0.011
33.545,-0.014
33.550,-0.019
33.555,-0.022
33.560,-0.022
33.565,0.001
33.570,0.097
33.575,0.261
33.580,0.394
33.585,0.384
33.590,0.206
33.595,-0.029
33.600,-0.191
33.605,-0.224
33.610,-0.157
33.615,-0.083
33.620,-0.043
33.625,-0.026
33.630,-0.015
33.635,-0.014
33.640,-0.020
33.645,-0.015
33.650,0.000
33.655,0.006
33.660,-0.003
33.665,-0.002
33.670,0.010
33.675,0.008
33.680,-0.003
33.685,-0.003
33.690,0.011
33.695,0.015
33.700,0.007
33.705,0.003
33.710,0.004
33.715,0.011
33.720,0.019
33.725,0.017
33.730,0.021
33.735,0.029
33.740,0.025
33.745,0.021
33.750,0.023
33.755,0.030
33.760,0.039
33.765,0.044
33.770,0.040
33.775,0.038
33.780,0.036
33.785,0.030
33.790,0.043
33.795,0.056
33.800,0.055
33.805,0.059
33.810,0.061
33.815,0.067
33.820,0.077
33.825,0.076
33.830,0.075
33.835,0.071
33.840,0.068
33.845,0.070
33.850,0.076
33.855,0.070
33.860,0.047
33.865,0.030
33.870,0.032
33.875,0.028
33.880,0.001
33.885,-0.023
33.890,-0.035
33.895,-0.041
33.900,-0.049
33.905,-0.071
33.910,-0.084
33.915,-0.087
33.920,-0.095
33.925,-0.096
33.930,-0.092
33.935,-0.091
33.940,-0.086
33.945,-0.082
33.950,-0.086
33.955,-0.090
33.960,-0.083
33.965,-0.073
33.970,-0.066
33.975,-0.063
33.980,-0.063
33.985,-0.060
33.990,-0.061
33.995,-0.061
34.000,-0.057
34.005,-0.055
34.010,-0.051
34.015,-0.045
34.020,-0.041
34.025,-0.037
34.030,-0.043
34.035,-0.051
34.040,-0.048
34.045,-0.041
34.050,-0.036
34.055,-0.039
34.060,-0.040
34.065,-0.026
34.070,-0.023
34.075,-0.030
34.080,-0.027
34.085,-0.024
34.090,-0.022
34.095,-0.023
34.100,-0.023
34.105,-0.014
34.110,-0.015
34.115,-0.017
34.120,-0.010
34.125,-0.008
34.130,-0.004
34.135,-0.005
34.140,-0.004
34.145,0.005
34.150,0.008
34.155,0.009
34.160,0.017
34.165,0.026
34.170,0.030
34.175,0.038
34.180,0.050
34.185,0.052
34.190,0.045
34.195,0.044
34.200,0.057
34.205,0.065
34.210,0.057
34.215,0.057
34.220,0.067
34.225,0.065
34.230,0.049
34.235,0.018
34.240,-0.014
34.245,-0.026
34.250,-0.029
34.255,-0.034
34.260,-0.031
34.265,-0.026
34.270,-0.024
34.275,-0.019
34.280,-0.022
34.285,-0.024
34.290,-0.017
34.295,-0.014
34.300,-0.018
34.305,-0.019
34.310,-0.010
34.315,-0.003
34.320,-0.005
34.325,-0.010
34.330,-0.019
34.335,-0.028
34.340,-0.026
34.345,-0.008
34.350,0.079
34.355,0.250
34.360,0.382
34.365,0.356
34.370,0.172
34.375,-0.076
34.380,-0.249
34.385,-0.270
34.390,-0.177
34.395,-0.079
34.400,-0.026
34.405,-0.005
34.410,0.002
34.415,0.012
34.420,0.013
34.425,0.004
34.430,0.011
34.435,0.026
34.440,0.018
34.445,0.007
34.450,0.012
34.455,0.013
34.460,0.015
34.465,0.019
34.470,0.018
34.475,0.023
34.480,0.022
34.485,0.017
34.490,0.024
34.495,0.036
34.500,0.033
34.505,0.023
34.510,0.028
34.515,0.037
34.520,0.036
34.525,0.027
34.530,0.023
34.535,0.031
34.540,0.045
34.545,0.048
34.550,0.048
34.555,0.057
34.560,0.062
34.565,0.056
34.570,0.049
34.575,0.047
34.580,0.053
34.585,0.062
34.590,0.068
34.595,0.071
34.600,0.075
34.605,0.075
34.610,0.071
34.615,0.074
34.620,0.072
34.625,0.065
34.630,0.063
34.635,0.056
34.640,0.051
34.645,0.039
34.650,0.019
34.655,0.006
34.660,-0.007
34.665,-0.020
34.670,-0.036
34.675,-0.058
34.680,-0.071
34.685,-0.079
34.690,-0.087
34.695,-0.084
34.700,-0.083
34.705,-0.088
34.710,-0.096
34.715,-0.104
34.720,-0.098
34.725,-0.089
34.730,-0.088
34.735,-0.089
34.740,-0.085
34.745,-0.077
34.750,-0.072
34.755,-0.067
34.760,-0.065
34.765,-0.059
34.770,-0.055
34.775,-0.059
34.780,-0.054
34.785,-0.046
34.790,-0.045
34.795,-0.041
34.800,-0.041
34.805,-0.042
34.810,-0.037
34.815,-0.035
34.820,-0.033
34.825,-0.039
34.830,-0.044
34.835,-0.035
34.840,-0.032
34.845,-0.030
34.850,-0.026
34.855,-0.023
34.860,-0.021
34.865,-0.026
34.870,-0.020
34.875,-0.018
34.880,-0.026
34.885,-0.023
34.890,-0.015
34.895,-0.010
34.900,-0.007
34.905,-0.002
34.910,0.002
34.915,0.008
34.920,0.012
34.925,0.014
34.930,0.023
34.935,0.031
34.940,0.032
34.945,0.036
34.950,0.039
34.955,0.044
34.960,0.050
34.965,0.053
34.970,0.051
34.975,0.049
34.980,0.045
34.985,0.028
34.990,0.010
34.995,-0.009
35.000,-0.028
35.005,-0.034
35.010,-0.030
35.015,-0.029
35.020,-0.028
35.025,-0.022
35.030,-0.023
35.035,-0.022
35.040,-0.020
35.045,-0.017
35.050,-0.014
35.055,-0.018
35.060,-0.018
35.065,-0.013
35.070,-0.012
35.075,-0.009
35.080,-0.009
35.085,-0.021
35.090,-0.027
35.095,-0.017
35.100,0.044
35.105,0.181
35.110,0.333
35.115,0.381
35.120,0.260
35.125,0.045
35.130,-0.148
35.135,-0.228
35.140,-0.181
35.145,-0.100
35.150,-0.044
35.155,-0.017
35.160,-0.017
35.165,-0.010
35.170,0.000
35.175,0.000
35.180,0.005
35.185,0.009
35.190,0.006
35.195,0.007
35.200,0.016
35.205,0.022
35.210,0.016
35.215,0.013
35.220,0.018
35.225,0.019
35.230,0.021
35.235,0.018
35.240,0.016
35.245,0.024
35.250,0.029
35.255,0.024
35.260,0.023
35.265,0.027
35.270,0.027
35.275,0.025
35.280,0.027
35.285,0.037
35.290,0.042
35.295,0.042
35.300,0.046
35.305,0.052
35.310,0.055
35.315,0.054
35.320,0.048
35.325,0.049
35.330,0.056
35.335,0.066
35.340,0.072
35.345,0.071
35.350,0.070
35.355,0.068
35.360,0.068
35.365,0.070
35.370,0.070
35.375,0.070
35.380,0.065
35.385,0.058
35.390,0.057
35.395,0.049
35.400,0.029
35.405,0.012
35.410,-0.001
35.415,-0.013
35.420,-0.028
35.425,-0.048
35.430,-0.060
35.435,-0.068
35.440,-0.080
35.445,-0.088
35.450,-0.092
35.455,-0.090
35.460,-0.086
35.465,-0.086
35.470,-0.086
35.475,-0.082
35.480,-0.074
35.485,-0.076
35.490,-0.081
35.495,-0.076
35.500,-0.071
35.505,-0.065
35.510,-0.060
35.515,-0.062
35.520,-0.057
35.525,-0.050
35.530,-0.053
35.535,-0.053
35.540,-0.045
35.545,-0.041
35.550,-0.038
35.555,-0.034
35.560,-0.033
35.565,-0.031
35.570,-0.027
35.575,-0.029
35.580,-0.030
35.585,-0.032
35.590,-0.036
35.595,-0.032
35.600,-0.025
35.605,-0.022
35.610,-0.022
35.615,-0.023
35.620,-0.024
35.625,-0.026
35.630,-0.022
35.635,-0.015
35.640,-0.013
35.645,-0.008
35.650,-0.008
35.655,-0.010
35.660,-0.006
35.665,-0.007
35.670,-0.012
35.675,-0.008
35.680,-0.001
35.685,0.005
35.690,0.008
35.695,0.007
35.700,0.015
35.705,0.026
35.710,0.030
35.715,0.035
35.720,0.045
35.725,0.051
35.730,0.051
35.735,0.047
35.740,0.047
35.745,0.055
35.750,0.062
35.755,0.063
35.760,0.055
35.765,0.045
35.770,0.043
35.775,0.030
35.780,-0.003
35.785,-0.030
35.790,-0.032
35.795,-0.027
35.800,-0.029
35.805,-0.027
35.810,-0.019
35.815,-0.020
35.820,-0.025
35.825,-0.025
35.830,-0.022
35.835,-0.013
35.840,-0.011
35.845,-0.015
35.850,-0.013
35.855,-0.012
35.860,-0.010
35.865,-0.008
35.870,-0.020
35.875,-0.034
35.880,-0.027
35.885,0.017
35.890,0.126
35.895,0.281
35.900,0.382
35.905,0.338
35.910,0.150
35.915,-0.069
35.920,-0.205
35.925,-0.215
35.930,-0.138
35.935,-0.075
35.940,-0.042
35.945,-0.019
35.950,-0.012
35.955,-0.006
35.960,-0.007
35.965,-0.013
35.970,-0.011
35.975,-0.009
35.980,-0.010
35.985,0.000
35.990,0.008
35.995,0.002
36.000,0.005
36.005,0.013
36.010,0.016
36.015,0.016
36.020,0.012
36.025,0.010
36.030,0.011
36.035,0.014
36.040,0.019
36.045,0.015
36.050,0.017
36.055,0.025
36.060,0.022
36.065,0.023
36.070,0.028
36.075,0.033
36.080,0.040
36.085,0.036
36.090,0.033
36.095,0.041
36.100,0.045
36.105,0.044
36.110,0.046
36.115,0.050
36.120,0.053
36.125,0.053
36.130,0.057
36.135,0.064
36.140,0.069
36.145,0.067
36.150,0.065
36.155,0.063
36.160,0.067
36.165,0.071
36.170,0.065
36.175,0.058
36.180,0.054
36.185,0.046
36.190,0.034
36.195,0.016
36.200,-0.004
36.205,-0.018
36.210,-0.028
36.215,-0.040
36.220,-0.052
36.225,-0.063
36.230,-0.076
36.235,-0.086
36.240,-0.088
36.245,-0.085
36.250,-0.081
36.255,-0.083
36.260,-0.085
36.265,-0.080
36.270,-0.074
36.275,-0.070
36.280,-0.075
36.285,-0.080
36.290,-0.071
36.295,-0.061
36.300,-0.056
36.305,-0.054
36.310,-0.050
36.315,-0.048
36.320,-0.051
36.325,-0.049
36.330,-0.046
36.335,-0.042
36.340,-0.039
36.345,-0.041
36.350,-0.038
36.355,-0.033
36.360,-0.033
36.365,-0.038
36.370,-0.039
36.375,-0.034
36.380,-0.031
36.385,-0.031
36.390,-0.028
36.395,-0.028
36.400,-0.021
36.405,-0.015
36.410,-0.018
36.415,-0.018
36.420,-0.021
36.425,-0.021
36.430,-0.012
36.435,-0.010
36.440,-0.014
36.445,-0.016
36.450,-0.011
36.455,-0.003
36.460,-0.004
36.465,-0.009
36.470,-0.005
36.475,0.002
36.480,0.004
36.485,-0.002
36.490,-0.002
36.495,0.010
36.500,0.017
36.505,0.019
36.510,0.021
36.515,0.028
36.520,0.034
36.525,0.039
36.530,0.043
36.535,0.048
36.540,0.053
36.545,0.053
36.550,0.056
36.555,0.061
36.560,0.060
36.565,0.060
36.570,0.060
36.575,0.058
36.580,0.055
36.585,0.039
36.590,0.005
36.595,-0.025
36.600,-0.034
36.605,-0.024
36.610,-0.015
36.615,-0.024
36.620,-0.030
36.625,-0.026
36.630,-0.024
36.635,-0.023
36.640,-0.021
36.645,-0.016
36.650,-0.012
36.655,-0.016
36.660,-0.017
36.665,-0.008
36.670,-0.007
36.675,-0.011
36.680,-0.016
36.685,-0.021
36.690,-0.017
36.695,0.008
36.700,0.092
36.705,0.242
36.710,0.372
36.715,0.369
36.720,0.202
36.725,-0.027
36.730,-0.188
36.735,-0.221
36.740,-0.156
36.745,-0.085
36.750,-0.037
36.755,-0.015
36.760,-0.017
36.765,-0.012
36.770,-0.010
36.775,-0.012
36.780,-0.003
36.785,-0.003
36.790,-0.011
36.795,-0.007
36.800,0.005
36.805,0.009
36.810,0.008
36.815,0.008
36.820,0.005
36.825,0.009
36.830,0.010
36.835,0.009
36.840,0.017
36.845,0.019
36.850,0.018
36.855,0.021
36.860,0.022
36.865,0.023
36.870,0.022
36.875,0.018
36.880,0.021
36.885,0.019
36.890,0.019
36.895,0.028
36.900,0.034
36.905,0.043
36.910,0.045
36.915,0.041
36.920,0.045
36.925,0.048
36.930,0.049
36.935,0.055
36.940,0.061
36.945,0.067
36.950,0.068
36.955,0.065
36.960,0.069
36.965,0.070
36.970,0.067
36.975,0.060
36.980,0.056
36.985,0.058
36.990,0.053
36.995,0.040
37.000,0.029
37.005,0.023
37.010,0.011
37.015,-0.006
37.020,-0.024
37.025,-0.039
37.030,-0.049
37.035,-0.058
37.040,-0.071
37.045,-0.078
37.050,-0.079
37.055,-0.091
37.060,-0.099
37.065,-0.095
37.070,-0.091
37.075,-0.082
37.080,-0.075
37.085,-0.077
37.090,-0.075
37.095,-0.073
37.100,-0.066
37.105,-0.050
37.110,-0.047
37.115,-0.057
37.120,-0.061
37.125,-0.063
37.130,-0.063
37.135,-0.054
37.140,-0.050
37.145,-0.047
37.150,-0.043
37.155,-0.042
37.160,-0.036
37.165,-0.034
37.170,-0.040
37.175,-0.038
37.180,-0.035
37.185,-0.039
37.190,-0.033
37.195,-0.023
37.200,-0.027
37.205,-0.032
37.210,-0.026
37.215,-0.019
37.220,-0.019
37.225,-0.024
37.230,-0.029
37.235,-0.021
37.240,-0.009
37.245,-0.011
37.250,-0.013
37.255,-0.016
37.260,-0.021
37.265,-0.013
37.270,-0.006
37.275,-0.002
37.280,0.002
37.285,0.001
37.290,0.008
37.295,0.015
37.300,0.016
37.305,0.029
37.310,0.042
37.315,0.043
37.320,0.046
37.325,0.048
37.330,0.048
37.335,0.058
37.340,0.060
37.345,0.064
37.350,0.068
37.355,0.058
37.360,0.050
37.365,0.055
37.370,0.052
37.375,0.025
37.380,-0.012
37.385,-0.036
37.390,-0.038
37.395,-0.029
37.400,-0.021
37.405,-0.025
37.410,-0.030
37.415,-0.031
37.420,-0.034
37.425,-0.026
37.430,-0.018
37.435,-0.015
37.440,-0.015
37.445,-0.018
37.450,-0.015
37.455,-0.011
37.460,-0.007
37.465,-0.008
37.470,-0.018
37.475,-0.029
37.480,-0.034
37.485,0.000
37.490,0.122
37.495,0.303
37.500,0.417
37.505,0.356
37.510,0.135
37.515,-0.115
37.520,-0.259
37.525,-0.256
37.530,-0.162
37.535,-0.073
37.540,-0.023
37.545,-0.010
37.550,-0.014
37.555,-0.010
37.560,-0.001
37.565,0.003
37.570,0.002
37.575,0.004
37.580,0.006
37.585,0.014
37.590,0.022
37.595,0.017
37.600,0.014
37.605,0.010
37.610,0.003
37.615,0.010
37.620,0.020
37.625,0.027
37.630,0.029
37.635,0.025
37.640,0.023
37.645,0.027
37.650,0.033
37.655,0.032
37.660,0.028
37.665,0.030
37.670,0.035
37.675,0.038
37.680,0.036
37.685,0.035
37.690,0.045
37.695,0.050
37.700,0.052
37.705,0.057
37.710,0.050
37.715,0.049
37.720,0.059
37.725,0.067
37.730,0.077
37.735,0.083
37.740,0.077
37.745,0.073
37.750,0.076
37.755,0.073
37.760,0.070
37.765,0.072
37.770,0.068
37.775,0.066
37.780,0.058
37.785,0.040
37.790,0.030
37.795,0.014
37.800,-0.008
37.805,-0.018
37.810,-0.042
37.815,-0.069
37.820,-0.073
37.825,-0.077
37.830,-0.080
37.835,-0.084
37.840,-0.107
37.845,-0.115
37.850,-0.104
37.855,-0.105
37.860,-0.098
37.865,-0.089
37.870,-0.093
37.875,-0.088
37.880,-0.079
37.885,-0.079
37.890,-0.078
37.895,-0.070
37.900,-0.067
37.905,-0.061
37.910,-0.051
37.915,-0.054
37.920,-0.058
37.925,-0.059
37.930,-0.051
37.935,-0.045
37.940,-0.043
37.945,-0.037
37.950,-0.039
37.955,-0.043
37.960,-0.042
37.965,-0.047
37.970,-0.043
37.975,-0.031
37.980,-0.031
37.985,-0.030
37.990,-0.024
37.995,-0.029
38.000,-0.030
38.005,-0.027
38.010,-0.025
38.015,-0.022
38.020,-0.021
38.025,-0.023
38.030,-0.017
38.035,0.006
38.040,0.015
38.045,0.011
38.050,0.018
38.055,0.023
38.060,0.029
38.065,0.036
38.070,0.037
38.075,0.042
38.080,0.040
38.085,0.039
38.090,0.050
38.095,0.056
38.100,0.053
38.105,0.049
38.110,0.038
38.115,0.012
38.120,-0.019
38.125,-0.042
38.130,-0.040
38.135,-0.023
38.140,-0.020
38.145,-0.028
38.150,-0.029
38.155,-0.030
38.160,-0.023
38.165,-0.016
38.170,-0.022
38.175,-0.024
38.180,-0.016
38.185,-0.013
38.190,-0.010
38.195,-0.001
38.200,-0.003
38.205,-0.014
38.210,-0.023
38.215,-0.027
38.220,-0.016
38.225,0.039
38.230,0.163
38.235,0.318
38.240,0.384
38.245,0.267
38.250,0.040
38.255,-0.163
38.260,-0.255
38.265,-0.209
38.270,-0.116
38.275,-0.050
38.280,-0.011
38.285,-0.005
38.290,0.002
38.295,0.018
38.300,0.014
38.305,0.010
38.310,0.013
38.315,0.012
38.320,0.014
38.325,0.025
38.330,0.025
38.335,0.016
38.340,0.017
38.345,0.024
38.350,0.029
38.355,0.024
38.360,0.020
38.365,0.023
38.370,0.024
38.375,0.027
38.380,0.030
38.385,0.029
38.390,0.035
38.395,0.039
38.400,0.038
38.405,0.041
38.410,0.042
38.415,0.048
38.420,0.055
38.425,0.049
38.430,0.039
38.435,0.040
38.440,0.053
38.445,0.059
38.450,0.054
38.455,0.054
38.460,0.058
38.465,0.067
38.470,0.076
38.475,0.075
38.480,0.072
38.485,0.077
38.490,0.074
38.495,0.068
38.500,0.067
38.505,0.065
38.510,0.064
38.515,0.061
38.520,0.048
38.525,0.031
38.530,0.013
38.535,-0.004
38.540,-0.017
38.545,-0.036
38.550,-0.059
38.555,-0.070
38.560,-0.071
38.565,-0.079
38.570,-0.095
38.575,-0.100
38.580,-0.095
38.585,-0.093
38.590,-0.095
38.595,-0.091
38.600,-0.081
38.605,-0.075
38.610,-0.074
38.615,-0.073
38.620,-0.066
38.625,-0.062
38.630,-0.063
38.635,-0.062
38.640,-0.062
38.645,-0.064
38.650,-0.059
38.655,-0.049
38.660,-0.039
38.665,-0.034
38.670,-0.038
38.675,-0.044
38.680,-0.041
38.685,-0.031
38.690,-0.030
38.695,-0.029
38.700,-0.030
38.705,-0.035
38.710,-0.034
38.715,-0.031
38.720,-0.030
38.725,-0.027
38.730,-0.025
38.735,-0.028
38.740,-0.031
38.745,-0.030
38.750,-0.021
38.755,-0.007
38.760,0.000
38.765,0.007
38.770,0.022
38.775,0.032
38.780,0.030
38.785,0.021
38.790,0.023
38.795,0.030
38.800,0.029
38.805,0.032
38.810,0.037
38.815,0.039
38.820,0.044
38.825,0.044
38.830,0.038
38.835,0.027
38.840,0.002
38.845,-0.028
38.850,-0.043
38.855,-0.041
38.860,-0.033
38.865,-0.032
38.870,-0.036
38.875,-0.034
38.880,-0.025
38.885,-0.022
38.890,-0.024
38.895,-0.026
38.900,-0.025
38.905,-0.021
38.910,-0.017
38.915,-0.016
38.920,-0.015
38.925,-0.016
38.930,-0.022
38.935,-0.029
38.940,-0.027
38.945,0.006
38.950,0.099
38.955,0.247
38.960,0.371
38.965,0.357
38.970,0.184
38.975,-0.031
38.980,-0.187
38.985,-0.220
38.990,-0.141
38.995,-0.071
39.000,-0.037
39.005,-0.026
39.010,-0.027
39.015,-0.008
39.020,0.001
39.025,-0.008
39.030,0.000
39.035,0.007
39.040,0.004
39.045,0.008
39.050,0.012
39.055,0.009
39.060,0.007
39.065,0.009
39.070,0.014
39.075,0.018
39.080,0.015
39.085,0.011
39.090,0.008
39.095,0.011
39.100,0.016
39.105,0.021
39.110,0.024
39.115,0.030
39.120,0.034
39.125,0.029
39.130,0.026
39.135,0.030
39.140,0.033
39.145,0.037
39.150,0.040
39.155,0.043
39.160,0.051
39.165,0.053
39.170,0.052
39.175,0.056
39.180,0.058
39.185,0.060
39.190,0.070
39.195,0.076
39.200,0.074
39.205,0.074
39.210,0.073
39.215,0.072
39.220,0.072
39.225,0.066
39.230,0.062
39.235,0.057
39.240,0.047
39.245,0.036
39.250,0.025
39.255,0.007
39.260,-0.008
39.265,-0.022
39.270,-0.037
39.275,-0.048
39.280,-0.058
39.285,-0.066
39.290,-0.074
39.295,-0.076
39.300,-0.076
39.305,-0.081
39.310,-0.084
39.315,-0.083
39.320,-0.079
39.325,-0.075
39.330,-0.075
39.335,-0.075
39.340,-0.071
39.345,-0.067
39.350,-0.060
39.355,-0.055
39.360,-0.054
39.365,-0.057
39.370,-0.053
39.375,-0.045
39.380,-0.045
39.385,-0.041
39.390,-0.032
39.395,-0.031
39.400,-0.034
39.405,-0.034
39.410,-0.036
39.415,-0.029
39.420,-0.024
39.425,-0.033
39.430,-0.034
39.435,-0.025
39.440,-0.026
39.445,-0.028
39.450,-0.028
39.455,-0.031
39.460,-0.023
39.465,-0.018
39.470,-0.020
39.475,-0.014
39.480,-0.011
39.485,-0.010
39.490,0.004
39.495,0.014
39.500,0.019
39.505,0.025
39.510,0.026
39.515,0.032
39.520,0.037
39.525,0.033
39.530,0.032
39.535,0.034
39.540,0.038
39.545,0.047
39.550,0.051
39.555,0.053
39.560,0.054
39.565,0.043
39.570,0.029
39.575,0.007
39.580,-0.020
39.585,-0.034
39.590,-0.037
39.595,-0.030
39.600,-0.023
39.605,-0.025
39.610,-0.029
39.615,-0.029
39.620,-0.027
39.625,-0.020
39.630,-0.017
39.635,-0.020
39.640,-0.019
39.645,-0.017
39.650,-0.014
39.655,-0.010
39.660,-0.009
39.665,-0.017
39.670,-0.024
39.675,-0.024
39.680,-0.007
39.685,0.071
39.690,0.215
39.695,0.357
39.700,0.382
39.705,0.235
39.710,0.012
39.715,-0.161
39.720,-0.220
39.725,-0.167
39.730,-0.085
39.735,-0.037
39.740,-0.021
39.745,-0.017
39.750,-0.010
39.755,-0.007
39.760,-0.012
39.765,-0.006
39.770,0.002
39.775,-0.004
39.780,-0.003
39.785,0.004
39.790,0.005
39.795,0.005
39.800,0.011
39.805,0.013
39.810,0.006
39.815,0.005
39.820,0.014
39.825,0.020
39.830,0.020
39.835,0.017
39.840,0.021
39.845,0.027
39.850,0.023
39.855,0.020
39.860,0.025
39.865,0.025
39.870,0.026
39.875,0.032
39.880,0.036
39.885,0.038
39.890,0.041
39.895,0.043
39.900,0.046
39.905,0.049
39.910,0.050
39.915,0.055
39.920,0.056
39.925,0.055
39.930,0.061
39.935,0.073
39.940,0.078
39.945,0.072
39.950,0.065
39.955,0.069
39.960,0.075
39.965,0.067
39.970,0.058
39.975,0.054
39.980,0.041
39.985,0.025
39.990,0.014
39.995,0.004
40.000,-0.005
40.005,-0.023
40.010,-0.047
40.015,-0.061
40.020,-0.071
40.025,-0.074
40.030,-0.075
40.035,-0.086
40.040,-0.090
40.045,-0.089
40.050,-0.087
40.055,-0.085
40.060,-0.079
40.065,-0.074
40.070,-0.073
40.075,-0.069
40.080,-0.065
40.085,-0.062
40.090,-0.061
40.095,-0.060
40.100,-0.056
40.105,-0.055
40.110,-0.055
40.115,-0.050
40.120,-0.047
40.125,-0.048
40.130,-0.050
40.135,-0.047
40.140,-0.040
40.145,-0.037
40.150,-0.037
40.155,-0.036
40.160,-0.032
40.165,-0.024
40.170,-0.021
40.175,-0.023
40.180,-0.025
40.185,-0.027
40.190,-0.028
40.195,-0.025
40.200,-0.020
40.205,-0.016
40.210,-0.016
40.215,-0.019
40.220,-0.018
40.225,-0.018
40.230,-0.015
40.235,-0.010
40.240,-0.007
40.245,-0.006
40.250,-0.010
40.255,-0.006
40.260,0.007
40.265,0.015
40.270,0.019
40.275,0.024
40.280,0.028
40.285,0.031
40.290,0.035
40.295,0.040
40.300,0.050
40.305,0.053
40.310,0.048
40.315,0.050
40.320,0.054
40.325,0.054
40.330,0.058
40.335,0.057
40.340,0.052
40.345,0.033
40.350,-0.002
40.355,-0.022
40.360,-0.030
40.365,-0.034
40.370,-0.028
40.375,-0.024
40.380,-0.024
40.385,-0.026
40.390,-0.026
40.395,-0.023
40.400,-0.019
40.405,-0.019
40.410,-0.018
40.415,-0.015
40.420,-0.018
40.425,-0.019
40.430,-0.007
40.435,0.002
40.440,-0.007
40.445,-0.022
40.450,-0.029
40.455,-0.002
40.460,0.089
40.465,0.243
40.470,0.376
40.475,0.374
40.480,0.208
40.485,-0.017
40.490,-0.184
40.495,-0.225
40.500,-0.155
40.505,-0.081
40.510,-0.040
40.515,-0.027
40.520,-0.024
40.525,-0.005
40.530,0.001
40.535,-0.010
40.540,-0.012
40.545,-0.004
40.550,0.001
40.555,0.000
40.560,0.002
40.565,0.003
40.570,0.003
40.575,0.007
40.580,0.009
40.585,0.008
40.590,0.008
40.595,0.009
40.600,0.016
40.605,0.018
40.610,0.013
40.615,0.013
40.620,0.016
40.625,0.021
40.630,0.026
40.635,0.031
40.640,0.033
40.645,0.033
40.650,0.031
40.655,0.031
40.660,0.037
40.665,0.046
40.670,0.046
40.675,0.048
40.680,0.049
40.685,0.047
40.690,0.054
40.695,0.059
40.700,0.062
40.705,0.068
40.710,0.068
40.715,0.066
40.720,0.065
40.725,0.068
40.730,0.070
40.735,0.066
40.740,0.065
40.745,0.063
40.750,0.058
40.755,0.050
40.760,0.035
40.765,0.017
40.770,0.002
40.775,-0.011
40.780,-0.022
40.785,-0.032
40.790,-0.048
40.795,-0.063
40.800,-0.075
40.805,-0.085
40.810,-0.092
40.815,-0.095
40.820,-0.088
40.825,-0.086
40.830,-0.092
40.835,-0.087
40.840,-0.076
40.845,-0.075
40.850,-0.076
40.855,-0.074
40.860,-0.073
40.865,-0.067
40.870,-0.063
40.875,-0.060
40.880,-0.060
40.885,-0.060
40.890,-0.055
40.895,-0.052
40.900,-0.052
40.905,-0.050
40.910,-0.040
40.915,-0.034
40.920,-0.040
40.925,-0.038
40.930,-0.037
40.935,-0.042
40.940,-0.039
40.945,-0.035
40.950,-0.033
40.955,-0.034
40.960,-0.038
40.965,-0.032
40.970,-0.013
40.975,0.047
40.980,0.676
40.985,1.646
40.990,1.955
40.995,1.830
41.000,1.633
41.005,1.528
41.010,1.595
41.015,1.457
41.020,1.300
41.025,1.326
41.030,1.259
41.035,1.118
41.040,1.089
41.045,1.056
41.050,0.949
41.055,0.888
41.060,0.861
41.065,0.785
41.070,0.716
41.075,0.682
41.080,0.628
41.085,0.563
41.090,0.523
41.095,0.481
41.100,0.425
41.105,0.382
41.110,0.345
41.115,0.300
41.120,0.258
41.125,0.223
41.130,0.171
41.135,0.063
41.140,-0.050
41.145,-0.107
41.150,-0.146
41.155,-0.178
41.160,-0.218
41.165,-0.265
41.170,-0.291
41.175,-0.321
41.180,-0.360
41.185,-0.385
41.190,-0.408
41.195,-0.437
41.200,-0.462
41.205,-0.480
41.210,-0.502
41.215,-0.523
41.220,-0.538
41.225,-0.553
41.230,-0.512
41.235,-0.313
41.240,-0.132
41.245,-0.138
41.250,-0.197
41.255,-0.255
41.260,-0.273
41.265,-0.278
41.270,-0.338
41.275,-0.364
41.280,-0.366
41.285,-0.402
41.290,-0.433
41.295,-0.438
41.300,-0.457
41.305,-0.484
41.310,-0.493
41.315,-0.503
41.320,-0.522
41.325,-0.532
41.330,-0.595
41.335,-0.818
41.340,-1.020
41.345,-1.029
41.350,-0.985
41.355,-0.940
41.360,-0.931
41.365,-0.933
41.370,-0.881
41.375,-0.859
41.380,-0.860
41.385,-0.825
41.390,-0.793
41.395,-0.785
41.400,-0.762
41.405,-0.731
41.410,-0.715
41.415,-0.697
41.420,-0.669
41.425,-0.648
41.430,-0.574
41.435,-0.339
41.440,-0.125
41.445,-0.102
41.450,-0.131
41.455,-0.160
41.460,-0.152
41.465,-0.133
41.470,-0.167
41.475,-0.171
41.480,-0.151
41.485,-0.168
41.490,-0.179
41.495,-0.167
41.500,-0.169
41.505,-0.180
41.510,-0.174
41.515,-0.171
41.520,-0.178
41.525,-0.176
41.530,-0.229
41.535,-0.442
41.540,-0.634
41.545,-0.635
41.550,-0.583
41.555,-0.533
41.560,-0.518
41.565,-0.515
41.570,-0.459
41.575,-0.433
41.580,-0.431
41.585,-0.392
41.590,-0.360
41.595,-0.351
41.600,-0.327
41.605,-0.295
41.610,-0.280
41.615,-0.262
41.620,-0.236
41.625,-0.217
41.630,-0.145
41.635,0.089
41.640,0.300
41.645,0.319
41.650,0.286
41.655,0.254
41.660,0.257
41.665,0.272
41.670,0.233
41.675,0.224
41.680,0.238
41.685,0.217
41.690,0.200
41.695,0.206
41.700,0.197
41.705,0.181
41.710,0.180
41.715,0.177
41.720,0.164
41.725,0.158
41.730,0.099
41.735,-0.121
41.740,-0.320
41.745,-0.327
41.750,-0.282
41.755,-0.238
41.760,-0.231
41.765,-0.235
41.770,-0.186
41.775,-0.167
41.780,-0.172
41.785,-0.141
41.790,-0.115
41.795,-0.113
41.800,-0.096
41.805,-0.071
41.810,-0.063
41.815,-0.052
41.820,-0.032
41.825,-0.020
41.830,0.045
41.835,0.272
41.840,0.476
41.845,0.489
41.850,0.449
41.855,0.411
41.860,0.408
41.865,0.417
41.870,0.372
41.875,0.357
41.880,0.366
41.885,0.338
41.890,0.315
41.895,0.316
41.900,0.302
41.905,0.280
41.910,0.274
41.915,0.266
41.920,0.248
41.925,0.238
41.930,0.173
41.935,-0.052
41.940,-0.256
41.945,-0.267
41.950,-0.226
41.955,-0.187
41.960,-0.184
41.965,-0.192
41.970,-0.146
41.975,-0.131
41.980,-0.140
41.985,-0.113
41.990,-0.090
41.995,-0.092
42.000,-0.078
42.005,-0.057
42.010,-0.052
42.015,-0.044
42.020,-0.027
42.025,-0.018
42.030,0.045
42.035,0.270
42.040,0.471
42.045,0.481
42.050,0.440
42.055,0.399
42.060,0.394
42.065,0.400
42.070,0.353
42.075,0.336
42.080,0.343
42.085,0.313
42.090,0.289
42.095,0.288
42.100,0.273
42.105,0.249
42.110,0.242
42.115,0.233
42.120,0.213
42.125,0.202
42.130,0.136
42.135,-0.091
42.140,-0.295
42.145,-0.306
42.150,-0.267
42.155,-0.228
42.160,-0.226
42.165,-0.235
42.170,-0.190
42.175,-0.175
42.180,-0.185
42.185,-0.157
42.190,-0.135
42.195,-0.137
42.200,-0.124
42.205,-0.103
42.210,-0.098
42.215,-0.091
42.220,-0.074
42.225,-0.065
42.230,-0.001
42.235,0.223
42.240,0.425
42.245,0.434
42.250,0.392
42.255,0.352
42.260,0.347
42.265,0.354
42.270,0.307
42.275,0.290
42.280,0.297
42.285,0.267
42.290,0.244
42.295,0.244
42.300,0.228
42.305,0.205
42.310,0.198
42.315,0.189
42.320,0.170
42.325,0.159
42.330,0.094
42.335,-0.133
42.340,-0.336
42.345,-0.348
42.350,-0.307
42.355,-0.269
42.360,-0.266
42.365,-0.274
42.370,-0.228
42.375,-0.214
42.380,-0.222
42.385,-0.195
42.390,-0.172
42.395,-0.174
42.400,-0.160
42.405,-0.138
42.410,-0.132
42.415,-0.125
42.420,-0.107
42.425,-0.097
42.430,-0.033
42.435,0.192
42.440,0.394
42.445,0.404
42.450,0.363
42.455,0.322
42.460,0.318
42.465,0.325
42.470,0.278
42.475,0.262
42.480,0.270
42.485,0.241
42.490,0.217
42.495,0.218
42.500,0.203
42.505,0.180
42.510,0.174
42.515,0.166
42.520,0.147
42.525,0.137
42.530,0.072
42.535,-0.154
42.540,-0.357
42.545,-0.368
42.550,-0.327
42.555,-0.288
42.560,-0.285
42.565,-0.293
42.570,-0.247
42.575,-0.231
42.580,-0.239
42.585,-0.212
42.590,-0.189
42.595,-0.190
42.600,-0.175
42.605,-0.153
42.610,-0.147
42.615,-0.139
42.620,-0.121
42.625,-0.111
42.630,-0.047
42.635,0.178
42.640,0.380
42.645,0.390
42.650,0.350
42.655,0.310
42.660,0.306
42.665,0.314
42.670,0.268
42.675,0.252
42.680,0.260
42.685,0.231
42.690,0.208
42.695,0.208
42.700,0.194
42.705,0.171
42.710,0.165
42.715,0.157
42.720,0.138
42.725,0.128
42.730,0.063
42.735,-0.162
42.740,-0.365
42.745,-0.375
42.750,-0.335
42.755,-0.295
42.760,-0.292
42.765,-0.299
42.770,-0.253
42.775,-0.238
42.780,-0.246
42.785,-0.217
42.790,-0.194
42.795,-0.194
42.800,-0.180
42.805,-0.158
42.810,-0.152
42.815,-0.144
42.820,-0.126
42.825,-0.116
42.830,-0.051
42.835,0.174
42.840,0.376
42.845,0.387
42.850,0.346
42.855,0.306
42.860,0.303
42.865,0.311
42.870,0.264
42.875,0.248
42.880,0.256
42.885,0.228
42.890,0.205
42.895,0.205
42.900,0.191
42.905,0.168
42.910,0.162
42.915,0.154
42.920,0.136
42.925,0.126
42.930,0.061
42.935,-0.165
42.940,-0.367
42.945,-0.378
42.950,-0.337
42.955,-0.297
42.960,-0.294
42.965,-0.301
42.970,-0.255
42.975,-0.239
42.980,-0.247
42.985,-0.219
42.990,-0.196
42.995,-0.197
43.000,-0.183
43.005,-0.160
43.010,-0.154
43.015,-0.145
43.020,-0.127
43.025,-0.117
43.030,-0.053
43.035,0.173
43.040,0.375
43.045,0.386
43.050,0.345
43.055,0.305
43.060,0.301
43.065,0.309
43.070,0.262
43.075,0.247
43.080,0.255
43.085,0.227
43.090,0.204
43.095,0.204
43.100,0.190
43.105,0.167
43.110,0.161
43.115,0.153
43.120,0.135
43.125,0.125
43.130,0.060
43.135,-0.166
43.140,-0.369
43.145,-0.379
43.150,-0.338
43.155,-0.298
43.160,-0.295
43.165,-0.302
43.170,-0.256
43.175,-0.240
43.180,-0.248
43.185,-0.220
43.190,-0.197
43.195,-0.198
43.200,-0.183
43.205,-0.161
43.210,-0.155
43.215,-0.147
43.220,-0.129
43.225,-0.119
43.230,-0.054
43.235,0.172
43.240,0.374
43.245,0.384
43.250,0.343
43.255,0.304
43.260,0.301
43.265,0.308
43.270,0.261
43.275,0.246
43.280,0.254
43.285,0.226
43.290,0.202
43.295,0.203
43.300,0.188
43.305,0.166
43.310,0.160
43.315,0.152
43.320,0.134
43.325,0.123
43.330,0.059
43.335,-0.167
43.340,-0.370
43.345,-0.380
43.350,-0.339
43.355,-0.299
43.360,-0.296
43.365,-0.303
43.370,-0.257
43.375,-0.241
43.380,-0.249
43.385,-0.222
43.390,-0.198
43.395,-0.199
43.400,-0.185
43.405,-0.162
43.410,-0.156
43.415,-0.148
43.420,-0.130
43.425,-0.119
43.430,-0.055
43.435,0.171
43.440,0.373
43.445,0.384
43.450,0.343
43.455,0.303
43.460,0.299
43.465,0.307
43.470,0.261
43.475,0.245
43.480,0.253
43.485,0.225
43.490,0.202
43.495,0.203
43.500,0.188
43.505,0.165
43.510,0.159
43.515,0.151
43.520,0.133
43.525,0.122
43.530,0.058
43.535,-0.168
43.540,-0.370
43.545,-0.380
43.550,-0.340
43.555,-0.300
43.560,-0.296
43.565,-0.304
43.570,-0.258
43.575,-0.242
43.580,-0.250
43.585,-0.222
43.590,-0.199
43.595,-0.200
43.600,-0.185
43.605,-0.163
43.610,-0.157
43.615,-0.148
43.620,-0.130
43.625,-0.120
43.630,-0.056
43.635,0.170
43.640,0.373
43.645,0.383
43.650,0.342
43.655,0.302
43.660,0.298
43.665,0.306
43.670,0.260
43.675,0.244
43.680,0.252
43.685,0.224
43.690,0.201
43.695,0.202
43.700,0.187
43.705,0.164
43.710,0.158
43.715,0.150
43.720,0.133
43.725,0.122
43.730,0.058
43.735,-0.168
43.740,-0.371
43.745,-0.381
43.750,-0.340
43.755,-0.300
43.760,-0.297
43.765,-0.304
43.770,-0.258
43.775,-0.243
43.780,-0.251
43.785,-0.222
43.790,-0.199
43.795,-0.200
43.800,-0.186
43.805,-0.163
43.810,-0.157
43.815,-0.148
43.820,-0.131
43.825,-0.120
43.830,-0.056
43.835,0.170
43.840,0.372
43.845,0.383
43.850,0.342
43.855,0.302
43.860,0.299
43.865,0.306
43.870,0.260
43.875,0.244
43.880,0.252
43.885,0.223
43.890,0.200
43.895,0.202
43.900,0.187
43.905,0.165
43.910,0.158
43.915,0.150
43.920,0.132
43.925,0.122
43.930,0.057
43.935,-0.169
43.940,-0.371
43.945,-0.381
43.950,-0.340
43.955,-0.301
43.960,-0.297
43.965,-0.305
43.970,-0.259
43.975,-0.243
43.980,-0.251
43.985,-0.223
43.990,-0.200
43.995,-0.200
44.000,-0.185
44.005,-0.163
44.010,-0.157
44.015,-0.149
44.020,-0.131
44.025,-0.120
44.030,-0.056
44.035,0.170
44.040,0.372
44.045,0.383
44.050,0.342
44.055,0.302
44.060,0.298
44.065,0.306
44.070,0.259
44.075,0.244
44.080,0.251
44.085,0.223
44.090,0.200
44.095,0.201
44.100,0.187
44.105,0.165
44.110,0.159
44.115,0.150
44.120,0.132
44.125,0.122
44.130,0.057
44.135,-0.169
44.140,-0.372
44.145,-0.382
44.150,-0.341
44.155,-0.301
44.160,-0.297
44.165,-0.305
44.170,-0.259
44.175,-0.243
44.180,-0.251
44.185,-0.223
44.190,-0.200
44.195,-0.201
44.200,-0.186
44.205,-0.163
44.210,-0.157
44.215,-0.149
44.220,-0.131
44.225,-0.120
44.230,-0.056
44.235,0.169
44.240,0.372
44.245,0.382
44.250,0.341
44.255,0.302
44.260,0.298
44.265,0.306
44.270,0.259
44.275,0.244
44.280,0.252
44.285,0.224
44.290,0.200
44.295,0.201
44.300,0.186
44.305,0.164
44.310,0.158
44.315,0.149
44.320,0.131
44.325,0.122
44.330,0.057
44.335,-0.169
44.340,-0.371
44.345,-0.381
44.350,-0.340
44.355,-0.301
44.360,-0.297
44.365,-0.305
44.370,-0.259
44.375,-0.243
44.380,-0.251
44.385,-0.223
44.390,-0.200
44.395,-0.201
44.400,-0.186
44.405,-0.163
44.410,-0.157
44.415,-0.149
44.420,-0.131
44.425,-0.121
44.430,-0.056
44.435,0.169
44.440,0.372
44.445,0.382
44.450,0.342
44.455,0.302
44.460,0.298
44.465,0.305
44.470,0.259
44.475,0.243
44.480,0.251
44.485,0.223
44.490,0.200
44.495,0.201
44.500,0.186
44.505,0.164
44.510,0.158
44.515,0.150
44.520,0.132
44.525,0.122
44.530,0.057
44.535,-0.169
44.540,-0.372
44.545,-0.382
44.550,-0.341
44.555,-0.301
44.560,-0.298
44.565,-0.305
44.570,-0.259
44.575,-0.243
44.580,-0.251
44.585,-0.223
44.590,-0.200
44.595,-0.201
44.600,-0.186
44.605,-0.163
44.610,-0.157
44.615,-0.149
44.620,-0.131
44.625,-0.121
44.630,-0.056
44.635,0.169
44.640,0.372
44.645,0.382
44.650,0.341
44.655,0.302
44.660,0.298
44.665,0.305
44.670,0.259
44.675,0.243
44.680,0.251
44.685,0.223
44.690,0.200
44.695,0.201
44.700,0.186
44.705,0.164
44.710,0.158
44.715,0.149
44.720,0.131
44.725,0.121
44.730,0.057
44.735,-0.169
44.740,-0.372
44.745,-0.382
44.750,-0.341
44.755,-0.301
44.760,-0.298
44.765,-0.305
44.770,-0.259
44.775,-0.243
44.780,-0.251
44.785,-0.223
44.790,-0.200
44.795,-0.201
44.800,-0.186
44.805,-0.163
44.810,-0.157
44.815,-0.149
44.820,-0.131
44.825,-0.121
44.830,-0.057
44.835,0.169
44.840,0.372
44.845,0.382
44.850,0.341
44.855,0.301
44.860,0.298
44.865,0.305
44.870,0.259
44.875,0.243
44.880,0.251
44.885,0.223
44.890,0.200
44.895,0.201
44.900,0.186
44.905,0.164
44.910,0.158
44.915,0.150
44.920,0.132
44.925,0.121
44.930,0.057
44.935,-0.169
44.940,-0.372
44.945,-0.382
44.950,-0.341
44.955,-0.301
44.960,-0.297
44.965,-0.305
44.970,-0.259
44.975,-0.243
44.980,-0.251
44.985,-0.223
44.990,-0.200
44.995,-0.201
45.000,-0.186
45.005,-0.163
