'Elapsed time','ECG'
'seconds','mV'
0.000,0.032
0.005,0.045
0.010,0.040
0.015,0.027
0.020,0.026
0.025,0.029
0.030,0.023
0.035,0.013
0.040,0.003
0.045,-0.007
0.050,-0.018
0.055,-0.017
0.060,-0.006
0.065,-0.007
0.070,-0.015
0.075,-0.017
0.080,-0.022
0.085,-0.032
0.090,-0.035
0.095,-0.033
0.100,-0.031
0.105,-0.030
0.110,-0.031
0.115,-0.034
0.120,-0.039
0.125,-0.042
0.130,-0.044
0.135,-0.042
0.140,-0.040
0.145,-0.033
0.150,-0.025
0.155,-0.028
0.160,-0.041
0.165,-0.049
0.170,-0.045
0.175,-0.037
0.180,-0.031
0.185,-0.029
0.190,-0.032
0.195,-0.035
0.200,-0.040
0.205,-0.043
0.210,-0.044
0.215,-0.041
0.220,-0.039
0.225,-0.041
0.230,-0.045
0.235,-0.048
0.240,-0.047
0.245,-0.049
0.250,-0.055
0.255,-0.054
0.260,-0.043
0.265,-0.037
0.270,-0.044
0.275,-0.051
0.280,-0.049
0.285,-0.042
0.290,-0.039
0.295,-0.037
0.300,-0.032
0.305,-0.041
0.310,-0.057
0.315,-0.059
0.320,-0.047
0.325,-0.038
0.330,-0.043
0.335,-0.048
0.340,-0.046
0.345,-0.045
0.350,-0.046
0.355,-0.051
0.360,-0.049
0.365,-0.042
0.370,-0.040
0.375,-0.037
0.380,-0.032
0.385,-0.033
0.390,-0.036
0.395,-0.045
0.400,-0.049
0.405,-0.040
0.410,-0.036
0.415,-0.037
0.420,-0.030
0.425,-0.025
0.430,-0.029
0.435,-0.043
0.440,-0.071
0.445,-0.093
0.450,-0.101
0.455,-0.105
0.460,-0.104
0.465,-0.103
0.470,-0.109
0.475,-0.114
0.480,-0.118
0.485,-0.109
0.490,-0.082
0.495,-0.057
0.500,-0.047
0.505,-0.050
0.510,-0.053
0.515,-0.044
0.520,-0.029
0.525,-0.017
0.530,-0.001
0.535,0.017
0.540,0.032
0.545,0.043
0.550,0.049
0.555,0.053
0.560,0.054
0.565,0.055
0.570,0.057
0.575,0.057
0.580,0.053
0.585,0.047
0.590,0.044
0.595,0.045
0.600,0.041
0.605,0.037
0.610,0.036
0.615,0.033
0.620,0.032
0.625,0.040
0.630,0.061
0.635,0.073
0.640,0.054
0.645,-0.004
0.650,-0.117
0.655,-0.304
0.660,-0.564
0.665,-0.876
0.670,-1.099
0.675,-1.013
0.680,-0.562
0.685,0.040
0.690,0.413
0.695,0.476
0.700,0.413
0.705,0.323
0.710,0.251
0.715,0.171
0.720,0.113
0.725,0.122
0.730,0.131
0.735,0.125
0.740,0.125
0.745,0.120
0.750,0.110
0.755,0.106
0.760,0.103
0.765,0.094
0.770,0.087
0.775,0.081
0.780,0.073
0.785,0.070
0.790,0.071
0.795,0.068
0.800,0.061
0.805,0.054
0.810,0.049
0.815,0.042
0.820,0.035
0.825,0.032
0.830,0.025
0.835,0.018
0.840,0.013
0.845,0.008
0.850,0.003
0.855,0.002
0.860,0.002
0.865,-0.004
0.870,-0.014
0.875,-0.024
0.880,-0.033
0.885,-0.041
0.890,-0.049
0.895,-0.058
0.900,-0.068
0.905,-0.081
0.910,-0.095
0.915,-0.104
0.920,-0.113
0.925,-0.125
0.930,-0.138
0.935,-0.150
0.940,-0.157
0.945,-0.162
0.950,-0.169
0.955,-0.172
0.960,-0.168
0.965,-0.165
0.970,-0.157
0.975,-0.137
0.980,-0.108
0.985,-0.071
0.990,-0.034
0.995,0.005
1.000,0.047
1.005,0.088
1.010,0.129
1.015,0.167
1.020,0.192
1.025,0.212
1.030,0.233
1.035,0.255
1.040,0.268
1.045,0.274
1.050,0.277
1.055,0.280
1.060,0.278
1.065,0.272
1.070,0.264
1.075,0.250
1.080,0.233
1.085,0.219
1.090,0.207
1.095,0.195
1.100,0.186
1.105,0.180
1.110,0.172
1.115,0.159
1.120,0.143
1.125,0.132
1.130,0.126
1.135,0.118
1.140,0.108
1.145,0.099
1.150,0.090
1.155,0.081
1.160,0.071
1.165,0.063
1.170,0.055
1.175,0.051
1.180,0.045
1.185,0.038
1.190,0.030
1.195,0.022
1.200,0.022
1.205,0.028
1.210,0.029
1.215,0.026
1.220,0.021
1.225,0.018
1.230,0.015
1.235,0.010
1.240,0.008
1.245,0.009
1.250,0.006
1.255,0.001
1.260,-0.004
1.265,-0.007
1.270,-0.011
1.275,-0.015
1.280,-0.017
1.285,-0.018
1.290,-0.019
1.295,-0.021
1.300,-0.023
1.305,-0.026
1.310,-0.030
1.315,-0.034
1.320,-0.034
1.325,-0.035
1.330,-0.039
1.335,-0.042
1.340,-0.045
1.345,-0.046
1.350,-0.045
1.355,-0.045
1.360,-0.047
1.365,-0.049
1.370,-0.051
1.375,-0.051
1.380,-0.052
1.385,-0.052
1.390,-0.054
1.395,-0.055
1.400,-0.058
1.405,-0.060
1.410,-0.062
1.415,-0.062
1.420,-0.061
1.425,-0.059
1.430,-0.058
1.435,-0.058
1.440,-0.058
1.445,-0.058
1.450,-0.059
1.455,-0.058
1.460,-0.058
1.465,-0.060
1.470,-0.062
1.475,-0.062
1.480,-0.059
1.485,-0.059
1.490,-0.062
1.495,-0.059
1.500,-0.052
1.505,-0.049
1.510,-0.049
1.515,-0.049
1.520,-0.057
1.525,-0.073
1.530,-0.095
1.535,-0.113
1.540,-0.120
1.545,-0.122
1.550,-0.123
1.555,-0.123
1.560,-0.125
1.565,-0.127
1.570,-0.118
1.575,-0.096
1.580,-0.073
1.585,-0.061
1.590,-0.061
1.595,-0.065
1.600,-0.056
1.605,-0.038
1.610,-0.027
1.615,-0.022
1.620,-0.010
1.625,0.014
1.630,0.032
1.635,0.043
1.640,0.048
1.645,0.049
1.650,0.050
1.655,0.048
1.660,0.047
1.665,0.048
1.670,0.045
1.675,0.040
1.680,0.040
1.685,0.040
1.690,0.037
1.695,0.032
1.700,0.028
1.705,0.023
1.710,0.028
1.715,0.047
1.720,0.060
1.725,0.045
1.730,-0.005
1.735,-0.104
1.740,-0.274
1.745,-0.516
1.750,-0.816
1.755,-1.069
1.760,-1.072
1.765,-0.725
1.770,-0.145
1.775,0.340
1.780,0.501
1.785,0.461
1.790,0.364
1.795,0.283
1.800,0.220
1.805,0.149
1.810,0.124
1.815,0.132
1.820,0.130
1.825,0.128
1.830,0.124
1.835,0.111
1.840,0.103
1.845,0.101
1.850,0.095
1.855,0.089
1.860,0.087
1.865,0.080
1.870,0.071
1.875,0.067
1.880,0.062
1.885,0.058
1.890,0.054
1.895,0.048
1.900,0.045
1.905,0.041
1.910,0.036
1.915,0.030
1.920,0.021
1.925,0.016
1.930,0.013
1.935,0.009
1.940,0.003
1.945,-0.003
1.950,-0.008
1.955,-0.015
1.960,-0.024
1.965,-0.032
1.970,-0.039
1.975,-0.048
1.980,-0.060
1.985,-0.074
1.990,-0.087
1.995,-0.097
2.000,-0.107
2.005,-0.121
2.010,-0.136
2.015,-0.149
2.020,-0.158
2.025,-0.165
2.030,-0.172
2.035,-0.179
2.040,-0.183
2.045,-0.183
2.050,-0.180
2.055,-0.174
2.060,-0.158
2.065,-0.134
2.070,-0.100
2.075,-0.058
2.080,-0.011
2.085,0.035
2.090,0.078
2.095,0.120
2.100,0.161
2.105,0.197
2.110,0.226
2.115,0.247
2.120,0.263
2.125,0.275
2.130,0.280
2.135,0.282
2.140,0.279
2.145,0.272
2.150,0.263
2.155,0.255
2.160,0.245
2.165,0.235
2.170,0.225
2.175,0.213
2.180,0.201
2.185,0.191
2.190,0.180
2.195,0.170
2.200,0.159
2.205,0.148
2.210,0.138
2.215,0.129
2.220,0.120
2.225,0.111
2.230,0.102
2.235,0.093
2.240,0.084
2.245,0.075
2.250,0.067
2.255,0.060
2.260,0.055
2.265,0.049
2.270,0.043
2.275,0.038
2.280,0.032
2.285,0.026
2.290,0.021
2.295,0.018
2.300,0.014
2.305,0.011
2.310,0.009
2.315,0.008
2.320,0.006
2.325,0.004
2.330,0.003
2.335,0.001
2.340,-0.005
2.345,-0.008
2.350,-0.011
2.355,-0.015
2.360,-0.017
2.365,-0.022
2.370,-0.025
2.375,-0.025
2.380,-0.030
2.385,-0.036
2.390,-0.037
2.395,-0.036
2.400,-0.037
2.405,-0.039
2.410,-0.044
2.415,-0.046
2.420,-0.044
2.425,-0.045
2.430,-0.048
2.435,-0.050
2.440,-0.049
2.445,-0.050
2.450,-0.050
2.455,-0.051
2.460,-0.053
2.465,-0.052
2.470,-0.052
2.475,-0.054
2.480,-0.053
2.485,-0.054
2.490,-0.056
2.495,-0.059
2.500,-0.059
2.505,-0.056
2.510,-0.054
2.515,-0.053
2.520,-0.055
2.525,-0.057
2.530,-0.056
2.535,-0.053
2.540,-0.052
2.545,-0.050
2.550,-0.049
2.555,-0.049
2.560,-0.049
2.565,-0.052
2.570,-0.052
2.575,-0.051
2.580,-0.051
2.585,-0.051
2.590,-0.050
2.595,-0.049
2.600,-0.048
2.605,-0.048
2.610,-0.051
2.615,-0.063
2.620,-0.085
2.625,-0.106
2.630,-0.115
2.635,-0.115
2.640,-0.114
2.645,-0.117
2.650,-0.124
2.655,-0.127
2.660,-0.122
2.665,-0.106
2.670,-0.079
2.675,-0.057
2.680,-0.056
2.685,-0.062
2.690,-0.063
2.695,-0.047
2.700,-0.028
2.705,-0.020
2.710,-0.008
2.715,0.009
2.720,0.026
2.725,0.037
2.730,0.045
2.735,0.051
2.740,0.051
2.745,0.050
2.750,0.049
2.755,0.051
2.760,0.051
2.765,0.047
2.770,0.044
2.775,0.042
2.780,0.038
2.785,0.035
2.790,0.034
2.795,0.031
2.800,0.030
2.805,0.038
2.810,0.055
2.815,0.056
2.820,0.029
2.825,-0.031
2.830,-0.145
2.835,-0.331
2.840,-0.587
2.845,-0.883
2.850,-1.075
2.855,-0.966
2.860,-0.528
2.865,0.050
2.870,0.432
2.875,0.513
2.880,0.447
2.885,0.344
2.890,0.264
2.895,0.190
2.900,0.128
2.905,0.124
2.910,0.131
2.915,0.125
2.920,0.122
2.925,0.114
2.930,0.105
2.935,0.103
2.940,0.095
2.945,0.088
2.950,0.085
2.955,0.082
2.960,0.077
2.965,0.073
2.970,0.068
2.975,0.064
2.980,0.058
2.985,0.052
2.990,0.048
2.995,0.043
3.000,0.038
3.005,0.033
3.010,0.027
3.015,0.022
3.020,0.017
3.025,0.010
3.030,0.003
3.035,-0.002
3.040,-0.007
3.045,-0.013
3.050,-0.020
3.055,-0.028
3.060,-0.037
3.065,-0.046
3.070,-0.056
3.075,-0.067
3.080,-0.079
3.085,-0.090
3.090,-0.103
3.095,-0.117
3.100,-0.130
3.105,-0.142
3.110,-0.152
3.115,-0.162
3.120,-0.171
3.125,-0.176
3.130,-0.180
3.135,-0.185
3.140,-0.186
3.145,-0.181
3.150,-0.169
3.155,-0.151
3.160,-0.124
3.165,-0.090
3.170,-0.049
3.175,-0.003
3.180,0.043
3.185,0.087
3.190,0.129
3.195,0.167
3.200,0.200
3.205,0.227
3.210,0.248
3.215,0.263
3.220,0.272
3.225,0.276
3.230,0.274
3.235,0.270
3.240,0.264
3.245,0.256
3.250,0.247
3.255,0.237
3.260,0.229
3.265,0.219
3.270,0.207
3.275,0.195
3.280,0.183
3.285,0.176
3.290,0.168
3.295,0.157
3.300,0.147
3.305,0.138
3.310,0.129
3.315,0.119
3.320,0.108
3.325,0.099
3.330,0.092
3.335,0.083
3.340,0.075
3.345,0.069
3.350,0.062
3.355,0.053
3.360,0.046
3.365,0.042
3.370,0.035
3.375,0.028
3.380,0.024
3.385,0.022
3.390,0.020
3.395,0.017
3.400,0.013
3.405,0.007
3.410,0.003
3.415,0.000
3.420,-0.003
3.425,-0.004
3.430,-0.006
3.435,-0.012
3.440,-0.016
3.445,-0.017
3.450,-0.018
3.455,-0.019
3.460,-0.022
3.465,-0.023
3.470,-0.019
3.475,-0.019
3.480,-0.027
3.485,-0.034
3.490,-0.040
3.495,-0.041
3.500,-0.038
3.505,-0.039
3.510,-0.040
3.515,-0.040
3.520,-0.041
3.525,-0.037
3.530,-0.030
3.535,-0.034
3.540,-0.042
3.545,-0.046
3.550,-0.051
3.555,-0.051
3.560,-0.048
3.565,-0.049
3.570,-0.053
3.575,-0.059
3.580,-0.059
3.585,-0.053
3.590,-0.053
3.595,-0.051
3.600,-0.047
3.605,-0.045
3.610,-0.047
3.615,-0.051
3.620,-0.051
3.625,-0.050
3.630,-0.055
3.635,-0.059
3.640,-0.057
3.645,-0.056
3.650,-0.056
3.655,-0.057
3.660,-0.057
3.665,-0.053
3.670,-0.047
3.675,-0.043
3.680,-0.045
3.685,-0.051
3.690,-0.052
3.695,-0.046
3.700,-0.045
3.705,-0.055
3.710,-0.072
3.715,-0.097
3.720,-0.115
3.725,-0.118
3.730,-0.113
3.735,-0.111
3.740,-0.119
3.745,-0.129
3.750,-0.132
3.755,-0.121
3.760,-0.096
3.765,-0.072
3.770,-0.062
3.775,-0.066
3.780,-0.066
3.785,-0.050
3.790,-0.033
3.795,-0.023
3.800,-0.006
3.805,0.011
3.810,0.022
3.815,0.035
3.820,0.052
3.825,0.068
3.830,0.069
3.835,0.055
3.840,0.048
3.845,0.048
3.850,0.040
3.855,0.034
3.860,0.039
3.865,0.047
3.870,0.051
3.875,0.050
3.880,0.047
3.885,0.044
3.890,0.039
3.895,0.038
3.900,0.053
3.905,0.065
3.910,0.052
3.915,0.006
3.920,-0.099
3.925,-0.277
3.930,-0.522
3.935,-0.828
3.940,-1.076
3.945,-1.038
3.950,-0.631
3.955,-0.020
3.960,0.414
3.965,0.510
3.970,0.452
3.975,0.349
3.980,0.264
3.985,0.194
3.990,0.128
3.995,0.123
4.000,0.128
4.005,0.117
4.010,0.120
4.015,0.117
4.020,0.105
4.025,0.097
4.030,0.091
4.035,0.083
4.040,0.077
4.045,0.074
4.050,0.067
4.055,0.059
4.060,0.059
4.065,0.057
4.070,0.049
4.075,0.039
4.080,0.036
4.085,0.037
4.090,0.035
4.095,0.025
4.100,0.009
4.105,0.003
4.110,0.003
4.115,0.001
4.120,-0.001
4.125,-0.006
4.130,-0.012
4.135,-0.019
4.140,-0.029
4.145,-0.035
4.150,-0.040
4.155,-0.052
4.160,-0.067
4.165,-0.079
4.170,-0.088
4.175,-0.093
4.180,-0.102
4.185,-0.117
4.190,-0.135
4.195,-0.151
4.200,-0.161
4.205,-0.164
4.210,-0.170
4.215,-0.179
4.220,-0.187
4.225,-0.191
4.230,-0.191
4.235,-0.190
4.240,-0.183
4.245,-0.164
4.250,-0.137
4.255,-0.101
4.260,-0.058
4.265,-0.010
4.270,0.039
4.275,0.084
4.280,0.127
4.285,0.164
4.290,0.198
4.295,0.228
4.300,0.250
4.305,0.265
4.310,0.274
4.315,0.278
4.320,0.277
4.325,0.274
4.330,0.268
4.335,0.262
4.340,0.254
4.345,0.245
4.350,0.235
4.355,0.221
4.360,0.209
4.365,0.199
4.370,0.188
4.375,0.175
4.380,0.162
4.385,0.151
4.390,0.142
4.395,0.133
4.400,0.122
4.405,0.112
4.410,0.103
4.415,0.099
4.420,0.096
4.425,0.091
4.430,0.083
4.435,0.070
4.440,0.060
4.445,0.052
4.450,0.044
4.455,0.038
4.460,0.033
4.465,0.025
4.470,0.022
4.475,0.025
4.480,0.023
4.485,0.020
4.490,0.015
4.495,0.008
4.500,0.005
4.505,0.002
4.510,0.000
4.515,0.000
4.520,-0.003
4.525,-0.007
4.530,-0.008
4.535,-0.009
4.540,-0.012
4.545,-0.015
4.550,-0.017
4.555,-0.020
4.560,-0.023
4.565,-0.026
4.570,-0.026
4.575,-0.027
4.580,-0.028
4.585,-0.027
4.590,-0.029
4.595,-0.033
4.600,-0.038
4.605,-0.040
4.610,-0.040
4.615,-0.042
4.620,-0.044
4.625,-0.046
4.630,-0.046
4.635,-0.046
4.640,-0.048
4.645,-0.050
4.650,-0.051
4.655,-0.052
4.660,-0.051
4.665,-0.051
4.670,-0.053
4.675,-0.055
4.680,-0.057
4.685,-0.058
4.690,-0.058
4.695,-0.057
4.700,-0.057
4.705,-0.055
4.710,-0.054
4.715,-0.054
4.720,-0.056
4.725,-0.057
4.730,-0.052
4.735,-0.050
4.740,-0.049
4.745,-0.048
4.750,-0.049
4.755,-0.050
4.760,-0.049
4.765,-0.055
4.770,-0.075
4.775,-0.101
4.780,-0.117
4.785,-0.120
4.790,-0.118
4.795,-0.122
4.800,-0.129
4.805,-0.133
4.810,-0.133
4.815,-0.120
4.820,-0.094
4.825,-0.071
4.830,-0.066
4.835,-0.072
4.840,-0.076
4.845,-0.064
4.850,-0.043
4.855,-0.024
4.860,-0.004
4.865,0.014
4.870,0.026
4.875,0.034
4.880,0.038
4.885,0.043
4.890,0.046
4.895,0.047
4.900,0.048
4.905,0.048
4.910,0.048
4.915,0.045
4.920,0.039
4.925,0.037
4.930,0.033
4.935,0.027
4.940,0.027
4.945,0.025
4.950,0.022
4.955,0.026
4.960,0.043
4.965,0.057
4.970,0.044
4.975,-0.005
4.980,-0.101
4.985,-0.265
4.990,-0.503
4.995,-0.799
5.000,-1.058
5.005,-1.074
5.010,-0.745
5.015,-0.168
5.020,0.330
5.025,0.504
5.030,0.470
5.035,0.368
5.040,0.280
5.045,0.219
5.050,0.147
5.055,0.118
5.060,0.125
5.065,0.121
5.070,0.121
5.075,0.119
5.080,0.107
5.085,0.099
5.090,0.095
5.095,0.086
5.100,0.080
5.105,0.079
5.110,0.074
5.115,0.068
5.120,0.065
5.125,0.063
5.130,0.058
5.135,0.052
5.140,0.046
5.145,0.041
5.150,0.036
5.155,0.030
5.160,0.022
5.165,0.016
5.170,0.013
5.175,0.008
5.180,0.002
5.185,-0.003
5.190,-0.008
5.195,-0.012
5.200,-0.018
5.205,-0.025
5.210,-0.033
5.215,-0.044
5.220,-0.056
5.225,-0.066
5.230,-0.075
5.235,-0.086
5.240,-0.098
5.245,-0.112
5.250,-0.127
5.255,-0.142
5.260,-0.152
5.265,-0.158
5.270,-0.168
5.275,-0.180
5.280,-0.187
5.285,-0.189
5.290,-0.186
5.295,-0.183
5.300,-0.178
5.305,-0.164
5.310,-0.138
5.315,-0.102
5.320,-0.057
5.325,-0.009
5.330,0.038
5.335,0.084
5.340,0.128
5.345,0.169
5.350,0.204
5.355,0.232
5.360,0.254
5.365,0.270
5.370,0.283
5.375,0.290
5.380,0.290
5.385,0.284
5.390,0.275
5.395,0.265
5.400,0.255
5.405,0.245
5.410,0.234
5.415,0.222
5.420,0.212
5.425,0.203
5.430,0.192
5.435,0.180
5.440,0.169
5.445,0.158
5.450,0.146
5.455,0.135
5.460,0.124
5.465,0.114
5.470,0.105
5.475,0.096
5.480,0.091
5.485,0.084
5.490,0.077
5.495,0.072
5.500,0.063
5.505,0.058
5.510,0.053
5.515,0.048
5.520,0.046
5.525,0.042
5.530,0.038
5.535,0.035
5.540,0.029
5.545,0.024
5.550,0.020
5.555,0.015
5.560,0.010
5.565,0.006
5.570,0.004
5.575,0.003
5.580,0.000
5.585,-0.003
5.590,-0.006
5.595,-0.010
5.600,-0.014
5.605,-0.017
5.610,-0.019
5.615,-0.021
5.620,-0.023
5.625,-0.025
5.630,-0.027
5.635,-0.031
5.640,-0.035
5.645,-0.036
5.650,-0.036
5.655,-0.037
5.660,-0.040
5.665,-0.043
5.670,-0.045
5.675,-0.046
5.680,-0.047
5.685,-0.047
5.690,-0.050
5.695,-0.051
5.700,-0.050
5.705,-0.049
5.710,-0.051
5.715,-0.055
5.720,-0.057
5.725,-0.055
5.730,-0.054
5.735,-0.053
5.740,-0.052
5.745,-0.051
5.750,-0.051
5.755,-0.052
5.760,-0.052
5.765,-0.054
5.770,-0.056
5.775,-0.054
5.780,-0.052
5.785,-0.054
5.790,-0.056
5.795,-0.057
5.800,-0.056
5.805,-0.056
5.810,-0.058
5.815,-0.057
5.820,-0.054
5.825,-0.053
5.830,-0.053
5.835,-0.055
5.840,-0.055
5.845,-0.055
5.850,-0.064
5.855,-0.080
5.860,-0.102
5.865,-0.118
5.870,-0.121
5.875,-0.119
5.880,-0.118
5.885,-0.122
5.890,-0.128
5.895,-0.130
5.900,-0.120
5.905,-0.097
5.910,-0.072
5.915,-0.061
5.920,-0.066
5.925,-0.069
5.930,-0.058
5.935,-0.039
5.940,-0.026
5.945,-0.017
5.950,-0.002
5.955,0.016
5.960,0.030
5.965,0.035
5.970,0.039
5.975,0.046
5.980,0.050
5.985,0.050
5.990,0.049
5.995,0.046
6.000,0.044
6.005,0.044
6.010,0.043
6.015,0.041
6.020,0.036
6.025,0.033
6.030,0.031
6.035,0.029
6.040,0.034
6.045,0.053
6.050,0.066
6.055,0.049
6.060,-0.002
6.065,-0.103
6.070,-0.270
6.075,-0.508
6.080,-0.806
6.085,-1.057
6.090,-1.052
6.095,-0.699
6.100,-0.122
6.105,0.350
6.110,0.507
6.115,0.473
6.120,0.374
6.125,0.284
6.130,0.214
6.135,0.143
6.140,0.123
6.145,0.132
6.150,0.127
6.155,0.126
6.160,0.121
6.165,0.110
6.170,0.104
6.175,0.098
6.180,0.091
6.185,0.085
6.190,0.080
6.195,0.073
6.200,0.065
6.205,0.062
6.210,0.060
6.215,0.054
6.220,0.050
6.225,0.046
6.230,0.042
6.235,0.039
6.240,0.035
6.245,0.028
6.250,0.020
6.255,0.014
6.260,0.010
6.265,0.006
6.270,0.000
6.275,-0.008
6.280,-0.013
6.285,-0.019
6.290,-0.026
6.295,-0.032
6.300,-0.039
6.305,-0.049
6.310,-0.059
6.315,-0.072
6.320,-0.086
6.325,-0.099
6.330,-0.114
6.335,-0.127
6.340,-0.137
6.345,-0.149
6.350,-0.160
6.355,-0.167
6.360,-0.174
6.365,-0.179
6.370,-0.183
6.375,-0.185
6.380,-0.183
6.385,-0.175
6.390,-0.159
6.395,-0.133
6.400,-0.098
6.405,-0.055
6.410,-0.010
6.415,0.033
6.420,0.078
6.425,0.123
6.430,0.164
6.435,0.198
6.440,0.225
6.445,0.248
6.450,0.265
6.455,0.274
6.460,0.279
6.465,0.278
6.470,0.274
6.475,0.270
6.480,0.262
6.485,0.252
6.490,0.243
6.495,0.232
6.500,0.222
6.505,0.212
6.510,0.201
6.515,0.192
6.520,0.182
6.525,0.170
6.530,0.160
6.535,0.149
6.540,0.139
6.545,0.130
6.550,0.120
6.555,0.109
6.560,0.102
6.565,0.096
6.570,0.087
6.575,0.078
6.580,0.070
6.585,0.064
6.590,0.057
6.595,0.049
6.600,0.043
6.605,0.037
6.610,0.033
6.615,0.029
6.620,0.024
6.625,0.022
6.630,0.018
6.635,0.013
6.640,0.009
6.645,0.007
6.650,0.005
6.655,0.003
6.660,-0.001
6.665,-0.004
6.670,-0.006
6.675,-0.008
6.680,-0.011
6.685,-0.013
6.690,-0.016
6.695,-0.019
6.700,-0.023
6.705,-0.025
6.710,-0.026
6.715,-0.028
6.720,-0.031
6.725,-0.032
6.730,-0.033
6.735,-0.033
6.740,-0.034
6.745,-0.036
6.750,-0.037
6.755,-0.040
6.760,-0.042
6.765,-0.043
6.770,-0.043
6.775,-0.044
6.780,-0.047
6.785,-0.049
6.790,-0.051
6.795,-0.052
6.800,-0.051
6.805,-0.051
6.810,-0.051
6.815,-0.051
6.820,-0.051
6.825,-0.050
6.830,-0.051
6.835,-0.055
6.840,-0.059
6.845,-0.060
6.850,-0.059
6.855,-0.059
6.860,-0.060
6.865,-0.060
6.870,-0.058
6.875,-0.055
6.880,-0.056
6.885,-0.055
6.890,-0.052
6.895,-0.052
6.900,-0.052
6.905,-0.052
6.910,-0.054
6.915,-0.055
6.920,-0.052
6.925,-0.053
6.930,-0.054
6.935,-0.049
6.940,-0.046
6.945,-0.056
6.950,-0.083
6.955,-0.108
6.960,-0.115
6.965,-0.111
6.970,-0.114
6.975,-0.121
6.980,-0.124
6.985,-0.125
6.990,-0.119
6.995,-0.101
7.000,-0.071
7.005,-0.051
7.010,-0.053
7.015,-0.062
7.020,-0.062
7.025,-0.042
7.030,-0.021
7.035,-0.012
7.040,-0.005
7.045,0.005
7.050,0.016
7.055,0.029
7.060,0.042
7.065,0.055
7.070,0.063
7.075,0.059
7.080,0.053
7.085,0.054
7.090,0.053
7.095,0.050
7.100,0.048
7.105,0.048
7.110,0.049
7.115,0.044
7.120,0.035
7.125,0.031
7.130,0.035
7.135,0.052
7.140,0.077
7.145,0.077
7.150,0.038
7.155,-0.032
7.160,-0.145
7.165,-0.336
7.170,-0.603
7.175,-0.901
7.180,-1.077
7.185,-0.931
7.190,-0.455
7.195,0.121
7.200,0.462
7.205,0.510
7.210,0.433
7.215,0.330
7.220,0.257
7.225,0.184
7.230,0.128
7.235,0.124
7.240,0.115
7.245,0.108
7.250,0.120
7.255,0.115
7.260,0.103
7.265,0.098
7.270,0.084
7.275,0.074
7.280,0.073
7.285,0.071
7.290,0.070
7.295,0.064
7.300,0.054
7.305,0.048
7.310,0.045
7.315,0.040
7.320,0.032
7.325,0.029
7.330,0.032
7.335,0.031
7.340,0.021
7.345,0.009
7.350,0.006
7.355,0.002
7.360,-0.006
7.365,-0.013
7.370,-0.020
7.375,-0.028
7.380,-0.038
7.385,-0.047
7.390,-0.054
7.395,-0.062
7.400,-0.070
7.405,-0.078
7.410,-0.089
7.415,-0.103
7.420,-0.116
7.425,-0.130
7.430,-0.144
7.435,-0.156
7.440,-0.166
7.445,-0.175
7.450,-0.184
7.455,-0.192
7.460,-0.198
7.465,-0.200
7.470,-0.200
7.475,-0.194
7.480,-0.182
7.485,-0.163
7.490,-0.132
7.495,-0.091
7.500,-0.046
7.505,0.000
7.510,0.049
7.515,0.098
7.520,0.142
7.525,0.178
7.530,0.210
7.535,0.238
7.540,0.260
7.545,0.274
7.550,0.282
7.555,0.286
7.560,0.286
7.565,0.283
7.570,0.276
7.575,0.265
7.580,0.256
7.585,0.248
7.590,0.237
7.595,0.227
7.600,0.217
7.605,0.206
7.610,0.194
7.615,0.181
7.620,0.172
7.625,0.164
7.630,0.153
7.635,0.140
7.640,0.127
7.645,0.116
7.650,0.108
7.655,0.102
7.660,0.100
7.665,0.093
7.670,0.083
7.675,0.072
7.680,0.061
7.685,0.053
7.690,0.047
7.695,0.040
7.700,0.035
7.705,0.032
7.710,0.030
7.715,0.027
7.720,0.021
7.725,0.015
7.730,0.010
7.735,0.008
7.740,0.008
7.745,0.006
7.750,0.002
7.755,-0.001
7.760,-0.005
7.765,-0.007
7.770,-0.009
7.775,-0.010
7.780,-0.013
7.785,-0.016
7.790,-0.020
7.795,-0.023
7.800,-0.024
7.805,-0.025
7.810,-0.027
7.815,-0.029
7.820,-0.032
7.825,-0.035
7.830,-0.038
7.835,-0.041
7.840,-0.042
7.845,-0.042
7.850,-0.043
7.855,-0.045
7.860,-0.048
7.865,-0.050
7.870,-0.051
7.875,-0.051
7.880,-0.052
7.885,-0.053
7.890,-0.052
7.895,-0.051
7.900,-0.051
7.905,-0.052
7.910,-0.052
7.915,-0.054
7.920,-0.057
7.925,-0.055
7.930,-0.051
7.935,-0.047
7.940,-0.047
7.945,-0.050
7.950,-0.052
7.955,-0.053
7.960,-0.056
7.965,-0.055
7.970,-0.053
7.975,-0.054
7.980,-0.054
7.985,-0.051
7.990,-0.050
7.995,-0.050
8.000,-0.050
8.005,-0.051
8.010,-0.058
8.015,-0.078
8.020,-0.104
8.025,-0.121
8.030,-0.125
8.035,-0.122
8.040,-0.120
8.045,-0.124
8.050,-0.130
8.055,-0.131
8.060,-0.120
8.065,-0.099
8.070,-0.076
8.075,-0.065
8.080,-0.070
8.085,-0.076
8.090,-0.065
8.095,-0.046
8.100,-0.033
8.105,-0.025
8.110,-0.013
8.115,0.007
8.120,0.024
8.125,0.035
8.130,0.041
8.135,0.044
8.140,0.043
8.145,0.043
8.150,0.043
8.155,0.042
8.160,0.039
8.165,0.036
8.170,0.037
8.175,0.036
8.180,0.032
8.185,0.029
8.190,0.026
8.195,0.025
8.200,0.028
8.205,0.045
8.210,0.058
8.215,0.040
8.220,-0.011
8.225,-0.109
8.230,-0.274
8.235,-0.508
8.240,-0.803
8.245,-1.058
8.250,-1.065
8.255,-0.724
8.260,-0.151
8.265,0.330
8.270,0.493
8.275,0.458
8.280,0.364
8.285,0.280
8.290,0.216
8.295,0.149
8.300,0.127
8.305,0.136
8.310,0.131
8.315,0.127
8.320,0.123
8.325,0.115
8.330,0.110
8.335,0.107
8.340,0.099
8.345,0.093
8.350,0.087
8.355,0.079
8.360,0.072
8.365,0.070
8.370,0.067
8.375,0.062
8.380,0.055
8.385,0.049
8.390,0.043
8.395,0.037
8.400,0.032
8.405,0.026
8.410,0.022
8.415,0.023
8.420,0.019
8.425,0.013
8.430,0.006
8.435,-0.002
8.440,-0.009
8.445,-0.016
8.450,-0.025
8.455,-0.033
8.460,-0.044
8.465,-0.053
8.470,-0.058
8.475,-0.070
8.480,-0.086
8.485,-0.098
8.490,-0.110
8.495,-0.123
8.500,-0.137
8.505,-0.151
8.510,-0.159
8.515,-0.168
8.520,-0.176
8.525,-0.183
8.530,-0.189
8.535,-0.192
8.540,-0.190
8.545,-0.183
8.550,-0.166
8.555,-0.139
8.560,-0.103
8.565,-0.063
8.570,-0.019
8.575,0.028
8.580,0.075
8.585,0.121
8.590,0.160
8.595,0.193
8.600,0.223
8.605,0.246
8.610,0.261
8.615,0.272
8.620,0.279
8.625,0.281
8.630,0.278
8.635,0.272
8.640,0.263
8.645,0.255
8.650,0.246
8.655,0.236
8.660,0.227
8.665,0.217
8.670,0.207
8.675,0.195
8.680,0.183
8.685,0.175
8.690,0.168
8.695,0.160
8.700,0.147
8.705,0.137
8.710,0.130
8.715,0.121
8.720,0.111
8.725,0.100
8.730,0.087
8.735,0.077
8.740,0.072
8.745,0.070
8.750,0.066
8.755,0.059
8.760,0.051
8.765,0.045
8.770,0.038
8.775,0.033
8.780,0.030
8.785,0.025
8.790,0.019
8.795,0.013
8.800,0.012
8.805,0.011
8.810,0.009
8.815,0.005
8.820,0.000
8.825,-0.004
8.830,-0.005
8.835,-0.005
8.840,-0.007
8.845,-0.009
8.850,-0.014
8.855,-0.018
8.860,-0.023
8.865,-0.026
8.870,-0.026
8.875,-0.025
8.880,-0.028
8.885,-0.031
8.890,-0.032
8.895,-0.034
8.900,-0.038
8.905,-0.040
8.910,-0.041
8.915,-0.042
8.920,-0.045
8.925,-0.046
8.930,-0.048
8.935,-0.050
8.940,-0.050
8.945,-0.051
8.950,-0.052
8.955,-0.053
8.960,-0.056
8.965,-0.056
8.970,-0.055
8.975,-0.054
8.980,-0.053
8.985,-0.054
8.990,-0.056
8.995,-0.057
9.000,-0.058
9.005,-0.058
9.010,-0.058
9.015,-0.059
9.020,-0.060
9.025,-0.061
9.030,-0.061
9.035,-0.060
9.040,-0.058
9.045,-0.056
9.050,-0.055
9.055,-0.055
9.060,-0.054
9.065,-0.054
9.070,-0.053
9.075,-0.052
9.080,-0.051
9.085,-0.051
9.090,-0.052
9.095,-0.057
9.100,-0.069
9.105,-0.091
9.110,-0.114
9.115,-0.124
9.120,-0.124
9.125,-0.121
9.130,-0.123
9.135,-0.129
9.140,-0.132
9.145,-0.129
9.150,-0.115
9.155,-0.087
9.160,-0.064
9.165,-0.058
9.170,-0.063
9.175,-0.065
9.180,-0.051
9.185,-0.032
9.190,-0.023
9.195,-0.013
9.200,0.004
9.205,0.022
9.210,0.032
9.215,0.038
9.220,0.046
9.225,0.052
9.230,0.054
9.235,0.052
9.240,0.051
9.245,0.051
9.250,0.049
9.255,0.046
9.260,0.045
9.265,0.042
9.270,0.039
9.275,0.037
9.280,0.033
9.285,0.033
9.290,0.044
9.295,0.061
9.300,0.058
9.305,0.024
9.310,-0.044
9.315,-0.169
9.320,-0.364
9.325,-0.623
9.330,-0.914
9.335,-1.076
9.340,-0.919
9.345,-0.444
9.350,0.120
9.355,0.447
9.360,0.495
9.365,0.425
9.370,0.327
9.375,0.252
9.380,0.176
9.385,0.125
9.390,0.126
9.395,0.128
9.400,0.122
9.405,0.123
9.410,0.116
9.415,0.106
9.420,0.102
9.425,0.097
9.430,0.089
9.435,0.084
9.440,0.077
9.445,0.069
9.450,0.070
9.455,0.067
9.460,0.059
9.465,0.054
9.470,0.047
9.475,0.041
9.480,0.038
9.485,0.035
9.490,0.034
9.495,0.028
9.500,0.019
9.505,0.014
9.510,0.007
9.515,-0.002
9.520,-0.006
9.525,-0.008
9.530,-0.011
9.535,-0.018
9.540,-0.029
9.545,-0.041
9.550,-0.049
9.555,-0.056
9.560,-0.067
9.565,-0.081
9.570,-0.092
9.575,-0.100
9.580,-0.112
9.585,-0.128
9.590,-0.141
9.595,-0.151
9.600,-0.159
9.605,-0.168
9.610,-0.173
9.615,-0.177
9.620,-0.181
9.625,-0.181
9.630,-0.179
9.635,-0.170
9.640,-0.151
9.645,-0.122
9.650,-0.086
9.655,-0.045
9.660,0.000
9.665,0.047
9.670,0.091
9.675,0.132
9.680,0.169
9.685,0.202
9.690,0.231
9.695,0.253
9.700,0.267
9.705,0.276
9.710,0.279
9.715,0.280
9.720,0.277
9.725,0.269
9.730,0.260
9.735,0.251
9.740,0.242
9.745,0.232
9.750,0.221
9.755,0.211
9.760,0.202
9.765,0.191
9.770,0.180
9.775,0.169
9.780,0.157
9.785,0.147
9.790,0.137
9.795,0.128
9.800,0.120
9.805,0.110
9.810,0.101
9.815,0.092
9.820,0.082
9.825,0.075
9.830,0.070
9.835,0.064
9.840,0.056
9.845,0.048
9.850,0.041
9.855,0.037
9.860,0.032
9.865,0.027
9.870,0.023
9.875,0.017
9.880,0.013
9.885,0.008
9.890,0.006
9.895,0.005
9.900,0.001
9.905,-0.002
9.910,-0.006
9.915,-0.009
9.920,-0.009
9.925,-0.011
9.930,-0.014
9.935,-0.018
9.940,-0.020
9.945,-0.022
9.950,-0.023
9.955,-0.027
9.960,-0.028
9.965,-0.028
9.970,-0.031
9.975,-0.034
9.980,-0.036
9.985,-0.037
9.990,-0.038
9.995,-0.041
10.000,-0.044
10.005,-0.045
10.010,-0.047
10.015,-0.050
10.020,-0.053
10.025,-0.054
10.030,-0.053
10.035,-0.053
10.040,-0.053
10.045,-0.055
10.050,-0.056
10.055,-0.055
10.060,-0.058
10.065,-0.060
10.070,-0.059
10.075,-0.059
10.080,-0.058
10.085,-0.058
10.090,-0.060
10.095,-0.061
10.100,-0.060
10.105,-0.060
10.110,-0.059
10.115,-0.058
10.120,-0.057
10.125,-0.058
10.130,-0.059
10.135,-0.060
10.140,-0.059
10.145,-0.057
10.150,-0.056
10.155,-0.057
10.160,-0.056
10.165,-0.056
10.170,-0.055
10.175,-0.054
10.180,-0.055
10.185,-0.064
10.190,-0.083
10.195,-0.106
10.200,-0.121
10.205,-0.125
10.210,-0.125
10.215,-0.126
10.220,-0.129
10.225,-0.133
10.230,-0.134
10.235,-0.125
10.240,-0.101
10.245,-0.074
10.250,-0.062
10.255,-0.063
10.260,-0.067
10.265,-0.060
10.270,-0.041
10.275,-0.027
10.280,-0.018
10.285,-0.005
10.290,0.014
10.295,0.029
10.300,0.037
10.305,0.043
10.310,0.047
10.315,0.049
10.320,0.048
10.325,0.047
10.330,0.046
10.335,0.044
10.340,0.042
10.345,0.042
10.350,0.039
10.355,0.035
10.360,0.031
10.365,0.030
10.370,0.028
10.375,0.030
10.380,0.045
10.385,0.059
10.390,0.048
10.395,0.008
10.400,-0.075
10.405,-0.221
10.410,-0.435
10.415,-0.708
10.420,-0.974
10.425,-1.039
10.430,-0.765
10.435,-0.231
10.440,0.276
10.445,0.493
10.450,0.484
10.455,0.395
10.460,0.298
10.465,0.221
10.470,0.144
10.475,0.112
10.480,0.119
10.485,0.117
10.490,0.114
10.495,0.111
10.500,0.100
10.505,0.094
10.510,0.092
10.515,0.085
10.520,0.079
10.525,0.076
10.530,0.071
10.535,0.067
10.540,0.065
10.545,0.060
10.550,0.053
10.555,0.048
10.560,0.044
10.565,0.040
10.570,0.035
10.575,0.029
10.580,0.024
10.585,0.018
10.590,0.015
10.595,0.011
10.600,0.004
10.605,-0.001
10.610,-0.005
10.615,-0.011
10.620,-0.017
10.625,-0.024
10.630,-0.033
10.635,-0.040
10.640,-0.050
10.645,-0.061
10.650,-0.070
10.655,-0.080
10.660,-0.092
10.665,-0.104
10.670,-0.117
10.675,-0.128
10.680,-0.139
10.685,-0.150
10.690,-0.160
10.695,-0.168
10.700,-0.174
10.705,-0.179
10.710,-0.181
10.715,-0.179
10.720,-0.173
10.725,-0.161
10.730,-0.141
10.735,-0.112
10.740,-0.074
10.745,-0.028
10.750,0.019
10.755,0.062
10.760,0.104
10.765,0.144
10.770,0.180
10.775,0.211
10.780,0.236
10.785,0.254
10.790,0.267
10.795,0.275
10.800,0.277
10.805,0.275
10.810,0.270
10.815,0.264
10.820,0.256
10.825,0.247
10.830,0.238
10.835,0.230
10.840,0.221
10.845,0.209
10.850,0.197
10.855,0.186
10.860,0.175
10.865,0.166
10.870,0.158
10.875,0.150
10.880,0.139
10.885,0.128
10.890,0.119
10.895,0.110
10.900,0.102
10.905,0.094
10.910,0.086
10.915,0.078
10.920,0.072
10.925,0.065
10.930,0.058
10.935,0.048
10.940,0.043
10.945,0.040
10.950,0.035
10.955,0.029
10.960,0.025
10.965,0.020
10.970,0.016
10.975,0.011
10.980,0.009
10.985,0.011
10.990,0.008
10.995,0.004
11.000,0.003
11.005,0.002
11.010,-0.001
11.015,-0.007
11.020,-0.010
11.025,-0.009
11.030,-0.011
11.035,-0.014
11.040,-0.016
11.045,-0.018
11.050,-0.018
11.055,-0.021
11.060,-0.028
11.065,-0.033
11.070,-0.034
11.075,-0.033
11.080,-0.033
11.085,-0.036
11.090,-0.039
11.095,-0.043
11.100,-0.046
11.105,-0.047
11.110,-0.047
11.115,-0.047
11.120,-0.048
11.125,-0.051
11.130,-0.053
11.135,-0.051
11.140,-0.049
11.145,-0.046
11.150,-0.049
11.155,-0.054
11.160,-0.053
11.165,-0.051
11.170,-0.051
11.175,-0.050
11.180,-0.052
11.185,-0.052
11.190,-0.050
11.195,-0.053
11.200,-0.055
11.205,-0.057
11.210,-0.059
11.215,-0.059
11.220,-0.058
11.225,-0.051
11.230,-0.044
11.235,-0.046
11.240,-0.047
11.245,-0.045
11.250,-0.043
11.255,-0.045
11.260,-0.050
11.265,-0.050
11.270,-0.049
11.275,-0.059
11.280,-0.082
11.285,-0.106
11.290,-0.118
11.295,-0.117
11.300,-0.114
11.305,-0.117
11.310,-0.123
11.315,-0.128
11.320,-0.128
11.325,-0.120
11.330,-0.096
11.335,-0.070
11.340,-0.059
11.345,-0.063
11.350,-0.065
11.355,-0.056
11.360,-0.039
11.365,-0.022
11.370,-0.005
11.375,0.013
11.380,0.025
11.385,0.032
11.390,0.044
11.395,0.049
11.400,0.049
11.405,0.050
11.410,0.051
11.415,0.050
11.420,0.046
11.425,0.041
11.430,0.041
11.435,0.039
11.440,0.035
11.445,0.037
11.450,0.038
11.455,0.035
11.460,0.030
11.465,0.037
11.470,0.060
11.475,0.070
11.480,0.048
11.485,-0.010
11.490,-0.121
11.495,-0.294
11.500,-0.527
11.505,-0.809
11.510,-1.006
11.515,-0.916
11.520,-0.501
11.525,0.048
11.530,0.406
11.535,0.479
11.540,0.430
11.545,0.337
11.550,0.248
11.555,0.162
11.560,0.100
11.565,0.102
11.570,0.112
11.575,0.105
11.580,0.099
11.585,0.089
11.590,0.081
11.595,0.078
11.600,0.075
11.605,0.070
11.610,0.067
11.615,0.062
11.620,0.054
11.625,0.050
11.630,0.048
11.635,0.045
11.640,0.042
11.645,0.039
11.650,0.035
11.655,0.025
11.660,0.018
11.665,0.016
11.670,0.007
11.675,0.001
11.680,0.001
11.685,-0.001
11.690,-0.005
11.695,-0.011
11.700,-0.018
11.705,-0.021
11.710,-0.027
11.715,-0.033
11.720,-0.040
11.725,-0.050
11.730,-0.062
11.735,-0.074
11.740,-0.081
11.745,-0.085
11.750,-0.095
11.755,-0.110
11.760,-0.128
11.765,-0.141
11.770,-0.147
11.775,-0.154
11.780,-0.161
11.785,-0.164
11.790,-0.165
11.795,-0.169
11.800,-0.170
11.805,-0.166
11.810,-0.160
11.815,-0.148
11.820,-0.124
11.825,-0.090
11.830,-0.049
11.835,-0.004
11.840,0.037
11.845,0.077
11.850,0.121
11.855,0.164
11.860,0.199
11.865,0.224
11.870,0.241
11.875,0.255
11.880,0.266
11.885,0.266
11.890,0.265
11.895,0.268
11.900,0.269
11.905,0.265
11.910,0.251
11.915,0.236
11.920,0.227
11.925,0.219
11.930,0.209
11.935,0.201
11.940,0.194
11.945,0.183
11.950,0.170
11.955,0.154
11.960,0.138
11.965,0.129
11.970,0.125
11.975,0.117
11.980,0.112
11.985,0.104
11.990,0.090
11.995,0.076
12.000,0.066
12.005,0.064
12.010,0.063
12.015,0.056
12.020,0.048
12.025,0.043
12.030,0.039
12.035,0.034
12.040,0.032
12.045,0.027
12.050,0.019
12.055,0.012
12.060,0.009
12.065,0.007
12.070,0.007
12.075,0.010
12.080,0.013
12.085,0.009
12.090,0.002
12.095,-0.006
12.100,-0.011
12.105,-0.016
12.110,-0.016
12.115,-0.016
12.120,-0.017
12.125,-0.021
12.130,-0.024
12.135,-0.026
12.140,-0.026
12.145,-0.027
12.150,-0.030
12.155,-0.034
12.160,-0.037
12.165,-0.038
12.170,-0.038
12.175,-0.041
12.180,-0.046
12.185,-0.048
12.190,-0.046
12.195,-0.046
12.200,-0.048
12.205,-0.050
12.210,-0.049
12.215,-0.049
12.220,-0.047
12.225,-0.049
12.230,-0.053
12.235,-0.055
12.240,-0.057
12.245,-0.057
12.250,-0.057
12.255,-0.057
12.260,-0.056
12.265,-0.057
12.270,-0.058
12.275,-0.058
12.280,-0.058
12.285,-0.060
12.290,-0.060
12.295,-0.059
12.300,-0.057
12.305,-0.056
12.310,-0.054
12.315,-0.053
12.320,-0.052
12.325,-0.054
12.330,-0.055
12.335,-0.056
12.340,-0.056
12.345,-0.057
12.350,-0.067
12.355,-0.087
12.360,-0.108
12.365,-0.121
12.370,-0.124
12.375,-0.123
12.380,-0.124
12.385,-0.125
12.390,-0.126
12.395,-0.125
12.400,-0.118
12.405,-0.098
12.410,-0.075
12.415,-0.067
12.420,-0.069
12.425,-0.070
12.430,-0.058
12.435,-0.041
12.440,-0.030
12.445,-0.020
12.450,-0.001
12.455,0.017
12.460,0.027
12.465,0.037
12.470,0.043
12.475,0.046
12.480,0.046
12.485,0.044
12.490,0.045
12.495,0.046
12.500,0.043
12.505,0.042
12.510,0.041
12.515,0.038
12.520,0.034
12.525,0.031
12.530,0.027
12.535,0.027
12.540,0.039
12.545,0.061
12.550,0.066
12.555,0.037
12.560,-0.029
12.565,-0.152
12.570,-0.343
12.575,-0.595
12.580,-0.882
12.585,-1.046
12.590,-0.898
12.595,-0.438
12.600,0.108
12.605,0.420
12.610,0.470
12.615,0.414
12.620,0.322
12.625,0.242
12.630,0.161
12.635,0.109
12.640,0.114
12.645,0.115
12.650,0.110
12.655,0.111
12.660,0.103
12.665,0.093
12.670,0.090
12.675,0.086
12.680,0.079
12.685,0.078
12.690,0.075
12.695,0.067
12.700,0.059
12.705,0.055
12.710,0.051
12.715,0.048
12.720,0.047
12.725,0.044
12.730,0.036
12.735,0.030
12.740,0.025
12.745,0.021
12.750,0.017
12.755,0.012
12.760,0.006
12.765,0.001
12.770,-0.005
12.775,-0.011
12.780,-0.017
12.785,-0.022
12.790,-0.026
12.795,-0.033
12.800,-0.042
12.805,-0.052
12.810,-0.062
12.815,-0.072
12.820,-0.082
12.825,-0.094
12.830,-0.109
12.835,-0.122
12.840,-0.135
12.845,-0.144
12.850,-0.150
12.855,-0.155
12.860,-0.161
12.865,-0.166
12.870,-0.169
12.875,-0.169
12.880,-0.165
12.885,-0.156
12.890,-0.140
12.895,-0.112
12.900,-0.078
12.905,-0.038
12.910,0.006
12.915,0.048
12.920,0.089
12.925,0.132
12.930,0.167
12.935,0.198
12.940,0.225
12.945,0.246
12.950,0.261
12.955,0.271
12.960,0.273
12.965,0.273
12.970,0.270
12.975,0.262
12.980,0.255
12.985,0.247
12.990,0.240
12.995,0.232
13.000,0.220
13.005,0.208
13.010,0.196
13.015,0.186
13.020,0.175
13.025,0.163
13.030,0.152
13.035,0.143
13.040,0.134
13.045,0.124
13.050,0.114
13.055,0.104
13.060,0.095
13.065,0.085
13.070,0.078
13.075,0.070
13.080,0.064
13.085,0.059
13.090,0.054
13.095,0.048
13.100,0.043
13.105,0.038
13.110,0.033
13.115,0.028
13.120,0.024
13.125,0.021
13.130,0.019
13.135,0.015
13.140,0.010
13.145,0.007
13.150,0.005
13.155,0.004
13.160,0.002
13.165,-0.001
13.170,-0.004
13.175,-0.006
13.180,-0.009
13.185,-0.011
13.190,-0.013
13.195,-0.015
13.200,-0.017
13.205,-0.018
13.210,-0.020
13.215,-0.023
13.220,-0.026
13.225,-0.029
13.230,-0.031
13.235,-0.032
13.240,-0.034
13.245,-0.036
13.250,-0.039
13.255,-0.041
13.260,-0.043
13.265,-0.043
13.270,-0.043
13.275,-0.044
13.280,-0.046
13.285,-0.049
13.290,-0.050
13.295,-0.051
13.300,-0.050
13.305,-0.049
13.310,-0.050
13.315,-0.051
13.320,-0.052
13.325,-0.053
13.330,-0.054
13.335,-0.054
13.340,-0.056
13.345,-0.058
13.350,-0.057
13.355,-0.054
13.360,-0.053
13.365,-0.053
13.370,-0.053
13.375,-0.053
13.380,-0.054
13.385,-0.054
13.390,-0.054
13.395,-0.053
13.400,-0.053
13.405,-0.053
13.410,-0.049
13.415,-0.047
13.420,-0.049
13.425,-0.059
13.430,-0.077
13.435,-0.099
13.440,-0.117
13.445,-0.124
13.450,-0.124
13.455,-0.124
13.460,-0.127
13.465,-0.132
13.470,-0.133
13.475,-0.124
13.480,-0.103
13.485,-0.076
13.490,-0.059
13.495,-0.061
13.500,-0.066
13.505,-0.061
13.510,-0.044
13.515,-0.027
13.520,-0.017
13.525,-0.004
13.530,0.013
13.535,0.027
13.540,0.037
13.545,0.046
13.550,0.049
13.555,0.048
13.560,0.045
13.565,0.044
13.570,0.049
13.575,0.049
13.580,0.046
13.585,0.044
13.590,0.042
13.595,0.039
13.600,0.035
13.605,0.032
13.610,0.030
13.615,0.035
13.620,0.051
13.625,0.061
13.630,0.042
13.635,-0.006
13.640,-0.098
13.645,-0.257
13.650,-0.485
13.655,-0.763
13.660,-0.997
13.665,-0.996
13.670,-0.660
13.675,-0.106
13.680,0.346
13.685,0.500
13.690,0.470
13.695,0.373
13.700,0.281
13.705,0.203
13.710,0.128
13.715,0.108
13.720,0.115
13.725,0.111
13.730,0.111
13.735,0.107
13.740,0.095
13.745,0.091
13.750,0.088
13.755,0.080
13.760,0.074
13.765,0.071
13.770,0.065
13.775,0.059
13.780,0.057
13.785,0.053
13.790,0.048
13.795,0.045
13.800,0.041
13.805,0.034
13.810,0.029
13.815,0.026
13.820,0.021
13.825,0.015
13.830,0.009
13.835,0.003
13.840,-0.001
13.845,-0.005
13.850,-0.009
13.855,-0.015
13.860,-0.024
13.865,-0.031
13.870,-0.037
13.875,-0.043
13.880,-0.051
13.885,-0.060
13.890,-0.070
13.895,-0.082
13.900,-0.096
13.905,-0.109
13.910,-0.121
13.915,-0.132
13.920,-0.143
13.925,-0.153
13.930,-0.161
13.935,-0.168
13.940,-0.173
13.945,-0.176
13.950,-0.176
13.955,-0.174
13.960,-0.167
13.965,-0.154
13.970,-0.132
13.975,-0.099
13.980,-0.060
13.985,-0.017
13.990,0.029
13.995,0.073
14.000,0.114
14.005,0.150
14.010,0.183
14.015,0.213
14.020,0.237
14.025,0.254
14.030,0.265
14.035,0.272
14.040,0.274
14.045,0.271
14.050,0.264
14.055,0.257
14.060,0.250
14.065,0.241
14.070,0.230
14.075,0.220
14.080,0.210
14.085,0.197
14.090,0.186
14.095,0.176
14.100,0.167
14.105,0.159
14.110,0.149
14.115,0.136
14.120,0.126
14.125,0.118
14.130,0.110
14.135,0.102
14.140,0.092
14.145,0.083
14.150,0.078
14.155,0.070
14.160,0.063
14.165,0.056
14.170,0.049
14.175,0.043
14.180,0.038
14.185,0.031
14.190,0.026
14.195,0.023
14.200,0.020
14.205,0.016
14.210,0.012
14.215,0.010
14.220,0.010
14.225,0.009
14.230,0.006
14.235,0.002
14.240,-0.003
14.245,-0.005
14.250,-0.007
14.255,-0.008
14.260,-0.010
14.265,-0.015
14.270,-0.017
14.275,-0.019
14.280,-0.022
14.285,-0.024
14.290,-0.025
14.295,-0.025
14.300,-0.027
14.305,-0.031
14.310,-0.033
14.315,-0.035
14.320,-0.036
14.325,-0.038
14.330,-0.041
14.335,-0.042
14.340,-0.045
14.345,-0.048
14.350,-0.049
14.355,-0.049
14.360,-0.051
14.365,-0.053
14.370,-0.050
14.375,-0.048
14.380,-0.050
14.385,-0.051
14.390,-0.050
14.395,-0.049
14.400,-0.051
14.405,-0.052
14.410,-0.053
14.415,-0.056
14.420,-0.056
14.425,-0.054
14.430,-0.052
14.435,-0.056
14.440,-0.060
14.445,-0.060
14.450,-0.056
14.455,-0.052
14.460,-0.050
14.465,-0.050
14.470,-0.051
14.475,-0.051
14.480,-0.051
14.485,-0.048
14.490,-0.046
14.495,-0.047
14.500,-0.052
14.505,-0.061
14.510,-0.078
14.515,-0.100
14.520,-0.116
14.525,-0.122
14.530,-0.121
14.535,-0.124
14.540,-0.130
14.545,-0.136
14.550,-0.136
14.555,-0.128
14.560,-0.105
14.565,-0.076
14.570,-0.058
14.575,-0.057
14.580,-0.062
14.585,-0.055
14.590,-0.036
14.595,-0.021
14.600,-0.012
14.605,0.005
14.610,0.024
14.615,0.038
14.620,0.045
14.625,0.050
14.630,0.052
14.635,0.050
14.640,0.048
14.645,0.047
14.650,0.049
14.655,0.048
14.660,0.047
14.665,0.047
14.670,0.042
14.675,0.035
14.680,0.030
14.685,0.030
14.690,0.028
14.695,0.033
14.700,0.051
14.705,0.065
14.710,0.051
14.715,0.014
14.720,-0.058
14.725,-0.198
14.730,-0.411
14.735,-0.678
14.740,-0.941
14.745,-1.019
14.750,-0.770
14.755,-0.255
14.760,0.250
14.765,0.475
14.770,0.483
14.775,0.409
14.780,0.310
14.785,0.221
14.790,0.134
14.795,0.097
14.800,0.106
14.805,0.106
14.810,0.105
14.815,0.107
14.820,0.099
14.825,0.092
14.830,0.089
14.835,0.079
14.840,0.068
14.845,0.066
14.850,0.062
14.855,0.056
14.860,0.054
14.865,0.049
14.870,0.038
14.875,0.035
14.880,0.036
14.885,0.032
14.890,0.028
14.895,0.022
14.900,0.014
14.905,0.010
14.910,0.005
14.915,0.004
14.920,0.002
14.925,-0.005
14.930,-0.009
14.935,-0.012
14.940,-0.017
14.945,-0.027
14.950,-0.038
14.955,-0.043
14.960,-0.049
14.965,-0.059
14.970,-0.072
14.975,-0.086
14.980,-0.095
14.985,-0.106
14.990,-0.119
14.995,-0.128
15.000,-0.137
15.005,-0.144
15.010,-0.151
15.015,-0.160
15.020,-0.165
15.025,-0.166
15.030,-0.166
15.035,-0.170
15.040,-0.170
15.045,-0.158
15.050,-0.135
15.055,-0.108
15.060,-0.072
15.065,-0.026
15.070,0.022
15.075,0.063
15.080,0.098
15.085,0.131
15.090,0.170
15.095,0.207
15.100,0.235
15.105,0.255
15.110,0.266
15.115,0.270
15.120,0.272
15.125,0.269
15.130,0.264
15.135,0.257
15.140,0.252
15.145,0.246
15.150,0.237
15.155,0.226
15.160,0.213
15.165,0.200
15.170,0.191
15.175,0.182
15.180,0.171
15.185,0.163
15.190,0.152
15.195,0.139
15.200,0.129
15.205,0.120
15.210,0.108
15.215,0.097
15.220,0.091
15.225,0.088
15.230,0.083
15.235,0.075
15.240,0.065
15.245,0.055
15.250,0.047
15.255,0.042
15.260,0.040
15.265,0.038
15.270,0.032
15.275,0.024
15.280,0.022
15.285,0.020
15.290,0.015
15.295,0.011
15.300,0.009
15.305,0.008
15.310,0.007
15.315,0.003
15.320,-0.002
15.325,-0.001
15.330,0.000
15.335,-0.007
15.340,-0.012
15.345,-0.013
15.350,-0.014
15.355,-0.015
15.360,-0.018
15.365,-0.022
15.370,-0.023
15.375,-0.022
15.380,-0.026
15.385,-0.031
15.390,-0.031
15.395,-0.033
15.400,-0.031
15.405,-0.032
15.410,-0.039
15.415,-0.046
15.420,-0.046
15.425,-0.041
15.430,-0.042
15.435,-0.047
15.440,-0.046
15.445,-0.046
15.450,-0.048
15.455,-0.053
15.460,-0.057
15.465,-0.055
15.470,-0.054
15.475,-0.056
15.480,-0.055
15.485,-0.053
15.490,-0.056
15.495,-0.058
15.500,-0.057
15.505,-0.053
15.510,-0.051
15.515,-0.053
15.520,-0.054
15.525,-0.053
15.530,-0.052
15.535,-0.051
15.540,-0.056
15.545,-0.057
15.550,-0.052
15.555,-0.051
15.560,-0.054
15.565,-0.055
15.570,-0.057
15.575,-0.059
15.580,-0.066
15.585,-0.085
15.590,-0.103
15.595,-0.114
15.600,-0.121
15.605,-0.122
15.610,-0.126
15.615,-0.131
15.620,-0.132
15.625,-0.129
15.630,-0.115
15.635,-0.093
15.640,-0.076
15.645,-0.072
15.650,-0.074
15.655,-0.066
15.660,-0.048
15.665,-0.032
15.670,-0.021
15.675,-0.008
15.680,0.008
15.685,0.022
15.690,0.031
15.695,0.038
15.700,0.042
15.705,0.042
15.710,0.040
15.715,0.040
15.720,0.042
15.725,0.043
15.730,0.040
15.735,0.040
15.740,0.040
15.745,0.037
15.750,0.031
15.755,0.025
15.760,0.021
15.765,0.023
15.770,0.038
15.775,0.058
15.780,0.059
15.785,0.030
15.790,-0.034
15.795,-0.159
15.800,-0.355
15.805,-0.614
15.810,-0.903
15.815,-1.067
15.820,-0.914
15.825,-0.437
15.830,0.123
15.835,0.432
15.840,0.472
15.845,0.410
15.850,0.317
15.855,0.237
15.860,0.154
15.865,0.104
15.870,0.112
15.875,0.112
15.880,0.106
15.885,0.109
15.890,0.102
15.895,0.095
15.900,0.095
15.905,0.090
15.910,0.080
15.915,0.074
15.920,0.071
15.925,0.064
15.930,0.060
15.935,0.056
15.940,0.049
15.945,0.041
15.950,0.036
15.955,0.033
15.960,0.030
15.965,0.027
15.970,0.023
15.975,0.015
15.980,0.008
15.985,0.004
15.990,0.002
15.995,-0.001
16.000,-0.006
16.005,-0.013
16.010,-0.021
16.015,-0.029
16.020,-0.035
16.025,-0.041
16.030,-0.046
16.035,-0.054
16.040,-0.064
16.045,-0.075
16.050,-0.086
16.055,-0.097
16.060,-0.108
16.065,-0.121
16.070,-0.132
16.075,-0.143
16.080,-0.154
16.085,-0.161
16.090,-0.166
16.095,-0.171
16.100,-0.173
16.105,-0.171
16.110,-0.165
16.115,-0.155
16.120,-0.139
16.125,-0.112
16.130,-0.076
16.135,-0.036
16.140,0.008
16.145,0.051
16.150,0.090
16.155,0.130
16.160,0.168
16.165,0.202
16.170,0.230
16.175,0.249
16.180,0.261
16.185,0.268
16.190,0.271
16.195,0.271
16.200,0.267
16.205,0.260
16.210,0.253
16.215,0.244
16.220,0.235
16.225,0.225
16.230,0.214
16.235,0.203
16.240,0.191
16.245,0.180
16.250,0.170
16.255,0.159
16.260,0.150
16.265,0.139
16.270,0.130
16.275,0.122
16.280,0.113
16.285,0.103
16.290,0.095
16.295,0.086
16.300,0.076
16.305,0.066
16.310,0.060
16.315,0.057
16.320,0.050
16.325,0.043
16.330,0.038
16.335,0.033
16.340,0.028
16.345,0.024
16.350,0.021
16.355,0.019
16.360,0.018
16.365,0.016
16.370,0.015
16.375,0.011
16.380,0.008
16.385,0.005
16.390,0.001
16.395,-0.002
16.400,-0.005
16.405,-0.007
16.410,-0.010
16.415,-0.012
16.420,-0.014
16.425,-0.017
16.430,-0.019
16.435,-0.021
16.440,-0.024
16.445,-0.025
16.450,-0.026
16.455,-0.027
16.460,-0.029
16.465,-0.034
16.470,-0.037
16.475,-0.038
16.480,-0.041
16.485,-0.042
16.490,-0.043
16.495,-0.046
16.500,-0.048
16.505,-0.048
16.510,-0.046
16.515,-0.046
16.520,-0.046
16.525,-0.048
16.530,-0.050
16.535,-0.051
16.540,-0.052
16.545,-0.052
16.550,-0.054
16.555,-0.055
16.560,-0.053
16.565,-0.051
16.570,-0.051
16.575,-0.052
16.580,-0.053
16.585,-0.054
16.590,-0.055
16.595,-0.057
16.600,-0.054
16.605,-0.053
16.610,-0.053
16.615,-0.053
16.620,-0.054
16.625,-0.054
16.630,-0.055
16.635,-0.060
16.640,-0.071
16.645,-0.091
16.650,-0.112
16.655,-0.123
16.660,-0.127
16.665,-0.126
16.670,-0.128
16.675,-0.132
16.680,-0.135
16.685,-0.132
16.690,-0.115
16.695,-0.090
16.700,-0.068
16.705,-0.063
16.710,-0.068
16.715,-0.067
16.720,-0.055
16.725,-0.040
16.730,-0.028
16.735,-0.013
16.740,0.004
16.745,0.020
16.750,0.029
16.755,0.037
16.760,0.045
16.765,0.047
16.770,0.046
16.775,0.044
16.780,0.043
16.785,0.043
16.790,0.041
16.795,0.039
16.800,0.037
16.805,0.034
16.810,0.030
16.815,0.028
16.820,0.026
16.825,0.024
16.830,0.029
16.835,0.046
16.840,0.056
16.845,0.038
16.850,-0.010
16.855,-0.104
16.860,-0.266
16.865,-0.493
16.870,-0.770
16.875,-1.008
16.880,-1.014
16.885,-0.682
16.890,-0.127
16.895,0.328
16.900,0.486
16.905,0.462
16.910,0.371
16.915,0.280
16.920,0.201
16.925,0.127
16.930,0.109
16.935,0.115
16.940,0.110
16.945,0.110
16.950,0.107
16.955,0.096
16.960,0.092
16.965,0.090
16.970,0.082
16.975,0.075
16.980,0.073
16.985,0.068
16.990,0.061
16.995,0.059
17.000,0.056
17.005,0.049
17.010,0.044
17.015,0.040
17.020,0.036
17.025,0.033
17.030,0.028
17.035,0.021
17.040,0.016
17.045,0.011
17.050,0.007
17.055,0.003
17.060,-0.003
17.065,-0.009
17.070,-0.015
17.075,-0.020
17.080,-0.027
17.085,-0.035
17.090,-0.042
17.095,-0.049
17.100,-0.058
17.105,-0.068
17.110,-0.080
17.115,-0.092
17.120,-0.104
17.125,-0.116
17.130,-0.127
17.135,-0.138
17.140,-0.147
17.145,-0.154
17.150,-0.161
17.155,-0.166
17.160,-0.169
17.165,-0.171
17.170,-0.171
17.175,-0.165
17.180,-0.149
17.185,-0.125
17.190,-0.093
17.195,-0.054
17.200,-0.011
17.205,0.033
17.210,0.076
17.215,0.117
17.220,0.153
17.225,0.185
17.230,0.213
17.235,0.236
17.240,0.253
17.245,0.263
17.250,0.268
17.255,0.268
17.260,0.266
17.265,0.262
17.270,0.256
17.275,0.248
17.280,0.240
17.285,0.232
17.290,0.222
17.295,0.210
17.300,0.197
17.305,0.185
17.310,0.175
17.315,0.166
17.320,0.157
17.325,0.148
17.330,0.138
17.335,0.127
17.340,0.118
17.345,0.110
17.350,0.102
17.355,0.094
17.360,0.086
17.365,0.078
17.370,0.071
17.375,0.064
17.380,0.056
17.385,0.049
17.390,0.043
17.395,0.038
17.400,0.033
17.405,0.030
17.410,0.025
17.415,0.021
17.420,0.019
17.425,0.017
17.430,0.014
17.435,0.012
17.440,0.008
17.445,0.006
17.450,0.004
17.455,0.001
17.460,-0.002
17.465,-0.005
17.470,-0.006
17.475,-0.007
17.480,-0.010
17.485,-0.013
17.490,-0.016
17.495,-0.017
17.500,-0.019
17.505,-0.022
17.510,-0.025
17.515,-0.025
17.520,-0.026
17.525,-0.028
17.530,-0.031
17.535,-0.035
17.540,-0.036
17.545,-0.037
17.550,-0.039
17.555,-0.040
17.560,-0.042
17.565,-0.044
17.570,-0.043
17.575,-0.045
17.580,-0.047
17.585,-0.049
17.590,-0.050
17.595,-0.050
17.600,-0.049
17.605,-0.049
17.610,-0.048
17.615,-0.049
17.620,-0.051
17.625,-0.052
17.630,-0.052
17.635,-0.050
17.640,-0.051
17.645,-0.052
17.650,-0.052
17.655,-0.050
17.660,-0.050
17.665,-0.051
17.670,-0.052
17.675,-0.051
17.680,-0.052
17.685,-0.052
17.690,-0.051
17.695,-0.049
17.700,-0.048
17.705,-0.047
17.710,-0.047
17.715,-0.048
17.720,-0.049
17.725,-0.049
17.730,-0.047
17.735,-0.046
17.740,-0.046
17.745,-0.047
17.750,-0.050
17.755,-0.058
17.760,-0.076
17.765,-0.100
17.770,-0.116
17.775,-0.120
17.780,-0.117
17.785,-0.116
17.790,-0.120
17.795,-0.124
17.800,-0.123
17.805,-0.113
17.810,-0.090
17.815,-0.065
17.820,-0.053
17.825,-0.053
17.830,-0.056
17.835,-0.048
17.840,-0.031
17.845,-0.017
17.850,-0.007
17.855,0.008
17.860,0.025
17.865,0.037
17.870,0.047
17.875,0.053
17.880,0.055
17.885,0.056
17.890,0.055
17.895,0.057
17.900,0.058
17.905,0.055
17.910,0.052
17.915,0.049
17.920,0.045
17.925,0.041
17.930,0.039
17.935,0.036
17.940,0.031
17.945,0.031
17.950,0.042
17.955,0.060
17.960,0.058
17.965,0.024
17.970,-0.042
17.975,-0.166
17.980,-0.357
17.985,-0.608
17.990,-0.886
17.995,-1.037
18.000,-0.879
18.005,-0.407
18.010,0.143
18.015,0.454
18.020,0.501
18.025,0.435
18.030,0.335
18.035,0.252
18.040,0.167
18.045,0.115
18.050,0.119
18.055,0.118
18.060,0.110
18.065,0.109
18.070,0.099
18.075,0.089
18.080,0.088
18.085,0.081
18.090,0.072
18.095,0.070
18.100,0.067
18.105,0.061
18.110,0.058
18.115,0.055
18.120,0.049
18.125,0.044
18.130,0.042
18.135,0.038
18.140,0.032
18.145,0.027
18.150,0.022
18.155,0.016
18.160,0.012
18.165,0.007
18.170,0.003
18.175,0.000
18.180,-0.006
18.185,-0.012
18.190,-0.018
18.195,-0.025
18.200,-0.031
18.205,-0.039
18.210,-0.049
18.215,-0.059
18.220,-0.067
18.225,-0.075
18.230,-0.084
18.235,-0.094
18.240,-0.105
18.245,-0.116
18.250,-0.127
18.255,-0.136
18.260,-0.145
18.265,-0.153
18.270,-0.161
18.275,-0.167
18.280,-0.171
18.285,-0.171
18.290,-0.166
18.295,-0.155
18.300,-0.139
18.305,-0.118
18.310,-0.087
18.315,-0.048
18.320,-0.005
18.325,0.038
18.330,0.080
18.335,0.119
18.340,0.153
18.345,0.181
18.350,0.206
18.355,0.229
18.360,0.246
18.365,0.256
18.370,0.262
18.375,0.263
18.380,0.262
18.385,0.258
18.390,0.249
18.395,0.241
18.400,0.235
18.405,0.228
18.410,0.218
18.415,0.203
18.420,0.189
18.425,0.179
18.430,0.166
18.435,0.153
18.440,0.147
18.445,0.143
18.450,0.136
18.455,0.125
18.460,0.115
18.465,0.107
18.470,0.101
18.475,0.094
18.480,0.086
18.485,0.076
18.490,0.066
18.495,0.059
18.500,0.053
18.505,0.047
18.510,0.041
18.515,0.037
18.520,0.034
18.525,0.029
18.530,0.023
18.535,0.019
18.540,0.021
18.545,0.023
18.550,0.020
18.555,0.014
18.560,0.009
18.565,0.006
18.570,0.007
18.575,0.006
18.580,0.003
18.585,-0.001
18.590,-0.005
18.595,-0.010
18.600,-0.013
18.605,-0.013
18.610,-0.013
18.615,-0.016
18.620,-0.019
18.625,-0.021
18.630,-0.021
18.635,-0.020
18.640,-0.022
18.645,-0.026
18.650,-0.030
18.655,-0.034
18.660,-0.037
18.665,-0.039
18.670,-0.039
18.675,-0.039
18.680,-0.040
18.685,-0.043
18.690,-0.046
18.695,-0.048
18.700,-0.049
18.705,-0.050
18.710,-0.047
18.715,-0.043
18.720,-0.043
18.725,-0.047
18.730,-0.051
18.735,-0.054
18.740,-0.050
18.745,-0.048
18.750,-0.051
18.755,-0.054
18.760,-0.056
18.765,-0.056
18.770,-0.055
18.775,-0.057
18.780,-0.054
18.785,-0.048
18.790,-0.045
18.795,-0.043
18.800,-0.043
18.805,-0.048
18.810,-0.051
18.815,-0.050
18.820,-0.051
18.825,-0.052
18.830,-0.051
18.835,-0.048
18.840,-0.044
18.845,-0.045
18.850,-0.049
18.855,-0.050
18.860,-0.048
18.865,-0.047
18.870,-0.046
18.875,-0.045
18.880,-0.044
18.885,-0.051
18.890,-0.074
18.895,-0.100
18.900,-0.114
18.905,-0.117
18.910,-0.113
18.915,-0.115
18.920,-0.117
18.925,-0.118
18.930,-0.119
18.935,-0.109
18.940,-0.091
18.945,-0.070
18.950,-0.059
18.955,-0.058
18.960,-0.061
18.965,-0.052
18.970,-0.030
18.975,-0.014
18.980,-0.004
18.985,0.008
18.990,0.018
18.995,0.029
19.000,0.041
19.005,0.051
19.010,0.056
19.015,0.054
19.020,0.052
19.025,0.052
19.030,0.052
19.035,0.049
19.040,0.049
19.045,0.053
19.050,0.051
19.055,0.042
19.060,0.033
19.065,0.029
19.070,0.031
19.075,0.039
19.080,0.057
19.085,0.068
19.090,0.053
19.095,0.007
19.100,-0.085
19.105,-0.248
19.110,-0.480
19.115,-0.766
19.120,-1.005
19.125,-0.999
19.130,-0.654
19.135,-0.095
19.140,0.344
19.145,0.486
19.150,0.464
19.155,0.376
19.160,0.281
19.165,0.189
19.170,0.109
19.175,0.099
19.180,0.113
19.185,0.107
19.190,0.107
19.195,0.109
19.200,0.100
19.205,0.096
19.210,0.092
19.215,0.078
19.220,0.069
19.225,0.070
19.230,0.068
19.235,0.061
19.240,0.056
19.245,0.053
19.250,0.047
19.255,0.046
19.260,0.044
19.265,0.034
19.270,0.027
19.275,0.023
19.280,0.017
19.285,0.013
19.290,0.009
19.295,0.004
19.300,0.001
19.305,-0.005
19.310,-0.013
19.315,-0.016
19.320,-0.020
19.325,-0.030
19.330,-0.037
19.335,-0.044
19.340,-0.050
19.345,-0.057
19.350,-0.068
19.355,-0.079
19.360,-0.089
19.365,-0.100
19.370,-0.111
19.375,-0.121
19.380,-0.131
19.385,-0.142
19.390,-0.154
19.395,-0.161
19.400,-0.162
19.405,-0.162
19.410,-0.166
19.415,-0.167
19.420,-0.162
19.425,-0.149
19.430,-0.125
19.435,-0.100
19.440,-0.069
19.445,-0.034
19.450,0.005
19.455,0.054
19.460,0.099
19.465,0.136
19.470,0.170
19.475,0.200
19.480,0.223
19.485,0.239
19.490,0.253
19.495,0.263
19.500,0.267
19.505,0.263
19.510,0.259
19.515,0.254
19.520,0.248
19.525,0.243
19.530,0.232
19.535,0.217
19.540,0.202
19.545,0.192
19.550,0.188
19.555,0.179
19.560,0.165
19.565,0.151
19.570,0.141
19.575,0.133
19.580,0.123
19.585,0.112
19.590,0.106
19.595,0.100
19.600,0.090
19.605,0.080
19.610,0.074
19.615,0.072
19.620,0.066
19.625,0.057
19.630,0.045
19.635,0.040
19.640,0.044
19.645,0.038
19.650,0.028
19.655,0.024
19.660,0.018
19.665,0.015
19.670,0.015
19.675,0.014
19.680,0.015
19.685,0.013
19.690,0.007
19.695,0.008
19.700,0.008
19.705,0.002
19.710,-0.001
19.715,-0.002
19.720,-0.008
19.725,-0.015
19.730,-0.019
19.735,-0.020
19.740,-0.019
19.745,-0.020
19.750,-0.025
19.755,-0.029
19.760,-0.031
19.765,-0.029
19.770,-0.027
19.775,-0.033
19.780,-0.035
19.785,-0.033
19.790,-0.036
19.795,-0.038
19.800,-0.040
19.805,-0.043
19.810,-0.045
19.815,-0.049
19.820,-0.051
19.825,-0.050
19.830,-0.048
19.835,-0.046
19.840,-0.045
19.845,-0.045
19.850,-0.048
19.855,-0.053
19.860,-0.056
19.865,-0.056
19.870,-0.055
19.875,-0.055
19.880,-0.056
19.885,-0.057
19.890,-0.060
19.895,-0.059
19.900,-0.053
19.905,-0.048
19.910,-0.048
19.915,-0.053
19.920,-0.057
19.925,-0.057
19.930,-0.053
19.935,-0.050
19.940,-0.050
19.945,-0.051
19.950,-0.053
19.955,-0.054
19.960,-0.055
19.965,-0.054
19.970,-0.055
19.975,-0.065
19.980,-0.088
19.985,-0.110
19.990,-0.118
19.995,-0.117
20.000,-0.117
20.005,-0.121
20.010,-0.127
20.015,-0.133
20.020,-0.132
20.025,-0.116
20.030,-0.087
20.035,-0.067
20.040,-0.065
20.045,-0.069
20.050,-0.065
20.055,-0.049
20.060,-0.033
20.065,-0.023
20.070,-0.008
20.075,0.008
20.080,0.020
20.085,0.033
20.090,0.044
20.095,0.049
20.100,0.050
20.105,0.049
20.110,0.047
20.115,0.045
20.120,0.043
20.125,0.043
20.130,0.044
20.135,0.043
20.140,0.036
20.145,0.030
20.150,0.029
20.155,0.027
20.160,0.026
20.165,0.033
20.170,0.053
20.175,0.062
20.180,0.042
20.185,-0.013
20.190,-0.127
20.195,-0.315
20.200,-0.566
20.205,-0.859
20.210,-1.064
20.215,-0.983
20.220,-0.565
20.225,0.015
20.230,0.403
20.235,0.491
20.240,0.438
20.245,0.340
20.250,0.256
20.255,0.178
20.260,0.118
20.265,0.119
20.270,0.127
20.275,0.122
20.280,0.123
20.285,0.117
20.290,0.103
20.295,0.098
20.300,0.095
20.305,0.084
20.310,0.080
20.315,0.080
20.320,0.074
20.325,0.066
20.330,0.062
20.335,0.059
20.340,0.056
20.345,0.052
20.350,0.045
20.355,0.038
20.360,0.034
20.365,0.031
20.370,0.027
20.375,0.020
20.380,0.014
20.385,0.009
20.390,0.002
20.395,-0.004
20.400,-0.008
20.405,-0.010
20.410,-0.013
20.415,-0.021
20.420,-0.031
20.425,-0.040
20.430,-0.047
20.435,-0.055
20.440,-0.066
20.445,-0.077
20.450,-0.089
20.455,-0.103
20.460,-0.114
20.465,-0.122
20.470,-0.131
20.475,-0.140
20.480,-0.151
20.485,-0.156
20.490,-0.157
20.495,-0.161
20.500,-0.162
20.505,-0.158
20.510,-0.151
20.515,-0.139
20.520,-0.120
20.525,-0.090
20.530,-0.051
20.535,-0.011
20.540,0.033
20.545,0.078
20.550,0.119
20.555,0.152
20.560,0.181
20.565,0.210
20.570,0.235
20.575,0.250
20.580,0.258
20.585,0.264
20.590,0.266
20.595,0.262
20.600,0.254
20.605,0.250
20.610,0.245
20.615,0.238
20.620,0.229
20.625,0.217
20.630,0.205
20.635,0.195
20.640,0.184
20.645,0.173
20.650,0.162
20.655,0.152
20.660,0.142
20.665,0.130
20.670,0.120
20.675,0.112
20.680,0.103
20.685,0.095
20.690,0.086
20.695,0.078
20.700,0.071
20.705,0.064
20.710,0.058
20.715,0.050
20.720,0.043
20.725,0.039
20.730,0.036
20.735,0.032
20.740,0.028
20.745,0.023
20.750,0.019
20.755,0.016
20.760,0.013
20.765,0.011
20.770,0.010
20.775,0.007
20.780,0.003
20.785,0.001
20.790,0.000
20.795,-0.002
20.800,-0.003
20.805,-0.005
20.810,-0.010
20.815,-0.014
20.820,-0.016
20.825,-0.017
20.830,-0.020
20.835,-0.024
20.840,-0.027
20.845,-0.029
20.850,-0.032
20.855,-0.036
20.860,-0.037
20.865,-0.037
20.870,-0.037
20.875,-0.038
20.880,-0.040
20.885,-0.041
20.890,-0.041
20.895,-0.042
20.900,-0.044
20.905,-0.046
20.910,-0.049
20.915,-0.051
20.920,-0.050
20.925,-0.052
20.930,-0.052
20.935,-0.051
20.940,-0.050
20.945,-0.051
20.950,-0.052
20.955,-0.053
20.960,-0.054
20.965,-0.055
20.970,-0.056
20.975,-0.057
20.980,-0.057
20.985,-0.057
20.990,-0.058
20.995,-0.059
21.000,-0.058
21.005,-0.057
21.010,-0.055
21.015,-0.053
21.020,-0.052
21.025,-0.051
21.030,-0.051
21.035,-0.052
21.040,-0.051
21.045,-0.053
21.050,-0.053
21.055,-0.052
21.060,-0.059
21.065,-0.077
21.070,-0.100
21.075,-0.118
21.080,-0.124
21.085,-0.123
21.090,-0.125
21.095,-0.128
21.100,-0.132
21.105,-0.134
21.110,-0.126
21.115,-0.103
21.120,-0.076
21.125,-0.061
21.130,-0.062
21.135,-0.066
21.140,-0.059
21.145,-0.040
21.150,-0.025
21.155,-0.016
21.160,-0.002
21.165,0.014
21.170,0.029
21.175,0.038
21.180,0.043
21.185,0.046
21.190,0.048
21.195,0.048
21.200,0.048
21.205,0.047
21.210,0.046
21.215,0.044
21.220,0.043
21.225,0.040
21.230,0.036
21.235,0.034
21.240,0.031
21.245,0.030
21.250,0.035
21.255,0.050
21.260,0.063
21.265,0.050
21.270,0.009
21.275,-0.071
21.280,-0.216
21.285,-0.431
21.290,-0.707
21.295,-0.976
21.300,-1.055
21.305,-0.803
21.310,-0.276
21.315,0.239
21.320,0.473
21.325,0.484
21.330,0.402
21.335,0.304
21.340,0.228
21.345,0.150
21.350,0.118
21.355,0.126
21.360,0.121
21.365,0.119
21.370,0.118
21.375,0.106
21.380,0.099
21.385,0.097
21.390,0.090
21.395,0.082
21.400,0.077
21.405,0.073
21.410,0.069
21.415,0.066
21.420,0.062
21.425,0.055
21.430,0.051
21.435,0.048
21.440,0.042
21.445,0.036
21.450,0.032
21.455,0.027
21.460,0.019
21.465,0.014
21.470,0.011
21.475,0.007
21.480,0.004
21.485,-0.002
21.490,-0.009
21.495,-0.015
21.500,-0.021
21.505,-0.029
21.510,-0.037
21.515,-0.045
21.520,-0.053
21.525,-0.061
21.530,-0.073
21.535,-0.085
21.540,-0.097
21.545,-0.109
21.550,-0.120
21.555,-0.130
21.560,-0.140
21.565,-0.146
21.570,-0.152
21.575,-0.157
21.580,-0.161
21.585,-0.163
21.590,-0.162
21.595,-0.159
21.600,-0.150
21.605,-0.131
21.610,-0.105
21.615,-0.071
21.620,-0.034
21.625,0.007
21.630,0.048
21.635,0.091
21.640,0.132
21.645,0.167
21.650,0.196
21.655,0.220
21.660,0.242
21.665,0.257
21.670,0.264
21.675,0.267
21.680,0.264
21.685,0.260
21.690,0.253
21.695,0.245
21.700,0.239
21.705,0.231
21.710,0.221
21.715,0.210
21.720,0.199
21.725,0.189
21.730,0.177
21.735,0.167
21.740,0.159
21.745,0.150
21.750,0.139
21.755,0.128
21.760,0.118
21.765,0.109
21.770,0.102
21.775,0.093
21.780,0.084
21.785,0.075
21.790,0.068
21.795,0.063
21.800,0.058
21.805,0.052
21.810,0.046
21.815,0.039
21.820,0.033
21.825,0.029
21.830,0.025
21.835,0.022
21.840,0.017
21.845,0.013
21.850,0.012
21.855,0.011
21.860,0.009
21.865,0.007
21.870,0.005
21.875,0.001
21.880,-0.001
21.885,-0.002
21.890,-0.002
21.895,-0.006
21.900,-0.010
21.905,-0.013
21.910,-0.015
21.915,-0.019
21.920,-0.022
21.925,-0.025
21.930,-0.027
21.935,-0.029
21.940,-0.030
21.945,-0.033
21.950,-0.036
21.955,-0.038
21.960,-0.038
21.965,-0.037
21.970,-0.038
21.975,-0.040
21.980,-0.041
21.985,-0.042
21.990,-0.046
21.995,-0.050
22.000,-0.050
22.005,-0.048
22.010,-0.047
22.015,-0.049
22.020,-0.051
22.025,-0.052
22.030,-0.054
22.035,-0.055
22.040,-0.054
22.045,-0.053
22.050,-0.053
22.055,-0.053
22.060,-0.052
22.065,-0.055
22.070,-0.056
22.075,-0.056
22.080,-0.056
22.085,-0.055
22.090,-0.055
22.095,-0.054
22.100,-0.052
22.105,-0.050
22.110,-0.049
22.115,-0.050
22.120,-0.051
22.125,-0.051
22.130,-0.050
22.135,-0.051
22.140,-0.052
22.145,-0.051
22.150,-0.056
22.155,-0.070
22.160,-0.094
22.165,-0.115
22.170,-0.122
22.175,-0.121
22.180,-0.120
22.185,-0.124
22.190,-0.131
22.195,-0.133
22.200,-0.127
22.205,-0.110
22.210,-0.084
22.215,-0.063
22.220,-0.059
22.225,-0.062
22.230,-0.059
22.235,-0.045
22.240,-0.028
22.245,-0.017
22.250,-0.004
22.255,0.013
22.260,0.026
22.265,0.035
22.270,0.044
22.275,0.050
22.280,0.054
22.285,0.055
22.290,0.053
22.295,0.052
22.300,0.050
22.305,0.047
22.310,0.045
22.315,0.043
22.320,0.041
22.325,0.038
22.330,0.036
22.335,0.032
22.340,0.029
22.345,0.038
22.350,0.058
22.355,0.061
22.360,0.033
22.365,-0.028
22.370,-0.144
22.375,-0.329
22.380,-0.578
22.385,-0.865
22.390,-1.048
22.395,-0.936
22.400,-0.500
22.405,0.062
22.410,0.421
22.415,0.500
22.420,0.447
22.425,0.348
22.430,0.262
22.435,0.180
22.440,0.121
22.445,0.117
22.450,0.119
22.455,0.115
22.460,0.117
22.465,0.109
22.470,0.100
22.475,0.098
22.480,0.093
22.485,0.083
22.490,0.078
22.495,0.074
22.500,0.069
22.505,0.066
22.510,0.063
22.515,0.057
22.520,0.053
22.525,0.050
22.530,0.044
22.535,0.038
22.540,0.034
22.545,0.028
22.550,0.022
22.555,0.017
22.560,0.014
22.565,0.009
22.570,0.000
22.575,-0.007
22.580,-0.012
22.585,-0.016
22.590,-0.022
22.595,-0.028
22.600,-0.034
22.605,-0.040
22.610,-0.048
22.615,-0.057
22.620,-0.067
22.625,-0.078
22.630,-0.089
22.635,-0.101
22.640,-0.113
22.645,-0.124
22.650,-0.135
22.655,-0.143
22.660,-0.149
22.665,-0.156
22.670,-0.160
22.675,-0.163
22.680,-0.165
22.685,-0.162
22.690,-0.153
22.695,-0.140
22.700,-0.120
22.705,-0.090
22.710,-0.055
22.715,-0.016
22.720,0.026
22.725,0.069
22.730,0.110
22.735,0.147
22.740,0.177
22.745,0.204
22.750,0.228
22.755,0.243
22.760,0.253
22.765,0.258
22.770,0.259
22.775,0.258
22.780,0.252
22.785,0.245
22.790,0.238
22.795,0.230
22.800,0.220
22.805,0.209
22.810,0.198
22.815,0.188
22.820,0.180
22.825,0.171
22.830,0.161
22.835,0.151
22.840,0.141
22.845,0.131
22.850,0.120
22.855,0.110
22.860,0.102
22.865,0.094
22.870,0.086
22.875,0.077
22.880,0.069
22.885,0.063
22.890,0.057
22.895,0.051
22.900,0.045
22.905,0.041
22.910,0.038
22.915,0.032
22.920,0.028
22.925,0.025
22.930,0.023
22.935,0.021
22.940,0.016
22.945,0.012
22.950,0.010
22.955,0.008
22.960,0.005
22.965,0.002
22.970,-0.001
22.975,-0.003
22.980,-0.004
22.985,-0.006
22.990,-0.009
22.995,-0.011
23.000,-0.014
23.005,-0.017
23.010,-0.021
23.015,-0.024
23.020,-0.026
23.025,-0.028
23.030,-0.030
23.035,-0.031
23.040,-0.031
23.045,-0.033
23.050,-0.036
23.055,-0.039
23.060,-0.039
23.065,-0.041
23.070,-0.043
23.075,-0.045
23.080,-0.045
23.085,-0.045
23.090,-0.048
23.095,-0.051
23.100,-0.051
23.105,-0.049
23.110,-0.049
23.115,-0.050
23.120,-0.053
23.125,-0.055
23.130,-0.054
23.135,-0.051
23.140,-0.050
23.145,-0.051
23.150,-0.053
23.155,-0.054
23.160,-0.056
23.165,-0.057
23.170,-0.055
23.175,-0.055
23.180,-0.055
23.185,-0.054
23.190,-0.054
23.195,-0.053
23.200,-0.053
23.205,-0.053
23.210,-0.052
23.215,-0.052
23.220,-0.055
23.225,-0.060
23.230,-0.075
23.235,-0.096
23.240,-0.117
23.245,-0.127
23.250,-0.127
23.255,-0.126
23.260,-0.129
23.265,-0.132
23.270,-0.135
23.275,-0.130
23.280,-0.114
23.285,-0.087
23.290,-0.067
23.295,-0.067
23.300,-0.071
23.305,-0.065
23.310,-0.048
23.315,-0.031
23.320,-0.019
23.325,-0.004
23.330,0.013
23.335,0.023
23.340,0.029
23.345,0.038
23.350,0.043
23.355,0.044
23.360,0.046
23.365,0.048
23.370,0.051
23.375,0.050
23.380,0.046
23.385,0.044
23.390,0.042
23.395,0.037
23.400,0.029
23.405,0.025
23.410,0.025
23.415,0.029
23.420,0.039
23.425,0.053
23.430,0.054
23.435,0.028
23.440,-0.026
23.445,-0.129
23.450,-0.304
23.455,-0.555
23.460,-0.857
23.465,-1.052
23.470,-0.960
23.475,-0.547
23.480,0.029
23.485,0.411
23.490,0.517
23.495,0.488
23.500,0.360
23.505,0.249
23.510,0.185
23.515,0.141
23.520,0.149
23.525,0.145
23.530,0.095
23.535,0.067
23.540,0.101
23.545,0.132
23.550,0.132
23.555,0.131
23.560,0.082
23.565,0.058
23.570,0.074
23.575,0.004
23.580,0.003
23.585,0.087
23.590,0.101
23.595,0.076
23.600,0.022
23.605,-0.035
23.610,-0.021
23.615,0.045
23.620,0.017
23.625,0.006
23.630,0.085
23.635,0.030
23.640,0.020
23.645,0.115
23.650,0.006
23.655,-0.108
23.660,-0.036
23.665,0.022
23.670,0.068
23.675,0.061
23.680,-0.045
23.685,-0.052
23.690,-0.073
23.695,-0.174
23.700,-0.103
23.705,0.014
23.710,-0.023
23.715,-0.063
23.720,-0.087
23.725,-0.142
23.730,-0.242
23.735,-0.302
23.740,-0.167
23.745,-0.076
23.750,-0.117
23.755,-0.166
23.760,-0.222
23.765,-0.219
23.770,-0.185
23.775,-0.111
23.780,-0.065
23.785,-0.136
23.790,-0.097
23.795,0.015
23.800,0.108
23.805,0.202
23.810,0.134
23.815,0.050
23.820,0.113
23.825,0.132
23.830,0.157
23.835,0.302
23.840,0.322
23.845,0.322
23.850,0.317
23.855,0.197
23.860,0.234
23.865,0.305
23.870,0.235
23.875,0.104
23.880,0.074
23.885,0.098
23.890,0.055
23.895,0.145
23.900,0.203
23.905,0.090
23.910,0.064
23.915,0.145
23.920,0.213
23.925,0.197
23.930,0.134
23.935,0.113
23.940,0.098
23.945,0.021
23.950,-0.027
23.955,0.072
23.960,0.128
23.965,0.063
23.970,0.015
23.975,-0.018
23.980,-0.065
23.985,-0.105
23.990,0.052
23.995,0.186
24.000,0.071
24.005,0.042
24.010,0.054
24.015,-0.015
24.020,-0.046
24.025,-0.169
24.030,-0.108
24.035,0.146
24.040,0.179
24.045,0.088
24.050,-0.136
24.055,-0.229
24.060,0.033
24.065,0.155
24.070,-0.025
24.075,-0.041
24.080,0.076
24.085,0.015
24.090,-0.006
24.095,-0.010
24.100,0.019
24.105,0.145
24.110,0.041
24.115,-0.064
24.120,0.023
24.125,-0.125
24.130,-0.326
24.135,-0.089
24.140,0.132
24.145,0.084
24.150,0.121
24.155,-0.010
24.160,-0.100
24.165,-0.005
24.170,-0.157
24.175,-0.235
24.180,0.018
24.185,0.198
24.190,0.094
24.195,-0.029
24.200,-0.050
24.205,0.010
24.210,0.031
24.215,-0.101
24.220,-0.192
24.225,-0.135
24.230,-0.088
24.235,-0.068
24.240,0.075
24.245,0.130
24.250,-0.032
24.255,-0.154
24.260,-0.264
24.265,-0.276
24.270,-0.074
24.275,0.058
24.280,0.020
24.285,-0.106
24.290,-0.178
24.295,-0.109
24.300,-0.052
24.305,-0.095
24.310,-0.116
24.315,-0.108
24.320,-0.057
24.325,0.045
24.330,-0.018
24.335,-0.079
24.340,-0.027
24.345,-0.024
24.350,-0.043
24.355,-0.066
24.360,0.041
24.365,0.182
24.370,0.170
24.375,0.087
24.380,0.057
24.385,0.133
24.390,0.076
24.395,-0.086
24.400,-0.002
24.405,0.154
24.410,0.109
24.415,0.028
24.420,-0.060
24.425,-0.142
24.430,-0.014
24.435,0.137
24.440,0.135
24.445,0.141
24.450,0.142
24.455,0.120
24.460,0.126
24.465,0.056
24.470,-0.121
24.475,-0.291
24.480,-0.489
24.485,-0.801
24.490,-1.044
24.495,-1.011
24.500,-0.637
24.505,-0.073
24.510,0.289
24.515,0.350
24.520,0.378
24.525,0.429
24.530,0.257
24.535,0.023
24.540,0.066
24.545,0.252
24.550,0.323
24.555,0.221
24.560,0.085
24.565,0.102
24.570,0.128
24.575,0.058
24.580,0.086
24.585,0.112
24.590,0.061
24.595,-0.019
24.600,-0.050
24.605,0.110
24.610,0.220
24.615,0.102
24.620,-0.035
24.625,-0.034
24.630,0.035
24.635,0.061
24.640,0.037
24.645,-0.001
24.650,0.039
24.655,0.047
24.660,-0.069
24.665,-0.040
24.670,0.092
24.675,0.101
24.680,0.066
24.685,-0.025
24.690,-0.149
24.695,-0.127
24.700,-0.052
24.705,-0.026
24.710,0.001
24.715,-0.133
24.720,-0.280
24.725,-0.149
24.730,-0.042
24.735,-0.036
24.740,-0.017
24.745,-0.089
24.750,-0.124
24.755,-0.132
24.760,-0.157
24.765,-0.119
24.770,-0.173
24.775,-0.286
24.780,-0.245
24.785,-0.165
24.790,-0.250
24.795,-0.248
24.800,-0.020
24.805,0.074
24.810,0.029
24.815,-0.035
24.820,-0.069
24.825,0.009
24.830,0.077
24.835,0.116
24.840,0.177
24.845,0.219
24.850,0.196
24.855,0.283
24.860,0.362
24.865,0.235
24.870,0.220
24.875,0.301
24.880,0.285
24.885,0.196
24.890,0.100
24.895,0.085
24.900,0.075
24.905,0.154
24.910,0.247
24.915,0.231
24.920,0.264
24.925,0.234
24.930,0.130
24.935,0.073
24.940,0.072
24.945,0.099
24.950,0.124
24.955,0.123
24.960,0.080
24.965,0.069
24.970,0.106
24.975,0.113
24.980,0.090
24.985,0.049
24.990,-0.075
24.995,-0.094
25.000,0.081
25.005,0.145
25.010,0.110
25.015,0.064
25.020,-0.020
25.025,0.009
25.030,0.071
25.035,0.022
25.040,-0.013
25.045,-0.019
25.050,-0.043
25.055,-0.015
25.060,0.029
25.065,0.020
25.070,-0.007
25.075,-0.015
25.080,-0.006
25.085,-0.078
25.090,-0.157
25.095,-0.034
25.100,0.058
25.105,-0.042
25.110,-0.033
25.115,0.046
25.120,0.039
25.125,0.024
25.130,-0.043
25.135,-0.069
25.140,-0.024
25.145,-0.050
25.150,-0.062
25.155,-0.023
25.160,-0.049
25.165,-0.093
25.170,-0.071
25.175,-0.062
25.180,-0.116
25.185,-0.135
25.190,-0.106
25.195,-0.093
25.200,-0.044
25.205,0.032
25.210,0.036
25.215,-0.057
25.220,-0.072
25.225,-0.017
25.230,-0.024
25.235,-0.004
25.240,-0.026
25.245,-0.091
25.250,-0.096
25.255,-0.142
25.260,-0.161
25.265,-0.124
25.270,-0.176
25.275,-0.246
25.280,-0.220
25.285,-0.179
25.290,-0.112
25.295,-0.062
25.300,-0.116
25.305,-0.144
25.310,-0.116
25.315,-0.106
25.320,-0.071
25.325,-0.055
25.330,-0.112
25.335,-0.081
25.340,-0.097
25.345,-0.187
25.350,-0.103
25.355,0.010
25.360,0.062
25.365,0.080
25.370,0.048
25.375,0.064
25.380,0.150
25.385,0.155
25.390,0.123
25.395,0.099
25.400,0.032
25.405,0.011
25.410,0.038
25.415,0.070
25.420,0.049
25.425,0.009
25.430,0.020
25.435,0.035
25.440,0.037
25.445,0.021
25.450,-0.025
25.455,-0.119
25.460,-0.292
25.465,-0.561
25.470,-0.908
25.475,-1.135
25.480,-1.001
25.485,-0.630
25.490,-0.154
25.495,0.305
25.500,0.455
25.505,0.401
25.510,0.365
25.515,0.312
25.520,0.218
25.525,0.133
25.530,0.120
25.535,0.155
25.540,0.179
25.545,0.117
25.550,0.069
25.555,0.140
25.560,0.099
25.565,0.059
25.570,0.098
25.575,0.003
25.580,0.005
25.585,-0.010
25.590,-0.069
25.595,0.086
25.600,0.183
25.605,0.098
25.610,-0.106
25.615,-0.100
25.620,0.207
25.625,0.354
25.630,0.216
25.635,0.015
25.640,0.000
25.645,0.073
25.650,0.033
25.655,-0.052
25.660,-0.083
25.665,-0.016
25.670,0.060
25.675,0.048
25.680,-0.009
25.685,-0.062
25.690,-0.062
25.695,-0.047
25.700,-0.170
25.705,-0.233
25.710,-0.059
25.715,0.014
25.720,-0.031
25.725,-0.089
25.730,-0.168
25.735,-0.145
25.740,-0.113
25.745,-0.133
25.750,-0.148
25.755,-0.137
25.760,-0.163
25.765,-0.183
25.770,-0.176
25.775,-0.240
25.780,-0.202
25.785,-0.086
25.790,-0.057
25.795,-0.050
25.800,-0.017
25.805,0.046
25.810,0.099
25.815,0.123
25.820,0.171
25.825,0.246
25.830,0.270
25.835,0.255
25.840,0.292
25.845,0.294
25.850,0.245
25.855,0.257
25.860,0.270
25.865,0.255
25.870,0.238
25.875,0.213
25.880,0.212
25.885,0.209
25.890,0.185
25.895,0.134
25.900,0.105
25.905,0.187
25.910,0.242
25.915,0.219
25.920,0.174
25.925,0.115
25.930,0.122
25.935,0.121
25.940,0.070
25.945,0.082
25.950,0.115
25.955,0.099
25.960,0.080
25.965,0.070
25.970,0.055
25.975,0.051
25.980,0.048
25.985,0.036
25.990,0.030
25.995,0.033
26.000,0.026
26.005,0.015
26.010,0.010
26.015,0.008
26.020,0.007
26.025,0.005
26.030,0.002
26.035,0.001
26.040,0.001
26.045,0.005
26.050,0.005
26.055,-0.007
26.060,-0.013
26.065,-0.015
26.070,-0.035
26.075,-0.035
26.080,-0.010
26.085,0.002
26.090,-0.001
26.095,-0.021
26.100,-0.040
26.105,-0.042
26.110,-0.048
26.115,-0.037
26.120,-0.022
26.125,-0.038
26.130,-0.068
26.135,-0.068
26.140,-0.033
26.145,-0.040
26.150,-0.052
26.155,-0.031
26.160,-0.038
26.165,-0.047
26.170,-0.058
26.175,-0.069
26.180,-0.058
26.185,-0.078
26.190,-0.112
26.195,-0.083
26.200,-0.051
26.205,-0.057
26.210,-0.095
26.215,-0.151
26.220,-0.096
26.225,0.011
26.230,0.011
26.235,-0.062
26.240,-0.136
26.245,-0.136
26.250,-0.103
26.255,-0.126
26.260,-0.151
26.265,-0.152
26.270,-0.156
26.275,-0.177
26.280,-0.192
26.285,-0.162
26.290,-0.120
26.295,-0.094
26.300,-0.112
26.305,-0.130
26.310,-0.068
26.315,-0.016
26.320,-0.031
26.325,-0.068
26.330,-0.041
26.335,0.034
26.340,0.054
26.345,0.048
26.350,0.043
26.355,0.040
26.360,0.037
26.365,0.019
26.370,0.006
26.375,0.010
26.380,0.023
26.385,0.044
26.390,0.058
26.395,0.015
26.400,-0.014
26.405,-0.011
26.410,-0.030
26.415,0.002
26.420,0.048
26.425,0.056
26.430,0.074
26.435,0.071
26.440,0.022
26.445,-0.036
26.450,-0.148
26.455,-0.359
26.460,-0.620
26.465,-0.921
26.470,-1.073
26.475,-0.870
26.480,-0.392
26.485,0.143
26.490,0.463
26.495,0.512
26.500,0.429
26.505,0.329
26.510,0.255
26.515,0.171
26.520,0.106
26.525,0.100
26.530,0.128
26.535,0.146
26.540,0.143
26.545,0.124
26.550,0.103
26.555,0.106
26.560,0.104
26.565,0.082
26.570,0.077
26.575,0.081
26.580,0.070
26.585,0.063
26.590,0.062
26.595,0.056
26.600,0.054
26.605,0.054
26.610,0.051
26.615,0.047
26.620,0.041
26.625,0.034
26.630,0.029
26.635,0.026
26.640,0.024
26.645,0.019
26.650,0.016
26.655,0.014
26.660,0.005
26.665,-0.006
26.670,-0.014
26.675,-0.024
26.680,-0.032
26.685,-0.035
26.690,-0.040
26.695,-0.051
26.700,-0.065
26.705,-0.078
26.710,-0.087
26.715,-0.098
26.720,-0.113
26.725,-0.124
26.730,-0.132
26.735,-0.141
26.740,-0.148
26.745,-0.153
26.750,-0.159
26.755,-0.163
26.760,-0.163
26.765,-0.158
26.770,-0.143
26.775,-0.121
26.780,-0.097
26.785,-0.062
26.790,-0.022
26.795,0.019
26.800,0.063
26.805,0.105
26.810,0.145
26.815,0.181
26.820,0.211
26.825,0.236
26.830,0.254
26.835,0.266
26.840,0.272
26.845,0.273
26.850,0.266
26.855,0.254
26.860,0.246
26.865,0.242
26.870,0.239
26.875,0.232
26.880,0.220
26.885,0.209
26.890,0.201
26.895,0.190
26.900,0.175
26.905,0.158
26.910,0.148
26.915,0.143
26.920,0.133
26.925,0.121
26.930,0.114
26.935,0.107
26.940,0.097
26.945,0.089
26.950,0.083
26.955,0.078
26.960,0.068
26.965,0.055
26.970,0.048
26.975,0.051
26.980,0.048
26.985,0.036
26.990,0.029
26.995,0.025
27.000,0.029
27.005,0.029
27.010,0.020
27.015,0.016
27.020,0.020
27.025,0.014
27.030,0.003
27.035,0.005
27.040,0.009
27.045,0.010
27.050,0.007
27.055,-0.002
27.060,-0.006
27.065,-0.005
27.070,-0.014
27.075,-0.023
27.080,-0.022
27.085,-0.021
27.090,-0.020
27.095,-0.021
27.100,-0.029
27.105,-0.033
27.110,-0.032
27.115,-0.030
27.120,-0.023
27.125,-0.023
27.130,-0.033
27.135,-0.040
27.140,-0.047
27.145,-0.050
27.150,-0.046
27.155,-0.042
27.160,-0.041
27.165,-0.045
27.170,-0.055
27.175,-0.070
27.180,-0.073
27.185,-0.061
27.190,-0.047
27.195,-0.042
27.200,-0.046
27.205,-0.049
27.210,-0.056
27.215,-0.078
27.220,-0.107
27.225,-0.130
27.230,-0.136
27.235,-0.134
27.240,-0.131
27.245,-0.130
27.250,-0.139
27.255,-0.149
27.260,-0.146
27.265,-0.128
27.270,-0.101
27.275,-0.082
27.280,-0.082
27.285,-0.083
27.290,-0.077
27.295,-0.064
27.300,-0.049
27.305,-0.040
27.310,-0.026
27.315,-0.006
27.320,0.010
27.325,0.019
27.330,0.028
27.335,0.033
27.340,0.033
27.345,0.032
27.350,0.027
27.355,0.027
27.360,0.030
27.365,0.027
27.370,0.024
27.375,0.019
27.380,0.014
27.385,0.009
27.390,0.006
27.395,0.007
27.400,0.008
27.405,0.015
27.410,0.032
27.415,0.040
27.420,0.024
27.425,-0.028
27.430,-0.139
27.435,-0.323
27.440,-0.579
27.445,-0.887
27.450,-1.109
27.455,-1.031
27.460,-0.600
27.465,-0.012
27.470,0.368
27.475,0.444
27.480,0.394
27.485,0.304
27.490,0.229
27.495,0.156
27.500,0.099
27.505,0.105
27.510,0.115
27.515,0.107
27.520,0.103
27.525,0.094
27.530,0.082
27.535,0.081
27.540,0.082
27.545,0.070
27.550,0.063
27.555,0.061
27.560,0.056
27.565,0.049
27.570,0.045
27.575,0.042
27.580,0.039
27.585,0.038
27.590,0.033
27.595,0.025
27.600,0.020
27.605,0.015
27.610,0.010
27.615,0.005
27.620,0.000
27.625,-0.006
27.630,-0.014
27.635,-0.018
27.640,-0.021
27.645,-0.025
27.650,-0.031
27.655,-0.038
27.660,-0.045
27.665,-0.052
27.670,-0.059
27.675,-0.067
27.680,-0.079
27.685,-0.091
27.690,-0.104
27.695,-0.117
27.700,-0.127
27.705,-0.137
27.710,-0.146
27.715,-0.154
27.720,-0.160
27.725,-0.165
27.730,-0.173
27.735,-0.176
27.740,-0.172
27.745,-0.165
27.750,-0.153
27.755,-0.133
27.760,-0.106
27.765,-0.070
27.770,-0.030
27.775,0.013
27.780,0.056
27.785,0.096
27.790,0.136
27.795,0.173
27.800,0.204
27.805,0.227
27.810,0.244
27.815,0.257
27.820,0.264
27.825,0.267
27.830,0.266
27.835,0.262
27.840,0.255
27.845,0.249
27.850,0.244
27.855,0.234
27.860,0.222
27.865,0.213
27.870,0.205
27.875,0.193
27.880,0.179
27.885,0.168
27.890,0.160
27.895,0.149
27.900,0.139
27.905,0.131
27.910,0.123
27.915,0.114
27.920,0.104
27.925,0.095
27.930,0.087
27.935,0.076
27.940,0.069
27.945,0.065
27.950,0.059
27.955,0.055
27.960,0.050
27.965,0.044
27.970,0.038
27.975,0.033
27.980,0.030
27.985,0.027
27.990,0.020
27.995,0.017
28.000,0.019
28.005,0.017
28.010,0.014
28.015,0.012
28.020,0.011
28.025,0.010
28.030,0.006
28.035,0.000
28.040,-0.001
28.045,-0.002
28.050,-0.004
28.055,-0.007
28.060,-0.013
28.065,-0.015
28.070,-0.017
28.075,-0.021
28.080,-0.023
28.085,-0.024
28.090,-0.026
28.095,-0.029
28.100,-0.030
28.105,-0.030
28.110,-0.033
28.115,-0.035
28.120,-0.037
28.125,-0.038
28.130,-0.040
28.135,-0.043
28.140,-0.044
28.145,-0.043
28.150,-0.045
28.155,-0.047
28.160,-0.047
28.165,-0.048
28.170,-0.048
28.175,-0.048
28.180,-0.051
28.185,-0.057
28.190,-0.069
28.195,-0.089
28.200,-0.111
28.205,-0.126
28.210,-0.131
28.215,-0.128
28.220,-0.128
28.225,-0.132
28.230,-0.140
28.235,-0.143
28.240,-0.133
28.245,-0.110
28.250,-0.084
28.255,-0.073
28.260,-0.079
28.265,-0.084
28.270,-0.075
28.275,-0.056
28.280,-0.042
28.285,-0.034
28.290,-0.021
28.295,-0.002
28.300,0.012
28.305,0.020
28.310,0.026
28.315,0.030
28.320,0.032
28.325,0.034
28.330,0.033
28.335,0.032
28.340,0.031
28.345,0.029
28.350,0.028
28.355,0.026
28.360,0.022
28.365,0.019
28.370,0.016
28.375,0.012
28.380,0.009
28.385,0.014
28.390,0.031
28.395,0.039
28.400,0.019
28.405,-0.036
28.410,-0.142
28.415,-0.315
28.420,-0.556
28.425,-0.847
28.430,-1.073
28.435,-1.038
28.440,-0.666
28.445,-0.093
28.450,0.353
28.455,0.489
28.460,0.447
28.465,0.347
28.470,0.262
28.475,0.194
28.480,0.128
28.485,0.112
28.490,0.119
28.495,0.111
28.500,0.110
28.505,0.108
28.510,0.099
28.515,0.093
28.520,0.089
28.525,0.083
28.530,0.079
28.535,0.075
28.540,0.068
28.545,0.063
28.550,0.060
28.555,0.056
28.560,0.050
28.565,0.044
28.570,0.036
28.575,0.030
28.580,0.028
28.585,0.026
28.590,0.020
28.595,0.013
28.600,0.007
28.605,0.004
28.610,-0.001
28.615,-0.006
28.620,-0.011
28.625,-0.017
28.630,-0.024
28.635,-0.032
28.640,-0.040
28.645,-0.047
28.650,-0.055
28.655,-0.063
28.660,-0.075
28.665,-0.088
28.670,-0.098
28.675,-0.109
28.680,-0.119
28.685,-0.128
28.690,-0.139
28.695,-0.149
28.700,-0.157
28.705,-0.164
28.710,-0.169
28.715,-0.171
28.720,-0.170
28.725,-0.167
28.730,-0.158
28.735,-0.140
28.740,-0.114
28.745,-0.080
28.750,-0.039
28.755,0.006
28.760,0.050
28.765,0.091
28.770,0.130
28.775,0.167
28.780,0.199
28.785,0.226
28.790,0.247
28.795,0.259
28.800,0.265
28.805,0.266
28.810,0.265
28.815,0.263
28.820,0.257
28.825,0.249
28.830,0.240
28.835,0.230
28.840,0.220
28.845,0.210
28.850,0.201
28.855,0.189
28.860,0.178
28.865,0.170
28.870,0.161
28.875,0.152
28.880,0.142
28.885,0.132
28.890,0.125
28.895,0.117
28.900,0.108
28.905,0.100
28.910,0.091
28.915,0.083
28.920,0.075
28.925,0.067
28.930,0.060
28.935,0.053
28.940,0.046
28.945,0.040
28.950,0.037
28.955,0.035
28.960,0.030
28.965,0.026
28.970,0.023
28.975,0.020
28.980,0.017
28.985,0.015
28.990,0.013
28.995,0.012
29.000,0.008
29.005,0.004
29.010,-0.002
29.015,-0.006
29.020,-0.007
29.025,-0.008
29.030,-0.010
29.035,-0.013
29.040,-0.017
29.045,-0.020
29.050,-0.022
29.055,-0.025
29.060,-0.027
29.065,-0.028
29.070,-0.030
29.075,-0.031
29.080,-0.033
29.085,-0.036
29.090,-0.037
29.095,-0.039
29.100,-0.041
29.105,-0.043
29.110,-0.046
29.115,-0.044
29.120,-0.044
29.125,-0.046
29.130,-0.048
29.135,-0.049
29.140,-0.050
29.145,-0.050
29.150,-0.052
29.155,-0.053
29.160,-0.055
29.165,-0.057
29.170,-0.055
29.175,-0.053
29.180,-0.053
29.185,-0.051
29.190,-0.051
29.195,-0.051
29.200,-0.049
29.205,-0.050
29.210,-0.052
29.215,-0.059
29.220,-0.071
29.225,-0.089
29.230,-0.111
29.235,-0.125
29.240,-0.128
29.245,-0.126
29.250,-0.127
29.255,-0.132
29.260,-0.138
29.265,-0.139
29.270,-0.128
29.275,-0.104
29.280,-0.080
29.285,-0.071
29.290,-0.075
29.295,-0.074
29.300,-0.061
29.305,-0.044
29.310,-0.033
29.315,-0.024
29.320,-0.008
29.325,0.009
29.330,0.020
29.335,0.028
29.340,0.035
29.345,0.038
29.350,0.038
29.355,0.036
29.360,0.036
29.365,0.036
29.370,0.035
29.375,0.033
29.380,0.032
29.385,0.029
29.390,0.023
29.395,0.019
29.400,0.018
29.405,0.015
29.410,0.011
29.415,0.015
29.420,0.031
29.425,0.043
29.430,0.027
29.435,-0.022
29.440,-0.117
29.445,-0.276
29.450,-0.505
29.455,-0.787
29.460,-1.027
29.465,-1.031
29.470,-0.701
29.475,-0.150
29.480,0.316
29.485,0.488
29.490,0.468
29.495,0.375
29.500,0.279
29.505,0.204
29.510,0.132
29.515,0.109
29.520,0.116
29.525,0.111
29.530,0.110
29.535,0.108
29.540,0.098
29.545,0.093
29.550,0.090
29.555,0.080
29.560,0.074
29.565,0.074
29.570,0.069
29.575,0.062
29.580,0.059
29.585,0.055
29.590,0.049
29.595,0.045
29.600,0.042
29.605,0.039
29.610,0.035
29.615,0.031
29.620,0.026
29.625,0.021
29.630,0.016
29.635,0.013
29.640,0.009
29.645,0.001
29.650,-0.007
29.655,-0.012
29.660,-0.018
29.665,-0.025
29.670,-0.032
29.675,-0.039
29.680,-0.047
29.685,-0.055
29.690,-0.065
29.695,-0.076
29.700,-0.088
29.705,-0.101
29.710,-0.113
29.715,-0.124
29.720,-0.135
29.725,-0.146
29.730,-0.155
29.735,-0.161
29.740,-0.164
29.745,-0.165
29.750,-0.165
29.755,-0.163
29.760,-0.156
29.765,-0.141
29.770,-0.119
29.775,-0.088
29.780,-0.051
29.785,-0.008
29.790,0.036
29.795,0.077
29.800,0.115
29.805,0.152
29.810,0.185
29.815,0.213
29.820,0.234
29.825,0.249
29.830,0.260
29.835,0.263
29.840,0.264
29.845,0.262
29.850,0.257
29.855,0.250
29.860,0.240
29.865,0.230
29.870,0.222
29.875,0.212
29.880,0.202
29.885,0.191
29.890,0.180
29.895,0.171
29.900,0.162
29.905,0.152
29.910,0.142
29.915,0.133
29.920,0.125
29.925,0.115
29.930,0.105
29.935,0.095
29.940,0.089
29.945,0.084
29.950,0.077
29.955,0.069
29.960,0.061
29.965,0.055
29.970,0.050
29.975,0.044
29.980,0.038
29.985,0.032
29.990,0.029
29.995,0.025
30.000,0.022
30.005,0.021
30.010,0.020
30.015,0.018
30.020,0.015
30.025,0.013
30.030,0.010
30.035,0.008
30.040,0.005
30.045,0.002
30.050,-0.001
30.055,-0.004
30.060,-0.007
30.065,-0.009
30.070,-0.012
30.075,-0.016
30.080,-0.018
30.085,-0.019
30.090,-0.021
30.095,-0.024
30.100,-0.028
30.105,-0.032
30.110,-0.034
30.115,-0.035
30.120,-0.035
30.125,-0.036
30.130,-0.037
30.135,-0.039
30.140,-0.042
30.145,-0.044
30.150,-0.045
30.155,-0.046
30.160,-0.047
30.165,-0.047
30.170,-0.049
30.175,-0.051
30.180,-0.053
30.185,-0.054
30.190,-0.053
30.195,-0.053
30.200,-0.055
30.205,-0.057
30.210,-0.058
30.215,-0.058
30.220,-0.056
30.225,-0.056
30.230,-0.056
30.235,-0.056
30.240,-0.056
30.245,-0.057
30.250,-0.057
30.255,-0.057
30.260,-0.057
30.265,-0.057
30.270,-0.058
30.275,-0.057
30.280,-0.056
30.285,-0.055
30.290,-0.055
30.295,-0.056
30.300,-0.056
30.305,-0.055
30.310,-0.055
30.315,-0.054
30.320,-0.053
30.325,-0.051
30.330,-0.050
30.335,-0.056
30.340,-0.072
30.345,-0.094
30.350,-0.111
30.355,-0.115
30.360,-0.114
30.365,-0.115
30.370,-0.120
30.375,-0.127
30.380,-0.127
30.385,-0.117
30.390,-0.095
30.395,-0.067
30.400,-0.052
30.405,-0.052
30.410,-0.056
30.415,-0.050
30.420,-0.031
30.425,-0.013
30.430,-0.003
30.435,0.010
30.440,0.025
30.445,0.037
30.450,0.047
30.455,0.054
30.460,0.061
30.465,0.063
30.470,0.061
30.475,0.061
30.480,0.061
30.485,0.059
30.490,0.056
30.495,0.053
30.500,0.051
30.505,0.047
30.510,0.043
30.515,0.041
30.520,0.039
30.525,0.037
30.530,0.043
30.535,0.059
30.540,0.065
30.545,0.042
30.550,-0.014
30.555,-0.119
30.560,-0.289
30.565,-0.522
30.570,-0.802
30.575,-1.018
30.580,-0.968
30.585,-0.586
30.590,-0.029
30.595,0.383
30.600,0.504
30.605,0.463
30.610,0.364
30.615,0.271
30.620,0.191
30.625,0.126
30.630,0.114
30.635,0.119
30.640,0.115
30.645,0.114
30.650,0.106
30.655,0.093
30.660,0.089
30.665,0.086
30.670,0.077
30.675,0.072
30.680,0.069
30.685,0.064
30.690,0.060
30.695,0.057
30.700,0.051
30.705,0.045
30.710,0.042
30.715,0.039
30.720,0.033
30.725,0.028
30.730,0.023
30.735,0.019
30.740,0.014
30.745,0.009
30.750,0.004
30.755,-0.002
30.760,-0.007
30.765,-0.012
30.770,-0.017
30.775,-0.024
30.780,-0.030
30.785,-0.038
30.790,-0.045
30.795,-0.053
30.800,-0.062
30.805,-0.071
30.810,-0.081
30.815,-0.092
30.820,-0.103
30.825,-0.113
30.830,-0.123
30.835,-0.132
30.840,-0.142
30.845,-0.150
30.850,-0.157
30.855,-0.161
30.860,-0.163
30.865,-0.165
30.870,-0.164
30.875,-0.159
30.880,-0.148
30.885,-0.129
30.890,-0.101
30.895,-0.065
30.900,-0.026
30.905,0.016
30.910,0.057
30.915,0.096
30.920,0.133
30.925,0.165
30.930,0.192
30.935,0.215
30.940,0.231
30.945,0.243
30.950,0.250
30.955,0.252
30.960,0.252
30.965,0.249
30.970,0.244
30.975,0.236
30.980,0.227
30.985,0.219
30.990,0.211
30.995,0.201
31.000,0.190
31.005,0.180
31.010,0.170
31.015,0.161
31.020,0.150
31.025,0.140
31.030,0.132
31.035,0.124
31.040,0.115
31.045,0.107
31.050,0.099
31.055,0.090
31.060,0.083
31.065,0.076
31.070,0.068
31.075,0.060
31.080,0.054
31.085,0.051
31.090,0.046
31.095,0.040
31.100,0.036
31.105,0.032
31.110,0.029
31.115,0.026
31.120,0.024
31.125,0.022
31.130,0.020
31.135,0.018
31.140,0.014
31.145,0.011
31.150,0.008
31.155,0.005
31.160,0.003
31.165,0.001
31.170,-0.001
31.175,-0.004
31.180,-0.008
31.185,-0.010
31.190,-0.012
31.195,-0.014
31.200,-0.016
31.205,-0.017
31.210,-0.019
31.215,-0.021
31.220,-0.024
31.225,-0.028
31.230,-0.030
31.235,-0.030
31.240,-0.031
31.245,-0.034
31.250,-0.036
31.255,-0.038
31.260,-0.041
31.265,-0.043
31.270,-0.044
31.275,-0.046
31.280,-0.046
31.285,-0.046
31.290,-0.047
31.295,-0.047
31.300,-0.048
31.305,-0.049
31.310,-0.049
31.315,-0.051
31.320,-0.052
31.325,-0.052
31.330,-0.053
31.335,-0.054
31.340,-0.054
31.345,-0.054
31.350,-0.054
31.355,-0.055
31.360,-0.056
31.365,-0.056
31.370,-0.056
31.375,-0.056
31.380,-0.057
31.385,-0.056
31.390,-0.054
31.395,-0.055
31.400,-0.056
31.405,-0.055
31.410,-0.054
31.415,-0.053
31.420,-0.053
31.425,-0.052
31.430,-0.050
31.435,-0.049
31.440,-0.049
31.445,-0.049
31.450,-0.047
31.455,-0.047
31.460,-0.046
31.465,-0.046
31.470,-0.045
31.475,-0.043
31.480,-0.042
31.485,-0.041
31.490,-0.040
31.495,-0.039
31.500,-0.037
31.505,-0.040
31.510,-0.043
31.515,-0.051
31.520,-0.069
31.525,-0.093
31.530,-0.109
31.535,-0.111
31.540,-0.104
31.545,-0.103
31.550,-0.110
31.555,-0.116
31.560,-0.113
31.565,-0.100
31.570,-0.079
31.575,-0.056
31.580,-0.042
31.585,-0.041
31.590,-0.046
31.595,-0.044
31.600,-0.030
31.605,-0.015
31.610,-0.003
31.615,0.011
31.620,0.028
31.625,0.040
31.630,0.048
31.635,0.057
31.640,0.061
31.645,0.060
31.650,0.058
31.655,0.056
31.660,0.055
31.665,0.052
31.670,0.049
31.675,0.050
31.680,0.050
31.685,0.047
31.690,0.044
31.695,0.041
31.700,0.037
31.705,0.038
31.710,0.054
31.715,0.069
31.720,0.058
31.725,0.015
31.730,-0.066
31.735,-0.210
31.740,-0.420
31.745,-0.687
31.750,-0.945
31.755,-1.006
31.760,-0.737
31.765,-0.217
31.770,0.274
31.775,0.488
31.780,0.490
31.785,0.405
31.790,0.304
31.795,0.222
31.800,0.146
31.805,0.117
31.810,0.126
31.815,0.123
31.820,0.122
31.825,0.119
31.830,0.107
31.835,0.101
31.840,0.098
31.845,0.089
31.850,0.084
31.855,0.083
31.860,0.078
31.865,0.071
31.870,0.068
31.875,0.063
31.880,0.059
31.885,0.055
31.890,0.051
31.895,0.045
31.900,0.041
31.905,0.038
31.910,0.034
31.915,0.028
31.920,0.021
31.925,0.015
31.930,0.010
31.935,0.004
31.940,0.000
31.945,-0.005
31.950,-0.010
31.955,-0.016
31.960,-0.023
31.965,-0.030
31.970,-0.037
31.975,-0.044
31.980,-0.054
31.985,-0.064
31.990,-0.076
31.995,-0.089
32.000,-0.101
32.005,-0.110
32.010,-0.119
32.015,-0.128
32.020,-0.137
32.025,-0.144
32.030,-0.150
32.035,-0.155
32.040,-0.158
32.045,-0.159
32.050,-0.154
32.055,-0.145
32.060,-0.131
32.065,-0.109
32.070,-0.079
32.075,-0.043
32.080,-0.005
32.085,0.034
32.090,0.074
32.095,0.112
32.100,0.146
32.105,0.175
32.110,0.198
32.115,0.217
32.120,0.233
32.125,0.243
32.130,0.249
32.135,0.250
32.140,0.246
32.145,0.243
32.150,0.239
32.155,0.233
32.160,0.225
32.165,0.216
32.170,0.204
32.175,0.191
32.180,0.179
32.185,0.168
32.190,0.158
32.195,0.149
32.200,0.142
32.205,0.134
32.210,0.127
32.215,0.116
32.220,0.107
32.225,0.100
32.230,0.093
32.235,0.084
32.240,0.076
32.245,0.067
32.250,0.060
32.255,0.055
32.260,0.049
32.265,0.045
32.270,0.040
32.275,0.036
32.280,0.033
32.285,0.029
32.290,0.024
32.295,0.018
32.300,0.013
32.305,0.013
32.310,0.013
32.315,0.012
32.320,0.012
32.325,0.011
32.330,0.007
32.335,0.004
32.340,0.003
32.345,0.000
32.350,-0.003
32.355,-0.006
32.360,-0.010
32.365,-0.013
32.370,-0.017
32.375,-0.020
32.380,-0.021
32.385,-0.024
32.390,-0.027
32.395,-0.030
32.400,-0.029
32.405,-0.029
32.410,-0.030
32.415,-0.033
32.420,-0.037
32.425,-0.039
32.430,-0.039
32.435,-0.039
32.440,-0.040
32.445,-0.042
32.450,-0.046
32.455,-0.050
32.460,-0.050
32.465,-0.049
32.470,-0.048
32.475,-0.048
32.480,-0.049
32.485,-0.052
32.490,-0.054
32.495,-0.055
32.500,-0.052
32.505,-0.049
32.510,-0.050
32.515,-0.052
32.520,-0.055
32.525,-0.055
32.530,-0.054
32.535,-0.055
32.540,-0.055
32.545,-0.052
32.550,-0.050
32.555,-0.051
32.560,-0.052
32.565,-0.052
32.570,-0.052
32.575,-0.051
32.580,-0.049
32.585,-0.050
32.590,-0.050
32.595,-0.048
32.600,-0.045
32.605,-0.044
32.610,-0.047
32.615,-0.048
32.620,-0.045
32.625,-0.043
32.630,-0.042
32.635,-0.040
32.640,-0.041
32.645,-0.041
32.650,-0.041
32.655,-0.039
32.660,-0.040
32.665,-0.045
32.670,-0.055
32.675,-0.073
32.680,-0.095
32.685,-0.108
32.690,-0.111
32.695,-0.110
32.700,-0.110
32.705,-0.114
32.710,-0.117
32.715,-0.114
32.720,-0.104
32.725,-0.085
32.730,-0.063
32.735,-0.049
32.740,-0.047
32.745,-0.049
32.750,-0.043
32.755,-0.029
32.760,-0.015
32.765,-0.002
32.770,0.012
32.775,0.026
32.780,0.039
32.785,0.052
32.790,0.061
32.795,0.062
32.800,0.058
32.805,0.056
32.810,0.056
32.815,0.053
32.820,0.048
32.825,0.046
32.830,0.048
32.835,0.048
32.840,0.045
32.845,0.042
32.850,0.039
32.855,0.034
32.860,0.039
32.865,0.058
32.870,0.071
32.875,0.058
32.880,0.017
32.885,-0.074
32.890,-0.237
32.895,-0.466
32.900,-0.744
32.905,-0.983
32.910,-0.987
32.915,-0.662
32.920,-0.121
32.925,0.328
32.930,0.487
32.935,0.470
32.940,0.385
32.945,0.289
32.950,0.199
32.955,0.123
32.960,0.110
32.965,0.123
32.970,0.119
32.975,0.116
32.980,0.112
32.985,0.101
32.990,0.094
32.995,0.090
33.000,0.080
33.005,0.077
33.010,0.077
33.015,0.071
33.020,0.064
33.025,0.059
33.030,0.054
33.035,0.051
33.040,0.048
33.045,0.045
33.050,0.041
33.055,0.034
33.060,0.025
33.065,0.017
33.070,0.012
33.075,0.010
33.080,0.008
33.085,0.001
33.090,-0.005
33.095,-0.008
33.100,-0.008
33.105,-0.010
33.110,-0.017
33.115,-0.029
33.120,-0.043
33.125,-0.053
33.130,-0.058
33.135,-0.065
33.140,-0.075
33.145,-0.087
33.150,-0.098
33.155,-0.106
33.160,-0.113
33.165,-0.127
33.170,-0.140
33.175,-0.145
33.180,-0.145
33.185,-0.146
33.190,-0.151
33.195,-0.154
33.200,-0.153
33.205,-0.155
33.210,-0.150
33.215,-0.132
33.220,-0.105
33.225,-0.077
33.230,-0.044
33.235,-0.003
33.240,0.041
33.245,0.083
33.250,0.123
33.255,0.158
33.260,0.188
33.265,0.211
33.270,0.229
33.275,0.241
33.280,0.248
33.285,0.251
33.290,0.253
33.295,0.253
33.300,0.247
33.305,0.241
33.310,0.233
33.315,0.223
33.320,0.213
33.325,0.204
33.330,0.191
33.335,0.175
33.340,0.166
33.345,0.164
33.350,0.160
33.355,0.150
33.360,0.135
33.365,0.123
33.370,0.113
33.375,0.103
33.380,0.092
33.385,0.086
33.390,0.083
33.395,0.080
33.400,0.073
33.405,0.064
33.410,0.057
33.415,0.049
33.420,0.038
33.425,0.033
33.430,0.031
33.435,0.028
33.440,0.028
33.445,0.028
33.450,0.028
33.455,0.025
33.460,0.017
33.465,0.011
33.470,0.009
33.475,0.004
33.480,0.005
33.485,0.006
33.490,0.004
33.495,0.002
33.500,-0.003
33.505,-0.010
33.510,-0.012
33.515,-0.010
33.520,-0.009
33.525,-0.011
33.530,-0.018
33.535,-0.020
33.540,-0.019
33.545,-0.022
33.550,-0.024
33.555,-0.030
33.560,-0.037
33.565,-0.037
33.570,-0.032
33.575,-0.029
33.580,-0.037
33.585,-0.045
33.590,-0.046
33.595,-0.045
33.600,-0.045
33.605,-0.044
33.610,-0.039
33.615,-0.037
33.620,-0.044
33.625,-0.055
33.630,-0.058
33.635,-0.053
33.640,-0.050
33.645,-0.055
33.650,-0.058
33.655,-0.052
33.660,-0.044
33.665,-0.043
33.670,-0.049
33.675,-0.054
33.680,-0.052
33.685,-0.048
33.690,-0.051
33.695,-0.056
33.700,-0.054
33.705,-0.050
33.710,-0.049
33.715,-0.051
33.720,-0.054
33.725,-0.053
33.730,-0.050
33.735,-0.050
33.740,-0.048
33.745,-0.054
33.750,-0.072
33.755,-0.094
33.760,-0.114
33.765,-0.119
33.770,-0.112
33.775,-0.116
33.780,-0.128
33.785,-0.136
33.790,-0.137
33.795,-0.125
33.800,-0.106
33.805,-0.087
33.810,-0.068
33.815,-0.062
33.820,-0.069
33.825,-0.068
33.830,-0.054
33.835,-0.038
33.840,-0.025
33.845,-0.010
33.850,0.006
33.855,0.021
33.860,0.032
33.865,0.041
33.870,0.050
33.875,0.054
33.880,0.051
33.885,0.047
33.890,0.045
33.895,0.046
33.900,0.045
33.905,0.046
33.910,0.042
33.915,0.035
33.920,0.030
33.925,0.022
33.930,0.016
33.935,0.025
33.940,0.053
33.945,0.081
33.950,0.071
33.955,0.025
33.960,-0.057
33.965,-0.198
33.970,-0.413
33.975,-0.699
33.980,-0.994
33.985,-1.098
33.990,-0.838
33.995,-0.286
34.000,0.235
34.005,0.449
34.010,0.450
34.015,0.377
34.020,0.285
34.025,0.207
34.030,0.134
34.035,0.115
34.040,0.127
34.045,0.118
34.050,0.119
34.055,0.127
34.060,0.115
34.065,0.101
34.070,0.098
34.075,0.091
34.080,0.082
34.085,0.080
34.090,0.077
34.095,0.071
34.100,0.069
34.105,0.064
34.110,0.055
34.115,0.047
34.120,0.042
34.125,0.036
34.130,0.028
34.135,0.025
34.140,0.026
34.145,0.022
34.150,0.017
34.155,0.010
34.160,0.002
34.165,-0.003
34.170,-0.010
34.175,-0.017
34.180,-0.023
34.185,-0.029
34.190,-0.035
34.195,-0.040
34.200,-0.046
34.205,-0.055
34.210,-0.069
34.215,-0.080
34.220,-0.089
34.225,-0.100
34.230,-0.112
34.235,-0.124
34.240,-0.135
34.245,-0.145
34.250,-0.154
34.255,-0.163
34.260,-0.167
34.265,-0.168
34.270,-0.170
34.275,-0.169
34.280,-0.165
34.285,-0.157
34.290,-0.141
34.295,-0.115
34.300,-0.078
34.305,-0.034
34.310,0.011
34.315,0.055
34.320,0.097
34.325,0.136
34.330,0.173
34.335,0.203
34.340,0.225
34.345,0.243
34.350,0.255
34.355,0.267
34.360,0.275
34.365,0.271
34.370,0.265
34.375,0.265
34.380,0.267
34.385,0.254
34.390,0.221
34.395,0.205
34.400,0.210
34.405,0.218
34.410,0.213
34.415,0.169
34.420,0.160
34.425,0.155
34.430,0.062
34.435,0.065
34.440,0.205
34.445,0.275
34.450,0.216
34.455,0.084
34.460,0.071
34.465,0.173
34.470,0.185
34.475,0.115
34.480,0.036
34.485,0.038
34.490,0.076
34.495,0.059
34.500,0.082
34.505,0.082
34.510,0.004
34.515,-0.038
34.520,-0.029
34.525,-0.028
34.530,-0.008
34.535,0.012
34.540,0.016
34.545,0.046
34.550,-0.019
34.555,-0.076
34.560,-0.057
34.565,-0.072
34.570,-0.041
34.575,0.051
34.580,0.120
34.585,0.077
34.590,-0.015
34.595,-0.012
34.600,0.029
34.605,-0.006
34.610,-0.041
34.615,-0.047
34.620,-0.050
34.625,-0.011
34.630,-0.035
34.635,-0.036
34.640,0.025
34.645,-0.012
34.650,-0.067
34.655,-0.151
34.660,-0.258
34.665,-0.168
34.670,0.025
34.675,0.051
34.680,-0.064
34.685,-0.101
34.690,-0.019
34.695,0.014
34.700,-0.009
34.705,-0.041
34.710,-0.080
34.715,-0.118
34.720,-0.163
34.725,-0.163
34.730,-0.071
34.735,0.021
34.740,-0.020
34.745,-0.029
34.750,-0.023
34.755,-0.181
34.760,-0.205
34.765,-0.098
34.770,-0.046
34.775,0.014
34.780,-0.086
34.785,-0.162
34.790,-0.073
34.795,-0.108
34.800,-0.177
34.805,-0.146
34.810,-0.107
34.815,-0.124
34.820,-0.184
34.825,-0.188
34.830,-0.083
34.835,0.002
34.840,-0.076
34.845,-0.190
34.850,-0.203
34.855,-0.163
34.860,-0.124
34.865,-0.117
34.870,-0.098
34.875,0.007
34.880,0.118
34.885,0.143
34.890,0.065
34.895,-0.020
34.900,0.003
34.905,0.024
34.910,0.083
34.915,0.148
34.920,0.099
34.925,0.006
34.930,-0.113
34.935,-0.101
34.940,-0.001
34.945,0.017
34.950,0.046
34.955,0.027
34.960,0.046
34.965,0.175
34.970,0.156
34.975,0.067
34.980,-0.001
34.985,-0.049
34.990,-0.047
34.995,-0.190
35.000,-0.322
35.005,-0.322
35.010,-0.494
35.015,-0.878
35.020,-1.086
35.025,-0.785
35.030,-0.209
35.035,0.221
35.040,0.408
35.045,0.380
35.050,0.263
35.055,0.296
35.060,0.353
35.065,0.291
35.070,0.195
35.075,0.102
35.080,0.122
35.085,0.138
35.090,0.086
35.095,0.078
35.100,0.120
35.105,0.151
35.110,0.125
35.115,0.112
35.120,0.104
35.125,0.058
35.130,0.052
35.135,0.056
35.140,0.027
35.145,0.055
35.150,0.041
35.155,0.051
35.160,0.168
35.165,0.144
35.170,0.053
35.175,0.015
35.180,0.023
35.185,0.035
35.190,-0.016
35.195,0.017
35.200,-0.004
35.205,-0.051
35.210,0.044
35.215,0.005
35.220,-0.049
35.225,0.005
35.230,-0.009
35.235,0.041
35.240,0.074
35.245,-0.018
35.250,-0.047
35.255,-0.126
35.260,-0.247
35.265,-0.133
35.270,-0.022
35.275,-0.064
35.280,-0.124
35.285,-0.268
35.290,-0.236
35.295,-0.060
35.300,-0.052
35.305,-0.122
35.310,-0.232
35.315,-0.237
35.320,-0.166
35.325,-0.121
35.330,-0.060
35.335,-0.090
35.340,-0.062
35.345,0.056
35.350,0.133
35.355,0.189
35.360,0.156
35.365,0.157
35.370,0.239
35.375,0.206
35.380,0.179
35.385,0.239
35.390,0.246
35.395,0.182
35.400,0.187
35.405,0.250
35.410,0.250
35.415,0.277
35.420,0.328
35.425,0.314
35.430,0.229
35.435,0.078
35.440,0.039
35.445,0.146
35.450,0.247
35.455,0.305
35.460,0.197
35.465,0.076
35.470,0.120
35.475,0.107
35.480,0.046
35.485,0.043
35.490,0.077
35.495,0.185
35.500,0.172
35.505,0.005
35.510,0.019
35.515,0.129
35.520,0.139
35.525,0.128
35.530,0.070
35.535,-0.002
35.540,-0.056
35.545,-0.052
35.550,0.005
35.555,0.011
35.560,0.027
35.565,-0.026
35.570,-0.093
35.575,-0.013
35.580,0.085
35.585,0.127
35.590,0.080
35.595,-0.020
35.600,-0.028
35.605,0.005
35.610,-0.024
35.615,-0.067
35.620,-0.046
35.625,-0.040
35.630,-0.057
35.635,-0.010
35.640,0.003
35.645,-0.018
35.650,-0.066
35.655,-0.081
35.660,0.009
35.665,0.036
35.670,-0.001
35.675,-0.033
35.680,-0.055
35.685,-0.038
35.690,-0.035
35.695,-0.069
35.700,-0.092
35.705,-0.048
35.710,-0.001
35.715,-0.019
35.720,-0.075
35.725,-0.123
35.730,-0.086
35.735,-0.002
35.740,-0.013
35.745,-0.088
35.750,-0.096
35.755,-0.071
35.760,-0.041
35.765,0.011
35.770,0.022
35.775,-0.002
35.780,-0.031
35.785,-0.093
35.790,-0.130
35.795,-0.131
35.800,-0.122
35.805,-0.162
35.810,-0.243
35.815,-0.223
35.820,-0.159
35.825,-0.049
35.830,0.019
35.835,-0.078
35.840,-0.118
35.845,-0.077
35.850,-0.065
35.855,-0.063
35.860,-0.077
35.865,-0.094
35.870,-0.070
35.875,-0.052
35.880,-0.071
35.885,-0.055
35.890,-0.022
35.895,-0.016
35.900,0.002
35.905,0.023
35.910,0.016
35.915,-0.015
35.920,-0.001
35.925,0.046
35.930,0.036
35.935,-0.006
35.940,-0.068
35.945,-0.033
35.950,0.077
35.955,0.065
35.960,-0.027
35.965,-0.056
35.970,-0.020
35.975,-0.010
35.980,-0.032
35.985,0.000
35.990,0.062
35.995,0.013
36.000,-0.027
36.005,-0.070
36.010,-0.252
36.015,-0.508
36.020,-0.838
36.025,-1.053
36.030,-0.954
36.035,-0.581
36.040,-0.033
36.045,0.374
36.050,0.462
36.055,0.403
36.060,0.310
36.065,0.223
36.070,0.150
36.075,0.102
36.080,0.096
36.085,0.086
36.090,0.078
36.095,0.083
36.100,0.073
36.105,0.073
36.110,0.075
36.115,0.053
36.120,0.023
36.125,0.006
36.130,0.032
36.135,0.074
36.140,0.077
36.145,0.070
36.150,0.062
36.155,0.052
36.160,0.051
36.165,0.037
36.170,0.016
36.175,0.009
36.180,0.007
36.185,0.003
36.190,-0.004
36.195,-0.008
36.200,-0.021
36.205,-0.022
36.210,-0.004
36.215,-0.005
36.220,-0.018
36.225,-0.029
36.230,-0.045
36.235,-0.106
36.240,-0.135
36.245,-0.045
36.250,0.002
36.255,-0.040
36.260,-0.069
36.265,-0.096
36.270,-0.096
36.275,-0.097
36.280,-0.139
36.285,-0.148
36.290,-0.150
36.295,-0.181
36.300,-0.168
36.305,-0.146
36.310,-0.175
36.315,-0.193
36.320,-0.163
36.325,-0.139
36.330,-0.128
36.335,-0.102
36.340,-0.096
36.345,-0.076
36.350,0.006
36.355,0.062
36.360,0.084
36.365,0.132
36.370,0.172
36.375,0.216
36.380,0.232
36.385,0.228
36.390,0.274
36.395,0.294
36.400,0.268
36.405,0.263
36.410,0.275
36.415,0.265
36.420,0.244
36.425,0.246
36.430,0.254
36.435,0.240
36.440,0.210
36.445,0.197
36.450,0.209
36.455,0.197
36.460,0.177
36.465,0.157
36.470,0.134
36.475,0.151
36.480,0.161
36.485,0.145
36.490,0.135
36.495,0.118
36.500,0.110
36.505,0.106
36.510,0.095
36.515,0.093
36.520,0.089
36.525,0.077
36.530,0.068
36.535,0.071
36.540,0.073
36.545,0.065
36.550,0.059
36.555,0.056
36.560,0.052
36.565,0.050
36.570,0.045
36.575,0.040
36.580,0.042
36.585,0.037
36.590,0.025
36.595,0.022
36.600,0.023
36.605,0.025
36.610,0.025
36.615,0.019
36.620,0.012
36.625,0.010
36.630,0.006
36.635,0.002
36.640,-0.001
36.645,-0.007
36.650,-0.008
36.655,-0.007
36.660,-0.011
36.665,-0.015
36.670,-0.017
36.675,-0.020
36.680,-0.022
36.685,-0.023
36.690,-0.026
36.695,-0.029
36.700,-0.033
36.705,-0.037
36.710,-0.040
36.715,-0.041
36.720,-0.041
36.725,-0.043
36.730,-0.044
36.735,-0.045
36.740,-0.045
36.745,-0.045
36.750,-0.045
36.755,-0.045
36.760,-0.043
36.765,-0.042
36.770,-0.044
36.775,-0.046
36.780,-0.048
36.785,-0.052
36.790,-0.054
36.795,-0.054
36.800,-0.059
36.805,-0.073
36.810,-0.097
36.815,-0.120
36.820,-0.132
36.825,-0.133
36.830,-0.131
36.835,-0.136
36.840,-0.145
36.845,-0.151
36.850,-0.146
36.855,-0.128
36.860,-0.099
36.865,-0.073
36.870,-0.069
36.875,-0.078
36.880,-0.078
36.885,-0.062
36.890,-0.043
36.895,-0.031
36.900,-0.019
36.905,-0.002
36.910,0.010
36.915,0.012
36.920,0.022
36.925,0.034
36.930,0.037
36.935,0.035
36.940,0.030
36.945,0.026
36.950,0.025
36.955,0.024
36.960,0.025
36.965,0.023
36.970,0.020
36.975,0.019
36.980,0.018
36.985,0.015
36.990,0.013
36.995,0.022
37.000,0.041
37.005,0.044
37.010,0.020
37.015,-0.036
37.020,-0.151
37.025,-0.333
37.030,-0.572
37.035,-0.848
37.040,-1.042
37.045,-0.960
37.050,-0.546
37.055,0.020
37.060,0.397
37.065,0.486
37.070,0.440
37.075,0.339
37.080,0.246
37.085,0.160
37.090,0.095
37.095,0.095
37.100,0.100
37.105,0.091
37.110,0.093
37.115,0.087
37.120,0.078
37.125,0.079
37.130,0.074
37.135,0.063
37.140,0.057
37.145,0.057
37.150,0.055
37.155,0.050
37.160,0.048
37.165,0.044
37.170,0.035
37.175,0.027
37.180,0.021
37.185,0.016
37.190,0.015
37.195,0.014
37.200,0.009
37.205,0.001
37.210,-0.003
37.215,-0.006
37.220,-0.010
37.225,-0.013
37.230,-0.019
37.235,-0.028
37.240,-0.034
37.245,-0.038
37.250,-0.043
37.255,-0.048
37.260,-0.056
37.265,-0.066
37.270,-0.076
37.275,-0.086
37.280,-0.096
37.285,-0.109
37.290,-0.127
37.295,-0.142
37.300,-0.150
37.305,-0.154
37.310,-0.155
37.315,-0.155
37.320,-0.161
37.325,-0.168
37.330,-0.172
37.335,-0.165
37.340,-0.148
37.345,-0.132
37.350,-0.110
37.355,-0.080
37.360,-0.043
37.365,0.003
37.370,0.049
37.375,0.089
37.380,0.128
37.385,0.163
37.390,0.195
37.395,0.223
37.400,0.245
37.405,0.259
37.410,0.264
37.415,0.263
37.420,0.261
37.425,0.263
37.430,0.261
37.435,0.252
37.440,0.246
37.445,0.240
37.450,0.225
37.455,0.213
37.460,0.204
37.465,0.195
37.470,0.184
37.475,0.170
37.480,0.162
37.485,0.157
37.490,0.146
37.495,0.129
37.500,0.119
37.505,0.114
37.510,0.106
37.515,0.102
37.520,0.094
37.525,0.083
37.530,0.077
37.535,0.075
37.540,0.068
37.545,0.057
37.550,0.044
37.555,0.036
37.560,0.036
37.565,0.041
37.570,0.040
37.575,0.035
37.580,0.031
37.585,0.025
37.590,0.016
37.595,0.010
37.600,0.007
37.605,0.003
37.610,0.003
37.615,0.007
37.620,0.010
37.625,0.010
37.630,0.008
37.635,0.007
37.640,-0.001
37.645,-0.014
37.650,-0.018
37.655,-0.006
37.660,0.002
37.665,-0.013
37.670,-0.029
37.675,-0.024
37.680,-0.010
37.685,-0.016
37.690,-0.035
37.695,-0.041
37.700,-0.040
37.705,-0.040
37.710,-0.036
37.715,-0.024
37.720,-0.010
37.725,-0.011
37.730,-0.024
37.735,-0.039
37.740,-0.046
37.745,-0.051
37.750,-0.055
37.755,-0.058
37.760,-0.064
37.765,-0.052
37.770,-0.040
37.775,-0.057
37.780,-0.072
37.785,-0.071
37.790,-0.063
37.795,-0.074
37.800,-0.109
37.805,-0.128
37.810,-0.119
37.815,-0.112
37.820,-0.127
37.825,-0.147
37.830,-0.145
37.835,-0.126
37.840,-0.095
37.845,-0.052
37.850,-0.034
37.855,-0.049
37.860,-0.049
37.865,-0.043
37.870,-0.034
37.875,-0.040
37.880,-0.086
37.885,-0.090
37.890,-0.017
37.895,0.028
37.900,0.033
37.905,0.049
37.910,0.079
37.915,0.108
37.920,0.073
37.925,-0.009
37.930,-0.040
37.935,-0.026
37.940,0.003
37.945,0.060
37.950,0.100
37.955,0.084
37.960,0.069
37.965,0.065
37.970,0.038
37.975,0.022
37.980,0.039
37.985,0.056
37.990,0.076
37.995,0.057
38.000,-0.024
38.005,-0.090
38.010,-0.284
38.015,-0.569
38.020,-0.764
38.025,-0.980
38.030,-1.009
38.035,-0.663
38.040,-0.176
38.045,0.214
38.050,0.360
38.055,0.323
38.060,0.264
38.065,0.156
38.070,0.023
38.075,0.080
38.080,0.217
38.085,0.172
38.090,0.039
38.095,-0.027
38.100,0.008
38.105,0.097
38.110,0.149
38.115,0.147
38.120,0.104
38.125,0.084
38.130,0.109
38.135,0.090
38.140,0.023
38.145,-0.017
38.150,-0.006
38.155,-0.016
38.160,-0.083
38.165,-0.093
38.170,-0.013
38.175,0.020
38.180,-0.023
38.185,-0.024
38.190,-0.001
38.195,-0.045
38.200,-0.085
38.205,-0.094
38.210,-0.097
38.215,-0.042
38.220,-0.008
38.225,-0.037
38.230,-0.054
38.235,-0.097
38.240,-0.120
38.245,-0.098
38.250,-0.123
38.255,-0.137
38.260,-0.077
38.265,-0.043
38.270,-0.063
38.275,-0.090
38.280,-0.136
38.285,-0.161
38.290,-0.171
38.295,-0.183
38.300,-0.150
38.305,-0.152
38.310,-0.207
38.315,-0.170
38.320,-0.099
38.325,-0.097
38.330,-0.120
38.335,-0.145
38.340,-0.100
38.345,-0.023
38.350,0.002
38.355,0.041
38.360,0.100
38.365,0.138
38.370,0.173
38.375,0.212
38.380,0.228
38.385,0.227
38.390,0.237
38.395,0.261
38.400,0.263
38.405,0.253
38.410,0.261
38.415,0.247
38.420,0.216
38.425,0.178
38.430,0.083
38.435,0.069
38.440,0.220
38.445,0.300
38.450,0.274
38.455,0.227
38.460,0.185
38.465,0.206
38.470,0.220
38.475,0.197
38.480,0.213
38.485,0.220
38.490,0.158
38.495,0.116
38.500,0.102
38.505,0.070
38.510,0.049
38.515,0.050
38.520,0.046
38.525,0.028
38.530,0.018
38.535,0.012
38.540,-0.004
38.545,-0.008
38.550,-0.009
38.555,-0.014
38.560,-0.007
38.565,-0.008
38.570,-0.015
38.575,-0.016
38.580,-0.016
38.585,-0.018
38.590,-0.019
38.595,-0.018
38.600,-0.013
38.605,-0.010
38.610,-0.014
38.615,-0.019
38.620,-0.025
38.625,-0.027
38.630,-0.026
38.635,-0.029
38.640,-0.028
38.645,-0.029
38.650,-0.033
38.655,-0.032
38.660,-0.030
38.665,-0.029
38.670,-0.029
38.675,-0.029
38.680,-0.031
38.685,-0.035
38.690,-0.034
38.695,-0.033
38.700,-0.037
38.705,-0.041
38.710,-0.042
38.715,-0.040
38.720,-0.038
38.725,-0.040
38.730,-0.048
38.735,-0.063
38.740,-0.083
38.745,-0.102
38.750,-0.108
38.755,-0.103
38.760,-0.104
38.765,-0.107
38.770,-0.112
38.775,-0.114
38.780,-0.103
38.785,-0.083
38.790,-0.060
38.795,-0.047
38.800,-0.055
38.805,-0.068
38.810,-0.066
38.815,-0.047
38.820,-0.026
38.825,-0.017
38.830,-0.007
38.835,0.020
38.840,0.039
38.845,0.044
38.850,0.051
38.855,0.050
38.860,0.052
38.865,0.060
38.870,0.058
38.875,0.059
38.880,0.062
38.885,0.053
38.890,0.046
38.895,0.043
38.900,0.038
38.905,0.036
38.910,0.028
38.915,0.018
38.920,0.017
38.925,0.028
38.930,0.046
38.935,0.046
38.940,0.017
38.945,-0.049
38.950,-0.172
38.955,-0.363
38.960,-0.620
38.965,-0.919
38.970,-1.113
38.975,-1.004
38.980,-0.550
38.985,0.041
38.990,0.414
38.995,0.482
39.000,0.403
39.005,0.302
39.010,0.237
39.015,0.174
39.020,0.120
39.025,0.112
39.030,0.111
39.035,0.104
39.040,0.103
39.045,0.095
39.050,0.085
39.055,0.080
39.060,0.074
39.065,0.067
39.070,0.063
39.075,0.056
39.080,0.046
39.085,0.042
39.090,0.042
39.095,0.037
39.100,0.030
39.105,0.028
39.110,0.025
39.115,0.021
39.120,0.014
39.125,0.009
39.130,0.007
39.135,0.005
39.140,0.001
39.145,-0.005
39.150,-0.009
39.155,-0.012
39.160,-0.017
39.165,-0.022
39.170,-0.027
39.175,-0.033
39.180,-0.042
39.185,-0.053
39.190,-0.062
39.195,-0.069
39.200,-0.077
39.205,-0.090
39.210,-0.100
39.215,-0.110
39.220,-0.122
39.225,-0.132
39.230,-0.139
39.235,-0.145
39.240,-0.153
39.245,-0.163
39.250,-0.168
39.255,-0.167
39.260,-0.165
39.265,-0.158
39.270,-0.144
39.275,-0.123
39.280,-0.097
39.285,-0.062
39.290,-0.020
39.295,0.023
39.300,0.068
39.305,0.110
39.310,0.147
39.315,0.183
39.320,0.214
39.325,0.233
39.330,0.253
39.335,0.274
39.340,0.279
39.345,0.280
39.350,0.281
39.355,0.278
39.360,0.270
39.365,0.247
39.370,0.232
39.375,0.240
39.380,0.239
39.385,0.228
39.390,0.218
39.395,0.200
39.400,0.183
39.405,0.168
39.410,0.166
39.415,0.182
39.420,0.184
39.425,0.180
39.430,0.170
39.435,0.124
39.440,0.107
39.445,0.147
39.450,0.147
39.455,0.100
39.460,0.064
39.465,0.064
39.470,0.078
39.475,0.060
39.480,0.028
39.485,0.025
39.490,0.031
39.495,0.018
39.500,0.016
39.505,0.026
39.510,0.020
39.515,0.013
39.520,0.014
39.525,0.008
39.530,0.003
39.535,0.001
39.540,-0.001
39.545,-0.003
39.550,-0.010
39.555,-0.007
39.560,-0.006
39.565,-0.008
39.570,-0.005
39.575,-0.010
39.580,-0.014
39.585,-0.018
39.590,-0.022
39.595,-0.027
39.600,-0.035
39.605,-0.037
39.610,-0.039
39.615,-0.042
39.620,-0.044
39.625,-0.047
39.630,-0.052
39.635,-0.056
39.640,-0.058
39.645,-0.058
39.650,-0.060
39.655,-0.061
39.660,-0.064
39.665,-0.079
39.670,-0.108
39.675,-0.131
39.680,-0.137
39.685,-0.131
39.690,-0.128
39.695,-0.133
39.700,-0.140
39.705,-0.144
39.710,-0.136
39.715,-0.120
39.720,-0.094
39.725,-0.076
39.730,-0.079
39.735,-0.086
39.740,-0.088
39.745,-0.070
39.750,-0.045
39.755,-0.036
39.760,-0.034
39.765,-0.022
39.770,-0.003
39.775,0.010
39.780,0.023
39.785,0.033
39.790,0.035
39.795,0.033
39.800,0.030
39.805,0.031
39.810,0.032
39.815,0.032
39.820,0.033
39.825,0.031
39.830,0.023
39.835,0.018
39.840,0.019
39.845,0.021
39.850,0.019
39.855,0.021
39.860,0.035
39.865,0.046
39.870,0.033
39.875,-0.006
39.880,-0.086
39.885,-0.235
39.890,-0.451
39.895,-0.725
39.900,-0.988
39.905,-1.063
39.910,-0.801
39.915,-0.248
39.920,0.273
39.925,0.486
39.930,0.482
39.935,0.391
39.940,0.287
39.945,0.199
39.950,0.111
39.955,0.085
39.960,0.099
39.965,0.091
39.970,0.089
39.975,0.091
39.980,0.079
39.985,0.070
39.990,0.069
39.995,0.065
40.000,0.054
40.005,0.043
40.010,0.038
40.015,0.033
40.020,0.031
40.025,0.035
40.030,0.032
40.035,0.028
40.040,0.024
40.045,0.014
40.050,0.004
40.055,-0.005
40.060,-0.011
40.065,-0.007
40.070,-0.007
40.075,-0.012
40.080,-0.017
40.085,-0.024
40.090,-0.034
40.095,-0.042
40.100,-0.042
40.105,-0.040
40.110,-0.046
40.115,-0.062
40.120,-0.077
40.125,-0.084
40.130,-0.087
40.135,-0.095
40.140,-0.111
40.145,-0.127
40.150,-0.138
40.155,-0.143
40.160,-0.152
40.165,-0.163
40.170,-0.169
40.175,-0.170
40.180,-0.170
40.185,-0.176
40.190,-0.183
40.195,-0.182
40.200,-0.171
40.205,-0.148
40.210,-0.116
40.215,-0.080
40.220,-0.038
40.225,0.005
40.230,0.042
40.235,0.086
40.240,0.135
40.245,0.174
40.250,0.201
40.255,0.219
40.260,0.234
40.265,0.249
40.270,0.253
40.275,0.259
40.280,0.263
40.285,0.260
40.290,0.257
40.295,0.252
40.300,0.246
40.305,0.236
40.310,0.227
40.315,0.218
40.320,0.209
40.325,0.202
40.330,0.193
40.335,0.181
40.340,0.159
40.345,0.140
40.350,0.138
40.355,0.139
40.360,0.138
40.365,0.132
40.370,0.118
40.375,0.105
40.380,0.093
40.385,0.080
40.390,0.077
40.395,0.077
40.400,0.072
40.405,0.066
40.410,0.055
40.415,0.042
40.420,0.036
40.425,0.033
40.430,0.032
40.435,0.038
40.440,0.039
40.445,0.035
40.450,0.030
40.455,0.021
40.460,0.015
40.465,0.015
40.470,0.012
40.475,0.005
40.480,0.000
40.485,-0.005
40.490,-0.006
40.495,-0.008
40.500,-0.010
40.505,-0.009
40.510,-0.008
40.515,-0.010
40.520,-0.011
40.525,-0.013
40.530,-0.015
40.535,-0.019
40.540,-0.028
40.545,-0.036
40.550,-0.035
40.555,-0.031
40.560,-0.030
40.565,-0.034
40.570,-0.042
40.575,-0.047
40.580,-0.053
40.585,-0.073
40.590,-0.100
40.595,-0.116
40.600,-0.121
40.605,-0.123
40.610,-0.129
40.615,-0.139
40.620,-0.142
40.625,-0.141
40.630,-0.133
40.635,-0.117
40.640,-0.094
40.645,-0.084
40.650,-0.091
40.655,-0.098
40.660,-0.087
40.665,-0.059
40.670,-0.040
40.675,-0.034
40.680,-0.024
40.685,-0.010
40.690,0.004
40.695,0.016
40.700,0.026
40.705,0.030
40.710,0.023
40.715,0.015
40.720,0.015
40.725,0.017
40.730,0.018
40.735,0.017
40.740,0.016
40.745,0.009
40.750,0.004
40.755,0.009
40.760,0.012
40.765,0.007
40.770,-0.003
40.775,-0.005
40.780,0.017
40.785,0.035
40.790,0.018
40.795,-0.026
40.800,-0.116
40.805,-0.280
40.810,-0.519
40.815,-0.822
40.820,-1.082
40.825,-1.095
40.830,-0.747
40.835,-0.151
40.840,0.313
40.845,0.452
40.850,0.419
40.855,0.325
40.860,0.239
40.865,0.164
40.870,0.092
40.875,0.090
40.880,0.102
40.885,0.088
40.890,0.087
40.895,0.088
40.900,0.078
40.905,0.078
40.910,0.080
40.915,0.068
40.920,0.055
40.925,0.052
40.930,0.048
40.935,0.041
40.940,0.038
40.945,0.038
40.950,0.033
40.955,0.028
40.960,0.027
40.965,0.019
40.970,0.011
40.975,0.010
40.980,0.007
40.985,0.002
40.990,-0.003
40.995,-0.008
41.000,-0.011
41.005,-0.014
41.010,-0.020
41.015,-0.026
41.020,-0.031
41.025,-0.040
41.030,-0.049
41.035,-0.056
41.040,-0.067
41.045,-0.080
41.050,-0.094
41.055,-0.103
41.060,-0.107
41.065,-0.112
41.070,-0.124
41.075,-0.138
41.080,-0.148
41.085,-0.154
41.090,-0.162
41.095,-0.170
41.100,-0.178
41.105,-0.182
41.110,-0.179
41.115,-0.169
41.120,-0.153
41.125,-0.133
41.130,-0.106
41.135,-0.070
41.140,-0.029
41.145,0.015
41.150,0.058
41.155,0.100
41.160,0.139
41.165,0.171
41.170,0.200
41.175,0.225
41.180,0.243
41.185,0.252
41.190,0.256
41.195,0.259
41.200,0.263
41.205,0.264
41.210,0.258
41.215,0.248
41.220,0.238
41.225,0.227
41.230,0.216
41.235,0.206
41.240,0.199
41.245,0.190
41.250,0.176
41.255,0.164
41.260,0.154
41.265,0.146
41.270,0.139
41.275,0.130
41.280,0.121
41.285,0.111
41.290,0.103
41.295,0.097
41.300,0.089
41.305,0.077
41.310,0.065
41.315,0.059
41.320,0.058
41.325,0.056
41.330,0.049
41.335,0.041
41.340,0.035
41.345,0.033
41.350,0.033
41.355,0.031
41.360,0.025
41.365,0.020
41.370,0.015
41.375,0.011
41.380,0.011
41.385,0.010
41.390,0.007
41.395,0.005
41.400,0.001
41.405,-0.002
41.410,-0.004
41.415,-0.005
41.420,-0.008
41.425,-0.011
41.430,-0.014
41.435,-0.016
41.440,-0.018
41.445,-0.019
41.450,-0.023
41.455,-0.027
41.460,-0.029
41.465,-0.031
41.470,-0.032
41.475,-0.035
41.480,-0.046
41.485,-0.063
41.490,-0.088
41.495,-0.113
41.500,-0.122
41.505,-0.122
41.510,-0.122
41.515,-0.128
41.520,-0.140
41.525,-0.148
41.530,-0.144
41.535,-0.127
41.540,-0.099
41.545,-0.079
41.550,-0.082
41.555,-0.089
41.560,-0.082
41.565,-0.063
41.570,-0.045
41.575,-0.037
41.580,-0.026
41.585,-0.007
41.590,0.010
41.595,0.019
41.600,0.027
41.605,0.031
41.610,0.032
41.615,0.032
41.620,0.030
41.625,0.028
41.630,0.024
41.635,0.020
41.640,0.019
41.645,0.017
41.650,0.013
41.655,0.009
41.660,0.006
41.665,0.002
41.670,-0.003
41.675,-0.004
41.680,0.003
41.685,0.020
41.690,0.027
41.695,0.006
41.700,-0.046
41.705,-0.146
41.710,-0.319
41.715,-0.561
41.720,-0.857
41.725,-1.095
41.730,-1.078
41.735,-0.708
41.740,-0.112
41.745,0.352
41.750,0.490
41.755,0.441
41.760,0.335
41.765,0.253
41.770,0.185
41.775,0.113
41.780,0.095
41.785,0.099
41.790,0.090
41.795,0.089
41.800,0.086
41.805,0.075
41.810,0.070
41.815,0.068
41.820,0.061
41.825,0.055
41.830,0.052
41.835,0.049
41.840,0.046
41.845,0.044
41.850,0.039
41.855,0.032
41.860,0.029
41.865,0.025
41.870,0.019
41.875,0.013
41.880,0.008
41.885,0.004
41.890,0.001
41.895,-0.002
41.900,-0.005
41.905,-0.010
41.910,-0.016
41.915,-0.021
41.920,-0.027
41.925,-0.033
41.930,-0.039
41.935,-0.046
41.940,-0.054
41.945,-0.064
41.950,-0.076
41.955,-0.087
41.960,-0.096
41.965,-0.105
41.970,-0.116
41.975,-0.129
41.980,-0.139
41.985,-0.147
41.990,-0.154
41.995,-0.161
42.000,-0.167
42.005,-0.171
42.010,-0.172
42.015,-0.172
42.020,-0.168
42.025,-0.156
42.030,-0.135
42.035,-0.106
42.040,-0.068
42.045,-0.026
42.050,0.019
42.055,0.061
42.060,0.100
42.065,0.137
42.070,0.172
42.075,0.204
42.080,0.227
42.085,0.241
42.090,0.250
42.095,0.258
42.100,0.262
42.105,0.260
42.110,0.252
42.115,0.245
42.120,0.238
42.125,0.230
42.130,0.222
42.135,0.213
42.140,0.203
42.145,0.195
42.150,0.186
42.155,0.175
42.160,0.166
42.165,0.157
42.170,0.148
42.175,0.137
42.180,0.128
42.185,0.121
42.190,0.112
42.195,0.102
42.200,0.094
42.205,0.089
42.210,0.084
42.215,0.078
42.220,0.072
42.225,0.067
42.230,0.060
42.235,0.052
42.240,0.047
42.245,0.044
42.250,0.041
42.255,0.036
42.260,0.031
42.265,0.028
42.270,0.026
42.275,0.024
42.280,0.023
42.285,0.020
42.290,0.017
42.295,0.014
42.300,0.010
42.305,0.009
42.310,0.005
42.315,-0.001
42.320,-0.006
42.325,-0.008
42.330,-0.010
42.335,-0.013
42.340,-0.014
42.345,-0.016
42.350,-0.019
42.355,-0.024
42.360,-0.027
42.365,-0.028
42.370,-0.028
42.375,-0.030
42.380,-0.031
42.385,-0.032
42.390,-0.034
42.395,-0.037
42.400,-0.040
42.405,-0.042
42.410,-0.047
42.415,-0.055
42.420,-0.071
42.425,-0.098
42.430,-0.120
42.435,-0.127
42.440,-0.126
42.445,-0.125
42.450,-0.127
42.455,-0.134
42.460,-0.140
42.465,-0.134
42.470,-0.119
42.475,-0.094
42.480,-0.072
42.485,-0.069
42.490,-0.074
42.495,-0.076
42.500,-0.071
42.505,-0.054
42.510,-0.039
42.515,-0.029
42.520,-0.012
42.525,0.004
42.530,0.011
42.535,0.023
42.540,0.030
42.545,0.031
42.550,0.029
42.555,0.028
42.560,0.032
42.565,0.027
42.570,0.014
42.575,0.010
42.580,0.017
42.585,0.019
42.590,0.016
42.595,0.014
42.600,0.011
42.605,0.008
42.610,0.006
42.615,0.010
42.620,0.024
42.625,0.030
42.630,0.011
42.635,-0.042
42.640,-0.143
42.645,-0.311
42.650,-0.547
42.655,-0.837
42.660,-1.071
42.665,-1.050
42.670,-0.679
42.675,-0.087
42.680,0.371
42.685,0.512
42.690,0.472
42.695,0.368
42.700,0.274
42.705,0.191
42.710,0.113
42.715,0.095
42.720,0.098
42.725,0.089
42.730,0.092
42.735,0.093
42.740,0.082
42.745,0.076
42.750,0.074
42.755,0.067
42.760,0.060
42.765,0.060
42.770,0.056
42.775,0.047
42.780,0.044
42.785,0.042
42.790,0.037
42.795,0.033
42.800,0.024
42.805,0.015
42.810,0.012
42.815,0.013
42.820,0.011
42.825,0.006
42.830,0.005
42.835,0.006
42.840,-0.004
42.845,-0.017
42.850,-0.024
42.855,-0.023
42.860,-0.023
42.865,-0.032
42.870,-0.046
42.875,-0.058
42.880,-0.070
42.885,-0.077
42.890,-0.081
42.895,-0.087
42.900,-0.098
42.905,-0.112
42.910,-0.123
42.915,-0.134
42.920,-0.141
42.925,-0.149
42.930,-0.159
42.935,-0.164
42.940,-0.164
42.945,-0.167
42.950,-0.171
42.955,-0.166
42.960,-0.151
42.965,-0.132
42.970,-0.108
42.975,-0.074
42.980,-0.032
42.985,0.012
42.990,0.056
42.995,0.099
43.000,0.139
43.005,0.169
43.010,0.193
43.015,0.214
43.020,0.230
43.025,0.247
43.030,0.256
43.035,0.257
43.040,0.257
43.045,0.253
43.050,0.248
43.055,0.240
43.060,0.230
43.065,0.220
43.070,0.213
43.075,0.202
43.080,0.194
43.085,0.188
43.090,0.175
43.095,0.159
43.100,0.154
43.105,0.147
43.110,0.138
43.115,0.133
43.120,0.122
43.125,0.112
43.130,0.102
43.135,0.089
43.140,0.080
43.145,0.077
43.150,0.074
43.155,0.071
43.160,0.070
43.165,0.065
43.170,0.054
43.175,0.046
43.180,0.040
43.185,0.036
43.190,0.036
43.195,0.034
43.200,0.028
43.205,0.023
43.210,0.018
43.215,0.012
43.220,0.010
43.225,0.009
43.230,0.010
43.235,0.008
43.240,0.003
43.245,0.002
43.250,0.000
43.255,-0.001
43.260,-0.001
43.265,-0.004
43.270,-0.009
43.275,-0.020
43.280,-0.030
43.285,-0.029
43.290,-0.026
43.295,-0.029
43.300,-0.028
43.305,-0.028
43.310,-0.031
43.315,-0.029
43.320,-0.030
43.325,-0.029
43.330,-0.028
43.335,-0.032
43.340,-0.035
43.345,-0.040
43.350,-0.045
43.355,-0.051
43.360,-0.058
43.365,-0.073
43.370,-0.095
43.375,-0.110
43.380,-0.118
43.385,-0.128
43.390,-0.131
43.395,-0.133
43.400,-0.139
43.405,-0.149
43.410,-0.157
43.415,-0.138
43.420,-0.107
43.425,-0.098
43.430,-0.106
43.435,-0.106
43.440,-0.093
43.445,-0.075
43.450,-0.058
43.455,-0.037
43.460,-0.010
43.465,0.010
43.470,0.018
43.475,0.027
43.480,0.035
43.485,0.033
43.490,0.028
43.495,0.027
43.500,0.033
43.505,0.037
43.510,0.033
43.515,0.026
43.520,0.020
43.525,0.016
43.530,0.015
43.535,0.014
43.540,0.015
43.545,0.015
43.550,0.009
43.555,0.005
43.560,0.011
43.565,0.030
43.570,0.045
43.575,0.032
43.580,-0.016
43.585,-0.113
43.590,-0.276
43.595,-0.510
43.600,-0.812
43.605,-1.087
43.610,-1.130
43.615,-0.800
43.620,-0.197
43.625,0.308
43.630,0.478
43.635,0.451
43.640,0.352
43.645,0.263
43.650,0.192
43.655,0.115
43.660,0.100
43.665,0.112
43.670,0.103
43.675,0.102
43.680,0.102
43.685,0.086
43.690,0.076
43.695,0.076
43.700,0.070
43.705,0.064
43.710,0.065
43.715,0.057
43.720,0.047
43.725,0.043
43.730,0.040
43.735,0.034
43.740,0.028
43.745,0.024
43.750,0.018
43.755,0.014
43.760,0.013
43.765,0.010
43.770,0.006
43.775,0.001
43.780,-0.005
43.785,-0.010
43.790,-0.017
43.795,-0.024
43.800,-0.030
43.805,-0.036
43.810,-0.043
43.815,-0.050
43.820,-0.060
43.825,-0.072
43.830,-0.080
43.835,-0.086
43.840,-0.091
43.845,-0.101
43.850,-0.115
43.855,-0.126
43.860,-0.136
43.865,-0.145
43.870,-0.154
43.875,-0.160
43.880,-0.164
43.885,-0.167
43.890,-0.170
43.895,-0.169
43.900,-0.163
43.905,-0.156
43.910,-0.141
43.915,-0.114
43.920,-0.079
43.925,-0.038
43.930,0.005
43.935,0.048
43.940,0.088
43.945,0.124
43.950,0.157
43.955,0.188
43.960,0.214
43.965,0.233
43.970,0.247
43.975,0.255
43.980,0.256
43.985,0.254
43.990,0.252
43.995,0.248
44.000,0.242
44.005,0.235
44.010,0.224
44.015,0.213
44.020,0.203
44.025,0.195
44.030,0.186
44.035,0.176
44.040,0.164
44.045,0.154
44.050,0.143
44.055,0.133
44.060,0.123
44.065,0.114
44.070,0.106
44.075,0.099
44.080,0.093
44.085,0.086
44.090,0.077
44.095,0.071
44.100,0.067
44.105,0.062
44.110,0.058
44.115,0.054
44.120,0.048
44.125,0.043
44.130,0.038
44.135,0.034
44.140,0.031
44.145,0.028
44.150,0.027
44.155,0.025
44.160,0.024
44.165,0.022
44.170,0.017
44.175,0.011
44.180,0.009
44.185,0.008
44.190,0.006
44.195,0.001
44.200,-0.003
44.205,-0.002
44.210,-0.004
44.215,-0.008
44.220,-0.012
44.225,-0.015
44.230,-0.016
44.235,-0.017
44.240,-0.019
44.245,-0.022
44.250,-0.026
44.255,-0.029
44.260,-0.031
44.265,-0.035
44.270,-0.038
44.275,-0.037
44.280,-0.035
44.285,-0.033
44.290,-0.035
44.295,-0.039
44.300,-0.041
44.305,-0.044
44.310,-0.045
44.315,-0.045
44.320,-0.045
44.325,-0.044
44.330,-0.044
44.335,-0.044
44.340,-0.047
44.345,-0.054
44.350,-0.069
44.355,-0.093
44.360,-0.116
44.365,-0.126
44.370,-0.126
44.375,-0.125
44.380,-0.130
44.385,-0.137
44.390,-0.141
44.395,-0.134
44.400,-0.119
44.405,-0.096
44.410,-0.074
44.415,-0.067
44.420,-0.071
44.425,-0.075
44.430,-0.066
44.435,-0.047
44.440,-0.034
44.445,-0.025
44.450,-0.010
44.455,0.009
44.460,0.020
44.465,0.025
44.470,0.030
44.475,0.033
44.480,0.035
44.485,0.036
44.490,0.037
44.495,0.036
44.500,0.031
44.505,0.030
44.510,0.029
44.515,0.027
44.520,0.024
44.525,0.022
44.530,0.020
44.535,0.016
44.540,0.012
44.545,0.018
44.550,0.036
44.555,0.044
44.560,0.022
44.565,-0.033
44.570,-0.133
44.575,-0.299
44.580,-0.537
44.585,-0.832
44.590,-1.073
44.595,-1.066
44.600,-0.713
44.605,-0.126
44.610,0.351
44.615,0.504
44.620,0.457
44.625,0.351
44.630,0.267
44.635,0.204
44.640,0.132
44.645,0.112
44.650,0.122
44.655,0.115
44.660,0.111
44.665,0.108
44.670,0.097
44.675,0.092
44.680,0.088
44.685,0.080
44.690,0.074
44.695,0.072
44.700,0.067
44.705,0.059
44.710,0.054
44.715,0.051
44.720,0.046
44.725,0.043
44.730,0.040
44.735,0.034
44.740,0.029
44.745,0.024
44.750,0.017
44.755,0.013
44.760,0.009
44.765,0.003
44.770,-0.002
44.775,-0.007
44.780,-0.012
44.785,-0.016
44.790,-0.023
44.795,-0.029
44.800,-0.037
44.805,-0.045
44.810,-0.053
44.815,-0.062
44.820,-0.072
44.825,-0.082
44.830,-0.093
44.835,-0.105
44.840,-0.117
44.845,-0.126
44.850,-0.132
44.855,-0.139
44.860,-0.146
44.865,-0.153
44.870,-0.160
44.875,-0.164
44.880,-0.164
44.885,-0.161
44.890,-0.153
44.895,-0.140
44.900,-0.119
44.905,-0.088
44.910,-0.051
44.915,-0.010
44.920,0.033
44.925,0.072
44.930,0.108
44.935,0.142
44.940,0.172
44.945,0.198
44.950,0.218
44.955,0.230
44.960,0.239
44.965,0.244
44.970,0.245
44.975,0.243
44.980,0.238
44.985,0.231
44.990,0.224
44.995,0.216
45.000,0.207
45.005,0.197
45.010,0.188
45.015,0.179
45.020,0.169
45.025,0.161
45.030,0.153
45.035,0.146
45.040,0.137
45.045,0.127
45.050,0.118
45.055,0.111
45.060,0.104
45.065,0.096
45.070,0.088
45.075,0.080
45.080,0.074
45.085,0.069
45.090,0.064
45.095,0.059
45.100,0.054
45.105,0.049
45.110,0.046
45.115,0.041
45.120,0.036
45.125,0.032
45.130,0.029
45.135,0.027
45.140,0.024
45.145,0.020
45.150,0.017
45.155,0.014
45.160,0.012
45.165,0.009
45.170,0.006
