'Elapsed time','ECG'
'seconds','mV'
0.000,0.021
0.005,0.061
0.010,0.063
0.015,0.062
0.020,0.055
0.025,0.058
0.030,0.067
0.035,0.046
0.040,0.032
0.045,0.039
0.050,0.032
0.055,0.017
0.060,0.013
0.065,0.012
0.070,0.007
0.075,0.006
0.080,0.007
0.085,0.006
0.090,0.003
0.095,-0.005
0.100,-0.013
0.105,-0.012
0.110,-0.009
0.115,-0.015
0.120,-0.023
0.125,-0.028
0.130,-0.032
0.135,-0.033
0.140,-0.035
0.145,-0.043
0.150,-0.045
0.155,-0.043
0.160,-0.042
0.165,-0.044
0.170,-0.051
0.175,-0.053
0.180,-0.051
0.185,-0.055
0.190,-0.060
0.195,-0.059
0.200,-0.056
0.205,-0.055
0.210,-0.052
0.215,-0.049
0.220,-0.054
0.225,-0.061
0.230,-0.061
0.235,-0.062
0.240,-0.066
0.245,-0.068
0.250,-0.071
0.255,-0.071
0.260,-0.065
0.265,-0.067
0.270,-0.073
0.275,-0.079
0.280,-0.081
0.285,-0.081
0.290,-0.089
0.295,-0.101
0.300,-0.109
0.305,-0.112
0.310,-0.114
0.315,-0.121
0.320,-0.116
0.325,-0.095
0.330,-0.079
0.335,-0.073
0.340,-0.065
0.345,-0.044
0.350,-0.021
0.355,-0.003
0.360,0.011
0.365,0.024
0.370,0.036
0.375,0.046
0.380,0.059
0.385,0.070
0.390,0.072
0.395,0.079
0.400,0.084
0.405,0.082
0.410,0.084
0.415,0.085
0.420,0.083
0.425,0.078
0.430,0.072
0.435,0.071
0.440,0.070
0.445,0.063
0.450,0.054
0.455,0.050
0.460,0.052
0.465,0.055
0.470,0.053
0.475,0.048
0.480,0.046
0.485,0.047
0.490,0.045
0.495,0.038
0.500,0.037
0.505,0.044
0.510,0.043
0.515,0.037
0.520,0.034
0.525,0.035
0.530,0.037
0.535,0.032
0.540,0.024
0.545,0.022
0.550,0.021
0.555,0.023
0.560,0.027
0.565,0.026
0.570,0.021
0.575,0.014
0.580,0.013
0.585,0.016
0.590,0.020
0.595,0.021
0.600,0.013
0.605,0.008
0.610,0.010
0.615,0.013
0.620,0.013
0.625,0.008
0.630,0.003
0.635,0.004
0.640,0.008
0.645,0.005
0.650,-0.003
0.655,-0.008
0.660,-0.004
0.665,0.000
0.670,-0.003
0.675,-0.005
0.680,0.001
0.685,0.005
0.690,-0.005
0.695,-0.010
0.700,-0.009
0.705,-0.012
0.710,-0.012
0.715,-0.011
0.720,-0.009
0.725,-0.008
0.730,-0.011
0.735,-0.013
0.740,-0.010
0.745,-0.003
0.750,-0.002
0.755,-0.006
0.760,-0.013
0.765,-0.017
0.770,-0.016
0.775,-0.011
0.780,-0.009
0.785,-0.010
0.790,-0.012
0.795,-0.016
0.800,-0.019
0.805,-0.019
0.810,-0.016
0.815,-0.011
0.820,-0.012
0.825,-0.015
0.830,-0.016
0.835,-0.016
0.840,-0.015
0.845,-0.015
0.850,-0.012
0.855,-0.008
0.860,-0.007
0.865,-0.010
0.870,-0.014
0.875,-0.010
0.880,-0.008
0.885,-0.012
0.890,-0.015
0.895,-0.014
0.900,-0.010
0.905,-0.010
0.910,-0.013
0.915,-0.015
0.920,-0.016
0.925,-0.010
0.930,-0.005
0.935,-0.007
0.940,-0.009
0.945,-0.011
0.950,-0.012
0.955,-0.010
0.960,-0.013
0.965,-0.011
0.970,-0.007
0.975,-0.006
0.980,-0.004
0.985,-0.005
0.990,-0.008
0.995,-0.007
1.000,-0.009
1.005,-0.015
1.010,-0.023
1.015,-0.029
1.020,-0.032
1.025,-0.034
1.030,-0.036
1.035,-0.045
1.040,-0.057
1.045,-0.066
1.050,-0.080
1.055,-0.092
1.060,-0.077
1.065,-0.041
1.070,-0.010
1.075,0.005
1.080,0.005
1.085,-0.001
1.090,-0.003
1.095,0.003
1.100,0.017
1.105,0.035
1.110,0.046
1.115,0.053
1.120,0.061
1.125,0.063
1.130,0.057
1.135,0.053
1.140,0.051
1.145,0.051
1.150,0.051
1.155,0.062
1.160,0.086
1.165,0.092
1.170,0.060
1.175,-0.003
1.180,-0.139
1.185,-0.401
1.190,-0.737
1.195,-1.058
1.200,-1.291
1.205,-1.282
1.210,-0.970
1.215,-0.527
1.220,-0.121
1.225,0.172
1.230,0.348
1.235,0.436
1.240,0.458
1.245,0.439
1.250,0.421
1.255,0.397
1.260,0.346
1.265,0.331
1.270,0.348
1.275,0.334
1.280,0.309
1.285,0.303
1.290,0.295
1.295,0.278
1.300,0.267
1.305,0.258
1.310,0.240
1.315,0.226
1.320,0.221
1.325,0.211
1.330,0.196
1.335,0.186
1.340,0.178
1.345,0.168
1.350,0.154
1.355,0.141
1.360,0.129
1.365,0.120
1.370,0.113
1.375,0.106
1.380,0.096
1.385,0.085
1.390,0.075
1.395,0.068
1.400,0.060
1.405,0.051
1.410,0.042
1.415,0.032
1.420,0.026
1.425,0.026
1.430,0.022
1.435,0.016
1.440,0.011
1.445,0.007
1.450,0.001
1.455,-0.009
1.460,-0.014
1.465,-0.015
1.470,-0.018
1.475,-0.023
1.480,-0.026
1.485,-0.027
1.490,-0.032
1.495,-0.038
1.500,-0.041
1.505,-0.044
1.510,-0.044
1.515,-0.047
1.520,-0.057
1.525,-0.066
1.530,-0.072
1.535,-0.077
1.540,-0.081
1.545,-0.084
1.550,-0.090
1.555,-0.098
1.560,-0.109
1.565,-0.122
1.570,-0.131
1.575,-0.135
1.580,-0.134
1.585,-0.130
1.590,-0.122
1.595,-0.110
1.600,-0.096
1.605,-0.084
1.610,-0.067
1.615,-0.047
1.620,-0.032
1.625,-0.017
1.630,-0.005
1.635,0.008
1.640,0.017
1.645,0.025
1.650,0.034
1.655,0.041
1.660,0.044
1.665,0.042
1.670,0.040
1.675,0.043
1.680,0.042
1.685,0.039
1.690,0.037
1.695,0.036
1.700,0.035
1.705,0.032
1.710,0.028
1.715,0.024
1.720,0.022
1.725,0.021
1.730,0.020
1.735,0.020
1.740,0.022
1.745,0.021
1.750,0.015
1.755,0.011
1.760,0.011
1.765,0.011
1.770,0.010
1.775,0.010
1.780,0.009
1.785,0.008
1.790,0.004
1.795,0.003
1.800,0.004
1.805,0.003
1.810,0.003
1.815,0.002
1.820,0.000
1.825,-0.002
1.830,-0.003
1.835,-0.002
1.840,-0.003
1.845,-0.005
1.850,-0.005
1.855,-0.004
1.860,-0.005
1.865,-0.006
1.870,-0.009
1.875,-0.009
1.880,-0.007
1.885,-0.010
1.890,-0.011
1.895,-0.009
1.900,-0.012
1.905,-0.015
1.910,-0.013
1.915,-0.010
1.920,-0.014
1.925,-0.017
1.930,-0.017
1.935,-0.014
1.940,-0.014
1.945,-0.016
1.950,-0.018
1.955,-0.017
1.960,-0.015
1.965,-0.015
1.970,-0.015
1.975,-0.017
1.980,-0.018
1.985,-0.016
1.990,-0.017
1.995,-0.017
2.000,-0.016
2.005,-0.019
2.010,-0.018
2.015,-0.013
2.020,-0.014
2.025,-0.017
2.030,-0.017
2.035,-0.016
2.040,-0.014
2.045,-0.013
2.050,-0.017
2.055,-0.018
2.060,-0.018
2.065,-0.018
2.070,-0.016
2.075,-0.013
2.080,-0.012
2.085,-0.012
2.090,-0.013
2.095,-0.010
2.100,-0.012
2.105,-0.016
2.110,-0.016
2.115,-0.016
2.120,-0.014
2.125,-0.013
2.130,-0.012
2.135,-0.009
2.140,-0.009
2.145,-0.009
2.150,-0.010
2.155,-0.011
2.160,-0.012
2.165,-0.011
2.170,-0.008
2.175,-0.007
2.180,-0.006
2.185,-0.009
2.190,-0.013
2.195,-0.010
2.200,-0.010
2.205,-0.013
2.210,-0.010
2.215,-0.004
2.220,-0.001
2.225,0.001
2.230,0.002
2.235,0.001
2.240,-0.002
2.245,-0.009
2.250,-0.016
2.255,-0.019
2.260,-0.013
2.265,-0.009
2.270,-0.009
2.275,-0.007
2.280,-0.003
2.285,-0.001
2.290,-0.004
2.295,-0.004
2.300,-0.004
2.305,-0.009
2.310,-0.025
2.315,-0.042
2.320,-0.046
2.325,-0.041
2.330,-0.042
2.335,-0.053
2.340,-0.067
2.345,-0.078
2.350,-0.071
2.355,-0.042
2.360,-0.010
2.365,0.006
2.370,0.002
2.375,-0.010
2.380,-0.009
2.385,0.004
2.390,0.017
2.395,0.029
2.400,0.043
2.405,0.054
2.410,0.061
2.415,0.063
2.420,0.057
2.425,0.057
2.430,0.058
2.435,0.054
2.440,0.051
2.445,0.053
2.450,0.072
2.455,0.097
2.460,0.082
2.465,0.022
2.470,-0.087
2.475,-0.305
2.480,-0.627
2.485,-0.953
2.490,-1.211
2.495,-1.271
2.500,-1.032
2.505,-0.634
2.510,-0.233
2.515,0.095
2.520,0.302
2.525,0.416
2.530,0.457
2.535,0.435
2.540,0.416
2.545,0.405
2.550,0.361
2.555,0.326
2.560,0.332
2.565,0.329
2.570,0.305
2.575,0.299
2.580,0.295
2.585,0.269
2.590,0.250
2.595,0.248
2.600,0.238
2.605,0.227
2.610,0.218
2.615,0.205
2.620,0.192
2.625,0.182
2.630,0.176
2.635,0.167
2.640,0.153
2.645,0.141
2.650,0.130
2.655,0.116
2.660,0.106
2.665,0.101
2.670,0.093
2.675,0.084
2.680,0.075
2.685,0.063
2.690,0.054
2.695,0.050
2.700,0.044
2.705,0.041
2.710,0.039
2.715,0.028
2.720,0.015
2.725,0.005
2.730,0.000
2.735,-0.002
2.740,-0.005
2.745,-0.007
2.750,-0.009
2.755,-0.015
2.760,-0.021
2.765,-0.023
2.770,-0.026
2.775,-0.030
2.780,-0.033
2.785,-0.041
2.790,-0.050
2.795,-0.056
2.800,-0.058
2.805,-0.056
2.810,-0.060
2.815,-0.068
2.820,-0.069
2.825,-0.071
2.830,-0.076
2.835,-0.081
2.840,-0.087
2.845,-0.095
2.850,-0.104
2.855,-0.111
2.860,-0.116
2.865,-0.127
2.870,-0.131
2.875,-0.123
2.880,-0.107
2.885,-0.089
2.890,-0.081
2.895,-0.071
2.900,-0.057
2.905,-0.045
2.910,-0.030
2.915,-0.013
2.920,0.003
2.925,0.019
2.930,0.031
2.935,0.037
2.940,0.043
2.945,0.048
2.950,0.051
2.955,0.053
2.960,0.051
2.965,0.048
2.970,0.047
2.975,0.045
2.980,0.041
2.985,0.038
2.990,0.036
2.995,0.039
3.000,0.041
3.005,0.036
3.010,0.030
3.015,0.026
3.020,0.022
3.025,0.023
3.030,0.021
3.035,0.017
3.040,0.015
3.045,0.012
3.050,0.010
3.055,0.011
3.060,0.016
3.065,0.017
3.070,0.009
3.075,0.005
3.080,0.008
3.085,0.009
3.090,0.008
3.095,0.002
3.100,-0.004
3.105,-0.003
3.110,0.003
3.115,0.007
3.120,0.004
3.125,-0.003
3.130,-0.003
3.135,0.002
3.140,0.001
3.145,-0.003
3.150,-0.007
3.155,-0.005
3.160,-0.005
3.165,-0.011
3.170,-0.012
3.175,-0.009
3.180,-0.009
3.185,-0.011
3.190,-0.010
3.195,-0.007
3.200,-0.005
3.205,-0.008
3.210,-0.011
3.215,-0.017
3.220,-0.021
3.225,-0.015
3.230,-0.010
3.235,-0.012
3.240,-0.013
3.245,-0.014
3.250,-0.013
3.255,-0.008
3.260,-0.011
3.265,-0.018
3.270,-0.019
3.275,-0.025
3.280,-0.030
3.285,-0.022
3.290,-0.015
3.295,-0.015
3.300,-0.020
3.305,-0.025
3.310,-0.017
3.315,-0.006
3.320,-0.013
3.325,-0.020
3.330,-0.018
3.335,-0.016
3.340,-0.017
3.345,-0.017
3.350,-0.014
3.355,-0.014
3.360,-0.015
3.365,-0.019
3.370,-0.024
3.375,-0.020
3.380,-0.017
3.385,-0.018
3.390,-0.015
3.395,-0.012
3.400,-0.011
3.405,-0.014
3.410,-0.016
3.415,-0.011
3.420,-0.013
3.425,-0.020
3.430,-0.017
3.435,-0.009
3.440,-0.008
3.445,-0.013
3.450,-0.021
3.455,-0.019
3.460,-0.010
3.465,-0.010
3.470,-0.014
3.475,-0.006
3.480,-0.001
3.485,-0.006
3.490,-0.010
3.495,-0.012
3.500,-0.013
3.505,-0.011
3.510,-0.011
3.515,-0.005
3.520,-0.002
3.525,-0.006
3.530,-0.008
3.535,-0.009
3.540,-0.007
3.545,-0.005
3.550,-0.002
3.555,0.002
3.560,-0.005
3.565,-0.012
3.570,-0.008
3.575,-0.007
3.580,-0.002
3.585,0.004
3.590,-0.001
3.595,-0.004
3.600,-0.004
3.605,-0.008
3.610,-0.011
3.615,-0.021
3.620,-0.031
3.625,-0.029
3.630,-0.023
3.635,-0.031
3.640,-0.042
3.645,-0.041
3.650,-0.036
3.655,-0.028
3.660,-0.021
3.665,-0.010
3.670,0.001
3.675,0.001
3.680,0.001
3.685,0.013
3.690,0.017
3.695,0.018
3.700,0.027
3.705,0.040
3.710,0.051
3.715,0.042
3.720,0.032
3.725,0.034
3.730,0.037
3.735,0.045
3.740,0.065
3.745,0.075
3.750,0.045
3.755,-0.019
3.760,-0.150
3.765,-0.393
3.770,-0.714
3.775,-1.025
3.780,-1.268
3.785,-1.306
3.790,-1.024
3.795,-0.562
3.800,-0.122
3.805,0.185
3.810,0.352
3.815,0.438
3.820,0.462
3.825,0.443
3.830,0.429
3.835,0.417
3.840,0.368
3.845,0.326
3.850,0.320
3.855,0.309
3.860,0.294
3.865,0.294
3.870,0.288
3.875,0.271
3.880,0.263
3.885,0.257
3.890,0.244
3.895,0.227
3.900,0.214
3.905,0.201
3.910,0.191
3.915,0.182
3.920,0.170
3.925,0.158
3.930,0.151
3.935,0.143
3.940,0.129
3.945,0.114
3.950,0.111
3.955,0.111
3.960,0.104
3.965,0.088
3.970,0.071
3.975,0.061
3.980,0.055
3.985,0.047
3.990,0.044
3.995,0.044
4.000,0.038
4.005,0.029
4.010,0.021
4.015,0.017
4.020,0.009
4.025,-0.007
4.030,-0.014
4.035,-0.012
4.040,-0.010
4.045,-0.010
4.050,-0.020
4.055,-0.031
4.060,-0.029
4.065,-0.031
4.070,-0.040
4.075,-0.043
4.080,-0.043
4.085,-0.046
4.090,-0.050
4.095,-0.058
4.100,-0.061
4.105,-0.063
4.110,-0.066
4.115,-0.069
4.120,-0.076
4.125,-0.087
4.130,-0.100
4.135,-0.110
4.140,-0.115
4.145,-0.116
4.150,-0.114
4.155,-0.116
4.160,-0.119
4.165,-0.122
4.170,-0.120
4.175,-0.105
4.180,-0.086
4.185,-0.072
4.190,-0.062
4.195,-0.051
4.200,-0.028
4.205,-0.006
4.210,0.008
4.215,0.023
4.220,0.034
4.225,0.044
4.230,0.047
4.235,0.048
4.240,0.056
4.245,0.066
4.250,0.065
4.255,0.061
4.260,0.058
4.265,0.055
4.270,0.053
4.275,0.048
4.280,0.043
4.285,0.040
4.290,0.038
4.295,0.040
4.300,0.039
4.305,0.032
4.310,0.031
4.315,0.029
4.320,0.028
4.325,0.025
4.330,0.020
4.335,0.018
4.340,0.016
4.345,0.014
4.350,0.015
4.355,0.014
4.360,0.014
4.365,0.014
4.370,0.009
4.375,0.006
4.380,0.012
4.385,0.014
4.390,0.006
4.395,-0.001
4.400,-0.003
4.405,0.003
4.410,0.007
4.415,0.000
4.420,-0.001
4.425,0.003
4.430,0.001
4.435,-0.005
4.440,-0.008
4.445,-0.005
4.450,0.000
4.455,0.000
4.460,-0.005
4.465,-0.015
4.470,-0.022
4.475,-0.020
4.480,-0.013
4.485,-0.013
4.490,-0.015
4.495,-0.012
4.500,-0.010
4.505,-0.009
4.510,-0.010
4.515,-0.015
4.520,-0.017
4.525,-0.016
4.530,-0.015
4.535,-0.017
4.540,-0.022
4.545,-0.021
4.550,-0.015
4.555,-0.014
4.560,-0.018
4.565,-0.019
4.570,-0.021
4.575,-0.020
4.580,-0.022
4.585,-0.020
4.590,-0.015
4.595,-0.016
4.600,-0.020
4.605,-0.020
4.610,-0.018
4.615,-0.019
4.620,-0.022
4.625,-0.021
4.630,-0.019
4.635,-0.019
4.640,-0.023
4.645,-0.026
4.650,-0.023
4.655,-0.021
4.660,-0.018
4.665,-0.014
4.670,-0.018
4.675,-0.020
4.680,-0.014
4.685,-0.014
4.690,-0.019
4.695,-0.019
4.700,-0.013
4.705,-0.012
4.710,-0.015
4.715,-0.018
4.720,-0.018
4.725,-0.015
4.730,-0.016
4.735,-0.015
4.740,-0.009
4.745,-0.007
4.750,-0.011
4.755,-0.015
4.760,-0.017
4.765,-0.017
4.770,-0.014
4.775,-0.011
4.780,-0.011
4.785,-0.014
4.790,-0.015
4.795,-0.008
4.800,-0.005
4.805,-0.008
4.810,-0.009
4.815,-0.010
4.820,-0.010
4.825,-0.008
4.830,-0.007
4.835,-0.006
4.840,-0.005
4.845,-0.005
4.850,-0.006
4.855,-0.007
4.860,-0.010
4.865,-0.017
4.870,-0.027
4.875,-0.036
4.880,-0.041
4.885,-0.041
4.890,-0.038
4.895,-0.038
4.900,-0.049
4.905,-0.063
4.910,-0.060
4.915,-0.042
4.920,-0.017
4.925,0.001
4.930,0.001
4.935,-0.001
4.940,-0.003
4.945,-0.004
4.950,0.006
4.955,0.019
4.960,0.030
4.965,0.041
4.970,0.046
4.975,0.050
4.980,0.053
4.985,0.050
4.990,0.048
4.995,0.047
5.000,0.046
5.005,0.058
5.010,0.082
5.015,0.084
5.020,0.042
5.025,-0.046
5.030,-0.222
5.035,-0.511
5.040,-0.838
5.045,-1.129
5.050,-1.291
5.055,-1.177
5.060,-0.818
5.065,-0.387
5.070,-0.013
5.075,0.238
5.080,0.382
5.085,0.444
5.090,0.446
5.095,0.427
5.100,0.409
5.105,0.376
5.110,0.334
5.115,0.330
5.120,0.337
5.125,0.317
5.130,0.299
5.135,0.296
5.140,0.284
5.145,0.267
5.150,0.257
5.155,0.248
5.160,0.234
5.165,0.223
5.170,0.214
5.175,0.202
5.180,0.191
5.185,0.182
5.190,0.170
5.195,0.158
5.200,0.148
5.205,0.138
5.210,0.129
5.215,0.120
5.220,0.106
5.225,0.094
5.230,0.088
5.235,0.080
5.240,0.072
5.245,0.064
5.250,0.056
5.255,0.049
5.260,0.044
5.265,0.037
5.270,0.030
5.275,0.027
5.280,0.021
5.285,0.015
5.290,0.010
5.295,0.008
5.300,0.006
5.305,0.000
5.310,-0.007
5.315,-0.010
5.320,-0.014
5.325,-0.021
5.330,-0.028
5.335,-0.029
5.340,-0.030
5.345,-0.031
5.350,-0.035
5.355,-0.041
5.360,-0.047
5.365,-0.054
5.370,-0.059
5.375,-0.060
5.380,-0.063
5.385,-0.072
5.390,-0.080
5.395,-0.089
5.400,-0.099
5.405,-0.106
5.410,-0.113
5.415,-0.117
5.420,-0.123
5.425,-0.128
5.430,-0.130
5.435,-0.126
5.440,-0.118
5.445,-0.107
5.450,-0.091
5.455,-0.074
5.460,-0.057
5.465,-0.041
5.470,-0.026
5.475,-0.012
5.480,0.003
5.485,0.017
5.490,0.027
5.495,0.033
5.500,0.038
5.505,0.041
5.510,0.048
5.515,0.054
5.520,0.053
5.525,0.050
5.530,0.048
5.535,0.045
5.540,0.044
5.545,0.041
5.550,0.037
5.555,0.035
5.560,0.034
5.565,0.033
5.570,0.030
5.575,0.026
5.580,0.021
5.585,0.019
5.590,0.019
5.595,0.021
5.600,0.020
5.605,0.015
5.610,0.015
5.615,0.017
5.620,0.011
5.625,0.009
5.630,0.011
5.635,0.010
5.640,0.010
5.645,0.008
5.650,0.005
5.655,0.005
5.660,0.004
5.665,0.001
5.670,0.001
5.675,0.002
5.680,0.002
5.685,0.001
5.690,0.000
5.695,-0.002
5.700,-0.002
5.705,-0.002
5.710,-0.002
5.715,-0.002
5.720,-0.006
5.725,-0.010
5.730,-0.011
5.735,-0.011
5.740,-0.012
5.745,-0.011
5.750,-0.012
5.755,-0.015
5.760,-0.016
5.765,-0.016
5.770,-0.015
5.775,-0.013
5.780,-0.013
5.785,-0.016
5.790,-0.016
5.795,-0.013
5.800,-0.013
5.805,-0.014
5.810,-0.015
5.815,-0.016
5.820,-0.017
5.825,-0.019
5.830,-0.021
5.835,-0.020
5.840,-0.017
5.845,-0.017
5.850,-0.019
5.855,-0.020
5.860,-0.020
5.865,-0.020
5.870,-0.019
5.875,-0.015
5.880,-0.015
5.885,-0.016
5.890,-0.018
5.895,-0.020
5.900,-0.023
5.905,-0.021
5.910,-0.016
5.915,-0.016
5.920,-0.017
5.925,-0.016
5.930,-0.012
5.935,-0.012
5.940,-0.015
5.945,-0.013
5.950,-0.013
5.955,-0.015
5.960,-0.016
5.965,-0.014
5.970,-0.014
5.975,-0.017
5.980,-0.018
5.985,-0.017
5.990,-0.017
5.995,-0.016
6.000,-0.016
6.005,-0.017
6.010,-0.013
6.015,-0.009
6.020,-0.007
6.025,-0.004
6.030,-0.007
6.035,-0.015
6.040,-0.017
6.045,-0.015
6.050,-0.012
6.055,-0.012
6.060,-0.012
6.065,-0.013
6.070,-0.013
6.075,-0.010
6.080,-0.007
6.085,-0.004
6.090,-0.002
6.095,-0.004
6.100,-0.006
6.105,-0.008
6.110,-0.010
6.115,-0.007
6.120,-0.005
6.125,-0.010
6.130,-0.012
6.135,-0.007
6.140,-0.007
6.145,-0.014
6.150,-0.024
6.155,-0.034
6.160,-0.035
6.165,-0.036
6.170,-0.038
6.175,-0.044
6.180,-0.064
6.185,-0.076
6.190,-0.062
6.195,-0.030
6.200,-0.004
6.205,0.004
6.210,0.004
6.215,0.003
6.220,-0.004
6.225,-0.011
6.230,-0.006
6.235,0.013
6.240,0.034
6.245,0.049
6.250,0.052
6.255,0.051
6.260,0.051
6.265,0.053
6.270,0.051
6.275,0.048
6.280,0.047
6.285,0.055
6.290,0.078
6.295,0.082
6.300,0.046
6.305,-0.032
6.310,-0.198
6.315,-0.474
6.320,-0.795
6.325,-1.090
6.330,-1.268
6.335,-1.177
6.340,-0.833
6.345,-0.411
6.350,-0.040
6.355,0.216
6.360,0.372
6.365,0.446
6.370,0.446
6.375,0.426
6.380,0.415
6.385,0.383
6.390,0.334
6.395,0.321
6.400,0.325
6.405,0.309
6.410,0.296
6.415,0.292
6.420,0.280
6.425,0.265
6.430,0.257
6.435,0.248
6.440,0.230
6.445,0.220
6.450,0.215
6.455,0.197
6.460,0.180
6.465,0.173
6.470,0.166
6.475,0.158
6.480,0.149
6.485,0.134
6.490,0.125
6.495,0.119
6.500,0.111
6.505,0.099
6.510,0.086
6.515,0.078
6.520,0.073
6.525,0.065
6.530,0.053
6.535,0.042
6.540,0.040
6.545,0.039
6.550,0.036
6.555,0.032
6.560,0.023
6.565,0.012
6.570,0.003
6.575,-0.003
6.580,-0.009
6.585,-0.015
6.590,-0.015
6.595,-0.014
6.600,-0.018
6.605,-0.025
6.610,-0.031
6.615,-0.032
6.620,-0.039
6.625,-0.041
6.630,-0.040
6.635,-0.042
6.640,-0.047
6.645,-0.059
6.650,-0.070
6.655,-0.075
6.660,-0.076
6.665,-0.072
6.670,-0.077
6.675,-0.087
6.680,-0.091
6.685,-0.098
6.690,-0.109
6.695,-0.112
6.700,-0.111
6.705,-0.114
6.710,-0.121
6.715,-0.123
6.720,-0.110
6.725,-0.091
6.730,-0.082
6.735,-0.071
6.740,-0.056
6.745,-0.041
6.750,-0.021
6.755,0.002
6.760,0.019
6.765,0.030
6.770,0.035
6.775,0.041
6.780,0.042
6.785,0.040
6.790,0.044
6.795,0.051
6.800,0.058
6.805,0.053
6.810,0.046
6.815,0.046
6.820,0.039
6.825,0.034
6.830,0.038
6.835,0.037
6.840,0.037
6.845,0.038
6.850,0.030
6.855,0.021
6.860,0.020
6.865,0.017
6.870,0.014
6.875,0.015
6.880,0.015
6.885,0.011
6.890,0.009
6.895,0.013
6.900,0.018
6.905,0.020
6.910,0.014
6.915,0.007
6.920,0.008
6.925,0.006
6.930,0.002
6.935,0.002
6.940,0.006
6.945,0.011
6.950,0.004
6.955,-0.003
6.960,-0.001
6.965,-0.001
6.970,-0.004
6.975,-0.004
6.980,-0.003
6.985,-0.003
6.990,-0.003
6.995,-0.006
7.000,-0.005
7.005,-0.008
7.010,-0.008
7.015,-0.004
7.020,-0.007
7.025,-0.011
7.030,-0.017
7.035,-0.022
7.040,-0.016
7.045,-0.009
7.050,-0.008
7.055,-0.009
7.060,-0.014
7.065,-0.013
7.070,-0.007
7.075,-0.012
7.080,-0.020
7.085,-0.023
7.090,-0.024
7.095,-0.017
7.100,-0.017
7.105,-0.021
7.110,-0.018
7.115,-0.017
7.120,-0.019
7.125,-0.022
7.130,-0.019
7.135,-0.014
7.140,-0.017
7.145,-0.022
7.150,-0.025
7.155,-0.021
7.160,-0.011
7.165,-0.012
7.170,-0.018
7.175,-0.020
7.180,-0.026
7.185,-0.023
7.190,-0.011
7.195,-0.013
7.200,-0.018
7.205,-0.021
7.210,-0.023
7.215,-0.020
7.220,-0.018
7.225,-0.014
7.230,-0.012
7.235,-0.018
7.240,-0.022
7.245,-0.015
7.250,-0.003
7.255,-0.009
7.260,-0.022
7.265,-0.019
7.270,-0.013
7.275,-0.011
7.280,-0.007
7.285,-0.006
7.290,-0.010
7.295,-0.017
7.300,-0.016
7.305,-0.013
7.310,-0.011
7.315,-0.012
7.320,-0.011
7.325,-0.007
7.330,-0.012
7.335,-0.012
7.340,-0.002
7.345,-0.004
7.350,-0.019
7.355,-0.022
7.360,-0.007
7.365,0.003
7.370,-0.002
7.375,-0.007
7.380,-0.005
7.385,-0.005
7.390,-0.010
7.395,-0.007
7.400,-0.003
7.405,-0.003
7.410,0.000
7.415,-0.002
7.420,-0.012
7.425,-0.021
7.430,-0.026
7.435,-0.032
7.440,-0.037
7.445,-0.036
7.450,-0.023
7.455,-0.020
7.460,-0.042
7.465,-0.066
7.470,-0.068
7.475,-0.043
7.480,-0.019
7.485,-0.011
7.490,-0.003
7.495,0.002
7.500,0.007
7.505,0.008
7.510,0.008
7.515,0.019
7.520,0.028
7.525,0.034
7.530,0.043
7.535,0.049
7.540,0.047
7.545,0.045
7.550,0.040
7.555,0.037
7.560,0.049
7.565,0.072
7.570,0.086
7.575,0.064
7.580,-0.007
7.585,-0.136
7.590,-0.359
7.595,-0.664
7.600,-0.974
7.605,-1.247
7.610,-1.337
7.615,-1.093
7.620,-0.646
7.625,-0.196
7.630,0.143
7.635,0.341
7.640,0.445
7.645,0.475
7.650,0.453
7.655,0.437
7.660,0.429
7.665,0.376
7.670,0.329
7.675,0.332
7.680,0.328
7.685,0.309
7.690,0.297
7.695,0.285
7.700,0.270
7.705,0.262
7.710,0.259
7.715,0.247
7.720,0.232
7.725,0.222
7.730,0.209
7.735,0.197
7.740,0.186
7.745,0.176
7.750,0.164
7.755,0.153
7.760,0.147
7.765,0.139
7.770,0.129
7.775,0.121
7.780,0.105
7.785,0.087
7.790,0.079
7.795,0.082
7.800,0.079
7.805,0.063
7.810,0.051
7.815,0.044
7.820,0.034
7.825,0.030
7.830,0.033
7.835,0.029
7.840,0.013
7.845,-0.003
7.850,-0.007
7.855,-0.003
7.860,-0.001
7.865,-0.006
7.870,-0.011
7.875,-0.015
7.880,-0.022
7.885,-0.033
7.890,-0.042
7.895,-0.045
7.900,-0.046
7.905,-0.048
7.910,-0.047
7.915,-0.048
7.920,-0.053
7.925,-0.057
7.930,-0.060
7.935,-0.064
7.940,-0.069
7.945,-0.076
7.950,-0.082
7.955,-0.090
7.960,-0.100
7.965,-0.109
7.970,-0.117
7.975,-0.122
7.980,-0.125
7.985,-0.127
7.990,-0.123
7.995,-0.117
8.000,-0.111
8.005,-0.097
8.010,-0.079
8.015,-0.062
8.020,-0.044
8.025,-0.027
8.030,-0.009
8.035,0.010
8.040,0.020
8.045,0.028
8.050,0.037
8.055,0.047
8.060,0.056
8.065,0.056
8.070,0.054
8.075,0.055
8.080,0.060
8.085,0.064
8.090,0.063
8.095,0.057
8.100,0.052
8.105,0.048
8.110,0.045
8.115,0.039
8.120,0.032
8.125,0.030
8.130,0.033
8.135,0.033
8.140,0.026
8.145,0.022
8.150,0.020
8.155,0.018
8.160,0.019
8.165,0.021
8.170,0.019
8.175,0.014
8.180,0.012
8.185,0.014
8.190,0.016
8.195,0.017
8.200,0.014
8.205,0.010
8.210,0.010
8.215,0.009
8.220,0.007
8.225,0.005
8.230,0.002
8.235,0.004
8.240,0.004
8.245,0.001
8.250,0.001
8.255,-0.002
8.260,-0.007
8.265,-0.010
8.270,-0.008
8.275,-0.002
8.280,-0.001
8.285,-0.002
8.290,-0.007
8.295,-0.010
8.300,-0.011
8.305,-0.011
8.310,-0.005
8.315,-0.004
8.320,-0.010
8.325,-0.011
8.330,-0.012
8.335,-0.018
8.340,-0.021
8.345,-0.019
8.350,-0.014
8.355,-0.013
8.360,-0.015
8.365,-0.017
8.370,-0.021
8.375,-0.019
8.380,-0.017
8.385,-0.019
8.390,-0.021
8.395,-0.024
8.400,-0.021
8.405,-0.017
8.410,-0.017
8.415,-0.018
8.420,-0.019
8.425,-0.018
8.430,-0.019
8.435,-0.024
8.440,-0.025
8.445,-0.022
8.450,-0.018
8.455,-0.016
8.460,-0.019
8.465,-0.017
8.470,-0.015
8.475,-0.016
8.480,-0.013
8.485,-0.015
8.490,-0.020
8.495,-0.024
8.500,-0.025
8.505,-0.021
8.510,-0.018
8.515,-0.018
8.520,-0.019
8.525,-0.017
8.530,-0.016
8.535,-0.021
8.540,-0.021
8.545,-0.017
8.550,-0.015
8.555,-0.017
8.560,-0.018
8.565,-0.013
8.570,-0.012
8.575,-0.012
8.580,-0.011
8.585,-0.008
8.590,-0.007
8.595,-0.011
8.600,-0.014
8.605,-0.012
8.610,-0.010
8.615,-0.011
8.620,-0.012
8.625,-0.014
8.630,-0.013
8.635,-0.011
8.640,-0.011
8.645,-0.010
8.650,-0.010
8.655,-0.009
8.660,-0.005
8.665,-0.002
8.670,-0.005
8.675,-0.007
8.680,-0.009
8.685,-0.015
8.690,-0.021
8.695,-0.027
8.700,-0.035
8.705,-0.037
8.710,-0.035
8.715,-0.036
8.720,-0.040
8.725,-0.050
8.730,-0.064
8.735,-0.075
8.740,-0.068
8.745,-0.038
8.750,-0.012
8.755,-0.003
8.760,-0.004
8.765,-0.004
8.770,-0.004
8.775,0.000
8.780,0.015
8.785,0.031
8.790,0.045
8.795,0.052
8.800,0.054
8.805,0.057
8.810,0.058
8.815,0.055
8.820,0.055
8.825,0.052
8.830,0.046
8.835,0.048
8.840,0.071
8.845,0.095
8.850,0.079
8.855,0.023
8.860,-0.094
8.865,-0.324
8.870,-0.646
8.875,-0.970
8.880,-1.227
8.885,-1.289
8.890,-1.053
8.895,-0.636
8.900,-0.219
8.905,0.107
8.910,0.313
8.915,0.420
8.920,0.454
8.925,0.441
8.930,0.423
8.935,0.406
8.940,0.356
8.945,0.320
8.950,0.330
8.955,0.327
8.960,0.304
8.965,0.298
8.970,0.295
8.975,0.276
8.980,0.263
8.985,0.258
8.990,0.243
8.995,0.229
9.000,0.220
9.005,0.208
9.010,0.195
9.015,0.185
9.020,0.175
9.025,0.164
9.030,0.151
9.035,0.140
9.040,0.132
9.045,0.122
9.050,0.112
9.055,0.101
9.060,0.091
9.065,0.084
9.070,0.076
9.075,0.068
9.080,0.060
9.085,0.052
9.090,0.045
9.095,0.040
9.100,0.035
9.105,0.027
9.110,0.020
9.115,0.016
9.120,0.012
9.125,0.006
9.130,0.000
9.135,-0.007
9.140,-0.014
9.145,-0.017
9.150,-0.022
9.155,-0.025
9.160,-0.025
9.165,-0.027
9.170,-0.032
9.175,-0.037
9.180,-0.039
9.185,-0.040
9.190,-0.043
9.195,-0.049
9.200,-0.055
9.205,-0.062
9.210,-0.068
9.215,-0.072
9.220,-0.076
9.225,-0.082
9.230,-0.093
9.235,-0.108
9.240,-0.114
9.245,-0.117
9.250,-0.123
9.255,-0.128
9.260,-0.129
9.265,-0.127
9.270,-0.123
9.275,-0.116
9.280,-0.103
9.285,-0.085
9.290,-0.067
9.295,-0.050
9.300,-0.035
9.305,-0.019
9.310,-0.002
9.315,0.011
9.320,0.020
9.325,0.028
9.330,0.036
9.335,0.041
9.340,0.041
9.345,0.045
9.350,0.052
9.355,0.051
9.360,0.047
9.365,0.041
9.370,0.041
9.375,0.042
9.380,0.039
9.385,0.034
9.390,0.032
9.395,0.032
9.400,0.030
9.405,0.025
9.410,0.021
9.415,0.020
9.420,0.018
9.425,0.017
9.430,0.017
9.435,0.016
9.440,0.015
9.445,0.016
9.450,0.015
9.455,0.012
9.460,0.010
9.465,0.007
9.470,0.004
9.475,0.008
9.480,0.010
9.485,0.009
9.490,0.004
9.495,-0.001
9.500,-0.002
9.505,0.000
9.510,0.003
9.515,0.003
9.520,0.000
9.525,-0.005
9.530,-0.005
9.535,-0.005
9.540,-0.005
9.545,-0.004
9.550,-0.003
9.555,-0.006
9.560,-0.009
9.565,-0.011
9.570,-0.012
9.575,-0.011
9.580,-0.012
9.585,-0.014
9.590,-0.012
9.595,-0.010
9.600,-0.013
9.605,-0.015
9.610,-0.014
9.615,-0.014
9.620,-0.016
9.625,-0.018
9.630,-0.017
9.635,-0.014
9.640,-0.014
9.645,-0.015
9.650,-0.015
9.655,-0.016
9.660,-0.014
9.665,-0.013
9.670,-0.013
9.675,-0.013
9.680,-0.014
9.685,-0.016
9.690,-0.017
9.695,-0.016
9.700,-0.015
9.705,-0.016
9.710,-0.017
9.715,-0.016
9.720,-0.017
9.725,-0.017
9.730,-0.016
9.735,-0.015
9.740,-0.013
9.745,-0.010
9.750,-0.011
9.755,-0.014
9.760,-0.013
9.765,-0.015
9.770,-0.017
9.775,-0.018
9.780,-0.019
9.785,-0.018
9.790,-0.016
9.795,-0.013
9.800,-0.012
9.805,-0.013
9.810,-0.015
9.815,-0.014
9.820,-0.012
9.825,-0.010
9.830,-0.008
9.835,-0.007
9.840,-0.004
9.845,-0.005
9.850,-0.010
9.855,-0.012
9.860,-0.012
9.865,-0.010
9.870,-0.008
9.875,-0.010
9.880,-0.013
9.885,-0.013
9.890,-0.010
9.895,-0.006
9.900,-0.003
9.905,-0.004
9.910,-0.004
9.915,-0.006
9.920,-0.010
9.925,-0.009
9.930,-0.004
9.935,-0.004
9.940,-0.007
9.945,-0.008
9.950,-0.010
9.955,-0.016
9.960,-0.021
9.965,-0.022
9.970,-0.028
9.975,-0.034
9.980,-0.038
9.985,-0.044
9.990,-0.052
9.995,-0.067
10.000,-0.084
10.005,-0.089
10.010,-0.067
10.015,-0.029
10.020,-0.008
10.025,-0.007
10.030,-0.008
10.035,-0.010
10.040,-0.008
10.045,0.008
10.050,0.025
10.055,0.038
10.060,0.047
10.065,0.052
10.070,0.064
10.075,0.069
10.080,0.063
10.085,0.058
10.090,0.055
10.095,0.050
10.100,0.050
10.105,0.057
10.110,0.085
10.115,0.104
10.120,0.075
10.125,0.000
10.130,-0.146
10.135,-0.407
10.140,-0.730
10.145,-1.032
10.150,-1.257
10.155,-1.235
10.160,-0.923
10.165,-0.504
10.170,-0.115
10.175,0.172
10.180,0.346
10.185,0.434
10.190,0.450
10.195,0.433
10.200,0.428
10.205,0.403
10.210,0.343
10.215,0.317
10.220,0.330
10.225,0.322
10.230,0.299
10.235,0.295
10.240,0.287
10.245,0.264
10.250,0.253
10.255,0.250
10.260,0.238
10.265,0.219
10.270,0.205
10.275,0.197
10.280,0.187
10.285,0.177
10.290,0.167
10.295,0.159
10.300,0.150
10.305,0.137
10.310,0.122
10.315,0.110
10.320,0.104
10.325,0.100
10.330,0.093
10.335,0.077
10.340,0.063
10.345,0.062
10.350,0.057
10.355,0.046
10.360,0.035
10.365,0.027
10.370,0.026
10.375,0.024
10.380,0.019
10.385,0.011
10.390,-0.001
10.395,-0.009
10.400,-0.010
10.405,-0.010
10.410,-0.012
10.415,-0.019
10.420,-0.028
10.425,-0.034
10.430,-0.036
10.435,-0.036
10.440,-0.040
10.445,-0.047
10.450,-0.049
10.455,-0.049
10.460,-0.052
10.465,-0.062
10.470,-0.069
10.475,-0.067
10.480,-0.068
10.485,-0.076
10.490,-0.083
10.495,-0.083
10.500,-0.086
10.505,-0.097
10.510,-0.111
10.515,-0.122
10.520,-0.122
10.525,-0.118
10.530,-0.121
10.535,-0.122
10.540,-0.114
10.545,-0.101
10.550,-0.080
10.555,-0.063
10.560,-0.048
10.565,-0.028
10.570,-0.015
10.575,-0.004
10.580,0.012
10.585,0.023
10.590,0.028
10.595,0.032
10.600,0.044
10.605,0.057
10.610,0.062
10.615,0.061
10.620,0.056
10.625,0.054
10.630,0.052
10.635,0.044
10.640,0.040
10.645,0.044
10.650,0.050
10.655,0.048
10.660,0.037
10.665,0.025
10.670,0.023
10.675,0.027
10.680,0.026
10.685,0.018
10.690,0.019
10.695,0.026
10.700,0.026
10.705,0.018
10.710,0.011
10.715,0.011
10.720,0.013
10.725,0.014
10.730,0.012
10.735,0.011
10.740,0.009
10.745,0.005
10.750,0.005
10.755,0.009
10.760,0.011
10.765,0.004
10.770,-0.002
10.775,0.001
10.780,0.005
10.785,0.007
10.790,0.003
10.795,-0.001
10.800,-0.001
10.805,-0.010
10.810,-0.015
10.815,-0.008
10.820,-0.006
10.825,-0.007
10.830,-0.003
10.835,-0.003
10.840,-0.003
10.845,-0.006
10.850,-0.019
10.855,-0.030
10.860,-0.021
10.865,-0.006
10.870,-0.003
10.875,-0.008
10.880,-0.016
10.885,-0.017
10.890,-0.011
10.895,-0.008
10.900,-0.015
10.905,-0.024
10.910,-0.028
10.915,-0.029
10.920,-0.018
10.925,-0.008
10.930,-0.010
10.935,-0.013
10.940,-0.016
10.945,-0.021
10.950,-0.018
10.955,-0.017
10.960,-0.017
10.965,-0.016
10.970,-0.022
10.975,-0.022
10.980,-0.016
10.985,-0.013
10.990,-0.016
10.995,-0.019
11.000,-0.023
11.005,-0.026
11.010,-0.025
11.015,-0.023
11.020,-0.016
11.025,-0.006
11.030,-0.006
11.035,-0.009
11.040,-0.017
11.045,-0.021
11.050,-0.019
11.055,-0.022
11.060,-0.021
11.065,-0.013
11.070,-0.004
11.075,-0.009
11.080,-0.021
11.085,-0.023
11.090,-0.016
11.095,-0.008
11.100,-0.008
11.105,-0.006
11.110,-0.003
11.115,-0.010
11.120,-0.016
11.125,-0.021
11.130,-0.022
11.135,-0.009
11.140,-0.001
11.145,-0.005
11.150,-0.012
11.155,-0.015
11.160,0.001
11.165,0.010
11.170,-0.008
11.175,-0.021
11.180,-0.012
11.185,-0.005
11.190,-0.007
11.195,-0.015
11.200,-0.019
11.205,-0.013
11.210,-0.011
11.215,-0.017
11.220,-0.027
11.225,-0.037
11.230,-0.044
11.235,-0.045
11.240,-0.053
11.245,-0.070
11.250,-0.087
11.255,-0.097
11.260,-0.082
11.265,-0.054
11.270,-0.025
11.275,-0.002
11.280,-0.003
11.285,-0.011
11.290,-0.004
11.295,0.015
11.300,0.030
11.305,0.038
11.310,0.048
11.315,0.055
11.320,0.066
11.325,0.064
11.330,0.056
11.335,0.059
11.340,0.054
11.345,0.048
11.350,0.047
11.355,0.060
11.360,0.100
11.365,0.107
11.370,0.056
11.375,-0.034
11.380,-0.197
11.385,-0.461
11.390,-0.775
11.395,-1.078
11.400,-1.306
11.405,-1.281
11.410,-0.948
11.415,-0.474
11.420,-0.042
11.425,0.240
11.430,0.392
11.435,0.460
11.440,0.466
11.445,0.451
11.450,0.440
11.455,0.417
11.460,0.359
11.465,0.318
11.470,0.323
11.475,0.320
11.480,0.303
11.485,0.303
11.490,0.285
11.495,0.264
11.500,0.263
11.505,0.246
11.510,0.230
11.515,0.229
11.520,0.222
11.525,0.211
11.530,0.193
11.535,0.179
11.540,0.170
11.545,0.158
11.550,0.150
11.555,0.141
11.560,0.127
11.565,0.112
11.570,0.102
11.575,0.098
11.580,0.091
11.585,0.077
11.590,0.067
11.595,0.064
11.600,0.057
11.605,0.049
11.610,0.043
11.615,0.031
11.620,0.019
11.625,0.015
11.630,0.012
11.635,0.010
11.640,0.000
11.645,-0.010
11.650,-0.012
11.655,-0.013
11.660,-0.019
11.665,-0.024
11.670,-0.027
11.675,-0.028
11.680,-0.027
11.685,-0.034
11.690,-0.046
11.695,-0.051
11.700,-0.054
11.705,-0.059
11.710,-0.065
11.715,-0.073
11.720,-0.075
11.725,-0.072
11.730,-0.074
11.735,-0.080
11.740,-0.085
11.745,-0.086
11.750,-0.092
11.755,-0.110
11.760,-0.122
11.765,-0.123
11.770,-0.125
11.775,-0.128
11.780,-0.134
11.785,-0.131
11.790,-0.114
11.795,-0.096
11.800,-0.083
11.805,-0.073
11.810,-0.055
11.815,-0.033
11.820,-0.014
11.825,0.002
11.830,0.008
11.835,0.017
11.840,0.034
11.845,0.046
11.850,0.049
11.855,0.053
11.860,0.058
11.865,0.060
11.870,0.060
11.875,0.060
11.880,0.065
11.885,0.065
11.890,0.055
11.895,0.050
11.900,0.043
11.905,0.036
11.910,0.039
11.915,0.045
11.920,0.042
11.925,0.033
11.930,0.025
11.935,0.021
11.940,0.027
11.945,0.028
11.950,0.021
11.955,0.019
11.960,0.017
11.965,0.017
11.970,0.022
11.975,0.019
11.980,0.015
11.985,0.011
11.990,0.011
11.995,0.016
12.000,0.013
12.005,0.007
12.010,0.005
12.015,0.002
12.020,-0.004
12.025,-0.005
12.030,0.001
12.035,0.008
12.040,0.008
12.045,0.003
12.050,-0.001
12.055,-0.002
12.060,-0.007
12.065,-0.012
12.070,-0.008
12.075,-0.002
12.080,-0.003
12.085,-0.010
12.090,-0.015
12.095,-0.011
12.100,-0.006
12.105,-0.013
12.110,-0.017
12.115,-0.011
12.120,-0.010
12.125,-0.010
12.130,-0.014
12.135,-0.019
12.140,-0.017
12.145,-0.019
12.150,-0.021
12.155,-0.021
12.160,-0.021
12.165,-0.020
12.170,-0.020
12.175,-0.022
12.180,-0.023
12.185,-0.024
12.190,-0.021
12.195,-0.014
12.200,-0.010
12.205,-0.014
12.210,-0.022
12.215,-0.024
12.220,-0.018
12.225,-0.012
12.230,-0.014
12.235,-0.024
12.240,-0.030
12.245,-0.029
12.250,-0.023
12.255,-0.020
12.260,-0.018
12.265,-0.016
12.270,-0.015
12.275,-0.016
12.280,-0.018
12.285,-0.019
12.290,-0.017
12.295,-0.019
12.300,-0.024
12.305,-0.020
12.310,-0.012
12.315,-0.011
12.320,-0.014
12.325,-0.016
12.330,-0.014
12.335,-0.015
12.340,-0.018
12.345,-0.016
12.350,-0.013
12.355,-0.015
12.360,-0.015
12.365,-0.014
12.370,-0.011
12.375,-0.009
12.380,-0.012
12.385,-0.017
12.390,-0.018
12.395,-0.012
12.400,-0.007
12.405,-0.011
12.410,-0.013
12.415,-0.010
12.420,-0.008
12.425,-0.008
12.430,-0.013
12.435,-0.018
12.440,-0.024
12.445,-0.033
12.450,-0.038
12.455,-0.036
12.460,-0.041
12.465,-0.058
12.470,-0.075
12.475,-0.090
12.480,-0.102
12.485,-0.093
12.490,-0.064
12.495,-0.026
12.500,-0.003
12.505,0.000
12.510,-0.001
12.515,-0.003
12.520,0.000
12.525,0.013
12.530,0.033
12.535,0.050
12.540,0.057
12.545,0.061
12.550,0.063
12.555,0.060
12.560,0.058
12.565,0.056
12.570,0.051
12.575,0.049
12.580,0.059
12.585,0.087
12.590,0.102
12.595,0.074
12.600,0.009
12.605,-0.129
12.610,-0.382
12.615,-0.712
12.620,-1.032
12.625,-1.271
12.630,-1.287
12.635,-1.002
12.640,-0.557
12.645,-0.133
12.650,0.170
12.655,0.347
12.660,0.435
12.665,0.458
12.670,0.439
12.675,0.419
12.680,0.401
12.685,0.356
12.690,0.331
12.695,0.340
12.700,0.330
12.705,0.303
12.710,0.297
12.715,0.293
12.720,0.276
12.725,0.265
12.730,0.258
12.735,0.243
12.740,0.231
12.745,0.222
12.750,0.211
12.755,0.199
12.760,0.187
12.765,0.177
12.770,0.165
12.775,0.153
12.780,0.144
12.785,0.132
12.790,0.120
12.795,0.112
12.800,0.100
12.805,0.087
12.810,0.080
12.815,0.075
12.820,0.067
12.825,0.059
12.830,0.053
12.835,0.044
12.840,0.036
12.845,0.031
12.850,0.025
12.855,0.017
12.860,0.011
12.865,0.008
12.870,0.003
12.875,-0.004
12.880,-0.007
12.885,-0.009
12.890,-0.010
12.895,-0.012
12.900,-0.020
12.905,-0.027
12.910,-0.028
12.915,-0.032
12.920,-0.037
12.925,-0.041
12.930,-0.043
12.935,-0.045
12.940,-0.050
12.945,-0.062
12.950,-0.070
12.955,-0.071
12.960,-0.077
12.965,-0.083
12.970,-0.090
12.975,-0.099
12.980,-0.103
12.985,-0.114
12.990,-0.125
12.995,-0.128
13.000,-0.132
13.005,-0.134
13.010,-0.133
13.015,-0.129
13.020,-0.117
13.025,-0.101
13.030,-0.084
13.035,-0.067
13.040,-0.050
13.045,-0.032
13.050,-0.016
13.055,-0.002
13.060,0.010
13.065,0.022
13.070,0.031
13.075,0.038
13.080,0.045
13.085,0.051
13.090,0.050
13.095,0.047
13.100,0.046
13.105,0.047
13.110,0.047
13.115,0.043
13.120,0.039
13.125,0.038
13.130,0.036
13.135,0.033
13.140,0.033
13.145,0.035
13.150,0.032
13.155,0.027
13.160,0.025
13.165,0.024
13.170,0.020
13.175,0.016
13.180,0.017
13.185,0.019
13.190,0.018
13.195,0.017
13.200,0.014
13.205,0.010
13.210,0.012
13.215,0.010
13.220,0.006
13.225,0.006
13.230,0.005
13.235,0.005
13.240,0.006
13.245,0.006
13.250,0.005
13.255,0.001
13.260,-0.002
13.265,-0.002
13.270,-0.003
13.275,-0.005
13.280,-0.006
13.285,-0.006
13.290,-0.006
13.295,-0.005
13.300,-0.007
13.305,-0.007
13.310,-0.006
13.315,-0.008
13.320,-0.009
13.325,-0.010
13.330,-0.011
13.335,-0.012
13.340,-0.011
13.345,-0.011
13.350,-0.011
13.355,-0.011
13.360,-0.012
13.365,-0.012
13.370,-0.012
13.375,-0.017
13.380,-0.018
13.385,-0.015
13.390,-0.012
13.395,-0.009
13.400,-0.014
13.405,-0.018
13.410,-0.018
13.415,-0.018
13.420,-0.019
13.425,-0.019
13.430,-0.015
13.435,-0.013
13.440,-0.014
13.445,-0.014
13.450,-0.012
13.455,-0.017
13.460,-0.020
13.465,-0.018
13.470,-0.018
13.475,-0.016
13.480,-0.015
13.485,-0.017
13.490,-0.015
13.495,-0.013
13.500,-0.015
13.505,-0.015
13.510,-0.015
13.515,-0.016
13.520,-0.015
13.525,-0.015
13.530,-0.016
13.535,-0.015
13.540,-0.013
13.545,-0.010
13.550,-0.011
13.555,-0.014
13.560,-0.014
13.565,-0.012
13.570,-0.011
13.575,-0.012
13.580,-0.013
13.585,-0.014
13.590,-0.013
13.595,-0.012
13.600,-0.010
13.605,-0.009
13.610,-0.008
13.615,-0.008
13.620,-0.009
13.625,-0.007
13.630,-0.005
13.635,-0.005
13.640,-0.008
13.645,-0.009
13.650,-0.007
13.655,-0.006
13.660,-0.005
13.665,-0.007
13.670,-0.008
13.675,-0.006
13.680,-0.006
13.685,-0.007
13.690,-0.008
13.695,-0.008
13.700,-0.012
13.705,-0.020
13.710,-0.029
13.715,-0.034
13.720,-0.035
13.725,-0.039
13.730,-0.051
13.735,-0.063
13.740,-0.075
13.745,-0.087
13.750,-0.088
13.755,-0.063
13.760,-0.026
13.765,-0.005
13.770,-0.003
13.775,-0.006
13.780,-0.005
13.785,0.002
13.790,0.017
13.795,0.037
13.800,0.051
13.805,0.053
13.810,0.058
13.815,0.067
13.820,0.066
13.825,0.063
13.830,0.060
13.835,0.055
13.840,0.050
13.845,0.053
13.850,0.073
13.855,0.096
13.860,0.086
13.865,0.035
13.870,-0.074
13.875,-0.298
13.880,-0.622
13.885,-0.943
13.890,-1.192
13.895,-1.248
13.900,-1.012
13.905,-0.608
13.910,-0.206
13.915,0.108
13.920,0.296
13.925,0.396
13.930,0.438
13.935,0.428
13.940,0.408
13.945,0.390
13.950,0.346
13.955,0.316
13.960,0.325
13.965,0.322
13.970,0.298
13.975,0.293
13.980,0.290
13.985,0.269
13.990,0.253
13.995,0.249
14.000,0.237
14.005,0.221
14.010,0.210
14.015,0.200
14.020,0.190
14.025,0.182
14.030,0.173
14.035,0.161
14.040,0.150
14.045,0.140
14.050,0.127
14.055,0.114
14.060,0.106
14.065,0.095
14.070,0.086
14.075,0.080
14.080,0.071
14.085,0.064
14.090,0.056
14.095,0.051
14.100,0.044
14.105,0.033
14.110,0.026
14.115,0.021
14.120,0.016
14.125,0.013
14.130,0.008
14.135,0.002
14.140,-0.004
14.145,-0.011
14.150,-0.013
14.155,-0.015
14.160,-0.018
14.165,-0.022
14.170,-0.030
14.175,-0.034
14.180,-0.033
14.185,-0.035
14.190,-0.037
14.195,-0.044
14.200,-0.053
14.205,-0.059
14.210,-0.063
14.215,-0.068
14.220,-0.068
14.225,-0.069
14.230,-0.076
14.235,-0.086
14.240,-0.096
14.245,-0.098
14.250,-0.103
14.255,-0.116
14.260,-0.126
14.265,-0.128
14.270,-0.129
14.275,-0.125
14.280,-0.117
14.285,-0.111
14.290,-0.104
14.295,-0.094
14.300,-0.078
14.305,-0.053
14.310,-0.030
14.315,-0.012
14.320,-0.001
14.325,0.009
14.330,0.022
14.335,0.029
14.340,0.034
14.345,0.043
14.350,0.051
14.355,0.053
14.360,0.049
14.365,0.048
14.370,0.048
14.375,0.051
14.380,0.051
14.385,0.041
14.390,0.035
14.395,0.035
14.400,0.036
14.405,0.040
14.410,0.041
14.415,0.030
14.420,0.020
14.425,0.022
14.430,0.028
14.435,0.027
14.440,0.022
14.445,0.018
14.450,0.020
14.455,0.023
14.460,0.019
14.465,0.013
14.470,0.012
14.475,0.013
14.480,0.009
14.485,0.006
14.490,0.007
14.495,0.009
14.500,0.009
14.505,0.006
14.510,0.005
14.515,0.004
14.520,0.001
14.525,0.001
14.530,0.006
14.535,0.005
14.540,-0.005
14.545,-0.007
14.550,-0.006
14.555,-0.006
14.560,-0.004
14.565,-0.003
14.570,-0.004
14.575,-0.007
14.580,-0.011
14.585,-0.012
14.590,-0.011
14.595,-0.008
14.600,-0.010
14.605,-0.013
14.610,-0.012
14.615,-0.010
14.620,-0.010
14.625,-0.011
14.630,-0.015
14.635,-0.015
14.640,-0.018
14.645,-0.023
14.650,-0.016
14.655,-0.010
14.660,-0.009
14.665,-0.010
14.670,-0.015
14.675,-0.016
14.680,-0.019
14.685,-0.021
14.690,-0.018
14.695,-0.013
14.700,-0.011
14.705,-0.014
14.710,-0.019
14.715,-0.023
14.720,-0.022
14.725,-0.019
14.730,-0.019
14.735,-0.020
14.740,-0.016
14.745,-0.013
14.750,-0.017
14.755,-0.019
14.760,-0.015
14.765,-0.012
14.770,-0.016
14.775,-0.021
14.780,-0.021
14.785,-0.020
14.790,-0.018
14.795,-0.016
14.800,-0.012
14.805,-0.012
14.810,-0.016
14.815,-0.021
14.820,-0.021
14.825,-0.012
14.830,-0.011
14.835,-0.014
14.840,-0.010
14.845,-0.013
14.850,-0.012
14.855,-0.009
14.860,-0.013
14.865,-0.011
14.870,-0.014
14.875,-0.018
14.880,-0.011
14.885,-0.008
14.890,-0.008
14.895,-0.008
14.900,-0.012
14.905,-0.009
14.910,-0.001
14.915,-0.002
14.920,-0.007
14.925,-0.009
14.930,-0.008
14.935,-0.009
14.940,-0.011
14.945,-0.010
14.950,-0.007
14.955,-0.006
14.960,-0.005
14.965,-0.009
14.970,-0.016
14.975,-0.019
14.980,-0.022
14.985,-0.027
14.990,-0.035
14.995,-0.044
15.000,-0.051
15.005,-0.067
15.010,-0.087
15.015,-0.102
15.020,-0.099
15.025,-0.069
15.030,-0.026
15.035,-0.002
15.040,-0.003
15.045,-0.007
15.050,-0.002
15.055,0.009
15.060,0.024
15.065,0.036
15.070,0.046
15.075,0.058
15.080,0.069
15.085,0.072
15.090,0.069
15.095,0.060
15.100,0.055
15.105,0.053
15.110,0.050
15.115,0.054
15.120,0.075
15.125,0.094
15.130,0.079
15.135,0.018
15.140,-0.103
15.145,-0.317
15.150,-0.612
15.155,-0.911
15.160,-1.178
15.165,-1.287
15.170,-1.078
15.175,-0.654
15.180,-0.222
15.185,0.105
15.190,0.314
15.195,0.435
15.200,0.471
15.205,0.447
15.210,0.424
15.215,0.412
15.220,0.371
15.225,0.326
15.230,0.321
15.235,0.321
15.240,0.304
15.245,0.296
15.250,0.289
15.255,0.262
15.260,0.250
15.265,0.255
15.270,0.247
15.275,0.224
15.280,0.203
15.285,0.191
15.290,0.184
15.295,0.173
15.300,0.166
15.305,0.165
15.310,0.162
15.315,0.147
15.320,0.122
15.325,0.110
15.330,0.108
15.335,0.100
15.340,0.083
15.345,0.072
15.350,0.074
15.355,0.068
15.360,0.056
15.365,0.046
15.370,0.033
15.375,0.029
15.380,0.027
15.385,0.020
15.390,0.013
15.395,0.004
15.400,0.001
15.405,0.002
15.410,-0.006
15.415,-0.018
15.420,-0.028
15.425,-0.034
15.430,-0.033
15.435,-0.031
15.440,-0.029
15.445,-0.025
15.450,-0.035
15.455,-0.050
15.460,-0.055
15.465,-0.055
15.470,-0.057
15.475,-0.060
15.480,-0.067
15.485,-0.071
15.490,-0.070
15.495,-0.073
15.500,-0.078
15.505,-0.086
15.510,-0.095
15.515,-0.108
15.520,-0.121
15.525,-0.118
15.530,-0.114
15.535,-0.122
15.540,-0.129
15.545,-0.133
15.550,-0.129
15.555,-0.117
15.560,-0.103
15.565,-0.086
15.570,-0.069
15.575,-0.049
15.580,-0.027
15.585,-0.010
15.590,-0.003
15.595,0.002
15.600,0.019
15.605,0.035
15.610,0.042
15.615,0.049
15.620,0.059
15.625,0.065
15.630,0.063
15.635,0.059
15.640,0.058
15.645,0.051
15.650,0.046
15.655,0.048
15.660,0.049
15.665,0.046
15.670,0.042
15.675,0.046
15.680,0.050
15.685,0.042
15.690,0.029
15.695,0.023
15.700,0.019
15.705,0.016
15.710,0.021
15.715,0.030
15.720,0.032
15.725,0.025
15.730,0.020
15.735,0.019
15.740,0.016
15.745,0.015
15.750,0.015
15.755,0.012
15.760,0.015
15.765,0.015
15.770,0.005
15.775,0.007
15.780,0.015
15.785,0.014
15.790,0.009
15.795,0.002
15.800,-0.001
15.805,0.002
15.810,0.001
15.815,0.000
15.820,-0.006
15.825,-0.013
15.830,-0.011
15.835,-0.003
15.840,-0.003
15.845,-0.006
15.850,-0.003
15.855,-0.003
15.860,-0.006
15.865,-0.012
15.870,-0.008
15.875,-0.002
15.880,-0.010
15.885,-0.020
15.890,-0.019
15.895,-0.012
15.900,-0.009
15.905,-0.011
15.910,-0.011
15.915,-0.016
15.920,-0.024
15.925,-0.022
15.930,-0.015
15.935,-0.010
15.940,-0.016
15.945,-0.023
15.950,-0.018
15.955,-0.012
15.960,-0.011
15.965,-0.017
15.970,-0.025
15.975,-0.027
15.980,-0.021
15.985,-0.011
15.990,-0.006
15.995,-0.017
16.000,-0.025
16.005,-0.024
16.010,-0.019
16.015,-0.013
16.020,-0.013
16.025,-0.012
16.030,-0.018
16.035,-0.027
16.040,-0.021
16.045,-0.012
16.050,-0.014
16.055,-0.020
16.060,-0.020
16.065,-0.014
16.070,-0.009
16.075,-0.007
16.080,-0.006
16.085,-0.015
16.090,-0.025
16.095,-0.024
16.100,-0.017
16.105,-0.009
16.110,-0.006
16.115,-0.007
16.120,-0.013
16.125,-0.017
16.130,-0.017
16.135,-0.015
16.140,-0.011
16.145,-0.009
16.150,-0.007
16.155,-0.006
16.160,-0.010
16.165,-0.010
16.170,-0.011
16.175,-0.013
16.180,-0.014
16.185,-0.015
16.190,-0.014
16.195,-0.011
16.200,-0.008
16.205,-0.007
16.210,-0.008
16.215,-0.013
16.220,-0.021
16.225,-0.030
16.230,-0.042
16.235,-0.052
16.240,-0.050
16.245,-0.051
16.250,-0.066
16.255,-0.087
16.260,-0.102
16.265,-0.084
16.270,-0.049
16.275,-0.025
16.280,-0.012
16.285,-0.011
16.290,-0.012
16.295,-0.002
16.300,0.014
16.305,0.030
16.310,0.045
16.315,0.054
16.320,0.055
16.325,0.066
16.330,0.069
16.335,0.060
16.340,0.060
16.345,0.061
16.350,0.056
16.355,0.052
16.360,0.061
16.365,0.089
16.370,0.093
16.375,0.049
16.380,-0.041
16.385,-0.215
16.390,-0.499
16.395,-0.832
16.400,-1.137
16.405,-1.334
16.410,-1.249
16.415,-0.879
16.420,-0.410
16.425,0.001
16.430,0.267
16.435,0.403
16.440,0.460
16.445,0.463
16.450,0.447
16.455,0.436
16.460,0.406
16.465,0.354
16.470,0.334
16.475,0.336
16.480,0.319
16.485,0.305
16.490,0.307
16.495,0.295
16.500,0.276
16.505,0.268
16.510,0.257
16.515,0.239
16.520,0.224
16.525,0.211
16.530,0.202
16.535,0.197
16.540,0.190
16.545,0.177
16.550,0.160
16.555,0.144
16.560,0.134
16.565,0.127
16.570,0.119
16.575,0.110
16.580,0.100
16.585,0.087
16.590,0.078
16.595,0.072
16.600,0.067
16.605,0.063
16.610,0.054
16.615,0.039
16.620,0.028
16.625,0.024
16.630,0.018
16.635,0.012
16.640,0.008
16.645,0.008
16.650,0.004
16.655,-0.007
16.660,-0.015
16.665,-0.016
16.670,-0.014
16.675,-0.016
16.680,-0.026
16.685,-0.038
16.690,-0.043
16.695,-0.038
16.700,-0.037
16.705,-0.041
16.710,-0.046
16.715,-0.051
16.720,-0.058
16.725,-0.062
16.730,-0.064
16.735,-0.067
16.740,-0.075
16.745,-0.082
16.750,-0.089
16.755,-0.100
16.760,-0.111
16.765,-0.120
16.770,-0.123
16.775,-0.124
16.780,-0.129
16.785,-0.130
16.790,-0.129
16.795,-0.125
16.800,-0.115
16.805,-0.101
16.810,-0.081
16.815,-0.061
16.820,-0.045
16.825,-0.028
16.830,-0.011
16.835,0.005
16.840,0.018
16.845,0.027
16.850,0.034
16.855,0.039
16.860,0.046
16.865,0.051
16.870,0.051
16.875,0.049
16.880,0.047
16.885,0.048
16.890,0.051
16.895,0.050
16.900,0.046
16.905,0.040
16.910,0.036
16.915,0.035
16.920,0.032
16.925,0.028
16.930,0.024
16.935,0.021
16.940,0.022
16.945,0.023
16.950,0.021
16.955,0.021
16.960,0.023
16.965,0.024
16.970,0.021
16.975,0.017
16.980,0.013
16.985,0.010
16.990,0.010
16.995,0.009
17.000,0.010
17.005,0.011
17.010,0.009
17.015,0.010
17.020,0.008
17.025,0.004
17.030,0.000
17.035,-0.004
17.040,-0.004
17.045,-0.003
17.050,-0.003
17.055,-0.001
17.060,0.000
17.065,-0.003
17.070,-0.006
17.075,-0.007
17.080,-0.005
17.085,-0.005
17.090,-0.010
17.095,-0.009
17.100,-0.010
17.105,-0.014
17.110,-0.012
17.115,-0.010
17.120,-0.010
17.125,-0.012
17.130,-0.017
17.135,-0.018
17.140,-0.017
17.145,-0.015
17.150,-0.013
17.155,-0.013
17.160,-0.016
17.165,-0.019
17.170,-0.021
17.175,-0.018
17.180,-0.016
17.185,-0.017
17.190,-0.016
17.195,-0.011
17.200,-0.010
17.205,-0.016
17.210,-0.021
17.215,-0.021
17.220,-0.020
17.225,-0.018
17.230,-0.015
17.235,-0.012
17.240,-0.014
17.245,-0.021
17.250,-0.023
17.255,-0.018
17.260,-0.013
17.265,-0.014
17.270,-0.017
17.275,-0.016
17.280,-0.015
17.285,-0.017
17.290,-0.019
17.295,-0.018
17.300,-0.015
17.305,-0.014
17.310,-0.015
17.315,-0.015
17.320,-0.013
17.325,-0.012
17.330,-0.012
17.335,-0.016
17.340,-0.021
17.345,-0.018
17.350,-0.014
17.355,-0.013
17.360,-0.012
17.365,-0.011
17.370,-0.010
17.375,-0.009
17.380,-0.010
17.385,-0.012
17.390,-0.013
17.395,-0.012
17.400,-0.012
17.405,-0.010
17.410,-0.006
17.415,-0.005
17.420,-0.005
17.425,-0.007
17.430,-0.010
17.435,-0.007
17.440,-0.005
17.445,-0.009
17.450,-0.015
17.455,-0.018
17.460,-0.020
17.465,-0.025
17.470,-0.031
17.475,-0.037
17.480,-0.044
17.485,-0.053
17.490,-0.059
17.495,-0.066
17.500,-0.081
17.505,-0.095
17.510,-0.082
17.515,-0.045
17.520,-0.012
17.525,0.004
17.530,0.001
17.535,-0.007
17.540,-0.007
17.545,0.009
17.550,0.025
17.555,0.037
17.560,0.047
17.565,0.056
17.570,0.065
17.575,0.067
17.580,0.062
17.585,0.059
17.590,0.058
17.595,0.057
17.600,0.056
17.605,0.065
17.610,0.089
17.615,0.099
17.620,0.066
17.625,-0.010
17.630,-0.168
17.635,-0.448
17.640,-0.784
17.645,-1.084
17.650,-1.274
17.655,-1.204
17.660,-0.865
17.665,-0.435
17.670,-0.051
17.675,0.213
17.680,0.359
17.685,0.430
17.690,0.447
17.695,0.427
17.700,0.405
17.705,0.373
17.710,0.328
17.715,0.321
17.720,0.335
17.725,0.318
17.730,0.299
17.735,0.295
17.740,0.282
17.745,0.265
17.750,0.256
17.755,0.246
17.760,0.233
17.765,0.220
17.770,0.209
17.775,0.199
17.780,0.188
17.785,0.174
17.790,0.163
17.795,0.155
17.800,0.149
17.805,0.138
17.810,0.123
17.815,0.113
17.820,0.108
17.825,0.099
17.830,0.086
17.835,0.077
17.840,0.071
17.845,0.064
17.850,0.056
17.855,0.047
17.860,0.041
17.865,0.036
17.870,0.029
17.875,0.023
17.880,0.018
17.885,0.012
17.890,0.007
17.895,0.002
17.900,-0.004
17.905,-0.010
17.910,-0.012
17.915,-0.014
17.920,-0.018
17.925,-0.023
17.930,-0.029
17.935,-0.033
17.940,-0.033
17.945,-0.035
17.950,-0.038
17.955,-0.046
17.960,-0.051
17.965,-0.053
17.970,-0.061
17.975,-0.067
17.980,-0.068
17.985,-0.073
17.990,-0.079
17.995,-0.086
18.000,-0.095
18.005,-0.104
18.010,-0.113
18.015,-0.120
18.020,-0.127
18.025,-0.132
18.030,-0.132
18.035,-0.130
18.040,-0.125
18.045,-0.114
18.050,-0.098
18.055,-0.082
18.060,-0.064
18.065,-0.044
18.070,-0.031
18.075,-0.019
18.080,-0.006
18.085,0.011
18.090,0.029
18.095,0.037
18.100,0.038
18.105,0.042
18.110,0.047
18.115,0.050
18.120,0.050
18.125,0.049
18.130,0.046
18.135,0.045
18.140,0.045
18.145,0.042
18.150,0.038
18.155,0.034
18.160,0.033
18.165,0.034
18.170,0.033
18.175,0.029
18.180,0.028
18.185,0.027
18.190,0.022
18.195,0.017
18.200,0.018
18.205,0.019
18.210,0.016
18.215,0.012
18.220,0.011
18.225,0.011
18.230,0.014
18.235,0.015
18.240,0.016
18.245,0.013
18.250,0.007
18.255,0.005
18.260,0.006
18.265,0.003
18.270,-0.004
18.275,-0.003
18.280,0.002
18.285,0.003
18.290,0.003
18.295,0.001
18.300,-0.003
18.305,-0.006
18.310,-0.005
18.315,-0.006
18.320,-0.009
18.325,-0.010
18.330,-0.010
18.335,-0.011
18.340,-0.010
18.345,-0.011
18.350,-0.013
18.355,-0.015
18.360,-0.012
18.365,-0.009
18.370,-0.015
18.375,-0.019
18.380,-0.015
18.385,-0.014
18.390,-0.016
18.395,-0.019
18.400,-0.019
18.405,-0.015
18.410,-0.014
18.415,-0.015
18.420,-0.016
18.425,-0.019
18.430,-0.022
18.435,-0.021
18.440,-0.019
18.445,-0.022
18.450,-0.024
18.455,-0.021
18.460,-0.017
18.465,-0.014
18.470,-0.017
18.475,-0.020
18.480,-0.017
18.485,-0.018
18.490,-0.020
18.495,-0.017
18.500,-0.016
18.505,-0.019
18.510,-0.021
18.515,-0.020
18.520,-0.016
18.525,-0.018
18.530,-0.020
18.535,-0.011
18.540,-0.007
18.545,-0.008
18.550,-0.011
18.555,-0.017
18.560,-0.017
18.565,-0.014
18.570,-0.015
18.575,-0.016
18.580,-0.016
18.585,-0.015
18.590,-0.011
18.595,-0.008
18.600,-0.011
18.605,-0.010
18.610,-0.006
18.615,-0.001
18.620,-0.003
18.625,-0.007
18.630,-0.010
18.635,-0.013
18.640,-0.010
18.645,-0.007
18.650,-0.009
18.655,-0.012
18.660,-0.012
18.665,-0.010
18.670,-0.009
18.675,-0.007
18.680,-0.006
18.685,-0.003
18.690,0.001
18.695,-0.001
18.700,-0.005
18.705,-0.006
18.710,-0.001
18.715,0.004
18.720,-0.003
18.725,-0.004
18.730,0.000
18.735,-0.002
18.740,0.001
18.745,-0.001
18.750,-0.009
18.755,-0.015
18.760,-0.018
18.765,-0.024
18.770,-0.031
18.775,-0.034
18.780,-0.043
18.785,-0.054
18.790,-0.067
18.795,-0.087
18.800,-0.095
18.805,-0.076
18.810,-0.044
18.815,-0.011
18.820,0.005
18.825,0.004
18.830,0.003
18.835,0.008
18.840,0.020
18.845,0.032
18.850,0.043
18.855,0.051
18.860,0.058
18.865,0.063
18.870,0.059
18.875,0.059
18.880,0.064
18.885,0.064
18.890,0.058
18.895,0.053
18.900,0.065
18.905,0.089
18.910,0.094
18.915,0.059
18.920,-0.022
18.925,-0.187
18.930,-0.460
18.935,-0.779
18.940,-1.072
18.945,-1.264
18.950,-1.180
18.955,-0.827
18.960,-0.402
18.965,-0.029
18.970,0.229
18.975,0.382
18.980,0.453
18.985,0.448
18.990,0.424
18.995,0.421
19.000,0.394
19.005,0.337
19.010,0.320
19.015,0.325
19.020,0.304
19.025,0.288
19.030,0.288
19.035,0.278
19.040,0.264
19.045,0.258
19.050,0.249
19.055,0.229
19.060,0.213
19.065,0.208
19.070,0.200
19.075,0.187
19.080,0.176
19.085,0.164
19.090,0.156
19.095,0.147
19.100,0.132
19.105,0.118
19.110,0.109
19.115,0.099
19.120,0.087
19.125,0.080
19.130,0.078
19.135,0.072
19.140,0.062
19.145,0.049
19.150,0.038
19.155,0.031
19.160,0.028
19.165,0.025
19.170,0.017
19.175,0.007
19.180,0.004
19.185,0.000
19.190,-0.010
19.195,-0.018
19.200,-0.020
19.205,-0.020
19.210,-0.026
19.215,-0.030
19.220,-0.027
19.225,-0.027
19.230,-0.036
19.235,-0.048
19.240,-0.051
19.245,-0.048
19.250,-0.048
19.255,-0.056
19.260,-0.060
19.265,-0.063
19.270,-0.067
19.275,-0.069
19.280,-0.075
19.285,-0.084
19.290,-0.092
19.295,-0.098
19.300,-0.100
19.305,-0.105
19.310,-0.115
19.315,-0.128
19.320,-0.137
19.325,-0.136
19.330,-0.123
19.335,-0.110
19.340,-0.099
19.345,-0.091
19.350,-0.080
19.355,-0.059
19.360,-0.039
19.365,-0.024
19.370,-0.012
19.375,-0.003
19.380,0.009
19.385,0.026
19.390,0.039
19.395,0.050
19.400,0.056
19.405,0.057
19.410,0.057
19.415,0.053
19.420,0.049
19.425,0.054
19.430,0.056
19.435,0.054
19.440,0.050
19.445,0.045
19.450,0.043
19.455,0.039
19.460,0.034
19.465,0.031
19.470,0.027
19.475,0.029
19.480,0.028
19.485,0.023
19.490,0.024
19.495,0.025
19.500,0.022
19.505,0.021
19.510,0.023
19.515,0.025
19.520,0.020
19.525,0.007
19.530,0.003
19.535,0.005
19.540,0.007
19.545,0.012
19.550,0.014
19.555,0.012
19.560,0.010
19.565,0.008
19.570,0.009
19.575,0.016
19.580,0.016
19.585,0.002
19.590,-0.010
19.595,-0.010
19.600,-0.010
19.605,-0.012
19.610,-0.005
19.615,0.010
19.620,0.010
19.625,-0.003
19.630,-0.012
19.635,-0.016
19.640,-0.016
19.645,-0.014
19.650,-0.015
19.655,-0.016
19.660,-0.015
19.665,-0.012
19.670,-0.006
19.675,-0.005
19.680,-0.015
19.685,-0.021
19.690,-0.015
19.695,-0.016
19.700,-0.019
19.705,-0.015
19.710,-0.016
19.715,-0.019
19.720,-0.021
19.725,-0.024
19.730,-0.020
19.735,-0.014
19.740,-0.013
19.745,-0.015
19.750,-0.022
19.755,-0.029
19.760,-0.025
19.765,-0.015
19.770,-0.013
19.775,-0.017
19.780,-0.017
19.785,-0.017
19.790,-0.020
19.795,-0.017
19.800,-0.017
19.805,-0.026
19.810,-0.026
19.815,-0.019
19.820,-0.014
19.825,-0.010
19.830,-0.014
19.835,-0.016
19.840,-0.016
19.845,-0.026
19.850,-0.025
19.855,-0.018
19.860,-0.018
19.865,-0.016
19.870,-0.018
19.875,-0.017
19.880,-0.008
19.885,-0.010
19.890,-0.016
19.895,-0.017
19.900,-0.015
19.905,-0.004
19.910,-0.003
19.915,-0.020
19.920,-0.031
19.925,-0.022
19.930,-0.010
19.935,-0.005
19.940,-0.010
19.945,-0.017
19.950,-0.013
19.955,-0.012
19.960,-0.012
19.965,-0.006
19.970,-0.005
19.975,-0.004
19.980,-0.002
19.985,-0.007
19.990,-0.012
19.995,-0.016
20.000,-0.015
20.005,-0.014
20.010,-0.012
20.015,-0.004
20.020,0.003
20.025,0.005
20.030,-0.002
20.035,-0.012
20.040,-0.011
20.045,-0.004
20.050,-0.009
20.055,-0.023
20.060,-0.038
20.065,-0.044
20.070,-0.037
20.075,-0.031
20.080,-0.037
20.085,-0.049
20.090,-0.067
20.095,-0.085
20.100,-0.094
20.105,-0.076
20.110,-0.038
20.115,-0.016
20.120,-0.006
20.125,-0.002
20.130,-0.009
20.135,-0.002
20.140,0.010
20.145,0.025
20.150,0.044
20.155,0.046
20.160,0.057
20.165,0.075
20.170,0.068
20.175,0.058
20.180,0.049
20.185,0.046
20.190,0.053
20.195,0.052
20.200,0.056
20.205,0.087
20.210,0.110
20.215,0.082
20.220,-0.007
20.225,-0.176
20.230,-0.447
20.235,-0.770
20.240,-1.071
20.245,-1.306
20.250,-1.294
20.255,-0.962
20.260,-0.491
20.265,-0.057
20.270,0.228
20.275,0.379
20.280,0.455
20.285,0.466
20.290,0.443
20.295,0.433
20.300,0.408
20.305,0.349
20.310,0.326
20.315,0.335
20.320,0.325
20.325,0.311
20.330,0.301
20.335,0.289
20.340,0.274
20.345,0.257
20.350,0.247
20.355,0.239
20.360,0.225
20.365,0.212
20.370,0.194
20.375,0.184
20.380,0.188
20.385,0.180
20.390,0.152
20.395,0.132
20.400,0.130
20.405,0.134
20.410,0.131
20.415,0.113
20.420,0.093
20.425,0.081
20.430,0.078
20.435,0.075
20.440,0.064
20.445,0.059
20.450,0.055
20.455,0.045
20.460,0.034
20.465,0.021
20.470,0.014
20.475,0.013
20.480,0.004
20.485,-0.004
20.490,-0.010
20.495,-0.012
20.500,-0.012
20.505,-0.022
20.510,-0.026
20.515,-0.023
20.520,-0.033
20.525,-0.038
20.530,-0.041
20.535,-0.047
20.540,-0.048
20.545,-0.050
20.550,-0.053
20.555,-0.055
20.560,-0.062
20.565,-0.061
20.570,-0.062
20.575,-0.071
20.580,-0.076
20.585,-0.086
20.590,-0.091
20.595,-0.096
20.600,-0.105
20.605,-0.111
20.610,-0.120
20.615,-0.128
20.620,-0.134
20.625,-0.135
20.630,-0.122
20.635,-0.112
20.640,-0.105
20.645,-0.092
20.650,-0.076
20.655,-0.055
20.660,-0.038
20.665,-0.024
20.670,-0.003
20.675,0.017
20.680,0.030
20.685,0.038
20.690,0.048
20.695,0.047
20.700,0.050
20.705,0.064
20.710,0.072
20.715,0.072
20.720,0.065
20.725,0.056
20.730,0.064
20.735,0.068
20.740,0.061
20.745,0.054
20.750,0.045
20.755,0.042
20.760,0.043
20.765,0.036
20.770,0.032
20.775,0.028
20.780,0.022
20.785,0.025
20.790,0.024
20.795,0.020
20.800,0.021
20.805,0.024
20.810,0.031
20.815,0.026
20.820,0.009
20.825,0.011
20.830,0.022
20.835,0.019
20.840,0.014
20.845,0.008
20.850,0.004
20.855,0.009
20.860,0.006
20.865,0.004
20.870,0.009
20.875,0.006
20.880,0.007
20.885,0.005
20.890,-0.007
20.895,-0.006
20.900,-0.001
20.905,-0.001
20.910,-0.003
20.915,-0.006
20.920,-0.010
20.925,-0.009
20.930,-0.007
20.935,-0.008
20.940,-0.008
20.945,-0.011
20.950,-0.012
20.955,-0.012
20.960,-0.016
20.965,-0.019
20.970,-0.020
20.975,-0.019
20.980,-0.019
20.985,-0.020
20.990,-0.014
20.995,-0.014
21.000,-0.018
21.005,-0.020
21.010,-0.017
21.015,-0.014
21.020,-0.016
21.025,-0.017
21.030,-0.017
21.035,-0.020
21.040,-0.019
21.045,-0.016
21.050,-0.018
21.055,-0.024
21.060,-0.024
21.065,-0.022
21.070,-0.020
21.075,-0.021
21.080,-0.027
21.085,-0.025
21.090,-0.019
21.095,-0.021
21.100,-0.022
21.105,-0.023
21.110,-0.021
21.115,-0.015
21.120,-0.018
21.125,-0.019
21.130,-0.016
21.135,-0.018
21.140,-0.020
21.145,-0.019
21.150,-0.017
21.155,-0.014
21.160,-0.014
21.165,-0.020
21.170,-0.024
21.175,-0.020
21.180,-0.014
21.185,-0.008
21.190,-0.009
21.195,-0.014
21.200,-0.015
21.205,-0.015
21.210,-0.011
21.215,-0.009
21.220,-0.013
21.225,-0.015
21.230,-0.014
21.235,-0.015
21.240,-0.021
21.245,-0.023
21.250,-0.013
21.255,-0.002
21.260,0.001
21.265,-0.005
21.270,-0.012
21.275,-0.010
21.280,-0.004
21.285,-0.006
21.290,-0.016
21.295,-0.026
21.300,-0.031
21.305,-0.033
21.310,-0.034
21.315,-0.042
21.320,-0.051
21.325,-0.061
21.330,-0.075
21.335,-0.092
21.340,-0.102
21.345,-0.079
21.350,-0.040
21.355,-0.013
21.360,-0.004
21.365,-0.012
21.370,-0.014
21.375,0.000
21.380,0.013
21.385,0.025
21.390,0.043
21.395,0.057
21.400,0.062
21.405,0.059
21.410,0.053
21.415,0.049
21.420,0.049
21.425,0.052
21.430,0.050
21.435,0.051
21.440,0.068
21.445,0.091
21.450,0.089
21.455,0.044
21.460,-0.046
21.465,-0.227
21.470,-0.525
21.475,-0.866
21.480,-1.172
21.485,-1.345
21.490,-1.220
21.495,-0.829
21.500,-0.364
21.505,0.028
21.510,0.276
21.515,0.408
21.520,0.459
21.525,0.453
21.530,0.437
21.535,0.425
21.540,0.391
21.545,0.345
21.550,0.339
21.555,0.345
21.560,0.324
21.565,0.305
21.570,0.299
21.575,0.287
21.580,0.273
21.585,0.265
21.590,0.254
21.595,0.243
21.600,0.235
21.605,0.219
21.610,0.201
21.615,0.187
21.620,0.179
21.625,0.173
21.630,0.164
21.635,0.154
21.640,0.143
21.645,0.128
21.650,0.113
21.655,0.105
21.660,0.101
21.665,0.093
21.670,0.083
21.675,0.072
21.680,0.061
21.685,0.056
21.690,0.051
21.695,0.040
21.700,0.031
21.705,0.024
21.710,0.021
21.715,0.016
21.720,0.008
21.725,0.002
21.730,-0.002
21.735,-0.008
21.740,-0.014
21.745,-0.021
21.750,-0.025
21.755,-0.026
21.760,-0.027
21.765,-0.031
21.770,-0.039
21.775,-0.045
21.780,-0.046
21.785,-0.046
21.790,-0.048
21.795,-0.053
21.800,-0.059
21.805,-0.062
21.810,-0.065
21.815,-0.073
21.820,-0.080
21.825,-0.083
21.830,-0.088
21.835,-0.094
21.840,-0.103
21.845,-0.111
21.850,-0.116
21.855,-0.125
21.860,-0.132
21.865,-0.132
21.870,-0.125
21.875,-0.116
21.880,-0.106
21.885,-0.092
21.890,-0.076
21.895,-0.055
21.900,-0.037
21.905,-0.023
21.910,-0.010
21.915,0.006
21.920,0.019
21.925,0.031
21.930,0.042
21.935,0.048
21.940,0.051
21.945,0.055
21.950,0.059
21.955,0.059
21.960,0.058
21.965,0.053
21.970,0.045
21.975,0.041
21.980,0.040
21.985,0.038
21.990,0.038
21.995,0.039
22.000,0.038
22.005,0.035
22.010,0.030
22.015,0.026
22.020,0.023
22.025,0.020
22.030,0.021
22.035,0.017
22.040,0.015
22.045,0.016
22.050,0.014
22.055,0.010
22.060,0.008
22.065,0.007
22.070,0.009
22.075,0.011
22.080,0.010
22.085,0.007
22.090,0.006
22.095,0.005
22.100,0.002
22.105,0.002
22.110,0.004
22.115,0.002
22.120,0.001
22.125,-0.001
22.130,-0.003
22.135,-0.004
22.140,-0.006
22.145,-0.004
22.150,-0.004
22.155,-0.007
22.160,-0.006
22.165,-0.007
22.170,-0.009
22.175,-0.009
22.180,-0.011
22.185,-0.010
22.190,-0.010
22.195,-0.015
22.200,-0.017
22.205,-0.015
22.210,-0.013
22.215,-0.014
22.220,-0.013
22.225,-0.013
22.230,-0.015
22.235,-0.021
22.240,-0.023
22.245,-0.019
22.250,-0.015
22.255,-0.016
22.260,-0.018
22.265,-0.018
22.270,-0.019
22.275,-0.021
22.280,-0.020
22.285,-0.019
22.290,-0.019
22.295,-0.017
22.300,-0.019
22.305,-0.021
22.310,-0.020
22.315,-0.019
22.320,-0.018
22.325,-0.017
22.330,-0.016
22.335,-0.016
22.340,-0.018
22.345,-0.022
22.350,-0.024
22.355,-0.023
22.360,-0.019
22.365,-0.014
22.370,-0.014
22.375,-0.015
22.380,-0.014
22.385,-0.012
22.390,-0.011
22.395,-0.014
22.400,-0.018
22.405,-0.020
22.410,-0.016
22.415,-0.013
22.420,-0.012
22.425,-0.009
22.430,-0.009
22.435,-0.011
22.440,-0.013
22.445,-0.014
22.450,-0.013
22.455,-0.012
22.460,-0.011
22.465,-0.010
22.470,-0.009
22.475,-0.008
22.480,-0.005
22.485,-0.005
22.490,-0.007
22.495,-0.010
22.500,-0.012
22.505,-0.011
22.510,-0.006
22.515,-0.003
22.520,-0.007
22.525,-0.006
22.530,-0.004
22.535,-0.005
22.540,-0.006
22.545,-0.005
22.550,-0.003
22.555,-0.004
22.560,-0.006
22.565,-0.009
22.570,-0.017
22.575,-0.023
22.580,-0.030
22.585,-0.035
22.590,-0.036
22.595,-0.040
22.600,-0.051
22.605,-0.064
22.610,-0.081
22.615,-0.093
22.620,-0.077
22.625,-0.042
22.630,-0.012
22.635,0.000
22.640,-0.004
22.645,-0.005
22.650,-0.001
22.655,0.008
22.660,0.022
22.665,0.036
22.670,0.046
22.675,0.052
22.680,0.061
22.685,0.064
22.690,0.061
22.695,0.060
22.700,0.059
22.705,0.055
22.710,0.053
22.715,0.062
22.720,0.089
22.725,0.100
22.730,0.071
22.735,0.006
22.740,-0.140
22.745,-0.410
22.750,-0.747
22.755,-1.058
22.760,-1.257
22.765,-1.201
22.770,-0.878
22.775,-0.457
22.780,-0.074
22.785,0.193
22.790,0.346
22.795,0.423
22.800,0.441
22.805,0.422
22.810,0.404
22.815,0.376
22.820,0.331
22.825,0.319
22.830,0.330
22.835,0.316
22.840,0.295
22.845,0.288
22.850,0.277
22.855,0.263
22.860,0.258
22.865,0.252
22.870,0.236
22.875,0.219
22.880,0.208
22.885,0.195
22.890,0.184
22.895,0.178
22.900,0.165
22.905,0.148
22.910,0.142
22.915,0.138
22.920,0.127
22.925,0.114
22.930,0.103
22.935,0.095
22.940,0.087
22.945,0.080
22.950,0.071
22.955,0.060
22.960,0.053
22.965,0.048
22.970,0.040
22.975,0.034
22.980,0.026
22.985,0.020
22.990,0.016
22.995,0.013
23.000,0.008
23.005,0.001
23.010,-0.006
23.015,-0.012
23.020,-0.014
23.025,-0.014
23.030,-0.017
23.035,-0.022
23.040,-0.026
23.045,-0.028
23.050,-0.032
23.055,-0.036
23.060,-0.039
23.065,-0.043
23.070,-0.046
23.075,-0.049
23.080,-0.053
23.085,-0.059
23.090,-0.066
23.095,-0.071
23.100,-0.077
23.105,-0.085
23.110,-0.094
23.115,-0.104
23.120,-0.111
23.125,-0.115
23.130,-0.121
23.135,-0.127
23.140,-0.130
23.145,-0.127
23.150,-0.120
23.155,-0.113
23.160,-0.100
23.165,-0.083
23.170,-0.068
23.175,-0.050
23.180,-0.031
23.185,-0.016
23.190,-0.001
23.195,0.011
23.200,0.021
23.205,0.031
23.210,0.038
23.215,0.043
23.220,0.048
23.225,0.051
23.230,0.053
23.235,0.051
23.240,0.049
23.245,0.047
23.250,0.045
23.255,0.038
23.260,0.035
23.265,0.037
23.270,0.036
23.275,0.031
23.280,0.028
23.285,0.025
23.290,0.024
23.295,0.026
23.300,0.026
23.305,0.023
23.310,0.022
23.315,0.017
23.320,0.013
23.325,0.010
23.330,0.007
23.335,0.006
23.340,0.005
23.345,0.007
23.350,0.009
23.355,0.009
23.360,0.013
23.365,0.014
23.370,0.010
23.375,0.007
23.380,0.004
23.385,0.004
23.390,0.004
23.395,0.000
23.400,-0.002
23.405,-0.006
23.410,-0.007
23.415,-0.005
23.420,-0.003
23.425,-0.005
23.430,-0.006
23.435,-0.006
23.440,-0.006
23.445,-0.011
23.450,-0.017
23.455,-0.014
23.460,-0.007
23.465,-0.009
23.470,-0.015
23.475,-0.015
23.480,-0.009
23.485,-0.007
23.490,-0.012
23.495,-0.014
23.500,-0.010
23.505,-0.012
23.510,-0.017
23.515,-0.016
23.520,-0.016
23.525,-0.016
23.530,-0.017
23.535,-0.019
23.540,-0.018
23.545,-0.019
23.550,-0.022
23.555,-0.022
23.560,-0.017
23.565,-0.013
23.570,-0.011
23.575,-0.010
23.580,-0.016
23.585,-0.022
23.590,-0.020
23.595,-0.016
23.600,-0.017
23.605,-0.016
23.610,-0.013
23.615,-0.013
23.620,-0.015
23.625,-0.016
23.630,-0.014
23.635,-0.015
23.640,-0.017
23.645,-0.017
23.650,-0.015
23.655,-0.013
23.660,-0.010
23.665,-0.011
23.670,-0.018
23.675,-0.021
23.680,-0.016
23.685,-0.009
23.690,-0.008
23.695,-0.012
23.700,-0.013
23.705,-0.010
23.710,-0.009
23.715,-0.016
23.720,-0.021
23.725,-0.015
23.730,-0.009
23.735,-0.010
23.740,-0.011
23.745,-0.010
23.750,-0.014
23.755,-0.014
23.760,-0.007
23.765,-0.007
23.770,-0.011
23.775,-0.009
23.780,-0.011
23.785,-0.013
23.790,-0.014
23.795,-0.011
23.800,-0.002
23.805,-0.002
23.810,-0.008
23.815,-0.008
23.820,-0.004
23.825,-0.005
23.830,-0.005
23.835,-0.005
23.840,-0.008
23.845,-0.007
23.850,-0.003
23.855,-0.004
23.860,-0.009
23.865,-0.008
23.870,-0.004
23.875,-0.009
23.880,-0.013
23.885,-0.022
23.890,-0.031
23.895,-0.027
23.900,-0.030
23.905,-0.042
23.910,-0.056
23.915,-0.073
23.920,-0.086
23.925,-0.093
23.930,-0.077
23.935,-0.041
23.940,-0.017
23.945,-0.009
23.950,-0.009
23.955,-0.004
23.960,0.010
23.965,0.021
23.970,0.028
23.975,0.045
23.980,0.059
23.985,0.060
23.990,0.064
23.995,0.068
24.000,0.066
24.005,0.062
24.010,0.060
24.015,0.058
24.020,0.054
24.025,0.059
24.030,0.082
24.035,0.097
24.040,0.074
24.045,-0.001
24.050,-0.155
24.055,-0.413
24.060,-0.721
24.065,-1.015
24.070,-1.241
24.075,-1.228
24.080,-0.918
24.085,-0.485
24.090,-0.086
24.095,0.192
24.100,0.357
24.105,0.444
24.110,0.452
24.115,0.429
24.120,0.423
24.125,0.401
24.130,0.343
24.135,0.314
24.140,0.324
24.145,0.316
24.150,0.291
24.155,0.284
24.160,0.277
24.165,0.257
24.170,0.246
24.175,0.240
24.180,0.234
24.185,0.227
24.190,0.213
24.195,0.197
24.200,0.184
24.205,0.171
24.210,0.162
24.215,0.150
24.220,0.136
24.225,0.123
24.230,0.116
24.235,0.116
24.240,0.111
24.245,0.099
24.250,0.086
24.255,0.073
24.260,0.063
24.265,0.055
24.270,0.045
24.275,0.038
24.280,0.037
24.285,0.032
24.290,0.030
24.295,0.029
24.300,0.013
24.305,-0.001
24.310,-0.010
24.315,-0.020
24.320,-0.017
24.325,-0.010
24.330,-0.013
24.335,-0.023
24.340,-0.032
24.345,-0.034
24.350,-0.034
24.355,-0.037
24.360,-0.045
24.365,-0.051
24.370,-0.048
24.375,-0.047
24.380,-0.053
24.385,-0.061
24.390,-0.065
24.395,-0.063
24.400,-0.066
24.405,-0.076
24.410,-0.085
24.415,-0.094
24.420,-0.097
24.425,-0.095
24.430,-0.104
24.435,-0.114
24.440,-0.125
24.445,-0.134
24.450,-0.130
24.455,-0.126
24.460,-0.119
24.465,-0.102
24.470,-0.096
24.475,-0.087
24.480,-0.065
24.485,-0.045
24.490,-0.027
24.495,-0.014
24.500,-0.006
24.505,0.009
24.510,0.027
24.515,0.046
24.520,0.058
24.525,0.061
24.530,0.063
24.535,0.063
24.540,0.056
24.545,0.052
24.550,0.055
24.555,0.058
24.560,0.060
24.565,0.054
24.570,0.049
24.575,0.052
24.580,0.048
24.585,0.037
24.590,0.032
24.595,0.034
24.600,0.038
24.605,0.031
24.610,0.022
24.615,0.023
24.620,0.023
24.625,0.018
24.630,0.015
24.635,0.016
24.640,0.019
24.645,0.015
24.650,0.009
24.655,0.014
24.660,0.018
24.665,0.014
24.670,0.016
24.675,0.016
24.680,0.010
24.685,0.007
24.690,0.005
24.695,0.010
24.700,0.005
24.705,-0.005
24.710,0.007
24.715,0.018
24.720,0.006
24.725,-0.014
24.730,-0.017
24.735,-0.007
24.740,-0.002
24.745,-0.001
24.750,0.003
24.755,-0.003
24.760,-0.014
24.765,-0.018
24.770,-0.009
24.775,-0.002
24.780,-0.014
24.785,-0.023
24.790,-0.021
24.795,-0.012
24.800,-0.008
24.805,-0.010
24.810,-0.013
24.815,-0.023
24.820,-0.022
24.825,-0.014
24.830,-0.015
24.835,-0.020
24.840,-0.022
24.845,-0.020
24.850,-0.018
24.855,-0.015
24.860,-0.011
24.865,-0.014
24.870,-0.028
24.875,-0.038
24.880,-0.028
24.885,-0.015
24.890,-0.017
24.895,-0.020
24.900,-0.018
24.905,-0.013
24.910,-0.012
24.915,-0.018
24.920,-0.023
24.925,-0.023
24.930,-0.022
24.935,-0.021
24.940,-0.018
24.945,-0.018
24.950,-0.021
24.955,-0.026
24.960,-0.021
24.965,-0.011
24.970,-0.005
24.975,-0.002
24.980,-0.008
24.985,-0.024
24.990,-0.029
24.995,-0.019
25.000,-0.012
25.005,-0.010
25.010,-0.016
25.015,-0.019
25.020,-0.011
25.025,-0.011
25.030,-0.013
25.035,-0.010
25.040,-0.008
25.045,-0.007
25.050,-0.013
25.055,-0.020
25.060,-0.016
25.065,-0.006
25.070,-0.003
25.075,-0.001
25.080,-0.007
25.085,-0.018
25.090,-0.010
25.095,-0.009
25.100,-0.011
25.105,-0.007
25.110,-0.007
25.115,-0.008
25.120,-0.009
25.125,-0.014
25.130,-0.016
25.135,-0.012
25.140,-0.003
25.145,0.008
25.150,0.002
25.155,-0.004
25.160,-0.003
25.165,-0.011
25.170,-0.020
25.175,-0.027
25.180,-0.031
25.185,-0.034
25.190,-0.041
25.195,-0.039
25.200,-0.041
25.205,-0.070
25.210,-0.103
25.215,-0.105
25.220,-0.076
25.225,-0.037
25.230,-0.006
25.235,0.002
25.240,-0.002
25.245,-0.006
25.250,0.000
25.255,0.018
25.260,0.030
25.265,0.045
25.270,0.057
25.275,0.055
25.280,0.054
25.285,0.059
25.290,0.064
25.295,0.068
25.300,0.067
25.305,0.059
25.310,0.049
25.315,0.054
25.320,0.079
25.325,0.091
25.330,0.051
25.335,-0.046
25.340,-0.222
25.345,-0.495
25.350,-0.814
25.355,-1.125
25.360,-1.335
25.365,-1.255
25.370,-0.876
25.375,-0.398
25.380,0.014
25.385,0.273
25.390,0.408
25.395,0.466
25.400,0.456
25.405,0.431
25.410,0.424
25.415,0.396
25.420,0.348
25.425,0.338
25.430,0.345
25.435,0.323
25.440,0.297
25.445,0.292
25.450,0.288
25.455,0.276
25.460,0.266
25.465,0.250
25.470,0.230
25.475,0.219
25.480,0.209
25.485,0.199
25.490,0.190
25.495,0.178
25.500,0.168
25.505,0.161
25.510,0.153
25.515,0.142
25.520,0.127
25.525,0.115
25.530,0.109
25.535,0.095
25.540,0.080
25.545,0.077
25.550,0.071
25.555,0.058
25.560,0.050
25.565,0.045
25.570,0.039
25.575,0.032
25.580,0.021
25.585,0.014
25.590,0.011
25.595,0.006
25.600,-0.003
25.605,-0.010
25.610,-0.009
25.615,-0.006
25.620,-0.011
25.625,-0.021
25.630,-0.029
25.635,-0.036
25.640,-0.037
25.645,-0.039
25.650,-0.048
25.655,-0.053
25.660,-0.053
25.665,-0.051
25.670,-0.049
25.675,-0.055
25.680,-0.057
25.685,-0.061
25.690,-0.077
25.695,-0.089
25.700,-0.091
25.705,-0.091
25.710,-0.097
25.715,-0.105
25.720,-0.110
25.725,-0.118
25.730,-0.126
25.735,-0.130
25.740,-0.126
25.745,-0.117
25.750,-0.116
25.755,-0.109
25.760,-0.091
25.765,-0.075
25.770,-0.060
25.775,-0.041
25.780,-0.022
25.785,-0.005
25.790,0.010
25.795,0.022
25.800,0.035
25.805,0.042
25.810,0.049
25.815,0.057
25.820,0.064
25.825,0.068
25.830,0.057
25.835,0.049
25.840,0.055
25.845,0.059
25.850,0.056
25.855,0.050
25.860,0.047
25.865,0.044
25.870,0.038
25.875,0.034
25.880,0.033
25.885,0.030
25.890,0.029
25.895,0.030
25.900,0.029
25.905,0.029
25.910,0.022
25.915,0.017
25.920,0.019
25.925,0.021
25.930,0.023
25.935,0.018
25.940,0.010
25.945,0.014
25.950,0.013
25.955,0.007
25.960,0.009
25.965,0.011
25.970,0.008
25.975,0.006
25.980,0.007
25.985,0.012
25.990,0.013
25.995,0.004
26.000,-0.003
26.005,-0.005
26.010,-0.004
26.015,0.001
26.020,0.003
26.025,0.000
26.030,-0.003
26.035,-0.007
26.040,-0.010
26.045,-0.009
26.050,-0.013
26.055,-0.016
26.060,-0.010
26.065,-0.008
26.070,-0.013
26.075,-0.017
26.080,-0.016
26.085,-0.012
26.090,-0.013
26.095,-0.013
26.100,-0.013
26.105,-0.015
26.110,-0.017
26.115,-0.018
26.120,-0.015
26.125,-0.015
26.130,-0.018
26.135,-0.020
26.140,-0.020
26.145,-0.017
26.150,-0.018
26.155,-0.022
26.160,-0.020
26.165,-0.019
26.170,-0.019
26.175,-0.018
26.180,-0.018
26.185,-0.017
26.190,-0.020
26.195,-0.022
26.200,-0.021
26.205,-0.021
26.210,-0.019
26.215,-0.019
26.220,-0.020
26.225,-0.019
26.230,-0.016
26.235,-0.015
26.240,-0.014
26.245,-0.017
26.250,-0.023
26.255,-0.023
26.260,-0.018
26.265,-0.012
26.270,-0.012
26.275,-0.014
26.280,-0.017
26.285,-0.020
26.290,-0.020
26.295,-0.019
26.300,-0.018
26.305,-0.014
26.310,-0.013
26.315,-0.014
26.320,-0.014
26.325,-0.014
26.330,-0.013
26.335,-0.016
26.340,-0.018
26.345,-0.012
26.350,-0.008
26.355,-0.009
26.360,-0.010
26.365,-0.009
26.370,-0.013
26.375,-0.017
26.380,-0.016
26.385,-0.013
26.390,-0.009
26.395,-0.009
26.400,-0.009
26.405,-0.006
26.410,-0.006
26.415,-0.009
26.420,-0.010
26.425,-0.006
26.430,-0.005
26.435,-0.010
26.440,-0.016
26.445,-0.021
26.450,-0.024
26.455,-0.029
26.460,-0.036
26.465,-0.038
26.470,-0.045
26.475,-0.060
26.480,-0.069
26.485,-0.078
26.490,-0.092
26.495,-0.081
26.500,-0.050
26.505,-0.024
26.510,-0.009
26.515,-0.007
26.520,-0.006
26.525,-0.001
26.530,0.009
26.535,0.024
26.540,0.041
26.545,0.053
26.550,0.057
26.555,0.065
26.560,0.072
26.565,0.064
26.570,0.054
26.575,0.053
26.580,0.051
26.585,0.049
26.590,0.057
26.595,0.078
26.600,0.100
26.605,0.084
26.610,0.025
26.615,-0.100
26.620,-0.345
26.625,-0.672
26.630,-0.992
26.635,-1.248
26.640,-1.298
26.645,-1.039
26.650,-0.606
26.655,-0.182
26.660,0.136
26.665,0.331
26.670,0.430
26.675,0.459
26.680,0.441
26.685,0.423
26.690,0.408
26.695,0.360
26.700,0.329
26.705,0.340
26.710,0.337
26.715,0.313
26.720,0.303
26.725,0.294
26.730,0.275
26.735,0.261
26.740,0.254
26.745,0.244
26.750,0.230
26.755,0.220
26.760,0.209
26.765,0.193
26.770,0.182
26.775,0.173
26.780,0.162
26.785,0.154
26.790,0.144
26.795,0.133
26.800,0.122
26.805,0.110
26.810,0.103
26.815,0.094
26.820,0.082
26.825,0.073
26.830,0.067
26.835,0.061
26.840,0.056
26.845,0.048
26.850,0.036
26.855,0.028
26.860,0.024
26.865,0.021
26.870,0.016
26.875,0.010
26.880,0.006
26.885,0.001
26.890,-0.004
26.895,-0.008
26.900,-0.014
26.905,-0.020
26.910,-0.024
26.915,-0.028
26.920,-0.030
26.925,-0.030
26.930,-0.033
26.935,-0.039
26.940,-0.044
26.945,-0.046
26.950,-0.047
26.955,-0.054
26.960,-0.061
26.965,-0.065
26.970,-0.066
26.975,-0.071
26.980,-0.080
26.985,-0.089
26.990,-0.098
26.995,-0.107
27.000,-0.116
27.005,-0.124
27.010,-0.131
27.015,-0.133
27.020,-0.132
27.025,-0.126
27.030,-0.116
27.035,-0.104
27.040,-0.089
27.045,-0.073
27.050,-0.061
27.055,-0.045
27.060,-0.024
27.065,-0.006
27.070,0.006
27.075,0.017
27.080,0.028
27.085,0.036
27.090,0.040
27.095,0.045
27.100,0.051
27.105,0.055
27.110,0.057
27.115,0.055
27.120,0.052
27.125,0.047
27.130,0.044
27.135,0.044
27.140,0.041
27.145,0.038
27.150,0.034
27.155,0.033
27.160,0.033
27.165,0.030
27.170,0.026
27.175,0.024
27.180,0.020
27.185,0.018
27.190,0.020
27.195,0.020
27.200,0.017
27.205,0.014
27.210,0.015
27.215,0.016
27.220,0.013
27.225,0.010
27.230,0.010
27.235,0.009
27.240,0.008
27.245,0.007
27.250,0.006
27.255,0.001
27.260,-0.002
27.265,0.001
27.270,0.000
27.275,-0.001
27.280,-0.003
27.285,-0.005
27.290,-0.004
27.295,-0.004
27.300,-0.005
27.305,-0.007
27.310,-0.010
27.315,-0.010
27.320,-0.006
27.325,-0.005
27.330,-0.009
27.335,-0.012
27.340,-0.013
27.345,-0.012
27.350,-0.014
27.355,-0.016
27.360,-0.014
27.365,-0.015
27.370,-0.017
27.375,-0.014
27.380,-0.013
27.385,-0.016
27.390,-0.016
27.395,-0.016
27.400,-0.017
27.405,-0.019
27.410,-0.019
27.415,-0.018
27.420,-0.017
27.425,-0.017
27.430,-0.019
27.435,-0.022
27.440,-0.020
27.445,-0.016
27.450,-0.015
27.455,-0.017
27.460,-0.019
27.465,-0.018
27.470,-0.017
27.475,-0.018
27.480,-0.020
27.485,-0.020
27.490,-0.019
27.495,-0.017
27.500,-0.018
27.505,-0.021
27.510,-0.020
27.515,-0.016
27.520,-0.017
27.525,-0.018
27.530,-0.016
27.535,-0.017
27.540,-0.017
27.545,-0.016
27.550,-0.017
27.555,-0.017
27.560,-0.015
27.565,-0.013
27.570,-0.013
27.575,-0.014
27.580,-0.013
27.585,-0.012
27.590,-0.014
27.595,-0.014
27.600,-0.014
27.605,-0.013
27.610,-0.013
27.615,-0.012
27.620,-0.010
27.625,-0.010
27.630,-0.011
27.635,-0.013
27.640,-0.013
27.645,-0.012
27.650,-0.012
27.655,-0.009
27.660,-0.006
27.665,-0.005
27.670,-0.005
27.675,-0.007
27.680,-0.010
27.685,-0.010
27.690,-0.005
27.695,-0.002
27.700,-0.004
27.705,-0.008
27.710,-0.006
27.715,-0.002
27.720,-0.005
27.725,-0.009
27.730,-0.013
27.735,-0.020
27.740,-0.026
27.745,-0.029
27.750,-0.033
27.755,-0.038
27.760,-0.045
27.765,-0.054
27.770,-0.065
27.775,-0.083
27.780,-0.092
27.785,-0.071
27.790,-0.035
27.795,-0.010
27.800,-0.002
27.805,-0.008
27.810,-0.010
27.815,-0.004
27.820,0.010
27.825,0.030
27.830,0.045
27.835,0.051
27.840,0.058
27.845,0.071
27.850,0.072
27.855,0.063
27.860,0.055
27.865,0.050
27.870,0.051
27.875,0.051
27.880,0.057
27.885,0.082
27.890,0.098
27.895,0.075
27.900,0.003
27.905,-0.146
27.910,-0.410
27.915,-0.738
27.920,-1.045
27.925,-1.254
27.930,-1.205
27.935,-0.885
27.940,-0.470
27.945,-0.093
27.950,0.181
27.955,0.344
27.960,0.422
27.965,0.437
27.970,0.418
27.975,0.406
27.980,0.381
27.985,0.331
27.990,0.320
27.995,0.335
28.000,0.321
28.005,0.297
28.010,0.292
28.015,0.280
28.020,0.261
28.025,0.255
28.030,0.250
28.035,0.232
28.040,0.215
28.045,0.207
28.050,0.198
28.055,0.187
28.060,0.176
28.065,0.167
28.070,0.157
28.075,0.144
28.080,0.131
28.085,0.122
28.090,0.116
28.095,0.103
28.100,0.089
28.105,0.082
28.110,0.080
28.115,0.074
28.120,0.060
28.125,0.048
28.130,0.044
28.135,0.039
28.140,0.034
28.145,0.030
28.150,0.020
28.155,0.009
28.160,0.004
28.165,0.002
28.170,-0.002
28.175,-0.008
28.180,-0.017
28.185,-0.020
28.190,-0.020
28.195,-0.020
28.200,-0.025
28.205,-0.036
28.210,-0.038
28.215,-0.039
28.220,-0.044
28.225,-0.046
28.230,-0.047
28.235,-0.049
28.240,-0.052
28.245,-0.057
28.250,-0.065
28.255,-0.074
28.260,-0.080
28.265,-0.083
28.270,-0.089
28.275,-0.094
28.280,-0.099
28.285,-0.106
28.290,-0.109
28.295,-0.117
28.300,-0.125
28.305,-0.124
28.310,-0.122
28.315,-0.119
28.320,-0.106
28.325,-0.084
28.330,-0.065
28.335,-0.051
28.340,-0.038
28.345,-0.028
28.350,-0.009
28.355,0.007
28.360,0.019
28.365,0.035
28.370,0.044
28.375,0.047
28.380,0.049
28.385,0.046
28.390,0.047
28.395,0.052
28.400,0.051
28.405,0.048
28.410,0.051
28.415,0.047
28.420,0.040
28.425,0.038
28.430,0.039
28.435,0.038
28.440,0.033
28.445,0.028
28.450,0.027
28.455,0.030
28.460,0.027
28.465,0.024
28.470,0.024
28.475,0.020
28.480,0.013
28.485,0.010
28.490,0.014
28.495,0.020
28.500,0.019
28.505,0.015
28.510,0.011
28.515,0.010
28.520,0.004
28.525,-0.002
28.530,0.004
28.535,0.011
28.540,0.010
28.545,0.006
28.550,0.002
28.555,0.004
28.560,0.010
28.565,0.003
28.570,-0.005
28.575,-0.003
28.580,-0.003
28.585,-0.005
28.590,-0.009
28.595,-0.011
28.600,-0.005
28.605,-0.004
28.610,-0.006
28.615,-0.003
28.620,-0.005
28.625,-0.007
28.630,-0.008
28.635,-0.014
28.640,-0.017
28.645,-0.012
28.650,-0.006
28.655,-0.011
28.660,-0.017
28.665,-0.016
28.670,-0.013
28.675,-0.013
28.680,-0.019
28.685,-0.021
28.690,-0.017
28.695,-0.012
28.700,-0.009
28.705,-0.014
28.710,-0.021
28.715,-0.020
28.720,-0.012
28.725,-0.007
28.730,-0.011
28.735,-0.020
28.740,-0.024
28.745,-0.021
28.750,-0.021
28.755,-0.025
28.760,-0.024
28.765,-0.019
28.770,-0.018
28.775,-0.016
28.780,-0.013
28.785,-0.016
28.790,-0.020
28.795,-0.023
28.800,-0.024
28.805,-0.019
28.810,-0.013
28.815,-0.011
28.820,-0.008
28.825,-0.010
28.830,-0.016
28.835,-0.016
28.840,-0.010
28.845,-0.009
28.850,-0.016
28.855,-0.022
28.860,-0.020
28.865,-0.014
28.870,-0.012
28.875,-0.010
28.880,-0.004
28.885,-0.005
28.890,-0.011
28.895,-0.012
28.900,-0.008
28.905,-0.006
28.910,-0.008
28.915,-0.009
28.920,-0.006
28.925,-0.011
28.930,-0.014
28.935,-0.013
28.940,-0.012
28.945,-0.008
28.950,-0.003
28.955,-0.007
28.960,-0.007
28.965,-0.002
28.970,-0.006
28.975,-0.006
28.980,-0.008
28.985,-0.010
28.990,-0.002
28.995,0.004
29.000,0.000
29.005,-0.009
29.010,-0.011
29.015,-0.009
29.020,-0.013
29.025,-0.011
29.030,-0.015
29.035,-0.031
29.040,-0.038
29.045,-0.040
29.050,-0.047
29.055,-0.054
29.060,-0.067
29.065,-0.092
29.070,-0.105
29.075,-0.086
29.080,-0.048
29.085,-0.013
29.090,0.000
29.095,0.000
29.100,0.001
29.105,0.007
29.110,0.019
29.115,0.028
29.120,0.039
29.125,0.045
29.130,0.048
29.135,0.062
29.140,0.069
29.145,0.064
29.150,0.064
29.155,0.062
29.160,0.053
29.165,0.052
29.170,0.059
29.175,0.083
29.180,0.100
29.185,0.069
29.190,-0.011
29.195,-0.152
29.200,-0.392
29.205,-0.702
29.210,-1.000
29.215,-1.244
29.220,-1.285
29.225,-1.000
29.230,-0.545
29.235,-0.110
29.240,0.194
29.245,0.357
29.250,0.440
29.255,0.458
29.260,0.439
29.265,0.431
29.270,0.421
29.275,0.368
29.280,0.326
29.285,0.329
29.290,0.323
29.295,0.309
29.300,0.298
29.305,0.277
29.310,0.261
29.315,0.251
29.320,0.244
29.325,0.236
29.330,0.223
29.335,0.215
29.340,0.205
29.345,0.186
29.350,0.174
29.355,0.171
29.360,0.163
29.365,0.148
29.370,0.134
29.375,0.130
29.380,0.121
29.385,0.103
29.390,0.089
29.395,0.085
29.400,0.091
29.405,0.083
29.410,0.061
29.415,0.049
29.420,0.044
29.425,0.036
29.430,0.031
29.435,0.026
29.440,0.014
29.445,0.004
29.450,0.001
29.455,-0.005
29.460,-0.008
29.465,-0.013
29.470,-0.021
29.475,-0.023
29.480,-0.017
29.485,-0.015
29.490,-0.024
29.495,-0.040
29.500,-0.058
29.505,-0.060
29.510,-0.049
29.515,-0.051
29.520,-0.059
29.525,-0.058
29.530,-0.057
29.535,-0.065
29.540,-0.079
29.545,-0.087
29.550,-0.083
29.555,-0.081
29.560,-0.087
29.565,-0.096
29.570,-0.110
29.575,-0.120
29.580,-0.127
29.585,-0.129
29.590,-0.129
29.595,-0.132
29.600,-0.129
29.605,-0.119
29.610,-0.105
29.615,-0.092
29.620,-0.080
29.625,-0.066
29.630,-0.047
29.635,-0.023
29.640,-0.005
29.645,0.002
29.650,0.013
29.655,0.029
29.660,0.044
29.665,0.055
29.670,0.060
29.675,0.063
29.680,0.062
29.685,0.057
29.690,0.062
29.695,0.071
29.700,0.066
29.705,0.055
29.710,0.051
29.715,0.051
29.720,0.051
29.725,0.048
29.730,0.041
29.735,0.035
29.740,0.037
29.745,0.040
29.750,0.035
29.755,0.027
29.760,0.028
29.765,0.036
29.770,0.034
29.775,0.024
29.780,0.019
29.785,0.020
29.790,0.024
29.795,0.022
29.800,0.015
29.805,0.010
29.810,0.008
29.815,0.009
29.820,0.009
29.825,0.010
29.830,0.010
29.835,0.009
29.840,0.008
29.845,0.007
29.850,0.011
29.855,0.012
29.860,0.006
29.865,0.001
29.870,-0.002
29.875,0.001
29.880,0.003
29.885,0.000
29.890,-0.005
29.895,-0.007
29.900,-0.011
29.905,-0.017
29.910,-0.017
29.915,-0.013
29.920,-0.011
29.925,-0.010
29.930,-0.009
29.935,-0.007
29.940,-0.008
29.945,-0.008
29.950,-0.009
29.955,-0.013
29.960,-0.017
29.965,-0.017
29.970,-0.014
29.975,-0.016
29.980,-0.024
29.985,-0.028
29.990,-0.023
29.995,-0.015
30.000,-0.015
30.005,-0.022
30.010,-0.022
30.015,-0.016
30.020,-0.017
30.025,-0.017
30.030,-0.015
30.035,-0.014
30.040,-0.018
30.045,-0.025
30.050,-0.028
30.055,-0.024
30.060,-0.020
30.065,-0.019
30.070,-0.016
30.075,-0.010
30.080,-0.012
30.085,-0.019
30.090,-0.021
30.095,-0.021
30.100,-0.024
30.105,-0.021
30.110,-0.012
30.115,-0.011
30.120,-0.016
30.125,-0.023
30.130,-0.022
30.135,-0.016
30.140,-0.015
30.145,-0.015
30.150,-0.014
30.155,-0.015
30.160,-0.018
30.165,-0.021
30.170,-0.022
30.175,-0.021
30.180,-0.015
30.185,-0.011
30.190,-0.010
30.195,-0.011
30.200,-0.012
30.205,-0.013
30.210,-0.015
30.215,-0.014
30.220,-0.009
30.225,-0.007
30.230,-0.011
30.235,-0.014
30.240,-0.012
30.245,-0.007
30.250,-0.005
30.255,-0.010
30.260,-0.019
30.265,-0.025
30.270,-0.032
30.275,-0.040
30.280,-0.042
30.285,-0.046
30.290,-0.055
30.295,-0.066
30.300,-0.079
30.305,-0.097
30.310,-0.102
30.315,-0.077
30.320,-0.041
30.325,-0.013
30.330,-0.001
30.335,-0.002
30.340,-0.005
30.345,0.000
30.350,0.011
30.355,0.026
30.360,0.040
30.365,0.049
30.370,0.059
30.375,0.068
30.380,0.067
30.385,0.057
30.390,0.052
30.395,0.051
30.400,0.049
30.405,0.048
30.410,0.060
30.415,0.087
30.420,0.097
30.425,0.062
30.430,-0.018
30.435,-0.181
30.440,-0.454
30.445,-0.780
30.450,-1.089
30.455,-1.299
30.460,-1.242
30.465,-0.899
30.470,-0.454
30.475,-0.054
30.480,0.224
30.485,0.379
30.490,0.449
30.495,0.456
30.500,0.430
30.505,0.417
30.510,0.395
30.515,0.343
30.520,0.325
30.525,0.333
30.530,0.315
30.535,0.295
30.540,0.291
30.545,0.283
30.550,0.266
30.555,0.258
30.560,0.253
30.565,0.236
30.570,0.220
30.575,0.209
30.580,0.196
30.585,0.187
30.590,0.178
30.595,0.167
30.600,0.157
30.605,0.147
30.610,0.138
30.615,0.128
30.620,0.117
30.625,0.105
30.630,0.093
30.635,0.085
30.640,0.077
30.645,0.068
30.650,0.062
30.655,0.055
30.660,0.048
30.665,0.039
30.670,0.029
30.675,0.027
30.680,0.022
30.685,0.013
30.690,0.007
30.695,0.004
30.700,0.003
30.705,-0.002
30.710,-0.011
30.715,-0.017
30.720,-0.019
30.725,-0.021
30.730,-0.024
30.735,-0.028
30.740,-0.033
30.745,-0.036
30.750,-0.038
30.755,-0.046
30.760,-0.051
30.765,-0.052
30.770,-0.053
30.775,-0.055
30.780,-0.060
30.785,-0.068
30.790,-0.076
30.795,-0.083
30.800,-0.089
30.805,-0.095
30.810,-0.101
30.815,-0.110
30.820,-0.120
30.825,-0.126
30.830,-0.128
30.835,-0.129
30.840,-0.125
30.845,-0.117
30.850,-0.107
30.855,-0.091
30.860,-0.074
30.865,-0.057
30.870,-0.042
30.875,-0.026
30.880,-0.008
30.885,0.006
30.890,0.020
30.895,0.031
30.900,0.040
30.905,0.050
30.910,0.056
30.915,0.057
30.920,0.057
30.925,0.057
30.930,0.059
30.935,0.057
30.940,0.052
30.945,0.051
30.950,0.050
30.955,0.047
30.960,0.044
30.965,0.041
30.970,0.038
30.975,0.038
30.980,0.034
30.985,0.030
30.990,0.028
30.995,0.026
31.000,0.023
31.005,0.021
31.010,0.019
31.015,0.020
31.020,0.018
31.025,0.016
31.030,0.016
31.035,0.015
31.040,0.012
31.045,0.009
31.050,0.009
31.055,0.009
31.060,0.009
31.065,0.008
31.070,0.004
31.075,0.005
31.080,0.006
31.085,0.004
31.090,0.000
31.095,-0.001
31.100,-0.001
31.105,-0.002
31.110,-0.003
31.115,-0.005
31.120,-0.005
31.125,-0.004
31.130,-0.005
31.135,-0.009
31.140,-0.012
31.145,-0.010
31.150,-0.009
31.155,-0.009
31.160,-0.010
31.165,-0.012
31.170,-0.012
31.175,-0.013
31.180,-0.016
31.185,-0.017
31.190,-0.015
31.195,-0.013
31.200,-0.015
31.205,-0.017
31.210,-0.018
31.215,-0.018
31.220,-0.019
31.225,-0.019
31.230,-0.019
31.235,-0.021
31.240,-0.021
31.245,-0.021
31.250,-0.021
31.255,-0.021
31.260,-0.022
31.265,-0.023
31.270,-0.023
31.275,-0.020
31.280,-0.018
31.285,-0.018
31.290,-0.023
31.295,-0.023
31.300,-0.020
31.305,-0.022
31.310,-0.022
31.315,-0.019
31.320,-0.019
31.325,-0.020
31.330,-0.021
31.335,-0.020
31.340,-0.018
31.345,-0.016
31.350,-0.019
31.355,-0.021
31.360,-0.017
31.365,-0.016
31.370,-0.019
31.375,-0.019
31.380,-0.018
31.385,-0.015
31.390,-0.014
31.395,-0.015
31.400,-0.013
31.405,-0.014
31.410,-0.013
31.415,-0.013
31.420,-0.014
31.425,-0.012
31.430,-0.015
31.435,-0.017
31.440,-0.014
31.445,-0.014
31.450,-0.014
31.455,-0.015
31.460,-0.014
31.465,-0.010
31.470,-0.012
31.475,-0.019
31.480,-0.013
31.485,-0.003
31.490,-0.002
31.495,-0.008
31.500,-0.012
31.505,-0.013
31.510,-0.010
31.515,-0.013
31.520,-0.021
31.525,-0.020
31.530,-0.025
31.535,-0.033
31.540,-0.033
31.545,-0.039
31.550,-0.046
31.555,-0.056
31.560,-0.071
31.565,-0.084
31.570,-0.096
31.575,-0.086
31.580,-0.049
31.585,-0.016
31.590,-0.002
31.595,-0.003
31.600,-0.005
31.605,-0.004
31.610,0.008
31.615,0.024
31.620,0.040
31.625,0.054
31.630,0.057
31.635,0.059
31.640,0.062
31.645,0.061
31.650,0.058
31.655,0.057
31.660,0.056
31.665,0.059
31.670,0.067
31.675,0.088
31.680,0.096
31.685,0.065
31.690,-0.002
31.695,-0.140
31.700,-0.398
31.705,-0.725
31.710,-1.029
31.715,-1.251
31.720,-1.239
31.725,-0.928
31.730,-0.499
31.735,-0.108
31.740,0.175
31.745,0.346
31.750,0.436
31.755,0.458
31.760,0.437
31.765,0.424
31.770,0.402
31.775,0.343
31.780,0.315
31.785,0.327
31.790,0.320
31.795,0.299
31.800,0.292
31.805,0.283
31.810,0.267
31.815,0.260
31.820,0.250
31.825,0.232
31.830,0.221
31.835,0.216
31.840,0.205
31.845,0.189
31.850,0.179
31.855,0.172
31.860,0.164
31.865,0.152
31.870,0.137
31.875,0.120
31.880,0.108
31.885,0.102
31.890,0.096
31.895,0.093
31.900,0.083
31.905,0.068
31.910,0.062
31.915,0.059
31.920,0.052
31.925,0.039
31.930,0.030
31.935,0.023
31.940,0.020
31.945,0.017
31.950,0.008
31.955,0.001
31.960,-0.005
31.965,-0.012
31.970,-0.016
31.975,-0.017
31.980,-0.018
31.985,-0.020
31.990,-0.025
31.995,-0.031
32.000,-0.042
32.005,-0.051
32.010,-0.054
32.015,-0.054
32.020,-0.051
32.025,-0.050
32.030,-0.052
32.035,-0.056
32.040,-0.066
32.045,-0.076
32.050,-0.080
32.055,-0.078
32.060,-0.083
32.065,-0.095
32.070,-0.104
32.075,-0.107
32.080,-0.107
32.085,-0.110
32.090,-0.113
32.095,-0.111
32.100,-0.112
32.105,-0.109
32.110,-0.094
32.115,-0.077
32.120,-0.064
32.125,-0.053
32.130,-0.034
32.135,-0.013
32.140,0.006
32.145,0.021
32.150,0.028
32.155,0.038
32.160,0.050
32.165,0.054
32.170,0.051
32.175,0.049
32.180,0.059
32.185,0.065
32.190,0.056
32.195,0.048
32.200,0.046
32.205,0.047
32.210,0.047
32.215,0.048
32.220,0.048
32.225,0.041
32.230,0.032
32.235,0.026
32.240,0.026
32.245,0.026
32.250,0.019
32.255,0.020
32.260,0.025
32.265,0.026
32.270,0.025
32.275,0.020
32.280,0.012
32.285,0.008
32.290,0.010
32.295,0.013
32.300,0.013
32.305,0.007
32.310,-0.002
32.315,-0.004
32.320,0.001
32.325,0.008
32.330,0.012
32.335,0.010
32.340,0.004
32.345,-0.005
32.350,-0.008
32.355,-0.007
32.360,-0.002
32.365,0.003
32.370,-0.002
32.375,-0.011
32.380,-0.015
32.385,-0.012
32.390,-0.009
32.395,-0.009
32.400,-0.012
32.405,-0.014
32.410,-0.009
32.415,-0.007
32.420,-0.013
32.425,-0.018
32.430,-0.019
32.435,-0.020
32.440,-0.018
32.445,-0.016
32.450,-0.013
32.455,-0.008
32.460,-0.005
32.465,-0.010
32.470,-0.018
32.475,-0.027
32.480,-0.030
32.485,-0.025
32.490,-0.023
32.495,-0.022
32.500,-0.023
32.505,-0.019
32.510,-0.011
32.515,-0.010
32.520,-0.017
32.525,-0.021
32.530,-0.016
32.535,-0.018
32.540,-0.026
32.545,-0.027
32.550,-0.020
32.555,-0.014
32.560,-0.015
32.565,-0.018
32.570,-0.021
32.575,-0.024
32.580,-0.030
32.585,-0.030
32.590,-0.021
32.595,-0.019
32.600,-0.022
32.605,-0.024
32.610,-0.021
32.615,-0.015
32.620,-0.012
32.625,-0.014
32.630,-0.020
32.635,-0.023
32.640,-0.024
32.645,-0.020
32.650,-0.016
32.655,-0.013
32.660,-0.008
32.665,-0.007
32.670,-0.007
32.675,-0.016
32.680,-0.025
32.685,-0.020
32.690,-0.008
32.695,-0.005
32.700,-0.013
32.705,-0.011
32.710,-0.001
32.715,-0.003
32.720,-0.014
32.725,-0.020
32.730,-0.007
32.735,0.001
32.740,-0.008
32.745,-0.011
32.750,-0.012
32.755,-0.014
32.760,-0.015
32.765,-0.019
32.770,-0.018
32.775,-0.021
32.780,-0.031
32.785,-0.048
32.790,-0.063
32.795,-0.072
32.800,-0.080
32.805,-0.096
32.810,-0.105
32.815,-0.075
32.820,-0.034
32.825,-0.004
32.830,0.003
32.835,-0.012
32.840,-0.010
32.845,0.006
32.850,0.019
32.855,0.033
32.860,0.046
32.865,0.055
32.870,0.058
32.875,0.055
32.880,0.056
32.885,0.064
32.890,0.068
32.895,0.058
32.900,0.046
32.905,0.046
32.910,0.065
32.915,0.089
32.920,0.086
32.925,0.047
32.930,-0.040
32.935,-0.222
32.940,-0.511
32.945,-0.829
32.950,-1.135
32.955,-1.343
32.960,-1.245
32.965,-0.850
32.970,-0.367
32.975,0.039
32.980,0.280
32.985,0.409
32.990,0.474
32.995,0.468
33.000,0.448
33.005,0.432
33.010,0.391
33.015,0.346
33.020,0.332
33.025,0.329
33.030,0.311
33.035,0.302
33.040,0.304
33.045,0.286
33.050,0.257
33.055,0.247
33.060,0.249
33.065,0.242
33.070,0.222
33.075,0.205
33.080,0.194
33.085,0.181
33.090,0.173
33.095,0.165
33.100,0.159
33.105,0.157
33.110,0.146
33.115,0.123
33.120,0.110
33.125,0.110
33.130,0.101
33.135,0.086
33.140,0.077
33.145,0.070
33.150,0.058
33.155,0.047
33.160,0.040
33.165,0.040
33.170,0.036
33.175,0.022
33.180,0.017
33.185,0.020
33.190,0.012
33.195,-0.004
33.200,-0.013
33.205,-0.018
33.210,-0.021
33.215,-0.024
33.220,-0.029
33.225,-0.030
33.230,-0.033
33.235,-0.041
33.240,-0.040
33.245,-0.040
33.250,-0.049
33.255,-0.061
33.260,-0.065
33.265,-0.062
33.270,-0.065
33.275,-0.073
33.280,-0.081
33.285,-0.084
33.290,-0.083
33.295,-0.086
33.300,-0.097
33.305,-0.106
33.310,-0.110
33.315,-0.118
33.320,-0.125
33.325,-0.126
33.330,-0.126
33.335,-0.125
33.340,-0.122
33.345,-0.111
33.350,-0.095
33.355,-0.081
33.360,-0.072
33.365,-0.057
33.370,-0.028
33.375,-0.004
33.380,0.018
33.385,0.032
33.390,0.032
33.395,0.041
33.400,0.054
33.405,0.059
33.410,0.066
33.415,0.066
33.420,0.061
33.425,0.069
33.430,0.073
33.435,0.065
33.440,0.062
33.445,0.064
33.450,0.062
33.455,0.054
33.460,0.041
33.465,0.037
33.470,0.043
33.475,0.042
33.480,0.035
33.485,0.032
33.490,0.035
33.495,0.038
33.500,0.033
33.505,0.023
33.510,0.020
33.515,0.021
33.520,0.017
33.525,0.013
33.530,0.014
33.535,0.016
33.540,0.017
33.545,0.017
33.550,0.015
33.555,0.015
33.560,0.014
33.565,0.011
33.570,0.003
33.575,-0.003
33.580,-0.001
33.585,0.003
33.590,-0.002
33.595,-0.006
33.600,-0.004
33.605,0.001
33.610,0.003
33.615,-0.004
33.620,-0.014
33.625,-0.005
33.630,0.003
33.635,-0.007
33.640,-0.013
33.645,-0.014
33.650,-0.015
33.655,-0.015
33.660,-0.020
33.665,-0.021
33.670,-0.016
33.675,-0.011
33.680,-0.012
33.685,-0.017
33.690,-0.018
33.695,-0.020
33.700,-0.018
33.705,-0.016
33.710,-0.015
33.715,-0.016
33.720,-0.020
33.725,-0.022
33.730,-0.022
33.735,-0.018
33.740,-0.014
33.745,-0.015
33.750,-0.016
33.755,-0.024
33.760,-0.031
33.765,-0.024
33.770,-0.016
33.775,-0.020
33.780,-0.024
33.785,-0.027
33.790,-0.026
33.795,-0.023
33.800,-0.023
33.805,-0.023
33.810,-0.019
33.815,-0.016
33.820,-0.017
33.825,-0.022
33.830,-0.025
33.835,-0.023
33.840,-0.020
33.845,-0.015
33.850,-0.012
33.855,-0.011
33.860,-0.011
33.865,-0.015
33.870,-0.016
33.875,-0.019
33.880,-0.027
33.885,-0.030
33.890,-0.026
33.895,-0.015
33.900,-0.009
33.905,-0.015
33.910,-0.014
33.915,-0.010
33.920,-0.010
33.925,-0.012
33.930,-0.014
33.935,-0.015
33.940,-0.014
33.945,-0.012
33.950,-0.007
33.955,-0.006
33.960,-0.006
33.965,-0.013
33.970,-0.021
33.975,-0.024
33.980,-0.031
33.985,-0.038
33.990,-0.040
33.995,-0.041
34.000,-0.050
34.005,-0.068
34.010,-0.086
34.015,-0.105
34.020,-0.106
34.025,-0.075
34.030,-0.036
34.035,-0.017
34.040,-0.010
34.045,-0.005
34.050,-0.002
34.055,-0.003
34.060,0.002
34.065,0.019
34.070,0.041
34.075,0.056
34.080,0.061
34.085,0.064
34.090,0.061
34.095,0.053
34.100,0.048
34.105,0.049
34.110,0.050
34.115,0.053
34.120,0.066
34.125,0.090
34.130,0.091
34.135,0.052
34.140,-0.029
34.145,-0.202
34.150,-0.497
34.155,-0.840
34.160,-1.150
34.165,-1.336
34.170,-1.234
34.175,-0.855
34.180,-0.391
34.185,0.007
34.190,0.258
34.195,0.389
34.200,0.452
34.205,0.460
34.210,0.441
34.215,0.423
34.220,0.389
34.225,0.339
34.230,0.333
34.235,0.344
34.240,0.322
34.245,0.300
34.250,0.291
34.255,0.276
34.260,0.264
34.265,0.260
34.270,0.251
34.275,0.238
34.280,0.226
34.285,0.214
34.290,0.200
34.295,0.189
34.300,0.178
34.305,0.165
34.310,0.156
34.315,0.149
34.320,0.139
34.325,0.126
34.330,0.116
34.335,0.110
34.340,0.099
34.345,0.087
34.350,0.078
34.355,0.068
34.360,0.058
34.365,0.053
34.370,0.047
34.375,0.041
34.380,0.036
34.385,0.030
34.390,0.027
34.395,0.019
34.400,0.008
34.405,-0.001
34.410,-0.008
34.415,-0.012
34.420,-0.015
34.425,-0.016
34.430,-0.021
34.435,-0.026
34.440,-0.028
34.445,-0.034
34.450,-0.042
34.455,-0.049
34.460,-0.048
34.465,-0.046
34.470,-0.053
34.475,-0.062
34.480,-0.066
34.485,-0.067
34.490,-0.070
34.495,-0.075
34.500,-0.083
34.505,-0.089
34.510,-0.095
34.515,-0.104
34.520,-0.109
34.525,-0.112
34.530,-0.117
34.535,-0.122
34.540,-0.127
34.545,-0.128
34.550,-0.122
34.555,-0.111
34.560,-0.095
34.565,-0.076
34.570,-0.060
34.575,-0.047
34.580,-0.031
34.585,-0.015
34.590,0.001
34.595,0.016
34.600,0.027
34.605,0.036
34.610,0.047
34.615,0.054
34.620,0.056
34.625,0.056
34.630,0.057
34.635,0.061
34.640,0.065
34.645,0.063
34.650,0.059
34.655,0.055
34.660,0.049
34.665,0.044
34.670,0.040
34.675,0.041
34.680,0.039
34.685,0.031
34.690,0.028
34.695,0.031
34.700,0.030
34.705,0.027
34.710,0.026
34.715,0.021
34.720,0.015
34.725,0.015
34.730,0.017
34.735,0.018
34.740,0.016
34.745,0.012
34.750,0.008
34.755,0.006
34.760,0.011
34.765,0.012
34.770,0.010
34.775,0.009
34.780,0.007
34.785,0.003
34.790,-0.001
34.795,-0.003
34.800,-0.001
34.805,-0.002
34.810,-0.006
34.815,-0.004
34.820,-0.001
34.825,-0.004
34.830,-0.007
34.835,-0.006
34.840,-0.004
34.845,-0.004
34.850,-0.007
34.855,-0.011
34.860,-0.012
34.865,-0.014
34.870,-0.016
34.875,-0.014
34.880,-0.012
34.885,-0.014
34.890,-0.017
34.895,-0.017
34.900,-0.016
34.905,-0.016
34.910,-0.016
34.915,-0.016
34.920,-0.017
34.925,-0.016
34.930,-0.015
34.935,-0.017
34.940,-0.018
34.945,-0.018
34.950,-0.020
34.955,-0.020
34.960,-0.018
34.965,-0.018
34.970,-0.017
34.975,-0.020
34.980,-0.020
34.985,-0.018
34.990,-0.018
34.995,-0.015
35.000,-0.016
35.005,-0.019
35.010,-0.020
35.015,-0.022
35.020,-0.023
35.025,-0.018
35.030,-0.016
35.035,-0.018
35.040,-0.019
35.045,-0.018
35.050,-0.016
35.055,-0.016
35.060,-0.017
35.065,-0.015
35.070,-0.017
35.075,-0.019
35.080,-0.017
35.085,-0.016
35.090,-0.016
35.095,-0.016
35.100,-0.017
35.105,-0.017
35.110,-0.019
35.115,-0.019
35.120,-0.015
35.125,-0.010
35.130,-0.007
35.135,-0.008
35.140,-0.009
35.145,-0.011
35.150,-0.013
35.155,-0.014
35.160,-0.012
35.165,-0.008
35.170,-0.010
35.175,-0.010
35.180,-0.010
35.185,-0.009
35.190,-0.007
35.195,-0.009
35.200,-0.009
35.205,-0.006
35.210,-0.004
35.215,-0.004
35.220,-0.006
35.225,-0.009
35.230,-0.011
35.235,-0.014
35.240,-0.021
35.245,-0.030
35.250,-0.037
35.255,-0.036
35.260,-0.035
35.265,-0.046
35.270,-0.062
35.275,-0.076
35.280,-0.091
35.285,-0.093
35.290,-0.065
35.295,-0.024
35.300,0.001
35.305,0.004
35.310,-0.001
35.315,-0.001
35.320,0.003
35.325,0.015
35.330,0.033
35.335,0.046
35.340,0.051
35.345,0.056
35.350,0.063
35.355,0.062
35.360,0.059
35.365,0.057
35.370,0.053
35.375,0.053
35.380,0.055
35.385,0.069
35.390,0.096
35.395,0.094
35.400,0.049
35.405,-0.042
35.410,-0.234
35.415,-0.539
35.420,-0.871
35.425,-1.150
35.430,-1.270
35.435,-1.102
35.440,-0.720
35.445,-0.302
35.450,0.045
35.455,0.264
35.460,0.379
35.465,0.434
35.470,0.436
35.475,0.414
35.480,0.392
35.485,0.354
35.490,0.321
35.495,0.325
35.500,0.323
35.505,0.299
35.510,0.289
35.515,0.288
35.520,0.272
35.525,0.257
35.530,0.249
35.535,0.237
35.540,0.222
35.545,0.216
35.550,0.208
35.555,0.192
35.560,0.181
35.565,0.172
35.570,0.158
35.575,0.149
35.580,0.143
35.585,0.133
35.590,0.122
35.595,0.111
35.600,0.099
35.605,0.089
35.610,0.078
35.615,0.071
35.620,0.066
35.625,0.059
35.630,0.053
35.635,0.045
35.640,0.036
35.645,0.030
35.650,0.024
35.655,0.018
35.660,0.012
35.665,0.006
35.670,0.003
35.675,-0.001
35.680,-0.005
35.685,-0.010
35.690,-0.015
35.695,-0.016
35.700,-0.019
35.705,-0.026
35.710,-0.032
35.715,-0.035
35.720,-0.036
35.725,-0.036
35.730,-0.041
35.735,-0.048
35.740,-0.054
35.745,-0.059
35.750,-0.062
35.755,-0.067
35.760,-0.073
35.765,-0.075
35.770,-0.081
35.775,-0.089
35.780,-0.098
35.785,-0.109
35.790,-0.114
35.795,-0.117
35.800,-0.124
35.805,-0.129
35.810,-0.128
35.815,-0.123
35.820,-0.113
35.825,-0.101
35.830,-0.086
35.835,-0.072
35.840,-0.056
35.845,-0.037
35.850,-0.020
35.855,-0.003
35.860,0.009
35.865,0.019
35.870,0.029
35.875,0.037
35.880,0.044
35.885,0.047
35.890,0.052
35.895,0.057
35.900,0.059
35.905,0.054
35.910,0.049
35.915,0.048
35.920,0.047
35.925,0.044
35.930,0.041
35.935,0.036
35.940,0.032
35.945,0.031
35.950,0.029
35.955,0.026
35.960,0.025
35.965,0.023
35.970,0.022
35.975,0.023
35.980,0.022
35.985,0.020
35.990,0.019
35.995,0.019
36.000,0.016
36.005,0.012
36.010,0.014
36.015,0.017
36.020,0.013
36.025,0.008
36.030,0.004
36.035,0.005
36.040,0.008
36.045,0.007
36.050,0.004
36.055,0.002
36.060,0.002
36.065,0.006
36.070,0.004
36.075,-0.003
36.080,-0.007
36.085,-0.009
36.090,-0.008
36.095,-0.008
36.100,-0.010
36.105,-0.005
36.110,0.001
36.115,-0.002
36.120,-0.004
36.125,-0.004
36.130,-0.008
36.135,-0.013
36.140,-0.013
36.145,-0.010
36.150,-0.009
36.155,-0.016
36.160,-0.023
36.165,-0.022
36.170,-0.019
36.175,-0.014
36.180,-0.012
36.185,-0.013
36.190,-0.015
36.195,-0.017
36.200,-0.014
36.205,-0.014
36.210,-0.016
36.215,-0.012
36.220,-0.010
36.225,-0.011
36.230,-0.013
36.235,-0.018
36.240,-0.018
36.245,-0.018
36.250,-0.021
36.255,-0.023
36.260,-0.020
36.265,-0.015
36.270,-0.014
36.275,-0.020
36.280,-0.025
36.285,-0.025
36.290,-0.016
36.295,-0.009
36.300,-0.012
36.305,-0.016
36.310,-0.018
36.315,-0.017
36.320,-0.019
36.325,-0.019
36.330,-0.014
36.335,-0.012
36.340,-0.011
36.345,-0.011
36.350,-0.014
36.355,-0.015
36.360,-0.016
36.365,-0.020
36.370,-0.017
36.375,-0.010
36.380,-0.008
36.385,-0.006
36.390,-0.008
36.395,-0.009
36.400,-0.008
36.405,-0.009
36.410,-0.003
36.415,-0.005
36.420,-0.016
36.425,-0.015
36.430,-0.013
36.435,-0.012
36.440,-0.010
36.445,-0.010
36.450,-0.008
36.455,-0.008
36.460,-0.006
36.465,-0.004
36.470,-0.006
36.475,-0.008
36.480,-0.008
36.485,-0.008
36.490,-0.009
36.495,-0.008
36.500,-0.007
36.505,-0.010
36.510,-0.018
36.515,-0.028
36.520,-0.034
36.525,-0.037
36.530,-0.041
36.535,-0.043
36.540,-0.057
36.545,-0.082
36.550,-0.101
36.555,-0.102
36.560,-0.068
36.565,-0.024
36.570,-0.008
36.575,-0.007
36.580,-0.006
36.585,-0.007
36.590,0.005
36.595,0.020
36.600,0.030
36.605,0.045
36.610,0.055
36.615,0.059
36.620,0.063
36.625,0.065
36.630,0.067
36.635,0.067
36.640,0.062
36.645,0.056
36.650,0.053
36.655,0.055
36.660,0.074
36.665,0.088
36.670,0.067
36.675,-0.008
36.680,-0.170
36.685,-0.434
36.690,-0.745
36.695,-1.042
36.700,-1.257
36.705,-1.211
36.710,-0.872
36.715,-0.438
36.720,-0.052
36.725,0.220
36.730,0.376
36.735,0.445
36.740,0.445
36.745,0.423
36.750,0.418
36.755,0.397
36.760,0.341
36.765,0.323
36.770,0.330
36.775,0.307
36.780,0.287
36.785,0.282
36.790,0.270
36.795,0.254
36.800,0.246
36.805,0.241
36.810,0.229
36.815,0.213
36.820,0.201
36.825,0.195
36.830,0.184
36.835,0.170
36.840,0.155
36.845,0.146
36.850,0.142
36.855,0.133
36.860,0.121
36.865,0.110
36.870,0.098
36.875,0.094
36.880,0.086
36.885,0.075
36.890,0.067
36.895,0.056
36.900,0.047
36.905,0.036
36.910,0.028
36.915,0.023
36.920,0.013
36.925,0.013
36.930,0.013
36.935,0.006
36.940,-0.002
36.945,-0.009
36.950,-0.012
36.955,-0.017
36.960,-0.027
36.965,-0.031
36.970,-0.029
36.975,-0.032
36.980,-0.039
36.985,-0.041
36.990,-0.043
36.995,-0.048
37.000,-0.054
37.005,-0.057
37.010,-0.055
37.015,-0.060
37.020,-0.071
37.025,-0.073
37.030,-0.075
37.035,-0.080
37.040,-0.082
37.045,-0.087
37.050,-0.093
37.055,-0.105
37.060,-0.119
37.065,-0.118
37.070,-0.112
37.075,-0.115
37.080,-0.126
37.085,-0.130
37.090,-0.122
37.095,-0.108
37.100,-0.091
37.105,-0.074
37.110,-0.058
37.115,-0.038
37.120,-0.024
37.125,-0.012
37.130,0.012
37.135,0.032
37.140,0.040
37.145,0.044
37.150,0.048
37.155,0.057
37.160,0.063
37.165,0.064
37.170,0.064
37.175,0.064
37.180,0.065
37.185,0.058
37.190,0.052
37.195,0.056
37.200,0.056
37.205,0.050
37.210,0.049
37.215,0.045
37.220,0.038
37.225,0.031
37.230,0.022
37.235,0.023
37.240,0.035
37.245,0.038
37.250,0.029
37.255,0.023
37.260,0.020
37.265,0.020
37.270,0.024
37.275,0.023
37.280,0.018
37.285,0.015
37.290,0.013
37.295,0.010
37.300,0.011
37.305,0.013
37.310,0.011
37.315,0.013
37.320,0.018
37.325,0.019
37.330,0.012
37.335,0.000
37.340,-0.009
37.345,-0.006
37.350,-0.002
37.355,-0.003
37.360,0.000
37.365,0.004
37.370,-0.002
37.375,-0.006
37.380,-0.003
37.385,-0.001
37.390,-0.003
37.395,-0.004
37.400,-0.005
37.405,-0.004
37.410,-0.005
37.415,-0.016
37.420,-0.024
37.425,-0.021
37.430,-0.016
37.435,-0.016
37.440,-0.019
37.445,-0.020
37.450,-0.020
37.455,-0.017
37.460,-0.013
37.465,-0.012
37.470,-0.012
37.475,-0.016
37.480,-0.023
37.485,-0.024
37.490,-0.022
37.495,-0.020
37.500,-0.018
37.505,-0.020
37.510,-0.024
37.515,-0.022
37.520,-0.022
37.525,-0.020
37.530,-0.018
37.535,-0.020
37.540,-0.021
37.545,-0.022
37.550,-0.023
37.555,-0.024
37.560,-0.025
37.565,-0.022
37.570,-0.021
37.575,-0.021
37.580,-0.020
37.585,-0.022
37.590,-0.020
37.595,-0.016
37.600,-0.019
37.605,-0.020
37.610,-0.020
37.615,-0.021
37.620,-0.018
37.625,-0.014
37.630,-0.014
37.635,-0.016
37.640,-0.022
37.645,-0.023
37.650,-0.019
37.655,-0.019
37.660,-0.018
37.665,-0.016
37.670,-0.014
37.675,-0.011
37.680,-0.011
37.685,-0.013
37.690,-0.013
37.695,-0.014
37.700,-0.013
37.705,-0.010
37.710,-0.008
37.715,-0.011
37.720,-0.020
37.725,-0.023
37.730,-0.022
37.735,-0.019
37.740,-0.022
37.745,-0.032
37.750,-0.036
37.755,-0.036
37.760,-0.044
37.765,-0.058
37.770,-0.077
37.775,-0.093
37.780,-0.103
37.785,-0.089
37.790,-0.054
37.795,-0.024
37.800,-0.011
37.805,-0.011
37.810,-0.011
37.815,-0.003
37.820,0.007
37.825,0.019
37.830,0.036
37.835,0.043
37.840,0.051
37.845,0.063
37.850,0.063
37.855,0.056
37.860,0.056
37.865,0.053
37.870,0.047
37.875,0.047
37.880,0.062
37.885,0.090
37.890,0.100
37.895,0.066
37.900,-0.009
37.905,-0.157
37.910,-0.413
37.915,-0.732
37.920,-1.043
37.925,-1.281
37.930,-1.276
37.935,-0.960
37.940,-0.508
37.945,-0.094
37.950,0.196
37.955,0.361
37.960,0.442
37.965,0.455
37.970,0.431
37.975,0.420
37.980,0.405
37.985,0.355
37.990,0.327
37.995,0.333
38.000,0.321
38.005,0.298
38.010,0.294
38.015,0.286
38.020,0.268
38.025,0.259
38.030,0.250
38.035,0.236
38.040,0.223
38.045,0.212
38.050,0.198
38.055,0.183
38.060,0.177
38.065,0.171
38.070,0.158
38.075,0.148
38.080,0.140
38.085,0.128
38.090,0.116
38.095,0.105
38.100,0.097
38.105,0.089
38.110,0.079
38.115,0.068
38.120,0.061
38.125,0.058
38.130,0.052
38.135,0.045
38.140,0.037
38.145,0.026
38.150,0.016
38.155,0.006
38.160,0.004
38.165,0.008
38.170,0.003
38.175,-0.004
38.180,-0.013
38.185,-0.019
38.190,-0.019
38.195,-0.021
38.200,-0.026
38.205,-0.030
38.210,-0.032
38.215,-0.036
38.220,-0.044
38.225,-0.049
38.230,-0.054
38.235,-0.057
38.240,-0.058
38.245,-0.060
38.250,-0.062
38.255,-0.066
38.260,-0.073
38.265,-0.082
38.270,-0.091
38.275,-0.099
38.280,-0.104
38.285,-0.110
38.290,-0.120
38.295,-0.129
38.300,-0.132
38.305,-0.130
38.310,-0.129
38.315,-0.127
38.320,-0.116
38.325,-0.098
38.330,-0.079
38.335,-0.063
38.340,-0.045
38.345,-0.026
38.350,-0.009
38.355,0.006
38.360,0.019
38.365,0.031
38.370,0.040
38.375,0.050
38.380,0.060
38.385,0.063
38.390,0.062
38.395,0.062
38.400,0.062
38.405,0.058
38.410,0.056
38.415,0.055
38.420,0.053
38.425,0.050
38.430,0.047
38.435,0.043
38.440,0.038
38.445,0.038
38.450,0.037
38.455,0.034
38.460,0.032
38.465,0.030
38.470,0.027
38.475,0.025
38.480,0.023
38.485,0.024
38.490,0.023
38.495,0.019
38.500,0.016
38.505,0.015
38.510,0.015
38.515,0.013
38.520,0.009
38.525,0.008
38.530,0.009
38.535,0.010
38.540,0.011
38.545,0.008
38.550,0.004
38.555,0.001
38.560,0.000
38.565,0.000
38.570,0.000
38.575,-0.001
38.580,-0.003
38.585,-0.006
38.590,-0.006
38.595,-0.004
38.600,-0.004
38.605,-0.004
38.610,-0.008
38.615,-0.012
38.620,-0.014
38.625,-0.013
38.630,-0.010
38.635,-0.009
38.640,-0.012
38.645,-0.013
38.650,-0.013
38.655,-0.014
38.660,-0.013
38.665,-0.016
38.670,-0.020
38.675,-0.018
38.680,-0.018
38.685,-0.021
38.690,-0.022
38.695,-0.018
38.700,-0.015
38.705,-0.017
38.710,-0.021
38.715,-0.021
38.720,-0.018
38.725,-0.017
38.730,-0.017
38.735,-0.019
38.740,-0.019
38.745,-0.020
38.750,-0.022
38.755,-0.020
38.760,-0.019
38.765,-0.019
38.770,-0.019
38.775,-0.018
38.780,-0.018
38.785,-0.020
38.790,-0.020
38.795,-0.020
38.800,-0.019
38.805,-0.018
38.810,-0.017
38.815,-0.017
38.820,-0.019
38.825,-0.019
38.830,-0.018
38.835,-0.015
38.840,-0.013
38.845,-0.013
38.850,-0.013
38.855,-0.015
38.860,-0.017
38.865,-0.017
38.870,-0.015
38.875,-0.012
38.880,-0.011
38.885,-0.012
38.890,-0.013
38.895,-0.011
38.900,-0.012
38.905,-0.014
38.910,-0.011
38.915,-0.010
38.920,-0.013
38.925,-0.012
38.930,-0.009
38.935,-0.007
38.940,-0.011
38.945,-0.017
38.950,-0.022
38.955,-0.028
38.960,-0.036
38.965,-0.043
38.970,-0.045
38.975,-0.047
38.980,-0.052
38.985,-0.062
38.990,-0.079
38.995,-0.098
39.000,-0.096
39.005,-0.063
39.010,-0.021
39.015,0.002
39.020,0.001
39.025,-0.006
39.030,-0.008
39.035,-0.001
39.040,0.015
39.045,0.033
39.050,0.045
39.055,0.050
39.060,0.059
39.065,0.066
39.070,0.065
39.075,0.061
39.080,0.058
39.085,0.054
39.090,0.049
39.095,0.054
39.100,0.078
39.105,0.095
39.110,0.080
39.115,0.026
39.120,-0.096
39.125,-0.334
39.130,-0.659
39.135,-0.976
39.140,-1.218
39.145,-1.251
39.150,-0.989
39.155,-0.570
39.160,-0.166
39.165,0.134
39.170,0.312
39.175,0.404
39.180,0.438
39.185,0.427
39.190,0.409
39.195,0.387
39.200,0.342
39.205,0.317
39.210,0.321
39.215,0.313
39.220,0.297
39.225,0.291
39.230,0.285
39.235,0.268
39.240,0.256
39.245,0.255
39.250,0.242
39.255,0.223
39.260,0.213
39.265,0.202
39.270,0.188
39.275,0.181
39.280,0.169
39.285,0.146
39.290,0.137
39.295,0.139
39.300,0.130
39.305,0.117
39.310,0.109
39.315,0.101
39.320,0.095
39.325,0.086
39.330,0.073
39.335,0.065
39.340,0.061
39.345,0.055
39.350,0.043
39.355,0.031
39.360,0.027
39.365,0.024
39.370,0.018
39.375,0.009
39.380,0.004
39.385,0.002
39.390,0.001
39.395,-0.002
39.400,-0.008
39.405,-0.016
39.410,-0.025
39.415,-0.028
39.420,-0.032
39.425,-0.039
39.430,-0.038
39.435,-0.039
39.440,-0.041
39.445,-0.043
39.450,-0.050
39.455,-0.057
39.460,-0.063
39.465,-0.068
39.470,-0.068
39.475,-0.067
39.480,-0.075
39.485,-0.090
39.490,-0.097
39.495,-0.103
39.500,-0.111
39.505,-0.114
39.510,-0.114
39.515,-0.120
39.520,-0.123
39.525,-0.124
39.530,-0.117
39.535,-0.103
39.540,-0.091
39.545,-0.072
39.550,-0.049
39.555,-0.035
39.560,-0.022
39.565,-0.006
39.570,0.007
39.575,0.022
39.580,0.031
39.585,0.038
39.590,0.045
39.595,0.048
39.600,0.050
39.605,0.048
39.610,0.046
39.615,0.049
39.620,0.055
39.625,0.060
39.630,0.056
39.635,0.041
39.640,0.034
39.645,0.032
39.650,0.032
39.655,0.030
39.660,0.029
39.665,0.033
39.670,0.030
39.675,0.022
39.680,0.012
39.685,0.009
39.690,0.016
39.695,0.021
39.700,0.020
39.705,0.018
39.710,0.016
39.715,0.015
39.720,0.011
39.725,0.006
39.730,0.007
39.735,0.009
39.740,0.006
39.745,0.006
39.750,0.011
39.755,0.010
39.760,0.000
39.765,-0.006
39.770,-0.006
39.775,-0.001
39.780,-0.003
39.785,-0.009
39.790,-0.007
39.795,-0.002
39.800,-0.001
39.805,-0.004
39.810,-0.005
39.815,-0.008
39.820,-0.011
39.825,-0.007
39.830,-0.008
39.835,-0.010
39.840,-0.009
39.845,-0.010
39.850,-0.009
39.855,-0.012
39.860,-0.017
39.865,-0.020
39.870,-0.025
39.875,-0.017
39.880,-0.008
39.885,-0.008
39.890,-0.007
39.895,-0.009
39.900,-0.012
39.905,-0.017
39.910,-0.026
39.915,-0.031
39.920,-0.028
39.925,-0.024
39.930,-0.020
39.935,-0.018
39.940,-0.018
39.945,-0.013
39.950,-0.013
39.955,-0.020
39.960,-0.021
39.965,-0.018
39.970,-0.018
39.975,-0.016
39.980,-0.019
39.985,-0.018
39.990,-0.014
39.995,-0.015
40.000,-0.017
40.005,-0.022
40.010,-0.022
40.015,-0.019
40.020,-0.017
40.025,-0.016
40.030,-0.015
40.035,-0.014
40.040,-0.013
40.045,-0.010
40.050,-0.013
40.055,-0.017
40.060,-0.016
40.065,-0.016
40.070,-0.019
40.075,-0.016
40.080,-0.012
40.085,-0.009
40.090,-0.010
40.095,-0.015
40.100,-0.016
40.105,-0.011
40.110,-0.009
40.115,-0.007
40.120,-0.008
40.125,-0.007
40.130,-0.003
40.135,0.000
40.140,-0.002
40.145,-0.015
40.150,-0.023
40.155,-0.023
40.160,-0.026
40.165,-0.033
40.170,-0.037
40.175,-0.040
40.180,-0.050
40.185,-0.064
40.190,-0.073
40.195,-0.084
40.200,-0.099
40.205,-0.091
40.210,-0.056
40.215,-0.022
40.220,-0.007
40.225,-0.011
40.230,-0.013
40.235,-0.005
40.240,0.009
40.245,0.024
40.250,0.038
40.255,0.048
40.260,0.056
40.265,0.062
40.270,0.059
40.275,0.059
40.280,0.062
40.285,0.056
40.290,0.046
40.295,0.045
40.300,0.059
40.305,0.086
40.310,0.099
40.315,0.066
40.320,-0.027
40.325,-0.193
40.330,-0.455
40.335,-0.768
40.340,-1.061
40.345,-1.289
40.350,-1.255
40.355,-0.900
40.360,-0.439
40.365,-0.033
40.370,0.234
40.375,0.379
40.380,0.452
40.385,0.458
40.390,0.437
40.395,0.428
40.400,0.402
40.405,0.346
40.410,0.323
40.415,0.333
40.420,0.316
40.425,0.290
40.430,0.287
40.435,0.284
40.440,0.267
40.445,0.255
40.450,0.241
40.455,0.220
40.460,0.207
40.465,0.205
40.470,0.201
40.475,0.192
40.480,0.181
40.485,0.165
40.490,0.150
40.495,0.140
40.500,0.131
40.505,0.126
40.510,0.123
40.515,0.115
40.520,0.103
40.525,0.085
40.530,0.068
40.535,0.053
40.540,0.048
40.545,0.056
40.550,0.055
40.555,0.044
40.560,0.032
40.565,0.017
40.570,0.009
40.575,0.010
40.580,0.006
40.585,0.001
40.590,-0.007
40.595,-0.013
40.600,-0.008
40.605,-0.009
40.610,-0.023
40.615,-0.036
40.620,-0.038
40.625,-0.035
40.630,-0.035
40.635,-0.039
40.640,-0.047
40.645,-0.057
40.650,-0.060
40.655,-0.060
40.660,-0.055
40.665,-0.056
40.670,-0.072
40.675,-0.082
40.680,-0.083
40.685,-0.085
40.690,-0.088
40.695,-0.095
40.700,-0.107
40.705,-0.116
40.710,-0.122
40.715,-0.126
40.720,-0.128
40.725,-0.129
40.730,-0.127
40.735,-0.117
40.740,-0.102
40.745,-0.082
40.750,-0.070
40.755,-0.055
40.760,-0.035
40.765,-0.025
40.770,-0.009
40.775,0.014
40.780,0.027
40.785,0.040
40.790,0.050
40.795,0.056
40.800,0.063
40.805,0.059
40.810,0.058
40.815,0.063
40.820,0.058
40.825,0.060
40.830,0.068
40.835,0.064
40.840,0.057
40.845,0.050
40.850,0.046
40.855,0.054
40.860,0.047
40.865,0.027
40.870,0.021
40.875,0.021
40.880,0.030
40.885,0.043
40.890,0.037
40.895,0.039
40.900,0.040
40.905,0.023
40.910,0.017
40.915,0.019
40.920,0.017
40.925,0.022
40.930,0.022
40.935,0.012
40.940,0.008
40.945,0.011
40.950,0.008
40.955,0.012
40.960,0.012
40.965,0.005
40.970,0.007
40.975,0.007
40.980,0.006
40.985,0.009
40.990,0.010
40.995,0.005
41.000,-0.004
41.005,-0.012
41.010,-0.014
41.015,-0.007
41.020,-0.001
41.025,0.000
41.030,-0.001
41.035,-0.006
41.040,-0.008
41.045,-0.011
41.050,-0.020
41.055,-0.021
41.060,-0.016
41.065,-0.012
41.070,-0.014
41.075,-0.015
41.080,-0.015
41.085,-0.010
41.090,-0.006
41.095,-0.010
41.100,-0.012
41.105,-0.018
41.110,-0.025
41.115,-0.021
41.120,-0.021
41.125,-0.025
41.130,-0.025
41.135,-0.022
41.140,-0.018
41.145,-0.019
41.150,-0.026
41.155,-0.024
41.160,-0.013
41.165,-0.011
41.170,-0.020
41.175,-0.026
41.180,-0.024
41.185,-0.019
41.190,-0.020
41.195,-0.024
41.200,-0.020
41.205,-0.017
41.210,-0.019
41.215,-0.020
41.220,-0.023
41.225,-0.024
41.230,-0.023
41.235,-0.021
41.240,-0.018
41.245,-0.017
41.250,-0.014
41.255,-0.008
41.260,-0.009
41.265,-0.021
41.270,-0.031
41.275,-0.026
41.280,-0.016
41.285,-0.017
41.290,-0.020
41.295,-0.016
41.300,-0.015
41.305,-0.013
41.310,-0.010
41.315,-0.011
41.320,-0.010
41.325,-0.015
41.330,-0.023
41.335,-0.023
41.340,-0.026
41.345,-0.032
41.350,-0.038
41.355,-0.046
41.360,-0.051
41.365,-0.062
41.370,-0.074
41.375,-0.085
41.380,-0.102
41.385,-0.107
41.390,-0.080
41.395,-0.044
41.400,-0.016
41.405,-0.001
41.410,-0.006
41.415,-0.008
41.420,0.000
41.425,0.012
41.430,0.036
41.435,0.050
41.440,0.048
41.445,0.053
41.450,0.056
41.455,0.051
41.460,0.052
41.465,0.056
41.470,0.055
41.475,0.050
41.480,0.050
41.485,0.072
41.490,0.093
41.495,0.080
41.500,0.021
41.505,-0.112
41.510,-0.348
41.515,-0.672
41.520,-1.002
41.525,-1.272
41.530,-1.340
41.535,-1.082
41.540,-0.624
41.545,-0.167
41.550,0.167
41.555,0.351
41.560,0.441
41.565,0.463
41.570,0.441
41.575,0.428
41.580,0.420
41.585,0.373
41.590,0.333
41.595,0.331
41.600,0.325
41.605,0.308
41.610,0.303
41.615,0.298
41.620,0.279
41.625,0.262
41.630,0.250
41.635,0.236
41.640,0.227
41.645,0.220
41.650,0.208
41.655,0.194
41.660,0.185
41.665,0.181
41.670,0.167
41.675,0.155
41.680,0.146
41.685,0.132
41.690,0.119
41.695,0.110
41.700,0.104
41.705,0.094
41.710,0.081
41.715,0.073
41.720,0.070
41.725,0.065
41.730,0.054
41.735,0.041
41.740,0.032
41.745,0.026
41.750,0.019
41.755,0.016
41.760,0.013
41.765,0.005
41.770,0.002
41.775,0.002
41.780,-0.004
41.785,-0.015
41.790,-0.023
41.795,-0.027
41.800,-0.028
41.805,-0.028
41.810,-0.029
41.815,-0.033
41.820,-0.040
41.825,-0.047
41.830,-0.049
41.835,-0.050
41.840,-0.055
41.845,-0.061
41.850,-0.067
41.855,-0.075
41.860,-0.080
41.865,-0.079
41.870,-0.083
41.875,-0.091
41.880,-0.101
41.885,-0.114
41.890,-0.125
41.895,-0.133
41.900,-0.140
41.905,-0.138
41.910,-0.133
41.915,-0.128
41.920,-0.114
41.925,-0.094
41.930,-0.075
41.935,-0.060
41.940,-0.046
41.945,-0.029
41.950,-0.009
41.955,0.007
41.960,0.020
41.965,0.031
41.970,0.038
41.975,0.049
41.980,0.055
41.985,0.055
41.990,0.056
41.995,0.059
42.000,0.062
42.005,0.057
42.010,0.050
42.015,0.051
42.020,0.052
42.025,0.049
42.030,0.044
42.035,0.040
42.040,0.039
42.045,0.035
42.050,0.030
42.055,0.029
42.060,0.027
42.065,0.024
42.070,0.022
42.075,0.023
42.080,0.022
42.085,0.017
42.090,0.012
42.095,0.014
42.100,0.019
42.105,0.019
42.110,0.014
42.115,0.007
42.120,0.003
42.125,0.009
42.130,0.010
42.135,0.004
42.140,-0.002
42.145,-0.004
42.150,0.001
42.155,0.004
42.160,0.000
42.165,-0.003
42.170,-0.003
42.175,-0.002
42.180,-0.004
42.185,-0.005
42.190,-0.002
42.195,-0.002
42.200,-0.008
42.205,-0.012
42.210,-0.014
42.215,-0.013
42.220,-0.011
42.225,-0.009
42.230,-0.010
42.235,-0.014
42.240,-0.016
42.245,-0.013
42.250,-0.013
42.255,-0.016
42.260,-0.015
42.265,-0.014
42.270,-0.016
42.275,-0.015
42.280,-0.015
42.285,-0.017
42.290,-0.020
42.295,-0.020
42.300,-0.018
42.305,-0.016
42.310,-0.016
42.315,-0.018
42.320,-0.021
42.325,-0.023
42.330,-0.021
42.335,-0.017
42.340,-0.016
42.345,-0.016
42.350,-0.018
42.355,-0.017
42.360,-0.016
42.365,-0.021
42.370,-0.023
42.375,-0.018
42.380,-0.016
42.385,-0.017
42.390,-0.020
42.395,-0.021
42.400,-0.017
42.405,-0.014
42.410,-0.013
42.415,-0.014
42.420,-0.015
42.425,-0.017
42.430,-0.018
42.435,-0.018
42.440,-0.018
42.445,-0.015
42.450,-0.013
42.455,-0.014
42.460,-0.013
42.465,-0.012
42.470,-0.015
42.475,-0.016
42.480,-0.015
42.485,-0.012
42.490,-0.010
42.495,-0.009
42.500,-0.013
42.505,-0.015
42.510,-0.011
42.515,-0.010
42.520,-0.011
42.525,-0.011
42.530,-0.015
42.535,-0.021
42.540,-0.028
42.545,-0.037
42.550,-0.041
42.555,-0.041
42.560,-0.049
42.565,-0.060
42.570,-0.073
42.575,-0.089
42.580,-0.100
42.585,-0.083
42.590,-0.044
42.595,-0.013
42.600,-0.001
42.605,-0.003
42.610,-0.007
42.615,-0.007
42.620,0.003
42.625,0.019
42.630,0.036
42.635,0.045
42.640,0.052
42.645,0.062
42.650,0.066
42.655,0.062
42.660,0.058
42.665,0.056
42.670,0.052
42.675,0.051
42.680,0.063
42.685,0.091
42.690,0.100
42.695,0.067
42.700,-0.008
42.705,-0.171
42.710,-0.454
42.715,-0.787
42.720,-1.085
42.725,-1.264
42.730,-1.180
42.735,-0.839
42.740,-0.413
42.745,-0.032
42.750,0.221
42.755,0.357
42.760,0.429
42.765,0.446
42.770,0.424
42.775,0.401
42.780,0.368
42.785,0.324
42.790,0.319
42.795,0.327
42.800,0.308
42.805,0.292
42.810,0.291
42.815,0.280
42.820,0.262
42.825,0.252
42.830,0.243
42.835,0.230
42.840,0.220
42.845,0.211
42.850,0.199
42.855,0.188
42.860,0.180
42.865,0.167
42.870,0.152
42.875,0.146
42.880,0.138
42.885,0.123
42.890,0.111
42.895,0.104
42.900,0.097
42.905,0.086
42.910,0.076
42.915,0.066
42.920,0.060
42.925,0.055
42.930,0.048
42.935,0.041
42.940,0.034
42.945,0.028
42.950,0.022
42.955,0.017
42.960,0.013
42.965,0.006
42.970,0.000
42.975,-0.003
42.980,-0.006
42.985,-0.008
42.990,-0.012
42.995,-0.019
43.000,-0.023
43.005,-0.025
43.010,-0.028
43.015,-0.029
43.020,-0.032
43.025,-0.036
43.030,-0.041
43.035,-0.049
43.040,-0.053
43.045,-0.053
43.050,-0.058
43.055,-0.065
43.060,-0.071
43.065,-0.078
43.070,-0.085
43.075,-0.092
43.080,-0.101
43.085,-0.113
43.090,-0.122
43.095,-0.126
43.100,-0.128
43.105,-0.128
43.110,-0.125
43.115,-0.118
43.120,-0.108
43.125,-0.094
43.130,-0.078
43.135,-0.061
43.140,-0.045
43.145,-0.029
43.150,-0.011
43.155,0.002
43.160,0.014
43.165,0.023
43.170,0.031
43.175,0.042
43.180,0.047
43.185,0.047
43.190,0.049
43.195,0.050
43.200,0.048
43.205,0.048
43.210,0.048
43.215,0.046
43.220,0.043
43.225,0.041
43.230,0.037
43.235,0.032
43.240,0.029
43.245,0.028
43.250,0.027
43.255,0.027
43.260,0.026
43.265,0.023
43.270,0.021
43.275,0.018
43.280,0.016
43.285,0.016
43.290,0.014
43.295,0.013
43.300,0.016
43.305,0.015
43.310,0.014
43.315,0.012
43.320,0.008
43.325,0.006
43.330,0.004
43.335,0.002
43.340,0.002
43.345,0.006
43.350,0.007
43.355,0.001
43.360,-0.001
43.365,-0.001
43.370,-0.002
43.375,-0.001
43.380,-0.001
43.385,-0.004
43.390,-0.007
43.395,-0.010
43.400,-0.013
43.405,-0.014
43.410,-0.013
43.415,-0.015
43.420,-0.016
43.425,-0.013
43.430,-0.008
43.435,-0.007
43.440,-0.009
43.445,-0.014
43.450,-0.017
43.455,-0.017
43.460,-0.018
43.465,-0.019
43.470,-0.015
43.475,-0.013
43.480,-0.015
43.485,-0.019
43.490,-0.017
43.495,-0.015
43.500,-0.016
43.505,-0.018
43.510,-0.018
43.515,-0.014
43.520,-0.012
43.525,-0.017
43.530,-0.024
43.535,-0.030
43.540,-0.029
43.545,-0.020
43.550,-0.017
43.555,-0.018
43.560,-0.016
43.565,-0.015
43.570,-0.014
43.575,-0.015
43.580,-0.022
43.585,-0.023
43.590,-0.017
43.595,-0.014
43.600,-0.016
43.605,-0.022
43.610,-0.023
43.615,-0.022
43.620,-0.021
43.625,-0.016
43.630,-0.013
43.635,-0.012
43.640,-0.015
43.645,-0.016
43.650,-0.011
43.655,-0.013
43.660,-0.017
43.665,-0.011
43.670,-0.005
43.675,-0.005
43.680,-0.010
43.685,-0.015
43.690,-0.012
43.695,-0.011
43.700,-0.016
43.705,-0.014
43.710,-0.006
43.715,-0.003
43.720,-0.007
43.725,-0.014
43.730,-0.018
43.735,-0.024
43.740,-0.034
43.745,-0.038
43.750,-0.042
43.755,-0.044
43.760,-0.052
43.765,-0.069
43.770,-0.085
43.775,-0.097
43.780,-0.100
43.785,-0.077
43.790,-0.039
43.795,-0.011
43.800,-0.002
43.805,-0.006
43.810,-0.011
43.815,-0.007
43.820,0.012
43.825,0.031
43.830,0.044
43.835,0.052
43.840,0.057
43.845,0.065
43.850,0.068
43.855,0.061
43.860,0.058
43.865,0.059
43.870,0.054
43.875,0.048
43.880,0.057
43.885,0.081
43.890,0.093
43.895,0.066
43.900,-0.015
43.905,-0.176
43.910,-0.444
43.915,-0.764
43.920,-1.060
43.925,-1.262
43.930,-1.193
43.935,-0.845
43.940,-0.413
43.945,-0.029
43.950,0.229
43.955,0.376
43.960,0.447
43.965,0.447
43.970,0.425
43.975,0.416
43.980,0.387
43.985,0.332
43.990,0.311
43.995,0.320
44.000,0.307
44.005,0.283
44.010,0.280
44.015,0.276
44.020,0.260
44.025,0.248
44.030,0.237
44.035,0.219
44.040,0.212
44.045,0.213
44.050,0.205
44.055,0.191
44.060,0.175
44.065,0.156
44.070,0.146
44.075,0.145
44.080,0.138
44.085,0.127
44.090,0.114
44.095,0.099
44.100,0.091
44.105,0.089
44.110,0.079
44.115,0.074
44.120,0.069
44.125,0.054
44.130,0.040
44.135,0.034
44.140,0.033
44.145,0.031
44.150,0.018
44.155,0.008
44.160,0.006
44.165,0.001
44.170,-0.004
44.175,-0.007
44.180,-0.014
44.185,-0.023
44.190,-0.024
44.195,-0.021
44.200,-0.029
44.205,-0.041
44.210,-0.043
44.215,-0.038
44.220,-0.041
44.225,-0.051
44.230,-0.056
44.235,-0.054
44.240,-0.055
44.245,-0.067
44.250,-0.074
44.255,-0.070
44.260,-0.070
44.265,-0.078
44.270,-0.091
44.275,-0.102
44.280,-0.108
44.285,-0.111
44.290,-0.111
44.295,-0.116
44.300,-0.122
44.305,-0.125
44.310,-0.128
44.315,-0.125
44.320,-0.106
44.325,-0.080
44.330,-0.063
44.335,-0.056
44.340,-0.046
44.345,-0.025
44.350,-0.008
44.355,0.004
44.360,0.021
44.365,0.039
44.370,0.049
44.375,0.051
44.380,0.058
44.385,0.058
44.390,0.053
44.395,0.055
44.400,0.057
44.405,0.061
44.410,0.059
44.415,0.047
44.420,0.042
44.425,0.040
44.430,0.045
44.435,0.048
44.440,0.038
44.445,0.030
44.450,0.025
44.455,0.024
44.460,0.030
44.465,0.028
44.470,0.020
44.475,0.020
44.480,0.022
44.485,0.026
44.490,0.023
44.495,0.010
44.500,0.009
44.505,0.013
44.510,0.021
44.515,0.021
44.520,0.009
44.525,0.004
44.530,0.004
44.535,0.005
44.540,0.003
44.545,0.000
44.550,0.003
44.555,0.000
44.560,0.000
44.565,-0.002
44.570,0.000
44.575,0.007
44.580,0.000
44.585,-0.012
44.590,-0.015
44.595,-0.008
44.600,-0.002
44.605,-0.003
44.610,-0.008
44.615,-0.012
44.620,-0.013
44.625,-0.013
44.630,-0.010
44.635,-0.013
44.640,-0.014
44.645,-0.010
44.650,-0.006
44.655,-0.007
44.660,-0.012
44.665,-0.019
44.670,-0.023
44.675,-0.019
44.680,-0.017
44.685,-0.019
44.690,-0.016
44.695,-0.016
44.700,-0.019
44.705,-0.021
44.710,-0.024
44.715,-0.023
44.720,-0.018
44.725,-0.017
44.730,-0.020
44.735,-0.022
44.740,-0.022
44.745,-0.018
44.750,-0.019
44.755,-0.024
44.760,-0.025
44.765,-0.020
44.770,-0.013
44.775,-0.015
44.780,-0.023
44.785,-0.021
44.790,-0.006
44.795,0.001
44.800,-0.016
44.805,-0.032
44.810,-0.028
44.815,-0.017
44.820,-0.015
44.825,-0.025
44.830,-0.028
44.835,-0.019
44.840,-0.011
44.845,-0.012
44.850,-0.013
44.855,-0.011
44.860,-0.013
44.865,-0.015
44.870,-0.013
44.875,-0.014
44.880,-0.011
44.885,-0.009
44.890,-0.009
