'Elapsed time','ECG'
'seconds','mV'
0.000,-0.034
0.005,-0.127
0.010,-0.062
0.015,0.038
0.020,0.121
0.025,0.150
0.030,0.155
0.035,0.206
0.040,0.225
0.045,0.214
0.050,0.232
0.055,0.242
0.060,0.220
0.065,0.215
0.070,0.219
0.075,0.201
0.080,0.183
0.085,0.178
0.090,0.170
0.095,0.157
0.100,0.148
0.105,0.135
0.110,0.121
0.115,0.112
0.120,0.106
0.125,0.100
0.130,0.087
0.135,0.077
0.140,0.064
0.145,0.055
0.150,0.055
0.155,0.049
0.160,0.041
0.165,0.032
0.170,0.027
0.175,0.022
0.180,0.019
0.185,0.015
0.190,0.010
0.195,0.003
0.200,-0.004
0.205,-0.003
0.210,-0.005
0.215,-0.007
0.220,-0.012
0.225,-0.018
0.230,-0.019
0.235,-0.023
0.240,-0.024
0.245,-0.028
0.250,-0.033
0.255,-0.033
0.260,-0.038
0.265,-0.040
0.270,-0.043
0.275,-0.048
0.280,-0.054
0.285,-0.068
0.290,-0.083
0.295,-0.089
0.300,-0.084
0.305,-0.085
0.310,-0.096
0.315,-0.115
0.320,-0.128
0.325,-0.120
0.330,-0.112
0.335,-0.092
0.340,-0.070
0.345,-0.058
0.350,-0.050
0.355,-0.049
0.360,-0.044
0.365,-0.032
0.370,-0.018
0.375,-0.013
0.380,-0.014
0.385,-0.017
0.390,-0.020
0.395,-0.020
0.400,-0.023
0.405,-0.025
0.410,-0.025
0.415,-0.024
0.420,-0.025
0.425,-0.027
0.430,-0.026
0.435,-0.013
0.440,0.039
0.445,0.091
0.450,0.064
0.455,-0.125
0.460,-0.527
0.465,-1.028
0.470,-1.442
0.475,-1.604
0.480,-1.313
0.485,-0.579
0.490,0.135
0.495,0.464
0.500,0.506
0.505,0.452
0.510,0.396
0.515,0.323
0.520,0.222
0.525,0.186
0.530,0.197
0.535,0.168
0.540,0.137
0.545,0.150
0.550,0.142
0.555,0.111
0.560,0.111
0.565,0.109
0.570,0.089
0.575,0.082
0.580,0.082
0.585,0.069
0.590,0.057
0.595,0.052
0.600,0.044
0.605,0.034
0.610,0.025
0.615,0.016
0.620,0.004
0.625,-0.005
0.630,-0.011
0.635,-0.027
0.640,-0.042
0.645,-0.059
0.650,-0.078
0.655,-0.094
0.660,-0.112
0.665,-0.129
0.670,-0.149
0.675,-0.172
0.680,-0.194
0.685,-0.218
0.690,-0.241
0.695,-0.263
0.700,-0.285
0.705,-0.303
0.710,-0.317
0.715,-0.329
0.720,-0.332
0.725,-0.326
0.730,-0.316
0.735,-0.293
0.740,-0.266
0.745,-0.227
0.750,-0.174
0.755,-0.114
0.760,-0.041
0.765,0.034
0.770,0.113
0.775,0.192
0.780,0.262
0.785,0.324
0.790,0.375
0.795,0.415
0.800,0.444
0.805,0.464
0.810,0.473
0.815,0.475
0.820,0.470
0.825,0.460
0.830,0.450
0.835,0.433
0.840,0.419
0.845,0.401
0.850,0.382
0.855,0.366
0.860,0.347
0.865,0.329
0.870,0.311
0.875,0.292
0.880,0.275
0.885,0.259
0.890,0.243
0.895,0.227
0.900,0.211
0.905,0.196
0.910,0.182
0.915,0.167
0.920,0.156
0.925,0.145
0.930,0.131
0.935,0.121
0.940,0.108
0.945,0.099
0.950,0.090
0.955,0.080
0.960,0.073
0.965,0.063
0.970,0.055
0.975,0.048
0.980,0.039
0.985,0.034
0.990,0.028
0.995,0.021
1.000,0.015
1.005,0.010
1.010,0.002
1.015,-0.004
1.020,-0.010
1.025,-0.015
1.030,-0.019
1.035,-0.026
1.040,-0.027
1.045,-0.032
1.050,-0.038
1.055,-0.040
1.060,-0.046
1.065,-0.048
1.070,-0.051
1.075,-0.056
1.080,-0.060
1.085,-0.066
1.090,-0.070
1.095,-0.074
1.100,-0.080
1.105,-0.092
1.110,-0.107
1.115,-0.114
1.120,-0.112
1.125,-0.115
1.130,-0.128
1.135,-0.142
1.140,-0.151
1.145,-0.143
1.150,-0.133
1.155,-0.114
1.160,-0.089
1.165,-0.082
1.170,-0.075
1.175,-0.069
1.180,-0.067
1.185,-0.056
1.190,-0.047
1.195,-0.043
1.200,-0.038
1.205,-0.040
1.210,-0.044
1.215,-0.043
1.220,-0.045
1.225,-0.046
1.230,-0.045
1.235,-0.049
1.240,-0.049
1.245,-0.051
1.250,-0.049
1.255,-0.023
1.260,0.032
1.265,0.067
1.270,-0.009
1.275,-0.265
1.280,-0.702
1.285,-1.179
1.290,-1.503
1.295,-1.506
1.300,-1.048
1.305,-0.309
1.310,0.246
1.315,0.450
1.320,0.456
1.325,0.383
1.330,0.315
1.335,0.244
1.340,0.172
1.345,0.170
1.350,0.171
1.355,0.133
1.360,0.127
1.365,0.132
1.370,0.112
1.375,0.097
1.380,0.097
1.385,0.088
1.390,0.072
1.395,0.068
1.400,0.064
1.405,0.051
1.410,0.043
1.415,0.039
1.420,0.027
1.425,0.019
1.430,0.013
1.435,0.000
1.440,-0.010
1.445,-0.021
1.450,-0.031
1.455,-0.041
1.460,-0.055
1.465,-0.067
1.470,-0.083
1.475,-0.099
1.480,-0.114
1.485,-0.134
1.490,-0.154
1.495,-0.175
1.500,-0.197
1.505,-0.219
1.510,-0.241
1.515,-0.264
1.520,-0.281
1.525,-0.296
1.530,-0.309
1.535,-0.315
1.540,-0.319
1.545,-0.313
1.550,-0.303
1.555,-0.285
1.560,-0.254
1.565,-0.216
1.570,-0.164
1.575,-0.103
1.580,-0.037
1.585,0.038
1.590,0.113
1.595,0.186
1.600,0.255
1.605,0.315
1.610,0.364
1.615,0.405
1.620,0.433
1.625,0.453
1.630,0.463
1.635,0.464
1.640,0.462
1.645,0.451
1.650,0.440
1.655,0.426
1.660,0.408
1.665,0.393
1.670,0.374
1.675,0.356
1.680,0.338
1.685,0.318
1.690,0.302
1.695,0.284
1.700,0.265
1.705,0.250
1.710,0.234
1.715,0.217
1.720,0.205
1.725,0.191
1.730,0.176
1.735,0.164
1.740,0.150
1.745,0.140
1.750,0.126
1.755,0.115
1.760,0.106
1.765,0.094
1.770,0.086
1.775,0.077
1.780,0.069
1.785,0.063
1.790,0.054
1.795,0.044
1.800,0.036
1.805,0.029
1.810,0.022
1.815,0.018
1.820,0.011
1.825,0.006
1.830,0.000
1.835,-0.009
1.840,-0.015
1.845,-0.027
1.850,-0.032
1.855,-0.034
1.860,-0.036
1.865,-0.037
1.870,-0.041
1.875,-0.043
1.880,-0.046
1.885,-0.052
1.890,-0.055
1.895,-0.058
1.900,-0.063
1.905,-0.067
1.910,-0.070
1.915,-0.075
1.920,-0.076
1.925,-0.077
1.930,-0.077
1.935,-0.077
1.940,-0.084
1.945,-0.088
1.950,-0.092
1.955,-0.094
1.960,-0.097
1.965,-0.106
1.970,-0.118
1.975,-0.128
1.980,-0.128
1.985,-0.129
1.990,-0.141
1.995,-0.161
2.000,-0.168
2.005,-0.155
2.010,-0.138
2.015,-0.113
2.020,-0.091
2.025,-0.077
2.030,-0.072
2.035,-0.072
2.040,-0.063
2.045,-0.050
2.050,-0.039
2.055,-0.036
2.060,-0.038
2.065,-0.038
2.070,-0.041
2.075,-0.042
2.080,-0.041
2.085,-0.042
2.090,-0.038
2.095,-0.036
2.100,-0.038
2.105,-0.038
2.110,-0.027
2.115,0.017
2.120,0.070
2.125,0.045
2.130,-0.140
2.135,-0.523
2.140,-1.009
2.145,-1.404
2.150,-1.540
2.155,-1.231
2.160,-0.519
2.165,0.138
2.170,0.444
2.175,0.492
2.180,0.437
2.185,0.370
2.190,0.293
2.195,0.201
2.200,0.173
2.205,0.185
2.210,0.153
2.215,0.129
2.220,0.137
2.225,0.122
2.230,0.099
2.235,0.102
2.240,0.104
2.245,0.084
2.250,0.078
2.255,0.075
2.260,0.061
2.265,0.051
2.270,0.046
2.275,0.040
2.280,0.031
2.285,0.024
2.290,0.014
2.295,0.001
2.300,-0.008
2.305,-0.016
2.310,-0.030
2.315,-0.048
2.320,-0.060
2.325,-0.072
2.330,-0.086
2.335,-0.100
2.340,-0.119
2.345,-0.140
2.350,-0.162
2.355,-0.184
2.360,-0.207
2.365,-0.230
2.370,-0.249
2.375,-0.270
2.380,-0.288
2.385,-0.301
2.390,-0.310
2.395,-0.312
2.400,-0.312
2.405,-0.309
2.410,-0.295
2.415,-0.272
2.420,-0.243
2.425,-0.196
2.430,-0.140
2.435,-0.074
2.440,-0.002
2.445,0.068
2.450,0.145
2.455,0.222
2.460,0.291
2.465,0.350
2.470,0.395
2.475,0.432
2.480,0.455
2.485,0.470
2.490,0.479
2.495,0.476
2.500,0.467
2.505,0.453
2.510,0.437
2.515,0.422
2.520,0.408
2.525,0.392
2.530,0.378
2.535,0.359
2.540,0.336
2.545,0.318
2.550,0.299
2.555,0.286
2.560,0.268
2.565,0.250
2.570,0.235
2.575,0.217
2.580,0.203
2.585,0.191
2.590,0.176
2.595,0.160
2.600,0.145
2.605,0.129
2.610,0.120
2.615,0.111
2.620,0.103
2.625,0.099
2.630,0.090
2.635,0.082
2.640,0.076
2.645,0.066
2.650,0.058
2.655,0.046
2.660,0.035
2.665,0.028
2.670,0.023
2.675,0.021
2.680,0.012
2.685,0.005
2.690,0.000
2.695,-0.007
2.700,-0.010
2.705,-0.013
2.710,-0.016
2.715,-0.021
2.720,-0.026
2.725,-0.032
2.730,-0.039
2.735,-0.048
2.740,-0.053
2.745,-0.050
2.750,-0.052
2.755,-0.056
2.760,-0.064
2.765,-0.072
2.770,-0.069
2.775,-0.071
2.780,-0.076
2.785,-0.090
2.790,-0.112
2.795,-0.122
2.800,-0.120
2.805,-0.119
2.810,-0.127
2.815,-0.145
2.820,-0.156
2.825,-0.150
2.830,-0.136
2.835,-0.114
2.840,-0.093
2.845,-0.083
2.850,-0.073
2.855,-0.070
2.860,-0.065
2.865,-0.060
2.870,-0.062
2.875,-0.056
2.880,-0.052
2.885,-0.051
2.890,-0.047
2.895,-0.046
2.900,-0.047
2.905,-0.051
2.910,-0.052
2.915,-0.051
2.920,-0.052
2.925,-0.058
2.930,-0.055
2.935,-0.016
2.940,0.050
2.945,0.062
2.950,-0.077
2.955,-0.417
2.960,-0.910
2.965,-1.374
2.970,-1.629
2.975,-1.484
2.980,-0.826
2.985,-0.034
2.990,0.401
2.995,0.485
3.000,0.446
3.005,0.398
3.010,0.338
3.015,0.234
3.020,0.167
3.025,0.180
3.030,0.163
3.035,0.123
3.040,0.126
3.045,0.123
3.050,0.096
3.055,0.091
3.060,0.102
3.065,0.085
3.070,0.063
3.075,0.065
3.080,0.060
3.085,0.050
3.090,0.049
3.095,0.040
3.100,0.021
3.105,0.004
3.110,-0.007
3.115,-0.012
3.120,-0.017
3.125,-0.027
3.130,-0.039
3.135,-0.054
3.140,-0.064
3.145,-0.073
3.150,-0.091
3.155,-0.111
3.160,-0.133
3.165,-0.150
3.170,-0.169
3.175,-0.197
3.180,-0.219
3.185,-0.239
3.190,-0.260
3.195,-0.285
3.200,-0.312
3.205,-0.326
3.210,-0.331
3.215,-0.340
3.220,-0.341
3.225,-0.333
3.230,-0.326
3.235,-0.301
3.240,-0.260
3.245,-0.214
3.250,-0.155
3.255,-0.090
3.260,-0.012
3.265,0.070
3.270,0.148
3.275,0.222
3.280,0.292
3.285,0.356
3.290,0.402
3.295,0.433
3.300,0.458
3.305,0.475
3.310,0.481
3.315,0.480
3.320,0.473
3.325,0.462
3.330,0.445
3.335,0.424
3.340,0.412
3.345,0.402
3.350,0.383
3.355,0.365
3.360,0.343
3.365,0.323
3.370,0.308
3.375,0.285
3.380,0.266
3.385,0.250
3.390,0.235
3.395,0.220
3.400,0.202
3.405,0.188
3.410,0.175
3.415,0.163
3.420,0.153
3.425,0.140
3.430,0.125
3.435,0.111
3.440,0.098
3.445,0.089
3.450,0.084
3.455,0.075
3.460,0.069
3.465,0.059
3.470,0.048
3.475,0.042
3.480,0.034
3.485,0.029
3.490,0.023
3.495,0.015
3.500,0.007
3.505,0.000
3.510,-0.006
3.515,-0.010
3.520,-0.015
3.525,-0.020
3.530,-0.024
3.535,-0.030
3.540,-0.033
3.545,-0.038
3.550,-0.045
3.555,-0.048
3.560,-0.055
3.565,-0.061
3.570,-0.065
3.575,-0.069
3.580,-0.074
3.585,-0.087
3.590,-0.096
3.595,-0.101
3.600,-0.105
3.605,-0.114
3.610,-0.136
3.615,-0.151
3.620,-0.145
3.625,-0.131
3.630,-0.112
3.635,-0.090
3.640,-0.082
3.645,-0.079
3.650,-0.073
3.655,-0.072
3.660,-0.063
3.665,-0.054
3.670,-0.053
3.675,-0.049
3.680,-0.050
3.685,-0.052
3.690,-0.052
3.695,-0.054
3.700,-0.057
3.705,-0.059
3.710,-0.059
3.715,-0.061
3.720,-0.062
3.725,-0.059
3.730,-0.032
3.735,0.027
3.740,0.066
3.745,-0.001
3.750,-0.252
3.755,-0.693
3.760,-1.190
3.765,-1.546
3.770,-1.593
3.775,-1.147
3.780,-0.358
3.785,0.243
3.790,0.456
3.795,0.459
3.800,0.405
3.805,0.357
3.810,0.273
3.815,0.178
3.820,0.167
3.825,0.176
3.830,0.135
3.835,0.124
3.840,0.134
3.845,0.110
3.850,0.091
3.855,0.095
3.860,0.089
3.865,0.069
3.870,0.066
3.875,0.063
3.880,0.046
3.885,0.039
3.890,0.035
3.895,0.024
3.900,0.016
3.905,0.010
3.910,0.000
3.915,-0.010
3.920,-0.018
3.925,-0.029
3.930,-0.043
3.935,-0.060
3.940,-0.074
3.945,-0.090
3.950,-0.109
3.955,-0.122
3.960,-0.141
3.965,-0.160
3.970,-0.179
3.975,-0.203
3.980,-0.226
3.985,-0.251
3.990,-0.272
3.995,-0.291
4.000,-0.308
4.005,-0.322
4.010,-0.333
4.015,-0.337
4.020,-0.332
4.025,-0.322
4.030,-0.303
4.035,-0.272
4.040,-0.231
4.045,-0.179
4.050,-0.115
4.055,-0.046
4.060,0.031
4.065,0.108
4.070,0.185
4.075,0.257
4.080,0.315
4.085,0.366
4.090,0.405
4.095,0.433
4.100,0.453
4.105,0.463
4.110,0.465
4.115,0.462
4.120,0.453
4.125,0.442
4.130,0.428
4.135,0.410
4.140,0.393
4.145,0.375
4.150,0.355
4.155,0.339
4.160,0.320
4.165,0.303
4.170,0.284
4.175,0.265
4.180,0.250
4.185,0.232
4.190,0.217
4.195,0.202
4.200,0.186
4.205,0.174
4.210,0.161
4.215,0.147
4.220,0.136
4.225,0.123
4.230,0.109
4.235,0.100
4.240,0.090
4.245,0.081
4.250,0.074
4.255,0.064
4.260,0.058
4.265,0.050
4.270,0.042
4.275,0.037
4.280,0.028
4.285,0.023
4.290,0.014
4.295,0.009
4.300,0.005
4.305,-0.001
4.310,-0.006
4.315,-0.011
4.320,-0.016
4.325,-0.021
4.330,-0.026
4.335,-0.031
4.340,-0.033
4.345,-0.038
4.350,-0.043
4.355,-0.045
4.360,-0.050
4.365,-0.052
4.370,-0.054
4.375,-0.058
4.380,-0.061
4.385,-0.068
4.390,-0.072
4.395,-0.075
4.400,-0.079
4.405,-0.088
4.410,-0.104
4.415,-0.113
4.420,-0.115
4.425,-0.117
4.430,-0.129
4.435,-0.146
4.440,-0.152
4.445,-0.141
4.450,-0.126
4.455,-0.105
4.460,-0.084
4.465,-0.079
4.470,-0.073
4.475,-0.068
4.480,-0.063
4.485,-0.049
4.490,-0.043
4.495,-0.042
4.500,-0.039
4.505,-0.041
4.510,-0.043
4.515,-0.043
4.520,-0.045
4.525,-0.046
4.530,-0.046
4.535,-0.047
4.540,-0.047
4.545,-0.048
4.550,-0.041
4.555,0.002
4.560,0.058
4.565,0.060
4.570,-0.086
4.575,-0.428
4.580,-0.901
4.585,-1.333
4.590,-1.539
4.595,-1.352
4.600,-0.727
4.605,-0.017
4.610,0.375
4.615,0.469
4.620,0.429
4.625,0.354
4.630,0.287
4.635,0.206
4.640,0.162
4.645,0.175
4.650,0.156
4.655,0.123
4.660,0.132
4.665,0.126
4.670,0.102
4.675,0.097
4.680,0.095
4.685,0.081
4.690,0.070
4.695,0.069
4.700,0.060
4.705,0.047
4.710,0.042
4.715,0.034
4.720,0.023
4.725,0.017
4.730,0.009
4.735,-0.003
4.740,-0.012
4.745,-0.023
4.750,-0.035
4.755,-0.045
4.760,-0.059
4.765,-0.072
4.770,-0.089
4.775,-0.105
4.780,-0.120
4.785,-0.141
4.790,-0.160
4.795,-0.182
4.800,-0.205
4.805,-0.226
4.810,-0.249
4.815,-0.270
4.820,-0.287
4.825,-0.303
4.830,-0.313
4.835,-0.317
4.840,-0.318
4.845,-0.311
4.850,-0.299
4.855,-0.277
4.860,-0.242
4.865,-0.200
4.870,-0.145
4.875,-0.082
4.880,-0.014
4.885,0.062
4.890,0.136
4.895,0.209
4.900,0.276
4.905,0.333
4.910,0.381
4.915,0.418
4.920,0.444
4.925,0.462
4.930,0.469
4.935,0.468
4.940,0.464
4.945,0.455
4.950,0.442
4.955,0.428
4.960,0.409
4.965,0.393
4.970,0.373
4.975,0.356
4.980,0.339
4.985,0.320
4.990,0.304
4.995,0.285
5.000,0.268
5.005,0.253
5.010,0.236
5.015,0.220
5.020,0.206
5.025,0.192
5.030,0.178
5.035,0.165
5.040,0.152
5.045,0.140
5.050,0.128
5.055,0.115
5.060,0.105
5.065,0.093
5.070,0.085
5.075,0.075
5.080,0.065
5.085,0.058
5.090,0.049
5.095,0.043
5.100,0.036
5.105,0.027
5.110,0.021
5.115,0.014
5.120,0.008
5.125,0.001
5.130,-0.006
5.135,-0.012
5.140,-0.017
5.145,-0.024
5.150,-0.029
5.155,-0.032
5.160,-0.038
5.165,-0.039
5.170,-0.045
5.175,-0.049
5.180,-0.051
5.185,-0.056
5.190,-0.057
5.195,-0.061
5.200,-0.065
5.205,-0.065
5.210,-0.067
5.215,-0.068
5.220,-0.073
5.225,-0.080
5.230,-0.086
5.235,-0.089
5.240,-0.093
5.245,-0.102
5.250,-0.117
5.255,-0.126
5.260,-0.125
5.265,-0.130
5.270,-0.139
5.275,-0.157
5.280,-0.163
5.285,-0.147
5.290,-0.132
5.295,-0.110
5.300,-0.090
5.305,-0.082
5.310,-0.076
5.315,-0.072
5.320,-0.063
5.325,-0.048
5.330,-0.041
5.335,-0.039
5.340,-0.037
5.345,-0.041
5.350,-0.041
5.355,-0.041
5.360,-0.046
5.365,-0.047
5.370,-0.050
5.375,-0.048
5.380,-0.046
5.385,-0.046
5.390,-0.035
5.395,0.005
5.400,0.059
5.405,0.053
5.410,-0.103
5.415,-0.454
5.420,-0.930
5.425,-1.342
5.430,-1.518
5.435,-1.289
5.440,-0.641
5.445,0.039
5.450,0.394
5.455,0.476
5.460,0.432
5.465,0.355
5.470,0.286
5.475,0.198
5.480,0.160
5.485,0.175
5.490,0.150
5.495,0.126
5.500,0.134
5.505,0.124
5.510,0.100
5.515,0.097
5.520,0.097
5.525,0.081
5.530,0.072
5.535,0.071
5.540,0.062
5.545,0.051
5.550,0.048
5.555,0.038
5.560,0.023
5.565,0.018
5.570,0.009
5.575,0.000
5.580,-0.011
5.585,-0.021
5.590,-0.032
5.595,-0.047
5.600,-0.058
5.605,-0.071
5.610,-0.084
5.615,-0.097
5.620,-0.115
5.625,-0.136
5.630,-0.157
5.635,-0.178
5.640,-0.201
5.645,-0.223
5.650,-0.245
5.655,-0.264
5.660,-0.282
5.665,-0.299
5.670,-0.305
5.675,-0.312
5.680,-0.315
5.685,-0.309
5.690,-0.298
5.695,-0.273
5.700,-0.241
5.705,-0.199
5.710,-0.146
5.715,-0.084
5.720,-0.016
5.725,0.057
5.730,0.130
5.735,0.203
5.740,0.271
5.745,0.328
5.750,0.376
5.755,0.414
5.760,0.441
5.765,0.458
5.770,0.464
5.775,0.467
5.780,0.464
5.785,0.455
5.790,0.445
5.795,0.426
5.800,0.408
5.805,0.388
5.810,0.368
5.815,0.351
5.820,0.334
5.825,0.313
5.830,0.294
5.835,0.275
5.840,0.256
5.845,0.237
5.850,0.221
5.855,0.207
5.860,0.196
5.865,0.182
5.870,0.170
5.875,0.156
5.880,0.144
5.885,0.132
5.890,0.118
5.895,0.106
5.900,0.094
5.905,0.086
5.910,0.079
5.915,0.069
5.920,0.063
5.925,0.057
5.930,0.050
5.935,0.042
5.940,0.032
5.945,0.021
5.950,0.016
5.955,0.011
5.960,0.005
5.965,0.001
5.970,-0.005
5.975,-0.007
5.980,-0.014
5.985,-0.020
5.990,-0.024
5.995,-0.031
6.000,-0.034
6.005,-0.037
6.010,-0.039
6.015,-0.042
6.020,-0.047
6.025,-0.053
6.030,-0.057
6.035,-0.061
6.040,-0.067
6.045,-0.071
6.050,-0.077
6.055,-0.080
6.060,-0.081
6.065,-0.085
6.070,-0.092
6.075,-0.107
6.080,-0.113
6.085,-0.112
6.090,-0.117
6.095,-0.128
6.100,-0.151
6.105,-0.161
6.110,-0.151
6.115,-0.133
6.120,-0.108
6.125,-0.089
6.130,-0.082
6.135,-0.078
6.140,-0.073
6.145,-0.066
6.150,-0.052
6.155,-0.044
6.160,-0.043
6.165,-0.041
6.170,-0.043
6.175,-0.044
6.180,-0.047
6.185,-0.048
6.190,-0.046
6.195,-0.049
6.200,-0.047
6.205,-0.045
6.210,-0.045
6.215,-0.037
6.220,0.000
6.225,0.059
6.230,0.064
6.235,-0.076
6.240,-0.419
6.245,-0.903
6.250,-1.348
6.255,-1.576
6.260,-1.399
6.265,-0.743
6.270,-0.001
6.275,0.386
6.280,0.468
6.285,0.435
6.290,0.384
6.295,0.323
6.300,0.218
6.305,0.163
6.310,0.178
6.315,0.157
6.320,0.120
6.325,0.126
6.330,0.125
6.335,0.101
6.340,0.097
6.345,0.097
6.350,0.080
6.355,0.068
6.360,0.067
6.365,0.053
6.370,0.035
6.375,0.033
6.380,0.026
6.385,0.014
6.390,0.009
6.395,0.001
6.400,-0.009
6.405,-0.017
6.410,-0.024
6.415,-0.035
6.420,-0.052
6.425,-0.067
6.430,-0.082
6.435,-0.095
6.440,-0.109
6.445,-0.124
6.450,-0.143
6.455,-0.166
6.460,-0.192
6.465,-0.217
6.470,-0.237
6.475,-0.259
6.480,-0.277
6.485,-0.298
6.490,-0.316
6.495,-0.325
6.500,-0.333
6.505,-0.332
6.510,-0.324
6.515,-0.307
6.520,-0.280
6.525,-0.250
6.530,-0.214
6.535,-0.164
6.540,-0.099
6.545,-0.023
6.550,0.058
6.555,0.134
6.560,0.208
6.565,0.279
6.570,0.338
6.575,0.387
6.580,0.423
6.585,0.451
6.590,0.470
6.595,0.476
6.600,0.476
6.605,0.467
6.610,0.456
6.615,0.444
6.620,0.430
6.625,0.416
6.630,0.396
6.635,0.375
6.640,0.357
6.645,0.339
6.650,0.320
6.655,0.306
6.660,0.286
6.665,0.265
6.670,0.249
6.675,0.230
6.680,0.216
6.685,0.201
6.690,0.187
6.695,0.175
6.700,0.160
6.705,0.149
6.710,0.135
6.715,0.121
6.720,0.110
6.725,0.096
6.730,0.087
6.735,0.081
6.740,0.073
6.745,0.066
6.750,0.059
6.755,0.049
6.760,0.041
6.765,0.037
6.770,0.030
6.775,0.027
6.780,0.021
6.785,0.016
6.790,0.008
6.795,-0.001
6.800,-0.005
6.805,-0.012
6.810,-0.016
6.815,-0.019
6.820,-0.025
6.825,-0.030
6.830,-0.035
6.835,-0.038
6.840,-0.040
6.845,-0.042
6.850,-0.048
6.855,-0.048
6.860,-0.050
6.865,-0.055
6.870,-0.059
6.875,-0.069
6.880,-0.075
6.885,-0.079
6.890,-0.080
6.895,-0.086
6.900,-0.105
6.905,-0.115
6.910,-0.115
6.915,-0.115
6.920,-0.123
6.925,-0.144
6.930,-0.155
6.935,-0.148
6.940,-0.137
6.945,-0.117
6.950,-0.094
6.955,-0.083
6.960,-0.074
6.965,-0.068
6.970,-0.063
6.975,-0.050
6.980,-0.045
6.985,-0.042
6.990,-0.039
6.995,-0.041
7.000,-0.042
7.005,-0.045
7.010,-0.046
7.015,-0.046
7.020,-0.046
7.025,-0.047
7.030,-0.051
7.035,-0.052
7.040,-0.040
7.045,0.002
7.050,0.065
7.055,0.077
7.060,-0.054
7.065,-0.388
7.070,-0.874
7.075,-1.340
7.080,-1.602
7.085,-1.476
7.090,-0.852
7.095,-0.080
7.100,0.364
7.105,0.476
7.110,0.448
7.115,0.397
7.120,0.341
7.125,0.239
7.130,0.173
7.135,0.184
7.140,0.168
7.145,0.128
7.150,0.133
7.155,0.133
7.160,0.108
7.165,0.101
7.170,0.104
7.175,0.090
7.180,0.073
7.185,0.072
7.190,0.063
7.195,0.048
7.200,0.045
7.205,0.035
7.210,0.023
7.215,0.017
7.220,0.010
7.225,0.000
7.230,-0.010
7.235,-0.018
7.240,-0.029
7.245,-0.045
7.250,-0.058
7.255,-0.071
7.260,-0.089
7.265,-0.104
7.270,-0.120
7.275,-0.142
7.280,-0.161
7.285,-0.182
7.290,-0.204
7.295,-0.227
7.300,-0.252
7.305,-0.271
7.310,-0.291
7.315,-0.307
7.320,-0.317
7.325,-0.326
7.330,-0.328
7.335,-0.323
7.340,-0.310
7.345,-0.288
7.350,-0.255
7.355,-0.212
7.360,-0.158
7.365,-0.096
7.370,-0.027
7.375,0.050
7.380,0.126
7.385,0.202
7.390,0.270
7.395,0.327
7.400,0.378
7.405,0.414
7.410,0.442
7.415,0.461
7.420,0.470
7.425,0.471
7.430,0.465
7.435,0.456
7.440,0.444
7.445,0.427
7.450,0.407
7.455,0.390
7.460,0.372
7.465,0.354
7.470,0.336
7.475,0.315
7.480,0.298
7.485,0.279
7.490,0.262
7.495,0.245
7.500,0.228
7.505,0.214
7.510,0.196
7.515,0.181
7.520,0.166
7.525,0.151
7.530,0.138
7.535,0.127
7.540,0.116
7.545,0.106
7.550,0.097
7.555,0.086
7.560,0.077
7.565,0.067
7.570,0.060
7.575,0.054
7.580,0.044
7.585,0.038
7.590,0.030
7.595,0.022
7.600,0.018
7.605,0.011
7.610,0.005
7.615,0.000
7.620,-0.005
7.625,-0.009
7.630,-0.015
7.635,-0.020
7.640,-0.025
7.645,-0.030
7.650,-0.034
7.655,-0.037
7.660,-0.042
7.665,-0.045
7.670,-0.047
7.675,-0.052
7.680,-0.053
7.685,-0.058
7.690,-0.058
7.695,-0.061
7.700,-0.067
7.705,-0.069
7.710,-0.076
7.715,-0.081
7.720,-0.084
7.725,-0.091
7.730,-0.103
7.735,-0.116
7.740,-0.120
7.745,-0.118
7.750,-0.122
7.755,-0.137
7.760,-0.152
7.765,-0.154
7.770,-0.143
7.775,-0.129
7.780,-0.107
7.785,-0.083
7.790,-0.075
7.795,-0.069
7.800,-0.063
7.805,-0.057
7.810,-0.044
7.815,-0.038
7.820,-0.037
7.825,-0.034
7.830,-0.037
7.835,-0.038
7.840,-0.036
7.845,-0.039
7.850,-0.042
7.855,-0.041
7.860,-0.042
7.865,-0.042
7.870,-0.041
7.875,-0.032
7.880,0.013
7.885,0.066
7.890,0.058
7.895,-0.103
7.900,-0.462
7.905,-0.938
7.910,-1.354
7.915,-1.532
7.920,-1.301
7.925,-0.648
7.930,0.040
7.935,0.397
7.940,0.474
7.945,0.429
7.950,0.358
7.955,0.289
7.960,0.204
7.965,0.164
7.970,0.178
7.975,0.155
7.980,0.124
7.985,0.135
7.990,0.125
7.995,0.100
8.000,0.100
8.005,0.097
8.010,0.081
8.015,0.072
8.020,0.071
8.025,0.061
8.030,0.048
8.035,0.043
8.040,0.035
8.045,0.023
8.050,0.018
8.055,0.011
8.060,-0.001
8.065,-0.009
8.070,-0.019
8.075,-0.033
8.080,-0.043
8.085,-0.057
8.090,-0.069
8.095,-0.085
8.100,-0.102
8.105,-0.116
8.110,-0.137
8.115,-0.157
8.120,-0.178
8.125,-0.201
8.130,-0.224
8.135,-0.245
8.140,-0.264
8.145,-0.282
8.150,-0.297
8.155,-0.308
8.160,-0.313
8.165,-0.314
8.170,-0.308
8.175,-0.295
8.180,-0.275
8.185,-0.239
8.190,-0.197
8.195,-0.143
8.200,-0.079
8.205,-0.012
8.210,0.062
8.215,0.137
8.220,0.210
8.225,0.278
8.230,0.335
8.235,0.383
8.240,0.419
8.245,0.444
8.250,0.460
8.255,0.469
8.260,0.469
8.265,0.465
8.270,0.455
8.275,0.442
8.280,0.429
8.285,0.409
8.290,0.392
8.295,0.372
8.300,0.354
8.305,0.338
8.310,0.317
8.315,0.299
8.320,0.281
8.325,0.263
8.330,0.248
8.335,0.231
8.340,0.216
8.345,0.202
8.350,0.188
8.355,0.175
8.360,0.161
8.365,0.146
8.370,0.134
8.375,0.122
8.380,0.110
8.385,0.102
8.390,0.090
8.395,0.081
8.400,0.073
8.405,0.063
8.410,0.057
8.415,0.048
8.420,0.042
8.425,0.035
8.430,0.026
8.435,0.020
8.440,0.013
8.445,0.006
8.450,0.001
8.455,-0.004
8.460,-0.010
8.465,-0.015
8.470,-0.022
8.475,-0.027
8.480,-0.029
8.485,-0.035
8.490,-0.037
8.495,-0.043
8.500,-0.048
8.505,-0.050
8.510,-0.055
8.515,-0.057
8.520,-0.061
8.525,-0.065
8.530,-0.066
8.535,-0.072
8.540,-0.078
8.545,-0.085
8.550,-0.090
8.555,-0.098
8.560,-0.114
8.565,-0.130
8.570,-0.130
8.575,-0.124
8.580,-0.131
8.585,-0.147
8.590,-0.165
8.595,-0.163
8.600,-0.153
8.605,-0.141
8.610,-0.117
8.615,-0.096
8.620,-0.080
8.625,-0.073
8.630,-0.070
8.635,-0.061
8.640,-0.047
8.645,-0.039
8.650,-0.034
8.655,-0.033
8.660,-0.037
8.665,-0.037
8.670,-0.037
8.675,-0.039
8.680,-0.039
8.685,-0.042
8.690,-0.041
8.695,-0.043
8.700,-0.044
8.705,-0.041
8.710,-0.017
8.715,0.042
8.720,0.067
8.725,-0.024
8.730,-0.295
8.735,-0.740
8.740,-1.198
8.745,-1.480
8.750,-1.422
8.755,-0.911
8.760,-0.189
8.765,0.298
8.770,0.465
8.775,0.453
8.780,0.374
8.785,0.304
8.790,0.219
8.795,0.156
8.800,0.160
8.805,0.152
8.810,0.118
8.815,0.115
8.820,0.120
8.825,0.097
8.830,0.085
8.835,0.089
8.840,0.075
8.845,0.058
8.850,0.057
8.855,0.051
8.860,0.038
8.865,0.033
8.870,0.025
8.875,0.014
8.880,0.006
8.885,-0.001
8.890,-0.009
8.895,-0.022
8.900,-0.031
8.905,-0.042
8.910,-0.056
8.915,-0.063
8.920,-0.075
8.925,-0.090
8.930,-0.105
8.935,-0.123
8.940,-0.141
8.945,-0.157
8.950,-0.176
8.955,-0.198
8.960,-0.222
8.965,-0.245
8.970,-0.263
8.975,-0.283
8.980,-0.302
8.985,-0.311
8.990,-0.320
8.995,-0.321
9.000,-0.316
9.005,-0.307
9.010,-0.288
9.015,-0.262
9.020,-0.221
9.025,-0.171
9.030,-0.112
9.035,-0.045
9.040,0.027
9.045,0.102
9.050,0.177
9.055,0.247
9.060,0.308
9.065,0.361
9.070,0.402
9.075,0.433
9.080,0.454
9.085,0.464
9.090,0.471
9.095,0.465
9.100,0.456
9.105,0.444
9.110,0.428
9.115,0.416
9.120,0.400
9.125,0.385
9.130,0.368
9.135,0.348
9.140,0.327
9.145,0.307
9.150,0.288
9.155,0.272
9.160,0.256
9.165,0.239
9.170,0.225
9.175,0.211
9.180,0.197
9.185,0.184
9.190,0.167
9.195,0.155
9.200,0.141
9.205,0.130
9.210,0.123
9.215,0.111
9.220,0.102
9.225,0.092
9.230,0.083
9.235,0.075
9.240,0.065
9.245,0.056
9.250,0.050
9.255,0.044
9.260,0.037
9.265,0.030
9.270,0.022
9.275,0.016
9.280,0.009
9.285,0.000
9.290,-0.003
9.295,-0.008
9.300,-0.012
9.305,-0.014
9.310,-0.020
9.315,-0.023
9.320,-0.028
9.325,-0.031
9.330,-0.036
9.335,-0.042
9.340,-0.046
9.345,-0.052
9.350,-0.058
9.355,-0.065
9.360,-0.074
9.365,-0.086
9.370,-0.100
9.375,-0.113
9.380,-0.112
9.385,-0.108
9.390,-0.122
9.395,-0.144
9.400,-0.160
9.405,-0.158
9.410,-0.148
9.415,-0.138
9.420,-0.116
9.425,-0.094
9.430,-0.080
9.435,-0.071
9.440,-0.067
9.445,-0.058
9.450,-0.044
9.455,-0.036
9.460,-0.033
9.465,-0.033
9.470,-0.037
9.475,-0.036
9.480,-0.036
9.485,-0.039
9.490,-0.038
9.495,-0.040
9.500,-0.041
9.505,-0.044
9.510,-0.047
9.515,-0.045
9.520,-0.032
9.525,0.019
9.530,0.069
9.535,0.037
9.540,-0.162
9.545,-0.567
9.550,-1.056
9.555,-1.435
9.560,-1.547
9.565,-1.199
9.570,-0.463
9.575,0.169
9.580,0.431
9.585,0.461
9.590,0.410
9.595,0.359
9.600,0.275
9.605,0.173
9.610,0.149
9.615,0.158
9.620,0.124
9.625,0.102
9.630,0.115
9.635,0.101
9.640,0.077
9.645,0.080
9.650,0.076
9.655,0.057
9.660,0.051
9.665,0.049
9.670,0.035
9.675,0.027
9.680,0.022
9.685,0.012
9.690,0.004
9.695,-0.005
9.700,-0.013
9.705,-0.026
9.710,-0.036
9.715,-0.043
9.720,-0.056
9.725,-0.067
9.730,-0.077
9.735,-0.092
9.740,-0.105
9.745,-0.122
9.750,-0.141
9.755,-0.161
9.760,-0.181
9.765,-0.201
9.770,-0.220
9.775,-0.245
9.780,-0.267
9.785,-0.285
9.790,-0.303
9.795,-0.313
9.800,-0.322
9.805,-0.325
9.810,-0.325
9.815,-0.318
9.820,-0.300
9.825,-0.278
9.830,-0.241
9.835,-0.192
9.840,-0.135
9.845,-0.069
9.850,0.004
9.855,0.081
9.860,0.158
9.865,0.230
9.870,0.294
9.875,0.352
9.880,0.396
9.885,0.429
9.890,0.454
9.895,0.465
9.900,0.471
9.905,0.468
9.910,0.460
9.915,0.451
9.920,0.437
9.925,0.423
9.930,0.406
9.935,0.388
9.940,0.371
9.945,0.351
9.950,0.332
9.955,0.313
9.960,0.294
9.965,0.275
9.970,0.259
9.975,0.242
9.980,0.228
9.985,0.211
9.990,0.194
9.995,0.182
10.000,0.166
10.005,0.153
10.010,0.141
10.015,0.128
10.020,0.120
10.025,0.109
10.030,0.101
10.035,0.095
10.040,0.086
10.045,0.078
10.050,0.068
10.055,0.059
10.060,0.052
10.065,0.044
10.070,0.035
10.075,0.029
10.080,0.022
10.085,0.017
10.090,0.013
10.095,0.005
10.100,0.001
10.105,-0.006
10.110,-0.011
10.115,-0.013
10.120,-0.020
10.125,-0.024
10.130,-0.030
10.135,-0.035
10.140,-0.038
10.145,-0.044
10.150,-0.047
10.155,-0.050
10.160,-0.055
10.165,-0.060
10.170,-0.065
10.175,-0.074
10.180,-0.080
10.185,-0.095
10.190,-0.115
10.195,-0.121
10.200,-0.119
10.205,-0.114
10.210,-0.127
10.215,-0.150
10.220,-0.157
10.225,-0.157
10.230,-0.151
10.235,-0.138
10.240,-0.119
10.245,-0.095
10.250,-0.078
10.255,-0.069
10.260,-0.060
10.265,-0.048
10.270,-0.040
10.275,-0.033
10.280,-0.030
10.285,-0.030
10.290,-0.032
10.295,-0.035
10.300,-0.033
10.305,-0.035
10.310,-0.036
10.315,-0.036
10.320,-0.040
10.325,-0.040
10.330,-0.041
10.335,-0.041
10.340,-0.025
10.345,0.026
10.350,0.072
10.355,0.031
10.360,-0.179
10.365,-0.587
10.370,-1.068
10.375,-1.435
10.380,-1.521
10.385,-1.157
10.390,-0.435
10.395,0.178
10.400,0.435
10.405,0.466
10.410,0.409
10.415,0.345
10.420,0.265
10.425,0.172
10.430,0.155
10.435,0.164
10.440,0.127
10.445,0.110
10.450,0.120
10.455,0.103
10.460,0.083
10.465,0.087
10.470,0.080
10.475,0.062
10.480,0.056
10.485,0.054
10.490,0.042
10.495,0.030
10.500,0.028
10.505,0.017
10.510,0.007
10.515,0.001
10.520,-0.009
10.525,-0.019
10.530,-0.030
10.535,-0.039
10.540,-0.051
10.545,-0.064
10.550,-0.075
10.555,-0.090
10.560,-0.106
10.565,-0.121
10.570,-0.137
10.575,-0.157
10.580,-0.175
10.585,-0.196
10.590,-0.217
10.595,-0.237
10.600,-0.260
10.605,-0.278
10.610,-0.297
10.615,-0.311
10.620,-0.317
10.625,-0.322
10.630,-0.318
10.635,-0.311
10.640,-0.298
10.645,-0.271
10.650,-0.235
10.655,-0.189
10.660,-0.134
10.665,-0.071
10.670,0.000
10.675,0.078
10.680,0.152
10.685,0.224
10.690,0.289
10.695,0.344
10.700,0.392
10.705,0.425
10.710,0.450
10.715,0.464
10.720,0.468
10.725,0.468
10.730,0.460
10.735,0.451
10.740,0.439
10.745,0.422
10.750,0.407
10.755,0.389
10.760,0.370
10.765,0.353
10.770,0.336
10.775,0.316
10.780,0.299
10.785,0.280
10.790,0.264
10.795,0.250
10.800,0.231
10.805,0.217
10.810,0.200
10.815,0.186
10.820,0.174
10.825,0.157
10.830,0.146
10.835,0.134
10.840,0.122
10.845,0.112
10.850,0.102
10.855,0.094
10.860,0.085
10.865,0.075
10.870,0.065
10.875,0.057
10.880,0.049
10.885,0.043
10.890,0.035
10.895,0.026
10.900,0.022
10.905,0.015
10.910,0.010
10.915,0.004
10.920,-0.003
10.925,-0.008
10.930,-0.014
10.935,-0.017
10.940,-0.022
10.945,-0.028
10.950,-0.031
10.955,-0.035
10.960,-0.040
10.965,-0.044
10.970,-0.046
10.975,-0.050
10.980,-0.052
10.985,-0.058
10.990,-0.066
10.995,-0.073
11.000,-0.083
11.005,-0.093
11.010,-0.112
11.015,-0.123
11.020,-0.119
11.025,-0.116
11.030,-0.125
11.035,-0.147
11.040,-0.160
11.045,-0.159
11.050,-0.152
11.055,-0.138
11.060,-0.116
11.065,-0.092
11.070,-0.075
11.075,-0.064
11.080,-0.059
11.085,-0.048
11.090,-0.038
11.095,-0.033
11.100,-0.026
11.105,-0.028
11.110,-0.028
11.115,-0.029
11.120,-0.032
11.125,-0.033
11.130,-0.036
11.135,-0.036
11.140,-0.038
11.145,-0.038
11.150,-0.036
11.155,-0.038
11.160,-0.026
11.165,0.023
11.170,0.070
11.175,0.035
11.180,-0.161
11.185,-0.555
11.190,-1.032
11.195,-1.399
11.200,-1.498
11.205,-1.155
11.210,-0.453
11.215,0.160
11.220,0.430
11.225,0.464
11.230,0.408
11.235,0.340
11.240,0.263
11.245,0.176
11.250,0.155
11.255,0.163
11.260,0.129
11.265,0.111
11.270,0.122
11.275,0.107
11.280,0.085
11.285,0.087
11.290,0.079
11.295,0.061
11.300,0.058
11.305,0.053
11.310,0.041
11.315,0.030
11.320,0.027
11.325,0.019
11.330,0.007
11.335,0.002
11.340,-0.006
11.345,-0.018
11.350,-0.025
11.355,-0.035
11.360,-0.048
11.365,-0.059
11.370,-0.072
11.375,-0.086
11.380,-0.100
11.385,-0.116
11.390,-0.133
11.395,-0.152
11.400,-0.173
11.405,-0.191
11.410,-0.214
11.415,-0.233
11.420,-0.252
11.425,-0.274
11.430,-0.290
11.435,-0.305
11.440,-0.315
11.445,-0.320
11.450,-0.320
11.455,-0.311
11.460,-0.295
11.465,-0.272
11.470,-0.237
11.475,-0.192
11.480,-0.139
11.485,-0.073
11.490,-0.003
11.495,0.071
11.500,0.148
11.505,0.217
11.510,0.284
11.515,0.340
11.520,0.385
11.525,0.421
11.530,0.443
11.535,0.458
11.540,0.464
11.545,0.461
11.550,0.457
11.555,0.447
11.560,0.434
11.565,0.419
11.570,0.401
11.575,0.383
11.580,0.364
11.585,0.344
11.590,0.326
11.595,0.308
11.600,0.289
11.605,0.273
11.610,0.253
11.615,0.237
11.620,0.224
11.625,0.207
11.630,0.194
11.635,0.179
11.640,0.166
11.645,0.152
11.650,0.138
11.655,0.125
11.660,0.113
11.665,0.105
11.670,0.097
11.675,0.085
11.680,0.076
11.685,0.070
11.690,0.059
11.695,0.050
11.700,0.047
11.705,0.042
11.710,0.038
11.715,0.028
11.720,0.017
11.725,0.010
11.730,0.000
11.735,-0.004
11.740,-0.007
11.745,-0.009
11.750,-0.013
11.755,-0.021
11.760,-0.028
11.765,-0.031
11.770,-0.034
11.775,-0.039
11.780,-0.042
11.785,-0.046
11.790,-0.051
11.795,-0.058
11.800,-0.066
11.805,-0.070
11.810,-0.076
11.815,-0.083
11.820,-0.102
11.825,-0.121
11.830,-0.123
11.835,-0.119
11.840,-0.122
11.845,-0.144
11.850,-0.166
11.855,-0.167
11.860,-0.158
11.865,-0.147
11.870,-0.129
11.875,-0.107
11.880,-0.088
11.885,-0.074
11.890,-0.069
11.895,-0.058
11.900,-0.043
11.905,-0.039
11.910,-0.034
11.915,-0.031
11.920,-0.029
11.925,-0.028
11.930,-0.032
11.935,-0.037
11.940,-0.038
11.945,-0.035
11.950,-0.033
11.955,-0.036
11.960,-0.040
11.965,-0.044
11.970,-0.042
11.975,-0.016
11.980,0.041
11.985,0.071
11.990,-0.010
11.995,-0.281
12.000,-0.731
12.005,-1.196
12.010,-1.493
12.015,-1.447
12.020,-0.927
12.025,-0.182
12.030,0.311
12.035,0.468
12.040,0.460
12.045,0.397
12.050,0.333
12.055,0.238
12.060,0.160
12.065,0.163
12.070,0.157
12.075,0.117
12.080,0.113
12.085,0.119
12.090,0.091
12.095,0.078
12.100,0.083
12.105,0.067
12.110,0.052
12.115,0.051
12.120,0.047
12.125,0.035
12.130,0.031
12.135,0.029
12.140,0.014
12.145,0.005
12.150,-0.002
12.155,-0.016
12.160,-0.026
12.165,-0.033
12.170,-0.040
12.175,-0.050
12.180,-0.064
12.185,-0.078
12.190,-0.093
12.195,-0.112
12.200,-0.129
12.205,-0.145
12.210,-0.165
12.215,-0.181
12.220,-0.202
12.225,-0.228
12.230,-0.255
12.235,-0.278
12.240,-0.291
12.245,-0.307
12.250,-0.320
12.255,-0.325
12.260,-0.327
12.265,-0.322
12.270,-0.311
12.275,-0.291
12.280,-0.262
12.285,-0.227
12.290,-0.179
12.295,-0.112
12.300,-0.042
12.305,0.030
12.310,0.104
12.315,0.176
12.320,0.250
12.325,0.313
12.330,0.366
12.335,0.408
12.340,0.433
12.345,0.452
12.350,0.465
12.355,0.469
12.360,0.466
12.365,0.454
12.370,0.437
12.375,0.422
12.380,0.410
12.385,0.398
12.390,0.381
12.395,0.359
12.400,0.343
12.405,0.327
12.410,0.303
12.415,0.282
12.420,0.264
12.425,0.251
12.430,0.237
12.435,0.219
12.440,0.206
12.445,0.190
12.450,0.172
12.455,0.157
12.460,0.143
12.465,0.135
12.470,0.128
12.475,0.116
12.480,0.106
12.485,0.095
12.490,0.081
12.495,0.074
12.500,0.066
12.505,0.058
12.510,0.058
12.515,0.057
12.520,0.052
12.525,0.037
12.530,0.022
12.535,0.015
12.540,0.008
12.545,0.004
12.550,0.000
12.555,-0.005
12.560,-0.005
12.565,-0.009
12.570,-0.015
12.575,-0.017
12.580,-0.021
12.585,-0.028
12.590,-0.040
12.595,-0.060
12.600,-0.080
12.605,-0.097
12.610,-0.105
12.615,-0.098
12.620,-0.101
12.625,-0.116
12.630,-0.133
12.635,-0.144
12.640,-0.143
12.645,-0.136
12.650,-0.121
12.655,-0.101
12.660,-0.086
12.665,-0.072
12.670,-0.059
12.675,-0.047
12.680,-0.035
12.685,-0.034
12.690,-0.038
12.695,-0.035
12.700,-0.034
12.705,-0.030
12.710,-0.028
12.715,-0.031
12.720,-0.027
12.725,-0.029
12.730,-0.036
12.735,-0.039
12.740,-0.046
12.745,-0.052
12.750,-0.051
12.755,-0.041
12.760,-0.001
12.765,0.059
12.770,0.070
12.775,-0.057
12.780,-0.391
12.785,-0.882
12.790,-1.340
12.795,-1.601
12.800,-1.471
12.805,-0.835
12.810,-0.055
12.815,0.385
12.820,0.476
12.825,0.441
12.830,0.397
12.835,0.341
12.840,0.234
12.845,0.156
12.850,0.163
12.855,0.148
12.860,0.109
12.865,0.117
12.870,0.122
12.875,0.093
12.880,0.083
12.885,0.085
12.890,0.066
12.895,0.051
12.900,0.050
12.905,0.038
12.910,0.023
12.915,0.017
12.920,0.017
12.925,0.004
12.930,-0.008
12.935,-0.007
12.940,-0.016
12.945,-0.028
12.950,-0.035
12.955,-0.046
12.960,-0.059
12.965,-0.073
12.970,-0.095
12.975,-0.115
12.980,-0.126
12.985,-0.143
12.990,-0.164
12.995,-0.189
13.000,-0.216
13.005,-0.239
13.010,-0.258
13.015,-0.275
13.020,-0.296
13.025,-0.320
13.030,-0.343
13.035,-0.355
13.040,-0.357
13.045,-0.356
13.050,-0.344
13.055,-0.327
13.060,-0.303
13.065,-0.267
13.070,-0.221
13.075,-0.160
13.080,-0.089
13.085,-0.014
13.090,0.067
13.095,0.151
13.100,0.229
13.105,0.298
13.110,0.354
13.115,0.397
13.120,0.433
13.125,0.454
13.130,0.469
13.135,0.477
13.140,0.473
13.145,0.466
13.150,0.455
13.155,0.442
13.160,0.427
13.165,0.409
13.170,0.390
13.175,0.371
13.180,0.351
13.185,0.332
13.190,0.316
13.195,0.301
13.200,0.286
13.205,0.268
13.210,0.249
13.215,0.233
13.220,0.216
13.225,0.205
13.230,0.193
13.235,0.178
13.240,0.163
13.245,0.145
13.250,0.133
13.255,0.123
13.260,0.112
13.265,0.102
13.270,0.093
13.275,0.084
13.280,0.077
13.285,0.068
13.290,0.057
13.295,0.048
13.300,0.039
13.305,0.035
13.310,0.031
13.315,0.022
13.320,0.017
13.325,0.009
13.330,0.004
13.335,0.001
13.340,-0.007
13.345,-0.010
13.350,-0.015
13.355,-0.019
13.360,-0.025
13.365,-0.035
13.370,-0.043
13.375,-0.057
13.380,-0.081
13.385,-0.099
13.390,-0.102
13.395,-0.101
13.400,-0.104
13.405,-0.121
13.410,-0.136
13.415,-0.140
13.420,-0.148
13.425,-0.144
13.430,-0.128
13.435,-0.108
13.440,-0.085
13.445,-0.071
13.450,-0.059
13.455,-0.050
13.460,-0.041
13.465,-0.033
13.470,-0.030
13.475,-0.031
13.480,-0.032
13.485,-0.031
13.490,-0.031
13.495,-0.034
13.500,-0.037
13.505,-0.038
13.510,-0.042
13.515,-0.046
13.520,-0.043
13.525,-0.048
13.530,-0.049
13.535,-0.031
13.540,0.020
13.545,0.068
13.550,0.020
13.555,-0.202
13.560,-0.623
13.565,-1.117
13.570,-1.495
13.575,-1.590
13.580,-1.213
13.585,-0.459
13.590,0.179
13.595,0.438
13.600,0.462
13.605,0.408
13.610,0.352
13.615,0.274
13.620,0.177
13.625,0.158
13.630,0.165
13.635,0.129
13.640,0.113
13.645,0.123
13.650,0.107
13.655,0.082
13.660,0.084
13.665,0.080
13.670,0.061
13.675,0.055
13.680,0.052
13.685,0.038
13.690,0.029
13.695,0.025
13.700,0.013
13.705,0.004
13.710,-0.001
13.715,-0.013
13.720,-0.022
13.725,-0.034
13.730,-0.042
13.735,-0.054
13.740,-0.070
13.745,-0.081
13.750,-0.097
13.755,-0.113
13.760,-0.130
13.765,-0.150
13.770,-0.171
13.775,-0.193
13.780,-0.214
13.785,-0.236
13.790,-0.259
13.795,-0.281
13.800,-0.300
13.805,-0.318
13.810,-0.332
13.815,-0.339
13.820,-0.343
13.825,-0.339
13.830,-0.330
13.835,-0.310
13.840,-0.279
13.845,-0.240
13.850,-0.185
13.855,-0.124
13.860,-0.054
13.865,0.023
13.870,0.101
13.875,0.178
13.880,0.250
13.885,0.311
13.890,0.364
13.895,0.406
13.900,0.434
13.905,0.454
13.910,0.462
13.915,0.464
13.920,0.464
13.925,0.454
13.930,0.443
13.935,0.428
13.940,0.410
13.945,0.395
13.950,0.375
13.955,0.357
13.960,0.339
13.965,0.319
13.970,0.302
13.975,0.284
13.980,0.266
13.985,0.250
13.990,0.232
13.995,0.216
14.000,0.203
14.005,0.187
14.010,0.173
14.015,0.160
14.020,0.145
14.025,0.134
14.030,0.121
14.035,0.111
14.040,0.102
14.045,0.090
14.050,0.082
14.055,0.072
14.060,0.064
14.065,0.057
14.070,0.049
14.075,0.041
14.080,0.033
14.085,0.025
14.090,0.019
14.095,0.013
14.100,0.006
14.105,0.001
14.110,-0.005
14.115,-0.011
14.120,-0.014
14.125,-0.021
14.130,-0.025
14.135,-0.030
14.140,-0.036
14.145,-0.039
14.150,-0.045
14.155,-0.050
14.160,-0.058
14.165,-0.066
14.170,-0.076
14.175,-0.097
14.180,-0.114
14.185,-0.115
14.190,-0.112
14.195,-0.116
14.200,-0.130
14.205,-0.148
14.210,-0.152
14.215,-0.153
14.220,-0.152
14.225,-0.133
14.230,-0.114
14.235,-0.092
14.240,-0.074
14.245,-0.066
14.250,-0.056
14.255,-0.047
14.260,-0.038
14.265,-0.030
14.270,-0.028
14.275,-0.029
14.280,-0.030
14.285,-0.030
14.290,-0.034
14.295,-0.034
14.300,-0.034
14.305,-0.036
14.310,-0.039
14.315,-0.040
14.320,-0.039
14.325,-0.041
14.330,-0.018
14.335,0.035
14.340,0.067
14.345,-0.005
14.350,-0.256
14.355,-0.685
14.360,-1.155
14.365,-1.470
14.370,-1.462
14.375,-1.006
14.380,-0.283
14.385,0.255
14.390,0.455
14.395,0.456
14.400,0.380
14.405,0.307
14.410,0.232
14.415,0.164
14.420,0.161
14.425,0.163
14.430,0.126
14.435,0.119
14.440,0.123
14.445,0.100
14.450,0.089
14.455,0.089
14.460,0.079
14.465,0.065
14.470,0.061
14.475,0.056
14.480,0.042
14.485,0.035
14.490,0.030
14.495,0.018
14.500,0.008
14.505,0.003
14.510,-0.007
14.515,-0.018
14.520,-0.026
14.525,-0.040
14.530,-0.051
14.535,-0.065
14.540,-0.078
14.545,-0.091
14.550,-0.109
14.555,-0.124
14.560,-0.143
14.565,-0.163
14.570,-0.182
14.575,-0.206
14.580,-0.229
14.585,-0.251
14.590,-0.274
14.595,-0.292
14.600,-0.308
14.605,-0.322
14.610,-0.330
14.615,-0.333
14.620,-0.329
14.625,-0.313
14.630,-0.293
14.635,-0.259
14.640,-0.217
14.645,-0.167
14.650,-0.103
14.655,-0.036
14.660,0.040
14.665,0.118
14.670,0.193
14.675,0.262
14.680,0.322
14.685,0.371
14.690,0.409
14.695,0.436
14.700,0.453
14.705,0.462
14.710,0.462
14.715,0.459
14.720,0.453
14.725,0.438
14.730,0.425
14.735,0.408
14.740,0.389
14.745,0.372
14.750,0.353
14.755,0.336
14.760,0.317
14.765,0.299
14.770,0.285
14.775,0.268
14.780,0.252
14.785,0.236
14.790,0.221
14.795,0.205
14.800,0.188
14.805,0.173
14.810,0.162
14.815,0.149
14.820,0.135
14.825,0.125
14.830,0.114
14.835,0.107
14.840,0.095
14.845,0.085
14.850,0.079
14.855,0.067
14.860,0.058
14.865,0.051
14.870,0.045
14.875,0.041
14.880,0.036
14.885,0.030
14.890,0.019
14.895,0.008
14.900,0.001
14.905,-0.002
14.910,-0.007
14.915,-0.013
14.920,-0.019
14.925,-0.026
14.930,-0.030
14.935,-0.036
14.940,-0.037
14.945,-0.038
14.950,-0.043
14.955,-0.044
14.960,-0.048
14.965,-0.052
14.970,-0.059
14.975,-0.069
14.980,-0.075
14.985,-0.081
14.990,-0.094
14.995,-0.114
15.000,-0.129
15.005,-0.130
15.010,-0.126
15.015,-0.136
15.020,-0.153
15.025,-0.161
15.030,-0.162
15.035,-0.156
15.040,-0.147
15.045,-0.132
15.050,-0.110
15.055,-0.089
15.060,-0.069
15.065,-0.057
15.070,-0.047
15.075,-0.035
15.080,-0.028
15.085,-0.026
15.090,-0.028
15.095,-0.032
15.100,-0.032
15.105,-0.027
15.110,-0.024
15.115,-0.022
15.120,-0.025
15.125,-0.032
15.130,-0.033
15.135,-0.036
15.140,-0.038
15.145,-0.034
15.150,-0.004
15.155,0.056
15.160,0.080
15.165,-0.011
15.170,-0.292
15.175,-0.754
15.180,-1.221
15.185,-1.508
15.190,-1.452
15.195,-0.922
15.200,-0.171
15.205,0.322
15.210,0.477
15.215,0.460
15.220,0.394
15.225,0.336
15.230,0.244
15.235,0.168
15.240,0.163
15.245,0.154
15.250,0.120
15.255,0.118
15.260,0.126
15.265,0.100
15.270,0.087
15.275,0.093
15.280,0.080
15.285,0.062
15.290,0.060
15.295,0.054
15.300,0.039
15.305,0.033
15.310,0.026
15.315,0.015
15.320,0.007
15.325,-0.001
15.330,-0.011
15.335,-0.022
15.340,-0.026
15.345,-0.037
15.350,-0.052
15.355,-0.065
15.360,-0.082
15.365,-0.096
15.370,-0.110
15.375,-0.129
15.380,-0.148
15.385,-0.169
15.390,-0.193
15.395,-0.215
15.400,-0.237
15.405,-0.257
15.410,-0.273
15.415,-0.295
15.420,-0.315
15.425,-0.328
15.430,-0.337
15.435,-0.335
15.440,-0.332
15.445,-0.319
15.450,-0.297
15.455,-0.267
15.460,-0.222
15.465,-0.168
15.470,-0.103
15.475,-0.026
15.480,0.051
15.485,0.130
15.490,0.205
15.495,0.275
15.500,0.338
15.505,0.386
15.510,0.420
15.515,0.451
15.520,0.467
15.525,0.471
15.530,0.470
15.535,0.459
15.540,0.449
15.545,0.439
15.550,0.428
15.555,0.416
15.560,0.397
15.565,0.380
15.570,0.365
15.575,0.352
15.580,0.337
15.585,0.319
15.590,0.300
15.595,0.279
15.600,0.260
15.605,0.237
15.610,0.216
15.615,0.200
15.620,0.191
15.625,0.178
15.630,0.159
15.635,0.149
15.640,0.139
15.645,0.130
15.650,0.120
15.655,0.105
15.660,0.096
15.665,0.087
15.670,0.077
15.675,0.069
15.680,0.061
15.685,0.058
15.690,0.054
15.695,0.045
15.700,0.036
15.705,0.028
15.710,0.021
15.715,0.016
15.720,0.007
15.725,0.000
15.730,-0.002
15.735,-0.012
15.740,-0.018
15.745,-0.023
15.750,-0.025
15.755,-0.027
15.760,-0.033
15.765,-0.032
15.770,-0.032
15.775,-0.035
15.780,-0.042
15.785,-0.053
15.790,-0.061
15.795,-0.072
15.800,-0.090
15.805,-0.109
15.810,-0.121
15.815,-0.121
15.820,-0.114
15.825,-0.121
15.830,-0.142
15.835,-0.154
15.840,-0.158
15.845,-0.153
15.850,-0.142
15.855,-0.129
15.860,-0.108
15.865,-0.089
15.870,-0.073
15.875,-0.061
15.880,-0.053
15.885,-0.045
15.890,-0.041
15.895,-0.037
15.900,-0.037
15.905,-0.038
15.910,-0.036
15.915,-0.036
15.920,-0.038
15.925,-0.036
15.930,-0.033
15.935,-0.040
15.940,-0.043
15.945,-0.047
15.950,-0.049
15.955,-0.044
15.960,-0.021
15.965,0.037
15.970,0.074
15.975,0.004
15.980,-0.250
15.985,-0.697
15.990,-1.189
15.995,-1.539
16.000,-1.577
16.005,-1.115
16.010,-0.320
16.015,0.273
16.020,0.473
16.025,0.464
16.030,0.406
16.035,0.362
16.040,0.272
16.045,0.175
16.050,0.166
16.055,0.170
16.060,0.127
16.065,0.115
16.070,0.132
16.075,0.111
16.080,0.089
16.085,0.093
16.090,0.082
16.095,0.062
16.100,0.058
16.105,0.052
16.110,0.038
16.115,0.031
16.120,0.026
16.125,0.017
16.130,0.010
16.135,0.000
16.140,-0.011
16.145,-0.025
16.150,-0.035
16.155,-0.045
16.160,-0.060
16.165,-0.070
16.170,-0.083
16.175,-0.098
16.180,-0.113
16.185,-0.131
16.190,-0.151
16.195,-0.172
16.200,-0.194
16.205,-0.219
16.210,-0.243
16.215,-0.268
16.220,-0.288
16.225,-0.308
16.230,-0.326
16.235,-0.336
16.240,-0.347
16.245,-0.349
16.250,-0.348
16.255,-0.338
16.260,-0.314
16.265,-0.283
16.270,-0.235
16.275,-0.177
16.280,-0.112
16.285,-0.036
16.290,0.042
16.295,0.121
16.300,0.199
16.305,0.270
16.310,0.330
16.315,0.380
16.320,0.418
16.325,0.446
16.330,0.465
16.335,0.471
16.340,0.474
16.345,0.469
16.350,0.462
16.355,0.451
16.360,0.434
16.365,0.419
16.370,0.400
16.375,0.382
16.380,0.364
16.385,0.344
16.390,0.325
16.395,0.307
16.400,0.289
16.405,0.273
16.410,0.257
16.415,0.240
16.420,0.225
16.425,0.208
16.430,0.193
16.435,0.181
16.440,0.166
16.445,0.156
16.450,0.142
16.455,0.127
16.460,0.117
16.465,0.103
16.470,0.094
16.475,0.086
16.480,0.078
16.485,0.071
16.490,0.061
16.495,0.053
16.500,0.046
16.505,0.040
16.510,0.034
16.515,0.028
16.520,0.021
16.525,0.015
16.530,0.009
16.535,0.002
16.540,-0.003
16.545,-0.010
16.550,-0.013
16.555,-0.018
16.560,-0.025
16.565,-0.028
16.570,-0.034
16.575,-0.039
16.580,-0.042
16.585,-0.046
16.590,-0.048
16.595,-0.052
16.600,-0.058
16.605,-0.062
16.610,-0.068
16.615,-0.075
16.620,-0.084
16.625,-0.104
16.630,-0.121
16.635,-0.124
16.640,-0.122
16.645,-0.119
16.650,-0.134
16.655,-0.151
16.660,-0.156
16.665,-0.159
16.670,-0.152
16.675,-0.136
16.680,-0.114
16.685,-0.093
16.690,-0.078
16.695,-0.069
16.700,-0.061
16.705,-0.050
16.710,-0.042
16.715,-0.036
16.720,-0.034
16.725,-0.034
16.730,-0.035
16.735,-0.036
16.740,-0.036
16.745,-0.039
16.750,-0.037
16.755,-0.040
16.760,-0.045
16.765,-0.043
16.770,-0.045
16.775,-0.044
16.780,-0.024
16.785,0.029
16.790,0.071
16.795,0.018
16.800,-0.209
16.805,-0.631
16.810,-1.116
16.815,-1.471
16.820,-1.529
16.825,-1.133
16.830,-0.401
16.835,0.202
16.840,0.445
16.845,0.465
16.850,0.398
16.855,0.332
16.860,0.259
16.865,0.177
16.870,0.166
16.875,0.171
16.880,0.136
16.885,0.123
16.890,0.132
16.895,0.113
16.900,0.094
16.905,0.095
16.910,0.086
16.915,0.069
16.920,0.064
16.925,0.061
16.930,0.047
16.935,0.038
16.940,0.035
16.945,0.023
16.950,0.014
16.955,0.006
16.960,-0.004
16.965,-0.012
16.970,-0.023
16.975,-0.033
16.980,-0.046
16.985,-0.059
16.990,-0.070
16.995,-0.086
17.000,-0.102
17.005,-0.119
17.010,-0.138
17.015,-0.158
17.020,-0.178
17.025,-0.201
17.030,-0.224
17.035,-0.246
17.040,-0.269
17.045,-0.286
17.050,-0.304
17.055,-0.317
17.060,-0.325
17.065,-0.331
17.070,-0.327
17.075,-0.318
17.080,-0.300
17.085,-0.271
17.090,-0.233
17.095,-0.182
17.100,-0.120
17.105,-0.052
17.110,0.024
17.115,0.102
17.120,0.177
17.125,0.248
17.130,0.309
17.135,0.361
17.140,0.404
17.145,0.433
17.150,0.454
17.155,0.464
17.160,0.466
17.165,0.465
17.170,0.456
17.175,0.445
17.180,0.430
17.185,0.414
17.190,0.398
17.195,0.380
17.200,0.364
17.205,0.346
17.210,0.328
17.215,0.309
17.220,0.293
17.225,0.273
17.230,0.258
17.235,0.243
17.240,0.226
17.245,0.213
17.250,0.197
17.255,0.183
17.260,0.171
17.265,0.156
17.270,0.145
17.275,0.131
17.280,0.121
17.285,0.111
17.290,0.099
17.295,0.090
17.300,0.080
17.305,0.070
17.310,0.063
17.315,0.054
17.320,0.045
17.325,0.039
17.330,0.031
17.335,0.024
17.340,0.018
17.345,0.009
17.350,0.004
17.355,-0.003
17.360,-0.008
17.365,-0.012
17.370,-0.019
17.375,-0.023
17.380,-0.029
17.385,-0.034
17.390,-0.038
17.395,-0.043
17.400,-0.046
17.405,-0.051
17.410,-0.055
17.415,-0.058
17.420,-0.059
17.425,-0.064
17.430,-0.065
17.435,-0.068
17.440,-0.072
17.445,-0.071
17.450,-0.075
17.455,-0.077
17.460,-0.081
17.465,-0.089
17.470,-0.093
17.475,-0.100
17.480,-0.111
17.485,-0.125
17.490,-0.134
17.495,-0.128
17.500,-0.124
17.505,-0.137
17.510,-0.155
17.515,-0.163
17.520,-0.159
17.525,-0.149
17.530,-0.133
17.535,-0.107
17.540,-0.084
17.545,-0.074
17.550,-0.064
17.555,-0.060
17.560,-0.047
17.565,-0.034
17.570,-0.030
17.575,-0.024
17.580,-0.026
17.585,-0.028
17.590,-0.026
17.595,-0.028
17.600,-0.029
17.605,-0.028
17.610,-0.028
17.615,-0.028
17.620,-0.028
17.625,-0.030
17.630,-0.026
17.635,-0.001
17.640,0.054
17.645,0.083
17.650,-0.006
17.655,-0.275
17.660,-0.719
17.665,-1.176
17.670,-1.454
17.675,-1.399
17.680,-0.894
17.685,-0.177
17.690,0.315
17.695,0.483
17.700,0.466
17.705,0.380
17.710,0.310
17.715,0.234
17.720,0.173
17.725,0.178
17.730,0.171
17.735,0.137
17.740,0.135
17.745,0.135
17.750,0.113
17.755,0.100
17.760,0.102
17.765,0.090
17.770,0.074
17.775,0.072
17.780,0.063
17.785,0.051
17.790,0.045
17.795,0.039
17.800,0.028
17.805,0.019
17.810,0.012
17.815,0.002
17.820,-0.008
17.825,-0.018
17.830,-0.028
17.835,-0.042
17.840,-0.054
17.845,-0.065
17.850,-0.082
17.855,-0.098
17.860,-0.115
17.865,-0.134
17.870,-0.152
17.875,-0.174
17.880,-0.195
17.885,-0.218
17.890,-0.242
17.895,-0.263
17.900,-0.282
17.905,-0.298
17.910,-0.310
17.915,-0.318
17.920,-0.322
17.925,-0.319
17.930,-0.310
17.935,-0.290
17.940,-0.261
17.945,-0.223
17.950,-0.170
17.955,-0.112
17.960,-0.043
17.965,0.032
17.970,0.106
17.975,0.183
17.980,0.251
17.985,0.313
17.990,0.365
17.995,0.405
18.000,0.436
18.005,0.456
18.010,0.465
18.015,0.468
18.020,0.465
18.025,0.455
18.030,0.445
18.035,0.430
18.040,0.414
18.045,0.398
18.050,0.378
18.055,0.361
18.060,0.342
18.065,0.324
18.070,0.308
18.075,0.287
18.080,0.271
18.085,0.255
18.090,0.238
18.095,0.223
18.100,0.207
18.105,0.192
18.110,0.179
18.115,0.165
18.120,0.152
18.125,0.141
18.130,0.129
18.135,0.120
18.140,0.109
18.145,0.098
18.150,0.091
18.155,0.078
18.160,0.071
18.165,0.063
18.170,0.053
18.175,0.047
18.180,0.038
18.185,0.032
18.190,0.026
18.195,0.018
18.200,0.012
18.205,0.006
18.210,-0.001
18.215,-0.005
18.220,-0.011
18.225,-0.018
18.230,-0.021
18.235,-0.026
18.240,-0.031
18.245,-0.035
18.250,-0.040
18.255,-0.041
18.260,-0.046
18.265,-0.051
18.270,-0.055
18.275,-0.060
18.280,-0.061
18.285,-0.065
18.290,-0.068
18.295,-0.070
18.300,-0.072
18.305,-0.074
18.310,-0.076
18.315,-0.079
18.320,-0.080
18.325,-0.082
18.330,-0.084
18.335,-0.085
18.340,-0.089
18.345,-0.095
18.350,-0.098
18.355,-0.103
18.360,-0.103
18.365,-0.113
18.370,-0.128
18.375,-0.132
18.380,-0.131
18.385,-0.132
18.390,-0.145
18.395,-0.163
18.400,-0.163
18.405,-0.150
18.410,-0.136
18.415,-0.112
18.420,-0.088
18.425,-0.076
18.430,-0.068
18.435,-0.065
18.440,-0.055
18.445,-0.042
18.450,-0.038
18.455,-0.032
18.460,-0.032
18.465,-0.033
18.470,-0.033
18.475,-0.034
18.480,-0.031
18.485,-0.032
18.490,-0.035
18.495,-0.034
18.500,-0.034
18.505,-0.035
18.510,-0.029
18.515,0.009
18.520,0.068
18.525,0.071
18.530,-0.071
18.535,-0.408
18.540,-0.881
18.545,-1.298
18.550,-1.488
18.555,-1.292
18.560,-0.663
18.565,0.021
18.570,0.391
18.575,0.485
18.580,0.443
18.585,0.366
18.590,0.294
18.595,0.206
18.600,0.167
18.605,0.181
18.610,0.157
18.615,0.127
18.620,0.136
18.625,0.130
18.630,0.106
18.635,0.103
18.640,0.103
18.645,0.087
18.650,0.076
18.655,0.075
18.660,0.060
18.665,0.049
18.670,0.045
18.675,0.036
18.680,0.027
18.685,0.020
18.690,0.015
18.695,0.006
18.700,-0.006
18.705,-0.017
18.710,-0.030
18.715,-0.041
18.720,-0.053
18.725,-0.067
18.730,-0.084
18.735,-0.099
18.740,-0.116
18.745,-0.136
18.750,-0.154
18.755,-0.176
18.760,-0.195
18.765,-0.216
18.770,-0.237
18.775,-0.257
18.780,-0.278
18.785,-0.295
18.790,-0.308
18.795,-0.314
18.800,-0.314
18.805,-0.310
18.810,-0.297
18.815,-0.278
18.820,-0.250
18.825,-0.212
18.830,-0.161
18.835,-0.101
18.840,-0.033
18.845,0.041
18.850,0.116
18.855,0.192
18.860,0.258
18.865,0.320
18.870,0.371
18.875,0.409
18.880,0.441
18.885,0.459
18.890,0.468
18.895,0.472
18.900,0.466
18.905,0.458
18.910,0.446
18.915,0.430
18.920,0.415
18.925,0.399
18.930,0.380
18.935,0.362
18.940,0.340
18.945,0.320
18.950,0.304
18.955,0.285
18.960,0.270
18.965,0.251
18.970,0.233
18.975,0.217
18.980,0.201
18.985,0.191
18.990,0.176
18.995,0.161
19.000,0.148
19.005,0.133
19.010,0.122
19.015,0.114
19.020,0.101
19.025,0.090
19.030,0.080
19.035,0.070
19.040,0.063
19.045,0.056
19.050,0.048
19.055,0.042
19.060,0.034
19.065,0.030
19.070,0.023
19.075,0.011
19.080,0.003
19.085,-0.002
19.090,-0.002
19.095,-0.004
19.100,-0.010
19.105,-0.014
19.110,-0.017
19.115,-0.024
19.120,-0.030
19.125,-0.034
19.130,-0.037
19.135,-0.039
19.140,-0.047
19.145,-0.051
19.150,-0.052
19.155,-0.056
19.160,-0.058
19.165,-0.066
19.170,-0.074
19.175,-0.079
19.180,-0.082
19.185,-0.087
19.190,-0.101
19.195,-0.110
19.200,-0.109
19.205,-0.115
19.210,-0.128
19.215,-0.146
19.220,-0.160
19.225,-0.155
19.230,-0.141
19.235,-0.125
19.240,-0.102
19.245,-0.085
19.250,-0.078
19.255,-0.072
19.260,-0.069
19.265,-0.055
19.270,-0.044
19.275,-0.042
19.280,-0.042
19.285,-0.046
19.290,-0.044
19.295,-0.043
19.300,-0.044
19.305,-0.045
19.310,-0.048
19.315,-0.051
19.320,-0.050
19.325,-0.048
19.330,-0.048
19.335,-0.033
19.340,0.016
19.345,0.070
19.350,0.045
19.355,-0.150
19.360,-0.546
19.365,-1.036
19.370,-1.418
19.375,-1.541
19.380,-1.206
19.385,-0.463
19.390,0.173
19.395,0.428
19.400,0.453
19.405,0.413
19.410,0.377
19.415,0.294
19.420,0.180
19.425,0.152
19.430,0.164
19.435,0.128
19.440,0.106
19.445,0.118
19.450,0.107
19.455,0.082
19.460,0.082
19.465,0.081
19.470,0.058
19.475,0.053
19.480,0.054
19.485,0.036
19.490,0.028
19.495,0.028
19.500,0.022
19.505,0.009
19.510,-0.002
19.515,-0.008
19.520,-0.015
19.525,-0.024
19.530,-0.033
19.535,-0.042
19.540,-0.052
19.545,-0.067
19.550,-0.087
19.555,-0.104
19.560,-0.114
19.565,-0.130
19.570,-0.149
19.575,-0.173
19.580,-0.200
19.585,-0.223
19.590,-0.244
19.595,-0.263
19.600,-0.281
19.605,-0.300
19.610,-0.312
19.615,-0.321
19.620,-0.328
19.625,-0.324
19.630,-0.312
19.635,-0.298
19.640,-0.270
19.645,-0.235
19.650,-0.189
19.655,-0.130
19.660,-0.066
19.665,0.009
19.670,0.082
19.675,0.154
19.680,0.230
19.685,0.299
19.690,0.358
19.695,0.401
19.700,0.431
19.705,0.452
19.710,0.464
19.715,0.470
19.720,0.468
19.725,0.462
19.730,0.458
19.735,0.450
19.740,0.433
19.745,0.415
19.750,0.397
19.755,0.377
19.760,0.359
19.765,0.336
19.770,0.315
19.775,0.296
19.780,0.277
19.785,0.262
19.790,0.245
19.795,0.229
19.800,0.212
19.805,0.195
19.810,0.181
19.815,0.167
19.820,0.154
19.825,0.142
19.830,0.129
19.835,0.115
19.840,0.106
19.845,0.097
19.850,0.087
19.855,0.079
19.860,0.070
19.865,0.067
19.870,0.057
19.875,0.048
19.880,0.043
19.885,0.036
19.890,0.031
19.895,0.024
19.900,0.018
19.905,0.013
19.910,0.004
19.915,-0.003
19.920,-0.008
19.925,-0.013
19.930,-0.016
19.935,-0.020
19.940,-0.027
19.945,-0.030
19.950,-0.034
19.955,-0.040
19.960,-0.044
19.965,-0.053
19.970,-0.059
19.975,-0.066
19.980,-0.071
19.985,-0.080
19.990,-0.098
19.995,-0.106
20.000,-0.105
20.005,-0.105
20.010,-0.116
20.015,-0.135
20.020,-0.147
20.025,-0.143
20.030,-0.134
20.035,-0.121
20.040,-0.099
20.045,-0.085
20.050,-0.076
20.055,-0.071
20.060,-0.070
20.065,-0.056
20.070,-0.048
20.075,-0.044
20.080,-0.040
20.085,-0.043
20.090,-0.043
20.095,-0.046
20.100,-0.049
20.105,-0.048
20.110,-0.048
20.115,-0.047
20.120,-0.048
20.125,-0.050
20.130,-0.050
20.135,-0.037
20.140,0.008
20.145,0.066
20.150,0.055
20.155,-0.106
20.160,-0.466
20.165,-0.952
20.170,-1.376
20.175,-1.577
20.180,-1.353
20.185,-0.666
20.190,0.045
20.195,0.393
20.200,0.452
20.205,0.419
20.210,0.380
20.215,0.317
20.220,0.210
20.225,0.160
20.230,0.174
20.235,0.149
20.240,0.117
20.245,0.127
20.250,0.123
20.255,0.094
20.260,0.090
20.265,0.093
20.270,0.071
20.275,0.064
20.280,0.065
20.285,0.051
20.290,0.042
20.295,0.038
20.300,0.031
20.305,0.019
20.310,0.010
20.315,0.004
20.320,-0.009
20.325,-0.020
20.330,-0.028
20.335,-0.041
20.340,-0.057
20.345,-0.068
20.350,-0.084
20.355,-0.100
20.360,-0.116
20.365,-0.138
20.370,-0.156
20.375,-0.177
20.380,-0.198
20.385,-0.218
20.390,-0.244
20.395,-0.264
20.400,-0.285
20.405,-0.306
20.410,-0.320
20.415,-0.332
20.420,-0.338
20.425,-0.337
20.430,-0.330
20.435,-0.315
20.440,-0.291
20.445,-0.257
20.450,-0.209
20.455,-0.153
20.460,-0.088
20.465,-0.013
20.470,0.061
20.475,0.141
20.480,0.215
20.485,0.278
20.490,0.336
20.495,0.381
20.500,0.416
20.505,0.441
20.510,0.455
20.515,0.463
20.520,0.463
20.525,0.456
20.530,0.447
20.535,0.434
20.540,0.418
20.545,0.403
20.550,0.386
20.555,0.368
20.560,0.349
20.565,0.329
20.570,0.312
20.575,0.292
20.580,0.275
20.585,0.258
20.590,0.240
20.595,0.226
20.600,0.208
20.605,0.191
20.610,0.177
20.615,0.164
20.620,0.152
20.625,0.140
20.630,0.126
20.635,0.116
20.640,0.106
20.645,0.095
20.650,0.087
20.655,0.077
20.660,0.068
20.665,0.063
20.670,0.053
20.675,0.047
20.680,0.040
20.685,0.032
20.690,0.026
20.695,0.018
20.700,0.013
20.705,0.007
20.710,0.001
20.715,-0.003
20.720,-0.009
20.725,-0.014
20.730,-0.017
20.735,-0.022
20.740,-0.027
20.745,-0.030
20.750,-0.035
20.755,-0.037
20.760,-0.039
20.765,-0.045
20.770,-0.049
20.775,-0.056
20.780,-0.061
20.785,-0.066
20.790,-0.075
20.795,-0.088
20.800,-0.104
20.805,-0.110
20.810,-0.106
20.815,-0.111
20.820,-0.125
20.825,-0.142
20.830,-0.147
20.835,-0.140
20.840,-0.131
20.845,-0.111
20.850,-0.084
20.855,-0.072
20.860,-0.065
20.865,-0.058
20.870,-0.055
20.875,-0.043
20.880,-0.035
20.885,-0.031
20.890,-0.027
20.895,-0.031
20.900,-0.032
20.905,-0.032
20.910,-0.035
20.915,-0.036
20.920,-0.037
20.925,-0.039
20.930,-0.039
20.935,-0.041
20.940,-0.042
20.945,-0.023
20.950,0.029
20.955,0.069
20.960,0.012
20.965,-0.220
20.970,-0.636
20.975,-1.112
20.980,-1.452
20.985,-1.491
20.990,-1.085
20.995,-0.363
21.000,0.211
21.005,0.441
21.010,0.458
21.015,0.387
21.020,0.317
21.025,0.241
21.030,0.165
21.035,0.158
21.040,0.163
21.045,0.126
21.050,0.115
21.055,0.122
21.060,0.102
21.065,0.086
21.070,0.085
21.075,0.077
21.080,0.059
21.085,0.055
21.090,0.052
21.095,0.037
21.100,0.030
21.105,0.024
21.110,0.014
21.115,0.006
21.120,-0.001
21.125,-0.011
21.130,-0.022
21.135,-0.032
21.140,-0.042
21.145,-0.053
21.150,-0.066
21.155,-0.078
21.160,-0.093
21.165,-0.110
21.170,-0.123
21.175,-0.143
21.180,-0.161
21.185,-0.182
21.190,-0.205
21.195,-0.225
21.200,-0.249
21.205,-0.271
21.210,-0.290
21.215,-0.307
21.220,-0.318
21.225,-0.327
21.230,-0.331
21.235,-0.327
21.240,-0.317
21.245,-0.299
21.250,-0.271
21.255,-0.233
21.260,-0.183
21.265,-0.120
21.270,-0.055
21.275,0.021
21.280,0.096
21.285,0.171
21.290,0.244
21.295,0.306
21.300,0.360
21.305,0.401
21.310,0.432
21.315,0.455
21.320,0.466
21.325,0.469
21.330,0.466
21.335,0.458
21.340,0.447
21.345,0.434
21.350,0.418
21.355,0.402
21.360,0.383
21.365,0.364
21.370,0.349
21.375,0.329
21.380,0.313
21.385,0.294
21.390,0.275
21.395,0.260
21.400,0.243
21.405,0.227
21.410,0.212
21.415,0.197
21.420,0.184
21.425,0.170
21.430,0.157
21.435,0.144
21.440,0.132
21.445,0.120
21.450,0.110
21.455,0.098
21.460,0.089
21.465,0.081
21.470,0.070
21.475,0.063
21.480,0.054
21.485,0.047
21.490,0.040
21.495,0.031
21.500,0.026
21.505,0.017
21.510,0.011
21.515,0.007
21.520,-0.001
21.525,-0.006
21.530,-0.011
21.535,-0.016
21.540,-0.022
21.545,-0.026
21.550,-0.032
21.555,-0.035
21.560,-0.039
21.565,-0.043
21.570,-0.045
21.575,-0.052
21.580,-0.054
21.585,-0.058
21.590,-0.064
21.595,-0.069
21.600,-0.078
21.605,-0.085
21.610,-0.095
21.615,-0.112
21.620,-0.123
21.625,-0.123
21.630,-0.119
21.635,-0.129
21.640,-0.149
21.645,-0.161
21.650,-0.155
21.655,-0.145
21.660,-0.130
21.665,-0.107
21.670,-0.089
21.675,-0.075
21.680,-0.069
21.685,-0.063
21.690,-0.054
21.695,-0.045
21.700,-0.038
21.705,-0.035
21.710,-0.034
21.715,-0.036
21.720,-0.038
21.725,-0.038
21.730,-0.041
21.735,-0.041
21.740,-0.042
21.745,-0.043
21.750,-0.044
21.755,-0.044
21.760,-0.042
21.765,-0.014
21.770,0.042
21.775,0.060
21.780,-0.037
21.785,-0.321
21.790,-0.770
21.795,-1.214
21.800,-1.474
21.805,-1.384
21.810,-0.850
21.815,-0.138
21.820,0.323
21.825,0.466
21.830,0.442
21.835,0.358
21.840,0.287
21.845,0.207
21.850,0.150
21.855,0.157
21.860,0.148
21.865,0.113
21.870,0.112
21.875,0.116
21.880,0.091
21.885,0.082
21.890,0.083
21.895,0.066
21.900,0.055
21.905,0.052
21.910,0.045
21.915,0.032
21.920,0.025
21.925,0.020
21.930,0.009
21.935,0.001
21.940,-0.005
21.945,-0.016
21.950,-0.027
21.955,-0.035
21.960,-0.046
21.965,-0.057
21.970,-0.067
21.975,-0.082
21.980,-0.094
21.985,-0.111
21.990,-0.128
21.995,-0.145
22.000,-0.165
22.005,-0.185
22.010,-0.207
22.015,-0.229
22.020,-0.251
22.025,-0.272
22.030,-0.291
22.035,-0.307
22.040,-0.318
22.045,-0.325
22.050,-0.328
22.055,-0.325
22.060,-0.312
22.065,-0.292
22.070,-0.264
22.075,-0.220
22.080,-0.169
22.085,-0.105
22.090,-0.036
22.095,0.037
22.100,0.116
22.105,0.189
22.110,0.259
22.115,0.320
22.120,0.370
22.125,0.410
22.130,0.438
22.135,0.456
22.140,0.465
22.145,0.466
22.150,0.461
22.155,0.454
22.160,0.441
22.165,0.428
22.170,0.412
22.175,0.392
22.180,0.377
22.185,0.356
22.190,0.338
22.195,0.322
22.200,0.302
22.205,0.285
22.210,0.268
22.215,0.252
22.220,0.237
22.225,0.221
22.230,0.206
22.235,0.191
22.240,0.176
22.245,0.164
22.250,0.152
22.255,0.138
22.260,0.127
22.265,0.115
22.270,0.104
22.275,0.096
22.280,0.086
22.285,0.079
22.290,0.070
22.295,0.062
22.300,0.057
22.305,0.047
22.310,0.041
22.315,0.033
22.320,0.025
22.325,0.019
22.330,0.013
22.335,0.006
22.340,0.000
22.345,-0.006
22.350,-0.012
22.355,-0.016
22.360,-0.022
22.365,-0.024
22.370,-0.028
22.375,-0.035
22.380,-0.038
22.385,-0.043
22.390,-0.046
22.395,-0.048
22.400,-0.053
22.405,-0.054
22.410,-0.058
22.415,-0.063
22.420,-0.069
22.425,-0.078
22.430,-0.083
22.435,-0.091
22.440,-0.106
22.445,-0.120
22.450,-0.122
22.455,-0.119
22.460,-0.125
22.465,-0.145
22.470,-0.163
22.475,-0.160
22.480,-0.150
22.485,-0.135
22.490,-0.113
22.495,-0.090
22.500,-0.076
22.505,-0.072
22.510,-0.067
22.515,-0.059
22.520,-0.049
22.525,-0.040
22.530,-0.036
22.535,-0.035
22.540,-0.037
22.545,-0.039
22.550,-0.039
22.555,-0.040
22.560,-0.043
22.565,-0.042
22.570,-0.043
22.575,-0.046
22.580,-0.044
22.585,-0.043
22.590,-0.015
22.595,0.042
22.600,0.063
22.605,-0.032
22.610,-0.313
22.615,-0.763
22.620,-1.211
22.625,-1.472
22.630,-1.386
22.635,-0.852
22.640,-0.140
22.645,0.316
22.650,0.462
22.655,0.443
22.660,0.367
22.665,0.295
22.670,0.208
22.675,0.150
22.680,0.157
22.685,0.146
22.690,0.107
22.695,0.108
22.700,0.114
22.705,0.087
22.710,0.078
22.715,0.080
22.720,0.066
22.725,0.054
22.730,0.053
22.735,0.045
22.740,0.033
22.745,0.028
22.750,0.022
22.755,0.014
22.760,0.006
22.765,0.000
22.770,-0.011
22.775,-0.022
22.780,-0.028
22.785,-0.042
22.790,-0.056
22.795,-0.069
22.800,-0.082
22.805,-0.093
22.810,-0.109
22.815,-0.126
22.820,-0.145
22.825,-0.164
22.830,-0.184
22.835,-0.206
22.840,-0.226
22.845,-0.244
22.850,-0.267
22.855,-0.290
22.860,-0.304
22.865,-0.314
22.870,-0.319
22.875,-0.320
22.880,-0.319
22.885,-0.305
22.890,-0.287
22.895,-0.257
22.900,-0.218
22.905,-0.173
22.910,-0.112
22.915,-0.042
22.920,0.035
22.925,0.110
22.930,0.181
22.935,0.250
22.940,0.314
22.945,0.367
22.950,0.406
22.955,0.434
22.960,0.450
22.965,0.462
22.970,0.464
22.975,0.460
22.980,0.458
22.985,0.445
22.990,0.435
22.995,0.419
23.000,0.399
23.005,0.380
23.010,0.358
23.015,0.340
23.020,0.322
23.025,0.304
23.030,0.290
23.035,0.275
23.040,0.258
23.045,0.241
23.050,0.224
23.055,0.207
23.060,0.193
23.065,0.179
23.070,0.166
23.075,0.152
23.080,0.137
23.085,0.129
23.090,0.119
23.095,0.111
23.100,0.101
23.105,0.089
23.110,0.083
23.115,0.072
23.120,0.063
23.125,0.060
23.130,0.055
23.135,0.048
23.140,0.039
23.145,0.030
23.150,0.025
23.155,0.019
23.160,0.013
23.165,0.010
23.170,0.003
23.175,-0.002
23.180,-0.007
23.185,-0.018
23.190,-0.021
23.195,-0.025
23.200,-0.030
23.205,-0.034
23.210,-0.043
23.215,-0.047
23.220,-0.053
23.225,-0.064
23.230,-0.078
23.235,-0.096
23.240,-0.100
23.245,-0.095
23.250,-0.098
23.255,-0.115
23.260,-0.134
23.265,-0.142
23.270,-0.134
23.275,-0.125
23.280,-0.112
23.285,-0.089
23.290,-0.077
23.295,-0.068
23.300,-0.066
23.305,-0.063
23.310,-0.045
23.315,-0.034
23.320,-0.028
23.325,-0.024
23.330,-0.027
23.335,-0.029
23.340,-0.032
23.345,-0.036
23.350,-0.039
23.355,-0.041
23.360,-0.043
23.365,-0.040
23.370,-0.037
23.375,-0.039
23.380,-0.033
23.385,0.007
23.390,0.065
23.395,0.056
23.400,-0.109
23.405,-0.483
23.410,-0.976
23.415,-1.389
23.420,-1.567
23.425,-1.307
23.430,-0.594
23.435,0.103
23.440,0.420
23.445,0.463
23.450,0.421
23.455,0.379
23.460,0.307
23.465,0.193
23.470,0.146
23.475,0.159
23.480,0.130
23.485,0.100
23.490,0.111
23.495,0.105
23.500,0.077
23.505,0.078
23.510,0.082
23.515,0.059
23.520,0.048
23.525,0.044
23.530,0.033
23.535,0.023
23.540,0.019
23.545,0.011
23.550,0.002
23.555,0.000
23.560,-0.005
23.565,-0.018
23.570,-0.033
23.575,-0.047
23.580,-0.058
23.585,-0.072
23.590,-0.082
23.595,-0.096
23.600,-0.111
23.605,-0.128
23.610,-0.150
23.615,-0.168
23.620,-0.189
23.625,-0.208
23.630,-0.229
23.635,-0.256
23.640,-0.274
23.645,-0.291
23.650,-0.309
23.655,-0.323
23.660,-0.336
23.665,-0.345
23.670,-0.342
23.675,-0.333
23.680,-0.316
23.685,-0.290
23.690,-0.259
23.695,-0.208
23.700,-0.149
23.705,-0.086
23.710,-0.007
23.715,0.077
23.720,0.159
23.725,0.233
23.730,0.298
23.735,0.358
23.740,0.404
23.745,0.438
23.750,0.459
23.755,0.468
23.760,0.466
23.765,0.460
23.770,0.456
23.775,0.453
23.780,0.442
23.785,0.421
23.790,0.404
23.795,0.385
23.800,0.370
23.805,0.353
23.810,0.333
23.815,0.316
23.820,0.295
23.825,0.278
23.830,0.264
23.835,0.244
23.840,0.225
23.845,0.209
23.850,0.194
23.855,0.179
23.860,0.164
23.865,0.150
23.870,0.139
23.875,0.128
23.880,0.115
23.885,0.106
23.890,0.094
23.895,0.087
23.900,0.080
23.905,0.071
23.910,0.064
23.915,0.055
23.920,0.049
23.925,0.040
23.930,0.030
23.935,0.024
23.940,0.019
23.945,0.015
23.950,0.010
23.955,0.003
23.960,-0.002
23.965,-0.006
23.970,-0.015
23.975,-0.020
23.980,-0.024
23.985,-0.032
23.990,-0.037
23.995,-0.044
24.000,-0.046
24.005,-0.052
24.010,-0.065
24.015,-0.081
24.020,-0.098
24.025,-0.101
24.030,-0.097
24.035,-0.105
24.040,-0.124
24.045,-0.140
24.050,-0.147
24.055,-0.144
24.060,-0.134
24.065,-0.115
24.070,-0.091
24.075,-0.077
24.080,-0.069
24.085,-0.063
24.090,-0.058
24.095,-0.045
24.100,-0.041
24.105,-0.038
24.110,-0.034
24.115,-0.038
24.120,-0.037
24.125,-0.040
24.130,-0.043
24.135,-0.041
24.140,-0.041
24.145,-0.043
24.150,-0.046
24.155,-0.049
24.160,-0.049
24.165,-0.044
24.170,-0.009
24.175,0.052
24.180,0.060
24.185,-0.076
24.190,-0.410
24.195,-0.897
24.200,-1.348
24.205,-1.593
24.210,-1.442
24.215,-0.803
24.220,-0.052
24.225,0.365
24.230,0.460
24.235,0.429
24.240,0.380
24.245,0.319
24.250,0.215
24.255,0.152
24.260,0.165
24.265,0.149
24.270,0.112
24.275,0.116
24.280,0.117
24.285,0.091
24.290,0.082
24.295,0.087
24.300,0.069
24.305,0.056
24.310,0.056
24.315,0.045
24.320,0.033
24.325,0.028
24.330,0.022
24.335,0.010
24.340,0.000
24.345,-0.007
24.350,-0.018
24.355,-0.028
24.360,-0.036
24.365,-0.048
24.370,-0.063
24.375,-0.074
24.380,-0.087
24.385,-0.105
24.390,-0.118
24.395,-0.136
24.400,-0.155
24.405,-0.178
24.410,-0.200
24.415,-0.220
24.420,-0.244
24.425,-0.264
24.430,-0.285
24.435,-0.305
24.440,-0.319
24.445,-0.329
24.450,-0.335
24.455,-0.334
24.460,-0.327
24.465,-0.315
24.470,-0.292
24.475,-0.259
24.480,-0.213
24.485,-0.155
24.490,-0.091
24.495,-0.015
24.500,0.060
24.505,0.139
24.510,0.214
24.515,0.278
24.520,0.336
24.525,0.381
24.530,0.417
24.535,0.443
24.540,0.457
24.545,0.464
24.550,0.465
24.555,0.458
24.560,0.448
24.565,0.435
24.570,0.419
24.575,0.403
24.580,0.385
24.585,0.367
24.590,0.351
24.595,0.332
24.600,0.316
24.605,0.297
24.610,0.278
24.615,0.263
24.620,0.245
24.625,0.229
24.630,0.212
24.635,0.197
24.640,0.184
24.645,0.170
24.650,0.156
24.655,0.143
24.660,0.131
24.665,0.119
24.670,0.109
24.675,0.098
24.680,0.089
24.685,0.080
24.690,0.070
24.695,0.064
24.700,0.054
24.705,0.048
24.710,0.042
24.715,0.033
24.720,0.027
24.725,0.019
24.730,0.014
24.735,0.009
24.740,0.002
24.745,-0.003
24.750,-0.009
24.755,-0.015
24.760,-0.019
24.765,-0.024
24.770,-0.031
24.775,-0.034
24.780,-0.039
24.785,-0.043
24.790,-0.045
24.795,-0.051
24.800,-0.055
24.805,-0.063
24.810,-0.070
24.815,-0.076
24.820,-0.093
24.825,-0.109
24.830,-0.118
24.835,-0.116
24.840,-0.113
24.845,-0.126
24.850,-0.144
24.855,-0.152
24.860,-0.150
24.865,-0.144
24.870,-0.128
24.875,-0.105
24.880,-0.084
24.885,-0.073
24.890,-0.068
24.895,-0.061
24.900,-0.052
24.905,-0.040
24.910,-0.034
24.915,-0.031
24.920,-0.029
24.925,-0.033
24.930,-0.032
24.935,-0.033
24.940,-0.036
24.945,-0.035
24.950,-0.036
24.955,-0.039
24.960,-0.039
24.965,-0.039
24.970,-0.039
24.975,-0.010
24.980,0.046
24.985,0.070
24.990,-0.023
24.995,-0.303
25.000,-0.749
25.005,-1.207
25.010,-1.485
25.015,-1.421
25.020,-0.907
25.025,-0.180
25.030,0.308
25.035,0.468
25.040,0.453
25.045,0.375
25.050,0.307
25.055,0.227
25.060,0.163
25.065,0.169
25.070,0.162
25.075,0.125
25.080,0.124
25.085,0.125
25.090,0.101
25.095,0.092
25.100,0.092
25.105,0.080
25.110,0.065
25.115,0.061
25.120,0.055
25.125,0.041
25.130,0.036
25.135,0.030
25.140,0.018
25.145,0.010
25.150,0.002
25.155,-0.008
25.160,-0.017
25.165,-0.027
25.170,-0.040
25.175,-0.052
25.180,-0.065
25.185,-0.077
25.190,-0.092
25.195,-0.108
25.200,-0.122
25.205,-0.144
25.210,-0.163
25.215,-0.182
25.220,-0.207
25.225,-0.228
25.230,-0.252
25.235,-0.272
25.240,-0.290
25.245,-0.307
25.250,-0.318
25.255,-0.325
25.260,-0.328
25.265,-0.323
25.270,-0.312
25.275,-0.293
25.280,-0.260
25.285,-0.220
25.290,-0.169
25.295,-0.104
25.300,-0.037
25.305,0.039
25.310,0.114
25.315,0.187
25.320,0.257
25.325,0.316
25.330,0.367
25.335,0.406
25.340,0.433
25.345,0.452
25.350,0.461
25.355,0.463
25.360,0.460
25.365,0.450
25.370,0.438
25.375,0.424
25.380,0.408
25.385,0.391
25.390,0.374
25.395,0.354
25.400,0.338
25.405,0.318
25.410,0.301
25.415,0.285
25.420,0.266
25.425,0.252
25.430,0.235
25.435,0.220
25.440,0.205
25.445,0.190
25.450,0.178
25.455,0.165
25.460,0.152
25.465,0.140
25.470,0.128
25.475,0.116
25.480,0.107
25.485,0.096
25.490,0.087
25.495,0.080
25.500,0.069
25.505,0.062
25.510,0.053
25.515,0.045
25.520,0.039
25.525,0.029
25.530,0.024
25.535,0.018
25.540,0.011
25.545,0.005
25.550,-0.002
25.555,-0.007
25.560,-0.012
25.565,-0.018
25.570,-0.023
25.575,-0.027
25.580,-0.032
25.585,-0.036
25.590,-0.040
25.595,-0.046
25.600,-0.047
25.605,-0.053
25.610,-0.056
25.615,-0.064
25.620,-0.074
25.625,-0.079
25.630,-0.092
25.635,-0.111
25.640,-0.122
25.645,-0.121
25.650,-0.116
25.655,-0.126
25.660,-0.148
25.665,-0.158
25.670,-0.156
25.675,-0.152
25.680,-0.138
25.685,-0.117
25.690,-0.093
25.695,-0.074
25.700,-0.067
25.705,-0.060
25.710,-0.051
25.715,-0.041
25.720,-0.033
25.725,-0.030
25.730,-0.028
25.735,-0.032
25.740,-0.032
25.745,-0.031
25.750,-0.035
25.755,-0.035
25.760,-0.035
25.765,-0.038
25.770,-0.040
25.775,-0.040
25.780,-0.042
25.785,-0.033
25.790,0.006
25.795,0.058
25.800,0.052
25.805,-0.105
25.810,-0.453
25.815,-0.926
25.820,-1.332
25.825,-1.491
25.830,-1.253
25.835,-0.608
25.840,0.057
25.845,0.397
25.850,0.470
25.855,0.415
25.860,0.333
25.865,0.262
25.870,0.180
25.875,0.145
25.880,0.158
25.885,0.132
25.890,0.106
25.895,0.114
25.900,0.102
25.905,0.080
25.910,0.077
25.915,0.075
25.920,0.059
25.925,0.050
25.930,0.050
25.935,0.037
25.940,0.026
25.945,0.023
25.950,0.014
25.955,0.003
25.960,-0.004
25.965,-0.011
25.970,-0.023
25.975,-0.031
25.980,-0.041
25.985,-0.051
25.990,-0.063
25.995,-0.075
26.000,-0.086
26.005,-0.103
26.010,-0.117
26.015,-0.135
26.020,-0.154
26.025,-0.171
26.030,-0.193
26.035,-0.214
26.040,-0.235
26.045,-0.258
26.050,-0.278
26.055,-0.296
26.060,-0.309
26.065,-0.319
26.070,-0.325
26.075,-0.325
26.080,-0.318
26.085,-0.305
26.090,-0.281
26.095,-0.247
26.100,-0.204
26.105,-0.148
26.110,-0.085
26.115,-0.012
26.120,0.064
26.125,0.137
26.130,0.212
26.135,0.277
26.140,0.335
26.145,0.383
26.150,0.417
26.155,0.442
26.160,0.457
26.165,0.464
26.170,0.464
26.175,0.458
26.180,0.446
26.185,0.434
26.190,0.419
26.195,0.402
26.200,0.386
26.205,0.365
26.210,0.349
26.215,0.330
26.220,0.311
26.225,0.296
26.230,0.277
26.235,0.261
26.240,0.243
26.245,0.227
26.250,0.214
26.255,0.198
26.260,0.184
26.265,0.171
26.270,0.157
26.275,0.145
26.280,0.133
26.285,0.120
26.290,0.111
26.295,0.102
26.300,0.091
26.305,0.084
26.310,0.074
26.315,0.066
26.320,0.057
26.325,0.049
26.330,0.043
26.335,0.034
26.340,0.027
26.345,0.021
26.350,0.014
26.355,0.009
26.360,0.004
26.365,-0.001
26.370,-0.006
26.375,-0.012
26.380,-0.018
26.385,-0.022
26.390,-0.027
26.395,-0.031
26.400,-0.034
26.405,-0.040
26.410,-0.041
26.415,-0.046
26.420,-0.052
26.425,-0.055
26.430,-0.063
26.435,-0.070
26.440,-0.078
26.445,-0.086
26.450,-0.101
26.455,-0.119
26.460,-0.124
26.465,-0.119
26.470,-0.119
26.475,-0.135
26.480,-0.156
26.485,-0.165
26.490,-0.160
26.495,-0.151
26.500,-0.134
26.505,-0.108
26.510,-0.088
26.515,-0.072
26.520,-0.065
26.525,-0.058
26.530,-0.044
26.535,-0.038
26.540,-0.031
26.545,-0.028
26.550,-0.030
26.555,-0.030
26.560,-0.031
26.565,-0.033
26.570,-0.034
26.575,-0.035
26.580,-0.037
26.585,-0.039
26.590,-0.041
26.595,-0.041
26.600,-0.038
26.605,-0.022
26.610,0.031
26.615,0.066
26.620,0.007
26.625,-0.221
26.630,-0.643
26.635,-1.113
26.640,-1.438
26.645,-1.458
26.650,-1.026
26.655,-0.306
26.660,0.239
26.665,0.449
26.670,0.460
26.675,0.390
26.680,0.320
26.685,0.234
26.690,0.155
26.695,0.149
26.700,0.150
26.705,0.116
26.710,0.106
26.715,0.117
26.720,0.094
26.725,0.076
26.730,0.081
26.735,0.070
26.740,0.056
26.745,0.054
26.750,0.049
26.755,0.036
26.760,0.026
26.765,0.021
26.770,0.013
26.775,0.004
26.780,-0.002
26.785,-0.010
26.790,-0.021
26.795,-0.028
26.800,-0.038
26.805,-0.053
26.810,-0.063
26.815,-0.076
26.820,-0.088
26.825,-0.102
26.830,-0.122
26.835,-0.138
26.840,-0.154
26.845,-0.171
26.850,-0.193
26.855,-0.217
26.860,-0.238
26.865,-0.258
26.870,-0.277
26.875,-0.293
26.880,-0.309
26.885,-0.323
26.890,-0.325
26.895,-0.320
26.900,-0.311
26.905,-0.292
26.910,-0.268
26.915,-0.228
26.920,-0.180
26.925,-0.121
26.930,-0.052
26.935,0.018
26.940,0.092
26.945,0.165
26.950,0.237
26.955,0.303
26.960,0.356
26.965,0.397
26.970,0.428
26.975,0.450
26.980,0.462
26.985,0.467
26.990,0.463
26.995,0.459
27.000,0.450
27.005,0.433
27.010,0.418
27.015,0.398
27.020,0.380
27.025,0.362
27.030,0.342
27.035,0.325
27.040,0.307
27.045,0.293
27.050,0.275
27.055,0.255
27.060,0.237
27.065,0.218
27.070,0.203
27.075,0.193
27.080,0.179
27.085,0.164
27.090,0.154
27.095,0.144
27.100,0.134
27.105,0.122
27.110,0.105
27.115,0.097
27.120,0.089
27.125,0.080
27.130,0.074
27.135,0.065
27.140,0.060
27.145,0.054
27.150,0.044
27.155,0.036
27.160,0.029
27.165,0.025
27.170,0.019
27.175,0.011
27.180,0.006
27.185,0.002
27.190,-0.005
27.195,-0.010
27.200,-0.015
27.205,-0.019
27.210,-0.020
27.215,-0.026
27.220,-0.031
27.225,-0.037
27.230,-0.045
27.235,-0.051
27.240,-0.058
27.245,-0.059
27.250,-0.065
27.255,-0.085
27.260,-0.105
27.265,-0.115
27.270,-0.113
27.275,-0.112
27.280,-0.128
27.285,-0.149
27.290,-0.157
27.295,-0.156
27.300,-0.147
27.305,-0.126
27.310,-0.102
27.315,-0.077
27.320,-0.061
27.325,-0.056
27.330,-0.053
27.335,-0.048
27.340,-0.036
27.345,-0.031
27.350,-0.030
27.355,-0.030
27.360,-0.031
27.365,-0.032
27.370,-0.035
27.375,-0.035
27.380,-0.033
27.385,-0.036
27.390,-0.042
27.395,-0.041
27.400,-0.042
27.405,-0.044
27.410,-0.021
27.415,0.033
27.420,0.074
27.425,0.008
27.430,-0.249
27.435,-0.693
27.440,-1.173
27.445,-1.501
27.450,-1.516
27.455,-1.040
27.460,-0.264
27.465,0.284
27.470,0.458
27.475,0.452
27.480,0.404
27.485,0.356
27.490,0.260
27.495,0.158
27.500,0.152
27.505,0.159
27.510,0.117
27.515,0.108
27.520,0.111
27.525,0.083
27.530,0.066
27.535,0.073
27.540,0.069
27.545,0.053
27.550,0.054
27.555,0.053
27.560,0.039
27.565,0.033
27.570,0.026
27.575,0.009
27.580,-0.003
27.585,-0.008
27.590,-0.018
27.595,-0.029
27.600,-0.040
27.605,-0.049
27.610,-0.059
27.615,-0.075
27.620,-0.087
27.625,-0.098
27.630,-0.112
27.635,-0.130
27.640,-0.155
27.645,-0.176
27.650,-0.194
27.655,-0.214
27.660,-0.238
27.665,-0.260
27.670,-0.281
27.675,-0.300
27.680,-0.313
27.685,-0.322
27.690,-0.331
27.695,-0.340
27.700,-0.339
27.705,-0.329
27.710,-0.312
27.715,-0.282
27.720,-0.244
27.725,-0.186
27.730,-0.119
27.735,-0.050
27.740,0.030
27.745,0.108
27.750,0.184
27.755,0.255
27.760,0.319
27.765,0.376
27.770,0.418
27.775,0.449
27.780,0.469
27.785,0.477
27.790,0.475
27.795,0.467
27.800,0.453
27.805,0.444
27.810,0.437
27.815,0.419
27.820,0.406
27.825,0.385
27.830,0.365
27.835,0.347
27.840,0.323
27.845,0.309
27.850,0.295
27.855,0.276
27.860,0.260
27.865,0.243
27.870,0.225
27.875,0.212
27.880,0.197
27.885,0.180
27.890,0.166
27.895,0.155
27.900,0.146
27.905,0.132
27.910,0.115
27.915,0.105
27.920,0.097
27.925,0.094
27.930,0.084
27.935,0.075
27.940,0.070
27.945,0.060
27.950,0.052
27.955,0.044
27.960,0.033
27.965,0.027
27.970,0.021
27.975,0.015
27.980,0.009
27.985,0.002
27.990,-0.004
27.995,-0.005
28.000,-0.010
28.005,-0.013
28.010,-0.016
28.015,-0.024
28.020,-0.029
28.025,-0.037
28.030,-0.046
28.035,-0.053
28.040,-0.063
28.045,-0.074
28.050,-0.094
28.055,-0.106
28.060,-0.104
28.065,-0.101
28.070,-0.112
28.075,-0.132
28.080,-0.144
28.085,-0.148
28.090,-0.144
28.095,-0.133
28.100,-0.114
28.105,-0.094
28.110,-0.080
28.115,-0.068
28.120,-0.061
28.125,-0.050
28.130,-0.041
28.135,-0.036
28.140,-0.031
28.145,-0.033
28.150,-0.034
28.155,-0.035
28.160,-0.038
28.165,-0.040
28.170,-0.043
28.175,-0.045
28.180,-0.046
28.185,-0.047
28.190,-0.049
28.195,-0.048
28.200,-0.037
28.205,0.012
28.210,0.068
28.215,0.046
28.220,-0.133
28.225,-0.524
28.230,-1.023
28.235,-1.440
28.240,-1.612
28.245,-1.334
28.250,-0.616
28.255,0.085
28.260,0.410
28.265,0.458
28.270,0.416
28.275,0.369
28.280,0.298
28.285,0.193
28.290,0.155
28.295,0.171
28.300,0.144
28.305,0.114
28.310,0.123
28.315,0.113
28.320,0.085
28.325,0.087
28.330,0.086
28.335,0.066
28.340,0.059
28.345,0.057
28.350,0.046
28.355,0.034
28.360,0.029
28.365,0.022
28.370,0.009
28.375,0.000
28.380,-0.008
28.385,-0.020
28.390,-0.028
28.395,-0.035
28.400,-0.049
28.405,-0.061
28.410,-0.074
28.415,-0.092
28.420,-0.106
28.425,-0.123
28.430,-0.139
28.435,-0.158
28.440,-0.180
28.445,-0.199
28.450,-0.223
28.455,-0.245
28.460,-0.265
28.465,-0.287
28.470,-0.305
28.475,-0.318
28.480,-0.329
28.485,-0.334
28.490,-0.334
28.495,-0.328
28.500,-0.311
28.505,-0.286
28.510,-0.250
28.515,-0.201
28.520,-0.146
28.525,-0.077
28.530,-0.005
28.535,0.073
28.540,0.154
28.545,0.226
28.550,0.292
28.555,0.345
28.560,0.388
28.565,0.424
28.570,0.445
28.575,0.456
28.580,0.463
28.585,0.461
28.590,0.455
28.595,0.446
28.600,0.431
28.605,0.416
28.610,0.398
28.615,0.378
28.620,0.363
28.625,0.345
28.630,0.328
28.635,0.309
28.640,0.289
28.645,0.273
28.650,0.254
28.655,0.238
28.660,0.222
28.665,0.206
28.670,0.193
28.675,0.178
28.680,0.164
28.685,0.151
28.690,0.138
28.695,0.125
28.700,0.116
28.705,0.105
28.710,0.096
28.715,0.088
28.720,0.077
28.725,0.070
28.730,0.061
28.735,0.054
28.740,0.048
28.745,0.038
28.750,0.031
28.755,0.024
28.760,0.018
28.765,0.012
28.770,0.005
28.775,0.001
28.780,-0.004
28.785,-0.011
28.790,-0.016
28.795,-0.020
28.800,-0.025
28.805,-0.028
28.810,-0.032
28.815,-0.038
28.820,-0.039
28.825,-0.044
28.830,-0.047
28.835,-0.051
28.840,-0.056
28.845,-0.059
28.850,-0.068
28.855,-0.075
28.860,-0.086
28.865,-0.104
28.870,-0.117
28.875,-0.121
28.880,-0.117
28.885,-0.118
28.890,-0.135
28.895,-0.152
28.900,-0.155
28.905,-0.154
28.910,-0.145
28.915,-0.125
28.920,-0.103
28.925,-0.082
28.930,-0.070
28.935,-0.063
28.940,-0.055
28.945,-0.046
28.950,-0.037
28.955,-0.033
28.960,-0.029
28.965,-0.030
28.970,-0.032
28.975,-0.031
28.980,-0.033
28.985,-0.036
28.990,-0.036
28.995,-0.037
29.000,-0.040
29.005,-0.040
29.010,-0.042
29.015,-0.038
29.020,-0.003
29.025,0.051
29.030,0.064
29.035,-0.057
29.040,-0.369
29.045,-0.831
29.050,-1.274
29.055,-1.509
29.060,-1.379
29.065,-0.804
29.070,-0.087
29.075,0.347
29.080,0.470
29.085,0.440
29.090,0.361
29.095,0.293
29.100,0.212
29.105,0.157
29.110,0.168
29.115,0.156
29.120,0.119
29.125,0.124
29.130,0.122
29.135,0.098
29.140,0.091
29.145,0.091
29.150,0.077
29.155,0.063
29.160,0.063
29.165,0.055
29.170,0.040
29.175,0.036
29.180,0.029
29.185,0.018
29.190,0.012
29.195,0.005
29.200,-0.008
29.205,-0.016
29.210,-0.024
29.215,-0.036
29.220,-0.048
29.225,-0.062
29.230,-0.073
29.235,-0.090
29.240,-0.106
29.245,-0.120
29.250,-0.141
29.255,-0.158
29.260,-0.181
29.265,-0.204
29.270,-0.224
29.275,-0.245
29.280,-0.266
29.285,-0.285
29.290,-0.301
29.295,-0.312
29.300,-0.318
29.305,-0.320
29.310,-0.314
29.315,-0.302
29.320,-0.283
29.325,-0.250
29.330,-0.211
29.335,-0.158
29.340,-0.095
29.345,-0.028
29.350,0.048
29.355,0.122
29.360,0.197
29.365,0.265
29.370,0.322
29.375,0.371
29.380,0.409
29.385,0.437
29.390,0.455
29.395,0.464
29.400,0.464
29.405,0.461
29.410,0.452
29.415,0.441
29.420,0.428
29.425,0.408
29.430,0.392
29.435,0.373
29.440,0.356
29.445,0.339
29.450,0.318
29.455,0.300
29.460,0.282
29.465,0.265
29.470,0.248
29.475,0.232
29.480,0.218
29.485,0.203
29.490,0.187
29.495,0.173
29.500,0.160
29.505,0.148
29.510,0.138
29.515,0.125
29.520,0.112
29.525,0.104
29.530,0.091
29.535,0.083
29.540,0.074
29.545,0.063
29.550,0.057
29.555,0.048
29.560,0.042
29.565,0.035
29.570,0.026
29.575,0.020
29.580,0.013
29.585,0.007
29.590,0.001
29.595,-0.004
29.600,-0.010
29.605,-0.013
29.610,-0.020
29.615,-0.025
29.620,-0.029
29.625,-0.036
29.630,-0.039
29.635,-0.045
29.640,-0.048
29.645,-0.049
29.650,-0.054
29.655,-0.055
29.660,-0.059
29.665,-0.063
29.670,-0.064
29.675,-0.067
29.680,-0.070
29.685,-0.075
29.690,-0.083
29.695,-0.089
29.700,-0.094
29.705,-0.104
29.710,-0.121
29.715,-0.134
29.720,-0.132
29.725,-0.123
29.730,-0.135
29.735,-0.154
29.740,-0.165
29.745,-0.163
29.750,-0.153
29.755,-0.141
29.760,-0.115
29.765,-0.092
29.770,-0.078
29.775,-0.069
29.780,-0.064
29.785,-0.052
29.790,-0.040
29.795,-0.036
29.800,-0.032
29.805,-0.030
29.810,-0.032
29.815,-0.030
29.820,-0.031
29.825,-0.035
29.830,-0.032
29.835,-0.035
29.840,-0.035
29.845,-0.035
29.850,-0.038
29.855,-0.036
29.860,-0.019
29.865,0.034
29.870,0.074
29.875,0.016
29.880,-0.215
29.885,-0.634
29.890,-1.102
29.895,-1.427
29.900,-1.450
29.905,-1.029
29.910,-0.315
29.915,0.236
29.920,0.453
29.925,0.465
29.930,0.387
29.935,0.315
29.940,0.238
29.945,0.165
29.950,0.161
29.955,0.160
29.960,0.126
29.965,0.116
29.970,0.122
29.975,0.103
29.980,0.087
29.985,0.088
29.990,0.079
29.995,0.063
30.000,0.060
30.005,0.056
30.010,0.041
30.015,0.034
30.020,0.030
30.025,0.018
30.030,0.012
30.035,0.005
30.040,-0.004
30.045,-0.015
30.050,-0.026
30.055,-0.033
30.060,-0.045
30.065,-0.057
30.070,-0.068
30.075,-0.083
30.080,-0.097
30.085,-0.114
30.090,-0.132
30.095,-0.150
30.100,-0.170
30.105,-0.190
30.110,-0.209
30.115,-0.232
30.120,-0.252
30.125,-0.269
30.130,-0.288
30.135,-0.299
30.140,-0.309
30.145,-0.315
30.150,-0.314
30.155,-0.307
30.160,-0.289
30.165,-0.264
30.170,-0.229
30.175,-0.182
30.180,-0.128
30.185,-0.064
30.190,0.008
30.195,0.083
30.200,0.157
30.205,0.228
30.210,0.290
30.215,0.345
30.220,0.389
30.225,0.423
30.230,0.449
30.235,0.460
30.240,0.466
30.245,0.465
30.250,0.457
30.255,0.448
30.260,0.433
30.265,0.417
30.270,0.400
30.275,0.382
30.280,0.366
30.285,0.347
30.290,0.329
30.295,0.311
30.300,0.291
30.305,0.274
30.310,0.258
30.315,0.240
30.320,0.226
30.325,0.212
30.330,0.195
30.335,0.182
30.340,0.168
30.345,0.156
30.350,0.144
30.355,0.131
30.360,0.122
30.365,0.111
30.370,0.101
30.375,0.093
30.380,0.083
30.385,0.075
30.390,0.067
30.395,0.059
30.400,0.051
30.405,0.044
30.410,0.036
30.415,0.030
30.420,0.022
30.425,0.015
30.430,0.012
30.435,0.004
30.440,0.000
30.445,-0.006
30.450,-0.013
30.455,-0.016
30.460,-0.023
30.465,-0.027
30.470,-0.031
30.475,-0.037
30.480,-0.040
30.485,-0.042
30.490,-0.045
30.495,-0.048
30.500,-0.052
30.505,-0.055
30.510,-0.056
30.515,-0.061
30.520,-0.064
30.525,-0.067
30.530,-0.073
30.535,-0.076
30.540,-0.085
30.545,-0.089
30.550,-0.096
30.555,-0.112
30.560,-0.127
30.565,-0.132
30.570,-0.125
30.575,-0.126
30.580,-0.145
30.585,-0.163
30.590,-0.164
30.595,-0.155
30.600,-0.142
30.605,-0.121
30.610,-0.096
30.615,-0.078
30.620,-0.071
30.625,-0.066
30.630,-0.054
30.635,-0.043
30.640,-0.034
30.645,-0.030
30.650,-0.029
30.655,-0.028
30.660,-0.030
30.665,-0.028
30.670,-0.030
30.675,-0.032
30.680,-0.033
30.685,-0.035
30.690,-0.036
30.695,-0.037
30.700,-0.037
30.705,-0.019
30.710,0.035
30.715,0.075
30.720,0.021
30.725,-0.204
30.730,-0.624
30.735,-1.091
30.740,-1.422
30.745,-1.453
30.750,-1.037
30.755,-0.324
30.760,0.230
30.765,0.447
30.770,0.463
30.775,0.397
30.780,0.327
30.785,0.247
30.790,0.169
30.795,0.161
30.800,0.163
30.805,0.127
30.810,0.116
30.815,0.125
30.820,0.103
30.825,0.086
30.830,0.090
30.835,0.078
30.840,0.063
30.845,0.059
30.850,0.054
30.855,0.043
30.860,0.035
30.865,0.032
30.870,0.020
30.875,0.009
30.880,0.004
30.885,-0.005
30.890,-0.014
30.895,-0.021
30.900,-0.033
30.905,-0.046
30.910,-0.055
30.915,-0.067
30.920,-0.081
30.925,-0.097
30.930,-0.113
30.935,-0.127
30.940,-0.148
30.945,-0.167
30.950,-0.188
30.955,-0.209
30.960,-0.227
30.965,-0.250
30.970,-0.270
30.975,-0.287
30.980,-0.301
30.985,-0.310
30.990,-0.315
30.995,-0.313
31.000,-0.305
31.005,-0.291
31.010,-0.268
31.015,-0.234
31.020,-0.189
31.025,-0.132
31.030,-0.068
31.035,0.001
31.040,0.076
31.045,0.149
31.050,0.221
31.055,0.287
31.060,0.340
31.065,0.385
31.070,0.418
31.075,0.443
31.080,0.458
31.085,0.462
31.090,0.460
31.095,0.454
31.100,0.444
31.105,0.433
31.110,0.418
31.115,0.399
31.120,0.382
31.125,0.364
31.130,0.345
31.135,0.327
31.140,0.307
31.145,0.291
31.150,0.271
31.155,0.253
31.160,0.240
31.165,0.223
31.170,0.209
31.175,0.195
31.180,0.179
31.185,0.167
31.190,0.155
31.195,0.143
31.200,0.133
31.205,0.122
31.210,0.110
31.215,0.099
31.220,0.088
31.225,0.079
31.230,0.072
31.235,0.063
31.240,0.057
31.245,0.048
31.250,0.042
31.255,0.037
31.260,0.027
31.265,0.020
31.270,0.012
31.275,0.006
31.280,0.003
31.285,-0.002
31.290,-0.006
31.295,-0.012
31.300,-0.019
31.305,-0.024
31.310,-0.027
31.315,-0.033
31.320,-0.036
31.325,-0.041
31.330,-0.046
31.335,-0.051
31.340,-0.062
31.345,-0.068
31.350,-0.079
31.355,-0.095
31.360,-0.108
31.365,-0.116
31.370,-0.110
31.375,-0.112
31.380,-0.133
31.385,-0.151
31.390,-0.155
31.395,-0.151
31.400,-0.142
31.405,-0.123
31.410,-0.098
31.415,-0.077
31.420,-0.068
31.425,-0.064
31.430,-0.057
31.435,-0.046
31.440,-0.035
31.445,-0.034
31.450,-0.030
31.455,-0.032
31.460,-0.038
31.465,-0.037
31.470,-0.039
31.475,-0.038
31.480,-0.036
31.485,-0.040
31.490,-0.043
31.495,-0.042
31.500,-0.044
31.505,-0.041
31.510,-0.008
31.515,0.047
31.520,0.058
31.525,-0.058
31.530,-0.363
31.535,-0.821
31.540,-1.255
31.545,-1.480
31.550,-1.335
31.555,-0.744
31.560,-0.047
31.565,0.343
31.570,0.449
31.575,0.422
31.580,0.354
31.585,0.286
31.590,0.191
31.595,0.135
31.600,0.148
31.605,0.132
31.610,0.099
31.615,0.105
31.620,0.102
31.625,0.079
31.630,0.073
31.635,0.073
31.640,0.060
31.645,0.046
31.650,0.046
31.655,0.037
31.660,0.023
31.665,0.021
31.670,0.013
31.675,0.003
31.680,-0.004
31.685,-0.011
31.690,-0.021
31.695,-0.030
31.700,-0.038
31.705,-0.047
31.710,-0.058
31.715,-0.068
31.720,-0.077
31.725,-0.094
31.730,-0.111
31.735,-0.126
31.740,-0.144
31.745,-0.160
31.750,-0.182
31.755,-0.202
31.760,-0.222
31.765,-0.246
31.770,-0.264
31.775,-0.283
31.780,-0.297
31.785,-0.306
31.790,-0.314
31.795,-0.316
31.800,-0.310
31.805,-0.299
31.810,-0.277
31.815,-0.246
31.820,-0.205
31.825,-0.151
31.830,-0.091
31.835,-0.024
31.840,0.051
31.845,0.125
31.850,0.200
31.855,0.267
31.860,0.324
31.865,0.374
31.870,0.410
31.875,0.438
31.880,0.455
31.885,0.462
31.890,0.465
31.895,0.460
31.900,0.451
31.905,0.439
31.910,0.423
31.915,0.406
31.920,0.391
31.925,0.371
31.930,0.354
31.935,0.338
31.940,0.318
31.945,0.302
31.950,0.283
31.955,0.265
31.960,0.248
31.965,0.229
31.970,0.214
31.975,0.198
31.980,0.182
31.985,0.168
31.990,0.154
31.995,0.143
32.000,0.131
32.005,0.121
32.010,0.111
32.015,0.099
32.020,0.088
32.025,0.080
32.030,0.068
32.035,0.060
32.040,0.057
32.045,0.049
32.050,0.044
32.055,0.035
32.060,0.022
32.065,0.014
32.070,0.007
32.075,0.003
32.080,-0.002
32.085,-0.008
32.090,-0.013
32.095,-0.018
32.100,-0.019
32.105,-0.022
32.110,-0.026
32.115,-0.030
32.120,-0.036
32.125,-0.044
32.130,-0.051
32.135,-0.060
32.140,-0.065
32.145,-0.069
32.150,-0.081
32.155,-0.084
32.160,-0.087
32.165,-0.099
32.170,-0.112
32.175,-0.122
32.180,-0.117
32.185,-0.115
32.190,-0.131
32.195,-0.150
32.200,-0.162
32.205,-0.165
32.210,-0.158
32.215,-0.147
32.220,-0.123
32.225,-0.091
32.230,-0.077
32.235,-0.073
32.240,-0.065
32.245,-0.056
32.250,-0.041
32.255,-0.038
32.260,-0.043
32.265,-0.042
32.270,-0.042
32.275,-0.041
32.280,-0.041
32.285,-0.040
32.290,-0.041
32.295,-0.043
32.300,-0.044
32.305,-0.045
32.310,-0.046
32.315,-0.041
32.320,-0.003
32.325,0.054
32.330,0.070
32.335,-0.049
32.340,-0.370
32.345,-0.839
32.350,-1.279
32.355,-1.505
32.360,-1.348
32.365,-0.730
32.370,-0.007
32.375,0.384
32.380,0.472
32.385,0.443
32.390,0.390
32.395,0.328
32.400,0.224
32.405,0.161
32.410,0.174
32.415,0.156
32.420,0.117
32.425,0.125
32.430,0.127
32.435,0.102
32.440,0.097
32.445,0.096
32.450,0.076
32.455,0.061
32.460,0.062
32.465,0.057
32.470,0.040
32.475,0.034
32.480,0.030
32.485,0.021
32.490,0.016
32.495,0.004
32.500,-0.011
32.505,-0.019
32.510,-0.024
32.515,-0.034
32.520,-0.047
32.525,-0.062
32.530,-0.075
32.535,-0.091
32.540,-0.111
32.545,-0.125
32.550,-0.141
32.555,-0.158
32.560,-0.176
32.565,-0.199
32.570,-0.221
32.575,-0.244
32.580,-0.273
32.585,-0.290
32.590,-0.299
32.595,-0.310
32.600,-0.314
32.605,-0.315
32.610,-0.313
32.615,-0.302
32.620,-0.282
32.625,-0.250
32.630,-0.208
32.635,-0.158
32.640,-0.094
32.645,-0.025
32.650,0.049
32.655,0.125
32.660,0.201
32.665,0.267
32.670,0.321
32.675,0.372
32.680,0.409
32.685,0.435
32.690,0.451
32.695,0.460
32.700,0.464
32.705,0.459
32.710,0.446
32.715,0.432
32.720,0.426
32.725,0.412
32.730,0.389
32.735,0.368
32.740,0.347
32.745,0.329
32.750,0.313
32.755,0.296
32.760,0.278
32.765,0.262
32.770,0.242
32.775,0.224
32.780,0.217
32.785,0.199
32.790,0.178
32.795,0.158
32.800,0.140
32.805,0.134
32.810,0.123
32.815,0.111
32.820,0.103
32.825,0.095
32.830,0.088
32.835,0.081
32.840,0.076
32.845,0.070
32.850,0.061
32.855,0.046
32.860,0.041
32.865,0.040
32.870,0.030
32.875,0.019
32.880,0.003
32.885,-0.004
32.890,-0.005
32.895,-0.011
32.900,-0.018
32.905,-0.024
32.910,-0.026
32.915,-0.027
32.920,-0.028
32.925,-0.033
32.930,-0.044
32.935,-0.063
32.940,-0.079
32.945,-0.092
32.950,-0.096
32.955,-0.089
32.960,-0.099
32.965,-0.124
32.970,-0.141
32.975,-0.148
32.980,-0.141
32.985,-0.132
32.990,-0.126
32.995,-0.107
33.000,-0.088
33.005,-0.078
33.010,-0.069
33.015,-0.058
33.020,-0.046
33.025,-0.041
33.030,-0.040
33.035,-0.037
33.040,-0.036
33.045,-0.041
33.050,-0.045
33.055,-0.047
33.060,-0.047
33.065,-0.049
33.070,-0.048
33.075,-0.046
33.080,-0.052
33.085,-0.059
33.090,-0.061
33.095,-0.040
33.100,0.014
33.105,0.052
33.110,-0.001
33.115,-0.233
33.120,-0.667
33.125,-1.151
33.130,-1.496
33.135,-1.560
33.140,-1.134
33.145,-0.347
33.150,0.248
33.155,0.449
33.160,0.449
33.165,0.414
33.170,0.383
33.175,0.282
33.180,0.169
33.185,0.161
33.190,0.176
33.195,0.132
33.200,0.106
33.205,0.113
33.210,0.094
33.215,0.071
33.220,0.081
33.225,0.080
33.230,0.053
33.235,0.047
33.240,0.048
33.245,0.029
33.250,0.023
33.255,0.023
33.260,0.013
33.265,0.000
33.270,-0.009
33.275,-0.017
33.280,-0.026
33.285,-0.031
33.290,-0.042
33.295,-0.059
33.300,-0.074
33.305,-0.086
33.310,-0.101
33.315,-0.120
33.320,-0.138
33.325,-0.156
33.330,-0.174
33.335,-0.194
33.340,-0.215
33.345,-0.234
33.350,-0.255
33.355,-0.278
33.360,-0.301
33.365,-0.318
33.370,-0.331
33.375,-0.342
33.380,-0.344
33.385,-0.342
33.390,-0.330
33.395,-0.311
33.400,-0.284
33.405,-0.238
33.410,-0.183
33.415,-0.121
33.420,-0.047
33.425,0.031
33.430,0.110
33.435,0.191
33.440,0.261
33.445,0.318
33.450,0.369
33.455,0.404
33.460,0.433
33.465,0.457
33.470,0.471
33.475,0.473
33.480,0.463
33.485,0.454
33.490,0.443
33.495,0.429
33.500,0.414
33.505,0.397
33.510,0.379
33.515,0.359
33.520,0.340
33.525,0.324
33.530,0.307
33.535,0.285
33.540,0.267
33.545,0.252
33.550,0.234
33.555,0.219
33.560,0.201
33.565,0.186
33.570,0.171
33.575,0.157
33.580,0.147
33.585,0.132
33.590,0.121
33.595,0.111
33.600,0.099
33.605,0.091
33.610,0.084
33.615,0.074
33.620,0.064
33.625,0.056
33.630,0.046
33.635,0.042
33.640,0.037
33.645,0.032
33.650,0.028
33.655,0.018
33.660,0.013
33.665,0.008
33.670,0.001
33.675,-0.009
33.680,-0.021
33.685,-0.030
33.690,-0.049
33.695,-0.070
33.700,-0.076
33.705,-0.073
33.710,-0.074
33.715,-0.091
33.720,-0.112
33.725,-0.122
33.730,-0.128
33.735,-0.131
33.740,-0.117
33.745,-0.098
33.750,-0.080
33.755,-0.062
33.760,-0.057
33.765,-0.048
33.770,-0.032
33.775,-0.026
33.780,-0.022
33.785,-0.021
33.790,-0.022
33.795,-0.020
33.800,-0.023
33.805,-0.028
33.810,-0.030
33.815,-0.033
33.820,-0.037
33.825,-0.038
33.830,-0.039
33.835,-0.040
33.840,-0.044
33.845,-0.042
33.850,-0.009
33.855,0.048
33.860,0.068
33.865,-0.041
33.870,-0.342
33.875,-0.806
33.880,-1.272
33.885,-1.557
33.890,-1.482
33.895,-0.913
33.900,-0.149
33.905,0.318
33.910,0.442
33.915,0.424
33.920,0.377
33.925,0.323
33.930,0.224
33.935,0.145
33.940,0.151
33.945,0.143
33.950,0.102
33.955,0.104
33.960,0.107
33.965,0.082
33.970,0.071
33.975,0.073
33.980,0.059
33.985,0.042
33.990,0.044
33.995,0.038
34.000,0.023
34.005,0.017
34.010,0.011
34.015,-0.001
34.020,-0.010
34.025,-0.015
34.030,-0.026
34.035,-0.036
34.040,-0.046
34.045,-0.058
34.050,-0.070
34.055,-0.085
34.060,-0.098
34.065,-0.116
34.070,-0.130
34.075,-0.145
34.080,-0.167
34.085,-0.187
34.090,-0.210
34.095,-0.231
34.100,-0.251
34.105,-0.274
34.110,-0.295
34.115,-0.312
34.120,-0.327
34.125,-0.338
34.130,-0.343
34.135,-0.345
34.140,-0.337
34.145,-0.324
34.150,-0.302
34.155,-0.264
34.160,-0.220
34.165,-0.162
34.170,-0.095
34.175,-0.023
34.180,0.054
34.185,0.130
34.190,0.204
34.195,0.271
34.200,0.327
34.205,0.373
34.210,0.407
34.215,0.432
34.220,0.446
34.225,0.452
34.230,0.450
34.235,0.445
34.240,0.436
34.245,0.424
34.250,0.410
34.255,0.391
34.260,0.376
34.265,0.357
34.270,0.341
34.275,0.326
34.280,0.306
34.285,0.289
34.290,0.270
34.295,0.253
34.300,0.239
34.305,0.222
34.310,0.207
34.315,0.193
34.320,0.179
34.325,0.166
34.330,0.153
34.335,0.139
34.340,0.129
34.345,0.117
34.350,0.107
34.355,0.099
34.360,0.088
34.365,0.080
34.370,0.070
34.375,0.061
34.380,0.056
34.385,0.048
34.390,0.044
34.395,0.036
34.400,0.029
34.405,0.025
34.410,0.018
34.415,0.013
34.420,0.008
34.425,0.002
34.430,-0.003
34.435,-0.007
34.440,-0.013
34.445,-0.017
34.450,-0.022
34.455,-0.030
34.460,-0.035
34.465,-0.044
34.470,-0.050
34.475,-0.067
34.480,-0.090
34.485,-0.098
34.490,-0.095
34.495,-0.093
34.500,-0.104
34.505,-0.124
34.510,-0.134
34.515,-0.137
34.520,-0.139
34.525,-0.129
34.530,-0.112
34.535,-0.094
34.540,-0.072
34.545,-0.059
34.550,-0.051
34.555,-0.040
34.560,-0.032
34.565,-0.025
34.570,-0.022
34.575,-0.022
34.580,-0.022
34.585,-0.023
34.590,-0.023
34.595,-0.027
34.600,-0.028
34.605,-0.027
34.610,-0.031
34.615,-0.032
34.620,-0.034
34.625,-0.038
34.630,-0.034
34.635,0.000
34.640,0.056
34.645,0.070
34.650,-0.049
34.655,-0.356
34.660,-0.815
34.665,-1.264
34.670,-1.509
34.675,-1.389
34.680,-0.823
34.685,-0.105
34.690,0.331
34.695,0.455
34.700,0.428
34.705,0.352
34.710,0.288
34.715,0.208
34.720,0.153
34.725,0.162
34.730,0.148
34.735,0.113
34.740,0.116
34.745,0.115
34.750,0.090
34.755,0.082
34.760,0.081
34.765,0.069
34.770,0.055
34.775,0.055
34.780,0.046
34.785,0.031
34.790,0.028
34.795,0.020
34.800,0.009
34.805,0.001
34.810,-0.008
34.815,-0.018
34.820,-0.027
34.825,-0.036
34.830,-0.047
34.835,-0.060
34.840,-0.074
34.845,-0.086
34.850,-0.102
34.855,-0.119
34.860,-0.135
34.865,-0.156
34.870,-0.174
34.875,-0.197
34.880,-0.220
34.885,-0.240
34.890,-0.264
34.895,-0.284
34.900,-0.304
34.905,-0.320
34.910,-0.329
34.915,-0.335
34.920,-0.335
34.925,-0.328
34.930,-0.314
34.935,-0.292
34.940,-0.258
34.945,-0.214
34.950,-0.158
34.955,-0.092
34.960,-0.022
34.965,0.055
34.970,0.130
34.975,0.205
34.980,0.271
34.985,0.326
34.990,0.375
34.995,0.409
35.000,0.433
35.005,0.450
35.010,0.456
35.015,0.456
35.020,0.450
35.025,0.440
35.030,0.427
35.035,0.412
35.040,0.396
35.045,0.380
35.050,0.361
35.055,0.343
35.060,0.327
35.065,0.308
35.070,0.293
35.075,0.274
35.080,0.257
35.085,0.243
35.090,0.227
35.095,0.213
35.100,0.199
35.105,0.185
35.110,0.173
35.115,0.160
35.120,0.148
35.125,0.136
35.130,0.123
35.135,0.112
35.140,0.103
35.145,0.092
35.150,0.084
35.155,0.076
35.160,0.065
35.165,0.060
35.170,0.051
35.175,0.045
35.180,0.037
35.185,0.027
35.190,0.023
35.195,0.015
35.200,0.009
35.205,0.004
35.210,-0.002
35.215,-0.006
35.220,-0.012
35.225,-0.017
35.230,-0.023
35.235,-0.029
35.240,-0.036
35.245,-0.039
35.250,-0.042
35.255,-0.044
35.260,-0.046
35.265,-0.052
35.270,-0.054
35.275,-0.060
35.280,-0.067
35.285,-0.072
35.290,-0.079
35.295,-0.086
35.300,-0.104
35.305,-0.121
35.310,-0.123
35.315,-0.120
35.320,-0.121
35.325,-0.137
35.330,-0.155
35.335,-0.158
35.340,-0.154
35.345,-0.146
35.350,-0.128
35.355,-0.107
35.360,-0.087
35.365,-0.070
35.370,-0.063
35.375,-0.054
35.380,-0.044
35.385,-0.034
35.390,-0.025
35.395,-0.027
35.400,-0.027
35.405,-0.025
35.410,-0.028
35.415,-0.031
35.420,-0.034
35.425,-0.035
35.430,-0.034
35.435,-0.033
35.440,-0.034
35.445,-0.037
35.450,-0.040
35.455,-0.024
35.460,0.027
35.465,0.073
35.470,0.037
35.475,-0.166
35.480,-0.561
35.485,-1.039
35.490,-1.413
35.495,-1.510
35.500,-1.168
35.505,-0.461
35.510,0.167
35.515,0.445
35.520,0.486
35.525,0.427
35.530,0.351
35.535,0.271
35.540,0.184
35.545,0.162
35.550,0.173
35.555,0.137
35.560,0.116
35.565,0.130
35.570,0.116
35.575,0.095
35.580,0.093
35.585,0.084
35.590,0.066
35.595,0.057
35.600,0.055
35.605,0.043
35.610,0.037
35.615,0.035
35.620,0.024
35.625,0.013
35.630,0.009
35.635,0.003
35.640,-0.006
35.645,-0.015
35.650,-0.026
35.655,-0.037
35.660,-0.049
35.665,-0.064
35.670,-0.081
35.675,-0.106
35.680,-0.125
35.685,-0.143
35.690,-0.162
35.695,-0.177
35.700,-0.202
35.705,-0.221
35.710,-0.238
35.715,-0.261
35.720,-0.280
35.725,-0.299
35.730,-0.317
35.735,-0.325
35.740,-0.329
35.745,-0.330
35.750,-0.317
35.755,-0.299
35.760,-0.271
35.765,-0.233
35.770,-0.193
35.775,-0.137
35.780,-0.071
35.785,0.002
35.790,0.081
35.795,0.157
35.800,0.236
35.805,0.304
35.810,0.354
35.815,0.394
35.820,0.425
35.825,0.449
35.830,0.462
35.835,0.463
35.840,0.460
35.845,0.458
35.850,0.450
35.855,0.438
35.860,0.423
35.865,0.405
35.870,0.389
35.875,0.366
35.880,0.345
35.885,0.326
35.890,0.306
35.895,0.289
35.900,0.272
35.905,0.258
35.910,0.243
35.915,0.227
35.920,0.214
35.925,0.202
35.930,0.186
35.935,0.169
35.940,0.153
35.945,0.138
35.950,0.131
35.955,0.123
35.960,0.111
35.965,0.101
35.970,0.089
35.975,0.083
35.980,0.074
35.985,0.064
35.990,0.055
35.995,0.044
36.000,0.038
36.005,0.028
36.010,0.019
36.015,0.016
36.020,0.011
36.025,0.006
36.030,0.001
36.035,-0.006
36.040,-0.011
36.045,-0.016
36.050,-0.020
36.055,-0.017
36.060,-0.020
36.065,-0.030
36.070,-0.035
36.075,-0.042
36.080,-0.046
36.085,-0.049
36.090,-0.052
36.095,-0.056
36.100,-0.065
36.105,-0.069
36.110,-0.079
36.115,-0.094
36.120,-0.109
36.125,-0.117
36.130,-0.114
36.135,-0.116
36.140,-0.132
36.145,-0.148
36.150,-0.156
36.155,-0.154
36.160,-0.141
36.165,-0.125
36.170,-0.114
36.175,-0.095
36.180,-0.080
36.185,-0.070
36.190,-0.064
36.195,-0.062
36.200,-0.053
36.205,-0.048
36.210,-0.043
36.215,-0.036
36.220,-0.031
36.225,-0.029
36.230,-0.032
36.235,-0.037
36.240,-0.041
36.245,-0.044
36.250,-0.046
36.255,-0.043
36.260,-0.046
36.265,-0.049
36.270,-0.025
36.275,0.027
36.280,0.069
36.285,0.029
36.290,-0.178
36.295,-0.588
36.300,-1.085
36.305,-1.476
36.310,-1.600
36.315,-1.248
36.320,-0.479
36.325,0.184
36.330,0.451
36.335,0.476
36.340,0.430
36.345,0.384
36.350,0.302
36.355,0.190
36.360,0.163
36.365,0.178
36.370,0.137
36.375,0.113
36.380,0.129
36.385,0.117
36.390,0.093
36.395,0.096
36.400,0.092
36.405,0.066
36.410,0.059
36.415,0.058
36.420,0.042
36.425,0.035
36.430,0.035
36.435,0.025
36.440,0.014
36.445,0.007
36.450,0.000
36.455,-0.006
36.460,-0.019
36.465,-0.035
36.470,-0.050
36.475,-0.064
36.480,-0.075
36.485,-0.093
36.490,-0.107
36.495,-0.120
36.500,-0.142
36.505,-0.161
36.510,-0.182
36.515,-0.201
36.520,-0.224
36.525,-0.255
36.530,-0.279
36.535,-0.295
36.540,-0.311
36.545,-0.331
36.550,-0.343
36.555,-0.349
36.560,-0.350
36.565,-0.342
36.570,-0.324
36.575,-0.287
36.580,-0.240
36.585,-0.188
36.590,-0.131
36.595,-0.062
36.600,0.017
36.605,0.097
36.610,0.179
36.615,0.255
36.620,0.320
36.625,0.375
36.630,0.415
36.635,0.447
36.640,0.469
36.645,0.474
36.650,0.471
36.655,0.468
36.660,0.457
36.665,0.445
36.670,0.432
36.675,0.412
36.680,0.398
36.685,0.384
36.690,0.368
36.695,0.354
36.700,0.340
36.705,0.323
36.710,0.300
36.715,0.280
36.720,0.260
36.725,0.242
36.730,0.224
36.735,0.202
36.740,0.190
36.745,0.181
36.750,0.165
36.755,0.148
36.760,0.137
36.765,0.125
36.770,0.111
36.775,0.103
36.780,0.093
36.785,0.087
36.790,0.079
36.795,0.070
36.800,0.064
36.805,0.054
36.810,0.047
36.815,0.040
36.820,0.033
36.825,0.025
36.830,0.016
36.835,0.011
36.840,0.008
36.845,0.004
36.850,-0.001
36.855,-0.006
36.860,-0.014
36.865,-0.020
36.870,-0.025
36.875,-0.032
36.880,-0.033
36.885,-0.038
36.890,-0.046
36.895,-0.051
36.900,-0.057
36.905,-0.059
36.910,-0.063
36.915,-0.070
36.920,-0.082
36.925,-0.103
36.930,-0.117
36.935,-0.114
36.940,-0.106
36.945,-0.111
36.950,-0.129
36.955,-0.145
36.960,-0.148
36.965,-0.145
36.970,-0.136
36.975,-0.117
36.980,-0.101
36.985,-0.085
36.990,-0.077
36.995,-0.073
37.000,-0.060
37.005,-0.049
37.010,-0.042
37.015,-0.039
37.020,-0.043
37.025,-0.044
37.030,-0.042
37.035,-0.044
37.040,-0.045
37.045,-0.045
37.050,-0.046
37.055,-0.046
37.060,-0.049
37.065,-0.052
37.070,-0.052
37.075,-0.039
37.080,0.017
37.085,0.074
37.090,0.054
37.095,-0.131
37.100,-0.526
37.105,-1.028
37.110,-1.450
37.115,-1.620
37.120,-1.342
37.125,-0.619
37.130,0.091
37.135,0.420
37.140,0.468
37.145,0.426
37.150,0.379
37.155,0.311
37.160,0.206
37.165,0.160
37.170,0.173
37.175,0.147
37.180,0.116
37.185,0.129
37.190,0.120
37.195,0.093
37.200,0.096
37.205,0.093
37.210,0.074
37.215,0.066
37.220,0.066
37.225,0.054
37.230,0.039
37.235,0.034
37.240,0.028
37.245,0.017
37.250,0.011
37.255,0.005
37.260,-0.008
37.265,-0.018
37.270,-0.027
37.275,-0.044
37.280,-0.056
37.285,-0.071
37.290,-0.083
37.295,-0.098
37.300,-0.117
37.305,-0.134
37.310,-0.157
37.315,-0.177
37.320,-0.196
37.325,-0.221
37.330,-0.244
37.335,-0.266
37.340,-0.288
37.345,-0.306
37.350,-0.320
37.355,-0.332
37.360,-0.337
37.365,-0.337
37.370,-0.330
37.375,-0.312
37.380,-0.287
37.385,-0.247
37.390,-0.199
37.395,-0.139
37.400,-0.068
37.405,0.005
37.410,0.083
37.415,0.157
37.420,0.229
37.425,0.296
37.430,0.350
37.435,0.394
37.440,0.428
37.445,0.450
37.450,0.462
37.455,0.468
37.460,0.466
37.465,0.459
37.470,0.448
37.475,0.432
37.480,0.420
37.485,0.402
37.490,0.385
37.495,0.367
37.500,0.348
37.505,0.333
37.510,0.314
37.515,0.297
37.520,0.281
37.525,0.261
37.530,0.243
37.535,0.226
37.540,0.210
37.545,0.195
37.550,0.181
37.555,0.167
37.560,0.155
37.565,0.141
37.570,0.128
37.575,0.117
37.580,0.104
37.585,0.097
37.590,0.086
37.595,0.077
37.600,0.070
37.605,0.060
37.610,0.053
37.615,0.044
37.620,0.038
37.625,0.032
37.630,0.023
37.635,0.018
37.640,0.013
37.645,0.006
37.650,0.000
37.655,-0.005
37.660,-0.013
37.665,-0.017
37.670,-0.022
37.675,-0.028
37.680,-0.029
37.685,-0.035
37.690,-0.039
37.695,-0.043
37.700,-0.046
37.705,-0.047
37.710,-0.053
37.715,-0.056
37.720,-0.059
37.725,-0.062
37.730,-0.063
37.735,-0.065
37.740,-0.067
37.745,-0.071
37.750,-0.076
37.755,-0.083
37.760,-0.087
37.765,-0.093
37.770,-0.103
37.775,-0.116
37.780,-0.124
37.785,-0.117
37.790,-0.118
37.795,-0.128
37.800,-0.142
37.805,-0.153
37.810,-0.148
37.815,-0.140
37.820,-0.122
37.825,-0.095
37.830,-0.080
37.835,-0.071
37.840,-0.067
37.845,-0.064
37.850,-0.052
37.855,-0.039
37.860,-0.035
37.865,-0.030
37.870,-0.030
37.875,-0.032
37.880,-0.029
37.885,-0.032
37.890,-0.031
37.895,-0.031
37.900,-0.032
37.905,-0.031
37.910,-0.033
37.915,-0.032
37.920,-0.022
37.925,0.019
37.930,0.079
37.935,0.076
37.940,-0.076
37.945,-0.423
37.950,-0.900
37.955,-1.329
37.960,-1.529
37.965,-1.329
37.970,-0.694
37.975,0.010
37.980,0.391
37.985,0.482
37.990,0.439
37.995,0.368
38.000,0.305
38.005,0.222
38.010,0.181
38.015,0.193
38.020,0.173
38.025,0.144
38.030,0.148
38.035,0.142
38.040,0.118
38.045,0.113
38.050,0.112
38.055,0.096
38.060,0.084
38.065,0.083
38.070,0.071
38.075,0.059
38.080,0.055
38.085,0.046
38.090,0.036
38.095,0.027
38.100,0.018
38.105,0.008
38.110,-0.004
38.115,-0.011
38.120,-0.024
38.125,-0.038
38.130,-0.050
38.135,-0.065
38.140,-0.080
38.145,-0.095
38.150,-0.114
38.155,-0.133
38.160,-0.153
38.165,-0.175
38.170,-0.196
38.175,-0.220
38.180,-0.245
38.185,-0.265
38.190,-0.287
38.195,-0.301
38.200,-0.312
38.205,-0.321
38.210,-0.322
38.215,-0.318
38.220,-0.305
38.225,-0.283
38.230,-0.251
38.235,-0.207
38.240,-0.154
38.245,-0.092
38.250,-0.022
38.255,0.053
38.260,0.127
38.265,0.202
38.270,0.269
38.275,0.327
38.280,0.375
38.285,0.411
38.290,0.440
38.295,0.455
38.300,0.464
38.305,0.467
38.310,0.460
38.315,0.453
38.320,0.441
38.325,0.425
38.330,0.409
38.335,0.390
38.340,0.372
38.345,0.354
38.350,0.335
38.355,0.318
38.360,0.301
38.365,0.282
38.370,0.266
38.375,0.248
38.380,0.231
38.385,0.218
38.390,0.201
38.395,0.187
38.400,0.174
38.405,0.159
38.410,0.148
38.415,0.136
38.420,0.125
38.425,0.113
38.430,0.101
38.435,0.093
38.440,0.083
38.445,0.074
38.450,0.064
38.455,0.055
38.460,0.047
38.465,0.041
38.470,0.033
38.475,0.026
38.480,0.019
38.485,0.011
38.490,0.007
38.495,0.001
38.500,-0.005
38.505,-0.010
38.510,-0.019
38.515,-0.022
38.520,-0.027
38.525,-0.032
38.530,-0.036
38.535,-0.041
38.540,-0.043
38.545,-0.046
38.550,-0.051
38.555,-0.055
38.560,-0.058
38.565,-0.062
38.570,-0.064
38.575,-0.067
38.580,-0.070
38.585,-0.069
38.590,-0.074
38.595,-0.076
38.600,-0.080
38.605,-0.083
38.610,-0.082
38.615,-0.084
38.620,-0.083
38.625,-0.085
38.630,-0.091
38.635,-0.094
38.640,-0.097
38.645,-0.099
38.650,-0.105
38.655,-0.119
38.660,-0.134
38.665,-0.135
38.670,-0.132
38.675,-0.135
38.680,-0.146
38.685,-0.162
38.690,-0.160
38.695,-0.149
38.700,-0.131
38.705,-0.103
38.710,-0.084
38.715,-0.074
38.720,-0.071
38.725,-0.067
38.730,-0.055
38.735,-0.041
38.740,-0.035
38.745,-0.034
38.750,-0.035
38.755,-0.035
38.760,-0.034
38.765,-0.034
38.770,-0.034
38.775,-0.037
38.780,-0.036
38.785,-0.032
38.790,-0.032
38.795,-0.030
38.800,-0.020
38.805,0.027
38.810,0.080
38.815,0.049
38.820,-0.141
38.825,-0.529
38.830,-1.005
38.835,-1.382
38.840,-1.499
38.845,-1.189
38.850,-0.504
38.855,0.133
38.860,0.432
38.865,0.482
38.870,0.421
38.875,0.345
38.880,0.274
38.885,0.196
38.890,0.179
38.895,0.188
38.900,0.159
38.905,0.141
38.910,0.148
38.915,0.134
38.920,0.110
38.925,0.106
38.930,0.101
38.935,0.082
38.940,0.074
38.945,0.072
38.950,0.061
38.955,0.052
38.960,0.045
38.965,0.035
38.970,0.025
38.975,0.017
38.980,0.010
38.985,0.002
38.990,-0.009
38.995,-0.016
39.000,-0.031
39.005,-0.046
39.010,-0.056
39.015,-0.072
39.020,-0.087
39.025,-0.103
39.030,-0.121
39.035,-0.139
39.040,-0.161
39.045,-0.184
39.050,-0.205
39.055,-0.226
39.060,-0.245
39.065,-0.264
39.070,-0.284
39.075,-0.299
39.080,-0.314
39.085,-0.325
39.090,-0.329
39.095,-0.327
39.100,-0.309
39.105,-0.282
39.110,-0.250
39.115,-0.204
39.120,-0.153
39.125,-0.089
39.130,-0.017
39.135,0.055
39.140,0.132
39.145,0.206
39.150,0.275
39.155,0.338
39.160,0.386
39.165,0.419
39.170,0.444
39.175,0.457
39.180,0.465
39.185,0.471
39.190,0.466
39.195,0.461
39.200,0.446
39.205,0.428
39.210,0.408
39.215,0.389
39.220,0.376
39.225,0.357
39.230,0.338
39.235,0.320
39.240,0.301
39.245,0.286
39.250,0.273
39.255,0.256
39.260,0.239
39.265,0.224
39.270,0.208
39.275,0.192
39.280,0.174
39.285,0.159
39.290,0.150
39.295,0.137
39.300,0.129
39.305,0.117
39.310,0.105
39.315,0.096
39.320,0.083
39.325,0.075
39.330,0.069
39.335,0.059
39.340,0.052
39.345,0.044
39.350,0.038
39.355,0.034
39.360,0.029
39.365,0.023
39.370,0.018
39.375,0.009
39.380,0.002
39.385,-0.001
39.390,-0.007
39.395,-0.010
39.400,-0.020
39.405,-0.028
39.410,-0.032
39.415,-0.036
39.420,-0.035
39.425,-0.040
39.430,-0.041
39.435,-0.043
39.440,-0.050
39.445,-0.054
39.450,-0.058
39.455,-0.061
39.460,-0.060
39.465,-0.061
39.470,-0.066
39.475,-0.070
39.480,-0.077
39.485,-0.082
39.490,-0.081
39.495,-0.083
39.500,-0.083
39.505,-0.091
39.510,-0.106
39.515,-0.117
39.520,-0.125
39.525,-0.124
39.530,-0.128
39.535,-0.145
39.540,-0.160
39.545,-0.158
39.550,-0.146
39.555,-0.128
39.560,-0.105
39.565,-0.087
39.570,-0.076
39.575,-0.075
39.580,-0.071
39.585,-0.059
39.590,-0.049
39.595,-0.043
39.600,-0.043
39.605,-0.042
39.610,-0.041
39.615,-0.041
39.620,-0.038
39.625,-0.039
39.630,-0.043
39.635,-0.047
39.640,-0.050
39.645,-0.051
39.650,-0.049
39.655,-0.025
39.660,0.034
39.665,0.081
39.670,0.032
39.675,-0.194
39.680,-0.626
39.685,-1.120
39.690,-1.491
39.695,-1.585
39.700,-1.188
39.705,-0.414
39.710,0.220
39.715,0.461
39.720,0.468
39.725,0.421
39.730,0.380
39.735,0.299
39.740,0.198
39.745,0.183
39.750,0.198
39.755,0.156
39.760,0.129
39.765,0.142
39.770,0.128
39.775,0.104
39.780,0.108
39.785,0.100
39.790,0.080
39.795,0.079
39.800,0.076
39.805,0.062
39.810,0.051
39.815,0.047
39.820,0.039
39.825,0.027
39.830,0.024
39.835,0.012
39.840,-0.004
39.845,-0.009
39.850,-0.021
39.855,-0.038
39.860,-0.048
39.865,-0.060
39.870,-0.073
39.875,-0.088
39.880,-0.112
39.885,-0.131
39.890,-0.148
39.895,-0.171
39.900,-0.189
39.905,-0.212
39.910,-0.236
39.915,-0.258
39.920,-0.280
39.925,-0.302
39.930,-0.320
39.935,-0.327
39.940,-0.331
39.945,-0.332
39.950,-0.324
39.955,-0.310
39.960,-0.284
39.965,-0.248
39.970,-0.203
39.975,-0.148
39.980,-0.079
39.985,-0.002
39.990,0.077
39.995,0.160
40.000,0.235
40.005,0.302
40.010,0.353
40.015,0.397
40.020,0.438
40.025,0.460
40.030,0.469
40.035,0.469
40.040,0.467
40.045,0.464
40.050,0.456
40.055,0.445
40.060,0.430
40.065,0.410
40.070,0.389
40.075,0.370
40.080,0.352
40.085,0.333
40.090,0.312
40.095,0.294
40.100,0.280
40.105,0.263
40.110,0.249
40.115,0.233
40.120,0.212
40.125,0.196
40.130,0.179
40.135,0.164
40.140,0.155
40.145,0.145
40.150,0.135
40.155,0.125
40.160,0.113
40.165,0.104
40.170,0.097
40.175,0.083
40.180,0.073
40.185,0.064
40.190,0.056
40.195,0.049
40.200,0.036
40.205,0.030
40.210,0.024
40.215,0.021
40.220,0.019
40.225,0.010
40.230,0.005
40.235,-0.001
40.240,-0.007
40.245,-0.011
40.250,-0.016
40.255,-0.020
40.260,-0.025
40.265,-0.032
40.270,-0.035
40.275,-0.034
40.280,-0.037
40.285,-0.039
40.290,-0.043
40.295,-0.050
40.300,-0.052
40.305,-0.060
40.310,-0.064
40.315,-0.067
40.320,-0.073
40.325,-0.075
40.330,-0.081
40.335,-0.088
40.340,-0.104
40.345,-0.115
40.350,-0.116
40.355,-0.117
40.360,-0.125
40.365,-0.144
40.370,-0.153
40.375,-0.146
40.380,-0.131
40.385,-0.111
40.390,-0.092
40.395,-0.081
40.400,-0.079
40.405,-0.074
40.410,-0.069
40.415,-0.055
40.420,-0.045
40.425,-0.045
40.430,-0.041
40.435,-0.044
40.440,-0.050
40.445,-0.050
40.450,-0.051
40.455,-0.053
40.460,-0.055
40.465,-0.056
40.470,-0.055
40.475,-0.053
40.480,-0.048
40.485,-0.008
40.490,0.054
40.495,0.066
40.500,-0.061
40.505,-0.393
40.510,-0.875
40.515,-1.340
40.520,-1.605
40.525,-1.471
40.530,-0.847
40.535,-0.078
40.540,0.361
40.545,0.463
40.550,0.438
40.555,0.392
40.560,0.341
40.565,0.246
40.570,0.177
40.575,0.186
40.580,0.176
40.585,0.137
40.590,0.137
40.595,0.141
40.600,0.121
40.605,0.116
40.610,0.116
40.615,0.103
40.620,0.091
40.625,0.089
40.630,0.081
40.635,0.066
40.640,0.062
40.645,0.055
40.650,0.039
40.655,0.033
40.660,0.028
40.665,0.014
40.670,0.005
40.675,-0.002
40.680,-0.016
40.685,-0.030
40.690,-0.045
40.695,-0.060
40.700,-0.073
40.705,-0.091
40.710,-0.108
40.715,-0.130
40.720,-0.152
40.725,-0.170
40.730,-0.193
40.735,-0.216
40.740,-0.239
40.745,-0.262
40.750,-0.280
40.755,-0.301
40.760,-0.318
40.765,-0.326
40.770,-0.328
40.775,-0.326
40.780,-0.312
40.785,-0.294
40.790,-0.268
40.795,-0.230
40.800,-0.181
40.805,-0.117
40.810,-0.052
40.815,0.024
40.820,0.104
40.825,0.173
40.830,0.237
40.835,0.293
40.840,0.346
40.845,0.385
40.850,0.409
40.855,0.430
40.860,0.442
40.865,0.449
40.870,0.451
40.875,0.440
40.880,0.426
40.885,0.418
40.890,0.403
40.895,0.386
40.900,0.364
40.905,0.339
40.910,0.329
40.915,0.314
40.920,0.295
40.925,0.279
40.930,0.257
40.935,0.246
40.940,0.235
40.945,0.218
40.950,0.209
40.955,0.191
40.960,0.168
40.965,0.166
40.970,0.151
40.975,0.141
40.980,0.152
40.985,0.132
40.990,0.119
40.995,0.129
41.000,0.135
41.005,0.166
41.010,0.173
41.015,0.151
41.020,0.135
41.025,0.094
41.030,0.048
41.035,0.023
41.040,0.037
41.045,0.068
41.050,0.055
41.055,0.002
41.060,-0.029
41.065,-0.029
41.070,-0.018
41.075,-0.037
41.080,-0.078
41.085,-0.048
41.090,-0.015
41.095,-0.033
41.100,-0.063
41.105,-0.096
41.110,-0.081
41.115,-0.055
41.120,-0.065
41.125,-0.081
41.130,-0.094
41.135,-0.098
41.140,-0.109
41.145,-0.110
41.150,-0.106
41.155,-0.116
41.160,-0.136
41.165,-0.154
41.170,-0.146
41.175,-0.154
41.180,-0.185
41.185,-0.187
41.190,-0.167
41.195,-0.144
41.200,-0.124
41.205,-0.113
41.210,-0.110
41.215,-0.094
41.220,-0.082
41.225,-0.077
41.230,-0.062
41.235,-0.059
41.240,-0.049
41.245,-0.038
41.250,-0.047
41.255,-0.043
41.260,-0.030
41.265,-0.033
41.270,-0.047
41.275,-0.053
41.280,-0.049
41.285,-0.048
41.290,-0.049
41.295,-0.034
41.300,0.005
41.305,0.056
41.310,0.064
41.315,-0.065
41.320,-0.388
41.325,-0.860
41.330,-1.294
41.335,-1.492
41.340,-1.305
41.345,-0.701
41.350,-0.014
41.355,0.367
41.360,0.463
41.365,0.420
41.370,0.334
41.375,0.273
41.380,0.199
41.385,0.152
41.390,0.163
41.395,0.143
41.400,0.113
41.405,0.121
41.410,0.113
41.415,0.093
41.420,0.089
41.425,0.082
41.430,0.068
41.435,0.059
41.440,0.059
41.445,0.053
41.450,0.040
41.455,0.033
41.460,0.028
41.465,0.018
41.470,0.013
41.475,0.006
41.480,-0.008
41.485,-0.015
41.490,-0.026
41.495,-0.042
41.500,-0.056
41.505,-0.069
41.510,-0.075
41.515,-0.087
41.520,-0.100
41.525,-0.121
41.530,-0.140
41.535,-0.157
41.540,-0.188
41.545,-0.207
41.550,-0.225
41.555,-0.252
41.560,-0.272
41.565,-0.294
41.570,-0.314
41.575,-0.327
41.580,-0.336
41.585,-0.340
41.590,-0.331
41.595,-0.315
41.600,-0.294
41.605,-0.257
41.610,-0.214
41.615,-0.163
41.620,-0.104
41.625,-0.039
41.630,0.035
41.635,0.117
41.640,0.198
41.645,0.264
41.650,0.319
41.655,0.371
41.660,0.411
41.665,0.429
41.670,0.440
41.675,0.455
41.680,0.473
41.685,0.493
41.690,0.473
41.695,0.454
41.700,0.479
41.705,0.479
41.710,0.444
41.715,0.406
41.720,0.395
41.725,0.429
41.730,0.413
41.735,0.334
41.740,0.305
41.745,0.266
41.750,0.221
41.755,0.208
41.760,0.168
41.765,0.151
41.770,0.143
41.775,0.126
41.780,0.128
41.785,0.113
41.790,0.086
41.795,0.087
41.800,0.093
41.805,0.073
41.810,0.058
41.815,0.072
41.820,0.073
41.825,0.050
41.830,0.025
41.835,0.008
41.840,0.015
41.845,0.021
41.850,0.015
41.855,0.004
41.860,-0.002
41.865,-0.009
41.870,-0.031
41.875,-0.045
41.880,-0.049
41.885,-0.042
41.890,-0.033
41.895,-0.038
41.900,-0.048
41.905,-0.056
41.910,-0.069
41.915,-0.084
41.920,-0.077
41.925,-0.077
41.930,-0.086
41.935,-0.098
41.940,-0.119
41.945,-0.124
41.950,-0.130
41.955,-0.148
41.960,-0.161
41.965,-0.151
41.970,-0.130
41.975,-0.107
41.980,-0.084
41.985,-0.081
41.990,-0.077
41.995,-0.067
42.000,-0.062
42.005,-0.050
42.010,-0.039
42.015,-0.035
42.020,-0.036
42.025,-0.036
42.030,-0.032
42.035,-0.037
42.040,-0.039
42.045,-0.040
42.050,-0.043
42.055,-0.039
42.060,-0.041
42.065,-0.045
42.070,-0.041
42.075,-0.036
42.080,0.004
42.085,0.059
42.090,0.049
42.095,-0.098
42.100,-0.445
42.105,-0.910
42.110,-1.293
42.115,-1.428
42.120,-1.158
42.125,-0.517
42.130,0.108
42.135,0.414
42.140,0.461
42.145,0.389
42.150,0.299
42.155,0.232
42.160,0.163
42.165,0.138
42.170,0.149
42.175,0.121
42.180,0.098
42.185,0.108
42.190,0.098
42.195,0.076
42.200,0.075
42.205,0.071
42.210,0.051
42.215,0.045
42.220,0.042
42.225,0.033
42.230,0.025
42.235,0.018
42.240,0.010
42.245,-0.001
42.250,-0.006
42.255,-0.011
42.260,-0.021
42.265,-0.029
42.270,-0.040
42.275,-0.055
42.280,-0.065
42.285,-0.075
42.290,-0.090
42.295,-0.104
42.300,-0.120
42.305,-0.136
42.310,-0.152
42.315,-0.171
42.320,-0.189
42.325,-0.213
42.330,-0.237
42.335,-0.253
42.340,-0.273
42.345,-0.290
42.350,-0.305
42.355,-0.314
42.360,-0.316
42.365,-0.315
42.370,-0.308
42.375,-0.291
42.380,-0.267
42.385,-0.233
42.390,-0.186
42.395,-0.132
42.400,-0.068
42.405,0.005
42.410,0.081
42.415,0.158
42.420,0.226
42.425,0.289
42.430,0.344
42.435,0.388
42.440,0.422
42.445,0.441
42.450,0.454
42.455,0.459
42.460,0.456
42.465,0.450
42.470,0.441
42.475,0.427
42.480,0.410
42.485,0.392
42.490,0.373
42.495,0.357
42.500,0.337
42.505,0.318
42.510,0.303
42.515,0.284
42.520,0.268
42.525,0.250
42.530,0.233
42.535,0.221
42.540,0.203
42.545,0.190
42.550,0.179
42.555,0.166
42.560,0.154
42.565,0.141
42.570,0.129
42.575,0.119
42.580,0.109
42.585,0.097
42.590,0.088
42.595,0.077
42.600,0.070
42.605,0.062
42.610,0.052
42.615,0.045
42.620,0.036
42.625,0.032
42.630,0.028
42.635,0.019
42.640,0.011
42.645,0.002
42.650,-0.001
42.655,-0.007
42.660,-0.015
42.665,-0.017
42.670,-0.021
42.675,-0.027
42.680,-0.031
42.685,-0.035
42.690,-0.041
42.695,-0.045
42.700,-0.054
42.705,-0.063
42.710,-0.065
42.715,-0.072
42.720,-0.078
42.725,-0.093
42.730,-0.105
42.735,-0.110
42.740,-0.120
42.745,-0.133
42.750,-0.152
42.755,-0.156
42.760,-0.139
42.765,-0.119
42.770,-0.095
42.775,-0.079
42.780,-0.073
42.785,-0.065
42.790,-0.059
42.795,-0.053
42.800,-0.042
42.805,-0.037
42.810,-0.036
42.815,-0.034
42.820,-0.038
42.825,-0.039
42.830,-0.041
42.835,-0.046
42.840,-0.045
42.845,-0.046
42.850,-0.046
42.855,-0.049
42.860,-0.053
42.865,-0.045
42.870,-0.006
42.875,0.049
42.880,0.047
42.885,-0.100
42.890,-0.447
42.895,-0.925
42.900,-1.339
42.905,-1.500
42.910,-1.244
42.915,-0.591
42.920,0.058
42.925,0.379
42.930,0.455
42.935,0.414
42.940,0.336
42.945,0.261
42.950,0.171
42.955,0.138
42.960,0.151
42.965,0.124
42.970,0.099
42.975,0.107
42.980,0.094
42.985,0.072
42.990,0.072
42.995,0.069
43.000,0.052
43.005,0.045
43.010,0.045
43.015,0.038
43.020,0.025
43.025,0.022
43.030,0.012
43.035,0.003
43.040,0.000
43.045,-0.011
43.050,-0.021
43.055,-0.031
43.060,-0.041
43.065,-0.050
43.070,-0.065
43.075,-0.081
43.080,-0.093
43.085,-0.106
43.090,-0.121
43.095,-0.134
43.100,-0.154
43.105,-0.175
43.110,-0.194
43.115,-0.218
43.120,-0.237
43.125,-0.256
43.130,-0.273
43.135,-0.288
43.140,-0.304
43.145,-0.313
43.150,-0.318
43.155,-0.317
43.160,-0.313
43.165,-0.305
43.170,-0.279
43.175,-0.243
43.180,-0.199
43.185,-0.148
43.190,-0.089
43.195,-0.019
43.200,0.060
43.205,0.137
43.210,0.214
43.215,0.284
43.220,0.339
43.225,0.388
43.230,0.421
43.235,0.444
43.240,0.459
43.245,0.464
43.250,0.468
43.255,0.461
43.260,0.447
43.265,0.431
43.270,0.415
43.275,0.401
43.280,0.384
43.285,0.366
43.290,0.348
43.295,0.330
43.300,0.312
43.305,0.295
43.310,0.279
43.315,0.262
43.320,0.246
43.325,0.227
43.330,0.213
43.335,0.198
43.340,0.185
43.345,0.175
43.350,0.160
43.355,0.146
43.360,0.130
43.365,0.117
43.370,0.112
43.375,0.107
43.380,0.100
43.385,0.093
43.390,0.085
43.395,0.076
43.400,0.065
43.405,0.053
43.410,0.046
43.415,0.041
43.420,0.030
43.425,0.022
43.430,0.014
43.435,0.011
43.440,0.011
43.445,0.005
43.450,0.003
43.455,-0.001
43.460,-0.008
43.465,-0.016
43.470,-0.027
43.475,-0.034
43.480,-0.038
43.485,-0.051
43.490,-0.072
43.495,-0.083
43.500,-0.088
43.505,-0.097
43.510,-0.114
43.515,-0.134
43.520,-0.138
43.525,-0.130
43.530,-0.113
43.535,-0.096
43.540,-0.079
43.545,-0.068
43.550,-0.065
43.555,-0.059
43.560,-0.054
43.565,-0.047
43.570,-0.041
43.575,-0.042
43.580,-0.040
43.585,-0.038
43.590,-0.041
43.595,-0.043
43.600,-0.044
43.605,-0.049
43.610,-0.050
43.615,-0.050
43.620,-0.054
43.625,-0.053
43.630,-0.058
43.635,-0.040
43.640,0.022
43.645,0.064
43.650,0.009
43.655,-0.235
43.660,-0.678
43.665,-1.164
43.670,-1.509
43.675,-1.539
43.680,-1.065
43.685,-0.283
43.690,0.270
43.695,0.448
43.700,0.439
43.705,0.389
43.710,0.344
43.715,0.244
43.720,0.146
43.725,0.137
43.730,0.138
43.735,0.092
43.740,0.082
43.745,0.103
43.750,0.086
43.755,0.071
43.760,0.074
43.765,0.060
43.770,0.041
43.775,0.037
43.780,0.037
43.785,0.029
43.790,0.020
43.795,0.013
43.800,0.003
43.805,-0.011
43.810,-0.020
43.815,-0.030
43.820,-0.038
43.825,-0.041
43.830,-0.056
43.835,-0.069
43.840,-0.072
43.845,-0.082
43.850,-0.102
43.855,-0.124
43.860,-0.140
43.865,-0.155
43.870,-0.177
43.875,-0.198
43.880,-0.218
43.885,-0.242
43.890,-0.263
43.895,-0.282
43.900,-0.303
43.905,-0.319
43.910,-0.336
43.915,-0.344
43.920,-0.343
43.925,-0.343
43.930,-0.329
43.935,-0.306
43.940,-0.277
43.945,-0.235
43.950,-0.186
43.955,-0.125
43.960,-0.047
43.965,0.037
43.970,0.119
43.975,0.195
43.980,0.262
43.985,0.325
43.990,0.379
43.995,0.418
44.000,0.443
44.005,0.460
44.010,0.474
44.015,0.478
44.020,0.471
44.025,0.461
44.030,0.446
44.035,0.432
44.040,0.416
44.045,0.396
44.050,0.380
44.055,0.357
44.060,0.336
44.065,0.319
44.070,0.300
44.075,0.282
44.080,0.266
44.085,0.252
44.090,0.238
44.095,0.223
44.100,0.208
44.105,0.194
44.110,0.178
44.115,0.164
44.120,0.152
44.125,0.138
44.130,0.128
44.135,0.117
44.140,0.110
44.145,0.106
44.150,0.095
44.155,0.083
44.160,0.069
44.165,0.061
44.170,0.055
44.175,0.048
44.180,0.041
44.185,0.036
44.190,0.030
44.195,0.025
44.200,0.019
44.205,0.011
44.210,0.007
44.215,0.001
44.220,-0.008
44.225,-0.012
44.230,-0.018
44.235,-0.023
44.240,-0.028
44.245,-0.036
44.250,-0.043
44.255,-0.050
44.260,-0.054
44.265,-0.066
44.270,-0.084
44.275,-0.093
44.280,-0.093
44.285,-0.095
44.290,-0.108
44.295,-0.129
44.300,-0.142
44.305,-0.138
44.310,-0.129
44.315,-0.110
44.320,-0.087
44.325,-0.079
44.330,-0.073
44.335,-0.071
44.340,-0.067
44.345,-0.055
44.350,-0.046
44.355,-0.041
44.360,-0.043
44.365,-0.047
44.370,-0.049
44.375,-0.050
44.380,-0.052
44.385,-0.055
44.390,-0.058
44.395,-0.059
44.400,-0.060
44.405,-0.061
44.410,-0.057
44.415,-0.034
44.420,0.021
44.425,0.059
44.430,-0.010
44.435,-0.260
44.440,-0.705
44.445,-1.196
44.450,-1.544
44.455,-1.579
44.460,-1.114
44.465,-0.334
44.470,0.241
44.475,0.441
44.480,0.442
44.485,0.390
44.490,0.338
44.495,0.250
44.500,0.159
44.505,0.153
44.510,0.155
44.515,0.115
44.520,0.106
44.525,0.116
44.530,0.095
44.535,0.074
44.540,0.080
44.545,0.074
44.550,0.055
44.555,0.055
44.560,0.049
44.565,0.034
44.570,0.026
44.575,0.021
44.580,0.011
44.585,0.001
44.590,-0.005
44.595,-0.014
44.600,-0.024
44.605,-0.034
44.610,-0.042
44.615,-0.056
44.620,-0.070
44.625,-0.080
44.630,-0.098
44.635,-0.113
44.640,-0.131
44.645,-0.149
44.650,-0.166
44.655,-0.187
44.660,-0.207
44.665,-0.230
44.670,-0.253
44.675,-0.273
44.680,-0.292
44.685,-0.309
44.690,-0.320
44.695,-0.328
44.700,-0.330
44.705,-0.326
44.710,-0.317
44.715,-0.297
44.720,-0.268
44.725,-0.231
44.730,-0.179
44.735,-0.121
44.740,-0.051
44.745,0.024
44.750,0.099
44.755,0.177
44.760,0.245
44.765,0.308
44.770,0.362
44.775,0.404
44.780,0.435
44.785,0.455
44.790,0.465
44.795,0.469
44.800,0.467
44.805,0.458
44.810,0.447
44.815,0.433
44.820,0.417
44.825,0.401
44.830,0.381
44.835,0.364
44.840,0.345
44.845,0.327
44.850,0.311
44.855,0.291
44.860,0.275
44.865,0.257
44.870,0.239
44.875,0.225
44.880,0.210
44.885,0.196
44.890,0.182
44.895,0.167
44.900,0.154
44.905,0.143
44.910,0.131
44.915,0.121
44.920,0.110
44.925,0.099
44.930,0.093
44.935,0.082
44.940,0.075
44.945,0.067
44.950,0.059
44.955,0.053
44.960,0.043
44.965,0.037
44.970,0.031
44.975,0.024
44.980,0.019
44.985,0.012
44.990,0.005
44.995,0.000
45.000,-0.006
45.005,-0.012
45.010,-0.016
45.015,-0.022
45.020,-0.026
45.025,-0.030
45.030,-0.038
45.035,-0.043
45.040,-0.052
45.045,-0.057
45.050,-0.061
45.055,-0.077
45.060,-0.092
45.065,-0.100
45.070,-0.101
45.075,-0.105
