'Elapsed time','ECG'
'seconds','mV'
0.000,-0.173
0.005,-0.216
0.010,-0.259
0.015,-0.213
0.020,-0.114
0.025,-0.132
0.030,-0.154
0.035,-0.083
0.040,-0.068
0.045,-0.090
0.050,-0.057
0.055,-0.036
0.060,-0.062
0.065,-0.055
0.070,-0.033
0.075,-0.046
0.080,-0.051
0.085,-0.041
0.090,-0.041
0.095,-0.041
0.100,-0.032
0.105,-0.029
0.110,-0.037
0.115,-0.035
0.120,-0.030
0.125,-0.037
0.130,-0.042
0.135,-0.036
0.140,-0.026
0.145,-0.026
0.150,-0.032
0.155,-0.030
0.160,-0.024
0.165,-0.020
0.170,-0.027
0.175,-0.040
0.180,-0.049
0.185,-0.062
0.190,-0.071
0.195,-0.072
0.200,-0.075
0.205,-0.088
0.210,-0.115
0.215,-0.135
0.220,-0.144
0.225,-0.146
0.230,-0.133
0.235,-0.113
0.240,-0.087
0.245,-0.061
0.250,-0.027
0.255,0.016
0.260,0.045
0.265,0.073
0.270,0.110
0.275,0.139
0.280,0.150
0.285,0.146
0.290,0.144
0.295,0.139
0.300,0.129
0.305,0.128
0.310,0.128
0.315,0.127
0.320,0.128
0.325,0.127
0.330,0.116
0.335,0.102
0.340,0.107
0.345,0.115
0.350,0.084
0.355,-0.008
0.360,-0.143
0.365,-0.293
0.370,-0.442
0.375,-0.523
0.380,-0.388
0.385,-0.097
0.390,0.190
0.395,0.487
0.400,0.765
0.405,0.954
0.410,0.961
0.415,0.760
0.420,0.515
0.425,0.328
0.430,0.159
0.435,0.029
0.440,-0.022
0.445,-0.052
0.450,-0.090
0.455,-0.110
0.460,-0.112
0.465,-0.110
0.470,-0.113
0.475,-0.128
0.480,-0.138
0.485,-0.133
0.490,-0.126
0.495,-0.130
0.500,-0.133
0.505,-0.130
0.510,-0.134
0.515,-0.135
0.520,-0.134
0.525,-0.137
0.530,-0.140
0.535,-0.142
0.540,-0.136
0.545,-0.130
0.550,-0.133
0.555,-0.141
0.560,-0.153
0.565,-0.154
0.570,-0.142
0.575,-0.147
0.580,-0.163
0.585,-0.175
0.590,-0.181
0.595,-0.192
0.600,-0.202
0.605,-0.201
0.610,-0.202
0.615,-0.199
0.620,-0.182
0.625,-0.166
0.630,-0.160
0.635,-0.161
0.640,-0.161
0.645,-0.155
0.650,-0.150
0.655,-0.146
0.660,-0.138
0.665,-0.126
0.670,-0.113
0.675,-0.091
0.680,-0.064
0.685,-0.040
0.690,-0.012
0.695,0.020
0.700,0.049
0.705,0.073
0.710,0.094
0.715,0.106
0.720,0.113
0.725,0.125
0.730,0.138
0.735,0.138
0.740,0.129
0.745,0.121
0.750,0.120
0.755,0.126
0.760,0.123
0.765,0.117
0.770,0.112
0.775,0.104
0.780,0.099
0.785,0.098
0.790,0.098
0.795,0.088
0.800,0.073
0.805,0.072
0.810,0.074
0.815,0.071
0.820,0.067
0.825,0.067
0.830,0.075
0.835,0.074
0.840,0.066
0.845,0.057
0.850,0.057
0.855,0.057
0.860,0.036
0.865,0.019
0.870,0.012
0.875,0.001
0.880,-0.005
0.885,-0.015
0.890,-0.030
0.895,-0.053
0.900,-0.084
0.905,-0.099
0.910,-0.100
0.915,-0.085
0.920,-0.063
0.925,-0.044
0.930,-0.023
0.935,0.004
0.940,0.037
0.945,0.065
0.950,0.091
0.955,0.126
0.960,0.160
0.965,0.179
0.970,0.170
0.975,0.152
0.980,0.151
0.985,0.159
0.990,0.159
0.995,0.146
1.000,0.133
1.005,0.129
1.010,0.124
1.015,0.122
1.020,0.124
1.025,0.118
1.030,0.122
1.035,0.106
1.040,0.014
1.045,-0.135
1.050,-0.308
1.055,-0.473
1.060,-0.564
1.065,-0.452
1.070,-0.162
1.075,0.145
1.080,0.444
1.085,0.723
1.090,0.951
1.095,1.014
1.100,0.841
1.105,0.596
1.110,0.378
1.115,0.183
1.120,0.040
1.125,-0.037
1.130,-0.076
1.135,-0.109
1.140,-0.129
1.145,-0.132
1.150,-0.140
1.155,-0.148
1.160,-0.140
1.165,-0.139
1.170,-0.147
1.175,-0.151
1.180,-0.152
1.185,-0.146
1.190,-0.139
1.195,-0.143
1.200,-0.149
1.205,-0.152
1.210,-0.156
1.215,-0.151
1.220,-0.147
1.225,-0.156
1.230,-0.165
1.235,-0.165
1.240,-0.167
1.245,-0.171
1.250,-0.174
1.255,-0.176
1.260,-0.185
1.265,-0.192
1.270,-0.195
1.275,-0.196
1.280,-0.195
1.285,-0.203
1.290,-0.210
1.295,-0.211
1.300,-0.207
1.305,-0.195
1.310,-0.190
1.315,-0.185
1.320,-0.176
1.325,-0.173
1.330,-0.168
1.335,-0.164
1.340,-0.157
1.345,-0.147
1.350,-0.136
1.355,-0.116
1.360,-0.096
1.365,-0.078
1.370,-0.056
1.375,-0.031
1.380,-0.009
1.385,0.014
1.390,0.045
1.395,0.073
1.400,0.090
1.405,0.101
1.410,0.103
1.415,0.108
1.420,0.118
1.425,0.118
1.430,0.116
1.435,0.118
1.440,0.116
1.445,0.111
1.450,0.104
1.455,0.095
1.460,0.084
1.465,0.079
1.470,0.073
1.475,0.067
1.480,0.067
1.485,0.063
1.490,0.063
1.495,0.066
1.500,0.061
1.505,0.055
1.510,0.045
1.515,0.046
1.520,0.060
1.525,0.063
1.530,0.055
1.535,0.044
1.540,0.032
1.545,0.015
1.550,-0.007
1.555,-0.015
1.560,-0.010
1.565,-0.008
1.570,-0.025
1.575,-0.062
1.580,-0.083
1.585,-0.092
1.590,-0.095
1.595,-0.081
1.600,-0.063
1.605,-0.045
1.610,-0.023
1.615,0.010
1.620,0.051
1.625,0.080
1.630,0.108
1.635,0.140
1.640,0.167
1.645,0.173
1.650,0.165
1.655,0.167
1.660,0.167
1.665,0.159
1.670,0.154
1.675,0.147
1.680,0.142
1.685,0.135
1.690,0.127
1.695,0.123
1.700,0.120
1.705,0.124
1.710,0.128
1.715,0.087
1.720,-0.023
1.725,-0.183
1.730,-0.353
1.735,-0.504
1.740,-0.576
1.745,-0.434
1.750,-0.126
1.755,0.187
1.760,0.506
1.765,0.788
1.770,0.972
1.775,0.974
1.780,0.764
1.785,0.513
1.790,0.326
1.795,0.166
1.800,0.042
1.805,-0.017
1.810,-0.059
1.815,-0.098
1.820,-0.111
1.825,-0.115
1.830,-0.121
1.835,-0.128
1.840,-0.135
1.845,-0.142
1.850,-0.144
1.855,-0.142
1.860,-0.145
1.865,-0.145
1.870,-0.141
1.875,-0.143
1.880,-0.143
1.885,-0.140
1.890,-0.139
1.895,-0.140
1.900,-0.146
1.905,-0.148
1.910,-0.151
1.915,-0.155
1.920,-0.156
1.925,-0.163
1.930,-0.169
1.935,-0.173
1.940,-0.178
1.945,-0.185
1.950,-0.195
1.955,-0.206
1.960,-0.213
1.965,-0.213
1.970,-0.211
1.975,-0.213
1.980,-0.214
1.985,-0.215
1.990,-0.209
1.995,-0.197
2.000,-0.191
2.005,-0.184
2.010,-0.178
2.015,-0.175
2.020,-0.166
2.025,-0.157
2.030,-0.146
2.035,-0.128
2.040,-0.107
2.045,-0.080
2.050,-0.052
2.055,-0.023
2.060,0.002
2.065,0.027
2.070,0.053
2.075,0.070
2.080,0.084
2.085,0.098
2.090,0.108
2.095,0.114
2.100,0.114
2.105,0.115
2.110,0.113
2.115,0.114
2.120,0.120
2.125,0.121
2.130,0.118
2.135,0.113
2.140,0.103
2.145,0.095
2.150,0.092
2.155,0.093
2.160,0.090
2.165,0.081
2.170,0.077
2.175,0.072
2.180,0.067
2.185,0.065
2.190,0.062
2.195,0.061
2.200,0.059
2.205,0.061
2.210,0.060
2.215,0.056
2.220,0.048
2.225,0.033
2.230,0.013
2.235,-0.008
2.240,-0.016
2.245,-0.013
2.250,-0.019
2.255,-0.040
2.260,-0.074
2.265,-0.097
2.270,-0.104
2.275,-0.100
2.280,-0.080
2.285,-0.061
2.290,-0.047
2.295,-0.026
2.300,0.007
2.305,0.048
2.310,0.079
2.315,0.105
2.320,0.134
2.325,0.155
2.330,0.162
2.335,0.159
2.340,0.156
2.345,0.153
2.350,0.147
2.355,0.145
2.360,0.141
2.365,0.132
2.370,0.127
2.375,0.120
2.380,0.113
2.385,0.109
2.390,0.112
2.395,0.113
2.400,0.064
2.405,-0.055
2.410,-0.219
2.415,-0.385
2.420,-0.520
2.425,-0.568
2.430,-0.393
2.435,-0.069
2.440,0.251
2.445,0.578
2.450,0.838
2.455,0.967
2.460,0.915
2.465,0.687
2.470,0.452
2.475,0.279
2.480,0.123
2.485,0.012
2.490,-0.032
2.495,-0.067
2.500,-0.102
2.505,-0.112
2.510,-0.116
2.515,-0.125
2.520,-0.129
2.525,-0.134
2.530,-0.138
2.535,-0.136
2.540,-0.138
2.545,-0.141
2.550,-0.143
2.555,-0.142
2.560,-0.142
2.565,-0.140
2.570,-0.139
2.575,-0.144
2.580,-0.145
2.585,-0.144
2.590,-0.145
2.595,-0.147
2.600,-0.154
2.605,-0.159
2.610,-0.163
2.615,-0.169
2.620,-0.174
2.625,-0.182
2.630,-0.188
2.635,-0.193
2.640,-0.198
2.645,-0.206
2.650,-0.214
2.655,-0.214
2.660,-0.215
2.665,-0.217
2.670,-0.211
2.675,-0.206
2.680,-0.199
2.685,-0.192
2.690,-0.186
2.695,-0.178
2.700,-0.171
2.705,-0.164
2.710,-0.156
2.715,-0.144
2.720,-0.121
2.725,-0.099
2.730,-0.076
2.735,-0.048
2.740,-0.021
2.745,0.006
2.750,0.034
2.755,0.060
2.760,0.077
2.765,0.090
2.770,0.103
2.775,0.112
2.780,0.118
2.785,0.121
2.790,0.121
2.795,0.122
2.800,0.123
2.805,0.126
2.810,0.125
2.815,0.122
2.820,0.118
2.825,0.111
2.830,0.107
2.835,0.103
2.840,0.096
2.845,0.090
2.850,0.085
2.855,0.081
2.860,0.077
2.865,0.072
2.870,0.072
2.875,0.070
2.880,0.067
2.885,0.065
2.890,0.061
2.895,0.058
2.900,0.057
2.905,0.054
2.910,0.043
2.915,0.023
2.920,0.004
2.925,-0.013
2.930,-0.017
2.935,-0.016
2.940,-0.026
2.945,-0.048
2.950,-0.076
2.955,-0.093
2.960,-0.101
2.965,-0.099
2.970,-0.079
2.975,-0.063
2.980,-0.047
2.985,-0.022
2.990,0.011
2.995,0.051
3.000,0.084
3.005,0.114
3.010,0.141
3.015,0.154
3.020,0.157
3.025,0.153
3.030,0.152
3.035,0.149
3.040,0.140
3.045,0.135
3.050,0.131
3.055,0.127
3.060,0.118
3.065,0.105
3.070,0.102
3.075,0.096
3.080,0.100
3.085,0.099
3.090,0.038
3.095,-0.088
3.100,-0.248
3.105,-0.399
3.110,-0.522
3.115,-0.545
3.120,-0.341
3.125,-0.008
3.130,0.327
3.135,0.652
3.140,0.880
3.145,0.967
3.150,0.874
3.155,0.627
3.160,0.402
3.165,0.243
3.170,0.101
3.175,0.003
3.180,-0.041
3.185,-0.077
3.190,-0.107
3.195,-0.119
3.200,-0.126
3.205,-0.128
3.210,-0.129
3.215,-0.135
3.220,-0.134
3.225,-0.138
3.230,-0.148
3.235,-0.148
3.240,-0.143
3.245,-0.137
3.250,-0.131
3.255,-0.129
3.260,-0.134
3.265,-0.142
3.270,-0.146
3.275,-0.147
3.280,-0.150
3.285,-0.158
3.290,-0.161
3.295,-0.155
3.300,-0.158
3.305,-0.169
3.310,-0.176
3.315,-0.181
3.320,-0.183
3.325,-0.191
3.330,-0.204
3.335,-0.211
3.340,-0.216
3.345,-0.215
3.350,-0.210
3.355,-0.207
3.360,-0.207
3.365,-0.211
3.370,-0.208
3.375,-0.203
3.380,-0.196
3.385,-0.186
3.390,-0.177
3.395,-0.169
3.400,-0.160
3.405,-0.139
3.410,-0.113
3.415,-0.094
3.420,-0.068
3.425,-0.039
3.430,-0.010
3.435,0.022
3.440,0.038
3.445,0.055
3.450,0.079
3.455,0.099
3.460,0.112
3.465,0.118
3.470,0.125
3.475,0.130
3.480,0.136
3.485,0.136
3.490,0.125
3.495,0.121
3.500,0.120
3.505,0.120
3.510,0.114
3.515,0.099
3.520,0.104
3.525,0.116
3.530,0.108
3.535,0.099
3.540,0.093
3.545,0.091
3.550,0.090
3.555,0.080
3.560,0.069
3.565,0.065
3.570,0.064
3.575,0.057
3.580,0.055
3.585,0.053
3.590,0.050
3.595,0.055
3.600,0.054
3.605,0.037
3.610,0.013
3.615,-0.001
3.620,-0.005
3.625,-0.013
3.630,-0.024
3.635,-0.038
3.640,-0.069
3.645,-0.094
3.650,-0.104
3.655,-0.112
3.660,-0.105
3.665,-0.090
3.670,-0.068
3.675,-0.039
3.680,-0.008
3.685,0.025
3.690,0.061
3.695,0.096
3.700,0.121
3.705,0.146
3.710,0.157
3.715,0.151
3.720,0.144
3.725,0.137
3.730,0.137
3.735,0.142
3.740,0.141
3.745,0.138
3.750,0.130
3.755,0.123
3.760,0.114
3.765,0.105
3.770,0.112
3.775,0.120
3.780,0.095
3.785,0.019
3.790,-0.103
3.795,-0.249
3.800,-0.408
3.805,-0.531
3.810,-0.471
3.815,-0.215
3.820,0.079
3.825,0.368
3.830,0.656
3.835,0.896
3.840,0.977
3.845,0.829
3.850,0.582
3.855,0.374
3.860,0.198
3.865,0.054
3.870,-0.023
3.875,-0.067
3.880,-0.102
3.885,-0.121
3.890,-0.126
3.895,-0.130
3.900,-0.142
3.905,-0.148
3.910,-0.153
3.915,-0.153
3.920,-0.147
3.925,-0.147
3.930,-0.140
3.935,-0.136
3.940,-0.152
3.945,-0.158
3.950,-0.160
3.955,-0.159
3.960,-0.148
3.965,-0.147
3.970,-0.151
3.975,-0.149
3.980,-0.146
3.985,-0.148
3.990,-0.152
3.995,-0.155
4.000,-0.160
4.005,-0.167
4.010,-0.180
4.015,-0.188
4.020,-0.189
4.025,-0.197
4.030,-0.210
4.035,-0.208
4.040,-0.190
4.045,-0.179
4.050,-0.178
4.055,-0.181
4.060,-0.184
4.065,-0.182
4.070,-0.175
4.075,-0.173
4.080,-0.169
4.085,-0.153
4.090,-0.141
4.095,-0.139
4.100,-0.122
4.105,-0.095
4.110,-0.067
4.115,-0.038
4.120,-0.016
4.125,-0.001
4.130,0.014
4.135,0.034
4.140,0.060
4.145,0.088
4.150,0.104
4.155,0.107
4.160,0.111
4.165,0.114
4.170,0.109
4.175,0.102
4.180,0.105
4.185,0.115
4.190,0.118
4.195,0.120
4.200,0.112
4.205,0.099
4.210,0.089
4.215,0.073
4.220,0.065
4.225,0.061
4.230,0.061
4.235,0.069
4.240,0.063
4.245,0.054
4.250,0.054
4.255,0.051
4.260,0.050
4.265,0.048
4.270,0.048
4.275,0.052
4.280,0.049
4.285,0.044
4.290,0.038
4.295,0.028
4.300,0.011
4.305,-0.010
4.310,-0.018
4.315,-0.016
4.320,-0.022
4.325,-0.041
4.330,-0.069
4.335,-0.087
4.340,-0.097
4.345,-0.100
4.350,-0.084
4.355,-0.056
4.360,-0.038
4.365,-0.022
4.370,0.010
4.375,0.051
4.380,0.088
4.385,0.119
4.390,0.143
4.395,0.162
4.400,0.167
4.405,0.162
4.410,0.159
4.415,0.154
4.420,0.150
4.425,0.148
4.430,0.145
4.435,0.139
4.440,0.126
4.445,0.122
4.450,0.124
4.455,0.122
4.460,0.128
4.465,0.127
4.470,0.077
4.475,-0.046
4.480,-0.213
4.485,-0.383
4.490,-0.537
4.495,-0.581
4.500,-0.388
4.505,-0.060
4.510,0.251
4.515,0.559
4.520,0.834
4.525,0.998
4.530,0.960
4.535,0.735
4.540,0.492
4.545,0.305
4.550,0.143
4.555,0.026
4.560,-0.028
4.565,-0.068
4.570,-0.103
4.575,-0.117
4.580,-0.125
4.585,-0.133
4.590,-0.140
4.595,-0.140
4.600,-0.138
4.605,-0.140
4.610,-0.142
4.615,-0.148
4.620,-0.148
4.625,-0.145
4.630,-0.145
4.635,-0.141
4.640,-0.142
4.645,-0.140
4.650,-0.139
4.655,-0.143
4.660,-0.146
4.665,-0.145
4.670,-0.143
4.675,-0.148
4.680,-0.157
4.685,-0.162
4.690,-0.169
4.695,-0.174
4.700,-0.178
4.705,-0.185
4.710,-0.191
4.715,-0.196
4.720,-0.199
4.725,-0.204
4.730,-0.209
4.735,-0.206
4.740,-0.200
4.745,-0.196
4.750,-0.192
4.755,-0.187
4.760,-0.181
4.765,-0.177
4.770,-0.169
4.775,-0.161
4.780,-0.150
4.785,-0.131
4.790,-0.115
4.795,-0.095
4.800,-0.071
4.805,-0.048
4.810,-0.025
4.815,-0.002
4.820,0.023
4.825,0.046
4.830,0.065
4.835,0.086
4.840,0.099
4.845,0.108
4.850,0.113
4.855,0.113
4.860,0.116
4.865,0.115
4.870,0.111
4.875,0.110
4.880,0.107
4.885,0.104
4.890,0.096
4.895,0.087
4.900,0.084
4.905,0.082
4.910,0.079
4.915,0.073
4.920,0.067
4.925,0.063
4.930,0.059
4.935,0.056
4.940,0.052
4.945,0.053
4.950,0.058
4.955,0.058
4.960,0.055
4.965,0.052
4.970,0.046
4.975,0.034
4.980,0.015
4.985,-0.004
4.990,-0.016
4.995,-0.019
5.000,-0.019
5.005,-0.034
5.010,-0.064
5.015,-0.088
5.020,-0.097
5.025,-0.102
5.030,-0.096
5.035,-0.076
5.040,-0.060
5.045,-0.039
5.050,-0.007
5.055,0.028
5.060,0.066
5.065,0.101
5.070,0.130
5.075,0.152
5.080,0.160
5.085,0.161
5.090,0.161
5.095,0.158
5.100,0.152
5.105,0.148
5.110,0.146
5.115,0.138
5.120,0.132
5.125,0.127
5.130,0.118
5.135,0.112
5.140,0.110
5.145,0.117
5.150,0.100
5.155,0.008
5.160,-0.142
5.165,-0.311
5.170,-0.462
5.175,-0.567
5.180,-0.495
5.185,-0.216
5.190,0.102
5.195,0.424
5.200,0.725
5.205,0.924
5.210,0.960
5.215,0.793
5.220,0.545
5.225,0.350
5.230,0.191
5.235,0.058
5.240,-0.014
5.245,-0.053
5.250,-0.086
5.255,-0.104
5.260,-0.110
5.265,-0.120
5.270,-0.126
5.275,-0.126
5.280,-0.130
5.285,-0.132
5.290,-0.133
5.295,-0.134
5.300,-0.134
5.305,-0.135
5.310,-0.135
5.315,-0.136
5.320,-0.137
5.325,-0.139
5.330,-0.140
5.335,-0.139
5.340,-0.143
5.345,-0.147
5.350,-0.148
5.355,-0.152
5.360,-0.155
5.365,-0.161
5.370,-0.165
5.375,-0.170
5.380,-0.178
5.385,-0.186
5.390,-0.196
5.395,-0.201
5.400,-0.204
5.405,-0.212
5.410,-0.215
5.415,-0.212
5.420,-0.209
5.425,-0.206
5.430,-0.203
5.435,-0.193
5.440,-0.188
5.445,-0.185
5.450,-0.176
5.455,-0.169
5.460,-0.159
5.465,-0.146
5.470,-0.129
5.475,-0.107
5.480,-0.085
5.485,-0.059
5.490,-0.031
5.495,-0.005
5.500,0.023
5.505,0.046
5.510,0.066
5.515,0.083
5.520,0.099
5.525,0.110
5.530,0.118
5.535,0.122
5.540,0.120
5.545,0.121
5.550,0.123
5.555,0.122
5.560,0.120
5.565,0.115
5.570,0.112
5.575,0.109
5.580,0.103
5.585,0.100
5.590,0.095
5.595,0.089
5.600,0.086
5.605,0.081
5.610,0.076
5.615,0.072
5.620,0.069
5.625,0.065
5.630,0.062
5.635,0.063
5.640,0.061
5.645,0.060
5.650,0.061
5.655,0.057
5.660,0.048
5.665,0.031
5.670,0.011
5.675,-0.010
5.680,-0.022
5.685,-0.018
5.690,-0.022
5.695,-0.043
5.700,-0.071
5.705,-0.094
5.710,-0.101
5.715,-0.100
5.720,-0.086
5.725,-0.067
5.730,-0.053
5.735,-0.030
5.740,0.000
5.745,0.037
5.750,0.073
5.755,0.103
5.760,0.132
5.765,0.153
5.770,0.157
5.775,0.153
5.780,0.150
5.785,0.150
5.790,0.144
5.795,0.140
5.800,0.139
5.805,0.131
5.810,0.124
5.815,0.119
5.820,0.115
5.825,0.110
5.830,0.111
5.835,0.116
5.840,0.079
5.845,-0.029
5.850,-0.183
5.855,-0.348
5.860,-0.488
5.865,-0.563
5.870,-0.440
5.875,-0.133
5.880,0.193
5.885,0.528
5.890,0.799
5.895,0.940
5.900,0.920
5.905,0.710
5.910,0.465
5.915,0.290
5.920,0.139
5.925,0.021
5.930,-0.031
5.935,-0.065
5.940,-0.097
5.945,-0.112
5.950,-0.119
5.955,-0.127
5.960,-0.130
5.965,-0.133
5.970,-0.138
5.975,-0.137
5.980,-0.138
5.985,-0.139
5.990,-0.140
5.995,-0.142
6.000,-0.142
6.005,-0.144
6.010,-0.144
6.015,-0.144
6.020,-0.144
6.025,-0.147
6.030,-0.150
6.035,-0.151
6.040,-0.154
6.045,-0.158
6.050,-0.160
6.055,-0.166
6.060,-0.172
6.065,-0.178
6.070,-0.183
6.075,-0.190
6.080,-0.198
6.085,-0.202
6.090,-0.209
6.095,-0.214
6.100,-0.215
6.105,-0.215
6.110,-0.210
6.115,-0.204
6.120,-0.200
6.125,-0.195
6.130,-0.188
6.135,-0.179
6.140,-0.173
6.145,-0.168
6.150,-0.158
6.155,-0.146
6.160,-0.132
6.165,-0.112
6.170,-0.086
6.175,-0.056
6.180,-0.027
6.185,-0.001
6.190,0.020
6.195,0.039
6.200,0.058
6.205,0.071
6.210,0.087
6.215,0.105
6.220,0.117
6.225,0.123
6.230,0.127
6.235,0.133
6.240,0.132
6.245,0.130
6.250,0.132
6.255,0.128
6.260,0.122
6.265,0.115
6.270,0.111
6.275,0.107
6.280,0.103
6.285,0.102
6.290,0.098
6.295,0.093
6.300,0.087
6.305,0.084
6.310,0.081
6.315,0.071
6.320,0.066
6.325,0.072
6.330,0.074
6.335,0.077
6.340,0.073
6.345,0.065
6.350,0.062
6.355,0.058
6.360,0.054
6.365,0.046
6.370,0.029
6.375,-0.003
6.380,-0.026
6.385,-0.023
6.390,-0.022
6.395,-0.030
6.400,-0.052
6.405,-0.086
6.410,-0.104
6.415,-0.106
6.420,-0.094
6.425,-0.075
6.430,-0.064
6.435,-0.047
6.440,-0.016
6.445,0.022
6.450,0.060
6.455,0.091
6.460,0.125
6.465,0.149
6.470,0.154
6.475,0.156
6.480,0.153
6.485,0.156
6.490,0.156
6.495,0.147
6.500,0.141
6.505,0.130
6.510,0.121
6.515,0.115
6.520,0.108
6.525,0.106
6.530,0.109
6.535,0.113
6.540,0.085
6.545,0.006
6.550,-0.123
6.555,-0.274
6.560,-0.413
6.565,-0.520
6.570,-0.468
6.575,-0.218
6.580,0.083
6.585,0.398
6.590,0.689
6.595,0.895
6.600,0.954
6.605,0.801
6.610,0.548
6.615,0.347
6.620,0.188
6.625,0.054
6.630,-0.024
6.635,-0.066
6.640,-0.103
6.645,-0.122
6.650,-0.121
6.655,-0.128
6.660,-0.135
6.665,-0.142
6.670,-0.157
6.675,-0.166
6.680,-0.163
6.685,-0.150
6.690,-0.140
6.695,-0.143
6.700,-0.150
6.705,-0.149
6.710,-0.141
6.715,-0.136
6.720,-0.142
6.725,-0.153
6.730,-0.159
6.735,-0.157
6.740,-0.156
6.745,-0.164
6.750,-0.168
6.755,-0.166
6.760,-0.165
6.765,-0.172
6.770,-0.182
6.775,-0.190
6.780,-0.198
6.785,-0.202
6.790,-0.208
6.795,-0.206
6.800,-0.202
6.805,-0.207
6.810,-0.205
6.815,-0.195
6.820,-0.185
6.825,-0.179
6.830,-0.178
6.835,-0.177
6.840,-0.170
6.845,-0.164
6.850,-0.155
6.855,-0.144
6.860,-0.130
6.865,-0.111
6.870,-0.094
6.875,-0.071
6.880,-0.035
6.885,-0.001
6.890,0.029
6.895,0.057
6.900,0.080
6.905,0.093
6.910,0.092
6.915,0.093
6.920,0.107
6.925,0.116
6.930,0.116
6.935,0.120
6.940,0.123
6.945,0.118
6.950,0.112
6.955,0.105
6.960,0.104
6.965,0.104
6.970,0.087
6.975,0.073
6.980,0.084
6.985,0.093
6.990,0.086
6.995,0.070
7.000,0.059
7.005,0.060
7.010,0.066
7.015,0.059
7.020,0.052
7.025,0.054
7.030,0.056
7.035,0.064
7.040,0.065
7.045,0.057
7.050,0.048
7.055,0.030
7.060,0.006
7.065,-0.014
7.070,-0.019
7.075,-0.011
7.080,-0.016
7.085,-0.045
7.090,-0.082
7.095,-0.097
7.100,-0.092
7.105,-0.086
7.110,-0.077
7.115,-0.062
7.120,-0.042
7.125,-0.012
7.130,0.017
7.135,0.048
7.140,0.081
7.145,0.114
7.150,0.149
7.155,0.167
7.160,0.163
7.165,0.152
7.170,0.146
7.175,0.150
7.180,0.152
7.185,0.152
7.190,0.148
7.195,0.136
7.200,0.129
7.205,0.119
7.210,0.109
7.215,0.105
7.220,0.119
7.225,0.129
7.230,0.080
7.235,-0.045
7.240,-0.209
7.245,-0.370
7.250,-0.510
7.255,-0.532
7.260,-0.330
7.265,-0.028
7.270,0.255
7.275,0.546
7.280,0.824
7.285,0.999
7.290,0.947
7.295,0.707
7.300,0.468
7.305,0.281
7.310,0.118
7.315,0.007
7.320,-0.049
7.325,-0.090
7.330,-0.121
7.335,-0.130
7.340,-0.139
7.345,-0.149
7.350,-0.144
7.355,-0.144
7.360,-0.149
7.365,-0.152
7.370,-0.154
7.375,-0.149
7.380,-0.149
7.385,-0.157
7.390,-0.158
7.395,-0.153
7.400,-0.146
7.405,-0.142
7.410,-0.141
7.415,-0.139
7.420,-0.139
7.425,-0.142
7.430,-0.146
7.435,-0.152
7.440,-0.160
7.445,-0.166
7.450,-0.168
7.455,-0.176
7.460,-0.183
7.465,-0.185
7.470,-0.185
7.475,-0.187
7.480,-0.190
7.485,-0.189
7.490,-0.189
7.495,-0.189
7.500,-0.183
7.505,-0.175
7.510,-0.168
7.515,-0.162
7.520,-0.156
7.525,-0.150
7.530,-0.145
7.535,-0.143
7.540,-0.142
7.545,-0.133
7.550,-0.116
7.555,-0.095
7.560,-0.070
7.565,-0.040
7.570,-0.012
7.575,0.013
7.580,0.036
7.585,0.060
7.590,0.080
7.595,0.091
7.600,0.098
7.605,0.104
7.610,0.113
7.615,0.118
7.620,0.114
7.625,0.110
7.630,0.108
7.635,0.104
7.640,0.093
7.645,0.086
7.650,0.090
7.655,0.088
7.660,0.083
7.665,0.078
7.670,0.066
7.675,0.061
7.680,0.060
7.685,0.061
7.690,0.061
7.695,0.057
7.700,0.056
7.705,0.056
7.710,0.056
7.715,0.059
7.720,0.061
7.725,0.061
7.730,0.054
7.735,0.041
7.740,0.026
7.745,0.001
7.750,-0.017
7.755,-0.019
7.760,-0.017
7.765,-0.022
7.770,-0.046
7.775,-0.072
7.780,-0.089
7.785,-0.096
7.790,-0.090
7.795,-0.073
7.800,-0.051
7.805,-0.034
7.810,-0.012
7.815,0.027
7.820,0.066
7.825,0.100
7.830,0.128
7.835,0.148
7.840,0.159
7.845,0.161
7.850,0.163
7.855,0.162
7.860,0.156
7.865,0.153
7.870,0.149
7.875,0.142
7.880,0.134
7.885,0.130
7.890,0.126
7.895,0.118
7.900,0.116
7.905,0.124
7.910,0.109
7.915,0.030
7.920,-0.110
7.925,-0.272
7.930,-0.429
7.935,-0.554
7.940,-0.516
7.945,-0.265
7.950,0.049
7.955,0.354
7.960,0.651
7.965,0.888
7.970,0.975
7.975,0.845
7.980,0.598
7.985,0.390
7.990,0.226
7.995,0.083
8.000,0.002
8.005,-0.037
8.010,-0.075
8.015,-0.101
8.020,-0.113
8.025,-0.118
8.030,-0.122
8.035,-0.125
8.040,-0.127
8.045,-0.132
8.050,-0.134
8.055,-0.136
8.060,-0.139
8.065,-0.136
8.070,-0.138
8.075,-0.140
8.080,-0.137
8.085,-0.138
8.090,-0.142
8.095,-0.144
8.100,-0.141
8.105,-0.144
8.110,-0.147
8.115,-0.147
8.120,-0.153
8.125,-0.158
8.130,-0.165
8.135,-0.172
8.140,-0.176
8.145,-0.184
8.150,-0.190
8.155,-0.194
8.160,-0.198
8.165,-0.201
8.170,-0.205
8.175,-0.207
8.180,-0.203
8.185,-0.197
8.190,-0.193
8.195,-0.191
8.200,-0.183
8.205,-0.175
8.210,-0.169
8.215,-0.162
8.220,-0.156
8.225,-0.147
8.230,-0.133
8.235,-0.116
8.240,-0.095
8.245,-0.070
8.250,-0.042
8.255,-0.016
8.260,0.009
8.265,0.036
8.270,0.057
8.275,0.077
8.280,0.090
8.285,0.099
8.290,0.106
8.295,0.107
8.300,0.110
8.305,0.111
8.310,0.110
8.315,0.111
8.320,0.107
8.325,0.105
8.330,0.103
8.335,0.099
8.340,0.093
8.345,0.086
8.350,0.083
8.355,0.079
8.360,0.072
8.365,0.070
8.370,0.065
8.375,0.065
8.380,0.067
8.385,0.065
8.390,0.061
8.395,0.057
8.400,0.057
8.405,0.058
8.410,0.056
8.415,0.048
8.420,0.034
8.425,0.016
8.430,-0.004
8.435,-0.019
8.440,-0.022
8.445,-0.024
8.450,-0.035
8.455,-0.063
8.460,-0.088
8.465,-0.098
8.470,-0.104
8.475,-0.092
8.480,-0.070
8.485,-0.050
8.490,-0.030
8.495,-0.004
8.500,0.034
8.505,0.070
8.510,0.101
8.515,0.131
8.520,0.152
8.525,0.163
8.530,0.162
8.535,0.159
8.540,0.157
8.545,0.153
8.550,0.150
8.555,0.145
8.560,0.138
8.565,0.133
8.570,0.128
8.575,0.122
8.580,0.116
8.585,0.116
8.590,0.122
8.595,0.093
8.600,-0.006
8.605,-0.157
8.610,-0.321
8.615,-0.463
8.620,-0.558
8.625,-0.475
8.630,-0.196
8.635,0.123
8.640,0.452
8.645,0.741
8.650,0.921
8.655,0.933
8.660,0.750
8.665,0.507
8.670,0.323
8.675,0.171
8.680,0.044
8.685,-0.017
8.690,-0.051
8.695,-0.086
8.700,-0.102
8.705,-0.111
8.710,-0.120
8.715,-0.120
8.720,-0.126
8.725,-0.131
8.730,-0.131
8.735,-0.132
8.740,-0.135
8.745,-0.136
8.750,-0.133
8.755,-0.135
8.760,-0.141
8.765,-0.140
8.770,-0.139
8.775,-0.140
8.780,-0.142
8.785,-0.146
8.790,-0.147
8.795,-0.147
8.800,-0.149
8.805,-0.154
8.810,-0.160
8.815,-0.164
8.820,-0.172
8.825,-0.177
8.830,-0.183
8.835,-0.193
8.840,-0.199
8.845,-0.205
8.850,-0.208
8.855,-0.210
8.860,-0.211
8.865,-0.205
8.870,-0.201
8.875,-0.196
8.880,-0.189
8.885,-0.183
8.890,-0.175
8.895,-0.170
8.900,-0.163
8.905,-0.155
8.910,-0.146
8.915,-0.127
8.920,-0.109
8.925,-0.086
8.930,-0.058
8.935,-0.031
8.940,-0.006
8.945,0.017
8.950,0.043
8.955,0.066
8.960,0.082
8.965,0.096
8.970,0.104
8.975,0.110
8.980,0.115
8.985,0.116
8.990,0.118
8.995,0.120
9.000,0.117
9.005,0.114
9.010,0.111
9.015,0.110
9.020,0.105
9.025,0.099
9.030,0.096
9.035,0.092
9.040,0.086
9.045,0.081
9.050,0.077
9.055,0.073
9.060,0.069
9.065,0.070
9.070,0.066
9.075,0.063
9.080,0.062
9.085,0.060
9.090,0.061
9.095,0.058
9.100,0.056
9.105,0.049
9.110,0.034
9.115,0.018
9.120,-0.004
9.125,-0.021
9.130,-0.022
9.135,-0.022
9.140,-0.032
9.145,-0.060
9.150,-0.088
9.155,-0.102
9.160,-0.107
9.165,-0.093
9.170,-0.073
9.175,-0.057
9.180,-0.036
9.185,-0.010
9.190,0.027
9.195,0.063
9.200,0.093
9.205,0.122
9.210,0.147
9.215,0.159
9.220,0.157
9.225,0.154
9.230,0.154
9.235,0.150
9.240,0.145
9.245,0.140
9.250,0.136
9.255,0.130
9.260,0.122
9.265,0.119
9.270,0.113
9.275,0.113
9.280,0.120
9.285,0.096
9.290,0.009
9.295,-0.134
9.300,-0.297
9.305,-0.445
9.310,-0.552
9.315,-0.494
9.320,-0.232
9.325,0.088
9.330,0.420
9.335,0.719
9.340,0.908
9.345,0.938
9.350,0.772
9.355,0.517
9.360,0.321
9.365,0.170
9.370,0.038
9.375,-0.030
9.380,-0.063
9.385,-0.092
9.390,-0.103
9.395,-0.110
9.400,-0.117
9.405,-0.121
9.410,-0.129
9.415,-0.130
9.420,-0.127
9.425,-0.128
9.430,-0.131
9.435,-0.137
9.440,-0.140
9.445,-0.144
9.450,-0.144
9.455,-0.140
9.460,-0.141
9.465,-0.140
9.470,-0.142
9.475,-0.144
9.480,-0.142
9.485,-0.146
9.490,-0.148
9.495,-0.149
9.500,-0.155
9.505,-0.164
9.510,-0.173
9.515,-0.179
9.520,-0.186
9.525,-0.192
9.530,-0.199
9.535,-0.210
9.540,-0.214
9.545,-0.214
9.550,-0.210
9.555,-0.204
9.560,-0.201
9.565,-0.192
9.570,-0.188
9.575,-0.187
9.580,-0.176
9.585,-0.166
9.590,-0.161
9.595,-0.157
9.600,-0.151
9.605,-0.139
9.610,-0.121
9.615,-0.092
9.620,-0.063
9.625,-0.040
9.630,-0.013
9.635,0.018
9.640,0.045
9.645,0.067
9.650,0.082
9.655,0.092
9.660,0.103
9.665,0.112
9.670,0.116
9.675,0.125
9.680,0.132
9.685,0.126
9.690,0.124
9.695,0.119
9.700,0.112
9.705,0.116
9.710,0.116
9.715,0.111
9.720,0.102
9.725,0.094
9.730,0.093
9.735,0.090
9.740,0.084
9.745,0.080
9.750,0.080
9.755,0.076
9.760,0.069
9.765,0.066
9.770,0.061
9.775,0.058
9.780,0.059
9.785,0.058
9.790,0.063
9.795,0.055
9.800,0.035
9.805,0.013
9.810,-0.010
9.815,-0.016
9.820,-0.022
9.825,-0.033
9.830,-0.045
9.835,-0.069
9.840,-0.088
9.845,-0.104
9.850,-0.107
9.855,-0.088
9.860,-0.070
9.865,-0.048
9.870,-0.021
9.875,0.012
9.880,0.050
9.885,0.086
9.890,0.119
9.895,0.146
9.900,0.157
9.905,0.153
9.910,0.152
9.915,0.157
9.920,0.152
9.925,0.145
9.930,0.141
9.935,0.133
9.940,0.123
9.945,0.118
9.950,0.118
9.955,0.116
9.960,0.111
9.965,0.121
9.970,0.124
9.975,0.073
9.980,-0.041
9.985,-0.190
9.990,-0.342
9.995,-0.483
10.000,-0.513
10.005,-0.324
10.010,-0.037
10.015,0.233
10.020,0.513
10.025,0.779
10.030,0.948
10.035,0.904
10.040,0.668
10.045,0.426
10.050,0.249
10.055,0.101
10.060,0.001
10.065,-0.046
10.070,-0.090
10.075,-0.119
10.080,-0.122
10.085,-0.126
10.090,-0.136
10.095,-0.147
10.100,-0.147
10.105,-0.142
10.110,-0.138
10.115,-0.135
10.120,-0.142
10.125,-0.149
10.130,-0.151
10.135,-0.149
10.140,-0.141
10.145,-0.138
10.150,-0.144
10.155,-0.149
10.160,-0.149
10.165,-0.153
10.170,-0.162
10.175,-0.158
10.180,-0.152
10.185,-0.152
10.190,-0.153
10.195,-0.162
10.200,-0.171
10.205,-0.179
10.210,-0.189
10.215,-0.187
10.220,-0.183
10.225,-0.184
10.230,-0.182
10.235,-0.188
10.240,-0.189
10.245,-0.179
10.250,-0.172
10.255,-0.169
10.260,-0.159
10.265,-0.145
10.270,-0.147
10.275,-0.149
10.280,-0.143
10.285,-0.135
10.290,-0.123
10.295,-0.112
10.300,-0.098
10.305,-0.073
10.310,-0.045
10.315,-0.013
10.320,0.018
10.325,0.039
10.330,0.055
10.335,0.068
10.340,0.082
10.345,0.099
10.350,0.111
10.355,0.111
10.360,0.101
10.365,0.090
10.370,0.087
10.375,0.100
10.380,0.107
10.385,0.099
10.390,0.086
10.395,0.075
10.400,0.082
10.405,0.091
10.410,0.079
10.415,0.070
10.420,0.065
10.425,0.053
10.430,0.052
10.435,0.053
10.440,0.051
10.445,0.059
10.450,0.066
10.455,0.066
10.460,0.071
10.465,0.068
10.470,0.058
10.475,0.057
10.480,0.052
10.485,0.031
10.490,0.005
10.495,-0.010
10.500,-0.005
10.505,-0.002
10.510,-0.022
10.515,-0.055
10.520,-0.084
10.525,-0.093
10.530,-0.093
10.535,-0.084
10.540,-0.069
10.545,-0.056
10.550,-0.036
10.555,-0.006
10.560,0.026
10.565,0.063
10.570,0.096
10.575,0.125
10.580,0.149
10.585,0.156
10.590,0.157
10.595,0.161
10.600,0.157
10.605,0.152
10.610,0.152
10.615,0.155
10.620,0.147
10.625,0.132
10.630,0.124
10.635,0.122
10.640,0.116
10.645,0.114
10.650,0.128
10.655,0.118
10.660,0.033
10.665,-0.111
10.670,-0.279
10.675,-0.446
10.680,-0.569
10.685,-0.511
10.690,-0.243
10.695,0.070
10.700,0.378
10.705,0.680
10.710,0.926
10.715,1.012
10.720,0.859
10.725,0.602
10.730,0.389
10.735,0.214
10.740,0.069
10.745,-0.010
10.750,-0.050
10.755,-0.085
10.760,-0.108
10.765,-0.116
10.770,-0.128
10.775,-0.137
10.780,-0.135
10.785,-0.136
10.790,-0.138
10.795,-0.140
10.800,-0.141
10.805,-0.140
10.810,-0.141
10.815,-0.141
10.820,-0.139
10.825,-0.139
10.830,-0.142
10.835,-0.151
10.840,-0.152
10.845,-0.143
10.850,-0.140
10.855,-0.144
10.860,-0.151
10.865,-0.154
10.870,-0.157
10.875,-0.162
10.880,-0.166
10.885,-0.175
10.890,-0.185
10.895,-0.192
10.900,-0.192
10.905,-0.190
10.910,-0.193
10.915,-0.199
10.920,-0.200
10.925,-0.194
10.930,-0.183
10.935,-0.177
10.940,-0.172
10.945,-0.167
10.950,-0.165
10.955,-0.160
10.960,-0.157
10.965,-0.154
10.970,-0.147
10.975,-0.132
10.980,-0.110
10.985,-0.090
10.990,-0.071
10.995,-0.047
11.000,-0.019
11.005,0.010
11.010,0.034
11.015,0.057
11.020,0.076
11.025,0.085
11.030,0.094
11.035,0.096
11.040,0.100
11.045,0.107
11.050,0.107
11.055,0.105
11.060,0.102
11.065,0.097
11.070,0.090
11.075,0.084
11.080,0.085
11.085,0.081
11.090,0.073
11.095,0.070
11.100,0.065
11.105,0.059
11.110,0.053
11.115,0.052
11.120,0.052
11.125,0.050
11.130,0.050
11.135,0.050
11.140,0.054
11.145,0.058
11.150,0.055
11.155,0.051
11.160,0.042
11.165,0.030
11.170,0.012
11.175,-0.010
11.180,-0.017
11.185,-0.013
11.190,-0.016
11.195,-0.035
11.200,-0.068
11.205,-0.088
11.210,-0.096
11.215,-0.100
11.220,-0.089
11.225,-0.070
11.230,-0.050
11.235,-0.029
11.240,0.001
11.245,0.042
11.250,0.075
11.255,0.105
11.260,0.135
11.265,0.160
11.270,0.168
11.275,0.161
11.280,0.160
11.285,0.159
11.290,0.155
11.295,0.152
11.300,0.146
11.305,0.138
11.310,0.128
11.315,0.120
11.320,0.113
11.325,0.107
11.330,0.115
11.335,0.121
11.340,0.083
11.345,-0.025
11.350,-0.180
11.355,-0.344
11.360,-0.492
11.365,-0.565
11.370,-0.431
11.375,-0.132
11.380,0.174
11.385,0.489
11.390,0.771
11.395,0.947
11.400,0.941
11.405,0.735
11.410,0.492
11.415,0.313
11.420,0.157
11.425,0.036
11.430,-0.015
11.435,-0.052
11.440,-0.087
11.445,-0.101
11.450,-0.110
11.455,-0.117
11.460,-0.124
11.465,-0.128
11.470,-0.131
11.475,-0.136
11.480,-0.137
11.485,-0.139
11.490,-0.137
11.495,-0.131
11.500,-0.132
11.505,-0.134
11.510,-0.135
11.515,-0.138
11.520,-0.140
11.525,-0.143
11.530,-0.142
11.535,-0.146
11.540,-0.150
11.545,-0.151
11.550,-0.155
11.555,-0.158
11.560,-0.163
11.565,-0.170
11.570,-0.178
11.575,-0.185
11.580,-0.188
11.585,-0.192
11.590,-0.198
11.595,-0.201
11.600,-0.204
11.605,-0.202
11.610,-0.197
11.615,-0.193
11.620,-0.188
11.625,-0.183
11.630,-0.175
11.635,-0.170
11.640,-0.165
11.645,-0.158
11.650,-0.152
11.655,-0.139
11.660,-0.123
11.665,-0.102
11.670,-0.077
11.675,-0.055
11.680,-0.029
11.685,-0.004
11.690,0.017
11.695,0.043
11.700,0.068
11.705,0.084
11.710,0.094
11.715,0.103
11.720,0.107
11.725,0.110
11.730,0.114
11.735,0.112
11.740,0.112
11.745,0.113
11.750,0.109
11.755,0.104
11.760,0.099
11.765,0.097
11.770,0.094
11.775,0.089
11.780,0.083
11.785,0.075
11.790,0.070
11.795,0.068
11.800,0.064
11.805,0.064
11.810,0.064
11.815,0.061
11.820,0.058
11.825,0.056
11.830,0.060
11.835,0.058
11.840,0.052
11.845,0.042
11.850,0.025
11.855,0.003
11.860,-0.017
11.865,-0.021
11.870,-0.020
11.875,-0.031
11.880,-0.052
11.885,-0.079
11.890,-0.096
11.895,-0.099
11.900,-0.093
11.905,-0.075
11.910,-0.057
11.915,-0.041
11.920,-0.016
11.925,0.019
11.930,0.057
11.935,0.087
11.940,0.117
11.945,0.145
11.950,0.162
11.955,0.163
11.960,0.160
11.965,0.159
11.970,0.155
11.975,0.149
11.980,0.145
11.985,0.138
11.990,0.131
11.995,0.129
12.000,0.122
12.005,0.115
12.010,0.113
12.015,0.119
12.020,0.110
12.025,0.038
12.030,-0.097
12.035,-0.262
12.040,-0.417
12.045,-0.534
12.050,-0.525
12.055,-0.301
12.060,0.025
12.065,0.351
12.070,0.661
12.075,0.879
12.080,0.953
12.085,0.835
12.090,0.587
12.095,0.376
12.100,0.216
12.105,0.076
12.110,-0.005
12.115,-0.042
12.120,-0.076
12.125,-0.101
12.130,-0.111
12.135,-0.117
12.140,-0.122
12.145,-0.126
12.150,-0.133
12.155,-0.135
12.160,-0.135
12.165,-0.136
12.170,-0.136
12.175,-0.138
12.180,-0.139
12.185,-0.143
12.190,-0.144
12.195,-0.139
12.200,-0.138
12.205,-0.140
12.210,-0.143
12.215,-0.147
12.220,-0.149
12.225,-0.153
12.230,-0.155
12.235,-0.159
12.240,-0.166
12.245,-0.171
12.250,-0.178
12.255,-0.184
12.260,-0.187
12.265,-0.193
12.270,-0.198
12.275,-0.204
12.280,-0.206
12.285,-0.206
12.290,-0.205
12.295,-0.200
12.300,-0.195
12.305,-0.189
12.310,-0.182
12.315,-0.175
12.320,-0.169
12.325,-0.162
12.330,-0.156
12.335,-0.149
12.340,-0.136
12.345,-0.117
12.350,-0.096
12.355,-0.073
12.360,-0.047
12.365,-0.018
12.370,0.011
12.375,0.034
12.380,0.058
12.385,0.077
12.390,0.092
12.395,0.104
12.400,0.109
12.405,0.114
12.410,0.119
12.415,0.121
12.420,0.120
12.425,0.117
12.430,0.118
12.435,0.116
12.440,0.111
12.445,0.109
12.450,0.103
12.455,0.098
12.460,0.094
12.465,0.088
12.470,0.084
12.475,0.077
12.480,0.074
12.485,0.071
12.490,0.064
12.495,0.058
12.500,0.053
12.505,0.047
12.510,0.045
12.515,0.046
12.520,0.046
12.525,0.046
12.530,0.053
12.535,0.055
12.540,0.047
12.545,0.033
12.550,0.007
12.555,-0.013
12.560,-0.020
12.565,-0.029
12.570,-0.035
12.575,-0.051
12.580,-0.074
12.585,-0.086
12.590,-0.092
12.595,-0.090
12.600,-0.076
12.605,-0.058
12.610,-0.039
12.615,-0.014
12.620,0.024
12.625,0.059
12.630,0.092
12.635,0.125
12.640,0.149
12.645,0.166
12.650,0.161
12.655,0.149
12.660,0.152
12.665,0.158
12.670,0.158
12.675,0.154
12.680,0.143
12.685,0.131
12.690,0.125
12.695,0.123
12.700,0.115
12.705,0.113
12.710,0.121
12.715,0.106
12.720,0.029
12.725,-0.102
12.730,-0.250
12.735,-0.400
12.740,-0.530
12.745,-0.505
12.750,-0.263
12.755,0.053
12.760,0.369
12.765,0.667
12.770,0.884
12.775,0.961
12.780,0.842
12.785,0.595
12.790,0.379
12.795,0.218
12.800,0.075
12.805,-0.009
12.810,-0.050
12.815,-0.092
12.820,-0.116
12.825,-0.130
12.830,-0.136
12.835,-0.132
12.840,-0.134
12.845,-0.140
12.850,-0.148
12.855,-0.156
12.860,-0.158
12.865,-0.152
12.870,-0.141
12.875,-0.134
12.880,-0.137
12.885,-0.146
12.890,-0.147
12.895,-0.143
12.900,-0.146
12.905,-0.149
12.910,-0.156
12.915,-0.158
12.920,-0.153
12.925,-0.158
12.930,-0.164
12.935,-0.169
12.940,-0.174
12.945,-0.177
12.950,-0.187
12.955,-0.196
12.960,-0.203
12.965,-0.209
12.970,-0.210
12.975,-0.207
12.980,-0.202
12.985,-0.204
12.990,-0.204
12.995,-0.191
13.000,-0.182
13.005,-0.175
13.010,-0.170
13.015,-0.168
13.020,-0.163
13.025,-0.160
13.030,-0.153
13.035,-0.141
13.040,-0.122
13.045,-0.095
13.050,-0.074
13.055,-0.048
13.060,-0.017
13.065,0.011
13.070,0.031
13.075,0.048
13.080,0.075
13.085,0.104
13.090,0.119
13.095,0.122
13.100,0.116
13.105,0.110
13.110,0.114
13.115,0.117
13.120,0.115
13.125,0.109
13.130,0.101
13.135,0.095
13.140,0.093
13.145,0.094
13.150,0.090
13.155,0.083
13.160,0.081
13.165,0.079
13.170,0.078
13.175,0.077
13.180,0.069
13.185,0.061
13.190,0.066
13.195,0.068
13.200,0.059
13.205,0.060
13.210,0.062
13.215,0.061
13.220,0.059
13.225,0.039
13.230,0.012
13.235,-0.004
13.240,-0.016
13.245,-0.016
13.250,-0.013
13.255,-0.034
13.260,-0.070
13.265,-0.089
13.270,-0.094
13.275,-0.091
13.280,-0.069
13.285,-0.055
13.290,-0.049
13.295,-0.027
13.300,-0.002
13.305,0.025
13.310,0.066
13.315,0.110
13.320,0.146
13.325,0.170
13.330,0.167
13.335,0.155
13.340,0.163
13.345,0.162
13.350,0.149
13.355,0.147
13.360,0.147
13.365,0.140
13.370,0.131
13.375,0.118
13.380,0.111
13.385,0.113
13.390,0.121
13.395,0.134
13.400,0.099
13.405,-0.011
13.410,-0.147
13.415,-0.293
13.420,-0.448
13.425,-0.531
13.430,-0.405
13.435,-0.119
13.440,0.167
13.445,0.455
13.450,0.729
13.455,0.931
13.460,0.959
13.465,0.768
13.470,0.514
13.475,0.312
13.480,0.147
13.485,0.026
13.490,-0.032
13.495,-0.066
13.500,-0.105
13.505,-0.121
13.510,-0.124
13.515,-0.137
13.520,-0.145
13.525,-0.151
13.530,-0.150
13.535,-0.143
13.540,-0.147
13.545,-0.148
13.550,-0.146
13.555,-0.145
13.560,-0.143
13.565,-0.152
13.570,-0.157
13.575,-0.145
13.580,-0.134
13.585,-0.140
13.590,-0.151
13.595,-0.155
13.600,-0.155
13.605,-0.156
13.610,-0.164
13.615,-0.170
13.620,-0.166
13.625,-0.167
13.630,-0.172
13.635,-0.171
13.640,-0.170
13.645,-0.176
13.650,-0.183
13.655,-0.188
13.660,-0.190
13.665,-0.185
13.670,-0.178
13.675,-0.172
13.680,-0.170
13.685,-0.171
13.690,-0.166
13.695,-0.150
13.700,-0.139
13.705,-0.135
13.710,-0.137
13.715,-0.136
13.720,-0.112
13.725,-0.091
13.730,-0.077
13.735,-0.056
13.740,-0.031
13.745,0.002
13.750,0.031
13.755,0.054
13.760,0.071
13.765,0.080
13.770,0.083
13.775,0.095
13.780,0.111
13.785,0.109
13.790,0.103
13.795,0.104
13.800,0.100
13.805,0.093
13.810,0.089
13.815,0.087
13.820,0.085
13.825,0.078
13.830,0.070
13.835,0.065
13.840,0.057
13.845,0.057
13.850,0.055
13.855,0.048
13.860,0.047
13.865,0.044
13.870,0.047
13.875,0.049
13.880,0.049
13.885,0.052
13.890,0.055
13.895,0.051
13.900,0.038
13.905,0.024
13.910,0.008
13.915,-0.013
13.920,-0.021
13.925,-0.016
13.930,-0.010
13.935,-0.026
13.940,-0.069
13.945,-0.093
13.950,-0.095
13.955,-0.087
13.960,-0.067
13.965,-0.054
13.970,-0.044
13.975,-0.022
13.980,0.010
13.985,0.046
13.990,0.081
13.995,0.117
14.000,0.140
14.005,0.159
14.010,0.172
14.015,0.167
14.020,0.166
14.025,0.166
14.030,0.159
14.035,0.155
14.040,0.151
14.045,0.144
14.050,0.133
14.055,0.124
14.060,0.118
14.065,0.115
14.070,0.128
14.075,0.137
14.080,0.092
14.085,-0.029
14.090,-0.200
14.095,-0.377
14.100,-0.530
14.105,-0.581
14.110,-0.401
14.115,-0.071
14.120,0.248
14.125,0.564
14.130,0.842
14.135,1.008
14.140,0.979
14.145,0.756
14.150,0.507
14.155,0.315
14.160,0.150
14.165,0.028
14.170,-0.031
14.175,-0.067
14.180,-0.099
14.185,-0.114
14.190,-0.119
14.195,-0.124
14.200,-0.130
14.205,-0.134
14.210,-0.137
14.215,-0.140
14.220,-0.138
14.225,-0.143
14.230,-0.146
14.235,-0.141
14.240,-0.139
14.245,-0.135
14.250,-0.139
14.255,-0.147
14.260,-0.145
14.265,-0.146
14.270,-0.148
14.275,-0.146
14.280,-0.148
14.285,-0.152
14.290,-0.159
14.295,-0.164
14.300,-0.169
14.305,-0.175
14.310,-0.176
14.315,-0.181
14.320,-0.188
14.325,-0.192
14.330,-0.196
14.335,-0.199
14.340,-0.202
14.345,-0.201
14.350,-0.196
14.355,-0.190
14.360,-0.184
14.365,-0.179
14.370,-0.171
14.375,-0.163
14.380,-0.158
14.385,-0.155
14.390,-0.151
14.395,-0.138
14.400,-0.124
14.405,-0.102
14.410,-0.077
14.415,-0.058
14.420,-0.035
14.425,-0.008
14.430,0.021
14.435,0.048
14.440,0.066
14.445,0.081
14.450,0.094
14.455,0.099
14.460,0.104
14.465,0.107
14.470,0.109
14.475,0.109
14.480,0.108
14.485,0.104
14.490,0.102
14.495,0.101
14.500,0.093
14.505,0.083
14.510,0.078
14.515,0.073
14.520,0.071
14.525,0.070
14.530,0.067
14.535,0.064
14.540,0.058
14.545,0.056
14.550,0.055
14.555,0.057
14.560,0.058
14.565,0.053
14.570,0.051
14.575,0.044
14.580,0.030
14.585,0.016
14.590,-0.001
14.595,-0.011
14.600,-0.013
14.605,-0.017
14.610,-0.026
14.615,-0.052
14.620,-0.078
14.625,-0.090
14.630,-0.096
14.635,-0.091
14.640,-0.076
14.645,-0.058
14.650,-0.039
14.655,-0.014
14.660,0.025
14.665,0.062
14.670,0.095
14.675,0.126
14.680,0.152
14.685,0.165
14.690,0.163
14.695,0.160
14.700,0.159
14.705,0.156
14.710,0.154
14.715,0.146
14.720,0.138
14.725,0.133
14.730,0.128
14.735,0.122
14.740,0.116
14.745,0.116
14.750,0.125
14.755,0.107
14.760,0.020
14.765,-0.125
14.770,-0.291
14.775,-0.446
14.780,-0.558
14.785,-0.502
14.790,-0.242
14.795,0.075
14.800,0.397
14.805,0.699
14.810,0.918
14.815,0.973
14.820,0.819
14.825,0.571
14.830,0.369
14.835,0.204
14.840,0.064
14.845,-0.009
14.850,-0.047
14.855,-0.085
14.860,-0.105
14.865,-0.115
14.870,-0.123
14.875,-0.126
14.880,-0.130
14.885,-0.134
14.890,-0.136
14.895,-0.135
14.900,-0.135
14.905,-0.137
14.910,-0.138
14.915,-0.140
14.920,-0.140
14.925,-0.140
14.930,-0.143
14.935,-0.143
14.940,-0.142
14.945,-0.143
14.950,-0.146
14.955,-0.150
14.960,-0.153
14.965,-0.158
14.970,-0.163
14.975,-0.169
14.980,-0.174
14.985,-0.178
14.990,-0.183
14.995,-0.185
15.000,-0.193
15.005,-0.202
15.010,-0.203
15.015,-0.209
15.020,-0.212
15.025,-0.206
15.030,-0.199
15.035,-0.192
15.040,-0.186
15.045,-0.178
15.050,-0.171
15.055,-0.164
15.060,-0.156
15.065,-0.151
15.070,-0.143
15.075,-0.129
15.080,-0.112
15.085,-0.088
15.090,-0.064
15.095,-0.037
15.100,-0.011
15.105,0.015
15.110,0.039
15.115,0.059
15.120,0.079
15.125,0.093
15.130,0.101
15.135,0.109
15.140,0.112
15.145,0.116
15.150,0.117
15.155,0.115
15.160,0.116
15.165,0.113
15.170,0.109
15.175,0.107
15.180,0.101
15.185,0.096
15.190,0.092
15.195,0.090
15.200,0.084
15.205,0.076
15.210,0.075
15.215,0.073
15.220,0.069
15.225,0.066
15.230,0.065
15.235,0.065
15.240,0.062
15.245,0.058
15.250,0.055
15.255,0.046
15.260,0.034
15.265,0.013
15.270,-0.008
15.275,-0.017
15.280,-0.018
15.285,-0.019
15.290,-0.034
15.295,-0.062
15.300,-0.086
15.305,-0.098
15.310,-0.098
15.315,-0.086
15.320,-0.070
15.325,-0.051
15.330,-0.030
15.335,0.000
15.340,0.039
15.345,0.075
15.350,0.105
15.355,0.133
15.360,0.156
15.365,0.163
15.370,0.161
15.375,0.160
15.380,0.157
15.385,0.151
15.390,0.146
15.395,0.144
15.400,0.139
15.405,0.131
15.410,0.125
15.415,0.117
15.420,0.110
15.425,0.114
15.430,0.117
15.435,0.083
15.440,-0.024
15.445,-0.179
15.450,-0.344
15.455,-0.487
15.460,-0.570
15.465,-0.467
15.470,-0.172
15.475,0.162
15.480,0.500
15.485,0.776
15.490,0.928
15.495,0.919
15.500,0.724
15.505,0.479
15.510,0.298
15.515,0.145
15.520,0.028
15.525,-0.019
15.530,-0.052
15.535,-0.086
15.540,-0.104
15.545,-0.117
15.550,-0.123
15.555,-0.123
15.560,-0.124
15.565,-0.131
15.570,-0.137
15.575,-0.136
15.580,-0.137
15.585,-0.137
15.590,-0.138
15.595,-0.138
15.600,-0.133
15.605,-0.131
15.610,-0.133
15.615,-0.141
15.620,-0.150
15.625,-0.151
15.630,-0.149
15.635,-0.151
15.640,-0.155
15.645,-0.155
15.650,-0.158
15.655,-0.166
15.660,-0.172
15.665,-0.179
15.670,-0.187
15.675,-0.199
15.680,-0.210
15.685,-0.210
15.690,-0.207
15.695,-0.211
15.700,-0.215
15.705,-0.212
15.710,-0.206
15.715,-0.198
15.720,-0.192
15.725,-0.187
15.730,-0.184
15.735,-0.182
15.740,-0.177
15.745,-0.163
15.750,-0.148
15.755,-0.137
15.760,-0.113
15.765,-0.080
15.770,-0.049
15.775,-0.022
15.780,0.002
15.785,0.028
15.790,0.054
15.795,0.072
15.800,0.085
15.805,0.100
15.810,0.113
15.815,0.116
15.820,0.119
15.825,0.125
15.830,0.122
15.835,0.121
15.840,0.121
15.845,0.120
15.850,0.119
15.855,0.118
15.860,0.116
15.865,0.108
15.870,0.098
15.875,0.096
15.880,0.097
15.885,0.091
15.890,0.078
15.895,0.072
15.900,0.073
15.905,0.073
15.910,0.070
15.915,0.059
15.920,0.061
15.925,0.072
15.930,0.065
15.935,0.045
15.940,0.028
15.945,0.015
15.950,0.001
15.955,-0.010
15.960,-0.007
15.965,-0.008
15.970,-0.032
15.975,-0.072
15.980,-0.091
15.985,-0.094
15.990,-0.100
15.995,-0.094
16.000,-0.076
16.005,-0.054
16.010,-0.030
16.015,-0.003
16.020,0.030
16.025,0.069
16.030,0.106
16.035,0.138
16.040,0.163
16.045,0.168
16.050,0.163
16.055,0.162
16.060,0.161
16.065,0.152
16.070,0.144
16.075,0.137
16.080,0.127
16.085,0.125
16.090,0.122
16.095,0.116
16.100,0.112
16.105,0.112
16.110,0.121
16.115,0.098
16.120,0.003
16.125,-0.136
16.130,-0.299
16.135,-0.463
16.140,-0.541
16.145,-0.412
16.150,-0.130
16.155,0.159
16.160,0.462
16.165,0.751
16.170,0.954
16.175,0.969
16.180,0.763
16.185,0.510
16.190,0.317
16.195,0.150
16.200,0.022
16.205,-0.036
16.210,-0.071
16.215,-0.111
16.220,-0.131
16.225,-0.142
16.230,-0.152
16.235,-0.149
16.240,-0.146
16.245,-0.143
16.250,-0.147
16.255,-0.163
16.260,-0.162
16.265,-0.147
16.270,-0.137
16.275,-0.134
16.280,-0.145
16.285,-0.155
16.290,-0.154
16.295,-0.157
16.300,-0.158
16.305,-0.154
16.310,-0.159
16.315,-0.160
16.320,-0.156
16.325,-0.151
16.330,-0.149
16.335,-0.170
16.340,-0.186
16.345,-0.176
16.350,-0.172
16.355,-0.178
16.360,-0.190
16.365,-0.206
16.370,-0.206
16.375,-0.198
16.380,-0.186
16.385,-0.169
16.390,-0.171
16.395,-0.170
16.400,-0.168
16.405,-0.171
16.410,-0.158
16.415,-0.147
16.420,-0.146
16.425,-0.141
16.430,-0.135
16.435,-0.121
16.440,-0.092
16.445,-0.071
16.450,-0.057
16.455,-0.023
16.460,0.008
16.465,0.024
16.470,0.053
16.475,0.078
16.480,0.091
16.485,0.106
16.490,0.113
16.495,0.109
16.500,0.103
16.505,0.085
16.510,0.086
16.515,0.100
16.520,0.106
16.525,0.108
16.530,0.094
16.535,0.083
16.540,0.087
16.545,0.083
16.550,0.079
16.555,0.075
16.560,0.063
16.565,0.061
16.570,0.057
16.575,0.046
16.580,0.046
16.585,0.050
16.590,0.046
16.595,0.048
16.600,0.060
16.605,0.070
16.610,0.071
16.615,0.052
16.620,0.034
16.625,0.033
16.630,0.014
16.635,-0.014
16.640,-0.018
16.645,-0.009
16.650,-0.009
16.655,-0.041
16.660,-0.077
16.665,-0.089
16.670,-0.091
16.675,-0.081
16.680,-0.060
16.685,-0.040
16.690,-0.021
16.695,0.003
16.700,0.037
16.705,0.076
16.710,0.110
16.715,0.137
16.720,0.160
16.725,0.172
16.730,0.165
16.735,0.159
16.740,0.157
16.745,0.150
16.750,0.144
16.755,0.141
16.760,0.137
16.765,0.127
16.770,0.122
16.775,0.126
16.780,0.121
16.785,0.118
16.790,0.132
16.795,0.119
16.800,0.023
16.805,-0.138
16.810,-0.310
16.815,-0.478
16.820,-0.599
16.825,-0.523
16.830,-0.236
16.835,0.106
16.840,0.442
16.845,0.746
16.850,0.974
16.855,1.042
16.860,0.886
16.865,0.623
16.870,0.395
16.875,0.207
16.880,0.063
16.885,-0.010
16.890,-0.053
16.895,-0.092
16.900,-0.110
16.905,-0.119
16.910,-0.130
16.915,-0.139
16.920,-0.141
16.925,-0.141
16.930,-0.145
16.935,-0.149
16.940,-0.150
16.945,-0.147
16.950,-0.146
16.955,-0.148
16.960,-0.145
16.965,-0.139
16.970,-0.139
16.975,-0.142
16.980,-0.148
16.985,-0.153
16.990,-0.152
16.995,-0.149
17.000,-0.148
17.005,-0.152
17.010,-0.156
17.015,-0.165
17.020,-0.172
17.025,-0.173
17.030,-0.180
17.035,-0.185
17.040,-0.189
17.045,-0.195
17.050,-0.198
17.055,-0.199
17.060,-0.193
17.065,-0.190
17.070,-0.187
17.075,-0.182
17.080,-0.182
17.085,-0.175
17.090,-0.165
17.095,-0.159
17.100,-0.153
17.105,-0.147
17.110,-0.138
17.115,-0.127
17.120,-0.111
17.125,-0.088
17.130,-0.068
17.135,-0.045
17.140,-0.020
17.145,0.006
17.150,0.036
17.155,0.059
17.160,0.080
17.165,0.094
17.170,0.101
17.175,0.111
17.180,0.112
17.185,0.110
17.190,0.109
17.195,0.104
17.200,0.100
17.205,0.094
17.210,0.091
17.215,0.091
17.220,0.087
17.225,0.083
17.230,0.074
17.235,0.069
17.240,0.069
17.245,0.063
17.250,0.058
17.255,0.055
17.260,0.056
17.265,0.055
17.270,0.051
17.275,0.055
17.280,0.059
17.285,0.056
17.290,0.049
17.295,0.035
17.300,0.022
17.305,0.009
17.310,-0.005
17.315,-0.015
17.320,-0.020
17.325,-0.022
17.330,-0.040
17.335,-0.072
17.340,-0.092
17.345,-0.102
17.350,-0.096
17.355,-0.078
17.360,-0.062
17.365,-0.046
17.370,-0.022
17.375,0.014
17.380,0.052
17.385,0.085
17.390,0.118
17.395,0.145
17.400,0.159
17.405,0.163
17.410,0.163
17.415,0.163
17.420,0.159
17.425,0.153
17.430,0.145
17.435,0.140
17.440,0.136
17.445,0.129
17.450,0.123
17.455,0.120
17.460,0.117
17.465,0.120
17.470,0.115
17.475,0.059
17.480,-0.071
17.485,-0.239
17.490,-0.403
17.495,-0.537
17.500,-0.561
17.505,-0.365
17.510,-0.039
17.515,0.283
17.520,0.601
17.525,0.857
17.530,0.979
17.535,0.908
17.540,0.672
17.545,0.439
17.550,0.269
17.555,0.118
17.560,0.012
17.565,-0.032
17.570,-0.071
17.575,-0.104
17.580,-0.115
17.585,-0.122
17.590,-0.128
17.595,-0.132
17.600,-0.135
17.605,-0.137
17.610,-0.136
17.615,-0.139
17.620,-0.144
17.625,-0.141
17.630,-0.142
17.635,-0.142
17.640,-0.142
17.645,-0.143
17.650,-0.144
17.655,-0.146
17.660,-0.144
17.665,-0.145
17.670,-0.151
17.675,-0.157
17.680,-0.162
17.685,-0.166
17.690,-0.170
17.695,-0.175
17.700,-0.179
17.705,-0.183
17.710,-0.190
17.715,-0.197
17.720,-0.204
17.725,-0.206
17.730,-0.212
17.735,-0.213
17.740,-0.206
17.745,-0.201
17.750,-0.197
17.755,-0.189
17.760,-0.178
17.765,-0.172
17.770,-0.170
17.775,-0.162
17.780,-0.157
17.785,-0.154
17.790,-0.143
17.795,-0.124
17.800,-0.097
17.805,-0.071
17.810,-0.045
17.815,-0.019
17.820,0.008
17.825,0.034
17.830,0.055
17.835,0.072
17.840,0.087
17.845,0.097
17.850,0.106
17.855,0.112
17.860,0.115
17.865,0.117
17.870,0.115
17.875,0.116
17.880,0.114
17.885,0.109
17.890,0.106
17.895,0.100
17.900,0.096
17.905,0.092
17.910,0.088
17.915,0.082
17.920,0.077
17.925,0.078
17.930,0.075
17.935,0.071
17.940,0.072
17.945,0.067
17.950,0.065
17.955,0.064
17.960,0.061
17.965,0.059
17.970,0.054
17.975,0.046
17.980,0.030
17.985,0.008
17.990,-0.010
17.995,-0.015
18.000,-0.010
18.005,-0.014
18.010,-0.040
18.015,-0.071
18.020,-0.090
18.025,-0.096
18.030,-0.092
18.035,-0.074
18.040,-0.055
18.045,-0.040
18.050,-0.016
18.055,0.019
18.060,0.057
18.065,0.090
18.070,0.119
18.075,0.147
18.080,0.160
18.085,0.160
18.090,0.162
18.095,0.161
18.100,0.157
18.105,0.152
18.110,0.148
18.115,0.143
18.120,0.134
18.125,0.129
18.130,0.123
18.135,0.117
18.140,0.115
18.145,0.120
18.150,0.114
18.155,0.051
18.160,-0.082
18.165,-0.247
18.170,-0.405
18.175,-0.531
18.180,-0.546
18.185,-0.340
18.190,-0.008
18.195,0.321
18.200,0.645
18.205,0.880
18.210,0.965
18.215,0.864
18.220,0.616
18.225,0.396
18.230,0.238
18.235,0.091
18.240,0.000
18.245,-0.039
18.250,-0.075
18.255,-0.102
18.260,-0.109
18.265,-0.117
18.270,-0.125
18.275,-0.129
18.280,-0.131
18.285,-0.132
18.290,-0.132
18.295,-0.136
18.300,-0.138
18.305,-0.139
18.310,-0.139
18.315,-0.140
18.320,-0.141
18.325,-0.139
18.330,-0.139
18.335,-0.142
18.340,-0.144
18.345,-0.148
18.350,-0.152
18.355,-0.154
18.360,-0.156
18.365,-0.159
18.370,-0.166
18.375,-0.172
18.380,-0.179
18.385,-0.186
18.390,-0.191
18.395,-0.200
18.400,-0.207
18.405,-0.213
18.410,-0.220
18.415,-0.228
18.420,-0.230
18.425,-0.223
18.430,-0.216
18.435,-0.208
18.440,-0.198
18.445,-0.188
18.450,-0.176
18.455,-0.164
18.460,-0.158
18.465,-0.153
18.470,-0.143
18.475,-0.120
18.480,-0.092
18.485,-0.067
18.490,-0.042
18.495,-0.015
18.500,0.015
18.505,0.044
18.510,0.065
18.515,0.082
18.520,0.094
18.525,0.109
18.530,0.119
18.535,0.121
18.540,0.124
18.545,0.123
18.550,0.124
18.555,0.129
18.560,0.132
18.565,0.129
18.570,0.120
18.575,0.111
18.580,0.101
18.585,0.100
18.590,0.101
18.595,0.097
18.600,0.093
18.605,0.085
18.610,0.078
18.615,0.078
18.620,0.078
18.625,0.078
18.630,0.073
18.635,0.070
18.640,0.074
18.645,0.073
18.650,0.067
18.655,0.057
18.660,0.046
18.665,0.029
18.670,0.003
18.675,-0.012
18.680,-0.017
18.685,-0.019
18.690,-0.025
18.695,-0.050
18.700,-0.079
18.705,-0.101
18.710,-0.107
18.715,-0.089
18.720,-0.067
18.725,-0.048
18.730,-0.034
18.735,-0.013
18.740,0.027
18.745,0.063
18.750,0.096
18.755,0.132
18.760,0.153
18.765,0.157
18.770,0.151
18.775,0.148
18.780,0.150
18.785,0.151
18.790,0.152
18.795,0.147
18.800,0.133
18.805,0.116
18.810,0.103
18.815,0.104
18.820,0.112
18.825,0.119
18.830,0.121
18.835,0.094
18.840,0.009
18.845,-0.127
18.850,-0.283
18.855,-0.430
18.860,-0.531
18.865,-0.449
18.870,-0.185
18.875,0.106
18.880,0.410
18.885,0.701
18.890,0.909
18.895,0.957
18.900,0.794
18.905,0.548
18.910,0.344
18.915,0.169
18.920,0.036
18.925,-0.022
18.930,-0.063
18.935,-0.106
18.940,-0.126
18.945,-0.139
18.950,-0.145
18.955,-0.148
18.960,-0.156
18.965,-0.154
18.970,-0.146
18.975,-0.140
18.980,-0.141
18.985,-0.151
18.990,-0.152
18.995,-0.146
19.000,-0.145
19.005,-0.155
19.010,-0.160
19.015,-0.157
19.020,-0.160
19.025,-0.158
19.030,-0.157
19.035,-0.156
19.040,-0.148
19.045,-0.157
19.050,-0.173
19.055,-0.181
19.060,-0.182
19.065,-0.182
19.070,-0.190
19.075,-0.191
19.080,-0.192
19.085,-0.200
19.090,-0.205
19.095,-0.208
19.100,-0.199
19.105,-0.186
19.110,-0.185
19.115,-0.192
19.120,-0.189
19.125,-0.171
19.130,-0.158
19.135,-0.150
19.140,-0.145
19.145,-0.150
19.150,-0.147
19.155,-0.129
19.160,-0.102
19.165,-0.074
19.170,-0.053
19.175,-0.032
19.180,-0.005
19.185,0.025
19.190,0.053
19.195,0.071
19.200,0.085
19.205,0.100
19.210,0.106
19.215,0.110
19.220,0.115
19.225,0.114
19.230,0.115
19.235,0.119
19.240,0.113
19.245,0.103
19.250,0.102
19.255,0.101
19.260,0.096
19.265,0.086
19.270,0.084
19.275,0.089
19.280,0.077
19.285,0.062
19.290,0.061
19.295,0.059
19.300,0.063
19.305,0.065
19.310,0.062
19.315,0.066
19.320,0.062
19.325,0.048
19.330,0.049
19.335,0.056
19.340,0.049
19.345,0.024
19.350,-0.008
19.355,-0.020
19.360,-0.011
19.365,-0.011
19.370,-0.027
19.375,-0.052
19.380,-0.077
19.385,-0.091
19.390,-0.088
19.395,-0.074
19.400,-0.056
19.405,-0.039
19.410,-0.019
19.415,0.014
19.420,0.046
19.425,0.071
19.430,0.106
19.435,0.143
19.440,0.171
19.445,0.178
19.450,0.166
19.455,0.162
19.460,0.163
19.465,0.154
19.470,0.150
19.475,0.150
19.480,0.139
19.485,0.130
19.490,0.130
19.495,0.126
19.500,0.119
19.505,0.126
19.510,0.130
19.515,0.082
19.520,-0.040
19.525,-0.198
19.530,-0.362
19.535,-0.517
19.540,-0.555
19.545,-0.363
19.550,-0.048
19.555,0.262
19.560,0.576
19.565,0.855
19.570,1.018
19.575,0.968
19.580,0.730
19.585,0.479
19.590,0.291
19.595,0.131
19.600,0.015
19.605,-0.045
19.610,-0.089
19.615,-0.121
19.620,-0.129
19.625,-0.136
19.630,-0.149
19.635,-0.150
19.640,-0.149
19.645,-0.155
19.650,-0.152
19.655,-0.147
19.660,-0.148
19.665,-0.148
19.670,-0.149
19.675,-0.149
19.680,-0.149
19.685,-0.152
19.690,-0.152
19.695,-0.151
19.700,-0.149
19.705,-0.148
19.710,-0.153
19.715,-0.158
19.720,-0.159
19.725,-0.161
19.730,-0.165
19.735,-0.168
19.740,-0.169
19.745,-0.172
19.750,-0.179
19.755,-0.188
19.760,-0.194
19.765,-0.197
19.770,-0.195
19.775,-0.187
19.780,-0.182
19.785,-0.176
19.790,-0.172
19.795,-0.170
19.800,-0.165
19.805,-0.157
19.810,-0.152
19.815,-0.151
19.820,-0.149
19.825,-0.140
19.830,-0.128
19.835,-0.114
19.840,-0.091
19.845,-0.070
19.850,-0.049
19.855,-0.023
19.860,0.002
19.865,0.027
19.870,0.049
19.875,0.067
19.880,0.081
19.885,0.091
19.890,0.104
19.895,0.113
19.900,0.115
19.905,0.109
19.910,0.100
19.915,0.099
19.920,0.098
19.925,0.090
19.930,0.085
19.935,0.085
19.940,0.086
19.945,0.080
19.950,0.071
19.955,0.063
19.960,0.058
19.965,0.055
19.970,0.053
19.975,0.053
19.980,0.049
19.985,0.046
19.990,0.051
19.995,0.053
20.000,0.050
20.005,0.044
20.010,0.032
20.015,0.018
20.020,0.001
20.025,-0.010
20.030,-0.012
20.035,-0.016
20.040,-0.030
20.045,-0.058
20.050,-0.082
20.055,-0.091
20.060,-0.096
20.065,-0.089
20.070,-0.074
20.075,-0.057
20.080,-0.038
20.085,-0.010
20.090,0.032
20.095,0.070
20.100,0.100
20.105,0.130
20.110,0.151
20.115,0.163
20.120,0.166
20.125,0.164
20.130,0.161
20.135,0.154
20.140,0.150
20.145,0.149
20.150,0.142
20.155,0.132
20.160,0.126
20.165,0.124
20.170,0.121
20.175,0.123
20.180,0.131
20.185,0.111
20.190,0.025
20.195,-0.125
20.200,-0.300
20.205,-0.457
20.210,-0.567
20.215,-0.501
20.220,-0.225
20.225,0.096
20.230,0.415
20.235,0.713
20.240,0.928
20.245,0.986
20.250,0.832
20.255,0.584
20.260,0.379
20.265,0.212
20.270,0.071
20.275,-0.007
20.280,-0.047
20.285,-0.085
20.290,-0.108
20.295,-0.118
20.300,-0.124
20.305,-0.129
20.310,-0.133
20.315,-0.134
20.320,-0.134
20.325,-0.137
20.330,-0.139
20.335,-0.143
20.340,-0.143
20.345,-0.148
20.350,-0.151
20.355,-0.144
20.360,-0.143
20.365,-0.147
20.370,-0.145
20.375,-0.144
20.380,-0.148
20.385,-0.153
20.390,-0.155
20.395,-0.159
20.400,-0.164
20.405,-0.168
20.410,-0.174
20.415,-0.178
20.420,-0.183
20.425,-0.190
20.430,-0.196
20.435,-0.203
20.440,-0.209
20.445,-0.211
20.450,-0.210
20.455,-0.203
20.460,-0.196
20.465,-0.191
20.470,-0.187
20.475,-0.180
20.480,-0.175
20.485,-0.170
20.490,-0.160
20.495,-0.153
20.500,-0.144
20.505,-0.127
20.510,-0.107
20.515,-0.085
20.520,-0.062
20.525,-0.036
20.530,-0.008
20.535,0.018
20.540,0.044
20.545,0.064
20.550,0.083
20.555,0.098
20.560,0.104
20.565,0.111
20.570,0.115
20.575,0.116
20.580,0.117
20.585,0.115
20.590,0.115
20.595,0.112
20.600,0.105
20.605,0.100
20.610,0.097
20.615,0.096
20.620,0.092
20.625,0.084
20.630,0.078
20.635,0.074
20.640,0.075
20.645,0.070
20.650,0.066
20.655,0.065
20.660,0.062
20.665,0.059
20.670,0.059
20.675,0.061
20.680,0.057
20.685,0.046
20.690,0.033
20.695,0.013
20.700,-0.006
20.705,-0.013
20.710,-0.014
20.715,-0.018
20.720,-0.039
20.725,-0.070
20.730,-0.088
20.735,-0.097
20.740,-0.094
20.745,-0.077
20.750,-0.059
20.755,-0.040
20.760,-0.021
20.765,0.009
20.770,0.049
20.775,0.084
20.780,0.116
20.785,0.145
20.790,0.162
20.795,0.164
20.800,0.159
20.805,0.159
20.810,0.157
20.815,0.151
20.820,0.145
20.825,0.139
20.830,0.136
20.835,0.132
20.840,0.127
20.845,0.117
20.850,0.111
20.855,0.123
20.860,0.118
20.865,0.056
20.870,-0.069
20.875,-0.230
20.880,-0.389
20.885,-0.520
20.890,-0.546
20.895,-0.354
20.900,-0.030
20.905,0.296
20.910,0.616
20.915,0.855
20.920,0.956
20.925,0.876
20.930,0.638
20.935,0.410
20.940,0.250
20.945,0.102
20.950,0.001
20.955,-0.038
20.960,-0.074
20.965,-0.103
20.970,-0.113
20.975,-0.120
20.980,-0.126
20.985,-0.129
20.990,-0.131
20.995,-0.135
21.000,-0.136
21.005,-0.136
21.010,-0.140
21.015,-0.139
21.020,-0.139
21.025,-0.140
21.030,-0.139
21.035,-0.142
21.040,-0.142
21.045,-0.142
21.050,-0.146
21.055,-0.146
21.060,-0.149
21.065,-0.154
21.070,-0.157
21.075,-0.161
21.080,-0.167
21.085,-0.175
21.090,-0.181
21.095,-0.186
21.100,-0.193
21.105,-0.200
21.110,-0.206
21.115,-0.209
21.120,-0.209
21.125,-0.210
21.130,-0.208
21.135,-0.204
21.140,-0.197
21.145,-0.193
21.150,-0.189
21.155,-0.181
21.160,-0.176
21.165,-0.169
21.170,-0.159
21.175,-0.151
21.180,-0.139
21.185,-0.121
21.190,-0.097
21.195,-0.073
21.200,-0.049
21.205,-0.020
21.210,0.006
21.215,0.032
21.220,0.056
21.225,0.074
21.230,0.091
21.235,0.101
21.240,0.107
21.245,0.113
21.250,0.117
21.255,0.120
21.260,0.120
21.265,0.119
21.270,0.118
21.275,0.115
21.280,0.111
21.285,0.106
21.290,0.102
21.295,0.097
21.300,0.091
21.305,0.092
21.310,0.086
21.315,0.079
21.320,0.077
21.325,0.074
21.330,0.071
21.335,0.068
21.340,0.068
21.345,0.066
21.350,0.062
21.355,0.062
21.360,0.059
21.365,0.051
21.370,0.038
21.375,0.019
21.380,-0.002
21.385,-0.017
21.390,-0.017
21.395,-0.017
21.400,-0.032
21.405,-0.062
21.410,-0.090
21.415,-0.101
21.420,-0.101
21.425,-0.090
21.430,-0.072
21.435,-0.056
21.440,-0.035
21.445,-0.007
21.450,0.029
21.455,0.071
21.460,0.103
21.465,0.130
21.470,0.154
21.475,0.162
21.480,0.161
21.485,0.159
21.490,0.157
21.495,0.152
21.500,0.143
21.505,0.139
21.510,0.133
21.515,0.125
21.520,0.118
21.525,0.107
21.530,0.098
21.535,0.097
21.540,0.102
21.545,0.073
21.550,-0.026
21.555,-0.167
21.560,-0.321
21.565,-0.461
21.570,-0.546
21.575,-0.444
21.580,-0.143
21.585,0.193
21.590,0.524
21.595,0.791
21.600,0.940
21.605,0.936
21.610,0.740
21.615,0.488
21.620,0.305
21.625,0.152
21.630,0.029
21.635,-0.030
21.640,-0.065
21.645,-0.096
21.650,-0.111
21.655,-0.117
21.660,-0.122
21.665,-0.124
21.670,-0.127
21.675,-0.132
21.680,-0.130
21.685,-0.131
21.690,-0.134
21.695,-0.131
21.700,-0.133
21.705,-0.135
21.710,-0.137
21.715,-0.137
21.720,-0.136
21.725,-0.142
21.730,-0.150
21.735,-0.151
21.740,-0.145
21.745,-0.148
21.750,-0.155
21.755,-0.154
21.760,-0.159
21.765,-0.165
21.770,-0.168
21.775,-0.175
21.780,-0.183
21.785,-0.196
21.790,-0.204
21.795,-0.206
21.800,-0.209
21.805,-0.212
21.810,-0.214
21.815,-0.209
21.820,-0.199
21.825,-0.192
21.830,-0.187
21.835,-0.187
21.840,-0.181
21.845,-0.167
21.850,-0.155
21.855,-0.143
21.860,-0.139
21.865,-0.135
21.870,-0.114
21.875,-0.087
21.880,-0.059
21.885,-0.028
21.890,0.003
21.895,0.031
21.900,0.054
21.905,0.069
21.910,0.084
21.915,0.105
21.920,0.119
21.925,0.124
21.930,0.127
21.935,0.126
21.940,0.125
21.945,0.121
21.950,0.118
21.955,0.123
21.960,0.120
21.965,0.116
21.970,0.117
21.975,0.110
21.980,0.101
21.985,0.096
21.990,0.090
21.995,0.083
22.000,0.076
22.005,0.074
22.010,0.073
22.015,0.067
22.020,0.062
22.025,0.064
22.030,0.066
22.035,0.066
22.040,0.067
22.045,0.062
22.050,0.050
22.055,0.046
22.060,0.043
22.065,0.041
22.070,0.032
22.075,0.003
22.080,-0.016
22.085,-0.018
22.090,-0.020
22.095,-0.034
22.100,-0.072
22.105,-0.102
22.110,-0.113
22.115,-0.117
22.120,-0.102
22.125,-0.076
22.130,-0.054
22.135,-0.035
22.140,-0.006
22.145,0.030
22.150,0.064
22.155,0.105
22.160,0.135
22.165,0.151
22.170,0.159
22.175,0.153
22.180,0.149
22.185,0.153
22.190,0.145
22.195,0.137
22.200,0.136
22.205,0.127
22.210,0.115
22.215,0.118
22.220,0.119
22.225,0.108
22.230,0.110
22.235,0.118
22.240,0.086
22.245,-0.018
22.250,-0.164
22.255,-0.307
22.260,-0.446
22.265,-0.511
22.270,-0.361
22.275,-0.080
22.280,0.183
22.285,0.458
22.290,0.722
22.295,0.916
22.300,0.926
22.305,0.721
22.310,0.474
22.315,0.278
22.320,0.108
22.325,-0.004
22.330,-0.043
22.335,-0.074
22.340,-0.107
22.345,-0.127
22.350,-0.145
22.355,-0.151
22.360,-0.144
22.365,-0.142
22.370,-0.147
22.375,-0.149
22.380,-0.144
22.385,-0.143
22.390,-0.150
22.395,-0.156
22.400,-0.154
22.405,-0.152
22.410,-0.158
22.415,-0.153
22.420,-0.143
22.425,-0.145
22.430,-0.154
22.435,-0.159
22.440,-0.158
22.445,-0.158
22.450,-0.165
22.455,-0.169
22.460,-0.170
22.465,-0.169
22.470,-0.169
22.475,-0.174
22.480,-0.180
22.485,-0.183
22.490,-0.190
22.495,-0.200
22.500,-0.200
22.505,-0.193
22.510,-0.192
22.515,-0.182
22.520,-0.166
22.525,-0.160
22.530,-0.150
22.535,-0.141
22.540,-0.141
22.545,-0.144
22.550,-0.144
22.555,-0.130
22.560,-0.115
22.565,-0.103
22.570,-0.083
22.575,-0.058
22.580,-0.027
22.585,-0.005
22.590,0.018
22.595,0.049
22.600,0.065
22.605,0.080
22.610,0.098
22.615,0.103
22.620,0.108
22.625,0.113
22.630,0.116
22.635,0.110
22.640,0.097
22.645,0.095
22.650,0.100
22.655,0.098
22.660,0.086
22.665,0.074
22.670,0.073
22.675,0.073
22.680,0.069
22.685,0.068
22.690,0.066
22.695,0.062
22.700,0.059
22.705,0.059
22.710,0.060
22.715,0.065
22.720,0.069
22.725,0.066
22.730,0.062
22.735,0.061
22.740,0.061
22.745,0.051
22.750,0.037
22.755,0.025
22.760,0.002
22.765,-0.016
22.770,-0.015
22.775,-0.018
22.780,-0.037
22.785,-0.067
22.790,-0.088
22.795,-0.094
22.800,-0.094
22.805,-0.079
22.810,-0.063
22.815,-0.050
22.820,-0.028
22.825,0.002
22.830,0.040
22.835,0.078
22.840,0.109
22.845,0.140
22.850,0.167
22.855,0.175
22.860,0.168
22.865,0.163
22.870,0.162
22.875,0.156
22.880,0.146
22.885,0.136
22.890,0.135
22.895,0.137
22.900,0.132
22.905,0.127
22.910,0.122
22.915,0.126
22.920,0.134
22.925,0.088
22.930,-0.036
22.935,-0.194
22.940,-0.357
22.945,-0.508
22.950,-0.563
22.955,-0.392
22.960,-0.087
22.965,0.208
22.970,0.513
22.975,0.785
22.980,0.963
22.985,0.950
22.990,0.738
22.995,0.498
23.000,0.312
23.005,0.151
23.010,0.033
23.015,-0.022
23.020,-0.059
23.025,-0.096
23.030,-0.109
23.035,-0.113
23.040,-0.124
23.045,-0.129
23.050,-0.129
23.055,-0.129
23.060,-0.131
23.065,-0.136
23.070,-0.138
23.075,-0.139
23.080,-0.140
23.085,-0.144
23.090,-0.149
23.095,-0.147
23.100,-0.143
23.105,-0.137
23.110,-0.135
23.115,-0.141
23.120,-0.146
23.125,-0.152
23.130,-0.156
23.135,-0.160
23.140,-0.166
23.145,-0.166
23.150,-0.168
23.155,-0.175
23.160,-0.182
23.165,-0.185
23.170,-0.183
23.175,-0.188
23.180,-0.192
23.185,-0.192
23.190,-0.190
23.195,-0.188
23.200,-0.187
23.205,-0.178
23.210,-0.169
23.215,-0.163
23.220,-0.154
23.225,-0.151
23.230,-0.147
23.235,-0.140
23.240,-0.134
23.245,-0.121
23.250,-0.101
23.255,-0.076
23.260,-0.052
23.265,-0.030
23.270,-0.002
23.275,0.024
23.280,0.045
23.285,0.065
23.290,0.079
23.295,0.088
23.300,0.096
23.305,0.105
23.310,0.110
23.315,0.108
23.320,0.105
23.325,0.100
23.330,0.096
23.335,0.094
23.340,0.091
23.345,0.089
23.350,0.081
23.355,0.077
23.360,0.074
23.365,0.070
23.370,0.070
23.375,0.064
23.380,0.058
23.385,0.058
23.390,0.056
23.395,0.052
23.400,0.049
23.405,0.050
23.410,0.051
23.415,0.054
23.420,0.056
23.425,0.045
23.430,0.029
23.435,0.011
23.440,-0.010
23.445,-0.018
23.450,-0.017
23.455,-0.017
23.460,-0.032
23.465,-0.065
23.470,-0.088
23.475,-0.097
23.480,-0.100
23.485,-0.086
23.490,-0.068
23.495,-0.051
23.500,-0.030
23.505,0.001
23.510,0.037
23.515,0.071
23.520,0.106
23.525,0.136
23.530,0.157
23.535,0.163
23.540,0.159
23.545,0.160
23.550,0.159
23.555,0.153
23.560,0.146
23.565,0.140
23.570,0.139
23.575,0.134
23.580,0.129
23.585,0.124
23.590,0.118
23.595,0.121
23.600,0.121
23.605,0.076
23.610,-0.043
23.615,-0.204
23.620,-0.365
23.625,-0.508
23.630,-0.561
23.635,-0.396
23.640,-0.085
23.645,0.218
23.650,0.527
23.655,0.795
23.660,0.947
23.665,0.918
23.670,0.701
23.675,0.459
23.680,0.286
23.685,0.135
23.690,0.021
23.695,-0.023
23.700,-0.058
23.705,-0.092
23.710,-0.105
23.715,-0.114
23.720,-0.120
23.725,-0.125
23.730,-0.130
23.735,-0.132
23.740,-0.134
23.745,-0.135
23.750,-0.138
23.755,-0.137
23.760,-0.138
23.765,-0.142
23.770,-0.140
23.775,-0.137
23.780,-0.138
23.785,-0.138
23.790,-0.140
23.795,-0.141
23.800,-0.144
23.805,-0.149
23.810,-0.156
23.815,-0.159
23.820,-0.159
23.825,-0.167
23.830,-0.174
23.835,-0.179
23.840,-0.185
23.845,-0.190
23.850,-0.196
23.855,-0.200
23.860,-0.203
23.865,-0.207
23.870,-0.204
23.875,-0.202
23.880,-0.199
23.885,-0.190
23.890,-0.183
23.895,-0.175
23.900,-0.169
23.905,-0.166
23.910,-0.160
23.915,-0.153
23.920,-0.136
23.925,-0.121
23.930,-0.103
23.935,-0.077
23.940,-0.050
23.945,-0.025
23.950,0.000
23.955,0.025
23.960,0.050
23.965,0.070
23.970,0.089
23.975,0.099
23.980,0.105
23.985,0.111
23.990,0.113
23.995,0.116
24.000,0.115
24.005,0.115
24.010,0.117
24.015,0.113
24.020,0.110
24.025,0.104
24.030,0.098
24.035,0.096
24.040,0.090
24.045,0.084
24.050,0.079
24.055,0.073
24.060,0.071
24.065,0.072
24.070,0.074
24.075,0.071
24.080,0.066
24.085,0.065
24.090,0.064
24.095,0.063
24.100,0.062
24.105,0.059
24.110,0.050
24.115,0.036
24.120,0.020
24.125,-0.003
24.130,-0.016
24.135,-0.013
24.140,-0.015
24.145,-0.030
24.150,-0.059
24.155,-0.083
24.160,-0.095
24.165,-0.101
24.170,-0.090
24.175,-0.071
24.180,-0.053
24.185,-0.032
24.190,-0.005
24.195,0.032
24.200,0.068
24.205,0.099
24.210,0.126
24.215,0.148
24.220,0.161
24.225,0.159
24.230,0.154
24.235,0.153
24.240,0.149
24.245,0.146
24.250,0.142
24.255,0.136
24.260,0.129
24.265,0.122
24.270,0.118
24.275,0.111
24.280,0.111
24.285,0.118
24.290,0.088
24.295,-0.010
24.300,-0.157
24.305,-0.320
24.310,-0.463
24.315,-0.549
24.320,-0.446
24.325,-0.160
24.330,0.152
24.335,0.474
24.340,0.752
24.345,0.916
24.350,0.919
24.355,0.730
24.360,0.485
24.365,0.300
24.370,0.150
24.375,0.029
24.380,-0.026
24.385,-0.059
24.390,-0.096
24.395,-0.113
24.400,-0.118
24.405,-0.125
24.410,-0.129
24.415,-0.132
24.420,-0.134
24.425,-0.135
24.430,-0.137
24.435,-0.138
24.440,-0.141
24.445,-0.142
24.450,-0.143
24.455,-0.143
24.460,-0.143
24.465,-0.145
24.470,-0.144
24.475,-0.145
24.480,-0.149
24.485,-0.150
24.490,-0.153
24.495,-0.157
24.500,-0.159
24.505,-0.164
24.510,-0.172
24.515,-0.179
24.520,-0.183
24.525,-0.188
24.530,-0.195
24.535,-0.200
24.540,-0.205
24.545,-0.209
24.550,-0.209
24.555,-0.206
24.560,-0.202
24.565,-0.198
24.570,-0.191
24.575,-0.186
24.580,-0.181
24.585,-0.174
24.590,-0.169
24.595,-0.161
24.600,-0.154
24.605,-0.145
24.610,-0.129
24.615,-0.111
24.620,-0.087
24.625,-0.064
24.630,-0.037
24.635,-0.006
24.640,0.018
24.645,0.043
24.650,0.067
24.655,0.084
24.660,0.096
24.665,0.104
24.670,0.114
24.675,0.118
24.680,0.117
24.685,0.122
24.690,0.121
24.695,0.118
24.700,0.116
24.705,0.113
24.710,0.110
24.715,0.103
24.720,0.099
24.725,0.097
24.730,0.092
24.735,0.087
24.740,0.081
24.745,0.078
24.750,0.075
24.755,0.071
24.760,0.066
24.765,0.060
24.770,0.057
24.775,0.052
24.780,0.048
24.785,0.049
24.790,0.051
24.795,0.054
24.800,0.055
24.805,0.054
24.810,0.045
24.815,0.029
24.820,0.011
24.825,-0.009
24.830,-0.018
24.835,-0.019
24.840,-0.026
24.845,-0.044
24.850,-0.070
24.855,-0.091
24.860,-0.101
24.865,-0.098
24.870,-0.076
24.875,-0.056
24.880,-0.040
24.885,-0.017
24.890,0.013
24.895,0.048
24.900,0.084
24.905,0.115
24.910,0.142
24.915,0.160
24.920,0.165
24.925,0.160
24.930,0.157
24.935,0.155
24.940,0.149
24.945,0.142
24.950,0.135
24.955,0.131
24.960,0.128
24.965,0.120
24.970,0.112
24.975,0.105
24.980,0.109
24.985,0.103
24.990,0.035
24.995,-0.091
25.000,-0.242
25.005,-0.393
25.010,-0.518
25.015,-0.500
25.020,-0.262
25.025,0.047
25.030,0.347
25.035,0.640
25.040,0.863
25.045,0.952
25.050,0.842
25.055,0.599
25.060,0.383
25.065,0.216
25.070,0.075
25.075,-0.008
25.080,-0.048
25.085,-0.088
25.090,-0.116
25.095,-0.125
25.100,-0.136
25.105,-0.147
25.110,-0.144
25.115,-0.137
25.120,-0.138
25.125,-0.148
25.130,-0.150
25.135,-0.143
25.140,-0.144
25.145,-0.145
25.150,-0.144
25.155,-0.146
25.160,-0.148
25.165,-0.151
25.170,-0.146
25.175,-0.146
25.180,-0.158
25.185,-0.164
25.190,-0.165
25.195,-0.169
25.200,-0.172
25.205,-0.171
25.210,-0.171
25.215,-0.175
25.220,-0.178
25.225,-0.184
25.230,-0.190
25.235,-0.196
25.240,-0.202
25.245,-0.207
25.250,-0.211
25.255,-0.209
25.260,-0.204
25.265,-0.198
25.270,-0.184
25.275,-0.173
25.280,-0.164
25.285,-0.163
25.290,-0.169
25.295,-0.157
25.300,-0.140
25.305,-0.132
25.310,-0.119
25.315,-0.096
25.320,-0.067
25.325,-0.047
25.330,-0.025
25.335,0.007
25.340,0.037
25.345,0.067
25.350,0.089
25.355,0.100
25.360,0.102
25.365,0.100
25.370,0.106
25.375,0.115
25.380,0.118
25.385,0.121
25.390,0.124
25.395,0.118
25.400,0.109
25.405,0.106
25.410,0.104
25.415,0.094
25.420,0.085
25.425,0.082
25.430,0.083
25.435,0.077
25.440,0.066
25.445,0.068
25.450,0.074
25.455,0.065
25.460,0.056
25.465,0.053
25.470,0.065
25.475,0.077
25.480,0.068
25.485,0.057
25.490,0.048
25.495,0.038
25.500,0.023
25.505,-0.001
25.510,-0.024
25.515,-0.022
25.520,-0.010
25.525,-0.024
25.530,-0.061
25.535,-0.091
25.540,-0.102
25.545,-0.098
25.550,-0.082
25.555,-0.067
25.560,-0.057
25.565,-0.041
25.570,-0.007
25.575,0.037
25.580,0.073
25.585,0.097
25.590,0.125
25.595,0.161
25.600,0.174
25.605,0.165
25.610,0.155
25.615,0.149
25.620,0.152
25.625,0.146
25.630,0.139
25.635,0.140
25.640,0.128
25.645,0.114
25.650,0.114
25.655,0.113
25.660,0.116
25.665,0.130
25.670,0.110
25.675,0.016
25.680,-0.128
25.685,-0.282
25.690,-0.433
25.695,-0.528
25.700,-0.424
25.705,-0.151
25.710,0.129
25.715,0.407
25.720,0.689
25.725,0.918
25.730,0.966
25.735,0.785
25.740,0.532
25.745,0.339
25.750,0.176
25.755,0.036
25.760,-0.039
25.765,-0.076
25.770,-0.098
25.775,-0.108
25.780,-0.118
25.785,-0.130
25.790,-0.142
25.795,-0.145
25.800,-0.148
25.805,-0.153
25.810,-0.149
25.815,-0.150
25.820,-0.149
25.825,-0.145
25.830,-0.146
25.835,-0.136
25.840,-0.132
25.845,-0.135
25.850,-0.137
25.855,-0.146
25.860,-0.155
25.865,-0.160
25.870,-0.160
25.875,-0.156
25.880,-0.160
25.885,-0.161
25.890,-0.162
25.895,-0.167
25.900,-0.171
25.905,-0.182
25.910,-0.182
25.915,-0.171
25.920,-0.171
25.925,-0.179
25.930,-0.188
25.935,-0.184
25.940,-0.174
25.945,-0.167
25.950,-0.158
25.955,-0.152
25.960,-0.149
25.965,-0.147
25.970,-0.146
25.975,-0.145
25.980,-0.142
25.985,-0.131
25.990,-0.117
25.995,-0.102
26.000,-0.083
26.005,-0.059
26.010,-0.031
26.015,-0.008
26.020,0.017
26.025,0.044
26.030,0.065
26.035,0.080
26.040,0.084
26.045,0.091
26.050,0.100
26.055,0.101
26.060,0.101
26.065,0.099
26.070,0.097
26.075,0.096
26.080,0.093
26.085,0.087
26.090,0.079
26.095,0.074
26.100,0.073
26.105,0.072
26.110,0.065
26.115,0.055
26.120,0.053
26.125,0.055
26.130,0.056
26.135,0.055
26.140,0.052
26.145,0.054
26.150,0.056
26.155,0.055
26.160,0.057
26.165,0.059
26.170,0.058
26.175,0.053
26.180,0.045
26.185,0.036
26.190,0.015
26.195,-0.011
26.200,-0.019
26.205,-0.019
26.210,-0.025
26.215,-0.043
26.220,-0.073
26.225,-0.092
26.230,-0.097
26.235,-0.089
26.240,-0.072
26.245,-0.056
26.250,-0.038
26.255,-0.016
26.260,0.019
26.265,0.058
26.270,0.089
26.275,0.120
26.280,0.146
26.285,0.164
26.290,0.168
26.295,0.165
26.300,0.165
26.305,0.159
26.310,0.151
26.315,0.149
26.320,0.148
26.325,0.141
26.330,0.132
26.335,0.128
26.340,0.121
26.345,0.116
26.350,0.128
26.355,0.125
26.360,0.052
26.365,-0.090
26.370,-0.258
26.375,-0.422
26.380,-0.553
26.385,-0.529
26.390,-0.294
26.395,0.013
26.400,0.319
26.405,0.622
26.410,0.875
26.415,0.991
26.420,0.889
26.425,0.642
26.430,0.419
26.435,0.246
26.440,0.095
26.445,0.006
26.450,-0.033
26.455,-0.071
26.460,-0.099
26.465,-0.113
26.470,-0.125
26.475,-0.129
26.480,-0.130
26.485,-0.131
26.490,-0.130
26.495,-0.131
26.500,-0.133
26.505,-0.140
26.510,-0.145
26.515,-0.144
26.520,-0.145
26.525,-0.146
26.530,-0.141
26.535,-0.135
26.540,-0.139
26.545,-0.147
26.550,-0.152
26.555,-0.153
26.560,-0.152
26.565,-0.157
26.570,-0.161
26.575,-0.164
26.580,-0.171
26.585,-0.176
26.590,-0.184
26.595,-0.194
26.600,-0.199
26.605,-0.204
26.610,-0.205
26.615,-0.200
26.620,-0.198
26.625,-0.198
26.630,-0.196
26.635,-0.189
26.640,-0.181
26.645,-0.175
26.650,-0.166
26.655,-0.163
26.660,-0.159
26.665,-0.152
26.670,-0.143
26.675,-0.131
26.680,-0.118
26.685,-0.100
26.690,-0.076
26.695,-0.048
26.700,-0.022
26.705,-0.001
26.710,0.024
26.715,0.051
26.720,0.075
26.725,0.090
26.730,0.097
26.735,0.104
26.740,0.109
26.745,0.111
26.750,0.112
26.755,0.109
26.760,0.107
26.765,0.104
26.770,0.096
26.775,0.090
26.780,0.086
26.785,0.084
26.790,0.078
26.795,0.073
26.800,0.073
26.805,0.072
26.810,0.070
26.815,0.066
26.820,0.063
26.825,0.064
26.830,0.062
26.835,0.062
26.840,0.059
26.845,0.056
26.850,0.060
26.855,0.059
26.860,0.054
26.865,0.045
26.870,0.030
26.875,0.008
26.880,-0.012
26.885,-0.013
26.890,-0.012
26.895,-0.021
26.900,-0.044
26.905,-0.075
26.910,-0.094
26.915,-0.100
26.920,-0.097
26.925,-0.080
26.930,-0.058
26.935,-0.035
26.940,-0.014
26.945,0.018
26.950,0.059
26.955,0.093
26.960,0.122
26.965,0.145
26.970,0.160
26.975,0.166
26.980,0.162
26.985,0.161
26.990,0.155
26.995,0.151
27.000,0.147
27.005,0.139
27.010,0.135
27.015,0.131
27.020,0.126
27.025,0.119
27.030,0.115
27.035,0.126
27.040,0.114
27.045,0.038
27.050,-0.098
27.055,-0.263
27.060,-0.416
27.065,-0.537
27.070,-0.525
27.075,-0.295
27.080,0.019
27.085,0.333
27.090,0.641
27.095,0.872
27.100,0.960
27.105,0.845
27.110,0.597
27.115,0.383
27.120,0.226
27.125,0.087
27.130,0.003
27.135,-0.033
27.140,-0.068
27.145,-0.094
27.150,-0.101
27.155,-0.111
27.160,-0.117
27.165,-0.119
27.170,-0.124
27.175,-0.125
27.180,-0.129
27.185,-0.132
27.190,-0.136
27.195,-0.138
27.200,-0.135
27.205,-0.136
27.210,-0.134
27.215,-0.133
27.220,-0.137
27.225,-0.140
27.230,-0.142
27.235,-0.143
27.240,-0.146
27.245,-0.150
27.250,-0.151
27.255,-0.158
27.260,-0.164
27.265,-0.169
27.270,-0.173
27.275,-0.178
27.280,-0.186
27.285,-0.191
27.290,-0.196
27.295,-0.200
27.300,-0.200
27.305,-0.202
27.310,-0.199
27.315,-0.195
27.320,-0.189
27.325,-0.183
27.330,-0.179
27.335,-0.174
27.340,-0.168
27.345,-0.163
27.350,-0.153
27.355,-0.145
27.360,-0.131
27.365,-0.112
27.370,-0.091
27.375,-0.069
27.380,-0.046
27.385,-0.019
27.390,0.007
27.395,0.032
27.400,0.058
27.405,0.074
27.410,0.087
27.415,0.097
27.420,0.102
27.425,0.107
27.430,0.110
27.435,0.113
27.440,0.114
27.445,0.113
27.450,0.112
27.455,0.106
27.460,0.101
27.465,0.099
27.470,0.094
27.475,0.090
27.480,0.084
27.485,0.080
27.490,0.075
27.495,0.071
27.500,0.073
27.505,0.071
27.510,0.067
27.515,0.064
27.520,0.063
27.525,0.062
27.530,0.060
27.535,0.059
27.540,0.057
27.545,0.056
27.550,0.054
27.555,0.039
27.560,0.019
27.565,-0.002
27.570,-0.021
27.575,-0.022
27.580,-0.020
27.585,-0.031
27.590,-0.057
27.595,-0.085
27.600,-0.099
27.605,-0.106
27.610,-0.099
27.615,-0.079
27.620,-0.061
27.625,-0.043
27.630,-0.017
27.635,0.021
27.640,0.059
27.645,0.089
27.650,0.122
27.655,0.147
27.660,0.160
27.665,0.160
27.670,0.155
27.675,0.155
27.680,0.150
27.685,0.144
27.690,0.140
27.695,0.136
27.700,0.133
27.705,0.125
27.710,0.118
27.715,0.112
27.720,0.109
27.725,0.116
27.730,0.098
27.735,0.018
27.740,-0.121
27.745,-0.283
27.750,-0.425
27.755,-0.534
27.760,-0.494
27.765,-0.243
27.770,0.079
27.775,0.405
27.780,0.700
27.785,0.894
27.790,0.932
27.795,0.777
27.800,0.531
27.805,0.335
27.810,0.181
27.815,0.049
27.820,-0.022
27.825,-0.055
27.830,-0.086
27.835,-0.105
27.840,-0.114
27.845,-0.123
27.850,-0.126
27.855,-0.130
27.860,-0.134
27.865,-0.134
27.870,-0.137
27.875,-0.139
27.880,-0.140
27.885,-0.139
27.890,-0.140
27.895,-0.142
27.900,-0.139
27.905,-0.142
27.910,-0.146
27.915,-0.144
27.920,-0.146
27.925,-0.147
27.930,-0.148
27.935,-0.153
27.940,-0.158
27.945,-0.163
27.950,-0.168
27.955,-0.176
27.960,-0.184
27.965,-0.193
27.970,-0.207
27.975,-0.217
27.980,-0.224
27.985,-0.224
27.990,-0.220
27.995,-0.216
28.000,-0.207
28.005,-0.199
28.010,-0.192
28.015,-0.182
28.020,-0.172
28.025,-0.164
28.030,-0.162
28.035,-0.161
28.040,-0.157
28.045,-0.146
28.050,-0.126
28.055,-0.105
28.060,-0.086
28.065,-0.065
28.070,-0.037
28.075,-0.004
28.080,0.020
28.085,0.040
28.090,0.061
28.095,0.084
28.100,0.104
28.105,0.115
28.110,0.120
28.115,0.123
28.120,0.126
28.125,0.131
28.130,0.134
28.135,0.131
28.140,0.120
28.145,0.114
28.150,0.116
28.155,0.112
28.160,0.107
28.165,0.107
28.170,0.098
28.175,0.088
28.180,0.084
28.185,0.086
28.190,0.084
28.195,0.076
28.200,0.074
28.205,0.071
28.210,0.070
28.215,0.068
28.220,0.065
28.225,0.070
28.230,0.074
28.235,0.074
28.240,0.067
28.245,0.053
28.250,0.046
28.255,0.042
28.260,0.031
28.265,0.009
28.270,-0.016
28.275,-0.024
28.280,-0.025
28.285,-0.038
28.290,-0.071
28.295,-0.099
28.300,-0.105
28.305,-0.112
28.310,-0.106
28.315,-0.080
28.320,-0.055
28.325,-0.038
28.330,-0.018
28.335,0.016
28.340,0.057
28.345,0.097
28.350,0.129
28.355,0.151
28.360,0.164
28.365,0.166
28.370,0.155
28.375,0.143
28.380,0.135
28.385,0.133
28.390,0.137
28.395,0.130
28.400,0.116
28.405,0.108
28.410,0.108
28.415,0.113
28.420,0.117
28.425,0.118
28.430,0.089
28.435,0.001
28.440,-0.127
28.445,-0.270
28.450,-0.418
28.455,-0.520
28.460,-0.414
28.465,-0.136
28.470,0.128
28.475,0.400
28.480,0.682
28.485,0.902
28.490,0.946
28.495,0.756
28.500,0.500
28.505,0.309
28.510,0.147
28.515,0.017
28.520,-0.044
28.525,-0.077
28.530,-0.111
28.535,-0.120
28.540,-0.124
28.545,-0.141
28.550,-0.148
28.555,-0.152
28.560,-0.149
28.565,-0.142
28.570,-0.146
28.575,-0.148
28.580,-0.154
28.585,-0.156
28.590,-0.151
28.595,-0.151
28.600,-0.148
28.605,-0.147
28.610,-0.153
28.615,-0.154
28.620,-0.154
28.625,-0.159
28.630,-0.158
28.635,-0.157
28.640,-0.158
28.645,-0.158
28.650,-0.164
28.655,-0.175
28.660,-0.182
28.665,-0.183
28.670,-0.186
28.675,-0.193
28.680,-0.197
28.685,-0.195
28.690,-0.193
28.695,-0.192
28.700,-0.188
28.705,-0.186
28.710,-0.179
28.715,-0.166
28.720,-0.161
28.725,-0.159
28.730,-0.160
28.735,-0.159
28.740,-0.148
28.745,-0.132
28.750,-0.117
28.755,-0.103
28.760,-0.080
28.765,-0.056
28.770,-0.037
28.775,-0.021
28.780,0.004
28.785,0.043
28.790,0.068
28.795,0.072
28.800,0.081
28.805,0.098
28.810,0.111
28.815,0.117
28.820,0.112
28.825,0.105
28.830,0.106
28.835,0.104
28.840,0.096
28.845,0.093
28.850,0.088
28.855,0.074
28.860,0.071
28.865,0.081
28.870,0.076
28.875,0.071
28.880,0.076
28.885,0.074
28.890,0.062
28.895,0.047
28.900,0.049
28.905,0.060
28.910,0.068
28.915,0.066
28.920,0.063
28.925,0.063
28.930,0.048
28.935,0.042
28.940,0.047
28.945,0.028
28.950,0.000
28.955,-0.015
28.960,-0.011
28.965,-0.008
28.970,-0.034
28.975,-0.072
28.980,-0.096
28.985,-0.094
28.990,-0.081
28.995,-0.073
29.000,-0.051
29.005,-0.030
29.010,-0.013
29.015,0.020
29.020,0.060
29.025,0.095
29.030,0.129
29.035,0.156
29.040,0.168
29.045,0.166
29.050,0.164
29.055,0.161
29.060,0.155
29.065,0.152
29.070,0.147
29.075,0.140
29.080,0.135
29.085,0.131
29.090,0.130
29.095,0.127
29.100,0.130
29.105,0.140
29.110,0.133
29.115,0.064
29.120,-0.081
29.125,-0.243
29.130,-0.395
29.135,-0.538
29.140,-0.543
29.145,-0.313
29.150,0.002
29.155,0.308
29.160,0.621
29.165,0.884
29.170,1.013
29.175,0.923
29.180,0.674
29.185,0.437
29.190,0.253
29.195,0.096
29.200,-0.002
29.205,-0.048
29.210,-0.085
29.215,-0.103
29.220,-0.106
29.225,-0.116
29.230,-0.129
29.235,-0.131
29.240,-0.131
29.245,-0.137
29.250,-0.141
29.255,-0.146
29.260,-0.153
29.265,-0.154
29.270,-0.149
29.275,-0.146
29.280,-0.150
29.285,-0.155
29.290,-0.154
29.295,-0.150
29.300,-0.146
29.305,-0.150
29.310,-0.155
29.315,-0.155
29.320,-0.161
29.325,-0.163
29.330,-0.164
29.335,-0.169
29.340,-0.174
29.345,-0.183
29.350,-0.187
29.355,-0.185
29.360,-0.185
29.365,-0.189
29.370,-0.195
29.375,-0.192
29.380,-0.185
29.385,-0.180
29.390,-0.176
29.395,-0.169
29.400,-0.156
29.405,-0.151
29.410,-0.149
29.415,-0.142
29.420,-0.138
29.425,-0.132
29.430,-0.122
29.435,-0.109
29.440,-0.092
29.445,-0.073
29.450,-0.051
29.455,-0.026
29.460,0.002
29.465,0.034
29.470,0.057
29.475,0.074
29.480,0.085
29.485,0.094
29.490,0.104
29.495,0.110
29.500,0.112
29.505,0.106
29.510,0.099
29.515,0.095
29.520,0.092
29.525,0.095
29.530,0.089
29.535,0.078
29.540,0.076
29.545,0.074
29.550,0.071
29.555,0.063
29.560,0.055
29.565,0.058
29.570,0.058
29.575,0.054
29.580,0.057
29.585,0.060
29.590,0.059
29.595,0.055
29.600,0.055
29.605,0.053
29.610,0.053
29.615,0.053
29.620,0.039
29.625,0.019
29.630,0.001
29.635,-0.011
29.640,-0.011
29.645,-0.010
29.650,-0.015
29.655,-0.041
29.660,-0.077
29.665,-0.095
29.670,-0.099
29.675,-0.089
29.680,-0.071
29.685,-0.051
29.690,-0.029
29.695,-0.004
29.700,0.028
29.705,0.063
29.710,0.097
29.715,0.129
29.720,0.150
29.725,0.163
29.730,0.168
29.735,0.165
29.740,0.162
29.745,0.159
29.750,0.155
29.755,0.148
29.760,0.140
29.765,0.135
29.770,0.128
29.775,0.124
29.780,0.119
29.785,0.117
29.790,0.127
29.795,0.108
29.800,0.023
29.805,-0.123
29.810,-0.294
29.815,-0.447
29.820,-0.562
29.825,-0.505
29.830,-0.242
29.835,0.064
29.840,0.381
29.845,0.687
29.850,0.914
29.855,0.983
29.860,0.833
29.865,0.584
29.870,0.379
29.875,0.211
29.880,0.070
29.885,-0.004
29.890,-0.041
29.895,-0.079
29.900,-0.101
29.905,-0.111
29.910,-0.119
29.915,-0.121
29.920,-0.127
29.925,-0.135
29.930,-0.140
29.935,-0.141
29.940,-0.141
29.945,-0.142
29.950,-0.141
29.955,-0.141
29.960,-0.142
29.965,-0.143
29.970,-0.146
29.975,-0.145
29.980,-0.144
29.985,-0.146
29.990,-0.151
29.995,-0.155
30.000,-0.157
30.005,-0.160
30.010,-0.164
30.015,-0.171
30.020,-0.182
30.025,-0.186
30.030,-0.185
30.035,-0.190
30.040,-0.195
30.045,-0.201
30.050,-0.204
30.055,-0.205
30.060,-0.207
30.065,-0.202
30.070,-0.197
30.075,-0.192
30.080,-0.186
30.085,-0.180
30.090,-0.174
30.095,-0.170
30.100,-0.164
30.105,-0.157
30.110,-0.149
30.115,-0.132
30.120,-0.115
30.125,-0.094
30.130,-0.069
30.135,-0.046
30.140,-0.019
30.145,0.006
30.150,0.032
30.155,0.054
30.160,0.069
30.165,0.084
30.170,0.094
30.175,0.099
30.180,0.105
30.185,0.105
30.190,0.106
30.195,0.108
30.200,0.107
30.205,0.104
30.210,0.098
30.215,0.096
30.220,0.092
30.225,0.086
30.230,0.083
30.235,0.078
30.240,0.074
30.245,0.073
30.250,0.071
30.255,0.067
30.260,0.064
30.265,0.064
30.270,0.063
30.275,0.061
30.280,0.059
30.285,0.057
30.290,0.055
30.295,0.047
30.300,0.037
30.305,0.017
30.310,-0.006
30.315,-0.013
30.320,-0.013
30.325,-0.016
30.330,-0.031
30.335,-0.061
30.340,-0.082
30.345,-0.093
30.350,-0.094
30.355,-0.080
30.360,-0.062
30.365,-0.044
30.370,-0.026
30.375,0.003
30.380,0.044
30.385,0.078
30.390,0.110
30.395,0.140
30.400,0.161
30.405,0.167
30.410,0.163
30.415,0.165
30.420,0.163
30.425,0.156
30.430,0.152
30.435,0.147
30.440,0.141
30.445,0.133
30.450,0.126
30.455,0.121
30.460,0.117
30.465,0.121
30.470,0.119
30.475,0.078
30.480,-0.026
30.485,-0.182
30.490,-0.345
30.495,-0.485
30.500,-0.554
30.505,-0.423
30.510,-0.123
30.515,0.198
30.520,0.531
30.525,0.804
30.530,0.947
30.535,0.914
30.540,0.700
30.545,0.458
30.550,0.284
30.555,0.134
30.560,0.020
30.565,-0.026
30.570,-0.062
30.575,-0.095
30.580,-0.107
30.585,-0.114
30.590,-0.119
30.595,-0.123
30.600,-0.128
30.605,-0.131
30.610,-0.135
30.615,-0.135
30.620,-0.136
30.625,-0.137
30.630,-0.134
30.635,-0.137
30.640,-0.140
30.645,-0.140
30.650,-0.141
30.655,-0.143
30.660,-0.144
30.665,-0.143
30.670,-0.147
30.675,-0.153
30.680,-0.155
30.685,-0.160
30.690,-0.164
30.695,-0.170
30.700,-0.176
30.705,-0.183
30.710,-0.190
30.715,-0.194
30.720,-0.200
30.725,-0.203
30.730,-0.204
30.735,-0.207
30.740,-0.206
30.745,-0.203
30.750,-0.197
30.755,-0.189
30.760,-0.184
30.765,-0.177
30.770,-0.172
30.775,-0.168
30.780,-0.161
30.785,-0.156
30.790,-0.145
30.795,-0.125
30.800,-0.103
30.805,-0.080
30.810,-0.056
30.815,-0.029
30.820,-0.003
30.825,0.023
30.830,0.048
30.835,0.067
30.840,0.084
30.845,0.096
30.850,0.105
30.855,0.112
30.860,0.115
30.865,0.119
30.870,0.120
30.875,0.119
30.880,0.119
30.885,0.115
30.890,0.111
30.895,0.107
30.900,0.102
30.905,0.097
30.910,0.093
30.915,0.091
30.920,0.085
30.925,0.080
30.930,0.081
30.935,0.079
30.940,0.075
30.945,0.071
30.950,0.067
30.955,0.066
30.960,0.063
30.965,0.060
30.970,0.053
30.975,0.045
30.980,0.035
30.985,0.015
30.990,-0.005
30.995,-0.024
31.000,-0.033
31.005,-0.026
31.010,-0.021
31.015,-0.029
31.020,-0.057
31.025,-0.086
31.030,-0.097
31.035,-0.097
31.040,-0.083
31.045,-0.064
31.050,-0.046
31.055,-0.025
31.060,0.004
31.065,0.044
31.070,0.082
31.075,0.116
31.080,0.147
31.085,0.163
31.090,0.167
31.095,0.166
31.100,0.163
31.105,0.156
31.110,0.149
31.115,0.148
31.120,0.144
31.125,0.139
31.130,0.136
31.135,0.128
31.140,0.124
31.145,0.122
31.150,0.119
31.155,0.117
31.160,0.078
31.165,-0.021
31.170,-0.164
31.175,-0.319
31.180,-0.461
31.185,-0.540
31.190,-0.420
31.195,-0.125
31.200,0.196
31.205,0.526
31.210,0.797
31.215,0.944
31.220,0.923
31.225,0.717
31.230,0.483
31.235,0.314
31.240,0.156
31.245,0.027
31.250,-0.035
31.255,-0.073
31.260,-0.102
31.265,-0.113
31.270,-0.128
31.275,-0.140
31.280,-0.139
31.285,-0.139
31.290,-0.140
31.295,-0.146
31.300,-0.156
31.305,-0.158
31.310,-0.154
31.315,-0.145
31.320,-0.142
31.325,-0.146
31.330,-0.151
31.335,-0.156
31.340,-0.161
31.345,-0.166
31.350,-0.156
31.355,-0.144
31.360,-0.149
31.365,-0.159
31.370,-0.171
31.375,-0.174
31.380,-0.169
31.385,-0.179
31.390,-0.190
31.395,-0.200
31.400,-0.209
31.405,-0.208
31.410,-0.207
31.415,-0.208
31.420,-0.213
31.425,-0.216
31.430,-0.210
31.435,-0.206
31.440,-0.193
31.445,-0.177
31.450,-0.176
31.455,-0.182
31.460,-0.172
31.465,-0.154
31.470,-0.146
31.475,-0.140
31.480,-0.131
31.485,-0.113
31.490,-0.085
31.495,-0.060
31.500,-0.034
31.505,0.000
31.510,0.030
31.515,0.061
31.520,0.091
31.525,0.102
31.530,0.106
31.535,0.105
31.540,0.103
31.545,0.115
31.550,0.127
31.555,0.127
31.560,0.120
31.565,0.115
31.570,0.109
31.575,0.112
31.580,0.108
31.585,0.098
31.590,0.095
31.595,0.089
31.600,0.087
31.605,0.079
31.610,0.070
31.615,0.076
31.620,0.076
31.625,0.066
31.630,0.065
31.635,0.068
31.640,0.070
31.645,0.069
31.650,0.059
31.655,0.051
31.660,0.055
31.665,0.050
31.670,0.024
31.675,0.005
31.680,-0.001
31.685,-0.005
31.690,-0.007
31.695,-0.014
31.700,-0.040
31.705,-0.081
31.710,-0.107
31.715,-0.111
31.720,-0.098
31.725,-0.073
31.730,-0.056
31.735,-0.042
31.740,-0.018
31.745,0.012
31.750,0.055
31.755,0.098
31.760,0.126
31.765,0.146
31.770,0.155
31.775,0.157
31.780,0.161
31.785,0.157
31.790,0.151
31.795,0.148
31.800,0.143
31.805,0.139
31.810,0.125
31.815,0.119
31.820,0.125
31.825,0.119
31.830,0.116
31.835,0.127
31.840,0.130
31.845,0.067
31.850,-0.068
31.855,-0.228
31.860,-0.385
31.865,-0.523
31.870,-0.509
31.875,-0.271
31.880,0.038
31.885,0.325
31.890,0.612
31.895,0.873
31.900,1.001
31.905,0.893
31.910,0.642
31.915,0.413
31.920,0.226
31.925,0.064
31.930,-0.027
31.935,-0.062
31.940,-0.096
31.945,-0.126
31.950,-0.134
31.955,-0.136
31.960,-0.147
31.965,-0.153
31.970,-0.149
31.975,-0.149
31.980,-0.151
31.985,-0.151
31.990,-0.154
31.995,-0.150
32.000,-0.142
32.005,-0.147
32.010,-0.152
32.015,-0.151
32.020,-0.151
32.025,-0.158
32.030,-0.160
32.035,-0.153
32.040,-0.152
32.045,-0.154
32.050,-0.156
32.055,-0.162
32.060,-0.166
32.065,-0.172
32.070,-0.178
32.075,-0.173
32.080,-0.173
32.085,-0.187
32.090,-0.188
32.095,-0.185
32.100,-0.196
32.105,-0.196
32.110,-0.187
32.115,-0.176
32.120,-0.165
32.125,-0.155
32.130,-0.146
32.135,-0.144
32.140,-0.141
32.145,-0.143
32.150,-0.145
32.155,-0.134
32.160,-0.131
32.165,-0.122
32.170,-0.102
32.175,-0.077
32.180,-0.034
32.185,-0.002
32.190,0.013
32.195,0.040
32.200,0.064
32.205,0.073
32.210,0.081
32.215,0.095
32.220,0.102
32.225,0.100
32.230,0.105
32.235,0.106
32.240,0.100
32.245,0.091
32.250,0.082
32.255,0.081
32.260,0.080
32.265,0.075
32.270,0.077
32.275,0.074
32.280,0.057
32.285,0.045
32.290,0.054
32.295,0.060
32.300,0.051
32.305,0.052
32.310,0.056
32.315,0.055
32.320,0.058
32.325,0.056
32.330,0.059
32.335,0.062
32.340,0.044
32.345,0.029
32.350,0.022
32.355,0.006
32.360,-0.006
32.365,-0.011
32.370,-0.016
32.375,-0.023
32.380,-0.044
32.385,-0.073
32.390,-0.089
32.395,-0.091
32.400,-0.086
32.405,-0.074
32.410,-0.044
32.415,-0.012
32.420,0.011
32.425,0.040
32.430,0.077
32.435,0.112
32.440,0.142
32.445,0.165
32.450,0.172
32.455,0.168
32.460,0.161
32.465,0.158
32.470,0.160
32.475,0.161
32.480,0.157
32.485,0.146
32.490,0.135
32.495,0.127
32.500,0.119
32.505,0.117
32.510,0.124
32.515,0.138
32.520,0.113
32.525,0.008
32.530,-0.150
32.535,-0.334
32.540,-0.509
32.545,-0.605
32.550,-0.491
32.555,-0.185
32.560,0.157
32.565,0.503
32.570,0.806
32.575,1.010
32.580,1.038
32.585,0.842
32.590,0.574
32.595,0.359
32.600,0.185
32.605,0.054
32.610,-0.017
32.615,-0.062
32.620,-0.099
32.625,-0.112
32.630,-0.115
32.635,-0.127
32.640,-0.131
32.645,-0.130
32.650,-0.136
32.655,-0.141
32.660,-0.147
32.665,-0.149
32.670,-0.148
32.675,-0.148
32.680,-0.142
32.685,-0.141
32.690,-0.143
32.695,-0.145
32.700,-0.145
32.705,-0.141
32.710,-0.143
32.715,-0.148
32.720,-0.151
32.725,-0.154
32.730,-0.154
32.735,-0.156
32.740,-0.164
32.745,-0.170
32.750,-0.178
32.755,-0.189
32.760,-0.196
32.765,-0.195
32.770,-0.194
32.775,-0.196
32.780,-0.194
32.785,-0.192
32.790,-0.187
32.795,-0.178
32.800,-0.179
32.805,-0.178
32.810,-0.174
32.815,-0.169
32.820,-0.169
32.825,-0.170
32.830,-0.155
32.835,-0.135
32.840,-0.121
32.845,-0.106
32.850,-0.085
32.855,-0.056
32.860,-0.033
32.865,-0.013
32.870,0.015
32.875,0.043
32.880,0.065
32.885,0.078
32.890,0.092
32.895,0.106
32.900,0.110
32.905,0.109
32.910,0.110
32.915,0.111
32.920,0.105
32.925,0.099
32.930,0.094
32.935,0.090
32.940,0.092
32.945,0.091
32.950,0.084
32.955,0.079
32.960,0.073
32.965,0.069
32.970,0.064
32.975,0.057
32.980,0.053
32.985,0.050
32.990,0.055
32.995,0.060
33.000,0.054
33.005,0.051
33.010,0.052
33.015,0.046
33.020,0.033
33.025,0.013
33.030,-0.005
33.035,-0.017
33.040,-0.022
33.045,-0.022
33.050,-0.036
33.055,-0.063
33.060,-0.080
33.065,-0.087
33.070,-0.090
33.075,-0.085
33.080,-0.069
33.085,-0.049
33.090,-0.027
33.095,0.005
33.100,0.042
33.105,0.077
33.110,0.113
33.115,0.143
33.120,0.161
33.125,0.166
33.130,0.166
33.135,0.167
33.140,0.168
33.145,0.162
33.150,0.152
33.155,0.145
33.160,0.137
33.165,0.132
33.170,0.131
33.175,0.124
33.180,0.120
33.185,0.123
33.190,0.122
33.195,0.076
33.200,-0.044
33.205,-0.205
33.210,-0.368
33.215,-0.512
33.220,-0.567
33.225,-0.404
33.230,-0.085
33.235,0.237
33.240,0.567
33.245,0.841
33.250,0.978
33.255,0.926
33.260,0.696
33.265,0.458
33.270,0.282
33.275,0.124
33.280,0.016
33.285,-0.031
33.290,-0.069
33.295,-0.101
33.300,-0.115
33.305,-0.123
33.310,-0.128
33.315,-0.130
33.320,-0.131
33.325,-0.133
33.330,-0.136
33.335,-0.139
33.340,-0.142
33.345,-0.141
33.350,-0.141
33.355,-0.141
33.360,-0.143
33.365,-0.146
33.370,-0.144
33.375,-0.144
33.380,-0.145
33.385,-0.149
33.390,-0.152
33.395,-0.154
33.400,-0.159
33.405,-0.165
33.410,-0.170
33.415,-0.175
33.420,-0.179
33.425,-0.185
33.430,-0.189
33.435,-0.195
33.440,-0.203
33.445,-0.205
33.450,-0.209
33.455,-0.210
33.460,-0.207
33.465,-0.203
33.470,-0.196
33.475,-0.191
33.480,-0.184
33.485,-0.179
33.490,-0.175
33.495,-0.166
33.500,-0.160
33.505,-0.153
33.510,-0.142
33.515,-0.126
33.520,-0.104
33.525,-0.080
33.530,-0.051
33.535,-0.025
33.540,0.000
33.545,0.030
33.550,0.052
33.555,0.073
33.560,0.088
33.565,0.096
33.570,0.104
33.575,0.110
33.580,0.114
33.585,0.115
33.590,0.113
33.595,0.113
33.600,0.110
33.605,0.109
33.610,0.107
33.615,0.103
33.620,0.099
33.625,0.094
33.630,0.090
33.635,0.084
33.640,0.077
33.645,0.075
33.650,0.072
33.655,0.070
33.660,0.069
33.665,0.067
33.670,0.066
33.675,0.064
33.680,0.064
33.685,0.063
33.690,0.060
33.695,0.057
33.700,0.044
33.705,0.027
33.710,0.009
33.715,-0.009
33.720,-0.014
33.725,-0.015
33.730,-0.021
33.735,-0.044
33.740,-0.074
33.745,-0.088
33.750,-0.096
33.755,-0.093
33.760,-0.074
33.765,-0.055
33.770,-0.037
33.775,-0.014
33.780,0.019
33.785,0.056
33.790,0.088
33.795,0.118
33.800,0.144
33.805,0.163
33.810,0.167
33.815,0.162
33.820,0.161
33.825,0.155
33.830,0.149
33.835,0.146
33.840,0.140
33.845,0.134
33.850,0.125
33.855,0.118
33.860,0.114
33.865,0.112
33.870,0.119
33.875,0.109
33.880,0.037
33.885,-0.100
33.890,-0.264
33.895,-0.410
33.900,-0.531
33.905,-0.531
33.910,-0.309
33.915,0.028
33.920,0.372
33.925,0.683
33.930,0.879
33.935,0.924
33.940,0.793
33.945,0.551
33.950,0.349
33.955,0.198
33.960,0.065
33.965,-0.014
33.970,-0.049
33.975,-0.078
33.980,-0.095
33.985,-0.101
33.990,-0.111
33.995,-0.120
34.000,-0.131
34.005,-0.134
34.010,-0.128
34.015,-0.132
34.020,-0.139
34.025,-0.140
34.030,-0.137
34.035,-0.136
34.040,-0.141
34.045,-0.142
34.050,-0.143
34.055,-0.143
34.060,-0.140
34.065,-0.141
34.070,-0.139
34.075,-0.136
34.080,-0.141
34.085,-0.148
34.090,-0.161
34.095,-0.167
34.100,-0.166
34.105,-0.174
34.110,-0.187
34.115,-0.199
34.120,-0.204
34.125,-0.207
34.130,-0.209
34.135,-0.212
34.140,-0.216
34.145,-0.209
34.150,-0.202
34.155,-0.204
34.160,-0.201
34.165,-0.188
34.170,-0.175
34.175,-0.173
34.180,-0.177
34.185,-0.180
34.190,-0.167
34.195,-0.137
34.200,-0.117
34.205,-0.098
34.210,-0.072
34.215,-0.049
34.220,-0.018
34.225,0.017
34.230,0.041
34.235,0.062
34.240,0.082
34.245,0.101
34.250,0.114
34.255,0.115
34.260,0.115
34.265,0.117
34.270,0.121
34.275,0.125
34.280,0.128
34.285,0.125
34.290,0.120
34.295,0.121
34.300,0.119
34.305,0.114
34.310,0.106
34.315,0.097
34.320,0.090
34.325,0.084
34.330,0.081
34.335,0.080
34.340,0.075
34.345,0.071
34.350,0.070
34.355,0.075
34.360,0.077
34.365,0.071
34.370,0.058
34.375,0.044
34.380,0.030
34.385,0.009
34.390,-0.010
34.395,-0.014
34.400,-0.014
34.405,-0.020
34.410,-0.043
34.415,-0.078
34.420,-0.099
34.425,-0.101
34.430,-0.085
34.435,-0.066
34.440,-0.057
34.445,-0.041
34.450,-0.009
34.455,0.031
34.460,0.074
34.465,0.111
34.470,0.141
34.475,0.157
34.480,0.152
34.485,0.146
34.490,0.148
34.495,0.157
34.500,0.160
34.505,0.145
34.510,0.127
34.515,0.128
34.520,0.137
34.525,0.140
34.530,0.137
34.535,0.125
34.540,0.118
34.545,0.124
34.550,0.102
34.555,0.024
34.560,-0.104
34.565,-0.262
34.570,-0.416
34.575,-0.527
34.580,-0.468
34.585,-0.221
34.590,0.068
34.595,0.372
34.600,0.667
34.605,0.901
34.610,0.987
34.615,0.841
34.620,0.584
34.625,0.369
34.630,0.200
34.635,0.053
34.640,-0.030
34.645,-0.061
34.650,-0.101
34.655,-0.131
34.660,-0.138
34.665,-0.150
34.670,-0.160
34.675,-0.162
34.680,-0.160
34.685,-0.149
34.690,-0.139
34.695,-0.141
34.700,-0.145
34.705,-0.144
34.710,-0.146
34.715,-0.150
34.720,-0.153
34.725,-0.159
34.730,-0.160
34.735,-0.149
34.740,-0.148
34.745,-0.157
34.750,-0.159
34.755,-0.156
34.760,-0.157
34.765,-0.162
34.770,-0.163
34.775,-0.165
34.780,-0.177
34.785,-0.192
34.790,-0.197
34.795,-0.189
34.800,-0.182
34.805,-0.182
34.810,-0.186
34.815,-0.194
34.820,-0.193
34.825,-0.187
34.830,-0.176
34.835,-0.166
34.840,-0.166
34.845,-0.159
34.850,-0.148
34.855,-0.144
34.860,-0.142
34.865,-0.137
34.870,-0.120
34.875,-0.100
34.880,-0.083
34.885,-0.058
34.890,-0.036
34.895,-0.011
34.900,0.012
34.905,0.031
34.910,0.060
34.915,0.079
34.920,0.088
34.925,0.099
34.930,0.108
34.935,0.109
34.940,0.103
34.945,0.102
34.950,0.102
34.955,0.095
34.960,0.090
34.965,0.089
34.970,0.090
34.975,0.088
34.980,0.077
34.985,0.071
34.990,0.074
34.995,0.072
35.000,0.061
35.005,0.056
35.010,0.056
35.015,0.053
35.020,0.055
35.025,0.057
35.030,0.057
35.035,0.059
35.040,0.057
35.045,0.054
35.050,0.048
35.055,0.045
35.060,0.033
35.065,0.006
35.070,-0.005
35.075,-0.006
35.080,-0.013
35.085,-0.035
35.090,-0.062
35.095,-0.074
35.100,-0.088
35.105,-0.096
35.110,-0.075
35.115,-0.053
35.120,-0.038
35.125,-0.017
35.130,0.016
35.135,0.052
35.140,0.077
35.145,0.111
35.150,0.147
35.155,0.161
35.160,0.155
35.165,0.149
35.170,0.159
35.175,0.164
35.180,0.153
35.185,0.146
35.190,0.140
35.195,0.136
35.200,0.131
35.205,0.126
35.210,0.125
35.215,0.122
35.220,0.128
35.225,0.131
35.230,0.084
35.235,-0.040
35.240,-0.205
35.245,-0.372
35.250,-0.532
35.255,-0.587
35.260,-0.402
35.265,-0.071
35.270,0.260
35.275,0.591
35.280,0.869
35.285,1.031
35.290,0.997
35.295,0.769
35.300,0.512
35.305,0.307
35.310,0.134
35.315,0.016
35.320,-0.035
35.325,-0.074
35.330,-0.109
35.335,-0.124
35.340,-0.133
35.345,-0.140
35.350,-0.143
35.355,-0.148
35.360,-0.151
35.365,-0.150
35.370,-0.146
35.375,-0.143
35.380,-0.148
35.385,-0.153
35.390,-0.152
35.395,-0.147
35.400,-0.145
35.405,-0.149
35.410,-0.152
35.415,-0.159
35.420,-0.163
35.425,-0.157
35.430,-0.150
35.435,-0.154
35.440,-0.160
35.445,-0.164
35.450,-0.169
35.455,-0.173
35.460,-0.176
35.465,-0.181
35.470,-0.182
35.475,-0.189
35.480,-0.200
35.485,-0.200
35.490,-0.200
35.495,-0.195
35.500,-0.188
35.505,-0.188
35.510,-0.181
35.515,-0.167
35.520,-0.159
35.525,-0.158
35.530,-0.160
35.535,-0.158
35.540,-0.149
35.545,-0.133
35.550,-0.127
35.555,-0.113
35.560,-0.082
35.565,-0.051
35.570,-0.025
35.575,-0.001
35.580,0.023
35.585,0.047
35.590,0.067
35.595,0.084
35.600,0.096
35.605,0.104
35.610,0.111
35.615,0.110
35.620,0.112
35.625,0.114
35.630,0.108
35.635,0.103
35.640,0.097
35.645,0.090
35.650,0.087
35.655,0.085
35.660,0.081
35.665,0.070
35.670,0.060
35.675,0.061
35.680,0.066
35.685,0.065
35.690,0.059
35.695,0.060
35.700,0.060
35.705,0.053
35.710,0.050
35.715,0.048
35.720,0.046
35.725,0.036
35.730,0.016
35.735,-0.003
35.740,-0.014
35.745,-0.011
35.750,-0.006
35.755,-0.022
35.760,-0.054
35.765,-0.080
35.770,-0.089
35.775,-0.092
35.780,-0.085
35.785,-0.064
35.790,-0.046
35.795,-0.027
35.800,0.000
35.805,0.036
35.810,0.076
35.815,0.108
35.820,0.137
35.825,0.161
35.830,0.170
35.835,0.169
35.840,0.167
35.845,0.167
35.850,0.161
35.855,0.152
35.860,0.152
35.865,0.147
35.870,0.142
35.875,0.140
35.880,0.131
35.885,0.120
35.890,0.122
35.895,0.134
35.900,0.101
35.905,-0.006
35.910,-0.156
35.915,-0.321
35.920,-0.472
35.925,-0.564
35.930,-0.460
35.935,-0.164
35.940,0.155
35.945,0.483
35.950,0.775
35.955,0.961
35.960,0.979
35.965,0.790
35.970,0.539
35.975,0.347
35.980,0.180
35.985,0.045
35.990,-0.021
35.995,-0.058
36.000,-0.093
36.005,-0.109
36.010,-0.114
36.015,-0.124
36.020,-0.129
36.025,-0.131
36.030,-0.135
36.035,-0.139
36.040,-0.143
36.045,-0.144
36.050,-0.143
36.055,-0.142
36.060,-0.141
36.065,-0.144
36.070,-0.146
36.075,-0.148
36.080,-0.150
36.085,-0.148
36.090,-0.148
36.095,-0.152
36.100,-0.154
36.105,-0.158
36.110,-0.159
36.115,-0.165
36.120,-0.173
36.125,-0.178
36.130,-0.186
36.135,-0.193
36.140,-0.197
36.145,-0.202
36.150,-0.209
36.155,-0.213
36.160,-0.210
36.165,-0.209
36.170,-0.208
36.175,-0.201
36.180,-0.196
36.185,-0.189
36.190,-0.183
36.195,-0.174
36.200,-0.169
36.205,-0.164
36.210,-0.153
36.215,-0.143
36.220,-0.130
36.225,-0.108
36.230,-0.082
36.235,-0.055
36.240,-0.031
36.245,-0.005
36.250,0.020
36.255,0.041
36.260,0.062
36.265,0.081
36.270,0.097
36.275,0.110
36.280,0.115
36.285,0.119
36.290,0.119
36.295,0.117
36.300,0.115
36.305,0.112
36.310,0.113
36.315,0.106
36.320,0.101
36.325,0.101
36.330,0.097
36.335,0.092
36.340,0.084
36.345,0.078
36.350,0.075
36.355,0.071
36.360,0.069
36.365,0.067
36.370,0.066
36.375,0.066
36.380,0.064
36.385,0.062
36.390,0.059
36.395,0.057
36.400,0.050
36.405,0.035
36.410,0.020
36.415,-0.001
36.420,-0.014
36.425,-0.013
36.430,-0.016
36.435,-0.031
36.440,-0.061
36.445,-0.086
36.450,-0.098
36.455,-0.102
36.460,-0.085
36.465,-0.065
36.470,-0.051
36.475,-0.029
36.480,0.003
36.485,0.041
36.490,0.076
36.495,0.107
36.500,0.136
36.505,0.157
36.510,0.164
36.515,0.159
36.520,0.157
36.525,0.156
36.530,0.150
36.535,0.145
36.540,0.141
36.545,0.134
36.550,0.127
36.555,0.123
36.560,0.120
36.565,0.112
36.570,0.112
36.575,0.114
36.580,0.072
36.585,-0.039
36.590,-0.194
36.595,-0.355
36.600,-0.496
36.605,-0.559
36.610,-0.407
36.615,-0.091
36.620,0.235
36.625,0.565
36.630,0.826
36.635,0.954
36.640,0.909
36.645,0.688
36.650,0.447
36.655,0.271
36.660,0.123
36.665,0.011
36.670,-0.038
36.675,-0.071
36.680,-0.104
36.685,-0.117
36.690,-0.123
36.695,-0.129
36.700,-0.130
36.705,-0.135
36.710,-0.138
36.715,-0.139
36.720,-0.140
36.725,-0.141
36.730,-0.143
36.735,-0.144
36.740,-0.146
36.745,-0.146
36.750,-0.146
36.755,-0.147
36.760,-0.146
36.765,-0.148
36.770,-0.150
36.775,-0.151
36.780,-0.156
36.785,-0.160
36.790,-0.164
36.795,-0.170
36.800,-0.176
36.805,-0.181
36.810,-0.184
36.815,-0.194
36.820,-0.204
36.825,-0.207
36.830,-0.209
36.835,-0.211
36.840,-0.212
36.845,-0.213
36.850,-0.210
36.855,-0.204
36.860,-0.196
36.865,-0.191
36.870,-0.186
36.875,-0.179
36.880,-0.172
36.885,-0.165
36.890,-0.158
36.895,-0.146
36.900,-0.129
36.905,-0.108
36.910,-0.080
36.915,-0.055
36.920,-0.028
36.925,0.002
36.930,0.028
36.935,0.054
36.940,0.076
36.945,0.091
36.950,0.104
36.955,0.111
36.960,0.116
36.965,0.116
36.970,0.112
36.975,0.111
36.980,0.109
36.985,0.108
36.990,0.107
36.995,0.106
37.000,0.109
37.005,0.109
37.010,0.105
37.015,0.096
37.020,0.088
37.025,0.088
37.030,0.089
37.035,0.087
37.040,0.083
37.045,0.084
37.050,0.084
37.055,0.081
37.060,0.078
37.065,0.069
37.070,0.064
37.075,0.070
37.080,0.067
37.085,0.061
37.090,0.048
37.095,0.022
37.100,-0.003
37.105,-0.012
37.110,-0.005
37.115,-0.008
37.120,-0.030
37.125,-0.060
37.130,-0.086
37.135,-0.097
37.140,-0.092
37.145,-0.074
37.150,-0.057
37.155,-0.049
37.160,-0.025
37.165,0.017
37.170,0.060
37.175,0.096
37.180,0.128
37.185,0.154
37.190,0.166
37.195,0.162
37.200,0.153
37.205,0.153
37.210,0.163
37.215,0.163
37.220,0.155
37.225,0.149
37.230,0.138
37.235,0.130
37.240,0.126
37.245,0.119
37.250,0.114
37.255,0.121
37.260,0.116
37.265,0.056
37.270,-0.061
37.275,-0.203
37.280,-0.349
37.285,-0.481
37.290,-0.521
37.295,-0.342
37.300,-0.027
37.305,0.290
37.310,0.614
37.315,0.864
37.320,0.974
37.325,0.896
37.330,0.656
37.335,0.426
37.340,0.255
37.345,0.102
37.350,-0.005
37.355,-0.056
37.360,-0.095
37.365,-0.124
37.370,-0.131
37.375,-0.136
37.380,-0.142
37.385,-0.141
37.390,-0.144
37.395,-0.154
37.400,-0.156
37.405,-0.157
37.410,-0.155
37.415,-0.152
37.420,-0.148
37.425,-0.139
37.430,-0.143
37.435,-0.156
37.440,-0.159
37.445,-0.163
37.450,-0.173
37.455,-0.176
37.460,-0.165
37.465,-0.157
37.470,-0.162
37.475,-0.167
37.480,-0.169
37.485,-0.174
37.490,-0.186
37.495,-0.197
37.500,-0.199
37.505,-0.200
37.510,-0.206
37.515,-0.216
37.520,-0.222
37.525,-0.213
37.530,-0.201
37.535,-0.197
37.540,-0.198
37.545,-0.198
37.550,-0.189
37.555,-0.178
37.560,-0.171
37.565,-0.167
37.570,-0.158
37.575,-0.144
37.580,-0.135
37.585,-0.123
37.590,-0.102
37.595,-0.070
37.600,-0.036
37.605,-0.017
37.610,0.003
37.615,0.031
37.620,0.060
37.625,0.090
37.630,0.105
37.635,0.116
37.640,0.120
37.645,0.110
37.650,0.105
37.655,0.105
37.660,0.113
37.665,0.119
37.670,0.117
37.675,0.111
37.680,0.102
37.685,0.102
37.690,0.107
37.695,0.094
37.700,0.079
37.705,0.074
37.710,0.073
37.715,0.077
37.720,0.075
37.725,0.065
37.730,0.059
37.735,0.058
37.740,0.059
37.745,0.060
37.750,0.061
37.755,0.062
37.760,0.064
37.765,0.065
37.770,0.057
37.775,0.041
37.780,0.018
37.785,-0.006
37.790,-0.015
37.795,-0.015
37.800,-0.019
37.805,-0.026
37.810,-0.049
37.815,-0.079
37.820,-0.099
37.825,-0.102
37.830,-0.083
37.835,-0.066
37.840,-0.056
37.845,-0.036
37.850,-0.004
37.855,0.032
37.860,0.066
37.865,0.091
37.870,0.122
37.875,0.164
37.880,0.177
37.885,0.161
37.890,0.152
37.895,0.156
37.900,0.159
37.905,0.153
37.910,0.144
37.915,0.139
37.920,0.129
37.925,0.118
37.930,0.108
37.935,0.105
37.940,0.118
37.945,0.131
37.950,0.106
37.955,0.009
37.960,-0.135
37.965,-0.301
37.970,-0.462
37.975,-0.545
37.980,-0.418
37.985,-0.131
37.990,0.150
37.995,0.438
38.000,0.723
38.005,0.938
38.010,0.977
38.015,0.789
38.020,0.540
38.025,0.345
38.030,0.172
38.035,0.038
38.040,-0.030
38.045,-0.077
38.050,-0.112
38.055,-0.122
38.060,-0.127
38.065,-0.135
38.070,-0.141
38.075,-0.143
38.080,-0.149
38.085,-0.151
38.090,-0.151
38.095,-0.157
38.100,-0.159
38.105,-0.158
38.110,-0.158
38.115,-0.159
38.120,-0.159
38.125,-0.158
38.130,-0.162
38.135,-0.166
38.140,-0.170
38.145,-0.174
38.150,-0.174
38.155,-0.175
38.160,-0.176
38.165,-0.179
38.170,-0.183
38.175,-0.181
38.180,-0.186
38.185,-0.190
38.190,-0.190
38.195,-0.194
38.200,-0.197
38.205,-0.199
38.210,-0.196
38.215,-0.196
38.220,-0.201
38.225,-0.194
38.230,-0.185
38.235,-0.177
38.240,-0.166
38.245,-0.164
38.250,-0.162
38.255,-0.159
38.260,-0.151
38.265,-0.136
38.270,-0.123
38.275,-0.109
38.280,-0.087
38.285,-0.060
38.290,-0.034
38.295,-0.004
38.300,0.024
38.305,0.049
38.310,0.070
38.315,0.084
38.320,0.095
38.325,0.106
38.330,0.106
38.335,0.109
38.340,0.111
38.345,0.108
38.350,0.106
38.355,0.102
38.360,0.099
38.365,0.094
38.370,0.087
38.375,0.088
38.380,0.084
38.385,0.078
38.390,0.074
38.395,0.069
38.400,0.067
38.405,0.062
38.410,0.056
38.415,0.056
38.420,0.061
38.425,0.067
38.430,0.064
38.435,0.060
38.440,0.061
38.445,0.064
38.450,0.059
38.455,0.048
38.460,0.039
38.465,0.020
38.470,-0.002
38.475,-0.004
38.480,-0.001
38.485,-0.011
38.490,-0.040
38.495,-0.072
38.500,-0.085
38.505,-0.092
38.510,-0.091
38.515,-0.075
38.520,-0.053
38.525,-0.033
38.530,-0.014
38.535,0.021
38.540,0.066
38.545,0.102
38.550,0.133
38.555,0.157
38.560,0.172
38.565,0.174
38.570,0.169
38.575,0.170
38.580,0.167
38.585,0.161
38.590,0.157
38.595,0.150
38.600,0.143
38.605,0.138
38.610,0.132
38.615,0.124
38.620,0.122
38.625,0.132
38.630,0.118
38.635,0.039
38.640,-0.097
38.645,-0.262
38.650,-0.419
38.655,-0.542
38.660,-0.506
38.665,-0.250
38.670,0.068
38.675,0.374
38.680,0.669
38.685,0.901
38.690,0.997
38.695,0.873
38.700,0.618
38.705,0.401
38.710,0.232
38.715,0.084
38.720,-0.005
38.725,-0.042
38.730,-0.080
38.735,-0.107
38.740,-0.115
38.745,-0.123
38.750,-0.126
38.755,-0.129
38.760,-0.136
38.765,-0.142
38.770,-0.144
38.775,-0.141
38.780,-0.143
38.785,-0.146
38.790,-0.144
38.795,-0.140
38.800,-0.136
38.805,-0.139
38.810,-0.145
38.815,-0.149
38.820,-0.152
38.825,-0.153
38.830,-0.156
38.835,-0.158
38.840,-0.158
38.845,-0.162
38.850,-0.164
38.855,-0.171
38.860,-0.176
38.865,-0.183
38.870,-0.194
38.875,-0.199
38.880,-0.201
38.885,-0.204
38.890,-0.202
38.895,-0.202
38.900,-0.200
38.905,-0.195
38.910,-0.188
38.915,-0.180
38.920,-0.172
38.925,-0.164
38.930,-0.163
38.935,-0.162
38.940,-0.155
38.945,-0.148
38.950,-0.134
38.955,-0.116
38.960,-0.097
38.965,-0.072
38.970,-0.041
38.975,-0.011
38.980,0.014
38.985,0.036
38.990,0.060
38.995,0.077
39.000,0.089
39.005,0.096
39.010,0.105
39.015,0.112
39.020,0.110
39.025,0.110
39.030,0.109
39.035,0.106
39.040,0.108
39.045,0.103
39.050,0.097
39.055,0.093
39.060,0.088
39.065,0.082
39.070,0.077
39.075,0.076
39.080,0.073
39.085,0.067
39.090,0.065
39.095,0.063
39.100,0.064
39.105,0.064
39.110,0.062
39.115,0.061
39.120,0.060
39.125,0.061
39.130,0.058
39.135,0.051
39.140,0.040
39.145,0.022
39.150,0.003
39.155,-0.013
39.160,-0.018
39.165,-0.018
39.170,-0.029
39.175,-0.052
39.180,-0.081
39.185,-0.100
39.190,-0.105
39.195,-0.098
39.200,-0.076
39.205,-0.057
39.210,-0.040
39.215,-0.015
39.220,0.021
39.225,0.061
39.230,0.093
39.235,0.120
39.240,0.148
39.245,0.162
39.250,0.164
39.255,0.160
39.260,0.154
39.265,0.150
39.270,0.149
39.275,0.149
39.280,0.142
39.285,0.132
39.290,0.126
39.295,0.121
39.300,0.115
39.305,0.113
39.310,0.120
39.315,0.101
39.320,0.012
39.325,-0.132
39.330,-0.296
39.335,-0.445
39.340,-0.549
39.345,-0.493
39.350,-0.226
39.355,0.101
39.360,0.423
39.365,0.716
39.370,0.909
39.375,0.954
39.380,0.795
39.385,0.540
39.390,0.342
39.395,0.186
39.400,0.050
39.405,-0.021
39.410,-0.055
39.415,-0.089
39.420,-0.109
39.425,-0.116
39.430,-0.123
39.435,-0.128
39.440,-0.133
39.445,-0.140
39.450,-0.141
39.455,-0.140
39.460,-0.142
39.465,-0.142
39.470,-0.143
39.475,-0.142
39.480,-0.143
39.485,-0.145
39.490,-0.143
39.495,-0.144
39.500,-0.143
39.505,-0.145
39.510,-0.149
39.515,-0.152
39.520,-0.157
39.525,-0.159
39.530,-0.164
39.535,-0.170
39.540,-0.175
39.545,-0.182
39.550,-0.187
39.555,-0.191
39.560,-0.197
39.565,-0.203
39.570,-0.207
39.575,-0.205
39.580,-0.205
39.585,-0.204
39.590,-0.197
39.595,-0.191
39.600,-0.184
39.605,-0.178
39.610,-0.173
39.615,-0.166
39.620,-0.161
39.625,-0.151
39.630,-0.140
39.635,-0.127
39.640,-0.110
39.645,-0.093
39.650,-0.067
39.655,-0.034
39.660,-0.007
39.665,0.018
39.670,0.043
39.675,0.067
39.680,0.087
39.685,0.101
39.690,0.113
39.695,0.117
39.700,0.120
39.705,0.123
39.710,0.125
39.715,0.124
39.720,0.120
39.725,0.120
39.730,0.118
39.735,0.111
39.740,0.106
39.745,0.101
39.750,0.099
39.755,0.096
39.760,0.090
39.765,0.085
39.770,0.079
39.775,0.076
39.780,0.072
39.785,0.070
39.790,0.074
39.795,0.074
39.800,0.072
39.805,0.068
39.810,0.063
39.815,0.065
39.820,0.064
39.825,0.054
39.830,0.033
39.835,0.008
39.840,-0.006
39.845,-0.009
39.850,-0.008
39.855,-0.016
39.860,-0.041
39.865,-0.072
39.870,-0.092
39.875,-0.099
39.880,-0.099
39.885,-0.082
39.890,-0.059
39.895,-0.040
39.900,-0.016
39.905,0.019
39.910,0.057
39.915,0.091
39.920,0.121
39.925,0.150
39.930,0.167
39.935,0.165
39.940,0.163
39.945,0.160
39.950,0.157
39.955,0.152
39.960,0.146
39.965,0.142
39.970,0.133
39.975,0.125
39.980,0.118
39.985,0.108
39.990,0.107
39.995,0.115
40.000,0.109
40.005,0.047
40.010,-0.082
40.015,-0.242
40.020,-0.394
40.025,-0.514
40.030,-0.518
40.035,-0.299
40.040,0.036
40.045,0.353
40.050,0.655
40.055,0.877
40.060,0.954
40.065,0.845
40.070,0.592
40.075,0.368
40.080,0.209
40.085,0.066
40.090,-0.019
40.095,-0.053
40.100,-0.087
40.105,-0.113
40.110,-0.124
40.115,-0.131
40.120,-0.135
40.125,-0.135
40.130,-0.138
40.135,-0.142
40.140,-0.143
40.145,-0.147
40.150,-0.146
40.155,-0.146
40.160,-0.150
40.165,-0.151
40.170,-0.152
40.175,-0.152
40.180,-0.154
40.185,-0.157
40.190,-0.155
40.195,-0.153
40.200,-0.154
40.205,-0.157
40.210,-0.162
40.215,-0.167
40.220,-0.170
40.225,-0.175
40.230,-0.182
40.235,-0.189
40.240,-0.193
40.245,-0.199
40.250,-0.204
40.255,-0.207
40.260,-0.212
40.265,-0.210
40.270,-0.205
40.275,-0.200
40.280,-0.196
40.285,-0.192
40.290,-0.182
40.295,-0.176
40.300,-0.172
40.305,-0.165
40.310,-0.158
40.315,-0.148
40.320,-0.138
40.325,-0.122
40.330,-0.101
40.335,-0.077
40.340,-0.048
40.345,-0.019
40.350,0.011
40.355,0.039
40.360,0.061
40.365,0.079
40.370,0.096
40.375,0.108
40.380,0.114
40.385,0.117
40.390,0.123
40.395,0.124
40.400,0.122
40.405,0.121
40.410,0.116
40.415,0.114
40.420,0.111
40.425,0.108
40.430,0.103
40.435,0.096
40.440,0.092
40.445,0.087
40.450,0.083
40.455,0.080
40.460,0.073
40.465,0.067
40.470,0.063
40.475,0.062
40.480,0.061
40.485,0.057
40.490,0.051
40.495,0.045
40.500,0.049
40.505,0.060
40.510,0.063
40.515,0.055
40.520,0.038
40.525,0.023
40.530,0.001
40.535,-0.020
40.540,-0.021
40.545,-0.020
40.550,-0.034
40.555,-0.064
40.560,-0.092
40.565,-0.102
40.570,-0.101
40.575,-0.085
40.580,-0.066
40.585,-0.052
40.590,-0.033
40.595,-0.006
40.600,0.030
40.605,0.068
40.610,0.101
40.615,0.132
40.620,0.156
40.625,0.164
40.630,0.159
40.635,0.157
40.640,0.157
40.645,0.150
40.650,0.146
40.655,0.145
40.660,0.139
40.665,0.133
40.670,0.126
40.675,0.119
40.680,0.114
40.685,0.116
40.690,0.123
40.695,0.090
40.700,-0.011
40.705,-0.152
40.710,-0.301
40.715,-0.444
40.720,-0.531
40.725,-0.407
40.730,-0.109
40.735,0.181
40.740,0.472
40.745,0.741
40.750,0.923
40.755,0.940
40.760,0.746
40.765,0.494
40.770,0.307
40.775,0.145
40.780,0.016
40.785,-0.042
40.790,-0.076
40.795,-0.112
40.800,-0.125
40.805,-0.128
40.810,-0.139
40.815,-0.143
40.820,-0.144
40.825,-0.146
40.830,-0.149
40.835,-0.155
40.840,-0.150
40.845,-0.146
40.850,-0.149
40.855,-0.151
40.860,-0.155
40.865,-0.156
40.870,-0.158
40.875,-0.160
40.880,-0.154
40.885,-0.152
40.890,-0.159
40.895,-0.165
40.900,-0.162
40.905,-0.164
40.910,-0.175
40.915,-0.180
40.920,-0.179
40.925,-0.179
40.930,-0.190
40.935,-0.202
40.940,-0.202
40.945,-0.208
40.950,-0.215
40.955,-0.208
40.960,-0.199
40.965,-0.196
40.970,-0.192
40.975,-0.185
40.980,-0.176
40.985,-0.171
40.990,-0.165
40.995,-0.163
41.000,-0.163
41.005,-0.159
41.010,-0.156
41.015,-0.141
41.020,-0.113
41.025,-0.087
41.030,-0.062
41.035,-0.039
41.040,-0.013
41.045,0.024
41.050,0.058
41.055,0.076
41.060,0.089
41.065,0.100
41.070,0.104
41.075,0.112
41.080,0.120
41.085,0.117
41.090,0.110
41.095,0.105
41.100,0.108
41.105,0.115
41.110,0.107
41.115,0.096
41.120,0.093
41.125,0.093
41.130,0.090
41.135,0.084
41.140,0.079
41.145,0.075
41.150,0.073
41.155,0.074
41.160,0.069
41.165,0.065
41.170,0.065
41.175,0.068
41.180,0.070
41.185,0.064
41.190,0.063
41.195,0.060
41.200,0.049
41.205,0.042
41.210,0.028
41.215,0.009
41.220,0.000
41.225,-0.003
41.230,-0.011
41.235,-0.033
41.240,-0.070
41.245,-0.103
41.250,-0.106
41.255,-0.092
41.260,-0.078
41.265,-0.061
41.270,-0.045
41.275,-0.027
41.280,0.006
41.285,0.043
41.290,0.078
41.295,0.117
41.300,0.147
41.305,0.171
41.310,0.173
41.315,0.159
41.320,0.155
41.325,0.155
41.330,0.150
41.335,0.147
41.340,0.145
41.345,0.143
41.350,0.143
41.355,0.132
41.360,0.116
41.365,0.107
41.370,0.115
41.375,0.128
41.380,0.092
41.385,-0.015
41.390,-0.155
41.395,-0.310
41.400,-0.464
41.405,-0.513
41.410,-0.347
41.415,-0.061
41.420,0.205
41.425,0.474
41.430,0.743
41.435,0.936
41.440,0.936
41.445,0.725
41.450,0.473
41.455,0.281
41.460,0.122
41.465,0.016
41.470,-0.030
41.475,-0.073
41.480,-0.114
41.485,-0.132
41.490,-0.134
41.495,-0.134
41.500,-0.136
41.505,-0.137
41.510,-0.142
41.515,-0.147
41.520,-0.148
41.525,-0.149
41.530,-0.149
41.535,-0.151
41.540,-0.153
41.545,-0.158
41.550,-0.160
41.555,-0.155
41.560,-0.154
41.565,-0.153
41.570,-0.153
41.575,-0.154
41.580,-0.155
41.585,-0.161
41.590,-0.164
41.595,-0.167
41.600,-0.171
41.605,-0.173
41.610,-0.179
41.615,-0.184
41.620,-0.189
41.625,-0.194
41.630,-0.194
41.635,-0.189
41.640,-0.182
41.645,-0.181
41.650,-0.180
41.655,-0.175
41.660,-0.170
41.665,-0.164
41.670,-0.160
41.675,-0.156
41.680,-0.151
41.685,-0.149
41.690,-0.142
41.695,-0.133
41.700,-0.121
41.705,-0.100
41.710,-0.079
41.715,-0.053
41.720,-0.022
41.725,0.008
41.730,0.033
41.735,0.052
41.740,0.069
41.745,0.081
41.750,0.093
41.755,0.102
41.760,0.103
41.765,0.104
41.770,0.104
41.775,0.100
41.780,0.096
41.785,0.093
41.790,0.094
41.795,0.091
41.800,0.089
41.805,0.090
41.810,0.082
41.815,0.072
41.820,0.068
41.825,0.066
41.830,0.065
41.835,0.060
41.840,0.057
41.845,0.056
41.850,0.057
41.855,0.058
41.860,0.058
41.865,0.062
41.870,0.065
41.875,0.066
41.880,0.066
41.885,0.058
41.890,0.049
41.895,0.032
41.900,0.010
41.905,-0.005
41.910,-0.011
41.915,-0.010
41.920,-0.018
41.925,-0.047
41.930,-0.079
41.935,-0.096
41.940,-0.100
41.945,-0.094
41.950,-0.077
41.955,-0.057
41.960,-0.041
41.965,-0.015
41.970,0.023
41.975,0.062
41.980,0.099
41.985,0.128
41.990,0.153
41.995,0.167
42.000,0.165
42.005,0.162
42.010,0.158
42.015,0.154
42.020,0.152
42.025,0.147
42.030,0.139
42.035,0.129
42.040,0.125
42.045,0.122
42.050,0.116
42.055,0.118
42.060,0.125
42.065,0.107
42.070,0.024
42.075,-0.118
42.080,-0.280
42.085,-0.434
42.090,-0.543
42.095,-0.480
42.100,-0.216
42.105,0.088
42.110,0.381
42.115,0.666
42.120,0.891
42.125,0.969
42.130,0.830
42.135,0.579
42.140,0.370
42.145,0.203
42.150,0.064
42.155,-0.009
42.160,-0.047
42.165,-0.082
42.170,-0.104
42.175,-0.115
42.180,-0.123
42.185,-0.129
42.190,-0.129
42.195,-0.133
42.200,-0.140
42.205,-0.139
42.210,-0.142
42.215,-0.144
42.220,-0.143
42.225,-0.144
42.230,-0.144
42.235,-0.146
42.240,-0.146
42.245,-0.147
42.250,-0.150
42.255,-0.151
42.260,-0.153
42.265,-0.156
42.270,-0.159
42.275,-0.163
42.280,-0.163
42.285,-0.167
42.290,-0.173
42.295,-0.181
42.300,-0.188
42.305,-0.190
42.310,-0.195
42.315,-0.200
42.320,-0.200
42.325,-0.199
42.330,-0.200
42.335,-0.197
42.340,-0.191
42.345,-0.187
42.350,-0.179
42.355,-0.170
42.360,-0.168
42.365,-0.164
42.370,-0.157
42.375,-0.151
42.380,-0.142
42.385,-0.130
42.390,-0.112
42.395,-0.092
42.400,-0.070
42.405,-0.045
42.410,-0.020
42.415,0.005
42.420,0.030
42.425,0.053
42.430,0.073
42.435,0.087
42.440,0.100
42.445,0.108
42.450,0.112
42.455,0.116
42.460,0.113
42.465,0.112
42.470,0.111
42.475,0.105
42.480,0.101
42.485,0.097
42.490,0.094
42.495,0.089
42.500,0.082
42.505,0.083
42.510,0.079
42.515,0.072
42.520,0.067
42.525,0.064
42.530,0.066
42.535,0.068
42.540,0.070
42.545,0.070
42.550,0.067
42.555,0.065
42.560,0.062
42.565,0.062
42.570,0.060
42.575,0.050
42.580,0.038
42.585,0.022
42.590,0.001
42.595,-0.013
42.600,-0.016
42.605,-0.015
42.610,-0.029
42.615,-0.061
42.620,-0.087
42.625,-0.100
42.630,-0.102
42.635,-0.088
42.640,-0.068
42.645,-0.052
42.650,-0.031
42.655,0.003
42.660,0.042
42.665,0.075
42.670,0.107
42.675,0.135
42.680,0.154
42.685,0.161
42.690,0.160
42.695,0.159
42.700,0.158
42.705,0.156
42.710,0.151
42.715,0.146
42.720,0.140
42.725,0.131
42.730,0.124
42.735,0.120
42.740,0.118
42.745,0.119
42.750,0.118
42.755,0.081
42.760,-0.025
42.765,-0.175
42.770,-0.334
42.775,-0.475
42.780,-0.540
42.785,-0.398
42.790,-0.096
42.795,0.206
42.800,0.513
42.805,0.782
42.810,0.936
42.815,0.918
42.820,0.710
42.825,0.465
42.830,0.289
42.835,0.137
42.840,0.021
42.845,-0.027
42.850,-0.062
42.855,-0.094
42.860,-0.110
42.865,-0.118
42.870,-0.126
42.875,-0.130
42.880,-0.133
42.885,-0.138
42.890,-0.141
42.895,-0.144
42.900,-0.146
42.905,-0.141
42.910,-0.139
42.915,-0.142
42.920,-0.142
42.925,-0.144
42.930,-0.147
42.935,-0.147
42.940,-0.147
42.945,-0.148
42.950,-0.152
42.955,-0.154
42.960,-0.159
42.965,-0.165
42.970,-0.166
42.975,-0.173
42.980,-0.178
42.985,-0.181
42.990,-0.186
42.995,-0.192
43.000,-0.199
43.005,-0.202
43.010,-0.205
43.015,-0.207
43.020,-0.207
43.025,-0.206
43.030,-0.199
43.035,-0.187
43.040,-0.176
43.045,-0.170
43.050,-0.167
43.055,-0.162
43.060,-0.156
43.065,-0.148
43.070,-0.136
43.075,-0.124
43.080,-0.107
43.085,-0.085
43.090,-0.060
43.095,-0.033
43.100,-0.008
43.105,0.021
43.110,0.046
43.115,0.067
43.120,0.085
43.125,0.096
43.130,0.105
43.135,0.113
43.140,0.116
43.145,0.120
43.150,0.120
43.155,0.121
43.160,0.119
43.165,0.113
43.170,0.109
43.175,0.105
43.180,0.101
43.185,0.097
43.190,0.091
43.195,0.086
43.200,0.082
43.205,0.082
43.210,0.077
43.215,0.072
43.220,0.074
43.225,0.073
43.230,0.071
43.235,0.069
43.240,0.067
43.245,0.067
43.250,0.063
43.255,0.063
43.260,0.063
43.265,0.057
43.270,0.046
43.275,0.025
43.280,0.005
43.285,-0.012
43.290,-0.017
43.295,-0.018
43.300,-0.027
43.305,-0.046
43.310,-0.076
43.315,-0.097
43.320,-0.101
43.325,-0.096
43.330,-0.078
43.335,-0.061
43.340,-0.045
43.345,-0.018
43.350,0.018
43.355,0.059
43.360,0.092
43.365,0.121
43.370,0.148
43.375,0.161
43.380,0.163
43.385,0.161
43.390,0.159
43.395,0.155
43.400,0.148
43.405,0.144
43.410,0.139
43.415,0.131
43.420,0.126
43.425,0.119
43.430,0.114
43.435,0.112
43.440,0.120
43.445,0.109
43.450,0.035
43.455,-0.096
43.460,-0.253
43.465,-0.402
43.470,-0.512
43.475,-0.488
43.480,-0.253
43.485,0.062
43.490,0.366
43.495,0.659
43.500,0.872
43.505,0.944
43.510,0.819
43.515,0.566
43.520,0.356
43.525,0.199
43.530,0.059
43.535,-0.022
43.540,-0.057
43.545,-0.090
43.550,-0.114
43.555,-0.122
43.560,-0.130
43.565,-0.135
43.570,-0.136
43.575,-0.142
43.580,-0.145
43.585,-0.144
43.590,-0.144
43.595,-0.147
43.600,-0.149
43.605,-0.149
43.610,-0.150
43.615,-0.150
43.620,-0.149
43.625,-0.151
43.630,-0.154
43.635,-0.156
43.640,-0.157
43.645,-0.157
43.650,-0.161
43.655,-0.166
43.660,-0.172
43.665,-0.178
43.670,-0.180
43.675,-0.186
43.680,-0.189
43.685,-0.192
43.690,-0.198
43.695,-0.202
43.700,-0.203
43.705,-0.204
43.710,-0.208
43.715,-0.206
43.720,-0.197
43.725,-0.192
43.730,-0.186
43.735,-0.178
43.740,-0.170
43.745,-0.164
43.750,-0.160
43.755,-0.152
43.760,-0.143
43.765,-0.134
43.770,-0.117
43.775,-0.099
43.780,-0.075
43.785,-0.047
43.790,-0.018
43.795,0.011
43.800,0.036
43.805,0.060
43.810,0.079
43.815,0.093
43.820,0.105
43.825,0.114
43.830,0.119
43.835,0.121
43.840,0.120
43.845,0.120
43.850,0.119
43.855,0.116
43.860,0.113
43.865,0.109
43.870,0.108
43.875,0.102
43.880,0.095
43.885,0.091
43.890,0.088
43.895,0.085
43.900,0.082
43.905,0.080
43.910,0.077
43.915,0.072
43.920,0.069
43.925,0.066
43.930,0.066
43.935,0.064
43.940,0.060
43.945,0.057
43.950,0.054
43.955,0.052
43.960,0.047
43.965,0.038
43.970,0.027
43.975,0.005
43.980,-0.018
43.985,-0.026
43.990,-0.020
43.995,-0.020
44.000,-0.041
44.005,-0.073
44.010,-0.097
44.015,-0.108
44.020,-0.102
44.025,-0.084
44.030,-0.064
44.035,-0.044
44.040,-0.024
44.045,0.009
44.050,0.051
44.055,0.087
44.060,0.117
44.065,0.143
44.070,0.164
44.075,0.164
44.080,0.155
44.085,0.153
44.090,0.154
44.095,0.151
44.100,0.144
44.105,0.139
44.110,0.133
44.115,0.129
44.120,0.126
44.125,0.115
44.130,0.108
44.135,0.114
44.140,0.116
44.145,0.073
44.150,-0.034
44.155,-0.175
44.160,-0.323
44.165,-0.460
44.170,-0.504
44.175,-0.336
44.180,-0.046
44.185,0.228
44.190,0.514
44.195,0.775
44.200,0.934
44.205,0.907
44.210,0.681
44.215,0.437
44.220,0.261
44.225,0.106
44.230,0.005
44.235,-0.036
44.240,-0.076
44.245,-0.117
44.250,-0.137
44.255,-0.138
44.260,-0.138
44.265,-0.141
44.270,-0.142
44.275,-0.152
44.280,-0.161
44.285,-0.160
44.290,-0.156
44.295,-0.150
44.300,-0.148
44.305,-0.151
44.310,-0.151
44.315,-0.150
44.320,-0.149
44.325,-0.150
44.330,-0.152
44.335,-0.154
44.340,-0.160
44.345,-0.167
44.350,-0.173
44.355,-0.175
44.360,-0.176
44.365,-0.176
44.370,-0.176
44.375,-0.186
44.380,-0.193
44.385,-0.197
44.390,-0.200
44.395,-0.199
44.400,-0.202
44.405,-0.202
44.410,-0.196
44.415,-0.188
44.420,-0.179
44.425,-0.178
44.430,-0.180
44.435,-0.177
44.440,-0.171
44.445,-0.164
44.450,-0.154
44.455,-0.148
44.460,-0.139
44.465,-0.118
44.470,-0.096
44.475,-0.075
44.480,-0.052
44.485,-0.032
44.490,-0.008
44.495,0.021
44.500,0.048
44.505,0.073
44.510,0.087
44.515,0.098
44.520,0.114
44.525,0.112
44.530,0.106
44.535,0.109
44.540,0.108
44.545,0.109
44.550,0.105
44.555,0.098
44.560,0.097
44.565,0.096
44.570,0.099
44.575,0.102
44.580,0.094
44.585,0.088
44.590,0.085
44.595,0.076
44.600,0.069
44.605,0.064
44.610,0.058
44.615,0.060
44.620,0.066
44.625,0.065
44.630,0.062
44.635,0.057
44.640,0.059
44.645,0.069
44.650,0.065
44.655,0.050
44.660,0.031
44.665,0.004
44.670,-0.010
44.675,-0.012
44.680,-0.022
44.685,-0.032
44.690,-0.053
44.695,-0.082
44.700,-0.099
44.705,-0.105
44.710,-0.091
44.715,-0.063
44.720,-0.043
44.725,-0.037
44.730,-0.012
44.735,0.036
44.740,0.074
44.745,0.106
44.750,0.126
44.755,0.146
44.760,0.161
44.765,0.159
44.770,0.158
44.775,0.157
44.780,0.153
44.785,0.151
44.790,0.144
44.795,0.135
44.800,0.129
44.805,0.128
44.810,0.123
44.815,0.113
44.820,0.114
44.825,0.132
44.830,0.125
44.835,0.038
44.840,-0.108
44.845,-0.263
44.850,-0.414
44.855,-0.518
44.860,-0.428
44.865,-0.166
44.870,0.101
44.875,0.359
44.880,0.624
44.885,0.879
44.890,0.976
44.895,0.821
44.900,0.569
44.905,0.356
44.910,0.180
44.915,0.037
44.920,-0.038
44.925,-0.068
44.930,-0.100
44.935,-0.129
44.940,-0.136
44.945,-0.137
44.950,-0.141
44.955,-0.139
44.960,-0.141
44.965,-0.140
44.970,-0.137
44.975,-0.154
44.980,-0.159
44.985,-0.146
44.990,-0.144
44.995,-0.143
45.000,-0.145
45.005,-0.152
45.010,-0.150
45.015,-0.146
45.020,-0.144
45.025,-0.147
45.030,-0.153
45.035,-0.161
45.040,-0.169
45.045,-0.166
45.050,-0.161
45.055,-0.164
45.060,-0.174
45.065,-0.186
45.070,-0.186
45.075,-0.185
45.080,-0.184
45.085,-0.181
