'Elapsed time','ECG'
'seconds','mV'
0.000,0.235
0.005,0.388
0.010,0.428
0.015,0.331
0.020,0.286
0.025,0.322
0.030,0.272
0.035,0.190
0.040,0.183
0.045,0.145
0.050,0.089
0.055,0.089
0.060,0.068
0.065,-0.020
0.070,-0.096
0.075,-0.109
0.080,-0.103
0.085,-0.103
0.090,-0.096
0.095,-0.093
0.100,-0.096
0.105,-0.091
0.110,-0.088
0.115,-0.101
0.120,-0.113
0.125,-0.121
0.130,-0.129
0.135,-0.127
0.140,-0.125
0.145,-0.127
0.150,-0.137
0.155,-0.147
0.160,-0.146
0.165,-0.148
0.170,-0.159
0.175,-0.172
0.180,-0.177
0.185,-0.186
0.190,-0.197
0.195,-0.199
0.200,-0.215
0.205,-0.237
0.210,-0.245
0.215,-0.251
0.220,-0.259
0.225,-0.275
0.230,-0.301
0.235,-0.321
0.240,-0.329
0.245,-0.311
0.250,-0.271
0.255,-0.232
0.260,-0.185
0.265,-0.135
0.270,-0.096
0.275,-0.052
0.280,0.004
0.285,0.053
0.290,0.086
0.295,0.117
0.300,0.149
0.305,0.177
0.310,0.195
0.315,0.208
0.320,0.227
0.325,0.240
0.330,0.236
0.335,0.231
0.340,0.230
0.345,0.237
0.350,0.233
0.355,0.213
0.360,0.200
0.365,0.184
0.370,0.167
0.375,0.153
0.380,0.149
0.385,0.162
0.390,0.169
0.395,0.165
0.400,0.160
0.405,0.163
0.410,0.162
0.415,0.151
0.420,0.147
0.425,0.147
0.430,0.142
0.435,0.142
0.440,0.143
0.445,0.134
0.450,0.121
0.455,0.113
0.460,0.112
0.465,0.108
0.470,0.105
0.475,0.106
0.480,0.096
0.485,0.079
0.490,0.069
0.495,0.072
0.500,0.067
0.505,0.047
0.510,0.037
0.515,0.031
0.520,0.025
0.525,0.014
0.530,-0.002
0.535,0.004
0.540,0.015
0.545,0.015
0.550,0.010
0.555,0.005
0.560,0.014
0.565,0.007
0.570,-0.008
0.575,-0.001
0.580,0.033
0.585,0.063
0.590,0.023
0.595,-0.125
0.600,-0.407
0.605,-0.798
0.610,-1.165
0.615,-1.262
0.620,-0.976
0.625,-0.412
0.630,0.221
0.635,0.681
0.640,0.896
0.645,0.931
0.650,0.851
0.655,0.695
0.660,0.511
0.665,0.352
0.670,0.248
0.675,0.204
0.680,0.179
0.685,0.151
0.690,0.157
0.695,0.158
0.700,0.113
0.705,0.075
0.710,0.050
0.715,0.007
0.720,-0.030
0.725,-0.044
0.730,-0.048
0.735,-0.093
0.740,-0.175
0.745,-0.224
0.750,-0.245
0.755,-0.245
0.760,-0.235
0.765,-0.252
0.770,-0.243
0.775,-0.213
0.780,-0.217
0.785,-0.219
0.790,-0.220
0.795,-0.230
0.800,-0.228
0.805,-0.227
0.810,-0.235
0.815,-0.252
0.820,-0.264
0.825,-0.271
0.830,-0.281
0.835,-0.294
0.840,-0.325
0.845,-0.348
0.850,-0.355
0.855,-0.361
0.860,-0.335
0.865,-0.306
0.870,-0.312
0.875,-0.330
0.880,-0.362
0.885,-0.384
0.890,-0.376
0.895,-0.373
0.900,-0.372
0.905,-0.346
0.910,-0.293
0.915,-0.234
0.920,-0.183
0.925,-0.136
0.930,-0.082
0.935,-0.012
0.940,0.053
0.945,0.118
0.950,0.181
0.955,0.224
0.960,0.258
0.965,0.291
0.970,0.312
0.975,0.323
0.980,0.332
0.985,0.350
0.990,0.360
0.995,0.353
1.000,0.346
1.005,0.323
1.010,0.290
1.015,0.272
1.020,0.245
1.025,0.224
1.030,0.224
1.035,0.216
1.040,0.207
1.045,0.211
1.050,0.204
1.055,0.204
1.060,0.224
1.065,0.216
1.070,0.200
1.075,0.207
1.080,0.198
1.085,0.187
1.090,0.182
1.095,0.174
1.100,0.170
1.105,0.153
1.110,0.143
1.115,0.156
1.120,0.162
1.125,0.163
1.130,0.157
1.135,0.128
1.140,0.099
1.145,0.081
1.150,0.061
1.155,0.044
1.160,0.025
1.165,0.008
1.170,0.022
1.175,0.028
1.180,0.008
1.185,0.013
1.190,0.045
1.195,0.054
1.200,0.039
1.205,0.028
1.210,0.027
1.215,0.029
1.220,0.023
1.225,-0.002
1.230,-0.022
1.235,-0.022
1.240,-0.021
1.245,-0.011
1.250,-0.004
1.255,-0.013
1.260,-0.008
1.265,0.010
1.270,0.024
1.275,0.006
1.280,-0.014
1.285,-0.024
1.290,-0.052
1.295,-0.073
1.300,-0.108
1.305,-0.123
1.310,-0.090
1.315,-0.071
1.320,-0.057
1.325,-0.039
1.330,-0.045
1.335,-0.063
1.340,-0.082
1.345,-0.089
1.350,-0.071
1.355,-0.054
1.360,-0.053
1.365,-0.065
1.370,-0.065
1.375,-0.051
1.380,-0.053
1.385,-0.066
1.390,-0.075
1.395,-0.077
1.400,-0.081
1.405,-0.076
1.410,-0.065
1.415,-0.051
1.420,-0.046
1.425,-0.075
1.430,-0.084
1.435,-0.068
1.440,-0.064
1.445,-0.065
1.450,-0.087
1.455,-0.095
1.460,-0.055
1.465,-0.027
1.470,-0.019
1.475,-0.019
1.480,-0.022
1.485,-0.022
1.490,-0.092
1.495,-0.311
1.500,-0.685
1.505,-1.117
1.510,-1.342
1.515,-1.205
1.520,-0.736
1.525,-0.035
1.530,0.581
1.535,0.902
1.540,0.950
1.545,0.846
1.550,0.714
1.555,0.560
1.560,0.416
1.565,0.320
1.570,0.301
1.575,0.307
1.580,0.266
1.585,0.234
1.590,0.222
1.595,0.202
1.600,0.161
1.605,0.117
1.610,0.087
1.615,0.058
1.620,0.021
1.625,-0.022
1.630,-0.057
1.635,-0.082
1.640,-0.132
1.645,-0.171
1.650,-0.169
1.655,-0.168
1.660,-0.173
1.665,-0.189
1.670,-0.196
1.675,-0.170
1.680,-0.146
1.685,-0.153
1.690,-0.167
1.695,-0.190
1.700,-0.210
1.705,-0.193
1.710,-0.186
1.715,-0.181
1.720,-0.159
1.725,-0.160
1.730,-0.176
1.735,-0.190
1.740,-0.200
1.745,-0.202
1.750,-0.199
1.755,-0.189
1.760,-0.170
1.765,-0.167
1.770,-0.194
1.775,-0.225
1.780,-0.230
1.785,-0.234
1.790,-0.251
1.795,-0.255
1.800,-0.277
1.805,-0.287
1.810,-0.247
1.815,-0.231
1.820,-0.231
1.825,-0.206
1.830,-0.153
1.835,-0.098
1.840,-0.083
1.845,-0.072
1.850,-0.021
1.855,0.047
1.860,0.113
1.865,0.167
1.870,0.206
1.875,0.228
1.880,0.229
1.885,0.242
1.890,0.260
1.895,0.258
1.900,0.254
1.905,0.262
1.910,0.274
1.915,0.271
1.920,0.263
1.925,0.262
1.930,0.250
1.935,0.227
1.940,0.208
1.945,0.203
1.950,0.216
1.955,0.221
1.960,0.206
1.965,0.191
1.970,0.181
1.975,0.175
1.980,0.169
1.985,0.159
1.990,0.155
1.995,0.137
2.000,0.011
2.005,-0.237
2.010,-0.550
2.015,-0.896
2.020,-1.077
2.025,-0.862
2.030,-0.278
2.035,0.413
2.040,0.892
2.045,1.058
2.050,1.025
2.055,0.909
2.060,0.731
2.065,0.548
2.070,0.433
2.075,0.357
2.080,0.324
2.085,0.322
2.090,0.311
2.095,0.307
2.100,0.297
2.105,0.249
2.110,0.182
2.115,0.112
2.120,0.041
2.125,-0.005
2.130,-0.020
2.135,-0.022
2.140,-0.038
2.145,-0.099
2.150,-0.177
2.155,-0.206
2.160,-0.194
2.165,-0.194
2.170,-0.213
2.175,-0.229
2.180,-0.232
2.185,-0.232
2.190,-0.241
2.195,-0.249
2.200,-0.258
2.205,-0.263
2.210,-0.249
2.215,-0.237
2.220,-0.247
2.225,-0.273
2.230,-0.291
2.235,-0.295
2.240,-0.300
2.245,-0.305
2.250,-0.322
2.255,-0.346
2.260,-0.351
2.265,-0.339
2.270,-0.323
2.275,-0.312
2.280,-0.302
2.285,-0.292
2.290,-0.289
2.295,-0.290
2.300,-0.286
2.305,-0.264
2.310,-0.213
2.315,-0.164
2.320,-0.116
2.325,-0.055
2.330,0.000
2.335,0.049
2.340,0.088
2.345,0.121
2.350,0.159
2.355,0.206
2.360,0.245
2.365,0.263
2.370,0.276
2.375,0.284
2.380,0.288
2.385,0.303
2.390,0.309
2.395,0.293
2.400,0.277
2.405,0.272
2.410,0.274
2.415,0.276
2.420,0.277
2.425,0.278
2.430,0.279
2.435,0.265
2.440,0.239
2.445,0.224
2.450,0.200
2.455,0.175
2.460,0.166
2.465,0.155
2.470,0.152
2.475,0.141
2.480,0.127
2.485,0.135
2.490,0.139
2.495,0.139
2.500,0.126
2.505,0.095
2.510,0.085
2.515,0.081
2.520,0.069
2.525,0.057
2.530,0.044
2.535,0.037
2.540,0.030
2.545,0.021
2.550,0.012
2.555,0.015
2.560,0.027
2.565,0.034
2.570,0.044
2.575,0.044
2.580,0.033
2.585,0.024
2.590,0.009
2.595,-0.007
2.600,-0.020
2.605,-0.023
2.610,-0.016
2.615,-0.016
2.620,-0.021
2.625,-0.022
2.630,-0.030
2.635,-0.042
2.640,-0.049
2.645,-0.052
2.650,-0.062
2.655,-0.078
2.660,-0.087
2.665,-0.094
2.670,-0.083
2.675,-0.068
2.680,-0.070
2.685,-0.082
2.690,-0.094
2.695,-0.085
2.700,-0.067
2.705,-0.057
2.710,-0.039
2.715,-0.020
2.720,-0.010
2.725,-0.019
2.730,-0.045
2.735,-0.068
2.740,-0.069
2.745,-0.058
2.750,-0.050
2.755,-0.049
2.760,-0.055
2.765,-0.054
2.770,-0.048
2.775,-0.045
2.780,-0.052
2.785,-0.065
2.790,-0.062
2.795,-0.089
2.800,-0.232
2.805,-0.500
2.810,-0.870
2.815,-1.252
2.820,-1.411
2.825,-1.196
2.830,-0.634
2.835,0.074
2.840,0.619
2.845,0.881
2.850,0.937
2.855,0.885
2.860,0.749
2.865,0.562
2.870,0.407
2.875,0.308
2.880,0.275
2.885,0.259
2.890,0.237
2.895,0.244
2.900,0.234
2.905,0.197
2.910,0.177
2.915,0.148
2.920,0.093
2.925,0.038
2.930,-0.013
2.935,-0.051
2.940,-0.079
2.945,-0.139
2.950,-0.210
2.955,-0.234
2.960,-0.212
2.965,-0.188
2.970,-0.191
2.975,-0.200
2.980,-0.187
2.985,-0.174
2.990,-0.184
2.995,-0.193
3.000,-0.191
3.005,-0.196
3.010,-0.190
3.015,-0.173
3.020,-0.175
3.025,-0.182
3.030,-0.187
3.035,-0.189
3.040,-0.189
3.045,-0.186
3.050,-0.183
3.055,-0.183
3.060,-0.187
3.065,-0.205
3.070,-0.215
3.075,-0.218
3.080,-0.236
3.085,-0.256
3.090,-0.275
3.095,-0.291
3.100,-0.311
3.105,-0.326
3.110,-0.328
3.115,-0.337
3.120,-0.322
3.125,-0.291
3.130,-0.265
3.135,-0.212
3.140,-0.148
3.145,-0.075
3.150,-0.009
3.155,0.035
3.160,0.086
3.165,0.132
3.170,0.165
3.175,0.212
3.180,0.259
3.185,0.286
3.190,0.295
3.195,0.297
3.200,0.290
3.205,0.280
3.210,0.274
3.215,0.263
3.220,0.262
3.225,0.256
3.230,0.241
3.235,0.237
3.240,0.233
3.245,0.232
3.250,0.232
3.255,0.222
3.260,0.211
3.265,0.203
3.270,0.196
3.275,0.197
3.280,0.202
3.285,0.197
3.290,0.179
3.295,0.167
3.300,0.163
3.305,0.155
3.310,0.145
3.315,0.129
3.320,0.123
3.325,0.127
3.330,0.128
3.335,0.129
3.340,0.119
3.345,0.113
3.350,0.118
3.355,0.118
3.360,0.110
3.365,0.081
3.370,0.039
3.375,0.032
3.380,0.048
3.385,0.055
3.390,0.061
3.395,0.055
3.400,0.046
3.405,0.059
3.410,0.062
3.415,0.054
3.420,0.053
3.425,0.049
3.430,0.045
3.435,0.039
3.440,0.031
3.445,0.036
3.450,0.037
3.455,0.027
3.460,0.017
3.465,0.013
3.470,0.012
3.475,-0.005
3.480,-0.024
3.485,-0.013
3.490,0.017
3.495,0.032
3.500,0.022
3.505,0.005
3.510,0.002
3.515,0.002
3.520,-0.005
3.525,-0.016
3.530,-0.005
3.535,0.006
3.540,-0.013
3.545,-0.028
3.550,-0.042
3.555,-0.060
3.560,-0.061
3.565,-0.057
3.570,-0.053
3.575,-0.040
3.580,-0.038
3.585,-0.047
3.590,-0.043
3.595,-0.046
3.600,-0.055
3.605,-0.032
3.610,-0.002
3.615,-0.056
3.620,-0.238
3.625,-0.562
3.630,-0.980
3.635,-1.292
3.640,-1.272
3.645,-0.867
3.650,-0.224
3.655,0.401
3.660,0.803
3.665,0.956
3.670,0.939
3.675,0.817
3.680,0.642
3.685,0.483
3.690,0.365
3.695,0.290
3.700,0.263
3.705,0.247
3.710,0.223
3.715,0.212
3.720,0.201
3.725,0.157
3.730,0.096
3.735,0.033
3.740,-0.026
3.745,-0.065
3.750,-0.103
3.755,-0.139
3.760,-0.172
3.765,-0.222
3.770,-0.268
3.775,-0.282
3.780,-0.279
3.785,-0.282
3.790,-0.289
3.795,-0.287
3.800,-0.274
3.805,-0.260
3.810,-0.230
3.815,-0.198
3.820,-0.204
3.825,-0.209
3.830,-0.198
3.835,-0.196
3.840,-0.190
3.845,-0.186
3.850,-0.194
3.855,-0.181
3.860,-0.167
3.865,-0.175
3.870,-0.184
3.875,-0.189
3.880,-0.200
3.885,-0.226
3.890,-0.244
3.895,-0.242
3.900,-0.241
3.905,-0.246
3.910,-0.276
3.915,-0.310
3.920,-0.323
3.925,-0.344
3.930,-0.352
3.935,-0.344
3.940,-0.341
3.945,-0.307
3.950,-0.236
3.955,-0.164
3.960,-0.098
3.965,-0.034
3.970,0.031
3.975,0.097
3.980,0.152
3.985,0.198
3.990,0.245
3.995,0.286
4.000,0.311
4.005,0.322
4.010,0.335
4.015,0.353
4.020,0.364
4.025,0.357
4.030,0.341
4.035,0.336
4.040,0.344
4.045,0.337
4.050,0.300
4.055,0.270
4.060,0.274
4.065,0.260
4.070,0.227
4.075,0.206
4.080,0.188
4.085,0.176
4.090,0.168
4.095,0.153
4.100,0.119
4.105,0.100
4.110,0.118
4.115,0.137
4.120,0.147
4.125,0.141
4.130,0.138
4.135,0.151
4.140,0.148
4.145,0.131
4.150,0.109
4.155,0.084
4.160,0.089
4.165,0.113
4.170,0.113
4.175,0.100
4.180,0.089
4.185,0.091
4.190,0.100
4.195,0.094
4.200,0.085
4.205,0.083
4.210,0.070
4.215,-0.023
4.220,-0.234
4.225,-0.571
4.230,-0.999
4.235,-1.282
4.240,-1.180
4.245,-0.666
4.250,0.063
4.255,0.664
4.260,0.964
4.265,1.042
4.270,0.989
4.275,0.840
4.280,0.664
4.285,0.516
4.290,0.391
4.295,0.313
4.300,0.285
4.305,0.275
4.310,0.257
4.315,0.209
4.320,0.166
4.325,0.146
4.330,0.118
4.335,0.061
4.340,-0.006
4.345,-0.046
4.350,-0.079
4.355,-0.121
4.360,-0.164
4.365,-0.231
4.370,-0.287
4.375,-0.286
4.380,-0.252
4.385,-0.242
4.390,-0.267
4.395,-0.291
4.400,-0.297
4.405,-0.293
4.410,-0.292
4.415,-0.300
4.420,-0.296
4.425,-0.268
4.430,-0.248
4.435,-0.249
4.440,-0.252
4.445,-0.255
4.450,-0.267
4.455,-0.283
4.460,-0.291
4.465,-0.293
4.470,-0.291
4.475,-0.285
4.480,-0.286
4.485,-0.284
4.490,-0.300
4.495,-0.326
4.500,-0.328
4.505,-0.341
4.510,-0.352
4.515,-0.346
4.520,-0.336
4.525,-0.314
4.530,-0.290
4.535,-0.265
4.540,-0.211
4.545,-0.148
4.550,-0.116
4.555,-0.075
4.560,-0.004
4.565,0.064
4.570,0.123
4.575,0.160
4.580,0.183
4.585,0.222
4.590,0.253
4.595,0.277
4.600,0.300
4.605,0.294
4.610,0.294
4.615,0.299
4.620,0.307
4.625,0.317
4.630,0.281
4.635,0.265
4.640,0.265
4.645,0.252
4.650,0.237
4.655,0.224
4.660,0.227
4.665,0.207
4.670,0.173
4.675,0.158
4.680,0.172
4.685,0.177
4.690,0.143
4.695,0.122
4.700,0.116
4.705,0.103
4.710,0.074
4.715,0.062
4.720,0.099
4.725,0.135
4.730,0.144
4.735,0.124
4.740,0.100
4.745,0.109
4.750,0.116
4.755,0.115
4.760,0.094
4.765,0.032
4.770,0.026
4.775,0.051
4.780,0.029
4.785,-0.013
4.790,-0.056
4.795,-0.090
4.800,-0.101
4.805,-0.066
4.810,0.012
4.815,0.007
4.820,-0.046
4.825,0.014
4.830,0.095
4.835,0.094
4.840,0.041
4.845,0.003
4.850,-0.002
4.855,-0.027
4.860,-0.048
4.865,-0.038
4.870,-0.020
4.875,-0.019
4.880,-0.032
4.885,0.010
4.890,0.042
4.895,0.009
4.900,0.011
4.905,-0.002
4.910,-0.066
4.915,-0.059
4.920,-0.008
4.925,-0.025
4.930,-0.035
4.935,-0.052
4.940,-0.070
4.945,-0.056
4.950,-0.046
4.955,-0.004
4.960,-0.077
4.965,-0.219
4.970,-0.198
4.975,-0.040
4.980,0.040
4.985,-0.027
4.990,0.016
4.995,0.102
5.000,-0.091
5.005,-0.509
5.010,-0.935
5.015,-1.184
5.020,-1.213
5.025,-0.862
5.030,-0.125
5.035,0.586
5.040,0.946
5.045,0.972
5.050,0.953
5.055,0.898
5.060,0.724
5.065,0.544
5.070,0.353
5.075,0.204
5.080,0.218
5.085,0.300
5.090,0.329
5.095,0.284
5.100,0.214
5.105,0.152
5.110,0.122
5.115,0.156
5.120,0.105
5.125,0.015
5.130,0.054
5.135,0.178
5.140,0.212
5.145,0.024
5.150,-0.156
5.155,-0.134
5.160,-0.077
5.165,-0.119
5.170,-0.254
5.175,-0.341
5.180,-0.292
5.185,-0.295
5.190,-0.344
5.195,-0.357
5.200,-0.363
5.205,-0.280
5.210,-0.226
5.215,-0.297
5.220,-0.345
5.225,-0.308
5.230,-0.290
5.235,-0.292
5.240,-0.232
5.245,-0.208
5.250,-0.292
5.255,-0.286
5.260,-0.153
5.265,-0.187
5.270,-0.352
5.275,-0.452
5.280,-0.403
5.285,-0.193
5.290,-0.158
5.295,-0.419
5.300,-0.407
5.305,0.113
5.310,0.279
5.315,-0.571
5.320,-1.338
5.325,-0.258
5.330,1.051
5.335,0.824
5.340,0.480
5.345,0.383
5.350,0.551
5.355,0.459
5.360,-0.258
5.365,-0.345
5.370,-0.141
5.375,-0.346
5.380,-0.177
5.385,0.330
5.390,0.334
5.395,0.124
5.400,0.146
5.405,0.131
5.410,0.027
5.415,0.033
5.420,0.072
5.425,0.068
5.430,0.102
5.435,0.165
5.440,0.181
5.445,0.137
5.450,0.067
5.455,-0.005
5.460,-0.042
5.465,-0.004
5.470,0.068
5.475,0.115
5.480,0.137
5.485,0.121
5.490,0.056
5.495,0.007
5.500,0.018
5.505,0.057
5.510,0.093
5.515,0.099
5.520,0.089
5.525,0.072
5.530,0.039
5.535,0.038
5.540,0.034
5.545,0.045
5.550,0.117
5.555,0.146
5.560,0.129
5.565,0.110
5.570,0.092
5.575,0.088
5.580,0.087
5.585,0.091
5.590,0.084
5.595,0.085
5.600,0.098
5.605,0.110
5.610,0.104
5.615,0.045
5.620,-0.041
5.625,-0.095
5.630,-0.076
5.635,-0.058
5.640,-0.064
5.645,-0.058
5.650,-0.057
5.655,-0.036
5.660,-0.016
5.665,-0.033
5.670,-0.036
5.675,-0.005
5.680,0.023
5.685,0.045
5.690,0.029
5.695,-0.014
5.700,-0.008
5.705,0.032
5.710,0.056
5.715,0.046
5.720,0.005
5.725,-0.122
5.730,-0.418
5.735,-0.846
5.740,-1.199
5.745,-1.233
5.750,-0.910
5.755,-0.360
5.760,0.253
5.765,0.717
5.770,0.937
5.775,0.971
5.780,0.874
5.785,0.699
5.790,0.517
5.795,0.363
5.800,0.256
5.805,0.213
5.810,0.202
5.815,0.197
5.820,0.211
5.825,0.226
5.830,0.201
5.835,0.153
5.840,0.114
5.845,0.065
5.850,0.024
5.855,-0.008
5.860,-0.041
5.865,-0.080
5.870,-0.147
5.875,-0.208
5.880,-0.237
5.885,-0.221
5.890,-0.189
5.895,-0.201
5.900,-0.212
5.905,-0.224
5.910,-0.281
5.915,-0.345
5.920,-0.383
5.925,-0.335
5.930,-0.225
5.935,-0.189
5.940,-0.220
5.945,-0.235
5.950,-0.220
5.955,-0.205
5.960,-0.211
5.965,-0.226
5.970,-0.221
5.975,-0.214
5.980,-0.229
5.985,-0.239
5.990,-0.228
5.995,-0.218
6.000,-0.229
6.005,-0.235
6.010,-0.236
6.015,-0.246
6.020,-0.237
6.025,-0.234
6.030,-0.250
6.035,-0.248
6.040,-0.227
6.045,-0.210
6.050,-0.193
6.055,-0.145
6.060,-0.083
6.065,-0.014
6.070,0.039
6.075,0.068
6.080,0.120
6.085,0.168
6.090,0.194
6.095,0.225
6.100,0.240
6.105,0.272
6.110,0.327
6.115,0.358
6.120,0.379
6.125,0.376
6.130,0.367
6.135,0.370
6.140,0.351
6.145,0.340
6.150,0.334
6.155,0.318
6.160,0.313
6.165,0.303
6.170,0.284
6.175,0.250
6.180,0.201
6.185,0.170
6.190,0.169
6.195,0.204
6.200,0.223
6.205,0.190
6.210,0.167
6.215,0.171
6.220,0.158
6.225,0.122
6.230,0.106
6.235,0.115
6.240,0.126
6.245,0.129
6.250,0.108
6.255,0.102
6.260,0.118
6.265,0.104
6.270,0.081
6.275,0.075
6.280,0.074
6.285,0.079
6.290,0.085
6.295,0.073
6.300,0.058
6.305,0.085
6.310,0.146
6.315,0.158
6.320,0.136
6.325,0.097
6.330,0.025
6.335,0.005
6.340,0.010
6.345,0.003
6.350,0.012
6.355,-0.004
6.360,-0.002
6.365,0.012
6.370,-0.034
6.375,-0.086
6.380,-0.111
6.385,-0.096
6.390,-0.078
6.395,-0.095
6.400,-0.082
6.405,-0.039
6.410,0.007
6.415,-0.031
6.420,-0.232
6.425,-0.537
6.430,-0.932
6.435,-1.277
6.440,-1.292
6.445,-0.901
6.450,-0.263
6.455,0.380
6.460,0.813
6.465,0.989
6.470,0.991
6.475,0.854
6.480,0.626
6.485,0.450
6.490,0.331
6.495,0.238
6.500,0.213
6.505,0.195
6.510,0.165
6.515,0.149
6.520,0.120
6.525,0.076
6.530,0.045
6.535,0.017
6.540,-0.029
6.545,-0.070
6.550,-0.106
6.555,-0.129
6.560,-0.157
6.565,-0.213
6.570,-0.249
6.575,-0.230
6.580,-0.198
6.585,-0.200
6.590,-0.210
6.595,-0.205
6.600,-0.196
6.605,-0.199
6.610,-0.208
6.615,-0.214
6.620,-0.219
6.625,-0.211
6.630,-0.189
6.635,-0.168
6.640,-0.171
6.645,-0.199
6.650,-0.220
6.655,-0.216
6.660,-0.213
6.665,-0.227
6.670,-0.244
6.675,-0.248
6.680,-0.251
6.685,-0.276
6.690,-0.293
6.695,-0.288
6.700,-0.298
6.705,-0.320
6.710,-0.318
6.715,-0.304
6.720,-0.317
6.725,-0.327
6.730,-0.303
6.735,-0.256
6.740,-0.195
6.745,-0.155
6.750,-0.112
6.755,-0.039
6.760,0.021
6.765,0.063
6.770,0.122
6.775,0.171
6.780,0.200
6.785,0.234
6.790,0.258
6.795,0.290
6.800,0.324
6.805,0.331
6.810,0.320
6.815,0.305
6.820,0.290
6.825,0.281
6.830,0.283
6.835,0.276
6.840,0.260
6.845,0.250
6.850,0.230
6.855,0.210
6.860,0.216
6.865,0.226
6.870,0.198
6.875,0.168
6.880,0.179
6.885,0.199
6.890,0.207
6.895,0.191
6.900,0.189
6.905,0.214
6.910,0.209
6.915,0.177
6.920,0.170
6.925,0.185
6.930,0.183
6.935,0.143
6.940,0.107
6.945,0.107
6.950,0.111
6.955,0.103
6.960,0.058
6.965,0.019
6.970,0.021
6.975,0.023
6.980,0.025
6.985,0.023
6.990,0.019
6.995,0.026
7.000,0.043
7.005,0.044
7.010,0.029
7.015,0.013
7.020,0.008
7.025,0.027
7.030,0.024
7.035,0.001
7.040,0.010
7.045,0.028
7.050,0.011
7.055,-0.014
7.060,0.011
7.065,0.047
7.070,0.038
7.075,0.005
7.080,-0.013
7.085,0.005
7.090,0.009
7.095,-0.026
7.100,-0.044
7.105,-0.042
7.110,-0.039
7.115,-0.043
7.120,-0.061
7.125,-0.081
7.130,-0.093
7.135,-0.075
7.140,-0.047
7.145,-0.062
7.150,-0.090
7.155,-0.092
7.160,-0.074
7.165,-0.071
7.170,-0.095
7.175,-0.103
7.180,-0.106
7.185,-0.093
7.190,-0.062
7.195,-0.044
7.200,-0.055
7.205,-0.079
7.210,-0.068
7.215,-0.027
7.220,-0.004
7.225,-0.029
7.230,-0.061
7.235,-0.049
7.240,-0.037
7.245,-0.052
7.250,-0.091
7.255,-0.110
7.260,-0.085
7.265,-0.065
7.270,-0.061
7.275,-0.082
7.280,-0.103
7.285,-0.094
7.290,-0.092
7.295,-0.082
7.300,-0.082
7.305,-0.102
7.310,-0.094
7.315,-0.070
7.320,-0.076
7.325,-0.192
7.330,-0.446
7.335,-0.819
7.340,-1.204
7.345,-1.345
7.350,-1.131
7.355,-0.596
7.360,0.082
7.365,0.610
7.370,0.890
7.375,0.961
7.380,0.906
7.385,0.772
7.390,0.601
7.395,0.455
7.400,0.322
7.405,0.258
7.410,0.239
7.415,0.201
7.420,0.187
7.425,0.169
7.430,0.133
7.435,0.106
7.440,0.074
7.445,0.036
7.450,0.002
7.455,-0.022
7.460,-0.039
7.465,-0.092
7.470,-0.176
7.475,-0.229
7.480,-0.232
7.485,-0.208
7.490,-0.203
7.495,-0.208
7.500,-0.191
7.505,-0.187
7.510,-0.197
7.515,-0.188
7.520,-0.154
7.525,-0.143
7.530,-0.170
7.535,-0.172
7.540,-0.157
7.545,-0.153
7.550,-0.142
7.555,-0.131
7.560,-0.136
7.565,-0.152
7.570,-0.154
7.575,-0.139
7.580,-0.157
7.585,-0.196
7.590,-0.198
7.595,-0.184
7.600,-0.193
7.605,-0.224
7.610,-0.253
7.615,-0.261
7.620,-0.278
7.625,-0.298
7.630,-0.319
7.635,-0.342
7.640,-0.345
7.645,-0.331
7.650,-0.297
7.655,-0.264
7.660,-0.224
7.665,-0.167
7.670,-0.099
7.675,-0.023
7.680,0.026
7.685,0.062
7.690,0.114
7.695,0.167
7.700,0.204
7.705,0.224
7.710,0.243
7.715,0.272
7.720,0.312
7.725,0.348
7.730,0.356
7.735,0.345
7.740,0.337
7.745,0.338
7.750,0.325
7.755,0.289
7.760,0.275
7.765,0.278
7.770,0.275
7.775,0.270
7.780,0.250
7.785,0.227
7.790,0.204
7.795,0.198
7.800,0.205
7.805,0.178
7.810,0.146
7.815,0.128
7.820,0.129
7.825,0.138
7.830,0.123
7.835,0.103
7.840,0.080
7.845,0.068
7.850,0.077
7.855,0.062
7.860,0.049
7.865,0.057
7.870,0.070
7.875,0.104
7.880,0.110
7.885,0.106
7.890,0.117
7.895,0.101
7.900,0.094
7.905,0.108
7.910,0.127
7.915,0.129
7.920,0.127
7.925,0.125
7.930,0.097
7.935,0.105
7.940,0.125
7.945,0.101
7.950,0.075
7.955,0.062
7.960,0.051
7.965,-0.058
7.970,-0.339
7.975,-0.728
7.980,-1.112
7.985,-1.280
7.990,-1.079
7.995,-0.555
8.000,0.106
8.005,0.656
8.010,0.940
8.015,0.980
8.020,0.895
8.025,0.739
8.030,0.559
8.035,0.419
8.040,0.301
8.045,0.237
8.050,0.222
8.055,0.202
8.060,0.212
8.065,0.216
8.070,0.164
8.075,0.108
8.080,0.082
8.085,0.067
8.090,0.032
8.095,-0.037
8.100,-0.094
8.105,-0.129
8.110,-0.172
8.115,-0.224
8.120,-0.268
8.125,-0.277
8.130,-0.253
8.135,-0.245
8.140,-0.251
8.145,-0.248
8.150,-0.250
8.155,-0.261
8.160,-0.267
8.165,-0.271
8.170,-0.259
8.175,-0.227
8.180,-0.217
8.185,-0.219
8.190,-0.215
8.195,-0.208
8.200,-0.215
8.205,-0.240
8.210,-0.238
8.215,-0.242
8.220,-0.263
8.225,-0.265
8.230,-0.268
8.235,-0.277
8.240,-0.296
8.245,-0.318
8.250,-0.348
8.255,-0.382
8.260,-0.397
8.265,-0.408
8.270,-0.398
8.275,-0.341
8.280,-0.284
8.285,-0.252
8.290,-0.205
8.295,-0.161
8.300,-0.116
8.305,-0.042
8.310,0.011
8.315,0.056
8.320,0.122
8.325,0.187
8.330,0.269
8.335,0.344
8.340,0.338
8.345,0.310
8.350,0.330
8.355,0.352
8.360,0.368
8.365,0.352
8.370,0.307
8.375,0.317
8.380,0.335
8.385,0.319
8.390,0.311
8.395,0.274
8.400,0.241
8.405,0.223
8.410,0.183
8.415,0.187
8.420,0.216
8.425,0.217
8.430,0.218
8.435,0.199
8.440,0.164
8.445,0.146
8.450,0.138
8.455,0.144
8.460,0.138
8.465,0.112
8.470,0.136
8.475,0.175
8.480,0.150
8.485,0.127
8.490,0.132
8.495,0.130
8.500,0.128
8.505,0.114
8.510,0.095
8.515,0.086
8.520,0.066
8.525,0.072
8.530,0.094
8.535,0.064
8.540,0.029
8.545,0.012
8.550,-0.010
8.555,-0.021
8.560,-0.030
8.565,-0.034
8.570,-0.030
8.575,-0.047
8.580,-0.059
8.585,-0.044
8.590,-0.049
8.595,-0.072
8.600,-0.071
8.605,-0.046
8.610,-0.017
8.615,-0.022
8.620,-0.057
8.625,-0.056
8.630,-0.033
8.635,-0.042
8.640,-0.047
8.645,-0.007
8.650,0.040
8.655,0.035
8.660,0.000
8.665,-0.017
8.670,-0.024
8.675,-0.021
8.680,-0.021
8.685,-0.018
8.690,0.005
8.695,-0.003
8.700,-0.127
8.705,-0.363
8.710,-0.694
8.715,-1.095
8.720,-1.317
8.725,-1.189
8.730,-0.745
8.735,-0.101
8.740,0.456
8.745,0.785
8.750,0.909
8.755,0.850
8.760,0.708
8.765,0.538
8.770,0.381
8.775,0.257
8.780,0.181
8.785,0.170
8.790,0.172
8.795,0.182
8.800,0.189
8.805,0.138
8.810,0.086
8.815,0.067
8.820,0.049
8.825,0.045
8.830,0.017
8.835,-0.033
8.840,-0.047
8.845,-0.092
8.850,-0.156
8.855,-0.157
8.860,-0.154
8.865,-0.160
8.870,-0.175
8.875,-0.194
8.880,-0.169
8.885,-0.143
8.890,-0.132
8.895,-0.142
8.900,-0.171
8.905,-0.193
8.910,-0.194
8.915,-0.196
8.920,-0.210
8.925,-0.211
8.930,-0.213
8.935,-0.215
8.940,-0.214
8.945,-0.224
8.950,-0.235
8.955,-0.242
8.960,-0.258
8.965,-0.274
8.970,-0.281
8.975,-0.282
8.980,-0.281
8.985,-0.299
8.990,-0.319
8.995,-0.332
9.000,-0.352
9.005,-0.363
9.010,-0.364
9.015,-0.343
9.020,-0.279
9.025,-0.214
9.030,-0.172
9.035,-0.114
9.040,-0.059
9.045,-0.023
9.050,0.032
9.055,0.100
9.060,0.160
9.065,0.192
9.070,0.196
9.075,0.227
9.080,0.262
9.085,0.272
9.090,0.278
9.095,0.296
9.100,0.315
9.105,0.304
9.110,0.273
9.115,0.244
9.120,0.230
9.125,0.221
9.130,0.204
9.135,0.196
9.140,0.194
9.145,0.218
9.150,0.237
9.155,0.215
9.160,0.201
9.165,0.201
9.170,0.201
9.175,0.181
9.180,0.153
9.185,0.143
9.190,0.138
9.195,0.149
9.200,0.152
9.205,0.131
9.210,0.117
9.215,0.126
9.220,0.147
9.225,0.165
9.230,0.163
9.235,0.139
9.240,0.114
9.245,0.084
9.250,0.074
9.255,0.110
9.260,0.133
9.265,0.107
9.270,0.073
9.275,0.060
9.280,0.061
9.285,0.052
9.290,0.048
9.295,0.066
9.300,0.071
9.305,0.042
9.310,0.015
9.315,0.022
9.320,0.032
9.325,0.036
9.330,0.033
9.335,-0.016
9.340,-0.149
9.345,-0.412
9.350,-0.790
9.355,-1.158
9.360,-1.270
9.365,-0.995
9.370,-0.428
9.375,0.234
9.380,0.713
9.385,0.944
9.390,0.986
9.395,0.875
9.400,0.701
9.405,0.539
9.410,0.411
9.415,0.297
9.420,0.231
9.425,0.224
9.430,0.228
9.435,0.220
9.440,0.186
9.445,0.131
9.450,0.092
9.455,0.070
9.460,0.024
9.465,-0.045
9.470,-0.083
9.475,-0.070
9.480,-0.076
9.485,-0.140
9.490,-0.213
9.495,-0.237
9.500,-0.222
9.505,-0.223
9.510,-0.235
9.515,-0.215
9.520,-0.195
9.525,-0.214
9.530,-0.224
9.535,-0.194
9.540,-0.191
9.545,-0.215
9.550,-0.223
9.555,-0.235
9.560,-0.249
9.565,-0.261
9.570,-0.263
9.575,-0.261
9.580,-0.285
9.585,-0.296
9.590,-0.270
9.595,-0.261
9.600,-0.286
9.605,-0.319
9.610,-0.331
9.615,-0.319
9.620,-0.325
9.625,-0.357
9.630,-0.360
9.635,-0.345
9.640,-0.338
9.645,-0.335
9.650,-0.306
9.655,-0.247
9.660,-0.210
9.665,-0.177
9.670,-0.124
9.675,-0.046
9.680,0.045
9.685,0.092
9.690,0.112
9.695,0.138
9.700,0.149
9.705,0.188
9.710,0.253
9.715,0.278
9.720,0.279
9.725,0.279
9.730,0.291
9.735,0.315
9.740,0.305
9.745,0.267
9.750,0.238
9.755,0.235
9.760,0.250
9.765,0.248
9.770,0.220
9.775,0.199
9.780,0.191
9.785,0.176
9.790,0.177
9.795,0.190
9.800,0.190
9.805,0.185
9.810,0.173
9.815,0.180
9.820,0.197
9.825,0.187
9.830,0.159
9.835,0.132
9.840,0.123
9.845,0.128
9.850,0.115
9.855,0.104
9.860,0.104
9.865,0.081
9.870,0.073
9.875,0.070
9.880,0.053
9.885,0.089
9.890,0.113
9.895,0.058
9.900,0.029
9.905,0.038
9.910,0.051
9.915,0.071
9.920,0.049
9.925,0.026
9.930,0.031
9.935,0.013
9.940,0.008
9.945,0.027
9.950,0.012
9.955,-0.013
9.960,-0.001
9.965,0.013
9.970,0.006
9.975,-0.015
9.980,-0.034
9.985,-0.033
9.990,-0.037
9.995,-0.047
10.000,-0.044
10.005,-0.053
10.010,-0.068
10.015,-0.062
10.020,-0.051
10.025,-0.052
10.030,-0.058
10.035,-0.059
10.040,-0.050
10.045,-0.057
10.050,-0.072
10.055,-0.061
10.060,-0.049
10.065,-0.057
10.070,-0.066
10.075,-0.049
10.080,-0.028
10.085,-0.026
10.090,-0.027
10.095,-0.034
10.100,-0.044
10.105,-0.054
10.110,-0.061
10.115,-0.049
10.120,-0.035
10.125,-0.029
10.130,-0.026
10.135,-0.017
10.140,-0.009
10.145,-0.015
10.150,-0.024
10.155,-0.038
10.160,-0.051
10.165,-0.073
10.170,-0.096
10.175,-0.081
10.180,-0.063
10.185,-0.055
10.190,-0.052
10.195,-0.063
10.200,-0.065
10.205,-0.102
10.210,-0.242
10.215,-0.518
10.220,-0.917
10.225,-1.262
10.230,-1.280
10.235,-0.914
10.240,-0.322
10.245,0.298
10.250,0.725
10.255,0.895
10.260,0.905
10.265,0.806
10.270,0.633
10.275,0.480
10.280,0.345
10.285,0.248
10.290,0.239
10.295,0.241
10.300,0.218
10.305,0.224
10.310,0.239
10.315,0.209
10.320,0.173
10.325,0.145
10.330,0.109
10.335,0.070
10.340,0.012
10.345,-0.045
10.350,-0.082
10.355,-0.124
10.360,-0.185
10.365,-0.231
10.370,-0.229
10.375,-0.206
10.380,-0.192
10.385,-0.181
10.390,-0.173
10.395,-0.171
10.400,-0.158
10.405,-0.150
10.410,-0.139
10.415,-0.116
10.420,-0.108
10.425,-0.108
10.430,-0.127
10.435,-0.154
10.440,-0.160
10.445,-0.156
10.450,-0.142
10.455,-0.126
10.460,-0.123
10.465,-0.117
10.470,-0.124
10.475,-0.149
10.480,-0.150
10.485,-0.157
10.490,-0.187
10.495,-0.208
10.500,-0.243
10.505,-0.275
10.510,-0.305
10.515,-0.371
10.520,-0.397
10.525,-0.381
10.530,-0.363
10.535,-0.318
10.540,-0.272
10.545,-0.231
10.550,-0.184
10.555,-0.142
10.560,-0.077
10.565,0.004
10.570,0.068
10.575,0.125
10.580,0.177
10.585,0.213
10.590,0.249
10.595,0.284
10.600,0.317
10.605,0.343
10.610,0.345
10.615,0.357
10.620,0.380
10.625,0.379
10.630,0.357
10.635,0.337
10.640,0.332
10.645,0.315
10.650,0.277
10.655,0.263
10.660,0.269
10.665,0.272
10.670,0.241
10.675,0.179
10.680,0.157
10.685,0.166
10.690,0.171
10.695,0.169
10.700,0.151
10.705,0.113
10.710,0.081
10.715,0.079
10.720,0.082
10.725,0.073
10.730,0.068
10.735,0.060
10.740,0.058
10.745,0.065
10.750,0.073
10.755,0.100
10.760,0.126
10.765,0.109
10.770,0.095
10.775,0.104
10.780,0.107
10.785,0.124
10.790,0.146
10.795,0.112
10.800,0.073
10.805,0.093
10.810,0.102
10.815,0.082
10.820,0.070
10.825,0.062
10.830,0.064
10.835,0.059
10.840,0.048
10.845,0.052
10.850,0.041
10.855,0.010
10.860,-0.015
10.865,-0.004
10.870,0.000
10.875,-0.025
10.880,-0.041
10.885,-0.062
10.890,-0.060
10.895,-0.043
10.900,-0.037
10.905,-0.042
10.910,-0.060
10.915,-0.070
10.920,-0.072
10.925,-0.052
10.930,-0.018
10.935,-0.013
10.940,-0.014
10.945,-0.016
10.950,-0.030
10.955,-0.009
10.960,0.010
10.965,-0.016
10.970,-0.030
10.975,-0.029
10.980,-0.022
10.985,-0.020
10.990,-0.034
10.995,-0.042
11.000,-0.044
11.005,-0.043
11.010,-0.058
11.015,-0.076
11.020,-0.072
11.025,-0.050
11.030,-0.053
11.035,-0.096
11.040,-0.111
11.045,-0.097
11.050,-0.078
11.055,-0.058
11.060,-0.070
11.065,-0.071
11.070,-0.061
11.075,-0.077
11.080,-0.073
11.085,-0.052
11.090,-0.056
11.095,-0.063
11.100,-0.055
11.105,-0.034
11.110,-0.041
11.115,-0.069
11.120,-0.072
11.125,-0.042
11.130,-0.005
11.135,0.004
11.140,-0.014
11.145,-0.021
11.150,-0.041
11.155,-0.197
11.160,-0.517
11.165,-0.928
11.170,-1.283
11.175,-1.319
11.180,-0.979
11.185,-0.412
11.190,0.216
11.195,0.653
11.200,0.802
11.205,0.795
11.210,0.715
11.215,0.580
11.220,0.458
11.225,0.364
11.230,0.298
11.235,0.276
11.240,0.256
11.245,0.269
11.250,0.293
11.255,0.253
11.260,0.210
11.265,0.190
11.270,0.171
11.275,0.140
11.280,0.089
11.285,0.061
11.290,0.040
11.295,-0.009
11.300,-0.077
11.305,-0.125
11.310,-0.134
11.315,-0.133
11.320,-0.129
11.325,-0.128
11.330,-0.135
11.335,-0.134
11.340,-0.143
11.345,-0.175
11.350,-0.192
11.355,-0.184
11.360,-0.192
11.365,-0.205
11.370,-0.190
11.375,-0.189
11.380,-0.220
11.385,-0.245
11.390,-0.246
11.395,-0.215
11.400,-0.181
11.405,-0.171
11.410,-0.169
11.415,-0.172
11.420,-0.186
11.425,-0.194
11.430,-0.191
11.435,-0.214
11.440,-0.235
11.445,-0.226
11.450,-0.232
11.455,-0.240
11.460,-0.225
11.465,-0.224
11.470,-0.242
11.475,-0.231
11.480,-0.184
11.485,-0.133
11.490,-0.093
11.495,-0.055
11.500,-0.011
11.505,0.036
11.510,0.070
11.515,0.099
11.520,0.144
11.525,0.179
11.530,0.184
11.535,0.195
11.540,0.235
11.545,0.287
11.550,0.312
11.555,0.308
11.560,0.305
11.565,0.293
11.570,0.278
11.575,0.260
11.580,0.236
11.585,0.248
11.590,0.249
11.595,0.214
11.600,0.199
11.605,0.205
11.610,0.213
11.615,0.222
11.620,0.223
11.625,0.207
11.630,0.180
11.635,0.172
11.640,0.183
11.645,0.163
11.650,0.116
11.655,0.082
11.660,0.102
11.665,0.144
11.670,0.128
11.675,0.097
11.680,0.101
11.685,0.115
11.690,0.118
11.695,0.087
11.700,0.044
11.705,0.018
11.710,0.000
11.715,-0.019
11.720,-0.021
11.725,-0.010
11.730,-0.004
11.735,-0.004
11.740,-0.017
11.745,-0.015
11.750,0.016
11.755,0.035
11.760,0.017
11.765,-0.095
11.770,-0.355
11.775,-0.740
11.780,-1.137
11.785,-1.295
11.790,-1.068
11.795,-0.517
11.800,0.183
11.805,0.745
11.810,1.025
11.815,1.051
11.820,0.931
11.825,0.782
11.830,0.609
11.835,0.446
11.840,0.358
11.845,0.332
11.850,0.307
11.855,0.257
11.860,0.232
11.865,0.231
11.870,0.189
11.875,0.104
11.880,0.023
11.885,-0.018
11.890,-0.030
11.895,-0.059
11.900,-0.102
11.905,-0.148
11.910,-0.223
11.915,-0.287
11.920,-0.298
11.925,-0.293
11.930,-0.289
11.935,-0.289
11.940,-0.290
11.945,-0.274
11.950,-0.260
11.955,-0.262
11.960,-0.264
11.965,-0.268
11.970,-0.273
11.975,-0.265
11.980,-0.252
11.985,-0.249
11.990,-0.239
11.995,-0.218
12.000,-0.219
12.005,-0.230
12.010,-0.245
12.015,-0.264
12.020,-0.263
12.025,-0.273
12.030,-0.301
12.035,-0.313
12.040,-0.311
12.045,-0.303
12.050,-0.314
12.055,-0.350
12.060,-0.356
12.065,-0.348
12.070,-0.341
12.075,-0.315
12.080,-0.295
12.085,-0.263
12.090,-0.230
12.095,-0.186
12.100,-0.096
12.105,-0.028
12.110,0.009
12.115,0.044
12.120,0.076
12.125,0.137
12.130,0.199
12.135,0.231
12.140,0.286
12.145,0.336
12.150,0.347
12.155,0.356
12.160,0.351
12.165,0.345
12.170,0.348
12.175,0.321
12.180,0.296
12.185,0.319
12.190,0.336
12.195,0.324
12.200,0.312
12.205,0.305
12.210,0.300
12.215,0.278
12.220,0.259
12.225,0.255
12.230,0.217
12.235,0.172
12.240,0.160
12.245,0.144
12.250,0.118
12.255,0.097
12.260,0.069
12.265,0.012
12.270,-0.072
12.275,-0.050
12.280,0.027
12.285,-0.039
12.290,-0.039
12.295,0.039
12.300,-0.016
12.305,-0.263
12.310,-0.262
12.315,0.209
12.320,0.347
12.325,0.134
12.330,-0.006
12.335,-0.025
12.340,0.017
12.345,-0.039
12.350,-0.001
12.355,0.185
12.360,0.233
12.365,0.103
12.370,0.128
12.375,0.284
12.380,0.246
12.385,0.055
12.390,-0.184
12.395,-0.550
12.400,-0.882
12.405,-1.103
12.410,-0.962
12.415,-0.168
12.420,0.840
12.425,1.459
12.430,1.426
12.435,1.239
12.440,1.148
12.445,0.950
12.450,0.695
12.455,0.435
12.460,0.246
12.465,0.129
12.470,0.093
12.475,0.106
12.480,0.085
12.485,0.035
12.490,-0.039
12.495,-0.116
12.500,-0.176
12.505,-0.241
12.510,-0.275
12.515,-0.266
12.520,-0.229
12.525,-0.175
12.530,-0.178
12.535,-0.232
12.540,-0.224
12.545,-0.171
12.550,-0.174
12.555,-0.254
12.560,-0.320
12.565,-0.295
12.570,-0.209
12.575,-0.138
12.580,-0.158
12.585,-0.138
12.590,-0.037
12.595,-0.011
12.600,-0.028
12.605,-0.086
12.610,-0.173
12.615,-0.225
12.620,-0.315
12.625,-0.392
12.630,-0.412
12.635,-0.464
12.640,-0.585
12.645,-0.546
12.650,-0.343
12.655,-0.310
12.660,-0.331
12.665,-0.343
12.670,-0.382
12.675,-0.263
12.680,-0.220
12.685,-0.339
12.690,-0.390
12.695,-0.395
12.700,-0.392
12.705,-0.292
12.710,-0.192
12.715,-0.189
12.720,-0.100
12.725,-0.008
12.730,0.019
12.735,0.102
12.740,0.168
12.745,0.195
12.750,0.191
12.755,0.180
12.760,0.185
12.765,0.186
12.770,0.223
12.775,0.253
12.780,0.245
12.785,0.253
12.790,0.252
12.795,0.242
12.800,0.250
12.805,0.254
12.810,0.251
12.815,0.235
12.820,0.205
12.825,0.175
12.830,0.151
12.835,0.134
12.840,0.120
12.845,0.119
12.850,0.127
12.855,0.126
12.860,0.131
12.865,0.124
12.870,0.098
12.875,0.099
12.880,0.114
12.885,0.096
12.890,0.024
12.895,-0.039
12.900,0.009
12.905,0.075
12.910,0.032
12.915,-0.071
12.920,-0.195
12.925,-0.448
12.930,-0.829
12.935,-1.125
12.940,-1.188
12.945,-0.856
12.950,-0.132
12.955,0.566
12.960,0.986
12.965,1.094
12.970,0.992
12.975,0.874
12.980,0.669
12.985,0.434
12.990,0.377
12.995,0.386
13.000,0.331
13.005,0.300
13.010,0.266
13.015,0.300
13.020,0.427
13.025,0.396
13.030,0.259
13.035,0.117
13.040,0.011
13.045,-0.007
13.050,-0.064
13.055,-0.121
13.060,-0.092
13.065,-0.132
13.070,-0.256
13.075,-0.357
13.080,-0.337
13.085,-0.170
13.090,0.008
13.095,0.116
13.100,0.059
13.105,-0.052
13.110,-0.037
13.115,-0.024
13.120,-0.097
13.125,-0.179
13.130,-0.229
13.135,-0.244
13.140,-0.239
13.145,-0.251
13.150,-0.258
13.155,-0.271
13.160,-0.301
13.165,-0.328
13.170,-0.361
13.175,-0.382
13.180,-0.380
13.185,-0.419
13.190,-0.448
13.195,-0.402
13.200,-0.387
13.205,-0.426
13.210,-0.438
13.215,-0.388
13.220,-0.294
13.225,-0.207
13.230,-0.151
13.235,-0.104
13.240,-0.086
13.245,-0.068
13.250,-0.001
13.255,0.063
13.260,0.086
13.265,0.093
13.270,0.186
13.275,0.286
13.280,0.307
13.285,0.308
13.290,0.256
13.295,0.195
13.300,0.200
13.305,0.251
13.310,0.261
13.315,0.223
13.320,0.228
13.325,0.244
13.330,0.211
13.335,0.171
13.340,0.153
13.345,0.150
13.350,0.146
13.355,0.119
13.360,0.110
13.365,0.113
13.370,0.083
13.375,0.078
13.380,0.084
13.385,0.049
13.390,0.011
13.395,-0.031
13.400,-0.206
13.405,-0.370
13.410,-0.199
13.415,0.057
13.420,0.142
13.425,0.074
13.430,-0.045
13.435,0.059
13.440,0.234
13.445,0.246
13.450,0.195
13.455,0.108
13.460,0.024
13.465,0.020
13.470,0.044
13.475,0.034
13.480,0.028
13.485,0.050
13.490,0.071
13.495,0.071
13.500,0.044
13.505,0.014
13.510,-0.034
13.515,-0.080
13.520,-0.078
13.525,-0.050
13.530,-0.029
13.535,-0.030
13.540,-0.063
13.545,-0.075
13.550,-0.049
13.555,-0.076
13.560,-0.086
13.565,-0.101
13.570,-0.312
13.575,-0.585
13.580,-0.699
13.585,-0.669
13.590,-0.558
13.595,-0.529
13.600,-0.575
13.605,-0.530
13.610,-0.468
13.615,-0.389
13.620,-0.201
13.625,0.049
13.630,0.206
13.635,0.244
13.640,0.273
13.645,0.291
13.650,0.291
13.655,0.297
13.660,0.310
13.665,0.330
13.670,0.334
13.675,0.305
13.680,0.260
13.685,0.216
13.690,0.246
13.695,0.355
13.700,0.393
13.705,0.346
13.710,0.310
13.715,0.302
13.720,0.289
13.725,0.214
13.730,0.123
13.735,0.120
13.740,0.133
13.745,0.133
13.750,0.184
13.755,0.216
13.760,0.200
13.765,0.191
13.770,0.186
13.775,0.182
13.780,0.139
13.785,0.038
13.790,-0.039
13.795,-0.047
13.800,-0.023
13.805,0.008
13.810,0.043
13.815,0.064
13.820,0.081
13.825,0.082
13.830,0.067
13.835,0.003
13.840,-0.197
13.845,-0.532
13.850,-0.921
13.855,-1.179
13.860,-1.147
13.865,-0.777
13.870,-0.100
13.875,0.585
13.880,0.971
13.885,1.044
13.890,0.932
13.895,0.753
13.900,0.584
13.905,0.469
13.910,0.386
13.915,0.325
13.920,0.280
13.925,0.244
13.930,0.240
13.935,0.226
13.940,0.167
13.945,0.105
13.950,0.060
13.955,0.005
13.960,-0.052
13.965,-0.093
13.970,-0.126
13.975,-0.145
13.980,-0.190
13.985,-0.270
13.990,-0.302
13.995,-0.304
14.000,-0.317
14.005,-0.312
14.010,-0.307
14.015,-0.286
14.020,-0.240
14.025,-0.229
14.030,-0.249
14.035,-0.276
14.040,-0.268
14.045,-0.198
14.050,-0.157
14.055,-0.158
14.060,-0.164
14.065,-0.174
14.070,-0.175
14.075,-0.210
14.080,-0.244
14.085,-0.206
14.090,-0.183
14.095,-0.217
14.100,-0.241
14.105,-0.274
14.110,-0.297
14.115,-0.269
14.120,-0.251
14.125,-0.274
14.130,-0.309
14.135,-0.358
14.140,-0.402
14.145,-0.378
14.150,-0.350
14.155,-0.363
14.160,-0.354
14.165,-0.326
14.170,-0.274
14.175,-0.214
14.180,-0.181
14.185,-0.162
14.190,-0.124
14.195,-0.046
14.200,0.003
14.205,0.004
14.210,0.043
14.215,0.128
14.220,0.208
14.225,0.224
14.230,0.167
14.235,0.151
14.240,0.208
14.245,0.213
14.250,0.178
14.255,0.167
14.260,0.138
14.265,0.112
14.270,0.103
14.275,0.109
14.280,0.128
14.285,0.118
14.290,0.100
14.295,0.091
14.300,0.098
14.305,0.112
14.310,0.104
14.315,0.110
14.320,0.111
14.325,0.091
14.330,0.080
14.335,0.101
14.340,0.168
14.345,0.194
14.350,0.175
14.355,0.206
14.360,0.238
14.365,0.221
14.370,0.184
14.375,0.184
14.380,0.249
14.385,0.365
14.390,0.511
14.395,0.518
14.400,0.354
14.405,0.203
14.410,0.112
14.415,0.069
14.420,0.051
14.425,0.020
14.430,0.013
14.435,0.002
14.440,-0.043
14.445,-0.052
14.450,-0.060
14.455,-0.105
14.460,-0.124
14.465,-0.118
14.470,-0.103
14.475,-0.081
14.480,-0.051
14.485,-0.024
14.490,-0.023
14.495,-0.027
14.500,-0.016
14.505,-0.013
14.510,0.001
14.515,0.037
14.520,0.061
14.525,0.077
14.530,0.091
14.535,0.095
14.540,0.046
14.545,-0.133
14.550,-0.442
14.555,-0.840
14.560,-1.167
14.565,-1.190
14.570,-0.820
14.575,-0.135
14.580,0.599
14.585,1.066
14.590,1.198
14.595,1.132
14.600,0.976
14.605,0.757
14.610,0.527
14.615,0.322
14.620,0.195
14.625,0.149
14.630,0.118
14.635,0.109
14.640,0.109
14.645,0.089
14.650,0.068
14.655,0.075
14.660,0.060
14.665,0.002
14.670,-0.034
14.675,-0.063
14.680,-0.087
14.685,-0.121
14.690,-0.221
14.695,-0.299
14.700,-0.292
14.705,-0.249
14.710,-0.218
14.715,-0.223
14.720,-0.235
14.725,-0.215
14.730,-0.196
14.735,-0.214
14.740,-0.235
14.745,-0.219
14.750,-0.185
14.755,-0.161
14.760,-0.168
14.765,-0.218
14.770,-0.276
14.775,-0.318
14.780,-0.380
14.785,-0.431
14.790,-0.422
14.795,-0.408
14.800,-0.395
14.805,-0.375
14.810,-0.374
14.815,-0.363
14.820,-0.355
14.825,-0.346
14.830,-0.315
14.835,-0.314
14.840,-0.318
14.845,-0.312
14.850,-0.302
14.855,-0.268
14.860,-0.234
14.865,-0.201
14.870,-0.157
14.875,-0.110
14.880,-0.057
14.885,0.014
14.890,0.072
14.895,0.120
14.900,0.178
14.905,0.218
14.910,0.247
14.915,0.265
14.920,0.271
14.925,0.285
14.930,0.287
14.935,0.298
14.940,0.329
14.945,0.325
14.950,0.307
14.955,0.306
14.960,0.307
14.965,0.302
14.970,0.292
14.975,0.292
14.980,0.300
14.985,0.296
14.990,0.292
14.995,0.278
15.000,0.256
15.005,0.234
15.010,0.213
15.015,0.201
15.020,0.189
15.025,0.172
15.030,0.159
15.035,0.138
15.040,0.120
15.045,0.119
15.050,0.129
15.055,0.135
15.060,0.122
15.065,0.118
15.070,0.110
15.075,0.086
15.080,0.089
15.085,0.096
15.090,0.100
15.095,0.110
15.100,0.095
15.105,0.089
15.110,0.080
15.115,0.056
15.120,0.071
15.125,0.093
15.130,0.077
15.135,0.059
15.140,0.069
15.145,0.086
15.150,0.091
15.155,0.092
15.160,0.092
15.165,0.088
15.170,0.082
15.175,0.071
15.180,0.048
15.185,0.022
15.190,0.022
15.195,0.046
15.200,0.053
15.205,0.028
15.210,-0.002
15.215,-0.010
15.220,-0.014
15.225,-0.036
15.230,-0.044
15.235,-0.017
15.240,0.007
15.245,-0.001
15.250,-0.020
15.255,-0.054
15.260,-0.075
15.265,-0.072
15.270,-0.083
15.275,-0.084
15.280,-0.070
15.285,-0.062
15.290,-0.051
15.295,-0.050
15.300,-0.063
15.305,-0.068
15.310,-0.066
15.315,-0.070
15.320,-0.077
15.325,-0.089
15.330,-0.105
15.335,-0.100
15.340,-0.070
15.345,-0.054
15.350,-0.052
15.355,-0.042
15.360,-0.042
15.365,-0.050
15.370,-0.049
15.375,-0.039
15.380,-0.027
15.385,-0.036
15.390,-0.104
15.395,-0.286
15.400,-0.592
15.405,-0.986
15.410,-1.315
15.415,-1.344
15.420,-0.995
15.425,-0.349
15.430,0.334
15.435,0.779
15.440,0.955
15.445,0.950
15.450,0.844
15.455,0.681
15.460,0.507
15.465,0.360
15.470,0.281
15.475,0.269
15.480,0.255
15.485,0.245
15.490,0.236
15.495,0.206
15.500,0.171
15.505,0.134
15.510,0.100
15.515,0.055
15.520,-0.001
15.525,-0.040
15.530,-0.061
15.535,-0.095
15.540,-0.149
15.545,-0.188
15.550,-0.196
15.555,-0.191
15.560,-0.204
15.565,-0.240
15.570,-0.260
15.575,-0.256
15.580,-0.251
15.585,-0.239
15.590,-0.205
15.595,-0.179
15.600,-0.183
15.605,-0.208
15.610,-0.229
15.615,-0.214
15.620,-0.191
15.625,-0.201
15.630,-0.217
15.635,-0.223
15.640,-0.232
15.645,-0.248
15.650,-0.255
15.655,-0.236
15.660,-0.225
15.665,-0.240
15.670,-0.258
15.675,-0.258
15.680,-0.253
15.685,-0.258
15.690,-0.265
15.695,-0.262
15.700,-0.260
15.705,-0.262
15.710,-0.254
15.715,-0.250
15.720,-0.230
15.725,-0.201
15.730,-0.151
15.735,-0.064
15.740,-0.001
15.745,0.044
15.750,0.101
15.755,0.165
15.760,0.232
15.765,0.273
15.770,0.283
15.775,0.284
15.780,0.260
15.785,0.228
15.790,0.251
15.795,0.289
15.800,0.298
15.805,0.308
15.810,0.280
15.815,0.234
15.820,0.233
15.825,0.244
15.830,0.249
15.835,0.247
15.840,0.232
15.845,0.216
15.850,0.198
15.855,0.152
15.860,0.108
15.865,0.094
15.870,0.076
15.875,0.082
15.880,0.111
15.885,0.131
15.890,0.150
15.895,0.105
15.900,0.043
15.905,0.045
15.910,0.092
15.915,0.154
15.920,0.136
15.925,0.088
15.930,0.095
15.935,0.119
15.940,0.129
15.945,0.100
15.950,0.059
15.955,0.049
15.960,0.094
15.965,0.154
15.970,0.169
15.975,0.143
15.980,0.122
15.985,0.137
15.990,0.166
15.995,0.159
16.000,0.135
16.005,0.142
16.010,0.139
16.015,0.099
16.020,0.051
16.025,0.012
16.030,0.015
16.035,0.049
16.040,0.045
16.045,0.002
16.050,-0.023
16.055,-0.021
16.060,-0.021
16.065,-0.032
16.070,-0.064
16.075,-0.085
16.080,-0.060
16.085,-0.032
16.090,-0.061
16.095,-0.213
16.100,-0.516
16.105,-0.919
16.110,-1.266
16.115,-1.331
16.120,-1.001
16.125,-0.344
16.130,0.394
16.135,0.903
16.140,1.132
16.145,1.151
16.150,1.016
16.155,0.816
16.160,0.604
16.165,0.418
16.170,0.282
16.175,0.212
16.180,0.203
16.185,0.203
16.190,0.171
16.195,0.123
16.200,0.097
16.205,0.086
16.210,0.065
16.215,0.002
16.220,-0.080
16.225,-0.138
16.230,-0.176
16.235,-0.209
16.240,-0.248
16.245,-0.290
16.250,-0.292
16.255,-0.262
16.260,-0.251
16.265,-0.240
16.270,-0.228
16.275,-0.230
16.280,-0.222
16.285,-0.210
16.290,-0.215
16.295,-0.245
16.300,-0.282
16.305,-0.283
16.310,-0.265
16.315,-0.273
16.320,-0.279
16.325,-0.256
16.330,-0.248
16.335,-0.255
16.340,-0.259
16.345,-0.291
16.350,-0.309
16.355,-0.305
16.360,-0.304
16.365,-0.288
16.370,-0.286
16.375,-0.304
16.380,-0.314
16.385,-0.309
16.390,-0.301
16.395,-0.316
16.400,-0.327
16.405,-0.300
16.410,-0.251
16.415,-0.194
16.420,-0.141
16.425,-0.091
16.430,-0.041
16.435,0.008
16.440,0.065
16.445,0.120
16.450,0.142
16.455,0.155
16.460,0.184
16.465,0.232
16.470,0.285
16.475,0.304
16.480,0.300
16.485,0.298
16.490,0.303
16.495,0.317
16.500,0.322
16.505,0.306
16.510,0.292
16.515,0.303
16.520,0.322
16.525,0.319
16.530,0.261
16.535,0.195
16.540,0.212
16.545,0.255
16.550,0.258
16.555,0.237
16.560,0.215
16.565,0.213
16.570,0.204
16.575,0.189
16.580,0.197
16.585,0.201
16.590,0.180
16.595,0.149
16.600,0.145
16.605,0.149
16.610,0.113
16.615,0.061
16.620,0.066
16.625,0.089
16.630,0.060
16.635,0.040
16.640,0.049
16.645,0.063
16.650,0.061
16.655,0.028
16.660,0.004
16.665,0.006
16.670,0.005
16.675,0.018
16.680,0.034
16.685,0.019
16.690,-0.005
16.695,-0.021
16.700,-0.023
16.705,-0.014
16.710,0.005
16.715,0.021
16.720,0.028
16.725,0.045
16.730,0.050
16.735,0.051
16.740,0.059
16.745,0.050
16.750,0.033
16.755,0.026
16.760,0.014
16.765,0.018
16.770,0.022
16.775,-0.025
16.780,-0.070
16.785,-0.093
16.790,-0.114
16.795,-0.117
16.800,-0.112
16.805,-0.112
16.810,-0.114
16.815,-0.121
16.820,-0.117
16.825,-0.089
16.830,-0.080
16.835,-0.094
16.840,-0.095
16.845,-0.085
16.850,-0.071
16.855,-0.068
16.860,-0.072
16.865,-0.064
16.870,-0.057
16.875,-0.056
16.880,-0.062
16.885,-0.053
16.890,-0.012
16.895,-0.003
16.900,-0.024
16.905,-0.040
16.910,-0.045
16.915,-0.036
16.920,-0.045
16.925,-0.065
16.930,-0.070
16.935,-0.085
16.940,-0.095
16.945,-0.085
16.950,-0.082
16.955,-0.076
16.960,-0.066
16.965,-0.072
16.970,-0.080
16.975,-0.079
16.980,-0.074
16.985,-0.076
16.990,-0.076
16.995,-0.059
17.000,-0.041
17.005,-0.032
17.010,-0.042
17.015,-0.048
17.020,-0.044
17.025,-0.041
17.030,-0.037
17.035,-0.032
17.040,-0.019
17.045,-0.007
17.050,0.005
17.055,-0.052
17.060,-0.250
17.065,-0.553
17.070,-0.942
17.075,-1.282
17.080,-1.346
17.085,-1.016
17.090,-0.325
17.095,0.409
17.100,0.855
17.105,0.977
17.110,0.915
17.115,0.791
17.120,0.641
17.125,0.493
17.130,0.377
17.135,0.323
17.140,0.324
17.145,0.314
17.150,0.306
17.155,0.310
17.160,0.279
17.165,0.231
17.170,0.191
17.175,0.139
17.180,0.084
17.185,0.045
17.190,0.019
17.195,0.003
17.200,-0.021
17.205,-0.080
17.210,-0.134
17.215,-0.152
17.220,-0.152
17.225,-0.144
17.230,-0.147
17.235,-0.154
17.240,-0.147
17.245,-0.157
17.250,-0.182
17.255,-0.179
17.260,-0.165
17.265,-0.168
17.270,-0.180
17.275,-0.193
17.280,-0.199
17.285,-0.190
17.290,-0.190
17.295,-0.198
17.300,-0.192
17.305,-0.185
17.310,-0.174
17.315,-0.163
17.320,-0.159
17.325,-0.154
17.330,-0.147
17.335,-0.140
17.340,-0.141
17.345,-0.149
17.350,-0.150
17.355,-0.163
17.360,-0.185
17.365,-0.196
17.370,-0.205
17.375,-0.203
17.380,-0.200
17.385,-0.202
17.390,-0.186
17.395,-0.152
17.400,-0.117
17.405,-0.075
17.410,-0.026
17.415,0.033
17.420,0.093
17.425,0.140
17.430,0.169
17.435,0.189
17.440,0.206
17.445,0.208
17.450,0.214
17.455,0.232
17.460,0.244
17.465,0.239
17.470,0.224
17.475,0.217
17.480,0.213
17.485,0.213
17.490,0.217
17.495,0.210
17.500,0.196
17.505,0.187
17.510,0.176
17.515,0.162
17.520,0.156
17.525,0.155
17.530,0.151
17.535,0.145
17.540,0.150
17.545,0.148
17.550,0.126
17.555,0.101
17.560,0.101
17.565,0.138
17.570,0.159
17.575,0.146
17.580,0.128
17.585,0.122
17.590,0.118
17.595,0.105
17.600,0.095
17.605,0.104
17.610,0.111
17.615,0.093
17.620,0.083
17.625,0.080
17.630,0.068
17.635,0.055
17.640,0.044
17.645,0.030
17.650,0.018
17.655,0.013
17.660,0.015
17.665,0.012
17.670,0.014
17.675,0.036
17.680,0.051
17.685,0.053
17.690,0.044
17.695,0.045
17.700,0.050
17.705,0.042
17.710,0.037
17.715,0.032
17.720,0.028
17.725,0.038
17.730,0.048
17.735,0.051
17.740,0.041
17.745,0.019
17.750,0.014
17.755,0.010
17.760,-0.003
17.765,0.000
17.770,0.007
17.775,0.002
17.780,-0.006
17.785,-0.021
17.790,-0.037
17.795,-0.049
17.800,-0.057
17.805,-0.061
17.810,-0.066
17.815,-0.076
17.820,-0.081
17.825,-0.079
17.830,-0.081
17.835,-0.081
17.840,-0.076
17.845,-0.059
17.850,-0.044
17.855,-0.047
17.860,-0.050
17.865,-0.042
17.870,-0.037
17.875,-0.041
17.880,-0.052
17.885,-0.051
17.890,-0.039
17.895,-0.042
17.900,-0.051
17.905,-0.048
17.910,-0.043
17.915,-0.039
17.920,-0.027
17.925,-0.014
17.930,-0.007
17.935,-0.001
17.940,0.000
17.945,-0.012
17.950,-0.027
17.955,-0.023
17.960,-0.014
17.965,-0.023
17.970,-0.032
17.975,-0.039
17.980,-0.036
17.985,-0.028
17.990,-0.029
17.995,-0.032
18.000,-0.034
18.005,-0.040
18.010,-0.043
18.015,-0.049
18.020,-0.059
18.025,-0.057
18.030,-0.066
18.035,-0.080
18.040,-0.084
18.045,-0.083
18.050,-0.082
18.055,-0.093
18.060,-0.105
18.065,-0.095
18.070,-0.073
18.075,-0.063
18.080,-0.065
18.085,-0.059
18.090,-0.053
18.095,-0.048
18.100,-0.039
18.105,-0.036
18.110,-0.033
18.115,-0.027
18.120,-0.016
18.125,0.003
18.130,0.013
18.135,0.010
18.140,0.005
18.145,0.003
18.150,0.020
18.155,0.050
18.160,0.054
18.165,-0.011
18.170,-0.194
18.175,-0.495
18.180,-0.902
18.185,-1.271
18.190,-1.328
18.195,-0.984
18.200,-0.351
18.205,0.327
18.210,0.765
18.215,0.919
18.220,0.919
18.225,0.817
18.230,0.659
18.235,0.520
18.240,0.416
18.245,0.354
18.250,0.337
18.255,0.312
18.260,0.293
18.265,0.302
18.270,0.287
18.275,0.235
18.280,0.194
18.285,0.148
18.290,0.092
18.295,0.054
18.300,0.030
18.305,0.016
18.310,-0.024
18.315,-0.105
18.320,-0.167
18.325,-0.167
18.330,-0.149
18.335,-0.148
18.340,-0.151
18.345,-0.154
18.350,-0.149
18.355,-0.132
18.360,-0.123
18.365,-0.122
18.370,-0.133
18.375,-0.148
18.380,-0.140
18.385,-0.128
18.390,-0.141
18.395,-0.164
18.400,-0.171
18.405,-0.166
18.410,-0.157
18.415,-0.155
18.420,-0.175
18.425,-0.193
18.430,-0.195
18.435,-0.199
18.440,-0.193
18.445,-0.206
18.450,-0.235
18.455,-0.223
18.460,-0.188
18.465,-0.178
18.470,-0.201
18.475,-0.241
18.480,-0.258
18.485,-0.235
18.490,-0.213
18.495,-0.217
18.500,-0.218
18.505,-0.200
18.510,-0.151
18.515,-0.074
18.520,-0.001
18.525,0.061
18.530,0.099
18.535,0.122
18.540,0.168
18.545,0.212
18.550,0.239
18.555,0.240
18.560,0.236
18.565,0.261
18.570,0.291
18.575,0.302
18.580,0.296
18.585,0.280
18.590,0.274
18.595,0.279
18.600,0.268
18.605,0.238
18.610,0.215
18.615,0.216
18.620,0.232
18.625,0.237
18.630,0.208
18.635,0.176
18.640,0.170
18.645,0.164
18.650,0.149
18.655,0.137
18.660,0.119
18.665,0.095
18.670,0.088
18.675,0.104
18.680,0.124
18.685,0.131
18.690,0.119
18.695,0.099
18.700,0.101
18.705,0.137
18.710,0.177
18.715,0.128
18.720,-0.064
18.725,-0.387
18.730,-0.818
18.735,-1.161
18.740,-1.165
18.745,-0.773
18.750,-0.093
18.755,0.558
18.760,0.929
18.765,1.037
18.770,0.970
18.775,0.821
18.780,0.665
18.785,0.539
18.790,0.424
18.795,0.343
18.800,0.331
18.805,0.347
18.810,0.348
18.815,0.321
18.820,0.255
18.825,0.169
18.830,0.090
18.835,0.022
18.840,-0.014
18.845,-0.024
18.850,-0.048
18.855,-0.088
18.860,-0.152
18.865,-0.215
18.870,-0.227
18.875,-0.221
18.880,-0.226
18.885,-0.240
18.890,-0.257
18.895,-0.268
18.900,-0.271
18.905,-0.268
18.910,-0.273
18.915,-0.278
18.920,-0.274
18.925,-0.269
18.930,-0.259
18.935,-0.267
18.940,-0.273
18.945,-0.260
18.950,-0.274
18.955,-0.302
18.960,-0.328
18.965,-0.330
18.970,-0.320
18.975,-0.343
18.980,-0.363
18.985,-0.373
18.990,-0.372
18.995,-0.358
19.000,-0.351
19.005,-0.348
19.010,-0.350
19.015,-0.346
19.020,-0.328
19.025,-0.277
19.030,-0.211
19.035,-0.164
19.040,-0.107
19.045,-0.058
19.050,-0.028
19.055,0.026
19.060,0.082
19.065,0.137
19.070,0.194
19.075,0.221
19.080,0.248
19.085,0.279
19.090,0.290
19.095,0.282
19.100,0.270
19.105,0.270
19.110,0.276
19.115,0.281
19.120,0.272
19.125,0.266
19.130,0.258
19.135,0.236
19.140,0.228
19.145,0.222
19.150,0.206
19.155,0.200
19.160,0.208
19.165,0.211
19.170,0.194
19.175,0.182
19.180,0.186
19.185,0.197
19.190,0.195
19.195,0.168
19.200,0.160
19.205,0.166
19.210,0.154
19.215,0.146
19.220,0.143
19.225,0.154
19.230,0.147
19.235,0.112
19.240,0.111
19.245,0.112
19.250,0.103
19.255,0.124
19.260,0.146
19.265,0.124
19.270,0.076
19.275,0.027
19.280,-0.004
19.285,-0.005
19.290,-0.015
19.295,-0.040
19.300,-0.038
19.305,-0.036
19.310,-0.061
19.315,-0.065
19.320,-0.049
19.325,-0.048
19.330,-0.057
19.335,-0.069
19.340,-0.065
19.345,-0.041
19.350,-0.032
19.355,-0.044
19.360,-0.053
19.365,-0.045
19.370,-0.039
19.375,-0.040
19.380,-0.041
19.385,-0.035
19.390,-0.023
19.395,-0.023
19.400,-0.019
19.405,-0.001
19.410,0.005
19.415,-0.018
19.420,-0.046
19.425,-0.051
19.430,-0.051
19.435,-0.061
19.440,-0.079
19.445,-0.089
19.450,-0.079
19.455,-0.080
19.460,-0.156
19.465,-0.365
19.470,-0.708
19.475,-1.122
19.480,-1.416
19.485,-1.382
19.490,-0.948
19.495,-0.203
19.500,0.521
19.505,0.914
19.510,0.993
19.515,0.922
19.520,0.793
19.525,0.629
19.530,0.460
19.535,0.325
19.540,0.268
19.545,0.256
19.550,0.236
19.555,0.237
19.560,0.230
19.565,0.177
19.570,0.125
19.575,0.085
19.580,0.036
19.585,-0.011
19.590,-0.052
19.595,-0.077
19.600,-0.092
19.605,-0.132
19.610,-0.185
19.615,-0.214
19.620,-0.212
19.625,-0.197
19.630,-0.198
19.635,-0.212
19.640,-0.206
19.645,-0.201
19.650,-0.205
19.655,-0.199
19.660,-0.201
19.665,-0.205
19.670,-0.203
19.675,-0.203
19.680,-0.198
19.685,-0.189
19.690,-0.182
19.695,-0.187
19.700,-0.200
19.705,-0.202
19.710,-0.204
19.715,-0.208
19.720,-0.201
19.725,-0.193
19.730,-0.195
19.735,-0.198
19.740,-0.198
19.745,-0.209
19.750,-0.228
19.755,-0.242
19.760,-0.256
19.765,-0.266
19.770,-0.283
19.775,-0.302
19.780,-0.298
19.785,-0.280
19.790,-0.251
19.795,-0.206
19.800,-0.145
19.805,-0.077
19.810,-0.018
19.815,0.042
19.820,0.095
19.825,0.137
19.830,0.191
19.835,0.239
19.840,0.262
19.845,0.263
19.850,0.252
19.855,0.253
19.860,0.262
19.865,0.260
19.870,0.255
19.875,0.261
19.880,0.256
19.885,0.239
19.890,0.232
19.895,0.227
19.900,0.231
19.905,0.235
19.910,0.225
19.915,0.215
19.920,0.207
19.925,0.206
19.930,0.201
19.935,0.196
19.940,0.199
19.945,0.189
19.950,0.181
19.955,0.182
19.960,0.172
19.965,0.166
19.970,0.157
19.975,0.144
19.980,0.136
19.985,0.130
19.990,0.132
19.995,0.135
20.000,0.137
20.005,0.135
20.010,0.128
20.015,0.118
20.020,0.107
20.025,0.100
20.030,0.090
20.035,0.082
20.040,0.085
20.045,0.079
20.050,0.068
20.055,0.058
20.060,0.037
20.065,0.019
20.070,0.005
20.075,-0.004
20.080,0.012
20.085,0.038
20.090,0.044
20.095,0.037
20.100,0.027
20.105,0.020
20.110,0.021
20.115,0.017
20.120,0.003
20.125,-0.002
20.130,-0.003
20.135,0.002
20.140,0.014
20.145,0.009
20.150,-0.004
20.155,-0.010
20.160,-0.021
20.165,-0.031
20.170,-0.034
20.175,-0.033
20.180,-0.025
20.185,-0.018
20.190,-0.014
20.195,-0.013
20.200,-0.022
20.205,-0.015
20.210,-0.005
20.215,-0.022
20.220,-0.046
20.225,-0.069
20.230,-0.086
20.235,-0.093
20.240,-0.089
20.245,-0.079
20.250,-0.074
20.255,-0.074
20.260,-0.074
20.265,-0.063
20.270,-0.058
20.275,-0.069
20.280,-0.072
20.285,-0.076
20.290,-0.079
20.295,-0.079
20.300,-0.085
20.305,-0.080
20.310,-0.069
20.315,-0.060
20.320,-0.042
20.325,-0.036
20.330,-0.046
20.335,-0.054
20.340,-0.044
20.345,-0.028
20.350,-0.024
20.355,-0.019
20.360,-0.024
20.365,-0.029
20.370,-0.033
20.375,-0.040
20.380,-0.032
20.385,-0.018
20.390,-0.018
20.395,-0.029
20.400,-0.032
20.405,-0.025
20.410,-0.043
20.415,-0.156
20.420,-0.397
20.425,-0.752
20.430,-1.157
20.435,-1.382
20.440,-1.237
20.445,-0.753
20.450,-0.077
20.455,0.526
20.460,0.858
20.465,0.942
20.470,0.886
20.475,0.765
20.480,0.614
20.485,0.482
20.490,0.395
20.495,0.358
20.500,0.344
20.505,0.327
20.510,0.318
20.515,0.315
20.520,0.281
20.525,0.221
20.530,0.179
20.535,0.123
20.540,0.046
20.545,-0.002
20.550,-0.023
20.555,-0.063
20.560,-0.133
20.565,-0.200
20.570,-0.228
20.575,-0.222
20.580,-0.230
20.585,-0.244
20.590,-0.230
20.595,-0.201
20.600,-0.178
20.605,-0.169
20.610,-0.177
20.615,-0.177
20.620,-0.176
20.625,-0.177
20.630,-0.170
20.635,-0.164
20.640,-0.156
20.645,-0.145
20.650,-0.151
20.655,-0.159
20.660,-0.152
20.665,-0.145
20.670,-0.137
20.675,-0.133
20.680,-0.133
20.685,-0.134
20.690,-0.143
20.695,-0.154
20.700,-0.166
20.705,-0.182
20.710,-0.193
20.715,-0.210
20.720,-0.239
20.725,-0.266
20.730,-0.282
20.735,-0.287
20.740,-0.275
20.745,-0.260
20.750,-0.256
20.755,-0.238
20.760,-0.197
20.765,-0.144
20.770,-0.085
20.775,-0.025
20.780,0.029
20.785,0.093
20.790,0.165
20.795,0.214
20.800,0.243
20.805,0.271
20.810,0.292
20.815,0.306
20.820,0.316
20.825,0.315
20.830,0.315
20.835,0.324
20.840,0.328
20.845,0.321
20.850,0.307
20.855,0.300
20.860,0.287
20.865,0.273
20.870,0.266
20.875,0.250
20.880,0.245
20.885,0.238
20.890,0.208
20.895,0.164
20.900,0.125
20.905,0.102
20.910,0.077
20.915,0.050
20.920,0.034
20.925,0.025
20.930,0.024
20.935,0.026
20.940,0.046
20.945,0.063
20.950,0.054
20.955,0.052
20.960,0.061
20.965,0.071
20.970,0.074
20.975,0.077
20.980,0.084
20.985,0.085
20.990,0.086
20.995,0.083
21.000,0.079
21.005,0.083
21.010,0.093
21.015,0.109
21.020,0.130
21.025,0.138
21.030,0.117
21.035,0.089
21.040,0.070
21.045,0.061
21.050,0.052
21.055,0.032
21.060,0.013
21.065,0.018
21.070,0.014
21.075,-0.092
21.080,-0.331
21.085,-0.703
21.090,-1.135
21.095,-1.351
21.100,-1.171
21.105,-0.645
21.110,0.035
21.115,0.593
21.120,0.918
21.125,1.030
21.130,0.981
21.135,0.837
21.140,0.648
21.145,0.487
21.150,0.368
21.155,0.296
21.160,0.261
21.165,0.244
21.170,0.255
21.175,0.260
21.180,0.227
21.185,0.169
21.190,0.115
21.195,0.055
21.200,-0.010
21.205,-0.054
21.210,-0.082
21.215,-0.123
21.220,-0.191
21.225,-0.270
21.230,-0.305
21.235,-0.296
21.240,-0.297
21.245,-0.314
21.250,-0.322
21.255,-0.302
21.260,-0.293
21.265,-0.313
21.270,-0.311
21.275,-0.281
21.280,-0.267
21.285,-0.261
21.290,-0.246
21.295,-0.247
21.300,-0.249
21.305,-0.246
21.310,-0.250
21.315,-0.238
21.320,-0.231
21.325,-0.229
21.330,-0.219
21.335,-0.237
21.340,-0.274
21.345,-0.299
21.350,-0.304
21.355,-0.309
21.360,-0.339
21.365,-0.377
21.370,-0.403
21.375,-0.395
21.380,-0.372
21.385,-0.356
21.390,-0.332
21.395,-0.313
21.400,-0.281
21.405,-0.232
21.410,-0.175
21.415,-0.105
21.420,-0.041
21.425,0.021
21.430,0.096
21.435,0.165
21.440,0.219
21.445,0.258
21.450,0.291
21.455,0.340
21.460,0.383
21.465,0.403
21.470,0.400
21.475,0.394
21.480,0.392
21.485,0.391
21.490,0.381
21.495,0.366
21.500,0.363
21.505,0.358
21.510,0.332
21.515,0.305
21.520,0.298
21.525,0.288
21.530,0.263
21.535,0.235
21.540,0.205
21.545,0.186
21.550,0.171
21.555,0.160
21.560,0.145
21.565,0.110
21.570,0.093
21.575,0.103
21.580,0.095
21.585,0.079
21.590,0.075
21.595,0.080
21.600,0.102
21.605,0.115
21.610,0.089
21.615,0.075
21.620,0.083
21.625,0.077
21.630,0.060
21.635,0.045
21.640,0.057
21.645,0.068
21.650,0.053
21.655,0.052
21.660,0.072
21.665,0.079
21.670,0.067
21.675,0.057
21.680,0.052
21.685,0.048
21.690,0.033
21.695,0.013
21.700,0.021
21.705,0.020
21.710,-0.001
21.715,-0.001
21.720,-0.020
21.725,-0.035
21.730,-0.019
21.735,-0.018
21.740,-0.013
21.745,-0.018
21.750,-0.046
21.755,-0.043
21.760,-0.046
21.765,-0.071
21.770,-0.089
21.775,-0.105
21.780,-0.100
21.785,-0.083
21.790,-0.069
21.795,-0.063
21.800,-0.067
21.805,-0.055
21.810,-0.040
21.815,-0.038
21.820,-0.044
21.825,-0.060
21.830,-0.061
21.835,-0.052
21.840,-0.042
21.845,-0.028
21.850,-0.033
21.855,-0.056
21.860,-0.076
21.865,-0.065
21.870,-0.048
21.875,-0.057
21.880,-0.070
21.885,-0.079
21.890,-0.064
21.895,-0.054
21.900,-0.065
21.905,-0.066
21.910,-0.077
21.915,-0.087
21.920,-0.080
21.925,-0.086
21.930,-0.093
21.935,-0.070
21.940,-0.034
21.945,-0.017
21.950,-0.018
21.955,-0.025
21.960,-0.040
21.965,-0.058
21.970,-0.068
21.975,-0.068
21.980,-0.074
21.985,-0.090
21.990,-0.096
21.995,-0.082
22.000,-0.063
22.005,-0.046
22.010,-0.030
22.015,-0.025
22.020,-0.045
22.025,-0.056
22.030,-0.040
22.035,-0.033
22.040,-0.037
22.045,-0.046
22.050,-0.049
22.055,-0.049
22.060,-0.056
22.065,-0.045
22.070,-0.023
22.075,-0.022
22.080,-0.043
22.085,-0.067
22.090,-0.070
22.095,-0.039
22.100,-0.001
22.105,0.013
22.110,0.008
22.115,-0.043
22.120,-0.207
22.125,-0.498
22.130,-0.901
22.135,-1.270
22.140,-1.372
22.145,-1.095
22.150,-0.435
22.155,0.353
22.160,0.863
22.165,1.014
22.170,0.955
22.175,0.815
22.180,0.669
22.185,0.542
22.190,0.441
22.195,0.378
22.200,0.350
22.205,0.320
22.210,0.295
22.215,0.290
22.220,0.271
22.225,0.233
22.230,0.193
22.235,0.141
22.240,0.088
22.245,0.047
22.250,0.017
22.255,0.004
22.260,-0.011
22.265,-0.058
22.270,-0.123
22.275,-0.172
22.280,-0.182
22.285,-0.175
22.290,-0.174
22.295,-0.175
22.300,-0.188
22.305,-0.191
22.310,-0.180
22.315,-0.168
22.320,-0.168
22.325,-0.174
22.330,-0.164
22.335,-0.159
22.340,-0.157
22.345,-0.143
22.350,-0.137
22.355,-0.137
22.360,-0.134
22.365,-0.135
22.370,-0.126
22.375,-0.124
22.380,-0.128
22.385,-0.120
22.390,-0.121
22.395,-0.132
22.400,-0.133
22.405,-0.117
22.410,-0.116
22.415,-0.136
22.420,-0.147
22.425,-0.156
22.430,-0.173
22.435,-0.200
22.440,-0.230
22.445,-0.244
22.450,-0.243
22.455,-0.225
22.460,-0.202
22.465,-0.173
22.470,-0.126
22.475,-0.069
22.480,-0.012
22.485,0.032
22.490,0.062
22.495,0.103
22.500,0.157
22.505,0.202
22.510,0.221
22.515,0.236
22.520,0.264
22.525,0.280
22.530,0.282
22.535,0.282
22.540,0.280
22.545,0.281
22.550,0.269
22.555,0.257
22.560,0.266
22.565,0.262
22.570,0.242
22.575,0.234
22.580,0.216
22.585,0.188
22.590,0.166
22.595,0.162
22.600,0.169
22.605,0.159
22.610,0.126
22.615,0.097
22.620,0.084
22.625,0.079
22.630,0.067
22.635,0.059
22.640,0.061
22.645,0.070
22.650,0.085
22.655,0.085
22.660,0.071
22.665,0.058
22.670,0.054
22.675,0.052
22.680,0.050
22.685,0.050
22.690,0.056
22.695,0.063
22.700,0.068
22.705,0.080
22.710,0.084
22.715,0.076
22.720,0.069
22.725,0.071
22.730,0.091
22.735,0.112
22.740,0.117
22.745,0.113
22.750,0.104
22.755,0.100
22.760,0.086
22.765,0.054
22.770,0.035
22.775,0.025
22.780,0.011
22.785,0.002
22.790,0.006
22.795,0.024
22.800,0.015
22.805,-0.110
22.810,-0.392
22.815,-0.789
22.820,-1.190
22.825,-1.359
22.830,-1.145
22.835,-0.595
22.840,0.109
22.845,0.677
22.850,0.968
22.855,1.037
22.860,0.964
22.865,0.797
22.870,0.593
22.875,0.424
22.880,0.318
22.885,0.283
22.890,0.280
22.895,0.265
22.900,0.260
22.905,0.255
22.910,0.216
22.915,0.155
22.920,0.095
22.925,0.042
22.930,0.000
22.935,-0.032
22.940,-0.073
22.945,-0.129
22.950,-0.198
22.955,-0.257
22.960,-0.280
22.965,-0.283
22.970,-0.285
22.975,-0.305
22.980,-0.314
22.985,-0.293
22.990,-0.286
22.995,-0.293
23.000,-0.287
23.005,-0.273
23.010,-0.274
23.015,-0.282
23.020,-0.278
23.025,-0.270
23.030,-0.267
23.035,-0.269
23.040,-0.267
23.045,-0.265
23.050,-0.261
23.055,-0.247
23.060,-0.242
23.065,-0.249
23.070,-0.269
23.075,-0.304
23.080,-0.327
23.085,-0.336
23.090,-0.340
23.095,-0.350
23.100,-0.368
23.105,-0.377
23.110,-0.389
23.115,-0.386
23.120,-0.368
23.125,-0.344
23.130,-0.295
23.135,-0.234
23.140,-0.173
23.145,-0.105
23.150,-0.026
23.155,0.056
23.160,0.114
23.165,0.159
23.170,0.212
23.175,0.263
23.180,0.305
23.185,0.336
23.190,0.360
23.195,0.385
23.200,0.393
23.205,0.394
23.210,0.400
23.215,0.400
23.220,0.401
23.225,0.392
23.230,0.380
23.235,0.373
23.240,0.355
23.245,0.327
23.250,0.302
23.255,0.287
23.260,0.272
23.265,0.238
23.270,0.206
23.275,0.186
23.280,0.163
23.285,0.136
23.290,0.121
23.295,0.125
23.300,0.119
23.305,0.103
23.310,0.096
23.315,0.090
23.320,0.086
23.325,0.085
23.330,0.080
23.335,0.075
23.340,0.074
23.345,0.071
23.350,0.076
23.355,0.085
23.360,0.080
23.365,0.076
23.370,0.080
23.375,0.084
23.380,0.085
23.385,0.074
23.390,0.069
23.395,0.058
23.400,0.038
23.405,0.033
23.410,0.027
23.415,0.033
23.420,0.044
23.425,0.037
23.430,0.029
23.435,0.014
23.440,-0.010
23.445,-0.028
23.450,-0.029
23.455,-0.026
23.460,-0.027
23.465,-0.022
23.470,-0.020
23.475,-0.026
23.480,-0.028
23.485,-0.025
23.490,-0.031
23.495,-0.040
23.500,-0.039
23.505,-0.032
23.510,-0.029
23.515,-0.036
23.520,-0.032
23.525,-0.022
23.530,-0.022
23.535,-0.028
23.540,-0.033
23.545,-0.032
23.550,-0.032
23.555,-0.032
23.560,-0.035
23.565,-0.050
23.570,-0.062
23.575,-0.062
23.580,-0.059
23.585,-0.066
23.590,-0.078
23.595,-0.087
23.600,-0.098
23.605,-0.109
23.610,-0.112
23.615,-0.105
23.620,-0.102
23.625,-0.108
23.630,-0.110
23.635,-0.098
23.640,-0.079
23.645,-0.071
23.650,-0.070
23.655,-0.051
23.660,-0.036
23.665,-0.035
23.670,-0.025
23.675,-0.019
23.680,-0.018
23.685,-0.018
23.690,-0.017
23.695,-0.013
23.700,-0.018
23.705,-0.017
23.710,-0.008
23.715,-0.005
23.720,-0.011
23.725,-0.039
23.730,-0.062
23.735,-0.068
23.740,-0.068
23.745,-0.052
23.750,-0.059
23.755,-0.173
23.760,-0.423
23.765,-0.790
23.770,-1.199
23.775,-1.419
23.780,-1.268
23.785,-0.760
23.790,-0.062
23.795,0.517
23.800,0.832
23.805,0.933
23.810,0.879
23.815,0.743
23.820,0.598
23.825,0.483
23.830,0.399
23.835,0.361
23.840,0.343
23.845,0.318
23.850,0.313
23.855,0.309
23.860,0.274
23.865,0.226
23.870,0.181
23.875,0.141
23.880,0.103
23.885,0.053
23.890,0.011
23.895,-0.036
23.900,-0.113
23.905,-0.184
23.910,-0.225
23.915,-0.230
23.920,-0.232
23.925,-0.237
23.930,-0.224
23.935,-0.207
23.940,-0.201
23.945,-0.206
23.950,-0.195
23.955,-0.163
23.960,-0.145
23.965,-0.135
23.970,-0.134
23.975,-0.143
23.980,-0.138
23.985,-0.127
23.990,-0.121
23.995,-0.117
24.000,-0.116
24.005,-0.121
24.010,-0.125
24.015,-0.127
24.020,-0.123
24.025,-0.121
24.030,-0.132
24.035,-0.153
24.040,-0.178
24.045,-0.196
24.050,-0.209
24.055,-0.226
24.060,-0.244
24.065,-0.267
24.070,-0.291
24.075,-0.311
24.080,-0.329
24.085,-0.330
24.090,-0.302
24.095,-0.268
24.100,-0.225
24.105,-0.167
24.110,-0.108
24.115,-0.037
24.120,0.046
24.125,0.117
24.130,0.172
24.135,0.219
24.140,0.251
24.145,0.276
24.150,0.299
24.155,0.310
24.160,0.317
24.165,0.326
24.170,0.329
24.175,0.328
24.180,0.324
24.185,0.309
24.190,0.297
24.195,0.280
24.200,0.257
24.205,0.248
24.210,0.239
24.215,0.220
24.220,0.198
24.225,0.180
24.230,0.176
24.235,0.175
24.240,0.165
24.245,0.147
24.250,0.135
24.255,0.134
24.260,0.130
24.265,0.116
24.270,0.093
24.275,0.069
24.280,0.053
24.285,0.047
24.290,0.044
24.295,0.046
24.300,0.058
24.305,0.073
24.310,0.076
24.315,0.064
24.320,0.057
24.325,0.058
24.330,0.065
24.335,0.076
24.340,0.073
24.345,0.068
24.350,0.067
24.355,0.063
24.360,0.065
24.365,0.064
24.370,0.058
24.375,0.057
24.380,0.054
24.385,0.058
24.390,0.076
24.395,0.082
24.400,0.078
24.405,0.078
24.410,0.068
24.415,0.057
24.420,0.046
24.425,0.022
24.430,0.010
24.435,0.014
24.440,0.007
24.445,-0.006
24.450,-0.011
24.455,-0.016
24.460,-0.031
24.465,-0.047
24.470,-0.052
24.475,-0.058
24.480,-0.074
24.485,-0.091
24.490,-0.080
24.495,-0.052
24.500,-0.042
24.505,-0.040
24.510,-0.031
24.515,-0.025
24.520,-0.033
24.525,-0.037
24.530,-0.025
24.535,-0.007
24.540,0.009
24.545,0.011
24.550,0.001
24.555,0.004
24.560,0.005
24.565,0.001
24.570,0.005
24.575,-0.002
24.580,-0.014
24.585,-0.014
24.590,-0.020
24.595,-0.029
24.600,-0.039
24.605,-0.055
24.610,-0.074
24.615,-0.077
24.620,-0.081
24.625,-0.097
24.630,-0.099
24.635,-0.102
24.640,-0.096
24.645,-0.094
24.650,-0.115
24.655,-0.111
24.660,-0.087
24.665,-0.083
24.670,-0.084
24.675,-0.085
24.680,-0.074
24.685,-0.039
24.690,-0.006
24.695,-0.040
24.700,-0.212
24.705,-0.522
24.710,-0.934
24.715,-1.267
24.720,-1.285
24.725,-0.959
24.730,-0.350
24.735,0.328
24.740,0.781
24.745,0.948
24.750,0.924
24.755,0.809
24.760,0.662
24.765,0.519
24.770,0.411
24.775,0.339
24.780,0.304
24.785,0.277
24.790,0.260
24.795,0.258
24.800,0.232
24.805,0.171
24.810,0.106
24.815,0.053
24.820,0.004
24.825,-0.019
24.830,-0.015
24.835,-0.026
24.840,-0.061
24.845,-0.116
24.850,-0.169
24.855,-0.184
24.860,-0.177
24.865,-0.172
24.870,-0.169
24.875,-0.170
24.880,-0.167
24.885,-0.159
24.890,-0.153
24.895,-0.147
24.900,-0.148
24.905,-0.145
24.910,-0.136
24.915,-0.139
24.920,-0.150
24.925,-0.166
24.930,-0.185
24.935,-0.208
24.940,-0.224
24.945,-0.226
24.950,-0.232
24.955,-0.243
24.960,-0.247
24.965,-0.248
24.970,-0.247
24.975,-0.239
24.980,-0.230
24.985,-0.225
24.990,-0.229
24.995,-0.248
25.000,-0.254
25.005,-0.255
25.010,-0.270
25.015,-0.263
25.020,-0.236
25.025,-0.208
25.030,-0.184
25.035,-0.159
25.040,-0.116
25.045,-0.046
25.050,0.025
25.055,0.074
25.060,0.120
25.065,0.171
25.070,0.211
25.075,0.242
25.080,0.262
25.085,0.271
25.090,0.275
25.095,0.277
25.100,0.279
25.105,0.283
25.110,0.270
25.115,0.249
25.120,0.239
25.125,0.240
25.130,0.251
25.135,0.258
25.140,0.259
25.145,0.254
25.150,0.244
25.155,0.234
25.160,0.221
25.165,0.214
25.170,0.219
25.175,0.205
25.180,0.181
25.185,0.179
25.190,0.186
25.195,0.170
25.200,0.152
25.205,0.161
25.210,0.157
25.215,0.128
25.220,0.104
25.225,0.092
25.230,0.096
25.235,0.093
25.240,0.081
25.245,0.071
25.250,0.065
25.255,0.076
25.260,0.071
25.265,0.048
25.270,0.048
25.275,0.051
25.280,0.048
25.285,0.032
25.290,0.012
25.295,0.018
25.300,0.030
25.305,0.031
25.310,0.024
25.315,0.021
25.320,0.028
25.325,0.040
25.330,0.046
25.335,0.034
25.340,0.026
25.345,0.038
25.350,0.039
25.355,0.022
25.360,0.016
25.365,0.017
25.370,0.018
25.375,0.016
25.380,-0.008
25.385,-0.033
25.390,-0.032
25.395,-0.015
25.400,-0.002
25.405,-0.009
25.410,-0.025
25.415,-0.032
25.420,-0.038
25.425,-0.051
25.430,-0.063
25.435,-0.068
25.440,-0.068
25.445,-0.057
25.450,-0.050
25.455,-0.050
25.460,-0.044
25.465,-0.052
25.470,-0.061
25.475,-0.070
25.480,-0.076
25.485,-0.063
25.490,-0.048
25.495,-0.048
25.500,-0.047
25.505,-0.037
25.510,-0.043
25.515,-0.049
25.520,-0.032
25.525,-0.037
25.530,-0.046
25.535,-0.033
25.540,-0.035
25.545,-0.045
25.550,-0.062
25.555,-0.066
25.560,-0.051
25.565,-0.050
25.570,-0.059
25.575,-0.072
25.580,-0.075
25.585,-0.060
25.590,-0.048
25.595,-0.064
25.600,-0.067
25.605,-0.037
25.610,-0.031
25.615,-0.037
25.620,-0.034
25.625,-0.039
25.630,-0.038
25.635,-0.053
25.640,-0.060
25.645,-0.025
25.650,-0.017
25.655,-0.030
25.660,-0.025
25.665,-0.022
25.670,-0.021
25.675,-0.026
25.680,-0.031
25.685,-0.019
25.690,-0.024
25.695,-0.036
25.700,-0.028
25.705,-0.025
25.710,-0.021
25.715,-0.005
25.720,-0.016
25.725,-0.123
25.730,-0.369
25.735,-0.739
25.740,-1.156
25.745,-1.407
25.750,-1.297
25.755,-0.790
25.760,-0.026
25.765,0.630
25.770,0.938
25.775,0.973
25.780,0.877
25.785,0.722
25.790,0.563
25.795,0.452
25.800,0.370
25.805,0.332
25.810,0.314
25.815,0.293
25.820,0.304
25.825,0.299
25.830,0.255
25.835,0.207
25.840,0.147
25.845,0.077
25.850,0.033
25.855,0.018
25.860,-0.003
25.865,-0.027
25.870,-0.064
25.875,-0.127
25.880,-0.171
25.885,-0.174
25.890,-0.166
25.895,-0.178
25.900,-0.208
25.905,-0.220
25.910,-0.203
25.915,-0.192
25.920,-0.199
25.925,-0.211
25.930,-0.210
25.935,-0.195
25.940,-0.192
25.945,-0.200
25.950,-0.196
25.955,-0.184
25.960,-0.177
25.965,-0.167
25.970,-0.155
25.975,-0.155
25.980,-0.159
25.985,-0.157
25.990,-0.153
25.995,-0.155
26.000,-0.154
26.005,-0.145
26.010,-0.148
26.015,-0.158
26.020,-0.159
26.025,-0.163
26.030,-0.184
26.035,-0.210
26.040,-0.216
26.045,-0.224
26.050,-0.241
26.055,-0.235
26.060,-0.216
26.065,-0.179
26.070,-0.114
26.075,-0.047
26.080,0.013
26.085,0.057
26.090,0.081
26.095,0.119
26.100,0.166
26.105,0.199
26.110,0.217
26.115,0.225
26.120,0.238
26.125,0.248
26.130,0.251
26.135,0.264
26.140,0.270
26.145,0.266
26.150,0.273
26.155,0.272
26.160,0.254
26.165,0.240
26.170,0.248
26.175,0.257
26.180,0.252
26.185,0.243
26.190,0.229
26.195,0.213
26.200,0.195
26.205,0.169
26.210,0.165
26.215,0.169
26.220,0.150
26.225,0.146
26.230,0.154
26.235,0.145
26.240,0.135
26.245,0.113
26.250,0.094
26.255,0.107
26.260,0.126
26.265,0.147
26.270,0.166
26.275,0.141
26.280,0.007
26.285,-0.268
26.290,-0.690
26.295,-1.140
26.300,-1.297
26.305,-0.993
26.310,-0.333
26.315,0.401
26.320,0.872
26.325,1.020
26.330,0.973
26.335,0.836
26.340,0.682
26.345,0.546
26.350,0.433
26.355,0.358
26.360,0.339
26.365,0.340
26.370,0.351
26.375,0.357
26.380,0.321
26.385,0.246
26.390,0.170
26.395,0.100
26.400,0.033
26.405,-0.009
26.410,-0.030
26.415,-0.061
26.420,-0.111
26.425,-0.188
26.430,-0.244
26.435,-0.235
26.440,-0.225
26.445,-0.240
26.450,-0.245
26.455,-0.242
26.460,-0.237
26.465,-0.238
26.470,-0.249
26.475,-0.252
26.480,-0.249
26.485,-0.254
26.490,-0.256
26.495,-0.266
26.500,-0.283
26.505,-0.285
26.510,-0.276
26.515,-0.262
26.520,-0.255
26.525,-0.264
26.530,-0.287
26.535,-0.312
26.540,-0.333
26.545,-0.348
26.550,-0.358
26.555,-0.353
26.560,-0.350
26.565,-0.350
26.570,-0.342
26.575,-0.337
26.580,-0.314
26.585,-0.275
26.590,-0.241
26.595,-0.193
26.600,-0.147
26.605,-0.116
26.610,-0.072
26.615,-0.017
26.620,0.038
26.625,0.086
26.630,0.131
26.635,0.167
26.640,0.195
26.645,0.231
26.650,0.255
26.655,0.261
26.660,0.265
26.665,0.275
26.670,0.287
26.675,0.277
26.680,0.250
26.685,0.246
26.690,0.266
26.695,0.263
26.700,0.244
26.705,0.242
26.710,0.244
26.715,0.232
26.720,0.223
26.725,0.215
26.730,0.201
26.735,0.189
26.740,0.170
26.745,0.148
26.750,0.139
26.755,0.133
26.760,0.131
26.765,0.131
26.770,0.123
26.775,0.113
26.780,0.105
26.785,0.103
26.790,0.099
26.795,0.087
26.800,0.074
26.805,0.076
26.810,0.080
26.815,0.086
26.820,0.093
26.825,0.070
26.830,0.047
26.835,0.036
26.840,0.019
26.845,0.010
26.850,0.002
26.855,-0.001
26.860,0.010
26.865,0.014
26.870,0.005
26.875,0.005
26.880,0.008
26.885,0.004
26.890,0.001
26.895,-0.002
26.900,0.000
26.905,0.004
26.910,-0.001
26.915,-0.010
26.920,-0.011
26.925,-0.016
26.930,-0.021
26.935,-0.018
26.940,-0.023
26.945,-0.033
26.950,-0.044
26.955,-0.057
26.960,-0.063
26.965,-0.070
26.970,-0.075
26.975,-0.068
26.980,-0.060
26.985,-0.059
26.990,-0.059
26.995,-0.062
27.000,-0.067
27.005,-0.075
27.010,-0.092
27.015,-0.095
27.020,-0.080
27.025,-0.068
27.030,-0.062
27.035,-0.060
27.040,-0.056
27.045,-0.049
27.050,-0.053
27.055,-0.059
27.060,-0.060
27.065,-0.055
27.070,-0.039
27.075,-0.037
27.080,-0.044
27.085,-0.037
27.090,-0.028
27.095,-0.022
27.100,-0.021
27.105,-0.020
27.110,-0.024
27.115,-0.035
27.120,-0.038
27.125,-0.038
27.130,-0.029
27.135,-0.022
27.140,-0.029
27.145,-0.040
27.150,-0.051
27.155,-0.054
27.160,-0.056
27.165,-0.062
27.170,-0.068
27.175,-0.073
27.180,-0.068
27.185,-0.075
27.190,-0.083
27.195,-0.082
27.200,-0.080
27.205,-0.068
27.210,-0.061
27.215,-0.054
27.220,-0.044
27.225,-0.049
27.230,-0.044
27.235,-0.031
27.240,-0.027
27.245,-0.029
27.250,-0.030
27.255,-0.017
27.260,-0.003
27.265,0.003
27.270,0.009
27.275,0.007
27.280,0.002
27.285,0.004
27.290,0.008
27.295,0.007
27.300,0.002
27.305,0.007
27.310,0.013
27.315,0.006
27.320,-0.005
27.325,-0.010
27.330,-0.006
27.335,-0.003
27.340,-0.007
27.345,-0.074
27.350,-0.273
27.355,-0.611
27.360,-1.046
27.365,-1.372
27.370,-1.342
27.375,-0.932
27.380,-0.267
27.385,0.396
27.390,0.815
27.395,0.963
27.400,0.937
27.405,0.827
27.410,0.673
27.415,0.537
27.420,0.439
27.425,0.383
27.430,0.365
27.435,0.348
27.440,0.340
27.445,0.341
27.450,0.314
27.455,0.261
27.460,0.220
27.465,0.177
27.470,0.121
27.475,0.076
27.480,0.041
27.485,-0.011
27.490,-0.077
27.495,-0.145
27.500,-0.184
27.505,-0.186
27.510,-0.185
27.515,-0.187
27.520,-0.187
27.525,-0.187
27.530,-0.178
27.535,-0.172
27.540,-0.177
27.545,-0.181
27.550,-0.171
27.555,-0.135
27.560,-0.110
27.565,-0.108
27.570,-0.101
27.575,-0.099
27.580,-0.098
27.585,-0.106
27.590,-0.124
27.595,-0.121
27.600,-0.110
27.605,-0.109
27.610,-0.115
27.615,-0.124
27.620,-0.123
27.625,-0.127
27.630,-0.144
27.635,-0.161
27.640,-0.175
27.645,-0.190
27.650,-0.221
27.655,-0.247
27.660,-0.261
27.665,-0.289
27.670,-0.311
27.675,-0.322
27.680,-0.324
27.685,-0.305
27.690,-0.267
27.695,-0.207
27.700,-0.142
27.705,-0.075
27.710,-0.005
27.715,0.063
27.720,0.129
27.725,0.166
27.730,0.192
27.735,0.230
27.740,0.258
27.745,0.287
27.750,0.316
27.755,0.326
27.760,0.317
27.765,0.305
27.770,0.304
27.775,0.296
27.780,0.277
27.785,0.256
27.790,0.238
27.795,0.231
27.800,0.217
27.805,0.196
27.810,0.179
27.815,0.166
27.820,0.147
27.825,0.105
27.830,0.064
27.835,0.040
27.840,0.032
27.845,0.046
27.850,0.075
27.855,0.092
27.860,0.098
27.865,0.102
27.870,0.101
27.875,0.099
27.880,0.093
27.885,0.086
27.890,0.091
27.895,0.094
27.900,0.087
27.905,0.087
27.910,0.090
27.915,0.094
27.920,0.107
27.925,0.117
27.930,0.124
27.935,0.127
27.940,0.125
27.945,0.124
27.950,0.125
27.955,0.134
27.960,0.136
27.965,0.121
27.970,0.040
27.975,-0.192
27.980,-0.571
27.985,-1.018
27.990,-1.327
27.995,-1.258
28.000,-0.799
28.005,-0.138
28.010,0.458
28.015,0.829
28.020,0.967
28.025,0.929
28.030,0.795
28.035,0.627
28.040,0.502
28.045,0.402
28.050,0.317
28.055,0.302
28.060,0.304
28.065,0.300
28.070,0.288
28.075,0.238
28.080,0.175
28.085,0.122
28.090,0.068
28.095,0.016
28.100,-0.018
28.105,-0.036
28.110,-0.063
28.115,-0.118
28.120,-0.192
28.125,-0.239
28.130,-0.243
28.135,-0.229
28.140,-0.212
28.145,-0.196
28.150,-0.178
28.155,-0.164
28.160,-0.180
28.165,-0.203
28.170,-0.212
28.175,-0.211
28.180,-0.200
28.185,-0.199
28.190,-0.207
28.195,-0.206
28.200,-0.203
28.205,-0.213
28.210,-0.232
28.215,-0.245
28.220,-0.252
28.225,-0.267
28.230,-0.290
28.235,-0.308
28.240,-0.324
28.245,-0.330
28.250,-0.331
28.255,-0.334
28.260,-0.346
28.265,-0.354
28.270,-0.353
28.275,-0.366
28.280,-0.374
28.285,-0.354
28.290,-0.304
28.295,-0.226
28.300,-0.152
28.305,-0.097
28.310,-0.050
28.315,-0.003
28.320,0.060
28.325,0.127
28.330,0.178
28.335,0.217
28.340,0.245
28.345,0.271
28.350,0.299
28.355,0.323
28.360,0.332
28.365,0.324
28.370,0.317
28.375,0.317
28.380,0.306
28.385,0.282
28.390,0.273
28.395,0.268
28.400,0.255
28.405,0.249
28.410,0.241
28.415,0.219
28.420,0.203
28.425,0.181
28.430,0.145
28.435,0.112
28.440,0.091
28.445,0.084
28.450,0.089
28.455,0.094
28.460,0.084
28.465,0.089
28.470,0.105
28.475,0.110
28.480,0.115
28.485,0.108
28.490,0.100
28.495,0.104
28.500,0.103
28.505,0.102
28.510,0.104
28.515,0.097
28.520,0.082
28.525,0.063
28.530,0.059
28.535,0.063
28.540,0.049
28.545,0.036
28.550,0.036
28.555,0.038
28.560,0.040
28.565,0.043
28.570,0.022
28.575,-0.111
28.580,-0.379
28.585,-0.757
28.590,-1.162
28.595,-1.329
28.600,-1.103
28.605,-0.565
28.610,0.101
28.615,0.636
28.620,0.918
28.625,1.002
28.630,0.944
28.635,0.786
28.640,0.615
28.645,0.468
28.650,0.343
28.655,0.293
28.660,0.276
28.665,0.261
28.670,0.270
28.675,0.238
28.680,0.178
28.685,0.132
28.690,0.084
28.695,0.020
28.700,-0.051
28.705,-0.094
28.710,-0.107
28.715,-0.126
28.720,-0.178
28.725,-0.242
28.730,-0.291
28.735,-0.294
28.740,-0.266
28.745,-0.250
28.750,-0.239
28.755,-0.248
28.760,-0.281
28.765,-0.298
28.770,-0.285
28.775,-0.270
28.780,-0.253
28.785,-0.235
28.790,-0.226
28.795,-0.220
28.800,-0.220
28.805,-0.228
28.810,-0.236
28.815,-0.245
28.820,-0.249
28.825,-0.251
28.830,-0.263
28.835,-0.260
28.840,-0.253
28.845,-0.265
28.850,-0.286
28.855,-0.310
28.860,-0.323
28.865,-0.330
28.870,-0.346
28.875,-0.357
28.880,-0.344
28.885,-0.322
28.890,-0.294
28.895,-0.259
28.900,-0.227
28.905,-0.198
28.910,-0.160
28.915,-0.113
28.920,-0.049
28.925,0.028
28.930,0.098
28.935,0.158
28.940,0.212
28.945,0.245
28.950,0.266
28.955,0.291
28.960,0.301
28.965,0.312
28.970,0.331
28.975,0.333
28.980,0.321
28.985,0.301
28.990,0.279
28.995,0.266
29.000,0.261
29.005,0.256
29.010,0.238
29.015,0.223
29.020,0.218
29.025,0.200
29.030,0.199
29.035,0.203
29.040,0.169
29.045,0.136
29.050,0.115
29.055,0.103
29.060,0.093
29.065,0.064
29.070,0.043
29.075,0.053
29.080,0.083
29.085,0.104
29.090,0.100
29.095,0.098
29.100,0.101
29.105,0.110
29.110,0.121
29.115,0.113
29.120,0.103
29.125,0.087
29.130,0.069
29.135,0.079
29.140,0.083
29.145,0.068
29.150,0.060
29.155,0.062
29.160,0.074
29.165,0.082
29.170,0.089
29.175,0.096
29.180,0.077
29.185,0.037
29.190,0.012
29.195,0.012
29.200,0.003
29.205,-0.012
29.210,-0.008
29.215,-0.006
29.220,-0.018
29.225,-0.037
29.230,-0.053
29.235,-0.054
29.240,-0.043
29.245,-0.031
29.250,-0.019
29.255,-0.006
29.260,-0.001
29.265,0.006
29.270,0.010
29.275,-0.011
29.280,-0.015
29.285,0.004
29.290,0.010
29.295,0.005
29.300,-0.001
29.305,-0.005
29.310,-0.005
29.315,-0.017
29.320,-0.015
29.325,-0.002
29.330,-0.019
29.335,-0.049
29.340,-0.067
29.345,-0.077
29.350,-0.071
29.355,-0.066
29.360,-0.081
29.365,-0.084
29.370,-0.078
29.375,-0.093
29.380,-0.111
29.385,-0.121
29.390,-0.121
29.395,-0.114
29.400,-0.109
29.405,-0.097
29.410,-0.081
29.415,-0.060
29.420,-0.047
29.425,-0.049
29.430,-0.052
29.435,-0.056
29.440,-0.058
29.445,-0.056
29.450,-0.053
29.455,-0.051
29.460,-0.046
29.465,-0.041
29.470,-0.031
29.475,-0.009
29.480,0.016
29.485,0.015
29.490,0.002
29.495,-0.010
29.500,-0.111
29.505,-0.353
29.510,-0.723
29.515,-1.147
29.520,-1.379
29.525,-1.248
29.530,-0.754
29.535,-0.013
29.540,0.623
29.545,0.935
29.550,0.978
29.555,0.878
29.560,0.729
29.565,0.567
29.570,0.436
29.575,0.349
29.580,0.317
29.585,0.309
29.590,0.289
29.595,0.290
29.600,0.291
29.605,0.252
29.610,0.191
29.615,0.144
29.620,0.112
29.625,0.065
29.630,0.013
29.635,-0.009
29.640,-0.028
29.645,-0.075
29.650,-0.135
29.655,-0.169
29.660,-0.166
29.665,-0.162
29.670,-0.170
29.675,-0.169
29.680,-0.164
29.685,-0.178
29.690,-0.198
29.695,-0.200
29.700,-0.198
29.705,-0.199
29.710,-0.193
29.715,-0.180
29.720,-0.159
29.725,-0.150
29.730,-0.145
29.735,-0.132
29.740,-0.129
29.745,-0.123
29.750,-0.123
29.755,-0.126
29.760,-0.121
29.765,-0.121
29.770,-0.116
29.775,-0.122
29.780,-0.144
29.785,-0.155
29.790,-0.177
29.795,-0.200
29.800,-0.204
29.805,-0.202
29.810,-0.216
29.815,-0.249
29.820,-0.261
29.825,-0.251
29.830,-0.232
29.835,-0.210
29.840,-0.191
29.845,-0.149
29.850,-0.098
29.855,-0.059
29.860,-0.012
29.865,0.040
29.870,0.082
29.875,0.111
29.880,0.144
29.885,0.175
29.890,0.197
29.895,0.213
29.900,0.228
29.905,0.252
29.910,0.261
29.915,0.249
29.920,0.244
29.925,0.236
29.930,0.223
29.935,0.219
29.940,0.220
29.945,0.221
29.950,0.223
29.955,0.223
29.960,0.208
29.965,0.183
29.970,0.163
29.975,0.158
29.980,0.165
29.985,0.159
29.990,0.149
29.995,0.153
30.000,0.149
30.005,0.132
30.010,0.118
30.015,0.115
30.020,0.114
30.025,0.106
30.030,0.091
30.035,0.083
30.040,0.087
30.045,0.092
30.050,0.088
30.055,0.082
30.060,0.082
30.065,0.079
30.070,0.077
30.075,0.069
30.080,0.054
30.085,0.051
30.090,0.054
30.095,0.066
30.100,0.087
30.105,0.093
30.110,0.058
30.115,0.024
30.120,0.028
30.125,0.036
30.130,0.046
30.135,0.052
30.140,-0.031
30.145,-0.257
30.150,-0.629
30.155,-1.070
30.160,-1.310
30.165,-1.146
30.170,-0.632
30.175,0.047
30.180,0.627
30.185,0.950
30.190,1.049
30.195,1.002
30.200,0.854
30.205,0.659
30.210,0.492
30.215,0.361
30.220,0.291
30.225,0.281
30.230,0.271
30.235,0.262
30.240,0.246
30.245,0.198
30.250,0.144
30.255,0.108
30.260,0.066
30.265,0.022
30.270,-0.019
30.275,-0.073
30.280,-0.121
30.285,-0.172
30.290,-0.229
30.295,-0.255
30.300,-0.266
30.305,-0.273
30.310,-0.273
30.315,-0.275
30.320,-0.261
30.325,-0.254
30.330,-0.265
30.335,-0.258
30.340,-0.247
30.345,-0.246
30.350,-0.247
30.355,-0.255
30.360,-0.263
30.365,-0.265
30.370,-0.260
30.375,-0.263
30.380,-0.276
30.385,-0.287
30.390,-0.307
30.395,-0.329
30.400,-0.325
30.405,-0.308
30.410,-0.306
30.415,-0.316
30.420,-0.319
30.425,-0.333
30.430,-0.359
30.435,-0.383
30.440,-0.398
30.445,-0.389
30.450,-0.371
30.455,-0.346
30.460,-0.312
30.465,-0.270
30.470,-0.209
30.475,-0.139
30.480,-0.069
30.485,-0.007
30.490,0.053
30.495,0.123
30.500,0.189
30.505,0.233
30.510,0.263
30.515,0.302
30.520,0.342
30.525,0.362
30.530,0.365
30.535,0.358
30.540,0.357
30.545,0.364
30.550,0.363
30.555,0.360
30.560,0.350
30.565,0.339
30.570,0.344
30.575,0.336
30.580,0.307
30.585,0.269
30.590,0.217
30.595,0.169
30.600,0.138
30.605,0.124
30.610,0.129
30.615,0.135
30.620,0.130
30.625,0.128
30.630,0.129
30.635,0.116
30.640,0.104
30.645,0.105
30.650,0.105
30.655,0.105
30.660,0.098
30.665,0.087
30.670,0.081
30.675,0.072
30.680,0.076
30.685,0.101
30.690,0.121
30.695,0.125
30.700,0.132
30.705,0.133
30.710,0.134
30.715,0.148
30.720,0.148
30.725,0.130
30.730,0.114
30.735,0.109
30.740,0.109
30.745,0.094
30.750,0.070
30.755,0.062
30.760,0.049
30.765,0.023
30.770,0.001
30.775,-0.015
30.780,-0.026
30.785,-0.095
30.790,-0.301
30.795,-0.645
30.800,-1.061
30.805,-1.331
30.810,-1.232
30.815,-0.789
30.820,-0.152
30.825,0.459
30.830,0.844
30.835,0.984
30.840,0.963
30.845,0.838
30.850,0.652
30.855,0.498
30.860,0.379
30.865,0.288
30.870,0.254
30.875,0.222
30.880,0.212
30.885,0.223
30.890,0.185
30.895,0.139
30.900,0.122
30.905,0.084
30.910,0.027
30.915,-0.022
30.920,-0.077
30.925,-0.135
30.930,-0.207
30.935,-0.277
30.940,-0.314
30.945,-0.326
30.950,-0.333
30.955,-0.342
30.960,-0.346
30.965,-0.330
30.970,-0.307
30.975,-0.303
30.980,-0.314
30.985,-0.311
30.990,-0.294
30.995,-0.280
31.000,-0.273
31.005,-0.270
31.010,-0.263
31.015,-0.243
31.020,-0.219
31.025,-0.214
31.030,-0.227
31.035,-0.238
31.040,-0.243
31.045,-0.246
31.050,-0.247
31.055,-0.254
31.060,-0.262
31.065,-0.260
31.070,-0.273
31.075,-0.312
31.080,-0.342
31.085,-0.363
31.090,-0.381
31.095,-0.384
31.100,-0.382
31.105,-0.364
31.110,-0.327
31.115,-0.281
31.120,-0.226
31.125,-0.152
31.130,-0.064
31.135,-0.002
31.140,0.038
31.145,0.084
31.150,0.141
31.155,0.203
31.160,0.245
31.165,0.267
31.170,0.304
31.175,0.329
31.180,0.343
31.185,0.364
31.190,0.368
31.195,0.367
31.200,0.367
31.205,0.355
31.210,0.337
31.215,0.316
31.220,0.290
31.225,0.249
31.230,0.218
31.235,0.215
31.240,0.210
31.245,0.186
31.250,0.147
31.255,0.119
31.260,0.104
31.265,0.086
31.270,0.079
31.275,0.074
31.280,0.070
31.285,0.075
31.290,0.080
31.295,0.098
31.300,0.123
31.305,0.123
31.310,0.114
31.315,0.108
31.320,0.111
31.325,0.123
31.330,0.127
31.335,0.126
31.340,0.137
31.345,0.152
31.350,0.162
31.355,0.178
31.360,0.170
31.365,0.128
31.370,0.094
31.375,0.072
31.380,0.055
31.385,0.047
31.390,0.037
31.395,0.030
31.400,0.029
31.405,0.025
31.410,0.015
31.415,0.009
31.420,0.010
31.425,0.014
31.430,0.005
31.435,-0.016
31.440,-0.026
31.445,-0.023
31.450,-0.013
31.455,-0.004
31.460,-0.006
31.465,-0.022
31.470,-0.038
31.475,-0.049
31.480,-0.053
31.485,-0.048
31.490,-0.040
31.495,-0.027
31.500,-0.010
31.505,-0.007
31.510,-0.004
31.515,0.001
31.520,-0.023
31.525,-0.060
31.530,-0.090
31.535,-0.108
31.540,-0.106
31.545,-0.099
31.550,-0.083
31.555,-0.066
31.560,-0.071
31.565,-0.073
31.570,-0.067
31.575,-0.061
31.580,-0.045
31.585,-0.038
31.590,-0.049
31.595,-0.058
31.600,-0.055
31.605,-0.045
31.610,-0.041
31.615,-0.039
31.620,-0.023
31.625,-0.008
31.630,-0.010
31.635,-0.013
31.640,-0.006
31.645,-0.002
31.650,-0.012
31.655,-0.028
31.660,-0.038
31.665,-0.046
31.670,-0.054
31.675,-0.051
31.680,-0.036
31.685,-0.023
31.690,-0.034
31.695,-0.051
31.700,-0.044
31.705,-0.026
31.710,-0.018
31.715,-0.031
31.720,-0.052
31.725,-0.069
31.730,-0.074
31.735,-0.072
31.740,-0.073
31.745,-0.077
31.750,-0.074
31.755,-0.057
31.760,-0.092
31.765,-0.267
31.770,-0.574
31.775,-0.977
31.780,-1.305
31.785,-1.300
31.790,-0.941
31.795,-0.335
31.800,0.301
31.805,0.722
31.810,0.897
31.815,0.903
31.820,0.810
31.825,0.668
31.830,0.534
31.835,0.427
31.840,0.353
31.845,0.328
31.850,0.315
31.855,0.305
31.860,0.302
31.865,0.275
31.870,0.227
31.875,0.181
31.880,0.136
31.885,0.088
31.890,0.050
31.895,0.022
31.900,-0.024
31.905,-0.091
31.910,-0.153
31.915,-0.195
31.920,-0.201
31.925,-0.190
31.930,-0.184
31.935,-0.179
31.940,-0.170
31.945,-0.162
31.950,-0.158
31.955,-0.144
31.960,-0.136
31.965,-0.139
31.970,-0.139
31.975,-0.136
31.980,-0.125
31.985,-0.118
31.990,-0.126
31.995,-0.129
32.000,-0.130
32.005,-0.133
32.010,-0.136
32.015,-0.137
32.020,-0.135
32.025,-0.136
32.030,-0.145
32.035,-0.153
32.040,-0.168
32.045,-0.200
32.050,-0.221
32.055,-0.224
32.060,-0.235
32.065,-0.252
32.070,-0.275
32.075,-0.306
32.080,-0.326
32.085,-0.322
32.090,-0.297
32.095,-0.261
32.100,-0.222
32.105,-0.187
32.110,-0.140
32.115,-0.067
32.120,0.008
32.125,0.064
32.130,0.113
32.135,0.163
32.140,0.203
32.145,0.227
32.150,0.238
32.155,0.251
32.160,0.262
32.165,0.261
32.170,0.263
32.175,0.272
32.180,0.284
32.185,0.297
32.190,0.298
32.195,0.291
32.200,0.261
32.205,0.224
32.210,0.213
32.215,0.209
32.220,0.206
32.225,0.195
32.230,0.171
32.235,0.154
32.240,0.138
32.245,0.121
32.250,0.107
32.255,0.092
32.260,0.090
32.265,0.096
32.270,0.096
32.275,0.093
32.280,0.084
32.285,0.079
32.290,0.087
32.295,0.093
32.300,0.099
32.305,0.101
32.310,0.098
32.315,0.104
32.320,0.109
32.325,0.101
32.330,0.098
32.335,0.112
32.340,0.128
32.345,0.148
32.350,0.162
32.355,0.161
32.360,0.144
32.365,0.118
32.370,0.110
32.375,0.102
32.380,0.088
32.385,0.083
32.390,0.059
32.395,0.046
32.400,0.049
32.405,0.040
32.410,0.025
32.415,0.002
32.420,-0.018
32.425,-0.023
32.430,-0.020
32.435,-0.023
32.440,-0.038
32.445,-0.052
32.450,-0.059
32.455,-0.049
32.460,-0.040
32.465,-0.050
32.470,-0.050
32.475,-0.039
32.480,-0.036
32.485,-0.032
32.490,-0.028
32.495,-0.020
32.500,-0.009
32.505,-0.015
32.510,-0.028
32.515,-0.018
32.520,-0.003
32.525,-0.005
32.530,-0.005
32.535,-0.008
32.540,-0.010
32.545,-0.012
32.550,-0.031
32.555,-0.038
32.560,-0.041
32.565,-0.050
32.570,-0.053
32.575,-0.052
32.580,-0.048
32.585,-0.055
32.590,-0.061
32.595,-0.061
32.600,-0.059
32.605,-0.053
32.610,-0.060
32.615,-0.063
32.620,-0.054
32.625,-0.049
32.630,-0.043
32.635,-0.038
32.640,-0.037
32.645,-0.042
32.650,-0.047
32.655,-0.047
32.660,-0.042
32.665,-0.039
32.670,-0.046
32.675,-0.052
32.680,-0.057
32.685,-0.058
32.690,-0.058
32.695,-0.054
32.700,-0.040
32.705,-0.036
32.710,-0.044
32.715,-0.070
32.720,-0.076
32.725,-0.063
32.730,-0.069
32.735,-0.062
32.740,-0.047
32.745,-0.052
32.750,-0.048
32.755,-0.044
32.760,-0.045
32.765,-0.031
32.770,-0.012
32.775,-0.002
32.780,0.003
32.785,-0.005
32.790,-0.011
32.795,-0.005
32.800,0.000
32.805,-0.004
32.810,-0.017
32.815,-0.032
32.820,-0.057
32.825,-0.068
32.830,-0.047
32.835,-0.036
32.840,-0.048
32.845,-0.054
32.850,-0.041
32.855,-0.010
32.860,0.004
32.865,-0.020
32.870,-0.020
32.875,-0.006
32.880,-0.006
32.885,-0.002
32.890,-0.007
32.895,-0.008
32.900,0.010
32.905,0.014
32.910,0.003
32.915,-0.002
32.920,-0.004
32.925,-0.003
32.930,0.001
32.935,0.006
32.940,0.007
32.945,0.001
32.950,0.003
32.955,-0.005
32.960,-0.014
32.965,-0.019
32.970,-0.031
32.975,-0.011
32.980,0.013
32.985,0.009
32.990,0.000
32.995,-0.006
33.000,0.001
33.005,0.012
33.010,0.015
33.015,0.016
33.020,0.021
33.025,0.014
33.030,0.004
33.035,0.005
33.040,-0.008
33.045,-0.011
33.050,0.006
33.055,0.002
33.060,-0.012
33.065,-0.032
33.070,-0.054
33.075,-0.056
33.080,-0.042
33.085,-0.014
33.090,0.003
33.095,-0.004
33.100,-0.015
33.105,-0.019
33.110,-0.002
33.115,0.010
33.120,0.007
33.125,0.017
33.130,0.026
33.135,0.025
33.140,0.008
33.145,-0.015
33.150,-0.012
33.155,0.021
33.160,0.051
33.165,0.034
33.170,0.014
33.175,0.023
33.180,0.037
33.185,0.030
33.190,0.001
33.195,-0.015
33.200,-0.009
33.205,-0.011
33.210,-0.027
33.215,-0.024
33.220,-0.014
33.225,-0.023
33.230,-0.023
33.235,-0.013
33.240,0.010
33.245,-0.016
33.250,-0.185
33.255,-0.472
33.260,-0.851
33.265,-1.230
33.270,-1.367
33.275,-1.117
33.280,-0.497
33.285,0.277
33.290,0.822
33.295,0.988
33.300,0.931
33.305,0.795
33.310,0.646
33.315,0.551
33.320,0.489
33.325,0.416
33.330,0.369
33.335,0.340
33.340,0.323
33.345,0.338
33.350,0.314
33.355,0.251
33.360,0.201
33.365,0.169
33.370,0.142
33.375,0.092
33.380,0.040
33.385,0.023
33.390,0.009
33.395,-0.040
33.400,-0.107
33.405,-0.150
33.410,-0.155
33.415,-0.134
33.420,-0.123
33.425,-0.126
33.430,-0.113
33.435,-0.116
33.440,-0.123
33.445,-0.119
33.450,-0.136
33.455,-0.162
33.460,-0.172
33.465,-0.176
33.470,-0.165
33.475,-0.133
33.480,-0.121
33.485,-0.123
33.490,-0.131
33.495,-0.150
33.500,-0.148
33.505,-0.134
33.510,-0.131
33.515,-0.132
33.520,-0.135
33.525,-0.139
33.530,-0.142
33.535,-0.146
33.540,-0.157
33.545,-0.178
33.550,-0.200
33.555,-0.215
33.560,-0.230
33.565,-0.252
33.570,-0.267
33.575,-0.273
33.580,-0.266
33.585,-0.246
33.590,-0.222
33.595,-0.192
33.600,-0.156
33.605,-0.123
33.610,-0.102
33.615,-0.077
33.620,-0.033
33.625,0.017
33.630,0.083
33.635,0.160
33.640,0.207
33.645,0.232
33.650,0.257
33.655,0.278
33.660,0.292
33.665,0.286
33.670,0.275
33.675,0.279
33.680,0.286
33.685,0.285
33.690,0.270
33.695,0.251
33.700,0.241
33.705,0.224
33.710,0.214
33.715,0.204
33.720,0.183
33.725,0.172
33.730,0.164
33.735,0.159
33.740,0.154
33.745,0.141
33.750,0.133
33.755,0.137
33.760,0.133
33.765,0.103
33.770,0.076
33.775,0.067
33.780,0.066
33.785,0.081
33.790,0.096
33.795,0.108
33.800,0.117
33.805,0.111
33.810,0.097
33.815,0.085
33.820,0.088
33.825,0.086
33.830,0.079
33.835,0.088
33.840,0.092
33.845,0.090
33.850,0.089
33.855,0.075
33.860,0.074
33.865,0.074
33.870,0.064
33.875,0.058
33.880,0.038
33.885,0.023
33.890,0.014
33.895,0.011
33.900,0.021
33.905,0.013
33.910,-0.003
33.915,0.003
33.920,0.011
33.925,0.005
33.930,0.001
33.935,0.001
33.940,-0.007
33.945,-0.013
33.950,-0.021
33.955,-0.035
33.960,-0.035
33.965,-0.041
33.970,-0.047
33.975,-0.044
33.980,-0.043
33.985,-0.027
33.990,-0.009
33.995,-0.020
34.000,-0.041
34.005,-0.046
34.010,-0.037
34.015,-0.025
34.020,-0.015
34.025,-0.016
34.030,-0.023
34.035,-0.018
34.040,-0.015
34.045,-0.017
34.050,-0.018
34.055,-0.016
34.060,-0.009
34.065,-0.009
34.070,0.002
34.075,0.004
34.080,-0.090
34.085,-0.318
34.090,-0.680
34.095,-1.119
34.100,-1.401
34.105,-1.336
34.110,-0.910
34.115,-0.224
34.120,0.420
34.125,0.777
34.130,0.867
34.135,0.798
34.140,0.660
34.145,0.514
34.150,0.403
34.155,0.324
34.160,0.290
34.165,0.281
34.170,0.262
34.175,0.258
34.180,0.255
34.185,0.230
34.190,0.190
34.195,0.152
34.200,0.104
34.205,0.043
34.210,0.009
34.215,-0.014
34.220,-0.051
34.225,-0.104
34.230,-0.161
34.235,-0.194
34.240,-0.211
34.245,-0.220
34.250,-0.230
34.255,-0.250
34.260,-0.236
34.265,-0.200
34.270,-0.182
34.275,-0.176
34.280,-0.180
34.285,-0.179
34.290,-0.179
34.295,-0.190
34.300,-0.203
34.305,-0.203
34.310,-0.195
34.315,-0.200
34.320,-0.200
34.325,-0.196
34.330,-0.211
34.335,-0.220
34.340,-0.219
34.345,-0.233
34.350,-0.252
34.355,-0.269
34.360,-0.282
34.365,-0.289
34.370,-0.292
34.375,-0.300
34.380,-0.307
34.385,-0.311
34.390,-0.313
34.395,-0.296
34.400,-0.278
34.405,-0.271
34.410,-0.256
34.415,-0.216
34.420,-0.149
34.425,-0.083
34.430,-0.014
34.435,0.058
34.440,0.114
34.445,0.172
34.450,0.222
34.455,0.259
34.460,0.291
34.465,0.308
34.470,0.327
34.475,0.348
34.480,0.353
34.485,0.347
34.490,0.345
34.495,0.348
34.500,0.345
34.505,0.325
34.510,0.301
34.515,0.280
34.520,0.260
34.525,0.240
34.530,0.224
34.535,0.218
34.540,0.216
34.545,0.207
34.550,0.197
34.555,0.195
34.560,0.192
34.565,0.191
34.570,0.192
34.575,0.187
34.580,0.178
34.585,0.170
34.590,0.170
34.595,0.174
34.600,0.162
34.605,0.142
34.610,0.120
34.615,0.108
34.620,0.108
34.625,0.102
34.630,0.099
34.635,0.102
34.640,0.096
34.645,0.093
34.650,0.098
34.655,0.088
34.660,0.061
34.665,0.033
34.670,0.024
34.675,0.028
34.680,0.003
34.685,-0.102
34.690,-0.331
34.695,-0.706
34.700,-1.148
34.705,-1.411
34.710,-1.272
34.715,-0.747
34.720,-0.039
34.725,0.559
34.730,0.899
34.735,0.998
34.740,0.924
34.745,0.777
34.750,0.625
34.755,0.508
34.760,0.402
34.765,0.332
34.770,0.317
34.775,0.303
34.780,0.298
34.785,0.283
34.790,0.232
34.795,0.174
34.800,0.116
34.805,0.051
34.810,0.002
34.815,-0.029
34.820,-0.063
34.825,-0.103
34.830,-0.170
34.835,-0.239
34.840,-0.268
34.845,-0.282
34.850,-0.298
34.855,-0.318
34.860,-0.337
34.865,-0.328
34.870,-0.306
34.875,-0.292
34.880,-0.269
34.885,-0.244
34.890,-0.230
34.895,-0.211
34.900,-0.199
34.905,-0.205
34.910,-0.209
34.915,-0.208
34.920,-0.201
34.925,-0.193
34.930,-0.204
34.935,-0.218
34.940,-0.227
34.945,-0.236
34.950,-0.243
34.955,-0.262
34.960,-0.278
34.965,-0.286
34.970,-0.292
34.975,-0.288
34.980,-0.284
34.985,-0.274
34.990,-0.267
34.995,-0.267
35.000,-0.262
35.005,-0.258
35.010,-0.233
35.015,-0.188
35.020,-0.139
35.025,-0.094
35.030,-0.043
35.035,0.029
35.040,0.084
35.045,0.121
35.050,0.158
35.055,0.185
35.060,0.210
35.065,0.217
35.070,0.221
35.075,0.231
35.080,0.237
35.085,0.258
35.090,0.268
35.095,0.260
35.100,0.249
35.105,0.234
35.110,0.226
35.115,0.214
35.120,0.212
35.125,0.236
35.130,0.246
35.135,0.234
35.140,0.215
35.145,0.201
35.150,0.201
35.155,0.194
35.160,0.172
35.165,0.145
35.170,0.124
35.175,0.115
35.180,0.116
35.185,0.114
35.190,0.099
35.195,0.091
35.200,0.085
35.205,0.073
35.210,0.063
35.215,0.055
35.220,0.055
35.225,0.051
35.230,0.050
35.235,0.060
35.240,0.059
35.245,0.049
35.250,0.045
35.255,0.050
35.260,0.075
35.265,0.092
35.270,0.074
35.275,0.039
35.280,0.015
35.285,0.024
35.290,0.033
35.295,0.023
35.300,0.010
35.305,-0.004
35.310,-0.015
35.315,-0.020
35.320,-0.017
35.325,-0.009
35.330,-0.010
35.335,-0.025
35.340,-0.037
35.345,-0.034
35.350,-0.030
35.355,-0.031
35.360,-0.033
35.365,-0.036
35.370,-0.035
35.375,-0.036
35.380,-0.041
35.385,-0.034
35.390,-0.026
35.395,-0.028
35.400,-0.029
35.405,-0.025
35.410,-0.017
35.415,-0.010
35.420,-0.017
35.425,-0.033
35.430,-0.044
35.435,-0.040
35.440,-0.035
35.445,-0.039
35.450,-0.029
35.455,-0.005
35.460,0.008
35.465,0.001
35.470,-0.017
35.475,-0.039
35.480,-0.050
35.485,-0.056
35.490,-0.069
35.495,-0.073
35.500,-0.070
35.505,-0.083
35.510,-0.095
35.515,-0.100
35.520,-0.101
35.525,-0.098
35.530,-0.096
35.535,-0.087
35.540,-0.074
35.545,-0.056
35.550,-0.034
35.555,0.000
35.560,0.016
35.565,-0.067
35.570,-0.284
35.575,-0.621
35.580,-1.034
35.585,-1.319
35.590,-1.269
35.595,-0.881
35.600,-0.263
35.605,0.343
35.610,0.723
35.615,0.857
35.620,0.820
35.625,0.701
35.630,0.567
35.635,0.462
35.640,0.385
35.645,0.345
35.650,0.340
35.655,0.323
35.660,0.301
35.665,0.292
35.670,0.277
35.675,0.231
35.680,0.181
35.685,0.138
35.690,0.081
35.695,0.036
35.700,0.009
35.705,-0.023
35.710,-0.075
35.715,-0.156
35.720,-0.214
35.725,-0.220
35.730,-0.206
35.735,-0.193
35.740,-0.191
35.745,-0.173
35.750,-0.160
35.755,-0.167
35.760,-0.164
35.765,-0.160
35.770,-0.153
35.775,-0.142
35.780,-0.141
35.785,-0.144
35.790,-0.151
35.795,-0.151
35.800,-0.144
35.805,-0.142
35.810,-0.142
35.815,-0.147
35.820,-0.151
35.825,-0.140
35.830,-0.127
35.835,-0.125
35.840,-0.134
35.845,-0.151
35.850,-0.168
35.855,-0.190
35.860,-0.222
35.865,-0.255
35.870,-0.290
35.875,-0.315
35.880,-0.320
35.885,-0.317
35.890,-0.332
35.895,-0.333
35.900,-0.294
35.905,-0.243
35.910,-0.194
35.915,-0.136
35.920,-0.064
35.925,0.008
35.930,0.061
35.935,0.102
35.940,0.143
35.945,0.183
35.950,0.225
35.955,0.267
35.960,0.298
35.965,0.317
35.970,0.333
35.975,0.339
35.980,0.339
35.985,0.333
35.990,0.322
35.995,0.318
36.000,0.315
36.005,0.291
36.010,0.248
36.015,0.211
36.020,0.184
36.025,0.168
36.030,0.181
36.035,0.211
36.040,0.210
36.045,0.172
36.050,0.135
36.055,0.119
36.060,0.103
36.065,0.095
36.070,0.092
36.075,0.079
36.080,0.081
36.085,0.089
36.090,0.096
36.095,0.106
36.100,0.096
36.105,0.086
36.110,0.092
36.115,0.105
36.120,0.117
36.125,0.116
36.130,0.101
36.135,0.087
36.140,0.092
36.145,0.105
36.150,0.106
36.155,0.102
36.160,0.099
36.165,0.104
36.170,0.105
36.175,0.034
36.180,-0.140
36.185,-0.431
36.190,-0.866
36.195,-1.249
36.200,-1.272
36.205,-0.880
36.210,-0.246
36.215,0.386
36.220,0.800
36.225,0.987
36.230,1.029
36.235,0.891
36.240,0.686
36.245,0.540
36.250,0.388
36.255,0.304
36.260,0.313
36.265,0.294
36.270,0.268
36.275,0.227
36.280,0.168
36.285,0.172
36.290,0.188
36.295,0.155
36.300,0.123
36.305,0.069
36.310,-0.063
36.315,-0.128
36.320,-0.129
36.325,-0.208
36.330,-0.210
36.335,-0.185
36.340,-0.196
36.345,-0.179
36.350,-0.249
36.355,-0.255
36.360,-0.205
36.365,-0.204
36.370,-0.201
36.375,-0.172
36.380,-0.176
36.385,-0.287
36.390,-0.329
36.395,-0.317
36.400,-0.300
36.405,-0.253
36.410,-0.205
36.415,-0.137
36.420,-0.155
36.425,-0.246
36.430,-0.360
36.435,-0.485
36.440,-0.410
36.445,-0.239
36.450,-0.258
36.455,-0.347
36.460,-0.307
36.465,-0.203
36.470,-0.072
36.475,0.031
36.480,-0.062
36.485,-0.087
36.490,0.093
36.495,0.247
36.500,0.369
36.505,0.309
36.510,0.188
36.515,0.167
36.520,0.055
36.525,-0.116
36.530,-0.122
36.535,0.054
36.540,0.082
36.545,0.041
36.550,0.165
36.555,0.211
36.560,0.130
36.565,0.082
36.570,0.103
36.575,0.203
36.580,0.253
36.585,0.370
36.590,0.468
36.595,0.262
36.600,0.060
36.605,0.015
36.610,0.072
36.615,0.217
36.620,0.346
36.625,0.489
36.630,0.466
36.635,0.166
36.640,-0.005
36.645,0.082
36.650,0.138
36.655,0.035
36.660,-0.029
36.665,0.026
36.670,0.086
36.675,0.099
36.680,0.038
36.685,0.014
36.690,0.041
36.695,0.021
36.700,-0.085
36.705,-0.103
36.710,-0.056
36.715,-0.104
36.720,-0.075
36.725,-0.074
36.730,-0.059
36.735,0.040
36.740,-0.022
36.745,-0.051
36.750,0.019
36.755,-0.023
36.760,-0.068
36.765,-0.044
36.770,-0.012
36.775,0.026
36.780,0.013
36.785,-0.109
36.790,-0.360
36.795,-0.761
36.800,-1.204
36.805,-1.429
36.810,-1.251
36.815,-0.685
36.820,0.065
36.825,0.678
36.830,1.004
36.835,1.110
36.840,1.053
36.845,0.889
36.850,0.719
36.855,0.549
36.860,0.372
36.865,0.272
36.870,0.225
36.875,0.185
36.880,0.167
36.885,0.123
36.890,0.068
36.895,0.045
36.900,0.012
36.905,-0.023
36.910,-0.020
36.915,-0.036
36.920,-0.083
36.925,-0.126
36.930,-0.194
36.935,-0.232
36.940,-0.219
36.945,-0.196
36.950,-0.150
36.955,-0.133
36.960,-0.155
36.965,-0.189
36.970,-0.225
36.975,-0.226
36.980,-0.196
36.985,-0.175
36.990,-0.190
36.995,-0.198
37.000,-0.168
37.005,-0.140
37.010,-0.145
37.015,-0.154
37.020,-0.131
37.025,-0.126
37.030,-0.157
37.035,-0.201
37.040,-0.253
37.045,-0.286
37.050,-0.315
37.055,-0.360
37.060,-0.369
37.065,-0.382
37.070,-0.438
37.075,-0.479
37.080,-0.508
37.085,-0.515
37.090,-0.493
37.095,-0.455
37.100,-0.396
37.105,-0.348
37.110,-0.328
37.115,-0.304
37.120,-0.231
37.125,-0.129
37.130,-0.079
37.135,-0.067
37.140,-0.033
37.145,0.031
37.150,0.093
37.155,0.109
37.160,0.112
37.165,0.129
37.170,0.142
37.175,0.131
37.180,0.123
37.185,0.137
37.190,0.131
37.195,0.129
37.200,0.139
37.205,0.125
37.210,0.125
37.215,0.144
37.220,0.155
37.225,0.187
37.230,0.212
37.235,0.196
37.240,0.166
37.245,0.130
37.250,0.139
37.255,0.178
37.260,0.174
37.265,0.139
37.270,0.113
37.275,0.116
37.280,0.131
37.285,0.137
37.290,0.120
37.295,0.113
37.300,0.140
37.305,0.165
37.310,0.164
37.315,0.144
37.320,0.141
37.325,0.147
37.330,0.147
37.335,0.151
37.340,0.125
37.345,0.098
37.350,0.120
37.355,0.145
37.360,0.157
37.365,0.144
37.370,0.112
37.375,0.088
37.380,-0.030
37.385,-0.336
37.390,-0.759
37.395,-1.174
37.400,-1.322
37.405,-0.996
37.410,-0.308
37.415,0.446
37.420,0.961
37.425,1.135
37.430,1.112
37.435,1.003
37.440,0.850
37.445,0.683
37.450,0.492
37.455,0.365
37.460,0.324
37.465,0.309
37.470,0.318
37.475,0.292
37.480,0.257
37.485,0.234
37.490,0.179
37.495,0.118
37.500,0.069
37.505,0.025
37.510,-0.002
37.515,-0.011
37.520,-0.034
37.525,-0.080
37.530,-0.119
37.535,-0.121
37.540,-0.117
37.545,-0.130
37.550,-0.145
37.555,-0.164
37.560,-0.173
37.565,-0.183
37.570,-0.202
37.575,-0.198
37.580,-0.197
37.585,-0.200
37.590,-0.181
37.595,-0.164
37.600,-0.157
37.605,-0.163
37.610,-0.177
37.615,-0.184
37.620,-0.200
37.625,-0.220
37.630,-0.234
37.635,-0.240
37.640,-0.240
37.645,-0.242
37.650,-0.246
37.655,-0.262
37.660,-0.278
37.665,-0.289
37.670,-0.313
37.675,-0.335
37.680,-0.353
37.685,-0.354
37.690,-0.348
37.695,-0.340
37.700,-0.290
37.705,-0.230
37.710,-0.180
37.715,-0.128
37.720,-0.084
37.725,-0.040
37.730,0.010
37.735,0.076
37.740,0.137
37.745,0.179
37.750,0.230
37.755,0.285
37.760,0.328
37.765,0.330
37.770,0.317
37.775,0.308
37.780,0.288
37.785,0.271
37.790,0.231
37.795,0.177
37.800,0.155
37.805,0.145
37.810,0.155
37.815,0.175
37.820,0.161
37.825,0.151
37.830,0.181
37.835,0.187
37.840,0.179
37.845,0.166
37.850,0.109
37.855,0.079
37.860,0.062
37.865,0.039
37.870,0.037
37.875,0.015
37.880,-0.012
37.885,0.007
37.890,0.037
37.895,0.052
37.900,0.068
37.905,0.076
37.910,0.087
37.915,0.096
37.920,0.103
37.925,0.111
37.930,0.115
37.935,0.111
37.940,0.104
37.945,0.104
37.950,0.109
37.955,0.111
37.960,0.096
37.965,0.076
37.970,0.054
37.975,0.025
37.980,0.012
37.985,-0.004
37.990,-0.018
37.995,-0.019
38.000,-0.029
38.005,-0.022
38.010,-0.008
38.015,-0.024
38.020,-0.141
38.025,-0.418
38.030,-0.799
38.035,-1.157
38.040,-1.257
38.045,-0.981
38.050,-0.432
38.055,0.203
38.060,0.681
38.065,0.925
38.070,0.990
38.075,0.919
38.080,0.757
38.085,0.564
38.090,0.406
38.095,0.285
38.100,0.216
38.105,0.187
38.110,0.159
38.115,0.156
38.120,0.142
38.125,0.082
38.130,0.025
38.135,-0.024
38.140,-0.073
38.145,-0.100
38.150,-0.115
38.155,-0.135
38.160,-0.155
38.165,-0.188
38.170,-0.220
38.175,-0.230
38.180,-0.211
38.185,-0.178
38.190,-0.165
38.195,-0.153
38.200,-0.139
38.205,-0.142
38.210,-0.134
38.215,-0.129
38.220,-0.139
38.225,-0.151
38.230,-0.165
38.235,-0.160
38.240,-0.157
38.245,-0.172
38.250,-0.177
38.255,-0.180
38.260,-0.186
38.265,-0.196
38.270,-0.228
38.275,-0.259
38.280,-0.302
38.285,-0.339
38.290,-0.345
38.295,-0.346
38.300,-0.347
38.305,-0.369
38.310,-0.395
38.315,-0.403
38.320,-0.411
38.325,-0.411
38.330,-0.394
38.335,-0.366
38.340,-0.321
38.345,-0.254
38.350,-0.180
38.355,-0.114
38.360,-0.045
38.365,0.032
38.370,0.105
38.375,0.160
38.380,0.202
38.385,0.245
38.390,0.270
38.395,0.279
38.400,0.294
38.405,0.305
38.410,0.316
38.415,0.319
38.420,0.310
38.425,0.287
38.430,0.246
38.435,0.210
38.440,0.196
38.445,0.184
38.450,0.175
38.455,0.167
38.460,0.153
38.465,0.142
38.470,0.142
38.475,0.153
38.480,0.156
38.485,0.148
38.490,0.138
38.495,0.138
38.500,0.145
38.505,0.145
38.510,0.149
38.515,0.155
38.520,0.161
38.525,0.158
38.530,0.158
38.535,0.168
38.540,0.157
38.545,0.152
38.550,0.158
38.555,0.154
38.560,0.152
38.565,0.150
38.570,0.149
38.575,0.144
38.580,0.124
38.585,0.098
38.590,0.056
38.595,0.006
38.600,-0.017
38.605,-0.021
38.610,-0.005
38.615,0.015
38.620,0.012
38.625,0.004
38.630,-0.002
38.635,-0.006
38.640,0.000
38.645,0.001
38.650,0.001
38.655,0.004
38.660,0.004
38.665,0.013
38.670,0.022
38.675,0.022
38.680,0.028
38.685,0.029
38.690,0.025
38.695,0.024
38.700,0.017
38.705,0.013
38.710,0.018
38.715,0.012
38.720,-0.003
38.725,-0.008
38.730,-0.004
38.735,0.009
38.740,0.013
38.745,-0.005
38.750,-0.017
38.755,-0.015
38.760,-0.019
38.765,-0.024
38.770,-0.032
38.775,-0.060
38.780,-0.080
38.785,-0.087
38.790,-0.099
38.795,-0.109
38.800,-0.114
38.805,-0.118
38.810,-0.115
38.815,-0.104
38.820,-0.090
38.825,-0.069
38.830,-0.060
38.835,-0.055
38.840,-0.048
38.845,-0.049
38.850,-0.041
38.855,-0.028
38.860,-0.018
38.865,-0.009
38.870,-0.003
38.875,-0.003
38.880,0.003
38.885,0.007
38.890,-0.082
38.895,-0.305
38.900,-0.648
38.905,-1.042
38.910,-1.237
38.915,-1.078
38.920,-0.619
38.925,0.006
38.930,0.543
38.935,0.840
38.940,0.930
38.945,0.879
38.950,0.738
38.955,0.563
38.960,0.413
38.965,0.295
38.970,0.234
38.975,0.216
38.980,0.188
38.985,0.174
38.990,0.150
38.995,0.102
39.000,0.075
39.005,0.055
39.010,0.030
39.015,0.016
39.020,0.005
39.025,-0.010
39.030,-0.035
39.035,-0.072
39.040,-0.113
39.045,-0.145
39.050,-0.154
39.055,-0.150
39.060,-0.148
39.065,-0.151
39.070,-0.168
39.075,-0.193
39.080,-0.204
39.085,-0.187
39.090,-0.158
39.095,-0.139
39.100,-0.130
39.105,-0.133
39.110,-0.144
39.115,-0.148
39.120,-0.145
39.125,-0.142
39.130,-0.145
39.135,-0.147
39.140,-0.164
39.145,-0.199
39.150,-0.227
39.155,-0.242
39.160,-0.246
39.165,-0.254
39.170,-0.267
39.175,-0.275
39.180,-0.287
39.185,-0.298
39.190,-0.310
39.195,-0.320
39.200,-0.327
39.205,-0.333
39.210,-0.321
39.215,-0.287
39.220,-0.248
39.225,-0.205
39.230,-0.153
39.235,-0.101
39.240,-0.065
39.245,-0.039
39.250,0.015
39.255,0.093
39.260,0.163
39.265,0.223
39.270,0.275
39.275,0.315
39.280,0.328
39.285,0.335
39.290,0.347
39.295,0.352
39.300,0.348
39.305,0.332
39.310,0.319
39.315,0.311
39.320,0.290
39.325,0.270
39.330,0.260
39.335,0.234
39.340,0.215
39.345,0.211
39.350,0.194
39.355,0.181
39.360,0.173
39.365,0.163
39.370,0.165
39.375,0.168
39.380,0.171
39.385,0.173
39.390,0.150
39.395,0.126
39.400,0.127
39.405,0.127
39.410,0.118
39.415,0.115
39.420,0.111
39.425,0.108
39.430,0.113
39.435,0.118
39.440,0.107
39.445,0.091
39.450,0.091
39.455,0.092
39.460,0.088
39.465,0.083
39.470,0.074
39.475,0.073
39.480,0.068
39.485,0.051
39.490,0.041
39.495,0.039
39.500,0.037
39.505,0.032
39.510,0.033
39.515,0.033
39.520,0.027
39.525,0.031
39.530,0.045
39.535,0.054
39.540,0.053
39.545,0.045
39.550,0.044
39.555,0.037
39.560,0.005
39.565,-0.022
39.570,-0.020
39.575,-0.009
39.580,-0.005
39.585,-0.007
39.590,-0.003
39.595,0.003
39.600,0.007
39.605,-0.007
39.610,-0.032
39.615,-0.033
39.620,-0.029
39.625,-0.034
39.630,-0.029
39.635,-0.023
39.640,-0.020
39.645,-0.028
39.650,-0.039
39.655,-0.020
39.660,-0.009
39.665,-0.108
39.670,-0.357
39.675,-0.713
39.680,-1.112
39.685,-1.340
39.690,-1.207
39.695,-0.733
39.700,-0.070
39.705,0.501
39.710,0.801
39.715,0.881
39.720,0.838
39.725,0.715
39.730,0.558
39.735,0.422
39.740,0.307
39.745,0.254
39.750,0.241
39.755,0.199
39.760,0.166
39.765,0.143
39.770,0.115
39.775,0.084
39.780,0.044
39.785,0.011
39.790,-0.027
39.795,-0.066
39.800,-0.083
39.805,-0.103
39.810,-0.134
39.815,-0.177
39.820,-0.212
39.825,-0.222
39.830,-0.221
39.835,-0.233
39.840,-0.247
39.845,-0.230
39.850,-0.218
39.855,-0.228
39.860,-0.236
39.865,-0.246
39.870,-0.253
39.875,-0.265
39.880,-0.277
39.885,-0.259
39.890,-0.219
39.895,-0.182
39.900,-0.168
39.905,-0.180
39.910,-0.194
39.915,-0.199
39.920,-0.198
39.925,-0.199
39.930,-0.208
39.935,-0.216
39.940,-0.219
39.945,-0.218
39.950,-0.229
39.955,-0.247
39.960,-0.251
39.965,-0.265
39.970,-0.281
39.975,-0.291
39.980,-0.299
39.985,-0.275
39.990,-0.242
39.995,-0.219
40.000,-0.175
40.005,-0.123
40.010,-0.067
40.015,-0.015
40.020,0.031
40.025,0.078
40.030,0.108
40.035,0.127
40.040,0.165
40.045,0.234
40.050,0.294
40.055,0.319
40.060,0.344
40.065,0.369
40.070,0.375
40.075,0.357
40.080,0.337
40.085,0.334
40.090,0.320
40.095,0.300
40.100,0.287
40.105,0.269
40.110,0.259
40.115,0.249
40.120,0.229
40.125,0.207
40.130,0.188
40.135,0.186
40.140,0.175
40.145,0.142
40.150,0.126
40.155,0.129
40.160,0.133
40.165,0.133
40.170,0.136
40.175,0.143
40.180,0.132
40.185,0.102
40.190,0.088
40.195,0.090
40.200,0.099
40.205,0.107
40.210,0.099
40.215,0.088
40.220,0.083
40.225,0.085
40.230,0.098
40.235,0.101
40.240,0.083
40.245,0.080
40.250,0.094
40.255,0.089
40.260,0.074
40.265,0.072
40.270,0.065
40.275,0.055
40.280,0.038
40.285,0.015
40.290,0.015
40.295,0.017
40.300,0.007
40.305,-0.005
40.310,-0.033
40.315,-0.047
40.320,-0.025
40.325,-0.013
40.330,-0.026
40.335,-0.044
40.340,-0.059
40.345,-0.055
40.350,-0.037
40.355,-0.049
40.360,-0.067
40.365,-0.053
40.370,-0.045
40.375,-0.046
40.380,-0.040
40.385,-0.030
40.390,-0.009
40.395,0.003
40.400,-0.014
40.405,-0.023
40.410,-0.009
40.415,-0.008
40.420,-0.023
40.425,-0.042
40.430,-0.058
40.435,-0.064
40.440,-0.052
40.445,-0.049
40.450,-0.057
40.455,-0.064
40.460,-0.078
40.465,-0.073
40.470,-0.056
40.475,-0.053
40.480,-0.058
40.485,-0.076
40.490,-0.098
40.495,-0.097
40.500,-0.082
40.505,-0.080
40.510,-0.086
40.515,-0.091
40.520,-0.092
40.525,-0.076
40.530,-0.050
40.535,-0.035
40.540,-0.038
40.545,-0.039
40.550,-0.028
40.555,-0.031
40.560,-0.042
40.565,-0.037
40.570,-0.026
40.575,-0.025
40.580,-0.043
40.585,-0.053
40.590,-0.053
40.595,-0.054
40.600,-0.044
40.605,-0.038
40.610,-0.036
40.615,-0.043
40.620,-0.061
40.625,-0.068
40.630,-0.070
40.635,-0.068
40.640,-0.074
40.645,-0.082
40.650,-0.077
40.655,-0.071
40.660,-0.062
40.665,-0.060
40.670,-0.058
40.675,-0.040
40.680,-0.025
40.685,-0.020
40.690,-0.014
40.695,-0.006
40.700,0.026
40.705,0.036
40.710,-0.074
40.715,-0.321
40.720,-0.682
40.725,-1.090
40.730,-1.324
40.735,-1.205
40.740,-0.729
40.745,-0.014
40.750,0.615
40.755,0.935
40.760,0.986
40.765,0.889
40.770,0.735
40.775,0.569
40.780,0.450
40.785,0.369
40.790,0.323
40.795,0.301
40.800,0.257
40.805,0.234
40.810,0.232
40.815,0.199
40.820,0.158
40.825,0.128
40.830,0.086
40.835,0.048
40.840,0.030
40.845,0.018
40.850,0.004
40.855,-0.039
40.860,-0.095
40.865,-0.115
40.870,-0.107
40.875,-0.107
40.880,-0.114
40.885,-0.109
40.890,-0.094
40.895,-0.091
40.900,-0.093
40.905,-0.104
40.910,-0.134
40.915,-0.150
40.920,-0.146
40.925,-0.137
40.930,-0.140
40.935,-0.153
40.940,-0.152
40.945,-0.153
40.950,-0.152
40.955,-0.139
40.960,-0.130
40.965,-0.128
40.970,-0.140
40.975,-0.154
40.980,-0.165
40.985,-0.179
40.990,-0.190
40.995,-0.205
41.000,-0.218
41.005,-0.223
41.010,-0.230
41.015,-0.245
41.020,-0.262
41.025,-0.274
41.030,-0.278
41.035,-0.268
41.040,-0.248
41.045,-0.218
41.050,-0.180
41.055,-0.156
41.060,-0.124
41.065,-0.057
41.070,0.006
41.075,0.056
41.080,0.098
41.085,0.136
41.090,0.188
41.095,0.242
41.100,0.281
41.105,0.299
41.110,0.301
41.115,0.291
41.120,0.285
41.125,0.284
41.130,0.270
41.135,0.262
41.140,0.255
41.145,0.237
41.150,0.227
41.155,0.217
41.160,0.202
41.165,0.199
41.170,0.192
41.175,0.176
41.180,0.175
41.185,0.184
41.190,0.179
41.195,0.170
41.200,0.161
41.205,0.153
41.210,0.158
41.215,0.150
41.220,0.130
41.225,0.118
41.230,0.108
41.235,0.114
41.240,0.131
41.245,0.144
41.250,0.147
41.255,0.119
41.260,0.091
41.265,0.083
41.270,0.072
41.275,0.059
41.280,0.058
41.285,0.062
41.290,0.057
41.295,0.051
41.300,0.045
41.305,0.039
41.310,0.043
41.315,0.051
41.320,0.060
41.325,0.030
41.330,-0.127
41.335,-0.420
41.340,-0.825
41.345,-1.233
41.350,-1.361
41.355,-1.074
41.360,-0.463
41.365,0.248
41.370,0.747
41.375,0.954
41.380,0.973
41.385,0.876
41.390,0.735
41.395,0.607
41.400,0.501
41.405,0.410
41.410,0.349
41.415,0.302
41.420,0.257
41.425,0.244
41.430,0.216
41.435,0.149
41.440,0.086
41.445,0.030
41.450,-0.013
41.455,-0.044
41.460,-0.067
41.465,-0.090
41.470,-0.119
41.475,-0.159
41.480,-0.205
41.485,-0.218
41.490,-0.208
41.495,-0.209
41.500,-0.206
41.505,-0.206
41.510,-0.216
41.515,-0.205
41.520,-0.194
41.525,-0.193
41.530,-0.189
41.535,-0.199
41.540,-0.206
41.545,-0.204
41.550,-0.217
41.555,-0.237
41.560,-0.244
41.565,-0.253
41.570,-0.273
41.575,-0.290
41.580,-0.301
41.585,-0.306
41.590,-0.322
41.595,-0.344
41.600,-0.340
41.605,-0.326
41.610,-0.326
41.615,-0.333
41.620,-0.348
41.625,-0.344
41.630,-0.320
41.635,-0.298
41.640,-0.273
41.645,-0.239
41.650,-0.198
41.655,-0.151
41.660,-0.090
41.665,-0.022
41.670,0.042
41.675,0.103
41.680,0.152
41.685,0.190
41.690,0.224
41.695,0.255
41.700,0.285
41.705,0.300
41.710,0.294
41.715,0.279
41.720,0.263
41.725,0.256
41.730,0.267
41.735,0.293
41.740,0.292
41.745,0.257
41.750,0.230
41.755,0.221
41.760,0.221
41.765,0.216
41.770,0.205
41.775,0.210
41.780,0.216
41.785,0.209
41.790,0.193
41.795,0.175
41.800,0.177
41.805,0.176
41.810,0.167
41.815,0.161
41.820,0.155
41.825,0.158
41.830,0.149
41.835,0.139
41.840,0.128
41.845,0.112
41.850,0.101
41.855,0.078
41.860,0.058
41.865,0.058
41.870,0.070
41.875,0.092
41.880,0.093
41.885,0.067
41.890,0.049
41.895,0.039
41.900,0.026
41.905,0.012
41.910,0.000
41.915,-0.004
41.920,-0.004
41.925,-0.003
41.930,0.003
41.935,0.009
41.940,0.000
41.945,-0.008
41.950,-0.004
41.955,-0.004
41.960,0.002
41.965,-0.020
41.970,-0.164
41.975,-0.456
41.980,-0.853
41.985,-1.213
41.990,-1.287
41.995,-1.001
42.000,-0.445
42.005,0.205
42.010,0.689
42.015,0.938
42.020,1.015
42.025,0.939
42.030,0.751
42.035,0.554
42.040,0.399
42.045,0.290
42.050,0.239
42.055,0.196
42.060,0.159
42.065,0.152
42.070,0.121
42.075,0.071
42.080,0.040
42.085,0.012
42.090,-0.025
42.095,-0.055
42.100,-0.074
42.105,-0.094
42.110,-0.115
42.115,-0.159
42.120,-0.223
42.125,-0.256
42.130,-0.258
42.135,-0.248
42.140,-0.243
42.145,-0.254
42.150,-0.259
42.155,-0.253
42.160,-0.241
42.165,-0.235
42.170,-0.251
42.175,-0.270
42.180,-0.275
42.185,-0.266
42.190,-0.249
42.195,-0.237
42.200,-0.232
42.205,-0.232
42.210,-0.238
42.215,-0.243
42.220,-0.259
42.225,-0.283
42.230,-0.284
42.235,-0.288
42.240,-0.312
42.245,-0.333
42.250,-0.341
42.255,-0.349
42.260,-0.365
42.265,-0.382
42.270,-0.395
42.275,-0.386
42.280,-0.358
42.285,-0.324
42.290,-0.284
42.295,-0.239
42.300,-0.181
42.305,-0.116
42.310,-0.059
42.315,0.003
42.320,0.068
42.325,0.125
42.330,0.179
42.335,0.230
42.340,0.266
42.345,0.279
42.350,0.283
42.355,0.285
42.360,0.296
42.365,0.332
42.370,0.369
42.375,0.375
42.380,0.357
42.385,0.355
42.390,0.363
42.395,0.346
42.400,0.324
42.405,0.294
42.410,0.280
42.415,0.275
42.420,0.241
42.425,0.224
42.430,0.212
42.435,0.186
42.440,0.162
42.445,0.143
42.450,0.136
42.455,0.130
42.460,0.129
42.465,0.125
42.470,0.114
42.475,0.107
42.480,0.096
42.485,0.090
42.490,0.088
42.495,0.093
42.500,0.098
42.505,0.095
42.510,0.095
42.515,0.085
42.520,0.073
42.525,0.061
42.530,0.047
42.535,0.068
42.540,0.095
42.545,0.094
42.550,0.091
42.555,0.095
42.560,0.103
42.565,0.121
42.570,0.127
42.575,0.103
42.580,0.082
42.585,0.060
42.590,0.024
42.595,0.004
42.600,-0.004
42.605,-0.013
42.610,-0.011
42.615,-0.020
42.620,-0.038
42.625,-0.044
42.630,-0.048
42.635,-0.045
42.640,-0.043
42.645,-0.049
42.650,-0.035
42.655,-0.024
42.660,-0.034
42.665,-0.036
42.670,-0.039
42.675,-0.039
42.680,-0.041
42.685,-0.058
42.690,-0.060
42.695,-0.048
42.700,-0.040
42.705,-0.038
42.710,-0.019
42.715,0.003
42.720,0.001
42.725,0.001
42.730,0.012
42.735,0.031
42.740,-0.024
42.745,-0.235
42.750,-0.561
42.755,-0.980
42.760,-1.318
42.765,-1.322
42.770,-0.955
42.775,-0.293
42.780,0.406
42.785,0.838
42.790,0.979
42.795,0.951
42.800,0.827
42.805,0.654
42.810,0.485
42.815,0.350
42.820,0.267
42.825,0.220
42.830,0.174
42.835,0.146
42.840,0.123
42.845,0.081
42.850,0.042
42.855,0.018
42.860,0.009
42.865,0.000
42.870,-0.017
42.875,-0.042
42.880,-0.066
42.885,-0.096
42.890,-0.145
42.895,-0.194
42.900,-0.219
42.905,-0.219
42.910,-0.222
42.915,-0.231
42.920,-0.216
42.925,-0.211
42.930,-0.228
42.935,-0.224
42.940,-0.208
42.945,-0.202
42.950,-0.206
42.955,-0.213
42.960,-0.200
42.965,-0.193
42.970,-0.198
42.975,-0.187
42.980,-0.185
42.985,-0.189
42.990,-0.190
42.995,-0.200
43.000,-0.201
43.005,-0.204
43.010,-0.226
43.015,-0.238
43.020,-0.243
43.025,-0.239
43.030,-0.227
43.035,-0.252
43.040,-0.293
43.045,-0.308
43.050,-0.317
43.055,-0.323
43.060,-0.308
43.065,-0.291
43.070,-0.262
43.075,-0.208
43.080,-0.146
43.085,-0.085
43.090,-0.040
43.095,0.000
43.100,0.060
43.105,0.133
43.110,0.185
43.115,0.210
43.120,0.241
43.125,0.287
43.130,0.322
43.135,0.330
43.140,0.318
43.145,0.313
43.150,0.314
43.155,0.306
43.160,0.296
43.165,0.275
43.170,0.256
43.175,0.253
43.180,0.251
43.185,0.275
43.190,0.284
43.195,0.245
43.200,0.223
43.205,0.218
43.210,0.204
43.215,0.183
43.220,0.152
43.225,0.147
43.230,0.157
43.235,0.141
43.240,0.127
43.245,0.129
43.250,0.139
43.255,0.133
43.260,0.112
43.265,0.111
43.270,0.101
43.275,0.082
43.280,0.086
43.285,0.093
43.290,0.092
43.295,0.103
43.300,0.114
43.305,0.110
43.310,0.099
43.315,0.088
43.320,0.084
43.325,0.083
43.330,0.067
43.335,0.054
43.340,0.059
43.345,0.078
43.350,0.093
43.355,0.085
43.360,0.064
43.365,0.052
43.370,0.056
43.375,0.060
43.380,0.052
43.385,0.040
43.390,0.021
43.395,0.003
43.400,-0.017
43.405,-0.035
43.410,-0.050
43.415,-0.057
43.420,-0.050
43.425,-0.053
43.430,-0.056
43.435,-0.055
43.440,-0.073
43.445,-0.089
43.450,-0.081
43.455,-0.078
43.460,-0.081
43.465,-0.070
43.470,-0.068
43.475,-0.062
43.480,-0.052
43.485,-0.052
43.490,-0.036
43.495,-0.020
43.500,-0.011
43.505,-0.015
43.510,-0.037
43.515,-0.054
43.520,-0.061
43.525,-0.060
43.530,-0.057
43.535,-0.055
43.540,-0.042
43.545,-0.036
43.550,-0.056
43.555,-0.067
43.560,-0.056
43.565,-0.038
43.570,-0.061
43.575,-0.199
43.580,-0.466
43.585,-0.836
43.590,-1.223
43.595,-1.379
43.600,-1.167
43.605,-0.612
43.610,0.130
43.615,0.708
43.620,0.938
43.625,0.944
43.630,0.855
43.635,0.710
43.640,0.553
43.645,0.410
43.650,0.302
43.655,0.255
43.660,0.210
43.665,0.182
43.670,0.197
43.675,0.190
43.680,0.155
43.685,0.120
43.690,0.086
43.695,0.041
43.700,-0.001
43.705,-0.036
43.710,-0.057
43.715,-0.055
43.720,-0.085
43.725,-0.151
43.730,-0.198
43.735,-0.210
43.740,-0.191
43.745,-0.179
43.750,-0.182
43.755,-0.173
43.760,-0.162
43.765,-0.161
43.770,-0.159
43.775,-0.159
43.780,-0.165
43.785,-0.163
43.790,-0.170
43.795,-0.179
43.800,-0.182
43.805,-0.196
43.810,-0.204
43.815,-0.207
43.820,-0.211
43.825,-0.211
43.830,-0.208
43.835,-0.202
43.840,-0.200
43.845,-0.200
43.850,-0.191
43.855,-0.196
43.860,-0.222
43.865,-0.241
43.870,-0.265
43.875,-0.296
43.880,-0.317
43.885,-0.335
43.890,-0.339
43.895,-0.320
43.900,-0.283
43.905,-0.233
43.910,-0.178
43.915,-0.124
43.920,-0.067
43.925,-0.007
43.930,0.052
43.935,0.112
43.940,0.159
43.945,0.199
43.950,0.238
43.955,0.267
43.960,0.294
43.965,0.319
43.970,0.328
43.975,0.329
43.980,0.321
43.985,0.316
43.990,0.323
43.995,0.325
44.000,0.323
44.005,0.312
44.010,0.290
44.015,0.262
44.020,0.236
44.025,0.226
44.030,0.228
44.035,0.221
44.040,0.193
44.045,0.165
44.050,0.156
44.055,0.153
44.060,0.141
44.065,0.126
44.070,0.118
44.075,0.110
44.080,0.106
44.085,0.118
44.090,0.124
44.095,0.114
44.100,0.101
44.105,0.090
44.110,0.094
44.115,0.102
44.120,0.096
44.125,0.100
44.130,0.113
44.135,0.116
44.140,0.112
44.145,0.110
44.150,0.108
44.155,0.097
44.160,0.085
44.165,0.085
44.170,0.093
44.175,0.098
44.180,0.099
44.185,0.101
44.190,0.104
44.195,0.096
44.200,0.077
44.205,0.054
44.210,0.034
44.215,0.021
44.220,0.005
44.225,-0.016
44.230,-0.030
44.235,-0.034
44.240,-0.030
44.245,-0.030
44.250,-0.034
44.255,-0.034
44.260,-0.037
44.265,-0.042
44.270,-0.045
44.275,-0.037
44.280,-0.034
44.285,-0.048
44.290,-0.059
44.295,-0.060
44.300,-0.059
44.305,-0.057
44.310,-0.055
44.315,-0.048
44.320,-0.037
44.325,-0.043
44.330,-0.055
44.335,-0.052
44.340,-0.046
44.345,-0.030
44.350,-0.020
44.355,-0.106
44.360,-0.336
44.365,-0.690
44.370,-1.119
44.375,-1.389
44.380,-1.283
44.385,-0.801
44.390,-0.090
44.395,0.532
44.400,0.863
44.405,0.956
44.410,0.919
44.415,0.792
44.420,0.610
44.425,0.451
44.430,0.328
44.435,0.264
44.440,0.239
44.445,0.203
44.450,0.186
44.455,0.163
44.460,0.117
44.465,0.074
44.470,0.044
44.475,0.021
44.480,-0.010
44.485,-0.044
44.490,-0.075
44.495,-0.094
44.500,-0.126
44.505,-0.195
44.510,-0.245
44.515,-0.247
44.520,-0.241
44.525,-0.246
44.530,-0.248
44.535,-0.233
44.540,-0.221
44.545,-0.224
44.550,-0.216
44.555,-0.200
44.560,-0.192
44.565,-0.189
44.570,-0.190
44.575,-0.195
44.580,-0.195
44.585,-0.186
44.590,-0.178
44.595,-0.176
44.600,-0.178
44.605,-0.184
44.610,-0.181
44.615,-0.167
44.620,-0.173
44.625,-0.197
44.630,-0.226
44.635,-0.243
44.640,-0.255
44.645,-0.271
44.650,-0.286
44.655,-0.312
44.660,-0.340
44.665,-0.359
44.670,-0.376
44.675,-0.370
44.680,-0.334
44.685,-0.276
44.690,-0.205
44.695,-0.144
44.700,-0.088
44.705,-0.033
44.710,0.020
44.715,0.085
44.720,0.158
44.725,0.211
44.730,0.236
44.735,0.262
44.740,0.295
44.745,0.327
44.750,0.350
44.755,0.360
44.760,0.365
44.765,0.361
44.770,0.343
44.775,0.331
44.780,0.321
44.785,0.306
44.790,0.289
44.795,0.268
44.800,0.255
44.805,0.243
44.810,0.238
44.815,0.249
44.820,0.244
44.825,0.216
44.830,0.191
44.835,0.175
44.840,0.148
44.845,0.121
44.850,0.106
44.855,0.102
44.860,0.110
44.865,0.114
44.870,0.111
44.875,0.116
44.880,0.127
44.885,0.137
44.890,0.148
44.895,0.151
44.900,0.133
44.905,0.109
44.910,0.093
44.915,0.079
44.920,0.071
44.925,0.062
44.930,0.059
44.935,0.061
44.940,0.053
44.945,0.052
44.950,0.061
44.955,0.058
44.960,0.053
44.965,0.050
44.970,0.043
44.975,0.050
44.980,0.058
44.985,0.042
44.990,0.022
44.995,0.007
45.000,-0.004
45.005,-0.006
45.010,-0.008
45.015,-0.017
45.020,-0.028
45.025,-0.033
45.030,-0.034
45.035,-0.023
45.040,-0.014
45.045,-0.027
45.050,-0.037
45.055,-0.053
45.060,-0.069
45.065,-0.067
45.070,-0.063
45.075,-0.066
45.080,-0.066
45.085,-0.055
45.090,-0.045
45.095,-0.048
45.100,-0.047
45.105,-0.041
45.110,-0.038
45.115,-0.030
45.120,-0.027
45.125,-0.027
45.130,-0.026
45.135,-0.040
