'Elapsed time','ECG'
'seconds','mV'
0.000,0.230
0.005,0.089
0.010,0.078
0.015,0.091
0.020,0.077
0.025,0.055
0.030,0.031
0.035,0.029
0.040,0.011
0.045,-0.016
0.050,-0.020
0.055,-0.024
0.060,-0.036
0.065,-0.042
0.070,-0.049
0.075,-0.058
0.080,-0.059
0.085,-0.054
0.090,-0.046
0.095,-0.032
0.100,-0.012
0.105,0.009
0.110,0.036
0.115,0.065
0.120,0.091
0.125,0.113
0.130,0.139
0.135,0.164
0.140,0.178
0.145,0.185
0.150,0.187
0.155,0.187
0.160,0.188
0.165,0.185
0.170,0.179
0.175,0.173
0.180,0.165
0.185,0.157
0.190,0.149
0.195,0.139
0.200,0.133
0.205,0.129
0.210,0.122
0.215,0.112
0.220,0.102
0.225,0.091
0.230,0.085
0.235,0.083
0.240,0.078
0.245,0.069
0.250,0.063
0.255,0.055
0.260,0.051
0.265,0.048
0.270,0.043
0.275,0.035
0.280,0.027
0.285,0.023
0.290,0.024
0.295,0.025
0.300,0.020
0.305,0.016
0.310,0.016
0.315,0.013
0.320,0.011
0.325,0.012
0.330,0.011
0.335,0.011
0.340,0.012
0.345,0.007
0.350,0.004
0.355,0.004
0.360,0.005
0.365,0.007
0.370,0.008
0.375,0.007
0.380,0.007
0.385,0.008
0.390,0.005
0.395,0.001
0.400,-0.001
0.405,-0.004
0.410,-0.006
0.415,-0.007
0.420,-0.008
0.425,-0.010
0.430,-0.013
0.435,-0.015
0.440,-0.012
0.445,-0.009
0.450,-0.012
0.455,-0.013
0.460,-0.012
0.465,-0.016
0.470,-0.021
0.475,-0.025
0.480,-0.038
0.485,-0.053
0.490,-0.069
0.495,-0.090
0.500,-0.109
0.505,-0.103
0.510,-0.077
0.515,-0.054
0.520,-0.041
0.525,-0.041
0.530,-0.039
0.535,-0.024
0.540,-0.008
0.545,0.009
0.550,0.024
0.555,0.022
0.560,0.021
0.565,0.027
0.570,0.023
0.575,0.015
0.580,0.015
0.585,0.015
0.590,0.012
0.595,0.013
0.600,0.023
0.605,0.052
0.610,0.095
0.615,0.108
0.620,0.025
0.625,-0.154
0.630,-0.403
0.635,-0.749
0.640,-1.083
0.645,-1.179
0.650,-0.999
0.655,-0.615
0.660,-0.153
0.665,0.160
0.670,0.326
0.675,0.411
0.680,0.387
0.685,0.333
0.690,0.279
0.695,0.218
0.700,0.201
0.705,0.201
0.710,0.173
0.715,0.157
0.720,0.161
0.725,0.147
0.730,0.127
0.735,0.124
0.740,0.117
0.745,0.102
0.750,0.100
0.755,0.101
0.760,0.091
0.765,0.079
0.770,0.073
0.775,0.070
0.780,0.068
0.785,0.068
0.790,0.061
0.795,0.049
0.800,0.040
0.805,0.035
0.810,0.030
0.815,0.022
0.820,0.013
0.825,0.003
0.830,-0.006
0.835,-0.014
0.840,-0.025
0.845,-0.038
0.850,-0.053
0.855,-0.069
0.860,-0.079
0.865,-0.086
0.870,-0.096
0.875,-0.106
0.880,-0.119
0.885,-0.129
0.890,-0.135
0.895,-0.140
0.900,-0.144
0.905,-0.145
0.910,-0.140
0.915,-0.129
0.920,-0.114
0.925,-0.094
0.930,-0.069
0.935,-0.039
0.940,-0.009
0.945,0.020
0.950,0.051
0.955,0.078
0.960,0.099
0.965,0.112
0.970,0.123
0.975,0.130
0.980,0.134
0.985,0.137
0.990,0.136
0.995,0.132
1.000,0.124
1.005,0.118
1.010,0.114
1.015,0.111
1.020,0.103
1.025,0.097
1.030,0.091
1.035,0.085
1.040,0.081
1.045,0.075
1.050,0.067
1.055,0.058
1.060,0.050
1.065,0.044
1.070,0.045
1.075,0.046
1.080,0.037
1.085,0.029
1.090,0.023
1.095,0.021
1.100,0.018
1.105,0.014
1.110,0.014
1.115,0.016
1.120,0.013
1.125,0.006
1.130,0.003
1.135,0.003
1.140,-0.001
1.145,-0.001
1.150,0.002
1.155,0.003
1.160,0.004
1.165,0.005
1.170,0.006
1.175,0.007
1.180,0.008
1.185,0.008
1.190,0.006
1.195,0.002
1.200,-0.001
1.205,0.000
1.210,-0.002
1.215,-0.006
1.220,-0.002
1.225,0.002
1.230,0.004
1.235,0.001
1.240,-0.003
1.245,-0.004
1.250,-0.006
1.255,-0.010
1.260,-0.012
1.265,-0.013
1.270,-0.011
1.275,-0.008
1.280,-0.005
1.285,-0.002
1.290,-0.003
1.295,-0.007
1.300,-0.015
1.305,-0.030
1.310,-0.046
1.315,-0.060
1.320,-0.079
1.325,-0.101
1.330,-0.098
1.335,-0.070
1.340,-0.048
1.345,-0.038
1.350,-0.033
1.355,-0.028
1.360,-0.016
1.365,-0.007
1.370,0.004
1.375,0.024
1.380,0.036
1.385,0.032
1.390,0.029
1.395,0.032
1.400,0.028
1.405,0.022
1.410,0.018
1.415,0.015
1.420,0.016
1.425,0.027
1.430,0.046
1.435,0.083
1.440,0.121
1.445,0.081
1.450,-0.070
1.455,-0.301
1.460,-0.622
1.465,-0.992
1.470,-1.186
1.475,-1.086
1.480,-0.763
1.485,-0.305
1.490,0.069
1.495,0.280
1.500,0.398
1.505,0.410
1.510,0.368
1.515,0.317
1.520,0.246
1.525,0.204
1.530,0.205
1.535,0.190
1.540,0.160
1.545,0.155
1.550,0.152
1.555,0.139
1.560,0.132
1.565,0.130
1.570,0.119
1.575,0.108
1.580,0.105
1.585,0.098
1.590,0.084
1.595,0.078
1.600,0.075
1.605,0.069
1.610,0.064
1.615,0.059
1.620,0.049
1.625,0.043
1.630,0.041
1.635,0.036
1.640,0.028
1.645,0.015
1.650,0.005
1.655,0.001
1.660,-0.009
1.665,-0.017
1.670,-0.026
1.675,-0.040
1.680,-0.052
1.685,-0.069
1.690,-0.083
1.695,-0.091
1.700,-0.103
1.705,-0.110
1.710,-0.115
1.715,-0.121
1.720,-0.125
1.725,-0.130
1.730,-0.133
1.735,-0.132
1.740,-0.125
1.745,-0.115
1.750,-0.096
1.755,-0.068
1.760,-0.042
1.765,-0.018
1.770,0.002
1.775,0.025
1.780,0.058
1.785,0.087
1.790,0.107
1.795,0.120
1.800,0.128
1.805,0.134
1.810,0.132
1.815,0.123
1.820,0.120
1.825,0.123
1.830,0.122
1.835,0.116
1.840,0.108
1.845,0.102
1.850,0.098
1.855,0.092
1.860,0.084
1.865,0.075
1.870,0.066
1.875,0.060
1.880,0.053
1.885,0.044
1.890,0.038
1.895,0.036
1.900,0.036
1.905,0.033
1.910,0.032
1.915,0.027
1.920,0.020
1.925,0.016
1.930,0.013
1.935,0.009
1.940,0.007
1.945,0.008
1.950,0.009
1.955,0.010
1.960,0.006
1.965,0.002
1.970,0.002
1.975,0.005
1.980,0.006
1.985,0.005
1.990,0.004
1.995,0.011
2.000,0.017
2.005,0.011
2.010,0.006
2.015,0.006
2.020,0.006
2.025,0.008
2.030,0.009
2.035,0.008
2.040,0.005
2.045,0.001
2.050,0.001
2.055,0.002
2.060,0.002
2.065,0.000
2.070,-0.003
2.075,-0.007
2.080,-0.009
2.085,-0.007
2.090,-0.005
2.095,-0.003
2.100,-0.003
2.105,-0.008
2.110,-0.016
2.115,-0.029
2.120,-0.038
2.125,-0.047
2.130,-0.069
2.135,-0.094
2.140,-0.095
2.145,-0.072
2.150,-0.051
2.155,-0.039
2.160,-0.035
2.165,-0.028
2.170,-0.013
2.175,-0.004
2.180,0.006
2.185,0.023
2.190,0.034
2.195,0.033
2.200,0.027
2.205,0.025
2.210,0.023
2.215,0.021
2.220,0.019
2.225,0.018
2.230,0.021
2.235,0.027
2.240,0.050
2.245,0.101
2.250,0.140
2.255,0.087
2.260,-0.086
2.265,-0.337
2.270,-0.671
2.275,-1.041
2.280,-1.218
2.285,-1.096
2.290,-0.753
2.295,-0.286
2.300,0.082
2.305,0.289
2.310,0.406
2.315,0.415
2.320,0.370
2.325,0.315
2.330,0.245
2.335,0.210
2.340,0.211
2.345,0.192
2.350,0.162
2.355,0.155
2.360,0.153
2.365,0.142
2.370,0.138
2.375,0.135
2.380,0.120
2.385,0.106
2.390,0.104
2.395,0.103
2.400,0.093
2.405,0.082
2.410,0.077
2.415,0.073
2.420,0.071
2.425,0.064
2.430,0.055
2.435,0.051
2.440,0.046
2.445,0.037
2.450,0.029
2.455,0.024
2.460,0.014
2.465,0.000
2.470,-0.012
2.475,-0.021
2.480,-0.026
2.485,-0.034
2.490,-0.049
2.495,-0.072
2.500,-0.091
2.505,-0.098
2.510,-0.105
2.515,-0.115
2.520,-0.120
2.525,-0.122
2.530,-0.124
2.535,-0.128
2.540,-0.131
2.545,-0.128
2.550,-0.121
2.555,-0.109
2.560,-0.091
2.565,-0.066
2.570,-0.039
2.575,-0.013
2.580,0.015
2.585,0.049
2.590,0.080
2.595,0.100
2.600,0.113
2.605,0.125
2.610,0.132
2.615,0.131
2.620,0.128
2.625,0.128
2.630,0.127
2.635,0.122
2.640,0.115
2.645,0.112
2.650,0.110
2.655,0.105
2.660,0.098
2.665,0.088
2.670,0.080
2.675,0.077
2.680,0.072
2.685,0.064
2.690,0.057
2.695,0.054
2.700,0.049
2.705,0.040
2.710,0.033
2.715,0.032
2.720,0.029
2.725,0.024
2.730,0.018
2.735,0.012
2.740,0.010
2.745,0.004
2.750,-0.001
2.755,0.001
2.760,0.006
2.765,0.009
2.770,0.006
2.775,0.003
2.780,0.003
2.785,0.005
2.790,0.005
2.795,0.006
2.800,0.007
2.805,0.004
2.810,0.004
2.815,0.005
2.820,0.006
2.825,0.006
2.830,0.006
2.835,0.006
2.840,0.006
2.845,0.004
2.850,0.001
2.855,-0.003
2.860,-0.004
2.865,-0.002
2.870,0.001
2.875,0.000
2.880,-0.002
2.885,-0.004
2.890,-0.003
2.895,-0.004
2.900,-0.009
2.905,-0.010
2.910,-0.005
2.915,-0.001
2.920,-0.010
2.925,-0.020
2.930,-0.024
2.935,-0.034
2.940,-0.046
2.945,-0.062
2.950,-0.088
2.955,-0.105
2.960,-0.092
2.965,-0.065
2.970,-0.044
2.975,-0.035
2.980,-0.037
2.985,-0.030
2.990,-0.013
2.995,0.000
3.000,0.016
3.005,0.029
3.010,0.028
3.015,0.028
3.020,0.030
3.025,0.026
3.030,0.019
3.035,0.015
3.040,0.012
3.045,0.017
3.050,0.025
3.055,0.035
3.060,0.066
3.065,0.110
3.070,0.113
3.075,0.009
3.080,-0.187
3.085,-0.451
3.090,-0.814
3.095,-1.129
3.100,-1.183
3.105,-0.967
3.110,-0.547
3.115,-0.098
3.120,0.186
3.125,0.348
3.130,0.421
3.135,0.393
3.140,0.339
3.145,0.275
3.150,0.219
3.155,0.210
3.160,0.207
3.165,0.174
3.170,0.160
3.175,0.167
3.180,0.150
3.185,0.130
3.190,0.130
3.195,0.127
3.200,0.115
3.205,0.109
3.210,0.103
3.215,0.092
3.220,0.088
3.225,0.088
3.230,0.082
3.235,0.074
3.240,0.066
3.245,0.053
3.250,0.046
3.255,0.044
3.260,0.038
3.265,0.032
3.270,0.027
3.275,0.020
3.280,0.007
3.285,-0.008
3.290,-0.018
3.295,-0.024
3.300,-0.033
3.305,-0.047
3.310,-0.062
3.315,-0.077
3.320,-0.088
3.325,-0.100
3.330,-0.112
3.335,-0.121
3.340,-0.128
3.345,-0.132
3.350,-0.131
3.355,-0.132
3.360,-0.132
3.365,-0.130
3.370,-0.128
3.375,-0.113
3.380,-0.083
3.385,-0.056
3.390,-0.030
3.395,0.000
3.400,0.029
3.405,0.060
3.410,0.085
3.415,0.101
3.420,0.118
3.425,0.132
3.430,0.139
3.435,0.140
3.440,0.135
3.445,0.133
3.450,0.134
3.455,0.128
3.460,0.119
3.465,0.112
3.470,0.109
3.475,0.105
3.480,0.094
3.485,0.087
3.490,0.087
3.495,0.083
3.500,0.072
3.505,0.060
3.510,0.054
3.515,0.052
3.520,0.051
3.525,0.047
3.530,0.041
3.535,0.036
3.540,0.032
3.545,0.026
3.550,0.023
3.555,0.019
3.560,0.013
3.565,0.009
3.570,0.007
3.575,0.005
3.580,0.002
3.585,0.001
3.590,0.003
3.595,0.003
3.600,0.000
3.605,0.000
3.610,0.003
3.615,0.006
3.620,0.004
3.625,-0.002
3.630,-0.001
3.635,0.004
3.640,0.005
3.645,0.007
3.650,0.007
3.655,0.003
3.660,0.001
3.665,0.002
3.670,0.001
3.675,0.001
3.680,-0.002
3.685,-0.007
3.690,-0.007
3.695,-0.005
3.700,-0.008
3.705,-0.007
3.710,-0.006
3.715,-0.010
3.720,-0.009
3.725,-0.008
3.730,-0.008
3.735,-0.011
3.740,-0.017
3.745,-0.016
3.750,-0.019
3.755,-0.033
3.760,-0.049
3.765,-0.063
3.770,-0.082
3.775,-0.103
3.780,-0.095
3.785,-0.063
3.790,-0.041
3.795,-0.036
3.800,-0.037
3.805,-0.029
3.810,-0.012
3.815,-0.002
3.820,0.010
3.825,0.025
3.830,0.029
3.835,0.026
3.840,0.025
3.845,0.024
3.850,0.021
3.855,0.017
3.860,0.013
3.865,0.011
3.870,0.013
3.875,0.028
3.880,0.058
3.885,0.101
3.890,0.118
3.895,0.033
3.900,-0.146
3.905,-0.394
3.910,-0.742
3.915,-1.080
3.920,-1.180
3.925,-1.003
3.930,-0.616
3.935,-0.156
3.940,0.155
3.945,0.324
3.950,0.417
3.955,0.400
3.960,0.346
3.965,0.289
3.970,0.226
3.975,0.203
3.980,0.203
3.985,0.179
3.990,0.158
3.995,0.158
4.000,0.146
4.005,0.132
4.010,0.132
4.015,0.126
4.020,0.111
4.025,0.109
4.030,0.106
4.035,0.092
4.040,0.086
4.045,0.087
4.050,0.079
4.055,0.068
4.060,0.062
4.065,0.054
4.070,0.050
4.075,0.051
4.080,0.046
4.085,0.036
4.090,0.026
4.095,0.018
4.100,0.010
4.105,-0.002
4.110,-0.013
4.115,-0.022
4.120,-0.032
4.125,-0.045
4.130,-0.060
4.135,-0.076
4.140,-0.090
4.145,-0.101
4.150,-0.111
4.155,-0.120
4.160,-0.126
4.165,-0.132
4.170,-0.138
4.175,-0.140
4.180,-0.138
4.185,-0.130
4.190,-0.120
4.195,-0.112
4.200,-0.096
4.205,-0.073
4.210,-0.041
4.215,-0.007
4.220,0.026
4.225,0.055
4.230,0.077
4.235,0.100
4.240,0.117
4.245,0.129
4.250,0.138
4.255,0.139
4.260,0.138
4.265,0.141
4.270,0.140
4.275,0.133
4.280,0.124
4.285,0.115
4.290,0.107
4.295,0.102
4.300,0.095
4.305,0.089
4.310,0.085
4.315,0.081
4.320,0.079
4.325,0.077
4.330,0.065
4.335,0.052
4.340,0.047
4.345,0.044
4.350,0.038
4.355,0.033
4.360,0.034
4.365,0.037
4.370,0.030
4.375,0.019
4.380,0.015
4.385,0.016
4.390,0.012
4.395,0.008
4.400,0.006
4.405,0.006
4.410,0.006
4.415,0.001
4.420,0.000
4.425,0.003
4.430,0.004
4.435,0.002
4.440,0.001
4.445,0.001
4.450,0.002
4.455,0.003
4.460,0.002
4.465,0.002
4.470,0.003
4.475,-0.001
4.480,-0.003
4.485,0.001
4.490,0.004
4.495,0.004
4.500,0.001
4.505,0.001
4.510,0.000
4.515,-0.001
4.520,-0.002
4.525,-0.007
4.530,-0.015
4.535,-0.017
4.540,-0.012
4.545,-0.003
4.550,0.001
4.555,-0.004
4.560,-0.011
4.565,-0.019
4.570,-0.035
4.575,-0.044
4.580,-0.054
4.585,-0.078
4.590,-0.100
4.595,-0.094
4.600,-0.068
4.605,-0.050
4.610,-0.043
4.615,-0.040
4.620,-0.032
4.625,-0.020
4.630,-0.013
4.635,-0.024
4.640,-0.040
4.645,-0.001
4.650,0.056
4.655,0.070
4.660,0.060
4.665,0.036
4.670,0.029
4.675,0.032
4.680,0.015
4.685,0.018
4.690,0.041
4.695,0.059
4.700,0.100
4.705,0.141
4.710,0.086
4.715,-0.089
4.720,-0.343
4.725,-0.688
4.730,-1.058
4.735,-1.220
4.740,-1.075
4.745,-0.709
4.750,-0.245
4.755,0.104
4.760,0.301
4.765,0.411
4.770,0.417
4.775,0.368
4.780,0.306
4.785,0.240
4.790,0.210
4.795,0.206
4.800,0.184
4.805,0.158
4.810,0.157
4.815,0.149
4.820,0.128
4.825,0.121
4.830,0.119
4.835,0.111
4.840,0.104
4.845,0.101
4.850,0.095
4.855,0.088
4.860,0.085
4.865,0.082
4.870,0.075
4.875,0.066
4.880,0.058
4.885,0.053
4.890,0.047
4.895,0.037
4.900,0.029
4.905,0.028
4.910,0.026
4.915,0.013
4.920,-0.001
4.925,-0.006
4.930,-0.010
4.935,-0.025
4.940,-0.044
4.945,-0.053
4.950,-0.062
4.955,-0.079
4.960,-0.096
4.965,-0.106
4.970,-0.112
4.975,-0.115
4.980,-0.118
4.985,-0.122
4.990,-0.121
4.995,-0.121
5.000,-0.125
5.005,-0.123
5.010,-0.110
5.015,-0.092
5.020,-0.068
5.025,-0.038
5.030,-0.009
5.035,0.017
5.040,0.042
5.045,0.067
5.050,0.090
5.055,0.110
5.060,0.123
5.065,0.128
5.070,0.130
5.075,0.130
5.080,0.126
5.085,0.120
5.090,0.117
5.095,0.116
5.100,0.114
5.105,0.109
5.110,0.101
5.115,0.092
5.120,0.085
5.125,0.079
5.130,0.074
5.135,0.071
5.140,0.067
5.145,0.059
5.150,0.054
5.155,0.049
5.160,0.038
5.165,0.024
5.170,0.017
5.175,0.014
5.180,0.014
5.185,0.014
5.190,0.013
5.195,0.012
5.200,0.012
5.205,0.010
5.210,0.006
5.215,0.007
5.220,0.009
5.225,0.011
5.230,0.012
5.235,0.006
5.240,0.006
5.245,0.010
5.250,0.011
5.255,0.010
5.260,0.012
5.265,0.014
5.270,0.010
5.275,0.008
5.280,0.014
5.285,0.011
5.290,0.003
5.295,0.000
5.300,0.002
5.305,0.006
5.310,0.005
5.315,0.003
5.320,0.005
5.325,0.001
5.330,-0.005
5.335,-0.005
5.340,-0.001
5.345,0.002
5.350,-0.001
5.355,-0.008
5.360,-0.007
5.365,-0.005
5.370,-0.009
5.375,-0.015
5.380,-0.028
5.385,-0.040
5.390,-0.048
5.395,-0.061
5.400,-0.083
5.405,-0.091
5.410,-0.075
5.415,-0.055
5.420,-0.040
5.425,-0.033
5.430,-0.033
5.435,-0.020
5.440,-0.003
5.445,0.007
5.450,0.017
5.455,0.018
5.460,0.015
5.465,0.020
5.470,0.020
5.475,0.015
5.480,0.020
5.485,0.026
5.490,0.023
5.495,0.023
5.500,0.027
5.505,0.041
5.510,0.079
5.515,0.124
5.520,0.110
5.525,-0.015
5.530,-0.234
5.535,-0.536
5.540,-0.916
5.545,-1.186
5.550,-1.169
5.555,-0.895
5.560,-0.441
5.565,-0.016
5.570,0.236
5.575,0.380
5.580,0.426
5.585,0.389
5.590,0.330
5.595,0.259
5.600,0.211
5.605,0.210
5.610,0.200
5.615,0.168
5.620,0.161
5.625,0.164
5.630,0.144
5.635,0.131
5.640,0.128
5.645,0.116
5.650,0.103
5.655,0.104
5.660,0.103
5.665,0.089
5.670,0.081
5.675,0.081
5.680,0.078
5.685,0.075
5.690,0.069
5.695,0.058
5.700,0.047
5.705,0.041
5.710,0.034
5.715,0.024
5.720,0.015
5.725,0.011
5.730,0.005
5.735,-0.007
5.740,-0.014
5.745,-0.023
5.750,-0.038
5.755,-0.052
5.760,-0.068
5.765,-0.080
5.770,-0.092
5.775,-0.110
5.780,-0.120
5.785,-0.124
5.790,-0.129
5.795,-0.133
5.800,-0.135
5.805,-0.134
5.810,-0.130
5.815,-0.126
5.820,-0.121
5.825,-0.105
5.830,-0.082
5.835,-0.053
5.840,-0.020
5.845,0.011
5.850,0.041
5.855,0.064
5.860,0.086
5.865,0.111
5.870,0.128
5.875,0.129
5.880,0.128
5.885,0.134
5.890,0.139
5.895,0.137
5.900,0.130
5.905,0.121
5.910,0.116
5.915,0.112
5.920,0.103
5.925,0.092
5.930,0.083
5.935,0.079
5.940,0.080
5.945,0.077
5.950,0.070
5.955,0.064
5.960,0.056
5.965,0.048
5.970,0.043
5.975,0.038
5.980,0.035
5.985,0.032
5.990,0.028
5.995,0.026
6.000,0.019
6.005,0.012
6.010,0.011
6.015,0.009
6.020,0.003
6.025,-0.004
6.030,-0.009
6.035,-0.004
6.040,0.003
6.045,0.008
6.050,0.009
6.055,0.004
6.060,0.002
6.065,0.001
6.070,0.002
6.075,0.003
6.080,0.001
6.085,0.002
6.090,0.007
6.095,0.008
6.100,0.007
6.105,0.004
6.110,0.000
6.115,-0.003
6.120,-0.005
6.125,-0.006
6.130,-0.005
6.135,-0.006
6.140,-0.009
6.145,-0.006
6.150,-0.003
6.155,-0.001
6.160,-0.004
6.165,-0.010
6.170,-0.012
6.175,-0.009
6.180,-0.007
6.185,-0.008
6.190,-0.014
6.195,-0.021
6.200,-0.021
6.205,-0.026
6.210,-0.041
6.215,-0.051
6.220,-0.067
6.225,-0.090
6.230,-0.104
6.235,-0.090
6.240,-0.066
6.245,-0.049
6.250,-0.036
6.255,-0.030
6.260,-0.018
6.265,-0.010
6.270,-0.005
6.275,0.016
6.280,0.027
6.285,0.026
6.290,0.026
6.295,0.026
6.300,0.027
6.305,0.027
6.310,0.020
6.315,0.017
6.320,0.015
6.325,0.020
6.330,0.042
6.335,0.080
6.340,0.117
6.345,0.098
6.350,-0.027
6.355,-0.234
6.360,-0.519
6.365,-0.896
6.370,-1.161
6.375,-1.141
6.380,-0.880
6.385,-0.440
6.390,-0.018
6.395,0.234
6.400,0.381
6.405,0.423
6.410,0.379
6.415,0.325
6.420,0.259
6.425,0.211
6.430,0.210
6.435,0.203
6.440,0.170
6.445,0.159
6.450,0.161
6.455,0.148
6.460,0.136
6.465,0.132
6.470,0.120
6.475,0.107
6.480,0.106
6.485,0.100
6.490,0.089
6.495,0.089
6.500,0.088
6.505,0.078
6.510,0.069
6.515,0.066
6.520,0.061
6.525,0.054
6.530,0.046
6.535,0.035
6.540,0.028
6.545,0.026
6.550,0.019
6.555,0.008
6.560,0.001
6.565,-0.011
6.570,-0.027
6.575,-0.040
6.580,-0.054
6.585,-0.065
6.590,-0.076
6.595,-0.094
6.600,-0.111
6.605,-0.121
6.610,-0.123
6.615,-0.125
6.620,-0.132
6.625,-0.135
6.630,-0.134
6.635,-0.136
6.640,-0.134
6.645,-0.124
6.650,-0.105
6.655,-0.080
6.660,-0.050
6.665,-0.020
6.670,0.011
6.675,0.039
6.680,0.064
6.685,0.092
6.690,0.113
6.695,0.123
6.700,0.128
6.705,0.134
6.710,0.140
6.715,0.141
6.720,0.137
6.725,0.125
6.730,0.113
6.735,0.112
6.740,0.114
6.745,0.112
6.750,0.107
6.755,0.099
6.760,0.091
6.765,0.084
6.770,0.077
6.775,0.071
6.780,0.069
6.785,0.063
6.790,0.054
6.795,0.050
6.800,0.044
6.805,0.035
6.810,0.032
6.815,0.032
6.820,0.028
6.825,0.021
6.830,0.015
6.835,0.012
6.840,0.011
6.845,0.008
6.850,0.006
6.855,0.002
6.860,-0.004
6.865,0.000
6.870,0.006
6.875,0.003
6.880,-0.003
6.885,-0.004
6.890,0.002
6.895,0.007
6.900,0.002
6.905,-0.005
6.910,-0.001
6.915,0.007
6.920,0.004
6.925,-0.004
6.930,-0.005
6.935,0.000
6.940,0.006
6.945,0.004
6.950,-0.002
6.955,-0.003
6.960,-0.002
6.965,-0.002
6.970,-0.001
6.975,-0.003
6.980,-0.007
6.985,-0.007
6.990,-0.002
6.995,-0.005
7.000,-0.015
7.005,-0.017
7.010,-0.012
7.015,-0.005
7.020,0.001
7.025,-0.002
7.030,-0.009
7.035,-0.017
7.040,-0.030
7.045,-0.049
7.050,-0.064
7.055,-0.082
7.060,-0.104
7.065,-0.098
7.070,-0.075
7.075,-0.057
7.080,-0.043
7.085,-0.043
7.090,-0.038
7.095,-0.016
7.100,0.000
7.105,0.014
7.110,0.029
7.115,0.036
7.120,0.037
7.125,0.038
7.130,0.037
7.135,0.030
7.140,0.021
7.145,0.015
7.150,0.011
7.155,0.014
7.160,0.028
7.165,0.056
7.170,0.102
7.175,0.130
7.180,0.064
7.185,-0.108
7.190,-0.361
7.195,-0.717
7.200,-1.080
7.205,-1.209
7.210,-1.044
7.215,-0.668
7.220,-0.200
7.225,0.135
7.230,0.319
7.235,0.427
7.240,0.425
7.245,0.371
7.250,0.304
7.255,0.233
7.260,0.208
7.265,0.211
7.270,0.184
7.275,0.158
7.280,0.162
7.285,0.157
7.290,0.136
7.295,0.128
7.300,0.121
7.305,0.108
7.310,0.104
7.315,0.104
7.320,0.098
7.325,0.096
7.330,0.095
7.335,0.083
7.340,0.071
7.345,0.068
7.350,0.062
7.355,0.050
7.360,0.043
7.365,0.039
7.370,0.032
7.375,0.025
7.380,0.016
7.385,0.009
7.390,0.001
7.395,-0.012
7.400,-0.024
7.405,-0.036
7.410,-0.049
7.415,-0.059
7.420,-0.071
7.425,-0.083
7.430,-0.095
7.435,-0.104
7.440,-0.115
7.445,-0.128
7.450,-0.133
7.455,-0.126
7.460,-0.122
7.465,-0.126
7.470,-0.131
7.475,-0.126
7.480,-0.112
7.485,-0.095
7.490,-0.072
7.495,-0.047
7.500,-0.019
7.505,0.012
7.510,0.048
7.515,0.083
7.520,0.103
7.525,0.113
7.530,0.118
7.535,0.124
7.540,0.132
7.545,0.137
7.550,0.140
7.555,0.135
7.560,0.125
7.565,0.119
7.570,0.113
7.575,0.107
7.580,0.104
7.585,0.100
7.590,0.092
7.595,0.083
7.600,0.078
7.605,0.077
7.610,0.072
7.615,0.060
7.620,0.053
7.625,0.046
7.630,0.037
7.635,0.034
7.640,0.030
7.645,0.028
7.650,0.026
7.655,0.020
7.660,0.017
7.665,0.015
7.670,0.010
7.675,0.007
7.680,0.008
7.685,0.006
7.690,0.005
7.695,0.006
7.700,0.003
7.705,0.004
7.710,0.006
7.715,0.006
7.720,0.007
7.725,0.007
7.730,0.008
7.735,0.010
7.740,0.007
7.745,0.002
7.750,0.005
7.755,0.008
7.760,0.004
7.765,0.005
7.770,0.005
7.775,0.002
7.780,0.000
7.785,-0.004
7.790,-0.003
7.795,0.001
7.800,-0.003
7.805,-0.008
7.810,-0.008
7.815,-0.007
7.820,-0.009
7.825,-0.013
7.830,-0.011
7.835,-0.002
7.840,0.003
7.845,-0.001
7.850,-0.010
7.855,-0.020
7.860,-0.032
7.865,-0.049
7.870,-0.065
7.875,-0.081
7.880,-0.091
7.885,-0.086
7.890,-0.073
7.895,-0.057
7.900,-0.041
7.905,-0.031
7.910,-0.024
7.915,-0.018
7.920,-0.008
7.925,0.008
7.930,0.022
7.935,0.029
7.940,0.026
7.945,0.023
7.950,0.019
7.955,0.018
7.960,0.021
7.965,0.018
7.970,0.012
7.975,0.015
7.980,0.028
7.985,0.061
7.990,0.113
7.995,0.128
8.000,0.034
8.005,-0.163
8.010,-0.438
8.015,-0.808
8.020,-1.143
8.025,-1.212
8.030,-0.993
8.035,-0.579
8.040,-0.129
8.045,0.170
8.050,0.342
8.055,0.422
8.060,0.403
8.065,0.354
8.070,0.291
8.075,0.225
8.080,0.201
8.085,0.200
8.090,0.180
8.095,0.165
8.100,0.167
8.105,0.154
8.110,0.135
8.115,0.129
8.120,0.120
8.125,0.104
8.130,0.099
8.135,0.103
8.140,0.099
8.145,0.096
8.150,0.094
8.155,0.082
8.160,0.073
8.165,0.071
8.170,0.066
8.175,0.055
8.180,0.042
8.185,0.034
8.190,0.032
8.195,0.027
8.200,0.017
8.205,0.008
8.210,-0.001
8.215,-0.013
8.220,-0.022
8.225,-0.030
8.230,-0.044
8.235,-0.064
8.240,-0.077
8.245,-0.081
8.250,-0.089
8.255,-0.100
8.260,-0.105
8.265,-0.108
8.270,-0.116
8.275,-0.126
8.280,-0.133
8.285,-0.135
8.290,-0.130
8.295,-0.124
8.300,-0.106
8.305,-0.073
8.310,-0.044
8.315,-0.022
8.320,0.002
8.325,0.027
8.330,0.056
8.335,0.087
8.340,0.108
8.345,0.122
8.350,0.132
8.355,0.134
8.360,0.133
8.365,0.134
8.370,0.130
8.375,0.125
8.380,0.124
8.385,0.117
8.390,0.107
8.395,0.108
8.400,0.112
8.405,0.105
8.410,0.089
8.415,0.075
8.420,0.070
8.425,0.068
8.430,0.062
8.435,0.055
8.440,0.048
8.445,0.040
8.450,0.033
8.455,0.030
8.460,0.027
8.465,0.023
8.470,0.021
8.475,0.019
8.480,0.016
8.485,0.014
8.490,0.009
8.495,0.005
8.500,0.006
8.505,0.010
8.510,0.012
8.515,0.011
8.520,0.008
8.525,0.009
8.530,0.013
8.535,0.010
8.540,0.007
8.545,0.008
8.550,0.006
8.555,0.005
8.560,0.007
8.565,0.006
8.570,0.003
8.575,0.004
8.580,0.004
8.585,0.004
8.590,0.003
8.595,0.001
8.600,-0.001
8.605,0.001
8.610,0.003
8.615,0.002
8.620,0.000
8.625,-0.005
8.630,-0.010
8.635,-0.012
8.640,-0.012
8.645,-0.010
8.650,-0.008
8.655,-0.005
8.660,-0.004
8.665,-0.009
8.670,-0.013
8.675,-0.019
8.680,-0.030
8.685,-0.043
8.690,-0.062
8.695,-0.089
8.700,-0.106
8.705,-0.094
8.710,-0.068
8.715,-0.052
8.720,-0.043
8.725,-0.032
8.730,-0.022
8.735,-0.012
8.740,-0.004
8.745,0.010
8.750,0.022
8.755,0.023
8.760,0.023
8.765,0.026
8.770,0.026
8.775,0.021
8.780,0.018
8.785,0.012
8.790,0.006
8.795,0.016
8.800,0.036
8.805,0.062
8.810,0.104
8.815,0.114
8.820,0.016
8.825,-0.175
8.830,-0.441
8.835,-0.804
8.840,-1.130
8.845,-1.203
8.850,-0.993
8.855,-0.572
8.860,-0.111
8.865,0.181
8.870,0.338
8.875,0.413
8.880,0.391
8.885,0.341
8.890,0.277
8.895,0.212
8.900,0.199
8.905,0.202
8.910,0.177
8.915,0.166
8.920,0.170
8.925,0.151
8.930,0.130
8.935,0.126
8.940,0.115
8.945,0.107
8.950,0.109
8.955,0.107
8.960,0.098
8.965,0.091
8.970,0.089
8.975,0.084
8.980,0.070
8.985,0.060
8.990,0.056
8.995,0.048
9.000,0.041
9.005,0.032
9.010,0.024
9.015,0.018
9.020,0.015
9.025,0.011
9.030,0.003
9.035,-0.007
9.040,-0.022
9.045,-0.037
9.050,-0.050
9.055,-0.068
9.060,-0.083
9.065,-0.091
9.070,-0.099
9.075,-0.111
9.080,-0.122
9.085,-0.128
9.090,-0.130
9.095,-0.134
9.100,-0.137
9.105,-0.136
9.110,-0.134
9.115,-0.122
9.120,-0.103
9.125,-0.083
9.130,-0.060
9.135,-0.034
9.140,0.000
9.145,0.034
9.150,0.059
9.155,0.080
9.160,0.101
9.165,0.117
9.170,0.130
9.175,0.137
9.180,0.134
9.185,0.131
9.190,0.131
9.195,0.128
9.200,0.124
9.205,0.124
9.210,0.124
9.215,0.116
9.220,0.105
9.225,0.096
9.230,0.092
9.235,0.087
9.240,0.077
9.245,0.071
9.250,0.067
9.255,0.059
9.260,0.051
9.265,0.046
9.270,0.045
9.275,0.045
9.280,0.037
9.285,0.028
9.290,0.023
9.295,0.020
9.300,0.019
9.305,0.018
9.310,0.012
9.315,0.004
9.320,0.005
9.325,0.009
9.330,0.009
9.335,0.007
9.340,0.000
9.345,-0.001
9.350,0.004
9.355,0.002
9.360,0.000
9.365,0.001
9.370,-0.001
9.375,0.005
9.380,0.010
9.385,0.007
9.390,0.007
9.395,0.009
9.400,0.009
9.405,0.004
9.410,-0.008
9.415,-0.008
9.420,0.003
9.425,0.010
9.430,0.010
9.435,0.006
9.440,0.003
9.445,0.002
9.450,-0.002
9.455,-0.008
9.460,-0.011
9.465,-0.010
9.470,-0.008
9.475,-0.006
9.480,-0.005
9.485,-0.007
9.490,-0.012
9.495,-0.014
9.500,-0.025
9.505,-0.040
9.510,-0.050
9.515,-0.063
9.520,-0.085
9.525,-0.100
9.530,-0.087
9.535,-0.061
9.540,-0.047
9.545,-0.039
9.550,-0.035
9.555,-0.027
9.560,-0.012
9.565,0.001
9.570,0.019
9.575,0.034
9.580,0.031
9.585,0.026
9.590,0.028
9.595,0.025
9.600,0.021
9.605,0.019
9.610,0.013
9.615,0.013
9.620,0.022
9.625,0.037
9.630,0.066
9.635,0.111
9.640,0.116
9.645,0.016
9.650,-0.174
9.655,-0.433
9.660,-0.789
9.665,-1.112
9.670,-1.185
9.675,-0.984
9.680,-0.576
9.685,-0.121
9.690,0.177
9.695,0.347
9.700,0.424
9.705,0.391
9.710,0.331
9.715,0.270
9.720,0.215
9.725,0.207
9.730,0.203
9.735,0.173
9.740,0.157
9.745,0.156
9.750,0.136
9.755,0.125
9.760,0.133
9.765,0.127
9.770,0.110
9.775,0.103
9.780,0.099
9.785,0.089
9.790,0.078
9.795,0.078
9.800,0.074
9.805,0.065
9.810,0.063
9.815,0.063
9.820,0.059
9.825,0.053
9.830,0.041
9.835,0.030
9.840,0.026
9.845,0.017
9.850,0.003
9.855,-0.009
9.860,-0.019
9.865,-0.030
9.870,-0.043
9.875,-0.055
9.880,-0.064
9.885,-0.079
9.890,-0.096
9.895,-0.105
9.900,-0.112
9.905,-0.119
9.910,-0.125
9.915,-0.130
9.920,-0.132
9.925,-0.135
9.930,-0.137
9.935,-0.134
9.940,-0.130
9.945,-0.119
9.950,-0.095
9.955,-0.064
9.960,-0.034
9.965,-0.004
9.970,0.029
9.975,0.059
9.980,0.084
9.985,0.105
9.990,0.119
9.995,0.129
10.000,0.137
10.005,0.140
10.010,0.141
10.015,0.140
10.020,0.135
10.025,0.128
10.030,0.118
10.035,0.114
10.040,0.124
10.045,0.123
10.050,0.105
10.055,0.090
10.060,0.078
10.065,0.077
10.070,0.079
10.075,0.071
10.080,0.066
10.085,0.060
10.090,0.049
10.095,0.048
10.100,0.047
10.105,0.037
10.110,0.030
10.115,0.026
10.120,0.024
10.125,0.024
10.130,0.021
10.135,0.020
10.140,0.017
10.145,0.012
10.150,0.008
10.155,0.003
10.160,0.003
10.165,0.005
10.170,0.000
10.175,0.001
10.180,0.002
10.185,0.001
10.190,0.003
10.195,0.003
10.200,0.003
10.205,0.001
10.210,0.000
10.215,0.003
10.220,0.006
10.225,0.007
10.230,0.004
10.235,0.000
10.240,-0.001
10.245,0.001
10.250,0.004
10.255,0.003
10.260,-0.001
10.265,-0.001
10.270,0.000
10.275,-0.006
10.280,-0.014
10.285,-0.015
10.290,-0.012
10.295,-0.009
10.300,-0.010
10.305,-0.007
10.310,-0.006
10.315,-0.012
10.320,-0.022
10.325,-0.035
10.330,-0.049
10.335,-0.071
10.340,-0.096
10.345,-0.102
10.350,-0.083
10.355,-0.059
10.360,-0.042
10.365,-0.034
10.370,-0.028
10.375,-0.014
10.380,-0.004
10.385,0.001
10.390,0.013
10.395,0.026
10.400,0.029
10.405,0.029
10.410,0.033
10.415,0.030
10.420,0.026
10.425,0.023
10.430,0.013
10.435,0.011
10.440,0.020
10.445,0.038
10.450,0.083
10.455,0.133
10.460,0.116
10.465,-0.013
10.470,-0.241
10.475,-0.555
10.480,-0.935
10.485,-1.186
10.490,-1.145
10.495,-0.862
10.500,-0.416
10.505,-0.010
10.510,0.232
10.515,0.376
10.520,0.419
10.525,0.389
10.530,0.333
10.535,0.262
10.540,0.217
10.545,0.211
10.550,0.195
10.555,0.165
10.560,0.157
10.565,0.158
10.570,0.139
10.575,0.122
10.580,0.124
10.585,0.119
10.590,0.106
10.595,0.104
10.600,0.101
10.605,0.092
10.610,0.085
10.615,0.079
10.620,0.072
10.625,0.064
10.630,0.059
10.635,0.054
10.640,0.045
10.645,0.038
10.650,0.033
10.655,0.024
10.660,0.018
10.665,0.014
10.670,0.007
10.675,-0.002
10.680,-0.015
10.685,-0.029
10.690,-0.040
10.695,-0.050
10.700,-0.063
10.705,-0.078
10.710,-0.091
10.715,-0.099
10.720,-0.107
10.725,-0.115
10.730,-0.117
10.735,-0.121
10.740,-0.131
10.745,-0.137
10.750,-0.133
10.755,-0.124
10.760,-0.113
10.765,-0.098
10.770,-0.075
10.775,-0.047
10.780,-0.025
10.785,0.001
10.790,0.028
10.795,0.053
10.800,0.080
10.805,0.103
10.810,0.119
10.815,0.126
10.820,0.127
10.825,0.136
10.830,0.137
10.835,0.128
10.840,0.121
10.845,0.118
10.850,0.114
10.855,0.107
10.860,0.101
10.865,0.099
10.870,0.093
10.875,0.080
10.880,0.070
10.885,0.063
10.890,0.061
10.895,0.059
10.900,0.050
10.905,0.042
10.910,0.039
10.915,0.035
10.920,0.029
10.925,0.026
10.930,0.026
10.935,0.025
10.940,0.020
10.945,0.016
10.950,0.017
10.955,0.017
10.960,0.010
10.965,0.004
10.970,0.005
10.975,0.008
10.980,0.006
10.985,0.005
10.990,0.006
10.995,0.009
11.000,0.012
11.005,0.009
11.010,0.008
11.015,0.012
11.020,0.014
11.025,0.009
11.030,0.008
11.035,0.013
11.040,0.011
11.045,0.004
11.050,0.000
11.055,0.006
11.060,0.014
11.065,0.013
11.070,0.007
11.075,0.001
11.080,-0.004
11.085,-0.007
11.090,-0.007
11.095,0.001
11.100,0.011
11.105,0.011
11.110,0.000
11.115,-0.011
11.120,-0.018
11.125,-0.026
11.130,-0.034
11.135,-0.044
11.140,-0.068
11.145,-0.097
11.150,-0.100
11.155,-0.077
11.160,-0.053
11.165,-0.034
11.170,-0.026
11.175,-0.019
11.180,-0.013
11.185,-0.007
11.190,0.012
11.195,0.028
11.200,0.033
11.205,0.035
11.210,0.036
11.215,0.031
11.220,0.023
11.225,0.022
11.230,0.024
11.235,0.018
11.240,0.015
11.245,0.029
11.250,0.055
11.255,0.094
11.260,0.127
11.265,0.082
11.270,-0.076
11.275,-0.322
11.280,-0.660
11.285,-1.035
11.290,-1.221
11.295,-1.108
11.300,-0.767
11.305,-0.294
11.310,0.082
11.315,0.287
11.320,0.404
11.325,0.420
11.330,0.373
11.335,0.314
11.340,0.250
11.345,0.217
11.350,0.215
11.355,0.188
11.360,0.157
11.365,0.159
11.370,0.157
11.375,0.139
11.380,0.134
11.385,0.134
11.390,0.121
11.395,0.109
11.400,0.107
11.405,0.098
11.410,0.085
11.415,0.084
11.420,0.082
11.425,0.072
11.430,0.062
11.435,0.054
11.440,0.049
11.445,0.049
11.450,0.051
11.455,0.042
11.460,0.025
11.465,0.015
11.470,0.009
11.475,0.001
11.480,-0.011
11.485,-0.024
11.490,-0.035
11.495,-0.048
11.500,-0.065
11.505,-0.077
11.510,-0.085
11.515,-0.098
11.520,-0.113
11.525,-0.121
11.530,-0.130
11.535,-0.135
11.540,-0.134
11.545,-0.138
11.550,-0.133
11.555,-0.124
11.560,-0.122
11.565,-0.117
11.570,-0.102
11.575,-0.077
11.580,-0.042
11.585,-0.011
11.590,0.014
11.595,0.044
11.600,0.069
11.605,0.087
11.610,0.106
11.615,0.120
11.620,0.129
11.625,0.135
11.630,0.132
11.635,0.128
11.640,0.127
11.645,0.121
11.650,0.118
11.655,0.119
11.660,0.115
11.665,0.104
11.670,0.091
11.675,0.085
11.680,0.082
11.685,0.071
11.690,0.058
11.695,0.051
11.700,0.050
11.705,0.050
11.710,0.044
11.715,0.038
11.720,0.037
11.725,0.033
11.730,0.024
11.735,0.016
11.740,0.013
11.745,0.014
11.750,0.016
11.755,0.012
11.760,0.005
11.765,0.003
11.770,-0.004
11.775,-0.009
11.780,-0.003
11.785,0.004
11.790,0.006
11.795,0.003
11.800,0.000
11.805,0.003
11.810,0.003
11.815,0.000
11.820,0.001
11.825,0.006
11.830,0.010
11.835,0.006
11.840,0.003
11.845,0.007
11.850,0.005
11.855,-0.001
11.860,0.000
11.865,0.003
11.870,0.002
11.875,-0.002
11.880,-0.005
11.885,-0.010
11.890,-0.011
11.895,-0.005
11.900,-0.001
11.905,0.000
11.910,-0.004
11.915,-0.007
11.920,-0.006
11.925,-0.006
11.930,-0.009
11.935,-0.010
11.940,-0.017
11.945,-0.035
11.950,-0.049
11.955,-0.055
11.960,-0.078
11.965,-0.097
11.970,-0.088
11.975,-0.066
11.980,-0.044
11.985,-0.033
11.990,-0.033
11.995,-0.022
12.000,-0.005
12.005,0.005
12.010,0.021
12.015,0.031
12.020,0.028
12.025,0.026
12.030,0.027
12.035,0.026
12.040,0.025
12.045,0.024
12.050,0.019
12.055,0.019
12.060,0.024
12.065,0.037
12.070,0.072
12.075,0.113
12.080,0.109
12.085,0.003
12.090,-0.194
12.095,-0.468
12.100,-0.840
12.105,-1.145
12.110,-1.175
12.115,-0.948
12.120,-0.527
12.125,-0.078
12.130,0.208
12.135,0.369
12.140,0.428
12.145,0.389
12.150,0.335
12.155,0.275
12.160,0.222
12.165,0.212
12.170,0.207
12.175,0.177
12.180,0.166
12.185,0.171
12.190,0.154
12.195,0.136
12.200,0.133
12.205,0.122
12.210,0.108
12.215,0.114
12.220,0.111
12.225,0.093
12.230,0.079
12.235,0.081
12.240,0.090
12.245,0.085
12.250,0.071
12.255,0.061
12.260,0.053
12.265,0.048
12.270,0.041
12.275,0.029
12.280,0.020
12.285,0.017
12.290,0.011
12.295,0.001
12.300,-0.013
12.305,-0.030
12.310,-0.041
12.315,-0.048
12.320,-0.063
12.325,-0.079
12.330,-0.090
12.335,-0.105
12.340,-0.119
12.345,-0.125
12.350,-0.132
12.355,-0.138
12.360,-0.137
12.365,-0.137
12.370,-0.132
12.375,-0.125
12.380,-0.120
12.385,-0.108
12.390,-0.089
12.395,-0.064
12.400,-0.030
12.405,0.004
12.410,0.031
12.415,0.059
12.420,0.085
12.425,0.102
12.430,0.114
12.435,0.120
12.440,0.130
12.445,0.139
12.450,0.138
12.455,0.133
12.460,0.127
12.465,0.120
12.470,0.116
12.475,0.113
12.480,0.108
12.485,0.102
12.490,0.093
12.495,0.087
12.500,0.084
12.505,0.079
12.510,0.072
12.515,0.064
12.520,0.060
12.525,0.051
12.530,0.040
12.535,0.039
12.540,0.040
12.545,0.038
12.550,0.033
12.555,0.024
12.560,0.022
12.565,0.019
12.570,0.012
12.575,0.010
12.580,0.009
12.585,0.008
12.590,0.005
12.595,0.004
12.600,0.002
12.605,-0.003
12.610,-0.001
12.615,0.001
12.620,0.000
12.625,0.001
12.630,-0.003
12.635,-0.005
12.640,-0.002
12.645,0.001
12.650,0.002
12.655,0.004
12.660,0.004
12.665,0.002
12.670,0.000
12.675,-0.001
12.680,-0.005
12.685,-0.008
12.690,-0.009
12.695,-0.008
12.700,-0.005
12.705,-0.006
12.710,-0.007
12.715,-0.005
12.720,-0.005
12.725,-0.011
12.730,-0.017
12.735,-0.011
12.740,-0.002
12.745,-0.003
12.750,-0.011
12.755,-0.020
12.760,-0.034
12.765,-0.048
12.770,-0.060
12.775,-0.076
12.780,-0.097
12.785,-0.106
12.790,-0.090
12.795,-0.061
12.800,-0.040
12.805,-0.031
12.810,-0.027
12.815,-0.015
12.820,-0.001
12.825,0.010
12.830,0.023
12.835,0.027
12.840,0.023
12.845,0.022
12.850,0.024
12.855,0.024
12.860,0.026
12.865,0.025
12.870,0.018
12.875,0.017
12.880,0.028
12.885,0.044
12.890,0.077
12.895,0.115
12.900,0.098
12.905,-0.028
12.910,-0.246
12.915,-0.540
12.920,-0.913
12.925,-1.170
12.930,-1.143
12.935,-0.874
12.940,-0.425
12.945,-0.004
12.950,0.244
12.955,0.389
12.960,0.432
12.965,0.392
12.970,0.339
12.975,0.267
12.980,0.211
12.985,0.212
12.990,0.208
12.995,0.175
13.000,0.167
13.005,0.164
13.010,0.140
13.015,0.121
13.020,0.121
13.025,0.121
13.030,0.115
13.035,0.113
13.040,0.105
13.045,0.092
13.050,0.083
13.055,0.078
13.060,0.079
13.065,0.080
13.070,0.070
13.075,0.058
13.080,0.051
13.085,0.047
13.090,0.039
13.095,0.031
13.100,0.021
13.105,0.012
13.110,0.004
13.115,-0.006
13.120,-0.015
13.125,-0.024
13.130,-0.041
13.135,-0.056
13.140,-0.066
13.145,-0.078
13.150,-0.087
13.155,-0.099
13.160,-0.112
13.165,-0.124
13.170,-0.135
13.175,-0.140
13.180,-0.140
13.185,-0.139
13.190,-0.138
13.195,-0.125
13.200,-0.111
13.205,-0.100
13.210,-0.085
13.215,-0.063
13.220,-0.030
13.225,0.007
13.230,0.037
13.235,0.064
13.240,0.089
13.245,0.107
13.250,0.120
13.255,0.131
13.260,0.138
13.265,0.142
13.270,0.141
13.275,0.133
13.280,0.126
13.285,0.123
13.290,0.113
13.295,0.102
13.300,0.104
13.305,0.105
13.310,0.099
13.315,0.089
13.320,0.082
13.325,0.082
13.330,0.078
13.335,0.066
13.340,0.057
13.345,0.052
13.350,0.048
13.355,0.039
13.360,0.032
13.365,0.028
13.370,0.025
13.375,0.025
13.380,0.025
13.385,0.019
13.390,0.011
13.395,0.011
13.400,0.020
13.405,0.019
13.410,0.006
13.415,-0.001
13.420,0.004
13.425,0.008
13.430,0.006
13.435,0.002
13.440,0.004
13.445,0.004
13.450,-0.004
13.455,-0.001
13.460,0.006
13.465,0.006
13.470,0.003
13.475,-0.002
13.480,-0.006
13.485,-0.004
13.490,0.001
13.495,0.005
13.500,0.003
13.505,-0.006
13.510,-0.010
13.515,-0.010
13.520,-0.010
13.525,-0.010
13.530,-0.005
13.535,-0.001
13.540,-0.002
13.545,-0.002
13.550,-0.003
13.555,-0.010
13.560,-0.016
13.565,-0.014
13.570,-0.017
13.575,-0.029
13.580,-0.045
13.585,-0.070
13.590,-0.094
13.595,-0.095
13.600,-0.075
13.605,-0.050
13.610,-0.037
13.615,-0.038
13.620,-0.036
13.625,-0.022
13.630,-0.006
13.635,0.009
13.640,0.025
13.645,0.033
13.650,0.031
13.655,0.028
13.660,0.027
13.665,0.025
13.670,0.025
13.675,0.022
13.680,0.016
13.685,0.018
13.690,0.030
13.695,0.054
13.700,0.097
13.705,0.132
13.710,0.085
13.715,-0.067
13.720,-0.301
13.725,-0.636
13.730,-1.019
13.735,-1.222
13.740,-1.116
13.745,-0.776
13.750,-0.311
13.755,0.065
13.760,0.277
13.765,0.396
13.770,0.412
13.775,0.374
13.780,0.322
13.785,0.253
13.790,0.214
13.795,0.209
13.800,0.189
13.805,0.162
13.810,0.160
13.815,0.161
13.820,0.143
13.825,0.132
13.830,0.130
13.835,0.116
13.840,0.105
13.845,0.110
13.850,0.107
13.855,0.092
13.860,0.084
13.865,0.083
13.870,0.081
13.875,0.075
13.880,0.064
13.885,0.053
13.890,0.048
13.895,0.042
13.900,0.034
13.905,0.027
13.910,0.019
13.915,0.010
13.920,-0.001
13.925,-0.013
13.930,-0.025
13.935,-0.032
13.940,-0.037
13.945,-0.049
13.950,-0.063
13.955,-0.077
13.960,-0.090
13.965,-0.098
13.970,-0.104
13.975,-0.111
13.980,-0.113
13.985,-0.117
13.990,-0.123
13.995,-0.126
14.000,-0.127
14.005,-0.123
14.010,-0.109
14.015,-0.087
14.020,-0.063
14.025,-0.038
14.030,-0.011
14.035,0.018
14.040,0.044
14.045,0.065
14.050,0.087
14.055,0.110
14.060,0.121
14.065,0.126
14.070,0.130
14.075,0.132
14.080,0.129
14.085,0.125
14.090,0.126
14.095,0.125
14.100,0.117
14.105,0.109
14.110,0.104
14.115,0.095
14.120,0.082
14.125,0.074
14.130,0.074
14.135,0.069
14.140,0.061
14.145,0.054
14.150,0.047
14.155,0.043
14.160,0.039
14.165,0.035
14.170,0.030
14.175,0.025
14.180,0.018
14.185,0.012
14.190,0.009
14.195,0.004
14.200,0.005
14.205,0.012
14.210,0.012
14.215,0.007
14.220,0.004
14.225,0.005
14.230,0.007
14.235,0.010
14.240,0.009
14.245,0.006
14.250,0.007
14.255,0.007
14.260,0.009
14.265,0.014
14.270,0.011
14.275,0.007
14.280,0.006
14.285,0.004
14.290,0.002
14.295,0.004
14.300,0.005
14.305,0.006
14.310,0.005
14.315,0.001
14.320,0.000
14.325,0.002
14.330,0.002
14.335,-0.001
14.340,-0.006
14.345,-0.014
14.350,-0.013
14.355,-0.002
14.360,0.003
14.365,0.001
14.370,-0.006
14.375,-0.013
14.380,-0.025
14.385,-0.041
14.390,-0.053
14.395,-0.070
14.400,-0.091
14.405,-0.101
14.410,-0.083
14.415,-0.058
14.420,-0.042
14.425,-0.033
14.430,-0.028
14.435,-0.022
14.440,-0.015
14.445,-0.002
14.450,0.021
14.455,0.035
14.460,0.034
14.465,0.031
14.470,0.027
14.475,0.025
14.480,0.026
14.485,0.023
14.490,0.021
14.495,0.021
14.500,0.023
14.505,0.039
14.510,0.077
14.515,0.116
14.520,0.096
14.525,-0.030
14.530,-0.239
14.535,-0.529
14.540,-0.909
14.545,-1.183
14.550,-1.165
14.555,-0.891
14.560,-0.435
14.565,-0.011
14.570,0.232
14.575,0.377
14.580,0.428
14.585,0.392
14.590,0.336
14.595,0.263
14.600,0.211
14.605,0.210
14.610,0.201
14.615,0.167
14.620,0.158
14.625,0.161
14.630,0.150
14.635,0.142
14.640,0.135
14.645,0.116
14.650,0.103
14.655,0.106
14.660,0.108
14.665,0.098
14.670,0.090
14.675,0.080
14.680,0.068
14.685,0.068
14.690,0.065
14.695,0.053
14.700,0.044
14.705,0.042
14.710,0.040
14.715,0.031
14.720,0.018
14.725,0.007
14.730,0.000
14.735,-0.007
14.740,-0.015
14.745,-0.026
14.750,-0.042
14.755,-0.058
14.760,-0.072
14.765,-0.081
14.770,-0.094
14.775,-0.110
14.780,-0.120
14.785,-0.127
14.790,-0.131
14.795,-0.130
14.800,-0.132
14.805,-0.134
14.810,-0.133
14.815,-0.129
14.820,-0.119
14.825,-0.102
14.830,-0.080
14.835,-0.053
14.840,-0.023
14.845,0.008
14.850,0.036
14.855,0.062
14.860,0.091
14.865,0.116
14.870,0.127
14.875,0.129
14.880,0.132
14.885,0.134
14.890,0.133
14.895,0.126
14.900,0.119
14.905,0.118
14.910,0.117
14.915,0.114
14.920,0.108
14.925,0.101
14.930,0.092
14.935,0.083
14.940,0.077
14.945,0.071
14.950,0.066
14.955,0.060
14.960,0.055
14.965,0.051
14.970,0.046
14.975,0.043
14.980,0.042
14.985,0.033
14.990,0.023
14.995,0.020
15.000,0.019
15.005,0.015
15.010,0.009
15.015,0.004
15.020,0.005
15.025,0.009
15.030,0.008
15.035,0.005
15.040,0.002
15.045,0.000
15.050,0.002
15.055,0.004
15.060,0.000
15.065,-0.003
15.070,0.001
15.075,0.001
15.080,0.000
15.085,0.007
15.090,0.011
15.095,0.009
15.100,0.003
15.105,-0.002
15.110,0.000
15.115,-0.001
15.120,-0.005
15.125,-0.002
15.130,0.000
15.135,-0.002
15.140,-0.003
15.145,-0.004
15.150,-0.005
15.155,-0.006
15.160,-0.010
15.165,-0.015
15.170,-0.017
15.175,-0.013
15.180,-0.006
15.185,-0.004
15.190,-0.005
15.195,-0.014
15.200,-0.032
15.205,-0.050
15.210,-0.061
15.215,-0.078
15.220,-0.100
15.225,-0.100
15.230,-0.074
15.235,-0.050
15.240,-0.037
15.245,-0.034
15.250,-0.028
15.255,-0.013
15.260,-0.007
15.265,0.003
15.270,0.028
15.275,0.038
15.280,0.035
15.285,0.031
15.290,0.022
15.295,0.021
15.300,0.023
15.305,0.019
15.310,0.020
15.315,0.027
15.320,0.037
15.325,0.058
15.330,0.093
15.335,0.114
15.340,0.055
15.345,-0.104
15.350,-0.335
15.355,-0.659
15.360,-1.019
15.365,-1.187
15.370,-1.067
15.375,-0.725
15.380,-0.250
15.385,0.115
15.390,0.306
15.395,0.410
15.400,0.404
15.405,0.353
15.410,0.301
15.415,0.232
15.420,0.202
15.425,0.206
15.430,0.185
15.435,0.162
15.440,0.163
15.445,0.155
15.450,0.136
15.455,0.131
15.460,0.126
15.465,0.114
15.470,0.112
15.475,0.111
15.480,0.095
15.485,0.086
15.490,0.091
15.495,0.085
15.500,0.073
15.505,0.064
15.510,0.059
15.515,0.054
15.520,0.049
15.525,0.042
15.530,0.031
15.535,0.017
15.540,0.010
15.545,0.007
15.550,-0.002
15.555,-0.011
15.560,-0.020
15.565,-0.035
15.570,-0.053
15.575,-0.065
15.580,-0.074
15.585,-0.085
15.590,-0.097
15.595,-0.109
15.600,-0.117
15.605,-0.126
15.610,-0.134
15.615,-0.137
15.620,-0.140
15.625,-0.143
15.630,-0.139
15.635,-0.132
15.640,-0.122
15.645,-0.103
15.650,-0.074
15.655,-0.042
15.660,-0.012
15.665,0.019
15.670,0.047
15.675,0.072
15.680,0.094
15.685,0.114
15.690,0.130
15.695,0.139
15.700,0.139
15.705,0.136
15.710,0.134
15.715,0.130
15.720,0.125
15.725,0.124
15.730,0.122
15.735,0.114
15.740,0.107
15.745,0.098
15.750,0.091
15.755,0.091
15.760,0.087
15.765,0.080
15.770,0.072
15.775,0.063
15.780,0.056
15.785,0.051
15.790,0.047
15.795,0.043
15.800,0.039
15.805,0.034
15.810,0.032
15.815,0.032
15.820,0.030
15.825,0.024
15.830,0.018
15.835,0.010
15.840,0.005
15.845,0.001
15.850,0.000
15.855,0.011
15.860,0.019
15.865,0.016
15.870,0.008
15.875,-0.001
15.880,-0.001
15.885,0.001
15.890,0.002
15.895,0.006
15.900,0.006
15.905,0.001
15.910,0.001
15.915,0.004
15.920,0.006
15.925,0.007
15.930,0.007
15.935,0.007
15.940,0.001
15.945,-0.002
15.950,0.002
15.955,0.003
15.960,-0.002
15.965,-0.008
15.970,-0.008
15.975,-0.005
15.980,-0.006
15.985,-0.006
15.990,0.001
15.995,-0.002
16.000,-0.013
16.005,-0.021
16.010,-0.033
16.015,-0.044
16.020,-0.056
16.025,-0.080
16.030,-0.097
16.035,-0.089
16.040,-0.071
16.045,-0.052
16.050,-0.034
16.055,-0.027
16.060,-0.021
16.065,-0.016
16.070,-0.012
16.075,0.010
16.080,0.030
16.085,0.032
16.090,0.029
16.095,0.024
16.100,0.023
16.105,0.021
16.110,0.015
16.115,0.011
16.120,0.014
16.125,0.019
16.130,0.030
16.135,0.055
16.140,0.105
16.145,0.138
16.150,0.060
16.155,-0.135
16.160,-0.408
16.165,-0.772
16.170,-1.113
16.175,-1.209
16.180,-1.018
16.185,-0.619
16.190,-0.163
16.195,0.147
16.200,0.324
16.205,0.417
16.210,0.410
16.215,0.358
16.220,0.287
16.225,0.217
16.230,0.201
16.235,0.201
16.240,0.173
16.245,0.161
16.250,0.171
16.255,0.161
16.260,0.134
16.265,0.120
16.270,0.117
16.275,0.109
16.280,0.104
16.285,0.102
16.290,0.096
16.295,0.085
16.300,0.077
16.305,0.076
16.310,0.071
16.315,0.060
16.320,0.049
16.325,0.042
16.330,0.044
16.335,0.045
16.340,0.031
16.345,0.018
16.350,0.013
16.355,0.014
16.360,0.004
16.365,-0.014
16.370,-0.029
16.375,-0.039
16.380,-0.044
16.385,-0.054
16.390,-0.069
16.395,-0.081
16.400,-0.092
16.405,-0.101
16.410,-0.112
16.415,-0.125
16.420,-0.125
16.425,-0.123
16.430,-0.123
16.435,-0.124
16.440,-0.127
16.445,-0.123
16.450,-0.107
16.455,-0.086
16.460,-0.060
16.465,-0.030
16.470,-0.001
16.475,0.027
16.480,0.053
16.485,0.072
16.490,0.088
16.495,0.104
16.500,0.118
16.505,0.126
16.510,0.132
16.515,0.130
16.520,0.119
16.525,0.110
16.530,0.109
16.535,0.113
16.540,0.114
16.545,0.106
16.550,0.094
16.555,0.090
16.560,0.089
16.565,0.077
16.570,0.066
16.575,0.058
16.580,0.048
16.585,0.042
16.590,0.039
16.595,0.042
16.600,0.043
16.605,0.036
16.610,0.030
16.615,0.025
16.620,0.017
16.625,0.013
16.630,0.016
16.635,0.015
16.640,0.012
16.645,0.007
16.650,0.004
16.655,0.007
16.660,0.005
16.665,0.004
16.670,0.009
16.675,0.012
16.680,0.012
16.685,0.010
16.690,0.011
16.695,0.009
16.700,0.005
16.705,0.007
16.710,0.009
16.715,0.010
16.720,0.013
16.725,0.014
16.730,0.014
16.735,0.014
16.740,0.011
16.745,0.005
16.750,-0.001
16.755,-0.003
16.760,-0.003
16.765,-0.006
16.770,-0.006
16.775,-0.002
16.780,-0.002
16.785,-0.002
16.790,-0.001
16.795,0.000
16.800,-0.001
16.805,-0.007
16.810,-0.020
16.815,-0.033
16.820,-0.044
16.825,-0.059
16.830,-0.081
16.835,-0.096
16.840,-0.087
16.845,-0.065
16.850,-0.047
16.855,-0.031
16.860,-0.026
16.865,-0.020
16.870,-0.013
16.875,-0.004
16.880,0.021
16.885,0.036
16.890,0.031
16.895,0.028
16.900,0.028
16.905,0.024
16.910,0.023
16.915,0.023
16.920,0.020
16.925,0.020
16.930,0.022
16.935,0.034
16.940,0.079
16.945,0.132
16.950,0.118
16.955,-0.018
16.960,-0.236
16.965,-0.525
16.970,-0.902
16.975,-1.181
16.980,-1.173
16.985,-0.907
16.990,-0.463
16.995,-0.035
17.000,0.227
17.005,0.379
17.010,0.425
17.015,0.383
17.020,0.332
17.025,0.270
17.030,0.217
17.035,0.213
17.040,0.208
17.045,0.175
17.050,0.164
17.055,0.163
17.060,0.142
17.065,0.127
17.070,0.126
17.075,0.115
17.080,0.109
17.085,0.111
17.090,0.106
17.095,0.096
17.100,0.081
17.105,0.073
17.110,0.075
17.115,0.073
17.120,0.064
17.125,0.054
17.130,0.047
17.135,0.038
17.140,0.033
17.145,0.028
17.150,0.024
17.155,0.015
17.160,0.000
17.165,-0.009
17.170,-0.015
17.175,-0.027
17.180,-0.044
17.185,-0.054
17.190,-0.060
17.195,-0.075
17.200,-0.094
17.205,-0.105
17.210,-0.109
17.215,-0.114
17.220,-0.126
17.225,-0.136
17.230,-0.134
17.235,-0.128
17.240,-0.129
17.245,-0.130
17.250,-0.119
17.255,-0.101
17.260,-0.080
17.265,-0.054
17.270,-0.021
17.275,0.015
17.280,0.041
17.285,0.060
17.290,0.082
17.295,0.104
17.300,0.120
17.305,0.131
17.310,0.133
17.315,0.132
17.320,0.133
17.325,0.131
17.330,0.129
17.335,0.126
17.340,0.116
17.345,0.106
17.350,0.098
17.355,0.096
17.360,0.103
17.365,0.097
17.370,0.081
17.375,0.069
17.380,0.063
17.385,0.059
17.390,0.049
17.395,0.041
17.400,0.039
17.405,0.036
17.410,0.033
17.415,0.027
17.420,0.021
17.425,0.020
17.430,0.018
17.435,0.014
17.440,0.014
17.445,0.013
17.450,0.006
17.455,0.001
17.460,0.006
17.465,0.011
17.470,0.012
17.475,0.005
17.480,0.000
17.485,0.001
17.490,0.000
17.495,0.000
17.500,0.004
17.505,0.009
17.510,0.008
17.515,0.003
17.520,-0.002
17.525,0.000
17.530,0.006
17.535,0.004
17.540,-0.003
17.545,-0.005
17.550,0.005
17.555,0.012
17.560,0.007
17.565,0.001
17.570,-0.002
17.575,-0.007
17.580,-0.013
17.585,-0.015
17.590,-0.009
17.595,-0.004
17.600,-0.007
17.605,-0.013
17.610,-0.015
17.615,-0.014
17.620,-0.016
17.625,-0.025
17.630,-0.040
17.635,-0.053
17.640,-0.073
17.645,-0.099
17.650,-0.098
17.655,-0.070
17.660,-0.049
17.665,-0.039
17.670,-0.037
17.675,-0.028
17.680,-0.013
17.685,-0.010
17.690,0.001
17.695,0.020
17.700,0.030
17.705,0.031
17.710,0.029
17.715,0.027
17.720,0.026
17.725,0.021
17.730,0.017
17.735,0.016
17.740,0.018
17.745,0.026
17.750,0.047
17.755,0.089
17.760,0.122
17.765,0.073
17.770,-0.082
17.775,-0.311
17.780,-0.626
17.785,-0.995
17.790,-1.190
17.795,-1.088
17.800,-0.760
17.805,-0.295
17.810,0.079
17.815,0.279
17.820,0.397
17.825,0.412
17.830,0.367
17.835,0.314
17.840,0.243
17.845,0.204
17.850,0.202
17.855,0.181
17.860,0.157
17.865,0.156
17.870,0.154
17.875,0.140
17.880,0.136
17.885,0.130
17.890,0.113
17.895,0.110
17.900,0.112
17.905,0.099
17.910,0.086
17.915,0.084
17.920,0.079
17.925,0.070
17.930,0.065
17.935,0.061
17.940,0.053
17.945,0.044
17.950,0.039
17.955,0.037
17.960,0.028
17.965,0.013
17.970,0.006
17.975,0.006
17.980,0.001
17.985,-0.013
17.990,-0.030
17.995,-0.044
18.000,-0.056
18.005,-0.072
18.010,-0.086
18.015,-0.092
18.020,-0.100
18.025,-0.116
18.030,-0.127
18.035,-0.129
18.040,-0.131
18.045,-0.138
18.050,-0.143
18.055,-0.140
18.060,-0.130
18.065,-0.113
18.070,-0.089
18.075,-0.065
18.080,-0.041
18.085,-0.014
18.090,0.015
18.095,0.044
18.100,0.066
18.105,0.086
18.110,0.109
18.115,0.127
18.120,0.135
18.125,0.138
18.130,0.142
18.135,0.141
18.140,0.133
18.145,0.123
18.150,0.121
18.155,0.119
18.160,0.107
18.165,0.096
18.170,0.093
18.175,0.093
18.180,0.087
18.185,0.076
18.190,0.071
18.195,0.071
18.200,0.065
18.205,0.058
18.210,0.049
18.215,0.038
18.220,0.035
18.225,0.037
18.230,0.037
18.235,0.032
18.240,0.022
18.245,0.012
18.250,0.009
18.255,0.005
18.260,0.002
18.265,0.005
18.270,0.010
18.275,0.015
18.280,0.014
18.285,0.005
18.290,-0.001
18.295,0.003
18.300,0.008
18.305,0.005
18.310,0.000
18.315,-0.004
18.320,-0.008
18.325,-0.004
18.330,0.004
18.335,0.009
18.340,0.009
18.345,0.003
18.350,-0.001
18.355,0.000
18.360,-0.003
18.365,-0.003
18.370,0.004
18.375,0.006
18.380,-0.001
18.385,-0.008
18.390,-0.009
18.395,-0.005
18.400,-0.005
18.405,-0.010
18.410,-0.007
18.415,-0.005
18.420,-0.006
18.425,-0.003
18.430,-0.006
18.435,-0.012
18.440,-0.019
18.445,-0.036
18.450,-0.050
18.455,-0.062
18.460,-0.080
18.465,-0.096
18.470,-0.090
18.475,-0.071
18.480,-0.054
18.485,-0.039
18.490,-0.030
18.495,-0.024
18.500,-0.010
18.505,0.000
18.510,0.010
18.515,0.021
18.520,0.027
18.525,0.027
18.530,0.026
18.535,0.025
18.540,0.023
18.545,0.021
18.550,0.016
18.555,0.016
18.560,0.027
18.565,0.037
18.570,0.056
18.575,0.093
18.580,0.121
18.585,0.065
18.590,-0.094
18.595,-0.330
18.600,-0.663
18.605,-1.033
18.610,-1.200
18.615,-1.070
18.620,-0.721
18.625,-0.254
18.630,0.107
18.635,0.306
18.640,0.416
18.645,0.418
18.650,0.370
18.655,0.311
18.660,0.240
18.665,0.208
18.670,0.213
18.675,0.194
18.680,0.169
18.685,0.164
18.690,0.153
18.695,0.132
18.700,0.124
18.705,0.123
18.710,0.113
18.715,0.110
18.720,0.111
18.725,0.102
18.730,0.093
18.735,0.087
18.740,0.079
18.745,0.074
18.750,0.069
18.755,0.061
18.760,0.053
18.765,0.050
18.770,0.045
18.775,0.032
18.780,0.024
18.785,0.023
18.790,0.020
18.795,0.006
18.800,-0.017
18.805,-0.027
18.810,-0.027
18.815,-0.035
18.820,-0.049
18.825,-0.066
18.830,-0.085
18.835,-0.099
18.840,-0.107
18.845,-0.113
18.850,-0.114
18.855,-0.119
18.860,-0.133
18.865,-0.139
18.870,-0.134
18.875,-0.132
18.880,-0.125
18.885,-0.105
18.890,-0.090
18.895,-0.073
18.900,-0.046
18.905,-0.016
18.910,0.019
18.915,0.049
18.920,0.073
18.925,0.094
18.930,0.108
18.935,0.118
18.940,0.131
18.945,0.139
18.950,0.136
18.955,0.126
18.960,0.117
18.965,0.115
18.970,0.115
18.975,0.116
18.980,0.113
18.985,0.097
18.990,0.088
18.995,0.086
19.000,0.080
19.005,0.074
19.010,0.067
19.015,0.061
19.020,0.060
19.025,0.057
19.030,0.053
19.035,0.046
19.040,0.037
19.045,0.027
19.050,0.020
19.055,0.022
19.060,0.023
19.065,0.019
19.070,0.015
19.075,0.012
19.080,0.008
19.085,0.005
19.090,-0.001
19.095,-0.006
19.100,-0.005
19.105,0.000
19.110,0.005
19.115,0.008
19.120,0.008
19.125,0.008
19.130,0.007
19.135,0.003
19.140,0.005
19.145,0.011
19.150,0.014
19.155,0.012
19.160,0.011
19.165,0.007
19.170,0.001
19.175,-0.002
19.180,-0.004
19.185,0.000
19.190,0.005
19.195,-0.003
19.200,-0.007
19.205,-0.003
19.210,-0.005
19.215,-0.006
19.220,-0.010
19.225,-0.015
19.230,-0.004
19.235,0.002
19.240,-0.005
19.245,-0.011
19.250,-0.016
19.255,-0.028
19.260,-0.042
19.265,-0.056
19.270,-0.074
19.275,-0.093
19.280,-0.094
19.285,-0.074
19.290,-0.049
19.295,-0.032
19.300,-0.029
19.305,-0.029
19.310,-0.017
19.315,-0.011
19.320,-0.003
19.325,0.015
19.330,0.026
19.335,0.030
19.340,0.030
19.345,0.026
19.350,0.020
19.355,0.019
19.360,0.018
19.365,0.017
19.370,0.024
19.375,0.030
19.380,0.044
19.385,0.092
19.390,0.132
19.395,0.075
19.400,-0.092
19.405,-0.330
19.410,-0.657
19.415,-1.030
19.420,-1.217
19.425,-1.093
19.430,-0.735
19.435,-0.268
19.440,0.089
19.445,0.293
19.450,0.409
19.455,0.415
19.460,0.370
19.465,0.313
19.470,0.243
19.475,0.208
19.480,0.206
19.485,0.191
19.490,0.167
19.495,0.159
19.500,0.148
19.505,0.125
19.510,0.123
19.515,0.126
19.520,0.116
19.525,0.112
19.530,0.111
19.535,0.103
19.540,0.091
19.545,0.084
19.550,0.082
19.555,0.076
19.560,0.069
19.565,0.063
19.570,0.055
19.575,0.045
19.580,0.037
19.585,0.030
19.590,0.023
19.595,0.021
19.600,0.012
19.605,-0.002
19.610,-0.006
19.615,-0.015
19.620,-0.032
19.625,-0.050
19.630,-0.061
19.635,-0.064
19.640,-0.071
19.645,-0.086
19.650,-0.099
19.655,-0.105
19.660,-0.111
19.665,-0.118
19.670,-0.123
19.675,-0.123
19.680,-0.124
19.685,-0.126
19.690,-0.121
19.695,-0.107
19.700,-0.086
19.705,-0.063
19.710,-0.038
19.715,-0.010
19.720,0.021
19.725,0.049
19.730,0.071
19.735,0.091
19.740,0.109
19.745,0.124
19.750,0.133
19.755,0.134
19.760,0.134
19.765,0.133
19.770,0.128
19.775,0.124
19.780,0.120
19.785,0.118
19.790,0.114
19.795,0.105
19.800,0.093
19.805,0.083
19.810,0.082
19.815,0.080
19.820,0.068
19.825,0.056
19.830,0.049
19.835,0.046
19.840,0.042
19.845,0.035
19.850,0.033
19.855,0.031
19.860,0.025
19.865,0.018
19.870,0.019
19.875,0.017
19.880,0.008
19.885,0.006
19.890,0.007
19.895,0.008
19.900,0.007
19.905,0.004
19.910,0.004
19.915,0.002
19.920,-0.001
19.925,0.003
19.930,0.007
19.935,0.008
19.940,0.005
19.945,0.002
19.950,0.002
19.955,0.005
19.960,0.006
19.965,0.003
19.970,-0.001
19.975,0.003
19.980,0.007
19.985,0.004
19.990,-0.001
19.995,-0.001
20.000,0.001
20.005,0.002
20.010,-0.001
20.015,-0.003
20.020,-0.003
20.025,-0.006
20.030,-0.008
20.035,-0.009
20.040,-0.009
20.045,-0.009
20.050,-0.008
20.055,-0.009
20.060,-0.013
20.065,-0.016
20.070,-0.023
20.075,-0.038
20.080,-0.051
20.085,-0.061
20.090,-0.078
20.095,-0.099
20.100,-0.099
20.105,-0.076
20.110,-0.050
20.115,-0.033
20.120,-0.030
20.125,-0.027
20.130,-0.017
20.135,-0.007
20.140,0.007
20.145,0.026
20.150,0.030
20.155,0.027
20.160,0.028
20.165,0.026
20.170,0.022
20.175,0.023
20.180,0.020
20.185,0.015
20.190,0.017
20.195,0.029
20.200,0.055
20.205,0.095
20.210,0.113
20.215,0.040
20.220,-0.134
20.225,-0.377
20.230,-0.710
20.235,-1.053
20.240,-1.184
20.245,-1.031
20.250,-0.663
20.255,-0.197
20.260,0.136
20.265,0.317
20.270,0.416
20.275,0.402
20.280,0.347
20.285,0.291
20.290,0.230
20.295,0.207
20.300,0.204
20.305,0.177
20.310,0.161
20.315,0.166
20.320,0.155
20.325,0.136
20.330,0.129
20.335,0.123
20.340,0.113
20.345,0.108
20.350,0.107
20.355,0.097
20.360,0.086
20.365,0.082
20.370,0.078
20.375,0.071
20.380,0.069
20.385,0.065
20.390,0.055
20.395,0.047
20.400,0.040
20.405,0.031
20.410,0.023
20.415,0.016
20.420,0.008
20.425,0.001
20.430,-0.009
20.435,-0.023
20.440,-0.038
20.445,-0.050
20.450,-0.061
20.455,-0.071
20.460,-0.082
20.465,-0.096
20.470,-0.107
20.475,-0.115
20.480,-0.121
20.485,-0.126
20.490,-0.131
20.495,-0.134
20.500,-0.133
20.505,-0.130
20.510,-0.123
20.515,-0.111
20.520,-0.092
20.525,-0.069
20.530,-0.040
20.535,-0.007
20.540,0.023
20.545,0.049
20.550,0.075
20.555,0.098
20.560,0.116
20.565,0.127
20.570,0.131
20.575,0.132
20.580,0.130
20.585,0.131
20.590,0.134
20.595,0.131
20.600,0.123
20.605,0.112
20.610,0.105
20.615,0.101
20.620,0.096
20.625,0.090
20.630,0.082
20.635,0.075
20.640,0.070
20.645,0.064
20.650,0.056
20.655,0.049
20.660,0.045
20.665,0.040
20.670,0.036
20.675,0.035
20.680,0.032
20.685,0.026
20.690,0.018
20.695,0.013
20.700,0.012
20.705,0.011
20.710,0.011
20.715,0.007
20.720,0.001
20.725,-0.002
20.730,-0.002
20.735,0.000
20.740,0.000
20.745,-0.004
20.750,-0.007
20.755,-0.007
20.760,-0.003
20.765,0.001
20.770,0.003
20.775,0.003
20.780,0.000
20.785,0.000
20.790,0.001
20.795,-0.004
20.800,-0.005
20.805,-0.001
20.810,0.001
20.815,-0.001
20.820,-0.005
20.825,-0.006
20.830,-0.003
20.835,-0.005
20.840,-0.010
20.845,-0.010
20.850,-0.010
20.855,-0.012
20.860,-0.011
20.865,-0.009
20.870,-0.007
20.875,-0.005
20.880,-0.005
20.885,-0.011
20.890,-0.017
20.895,-0.025
20.900,-0.039
20.905,-0.051
20.910,-0.068
20.915,-0.089
20.920,-0.099
20.925,-0.086
20.930,-0.065
20.935,-0.048
20.940,-0.037
20.945,-0.032
20.950,-0.023
20.955,-0.014
20.960,-0.002
20.965,0.016
20.970,0.028
20.975,0.027
20.980,0.024
20.985,0.025
20.990,0.024
20.995,0.021
21.000,0.020
21.005,0.020
21.010,0.019
21.015,0.024
21.020,0.043
21.025,0.078
21.030,0.124
21.035,0.117
21.040,-0.003
21.045,-0.213
21.050,-0.500
21.055,-0.875
21.060,-1.158
21.065,-1.158
21.070,-0.898
21.075,-0.460
21.080,-0.041
21.085,0.215
21.090,0.371
21.095,0.431
21.100,0.398
21.105,0.343
21.110,0.276
21.115,0.216
21.120,0.204
21.125,0.198
21.130,0.174
21.135,0.164
21.140,0.161
21.145,0.148
21.150,0.136
21.155,0.131
21.160,0.121
21.165,0.105
21.170,0.098
21.175,0.095
21.180,0.090
21.185,0.090
21.190,0.091
21.195,0.080
21.200,0.071
21.205,0.068
21.210,0.063
21.215,0.056
21.220,0.046
21.225,0.036
21.230,0.028
21.235,0.022
21.240,0.014
21.245,0.003
21.250,-0.003
21.255,-0.007
21.260,-0.019
21.265,-0.035
21.270,-0.048
21.275,-0.062
21.280,-0.075
21.285,-0.087
21.290,-0.098
21.295,-0.108
21.300,-0.116
21.305,-0.117
21.310,-0.118
21.315,-0.123
21.320,-0.131
21.325,-0.132
21.330,-0.125
21.335,-0.116
21.340,-0.101
21.345,-0.075
21.350,-0.047
21.355,-0.020
21.360,0.006
21.365,0.033
21.370,0.062
21.375,0.083
21.380,0.098
21.385,0.115
21.390,0.128
21.395,0.135
21.400,0.137
21.405,0.131
21.410,0.129
21.415,0.127
21.420,0.119
21.425,0.109
21.430,0.104
21.435,0.102
21.440,0.100
21.445,0.096
21.450,0.089
21.455,0.083
21.460,0.079
21.465,0.074
21.470,0.065
21.475,0.055
21.480,0.044
21.485,0.033
21.490,0.032
21.495,0.032
21.500,0.026
21.505,0.024
21.510,0.025
21.515,0.024
21.520,0.018
21.525,0.010
21.530,0.006
21.535,0.005
21.540,0.005
21.545,0.007
21.550,0.007
21.555,0.006
21.560,0.000
21.565,-0.002
21.570,0.005
21.575,0.008
21.580,0.006
21.585,0.006
21.590,0.008
21.595,0.009
21.600,0.004
21.605,-0.001
21.610,0.000
21.615,0.001
21.620,0.001
21.625,-0.002
21.630,-0.005
21.635,-0.003
21.640,-0.004
21.645,-0.005
21.650,-0.001
21.655,0.000
21.660,0.000
21.665,0.000
21.670,0.001
21.675,-0.001
21.680,-0.007
21.685,-0.012
21.690,-0.020
21.695,-0.032
21.700,-0.041
21.705,-0.050
21.710,-0.073
21.715,-0.100
21.720,-0.095
21.725,-0.068
21.730,-0.045
21.735,-0.035
21.740,-0.038
21.745,-0.033
21.750,-0.018
21.755,-0.005
21.760,0.017
21.765,0.031
21.770,0.029
21.775,0.022
21.780,0.023
21.785,0.026
21.790,0.024
21.795,0.021
21.800,0.016
21.805,0.016
21.810,0.020
21.815,0.029
21.820,0.061
21.825,0.116
21.830,0.140
21.835,0.050
21.840,-0.156
21.845,-0.433
21.850,-0.793
21.855,-1.128
21.860,-1.214
21.865,-1.005
21.870,-0.596
21.875,-0.140
21.880,0.170
21.885,0.337
21.890,0.418
21.895,0.409
21.900,0.360
21.905,0.295
21.910,0.229
21.915,0.200
21.920,0.200
21.925,0.184
21.930,0.165
21.935,0.161
21.940,0.147
21.945,0.126
21.950,0.125
21.955,0.129
21.960,0.120
21.965,0.109
21.970,0.103
21.975,0.096
21.980,0.092
21.985,0.087
21.990,0.081
21.995,0.077
22.000,0.074
22.005,0.066
22.010,0.055
22.015,0.046
22.020,0.043
22.025,0.036
22.030,0.029
22.035,0.025
22.040,0.014
22.045,0.004
22.050,-0.004
22.055,-0.018
22.060,-0.032
22.065,-0.043
22.070,-0.057
22.075,-0.071
22.080,-0.086
22.085,-0.097
22.090,-0.102
22.095,-0.105
22.100,-0.108
22.105,-0.110
22.110,-0.115
22.115,-0.124
22.120,-0.127
22.125,-0.123
22.130,-0.113
22.135,-0.099
22.140,-0.080
22.145,-0.052
22.150,-0.022
22.155,0.009
22.160,0.040
22.165,0.066
22.170,0.088
22.175,0.107
22.180,0.119
22.185,0.126
22.190,0.128
22.195,0.128
22.200,0.130
22.205,0.133
22.210,0.132
22.215,0.128
22.220,0.123
22.225,0.116
22.230,0.109
22.235,0.101
22.240,0.092
22.245,0.085
22.250,0.078
22.255,0.073
22.260,0.068
22.265,0.060
22.270,0.052
22.275,0.048
22.280,0.046
22.285,0.040
22.290,0.034
22.295,0.028
22.300,0.026
22.305,0.023
22.310,0.017
22.315,0.011
22.320,0.007
22.325,0.005
22.330,0.002
22.335,0.001
22.340,-0.002
22.345,-0.005
22.350,0.001
22.355,0.008
22.360,0.010
22.365,0.007
22.370,0.005
22.375,0.002
22.380,0.002
22.385,0.001
22.390,-0.002
22.395,0.002
22.400,0.004
22.405,-0.002
22.410,-0.004
22.415,-0.003
22.420,-0.003
22.425,-0.001
22.430,-0.001
22.435,-0.006
22.440,-0.006
22.445,-0.004
22.450,-0.002
22.455,0.000
22.460,-0.003
22.465,-0.008
22.470,-0.013
22.475,-0.020
22.480,-0.032
22.485,-0.044
22.490,-0.052
22.495,-0.070
22.500,-0.093
22.505,-0.093
22.510,-0.072
22.515,-0.052
22.520,-0.038
22.525,-0.035
22.530,-0.029
22.535,-0.014
22.540,-0.003
22.545,0.009
22.550,0.022
22.555,0.028
22.560,0.032
22.565,0.035
22.570,0.032
22.575,0.025
22.580,0.023
22.585,0.023
22.590,0.019
22.595,0.018
22.600,0.027
22.605,0.053
22.610,0.097
22.615,0.123
22.620,0.063
22.625,-0.104
22.630,-0.347
22.635,-0.676
22.640,-1.040
22.645,-1.213
22.650,-1.087
22.655,-0.736
22.660,-0.259
22.665,0.107
22.670,0.297
22.675,0.404
22.680,0.408
22.685,0.361
22.690,0.307
22.695,0.238
22.700,0.203
22.705,0.205
22.710,0.188
22.715,0.163
22.720,0.163
22.725,0.155
22.730,0.133
22.735,0.128
22.740,0.125
22.745,0.110
22.750,0.103
22.755,0.101
22.760,0.091
22.765,0.087
22.770,0.089
22.775,0.082
22.780,0.072
22.785,0.062
22.790,0.057
22.795,0.054
22.800,0.046
22.805,0.041
22.810,0.035
22.815,0.026
22.820,0.017
22.825,0.007
22.830,-0.002
22.835,-0.009
22.840,-0.019
22.845,-0.033
22.850,-0.045
22.855,-0.061
22.860,-0.075
22.865,-0.085
22.870,-0.098
22.875,-0.111
22.880,-0.123
22.885,-0.131
22.890,-0.132
22.895,-0.133
22.900,-0.136
22.905,-0.136
22.910,-0.133
22.915,-0.129
22.920,-0.115
22.925,-0.091
22.930,-0.063
22.935,-0.034
22.940,-0.005
22.945,0.025
22.950,0.054
22.955,0.078
22.960,0.096
22.965,0.110
22.970,0.122
22.975,0.131
22.980,0.135
22.985,0.132
22.990,0.130
22.995,0.128
23.000,0.124
23.005,0.119
23.010,0.111
23.015,0.103
23.020,0.100
23.025,0.096
23.030,0.091
23.035,0.085
23.040,0.077
23.045,0.070
23.050,0.067
23.055,0.062
23.060,0.055
23.065,0.048
23.070,0.040
23.075,0.035
23.080,0.034
23.085,0.029
23.090,0.024
23.095,0.020
23.100,0.017
23.105,0.017
23.110,0.013
23.115,0.004
23.120,0.002
23.125,0.003
23.130,0.002
23.135,0.002
23.140,0.002
23.145,0.001
23.150,0.000
23.155,-0.001
23.160,-0.001
23.165,0.001
23.170,0.003
23.175,0.003
23.180,0.001
23.185,-0.001
23.190,0.003
23.195,0.005
23.200,0.000
23.205,-0.004
23.210,-0.006
23.215,-0.006
23.220,-0.005
23.225,-0.003
23.230,-0.001
23.235,0.000
23.240,-0.003
23.245,-0.006
23.250,-0.003
23.255,-0.004
23.260,-0.009
23.265,-0.018
23.270,-0.030
23.275,-0.040
23.280,-0.051
23.285,-0.065
23.290,-0.088
23.295,-0.105
23.300,-0.089
23.305,-0.063
23.310,-0.042
23.315,-0.029
23.320,-0.029
23.325,-0.023
23.330,-0.007
23.335,0.001
23.340,0.016
23.345,0.029
23.350,0.027
23.355,0.028
23.360,0.032
23.365,0.032
23.370,0.031
23.375,0.025
23.380,0.018
23.385,0.019
23.390,0.025
23.395,0.038
23.400,0.068
23.405,0.109
23.410,0.113
23.415,0.012
23.420,-0.179
23.425,-0.436
23.430,-0.789
23.435,-1.107
23.440,-1.170
23.445,-0.962
23.450,-0.554
23.455,-0.103
23.460,0.187
23.465,0.346
23.470,0.415
23.475,0.380
23.480,0.326
23.485,0.271
23.490,0.215
23.495,0.203
23.500,0.201
23.505,0.173
23.510,0.158
23.515,0.162
23.520,0.145
23.525,0.128
23.530,0.126
23.535,0.117
23.540,0.106
23.545,0.103
23.550,0.099
23.555,0.090
23.560,0.084
23.565,0.079
23.570,0.073
23.575,0.066
23.580,0.061
23.585,0.054
23.590,0.046
23.595,0.043
23.600,0.040
23.605,0.030
23.610,0.020
23.615,0.013
23.620,0.005
23.625,-0.006
23.630,-0.017
23.635,-0.029
23.640,-0.039
23.645,-0.050
23.650,-0.063
23.655,-0.078
23.660,-0.093
23.665,-0.104
23.670,-0.111
23.675,-0.119
23.680,-0.129
23.685,-0.136
23.690,-0.138
23.695,-0.140
23.700,-0.142
23.705,-0.136
23.710,-0.126
23.715,-0.108
23.720,-0.083
23.725,-0.056
23.730,-0.025
23.735,0.002
23.740,0.031
23.745,0.062
23.750,0.084
23.755,0.099
23.760,0.114
23.765,0.125
23.770,0.132
23.775,0.133
23.780,0.127
23.785,0.125
23.790,0.127
23.795,0.124
23.800,0.119
23.805,0.111
23.810,0.106
23.815,0.103
23.820,0.097
23.825,0.088
23.830,0.081
23.835,0.073
23.840,0.064
23.845,0.059
23.850,0.057
23.855,0.052
23.860,0.046
23.865,0.043
23.870,0.039
23.875,0.033
23.880,0.029
23.885,0.025
23.890,0.020
23.895,0.015
23.900,0.008
23.905,0.006
23.910,0.009
23.915,0.010
23.920,0.009
23.925,0.006
23.930,0.003
23.935,0.000
23.940,0.000
23.945,0.003
23.950,0.002
23.955,0.001
23.960,0.001
23.965,-0.001
23.970,-0.001
23.975,-0.001
23.980,-0.001
23.985,0.005
23.990,0.006
23.995,0.000
24.000,-0.001
24.005,0.001
24.010,0.001
24.015,0.003
24.020,0.002
24.025,-0.001
24.030,-0.001
24.035,-0.002
24.040,-0.002
24.045,0.002
24.050,0.000
24.055,-0.008
24.060,-0.014
24.065,-0.025
24.070,-0.038
24.075,-0.046
24.080,-0.060
24.085,-0.082
24.090,-0.092
24.095,-0.079
24.100,-0.063
24.105,-0.049
24.110,-0.035
24.115,-0.025
24.120,-0.009
24.125,0.004
24.130,0.011
24.135,0.026
24.140,0.036
24.145,0.036
24.150,0.037
24.155,0.031
24.160,0.021
24.165,0.022
24.170,0.025
24.175,0.021
24.180,0.020
24.185,0.023
24.190,0.036
24.195,0.069
24.200,0.114
24.205,0.121
24.210,0.020
24.215,-0.179
24.220,-0.450
24.225,-0.814
24.230,-1.125
24.235,-1.171
24.240,-0.950
24.245,-0.536
24.250,-0.095
24.255,0.187
24.260,0.349
24.265,0.419
24.270,0.395
24.275,0.345
24.280,0.281
24.285,0.220
24.290,0.204
24.295,0.197
24.300,0.167
24.305,0.159
24.310,0.164
24.315,0.149
24.320,0.131
24.325,0.127
24.330,0.120
24.335,0.109
24.340,0.103
24.345,0.098
24.350,0.091
24.355,0.085
24.360,0.083
24.365,0.077
24.370,0.065
24.375,0.060
24.380,0.055
24.385,0.048
24.390,0.043
24.395,0.034
24.400,0.022
24.405,0.018
24.410,0.015
24.415,0.007
24.420,-0.004
24.425,-0.021
24.430,-0.035
24.435,-0.041
24.440,-0.048
24.445,-0.058
24.450,-0.071
24.455,-0.085
24.460,-0.099
24.465,-0.112
24.470,-0.119
24.475,-0.123
24.480,-0.127
24.485,-0.131
24.490,-0.139
24.495,-0.141
24.500,-0.134
24.505,-0.121
24.510,-0.102
24.515,-0.081
24.520,-0.057
24.525,-0.026
24.530,0.008
24.535,0.036
24.540,0.062
24.545,0.085
24.550,0.105
24.555,0.118
24.560,0.125
24.565,0.127
24.570,0.127
24.575,0.125
24.580,0.124
24.585,0.121
24.590,0.121
24.595,0.121
24.600,0.112
24.605,0.104
24.610,0.097
24.615,0.090
24.620,0.086
24.625,0.077
24.630,0.071
24.635,0.070
24.640,0.065
24.645,0.059
24.650,0.048
24.655,0.040
24.660,0.036
24.665,0.030
24.670,0.028
24.675,0.026
24.680,0.020
24.685,0.016
24.690,0.014
24.695,0.009
24.700,0.006
24.705,0.007
24.710,0.012
24.715,0.011
24.720,0.003
24.725,-0.002
24.730,0.005
24.735,0.012
24.740,0.008
24.745,0.005
24.750,0.006
24.755,0.008
24.760,0.009
24.765,0.009
24.770,0.007
24.775,0.004
24.780,0.005
24.785,0.009
24.790,0.009
24.795,0.004
24.800,0.001
24.805,-0.002
24.810,0.000
24.815,0.000
24.820,-0.002
24.825,0.002
24.830,0.006
24.835,0.001
24.840,-0.006
24.845,-0.012
24.850,-0.021
24.855,-0.032
24.860,-0.045
24.865,-0.065
24.870,-0.091
24.875,-0.098
24.880,-0.076
24.885,-0.053
24.890,-0.038
24.895,-0.031
24.900,-0.027
24.905,-0.013
24.910,0.001
24.915,0.012
24.920,0.025
24.925,0.029
24.930,0.026
24.935,0.028
24.940,0.031
24.945,0.027
24.950,0.025
24.955,0.023
24.960,0.018
24.965,0.021
24.970,0.027
24.975,0.042
24.980,0.085
24.985,0.132
24.990,0.117
24.995,-0.015
25.000,-0.244
25.005,-0.549
25.010,-0.930
25.015,-1.194
25.020,-1.161
25.025,-0.875
25.030,-0.426
25.035,-0.011
25.040,0.235
25.045,0.376
25.050,0.421
25.055,0.388
25.060,0.336
25.065,0.270
25.070,0.215
25.075,0.205
25.080,0.198
25.085,0.170
25.090,0.160
25.095,0.156
25.100,0.137
25.105,0.126
25.110,0.127
25.115,0.118
25.120,0.101
25.125,0.097
25.130,0.097
25.135,0.090
25.140,0.086
25.145,0.078
25.150,0.070
25.155,0.069
25.160,0.067
25.165,0.056
25.170,0.047
25.175,0.040
25.180,0.028
25.185,0.017
25.190,0.016
25.195,0.016
25.200,0.007
25.205,-0.007
25.210,-0.021
25.215,-0.035
25.220,-0.046
25.225,-0.060
25.230,-0.069
25.235,-0.076
25.240,-0.091
25.245,-0.107
25.250,-0.113
25.255,-0.118
25.260,-0.126
25.265,-0.132
25.270,-0.133
25.275,-0.127
25.280,-0.122
25.285,-0.115
25.290,-0.104
25.295,-0.093
25.300,-0.077
25.305,-0.049
25.310,-0.012
25.315,0.023
25.320,0.049
25.325,0.068
25.330,0.089
25.335,0.108
25.340,0.123
25.345,0.129
25.350,0.129
25.355,0.130
25.360,0.131
25.365,0.131
25.370,0.124
25.375,0.116
25.380,0.114
25.385,0.110
25.390,0.105
25.395,0.096
25.400,0.088
25.405,0.083
25.410,0.078
25.415,0.067
25.420,0.060
25.425,0.059
25.430,0.057
25.435,0.052
25.440,0.040
25.445,0.029
25.450,0.026
25.455,0.022
25.460,0.020
25.465,0.022
25.470,0.020
25.475,0.012
25.480,0.004
25.485,0.003
25.490,0.006
25.495,0.007
25.500,0.006
25.505,0.005
25.510,0.003
25.515,0.002
25.520,0.004
25.525,0.010
25.530,0.011
25.535,0.008
25.540,0.005
25.545,0.006
25.550,0.008
25.555,0.010
25.560,0.011
25.565,0.008
25.570,0.003
25.575,0.006
25.580,0.009
25.585,0.006
25.590,0.002
25.595,0.001
25.600,0.000
25.605,-0.003
25.610,-0.007
25.615,-0.008
25.620,-0.004
25.625,-0.003
25.630,-0.003
25.635,-0.006
25.640,-0.008
25.645,-0.007
25.650,-0.014
25.655,-0.033
25.660,-0.050
25.665,-0.060
25.670,-0.074
25.675,-0.093
25.680,-0.092
25.685,-0.071
25.690,-0.046
25.695,-0.031
25.700,-0.029
25.705,-0.023
25.710,-0.011
25.715,-0.005
25.720,0.006
25.725,0.023
25.730,0.034
25.735,0.036
25.740,0.033
25.745,0.028
25.750,0.024
25.755,0.019
25.760,0.013
25.765,0.015
25.770,0.024
25.775,0.035
25.780,0.061
25.785,0.105
25.790,0.126
25.795,0.047
25.800,-0.131
25.805,-0.374
25.810,-0.711
25.815,-1.068
25.820,-1.207
25.825,-1.052
25.830,-0.680
25.835,-0.207
25.840,0.128
25.845,0.309
25.850,0.410
25.855,0.400
25.860,0.350
25.865,0.295
25.870,0.229
25.875,0.205
25.880,0.207
25.885,0.184
25.890,0.167
25.895,0.168
25.900,0.149
25.905,0.126
25.910,0.125
25.915,0.124
25.920,0.110
25.925,0.102
25.930,0.101
25.935,0.091
25.940,0.083
25.945,0.081
25.950,0.076
25.955,0.071
25.960,0.063
25.965,0.055
25.970,0.051
25.975,0.046
25.980,0.039
25.985,0.032
25.990,0.024
25.995,0.016
26.000,0.005
26.005,-0.005
26.010,-0.010
26.015,-0.022
26.020,-0.038
26.025,-0.053
26.030,-0.066
26.035,-0.076
26.040,-0.088
26.045,-0.101
26.050,-0.113
26.055,-0.121
26.060,-0.126
26.065,-0.133
26.070,-0.141
26.075,-0.143
26.080,-0.138
26.085,-0.131
26.090,-0.122
26.095,-0.110
26.100,-0.089
26.105,-0.059
26.110,-0.024
26.115,0.010
26.120,0.037
26.125,0.061
26.130,0.083
26.135,0.101
26.140,0.115
26.145,0.127
26.150,0.135
26.155,0.131
26.160,0.126
26.165,0.126
26.170,0.126
26.175,0.124
26.180,0.117
26.185,0.113
26.190,0.113
26.195,0.106
26.200,0.095
26.205,0.086
26.210,0.080
26.215,0.074
26.220,0.070
26.225,0.067
26.230,0.062
26.235,0.054
26.240,0.047
26.245,0.044
26.250,0.038
26.255,0.029
26.260,0.025
26.265,0.025
26.270,0.021
26.275,0.012
26.280,0.009
26.285,0.013
26.290,0.014
26.295,0.008
26.300,0.000
26.305,-0.002
26.310,0.002
26.315,0.004
26.320,0.001
26.325,-0.003
26.330,-0.004
26.335,0.000
26.340,0.004
26.345,0.002
26.350,0.002
26.355,0.004
26.360,0.005
26.365,0.002
26.370,0.001
26.375,0.003
26.380,0.005
26.385,0.006
26.390,0.000
26.395,-0.007
26.400,-0.006
26.405,-0.003
26.410,-0.003
26.415,-0.003
26.420,-0.005
26.425,-0.006
26.430,-0.004
26.435,-0.009
26.440,-0.012
26.445,-0.007
26.450,-0.005
26.455,-0.007
26.460,-0.015
26.465,-0.032
26.470,-0.046
26.475,-0.056
26.480,-0.071
26.485,-0.095
26.490,-0.104
26.495,-0.084
26.500,-0.060
26.505,-0.042
26.510,-0.032
26.515,-0.028
26.520,-0.014
26.525,-0.002
26.530,0.007
26.535,0.024
26.540,0.032
26.545,0.029
26.550,0.028
26.555,0.026
26.560,0.024
26.565,0.024
26.570,0.024
26.575,0.024
26.580,0.023
26.585,0.020
26.590,0.029
26.595,0.058
26.600,0.102
26.605,0.103
26.610,-0.004
26.615,-0.191
26.620,-0.452
26.625,-0.819
26.630,-1.123
26.635,-1.159
26.640,-0.935
26.645,-0.507
26.650,-0.063
26.655,0.206
26.660,0.360
26.665,0.421
26.670,0.382
26.675,0.328
26.680,0.265
26.685,0.210
26.690,0.208
26.695,0.206
26.700,0.175
26.705,0.161
26.710,0.159
26.715,0.145
26.720,0.138
26.725,0.137
26.730,0.119
26.735,0.101
26.740,0.104
26.745,0.108
26.750,0.099
26.755,0.089
26.760,0.086
26.765,0.078
26.770,0.066
26.775,0.055
26.780,0.049
26.785,0.048
26.790,0.049
26.795,0.044
26.800,0.031
26.805,0.018
26.810,0.008
26.815,-0.001
26.820,-0.010
26.825,-0.020
26.830,-0.032
26.835,-0.043
26.840,-0.055
26.845,-0.067
26.850,-0.078
26.855,-0.092
26.860,-0.110
26.865,-0.121
26.870,-0.127
26.875,-0.134
26.880,-0.136
26.885,-0.139
26.890,-0.139
26.895,-0.140
26.900,-0.140
26.905,-0.126
26.910,-0.107
26.915,-0.088
26.920,-0.062
26.925,-0.027
26.930,0.002
26.935,0.030
26.940,0.063
26.945,0.088
26.950,0.107
26.955,0.121
26.960,0.129
26.965,0.134
26.970,0.135
26.975,0.135
26.980,0.136
26.985,0.129
26.990,0.118
26.995,0.114
27.000,0.114
27.005,0.110
27.010,0.098
27.015,0.086
27.020,0.080
27.025,0.076
27.030,0.071
27.035,0.068
27.040,0.068
27.045,0.062
27.050,0.060
27.055,0.056
27.060,0.047
27.065,0.038
27.070,0.027
27.075,0.028
27.080,0.034
27.085,0.029
27.090,0.023
27.095,0.017
27.100,0.009
27.105,0.006
27.110,0.005
27.115,0.003
27.120,0.004
27.125,0.004
27.130,0.008
27.135,0.011
27.140,0.006
27.145,0.003
27.150,0.005
27.155,0.003
27.160,0.002
27.165,0.001
27.170,0.001
27.175,0.008
27.180,0.009
27.185,0.003
27.190,0.001
27.195,0.001
27.200,0.002
27.205,0.007
27.210,0.009
27.215,0.006
27.220,0.003
27.225,0.002
27.230,0.000
27.235,-0.005
27.240,-0.009
27.245,-0.010
27.250,-0.007
27.255,-0.009
27.260,-0.014
27.265,-0.011
27.270,-0.006
27.275,-0.007
27.280,-0.011
27.285,-0.015
27.290,-0.022
27.295,-0.032
27.300,-0.044
27.305,-0.064
27.310,-0.095
27.315,-0.108
27.320,-0.082
27.325,-0.051
27.330,-0.039
27.335,-0.036
27.340,-0.033
27.345,-0.019
27.350,-0.003
27.355,0.005
27.360,0.016
27.365,0.024
27.370,0.030
27.375,0.031
27.380,0.027
27.385,0.019
27.390,0.018
27.395,0.024
27.400,0.022
27.405,0.018
27.410,0.022
27.415,0.037
27.420,0.069
27.425,0.118
27.430,0.130
27.435,0.036
27.440,-0.163
27.445,-0.440
27.450,-0.811
27.455,-1.140
27.460,-1.201
27.465,-0.984
27.470,-0.570
27.475,-0.119
27.480,0.179
27.485,0.349
27.490,0.422
27.495,0.403
27.500,0.357
27.505,0.290
27.510,0.223
27.515,0.201
27.520,0.200
27.525,0.176
27.530,0.157
27.535,0.157
27.540,0.146
27.545,0.130
27.550,0.129
27.555,0.126
27.560,0.113
27.565,0.103
27.570,0.094
27.575,0.088
27.580,0.086
27.585,0.084
27.590,0.079
27.595,0.072
27.600,0.069
27.605,0.062
27.610,0.047
27.615,0.036
27.620,0.033
27.625,0.029
27.630,0.025
27.635,0.018
27.640,0.007
27.645,-0.002
27.650,-0.010
27.655,-0.022
27.660,-0.035
27.665,-0.048
27.670,-0.057
27.675,-0.070
27.680,-0.085
27.685,-0.096
27.690,-0.101
27.695,-0.108
27.700,-0.115
27.705,-0.120
27.710,-0.126
27.715,-0.130
27.720,-0.132
27.725,-0.130
27.730,-0.119
27.735,-0.102
27.740,-0.083
27.745,-0.058
27.750,-0.025
27.755,0.004
27.760,0.030
27.765,0.056
27.770,0.081
27.775,0.098
27.780,0.110
27.785,0.118
27.790,0.124
27.795,0.133
27.800,0.135
27.805,0.129
27.810,0.121
27.815,0.116
27.820,0.116
27.825,0.114
27.830,0.107
27.835,0.099
27.840,0.097
27.845,0.095
27.850,0.084
27.855,0.075
27.860,0.068
27.865,0.065
27.870,0.059
27.875,0.047
27.880,0.038
27.885,0.035
27.890,0.034
27.895,0.032
27.900,0.029
27.905,0.024
27.910,0.018
27.915,0.014
27.920,0.009
27.925,0.008
27.930,0.008
27.935,0.007
27.940,0.009
27.945,0.012
27.950,0.014
27.955,0.014
27.960,0.014
27.965,0.014
27.970,0.015
27.975,0.018
27.980,0.013
27.985,0.008
27.990,0.006
27.995,0.006
28.000,0.011
28.005,0.015
28.010,0.015
28.015,0.012
28.020,0.009
28.025,0.005
28.030,0.002
28.035,0.004
28.040,0.004
28.045,0.004
28.050,0.002
28.055,-0.002
28.060,-0.002
28.065,-0.004
28.070,-0.005
28.075,0.002
28.080,0.001
28.085,-0.006
28.090,-0.004
28.095,-0.001
28.100,-0.004
28.105,-0.007
28.110,-0.020
28.115,-0.035
28.120,-0.047
28.125,-0.064
28.130,-0.083
28.135,-0.094
28.140,-0.083
28.145,-0.062
28.150,-0.047
28.155,-0.036
28.160,-0.033
28.165,-0.023
28.170,-0.010
28.175,0.000
28.180,0.018
28.185,0.031
28.190,0.030
28.195,0.029
28.200,0.027
28.205,0.022
28.210,0.019
28.215,0.021
28.220,0.021
28.225,0.017
28.230,0.020
28.235,0.034
28.240,0.068
28.245,0.118
28.250,0.126
28.255,0.027
28.260,-0.167
28.265,-0.440
28.270,-0.807
28.275,-1.138
28.280,-1.215
28.285,-1.003
28.290,-0.594
28.295,-0.135
28.300,0.176
28.305,0.345
28.310,0.420
28.315,0.398
28.320,0.352
28.325,0.296
28.330,0.233
28.335,0.207
28.340,0.201
28.345,0.177
28.350,0.159
28.355,0.159
28.360,0.146
28.365,0.127
28.370,0.122
28.375,0.118
28.380,0.107
28.385,0.104
28.390,0.101
28.395,0.091
28.400,0.087
28.405,0.086
28.410,0.079
28.415,0.071
28.420,0.069
28.425,0.064
28.430,0.053
28.435,0.045
28.440,0.039
28.445,0.031
28.450,0.020
28.455,0.008
28.460,-0.001
28.465,-0.009
28.470,-0.016
28.475,-0.022
28.480,-0.034
28.485,-0.050
28.490,-0.067
28.495,-0.083
28.500,-0.094
28.505,-0.100
28.510,-0.105
28.515,-0.114
28.520,-0.125
28.525,-0.130
28.530,-0.133
28.535,-0.136
28.540,-0.136
28.545,-0.134
28.550,-0.124
28.555,-0.105
28.560,-0.087
28.565,-0.061
28.570,-0.032
28.575,-0.004
28.580,0.030
28.585,0.062
28.590,0.084
28.595,0.100
28.600,0.113
28.605,0.123
28.610,0.131
28.615,0.130
28.620,0.125
28.625,0.124
28.630,0.128
28.635,0.126
28.640,0.120
28.645,0.116
28.650,0.109
28.655,0.102
28.660,0.095
28.665,0.087
28.670,0.081
28.675,0.075
28.680,0.069
28.685,0.065
28.690,0.056
28.695,0.047
28.700,0.040
28.705,0.036
28.710,0.035
28.715,0.031
28.720,0.022
28.725,0.016
28.730,0.013
28.735,0.012
28.740,0.014
28.745,0.011
28.750,0.005
28.755,0.004
28.760,0.005
28.765,0.009
28.770,0.012
28.775,0.009
28.780,0.004
28.785,0.003
28.790,0.000
28.795,0.001
28.800,0.004
28.805,0.006
28.810,0.006
28.815,0.007
28.820,0.006
28.825,0.004
28.830,0.004
28.835,0.002
28.840,0.004
28.845,0.005
28.850,0.000
28.855,-0.002
28.860,-0.002
28.865,-0.003
28.870,0.000
28.875,0.000
28.880,-0.004
28.885,-0.005
28.890,-0.008
28.895,-0.006
28.900,-0.004
28.905,-0.006
28.910,-0.008
28.915,-0.010
28.920,-0.011
28.925,-0.012
28.930,-0.013
28.935,-0.011
28.940,-0.012
28.945,-0.021
28.950,-0.035
28.955,-0.053
28.960,-0.065
28.965,-0.077
28.970,-0.097
28.975,-0.097
28.980,-0.075
28.985,-0.055
28.990,-0.041
28.995,-0.037
29.000,-0.033
29.005,-0.012
29.010,0.005
29.015,0.014
29.020,0.024
29.025,0.026
29.030,0.022
29.035,0.024
29.040,0.023
29.045,0.021
29.050,0.024
29.055,0.021
29.060,0.016
29.065,0.020
29.070,0.029
29.075,0.047
29.080,0.086
29.085,0.118
29.090,0.077
29.095,-0.067
29.100,-0.296
29.105,-0.613
29.110,-0.988
29.115,-1.197
29.120,-1.110
29.125,-0.783
29.130,-0.311
29.135,0.068
29.140,0.276
29.145,0.396
29.150,0.414
29.155,0.369
29.160,0.310
29.165,0.244
29.170,0.212
29.175,0.213
29.180,0.192
29.185,0.165
29.190,0.168
29.195,0.166
29.200,0.144
29.205,0.133
29.210,0.128
29.215,0.113
29.220,0.104
29.225,0.106
29.230,0.104
29.235,0.095
29.240,0.086
29.245,0.078
29.250,0.069
29.255,0.066
29.260,0.064
29.265,0.061
29.270,0.058
29.275,0.051
29.280,0.036
29.285,0.023
29.290,0.018
29.295,0.015
29.300,0.006
29.305,-0.010
29.310,-0.022
29.315,-0.026
29.320,-0.032
29.325,-0.051
29.330,-0.069
29.335,-0.079
29.340,-0.089
29.345,-0.101
29.350,-0.115
29.355,-0.125
29.360,-0.129
29.365,-0.134
29.370,-0.140
29.375,-0.140
29.380,-0.136
29.385,-0.130
29.390,-0.119
29.395,-0.100
29.400,-0.075
29.405,-0.046
29.410,-0.016
29.415,0.016
29.420,0.048
29.425,0.075
29.430,0.095
29.435,0.115
29.440,0.131
29.445,0.136
29.450,0.137
29.455,0.139
29.460,0.139
29.465,0.134
29.470,0.128
29.475,0.126
29.480,0.122
29.485,0.112
29.490,0.100
29.495,0.095
29.500,0.095
29.505,0.091
29.510,0.086
29.515,0.077
29.520,0.067
29.525,0.062
29.530,0.058
29.535,0.052
29.540,0.044
29.545,0.038
29.550,0.036
29.555,0.034
29.560,0.027
29.565,0.021
29.570,0.019
29.575,0.016
29.580,0.012
29.585,0.004
29.590,0.000
29.595,0.002
29.600,0.002
29.605,0.001
29.610,0.000
29.615,0.001
29.620,0.001
29.625,0.003
29.630,0.002
29.635,0.001
29.640,0.005
29.645,0.005
29.650,0.002
29.655,0.004
29.660,0.004
29.665,0.002
29.670,-0.001
29.675,-0.003
29.680,-0.005
29.685,-0.005
29.690,-0.002
29.695,-0.002
29.700,-0.001
29.705,-0.003
29.710,-0.007
29.715,-0.004
29.720,-0.002
29.725,-0.006
29.730,-0.010
29.735,-0.011
29.740,-0.014
29.745,-0.018
29.750,-0.018
29.755,-0.015
29.760,-0.015
29.765,-0.014
29.770,-0.014
29.775,-0.011
29.780,-0.010
29.785,-0.027
29.790,-0.048
29.795,-0.060
29.800,-0.068
29.805,-0.082
29.810,-0.096
29.815,-0.090
29.820,-0.069
29.825,-0.049
29.830,-0.035
29.835,-0.034
29.840,-0.029
29.845,-0.016
29.850,-0.005
29.855,0.011
29.860,0.022
29.865,0.024
29.870,0.026
29.875,0.026
29.880,0.023
29.885,0.022
29.890,0.021
29.895,0.018
29.900,0.019
29.905,0.020
29.910,0.030
29.915,0.062
29.920,0.107
29.925,0.122
29.930,0.040
29.935,-0.142
29.940,-0.404
29.945,-0.767
29.950,-1.107
29.955,-1.203
29.960,-1.011
29.965,-0.610
29.970,-0.151
29.975,0.163
29.980,0.338
29.985,0.422
29.990,0.405
29.995,0.355
30.000,0.295
30.005,0.235
30.010,0.214
30.015,0.204
30.020,0.172
30.025,0.157
30.030,0.164
30.035,0.153
30.040,0.134
30.045,0.130
30.050,0.126
30.055,0.114
30.060,0.108
30.065,0.105
30.070,0.093
30.075,0.081
30.080,0.078
30.085,0.080
30.090,0.082
30.095,0.074
30.100,0.059
30.105,0.048
30.110,0.042
30.115,0.034
30.120,0.020
30.125,0.010
30.130,0.002
30.135,-0.006
30.140,-0.011
30.145,-0.015
30.150,-0.022
30.155,-0.038
30.160,-0.061
30.165,-0.071
30.170,-0.076
30.175,-0.084
30.180,-0.095
30.185,-0.107
30.190,-0.116
30.195,-0.121
30.200,-0.128
30.205,-0.134
30.210,-0.136
30.215,-0.134
30.220,-0.132
30.225,-0.123
30.230,-0.110
30.235,-0.093
30.240,-0.065
30.245,-0.037
30.250,-0.009
30.255,0.025
30.260,0.058
30.265,0.082
30.270,0.096
30.275,0.113
30.280,0.128
30.285,0.134
30.290,0.133
30.295,0.130
30.300,0.130
30.305,0.132
30.310,0.129
30.315,0.124
30.320,0.113
30.325,0.101
30.330,0.098
30.335,0.099
30.340,0.095
30.345,0.083
30.350,0.075
30.355,0.071
30.360,0.063
30.365,0.059
30.370,0.054
30.375,0.050
30.380,0.047
30.385,0.043
30.390,0.042
30.395,0.036
30.400,0.024
30.405,0.015
30.410,0.013
30.415,0.014
30.420,0.012
30.425,0.009
30.430,0.005
30.435,0.005
30.440,0.009
30.445,0.012
30.450,0.009
30.455,0.006
30.460,0.007
30.465,0.009
30.470,0.013
30.475,0.014
30.480,0.011
30.485,0.010
30.490,0.009
30.495,0.010
30.500,0.010
30.505,0.004
30.510,-0.002
30.515,-0.003
30.520,0.002
30.525,0.007
30.530,0.004
30.535,-0.002
30.540,0.000
30.545,0.001
30.550,0.000
30.555,-0.002
30.560,-0.002
30.565,-0.001
30.570,-0.004
30.575,-0.005
30.580,-0.006
30.585,-0.007
30.590,-0.006
30.595,-0.005
30.600,-0.008
30.605,-0.015
30.610,-0.026
30.615,-0.040
30.620,-0.053
30.625,-0.071
30.630,-0.094
30.635,-0.099
30.640,-0.079
30.645,-0.060
30.650,-0.047
30.655,-0.037
30.660,-0.032
30.665,-0.018
30.670,-0.005
30.675,0.003
30.680,0.019
30.685,0.028
30.690,0.029
30.695,0.034
30.700,0.032
30.705,0.025
30.710,0.021
30.715,0.016
30.720,0.010
30.725,0.010
30.730,0.017
30.735,0.043
30.740,0.087
30.745,0.131
30.750,0.115
30.755,-0.016
30.760,-0.237
30.765,-0.543
30.770,-0.931
30.775,-1.201
30.780,-1.170
30.785,-0.881
30.790,-0.428
30.795,-0.013
30.800,0.235
30.805,0.381
30.810,0.428
30.815,0.395
30.820,0.335
30.825,0.266
30.830,0.218
30.835,0.211
30.840,0.203
30.845,0.172
30.850,0.161
30.855,0.164
30.860,0.146
30.865,0.132
30.870,0.131
30.875,0.119
30.880,0.105
30.885,0.105
30.890,0.100
30.895,0.090
30.900,0.088
30.905,0.084
30.910,0.075
30.915,0.066
30.920,0.059
30.925,0.054
30.930,0.050
30.935,0.045
30.940,0.042
30.945,0.040
30.950,0.028
30.955,0.013
30.960,0.002
30.965,-0.010
30.970,-0.015
30.975,-0.021
30.980,-0.033
30.985,-0.049
30.990,-0.066
30.995,-0.076
31.000,-0.082
31.005,-0.093
31.010,-0.106
31.015,-0.109
31.020,-0.104
31.025,-0.107
31.030,-0.118
31.035,-0.127
31.040,-0.126
31.045,-0.117
31.050,-0.105
31.055,-0.089
31.060,-0.069
31.065,-0.046
31.070,-0.018
31.075,0.015
31.080,0.046
31.085,0.070
31.090,0.091
31.095,0.110
31.100,0.123
31.105,0.130
31.110,0.135
31.115,0.138
31.120,0.138
31.125,0.135
31.130,0.129
31.135,0.126
31.140,0.123
31.145,0.117
31.150,0.109
31.155,0.102
31.160,0.096
31.165,0.089
31.170,0.077
31.175,0.068
31.180,0.064
31.185,0.063
31.190,0.061
31.195,0.055
31.200,0.043
31.205,0.029
31.210,0.025
31.215,0.024
31.220,0.021
31.225,0.017
31.230,0.015
31.235,0.017
31.240,0.014
31.245,0.009
31.250,0.008
31.255,0.009
31.260,0.011
31.265,0.007
31.270,0.002
31.275,0.003
31.280,0.007
31.285,0.012
31.290,0.008
31.295,0.001
31.300,0.002
31.305,0.008
31.310,0.011
31.315,0.012
31.320,0.014
31.325,0.014
31.330,0.009
31.335,0.003
31.340,-0.003
31.345,-0.009
31.350,-0.006
31.355,-0.001
31.360,-0.002
31.365,-0.005
31.370,-0.007
31.375,-0.002
31.380,-0.001
31.385,-0.008
31.390,-0.012
31.395,-0.008
31.400,-0.004
31.405,-0.008
31.410,-0.014
31.415,-0.016
31.420,-0.016
31.425,-0.015
31.430,-0.023
31.435,-0.036
31.440,-0.045
31.445,-0.053
31.450,-0.073
31.455,-0.100
31.460,-0.100
31.465,-0.075
31.470,-0.053
31.475,-0.040
31.480,-0.037
31.485,-0.034
31.490,-0.021
31.495,-0.011
31.500,0.004
31.505,0.023
31.510,0.028
31.515,0.026
31.520,0.026
31.525,0.024
31.530,0.021
31.535,0.017
31.540,0.010
31.545,0.010
31.550,0.017
31.555,0.027
31.560,0.053
31.565,0.097
31.570,0.122
31.575,0.059
31.580,-0.112
31.585,-0.359
31.590,-0.696
31.595,-1.057
31.600,-1.211
31.605,-1.070
31.610,-0.710
31.615,-0.239
31.620,0.112
31.625,0.301
31.630,0.410
31.635,0.414
31.640,0.364
31.645,0.305
31.650,0.238
31.655,0.210
31.660,0.210
31.665,0.182
31.670,0.159
31.675,0.166
31.680,0.157
31.685,0.133
31.690,0.128
31.695,0.125
31.700,0.113
31.705,0.109
31.710,0.107
31.715,0.098
31.720,0.091
31.725,0.087
31.730,0.079
31.735,0.071
31.740,0.066
31.745,0.064
31.750,0.060
31.755,0.051
31.760,0.042
31.765,0.037
31.770,0.032
31.775,0.024
31.780,0.012
31.785,0.000
31.790,-0.008
31.795,-0.018
31.800,-0.033
31.805,-0.048
31.810,-0.059
31.815,-0.068
31.820,-0.076
31.825,-0.089
31.830,-0.106
31.835,-0.122
31.840,-0.125
31.845,-0.124
31.850,-0.128
31.855,-0.132
31.860,-0.131
31.865,-0.127
31.870,-0.124
31.875,-0.115
31.880,-0.095
31.885,-0.067
31.890,-0.035
31.895,-0.005
31.900,0.027
31.905,0.058
31.910,0.078
31.915,0.095
31.920,0.111
31.925,0.123
31.930,0.134
31.935,0.139
31.940,0.136
31.945,0.137
31.950,0.136
31.955,0.132
31.960,0.127
31.965,0.122
31.970,0.114
31.975,0.108
31.980,0.102
31.985,0.096
31.990,0.092
31.995,0.085
32.000,0.076
32.005,0.069
32.010,0.063
32.015,0.056
32.020,0.049
32.025,0.041
32.030,0.035
32.035,0.030
32.040,0.027
32.045,0.028
32.050,0.026
32.055,0.021
32.060,0.018
32.065,0.011
32.070,0.006
32.075,0.004
32.080,0.004
32.085,0.008
32.090,0.008
32.095,0.004
32.100,0.003
32.105,0.003
32.110,0.000
32.115,-0.004
32.120,-0.003
32.125,0.001
32.130,0.001
32.135,-0.003
32.140,-0.001
32.145,0.007
32.150,0.012
32.155,0.007
32.160,0.001
32.165,0.000
32.170,0.002
32.175,0.002
32.180,-0.002
32.185,-0.007
32.190,-0.008
32.195,-0.005
32.200,-0.005
32.205,-0.009
32.210,-0.013
32.215,-0.010
32.220,-0.006
32.225,-0.009
32.230,-0.016
32.235,-0.021
32.240,-0.019
32.245,-0.018
32.250,-0.021
32.255,-0.023
32.260,-0.026
32.265,-0.034
32.270,-0.045
32.275,-0.057
32.280,-0.073
32.285,-0.094
32.290,-0.103
32.295,-0.086
32.300,-0.064
32.305,-0.051
32.310,-0.044
32.315,-0.039
32.320,-0.028
32.325,-0.016
32.330,-0.002
32.335,0.014
32.340,0.023
32.345,0.026
32.350,0.029
32.355,0.031
32.360,0.026
32.365,0.021
32.370,0.019
32.375,0.016
32.380,0.016
32.385,0.023
32.390,0.044
32.395,0.084
32.400,0.120
32.405,0.096
32.410,-0.032
32.415,-0.243
32.420,-0.537
32.425,-0.917
32.430,-1.180
32.435,-1.153
32.440,-0.879
32.445,-0.422
32.450,0.004
32.455,0.249
32.460,0.388
32.465,0.421
32.470,0.376
32.475,0.323
32.480,0.257
32.485,0.211
32.490,0.212
32.495,0.201
32.500,0.171
32.505,0.167
32.510,0.166
32.515,0.143
32.520,0.131
32.525,0.128
32.530,0.116
32.535,0.113
32.540,0.116
32.545,0.108
32.550,0.092
32.555,0.089
32.560,0.090
32.565,0.082
32.570,0.072
32.575,0.062
32.580,0.052
32.585,0.047
32.590,0.044
32.595,0.041
32.600,0.035
32.605,0.023
32.610,0.012
32.615,0.004
32.620,-0.004
32.625,-0.014
32.630,-0.027
32.635,-0.038
32.640,-0.050
32.645,-0.063
32.650,-0.078
32.655,-0.089
32.660,-0.093
32.665,-0.104
32.670,-0.118
32.675,-0.128
32.680,-0.133
32.685,-0.137
32.690,-0.140
32.695,-0.135
32.700,-0.127
32.705,-0.119
32.710,-0.107
32.715,-0.086
32.720,-0.057
32.725,-0.025
32.730,0.009
32.735,0.043
32.740,0.069
32.745,0.087
32.750,0.108
32.755,0.128
32.760,0.141
32.765,0.147
32.770,0.144
32.775,0.137
32.780,0.132
32.785,0.129
32.790,0.129
32.795,0.127
32.800,0.115
32.805,0.106
32.810,0.106
32.815,0.103
32.820,0.096
32.825,0.089
32.830,0.080
32.835,0.074
32.840,0.071
32.845,0.067
32.850,0.060
32.855,0.051
32.860,0.044
32.865,0.040
32.870,0.033
32.875,0.023
32.880,0.018
32.885,0.020
32.890,0.020
32.895,0.013
32.900,0.012
32.905,0.012
32.910,0.009
32.915,0.005
32.920,0.002
32.925,0.007
32.930,0.008
32.935,0.005
32.940,0.007
32.945,0.008
32.950,0.007
32.955,0.003
32.960,0.002
32.965,0.004
32.970,0.001
32.975,-0.010
32.980,-0.013
32.985,-0.001
32.990,0.004
32.995,-0.005
33.000,-0.009
33.005,-0.004
33.010,0.002
33.015,0.006
33.020,0.007
33.025,0.008
33.030,0.005
33.035,0.000
33.040,-0.001
33.045,-0.001
33.050,-0.004
33.055,-0.006
33.060,-0.004
33.065,-0.006
33.070,-0.010
33.075,-0.009
33.080,-0.010
33.085,-0.016
33.090,-0.028
33.095,-0.046
33.100,-0.058
33.105,-0.073
33.110,-0.096
33.115,-0.101
33.120,-0.080
33.125,-0.059
33.130,-0.046
33.135,-0.045
33.140,-0.039
33.145,-0.018
33.150,-0.005
33.155,0.007
33.160,0.023
33.165,0.028
33.170,0.025
33.175,0.022
33.180,0.023
33.185,0.025
33.190,0.022
33.195,0.017
33.200,0.016
33.205,0.017
33.210,0.023
33.215,0.044
33.220,0.091
33.225,0.134
33.230,0.094
33.235,-0.057
33.240,-0.290
33.245,-0.607
33.250,-0.984
33.255,-1.208
33.260,-1.125
33.265,-0.804
33.270,-0.345
33.275,0.042
33.280,0.264
33.285,0.390
33.290,0.415
33.295,0.379
33.300,0.329
33.305,0.262
33.310,0.214
33.315,0.205
33.320,0.192
33.325,0.165
33.330,0.156
33.335,0.155
33.340,0.139
33.345,0.129
33.350,0.126
33.355,0.112
33.360,0.100
33.365,0.102
33.370,0.102
33.375,0.094
33.380,0.086
33.385,0.080
33.390,0.069
33.395,0.068
33.400,0.063
33.405,0.050
33.410,0.046
33.415,0.046
33.420,0.039
33.425,0.028
33.430,0.016
33.435,0.009
33.440,0.007
33.445,-0.001
33.450,-0.018
33.455,-0.028
33.460,-0.035
33.465,-0.049
33.470,-0.066
33.475,-0.082
33.480,-0.095
33.485,-0.100
33.490,-0.105
33.495,-0.111
33.500,-0.117
33.505,-0.127
33.510,-0.131
33.515,-0.126
33.520,-0.123
33.525,-0.119
33.530,-0.111
33.535,-0.094
33.540,-0.070
33.545,-0.046
33.550,-0.021
33.555,0.012
33.560,0.047
33.565,0.075
33.570,0.092
33.575,0.102
33.580,0.111
33.585,0.122
33.590,0.128
33.595,0.128
33.600,0.124
33.605,0.120
33.610,0.120
33.615,0.120
33.620,0.116
33.625,0.110
33.630,0.104
33.635,0.097
33.640,0.089
33.645,0.080
33.650,0.076
33.655,0.069
33.660,0.062
33.665,0.056
33.670,0.049
33.675,0.046
33.680,0.039
33.685,0.033
33.690,0.029
33.695,0.022
33.700,0.018
33.705,0.018
33.710,0.017
33.715,0.014
33.720,0.009
33.725,0.004
33.730,0.003
33.735,0.006
33.740,0.009
33.745,0.012
33.750,0.015
33.755,0.019
33.760,0.014
33.765,0.005
33.770,0.004
33.775,0.009
33.780,0.011
33.785,0.009
33.790,0.008
33.795,0.008
33.800,0.007
33.805,0.008
33.810,0.011
33.815,0.009
33.820,0.003
33.825,0.000
33.830,0.000
33.835,0.004
33.840,0.002
33.845,-0.005
33.850,-0.007
33.855,-0.004
33.860,0.003
33.865,0.006
33.870,-0.006
33.875,-0.014
33.880,-0.009
33.885,-0.001
33.890,0.000
33.895,-0.003
33.900,-0.006
33.905,-0.011
33.910,-0.016
33.915,-0.023
33.920,-0.035
33.925,-0.048
33.930,-0.062
33.935,-0.084
33.940,-0.103
33.945,-0.100
33.950,-0.076
33.955,-0.051
33.960,-0.040
33.965,-0.035
33.970,-0.028
33.975,-0.017
33.980,-0.006
33.985,0.013
33.990,0.028
33.995,0.029
34.000,0.028
34.005,0.030
34.010,0.026
34.015,0.019
34.020,0.018
34.025,0.019
34.030,0.018
34.035,0.018
34.040,0.029
34.045,0.060
34.050,0.106
34.055,0.122
34.060,0.039
34.065,-0.144
34.070,-0.404
34.075,-0.759
34.080,-1.101
34.085,-1.206
34.090,-1.027
34.095,-0.639
34.100,-0.176
34.105,0.150
34.110,0.329
34.115,0.416
34.120,0.399
34.125,0.350
34.130,0.296
34.135,0.233
34.140,0.209
34.145,0.205
34.150,0.180
34.155,0.165
34.160,0.167
34.165,0.153
34.170,0.136
34.175,0.136
34.180,0.132
34.185,0.114
34.190,0.103
34.195,0.098
34.200,0.091
34.205,0.088
34.210,0.087
34.215,0.080
34.220,0.070
34.225,0.068
34.230,0.066
34.235,0.058
34.240,0.048
34.245,0.038
34.250,0.031
34.255,0.028
34.260,0.020
34.265,0.011
34.270,0.002
34.275,-0.009
34.280,-0.019
34.285,-0.033
34.290,-0.048
34.295,-0.059
34.300,-0.074
34.305,-0.090
34.310,-0.099
34.315,-0.110
34.320,-0.121
34.325,-0.123
34.330,-0.123
34.335,-0.127
34.340,-0.132
34.345,-0.133
34.350,-0.132
34.355,-0.126
34.360,-0.112
34.365,-0.091
34.370,-0.063
34.375,-0.037
34.380,-0.009
34.385,0.023
34.390,0.056
34.395,0.083
34.400,0.102
34.405,0.116
34.410,0.127
34.415,0.131
34.420,0.132
34.425,0.132
34.430,0.132
34.435,0.128
34.440,0.125
34.445,0.120
34.450,0.116
34.455,0.110
34.460,0.102
34.465,0.097
34.470,0.092
34.475,0.086
34.480,0.077
34.485,0.072
34.490,0.066
34.495,0.057
34.500,0.047
34.505,0.039
34.510,0.038
34.515,0.036
34.520,0.030
34.525,0.028
34.530,0.027
34.535,0.023
34.540,0.016
34.545,0.008
34.550,0.008
34.555,0.009
34.560,0.003
34.565,0.002
34.570,0.007
34.575,0.007
34.580,0.003
34.585,0.004
34.590,0.003
34.595,0.001
34.600,0.001
34.605,0.000
34.610,0.003
34.615,0.009
34.620,0.009
34.625,0.009
34.630,0.005
34.635,-0.001
34.640,0.000
34.645,0.005
34.650,0.004
34.655,0.000
34.660,-0.004
34.665,-0.004
34.670,0.001
34.675,0.002
34.680,-0.002
34.685,-0.006
34.690,-0.009
34.695,-0.006
34.700,-0.005
34.705,-0.009
34.710,-0.010
34.715,-0.010
34.720,-0.010
34.725,-0.008
34.730,-0.011
34.735,-0.017
34.740,-0.027
34.745,-0.040
34.750,-0.051
34.755,-0.063
34.760,-0.087
34.765,-0.106
34.770,-0.094
34.775,-0.068
34.780,-0.048
34.785,-0.035
34.790,-0.036
34.795,-0.030
34.800,-0.016
34.805,-0.007
34.810,0.013
34.815,0.034
34.820,0.038
34.825,0.034
34.830,0.026
34.835,0.022
34.840,0.023
34.845,0.020
34.850,0.013
34.855,0.012
34.860,0.026
34.865,0.044
34.870,0.068
34.875,0.107
34.880,0.113
34.885,0.018
34.890,-0.168
34.895,-0.426
34.900,-0.785
34.905,-1.107
34.910,-1.173
34.915,-0.970
34.920,-0.566
34.925,-0.113
34.930,0.181
34.935,0.347
34.940,0.424
34.945,0.393
34.950,0.339
34.955,0.278
34.960,0.217
34.965,0.204
34.970,0.201
34.975,0.172
34.980,0.156
34.985,0.156
34.990,0.142
34.995,0.131
35.000,0.135
35.005,0.130
35.010,0.114
35.015,0.110
35.020,0.105
35.025,0.089
35.030,0.082
35.035,0.083
35.040,0.079
35.045,0.072
35.050,0.065
35.055,0.059
35.060,0.053
35.065,0.047
35.070,0.037
35.075,0.025
35.080,0.018
35.085,0.015
35.090,0.010
35.095,-0.001
35.100,-0.014
35.105,-0.025
35.110,-0.037
35.115,-0.048
35.120,-0.060
35.125,-0.072
35.130,-0.087
35.135,-0.101
35.140,-0.112
35.145,-0.120
35.150,-0.126
35.155,-0.133
35.160,-0.142
35.165,-0.147
35.170,-0.147
35.175,-0.143
35.180,-0.130
35.185,-0.114
35.190,-0.093
35.195,-0.064
35.200,-0.034
35.205,-0.003
35.210,0.027
35.215,0.056
35.220,0.085
35.225,0.107
35.230,0.122
35.235,0.134
35.240,0.139
35.245,0.140
35.250,0.133
35.255,0.130
35.260,0.129
35.265,0.125
35.270,0.123
35.275,0.116
35.280,0.108
35.285,0.103
35.290,0.100
35.295,0.099
35.300,0.094
35.305,0.087
35.310,0.079
35.315,0.069
35.320,0.060
35.325,0.056
35.330,0.050
35.335,0.045
35.340,0.040
35.345,0.035
35.350,0.029
35.355,0.022
35.360,0.019
35.365,0.017
35.370,0.018
35.375,0.022
35.380,0.024
35.385,0.019
35.390,0.011
35.395,0.006
35.400,0.008
35.405,0.009
35.410,0.005
35.415,0.004
35.420,0.003
35.425,0.001
35.430,0.000
35.435,0.002
35.440,0.006
35.445,0.006
35.450,0.007
35.455,0.005
35.460,0.001
35.465,0.003
35.470,0.001
35.475,0.004
35.480,0.007
35.485,0.002
35.490,0.002
35.495,0.002
35.500,-0.002
35.505,-0.006
35.510,-0.008
35.515,-0.005
35.520,-0.003
35.525,-0.005
35.530,-0.009
35.535,-0.009
35.540,-0.008
35.545,-0.007
35.550,-0.007
35.555,-0.011
35.560,-0.016
35.565,-0.030
35.570,-0.050
35.575,-0.062
35.580,-0.078
35.585,-0.097
35.590,-0.093
35.595,-0.072
35.600,-0.051
35.605,-0.036
35.610,-0.034
35.615,-0.031
35.620,-0.016
35.625,0.000
35.630,0.018
35.635,0.032
35.640,0.027
35.645,0.018
35.650,0.021
35.655,0.022
35.660,0.021
35.665,0.020
35.670,0.016
35.675,0.013
35.680,0.019
35.685,0.032
35.690,0.056
35.695,0.099
35.700,0.125
35.705,0.061
35.710,-0.104
35.715,-0.350
35.720,-0.695
35.725,-1.059
35.730,-1.209
35.735,-1.056
35.740,-0.685
35.745,-0.225
35.750,0.114
35.755,0.306
35.760,0.413
35.765,0.412
35.770,0.361
35.775,0.303
35.780,0.236
35.785,0.203
35.790,0.200
35.795,0.178
35.800,0.161
35.805,0.163
35.810,0.149
35.815,0.125
35.820,0.121
35.825,0.121
35.830,0.110
35.835,0.102
35.840,0.100
35.845,0.097
35.850,0.093
35.855,0.091
35.860,0.083
35.865,0.072
35.870,0.062
35.875,0.053
35.880,0.047
35.885,0.041
35.890,0.038
35.895,0.037
35.900,0.033
35.905,0.022
35.910,0.007
35.915,-0.006
35.920,-0.013
35.925,-0.016
35.930,-0.030
35.935,-0.048
35.940,-0.054
35.945,-0.066
35.950,-0.084
35.955,-0.096
35.960,-0.103
35.965,-0.105
35.970,-0.110
35.975,-0.119
35.980,-0.126
35.985,-0.129
35.990,-0.126
35.995,-0.119
36.000,-0.109
36.005,-0.105
36.010,-0.096
36.015,-0.073
36.020,-0.046
36.025,-0.019
36.030,0.011
36.035,0.043
36.040,0.073
36.045,0.093
36.050,0.106
36.055,0.120
36.060,0.131
36.065,0.135
36.070,0.134
36.075,0.129
36.080,0.122
36.085,0.121
36.090,0.120
36.095,0.115
36.100,0.109
36.105,0.101
36.110,0.094
36.115,0.087
36.120,0.081
36.125,0.074
36.130,0.065
36.135,0.059
36.140,0.057
36.145,0.053
36.150,0.048
36.155,0.039
36.160,0.033
36.165,0.030
36.170,0.027
36.175,0.026
36.180,0.023
36.185,0.013
36.190,0.007
36.195,0.010
36.200,0.013
36.205,0.012
36.210,0.010
36.215,0.008
36.220,0.006
36.225,0.008
36.230,0.012
36.235,0.011
36.240,0.007
36.245,0.007
36.250,0.014
36.255,0.018
36.260,0.009
36.265,0.005
36.270,0.011
36.275,0.013
36.280,0.011
36.285,0.008
36.290,0.010
36.295,0.014
36.300,0.007
36.305,-0.002
36.310,-0.003
36.315,-0.004
36.320,-0.007
36.325,-0.005
36.330,-0.003
36.335,-0.005
36.340,-0.012
36.345,-0.016
36.350,-0.008
36.355,0.002
36.360,0.001
36.365,-0.007
36.370,-0.013
36.375,-0.021
36.380,-0.034
36.385,-0.052
36.390,-0.077
36.395,-0.098
36.400,-0.093
36.405,-0.069
36.410,-0.047
36.415,-0.032
36.420,-0.030
36.425,-0.027
36.430,-0.013
36.435,-0.002
36.440,0.012
36.445,0.025
36.450,0.027
36.455,0.026
36.460,0.025
36.465,0.020
36.470,0.023
36.475,0.028
36.480,0.022
36.485,0.014
36.490,0.017
36.495,0.033
36.500,0.061
36.505,0.102
36.510,0.129
36.515,0.066
36.520,-0.108
36.525,-0.362
36.530,-0.709
36.535,-1.075
36.540,-1.221
36.545,-1.067
36.550,-0.701
36.555,-0.236
36.560,0.109
36.565,0.304
36.570,0.417
36.575,0.415
36.580,0.364
36.585,0.307
36.590,0.240
36.595,0.206
36.600,0.205
36.605,0.185
36.610,0.162
36.615,0.164
36.620,0.154
36.625,0.133
36.630,0.134
36.635,0.132
36.640,0.114
36.645,0.104
36.650,0.103
36.655,0.097
36.660,0.089
36.665,0.088
36.670,0.085
36.675,0.077
36.680,0.069
36.685,0.058
36.690,0.051
36.695,0.048
36.700,0.042
36.705,0.035
36.710,0.027
36.715,0.017
36.720,0.007
36.725,-0.002
36.730,-0.013
36.735,-0.025
36.740,-0.034
36.745,-0.043
36.750,-0.055
36.755,-0.074
36.760,-0.089
36.765,-0.097
36.770,-0.105
36.775,-0.113
36.780,-0.123
36.785,-0.130
36.790,-0.128
36.795,-0.125
36.800,-0.126
36.805,-0.128
36.810,-0.125
36.815,-0.110
36.820,-0.090
36.825,-0.067
36.830,-0.040
36.835,-0.007
36.840,0.026
36.845,0.051
36.850,0.073
36.855,0.092
36.860,0.108
36.865,0.121
36.870,0.131
36.875,0.137
36.880,0.134
36.885,0.132
36.890,0.131
36.895,0.127
36.900,0.123
36.905,0.116
36.910,0.111
36.915,0.107
36.920,0.101
36.925,0.089
36.930,0.078
36.935,0.071
36.940,0.065
36.945,0.061
36.950,0.055
36.955,0.049
36.960,0.047
36.965,0.044
36.970,0.038
36.975,0.030
36.980,0.023
36.985,0.020
36.990,0.017
36.995,0.009
37.000,0.008
37.005,0.016
37.010,0.017
37.015,0.013
37.020,0.006
37.025,0.001
37.030,0.005
37.035,0.006
37.040,0.002
37.045,0.007
37.050,0.009
37.055,0.005
37.060,0.007
37.065,0.007
37.070,0.007
37.075,0.010
37.080,0.006
37.085,0.002
37.090,0.006
37.095,0.007
37.100,0.003
37.105,-0.002
37.110,-0.005
37.115,-0.004
37.120,-0.002
37.125,-0.002
37.130,0.000
37.135,0.000
37.140,-0.003
37.145,-0.005
37.150,-0.010
37.155,-0.009
37.160,-0.010
37.165,-0.010
37.170,-0.002
37.175,-0.001
37.180,-0.011
37.185,-0.021
37.190,-0.028
37.195,-0.037
37.200,-0.049
37.205,-0.063
37.210,-0.085
37.215,-0.104
37.220,-0.095
37.225,-0.069
37.230,-0.045
37.235,-0.035
37.240,-0.038
37.245,-0.029
37.250,-0.009
37.255,0.002
37.260,0.013
37.265,0.021
37.270,0.019
37.275,0.023
37.280,0.029
37.285,0.028
37.290,0.025
37.295,0.020
37.300,0.017
37.305,0.016
37.310,0.018
37.315,0.034
37.320,0.065
37.325,0.109
37.330,0.120
37.335,0.027
37.340,-0.158
37.345,-0.414
37.350,-0.766
37.355,-1.102
37.360,-1.198
37.365,-1.016
37.370,-0.627
37.375,-0.159
37.380,0.160
37.385,0.331
37.390,0.419
37.395,0.398
37.400,0.344
37.405,0.290
37.410,0.230
37.415,0.212
37.420,0.214
37.425,0.184
37.430,0.162
37.435,0.166
37.440,0.155
37.445,0.134
37.450,0.126
37.455,0.116
37.460,0.105
37.465,0.109
37.470,0.110
37.475,0.098
37.480,0.094
37.485,0.089
37.490,0.078
37.495,0.071
37.500,0.065
37.505,0.057
37.510,0.050
37.515,0.043
37.520,0.040
37.525,0.032
37.530,0.024
37.535,0.021
37.540,0.011
37.545,-0.001
37.550,-0.010
37.555,-0.025
37.560,-0.038
37.565,-0.048
37.570,-0.058
37.575,-0.067
37.580,-0.080
37.585,-0.096
37.590,-0.107
37.595,-0.117
37.600,-0.126
37.605,-0.132
37.610,-0.136
37.615,-0.141
37.620,-0.145
37.625,-0.141
37.630,-0.126
37.635,-0.106
37.640,-0.082
37.645,-0.058
37.650,-0.032
37.655,-0.003
37.660,0.025
37.665,0.056
37.670,0.087
37.675,0.107
37.680,0.118
37.685,0.127
37.690,0.133
37.695,0.136
37.700,0.136
37.705,0.134
37.710,0.131
37.715,0.129
37.720,0.125
37.725,0.114
37.730,0.108
37.735,0.105
37.740,0.097
37.745,0.091
37.750,0.084
37.755,0.076
37.760,0.075
37.765,0.070
37.770,0.062
37.775,0.058
37.780,0.047
37.785,0.039
37.790,0.036
37.795,0.033
37.800,0.028
37.805,0.024
37.810,0.023
37.815,0.018
37.820,0.015
37.825,0.013
37.830,0.010
37.835,0.006
37.840,0.004
37.845,0.001
37.850,0.003
37.855,0.002
37.860,-0.001
37.865,0.002
37.870,0.002
37.875,-0.004
37.880,-0.005
37.885,-0.003
37.890,0.000
37.895,0.004
37.900,0.006
37.905,0.005
37.910,0.005
37.915,0.004
37.920,0.000
37.925,-0.004
37.930,-0.004
37.935,0.002
37.940,0.006
37.945,0.003
37.950,-0.004
37.955,-0.011
37.960,-0.010
37.965,-0.007
37.970,-0.008
37.975,-0.008
37.980,-0.009
37.985,-0.010
37.990,-0.007
37.995,-0.009
38.000,-0.011
38.005,-0.008
38.010,-0.012
38.015,-0.019
38.020,-0.024
38.025,-0.037
38.030,-0.050
38.035,-0.064
38.040,-0.087
38.045,-0.107
38.050,-0.101
38.055,-0.076
38.060,-0.051
38.065,-0.037
38.070,-0.037
38.075,-0.030
38.080,-0.012
38.085,-0.004
38.090,0.006
38.095,0.025
38.100,0.034
38.105,0.034
38.110,0.030
38.115,0.023
38.120,0.020
38.125,0.022
38.130,0.019
38.135,0.015
38.140,0.019
38.145,0.031
38.150,0.059
38.155,0.099
38.160,0.109
38.165,0.026
38.170,-0.151
38.175,-0.404
38.180,-0.761
38.185,-1.096
38.190,-1.185
38.195,-1.002
38.200,-0.611
38.205,-0.151
38.210,0.161
38.215,0.333
38.220,0.418
38.225,0.397
38.230,0.347
38.235,0.288
38.240,0.225
38.245,0.209
38.250,0.209
38.255,0.180
38.260,0.158
38.265,0.157
38.270,0.145
38.275,0.130
38.280,0.128
38.285,0.119
38.290,0.108
38.295,0.112
38.300,0.111
38.305,0.097
38.310,0.085
38.315,0.080
38.320,0.080
38.325,0.078
38.330,0.072
38.335,0.062
38.340,0.053
38.345,0.047
38.350,0.041
38.355,0.034
38.360,0.029
38.365,0.021
38.370,0.011
38.375,-0.003
38.380,-0.016
38.385,-0.029
38.390,-0.040
38.395,-0.049
38.400,-0.061
38.405,-0.074
38.410,-0.090
38.415,-0.098
38.420,-0.103
38.425,-0.114
38.430,-0.122
38.435,-0.127
38.440,-0.132
38.445,-0.137
38.450,-0.141
38.455,-0.135
38.460,-0.123
38.465,-0.110
38.470,-0.093
38.475,-0.064
38.480,-0.034
38.485,-0.011
38.490,0.018
38.495,0.050
38.500,0.076
38.505,0.096
38.510,0.110
38.515,0.124
38.520,0.139
38.525,0.140
38.530,0.137
38.535,0.136
38.540,0.132
38.545,0.130
38.550,0.128
38.555,0.121
38.560,0.115
38.565,0.109
38.570,0.101
38.575,0.092
38.580,0.083
38.585,0.078
38.590,0.073
38.595,0.070
38.600,0.065
38.605,0.054
38.610,0.047
38.615,0.044
38.620,0.040
38.625,0.038
38.630,0.032
38.635,0.026
38.640,0.024
38.645,0.022
38.650,0.016
38.655,0.015
38.660,0.014
38.665,0.007
38.670,0.006
38.675,0.009
38.680,0.006
38.685,0.006
38.690,0.003
38.695,-0.001
38.700,0.004
38.705,0.008
38.710,0.008
38.715,0.010
38.720,0.002
38.725,-0.005
38.730,0.002
38.735,0.004
38.740,0.008
38.745,0.017
38.750,0.014
38.755,0.006
38.760,-0.004
38.765,-0.013
38.770,-0.006
38.775,0.002
38.780,0.003
38.785,0.004
38.790,-0.001
38.795,-0.007
38.800,-0.007
38.805,-0.008
38.810,-0.011
38.815,-0.011
38.820,-0.003
38.825,0.003
38.830,-0.003
38.835,-0.013
38.840,-0.021
38.845,-0.028
38.850,-0.039
38.855,-0.057
38.860,-0.078
38.865,-0.098
38.870,-0.096
38.875,-0.073
38.880,-0.053
38.885,-0.043
38.890,-0.040
38.895,-0.029
38.900,-0.010
38.905,-0.001
38.910,0.011
38.915,0.027
38.920,0.029
38.925,0.031
38.930,0.033
38.935,0.026
38.940,0.017
38.945,0.014
38.950,0.015
38.955,0.015
38.960,0.014
38.965,0.020
38.970,0.050
38.975,0.102
38.980,0.141
38.985,0.090
38.990,-0.078
38.995,-0.330
39.000,-0.669
39.005,-1.039
39.010,-1.215
39.015,-1.086
39.020,-0.736
39.025,-0.275
39.030,0.086
39.035,0.288
39.040,0.397
39.045,0.410
39.050,0.370
39.055,0.314
39.060,0.247
39.065,0.208
39.070,0.207
39.075,0.194
39.080,0.165
39.085,0.158
39.090,0.149
39.095,0.127
39.100,0.125
39.105,0.125
39.110,0.110
39.115,0.100
39.120,0.099
39.125,0.094
39.130,0.084
39.135,0.083
39.140,0.084
39.145,0.072
39.150,0.062
39.155,0.056
39.160,0.049
39.165,0.043
39.170,0.040
39.175,0.036
39.180,0.028
39.185,0.018
39.190,0.009
39.195,-0.001
39.200,-0.013
39.205,-0.022
39.210,-0.029
39.215,-0.043
39.220,-0.061
39.225,-0.076
39.230,-0.085
39.235,-0.089
39.240,-0.093
39.245,-0.100
39.250,-0.116
39.255,-0.131
39.260,-0.125
39.265,-0.117
39.270,-0.122
39.275,-0.124
39.280,-0.123
39.285,-0.113
39.290,-0.094
39.295,-0.070
39.300,-0.038
39.305,-0.009
39.310,0.017
39.315,0.041
39.320,0.061
39.325,0.080
39.330,0.099
39.335,0.119
39.340,0.132
39.345,0.133
39.350,0.133
39.355,0.135
39.360,0.127
39.365,0.117
39.370,0.114
39.375,0.112
39.380,0.109
39.385,0.106
39.390,0.096
39.395,0.081
39.400,0.076
39.405,0.076
39.410,0.074
39.415,0.065
39.420,0.053
39.425,0.051
39.430,0.052
39.435,0.041
39.440,0.028
39.445,0.026
39.450,0.030
39.455,0.028
39.460,0.022
39.465,0.016
39.470,0.014
39.475,0.012
39.480,0.007
39.485,0.004
39.490,0.006
39.495,0.012
39.500,0.016
39.505,0.013
39.510,0.010
39.515,0.007
39.520,0.004
39.525,0.006
39.530,0.014
39.535,0.017
39.540,0.014
39.545,0.011
39.550,0.009
39.555,0.009
39.560,0.010
39.565,0.006
39.570,0.006
39.575,0.009
39.580,0.004
39.585,0.001
39.590,0.002
39.595,0.000
39.600,0.001
39.605,0.000
39.610,-0.005
39.615,-0.005
39.620,-0.002
39.625,-0.001
39.630,-0.005
39.635,-0.010
39.640,-0.011
39.645,-0.004
39.650,-0.006
39.655,-0.014
39.660,-0.012
39.665,-0.017
39.670,-0.034
39.675,-0.054
39.680,-0.077
39.685,-0.097
39.690,-0.094
39.695,-0.072
39.700,-0.051
39.705,-0.039
39.710,-0.037
39.715,-0.035
39.720,-0.018
39.725,-0.006
39.730,0.004
39.735,0.022
39.740,0.027
39.745,0.021
39.750,0.025
39.755,0.027
39.760,0.023
39.765,0.022
39.770,0.016
39.775,0.013
39.780,0.023
39.785,0.033
39.790,0.052
39.795,0.092
39.800,0.124
39.805,0.084
39.810,-0.066
39.815,-0.302
39.820,-0.619
39.825,-0.994
39.830,-1.210
39.835,-1.124
39.840,-0.807
39.845,-0.346
39.850,0.040
39.855,0.265
39.860,0.404
39.865,0.433
39.870,0.385
39.875,0.325
39.880,0.255
39.885,0.215
39.890,0.210
39.895,0.192
39.900,0.168
39.905,0.169
39.910,0.168
39.915,0.144
39.920,0.133
39.925,0.131
39.930,0.117
39.935,0.108
39.940,0.104
39.945,0.098
39.950,0.088
39.955,0.084
39.960,0.082
39.965,0.073
39.970,0.068
39.975,0.068
39.980,0.063
39.985,0.051
39.990,0.037
39.995,0.026
40.000,0.024
40.005,0.023
40.010,0.014
40.015,0.003
40.020,-0.004
40.025,-0.013
40.030,-0.025
40.035,-0.037
40.040,-0.051
40.045,-0.070
40.050,-0.082
40.055,-0.092
40.060,-0.102
40.065,-0.112
40.070,-0.123
40.075,-0.129
40.080,-0.135
40.085,-0.139
40.090,-0.136
40.095,-0.130
40.100,-0.126
40.105,-0.118
40.110,-0.100
40.115,-0.077
40.120,-0.048
40.125,-0.015
40.130,0.015
40.135,0.045
40.140,0.072
40.145,0.095
40.150,0.112
40.155,0.121
40.160,0.125
40.165,0.131
40.170,0.137
40.175,0.138
40.180,0.131
40.185,0.125
40.190,0.121
40.195,0.119
40.200,0.114
40.205,0.103
40.210,0.099
40.215,0.095
40.220,0.087
40.225,0.081
40.230,0.075
40.235,0.068
40.240,0.059
40.245,0.054
40.250,0.049
40.255,0.043
40.260,0.038
40.265,0.033
40.270,0.030
40.275,0.023
40.280,0.015
40.285,0.016
40.290,0.016
40.295,0.011
40.300,0.010
40.305,0.009
40.310,0.008
40.315,0.007
40.320,0.006
40.325,0.003
40.330,0.004
40.335,0.007
40.340,0.003
40.345,0.005
40.350,0.007
40.355,0.009
40.360,0.012
40.365,0.007
40.370,0.002
40.375,0.005
40.380,0.003
40.385,0.001
40.390,0.005
40.395,0.007
40.400,0.005
40.405,0.001
40.410,-0.001
40.415,0.003
40.420,0.004
40.425,-0.002
40.430,-0.008
40.435,-0.009
40.440,-0.008
40.445,-0.008
40.450,-0.009
40.455,-0.006
40.460,-0.005
40.465,-0.008
40.470,-0.007
40.475,-0.009
40.480,-0.017
40.485,-0.023
40.490,-0.033
40.495,-0.040
40.500,-0.049
40.505,-0.072
40.510,-0.095
40.515,-0.099
40.520,-0.079
40.525,-0.057
40.530,-0.043
40.535,-0.039
40.540,-0.037
40.545,-0.020
40.550,-0.005
40.555,0.009
40.560,0.024
40.565,0.027
40.570,0.025
40.575,0.028
40.580,0.028
40.585,0.023
40.590,0.015
40.595,0.013
40.600,0.015
40.605,0.016
40.610,0.021
40.615,0.042
40.620,0.086
40.625,0.126
40.630,0.090
40.635,-0.055
40.640,-0.273
40.645,-0.573
40.650,-0.950
40.655,-1.186
40.660,-1.134
40.665,-0.841
40.670,-0.380
40.675,0.025
40.680,0.255
40.685,0.390
40.690,0.419
40.695,0.372
40.700,0.320
40.705,0.256
40.710,0.211
40.715,0.210
40.720,0.196
40.725,0.166
40.730,0.163
40.735,0.158
40.740,0.132
40.745,0.123
40.750,0.129
40.755,0.121
40.760,0.108
40.765,0.105
40.770,0.103
40.775,0.095
40.780,0.085
40.785,0.077
40.790,0.074
40.795,0.070
40.800,0.062
40.805,0.057
40.810,0.058
40.815,0.053
40.820,0.040
40.825,0.022
40.830,0.011
40.835,0.007
40.840,0.001
40.845,-0.004
40.850,-0.013
40.855,-0.031
40.860,-0.046
40.865,-0.059
40.870,-0.066
40.875,-0.076
40.880,-0.093
40.885,-0.105
40.890,-0.112
40.895,-0.120
40.900,-0.128
40.905,-0.134
40.910,-0.137
40.915,-0.137
40.920,-0.142
40.925,-0.143
40.930,-0.127
40.935,-0.102
40.940,-0.074
40.945,-0.045
40.950,-0.022
40.955,0.006
40.960,0.037
40.965,0.066
40.970,0.093
40.975,0.113
40.980,0.129
40.985,0.137
40.990,0.134
40.995,0.132
41.000,0.133
41.005,0.135
41.010,0.135
41.015,0.129
41.020,0.122
41.025,0.117
41.030,0.108
41.035,0.095
41.040,0.088
41.045,0.087
41.050,0.084
41.055,0.078
41.060,0.071
41.065,0.066
41.070,0.056
41.075,0.048
41.080,0.047
41.085,0.048
41.090,0.043
41.095,0.034
41.100,0.027
41.105,0.026
41.110,0.023
41.115,0.018
41.120,0.016
41.125,0.013
41.130,0.007
41.135,0.001
41.140,-0.001
41.145,0.003
41.150,0.007
41.155,0.007
41.160,0.005
41.165,0.002
41.170,0.004
41.175,0.006
41.180,0.006
41.185,0.011
41.190,0.014
41.195,0.013
41.200,0.007
41.205,0.001
41.210,-0.001
41.215,0.001
41.220,0.007
41.225,0.008
41.230,0.000
41.235,-0.009
41.240,-0.003
41.245,0.005
41.250,0.003
41.255,-0.005
41.260,-0.007
41.265,-0.007
41.270,-0.015
41.275,-0.021
41.280,-0.011
41.285,0.000
41.290,0.002
41.295,-0.002
41.300,-0.008
41.305,-0.013
41.310,-0.016
41.315,-0.021
41.320,-0.032
41.325,-0.047
41.330,-0.063
41.335,-0.080
41.340,-0.095
41.345,-0.088
41.350,-0.071
41.355,-0.056
41.360,-0.043
41.365,-0.037
41.370,-0.030
41.375,-0.015
41.380,-0.007
41.385,0.008
41.390,0.024
41.395,0.024
41.400,0.023
41.405,0.025
41.410,0.026
41.415,0.026
41.420,0.024
41.425,0.021
41.430,0.016
41.435,0.014
41.440,0.026
41.445,0.060
41.450,0.107
41.455,0.128
41.460,0.061
41.465,-0.107
41.470,-0.362
41.475,-0.717
41.480,-1.077
41.485,-1.212
41.490,-1.054
41.495,-0.682
41.500,-0.217
41.505,0.122
41.510,0.306
41.515,0.407
41.520,0.409
41.525,0.365
41.530,0.305
41.535,0.238
41.540,0.212
41.545,0.209
41.550,0.185
41.555,0.167
41.560,0.167
41.565,0.155
41.570,0.131
41.575,0.124
41.580,0.127
41.585,0.116
41.590,0.106
41.595,0.105
41.600,0.097
41.605,0.090
41.610,0.085
41.615,0.076
41.620,0.066
41.625,0.062
41.630,0.059
41.635,0.054
41.640,0.047
41.645,0.043
41.650,0.036
41.655,0.028
41.660,0.020
41.665,0.010
41.670,0.001
41.675,-0.008
41.680,-0.019
41.685,-0.030
41.690,-0.045
41.695,-0.059
41.700,-0.068
41.705,-0.076
41.710,-0.088
41.715,-0.102
41.720,-0.110
41.725,-0.118
41.730,-0.126
41.735,-0.132
41.740,-0.135
41.745,-0.130
41.750,-0.127
41.755,-0.127
41.760,-0.115
41.765,-0.097
41.770,-0.070
41.775,-0.039
41.780,-0.009
41.785,0.026
41.790,0.050
41.795,0.068
41.800,0.093
41.805,0.112
41.810,0.123
41.815,0.126
41.820,0.124
41.825,0.128
41.830,0.132
41.835,0.135
41.840,0.136
41.845,0.127
41.850,0.113
41.855,0.102
41.860,0.099
41.865,0.097
41.870,0.086
41.875,0.079
41.880,0.073
41.885,0.072
41.890,0.072
41.895,0.063
41.900,0.050
41.905,0.045
41.910,0.043
41.915,0.040
41.920,0.033
41.925,0.025
41.930,0.021
41.935,0.018
41.940,0.018
41.945,0.019
41.950,0.014
41.955,0.009
41.960,0.008
41.965,0.003
41.970,-0.001
41.975,0.002
41.980,0.007
41.985,0.010
41.990,0.004
41.995,0.000
42.000,0.007
42.005,0.016
42.010,0.011
42.015,0.002
42.020,0.004
42.025,0.013
42.030,0.015
42.035,0.006
42.040,-0.002
42.045,-0.002
42.050,0.004
42.055,0.007
42.060,0.004
42.065,0.003
42.070,0.004
42.075,0.000
42.080,-0.003
42.085,-0.005
42.090,-0.007
42.095,-0.005
42.100,-0.004
42.105,-0.008
42.110,-0.006
42.115,-0.003
42.120,-0.005
42.125,-0.007
42.130,-0.020
42.135,-0.069
42.140,-0.663
42.145,-1.641
42.150,-1.996
42.155,-1.877
42.160,-1.675
42.165,-1.561
42.170,-1.626
42.175,-1.498
42.180,-1.332
42.185,-1.353
42.190,-1.293
42.195,-1.148
42.200,-1.113
42.205,-1.083
42.210,-0.976
42.215,-0.911
42.220,-0.883
42.225,-0.808
42.230,-0.736
42.235,-0.700
42.240,-0.648
42.245,-0.581
42.250,-0.538
42.255,-0.496
42.260,-0.440
42.265,-0.395
42.270,-0.358
42.275,-0.312
42.280,-0.269
42.285,-0.234
42.290,-0.191
42.295,-0.121
42.300,-0.042
42.305,0.016
42.310,0.066
42.315,0.108
42.320,0.151
42.325,0.199
42.330,0.235
42.335,0.270
42.340,0.309
42.345,0.343
42.350,0.372
42.355,0.403
42.360,0.431
42.365,0.455
42.370,0.479
42.375,0.503
42.380,0.523
42.385,0.541
42.390,0.504
42.395,0.311
42.400,0.132
42.405,0.138
42.410,0.199
42.415,0.259
42.420,0.279
42.425,0.286
42.430,0.347
42.435,0.375
42.440,0.378
42.445,0.416
42.450,0.448
42.455,0.454
42.460,0.475
42.465,0.503
42.470,0.513
42.475,0.524
42.480,0.544
42.485,0.555
42.490,0.617
42.495,0.837
42.500,1.039
42.505,1.051
42.510,1.009
42.515,0.966
42.520,0.957
42.525,0.960
42.530,0.909
42.535,0.886
42.540,0.887
42.545,0.853
42.550,0.822
42.555,0.814
42.560,0.791
42.565,0.760
42.570,0.744
42.575,0.726
42.580,0.698
42.585,0.677
42.590,0.604
42.595,0.372
42.600,0.157
42.605,0.132
42.610,0.160
42.615,0.187
42.620,0.180
42.625,0.160
42.630,0.193
42.635,0.197
42.640,0.177
42.645,0.192
42.650,0.203
42.655,0.190
42.660,0.192
42.665,0.202
42.670,0.197
42.675,0.192
42.680,0.198
42.685,0.196
42.690,0.246
42.695,0.456
42.700,0.648
42.705,0.651
42.710,0.600
42.715,0.549
42.720,0.534
42.725,0.531
42.730,0.475
42.735,0.448
42.740,0.445
42.745,0.407
42.750,0.374
42.755,0.364
42.760,0.340
42.765,0.308
42.770,0.292
42.775,0.275
42.780,0.248
42.785,0.229
42.790,0.158
42.795,-0.073
42.800,-0.285
42.805,-0.307
42.810,-0.276
42.815,-0.244
42.820,-0.248
42.825,-0.263
42.830,-0.225
42.835,-0.216
42.840,-0.232
42.845,-0.211
42.850,-0.194
42.855,-0.202
42.860,-0.194
42.865,-0.177
42.870,-0.176
42.875,-0.174
42.880,-0.162
42.885,-0.156
42.890,-0.099
42.895,0.117
42.900,0.316
42.905,0.325
42.910,0.282
42.915,0.238
42.920,0.230
42.925,0.234
42.930,0.185
42.935,0.166
42.940,0.171
42.945,0.140
42.950,0.114
42.955,0.112
42.960,0.095
42.965,0.070
42.970,0.062
42.975,0.051
42.980,0.031
42.985,0.019
42.990,-0.045
42.995,-0.269
43.000,-0.474
43.005,-0.489
43.010,-0.451
43.015,-0.413
43.020,-0.410
43.025,-0.419
43.030,-0.374
43.035,-0.359
43.040,-0.368
43.045,-0.342
43.050,-0.319
43.055,-0.320
43.060,-0.306
43.065,-0.284
43.070,-0.278
43.075,-0.271
43.080,-0.253
43.085,-0.242
43.090,-0.180
43.095,0.043
43.100,0.246
43.105,0.260
43.110,0.220
43.115,0.181
43.120,0.178
43.125,0.186
43.130,0.141
43.135,0.126
43.140,0.135
43.145,0.108
43.150,0.086
43.155,0.087
43.160,0.074
43.165,0.053
43.170,0.048
43.175,0.040
43.180,0.023
43.185,0.014
43.190,-0.048
43.195,-0.269
43.200,-0.471
43.205,-0.483
43.210,-0.442
43.215,-0.401
43.220,-0.396
43.225,-0.403
43.230,-0.356
43.235,-0.339
43.240,-0.346
43.245,-0.317
43.250,-0.293
43.255,-0.293
43.260,-0.277
43.265,-0.253
43.270,-0.246
43.275,-0.237
43.280,-0.218
43.285,-0.206
43.290,-0.143
43.295,0.081
43.300,0.286
43.305,0.300
43.310,0.262
43.315,0.224
43.320,0.221
43.325,0.230
43.330,0.186
43.335,0.171
43.340,0.181
43.345,0.154
43.350,0.132
43.355,0.134
43.360,0.121
43.365,0.100
43.370,0.096
43.375,0.089
43.380,0.072
43.385,0.063
43.390,0.001
43.395,-0.220
43.400,-0.422
43.405,-0.434
43.410,-0.393
43.415,-0.353
43.420,-0.348
43.425,-0.355
43.430,-0.308
43.435,-0.291
43.440,-0.298
43.445,-0.270
43.450,-0.246
43.455,-0.246
43.460,-0.231
43.465,-0.207
43.470,-0.200
43.475,-0.191
43.480,-0.173
43.485,-0.161
43.490,-0.098
43.495,0.126
43.500,0.330
43.505,0.343
43.510,0.305
43.515,0.266
43.520,0.262
43.525,0.271
43.530,0.226
43.535,0.211
43.540,0.220
43.545,0.193
43.550,0.171
43.555,0.172
43.560,0.159
43.565,0.137
43.570,0.132
43.575,0.124
43.580,0.107
43.585,0.097
43.590,0.035
43.595,-0.187
43.600,-0.390
43.605,-0.402
43.610,-0.362
43.615,-0.322
43.620,-0.317
43.625,-0.325
43.630,-0.279
43.635,-0.262
43.640,-0.270
43.645,-0.242
43.650,-0.219
43.655,-0.219
43.660,-0.204
43.665,-0.181
43.670,-0.175
43.675,-0.166
43.680,-0.149
43.685,-0.138
43.690,-0.075
43.695,0.148
43.700,0.352
43.705,0.364
43.710,0.325
43.715,0.286
43.720,0.282
43.725,0.291
43.730,0.246
43.735,0.230
43.740,0.238
43.745,0.211
43.750,0.189
43.755,0.190
43.760,0.175
43.765,0.153
43.770,0.147
43.775,0.139
43.780,0.122
43.785,0.112
43.790,0.049
43.795,-0.173
43.800,-0.376
43.805,-0.388
43.810,-0.349
43.815,-0.309
43.820,-0.305
43.825,-0.313
43.830,-0.267
43.835,-0.251
43.840,-0.259
43.845,-0.231
43.850,-0.209
43.855,-0.209
43.860,-0.195
43.865,-0.172
43.870,-0.166
43.875,-0.158
43.880,-0.140
43.885,-0.129
43.890,-0.067
43.895,0.156
43.900,0.360
43.905,0.373
43.910,0.333
43.915,0.293
43.920,0.289
43.925,0.297
43.930,0.252
43.935,0.236
43.940,0.245
43.945,0.217
43.950,0.194
43.955,0.195
43.960,0.181
43.965,0.159
43.970,0.153
43.975,0.144
43.980,0.127
43.985,0.117
43.990,0.054
43.995,-0.169
44.000,-0.372
44.005,-0.385
44.010,-0.345
44.015,-0.305
44.020,-0.301
44.025,-0.309
44.030,-0.264
44.035,-0.248
44.040,-0.256
44.045,-0.228
44.050,-0.205
44.055,-0.206
44.060,-0.192
44.065,-0.169
44.070,-0.163
44.075,-0.155
44.080,-0.137
44.085,-0.127
44.090,-0.064
44.095,0.159
44.100,0.363
44.105,0.375
44.110,0.335
44.115,0.296
44.120,0.292
44.125,0.300
44.130,0.254
44.135,0.238
44.140,0.247
44.145,0.219
44.150,0.196
44.155,0.197
44.160,0.183
44.165,0.160
44.170,0.154
44.175,0.146
44.180,0.129
44.185,0.118
44.190,0.056
44.195,-0.167
44.200,-0.371
44.205,-0.383
44.210,-0.343
44.215,-0.304
44.220,-0.300
44.225,-0.308
44.230,-0.262
44.235,-0.246
44.240,-0.254
44.245,-0.226
44.250,-0.204
44.255,-0.205
44.260,-0.190
44.265,-0.168
44.270,-0.161
44.275,-0.153
44.280,-0.135
44.285,-0.125
44.290,-0.063
44.295,0.160
44.300,0.363
44.305,0.376
44.310,0.336
44.315,0.297
44.320,0.293
44.325,0.301
44.330,0.256
44.335,0.240
44.340,0.248
44.345,0.220
44.350,0.197
44.355,0.198
44.360,0.184
44.365,0.162
44.370,0.155
44.375,0.147
44.380,0.129
44.385,0.119
44.390,0.056
44.395,-0.166
44.400,-0.369
44.405,-0.382
44.410,-0.342
44.415,-0.302
44.420,-0.299
44.425,-0.307
44.430,-0.261
44.435,-0.245
44.440,-0.253
44.445,-0.226
44.450,-0.203
44.455,-0.203
44.460,-0.189
44.465,-0.167
44.470,-0.161
44.475,-0.152
44.480,-0.134
44.485,-0.124
44.490,-0.061
44.495,0.162
44.500,0.365
44.505,0.377
44.510,0.337
44.515,0.298
44.520,0.294
44.525,0.302
44.530,0.257
44.535,0.241
44.540,0.249
44.545,0.221
44.550,0.198
44.555,0.199
44.560,0.185
44.565,0.163
44.570,0.157
44.575,0.149
44.580,0.131
44.585,0.120
44.590,0.057
44.595,-0.165
44.600,-0.368
44.605,-0.381
44.610,-0.341
44.615,-0.302
44.620,-0.298
44.625,-0.305
44.630,-0.260
44.635,-0.244
44.640,-0.252
44.645,-0.225
44.650,-0.202
44.655,-0.202
44.660,-0.188
44.665,-0.166
44.670,-0.160
44.675,-0.151
44.680,-0.134
44.685,-0.123
44.690,-0.061
44.695,0.162
44.700,0.365
44.705,0.378
44.710,0.338
44.715,0.299
44.720,0.295
44.725,0.303
44.730,0.257
44.735,0.242
44.740,0.250
44.745,0.222
44.750,0.199
44.755,0.200
44.760,0.185
44.765,0.163
44.770,0.157
44.775,0.149
44.780,0.131
44.785,0.121
44.790,0.058
44.795,-0.165
44.800,-0.368
44.805,-0.380
44.810,-0.340
44.815,-0.301
44.820,-0.297
44.825,-0.305
44.830,-0.260
44.835,-0.244
44.840,-0.251
44.845,-0.224
44.850,-0.201
44.855,-0.202
44.860,-0.188
44.865,-0.165
44.870,-0.159
44.875,-0.151
44.880,-0.133
44.885,-0.123
44.890,-0.060
44.895,0.163
44.900,0.366
44.905,0.378
44.910,0.339
44.915,0.299
44.920,0.295
44.925,0.303
44.930,0.258
44.935,0.242
44.940,0.250
44.945,0.222
44.950,0.199
44.955,0.200
44.960,0.186
44.965,0.164
44.970,0.158
44.975,0.150
44.980,0.132
44.985,0.122
44.990,0.059
44.995,-0.164
45.000,-0.367
45.005,-0.380
45.010,-0.340
45.015,-0.301
45.020,-0.297
45.025,-0.304
45.030,-0.259
45.035,-0.243
45.040,-0.251
45.045,-0.224
45.050,-0.201
45.055,-0.202
45.060,-0.187
45.065,-0.165
45.070,-0.159
45.075,-0.151
45.080,-0.133
45.085,-0.123
45.090,-0.060
45.095,0.163
45.100,0.366
45.105,0.379
45.110,0.339
45.115,0.299
45.120,0.296
45.125,0.303
45.130,0.258
45.135,0.242
45.140,0.250
45.145,0.223
45.150,0.200
45.155,0.200
45.160,0.186
45.165,0.164
45.170,0.158
45.175,0.150
45.180,0.132
45.185,0.122
45.190,0.059
45.195,-0.164
45.200,-0.367
45.205,-0.380
45.210,-0.340
45.215,-0.301
45.220,-0.297
45.225,-0.305
45.230,-0.259
45.235,-0.243
45.240,-0.251
45.245,-0.223
45.250,-0.201
45.255,-0.202
45.260,-0.187
45.265,-0.165
45.270,-0.159
45.275,-0.151
45.280,-0.133
45.285,-0.122
45.290,-0.059
45.295,0.164
45.300,0.366
45.305,0.379
45.310,0.339
45.315,0.299
45.320,0.296
45.325,0.304
45.330,0.258
45.335,0.243
45.340,0.251
45.345,0.223
45.350,0.200
45.355,0.200
45.360,0.186
45.365,0.164
45.370,0.158
45.375,0.150
45.380,0.132
45.385,0.122
45.390,0.059
45.395,-0.164
45.400,-0.367
45.405,-0.379
45.410,-0.340
45.415,-0.300
45.420,-0.296
45.425,-0.304
45.430,-0.259
45.435,-0.243
45.440,-0.251
45.445,-0.223
45.450,-0.201
45.455,-0.202
45.460,-0.187
45.465,-0.165
45.470,-0.159
45.475,-0.150
45.480,-0.133
45.485,-0.123
45.490,-0.060
45.495,0.163
45.500,0.367
45.505,0.379
45.510,0.339
45.515,0.300
45.520,0.296
45.525,0.304
45.530,0.258
45.535,0.243
45.540,0.251
45.545,0.223
45.550,0.200
45.555,0.201
45.560,0.187
45.565,0.164
45.570,0.158
45.575,0.150
45.580,0.132
45.585,0.122
45.590,0.059
45.595,-0.164
45.600,-0.367
45.605,-0.379
45.610,-0.339
45.615,-0.300
45.620,-0.296
45.625,-0.304
