'Elapsed time','ECG'
'seconds','mV'
0.000,-0.196
0.005,-0.404
0.010,-0.415
0.015,-0.388
0.020,-0.347
0.025,-0.302
0.030,-0.208
0.035,-0.034
0.040,0.010
0.045,-0.025
0.050,-0.010
0.055,0.008
0.060,-0.009
0.065,0.008
0.070,0.062
0.075,0.078
0.080,0.060
0.085,0.076
0.090,0.109
0.095,0.107
0.100,0.090
0.105,0.091
0.110,0.087
0.115,0.044
0.120,0.014
0.125,0.048
0.130,0.081
0.135,0.075
0.140,0.053
0.145,0.013
0.150,-0.029
0.155,-0.034
0.160,-0.011
0.165,0.010
0.170,0.037
0.175,0.042
0.180,-0.002
0.185,-0.029
0.190,0.005
0.195,0.044
0.200,0.027
0.205,-0.048
0.210,-0.082
0.215,-0.030
0.220,0.008
0.225,0.005
0.230,0.022
0.235,0.033
0.240,-0.003
0.245,-0.030
0.250,-0.021
0.255,-0.008
0.260,-0.005
0.265,-0.014
0.270,-0.030
0.275,-0.030
0.280,-0.015
0.285,0.002
0.290,0.004
0.295,-0.031
0.300,-0.040
0.305,-0.026
0.310,-0.063
0.315,-0.073
0.320,-0.006
0.325,0.039
0.330,0.021
0.335,-0.029
0.340,-0.059
0.345,-0.029
0.350,0.015
0.355,0.009
0.360,-0.015
0.365,-0.015
0.370,-0.047
0.375,-0.079
0.380,-0.041
0.385,0.007
0.390,0.027
0.395,0.016
0.400,-0.023
0.405,-0.038
0.410,-0.034
0.415,-0.078
0.420,-0.118
0.425,-0.071
0.430,-0.016
0.435,-0.025
0.440,-0.062
0.445,-0.122
0.450,-0.153
0.455,-0.136
0.460,-0.170
0.465,-0.206
0.470,-0.154
0.475,-0.081
0.480,-0.037
0.485,-0.015
0.490,-0.024
0.495,-0.002
0.500,0.032
0.505,0.010
0.510,0.001
0.515,0.009
0.520,0.022
0.525,0.080
0.530,0.127
0.535,0.129
0.540,0.092
0.545,0.057
0.550,0.092
0.555,0.128
0.560,0.102
0.565,0.070
0.570,0.027
0.575,-0.030
0.580,-0.032
0.585,0.010
0.590,0.044
0.595,0.062
0.600,0.062
0.605,0.068
0.610,0.082
0.615,0.024
0.620,-0.152
0.625,-0.357
0.630,-0.532
0.635,-0.782
0.640,-1.070
0.645,-1.074
0.650,-0.639
0.655,-0.070
0.660,0.267
0.665,0.385
0.670,0.447
0.675,0.448
0.680,0.339
0.685,0.206
0.690,0.181
0.695,0.184
0.700,0.127
0.705,0.120
0.710,0.175
0.715,0.184
0.720,0.148
0.725,0.084
0.730,0.045
0.735,0.082
0.740,0.130
0.745,0.160
0.750,0.144
0.755,0.088
0.760,0.072
0.765,0.064
0.770,0.022
0.775,0.008
0.780,0.038
0.785,0.068
0.790,0.080
0.795,0.065
0.800,0.027
0.805,0.013
0.810,0.011
0.815,-0.018
0.820,-0.039
0.825,-0.064
0.830,-0.087
0.835,-0.057
0.840,-0.030
0.845,-0.066
0.850,-0.106
0.855,-0.113
0.860,-0.118
0.865,-0.134
0.870,-0.176
0.875,-0.192
0.880,-0.161
0.885,-0.170
0.890,-0.219
0.895,-0.235
0.900,-0.178
0.905,-0.097
0.910,-0.086
0.915,-0.119
0.920,-0.114
0.925,-0.078
0.930,-0.023
0.935,0.054
0.940,0.104
0.945,0.126
0.950,0.134
0.955,0.119
0.960,0.143
0.965,0.218
0.970,0.262
0.975,0.249
0.980,0.225
0.985,0.208
0.990,0.212
0.995,0.222
1.000,0.178
1.005,0.139
1.010,0.159
1.015,0.166
1.020,0.160
1.025,0.166
1.030,0.155
1.035,0.110
1.040,0.098
1.045,0.120
1.050,0.096
1.055,0.068
1.060,0.064
1.065,0.074
1.070,0.099
1.075,0.077
1.080,0.034
1.085,0.046
1.090,0.068
1.095,0.064
1.100,0.060
1.105,0.046
1.110,0.023
1.115,0.022
1.120,0.051
1.125,0.065
1.130,0.039
1.135,0.002
1.140,-0.018
1.145,0.003
1.150,0.034
1.155,0.025
1.160,0.006
1.165,-0.029
1.170,-0.052
1.175,-0.010
1.180,0.039
1.185,0.046
1.190,0.049
1.195,0.057
1.200,0.054
1.205,0.026
1.210,-0.021
1.215,-0.040
1.220,-0.012
1.225,0.018
1.230,0.017
1.235,0.000
1.240,-0.030
1.245,-0.054
1.250,-0.052
1.255,-0.059
1.260,-0.079
1.265,-0.079
1.270,-0.071
1.275,-0.088
1.280,-0.100
1.285,-0.061
1.290,-0.005
1.295,0.029
1.300,-0.008
1.305,-0.065
1.310,-0.059
1.315,-0.070
1.320,-0.122
1.325,-0.146
1.330,-0.144
1.335,-0.124
1.340,-0.111
1.345,-0.111
1.350,-0.081
1.355,-0.032
1.360,-0.014
1.365,-0.024
1.370,-0.027
1.375,0.001
1.380,0.045
1.385,0.078
1.390,0.096
1.395,0.067
1.400,0.042
1.405,0.084
1.410,0.126
1.415,0.136
1.420,0.113
1.425,0.040
1.430,-0.001
1.435,0.007
1.440,0.000
1.445,0.009
1.450,0.057
1.455,0.056
1.460,0.025
1.465,0.048
1.470,0.063
1.475,0.008
1.480,-0.139
1.485,-0.371
1.490,-0.608
1.495,-0.872
1.500,-1.152
1.505,-1.142
1.510,-0.674
1.515,-0.112
1.520,0.216
1.525,0.373
1.530,0.433
1.535,0.378
1.540,0.260
1.545,0.176
1.550,0.221
1.555,0.298
1.560,0.239
1.565,0.161
1.570,0.163
1.575,0.163
1.580,0.139
1.585,0.126
1.590,0.108
1.595,0.077
1.600,0.055
1.605,0.038
1.610,0.036
1.615,0.052
1.620,0.066
1.625,0.052
1.630,0.003
1.635,0.002
1.640,0.056
1.645,0.065
1.650,0.030
1.655,0.004
1.660,0.004
1.665,0.024
1.670,0.021
1.675,-0.009
1.680,-0.038
1.685,-0.055
1.690,-0.050
1.695,-0.041
1.700,-0.060
1.705,-0.114
1.710,-0.155
1.715,-0.165
1.720,-0.188
1.725,-0.211
1.730,-0.203
1.735,-0.177
1.740,-0.173
1.745,-0.231
1.750,-0.293
1.755,-0.275
1.760,-0.167
1.765,-0.083
1.770,-0.087
1.775,-0.095
1.780,-0.073
1.785,-0.016
1.790,0.029
1.795,0.039
1.800,0.062
1.805,0.101
1.810,0.147
1.815,0.194
1.820,0.216
1.825,0.205
1.830,0.213
1.835,0.237
1.840,0.235
1.845,0.228
1.850,0.227
1.855,0.197
1.860,0.157
1.865,0.152
1.870,0.173
1.875,0.183
1.880,0.145
1.885,0.092
1.890,0.122
1.895,0.203
1.900,0.220
1.905,0.161
1.910,0.090
1.915,0.084
1.920,0.123
1.925,0.114
1.930,0.079
1.935,0.070
1.940,0.065
1.945,0.036
1.950,-0.006
1.955,-0.004
1.960,0.039
1.965,0.058
1.970,0.037
1.975,0.012
1.980,-0.003
1.985,-0.026
1.990,-0.043
1.995,-0.041
2.000,-0.048
2.005,-0.043
2.010,-0.002
2.015,0.036
2.020,0.078
2.025,0.087
2.030,0.025
2.035,-0.018
2.040,-0.056
2.045,-0.075
2.050,-0.001
2.055,0.067
2.060,0.043
2.065,-0.010
2.070,-0.066
2.075,-0.095
2.080,-0.039
2.085,0.018
2.090,0.018
2.095,-0.014
2.100,-0.054
2.105,-0.013
2.110,0.054
2.115,0.016
2.120,-0.057
2.125,-0.061
2.130,-0.019
2.135,-0.008
2.140,-0.014
2.145,-0.001
2.150,-0.008
2.155,-0.050
2.160,-0.081
2.165,-0.083
2.170,-0.080
2.175,-0.085
2.180,-0.099
2.185,-0.112
2.190,-0.125
2.195,-0.141
2.200,-0.138
2.205,-0.136
2.210,-0.162
2.215,-0.153
2.220,-0.106
2.225,-0.110
2.230,-0.133
2.235,-0.116
2.240,-0.075
2.245,-0.026
2.250,-0.006
2.255,-0.021
2.260,-0.023
2.265,0.012
2.270,0.072
2.275,0.124
2.280,0.141
2.285,0.112
2.290,0.069
2.295,0.065
2.300,0.082
2.305,0.086
2.310,0.070
2.315,0.036
2.320,0.039
2.325,0.060
2.330,0.045
2.335,0.028
2.340,0.017
2.345,0.017
2.350,0.021
2.355,0.022
2.360,0.003
2.365,-0.114
2.370,-0.294
2.375,-0.476
2.380,-0.713
2.385,-1.005
2.390,-1.178
2.395,-0.934
2.400,-0.356
2.405,0.111
2.410,0.309
2.415,0.368
2.420,0.368
2.425,0.306
2.430,0.216
2.435,0.150
2.440,0.116
2.445,0.111
2.450,0.141
2.455,0.201
2.460,0.238
2.465,0.221
2.470,0.201
2.475,0.204
2.480,0.187
2.485,0.160
2.490,0.135
2.495,0.108
2.500,0.085
2.505,0.071
2.510,0.067
2.515,0.037
2.520,0.021
2.525,0.008
2.530,-0.030
2.535,0.007
2.540,0.067
2.545,0.086
2.550,0.104
2.555,0.055
2.560,0.010
2.565,0.019
2.570,0.000
2.575,-0.004
2.580,-0.034
2.585,-0.105
2.590,-0.139
2.595,-0.161
2.600,-0.172
2.605,-0.161
2.610,-0.168
2.615,-0.212
2.620,-0.278
2.625,-0.292
2.630,-0.234
2.635,-0.200
2.640,-0.220
2.645,-0.222
2.650,-0.166
2.655,-0.126
2.660,-0.141
2.665,-0.121
2.670,-0.019
2.675,0.075
2.680,0.064
2.685,0.041
2.690,0.111
2.695,0.189
2.700,0.237
2.705,0.277
2.710,0.285
2.715,0.254
2.720,0.202
2.725,0.187
2.730,0.233
2.735,0.254
2.740,0.227
2.745,0.217
2.750,0.203
2.755,0.140
2.760,0.029
2.765,-0.051
2.770,0.039
2.775,0.267
2.780,0.411
2.785,0.358
2.790,0.261
2.795,0.235
2.800,0.229
2.805,0.195
2.810,0.124
2.815,0.075
2.820,0.064
2.825,0.044
2.830,0.045
2.835,0.060
2.840,0.035
2.845,0.010
2.850,0.024
2.855,0.034
2.860,0.005
2.865,-0.031
2.870,-0.035
2.875,-0.018
2.880,-0.015
2.885,-0.022
2.890,-0.025
2.895,-0.024
2.900,-0.028
2.905,-0.042
2.910,-0.051
2.915,-0.043
2.920,-0.036
2.925,-0.034
2.930,-0.030
2.935,-0.046
2.940,-0.060
2.945,-0.052
2.950,-0.049
2.955,-0.042
2.960,-0.032
2.965,-0.017
2.970,0.015
2.975,0.046
2.980,0.051
2.985,0.030
2.990,0.016
2.995,0.005
3.000,-0.011
3.005,-0.019
3.010,-0.041
3.015,-0.053
3.020,-0.036
3.025,-0.062
3.030,-0.116
3.035,-0.113
3.040,-0.092
3.045,-0.090
3.050,-0.048
3.055,0.011
3.060,0.032
3.065,0.010
3.070,-0.058
3.075,-0.082
3.080,-0.068
3.085,-0.101
3.090,-0.135
3.095,-0.143
3.100,-0.137
3.105,-0.139
3.110,-0.171
3.115,-0.172
3.120,-0.138
3.125,-0.131
3.130,-0.142
3.135,-0.154
3.140,-0.111
3.145,-0.016
3.150,0.032
3.155,0.036
3.160,0.053
3.165,0.066
3.170,0.055
3.175,0.039
3.180,0.050
3.185,0.081
3.190,0.093
3.195,0.077
3.200,0.040
3.205,0.008
3.210,0.001
3.215,0.010
3.220,0.063
3.225,0.101
3.230,0.044
3.235,-0.007
3.240,-0.005
3.245,0.014
3.250,0.059
3.255,0.079
3.260,0.022
3.265,-0.112
3.270,-0.316
3.275,-0.561
3.280,-0.811
3.285,-1.093
3.290,-1.168
3.295,-0.760
3.300,-0.197
3.305,0.147
3.310,0.326
3.315,0.401
3.320,0.391
3.325,0.322
3.330,0.199
3.335,0.181
3.340,0.237
3.345,0.207
3.350,0.183
3.355,0.197
3.360,0.165
3.365,0.122
3.370,0.141
3.375,0.177
3.380,0.167
3.385,0.130
3.390,0.102
3.395,0.085
3.400,0.072
3.405,0.064
3.410,0.061
3.415,0.065
3.420,0.053
3.425,0.030
3.430,0.028
3.435,0.027
3.440,0.008
3.445,0.002
3.450,0.011
3.455,0.002
3.460,-0.022
3.465,-0.041
3.470,-0.056
3.475,-0.079
3.480,-0.096
3.485,-0.097
3.490,-0.106
3.495,-0.126
3.500,-0.186
3.505,-0.225
3.510,-0.165
3.515,-0.150
3.520,-0.192
3.525,-0.196
3.530,-0.191
3.535,-0.169
3.540,-0.158
3.545,-0.172
3.550,-0.170
3.555,-0.183
3.560,-0.179
3.565,-0.095
3.570,-0.004
3.575,0.025
3.580,0.032
3.585,0.100
3.590,0.176
3.595,0.165
3.600,0.167
3.605,0.195
3.610,0.190
3.615,0.217
3.620,0.258
3.625,0.264
3.630,0.246
3.635,0.219
3.640,0.228
3.645,0.269
3.650,0.274
3.655,0.245
3.660,0.231
3.665,0.217
3.670,0.198
3.675,0.153
3.680,0.068
3.685,0.049
3.690,0.125
3.695,0.166
3.700,0.150
3.705,0.131
3.710,0.123
3.715,0.120
3.720,0.062
3.725,0.011
3.730,0.070
3.735,0.130
3.740,0.119
3.745,0.088
3.750,0.038
3.755,-0.009
3.760,-0.018
3.765,-0.018
3.770,0.002
3.775,0.039
3.780,0.008
3.785,-0.053
3.790,-0.045
3.795,-0.004
3.800,0.025
3.805,0.067
3.810,0.082
3.815,0.049
3.820,0.010
3.825,-0.016
3.830,-0.010
3.835,0.011
3.840,-0.006
3.845,-0.033
3.850,-0.022
3.855,-0.016
3.860,-0.045
3.865,-0.052
3.870,-0.034
3.875,-0.037
3.880,-0.047
3.885,-0.056
3.890,-0.060
3.895,-0.043
3.900,-0.026
3.905,-0.014
3.910,-0.020
3.915,-0.032
3.920,-0.017
3.925,-0.006
3.930,0.007
3.935,-0.008
3.940,-0.039
3.945,-0.017
3.950,-0.020
3.955,-0.047
3.960,-0.036
3.965,-0.038
3.970,-0.053
3.975,-0.070
3.980,-0.105
3.985,-0.093
3.990,-0.063
3.995,-0.071
4.000,-0.079
4.005,-0.103
4.010,-0.148
4.015,-0.207
4.020,-0.227
4.025,-0.137
4.030,-0.037
4.035,-0.029
4.040,-0.098
4.045,-0.160
4.050,-0.166
4.055,-0.123
4.060,-0.078
4.065,-0.077
4.070,-0.072
4.075,-0.030
4.080,0.017
4.085,0.030
4.090,-0.026
4.095,-0.064
4.100,0.015
4.105,0.140
4.110,0.197
4.115,0.163
4.120,0.083
4.125,0.024
4.130,0.040
4.135,0.073
4.140,0.077
4.145,0.052
4.150,-0.012
4.155,-0.064
4.160,-0.036
4.165,0.069
4.170,0.120
4.175,0.065
4.180,0.002
4.185,-0.034
4.190,-0.047
4.195,-0.079
4.200,-0.234
4.205,-0.496
4.210,-0.798
4.215,-1.127
4.220,-1.215
4.225,-0.834
4.230,-0.252
4.235,0.192
4.240,0.387
4.245,0.385
4.250,0.325
4.255,0.263
4.260,0.196
4.265,0.173
4.270,0.187
4.275,0.185
4.280,0.183
4.285,0.172
4.290,0.142
4.295,0.160
4.300,0.232
4.305,0.256
4.310,0.192
4.315,0.133
4.320,0.130
4.325,0.112
4.330,0.096
4.335,0.138
4.340,0.160
4.345,0.115
4.350,0.046
4.355,-0.018
4.360,-0.058
4.365,-0.034
4.370,0.035
4.375,0.085
4.380,0.093
4.385,0.067
4.390,0.035
4.395,0.009
4.400,-0.012
4.405,-0.035
4.410,-0.085
4.415,-0.130
4.420,-0.138
4.425,-0.142
4.430,-0.151
4.435,-0.176
4.440,-0.215
4.445,-0.216
4.450,-0.195
4.455,-0.195
4.460,-0.205
4.465,-0.230
4.470,-0.269
4.475,-0.282
4.480,-0.263
4.485,-0.224
4.490,-0.148
4.495,-0.077
4.500,-0.027
4.505,0.024
4.510,0.028
4.515,0.009
4.520,0.065
4.525,0.182
4.530,0.249
4.535,0.234
4.540,0.224
4.545,0.241
4.550,0.252
4.555,0.264
4.560,0.269
4.565,0.254
4.570,0.251
4.575,0.262
4.580,0.251
4.585,0.208
4.590,0.137
4.595,0.095
4.600,0.116
4.605,0.135
4.610,0.149
4.615,0.187
4.620,0.192
4.625,0.170
4.630,0.159
4.635,0.135
4.640,0.102
4.645,0.083
4.650,0.090
4.655,0.091
4.660,0.079
4.665,0.082
4.670,0.067
4.675,0.038
4.680,0.027
4.685,0.025
4.690,0.030
4.695,0.030
4.700,-0.012
4.705,-0.049
4.710,-0.027
4.715,-0.016
4.720,-0.021
4.725,0.002
4.730,0.023
4.735,0.041
4.740,0.038
4.745,0.009
4.750,0.003
4.755,0.000
4.760,-0.027
4.765,-0.024
4.770,0.017
4.775,0.035
4.780,0.032
4.785,0.013
4.790,-0.020
4.795,-0.034
4.800,-0.021
4.805,-0.003
4.810,-0.009
4.815,-0.037
4.820,-0.048
4.825,-0.056
4.830,-0.061
4.835,-0.039
4.840,-0.028
4.845,-0.025
4.850,-0.050
4.855,-0.100
4.860,-0.101
4.865,-0.068
4.870,-0.009
4.875,0.050
4.880,0.043
4.885,0.020
4.890,-0.005
4.895,-0.031
4.900,-0.027
4.905,-0.046
4.910,-0.078
4.915,-0.086
4.920,-0.089
4.925,-0.097
4.930,-0.136
4.935,-0.158
4.940,-0.123
4.945,-0.122
4.950,-0.176
4.955,-0.179
4.960,-0.122
4.965,-0.111
4.970,-0.148
4.975,-0.136
4.980,-0.052
4.985,-0.006
4.990,-0.044
4.995,-0.075
5.000,0.000
5.005,0.103
5.010,0.096
5.015,0.036
5.020,0.026
5.025,0.079
5.030,0.135
5.035,0.132
5.040,0.083
5.045,0.052
5.050,0.047
5.055,0.029
5.060,0.013
5.065,0.038
5.070,0.056
5.075,0.042
5.080,0.045
5.085,0.033
5.090,0.014
5.095,0.025
5.100,0.020
5.105,0.034
5.110,0.035
5.115,-0.072
5.120,-0.241
5.125,-0.459
5.130,-0.767
5.135,-1.107
5.140,-1.223
5.145,-0.880
5.150,-0.327
5.155,0.077
5.160,0.270
5.165,0.332
5.170,0.341
5.175,0.276
5.180,0.180
5.185,0.167
5.190,0.189
5.195,0.168
5.200,0.162
5.205,0.190
5.210,0.192
5.215,0.167
5.220,0.143
5.225,0.108
5.230,0.083
5.235,0.121
5.240,0.154
5.245,0.148
5.250,0.139
5.255,0.120
5.260,0.103
5.265,0.082
5.270,0.062
5.275,0.062
5.280,0.056
5.285,0.043
5.290,0.031
5.295,0.013
5.300,0.003
5.305,0.008
5.310,0.012
5.315,-0.003
5.320,-0.030
5.325,-0.042
5.330,-0.051
5.335,-0.082
5.340,-0.143
5.345,-0.225
5.350,-0.224
5.355,-0.137
5.360,-0.121
5.365,-0.149
5.370,-0.154
5.375,-0.155
5.380,-0.163
5.385,-0.198
5.390,-0.180
5.395,-0.124
5.400,-0.115
5.405,-0.126
5.410,-0.117
5.415,-0.104
5.420,-0.143
5.425,-0.196
5.430,-0.116
5.435,0.079
5.440,0.193
5.445,0.209
5.450,0.251
5.455,0.325
5.460,0.374
5.465,0.350
5.470,0.278
5.475,0.262
5.480,0.269
5.485,0.225
5.490,0.200
5.495,0.200
5.500,0.177
5.505,0.162
5.510,0.177
5.515,0.182
5.520,0.136
5.525,0.071
5.530,0.047
5.535,0.080
5.540,0.151
5.545,0.198
5.550,0.188
5.555,0.139
5.560,0.092
5.565,0.062
5.570,0.040
5.575,0.033
5.580,0.048
5.585,0.056
5.590,0.048
5.595,0.050
5.600,0.050
5.605,0.040
5.610,0.003
5.615,-0.050
5.620,-0.047
5.625,-0.002
5.630,0.046
5.635,0.067
5.640,0.059
5.645,0.010
5.650,-0.086
5.655,-0.077
5.660,0.020
5.665,0.043
5.670,0.028
5.675,0.039
5.680,0.057
5.685,0.063
5.690,0.008
5.695,-0.045
5.700,0.024
5.705,0.075
5.710,0.009
5.715,-0.060
5.720,-0.092
5.725,-0.059
5.730,-0.003
5.735,-0.007
5.740,-0.042
5.745,-0.059
5.750,-0.036
5.755,0.002
5.760,0.009
5.765,0.017
5.770,0.016
5.775,-0.013
5.780,-0.030
5.785,-0.034
5.790,-0.032
5.795,-0.028
5.800,-0.052
5.805,-0.072
5.810,-0.070
5.815,-0.075
5.820,-0.067
5.825,-0.054
5.830,-0.059
5.835,-0.100
5.840,-0.133
5.845,-0.119
5.850,-0.157
5.855,-0.147
5.860,-0.043
5.865,-0.042
5.870,-0.122
5.875,-0.194
5.880,-0.213
5.885,-0.177
5.890,-0.155
5.895,-0.105
5.900,0.002
5.905,0.052
5.910,-0.017
5.915,-0.078
5.920,-0.059
5.925,-0.016
5.930,0.033
5.935,0.078
5.940,0.098
5.945,0.107
5.950,0.095
5.955,0.061
5.960,0.054
5.965,0.065
5.970,0.056
5.975,0.038
5.980,0.019
5.985,0.010
5.990,0.000
5.995,-0.021
6.000,-0.023
6.005,-0.029
6.010,-0.082
6.015,-0.138
6.020,-0.092
6.025,0.042
6.030,0.067
6.035,-0.098
6.040,-0.327
6.045,-0.597
6.050,-0.943
6.055,-1.151
6.060,-0.938
6.065,-0.451
6.070,-0.057
6.075,0.153
6.080,0.265
6.085,0.317
6.090,0.293
6.095,0.204
6.100,0.188
6.105,0.259
6.110,0.243
6.115,0.194
6.120,0.203
6.125,0.177
6.130,0.148
6.135,0.161
6.140,0.117
6.145,0.111
6.150,0.184
6.155,0.176
6.160,0.138
6.165,0.147
6.170,0.143
6.175,0.118
6.180,0.077
6.185,0.040
6.190,0.048
6.195,0.038
6.200,0.003
6.205,0.009
6.210,0.032
6.215,0.005
6.220,-0.009
6.225,0.025
6.230,-0.006
6.235,-0.079
6.240,-0.108
6.245,-0.056
6.250,0.013
6.255,0.006
6.260,-0.036
6.265,-0.082
6.270,-0.118
6.275,-0.154
6.280,-0.195
6.285,-0.198
6.290,-0.185
6.295,-0.182
6.300,-0.178
6.305,-0.198
6.310,-0.240
6.315,-0.244
6.320,-0.210
6.325,-0.161
6.330,-0.095
6.335,-0.057
6.340,-0.045
6.345,0.017
6.350,0.115
6.355,0.171
6.360,0.144
6.365,0.090
6.370,0.110
6.375,0.189
6.380,0.253
6.385,0.291
6.390,0.301
6.395,0.291
6.400,0.281
6.405,0.250
6.410,0.201
6.415,0.186
6.420,0.205
6.425,0.218
6.430,0.204
6.435,0.172
6.440,0.141
6.445,0.123
6.450,0.103
6.455,0.091
6.460,0.120
6.465,0.150
6.470,0.123
6.475,0.053
6.480,0.012
6.485,0.050
6.490,0.116
6.495,0.122
6.500,0.076
6.505,0.038
6.510,0.029
6.515,0.032
6.520,0.027
6.525,0.022
6.530,0.043
6.535,0.046
6.540,0.000
6.545,-0.029
6.550,-0.016
6.555,0.016
6.560,0.017
6.565,-0.026
6.570,-0.058
6.575,-0.035
6.580,0.010
6.585,0.007
6.590,-0.018
6.595,0.000
6.600,0.034
6.605,0.029
6.610,-0.030
6.615,-0.090
6.620,-0.044
6.625,0.035
6.630,0.018
6.635,-0.019
6.640,-0.038
6.645,-0.050
6.650,-0.037
6.655,-0.026
6.660,-0.028
6.665,-0.037
6.670,-0.053
6.675,-0.065
6.680,-0.055
6.685,-0.056
6.690,-0.080
6.695,-0.035
6.700,0.017
6.705,-0.025
6.710,-0.049
6.715,-0.025
6.720,-0.040
6.725,-0.092
6.730,-0.133
6.735,-0.120
6.740,-0.067
6.745,-0.067
6.750,-0.118
6.755,-0.144
6.760,-0.169
6.765,-0.198
6.770,-0.180
6.775,-0.134
6.780,-0.113
6.785,-0.107
6.790,-0.100
6.795,-0.091
6.800,-0.083
6.805,-0.065
6.810,-0.001
6.815,0.073
6.820,0.104
6.825,0.085
6.830,0.024
6.835,0.006
6.840,0.059
6.845,0.077
6.850,0.063
6.855,0.062
6.860,0.061
6.865,0.068
6.870,0.031
6.875,-0.020
6.880,0.000
6.885,0.032
6.890,0.048
6.895,0.053
6.900,0.048
6.905,0.049
6.910,0.053
6.915,0.030
6.920,-0.052
6.925,-0.155
6.930,-0.283
6.935,-0.519
6.940,-0.877
6.945,-1.182
6.950,-1.061
6.955,-0.504
6.960,0.022
6.965,0.297
6.970,0.384
6.975,0.363
6.980,0.298
6.985,0.182
6.990,0.123
6.995,0.201
7.000,0.254
7.005,0.205
7.010,0.169
7.015,0.173
7.020,0.153
7.025,0.153
7.030,0.165
7.035,0.146
7.040,0.134
7.045,0.097
7.050,0.057
7.055,0.074
7.060,0.089
7.065,0.083
7.070,0.087
7.075,0.076
7.080,0.046
7.085,0.033
7.090,0.040
7.095,0.033
7.100,-0.012
7.105,-0.036
7.110,-0.001
7.115,0.027
7.120,0.013
7.125,-0.034
7.130,-0.065
7.135,-0.042
7.140,-0.033
7.145,-0.064
7.150,-0.080
7.155,-0.098
7.160,-0.138
7.165,-0.173
7.170,-0.174
7.175,-0.135
7.180,-0.119
7.185,-0.153
7.190,-0.180
7.195,-0.173
7.200,-0.158
7.205,-0.183
7.210,-0.204
7.215,-0.151
7.220,-0.096
7.225,-0.075
7.230,-0.052
7.235,-0.030
7.240,0.022
7.245,0.108
7.250,0.182
7.255,0.208
7.260,0.166
7.265,0.125
7.270,0.159
7.275,0.206
7.280,0.218
7.285,0.223
7.290,0.205
7.295,0.169
7.300,0.151
7.305,0.152
7.310,0.175
7.315,0.189
7.320,0.171
7.325,0.174
7.330,0.191
7.335,0.166
7.340,0.127
7.345,0.102
7.350,0.089
7.355,0.100
7.360,0.108
7.365,0.095
7.370,0.066
7.375,0.034
7.380,0.050
7.385,0.074
7.390,0.039
7.395,0.008
7.400,-0.004
7.405,-0.008
7.410,0.026
7.415,0.061
7.420,0.096
7.425,0.113
7.430,0.049
7.435,-0.026
7.440,-0.011
7.445,0.060
7.450,0.102
7.455,0.085
7.460,0.032
7.465,0.006
7.470,0.002
7.475,-0.010
7.480,-0.009
7.485,-0.020
7.490,-0.022
7.495,0.005
7.500,0.008
7.505,-0.027
7.510,-0.082
7.515,-0.085
7.520,-0.004
7.525,0.048
7.530,0.030
7.535,0.018
7.540,0.011
7.545,-0.029
7.550,-0.040
7.555,-0.010
7.560,-0.007
7.565,-0.025
7.570,-0.051
7.575,-0.078
7.580,-0.066
7.585,-0.053
7.590,-0.064
7.595,-0.103
7.600,-0.187
7.605,-0.201
7.610,-0.092
7.615,-0.001
7.620,-0.029
7.625,-0.103
7.630,-0.128
7.635,-0.136
7.640,-0.135
7.645,-0.118
7.650,-0.090
7.655,-0.060
7.660,-0.060
7.665,-0.061
7.670,-0.036
7.675,-0.016
7.680,-0.006
7.685,-0.010
7.690,-0.029
7.695,-0.008
7.700,0.075
7.705,0.128
7.710,0.096
7.715,0.010
7.720,-0.038
7.725,0.029
7.730,0.125
7.735,0.128
7.740,0.074
7.745,0.030
7.750,0.042
7.755,0.089
7.760,0.071
7.765,0.014
7.770,-0.009
7.775,0.004
7.780,0.034
7.785,-0.006
7.790,-0.137
7.795,-0.308
7.800,-0.513
7.805,-0.788
7.810,-1.129
7.815,-1.241
7.820,-0.846
7.825,-0.230
7.830,0.193
7.835,0.364
7.840,0.400
7.845,0.395
7.850,0.347
7.855,0.239
7.860,0.186
7.865,0.200
7.870,0.157
7.875,0.127
7.880,0.169
7.885,0.195
7.890,0.195
7.895,0.187
7.900,0.156
7.905,0.123
7.910,0.118
7.915,0.132
7.920,0.138
7.925,0.121
7.930,0.088
7.935,0.072
7.940,0.068
7.945,0.065
7.950,0.060
7.955,0.046
7.960,0.016
7.965,-0.021
7.970,-0.013
7.975,0.036
7.980,0.043
7.985,-0.030
7.990,-0.138
7.995,-0.136
8.000,-0.008
8.005,0.052
8.010,-0.010
8.015,-0.083
8.020,-0.132
8.025,-0.170
8.030,-0.187
8.035,-0.170
8.040,-0.151
8.045,-0.181
8.050,-0.216
8.055,-0.204
8.060,-0.199
8.065,-0.238
8.070,-0.233
8.075,-0.153
8.080,-0.098
8.085,-0.086
8.090,-0.051
8.095,-0.012
8.100,0.010
8.105,0.043
8.110,0.088
8.115,0.131
8.120,0.147
8.125,0.159
8.130,0.194
8.135,0.214
8.140,0.203
8.145,0.209
8.150,0.260
8.155,0.292
8.160,0.264
8.165,0.212
8.170,0.182
8.175,0.200
8.180,0.227
8.185,0.206
8.190,0.170
8.195,0.153
8.200,0.132
8.205,0.101
8.210,0.109
8.215,0.143
8.220,0.134
8.225,0.093
8.230,0.049
8.235,0.031
8.240,0.061
8.245,0.080
8.250,0.063
8.255,0.046
8.260,0.054
8.265,0.060
8.270,0.060
8.275,0.058
8.280,0.034
8.285,0.011
8.290,0.001
8.295,0.001
8.300,-0.002
8.305,-0.016
8.310,-0.015
8.315,0.000
8.320,-0.005
8.325,-0.039
8.330,-0.024
8.335,0.043
8.340,0.060
8.345,-0.001
8.350,-0.080
8.355,-0.069
8.360,0.031
8.365,0.089
8.370,0.046
8.375,-0.035
8.380,-0.056
8.385,-0.016
8.390,-0.010
8.395,-0.019
8.400,0.012
8.405,0.018
8.410,-0.017
8.415,-0.026
8.420,0.002
8.425,0.033
8.430,0.031
8.435,-0.002
8.440,-0.025
8.445,-0.040
8.450,-0.068
8.455,-0.089
8.460,-0.091
8.465,-0.097
8.470,-0.102
8.475,-0.095
8.480,-0.099
8.485,-0.106
8.490,-0.117
8.495,-0.149
8.500,-0.164
8.505,-0.160
8.510,-0.167
8.515,-0.156
8.520,-0.113
8.525,-0.073
8.530,-0.043
8.535,-0.027
8.540,-0.024
8.545,-0.021
8.550,-0.005
8.555,0.013
8.560,0.015
8.565,0.025
8.570,0.037
8.575,0.049
8.580,0.056
8.585,0.041
8.590,0.033
8.595,0.035
8.600,0.029
8.605,0.023
8.610,0.029
8.615,0.052
8.620,0.041
8.625,-0.005
8.630,-0.007
8.635,0.028
8.640,0.059
8.645,0.078
8.650,0.076
8.655,0.025
8.660,-0.114
8.665,-0.323
8.670,-0.498
8.675,-0.669
8.680,-0.980
8.685,-1.200
8.690,-0.938
8.695,-0.343
8.700,0.127
8.705,0.329
8.710,0.379
8.715,0.362
8.720,0.298
8.725,0.214
8.730,0.187
8.735,0.223
8.740,0.202
8.745,0.148
8.750,0.171
8.755,0.197
8.760,0.160
8.765,0.125
8.770,0.110
8.775,0.099
8.780,0.122
8.785,0.136
8.790,0.095
8.795,0.062
8.800,0.094
8.805,0.144
8.810,0.118
8.815,0.031
8.820,-0.002
8.825,0.048
8.830,0.098
8.835,0.069
8.840,-0.003
8.845,-0.021
8.850,-0.004
8.855,-0.014
8.860,-0.028
8.865,-0.035
8.870,-0.053
8.875,-0.066
8.880,-0.082
8.885,-0.128
8.890,-0.170
8.895,-0.159
8.900,-0.119
8.905,-0.102
8.910,-0.146
8.915,-0.193
8.920,-0.198
8.925,-0.204
8.930,-0.218
8.935,-0.237
8.940,-0.243
8.945,-0.231
8.950,-0.202
8.955,-0.170
8.960,-0.130
8.965,-0.050
8.970,0.005
8.975,0.039
8.980,0.082
8.985,0.112
8.990,0.163
8.995,0.209
9.000,0.213
9.005,0.209
9.010,0.215
9.015,0.236
9.020,0.255
9.025,0.231
9.030,0.192
9.035,0.201
9.040,0.250
9.045,0.279
9.050,0.263
9.055,0.214
9.060,0.152
9.065,0.149
9.070,0.179
9.075,0.138
9.080,0.072
9.085,0.092
9.090,0.156
9.095,0.160
9.100,0.092
9.105,0.023
9.110,0.041
9.115,0.101
9.120,0.098
9.125,0.056
9.130,0.052
9.135,0.078
9.140,0.093
9.145,0.081
9.150,0.033
9.155,-0.019
9.160,-0.026
9.165,0.001
9.170,0.022
9.175,0.025
9.180,0.017
9.185,0.002
9.190,-0.015
9.195,-0.052
9.200,-0.086
9.205,-0.061
9.210,0.020
9.215,0.090
9.220,0.099
9.225,0.059
9.230,-0.018
9.235,-0.075
9.240,-0.054
9.245,-0.012
9.250,-0.011
9.255,-0.012
9.260,-0.002
9.265,-0.008
9.270,0.016
9.275,0.030
9.280,-0.014
9.285,-0.048
9.290,-0.072
9.295,-0.069
9.300,-0.019
9.305,0.007
9.310,-0.001
9.315,-0.021
9.320,-0.043
9.325,-0.044
9.330,-0.037
9.335,-0.051
9.340,-0.082
9.345,-0.093
9.350,-0.087
9.355,-0.077
9.360,-0.077
9.365,-0.093
9.370,-0.101
9.375,-0.106
9.380,-0.127
9.385,-0.147
9.390,-0.128
9.395,-0.099
9.400,-0.110
9.405,-0.132
9.410,-0.138
9.415,-0.129
9.420,-0.097
9.425,-0.066
9.430,-0.039
9.435,-0.013
9.440,-0.010
9.445,0.003
9.450,0.023
9.455,0.033
9.460,0.064
9.465,0.097
9.470,0.096
9.475,0.061
9.480,0.056
9.485,0.094
9.490,0.090
9.495,0.064
9.500,0.065
9.505,0.066
9.510,0.047
9.515,0.023
9.520,0.033
9.525,0.063
9.530,0.058
9.535,0.004
9.540,-0.020
9.545,0.002
9.550,-0.001
9.555,-0.042
9.560,-0.164
9.565,-0.389
9.570,-0.672
9.575,-1.013
9.580,-1.268
9.585,-1.069
9.590,-0.501
9.595,-0.010
9.600,0.258
9.605,0.331
9.610,0.332
9.615,0.332
9.620,0.269
9.625,0.199
9.630,0.208
9.635,0.208
9.640,0.177
9.645,0.191
9.650,0.190
9.655,0.168
9.660,0.163
9.665,0.130
9.670,0.090
9.675,0.091
9.680,0.112
9.685,0.129
9.690,0.110
9.695,0.078
9.700,0.072
9.705,0.084
9.710,0.109
9.715,0.098
9.720,0.061
9.725,0.055
9.730,0.055
9.735,0.053
9.740,0.041
9.745,0.011
9.750,-0.001
9.755,-0.015
9.760,-0.048
9.765,-0.057
9.770,-0.071
9.775,-0.106
9.780,-0.107
9.785,-0.105
9.790,-0.117
9.795,-0.131
9.800,-0.183
9.805,-0.217
9.810,-0.176
9.815,-0.178
9.820,-0.256
9.825,-0.283
9.830,-0.234
9.835,-0.177
9.840,-0.170
9.845,-0.211
9.850,-0.233
9.855,-0.164
9.860,-0.068
9.865,0.002
9.870,0.067
9.875,0.081
9.880,0.114
9.885,0.192
9.890,0.214
9.895,0.202
9.900,0.208
9.905,0.237
9.910,0.248
9.915,0.244
9.920,0.247
9.925,0.229
9.930,0.194
9.935,0.151
9.940,0.153
9.945,0.204
9.950,0.196
9.955,0.150
9.960,0.159
9.965,0.185
9.970,0.186
9.975,0.174
9.980,0.151
9.985,0.145
9.990,0.140
9.995,0.103
10.000,0.084
10.005,0.086
10.010,0.064
10.015,0.045
10.020,0.044
10.025,0.037
10.030,0.042
10.035,0.064
10.040,0.064
10.045,0.058
10.050,0.061
10.055,0.046
10.060,0.017
10.065,-0.020
10.070,-0.039
10.075,-0.022
10.080,0.042
10.085,0.107
10.090,0.116
10.095,0.091
10.100,0.053
10.105,0.021
10.110,0.004
10.115,-0.010
10.120,-0.011
10.125,0.014
10.130,0.025
10.135,-0.005
10.140,-0.020
10.145,-0.005
10.150,-0.003
10.155,-0.035
10.160,-0.071
10.165,-0.046
10.170,0.019
10.175,0.049
10.180,0.048
10.185,0.040
10.190,0.010
10.195,-0.027
10.200,-0.024
10.205,-0.001
10.210,0.002
10.215,-0.025
10.220,-0.055
10.225,-0.049
10.230,-0.029
10.235,-0.044
10.240,-0.096
10.245,-0.148
10.250,-0.155
10.255,-0.118
10.260,-0.101
10.265,-0.102
10.270,-0.105
10.275,-0.116
10.280,-0.118
10.285,-0.143
10.290,-0.161
10.295,-0.134
10.300,-0.108
10.305,-0.089
10.310,-0.085
10.315,-0.084
10.320,-0.046
10.325,-0.004
10.330,-0.014
10.335,-0.036
10.340,0.018
10.345,0.090
10.350,0.091
10.355,0.077
10.360,0.060
10.365,0.032
10.370,-0.009
10.375,-0.032
10.380,0.025
10.385,0.087
10.390,0.074
10.395,0.034
10.400,0.005
10.405,0.006
10.410,0.010
10.415,0.000
10.420,0.023
10.425,0.037
10.430,0.022
10.435,0.028
10.440,0.004
10.445,-0.108
10.450,-0.293
10.455,-0.548
10.460,-0.859
10.465,-1.145
10.470,-1.156
10.475,-0.728
10.480,-0.156
10.485,0.208
10.490,0.338
10.495,0.354
10.500,0.345
10.505,0.272
10.510,0.173
10.515,0.180
10.520,0.203
10.525,0.157
10.530,0.161
10.535,0.227
10.540,0.236
10.545,0.186
10.550,0.135
10.555,0.098
10.560,0.118
10.565,0.148
10.570,0.127
10.575,0.107
10.580,0.087
10.585,0.052
10.590,0.049
10.595,0.052
10.600,0.035
10.605,0.020
10.610,-0.007
10.615,-0.006
10.620,0.044
10.625,0.045
10.630,0.006
10.635,-0.018
10.640,-0.046
10.645,-0.054
10.650,-0.037
10.655,-0.021
10.660,-0.023
10.665,-0.068
10.670,-0.119
10.675,-0.129
10.680,-0.130
10.685,-0.165
10.690,-0.182
10.695,-0.139
10.700,-0.133
10.705,-0.179
10.710,-0.207
10.715,-0.199
10.720,-0.162
10.725,-0.158
10.730,-0.186
10.735,-0.194
10.740,-0.180
10.745,-0.130
10.750,-0.047
10.755,0.023
10.760,0.066
10.765,0.098
10.770,0.166
10.775,0.222
10.780,0.198
10.785,0.170
10.790,0.190
10.795,0.240
10.800,0.250
10.805,0.220
10.810,0.237
10.815,0.257
10.820,0.232
10.825,0.176
10.830,0.143
10.835,0.194
10.840,0.248
10.845,0.212
10.850,0.147
10.855,0.133
10.860,0.152
10.865,0.145
10.870,0.111
10.875,0.090
10.880,0.099
10.885,0.098
10.890,0.047
10.895,0.057
10.900,0.130
10.905,0.126
10.910,0.055
10.915,-0.014
10.920,0.000
10.925,0.079
10.930,0.089
10.935,0.036
10.940,-0.007
10.945,-0.042
10.950,-0.049
10.955,-0.008
10.960,0.043
10.965,0.034
10.970,0.004
10.975,0.026
10.980,0.048
10.985,0.047
10.990,0.027
10.995,-0.005
11.000,-0.017
11.005,-0.035
11.010,-0.029
11.015,0.010
11.020,0.019
11.025,-0.005
11.030,-0.023
11.035,-0.030
11.040,-0.050
11.045,-0.066
11.050,-0.034
11.055,0.021
11.060,0.049
11.065,0.039
11.070,0.010
11.075,-0.014
11.080,-0.032
11.085,-0.040
11.090,-0.043
11.095,-0.055
11.100,-0.050
11.105,-0.031
11.110,-0.035
11.115,-0.063
11.120,-0.118
11.125,-0.156
11.130,-0.139
11.135,-0.103
11.140,-0.083
11.145,-0.093
11.150,-0.110
11.155,-0.120
11.160,-0.116
11.165,-0.121
11.170,-0.153
11.175,-0.147
11.180,-0.102
11.185,-0.075
11.190,-0.047
11.195,-0.036
11.200,-0.050
11.205,-0.027
11.210,0.005
11.215,0.035
11.220,0.074
11.225,0.067
11.230,0.043
11.235,0.037
11.240,0.015
11.245,0.024
11.250,0.087
11.255,0.109
11.260,0.068
11.265,0.044
11.270,0.052
11.275,0.041
11.280,0.021
11.285,0.021
11.290,0.019
11.295,-0.009
11.300,-0.032
11.305,0.000
11.310,0.030
11.315,-0.072
11.320,-0.265
11.325,-0.409
11.330,-0.560
11.335,-0.869
11.340,-1.166
11.345,-1.055
11.350,-0.549
11.355,-0.066
11.360,0.208
11.365,0.329
11.370,0.336
11.375,0.259
11.380,0.164
11.385,0.156
11.390,0.213
11.395,0.200
11.400,0.169
11.405,0.185
11.410,0.171
11.415,0.133
11.420,0.144
11.425,0.208
11.430,0.197
11.435,0.133
11.440,0.135
11.445,0.163
11.450,0.177
11.455,0.159
11.460,0.120
11.465,0.092
11.470,0.093
11.475,0.120
11.480,0.146
11.485,0.161
11.490,0.139
11.495,0.119
11.500,0.105
11.505,0.058
11.510,0.015
11.515,-0.029
11.520,-0.072
11.525,-0.100
11.530,-0.139
11.535,-0.175
11.540,-0.185
11.545,-0.190
11.550,-0.216
11.555,-0.239
11.560,-0.243
11.565,-0.253
11.570,-0.281
11.575,-0.289
11.580,-0.259
11.585,-0.249
11.590,-0.276
11.595,-0.299
11.600,-0.282
11.605,-0.265
11.610,-0.279
11.615,-0.234
11.620,-0.120
11.625,-0.024
11.630,0.008
11.635,0.002
11.640,0.027
11.645,0.112
11.650,0.256
11.655,0.374
11.660,0.349
11.665,0.275
11.670,0.291
11.675,0.349
11.680,0.337
11.685,0.253
11.690,0.210
11.695,0.251
11.700,0.267
11.705,0.199
11.710,0.162
11.715,0.189
11.720,0.185
11.725,0.186
11.730,0.216
11.735,0.226
11.740,0.223
11.745,0.196
11.750,0.159
11.755,0.139
11.760,0.120
11.765,0.119
11.770,0.126
11.775,0.088
11.780,0.042
11.785,0.058
11.790,0.103
11.795,0.113
11.800,0.084
11.805,0.038
11.810,0.021
11.815,0.022
11.820,0.004
11.825,0.023
11.830,0.036
11.835,0.020
11.840,0.050
11.845,0.079
11.850,0.077
11.855,0.042
11.860,-0.003
11.865,-0.018
11.870,-0.022
11.875,-0.047
11.880,-0.041
11.885,0.036
11.890,0.060
11.895,0.004
11.900,-0.042
11.905,-0.061
11.910,-0.037
11.915,-0.008
11.920,-0.020
11.925,-0.038
11.930,-0.053
11.935,-0.050
11.940,-0.059
11.945,-0.080
11.950,-0.059
11.955,-0.055
11.960,-0.054
11.965,-0.037
11.970,-0.060
11.975,-0.074
11.980,-0.087
11.985,-0.114
11.990,-0.085
11.995,-0.058
12.000,-0.087
12.005,-0.100
12.010,-0.103
12.015,-0.113
12.020,-0.057
12.025,0.003
12.030,-0.015
12.035,-0.084
12.040,-0.155
12.045,-0.157
12.050,-0.130
12.055,-0.149
12.060,-0.171
12.065,-0.157
12.070,-0.091
12.075,0.004
12.080,0.054
12.085,0.050
12.090,0.060
12.095,0.090
12.100,0.106
12.105,0.115
12.110,0.127
12.115,0.113
12.120,0.063
12.125,-0.004
12.130,-0.052
12.135,-0.049
12.140,-0.033
12.145,-0.028
12.150,-0.032
12.155,-0.051
12.160,-0.033
12.165,0.003
12.170,-0.012
12.175,-0.042
12.180,-0.055
12.185,-0.045
12.190,-0.017
12.195,-0.051
12.200,-0.181
12.205,-0.357
12.210,-0.563
12.215,-0.794
12.220,-1.047
12.225,-1.139
12.230,-0.824
12.235,-0.287
12.240,0.087
12.245,0.271
12.250,0.393
12.255,0.417
12.260,0.319
12.265,0.145
12.270,0.077
12.275,0.220
12.280,0.332
12.285,0.308
12.290,0.261
12.295,0.195
12.300,0.147
12.305,0.167
12.310,0.180
12.315,0.206
12.320,0.274
12.325,0.259
12.330,0.172
12.335,0.126
12.340,0.119
12.345,0.112
12.350,0.078
12.355,0.021
12.360,-0.016
12.365,-0.013
12.370,-0.014
12.375,-0.016
12.380,-0.038
12.385,-0.084
12.390,-0.081
12.395,-0.063
12.400,-0.059
12.405,-0.052
12.410,-0.093
12.415,-0.137
12.420,-0.114
12.425,-0.076
12.430,-0.087
12.435,-0.135
12.440,-0.179
12.445,-0.171
12.450,-0.139
12.455,-0.171
12.460,-0.221
12.465,-0.212
12.470,-0.173
12.475,-0.159
12.480,-0.178
12.485,-0.197
12.490,-0.191
12.495,-0.146
12.500,-0.105
12.505,-0.088
12.510,-0.035
12.515,0.064
12.520,0.155
12.525,0.276
12.530,0.395
12.535,0.432
12.540,0.477
12.545,0.539
12.550,0.575
12.555,0.511
12.560,0.362
12.565,0.293
12.570,0.288
12.575,0.261
12.580,0.170
12.585,0.077
12.590,0.038
12.595,-0.031
12.600,-0.114
12.605,-0.161
12.610,-0.167
12.615,-0.118
12.620,-0.060
12.625,-0.030
12.630,-0.016
12.635,-0.003
12.640,0.007
12.645,0.008
12.650,0.005
12.655,0.016
12.660,0.048
12.665,0.050
12.670,0.015
12.675,0.024
12.680,0.060
12.685,0.074
12.690,0.097
12.695,0.089
12.700,0.043
12.705,0.012
12.710,-0.006
12.715,0.020
12.720,0.104
12.725,0.153
12.730,0.129
12.735,0.085
12.740,0.050
12.745,0.045
12.750,0.047
12.755,0.111
12.760,0.304
12.765,0.462
12.770,0.489
12.775,0.429
12.780,0.329
12.785,0.181
12.790,-0.013
12.795,-0.144
12.800,-0.162
12.805,-0.147
12.810,-0.150
12.815,-0.105
12.820,-0.108
12.825,-0.213
12.830,-0.234
12.835,-0.200
12.840,-0.190
12.845,-0.182
12.850,-0.204
12.855,-0.209
12.860,-0.221
12.865,-0.242
12.870,-0.203
12.875,-0.176
12.880,-0.143
12.885,-0.085
12.890,-0.077
12.895,-0.116
12.900,-0.183
12.905,-0.200
12.910,-0.171
12.915,-0.143
12.920,-0.075
12.925,-0.003
12.930,0.022
12.935,0.000
12.940,-0.048
12.945,-0.029
12.950,0.047
12.955,0.077
12.960,0.073
12.965,0.066
12.970,0.071
12.975,0.079
12.980,0.058
12.985,0.031
12.990,0.060
12.995,0.082
13.000,0.046
13.005,0.032
13.010,0.033
13.015,0.010
13.020,0.002
13.025,0.043
13.030,0.090
13.035,0.071
13.040,0.002
13.045,0.015
13.050,0.090
13.055,0.016
13.060,-0.197
13.065,-0.426
13.070,-0.672
13.075,-0.961
13.080,-1.160
13.085,-0.954
13.090,-0.442
13.095,-0.029
13.100,0.214
13.105,0.355
13.110,0.432
13.115,0.493
13.120,0.461
13.125,0.356
13.130,0.326
13.135,0.314
13.140,0.277
13.145,0.255
13.150,0.157
13.155,0.045
13.160,0.001
13.165,-0.060
13.170,-0.089
13.175,-0.058
13.180,-0.057
13.185,-0.039
13.190,-0.014
13.195,-0.058
13.200,-0.094
13.205,-0.087
13.210,-0.034
13.215,0.015
13.220,-0.015
13.225,-0.049
13.230,-0.042
13.235,-0.027
13.240,-0.005
13.245,-0.013
13.250,-0.063
13.255,-0.091
13.260,-0.074
13.265,-0.041
13.270,-0.060
13.275,-0.112
13.280,-0.087
13.285,-0.052
13.290,-0.093
13.295,-0.151
13.300,-0.152
13.305,-0.119
13.310,-0.116
13.315,-0.135
13.320,-0.156
13.325,-0.177
13.330,-0.194
13.335,-0.204
13.340,-0.189
13.345,-0.162
13.350,-0.132
13.355,-0.075
13.360,0.011
13.365,0.115
13.370,0.224
13.375,0.287
13.380,0.281
13.385,0.291
13.390,0.361
13.395,0.399
13.400,0.338
13.405,0.275
13.410,0.230
13.415,0.140
13.420,0.054
13.425,-0.004
13.430,0.001
13.435,0.054
13.440,0.066
13.445,0.056
13.450,0.032
13.455,0.015
13.460,0.034
13.465,0.077
13.470,0.126
13.475,0.145
13.480,0.148
13.485,0.134
13.490,0.098
13.495,0.101
13.500,0.123
13.505,0.112
13.510,0.087
13.515,0.086
13.520,0.119
13.525,0.121
13.530,0.078
13.535,0.037
13.540,0.035
13.545,0.072
13.550,0.089
13.555,0.109
13.560,0.127
13.565,0.090
13.570,0.056
13.575,0.053
13.580,0.069
13.585,0.118
13.590,0.194
13.595,0.250
13.600,0.255
13.605,0.221
13.610,0.222
13.615,0.271
13.620,0.218
13.625,0.067
13.630,-0.070
13.635,-0.115
13.640,-0.093
13.645,-0.122
13.650,-0.134
13.655,-0.061
13.660,0.001
13.665,-0.032
13.670,-0.128
13.675,-0.220
13.680,-0.244
13.685,-0.199
13.690,-0.149
13.695,-0.107
13.700,-0.138
13.705,-0.237
13.710,-0.273
13.715,-0.226
13.720,-0.159
13.725,-0.109
13.730,-0.108
13.735,-0.150
13.740,-0.198
13.745,-0.213
13.750,-0.198
13.755,-0.168
13.760,-0.112
13.765,-0.047
13.770,0.001
13.775,0.014
13.780,-0.001
13.785,0.000
13.790,0.022
13.795,0.009
13.800,0.005
13.805,0.065
13.810,0.115
13.815,0.112
13.820,0.100
13.825,0.101
13.830,0.090
13.835,0.059
13.840,0.028
13.845,0.080
13.850,0.215
13.855,0.345
13.860,0.429
13.865,0.411
13.870,0.331
13.875,0.271
13.880,0.202
13.885,0.042
13.890,-0.185
13.895,-0.407
13.900,-0.629
13.905,-0.911
13.910,-1.223
13.915,-1.251
13.920,-0.857
13.925,-0.381
13.930,-0.050
13.935,0.145
13.940,0.151
13.945,0.014
13.950,-0.123
13.955,-0.122
13.960,0.026
13.965,0.096
13.970,0.022
13.975,-0.013
13.980,0.059
13.985,0.114
13.990,0.104
13.995,0.096
14.000,0.098
14.005,0.125
14.010,0.152
14.015,0.119
14.020,0.055
14.025,0.016
14.030,0.047
14.035,0.133
14.040,0.201
14.045,0.192
14.050,0.132
14.055,0.118
14.060,0.145
14.065,0.130
14.070,0.081
14.075,0.066
14.080,0.082
14.085,0.068
14.090,0.012
14.095,-0.024
14.100,-0.011
14.105,0.012
14.110,0.066
14.115,0.190
14.120,0.299
14.125,0.313
14.130,0.235
14.135,0.065
14.140,-0.156
14.145,-0.343
14.150,-0.396
14.155,-0.305
14.160,-0.254
14.165,-0.310
14.170,-0.357
14.175,-0.351
14.180,-0.320
14.185,-0.307
14.190,-0.296
14.195,-0.229
14.200,-0.144
14.205,-0.101
14.210,-0.042
14.215,0.016
14.220,0.028
14.225,0.066
14.230,0.101
14.235,0.107
14.240,0.082
14.245,0.023
14.250,0.054
14.255,0.154
14.260,0.185
14.265,0.211
14.270,0.254
14.275,0.257
14.280,0.264
14.285,0.242
14.290,0.176
14.295,0.159
14.300,0.193
14.305,0.203
14.310,0.198
14.315,0.174
14.320,0.115
14.325,0.094
14.330,0.096
14.335,0.064
14.340,0.064
14.345,0.147
14.350,0.223
14.355,0.205
14.360,0.149
14.365,0.124
14.370,0.125
14.375,0.127
14.380,0.089
14.385,0.077
14.390,0.121
14.395,0.095
14.400,0.028
14.405,0.024
14.410,0.070
14.415,0.097
14.420,0.088
14.425,0.071
14.430,0.031
14.435,0.001
14.440,0.016
14.445,0.060
14.450,0.094
14.455,0.062
14.460,0.005
14.465,-0.001
14.470,0.013
14.475,-0.009
14.480,-0.051
14.485,-0.042
14.490,0.045
14.495,0.111
14.500,0.117
14.505,0.089
14.510,0.054
14.515,0.064
14.520,0.050
14.525,-0.032
14.530,-0.115
14.535,-0.149
14.540,-0.141
14.545,-0.137
14.550,-0.146
14.555,-0.131
14.560,-0.125
14.565,-0.178
14.570,-0.245
14.575,-0.283
14.580,-0.235
14.585,-0.136
14.590,-0.099
14.595,-0.127
14.600,-0.168
14.605,-0.162
14.610,-0.124
14.615,-0.102
14.620,-0.111
14.625,-0.100
14.630,-0.043
14.635,-0.024
14.640,-0.062
14.645,-0.089
14.650,-0.093
14.655,-0.088
14.660,-0.050
14.665,0.020
14.670,0.068
14.675,0.093
14.680,0.099
14.685,0.014
14.690,-0.122
14.695,-0.230
14.700,-0.394
14.705,-0.681
14.710,-0.992
14.715,-1.023
14.720,-0.604
14.725,-0.088
14.730,0.201
14.735,0.402
14.740,0.611
14.745,0.695
14.750,0.594
14.755,0.415
14.760,0.330
14.765,0.290
14.770,0.185
14.775,0.108
14.780,0.078
14.785,0.039
14.790,0.003
14.795,-0.012
14.800,-0.019
14.805,-0.041
14.810,-0.055
14.815,-0.040
14.820,-0.027
14.825,-0.031
14.830,-0.027
14.835,-0.012
14.840,0.013
14.845,0.040
14.850,0.033
14.855,-0.002
14.860,0.005
14.865,0.014
14.870,-0.010
14.875,-0.002
14.880,0.019
14.885,0.039
14.890,0.068
14.895,0.069
14.900,0.046
14.905,0.011
14.910,-0.043
14.915,-0.060
14.920,-0.049
14.925,-0.070
14.930,-0.093
14.935,-0.113
14.940,-0.132
14.945,-0.157
14.950,-0.183
14.955,-0.145
14.960,-0.113
14.965,-0.104
14.970,-0.052
14.975,0.010
14.980,0.121
14.985,0.240
14.990,0.247
14.995,0.158
15.000,0.054
15.005,-0.011
15.010,-0.004
15.015,0.039
15.020,0.037
15.025,0.017
15.030,0.044
15.035,0.100
15.040,0.147
15.045,0.160
15.050,0.159
15.055,0.127
15.060,0.037
15.065,-0.032
15.070,-0.042
15.075,-0.013
15.080,0.003
15.085,0.005
15.090,0.043
15.095,0.084
15.100,0.093
15.105,0.082
15.110,0.067
15.115,0.057
15.120,0.048
15.125,0.056
15.130,0.081
15.135,0.098
15.140,0.113
15.145,0.128
15.150,0.116
15.155,0.058
15.160,0.036
15.165,0.103
15.170,0.164
15.175,0.188
15.180,0.174
15.185,0.128
15.190,0.110
15.195,0.089
15.200,0.059
15.205,0.053
15.210,0.052
15.215,0.048
15.220,0.040
15.225,0.019
15.230,0.011
15.235,0.025
15.240,0.003
15.245,-0.049
15.250,-0.007
15.255,0.122
15.260,0.178
15.265,0.208
15.270,0.282
15.275,0.285
15.280,0.154
15.285,-0.026
15.290,-0.130
15.295,-0.159
15.300,-0.222
15.305,-0.298
15.310,-0.286
15.315,-0.227
15.320,-0.214
15.325,-0.217
15.330,-0.211
15.335,-0.224
15.340,-0.231
15.345,-0.202
15.350,-0.157
15.355,-0.114
15.360,-0.082
15.365,-0.088
15.370,-0.086
15.375,0.001
15.380,0.092
15.385,0.097
15.390,0.058
15.395,0.054
15.400,0.107
15.405,0.117
15.410,0.067
15.415,0.027
15.420,0.015
15.425,0.041
15.430,0.068
15.435,0.062
15.440,0.012
15.445,-0.085
15.450,-0.092
15.455,0.058
15.460,0.142
15.465,0.103
15.470,0.102
15.475,0.075
15.480,-0.032
15.485,-0.181
15.490,-0.396
15.495,-0.635
15.500,-0.932
15.505,-1.169
15.510,-0.960
15.515,-0.445
15.520,-0.113
15.525,0.027
15.530,0.139
15.535,0.223
15.540,0.270
15.545,0.224
15.550,0.166
15.555,0.188
15.560,0.170
15.565,0.113
15.570,0.124
15.575,0.177
15.580,0.187
15.585,0.146
15.590,0.081
15.595,0.040
15.600,0.080
15.605,0.151
15.610,0.138
15.615,0.090
15.620,0.096
15.625,0.124
15.630,0.125
15.635,0.090
15.640,0.058
15.645,0.057
15.650,0.060
15.655,0.013
15.660,-0.039
15.665,-0.020
15.670,-0.038
15.675,-0.085
15.680,-0.018
15.685,0.052
15.690,-0.003
15.695,-0.098
15.700,-0.111
15.705,-0.033
15.710,-0.004
15.715,-0.080
15.720,-0.147
15.725,-0.125
15.730,-0.102
15.735,-0.136
15.740,-0.187
15.745,-0.242
15.750,-0.250
15.755,-0.156
15.760,-0.030
15.765,0.002
15.770,-0.075
15.775,-0.173
15.780,-0.181
15.785,-0.082
15.790,-0.001
15.795,0.036
15.800,0.056
15.805,0.040
15.810,0.041
15.815,0.069
15.820,0.139
15.825,0.226
15.830,0.222
15.835,0.175
15.840,0.132
15.845,0.106
15.850,0.180
15.855,0.282
15.860,0.278
15.865,0.194
15.870,0.100
15.875,0.066
15.880,0.110
15.885,0.141
15.890,0.144
15.895,0.137
15.900,0.132
15.905,0.154
15.910,0.162
15.915,0.122
15.920,0.076
15.925,0.061
15.930,0.076
15.935,0.103
15.940,0.110
15.945,0.098
15.950,0.050
15.955,-0.009
15.960,-0.041
15.965,-0.060
15.970,-0.043
15.975,0.002
15.980,0.029
15.985,0.028
15.990,0.043
15.995,0.065
16.000,0.006
16.005,-0.055
16.010,-0.021
16.015,0.015
16.020,0.009
16.025,0.011
16.030,0.036
16.035,0.056
16.040,0.037
16.045,-0.020
16.050,-0.058
16.055,-0.060
16.060,-0.063
16.065,-0.059
16.070,-0.059
16.075,-0.101
16.080,-0.155
16.085,-0.204
16.090,-0.199
16.095,-0.127
16.100,-0.066
16.105,-0.043
16.110,-0.080
16.115,-0.102
16.120,-0.054
16.125,-0.011
16.130,0.027
16.135,0.020
16.140,-0.027
16.145,0.003
16.150,0.074
16.155,0.095
16.160,0.060
16.165,0.022
16.170,0.030
16.175,0.060
16.180,0.078
16.185,0.067
16.190,0.028
16.195,0.019
16.200,0.021
16.205,-0.004
16.210,-0.024
16.215,-0.027
16.220,0.013
16.225,0.066
16.230,0.072
16.235,0.047
16.240,-0.019
16.245,-0.123
16.250,-0.281
16.255,-0.515
16.260,-0.776
16.265,-1.040
16.270,-1.056
16.275,-0.618
16.280,-0.097
16.285,0.213
16.290,0.392
16.295,0.460
16.300,0.432
16.305,0.316
16.310,0.155
16.315,0.107
16.320,0.133
16.325,0.109
16.330,0.100
16.335,0.105
16.340,0.086
16.345,0.086
16.350,0.103
16.355,0.119
16.360,0.109
16.365,0.092
16.370,0.103
16.375,0.081
16.380,0.048
16.385,0.021
16.390,-0.048
16.395,-0.052
16.400,0.030
16.405,0.060
16.410,0.032
16.415,0.022
16.420,0.037
16.425,0.048
16.430,0.028
16.435,0.008
16.440,-0.002
16.445,-0.037
16.450,-0.076
16.455,-0.101
16.460,-0.119
16.465,-0.109
16.470,-0.074
16.475,-0.044
16.480,-0.053
16.485,-0.100
16.490,-0.154
16.495,-0.249
16.500,-0.315
16.505,-0.204
16.510,-0.070
16.515,-0.085
16.520,-0.159
16.525,-0.175
16.530,-0.111
16.535,-0.068
16.540,-0.082
16.545,-0.065
16.550,-0.007
16.555,0.013
16.560,0.013
16.565,0.064
16.570,0.126
16.575,0.145
16.580,0.131
16.585,0.133
16.590,0.157
16.595,0.186
16.600,0.209
16.605,0.188
16.610,0.166
16.615,0.161
16.620,0.133
16.625,0.147
16.630,0.194
16.635,0.205
16.640,0.196
16.645,0.166
16.650,0.120
16.655,0.087
16.660,0.103
16.665,0.151
16.670,0.157
16.675,0.116
16.680,0.078
16.685,0.075
16.690,0.084
16.695,0.084
16.700,0.081
16.705,0.081
16.710,0.059
16.715,0.021
16.720,0.038
16.725,0.080
16.730,0.103
16.735,0.099
16.740,0.033
16.745,-0.011
16.750,0.037
16.755,0.061
16.760,0.041
16.765,0.064
16.770,0.073
16.775,0.043
16.780,0.009
16.785,0.008
16.790,0.057
16.795,0.044
16.800,-0.055
16.805,-0.119
16.810,-0.100
16.815,-0.061
16.820,-0.067
16.825,-0.124
16.830,-0.128
16.835,-0.069
16.840,-0.069
16.845,-0.107
16.850,-0.112
16.855,-0.078
16.860,-0.041
16.865,-0.056
16.870,-0.070
16.875,-0.052
16.880,-0.038
16.885,-0.018
16.890,0.025
16.895,0.081
16.900,0.109
16.905,0.104
16.910,0.077
16.915,0.025
16.920,0.005
16.925,0.049
16.930,0.080
16.935,0.069
16.940,0.068
16.945,0.053
16.950,0.003
16.955,-0.048
16.960,-0.041
16.965,0.048
16.970,0.108
16.975,0.097
16.980,0.091
16.985,0.082
16.990,0.011
16.995,-0.156
17.000,-0.365
17.005,-0.571
17.010,-0.836
17.015,-1.120
17.020,-1.086
17.025,-0.597
17.030,-0.059
17.035,0.229
17.040,0.313
17.045,0.341
17.050,0.353
17.055,0.254
17.060,0.133
17.065,0.102
17.070,0.115
17.075,0.137
17.080,0.165
17.085,0.174
17.090,0.137
17.095,0.090
17.100,0.093
17.105,0.112
17.110,0.095
17.115,0.074
17.120,0.056
17.125,0.031
17.130,0.026
17.135,0.030
17.140,0.009
17.145,-0.010
17.150,0.012
17.155,0.055
17.160,0.072
17.165,0.034
17.170,-0.038
17.175,-0.078
17.180,-0.061
17.185,-0.008
17.190,0.034
17.195,0.022
17.200,-0.034
17.205,-0.100
17.210,-0.142
17.215,-0.138
17.220,-0.108
17.225,-0.079
17.230,-0.081
17.235,-0.133
17.240,-0.192
17.245,-0.188
17.250,-0.159
17.255,-0.169
17.260,-0.176
17.265,-0.178
17.270,-0.195
17.275,-0.179
17.280,-0.157
17.285,-0.134
17.290,-0.080
17.295,-0.077
17.300,-0.062
17.305,0.027
17.310,0.050
17.315,0.023
17.320,0.052
17.325,0.128
17.330,0.194
17.335,0.200
17.340,0.167
17.345,0.161
17.350,0.188
17.355,0.189
17.360,0.151
17.365,0.113
17.370,0.134
17.375,0.189
17.380,0.194
17.385,0.160
17.390,0.138
17.395,0.161
17.400,0.167
17.405,0.090
17.410,0.010
17.415,0.011
17.420,0.083
17.425,0.125
17.430,0.120
17.435,0.133
17.440,0.143
17.445,0.109
17.450,0.062
17.455,0.041
17.460,0.039
17.465,0.024
17.470,-0.010
17.475,0.029
17.480,0.110
17.485,0.103
17.490,0.014
17.495,-0.045
17.500,0.017
17.505,0.089
17.510,0.073
17.515,0.038
17.520,-0.012
17.525,-0.049
17.530,-0.057
17.535,-0.090
17.540,-0.105
17.545,-0.060
17.550,0.029
17.555,0.085
17.560,0.042
17.565,-0.025
17.570,-0.060
17.575,-0.083
17.580,-0.115
17.585,-0.175
17.590,-0.203
17.595,-0.137
17.600,-0.051
17.605,-0.031
17.610,-0.068
17.615,-0.127
17.620,-0.150
17.625,-0.025
17.630,0.153
17.635,0.187
17.640,0.160
17.645,0.121
17.650,0.074
17.655,0.082
17.660,0.064
17.665,0.040
17.670,0.057
17.675,0.036
17.680,0.016
17.685,0.044
17.690,0.051
17.695,0.026
17.700,0.009
17.705,-0.004
17.710,-0.047
17.715,-0.115
17.720,-0.109
17.725,0.007
17.730,0.069
17.735,0.023
17.740,-0.064
17.745,-0.236
17.750,-0.502
17.755,-0.876
17.760,-1.195
17.765,-1.084
17.770,-0.594
17.775,-0.101
17.780,0.217
17.785,0.347
17.790,0.354
17.795,0.285
17.800,0.131
17.805,0.062
17.810,0.184
17.815,0.264
17.820,0.216
17.825,0.159
17.830,0.105
17.835,0.085
17.840,0.122
17.845,0.153
17.850,0.176
17.855,0.161
17.860,0.087
17.865,0.034
17.870,0.031
17.875,0.054
17.880,0.097
17.885,0.133
17.890,0.104
17.895,-0.002
17.900,-0.080
17.905,-0.028
17.910,0.065
17.915,0.027
17.920,-0.077
17.925,-0.084
17.930,-0.001
17.935,0.033
17.940,-0.058
17.945,-0.114
17.950,-0.010
17.955,0.079
17.960,0.036
17.965,-0.034
17.970,-0.082
17.975,-0.139
17.980,-0.196
17.985,-0.238
17.990,-0.245
17.995,-0.198
18.000,-0.127
18.005,-0.077
18.010,-0.077
18.015,-0.118
18.020,-0.165
18.025,-0.182
18.030,-0.160
18.035,-0.131
18.040,-0.111
18.045,-0.104
18.050,-0.092
18.055,-0.030
18.060,0.036
18.065,0.092
18.070,0.214
18.075,0.306
18.080,0.273
18.085,0.207
18.090,0.188
18.095,0.214
18.100,0.186
18.105,0.090
18.110,0.104
18.115,0.205
18.120,0.187
18.125,0.111
18.130,0.118
18.135,0.161
18.140,0.155
18.145,0.122
18.150,0.138
18.155,0.135
18.160,0.079
18.165,0.069
18.170,0.103
18.175,0.135
18.180,0.117
18.185,0.060
18.190,0.029
18.195,-0.006
18.200,-0.023
18.205,0.038
18.210,0.048
18.215,-0.005
18.220,0.021
18.225,0.096
18.230,0.121
18.235,0.044
18.240,-0.069
18.245,-0.018
18.250,0.125
18.255,0.146
18.260,0.099
18.265,0.051
18.270,0.017
18.275,0.023
18.280,0.009
18.285,-0.025
18.290,-0.027
18.295,-0.028
18.300,-0.043
18.305,-0.042
18.310,-0.035
18.315,-0.052
18.320,-0.095
18.325,-0.139
18.330,-0.114
18.335,-0.067
18.340,-0.084
18.345,-0.119
18.350,-0.148
18.355,-0.141
18.360,-0.085
18.365,-0.058
18.370,-0.055
18.375,-0.035
18.380,-0.025
18.385,-0.011
18.390,0.022
18.395,0.018
18.400,-0.048
18.405,-0.098
18.410,-0.021
18.415,0.135
18.420,0.195
18.425,0.160
18.430,0.136
18.435,0.139
18.440,0.139
18.445,0.081
18.450,0.034
18.455,0.046
18.460,0.037
18.465,0.005
18.470,-0.003
18.475,0.001
18.480,-0.001
18.485,0.002
18.490,-0.005
18.495,-0.032
18.500,-0.100
18.505,-0.241
18.510,-0.473
18.515,-0.815
18.520,-1.163
18.525,-1.192
18.530,-0.783
18.535,-0.254
18.540,0.095
18.545,0.231
18.550,0.317
18.555,0.413
18.560,0.366
18.565,0.219
18.570,0.138
18.575,0.130
18.580,0.164
18.585,0.183
18.590,0.153
18.595,0.105
18.600,0.028
18.605,-0.038
18.610,-0.025
18.615,0.098
18.620,0.242
18.625,0.143
18.630,-0.074
18.635,0.001
18.640,0.205
18.645,0.231
18.650,0.169
18.655,0.114
18.660,0.104
18.665,0.110
18.670,0.053
18.675,0.032
18.680,0.056
18.685,-0.003
18.690,-0.057
18.695,-0.014
18.700,0.002
18.705,-0.052
18.710,-0.086
18.715,-0.154
18.720,-0.280
18.725,-0.283
18.730,-0.102
18.735,0.049
18.740,0.051
18.745,-0.029
18.750,-0.114
18.755,-0.130
18.760,-0.130
18.765,-0.176
18.770,-0.188
18.775,-0.170
18.780,-0.186
18.785,-0.197
18.790,-0.194
18.795,-0.183
18.800,-0.084
18.805,0.044
18.810,0.075
18.815,0.060
18.820,0.076
18.825,0.118
18.830,0.141
18.835,0.136
18.840,0.154
18.845,0.186
18.850,0.183
18.855,0.171
18.860,0.179
18.865,0.174
18.870,0.157
18.875,0.151
18.880,0.147
18.885,0.139
18.890,0.133
18.895,0.132
18.900,0.127
18.905,0.118
18.910,0.116
18.915,0.109
18.920,0.091
18.925,0.084
18.930,0.082
18.935,0.076
18.940,0.070
18.945,0.054
18.950,0.041
18.955,0.039
18.960,0.052
18.965,0.060
18.970,0.047
18.975,0.039
18.980,0.027
18.985,0.012
18.990,0.017
18.995,0.034
19.000,0.047
19.005,0.037
19.010,0.018
19.015,0.015
19.020,0.013
19.025,0.002
19.030,-0.018
19.035,-0.052
19.040,-0.058
19.045,-0.014
19.050,0.047
19.055,0.093
19.060,0.079
19.065,0.030
19.070,0.015
19.075,0.017
19.080,-0.003
19.085,-0.022
19.090,-0.009
19.095,0.005
19.100,0.013
19.105,0.002
19.110,-0.062
19.115,-0.136
19.120,-0.150
19.125,-0.124
19.130,-0.128
19.135,-0.154
19.140,-0.159
19.145,-0.111
19.150,-0.044
19.155,-0.036
19.160,-0.022
19.165,0.034
19.170,0.059
19.175,0.062
19.180,0.071
19.185,0.074
19.190,0.059
19.195,0.037
19.200,0.034
19.205,0.035
19.210,0.027
19.215,0.033
19.220,0.055
19.225,0.069
19.230,0.056
19.235,0.026
19.240,0.000
19.245,-0.003
19.250,0.023
19.255,0.056
19.260,0.068
19.265,0.000
19.270,-0.203
19.275,-0.478
19.280,-0.690
19.285,-0.882
19.290,-1.083
19.295,-0.989
19.300,-0.512
19.305,0.001
19.310,0.317
19.315,0.422
19.320,0.428
19.325,0.407
19.330,0.309
19.335,0.215
19.340,0.230
19.345,0.245
19.350,0.196
19.355,0.159
19.360,0.153
19.365,0.142
19.370,0.131
19.375,0.131
19.380,0.118
19.385,0.104
19.390,0.101
19.395,0.067
19.400,0.018
19.405,0.020
19.410,0.068
19.415,0.093
19.420,0.074
19.425,0.053
19.430,0.055
19.435,0.069
19.440,0.070
19.445,0.032
19.450,-0.007
19.455,-0.033
19.460,-0.066
19.465,-0.097
19.470,-0.116
19.475,-0.119
19.480,-0.130
19.485,-0.156
19.490,-0.171
19.495,-0.179
19.500,-0.186
19.505,-0.201
19.510,-0.225
19.515,-0.241
19.520,-0.248
19.525,-0.249
19.530,-0.246
19.535,-0.273
19.540,-0.317
19.545,-0.323
19.550,-0.268
19.555,-0.189
19.560,-0.134
19.565,-0.104
19.570,-0.079
19.575,-0.040
19.580,0.004
19.585,0.039
19.590,0.078
19.595,0.113
19.600,0.137
19.605,0.160
19.610,0.189
19.615,0.218
19.620,0.225
19.625,0.210
19.630,0.195
19.635,0.185
19.640,0.174
19.645,0.162
19.650,0.161
19.655,0.166
19.660,0.160
19.665,0.143
19.670,0.119
19.675,0.090
19.680,0.077
19.685,0.087
19.690,0.113
19.695,0.117
19.700,0.094
19.705,0.077
19.710,0.061
19.715,0.059
19.720,0.071
19.725,0.077
19.730,0.076
19.735,0.064
19.740,0.054
19.745,0.046
19.750,0.020
19.755,-0.007
19.760,-0.021
19.765,-0.023
19.770,-0.021
19.775,-0.015
19.780,-0.004
19.785,0.000
19.790,-0.004
19.795,-0.010
19.800,-0.015
19.805,-0.022
19.810,-0.032
19.815,-0.035
19.820,-0.032
19.825,-0.039
19.830,-0.048
19.835,-0.050
19.840,-0.052
19.845,-0.058
19.850,-0.070
19.855,-0.078
19.860,-0.069
19.865,-0.059
19.870,-0.065
19.875,-0.081
19.880,-0.094
19.885,-0.095
19.890,-0.077
19.895,-0.051
19.900,-0.034
19.905,-0.020
19.910,-0.001
19.915,0.019
19.920,0.042
19.925,0.064
19.930,0.100
19.935,0.145
19.940,0.145
19.945,0.105
19.950,0.076
19.955,0.072
19.960,0.078
19.965,0.077
19.970,0.063
19.975,0.047
19.980,0.041
19.985,0.042
19.990,0.042
19.995,0.036
20.000,0.025
20.005,0.022
20.010,0.025
20.015,0.034
20.020,0.047
20.025,0.030
20.030,-0.058
20.035,-0.212
20.040,-0.397
20.045,-0.611
20.050,-0.895
20.055,-1.126
20.060,-0.970
20.065,-0.474
20.070,-0.034
20.075,0.222
20.080,0.349
20.085,0.388
20.090,0.333
20.095,0.211
20.100,0.139
20.105,0.164
20.110,0.192
20.115,0.178
20.120,0.193
20.125,0.211
20.130,0.179
20.135,0.156
20.140,0.158
20.145,0.151
20.150,0.141
20.155,0.134
20.160,0.111
20.165,0.080
20.170,0.073
20.175,0.070
20.180,0.055
20.185,0.061
20.190,0.078
20.195,0.070
20.200,0.044
20.205,0.024
20.210,0.019
20.215,0.022
20.220,0.022
20.225,0.018
20.230,0.011
20.235,-0.008
20.240,-0.028
20.245,-0.042
20.250,-0.057
20.255,-0.078
20.260,-0.103
20.265,-0.116
20.270,-0.125
20.275,-0.155
20.280,-0.192
20.285,-0.208
20.290,-0.197
20.295,-0.189
20.300,-0.197
20.305,-0.209
20.310,-0.210
20.315,-0.185
20.320,-0.143
20.325,-0.094
20.330,-0.045
20.335,-0.006
20.340,0.024
20.345,0.047
20.350,0.067
20.355,0.087
20.360,0.128
20.365,0.185
20.370,0.226
20.375,0.248
20.380,0.243
20.385,0.222
20.390,0.205
20.395,0.199
20.400,0.200
20.405,0.192
20.410,0.180
20.415,0.173
20.420,0.169
20.425,0.159
20.430,0.143
20.435,0.126
20.440,0.122
20.445,0.123
20.450,0.112
20.455,0.096
20.460,0.079
20.465,0.068
20.470,0.062
20.475,0.052
20.480,0.041
20.485,0.034
20.490,0.032
20.495,0.034
20.500,0.029
20.505,0.016
20.510,0.011
20.515,0.014
20.520,0.016
20.525,0.020
20.530,0.020
20.535,0.009
20.540,-0.007
20.545,-0.010
20.550,0.011
20.555,0.023
20.560,0.006
20.565,-0.012
20.570,-0.014
20.575,-0.012
20.580,-0.021
20.585,-0.019
20.590,0.000
20.595,0.010
20.600,-0.004
20.605,-0.027
20.610,-0.036
20.615,-0.042
20.620,-0.058
20.625,-0.070
20.630,-0.077
20.635,-0.077
20.640,-0.081
20.645,-0.100
20.650,-0.133
20.655,-0.175
20.660,-0.191
20.665,-0.157
20.670,-0.108
20.675,-0.089
20.680,-0.085
20.685,-0.059
20.690,-0.020
20.695,0.004
20.700,0.013
20.705,0.025
20.710,0.048
20.715,0.063
20.720,0.060
20.725,0.055
20.730,0.044
20.735,0.029
20.740,0.037
20.745,0.063
20.750,0.079
20.755,0.061
20.760,0.029
20.765,0.016
20.770,0.016
20.775,0.018
20.780,0.015
20.785,0.016
20.790,0.016
20.795,0.014
20.800,0.026
20.805,0.025
20.810,-0.050
20.815,-0.203
20.820,-0.403
20.825,-0.643
20.830,-0.953
20.835,-1.146
20.840,-0.912
20.845,-0.371
20.850,0.093
20.855,0.329
20.860,0.402
20.865,0.399
20.870,0.336
20.875,0.216
20.880,0.142
20.885,0.157
20.890,0.152
20.895,0.118
20.900,0.118
20.905,0.116
20.910,0.106
20.915,0.111
20.920,0.111
20.925,0.104
20.930,0.103
20.935,0.102
20.940,0.088
20.945,0.068
20.950,0.045
20.955,0.022
20.960,0.027
20.965,0.052
20.970,0.056
20.975,0.024
20.980,-0.006
20.985,-0.007
20.990,-0.001
20.995,-0.004
21.000,-0.007
21.005,-0.018
21.010,-0.035
21.015,-0.045
21.020,-0.056
21.025,-0.068
21.030,-0.077
21.035,-0.091
21.040,-0.119
21.045,-0.153
21.050,-0.174
21.055,-0.179
21.060,-0.181
21.065,-0.184
21.070,-0.189
21.075,-0.192
21.080,-0.193
21.085,-0.189
21.090,-0.188
21.095,-0.179
21.100,-0.155
21.105,-0.121
21.110,-0.063
21.115,-0.010
21.120,0.028
21.125,0.065
21.130,0.095
21.135,0.125
21.140,0.145
21.145,0.153
21.150,0.178
21.155,0.206
21.160,0.216
21.165,0.211
21.170,0.196
21.175,0.178
21.180,0.178
21.185,0.190
21.190,0.194
21.195,0.189
21.200,0.173
21.205,0.161
21.210,0.158
21.215,0.147
21.220,0.125
21.225,0.102
21.230,0.093
21.235,0.098
21.240,0.113
21.245,0.121
21.250,0.105
21.255,0.084
21.260,0.074
21.265,0.064
21.270,0.051
21.275,0.042
21.280,0.030
21.285,0.032
21.290,0.041
21.295,0.027
21.300,0.009
21.305,0.000
21.310,0.002
21.315,0.016
21.320,0.010
21.325,0.000
21.330,0.002
21.335,0.001
21.340,0.008
21.345,0.018
21.350,0.018
21.355,0.017
21.360,0.013
21.365,0.011
21.370,0.008
21.375,-0.004
21.380,-0.015
21.385,-0.016
21.390,-0.008
21.395,-0.011
21.400,-0.028
21.405,-0.046
21.410,-0.051
21.415,-0.046
21.420,-0.048
21.425,-0.052
21.430,-0.056
21.435,-0.062
21.440,-0.072
21.445,-0.096
21.450,-0.122
21.455,-0.138
21.460,-0.139
21.465,-0.122
21.470,-0.107
21.475,-0.102
21.480,-0.092
21.485,-0.071
21.490,-0.050
21.495,-0.037
21.500,-0.015
21.505,0.022
21.510,0.048
21.515,0.056
21.520,0.063
21.525,0.075
21.530,0.083
21.535,0.076
21.540,0.064
21.545,0.062
21.550,0.065
21.555,0.059
21.560,0.051
21.565,0.049
21.570,0.045
21.575,0.041
21.580,0.034
21.585,0.029
21.590,0.022
21.595,0.008
21.600,0.009
21.605,0.032
21.610,0.028
21.615,-0.046
21.620,-0.198
21.625,-0.391
21.630,-0.620
21.635,-0.916
21.640,-1.150
21.645,-1.003
21.650,-0.484
21.655,0.014
21.660,0.291
21.665,0.394
21.670,0.406
21.675,0.366
21.680,0.257
21.685,0.160
21.690,0.162
21.695,0.180
21.700,0.171
21.705,0.170
21.710,0.165
21.715,0.142
21.720,0.131
21.725,0.125
21.730,0.106
21.735,0.091
21.740,0.087
21.745,0.084
21.750,0.080
21.755,0.072
21.760,0.059
21.765,0.053
21.770,0.057
21.775,0.063
21.780,0.057
21.785,0.042
21.790,0.028
21.795,0.010
21.800,-0.013
21.805,-0.032
21.810,-0.042
21.815,-0.045
21.820,-0.037
21.825,-0.030
21.830,-0.052
21.835,-0.084
21.840,-0.104
21.845,-0.119
21.850,-0.141
21.855,-0.160
21.860,-0.170
21.865,-0.177
21.870,-0.184
21.875,-0.186
21.880,-0.185
21.885,-0.186
21.890,-0.189
21.895,-0.188
21.900,-0.176
21.905,-0.152
21.910,-0.122
21.915,-0.086
21.920,-0.045
21.925,0.003
21.930,0.046
21.935,0.086
21.940,0.125
21.945,0.152
21.950,0.163
21.955,0.164
21.960,0.177
21.965,0.207
21.970,0.228
21.975,0.223
21.980,0.198
21.985,0.185
21.990,0.188
21.995,0.191
22.000,0.192
22.005,0.181
22.010,0.163
22.015,0.147
22.020,0.133
22.025,0.119
22.030,0.107
22.035,0.111
22.040,0.118
22.045,0.108
22.050,0.089
22.055,0.076
22.060,0.070
22.065,0.067
22.070,0.064
22.075,0.059
22.080,0.054
22.085,0.041
22.090,0.024
22.095,0.021
22.100,0.022
22.105,0.014
22.110,0.011
22.115,0.013
22.120,0.009
22.125,0.006
22.130,0.010
22.135,0.013
22.140,0.013
22.145,0.008
22.150,0.002
22.155,0.001
22.160,0.001
22.165,0.005
22.170,0.009
22.175,0.008
22.180,0.001
22.185,-0.005
22.190,0.001
22.195,0.002
22.200,-0.005
22.205,-0.012
22.210,-0.018
22.215,-0.021
22.220,-0.020
22.225,-0.026
22.230,-0.033
22.235,-0.027
22.240,-0.012
22.245,-0.003
22.250,-0.007
22.255,-0.011
22.260,-0.014
22.265,-0.017
22.270,-0.021
22.275,-0.024
22.280,-0.023
22.285,-0.028
22.290,-0.036
22.295,-0.036
22.300,-0.031
22.305,-0.036
22.310,-0.046
22.315,-0.054
22.320,-0.070
22.325,-0.084
22.330,-0.088
22.335,-0.096
22.340,-0.111
22.345,-0.128
22.350,-0.139
22.355,-0.150
22.360,-0.155
22.365,-0.140
22.370,-0.120
22.375,-0.096
22.380,-0.072
22.385,-0.061
22.390,-0.042
22.395,-0.017
22.400,-0.006
22.405,0.007
22.410,0.020
22.415,0.033
22.420,0.062
22.425,0.077
22.430,0.071
22.435,0.067
22.440,0.067
22.445,0.072
22.450,0.064
22.455,0.044
22.460,0.043
22.465,0.049
22.470,0.045
22.475,0.038
22.480,0.035
22.485,0.029
22.490,0.015
22.495,0.012
22.500,0.026
22.505,0.040
22.510,0.014
22.515,-0.092
22.520,-0.250
22.525,-0.437
22.530,-0.684
22.535,-0.988
22.540,-1.153
22.545,-0.905
22.550,-0.375
22.555,0.052
22.560,0.264
22.565,0.339
22.570,0.341
22.575,0.292
22.580,0.214
22.585,0.183
22.590,0.209
22.595,0.202
22.600,0.181
22.605,0.193
22.610,0.188
22.615,0.159
22.620,0.144
22.625,0.146
22.630,0.137
22.635,0.124
22.640,0.124
22.645,0.110
22.650,0.089
22.655,0.084
22.660,0.080
22.665,0.079
22.670,0.087
22.675,0.082
22.680,0.065
22.685,0.055
22.690,0.043
22.695,0.028
22.700,0.016
22.705,0.005
22.710,-0.008
22.715,-0.024
22.720,-0.038
22.725,-0.048
22.730,-0.065
22.735,-0.081
22.740,-0.093
22.745,-0.110
22.750,-0.132
22.755,-0.155
22.760,-0.179
22.765,-0.196
22.770,-0.206
22.775,-0.207
22.780,-0.201
22.785,-0.201
22.790,-0.202
22.795,-0.194
22.800,-0.176
22.805,-0.152
22.810,-0.119
22.815,-0.075
22.820,-0.031
22.825,0.004
22.830,0.043
22.835,0.098
22.840,0.144
22.845,0.173
22.850,0.193
22.855,0.208
22.860,0.219
22.865,0.218
22.870,0.220
22.875,0.227
22.880,0.220
22.885,0.210
22.890,0.213
22.895,0.214
22.900,0.201
22.905,0.185
22.910,0.185
22.915,0.182
22.920,0.163
22.925,0.145
22.930,0.141
22.935,0.142
22.940,0.127
22.945,0.105
22.950,0.096
22.955,0.089
22.960,0.081
22.965,0.081
22.970,0.077
22.975,0.069
22.980,0.060
22.985,0.044
22.990,0.028
22.995,0.022
23.000,0.019
23.005,0.012
23.010,0.010
23.015,0.022
23.020,0.032
23.025,0.024
23.030,0.007
23.035,-0.003
23.040,0.005
23.045,0.016
23.050,0.022
23.055,0.020
23.060,0.012
23.065,0.005
23.070,0.000
23.075,0.002
23.080,0.011
23.085,0.008
23.090,-0.002
23.095,-0.006
23.100,-0.011
23.105,-0.013
23.110,-0.012
23.115,-0.021
23.120,-0.023
23.125,-0.004
23.130,0.006
23.135,-0.007
23.140,-0.014
23.145,-0.016
23.150,-0.018
23.155,-0.017
23.160,-0.028
23.165,-0.030
23.170,-0.013
23.175,-0.009
23.180,-0.017
23.185,-0.023
23.190,-0.031
23.195,-0.046
23.200,-0.043
23.205,-0.031
23.210,-0.034
23.215,-0.035
23.220,-0.034
23.225,-0.035
23.230,-0.032
23.235,-0.036
23.240,-0.044
23.245,-0.038
23.250,-0.032
23.255,-0.043
23.260,-0.040
23.265,-0.024
23.270,-0.024
23.275,-0.034
23.280,-0.049
23.285,-0.056
23.290,-0.047
23.295,-0.036
23.300,-0.045
23.305,-0.067
23.310,-0.079
23.315,-0.084
23.320,-0.084
23.325,-0.077
23.330,-0.084
23.335,-0.103
23.340,-0.122
23.345,-0.152
23.350,-0.179
23.355,-0.171
23.360,-0.134
23.365,-0.090
23.370,-0.061
23.375,-0.051
23.380,-0.042
23.385,-0.031
23.390,-0.027
23.395,-0.019
23.400,0.016
23.405,0.034
23.410,0.033
23.415,0.051
23.420,0.072
23.425,0.087
23.430,0.077
23.435,0.055
23.440,0.050
23.445,0.050
23.450,0.044
23.455,0.037
23.460,0.029
23.465,0.024
23.470,0.026
23.475,0.023
23.480,0.018
23.485,0.021
23.490,0.029
23.495,0.045
23.500,0.054
23.505,0.008
23.510,-0.115
23.515,-0.282
23.520,-0.474
23.525,-0.726
23.530,-1.040
23.535,-1.168
23.540,-0.847
23.545,-0.281
23.550,0.149
23.555,0.338
23.560,0.381
23.565,0.364
23.570,0.299
23.575,0.211
23.580,0.178
23.585,0.202
23.590,0.190
23.595,0.161
23.600,0.175
23.605,0.178
23.610,0.154
23.615,0.147
23.620,0.136
23.625,0.119
23.630,0.117
23.635,0.122
23.640,0.129
23.645,0.125
23.650,0.106
23.655,0.083
23.660,0.063
23.665,0.053
23.670,0.043
23.675,0.042
23.680,0.057
23.685,0.056
23.690,0.040
23.695,0.025
23.700,0.014
23.705,-0.005
23.710,-0.032
23.715,-0.049
23.720,-0.056
23.725,-0.060
23.730,-0.075
23.735,-0.094
23.740,-0.104
23.745,-0.114
23.750,-0.134
23.755,-0.158
23.760,-0.172
23.765,-0.181
23.770,-0.188
23.775,-0.194
23.780,-0.204
23.785,-0.206
23.790,-0.199
23.795,-0.180
23.800,-0.135
23.805,-0.089
23.810,-0.053
23.815,-0.023
23.820,0.007
23.825,0.044
23.830,0.078
23.835,0.109
23.840,0.143
23.845,0.175
23.850,0.202
23.855,0.222
23.860,0.223
23.865,0.211
23.870,0.210
23.875,0.218
23.880,0.219
23.885,0.218
23.890,0.214
23.895,0.206
23.900,0.191
23.905,0.174
23.910,0.164
23.915,0.156
23.920,0.151
23.925,0.146
23.930,0.141
23.935,0.133
23.940,0.107
23.945,0.094
23.950,0.093
23.955,0.085
23.960,0.079
23.965,0.068
23.970,0.054
23.975,0.045
23.980,0.033
23.985,0.025
23.990,0.017
23.995,0.013
24.000,0.017
24.005,0.022
24.010,0.034
24.015,0.036
24.020,0.027
24.025,0.016
24.030,0.001
24.035,-0.004
24.040,-0.002
24.045,-0.002
24.050,0.010
24.055,0.012
24.060,-0.002
24.065,-0.007
24.070,-0.007
24.075,0.005
24.080,0.021
24.085,0.014
24.090,0.001
24.095,-0.005
24.100,-0.016
24.105,-0.031
24.110,-0.033
24.115,-0.021
24.120,-0.005
24.125,-0.003
24.130,-0.018
24.135,-0.035
24.140,-0.038
24.145,-0.030
24.150,-0.018
24.155,-0.013
24.160,-0.020
24.165,-0.027
24.170,-0.034
24.175,-0.046
24.180,-0.048
24.185,-0.025
24.190,-0.006
24.195,-0.018
24.200,-0.040
24.205,-0.054
24.210,-0.058
24.215,-0.051
24.220,-0.050
24.225,-0.053
24.230,-0.055
24.235,-0.072
24.240,-0.105
24.245,-0.123
24.250,-0.105
24.255,-0.071
24.260,-0.066
24.265,-0.097
24.270,-0.143
24.275,-0.172
24.280,-0.169
24.285,-0.146
24.290,-0.109
24.295,-0.075
24.300,-0.079
24.305,-0.089
24.310,-0.071
24.315,-0.042
24.320,-0.008
24.325,0.021
24.330,0.031
24.335,0.039
24.340,0.051
24.345,0.061
24.350,0.064
24.355,0.059
24.360,0.048
24.365,0.039
24.370,0.037
24.375,0.041
24.380,0.042
24.385,0.036
24.390,0.032
24.395,0.032
24.400,0.021
24.405,0.007
24.410,0.012
24.415,0.020
24.420,0.025
24.425,0.030
24.430,0.018
24.435,-0.051
24.440,-0.211
24.445,-0.410
24.450,-0.630
24.455,-0.934
24.460,-1.182
24.465,-1.038
24.470,-0.493
24.475,0.042
24.480,0.324
24.485,0.410
24.490,0.407
24.495,0.361
24.500,0.246
24.505,0.159
24.510,0.180
24.515,0.206
24.520,0.190
24.525,0.181
24.530,0.174
24.535,0.153
24.540,0.147
24.545,0.143
24.550,0.124
24.555,0.115
24.560,0.113
24.565,0.101
24.570,0.084
24.575,0.088
24.580,0.091
24.585,0.071
24.590,0.058
24.595,0.066
24.600,0.077
24.605,0.070
24.610,0.043
24.615,0.029
24.620,0.033
24.625,0.025
24.630,0.005
24.635,-0.014
24.640,-0.029
24.645,-0.043
24.650,-0.059
24.655,-0.078
24.660,-0.094
24.665,-0.110
24.670,-0.133
24.675,-0.143
24.680,-0.150
24.685,-0.168
24.690,-0.178
24.695,-0.184
24.700,-0.190
24.705,-0.191
24.710,-0.196
24.715,-0.194
24.720,-0.175
24.725,-0.148
24.730,-0.117
24.735,-0.075
24.740,-0.030
24.745,0.004
24.750,0.031
24.755,0.065
24.760,0.117
24.765,0.165
24.770,0.185
24.775,0.194
24.780,0.213
24.785,0.224
24.790,0.223
24.795,0.226
24.800,0.233
24.805,0.227
24.810,0.208
24.815,0.201
24.820,0.206
24.825,0.198
24.830,0.180
24.835,0.169
24.840,0.162
24.845,0.153
24.850,0.145
24.855,0.135
24.860,0.121
24.865,0.106
24.870,0.091
24.875,0.089
24.880,0.094
24.885,0.086
24.890,0.067
24.895,0.051
24.900,0.045
24.905,0.043
24.910,0.034
24.915,0.023
24.920,0.020
24.925,0.024
24.930,0.031
24.935,0.033
24.940,0.021
24.945,0.008
24.950,0.004
24.955,0.002
24.960,0.006
24.965,0.010
24.970,0.004
24.975,-0.006
24.980,-0.014
24.985,-0.006
24.990,0.011
24.995,0.012
25.000,0.003
25.005,0.003
25.010,0.008
25.015,0.009
25.020,0.003
25.025,-0.003
25.030,-0.005
25.035,-0.001
25.040,0.000
25.045,-0.007
25.050,-0.010
25.055,-0.010
25.060,-0.002
25.065,0.002
25.070,-0.017
25.075,-0.033
25.080,-0.024
25.085,-0.016
25.090,-0.017
25.095,-0.027
25.100,-0.035
25.105,-0.026
25.110,-0.023
25.115,-0.030
25.120,-0.030
25.125,-0.028
25.130,-0.027
25.135,-0.026
25.140,-0.027
25.145,-0.026
25.150,-0.027
25.155,-0.036
25.160,-0.047
25.165,-0.067
25.170,-0.089
25.175,-0.091
25.180,-0.095
25.185,-0.103
25.190,-0.103
25.195,-0.104
25.200,-0.110
25.205,-0.124
25.210,-0.145
25.215,-0.154
25.220,-0.145
25.225,-0.127
25.230,-0.098
25.235,-0.067
25.240,-0.057
25.245,-0.043
25.250,-0.016
25.255,0.001
25.260,0.015
25.265,0.033
25.270,0.043
25.275,0.046
25.280,0.046
25.285,0.055
25.290,0.067
25.295,0.067
25.300,0.062
25.305,0.062
25.310,0.062
25.315,0.059
25.320,0.053
25.325,0.043
25.330,0.037
25.335,0.030
25.340,0.022
25.345,0.020
25.350,0.021
25.355,0.028
25.360,0.042
25.365,0.046
25.370,0.008
25.375,-0.107
25.380,-0.287
25.385,-0.494
25.390,-0.750
25.395,-1.066
25.400,-1.202
25.405,-0.888
25.410,-0.331
25.415,0.090
25.420,0.294
25.425,0.362
25.430,0.364
25.435,0.298
25.440,0.197
25.445,0.180
25.450,0.222
25.455,0.207
25.460,0.178
25.465,0.184
25.470,0.183
25.475,0.164
25.480,0.159
25.485,0.155
25.490,0.137
25.495,0.128
25.500,0.123
25.505,0.102
25.510,0.085
25.515,0.093
25.520,0.105
25.525,0.103
25.530,0.088
25.535,0.069
25.540,0.053
25.545,0.047
25.550,0.043
25.555,0.029
25.560,0.019
25.565,0.010
25.570,-0.008
25.575,-0.028
25.580,-0.045
25.585,-0.049
25.590,-0.051
25.595,-0.071
25.600,-0.101
25.605,-0.130
25.610,-0.153
25.615,-0.166
25.620,-0.176
25.625,-0.183
25.630,-0.188
25.635,-0.197
25.640,-0.213
25.645,-0.223
25.650,-0.220
25.655,-0.207
25.660,-0.185
25.665,-0.156
25.670,-0.122
25.675,-0.080
25.680,-0.036
25.685,0.009
25.690,0.061
25.695,0.107
25.700,0.141
25.705,0.168
25.710,0.190
25.715,0.221
25.720,0.241
25.725,0.237
25.730,0.235
25.735,0.232
25.740,0.226
25.745,0.223
25.750,0.218
25.755,0.216
25.760,0.216
25.765,0.201
25.770,0.185
25.775,0.176
25.780,0.169
25.785,0.163
25.790,0.153
25.795,0.137
25.800,0.123
25.805,0.120
25.810,0.122
25.815,0.112
25.820,0.095
25.825,0.088
25.830,0.079
25.835,0.066
25.840,0.056
25.845,0.048
25.850,0.040
25.855,0.036
25.860,0.029
25.865,0.024
25.870,0.021
25.875,0.014
25.880,0.013
25.885,0.015
25.890,0.008
25.895,0.004
25.900,0.008
25.905,0.008
25.910,0.005
25.915,0.006
25.920,0.004
25.925,-0.001
25.930,-0.006
25.935,-0.008
25.940,-0.005
25.945,-0.005
25.950,-0.005
25.955,-0.006
25.960,-0.006
25.965,-0.004
25.970,-0.007
25.975,-0.010
25.980,-0.015
25.985,-0.024
25.990,-0.023
25.995,-0.016
26.000,-0.018
26.005,-0.031
26.010,-0.035
26.015,-0.022
26.020,-0.013
26.025,-0.019
26.030,-0.026
26.035,-0.022
26.040,-0.018
26.045,-0.026
26.050,-0.034
26.055,-0.036
26.060,-0.040
26.065,-0.043
26.070,-0.038
26.075,-0.037
26.080,-0.045
26.085,-0.052
26.090,-0.046
26.095,-0.036
26.100,-0.036
26.105,-0.042
26.110,-0.040
26.115,-0.035
26.120,-0.043
26.125,-0.049
26.130,-0.047
26.135,-0.051
26.140,-0.063
26.145,-0.077
26.150,-0.092
26.155,-0.105
26.160,-0.111
26.165,-0.107
26.170,-0.103
26.175,-0.112
26.180,-0.126
26.185,-0.141
26.190,-0.142
26.195,-0.121
26.200,-0.099
26.205,-0.084
26.210,-0.079
26.215,-0.068
26.220,-0.040
26.225,-0.019
26.230,-0.006
26.235,0.007
26.240,0.033
26.245,0.054
26.250,0.057
26.255,0.064
26.260,0.070
26.265,0.068
26.270,0.060
26.275,0.054
26.280,0.050
26.285,0.040
26.290,0.027
26.295,0.024
26.300,0.036
26.305,0.042
26.310,0.033
26.315,0.022
26.320,0.017
26.325,0.017
26.330,0.019
26.335,0.028
26.340,0.031
26.345,-0.016
26.350,-0.134
26.355,-0.301
26.360,-0.499
26.365,-0.762
26.370,-1.071
26.375,-1.137
26.380,-0.763
26.385,-0.236
26.390,0.127
26.395,0.298
26.400,0.356
26.405,0.351
26.410,0.277
26.415,0.189
26.420,0.182
26.425,0.222
26.430,0.217
26.435,0.195
26.440,0.192
26.445,0.176
26.450,0.159
26.455,0.159
26.460,0.153
26.465,0.142
26.470,0.141
26.475,0.137
26.480,0.121
26.485,0.110
26.490,0.108
26.495,0.098
26.500,0.083
26.505,0.068
26.510,0.054
26.515,0.053
26.520,0.059
26.525,0.051
26.530,0.029
26.535,0.025
26.540,0.029
26.545,0.014
26.550,-0.010
26.555,-0.032
26.560,-0.047
26.565,-0.060
26.570,-0.078
26.575,-0.095
26.580,-0.114
26.585,-0.132
26.590,-0.146
26.595,-0.163
26.600,-0.180
26.605,-0.194
26.610,-0.203
26.615,-0.210
26.620,-0.220
26.625,-0.218
26.630,-0.208
26.635,-0.192
26.640,-0.160
26.645,-0.117
26.650,-0.066
26.655,-0.011
26.660,0.035
26.665,0.078
26.670,0.118
26.675,0.143
26.680,0.174
26.685,0.201
26.690,0.217
26.695,0.238
26.700,0.256
26.705,0.257
26.710,0.251
26.715,0.246
26.720,0.232
26.725,0.213
26.730,0.196
26.735,0.193
26.740,0.207
26.745,0.210
26.750,0.201
26.755,0.193
26.760,0.171
26.765,0.151
26.770,0.146
26.775,0.144
26.780,0.143
26.785,0.131
26.790,0.111
26.795,0.091
26.800,0.077
26.805,0.076
26.810,0.069
26.815,0.058
26.820,0.046
26.825,0.041
26.830,0.046
26.835,0.035
26.840,0.012
26.845,0.005
26.850,0.010
26.855,0.018
26.860,0.025
26.865,0.019
26.870,0.009
26.875,0.004
26.880,0.001
26.885,-0.002
26.890,-0.007
26.895,-0.015
26.900,-0.023
26.905,-0.018
26.910,-0.010
26.915,-0.006
26.920,-0.001
26.925,0.001
26.930,-0.004
26.935,-0.018
26.940,-0.028
26.945,-0.029
26.950,-0.038
26.955,-0.051
26.960,-0.048
26.965,-0.026
26.970,-0.008
26.975,-0.012
26.980,-0.028
26.985,-0.038
26.990,-0.040
26.995,-0.047
27.000,-0.052
27.005,-0.049
27.010,-0.049
27.015,-0.050
27.020,-0.045
27.025,-0.041
27.030,-0.041
27.035,-0.039
27.040,-0.032
27.045,-0.026
27.050,-0.027
27.055,-0.045
27.060,-0.065
27.065,-0.070
27.070,-0.063
27.075,-0.048
27.080,-0.030
27.085,-0.028
27.090,-0.036
27.095,-0.038
27.100,-0.039
27.105,-0.048
27.110,-0.061
27.115,-0.071
27.120,-0.077
27.125,-0.075
27.130,-0.075
27.135,-0.082
27.140,-0.087
27.145,-0.096
27.150,-0.102
27.155,-0.110
27.160,-0.126
27.165,-0.141
27.170,-0.157
27.175,-0.150
27.180,-0.125
27.185,-0.098
27.190,-0.070
27.195,-0.052
27.200,-0.030
27.205,-0.019
27.210,-0.013
27.215,0.005
27.220,0.020
27.225,0.037
27.230,0.049
27.235,0.053
27.240,0.060
27.245,0.067
27.250,0.068
27.255,0.055
27.260,0.035
27.265,0.024
27.270,0.024
27.275,0.028
27.280,0.035
27.285,0.043
27.290,0.045
27.295,0.030
27.300,0.003
27.305,-0.007
27.310,0.005
27.315,0.022
27.320,0.035
27.325,0.018
27.330,-0.063
27.335,-0.203
27.340,-0.400
27.345,-0.673
27.350,-1.005
27.355,-1.193
27.360,-0.949
27.365,-0.384
27.370,0.093
27.375,0.324
27.380,0.398
27.385,0.401
27.390,0.345
27.395,0.231
27.400,0.166
27.405,0.193
27.410,0.211
27.415,0.192
27.420,0.178
27.425,0.170
27.430,0.160
27.435,0.153
27.440,0.143
27.445,0.120
27.450,0.105
27.455,0.105
27.460,0.101
27.465,0.095
27.470,0.104
27.475,0.108
27.480,0.086
27.485,0.062
27.490,0.053
27.495,0.051
27.500,0.053
27.505,0.039
27.510,0.019
27.515,0.026
27.520,0.033
27.525,0.007
27.530,-0.022
27.535,-0.024
27.540,-0.023
27.545,-0.042
27.550,-0.069
27.555,-0.082
27.560,-0.092
27.565,-0.112
27.570,-0.138
27.575,-0.153
27.580,-0.161
27.585,-0.179
27.590,-0.199
27.595,-0.198
27.600,-0.193
27.605,-0.196
27.610,-0.198
27.615,-0.191
27.620,-0.161
27.625,-0.122
27.630,-0.097
27.635,-0.060
27.640,0.001
27.645,0.056
27.650,0.082
27.655,0.101
27.660,0.133
27.665,0.174
27.670,0.207
27.675,0.224
27.680,0.225
27.685,0.218
27.690,0.217
27.695,0.221
27.700,0.217
27.705,0.207
27.710,0.203
27.715,0.204
27.720,0.201
27.725,0.186
27.730,0.167
27.735,0.158
27.740,0.155
27.745,0.143
27.750,0.130
27.755,0.121
27.760,0.109
27.765,0.093
27.770,0.077
27.775,0.076
27.780,0.085
27.785,0.085
27.790,0.066
27.795,0.048
27.800,0.050
27.805,0.058
27.810,0.060
27.815,0.055
27.820,0.037
27.825,0.020
27.830,0.019
27.835,0.017
27.840,0.011
27.845,0.010
27.850,0.013
27.855,0.020
27.860,0.020
27.865,0.011
27.870,-0.001
27.875,-0.002
27.880,0.003
27.885,0.007
27.890,0.007
27.895,0.004
27.900,0.004
27.905,0.001
27.910,-0.003
27.915,-0.004
27.920,-0.003
27.925,-0.002
27.930,-0.004
27.935,-0.013
27.940,-0.021
27.945,-0.021
27.950,-0.018
27.955,-0.022
27.960,-0.027
27.965,-0.025
27.970,-0.014
27.975,-0.005
27.980,-0.014
27.985,-0.031
27.990,-0.036
27.995,-0.029
28.000,-0.021
28.005,-0.025
28.010,-0.036
28.015,-0.038
28.020,-0.029
28.025,-0.025
28.030,-0.023
28.035,-0.018
28.040,-0.017
28.045,-0.027
28.050,-0.035
28.055,-0.037
28.060,-0.037
28.065,-0.036
28.070,-0.037
28.075,-0.036
28.080,-0.035
28.085,-0.047
28.090,-0.066
28.095,-0.070
28.100,-0.059
28.105,-0.053
28.110,-0.069
28.115,-0.096
28.120,-0.104
28.125,-0.096
28.130,-0.098
28.135,-0.111
28.140,-0.127
28.145,-0.135
28.150,-0.122
28.155,-0.099
28.160,-0.075
28.165,-0.065
28.170,-0.067
28.175,-0.051
28.180,-0.018
28.185,0.007
28.190,0.023
28.195,0.038
28.200,0.043
28.205,0.049
28.210,0.063
28.215,0.074
28.220,0.073
28.225,0.059
28.230,0.044
28.235,0.041
28.240,0.047
28.245,0.051
28.250,0.048
28.255,0.041
28.260,0.028
28.265,0.020
28.270,0.022
28.275,0.022
28.280,0.019
28.285,0.023
28.290,0.034
28.295,0.042
28.300,-0.007
28.305,-0.144
28.310,-0.334
28.315,-0.565
28.320,-0.851
28.325,-1.133
28.330,-1.151
28.335,-0.750
28.340,-0.214
28.345,0.157
28.350,0.348
28.355,0.410
28.360,0.377
28.365,0.279
28.370,0.195
28.375,0.205
28.380,0.238
28.385,0.212
28.390,0.185
28.395,0.187
28.400,0.178
28.405,0.163
28.410,0.163
28.415,0.154
28.420,0.131
28.425,0.122
28.430,0.122
28.435,0.115
28.440,0.108
28.445,0.103
28.450,0.091
28.455,0.070
28.460,0.054
28.465,0.048
28.470,0.050
28.475,0.059
28.480,0.048
28.485,0.023
28.490,0.014
28.495,0.009
28.500,-0.004
28.505,-0.013
28.510,-0.023
28.515,-0.036
28.520,-0.056
28.525,-0.081
28.530,-0.097
28.535,-0.117
28.540,-0.149
28.545,-0.173
28.550,-0.186
28.555,-0.196
28.560,-0.200
28.565,-0.200
28.570,-0.204
28.575,-0.212
28.580,-0.209
28.585,-0.196
28.590,-0.179
28.595,-0.149
28.600,-0.111
28.605,-0.072
28.610,-0.027
28.615,0.017
28.620,0.058
28.625,0.095
28.630,0.135
28.635,0.184
28.640,0.223
28.645,0.231
28.650,0.230
28.655,0.232
28.660,0.239
28.665,0.247
28.670,0.244
28.675,0.238
28.680,0.235
28.685,0.228
28.690,0.218
28.695,0.203
28.700,0.187
28.705,0.183
28.710,0.184
28.715,0.171
28.720,0.154
28.725,0.139
28.730,0.124
28.735,0.113
28.740,0.107
28.745,0.108
28.750,0.101
28.755,0.081
28.760,0.067
28.765,0.062
28.770,0.060
28.775,0.052
28.780,0.037
28.785,0.027
28.790,0.019
28.795,0.016
28.800,0.022
28.805,0.022
28.810,0.017
28.815,0.008
28.820,-0.003
28.825,-0.001
28.830,0.010
28.835,0.013
28.840,0.006
28.845,0.000
28.850,0.000
28.855,0.000
28.860,-0.004
28.865,-0.008
28.870,-0.013
28.875,-0.012
28.880,-0.009
28.885,-0.010
28.890,-0.010
28.895,-0.014
28.900,-0.018
28.905,-0.020
28.910,-0.027
28.915,-0.026
28.920,-0.019
28.925,-0.021
28.930,-0.021
28.935,-0.017
28.940,-0.015
28.945,-0.015
28.950,-0.020
28.955,-0.028
28.960,-0.032
28.965,-0.038
28.970,-0.040
28.975,-0.038
28.980,-0.042
28.985,-0.048
28.990,-0.042
28.995,-0.032
29.000,-0.026
29.005,-0.029
29.010,-0.040
29.015,-0.042
29.020,-0.039
29.025,-0.047
29.030,-0.055
29.035,-0.049
29.040,-0.034
29.045,-0.028
29.050,-0.030
29.055,-0.031
29.060,-0.038
29.065,-0.047
29.070,-0.051
29.075,-0.049
29.080,-0.041
29.085,-0.045
29.090,-0.056
29.095,-0.047
29.100,-0.029
29.105,-0.034
29.110,-0.051
29.115,-0.071
29.120,-0.081
29.125,-0.087
29.130,-0.101
29.135,-0.106
29.140,-0.100
29.145,-0.095
29.150,-0.105
29.155,-0.129
29.160,-0.147
29.165,-0.149
29.170,-0.126
29.175,-0.103
29.180,-0.084
29.185,-0.061
29.190,-0.044
29.195,-0.030
29.200,-0.019
29.205,-0.013
29.210,0.004
29.215,0.025
29.220,0.038
29.225,0.051
29.230,0.066
29.235,0.076
29.240,0.073
29.245,0.057
29.250,0.048
29.255,0.057
29.260,0.064
29.265,0.053
29.270,0.035
29.275,0.032
29.280,0.041
29.285,0.039
29.290,0.030
29.295,0.027
29.300,0.024
29.305,0.022
29.310,0.029
29.315,0.032
29.320,-0.019
29.325,-0.147
29.330,-0.327
29.335,-0.540
29.340,-0.801
29.345,-1.081
29.350,-1.111
29.355,-0.715
29.360,-0.203
29.365,0.142
29.370,0.323
29.375,0.378
29.380,0.354
29.385,0.271
29.390,0.183
29.395,0.189
29.400,0.222
29.405,0.191
29.410,0.176
29.415,0.202
29.420,0.193
29.425,0.167
29.430,0.166
29.435,0.160
29.440,0.145
29.445,0.141
29.450,0.135
29.455,0.120
29.460,0.111
29.465,0.108
29.470,0.094
29.475,0.083
29.480,0.089
29.485,0.089
29.490,0.077
29.495,0.060
29.500,0.048
29.505,0.045
29.510,0.027
29.515,0.010
29.520,0.003
29.525,-0.008
29.530,-0.022
29.535,-0.042
29.540,-0.061
29.545,-0.074
29.550,-0.089
29.555,-0.108
29.560,-0.126
29.565,-0.143
29.570,-0.164
29.575,-0.180
29.580,-0.188
29.585,-0.197
29.590,-0.209
29.595,-0.215
29.600,-0.212
29.605,-0.200
29.610,-0.180
29.615,-0.155
29.620,-0.122
29.625,-0.078
29.630,-0.033
29.635,0.016
29.640,0.067
29.645,0.106
29.650,0.135
29.655,0.165
29.660,0.197
29.665,0.222
29.670,0.228
29.675,0.229
29.680,0.237
29.685,0.249
29.690,0.257
29.695,0.246
29.700,0.232
29.705,0.233
29.710,0.231
29.715,0.221
29.720,0.212
29.725,0.200
29.730,0.185
29.735,0.170
29.740,0.149
29.745,0.135
29.750,0.131
29.755,0.129
29.760,0.129
29.765,0.126
29.770,0.113
29.775,0.099
29.780,0.089
29.785,0.074
29.790,0.063
29.795,0.054
29.800,0.039
29.805,0.031
29.810,0.031
29.815,0.033
29.820,0.034
29.825,0.027
29.830,0.014
29.835,-0.002
29.840,-0.006
29.845,0.007
29.850,0.014
29.855,0.006
29.860,-0.002
29.865,0.007
29.870,0.012
29.875,0.002
29.880,-0.004
29.885,0.003
29.890,0.004
29.895,-0.003
29.900,-0.004
29.905,-0.001
29.910,-0.004
29.915,-0.019
29.920,-0.028
29.925,-0.020
29.930,-0.017
29.935,-0.027
29.940,-0.034
29.945,-0.027
29.950,-0.016
29.955,-0.016
29.960,-0.026
29.965,-0.033
29.970,-0.038
29.975,-0.037
29.980,-0.032
29.985,-0.028
29.990,-0.027
29.995,-0.031
30.000,-0.037
30.005,-0.049
30.010,-0.065
30.015,-0.058
30.020,-0.036
30.025,-0.027
30.030,-0.037
30.035,-0.052
30.040,-0.056
30.045,-0.049
30.050,-0.046
30.055,-0.046
30.060,-0.040
30.065,-0.036
30.070,-0.036
30.075,-0.037
30.080,-0.037
30.085,-0.040
30.090,-0.055
30.095,-0.071
30.100,-0.066
30.105,-0.054
30.110,-0.048
30.115,-0.049
30.120,-0.058
30.125,-0.062
30.130,-0.054
30.135,-0.043
30.140,-0.035
30.145,-0.047
30.150,-0.074
30.155,-0.088
30.160,-0.093
30.165,-0.096
30.170,-0.089
30.175,-0.083
30.180,-0.092
30.185,-0.114
30.190,-0.144
30.195,-0.160
30.200,-0.148
30.205,-0.127
30.210,-0.095
30.215,-0.064
30.220,-0.056
30.225,-0.045
30.230,-0.026
30.235,-0.008
30.240,0.006
30.245,0.025
30.250,0.046
30.255,0.051
30.260,0.056
30.265,0.061
30.270,0.061
30.275,0.057
30.280,0.046
30.285,0.047
30.290,0.051
30.295,0.039
30.300,0.030
30.305,0.031
30.310,0.026
30.315,0.022
30.320,0.036
30.325,0.042
30.330,0.028
30.335,0.020
30.340,0.037
30.345,0.062
30.350,0.035
30.355,-0.080
30.360,-0.245
30.365,-0.426
30.370,-0.669
30.375,-0.992
30.380,-1.187
30.385,-0.959
30.390,-0.420
30.395,0.052
30.400,0.301
30.405,0.389
30.410,0.402
30.415,0.343
30.420,0.233
30.425,0.180
30.430,0.205
30.435,0.208
30.440,0.186
30.445,0.187
30.450,0.184
30.455,0.167
30.460,0.163
30.465,0.163
30.470,0.152
30.475,0.145
30.480,0.140
30.485,0.124
30.490,0.107
30.495,0.101
30.500,0.099
30.505,0.090
30.510,0.082
30.515,0.076
30.520,0.069
30.525,0.061
30.530,0.051
30.535,0.042
30.540,0.029
30.545,0.016
30.550,0.010
30.555,-0.006
30.560,-0.027
30.565,-0.047
30.570,-0.063
30.575,-0.061
30.580,-0.056
30.585,-0.071
30.590,-0.096
30.595,-0.123
30.600,-0.151
30.605,-0.176
30.610,-0.190
30.615,-0.194
30.620,-0.197
30.625,-0.207
30.630,-0.216
30.635,-0.208
30.640,-0.184
30.645,-0.156
30.650,-0.131
30.655,-0.104
30.660,-0.067
30.665,-0.017
30.670,0.031
30.675,0.071
30.680,0.111
30.685,0.147
30.690,0.178
30.695,0.202
30.700,0.213
30.705,0.228
30.710,0.246
30.715,0.248
30.720,0.242
30.725,0.233
30.730,0.219
30.735,0.208
30.740,0.204
30.745,0.198
30.750,0.190
30.755,0.187
30.760,0.184
30.765,0.178
30.770,0.157
30.775,0.126
30.780,0.125
30.785,0.134
30.790,0.117
30.795,0.094
30.800,0.079
30.805,0.077
30.810,0.084
30.815,0.077
30.820,0.062
30.825,0.053
30.830,0.042
30.835,0.035
30.840,0.034
30.845,0.022
30.850,0.005
30.855,0.003
30.860,0.017
30.865,0.025
30.870,0.016
30.875,0.008
30.880,0.009
30.885,0.010
30.890,0.008
30.895,-0.004
30.900,-0.007
30.905,0.008
30.910,0.013
30.915,0.016
30.920,0.009
30.925,-0.009
30.930,-0.013
30.935,-0.006
30.940,-0.010
30.945,-0.021
30.950,-0.028
30.955,-0.029
30.960,-0.021
30.965,-0.016
30.970,-0.017
30.975,-0.012
30.980,-0.016
30.985,-0.028
30.990,-0.036
30.995,-0.038
31.000,-0.033
31.005,-0.035
31.010,-0.038
31.015,-0.032
31.020,-0.034
31.025,-0.047
31.030,-0.052
31.035,-0.052
31.040,-0.053
31.045,-0.047
31.050,-0.037
31.055,-0.031
31.060,-0.027
31.065,-0.034
31.070,-0.046
31.075,-0.046
31.080,-0.047
31.085,-0.044
31.090,-0.036
31.095,-0.041
31.100,-0.047
31.105,-0.050
31.110,-0.051
31.115,-0.051
31.120,-0.060
31.125,-0.078
31.130,-0.083
31.135,-0.081
31.140,-0.092
31.145,-0.102
31.150,-0.098
31.155,-0.095
31.160,-0.106
31.165,-0.126
31.170,-0.148
31.175,-0.145
31.180,-0.120
31.185,-0.105
31.190,-0.082
31.195,-0.062
31.200,-0.062
31.205,-0.051
31.210,-0.020
31.215,0.001
31.220,0.008
31.225,0.025
31.230,0.043
31.235,0.053
31.240,0.058
31.245,0.059
31.250,0.067
31.255,0.072
31.260,0.061
31.265,0.056
31.270,0.058
31.275,0.051
31.280,0.045
31.285,0.037
31.290,0.024
31.295,0.025
31.300,0.032
31.305,0.027
31.310,0.013
31.315,0.010
31.320,0.040
31.325,0.060
31.330,0.006
31.335,-0.126
31.340,-0.308
31.345,-0.546
31.350,-0.838
31.355,-1.124
31.360,-1.134
31.365,-0.694
31.370,-0.132
31.375,0.240
31.380,0.402
31.385,0.424
31.390,0.387
31.395,0.296
31.400,0.199
31.405,0.180
31.410,0.196
31.415,0.182
31.420,0.170
31.425,0.176
31.430,0.168
31.435,0.156
31.440,0.158
31.445,0.149
31.450,0.131
31.455,0.127
31.460,0.127
31.465,0.114
31.470,0.100
31.475,0.093
31.480,0.082
31.485,0.074
31.490,0.078
31.495,0.069
31.500,0.052
31.505,0.037
31.510,0.026
31.515,0.022
31.520,0.016
31.525,0.008
31.530,0.001
31.535,-0.012
31.540,-0.024
31.545,-0.034
31.550,-0.056
31.555,-0.084
31.560,-0.102
31.565,-0.115
31.570,-0.132
31.575,-0.154
31.580,-0.175
31.585,-0.181
31.590,-0.182
31.595,-0.189
31.600,-0.199
31.605,-0.207
31.610,-0.206
31.615,-0.191
31.620,-0.170
31.625,-0.145
31.630,-0.118
31.635,-0.086
31.640,-0.047
31.645,0.001
31.650,0.060
31.655,0.117
31.660,0.158
31.665,0.179
31.670,0.196
31.675,0.218
31.680,0.238
31.685,0.252
31.690,0.254
31.695,0.248
31.700,0.242
31.705,0.235
31.710,0.228
31.715,0.224
31.720,0.220
31.725,0.211
31.730,0.201
31.735,0.185
31.740,0.167
31.745,0.159
31.750,0.160
31.755,0.153
31.760,0.141
31.765,0.133
31.770,0.122
31.775,0.116
31.780,0.111
31.785,0.097
31.790,0.085
31.795,0.078
31.800,0.067
31.805,0.054
31.810,0.045
31.815,0.035
31.820,0.031
31.825,0.031
31.830,0.032
31.835,0.038
31.840,0.035
31.845,0.023
31.850,0.010
31.855,0.003
31.860,0.006
31.865,0.009
31.870,0.007
31.875,0.004
31.880,0.002
31.885,0.003
31.890,0.004
31.895,0.003
31.900,-0.004
31.905,-0.006
31.910,-0.006
31.915,-0.008
31.920,-0.004
31.925,-0.006
31.930,-0.018
31.935,-0.025
31.940,-0.028
31.945,-0.028
31.950,-0.030
31.955,-0.030
31.960,-0.026
31.965,-0.028
31.970,-0.035
31.975,-0.041
31.980,-0.037
31.985,-0.029
31.990,-0.033
31.995,-0.044
32.000,-0.052
32.005,-0.057
32.010,-0.054
32.015,-0.048
32.020,-0.046
32.025,-0.047
32.030,-0.048
32.035,-0.051
32.040,-0.051
32.045,-0.053
32.050,-0.055
32.055,-0.050
32.060,-0.050
32.065,-0.051
32.070,-0.046
32.075,-0.047
32.080,-0.051
32.085,-0.054
32.090,-0.054
32.095,-0.052
32.100,-0.054
32.105,-0.068
32.110,-0.083
32.115,-0.093
32.120,-0.105
32.125,-0.108
32.130,-0.105
32.135,-0.106
32.140,-0.113
32.145,-0.127
32.150,-0.147
32.155,-0.162
32.160,-0.156
32.165,-0.134
32.170,-0.106
32.175,-0.084
32.180,-0.070
32.185,-0.055
32.190,-0.034
32.195,-0.014
32.200,0.000
32.205,0.016
32.210,0.033
32.215,0.048
32.220,0.057
32.225,0.051
32.230,0.050
32.235,0.056
32.240,0.056
32.245,0.054
32.250,0.046
32.255,0.039
32.260,0.037
32.265,0.037
32.270,0.035
32.275,0.031
32.280,0.028
32.285,0.019
32.290,0.011
32.295,0.011
32.300,0.022
32.305,0.038
32.310,0.015
32.315,-0.090
32.320,-0.260
32.325,-0.467
32.330,-0.714
32.335,-1.021
32.340,-1.197
32.345,-0.942
32.350,-0.407
32.355,0.026
32.360,0.258
32.365,0.345
32.370,0.352
32.375,0.301
32.380,0.204
32.385,0.170
32.390,0.216
32.395,0.221
32.400,0.194
32.405,0.201
32.410,0.195
32.415,0.171
32.420,0.172
32.425,0.171
32.430,0.152
32.435,0.142
32.440,0.135
32.445,0.120
32.450,0.110
32.455,0.108
32.460,0.104
32.465,0.093
32.470,0.090
32.475,0.088
32.480,0.075
32.485,0.062
32.490,0.054
32.495,0.044
32.500,0.031
32.505,0.017
32.510,0.007
32.515,-0.001
32.520,-0.015
32.525,-0.033
32.530,-0.053
32.535,-0.071
32.540,-0.090
32.545,-0.109
32.550,-0.133
32.555,-0.157
32.560,-0.173
32.565,-0.186
32.570,-0.196
32.575,-0.208
32.580,-0.216
32.585,-0.219
32.590,-0.222
32.595,-0.215
32.600,-0.201
32.605,-0.173
32.610,-0.130
32.615,-0.084
32.620,-0.040
32.625,0.005
32.630,0.060
32.635,0.108
32.640,0.138
32.645,0.169
32.650,0.203
32.655,0.228
32.660,0.243
32.665,0.250
32.670,0.254
32.675,0.257
32.680,0.257
32.685,0.256
32.690,0.255
32.695,0.248
32.700,0.235
32.705,0.228
32.710,0.223
32.715,0.209
32.720,0.197
32.725,0.186
32.730,0.166
32.735,0.152
32.740,0.146
32.745,0.136
32.750,0.125
32.755,0.115
32.760,0.109
32.765,0.101
32.770,0.085
32.775,0.071
32.780,0.066
32.785,0.060
32.790,0.052
32.795,0.049
32.800,0.042
32.805,0.032
32.810,0.024
32.815,0.021
32.820,0.025
32.825,0.026
32.830,0.024
32.835,0.018
32.840,0.010
32.845,0.005
32.850,-0.002
32.855,-0.008
32.860,-0.007
32.865,-0.009
32.870,-0.009
32.875,-0.008
32.880,-0.011
32.885,-0.012
32.890,-0.012
32.895,-0.013
32.900,-0.009
32.905,-0.005
32.910,-0.006
32.915,-0.003
32.920,-0.006
32.925,-0.016
32.930,-0.025
32.935,-0.033
32.940,-0.033
32.945,-0.031
32.950,-0.033
32.955,-0.034
32.960,-0.025
32.965,-0.014
32.970,-0.016
32.975,-0.031
32.980,-0.045
32.985,-0.046
32.990,-0.041
32.995,-0.040
33.000,-0.038
33.005,-0.033
33.010,-0.033
33.015,-0.040
33.020,-0.049
33.025,-0.054
33.030,-0.053
33.035,-0.053
33.040,-0.053
33.045,-0.049
33.050,-0.042
33.055,-0.036
33.060,-0.036
33.065,-0.034
33.070,-0.036
33.075,-0.039
33.080,-0.039
33.085,-0.057
33.090,-0.081
33.095,-0.096
33.100,-0.102
33.105,-0.103
33.110,-0.100
33.115,-0.100
33.120,-0.103
33.125,-0.117
33.130,-0.143
33.135,-0.159
33.140,-0.157
33.145,-0.141
33.150,-0.107
33.155,-0.073
33.160,-0.060
33.165,-0.049
33.170,-0.026
33.175,0.000
33.180,0.016
33.185,0.027
33.190,0.040
33.195,0.053
33.200,0.059
33.205,0.056
33.210,0.055
33.215,0.055
33.220,0.054
33.225,0.059
33.230,0.054
33.235,0.037
33.240,0.026
33.245,0.026
33.250,0.031
33.255,0.036
33.260,0.043
33.265,0.039
33.270,0.030
33.275,0.020
33.280,0.012
33.285,0.017
33.290,0.011
33.295,-0.059
33.300,-0.193
33.305,-0.369
33.310,-0.591
33.315,-0.886
33.320,-1.150
33.325,-1.056
33.330,-0.566
33.335,-0.060
33.340,0.236
33.345,0.353
33.350,0.380
33.355,0.341
33.360,0.238
33.365,0.172
33.370,0.191
33.375,0.201
33.380,0.175
33.385,0.176
33.390,0.198
33.395,0.194
33.400,0.176
33.405,0.164
33.410,0.143
33.415,0.120
33.420,0.115
33.425,0.114
33.430,0.112
33.435,0.114
33.440,0.102
33.445,0.077
33.450,0.057
33.455,0.051
33.460,0.051
33.465,0.054
33.470,0.056
33.475,0.052
33.480,0.037
33.485,0.005
33.490,-0.020
33.495,-0.027
33.500,-0.039
33.505,-0.051
33.510,-0.061
33.515,-0.073
33.520,-0.079
33.525,-0.093
33.530,-0.129
33.535,-0.159
33.540,-0.177
33.545,-0.190
33.550,-0.199
33.555,-0.217
33.560,-0.235
33.565,-0.229
33.570,-0.208
33.575,-0.199
33.580,-0.201
33.585,-0.190
33.590,-0.157
33.595,-0.111
33.600,-0.067
33.605,-0.031
33.610,0.017
33.615,0.077
33.620,0.118
33.625,0.145
33.630,0.175
33.635,0.211
33.640,0.236
33.645,0.250
33.650,0.258
33.655,0.256
33.660,0.252
33.665,0.241
33.670,0.228
33.675,0.232
33.680,0.238
33.685,0.227
33.690,0.212
33.695,0.198
33.700,0.186
33.705,0.176
33.710,0.174
33.715,0.164
33.720,0.141
33.725,0.123
33.730,0.113
33.735,0.111
33.740,0.112
33.745,0.109
33.750,0.098
33.755,0.072
33.760,0.056
33.765,0.069
33.770,0.078
33.775,0.065
33.780,0.046
33.785,0.030
33.790,0.025
33.795,0.022
33.800,0.008
33.805,0.004
33.810,0.009
33.815,0.007
33.820,0.007
33.825,0.008
33.830,0.005
33.835,-0.004
33.840,-0.007
33.845,-0.004
33.850,0.005
33.855,0.008
33.860,-0.011
33.865,-0.032
33.870,-0.026
33.875,-0.011
33.880,-0.011
33.885,-0.008
33.890,-0.007
33.895,-0.022
33.900,-0.025
33.905,-0.024
33.910,-0.030
33.915,-0.025
33.920,-0.023
33.925,-0.030
33.930,-0.036
33.935,-0.040
33.940,-0.046
33.945,-0.046
33.950,-0.033
33.955,-0.018
33.960,-0.015
33.965,-0.027
33.970,-0.044
33.975,-0.049
33.980,-0.045
33.985,-0.051
33.990,-0.052
33.995,-0.039
34.000,-0.035
34.005,-0.041
34.010,-0.041
34.015,-0.040
34.020,-0.041
34.025,-0.045
34.030,-0.062
34.035,-0.077
34.040,-0.080
34.045,-0.084
34.050,-0.083
34.055,-0.076
34.060,-0.081
34.065,-0.099
34.070,-0.131
34.075,-0.161
34.080,-0.170
34.085,-0.157
34.090,-0.125
34.095,-0.094
34.100,-0.073
34.105,-0.068
34.110,-0.066
34.115,-0.040
34.120,-0.015
34.125,0.005
34.130,0.030
34.135,0.045
34.140,0.056
34.145,0.069
34.150,0.076
34.155,0.067
34.160,0.051
34.165,0.048
34.170,0.053
34.175,0.047
34.180,0.035
34.185,0.029
34.190,0.027
34.195,0.025
34.200,0.020
34.205,0.022
34.210,0.026
34.215,0.016
34.220,-0.001
34.225,0.008
34.230,0.037
34.235,0.024
34.240,-0.075
34.245,-0.239
34.250,-0.437
34.255,-0.684
34.260,-0.994
34.265,-1.178
34.270,-0.934
34.275,-0.366
34.280,0.122
34.285,0.359
34.290,0.413
34.295,0.391
34.300,0.334
34.305,0.237
34.310,0.172
34.315,0.178
34.320,0.179
34.325,0.153
34.330,0.153
34.335,0.164
34.340,0.156
34.345,0.153
34.350,0.147
34.355,0.118
34.360,0.100
34.365,0.108
34.370,0.106
34.375,0.093
34.380,0.086
34.385,0.077
34.390,0.074
34.395,0.072
34.400,0.059
34.405,0.048
34.410,0.042
34.415,0.032
34.420,0.017
34.425,0.012
34.430,0.012
34.435,0.000
34.440,-0.017
34.445,-0.028
34.450,-0.036
34.455,-0.048
34.460,-0.064
34.465,-0.085
34.470,-0.102
34.475,-0.118
34.480,-0.148
34.485,-0.179
34.490,-0.192
34.495,-0.195
34.500,-0.202
34.505,-0.207
34.510,-0.208
34.515,-0.206
34.520,-0.195
34.525,-0.181
34.530,-0.161
34.535,-0.130
34.540,-0.098
34.545,-0.057
34.550,-0.001
34.555,0.050
34.560,0.089
34.565,0.127
34.570,0.161
34.575,0.182
34.580,0.202
34.585,0.217
34.590,0.221
34.595,0.231
34.600,0.241
34.605,0.241
34.610,0.234
34.615,0.226
34.620,0.221
34.625,0.216
34.630,0.205
34.635,0.190
34.640,0.181
34.645,0.178
34.650,0.170
34.655,0.155
34.660,0.145
34.665,0.136
34.670,0.126
34.675,0.112
34.680,0.100
34.685,0.089
34.690,0.079
34.695,0.075
34.700,0.075
34.705,0.076
34.710,0.072
34.715,0.051
34.720,0.032
34.725,0.031
34.730,0.032
34.735,0.031
34.740,0.032
34.745,0.025
34.750,0.011
34.755,-0.002
34.760,-0.001
34.765,0.006
34.770,0.002
34.775,-0.005
34.780,0.000
34.785,0.010
34.790,0.006
34.795,-0.005
34.800,-0.006
34.805,0.007
34.810,0.009
34.815,-0.003
34.820,-0.006
34.825,-0.003
34.830,-0.007
34.835,-0.016
34.840,-0.035
34.845,-0.054
34.850,-0.052
34.855,-0.047
34.860,-0.039
34.865,-0.012
34.870,0.014
34.875,0.018
34.880,-0.001
34.885,-0.019
34.890,-0.017
34.895,-0.007
34.900,-0.005
34.905,-0.005
34.910,-0.011
34.915,-0.018
34.920,-0.021
34.925,-0.026
34.930,-0.027
34.935,-0.032
34.940,-0.040
34.945,-0.040
34.950,-0.041
34.955,-0.045
34.960,-0.042
34.965,-0.040
34.970,-0.046
34.975,-0.046
34.980,-0.044
34.985,-0.045
34.990,-0.044
34.995,-0.046
35.000,-0.051
35.005,-0.055
35.010,-0.055
35.015,-0.065
35.020,-0.079
35.025,-0.089
35.030,-0.096
35.035,-0.097
35.040,-0.101
35.045,-0.107
35.050,-0.110
35.055,-0.120
35.060,-0.136
35.065,-0.160
35.070,-0.178
35.075,-0.170
35.080,-0.139
35.085,-0.097
35.090,-0.090
35.095,-0.122
35.100,-0.127
35.105,-0.065
35.110,0.022
35.115,0.071
35.120,0.076
35.125,0.048
35.130,-0.001
35.135,-0.037
35.140,0.023
35.145,0.163
35.150,0.216
35.155,0.130
35.160,0.032
35.165,0.010
35.170,0.037
35.175,0.051
35.180,0.028
35.185,0.020
35.190,0.066
35.195,0.115
35.200,0.134
35.205,0.099
35.210,0.035
35.215,0.040
35.220,0.083
35.225,0.025
35.230,-0.132
35.235,-0.304
35.240,-0.526
35.245,-0.824
35.250,-1.133
35.255,-1.192
35.260,-0.771
35.265,-0.166
35.270,0.223
35.275,0.317
35.280,0.278
35.285,0.308
35.290,0.320
35.295,0.256
35.300,0.246
35.305,0.285
35.310,0.269
35.315,0.195
35.320,0.109
35.325,0.082
35.330,0.127
35.335,0.161
35.340,0.148
35.345,0.107
35.350,0.083
35.355,0.108
35.360,0.168
35.365,0.203
35.370,0.124
35.375,0.025
35.380,0.040
35.385,0.062
35.390,0.007
35.395,-0.036
35.400,-0.021
35.405,0.012
35.410,0.007
35.415,-0.019
35.420,-0.004
35.425,-0.004
35.430,-0.063
35.435,-0.076
35.440,0.009
35.445,0.074
35.450,0.023
35.455,-0.058
35.460,-0.120
35.465,-0.198
35.470,-0.218
35.475,-0.170
35.480,-0.164
35.485,-0.207
35.490,-0.244
35.495,-0.259
35.500,-0.244
35.505,-0.229
35.510,-0.247
35.515,-0.286
35.520,-0.338
35.525,-0.343
35.530,-0.157
35.535,0.125
35.540,0.236
35.545,0.213
35.550,0.187
35.555,0.182
35.560,0.202
35.565,0.185
35.570,0.173
35.575,0.211
35.580,0.229
35.585,0.217
35.590,0.218
35.595,0.206
35.600,0.123
35.605,0.048
35.610,0.122
35.615,0.232
35.620,0.251
35.625,0.270
35.630,0.301
35.635,0.305
35.640,0.295
35.645,0.250
35.650,0.220
35.655,0.197
35.660,0.120
35.665,0.065
35.670,0.093
35.675,0.127
35.680,0.092
35.685,0.021
35.690,-0.038
35.695,-0.048
35.700,-0.015
35.705,0.044
35.710,0.146
35.715,0.219
35.720,0.226
35.725,0.175
35.730,0.089
35.735,0.048
35.740,0.028
35.745,-0.003
35.750,-0.008
35.755,-0.014
35.760,-0.047
35.765,-0.059
35.770,-0.078
35.775,-0.160
35.780,-0.146
35.785,0.018
35.790,0.101
35.795,0.074
35.800,0.087
35.805,0.089
35.810,0.059
35.815,0.026
35.820,-0.004
35.825,0.049
35.830,0.076
35.835,-0.016
35.840,-0.054
35.845,-0.015
35.850,-0.007
35.855,-0.007
35.860,-0.001
35.865,-0.039
35.870,-0.117
35.875,-0.172
35.880,-0.161
35.885,-0.106
35.890,-0.039
35.895,0.026
35.900,0.094
35.905,0.073
35.910,-0.041
35.915,-0.070
35.920,0.011
35.925,0.085
35.930,0.063
35.935,-0.028
35.940,-0.069
35.945,-0.057
35.950,-0.041
35.955,-0.012
35.960,0.004
35.965,-0.046
35.970,-0.099
35.975,-0.098
35.980,-0.083
35.985,-0.069
35.990,-0.029
35.995,0.024
36.000,0.025
36.005,-0.008
36.010,-0.037
36.015,-0.046
36.020,-0.034
36.025,-0.059
36.030,-0.118
36.035,-0.171
36.040,-0.166
36.045,-0.099
36.050,-0.075
36.055,-0.112
36.060,-0.155
36.065,-0.169
36.070,-0.142
36.075,-0.125
36.080,-0.122
36.085,-0.105
36.090,-0.097
36.095,-0.088
36.100,-0.035
36.105,0.025
36.110,0.048
36.115,0.040
36.120,0.033
36.125,0.049
36.130,0.053
36.135,0.019
36.140,-0.043
36.145,-0.089
36.150,-0.063
36.155,0.005
36.160,0.060
36.165,0.140
36.170,0.197
36.175,0.161
36.180,0.122
36.185,0.107
36.190,0.086
36.195,0.062
36.200,0.028
36.205,0.014
36.210,0.040
36.215,0.023
36.220,-0.089
36.225,-0.243
36.230,-0.448
36.235,-0.759
36.240,-1.082
36.245,-1.174
36.250,-0.923
36.255,-0.496
36.260,-0.117
36.265,0.163
36.270,0.382
36.275,0.472
36.280,0.371
36.285,0.226
36.290,0.184
36.295,0.215
36.300,0.230
36.305,0.216
36.310,0.198
36.315,0.176
36.320,0.153
36.325,0.158
36.330,0.164
36.335,0.129
36.340,0.076
36.345,0.015
36.350,-0.031
36.355,-0.024
36.360,0.058
36.365,0.204
36.370,0.270
36.375,0.190
36.380,0.079
36.385,0.006
36.390,0.043
36.395,0.123
36.400,0.121
36.405,0.084
36.410,0.023
36.415,-0.014
36.420,0.017
36.425,0.023
36.430,-0.009
36.435,-0.053
36.440,-0.093
36.445,-0.114
36.450,-0.134
36.455,-0.156
36.460,-0.201
36.465,-0.272
36.470,-0.304
36.475,-0.265
36.480,-0.199
36.485,-0.157
36.490,-0.178
36.495,-0.260
36.500,-0.308
36.505,-0.274
36.510,-0.203
36.515,-0.120
36.520,-0.014
36.525,0.067
36.530,0.075
36.535,0.036
36.540,0.031
36.545,0.115
36.550,0.170
36.555,0.116
36.560,0.123
36.565,0.243
36.570,0.338
36.575,0.337
36.580,0.264
36.585,0.210
36.590,0.208
36.595,0.189
36.600,0.134
36.605,0.141
36.610,0.210
36.615,0.183
36.620,0.130
36.625,0.198
36.630,0.296
36.635,0.304
36.640,0.211
36.645,0.164
36.650,0.211
36.655,0.209
36.660,0.115
36.665,0.049
36.670,0.074
36.675,0.103
36.680,0.058
36.685,-0.007
36.690,-0.008
36.695,0.055
36.700,0.101
36.705,0.042
36.710,-0.061
36.715,-0.055
36.720,0.063
36.725,0.107
36.730,0.040
36.735,-0.005
36.740,-0.039
36.745,-0.053
36.750,0.017
36.755,0.085
36.760,0.069
36.765,-0.017
36.770,-0.055
36.775,0.032
36.780,0.058
36.785,-0.062
36.790,-0.143
36.795,-0.091
36.800,0.006
36.805,-0.022
36.810,-0.110
36.815,-0.052
36.820,0.071
36.825,0.091
36.830,-0.019
36.835,-0.113
36.840,-0.084
36.845,-0.037
36.850,-0.008
36.855,0.019
36.860,0.013
36.865,-0.028
36.870,-0.078
36.875,-0.099
36.880,-0.107
36.885,-0.078
36.890,0.009
36.895,0.041
36.900,-0.035
36.905,-0.101
36.910,-0.080
36.915,-0.042
36.920,-0.064
36.925,-0.100
36.930,-0.053
36.935,-0.004
36.940,-0.014
36.945,-0.004
36.950,-0.015
36.955,-0.059
36.960,-0.058
36.965,-0.030
36.970,-0.031
36.975,-0.050
36.980,-0.074
36.985,-0.084
36.990,-0.063
36.995,-0.046
37.000,-0.017
37.005,-0.004
37.010,-0.090
37.015,-0.140
37.020,-0.089
37.025,-0.032
37.030,-0.018
37.035,-0.052
37.040,-0.087
37.045,-0.143
37.050,-0.203
37.055,-0.182
37.060,-0.131
37.065,-0.143
37.070,-0.214
37.075,-0.197
37.080,-0.079
37.085,-0.037
37.090,-0.052
37.095,-0.011
37.100,0.027
37.105,0.024
37.110,0.035
37.115,0.063
37.120,0.067
37.125,0.039
37.130,0.033
37.135,0.089
37.140,0.127
37.145,0.096
37.150,0.061
37.155,0.017
37.160,-0.028
37.165,0.005
37.170,0.074
37.175,0.068
37.180,-0.008
37.185,-0.055
37.190,-0.055
37.195,-0.050
37.200,-0.032
37.205,0.031
37.210,0.120
37.215,0.177
37.220,0.093
37.225,-0.106
37.230,-0.310
37.235,-0.589
37.240,-0.964
37.245,-1.240
37.250,-1.069
37.255,-0.476
37.260,0.025
37.265,0.220
37.270,0.271
37.275,0.353
37.280,0.452
37.285,0.379
37.290,0.219
37.295,0.202
37.300,0.235
37.305,0.226
37.310,0.179
37.315,0.084
37.320,0.088
37.325,0.198
37.330,0.241
37.335,0.203
37.340,0.149
37.345,0.146
37.350,0.173
37.355,0.103
37.360,-0.009
37.365,-0.020
37.370,0.057
37.375,0.099
37.380,0.089
37.385,0.122
37.390,0.172
37.395,0.141
37.400,0.050
37.405,0.017
37.410,0.061
37.415,0.053
37.420,-0.013
37.425,-0.025
37.430,-0.023
37.435,-0.125
37.440,-0.269
37.445,-0.242
37.450,-0.019
37.455,0.104
37.460,-0.006
37.465,-0.131
37.470,-0.149
37.475,-0.133
37.480,-0.176
37.485,-0.244
37.490,-0.226
37.495,-0.188
37.500,-0.212
37.505,-0.234
37.510,-0.237
37.515,-0.252
37.520,-0.214
37.525,-0.088
37.530,0.001
37.535,0.047
37.540,0.130
37.545,0.198
37.550,0.217
37.555,0.196
37.560,0.177
37.565,0.213
37.570,0.236
37.575,0.222
37.580,0.229
37.585,0.240
37.590,0.227
37.595,0.218
37.600,0.216
37.605,0.196
37.610,0.182
37.615,0.190
37.620,0.180
37.625,0.154
37.630,0.156
37.635,0.192
37.640,0.195
37.645,0.147
37.650,0.106
37.655,0.075
37.660,0.051
37.665,0.063
37.670,0.117
37.675,0.166
37.680,0.145
37.685,0.097
37.690,0.086
37.695,0.092
37.700,0.062
37.705,0.033
37.710,0.045
37.715,0.048
37.720,0.029
37.725,0.025
37.730,0.010
37.735,-0.024
37.740,-0.027
37.745,-0.018
37.750,-0.021
37.755,-0.013
37.760,0.018
37.765,0.071
37.770,0.076
37.775,0.041
37.780,0.038
37.785,0.034
37.790,0.021
37.795,-0.020
37.800,-0.067
37.805,-0.043
37.810,0.001
37.815,0.026
37.820,0.008
37.825,-0.057
37.830,-0.080
37.835,-0.033
37.840,0.026
37.845,0.025
37.850,-0.014
37.855,-0.023
37.860,0.002
37.865,0.027
37.870,0.010
37.875,-0.030
37.880,-0.047
37.885,-0.068
37.890,-0.083
37.895,-0.053
37.900,-0.056
37.905,-0.093
37.910,-0.070
37.915,-0.047
37.920,-0.053
37.925,-0.015
37.930,0.034
37.935,0.049
37.940,0.017
37.945,-0.048
37.950,-0.060
37.955,-0.027
37.960,-0.038
37.965,-0.065
37.970,-0.077
37.975,-0.114
37.980,-0.151
37.985,-0.159
37.990,-0.156
37.995,-0.136
38.000,-0.106
38.005,-0.113
38.010,-0.154
38.015,-0.169
38.020,-0.157
38.025,-0.147
38.030,-0.132
38.035,-0.115
38.040,-0.108
38.045,-0.097
38.050,-0.090
38.055,-0.088
38.060,-0.045
38.065,0.021
38.070,0.062
38.075,0.082
38.080,0.079
38.085,0.059
38.090,0.036
38.095,0.024
38.100,0.039
38.105,0.053
38.110,0.041
38.115,0.014
38.120,0.001
38.125,0.001
38.130,0.007
38.135,0.035
38.140,0.055
38.145,0.047
38.150,0.015
38.155,-0.018
38.160,-0.017
38.165,0.017
38.170,0.021
38.175,-0.083
38.180,-0.275
38.185,-0.507
38.190,-0.789
38.195,-1.098
38.200,-1.188
38.205,-0.806
38.210,-0.210
38.215,0.199
38.220,0.367
38.225,0.395
38.230,0.373
38.235,0.308
38.240,0.206
38.245,0.166
38.250,0.190
38.255,0.176
38.260,0.146
38.265,0.158
38.270,0.170
38.275,0.153
38.280,0.139
38.285,0.135
38.290,0.133
38.295,0.135
38.300,0.124
38.305,0.104
38.310,0.103
38.315,0.106
38.320,0.084
38.325,0.067
38.330,0.070
38.335,0.072
38.340,0.067
38.345,0.049
38.350,0.013
38.355,-0.013
38.360,-0.008
38.365,0.014
38.370,0.024
38.375,0.006
38.380,-0.021
38.385,-0.042
38.390,-0.052
38.395,-0.066
38.400,-0.100
38.405,-0.132
38.410,-0.147
38.415,-0.158
38.420,-0.169
38.425,-0.181
38.430,-0.201
38.435,-0.228
38.440,-0.237
38.445,-0.216
38.450,-0.194
38.455,-0.187
38.460,-0.179
38.465,-0.153
38.470,-0.114
38.475,-0.077
38.480,-0.034
38.485,0.014
38.490,0.052
38.495,0.084
38.500,0.122
38.505,0.165
38.510,0.188
38.515,0.195
38.520,0.211
38.525,0.236
38.530,0.256
38.535,0.260
38.540,0.249
38.545,0.238
38.550,0.236
38.555,0.229
38.560,0.228
38.565,0.233
38.570,0.223
38.575,0.202
38.580,0.181
38.585,0.171
38.590,0.165
38.595,0.151
38.600,0.139
38.605,0.120
38.610,0.107
38.615,0.119
38.620,0.121
38.625,0.101
38.630,0.062
38.635,0.041
38.640,0.064
38.645,0.076
38.650,0.075
38.655,0.072
38.660,0.053
38.665,0.034
38.670,0.010
38.675,0.004
38.680,0.032
38.685,0.043
38.690,0.034
38.695,0.023
38.700,0.010
38.705,0.010
38.710,0.011
38.715,0.005
38.720,0.004
38.725,0.005
38.730,0.004
38.735,-0.001
38.740,-0.005
38.745,-0.015
38.750,-0.025
38.755,-0.015
38.760,-0.003
38.765,-0.008
38.770,-0.016
38.775,-0.021
38.780,-0.030
38.785,-0.042
38.790,-0.045
38.795,-0.033
38.800,-0.017
38.805,-0.011
38.810,-0.017
38.815,-0.021
38.820,-0.027
38.825,-0.034
38.830,-0.032
38.835,-0.035
38.840,-0.051
38.845,-0.056
38.850,-0.028
38.855,0.000
38.860,0.003
38.865,-0.010
38.870,-0.027
38.875,-0.033
38.880,-0.037
38.885,-0.042
38.890,-0.041
38.895,-0.045
38.900,-0.046
38.905,-0.043
38.910,-0.057
38.915,-0.081
38.920,-0.100
38.925,-0.103
38.930,-0.097
38.935,-0.101
38.940,-0.113
38.945,-0.124
38.950,-0.141
38.955,-0.165
38.960,-0.173
38.965,-0.148
38.970,-0.111
38.975,-0.088
38.980,-0.082
38.985,-0.073
38.990,-0.046
38.995,-0.015
39.000,0.003
39.005,0.016
39.010,0.031
39.015,0.048
39.020,0.058
39.025,0.063
39.030,0.062
39.035,0.057
39.040,0.061
39.045,0.066
39.050,0.062
39.055,0.058
39.060,0.055
39.065,0.046
39.070,0.031
39.075,0.019
39.080,0.016
39.085,0.016
39.090,0.021
39.095,0.031
39.100,0.036
39.105,0.041
39.110,0.038
39.115,-0.019
39.120,-0.151
39.125,-0.329
39.130,-0.543
39.135,-0.825
39.140,-1.122
39.145,-1.133
39.150,-0.719
39.155,-0.200
39.160,0.151
39.165,0.321
39.170,0.364
39.175,0.334
39.180,0.257
39.185,0.192
39.190,0.198
39.195,0.219
39.200,0.197
39.205,0.184
39.210,0.193
39.215,0.185
39.220,0.176
39.225,0.182
39.230,0.164
39.235,0.134
39.240,0.123
39.245,0.113
39.250,0.102
39.255,0.103
39.260,0.107
39.265,0.100
39.270,0.087
39.275,0.078
39.280,0.071
39.285,0.062
39.290,0.047
39.295,0.033
39.300,0.016
39.305,-0.005
39.310,-0.015
39.315,-0.015
39.320,-0.015
39.325,-0.022
39.330,-0.038
39.335,-0.056
39.340,-0.068
39.345,-0.094
39.350,-0.134
39.355,-0.153
39.360,-0.165
39.365,-0.175
39.370,-0.182
39.375,-0.196
39.380,-0.211
39.385,-0.226
39.390,-0.234
39.395,-0.239
39.400,-0.239
39.405,-0.221
39.410,-0.184
39.415,-0.132
39.420,-0.083
39.425,-0.037
39.430,0.015
39.435,0.062
39.440,0.101
39.445,0.136
39.450,0.173
39.455,0.200
39.460,0.222
39.465,0.258
39.470,0.284
39.475,0.280
39.480,0.259
39.485,0.243
39.490,0.252
39.495,0.255
39.500,0.234
39.505,0.222
39.510,0.221
39.515,0.214
39.520,0.197
39.525,0.178
39.530,0.173
39.535,0.169
39.540,0.149
39.545,0.120
39.550,0.106
39.555,0.115
39.560,0.125
39.565,0.123
39.570,0.108
39.575,0.084
39.580,0.068
39.585,0.059
39.590,0.049
39.595,0.043
39.600,0.047
39.605,0.046
39.610,0.038
39.615,0.028
39.620,0.018
39.625,0.016
39.630,0.011
39.635,0.013
39.640,0.016
39.645,0.006
39.650,-0.002
39.655,0.002
39.660,0.011
39.665,0.008
39.670,-0.012
39.675,-0.019
39.680,-0.004
39.685,0.005
39.690,-0.002
39.695,-0.010
39.700,-0.022
39.705,-0.034
39.710,-0.036
39.715,-0.018
39.720,0.002
39.725,0.008
39.730,-0.007
39.735,-0.038
39.740,-0.045
39.745,-0.028
39.750,-0.019
39.755,-0.024
39.760,-0.031
39.765,-0.022
39.770,-0.013
39.775,-0.022
39.780,-0.036
39.785,-0.041
39.790,-0.033
39.795,-0.024
39.800,-0.022
39.805,-0.027
39.810,-0.035
39.815,-0.043
39.820,-0.053
39.825,-0.058
39.830,-0.060
39.835,-0.056
39.840,-0.035
39.845,-0.018
39.850,-0.023
39.855,-0.038
39.860,-0.046
39.865,-0.043
39.870,-0.039
39.875,-0.038
39.880,-0.041
39.885,-0.053
39.890,-0.064
39.895,-0.078
39.900,-0.098
39.905,-0.112
39.910,-0.113
39.915,-0.108
39.920,-0.107
39.925,-0.116
39.930,-0.136
39.935,-0.149
39.940,-0.144
39.945,-0.137
39.950,-0.112
39.955,-0.079
39.960,-0.071
39.965,-0.068
39.970,-0.047
39.975,-0.013
39.980,0.018
39.985,0.037
39.990,0.040
39.995,0.049
40.000,0.070
40.005,0.075
40.010,0.064
40.015,0.051
40.020,0.039
40.025,0.040
40.030,0.051
40.035,0.053
40.040,0.056
40.045,0.057
40.050,0.045
40.055,0.034
40.060,0.030
40.065,0.027
40.070,0.019
40.075,0.014
40.080,0.029
40.085,0.041
40.090,0.001
40.095,-0.098
40.100,-0.238
40.105,-0.439
40.110,-0.718
40.115,-1.047
40.120,-1.185
40.125,-0.875
40.130,-0.334
40.135,0.080
40.140,0.289
40.145,0.357
40.150,0.363
40.155,0.320
40.160,0.224
40.165,0.177
40.170,0.194
40.175,0.179
40.180,0.169
40.185,0.195
40.190,0.199
40.195,0.170
40.200,0.152
40.205,0.151
40.210,0.140
40.215,0.130
40.220,0.128
40.225,0.127
40.230,0.123
40.235,0.106
40.240,0.084
40.245,0.077
40.250,0.079
40.255,0.063
40.260,0.046
40.265,0.051
40.270,0.059
40.275,0.056
40.280,0.032
40.285,-0.002
40.290,-0.024
40.295,-0.039
40.300,-0.049
40.305,-0.050
40.310,-0.056
40.315,-0.067
40.320,-0.081
40.325,-0.101
40.330,-0.119
40.335,-0.143
40.340,-0.163
40.345,-0.174
40.350,-0.190
40.355,-0.203
40.360,-0.216
40.365,-0.228
40.370,-0.236
40.375,-0.241
40.380,-0.225
40.385,-0.187
40.390,-0.147
40.395,-0.108
40.400,-0.068
40.405,-0.029
40.410,0.026
40.415,0.080
40.420,0.117
40.425,0.155
40.430,0.183
40.435,0.205
40.440,0.224
40.445,0.237
40.450,0.248
40.455,0.252
40.460,0.249
40.465,0.250
40.470,0.252
40.475,0.240
40.480,0.217
40.485,0.195
40.490,0.189
40.495,0.199
40.500,0.203
40.505,0.196
40.510,0.174
40.515,0.142
40.520,0.120
40.525,0.109
40.530,0.100
40.535,0.099
40.540,0.105
40.545,0.099
40.550,0.083
40.555,0.061
40.560,0.049
40.565,0.055
40.570,0.065
40.575,0.061
40.580,0.047
40.585,0.038
40.590,0.029
40.595,0.018
40.600,0.005
40.605,-0.009
40.610,-0.017
40.615,-0.023
40.620,-0.020
40.625,0.001
40.630,0.017
40.635,0.006
40.640,-0.013
40.645,-0.014
40.650,-0.017
40.655,-0.016
40.660,0.002
40.665,0.013
40.670,0.006
40.675,-0.012
40.680,-0.018
40.685,-0.009
40.690,-0.021
40.695,-0.041
40.700,-0.031
40.705,-0.019
40.710,-0.036
40.715,-0.056
40.720,-0.064
40.725,-0.051
40.730,-0.022
40.735,-0.012
40.740,-0.017
40.745,-0.011
40.750,-0.006
40.755,-0.002
40.760,-0.010
40.765,-0.022
40.770,-0.036
40.775,-0.071
40.780,-0.098
40.785,-0.087
40.790,-0.038
40.795,0.008
40.800,0.000
40.805,-0.031
40.810,-0.036
40.815,-0.032
40.820,-0.036
40.825,-0.038
40.830,-0.040
40.835,-0.040
40.840,-0.054
40.845,-0.096
40.850,-0.122
40.855,-0.120
40.860,-0.127
40.865,-0.122
40.870,-0.106
40.875,-0.113
40.880,-0.143
40.885,-0.191
40.890,-0.215
40.895,-0.188
40.900,-0.161
40.905,-0.141
40.910,-0.109
40.915,-0.074
40.920,-0.039
40.925,-0.015
40.930,-0.018
40.935,-0.029
40.940,-0.016
40.945,0.013
40.950,0.031
40.955,0.041
40.960,0.067
40.965,0.080
40.970,0.041
40.975,-0.003
40.980,0.010
40.985,0.070
40.990,0.114
40.995,0.099
41.000,0.070
41.005,0.057
41.010,0.030
41.015,0.016
41.020,0.019
41.025,0.012
41.030,0.014
41.035,0.028
41.040,0.039
41.045,0.007
41.050,-0.107
41.055,-0.284
41.060,-0.510
41.065,-0.796
41.070,-1.102
41.075,-1.179
41.080,-0.802
41.085,-0.234
41.090,0.162
41.095,0.346
41.100,0.409
41.105,0.419
41.110,0.355
41.115,0.236
41.120,0.183
41.125,0.197
41.130,0.185
41.135,0.155
41.140,0.155
41.145,0.168
41.150,0.175
41.155,0.185
41.160,0.172
41.165,0.139
41.170,0.119
41.175,0.098
41.180,0.076
41.185,0.096
41.190,0.132
41.195,0.133
41.200,0.115
41.205,0.100
41.210,0.083
41.215,0.057
41.220,0.040
41.225,0.045
41.230,0.050
41.235,0.037
41.240,0.024
41.245,0.020
41.250,0.006
41.255,-0.013
41.260,-0.025
41.265,-0.041
41.270,-0.063
41.275,-0.089
41.280,-0.115
41.285,-0.138
41.290,-0.163
41.295,-0.175
41.300,-0.178
41.305,-0.178
41.310,-0.177
41.315,-0.182
41.320,-0.196
41.325,-0.198
41.330,-0.181
41.335,-0.155
41.340,-0.133
41.345,-0.112
41.350,-0.086
41.355,-0.053
41.360,-0.006
41.365,0.041
41.370,0.078
41.375,0.115
41.380,0.148
41.385,0.183
41.390,0.204
41.395,0.210
41.400,0.219
41.405,0.235
41.410,0.240
41.415,0.236
41.420,0.243
41.425,0.238
41.430,0.230
41.435,0.228
41.440,0.222
41.445,0.215
41.450,0.195
41.455,0.171
41.460,0.162
41.465,0.153
41.470,0.140
41.475,0.135
41.480,0.133
41.485,0.125
41.490,0.111
41.495,0.092
41.500,0.075
41.505,0.064
41.510,0.057
41.515,0.060
41.520,0.061
41.525,0.053
41.530,0.036
41.535,0.017
41.540,0.020
41.545,0.032
41.550,0.028
41.555,0.014
41.560,0.017
41.565,0.029
41.570,0.014
41.575,-0.009
41.580,-0.003
41.585,0.024
41.590,0.037
41.595,0.019
41.600,0.002
41.605,0.005
41.610,-0.003
41.615,-0.019
41.620,-0.017
41.625,-0.008
41.630,-0.015
41.635,-0.033
41.640,-0.048
41.645,-0.043
41.650,-0.008
41.655,0.025
41.660,0.032
41.665,0.029
41.670,0.013
41.675,-0.010
41.680,-0.017
41.685,-0.020
41.690,-0.014
41.695,-0.015
41.700,-0.049
41.705,-0.068
41.710,-0.052
41.715,-0.039
41.720,-0.037
41.725,-0.042
41.730,-0.054
41.735,-0.056
41.740,-0.040
41.745,-0.029
41.750,-0.021
41.755,-0.019
41.760,-0.027
41.765,-0.027
41.770,-0.037
41.775,-0.049
41.780,-0.044
41.785,-0.046
41.790,-0.064
41.795,-0.108
41.800,-0.146
41.805,-0.133
41.810,-0.123
41.815,-0.122
41.820,-0.120
41.825,-0.135
41.830,-0.125
41.835,-0.125
41.840,-0.145
41.845,-0.135
41.850,-0.116
41.855,-0.092
41.860,-0.068
41.865,-0.061
41.870,-0.049
41.875,-0.032
41.880,-0.015
41.885,0.008
41.890,0.027
41.895,0.043
41.900,0.047
41.905,0.027
41.910,0.011
41.915,0.028
41.920,0.058
41.925,0.068
41.930,0.059
41.935,0.049
41.940,0.052
41.945,0.060
41.950,0.046
41.955,0.040
41.960,0.056
41.965,0.052
41.970,0.029
41.975,0.012
41.980,0.021
41.985,0.039
41.990,0.019
41.995,-0.071
42.000,-0.229
42.005,-0.430
42.010,-0.686
42.015,-1.016
42.020,-1.220
42.025,-1.000
42.030,-0.469
42.035,-0.008
42.040,0.243
42.045,0.343
42.050,0.362
42.055,0.317
42.060,0.218
42.065,0.176
42.070,0.204
42.075,0.198
42.080,0.183
42.085,0.209
42.090,0.210
42.095,0.176
42.100,0.161
42.105,0.167
42.110,0.156
42.115,0.135
42.120,0.132
42.125,0.136
42.130,0.113
42.135,0.089
42.140,0.093
42.145,0.096
42.150,0.093
42.155,0.094
42.160,0.082
42.165,0.069
42.170,0.046
42.175,0.011
42.180,0.017
42.185,0.026
42.190,0.002
42.195,-0.023
42.200,-0.047
42.205,-0.044
42.210,-0.025
42.215,-0.034
42.220,-0.062
42.225,-0.094
42.230,-0.129
42.235,-0.167
42.240,-0.196
42.245,-0.200
42.250,-0.191
42.255,-0.192
42.260,-0.213
42.265,-0.227
42.270,-0.224
42.275,-0.229
42.280,-0.224
42.285,-0.189
42.290,-0.141
42.295,-0.095
42.300,-0.069
42.305,-0.044
42.310,0.007
42.315,0.065
42.320,0.129
42.325,0.185
42.330,0.214
42.335,0.224
42.340,0.228
42.345,0.239
42.350,0.255
42.355,0.258
42.360,0.251
42.365,0.253
42.370,0.256
42.375,0.247
42.380,0.236
42.385,0.224
42.390,0.214
42.395,0.209
42.400,0.200
42.405,0.184
42.410,0.164
42.415,0.151
42.420,0.152
42.425,0.149
42.430,0.132
42.435,0.109
42.440,0.091
42.445,0.088
42.450,0.086
42.455,0.077
42.460,0.066
42.465,0.056
42.470,0.058
42.475,0.066
42.480,0.056
42.485,0.032
42.490,0.015
42.495,0.010
42.500,0.017
42.505,0.028
42.510,0.022
42.515,0.005
42.520,-0.014
42.525,-0.021
42.530,-0.004
42.535,0.005
42.540,-0.002
42.545,-0.006
42.550,-0.005
42.555,0.004
42.560,0.003
42.565,-0.013
42.570,-0.018
42.575,-0.015
42.580,-0.018
42.585,-0.022
42.590,-0.018
42.595,-0.007
42.600,-0.010
42.605,-0.021
42.610,-0.032
42.615,-0.047
42.620,-0.058
42.625,-0.043
42.630,-0.003
42.635,0.017
42.640,0.003
42.645,-0.020
42.650,-0.033
42.655,-0.032
42.660,-0.028
42.665,-0.031
42.670,-0.030
42.675,-0.036
42.680,-0.051
42.685,-0.059
42.690,-0.059
42.695,-0.050
42.700,-0.035
42.705,-0.025
42.710,-0.024
42.715,-0.033
42.720,-0.046
42.725,-0.051
42.730,-0.049
42.735,-0.065
42.740,-0.095
42.745,-0.102
42.750,-0.100
42.755,-0.104
42.760,-0.111
42.765,-0.128
42.770,-0.138
42.775,-0.147
42.780,-0.164
42.785,-0.154
42.790,-0.135
42.795,-0.123
42.800,-0.108
42.805,-0.093
42.810,-0.069
42.815,-0.037
42.820,-0.010
42.825,0.008
42.830,0.028
42.835,0.048
42.840,0.059
42.845,0.064
42.850,0.061
42.855,0.046
42.860,0.029
42.865,0.034
42.870,0.064
42.875,0.074
42.880,0.052
42.885,0.037
42.890,0.033
42.895,0.029
42.900,0.026
42.905,0.020
42.910,0.020
42.915,0.017
42.920,0.007
42.925,0.021
42.930,0.040
42.935,0.001
42.940,-0.112
42.945,-0.272
42.950,-0.471
42.955,-0.714
42.960,-1.010
42.965,-1.145
42.970,-0.855
42.975,-0.341
42.980,0.057
42.985,0.264
42.990,0.342
42.995,0.350
43.000,0.289
43.005,0.195
43.010,0.174
43.015,0.214
43.020,0.214
43.025,0.193
43.030,0.198
43.035,0.190
43.040,0.165
43.045,0.164
43.050,0.173
43.055,0.154
43.060,0.127
43.065,0.110
43.070,0.097
43.075,0.102
43.080,0.119
43.085,0.131
43.090,0.131
43.095,0.116
43.100,0.086
43.105,0.053
43.110,0.038
43.115,0.046
43.120,0.049
43.125,0.037
43.130,0.021
43.135,0.000
43.140,-0.015
43.145,-0.021
43.150,-0.031
43.155,-0.041
43.160,-0.065
43.165,-0.118
43.170,-0.147
43.175,-0.145
43.180,-0.150
43.185,-0.165
43.190,-0.183
43.195,-0.203
43.200,-0.216
43.205,-0.223
43.210,-0.217
43.215,-0.203
43.220,-0.211
43.225,-0.223
43.230,-0.197
43.235,-0.142
43.240,-0.094
43.245,-0.057
43.250,-0.019
43.255,0.028
43.260,0.075
43.265,0.117
43.270,0.151
43.275,0.173
43.280,0.199
43.285,0.231
43.290,0.264
43.295,0.288
43.300,0.284
43.305,0.264
43.310,0.249
43.315,0.242
43.320,0.239
43.325,0.233
43.330,0.217
43.335,0.198
43.340,0.193
43.345,0.199
43.350,0.188
43.355,0.157
43.360,0.131
43.365,0.137
43.370,0.142
43.375,0.126
43.380,0.099
43.385,0.072
43.390,0.063
43.395,0.065
43.400,0.075
43.405,0.090
43.410,0.088
43.415,0.066
43.420,0.050
43.425,0.034
43.430,0.025
43.435,0.022
43.440,0.017
43.445,0.018
43.450,0.014
43.455,0.007
43.460,0.004
43.465,0.003
43.470,0.003
43.475,-0.003
43.480,-0.013
43.485,-0.014
43.490,-0.008
43.495,-0.004
43.500,-0.017
43.505,-0.034
43.510,-0.028
43.515,-0.019
43.520,-0.017
43.525,-0.014
43.530,-0.016
43.535,-0.018
43.540,-0.037
43.545,-0.057
43.550,-0.044
43.555,-0.023
43.560,-0.022
43.565,-0.032
43.570,-0.032
43.575,-0.036
43.580,-0.047
43.585,-0.043
43.590,-0.030
43.595,-0.026
43.600,-0.035
43.605,-0.047
43.610,-0.050
43.615,-0.042
43.620,-0.041
43.625,-0.047
43.630,-0.050
43.635,-0.060
43.640,-0.058
43.645,-0.039
43.650,-0.035
43.655,-0.037
43.660,-0.045
43.665,-0.058
43.670,-0.063
43.675,-0.079
43.680,-0.095
43.685,-0.096
43.690,-0.099
43.695,-0.114
43.700,-0.127
43.705,-0.130
43.710,-0.133
43.715,-0.141
43.720,-0.144
43.725,-0.138
43.730,-0.125
43.735,-0.128
43.740,-0.130
43.745,-0.105
43.750,-0.084
43.755,-0.080
43.760,-0.066
43.765,-0.032
43.770,-0.001
43.775,0.014
43.780,0.023
43.785,0.037
43.790,0.051
43.795,0.054
43.800,0.057
43.805,0.061
43.810,0.057
43.815,0.050
43.820,0.040
43.825,0.034
43.830,0.031
43.835,0.019
43.840,0.016
43.845,0.027
43.850,0.019
43.855,0.005
43.860,0.015
43.865,0.033
43.870,0.039
43.875,0.044
43.880,0.022
43.885,-0.086
43.890,-0.246
43.895,-0.420
43.900,-0.658
43.905,-0.972
43.910,-1.177
43.915,-0.966
43.920,-0.405
43.925,0.078
43.930,0.314
43.935,0.409
43.940,0.426
43.945,0.375
43.950,0.255
43.955,0.169
43.960,0.189
43.965,0.205
43.970,0.184
43.975,0.179
43.980,0.172
43.985,0.157
43.990,0.152
43.995,0.144
44.000,0.123
44.005,0.116
44.010,0.121
44.015,0.113
44.020,0.108
44.025,0.111
44.030,0.104
44.035,0.097
44.040,0.095
44.045,0.082
44.050,0.063
44.055,0.051
44.060,0.043
44.065,0.038
44.070,0.037
44.075,0.030
44.080,0.008
44.085,-0.015
44.090,-0.029
44.095,-0.035
44.100,-0.042
44.105,-0.070
44.110,-0.098
44.115,-0.112
44.120,-0.131
44.125,-0.156
44.130,-0.161
44.135,-0.149
44.140,-0.154
44.145,-0.180
44.150,-0.208
44.155,-0.220
44.160,-0.209
44.165,-0.194
44.170,-0.190
44.175,-0.178
44.180,-0.144
44.185,-0.106
44.190,-0.068
44.195,-0.029
44.200,0.002
44.205,0.043
44.210,0.099
44.215,0.145
44.220,0.171
44.225,0.186
44.230,0.199
44.235,0.222
44.240,0.239
44.245,0.237
44.250,0.237
44.255,0.238
44.260,0.223
44.265,0.208
44.270,0.202
44.275,0.192
44.280,0.187
44.285,0.188
44.290,0.184
44.295,0.171
44.300,0.153
44.305,0.152
44.310,0.155
44.315,0.139
44.320,0.114
44.325,0.099
44.330,0.100
44.335,0.088
44.340,0.063
44.345,0.055
44.350,0.057
44.355,0.062
44.360,0.058
44.365,0.040
44.370,0.038
44.375,0.044
44.380,0.038
44.385,0.040
44.390,0.039
44.395,0.025
44.400,0.014
44.405,0.008
44.410,0.009
44.415,0.011
44.420,0.011
44.425,0.018
44.430,0.022
44.435,0.009
44.440,0.001
44.445,0.013
44.450,0.020
44.455,0.005
44.460,-0.018
44.465,-0.025
44.470,-0.018
44.475,-0.008
44.480,0.005
44.485,0.018
44.490,0.016
44.495,0.008
44.500,0.006
44.505,-0.003
44.510,-0.023
44.515,-0.033
44.520,-0.029
44.525,-0.032
44.530,-0.037
44.535,-0.045
44.540,-0.044
44.545,-0.020
44.550,-0.011
44.555,-0.019
44.560,-0.020
44.565,-0.022
44.570,-0.019
44.575,-0.020
44.580,-0.036
44.585,-0.044
44.590,-0.036
44.595,-0.026
44.600,-0.032
44.605,-0.060
44.610,-0.073
44.615,-0.064
44.620,-0.069
44.625,-0.093
44.630,-0.113
44.635,-0.117
44.640,-0.120
44.645,-0.135
44.650,-0.149
44.655,-0.150
44.660,-0.152
44.665,-0.141
44.670,-0.088
44.675,-0.044
44.680,-0.041
44.685,-0.045
44.690,-0.040
44.695,-0.031
44.700,-0.014
44.705,0.016
44.710,0.037
44.715,0.040
44.720,0.048
44.725,0.061
44.730,0.079
44.735,0.084
44.740,0.070
44.745,0.057
44.750,0.042
44.755,0.036
44.760,0.043
44.765,0.044
44.770,0.030
44.775,0.018
44.780,0.021
44.785,0.014
44.790,-0.004
44.795,0.004
44.800,0.031
44.805,0.051
44.810,0.022
44.815,-0.092
44.820,-0.270
44.825,-0.485
44.830,-0.759
44.835,-1.083
44.840,-1.215
44.845,-0.901
44.850,-0.342
44.855,0.090
44.860,0.315
44.865,0.406
44.870,0.415
44.875,0.347
44.880,0.230
44.885,0.176
44.890,0.195
44.895,0.191
44.900,0.174
44.905,0.182
44.910,0.179
44.915,0.159
44.920,0.145
44.925,0.140
44.930,0.130
44.935,0.129
44.940,0.138
44.945,0.125
44.950,0.101
44.955,0.087
44.960,0.073
44.965,0.062
44.970,0.068
44.975,0.068
44.980,0.047
44.985,0.033
44.990,0.036
44.995,0.035
45.000,0.025
45.005,0.009
45.010,-0.010
45.015,-0.016
45.020,-0.022
45.025,-0.045
45.030,-0.071
45.035,-0.097
45.040,-0.114
45.045,-0.123
45.050,-0.141
45.055,-0.161
45.060,-0.182
45.065,-0.202
45.070,-0.206
45.075,-0.200
45.080,-0.201
45.085,-0.218
45.090,-0.246
45.095,-0.248
45.100,-0.204
45.105,-0.158
45.110,-0.131
45.115,-0.101
45.120,-0.061
45.125,-0.015
45.130,0.033
45.135,0.074
45.140,0.118
45.145,0.165
45.150,0.188
45.155,0.198
45.160,0.218
45.165,0.234
45.170,0.242
45.175,0.243
45.180,0.235
45.185,0.232
45.190,0.236
45.195,0.230
45.200,0.225
45.205,0.224
45.210,0.214
45.215,0.206
45.220,0.201
45.225,0.191
45.230,0.170
45.235,0.141
45.240,0.128
45.245,0.132
45.250,0.133
45.255,0.124
45.260,0.114
45.265,0.101
45.270,0.079
45.275,0.063
45.280,0.065
45.285,0.061
45.290,0.051
45.295,0.046
45.300,0.033
45.305,0.021
45.310,0.022
45.315,0.027
45.320,0.028
45.325,0.017
45.330,0.002
45.335,-0.001
45.340,0.000
45.345,0.003
45.350,0.010
