'Elapsed time','ECG'
'seconds','mV'
0.000,0.051
0.005,0.077
0.010,0.118
0.015,0.027
0.020,0.020
0.025,0.085
0.030,0.024
0.035,-0.008
0.040,0.043
0.045,0.038
0.050,0.012
0.055,0.029
0.060,0.030
0.065,0.015
0.070,0.020
0.075,0.021
0.080,0.011
0.085,0.011
0.090,0.034
0.095,0.044
0.100,0.029
0.105,0.025
0.110,0.024
0.115,0.024
0.120,0.031
0.125,0.034
0.130,0.031
0.135,0.036
0.140,0.048
0.145,0.044
0.150,0.033
0.155,0.038
0.160,0.039
0.165,0.007
0.170,-0.059
0.175,-0.116
0.180,-0.104
0.185,0.025
0.190,0.255
0.195,0.496
0.200,0.676
0.205,0.794
0.210,0.712
0.215,0.402
0.220,0.151
0.225,0.029
0.230,-0.040
0.235,-0.116
0.240,-0.240
0.245,-0.318
0.250,-0.350
0.255,-0.403
0.260,-0.435
0.265,-0.422
0.270,-0.423
0.275,-0.400
0.280,-0.301
0.285,-0.182
0.290,-0.089
0.295,-0.028
0.300,0.006
0.305,0.017
0.310,0.028
0.315,0.051
0.320,0.055
0.325,0.057
0.330,0.070
0.335,0.061
0.340,0.056
0.345,0.070
0.350,0.069
0.355,0.065
0.360,0.064
0.365,0.064
0.370,0.068
0.375,0.068
0.380,0.072
0.385,0.082
0.390,0.080
0.395,0.073
0.400,0.081
0.405,0.097
0.410,0.103
0.415,0.100
0.420,0.104
0.425,0.114
0.430,0.123
0.435,0.132
0.440,0.153
0.445,0.177
0.450,0.189
0.455,0.201
0.460,0.217
0.465,0.235
0.470,0.251
0.475,0.266
0.480,0.286
0.485,0.303
0.490,0.319
0.495,0.321
0.500,0.313
0.505,0.298
0.510,0.265
0.515,0.219
0.520,0.157
0.525,0.086
0.530,0.014
0.535,-0.064
0.540,-0.136
0.545,-0.190
0.550,-0.243
0.555,-0.298
0.560,-0.341
0.565,-0.364
0.570,-0.375
0.575,-0.383
0.580,-0.393
0.585,-0.403
0.590,-0.395
0.595,-0.377
0.600,-0.363
0.605,-0.351
0.610,-0.344
0.615,-0.340
0.620,-0.334
0.625,-0.310
0.630,-0.279
0.635,-0.266
0.640,-0.259
0.645,-0.236
0.650,-0.215
0.655,-0.203
0.660,-0.191
0.665,-0.176
0.670,-0.166
0.675,-0.155
0.680,-0.148
0.685,-0.145
0.690,-0.128
0.695,-0.110
0.700,-0.098
0.705,-0.087
0.710,-0.081
0.715,-0.070
0.720,-0.059
0.725,-0.060
0.730,-0.062
0.735,-0.058
0.740,-0.048
0.745,-0.033
0.750,-0.030
0.755,-0.032
0.760,-0.026
0.765,-0.023
0.770,-0.019
0.775,-0.012
0.780,-0.003
0.785,-0.006
0.790,-0.014
0.795,-0.011
0.800,-0.007
0.805,0.005
0.810,0.012
0.815,0.001
0.820,-0.001
0.825,0.010
0.830,0.012
0.835,0.008
0.840,0.007
0.845,0.012
0.850,0.024
0.855,0.028
0.860,0.024
0.865,0.025
0.870,0.029
0.875,0.032
0.880,0.034
0.885,0.037
0.890,0.040
0.895,0.035
0.900,0.029
0.905,0.033
0.910,0.044
0.915,0.056
0.920,0.053
0.925,0.045
0.930,0.052
0.935,0.049
0.940,0.048
0.945,0.064
0.950,0.068
0.955,0.063
0.960,0.058
0.965,0.065
0.970,0.075
0.975,0.075
0.980,0.073
0.985,0.079
0.990,0.102
0.995,0.111
1.000,0.100
1.005,0.083
1.010,0.072
1.015,0.078
1.020,0.078
1.025,0.071
1.030,0.064
1.035,0.050
1.040,0.038
1.045,0.026
1.050,0.010
1.055,-0.005
1.060,-0.020
1.065,-0.033
1.070,-0.040
1.075,-0.030
1.080,-0.016
1.085,-0.019
1.090,-0.018
1.095,-0.018
1.100,-0.023
1.105,-0.024
1.110,-0.021
1.115,-0.011
1.120,-0.004
1.125,0.001
1.130,-0.002
1.135,-0.007
1.140,0.007
1.145,0.013
1.150,0.011
1.155,0.011
1.160,0.011
1.165,0.018
1.170,0.025
1.175,0.030
1.180,0.033
1.185,0.027
1.190,0.024
1.195,0.009
1.200,-0.043
1.205,-0.099
1.210,-0.090
1.215,0.039
1.220,0.272
1.225,0.526
1.230,0.723
1.235,0.859
1.240,0.810
1.245,0.491
1.250,0.187
1.255,0.032
1.260,-0.045
1.265,-0.100
1.270,-0.213
1.275,-0.302
1.280,-0.337
1.285,-0.395
1.290,-0.431
1.295,-0.413
1.300,-0.396
1.305,-0.368
1.310,-0.275
1.315,-0.156
1.320,-0.074
1.325,-0.015
1.330,0.037
1.335,0.057
1.340,0.067
1.345,0.083
1.350,0.088
1.355,0.093
1.360,0.099
1.365,0.099
1.370,0.095
1.375,0.096
1.380,0.100
1.385,0.094
1.390,0.096
1.395,0.102
1.400,0.098
1.405,0.098
1.410,0.101
1.415,0.102
1.420,0.103
1.425,0.106
1.430,0.114
1.435,0.121
1.440,0.127
1.445,0.135
1.450,0.140
1.455,0.141
1.460,0.149
1.465,0.166
1.470,0.179
1.475,0.196
1.480,0.216
1.485,0.234
1.490,0.260
1.495,0.282
1.500,0.294
1.505,0.311
1.510,0.327
1.515,0.343
1.520,0.354
1.525,0.358
1.530,0.354
1.535,0.335
1.540,0.301
1.545,0.249
1.550,0.181
1.555,0.104
1.560,0.023
1.565,-0.054
1.570,-0.128
1.575,-0.196
1.580,-0.255
1.585,-0.304
1.590,-0.334
1.595,-0.353
1.600,-0.373
1.605,-0.381
1.610,-0.386
1.615,-0.388
1.620,-0.384
1.625,-0.375
1.630,-0.363
1.635,-0.359
1.640,-0.347
1.645,-0.325
1.650,-0.315
1.655,-0.308
1.660,-0.295
1.665,-0.277
1.670,-0.260
1.675,-0.246
1.680,-0.231
1.685,-0.218
1.690,-0.201
1.695,-0.188
1.700,-0.172
1.705,-0.153
1.710,-0.145
1.715,-0.136
1.720,-0.125
1.725,-0.113
1.730,-0.099
1.735,-0.094
1.740,-0.084
1.745,-0.070
1.750,-0.064
1.755,-0.058
1.760,-0.052
1.765,-0.044
1.770,-0.041
1.775,-0.039
1.780,-0.031
1.785,-0.028
1.790,-0.023
1.795,-0.015
1.800,-0.010
1.805,-0.008
1.810,-0.007
1.815,-0.005
1.820,-0.006
1.825,-0.003
1.830,0.005
1.835,0.003
1.840,0.002
1.845,0.005
1.850,0.008
1.855,0.011
1.860,0.012
1.865,0.013
1.870,0.018
1.875,0.025
1.880,0.027
1.885,0.026
1.890,0.031
1.895,0.035
1.900,0.035
1.905,0.038
1.910,0.039
1.915,0.037
1.920,0.033
1.925,0.034
1.930,0.041
1.935,0.044
1.940,0.049
1.945,0.048
1.950,0.041
1.955,0.039
1.960,0.041
1.965,0.045
1.970,0.046
1.975,0.047
1.980,0.052
1.985,0.049
1.990,0.050
1.995,0.052
2.000,0.052
2.005,0.056
2.010,0.055
2.015,0.053
2.020,0.050
2.025,0.051
2.030,0.058
2.035,0.059
2.040,0.068
2.045,0.073
2.050,0.069
2.055,0.070
2.060,0.071
2.065,0.072
2.070,0.073
2.075,0.081
2.080,0.096
2.085,0.096
2.090,0.089
2.095,0.082
2.100,0.070
2.105,0.065
2.110,0.062
2.115,0.061
2.120,0.058
2.125,0.048
2.130,0.039
2.135,0.024
2.140,0.013
2.145,0.002
2.150,-0.012
2.155,-0.021
2.160,-0.023
2.165,-0.017
2.170,-0.015
2.175,-0.017
2.180,-0.014
2.185,-0.017
2.190,-0.015
2.195,-0.010
2.200,-0.010
2.205,-0.005
2.210,-0.003
2.215,-0.009
2.220,-0.013
2.225,-0.008
2.230,-0.002
2.235,-0.002
2.240,0.001
2.245,0.007
2.250,0.011
2.255,0.015
2.260,0.012
2.265,0.007
2.270,0.001
2.275,0.000
2.280,0.005
2.285,-0.006
2.290,-0.042
2.295,-0.097
2.300,-0.130
2.305,-0.077
2.310,0.093
2.315,0.348
2.320,0.585
2.325,0.763
2.330,0.868
2.335,0.718
2.340,0.384
2.345,0.136
2.350,-0.016
2.355,-0.105
2.360,-0.209
2.365,-0.335
2.370,-0.388
2.375,-0.423
2.380,-0.480
2.385,-0.502
2.390,-0.471
2.395,-0.430
2.400,-0.357
2.405,-0.229
2.410,-0.114
2.415,-0.045
2.420,0.003
2.425,0.033
2.430,0.046
2.435,0.055
2.440,0.064
2.445,0.068
2.450,0.069
2.455,0.076
2.460,0.076
2.465,0.071
2.470,0.067
2.475,0.065
2.480,0.066
2.485,0.063
2.490,0.063
2.495,0.063
2.500,0.056
2.505,0.056
2.510,0.062
2.515,0.068
2.520,0.073
2.525,0.078
2.530,0.084
2.535,0.088
2.540,0.100
2.545,0.116
2.550,0.128
2.555,0.141
2.560,0.154
2.565,0.172
2.570,0.192
2.575,0.211
2.580,0.234
2.585,0.252
2.590,0.272
2.595,0.298
2.600,0.317
2.605,0.335
2.610,0.350
2.615,0.365
2.620,0.371
2.625,0.361
2.630,0.339
2.635,0.299
2.640,0.246
2.645,0.179
2.650,0.093
2.655,0.011
2.660,-0.065
2.665,-0.143
2.670,-0.218
2.675,-0.280
2.680,-0.326
2.685,-0.361
2.690,-0.384
2.695,-0.406
2.700,-0.423
2.705,-0.426
2.710,-0.425
2.715,-0.417
2.720,-0.406
2.725,-0.390
2.730,-0.374
2.735,-0.369
2.740,-0.355
2.745,-0.334
2.750,-0.320
2.755,-0.304
2.760,-0.291
2.765,-0.273
2.770,-0.256
2.775,-0.242
2.780,-0.221
2.785,-0.204
2.790,-0.189
2.795,-0.174
2.800,-0.165
2.805,-0.151
2.810,-0.134
2.815,-0.124
2.820,-0.118
2.825,-0.109
2.830,-0.099
2.835,-0.093
2.840,-0.086
2.845,-0.077
2.850,-0.067
2.855,-0.059
2.860,-0.054
2.865,-0.049
2.870,-0.042
2.875,-0.034
2.880,-0.031
2.885,-0.031
2.890,-0.024
2.895,-0.017
2.900,-0.017
2.905,-0.016
2.910,-0.011
2.915,-0.006
2.920,-0.005
2.925,-0.002
2.930,0.005
2.935,0.009
2.940,0.016
2.945,0.023
2.950,0.023
2.955,0.020
2.960,0.020
2.965,0.025
2.970,0.031
2.975,0.037
2.980,0.044
2.985,0.041
2.990,0.038
2.995,0.039
3.000,0.041
3.005,0.045
3.010,0.046
3.015,0.048
3.020,0.051
3.025,0.052
3.030,0.055
3.035,0.055
3.040,0.058
3.045,0.058
3.050,0.054
3.055,0.059
3.060,0.063
3.065,0.061
3.070,0.057
3.075,0.058
3.080,0.064
3.085,0.062
3.090,0.063
3.095,0.068
3.100,0.067
3.105,0.067
3.110,0.066
3.115,0.067
3.120,0.067
3.125,0.063
3.130,0.065
3.135,0.067
3.140,0.070
3.145,0.075
3.150,0.079
3.155,0.087
3.160,0.086
3.165,0.082
3.170,0.083
3.175,0.084
3.180,0.087
3.185,0.090
3.190,0.098
3.195,0.103
3.200,0.098
3.205,0.090
3.210,0.082
3.215,0.077
3.220,0.068
3.225,0.065
3.230,0.067
3.235,0.058
3.240,0.045
3.245,0.026
3.250,0.008
3.255,0.002
3.260,-0.001
3.265,-0.007
3.270,-0.015
3.275,-0.017
3.280,-0.013
3.285,-0.012
3.290,-0.010
3.295,-0.006
3.300,-0.001
3.305,0.004
3.310,0.002
3.315,-0.003
3.320,-0.007
3.325,-0.007
3.330,0.001
3.335,0.000
3.340,0.002
3.345,0.011
3.350,0.011
3.355,0.010
3.360,0.009
3.365,0.012
3.370,0.015
3.375,0.014
3.380,0.014
3.385,0.011
3.390,0.013
3.395,0.016
3.400,-0.003
3.405,-0.040
3.410,-0.093
3.415,-0.125
3.420,-0.062
3.425,0.119
3.430,0.368
3.435,0.584
3.440,0.746
3.445,0.810
3.450,0.608
3.455,0.293
3.460,0.098
3.465,-0.021
3.470,-0.100
3.475,-0.211
3.480,-0.327
3.485,-0.374
3.490,-0.424
3.495,-0.477
3.500,-0.477
3.505,-0.446
3.510,-0.408
3.515,-0.316
3.520,-0.181
3.525,-0.081
3.530,-0.028
3.535,0.018
3.540,0.052
3.545,0.063
3.550,0.065
3.555,0.070
3.560,0.078
3.565,0.084
3.570,0.074
3.575,0.060
3.580,0.061
3.585,0.063
3.590,0.067
3.595,0.069
3.600,0.069
3.605,0.072
3.610,0.072
3.615,0.071
3.620,0.070
3.625,0.077
3.630,0.085
3.635,0.086
3.640,0.092
3.645,0.101
3.650,0.113
3.655,0.129
3.660,0.130
3.665,0.130
3.670,0.139
3.675,0.156
3.680,0.179
3.685,0.195
3.690,0.212
3.695,0.233
3.700,0.247
3.705,0.265
3.710,0.290
3.715,0.312
3.720,0.323
3.725,0.337
3.730,0.355
3.735,0.355
3.740,0.348
3.745,0.326
3.750,0.282
3.755,0.222
3.760,0.145
3.765,0.069
3.770,-0.001
3.775,-0.073
3.780,-0.145
3.785,-0.210
3.790,-0.257
3.795,-0.301
3.800,-0.351
3.805,-0.385
3.810,-0.404
3.815,-0.411
3.820,-0.407
3.825,-0.405
3.830,-0.399
3.835,-0.393
3.840,-0.388
3.845,-0.380
3.850,-0.368
3.855,-0.352
3.860,-0.326
3.865,-0.297
3.870,-0.284
3.875,-0.275
3.880,-0.262
3.885,-0.257
3.890,-0.241
3.895,-0.220
3.900,-0.203
3.905,-0.179
3.910,-0.167
3.915,-0.166
3.920,-0.159
3.925,-0.149
3.930,-0.136
3.935,-0.120
3.940,-0.104
3.945,-0.100
3.950,-0.105
3.955,-0.102
3.960,-0.091
3.965,-0.077
3.970,-0.069
3.975,-0.063
3.980,-0.052
3.985,-0.049
3.990,-0.050
3.995,-0.045
4.000,-0.037
4.005,-0.030
4.010,-0.023
4.015,-0.017
4.020,-0.011
4.025,-0.005
4.030,-0.001
4.035,-0.003
4.040,0.001
4.045,0.004
4.050,0.001
4.055,0.007
4.060,0.016
4.065,0.017
4.070,0.019
4.075,0.025
4.080,0.030
4.085,0.026
4.090,0.022
4.095,0.026
4.100,0.037
4.105,0.050
4.110,0.047
4.115,0.035
4.120,0.034
4.125,0.039
4.130,0.050
4.135,0.057
4.140,0.057
4.145,0.052
4.150,0.043
4.155,0.039
4.160,0.044
4.165,0.046
4.170,0.045
4.175,0.055
4.180,0.059
4.185,0.053
4.190,0.060
4.195,0.065
4.200,0.056
4.205,0.049
4.210,0.047
4.215,0.056
4.220,0.059
4.225,0.053
4.230,0.065
4.235,0.074
4.240,0.075
4.245,0.079
4.250,0.077
4.255,0.073
4.260,0.073
4.265,0.087
4.270,0.107
4.275,0.111
4.280,0.102
4.285,0.092
4.290,0.095
4.295,0.091
4.300,0.079
4.305,0.076
4.310,0.064
4.315,0.051
4.320,0.041
4.325,0.028
4.330,0.020
4.335,0.009
4.340,0.002
4.345,0.004
4.350,0.008
4.355,0.004
4.360,0.001
4.365,0.004
4.370,0.004
4.375,0.011
4.380,0.013
4.385,-0.002
4.390,0.002
4.395,0.015
4.400,0.014
4.405,0.025
4.410,0.036
4.415,0.032
4.420,0.028
4.425,0.015
4.430,0.007
4.435,0.008
4.440,0.010
4.445,0.020
4.450,0.026
4.455,0.027
4.460,0.022
4.465,0.020
4.470,0.024
4.475,0.004
4.480,-0.036
4.485,-0.090
4.490,-0.104
4.495,-0.004
4.500,0.209
4.505,0.463
4.510,0.665
4.515,0.808
4.520,0.785
4.525,0.501
4.530,0.199
4.535,0.041
4.540,-0.022
4.545,-0.075
4.550,-0.210
4.555,-0.327
4.560,-0.360
4.565,-0.395
4.570,-0.432
4.575,-0.426
4.580,-0.408
4.585,-0.393
4.590,-0.323
4.595,-0.207
4.600,-0.114
4.605,-0.048
4.610,0.006
4.615,0.039
4.620,0.047
4.625,0.050
4.630,0.053
4.635,0.058
4.640,0.073
4.645,0.069
4.650,0.052
4.655,0.063
4.660,0.071
4.665,0.061
4.670,0.060
4.675,0.066
4.680,0.072
4.685,0.071
4.690,0.073
4.695,0.076
4.700,0.068
4.705,0.073
4.710,0.083
4.715,0.077
4.720,0.077
4.725,0.087
4.730,0.102
4.735,0.112
4.740,0.114
4.745,0.118
4.750,0.127
4.755,0.140
4.760,0.157
4.765,0.182
4.770,0.206
4.775,0.221
4.780,0.238
4.785,0.254
4.790,0.272
4.795,0.285
4.800,0.288
4.805,0.297
4.810,0.308
4.815,0.299
4.820,0.268
4.825,0.225
4.830,0.171
4.835,0.090
4.840,0.005
4.845,-0.070
4.850,-0.140
4.855,-0.203
4.860,-0.264
4.865,-0.311
4.870,-0.344
4.875,-0.370
4.880,-0.386
4.885,-0.400
4.890,-0.407
4.895,-0.405
4.900,-0.404
4.905,-0.392
4.910,-0.378
4.915,-0.366
4.920,-0.349
4.925,-0.337
4.930,-0.330
4.935,-0.320
4.940,-0.301
4.945,-0.279
4.950,-0.263
4.955,-0.243
4.960,-0.222
4.965,-0.208
4.970,-0.196
4.975,-0.191
4.980,-0.179
4.985,-0.164
4.990,-0.149
4.995,-0.129
5.000,-0.115
5.005,-0.104
5.010,-0.089
5.015,-0.076
5.020,-0.066
5.025,-0.056
5.030,-0.049
5.035,-0.049
5.040,-0.041
5.045,-0.029
5.050,-0.021
5.055,-0.011
5.060,-0.007
5.065,-0.005
5.070,0.000
5.075,0.001
5.080,0.001
5.085,0.002
5.090,0.006
5.095,0.009
5.100,0.010
5.105,0.015
5.110,0.020
5.115,0.021
5.120,0.017
5.125,0.016
5.130,0.026
5.135,0.025
5.140,0.025
5.145,0.031
5.150,0.036
5.155,0.046
5.160,0.049
5.165,0.048
5.170,0.053
5.175,0.060
5.180,0.062
5.185,0.056
5.190,0.058
5.195,0.067
5.200,0.069
5.205,0.067
5.210,0.067
5.215,0.069
5.220,0.073
5.225,0.075
5.230,0.078
5.235,0.080
5.240,0.088
5.245,0.097
5.250,0.095
5.255,0.092
5.260,0.090
5.265,0.089
5.270,0.090
5.275,0.085
5.280,0.080
5.285,0.078
5.290,0.078
5.295,0.081
5.300,0.082
5.305,0.084
5.310,0.085
5.315,0.087
5.320,0.088
5.325,0.084
5.330,0.083
5.335,0.082
5.340,0.089
5.345,0.102
5.350,0.109
5.355,0.118
5.360,0.118
5.365,0.107
5.370,0.096
5.375,0.090
5.380,0.091
5.385,0.086
5.390,0.078
5.395,0.069
5.400,0.053
5.405,0.040
5.410,0.031
5.415,0.014
5.420,-0.007
5.425,-0.018
5.430,-0.020
5.435,-0.021
5.440,-0.019
5.445,-0.019
5.450,-0.022
5.455,-0.018
5.460,-0.014
5.465,-0.013
5.470,-0.016
5.475,-0.014
5.480,-0.007
5.485,-0.005
5.490,0.000
5.495,0.006
5.500,0.003
5.505,0.008
5.510,0.010
5.515,0.009
5.520,0.009
5.525,0.008
5.530,0.012
5.535,0.014
5.540,0.014
5.545,0.014
5.550,0.013
5.555,0.018
5.560,0.009
5.565,-0.027
5.570,-0.084
5.575,-0.128
5.580,-0.084
5.585,0.085
5.590,0.344
5.595,0.590
5.600,0.764
5.605,0.862
5.610,0.718
5.615,0.383
5.620,0.128
5.625,-0.026
5.630,-0.109
5.635,-0.205
5.640,-0.327
5.645,-0.375
5.650,-0.411
5.655,-0.469
5.660,-0.485
5.665,-0.462
5.670,-0.430
5.675,-0.364
5.680,-0.246
5.685,-0.136
5.690,-0.067
5.695,-0.016
5.700,0.015
5.705,0.030
5.710,0.046
5.715,0.055
5.720,0.055
5.725,0.059
5.730,0.064
5.735,0.060
5.740,0.062
5.745,0.068
5.750,0.065
5.755,0.062
5.760,0.061
5.765,0.065
5.770,0.064
5.775,0.057
5.780,0.056
5.785,0.057
5.790,0.060
5.795,0.068
5.800,0.071
5.805,0.080
5.810,0.089
5.815,0.095
5.820,0.107
5.825,0.120
5.830,0.133
5.835,0.144
5.840,0.162
5.845,0.183
5.850,0.200
5.855,0.225
5.860,0.250
5.865,0.269
5.870,0.288
5.875,0.305
5.880,0.324
5.885,0.340
5.890,0.353
5.895,0.362
5.900,0.351
5.905,0.326
5.910,0.286
5.915,0.230
5.920,0.164
5.925,0.088
5.930,0.008
5.935,-0.079
5.940,-0.154
5.945,-0.213
5.950,-0.274
5.955,-0.324
5.960,-0.362
5.965,-0.393
5.970,-0.414
5.975,-0.429
5.980,-0.433
5.985,-0.429
5.990,-0.419
5.995,-0.407
6.000,-0.396
6.005,-0.384
6.010,-0.371
6.015,-0.353
6.020,-0.334
6.025,-0.318
6.030,-0.300
6.035,-0.286
6.040,-0.270
6.045,-0.250
6.050,-0.237
6.055,-0.218
6.060,-0.198
6.065,-0.188
6.070,-0.179
6.075,-0.169
6.080,-0.158
6.085,-0.143
6.090,-0.123
6.095,-0.109
6.100,-0.105
6.105,-0.097
6.110,-0.089
6.115,-0.081
6.120,-0.068
6.125,-0.059
6.130,-0.054
6.135,-0.052
6.140,-0.046
6.145,-0.037
6.150,-0.032
6.155,-0.028
6.160,-0.025
6.165,-0.021
6.170,-0.015
6.175,-0.011
6.180,-0.006
6.185,-0.007
6.190,-0.005
6.195,0.002
6.200,0.003
6.205,0.005
6.210,0.011
6.215,0.015
6.220,0.015
6.225,0.014
6.230,0.019
6.235,0.024
6.240,0.028
6.245,0.032
6.250,0.032
6.255,0.038
6.260,0.044
6.265,0.045
6.270,0.047
6.275,0.048
6.280,0.049
6.285,0.047
6.290,0.052
6.295,0.057
6.300,0.052
6.305,0.051
6.310,0.053
6.315,0.055
6.320,0.058
6.325,0.057
6.330,0.056
6.335,0.055
6.340,0.055
6.345,0.057
6.350,0.058
6.355,0.062
6.360,0.063
6.365,0.059
6.370,0.059
6.375,0.055
6.380,0.056
6.385,0.057
6.390,0.053
6.395,0.054
6.400,0.051
6.405,0.051
6.410,0.057
6.415,0.061
6.420,0.066
6.425,0.073
6.430,0.076
6.435,0.071
6.440,0.072
6.445,0.077
6.450,0.075
6.455,0.076
6.460,0.086
6.465,0.098
6.470,0.103
6.475,0.101
6.480,0.091
6.485,0.075
6.490,0.073
6.495,0.072
6.500,0.062
6.505,0.060
6.510,0.053
6.515,0.043
6.520,0.031
6.525,0.017
6.530,0.011
6.535,-0.001
6.540,-0.013
6.545,-0.016
6.550,-0.016
6.555,-0.012
6.560,-0.010
6.565,-0.008
6.570,-0.006
6.575,-0.002
6.580,0.003
6.585,-0.001
6.590,-0.003
6.595,-0.001
6.600,-0.005
6.605,-0.002
6.610,0.004
6.615,0.007
6.620,0.007
6.625,-0.001
6.630,-0.003
6.635,0.001
6.640,0.007
6.645,0.012
6.650,0.012
6.655,0.011
6.660,0.010
6.665,0.010
6.670,0.009
6.675,0.000
6.680,-0.037
6.685,-0.099
6.690,-0.129
6.695,-0.068
6.700,0.113
6.705,0.375
6.710,0.600
6.715,0.767
6.720,0.845
6.725,0.657
6.730,0.324
6.735,0.093
6.740,-0.040
6.745,-0.119
6.750,-0.231
6.755,-0.345
6.760,-0.387
6.765,-0.432
6.770,-0.494
6.775,-0.501
6.780,-0.458
6.785,-0.411
6.790,-0.322
6.795,-0.191
6.800,-0.091
6.805,-0.028
6.810,0.024
6.815,0.052
6.820,0.061
6.825,0.071
6.830,0.078
6.835,0.074
6.840,0.072
6.845,0.073
6.850,0.071
6.855,0.072
6.860,0.079
6.865,0.087
6.870,0.085
6.875,0.077
6.880,0.073
6.885,0.071
6.890,0.073
6.895,0.069
6.900,0.064
6.905,0.074
6.910,0.085
6.915,0.092
6.920,0.097
6.925,0.103
6.930,0.114
6.935,0.123
6.940,0.130
6.945,0.144
6.950,0.157
6.955,0.177
6.960,0.197
6.965,0.206
6.970,0.219
6.975,0.240
6.980,0.265
6.985,0.290
6.990,0.314
6.995,0.334
7.000,0.341
7.005,0.344
7.010,0.351
7.015,0.349
7.020,0.326
7.025,0.284
7.030,0.230
7.035,0.163
7.040,0.089
7.045,0.017
7.050,-0.057
7.055,-0.127
7.060,-0.198
7.065,-0.263
7.070,-0.310
7.075,-0.343
7.080,-0.365
7.085,-0.388
7.090,-0.406
7.095,-0.414
7.100,-0.422
7.105,-0.416
7.110,-0.399
7.115,-0.379
7.120,-0.361
7.125,-0.353
7.130,-0.344
7.135,-0.328
7.140,-0.306
7.145,-0.287
7.150,-0.283
7.155,-0.269
7.160,-0.246
7.165,-0.232
7.170,-0.215
7.175,-0.193
7.180,-0.183
7.185,-0.179
7.190,-0.165
7.195,-0.148
7.200,-0.139
7.205,-0.132
7.210,-0.128
7.215,-0.120
7.220,-0.110
7.225,-0.111
7.230,-0.104
7.235,-0.092
7.240,-0.077
7.245,-0.063
7.250,-0.062
7.255,-0.048
7.260,-0.033
7.265,-0.034
7.270,-0.045
7.275,-0.045
7.280,-0.027
7.285,-0.021
7.290,-0.016
7.295,-0.001
7.300,0.006
7.305,0.006
7.310,0.003
7.315,0.000
7.320,0.005
7.325,0.005
7.330,0.006
7.335,0.016
7.340,0.031
7.345,0.038
7.350,0.035
7.355,0.033
7.360,0.034
7.365,0.036
7.370,0.038
7.375,0.040
7.380,0.048
7.385,0.057
7.390,0.057
7.395,0.056
7.400,0.058
7.405,0.054
7.410,0.050
7.415,0.048
7.420,0.045
7.425,0.049
7.430,0.048
7.435,0.049
7.440,0.056
7.445,0.058
7.450,0.059
7.455,0.058
7.460,0.057
7.465,0.056
7.470,0.057
7.475,0.057
7.480,0.051
7.485,0.041
7.490,0.044
7.495,0.052
7.500,0.046
7.505,0.044
7.510,0.049
7.515,0.056
7.520,0.064
7.525,0.062
7.530,0.059
7.535,0.061
7.540,0.062
7.545,0.061
7.550,0.057
7.555,0.064
7.560,0.082
7.565,0.094
7.570,0.102
7.575,0.102
7.580,0.092
7.585,0.078
7.590,0.070
7.595,0.067
7.600,0.057
7.605,0.048
7.610,0.048
7.615,0.044
7.620,0.031
7.625,0.015
7.630,-0.003
7.635,-0.017
7.640,-0.018
7.645,-0.010
7.650,-0.006
7.655,-0.003
7.660,0.001
7.665,0.004
7.670,0.001
7.675,-0.008
7.680,-0.006
7.685,0.001
7.690,0.005
7.695,0.005
7.700,0.006
7.705,0.010
7.710,0.015
7.715,0.024
7.720,0.033
7.725,0.026
7.730,0.013
7.735,0.011
7.740,0.016
7.745,0.029
7.750,0.029
7.755,0.018
7.760,0.018
7.765,0.011
7.770,-0.010
7.775,-0.046
7.780,-0.097
7.785,-0.106
7.790,0.013
7.795,0.239
7.800,0.476
7.805,0.666
7.810,0.809
7.815,0.759
7.820,0.448
7.825,0.166
7.830,0.028
7.835,-0.047
7.840,-0.114
7.845,-0.238
7.850,-0.334
7.855,-0.363
7.860,-0.409
7.865,-0.442
7.870,-0.424
7.875,-0.417
7.880,-0.404
7.885,-0.316
7.890,-0.193
7.895,-0.105
7.900,-0.038
7.905,0.018
7.910,0.044
7.915,0.055
7.920,0.063
7.925,0.063
7.930,0.065
7.935,0.064
7.940,0.062
7.945,0.068
7.950,0.079
7.955,0.076
7.960,0.065
7.965,0.070
7.970,0.074
7.975,0.066
7.980,0.064
7.985,0.064
7.990,0.077
7.995,0.089
8.000,0.084
8.005,0.090
8.010,0.089
8.015,0.083
8.020,0.098
8.025,0.107
8.030,0.113
8.035,0.123
8.040,0.133
8.045,0.145
8.050,0.155
8.055,0.172
8.060,0.196
8.065,0.218
8.070,0.233
8.075,0.237
8.080,0.257
8.085,0.274
8.090,0.286
8.095,0.300
8.100,0.301
8.105,0.304
8.110,0.299
8.115,0.268
8.120,0.223
8.125,0.158
8.130,0.084
8.135,0.012
8.140,-0.059
8.145,-0.126
8.150,-0.190
8.155,-0.247
8.160,-0.297
8.165,-0.349
8.170,-0.383
8.175,-0.390
8.180,-0.397
8.185,-0.410
8.190,-0.408
8.195,-0.399
8.200,-0.398
8.205,-0.390
8.210,-0.382
8.215,-0.376
8.220,-0.357
8.225,-0.336
8.230,-0.319
8.235,-0.300
8.240,-0.286
8.245,-0.277
8.250,-0.267
8.255,-0.252
8.260,-0.240
8.265,-0.227
8.270,-0.205
8.275,-0.188
8.280,-0.174
8.285,-0.164
8.290,-0.152
8.295,-0.132
8.300,-0.118
8.305,-0.111
8.310,-0.102
8.315,-0.091
8.320,-0.080
8.325,-0.071
8.330,-0.063
8.335,-0.057
8.340,-0.047
8.345,-0.035
8.350,-0.035
8.355,-0.033
8.360,-0.022
8.365,-0.015
8.370,-0.010
8.375,-0.006
8.380,-0.004
8.385,-0.001
8.390,0.000
8.395,0.002
8.400,0.002
8.405,0.002
8.410,0.004
8.415,0.006
8.420,0.009
8.425,0.016
8.430,0.026
8.435,0.032
8.440,0.037
8.445,0.043
8.450,0.040
8.455,0.038
8.460,0.042
8.465,0.043
8.470,0.048
8.475,0.052
8.480,0.051
8.485,0.053
8.490,0.061
8.495,0.068
8.500,0.066
8.505,0.065
8.510,0.070
8.515,0.069
8.520,0.064
8.525,0.063
8.530,0.070
8.535,0.076
8.540,0.079
8.545,0.076
8.550,0.067
8.555,0.068
8.560,0.074
8.565,0.074
8.570,0.078
8.575,0.083
8.580,0.088
8.585,0.094
8.590,0.095
8.595,0.096
8.600,0.095
8.605,0.097
8.610,0.102
8.615,0.103
8.620,0.103
8.625,0.107
8.630,0.115
8.635,0.119
8.640,0.117
8.645,0.112
8.650,0.104
8.655,0.101
8.660,0.097
8.665,0.092
8.670,0.085
8.675,0.071
8.680,0.062
8.685,0.055
8.690,0.047
8.695,0.033
8.700,0.016
8.705,0.012
8.710,0.012
8.715,0.009
8.720,0.007
8.725,0.009
8.730,0.013
8.735,0.013
8.740,0.013
8.745,0.017
8.750,0.016
8.755,0.019
8.760,0.020
8.765,0.014
8.770,0.016
8.775,0.021
8.780,0.026
8.785,0.025
8.790,0.023
8.795,0.027
8.800,0.024
8.805,0.026
8.810,0.032
8.815,0.036
8.820,0.034
8.825,0.028
8.830,0.023
8.835,0.007
8.840,-0.034
8.845,-0.091
8.850,-0.118
8.855,-0.036
8.860,0.173
8.865,0.439
8.870,0.657
8.875,0.817
8.880,0.857
8.885,0.620
8.890,0.292
8.895,0.087
8.900,-0.040
8.905,-0.117
8.910,-0.224
8.915,-0.331
8.920,-0.371
8.925,-0.420
8.930,-0.468
8.935,-0.464
8.940,-0.436
8.945,-0.407
8.950,-0.329
8.955,-0.199
8.960,-0.099
8.965,-0.044
8.970,0.008
8.975,0.040
8.980,0.051
8.985,0.060
8.990,0.065
8.995,0.069
9.000,0.071
9.005,0.072
9.010,0.070
9.015,0.066
9.020,0.064
9.025,0.058
9.030,0.057
9.035,0.057
9.040,0.058
9.045,0.063
9.050,0.062
9.055,0.063
9.060,0.065
9.065,0.064
9.070,0.070
9.075,0.077
9.080,0.089
9.085,0.103
9.090,0.109
9.095,0.113
9.100,0.118
9.105,0.130
9.110,0.143
9.115,0.156
9.120,0.178
9.125,0.204
9.130,0.231
9.135,0.254
9.140,0.275
9.145,0.294
9.150,0.306
9.155,0.321
9.160,0.337
9.165,0.345
9.170,0.349
9.175,0.340
9.180,0.314
9.185,0.273
9.190,0.218
9.195,0.147
9.200,0.064
9.205,-0.011
9.210,-0.081
9.215,-0.159
9.220,-0.233
9.225,-0.292
9.230,-0.334
9.235,-0.369
9.240,-0.397
9.245,-0.411
9.250,-0.419
9.255,-0.420
9.260,-0.416
9.265,-0.409
9.270,-0.396
9.275,-0.384
9.280,-0.376
9.285,-0.366
9.290,-0.350
9.295,-0.329
9.300,-0.315
9.305,-0.298
9.310,-0.278
9.315,-0.265
9.320,-0.251
9.325,-0.236
9.330,-0.218
9.335,-0.202
9.340,-0.185
9.345,-0.170
9.350,-0.167
9.355,-0.158
9.360,-0.141
9.365,-0.126
9.370,-0.112
9.375,-0.103
9.380,-0.096
9.385,-0.088
9.390,-0.081
9.395,-0.073
9.400,-0.068
9.405,-0.058
9.410,-0.046
9.415,-0.045
9.420,-0.042
9.425,-0.038
9.430,-0.034
9.435,-0.030
9.440,-0.026
9.445,-0.019
9.450,-0.015
9.455,-0.011
9.460,-0.009
9.465,-0.010
9.470,-0.004
9.475,0.002
9.480,0.003
9.485,0.003
9.490,0.004
9.495,0.015
9.500,0.018
9.505,0.018
9.510,0.023
9.515,0.028
9.520,0.036
9.525,0.039
9.530,0.037
9.535,0.035
9.540,0.038
9.545,0.040
9.550,0.038
9.555,0.046
9.560,0.053
9.565,0.049
9.570,0.046
9.575,0.047
9.580,0.050
9.585,0.050
9.590,0.048
9.595,0.053
9.600,0.055
9.605,0.057
9.610,0.059
9.615,0.056
9.620,0.057
9.625,0.056
9.630,0.057
9.635,0.060
9.640,0.061
9.645,0.063
9.650,0.062
9.655,0.062
9.660,0.064
9.665,0.064
9.670,0.065
9.675,0.061
9.680,0.063
9.685,0.069
9.690,0.075
9.695,0.082
9.700,0.078
9.705,0.077
9.710,0.081
9.715,0.076
9.720,0.073
9.725,0.082
9.730,0.097
9.735,0.102
9.740,0.099
9.745,0.097
9.750,0.086
9.755,0.078
9.760,0.070
9.765,0.061
9.770,0.063
9.775,0.055
9.780,0.043
9.785,0.030
9.790,0.017
9.795,0.009
9.800,-0.003
9.805,-0.005
9.810,-0.006
9.815,-0.011
9.820,-0.009
9.825,-0.006
9.830,-0.006
9.835,-0.006
9.840,-0.006
9.845,-0.003
9.850,-0.003
9.855,-0.002
9.860,0.000
9.865,-0.001
9.870,-0.001
9.875,0.001
9.880,0.004
9.885,0.004
9.890,0.003
9.895,0.007
9.900,0.013
9.905,0.018
9.910,0.021
9.915,0.019
9.920,0.016
9.925,0.015
9.930,0.013
9.935,0.004
9.940,-0.027
9.945,-0.084
9.950,-0.131
9.955,-0.089
9.960,0.082
9.965,0.335
9.970,0.576
9.975,0.752
9.980,0.854
9.985,0.718
9.990,0.390
9.995,0.138
10.000,-0.021
10.005,-0.111
10.010,-0.202
10.015,-0.323
10.020,-0.373
10.025,-0.410
10.030,-0.480
10.035,-0.508
10.040,-0.480
10.045,-0.438
10.050,-0.365
10.055,-0.235
10.060,-0.114
10.065,-0.046
10.070,0.003
10.075,0.036
10.080,0.052
10.085,0.060
10.090,0.064
10.095,0.069
10.100,0.075
10.105,0.079
10.110,0.076
10.115,0.069
10.120,0.068
10.125,0.063
10.130,0.060
10.135,0.064
10.140,0.067
10.145,0.066
10.150,0.059
10.155,0.058
10.160,0.065
10.165,0.067
10.170,0.071
10.175,0.076
10.180,0.082
10.185,0.088
10.190,0.096
10.195,0.108
10.200,0.115
10.205,0.128
10.210,0.147
10.215,0.159
10.220,0.177
10.225,0.198
10.230,0.220
10.235,0.245
10.240,0.268
10.245,0.286
10.250,0.303
10.255,0.320
10.260,0.334
10.265,0.345
10.270,0.354
10.275,0.354
10.280,0.339
10.285,0.301
10.290,0.246
10.295,0.188
10.300,0.117
10.305,0.040
10.310,-0.043
10.315,-0.127
10.320,-0.191
10.325,-0.242
10.330,-0.290
10.335,-0.333
10.340,-0.367
10.345,-0.394
10.350,-0.417
10.355,-0.420
10.360,-0.413
10.365,-0.410
10.370,-0.401
10.375,-0.396
10.380,-0.387
10.385,-0.372
10.390,-0.357
10.395,-0.336
10.400,-0.318
10.405,-0.302
10.410,-0.286
10.415,-0.277
10.420,-0.262
10.425,-0.245
10.430,-0.225
10.435,-0.207
10.440,-0.192
10.445,-0.181
10.450,-0.178
10.455,-0.165
10.460,-0.142
10.465,-0.127
10.470,-0.118
10.475,-0.110
10.480,-0.100
10.485,-0.096
10.490,-0.093
10.495,-0.085
10.500,-0.079
10.505,-0.068
10.510,-0.058
10.515,-0.050
10.520,-0.040
10.525,-0.037
10.530,-0.035
10.535,-0.036
10.540,-0.038
10.545,-0.025
10.550,-0.014
10.555,-0.006
10.560,-0.003
10.565,-0.009
10.570,-0.005
10.575,0.002
10.580,0.002
10.585,0.004
10.590,0.011
10.595,0.022
10.600,0.025
10.605,0.024
10.610,0.026
10.615,0.030
10.620,0.034
10.625,0.037
10.630,0.042
10.635,0.046
10.640,0.051
10.645,0.051
10.650,0.046
10.655,0.052
10.660,0.057
10.665,0.054
10.670,0.058
10.675,0.057
10.680,0.057
10.685,0.063
10.690,0.062
10.695,0.066
10.700,0.071
10.705,0.068
10.710,0.068
10.715,0.063
10.720,0.060
10.725,0.064
10.730,0.068
10.735,0.072
10.740,0.074
10.745,0.068
10.750,0.054
10.755,0.050
10.760,0.063
10.765,0.076
10.770,0.082
10.775,0.082
10.780,0.078
10.785,0.072
10.790,0.068
10.795,0.069
10.800,0.067
10.805,0.074
10.810,0.087
10.815,0.093
10.820,0.109
10.825,0.118
10.830,0.107
10.835,0.089
10.840,0.077
10.845,0.084
10.850,0.090
10.855,0.083
10.860,0.070
10.865,0.051
10.870,0.039
10.875,0.031
10.880,0.019
10.885,0.006
10.890,-0.007
10.895,-0.019
10.900,-0.014
10.905,-0.006
10.910,-0.009
10.915,-0.013
10.920,-0.007
10.925,-0.001
10.930,0.003
10.935,0.002
10.940,-0.003
10.945,-0.004
10.950,-0.004
10.955,0.005
10.960,0.013
10.965,0.010
10.970,0.011
10.975,0.010
10.980,0.004
10.985,0.004
10.990,0.014
10.995,0.028
11.000,0.021
11.005,0.010
11.010,0.012
11.015,0.008
11.020,0.001
11.025,-0.018
11.030,-0.059
11.035,-0.097
11.040,-0.088
11.045,0.032
11.050,0.258
11.055,0.498
11.060,0.679
11.065,0.801
11.070,0.728
11.075,0.420
11.080,0.152
11.085,0.008
11.090,-0.066
11.095,-0.126
11.100,-0.242
11.105,-0.328
11.110,-0.366
11.115,-0.417
11.120,-0.445
11.125,-0.433
11.130,-0.425
11.135,-0.401
11.140,-0.306
11.145,-0.188
11.150,-0.106
11.155,-0.035
11.160,0.021
11.165,0.035
11.170,0.048
11.175,0.068
11.180,0.069
11.185,0.065
11.190,0.067
11.195,0.068
11.200,0.060
11.205,0.068
11.210,0.081
11.215,0.073
11.220,0.071
11.225,0.072
11.230,0.066
11.235,0.066
11.240,0.073
11.245,0.078
11.250,0.083
11.255,0.081
11.260,0.085
11.265,0.091
11.270,0.097
11.275,0.112
11.280,0.120
11.285,0.122
11.290,0.124
11.295,0.136
11.300,0.152
11.305,0.169
11.310,0.191
11.315,0.205
11.320,0.218
11.325,0.233
11.330,0.253
11.335,0.276
11.340,0.288
11.345,0.296
11.350,0.310
11.355,0.325
11.360,0.321
11.365,0.297
11.370,0.274
11.375,0.242
11.380,0.181
11.385,0.100
11.390,0.023
11.395,-0.042
11.400,-0.109
11.405,-0.178
11.410,-0.238
11.415,-0.287
11.420,-0.317
11.425,-0.342
11.430,-0.369
11.435,-0.382
11.440,-0.387
11.445,-0.383
11.450,-0.382
11.455,-0.386
11.460,-0.375
11.465,-0.366
11.470,-0.357
11.475,-0.336
11.480,-0.317
11.485,-0.300
11.490,-0.285
11.495,-0.273
11.500,-0.261
11.505,-0.245
11.510,-0.229
11.515,-0.223
11.520,-0.218
11.525,-0.205
11.530,-0.176
11.535,-0.149
11.540,-0.135
11.545,-0.128
11.550,-0.123
11.555,-0.100
11.560,-0.096
11.565,-0.114
11.570,-0.103
11.575,-0.083
11.580,-0.067
11.585,-0.056
11.590,-0.061
11.595,-0.052
11.600,-0.034
11.605,-0.027
11.610,-0.027
11.615,-0.023
11.620,-0.011
11.625,-0.007
11.630,-0.009
11.635,-0.014
11.640,-0.012
11.645,-0.004
11.650,-0.011
11.655,-0.010
11.660,0.008
11.665,0.017
11.670,0.019
11.675,0.013
11.680,0.008
11.685,0.011
11.690,0.018
11.695,0.031
11.700,0.039
11.705,0.037
11.710,0.029
11.715,0.027
11.720,0.031
11.725,0.031
11.730,0.032
11.735,0.036
11.740,0.043
11.745,0.034
11.750,0.023
11.755,0.039
11.760,0.049
11.765,0.037
11.770,0.032
11.775,0.041
11.780,0.056
11.785,0.048
11.790,0.029
11.795,0.033
11.800,0.041
11.805,0.046
11.810,0.053
11.815,0.060
11.820,0.069
11.825,0.074
11.830,0.075
11.835,0.071
11.840,0.067
11.845,0.075
11.850,0.091
11.855,0.098
11.860,0.098
11.865,0.092
11.870,0.086
11.875,0.093
11.880,0.095
11.885,0.080
11.890,0.073
11.895,0.074
11.900,0.057
11.905,0.041
11.910,0.033
11.915,0.019
11.920,0.014
11.925,0.011
11.930,0.004
11.935,0.014
11.940,0.014
11.945,-0.003
11.950,-0.009
11.955,-0.003
11.960,0.001
11.965,0.002
11.970,0.008
11.975,0.011
11.980,0.018
11.985,0.022
11.990,0.019
11.995,0.018
12.000,0.008
12.005,0.008
12.010,0.017
12.015,0.015
12.020,0.021
12.025,0.025
12.030,0.021
12.035,0.019
12.040,0.012
12.045,0.018
12.050,0.021
12.055,0.008
12.060,-0.023
12.065,-0.083
12.070,-0.126
12.075,-0.087
12.080,0.072
12.085,0.320
12.090,0.555
12.095,0.729
12.100,0.831
12.105,0.696
12.110,0.355
12.115,0.103
12.120,-0.020
12.125,-0.086
12.130,-0.170
12.135,-0.300
12.140,-0.365
12.145,-0.389
12.150,-0.442
12.155,-0.467
12.160,-0.447
12.165,-0.433
12.170,-0.391
12.175,-0.283
12.180,-0.170
12.185,-0.097
12.190,-0.032
12.195,0.017
12.200,0.029
12.205,0.043
12.210,0.052
12.215,0.048
12.220,0.066
12.225,0.078
12.230,0.072
12.235,0.074
12.240,0.080
12.245,0.088
12.250,0.083
12.255,0.077
12.260,0.079
12.265,0.077
12.270,0.082
12.275,0.090
12.280,0.095
12.285,0.101
12.290,0.107
12.295,0.114
12.300,0.116
12.305,0.122
12.310,0.134
12.315,0.139
12.320,0.149
12.325,0.159
12.330,0.168
12.335,0.185
12.340,0.201
12.345,0.215
12.350,0.229
12.355,0.251
12.360,0.273
12.365,0.288
12.370,0.304
12.375,0.315
12.380,0.327
12.385,0.339
12.390,0.345
12.395,0.346
12.400,0.324
12.405,0.283
12.410,0.230
12.415,0.161
12.420,0.085
12.425,0.010
12.430,-0.067
12.435,-0.141
12.440,-0.204
12.445,-0.253
12.450,-0.302
12.455,-0.342
12.460,-0.369
12.465,-0.385
12.470,-0.390
12.475,-0.393
12.480,-0.395
12.485,-0.389
12.490,-0.383
12.495,-0.371
12.500,-0.354
12.505,-0.337
12.510,-0.324
12.515,-0.315
12.520,-0.300
12.525,-0.282
12.530,-0.267
12.535,-0.253
12.540,-0.241
12.545,-0.226
12.550,-0.212
12.555,-0.191
12.560,-0.171
12.565,-0.157
12.570,-0.143
12.575,-0.135
12.580,-0.124
12.585,-0.112
12.590,-0.102
12.595,-0.091
12.600,-0.083
12.605,-0.064
12.610,-0.047
12.615,-0.045
12.620,-0.042
12.625,-0.032
12.630,-0.023
12.635,-0.015
12.640,-0.013
12.645,-0.011
12.650,-0.004
12.655,0.010
12.660,0.016
12.665,0.009
12.670,0.008
12.675,0.012
12.680,0.017
12.685,0.018
12.690,0.015
12.695,0.015
12.700,0.017
12.705,0.021
12.710,0.029
12.715,0.028
12.720,0.029
12.725,0.033
12.730,0.031
12.735,0.027
12.740,0.031
12.745,0.039
12.750,0.040
12.755,0.042
12.760,0.049
12.765,0.046
12.770,0.042
12.775,0.043
12.780,0.045
12.785,0.049
12.790,0.053
12.795,0.059
12.800,0.060
12.805,0.059
12.810,0.056
12.815,0.053
12.820,0.056
12.825,0.057
12.830,0.056
12.835,0.058
12.840,0.057
12.845,0.059
12.850,0.060
12.855,0.062
12.860,0.063
12.865,0.059
12.870,0.059
12.875,0.060
12.880,0.060
12.885,0.065
12.890,0.073
12.895,0.078
12.900,0.076
12.905,0.073
12.910,0.076
12.915,0.079
12.920,0.085
12.925,0.088
12.930,0.091
12.935,0.096
12.940,0.098
12.945,0.097
12.950,0.087
12.955,0.081
12.960,0.080
12.965,0.074
12.970,0.073
12.975,0.068
12.980,0.052
12.985,0.036
12.990,0.019
12.995,0.007
13.000,-0.002
13.005,-0.007
13.010,-0.005
13.015,-0.008
13.020,-0.010
13.025,-0.014
13.030,-0.016
13.035,-0.015
13.040,-0.013
13.045,-0.008
13.050,-0.008
13.055,-0.005
13.060,0.001
13.065,-0.002
13.070,-0.002
13.075,-0.005
13.080,-0.005
13.085,0.005
13.090,0.010
13.095,0.010
13.100,0.005
13.105,0.003
13.110,0.008
13.115,0.011
13.120,0.012
13.125,0.011
13.130,0.007
13.135,0.001
13.140,-0.022
13.145,-0.074
13.150,-0.131
13.155,-0.120
13.160,0.015
13.165,0.250
13.170,0.510
13.175,0.708
13.180,0.848
13.185,0.798
13.190,0.487
13.195,0.198
13.200,0.024
13.205,-0.084
13.210,-0.172
13.215,-0.300
13.220,-0.372
13.225,-0.397
13.230,-0.457
13.235,-0.501
13.240,-0.485
13.245,-0.447
13.250,-0.394
13.255,-0.278
13.260,-0.143
13.265,-0.065
13.270,-0.015
13.275,0.024
13.280,0.036
13.285,0.046
13.290,0.058
13.295,0.062
13.300,0.063
13.305,0.068
13.310,0.078
13.315,0.080
13.320,0.076
13.325,0.066
13.330,0.056
13.335,0.058
13.340,0.062
13.345,0.060
13.350,0.059
13.355,0.064
13.360,0.071
13.365,0.064
13.370,0.064
13.375,0.074
13.380,0.081
13.385,0.087
13.390,0.092
13.395,0.104
13.400,0.117
13.405,0.134
13.410,0.151
13.415,0.159
13.420,0.175
13.425,0.196
13.430,0.216
13.435,0.244
13.440,0.268
13.445,0.289
13.450,0.306
13.455,0.324
13.460,0.340
13.465,0.352
13.470,0.365
13.475,0.363
13.480,0.345
13.485,0.312
13.490,0.260
13.495,0.199
13.500,0.124
13.505,0.043
13.510,-0.035
13.515,-0.116
13.520,-0.191
13.525,-0.253
13.530,-0.306
13.535,-0.349
13.540,-0.379
13.545,-0.399
13.550,-0.414
13.555,-0.422
13.560,-0.422
13.565,-0.420
13.570,-0.412
13.575,-0.401
13.580,-0.387
13.585,-0.374
13.590,-0.362
13.595,-0.346
13.600,-0.330
13.605,-0.312
13.610,-0.294
13.615,-0.281
13.620,-0.260
13.625,-0.240
13.630,-0.230
13.635,-0.216
13.640,-0.197
13.645,-0.179
13.650,-0.169
13.655,-0.159
13.660,-0.147
13.665,-0.140
13.670,-0.131
13.675,-0.118
13.680,-0.107
13.685,-0.096
13.690,-0.089
13.695,-0.081
13.700,-0.073
13.705,-0.067
13.710,-0.060
13.715,-0.057
13.720,-0.050
13.725,-0.044
13.730,-0.041
13.735,-0.033
13.740,-0.026
13.745,-0.022
13.750,-0.022
13.755,-0.018
13.760,-0.009
13.765,-0.009
13.770,-0.005
13.775,0.004
13.780,0.007
13.785,0.005
13.790,0.005
13.795,0.009
13.800,0.014
13.805,0.019
13.810,0.024
13.815,0.024
13.820,0.028
13.825,0.032
13.830,0.035
13.835,0.038
13.840,0.038
13.845,0.038
13.850,0.038
13.855,0.044
13.860,0.049
13.865,0.047
13.870,0.050
13.875,0.055
13.880,0.056
13.885,0.056
13.890,0.054
13.895,0.056
13.900,0.059
13.905,0.059
13.910,0.059
13.915,0.058
13.920,0.060
13.925,0.058
13.930,0.055
13.935,0.060
13.940,0.062
13.945,0.061
13.950,0.058
13.955,0.057
13.960,0.059
13.965,0.056
13.970,0.057
13.975,0.063
13.980,0.070
13.985,0.078
13.990,0.078
13.995,0.077
14.000,0.077
14.005,0.078
14.010,0.083
14.015,0.079
14.020,0.082
14.025,0.095
14.030,0.100
14.035,0.098
14.040,0.093
14.045,0.087
14.050,0.082
14.055,0.075
14.060,0.070
14.065,0.066
14.070,0.061
14.075,0.050
14.080,0.032
14.085,0.020
14.090,0.011
14.095,0.003
14.100,-0.004
14.105,-0.008
14.110,-0.004
14.115,-0.001
14.120,0.003
14.125,0.005
14.130,0.000
14.135,0.000
14.140,0.002
14.145,0.004
14.150,0.003
14.155,0.001
14.160,0.005
14.165,0.007
14.170,0.010
14.175,0.014
14.180,0.011
14.185,0.008
14.190,0.008
14.195,0.010
14.200,0.010
14.205,0.014
14.210,0.016
14.215,0.012
14.220,0.014
14.225,0.015
14.230,0.005
14.235,-0.018
14.240,-0.072
14.245,-0.123
14.250,-0.103
14.255,0.042
14.260,0.289
14.265,0.532
14.270,0.714
14.275,0.833
14.280,0.730
14.285,0.408
14.290,0.150
14.295,0.006
14.300,-0.081
14.305,-0.174
14.310,-0.298
14.315,-0.368
14.320,-0.407
14.325,-0.470
14.330,-0.503
14.335,-0.477
14.340,-0.433
14.345,-0.356
14.350,-0.228
14.355,-0.111
14.360,-0.041
14.365,0.003
14.370,0.038
14.375,0.057
14.380,0.070
14.385,0.079
14.390,0.077
14.395,0.073
14.400,0.078
14.405,0.085
14.410,0.083
14.415,0.078
14.420,0.078
14.425,0.072
14.430,0.067
14.435,0.072
14.440,0.078
14.445,0.082
14.450,0.075
14.455,0.070
14.460,0.075
14.465,0.076
14.470,0.082
14.475,0.095
14.480,0.102
14.485,0.106
14.490,0.109
14.495,0.116
14.500,0.131
14.505,0.144
14.510,0.162
14.515,0.178
14.520,0.197
14.525,0.221
14.530,0.243
14.535,0.261
14.540,0.284
14.545,0.309
14.550,0.324
14.555,0.339
14.560,0.353
14.565,0.351
14.570,0.347
14.575,0.329
14.580,0.291
14.585,0.247
14.590,0.187
14.595,0.117
14.600,0.042
14.605,-0.042
14.610,-0.126
14.615,-0.206
14.620,-0.264
14.625,-0.305
14.630,-0.347
14.635,-0.374
14.640,-0.396
14.645,-0.414
14.650,-0.416
14.655,-0.412
14.660,-0.406
14.665,-0.400
14.670,-0.390
14.675,-0.378
14.680,-0.364
14.685,-0.351
14.690,-0.331
14.695,-0.302
14.700,-0.287
14.705,-0.283
14.710,-0.274
14.715,-0.260
14.720,-0.236
14.725,-0.208
14.730,-0.189
14.735,-0.180
14.740,-0.176
14.745,-0.172
14.750,-0.168
14.755,-0.152
14.760,-0.130
14.765,-0.117
14.770,-0.102
14.775,-0.098
14.780,-0.100
14.785,-0.090
14.790,-0.081
14.795,-0.074
14.800,-0.067
14.805,-0.061
14.810,-0.054
14.815,-0.047
14.820,-0.038
14.825,-0.029
14.830,-0.022
14.835,-0.019
14.840,-0.015
14.845,-0.005
14.850,-0.006
14.855,-0.006
14.860,0.004
14.865,0.003
14.870,0.002
14.875,0.004
14.880,0.003
14.885,0.010
14.890,0.023
14.895,0.030
14.900,0.026
14.905,0.020
14.910,0.023
14.915,0.033
14.920,0.053
14.925,0.065
14.930,0.050
14.935,0.033
14.940,0.030
14.945,0.038
14.950,0.049
14.955,0.058
14.960,0.061
14.965,0.066
14.970,0.067
14.975,0.058
14.980,0.049
14.985,0.046
14.990,0.047
14.995,0.050
15.000,0.052
15.005,0.061
15.010,0.066
15.015,0.059
15.020,0.060
15.025,0.061
15.030,0.059
15.035,0.062
15.040,0.060
15.045,0.061
15.050,0.063
15.055,0.071
15.060,0.089
15.065,0.093
15.070,0.083
15.075,0.072
15.080,0.066
15.085,0.064
15.090,0.066
15.095,0.078
15.100,0.092
15.105,0.108
15.110,0.115
15.115,0.100
15.120,0.089
15.125,0.083
15.130,0.073
15.135,0.070
15.140,0.066
15.145,0.054
15.150,0.046
15.155,0.045
15.160,0.039
15.165,0.021
15.170,0.006
15.175,-0.011
15.180,-0.016
15.185,-0.008
15.190,-0.005
15.195,0.003
15.200,0.007
15.205,0.002
15.210,0.003
15.215,0.003
15.220,0.004
15.225,0.009
15.230,0.003
15.235,-0.001
15.240,0.004
15.245,0.010
15.250,0.013
15.255,0.016
15.260,0.015
15.265,0.009
15.270,0.007
15.275,0.013
15.280,0.021
15.285,0.025
15.290,0.026
15.295,0.026
15.300,0.017
15.305,0.000
15.310,-0.031
15.315,-0.076
15.320,-0.102
15.325,-0.067
15.330,0.079
15.335,0.317
15.340,0.543
15.345,0.716
15.350,0.807
15.355,0.639
15.360,0.306
15.365,0.099
15.370,0.007
15.375,-0.045
15.380,-0.132
15.385,-0.264
15.390,-0.329
15.395,-0.356
15.400,-0.405
15.405,-0.431
15.410,-0.426
15.415,-0.433
15.420,-0.383
15.425,-0.266
15.430,-0.165
15.435,-0.085
15.440,-0.016
15.445,0.022
15.450,0.033
15.455,0.050
15.460,0.070
15.465,0.066
15.470,0.063
15.475,0.068
15.480,0.067
15.485,0.070
15.490,0.077
15.495,0.083
15.500,0.082
15.505,0.074
15.510,0.073
15.515,0.071
15.520,0.076
15.525,0.081
15.530,0.078
15.535,0.076
15.540,0.079
15.545,0.085
15.550,0.091
15.555,0.103
15.560,0.118
15.565,0.120
15.570,0.118
15.575,0.121
15.580,0.132
15.585,0.154
15.590,0.172
15.595,0.186
15.600,0.207
15.605,0.230
15.610,0.246
15.615,0.255
15.620,0.273
15.625,0.296
15.630,0.303
15.635,0.306
15.640,0.319
15.645,0.319
15.650,0.293
15.655,0.254
15.660,0.202
15.665,0.134
15.670,0.064
15.675,-0.006
15.680,-0.084
15.685,-0.155
15.690,-0.217
15.695,-0.267
15.700,-0.301
15.705,-0.338
15.710,-0.372
15.715,-0.386
15.720,-0.394
15.725,-0.397
15.730,-0.398
15.735,-0.396
15.740,-0.384
15.745,-0.367
15.750,-0.361
15.755,-0.351
15.760,-0.332
15.765,-0.323
15.770,-0.307
15.775,-0.290
15.780,-0.277
15.785,-0.257
15.790,-0.247
15.795,-0.237
15.800,-0.218
15.805,-0.204
15.810,-0.194
15.815,-0.187
15.820,-0.174
15.825,-0.156
15.830,-0.142
15.835,-0.129
15.840,-0.119
15.845,-0.115
15.850,-0.114
15.855,-0.103
15.860,-0.083
15.865,-0.074
15.870,-0.067
15.875,-0.062
15.880,-0.058
15.885,-0.045
15.890,-0.036
15.895,-0.031
15.900,-0.026
15.905,-0.025
15.910,-0.025
15.915,-0.022
15.920,-0.014
15.925,-0.011
15.930,-0.014
15.935,-0.012
15.940,-0.007
15.945,-0.002
15.950,-0.007
15.955,-0.008
15.960,0.002
15.965,0.006
15.970,0.016
15.975,0.025
15.980,0.020
15.985,0.019
15.990,0.026
15.995,0.032
16.000,0.033
16.005,0.031
16.010,0.038
16.015,0.043
16.020,0.047
16.025,0.050
16.030,0.046
16.035,0.054
16.040,0.063
16.045,0.061
16.050,0.055
16.055,0.047
16.060,0.046
16.065,0.050
16.070,0.057
16.075,0.065
16.080,0.062
16.085,0.059
16.090,0.062
16.095,0.066
16.100,0.070
16.105,0.073
16.110,0.075
16.115,0.076
16.120,0.079
16.125,0.081
16.130,0.078
16.135,0.076
16.140,0.086
16.145,0.104
16.150,0.113
16.155,0.116
16.160,0.108
16.165,0.086
16.170,0.085
16.175,0.094
16.180,0.088
16.185,0.079
16.190,0.062
16.195,0.050
16.200,0.047
16.205,0.042
16.210,0.037
16.215,0.023
16.220,0.008
16.225,0.004
16.230,0.010
16.235,0.018
16.240,0.020
16.245,0.022
16.250,0.026
16.255,0.029
16.260,0.031
16.265,0.030
16.270,0.035
16.275,0.037
16.280,0.029
16.285,0.031
16.290,0.041
16.295,0.051
16.300,0.045
16.305,0.037
16.310,0.041
16.315,0.040
16.320,0.040
16.325,0.042
16.330,0.041
16.335,0.044
16.340,0.040
16.345,0.034
16.350,0.031
16.355,0.012
16.360,-0.033
16.365,-0.087
16.370,-0.084
16.375,0.030
16.380,0.250
16.385,0.504
16.390,0.702
16.395,0.845
16.400,0.820
16.405,0.528
16.410,0.231
16.415,0.065
16.420,-0.023
16.425,-0.096
16.430,-0.223
16.435,-0.317
16.440,-0.346
16.445,-0.389
16.450,-0.432
16.455,-0.422
16.460,-0.397
16.465,-0.378
16.470,-0.298
16.475,-0.181
16.480,-0.099
16.485,-0.036
16.490,0.015
16.495,0.040
16.500,0.058
16.505,0.073
16.510,0.073
16.515,0.065
16.520,0.068
16.525,0.071
16.530,0.070
16.535,0.081
16.540,0.082
16.545,0.067
16.550,0.063
16.555,0.064
16.560,0.065
16.565,0.063
16.570,0.063
16.575,0.072
16.580,0.078
16.585,0.081
16.590,0.087
16.595,0.098
16.600,0.106
16.605,0.110
16.610,0.119
16.615,0.127
16.620,0.134
16.625,0.149
16.630,0.163
16.635,0.180
16.640,0.200
16.645,0.218
16.650,0.237
16.655,0.256
16.660,0.275
16.665,0.290
16.670,0.310
16.675,0.330
16.680,0.337
16.685,0.342
16.690,0.339
16.695,0.323
16.700,0.292
16.705,0.240
16.710,0.175
16.715,0.094
16.720,0.011
16.725,-0.066
16.730,-0.143
16.735,-0.208
16.740,-0.263
16.745,-0.314
16.750,-0.357
16.755,-0.386
16.760,-0.403
16.765,-0.420
16.770,-0.427
16.775,-0.424
16.780,-0.417
16.785,-0.399
16.790,-0.388
16.795,-0.384
16.800,-0.372
16.805,-0.359
16.810,-0.342
16.815,-0.329
16.820,-0.312
16.825,-0.289
16.830,-0.272
16.835,-0.254
16.840,-0.242
16.845,-0.231
16.850,-0.217
16.855,-0.203
16.860,-0.188
16.865,-0.176
16.870,-0.164
16.875,-0.151
16.880,-0.141
16.885,-0.128
16.890,-0.118
16.895,-0.110
16.900,-0.100
16.905,-0.085
16.910,-0.071
16.915,-0.070
16.920,-0.068
16.925,-0.059
16.930,-0.051
16.935,-0.042
16.940,-0.036
16.945,-0.029
16.950,-0.024
16.955,-0.023
16.960,-0.020
16.965,-0.016
16.970,-0.010
16.975,-0.006
16.980,-0.008
16.985,-0.005
16.990,0.001
16.995,0.004
17.000,0.006
17.005,0.011
17.010,0.018
17.015,0.020
17.020,0.018
17.025,0.018
17.030,0.018
17.035,0.023
17.040,0.031
17.045,0.036
17.050,0.035
17.055,0.033
17.060,0.037
17.065,0.038
17.070,0.044
17.075,0.046
17.080,0.040
17.085,0.043
17.090,0.048
17.095,0.051
17.100,0.051
17.105,0.047
17.110,0.049
17.115,0.050
17.120,0.055
17.125,0.061
17.130,0.057
17.135,0.055
17.140,0.056
17.145,0.056
17.150,0.061
17.155,0.068
17.160,0.074
17.165,0.074
17.170,0.079
17.175,0.087
17.180,0.079
17.185,0.071
17.190,0.071
17.195,0.082
17.200,0.098
17.205,0.107
17.210,0.108
17.215,0.097
17.220,0.086
17.225,0.084
17.230,0.076
17.235,0.072
17.240,0.070
17.245,0.061
17.250,0.053
17.255,0.045
17.260,0.035
17.265,0.014
17.270,-0.006
17.275,-0.012
17.280,-0.012
17.285,-0.004
17.290,-0.002
17.295,-0.003
17.300,-0.002
17.305,-0.001
17.310,0.001
17.315,0.002
17.320,0.003
17.325,0.006
17.330,0.005
17.335,0.008
17.340,0.013
17.345,0.016
17.350,0.018
17.355,0.017
17.360,0.016
17.365,0.018
17.370,0.022
17.375,0.029
17.380,0.028
17.385,0.023
17.390,0.019
17.395,0.012
17.400,0.005
17.405,-0.008
17.410,-0.047
17.415,-0.103
17.420,-0.117
17.425,-0.029
17.430,0.173
17.435,0.437
17.440,0.657
17.445,0.822
17.450,0.850
17.455,0.601
17.460,0.286
17.465,0.092
17.470,-0.023
17.475,-0.101
17.480,-0.223
17.485,-0.327
17.490,-0.364
17.495,-0.412
17.500,-0.463
17.505,-0.456
17.510,-0.423
17.515,-0.394
17.520,-0.307
17.525,-0.177
17.530,-0.088
17.535,-0.032
17.540,0.015
17.545,0.041
17.550,0.049
17.555,0.054
17.560,0.054
17.565,0.052
17.570,0.060
17.575,0.064
17.580,0.059
17.585,0.061
17.590,0.065
17.595,0.064
17.600,0.059
17.605,0.052
17.610,0.052
17.615,0.050
17.620,0.050
17.625,0.051
17.630,0.052
17.635,0.057
17.640,0.058
17.645,0.060
17.650,0.064
17.655,0.070
17.660,0.080
17.665,0.087
17.670,0.098
17.675,0.110
17.680,0.117
17.685,0.136
17.690,0.162
17.695,0.184
17.700,0.203
17.705,0.226
17.710,0.251
17.715,0.273
17.720,0.296
17.725,0.316
17.730,0.325
17.735,0.335
17.740,0.343
17.745,0.337
17.750,0.309
17.755,0.259
17.760,0.201
17.765,0.125
17.770,0.041
17.775,-0.036
17.780,-0.109
17.785,-0.172
17.790,-0.230
17.795,-0.283
17.800,-0.321
17.805,-0.350
17.810,-0.367
17.815,-0.376
17.820,-0.380
17.825,-0.381
17.830,-0.377
17.835,-0.363
17.840,-0.356
17.845,-0.349
17.850,-0.336
17.855,-0.317
17.860,-0.297
17.865,-0.285
17.870,-0.266
17.875,-0.246
17.880,-0.237
17.885,-0.221
17.890,-0.200
17.895,-0.185
17.900,-0.176
17.905,-0.164
17.910,-0.144
17.915,-0.130
17.920,-0.119
17.925,-0.106
17.930,-0.100
17.935,-0.091
17.940,-0.084
17.945,-0.080
17.950,-0.070
17.955,-0.060
17.960,-0.050
17.965,-0.046
17.970,-0.042
17.975,-0.030
17.980,-0.031
17.985,-0.039
17.990,-0.036
17.995,-0.028
18.000,-0.023
18.005,-0.019
18.010,-0.014
18.015,-0.006
18.020,0.002
18.025,0.007
18.030,0.003
18.035,0.004
18.040,0.007
18.045,0.007
18.050,0.012
18.055,0.012
18.060,0.013
18.065,0.013
18.070,0.016
18.075,0.022
18.080,0.027
18.085,0.034
18.090,0.031
18.095,0.026
18.100,0.026
18.105,0.027
18.110,0.032
18.115,0.034
18.120,0.038
18.125,0.040
18.130,0.033
18.135,0.036
18.140,0.039
18.145,0.032
18.150,0.027
18.155,0.027
18.160,0.033
18.165,0.036
18.170,0.039
18.175,0.038
18.180,0.031
18.185,0.034
18.190,0.046
18.195,0.056
18.200,0.059
18.205,0.061
18.210,0.066
18.215,0.071
18.220,0.076
18.225,0.077
18.230,0.077
18.235,0.088
18.240,0.100
18.245,0.105
18.250,0.100
18.255,0.087
18.260,0.079
18.265,0.072
18.270,0.067
18.275,0.063
18.280,0.051
18.285,0.044
18.290,0.036
18.295,0.025
18.300,0.010
18.305,-0.008
18.310,-0.017
18.315,-0.025
18.320,-0.029
18.325,-0.029
18.330,-0.028
18.335,-0.021
18.340,-0.016
18.345,-0.016
18.350,-0.019
18.355,-0.018
18.360,-0.013
18.365,-0.015
18.370,-0.013
18.375,-0.007
18.380,-0.007
18.385,-0.004
18.390,0.000
18.395,0.003
18.400,0.007
18.405,0.012
18.410,0.018
18.415,0.021
18.420,0.021
18.425,0.018
18.430,0.015
18.435,0.014
18.440,-0.005
18.445,-0.053
18.450,-0.106
18.455,-0.104
18.460,0.008
18.465,0.224
18.470,0.480
18.475,0.682
18.480,0.821
18.485,0.793
18.490,0.509
18.495,0.222
18.500,0.054
18.505,-0.045
18.510,-0.122
18.515,-0.249
18.520,-0.333
18.525,-0.357
18.530,-0.411
18.535,-0.454
18.540,-0.444
18.545,-0.420
18.550,-0.376
18.555,-0.272
18.560,-0.146
18.565,-0.064
18.570,-0.009
18.575,0.040
18.580,0.061
18.585,0.071
18.590,0.077
18.595,0.076
18.600,0.080
18.605,0.088
18.610,0.092
18.615,0.083
18.620,0.080
18.625,0.083
18.630,0.081
18.635,0.082
18.640,0.082
18.645,0.082
18.650,0.083
18.655,0.083
18.660,0.085
18.665,0.083
18.670,0.090
18.675,0.103
18.680,0.104
18.685,0.108
18.690,0.114
18.695,0.119
18.700,0.134
18.705,0.150
18.710,0.165
18.715,0.178
18.720,0.191
18.725,0.210
18.730,0.232
18.735,0.258
18.740,0.280
18.745,0.294
18.750,0.311
18.755,0.330
18.760,0.348
18.765,0.360
18.770,0.368
18.775,0.368
18.780,0.349
18.785,0.313
18.790,0.260
18.795,0.191
18.800,0.116
18.805,0.037
18.810,-0.041
18.815,-0.119
18.820,-0.189
18.825,-0.245
18.830,-0.297
18.835,-0.339
18.840,-0.367
18.845,-0.386
18.850,-0.399
18.855,-0.406
18.860,-0.404
18.865,-0.401
18.870,-0.391
18.875,-0.380
18.880,-0.375
18.885,-0.362
18.890,-0.347
18.895,-0.334
18.900,-0.319
18.905,-0.303
18.910,-0.283
18.915,-0.265
18.920,-0.247
18.925,-0.227
18.930,-0.215
18.935,-0.203
18.940,-0.190
18.945,-0.177
18.950,-0.159
18.955,-0.148
18.960,-0.144
18.965,-0.137
18.970,-0.122
18.975,-0.107
18.980,-0.098
18.985,-0.088
18.990,-0.077
18.995,-0.071
19.000,-0.071
19.005,-0.067
19.010,-0.058
19.015,-0.054
19.020,-0.048
19.025,-0.037
19.030,-0.031
19.035,-0.024
19.040,-0.019
19.045,-0.015
19.050,-0.011
19.055,-0.012
19.060,-0.008
19.065,-0.004
19.070,0.002
19.075,0.007
19.080,0.002
19.085,0.003
19.090,0.009
19.095,0.012
19.100,0.013
19.105,0.016
19.110,0.024
19.115,0.030
19.120,0.035
19.125,0.038
19.130,0.034
19.135,0.031
19.140,0.032
19.145,0.036
19.150,0.040
19.155,0.041
19.160,0.043
19.165,0.044
19.170,0.045
19.175,0.048
19.180,0.045
19.185,0.047
19.190,0.050
19.195,0.048
19.200,0.051
19.205,0.055
19.210,0.058
19.215,0.056
19.220,0.055
19.225,0.056
19.230,0.057
19.235,0.062
19.240,0.059
19.245,0.051
19.250,0.053
19.255,0.062
19.260,0.068
19.265,0.069
19.270,0.072
19.275,0.076
19.280,0.071
19.285,0.070
19.290,0.076
19.295,0.086
19.300,0.099
19.305,0.106
19.310,0.108
19.315,0.099
19.320,0.087
19.325,0.083
19.330,0.076
19.335,0.069
19.340,0.069
19.345,0.066
19.350,0.058
19.355,0.041
19.360,0.024
19.365,0.013
19.370,0.006
19.375,0.001
19.380,-0.006
19.385,-0.005
19.390,0.000
19.395,0.001
19.400,0.001
19.405,-0.003
19.410,-0.007
19.415,-0.009
19.420,-0.002
19.425,0.008
19.430,0.004
19.435,-0.005
19.440,-0.010
19.445,-0.003
19.450,0.007
19.455,0.008
19.460,0.011
19.465,0.012
19.470,0.019
19.475,0.030
19.480,0.023
19.485,0.018
19.490,0.021
19.495,0.021
19.500,0.017
19.505,-0.007
19.510,-0.061
19.515,-0.115
19.520,-0.097
19.525,0.042
19.530,0.277
19.535,0.521
19.540,0.701
19.545,0.814
19.550,0.717
19.555,0.406
19.560,0.158
19.565,0.012
19.570,-0.076
19.575,-0.166
19.580,-0.299
19.585,-0.362
19.590,-0.390
19.595,-0.453
19.600,-0.485
19.605,-0.466
19.610,-0.432
19.615,-0.368
19.620,-0.247
19.625,-0.119
19.630,-0.043
19.635,0.008
19.640,0.043
19.645,0.052
19.650,0.067
19.655,0.086
19.660,0.084
19.665,0.077
19.670,0.076
19.675,0.076
19.680,0.072
19.685,0.076
19.690,0.076
19.695,0.071
19.700,0.074
19.705,0.076
19.710,0.075
19.715,0.073
19.720,0.075
19.725,0.081
19.730,0.075
19.735,0.076
19.740,0.082
19.745,0.087
19.750,0.097
19.755,0.108
19.760,0.124
19.765,0.141
19.770,0.148
19.775,0.159
19.780,0.175
19.785,0.189
19.790,0.207
19.795,0.223
19.800,0.242
19.805,0.268
19.810,0.289
19.815,0.303
19.820,0.324
19.825,0.346
19.830,0.356
19.835,0.359
19.840,0.349
19.845,0.326
19.850,0.290
19.855,0.241
19.860,0.180
19.865,0.103
19.870,0.016
19.875,-0.062
19.880,-0.127
19.885,-0.185
19.890,-0.242
19.895,-0.296
19.900,-0.343
19.905,-0.375
19.910,-0.393
19.915,-0.405
19.920,-0.407
19.925,-0.402
19.930,-0.397
19.935,-0.387
19.940,-0.372
19.945,-0.351
19.950,-0.343
19.955,-0.348
19.960,-0.340
19.965,-0.323
19.970,-0.296
19.975,-0.273
19.980,-0.265
19.985,-0.248
19.990,-0.221
19.995,-0.203
20.000,-0.194
20.005,-0.181
20.010,-0.171
20.015,-0.165
20.020,-0.152
20.025,-0.144
20.030,-0.138
20.035,-0.119
20.040,-0.106
20.045,-0.098
20.050,-0.097
20.055,-0.099
20.060,-0.092
20.065,-0.084
20.070,-0.077
20.075,-0.065
20.080,-0.056
20.085,-0.053
20.090,-0.045
20.095,-0.036
20.100,-0.034
20.105,-0.035
20.110,-0.036
20.115,-0.031
20.120,-0.016
20.125,-0.001
20.130,0.003
20.135,0.008
20.140,0.005
20.145,-0.005
20.150,-0.001
20.155,0.005
20.160,0.005
20.165,0.008
20.170,0.020
20.175,0.038
20.180,0.044
20.185,0.040
20.190,0.033
20.195,0.027
20.200,0.031
20.205,0.034
20.210,0.034
20.215,0.030
20.220,0.031
20.225,0.045
20.230,0.054
20.235,0.053
20.240,0.050
20.245,0.046
20.250,0.036
20.255,0.034
20.260,0.043
20.265,0.048
20.270,0.058
20.275,0.062
20.280,0.053
20.285,0.052
20.290,0.050
20.295,0.042
20.300,0.043
20.305,0.048
20.310,0.046
20.315,0.046
20.320,0.056
20.325,0.063
20.330,0.061
20.335,0.058
20.340,0.054
20.345,0.056
20.350,0.066
20.355,0.067
20.360,0.063
20.365,0.069
20.370,0.084
20.375,0.093
20.380,0.089
20.385,0.083
20.390,0.077
20.395,0.076
20.400,0.077
20.405,0.071
20.410,0.061
20.415,0.047
20.420,0.035
20.425,0.037
20.430,0.026
20.435,0.002
20.440,-0.014
20.445,-0.019
20.450,-0.012
20.455,-0.002
20.460,0.001
20.465,-0.004
20.470,0.001
20.475,0.007
20.480,0.002
20.485,0.008
20.490,0.014
20.495,0.011
20.500,0.009
20.505,-0.001
20.510,-0.001
20.515,0.014
20.520,0.020
20.525,0.020
20.530,0.020
20.535,0.028
20.540,0.031
20.545,0.030
20.550,0.029
20.555,0.027
20.560,0.027
20.565,0.016
20.570,0.003
20.575,-0.019
20.580,-0.083
20.585,-0.119
20.590,-0.048
20.595,0.137
20.600,0.385
20.605,0.602
20.610,0.768
20.615,0.829
20.620,0.624
20.625,0.299
20.630,0.104
20.635,0.008
20.640,-0.051
20.645,-0.155
20.650,-0.285
20.655,-0.341
20.660,-0.373
20.665,-0.413
20.670,-0.417
20.675,-0.404
20.680,-0.395
20.685,-0.341
20.690,-0.237
20.695,-0.142
20.700,-0.071
20.705,-0.014
20.710,0.023
20.715,0.034
20.720,0.046
20.725,0.059
20.730,0.051
20.735,0.062
20.740,0.076
20.745,0.063
20.750,0.067
20.755,0.084
20.760,0.079
20.765,0.060
20.770,0.051
20.775,0.051
20.780,0.061
20.785,0.082
20.790,0.091
20.795,0.079
20.800,0.076
20.805,0.082
20.810,0.095
20.815,0.105
20.820,0.098
20.825,0.103
20.830,0.120
20.835,0.120
20.840,0.119
20.845,0.138
20.850,0.156
20.855,0.162
20.860,0.179
20.865,0.202
20.870,0.224
20.875,0.241
20.880,0.248
20.885,0.266
20.890,0.291
20.895,0.297
20.900,0.301
20.905,0.312
20.910,0.306
20.915,0.275
20.920,0.233
20.925,0.181
20.930,0.115
20.935,0.044
20.940,-0.033
20.945,-0.110
20.950,-0.178
20.955,-0.237
20.960,-0.289
20.965,-0.340
20.970,-0.371
20.975,-0.381
20.980,-0.394
20.985,-0.403
20.990,-0.408
20.995,-0.417
21.000,-0.414
21.005,-0.401
21.010,-0.389
21.015,-0.380
21.020,-0.364
21.025,-0.347
21.030,-0.332
21.035,-0.319
21.040,-0.311
21.045,-0.294
21.050,-0.268
21.055,-0.254
21.060,-0.245
21.065,-0.231
21.070,-0.207
21.075,-0.181
21.080,-0.174
21.085,-0.174
21.090,-0.164
21.095,-0.146
21.100,-0.126
21.105,-0.113
21.110,-0.100
21.115,-0.084
21.120,-0.071
21.125,-0.063
21.130,-0.065
21.135,-0.060
21.140,-0.044
21.145,-0.032
21.150,-0.023
21.155,-0.015
21.160,-0.007
21.165,-0.001
21.170,0.000
21.175,0.001
21.180,-0.003
21.185,0.002
21.190,0.015
21.195,0.016
21.200,0.015
21.205,0.020
21.210,0.027
21.215,0.033
21.220,0.035
21.225,0.036
21.230,0.040
21.235,0.049
21.240,0.054
21.245,0.054
21.250,0.056
21.255,0.054
21.260,0.054
21.265,0.054
21.270,0.059
21.275,0.071
21.280,0.073
21.285,0.068
21.290,0.061
21.295,0.061
21.300,0.068
21.305,0.069
21.310,0.065
21.315,0.064
21.320,0.069
21.325,0.074
21.330,0.068
21.335,0.070
21.340,0.071
21.345,0.063
21.350,0.063
21.355,0.065
21.360,0.067
21.365,0.073
21.370,0.075
21.375,0.080
21.380,0.083
21.385,0.089
21.390,0.096
21.395,0.096
21.400,0.099
21.405,0.103
21.410,0.102
21.415,0.101
21.420,0.107
21.425,0.128
21.430,0.136
21.435,0.125
21.440,0.107
21.445,0.095
21.450,0.097
21.455,0.095
21.460,0.089
21.465,0.080
21.470,0.071
21.475,0.066
21.480,0.052
21.485,0.039
21.490,0.026
21.495,0.009
21.500,0.004
21.505,0.010
21.510,0.015
21.515,0.010
21.520,0.001
21.525,0.000
21.530,0.002
21.535,0.008
21.540,0.015
21.545,0.013
21.550,0.015
21.555,0.018
21.560,0.017
21.565,0.022
21.570,0.024
21.575,0.025
21.580,0.025
21.585,0.025
21.590,0.026
21.595,0.025
21.600,0.028
21.605,0.029
21.610,0.027
21.615,0.025
21.620,0.029
21.625,0.030
21.630,0.010
21.635,-0.028
21.640,-0.082
21.645,-0.123
21.650,-0.078
21.655,0.096
21.660,0.358
21.665,0.600
21.670,0.777
21.675,0.874
21.680,0.709
21.685,0.365
21.690,0.125
21.695,-0.016
21.700,-0.094
21.705,-0.190
21.710,-0.315
21.715,-0.364
21.720,-0.398
21.725,-0.452
21.730,-0.469
21.735,-0.448
21.740,-0.424
21.745,-0.368
21.750,-0.254
21.755,-0.143
21.760,-0.069
21.765,-0.011
21.770,0.028
21.775,0.044
21.780,0.053
21.785,0.060
21.790,0.061
21.795,0.063
21.800,0.071
21.805,0.068
21.810,0.067
21.815,0.068
21.820,0.065
21.825,0.066
21.830,0.060
21.835,0.058
21.840,0.061
21.845,0.058
21.850,0.060
21.855,0.066
21.860,0.068
21.865,0.070
21.870,0.079
21.875,0.089
21.880,0.093
21.885,0.098
21.890,0.108
21.895,0.120
21.900,0.138
21.905,0.154
21.910,0.169
21.915,0.186
21.920,0.207
21.925,0.233
21.930,0.254
21.935,0.274
21.940,0.292
21.945,0.308
21.950,0.326
21.955,0.340
21.960,0.351
21.965,0.350
21.970,0.339
21.975,0.322
21.980,0.283
21.985,0.229
21.990,0.161
21.995,0.078
22.000,-0.003
22.005,-0.082
22.010,-0.160
22.015,-0.227
22.020,-0.285
22.025,-0.332
22.030,-0.368
22.035,-0.394
22.040,-0.413
22.045,-0.426
22.050,-0.426
22.055,-0.419
22.060,-0.408
22.065,-0.399
22.070,-0.393
22.075,-0.382
22.080,-0.366
22.085,-0.347
22.090,-0.331
22.095,-0.322
22.100,-0.307
22.105,-0.288
22.110,-0.268
22.115,-0.250
22.120,-0.229
22.125,-0.212
22.130,-0.206
22.135,-0.195
22.140,-0.178
22.145,-0.161
22.150,-0.146
22.155,-0.136
22.160,-0.124
22.165,-0.111
22.170,-0.099
22.175,-0.085
22.180,-0.078
22.185,-0.074
22.190,-0.071
22.195,-0.067
22.200,-0.058
22.205,-0.046
22.210,-0.041
22.215,-0.042
22.220,-0.035
22.225,-0.027
22.230,-0.027
22.235,-0.023
22.240,-0.018
22.245,-0.014
22.250,-0.008
22.255,-0.007
22.260,-0.004
22.265,-0.001
22.270,-0.004
22.275,0.000
22.280,0.002
22.285,0.003
22.290,0.007
22.295,0.009
22.300,0.012
22.305,0.017
22.310,0.021
22.315,0.022
22.320,0.026
22.325,0.029
22.330,0.028
22.335,0.033
22.340,0.036
22.345,0.034
22.350,0.036
22.355,0.037
22.360,0.037
22.365,0.039
22.370,0.043
22.375,0.044
22.380,0.038
22.385,0.036
22.390,0.041
22.395,0.045
22.400,0.050
22.405,0.052
22.410,0.049
22.415,0.047
22.420,0.050
22.425,0.054
22.430,0.047
22.435,0.046
22.440,0.054
22.445,0.057
22.450,0.059
22.455,0.058
22.460,0.063
22.465,0.070
22.470,0.072
22.475,0.073
22.480,0.070
22.485,0.074
22.490,0.080
22.495,0.080
22.500,0.087
22.505,0.096
22.510,0.101
22.515,0.101
22.520,0.093
22.525,0.084
22.530,0.074
22.535,0.069
22.540,0.070
22.545,0.069
22.550,0.061
22.555,0.051
22.560,0.038
22.565,0.022
22.570,0.012
22.575,0.003
22.580,-0.006
22.585,-0.009
22.590,-0.009
22.595,-0.013
22.600,-0.010
22.605,-0.004
22.610,-0.002
22.615,-0.003
22.620,0.001
22.625,0.010
22.630,0.007
22.635,0.003
22.640,0.001
22.645,0.000
22.650,0.006
22.655,0.006
22.660,0.003
22.665,0.005
22.670,0.009
22.675,0.011
22.680,0.011
22.685,0.012
22.690,0.016
22.695,0.018
22.700,0.019
22.705,0.016
22.710,0.012
22.715,-0.003
22.720,-0.045
22.725,-0.097
22.730,-0.121
22.735,-0.041
22.740,0.165
22.745,0.424
22.750,0.643
22.755,0.809
22.760,0.853
22.765,0.616
22.770,0.280
22.775,0.073
22.780,-0.046
22.785,-0.124
22.790,-0.240
22.795,-0.351
22.800,-0.384
22.805,-0.428
22.810,-0.487
22.815,-0.490
22.820,-0.448
22.825,-0.399
22.830,-0.305
22.835,-0.172
22.840,-0.074
22.845,-0.022
22.850,0.024
22.855,0.052
22.860,0.066
22.865,0.080
22.870,0.087
22.875,0.087
22.880,0.080
22.885,0.077
22.890,0.076
22.895,0.076
22.900,0.081
22.905,0.081
22.910,0.075
22.915,0.071
22.920,0.073
22.925,0.077
22.930,0.075
22.935,0.075
22.940,0.081
22.945,0.086
22.950,0.089
22.955,0.089
22.960,0.092
22.965,0.096
22.970,0.103
22.975,0.117
22.980,0.129
22.985,0.148
22.990,0.165
22.995,0.174
23.000,0.189
23.005,0.214
23.010,0.239
23.015,0.258
23.020,0.279
23.025,0.305
23.030,0.324
23.035,0.338
23.040,0.350
23.045,0.359
23.050,0.370
23.055,0.368
23.060,0.342
23.065,0.296
23.070,0.233
23.075,0.161
23.080,0.080
23.085,0.001
23.090,-0.073
23.095,-0.147
23.100,-0.211
23.105,-0.273
23.110,-0.328
23.115,-0.366
23.120,-0.391
23.125,-0.407
23.130,-0.421
23.135,-0.424
23.140,-0.421
23.145,-0.421
23.150,-0.411
23.155,-0.393
23.160,-0.376
23.165,-0.362
23.170,-0.353
23.175,-0.338
23.180,-0.322
23.185,-0.308
23.190,-0.289
23.195,-0.269
23.200,-0.247
23.205,-0.227
23.210,-0.216
23.215,-0.213
23.220,-0.204
23.225,-0.182
23.230,-0.166
23.235,-0.151
23.240,-0.140
23.245,-0.139
23.250,-0.126
23.255,-0.118
23.260,-0.112
23.265,-0.098
23.270,-0.090
23.275,-0.083
23.280,-0.078
23.285,-0.072
23.290,-0.062
23.295,-0.055
23.300,-0.052
23.305,-0.049
23.310,-0.045
23.315,-0.037
23.320,-0.029
23.325,-0.025
23.330,-0.023
23.335,-0.011
23.340,0.000
23.345,-0.004
23.350,-0.002
23.355,0.002
23.360,0.009
23.365,0.014
23.370,0.006
23.375,0.012
23.380,0.019
23.385,0.018
23.390,0.022
23.395,0.028
23.400,0.039
23.405,0.043
23.410,0.037
23.415,0.040
23.420,0.049
23.425,0.054
23.430,0.052
23.435,0.049
23.440,0.048
23.445,0.041
23.450,0.042
23.455,0.054
23.460,0.063
23.465,0.062
23.470,0.061
23.475,0.062
23.480,0.055
23.485,0.050
23.490,0.055
23.495,0.060
23.500,0.063
23.505,0.064
23.510,0.064
23.515,0.061
23.520,0.057
23.525,0.061
23.530,0.062
23.535,0.066
23.540,0.069
23.545,0.057
23.550,0.055
23.555,0.066
23.560,0.077
23.565,0.090
23.570,0.090
23.575,0.079
23.580,0.072
23.585,0.064
23.590,0.064
23.595,0.074
23.600,0.085
23.605,0.096
23.610,0.108
23.615,0.113
23.620,0.100
23.625,0.089
23.630,0.081
23.635,0.074
23.640,0.067
23.645,0.053
23.650,0.050
23.655,0.049
23.660,0.040
23.665,0.027
23.670,0.017
23.675,0.004
23.680,-0.016
23.685,-0.020
23.690,-0.009
23.695,0.000
23.700,0.007
23.705,0.003
23.710,-0.008
23.715,-0.011
23.720,-0.008
23.725,-0.015
23.730,-0.020
23.735,-0.011
23.740,0.004
23.745,0.009
23.750,0.006
23.755,0.003
23.760,0.002
23.765,0.004
23.770,0.010
23.775,0.015
23.780,0.004
23.785,-0.005
23.790,0.004
23.795,0.010
23.800,0.015
23.805,0.020
23.810,0.009
23.815,-0.032
23.820,-0.090
23.825,-0.115
23.830,-0.052
23.835,0.132
23.840,0.379
23.845,0.589
23.850,0.757
23.855,0.806
23.860,0.576
23.865,0.247
23.870,0.061
23.875,-0.021
23.880,-0.084
23.885,-0.192
23.890,-0.310
23.895,-0.360
23.900,-0.386
23.905,-0.432
23.910,-0.445
23.915,-0.432
23.920,-0.429
23.925,-0.366
23.930,-0.241
23.935,-0.135
23.940,-0.062
23.945,-0.008
23.950,0.018
23.955,0.022
23.960,0.033
23.965,0.047
23.970,0.048
23.975,0.056
23.980,0.066
23.985,0.068
23.990,0.074
23.995,0.075
24.000,0.071
24.005,0.069
24.010,0.063
24.015,0.058
24.020,0.066
24.025,0.076
24.030,0.077
24.035,0.075
24.040,0.079
24.045,0.083
24.050,0.094
24.055,0.106
24.060,0.103
24.065,0.099
24.070,0.098
24.075,0.109
24.080,0.127
24.085,0.147
24.090,0.173
24.095,0.196
24.100,0.208
24.105,0.214
24.110,0.228
24.115,0.248
24.120,0.267
24.125,0.282
24.130,0.293
24.135,0.313
24.140,0.324
24.145,0.318
24.150,0.315
24.155,0.297
24.160,0.255
24.165,0.197
24.170,0.136
24.175,0.074
24.180,-0.008
24.185,-0.086
24.190,-0.146
24.195,-0.207
24.200,-0.260
24.205,-0.299
24.210,-0.330
24.215,-0.355
24.220,-0.378
24.225,-0.392
24.230,-0.397
24.235,-0.388
24.240,-0.377
24.245,-0.373
24.250,-0.359
24.255,-0.343
24.260,-0.326
24.265,-0.309
24.270,-0.301
24.275,-0.282
24.280,-0.266
24.285,-0.261
24.290,-0.250
24.295,-0.242
24.300,-0.224
24.305,-0.199
24.310,-0.178
24.315,-0.164
24.320,-0.159
24.325,-0.149
24.330,-0.133
24.335,-0.116
24.340,-0.109
24.345,-0.108
24.350,-0.104
24.355,-0.096
24.360,-0.077
24.365,-0.058
24.370,-0.039
24.375,-0.031
24.380,-0.040
24.385,-0.036
24.390,-0.030
24.395,-0.034
24.400,-0.033
24.405,-0.030
24.410,-0.019
24.415,-0.009
24.420,-0.011
24.425,-0.010
24.430,-0.019
24.435,-0.010
24.440,0.014
24.445,0.019
24.450,0.015
24.455,0.001
24.460,-0.004
24.465,0.008
24.470,0.020
24.475,0.027
24.480,0.025
24.485,0.027
24.490,0.028
24.495,0.024
24.500,0.031
24.505,0.029
24.510,0.034
24.515,0.043
24.520,0.039
24.525,0.049
24.530,0.043
24.535,0.039
24.540,0.049
24.545,0.036
24.550,0.031
24.555,0.045
24.560,0.051
24.565,0.049
24.570,0.046
24.575,0.039
24.580,0.043
24.585,0.054
24.590,0.058
24.595,0.060
24.600,0.061
24.605,0.060
24.610,0.065
24.615,0.067
24.620,0.065
24.625,0.074
24.630,0.091
24.635,0.100
24.640,0.089
24.645,0.081
24.650,0.084
24.655,0.084
24.660,0.085
24.665,0.083
24.670,0.077
24.675,0.071
24.680,0.056
24.685,0.052
24.690,0.052
24.695,0.025
24.700,-0.001
24.705,-0.010
24.710,-0.014
24.715,-0.014
24.720,-0.019
24.725,-0.020
24.730,-0.011
24.735,-0.003
24.740,0.000
24.745,-0.004
24.750,-0.009
24.755,-0.008
24.760,-0.007
24.765,-0.010
24.770,-0.010
24.775,-0.012
24.780,-0.013
24.785,-0.004
24.790,0.002
24.795,0.006
24.800,0.014
24.805,0.014
24.810,0.011
24.815,0.014
24.820,0.018
24.825,0.024
24.830,0.019
24.835,0.010
24.840,0.005
24.845,-0.027
24.850,-0.079
24.855,-0.102
24.860,-0.039
24.865,0.145
24.870,0.397
24.875,0.618
24.880,0.786
24.885,0.859
24.890,0.661
24.895,0.311
24.900,0.100
24.905,0.003
24.910,-0.054
24.915,-0.142
24.920,-0.262
24.925,-0.311
24.930,-0.350
24.935,-0.410
24.940,-0.414
24.945,-0.394
24.950,-0.384
24.955,-0.329
24.960,-0.222
24.965,-0.119
24.970,-0.043
24.975,0.013
24.980,0.048
24.985,0.061
24.990,0.074
24.995,0.080
25.000,0.079
25.005,0.089
25.010,0.095
25.015,0.083
25.020,0.078
25.025,0.090
25.030,0.097
25.035,0.094
25.040,0.087
25.045,0.080
25.050,0.083
25.055,0.087
25.060,0.083
25.065,0.086
25.070,0.095
25.075,0.101
25.080,0.101
25.085,0.106
25.090,0.116
25.095,0.121
25.100,0.131
25.105,0.141
25.110,0.150
25.115,0.164
25.120,0.173
25.125,0.186
25.130,0.199
25.135,0.213
25.140,0.233
25.145,0.252
25.150,0.275
25.155,0.301
25.160,0.318
25.165,0.332
25.170,0.340
25.175,0.339
25.180,0.329
25.185,0.307
25.190,0.265
25.195,0.202
25.200,0.128
25.205,0.056
25.210,-0.012
25.215,-0.085
25.220,-0.162
25.225,-0.232
25.230,-0.287
25.235,-0.328
25.240,-0.354
25.245,-0.370
25.250,-0.378
25.255,-0.389
25.260,-0.402
25.265,-0.406
25.270,-0.399
25.275,-0.381
25.280,-0.366
25.285,-0.353
25.290,-0.342
25.295,-0.334
25.300,-0.318
25.305,-0.296
25.310,-0.283
25.315,-0.272
25.320,-0.253
25.325,-0.234
25.330,-0.221
25.335,-0.208
25.340,-0.191
25.345,-0.172
25.350,-0.155
25.355,-0.148
25.360,-0.137
25.365,-0.118
25.370,-0.102
25.375,-0.094
25.380,-0.092
25.385,-0.079
25.390,-0.066
25.395,-0.066
25.400,-0.058
25.405,-0.045
25.410,-0.036
25.415,-0.030
25.420,-0.026
25.425,-0.017
25.430,-0.007
25.435,0.000
25.440,0.001
25.445,-0.007
25.450,-0.007
25.455,0.003
25.460,0.003
25.465,-0.004
25.470,-0.002
25.475,0.005
25.480,0.010
25.485,0.015
25.490,0.015
25.495,0.013
25.500,0.019
25.505,0.022
25.510,0.024
25.515,0.027
25.520,0.027
25.525,0.031
25.530,0.028
25.535,0.027
25.540,0.037
25.545,0.034
25.550,0.031
25.555,0.032
25.560,0.033
25.565,0.041
25.570,0.042
25.575,0.043
25.580,0.051
25.585,0.052
25.590,0.049
25.595,0.043
25.600,0.043
25.605,0.050
25.610,0.056
25.615,0.056
25.620,0.055
25.625,0.057
25.630,0.052
25.635,0.050
25.640,0.048
25.645,0.040
25.650,0.042
25.655,0.047
25.660,0.050
25.665,0.055
25.670,0.057
25.675,0.058
25.680,0.057
25.685,0.063
25.690,0.070
25.695,0.069
25.700,0.073
25.705,0.072
25.710,0.069
25.715,0.078
25.720,0.088
25.725,0.095
25.730,0.091
25.735,0.082
25.740,0.078
25.745,0.068
25.750,0.058
25.755,0.053
25.760,0.054
25.765,0.054
25.770,0.045
25.775,0.034
25.780,0.015
25.785,-0.007
25.790,-0.018
25.795,-0.028
25.800,-0.022
25.805,-0.008
25.810,-0.004
25.815,-0.005
25.820,-0.010
25.825,-0.010
25.830,-0.003
25.835,0.001
25.840,0.001
25.845,0.000
25.850,0.006
25.855,0.008
25.860,0.007
25.865,0.008
25.870,0.007
25.875,0.010
25.880,0.013
25.885,0.015
25.890,0.020
25.895,0.015
25.900,0.012
25.905,0.015
25.910,0.012
25.915,0.011
25.920,0.008
25.925,-0.008
25.930,-0.051
25.935,-0.106
25.940,-0.115
25.945,-0.022
25.950,0.195
25.955,0.461
25.960,0.670
25.965,0.824
25.970,0.840
25.975,0.580
25.980,0.253
25.985,0.046
25.990,-0.073
25.995,-0.151
26.000,-0.257
26.005,-0.345
26.010,-0.370
26.015,-0.409
26.020,-0.461
26.025,-0.460
26.030,-0.438
26.035,-0.403
26.040,-0.304
26.045,-0.179
26.050,-0.086
26.055,-0.026
26.060,0.013
26.065,0.034
26.070,0.046
26.075,0.058
26.080,0.059
26.085,0.061
26.090,0.068
26.095,0.064
26.100,0.059
26.105,0.061
26.110,0.064
26.115,0.065
26.120,0.065
26.125,0.070
26.130,0.071
26.135,0.067
26.140,0.064
26.145,0.063
26.150,0.072
26.155,0.081
26.160,0.084
26.165,0.093
26.170,0.100
26.175,0.104
26.180,0.107
26.185,0.112
26.190,0.124
26.195,0.138
26.200,0.155
26.205,0.177
26.210,0.196
26.215,0.212
26.220,0.233
26.225,0.256
26.230,0.269
26.235,0.283
26.240,0.305
26.245,0.324
26.250,0.346
26.255,0.357
26.260,0.353
26.265,0.343
26.270,0.313
26.275,0.264
26.280,0.202
26.285,0.131
26.290,0.054
26.295,-0.029
26.300,-0.102
26.305,-0.167
26.310,-0.227
26.315,-0.284
26.320,-0.337
26.325,-0.372
26.330,-0.395
26.335,-0.407
26.340,-0.408
26.345,-0.412
26.350,-0.408
26.355,-0.398
26.360,-0.387
26.365,-0.376
26.370,-0.369
26.375,-0.356
26.380,-0.339
26.385,-0.320
26.390,-0.298
26.395,-0.286
26.400,-0.268
26.405,-0.245
26.410,-0.235
26.415,-0.223
26.420,-0.209
26.425,-0.197
26.430,-0.184
26.435,-0.168
26.440,-0.152
26.445,-0.140
26.450,-0.129
26.455,-0.117
26.460,-0.110
26.465,-0.104
26.470,-0.097
26.475,-0.088
26.480,-0.082
26.485,-0.074
26.490,-0.064
26.495,-0.059
26.500,-0.049
26.505,-0.045
26.510,-0.049
26.515,-0.045
26.520,-0.040
26.525,-0.031
26.530,-0.024
26.535,-0.017
26.540,-0.006
26.545,-0.006
26.550,-0.006
26.555,-0.004
26.560,-0.009
26.565,-0.005
26.570,0.005
26.575,0.012
26.580,0.016
26.585,0.014
26.590,0.014
26.595,0.015
26.600,0.024
26.605,0.033
26.610,0.035
26.615,0.036
26.620,0.034
26.625,0.040
26.630,0.046
26.635,0.043
26.640,0.042
26.645,0.037
26.650,0.040
26.655,0.049
26.660,0.052
26.665,0.054
26.670,0.052
26.675,0.052
26.680,0.053
26.685,0.054
26.690,0.061
26.695,0.063
26.700,0.067
26.705,0.072
26.710,0.063
26.715,0.057
26.720,0.057
26.725,0.063
26.730,0.068
26.735,0.068
26.740,0.066
26.745,0.059
26.750,0.060
26.755,0.064
26.760,0.064
26.765,0.074
26.770,0.082
26.775,0.083
26.780,0.079
26.785,0.077
26.790,0.082
26.795,0.084
26.800,0.090
26.805,0.098
26.810,0.096
26.815,0.095
26.820,0.096
26.825,0.097
26.830,0.096
26.835,0.087
26.840,0.075
26.845,0.063
26.850,0.060
26.855,0.056
26.860,0.047
26.865,0.040
26.870,0.029
26.875,0.018
26.880,0.006
26.885,-0.004
26.890,0.000
26.895,0.003
26.900,0.001
26.905,0.004
26.910,0.000
26.915,-0.002
26.920,-0.004
26.925,-0.006
26.930,0.000
26.935,0.003
26.940,-0.002
26.945,-0.007
26.950,0.002
26.955,0.019
26.960,0.017
26.965,0.005
26.970,0.003
26.975,0.004
26.980,-0.001
26.985,-0.003
26.990,0.006
26.995,0.014
27.000,0.015
27.005,0.011
27.010,0.003
27.015,-0.025
27.020,-0.081
27.025,-0.122
27.030,-0.092
27.035,0.047
27.040,0.278
27.045,0.511
27.050,0.698
27.055,0.819
27.060,0.708
27.065,0.397
27.070,0.161
27.075,0.019
27.080,-0.077
27.085,-0.172
27.090,-0.292
27.095,-0.350
27.100,-0.374
27.105,-0.427
27.110,-0.457
27.115,-0.439
27.120,-0.421
27.125,-0.372
27.130,-0.266
27.135,-0.153
27.140,-0.068
27.145,-0.007
27.150,0.028
27.155,0.029
27.160,0.023
27.165,0.033
27.170,0.047
27.175,0.064
27.180,0.072
27.185,0.068
27.190,0.067
27.195,0.064
27.200,0.065
27.205,0.068
27.210,0.066
27.215,0.067
27.220,0.064
27.225,0.073
27.230,0.087
27.235,0.089
27.240,0.091
27.245,0.086
27.250,0.078
27.255,0.083
27.260,0.093
27.265,0.110
27.270,0.126
27.275,0.138
27.280,0.154
27.285,0.170
27.290,0.181
27.295,0.185
27.300,0.195
27.305,0.211
27.310,0.230
27.315,0.251
27.320,0.275
27.325,0.306
27.330,0.330
27.335,0.340
27.340,0.344
27.345,0.339
27.350,0.337
27.355,0.327
27.360,0.295
27.365,0.252
27.370,0.193
27.375,0.106
27.380,0.011
27.385,-0.063
27.390,-0.127
27.395,-0.193
27.400,-0.248
27.405,-0.298
27.410,-0.340
27.415,-0.365
27.420,-0.392
27.425,-0.410
27.430,-0.409
27.435,-0.404
27.440,-0.393
27.445,-0.385
27.450,-0.377
27.455,-0.367
27.460,-0.361
27.465,-0.348
27.470,-0.331
27.475,-0.320
27.480,-0.306
27.485,-0.277
27.490,-0.247
27.495,-0.241
27.500,-0.227
27.505,-0.207
27.510,-0.206
27.515,-0.204
27.520,-0.192
27.525,-0.169
27.530,-0.145
27.535,-0.140
27.540,-0.140
27.545,-0.136
27.550,-0.124
27.555,-0.108
27.560,-0.098
27.565,-0.092
27.570,-0.089
27.575,-0.081
27.580,-0.075
27.585,-0.074
27.590,-0.056
27.595,-0.046
27.600,-0.042
27.605,-0.036
27.610,-0.042
27.615,-0.041
27.620,-0.029
27.625,-0.025
27.630,-0.023
27.635,-0.012
27.640,-0.001
27.645,-0.002
27.650,-0.004
27.655,-0.006
27.660,-0.007
27.665,0.005
27.670,0.010
27.675,0.010
27.680,0.020
27.685,0.020
27.690,0.018
27.695,0.020
27.700,0.026
27.705,0.034
27.710,0.030
27.715,0.023
27.720,0.023
27.725,0.040
27.730,0.051
27.735,0.045
27.740,0.050
27.745,0.051
27.750,0.050
27.755,0.049
27.760,0.034
27.765,0.035
27.770,0.044
27.775,0.043
27.780,0.051
27.785,0.058
27.790,0.065
27.795,0.069
27.800,0.061
27.805,0.057
27.810,0.049
27.815,0.049
27.820,0.063
27.825,0.075
27.830,0.082
27.835,0.080
27.840,0.075
27.845,0.084
27.850,0.103
27.855,0.110
27.860,0.104
27.865,0.104
27.870,0.106
27.875,0.100
27.880,0.088
27.885,0.081
27.890,0.079
27.895,0.068
27.900,0.062
27.905,0.053
27.910,0.038
27.915,0.025
27.920,0.008
27.925,0.003
27.930,0.009
27.935,0.007
27.940,-0.002
27.945,-0.004
27.950,0.009
27.955,0.031
27.960,0.033
27.965,0.016
27.970,0.009
27.975,0.016
27.980,0.019
27.985,0.021
27.990,0.030
27.995,0.030
28.000,0.026
28.005,0.023
28.010,0.022
28.015,0.027
28.020,0.024
28.025,0.029
28.030,0.046
28.035,0.047
28.040,0.031
28.045,0.025
28.050,0.033
28.055,0.028
28.060,-0.010
28.065,-0.080
28.070,-0.123
28.075,-0.055
28.080,0.136
28.085,0.399
28.090,0.628
28.095,0.791
28.100,0.845
28.105,0.625
28.110,0.294
28.115,0.099
28.120,-0.008
28.125,-0.073
28.130,-0.182
28.135,-0.306
28.140,-0.342
28.145,-0.381
28.150,-0.427
28.155,-0.424
28.160,-0.422
28.165,-0.423
28.170,-0.360
28.175,-0.239
28.180,-0.133
28.185,-0.057
28.190,0.000
28.195,0.016
28.200,0.020
28.205,0.039
28.210,0.049
28.215,0.059
28.220,0.068
28.225,0.067
28.230,0.055
28.235,0.045
28.240,0.051
28.245,0.054
28.250,0.052
28.255,0.052
28.260,0.048
28.265,0.051
28.270,0.053
28.275,0.044
28.280,0.044
28.285,0.049
28.290,0.049
28.295,0.055
28.300,0.069
28.305,0.075
28.310,0.075
28.315,0.081
28.320,0.095
28.325,0.113
28.330,0.127
28.335,0.141
28.340,0.162
28.345,0.179
28.350,0.200
28.355,0.227
28.360,0.245
28.365,0.267
28.370,0.287
28.375,0.308
28.380,0.325
28.385,0.324
28.390,0.319
28.395,0.310
28.400,0.282
28.405,0.237
28.410,0.180
28.415,0.114
28.420,0.039
28.425,-0.043
28.430,-0.119
28.435,-0.182
28.440,-0.237
28.445,-0.290
28.450,-0.331
28.455,-0.361
28.460,-0.389
28.465,-0.403
28.470,-0.399
28.475,-0.393
28.480,-0.394
28.485,-0.398
28.490,-0.386
28.495,-0.366
28.500,-0.347
28.505,-0.332
28.510,-0.328
28.515,-0.312
28.520,-0.284
28.525,-0.265
28.530,-0.247
28.535,-0.229
28.540,-0.216
28.545,-0.206
28.550,-0.188
28.555,-0.167
28.560,-0.155
28.565,-0.143
28.570,-0.127
28.575,-0.110
28.580,-0.094
28.585,-0.087
28.590,-0.079
28.595,-0.071
28.600,-0.063
28.605,-0.051
28.610,-0.040
28.615,-0.027
28.620,-0.019
28.625,-0.015
28.630,-0.008
28.635,0.004
28.640,0.014
28.645,0.012
28.650,0.009
28.655,0.011
28.660,0.010
28.665,0.014
28.670,0.023
28.675,0.026
28.680,0.022
28.685,0.019
28.690,0.021
28.695,0.022
28.700,0.020
28.705,0.019
28.710,0.025
28.715,0.033
28.720,0.035
28.725,0.031
28.730,0.029
28.735,0.032
28.740,0.032
28.745,0.029
28.750,0.034
28.755,0.041
28.760,0.046
28.765,0.051
28.770,0.050
28.775,0.045
28.780,0.042
28.785,0.045
28.790,0.050
28.795,0.054
28.800,0.058
28.805,0.059
28.810,0.055
28.815,0.051
28.820,0.049
28.825,0.051
28.830,0.054
28.835,0.057
28.840,0.061
28.845,0.058
28.850,0.058
28.855,0.061
28.860,0.058
28.865,0.062
28.870,0.066
28.875,0.066
28.880,0.067
28.885,0.070
28.890,0.075
28.895,0.076
28.900,0.078
28.905,0.081
28.910,0.082
28.915,0.096
28.920,0.107
28.925,0.106
28.930,0.098
28.935,0.087
28.940,0.086
28.945,0.083
28.950,0.076
28.955,0.075
28.960,0.065
28.965,0.057
28.970,0.045
28.975,0.026
28.980,0.011
28.985,0.004
28.990,0.002
28.995,-0.006
29.000,-0.009
29.005,-0.003
29.010,-0.003
29.015,-0.004
29.020,-0.002
29.025,0.003
29.030,0.005
29.035,0.000
29.040,-0.002
29.045,-0.002
29.050,0.003
29.055,0.013
29.060,0.015
29.065,0.013
29.070,0.009
29.075,0.009
29.080,0.012
29.085,0.014
29.090,0.012
29.095,0.008
29.100,0.013
29.105,0.019
29.110,0.018
29.115,0.021
29.120,0.014
29.125,-0.021
29.130,-0.079
29.135,-0.125
29.140,-0.085
29.145,0.085
29.150,0.346
29.155,0.592
29.160,0.766
29.165,0.870
29.170,0.737
29.175,0.401
29.180,0.143
29.185,-0.009
29.190,-0.090
29.195,-0.182
29.200,-0.308
29.205,-0.359
29.210,-0.388
29.215,-0.438
29.220,-0.459
29.225,-0.450
29.230,-0.432
29.235,-0.368
29.240,-0.247
29.245,-0.136
29.250,-0.063
29.255,-0.007
29.260,0.023
29.265,0.035
29.270,0.051
29.275,0.062
29.280,0.062
29.285,0.062
29.290,0.068
29.295,0.069
29.300,0.067
29.305,0.067
29.310,0.064
29.315,0.068
29.320,0.075
29.325,0.076
29.330,0.074
29.335,0.070
29.340,0.071
29.345,0.074
29.350,0.077
29.355,0.082
29.360,0.084
29.365,0.090
29.370,0.098
29.375,0.107
29.380,0.116
29.385,0.121
29.390,0.136
29.395,0.153
29.400,0.169
29.405,0.185
29.410,0.197
29.415,0.220
29.420,0.250
29.425,0.272
29.430,0.288
29.435,0.305
29.440,0.325
29.445,0.342
29.450,0.354
29.455,0.355
29.460,0.341
29.465,0.322
29.470,0.286
29.475,0.227
29.480,0.157
29.485,0.082
29.490,0.007
29.495,-0.075
29.500,-0.151
29.505,-0.214
29.510,-0.274
29.515,-0.320
29.520,-0.354
29.525,-0.386
29.530,-0.407
29.535,-0.416
29.540,-0.415
29.545,-0.412
29.550,-0.405
29.555,-0.395
29.560,-0.388
29.565,-0.376
29.570,-0.360
29.575,-0.343
29.580,-0.321
29.585,-0.306
29.590,-0.291
29.595,-0.277
29.600,-0.262
29.605,-0.244
29.610,-0.231
29.615,-0.219
29.620,-0.201
29.625,-0.183
29.630,-0.171
29.635,-0.164
29.640,-0.152
29.645,-0.136
29.650,-0.117
29.655,-0.105
29.660,-0.102
29.665,-0.095
29.670,-0.086
29.675,-0.078
29.680,-0.073
29.685,-0.068
29.690,-0.059
29.695,-0.054
29.700,-0.046
29.705,-0.036
29.710,-0.029
29.715,-0.023
29.720,-0.024
29.725,-0.024
29.730,-0.012
29.735,-0.002
29.740,-0.002
29.745,-0.009
29.750,-0.005
29.755,0.003
29.760,0.003
29.765,0.006
29.770,0.009
29.775,0.008
29.780,0.012
29.785,0.020
29.790,0.026
29.795,0.026
29.800,0.027
29.805,0.033
29.810,0.037
29.815,0.040
29.820,0.042
29.825,0.045
29.830,0.049
29.835,0.051
29.840,0.051
29.845,0.048
29.850,0.047
29.855,0.052
29.860,0.048
29.865,0.047
29.870,0.049
29.875,0.050
29.880,0.055
29.885,0.059
29.890,0.055
29.895,0.050
29.900,0.054
29.905,0.062
29.910,0.061
29.915,0.060
29.920,0.057
29.925,0.054
29.930,0.054
29.935,0.054
29.940,0.056
29.945,0.057
29.950,0.061
29.955,0.066
29.960,0.067
29.965,0.070
29.970,0.074
29.975,0.075
29.980,0.077
29.985,0.078
29.990,0.081
29.995,0.081
30.000,0.089
30.005,0.103
30.010,0.106
30.015,0.102
30.020,0.092
30.025,0.078
30.030,0.071
30.035,0.061
30.040,0.055
30.045,0.054
30.050,0.050
30.055,0.041
30.060,0.026
30.065,0.012
30.070,0.001
30.075,-0.009
30.080,-0.016
30.085,-0.015
30.090,-0.010
30.095,-0.012
30.100,-0.011
30.105,-0.009
30.110,-0.014
30.115,-0.011
30.120,-0.004
30.125,-0.002
30.130,0.001
30.135,0.008
30.140,0.008
30.145,-0.002
30.150,-0.010
30.155,-0.007
30.160,-0.006
30.165,-0.005
30.170,0.000
30.175,0.005
30.180,0.010
30.185,0.010
30.190,0.012
30.195,0.011
30.200,0.011
30.205,0.010
30.210,-0.003
30.215,-0.030
30.220,-0.082
30.225,-0.124
30.230,-0.079
30.235,0.082
30.240,0.328
30.245,0.560
30.250,0.738
30.255,0.854
30.260,0.720
30.265,0.387
30.270,0.137
30.275,-0.012
30.280,-0.101
30.285,-0.202
30.290,-0.325
30.295,-0.376
30.300,-0.405
30.305,-0.460
30.310,-0.484
30.315,-0.453
30.320,-0.415
30.325,-0.351
30.330,-0.227
30.335,-0.108
30.340,-0.038
30.345,0.005
30.350,0.035
30.355,0.049
30.360,0.060
30.365,0.069
30.370,0.067
30.375,0.066
30.380,0.074
30.385,0.076
30.390,0.073
30.395,0.069
30.400,0.067
30.405,0.066
30.410,0.064
30.415,0.071
30.420,0.075
30.425,0.069
30.430,0.070
30.435,0.073
30.440,0.081
30.445,0.092
30.450,0.092
30.455,0.090
30.460,0.094
30.465,0.110
30.470,0.132
30.475,0.142
30.480,0.144
30.485,0.150
30.490,0.163
30.495,0.179
30.500,0.198
30.505,0.228
30.510,0.249
30.515,0.263
30.520,0.285
30.525,0.310
30.530,0.330
30.535,0.343
30.540,0.351
30.545,0.352
30.550,0.347
30.555,0.327
30.560,0.283
30.565,0.225
30.570,0.163
30.575,0.099
30.580,0.020
30.585,-0.070
30.590,-0.149
30.595,-0.215
30.600,-0.264
30.605,-0.304
30.610,-0.347
30.615,-0.383
30.620,-0.406
30.625,-0.411
30.630,-0.403
30.635,-0.398
30.640,-0.399
30.645,-0.396
30.650,-0.383
30.655,-0.372
30.660,-0.362
30.665,-0.339
30.670,-0.319
30.675,-0.313
30.680,-0.301
30.685,-0.284
30.690,-0.267
30.695,-0.253
30.700,-0.234
30.705,-0.210
30.710,-0.199
30.715,-0.189
30.720,-0.175
30.725,-0.163
30.730,-0.153
30.735,-0.140
30.740,-0.122
30.745,-0.118
30.750,-0.121
30.755,-0.117
30.760,-0.107
30.765,-0.093
30.770,-0.091
30.775,-0.082
30.780,-0.068
30.785,-0.067
30.790,-0.061
30.795,-0.057
30.800,-0.042
30.805,-0.028
30.810,-0.037
30.815,-0.033
30.820,-0.014
30.825,-0.010
30.830,-0.016
30.835,-0.011
30.840,0.010
30.845,0.020
30.850,0.010
30.855,0.003
30.860,0.010
30.865,0.019
30.870,0.017
30.875,0.017
30.880,0.030
30.885,0.046
30.890,0.044
30.895,0.030
30.900,0.030
30.905,0.032
30.910,0.031
30.915,0.041
30.920,0.051
30.925,0.062
30.930,0.067
30.935,0.057
30.940,0.051
30.945,0.044
30.950,0.046
30.955,0.057
30.960,0.056
30.965,0.062
30.970,0.069
30.975,0.068
30.980,0.072
30.985,0.072
30.990,0.061
30.995,0.045
31.000,0.042
31.005,0.048
31.010,0.053
31.015,0.059
31.020,0.068
31.025,0.086
31.030,0.088
31.035,0.068
31.040,0.057
31.045,0.058
31.050,0.062
31.055,0.072
31.060,0.079
31.065,0.092
31.070,0.108
31.075,0.113
31.080,0.110
31.085,0.091
31.090,0.069
31.095,0.059
31.100,0.064
31.105,0.065
31.110,0.058
31.115,0.058
31.120,0.059
31.125,0.052
31.130,0.034
31.135,0.009
31.140,-0.015
31.145,-0.026
31.150,-0.017
31.155,-0.004
31.160,-0.001
31.165,0.006
31.170,0.016
31.175,0.012
31.180,0.001
31.185,-0.011
31.190,-0.017
31.195,-0.013
31.200,-0.004
31.205,0.005
31.210,0.009
31.215,0.017
31.220,0.021
31.225,0.025
31.230,0.029
31.235,0.016
31.240,0.006
31.245,-0.001
31.250,-0.002
31.255,0.011
31.260,0.020
31.265,0.040
31.270,0.046
31.275,0.025
31.280,-0.021
31.285,-0.102
31.290,-0.141
31.295,-0.087
31.300,0.084
31.305,0.352
31.310,0.582
31.315,0.745
31.320,0.825
31.325,0.644
31.330,0.331
31.335,0.137
31.340,0.012
31.345,-0.071
31.350,-0.167
31.355,-0.290
31.360,-0.350
31.365,-0.392
31.370,-0.439
31.375,-0.444
31.380,-0.425
31.385,-0.408
31.390,-0.347
31.395,-0.237
31.400,-0.138
31.405,-0.074
31.410,-0.021
31.415,0.027
31.420,0.039
31.425,0.032
31.430,0.038
31.435,0.050
31.440,0.070
31.445,0.080
31.450,0.072
31.455,0.075
31.460,0.084
31.465,0.078
31.470,0.072
31.475,0.070
31.480,0.060
31.485,0.057
31.490,0.060
31.495,0.069
31.500,0.082
31.505,0.087
31.510,0.091
31.515,0.100
31.520,0.104
31.525,0.094
31.530,0.088
31.535,0.105
31.540,0.135
31.545,0.148
31.550,0.149
31.555,0.160
31.560,0.170
31.565,0.189
31.570,0.214
31.575,0.234
31.580,0.259
31.585,0.283
31.590,0.299
31.595,0.308
31.600,0.319
31.605,0.329
31.610,0.329
31.615,0.323
31.620,0.298
31.625,0.252
31.630,0.202
31.635,0.131
31.640,0.056
31.645,-0.020
31.650,-0.106
31.655,-0.173
31.660,-0.229
31.665,-0.282
31.670,-0.325
31.675,-0.355
31.680,-0.374
31.685,-0.392
31.690,-0.396
31.695,-0.392
31.700,-0.389
31.705,-0.382
31.710,-0.377
31.715,-0.368
31.720,-0.354
31.725,-0.348
31.730,-0.334
31.735,-0.317
31.740,-0.308
31.745,-0.300
31.750,-0.282
31.755,-0.260
31.760,-0.248
31.765,-0.233
31.770,-0.213
31.775,-0.201
31.780,-0.193
31.785,-0.181
31.790,-0.167
31.795,-0.156
31.800,-0.140
31.805,-0.123
31.810,-0.118
31.815,-0.109
31.820,-0.097
31.825,-0.087
31.830,-0.082
31.835,-0.076
31.840,-0.063
31.845,-0.056
31.850,-0.054
31.855,-0.052
31.860,-0.044
31.865,-0.029
31.870,-0.021
31.875,-0.024
31.880,-0.026
31.885,-0.022
31.890,-0.015
31.895,-0.010
31.900,-0.006
31.905,-0.004
31.910,-0.003
31.915,0.004
31.920,0.008
31.925,0.010
31.930,0.013
31.935,0.009
31.940,0.007
31.945,0.012
31.950,0.028
31.955,0.039
31.960,0.030
31.965,0.029
31.970,0.032
31.975,0.034
31.980,0.047
31.985,0.051
31.990,0.047
31.995,0.048
32.000,0.052
32.005,0.060
32.010,0.062
32.015,0.062
32.020,0.071
32.025,0.076
32.030,0.070
32.035,0.057
32.040,0.054
32.045,0.061
32.050,0.066
32.055,0.070
32.060,0.069
32.065,0.070
32.070,0.074
32.075,0.075
32.080,0.077
32.085,0.083
32.090,0.087
32.095,0.088
32.100,0.090
32.105,0.097
32.110,0.099
32.115,0.096
32.120,0.098
32.125,0.105
32.130,0.116
32.135,0.120
32.140,0.113
32.145,0.103
32.150,0.101
32.155,0.101
32.160,0.089
32.165,0.085
32.170,0.083
32.175,0.070
32.180,0.060
32.185,0.053
32.190,0.043
32.195,0.032
32.200,0.021
32.205,0.008
32.210,0.001
32.215,0.002
32.220,0.008
32.225,0.016
32.230,0.021
32.235,0.017
32.240,0.014
32.245,0.014
32.250,0.018
32.255,0.022
32.260,0.019
32.265,0.018
32.270,0.020
32.275,0.021
32.280,0.025
32.285,0.030
32.290,0.034
32.295,0.034
32.300,0.034
32.305,0.037
32.310,0.035
32.315,0.035
32.320,0.036
32.325,0.034
32.330,0.037
32.335,0.030
32.340,-0.004
32.345,-0.067
32.350,-0.117
32.355,-0.085
32.360,0.064
32.365,0.310
32.370,0.560
32.375,0.741
32.380,0.864
32.385,0.775
32.390,0.453
32.395,0.182
32.400,0.023
32.405,-0.064
32.410,-0.151
32.415,-0.278
32.420,-0.343
32.425,-0.376
32.430,-0.427
32.435,-0.451
32.440,-0.435
32.445,-0.420
32.450,-0.382
32.455,-0.280
32.460,-0.168
32.465,-0.086
32.470,-0.025
32.475,0.016
32.480,0.037
32.485,0.053
32.490,0.067
32.495,0.068
32.500,0.065
32.505,0.068
32.510,0.062
32.515,0.060
32.520,0.066
32.525,0.071
32.530,0.073
32.535,0.071
32.540,0.070
32.545,0.061
32.550,0.054
32.555,0.058
32.560,0.059
32.565,0.065
32.570,0.070
32.575,0.071
32.580,0.082
32.585,0.091
32.590,0.097
32.595,0.106
32.600,0.115
32.605,0.126
32.610,0.134
32.615,0.151
32.620,0.176
32.625,0.197
32.630,0.222
32.635,0.249
32.640,0.267
32.645,0.277
32.650,0.293
32.655,0.314
32.660,0.326
32.665,0.336
32.670,0.345
32.675,0.343
32.680,0.323
32.685,0.284
32.690,0.231
32.695,0.165
32.700,0.088
32.705,0.008
32.710,-0.074
32.715,-0.149
32.720,-0.219
32.725,-0.280
32.730,-0.325
32.735,-0.361
32.740,-0.390
32.745,-0.410
32.750,-0.417
32.755,-0.417
32.760,-0.418
32.765,-0.412
32.770,-0.401
32.775,-0.392
32.780,-0.376
32.785,-0.359
32.790,-0.345
32.795,-0.333
32.800,-0.319
32.805,-0.297
32.810,-0.279
32.815,-0.263
32.820,-0.248
32.825,-0.240
32.830,-0.226
32.835,-0.209
32.840,-0.194
32.845,-0.180
32.850,-0.166
32.855,-0.151
32.860,-0.143
32.865,-0.135
32.870,-0.121
32.875,-0.112
32.880,-0.101
32.885,-0.091
32.890,-0.086
32.895,-0.079
32.900,-0.071
32.905,-0.062
32.910,-0.054
32.915,-0.047
32.920,-0.044
32.925,-0.043
32.930,-0.037
32.935,-0.030
32.940,-0.021
32.945,-0.016
32.950,-0.016
32.955,-0.011
32.960,-0.009
32.965,-0.007
32.970,0.001
32.975,0.006
32.980,0.010
32.985,0.014
32.990,0.016
32.995,0.014
33.000,0.016
33.005,0.020
33.010,0.018
33.015,0.024
33.020,0.030
33.025,0.030
33.030,0.037
33.035,0.039
33.040,0.036
33.045,0.035
33.050,0.037
33.055,0.044
33.060,0.043
33.065,0.042
33.070,0.044
33.075,0.045
33.080,0.053
33.085,0.057
33.090,0.057
33.095,0.053
33.100,0.048
33.105,0.048
33.110,0.047
33.115,0.050
33.120,0.052
33.125,0.048
33.130,0.051
33.135,0.058
33.140,0.060
33.145,0.060
33.150,0.059
33.155,0.061
33.160,0.061
33.165,0.064
33.170,0.073
33.175,0.074
33.180,0.074
33.185,0.075
33.190,0.076
33.195,0.079
33.200,0.083
33.205,0.085
33.210,0.087
33.215,0.096
33.220,0.104
33.225,0.101
33.230,0.095
33.235,0.086
33.240,0.084
33.245,0.081
33.250,0.075
33.255,0.071
33.260,0.062
33.265,0.058
33.270,0.049
33.275,0.028
33.280,0.012
33.285,-0.002
33.290,-0.010
33.295,-0.013
33.300,-0.012
33.305,-0.006
33.310,-0.005
33.315,-0.003
33.320,0.000
33.325,-0.003
33.330,-0.002
33.335,0.000
33.340,0.002
33.345,0.002
33.350,-0.002
33.355,0.000
33.360,0.006
33.365,0.014
33.370,0.016
33.375,0.009
33.380,0.009
33.385,0.010
33.390,0.010
33.395,0.011
33.400,0.014
33.405,0.021
33.410,0.018
33.415,0.012
33.420,0.015
33.425,0.010
33.430,-0.022
33.435,-0.083
33.440,-0.129
33.445,-0.091
33.450,0.075
33.455,0.331
33.460,0.566
33.465,0.744
33.470,0.853
33.475,0.717
33.480,0.394
33.485,0.148
33.490,-0.004
33.495,-0.097
33.500,-0.199
33.505,-0.321
33.510,-0.374
33.515,-0.407
33.520,-0.470
33.525,-0.503
33.530,-0.476
33.535,-0.432
33.540,-0.348
33.545,-0.218
33.550,-0.111
33.555,-0.046
33.560,0.005
33.565,0.041
33.570,0.054
33.575,0.059
33.580,0.069
33.585,0.072
33.590,0.074
33.595,0.078
33.600,0.075
33.605,0.072
33.610,0.066
33.615,0.065
33.620,0.069
33.625,0.066
33.630,0.065
33.635,0.067
33.640,0.069
33.645,0.069
33.650,0.070
33.655,0.076
33.660,0.078
33.665,0.080
33.670,0.087
33.675,0.090
33.680,0.098
33.685,0.113
33.690,0.126
33.695,0.137
33.700,0.151
33.705,0.169
33.710,0.185
33.715,0.202
33.720,0.222
33.725,0.242
33.730,0.271
33.735,0.296
33.740,0.316
33.745,0.335
33.750,0.349
33.755,0.358
33.760,0.362
33.765,0.361
33.770,0.347
33.775,0.313
33.780,0.259
33.785,0.187
33.790,0.107
33.795,0.023
33.800,-0.057
33.805,-0.128
33.810,-0.198
33.815,-0.257
33.820,-0.306
33.825,-0.352
33.830,-0.380
33.835,-0.395
33.840,-0.405
33.845,-0.411
33.850,-0.413
33.855,-0.410
33.860,-0.402
33.865,-0.384
33.870,-0.370
33.875,-0.369
33.880,-0.358
33.885,-0.341
33.890,-0.327
33.895,-0.307
33.900,-0.284
33.905,-0.267
33.910,-0.254
33.915,-0.242
33.920,-0.229
33.925,-0.211
33.930,-0.188
33.935,-0.171
33.940,-0.163
33.945,-0.156
33.950,-0.148
33.955,-0.130
33.960,-0.115
33.965,-0.106
33.970,-0.094
33.975,-0.089
33.980,-0.089
33.985,-0.088
33.990,-0.085
33.995,-0.074
34.000,-0.059
34.005,-0.052
34.010,-0.051
34.015,-0.041
34.020,-0.030
34.025,-0.030
34.030,-0.028
34.035,-0.018
34.040,-0.009
34.045,-0.009
34.050,-0.012
34.055,-0.008
34.060,-0.001
34.065,0.015
34.070,0.026
34.075,0.016
34.080,0.006
34.085,0.011
34.090,0.020
34.095,0.020
34.100,0.020
34.105,0.037
34.110,0.052
34.115,0.052
34.120,0.041
34.125,0.028
34.130,0.027
34.135,0.034
34.140,0.047
34.145,0.056
34.150,0.054
34.155,0.056
34.160,0.053
34.165,0.046
34.170,0.047
34.175,0.049
34.180,0.058
34.185,0.061
34.190,0.057
34.195,0.056
34.200,0.059
34.205,0.062
34.210,0.054
34.215,0.053
34.220,0.060
34.225,0.064
34.230,0.070
34.235,0.065
34.240,0.056
34.245,0.055
34.250,0.055
34.255,0.060
34.260,0.055
34.265,0.053
34.270,0.058
34.275,0.061
34.280,0.074
34.285,0.078
34.290,0.069
34.295,0.069
34.300,0.072
34.305,0.071
34.310,0.071
34.315,0.083
34.320,0.093
34.325,0.092
34.330,0.099
34.335,0.094
34.340,0.075
34.345,0.063
34.350,0.052
34.355,0.055
34.360,0.065
34.365,0.059
34.370,0.041
34.375,0.023
34.380,0.012
34.385,0.006
34.390,0.000
34.395,-0.013
34.400,-0.017
34.405,-0.005
34.410,-0.009
34.415,-0.013
34.420,-0.004
34.425,-0.010
34.430,-0.016
34.435,-0.011
34.440,-0.003
34.445,0.001
34.450,-0.005
34.455,-0.007
34.460,-0.007
34.465,-0.002
34.470,0.011
34.475,0.005
34.480,-0.002
34.485,0.003
34.490,0.010
34.495,0.020
34.500,0.026
34.505,0.031
34.510,0.022
34.515,0.005
34.520,-0.006
34.525,-0.012
34.530,-0.022
34.535,-0.065
34.540,-0.111
34.545,-0.084
34.550,0.052
34.555,0.270
34.560,0.491
34.565,0.673
34.570,0.802
34.575,0.709
34.580,0.405
34.585,0.172
34.590,0.046
34.595,-0.037
34.600,-0.126
34.605,-0.255
34.610,-0.336
34.615,-0.376
34.620,-0.430
34.625,-0.453
34.630,-0.430
34.635,-0.419
34.640,-0.387
34.645,-0.290
34.650,-0.183
34.655,-0.101
34.660,-0.037
34.665,0.005
34.670,0.023
34.675,0.043
34.680,0.065
34.685,0.061
34.690,0.053
34.695,0.059
34.700,0.063
34.705,0.067
34.710,0.067
34.715,0.064
34.720,0.067
34.725,0.069
34.730,0.070
34.735,0.074
34.740,0.071
34.745,0.070
34.750,0.079
34.755,0.081
34.760,0.070
34.765,0.071
34.770,0.083
34.775,0.095
34.780,0.111
34.785,0.117
34.790,0.121
34.795,0.126
34.800,0.131
34.805,0.149
34.810,0.171
34.815,0.198
34.820,0.220
34.825,0.230
34.830,0.246
34.835,0.262
34.840,0.273
34.845,0.275
34.850,0.282
34.855,0.305
34.860,0.320
34.865,0.322
34.870,0.302
34.875,0.265
34.880,0.234
34.885,0.181
34.890,0.097
34.895,0.016
34.900,-0.056
34.905,-0.127
34.910,-0.196
34.915,-0.254
34.920,-0.293
34.925,-0.321
34.930,-0.351
34.935,-0.373
34.940,-0.377
34.945,-0.379
34.950,-0.387
34.955,-0.384
34.960,-0.376
34.965,-0.370
34.970,-0.362
34.975,-0.353
34.980,-0.325
34.985,-0.303
34.990,-0.296
34.995,-0.284
35.000,-0.270
35.005,-0.251
35.010,-0.233
35.015,-0.217
35.020,-0.195
35.025,-0.183
35.030,-0.185
35.035,-0.180
35.040,-0.166
35.045,-0.147
35.050,-0.128
35.055,-0.117
35.060,-0.108
35.065,-0.089
35.070,-0.072
35.075,-0.071
35.080,-0.061
35.085,-0.052
35.090,-0.057
35.095,-0.055
35.100,-0.046
35.105,-0.033
35.110,-0.028
35.115,-0.023
35.120,-0.010
35.125,-0.006
35.130,-0.008
35.135,-0.011
35.140,-0.016
35.145,-0.008
35.150,0.008
35.155,0.014
35.160,0.002
35.165,-0.008
35.170,0.005
35.175,0.018
35.180,0.019
35.185,0.010
35.190,0.006
35.195,0.021
35.200,0.033
35.205,0.037
35.210,0.032
35.215,0.031
35.220,0.034
35.225,0.031
35.230,0.037
35.235,0.042
35.240,0.046
35.245,0.045
35.250,0.038
35.255,0.047
35.260,0.059
35.265,0.053
35.270,0.046
35.275,0.043
35.280,0.048
35.285,0.058
35.290,0.057
35.295,0.052
35.300,0.054
35.305,0.055
35.310,0.053
35.315,0.057
35.320,0.058
35.325,0.068
35.330,0.087
35.335,0.084
35.340,0.075
35.345,0.071
35.350,0.065
35.355,0.071
35.360,0.071
35.365,0.071
35.370,0.088
35.375,0.104
35.380,0.116
35.385,0.114
35.390,0.099
35.395,0.092
35.400,0.098
35.405,0.095
35.410,0.073
35.415,0.061
35.420,0.060
35.425,0.048
35.430,0.033
35.435,0.023
35.440,0.013
35.445,-0.006
35.450,-0.015
35.455,-0.006
35.460,-0.005
35.465,0.003
35.470,0.003
35.475,0.003
35.480,0.018
35.485,0.005
35.490,-0.005
35.495,-0.001
35.500,0.000
35.505,0.012
35.510,0.013
35.515,0.005
35.520,0.011
35.525,0.014
35.530,0.017
35.535,0.027
35.540,0.024
35.545,0.019
35.550,0.024
35.555,0.022
35.560,0.020
35.565,0.025
35.570,0.025
35.575,0.021
35.580,0.006
35.585,-0.040
35.590,-0.095
35.595,-0.121
35.600,-0.064
35.605,0.117
35.610,0.364
35.615,0.580
35.620,0.751
35.625,0.846
35.630,0.683
35.635,0.353
35.640,0.124
35.645,-0.008
35.650,-0.072
35.655,-0.161
35.660,-0.302
35.665,-0.357
35.670,-0.387
35.675,-0.451
35.680,-0.461
35.685,-0.446
35.690,-0.441
35.695,-0.385
35.700,-0.278
35.705,-0.171
35.710,-0.101
35.715,-0.052
35.720,-0.007
35.725,0.010
35.730,0.022
35.735,0.032
35.740,0.020
35.745,0.023
35.750,0.037
35.755,0.033
35.760,0.028
35.765,0.035
35.770,0.042
35.775,0.044
35.780,0.052
35.785,0.048
35.790,0.040
35.795,0.046
35.800,0.055
35.805,0.066
35.810,0.069
35.815,0.068
35.820,0.074
35.825,0.083
35.830,0.088
35.835,0.089
35.840,0.098
35.845,0.111
35.850,0.124
35.855,0.138
35.860,0.149
35.865,0.166
35.870,0.190
35.875,0.210
35.880,0.233
35.885,0.260
35.890,0.276
35.895,0.295
35.900,0.319
35.905,0.335
35.910,0.342
35.915,0.344
35.920,0.341
35.925,0.320
35.930,0.277
35.935,0.223
35.940,0.160
35.945,0.088
35.950,0.007
35.955,-0.077
35.960,-0.149
35.965,-0.206
35.970,-0.257
35.975,-0.305
35.980,-0.330
35.985,-0.348
35.990,-0.364
35.995,-0.371
36.000,-0.376
36.005,-0.374
36.010,-0.370
36.015,-0.365
36.020,-0.350
36.025,-0.336
36.030,-0.328
36.035,-0.316
36.040,-0.297
36.045,-0.280
36.050,-0.265
36.055,-0.250
36.060,-0.239
36.065,-0.222
36.070,-0.207
36.075,-0.201
36.080,-0.184
36.085,-0.163
36.090,-0.150
36.095,-0.135
36.100,-0.119
36.105,-0.107
36.110,-0.099
36.115,-0.088
36.120,-0.070
36.125,-0.061
36.130,-0.059
36.135,-0.058
36.140,-0.048
36.145,-0.030
36.150,-0.020
36.155,-0.015
36.160,-0.013
36.165,-0.008
36.170,-0.003
36.175,-0.001
36.180,0.006
36.185,0.013
36.190,0.019
36.195,0.026
36.200,0.027
36.205,0.024
36.210,0.023
36.215,0.025
36.220,0.031
36.225,0.035
36.230,0.037
36.235,0.039
36.240,0.037
36.245,0.038
36.250,0.045
36.255,0.049
36.260,0.048
36.265,0.052
36.270,0.056
36.275,0.049
36.280,0.049
36.285,0.053
36.290,0.049
36.295,0.051
36.300,0.056
36.305,0.058
36.310,0.054
36.315,0.048
36.320,0.049
36.325,0.051
36.330,0.053
36.335,0.056
36.340,0.059
36.345,0.061
36.350,0.063
36.355,0.065
36.360,0.061
36.365,0.059
36.370,0.061
36.375,0.062
36.380,0.068
36.385,0.069
36.390,0.066
36.395,0.064
36.400,0.063
36.405,0.068
36.410,0.073
36.415,0.078
36.420,0.081
36.425,0.077
36.430,0.079
36.435,0.083
36.440,0.086
36.445,0.096
36.450,0.098
36.455,0.096
36.460,0.087
36.465,0.073
36.470,0.074
36.475,0.071
36.480,0.065
36.485,0.062
36.490,0.047
36.495,0.034
36.500,0.027
36.505,0.021
36.510,0.007
36.515,-0.008
36.520,-0.017
36.525,-0.024
36.530,-0.019
36.535,-0.016
36.540,-0.018
36.545,-0.011
36.550,-0.010
36.555,-0.014
36.560,-0.015
36.565,-0.011
36.570,-0.006
36.575,-0.004
36.580,0.000
36.585,0.004
36.590,0.002
36.595,0.003
36.600,0.007
36.605,0.009
36.610,0.001
36.615,-0.005
36.620,-0.001
36.625,0.000
36.630,0.001
36.635,0.003
36.640,0.004
36.645,0.006
36.650,0.002
36.655,-0.011
36.660,-0.056
36.665,-0.116
36.670,-0.126
36.675,-0.034
36.680,0.182
36.685,0.449
36.690,0.658
36.695,0.821
36.700,0.851
36.705,0.596
36.710,0.269
36.715,0.061
36.720,-0.062
36.725,-0.144
36.730,-0.258
36.735,-0.362
36.740,-0.404
36.745,-0.447
36.750,-0.491
36.755,-0.484
36.760,-0.454
36.765,-0.414
36.770,-0.314
36.775,-0.185
36.780,-0.091
36.785,-0.029
36.790,0.018
36.795,0.042
36.800,0.053
36.805,0.066
36.810,0.066
36.815,0.062
36.820,0.070
36.825,0.073
36.830,0.069
36.835,0.067
36.840,0.063
36.845,0.063
36.850,0.061
36.855,0.058
36.860,0.056
36.865,0.058
36.870,0.061
36.875,0.060
36.880,0.062
36.885,0.066
36.890,0.070
36.895,0.078
36.900,0.087
36.905,0.096
36.910,0.102
36.915,0.114
36.920,0.131
36.925,0.141
36.930,0.153
36.935,0.167
36.940,0.183
36.945,0.206
36.950,0.227
36.955,0.250
36.960,0.272
36.965,0.298
36.970,0.323
36.975,0.334
36.980,0.347
36.985,0.357
36.990,0.356
36.995,0.349
37.000,0.324
37.005,0.279
37.010,0.215
37.015,0.142
37.020,0.067
37.025,-0.018
37.030,-0.099
37.035,-0.170
37.040,-0.237
37.045,-0.296
37.050,-0.344
37.055,-0.375
37.060,-0.399
37.065,-0.416
37.070,-0.420
37.075,-0.421
37.080,-0.415
37.085,-0.405
37.090,-0.396
37.095,-0.386
37.100,-0.378
37.105,-0.364
37.110,-0.346
37.115,-0.327
37.120,-0.308
37.125,-0.294
37.130,-0.275
37.135,-0.255
37.140,-0.239
37.145,-0.220
37.150,-0.205
37.155,-0.193
37.160,-0.182
37.165,-0.170
37.170,-0.155
37.175,-0.147
37.180,-0.135
37.185,-0.119
37.190,-0.111
37.195,-0.099
37.200,-0.088
37.205,-0.079
37.210,-0.074
37.215,-0.072
37.220,-0.064
37.225,-0.058
37.230,-0.053
37.235,-0.045
37.240,-0.042
37.245,-0.034
37.250,-0.028
37.255,-0.027
37.260,-0.024
37.265,-0.022
37.270,-0.019
37.275,-0.015
37.280,-0.009
37.285,-0.003
37.290,0.002
37.295,0.008
37.300,0.009
37.305,0.008
37.310,0.011
37.315,0.017
37.320,0.019
37.325,0.014
37.330,0.014
37.335,0.022
37.340,0.026
37.345,0.030
37.350,0.038
37.355,0.048
37.360,0.048
37.365,0.047
37.370,0.050
37.375,0.047
37.380,0.048
37.385,0.050
37.390,0.048
37.395,0.052
37.400,0.057
37.405,0.058
37.410,0.054
37.415,0.050
37.420,0.051
37.425,0.050
37.430,0.055
37.435,0.059
37.440,0.057
37.445,0.059
37.450,0.060
37.455,0.061
37.460,0.062
37.465,0.062
37.470,0.066
37.475,0.064
37.480,0.063
37.485,0.065
37.490,0.064
37.495,0.069
37.500,0.076
37.505,0.084
37.510,0.084
37.515,0.080
37.520,0.083
37.525,0.082
37.530,0.082
37.535,0.087
37.540,0.094
37.545,0.107
37.550,0.110
37.555,0.099
37.560,0.085
37.565,0.077
37.570,0.074
37.575,0.068
37.580,0.067
37.585,0.066
37.590,0.059
37.595,0.046
37.600,0.028
37.605,0.018
37.610,0.007
37.615,-0.006
37.620,-0.011
37.625,-0.017
37.630,-0.013
37.635,-0.006
37.640,-0.005
37.645,0.001
37.650,0.005
37.655,0.000
37.660,-0.008
37.665,-0.010
37.670,-0.003
37.675,-0.001
37.680,0.002
37.685,0.006
37.690,0.002
37.695,0.000
37.700,0.003
37.705,0.005
37.710,0.006
37.715,0.006
37.720,0.010
37.725,0.014
37.730,0.018
37.735,0.016
37.740,0.012
37.745,0.012
37.750,0.010
37.755,-0.014
37.760,-0.070
37.765,-0.127
37.770,-0.123
37.775,-0.011
37.780,0.218
37.785,0.487
37.790,0.691
37.795,0.839
37.800,0.812
37.805,0.520
37.810,0.218
37.815,0.034
37.820,-0.072
37.825,-0.160
37.830,-0.288
37.835,-0.373
37.840,-0.406
37.845,-0.458
37.850,-0.501
37.855,-0.490
37.860,-0.451
37.865,-0.388
37.870,-0.270
37.875,-0.143
37.880,-0.062
37.885,-0.008
37.890,0.032
37.895,0.050
37.900,0.055
37.905,0.063
37.910,0.067
37.915,0.072
37.920,0.076
37.925,0.063
37.930,0.057
37.935,0.065
37.940,0.070
37.945,0.068
37.950,0.062
37.955,0.062
37.960,0.065
37.965,0.064
37.970,0.063
37.975,0.062
37.980,0.066
37.985,0.072
37.990,0.077
37.995,0.084
38.000,0.091
38.005,0.101
38.010,0.108
38.015,0.117
38.020,0.130
38.025,0.145
38.030,0.165
38.035,0.180
38.040,0.190
38.045,0.209
38.050,0.234
38.055,0.256
38.060,0.271
38.065,0.289
38.070,0.312
38.075,0.326
38.080,0.348
38.085,0.363
38.090,0.355
38.095,0.338
38.100,0.310
38.105,0.267
38.110,0.208
38.115,0.134
38.120,0.058
38.125,-0.020
38.130,-0.097
38.135,-0.172
38.140,-0.236
38.145,-0.285
38.150,-0.327
38.155,-0.359
38.160,-0.387
38.165,-0.408
38.170,-0.412
38.175,-0.416
38.180,-0.416
38.185,-0.405
38.190,-0.397
38.195,-0.387
38.200,-0.374
38.205,-0.355
38.210,-0.338
38.215,-0.324
38.220,-0.306
38.225,-0.292
38.230,-0.278
38.235,-0.257
38.240,-0.242
38.245,-0.222
38.250,-0.204
38.255,-0.200
38.260,-0.187
38.265,-0.176
38.270,-0.171
38.275,-0.158
38.280,-0.139
38.285,-0.122
38.290,-0.110
38.295,-0.100
38.300,-0.097
38.305,-0.099
38.310,-0.098
38.315,-0.090
38.320,-0.076
38.325,-0.062
38.330,-0.048
38.335,-0.032
38.340,-0.029
38.345,-0.042
38.350,-0.048
38.355,-0.041
38.360,-0.033
38.365,-0.019
38.370,0.000
38.375,0.004
38.380,0.004
38.385,0.002
38.390,-0.004
38.395,0.007
38.400,0.017
38.405,0.015
38.410,0.022
38.415,0.026
38.420,0.029
38.425,0.034
38.430,0.042
38.435,0.044
38.440,0.039
38.445,0.041
38.450,0.050
38.455,0.058
38.460,0.056
38.465,0.049
38.470,0.051
38.475,0.050
38.480,0.048
38.485,0.052
38.490,0.053
38.495,0.059
38.500,0.071
38.505,0.069
38.510,0.063
38.515,0.068
38.520,0.066
38.525,0.059
38.530,0.058
38.535,0.055
38.540,0.061
38.545,0.070
38.550,0.070
38.555,0.075
38.560,0.077
38.565,0.068
38.570,0.068
38.575,0.065
38.580,0.062
38.585,0.075
38.590,0.090
38.595,0.093
38.600,0.088
38.605,0.087
38.610,0.088
38.615,0.086
38.620,0.088
38.625,0.091
38.630,0.100
38.635,0.105
38.640,0.097
38.645,0.097
38.650,0.098
38.655,0.091
38.660,0.080
38.665,0.072
38.670,0.058
38.675,0.037
38.680,0.031
38.685,0.031
38.690,0.013
38.695,-0.002
38.700,-0.001
38.705,-0.006
38.710,-0.014
38.715,-0.013
38.720,-0.009
38.725,-0.008
38.730,-0.007
38.735,-0.007
38.740,0.001
38.745,0.011
38.750,0.007
38.755,0.005
38.760,0.006
38.765,-0.004
38.770,-0.005
38.775,-0.002
38.780,0.009
38.785,0.025
38.790,0.020
38.795,0.013
38.800,0.024
38.805,0.026
38.810,0.018
38.815,0.015
38.820,0.011
38.825,0.011
38.830,0.017
38.835,0.003
38.840,-0.042
38.845,-0.090
38.850,-0.087
38.855,0.016
38.860,0.216
38.865,0.442
38.870,0.630
38.875,0.783
38.880,0.764
38.885,0.474
38.890,0.191
38.895,0.054
38.900,-0.013
38.905,-0.081
38.910,-0.216
38.915,-0.323
38.920,-0.364
38.925,-0.417
38.930,-0.459
38.935,-0.449
38.940,-0.431
38.945,-0.400
38.950,-0.312
38.955,-0.195
38.960,-0.109
38.965,-0.048
38.970,0.000
38.975,0.016
38.980,0.027
38.985,0.043
38.990,0.051
38.995,0.059
39.000,0.068
39.005,0.068
39.010,0.062
39.015,0.067
39.020,0.070
39.025,0.059
39.030,0.059
39.035,0.063
39.040,0.061
39.045,0.066
39.050,0.071
39.055,0.064
39.060,0.055
39.065,0.068
39.070,0.090
39.075,0.090
39.080,0.086
39.085,0.091
39.090,0.095
39.095,0.099
39.100,0.104
39.105,0.124
39.110,0.150
39.115,0.167
39.120,0.182
39.125,0.191
39.130,0.205
39.135,0.233
39.140,0.254
39.145,0.268
39.150,0.282
39.155,0.291
39.160,0.303
39.165,0.318
39.170,0.316
39.175,0.295
39.180,0.270
39.185,0.227
39.190,0.170
39.195,0.111
39.200,0.038
39.205,-0.039
39.210,-0.116
39.215,-0.193
39.220,-0.247
39.225,-0.288
39.230,-0.324
39.235,-0.350
39.240,-0.366
39.245,-0.373
39.250,-0.380
39.255,-0.385
39.260,-0.380
39.265,-0.373
39.270,-0.366
39.275,-0.365
39.280,-0.365
39.285,-0.349
39.290,-0.327
39.295,-0.304
39.300,-0.281
39.305,-0.255
39.310,-0.241
39.315,-0.245
39.320,-0.230
39.325,-0.210
39.330,-0.196
39.335,-0.176
39.340,-0.165
39.345,-0.152
39.350,-0.138
39.355,-0.134
39.360,-0.132
39.365,-0.118
39.370,-0.107
39.375,-0.101
39.380,-0.084
39.385,-0.071
39.390,-0.069
39.395,-0.063
39.400,-0.054
39.405,-0.042
39.410,-0.040
39.415,-0.035
39.420,-0.025
39.425,-0.016
39.430,-0.011
39.435,-0.013
39.440,-0.016
39.445,-0.011
39.450,-0.005
39.455,-0.005
39.460,-0.003
39.465,0.001
39.470,0.006
39.475,0.003
39.480,0.013
39.485,0.026
39.490,0.019
39.495,0.012
39.500,0.019
39.505,0.024
39.510,0.024
39.515,0.033
39.520,0.042
39.525,0.041
39.530,0.038
39.535,0.029
39.540,0.025
39.545,0.038
39.550,0.040
39.555,0.044
39.560,0.053
39.565,0.042
39.570,0.039
39.575,0.045
39.580,0.044
39.585,0.054
39.590,0.060
39.595,0.062
39.600,0.058
39.605,0.046
39.610,0.044
39.615,0.056
39.620,0.070
39.625,0.076
39.630,0.074
39.635,0.063
39.640,0.057
39.645,0.076
39.650,0.083
39.655,0.080
39.660,0.085
39.665,0.090
39.670,0.100
39.675,0.098
39.680,0.086
39.685,0.084
39.690,0.081
39.695,0.075
39.700,0.074
39.705,0.071
39.710,0.057
39.715,0.041
39.720,0.033
39.725,0.018
39.730,0.004
39.735,-0.011
39.740,-0.028
39.745,-0.027
39.750,-0.019
39.755,-0.016
39.760,-0.013
39.765,-0.007
39.770,-0.007
39.775,-0.016
39.780,-0.013
39.785,-0.006
39.790,-0.009
39.795,-0.007
39.800,-0.002
39.805,-0.006
39.810,-0.008
39.815,-0.001
39.820,0.002
39.825,0.000
39.830,0.002
39.835,0.010
39.840,0.011
39.845,0.011
39.850,0.012
39.855,0.015
39.860,0.015
39.865,0.010
39.870,0.011
39.875,-0.001
39.880,-0.049
39.885,-0.106
39.890,-0.110
39.895,0.001
39.900,0.229
39.905,0.491
39.910,0.690
39.915,0.839
39.920,0.831
39.925,0.548
39.930,0.248
39.935,0.072
39.940,-0.031
39.945,-0.097
39.950,-0.215
39.955,-0.316
39.960,-0.351
39.965,-0.393
39.970,-0.430
39.975,-0.424
39.980,-0.410
39.985,-0.386
39.990,-0.301
39.995,-0.179
40.000,-0.084
40.005,-0.017
40.010,0.026
40.015,0.042
40.020,0.056
40.025,0.073
40.030,0.085
40.035,0.086
40.040,0.084
40.045,0.086
40.050,0.087
40.055,0.092
40.060,0.090
40.065,0.086
40.070,0.094
40.075,0.090
40.080,0.087
40.085,0.092
40.090,0.092
40.095,0.096
40.100,0.096
40.105,0.096
40.110,0.099
40.115,0.101
40.120,0.109
40.125,0.120
40.130,0.132
40.135,0.141
40.140,0.147
40.145,0.160
40.150,0.175
40.155,0.194
40.160,0.212
40.165,0.225
40.170,0.245
40.175,0.267
40.180,0.289
40.185,0.308
40.190,0.324
40.195,0.343
40.200,0.352
40.205,0.349
40.210,0.340
40.215,0.323
40.220,0.298
40.225,0.253
40.230,0.191
40.235,0.113
40.240,0.026
40.245,-0.048
40.250,-0.116
40.255,-0.185
40.260,-0.246
40.265,-0.294
40.270,-0.328
40.275,-0.360
40.280,-0.378
40.285,-0.385
40.290,-0.394
40.295,-0.397
40.300,-0.392
40.305,-0.378
40.310,-0.362
40.315,-0.352
40.320,-0.341
40.325,-0.331
40.330,-0.317
40.335,-0.299
40.340,-0.288
40.345,-0.275
40.350,-0.255
40.355,-0.238
40.360,-0.224
40.365,-0.208
40.370,-0.194
40.375,-0.185
40.380,-0.173
40.385,-0.160
40.390,-0.147
40.395,-0.131
40.400,-0.119
40.405,-0.114
40.410,-0.107
40.415,-0.095
40.420,-0.083
40.425,-0.076
40.430,-0.066
40.435,-0.057
40.440,-0.055
40.445,-0.046
40.450,-0.039
40.455,-0.034
40.460,-0.030
40.465,-0.026
40.470,-0.016
40.475,-0.013
40.480,-0.013
40.485,-0.010
40.490,-0.011
40.495,-0.005
40.500,0.002
40.505,0.002
40.510,0.004
40.515,0.009
40.520,0.012
40.525,0.009
40.530,0.007
40.535,0.012
40.540,0.018
40.545,0.023
40.550,0.024
40.555,0.026
40.560,0.029
40.565,0.032
40.570,0.037
40.575,0.037
40.580,0.038
40.585,0.044
40.590,0.042
40.595,0.039
40.600,0.039
40.605,0.038
40.610,0.041
40.615,0.043
40.620,0.042
40.625,0.040
40.630,0.042
40.635,0.043
40.640,0.041
40.645,0.043
40.650,0.046
40.655,0.049
40.660,0.050
40.665,0.046
40.670,0.050
40.675,0.052
40.680,0.050
40.685,0.054
40.690,0.055
40.695,0.059
40.700,0.058
40.705,0.050
40.710,0.051
40.715,0.059
40.720,0.067
40.725,0.068
40.730,0.071
40.735,0.074
40.740,0.069
40.745,0.066
40.750,0.071
40.755,0.079
40.760,0.090
40.765,0.094
40.770,0.096
40.775,0.090
40.780,0.079
40.785,0.072
40.790,0.061
40.795,0.056
40.800,0.054
40.805,0.045
40.810,0.036
40.815,0.026
40.820,0.018
40.825,0.003
40.830,-0.013
40.835,-0.021
40.840,-0.024
40.845,-0.019
40.850,-0.014
40.855,-0.012
40.860,-0.012
40.865,-0.010
40.870,-0.008
40.875,-0.012
40.880,-0.008
40.885,0.001
40.890,-0.001
40.895,-0.005
40.900,-0.009
40.905,-0.008
40.910,0.000
40.915,0.004
40.920,0.006
40.925,0.010
40.930,0.013
40.935,0.012
40.940,0.004
40.945,0.002
40.950,0.003
40.955,0.005
40.960,0.008
40.965,0.007
40.970,-0.006
40.975,-0.054
40.980,-0.114
40.985,-0.130
40.990,-0.052
40.995,0.152
41.000,0.420
41.005,0.637
41.010,0.802
41.015,0.856
41.020,0.639
41.025,0.311
41.030,0.094
41.035,-0.039
41.040,-0.130
41.045,-0.246
41.050,-0.353
41.055,-0.390
41.060,-0.433
41.065,-0.487
41.070,-0.486
41.075,-0.456
41.080,-0.419
41.085,-0.329
41.090,-0.199
41.095,-0.099
41.100,-0.038
41.105,0.013
41.110,0.041
41.115,0.047
41.120,0.057
41.125,0.064
41.130,0.067
41.135,0.073
41.140,0.071
41.145,0.069
41.150,0.069
41.155,0.067
41.160,0.066
41.165,0.066
41.170,0.067
41.175,0.063
41.180,0.065
41.185,0.071
41.190,0.067
41.195,0.067
41.200,0.072
41.205,0.075
41.210,0.081
41.215,0.089
41.220,0.099
41.225,0.109
41.230,0.119
41.235,0.132
41.240,0.140
41.245,0.154
41.250,0.173
41.255,0.191
41.260,0.213
41.265,0.235
41.270,0.258
41.275,0.277
41.280,0.298
41.285,0.322
41.290,0.339
41.295,0.357
41.300,0.367
41.305,0.367
41.310,0.360
41.315,0.335
41.320,0.295
41.325,0.231
41.330,0.156
41.335,0.079
41.340,-0.006
41.345,-0.085
41.350,-0.157
41.355,-0.224
41.360,-0.283
41.365,-0.334
41.370,-0.368
41.375,-0.392
41.380,-0.409
41.385,-0.417
41.390,-0.421
41.395,-0.415
41.400,-0.403
41.405,-0.392
41.410,-0.382
41.415,-0.373
41.420,-0.362
41.425,-0.347
41.430,-0.326
41.435,-0.306
41.440,-0.295
41.445,-0.280
41.450,-0.263
41.455,-0.248
41.460,-0.228
41.465,-0.211
41.470,-0.196
41.475,-0.183
41.480,-0.168
41.485,-0.154
41.490,-0.145
41.495,-0.137
41.500,-0.127
41.505,-0.112
41.510,-0.096
41.515,-0.085
41.520,-0.077
41.525,-0.072
41.530,-0.062
41.535,-0.050
41.540,-0.049
41.545,-0.047
41.550,-0.038
41.555,-0.031
41.560,-0.025
41.565,-0.021
41.570,-0.016
41.575,-0.016
41.580,-0.015
41.585,-0.008
41.590,-0.006
41.595,-0.004
41.600,-0.001
41.605,0.002
41.610,0.006
41.615,0.008
41.620,0.011
41.625,0.012
41.630,0.016
41.635,0.019
41.640,0.019
41.645,0.025
41.650,0.030
41.655,0.032
41.660,0.037
41.665,0.041
41.670,0.041
41.675,0.039
41.680,0.044
41.685,0.053
41.690,0.054
41.695,0.056
41.700,0.057
41.705,0.053
41.710,0.052
41.715,0.057
41.720,0.059
41.725,0.053
41.730,0.051
41.735,0.054
41.740,0.054
41.745,0.054
41.750,0.055
41.755,0.056
41.760,0.058
41.765,0.057
41.770,0.056
41.775,0.052
41.780,0.053
41.785,0.057
41.790,0.056
41.795,0.056
41.800,0.057
41.805,0.055
41.810,0.052
41.815,0.048
41.820,0.055
41.825,0.070
41.830,0.077
41.835,0.071
41.840,0.063
41.845,0.062
41.850,0.064
41.855,0.064
41.860,0.065
41.865,0.082
41.870,0.103
41.875,0.104
41.880,0.095
41.885,0.085
41.890,0.070
41.895,0.070
41.900,0.073
41.905,0.069
41.910,0.065
41.915,0.056
41.920,0.040
41.925,0.019
41.930,0.008
41.935,0.004
41.940,-0.002
41.945,-0.005
41.950,-0.009
41.955,-0.011
41.960,-0.014
41.965,-0.021
41.970,-0.021
41.975,-0.014
41.980,-0.003
41.985,0.000
41.990,-0.008
41.995,-0.010
42.000,-0.008
42.005,-0.001
42.010,0.008
42.015,0.004
42.020,0.006
42.025,0.011
42.030,0.012
42.035,0.014
42.040,0.003
42.045,0.002
42.050,0.014
42.055,0.022
42.060,0.029
42.065,0.022
42.070,0.006
42.075,-0.002
42.080,-0.003
42.085,-0.021
42.090,-0.070
42.095,-0.118
42.100,-0.106
42.105,0.014
42.110,0.238
42.115,0.487
42.120,0.680
42.125,0.811
42.130,0.756
42.135,0.463
42.140,0.191
42.145,0.031
42.150,-0.067
42.155,-0.154
42.160,-0.272
42.165,-0.340
42.170,-0.367
42.175,-0.426
42.180,-0.468
42.185,-0.446
42.190,-0.427
42.195,-0.396
42.200,-0.291
42.205,-0.166
42.210,-0.086
42.215,-0.030
42.220,0.017
42.225,0.040
42.230,0.052
42.235,0.056
42.240,0.044
42.245,0.043
42.250,0.048
42.255,0.052
42.260,0.062
42.265,0.073
42.270,0.080
42.275,0.074
42.280,0.063
42.285,0.061
42.290,0.056
42.295,0.060
42.300,0.070
42.305,0.073
42.310,0.079
42.315,0.092
42.320,0.098
42.325,0.096
42.330,0.093
42.335,0.098
42.340,0.104
42.345,0.115
42.350,0.132
42.355,0.151
42.360,0.172
42.365,0.190
42.370,0.210
42.375,0.229
42.380,0.234
42.385,0.241
42.390,0.263
42.395,0.300
42.400,0.330
42.405,0.347
42.410,0.360
42.415,0.365
42.420,0.365
42.425,0.340
42.430,0.300
42.435,0.251
42.440,0.183
42.445,0.121
42.450,0.054
42.455,-0.030
42.460,-0.103
42.465,-0.176
42.470,-0.251
42.475,-0.313
42.480,-0.354
42.485,-0.375
42.490,-0.392
42.495,-0.397
42.500,-0.394
42.505,-0.392
42.510,-0.393
42.515,-0.399
42.520,-0.398
42.525,-0.389
42.530,-0.378
42.535,-0.363
42.540,-0.343
42.545,-0.313
42.550,-0.282
42.555,-0.268
42.560,-0.269
42.565,-0.268
42.570,-0.256
42.575,-0.246
42.580,-0.226
42.585,-0.198
42.590,-0.183
42.595,-0.165
42.600,-0.146
42.605,-0.138
42.610,-0.128
42.615,-0.122
42.620,-0.124
42.625,-0.127
42.630,-0.123
42.635,-0.110
42.640,-0.093
42.645,-0.077
42.650,-0.065
42.655,-0.054
42.660,-0.042
42.665,-0.036
42.670,-0.031
42.675,-0.033
42.680,-0.035
42.685,-0.031
42.690,-0.028
42.695,-0.017
42.700,-0.001
42.705,0.010
42.710,0.018
42.715,0.025
42.720,0.024
42.725,0.015
42.730,0.009
42.735,0.005
42.740,0.004
42.745,0.010
42.750,0.016
42.755,0.024
42.760,0.037
42.765,0.048
42.770,0.046
42.775,0.042
42.780,0.047
42.785,0.054
42.790,0.053
42.795,0.051
42.800,0.047
42.805,0.045
42.810,0.048
42.815,0.048
42.820,0.050
42.825,0.053
42.830,0.057
42.835,0.065
42.840,0.065
42.845,0.057
42.850,0.060
42.855,0.062
42.860,0.054
42.865,0.054
42.870,0.057
42.875,0.056
42.880,0.059
42.885,0.059
42.890,0.064
42.895,0.076
42.900,0.082
42.905,0.084
42.910,0.082
42.915,0.081
42.920,0.092
42.925,0.100
42.930,0.105
42.935,0.096
42.940,0.082
42.945,0.087
42.950,0.085
42.955,0.079
42.960,0.075
42.965,0.066
42.970,0.065
42.975,0.056
42.980,0.042
42.985,0.030
42.990,0.008
42.995,-0.012
43.000,-0.017
43.005,-0.012
43.010,-0.004
43.015,0.002
43.020,0.010
43.025,0.007
43.030,0.004
43.035,0.007
43.040,0.008
43.045,0.017
43.050,0.015
43.055,0.009
43.060,0.015
43.065,0.019
43.070,0.023
43.075,0.024
43.080,0.021
43.085,0.016
43.090,0.016
43.095,0.022
43.100,0.027
43.105,0.026
43.110,0.027
43.115,0.033
43.120,0.035
43.125,0.030
43.130,0.017
43.135,-0.008
43.140,-0.054
43.145,-0.103
43.150,-0.078
43.155,0.072
43.160,0.308
43.165,0.545
43.170,0.710
43.175,0.817
43.180,0.723
43.185,0.402
43.190,0.147
43.195,0.019
43.200,-0.049
43.205,-0.127
43.210,-0.255
43.215,-0.334
43.220,-0.367
43.225,-0.409
43.230,-0.431
43.235,-0.424
43.240,-0.425
43.245,-0.389
43.250,-0.282
43.255,-0.179
43.260,-0.103
43.265,-0.035
43.270,0.007
43.275,0.021
43.280,0.038
43.285,0.055
43.290,0.048
43.295,0.048
43.300,0.064
43.305,0.064
43.310,0.061
43.315,0.071
43.320,0.076
43.325,0.067
43.330,0.061
43.335,0.069
43.340,0.072
43.345,0.072
43.350,0.074
43.355,0.076
43.360,0.077
43.365,0.074
43.370,0.073
43.375,0.081
43.380,0.096
43.385,0.105
43.390,0.107
43.395,0.113
43.400,0.124
43.405,0.140
43.410,0.155
43.415,0.167
43.420,0.190
43.425,0.209
43.430,0.226
43.435,0.247
43.440,0.258
43.445,0.276
43.450,0.295
43.455,0.307
43.460,0.320
43.465,0.320
43.470,0.313
43.475,0.293
43.480,0.258
43.485,0.210
43.490,0.137
43.495,0.053
43.500,-0.022
43.505,-0.098
43.510,-0.171
43.515,-0.235
43.520,-0.294
43.525,-0.341
43.530,-0.371
43.535,-0.395
43.540,-0.412
43.545,-0.419
43.550,-0.419
43.555,-0.413
43.560,-0.410
43.565,-0.403
43.570,-0.391
43.575,-0.382
43.580,-0.370
43.585,-0.355
43.590,-0.339
43.595,-0.312
43.600,-0.293
43.605,-0.287
43.610,-0.273
43.615,-0.257
43.620,-0.238
43.625,-0.220
43.630,-0.203
43.635,-0.183
43.640,-0.171
43.645,-0.155
43.650,-0.137
43.655,-0.125
43.660,-0.112
43.665,-0.102
43.670,-0.085
43.675,-0.071
43.680,-0.064
43.685,-0.052
43.690,-0.043
43.695,-0.030
43.700,-0.017
43.705,-0.016
43.710,-0.011
43.715,0.002
43.720,0.014
43.725,0.019
43.730,0.018
43.735,0.019
43.740,0.020
43.745,0.023
43.750,0.022
43.755,0.021
43.760,0.029
43.765,0.031
43.770,0.026
43.775,0.024
43.780,0.025
43.785,0.026
43.790,0.028
43.795,0.031
43.800,0.032
43.805,0.035
43.810,0.039
43.815,0.041
43.820,0.045
43.825,0.049
43.830,0.056
43.835,0.065
43.840,0.062
43.845,0.061
43.850,0.065
43.855,0.061
43.860,0.059
43.865,0.065
43.870,0.075
43.875,0.076
43.880,0.074
43.885,0.073
43.890,0.068
43.895,0.068
43.900,0.067
43.905,0.066
43.910,0.073
43.915,0.079
43.920,0.079
43.925,0.077
43.930,0.077
43.935,0.078
43.940,0.072
43.945,0.071
43.950,0.078
43.955,0.085
43.960,0.096
43.965,0.100
43.970,0.096
43.975,0.091
43.980,0.087
43.985,0.086
43.990,0.093
43.995,0.109
44.000,0.123
44.005,0.124
44.010,0.115
44.015,0.098
44.020,0.090
44.025,0.086
44.030,0.081
44.035,0.081
44.040,0.069
44.045,0.056
44.050,0.053
44.055,0.044
44.060,0.028
44.065,0.008
44.070,-0.005
44.075,-0.009
44.080,-0.004
44.085,0.000
44.090,-0.002
44.095,0.003
44.100,0.006
44.105,0.003
44.110,0.003
44.115,0.003
44.120,0.002
44.125,0.000
44.130,-0.002
44.135,0.001
44.140,0.005
44.145,0.012
44.150,0.018
44.155,0.012
44.160,0.007
44.165,0.009
44.170,0.011
44.175,0.013
44.180,0.017
44.185,0.020
44.190,0.014
44.195,0.008
44.200,0.006
44.205,0.004
44.210,-0.013
44.215,-0.065
44.220,-0.119
44.225,-0.116
44.230,-0.014
44.235,0.201
44.240,0.457
44.245,0.665
44.250,0.828
44.255,0.839
44.260,0.574
44.265,0.259
44.270,0.060
44.275,-0.065
44.280,-0.145
44.285,-0.260
44.290,-0.359
44.295,-0.390
44.300,-0.434
44.305,-0.485
44.310,-0.480
44.315,-0.453
44.320,-0.419
44.325,-0.324
44.330,-0.191
44.335,-0.094
44.340,-0.040
44.345,0.006
44.350,0.032
44.355,0.041
44.360,0.054
44.365,0.058
44.370,0.059
44.375,0.067
44.380,0.071
44.385,0.069
44.390,0.065
44.395,0.064
44.400,0.064
44.405,0.063
44.410,0.066
44.415,0.067
44.420,0.067
44.425,0.063
44.430,0.060
44.435,0.065
44.440,0.068
44.445,0.075
44.450,0.085
44.455,0.090
44.460,0.098
44.465,0.108
44.470,0.119
44.475,0.129
44.480,0.138
44.485,0.153
44.490,0.172
44.495,0.195
44.500,0.214
44.505,0.230
44.510,0.258
44.515,0.287
44.520,0.308
44.525,0.320
44.530,0.333
44.535,0.351
44.540,0.359
44.545,0.361
44.550,0.352
44.555,0.320
44.560,0.270
44.565,0.208
44.570,0.131
44.575,0.045
44.580,-0.044
44.585,-0.126
44.590,-0.198
44.595,-0.258
44.600,-0.310
44.605,-0.356
44.610,-0.389
44.615,-0.414
44.620,-0.428
44.625,-0.431
44.630,-0.430
44.635,-0.423
44.640,-0.418
44.645,-0.408
44.650,-0.391
44.655,-0.383
44.660,-0.372
44.665,-0.354
44.670,-0.333
44.675,-0.311
44.680,-0.293
44.685,-0.281
44.690,-0.273
44.695,-0.254
44.700,-0.232
44.705,-0.219
44.710,-0.205
44.715,-0.190
44.720,-0.174
44.725,-0.160
44.730,-0.152
44.735,-0.143
44.740,-0.135
44.745,-0.121
44.750,-0.106
44.755,-0.098
44.760,-0.088
44.765,-0.078
44.770,-0.070
44.775,-0.062
44.780,-0.056
44.785,-0.050
44.790,-0.046
44.795,-0.039
44.800,-0.032
44.805,-0.030
44.810,-0.028
44.815,-0.026
44.820,-0.024
44.825,-0.020
44.830,-0.013
44.835,-0.004
44.840,-0.002
44.845,0.000
44.850,0.004
44.855,0.005
44.860,0.014
44.865,0.024
44.870,0.026
44.875,0.023
44.880,0.022
44.885,0.027
44.890,0.031
44.895,0.034
44.900,0.038
44.905,0.037
44.910,0.038
44.915,0.041
44.920,0.045
44.925,0.056
44.930,0.063
44.935,0.060
44.940,0.050
44.945,0.049
44.950,0.052
44.955,0.051
44.960,0.053
44.965,0.059
44.970,0.063
44.975,0.062
44.980,0.058
44.985,0.058
44.990,0.054
44.995,0.054
45.000,0.060
45.005,0.067
45.010,0.071
45.015,0.067
45.020,0.060
45.025,0.051
45.030,0.048
45.035,0.056
45.040,0.061
45.045,0.067
45.050,0.075
45.055,0.080
45.060,0.084
45.065,0.082
45.070,0.081
45.075,0.084
45.080,0.083
45.085,0.080
45.090,0.083
45.095,0.103
45.100,0.119
45.105,0.113
45.110,0.102
45.115,0.092
45.120,0.082
45.125,0.074
45.130,0.073
45.135,0.076
45.140,0.065
45.145,0.047
45.150,0.030
45.155,0.018
45.160,0.016
45.165,0.008
45.170,-0.002
45.175,-0.005
45.180,-0.006
45.185,-0.004
45.190,-0.001
45.195,0.003
45.200,0.005
45.205,0.001
45.210,0.005
45.215,0.011
45.220,0.013
45.225,0.012
45.230,0.010
45.235,0.012
45.240,0.009
45.245,0.008
45.250,0.016
45.255,0.017
45.260,0.011
45.265,0.007
45.270,0.014
45.275,0.025
45.280,0.026
45.285,0.020
45.290,0.013
45.295,0.017
45.300,0.023
45.305,0.007
45.310,-0.025
45.315,-0.075
45.320,-0.121
45.325,-0.101
45.330,0.035
45.335,0.271
45.340,0.513
45.345,0.701
45.350,0.832
45.355,0.750
45.360,0.443
45.365,0.179
45.370,0.022
45.375,-0.076
45.380,-0.172
45.385,-0.303
45.390,-0.376
45.395,-0.409
45.400,-0.463
45.405,-0.494
45.410,-0.474
45.415,-0.440
45.420,-0.380
45.425,-0.267
45.430,-0.144
45.435,-0.062
45.440,-0.014
45.445,0.026
45.450,0.046
45.455,0.051
45.460,0.058
45.465,0.051
45.470,0.050
45.475,0.063
45.480,0.069
45.485,0.069
45.490,0.061
45.495,0.061
45.500,0.073
45.505,0.078
45.510,0.076
45.515,0.067
45.520,0.063
45.525,0.067
45.530,0.075
45.535,0.087
45.540,0.092
45.545,0.091
45.550,0.092
45.555,0.099
45.560,0.111
45.565,0.125
45.570,0.138
45.575,0.142
45.580,0.150
45.585,0.162
45.590,0.172
45.595,0.198
45.600,0.223
45.605,0.240
45.610,0.266
45.615,0.290
