'Elapsed time','ECG'
'seconds','mV'
0.000,0.026
0.005,0.055
0.010,0.050
0.015,0.034
0.020,0.035
0.025,0.048
0.030,0.061
0.035,0.050
0.040,0.040
0.045,0.047
0.050,0.039
0.055,0.023
0.060,0.015
0.065,0.018
0.070,0.022
0.075,0.031
0.080,0.047
0.085,0.046
0.090,0.030
0.095,0.017
0.100,0.011
0.105,0.010
0.110,0.007
0.115,0.005
0.120,0.013
0.125,0.030
0.130,0.027
0.135,-0.004
0.140,-0.028
0.145,-0.033
0.150,-0.022
0.155,-0.002
0.160,0.000
0.165,-0.009
0.170,-0.017
0.175,-0.021
0.180,-0.005
0.185,0.010
0.190,-0.005
0.195,-0.021
0.200,-0.026
0.205,-0.026
0.210,-0.026
0.215,-0.040
0.220,-0.053
0.225,-0.057
0.230,-0.065
0.235,-0.077
0.240,-0.079
0.245,-0.080
0.250,-0.082
0.255,-0.077
0.260,-0.083
0.265,-0.088
0.270,-0.084
0.275,-0.080
0.280,-0.063
0.285,-0.056
0.290,-0.064
0.295,-0.055
0.300,-0.037
0.305,-0.023
0.310,-0.013
0.315,-0.005
0.320,0.017
0.325,0.033
0.330,0.031
0.335,0.038
0.340,0.047
0.345,0.047
0.350,0.039
0.355,0.034
0.360,0.048
0.365,0.057
0.370,0.045
0.375,0.036
0.380,0.032
0.385,0.042
0.390,0.049
0.395,0.041
0.400,0.040
0.405,0.038
0.410,0.033
0.415,0.029
0.420,0.022
0.425,0.021
0.430,0.027
0.435,0.022
0.440,0.020
0.445,0.027
0.450,0.022
0.455,0.012
0.460,0.004
0.465,0.001
0.470,0.015
0.475,0.029
0.480,0.026
0.485,0.009
0.490,-0.009
0.495,-0.027
0.500,-0.034
0.505,-0.019
0.510,-0.009
0.515,-0.013
0.520,-0.016
0.525,-0.008
0.530,0.005
0.535,0.008
0.540,0.006
0.545,0.012
0.550,0.009
0.555,-0.008
0.560,-0.018
0.565,-0.016
0.570,-0.016
0.575,-0.026
0.580,-0.024
0.585,-0.007
0.590,-0.002
0.595,-0.013
0.600,-0.018
0.605,-0.008
0.610,-0.006
0.615,-0.009
0.620,-0.007
0.625,-0.011
0.630,-0.027
0.635,-0.035
0.640,-0.024
0.645,0.000
0.650,0.013
0.655,0.002
0.660,-0.007
0.665,-0.009
0.670,-0.011
0.675,-0.007
0.680,-0.009
0.685,-0.020
0.690,-0.021
0.695,-0.017
0.700,-0.014
0.705,-0.010
0.710,-0.005
0.715,0.001
0.720,0.003
0.725,-0.003
0.730,-0.006
0.735,-0.005
0.740,-0.008
0.745,-0.007
0.750,-0.002
0.755,-0.005
0.760,-0.012
0.765,-0.014
0.770,-0.013
0.775,-0.015
0.780,-0.019
0.785,-0.029
0.790,-0.039
0.795,-0.050
0.800,-0.057
0.805,-0.049
0.810,-0.036
0.815,-0.031
0.820,-0.029
0.825,-0.028
0.830,-0.024
0.835,-0.015
0.840,-0.007
0.845,0.000
0.850,0.010
0.855,0.014
0.860,0.013
0.865,0.015
0.870,0.015
0.875,0.015
0.880,0.020
0.885,0.021
0.890,0.022
0.895,0.029
0.900,0.048
0.905,0.063
0.910,0.024
0.915,-0.081
0.920,-0.245
0.925,-0.443
0.930,-0.630
0.935,-0.727
0.940,-0.630
0.945,-0.399
0.950,-0.142
0.955,0.082
0.960,0.204
0.965,0.233
0.970,0.208
0.975,0.180
0.980,0.185
0.985,0.187
0.990,0.177
0.995,0.178
1.000,0.180
1.005,0.174
1.010,0.162
1.015,0.156
1.020,0.153
1.025,0.140
1.030,0.133
1.035,0.130
1.040,0.121
1.045,0.119
1.050,0.124
1.055,0.125
1.060,0.118
1.065,0.104
1.070,0.089
1.075,0.082
1.080,0.085
1.085,0.081
1.090,0.067
1.095,0.059
1.100,0.056
1.105,0.056
1.110,0.056
1.115,0.053
1.120,0.058
1.125,0.060
1.130,0.051
1.135,0.037
1.140,0.021
1.145,0.012
1.150,0.007
1.155,0.000
1.160,-0.003
1.165,-0.005
1.170,-0.006
1.175,-0.007
1.180,-0.005
1.185,-0.004
1.190,-0.008
1.195,-0.025
1.200,-0.050
1.205,-0.063
1.210,-0.064
1.215,-0.064
1.220,-0.062
1.225,-0.064
1.230,-0.070
1.235,-0.076
1.240,-0.079
1.245,-0.075
1.250,-0.062
1.255,-0.043
1.260,-0.025
1.265,-0.015
1.270,-0.010
1.275,-0.008
1.280,0.002
1.285,0.015
1.290,0.021
1.295,0.027
1.300,0.031
1.305,0.033
1.310,0.039
1.315,0.046
1.320,0.054
1.325,0.053
1.330,0.047
1.335,0.043
1.340,0.040
1.345,0.039
1.350,0.036
1.355,0.032
1.360,0.026
1.365,0.018
1.370,0.015
1.375,0.017
1.380,0.024
1.385,0.029
1.390,0.027
1.395,0.024
1.400,0.024
1.405,0.024
1.410,0.022
1.415,0.016
1.420,0.009
1.425,0.007
1.430,0.004
1.435,0.001
1.440,-0.001
1.445,0.000
1.450,0.001
1.455,-0.003
1.460,-0.006
1.465,-0.005
1.470,-0.001
1.475,-0.002
1.480,-0.006
1.485,-0.007
1.490,-0.007
1.495,-0.007
1.500,-0.009
1.505,-0.011
1.510,-0.015
1.515,-0.019
1.520,-0.018
1.525,-0.019
1.530,-0.019
1.535,-0.017
1.540,-0.017
1.545,-0.015
1.550,-0.018
1.555,-0.018
1.560,-0.011
1.565,-0.009
1.570,-0.011
1.575,-0.013
1.580,-0.016
1.585,-0.016
1.590,-0.014
1.595,-0.010
1.600,-0.011
1.605,-0.013
1.610,-0.014
1.615,-0.014
1.620,-0.015
1.625,-0.014
1.630,-0.011
1.635,-0.010
1.640,-0.014
1.645,-0.014
1.650,-0.014
1.655,-0.014
1.660,-0.011
1.665,-0.011
1.670,-0.014
1.675,-0.018
1.680,-0.019
1.685,-0.017
1.690,-0.013
1.695,-0.010
1.700,-0.007
1.705,-0.005
1.710,-0.008
1.715,-0.014
1.720,-0.015
1.725,-0.015
1.730,-0.015
1.735,-0.014
1.740,-0.013
1.745,-0.010
1.750,-0.008
1.755,-0.006
1.760,-0.007
1.765,-0.013
1.770,-0.015
1.775,-0.016
1.780,-0.018
1.785,-0.018
1.790,-0.024
1.795,-0.028
1.800,-0.031
1.805,-0.034
1.810,-0.032
1.815,-0.030
1.820,-0.032
1.825,-0.035
1.830,-0.036
1.835,-0.033
1.840,-0.027
1.845,-0.022
1.850,-0.013
1.855,-0.003
1.860,0.007
1.865,0.019
1.870,0.026
1.875,0.026
1.880,0.023
1.885,0.018
1.890,0.017
1.895,0.024
1.900,0.038
1.905,0.060
1.910,0.056
1.915,-0.012
1.920,-0.137
1.925,-0.313
1.930,-0.511
1.935,-0.678
1.940,-0.708
1.945,-0.547
1.950,-0.299
1.955,-0.052
1.960,0.129
1.965,0.208
1.970,0.227
1.975,0.205
1.980,0.187
1.985,0.193
1.990,0.185
1.995,0.173
2.000,0.174
2.005,0.175
2.010,0.171
2.015,0.169
2.020,0.166
2.025,0.157
2.030,0.147
2.035,0.137
2.040,0.123
2.045,0.115
2.050,0.113
2.055,0.110
2.060,0.106
2.065,0.103
2.070,0.100
2.075,0.093
2.080,0.084
2.085,0.081
2.090,0.079
2.095,0.073
2.100,0.065
2.105,0.058
2.110,0.057
2.115,0.058
2.120,0.057
2.125,0.047
2.130,0.036
2.135,0.032
2.140,0.033
2.145,0.034
2.150,0.030
2.155,0.020
2.160,0.005
2.165,-0.010
2.170,-0.010
2.175,-0.008
2.180,-0.015
2.185,-0.019
2.190,-0.022
2.195,-0.028
2.200,-0.039
2.205,-0.051
2.210,-0.049
2.215,-0.043
2.220,-0.049
2.225,-0.064
2.230,-0.070
2.235,-0.068
2.240,-0.068
2.245,-0.068
2.250,-0.068
2.255,-0.063
2.260,-0.052
2.265,-0.042
2.270,-0.032
2.275,-0.021
2.280,-0.011
2.285,0.001
2.290,0.018
2.295,0.030
2.300,0.028
2.305,0.022
2.310,0.023
2.315,0.029
2.320,0.034
2.325,0.034
2.330,0.033
2.335,0.031
2.340,0.025
2.345,0.022
2.350,0.027
2.355,0.028
2.360,0.024
2.365,0.024
2.370,0.020
2.375,0.014
2.380,0.015
2.385,0.017
2.390,0.019
2.395,0.018
2.400,0.010
2.405,0.004
2.410,0.006
2.415,0.007
2.420,0.012
2.425,0.019
2.430,0.023
2.435,0.017
2.440,0.001
2.445,-0.013
2.450,-0.012
2.455,-0.001
2.460,0.005
2.465,0.001
2.470,-0.002
2.475,-0.015
2.480,-0.033
2.485,-0.032
2.490,-0.016
2.495,0.003
2.500,0.008
2.505,0.000
2.510,-0.010
2.515,-0.018
2.520,-0.027
2.525,-0.030
2.530,-0.020
2.535,-0.005
2.540,-0.004
2.545,-0.016
2.550,-0.024
2.555,-0.024
2.560,-0.020
2.565,-0.012
2.570,-0.009
2.575,-0.006
2.580,-0.009
2.585,-0.021
2.590,-0.024
2.595,-0.020
2.600,-0.019
2.605,-0.014
2.610,-0.001
2.615,-0.001
2.620,-0.017
2.625,-0.031
2.630,-0.033
2.635,-0.027
2.640,-0.018
2.645,-0.009
2.650,-0.003
2.655,0.000
2.660,-0.004
2.665,-0.016
2.670,-0.020
2.675,-0.013
2.680,-0.009
2.685,-0.007
2.690,-0.014
2.695,-0.024
2.700,-0.024
2.705,-0.015
2.710,-0.011
2.715,-0.005
2.720,0.004
2.725,0.001
2.730,-0.001
2.735,-0.006
2.740,-0.022
2.745,-0.017
2.750,-0.009
2.755,-0.011
2.760,-0.012
2.765,-0.015
2.770,-0.011
2.775,-0.003
2.780,0.002
2.785,-0.001
2.790,-0.015
2.795,-0.020
2.800,-0.015
2.805,-0.012
2.810,-0.014
2.815,-0.020
2.820,-0.022
2.825,-0.023
2.830,-0.026
2.835,-0.026
2.840,-0.024
2.845,-0.029
2.850,-0.040
2.855,-0.040
2.860,-0.032
2.865,-0.027
2.870,-0.018
2.875,-0.013
2.880,-0.020
2.885,-0.012
2.890,0.017
2.895,0.030
2.900,0.026
2.905,0.025
2.910,0.029
2.915,0.035
2.920,0.026
2.925,0.019
2.930,0.036
2.935,0.064
2.940,0.062
2.945,0.001
2.950,-0.126
2.955,-0.298
2.960,-0.474
2.965,-0.642
2.970,-0.703
2.975,-0.554
2.980,-0.296
2.985,-0.045
2.990,0.136
2.995,0.214
3.000,0.233
3.005,0.207
3.010,0.163
3.015,0.166
3.020,0.183
3.025,0.172
3.030,0.169
3.035,0.180
3.040,0.175
3.045,0.164
3.050,0.158
3.055,0.149
3.060,0.144
3.065,0.137
3.070,0.130
3.075,0.121
3.080,0.109
3.085,0.100
3.090,0.089
3.095,0.093
3.100,0.110
3.105,0.109
3.110,0.091
3.115,0.070
3.120,0.069
3.125,0.086
3.130,0.091
3.135,0.078
3.140,0.059
3.145,0.052
3.150,0.050
3.155,0.041
3.160,0.030
3.165,0.018
3.170,0.014
3.175,0.018
3.180,0.016
3.185,0.016
3.190,0.026
3.195,0.032
3.200,0.018
3.205,-0.007
3.210,-0.028
3.215,-0.036
3.220,-0.027
3.225,-0.025
3.230,-0.040
3.235,-0.062
3.240,-0.083
3.245,-0.083
3.250,-0.068
3.255,-0.052
3.260,-0.052
3.265,-0.080
3.270,-0.093
3.275,-0.080
3.280,-0.062
3.285,-0.039
3.290,-0.034
3.295,-0.047
3.300,-0.043
3.305,-0.024
3.310,-0.005
3.315,0.005
3.320,0.001
3.325,0.009
3.330,0.032
3.335,0.038
3.340,0.036
3.345,0.039
3.350,0.039
3.355,0.047
3.360,0.057
3.365,0.052
3.370,0.039
3.375,0.032
3.380,0.035
3.385,0.042
3.390,0.044
3.395,0.036
3.400,0.029
3.405,0.021
3.410,0.011
3.415,0.015
3.420,0.025
3.425,0.021
3.430,0.017
3.435,0.013
3.440,0.001
3.445,0.003
3.450,0.019
3.455,0.022
3.460,0.011
3.465,-0.008
3.470,-0.017
3.475,-0.006
3.480,-0.004
3.485,-0.015
3.490,-0.014
3.495,-0.010
3.500,-0.014
3.505,-0.016
3.510,-0.012
3.515,-0.005
3.520,-0.004
3.525,-0.014
3.530,-0.026
3.535,-0.024
3.540,-0.014
3.545,-0.007
3.550,-0.002
3.555,-0.007
3.560,-0.018
3.565,-0.021
3.570,-0.025
3.575,-0.025
3.580,-0.018
3.585,-0.018
3.590,-0.023
3.595,-0.022
3.600,-0.024
3.605,-0.021
3.610,-0.017
3.615,-0.026
3.620,-0.028
3.625,-0.018
3.630,-0.011
3.635,-0.016
3.640,-0.022
3.645,-0.017
3.650,-0.012
3.655,-0.010
3.660,-0.019
3.665,-0.027
3.670,-0.026
3.675,-0.027
3.680,-0.025
3.685,-0.020
3.690,-0.017
3.695,-0.014
3.700,-0.015
3.705,-0.023
3.710,-0.025
3.715,-0.018
3.720,-0.013
3.725,-0.012
3.730,-0.012
3.735,-0.009
3.740,-0.012
3.745,-0.015
3.750,-0.017
3.755,-0.025
3.760,-0.026
3.765,-0.014
3.770,-0.004
3.775,-0.007
3.780,-0.018
3.785,-0.024
3.790,-0.019
3.795,-0.011
3.800,-0.012
3.805,-0.018
3.810,-0.024
3.815,-0.026
3.820,-0.018
3.825,-0.012
3.830,-0.019
3.835,-0.020
3.840,-0.017
3.845,-0.023
3.850,-0.033
3.855,-0.039
3.860,-0.037
3.865,-0.035
3.870,-0.038
3.875,-0.043
3.880,-0.046
3.885,-0.048
3.890,-0.038
3.895,-0.026
3.900,-0.020
3.905,-0.008
3.910,0.011
3.915,0.025
3.920,0.026
3.925,0.017
3.930,0.020
3.935,0.028
3.940,0.020
3.945,0.016
3.950,0.032
3.955,0.059
3.960,0.064
3.965,0.001
3.970,-0.124
3.975,-0.297
3.980,-0.503
3.985,-0.693
3.990,-0.756
3.995,-0.610
4.000,-0.350
4.005,-0.083
4.010,0.118
4.015,0.210
4.020,0.236
4.025,0.218
4.030,0.191
4.035,0.193
4.040,0.192
4.045,0.179
4.050,0.175
4.055,0.179
4.060,0.176
4.065,0.171
4.070,0.168
4.075,0.160
4.080,0.154
4.085,0.153
4.090,0.149
4.095,0.142
4.100,0.135
4.105,0.128
4.110,0.120
4.115,0.110
4.120,0.104
4.125,0.095
4.130,0.088
4.135,0.087
4.140,0.084
4.145,0.081
4.150,0.078
4.155,0.072
4.160,0.067
4.165,0.060
4.170,0.056
4.175,0.054
4.180,0.048
4.185,0.042
4.190,0.039
4.195,0.039
4.200,0.035
4.205,0.023
4.210,0.014
4.215,0.010
4.220,0.010
4.225,0.004
4.230,-0.007
4.235,-0.013
4.240,-0.019
4.245,-0.025
4.250,-0.031
4.255,-0.040
4.260,-0.047
4.265,-0.053
4.270,-0.061
4.275,-0.067
4.280,-0.068
4.285,-0.067
4.290,-0.069
4.295,-0.073
4.300,-0.072
4.305,-0.063
4.310,-0.050
4.315,-0.038
4.320,-0.026
4.325,-0.013
4.330,-0.001
4.335,0.010
4.340,0.018
4.345,0.021
4.350,0.018
4.355,0.024
4.360,0.041
4.365,0.048
4.370,0.048
4.375,0.043
4.380,0.036
4.385,0.035
4.390,0.031
4.395,0.030
4.400,0.035
4.405,0.034
4.410,0.028
4.415,0.024
4.420,0.022
4.425,0.024
4.430,0.024
4.435,0.024
4.440,0.025
4.445,0.025
4.450,0.024
4.455,0.021
4.460,0.023
4.465,0.025
4.470,0.015
4.475,0.004
4.480,-0.001
4.485,-0.002
4.490,-0.005
4.495,-0.010
4.500,-0.011
4.505,-0.007
4.510,-0.005
4.515,-0.009
4.520,-0.009
4.525,-0.005
4.530,-0.005
4.535,-0.011
4.540,-0.018
4.545,-0.019
4.550,-0.015
4.555,-0.010
4.560,-0.008
4.565,-0.008
4.570,-0.009
4.575,-0.011
4.580,-0.012
4.585,-0.013
4.590,-0.018
4.595,-0.018
4.600,-0.015
4.605,-0.011
4.610,-0.009
4.615,-0.015
4.620,-0.022
4.625,-0.022
4.630,-0.018
4.635,-0.015
4.640,-0.020
4.645,-0.023
4.650,-0.019
4.655,-0.014
4.660,-0.015
4.665,-0.022
4.670,-0.024
4.675,-0.019
4.680,-0.016
4.685,-0.016
4.690,-0.015
4.695,-0.012
4.700,-0.011
4.705,-0.014
4.710,-0.016
4.715,-0.018
4.720,-0.017
4.725,-0.017
4.730,-0.018
4.735,-0.017
4.740,-0.014
4.745,-0.011
4.750,-0.011
4.755,-0.012
4.760,-0.010
4.765,-0.008
4.770,-0.003
4.775,-0.001
4.780,-0.002
4.785,-0.005
4.790,-0.010
4.795,-0.014
4.800,-0.019
4.805,-0.025
4.810,-0.030
4.815,-0.032
4.820,-0.032
4.825,-0.029
4.830,-0.032
4.835,-0.040
4.840,-0.047
4.845,-0.045
4.850,-0.039
4.855,-0.032
4.860,-0.025
4.865,-0.012
4.870,0.004
4.875,0.016
4.880,0.023
4.885,0.026
4.890,0.025
4.895,0.025
4.900,0.024
4.905,0.022
4.910,0.021
4.915,0.028
4.920,0.049
4.925,0.065
4.930,0.030
4.935,-0.069
4.940,-0.226
4.945,-0.421
4.950,-0.613
4.955,-0.717
4.960,-0.631
4.965,-0.410
4.970,-0.155
4.975,0.068
4.980,0.187
4.985,0.226
4.990,0.216
4.995,0.190
5.000,0.190
5.005,0.190
5.010,0.176
5.015,0.171
5.020,0.172
5.025,0.167
5.030,0.162
5.035,0.161
5.040,0.153
5.045,0.140
5.050,0.134
5.055,0.131
5.060,0.128
5.065,0.123
5.070,0.116
5.075,0.106
5.080,0.099
5.085,0.095
5.090,0.090
5.095,0.084
5.100,0.081
5.105,0.077
5.110,0.074
5.115,0.069
5.120,0.062
5.125,0.056
5.130,0.055
5.135,0.055
5.140,0.051
5.145,0.046
5.150,0.041
5.155,0.035
5.160,0.028
5.165,0.016
5.170,0.008
5.175,0.003
5.180,0.000
5.185,-0.002
5.190,-0.007
5.195,-0.012
5.200,-0.016
5.205,-0.021
5.210,-0.025
5.215,-0.035
5.220,-0.046
5.225,-0.051
5.230,-0.057
5.235,-0.064
5.240,-0.070
5.245,-0.072
5.250,-0.073
5.255,-0.074
5.260,-0.076
5.265,-0.082
5.270,-0.082
5.275,-0.072
5.280,-0.058
5.285,-0.039
5.290,-0.027
5.295,-0.019
5.300,-0.004
5.305,0.010
5.310,0.016
5.315,0.017
5.320,0.021
5.325,0.027
5.330,0.023
5.335,0.019
5.340,0.027
5.345,0.036
5.350,0.037
5.355,0.029
5.360,0.023
5.365,0.024
5.370,0.025
5.375,0.024
5.380,0.025
5.385,0.022
5.390,0.019
5.395,0.018
5.400,0.018
5.405,0.014
5.410,0.017
5.415,0.020
5.420,0.013
5.425,0.005
5.430,0.005
5.435,0.010
5.440,0.014
5.445,0.014
5.450,0.013
5.455,0.011
5.460,0.006
5.465,0.003
5.470,0.002
5.475,0.002
5.480,0.005
5.485,0.007
5.490,0.000
5.495,-0.013
5.500,-0.021
5.505,-0.018
5.510,-0.009
5.515,-0.007
5.520,-0.009
5.525,-0.004
5.530,-0.004
5.535,-0.011
5.540,-0.014
5.545,-0.014
5.550,-0.008
5.555,-0.001
5.560,0.003
5.565,0.001
5.570,-0.010
5.575,-0.027
5.580,-0.031
5.585,-0.018
5.590,-0.013
5.595,-0.014
5.600,-0.015
5.605,-0.014
5.610,-0.004
5.615,0.004
5.620,-0.003
5.625,-0.018
5.630,-0.029
5.635,-0.027
5.640,-0.016
5.645,-0.010
5.650,-0.014
5.655,-0.024
5.660,-0.025
5.665,-0.016
5.670,-0.009
5.675,-0.006
5.680,-0.011
5.685,-0.021
5.690,-0.019
5.695,-0.015
5.700,-0.015
5.705,-0.013
5.710,-0.010
5.715,-0.015
5.720,-0.017
5.725,-0.016
5.730,-0.015
5.735,-0.010
5.740,-0.012
5.745,-0.015
5.750,-0.007
5.755,-0.010
5.760,-0.022
5.765,-0.035
5.770,-0.040
5.775,-0.041
5.780,-0.048
5.785,-0.045
5.790,-0.039
5.795,-0.038
5.800,-0.032
5.805,-0.025
5.810,-0.019
5.815,-0.011
5.820,0.001
5.825,0.014
5.830,0.019
5.835,0.021
5.840,0.024
5.845,0.020
5.850,0.015
5.855,0.013
5.860,0.013
5.865,0.018
5.870,0.030
5.875,0.054
5.880,0.059
5.885,-0.007
5.890,-0.132
5.895,-0.289
5.900,-0.473
5.905,-0.648
5.910,-0.686
5.915,-0.528
5.920,-0.284
5.925,-0.036
5.930,0.141
5.935,0.202
5.940,0.209
5.945,0.183
5.950,0.160
5.955,0.168
5.960,0.168
5.965,0.168
5.970,0.186
5.975,0.177
5.980,0.148
5.985,0.140
5.990,0.143
5.995,0.142
6.000,0.137
6.005,0.131
6.010,0.130
6.015,0.123
6.020,0.114
6.025,0.112
6.030,0.105
6.035,0.088
6.040,0.078
6.045,0.085
6.050,0.088
6.055,0.076
6.060,0.067
6.065,0.066
6.070,0.071
6.075,0.072
6.080,0.063
6.085,0.051
6.090,0.035
6.095,0.022
6.100,0.019
6.105,0.029
6.110,0.044
6.115,0.045
6.120,0.033
6.125,0.016
6.130,-0.004
6.135,-0.004
6.140,0.004
6.145,-0.002
6.150,-0.015
6.155,-0.031
6.160,-0.045
6.165,-0.048
6.170,-0.045
6.175,-0.044
6.180,-0.050
6.185,-0.061
6.190,-0.072
6.195,-0.073
6.200,-0.064
6.205,-0.063
6.210,-0.066
6.215,-0.068
6.220,-0.066
6.225,-0.061
6.230,-0.054
6.235,-0.042
6.240,-0.028
6.245,-0.014
6.250,-0.004
6.255,0.004
6.260,0.013
6.265,0.018
6.270,0.024
6.275,0.030
6.280,0.036
6.285,0.044
6.290,0.048
6.295,0.047
6.300,0.046
6.305,0.043
6.310,0.040
6.315,0.035
6.320,0.030
6.325,0.029
6.330,0.022
6.335,0.021
6.340,0.030
6.345,0.031
6.350,0.026
6.355,0.022
6.360,0.024
6.365,0.029
6.370,0.027
6.375,0.016
6.380,0.009
6.385,0.010
6.390,0.010
6.395,0.005
6.400,0.002
6.405,-0.001
6.410,-0.001
6.415,-0.002
6.420,-0.004
6.425,-0.002
6.430,-0.001
6.435,-0.003
6.440,-0.007
6.445,-0.009
6.450,-0.009
6.455,-0.011
6.460,-0.015
6.465,-0.022
6.470,-0.020
6.475,-0.011
6.480,-0.008
6.485,-0.017
6.490,-0.027
6.495,-0.022
6.500,-0.017
6.505,-0.019
6.510,-0.018
6.515,-0.009
6.520,0.000
6.525,-0.003
6.530,-0.011
6.535,-0.013
6.540,-0.018
6.545,-0.026
6.550,-0.030
6.555,-0.029
6.560,-0.018
6.565,-0.014
6.570,-0.018
6.575,-0.012
6.580,-0.011
6.585,-0.024
6.590,-0.034
6.595,-0.027
6.600,-0.015
6.605,-0.009
6.610,-0.008
6.615,-0.013
6.620,-0.019
6.625,-0.020
6.630,-0.019
6.635,-0.016
6.640,-0.020
6.645,-0.024
6.650,-0.020
6.655,-0.017
6.660,-0.020
6.665,-0.020
6.670,-0.014
6.675,-0.011
6.680,-0.015
6.685,-0.022
6.690,-0.030
6.695,-0.038
6.700,-0.042
6.705,-0.044
6.710,-0.040
6.715,-0.036
6.720,-0.037
6.725,-0.037
6.730,-0.040
6.735,-0.033
6.740,-0.021
6.745,-0.012
6.750,-0.001
6.755,0.010
6.760,0.018
6.765,0.017
6.770,0.009
6.775,0.006
6.780,0.007
6.785,0.010
6.790,0.016
6.795,0.022
6.800,0.038
6.805,0.064
6.810,0.065
6.815,-0.002
6.820,-0.135
6.825,-0.315
6.830,-0.514
6.835,-0.680
6.840,-0.704
6.845,-0.535
6.850,-0.282
6.855,-0.035
6.860,0.138
6.865,0.210
6.870,0.228
6.875,0.202
6.880,0.177
6.885,0.182
6.890,0.176
6.895,0.162
6.900,0.164
6.905,0.165
6.910,0.159
6.915,0.154
6.920,0.148
6.925,0.142
6.930,0.140
6.935,0.135
6.940,0.129
6.945,0.128
6.950,0.126
6.955,0.110
6.960,0.087
6.965,0.080
6.970,0.087
6.975,0.092
6.980,0.086
6.985,0.078
6.990,0.073
6.995,0.065
7.000,0.059
7.005,0.053
7.010,0.046
7.015,0.040
7.020,0.037
7.025,0.035
7.030,0.035
7.035,0.033
7.040,0.030
7.045,0.027
7.050,0.026
7.055,0.021
7.060,0.016
7.065,0.000
7.070,-0.015
7.075,-0.012
7.080,-0.008
7.085,-0.012
7.090,-0.023
7.095,-0.039
7.100,-0.046
7.105,-0.048
7.110,-0.050
7.115,-0.052
7.120,-0.056
7.125,-0.060
7.130,-0.065
7.135,-0.070
7.140,-0.077
7.145,-0.078
7.150,-0.071
7.155,-0.060
7.160,-0.049
7.165,-0.038
7.170,-0.030
7.175,-0.020
7.180,-0.004
7.185,0.011
7.190,0.024
7.195,0.028
7.200,0.026
7.205,0.026
7.210,0.028
7.215,0.030
7.220,0.034
7.225,0.038
7.230,0.036
7.235,0.033
7.240,0.029
7.245,0.028
7.250,0.032
7.255,0.031
7.260,0.030
7.265,0.032
7.270,0.034
7.275,0.031
7.280,0.021
7.285,0.015
7.290,0.013
7.295,0.013
7.300,0.015
7.305,0.015
7.310,0.015
7.315,0.012
7.320,0.007
7.325,0.005
7.330,0.006
7.335,0.007
7.340,0.003
7.345,-0.001
7.350,-0.002
7.355,-0.009
7.360,-0.013
7.365,-0.011
7.370,-0.011
7.375,-0.011
7.380,-0.013
7.385,-0.014
7.390,-0.015
7.395,-0.018
7.400,-0.017
7.405,-0.012
7.410,-0.010
7.415,-0.016
7.420,-0.017
7.425,-0.014
7.430,-0.015
7.435,-0.016
7.440,-0.016
7.445,-0.013
7.450,-0.012
7.455,-0.017
7.460,-0.018
7.465,-0.018
7.470,-0.020
7.475,-0.021
7.480,-0.018
7.485,-0.015
7.490,-0.015
7.495,-0.017
7.500,-0.016
7.505,-0.013
7.510,-0.011
7.515,-0.012
7.520,-0.012
7.525,-0.008
7.530,-0.008
7.535,-0.012
7.540,-0.015
7.545,-0.013
7.550,-0.008
7.555,-0.008
7.560,-0.015
7.565,-0.018
7.570,-0.016
7.575,-0.012
7.580,-0.011
7.585,-0.011
7.590,-0.011
7.595,-0.010
7.600,-0.009
7.605,-0.009
7.610,-0.008
7.615,-0.007
7.620,-0.008
7.625,-0.006
7.630,-0.007
7.635,-0.009
7.640,-0.012
7.645,-0.016
7.650,-0.017
7.655,-0.015
7.660,-0.014
7.665,-0.017
7.670,-0.025
7.675,-0.032
7.680,-0.035
7.685,-0.031
7.690,-0.026
7.695,-0.024
7.700,-0.026
7.705,-0.033
7.710,-0.035
7.715,-0.034
7.720,-0.030
7.725,-0.021
7.730,-0.014
7.735,-0.006
7.740,0.005
7.745,0.019
7.750,0.028
7.755,0.028
7.760,0.025
7.765,0.023
7.770,0.020
7.775,0.019
7.780,0.023
7.785,0.040
7.790,0.064
7.795,0.053
7.800,-0.027
7.805,-0.172
7.810,-0.366
7.815,-0.573
7.820,-0.726
7.825,-0.714
7.830,-0.523
7.835,-0.269
7.840,-0.028
7.845,0.137
7.850,0.211
7.855,0.230
7.860,0.208
7.865,0.194
7.870,0.199
7.875,0.192
7.880,0.185
7.885,0.188
7.890,0.186
7.895,0.177
7.900,0.173
7.905,0.168
7.910,0.158
7.915,0.152
7.920,0.148
7.925,0.142
7.930,0.131
7.935,0.122
7.940,0.114
7.945,0.108
7.950,0.106
7.955,0.104
7.960,0.100
7.965,0.094
7.970,0.087
7.975,0.081
7.980,0.075
7.985,0.073
7.990,0.068
7.995,0.063
8.000,0.060
8.005,0.055
8.010,0.049
8.015,0.044
8.020,0.038
8.025,0.035
8.030,0.030
8.035,0.025
8.040,0.020
8.045,0.015
8.050,0.012
8.055,0.007
8.060,0.003
8.065,-0.002
8.070,-0.011
8.075,-0.017
8.080,-0.025
8.085,-0.035
8.090,-0.044
8.095,-0.051
8.100,-0.053
8.105,-0.055
8.110,-0.058
8.115,-0.066
8.120,-0.073
8.125,-0.075
8.130,-0.075
8.135,-0.073
8.140,-0.069
8.145,-0.063
8.150,-0.052
8.155,-0.039
8.160,-0.027
8.165,-0.015
8.170,-0.004
8.175,0.002
8.180,0.004
8.185,0.009
8.190,0.015
8.195,0.021
8.200,0.023
8.205,0.023
8.210,0.022
8.215,0.022
8.220,0.020
8.225,0.021
8.230,0.021
8.235,0.020
8.240,0.017
8.245,0.014
8.250,0.014
8.255,0.014
8.260,0.016
8.265,0.014
8.270,0.011
8.275,0.009
8.280,0.010
8.285,0.012
8.290,0.012
8.295,0.011
8.300,0.012
8.305,0.010
8.310,0.006
8.315,0.000
8.320,-0.005
8.325,-0.005
8.330,-0.005
8.335,-0.002
8.340,0.001
8.345,-0.001
8.350,-0.003
8.355,-0.007
8.360,-0.012
8.365,-0.014
8.370,-0.014
8.375,-0.011
8.380,-0.009
8.385,-0.009
8.390,-0.011
8.395,-0.017
8.400,-0.022
8.405,-0.020
8.410,-0.016
8.415,-0.015
8.420,-0.016
8.425,-0.017
8.430,-0.018
8.435,-0.016
8.440,-0.013
8.445,-0.010
8.450,-0.007
8.455,-0.010
8.460,-0.012
8.465,-0.010
8.470,-0.010
8.475,-0.009
8.480,-0.011
8.485,-0.015
8.490,-0.018
8.495,-0.021
8.500,-0.017
8.505,-0.015
8.510,-0.014
8.515,-0.011
8.520,-0.009
8.525,-0.008
8.530,-0.012
8.535,-0.012
8.540,-0.007
8.545,-0.004
8.550,-0.004
8.555,-0.005
8.560,-0.007
8.565,-0.010
8.570,-0.012
8.575,-0.012
8.580,-0.011
8.585,-0.009
8.590,-0.006
8.595,-0.001
8.600,0.001
8.605,-0.007
8.610,-0.013
8.615,-0.010
8.620,-0.005
8.625,-0.002
8.630,-0.002
8.635,-0.001
8.640,-0.003
8.645,-0.007
8.650,-0.011
8.655,-0.013
8.660,-0.010
8.665,-0.011
8.670,-0.011
8.675,-0.011
8.680,-0.017
8.685,-0.024
8.690,-0.025
8.695,-0.025
8.700,-0.025
8.705,-0.025
8.710,-0.024
8.715,-0.024
8.720,-0.027
8.725,-0.027
8.730,-0.024
8.735,-0.023
8.740,-0.022
8.745,-0.014
8.750,0.004
8.755,0.022
8.760,0.027
8.765,0.027
8.770,0.027
8.775,0.026
8.780,0.026
8.785,0.028
8.790,0.038
8.795,0.057
8.800,0.069
8.805,0.031
8.810,-0.069
8.815,-0.224
8.820,-0.419
8.825,-0.615
8.830,-0.727
8.835,-0.645
8.840,-0.425
8.845,-0.176
8.850,0.044
8.855,0.174
8.860,0.227
8.865,0.221
8.870,0.189
8.875,0.186
8.880,0.189
8.885,0.181
8.890,0.184
8.895,0.193
8.900,0.189
8.905,0.173
8.910,0.164
8.915,0.161
8.920,0.157
8.925,0.157
8.930,0.150
8.935,0.138
8.940,0.130
8.945,0.119
8.950,0.108
8.955,0.099
8.960,0.098
8.965,0.100
8.970,0.101
8.975,0.102
8.980,0.098
8.985,0.089
8.990,0.078
8.995,0.073
9.000,0.067
9.005,0.057
9.010,0.050
9.015,0.044
9.020,0.041
9.025,0.045
9.030,0.042
9.035,0.033
9.040,0.033
9.045,0.033
9.050,0.029
9.055,0.019
9.060,0.004
9.065,-0.005
9.070,-0.008
9.075,-0.013
9.080,-0.017
9.085,-0.016
9.090,-0.019
9.095,-0.030
9.100,-0.041
9.105,-0.051
9.110,-0.052
9.115,-0.050
9.120,-0.057
9.125,-0.065
9.130,-0.069
9.135,-0.073
9.140,-0.071
9.145,-0.067
9.150,-0.064
9.155,-0.057
9.160,-0.045
9.165,-0.032
9.170,-0.024
9.175,-0.020
9.180,-0.015
9.185,0.000
9.190,0.015
9.195,0.022
9.200,0.022
9.205,0.015
9.210,0.015
9.215,0.021
9.220,0.025
9.225,0.025
9.230,0.022
9.235,0.020
9.240,0.019
9.245,0.018
9.250,0.021
9.255,0.025
9.260,0.026
9.265,0.017
9.270,0.005
9.275,0.005
9.280,0.010
9.285,0.015
9.290,0.018
9.295,0.017
9.300,0.013
9.305,0.005
9.310,-0.002
9.315,-0.004
9.320,-0.004
9.325,0.002
9.330,0.004
9.335,0.001
9.340,-0.003
9.345,-0.005
9.350,-0.008
9.355,-0.009
9.360,-0.007
9.365,-0.008
9.370,-0.007
9.375,-0.012
9.380,-0.019
9.385,-0.012
9.390,-0.004
9.395,-0.008
9.400,-0.017
9.405,-0.024
9.410,-0.020
9.415,-0.009
9.420,-0.007
9.425,-0.010
9.430,-0.015
9.435,-0.023
9.440,-0.024
9.445,-0.019
9.450,-0.014
9.455,-0.016
9.460,-0.020
9.465,-0.021
9.470,-0.021
9.475,-0.017
9.480,-0.015
9.485,-0.013
9.490,-0.011
9.495,-0.014
9.500,-0.016
9.505,-0.017
9.510,-0.019
9.515,-0.021
9.520,-0.021
9.525,-0.017
9.530,-0.011
9.535,-0.008
9.540,-0.011
9.545,-0.015
9.550,-0.015
9.555,-0.016
9.560,-0.015
9.565,-0.012
9.570,-0.008
9.575,-0.006
9.580,-0.010
9.585,-0.015
9.590,-0.017
9.595,-0.019
9.600,-0.017
9.605,-0.014
9.610,-0.011
9.615,-0.009
9.620,-0.011
9.625,-0.010
9.630,-0.009
9.635,-0.009
9.640,-0.009
9.645,-0.011
9.650,-0.012
9.655,-0.012
9.660,-0.012
9.665,-0.013
9.670,-0.019
9.675,-0.029
9.680,-0.039
9.685,-0.044
9.690,-0.043
9.695,-0.039
9.700,-0.038
9.705,-0.039
9.710,-0.039
9.715,-0.040
9.720,-0.036
9.725,-0.025
9.730,-0.012
9.735,0.000
9.740,0.011
9.745,0.022
9.750,0.027
9.755,0.022
9.760,0.017
9.765,0.016
9.770,0.017
9.775,0.019
9.780,0.021
9.785,0.034
9.790,0.053
9.795,0.040
9.800,-0.034
9.805,-0.165
9.810,-0.344
9.815,-0.535
9.820,-0.678
9.825,-0.663
9.830,-0.472
9.835,-0.225
9.840,0.004
9.845,0.154
9.850,0.213
9.855,0.221
9.860,0.193
9.865,0.177
9.870,0.183
9.875,0.175
9.880,0.164
9.885,0.166
9.890,0.164
9.895,0.158
9.900,0.156
9.905,0.153
9.910,0.146
9.915,0.137
9.920,0.129
9.925,0.123
9.930,0.119
9.935,0.115
9.940,0.109
9.945,0.100
9.950,0.095
9.955,0.090
9.960,0.087
9.965,0.085
9.970,0.080
9.975,0.075
9.980,0.067
9.985,0.060
9.990,0.058
9.995,0.057
10.000,0.055
10.005,0.049
10.010,0.044
10.015,0.040
10.020,0.033
10.025,0.026
10.030,0.018
10.035,0.013
10.040,0.012
10.045,0.008
10.050,0.002
10.055,-0.003
10.060,-0.007
10.065,-0.011
10.070,-0.017
10.075,-0.023
10.080,-0.028
10.085,-0.033
10.090,-0.038
10.095,-0.045
10.100,-0.050
10.105,-0.055
10.110,-0.059
10.115,-0.063
10.120,-0.067
10.125,-0.071
10.130,-0.073
10.135,-0.070
10.140,-0.061
10.145,-0.051
10.150,-0.041
10.155,-0.031
10.160,-0.020
10.165,-0.009
10.170,-0.001
10.175,0.006
10.180,0.012
10.185,0.017
10.190,0.021
10.195,0.021
10.200,0.022
10.205,0.024
10.210,0.027
10.215,0.031
10.220,0.030
10.225,0.027
10.230,0.025
10.235,0.021
10.240,0.017
10.245,0.014
10.250,0.014
10.255,0.015
10.260,0.018
10.265,0.017
10.270,0.014
10.275,0.013
10.280,0.012
10.285,0.010
10.290,0.010
10.295,0.006
10.300,0.006
10.305,0.007
10.310,0.007
10.315,0.008
10.320,0.004
10.325,-0.001
10.330,-0.002
10.335,-0.002
10.340,-0.001
10.345,-0.002
10.350,-0.003
10.355,-0.003
10.360,-0.002
10.365,-0.001
10.370,-0.003
10.375,-0.005
10.380,-0.005
10.385,-0.006
10.390,-0.006
10.395,-0.006
10.400,-0.007
10.405,-0.008
10.410,-0.010
10.415,-0.010
10.420,-0.011
10.425,-0.013
10.430,-0.014
10.435,-0.013
10.440,-0.011
10.445,-0.010
10.450,-0.010
10.455,-0.010
10.460,-0.010
10.465,-0.010
10.470,-0.011
10.475,-0.008
10.480,-0.008
10.485,-0.008
10.490,-0.007
10.495,-0.008
10.500,-0.008
10.505,-0.007
10.510,-0.009
10.515,-0.011
10.520,-0.012
10.525,-0.011
10.530,-0.010
10.535,-0.010
10.540,-0.010
10.545,-0.012
10.550,-0.012
10.555,-0.012
10.560,-0.014
10.565,-0.012
10.570,-0.010
10.575,-0.007
10.580,-0.006
10.585,-0.007
10.590,-0.008
10.595,-0.008
10.600,-0.008
10.605,-0.009
10.610,-0.010
10.615,-0.019
10.620,-0.034
10.625,-0.039
10.630,-0.035
10.635,-0.031
10.640,-0.028
10.645,-0.030
10.650,-0.030
10.655,-0.028
10.660,-0.028
10.665,-0.025
10.670,-0.022
10.675,-0.022
10.680,-0.024
10.685,-0.028
10.690,-0.033
10.695,-0.037
10.700,-0.037
10.705,-0.037
10.710,-0.038
10.715,-0.040
10.720,-0.042
10.725,-0.045
10.730,-0.046
10.735,-0.042
10.740,-0.031
10.745,-0.020
10.750,-0.004
10.755,0.010
10.760,0.019
10.765,0.027
10.770,0.028
10.775,0.026
10.780,0.022
10.785,0.017
10.790,0.018
10.795,0.026
10.800,0.047
10.805,0.073
10.810,0.054
10.815,-0.038
10.820,-0.193
10.825,-0.388
10.830,-0.590
10.835,-0.726
10.840,-0.681
10.845,-0.472
10.850,-0.220
10.855,0.007
10.860,0.152
10.865,0.215
10.870,0.225
10.875,0.204
10.880,0.200
10.885,0.207
10.890,0.201
10.895,0.197
10.900,0.198
10.905,0.190
10.910,0.175
10.915,0.172
10.920,0.169
10.925,0.162
10.930,0.159
10.935,0.157
10.940,0.153
10.945,0.146
10.950,0.143
10.955,0.137
10.960,0.127
10.965,0.118
10.970,0.112
10.975,0.106
10.980,0.098
10.985,0.092
10.990,0.086
10.995,0.083
11.000,0.083
11.005,0.080
11.010,0.073
11.015,0.067
11.020,0.059
11.025,0.054
11.030,0.050
11.035,0.047
11.040,0.045
11.045,0.041
11.050,0.035
11.055,0.028
11.060,0.020
11.065,0.014
11.070,0.006
11.075,0.001
11.080,0.000
11.085,-0.005
11.090,-0.011
11.095,-0.018
11.100,-0.025
11.105,-0.029
11.110,-0.032
11.115,-0.038
11.120,-0.047
11.125,-0.053
11.130,-0.058
11.135,-0.065
11.140,-0.068
11.145,-0.073
11.150,-0.072
11.155,-0.067
11.160,-0.058
11.165,-0.047
11.170,-0.038
11.175,-0.031
11.180,-0.022
11.185,-0.011
11.190,-0.003
11.195,0.001
11.200,0.007
11.205,0.013
11.210,0.016
11.215,0.015
11.220,0.013
11.225,0.014
11.230,0.010
11.235,0.007
11.240,0.008
11.245,0.008
11.250,0.008
11.255,0.006
11.260,0.006
11.265,0.012
11.270,0.015
11.275,0.013
11.280,0.011
11.285,0.007
11.290,0.003
11.295,0.002
11.300,0.005
11.305,0.008
11.310,0.008
11.315,0.005
11.320,0.000
11.325,0.001
11.330,0.000
11.335,-0.004
11.340,-0.004
11.345,-0.004
11.350,-0.004
11.355,-0.004
11.360,-0.007
11.365,-0.008
11.370,-0.008
11.375,-0.009
11.380,-0.009
11.385,-0.009
11.390,-0.009
11.395,-0.014
11.400,-0.018
11.405,-0.016
11.410,-0.014
11.415,-0.011
11.420,-0.010
11.425,-0.012
11.430,-0.018
11.435,-0.027
11.440,-0.030
11.445,-0.026
11.450,-0.018
11.455,-0.013
11.460,-0.015
11.465,-0.016
11.470,-0.018
11.475,-0.020
11.480,-0.019
11.485,-0.020
11.490,-0.018
11.495,-0.015
11.500,-0.012
11.505,-0.012
11.510,-0.014
11.515,-0.016
11.520,-0.017
11.525,-0.014
11.530,-0.014
11.535,-0.017
11.540,-0.015
11.545,-0.014
11.550,-0.015
11.555,-0.018
11.560,-0.019
11.565,-0.016
11.570,-0.015
11.575,-0.018
11.580,-0.020
11.585,-0.018
11.590,-0.014
11.595,-0.012
11.600,-0.011
11.605,-0.011
11.610,-0.011
11.615,-0.010
11.620,-0.009
11.625,-0.009
11.630,-0.011
11.635,-0.012
11.640,-0.007
11.645,-0.004
11.650,-0.004
11.655,-0.007
11.660,-0.008
11.665,-0.008
11.670,-0.008
11.675,-0.008
11.680,-0.008
11.685,-0.007
11.690,-0.004
11.695,-0.003
11.700,-0.003
11.705,-0.007
11.710,-0.011
11.715,-0.015
11.720,-0.022
11.725,-0.030
11.730,-0.034
11.735,-0.035
11.740,-0.030
11.745,-0.028
11.750,-0.032
11.755,-0.038
11.760,-0.043
11.765,-0.041
11.770,-0.031
11.775,-0.018
11.780,-0.004
11.785,0.011
11.790,0.025
11.795,0.030
11.800,0.026
11.805,0.023
11.810,0.030
11.815,0.039
11.820,0.039
11.825,0.028
11.830,0.030
11.835,0.052
11.840,0.039
11.845,-0.042
11.850,-0.175
11.855,-0.352
11.860,-0.551
11.865,-0.692
11.870,-0.661
11.875,-0.459
11.880,-0.210
11.885,0.005
11.890,0.143
11.895,0.205
11.900,0.211
11.905,0.188
11.910,0.191
11.915,0.204
11.920,0.196
11.925,0.184
11.930,0.175
11.935,0.176
11.940,0.179
11.945,0.170
11.950,0.151
11.955,0.132
11.960,0.133
11.965,0.147
11.970,0.143
11.975,0.131
11.980,0.130
11.985,0.126
11.990,0.118
11.995,0.113
12.000,0.110
12.005,0.107
12.010,0.105
12.015,0.103
12.020,0.095
12.025,0.087
12.030,0.080
12.035,0.076
12.040,0.073
12.045,0.068
12.050,0.065
12.055,0.061
12.060,0.052
12.065,0.043
12.070,0.036
12.075,0.033
12.080,0.028
12.085,0.021
12.090,0.015
12.095,0.011
12.100,0.006
12.105,0.000
12.110,-0.007
12.115,-0.013
12.120,-0.020
12.125,-0.029
12.130,-0.039
12.135,-0.046
12.140,-0.050
12.145,-0.054
12.150,-0.060
12.155,-0.067
12.160,-0.071
12.165,-0.072
12.170,-0.073
12.175,-0.071
12.180,-0.070
12.185,-0.069
12.190,-0.064
12.195,-0.058
12.200,-0.047
12.205,-0.031
12.210,-0.017
12.215,-0.007
12.220,-0.001
12.225,0.003
12.230,0.005
12.235,0.007
12.240,0.012
12.245,0.015
12.250,0.019
12.255,0.020
12.260,0.016
12.265,0.016
12.270,0.017
12.275,0.017
12.280,0.016
12.285,0.012
12.290,0.007
12.295,0.003
12.300,0.003
12.305,0.005
12.310,0.007
12.315,0.009
12.320,0.007
12.325,0.004
12.330,-0.001
12.335,-0.006
12.340,-0.007
12.345,-0.007
12.350,-0.008
12.355,-0.011
12.360,-0.014
12.365,-0.015
12.370,-0.017
12.375,-0.017
12.380,-0.015
12.385,-0.015
12.390,-0.014
12.395,-0.013
12.400,-0.013
12.405,-0.017
12.410,-0.022
12.415,-0.023
12.420,-0.021
12.425,-0.017
12.430,-0.017
12.435,-0.017
12.440,-0.018
12.445,-0.021
12.450,-0.020
12.455,-0.018
12.460,-0.019
12.465,-0.019
12.470,-0.021
12.475,-0.020
12.480,-0.019
12.485,-0.018
12.490,-0.017
12.495,-0.019
12.500,-0.022
12.505,-0.021
12.510,-0.018
12.515,-0.015
12.520,-0.013
12.525,-0.012
12.530,-0.013
12.535,-0.018
12.540,-0.018
12.545,-0.014
12.550,-0.011
12.555,-0.011
12.560,-0.016
12.565,-0.018
12.570,-0.012
12.575,-0.008
12.580,-0.009
12.585,-0.012
12.590,-0.017
12.595,-0.019
12.600,-0.017
12.605,-0.011
12.610,-0.004
12.615,-0.003
12.620,-0.008
12.625,-0.010
12.630,-0.007
12.635,-0.005
12.640,-0.005
12.645,-0.008
12.650,-0.011
12.655,-0.010
12.660,-0.008
12.665,-0.009
12.670,-0.011
12.675,-0.009
12.680,-0.006
12.685,-0.008
12.690,-0.012
12.695,-0.016
12.700,-0.018
12.705,-0.023
12.710,-0.031
12.715,-0.035
12.720,-0.037
12.725,-0.034
12.730,-0.031
12.735,-0.031
12.740,-0.032
12.745,-0.034
12.750,-0.030
12.755,-0.022
12.760,-0.015
12.765,-0.002
12.770,0.014
12.775,0.028
12.780,0.032
12.785,0.028
12.790,0.026
12.795,0.028
12.800,0.030
12.805,0.032
12.810,0.038
12.815,0.055
12.820,0.046
12.825,-0.026
12.830,-0.158
12.835,-0.338
12.840,-0.525
12.845,-0.665
12.850,-0.651
12.855,-0.458
12.860,-0.213
12.865,0.005
12.870,0.146
12.875,0.201
12.880,0.212
12.885,0.188
12.890,0.174
12.895,0.184
12.900,0.183
12.905,0.171
12.910,0.165
12.915,0.160
12.920,0.152
12.925,0.151
12.930,0.153
12.935,0.146
12.940,0.138
12.945,0.129
12.950,0.118
12.955,0.113
12.960,0.109
12.965,0.103
12.970,0.096
12.975,0.092
12.980,0.091
12.985,0.089
12.990,0.088
12.995,0.082
13.000,0.076
13.005,0.073
13.010,0.069
13.015,0.064
13.020,0.059
13.025,0.054
13.030,0.052
13.035,0.052
13.040,0.050
13.045,0.041
13.050,0.028
13.055,0.022
13.060,0.022
13.065,0.020
13.070,0.013
13.075,0.005
13.080,0.002
13.085,-0.001
13.090,-0.006
13.095,-0.010
13.100,-0.013
13.105,-0.017
13.110,-0.023
13.115,-0.029
13.120,-0.034
13.125,-0.036
13.130,-0.039
13.135,-0.043
13.140,-0.044
13.145,-0.048
13.150,-0.052
13.155,-0.056
13.160,-0.057
13.165,-0.054
13.170,-0.049
13.175,-0.043
13.180,-0.036
13.185,-0.028
13.190,-0.019
13.195,-0.011
13.200,-0.002
13.205,0.008
13.210,0.014
13.215,0.018
13.220,0.023
13.225,0.028
13.230,0.029
13.235,0.027
13.240,0.025
13.245,0.022
13.250,0.021
13.255,0.022
13.260,0.022
13.265,0.022
13.270,0.021
13.275,0.020
13.280,0.020
13.285,0.019
13.290,0.017
13.295,0.012
13.300,0.007
13.305,0.004
13.310,0.003
13.315,0.002
13.320,-0.001
13.325,0.000
13.330,0.002
13.335,0.001
13.340,-0.002
13.345,-0.001
13.350,0.002
13.355,0.005
13.360,0.004
13.365,-0.001
13.370,-0.010
13.375,-0.016
13.380,-0.015
13.385,-0.010
13.390,-0.010
13.395,-0.014
13.400,-0.016
13.405,-0.016
13.410,-0.015
13.415,-0.012
13.420,-0.008
13.425,-0.006
13.430,-0.009
13.435,-0.016
13.440,-0.015
13.445,-0.016
13.450,-0.017
13.455,-0.012
13.460,-0.007
13.465,0.000
13.470,0.001
13.475,-0.004
13.480,-0.007
13.485,-0.010
13.490,-0.011
13.495,-0.013
13.500,-0.016
13.505,-0.014
13.510,-0.013
13.515,-0.012
13.520,-0.015
13.525,-0.024
13.530,-0.028
13.535,-0.022
13.540,-0.010
13.545,-0.001
13.550,-0.003
13.555,-0.007
13.560,-0.007
13.565,-0.006
13.570,-0.011
13.575,-0.018
13.580,-0.016
13.585,-0.006
13.590,-0.001
13.595,-0.003
13.600,-0.002
13.605,-0.001
13.610,-0.007
13.615,-0.014
13.620,-0.020
13.625,-0.021
13.630,-0.019
13.635,-0.021
13.640,-0.016
13.645,-0.008
13.650,0.000
13.655,0.004
13.660,-0.002
13.665,-0.016
13.670,-0.030
13.675,-0.031
13.680,-0.031
13.685,-0.039
13.690,-0.043
13.695,-0.043
13.700,-0.042
13.705,-0.044
13.710,-0.043
13.715,-0.030
13.720,-0.022
13.725,-0.013
13.730,0.004
13.735,0.023
13.740,0.035
13.745,0.026
13.750,0.019
13.755,0.025
13.760,0.031
13.765,0.030
13.770,0.033
13.775,0.049
13.780,0.067
13.785,0.047
13.790,-0.040
13.795,-0.185
13.800,-0.362
13.805,-0.534
13.810,-0.636
13.815,-0.570
13.820,-0.361
13.825,-0.122
13.830,0.075
13.835,0.179
13.840,0.213
13.845,0.210
13.850,0.183
13.855,0.166
13.860,0.158
13.865,0.151
13.870,0.148
13.875,0.149
13.880,0.145
13.885,0.137
13.890,0.138
13.895,0.142
13.900,0.137
13.905,0.135
13.910,0.138
13.915,0.131
13.920,0.107
13.925,0.087
13.930,0.084
13.935,0.083
13.940,0.083
13.945,0.074
13.950,0.065
13.955,0.077
13.960,0.083
13.965,0.076
13.970,0.074
13.975,0.076
13.980,0.071
13.985,0.063
13.990,0.054
13.995,0.038
14.000,0.025
14.005,0.017
14.010,0.015
14.015,0.027
14.020,0.032
14.025,0.023
14.030,0.019
14.035,0.013
14.040,0.007
14.045,-0.001
14.050,-0.006
14.055,-0.003
14.060,-0.006
14.065,-0.018
14.070,-0.032
14.075,-0.038
14.080,-0.042
14.085,-0.053
14.090,-0.060
14.095,-0.061
14.100,-0.055
14.105,-0.043
14.110,-0.039
14.115,-0.050
14.120,-0.059
14.125,-0.063
14.130,-0.061
14.135,-0.050
14.140,-0.039
14.145,-0.023
14.150,0.003
14.155,0.016
14.160,0.012
14.165,0.008
14.170,0.004
14.175,0.004
14.180,0.015
14.185,0.031
14.190,0.050
14.195,0.053
14.200,0.040
14.205,0.042
14.210,0.047
14.215,0.033
14.220,0.013
14.225,0.004
14.230,0.014
14.235,0.028
14.240,0.020
14.245,0.007
14.250,0.010
14.255,0.020
14.260,0.030
14.265,0.022
14.270,0.010
14.275,0.005
14.280,0.004
14.285,0.003
14.290,-0.007
14.295,-0.012
14.300,-0.012
14.305,-0.007
14.310,-0.001
14.315,0.003
14.320,0.003
14.325,-0.007
14.330,-0.014
14.335,-0.016
14.340,-0.018
14.345,-0.013
14.350,-0.009
14.355,-0.014
14.360,-0.017
14.365,-0.021
14.370,-0.034
14.375,-0.047
14.380,-0.042
14.385,-0.021
14.390,-0.005
14.395,-0.007
14.400,-0.014
14.405,-0.017
14.410,-0.005
14.415,0.010
14.420,0.002
14.425,-0.020
14.430,-0.026
14.435,-0.022
14.440,-0.021
14.445,-0.026
14.450,-0.027
14.455,-0.012
14.460,-0.004
14.465,-0.015
14.470,-0.022
14.475,-0.026
14.480,-0.035
14.485,-0.034
14.490,-0.019
14.495,-0.004
14.500,-0.008
14.505,-0.015
14.510,-0.011
14.515,-0.006
14.520,-0.002
14.525,-0.015
14.530,-0.034
14.535,-0.039
14.540,-0.042
14.545,-0.041
14.550,-0.038
14.555,-0.055
14.560,-0.077
14.565,-0.077
14.570,-0.061
14.575,-0.044
14.580,-0.040
14.585,-0.044
14.590,-0.032
14.595,-0.011
14.600,-0.003
14.605,0.008
14.610,0.023
14.615,0.029
14.620,0.030
14.625,0.025
14.630,0.030
14.635,0.039
14.640,0.031
14.645,0.024
14.650,0.019
14.655,0.023
14.660,0.050
14.665,0.052
14.670,-0.010
14.675,-0.124
14.680,-0.292
14.685,-0.488
14.690,-0.649
14.695,-0.685
14.700,-0.541
14.705,-0.306
14.710,-0.066
14.715,0.120
14.720,0.215
14.725,0.235
14.730,0.212
14.735,0.199
14.740,0.198
14.745,0.179
14.750,0.171
14.755,0.180
14.760,0.168
14.765,0.145
14.770,0.133
14.775,0.124
14.780,0.117
14.785,0.129
14.790,0.148
14.795,0.147
14.800,0.135
14.805,0.119
14.810,0.099
14.815,0.092
14.820,0.088
14.825,0.084
14.830,0.086
14.835,0.079
14.840,0.074
14.845,0.077
14.850,0.063
14.855,0.050
14.860,0.059
14.865,0.063
14.870,0.055
14.875,0.056
14.880,0.044
14.885,0.014
14.890,0.007
14.895,0.011
14.900,0.018
14.905,0.033
14.910,0.035
14.915,0.023
14.920,0.010
14.925,-0.005
14.930,-0.015
14.935,-0.017
14.940,-0.027
14.945,-0.036
14.950,-0.048
14.955,-0.060
14.960,-0.048
14.965,-0.029
14.970,-0.030
14.975,-0.048
14.980,-0.070
14.985,-0.081
14.990,-0.086
14.995,-0.088
15.000,-0.066
15.005,-0.044
15.010,-0.043
15.015,-0.039
15.020,-0.036
15.025,-0.030
15.030,-0.012
15.035,0.000
15.040,0.015
15.045,0.033
15.050,0.034
15.055,0.028
15.060,0.023
15.065,0.026
15.070,0.044
15.075,0.054
15.080,0.048
15.085,0.037
15.090,0.035
15.095,0.037
15.100,0.026
15.105,0.019
15.110,0.021
15.115,0.022
15.120,0.020
15.125,0.016
15.130,0.030
15.135,0.040
15.140,0.027
15.145,0.019
15.150,0.011
15.155,0.005
15.160,0.012
15.165,0.008
15.170,0.005
15.175,0.010
15.180,0.006
15.185,-0.004
15.190,-0.008
15.195,-0.012
15.200,-0.010
15.205,0.001
15.210,-0.003
15.215,-0.009
15.220,-0.009
15.225,-0.015
15.230,-0.019
15.235,-0.023
15.240,-0.022
15.245,-0.023
15.250,-0.028
15.255,-0.018
15.260,-0.009
15.265,-0.008
15.270,-0.014
15.275,-0.029
15.280,-0.027
15.285,-0.013
15.290,-0.011
15.295,-0.019
15.300,-0.028
15.305,-0.024
15.310,-0.022
15.315,-0.025
15.320,-0.023
15.325,-0.019
15.330,-0.019
15.335,-0.025
15.340,-0.029
15.345,-0.025
15.350,-0.022
15.355,-0.014
15.360,-0.009
15.365,-0.013
15.370,-0.018
15.375,-0.012
15.380,-0.004
15.385,-0.012
15.390,-0.018
15.395,-0.026
15.400,-0.037
15.405,-0.039
15.410,-0.045
15.415,-0.044
15.420,-0.041
15.425,-0.058
15.430,-0.057
15.435,-0.040
15.440,-0.039
15.445,-0.054
15.450,-0.068
15.455,-0.068
15.460,-0.047
15.465,-0.021
15.470,-0.005
15.475,0.006
15.480,0.016
15.485,0.020
15.490,0.026
15.495,0.025
15.500,0.011
15.505,-0.006
15.510,-0.015
15.515,-0.008
15.520,0.007
15.525,0.030
15.530,0.061
15.535,0.050
15.540,-0.034
15.545,-0.172
15.550,-0.360
15.555,-0.567
15.560,-0.731
15.565,-0.737
15.570,-0.550
15.575,-0.286
15.580,-0.032
15.585,0.148
15.590,0.225
15.595,0.227
15.600,0.185
15.605,0.167
15.610,0.181
15.615,0.183
15.620,0.175
15.625,0.163
15.630,0.151
15.635,0.148
15.640,0.158
15.645,0.165
15.650,0.149
15.655,0.130
15.660,0.124
15.665,0.119
15.670,0.118
15.675,0.118
15.680,0.112
15.685,0.104
15.690,0.101
15.695,0.103
15.700,0.100
15.705,0.085
15.710,0.075
15.715,0.073
15.720,0.068
15.725,0.058
15.730,0.053
15.735,0.052
15.740,0.047
15.745,0.042
15.750,0.043
15.755,0.045
15.760,0.038
15.765,0.029
15.770,0.023
15.775,0.018
15.780,0.020
15.785,0.012
15.790,0.004
15.795,0.002
15.800,-0.001
15.805,0.001
15.810,-0.006
15.815,-0.028
15.820,-0.043
15.825,-0.048
15.830,-0.051
15.835,-0.053
15.840,-0.056
15.845,-0.062
15.850,-0.067
15.855,-0.065
15.860,-0.057
15.865,-0.052
15.870,-0.058
15.875,-0.065
15.880,-0.056
15.885,-0.039
15.890,-0.028
15.895,-0.023
15.900,-0.015
15.905,-0.005
15.910,0.003
15.915,0.014
15.920,0.031
15.925,0.043
15.930,0.044
15.935,0.036
15.940,0.029
15.945,0.021
15.950,0.026
15.955,0.039
15.960,0.040
15.965,0.035
15.970,0.030
15.975,0.030
15.980,0.032
15.985,0.031
15.990,0.031
15.995,0.034
16.000,0.037
16.005,0.031
16.010,0.023
16.015,0.023
16.020,0.021
16.025,0.019
16.030,0.013
16.035,0.000
16.040,-0.001
16.045,0.006
16.050,0.010
16.055,0.009
16.060,0.003
16.065,0.003
16.070,0.007
16.075,0.007
16.080,0.006
16.085,0.000
16.090,-0.004
16.095,-0.001
16.100,0.003
16.105,0.004
16.110,0.003
16.115,-0.001
16.120,-0.006
16.125,-0.010
16.130,-0.010
16.135,-0.007
16.140,-0.004
16.145,-0.005
16.150,-0.011
16.155,-0.013
16.160,-0.010
16.165,-0.011
16.170,-0.013
16.175,-0.010
16.180,-0.007
16.185,-0.004
16.190,-0.002
16.195,-0.004
16.200,-0.008
16.205,-0.008
16.210,-0.004
16.215,0.004
16.220,0.005
16.225,-0.005
16.230,-0.013
16.235,-0.008
16.240,0.000
16.245,-0.002
16.250,-0.010
16.255,-0.022
16.260,-0.029
16.265,-0.021
16.270,-0.009
16.275,-0.006
16.280,-0.009
16.285,-0.012
16.290,-0.006
16.295,-0.002
16.300,-0.008
16.305,-0.011
16.310,-0.011
16.315,-0.018
16.320,-0.028
16.325,-0.028
16.330,-0.021
16.335,-0.021
16.340,-0.025
16.345,-0.024
16.350,-0.019
16.355,-0.016
16.360,-0.024
16.365,-0.036
16.370,-0.034
16.375,-0.022
16.380,-0.011
16.385,-0.003
16.390,0.008
16.395,0.018
16.400,0.021
16.405,0.020
16.410,0.016
16.415,0.013
16.420,0.011
16.425,0.005
16.430,0.007
16.435,0.022
16.440,0.048
16.445,0.054
16.450,-0.008
16.455,-0.131
16.460,-0.304
16.465,-0.501
16.470,-0.677
16.475,-0.723
16.480,-0.568
16.485,-0.321
16.490,-0.074
16.495,0.104
16.500,0.182
16.505,0.211
16.510,0.200
16.515,0.184
16.520,0.189
16.525,0.184
16.530,0.180
16.535,0.187
16.540,0.183
16.545,0.168
16.550,0.159
16.555,0.157
16.560,0.153
16.565,0.145
16.570,0.137
16.575,0.129
16.580,0.124
16.585,0.120
16.590,0.115
16.595,0.105
16.600,0.096
16.605,0.093
16.610,0.090
16.615,0.088
16.620,0.087
16.625,0.080
16.630,0.073
16.635,0.068
16.640,0.066
16.645,0.064
16.650,0.059
16.655,0.054
16.660,0.047
16.665,0.044
16.670,0.043
16.675,0.038
16.680,0.032
16.685,0.023
16.690,0.017
16.695,0.015
16.700,0.011
16.705,0.006
16.710,-0.008
16.715,-0.023
16.720,-0.024
16.725,-0.019
16.730,-0.017
16.735,-0.020
16.740,-0.032
16.745,-0.045
16.750,-0.053
16.755,-0.055
16.760,-0.054
16.765,-0.054
16.770,-0.062
16.775,-0.070
16.780,-0.070
16.785,-0.066
16.790,-0.057
16.795,-0.048
16.800,-0.041
16.805,-0.035
16.810,-0.026
16.815,-0.009
16.820,0.003
16.825,0.006
16.830,0.011
16.835,0.017
16.840,0.023
16.845,0.026
16.850,0.027
16.855,0.030
16.860,0.036
16.865,0.034
16.870,0.028
16.875,0.027
16.880,0.026
16.885,0.022
16.890,0.018
16.895,0.013
16.900,0.016
16.905,0.023
16.910,0.021
16.915,0.011
16.920,0.006
16.925,0.003
16.930,0.004
16.935,0.009
16.940,0.014
16.945,0.013
16.950,-0.001
16.955,-0.006
16.960,0.006
16.965,0.008
16.970,-0.001
16.975,-0.004
16.980,0.000
16.985,-0.006
16.990,-0.017
16.995,-0.018
17.000,-0.002
17.005,0.008
17.010,-0.003
17.015,-0.014
17.020,-0.015
17.025,-0.020
17.030,-0.023
17.035,-0.017
17.040,-0.011
17.045,-0.010
17.050,-0.014
17.055,-0.016
17.060,-0.011
17.065,-0.005
17.070,-0.008
17.075,-0.017
17.080,-0.025
17.085,-0.027
17.090,-0.022
17.095,-0.020
17.100,-0.017
17.105,-0.013
17.110,-0.011
17.115,-0.010
17.120,-0.014
17.125,-0.017
17.130,-0.019
17.135,-0.027
17.140,-0.021
17.145,-0.011
17.150,-0.017
17.155,-0.015
17.160,-0.010
17.165,-0.011
17.170,-0.004
17.175,-0.002
17.180,-0.008
17.185,-0.008
17.190,-0.004
17.195,0.001
17.200,-0.008
17.205,-0.030
17.210,-0.032
17.215,-0.015
17.220,-0.012
17.225,-0.023
17.230,-0.028
17.235,-0.015
17.240,0.001
17.245,-0.008
17.250,-0.024
17.255,-0.027
17.260,-0.018
17.265,-0.007
17.270,-0.018
17.275,-0.041
17.280,-0.048
17.285,-0.040
17.290,-0.025
17.295,-0.013
17.300,-0.014
17.305,-0.018
17.310,-0.021
17.315,-0.018
17.320,-0.002
17.325,0.014
17.330,0.018
17.335,0.008
17.340,-0.007
17.345,-0.005
17.350,0.018
17.355,0.033
17.360,0.032
17.365,0.027
17.370,0.031
17.375,0.051
17.380,0.056
17.385,0.005
17.390,-0.109
17.395,-0.282
17.400,-0.473
17.405,-0.642
17.410,-0.705
17.415,-0.578
17.420,-0.350
17.425,-0.108
17.430,0.098
17.435,0.214
17.440,0.247
17.445,0.212
17.450,0.163
17.455,0.165
17.460,0.177
17.465,0.174
17.470,0.179
17.475,0.179
17.480,0.165
17.485,0.148
17.490,0.143
17.495,0.138
17.500,0.125
17.505,0.122
17.510,0.126
17.515,0.127
17.520,0.129
17.525,0.120
17.530,0.112
17.535,0.112
17.540,0.100
17.545,0.079
17.550,0.060
17.555,0.056
17.560,0.069
17.565,0.080
17.570,0.073
17.575,0.059
17.580,0.065
17.585,0.067
17.590,0.060
17.595,0.054
17.600,0.035
17.605,0.029
17.610,0.036
17.615,0.044
17.620,0.047
17.625,0.033
17.630,0.002
17.635,-0.023
17.640,-0.026
17.645,-0.017
17.650,-0.019
17.655,-0.027
17.660,-0.028
17.665,-0.013
17.670,-0.012
17.675,-0.035
17.680,-0.044
17.685,-0.048
17.690,-0.069
17.695,-0.082
17.700,-0.079
17.705,-0.067
17.710,-0.056
17.715,-0.054
17.720,-0.053
17.725,-0.049
17.730,-0.046
17.735,-0.045
17.740,-0.037
17.745,-0.025
17.750,-0.006
17.755,0.019
17.760,0.034
17.765,0.026
17.770,0.015
17.775,0.023
17.780,0.031
17.785,0.027
17.790,0.016
17.795,0.004
17.800,0.018
17.805,0.049
17.810,0.057
17.815,0.040
17.820,0.033
17.825,0.043
17.830,0.054
17.835,0.039
17.840,-0.007
17.845,-0.027
17.850,-0.008
17.855,0.016
17.860,0.029
17.865,0.022
17.870,0.023
17.875,0.032
17.880,0.014
17.885,-0.010
17.890,-0.011
17.895,-0.011
17.900,-0.023
17.905,-0.021
17.910,-0.004
17.915,0.013
17.920,0.010
17.925,-0.009
17.930,-0.011
17.935,-0.010
17.940,-0.016
17.945,-0.019
17.950,-0.018
17.955,-0.013
17.960,-0.018
17.965,-0.018
17.970,-0.010
17.975,-0.013
17.980,-0.019
17.985,-0.024
17.990,-0.025
17.995,-0.025
18.000,-0.026
18.005,-0.023
18.010,-0.022
18.015,-0.023
18.020,-0.019
18.025,-0.011
18.030,-0.009
18.035,-0.017
18.040,-0.026
18.045,-0.020
18.050,-0.010
18.055,-0.020
18.060,-0.029
18.065,-0.022
18.070,-0.013
18.075,-0.009
18.080,-0.011
18.085,-0.018
18.090,-0.022
18.095,-0.018
18.100,-0.016
18.105,-0.016
18.110,-0.016
18.115,-0.017
18.120,-0.008
18.125,-0.003
18.130,-0.016
18.135,-0.020
18.140,-0.009
18.145,0.000
18.150,-0.003
18.155,-0.018
18.160,-0.020
18.165,-0.007
18.170,-0.006
18.175,-0.030
18.180,-0.049
18.185,-0.036
18.190,-0.018
18.195,-0.015
18.200,-0.022
18.205,-0.037
18.210,-0.051
18.215,-0.047
18.220,-0.030
18.225,-0.026
18.230,-0.036
18.235,-0.044
18.240,-0.034
18.245,-0.013
18.250,-0.006
18.255,-0.009
18.260,-0.003
18.265,0.003
18.270,-0.001
18.275,-0.003
18.280,0.002
18.285,0.008
18.290,0.012
18.295,0.004
18.300,-0.008
18.305,0.005
18.310,0.030
18.315,0.050
18.320,0.042
18.325,-0.032
18.330,-0.171
18.335,-0.358
18.340,-0.562
18.345,-0.721
18.350,-0.722
18.355,-0.530
18.360,-0.272
18.365,-0.027
18.370,0.145
18.375,0.222
18.380,0.244
18.385,0.214
18.390,0.171
18.395,0.163
18.400,0.165
18.405,0.164
18.410,0.164
18.415,0.163
18.420,0.153
18.425,0.150
18.430,0.160
18.435,0.156
18.440,0.139
18.445,0.131
18.450,0.121
18.455,0.120
18.460,0.127
18.465,0.115
18.470,0.097
18.475,0.092
18.480,0.092
18.485,0.091
18.490,0.089
18.495,0.079
18.500,0.067
18.505,0.075
18.510,0.080
18.515,0.070
18.520,0.060
18.525,0.049
18.530,0.038
18.535,0.033
18.540,0.025
18.545,0.012
18.550,0.014
18.555,0.019
18.560,0.021
18.565,0.025
18.570,0.017
18.575,0.000
18.580,-0.004
18.585,-0.003
18.590,-0.007
18.595,-0.012
18.600,-0.022
18.605,-0.026
18.610,-0.035
18.615,-0.053
18.620,-0.070
18.625,-0.077
18.630,-0.075
18.635,-0.081
18.640,-0.083
18.645,-0.080
18.650,-0.086
18.655,-0.082
18.660,-0.072
18.665,-0.062
18.670,-0.045
18.675,-0.028
18.680,-0.019
18.685,-0.012
18.690,-0.001
18.695,0.012
18.700,0.023
18.705,0.028
18.710,0.024
18.715,0.014
18.720,0.010
18.725,0.017
18.730,0.032
18.735,0.044
18.740,0.045
18.745,0.046
18.750,0.044
18.755,0.034
18.760,0.026
18.765,0.032
18.770,0.032
18.775,0.021
18.780,0.020
18.785,0.027
18.790,0.032
18.795,0.033
18.800,0.026
18.805,0.015
18.810,0.010
18.815,0.013
18.820,0.020
18.825,0.023
18.830,0.021
18.835,0.017
18.840,0.020
18.845,0.018
18.850,0.009
18.855,0.002
18.860,-0.010
18.865,-0.024
18.870,-0.019
18.875,-0.008
18.880,-0.006
18.885,-0.011
18.890,-0.021
18.895,-0.023
18.900,-0.012
18.905,-0.003
18.910,-0.002
18.915,-0.006
18.920,-0.002
18.925,0.002
18.930,-0.003
18.935,-0.013
18.940,-0.013
18.945,-0.008
18.950,-0.007
18.955,-0.009
18.960,-0.011
18.965,-0.007
18.970,-0.001
18.975,-0.003
18.980,-0.007
18.985,-0.008
18.990,-0.007
18.995,0.003
19.000,0.007
19.005,0.001
19.010,-0.006
19.015,-0.007
19.020,-0.004
19.025,-0.004
19.030,-0.005
19.035,-0.007
19.040,-0.009
19.045,-0.014
19.050,-0.018
19.055,-0.012
19.060,-0.008
19.065,-0.007
19.070,-0.002
19.075,-0.001
19.080,-0.006
19.085,-0.011
19.090,-0.011
19.095,-0.004
19.100,0.004
19.105,0.005
19.110,0.002
19.115,0.006
19.120,0.005
19.125,-0.005
19.130,-0.011
19.135,-0.011
19.140,-0.007
19.145,0.000
19.150,0.003
19.155,0.004
19.160,0.004
19.165,0.001
19.170,-0.003
19.175,-0.005
19.180,-0.003
19.185,-0.001
19.190,-0.003
19.195,-0.006
19.200,-0.013
19.205,-0.014
19.210,-0.011
19.215,-0.012
19.220,-0.015
19.225,-0.014
19.230,-0.015
19.235,-0.022
19.240,-0.027
19.245,-0.024
19.250,-0.020
19.255,-0.022
19.260,-0.029
19.265,-0.034
19.270,-0.024
19.275,-0.013
19.280,-0.005
19.285,0.005
19.290,0.013
19.295,0.021
19.300,0.022
19.305,0.019
19.310,0.017
19.315,0.018
19.320,0.019
19.325,0.017
19.330,0.025
19.335,0.049
19.340,0.060
19.345,0.015
19.350,-0.095
19.355,-0.262
19.360,-0.461
19.365,-0.652
19.370,-0.737
19.375,-0.620
19.380,-0.381
19.385,-0.122
19.390,0.089
19.395,0.195
19.400,0.227
19.405,0.214
19.410,0.189
19.415,0.191
19.420,0.193
19.425,0.183
19.430,0.183
19.435,0.186
19.440,0.177
19.445,0.170
19.450,0.167
19.455,0.162
19.460,0.156
19.465,0.153
19.470,0.144
19.475,0.127
19.480,0.117
19.485,0.115
19.490,0.111
19.495,0.104
19.500,0.096
19.505,0.093
19.510,0.092
19.515,0.089
19.520,0.090
19.525,0.088
19.530,0.083
19.535,0.075
19.540,0.063
19.545,0.055
19.550,0.048
19.555,0.040
19.560,0.034
19.565,0.034
19.570,0.035
19.575,0.028
19.580,0.021
19.585,0.020
19.590,0.014
19.595,0.006
19.600,0.004
19.605,0.002
19.610,-0.004
19.615,-0.016
19.620,-0.023
19.625,-0.022
19.630,-0.026
19.635,-0.033
19.640,-0.040
19.645,-0.051
19.650,-0.067
19.655,-0.077
19.660,-0.078
19.665,-0.078
19.670,-0.068
19.675,-0.056
19.680,-0.058
19.685,-0.072
19.690,-0.080
19.695,-0.064
19.700,-0.041
19.705,-0.030
19.710,-0.023
19.715,-0.009
19.720,0.005
19.725,0.013
19.730,0.021
19.735,0.027
19.740,0.023
19.745,0.016
19.750,0.010
19.755,0.015
19.760,0.022
19.765,0.020
19.770,0.013
19.775,0.012
19.780,0.022
19.785,0.029
19.790,0.030
19.795,0.025
19.800,0.020
19.805,0.020
19.810,0.021
19.815,0.015
19.820,0.004
19.825,0.003
19.830,0.006
19.835,0.003
19.840,0.003
19.845,0.007
19.850,0.016
19.855,0.030
19.860,0.035
19.865,0.016
19.870,-0.015
19.875,-0.029
19.880,-0.023
19.885,-0.008
19.890,-0.004
19.895,-0.009
19.900,0.006
19.905,0.018
19.910,0.007
19.915,-0.004
19.920,-0.007
19.925,-0.010
19.930,-0.015
19.935,-0.023
19.940,-0.024
19.945,-0.012
19.950,-0.003
19.955,-0.008
19.960,-0.006
19.965,-0.004
19.970,-0.012
19.975,-0.014
19.980,-0.012
19.985,-0.010
19.990,-0.006
19.995,-0.005
20.000,-0.015
20.005,-0.019
20.010,-0.018
20.015,-0.018
20.020,-0.010
20.025,-0.011
20.030,-0.020
20.035,-0.018
20.040,-0.008
20.045,-0.002
20.050,-0.006
20.055,-0.011
20.060,-0.016
20.065,-0.011
20.070,-0.005
20.075,-0.018
20.080,-0.022
20.085,-0.009
20.090,0.002
20.095,0.001
20.100,-0.007
20.105,-0.009
20.110,-0.006
20.115,-0.005
20.120,-0.010
20.125,-0.010
20.130,-0.003
20.135,0.001
20.140,-0.003
20.145,-0.009
20.150,-0.008
20.155,-0.004
20.160,-0.009
20.165,-0.019
20.170,-0.018
20.175,-0.010
20.180,-0.005
20.185,-0.008
20.190,-0.011
20.195,0.003
20.200,0.017
20.205,0.012
20.210,-0.010
20.215,-0.026
20.220,-0.026
20.225,-0.013
20.230,-0.010
20.235,-0.025
20.240,-0.028
20.245,-0.031
20.250,-0.032
20.255,-0.018
20.260,-0.016
20.265,-0.023
20.270,-0.027
20.275,-0.024
20.280,-0.013
20.285,-0.016
20.290,-0.029
20.295,-0.024
20.300,-0.015
20.305,-0.015
20.310,-0.007
20.315,0.016
20.320,0.034
20.325,0.027
20.330,0.006
20.335,0.000
20.340,0.009
20.345,0.009
20.350,0.007
20.355,0.015
20.360,0.031
20.365,0.061
20.370,0.059
20.375,-0.019
20.380,-0.152
20.385,-0.340
20.390,-0.554
20.395,-0.712
20.400,-0.703
20.405,-0.510
20.410,-0.261
20.415,-0.034
20.420,0.139
20.425,0.227
20.430,0.251
20.435,0.219
20.440,0.187
20.445,0.194
20.450,0.184
20.455,0.170
20.460,0.181
20.465,0.174
20.470,0.155
20.475,0.137
20.480,0.127
20.485,0.137
20.490,0.142
20.495,0.141
20.500,0.137
20.505,0.127
20.510,0.125
20.515,0.131
20.520,0.128
20.525,0.101
20.530,0.082
20.535,0.080
20.540,0.080
20.545,0.081
20.550,0.072
20.555,0.070
20.560,0.076
20.565,0.068
20.570,0.067
20.575,0.069
20.580,0.047
20.585,0.024
20.590,0.021
20.595,0.035
20.600,0.033
20.605,0.022
20.610,0.024
20.615,0.023
20.620,0.020
20.625,0.013
20.630,-0.003
20.635,-0.020
20.640,-0.028
20.645,-0.026
20.650,-0.023
20.655,-0.039
20.660,-0.053
20.665,-0.036
20.670,-0.030
20.675,-0.045
20.680,-0.068
20.685,-0.094
20.690,-0.103
20.695,-0.096
20.700,-0.081
20.705,-0.058
20.710,-0.045
20.715,-0.046
20.720,-0.043
20.725,-0.023
20.730,-0.019
20.735,-0.026
20.740,-0.026
20.745,-0.018
20.750,0.009
20.755,0.026
20.760,0.025
20.765,0.031
20.770,0.035
20.775,0.035
20.780,0.040
20.785,0.047
20.790,0.050
20.795,0.046
20.800,0.032
20.805,0.024
20.810,0.027
20.815,0.023
20.820,0.016
20.825,0.020
20.830,0.028
20.835,0.038
20.840,0.031
20.845,0.013
20.850,0.010
20.855,-0.004
20.860,-0.015
20.865,0.005
20.870,0.025
20.875,0.022
20.880,0.002
20.885,-0.013
20.890,-0.014
20.895,-0.011
20.900,-0.012
20.905,-0.006
20.910,-0.003
20.915,-0.015
20.920,-0.018
20.925,-0.019
20.930,-0.027
20.935,-0.022
20.940,-0.020
20.945,-0.024
20.950,-0.029
20.955,-0.040
20.960,-0.038
20.965,-0.026
20.970,-0.018
20.975,-0.021
20.980,-0.024
20.985,-0.013
20.990,-0.002
20.995,-0.007
21.000,-0.020
21.005,-0.025
21.010,-0.029
21.015,-0.038
21.020,-0.034
21.025,-0.016
21.030,-0.012
21.035,-0.036
21.040,-0.053
21.045,-0.029
21.050,-0.008
21.055,-0.023
21.060,-0.040
21.065,-0.029
21.070,-0.007
21.075,-0.003
21.080,-0.015
21.085,-0.027
21.090,-0.031
21.095,-0.028
21.100,-0.026
21.105,-0.017
21.110,-0.004
21.115,-0.009
21.120,-0.019
21.125,-0.017
21.130,-0.019
21.135,-0.030
21.140,-0.038
21.145,-0.039
21.150,-0.030
21.155,-0.012
21.160,-0.004
21.165,-0.012
21.170,-0.017
21.175,-0.022
21.180,-0.024
21.185,-0.020
21.190,-0.023
21.195,-0.017
21.200,-0.004
21.205,-0.009
21.210,-0.019
21.215,-0.020
21.220,-0.017
21.225,-0.012
21.230,-0.015
21.235,-0.020
21.240,-0.022
21.245,-0.030
21.250,-0.043
21.255,-0.050
21.260,-0.045
21.265,-0.037
21.270,-0.036
21.275,-0.038
21.280,-0.026
21.285,-0.011
21.290,-0.013
21.295,-0.020
21.300,-0.020
21.305,-0.011
21.310,0.006
21.315,0.018
21.320,0.019
21.325,0.021
21.330,0.023
21.335,0.014
21.340,0.009
21.345,0.004
21.350,-0.003
21.355,0.011
21.360,0.040
21.365,0.066
21.370,0.031
21.375,-0.089
21.380,-0.255
21.385,-0.452
21.390,-0.654
21.395,-0.758
21.400,-0.655
21.405,-0.417
21.410,-0.154
21.415,0.070
21.420,0.195
21.425,0.239
21.430,0.219
21.435,0.186
21.440,0.193
21.445,0.199
21.450,0.183
21.455,0.181
21.460,0.182
21.465,0.174
21.470,0.175
21.475,0.178
21.480,0.167
21.485,0.146
21.490,0.144
21.495,0.154
21.500,0.146
21.505,0.130
21.510,0.118
21.515,0.110
21.520,0.109
21.525,0.105
21.530,0.095
21.535,0.083
21.540,0.075
21.545,0.074
21.550,0.074
21.555,0.071
21.560,0.077
21.565,0.087
21.570,0.085
21.575,0.070
21.580,0.057
21.585,0.059
21.590,0.058
21.595,0.041
21.600,0.027
21.605,0.029
21.610,0.036
21.615,0.034
21.620,0.021
21.625,0.008
21.630,-0.001
21.635,-0.010
21.640,-0.013
21.645,-0.008
21.650,-0.015
21.655,-0.029
21.660,-0.039
21.665,-0.041
21.670,-0.041
21.675,-0.051
21.680,-0.060
21.685,-0.062
21.690,-0.064
21.695,-0.064
21.700,-0.063
21.705,-0.062
21.710,-0.059
21.715,-0.052
21.720,-0.040
21.725,-0.029
21.730,-0.015
21.735,0.003
21.740,0.019
21.745,0.027
21.750,0.029
21.755,0.032
21.760,0.040
21.765,0.039
21.770,0.031
21.775,0.030
21.780,0.038
21.785,0.049
21.790,0.050
21.795,0.039
21.800,0.033
21.805,0.038
21.810,0.044
21.815,0.039
21.820,0.029
21.825,0.023
21.830,0.021
21.835,0.024
21.840,0.024
21.845,0.026
21.850,0.030
21.855,0.026
21.860,0.015
21.865,0.009
21.870,0.006
21.875,0.002
21.880,0.001
21.885,0.006
21.890,0.009
21.895,0.009
21.900,0.005
21.905,0.000
21.910,-0.002
21.915,-0.008
21.920,-0.010
21.925,-0.006
21.930,-0.004
21.935,-0.002
21.940,-0.005
21.945,-0.010
21.950,-0.010
21.955,-0.010
21.960,-0.011
21.965,-0.013
21.970,-0.017
21.975,-0.020
21.980,-0.020
21.985,-0.020
21.990,-0.023
21.995,-0.024
22.000,-0.022
22.005,-0.015
22.010,-0.010
22.015,-0.012
22.020,-0.014
22.025,-0.013
22.030,-0.012
22.035,-0.014
22.040,-0.014
22.045,-0.013
22.050,-0.013
22.055,-0.013
22.060,-0.013
22.065,-0.015
22.070,-0.017
22.075,-0.018
22.080,-0.015
22.085,-0.010
22.090,-0.010
22.095,-0.010
22.100,-0.010
22.105,-0.012
22.110,-0.013
22.115,-0.013
22.120,-0.011
22.125,-0.006
22.130,-0.004
22.135,-0.005
22.140,-0.007
22.145,-0.007
22.150,-0.005
22.155,-0.009
22.160,-0.013
22.165,-0.013
22.170,-0.011
22.175,-0.013
22.180,-0.023
22.185,-0.029
22.190,-0.023
22.195,-0.021
22.200,-0.030
22.205,-0.033
22.210,-0.029
22.215,-0.029
22.220,-0.033
22.225,-0.041
22.230,-0.043
22.235,-0.029
22.240,-0.012
22.245,0.007
22.250,0.021
22.255,0.021
22.260,0.012
22.265,0.007
22.270,0.008
22.275,0.005
22.280,-0.006
22.285,-0.008
22.290,0.005
22.295,0.026
22.300,0.057
22.305,0.071
22.310,0.031
22.315,-0.070
22.320,-0.233
22.325,-0.433
22.330,-0.630
22.335,-0.742
22.340,-0.665
22.345,-0.444
22.350,-0.180
22.355,0.054
22.360,0.188
22.365,0.228
22.370,0.212
22.375,0.185
22.380,0.196
22.385,0.209
22.390,0.184
22.395,0.164
22.400,0.166
22.405,0.172
22.410,0.179
22.415,0.173
22.420,0.152
22.425,0.140
22.430,0.139
22.435,0.140
22.440,0.140
22.445,0.133
22.450,0.124
22.455,0.106
22.460,0.089
22.465,0.094
22.470,0.102
22.475,0.100
22.480,0.086
22.485,0.074
22.490,0.076
22.495,0.079
22.500,0.075
22.505,0.074
22.510,0.074
22.515,0.065
22.520,0.058
22.525,0.050
22.530,0.030
22.535,0.019
22.540,0.021
22.545,0.027
22.550,0.021
22.555,0.006
22.560,0.008
22.565,0.022
22.570,0.024
22.575,0.010
22.580,-0.007
22.585,-0.016
22.590,-0.033
22.595,-0.051
22.600,-0.049
22.605,-0.046
22.610,-0.047
22.615,-0.043
22.620,-0.041
22.625,-0.053
22.630,-0.071
22.635,-0.082
22.640,-0.089
22.645,-0.087
22.650,-0.075
22.655,-0.055
22.660,-0.036
22.665,-0.035
22.670,-0.033
22.675,-0.012
22.680,0.006
22.685,0.012
22.690,0.016
22.695,0.032
22.700,0.039
22.705,0.029
22.710,0.024
22.715,0.028
22.720,0.037
22.725,0.045
22.730,0.039
22.735,0.026
22.740,0.019
22.745,0.013
22.750,0.013
22.755,0.024
22.760,0.036
22.765,0.033
22.770,0.022
22.775,0.020
22.780,0.028
22.785,0.021
22.790,-0.008
22.795,-0.024
22.800,-0.012
22.805,0.010
22.810,0.014
22.815,0.013
22.820,0.022
22.825,0.022
22.830,0.008
22.835,-0.010
22.840,-0.013
22.845,-0.013
22.850,-0.015
22.855,-0.008
22.860,-0.005
22.865,-0.007
22.870,-0.010
22.875,-0.020
22.880,-0.021
22.885,-0.012
22.890,-0.011
22.895,-0.010
22.900,-0.014
22.905,-0.021
22.910,-0.005
22.915,0.004
22.920,-0.018
22.925,-0.034
22.930,-0.024
22.935,-0.015
22.940,-0.026
22.945,-0.040
22.950,-0.031
22.955,-0.011
22.960,-0.004
22.965,-0.026
22.970,-0.042
22.975,-0.023
22.980,-0.009
22.985,-0.005
22.990,-0.013
22.995,-0.029
23.000,-0.023
23.005,-0.015
23.010,-0.020
23.015,-0.023
23.020,-0.028
23.025,-0.030
23.030,-0.014
23.035,0.007
23.040,0.012
23.045,-0.004
23.050,-0.032
23.055,-0.043
23.060,-0.033
23.065,-0.036
23.070,-0.042
23.075,-0.034
23.080,-0.019
23.085,-0.007
23.090,-0.019
23.095,-0.033
23.100,-0.035
23.105,-0.032
23.110,-0.024
23.115,-0.031
23.120,-0.034
23.125,-0.026
23.130,-0.027
23.135,-0.020
23.140,-0.007
23.145,-0.010
23.150,-0.007
23.155,0.007
23.160,0.015
23.165,0.018
23.170,0.021
23.175,0.011
23.180,0.011
23.185,0.013
23.190,0.002
23.195,0.022
23.200,0.037
23.205,0.009
23.210,-0.056
23.215,-0.184
23.220,-0.375
23.225,-0.595
23.230,-0.747
23.235,-0.703
23.240,-0.487
23.245,-0.217
23.250,0.032
23.255,0.186
23.260,0.228
23.265,0.211
23.270,0.184
23.275,0.181
23.280,0.196
23.285,0.192
23.290,0.177
23.295,0.185
23.300,0.182
23.305,0.162
23.310,0.159
23.315,0.166
23.320,0.171
23.325,0.157
23.330,0.123
23.335,0.095
23.340,0.098
23.345,0.125
23.350,0.138
23.355,0.129
23.360,0.094
23.365,0.059
23.370,0.068
23.375,0.093
23.380,0.109
23.385,0.108
23.390,0.088
23.395,0.081
23.400,0.071
23.405,0.055
23.410,0.051
23.415,0.042
23.420,0.026
23.425,0.026
23.430,0.038
23.435,0.046
23.440,0.039
23.445,0.014
23.450,0.000
23.455,0.005
23.460,-0.001
23.465,-0.004
23.470,-0.013
23.475,-0.019
23.480,-0.016
23.485,-0.031
23.490,-0.041
23.495,-0.037
23.500,-0.036
23.505,-0.040
23.510,-0.062
23.515,-0.079
23.520,-0.078
23.525,-0.083
23.530,-0.090
23.535,-0.081
23.540,-0.064
23.545,-0.060
23.550,-0.064
23.555,-0.050
23.560,-0.029
23.565,-0.011
23.570,0.009
23.575,0.012
23.580,0.009
23.585,0.016
23.590,0.011
23.595,0.021
23.600,0.032
23.605,0.028
23.610,0.040
23.615,0.049
23.620,0.040
23.625,0.035
23.630,0.032
23.635,0.034
23.640,0.040
23.645,0.031
23.650,0.027
23.655,0.029
23.660,0.018
23.665,0.012
23.670,0.008
23.675,0.005
23.680,0.009
23.685,0.022
23.690,0.030
23.695,0.018
23.700,0.003
23.705,-0.004
23.710,0.000
23.715,0.007
23.720,0.010
23.725,0.017
23.730,0.003
23.735,-0.022
23.740,-0.015
23.745,0.008
23.750,0.011
23.755,-0.016
23.760,-0.044
23.765,-0.049
23.770,-0.035
23.775,-0.028
23.780,-0.028
23.785,-0.020
23.790,-0.018
23.795,-0.013
23.800,-0.007
23.805,-0.014
23.810,-0.015
23.815,-0.021
23.820,-0.028
23.825,-0.022
23.830,-0.016
23.835,-0.015
23.840,-0.023
23.845,-0.029
23.850,-0.021
23.855,-0.016
23.860,-0.024
23.865,-0.037
23.870,-0.035
23.875,-0.028
23.880,-0.030
23.885,-0.026
23.890,-0.012
23.895,-0.005
23.900,-0.015
23.905,-0.031
23.910,-0.036
23.915,-0.029
23.920,-0.023
23.925,-0.025
23.930,-0.028
23.935,-0.026
23.940,-0.018
23.945,-0.006
23.950,0.002
23.955,-0.005
23.960,-0.016
23.965,-0.021
23.970,-0.032
23.975,-0.043
23.980,-0.034
23.985,-0.010
23.990,0.010
23.995,0.006
24.000,-0.015
24.005,-0.029
24.010,-0.028
24.015,-0.019
24.020,-0.006
24.025,0.000
24.030,-0.007
24.035,-0.025
24.040,-0.033
24.045,-0.021
24.050,-0.008
24.055,-0.005
24.060,-0.016
24.065,-0.040
24.070,-0.048
24.075,-0.040
24.080,-0.030
24.085,-0.016
24.090,-0.013
24.095,-0.034
24.100,-0.049
24.105,-0.038
24.110,-0.017
24.115,0.002
24.120,0.006
24.125,0.003
24.130,0.010
24.135,0.021
24.140,0.023
24.145,0.018
24.150,0.011
24.155,0.009
24.160,0.017
24.165,0.028
24.170,0.050
24.175,0.066
24.180,0.034
24.185,-0.052
24.190,-0.198
24.195,-0.393
24.200,-0.602
24.205,-0.757
24.210,-0.730
24.215,-0.523
24.220,-0.263
24.225,-0.016
24.230,0.156
24.235,0.230
24.240,0.238
24.245,0.208
24.250,0.196
24.255,0.208
24.260,0.210
24.265,0.202
24.270,0.201
24.275,0.197
24.280,0.181
24.285,0.170
24.290,0.166
24.295,0.166
24.300,0.158
24.305,0.138
24.310,0.129
24.315,0.125
24.320,0.122
24.325,0.123
24.330,0.119
24.335,0.116
24.340,0.112
24.345,0.100
24.350,0.097
24.355,0.097
24.360,0.096
24.365,0.094
24.370,0.086
24.375,0.076
24.380,0.072
24.385,0.071
24.390,0.061
24.395,0.045
24.400,0.041
24.405,0.051
24.410,0.056
24.415,0.046
24.420,0.026
24.425,0.013
24.430,0.010
24.435,0.011
24.440,0.009
24.445,0.003
24.450,-0.004
24.455,-0.012
24.460,-0.016
24.465,-0.016
24.470,-0.019
24.475,-0.026
24.480,-0.033
24.485,-0.040
24.490,-0.046
24.495,-0.048
24.500,-0.050
24.505,-0.053
24.510,-0.057
24.515,-0.061
24.520,-0.060
24.525,-0.057
24.530,-0.058
24.535,-0.051
24.540,-0.031
24.545,-0.007
24.550,0.011
24.555,0.015
24.560,0.017
24.565,0.025
24.570,0.034
24.575,0.037
24.580,0.036
24.585,0.034
24.590,0.036
24.595,0.040
24.600,0.041
24.605,0.040
24.610,0.037
24.615,0.036
24.620,0.037
24.625,0.033
24.630,0.030
24.635,0.032
24.640,0.032
24.645,0.032
24.650,0.030
24.655,0.025
24.660,0.022
24.665,0.019
24.670,0.016
24.675,0.016
24.680,0.013
24.685,0.010
24.690,0.011
24.695,0.012
24.700,0.012
24.705,0.007
24.710,0.002
24.715,-0.002
24.720,-0.005
24.725,-0.004
24.730,-0.004
24.735,-0.004
24.740,-0.004
24.745,-0.007
24.750,-0.004
24.755,-0.002
24.760,-0.005
24.765,-0.011
24.770,-0.017
24.775,-0.018
24.780,-0.015
24.785,-0.013
24.790,-0.015
24.795,-0.017
24.800,-0.017
24.805,-0.016
24.810,-0.014
24.815,-0.012
24.820,-0.010
24.825,-0.009
24.830,-0.009
24.835,-0.011
24.840,-0.014
24.845,-0.015
24.850,-0.012
24.855,-0.011
24.860,-0.010
24.865,-0.010
24.870,-0.010
24.875,-0.008
24.880,-0.011
24.885,-0.016
24.890,-0.018
24.895,-0.018
24.900,-0.017
24.905,-0.017
24.910,-0.017
24.915,-0.016
24.920,-0.012
24.925,-0.009
24.930,-0.009
24.935,-0.013
24.940,-0.017
24.945,-0.014
24.950,-0.006
24.955,-0.005
24.960,-0.010
24.965,-0.017
24.970,-0.019
24.975,-0.015
24.980,-0.010
24.985,-0.010
24.990,-0.014
24.995,-0.017
25.000,-0.015
25.005,-0.012
25.010,-0.012
25.015,-0.019
25.020,-0.020
25.025,-0.009
25.030,-0.002
25.035,-0.001
25.040,-0.003
25.045,-0.006
25.050,0.000
25.055,-0.002
25.060,-0.011
25.065,-0.013
25.070,-0.016
25.075,-0.018
25.080,-0.017
25.085,-0.015
25.090,-0.015
25.095,-0.020
25.100,-0.019
25.105,-0.016
25.110,-0.016
25.115,-0.015
25.120,-0.016
25.125,-0.023
25.130,-0.041
25.135,-0.047
25.140,-0.039
25.145,-0.034
25.150,-0.037
25.155,-0.044
25.160,-0.033
25.165,-0.008
25.170,0.004
25.175,0.012
25.180,0.017
25.185,0.014
25.190,0.007
25.195,0.004
25.200,0.006
25.205,0.015
25.210,0.024
25.215,0.022
25.220,0.016
25.225,0.024
25.230,0.049
25.235,0.047
25.240,-0.027
25.245,-0.162
25.250,-0.342
25.255,-0.542
25.260,-0.704
25.265,-0.714
25.270,-0.541
25.275,-0.292
25.280,-0.049
25.285,0.123
25.290,0.205
25.295,0.223
25.300,0.194
25.305,0.179
25.310,0.189
25.315,0.184
25.320,0.177
25.325,0.174
25.330,0.171
25.335,0.166
25.340,0.163
25.345,0.163
25.350,0.155
25.355,0.146
25.360,0.140
25.365,0.129
25.370,0.125
25.375,0.123
25.380,0.115
25.385,0.112
25.390,0.118
25.395,0.117
25.400,0.103
25.405,0.092
25.410,0.093
25.415,0.087
25.420,0.076
25.425,0.063
25.430,0.052
25.435,0.048
25.440,0.045
25.445,0.052
25.450,0.064
25.455,0.059
25.460,0.043
25.465,0.035
25.470,0.030
25.475,0.026
25.480,0.022
25.485,0.016
25.490,0.011
25.495,0.004
25.500,-0.001
25.505,-0.006
25.510,-0.018
25.515,-0.028
25.520,-0.030
25.525,-0.023
25.530,-0.028
25.535,-0.042
25.540,-0.052
25.545,-0.058
25.550,-0.048
25.555,-0.048
25.560,-0.074
25.565,-0.086
25.570,-0.087
25.575,-0.086
25.580,-0.074
25.585,-0.066
25.590,-0.047
25.595,-0.016
25.600,-0.004
25.605,0.002
25.610,0.012
25.615,0.015
25.620,0.010
25.625,0.001
25.630,-0.003
25.635,0.002
25.640,0.014
25.645,0.025
25.650,0.032
25.655,0.038
25.660,0.046
25.665,0.044
25.670,0.039
25.675,0.029
25.680,0.014
25.685,0.007
25.690,0.009
25.695,0.012
25.700,0.009
25.705,0.006
25.710,0.012
25.715,0.022
25.720,0.019
25.725,0.019
25.730,0.029
25.735,0.018
25.740,-0.005
25.745,-0.012
25.750,-0.005
25.755,-0.005
25.760,-0.012
25.765,-0.012
25.770,-0.007
25.775,-0.003
25.780,0.000
25.785,0.005
25.790,-0.004
25.795,-0.024
25.800,-0.019
25.805,0.000
25.810,-0.002
25.815,-0.023
25.820,-0.031
25.825,-0.013
25.830,-0.006
25.835,-0.015
25.840,-0.018
25.845,-0.022
25.850,-0.030
25.855,-0.027
25.860,-0.021
25.865,-0.017
25.870,-0.015
25.875,-0.015
25.880,-0.015
25.885,-0.024
25.890,-0.037
25.895,-0.032
25.900,-0.015
25.905,-0.008
25.910,-0.011
25.915,-0.021
25.920,-0.032
25.925,-0.026
25.930,-0.010
25.935,-0.001
25.940,-0.008
25.945,-0.018
25.950,-0.021
25.955,-0.023
25.960,-0.023
25.965,-0.016
25.970,-0.012
25.975,-0.009
25.980,-0.009
25.985,-0.006
25.990,-0.005
25.995,-0.025
26.000,-0.042
26.005,-0.035
26.010,-0.023
26.015,-0.010
26.020,0.001
26.025,0.004
26.030,0.001
26.035,-0.007
26.040,-0.011
26.045,-0.012
26.050,-0.015
26.055,-0.026
26.060,-0.029
26.065,-0.003
26.070,0.014
26.075,-0.003
26.080,-0.024
26.085,-0.024
26.090,-0.009
26.095,-0.008
26.100,-0.019
26.105,-0.020
26.110,-0.009
26.115,-0.006
26.120,-0.010
26.125,-0.007
26.130,-0.012
26.135,-0.022
26.140,-0.037
26.145,-0.044
26.150,-0.024
26.155,-0.008
26.160,-0.008
26.165,-0.015
26.170,-0.031
26.175,-0.030
26.180,-0.021
26.185,-0.018
26.190,-0.010
26.195,0.000
26.200,0.010
26.205,0.021
26.210,0.021
26.215,0.003
26.220,-0.011
26.225,-0.005
26.230,0.011
26.235,0.031
26.240,0.051
26.245,0.061
26.250,0.057
26.255,0.049
26.260,0.011
26.265,-0.075
26.270,-0.219
26.275,-0.426
26.280,-0.628
26.285,-0.738
26.290,-0.664
26.295,-0.440
26.300,-0.182
26.305,0.058
26.310,0.207
26.315,0.248
26.320,0.230
26.325,0.191
26.330,0.183
26.335,0.197
26.340,0.186
26.345,0.176
26.350,0.179
26.355,0.176
26.360,0.178
26.365,0.183
26.370,0.174
26.375,0.160
26.380,0.150
26.385,0.128
26.390,0.107
26.395,0.105
26.400,0.117
26.405,0.129
26.410,0.119
26.415,0.096
26.420,0.088
26.425,0.094
26.430,0.097
26.435,0.099
26.440,0.087
26.445,0.066
26.450,0.070
26.455,0.072
26.460,0.059
26.465,0.047
26.470,0.043
26.475,0.045
26.480,0.043
26.485,0.033
26.490,0.026
26.495,0.020
26.500,0.014
26.505,0.016
26.510,0.016
26.515,0.002
26.520,-0.010
26.525,-0.017
26.530,-0.012
26.535,-0.006
26.540,-0.024
26.545,-0.039
26.550,-0.038
26.555,-0.048
26.560,-0.058
26.565,-0.069
26.570,-0.084
26.575,-0.076
26.580,-0.067
26.585,-0.081
26.590,-0.091
26.595,-0.086
26.600,-0.077
26.605,-0.068
26.610,-0.053
26.615,-0.033
26.620,-0.019
26.625,-0.016
26.630,-0.014
26.635,-0.005
26.640,0.010
26.645,0.018
26.650,0.031
26.655,0.045
26.660,0.044
26.665,0.036
26.670,0.031
26.675,0.032
26.680,0.035
26.685,0.034
26.690,0.027
26.695,0.022
26.700,0.030
26.705,0.041
26.710,0.038
26.715,0.021
26.720,0.001
26.725,0.012
26.730,0.035
26.735,0.031
26.740,0.024
26.745,0.014
26.750,0.005
26.755,0.005
26.760,-0.009
26.765,-0.013
26.770,-0.003
26.775,0.005
26.780,0.006
26.785,-0.004
26.790,-0.014
26.795,-0.013
26.800,-0.008
26.805,-0.005
26.810,-0.014
26.815,-0.022
26.820,-0.022
26.825,-0.021
26.830,-0.014
26.835,-0.014
26.840,-0.024
26.845,-0.025
26.850,-0.021
26.855,-0.016
26.860,-0.011
26.865,-0.016
26.870,-0.023
26.875,-0.025
26.880,-0.025
26.885,-0.014
26.890,-0.006
26.895,-0.013
26.900,-0.018
26.905,-0.018
26.910,-0.017
26.915,-0.015
26.920,-0.018
26.925,-0.021
26.930,-0.020
26.935,-0.016
26.940,-0.016
26.945,-0.018
26.950,-0.014
26.955,-0.014
26.960,-0.015
26.965,-0.016
26.970,-0.022
26.975,-0.019
26.980,-0.020
26.985,-0.021
26.990,-0.013
26.995,-0.007
27.000,-0.010
27.005,-0.017
27.010,-0.018
27.015,-0.013
27.020,-0.006
27.025,0.001
27.030,-0.001
27.035,-0.015
27.040,-0.028
27.045,-0.022
27.050,-0.006
27.055,0.001
27.060,-0.007
27.065,-0.013
27.070,-0.012
27.075,-0.012
27.080,-0.015
27.085,-0.015
27.090,-0.012
27.095,-0.009
27.100,-0.002
27.105,-0.001
27.110,-0.003
27.115,-0.001
27.120,0.002
27.125,0.006
27.130,-0.002
27.135,-0.016
27.140,-0.016
27.145,-0.011
27.150,-0.012
27.155,-0.018
27.160,-0.024
27.165,-0.028
27.170,-0.034
27.175,-0.036
27.180,-0.021
27.185,-0.005
27.190,-0.010
27.195,-0.021
27.200,-0.024
27.205,-0.019
27.210,-0.011
27.215,-0.004
27.220,0.007
27.225,0.018
27.230,0.020
27.235,0.019
27.240,0.017
27.245,0.016
27.250,0.021
27.255,0.026
27.260,0.024
27.265,0.028
27.270,0.047
27.275,0.064
27.280,0.027
27.285,-0.078
27.290,-0.238
27.295,-0.436
27.300,-0.634
27.305,-0.741
27.310,-0.647
27.315,-0.415
27.320,-0.158
27.325,0.062
27.330,0.184
27.335,0.231
27.340,0.226
27.345,0.196
27.350,0.196
27.355,0.202
27.360,0.192
27.365,0.187
27.370,0.185
27.375,0.181
27.380,0.176
27.385,0.171
27.390,0.163
27.395,0.153
27.400,0.151
27.405,0.152
27.410,0.143
27.415,0.135
27.420,0.129
27.425,0.123
27.430,0.118
27.435,0.111
27.440,0.102
27.445,0.092
27.450,0.084
27.455,0.081
27.460,0.083
27.465,0.084
27.470,0.077
27.475,0.068
27.480,0.064
27.485,0.063
27.490,0.060
27.495,0.053
27.500,0.046
27.505,0.040
27.510,0.034
27.515,0.032
27.520,0.034
27.525,0.034
27.530,0.024
27.535,0.014
27.540,0.009
27.545,0.004
27.550,-0.003
27.555,-0.012
27.560,-0.020
27.565,-0.025
27.570,-0.032
27.575,-0.041
27.580,-0.050
27.585,-0.054
27.590,-0.055
27.595,-0.058
27.600,-0.058
27.605,-0.060
27.610,-0.066
27.615,-0.068
27.620,-0.067
27.625,-0.060
27.630,-0.049
27.635,-0.041
27.640,-0.032
27.645,-0.020
27.650,-0.007
27.655,0.004
27.660,0.013
27.665,0.017
27.670,0.017
27.675,0.022
27.680,0.029
27.685,0.035
27.690,0.038
27.695,0.034
27.700,0.029
27.705,0.026
27.710,0.024
27.715,0.025
27.720,0.026
27.725,0.025
27.730,0.023
27.735,0.021
27.740,0.020
27.745,0.019
27.750,0.020
27.755,0.019
27.760,0.016
27.765,0.013
27.770,0.007
27.775,0.005
27.780,0.006
27.785,0.006
27.790,0.004
27.795,0.001
27.800,-0.001
27.805,0.000
27.810,-0.001
27.815,-0.004
27.820,-0.009
27.825,-0.012
27.830,-0.014
27.835,-0.015
27.840,-0.015
27.845,-0.015
27.850,-0.014
27.855,-0.015
27.860,-0.017
27.865,-0.015
27.870,-0.015
27.875,-0.016
27.880,-0.017
27.885,-0.018
27.890,-0.016
27.895,-0.014
27.900,-0.015
27.905,-0.016
27.910,-0.017
27.915,-0.019
27.920,-0.020
27.925,-0.018
27.930,-0.017
27.935,-0.016
27.940,-0.016
27.945,-0.018
27.950,-0.019
27.955,-0.020
27.960,-0.022
27.965,-0.021
27.970,-0.018
27.975,-0.015
27.980,-0.013
27.985,-0.014
27.990,-0.014
27.995,-0.014
28.000,-0.014
28.005,-0.014
28.010,-0.017
28.015,-0.018
28.020,-0.017
28.025,-0.015
28.030,-0.015
28.035,-0.018
28.040,-0.019
28.045,-0.018
28.050,-0.014
28.055,-0.011
28.060,-0.011
28.065,-0.013
28.070,-0.018
28.075,-0.021
28.080,-0.025
28.085,-0.029
28.090,-0.031
28.095,-0.042
28.100,-0.054
28.105,-0.050
28.110,-0.036
28.115,-0.022
28.120,-0.023
28.125,-0.032
28.130,-0.032
28.135,-0.024
28.140,-0.014
28.145,-0.001
28.150,0.007
28.155,0.011
28.160,0.013
28.165,0.011
28.170,0.008
28.175,0.004
28.180,-0.003
28.185,-0.009
28.190,-0.005
28.195,0.013
28.200,0.050
28.205,0.072
28.210,0.026
28.215,-0.087
28.220,-0.259
28.225,-0.464
28.230,-0.657
28.235,-0.742
28.240,-0.627
28.245,-0.392
28.250,-0.127
28.255,0.089
28.260,0.190
28.265,0.221
28.270,0.204
28.275,0.181
28.280,0.190
28.285,0.182
28.290,0.158
28.295,0.155
28.300,0.166
28.305,0.175
28.310,0.177
28.315,0.173
28.320,0.158
28.325,0.139
28.330,0.126
28.335,0.116
28.340,0.111
28.345,0.107
28.350,0.106
28.355,0.111
28.360,0.108
28.365,0.099
28.370,0.096
28.375,0.100
28.380,0.096
28.385,0.077
28.390,0.062
28.395,0.057
28.400,0.057
28.405,0.053
28.410,0.043
28.415,0.040
28.420,0.048
28.425,0.048
28.430,0.045
28.435,0.045
28.440,0.044
28.445,0.034
28.450,0.019
28.455,0.011
28.460,0.010
28.465,0.008
28.470,0.001
28.475,-0.004
28.480,-0.006
28.485,-0.017
28.490,-0.039
28.495,-0.047
28.500,-0.037
28.505,-0.031
28.510,-0.032
28.515,-0.040
28.520,-0.060
28.525,-0.071
28.530,-0.069
28.535,-0.065
28.540,-0.061
28.545,-0.059
28.550,-0.054
28.555,-0.054
28.560,-0.060
28.565,-0.051
28.570,-0.025
28.575,0.001
28.580,0.016
28.585,0.020
28.590,0.021
28.595,0.027
28.600,0.036
28.605,0.036
28.610,0.026
28.615,0.025
28.620,0.034
28.625,0.042
28.630,0.036
28.635,0.021
28.640,0.026
28.645,0.038
28.650,0.038
28.655,0.031
28.660,0.015
28.665,0.009
28.670,0.016
28.675,0.026
28.680,0.033
28.685,0.022
28.690,0.009
28.695,0.005
28.700,0.002
28.705,0.000
28.710,0.003
28.715,0.014
28.720,0.015
28.725,0.006
28.730,0.013
28.735,0.023
28.740,0.018
28.745,0.007
28.750,-0.005
28.755,-0.011
28.760,-0.010
28.765,-0.011
28.770,-0.010
28.775,-0.006
28.780,-0.006
28.785,-0.006
28.790,-0.009
28.795,-0.007
28.800,0.002
28.805,0.005
28.810,-0.008
28.815,-0.031
28.820,-0.031
28.825,-0.004
28.830,0.004
28.835,-0.014
28.840,-0.024
28.845,-0.010
28.850,0.005
28.855,-0.008
28.860,-0.037
28.865,-0.040
28.870,-0.017
28.875,0.002
28.880,0.010
28.885,0.003
28.890,-0.021
28.895,-0.039
28.900,-0.038
28.905,-0.022
28.910,-0.019
28.915,-0.022
28.920,-0.011
28.925,-0.001
28.930,-0.001
28.935,-0.010
28.940,-0.014
28.945,-0.015
28.950,-0.019
28.955,-0.020
28.960,-0.017
28.965,-0.007
28.970,-0.005
28.975,-0.009
28.980,-0.007
28.985,-0.011
28.990,-0.009
28.995,0.000
29.000,-0.006
29.005,-0.025
29.010,-0.026
29.015,-0.013
29.020,0.001
29.025,0.007
29.030,-0.009
29.035,-0.024
29.040,-0.024
29.045,-0.028
29.050,-0.025
29.055,-0.022
29.060,-0.033
29.065,-0.029
29.070,-0.015
29.075,-0.021
29.080,-0.024
29.085,-0.010
29.090,-0.002
29.095,-0.014
29.100,-0.039
29.105,-0.048
29.110,-0.023
29.115,-0.007
29.120,-0.004
29.125,0.009
29.130,0.013
29.135,0.014
29.140,0.017
29.145,0.011
29.150,0.012
29.155,0.012
29.160,0.002
29.165,0.016
29.170,0.040
29.175,0.057
29.180,0.055
29.185,-0.005
29.190,-0.132
29.195,-0.322
29.200,-0.547
29.205,-0.723
29.210,-0.727
29.215,-0.537
29.220,-0.286
29.225,-0.040
29.230,0.144
29.235,0.224
29.240,0.246
29.245,0.228
29.250,0.199
29.255,0.188
29.260,0.178
29.265,0.171
29.270,0.173
29.275,0.162
29.280,0.141
29.285,0.144
29.290,0.167
29.295,0.162
29.300,0.139
29.305,0.123
29.310,0.116
29.315,0.113
29.320,0.112
29.325,0.109
29.330,0.106
29.335,0.101
29.340,0.096
29.345,0.095
29.350,0.092
29.355,0.093
29.360,0.083
29.365,0.065
29.370,0.062
29.375,0.065
29.380,0.066
29.385,0.052
29.390,0.038
29.395,0.041
29.400,0.045
29.405,0.038
29.410,0.017
29.415,0.001
29.420,0.005
29.425,0.009
29.430,0.010
29.435,0.010
29.440,0.009
29.445,0.006
29.450,-0.004
29.455,-0.018
29.460,-0.026
29.465,-0.027
29.470,-0.044
29.475,-0.063
29.480,-0.063
29.485,-0.066
29.490,-0.079
29.495,-0.089
29.500,-0.083
29.505,-0.067
29.510,-0.067
29.515,-0.078
29.520,-0.078
29.525,-0.071
29.530,-0.056
29.535,-0.034
29.540,-0.018
29.545,-0.012
29.550,-0.006
29.555,0.005
29.560,0.017
29.565,0.023
29.570,0.026
29.575,0.032
29.580,0.037
29.585,0.034
29.590,0.034
29.595,0.042
29.600,0.043
29.605,0.036
29.610,0.031
29.615,0.031
29.620,0.030
29.625,0.030
29.630,0.034
29.635,0.040
29.640,0.036
29.645,0.015
29.650,-0.007
29.655,-0.006
29.660,0.012
29.665,0.023
29.670,0.018
29.675,0.012
29.680,0.008
29.685,0.006
29.690,0.007
29.695,0.003
29.700,0.000
29.705,-0.007
29.710,-0.020
29.715,-0.018
29.720,-0.012
29.725,-0.009
29.730,-0.003
29.735,0.001
29.740,0.004
29.745,-0.005
29.750,-0.021
29.755,-0.026
29.760,-0.021
29.765,-0.015
29.770,-0.019
29.775,-0.028
29.780,-0.033
29.785,-0.024
29.790,-0.008
29.795,-0.011
29.800,-0.017
29.805,-0.013
29.810,-0.011
29.815,-0.008
29.820,-0.010
29.825,-0.018
29.830,-0.021
29.835,-0.019
29.840,-0.014
29.845,-0.018
29.850,-0.029
29.855,-0.027
29.860,-0.017
29.865,-0.010
29.870,-0.020
29.875,-0.032
29.880,-0.022
29.885,-0.011
29.890,-0.008
29.895,-0.009
29.900,-0.013
29.905,-0.016
29.910,-0.022
29.915,-0.025
29.920,-0.022
29.925,-0.021
29.930,-0.017
29.935,-0.007
29.940,0.000
29.945,-0.003
29.950,-0.010
29.955,-0.016
29.960,-0.017
29.965,-0.009
29.970,-0.004
29.975,-0.009
29.980,-0.014
29.985,-0.014
29.990,-0.003
29.995,0.006
30.000,0.000
30.005,-0.011
30.010,-0.012
30.015,-0.008
30.020,-0.013
30.025,-0.014
30.030,-0.006
30.035,-0.001
30.040,0.001
30.045,-0.004
30.050,-0.015
30.055,-0.015
30.060,-0.014
30.065,-0.018
30.070,-0.020
30.075,-0.025
30.080,-0.031
30.085,-0.035
30.090,-0.035
30.095,-0.032
30.100,-0.024
30.105,-0.018
30.110,-0.021
30.115,-0.020
30.120,-0.013
30.125,-0.005
30.130,0.003
30.135,0.004
30.140,0.011
30.145,0.019
30.150,0.019
30.155,0.015
30.160,0.006
30.165,0.004
30.170,0.007
30.175,0.020
30.180,0.051
30.185,0.066
30.190,0.023
30.195,-0.087
30.200,-0.262
30.205,-0.470
30.210,-0.664
30.215,-0.743
30.220,-0.616
30.225,-0.369
30.230,-0.110
30.235,0.097
30.240,0.201
30.245,0.238
30.250,0.225
30.255,0.192
30.260,0.187
30.265,0.189
30.270,0.181
30.275,0.180
30.280,0.182
30.285,0.172
30.290,0.160
30.295,0.158
30.300,0.161
30.305,0.158
30.310,0.146
30.315,0.132
30.320,0.123
30.325,0.122
30.330,0.118
30.335,0.104
30.340,0.101
30.345,0.106
30.350,0.105
30.355,0.098
30.360,0.088
30.365,0.079
30.370,0.076
30.375,0.073
30.380,0.067
30.385,0.059
30.390,0.056
30.395,0.056
30.400,0.055
30.405,0.051
30.410,0.045
30.415,0.039
30.420,0.033
30.425,0.026
30.430,0.020
30.435,0.017
30.440,0.014
30.445,0.005
30.450,-0.007
30.455,-0.012
30.460,-0.014
30.465,-0.020
30.470,-0.033
30.475,-0.044
30.480,-0.047
30.485,-0.047
30.490,-0.051
30.495,-0.058
30.500,-0.063
30.505,-0.063
30.510,-0.061
30.515,-0.059
30.520,-0.060
30.525,-0.062
30.530,-0.060
30.535,-0.054
30.540,-0.044
30.545,-0.036
30.550,-0.028
30.555,-0.015
30.560,-0.003
30.565,0.005
30.570,0.012
30.575,0.020
30.580,0.027
30.585,0.030
30.590,0.030
30.595,0.026
30.600,0.026
30.605,0.030
30.610,0.032
30.615,0.035
30.620,0.033
30.625,0.027
30.630,0.025
30.635,0.025
30.640,0.025
30.645,0.023
30.650,0.020
30.655,0.020
30.660,0.023
30.665,0.025
30.670,0.024
30.675,0.020
30.680,0.016
30.685,0.010
30.690,0.007
30.695,0.007
30.700,0.006
30.705,0.003
30.710,0.001
30.715,-0.001
30.720,-0.002
30.725,-0.004
30.730,-0.005
30.735,-0.006
30.740,-0.009
30.745,-0.013
30.750,-0.015
30.755,-0.016
30.760,-0.016
30.765,-0.015
30.770,-0.015
30.775,-0.016
30.780,-0.016
30.785,-0.017
30.790,-0.018
30.795,-0.019
30.800,-0.018
30.805,-0.016
30.810,-0.017
30.815,-0.017
30.820,-0.017
30.825,-0.017
30.830,-0.017
30.835,-0.017
30.840,-0.018
30.845,-0.020
30.850,-0.021
30.855,-0.019
30.860,-0.017
30.865,-0.016
30.870,-0.017
30.875,-0.017
30.880,-0.016
30.885,-0.016
30.890,-0.016
30.895,-0.016
30.900,-0.016
30.905,-0.016
30.910,-0.018
30.915,-0.019
30.920,-0.017
30.925,-0.016
30.930,-0.016
30.935,-0.016
30.940,-0.013
30.945,-0.009
30.950,-0.008
30.955,-0.009
30.960,-0.011
30.965,-0.012
30.970,-0.013
30.975,-0.014
30.980,-0.012
30.985,-0.010
30.990,-0.009
30.995,-0.009
31.000,-0.011
31.005,-0.010
31.010,-0.010
31.015,-0.011
31.020,-0.011
31.025,-0.011
31.030,-0.011
31.035,-0.014
31.040,-0.014
31.045,-0.011
31.050,-0.008
31.055,-0.003
31.060,-0.003
31.065,-0.005
31.070,-0.007
31.075,-0.008
31.080,-0.008
31.085,-0.010
31.090,-0.014
31.095,-0.019
31.100,-0.023
31.105,-0.023
31.110,-0.027
31.115,-0.032
31.120,-0.031
31.125,-0.027
31.130,-0.022
31.135,-0.020
31.140,-0.022
31.145,-0.024
31.150,-0.023
31.155,-0.018
31.160,-0.004
31.165,0.011
31.170,0.019
31.175,0.022
31.180,0.019
31.185,0.020
31.190,0.026
31.195,0.026
31.200,0.020
31.205,0.015
31.210,0.027
31.215,0.059
31.220,0.060
31.225,-0.008
31.230,-0.137
31.235,-0.317
31.240,-0.517
31.245,-0.681
31.250,-0.700
31.255,-0.537
31.260,-0.296
31.265,-0.047
31.270,0.135
31.275,0.211
31.280,0.221
31.285,0.195
31.290,0.190
31.295,0.205
31.300,0.200
31.305,0.195
31.310,0.197
31.315,0.189
31.320,0.170
31.325,0.159
31.330,0.161
31.335,0.161
31.340,0.154
31.345,0.145
31.350,0.135
31.355,0.125
31.360,0.117
31.365,0.110
31.370,0.105
31.375,0.108
31.380,0.112
31.385,0.104
31.390,0.091
31.395,0.083
31.400,0.081
31.405,0.079
31.410,0.076
31.415,0.071
31.420,0.067
31.425,0.066
31.430,0.063
31.435,0.058
31.440,0.048
31.445,0.027
31.450,0.012
31.455,0.012
31.460,0.017
31.465,0.021
31.470,0.018
31.475,0.012
31.480,0.008
31.485,0.004
31.490,-0.005
31.495,-0.016
31.500,-0.026
31.505,-0.032
31.510,-0.032
31.515,-0.038
31.520,-0.050
31.525,-0.053
31.530,-0.050
31.535,-0.051
31.540,-0.060
31.545,-0.068
31.550,-0.072
31.555,-0.079
31.560,-0.079
31.565,-0.071
31.570,-0.060
31.575,-0.051
31.580,-0.049
31.585,-0.036
31.590,-0.010
31.595,0.006
31.600,0.014
31.605,0.018
31.610,0.020
31.615,0.022
31.620,0.016
31.625,0.011
31.630,0.020
31.635,0.030
31.640,0.037
31.645,0.041
31.650,0.036
31.655,0.024
31.660,0.012
31.665,0.009
31.670,0.009
31.675,0.009
31.680,0.020
31.685,0.028
31.690,0.027
31.695,0.014
31.700,0.000
31.705,0.003
31.710,0.011
31.715,0.016
31.720,0.014
31.725,0.008
31.730,0.014
31.735,0.023
31.740,0.024
31.745,0.014
31.750,-0.005
31.755,-0.013
31.760,-0.011
31.765,-0.012
31.770,-0.016
31.775,-0.016
31.780,-0.009
31.785,-0.003
31.790,0.004
31.795,0.004
31.800,-0.002
31.805,-0.006
31.810,-0.015
31.815,-0.023
31.820,-0.015
31.825,-0.005
31.830,-0.007
31.835,-0.011
31.840,-0.014
31.845,-0.018
31.850,-0.022
31.855,-0.026
31.860,-0.026
31.865,-0.020
31.870,-0.014
31.875,-0.016
31.880,-0.018
31.885,-0.012
31.890,-0.004
31.895,-0.002
31.900,-0.003
31.905,-0.009
31.910,-0.025
31.915,-0.028
31.920,-0.019
31.925,-0.018
31.930,-0.021
31.935,-0.024
31.940,-0.016
31.945,0.002
31.950,0.004
31.955,-0.006
31.960,-0.004
31.965,-0.001
31.970,-0.011
31.975,-0.022
31.980,-0.021
31.985,-0.013
31.990,-0.006
31.995,-0.008
32.000,-0.003
32.005,0.014
32.010,0.017
32.015,0.002
32.020,-0.010
32.025,-0.014
32.030,-0.015
32.035,-0.022
32.040,-0.022
32.045,-0.008
32.050,0.000
32.055,-0.008
32.060,-0.016
32.065,-0.013
32.070,-0.003
32.075,0.003
32.080,-0.001
32.085,-0.015
32.090,-0.024
32.095,-0.025
32.100,-0.025
32.105,-0.021
32.110,-0.019
32.115,-0.026
32.120,-0.035
32.125,-0.038
32.130,-0.035
32.135,-0.022
32.140,-0.018
32.145,-0.026
32.150,-0.023
32.155,-0.015
32.160,-0.006
32.165,0.011
32.170,0.026
32.175,0.023
32.180,0.007
32.185,0.002
32.190,0.003
32.195,0.007
32.200,0.011
32.205,0.015
32.210,0.036
32.215,0.063
32.220,0.064
32.225,0.027
32.230,-0.058
32.235,-0.212
32.240,-0.419
32.245,-0.622
32.250,-0.737
32.255,-0.658
32.260,-0.422
32.265,-0.164
32.270,0.061
32.275,0.195
32.280,0.231
32.285,0.216
32.290,0.183
32.295,0.172
32.300,0.176
32.305,0.173
32.310,0.175
32.315,0.174
32.320,0.162
32.325,0.147
32.330,0.142
32.335,0.145
32.340,0.142
32.345,0.138
32.350,0.135
32.355,0.123
32.360,0.113
32.365,0.114
32.370,0.112
32.375,0.110
32.380,0.112
32.385,0.106
32.390,0.094
32.395,0.081
32.400,0.067
32.405,0.053
32.410,0.043
32.415,0.042
32.420,0.051
32.425,0.060
32.430,0.057
32.435,0.047
32.440,0.046
32.445,0.040
32.450,0.025
32.455,0.016
32.460,0.018
32.465,0.026
32.470,0.022
32.475,0.002
32.480,-0.010
32.485,-0.012
32.490,-0.019
32.495,-0.024
32.500,-0.030
32.505,-0.040
32.510,-0.046
32.515,-0.042
32.520,-0.042
32.525,-0.057
32.530,-0.070
32.535,-0.078
32.540,-0.080
32.545,-0.073
32.550,-0.076
32.555,-0.078
32.560,-0.072
32.565,-0.069
32.570,-0.065
32.575,-0.059
32.580,-0.047
32.585,-0.028
32.590,-0.008
32.595,0.007
32.600,0.018
32.605,0.032
32.610,0.033
32.615,0.020
32.620,0.013
32.625,0.019
32.630,0.030
32.635,0.036
32.640,0.036
32.645,0.037
32.650,0.039
32.655,0.041
32.660,0.037
32.665,0.032
32.670,0.029
32.675,0.024
32.680,0.025
32.685,0.029
32.690,0.029
32.695,0.022
32.700,0.013
32.705,0.008
32.710,0.008
32.715,0.009
32.720,0.011
32.725,0.011
32.730,0.011
32.735,0.004
32.740,-0.010
32.745,-0.016
32.750,-0.017
32.755,-0.013
32.760,-0.009
32.765,-0.008
32.770,-0.007
32.775,-0.013
32.780,-0.022
32.785,-0.026
32.790,-0.022
32.795,-0.012
32.800,-0.014
32.805,-0.020
32.810,-0.019
32.815,-0.015
32.820,-0.009
32.825,-0.008
32.830,-0.013
32.835,-0.015
32.840,-0.014
32.845,-0.017
32.850,-0.022
32.855,-0.022
32.860,-0.021
32.865,-0.018
32.870,-0.017
32.875,-0.017
32.880,-0.018
32.885,-0.025
32.890,-0.024
32.895,-0.013
32.900,-0.005
32.905,-0.011
32.910,-0.026
32.915,-0.032
32.920,-0.022
32.925,-0.013
32.930,-0.010
32.935,-0.012
32.940,-0.018
32.945,-0.015
32.950,-0.010
32.955,-0.010
32.960,-0.013
32.965,-0.018
32.970,-0.017
32.975,-0.015
32.980,-0.016
32.985,-0.016
32.990,-0.011
32.995,-0.006
33.000,-0.009
33.005,-0.018
33.010,-0.025
33.015,-0.027
33.020,-0.022
33.025,-0.017
33.030,-0.022
33.035,-0.035
33.040,-0.042
33.045,-0.036
33.050,-0.028
33.055,-0.029
33.060,-0.032
33.065,-0.032
33.070,-0.026
33.075,-0.018
33.080,-0.011
33.085,-0.004
33.090,0.006
33.095,0.016
33.100,0.017
33.105,0.015
33.110,0.015
33.115,0.018
33.120,0.022
33.125,0.018
33.130,0.017
33.135,0.029
33.140,0.051
33.145,0.044
33.150,-0.030
33.155,-0.164
33.160,-0.346
33.165,-0.542
33.170,-0.697
33.175,-0.703
33.180,-0.520
33.185,-0.264
33.190,-0.019
33.195,0.151
33.200,0.218
33.205,0.230
33.210,0.205
33.215,0.186
33.220,0.193
33.225,0.187
33.230,0.177
33.235,0.174
33.240,0.168
33.245,0.159
33.250,0.154
33.255,0.151
33.260,0.142
33.265,0.135
33.270,0.134
33.275,0.131
33.280,0.129
33.285,0.123
33.290,0.113
33.295,0.106
33.300,0.099
33.305,0.096
33.310,0.092
33.315,0.087
33.320,0.085
33.325,0.080
33.330,0.075
33.335,0.071
33.340,0.064
33.345,0.055
33.350,0.050
33.355,0.048
33.360,0.046
33.365,0.042
33.370,0.037
33.375,0.033
33.380,0.031
33.385,0.027
33.390,0.022
33.395,0.017
33.400,0.006
33.405,-0.003
33.410,-0.004
33.415,-0.006
33.420,-0.011
33.425,-0.019
33.430,-0.027
33.435,-0.034
33.440,-0.041
33.445,-0.043
33.450,-0.044
33.455,-0.049
33.460,-0.054
33.465,-0.061
33.470,-0.066
33.475,-0.070
33.480,-0.068
33.485,-0.062
33.490,-0.056
33.495,-0.047
33.500,-0.038
33.505,-0.027
33.510,-0.017
33.515,-0.007
33.520,0.005
33.525,0.014
33.530,0.020
33.535,0.026
33.540,0.029
33.545,0.030
33.550,0.030
33.555,0.030
33.560,0.029
33.565,0.029
33.570,0.029
33.575,0.027
33.580,0.028
33.585,0.027
33.590,0.026
33.595,0.026
33.600,0.025
33.605,0.026
33.610,0.026
33.615,0.022
33.620,0.019
33.625,0.018
33.630,0.016
33.635,0.013
33.640,0.011
33.645,0.008
33.650,0.007
33.655,0.007
33.660,0.006
33.665,0.003
33.670,-0.001
33.675,-0.004
33.680,-0.003
33.685,-0.004
33.690,-0.006
33.695,-0.007
33.700,-0.009
33.705,-0.010
33.710,-0.011
33.715,-0.012
33.720,-0.012
33.725,-0.014
33.730,-0.015
33.735,-0.015
33.740,-0.016
33.745,-0.018
33.750,-0.021
33.755,-0.022
33.760,-0.022
33.765,-0.020
33.770,-0.017
33.775,-0.015
33.780,-0.013
33.785,-0.012
33.790,-0.013
33.795,-0.015
33.800,-0.019
33.805,-0.020
33.810,-0.019
33.815,-0.016
33.820,-0.013
33.825,-0.012
33.830,-0.014
33.835,-0.016
33.840,-0.018
33.845,-0.016
33.850,-0.014
33.855,-0.015
33.860,-0.015
33.865,-0.016
33.870,-0.014
33.875,-0.013
33.880,-0.013
33.885,-0.013
33.890,-0.013
33.895,-0.013
33.900,-0.013
33.905,-0.012
33.910,-0.009
33.915,-0.007
33.920,-0.007
33.925,-0.010
33.930,-0.012
33.935,-0.012
33.940,-0.012
33.945,-0.010
33.950,-0.009
33.955,-0.008
33.960,-0.009
33.965,-0.013
33.970,-0.013
33.975,-0.009
33.980,-0.004
33.985,-0.003
33.990,-0.005
33.995,-0.007
34.000,-0.008
34.005,-0.006
34.010,-0.004
34.015,-0.003
34.020,-0.003
34.025,-0.004
34.030,-0.005
34.035,-0.008
34.040,-0.011
34.045,-0.014
34.050,-0.016
34.055,-0.015
34.060,-0.018
34.065,-0.025
34.070,-0.026
34.075,-0.021
34.080,-0.015
34.085,-0.019
34.090,-0.031
34.095,-0.032
34.100,-0.020
34.105,-0.007
34.110,0.005
34.115,0.014
34.120,0.022
34.125,0.026
34.130,0.025
34.135,0.021
34.140,0.017
34.145,0.017
34.150,0.017
34.155,0.021
34.160,0.036
34.165,0.058
34.170,0.050
34.175,-0.024
34.180,-0.161
34.185,-0.345
34.190,-0.544
34.195,-0.696
34.200,-0.695
34.205,-0.514
34.210,-0.262
34.215,-0.015
34.220,0.152
34.225,0.213
34.230,0.221
34.235,0.200
34.240,0.192
34.245,0.200
34.250,0.188
34.255,0.177
34.260,0.175
34.265,0.167
34.270,0.154
34.275,0.149
34.280,0.151
34.285,0.145
34.290,0.137
34.295,0.138
34.300,0.138
34.305,0.136
34.310,0.133
34.315,0.119
34.320,0.109
34.325,0.109
34.330,0.108
34.335,0.096
34.340,0.080
34.345,0.073
34.350,0.078
34.355,0.077
34.360,0.065
34.365,0.056
34.370,0.056
34.375,0.060
34.380,0.065
34.385,0.066
34.390,0.058
34.395,0.046
34.400,0.035
34.405,0.029
34.410,0.021
34.415,0.016
34.420,0.017
34.425,0.014
34.430,0.004
34.435,-0.010
34.440,-0.014
34.445,-0.008
34.450,-0.013
34.455,-0.025
34.460,-0.034
34.465,-0.042
34.470,-0.048
34.475,-0.052
34.480,-0.057
34.485,-0.061
34.490,-0.062
34.495,-0.066
34.500,-0.075
34.505,-0.083
34.510,-0.083
34.515,-0.073
34.520,-0.057
34.525,-0.046
34.530,-0.037
34.535,-0.029
34.540,-0.018
34.545,-0.003
34.550,0.009
34.555,0.019
34.560,0.019
34.565,0.013
34.570,0.015
34.575,0.019
34.580,0.020
34.585,0.024
34.590,0.025
34.595,0.024
34.600,0.028
34.605,0.031
34.610,0.035
34.615,0.036
34.620,0.031
34.625,0.023
34.630,0.013
34.635,0.015
34.640,0.018
34.645,0.012
34.650,0.004
34.655,-0.004
34.660,-0.001
34.665,0.016
34.670,0.026
34.675,0.024
34.680,0.012
34.685,-0.009
34.690,-0.018
34.695,-0.008
34.700,0.003
34.705,0.009
34.710,0.008
34.715,-0.003
34.720,-0.020
34.725,-0.024
34.730,-0.011
34.735,-0.001
34.740,-0.001
34.745,-0.010
34.750,-0.024
34.755,-0.024
34.760,-0.017
34.765,-0.009
34.770,-0.005
34.775,-0.013
34.780,-0.027
34.785,-0.030
34.790,-0.024
34.795,-0.016
34.800,-0.006
34.805,0.000
34.810,-0.003
34.815,-0.009
34.820,-0.016
34.825,-0.022
34.830,-0.021
34.835,-0.017
34.840,-0.021
34.845,-0.024
34.850,-0.032
34.855,-0.038
34.860,-0.019
34.865,0.007
34.870,0.013
34.875,-0.001
34.880,-0.015
34.885,-0.011
34.890,-0.007
34.895,-0.023
34.900,-0.036
34.905,-0.027
34.910,-0.016
34.915,-0.010
34.920,-0.015
34.925,-0.018
34.930,-0.001
34.935,0.013
34.940,0.007
34.945,-0.008
34.950,-0.018
34.955,-0.012
34.960,-0.003
34.965,-0.012
34.970,-0.021
34.975,-0.019
34.980,-0.014
34.985,-0.006
34.990,-0.002
34.995,-0.004
35.000,-0.007
35.005,-0.006
35.010,-0.002
35.015,-0.003
35.020,-0.004
35.025,-0.005
35.030,-0.010
35.035,-0.022
35.040,-0.026
35.045,-0.023
35.050,-0.023
35.055,-0.017
35.060,-0.017
35.065,-0.024
35.070,-0.022
35.075,-0.019
35.080,-0.014
35.085,-0.016
35.090,-0.030
35.095,-0.033
35.100,-0.019
35.105,-0.005
35.110,0.004
35.115,0.017
35.120,0.023
35.125,0.016
35.130,0.014
35.135,0.016
35.140,0.014
35.145,0.013
35.150,0.012
35.155,0.007
35.160,0.005
35.165,0.021
35.170,0.060
35.175,0.064
35.180,-0.022
35.185,-0.182
35.190,-0.369
35.195,-0.544
35.200,-0.680
35.205,-0.673
35.210,-0.479
35.215,-0.218
35.220,0.026
35.225,0.176
35.230,0.226
35.235,0.233
35.240,0.197
35.245,0.169
35.250,0.179
35.255,0.182
35.260,0.176
35.265,0.174
35.270,0.177
35.275,0.174
35.280,0.161
35.285,0.142
35.290,0.123
35.295,0.115
35.300,0.110
35.305,0.116
35.310,0.127
35.315,0.123
35.320,0.112
35.325,0.102
35.330,0.104
35.335,0.110
35.340,0.099
35.345,0.086
35.350,0.075
35.355,0.063
35.360,0.058
35.365,0.057
35.370,0.052
35.375,0.053
35.380,0.060
35.385,0.058
35.390,0.055
35.395,0.051
35.400,0.040
35.405,0.027
35.410,0.016
35.415,0.013
35.420,0.014
35.425,0.004
35.430,-0.010
35.435,-0.018
35.440,-0.019
35.445,-0.010
35.450,-0.011
35.455,-0.018
35.460,-0.022
35.465,-0.033
35.470,-0.045
35.475,-0.060
35.480,-0.077
35.485,-0.078
35.490,-0.066
35.495,-0.059
35.500,-0.067
35.505,-0.072
35.510,-0.070
35.515,-0.059
35.520,-0.045
35.525,-0.048
35.530,-0.051
35.535,-0.036
35.540,-0.009
35.545,0.012
35.550,0.012
35.555,0.010
35.560,0.021
35.565,0.033
35.570,0.039
35.575,0.041
35.580,0.047
35.585,0.052
35.590,0.041
35.595,0.027
35.600,0.024
35.605,0.031
35.610,0.036
35.615,0.032
35.620,0.028
35.625,0.028
35.630,0.031
35.635,0.032
35.640,0.027
35.645,0.019
35.650,0.014
35.655,0.013
35.660,0.015
35.665,0.021
35.670,0.023
35.675,0.012
35.680,0.002
35.685,-0.001
35.690,-0.002
35.695,-0.003
35.700,-0.004
35.705,-0.005
35.710,-0.006
35.715,-0.012
35.720,-0.018
35.725,-0.014
35.730,-0.013
35.735,-0.020
35.740,-0.024
35.745,-0.019
35.750,-0.012
35.755,-0.018
35.760,-0.030
35.765,-0.033
35.770,-0.031
35.775,-0.026
35.780,-0.019
35.785,-0.019
35.790,-0.023
35.795,-0.023
35.800,-0.021
35.805,-0.024
35.810,-0.029
35.815,-0.033
35.820,-0.027
35.825,-0.017
35.830,-0.018
35.835,-0.028
35.840,-0.033
35.845,-0.029
35.850,-0.025
35.855,-0.023
35.860,-0.019
35.865,-0.019
35.870,-0.020
35.875,-0.024
35.880,-0.025
35.885,-0.015
35.890,-0.012
35.895,-0.024
35.900,-0.028
35.905,-0.020
35.910,-0.015
35.915,-0.017
35.920,-0.020
35.925,-0.016
35.930,-0.010
35.935,-0.011
35.940,-0.017
35.945,-0.020
35.950,-0.021
35.955,-0.023
35.960,-0.020
35.965,-0.013
35.970,-0.010
35.975,-0.013
35.980,-0.018
35.985,-0.021
35.990,-0.020
35.995,-0.013
36.000,-0.005
36.005,-0.006
36.010,-0.010
36.015,-0.018
36.020,-0.026
36.025,-0.028
36.030,-0.036
36.035,-0.046
36.040,-0.041
36.045,-0.023
36.050,-0.009
36.055,-0.009
36.060,-0.026
36.065,-0.040
36.070,-0.032
36.075,-0.015
36.080,0.003
36.085,0.017
36.090,0.020
36.095,0.015
36.100,0.008
36.105,0.008
36.110,0.012
36.115,0.016
36.120,0.016
36.125,0.012
36.130,0.021
36.135,0.045
36.140,0.050
36.145,0.002
36.150,-0.106
36.155,-0.269
36.160,-0.463
36.165,-0.650
36.170,-0.730
36.175,-0.597
36.180,-0.343
36.185,-0.082
36.190,0.116
36.195,0.203
36.200,0.226
36.205,0.210
36.210,0.183
36.215,0.181
36.220,0.181
36.225,0.171
36.230,0.171
36.235,0.173
36.240,0.162
36.245,0.152
36.250,0.151
36.255,0.150
36.260,0.147
36.265,0.140
36.270,0.133
36.275,0.125
36.280,0.119
36.285,0.114
36.290,0.111
36.295,0.113
36.300,0.109
36.305,0.097
36.310,0.086
36.315,0.078
36.320,0.075
36.325,0.072
36.330,0.069
36.335,0.067
36.340,0.066
36.345,0.066
36.350,0.061
36.355,0.051
36.360,0.042
36.365,0.035
36.370,0.030
36.375,0.026
36.380,0.026
36.385,0.021
36.390,0.012
36.395,0.006
36.400,0.004
36.405,0.004
36.410,-0.003
36.415,-0.013
36.420,-0.017
36.425,-0.021
36.430,-0.028
36.435,-0.035
36.440,-0.039
36.445,-0.043
36.450,-0.054
36.455,-0.064
36.460,-0.067
36.465,-0.066
36.470,-0.061
36.475,-0.056
36.480,-0.056
36.485,-0.055
36.490,-0.052
36.495,-0.046
36.500,-0.033
36.505,-0.019
36.510,-0.005
36.515,0.007
36.520,0.016
36.525,0.022
36.530,0.026
36.535,0.027
36.540,0.030
36.545,0.039
36.550,0.044
36.555,0.042
36.560,0.039
36.565,0.037
36.570,0.036
36.575,0.033
36.580,0.032
36.585,0.033
36.590,0.030
36.595,0.025
36.600,0.023
36.605,0.024
36.610,0.027
36.615,0.027
36.620,0.020
36.625,0.013
36.630,0.012
36.635,0.014
36.640,0.014
36.645,0.013
36.650,0.011
36.655,0.010
36.660,0.006
36.665,-0.001
36.670,-0.003
36.675,-0.002
36.680,-0.002
36.685,-0.006
36.690,-0.012
36.695,-0.012
36.700,-0.011
36.705,-0.011
36.710,-0.012
36.715,-0.014
36.720,-0.015
36.725,-0.017
36.730,-0.018
36.735,-0.016
36.740,-0.015
36.745,-0.013
36.750,-0.016
36.755,-0.019
36.760,-0.019
36.765,-0.020
36.770,-0.021
36.775,-0.023
36.780,-0.021
36.785,-0.019
36.790,-0.018
36.795,-0.017
36.800,-0.019
36.805,-0.021
36.810,-0.021
36.815,-0.022
36.820,-0.022
36.825,-0.019
36.830,-0.017
36.835,-0.015
36.840,-0.013
36.845,-0.012
36.850,-0.011
36.855,-0.011
36.860,-0.010
36.865,-0.011
36.870,-0.011
36.875,-0.010
36.880,-0.011
36.885,-0.012
36.890,-0.013
36.895,-0.013
36.900,-0.011
36.905,-0.010
36.910,-0.009
36.915,-0.010
36.920,-0.009
36.925,-0.007
36.930,-0.006
36.935,-0.007
36.940,-0.010
36.945,-0.013
36.950,-0.014
36.955,-0.016
36.960,-0.017
36.965,-0.020
36.970,-0.021
36.975,-0.022
36.980,-0.023
36.985,-0.024
36.990,-0.031
36.995,-0.036
37.000,-0.032
37.005,-0.024
37.010,-0.021
37.015,-0.027
37.020,-0.037
37.025,-0.036
37.030,-0.023
37.035,-0.010
37.040,0.000
37.045,0.010
37.050,0.016
37.055,0.019
37.060,0.019
37.065,0.016
37.070,0.015
37.075,0.014
37.080,0.012
37.085,0.013
37.090,0.024
37.095,0.046
37.100,0.049
37.105,-0.008
37.110,-0.123
37.115,-0.288
37.120,-0.480
37.125,-0.654
37.130,-0.705
37.135,-0.560
37.140,-0.319
37.145,-0.069
37.150,0.121
37.155,0.206
37.160,0.226
37.165,0.198
37.170,0.174
37.175,0.183
37.180,0.186
37.185,0.176
37.190,0.173
37.195,0.171
37.200,0.162
37.205,0.155
37.210,0.153
37.215,0.148
37.220,0.143
37.225,0.139
37.230,0.130
37.235,0.118
37.240,0.108
37.245,0.104
37.250,0.105
37.255,0.105
37.260,0.101
37.265,0.090
37.270,0.082
37.275,0.080
37.280,0.079
37.285,0.078
37.290,0.073
37.295,0.063
37.300,0.051
37.305,0.040
37.310,0.040
37.315,0.045
37.320,0.046
37.325,0.040
37.330,0.030
37.335,0.026
37.340,0.022
37.345,0.019
37.350,0.016
37.355,0.011
37.360,0.006
37.365,0.001
37.370,-0.005
37.375,-0.009
37.380,-0.014
37.385,-0.019
37.390,-0.022
37.395,-0.030
37.400,-0.042
37.405,-0.053
37.410,-0.060
37.415,-0.062
37.420,-0.060
37.425,-0.060
37.430,-0.063
37.435,-0.066
37.440,-0.068
37.445,-0.063
37.450,-0.055
37.455,-0.044
37.460,-0.030
37.465,-0.022
37.470,-0.011
37.475,0.004
37.480,0.014
37.485,0.018
37.490,0.013
37.495,0.013
37.500,0.019
37.505,0.022
37.510,0.025
37.515,0.031
37.520,0.035
37.525,0.032
37.530,0.027
37.535,0.022
37.540,0.019
37.545,0.017
37.550,0.019
37.555,0.025
37.560,0.029
37.565,0.027
37.570,0.025
37.575,0.024
37.580,0.020
37.585,0.014
37.590,0.012
37.595,0.016
37.600,0.011
37.605,-0.001
37.610,-0.007
37.615,-0.001
37.620,0.009
37.625,0.006
37.630,0.000
37.635,-0.001
37.640,-0.001
37.645,0.007
37.650,0.016
37.655,0.015
37.660,0.002
37.665,-0.009
37.670,-0.011
37.675,-0.014
37.680,-0.019
37.685,-0.022
37.690,-0.021
37.695,-0.017
37.700,-0.020
37.705,-0.024
37.710,-0.017
37.715,-0.012
37.720,-0.014
37.725,-0.013
37.730,-0.008
37.735,-0.005
37.740,-0.013
37.745,-0.018
37.750,-0.017
37.755,-0.016
37.760,-0.016
37.765,-0.021
37.770,-0.021
37.775,-0.010
37.780,-0.009
37.785,-0.018
37.790,-0.018
37.795,-0.009
37.800,-0.005
37.805,-0.008
37.810,-0.020
37.815,-0.024
37.820,-0.013
37.825,-0.012
37.830,-0.021
37.835,-0.021
37.840,-0.012
37.845,-0.008
37.850,-0.009
37.855,-0.008
37.860,-0.005
37.865,0.000
37.870,0.001
37.875,-0.006
37.880,-0.020
37.885,-0.028
37.890,-0.023
37.895,-0.012
37.900,-0.007
37.905,-0.003
37.910,0.005
37.915,0.006
37.920,-0.009
37.925,-0.029
37.930,-0.030
37.935,-0.015
37.940,-0.008
37.945,-0.011
37.950,-0.020
37.955,-0.028
37.960,-0.028
37.965,-0.027
37.970,-0.024
37.975,-0.024
37.980,-0.036
37.985,-0.042
37.990,-0.031
37.995,-0.012
38.000,-0.006
38.005,-0.014
38.010,-0.016
38.015,-0.013
38.020,-0.013
38.025,-0.013
38.030,-0.002
38.035,0.011
38.040,0.009
38.045,0.005
38.050,0.001
38.055,-0.003
38.060,0.002
38.065,0.011
38.070,0.032
38.075,0.046
38.080,0.046
38.085,0.049
38.090,0.016
38.095,-0.086
38.100,-0.253
38.105,-0.449
38.110,-0.627
38.115,-0.698
38.120,-0.582
38.125,-0.358
38.130,-0.104
38.135,0.110
38.140,0.216
38.145,0.247
38.150,0.222
38.155,0.185
38.160,0.186
38.165,0.181
38.170,0.160
38.175,0.153
38.180,0.157
38.185,0.154
38.190,0.141
38.195,0.139
38.200,0.144
38.205,0.137
38.210,0.128
38.215,0.125
38.220,0.124
38.225,0.122
38.230,0.109
38.235,0.094
38.240,0.090
38.245,0.094
38.250,0.099
38.255,0.100
38.260,0.094
38.265,0.077
38.270,0.060
38.275,0.059
38.280,0.054
38.285,0.046
38.290,0.047
38.295,0.054
38.300,0.059
38.305,0.055
38.310,0.041
38.315,0.030
38.320,0.021
38.325,0.010
38.330,-0.001
38.335,-0.002
38.340,0.011
38.345,0.018
38.350,0.008
38.355,-0.005
38.360,-0.019
38.365,-0.026
38.370,-0.030
38.375,-0.047
38.380,-0.052
38.385,-0.041
38.390,-0.045
38.395,-0.053
38.400,-0.060
38.405,-0.066
38.410,-0.067
38.415,-0.071
38.420,-0.067
38.425,-0.057
38.430,-0.053
38.435,-0.045
38.440,-0.037
38.445,-0.030
38.450,-0.024
38.455,-0.017
38.460,-0.001
38.465,0.008
38.470,0.012
38.475,0.029
38.480,0.044
38.485,0.045
38.490,0.034
38.495,0.028
38.500,0.043
38.505,0.057
38.510,0.055
38.515,0.044
38.520,0.031
38.525,0.024
38.530,0.023
38.535,0.028
38.540,0.033
38.545,0.026
38.550,0.017
38.555,0.016
38.560,0.021
38.565,0.026
38.570,0.021
38.575,0.013
38.580,0.012
38.585,0.015
38.590,0.008
38.595,0.003
38.600,0.003
38.605,-0.004
38.610,-0.009
38.615,-0.014
38.620,-0.009
38.625,0.005
38.630,0.004
38.635,-0.005
38.640,-0.005
38.645,-0.005
38.650,-0.015
38.655,-0.023
38.660,-0.029
38.665,-0.030
38.670,-0.019
38.675,-0.009
38.680,-0.006
38.685,-0.013
38.690,-0.021
38.695,-0.014
38.700,-0.007
38.705,-0.012
38.710,-0.022
38.715,-0.026
38.720,-0.017
38.725,-0.013
38.730,-0.020
38.735,-0.025
38.740,-0.024
38.745,-0.026
38.750,-0.034
38.755,-0.033
38.760,-0.020
38.765,-0.011
38.770,-0.015
38.775,-0.023
38.780,-0.017
38.785,-0.010
38.790,-0.017
38.795,-0.024
38.800,-0.024
38.805,-0.023
38.810,-0.022
38.815,-0.022
38.820,-0.022
38.825,-0.018
38.830,-0.014
38.835,-0.016
38.840,-0.019
38.845,-0.017
38.850,-0.014
38.855,-0.012
38.860,-0.013
38.865,-0.017
38.870,-0.024
38.875,-0.031
38.880,-0.028
38.885,-0.025
38.890,-0.022
38.895,-0.022
38.900,-0.031
38.905,-0.037
38.910,-0.035
38.915,-0.031
38.920,-0.033
38.925,-0.044
38.930,-0.046
38.935,-0.030
38.940,-0.017
38.945,-0.020
38.950,-0.031
38.955,-0.033
38.960,-0.026
38.965,-0.024
38.970,-0.016
38.975,0.002
38.980,0.011
38.985,0.011
38.990,0.003
38.995,-0.004
39.000,0.000
39.005,0.004
39.010,0.010
39.015,0.012
39.020,0.014
39.025,0.030
39.030,0.050
39.035,0.036
39.040,-0.046
39.045,-0.187
39.050,-0.367
39.055,-0.561
39.060,-0.710
39.065,-0.692
39.070,-0.493
39.075,-0.231
39.080,0.010
39.085,0.163
39.090,0.218
39.095,0.220
39.100,0.188
39.105,0.169
39.110,0.176
39.115,0.174
39.120,0.169
39.125,0.172
39.130,0.165
39.135,0.156
39.140,0.154
39.145,0.151
39.150,0.142
39.155,0.133
39.160,0.129
39.165,0.122
39.170,0.115
39.175,0.118
39.180,0.119
39.185,0.110
39.190,0.097
39.195,0.088
39.200,0.089
39.205,0.091
39.210,0.084
39.215,0.072
39.220,0.067
39.225,0.065
39.230,0.061
39.235,0.056
39.240,0.049
39.245,0.042
39.250,0.037
39.255,0.034
39.260,0.038
39.265,0.041
39.270,0.038
39.275,0.029
39.280,0.019
39.285,0.016
39.290,0.014
39.295,0.007
39.300,-0.002
39.305,-0.007
39.310,-0.009
39.315,-0.018
39.320,-0.027
39.325,-0.034
39.330,-0.042
39.335,-0.045
39.340,-0.050
39.345,-0.054
39.350,-0.054
39.355,-0.059
39.360,-0.064
39.365,-0.065
39.370,-0.065
39.375,-0.057
39.380,-0.047
39.385,-0.042
39.390,-0.035
39.395,-0.022
39.400,-0.006
39.405,0.005
39.410,0.013
39.415,0.018
39.420,0.024
39.425,0.030
39.430,0.031
39.435,0.033
39.440,0.036
39.445,0.036
39.450,0.035
39.455,0.027
39.460,0.025
39.465,0.032
39.470,0.039
39.475,0.040
39.480,0.033
39.485,0.027
39.490,0.024
39.495,0.023
39.500,0.022
39.505,0.019
39.510,0.017
39.515,0.016
39.520,0.013
39.525,0.012
39.530,0.008
39.535,0.007
39.540,0.008
39.545,0.007
39.550,0.005
39.555,0.003
39.560,0.002
39.565,-0.004
39.570,-0.012
39.575,-0.009
39.580,-0.005
39.585,-0.005
39.590,-0.007
39.595,-0.012
39.600,-0.011
39.605,-0.013
39.610,-0.018
39.615,-0.019
39.620,-0.015
39.625,-0.013
39.630,-0.015
39.635,-0.016
39.640,-0.015
39.645,-0.010
39.650,-0.006
39.655,-0.009
39.660,-0.014
39.665,-0.018
39.670,-0.019
39.675,-0.015
39.680,-0.016
39.685,-0.016
39.690,-0.017
39.695,-0.016
39.700,-0.014
39.705,-0.013
39.710,-0.013
39.715,-0.012
39.720,-0.011
39.725,-0.010
39.730,-0.010
39.735,-0.011
39.740,-0.012
39.745,-0.014
39.750,-0.014
39.755,-0.016
39.760,-0.015
39.765,-0.014
39.770,-0.013
39.775,-0.012
39.780,-0.013
39.785,-0.012
39.790,-0.010
39.795,-0.010
39.800,-0.012
39.805,-0.012
39.810,-0.010
39.815,-0.010
39.820,-0.012
39.825,-0.012
39.830,-0.012
39.835,-0.012
39.840,-0.013
39.845,-0.014
39.850,-0.014
39.855,-0.014
39.860,-0.016
39.865,-0.021
39.870,-0.023
39.875,-0.023
39.880,-0.031
39.885,-0.032
39.890,-0.026
39.895,-0.021
39.900,-0.020
39.905,-0.029
39.910,-0.034
39.915,-0.025
39.920,-0.012
39.925,-0.003
39.930,0.006
39.935,0.014
39.940,0.018
39.945,0.020
39.950,0.019
39.955,0.017
39.960,0.016
39.965,0.014
39.970,0.012
39.975,0.018
39.980,0.034
39.985,0.055
39.990,0.040
39.995,-0.040
40.000,-0.177
40.005,-0.357
40.010,-0.549
40.015,-0.688
40.020,-0.663
40.025,-0.469
40.030,-0.222
40.035,0.008
40.040,0.156
40.045,0.212
40.050,0.215
40.055,0.185
40.060,0.173
40.065,0.182
40.070,0.177
40.075,0.170
40.080,0.171
40.085,0.166
40.090,0.156
40.095,0.152
40.100,0.149
40.105,0.144
40.110,0.140
40.115,0.134
40.120,0.125
40.125,0.119
40.130,0.115
40.135,0.110
40.140,0.101
40.145,0.095
40.150,0.091
40.155,0.086
40.160,0.082
40.165,0.080
40.170,0.077
40.175,0.074
40.180,0.068
40.185,0.062
40.190,0.056
40.195,0.050
40.200,0.046
40.205,0.045
40.210,0.044
40.215,0.043
40.220,0.038
40.225,0.033
40.230,0.027
40.235,0.022
40.240,0.017
40.245,0.013
40.250,0.010
40.255,0.006
40.260,-0.001
40.265,-0.012
40.270,-0.023
40.275,-0.027
40.280,-0.029
40.285,-0.035
40.290,-0.043
40.295,-0.049
40.300,-0.052
40.305,-0.054
40.310,-0.054
40.315,-0.058
40.320,-0.059
40.325,-0.057
40.330,-0.055
40.335,-0.049
40.340,-0.042
40.345,-0.036
40.350,-0.026
40.355,-0.019
40.360,-0.007
40.365,0.006
40.370,0.012
40.375,0.019
40.380,0.026
40.385,0.035
40.390,0.043
40.395,0.038
40.400,0.031
40.405,0.030
40.410,0.031
40.415,0.033
40.420,0.033
40.425,0.031
40.430,0.026
40.435,0.020
40.440,0.017
40.445,0.022
40.450,0.029
40.455,0.028
40.460,0.023
40.465,0.014
40.470,0.013
40.475,0.021
40.480,0.025
40.485,0.026
40.490,0.021
40.495,0.010
40.500,0.002
40.505,-0.001
40.510,0.002
40.515,0.003
40.520,-0.003
40.525,-0.008
40.530,-0.006
40.535,-0.001
40.540,-0.004
40.545,-0.007
40.550,-0.004
40.555,0.000
40.560,0.001
40.565,-0.008
40.570,-0.020
40.575,-0.022
40.580,-0.022
40.585,-0.024
40.590,-0.030
40.595,-0.030
40.600,-0.016
40.605,-0.003
40.610,-0.004
40.615,-0.009
40.620,-0.009
40.625,-0.005
40.630,-0.007
40.635,-0.015
40.640,-0.024
40.645,-0.024
40.650,-0.017
40.655,-0.015
40.660,-0.017
40.665,-0.018
40.670,-0.017
40.675,-0.016
40.680,-0.017
40.685,-0.020
40.690,-0.020
40.695,-0.014
40.700,-0.013
40.705,-0.013
40.710,-0.011
40.715,-0.015
40.720,-0.024
40.725,-0.028
40.730,-0.025
40.735,-0.019
40.740,-0.013
40.745,-0.013
40.750,-0.018
40.755,-0.018
40.760,-0.020
40.765,-0.021
40.770,-0.015
40.775,-0.013
40.780,-0.017
40.785,-0.009
40.790,-0.001
40.795,-0.007
40.800,-0.015
40.805,-0.017
40.810,-0.010
40.815,-0.005
40.820,-0.011
40.825,-0.015
40.830,-0.018
40.835,-0.021
40.840,-0.024
40.845,-0.024
40.850,-0.024
40.855,-0.029
40.860,-0.033
40.865,-0.033
40.870,-0.028
40.875,-0.019
40.880,-0.025
40.885,-0.034
40.890,-0.033
40.895,-0.028
40.900,-0.014
40.905,-0.002
40.910,0.003
40.915,0.012
40.920,0.012
40.925,0.009
40.930,0.018
40.935,0.031
40.940,0.034
40.945,0.028
40.950,0.011
40.955,-0.009
40.960,0.001
40.965,0.033
40.970,0.040
40.975,-0.013
40.980,-0.131
40.985,-0.298
40.990,-0.483
40.995,-0.646
41.000,-0.674
41.005,-0.512
41.010,-0.273
41.015,-0.034
41.020,0.143
41.025,0.210
41.030,0.217
41.035,0.193
41.040,0.174
41.045,0.177
41.050,0.168
41.055,0.159
41.060,0.169
41.065,0.170
41.070,0.159
41.075,0.151
41.080,0.139
41.085,0.122
41.090,0.114
41.095,0.119
41.100,0.121
41.105,0.113
41.110,0.110
41.115,0.113
41.120,0.109
41.125,0.095
41.130,0.080
41.135,0.074
41.140,0.077
41.145,0.083
41.150,0.088
41.155,0.080
41.160,0.068
41.165,0.054
41.170,0.045
41.175,0.047
41.180,0.046
41.185,0.038
41.190,0.036
41.195,0.038
41.200,0.039
41.205,0.032
41.210,0.020
41.215,0.008
41.220,0.000
41.225,-0.003
41.230,-0.001
41.235,-0.001
41.240,-0.012
41.245,-0.025
41.250,-0.030
41.255,-0.026
41.260,-0.028
41.265,-0.039
41.270,-0.057
41.275,-0.070
41.280,-0.068
41.285,-0.057
41.290,-0.051
41.295,-0.054
41.300,-0.066
41.305,-0.071
41.310,-0.063
41.315,-0.058
41.320,-0.058
41.325,-0.045
41.330,-0.022
41.335,-0.008
41.340,-0.007
41.345,0.000
41.350,0.018
41.355,0.029
41.360,0.028
41.365,0.023
41.370,0.023
41.375,0.030
41.380,0.032
41.385,0.037
41.390,0.046
41.395,0.047
41.400,0.047
41.405,0.046
41.410,0.040
41.415,0.035
41.420,0.037
41.425,0.038
41.430,0.023
41.435,0.008
41.440,0.012
41.445,0.022
41.450,0.028
41.455,0.021
41.460,0.011
41.465,0.003
41.470,-0.005
41.475,-0.004
41.480,0.005
41.485,0.013
41.490,0.011
41.495,0.006
41.500,0.006
41.505,0.008
41.510,0.007
41.515,0.008
41.520,0.002
41.525,-0.013
41.530,-0.022
41.535,-0.025
41.540,-0.025
41.545,-0.023
41.550,-0.016
41.555,-0.007
41.560,-0.002
41.565,-0.006
41.570,-0.018
41.575,-0.021
41.580,-0.020
41.585,-0.018
41.590,-0.013
41.595,-0.014
41.600,-0.016
41.605,-0.016
41.610,-0.018
41.615,-0.025
41.620,-0.033
41.625,-0.032
41.630,-0.026
41.635,-0.020
41.640,-0.019
41.645,-0.024
41.650,-0.019
41.655,-0.010
41.660,-0.009
41.665,-0.014
41.670,-0.025
41.675,-0.030
41.680,-0.024
41.685,-0.021
41.690,-0.022
41.695,-0.025
41.700,-0.023
41.705,-0.018
41.710,-0.014
41.715,-0.016
41.720,-0.023
41.725,-0.030
41.730,-0.031
41.735,-0.022
41.740,-0.009
41.745,-0.008
41.750,-0.015
41.755,-0.020
41.760,-0.024
41.765,-0.023
41.770,-0.022
41.775,-0.023
41.780,-0.023
41.785,-0.026
41.790,-0.031
41.795,-0.029
41.800,-0.028
41.805,-0.037
41.810,-0.048
41.815,-0.047
41.820,-0.035
41.825,-0.028
41.830,-0.034
41.835,-0.042
41.840,-0.035
41.845,-0.021
41.850,-0.013
41.855,-0.011
41.860,-0.005
41.865,0.000
41.870,0.003
41.875,0.010
41.880,0.014
41.885,0.015
41.890,0.013
41.895,0.008
41.900,0.008
41.905,0.021
41.910,0.043
41.915,0.046
41.920,-0.009
41.925,-0.131
41.930,-0.304
41.935,-0.496
41.940,-0.665
41.945,-0.710
41.950,-0.560
41.955,-0.317
41.960,-0.072
41.965,0.112
41.970,0.197
41.975,0.223
41.980,0.203
41.985,0.176
41.990,0.175
41.995,0.174
42.000,0.171
42.005,0.172
42.010,0.169
42.015,0.161
42.020,0.157
42.025,0.159
42.030,0.150
42.035,0.137
42.040,0.131
42.045,0.125
42.050,0.117
42.055,0.110
42.060,0.106
42.065,0.105
42.070,0.102
42.075,0.096
42.080,0.088
42.085,0.081
42.090,0.081
42.095,0.080
42.100,0.076
42.105,0.071
42.110,0.067
42.115,0.066
42.120,0.061
42.125,0.053
42.130,0.044
42.135,0.039
42.140,0.035
42.145,0.029
42.150,0.024
42.155,0.024
42.160,0.023
42.165,0.016
42.170,0.007
42.175,0.000
42.180,-0.003
42.185,-0.008
42.190,-0.016
42.195,-0.022
42.200,-0.026
42.205,-0.032
42.210,-0.038
42.215,-0.048
42.220,-0.057
42.225,-0.061
42.230,-0.064
42.235,-0.065
42.240,-0.062
42.245,-0.059
42.250,-0.057
42.255,-0.057
42.260,-0.058
42.265,-0.057
42.270,-0.048
42.275,-0.032
42.280,-0.014
42.285,0.002
42.290,0.013
42.295,0.017
42.300,0.017
42.305,0.021
42.310,0.029
42.315,0.036
42.320,0.035
42.325,0.029
42.330,0.029
42.335,0.033
42.340,0.034
42.345,0.034
42.350,0.038
42.355,0.041
42.360,0.038
42.365,0.031
42.370,0.025
42.375,0.024
42.380,0.024
42.385,0.021
42.390,0.020
42.395,0.020
42.400,0.020
42.405,0.021
42.410,0.022
42.415,0.021
42.420,0.016
42.425,0.011
42.430,0.007
42.435,0.004
42.440,0.002
42.445,-0.001
42.450,-0.001
42.455,-0.002
42.460,-0.007
42.465,-0.009
42.470,-0.010
42.475,-0.009
42.480,-0.008
42.485,-0.008
42.490,-0.004
42.495,-0.004
42.500,-0.006
42.505,-0.007
42.510,-0.006
42.515,-0.008
42.520,-0.014
42.525,-0.019
42.530,-0.019
42.535,-0.015
42.540,-0.013
42.545,-0.012
42.550,-0.012
42.555,-0.012
42.560,-0.012
42.565,-0.014
42.570,-0.017
42.575,-0.016
42.580,-0.015
42.585,-0.015
42.590,-0.015
42.595,-0.015
42.600,-0.011
42.605,-0.010
42.610,-0.013
42.615,-0.014
42.620,-0.016
42.625,-0.018
42.630,-0.016
42.635,-0.012
42.640,-0.007
42.645,-0.006
42.650,-0.006
42.655,-0.006
42.660,-0.007
42.665,-0.010
42.670,-0.014
42.675,-0.014
42.680,-0.014
42.685,-0.016
42.690,-0.015
42.695,-0.015
42.700,-0.014
42.705,-0.014
42.710,-0.015
42.715,-0.013
42.720,-0.012
42.725,-0.011
42.730,-0.013
42.735,-0.014
42.740,-0.013
42.745,-0.014
42.750,-0.013
42.755,-0.014
42.760,-0.017
42.765,-0.019
42.770,-0.023
42.775,-0.026
42.780,-0.030
42.785,-0.035
42.790,-0.030
42.795,-0.022
42.800,-0.018
42.805,-0.024
42.810,-0.035
42.815,-0.034
42.820,-0.022
42.825,-0.010
42.830,0.001
42.835,0.011
42.840,0.018
42.845,0.021
42.850,0.021
42.855,0.020
42.860,0.021
42.865,0.022
42.870,0.021
42.875,0.024
42.880,0.032
42.885,0.052
42.890,0.053
42.895,-0.005
42.900,-0.121
42.905,-0.289
42.910,-0.479
42.915,-0.645
42.920,-0.688
42.925,-0.542
42.930,-0.307
42.935,-0.068
42.940,0.115
42.945,0.197
42.950,0.218
42.955,0.193
42.960,0.168
42.965,0.176
42.970,0.177
42.975,0.168
42.980,0.167
42.985,0.166
42.990,0.161
42.995,0.159
43.000,0.157
43.005,0.146
43.010,0.134
43.015,0.129
43.020,0.123
43.025,0.117
43.030,0.113
43.035,0.110
43.040,0.105
43.045,0.099
43.050,0.094
43.055,0.088
43.060,0.083
43.065,0.080
43.070,0.078
43.075,0.073
43.080,0.065
43.085,0.061
43.090,0.060
43.095,0.060
43.100,0.055
43.105,0.043
43.110,0.037
43.115,0.037
43.120,0.034
43.125,0.029
43.130,0.022
43.135,0.017
43.140,0.018
43.145,0.015
43.150,0.007
43.155,0.000
43.160,-0.009
43.165,-0.016
43.170,-0.022
43.175,-0.027
43.180,-0.029
43.185,-0.031
43.190,-0.036
43.195,-0.041
43.200,-0.041
43.205,-0.038
43.210,-0.042
43.215,-0.056
43.220,-0.070
43.225,-0.069
43.230,-0.060
43.235,-0.057
43.240,-0.059
43.245,-0.059
43.250,-0.044
43.255,-0.030
43.260,-0.016
43.265,0.005
43.270,0.020
43.275,0.028
43.280,0.028
43.285,0.023
43.290,0.025
43.295,0.031
43.300,0.039
43.305,0.045
43.310,0.040
43.315,0.032
43.320,0.029
43.325,0.026
43.330,0.022
43.335,0.020
43.340,0.020
43.345,0.024
43.350,0.027
43.355,0.026
43.360,0.021
43.365,0.017
43.370,0.018
43.375,0.025
43.380,0.029
43.385,0.029
43.390,0.028
43.395,0.018
43.400,0.003
43.405,-0.008
43.410,-0.013
43.415,-0.009
43.420,-0.004
43.425,0.000
43.430,0.000
43.435,0.001
43.440,0.005
43.445,0.003
43.450,-0.001
43.455,-0.004
43.460,-0.008
43.465,-0.008
43.470,-0.007
43.475,-0.004
43.480,-0.001
43.485,-0.005
43.490,-0.016
43.495,-0.022
43.500,-0.016
43.505,-0.011
43.510,-0.008
43.515,-0.008
43.520,-0.016
43.525,-0.020
43.530,-0.016
43.535,-0.011
43.540,-0.010
43.545,-0.011
43.550,-0.008
43.555,-0.009
43.560,-0.010
43.565,-0.013
43.570,-0.018
43.575,-0.017
43.580,-0.020
43.585,-0.026
43.590,-0.021
43.595,-0.015
43.600,-0.011
43.605,-0.010
43.610,-0.010
43.615,-0.010
43.620,-0.013
43.625,-0.013
43.630,-0.013
43.635,-0.012
43.640,-0.011
43.645,-0.015
43.650,-0.013
43.655,-0.015
43.660,-0.023
43.665,-0.023
43.670,-0.021
43.675,-0.015
43.680,-0.011
43.685,-0.012
43.690,-0.012
43.695,-0.012
43.700,-0.012
43.705,-0.007
43.710,-0.009
43.715,-0.016
43.720,-0.019
43.725,-0.017
43.730,-0.013
43.735,-0.007
43.740,-0.001
43.745,-0.005
43.750,-0.022
43.755,-0.035
43.760,-0.035
43.765,-0.038
43.770,-0.045
43.775,-0.047
43.780,-0.032
43.785,-0.012
43.790,-0.008
43.795,-0.014
43.800,-0.018
43.805,-0.022
43.810,-0.025
43.815,-0.024
43.820,-0.017
43.825,-0.001
43.830,0.017
43.835,0.020
43.840,0.008
43.845,0.001
43.850,0.008
43.855,0.017
43.860,0.021
43.865,0.021
43.870,0.028
43.875,0.053
43.880,0.055
43.885,-0.007
43.890,-0.136
43.895,-0.318
43.900,-0.504
43.905,-0.646
43.910,-0.657
43.915,-0.496
43.920,-0.261
43.925,-0.034
43.930,0.129
43.935,0.206
43.940,0.227
43.945,0.200
43.950,0.172
43.955,0.168
43.960,0.161
43.965,0.163
43.970,0.169
43.975,0.163
43.980,0.149
43.985,0.138
43.990,0.140
43.995,0.137
44.000,0.131
44.005,0.132
44.010,0.123
44.015,0.107
44.020,0.095
44.025,0.089
44.030,0.090
44.035,0.093
44.040,0.095
44.045,0.094
44.050,0.089
44.055,0.075
44.060,0.064
44.065,0.066
44.070,0.065
44.075,0.059
44.080,0.049
44.085,0.038
44.090,0.042
44.095,0.046
44.100,0.036
44.105,0.027
44.110,0.030
44.115,0.029
44.120,0.018
44.125,0.006
44.130,-0.004
44.135,-0.007
44.140,-0.002
44.145,0.006
44.150,0.010
44.155,-0.002
44.160,-0.024
44.165,-0.041
44.170,-0.049
44.175,-0.054
44.180,-0.064
44.185,-0.066
44.190,-0.060
44.195,-0.057
44.200,-0.055
44.205,-0.067
44.210,-0.088
44.215,-0.094
44.220,-0.084
44.225,-0.065
44.230,-0.056
44.235,-0.047
44.240,-0.024
44.245,-0.005
44.250,0.001
44.255,0.000
44.260,0.003
44.265,0.013
44.270,0.021
44.275,0.025
44.280,0.023
44.285,0.019
44.290,0.023
44.295,0.030
44.300,0.038
44.305,0.046
44.310,0.049
44.315,0.040
44.320,0.023
44.325,0.020
44.330,0.034
44.335,0.046
44.340,0.039
44.345,0.018
44.350,0.017
44.355,0.028
44.360,0.027
44.365,0.021
44.370,0.008
44.375,-0.001
44.380,0.003
44.385,0.009
44.390,0.011
44.395,0.007
44.400,0.002
44.405,0.000
44.410,-0.005
44.415,-0.013
44.420,-0.018
44.425,-0.014
44.430,-0.010
44.435,-0.008
44.440,-0.003
44.445,-0.004
44.450,-0.013
44.455,-0.024
44.460,-0.030
44.465,-0.020
44.470,-0.009
44.475,-0.010
44.480,-0.011
44.485,-0.015
44.490,-0.021
44.495,-0.022
44.500,-0.022
44.505,-0.020
44.510,-0.013
44.515,-0.016
44.520,-0.026
44.525,-0.030
44.530,-0.027
44.535,-0.021
44.540,-0.012
44.545,-0.005
44.550,-0.010
44.555,-0.017
44.560,-0.021
44.565,-0.023
44.570,-0.022
44.575,-0.016
44.580,-0.017
44.585,-0.024
44.590,-0.021
44.595,-0.019
44.600,-0.016
44.605,-0.013
44.610,-0.014
44.615,-0.007
44.620,-0.006
44.625,-0.016
44.630,-0.016
44.635,-0.012
44.640,-0.011
44.645,-0.012
44.650,-0.013
44.655,-0.021
44.660,-0.030
44.665,-0.026
44.670,-0.021
44.675,-0.015
44.680,-0.014
44.685,-0.022
44.690,-0.018
44.695,-0.012
44.700,-0.017
44.705,-0.025
44.710,-0.033
44.715,-0.031
44.720,-0.023
44.725,-0.027
44.730,-0.032
44.735,-0.020
44.740,-0.009
44.745,-0.018
44.750,-0.028
44.755,-0.031
44.760,-0.028
44.765,-0.018
44.770,-0.013
44.775,-0.005
44.780,0.004
44.785,0.003
44.790,0.006
44.795,0.009
44.800,0.005
44.805,0.004
44.810,0.008
44.815,0.014
44.820,0.019
44.825,0.036
44.830,0.057
44.835,0.044
44.840,-0.027
44.845,-0.160
44.850,-0.346
44.855,-0.549
44.860,-0.708
44.865,-0.701
44.870,-0.505
44.875,-0.255
44.880,-0.024
44.885,0.142
44.890,0.221
44.895,0.243
44.900,0.219
44.905,0.190
44.910,0.187
44.915,0.181
44.920,0.175
44.925,0.179
44.930,0.179
44.935,0.171
44.940,0.165
44.945,0.154
44.950,0.139
44.955,0.132
44.960,0.134
44.965,0.132
44.970,0.120
44.975,0.115
44.980,0.114
44.985,0.110
44.990,0.103
44.995,0.092
45.000,0.086
45.005,0.089
