'Elapsed time','ECG'
'seconds','mV'
0.000,0.013
0.005,0.044
0.010,-0.077
0.015,-0.171
0.020,-0.085
0.025,-0.063
0.030,-0.051
0.035,0.010
0.040,-0.042
0.045,-0.065
0.050,-0.035
0.055,-0.077
0.060,-0.110
0.065,-0.082
0.070,-0.020
0.075,0.010
0.080,-0.035
0.085,-0.087
0.090,-0.062
0.095,-0.012
0.100,-0.010
0.105,-0.045
0.110,-0.087
0.115,-0.112
0.120,-0.158
0.125,-0.178
0.130,-0.100
0.135,-0.056
0.140,-0.073
0.145,-0.066
0.150,-0.093
0.155,-0.122
0.160,-0.087
0.165,-0.034
0.170,0.007
0.175,0.009
0.180,-0.020
0.185,-0.020
0.190,0.026
0.195,0.042
0.200,0.052
0.205,0.119
0.210,0.112
0.215,0.060
0.220,0.121
0.225,0.182
0.230,0.165
0.235,0.116
0.240,0.026
0.245,-0.011
0.250,0.015
0.255,0.032
0.260,0.057
0.265,0.048
0.270,-0.016
0.275,-0.062
0.280,-0.046
0.285,-0.094
0.290,-0.218
0.295,-0.302
0.300,-0.384
0.305,-0.450
0.310,-0.467
0.315,-0.447
0.320,-0.390
0.325,-0.332
0.330,-0.277
0.335,-0.208
0.340,-0.136
0.345,-0.104
0.350,-0.070
0.355,0.025
0.360,0.132
0.365,0.235
0.370,0.372
0.375,0.446
0.380,0.413
0.385,0.395
0.390,0.383
0.395,0.351
0.400,0.377
0.405,0.395
0.410,0.361
0.415,0.316
0.420,0.263
0.425,0.239
0.430,0.265
0.435,0.294
0.440,0.311
0.445,0.313
0.450,0.275
0.455,0.247
0.460,0.228
0.465,0.153
0.470,0.085
0.475,0.124
0.480,0.256
0.485,0.276
0.490,0.152
0.495,0.084
0.500,0.079
0.505,0.100
0.510,0.126
0.515,0.108
0.520,0.112
0.525,0.120
0.530,0.068
0.535,0.022
0.540,0.015
0.545,0.024
0.550,0.043
0.555,0.036
0.560,-0.035
0.565,-0.096
0.570,-0.098
0.575,-0.097
0.580,-0.100
0.585,-0.101
0.590,-0.106
0.595,-0.095
0.600,-0.109
0.605,-0.152
0.610,-0.162
0.615,-0.120
0.620,-0.078
0.625,-0.092
0.630,-0.115
0.635,-0.139
0.640,-0.157
0.645,-0.146
0.650,-0.135
0.655,-0.117
0.660,-0.108
0.665,-0.084
0.670,-0.080
0.675,-0.090
0.680,-0.085
0.685,-0.110
0.690,-0.107
0.695,-0.088
0.700,-0.083
0.705,-0.087
0.710,-0.107
0.715,-0.126
0.720,-0.098
0.725,-0.043
0.730,-0.014
0.735,-0.030
0.740,-0.098
0.745,-0.133
0.750,-0.092
0.755,-0.026
0.760,-0.021
0.765,-0.075
0.770,-0.101
0.775,-0.107
0.780,-0.090
0.785,-0.035
0.790,-0.018
0.795,-0.041
0.800,-0.055
0.805,-0.066
0.810,-0.029
0.815,0.014
0.820,0.006
0.825,-0.006
0.830,-0.003
0.835,-0.013
0.840,-0.033
0.845,-0.055
0.850,-0.074
0.855,-0.057
0.860,-0.040
0.865,-0.036
0.870,-0.020
0.875,-0.003
0.880,-0.005
0.885,-0.042
0.890,-0.060
0.895,-0.032
0.900,-0.042
0.905,-0.040
0.910,0.010
0.915,0.009
0.920,-0.009
0.925,-0.021
0.930,-0.043
0.935,-0.034
0.940,0.005
0.945,0.025
0.950,0.025
0.955,0.013
0.960,-0.053
0.965,-0.074
0.970,-0.036
0.975,-0.039
0.980,-0.006
0.985,0.035
0.990,0.022
0.995,0.005
1.000,-0.024
1.005,-0.011
1.010,0.035
1.015,0.032
1.020,0.016
1.025,0.024
1.030,0.021
1.035,-0.004
1.040,-0.025
1.045,-0.018
1.050,0.010
1.055,0.028
1.060,0.016
1.065,-0.020
1.070,-0.030
1.075,0.002
1.080,0.039
1.085,0.047
1.090,0.028
1.095,-0.001
1.100,-0.005
1.105,0.015
1.110,0.010
1.115,-0.017
1.120,-0.027
1.125,-0.009
1.130,0.034
1.135,0.061
1.140,0.028
1.145,-0.013
1.150,0.017
1.155,0.066
1.160,0.045
1.165,0.012
1.170,0.028
1.175,0.035
1.180,0.024
1.185,0.010
1.190,0.004
1.195,0.013
1.200,-0.007
1.205,-0.028
1.210,-0.027
1.215,-0.011
1.220,0.027
1.225,0.040
1.230,0.032
1.235,0.031
1.240,0.014
1.245,-0.005
1.250,-0.037
1.255,-0.068
1.260,-0.042
1.265,0.003
1.270,0.032
1.275,0.031
1.280,0.002
1.285,-0.008
1.290,0.000
1.295,0.016
1.300,0.021
1.305,0.002
1.310,0.001
1.315,0.026
1.320,0.033
1.325,0.013
1.330,0.001
1.335,-0.005
1.340,-0.003
1.345,0.015
1.350,0.013
1.355,0.000
1.360,-0.001
1.365,0.002
1.370,0.009
1.375,0.011
1.380,-0.001
1.385,-0.007
1.390,0.001
1.395,-0.002
1.400,-0.010
1.405,0.004
1.410,0.006
1.415,-0.001
1.420,0.008
1.425,0.007
1.430,-0.010
1.435,-0.024
1.440,-0.012
1.445,-0.007
1.450,-0.031
1.455,-0.020
1.460,0.004
1.465,0.013
1.470,0.029
1.475,0.011
1.480,0.002
1.485,-0.010
1.490,-0.020
1.495,0.028
1.500,0.018
1.505,-0.039
1.510,-0.033
1.515,0.000
1.520,0.034
1.525,0.032
1.530,0.022
1.535,0.076
1.540,0.087
1.545,0.026
1.550,-0.030
1.555,-0.033
1.560,0.047
1.565,0.105
1.570,0.074
1.575,0.023
1.580,0.011
1.585,0.029
1.590,0.020
1.595,-0.022
1.600,-0.091
1.605,-0.188
1.610,-0.237
1.615,-0.184
1.620,-0.018
1.625,0.191
1.630,0.267
1.635,0.219
1.640,0.138
1.645,0.068
1.650,0.069
1.655,0.089
1.660,0.055
1.665,0.035
1.670,0.043
1.675,0.034
1.680,0.013
1.685,-0.015
1.690,-0.014
1.695,0.000
1.700,-0.001
1.705,-0.003
1.710,-0.009
1.715,0.008
1.720,0.026
1.725,-0.006
1.730,-0.017
1.735,-0.018
1.740,-0.035
1.745,-0.019
1.750,-0.023
1.755,-0.056
1.760,-0.061
1.765,-0.061
1.770,-0.065
1.775,-0.071
1.780,-0.075
1.785,-0.059
1.790,-0.053
1.795,-0.057
1.800,-0.060
1.805,-0.085
1.810,-0.117
1.815,-0.149
1.820,-0.135
1.825,-0.069
1.830,-0.055
1.835,-0.081
1.840,-0.073
1.845,-0.079
1.850,-0.108
1.855,-0.103
1.860,-0.062
1.865,-0.025
1.870,-0.021
1.875,-0.064
1.880,-0.085
1.885,-0.060
1.890,-0.032
1.895,0.025
1.900,0.058
1.905,0.065
1.910,0.007
1.915,-0.083
1.920,-0.067
1.925,-0.018
1.930,0.057
1.935,0.119
1.940,0.102
1.945,0.123
1.950,0.156
1.955,0.092
1.960,0.012
1.965,0.001
1.970,0.055
1.975,0.087
1.980,0.050
1.985,0.033
1.990,0.054
1.995,0.081
2.000,0.081
2.005,0.059
2.010,0.046
2.015,0.030
2.020,0.061
2.025,0.110
2.030,0.117
2.035,0.084
2.040,-0.004
2.045,-0.054
2.050,-0.025
2.055,0.043
2.060,0.088
2.065,0.038
2.070,-0.007
2.075,-0.007
2.080,-0.004
2.085,0.002
2.090,0.024
2.095,0.061
2.100,0.051
2.105,0.050
2.110,0.043
2.115,-0.007
2.120,0.008
2.125,0.055
2.130,0.095
2.135,0.102
2.140,0.038
2.145,0.008
2.150,0.031
2.155,0.058
2.160,0.079
2.165,0.045
2.170,-0.026
2.175,-0.045
2.180,-0.018
2.185,0.022
2.190,0.054
2.195,0.060
2.200,0.081
2.205,0.067
2.210,-0.029
2.215,-0.066
2.220,0.002
2.225,0.064
2.230,0.069
2.235,0.019
2.240,-0.035
2.245,-0.021
2.250,-0.002
2.255,-0.037
2.260,-0.057
2.265,-0.049
2.270,-0.035
2.275,-0.041
2.280,-0.049
2.285,-0.037
2.290,-0.046
2.295,-0.059
2.300,-0.067
2.305,-0.034
2.310,0.020
2.315,-0.005
2.320,-0.066
2.325,-0.091
2.330,-0.093
2.335,-0.078
2.340,-0.035
2.345,-0.002
2.350,0.000
2.355,0.020
2.360,0.030
2.365,-0.009
2.370,-0.043
2.375,-0.024
2.380,0.038
2.385,0.031
2.390,-0.022
2.395,-0.046
2.400,-0.057
2.405,-0.028
2.410,-0.012
2.415,0.003
2.420,0.006
2.425,-0.028
2.430,-0.015
2.435,-0.014
2.440,-0.090
2.445,-0.200
2.450,-0.310
2.455,-0.310
2.460,-0.218
2.465,-0.109
2.470,0.055
2.475,0.172
2.480,0.203
2.485,0.189
2.490,0.096
2.495,0.024
2.500,0.032
2.505,0.040
2.510,0.023
2.515,0.015
2.520,0.034
2.525,0.034
2.530,0.025
2.535,0.029
2.540,0.044
2.545,0.066
2.550,0.049
2.555,0.038
2.560,0.041
2.565,0.010
2.570,0.013
2.575,0.033
2.580,0.036
2.585,0.025
2.590,-0.005
2.595,0.002
2.600,0.026
2.605,0.047
2.610,0.042
2.615,-0.009
2.620,-0.028
2.625,-0.011
2.630,0.017
2.635,0.018
2.640,-0.026
2.645,-0.032
2.650,-0.006
2.655,-0.032
2.660,-0.078
2.665,-0.093
2.670,-0.062
2.675,-0.020
2.680,-0.042
2.685,-0.088
2.690,-0.092
2.695,-0.081
2.700,-0.072
2.705,-0.062
2.710,-0.057
2.715,-0.057
2.720,-0.065
2.725,-0.064
2.730,-0.041
2.735,-0.030
2.740,-0.031
2.745,0.013
2.750,0.091
2.755,0.116
2.760,0.084
2.765,0.067
2.770,0.083
2.775,0.084
2.780,0.064
2.785,0.063
2.790,0.086
2.795,0.122
2.800,0.137
2.805,0.126
2.810,0.089
2.815,0.035
2.820,0.038
2.825,0.048
2.830,0.044
2.835,0.067
2.840,0.065
2.845,0.047
2.850,0.021
2.855,0.015
2.860,0.049
2.865,0.046
2.870,0.017
2.875,0.014
2.880,0.019
2.885,0.015
2.890,0.028
2.895,0.060
2.900,0.040
2.905,-0.022
2.910,-0.041
2.915,-0.018
2.920,0.001
2.925,-0.012
2.930,-0.022
2.935,-0.013
2.940,-0.010
2.945,-0.002
2.950,-0.002
2.955,0.009
2.960,0.016
2.965,0.002
2.970,0.017
2.975,0.019
2.980,-0.006
2.985,-0.005
2.990,0.011
2.995,0.020
3.000,0.021
3.005,0.012
3.010,0.004
3.015,0.002
3.020,0.014
3.025,0.004
3.030,-0.016
3.035,-0.009
3.040,-0.015
3.045,-0.019
3.050,-0.027
3.055,-0.043
3.060,-0.043
3.065,-0.049
3.070,-0.046
3.075,-0.033
3.080,-0.021
3.085,-0.015
3.090,-0.033
3.095,-0.047
3.100,-0.043
3.105,-0.052
3.110,-0.062
3.115,-0.056
3.120,-0.028
3.125,-0.013
3.130,-0.023
3.135,-0.040
3.140,-0.056
3.145,-0.067
3.150,-0.091
3.155,-0.079
3.160,-0.029
3.165,-0.009
3.170,-0.021
3.175,-0.051
3.180,-0.052
3.185,-0.026
3.190,-0.020
3.195,-0.015
3.200,-0.001
3.205,0.025
3.210,0.025
3.215,0.006
3.220,0.023
3.225,0.028
3.230,0.027
3.235,0.039
3.240,0.041
3.245,0.058
3.250,0.056
3.255,0.046
3.260,0.060
3.265,0.052
3.270,0.068
3.275,0.089
3.280,0.074
3.285,0.030
3.290,-0.126
3.295,-0.299
3.300,-0.342
3.305,-0.290
3.310,-0.161
3.315,0.018
3.320,0.158
3.325,0.213
3.330,0.181
3.335,0.087
3.340,0.029
3.345,0.034
3.350,0.020
3.355,-0.007
3.360,-0.006
3.365,-0.012
3.370,-0.016
3.375,-0.021
3.380,-0.032
3.385,-0.020
3.390,-0.020
3.395,-0.034
3.400,-0.036
3.405,-0.018
3.410,-0.001
3.415,-0.018
3.420,-0.033
3.425,-0.029
3.430,-0.014
3.435,0.003
3.440,-0.004
3.445,-0.030
3.450,-0.054
3.455,-0.051
3.460,-0.036
3.465,-0.032
3.470,-0.022
3.475,-0.038
3.480,-0.074
3.485,-0.074
3.490,-0.058
3.495,-0.045
3.500,-0.050
3.505,-0.065
3.510,-0.062
3.515,-0.061
3.520,-0.066
3.525,-0.079
3.530,-0.081
3.535,-0.076
3.540,-0.099
3.545,-0.096
3.550,-0.091
3.555,-0.092
3.560,-0.050
3.565,-0.033
3.570,-0.040
3.575,-0.023
3.580,0.003
3.585,0.027
3.590,0.051
3.595,0.070
3.600,0.070
3.605,0.079
3.610,0.089
3.615,0.084
3.620,0.095
3.625,0.094
3.630,0.083
3.635,0.093
3.640,0.098
3.645,0.087
3.650,0.071
3.655,0.071
3.660,0.074
3.665,0.065
3.670,0.065
3.675,0.049
3.680,0.045
3.685,0.076
3.690,0.080
3.695,0.078
3.700,0.073
3.705,0.043
3.710,0.031
3.715,0.032
3.720,0.039
3.725,0.043
3.730,0.037
3.735,0.036
3.740,0.035
3.745,0.027
3.750,0.021
3.755,0.027
3.760,0.029
3.765,0.017
3.770,0.009
3.775,0.013
3.780,0.029
3.785,0.035
3.790,0.025
3.795,0.027
3.800,0.020
3.805,0.017
3.810,0.023
3.815,0.010
3.820,0.014
3.825,0.024
3.830,0.013
3.835,0.006
3.840,0.001
3.845,-0.003
3.850,0.002
3.855,0.003
3.860,-0.009
3.865,-0.010
3.870,0.013
3.875,0.026
3.880,0.024
3.885,0.009
3.890,-0.015
3.895,-0.014
3.900,-0.004
3.905,0.002
3.910,-0.005
3.915,-0.020
3.920,-0.022
3.925,-0.016
3.930,-0.010
3.935,-0.020
3.940,-0.041
3.945,-0.035
3.950,-0.016
3.955,-0.025
3.960,-0.039
3.965,-0.039
3.970,-0.037
3.975,-0.050
3.980,-0.047
3.985,-0.031
3.990,-0.041
3.995,-0.030
4.000,-0.022
4.005,-0.035
4.010,-0.012
4.015,-0.003
4.020,0.005
4.025,0.018
4.030,0.003
4.035,0.015
4.040,0.039
4.045,0.034
4.050,0.025
4.055,0.024
4.060,0.022
4.065,0.007
4.070,0.000
4.075,0.001
4.080,0.001
4.085,0.021
4.090,0.043
4.095,0.030
4.100,-0.016
4.105,-0.094
4.110,-0.210
4.115,-0.292
4.120,-0.246
4.125,-0.112
4.130,0.043
4.135,0.156
4.140,0.187
4.145,0.185
4.150,0.124
4.155,0.033
4.160,0.010
4.165,0.006
4.170,0.004
4.175,0.000
4.180,-0.008
4.185,-0.001
4.190,-0.001
4.195,0.014
4.200,0.020
4.205,0.003
4.210,0.014
4.215,0.007
4.220,-0.007
4.225,-0.010
4.230,-0.024
4.235,-0.016
4.240,-0.013
4.245,-0.003
4.250,0.012
4.255,-0.011
4.260,-0.022
4.265,-0.015
4.270,-0.006
4.275,-0.015
4.280,-0.038
4.285,-0.028
4.290,-0.020
4.295,-0.038
4.300,-0.043
4.305,-0.032
4.310,-0.031
4.315,-0.044
4.320,-0.046
4.325,-0.064
4.330,-0.088
4.335,-0.075
4.340,-0.077
4.345,-0.082
4.350,-0.069
4.355,-0.067
4.360,-0.055
4.365,-0.061
4.370,-0.087
4.375,-0.084
4.380,-0.061
4.385,-0.049
4.390,-0.038
4.395,-0.009
4.400,0.006
4.405,0.019
4.410,0.041
4.415,0.042
4.420,0.060
4.425,0.078
4.430,0.071
4.435,0.087
4.440,0.096
4.445,0.081
4.450,0.079
4.455,0.086
4.460,0.087
4.465,0.074
4.470,0.076
4.475,0.080
4.480,0.075
4.485,0.078
4.490,0.059
4.495,0.042
4.500,0.051
4.505,0.058
4.510,0.062
4.515,0.050
4.520,0.034
4.525,0.038
4.530,0.044
4.535,0.036
4.540,0.026
4.545,0.026
4.550,0.021
4.555,0.012
4.560,0.017
4.565,0.009
4.570,0.016
4.575,0.026
4.580,0.008
4.585,-0.002
4.590,-0.005
4.595,0.008
4.600,0.016
4.605,0.012
4.610,0.009
4.615,-0.001
4.620,0.010
4.625,0.011
4.630,0.003
4.635,0.014
4.640,-0.014
4.645,-0.028
4.650,0.000
4.655,0.003
4.660,-0.001
4.665,-0.013
4.670,-0.020
4.675,0.010
4.680,0.029
4.685,0.006
4.690,-0.022
4.695,-0.017
4.700,-0.010
4.705,-0.003
4.710,0.006
4.715,0.004
4.720,0.018
4.725,0.020
4.730,-0.004
4.735,-0.012
4.740,-0.016
4.745,-0.020
4.750,-0.024
4.755,-0.032
4.760,-0.025
4.765,-0.011
4.770,-0.008
4.775,-0.022
4.780,-0.037
4.785,-0.038
4.790,-0.039
4.795,-0.048
4.800,-0.047
4.805,-0.037
4.810,-0.017
4.815,-0.019
4.820,-0.040
4.825,-0.032
4.830,-0.018
4.835,-0.007
4.840,-0.003
4.845,0.008
4.850,0.024
4.855,0.018
4.860,0.007
4.865,0.005
4.870,0.014
4.875,0.008
4.880,0.001
4.885,0.012
4.890,0.017
4.895,0.013
4.900,-0.003
4.905,0.009
4.910,0.045
4.915,0.036
4.920,-0.001
4.925,-0.072
4.930,-0.186
4.935,-0.272
4.940,-0.294
4.945,-0.223
4.950,-0.083
4.955,0.057
4.960,0.154
4.965,0.192
4.970,0.172
4.975,0.103
4.980,0.044
4.985,0.039
4.990,0.032
4.995,0.021
5.000,0.029
5.005,0.033
5.010,0.028
5.015,0.007
5.020,0.011
5.025,0.020
5.030,0.012
5.035,0.014
5.040,0.002
5.045,0.006
5.050,0.019
5.055,0.007
5.060,0.002
5.065,0.001
5.070,-0.005
5.075,-0.009
5.080,-0.010
5.085,-0.007
5.090,-0.011
5.095,-0.007
5.100,-0.010
5.105,-0.022
5.110,-0.026
5.115,-0.040
5.120,-0.045
5.125,-0.041
5.130,-0.041
5.135,-0.032
5.140,-0.037
5.145,-0.057
5.150,-0.069
5.155,-0.071
5.160,-0.070
5.165,-0.077
5.170,-0.075
5.175,-0.074
5.180,-0.086
5.185,-0.072
5.190,-0.064
5.195,-0.075
5.200,-0.072
5.205,-0.058
5.210,-0.040
5.215,-0.040
5.220,-0.033
5.225,0.002
5.230,0.029
5.235,0.036
5.240,0.041
5.245,0.081
5.250,0.090
5.255,0.057
5.260,0.063
5.265,0.074
5.270,0.078
5.275,0.081
5.280,0.073
5.285,0.081
5.290,0.075
5.295,0.052
5.300,0.059
5.305,0.078
5.310,0.075
5.315,0.053
5.320,0.047
5.325,0.056
5.330,0.061
5.335,0.057
5.340,0.037
5.345,0.037
5.350,0.054
5.355,0.049
5.360,0.032
5.365,0.023
5.370,0.037
5.375,0.039
5.380,0.023
5.385,0.020
5.390,0.015
5.395,0.029
5.400,0.029
5.405,-0.001
5.410,-0.009
5.415,-0.002
5.420,0.027
5.425,0.043
5.430,0.013
5.435,-0.011
5.440,-0.002
5.445,0.020
5.450,0.020
5.455,0.013
5.460,0.010
5.465,-0.006
5.470,-0.006
5.475,-0.009
5.480,-0.012
5.485,0.009
5.490,-0.003
5.495,-0.016
5.500,0.008
5.505,0.018
5.510,0.019
5.515,-0.010
5.520,-0.039
5.525,-0.026
5.530,-0.018
5.535,-0.005
5.540,-0.002
5.545,0.000
5.550,0.007
5.555,-0.002
5.560,-0.006
5.565,-0.027
5.570,-0.041
5.575,-0.034
5.580,-0.025
5.585,-0.012
5.590,-0.019
5.595,-0.026
5.600,-0.017
5.605,-0.035
5.610,-0.054
5.615,-0.050
5.620,-0.041
5.625,-0.043
5.630,-0.052
5.635,-0.043
5.640,-0.028
5.645,-0.022
5.650,-0.020
5.655,-0.032
5.660,-0.037
5.665,-0.024
5.670,-0.005
5.675,0.006
5.680,0.010
5.685,0.019
5.690,0.021
5.695,0.018
5.700,0.008
5.705,0.000
5.710,0.004
5.715,-0.004
5.720,0.002
5.725,0.025
5.730,0.013
5.735,0.013
5.740,0.021
5.745,0.005
5.750,-0.025
5.755,-0.116
5.760,-0.254
5.765,-0.349
5.770,-0.333
5.775,-0.225
5.780,-0.063
5.785,0.093
5.790,0.171
5.795,0.185
5.800,0.131
5.805,0.072
5.810,0.061
5.815,0.054
5.820,0.060
5.825,0.052
5.830,0.029
5.835,0.031
5.840,0.030
5.845,0.038
5.850,0.029
5.855,0.005
5.860,0.022
5.865,0.038
5.870,0.036
5.875,0.029
5.880,0.011
5.885,0.009
5.890,0.019
5.895,0.017
5.900,0.009
5.905,0.002
5.910,0.001
5.915,0.001
5.920,-0.002
5.925,-0.009
5.930,-0.012
5.935,-0.005
5.940,-0.007
5.945,-0.012
5.950,-0.030
5.955,-0.032
5.960,-0.020
5.965,-0.032
5.970,-0.039
5.975,-0.058
5.980,-0.064
5.985,-0.046
5.990,-0.059
5.995,-0.062
6.000,-0.068
6.005,-0.082
6.010,-0.068
6.015,-0.078
6.020,-0.081
6.025,-0.069
6.030,-0.063
6.035,-0.042
6.040,-0.034
6.045,-0.033
6.050,-0.017
6.055,0.020
6.060,0.039
6.065,0.038
6.070,0.064
6.075,0.085
6.080,0.078
6.085,0.066
6.090,0.051
6.095,0.069
6.100,0.100
6.105,0.096
6.110,0.078
6.115,0.055
6.120,0.054
6.125,0.079
6.130,0.075
6.135,0.052
6.140,0.047
6.145,0.062
6.150,0.069
6.155,0.050
6.160,0.028
6.165,0.029
6.170,0.041
6.175,0.046
6.180,0.050
6.185,0.044
6.190,0.025
6.195,0.028
6.200,0.029
6.205,0.021
6.210,0.026
6.215,0.020
6.220,0.025
6.225,0.024
6.230,0.004
6.235,0.004
6.240,0.001
6.245,0.002
6.250,0.010
6.255,0.000
6.260,-0.004
6.265,-0.006
6.270,0.001
6.275,0.010
6.280,0.003
6.285,0.000
6.290,-0.007
6.295,-0.006
6.300,0.005
6.305,0.004
6.310,0.007
6.315,0.001
6.320,-0.004
6.325,-0.008
6.330,-0.011
6.335,-0.002
6.340,-0.005
6.345,-0.003
6.350,0.000
6.355,-0.008
6.360,-0.020
6.365,-0.029
6.370,-0.016
6.375,-0.007
6.380,-0.013
6.385,-0.003
6.390,0.002
6.395,-0.003
6.400,-0.010
6.405,-0.027
6.410,-0.028
6.415,-0.025
6.420,-0.037
6.425,-0.036
6.430,-0.024
6.435,-0.023
6.440,-0.036
6.445,-0.047
6.450,-0.052
6.455,-0.040
6.460,-0.031
6.465,-0.039
6.470,-0.033
6.475,-0.038
6.480,-0.059
6.485,-0.048
6.490,-0.035
6.495,-0.019
6.500,0.003
6.505,0.022
6.510,0.048
6.515,0.045
6.520,0.033
6.525,0.022
6.530,0.001
6.535,0.010
6.540,0.014
6.545,0.010
6.550,0.021
6.555,0.012
6.560,-0.001
6.565,-0.001
6.570,0.022
6.575,0.036
6.580,0.007
6.585,-0.045
6.590,-0.149
6.595,-0.290
6.600,-0.364
6.605,-0.299
6.610,-0.137
6.615,0.045
6.620,0.177
6.625,0.221
6.630,0.208
6.635,0.157
6.640,0.086
6.645,0.063
6.650,0.057
6.655,0.037
6.660,0.036
6.665,0.013
6.670,0.008
6.675,0.034
6.680,0.027
6.685,0.009
6.690,0.001
6.695,0.021
6.700,0.041
6.705,0.019
6.710,0.001
6.715,0.010
6.720,0.031
6.725,0.022
6.730,-0.003
6.735,-0.002
6.740,0.006
6.745,0.017
6.750,0.003
6.755,-0.027
6.760,-0.025
6.765,-0.016
6.770,-0.015
6.775,-0.014
6.780,-0.025
6.785,-0.034
6.790,-0.043
6.795,-0.053
6.800,-0.061
6.805,-0.066
6.810,-0.048
6.815,-0.056
6.820,-0.071
6.825,-0.076
6.830,-0.088
6.835,-0.084
6.840,-0.083
6.845,-0.079
6.850,-0.075
6.855,-0.076
6.860,-0.066
6.865,-0.054
6.870,-0.036
6.875,-0.042
6.880,-0.042
6.885,-0.007
6.890,0.024
6.895,0.049
6.900,0.055
6.905,0.055
6.910,0.072
6.915,0.081
6.920,0.095
6.925,0.099
6.930,0.081
6.935,0.077
6.940,0.058
6.945,0.054
6.950,0.079
6.955,0.079
6.960,0.073
6.965,0.063
6.970,0.060
6.975,0.061
6.980,0.055
6.985,0.060
6.990,0.051
6.995,0.043
7.000,0.033
7.005,0.026
7.010,0.038
7.015,0.026
7.020,0.032
7.025,0.056
7.030,0.050
7.035,0.041
7.040,0.020
7.045,0.010
7.050,0.023
7.055,0.025
7.060,0.028
7.065,0.015
7.070,0.008
7.075,0.011
7.080,-0.004
7.085,-0.005
7.090,-0.004
7.095,0.006
7.100,0.023
7.105,0.005
7.110,0.000
7.115,0.007
7.120,0.005
7.125,0.004
7.130,-0.003
7.135,0.001
7.140,-0.006
7.145,-0.020
7.150,-0.002
7.155,0.018
7.160,0.014
7.165,-0.009
7.170,-0.010
7.175,0.005
7.180,-0.008
7.185,-0.022
7.190,-0.022
7.195,-0.016
7.200,-0.010
7.205,-0.019
7.210,-0.023
7.215,-0.011
7.220,-0.006
7.225,-0.002
7.230,-0.006
7.235,-0.009
7.240,-0.017
7.245,-0.031
7.250,-0.028
7.255,-0.045
7.260,-0.050
7.265,-0.035
7.270,-0.041
7.275,-0.040
7.280,-0.052
7.285,-0.066
7.290,-0.061
7.295,-0.050
7.300,-0.028
7.305,-0.018
7.310,-0.010
7.315,0.006
7.320,0.013
7.325,0.011
7.330,0.005
7.335,0.010
7.340,0.016
7.345,0.015
7.350,0.024
7.355,0.031
7.360,0.021
7.365,0.003
7.370,0.001
7.375,0.011
7.380,0.019
7.385,0.027
7.390,0.023
7.395,0.009
7.400,-0.013
7.405,-0.058
7.410,-0.155
7.415,-0.251
7.420,-0.238
7.425,-0.122
7.430,0.035
7.435,0.153
7.440,0.186
7.445,0.185
7.450,0.135
7.455,0.051
7.460,0.009
7.465,-0.001
7.470,0.011
7.475,0.024
7.480,0.014
7.485,0.008
7.490,-0.001
7.495,-0.007
7.500,-0.002
7.505,-0.004
7.510,0.005
7.515,0.000
7.520,-0.020
7.525,-0.022
7.530,-0.014
7.535,0.006
7.540,0.012
7.545,-0.006
7.550,-0.023
7.555,-0.023
7.560,-0.009
7.565,-0.016
7.570,-0.023
7.575,-0.019
7.580,-0.024
7.585,-0.027
7.590,-0.035
7.595,-0.036
7.600,-0.026
7.605,-0.042
7.610,-0.067
7.615,-0.070
7.620,-0.061
7.625,-0.058
7.630,-0.065
7.635,-0.064
7.640,-0.064
7.645,-0.079
7.650,-0.095
7.655,-0.100
7.660,-0.097
7.665,-0.088
7.670,-0.068
7.675,-0.057
7.680,-0.059
7.685,-0.049
7.690,-0.038
7.695,-0.019
7.700,0.001
7.705,0.008
7.710,0.029
7.715,0.048
7.720,0.068
7.725,0.087
7.730,0.070
7.735,0.047
7.740,0.048
7.745,0.074
7.750,0.105
7.755,0.096
7.760,0.077
7.765,0.075
7.770,0.063
7.775,0.050
7.780,0.043
7.785,0.057
7.790,0.081
7.795,0.078
7.800,0.058
7.805,0.044
7.810,0.053
7.815,0.055
7.820,0.044
7.825,0.041
7.830,0.037
7.835,0.035
7.840,0.031
7.845,0.030
7.850,0.033
7.855,0.026
7.860,0.029
7.865,0.032
7.870,0.026
7.875,0.026
7.880,0.019
7.885,0.025
7.890,0.026
7.895,0.015
7.900,0.017
7.905,0.023
7.910,0.024
7.915,0.017
7.920,0.017
7.925,0.012
7.930,0.003
7.935,0.010
7.940,0.009
7.945,0.004
7.950,0.010
7.955,0.011
7.960,0.008
7.965,-0.005
7.970,-0.012
7.975,0.000
7.980,0.005
7.985,0.012
7.990,0.009
7.995,0.000
8.000,-0.005
8.005,-0.006
8.010,0.007
8.015,0.004
8.020,-0.002
8.025,-0.006
8.030,-0.009
8.035,0.001
8.040,-0.010
8.045,-0.025
8.050,-0.019
8.055,-0.015
8.060,-0.018
8.065,-0.028
8.070,-0.033
8.075,-0.034
8.080,-0.030
8.085,-0.024
8.090,-0.037
8.095,-0.049
8.100,-0.048
8.105,-0.038
8.110,-0.027
8.115,-0.043
8.120,-0.048
8.125,-0.027
8.130,-0.007
8.135,0.009
8.140,-0.003
8.145,-0.008
8.150,0.016
8.155,0.026
8.160,0.022
8.165,0.020
8.170,0.026
8.175,0.020
8.180,-0.003
8.185,-0.010
8.190,-0.010
8.195,-0.005
8.200,0.008
8.205,0.026
8.210,0.043
8.215,0.020
8.220,-0.046
8.225,-0.165
8.230,-0.314
8.235,-0.376
8.240,-0.312
8.245,-0.151
8.250,0.030
8.255,0.148
8.260,0.197
8.265,0.179
8.270,0.127
8.275,0.070
8.280,0.031
8.285,0.027
8.290,0.026
8.295,0.038
8.300,0.050
8.305,0.029
8.310,0.028
8.315,0.034
8.320,0.020
8.325,0.019
8.330,0.018
8.335,0.015
8.340,0.012
8.345,0.011
8.350,0.006
8.355,0.001
8.360,0.007
8.365,0.002
8.370,-0.004
8.375,-0.008
8.380,-0.010
8.385,0.005
8.390,0.003
8.395,-0.014
8.400,-0.018
8.405,-0.014
8.410,-0.019
8.415,-0.045
8.420,-0.055
8.425,-0.031
8.430,-0.018
8.435,-0.036
8.440,-0.061
8.445,-0.075
8.450,-0.078
8.455,-0.075
8.460,-0.074
8.465,-0.081
8.470,-0.072
8.475,-0.059
8.480,-0.068
8.485,-0.082
8.490,-0.097
8.495,-0.091
8.500,-0.056
8.505,-0.026
8.510,-0.008
8.515,-0.007
8.520,-0.005
8.525,0.015
8.530,0.038
8.535,0.060
8.540,0.055
8.545,0.048
8.550,0.060
8.555,0.068
8.560,0.078
8.565,0.074
8.570,0.076
8.575,0.087
8.580,0.080
8.585,0.085
8.590,0.085
8.595,0.071
8.600,0.074
8.605,0.067
8.610,0.056
8.615,0.058
8.620,0.055
8.625,0.046
8.630,0.046
8.635,0.047
8.640,0.039
8.645,0.042
8.650,0.035
8.655,0.008
8.660,0.010
8.665,0.018
8.670,0.020
8.675,0.026
8.680,0.022
8.685,0.028
8.690,0.021
8.695,0.011
8.700,0.013
8.705,0.012
8.710,0.009
8.715,0.011
8.720,0.025
8.725,0.024
8.730,0.006
8.735,0.007
8.740,0.007
8.745,0.005
8.750,0.000
8.755,-0.006
8.760,0.017
8.765,0.025
8.770,0.005
8.775,-0.011
8.780,-0.019
8.785,-0.005
8.790,0.008
8.795,-0.002
8.800,-0.010
8.805,-0.004
8.810,0.003
8.815,-0.007
8.820,-0.012
8.825,-0.007
8.830,-0.016
8.835,-0.009
8.840,0.000
8.845,-0.007
8.850,-0.002
8.855,-0.004
8.860,-0.012
8.865,-0.017
8.870,-0.015
8.875,-0.010
8.880,-0.013
8.885,-0.017
8.890,-0.034
8.895,-0.045
8.900,-0.030
8.905,-0.022
8.910,-0.027
8.915,-0.035
8.920,-0.049
8.925,-0.056
8.930,-0.061
8.935,-0.054
8.940,-0.046
8.945,-0.051
8.950,-0.051
8.955,-0.034
8.960,0.003
8.965,0.023
8.970,0.019
8.975,0.021
8.980,0.022
8.985,0.020
8.990,0.013
8.995,0.005
9.000,0.004
9.005,0.001
9.010,0.011
9.015,0.014
9.020,0.010
9.025,0.013
9.030,0.008
9.035,0.018
9.040,0.012
9.045,-0.027
9.050,-0.067
9.055,-0.167
9.060,-0.304
9.065,-0.367
9.070,-0.319
9.075,-0.162
9.080,0.028
9.085,0.156
9.090,0.199
9.095,0.172
9.100,0.112
9.105,0.061
9.110,0.048
9.115,0.050
9.120,0.055
9.125,0.055
9.130,0.039
9.135,0.037
9.140,0.039
9.145,0.041
9.150,0.037
9.155,0.014
9.160,0.014
9.165,0.020
9.170,0.016
9.175,0.011
9.180,0.008
9.185,0.026
9.190,0.028
9.195,0.015
9.200,0.006
9.205,-0.001
9.210,0.008
9.215,0.003
9.220,-0.010
9.225,-0.019
9.230,-0.028
9.235,-0.006
9.240,0.006
9.245,-0.009
9.250,-0.023
9.255,-0.041
9.260,-0.045
9.265,-0.052
9.270,-0.061
9.275,-0.050
9.280,-0.050
9.285,-0.069
9.290,-0.088
9.295,-0.096
9.300,-0.102
9.305,-0.108
9.310,-0.098
9.315,-0.080
9.320,-0.075
9.325,-0.079
9.330,-0.068
9.335,-0.042
9.340,-0.016
9.345,-0.007
9.350,0.005
9.355,0.019
9.360,0.029
9.365,0.051
9.370,0.082
9.375,0.094
9.380,0.092
9.385,0.097
9.390,0.096
9.395,0.081
9.400,0.062
9.405,0.050
9.410,0.062
9.415,0.061
9.420,0.043
9.425,0.029
9.430,-0.005
9.435,-0.024
9.440,-0.028
9.445,-0.041
9.450,-0.085
9.455,-0.162
9.460,-0.229
9.465,-0.311
9.470,-0.400
9.475,-0.459
9.480,-0.475
9.485,-0.419
9.490,-0.343
9.495,-0.270
9.500,-0.182
9.505,-0.117
9.510,-0.070
9.515,-0.032
9.520,0.011
9.525,0.089
9.530,0.176
9.535,0.266
9.540,0.335
9.545,0.368
9.550,0.387
9.555,0.384
9.560,0.364
9.565,0.351
9.570,0.345
9.575,0.334
9.580,0.328
9.585,0.317
9.590,0.289
9.595,0.267
9.600,0.257
9.605,0.255
9.610,0.258
9.615,0.242
9.620,0.227
9.625,0.230
9.630,0.227
9.635,0.224
9.640,0.201
9.645,0.168
9.650,0.165
9.655,0.162
9.660,0.147
9.665,0.125
9.670,0.113
9.675,0.112
9.680,0.096
9.685,0.085
9.690,0.079
9.695,0.069
9.700,0.054
9.705,0.020
9.710,-0.005
9.715,-0.023
9.720,-0.035
9.725,-0.043
9.730,-0.063
9.735,-0.080
9.740,-0.103
9.745,-0.116
9.750,-0.114
9.755,-0.125
9.760,-0.135
9.765,-0.142
9.770,-0.146
9.775,-0.132
9.780,-0.133
9.785,-0.132
9.790,-0.115
9.795,-0.112
9.800,-0.119
9.805,-0.130
9.810,-0.124
9.815,-0.106
9.820,-0.092
9.825,-0.094
9.830,-0.105
9.835,-0.094
9.840,-0.094
9.845,-0.101
9.850,-0.091
9.855,-0.089
9.860,-0.080
9.865,-0.074
9.870,-0.081
9.875,-0.076
9.880,-0.071
9.885,-0.068
9.890,-0.066
9.895,-0.066
9.900,-0.053
9.905,-0.047
9.910,-0.055
9.915,-0.061
9.920,-0.061
9.925,-0.054
9.930,-0.054
9.935,-0.051
9.940,-0.044
9.945,-0.044
9.950,-0.035
9.955,-0.029
9.960,-0.035
9.965,-0.044
9.970,-0.048
9.975,-0.035
9.980,-0.021
9.985,-0.021
9.990,-0.027
9.995,-0.026
10.000,-0.024
10.005,-0.032
10.010,-0.027
10.015,-0.018
10.020,-0.015
10.025,-0.013
10.030,-0.019
10.035,-0.007
10.040,-0.001
10.045,-0.017
10.050,-0.013
10.055,-0.011
10.060,-0.014
10.065,-0.021
10.070,-0.020
10.075,0.005
10.080,0.007
10.085,0.005
10.090,0.005
10.095,-0.003
10.100,-0.004
10.105,-0.009
10.110,-0.007
10.115,0.002
10.120,-0.002
10.125,-0.006
10.130,-0.010
10.135,-0.010
10.140,0.000
10.145,0.005
10.150,0.007
10.155,0.008
10.160,0.005
10.165,0.002
10.170,0.006
10.175,0.010
10.180,0.015
10.185,0.026
10.190,0.009
10.195,0.000
10.200,0.008
10.205,-0.007
10.210,-0.014
10.215,-0.014
10.220,-0.008
10.225,0.003
10.230,0.000
10.235,0.009
10.240,0.011
10.245,0.003
10.250,-0.002
10.255,-0.010
10.260,0.004
10.265,0.007
10.270,-0.005
10.275,0.008
10.280,0.012
10.285,0.008
10.290,0.011
10.295,0.016
10.300,0.020
10.305,0.003
10.310,-0.018
10.315,-0.016
10.320,0.003
10.325,0.014
10.330,0.004
10.335,0.005
10.340,0.013
10.345,0.008
10.350,0.013
10.355,0.018
10.360,0.004
10.365,-0.008
10.370,-0.006
10.375,-0.003
10.380,-0.002
10.385,0.018
10.390,0.023
10.395,0.006
10.400,-0.005
10.405,-0.013
10.410,-0.004
10.415,0.007
10.420,0.000
10.425,0.005
10.430,0.018
10.435,0.019
10.440,0.003
10.445,0.000
10.450,-0.001
10.455,-0.008
10.460,0.014
10.465,0.018
10.470,0.006
10.475,0.010
10.480,0.008
10.485,0.005
10.490,0.000
10.495,0.009
10.500,0.023
10.505,0.009
10.510,-0.015
10.515,-0.026
10.520,-0.004
10.525,0.008
10.530,-0.017
10.535,-0.021
10.540,-0.021
10.545,-0.028
10.550,-0.026
10.555,-0.031
10.560,-0.032
10.565,-0.032
10.570,-0.022
10.575,-0.015
10.580,-0.022
10.585,-0.019
10.590,-0.009
10.595,0.019
10.600,0.024
10.605,0.001
10.610,0.014
10.615,0.038
10.620,0.042
10.625,0.033
10.630,0.018
10.635,0.038
10.640,0.040
10.645,0.010
10.650,0.021
10.655,0.035
10.660,0.030
10.665,0.034
10.670,0.048
10.675,0.062
10.680,0.035
10.685,-0.054
10.690,-0.185
10.695,-0.265
10.700,-0.211
10.705,-0.071
10.710,0.099
10.715,0.190
10.720,0.186
10.725,0.175
10.730,0.126
10.735,0.067
10.740,0.032
10.745,-0.002
10.750,-0.001
10.755,0.023
10.760,0.026
10.765,0.016
10.770,0.008
10.775,-0.001
10.780,-0.003
10.785,0.003
10.790,0.001
10.795,0.001
10.800,0.006
10.805,0.009
10.810,0.020
10.815,0.026
10.820,0.020
10.825,0.014
10.830,0.002
10.835,-0.007
10.840,-0.014
10.845,-0.010
10.850,-0.006
10.855,-0.020
10.860,-0.019
10.865,-0.016
10.870,-0.023
10.875,-0.028
10.880,-0.042
10.885,-0.033
10.890,-0.024
10.895,-0.033
10.900,-0.043
10.905,-0.059
10.910,-0.047
10.915,-0.039
10.920,-0.054
10.925,-0.053
10.930,-0.051
10.935,-0.050
10.940,-0.068
10.945,-0.087
10.950,-0.076
10.955,-0.071
10.960,-0.075
10.965,-0.073
10.970,-0.046
10.975,-0.030
10.980,-0.045
10.985,-0.031
10.990,0.000
10.995,0.006
11.000,0.013
11.005,0.020
11.010,0.035
11.015,0.053
11.020,0.049
11.025,0.047
11.030,0.050
11.035,0.054
11.040,0.061
11.045,0.072
11.050,0.080
11.055,0.065
11.060,0.047
11.065,0.045
11.070,0.060
11.075,0.073
11.080,0.066
11.085,0.060
11.090,0.044
11.095,0.037
11.100,0.059
11.105,0.066
11.110,0.062
11.115,0.051
11.120,0.028
11.125,0.019
11.130,0.023
11.135,0.039
11.140,0.047
11.145,0.042
11.150,0.042
11.155,0.029
11.160,0.026
11.165,0.019
11.170,0.005
11.175,0.024
11.180,0.021
11.185,0.011
11.190,0.024
11.195,0.027
11.200,0.028
11.205,0.018
11.210,0.009
11.215,0.015
11.220,0.022
11.225,0.014
11.230,-0.009
11.235,-0.007
11.240,0.008
11.245,0.007
11.250,0.001
11.255,-0.001
11.260,0.007
11.265,0.002
11.270,-0.010
11.275,-0.004
11.280,0.000
11.285,0.005
11.290,0.003
11.295,-0.005
11.300,0.009
11.305,0.005
11.310,-0.001
11.315,0.011
11.320,0.000
11.325,-0.020
11.330,-0.026
11.335,-0.024
11.340,-0.027
11.345,-0.037
11.350,-0.041
11.355,-0.038
11.360,-0.032
11.365,-0.035
11.370,-0.034
11.375,-0.029
11.380,-0.036
11.385,-0.031
11.390,-0.035
11.395,-0.037
11.400,-0.015
11.405,-0.009
11.410,-0.002
11.415,0.003
11.420,0.002
11.425,0.016
11.430,0.018
11.435,0.023
11.440,0.014
11.445,-0.015
11.450,-0.017
11.455,-0.011
11.460,-0.003
11.465,0.000
11.470,0.004
11.475,0.028
11.480,0.026
11.485,0.009
11.490,-0.013
11.495,-0.063
11.500,-0.141
11.505,-0.239
11.510,-0.271
11.515,-0.207
11.520,-0.092
11.525,0.043
11.530,0.137
11.535,0.172
11.540,0.148
11.545,0.092
11.550,0.054
11.555,0.036
11.560,0.022
11.565,0.006
11.570,0.014
11.575,0.021
11.580,0.009
11.585,0.011
11.590,0.007
11.595,-0.006
11.600,-0.009
11.605,-0.009
11.610,-0.002
11.615,0.006
11.620,0.002
11.625,0.001
11.630,0.001
11.635,-0.001
11.640,0.000
11.645,0.001
11.650,-0.004
11.655,-0.017
11.660,-0.015
11.665,-0.019
11.670,-0.038
11.675,-0.031
11.680,-0.018
11.685,-0.022
11.690,-0.039
11.695,-0.047
11.700,-0.040
11.705,-0.046
11.710,-0.057
11.715,-0.066
11.720,-0.057
11.725,-0.042
11.730,-0.052
11.735,-0.052
11.740,-0.060
11.745,-0.082
11.750,-0.082
11.755,-0.079
11.760,-0.082
11.765,-0.075
11.770,-0.063
11.775,-0.040
11.780,-0.027
11.785,-0.015
11.790,-0.006
11.795,0.006
11.800,0.041
11.805,0.057
11.810,0.058
11.815,0.061
11.820,0.061
11.825,0.073
11.830,0.085
11.835,0.084
11.840,0.085
11.845,0.081
11.850,0.073
11.855,0.066
11.860,0.056
11.865,0.057
11.870,0.061
11.875,0.063
11.880,0.061
11.885,0.055
11.890,0.055
11.895,0.050
11.900,0.041
11.905,0.038
11.910,0.035
11.915,0.031
11.920,0.036
11.925,0.037
11.930,0.023
11.935,0.017
11.940,0.025
11.945,0.038
11.950,0.047
11.955,0.023
11.960,0.016
11.965,0.030
11.970,0.024
11.975,0.021
11.980,0.004
11.985,-0.001
11.990,0.013
11.995,0.011
12.000,0.012
12.005,0.008
12.010,0.006
12.015,0.008
12.020,-0.007
12.025,-0.008
12.030,0.000
12.035,0.003
12.040,0.000
12.045,0.001
12.050,0.015
12.055,0.013
12.060,0.003
12.065,-0.005
12.070,0.000
12.075,0.009
12.080,0.000
12.085,-0.006
12.090,-0.023
12.095,-0.032
12.100,-0.017
12.105,-0.008
12.110,-0.003
12.115,-0.007
12.120,-0.019
12.125,-0.020
12.130,-0.022
12.135,-0.018
12.140,-0.009
12.145,-0.028
12.150,-0.037
12.155,-0.027
12.160,-0.028
12.165,-0.035
12.170,-0.052
12.175,-0.057
12.180,-0.041
12.185,-0.027
12.190,-0.029
12.195,-0.035
12.200,-0.023
12.205,-0.006
12.210,0.010
12.215,0.016
12.220,0.014
12.225,0.012
12.230,0.004
12.235,0.009
12.240,0.009
12.245,0.007
12.250,0.018
12.255,0.008
12.260,-0.008
12.265,-0.011
12.270,-0.002
12.275,0.015
12.280,0.013
12.285,0.003
12.290,-0.019
12.295,-0.088
12.300,-0.206
12.305,-0.309
12.310,-0.288
12.315,-0.171
12.320,-0.028
12.325,0.104
12.330,0.161
12.335,0.167
12.340,0.138
12.345,0.082
12.350,0.054
12.355,0.034
12.360,0.015
12.365,0.024
12.370,0.031
12.375,0.021
12.380,0.016
12.385,0.028
12.390,0.025
12.395,0.014
12.400,0.014
12.405,0.018
12.410,0.019
12.415,0.004
12.420,-0.002
12.425,0.009
12.430,0.005
12.435,-0.008
12.440,-0.015
12.445,-0.004
12.450,0.015
12.455,0.002
12.460,-0.017
12.465,-0.023
12.470,-0.022
12.475,-0.016
12.480,-0.028
12.485,-0.029
12.490,-0.022
12.495,-0.027
12.500,-0.037
12.505,-0.049
12.510,-0.043
12.515,-0.048
12.520,-0.072
12.525,-0.083
12.530,-0.085
12.535,-0.078
12.540,-0.073
12.545,-0.079
12.550,-0.076
12.555,-0.073
12.560,-0.078
12.565,-0.082
12.570,-0.059
12.575,-0.025
12.580,-0.019
12.585,-0.012
12.590,-0.005
12.595,0.004
12.600,0.036
12.605,0.050
12.610,0.052
12.615,0.064
12.620,0.071
12.625,0.074
12.630,0.073
12.635,0.078
12.640,0.078
12.645,0.072
12.650,0.083
12.655,0.076
12.660,0.074
12.665,0.075
12.670,0.060
12.675,0.071
12.680,0.063
12.685,0.047
12.690,0.051
12.695,0.056
12.700,0.068
12.705,0.048
12.710,0.024
12.715,0.031
12.720,0.037
12.725,0.046
12.730,0.040
12.735,0.024
12.740,0.014
12.745,0.005
12.750,0.017
12.755,0.028
12.760,0.034
12.765,0.028
12.770,0.015
12.775,0.013
12.780,0.004
12.785,0.009
12.790,0.028
12.795,0.031
12.800,0.015
12.805,-0.011
12.810,-0.013
12.815,-0.002
12.820,0.009
12.825,0.018
12.830,0.012
12.835,0.009
12.840,-0.003
12.845,-0.012
12.850,-0.001
12.855,0.000
12.860,0.004
12.865,0.003
12.870,-0.011
12.875,-0.014
12.880,-0.012
12.885,0.001
12.890,0.002
12.895,-0.014
12.900,-0.016
12.905,-0.018
12.910,-0.027
12.915,-0.031
12.920,-0.028
12.925,-0.028
12.930,-0.046
12.935,-0.060
12.940,-0.054
12.945,-0.042
12.950,-0.029
12.955,-0.026
12.960,-0.027
12.965,-0.035
12.970,-0.049
12.975,-0.040
12.980,-0.029
12.985,-0.016
12.990,-0.002
12.995,0.010
13.000,0.024
13.005,0.014
13.010,0.010
13.015,0.012
13.020,0.005
13.025,0.011
13.030,0.009
13.035,0.010
13.040,0.013
13.045,0.008
13.050,0.023
13.055,0.025
13.060,0.016
13.065,0.029
13.070,0.018
13.075,-0.027
13.080,-0.113
13.085,-0.240
13.090,-0.336
13.095,-0.333
13.100,-0.224
13.105,-0.048
13.110,0.125
13.115,0.207
13.120,0.196
13.125,0.147
13.130,0.083
13.135,0.050
13.140,0.045
13.145,0.041
13.150,0.048
13.155,0.051
13.160,0.041
13.165,0.020
13.170,0.008
13.175,0.012
13.180,0.013
13.185,0.017
13.190,0.010
13.195,0.004
13.200,0.011
13.205,0.006
13.210,0.004
13.215,0.002
13.220,0.001
13.225,0.005
13.230,0.005
13.235,0.021
13.240,0.020
13.245,-0.011
13.250,-0.020
13.255,-0.021
13.260,-0.022
13.265,-0.017
13.270,-0.026
13.275,-0.034
13.280,-0.043
13.285,-0.049
13.290,-0.046
13.295,-0.054
13.300,-0.054
13.305,-0.053
13.310,-0.065
13.315,-0.078
13.320,-0.090
13.325,-0.092
13.330,-0.092
13.335,-0.086
13.340,-0.083
13.345,-0.080
13.350,-0.066
13.355,-0.067
13.360,-0.060
13.365,-0.039
13.370,-0.024
13.375,0.005
13.380,0.026
13.385,0.029
13.390,0.035
13.395,0.044
13.400,0.066
13.405,0.090
13.410,0.100
13.415,0.090
13.420,0.077
13.425,0.072
13.430,0.069
13.435,0.086
13.440,0.085
13.445,0.068
13.450,0.082
13.455,0.081
13.460,0.061
13.465,0.056
13.470,0.052
13.475,0.060
13.480,0.062
13.485,0.046
13.490,0.045
13.495,0.045
13.500,0.045
13.505,0.050
13.510,0.039
13.515,0.023
13.520,0.026
13.525,0.046
13.530,0.044
13.535,0.018
13.540,-0.003
13.545,-0.003
13.550,0.012
13.555,0.013
13.560,0.014
13.565,0.021
13.570,0.014
13.575,0.004
13.580,0.006
13.585,0.018
13.590,0.021
13.595,0.015
13.600,0.013
13.605,-0.005
13.610,-0.017
13.615,-0.007
13.620,-0.003
13.625,-0.001
13.630,-0.007
13.635,-0.001
13.640,0.008
13.645,-0.007
13.650,-0.005
13.655,0.000
13.660,-0.005
13.665,-0.012
13.670,-0.025
13.675,-0.017
13.680,0.004
13.685,0.006
13.690,-0.013
13.695,-0.030
13.700,-0.030
13.705,-0.027
13.710,-0.019
13.715,-0.021
13.720,-0.031
13.725,-0.034
13.730,-0.051
13.735,-0.067
13.740,-0.060
13.745,-0.048
13.750,-0.035
13.755,-0.039
13.760,-0.050
13.765,-0.044
13.770,-0.025
13.775,-0.002
13.780,0.001
13.785,0.011
13.790,0.029
13.795,0.018
13.800,0.003
13.805,0.009
13.810,0.025
13.815,0.032
13.820,0.009
13.825,-0.007
13.830,0.002
13.835,0.012
13.840,0.011
13.845,0.012
13.850,0.030
13.855,0.035
13.860,0.005
13.865,-0.060
13.870,-0.162
13.875,-0.296
13.880,-0.388
13.885,-0.346
13.890,-0.206
13.895,-0.028
13.900,0.133
13.905,0.197
13.910,0.185
13.915,0.134
13.920,0.072
13.925,0.055
13.930,0.057
13.935,0.045
13.940,0.041
13.945,0.044
13.950,0.045
13.955,0.041
13.960,0.035
13.965,0.020
13.970,0.011
13.975,0.021
13.980,0.015
13.985,0.015
13.990,0.025
13.995,0.016
14.000,0.011
14.005,0.010
14.010,0.018
14.015,0.019
14.020,-0.001
14.025,0.002
14.030,0.007
14.035,-0.001
14.040,-0.008
14.045,-0.014
14.050,-0.002
14.055,-0.003
14.060,-0.020
14.065,-0.025
14.070,-0.026
14.075,-0.032
14.080,-0.053
14.085,-0.064
14.090,-0.068
14.095,-0.078
14.100,-0.071
14.105,-0.072
14.110,-0.082
14.115,-0.088
14.120,-0.087
14.125,-0.086
14.130,-0.090
14.135,-0.076
14.140,-0.073
14.145,-0.069
14.150,-0.048
14.155,-0.036
14.160,-0.021
14.165,-0.008
14.170,-0.002
14.175,0.018
14.180,0.036
14.185,0.062
14.190,0.083
14.195,0.084
14.200,0.088
14.205,0.083
14.210,0.087
14.215,0.098
14.220,0.102
14.225,0.102
14.230,0.080
14.235,0.073
14.240,0.070
14.245,0.062
14.250,0.074
14.255,0.078
14.260,0.075
14.265,0.069
14.270,0.047
14.275,0.042
14.280,0.037
14.285,0.030
14.290,0.035
14.295,0.039
14.300,0.038
14.305,0.029
14.310,0.032
14.315,0.036
14.320,0.026
14.325,0.019
14.330,0.015
14.335,0.021
14.340,0.026
14.345,0.016
14.350,0.015
14.355,0.019
14.360,0.020
14.365,0.019
14.370,0.009
14.375,0.010
14.380,0.010
14.385,0.009
14.390,0.009
14.395,-0.001
14.400,0.002
14.405,0.013
14.410,0.010
14.415,-0.004
14.420,-0.006
14.425,0.000
14.430,-0.007
14.435,-0.009
14.440,-0.006
14.445,-0.009
14.450,-0.004
14.455,-0.011
14.460,-0.009
14.465,0.010
14.470,-0.007
14.475,-0.020
14.480,-0.013
14.485,-0.016
14.490,-0.015
14.495,-0.020
14.500,-0.024
14.505,-0.033
14.510,-0.056
14.515,-0.065
14.520,-0.056
14.525,-0.042
14.530,-0.037
14.535,-0.035
14.540,-0.033
14.545,-0.045
14.550,-0.054
14.555,-0.053
14.560,-0.042
14.565,-0.029
14.570,-0.011
14.575,0.014
14.580,0.024
14.585,0.020
14.590,0.023
14.595,0.029
14.600,0.023
14.605,0.002
14.610,-0.006
14.615,0.004
14.620,0.013
14.625,0.021
14.630,0.021
14.635,0.019
14.640,0.012
14.645,0.013
14.650,0.021
14.655,-0.016
14.660,-0.117
14.665,-0.257
14.670,-0.358
14.675,-0.327
14.680,-0.187
14.685,0.004
14.690,0.156
14.695,0.218
14.700,0.230
14.705,0.180
14.710,0.101
14.715,0.041
14.720,0.015
14.725,0.021
14.730,0.019
14.735,0.025
14.740,0.033
14.745,0.030
14.750,0.024
14.755,0.005
14.760,0.007
14.765,0.011
14.770,0.006
14.775,0.017
14.780,0.013
14.785,0.008
14.790,0.003
14.795,0.004
14.800,0.011
14.805,-0.012
14.810,-0.023
14.815,-0.013
14.820,-0.005
14.825,-0.005
14.830,-0.019
14.835,-0.027
14.840,-0.028
14.845,-0.030
14.850,-0.020
14.855,-0.030
14.860,-0.049
14.865,-0.055
14.870,-0.051
14.875,-0.054
14.880,-0.077
14.885,-0.079
14.890,-0.078
14.895,-0.091
14.900,-0.084
14.905,-0.092
14.910,-0.100
14.915,-0.090
14.920,-0.086
14.925,-0.080
14.930,-0.093
14.935,-0.078
14.940,-0.027
14.945,-0.009
14.950,-0.006
14.955,-0.013
14.960,0.010
14.965,0.042
14.970,0.040
14.975,0.052
14.980,0.074
14.985,0.088
14.990,0.086
14.995,0.075
15.000,0.087
15.005,0.093
15.010,0.086
15.015,0.081
15.020,0.076
15.025,0.077
15.030,0.063
15.035,0.061
15.040,0.068
15.045,0.063
15.050,0.067
15.055,0.068
15.060,0.062
15.065,0.042
15.070,0.026
15.075,0.038
15.080,0.045
15.085,0.045
15.090,0.038
15.095,0.031
15.100,0.044
15.105,0.046
15.110,0.041
15.115,0.031
15.120,0.020
15.125,0.027
15.130,0.016
15.135,0.009
15.140,0.013
15.145,0.013
15.150,0.027
15.155,0.018
15.160,0.014
15.165,0.021
15.170,0.005
15.175,0.009
15.180,0.015
15.185,0.001
15.190,-0.005
15.195,-0.008
15.200,0.010
15.205,0.017
15.210,0.004
15.215,0.010
15.220,0.004
15.225,-0.012
15.230,-0.014
15.235,-0.006
15.240,0.002
15.245,-0.006
15.250,-0.007
15.255,0.006
15.260,0.008
15.265,-0.017
15.270,-0.030
15.275,-0.010
15.280,-0.006
15.285,-0.007
15.290,-0.003
15.295,-0.013
15.300,-0.018
15.305,-0.029
15.310,-0.044
15.315,-0.047
15.320,-0.061
15.325,-0.064
15.330,-0.042
15.335,-0.029
15.340,-0.049
15.345,-0.060
15.350,-0.038
15.355,-0.031
15.360,-0.018
15.365,0.006
15.370,0.019
15.375,0.028
15.380,0.008
15.385,-0.002
15.390,0.021
15.395,0.029
15.400,0.016
15.405,-0.008
15.410,-0.013
15.415,0.002
15.420,0.003
15.425,-0.003
15.430,0.005
15.435,0.026
15.440,0.042
15.445,0.029
15.450,-0.008
15.455,-0.061
15.460,-0.170
15.465,-0.308
15.470,-0.337
15.475,-0.238
15.480,-0.072
15.485,0.099
15.490,0.185
15.495,0.207
15.500,0.182
15.505,0.106
15.510,0.055
15.515,0.032
15.520,0.011
15.525,0.007
15.530,0.008
15.535,0.007
15.540,0.002
15.545,0.013
15.550,0.026
15.555,0.012
15.560,0.002
15.565,0.000
15.570,0.004
15.575,0.012
15.580,-0.004
15.585,-0.013
15.590,-0.010
15.595,-0.025
15.600,-0.021
15.605,-0.015
15.610,-0.014
15.615,-0.005
15.620,-0.006
15.625,-0.017
15.630,-0.026
15.635,-0.026
15.640,-0.028
15.645,-0.033
15.650,-0.039
15.655,-0.057
15.660,-0.055
15.665,-0.049
15.670,-0.064
15.675,-0.065
15.680,-0.072
15.685,-0.073
15.690,-0.064
15.695,-0.094
15.700,-0.112
15.705,-0.108
15.710,-0.106
15.715,-0.092
15.720,-0.075
15.725,-0.063
15.730,-0.057
15.735,-0.054
15.740,-0.049
15.745,-0.036
15.750,-0.017
15.755,-0.005
15.760,0.021
15.765,0.052
15.770,0.065
15.775,0.075
15.780,0.080
15.785,0.088
15.790,0.092
15.795,0.086
15.800,0.088
15.805,0.082
15.810,0.075
15.815,0.076
15.820,0.074
15.825,0.081
15.830,0.075
15.835,0.065
15.840,0.073
15.845,0.074
15.850,0.074
15.855,0.068
15.860,0.058
15.865,0.068
15.870,0.069
15.875,0.056
15.880,0.046
15.885,0.038
15.890,0.033
15.895,0.027
15.900,0.040
15.905,0.062
15.910,0.057
15.915,0.034
15.920,0.017
15.925,0.019
15.930,0.020
15.935,0.014
15.940,0.017
15.945,0.026
15.950,0.028
15.955,0.013
15.960,0.009
15.965,0.017
15.970,0.013
15.975,0.008
15.980,0.001
15.985,0.002
15.990,0.012
15.995,0.018
16.000,0.035
16.005,0.029
16.010,-0.003
16.015,-0.016
16.020,-0.013
16.025,-0.003
16.030,0.000
16.035,-0.003
16.040,0.003
16.045,0.002
16.050,-0.001
16.055,0.001
16.060,-0.002
16.065,-0.003
16.070,-0.006
16.075,-0.008
16.080,0.004
16.085,0.018
16.090,0.003
16.095,-0.027
16.100,-0.029
16.105,-0.023
16.110,-0.012
16.115,-0.011
16.120,-0.029
16.125,-0.030
16.130,-0.037
16.135,-0.042
16.140,-0.038
16.145,-0.053
16.150,-0.056
16.155,-0.053
16.160,-0.051
16.165,-0.040
16.170,-0.040
16.175,-0.035
16.180,-0.028
16.185,-0.014
16.190,0.000
16.195,0.009
16.200,0.019
16.205,0.017
16.210,0.029
16.215,0.026
16.220,-0.003
16.225,-0.003
16.230,0.005
16.235,0.010
16.240,0.005
16.245,-0.003
16.250,0.015
16.255,0.019
16.260,0.013
16.265,0.019
16.270,0.008
16.275,-0.033
16.280,-0.129
16.285,-0.274
16.290,-0.383
16.295,-0.367
16.300,-0.229
16.305,-0.040
16.310,0.122
16.315,0.200
16.320,0.202
16.325,0.158
16.330,0.096
16.335,0.069
16.340,0.065
16.345,0.037
16.350,0.013
16.355,0.019
16.360,0.029
16.365,0.036
16.370,0.025
16.375,0.019
16.380,0.026
16.385,0.013
16.390,-0.010
16.395,-0.019
16.400,0.000
16.405,0.020
16.410,0.019
16.415,0.008
16.420,0.007
16.425,0.008
16.430,-0.014
16.435,-0.025
16.440,-0.015
16.445,-0.005
16.450,0.002
16.455,-0.016
16.460,-0.028
16.465,-0.018
16.470,-0.025
16.475,-0.035
16.480,-0.043
16.485,-0.044
16.490,-0.036
16.495,-0.049
16.500,-0.062
16.505,-0.073
16.510,-0.081
16.515,-0.074
16.520,-0.074
16.525,-0.079
16.530,-0.085
16.535,-0.086
16.540,-0.090
16.545,-0.091
16.550,-0.073
16.555,-0.057
16.560,-0.046
16.565,-0.036
16.570,-0.020
16.575,0.008
16.580,0.017
16.585,0.028
16.590,0.043
16.595,0.045
16.600,0.066
16.605,0.081
16.610,0.091
16.615,0.107
16.620,0.100
16.625,0.095
16.630,0.092
16.635,0.078
16.640,0.072
16.645,0.073
16.650,0.089
16.655,0.089
16.660,0.072
16.665,0.067
16.670,0.054
16.675,0.045
16.680,0.040
16.685,0.049
16.690,0.067
16.695,0.062
16.700,0.050
16.705,0.035
16.710,0.026
16.715,0.031
16.720,0.030
16.725,0.032
16.730,0.035
16.735,0.030
16.740,0.023
16.745,0.023
16.750,0.021
16.755,0.018
16.760,0.014
16.765,0.004
16.770,0.009
16.775,0.025
16.780,0.028
16.785,0.028
16.790,0.007
16.795,-0.020
16.800,-0.007
16.805,0.006
16.810,0.012
16.815,0.013
16.820,0.000
16.825,-0.002
16.830,-0.007
16.835,-0.010
16.840,0.002
16.845,0.002
16.850,0.000
16.855,0.000
16.860,-0.007
16.865,-0.012
16.870,-0.007
16.875,-0.002
16.880,-0.008
16.885,-0.013
16.890,-0.019
16.895,-0.014
16.900,-0.003
16.905,-0.005
16.910,0.002
16.915,0.002
16.920,-0.017
16.925,-0.023
16.930,-0.022
16.935,-0.015
16.940,-0.005
16.945,-0.010
16.950,-0.014
16.955,-0.020
16.960,-0.031
16.965,-0.033
16.970,-0.040
16.975,-0.050
16.980,-0.051
16.985,-0.046
16.990,-0.038
16.995,-0.039
17.000,-0.041
17.005,-0.052
17.010,-0.054
17.015,-0.039
17.020,-0.039
17.025,-0.039
17.030,-0.023
17.035,0.007
17.040,0.020
17.045,0.003
17.050,0.001
17.055,0.014
17.060,0.026
17.065,0.027
17.070,0.017
17.075,0.018
17.080,0.012
17.085,0.005
17.090,0.005
17.095,0.002
17.100,0.012
17.105,0.026
17.110,0.031
17.115,0.016
17.120,-0.019
17.125,-0.094
17.130,-0.239
17.135,-0.379
17.140,-0.404
17.145,-0.294
17.150,-0.093
17.155,0.089
17.160,0.189
17.165,0.222
17.170,0.185
17.175,0.125
17.180,0.077
17.185,0.047
17.190,0.043
17.195,0.050
17.200,0.047
17.205,0.024
17.210,0.025
17.215,0.042
17.220,0.038
17.225,0.031
17.230,0.023
17.235,0.020
17.240,0.021
17.245,0.015
17.250,0.021
17.255,0.026
17.260,0.016
17.265,0.011
17.270,0.011
17.275,0.002
17.280,-0.008
17.285,0.006
17.290,0.005
17.295,-0.015
17.300,-0.015
17.305,-0.010
17.310,-0.001
17.315,-0.005
17.320,-0.028
17.325,-0.028
17.330,-0.035
17.335,-0.054
17.340,-0.054
17.345,-0.051
17.350,-0.048
17.355,-0.063
17.360,-0.071
17.365,-0.072
17.370,-0.092
17.375,-0.100
17.380,-0.097
17.385,-0.083
17.390,-0.066
17.395,-0.071
17.400,-0.067
17.405,-0.054
17.410,-0.045
17.415,-0.025
17.420,-0.005
17.425,0.013
17.430,0.025
17.435,0.037
17.440,0.056
17.445,0.066
17.450,0.078
17.455,0.091
17.460,0.102
17.465,0.105
17.470,0.083
17.475,0.061
17.480,0.051
17.485,0.050
17.490,0.034
17.495,-0.004
17.500,-0.013
17.505,-0.024
17.510,-0.058
17.515,-0.098
17.520,-0.166
17.525,-0.244
17.530,-0.344
17.535,-0.442
17.540,-0.499
17.545,-0.521
17.550,-0.490
17.555,-0.434
17.560,-0.349
17.565,-0.258
17.570,-0.194
17.575,-0.136
17.580,-0.097
17.585,-0.033
17.590,0.070
17.595,0.178
17.600,0.290
17.605,0.384
17.610,0.438
17.615,0.456
17.620,0.450
17.625,0.438
17.630,0.424
17.635,0.416
17.640,0.397
17.645,0.375
17.650,0.369
17.655,0.340
17.660,0.331
17.665,0.342
17.670,0.322
17.675,0.309
17.680,0.285
17.685,0.256
17.690,0.259
17.695,0.266
17.700,0.261
17.705,0.234
17.710,0.216
17.715,0.220
17.720,0.208
17.725,0.190
17.730,0.177
17.735,0.169
17.740,0.148
17.745,0.108
17.750,0.103
17.755,0.111
17.760,0.093
17.765,0.071
17.770,0.051
17.775,0.028
17.780,0.005
17.785,-0.016
17.790,-0.026
17.795,-0.047
17.800,-0.073
17.805,-0.102
17.810,-0.138
17.815,-0.168
17.820,-0.187
17.825,-0.185
17.830,-0.177
17.835,-0.184
17.840,-0.189
17.845,-0.189
17.850,-0.200
17.855,-0.204
17.860,-0.187
17.865,-0.167
17.870,-0.158
17.875,-0.148
17.880,-0.154
17.885,-0.155
17.890,-0.136
17.895,-0.139
17.900,-0.140
17.905,-0.147
17.910,-0.148
17.915,-0.125
17.920,-0.121
17.925,-0.118
17.930,-0.113
17.935,-0.097
17.940,-0.093
17.945,-0.112
17.950,-0.102
17.955,-0.101
17.960,-0.103
17.965,-0.082
17.970,-0.075
17.975,-0.066
17.980,-0.060
17.985,-0.061
17.990,-0.055
17.995,-0.062
18.000,-0.059
18.005,-0.051
18.010,-0.046
18.015,-0.042
18.020,-0.051
18.025,-0.050
18.030,-0.040
18.035,-0.028
18.040,-0.023
18.045,-0.036
18.050,-0.040
18.055,-0.036
18.060,-0.021
18.065,-0.013
18.070,-0.026
18.075,-0.023
18.080,-0.022
18.085,-0.012
18.090,0.006
18.095,-0.006
18.100,-0.010
18.105,-0.007
18.110,-0.003
18.115,0.003
18.120,-0.003
18.125,0.005
18.130,0.004
18.135,-0.001
18.140,0.005
18.145,-0.002
18.150,-0.001
18.155,-0.008
18.160,-0.011
18.165,0.015
18.170,0.019
18.175,0.003
18.180,0.001
18.185,0.011
18.190,0.014
18.195,0.002
18.200,-0.005
18.205,0.007
18.210,0.023
18.215,0.014
18.220,0.001
18.225,0.013
18.230,0.016
18.235,0.009
18.240,0.004
18.245,0.007
18.250,0.029
18.255,0.026
18.260,0.004
18.265,0.005
18.270,0.014
18.275,0.012
18.280,0.005
18.285,0.005
18.290,0.006
18.295,0.010
18.300,0.021
18.305,0.018
18.310,0.004
18.315,0.001
18.320,-0.002
18.325,0.016
18.330,0.033
18.335,0.024
18.340,0.020
18.345,0.016
18.350,0.012
18.355,0.009
18.360,0.014
18.365,0.019
18.370,0.008
18.375,0.012
18.380,0.013
18.385,0.012
18.390,0.014
18.395,-0.005
18.400,0.001
18.405,0.013
18.410,0.008
18.415,0.013
18.420,0.015
18.425,0.016
18.430,0.014
18.435,0.008
18.440,0.012
18.445,0.011
18.450,0.015
18.455,0.015
18.460,0.004
18.465,0.010
18.470,0.014
18.475,0.018
18.480,0.022
18.485,0.012
18.490,-0.004
18.495,-0.005
18.500,0.006
18.505,0.005
18.510,0.011
18.515,0.013
18.520,0.013
18.525,0.017
18.530,0.008
18.535,0.001
18.540,0.003
18.545,0.007
18.550,0.010
18.555,0.009
18.560,0.012
18.565,0.012
18.570,0.003
18.575,-0.008
18.580,-0.012
18.585,0.000
18.590,0.014
18.595,0.008
18.600,0.007
18.605,0.009
18.610,0.008
18.615,0.011
18.620,0.003
18.625,0.000
18.630,-0.008
18.635,-0.009
18.640,0.012
18.645,0.010
18.650,-0.003
18.655,-0.008
18.660,-0.006
18.665,0.015
18.670,0.010
18.675,-0.010
18.680,-0.013
18.685,-0.015
18.690,-0.026
18.695,-0.042
18.700,-0.027
18.705,-0.014
18.710,-0.033
18.715,-0.044
18.720,-0.040
18.725,-0.023
18.730,-0.024
18.735,-0.038
18.740,-0.032
18.745,-0.025
18.750,-0.013
18.755,0.005
18.760,0.030
18.765,0.043
18.770,0.025
18.775,0.020
18.780,0.030
18.785,0.030
18.790,0.024
18.795,0.030
18.800,0.039
18.805,0.030
18.810,0.016
18.815,0.017
18.820,0.031
18.825,0.045
18.830,0.046
18.835,0.030
18.840,-0.034
18.845,-0.184
18.850,-0.341
18.855,-0.381
18.860,-0.293
18.865,-0.118
18.870,0.077
18.875,0.217
18.880,0.263
18.885,0.209
18.890,0.127
18.895,0.085
18.900,0.075
18.905,0.064
18.910,0.046
18.915,0.045
18.920,0.057
18.925,0.053
18.930,0.037
18.935,0.030
18.940,0.030
18.945,0.028
18.950,0.028
18.955,0.020
18.960,0.008
18.965,0.011
18.970,0.010
18.975,0.016
18.980,0.020
18.985,0.017
18.990,0.022
18.995,0.017
19.000,0.003
19.005,-0.012
19.010,-0.017
19.015,-0.001
19.020,0.006
19.025,-0.005
19.030,-0.011
19.035,0.000
19.040,-0.012
19.045,-0.054
19.050,-0.060
19.055,-0.056
19.060,-0.050
19.065,-0.048
19.070,-0.070
19.075,-0.055
19.080,-0.037
19.085,-0.060
19.090,-0.079
19.095,-0.084
19.100,-0.071
19.105,-0.061
19.110,-0.068
19.115,-0.079
19.120,-0.079
19.125,-0.067
19.130,-0.055
19.135,-0.040
19.140,-0.039
19.145,-0.049
19.150,-0.032
19.155,-0.009
19.160,0.000
19.165,0.010
19.170,0.020
19.175,0.041
19.180,0.062
19.185,0.065
19.190,0.060
19.195,0.060
19.200,0.065
19.205,0.060
19.210,0.061
19.215,0.068
19.220,0.064
19.225,0.065
19.230,0.071
19.235,0.076
19.240,0.080
19.245,0.067
19.250,0.052
19.255,0.048
19.260,0.049
19.265,0.050
19.270,0.038
19.275,0.030
19.280,0.037
19.285,0.051
19.290,0.054
19.295,0.033
19.300,0.021
19.305,0.026
19.310,0.028
19.315,0.028
19.320,0.030
19.325,0.034
19.330,0.032
19.335,0.029
19.340,0.026
19.345,0.020
19.350,0.022
19.355,0.021
19.360,0.017
19.365,0.021
19.370,0.010
19.375,0.002
19.380,0.008
19.385,0.011
19.390,0.011
19.395,0.002
19.400,0.008
19.405,0.008
19.410,-0.003
19.415,0.004
19.420,0.005
19.425,0.008
19.430,0.009
19.435,0.004
19.440,0.005
19.445,-0.006
19.450,-0.006
19.455,-0.003
19.460,-0.009
19.465,-0.003
19.470,-0.008
19.475,-0.011
19.480,-0.011
19.485,-0.012
19.490,-0.001
19.495,-0.006
19.500,-0.016
19.505,-0.023
19.510,-0.032
19.515,-0.019
19.520,-0.011
19.525,-0.003
19.530,0.006
19.535,-0.007
19.540,-0.012
19.545,-0.015
19.550,-0.023
19.555,-0.040
19.560,-0.062
19.565,-0.050
19.570,-0.042
19.575,-0.049
19.580,-0.055
19.585,-0.060
19.590,-0.048
19.595,-0.042
19.600,-0.047
19.605,-0.058
19.610,-0.050
19.615,-0.025
19.620,-0.006
19.625,0.014
19.630,0.016
19.635,0.027
19.640,0.031
19.645,0.006
19.650,0.002
19.655,0.012
19.660,0.023
19.665,0.023
19.670,0.006
19.675,0.000
19.680,0.002
19.685,0.014
19.690,0.028
19.695,0.031
19.700,0.024
19.705,-0.005
19.710,-0.049
19.715,-0.154
19.720,-0.319
19.725,-0.408
19.730,-0.357
19.735,-0.205
19.740,-0.006
19.745,0.157
19.750,0.242
19.755,0.235
19.760,0.153
19.765,0.079
19.770,0.050
19.775,0.055
19.780,0.059
19.785,0.051
19.790,0.044
19.795,0.029
19.800,0.022
19.805,0.016
19.810,0.016
19.815,0.024
19.820,0.025
19.825,0.025
19.830,0.015
19.835,0.013
19.840,0.017
19.845,-0.001
19.850,0.003
19.855,0.019
19.860,0.012
19.865,-0.007
19.870,-0.017
19.875,0.000
19.880,0.013
19.885,0.005
19.890,-0.014
19.895,-0.027
19.900,-0.018
19.905,-0.013
19.910,-0.029
19.915,-0.043
19.920,-0.048
19.925,-0.058
19.930,-0.062
19.935,-0.065
19.940,-0.076
19.945,-0.081
19.950,-0.076
19.955,-0.075
19.960,-0.070
19.965,-0.068
19.970,-0.088
19.975,-0.097
19.980,-0.082
19.985,-0.070
19.990,-0.065
19.995,-0.062
20.000,-0.036
20.005,-0.009
20.010,0.000
20.015,0.015
20.020,0.026
20.025,0.046
20.030,0.062
20.035,0.071
20.040,0.094
20.045,0.100
20.050,0.089
20.055,0.077
20.060,0.075
20.065,0.090
20.070,0.095
20.075,0.088
20.080,0.072
20.085,0.074
20.090,0.086
20.095,0.074
20.100,0.066
20.105,0.051
20.110,0.045
20.115,0.058
20.120,0.052
20.125,0.053
20.130,0.051
20.135,0.036
20.140,0.034
20.145,0.027
20.150,0.038
20.155,0.047
20.160,0.029
20.165,0.024
20.170,0.028
20.175,0.035
20.180,0.023
20.185,0.005
20.190,0.014
20.195,0.016
20.200,0.012
20.205,0.006
20.210,0.008
20.215,0.019
20.220,0.008
20.225,0.001
20.230,0.004
20.235,0.006
20.240,0.009
20.245,-0.006
20.250,-0.004
20.255,0.010
20.260,0.003
20.265,0.000
20.270,-0.008
20.275,-0.006
20.280,0.006
20.285,0.007
20.290,0.010
20.295,0.005
20.300,-0.005
20.305,-0.020
20.310,-0.028
20.315,-0.022
20.320,-0.015
20.325,-0.014
20.330,-0.014
20.335,-0.013
20.340,-0.014
20.345,-0.006
20.350,0.003
20.355,-0.008
20.360,-0.018
20.365,-0.011
20.370,-0.008
20.375,-0.008
20.380,-0.021
20.385,-0.033
20.390,-0.018
20.395,-0.010
20.400,-0.016
20.405,-0.034
20.410,-0.046
20.415,-0.029
20.420,-0.023
20.425,-0.043
20.430,-0.069
20.435,-0.071
20.440,-0.056
20.445,-0.051
20.450,-0.045
20.455,-0.034
20.460,-0.042
20.465,-0.053
20.470,-0.049
20.475,-0.030
20.480,-0.019
20.485,-0.016
20.490,0.003
20.495,0.017
20.500,0.021
20.505,0.016
20.510,0.006
20.515,0.022
20.520,0.031
20.525,0.016
20.530,0.009
20.535,0.010
20.540,0.002
20.545,0.000
20.550,0.006
20.555,0.009
20.560,0.031
20.565,0.051
20.570,0.019
20.575,-0.039
20.580,-0.163
20.585,-0.338
20.590,-0.414
20.595,-0.348
20.600,-0.183
20.605,0.018
20.610,0.182
20.615,0.257
20.620,0.221
20.625,0.140
20.630,0.079
20.635,0.071
20.640,0.072
20.645,0.043
20.650,0.036
20.655,0.044
20.660,0.042
20.665,0.030
20.670,0.019
20.675,0.022
20.680,0.023
20.685,0.032
20.690,0.029
20.695,0.015
20.700,0.022
20.705,0.010
20.710,-0.007
20.715,0.004
20.720,0.012
20.725,0.005
20.730,-0.003
20.735,0.005
20.740,0.013
20.745,0.005
20.750,-0.002
20.755,-0.011
20.760,-0.020
20.765,-0.022
20.770,-0.031
20.775,-0.035
20.780,-0.039
20.785,-0.045
20.790,-0.043
20.795,-0.051
20.800,-0.064
20.805,-0.077
20.810,-0.080
20.815,-0.083
20.820,-0.085
20.825,-0.076
20.830,-0.085
20.835,-0.091
20.840,-0.082
20.845,-0.086
20.850,-0.078
20.855,-0.066
20.860,-0.054
20.865,-0.029
20.870,-0.015
20.875,-0.007
20.880,0.017
20.885,0.040
20.890,0.047
20.895,0.053
20.900,0.073
20.905,0.080
20.910,0.079
20.915,0.089
20.920,0.092
20.925,0.098
20.930,0.094
20.935,0.077
20.940,0.080
20.945,0.089
20.950,0.095
20.955,0.088
20.960,0.070
20.965,0.062
20.970,0.064
20.975,0.070
20.980,0.055
20.985,0.040
20.990,0.053
20.995,0.044
21.000,0.043
21.005,0.058
21.010,0.052
21.015,0.045
21.020,0.027
21.025,0.011
21.030,0.021
21.035,0.032
21.040,0.027
21.045,0.026
21.050,0.028
21.055,0.016
21.060,0.013
21.065,0.012
21.070,0.010
21.075,0.029
21.080,0.024
21.085,0.002
21.090,0.001
21.095,-0.005
21.100,0.008
21.105,0.020
21.110,0.003
21.115,0.002
21.120,-0.001
21.125,-0.006
21.130,-0.004
21.135,-0.007
21.140,0.000
21.145,0.013
21.150,0.015
21.155,0.003
21.160,-0.001
21.165,0.003
21.170,-0.004
21.175,-0.012
21.180,-0.016
21.185,-0.012
21.190,-0.012
21.195,-0.021
21.200,-0.016
21.205,-0.012
21.210,-0.008
21.215,0.003
21.220,0.000
21.225,-0.004
21.230,-0.007
21.235,-0.022
21.240,-0.032
21.245,-0.028
21.250,-0.012
21.255,-0.005
21.260,0.000
21.265,-0.002
21.270,-0.027
21.275,-0.042
21.280,-0.045
21.285,-0.046
21.290,-0.048
21.295,-0.068
21.300,-0.063
21.305,-0.042
21.310,-0.045
21.315,-0.044
21.320,-0.040
21.325,-0.044
21.330,-0.048
21.335,-0.051
21.340,-0.047
21.345,-0.027
21.350,0.012
21.355,0.026
21.360,0.013
21.365,0.009
21.370,0.016
21.375,0.031
21.380,0.025
21.385,0.002
21.390,0.005
21.395,0.006
21.400,0.008
21.405,0.015
21.410,0.015
21.415,0.017
21.420,0.021
21.425,0.039
21.430,0.035
21.435,-0.019
21.440,-0.107
21.445,-0.250
21.450,-0.381
21.455,-0.398
21.460,-0.290
21.465,-0.079
21.470,0.127
21.475,0.235
21.480,0.254
21.485,0.197
21.490,0.118
21.495,0.062
21.500,0.041
21.505,0.038
21.510,0.029
21.515,0.033
21.520,0.034
21.525,0.037
21.530,0.041
21.535,0.027
21.540,0.003
21.545,-0.005
21.550,0.011
21.555,0.015
21.560,0.016
21.565,0.023
21.570,0.013
21.575,0.018
21.580,0.013
21.585,-0.004
21.590,-0.002
21.595,-0.002
21.600,-0.002
21.605,-0.013
21.610,-0.026
21.615,-0.020
21.620,-0.034
21.625,-0.042
21.630,-0.025
21.635,-0.018
21.640,-0.024
21.645,-0.049
21.650,-0.057
21.655,-0.051
21.660,-0.066
21.665,-0.078
21.670,-0.082
21.675,-0.083
21.680,-0.092
21.685,-0.093
21.690,-0.078
21.695,-0.082
21.700,-0.096
21.705,-0.112
21.710,-0.110
21.715,-0.080
21.720,-0.064
21.725,-0.042
21.730,-0.010
21.735,0.005
21.740,0.017
21.745,0.027
21.750,0.043
21.755,0.063
21.760,0.075
21.765,0.079
21.770,0.074
21.775,0.078
21.780,0.088
21.785,0.090
21.790,0.081
21.795,0.069
21.800,0.084
21.805,0.101
21.810,0.094
21.815,0.087
21.820,0.083
21.825,0.072
21.830,0.055
21.835,0.049
21.840,0.054
21.845,0.056
21.850,0.062
21.855,0.063
21.860,0.059
21.865,0.050
21.870,0.032
21.875,0.035
21.880,0.032
21.885,0.025
21.890,0.040
21.895,0.032
21.900,0.024
21.905,0.023
21.910,0.025
21.915,0.044
21.920,0.026
21.925,0.003
21.930,0.010
21.935,0.022
21.940,0.027
21.945,0.022
21.950,0.021
21.955,0.010
21.960,0.000
21.965,0.008
21.970,-0.001
21.975,-0.006
21.980,0.004
21.985,0.012
21.990,0.021
21.995,0.009
22.000,-0.001
22.005,0.004
22.010,0.007
22.015,0.007
22.020,0.000
22.025,-0.014
22.030,-0.020
22.035,-0.005
22.040,0.010
22.045,0.002
22.050,-0.008
22.055,-0.017
22.060,-0.016
22.065,0.005
22.070,0.010
22.075,-0.002
22.080,-0.012
22.085,-0.011
22.090,-0.007
22.095,-0.007
22.100,-0.012
22.105,-0.015
22.110,-0.007
22.115,-0.012
22.120,-0.027
22.125,-0.019
22.130,-0.012
22.135,-0.009
22.140,-0.011
22.145,-0.033
22.150,-0.045
22.155,-0.032
22.160,-0.036
22.165,-0.047
22.170,-0.052
22.175,-0.054
22.180,-0.057
22.185,-0.063
22.190,-0.061
22.195,-0.058
22.200,-0.040
22.205,-0.028
22.210,-0.025
22.215,-0.003
22.220,0.010
22.225,0.017
22.230,0.018
22.235,0.021
22.240,0.028
22.245,0.018
22.250,0.015
22.255,0.014
22.260,0.016
22.265,0.029
22.270,0.018
22.275,0.010
22.280,0.011
22.285,0.001
22.290,0.016
22.295,0.036
22.300,0.021
22.305,-0.047
22.310,-0.177
22.315,-0.329
22.320,-0.406
22.325,-0.350
22.330,-0.195
22.335,0.018
22.340,0.204
22.345,0.271
22.350,0.248
22.355,0.169
22.360,0.086
22.365,0.055
22.370,0.042
22.375,0.042
22.380,0.054
22.385,0.051
22.390,0.037
22.395,0.018
22.400,0.018
22.405,0.027
22.410,0.020
22.415,0.007
22.420,-0.009
22.425,-0.002
22.430,0.013
22.435,0.013
22.440,0.012
22.445,0.015
22.450,0.019
22.455,0.003
22.460,-0.009
22.465,0.004
22.470,0.000
22.475,-0.012
22.480,-0.016
22.485,-0.014
22.490,-0.009
22.495,-0.024
22.500,-0.029
22.505,-0.029
22.510,-0.043
22.515,-0.057
22.520,-0.066
22.525,-0.061
22.530,-0.059
22.535,-0.073
22.540,-0.092
22.545,-0.102
22.550,-0.096
22.555,-0.086
22.560,-0.080
22.565,-0.081
22.570,-0.088
22.575,-0.093
22.580,-0.089
22.585,-0.076
22.590,-0.066
22.595,-0.049
22.600,-0.022
22.605,-0.003
22.610,0.017
22.615,0.040
22.620,0.059
22.625,0.076
22.630,0.074
22.635,0.067
22.640,0.081
22.645,0.087
22.650,0.095
22.655,0.093
22.660,0.089
22.665,0.103
22.670,0.085
22.675,0.072
22.680,0.075
22.685,0.064
22.690,0.064
22.695,0.064
22.700,0.067
22.705,0.075
22.710,0.067
22.715,0.062
22.720,0.055
22.725,0.047
22.730,0.044
22.735,0.038
22.740,0.034
22.745,0.031
22.750,0.043
22.755,0.043
22.760,0.014
22.765,0.003
22.770,0.014
22.775,0.023
22.780,0.013
22.785,0.008
22.790,0.019
22.795,0.024
22.800,0.024
22.805,0.012
22.810,0.007
22.815,0.017
22.820,0.003
22.825,0.000
22.830,0.010
22.835,0.004
22.840,0.014
22.845,0.019
22.850,0.010
22.855,-0.003
22.860,-0.017
22.865,-0.002
22.870,0.004
22.875,-0.002
22.880,0.000
22.885,-0.008
22.890,-0.008
22.895,-0.010
22.900,-0.011
22.905,-0.004
22.910,-0.007
22.915,-0.011
22.920,-0.016
22.925,-0.012
22.930,-0.002
22.935,-0.002
22.940,-0.009
22.945,-0.020
22.950,-0.007
22.955,0.003
22.960,-0.007
22.965,-0.008
22.970,-0.011
22.975,-0.007
22.980,-0.011
22.985,-0.022
22.990,-0.022
22.995,-0.026
23.000,-0.016
23.005,-0.005
23.010,-0.018
23.015,-0.031
23.020,-0.038
23.025,-0.031
23.030,-0.038
23.035,-0.059
23.040,-0.059
23.045,-0.057
23.050,-0.055
23.055,-0.044
23.060,-0.037
23.065,-0.036
23.070,-0.051
23.075,-0.060
23.080,-0.048
23.085,-0.031
23.090,-0.016
23.095,-0.002
23.100,0.015
23.105,0.029
23.110,0.033
23.115,0.034
23.120,0.030
23.125,0.023
23.130,0.018
23.135,0.011
23.140,0.004
23.145,-0.003
23.150,0.005
23.155,0.015
23.160,0.027
23.165,0.048
23.170,0.041
23.175,0.015
23.180,-0.033
23.185,-0.143
23.190,-0.303
23.195,-0.425
23.200,-0.380
23.205,-0.211
23.210,-0.005
23.215,0.177
23.220,0.260
23.225,0.245
23.230,0.169
23.235,0.095
23.240,0.063
23.245,0.049
23.250,0.040
23.255,0.038
23.260,0.037
23.265,0.035
23.270,0.030
23.275,0.030
23.280,0.023
23.285,0.010
23.290,0.021
23.295,0.026
23.300,0.012
23.305,0.006
23.310,0.000
23.315,0.004
23.320,0.005
23.325,-0.007
23.330,-0.009
23.335,0.001
23.340,0.007
23.345,0.002
23.350,-0.001
23.355,-0.008
23.360,-0.017
23.365,-0.016
23.370,-0.026
23.375,-0.027
23.380,-0.021
23.385,-0.026
23.390,-0.039
23.395,-0.064
23.400,-0.069
23.405,-0.070
23.410,-0.078
23.415,-0.082
23.420,-0.091
23.425,-0.089
23.430,-0.095
23.435,-0.108
23.440,-0.096
23.445,-0.081
23.450,-0.069
23.455,-0.071
23.460,-0.073
23.465,-0.058
23.470,-0.044
23.475,-0.017
23.480,0.001
23.485,0.006
23.490,0.024
23.495,0.035
23.500,0.058
23.505,0.082
23.510,0.088
23.515,0.105
23.520,0.102
23.525,0.087
23.530,0.086
23.535,0.089
23.540,0.101
23.545,0.096
23.550,0.086
23.555,0.084
23.560,0.078
23.565,0.080
23.570,0.074
23.575,0.066
23.580,0.052
23.585,0.045
23.590,0.059
23.595,0.057
23.600,0.048
23.605,0.042
23.610,0.045
23.615,0.063
23.620,0.048
23.625,0.033
23.630,0.036
23.635,0.027
23.640,0.032
23.645,0.031
23.650,0.027
23.655,0.028
23.660,0.011
23.665,0.011
23.670,0.019
23.675,0.017
23.680,0.015
23.685,0.007
23.690,0.005
23.695,0.012
23.700,0.016
23.705,0.012
23.710,0.005
23.715,0.011
23.720,0.016
23.725,0.011
23.730,-0.002
23.735,-0.005
23.740,0.005
23.745,-0.002
23.750,-0.002
23.755,0.003
23.760,-0.005
23.765,0.002
23.770,0.005
23.775,-0.008
23.780,-0.016
23.785,-0.023
23.790,-0.018
23.795,0.000
23.800,0.014
23.805,0.009
23.810,-0.004
23.815,-0.005
23.820,-0.015
23.825,-0.010
23.830,0.000
23.835,-0.018
23.840,-0.016
23.845,-0.003
23.850,-0.010
23.855,-0.021
23.860,-0.026
23.865,-0.023
23.870,-0.012
23.875,-0.004
23.880,-0.014
23.885,-0.020
23.890,-0.010
23.895,-0.021
23.900,-0.025
23.905,-0.027
23.910,-0.049
23.915,-0.051
23.920,-0.059
23.925,-0.062
23.930,-0.044
23.935,-0.041
23.940,-0.049
23.945,-0.064
23.950,-0.066
23.955,-0.056
23.960,-0.052
23.965,-0.037
23.970,-0.026
23.975,-0.017
23.980,0.003
23.985,0.015
23.990,0.028
23.995,0.034
24.000,0.026
24.005,0.017
24.010,0.016
24.015,0.021
24.020,0.017
24.025,0.013
24.030,0.018
24.035,0.023
24.040,0.018
24.045,0.009
24.050,0.031
24.055,0.048
24.060,0.016
24.065,-0.046
24.070,-0.163
24.075,-0.322
24.080,-0.420
24.085,-0.380
24.090,-0.203
24.095,0.024
24.100,0.192
24.105,0.256
24.110,0.228
24.115,0.166
24.120,0.117
24.125,0.086
24.130,0.055
24.135,0.029
24.140,0.039
24.145,0.046
24.150,0.037
24.155,0.026
24.160,0.011
24.165,0.017
24.170,0.011
24.175,0.005
24.180,0.018
24.185,0.013
24.190,0.007
24.195,0.007
24.200,0.009
24.205,0.007
24.210,-0.002
24.215,0.005
24.220,0.008
24.225,0.007
24.230,-0.001
24.235,-0.011
24.240,0.002
24.245,-0.008
24.250,-0.024
24.255,-0.027
24.260,-0.041
24.265,-0.047
24.270,-0.057
24.275,-0.063
24.280,-0.060
24.285,-0.063
24.290,-0.062
24.295,-0.065
24.300,-0.074
24.305,-0.086
24.310,-0.089
24.315,-0.088
24.320,-0.105
24.325,-0.114
24.330,-0.097
24.335,-0.080
24.340,-0.073
24.345,-0.078
24.350,-0.055
24.355,-0.035
24.360,-0.034
24.365,0.000
24.370,0.026
24.375,0.044
24.380,0.049
24.385,0.046
24.390,0.074
24.395,0.089
24.400,0.086
24.405,0.097
24.410,0.102
24.415,0.100
24.420,0.086
24.425,0.083
24.430,0.098
24.435,0.084
24.440,0.082
24.445,0.087
24.450,0.079
24.455,0.081
24.460,0.065
24.465,0.059
24.470,0.062
24.475,0.053
24.480,0.046
24.485,0.043
24.490,0.042
24.495,0.034
24.500,0.036
24.505,0.034
24.510,0.037
24.515,0.055
24.520,0.042
24.525,0.023
24.530,0.027
24.535,0.024
24.540,0.025
24.545,0.025
24.550,0.014
24.555,0.010
24.560,0.008
24.565,0.011
24.570,0.024
24.575,0.027
24.580,0.007
24.585,-0.004
24.590,0.007
24.595,0.004
24.600,0.006
24.605,0.011
24.610,-0.004
24.615,0.005
24.620,0.016
24.625,0.004
24.630,-0.005
24.635,-0.006
24.640,-0.013
24.645,-0.014
24.650,0.000
24.655,-0.009
24.660,-0.017
24.665,-0.003
24.670,-0.001
24.675,0.008
24.680,-0.001
24.685,-0.022
24.690,-0.012
24.695,-0.013
24.700,-0.016
24.705,-0.022
24.710,-0.023
24.715,0.005
24.720,0.006
24.725,-0.008
24.730,-0.017
24.735,-0.025
24.740,-0.014
24.745,-0.014
24.750,-0.018
24.755,-0.015
24.760,-0.016
24.765,-0.007
24.770,-0.005
24.775,-0.009
24.780,-0.015
24.785,-0.018
24.790,-0.006
24.795,-0.018
24.800,-0.034
24.805,-0.042
24.810,-0.053
24.815,-0.056
24.820,-0.070
24.825,-0.064
24.830,-0.048
24.835,-0.058
24.840,-0.062
24.845,-0.059
24.850,-0.053
24.855,-0.042
24.860,-0.034
24.865,-0.020
24.870,0.001
24.875,0.023
24.880,0.029
24.885,0.025
24.890,0.021
24.895,0.010
24.900,0.009
24.905,0.009
24.910,0.008
24.915,0.024
24.920,0.024
24.925,0.015
24.930,0.014
24.935,0.016
24.940,0.026
24.945,0.039
24.950,0.050
24.955,0.025
24.960,-0.049
24.965,-0.170
24.970,-0.341
24.975,-0.429
24.980,-0.353
24.985,-0.180
24.990,0.035
24.995,0.200
25.000,0.221
25.005,0.118
25.010,0.007
25.015,-0.050
25.020,-0.071
25.025,-0.075
25.030,-0.086
25.035,-0.077
25.040,-0.054
25.045,-0.063
25.050,-0.056
25.055,-0.038
25.060,-0.048
25.065,-0.055
25.070,-0.043
25.075,-0.028
25.080,-0.022
25.085,-0.020
25.090,-0.017
25.095,-0.029
25.100,-0.026
25.105,-0.004
25.110,-0.014
25.115,-0.025
25.120,-0.018
25.125,-0.006
25.130,0.001
25.135,-0.002
25.140,-0.006
25.145,-0.011
25.150,-0.004
25.155,0.004
25.160,-0.006
25.165,-0.018
25.170,-0.031
25.175,-0.040
25.180,-0.038
25.185,-0.050
25.190,-0.056
25.195,-0.046
25.200,-0.047
25.205,-0.060
25.210,-0.061
25.215,-0.058
25.220,-0.061
25.225,-0.057
25.230,-0.048
25.235,-0.044
25.240,-0.033
25.245,-0.020
25.250,0.000
25.255,0.029
25.260,0.046
25.265,0.067
25.270,0.077
25.275,0.080
25.280,0.109
25.285,0.132
25.290,0.134
25.295,0.128
25.300,0.132
25.305,0.145
25.310,0.150
25.315,0.153
25.320,0.146
25.325,0.128
25.330,0.117
25.335,0.127
25.340,0.137
25.345,0.115
25.350,0.102
25.355,0.105
25.360,0.100
25.365,0.102
25.370,0.087
25.375,0.077
25.380,0.092
25.385,0.085
25.390,0.076
25.395,0.076
25.400,0.071
25.405,0.066
25.410,0.061
25.415,0.062
25.420,0.056
25.425,0.055
25.430,0.059
25.435,0.057
25.440,0.062
25.445,0.046
25.450,0.030
25.455,0.035
25.460,0.040
25.465,0.038
25.470,0.026
25.475,0.031
25.480,0.039
25.485,0.029
25.490,0.017
25.495,0.001
25.500,0.005
25.505,0.014
25.510,0.008
25.515,0.023
25.520,0.027
25.525,0.009
25.530,0.011
25.535,0.008
25.540,-0.001
25.545,0.001
25.550,0.003
25.555,0.012
25.560,0.014
25.565,0.003
25.570,-0.007
25.575,-0.002
25.580,-0.001
25.585,-0.009
25.590,-0.013
25.595,-0.014
25.600,-0.003
25.605,-0.005
25.610,-0.015
25.615,-0.010
25.620,-0.002
25.625,-0.006
25.630,-0.021
25.635,-0.018
25.640,0.000
25.645,-0.013
25.650,-0.026
25.655,-0.022
25.660,-0.019
25.665,-0.012
25.670,-0.020
25.675,-0.032
25.680,-0.029
25.685,-0.023
25.690,-0.024
25.695,-0.039
25.700,-0.045
25.705,-0.046
25.710,-0.052
25.715,-0.055
25.720,-0.075
25.725,-0.073
25.730,-0.054
25.735,-0.059
25.740,-0.060
25.745,-0.065
25.750,-0.064
25.755,-0.049
25.760,-0.044
25.765,-0.026
25.770,-0.007
25.775,0.014
25.780,0.030
25.785,0.018
25.790,0.005
25.795,-0.003
25.800,0.007
25.805,0.023
25.810,0.018
25.815,0.012
25.820,-0.005
25.825,-0.007
25.830,0.009
25.835,0.011
25.840,0.024
25.845,0.035
25.850,0.035
25.855,0.010
25.860,-0.084
25.865,-0.243
25.870,-0.401
25.875,-0.431
25.880,-0.312
25.885,-0.114
25.890,0.104
25.895,0.229
25.900,0.254
25.905,0.219
25.910,0.131
25.915,0.069
25.920,0.044
25.925,0.029
25.930,0.037
25.935,0.049
25.940,0.036
25.945,0.008
25.950,0.003
25.955,0.003
25.960,0.003
25.965,0.018
25.970,0.008
25.975,-0.003
25.980,0.003
25.985,0.006
25.990,0.012
25.995,0.015
26.000,0.013
26.005,0.000
26.010,-0.021
26.015,-0.021
26.020,-0.010
26.025,0.004
26.030,0.001
26.035,-0.024
26.040,-0.026
26.045,-0.027
26.050,-0.040
26.055,-0.041
26.060,-0.042
26.065,-0.042
26.070,-0.048
26.075,-0.065
26.080,-0.070
26.085,-0.072
26.090,-0.088
26.095,-0.095
26.100,-0.084
26.105,-0.090
26.110,-0.101
26.115,-0.097
26.120,-0.102
26.125,-0.105
26.130,-0.095
26.135,-0.085
26.140,-0.064
26.145,-0.044
26.150,-0.021
26.155,-0.002
26.160,-0.002
26.165,0.013
26.170,0.034
26.175,0.051
26.180,0.063
26.185,0.072
26.190,0.086
26.195,0.081
26.200,0.088
26.205,0.114
26.210,0.113
26.215,0.107
26.220,0.100
26.225,0.090
26.230,0.092
26.235,0.081
26.240,0.081
26.245,0.089
26.250,0.076
26.255,0.055
26.260,0.048
26.265,0.055
26.270,0.052
26.275,0.058
26.280,0.056
26.285,0.044
26.290,0.054
26.295,0.044
26.300,0.026
26.305,0.031
26.310,0.032
26.315,0.037
26.320,0.027
26.325,0.009
26.330,0.016
26.335,0.018
26.340,0.016
26.345,0.026
26.350,0.031
26.355,0.025
26.360,0.018
26.365,0.018
26.370,0.003
26.375,-0.018
26.380,-0.012
26.385,0.004
26.390,0.015
26.395,0.009
26.400,0.002
26.405,0.001
26.410,-0.015
26.415,-0.013
26.420,0.007
26.425,0.003
26.430,-0.011
26.435,-0.007
26.440,0.006
26.445,0.009
26.450,0.004
26.455,-0.007
26.460,-0.011
26.465,-0.005
26.470,-0.019
26.475,-0.025
26.480,-0.016
26.485,-0.020
26.490,-0.015
26.495,-0.014
26.500,-0.020
26.505,-0.036
26.510,-0.074
26.515,-0.092
26.520,-0.103
26.525,-0.127
26.530,-0.169
26.535,-0.217
26.540,-0.244
26.545,-0.285
26.550,-0.343
26.555,-0.417
26.560,-0.525
26.565,-0.636
26.570,-0.741
26.575,-0.833
26.580,-0.926
26.585,-0.976
26.590,-0.858
26.595,-0.584
26.600,-0.250
26.605,0.101
26.610,0.381
26.615,0.505
26.620,0.505
26.625,0.472
26.630,0.467
26.635,0.482
26.640,0.472
26.645,0.447
26.650,0.448
26.655,0.439
26.660,0.415
26.665,0.422
26.670,0.421
26.675,0.416
26.680,0.423
26.685,0.407
26.690,0.387
26.695,0.359
26.700,0.343
26.705,0.356
26.710,0.350
26.715,0.332
26.720,0.309
26.725,0.295
26.730,0.306
26.735,0.300
26.740,0.289
26.745,0.293
26.750,0.300
26.755,0.288
26.760,0.271
26.765,0.290
26.770,0.292
26.775,0.270
26.780,0.259
26.785,0.255
26.790,0.252
26.795,0.227
26.800,0.208
26.805,0.204
26.810,0.174
26.815,0.136
26.820,0.106
26.825,0.073
26.830,0.033
26.835,-0.014
26.840,-0.048
26.845,-0.081
26.850,-0.119
26.855,-0.159
26.860,-0.203
26.865,-0.236
26.870,-0.255
26.875,-0.266
26.880,-0.277
26.885,-0.299
26.890,-0.312
26.895,-0.305
26.900,-0.294
26.905,-0.294
26.910,-0.300
26.915,-0.290
26.920,-0.278
26.925,-0.279
26.930,-0.286
26.935,-0.283
26.940,-0.255
26.945,-0.226
26.950,-0.212
26.955,-0.204
26.960,-0.197
26.965,-0.192
26.970,-0.196
26.975,-0.192
26.980,-0.183
26.985,-0.176
26.990,-0.170
26.995,-0.154
27.000,-0.138
27.005,-0.145
27.010,-0.154
27.015,-0.134
27.020,-0.116
27.025,-0.112
27.030,-0.110
27.035,-0.117
27.040,-0.104
27.045,-0.084
27.050,-0.080
27.055,-0.073
27.060,-0.072
27.065,-0.063
27.070,-0.056
27.075,-0.066
27.080,-0.070
27.085,-0.053
27.090,-0.031
27.095,-0.032
27.100,-0.034
27.105,-0.040
27.110,-0.047
27.115,-0.026
27.120,-0.011
27.125,-0.009
27.130,-0.004
27.135,-0.014
27.140,-0.007
27.145,-0.002
27.150,-0.013
27.155,-0.008
27.160,-0.006
27.165,0.002
27.170,0.010
27.175,0.005
27.180,0.013
27.185,0.021
27.190,0.018
27.195,0.015
27.200,0.015
27.205,0.012
27.210,0.014
27.215,0.023
27.220,0.027
27.225,0.031
27.230,0.030
27.235,0.023
27.240,0.022
27.245,0.023
27.250,0.027
27.255,0.030
27.260,0.030
27.265,0.035
27.270,0.036
27.275,0.040
27.280,0.030
27.285,0.022
27.290,0.036
27.295,0.036
27.300,0.038
27.305,0.041
27.310,0.027
27.315,0.032
27.320,0.035
27.325,0.033
27.330,0.034
27.335,0.025
27.340,0.029
27.345,0.032
27.350,0.031
27.355,0.034
27.360,0.026
27.365,0.036
27.370,0.041
27.375,0.030
27.380,0.032
27.385,0.029
27.390,0.034
27.395,0.037
27.400,0.029
27.405,0.025
27.410,0.026
27.415,0.039
27.420,0.038
27.425,0.031
27.430,0.033
27.435,0.022
27.440,0.015
27.445,0.016
27.450,0.022
27.455,0.031
27.460,0.030
27.465,0.027
27.470,0.021
27.475,0.021
27.480,0.036
27.485,0.037
27.490,0.027
27.495,0.017
27.500,0.020
27.505,0.018
27.510,0.008
27.515,0.014
27.520,0.016
27.525,0.000
27.530,-0.016
27.535,-0.020
27.540,-0.013
27.545,-0.020
27.550,-0.030
27.555,-0.030
27.560,-0.028
27.565,-0.010
27.570,-0.005
27.575,-0.023
27.580,-0.030
27.585,-0.021
27.590,0.006
27.595,0.031
27.600,0.042
27.605,0.046
27.610,0.047
27.615,0.051
27.620,0.037
27.625,0.032
27.630,0.040
27.635,0.034
27.640,0.043
27.645,0.045
27.650,0.020
27.655,0.019
27.660,0.034
27.665,0.051
27.670,0.069
27.675,0.056
27.680,0.006
27.685,-0.105
27.690,-0.281
27.695,-0.401
27.700,-0.367
27.705,-0.224
27.710,-0.016
27.715,0.178
27.720,0.266
27.725,0.273
27.730,0.206
27.735,0.118
27.740,0.076
27.745,0.055
27.750,0.053
27.755,0.066
27.760,0.054
27.765,0.031
27.770,0.028
27.775,0.036
27.780,0.036
27.785,0.023
27.790,0.017
27.795,0.019
27.800,0.034
27.805,0.042
27.810,0.019
27.815,0.007
27.820,0.002
27.825,-0.004
27.830,0.002
27.835,0.003
27.840,0.008
27.845,0.014
27.850,0.003
27.855,-0.011
27.860,-0.021
27.865,-0.026
27.870,-0.026
27.875,-0.022
27.880,-0.028
27.885,-0.031
27.890,-0.033
27.895,-0.049
27.900,-0.059
27.905,-0.072
27.910,-0.079
27.915,-0.064
27.920,-0.076
27.925,-0.094
27.930,-0.098
27.935,-0.110
27.940,-0.101
27.945,-0.090
27.950,-0.081
27.955,-0.064
27.960,-0.071
27.965,-0.071
27.970,-0.062
27.975,-0.059
27.980,-0.031
27.985,-0.004
27.990,0.011
27.995,0.016
28.000,0.026
28.005,0.046
28.010,0.058
28.015,0.082
28.020,0.088
28.025,0.078
28.030,0.078
28.035,0.064
28.040,0.076
28.045,0.096
28.050,0.089
28.055,0.089
28.060,0.090
28.065,0.082
28.070,0.068
28.075,0.050
28.080,0.060
28.085,0.072
28.090,0.070
28.095,0.051
28.100,0.035
28.105,0.052
28.110,0.060
28.115,0.051
28.120,0.032
28.125,0.016
28.130,0.031
28.135,0.046
28.140,0.039
28.145,0.028
28.150,0.024
28.155,0.020
28.160,0.007
28.165,0.010
28.170,0.018
28.175,0.018
28.180,0.005
28.185,-0.006
28.190,0.019
28.195,0.026
28.200,0.013
28.205,0.007
28.210,0.000
28.215,0.009
28.220,0.006
28.225,-0.007
28.230,0.000
28.235,0.005
28.240,0.004
28.245,-0.009
28.250,-0.023
28.255,-0.014
28.260,0.002
28.265,0.012
28.270,0.008
28.275,-0.005
28.280,-0.004
28.285,0.002
28.290,0.002
28.295,-0.007
28.300,0.000
28.305,0.010
28.310,-0.001
28.315,-0.016
28.320,-0.029
28.325,-0.019
28.330,0.001
28.335,-0.007
28.340,-0.010
28.345,-0.006
28.350,-0.010
28.355,-0.012
28.360,-0.019
28.365,-0.016
28.370,-0.017
28.375,-0.015
28.380,-0.005
28.385,-0.011
28.390,-0.012
28.395,-0.029
28.400,-0.038
28.405,-0.025
28.410,-0.031
28.415,-0.035
28.420,-0.058
28.425,-0.076
28.430,-0.059
28.435,-0.052
28.440,-0.052
28.445,-0.061
28.450,-0.063
28.455,-0.051
28.460,-0.046
28.465,-0.044
28.470,-0.042
28.475,-0.022
28.480,0.008
28.485,0.024
28.490,0.019
28.495,0.001
28.500,0.006
28.505,0.021
28.510,0.018
28.515,0.009
28.520,0.000
28.525,0.017
28.530,0.032
28.535,0.017
28.540,0.011
28.545,0.014
28.550,0.033
28.555,0.062
28.560,0.056
28.565,0.003
28.570,-0.104
28.575,-0.269
28.580,-0.402
28.585,-0.390
28.590,-0.255
28.595,-0.052
28.600,0.153
28.605,0.253
28.610,0.261
28.615,0.210
28.620,0.116
28.625,0.058
28.630,0.044
28.635,0.025
28.640,0.018
28.645,0.027
28.650,0.027
28.655,0.017
28.660,0.002
28.665,-0.002
28.670,0.005
28.675,0.011
28.680,0.014
28.685,0.014
28.690,0.017
28.695,0.010
28.700,-0.008
28.705,-0.022
28.710,-0.027
28.715,-0.007
28.720,0.004
28.725,-0.009
28.730,-0.018
28.735,-0.023
28.740,-0.019
28.745,-0.011
28.750,-0.018
28.755,-0.027
28.760,-0.034
28.765,-0.045
28.770,-0.058
28.775,-0.061
28.780,-0.057
28.785,-0.062
28.790,-0.067
28.795,-0.074
28.800,-0.071
28.805,-0.080
28.810,-0.112
28.815,-0.113
28.820,-0.101
28.825,-0.093
28.830,-0.093
28.835,-0.108
28.840,-0.098
28.845,-0.080
28.850,-0.074
28.855,-0.057
28.860,-0.024
28.865,0.009
28.870,0.026
28.875,0.035
28.880,0.045
28.885,0.060
28.890,0.083
28.895,0.094
28.900,0.101
28.905,0.107
28.910,0.097
28.915,0.092
28.920,0.096
28.925,0.096
28.930,0.101
28.935,0.100
28.940,0.095
28.945,0.089
28.950,0.074
28.955,0.066
28.960,0.065
28.965,0.072
28.970,0.077
28.975,0.071
28.980,0.065
28.985,0.057
28.990,0.045
28.995,0.044
29.000,0.050
29.005,0.053
29.010,0.044
29.015,0.042
29.020,0.045
29.025,0.038
29.030,0.037
29.035,0.032
29.040,0.028
29.045,0.028
29.050,0.023
29.055,0.015
29.060,0.012
29.065,0.029
29.070,0.033
29.075,0.020
29.080,0.010
29.085,-0.012
29.090,-0.009
29.095,0.005
29.100,0.014
29.105,0.020
29.110,-0.001
29.115,-0.010
29.120,0.000
29.125,0.008
29.130,0.017
29.135,0.007
29.140,0.007
29.145,0.007
29.150,-0.003
29.155,-0.002
29.160,-0.015
29.165,-0.026
29.170,-0.016
29.175,-0.007
29.180,-0.002
29.185,-0.003
29.190,-0.005
29.195,-0.010
29.200,-0.012
29.205,-0.003
29.210,-0.007
29.215,-0.019
29.220,-0.030
29.225,-0.026
29.230,-0.002
29.235,0.002
29.240,-0.006
29.245,-0.005
29.250,-0.005
29.255,-0.017
29.260,-0.028
29.265,-0.026
29.270,-0.027
29.275,-0.032
29.280,-0.031
29.285,-0.041
29.290,-0.046
29.295,-0.047
29.300,-0.050
29.305,-0.056
29.310,-0.071
29.315,-0.059
29.320,-0.043
29.325,-0.046
29.330,-0.045
29.335,-0.046
29.340,-0.037
29.345,-0.027
29.350,-0.020
29.355,0.000
29.360,0.014
29.365,0.026
29.370,0.024
29.375,0.017
29.380,0.024
29.385,0.027
29.390,0.030
29.395,0.019
29.400,0.001
29.405,0.007
29.410,0.015
29.415,0.023
29.420,0.030
29.425,0.034
29.430,0.037
29.435,0.012
29.440,-0.057
29.445,-0.203
29.450,-0.345
29.455,-0.355
29.460,-0.248
29.465,-0.050
29.470,0.140
29.475,0.231
29.480,0.259
29.485,0.203
29.490,0.116
29.495,0.058
29.500,0.031
29.505,0.027
29.510,0.017
29.515,0.022
29.520,0.013
29.525,0.000
29.530,0.009
29.535,0.002
29.540,-0.006
29.545,-0.007
29.550,0.001
29.555,0.006
29.560,-0.014
29.565,-0.009
29.570,0.004
29.575,0.003
29.580,0.004
29.585,-0.019
29.590,-0.018
29.595,0.006
29.600,-0.005
29.605,-0.011
29.610,-0.008
29.615,-0.018
29.620,-0.029
29.625,-0.040
29.630,-0.042
29.635,-0.039
29.640,-0.041
29.645,-0.052
29.650,-0.061
29.655,-0.057
29.660,-0.075
29.665,-0.089
29.670,-0.079
29.675,-0.089
29.680,-0.102
29.685,-0.106
29.690,-0.097
29.695,-0.091
29.700,-0.097
29.705,-0.093
29.710,-0.085
29.715,-0.069
29.720,-0.056
29.725,-0.055
29.730,-0.033
29.735,-0.016
29.740,-0.001
29.745,0.020
29.750,0.031
29.755,0.060
29.760,0.086
29.765,0.099
29.770,0.100
29.775,0.094
29.780,0.101
29.785,0.104
29.790,0.101
29.795,0.093
29.800,0.093
29.805,0.099
29.810,0.084
29.815,0.078
29.820,0.074
29.825,0.072
29.830,0.085
29.835,0.074
29.840,0.058
29.845,0.062
29.850,0.063
29.855,0.052
29.860,0.047
29.865,0.051
29.870,0.053
29.875,0.053
29.880,0.051
29.885,0.035
29.890,0.037
29.895,0.038
29.900,0.025
29.905,0.031
29.910,0.031
29.915,0.038
29.920,0.037
29.925,0.018
29.930,0.008
29.935,-0.010
29.940,0.007
29.945,0.024
29.950,0.006
29.955,0.010
29.960,0.014
29.965,0.011
29.970,0.011
29.975,0.000
29.980,0.006
29.985,0.012
29.990,0.008
29.995,-0.008
30.000,-0.011
30.005,-0.001
30.010,-0.005
30.015,0.019
30.020,0.018
30.025,-0.027
30.030,-0.034
30.035,-0.019
30.040,-0.001
30.045,0.000
30.050,-0.015
30.055,-0.007
30.060,-0.004
30.065,-0.009
30.070,-0.013
30.075,-0.012
30.080,-0.001
30.085,-0.020
30.090,-0.031
30.095,-0.012
30.100,-0.004
30.105,-0.001
30.110,-0.008
30.115,-0.002
30.120,0.012
30.125,-0.010
30.130,-0.040
30.135,-0.053
30.140,-0.035
30.145,-0.014
30.150,-0.017
30.155,-0.038
30.160,-0.067
30.165,-0.070
30.170,-0.060
30.175,-0.052
30.180,-0.036
30.185,-0.040
30.190,-0.044
30.195,-0.038
30.200,-0.039
30.205,-0.033
30.210,-0.025
30.215,-0.004
30.220,0.021
30.225,0.029
30.230,0.031
30.235,0.010
30.240,-0.004
30.245,0.004
30.250,0.019
30.255,0.035
30.260,0.020
30.265,0.007
30.270,0.001
30.275,-0.008
30.280,0.009
30.285,0.028
30.290,0.042
30.295,0.028
30.300,-0.032
30.305,-0.146
30.310,-0.295
30.315,-0.345
30.320,-0.272
30.325,-0.112
30.330,0.084
30.335,0.192
30.340,0.221
30.345,0.194
30.350,0.128
30.355,0.082
30.360,0.045
30.365,0.020
30.370,0.013
30.375,0.014
30.380,0.019
30.385,0.019
30.390,0.021
30.395,0.012
30.400,-0.009
30.405,-0.015
30.410,-0.002
30.415,0.010
30.420,0.001
30.425,-0.009
30.430,-0.005
30.435,-0.009
30.440,-0.009
30.445,-0.012
30.450,-0.009
30.455,0.003
30.460,-0.001
30.465,-0.007
30.470,-0.027
30.475,-0.041
30.480,-0.034
30.485,-0.031
30.490,-0.028
30.495,-0.031
30.500,-0.026
30.505,-0.027
30.510,-0.050
30.515,-0.056
30.520,-0.064
30.525,-0.082
30.530,-0.083
30.535,-0.086
30.540,-0.083
30.545,-0.084
30.550,-0.094
30.555,-0.090
30.560,-0.089
30.565,-0.089
30.570,-0.088
30.575,-0.074
30.580,-0.054
30.585,-0.050
30.590,-0.048
30.595,-0.025
30.600,0.020
30.605,0.043
30.610,0.033
30.615,0.041
30.620,0.065
30.625,0.074
30.630,0.088
30.635,0.106
30.640,0.109
30.645,0.099
30.650,0.094
30.655,0.099
30.660,0.095
30.665,0.088
30.670,0.083
30.675,0.081
30.680,0.076
30.685,0.068
30.690,0.078
30.695,0.079
30.700,0.074
30.705,0.071
30.710,0.062
30.715,0.071
30.720,0.062
30.725,0.042
30.730,0.050
30.735,0.044
30.740,0.036
30.745,0.036
30.750,0.025
30.755,0.022
30.760,0.028
30.765,0.038
30.770,0.035
30.775,0.023
30.780,0.010
30.785,-0.001
30.790,0.011
30.795,0.015
30.800,0.006
30.805,0.019
30.810,0.024
30.815,0.015
30.820,0.005
30.825,-0.014
30.830,-0.009
30.835,0.003
30.840,0.003
30.845,0.005
30.850,0.005
30.855,0.008
30.860,0.009
30.865,0.000
30.870,-0.016
30.875,-0.018
30.880,-0.010
30.885,-0.007
30.890,-0.003
30.895,-0.007
30.900,-0.010
30.905,0.002
30.910,-0.003
30.915,-0.008
30.920,-0.006
30.925,-0.015
30.930,-0.007
30.935,-0.007
30.940,-0.017
30.945,-0.012
30.950,-0.004
30.955,0.004
30.960,-0.002
30.965,-0.021
30.970,-0.037
30.975,-0.031
30.980,-0.020
30.985,-0.029
30.990,-0.033
30.995,-0.029
31.000,-0.034
31.005,-0.038
31.010,-0.047
31.015,-0.048
31.020,-0.038
31.025,-0.045
31.030,-0.050
31.035,-0.053
31.040,-0.057
31.045,-0.043
31.050,-0.035
31.055,-0.034
31.060,-0.019
31.065,0.004
31.070,0.003
31.075,0.002
31.080,0.021
31.085,0.027
31.090,0.020
31.095,0.008
31.100,0.008
31.105,0.026
31.110,0.026
31.115,0.010
31.120,0.008
31.125,0.018
31.130,0.035
31.135,0.040
31.140,0.025
31.145,-0.018
31.150,-0.092
31.155,-0.216
31.160,-0.371
31.165,-0.400
31.170,-0.287
31.175,-0.118
31.180,0.072
31.185,0.202
31.190,0.244
31.195,0.203
31.200,0.116
31.205,0.068
31.210,0.056
31.215,0.049
31.220,0.034
31.225,0.032
31.230,0.037
31.235,0.024
31.240,0.024
31.245,0.025
31.250,0.020
31.255,0.031
31.260,0.025
31.265,0.007
31.270,-0.004
31.275,-0.006
31.280,0.008
31.285,0.009
31.290,0.003
31.295,0.008
31.300,0.013
31.305,0.012
31.310,-0.006
31.315,-0.015
31.320,-0.006
31.325,-0.005
31.330,-0.015
31.335,-0.025
31.340,-0.024
31.345,-0.030
31.350,-0.041
31.355,-0.045
31.360,-0.053
31.365,-0.053
31.370,-0.059
31.375,-0.078
31.380,-0.082
31.385,-0.082
31.390,-0.081
31.395,-0.087
31.400,-0.108
31.405,-0.114
31.410,-0.090
31.415,-0.061
31.420,-0.067
31.425,-0.084
31.430,-0.062
31.435,-0.044
31.440,-0.047
31.445,-0.030
31.450,-0.008
31.455,0.021
31.460,0.055
31.465,0.072
31.470,0.078
31.475,0.085
31.480,0.085
31.485,0.090
31.490,0.099
31.495,0.096
31.500,0.100
31.505,0.099
31.510,0.082
31.515,0.080
31.520,0.084
31.525,0.093
31.530,0.098
31.535,0.081
31.540,0.078
31.545,0.074
31.550,0.059
31.555,0.061
31.560,0.058
31.565,0.060
31.570,0.061
31.575,0.040
31.580,0.031
31.585,0.037
31.590,0.040
31.595,0.032
31.600,0.034
31.605,0.041
31.610,0.035
31.615,0.030
31.620,0.019
31.625,0.015
31.630,0.024
31.635,0.022
31.640,0.024
31.645,0.020
31.650,0.004
31.655,-0.012
31.660,-0.024
31.665,-0.004
31.670,0.017
31.675,0.016
31.680,0.012
31.685,0.006
31.690,0.011
31.695,0.005
31.700,-0.007
31.705,0.002
31.710,0.001
31.715,-0.001
31.720,0.002
31.725,-0.002
31.730,-0.002
31.735,-0.011
31.740,-0.011
31.745,0.005
31.750,0.001
31.755,-0.013
31.760,-0.025
31.765,-0.024
31.770,-0.015
31.775,-0.003
31.780,0.015
31.785,0.009
31.790,-0.016
31.795,-0.026
31.800,-0.021
31.805,-0.013
31.810,-0.010
31.815,-0.011
31.820,-0.012
31.825,-0.021
31.830,-0.041
31.835,-0.054
31.840,-0.029
31.845,-0.015
31.850,-0.036
31.855,-0.046
31.860,-0.055
31.865,-0.048
31.870,-0.040
31.875,-0.047
31.880,-0.043
31.885,-0.047
31.890,-0.046
31.895,-0.039
31.900,-0.039
31.905,-0.044
31.910,-0.048
31.915,-0.015
31.920,0.022
31.925,0.028
31.930,0.028
31.935,0.017
31.940,-0.001
31.945,-0.009
31.950,-0.001
31.955,0.012
31.960,0.026
31.965,0.042
31.970,0.029
31.975,0.001
31.980,0.001
31.985,0.011
31.990,0.029
31.995,0.032
32.000,-0.020
32.005,-0.123
32.010,-0.278
32.015,-0.400
32.020,-0.403
32.025,-0.295
32.030,-0.092
32.035,0.113
32.040,0.234
32.045,0.242
32.050,0.164
32.055,0.108
32.060,0.084
32.065,0.062
32.070,0.047
32.075,0.039
32.080,0.048
32.085,0.051
32.090,0.049
32.095,0.043
32.100,0.020
32.105,0.011
32.110,0.007
32.115,0.014
32.120,0.016
32.125,-0.007
32.130,-0.008
32.135,-0.001
32.140,0.013
32.145,0.032
32.150,0.023
32.155,0.001
32.160,-0.006
32.165,-0.003
32.170,-0.007
32.175,-0.004
32.180,0.001
32.185,-0.016
32.190,-0.031
32.195,-0.037
32.200,-0.036
32.205,-0.034
32.210,-0.049
32.215,-0.057
32.220,-0.047
32.225,-0.049
32.230,-0.069
32.235,-0.091
32.240,-0.096
32.245,-0.088
32.250,-0.085
32.255,-0.081
32.260,-0.086
32.265,-0.084
32.270,-0.075
32.275,-0.076
32.280,-0.067
32.285,-0.057
32.290,-0.051
32.295,-0.026
32.300,0.007
32.305,0.019
32.310,0.024
32.315,0.051
32.320,0.075
32.325,0.082
32.330,0.078
32.335,0.069
32.340,0.086
32.345,0.104
32.350,0.111
32.355,0.120
32.360,0.108
32.365,0.095
32.370,0.086
32.375,0.080
32.380,0.084
32.385,0.084
32.390,0.086
32.395,0.068
32.400,0.052
32.405,0.067
32.410,0.067
32.415,0.048
32.420,0.040
32.425,0.045
32.430,0.056
32.435,0.057
32.440,0.054
32.445,0.053
32.450,0.036
32.455,0.014
32.460,0.007
32.465,0.030
32.470,0.048
32.475,0.024
32.480,0.001
32.485,-0.003
32.490,0.012
32.495,0.027
32.500,0.009
32.505,0.002
32.510,0.006
32.515,0.012
32.520,0.013
32.525,0.001
32.530,0.030
32.535,0.045
32.540,-0.006
32.545,-0.043
32.550,-0.033
32.555,-0.010
32.560,0.009
32.565,0.013
32.570,-0.003
32.575,-0.014
32.580,-0.016
32.585,-0.039
32.590,-0.024
32.595,0.010
32.600,0.012
32.605,0.029
32.610,0.020
32.615,0.005
32.620,0.012
32.625,0.000
32.630,-0.018
32.635,-0.044
32.640,-0.056
32.645,-0.037
32.650,-0.023
32.655,-0.006
32.660,0.006
32.665,-0.013
32.670,-0.013
32.675,0.014
32.680,0.003
32.685,-0.038
32.690,-0.045
32.695,-0.049
32.700,-0.058
32.705,-0.044
32.710,-0.041
32.715,-0.038
32.720,-0.045
32.725,-0.072
32.730,-0.069
32.735,-0.045
32.740,-0.038
32.745,-0.042
32.750,-0.041
32.755,-0.046
32.760,-0.049
32.765,-0.019
32.770,0.004
32.775,0.010
32.780,0.029
32.785,0.019
32.790,0.015
32.795,0.018
32.800,0.025
32.805,0.052
32.810,0.009
32.815,-0.028
32.820,0.004
32.825,0.028
32.830,0.023
32.835,-0.014
32.840,-0.015
32.845,0.021
32.850,-0.004
32.855,-0.072
32.860,-0.169
32.865,-0.297
32.870,-0.401
32.875,-0.386
32.880,-0.177
32.885,0.055
32.890,0.180
32.895,0.248
32.900,0.218
32.905,0.128
32.910,0.055
32.915,0.034
32.920,0.060
32.925,0.066
32.930,0.079
32.935,0.084
32.940,0.045
32.945,-0.004
32.950,-0.022
32.955,0.011
32.960,0.050
32.965,0.074
32.970,0.062
32.975,0.038
32.980,0.037
32.985,-0.003
32.990,-0.048
32.995,-0.026
33.000,0.057
33.005,0.094
33.010,-0.008
33.015,-0.083
33.020,-0.055
33.025,-0.036
33.030,-0.005
33.035,0.022
33.040,0.023
33.045,-0.037
33.050,-0.089
33.055,-0.026
33.060,0.002
33.065,-0.025
33.070,-0.089
33.075,-0.150
33.080,-0.100
33.085,-0.067
33.090,-0.077
33.095,-0.128
33.100,-0.174
33.105,-0.118
33.110,-0.059
33.115,-0.031
33.120,-0.006
33.125,-0.003
33.130,-0.083
33.135,-0.152
33.140,-0.103
33.145,-0.054
33.150,-0.034
33.155,-0.024
33.160,-0.004
33.165,0.042
33.170,0.065
33.175,0.097
33.180,0.112
33.185,0.034
33.190,0.015
33.195,0.115
33.200,0.124
33.205,0.058
33.210,0.074
33.215,0.126
33.220,0.151
33.225,0.134
33.230,0.080
33.235,0.030
33.240,-0.003
33.245,0.021
33.250,0.103
33.255,0.149
33.260,0.090
33.265,0.021
33.270,0.034
33.275,0.036
33.280,0.052
33.285,0.065
33.290,0.015
33.295,-0.008
33.300,-0.008
33.305,0.032
33.310,0.104
33.315,0.067
33.320,0.027
33.325,0.072
33.330,0.015
33.335,-0.045
33.340,-0.014
33.345,0.006
33.350,0.042
33.355,0.010
33.360,-0.038
33.365,0.013
33.370,-0.005
33.375,-0.050
33.380,0.001
33.385,0.038
33.390,0.032
33.395,0.044
33.400,0.050
33.405,0.045
33.410,0.021
33.415,-0.008
33.420,-0.039
33.425,-0.090
33.430,-0.055
33.435,0.003
33.440,0.028
33.445,0.048
33.450,-0.021
33.455,-0.076
33.460,-0.063
33.465,-0.061
33.470,-0.052
33.475,-0.037
33.480,-0.025
33.485,-0.007
33.490,0.009
33.495,-0.028
33.500,-0.047
33.505,0.019
33.510,0.045
33.515,0.046
33.520,0.066
33.525,0.017
33.530,-0.024
33.535,-0.011
33.540,-0.040
33.545,-0.081
33.550,-0.071
33.555,-0.051
33.560,-0.018
33.565,0.001
33.570,-0.036
33.575,-0.045
33.580,-0.020
33.585,-0.016
33.590,-0.030
33.595,-0.042
33.600,-0.031
33.605,-0.006
33.610,0.044
33.615,0.103
33.620,0.090
33.625,0.043
33.630,0.034
33.635,0.007
33.640,-0.029
33.645,-0.019
33.650,0.013
33.655,0.029
33.660,0.002
33.665,0.009
33.670,0.063
33.675,0.041
33.680,-0.020
33.685,-0.010
33.690,0.012
33.695,-0.002
33.700,-0.069
33.705,-0.169
33.710,-0.220
33.715,-0.246
33.720,-0.245
33.725,-0.129
33.730,0.048
33.735,0.163
33.740,0.212
33.745,0.179
33.750,0.102
33.755,0.061
33.760,0.034
33.765,0.025
33.770,0.030
33.775,0.029
33.780,0.017
33.785,0.000
33.790,0.010
33.795,0.016
33.800,-0.002
33.805,0.012
33.810,0.037
33.815,0.034
33.820,0.013
33.825,-0.044
33.830,-0.076
33.835,-0.043
33.840,-0.012
33.845,-0.007
33.850,-0.015
33.855,-0.018
33.860,0.000
33.865,0.010
33.870,-0.009
33.875,-0.008
33.880,0.008
33.885,0.009
33.890,0.005
33.895,-0.009
33.900,-0.029
33.905,-0.041
33.910,-0.063
33.915,-0.086
33.920,-0.096
33.925,-0.089
33.930,-0.057
33.935,-0.056
33.940,-0.075
33.945,-0.079
33.950,-0.072
33.955,-0.044
33.960,-0.067
33.965,-0.108
33.970,-0.089
33.975,-0.061
33.980,-0.041
33.985,-0.045
33.990,-0.042
33.995,-0.002
34.000,0.026
34.005,0.041
34.010,0.051
34.015,0.069
34.020,0.079
34.025,0.065
34.030,0.072
34.035,0.086
34.040,0.097
34.045,0.100
34.050,0.080
34.055,0.077
34.060,0.061
34.065,0.030
34.070,0.007
34.075,-0.010
34.080,-0.008
34.085,-0.027
34.090,-0.054
34.095,-0.079
34.100,-0.123
34.105,-0.180
34.110,-0.263
34.115,-0.322
34.120,-0.333
34.125,-0.324
34.130,-0.278
34.135,-0.227
34.140,-0.180
34.145,-0.100
34.150,-0.038
34.155,-0.031
34.160,-0.042
34.165,-0.020
34.170,0.054
34.175,0.149
34.180,0.227
34.185,0.252
34.190,0.258
34.195,0.272
34.200,0.277
34.205,0.291
34.210,0.287
34.215,0.269
34.220,0.260
34.225,0.231
34.230,0.220
34.235,0.229
34.240,0.218
34.245,0.203
34.250,0.196
34.255,0.190
34.260,0.180
34.265,0.174
34.270,0.167
34.275,0.172
34.280,0.188
34.285,0.161
34.290,0.135
34.295,0.140
34.300,0.125
34.305,0.096
34.310,0.084
34.315,0.103
34.320,0.118
34.325,0.100
34.330,0.078
34.335,0.068
34.340,0.058
34.345,0.032
34.350,0.021
34.355,0.028
34.360,0.004
34.365,-0.031
34.370,-0.049
34.375,-0.060
34.380,-0.053
34.385,-0.055
34.390,-0.084
34.395,-0.112
34.400,-0.129
34.405,-0.124
34.410,-0.122
34.415,-0.136
34.420,-0.132
34.425,-0.114
34.430,-0.113
34.435,-0.113
34.440,-0.098
34.445,-0.103
34.450,-0.121
34.455,-0.106
34.460,-0.082
34.465,-0.078
34.470,-0.087
34.475,-0.094
34.480,-0.086
34.485,-0.099
34.490,-0.106
34.495,-0.076
34.500,-0.056
34.505,-0.054
34.510,-0.063
34.515,-0.066
34.520,-0.055
34.525,-0.053
34.530,-0.050
34.535,-0.049
34.540,-0.051
34.545,-0.040
34.550,-0.041
34.555,-0.046
34.560,-0.053
34.565,-0.039
34.570,-0.008
34.575,-0.018
34.580,-0.042
34.585,-0.044
34.590,-0.019
34.595,0.004
34.600,-0.011
34.605,-0.018
34.610,-0.002
34.615,0.011
34.620,0.001
34.625,-0.014
34.630,0.006
34.635,0.023
34.640,0.027
34.645,0.036
34.650,0.028
34.655,0.014
34.660,-0.003
34.665,-0.005
34.670,0.010
34.675,0.015
34.680,0.012
34.685,0.006
34.690,0.002
34.695,0.007
34.700,0.012
34.705,-0.001
34.710,-0.024
34.715,-0.007
34.720,0.018
34.725,0.005
34.730,-0.004
34.735,-0.005
34.740,-0.007
34.745,-0.008
34.750,-0.011
34.755,0.001
34.760,0.007
34.765,-0.010
34.770,-0.035
34.775,-0.029
34.780,-0.001
34.785,0.010
34.790,0.002
34.795,-0.029
34.800,-0.029
34.805,0.004
34.810,0.016
34.815,0.013
34.820,-0.003
34.825,-0.015
34.830,-0.006
34.835,0.003
34.840,0.011
34.845,0.011
34.850,-0.006
34.855,-0.002
34.860,-0.001
34.865,-0.020
34.870,-0.027
34.875,-0.018
34.880,-0.009
34.885,-0.021
34.890,-0.030
34.895,-0.036
34.900,-0.041
34.905,-0.039
34.910,-0.047
34.915,-0.017
34.920,0.019
34.925,0.009
34.930,-0.017
34.935,-0.066
34.940,-0.101
34.945,-0.092
34.950,-0.060
34.955,-0.050
34.960,-0.053
34.965,-0.041
34.970,-0.061
34.975,-0.072
34.980,-0.057
34.985,-0.071
34.990,-0.072
34.995,-0.076
35.000,-0.078
35.005,-0.044
35.010,-0.031
35.015,-0.043
35.020,-0.049
35.025,-0.036
35.030,-0.019
35.035,-0.030
35.040,-0.034
35.045,-0.020
35.050,-0.015
35.055,-0.008
35.060,-0.020
35.065,-0.008
35.070,0.014
35.075,0.022
35.080,0.078
35.085,0.115
35.090,0.074
35.095,0.018
35.100,0.011
35.105,0.069
35.110,0.085
35.115,0.043
35.120,0.043
35.125,0.074
35.130,0.105
35.135,0.110
35.140,0.098
35.145,0.098
35.150,0.090
35.155,0.090
35.160,0.095
35.165,0.098
35.170,0.085
35.175,0.070
35.180,0.082
35.185,0.093
35.190,0.110
35.195,0.112
35.200,0.097
35.205,0.106
35.210,0.110
35.215,0.116
35.220,0.117
35.225,0.108
35.230,0.132
35.235,0.141
35.240,0.106
35.245,0.089
35.250,0.091
35.255,0.092
35.260,0.094
35.265,0.102
35.270,0.107
35.275,0.103
35.280,0.110
35.285,0.114
35.290,0.110
35.295,0.109
35.300,0.115
35.305,0.126
35.310,0.116
35.315,0.077
35.320,0.032
35.325,-0.001
35.330,-0.013
35.335,-0.023
35.340,-0.038
35.345,-0.044
35.350,-0.041
35.355,-0.025
35.360,-0.013
35.365,-0.008
35.370,-0.005
35.375,-0.030
35.380,-0.089
35.385,-0.198
35.390,-0.322
35.395,-0.393
35.400,-0.390
35.405,-0.289
35.410,-0.121
35.415,0.011
35.420,0.050
35.425,0.018
35.430,-0.032
35.435,-0.083
35.440,-0.120
35.445,-0.127
35.450,-0.116
35.455,-0.097
35.460,-0.100
35.465,-0.110
35.470,-0.103
35.475,-0.118
35.480,-0.142
35.485,-0.136
35.490,-0.118
35.495,-0.106
35.500,-0.099
35.505,-0.095
35.510,-0.098
35.515,-0.079
35.520,-0.060
35.525,-0.074
35.530,-0.073
35.535,-0.092
35.540,-0.125
35.545,-0.107
35.550,-0.103
35.555,-0.103
35.560,-0.087
35.565,-0.080
35.570,-0.045
35.575,-0.032
35.580,-0.067
35.585,-0.073
35.590,-0.043
35.595,-0.043
35.600,-0.059
35.605,-0.057
35.610,-0.056
35.615,-0.045
35.620,-0.035
35.625,-0.043
35.630,-0.058
35.635,-0.080
35.640,-0.080
35.645,-0.052
35.650,-0.043
35.655,-0.068
35.660,-0.082
35.665,-0.054
35.670,-0.020
35.675,0.007
35.680,0.027
35.685,0.018
35.690,0.017
35.695,0.028
35.700,0.031
35.705,0.039
35.710,0.035
35.715,0.035
35.720,0.066
35.725,0.091
35.730,0.100
35.735,0.108
35.740,0.126
35.745,0.149
35.750,0.155
35.755,0.145
35.760,0.120
35.765,0.101
35.770,0.103
35.775,0.112
35.780,0.112
35.785,0.093
35.790,0.090
35.795,0.102
35.800,0.112
35.805,0.131
35.810,0.120
35.815,0.099
35.820,0.085
35.825,0.060
35.830,0.074
35.835,0.090
35.840,0.085
35.845,0.088
35.850,0.073
35.855,0.078
35.860,0.089
35.865,0.092
35.870,0.099
35.875,0.089
35.880,0.087
35.885,0.070
35.890,0.049
35.895,0.060
35.900,0.070
35.905,0.072
35.910,0.077
35.915,0.086
35.920,0.073
35.925,0.046
35.930,0.043
35.935,0.045
35.940,0.059
35.945,0.058
35.950,0.029
35.955,0.034
35.960,0.046
35.965,0.043
35.970,0.032
35.975,0.014
35.980,0.022
35.985,0.026
35.990,0.015
35.995,0.013
36.000,0.012
36.005,0.006
36.010,-0.003
36.015,-0.004
36.020,-0.002
36.025,-0.016
36.030,-0.027
36.035,-0.022
36.040,-0.011
36.045,-0.013
36.050,-0.040
36.055,-0.050
36.060,-0.038
36.065,-0.043
36.070,-0.050
36.075,-0.039
36.080,-0.034
36.085,-0.073
36.090,-0.104
36.095,-0.094
36.100,-0.073
36.105,-0.072
36.110,-0.106
36.115,-0.112
36.120,-0.082
36.125,-0.068
36.130,-0.049
36.135,-0.032
36.140,-0.029
36.145,-0.030
36.150,-0.035
36.155,-0.028
36.160,-0.012
36.165,0.006
36.170,-0.007
36.175,-0.034
36.180,-0.042
36.185,-0.036
36.190,-0.014
36.195,-0.011
36.200,-0.010
36.205,0.009
36.210,0.002
36.215,-0.015
36.220,-0.043
36.225,-0.120
36.230,-0.230
36.235,-0.324
36.240,-0.329
36.245,-0.228
36.250,-0.068
36.255,0.074
36.260,0.142
36.265,0.153
36.270,0.105
36.275,0.047
36.280,0.042
36.285,0.042
36.290,0.037
36.295,0.041
36.300,0.026
36.305,0.021
36.310,0.024
36.315,0.022
36.320,0.025
36.325,0.020
36.330,0.028
36.335,0.024
36.340,0.000
36.345,-0.002
36.350,0.008
36.355,0.018
36.360,0.012
36.365,0.003
36.370,-0.004
36.375,-0.008
36.380,0.004
36.385,0.001
36.390,-0.004
36.395,-0.009
36.400,-0.023
36.405,-0.009
36.410,0.006
36.415,-0.003
36.420,-0.018
36.425,-0.037
36.430,-0.051
36.435,-0.052
36.440,-0.045
36.445,-0.045
36.450,-0.057
36.455,-0.056
36.460,-0.053
36.465,-0.061
36.470,-0.076
36.475,-0.085
36.480,-0.067
36.485,-0.054
36.490,-0.066
36.495,-0.085
36.500,-0.070
36.505,-0.039
36.510,-0.044
36.515,-0.032
36.520,-0.001
36.525,0.012
36.530,0.029
36.535,0.037
36.540,0.050
36.545,0.077
36.550,0.084
36.555,0.077
36.560,0.064
36.565,0.067
36.570,0.083
36.575,0.088
36.580,0.076
36.585,0.041
36.590,0.028
36.595,0.027
36.600,-0.002
36.605,-0.020
36.610,-0.023
36.615,-0.029
36.620,-0.059
36.625,-0.128
36.630,-0.202
36.635,-0.285
36.640,-0.384
36.645,-0.458
36.650,-0.475
36.655,-0.417
36.660,-0.336
36.665,-0.269
36.670,-0.209
36.675,-0.152
36.680,-0.097
36.685,-0.057
36.690,-0.014
36.695,0.059
36.700,0.147
36.705,0.236
36.710,0.315
36.715,0.368
36.720,0.385
36.725,0.371
36.730,0.345
36.735,0.329
36.740,0.316
36.745,0.311
36.750,0.315
36.755,0.309
36.760,0.304
36.765,0.307
36.770,0.295
36.775,0.277
36.780,0.261
36.785,0.235
36.790,0.229
36.795,0.242
36.800,0.246
36.805,0.250
36.810,0.221
36.815,0.184
36.820,0.166
36.825,0.143
36.830,0.137
36.835,0.133
36.840,0.127
36.845,0.137
36.850,0.133
36.855,0.119
36.860,0.094
36.865,0.064
36.870,0.058
36.875,0.054
36.880,0.036
36.885,0.019
36.890,0.006
36.895,-0.018
36.900,-0.048
36.905,-0.064
36.910,-0.078
36.915,-0.096
36.920,-0.112
36.925,-0.135
36.930,-0.145
36.935,-0.137
36.940,-0.124
36.945,-0.119
36.950,-0.132
36.955,-0.144
36.960,-0.143
36.965,-0.123
36.970,-0.110
36.975,-0.116
36.980,-0.105
36.985,-0.103
36.990,-0.106
36.995,-0.100
37.000,-0.110
37.005,-0.117
37.010,-0.100
37.015,-0.089
37.020,-0.093
37.025,-0.094
37.030,-0.084
37.035,-0.079
37.040,-0.080
37.045,-0.087
37.050,-0.088
37.055,-0.073
37.060,-0.070
37.065,-0.063
37.070,-0.049
37.075,-0.039
37.080,-0.021
37.085,-0.035
37.090,-0.078
37.095,-0.099
37.100,-0.088
37.105,-0.061
37.110,-0.059
37.115,-0.053
37.120,-0.046
37.125,-0.052
37.130,-0.043
37.135,-0.037
37.140,-0.029
37.145,-0.027
37.150,-0.036
37.155,-0.034
37.160,-0.028
37.165,-0.014
37.170,-0.014
37.175,-0.028
37.180,-0.031
37.185,-0.035
37.190,-0.025
37.195,-0.026
37.200,-0.032
37.205,-0.017
37.210,-0.016
37.215,-0.011
37.220,-0.007
37.225,-0.022
37.230,-0.019
37.235,-0.029
37.240,-0.039
37.245,-0.013
37.250,-0.003
37.255,-0.005
37.260,-0.007
37.265,-0.020
37.270,-0.025
37.275,-0.018
37.280,-0.010
37.285,-0.008
37.290,-0.001
37.295,0.009
37.300,0.014
37.305,0.020
37.310,0.012
37.315,-0.010
37.320,-0.010
37.325,0.005
37.330,0.024
37.335,0.023
37.340,0.010
37.345,0.012
37.350,0.018
37.355,0.020
37.360,0.002
37.365,-0.010
37.370,0.003
37.375,0.019
37.380,0.030
37.385,0.034
37.390,0.038
37.395,0.029
37.400,0.007
37.405,-0.002
37.410,0.011
37.415,0.036
37.420,0.042
37.425,0.023
37.430,0.015
37.435,0.027
37.440,0.041
37.445,0.030
37.450,-0.005
37.455,-0.016
37.460,0.002
37.465,0.013
37.470,0.006
37.475,-0.002
37.480,0.020
37.485,0.034
37.490,0.017
37.495,0.003
37.500,0.008
37.505,0.025
37.510,0.028
37.515,0.024
37.520,0.027
37.525,0.017
37.530,0.007
37.535,-0.004
37.540,-0.008
37.545,0.014
37.550,0.024
37.555,0.009
37.560,-0.012
37.565,-0.017
37.570,0.001
37.575,0.011
37.580,0.019
37.585,0.023
37.590,0.021
37.595,0.008
37.600,-0.015
37.605,-0.015
37.610,-0.009
37.615,0.002
37.620,0.005
37.625,-0.009
37.630,0.000
37.635,0.003
37.640,0.004
37.645,0.016
37.650,0.003
37.655,-0.004
37.660,0.000
37.665,0.001
37.670,0.004
37.675,-0.002
37.680,-0.002
37.685,0.013
37.690,0.016
37.695,-0.009
37.700,-0.043
37.705,-0.054
37.710,-0.052
37.715,-0.046
37.720,-0.032
37.725,-0.022
37.730,-0.019
37.735,-0.025
37.740,-0.029
37.745,-0.022
37.750,-0.010
37.755,-0.001
37.760,-0.003
37.765,0.010
37.770,0.022
37.775,0.015
37.780,0.018
37.785,0.014
37.790,0.012
37.795,0.025
37.800,0.026
37.805,0.023
37.810,0.022
37.815,0.029
37.820,0.035
37.825,0.010
37.830,0.001
37.835,0.028
37.840,0.057
37.845,0.041
37.850,-0.047
37.855,-0.160
37.860,-0.241
37.865,-0.237
37.870,-0.153
37.875,-0.015
37.880,0.125
37.885,0.183
37.890,0.185
37.895,0.152
37.900,0.085
37.905,0.045
37.910,0.036
37.915,0.030
37.920,0.025
37.925,0.014
37.930,0.007
37.935,0.004
37.940,-0.002
37.945,-0.004
37.950,-0.001
37.955,0.012
37.960,0.019
37.965,0.006
37.970,-0.010
37.975,-0.015
37.980,-0.004
37.985,-0.001
37.990,-0.010
37.995,-0.015
38.000,-0.011
38.005,0.007
38.010,0.007
38.015,-0.009
38.020,-0.022
38.025,-0.031
38.030,-0.020
38.035,-0.017
38.040,-0.012
38.045,0.001
38.050,-0.011
38.055,-0.029
38.060,-0.047
38.065,-0.058
38.070,-0.054
38.075,-0.054
38.080,-0.056
38.085,-0.060
38.090,-0.057
38.095,-0.054
38.100,-0.061
38.105,-0.054
38.110,-0.055
38.115,-0.055
38.120,-0.042
38.125,-0.044
38.130,-0.048
38.135,-0.056
38.140,-0.065
38.145,-0.057
38.150,-0.042
38.155,-0.031
38.160,-0.019
38.165,0.010
38.170,0.030
38.175,0.034
38.180,0.045
38.185,0.046
38.190,0.046
38.195,0.060
38.200,0.072
38.205,0.077
38.210,0.068
38.215,0.056
38.220,0.055
38.225,0.058
38.230,0.062
38.235,0.057
38.240,0.057
38.245,0.069
38.250,0.078
38.255,0.078
38.260,0.049
38.265,0.039
38.270,0.046
38.275,0.038
38.280,0.044
38.285,0.038
38.290,0.036
38.295,0.051
38.300,0.039
38.305,0.035
38.310,0.035
38.315,0.018
38.320,0.012
38.325,0.019
38.330,0.032
38.335,0.036
38.340,0.025
38.345,0.021
38.350,0.022
38.355,0.021
38.360,0.011
38.365,0.008
38.370,0.018
38.375,0.015
38.380,0.017
38.385,0.016
38.390,-0.001
38.395,0.003
38.400,0.017
38.405,0.015
38.410,0.004
38.415,-0.009
38.420,-0.011
38.425,0.008
38.430,0.025
38.435,0.005
38.440,-0.014
38.445,-0.009
38.450,-0.004
38.455,0.008
38.460,0.005
38.465,-0.013
38.470,-0.020
38.475,-0.016
38.480,-0.001
38.485,0.002
38.490,-0.010
38.495,-0.017
38.500,-0.019
38.505,-0.020
38.510,-0.040
38.515,-0.057
38.520,-0.037
38.525,-0.024
38.530,-0.033
38.535,-0.043
38.540,-0.047
38.545,-0.047
38.550,-0.046
38.555,-0.036
38.560,-0.030
38.565,-0.018
38.570,0.006
38.575,0.019
38.580,0.026
38.585,0.010
38.590,-0.001
38.595,0.013
38.600,0.007
38.605,0.005
38.610,0.004
38.615,0.011
38.620,0.032
38.625,0.018
38.630,-0.003
38.635,-0.014
38.640,-0.006
38.645,0.026
38.650,0.025
38.655,-0.028
38.660,-0.127
38.665,-0.244
38.670,-0.327
38.675,-0.321
38.680,-0.208
38.685,-0.049
38.690,0.092
38.695,0.171
38.700,0.180
38.705,0.148
38.710,0.086
38.715,0.050
38.720,0.049
38.725,0.031
38.730,0.030
38.735,0.030
38.740,0.023
38.745,0.037
38.750,0.028
38.755,0.012
38.760,0.005
38.765,0.001
38.770,0.010
38.775,0.017
38.780,0.015
38.785,0.005
38.790,0.003
38.795,0.009
38.800,0.008
38.805,0.015
38.810,0.015
38.815,0.001
38.820,-0.003
38.825,-0.017
38.830,-0.019
38.835,-0.003
38.840,0.000
38.845,-0.001
38.850,-0.024
38.855,-0.045
38.860,-0.032
38.865,-0.017
38.870,-0.029
38.875,-0.055
38.880,-0.057
38.885,-0.063
38.890,-0.076
38.895,-0.067
38.900,-0.066
38.905,-0.075
38.910,-0.081
38.915,-0.076
38.920,-0.062
38.925,-0.066
38.930,-0.072
38.935,-0.062
38.940,-0.040
38.945,-0.029
38.950,-0.023
38.955,0.005
38.960,0.025
38.965,0.039
38.970,0.044
38.975,0.028
38.980,0.040
38.985,0.059
38.990,0.081
38.995,0.105
39.000,0.083
39.005,0.072
39.010,0.073
39.015,0.062
39.020,0.068
39.025,0.067
39.030,0.066
39.035,0.058
39.040,0.047
39.045,0.053
39.050,0.053
39.055,0.051
39.060,0.044
39.065,0.047
39.070,0.051
39.075,0.033
39.080,0.031
39.085,0.034
39.090,0.029
39.095,0.029
39.100,0.024
39.105,0.033
39.110,0.036
39.115,0.033
39.120,0.030
39.125,0.013
39.130,0.008
39.135,0.007
39.140,0.010
39.145,0.015
39.150,0.008
39.155,0.008
39.160,0.010
39.165,0.011
39.170,0.009
39.175,0.003
39.180,0.006
39.185,0.007
39.190,0.007
39.195,0.003
39.200,-0.006
39.205,-0.002
39.210,-0.002
39.215,-0.012
39.220,-0.010
39.225,-0.005
39.230,0.006
39.235,-0.001
39.240,-0.021
39.245,-0.024
39.250,-0.015
39.255,-0.001
39.260,0.002
39.265,-0.009
39.270,-0.026
39.275,-0.034
39.280,-0.018
39.285,-0.010
39.290,-0.026
39.295,-0.046
39.300,-0.052
39.305,-0.042
39.310,-0.036
39.315,-0.034
39.320,-0.032
39.325,-0.039
39.330,-0.038
39.335,-0.036
39.340,-0.047
39.345,-0.054
39.350,-0.054
39.355,-0.035
39.360,-0.003
39.365,0.014
39.370,0.013
39.375,0.013
39.380,0.023
39.385,0.018
39.390,0.011
39.395,0.014
39.400,0.016
39.405,0.025
39.410,0.024
39.415,0.015
39.420,0.008
39.425,0.001
39.430,0.026
39.435,0.051
39.440,0.034
39.445,-0.026
39.450,-0.119
39.455,-0.225
39.460,-0.311
39.465,-0.328
39.470,-0.259
39.475,-0.114
39.480,0.058
39.485,0.169
39.490,0.192
39.495,0.153
39.500,0.091
39.505,0.060
39.510,0.043
39.515,0.038
39.520,0.038
39.525,0.021
39.530,0.025
39.535,0.041
39.540,0.052
39.545,0.045
39.550,0.009
39.555,-0.001
39.560,0.012
39.565,0.014
39.570,0.010
39.575,0.010
39.580,0.013
39.585,0.011
39.590,0.007
39.595,0.007
39.600,0.010
39.605,0.004
39.610,-0.008
39.615,-0.010
39.620,-0.004
39.625,0.000
39.630,0.002
39.635,-0.014
39.640,-0.029
39.645,-0.031
39.650,-0.031
39.655,-0.033
39.660,-0.056
39.665,-0.063
39.670,-0.046
39.675,-0.042
39.680,-0.051
39.685,-0.076
39.690,-0.092
39.695,-0.084
39.700,-0.076
39.705,-0.068
39.710,-0.070
39.715,-0.076
39.720,-0.071
39.725,-0.064
39.730,-0.052
39.735,-0.037
39.740,-0.017
39.745,0.004
39.750,0.017
39.755,0.038
39.760,0.046
39.765,0.055
39.770,0.067
39.775,0.064
39.780,0.075
39.785,0.074
39.790,0.072
39.795,0.080
39.800,0.073
39.805,0.075
39.810,0.077
39.815,0.073
39.820,0.081
39.825,0.077
39.830,0.065
39.835,0.058
39.840,0.055
39.845,0.063
39.850,0.054
39.855,0.045
39.860,0.051
39.865,0.055
39.870,0.049
39.875,0.030
39.880,0.021
39.885,0.024
39.890,0.028
39.895,0.031
39.900,0.028
39.905,0.020
39.910,0.013
39.915,0.020
39.920,0.029
39.925,0.027
39.930,0.025
39.935,0.025
39.940,0.009
39.945,-0.006
39.950,-0.002
39.955,0.009
39.960,0.013
39.965,0.009
39.970,-0.004
39.975,-0.005
39.980,0.007
39.985,-0.006
39.990,-0.005
39.995,0.005
40.000,-0.007
40.005,-0.012
40.010,-0.015
40.015,-0.003
40.020,0.006
40.025,-0.015
40.030,-0.022
40.035,-0.013
40.040,-0.003
40.045,0.004
40.050,0.004
40.055,0.003
40.060,-0.007
40.065,-0.015
40.070,-0.014
40.075,-0.010
40.080,-0.017
40.085,-0.046
40.090,-0.056
40.095,-0.040
40.100,-0.035
40.105,-0.045
40.110,-0.069
40.115,-0.064
40.120,-0.035
40.125,-0.033
40.130,-0.035
40.135,-0.036
40.140,-0.035
40.145,-0.012
40.150,0.009
40.155,0.015
40.160,0.021
40.165,0.024
40.170,0.025
40.175,0.029
40.180,0.027
40.185,0.011
40.190,0.010
40.195,0.024
40.200,0.019
40.205,0.011
40.210,0.004
40.215,0.007
40.220,0.025
40.225,0.020
40.230,-0.007
40.235,-0.068
40.240,-0.182
40.245,-0.291
40.250,-0.310
40.255,-0.207
40.260,-0.030
40.265,0.123
40.270,0.193
40.275,0.190
40.280,0.148
40.285,0.101
40.290,0.071
40.295,0.051
40.300,0.024
40.305,0.005
40.310,-0.002
40.315,0.011
40.320,0.022
40.325,0.005
40.330,-0.007
40.335,-0.008
40.340,-0.001
40.345,-0.001
40.350,-0.015
40.355,-0.014
40.360,-0.004
40.365,0.010
40.370,0.010
40.375,-0.009
40.380,-0.009
40.385,-0.003
40.390,0.001
40.395,0.000
40.400,-0.024
40.405,-0.031
40.410,-0.024
40.415,-0.021
40.420,-0.025
40.425,-0.034
40.430,-0.025
40.435,-0.033
40.440,-0.043
40.445,-0.036
40.450,-0.049
40.455,-0.054
40.460,-0.066
40.465,-0.084
40.470,-0.076
40.475,-0.079
40.480,-0.079
40.485,-0.073
40.490,-0.082
40.495,-0.084
40.500,-0.090
40.505,-0.079
40.510,-0.055
40.515,-0.041
40.520,-0.032
40.525,-0.029
40.530,0.000
40.535,0.033
40.540,0.037
40.545,0.042
40.550,0.050
40.555,0.065
40.560,0.077
40.565,0.075
40.570,0.084
40.575,0.089
40.580,0.079
40.585,0.072
40.590,0.072
40.595,0.068
40.600,0.053
40.605,0.053
40.610,0.063
40.615,0.074
40.620,0.075
40.625,0.061
40.630,0.061
40.635,0.059
40.640,0.045
40.645,0.047
40.650,0.050
40.655,0.057
40.660,0.055
40.665,0.034
40.670,0.032
40.675,0.035
40.680,0.043
40.685,0.042
40.690,0.027
40.695,0.021
40.700,0.008
40.705,0.004
40.710,0.007
40.715,0.014
40.720,0.025
40.725,0.020
40.730,0.020
40.735,0.019
40.740,0.011
40.745,0.010
40.750,-0.001
40.755,-0.008
40.760,0.010
40.765,0.035
40.770,0.030
40.775,-0.005
40.780,-0.017
40.785,-0.008
40.790,0.000
40.795,0.010
40.800,0.014
40.805,0.004
40.810,-0.012
40.815,-0.013
40.820,0.004
40.825,0.006
40.830,-0.010
40.835,-0.028
40.840,-0.020
40.845,-0.002
40.850,-0.020
40.855,-0.030
40.860,-0.021
40.865,-0.019
40.870,-0.035
40.875,-0.058
40.880,-0.056
40.885,-0.049
40.890,-0.043
40.895,-0.036
40.900,-0.041
40.905,-0.044
40.910,-0.041
40.915,-0.020
40.920,-0.003
40.925,0.001
40.930,0.020
40.935,0.020
40.940,0.007
40.945,0.005
40.950,-0.005
40.955,0.005
40.960,0.011
40.965,0.005
40.970,0.010
40.975,0.004
40.980,-0.001
40.985,0.005
40.990,0.013
40.995,0.011
41.000,0.012
41.005,0.033
41.010,0.012
41.015,-0.050
41.020,-0.141
41.025,-0.260
41.030,-0.295
41.035,-0.223
41.040,-0.096
41.045,0.055
41.050,0.156
41.055,0.189
41.060,0.166
41.065,0.114
41.070,0.055
41.075,0.014
41.080,0.023
41.085,0.027
41.090,0.013
41.095,0.010
41.100,-0.001
41.105,0.004
41.110,0.016
41.115,0.002
41.120,-0.008
41.125,0.001
41.130,0.006
41.135,-0.006
41.140,-0.008
41.145,-0.006
41.150,-0.015
41.155,-0.002
41.160,0.014
41.165,0.005
41.170,-0.013
41.175,-0.027
41.180,-0.022
41.185,-0.006
41.190,-0.006
41.195,-0.019
41.200,-0.025
41.205,-0.027
41.210,-0.039
41.215,-0.042
41.220,-0.038
41.225,-0.046
41.230,-0.050
41.235,-0.050
41.240,-0.058
41.245,-0.063
41.250,-0.063
41.255,-0.060
41.260,-0.073
41.265,-0.100
41.270,-0.101
41.275,-0.080
41.280,-0.073
41.285,-0.084
41.290,-0.075
41.295,-0.047
41.300,-0.038
41.305,-0.034
41.310,-0.024
41.315,0.002
41.320,0.037
41.325,0.048
41.330,0.058
41.335,0.061
41.340,0.052
41.345,0.066
41.350,0.073
41.355,0.079
41.360,0.081
41.365,0.074
41.370,0.083
41.375,0.078
41.380,0.078
41.385,0.081
41.390,0.065
41.395,0.065
41.400,0.070
41.405,0.060
41.410,0.042
41.415,0.040
41.420,0.052
41.425,0.059
41.430,0.063
41.435,0.041
41.440,0.015
41.445,0.021
41.450,0.026
41.455,0.035
41.460,0.041
41.465,0.033
41.470,0.022
41.475,0.012
41.480,0.017
41.485,0.017
41.490,0.013
41.495,0.013
41.500,0.014
41.505,0.020
41.510,0.015
41.515,0.010
41.520,0.015
41.525,0.018
41.530,0.026
41.535,0.023
41.540,0.005
41.545,0.001
41.550,0.003
41.555,0.008
41.560,-0.005
41.565,-0.023
41.570,-0.014
41.575,-0.005
41.580,0.005
41.585,0.007
41.590,-0.003
41.595,-0.006
41.600,-0.011
41.605,-0.009
41.610,-0.003
41.615,-0.003
41.620,-0.003
41.625,-0.009
41.630,-0.009
41.635,-0.003
41.640,-0.010
41.645,-0.021
41.650,-0.034
41.655,-0.037
41.660,-0.031
41.665,-0.028
41.670,-0.035
41.675,-0.046
41.680,-0.042
41.685,-0.043
41.690,-0.051
41.695,-0.049
41.700,-0.051
41.705,-0.040
41.710,-0.022
41.715,-0.004
41.720,0.020
41.725,0.019
41.730,0.008
41.735,0.010
41.740,0.010
41.745,0.015
41.750,0.013
41.755,0.012
41.760,0.021
41.765,0.021
41.770,0.012
41.775,-0.002
41.780,-0.009
41.785,0.006
41.790,0.024
41.795,0.022
41.800,-0.006
41.805,-0.053
41.810,-0.136
41.815,-0.255
41.820,-0.340
41.825,-0.303
41.830,-0.165
41.835,-0.016
41.840,0.106
41.845,0.176
41.850,0.166
41.855,0.120
41.860,0.078
41.865,0.057
41.870,0.052
41.875,0.034
41.880,0.027
41.885,0.026
41.890,0.024
41.895,0.031
41.900,0.029
41.905,0.026
41.910,0.017
41.915,0.010
41.920,0.017
41.925,0.011
41.930,0.012
41.935,0.022
41.940,0.016
41.945,0.008
41.950,0.001
41.955,-0.004
41.960,-0.011
41.965,-0.013
41.970,-0.002
41.975,0.002
41.980,0.008
41.985,0.002
41.990,-0.017
41.995,-0.022
42.000,-0.026
42.005,-0.024
42.010,-0.028
42.015,-0.039
42.020,-0.038
42.025,-0.045
42.030,-0.053
42.035,-0.062
42.040,-0.071
42.045,-0.068
42.050,-0.068
42.055,-0.069
42.060,-0.079
42.065,-0.090
42.070,-0.079
42.075,-0.063
42.080,-0.048
42.085,-0.047
42.090,-0.040
42.095,-0.008
42.100,0.001
42.105,0.003
42.110,0.019
42.115,0.043
42.120,0.066
42.125,0.060
42.130,0.067
42.135,0.074
42.140,0.068
42.145,0.079
42.150,0.071
42.155,0.060
42.160,0.063
42.165,0.069
42.170,0.076
42.175,0.072
42.180,0.064
42.185,0.060
42.190,0.068
42.195,0.069
42.200,0.058
42.205,0.060
42.210,0.045
42.215,0.034
42.220,0.053
42.225,0.054
42.230,0.048
42.235,0.033
42.240,0.013
42.245,0.023
42.250,0.038
42.255,0.038
42.260,0.024
42.265,-0.002
42.270,-0.010
42.275,-0.004
42.280,0.013
42.285,0.020
42.290,0.005
42.295,0.006
42.300,0.000
42.305,0.000
42.310,0.014
42.315,0.010
42.320,0.006
42.325,0.003
42.330,0.006
42.335,0.005
42.340,-0.011
42.345,-0.009
42.350,-0.003
42.355,-0.003
42.360,-0.001
42.365,-0.003
42.370,0.009
42.375,0.007
42.380,-0.002
42.385,-0.003
42.390,-0.005
42.395,-0.006
42.400,-0.018
42.405,-0.019
42.410,-0.014
42.415,-0.017
42.420,-0.010
42.425,-0.007
42.430,-0.005
42.435,-0.008
42.440,-0.019
42.445,-0.011
42.450,-0.011
42.455,-0.036
42.460,-0.063
42.465,-0.065
42.470,-0.044
42.475,-0.040
42.480,-0.051
42.485,-0.055
42.490,-0.050
42.495,-0.038
42.500,-0.038
42.505,-0.045
42.510,-0.033
42.515,-0.008
42.520,0.028
42.525,0.042
42.530,0.022
42.535,0.005
42.540,0.000
42.545,0.003
42.550,0.012
42.555,0.019
42.560,0.016
42.565,0.014
42.570,0.016
42.575,0.014
42.580,0.018
42.585,0.021
42.590,0.025
42.595,0.013
42.600,-0.023
42.605,-0.078
42.610,-0.196
42.615,-0.321
42.620,-0.349
42.625,-0.261
42.630,-0.091
42.635,0.060
42.640,0.152
42.645,0.198
42.650,0.170
42.655,0.104
42.660,0.059
42.665,0.053
42.670,0.053
42.675,0.041
42.680,0.042
42.685,0.032
42.690,0.013
42.695,0.020
42.700,0.026
42.705,0.020
42.710,0.018
42.715,0.020
42.720,0.032
42.725,0.031
42.730,0.014
42.735,0.007
42.740,0.006
42.745,-0.003
42.750,-0.014
42.755,-0.006
42.760,-0.004
42.765,-0.005
42.770,0.004
42.775,-0.008
42.780,-0.016
42.785,-0.020
42.790,-0.029
42.795,-0.017
42.800,-0.021
42.805,-0.033
42.810,-0.033
42.815,-0.045
42.820,-0.060
42.825,-0.056
42.830,-0.042
42.835,-0.057
42.840,-0.079
42.845,-0.080
42.850,-0.076
42.855,-0.076
42.860,-0.091
42.865,-0.096
42.870,-0.080
42.875,-0.071
42.880,-0.066
42.885,-0.070
42.890,-0.061
42.895,-0.025
42.900,0.000
42.905,0.015
42.910,0.025
42.915,0.045
42.920,0.080
42.925,0.088
42.930,0.067
42.935,0.054
42.940,0.064
42.945,0.090
42.950,0.095
42.955,0.081
42.960,0.079
42.965,0.084
42.970,0.087
42.975,0.085
42.980,0.087
42.985,0.075
42.990,0.054
42.995,0.044
43.000,0.044
43.005,0.049
43.010,0.051
43.015,0.058
43.020,0.062
43.025,0.055
43.030,0.051
43.035,0.038
43.040,0.026
43.045,0.026
43.050,0.031
43.055,0.040
43.060,0.035
43.065,0.019
43.070,0.025
43.075,0.025
43.080,0.023
43.085,0.038
43.090,0.035
43.095,0.017
43.100,0.000
43.105,-0.004
43.110,0.002
43.115,0.008
43.120,0.009
43.125,0.006
43.130,0.007
43.135,-0.001
43.140,-0.007
43.145,0.002
43.150,0.008
43.155,0.014
43.160,0.014
43.165,0.003
43.170,0.001
43.175,0.001
43.180,-0.005
43.185,-0.018
43.190,-0.019
43.195,-0.003
43.200,-0.005
43.205,-0.008
43.210,-0.004
43.215,-0.001
43.220,-0.004
43.225,-0.016
43.230,-0.015
43.235,-0.018
43.240,-0.030
43.245,-0.031
43.250,-0.037
43.255,-0.034
43.260,-0.038
43.265,-0.056
43.270,-0.062
43.275,-0.060
43.280,-0.049
43.285,-0.048
43.290,-0.053
43.295,-0.040
43.300,-0.026
43.305,-0.007
43.310,0.005
43.315,0.014
43.320,0.029
43.325,0.015
43.330,0.002
43.335,-0.003
43.340,-0.006
43.345,0.007
43.350,0.017
43.355,0.021
43.360,0.010
43.365,0.006
43.370,0.018
43.375,0.020
43.380,0.023
43.385,0.020
43.390,0.010
43.395,-0.010
43.400,-0.075
43.405,-0.186
43.410,-0.281
43.415,-0.272
43.420,-0.166
43.425,-0.018
43.430,0.122
43.435,0.188
43.440,0.186
43.445,0.142
43.450,0.076
43.455,0.037
43.460,0.019
43.465,0.011
43.470,0.016
43.475,0.019
43.480,0.017
43.485,0.014
43.490,0.007
43.495,0.003
43.500,-0.005
43.505,-0.007
43.510,-0.008
43.515,-0.021
43.520,-0.020
43.525,-0.005
43.530,0.006
43.535,-0.009
43.540,-0.022
43.545,-0.014
43.550,-0.018
43.555,-0.017
43.560,-0.012
43.565,-0.005
43.570,-0.009
43.575,-0.027
43.580,-0.027
43.585,-0.034
43.590,-0.037
43.595,-0.025
43.600,-0.026
43.605,-0.037
43.610,-0.061
43.615,-0.066
43.620,-0.056
43.625,-0.065
43.630,-0.075
43.635,-0.077
43.640,-0.075
43.645,-0.072
43.650,-0.073
43.655,-0.063
43.660,-0.062
43.665,-0.076
43.670,-0.070
43.675,-0.054
43.680,-0.037
43.685,-0.033
43.690,-0.034
43.695,-0.015
43.700,0.013
43.705,0.033
43.710,0.037
43.715,0.040
43.720,0.056
43.725,0.071
43.730,0.081
43.735,0.082
43.740,0.083
43.745,0.087
43.750,0.074
43.755,0.067
43.760,0.071
43.765,0.065
43.770,0.068
43.775,0.065
43.780,0.064
43.785,0.073
43.790,0.064
43.795,0.050
43.800,0.045
43.805,0.045
43.810,0.051
43.815,0.056
43.820,0.051
43.825,0.036
43.830,0.027
43.835,0.018
43.840,0.018
43.845,0.031
43.850,0.031
43.855,0.027
43.860,0.020
43.865,0.022
43.870,0.026
43.875,0.011
43.880,0.013
43.885,0.014
43.890,0.005
43.895,0.013
43.900,0.017
43.905,0.014
43.910,0.010
43.915,0.006
43.920,0.006
43.925,0.004
43.930,-0.001
43.935,-0.003
43.940,0.002
43.945,0.011
43.950,0.008
43.955,0.006
43.960,0.008
43.965,0.006
43.970,0.012
43.975,0.012
43.980,0.004
43.985,-0.004
43.990,-0.004
43.995,0.013
44.000,0.010
44.005,-0.017
44.010,-0.024
44.015,-0.019
44.020,-0.015
44.025,-0.018
44.030,-0.019
44.035,-0.015
44.040,-0.018
44.045,-0.027
44.050,-0.040
44.055,-0.040
44.060,-0.041
44.065,-0.043
44.070,-0.033
44.075,-0.039
44.080,-0.042
44.085,-0.036
44.090,-0.038
44.095,-0.033
44.100,-0.028
44.105,-0.012
44.110,0.000
44.115,-0.008
44.120,0.006
44.125,0.017
44.130,0.012
44.135,0.010
44.140,0.002
44.145,0.005
44.150,0.010
44.155,0.014
44.160,0.019
44.165,0.011
44.170,0.011
44.175,0.007
44.180,0.007
44.185,0.010
44.190,0.009
44.195,0.016
44.200,-0.007
44.205,-0.085
44.210,-0.214
44.215,-0.320
44.220,-0.316
44.225,-0.221
44.230,-0.055
44.235,0.095
44.240,0.167
44.245,0.198
44.250,0.157
44.255,0.087
44.260,0.055
44.265,0.046
44.270,0.043
44.275,0.037
44.280,0.041
44.285,0.040
44.290,0.024
44.295,0.016
44.300,0.008
44.305,0.000
44.310,-0.003
44.315,0.003
44.320,0.023
44.325,0.022
44.330,0.002
44.335,-0.013
44.340,-0.011
44.345,0.006
44.350,0.001
44.355,-0.010
44.360,-0.006
44.365,-0.007
44.370,-0.003
44.375,0.002
44.380,0.001
44.385,-0.010
44.390,-0.019
44.395,-0.017
44.400,-0.023
44.405,-0.022
44.410,-0.022
44.415,-0.035
44.420,-0.051
44.425,-0.063
44.430,-0.050
44.435,-0.054
44.440,-0.090
44.445,-0.100
44.450,-0.090
44.455,-0.085
44.460,-0.088
44.465,-0.090
44.470,-0.076
44.475,-0.062
44.480,-0.055
44.485,-0.046
44.490,-0.033
44.495,-0.020
44.500,-0.006
44.505,0.023
44.510,0.036
44.515,0.037
44.520,0.058
44.525,0.071
44.530,0.075
44.535,0.083
44.540,0.091
44.545,0.100
44.550,0.084
44.555,0.056
44.560,0.049
44.565,0.064
44.570,0.073
44.575,0.063
44.580,0.059
44.585,0.058
44.590,0.061
44.595,0.060
44.600,0.051
44.605,0.056
44.610,0.053
44.615,0.046
44.620,0.047
44.625,0.043
44.630,0.046
44.635,0.033
44.640,0.021
44.645,0.034
44.650,0.036
44.655,0.033
44.660,0.032
44.665,0.021
44.670,0.007
44.675,0.001
44.680,0.016
44.685,0.026
44.690,0.018
44.695,0.014
44.700,0.006
44.705,0.010
44.710,0.023
44.715,0.011
44.720,0.002
44.725,0.000
44.730,-0.006
44.735,-0.005
44.740,-0.005
44.745,-0.008
44.750,-0.011
44.755,-0.007
44.760,-0.001
44.765,0.005
44.770,0.012
44.775,0.001
44.780,-0.004
44.785,0.005
44.790,-0.001
44.795,-0.011
44.800,-0.016
44.805,-0.021
44.810,-0.027
44.815,-0.018
44.820,-0.002
44.825,-0.008
44.830,-0.010
44.835,-0.015
44.840,-0.016
44.845,-0.003
44.850,-0.006
44.855,-0.011
44.860,-0.022
44.865,-0.040
44.870,-0.045
44.875,-0.050
44.880,-0.036
44.885,-0.029
44.890,-0.043
44.895,-0.047
44.900,-0.054
44.905,-0.057
44.910,-0.051
44.915,-0.049
44.920,-0.032
44.925,-0.011
44.930,0.006
44.935,0.018
44.940,0.016
44.945,0.010
44.950,0.001
44.955,0.007
44.960,0.019
44.965,0.019
44.970,0.016
44.975,0.007
44.980,0.011
44.985,0.007
44.990,-0.002
44.995,0.009
45.000,0.017
45.005,0.026
45.010,0.019
45.015,-0.016
45.020,-0.085
45.025,-0.210
45.030,-0.321
45.035,-0.346
45.040,-0.257
45.045,-0.085
45.050,0.066
45.055,0.160
45.060,0.191
45.065,0.154
45.070,0.096
45.075,0.056
45.080,0.051
45.085,0.053
45.090,0.039
45.095,0.041
45.100,0.044
45.105,0.036
45.110,0.026
45.115,0.016
45.120,0.022
45.125,0.027
45.130,0.015
45.135,0.001
45.140,0.004
45.145,0.013
45.150,0.006
45.155,0.011
45.160,0.015
45.165,0.008
45.170,0.007
45.175,-0.007
45.180,-0.013
45.185,-0.007
45.190,-0.010
45.195,-0.014
45.200,-0.018
45.205,-0.017
45.210,-0.015
45.215,-0.026
45.220,-0.030
45.225,-0.031
45.230,-0.026
45.235,-0.037
45.240,-0.063
45.245,-0.068
45.250,-0.064
45.255,-0.055
45.260,-0.056
45.265,-0.078
45.270,-0.095
45.275,-0.102
45.280,-0.081
45.285,-0.066
