'Elapsed time','ECG'
'seconds','mV'
0.000,-0.075
0.005,-0.072
0.010,0.064
0.015,-0.043
0.020,-0.162
0.025,-0.159
0.030,-0.388
0.035,-0.565
0.040,-0.417
0.045,-0.188
0.050,0.057
0.055,0.204
0.060,0.189
0.065,0.131
0.070,0.104
0.075,0.133
0.080,0.108
0.085,0.063
0.090,0.074
0.095,0.064
0.100,0.063
0.105,0.068
0.110,0.040
0.115,-0.023
0.120,-0.050
0.125,0.036
0.130,0.081
0.135,0.086
0.140,0.091
0.145,0.049
0.150,0.041
0.155,0.008
0.160,-0.011
0.165,0.011
0.170,-0.001
0.175,0.026
0.180,0.007
0.185,-0.021
0.190,0.002
0.195,-0.017
0.200,-0.003
0.205,0.002
0.210,-0.004
0.215,0.004
0.220,-0.023
0.225,-0.011
0.230,-0.024
0.235,-0.036
0.240,-0.014
0.245,-0.038
0.250,-0.020
0.255,-0.020
0.260,-0.043
0.265,-0.033
0.270,-0.056
0.275,-0.046
0.280,-0.061
0.285,-0.087
0.290,-0.073
0.295,-0.084
0.300,-0.062
0.305,-0.064
0.310,-0.062
0.315,-0.037
0.320,-0.059
0.325,-0.029
0.330,-0.024
0.335,-0.028
0.340,0.016
0.345,0.013
0.350,0.036
0.355,0.043
0.360,0.047
0.365,0.086
0.370,0.081
0.375,0.103
0.380,0.091
0.385,0.061
0.390,0.079
0.395,0.067
0.400,0.079
0.405,0.076
0.410,0.067
0.415,0.079
0.420,0.058
0.425,0.080
0.430,0.075
0.435,0.062
0.440,0.088
0.445,0.067
0.450,0.065
0.455,0.045
0.460,0.032
0.465,0.064
0.470,0.044
0.475,0.033
0.480,0.005
0.485,-0.003
0.490,0.044
0.495,0.023
0.500,0.024
0.505,0.034
0.510,0.024
0.515,0.020
0.520,-0.016
0.525,0.004
0.530,0.007
0.535,-0.012
0.540,0.009
0.545,-0.001
0.550,0.002
0.555,-0.015
0.560,-0.015
0.565,0.011
0.570,-0.019
0.575,-0.003
0.580,-0.006
0.585,-0.032
0.590,-0.020
0.595,-0.042
0.600,-0.031
0.605,-0.025
0.610,-0.023
0.615,0.001
0.620,-0.012
0.625,0.014
0.630,0.009
0.635,-0.014
0.640,0.003
0.645,-0.015
0.650,-0.007
0.655,-0.019
0.660,-0.036
0.665,-0.013
0.670,-0.024
0.675,-0.008
0.680,-0.021
0.685,-0.038
0.690,-0.010
0.695,-0.028
0.700,-0.020
0.705,-0.027
0.710,-0.035
0.715,-0.019
0.720,-0.047
0.725,-0.021
0.730,-0.011
0.735,-0.024
0.740,-0.018
0.745,-0.059
0.750,-0.053
0.755,-0.046
0.760,-0.051
0.765,-0.033
0.770,-0.047
0.775,-0.016
0.780,-0.008
0.785,-0.006
0.790,0.033
0.795,0.010
0.800,0.008
0.805,0.003
0.810,-0.009
0.815,0.003
0.820,-0.019
0.825,0.009
0.830,0.011
0.835,-0.018
0.840,-0.005
0.845,-0.011
0.850,0.008
0.855,0.007
0.860,0.003
0.865,0.017
0.870,-0.014
0.875,0.008
0.880,0.007
0.885,-0.021
0.890,-0.006
0.895,-0.044
0.900,-0.087
0.905,-0.182
0.910,-0.328
0.915,-0.432
0.920,-0.443
0.925,-0.222
0.930,0.033
0.935,0.149
0.940,0.170
0.945,0.122
0.950,0.136
0.955,0.139
0.960,0.106
0.965,0.091
0.970,0.047
0.975,0.053
0.980,0.040
0.985,0.016
0.990,0.038
0.995,0.014
1.000,0.027
1.005,0.032
1.010,0.014
1.015,0.025
1.020,0.002
1.025,0.021
1.030,0.023
1.035,0.008
1.040,0.023
1.045,-0.011
1.050,0.000
1.055,0.007
1.060,-0.004
1.065,0.013
1.070,-0.004
1.075,0.015
1.080,0.001
1.085,-0.024
1.090,0.005
1.095,-0.014
1.100,-0.006
1.105,-0.009
1.110,-0.026
1.115,-0.008
1.120,-0.034
1.125,-0.026
1.130,-0.030
1.135,-0.055
1.140,-0.030
1.145,-0.044
1.150,-0.044
1.155,-0.047
1.160,-0.057
1.165,-0.040
1.170,-0.062
1.175,-0.045
1.180,-0.045
1.185,-0.060
1.190,-0.030
1.195,-0.045
1.200,-0.032
1.205,-0.023
1.210,-0.020
1.215,0.013
1.220,-0.001
1.225,0.025
1.230,0.043
1.235,0.043
1.240,0.075
1.245,0.057
1.250,0.069
1.255,0.075
1.260,0.068
1.265,0.089
1.270,0.065
1.275,0.081
1.280,0.083
1.285,0.065
1.290,0.089
1.295,0.072
1.300,0.078
1.305,0.077
1.310,0.064
1.315,0.075
1.320,0.050
1.325,0.069
1.330,0.064
1.335,0.042
1.340,0.069
1.345,0.047
1.350,0.043
1.355,0.030
1.360,0.017
1.365,0.035
1.370,0.012
1.375,0.031
1.380,0.029
1.385,0.011
1.390,0.030
1.395,-0.003
1.400,0.006
1.405,0.012
1.410,-0.007
1.415,-0.004
1.420,-0.037
1.425,-0.013
1.430,-0.004
1.435,-0.021
1.440,0.003
1.445,-0.014
1.450,-0.007
1.455,-0.012
1.460,-0.022
1.465,0.001
1.470,-0.023
1.475,-0.006
1.480,-0.005
1.485,-0.025
1.490,0.001
1.495,-0.016
1.500,-0.003
1.505,-0.003
1.510,-0.024
1.515,-0.008
1.520,-0.022
1.525,0.000
1.530,-0.007
1.535,-0.033
1.540,-0.004
1.545,-0.024
1.550,-0.024
1.555,-0.025
1.560,-0.035
1.565,-0.012
1.570,-0.034
1.575,-0.018
1.580,-0.008
1.585,-0.030
1.590,-0.019
1.595,-0.038
1.600,-0.025
1.605,-0.017
1.610,-0.024
1.615,-0.005
1.620,-0.022
1.625,0.003
1.630,0.008
1.635,-0.009
1.640,0.017
1.645,0.000
1.650,0.009
1.655,0.013
1.660,0.000
1.665,0.014
1.670,-0.012
1.675,0.007
1.680,0.014
1.685,-0.004
1.690,0.019
1.695,-0.003
1.700,0.001
1.705,0.002
1.710,-0.009
1.715,0.012
1.720,-0.014
1.725,0.005
1.730,0.007
1.735,-0.016
1.740,0.017
1.745,-0.014
1.750,-0.066
1.755,-0.165
1.760,-0.313
1.765,-0.425
1.770,-0.462
1.775,-0.270
1.780,-0.009
1.785,0.121
1.790,0.155
1.795,0.121
1.800,0.135
1.805,0.136
1.810,0.092
1.815,0.078
1.820,0.053
1.825,0.066
1.830,0.050
1.835,0.028
1.840,0.055
1.845,0.026
1.850,0.032
1.855,0.043
1.860,0.023
1.865,0.035
1.870,0.019
1.875,0.038
1.880,0.036
1.885,0.009
1.890,0.029
1.895,0.003
1.900,0.015
1.905,0.030
1.910,0.014
1.915,0.021
1.920,-0.011
1.925,0.005
1.930,0.010
1.935,-0.022
1.940,0.002
1.945,-0.007
1.950,-0.001
1.955,-0.001
1.960,-0.016
1.965,0.001
1.970,-0.027
1.975,-0.019
1.980,-0.016
1.985,-0.041
1.990,-0.026
1.995,-0.052
2.000,-0.053
2.005,-0.046
2.010,-0.050
2.015,-0.034
2.020,-0.067
2.025,-0.058
2.030,-0.053
2.035,-0.066
2.040,-0.035
2.045,-0.054
2.050,-0.042
2.055,-0.020
2.060,-0.023
2.065,0.005
2.070,0.001
2.075,0.024
2.080,0.032
2.085,0.022
2.090,0.059
2.095,0.053
2.100,0.070
2.105,0.079
2.110,0.067
2.115,0.087
2.120,0.069
2.125,0.085
2.130,0.086
2.135,0.068
2.140,0.096
2.145,0.068
2.150,0.061
2.155,0.062
2.160,0.047
2.165,0.069
2.170,0.044
2.175,0.056
2.180,0.059
2.185,0.035
2.190,0.059
2.195,0.042
2.200,0.043
2.205,0.042
2.210,0.025
2.215,0.042
2.220,0.019
2.225,0.031
2.230,0.029
2.235,0.004
2.240,0.029
2.245,0.009
2.250,0.007
2.255,0.007
2.260,-0.010
2.265,0.010
2.270,-0.009
2.275,0.004
2.280,0.003
2.285,-0.026
2.290,-0.001
2.295,-0.016
2.300,-0.013
2.305,-0.009
2.310,-0.022
2.315,-0.002
2.320,-0.026
2.325,-0.013
2.330,-0.006
2.335,-0.028
2.340,-0.004
2.345,-0.023
2.350,-0.020
2.355,-0.014
2.360,-0.028
2.365,-0.007
2.370,-0.024
2.375,-0.012
2.380,-0.012
2.385,-0.037
2.390,-0.009
2.395,-0.021
2.400,-0.018
2.405,-0.015
2.410,-0.036
2.415,-0.016
2.420,-0.029
2.425,-0.016
2.430,-0.013
2.435,-0.040
2.440,-0.025
2.445,-0.045
2.450,-0.042
2.455,-0.028
2.460,-0.031
2.465,-0.011
2.470,-0.030
2.475,-0.006
2.480,0.012
2.485,-0.006
2.490,0.024
2.495,0.013
2.500,0.015
2.505,0.014
2.510,-0.011
2.515,0.008
2.520,-0.006
2.525,0.008
2.530,0.009
2.535,-0.013
2.540,0.016
2.545,-0.005
2.550,-0.007
2.555,-0.002
2.560,-0.014
2.565,0.009
2.570,-0.013
2.575,-0.002
2.580,0.007
2.585,-0.026
2.590,-0.053
2.595,-0.173
2.600,-0.307
2.605,-0.434
2.610,-0.481
2.615,-0.287
2.620,-0.030
2.625,0.146
2.630,0.160
2.635,0.109
2.640,0.141
2.645,0.135
2.650,0.111
2.655,0.077
2.660,0.048
2.665,0.063
2.670,0.031
2.675,0.043
2.680,0.050
2.685,0.018
2.690,0.045
2.695,0.031
2.700,0.023
2.705,0.022
2.710,0.012
2.715,0.036
2.720,0.012
2.725,0.021
2.730,0.026
2.735,0.002
2.740,0.030
2.745,0.007
2.750,0.004
2.755,0.013
2.760,-0.003
2.765,0.013
2.770,-0.011
2.775,0.004
2.780,0.011
2.785,-0.022
2.790,0.002
2.795,-0.013
2.800,-0.014
2.805,-0.008
2.810,-0.028
2.815,-0.014
2.820,-0.037
2.825,-0.030
2.830,-0.029
2.835,-0.057
2.840,-0.033
2.845,-0.056
2.850,-0.060
2.855,-0.053
2.860,-0.067
2.865,-0.044
2.870,-0.062
2.875,-0.052
2.880,-0.046
2.885,-0.063
2.890,-0.028
2.895,-0.038
2.900,-0.026
2.905,-0.004
2.910,-0.006
2.915,0.029
2.920,0.023
2.925,0.049
2.930,0.070
2.935,0.054
2.940,0.086
2.945,0.072
2.950,0.075
2.955,0.086
2.960,0.073
2.965,0.099
2.970,0.076
2.975,0.078
2.980,0.083
2.985,0.059
2.990,0.087
2.995,0.066
3.000,0.063
3.005,0.071
3.010,0.051
3.015,0.073
3.020,0.050
3.025,0.052
3.030,0.057
3.035,0.031
3.040,0.058
3.045,0.041
3.050,0.034
3.055,0.044
3.060,0.027
3.065,0.041
3.070,0.015
3.075,0.018
3.080,0.027
3.085,0.005
3.090,0.026
3.095,0.003
3.100,0.001
3.105,0.009
3.110,-0.013
3.115,0.004
3.120,-0.017
3.125,-0.008
3.130,-0.002
3.135,-0.030
3.140,0.003
3.145,-0.009
3.150,-0.018
3.155,-0.010
3.160,-0.029
3.165,-0.008
3.170,-0.024
3.175,-0.012
3.180,-0.003
3.185,-0.034
3.190,-0.003
3.195,-0.017
3.200,-0.022
3.205,-0.010
3.210,-0.033
3.215,-0.018
3.220,-0.032
3.225,-0.017
3.230,-0.006
3.235,-0.037
3.240,-0.020
3.245,-0.037
3.250,-0.033
3.255,-0.016
3.260,-0.035
3.265,-0.024
3.270,-0.049
3.275,-0.038
3.280,-0.022
3.285,-0.039
3.290,-0.008
3.295,-0.024
3.300,-0.022
3.305,-0.007
3.310,-0.018
3.315,0.021
3.320,0.007
3.325,0.007
3.330,0.014
3.335,-0.011
3.340,0.020
3.345,0.005
3.350,0.001
3.355,0.021
3.360,0.005
3.365,0.009
3.370,-0.016
3.375,-0.005
3.380,0.005
3.385,-0.017
3.390,0.010
3.395,-0.009
3.400,-0.007
3.405,0.007
3.410,-0.008
3.415,0.014
3.420,-0.039
3.425,-0.119
3.430,-0.239
3.435,-0.421
3.440,-0.498
3.445,-0.444
3.450,-0.182
3.455,0.090
3.460,0.160
3.465,0.165
3.470,0.131
3.475,0.152
3.480,0.156
3.485,0.081
3.490,0.077
3.495,0.059
3.500,0.045
3.505,0.052
3.510,0.041
3.515,0.057
3.520,0.032
3.525,0.044
3.530,0.056
3.535,0.023
3.540,0.042
3.545,0.023
3.550,0.020
3.555,0.033
3.560,0.010
3.565,0.026
3.570,0.011
3.575,0.020
3.580,0.026
3.585,-0.004
3.590,0.025
3.595,0.013
3.600,0.004
3.605,0.010
3.610,-0.014
3.615,0.009
3.620,-0.005
3.625,-0.001
3.630,0.005
3.635,-0.027
3.640,-0.002
3.645,-0.020
3.650,-0.030
3.655,-0.016
3.660,-0.035
3.665,-0.024
3.670,-0.045
3.675,-0.044
3.680,-0.043
3.685,-0.074
3.690,-0.048
3.695,-0.057
3.700,-0.060
3.705,-0.055
3.710,-0.071
3.715,-0.039
3.720,-0.049
3.725,-0.038
3.730,-0.021
3.735,-0.036
3.740,0.009
3.745,0.009
3.750,0.014
3.755,0.041
3.760,0.038
3.765,0.071
3.770,0.068
3.775,0.076
3.780,0.089
3.785,0.069
3.790,0.095
3.795,0.081
3.800,0.077
3.805,0.089
3.810,0.068
3.815,0.083
3.820,0.069
3.825,0.079
3.830,0.087
3.835,0.052
3.840,0.071
3.845,0.050
3.850,0.042
3.855,0.056
3.860,0.034
3.865,0.050
3.870,0.034
3.875,0.037
3.880,0.040
3.885,0.013
3.890,0.043
3.895,0.028
3.900,0.024
3.905,0.033
3.910,0.009
3.915,0.026
3.920,0.005
3.925,0.006
3.930,0.013
3.935,-0.019
3.940,0.009
3.945,-0.001
3.950,-0.004
3.955,0.008
3.960,-0.020
3.965,-0.006
3.970,-0.024
3.975,-0.016
3.980,-0.002
3.985,-0.027
3.990,-0.002
3.995,-0.022
4.000,-0.027
4.005,-0.009
4.010,-0.027
4.015,-0.011
4.020,-0.028
4.025,-0.024
4.030,-0.014
4.035,-0.042
4.040,-0.013
4.045,-0.019
4.050,-0.022
4.055,-0.014
4.060,-0.042
4.065,-0.019
4.070,-0.031
4.075,-0.036
4.080,-0.035
4.085,-0.062
4.090,-0.021
4.095,-0.019
4.100,-0.025
4.105,-0.013
4.110,-0.029
4.115,-0.010
4.120,-0.019
4.125,0.004
4.130,0.027
4.135,-0.003
4.140,0.019
4.145,0.002
4.150,-0.003
4.155,0.014
4.160,-0.011
4.165,0.007
4.170,-0.003
4.175,0.001
4.180,0.012
4.185,-0.016
4.190,0.010
4.195,-0.004
4.200,-0.010
4.205,0.005
4.210,-0.019
4.215,0.002
4.220,-0.006
4.225,-0.002
4.230,-0.009
4.235,-0.101
4.240,-0.188
4.245,-0.348
4.250,-0.497
4.255,-0.496
4.260,-0.312
4.265,0.005
4.270,0.156
4.275,0.154
4.280,0.139
4.285,0.121
4.290,0.155
4.295,0.117
4.300,0.070
4.305,0.075
4.310,0.049
4.315,0.051
4.320,0.044
4.325,0.054
4.330,0.050
4.335,0.016
4.340,0.050
4.345,0.036
4.350,0.021
4.355,0.033
4.360,0.008
4.365,0.024
4.370,0.014
4.375,0.017
4.380,0.027
4.385,-0.003
4.390,0.024
4.395,0.015
4.400,0.005
4.405,0.018
4.410,-0.009
4.415,0.004
4.420,-0.005
4.425,-0.001
4.430,0.007
4.435,-0.024
4.440,-0.002
4.445,-0.016
4.450,-0.021
4.455,-0.006
4.460,-0.037
4.465,-0.024
4.470,-0.034
4.475,-0.031
4.480,-0.024
4.485,-0.065
4.490,-0.047
4.495,-0.056
4.500,-0.064
4.505,-0.052
4.510,-0.073
4.515,-0.050
4.520,-0.057
4.525,-0.055
4.530,-0.040
4.535,-0.059
4.540,-0.019
4.545,-0.016
4.550,-0.014
4.555,0.016
4.560,0.010
4.565,0.041
4.570,0.041
4.575,0.054
4.580,0.077
4.585,0.058
4.590,0.097
4.595,0.088
4.600,0.073
4.605,0.094
4.610,0.073
4.615,0.089
4.620,0.077
4.625,0.073
4.630,0.088
4.635,0.064
4.640,0.083
4.645,0.068
4.650,0.057
4.655,0.070
4.660,0.047
4.665,0.062
4.670,0.048
4.675,0.047
4.680,0.057
4.685,0.024
4.690,0.051
4.695,0.044
4.700,0.029
4.705,0.041
4.710,0.020
4.715,0.033
4.720,0.016
4.725,0.010
4.730,0.019
4.735,-0.007
4.740,0.016
4.745,0.007
4.750,0.004
4.755,0.016
4.760,-0.018
4.765,-0.005
4.770,-0.017
4.775,-0.016
4.780,-0.002
4.785,-0.029
4.790,-0.001
4.795,-0.011
4.800,-0.024
4.805,-0.005
4.810,-0.025
4.815,-0.014
4.820,-0.028
4.825,-0.029
4.830,-0.012
4.835,-0.036
4.840,-0.012
4.845,-0.022
4.850,-0.033
4.855,-0.011
4.860,-0.026
4.865,-0.012
4.870,-0.031
4.875,-0.043
4.880,-0.034
4.885,-0.053
4.890,-0.015
4.895,-0.016
4.900,-0.026
4.905,-0.008
4.910,-0.026
4.915,-0.002
4.920,0.001
4.925,0.005
4.930,0.018
4.935,-0.006
4.940,0.020
4.945,0.010
4.950,-0.003
4.955,0.016
4.960,0.000
4.965,0.017
4.970,0.001
4.975,-0.001
4.980,0.018
4.985,-0.015
4.990,0.003
4.995,-0.003
5.000,-0.013
5.005,0.006
5.010,-0.012
5.015,0.006
5.020,0.004
5.025,-0.018
5.030,-0.077
5.035,-0.219
5.040,-0.346
5.045,-0.497
5.050,-0.519
5.055,-0.295
5.060,-0.020
5.065,0.160
5.070,0.158
5.075,0.133
5.080,0.153
5.085,0.128
5.090,0.121
5.095,0.078
5.100,0.058
5.105,0.069
5.110,0.034
5.115,0.052
5.120,0.045
5.125,0.033
5.130,0.045
5.135,0.024
5.140,0.049
5.145,0.036
5.150,0.016
5.155,0.030
5.160,0.007
5.165,0.024
5.170,0.018
5.175,0.010
5.180,0.024
5.185,0.002
5.190,0.028
5.195,0.018
5.200,-0.002
5.205,0.011
5.210,-0.012
5.215,0.001
5.220,-0.007
5.225,-0.013
5.230,0.002
5.235,-0.023
5.240,-0.005
5.245,-0.014
5.250,-0.023
5.255,-0.008
5.260,-0.042
5.265,-0.036
5.270,-0.047
5.275,-0.053
5.280,-0.045
5.285,-0.076
5.290,-0.050
5.295,-0.054
5.300,-0.069
5.305,-0.052
5.310,-0.071
5.315,-0.054
5.320,-0.058
5.325,-0.056
5.330,-0.032
5.335,-0.048
5.340,-0.013
5.345,-0.005
5.350,-0.003
5.355,0.036
5.360,0.032
5.365,0.053
5.370,0.052
5.375,0.063
5.380,0.088
5.385,0.067
5.390,0.092
5.395,0.088
5.400,0.077
5.405,0.095
5.410,0.074
5.415,0.090
5.420,0.081
5.425,0.074
5.430,0.086
5.435,0.058
5.440,0.079
5.445,0.068
5.450,0.050
5.455,0.065
5.460,0.044
5.465,0.058
5.470,0.049
5.475,0.041
5.480,0.054
5.485,0.028
5.490,0.047
5.495,0.033
5.500,0.015
5.505,0.036
5.510,0.017
5.515,0.031
5.520,0.019
5.525,0.007
5.530,0.016
5.535,-0.011
5.540,0.013
5.545,0.008
5.550,-0.009
5.555,0.003
5.560,-0.019
5.565,-0.008
5.570,-0.016
5.575,-0.020
5.580,-0.010
5.585,-0.039
5.590,-0.015
5.595,-0.022
5.600,-0.034
5.605,-0.013
5.610,-0.043
5.615,-0.031
5.620,-0.029
5.625,-0.029
5.630,-0.016
5.635,-0.053
5.640,-0.038
5.645,-0.038
5.650,-0.043
5.655,-0.015
5.660,-0.030
5.665,-0.019
5.670,-0.024
5.675,-0.024
5.680,0.002
5.685,-0.008
5.690,0.020
5.695,0.015
5.700,0.000
5.705,0.018
5.710,-0.001
5.715,0.009
5.720,-0.001
5.725,-0.001
5.730,0.018
5.735,-0.010
5.740,0.006
5.745,-0.004
5.750,-0.017
5.755,0.009
5.760,-0.011
5.765,-0.002
5.770,-0.008
5.775,-0.013
5.780,0.006
5.785,-0.010
5.790,-0.002
5.795,-0.079
5.800,-0.221
5.805,-0.365
5.810,-0.536
5.815,-0.534
5.820,-0.323
5.825,-0.019
5.830,0.168
5.835,0.150
5.840,0.153
5.845,0.160
5.850,0.144
5.855,0.121
5.860,0.057
5.865,0.065
5.870,0.059
5.875,0.041
5.880,0.062
5.885,0.042
5.890,0.051
5.895,0.038
5.900,0.027
5.905,0.044
5.910,0.021
5.915,0.036
5.920,0.031
5.925,0.026
5.930,0.043
5.935,0.010
5.940,0.024
5.945,0.015
5.950,0.000
5.955,0.021
5.960,0.000
5.965,0.012
5.970,0.005
5.975,-0.004
5.980,0.013
5.985,-0.007
5.990,0.011
5.995,-0.004
6.000,-0.025
6.005,-0.005
6.010,-0.026
6.015,-0.017
6.020,-0.027
6.025,-0.034
6.030,-0.020
6.035,-0.053
6.040,-0.036
6.045,-0.044
6.050,-0.066
6.055,-0.050
6.060,-0.075
6.065,-0.063
6.070,-0.063
6.075,-0.066
6.080,-0.049
6.085,-0.072
6.090,-0.045
6.095,-0.041
6.100,-0.045
6.105,-0.009
6.110,-0.014
6.115,0.014
6.120,0.027
6.125,0.035
6.130,0.063
6.135,0.050
6.140,0.085
6.145,0.090
6.150,0.078
6.155,0.102
6.160,0.085
6.165,0.099
6.170,0.095
6.175,0.085
6.180,0.098
6.185,0.070
6.190,0.087
6.195,0.080
6.200,0.063
6.205,0.086
6.210,0.062
6.215,0.063
6.220,0.055
6.225,0.047
6.230,0.062
6.235,0.035
6.240,0.056
6.245,0.052
6.250,0.030
6.255,0.046
6.260,0.025
6.265,0.037
6.270,0.030
6.275,0.018
6.280,0.028
6.285,0.000
6.290,0.020
6.295,0.016
6.300,0.000
6.305,0.017
6.310,-0.010
6.315,0.001
6.320,-0.001
6.325,-0.010
6.330,0.001
6.335,-0.028
6.340,-0.004
6.345,-0.006
6.350,-0.026
6.355,-0.006
6.360,-0.023
6.365,-0.008
6.370,-0.011
6.375,-0.022
6.380,-0.008
6.385,-0.036
6.390,-0.021
6.395,-0.025
6.400,-0.041
6.405,-0.014
6.410,-0.032
6.415,-0.026
6.420,-0.032
6.425,-0.036
6.430,-0.015
6.435,-0.038
6.440,-0.024
6.445,-0.038
6.450,-0.058
6.455,-0.025
6.460,-0.035
6.465,-0.021
6.470,-0.023
6.475,-0.030
6.480,-0.008
6.485,-0.024
6.490,0.010
6.495,0.017
6.500,0.001
6.505,0.018
6.510,-0.002
6.515,0.011
6.520,0.007
6.525,-0.002
6.530,0.016
6.535,-0.006
6.540,0.011
6.545,0.005
6.550,-0.014
6.555,0.008
6.560,-0.010
6.565,0.002
6.570,0.000
6.575,-0.013
6.580,0.001
6.585,-0.018
6.590,0.011
6.595,0.000
6.600,-0.074
6.605,-0.168
6.610,-0.350
6.615,-0.511
6.620,-0.577
6.625,-0.417
6.630,-0.081
6.635,0.120
6.640,0.176
6.645,0.149
6.650,0.135
6.655,0.170
6.660,0.126
6.665,0.089
6.670,0.074
6.675,0.063
6.680,0.062
6.685,0.036
6.690,0.063
6.695,0.051
6.700,0.027
6.705,0.057
6.710,0.037
6.715,0.040
6.720,0.035
6.725,0.022
6.730,0.035
6.735,0.008
6.740,0.027
6.745,0.024
6.750,0.007
6.755,0.034
6.760,0.016
6.765,0.022
6.770,0.014
6.775,-0.002
6.780,0.011
6.785,-0.012
6.790,0.007
6.795,0.001
6.800,-0.020
6.805,0.003
6.810,-0.018
6.815,-0.014
6.820,-0.020
6.825,-0.033
6.830,-0.020
6.835,-0.048
6.840,-0.032
6.845,-0.038
6.850,-0.063
6.855,-0.043
6.860,-0.065
6.865,-0.059
6.870,-0.063
6.875,-0.073
6.880,-0.055
6.885,-0.075
6.890,-0.052
6.895,-0.049
6.900,-0.058
6.905,-0.025
6.910,-0.033
6.915,-0.007
6.920,0.007
6.925,0.010
6.930,0.042
6.935,0.032
6.940,0.065
6.945,0.076
6.950,0.064
6.955,0.097
6.960,0.086
6.965,0.099
6.970,0.100
6.975,0.091
6.980,0.107
6.985,0.079
6.990,0.093
6.995,0.086
7.000,0.065
7.005,0.088
7.010,0.066
7.015,0.070
7.020,0.065
7.025,0.055
7.030,0.072
7.035,0.044
7.040,0.061
7.045,0.056
7.050,0.033
7.055,0.058
7.060,0.038
7.065,0.041
7.070,0.033
7.075,0.019
7.080,0.034
7.085,0.009
7.090,0.026
7.095,0.023
7.100,0.006
7.105,0.026
7.110,0.000
7.115,0.005
7.120,0.005
7.125,-0.007
7.130,0.007
7.135,-0.020
7.140,-0.004
7.145,-0.005
7.150,-0.022
7.155,0.003
7.160,-0.013
7.165,-0.005
7.170,-0.013
7.175,-0.027
7.180,-0.006
7.185,-0.024
7.190,-0.003
7.195,-0.004
7.200,-0.025
7.205,0.002
7.210,-0.018
7.215,-0.017
7.220,-0.021
7.225,-0.029
7.230,-0.008
7.235,-0.030
7.240,-0.012
7.245,-0.012
7.250,-0.027
7.255,0.000
7.260,-0.022
7.265,-0.016
7.270,-0.014
7.275,-0.024
7.280,-0.006
7.285,-0.030
7.290,-0.015
7.295,-0.018
7.300,-0.034
7.305,-0.006
7.310,-0.022
7.315,-0.017
7.320,-0.023
7.325,-0.036
7.330,-0.019
7.335,-0.045
7.340,-0.029
7.345,-0.024
7.350,-0.040
7.355,-0.016
7.360,-0.035
7.365,-0.023
7.370,-0.021
7.375,-0.037
7.380,-0.028
7.385,-0.054
7.390,-0.031
7.395,-0.027
7.400,-0.044
7.405,-0.011
7.410,-0.025
7.415,-0.017
7.420,-0.015
7.425,-0.014
7.430,0.021
7.435,0.004
7.440,0.020
7.445,0.018
7.450,-0.003
7.455,0.024
7.460,0.004
7.465,0.010
7.470,0.009
7.475,-0.007
7.480,0.013
7.485,-0.005
7.490,0.011
7.495,0.008
7.500,-0.012
7.505,0.014
7.510,-0.004
7.515,0.004
7.520,0.011
7.525,-0.010
7.530,-0.053
7.535,-0.195
7.540,-0.338
7.545,-0.486
7.550,-0.527
7.555,-0.311
7.560,-0.032
7.565,0.159
7.570,0.179
7.575,0.145
7.580,0.168
7.585,0.149
7.590,0.132
7.595,0.088
7.600,0.054
7.605,0.076
7.610,0.046
7.615,0.052
7.620,0.057
7.625,0.035
7.630,0.051
7.635,0.036
7.640,0.048
7.645,0.037
7.650,0.015
7.655,0.040
7.660,0.018
7.665,0.023
7.670,0.023
7.675,0.009
7.680,0.029
7.685,0.009
7.690,0.021
7.695,0.013
7.700,-0.012
7.705,0.015
7.710,0.000
7.715,0.007
7.720,0.006
7.725,-0.010
7.730,0.008
7.735,-0.017
7.740,-0.006
7.745,-0.009
7.750,-0.031
7.755,-0.007
7.760,-0.030
7.765,-0.029
7.770,-0.030
7.775,-0.048
7.780,-0.035
7.785,-0.063
7.790,-0.050
7.795,-0.049
7.800,-0.069
7.805,-0.040
7.810,-0.054
7.815,-0.048
7.820,-0.046
7.825,-0.055
7.830,-0.032
7.835,-0.047
7.840,-0.020
7.845,-0.007
7.850,-0.012
7.855,0.029
7.860,0.023
7.865,0.042
7.870,0.056
7.875,0.053
7.880,0.085
7.885,0.075
7.890,0.095
7.895,0.089
7.900,0.065
7.905,0.095
7.910,0.078
7.915,0.083
7.920,0.086
7.925,0.075
7.930,0.092
7.935,0.060
7.940,0.070
7.945,0.072
7.950,0.052
7.955,0.078
7.960,0.057
7.965,0.058
7.970,0.058
7.975,0.043
7.980,0.060
7.985,0.032
7.990,0.041
7.995,0.041
8.000,0.018
8.005,0.040
8.010,0.020
8.015,0.021
8.020,0.017
8.025,0.001
8.030,0.021
8.035,-0.001
8.040,0.009
8.045,0.007
8.050,-0.019
8.055,0.006
8.060,-0.013
8.065,-0.014
8.070,-0.013
8.075,-0.023
8.080,-0.004
8.085,-0.023
8.090,-0.009
8.095,-0.008
8.100,-0.027
8.105,0.000
8.110,-0.018
8.115,-0.012
8.120,-0.011
8.125,-0.026
8.130,-0.004
8.135,-0.021
8.140,-0.006
8.145,-0.006
8.150,-0.029
8.155,0.000
8.160,-0.014
8.165,-0.013
8.170,-0.015
8.175,-0.029
8.180,-0.007
8.185,-0.026
8.190,-0.010
8.195,-0.009
8.200,-0.031
8.205,-0.007
8.210,-0.028
8.215,-0.025
8.220,-0.019
8.225,-0.034
8.230,-0.021
8.235,-0.043
8.240,-0.027
8.245,-0.020
8.250,-0.037
8.255,-0.013
8.260,-0.036
8.265,-0.038
8.270,-0.036
8.275,-0.044
8.280,-0.018
8.285,-0.032
8.290,-0.014
8.295,-0.015
8.300,-0.034
8.305,0.010
8.310,0.008
8.315,0.015
8.320,0.018
8.325,0.000
8.330,0.020
8.335,0.001
8.340,0.014
8.345,0.017
8.350,-0.009
8.355,0.013
8.360,-0.001
8.365,0.006
8.370,0.009
8.375,-0.012
8.380,0.005
8.385,-0.014
8.390,0.000
8.395,0.004
8.400,-0.019
8.405,0.014
8.410,0.008
8.415,0.001
8.420,-0.054
8.425,-0.180
8.430,-0.314
8.435,-0.497
8.440,-0.542
8.445,-0.382
8.450,-0.096
8.455,0.151
8.460,0.167
8.465,0.145
8.470,0.152
8.475,0.146
8.480,0.144
8.485,0.079
8.490,0.079
8.495,0.079
8.500,0.041
8.505,0.068
8.510,0.053
8.515,0.044
8.520,0.045
8.525,0.033
8.530,0.051
8.535,0.023
8.540,0.035
8.545,0.042
8.550,0.018
8.555,0.042
8.560,0.026
8.565,0.026
8.570,0.026
8.575,0.009
8.580,0.026
8.585,0.004
8.590,0.017
8.595,0.020
8.600,-0.005
8.605,0.022
8.610,0.004
8.615,0.000
8.620,0.000
8.625,-0.016
8.630,0.004
8.635,-0.019
8.640,-0.011
8.645,-0.013
8.650,-0.041
8.655,-0.016
8.660,-0.037
8.665,-0.042
8.670,-0.040
8.675,-0.058
8.680,-0.040
8.685,-0.063
8.690,-0.058
8.695,-0.058
8.700,-0.079
8.705,-0.044
8.710,-0.054
8.715,-0.051
8.720,-0.043
8.725,-0.052
8.730,-0.023
8.735,-0.028
8.740,0.002
8.745,0.021
8.750,0.010
8.755,0.052
8.760,0.050
8.765,0.066
8.770,0.080
8.775,0.069
8.780,0.096
8.785,0.081
8.790,0.097
8.795,0.104
8.800,0.077
8.805,0.098
8.810,0.079
8.815,0.078
8.820,0.084
8.825,0.068
8.830,0.085
8.835,0.064
8.840,0.074
8.845,0.074
8.850,0.049
8.855,0.069
8.860,0.046
8.865,0.046
8.870,0.052
8.875,0.036
8.880,0.054
8.885,0.029
8.890,0.038
8.895,0.039
8.900,0.014
8.905,0.042
8.910,0.017
8.915,0.012
8.920,0.017
8.925,0.000
8.930,0.019
8.935,-0.004
8.940,0.008
8.945,0.011
8.950,-0.022
8.955,-0.001
8.960,-0.015
8.965,-0.009
8.970,-0.004
8.975,-0.024
8.980,-0.006
8.985,-0.026
8.990,-0.013
8.995,-0.007
9.000,-0.031
9.005,-0.001
9.010,-0.016
9.015,-0.017
9.020,-0.010
9.025,-0.029
9.030,-0.010
9.035,-0.025
9.040,-0.011
9.045,-0.007
9.050,-0.032
9.055,-0.003
9.060,-0.020
9.065,-0.021
9.070,-0.017
9.075,-0.035
9.080,-0.013
9.085,-0.028
9.090,-0.018
9.095,-0.019
9.100,-0.048
9.105,-0.022
9.110,-0.038
9.115,-0.032
9.120,-0.023
9.125,-0.044
9.130,-0.029
9.135,-0.051
9.140,-0.037
9.145,-0.026
9.150,-0.043
9.155,-0.010
9.160,-0.025
9.165,-0.024
9.170,-0.002
9.175,0.000
9.180,0.028
9.185,0.006
9.190,0.014
9.195,0.022
9.200,0.000
9.205,0.022
9.210,0.004
9.215,0.005
9.220,0.011
9.225,-0.003
9.230,0.017
9.235,-0.002
9.240,0.007
9.245,0.003
9.250,-0.026
9.255,0.005
9.260,-0.008
9.265,-0.009
9.270,-0.003
9.275,-0.015
9.280,0.017
9.285,-0.010
9.290,-0.059
9.295,-0.167
9.300,-0.351
9.305,-0.494
9.310,-0.577
9.315,-0.422
9.320,-0.096
9.325,0.119
9.330,0.179
9.335,0.139
9.340,0.148
9.345,0.162
9.350,0.117
9.355,0.106
9.360,0.075
9.365,0.069
9.370,0.061
9.375,0.044
9.380,0.074
9.385,0.044
9.390,0.044
9.395,0.054
9.400,0.025
9.405,0.049
9.410,0.038
9.415,0.036
9.420,0.039
9.425,0.023
9.430,0.044
9.435,0.017
9.440,0.018
9.445,0.025
9.450,0.004
9.455,0.032
9.460,0.012
9.465,0.008
9.470,0.018
9.475,-0.001
9.480,0.013
9.485,-0.008
9.490,-0.002
9.495,0.000
9.500,-0.026
9.505,0.000
9.510,-0.017
9.515,-0.022
9.520,-0.019
9.525,-0.040
9.530,-0.021
9.535,-0.045
9.540,-0.040
9.545,-0.039
9.550,-0.072
9.555,-0.049
9.560,-0.069
9.565,-0.072
9.570,-0.057
9.575,-0.067
9.580,-0.039
9.585,-0.058
9.590,-0.053
9.595,-0.039
9.600,-0.050
9.605,-0.005
9.610,-0.005
9.615,0.007
9.620,0.033
9.625,0.032
9.630,0.065
9.635,0.060
9.640,0.077
9.645,0.089
9.650,0.069
9.655,0.104
9.660,0.092
9.665,0.091
9.670,0.098
9.675,0.079
9.680,0.100
9.685,0.083
9.690,0.088
9.695,0.087
9.700,0.055
9.705,0.082
9.710,0.065
9.715,0.060
9.720,0.070
9.725,0.052
9.730,0.069
9.735,0.045
9.740,0.048
9.745,0.054
9.750,0.028
9.755,0.051
9.760,0.033
9.765,0.029
9.770,0.036
9.775,0.014
9.780,0.030
9.785,0.009
9.790,0.015
9.795,0.019
9.800,-0.012
9.805,0.013
9.810,-0.002
9.815,-0.003
9.820,0.005
9.825,-0.018
9.830,0.000
9.835,-0.017
9.840,-0.008
9.845,-0.001
9.850,-0.030
9.855,-0.002
9.860,-0.016
9.865,-0.019
9.870,-0.007
9.875,-0.023
9.880,-0.004
9.885,-0.022
9.890,-0.015
9.895,-0.010
9.900,-0.036
9.905,-0.005
9.910,-0.017
9.915,-0.020
9.920,-0.011
9.925,-0.031
9.930,-0.009
9.935,-0.024
9.940,-0.018
9.945,-0.013
9.950,-0.041
9.955,-0.012
9.960,-0.028
9.965,-0.036
9.970,-0.027
9.975,-0.044
9.980,-0.020
9.985,-0.033
9.990,-0.026
9.995,-0.020
10.000,-0.053
10.005,-0.030
10.010,-0.044
10.015,-0.047
10.020,-0.028
10.025,-0.034
10.030,-0.012
10.035,-0.034
10.040,-0.022
10.045,0.008
10.050,0.003
10.055,0.033
10.060,0.009
10.065,0.004
10.070,0.019
10.075,0.000
10.080,0.018
10.085,0.007
10.090,0.012
10.095,0.012
10.100,-0.016
10.105,0.013
10.110,-0.003
10.115,-0.007
10.120,0.009
10.125,-0.006
10.130,0.008
10.135,-0.014
10.140,-0.006
10.145,0.004
10.150,-0.020
10.155,0.011
10.160,-0.027
10.165,-0.109
10.170,-0.233
10.175,-0.426
10.180,-0.549
10.185,-0.539
10.190,-0.272
10.195,0.039
10.200,0.147
10.205,0.175
10.210,0.150
10.215,0.159
10.220,0.167
10.225,0.104
10.230,0.089
10.235,0.067
10.240,0.063
10.245,0.062
10.250,0.044
10.255,0.070
10.260,0.044
10.265,0.040
10.270,0.054
10.275,0.027
10.280,0.043
10.285,0.030
10.290,0.035
10.295,0.044
10.300,0.017
10.305,0.034
10.310,0.015
10.315,0.014
10.320,0.027
10.325,0.006
10.330,0.021
10.335,0.004
10.340,0.012
10.345,0.018
10.350,-0.013
10.355,0.013
10.360,-0.004
10.365,-0.013
10.370,-0.003
10.375,-0.023
10.380,-0.003
10.385,-0.023
10.390,-0.024
10.395,-0.018
10.400,-0.046
10.405,-0.021
10.410,-0.045
10.415,-0.060
10.420,-0.050
10.425,-0.068
10.430,-0.049
10.435,-0.063
10.440,-0.059
10.445,-0.050
10.450,-0.071
10.455,-0.040
10.460,-0.054
10.465,-0.054
10.470,-0.029
10.475,-0.036
10.480,-0.006
10.485,-0.004
10.490,0.019
10.495,0.042
10.500,0.033
10.505,0.077
10.510,0.076
10.515,0.077
10.520,0.093
10.525,0.081
10.530,0.105
10.535,0.086
10.540,0.086
10.545,0.097
10.550,0.069
10.555,0.094
10.560,0.080
10.565,0.070
10.570,0.084
10.575,0.068
10.580,0.088
10.585,0.070
10.590,0.067
10.595,0.072
10.600,0.040
10.605,0.062
10.610,0.047
10.615,0.038
10.620,0.050
10.625,0.033
10.630,0.054
10.635,0.035
10.640,0.032
10.645,0.033
10.650,-0.001
10.655,0.022
10.660,0.007
10.665,-0.001
10.670,0.010
10.675,-0.011
10.680,0.008
10.685,-0.006
10.690,-0.002
10.695,0.004
10.700,-0.028
10.705,0.000
10.710,-0.012
10.715,-0.015
10.720,0.001
10.725,-0.024
10.730,-0.007
10.735,-0.015
10.740,-0.010
10.745,-0.003
10.750,-0.031
10.755,-0.008
10.760,-0.023
10.765,-0.026
10.770,-0.009
10.775,-0.025
10.780,-0.007
10.785,-0.025
10.790,-0.019
10.795,-0.003
10.800,-0.028
10.805,-0.003
10.810,-0.016
10.815,-0.018
10.820,-0.007
10.825,-0.028
10.830,-0.009
10.835,-0.022
10.840,-0.013
10.845,-0.003
10.850,-0.032
10.855,-0.002
10.860,-0.016
10.865,-0.026
10.870,-0.009
10.875,-0.025
10.880,-0.006
10.885,-0.019
10.890,-0.017
10.895,-0.010
10.900,-0.043
10.905,-0.019
10.910,-0.030
10.915,-0.034
10.920,-0.020
10.925,-0.041
10.930,-0.019
10.935,-0.026
10.940,-0.021
10.945,-0.015
10.950,-0.051
10.955,-0.024
10.960,-0.034
10.965,-0.043
10.970,-0.027
10.975,-0.042
10.980,-0.017
10.985,-0.026
10.990,-0.018
10.995,0.009
11.000,-0.002
11.005,0.029
11.010,0.012
11.015,0.002
11.020,0.021
11.025,0.001
11.030,0.014
11.035,0.002
11.040,0.009
11.045,0.019
11.050,-0.011
11.055,0.015
11.060,0.003
11.065,-0.005
11.070,0.010
11.075,-0.010
11.080,0.007
11.085,-0.006
11.090,-0.002
11.095,0.013
11.100,-0.016
11.105,-0.033
11.110,-0.135
11.115,-0.271
11.120,-0.405
11.125,-0.493
11.130,-0.356
11.135,-0.101
11.140,0.126
11.145,0.190
11.150,0.138
11.155,0.157
11.160,0.149
11.165,0.125
11.170,0.100
11.175,0.056
11.180,0.067
11.185,0.042
11.190,0.042
11.195,0.059
11.200,0.023
11.205,0.038
11.210,0.031
11.215,0.023
11.220,0.033
11.225,0.013
11.230,0.031
11.235,0.013
11.240,0.016
11.245,0.029
11.250,-0.001
11.255,0.025
11.260,0.015
11.265,0.002
11.270,0.013
11.275,-0.004
11.280,0.015
11.285,0.000
11.290,0.000
11.295,0.007
11.300,-0.022
11.305,0.007
11.310,-0.006
11.315,-0.016
11.320,-0.002
11.325,-0.025
11.330,-0.010
11.335,-0.026
11.340,-0.028
11.345,-0.021
11.350,-0.048
11.355,-0.024
11.360,-0.045
11.365,-0.059
11.370,-0.048
11.375,-0.067
11.380,-0.046
11.385,-0.056
11.390,-0.052
11.395,-0.038
11.400,-0.062
11.405,-0.029
11.410,-0.032
11.415,-0.032
11.420,-0.005
11.425,-0.013
11.430,0.017
11.435,0.020
11.440,0.036
11.445,0.057
11.450,0.038
11.455,0.074
11.460,0.073
11.465,0.068
11.470,0.085
11.475,0.071
11.480,0.093
11.485,0.080
11.490,0.081
11.495,0.089
11.500,0.059
11.505,0.086
11.510,0.074
11.515,0.064
11.520,0.082
11.525,0.058
11.530,0.070
11.535,0.055
11.540,0.053
11.545,0.062
11.550,0.034
11.555,0.054
11.560,0.036
11.565,0.026
11.570,0.042
11.575,0.022
11.580,0.038
11.585,0.021
11.590,0.023
11.595,0.029
11.600,-0.007
11.605,0.017
11.610,0.004
11.615,-0.005
11.620,0.010
11.625,-0.014
11.630,0.004
11.635,-0.010
11.640,-0.011
11.645,0.001
11.650,-0.027
11.655,0.000
11.660,-0.010
11.665,-0.021
11.670,-0.004
11.675,-0.020
11.680,0.000
11.685,-0.013
11.690,-0.015
11.695,-0.003
11.700,-0.027
11.705,0.001
11.710,-0.010
11.715,-0.025
11.720,-0.010
11.725,-0.027
11.730,-0.007
11.735,-0.018
11.740,-0.019
11.745,-0.012
11.750,-0.039
11.755,-0.012
11.760,-0.022
11.765,-0.031
11.770,-0.017
11.775,-0.039
11.780,-0.018
11.785,-0.023
11.790,-0.021
11.795,-0.021
11.800,-0.058
11.805,-0.028
11.810,-0.025
11.815,-0.022
11.820,-0.006
11.825,-0.029
11.830,-0.010
11.835,-0.021
11.840,-0.007
11.845,0.023
11.850,0.000
11.855,0.023
11.860,0.009
11.865,0.001
11.870,0.021
11.875,-0.002
11.880,0.014
11.885,0.004
11.890,0.005
11.895,0.014
11.900,-0.016
11.905,0.012
11.910,0.002
11.915,-0.010
11.920,0.010
11.925,-0.008
11.930,0.008
11.935,-0.005
11.940,-0.005
11.945,0.012
11.950,-0.016
11.955,-0.028
11.960,-0.127
11.965,-0.272
11.970,-0.413
11.975,-0.529
11.980,-0.425
11.985,-0.163
11.990,0.084
11.995,0.165
12.000,0.123
12.005,0.144
12.010,0.146
12.015,0.126
12.020,0.099
12.025,0.056
12.030,0.072
12.035,0.050
12.040,0.046
12.045,0.066
12.050,0.035
12.055,0.054
12.060,0.043
12.065,0.026
12.070,0.035
12.075,0.019
12.080,0.041
12.085,0.027
12.090,0.022
12.095,0.033
12.100,0.002
12.105,0.028
12.110,0.022
12.115,0.008
12.120,0.017
12.125,-0.001
12.130,0.018
12.135,0.005
12.140,0.001
12.145,0.010
12.150,-0.019
12.155,0.004
12.160,-0.008
12.165,-0.019
12.170,-0.001
12.175,-0.023
12.180,-0.013
12.185,-0.030
12.190,-0.031
12.195,-0.022
12.200,-0.054
12.205,-0.033
12.210,-0.043
12.215,-0.055
12.220,-0.046
12.225,-0.072
12.230,-0.054
12.235,-0.060
12.240,-0.058
12.245,-0.048
12.250,-0.072
12.255,-0.036
12.260,-0.037
12.265,-0.041
12.270,-0.015
12.275,-0.022
12.280,0.014
12.285,0.020
12.290,0.030
12.295,0.056
12.300,0.042
12.305,0.079
12.310,0.079
12.315,0.071
12.320,0.090
12.325,0.072
12.330,0.091
12.335,0.083
12.340,0.085
12.345,0.099
12.350,0.066
12.355,0.082
12.360,0.069
12.365,0.059
12.370,0.078
12.375,0.056
12.380,0.067
12.385,0.058
12.390,0.056
12.395,0.061
12.400,0.029
12.405,0.055
12.410,0.048
12.415,0.036
12.420,0.048
12.425,0.023
12.430,0.038
12.435,0.023
12.440,0.018
12.445,0.026
12.450,-0.006
12.455,0.020
12.460,0.011
12.465,-0.003
12.470,0.018
12.475,-0.002
12.480,0.006
12.485,-0.012
12.490,-0.015
12.495,-0.001
12.500,-0.026
12.505,-0.002
12.510,-0.013
12.515,-0.022
12.520,-0.001
12.525,-0.023
12.530,-0.008
12.535,-0.017
12.540,-0.017
12.545,-0.004
12.550,-0.033
12.555,-0.009
12.560,-0.018
12.565,-0.031
12.570,-0.016
12.575,-0.037
12.580,-0.016
12.585,-0.019
12.590,-0.024
12.595,-0.021
12.600,-0.049
12.605,-0.021
12.610,-0.023
12.615,-0.032
12.620,-0.025
12.625,-0.053
12.630,-0.032
12.635,-0.033
12.640,-0.027
12.645,-0.012
12.650,-0.040
12.655,-0.009
12.660,-0.013
12.665,-0.016
12.670,0.021
12.675,0.010
12.680,0.021
12.685,0.008
12.690,0.005
12.695,0.024
12.700,-0.003
12.705,0.014
12.710,0.006
12.715,-0.006
12.720,0.009
12.725,-0.007
12.730,0.010
12.735,-0.003
12.740,-0.006
12.745,0.007
12.750,-0.019
12.755,0.007
12.760,-0.003
12.765,-0.016
12.770,0.007
12.775,-0.005
12.780,-0.002
12.785,-0.068
12.790,-0.176
12.795,-0.317
12.800,-0.507
12.805,-0.541
12.810,-0.391
12.815,-0.092
12.820,0.145
12.825,0.155
12.830,0.151
12.835,0.151
12.840,0.153
12.845,0.133
12.850,0.061
12.855,0.077
12.860,0.071
12.865,0.042
12.870,0.059
12.875,0.051
12.880,0.059
12.885,0.039
12.890,0.039
12.895,0.047
12.900,0.011
12.905,0.040
12.910,0.035
12.915,0.020
12.920,0.034
12.925,0.011
12.930,0.025
12.935,0.015
12.940,0.014
12.945,0.026
12.950,-0.002
12.955,0.023
12.960,0.014
12.965,-0.001
12.970,0.014
12.975,-0.008
12.980,0.007
12.985,-0.004
12.990,-0.010
12.995,-0.001
13.000,-0.030
13.005,-0.006
13.010,-0.018
13.015,-0.035
13.020,-0.019
13.025,-0.041
13.030,-0.031
13.035,-0.051
13.040,-0.061
13.045,-0.049
13.050,-0.077
13.055,-0.053
13.060,-0.060
13.065,-0.072
13.070,-0.048
13.075,-0.061
13.080,-0.043
13.085,-0.051
13.090,-0.047
13.095,-0.021
13.100,-0.033
13.105,0.006
13.110,0.012
13.115,0.015
13.120,0.053
13.125,0.047
13.130,0.072
13.135,0.072
13.140,0.076
13.145,0.098
13.150,0.076
13.155,0.099
13.160,0.090
13.165,0.080
13.170,0.101
13.175,0.079
13.180,0.091
13.185,0.078
13.190,0.073
13.195,0.085
13.200,0.056
13.205,0.078
13.210,0.064
13.215,0.045
13.220,0.066
13.225,0.047
13.230,0.058
13.235,0.045
13.240,0.040
13.245,0.051
13.250,0.021
13.255,0.043
13.260,0.034
13.265,0.017
13.270,0.033
13.275,0.012
13.280,0.026
13.285,0.012
13.290,0.002
13.295,0.016
13.300,-0.009
13.305,0.012
13.310,0.002
13.315,-0.010
13.320,0.006
13.325,-0.022
13.330,-0.010
13.335,-0.016
13.340,-0.015
13.345,0.000
13.350,-0.030
13.355,-0.006
13.360,-0.012
13.365,-0.027
13.370,-0.004
13.375,-0.023
13.380,-0.010
13.385,-0.016
13.390,-0.017
13.395,-0.002
13.400,-0.027
13.405,-0.004
13.410,-0.015
13.415,-0.036
13.420,-0.021
13.425,-0.038
13.430,-0.016
13.435,-0.022
13.440,-0.030
13.445,-0.022
13.450,-0.052
13.455,-0.023
13.460,-0.021
13.465,-0.033
13.470,-0.026
13.475,-0.058
13.480,-0.040
13.485,-0.033
13.490,-0.026
13.495,-0.013
13.500,-0.041
13.505,-0.010
13.510,-0.013
13.515,-0.015
13.520,0.023
13.525,0.008
13.530,0.019
13.535,0.009
13.540,0.004
13.545,0.021
13.550,-0.007
13.555,0.016
13.560,0.013
13.565,0.001
13.570,0.015
13.575,-0.011
13.580,0.005
13.585,0.000
13.590,-0.007
13.595,0.008
13.600,-0.018
13.605,0.007
13.610,0.000
13.615,-0.019
13.620,0.003
13.625,-0.007
13.630,0.000
13.635,-0.062
13.640,-0.176
13.645,-0.322
13.650,-0.520
13.655,-0.564
13.660,-0.415
13.665,-0.114
13.670,0.139
13.675,0.162
13.680,0.155
13.685,0.150
13.690,0.151
13.695,0.143
13.700,0.076
13.705,0.086
13.710,0.076
13.715,0.041
13.720,0.060
13.725,0.051
13.730,0.056
13.735,0.042
13.740,0.040
13.745,0.049
13.750,0.016
13.755,0.043
13.760,0.039
13.765,0.019
13.770,0.037
13.775,0.019
13.780,0.033
13.785,0.027
13.790,0.018
13.795,0.024
13.800,-0.005
13.805,0.020
13.810,0.016
13.815,-0.001
13.820,0.016
13.825,-0.003
13.830,0.007
13.835,-0.005
13.840,-0.012
13.845,0.003
13.850,-0.026
13.855,-0.009
13.860,-0.021
13.865,-0.042
13.870,-0.024
13.875,-0.047
13.880,-0.037
13.885,-0.044
13.890,-0.055
13.895,-0.045
13.900,-0.072
13.905,-0.051
13.910,-0.056
13.915,-0.068
13.920,-0.050
13.925,-0.068
13.930,-0.053
13.935,-0.057
13.940,-0.050
13.945,-0.022
13.950,-0.033
13.955,0.007
13.960,0.013
13.965,0.015
13.970,0.053
13.975,0.045
13.980,0.067
13.985,0.072
13.990,0.078
13.995,0.102
14.000,0.083
14.005,0.103
14.010,0.092
14.015,0.076
14.020,0.097
14.025,0.079
14.030,0.090
14.035,0.080
14.040,0.079
14.045,0.092
14.050,0.056
14.055,0.074
14.060,0.065
14.065,0.048
14.070,0.068
14.075,0.045
14.080,0.057
14.085,0.050
14.090,0.042
14.095,0.055
14.100,0.025
14.105,0.043
14.110,0.036
14.115,0.021
14.120,0.036
14.125,0.009
14.130,0.019
14.135,0.013
14.140,0.008
14.145,0.018
14.150,-0.013
14.155,0.010
14.160,0.001
14.165,-0.020
14.170,0.001
14.175,-0.017
14.180,-0.003
14.185,-0.008
14.190,-0.013
14.195,0.000
14.200,-0.032
14.205,-0.011
14.210,-0.015
14.215,-0.027
14.220,-0.004
14.225,-0.022
14.230,-0.008
14.235,-0.013
14.240,-0.018
14.245,-0.004
14.250,-0.034
14.255,-0.009
14.260,-0.010
14.265,-0.024
14.270,-0.004
14.275,-0.027
14.280,-0.012
14.285,-0.018
14.290,-0.030
14.295,-0.020
14.300,-0.048
14.305,-0.022
14.310,-0.022
14.315,-0.035
14.320,-0.016
14.325,-0.041
14.330,-0.026
14.335,-0.025
14.340,-0.034
14.345,-0.029
14.350,-0.064
14.355,-0.037
14.360,-0.029
14.365,-0.036
14.370,-0.010
14.375,-0.030
14.380,-0.018
14.385,-0.021
14.390,-0.015
14.395,0.018
14.400,0.001
14.405,0.024
14.410,0.019
14.415,0.002
14.420,0.020
14.425,0.000
14.430,0.014
14.435,0.007
14.440,-0.002
14.445,0.012
14.450,-0.011
14.455,0.012
14.460,0.005
14.465,-0.009
14.470,0.017
14.475,-0.004
14.480,0.001
14.485,-0.006
14.490,-0.011
14.495,0.007
14.500,-0.009
14.505,0.003
14.510,-0.065
14.515,-0.198
14.520,-0.336
14.525,-0.524
14.530,-0.577
14.535,-0.416
14.540,-0.095
14.545,0.151
14.550,0.159
14.555,0.160
14.560,0.163
14.565,0.157
14.570,0.153
14.575,0.087
14.580,0.086
14.585,0.077
14.590,0.053
14.595,0.066
14.600,0.049
14.605,0.062
14.610,0.048
14.615,0.034
14.620,0.053
14.625,0.027
14.630,0.041
14.635,0.035
14.640,0.022
14.645,0.038
14.650,0.016
14.655,0.035
14.660,0.026
14.665,0.008
14.670,0.025
14.675,0.005
14.680,0.020
14.685,0.017
14.690,0.008
14.695,0.016
14.700,-0.015
14.705,0.006
14.710,0.001
14.715,-0.014
14.720,0.004
14.725,-0.020
14.730,-0.012
14.735,-0.024
14.740,-0.037
14.745,-0.026
14.750,-0.054
14.755,-0.033
14.760,-0.039
14.765,-0.060
14.770,-0.045
14.775,-0.066
14.780,-0.054
14.785,-0.060
14.790,-0.065
14.795,-0.047
14.800,-0.071
14.805,-0.047
14.810,-0.046
14.815,-0.053
14.820,-0.019
14.825,-0.027
14.830,-0.003
14.835,0.011
14.840,0.024
14.845,0.056
14.850,0.042
14.855,0.071
14.860,0.076
14.865,0.070
14.870,0.102
14.875,0.086
14.880,0.097
14.885,0.096
14.890,0.089
14.895,0.099
14.900,0.072
14.905,0.094
14.910,0.091
14.915,0.073
14.920,0.089
14.925,0.067
14.930,0.076
14.935,0.066
14.940,0.057
14.945,0.073
14.950,0.046
14.955,0.061
14.960,0.052
14.965,0.035
14.970,0.050
14.975,0.024
14.980,0.034
14.985,0.032
14.990,0.024
14.995,0.032
15.000,0.003
15.005,0.025
15.010,0.019
15.015,-0.002
15.020,0.018
15.025,-0.004
15.030,0.005
15.035,-0.001
15.040,-0.007
15.045,0.009
15.050,-0.021
15.055,-0.006
15.060,-0.013
15.065,-0.025
15.070,0.005
15.075,-0.017
15.080,-0.014
15.085,-0.024
15.090,-0.034
15.095,-0.020
15.100,-0.045
15.105,-0.016
15.110,-0.012
15.115,-0.024
15.120,0.000
15.125,-0.019
15.130,-0.007
15.135,-0.014
15.140,-0.024
15.145,-0.005
15.150,-0.027
15.155,-0.001
15.160,-0.002
15.165,-0.021
15.170,0.000
15.175,-0.018
15.180,-0.007
15.185,-0.013
15.190,-0.024
15.195,-0.009
15.200,-0.032
15.205,-0.009
15.210,-0.013
15.215,-0.031
15.220,-0.010
15.225,-0.031
15.230,-0.020
15.235,-0.018
15.240,-0.016
15.245,-0.007
15.250,-0.081
15.255,-0.163
15.260,-0.319
15.265,-0.504
15.270,-0.559
15.275,-0.438
15.280,-0.117
15.285,0.119
15.290,0.163
15.295,0.155
15.300,0.127
15.305,0.159
15.310,0.140
15.315,0.077
15.320,0.076
15.325,0.054
15.330,0.051
15.335,0.044
15.340,0.040
15.345,0.046
15.350,0.015
15.355,0.041
15.360,0.036
15.365,0.013
15.370,0.038
15.375,0.022
15.380,0.030
15.385,0.023
15.390,0.012
15.395,0.024
15.400,-0.002
15.405,0.023
15.410,0.019
15.415,0.000
15.420,0.025
15.425,0.004
15.430,0.008
15.435,0.001
15.440,-0.007
15.445,0.007
15.450,-0.019
15.455,0.000
15.460,-0.004
15.465,-0.026
15.470,-0.008
15.475,-0.031
15.480,-0.027
15.485,-0.032
15.490,-0.041
15.495,-0.028
15.500,-0.057
15.505,-0.047
15.510,-0.055
15.515,-0.070
15.520,-0.047
15.525,-0.069
15.530,-0.059
15.535,-0.058
15.540,-0.058
15.545,-0.036
15.550,-0.052
15.555,-0.021
15.560,-0.014
15.565,-0.019
15.570,0.016
15.575,0.010
15.580,0.038
15.585,0.051
15.590,0.059
15.595,0.086
15.600,0.069
15.605,0.096
15.610,0.094
15.615,0.079
15.620,0.103
15.625,0.084
15.630,0.094
15.635,0.088
15.640,0.075
15.645,0.086
15.650,0.059
15.655,0.083
15.660,0.082
15.665,0.059
15.670,0.077
15.675,0.056
15.680,0.064
15.685,0.059
15.690,0.046
15.695,0.055
15.700,0.027
15.705,0.043
15.710,0.039
15.715,0.020
15.720,0.041
15.725,0.020
15.730,0.022
15.735,0.013
15.740,0.002
15.745,0.015
15.750,-0.011
15.755,0.009
15.760,0.005
15.765,-0.016
15.770,0.004
15.775,-0.016
15.780,-0.004
15.785,-0.006
15.790,-0.018
15.795,-0.002
15.800,-0.023
15.805,-0.003
15.810,-0.007
15.815,-0.023
15.820,-0.004
15.825,-0.025
15.830,-0.012
15.835,-0.015
15.840,-0.023
15.845,-0.004
15.850,-0.028
15.855,-0.003
15.860,-0.007
15.865,-0.030
15.870,-0.006
15.875,-0.023
15.880,-0.011
15.885,-0.012
15.890,-0.021
15.895,-0.006
15.900,-0.031
15.905,-0.010
15.910,-0.008
15.915,-0.025
15.920,-0.005
15.925,-0.024
15.930,-0.014
15.935,-0.014
15.940,-0.018
15.945,-0.002
15.950,-0.024
15.955,-0.004
15.960,-0.014
15.965,-0.034
15.970,-0.007
15.975,-0.020
15.980,-0.008
15.985,-0.013
15.990,-0.022
15.995,-0.007
16.000,-0.031
16.005,-0.006
16.010,-0.008
16.015,-0.028
16.020,-0.004
16.025,-0.022
16.030,-0.011
16.035,-0.014
16.040,-0.023
16.045,-0.009
16.050,-0.036
16.055,-0.018
16.060,-0.021
16.065,-0.038
16.070,-0.013
16.075,-0.032
16.080,-0.024
16.085,-0.024
16.090,-0.024
16.095,-0.007
16.100,-0.043
16.105,-0.034
16.110,-0.036
16.115,-0.042
16.120,-0.007
16.125,-0.023
16.130,-0.011
16.135,-0.011
16.140,-0.019
16.145,0.002
16.150,-0.007
16.155,0.026
16.160,0.026
16.165,0.006
16.170,0.028
16.175,0.009
16.180,0.019
16.185,0.016
16.190,0.006
16.195,0.019
16.200,-0.007
16.205,0.012
16.210,0.012
16.215,-0.002
16.220,0.021
16.225,-0.004
16.230,0.002
16.235,0.002
16.240,0.000
16.245,0.023
16.250,-0.026
16.255,-0.081
16.260,-0.208
16.265,-0.387
16.270,-0.490
16.275,-0.484
16.280,-0.242
16.285,0.039
16.290,0.160
16.295,0.173
16.300,0.133
16.305,0.162
16.310,0.157
16.315,0.101
16.320,0.094
16.325,0.074
16.330,0.071
16.335,0.052
16.340,0.051
16.345,0.070
16.350,0.035
16.355,0.052
16.360,0.048
16.365,0.025
16.370,0.048
16.375,0.032
16.380,0.040
16.385,0.033
16.390,0.025
16.395,0.039
16.400,0.010
16.405,0.029
16.410,0.026
16.415,0.006
16.420,0.029
16.425,0.010
16.430,0.018
16.435,0.010
16.440,-0.005
16.445,0.010
16.450,-0.015
16.455,0.004
16.460,0.000
16.465,-0.023
16.470,0.001
16.475,-0.014
16.480,-0.008
16.485,-0.021
16.490,-0.041
16.495,-0.032
16.500,-0.056
16.505,-0.035
16.510,-0.040
16.515,-0.058
16.520,-0.035
16.525,-0.062
16.530,-0.057
16.535,-0.056
16.540,-0.062
16.545,-0.039
16.550,-0.062
16.555,-0.040
16.560,-0.031
16.565,-0.041
16.570,-0.004
16.575,-0.006
16.580,0.014
16.585,0.025
16.590,0.028
16.595,0.056
16.600,0.046
16.605,0.079
16.610,0.084
16.615,0.065
16.620,0.090
16.625,0.078
16.630,0.091
16.635,0.087
16.640,0.072
16.645,0.086
16.650,0.064
16.655,0.083
16.660,0.077
16.665,0.056
16.670,0.079
16.675,0.057
16.680,0.064
16.685,0.061
16.690,0.051
16.695,0.066
16.700,0.036
16.705,0.052
16.710,0.048
16.715,0.027
16.720,0.050
16.725,0.028
16.730,0.031
16.735,0.024
16.740,0.009
16.745,0.025
16.750,0.001
16.755,0.018
16.760,0.013
16.765,-0.008
16.770,0.014
16.775,-0.007
16.780,-0.001
16.785,-0.003
16.790,-0.014
16.795,0.002
16.800,-0.023
16.805,-0.005
16.810,-0.007
16.815,-0.026
16.820,0.000
16.825,-0.017
16.830,-0.008
16.835,-0.011
16.840,-0.024
16.845,-0.005
16.850,-0.026
16.855,-0.008
16.860,-0.014
16.865,-0.035
16.870,-0.008
16.875,-0.023
16.880,-0.013
16.885,-0.014
16.890,-0.024
16.895,-0.004
16.900,-0.026
16.905,-0.008
16.910,-0.010
16.915,-0.031
16.920,-0.004
16.925,-0.019
16.930,-0.013
16.935,-0.013
16.940,-0.021
16.945,-0.003
16.950,-0.024
16.955,-0.006
16.960,-0.009
16.965,-0.024
16.970,0.002
16.975,-0.017
16.980,-0.014
16.985,-0.023
16.990,-0.036
16.995,-0.018
17.000,-0.039
17.005,-0.019
17.010,-0.020
17.015,-0.042
17.020,-0.018
17.025,-0.031
17.030,-0.025
17.035,-0.033
17.040,-0.046
17.045,-0.028
17.050,-0.045
17.055,-0.019
17.060,-0.016
17.065,-0.030
17.070,-0.004
17.075,-0.022
17.080,0.001
17.085,0.019
17.090,0.013
17.095,0.027
17.100,0.001
17.105,0.021
17.110,0.021
17.115,0.000
17.120,0.025
17.125,0.010
17.130,0.010
17.135,0.002
17.140,-0.005
17.145,0.015
17.150,-0.006
17.155,0.014
17.160,0.012
17.165,-0.011
17.170,0.011
17.175,-0.007
17.180,0.006
17.185,0.010
17.190,-0.019
17.195,-0.072
17.200,-0.219
17.205,-0.364
17.210,-0.517
17.215,-0.548
17.220,-0.306
17.225,-0.017
17.230,0.159
17.235,0.169
17.240,0.140
17.245,0.166
17.250,0.149
17.255,0.133
17.260,0.089
17.265,0.065
17.270,0.083
17.275,0.050
17.280,0.063
17.285,0.064
17.290,0.045
17.295,0.061
17.300,0.039
17.305,0.052
17.310,0.043
17.315,0.020
17.320,0.044
17.325,0.025
17.330,0.032
17.335,0.032
17.340,0.018
17.345,0.033
17.350,0.010
17.355,0.026
17.360,0.022
17.365,0.001
17.370,0.022
17.375,0.003
17.380,0.010
17.385,0.009
17.390,-0.002
17.395,0.013
17.400,-0.015
17.405,0.000
17.410,-0.003
17.415,-0.027
17.420,-0.008
17.425,-0.031
17.430,-0.026
17.435,-0.031
17.440,-0.048
17.445,-0.035
17.450,-0.057
17.455,-0.041
17.460,-0.049
17.465,-0.073
17.470,-0.052
17.475,-0.070
17.480,-0.058
17.485,-0.057
17.490,-0.061
17.495,-0.035
17.500,-0.049
17.505,-0.021
17.510,-0.017
17.515,-0.025
17.520,0.019
17.525,0.020
17.530,0.043
17.535,0.057
17.540,0.061
17.545,0.084
17.550,0.066
17.555,0.091
17.560,0.091
17.565,0.074
17.570,0.103
17.575,0.087
17.580,0.096
17.585,0.091
17.590,0.076
17.595,0.092
17.600,0.065
17.605,0.079
17.610,0.077
17.615,0.055
17.620,0.078
17.625,0.057
17.630,0.059
17.635,0.055
17.640,0.044
17.645,0.060
17.650,0.035
17.655,0.051
17.660,0.045
17.665,0.021
17.670,0.043
17.675,0.022
17.680,0.024
17.685,0.020
17.690,0.007
17.695,0.023
17.700,-0.002
17.705,0.012
17.710,0.009
17.715,-0.012
17.720,0.011
17.725,-0.009
17.730,-0.004
17.735,-0.007
17.740,-0.018
17.745,-0.002
17.750,-0.026
17.755,-0.004
17.760,-0.004
17.765,-0.028
17.770,-0.007
17.775,-0.024
17.780,-0.016
17.785,-0.016
17.790,-0.026
17.795,-0.009
17.800,-0.031
17.805,-0.013
17.810,-0.014
17.815,-0.031
17.820,-0.001
17.825,-0.019
17.830,-0.015
17.835,-0.016
17.840,-0.026
17.845,-0.007
17.850,-0.029
17.855,-0.011
17.860,-0.013
17.865,-0.031
17.870,-0.005
17.875,-0.020
17.880,-0.011
17.885,-0.016
17.890,-0.036
17.895,-0.025
17.900,-0.046
17.905,-0.025
17.910,-0.024
17.915,-0.046
17.920,-0.025
17.925,-0.039
17.930,-0.026
17.935,-0.026
17.940,-0.040
17.945,-0.028
17.950,-0.052
17.955,-0.031
17.960,-0.027
17.965,-0.041
17.970,-0.007
17.975,-0.022
17.980,-0.016
17.985,-0.002
17.990,0.005
17.995,0.026
18.000,0.002
18.005,0.017
18.010,0.015
18.015,-0.003
18.020,0.022
18.025,0.006
18.030,0.012
18.035,0.003
18.040,-0.010
18.045,0.012
18.050,-0.007
18.055,0.010
18.060,0.004
18.065,-0.016
18.070,0.011
18.075,-0.007
18.080,0.002
18.085,0.003
18.090,-0.001
18.095,0.012
18.100,-0.065
18.105,-0.154
18.110,-0.308
18.115,-0.502
18.120,-0.569
18.125,-0.464
18.130,-0.145
18.135,0.117
18.140,0.170
18.145,0.166
18.150,0.142
18.155,0.173
18.160,0.153
18.165,0.086
18.170,0.088
18.175,0.067
18.180,0.060
18.185,0.055
18.190,0.055
18.195,0.068
18.200,0.037
18.205,0.061
18.210,0.058
18.215,0.024
18.220,0.048
18.225,0.032
18.230,0.034
18.235,0.033
18.240,0.024
18.245,0.040
18.250,0.016
18.255,0.034
18.260,0.029
18.265,0.006
18.270,0.030
18.275,0.009
18.280,0.014
18.285,0.012
18.290,-0.001
18.295,0.019
18.300,-0.006
18.305,0.004
18.310,-0.004
18.315,-0.030
18.320,-0.005
18.325,-0.023
18.330,-0.021
18.335,-0.024
18.340,-0.039
18.345,-0.026
18.350,-0.052
18.355,-0.040
18.360,-0.050
18.365,-0.075
18.370,-0.051
18.375,-0.069
18.380,-0.063
18.385,-0.061
18.390,-0.068
18.395,-0.046
18.400,-0.062
18.405,-0.034
18.410,-0.021
18.415,-0.034
18.420,-0.004
18.425,-0.009
18.430,0.016
18.435,0.033
18.440,0.038
18.445,0.070
18.450,0.061
18.455,0.089
18.460,0.092
18.465,0.073
18.470,0.105
18.475,0.091
18.480,0.099
18.485,0.100
18.490,0.087
18.495,0.100
18.500,0.072
18.505,0.086
18.510,0.086
18.515,0.067
18.520,0.090
18.525,0.066
18.530,0.066
18.535,0.066
18.540,0.052
18.545,0.065
18.550,0.039
18.555,0.053
18.560,0.050
18.565,0.027
18.570,0.051
18.575,0.029
18.580,0.028
18.585,0.024
18.590,0.012
18.595,0.030
18.600,0.008
18.605,0.019
18.610,0.014
18.615,-0.008
18.620,0.016
18.625,-0.006
18.630,0.000
18.635,0.002
18.640,-0.013
18.645,-0.002
18.650,-0.028
18.655,-0.012
18.660,-0.009
18.665,-0.027
18.670,0.000
18.675,-0.020
18.680,-0.017
18.685,-0.017
18.690,-0.028
18.695,-0.008
18.700,-0.029
18.705,-0.011
18.710,-0.007
18.715,-0.030
18.720,-0.007
18.725,-0.022
18.730,-0.015
18.735,-0.015
18.740,-0.024
18.745,-0.005
18.750,-0.033
18.755,-0.025
18.760,-0.032
18.765,-0.051
18.770,-0.018
18.775,-0.032
18.780,-0.029
18.785,-0.030
18.790,-0.038
18.795,-0.011
18.800,-0.035
18.805,-0.030
18.810,-0.045
18.815,-0.065
18.820,-0.025
18.825,-0.031
18.830,-0.021
18.835,-0.021
18.840,-0.030
18.845,-0.010
18.850,-0.027
18.855,0.011
18.860,0.027
18.865,0.006
18.870,0.027
18.875,0.001
18.880,0.009
18.885,0.013
18.890,-0.006
18.895,0.014
18.900,-0.006
18.905,0.008
18.910,0.007
18.915,-0.015
18.920,0.011
18.925,-0.003
18.930,0.002
18.935,0.001
18.940,-0.012
18.945,0.002
18.950,-0.019
18.955,0.006
18.960,0.009
18.965,-0.031
18.970,-0.075
18.975,-0.224
18.980,-0.394
18.985,-0.557
18.990,-0.582
18.995,-0.331
19.000,-0.027
19.005,0.168
19.010,0.176
19.015,0.134
19.020,0.171
19.025,0.159
19.030,0.128
19.035,0.088
19.040,0.067
19.045,0.078
19.050,0.043
19.055,0.066
19.060,0.069
19.065,0.035
19.070,0.057
19.075,0.043
19.080,0.047
19.085,0.044
19.090,0.029
19.095,0.044
19.100,0.022
19.105,0.041
19.110,0.035
19.115,0.008
19.120,0.032
19.125,0.013
19.130,0.017
19.135,0.015
19.140,0.002
19.145,0.022
19.150,-0.005
19.155,0.009
19.160,0.009
19.165,-0.015
19.170,0.009
19.175,-0.009
19.180,-0.008
19.185,-0.011
19.190,-0.027
19.195,-0.012
19.200,-0.039
19.205,-0.029
19.210,-0.036
19.215,-0.063
19.220,-0.036
19.225,-0.052
19.230,-0.052
19.235,-0.056
19.240,-0.073
19.245,-0.056
19.250,-0.076
19.255,-0.060
19.260,-0.058
19.265,-0.072
19.270,-0.034
19.275,-0.041
19.280,-0.026
19.285,-0.014
19.290,-0.014
19.295,0.020
19.300,0.015
19.305,0.049
19.310,0.066
19.315,0.055
19.320,0.089
19.325,0.081
19.330,0.097
19.335,0.105
19.340,0.090
19.345,0.108
19.350,0.088
19.355,0.102
19.360,0.097
19.365,0.072
19.370,0.098
19.375,0.082
19.380,0.082
19.385,0.075
19.390,0.058
19.395,0.077
19.400,0.054
19.405,0.067
19.410,0.063
19.415,0.040
19.420,0.069
19.425,0.050
19.430,0.048
19.435,0.042
19.440,0.022
19.445,0.037
19.450,0.014
19.455,0.028
19.460,0.027
19.465,0.002
19.470,0.028
19.475,0.008
19.480,0.007
19.485,0.005
19.490,-0.012
19.495,0.006
19.500,-0.016
19.505,-0.003
19.510,-0.006
19.515,-0.030
19.520,-0.004
19.525,-0.022
19.530,-0.017
19.535,-0.013
19.540,-0.025
19.545,0.000
19.550,-0.021
19.555,-0.011
19.560,-0.011
19.565,-0.032
19.570,-0.006
19.575,-0.023
19.580,-0.020
19.585,-0.015
19.590,-0.024
19.595,-0.005
19.600,-0.028
19.605,-0.012
19.610,-0.014
19.615,-0.037
19.620,-0.007
19.625,-0.024
19.630,-0.017
19.635,-0.011
19.640,-0.024
19.645,-0.005
19.650,-0.026
19.655,-0.011
19.660,-0.013
19.665,-0.035
19.670,-0.005
19.675,-0.020
19.680,-0.020
19.685,-0.030
19.690,-0.052
19.695,-0.026
19.700,-0.041
19.705,-0.019
19.710,-0.015
19.715,-0.043
19.720,-0.017
19.725,-0.033
19.730,-0.028
19.735,-0.028
19.740,-0.052
19.745,-0.036
19.750,-0.047
19.755,-0.025
19.760,-0.022
19.765,-0.041
19.770,-0.008
19.775,-0.018
19.780,-0.003
19.785,0.015
19.790,0.008
19.795,0.023
19.800,0.000
19.805,0.016
19.810,0.020
19.815,-0.005
19.820,0.017
19.825,0.001
19.830,0.006
19.835,0.010
19.840,-0.005
19.845,0.013
19.850,-0.011
19.855,0.004
19.860,0.009
19.865,-0.014
19.870,0.015
19.875,-0.004
19.880,-0.003
19.885,0.005
19.890,-0.021
19.895,-0.064
19.900,-0.198
19.905,-0.344
19.910,-0.501
19.915,-0.547
19.920,-0.317
19.925,-0.026
19.930,0.160
19.935,0.177
19.940,0.144
19.945,0.171
19.950,0.149
19.955,0.131
19.960,0.093
19.965,0.062
19.970,0.080
19.975,0.046
19.980,0.054
19.985,0.062
19.990,0.036
19.995,0.051
20.000,0.033
20.005,0.042
20.010,0.040
20.015,0.019
20.020,0.045
20.025,0.027
20.030,0.032
20.035,0.034
20.040,0.014
20.045,0.031
20.050,0.009
20.055,0.017
20.060,0.015
20.065,-0.008
20.070,0.019
20.075,0.004
20.080,0.006
20.085,0.005
20.090,-0.008
20.095,0.016
20.100,-0.014
20.105,-0.012
20.110,-0.013
20.115,-0.037
20.120,-0.005
20.125,-0.026
20.130,-0.034
20.135,-0.032
20.140,-0.050
20.145,-0.037
20.150,-0.057
20.155,-0.044
20.160,-0.053
20.165,-0.079
20.170,-0.046
20.175,-0.063
20.180,-0.058
20.185,-0.053
20.190,-0.060
20.195,-0.032
20.200,-0.047
20.205,-0.026
20.210,-0.011
20.215,-0.018
20.220,0.028
20.225,0.034
20.230,0.050
20.235,0.053
20.240,0.048
20.245,0.081
20.250,0.070
20.255,0.092
20.260,0.098
20.265,0.076
20.270,0.101
20.275,0.081
20.280,0.088
20.285,0.099
20.290,0.084
20.295,0.096
20.300,0.068
20.305,0.077
20.310,0.074
20.315,0.049
20.320,0.078
20.325,0.060
20.330,0.062
20.335,0.065
20.340,0.047
20.345,0.064
20.350,0.039
20.355,0.047
20.360,0.044
20.365,0.020
20.370,0.048
20.375,0.027
20.380,0.024
20.385,0.027
20.390,0.018
20.395,0.029
20.400,-0.013
20.405,-0.006
20.410,-0.005
20.415,-0.024
20.420,0.007
20.425,-0.015
20.430,-0.011
20.435,-0.005
20.440,-0.022
20.445,-0.001
20.450,-0.023
20.455,-0.012
20.460,-0.009
20.465,-0.029
20.470,-0.002
20.475,-0.021
20.480,-0.020
20.485,-0.015
20.490,-0.022
20.495,0.008
20.500,-0.022
20.505,-0.020
20.510,-0.017
20.515,-0.037
20.520,-0.002
20.525,-0.017
20.530,-0.017
20.535,-0.009
20.540,-0.028
20.545,-0.011
20.550,-0.024
20.555,-0.007
20.560,-0.009
20.565,-0.032
20.570,-0.001
20.575,-0.016
20.580,-0.018
20.585,-0.018
20.590,-0.028
20.595,-0.005
20.600,-0.025
20.605,-0.012
20.610,-0.010
20.615,-0.032
20.620,-0.001
20.625,-0.019
20.630,-0.018
20.635,-0.012
20.640,-0.026
20.645,0.000
20.650,-0.013
20.655,-0.007
20.660,-0.018
20.665,-0.045
20.670,-0.015
20.675,-0.031
20.680,-0.029
20.685,-0.024
20.690,-0.035
20.695,-0.014
20.700,-0.039
20.705,-0.026
20.710,-0.018
20.715,-0.037
20.720,-0.009
20.725,-0.030
20.730,-0.038
20.735,-0.036
20.740,-0.041
20.745,-0.018
20.750,-0.037
20.755,-0.013
20.760,-0.007
20.765,-0.024
20.770,0.019
20.775,0.014
20.780,0.020
20.785,0.019
20.790,0.002
20.795,0.028
20.800,0.009
20.805,0.013
20.810,0.015
20.815,-0.006
20.820,0.021
20.825,0.006
20.830,0.011
20.835,0.013
20.840,-0.008
20.845,0.012
20.850,-0.007
20.855,0.006
20.860,0.009
20.865,-0.007
20.870,0.026
20.875,-0.015
20.880,-0.086
20.885,-0.205
20.890,-0.384
20.895,-0.514
20.900,-0.540
20.905,-0.301
20.910,0.010
20.915,0.152
20.920,0.189
20.925,0.148
20.930,0.152
20.935,0.159
20.940,0.113
20.945,0.099
20.950,0.072
20.955,0.077
20.960,0.066
20.965,0.045
20.970,0.076
20.975,0.047
20.980,0.045
20.985,0.054
20.990,0.034
20.995,0.050
21.000,0.032
21.005,0.040
21.010,0.043
21.015,0.021
21.020,0.042
21.025,0.017
21.030,0.018
21.035,0.030
21.040,0.014
21.045,0.026
21.050,0.002
21.055,0.017
21.060,0.023
21.065,-0.006
21.070,0.017
21.075,-0.004
21.080,-0.006
21.085,-0.001
21.090,-0.017
21.095,0.001
21.100,-0.023
21.105,-0.014
21.110,-0.014
21.115,-0.042
21.120,-0.018
21.125,-0.041
21.130,-0.049
21.135,-0.046
21.140,-0.062
21.145,-0.043
21.150,-0.067
21.155,-0.059
21.160,-0.053
21.165,-0.073
21.170,-0.040
21.175,-0.051
21.180,-0.043
21.185,-0.035
21.190,-0.049
21.195,-0.020
21.200,-0.021
21.205,0.013
21.210,0.032
21.215,0.018
21.220,0.060
21.225,0.059
21.230,0.070
21.235,0.084
21.240,0.076
21.245,0.101
21.250,0.082
21.255,0.097
21.260,0.103
21.265,0.075
21.270,0.096
21.275,0.077
21.280,0.080
21.285,0.087
21.290,0.068
21.295,0.086
21.300,0.066
21.305,0.076
21.310,0.073
21.315,0.042
21.320,0.069
21.325,0.054
21.330,0.049
21.335,0.049
21.340,0.032
21.345,0.051
21.350,0.031
21.355,0.037
21.360,0.034
21.365,0.010
21.370,0.036
21.375,0.017
21.380,0.013
21.385,0.019
21.390,0.004
21.395,0.016
21.400,-0.009
21.405,-0.002
21.410,0.000
21.415,-0.023
21.420,0.002
21.425,-0.014
21.430,-0.012
21.435,-0.009
21.440,-0.026
21.445,-0.003
21.450,-0.020
21.455,-0.012
21.460,-0.011
21.465,-0.033
21.470,-0.006
21.475,-0.020
21.480,-0.019
21.485,-0.010
21.490,-0.020
21.495,-0.004
21.500,-0.029
21.505,-0.016
21.510,-0.006
21.515,-0.028
21.520,-0.008
21.525,-0.027
21.530,-0.026
21.535,-0.018
21.540,-0.030
21.545,-0.011
21.550,-0.033
21.555,-0.023
21.560,-0.021
21.565,-0.051
21.570,-0.024
21.575,-0.036
21.580,-0.029
21.585,-0.021
21.590,-0.042
21.595,-0.033
21.600,-0.052
21.605,-0.032
21.610,-0.024
21.615,-0.042
21.620,-0.008
21.625,-0.019
21.630,-0.018
21.635,-0.008
21.640,-0.006
21.645,0.021
21.650,0.006
21.655,0.020
21.660,0.019
21.665,-0.002
21.670,0.025
21.675,0.004
21.680,0.006
21.685,0.013
21.690,-0.002
21.695,0.020
21.700,-0.006
21.705,0.001
21.710,0.006
21.715,-0.018
21.720,0.010
21.725,-0.003
21.730,-0.002
21.735,0.002
21.740,-0.014
21.745,0.012
21.750,-0.017
21.755,-0.064
21.760,-0.177
21.765,-0.365
21.770,-0.500
21.775,-0.573
21.780,-0.413
21.785,-0.086
21.790,0.121
21.795,0.177
21.800,0.143
21.805,0.158
21.810,0.170
21.815,0.121
21.820,0.103
21.825,0.072
21.830,0.074
21.835,0.063
21.840,0.042
21.845,0.073
21.850,0.047
21.855,0.043
21.860,0.048
21.865,0.023
21.870,0.047
21.875,0.038
21.880,0.035
21.885,0.033
21.890,0.019
21.895,0.037
21.900,0.015
21.905,0.028
21.910,0.032
21.915,0.006
21.920,0.033
21.925,0.015
21.930,0.011
21.935,0.012
21.940,-0.002
21.945,0.017
21.950,-0.013
21.955,-0.003
21.960,0.000
21.965,-0.029
21.970,0.000
21.975,-0.016
21.980,-0.018
21.985,-0.018
21.990,-0.042
21.995,-0.026
22.000,-0.047
22.005,-0.041
22.010,-0.052
22.015,-0.081
22.020,-0.048
22.025,-0.067
22.030,-0.067
22.035,-0.059
22.040,-0.075
22.045,-0.055
22.050,-0.068
22.055,-0.050
22.060,-0.044
22.065,-0.058
22.070,-0.016
22.075,-0.014
22.080,0.006
22.085,0.025
22.090,0.026
22.095,0.066
22.100,0.057
22.105,0.077
22.110,0.094
22.115,0.078
22.120,0.109
22.125,0.097
22.130,0.095
22.135,0.096
22.140,0.081
22.145,0.101
22.150,0.080
22.155,0.089
22.160,0.088
22.165,0.065
22.170,0.096
22.175,0.073
22.180,0.071
22.185,0.072
22.190,0.046
22.195,0.069
22.200,0.048
22.205,0.054
22.210,0.055
22.215,0.026
22.220,0.054
22.225,0.036
22.230,0.033
22.235,0.038
22.240,0.019
22.245,0.037
22.250,0.012
22.255,0.015
22.260,0.018
22.265,-0.011
22.270,0.019
22.275,0.005
22.280,-0.002
22.285,0.001
22.290,-0.019
22.295,-0.002
22.300,-0.021
22.305,-0.009
22.310,-0.007
22.315,-0.032
22.320,0.004
22.325,-0.015
22.330,-0.025
22.335,-0.013
22.340,-0.023
22.345,0.000
22.350,-0.020
22.355,-0.018
22.360,-0.013
22.365,-0.033
22.370,-0.005
22.375,-0.022
22.380,-0.017
22.385,-0.012
22.390,-0.034
22.395,-0.011
22.400,-0.029
22.405,-0.018
22.410,-0.018
22.415,-0.046
22.420,-0.011
22.425,-0.028
22.430,-0.033
22.435,-0.024
22.440,-0.039
22.445,-0.020
22.450,-0.037
22.455,-0.029
22.460,-0.033
22.465,-0.062
22.470,-0.032
22.475,-0.039
22.480,-0.035
22.485,-0.028
22.490,-0.036
22.495,-0.010
22.500,-0.029
22.505,-0.007
22.510,0.017
22.515,0.005
22.520,0.030
22.525,0.003
22.530,0.004
22.535,0.015
22.540,0.001
22.545,0.019
22.550,-0.002
22.555,0.010
22.560,0.013
22.565,-0.014
22.570,0.017
22.575,0.001
22.580,0.002
22.585,0.014
22.590,-0.004
22.595,0.006
22.600,-0.022
22.605,-0.011
22.610,0.000
22.615,-0.015
22.620,0.013
22.625,-0.044
22.630,-0.145
22.635,-0.296
22.640,-0.491
22.645,-0.580
22.650,-0.503
22.655,-0.179
22.660,0.104
22.665,0.156
22.670,0.171
22.675,0.149
22.680,0.164
22.685,0.160
22.690,0.096
22.695,0.092
22.700,0.073
22.705,0.066
22.710,0.066
22.715,0.044
22.720,0.058
22.725,0.039
22.730,0.048
22.735,0.058
22.740,0.032
22.745,0.051
22.750,0.033
22.755,0.034
22.760,0.035
22.765,0.012
22.770,0.039
22.775,0.027
22.780,0.029
22.785,0.026
22.790,0.000
22.795,0.019
22.800,0.001
22.805,0.011
22.810,0.012
22.815,-0.012
22.820,0.019
22.825,0.000
22.830,-0.003
22.835,0.003
22.840,-0.021
22.845,-0.007
22.850,-0.028
22.855,-0.017
22.860,-0.019
22.865,-0.058
22.870,-0.031
22.875,-0.053
22.880,-0.057
22.885,-0.046
22.890,-0.067
22.895,-0.046
22.900,-0.065
22.905,-0.064
22.910,-0.059
22.915,-0.078
22.920,-0.044
22.925,-0.051
22.930,-0.045
22.935,-0.031
22.940,-0.030
22.945,0.000
22.950,-0.015
22.955,0.014
22.960,0.038
22.965,0.033
22.970,0.075
22.975,0.066
22.980,0.079
22.985,0.099
22.990,0.087
22.995,0.110
23.000,0.091
23.005,0.100
23.010,0.104
23.015,0.077
23.020,0.103
23.025,0.080
23.030,0.076
23.035,0.087
23.040,0.069
23.045,0.086
23.050,0.063
23.055,0.069
23.060,0.073
23.065,0.045
23.070,0.073
23.075,0.053
23.080,0.046
23.085,0.050
23.090,0.037
23.095,0.056
23.100,0.019
23.105,0.018
23.110,0.027
23.115,0.005
23.120,0.034
23.125,0.015
23.130,0.012
23.135,0.020
23.140,-0.004
23.145,0.009
23.150,-0.010
23.155,-0.002
23.160,0.002
23.165,-0.021
23.170,0.002
23.175,-0.024
23.180,-0.025
23.185,-0.013
23.190,-0.025
23.195,-0.003
23.200,-0.023
23.205,-0.009
23.210,-0.002
23.215,-0.032
23.220,-0.005
23.225,-0.025
23.230,-0.027
23.235,-0.013
23.240,-0.027
23.245,-0.005
23.250,-0.022
23.255,-0.012
23.260,-0.007
23.265,-0.035
23.270,-0.006
23.275,-0.018
23.280,-0.019
23.285,-0.010
23.290,-0.024
23.295,-0.001
23.300,-0.022
23.305,-0.025
23.310,-0.029
23.315,-0.052
23.320,-0.014
23.325,-0.028
23.330,-0.034
23.335,-0.022
23.340,-0.037
23.345,-0.020
23.350,-0.043
23.355,-0.030
23.360,-0.023
23.365,-0.055
23.370,-0.031
23.375,-0.037
23.380,-0.034
23.385,-0.030
23.390,-0.041
23.395,-0.015
23.400,-0.029
23.405,-0.008
23.410,0.016
23.415,0.001
23.420,0.028
23.425,0.004
23.430,0.006
23.435,0.022
23.440,-0.007
23.445,0.006
23.450,-0.007
23.455,0.005
23.460,0.013
23.465,-0.011
23.470,0.015
23.475,-0.007
23.480,-0.011
23.485,0.004
23.490,-0.008
23.495,0.012
23.500,-0.007
23.505,0.001
23.510,0.006
23.515,-0.015
23.520,-0.006
23.525,-0.086
23.530,-0.206
23.535,-0.359
23.540,-0.523
23.545,-0.516
23.550,-0.322
23.555,-0.008
23.560,0.169
23.565,0.152
23.570,0.161
23.575,0.153
23.580,0.153
23.585,0.135
23.590,0.075
23.595,0.077
23.600,0.050
23.605,0.045
23.610,0.059
23.615,0.038
23.620,0.056
23.625,0.041
23.630,0.043
23.635,0.048
23.640,0.026
23.645,0.047
23.650,0.023
23.655,0.029
23.660,0.038
23.665,0.011
23.670,0.034
23.675,0.011
23.680,0.006
23.685,0.014
23.690,-0.005
23.695,0.017
23.700,-0.002
23.705,0.004
23.710,0.013
23.715,-0.013
23.720,0.013
23.725,-0.004
23.730,-0.010
23.735,-0.002
23.740,-0.025
23.745,-0.015
23.750,-0.030
23.755,-0.022
23.760,-0.018
23.765,-0.046
23.770,-0.027
23.775,-0.047
23.780,-0.055
23.785,-0.051
23.790,-0.066
23.795,-0.046
23.800,-0.066
23.805,-0.049
23.810,-0.042
23.815,-0.079
23.820,-0.045
23.825,-0.050
23.830,-0.040
23.835,-0.016
23.840,-0.024
23.845,0.012
23.850,0.008
23.855,0.026
23.860,0.047
23.865,0.037
23.870,0.077
23.875,0.071
23.880,0.076
23.885,0.095
23.890,0.080
23.895,0.095
23.900,0.078
23.905,0.087
23.910,0.095
23.915,0.070
23.920,0.094
23.925,0.078
23.930,0.074
23.935,0.081
23.940,0.060
23.945,0.082
23.950,0.062
23.955,0.065
23.960,0.071
23.965,0.040
23.970,0.066
23.975,0.053
23.980,0.042
23.985,0.041
23.990,0.018
23.995,0.042
24.000,0.027
24.005,0.031
24.010,0.032
24.015,0.000
24.020,0.028
24.025,0.014
24.030,0.006
24.035,0.010
24.040,-0.013
24.045,0.008
24.050,-0.008
24.055,-0.006
24.060,-0.004
24.065,-0.028
24.070,0.001
24.075,-0.015
24.080,-0.019
24.085,-0.007
24.090,-0.022
24.095,-0.001
24.100,-0.023
24.105,-0.020
24.110,-0.009
24.115,-0.033
24.120,-0.003
24.125,-0.020
24.130,-0.024
24.135,-0.006
24.140,-0.021
24.145,-0.004
24.150,-0.018
24.155,-0.012
24.160,-0.014
24.165,-0.039
24.170,-0.003
24.175,-0.013
24.180,-0.017
24.185,-0.009
24.190,-0.025
24.195,-0.003
24.200,-0.021
24.205,-0.015
24.210,-0.006
24.215,-0.028
24.220,-0.002
24.225,-0.028
24.230,-0.034
24.235,-0.021
24.240,-0.035
24.245,-0.013
24.250,-0.037
24.255,-0.031
24.260,-0.016
24.265,-0.039
24.270,-0.011
24.275,-0.030
24.280,-0.042
24.285,-0.032
24.290,-0.044
24.295,-0.020
24.300,-0.032
24.305,-0.016
24.310,-0.009
24.315,-0.037
24.320,0.005
24.325,0.006
24.330,0.012
24.335,0.024
24.340,-0.001
24.345,0.021
24.350,0.008
24.355,0.012
24.360,0.019
24.365,-0.008
24.370,0.018
24.375,0.004
24.380,0.002
24.385,0.014
24.390,-0.005
24.395,0.013
24.400,-0.012
24.405,-0.004
24.410,0.007
24.415,-0.019
24.420,0.013
24.425,0.001
24.430,-0.018
24.435,-0.065
24.440,-0.201
24.445,-0.339
24.450,-0.509
24.455,-0.533
24.460,-0.333
24.465,-0.054
24.470,0.167
24.475,0.169
24.480,0.133
24.485,0.150
24.490,0.140
24.495,0.137
24.500,0.084
24.505,0.078
24.510,0.082
24.515,0.041
24.520,0.069
24.525,0.060
24.530,0.046
24.535,0.051
24.540,0.037
24.545,0.053
24.550,0.031
24.555,0.039
24.560,0.042
24.565,0.009
24.570,0.038
24.575,0.023
24.580,0.017
24.585,0.028
24.590,0.011
24.595,0.033
24.600,0.014
24.605,0.014
24.610,0.019
24.615,-0.011
24.620,0.020
24.625,0.006
24.630,-0.009
24.635,0.000
24.640,-0.015
24.645,0.003
24.650,-0.020
24.655,-0.021
24.660,-0.013
24.665,-0.035
24.670,-0.010
24.675,-0.034
24.680,-0.045
24.685,-0.039
24.690,-0.061
24.695,-0.042
24.700,-0.064
24.705,-0.062
24.710,-0.050
24.715,-0.080
24.720,-0.054
24.725,-0.063
24.730,-0.062
24.735,-0.039
24.740,-0.050
24.745,-0.024
24.750,-0.027
24.755,-0.008
24.760,0.013
24.765,0.007
24.770,0.055
24.775,0.045
24.780,0.046
24.785,0.073
24.790,0.064
24.795,0.094
24.800,0.084
24.805,0.090
24.810,0.103
24.815,0.077
24.820,0.102
24.825,0.090
24.830,0.083
24.835,0.088
24.840,0.064
24.845,0.086
24.850,0.069
24.855,0.066
24.860,0.071
24.865,0.040
24.870,0.067
24.875,0.053
24.880,0.046
24.885,0.059
24.890,0.041
24.895,0.054
24.900,0.036
24.905,0.041
24.910,0.043
24.915,0.015
24.920,0.044
24.925,0.028
24.930,0.016
24.935,0.014
24.940,-0.012
24.945,0.009
24.950,-0.007
24.955,0.001
24.960,0.010
24.965,-0.020
24.970,0.008
24.975,-0.006
24.980,-0.017
24.985,-0.005
24.990,-0.022
24.995,-0.004
25.000,-0.021
25.005,-0.012
25.010,-0.005
25.015,-0.038
25.020,-0.005
25.025,-0.017
25.030,-0.024
25.035,-0.011
25.040,-0.036
25.045,-0.018
25.050,-0.032
25.055,-0.028
25.060,-0.017
25.065,-0.040
25.070,-0.014
25.075,-0.033
25.080,-0.035
25.085,-0.013
25.090,-0.024
25.095,-0.014
25.100,-0.058
25.105,-0.061
25.110,-0.037
25.115,-0.046
25.120,-0.009
25.125,-0.025
25.130,-0.029
25.135,-0.008
25.140,-0.023
25.145,0.008
25.150,0.011
25.155,0.020
25.160,0.026
25.165,-0.006
25.170,0.024
25.175,0.012
25.180,-0.005
25.185,0.009
25.190,-0.006
25.195,0.014
25.200,0.002
25.205,0.005
25.210,0.014
25.215,-0.015
25.220,0.012
25.225,-0.001
25.230,-0.007
25.235,0.004
25.240,-0.021
25.245,0.006
25.250,-0.003
25.255,-0.005
25.260,-0.014
25.265,-0.103
25.270,-0.195
25.275,-0.374
25.280,-0.550
25.285,-0.563
25.290,-0.364
25.295,-0.025
25.300,0.141
25.305,0.164
25.310,0.154
25.315,0.127
25.320,0.160
25.325,0.118
25.330,0.075
25.335,0.086
25.340,0.061
25.345,0.067
25.350,0.053
25.355,0.056
25.360,0.054
25.365,0.027
25.370,0.063
25.375,0.041
25.380,0.022
25.385,0.045
25.390,0.026
25.395,0.042
25.400,0.029
25.405,0.024
25.410,0.029
25.415,0.003
25.420,0.031
25.425,0.019
25.430,0.012
25.435,0.022
25.440,0.002
25.445,0.020
25.450,0.000
25.455,0.003
25.460,0.009
25.465,-0.028
25.470,-0.002
25.475,-0.015
25.480,-0.022
25.485,-0.005
25.490,-0.030
25.495,-0.018
25.500,-0.034
25.505,-0.036
25.510,-0.034
25.515,-0.068
25.520,-0.048
25.525,-0.063
25.530,-0.070
25.535,-0.059
25.540,-0.073
25.545,-0.054
25.550,-0.071
25.555,-0.064
25.560,-0.051
25.565,-0.069
25.570,-0.031
25.575,-0.037
25.580,-0.029
25.585,0.005
25.590,0.003
25.595,0.040
25.600,0.037
25.605,0.049
25.610,0.076
25.615,0.057
25.620,0.092
25.625,0.090
25.630,0.089
25.635,0.109
25.640,0.091
25.645,0.104
25.650,0.087
25.655,0.089
25.660,0.094
25.665,0.065
25.670,0.095
25.675,0.076
25.680,0.062
25.685,0.078
25.690,0.060
25.695,0.079
25.700,0.056
25.705,0.050
25.710,0.060
25.715,0.031
25.720,0.057
25.725,0.041
25.730,0.030
25.735,0.046
25.740,0.026
25.745,0.045
25.750,0.029
25.755,0.020
25.760,0.020
25.765,-0.010
25.770,0.016
25.775,0.008
25.780,-0.001
25.785,0.009
25.790,-0.010
25.795,0.006
25.800,-0.009
25.805,-0.002
25.810,0.006
25.815,-0.033
25.820,-0.005
25.825,-0.014
25.830,-0.021
25.835,-0.004
25.840,-0.026
25.845,-0.005
25.850,-0.015
25.855,-0.015
25.860,-0.007
25.865,-0.033
25.870,-0.006
25.875,-0.017
25.880,-0.023
25.885,-0.012
25.890,-0.032
25.895,-0.009
25.900,-0.018
25.905,-0.017
25.910,-0.016
25.915,-0.050
25.920,-0.020
25.925,-0.026
25.930,-0.031
25.935,-0.018
25.940,-0.040
25.945,-0.028
25.950,-0.044
25.955,-0.032
25.960,-0.017
25.965,-0.047
25.970,-0.029
25.975,-0.044
25.980,-0.043
25.985,-0.019
25.990,-0.034
25.995,-0.015
26.000,-0.026
26.005,-0.018
26.010,-0.001
26.015,-0.010
26.020,0.030
26.025,0.008
26.030,-0.002
26.035,0.015
26.040,-0.002
26.045,0.020
26.050,0.002
26.055,0.005
26.060,0.019
26.065,-0.010
26.070,0.016
26.075,0.002
26.080,-0.007
26.085,0.011
26.090,-0.010
26.095,0.005
26.100,-0.007
26.105,-0.009
26.110,-0.002
26.115,-0.023
26.120,0.013
26.125,-0.007
26.130,-0.075
26.135,-0.184
26.140,-0.374
26.145,-0.530
26.150,-0.595
26.155,-0.399
26.160,-0.056
26.165,0.130
26.170,0.185
26.175,0.156
26.180,0.153
26.185,0.167
26.190,0.116
26.195,0.096
26.200,0.077
26.205,0.078
26.210,0.067
26.215,0.037
26.220,0.074
26.225,0.054
26.230,0.039
26.235,0.059
26.240,0.032
26.245,0.045
26.250,0.042
26.255,0.043
26.260,0.039
26.265,0.007
26.270,0.037
26.275,0.026
26.280,0.014
26.285,0.030
26.290,0.010
26.295,0.020
26.300,0.006
26.305,0.010
26.310,0.019
26.315,-0.012
26.320,0.013
26.325,0.002
26.330,-0.006
26.335,0.007
26.340,-0.019
26.345,-0.004
26.350,-0.018
26.355,-0.018
26.360,-0.010
26.365,-0.047
26.370,-0.027
26.375,-0.041
26.380,-0.050
26.385,-0.041
26.390,-0.073
26.395,-0.056
26.400,-0.065
26.405,-0.066
26.410,-0.057
26.415,-0.086
26.420,-0.055
26.425,-0.057
26.430,-0.059
26.435,-0.037
26.440,-0.044
26.445,-0.014
26.450,-0.017
26.455,0.003
26.460,0.036
26.465,0.029
26.470,0.067
26.475,0.059
26.480,0.062
26.485,0.091
26.490,0.081
26.495,0.104
26.500,0.094
26.505,0.098
26.510,0.112
26.515,0.082
26.520,0.100
26.525,0.086
26.530,0.072
26.535,0.085
26.540,0.066
26.545,0.081
26.550,0.068
26.555,0.067
26.560,0.069
26.565,0.040
26.570,0.071
26.575,0.061
26.580,0.048
26.585,0.063
26.590,0.038
26.595,0.045
26.600,0.030
26.605,0.032
26.610,0.043
26.615,0.015
26.620,0.037
26.625,0.021
26.630,0.005
26.635,0.019
26.640,-0.001
26.645,0.015
26.650,0.001
26.655,0.000
26.660,0.012
26.665,-0.022
26.670,-0.004
26.675,-0.015
26.680,-0.024
26.685,-0.005
26.690,-0.024
26.695,-0.008
26.700,-0.017
26.705,-0.012
26.710,-0.003
26.715,-0.034
26.720,-0.006
26.725,-0.014
26.730,-0.023
26.735,-0.003
26.740,-0.023
26.745,-0.012
26.750,-0.022
26.755,-0.019
26.760,-0.004
26.765,-0.030
26.770,-0.009
26.775,-0.019
26.780,-0.027
26.785,-0.011
26.790,-0.031
26.795,-0.013
26.800,-0.027
26.805,-0.028
26.810,-0.019
26.815,-0.050
26.820,-0.023
26.825,-0.037
26.830,-0.047
26.835,-0.023
26.840,-0.037
26.845,-0.022
26.850,-0.042
26.855,-0.043
26.860,-0.024
26.865,-0.047
26.870,-0.017
26.875,-0.019
26.880,-0.028
26.885,-0.016
26.890,-0.028
26.895,0.005
26.900,0.008
26.905,0.013
26.910,0.022
26.915,0.000
26.920,0.030
26.925,0.014
26.930,-0.002
26.935,0.010
26.940,-0.009
26.945,0.006
26.950,-0.007
26.955,0.002
26.960,0.017
26.965,-0.011
26.970,0.012
26.975,-0.007
26.980,-0.015
26.985,0.003
26.990,-0.019
26.995,0.004
27.000,0.002
27.005,-0.004
27.010,-0.054
27.015,-0.207
27.020,-0.344
27.025,-0.526
27.030,-0.582
27.035,-0.378
27.040,-0.080
27.045,0.153
27.050,0.168
27.055,0.146
27.060,0.167
27.065,0.151
27.070,0.157
27.075,0.104
27.080,0.071
27.085,0.079
27.090,0.045
27.095,0.064
27.100,0.056
27.105,0.041
27.110,0.051
27.115,0.033
27.120,0.053
27.125,0.033
27.130,0.027
27.135,0.046
27.140,0.022
27.145,0.038
27.150,0.025
27.155,0.023
27.160,0.032
27.165,0.006
27.170,0.032
27.175,0.016
27.180,0.004
27.185,0.021
27.190,0.000
27.195,0.010
27.200,-0.007
27.205,-0.006
27.210,0.009
27.215,-0.023
27.220,-0.004
27.225,-0.013
27.230,-0.027
27.235,-0.021
27.240,-0.041
27.245,-0.022
27.250,-0.034
27.255,-0.039
27.260,-0.038
27.265,-0.071
27.270,-0.044
27.275,-0.058
27.280,-0.070
27.285,-0.051
27.290,-0.071
27.295,-0.049
27.300,-0.054
27.305,-0.054
27.310,-0.040
27.315,-0.057
27.320,-0.025
27.325,-0.028
27.330,-0.016
27.335,0.022
27.340,0.020
27.345,0.050
27.350,0.049
27.355,0.066
27.360,0.088
27.365,0.065
27.370,0.100
27.375,0.093
27.380,0.079
27.385,0.101
27.390,0.088
27.395,0.105
27.400,0.092
27.405,0.085
27.410,0.088
27.415,0.062
27.420,0.088
27.425,0.073
27.430,0.060
27.435,0.071
27.440,0.054
27.445,0.073
27.450,0.056
27.455,0.052
27.460,0.063
27.465,0.032
27.470,0.055
27.475,0.043
27.480,0.030
27.485,0.042
27.490,0.022
27.495,0.038
27.500,0.016
27.505,0.014
27.510,0.023
27.515,-0.016
27.520,0.008
27.525,-0.004
27.530,-0.013
27.535,0.007
27.540,-0.015
27.545,0.000
27.550,-0.011
27.555,-0.010
27.560,-0.002
27.565,-0.034
27.570,-0.009
27.575,-0.013
27.580,-0.020
27.585,-0.011
27.590,-0.035
27.595,-0.013
27.600,-0.021
27.605,-0.019
27.610,-0.003
27.615,-0.026
27.620,0.002
27.625,-0.015
27.630,-0.028
27.635,-0.004
27.640,-0.025
27.645,-0.013
27.650,-0.023
27.655,-0.015
27.660,-0.002
27.665,-0.037
27.670,-0.010
27.675,-0.019
27.680,-0.027
27.685,-0.007
27.690,-0.035
27.695,-0.019
27.700,-0.027
27.705,-0.030
27.710,-0.017
27.715,-0.042
27.720,-0.019
27.725,-0.038
27.730,-0.045
27.735,-0.018
27.740,-0.037
27.745,-0.026
27.750,-0.044
27.755,-0.038
27.760,-0.016
27.765,-0.045
27.770,-0.017
27.775,-0.019
27.780,-0.024
27.785,0.004
27.790,-0.002
27.795,0.025
27.800,0.012
27.805,-0.003
27.810,0.011
27.815,-0.010
27.820,0.016
27.825,0.006
27.830,-0.005
27.835,0.016
27.840,0.000
27.845,0.015
27.850,0.002
27.855,0.001
27.860,0.010
27.865,-0.016
27.870,0.010
27.875,-0.005
27.880,-0.015
27.885,0.002
27.890,-0.014
27.895,0.012
27.900,-0.012
27.905,-0.069
27.910,-0.164
27.915,-0.344
27.920,-0.468
27.925,-0.515
27.930,-0.361
27.935,-0.049
27.940,0.131
27.945,0.175
27.950,0.142
27.955,0.138
27.960,0.160
27.965,0.112
27.970,0.094
27.975,0.071
27.980,0.055
27.985,0.062
27.990,0.044
27.995,0.063
28.000,0.041
28.005,0.039
28.010,0.055
28.015,0.023
28.020,0.046
28.025,0.029
28.030,0.016
28.035,0.038
28.040,0.020
28.045,0.033
28.050,0.015
28.055,0.015
28.060,0.030
28.065,-0.003
28.070,0.023
28.075,0.014
28.080,0.002
28.085,0.017
28.090,-0.008
28.095,0.009
28.100,0.001
28.105,-0.008
28.110,-0.007
28.115,-0.032
28.120,-0.003
28.125,-0.011
28.130,-0.027
28.135,-0.018
28.140,-0.042
28.145,-0.027
28.150,-0.039
28.155,-0.045
28.160,-0.036
28.165,-0.070
28.170,-0.051
28.175,-0.057
28.180,-0.069
28.185,-0.053
28.190,-0.069
28.195,-0.049
28.200,-0.051
28.205,-0.049
28.210,-0.036
28.215,-0.051
28.220,-0.010
28.225,-0.001
28.230,0.001
28.235,0.030
28.240,0.026
28.245,0.059
28.250,0.062
28.255,0.071
28.260,0.091
28.265,0.069
28.270,0.097
28.275,0.095
28.280,0.083
28.285,0.094
28.290,0.072
28.295,0.087
28.300,0.076
28.305,0.077
28.310,0.087
28.315,0.057
28.320,0.083
28.325,0.071
28.330,0.057
28.335,0.073
28.340,0.048
28.345,0.061
28.350,0.050
28.355,0.051
28.360,0.060
28.365,0.023
28.370,0.046
28.375,0.036
28.380,0.022
28.385,0.037
28.390,0.015
28.395,0.034
28.400,0.022
28.405,0.011
28.410,0.016
28.415,-0.012
28.420,0.008
28.425,-0.010
28.430,-0.019
28.435,0.002
28.440,-0.019
28.445,-0.003
28.450,-0.017
28.455,-0.017
28.460,-0.001
28.465,-0.031
28.470,-0.006
28.475,-0.012
28.480,-0.023
28.485,-0.002
28.490,-0.020
28.495,-0.009
28.500,-0.023
28.505,-0.022
28.510,-0.005
28.515,-0.027
28.520,-0.006
28.525,-0.024
28.530,-0.030
28.535,-0.007
28.540,-0.030
28.545,-0.018
28.550,-0.029
28.555,-0.028
28.560,-0.017
28.565,-0.049
28.570,-0.023
28.575,-0.026
28.580,-0.033
28.585,-0.012
28.590,-0.035
28.595,-0.025
28.600,-0.043
28.605,-0.048
28.610,-0.023
28.615,-0.040
28.620,-0.009
28.625,-0.015
28.630,-0.027
28.635,0.009
28.640,0.009
28.645,0.029
28.650,0.021
28.655,0.018
28.660,0.024
28.665,-0.012
28.670,0.011
28.675,0.004
28.680,-0.005
28.685,0.015
28.690,-0.003
28.695,0.010
28.700,-0.008
28.705,-0.009
28.710,0.010
28.715,-0.015
28.720,0.011
28.725,0.002
28.730,-0.011
28.735,0.006
28.740,-0.015
28.745,0.007
28.750,-0.001
28.755,-0.044
28.760,-0.122
28.765,-0.287
28.770,-0.438
28.775,-0.564
28.780,-0.491
28.785,-0.180
28.790,0.073
28.795,0.170
28.800,0.146
28.805,0.143
28.810,0.171
28.815,0.130
28.820,0.107
28.825,0.075
28.830,0.062
28.835,0.070
28.840,0.045
28.845,0.068
28.850,0.052
28.855,0.043
28.860,0.060
28.865,0.025
28.870,0.043
28.875,0.034
28.880,0.025
28.885,0.044
28.890,0.020
28.895,0.035
28.900,0.028
28.905,0.022
28.910,0.036
28.915,0.007
28.920,0.025
28.925,0.020
28.930,0.007
28.935,0.015
28.940,-0.006
28.945,0.007
28.950,0.000
28.955,-0.001
28.960,0.005
28.965,-0.026
28.970,-0.003
28.975,-0.013
28.980,-0.027
28.985,-0.011
28.990,-0.039
28.995,-0.026
29.000,-0.039
29.005,-0.050
29.010,-0.037
29.015,-0.065
29.020,-0.054
29.025,-0.066
29.030,-0.076
29.035,-0.052
29.040,-0.067
29.045,-0.053
29.050,-0.061
29.055,-0.058
29.060,-0.039
29.065,-0.055
29.070,-0.015
29.075,-0.008
29.080,-0.001
29.085,0.038
29.090,0.027
29.095,0.047
29.100,0.056
29.105,0.066
29.110,0.081
29.115,0.060
29.120,0.094
29.125,0.096
29.130,0.087
29.135,0.106
29.140,0.088
29.145,0.097
29.150,0.081
29.155,0.076
29.160,0.090
29.165,0.061
29.170,0.083
29.175,0.076
29.180,0.056
29.185,0.064
29.190,0.044
29.195,0.062
29.200,0.054
29.205,0.049
29.210,0.058
29.215,0.032
29.220,0.059
29.225,0.046
29.230,0.025
29.235,0.039
29.240,0.016
29.245,0.030
29.250,0.019
29.255,0.010
29.260,0.020
29.265,-0.007
29.270,0.012
29.275,0.003
29.280,-0.009
29.285,0.007
29.290,-0.015
29.295,-0.003
29.300,-0.011
29.305,-0.014
29.310,-0.002
29.315,-0.029
29.320,-0.004
29.325,-0.009
29.330,-0.019
29.335,-0.004
29.340,-0.028
29.345,-0.012
29.350,-0.022
29.355,-0.020
29.360,-0.007
29.365,-0.041
29.370,-0.014
29.375,-0.020
29.380,-0.035
29.385,-0.016
29.390,-0.040
29.395,-0.026
29.400,-0.032
29.405,-0.036
29.410,-0.013
29.415,-0.038
29.420,-0.026
29.425,-0.043
29.430,-0.060
29.435,-0.033
29.440,-0.044
29.445,-0.028
29.450,-0.027
29.455,-0.025
29.460,-0.012
29.465,-0.030
29.470,0.016
29.475,0.024
29.480,0.011
29.485,0.026
29.490,0.006
29.495,0.020
29.500,0.002
29.505,-0.007
29.510,0.011
29.515,-0.008
29.520,0.019
29.525,0.004
29.530,-0.012
29.535,0.011
29.540,-0.009
29.545,0.005
29.550,-0.003
29.555,-0.007
29.560,0.011
29.565,-0.018
29.570,-0.004
29.575,-0.011
29.580,-0.017
29.585,0.012
29.590,-0.033
29.595,-0.103
29.600,-0.247
29.605,-0.430
29.610,-0.564
29.615,-0.567
29.620,-0.275
29.625,0.027
29.630,0.144
29.635,0.165
29.640,0.134
29.645,0.165
29.650,0.159
29.655,0.107
29.660,0.088
29.665,0.059
29.670,0.074
29.675,0.057
29.680,0.051
29.685,0.070
29.690,0.039
29.695,0.053
29.700,0.050
29.705,0.041
29.710,0.049
29.715,0.017
29.720,0.038
29.725,0.033
29.730,0.022
29.735,0.040
29.740,0.015
29.745,0.028
29.750,0.022
29.755,0.015
29.760,0.028
29.765,0.004
29.770,0.022
29.775,0.005
29.780,-0.013
29.785,0.009
29.790,-0.010
29.795,0.002
29.800,-0.007
29.805,-0.013
29.810,-0.002
29.815,-0.034
29.820,-0.014
29.825,-0.023
29.830,-0.042
29.835,-0.030
29.840,-0.057
29.845,-0.045
29.850,-0.057
29.855,-0.062
29.860,-0.048
29.865,-0.085
29.870,-0.063
29.875,-0.066
29.880,-0.076
29.885,-0.048
29.890,-0.063
29.895,-0.041
29.900,-0.041
29.905,-0.042
29.910,-0.011
29.915,-0.018
29.920,0.026
29.925,0.038
29.930,0.032
29.935,0.067
29.940,0.059
29.945,0.081
29.950,0.083
29.955,0.082
29.960,0.102
29.965,0.081
29.970,0.105
29.975,0.098
29.980,0.083
29.985,0.102
29.990,0.077
29.995,0.088
30.000,0.082
30.005,0.071
30.010,0.085
30.015,0.059
30.020,0.071
30.025,0.063
30.030,0.050
30.035,0.069
30.040,0.047
30.045,0.052
30.050,0.044
30.055,0.039
30.060,0.050
30.065,0.021
30.070,0.047
30.075,0.036
30.080,0.016
30.085,0.034
30.090,-0.001
30.095,0.006
30.100,0.004
30.105,0.001
30.110,0.015
30.115,-0.018
30.120,0.006
30.125,0.004
30.130,-0.014
30.135,0.005
30.140,-0.014
30.145,-0.004
30.150,-0.010
30.155,-0.012
30.160,-0.003
30.165,-0.034
30.170,-0.008
30.175,-0.012
30.180,-0.027
30.185,-0.007
30.190,-0.025
30.195,-0.006
30.200,-0.013
30.205,-0.024
30.210,-0.010
30.215,-0.040
30.220,-0.024
30.225,-0.024
30.230,-0.037
30.235,-0.020
30.240,-0.039
30.245,-0.029
30.250,-0.035
30.255,-0.035
30.260,-0.016
30.265,-0.040
30.270,-0.023
30.275,-0.038
30.280,-0.056
30.285,-0.027
30.290,-0.040
30.295,-0.027
30.300,-0.027
30.305,-0.029
30.310,-0.009
30.315,-0.017
30.320,0.023
30.325,0.023
30.330,0.002
30.335,0.016
30.340,-0.002
30.345,0.015
30.350,0.009
30.355,0.002
30.360,0.017
30.365,-0.006
30.370,0.011
30.375,-0.003
30.380,-0.014
30.385,0.011
30.390,-0.006
30.395,0.006
30.400,-0.004
30.405,-0.010
30.410,0.006
30.415,-0.023
30.420,-0.001
30.425,0.001
30.430,-0.004
30.435,0.003
30.440,-0.084
30.445,-0.190
30.450,-0.365
30.455,-0.547
30.460,-0.588
30.465,-0.433
30.470,-0.076
30.475,0.144
30.480,0.159
30.485,0.164
30.490,0.152
30.495,0.168
30.500,0.136
30.505,0.087
30.510,0.086
30.515,0.062
30.520,0.068
30.525,0.054
30.530,0.048
30.535,0.063
30.540,0.039
30.545,0.058
30.550,0.048
30.555,0.036
30.560,0.048
30.565,0.016
30.570,0.038
30.575,0.041
30.580,0.024
30.585,0.033
30.590,0.011
30.595,0.028
30.600,0.020
30.605,0.010
30.610,0.024
30.615,-0.004
30.620,0.019
30.625,0.013
30.630,-0.006
30.635,0.013
30.640,-0.010
30.645,-0.002
30.650,-0.010
30.655,-0.017
30.660,-0.007
30.665,-0.042
30.670,-0.020
30.675,-0.026
30.680,-0.045
30.685,-0.029
30.690,-0.060
30.695,-0.052
30.700,-0.058
30.705,-0.068
30.710,-0.054
30.715,-0.080
30.720,-0.057
30.725,-0.061
30.730,-0.080
30.735,-0.048
30.740,-0.059
30.745,-0.047
30.750,-0.037
30.755,-0.028
30.760,0.005
30.765,-0.001
30.770,0.030
30.775,0.041
30.780,0.044
30.785,0.078
30.790,0.070
30.795,0.090
30.800,0.088
30.805,0.086
30.810,0.104
30.815,0.077
30.820,0.101
30.825,0.096
30.830,0.080
30.835,0.102
30.840,0.080
30.845,0.090
30.850,0.081
30.855,0.067
30.860,0.080
30.865,0.053
30.870,0.079
30.875,0.071
30.880,0.040
30.885,0.059
30.890,0.042
30.895,0.052
30.900,0.046
30.905,0.035
30.910,0.051
30.915,0.023
30.920,0.039
30.925,0.033
30.930,0.014
30.935,0.031
30.940,0.006
30.945,0.014
30.950,0.009
30.955,-0.003
30.960,0.014
30.965,-0.013
30.970,-0.002
30.975,-0.007
30.980,-0.022
30.985,0.001
30.990,-0.014
30.995,-0.005
31.000,-0.010
31.005,-0.017
31.010,-0.006
31.015,-0.031
31.020,-0.003
31.025,-0.006
31.030,-0.024
31.035,-0.003
31.040,-0.031
31.045,-0.017
31.050,-0.016
31.055,-0.025
31.060,-0.009
31.065,-0.033
31.070,-0.011
31.075,-0.019
31.080,-0.041
31.085,-0.020
31.090,-0.035
31.095,-0.022
31.100,-0.029
31.105,-0.040
31.110,-0.022
31.115,-0.044
31.120,-0.022
31.125,-0.022
31.130,-0.050
31.135,-0.039
31.140,-0.047
31.145,-0.035
31.150,-0.037
31.155,-0.037
31.160,-0.019
31.165,-0.036
31.170,-0.009
31.175,0.000
31.180,0.002
31.185,0.030
31.190,0.005
31.195,0.012
31.200,0.009
31.205,0.004
31.210,0.020
31.215,-0.008
31.220,0.010
31.225,0.008
31.230,-0.008
31.235,0.014
31.240,-0.008
31.245,0.001
31.250,0.000
31.255,-0.007
31.260,0.006
31.265,-0.017
31.270,0.008
31.275,-0.001
31.280,-0.019
31.285,0.005
31.290,-0.014
31.295,-0.005
31.300,-0.055
31.305,-0.169
31.310,-0.311
31.315,-0.521
31.320,-0.594
31.325,-0.470
31.330,-0.166
31.335,0.121
31.340,0.164
31.345,0.157
31.350,0.153
31.355,0.159
31.360,0.160
31.365,0.086
31.370,0.089
31.375,0.088
31.380,0.054
31.385,0.068
31.390,0.055
31.395,0.055
31.400,0.044
31.405,0.043
31.410,0.057
31.415,0.029
31.420,0.050
31.425,0.040
31.430,0.019
31.435,0.044
31.440,0.025
31.445,0.033
31.450,0.025
31.455,0.017
31.460,0.033
31.465,0.001
31.470,0.025
31.475,0.021
31.480,-0.009
31.485,0.014
31.490,-0.002
31.495,0.005
31.500,-0.002
31.505,-0.014
31.510,0.005
31.515,-0.020
31.520,-0.003
31.525,-0.013
31.530,-0.038
31.535,-0.019
31.540,-0.046
31.545,-0.040
31.550,-0.047
31.555,-0.061
31.560,-0.046
31.565,-0.072
31.570,-0.058
31.575,-0.068
31.580,-0.082
31.585,-0.056
31.590,-0.071
31.595,-0.057
31.600,-0.055
31.605,-0.052
31.610,-0.026
31.615,-0.041
31.620,-0.004
31.625,0.012
31.630,0.009
31.635,0.047
31.640,0.039
31.645,0.059
31.650,0.074
31.655,0.081
31.660,0.107
31.665,0.084
31.670,0.103
31.675,0.102
31.680,0.087
31.685,0.111
31.690,0.093
31.695,0.098
31.700,0.083
31.705,0.072
31.710,0.092
31.715,0.068
31.720,0.082
31.725,0.075
31.730,0.057
31.735,0.078
31.740,0.053
31.745,0.058
31.750,0.055
31.755,0.041
31.760,0.049
31.765,0.025
31.770,0.045
31.775,0.041
31.780,0.021
31.785,0.042
31.790,0.020
31.795,0.027
31.800,0.020
31.805,0.005
31.810,0.018
31.815,-0.011
31.820,0.006
31.825,0.003
31.830,-0.018
31.835,0.005
31.840,-0.013
31.845,-0.005
31.850,-0.007
31.855,-0.019
31.860,-0.009
31.865,-0.032
31.870,-0.009
31.875,-0.010
31.880,-0.027
31.885,-0.004
31.890,-0.022
31.895,-0.009
31.900,-0.010
31.905,-0.019
31.910,-0.003
31.915,-0.031
31.920,-0.009
31.925,-0.008
31.930,-0.031
31.935,-0.011
31.940,-0.027
31.945,-0.018
31.950,-0.031
31.955,-0.043
31.960,-0.025
31.965,-0.044
31.970,-0.019
31.975,-0.024
31.980,-0.044
31.985,-0.021
31.990,-0.038
31.995,-0.025
32.000,-0.030
32.005,-0.050
32.010,-0.038
32.015,-0.054
32.020,-0.024
32.025,-0.019
32.030,-0.034
32.035,-0.016
32.040,-0.035
32.045,-0.009
32.050,0.009
32.055,0.009
32.060,0.022
32.065,-0.004
32.070,0.018
32.075,0.013
32.080,-0.008
32.085,0.019
32.090,0.004
32.095,0.012
32.100,0.008
32.105,-0.001
32.110,0.016
32.115,-0.009
32.120,0.012
32.125,0.008
32.130,-0.014
32.135,0.010
32.140,-0.011
32.145,-0.003
32.150,-0.008
32.155,-0.017
32.160,0.013
32.165,-0.018
32.170,-0.051
32.175,-0.156
32.180,-0.337
32.185,-0.495
32.190,-0.612
32.195,-0.485
32.200,-0.166
32.205,0.099
32.210,0.185
32.215,0.146
32.220,0.169
32.225,0.175
32.230,0.140
32.235,0.112
32.240,0.061
32.245,0.075
32.250,0.062
32.255,0.049
32.260,0.078
32.265,0.041
32.270,0.051
32.275,0.058
32.280,0.037
32.285,0.049
32.290,0.029
32.295,0.039
32.300,0.033
32.305,0.024
32.310,0.039
32.315,0.010
32.320,0.031
32.325,0.035
32.330,0.010
32.335,0.024
32.340,0.005
32.345,0.009
32.350,0.009
32.355,0.003
32.360,0.015
32.365,-0.009
32.370,0.011
32.375,0.005
32.380,-0.016
32.385,0.000
32.390,-0.027
32.395,-0.020
32.400,-0.017
32.405,-0.029
32.410,-0.026
32.415,-0.055
32.420,-0.036
32.425,-0.046
32.430,-0.071
32.435,-0.047
32.440,-0.065
32.445,-0.058
32.450,-0.063
32.455,-0.073
32.460,-0.050
32.465,-0.069
32.470,-0.047
32.475,-0.039
32.480,-0.046
32.485,-0.009
32.490,-0.016
32.495,0.007
32.500,0.026
32.505,0.033
32.510,0.065
32.515,0.051
32.520,0.077
32.525,0.092
32.530,0.081
32.535,0.100
32.540,0.088
32.545,0.103
32.550,0.101
32.555,0.091
32.560,0.104
32.565,0.078
32.570,0.096
32.575,0.088
32.580,0.064
32.585,0.090
32.590,0.070
32.595,0.075
32.600,0.074
32.605,0.066
32.610,0.078
32.615,0.043
32.620,0.061
32.625,0.054
32.630,0.029
32.635,0.053
32.640,0.028
32.645,0.034
32.650,0.030
32.655,0.015
32.660,0.032
32.665,0.009
32.670,0.027
32.675,0.022
32.680,-0.001
32.685,0.019
32.690,-0.013
32.695,-0.012
32.700,-0.008
32.705,-0.016
32.710,0.004
32.715,-0.023
32.720,-0.009
32.725,-0.008
32.730,-0.025
32.735,-0.002
32.740,-0.021
32.745,-0.012
32.750,-0.014
32.755,-0.025
32.760,-0.005
32.765,-0.028
32.770,-0.011
32.775,-0.012
32.780,-0.028
32.785,-0.005
32.790,-0.028
32.795,-0.013
32.800,-0.010
32.805,-0.024
32.810,-0.009
32.815,-0.035
32.820,-0.011
32.825,-0.011
32.830,-0.037
32.835,-0.012
32.840,-0.026
32.845,-0.018
32.850,-0.019
32.855,-0.030
32.860,-0.019
32.865,-0.053
32.870,-0.032
32.875,-0.027
32.880,-0.041
32.885,-0.013
32.890,-0.038
32.895,-0.041
32.900,-0.040
32.905,-0.047
32.910,-0.026
32.915,-0.045
32.920,-0.019
32.925,-0.015
32.930,-0.041
32.935,-0.012
32.940,-0.007
32.945,0.018
32.950,0.020
32.955,0.004
32.960,0.019
32.965,-0.002
32.970,0.015
32.975,0.010
32.980,-0.006
32.985,0.017
32.990,-0.012
32.995,0.004
33.000,0.011
33.005,-0.007
33.010,0.008
33.015,-0.016
33.020,0.007
33.025,0.011
33.030,-0.013
33.035,0.012
33.040,-0.003
33.045,0.007
33.050,0.007
33.055,-0.030
33.060,-0.096
33.065,-0.261
33.070,-0.408
33.075,-0.539
33.080,-0.526
33.085,-0.242
33.090,0.033
33.095,0.171
33.100,0.169
33.105,0.143
33.110,0.174
33.115,0.141
33.120,0.109
33.125,0.078
33.130,0.056
33.135,0.072
33.140,0.044
33.145,0.061
33.150,0.063
33.155,0.036
33.160,0.051
33.165,0.033
33.170,0.045
33.175,0.041
33.180,0.018
33.185,0.038
33.190,0.021
33.195,0.031
33.200,0.034
33.205,0.018
33.210,0.027
33.215,0.002
33.220,0.014
33.225,0.008
33.230,-0.007
33.235,0.021
33.240,0.001
33.245,0.004
33.250,0.000
33.255,-0.009
33.260,0.009
33.265,-0.018
33.270,-0.003
33.275,-0.008
33.280,-0.037
33.285,-0.010
33.290,-0.028
33.295,-0.034
33.300,-0.040
33.305,-0.052
33.310,-0.035
33.315,-0.061
33.320,-0.051
33.325,-0.054
33.330,-0.073
33.335,-0.047
33.340,-0.064
33.345,-0.053
33.350,-0.050
33.355,-0.059
33.360,-0.032
33.365,-0.052
33.370,-0.032
33.375,-0.017
33.380,-0.015
33.385,0.029
33.390,0.026
33.395,0.049
33.400,0.061
33.405,0.057
33.410,0.085
33.415,0.071
33.420,0.095
33.425,0.097
33.430,0.078
33.435,0.107
33.440,0.087
33.445,0.096
33.450,0.093
33.455,0.072
33.460,0.088
33.465,0.063
33.470,0.080
33.475,0.078
33.480,0.051
33.485,0.078
33.490,0.061
33.495,0.063
33.500,0.059
33.505,0.044
33.510,0.059
33.515,0.034
33.520,0.052
33.525,0.049
33.530,0.019
33.535,0.038
33.540,0.014
33.545,0.015
33.550,0.018
33.555,0.005
33.560,0.019
33.565,-0.004
33.570,0.011
33.575,0.006
33.580,-0.016
33.585,0.008
33.590,-0.014
33.595,-0.007
33.600,-0.006
33.605,-0.023
33.610,-0.004
33.615,-0.023
33.620,-0.009
33.625,-0.014
33.630,-0.035
33.635,-0.006
33.640,-0.020
33.645,-0.015
33.650,-0.016
33.655,-0.025
33.660,-0.004
33.665,-0.029
33.670,-0.010
33.675,-0.006
33.680,-0.029
33.685,-0.004
33.690,-0.026
33.695,-0.027
33.700,-0.021
33.705,-0.029
33.710,-0.014
33.715,-0.037
33.720,-0.019
33.725,-0.016
33.730,-0.040
33.735,-0.019
33.740,-0.036
33.745,-0.029
33.750,-0.025
33.755,-0.034
33.760,-0.018
33.765,-0.041
33.770,-0.030
33.775,-0.040
33.780,-0.056
33.785,-0.021
33.790,-0.028
33.795,-0.016
33.800,-0.018
33.805,-0.020
33.810,0.025
33.815,0.010
33.820,0.018
33.825,0.015
33.830,-0.005
33.835,0.026
33.840,0.012
33.845,0.008
33.850,0.003
33.855,-0.005
33.860,0.013
33.865,-0.007
33.870,0.013
33.875,0.009
33.880,-0.011
33.885,0.018
33.890,-0.004
33.895,-0.003
33.900,0.000
33.905,-0.013
33.910,0.003
33.915,-0.010
33.920,0.010
33.925,-0.024
33.930,-0.137
33.935,-0.255
33.940,-0.444
33.945,-0.562
33.950,-0.500
33.955,-0.232
33.960,0.075
33.965,0.159
33.970,0.164
33.975,0.152
33.980,0.142
33.985,0.160
33.990,0.097
33.995,0.079
34.000,0.081
34.005,0.055
34.010,0.063
34.015,0.046
34.020,0.058
34.025,0.047
34.030,0.028
34.035,0.058
34.040,0.033
34.045,0.036
34.050,0.038
34.055,0.024
34.060,0.044
34.065,0.021
34.070,0.036
34.075,0.032
34.080,0.004
34.085,0.028
34.090,0.011
34.095,0.018
34.100,0.021
34.105,0.003
34.110,0.018
34.115,-0.006
34.120,0.005
34.125,0.001
34.130,-0.014
34.135,0.010
34.140,-0.021
34.145,-0.019
34.150,-0.020
34.155,-0.033
34.160,-0.013
34.165,-0.044
34.170,-0.034
34.175,-0.038
34.180,-0.064
34.185,-0.041
34.190,-0.068
34.195,-0.071
34.200,-0.066
34.205,-0.074
34.210,-0.051
34.215,-0.068
34.220,-0.042
34.225,-0.036
34.230,-0.064
34.235,-0.037
34.240,-0.041
34.245,-0.020
34.250,0.005
34.255,0.009
34.260,0.038
34.265,0.033
34.270,0.062
34.275,0.076
34.280,0.067
34.285,0.097
34.290,0.084
34.295,0.093
34.300,0.097
34.305,0.086
34.310,0.106
34.315,0.083
34.320,0.096
34.325,0.102
34.330,0.074
34.335,0.085
34.340,0.065
34.345,0.067
34.350,0.071
34.355,0.059
34.360,0.073
34.365,0.051
34.370,0.068
34.375,0.068
34.380,0.040
34.385,0.061
34.390,0.040
34.395,0.036
34.400,0.030
34.405,0.018
34.410,0.037
34.415,0.016
34.420,0.027
34.425,0.019
34.430,-0.001
34.435,0.030
34.440,0.008
34.445,0.006
34.450,0.005
34.455,-0.012
34.460,0.007
34.465,-0.012
34.470,-0.002
34.475,-0.010
34.480,-0.030
34.485,-0.002
34.490,-0.019
34.495,-0.012
34.500,-0.011
34.505,-0.023
34.510,-0.002
34.515,-0.021
34.520,0.003
34.525,0.004
34.530,-0.030
34.535,-0.012
34.540,-0.036
34.545,-0.032
34.550,-0.023
34.555,-0.034
34.560,-0.015
34.565,-0.041
34.570,-0.029
34.575,-0.027
34.580,-0.049
34.585,-0.019
34.590,-0.031
34.595,-0.027
34.600,-0.030
34.605,-0.055
34.610,-0.040
34.615,-0.051
34.620,-0.025
34.625,-0.014
34.630,-0.035
34.635,-0.011
34.640,-0.020
34.645,0.005
34.650,0.024
34.655,0.012
34.660,0.027
34.665,0.003
34.670,0.013
34.675,0.008
34.680,-0.015
34.685,0.015
34.690,0.000
34.695,0.004
34.700,0.006
34.705,-0.004
34.710,0.015
34.715,-0.011
34.720,0.004
34.725,0.005
34.730,-0.019
34.735,0.009
34.740,-0.008
34.745,-0.001
34.750,-0.002
34.755,-0.018
34.760,0.012
34.765,-0.026
34.770,-0.083
34.775,-0.210
34.780,-0.410
34.785,-0.542
34.790,-0.571
34.795,-0.346
34.800,-0.021
34.805,0.145
34.810,0.170
34.815,0.127
34.820,0.153
34.825,0.160
34.830,0.104
34.835,0.098
34.840,0.075
34.845,0.071
34.850,0.061
34.855,0.050
34.860,0.072
34.865,0.040
34.870,0.052
34.875,0.053
34.880,0.022
34.885,0.049
34.890,0.035
34.895,0.038
34.900,0.037
34.905,0.020
34.910,0.041
34.915,0.017
34.920,0.033
34.925,0.040
34.930,0.005
34.935,0.021
34.940,0.004
34.945,0.006
34.950,0.012
34.955,-0.003
34.960,0.007
34.965,-0.014
34.970,0.000
34.975,-0.003
34.980,-0.027
34.985,-0.002
34.990,-0.024
34.995,-0.021
35.000,-0.020
35.005,-0.039
35.010,-0.022
35.015,-0.050
35.020,-0.046
35.025,-0.049
35.030,-0.071
35.035,-0.049
35.040,-0.078
35.045,-0.072
35.050,-0.061
35.055,-0.072
35.060,-0.047
35.065,-0.069
35.070,-0.051
35.075,-0.035
35.080,-0.049
35.085,-0.007
35.090,-0.007
35.095,0.008
35.100,0.029
35.105,0.033
35.110,0.071
35.115,0.057
35.120,0.073
35.125,0.087
35.130,0.073
35.135,0.109
35.140,0.096
35.145,0.095
35.150,0.103
35.155,0.088
35.160,0.099
35.165,0.079
35.170,0.092
35.175,0.088
35.180,0.063
35.185,0.090
35.190,0.071
35.195,0.072
35.200,0.068
35.205,0.045
35.210,0.064
35.215,0.039
35.220,0.050
35.225,0.053
35.230,0.028
35.235,0.054
35.240,0.033
35.245,0.030
35.250,0.034
35.255,0.019
35.260,0.034
35.265,0.010
35.270,0.021
35.275,0.023
35.280,-0.010
35.285,0.009
35.290,-0.004
35.295,-0.002
35.300,0.003
35.305,-0.013
35.310,0.001
35.315,-0.020
35.320,-0.009
35.325,-0.005
35.330,-0.024
35.335,0.004
35.340,-0.014
35.345,-0.019
35.350,-0.019
35.355,-0.027
35.360,-0.009
35.365,-0.030
35.370,-0.015
35.375,-0.014
35.380,-0.031
35.385,-0.002
35.390,-0.024
35.395,-0.024
35.400,-0.022
35.405,-0.037
35.410,-0.020
35.415,-0.047
35.420,-0.031
35.425,-0.026
35.430,-0.046
35.435,-0.010
35.440,-0.027
35.445,-0.032
35.450,-0.037
35.455,-0.059
35.460,-0.035
35.465,-0.046
35.470,-0.027
35.475,-0.021
35.480,-0.040
35.485,-0.014
35.490,-0.025
35.495,-0.002
35.500,0.017
35.505,0.004
35.510,0.021
35.515,-0.001
35.520,0.014
35.525,0.019
35.530,-0.008
35.535,0.021
35.540,0.007
35.545,0.001
35.550,0.002
35.555,-0.010
35.560,0.012
35.565,-0.006
35.570,0.003
35.575,0.003
35.580,-0.018
35.585,0.012
35.590,-0.007
35.595,-0.011
35.600,-0.008
35.605,-0.018
35.610,0.015
35.615,-0.019
35.620,-0.077
35.625,-0.192
35.630,-0.385
35.635,-0.530
35.640,-0.599
35.645,-0.415
35.650,-0.074
35.655,0.132
35.660,0.181
35.665,0.144
35.670,0.159
35.675,0.172
35.680,0.123
35.685,0.100
35.690,0.070
35.695,0.067
35.700,0.061
35.705,0.049
35.710,0.072
35.715,0.041
35.720,0.050
35.725,0.060
35.730,0.033
35.735,0.054
35.740,0.035
35.745,0.033
35.750,0.040
35.755,0.022
35.760,0.034
35.765,0.011
35.770,0.023
35.775,0.029
35.780,0.003
35.785,0.026
35.790,0.009
35.795,0.010
35.800,0.015
35.805,-0.002
35.810,0.018
35.815,-0.006
35.820,0.003
35.825,0.007
35.830,-0.021
35.835,-0.004
35.840,-0.031
35.845,-0.029
35.850,-0.022
35.855,-0.042
35.860,-0.026
35.865,-0.054
35.870,-0.046
35.875,-0.043
35.880,-0.071
35.885,-0.048
35.890,-0.069
35.895,-0.067
35.900,-0.059
35.905,-0.078
35.910,-0.054
35.915,-0.064
35.920,-0.046
35.925,-0.044
35.930,-0.065
35.935,-0.018
35.940,-0.012
35.945,0.006
35.950,0.031
35.955,0.034
35.960,0.068
35.965,0.058
35.970,0.078
35.975,0.095
35.980,0.077
35.985,0.108
35.990,0.094
35.995,0.096
36.000,0.110
36.005,0.090
36.010,0.095
36.015,0.073
36.020,0.085
36.025,0.092
36.030,0.069
36.035,0.094
36.040,0.073
36.045,0.067
36.050,0.071
36.055,0.053
36.060,0.072
36.065,0.048
36.070,0.053
36.075,0.056
36.080,0.027
36.085,0.051
36.090,0.037
36.095,0.033
36.100,0.027
36.105,0.011
36.110,0.031
36.115,0.009
36.120,0.018
36.125,0.022
36.130,-0.005
36.135,0.019
36.140,-0.005
36.145,-0.009
36.150,0.003
36.155,-0.015
36.160,0.004
36.165,-0.016
36.170,-0.010
36.175,-0.002
36.180,-0.025
36.185,-0.002
36.190,-0.022
36.195,-0.023
36.200,-0.012
36.205,-0.024
36.210,-0.004
36.215,-0.023
36.220,-0.007
36.225,-0.006
36.230,-0.037
36.235,-0.005
36.240,-0.021
36.245,-0.021
36.250,-0.008
36.255,-0.024
36.260,-0.006
36.265,-0.026
36.270,-0.015
36.275,-0.007
36.280,-0.038
36.285,-0.015
36.290,-0.032
36.295,-0.038
36.300,-0.030
36.305,-0.049
36.310,-0.028
36.315,-0.040
36.320,-0.026
36.325,-0.018
36.330,-0.044
36.335,-0.022
36.340,-0.044
36.345,-0.046
36.350,-0.033
36.355,-0.042
36.360,-0.014
36.365,-0.028
36.370,-0.018
36.375,-0.011
36.380,-0.021
36.385,0.025
36.390,0.016
36.395,0.016
36.400,0.018
36.405,-0.004
36.410,0.018
36.415,-0.002
36.420,0.005
36.425,0.015
36.430,-0.008
36.435,0.019
36.440,0.005
36.445,0.000
36.450,0.009
36.455,-0.003
36.460,0.011
36.465,-0.011
36.470,0.000
36.475,0.003
36.480,-0.024
36.485,0.008
36.490,0.000
36.495,0.009
36.500,0.004
36.505,-0.081
36.510,-0.187
36.515,-0.381
36.520,-0.551
36.525,-0.594
36.530,-0.422
36.535,-0.059
36.540,0.146
36.545,0.172
36.550,0.154
36.555,0.148
36.560,0.178
36.565,0.132
36.570,0.097
36.575,0.087
36.580,0.057
36.585,0.070
36.590,0.054
36.595,0.061
36.600,0.063
36.605,0.039
36.610,0.061
36.615,0.037
36.620,0.039
36.625,0.049
36.630,0.022
36.635,0.049
36.640,0.031
36.645,0.020
36.650,0.027
36.655,0.013
36.660,0.038
36.665,0.019
36.670,0.020
36.675,0.024
36.680,-0.004
36.685,0.020
36.690,0.006
36.695,0.003
36.700,0.004
36.705,-0.012
36.710,0.009
36.715,-0.013
36.720,-0.004
36.725,-0.004
36.730,-0.040
36.735,-0.017
36.740,-0.038
36.745,-0.043
36.750,-0.035
36.755,-0.060
36.760,-0.045
36.765,-0.063
36.770,-0.057
36.775,-0.059
36.780,-0.088
36.785,-0.054
36.790,-0.068
36.795,-0.065
36.800,-0.050
36.805,-0.064
36.810,-0.031
36.815,-0.037
36.820,-0.023
36.825,-0.001
36.830,-0.008
36.835,0.037
36.840,0.037
36.845,0.046
36.850,0.071
36.855,0.064
36.860,0.087
36.865,0.079
36.870,0.096
36.875,0.109
36.880,0.082
36.885,0.107
36.890,0.094
36.895,0.091
36.900,0.098
36.905,0.077
36.910,0.099
36.915,0.082
36.920,0.081
36.925,0.079
36.930,0.053
36.935,0.081
36.940,0.064
36.945,0.056
36.950,0.062
36.955,0.047
36.960,0.063
36.965,0.037
36.970,0.042
36.975,0.048
36.980,0.018
36.985,0.048
36.990,0.029
36.995,0.012
37.000,0.020
37.005,0.003
37.010,0.021
37.015,-0.001
37.020,0.002
37.025,0.012
37.030,-0.014
37.035,0.006
37.040,-0.008
37.045,-0.010
37.050,-0.002
37.055,-0.021
37.060,-0.005
37.065,-0.025
37.070,-0.018
37.075,-0.009
37.080,-0.033
37.085,-0.003
37.090,-0.018
37.095,-0.021
37.100,-0.010
37.105,-0.028
37.110,-0.003
37.115,-0.015
37.120,-0.011
37.125,-0.012
37.130,-0.043
37.135,-0.009
37.140,-0.023
37.145,-0.025
37.150,-0.010
37.155,-0.027
37.160,-0.003
37.165,-0.016
37.170,-0.007
37.175,-0.002
37.180,-0.035
37.185,-0.012
37.190,-0.031
37.195,-0.029
37.200,-0.014
37.205,-0.032
37.210,-0.007
37.215,-0.024
37.220,-0.015
37.225,-0.004
37.230,-0.030
37.235,-0.003
37.240,-0.026
37.245,-0.042
37.250,-0.032
37.255,-0.043
37.260,-0.025
37.265,-0.051
37.270,-0.041
37.275,-0.021
37.280,-0.037
37.285,-0.011
37.290,-0.038
37.295,-0.045
37.300,-0.030
37.305,-0.048
37.310,-0.016
37.315,-0.027
37.320,-0.028
37.325,-0.017
37.330,-0.033
37.335,0.020
37.340,0.024
37.345,0.015
37.350,0.023
37.355,0.005
37.360,0.024
37.365,0.005
37.370,0.013
37.375,0.021
37.380,-0.014
37.385,0.014
37.390,0.004
37.395,0.006
37.400,0.023
37.405,-0.004
37.410,0.010
37.415,-0.005
37.420,-0.001
37.425,0.008
37.430,-0.017
37.435,0.016
37.440,0.007
37.445,-0.014
37.450,-0.059
37.455,-0.192
37.460,-0.334
37.465,-0.520
37.470,-0.573
37.475,-0.397
37.480,-0.110
37.485,0.147
37.490,0.174
37.495,0.153
37.500,0.175
37.505,0.165
37.510,0.155
37.515,0.086
37.520,0.075
37.525,0.087
37.530,0.051
37.535,0.074
37.540,0.064
37.545,0.053
37.550,0.056
37.555,0.037
37.560,0.052
37.565,0.034
37.570,0.044
37.575,0.048
37.580,0.013
37.585,0.042
37.590,0.031
37.595,0.027
37.600,0.035
37.605,0.014
37.610,0.034
37.615,0.011
37.620,0.013
37.625,0.025
37.630,-0.004
37.635,0.019
37.640,0.003
37.645,-0.005
37.650,0.011
37.655,-0.013
37.660,-0.002
37.665,-0.018
37.670,-0.016
37.675,-0.008
37.680,-0.037
37.685,-0.016
37.690,-0.035
37.695,-0.046
37.700,-0.036
37.705,-0.055
37.710,-0.041
37.715,-0.060
37.720,-0.056
37.725,-0.050
37.730,-0.076
37.735,-0.045
37.740,-0.061
37.745,-0.065
37.750,-0.044
37.755,-0.056
37.760,-0.027
37.765,-0.030
37.770,-0.010
37.775,0.016
37.780,0.001
37.785,0.047
37.790,0.047
37.795,0.048
37.800,0.077
37.805,0.071
37.810,0.098
37.815,0.089
37.820,0.093
37.825,0.108
37.830,0.079
37.835,0.101
37.840,0.091
37.845,0.089
37.850,0.105
37.855,0.077
37.860,0.083
37.865,0.064
37.870,0.067
37.875,0.079
37.880,0.051
37.885,0.073
37.890,0.062
37.895,0.055
37.900,0.064
37.905,0.039
37.910,0.050
37.915,0.029
37.920,0.035
37.925,0.046
37.930,0.017
37.935,0.039
37.940,0.020
37.945,0.011
37.950,0.023
37.955,0.002
37.960,0.018
37.965,-0.003
37.970,-0.004
37.975,0.006
37.980,-0.021
37.985,0.005
37.990,-0.005
37.995,-0.013
38.000,-0.009
38.005,-0.032
38.010,-0.014
38.015,-0.026
38.020,-0.018
38.025,-0.009
38.030,-0.036
38.035,-0.004
38.040,-0.016
38.045,-0.024
38.050,-0.007
38.055,-0.023
38.060,-0.010
38.065,-0.030
38.070,-0.024
38.075,-0.009
38.080,-0.031
38.085,-0.003
38.090,-0.016
38.095,-0.019
38.100,-0.004
38.105,-0.028
38.110,-0.011
38.115,-0.021
38.120,-0.015
38.125,-0.008
38.130,-0.031
38.135,-0.005
38.140,-0.020
38.145,-0.023
38.150,-0.008
38.155,-0.030
38.160,-0.013
38.165,-0.032
38.170,-0.028
38.175,-0.018
38.180,-0.056
38.185,-0.025
38.190,-0.028
38.195,-0.033
38.200,-0.022
38.205,-0.047
38.210,-0.021
38.215,-0.026
38.220,-0.024
38.225,-0.027
38.230,-0.067
38.235,-0.032
38.240,-0.028
38.245,-0.025
38.250,-0.008
38.255,-0.033
38.260,-0.011
38.265,-0.014
38.270,0.004
38.275,0.030
38.280,0.003
38.285,0.021
38.290,0.004
38.295,0.002
38.300,0.023
38.305,0.004
38.310,0.019
38.315,0.004
38.320,0.005
38.325,0.018
38.330,-0.007
38.335,0.014
38.340,-0.002
38.345,-0.009
38.350,0.012
38.355,-0.008
38.360,0.006
38.365,-0.004
38.370,0.008
38.375,0.020
38.380,-0.044
38.385,-0.102
38.390,-0.253
38.395,-0.438
38.400,-0.551
38.405,-0.520
38.410,-0.239
38.415,0.041
38.420,0.169
38.425,0.174
38.430,0.135
38.435,0.175
38.440,0.162
38.445,0.113
38.450,0.093
38.455,0.067
38.460,0.075
38.465,0.051
38.470,0.059
38.475,0.068
38.480,0.032
38.485,0.066
38.490,0.052
38.495,0.026
38.500,0.042
38.505,0.024
38.510,0.042
38.515,0.029
38.520,0.027
38.525,0.044
38.530,0.016
38.535,0.034
38.540,0.021
38.545,0.012
38.550,0.020
38.555,-0.007
38.560,0.013
38.565,0.002
38.570,0.004
38.575,0.019
38.580,-0.008
38.585,0.016
38.590,-0.003
38.595,-0.023
38.600,-0.009
38.605,-0.027
38.610,-0.015
38.615,-0.035
38.620,-0.033
38.625,-0.026
38.630,-0.057
38.635,-0.033
38.640,-0.053
38.645,-0.065
38.650,-0.050
38.655,-0.073
38.660,-0.055
38.665,-0.064
38.670,-0.067
38.675,-0.057
38.680,-0.075
38.685,-0.040
38.690,-0.041
38.695,-0.038
38.700,-0.010
38.705,-0.015
38.710,0.018
38.715,0.025
38.720,0.047
38.725,0.068
38.730,0.047
38.735,0.085
38.740,0.085
38.745,0.083
38.750,0.102
38.755,0.085
38.760,0.107
38.765,0.092
38.770,0.094
38.775,0.110
38.780,0.074
38.785,0.094
38.790,0.088
38.795,0.073
38.800,0.079
38.805,0.055
38.810,0.074
38.815,0.067
38.820,0.065
38.825,0.069
38.830,0.040
38.835,0.066
38.840,0.050
38.845,0.040
38.850,0.059
38.855,0.028
38.860,0.040
38.865,0.028
38.870,0.023
38.875,0.032
38.880,0.001
38.885,0.026
38.890,0.015
38.895,0.000
38.900,0.016
38.905,-0.004
38.910,0.004
38.915,-0.010
38.920,-0.010
38.925,-0.006
38.930,-0.033
38.935,-0.003
38.940,-0.013
38.945,-0.022
38.950,-0.008
38.955,-0.027
38.960,-0.005
38.965,-0.017
38.970,-0.019
38.975,-0.004
38.980,-0.032
38.985,-0.007
38.990,-0.008
38.995,-0.015
39.000,-0.012
39.005,-0.042
39.010,-0.019
39.015,-0.022
39.020,-0.016
39.025,-0.006
39.030,-0.039
39.035,-0.013
39.040,-0.024
39.045,-0.036
39.050,-0.019
39.055,-0.039
39.060,-0.021
39.065,-0.038
39.070,-0.044
39.075,-0.024
39.080,-0.045
39.085,-0.014
39.090,-0.033
39.095,-0.056
39.100,-0.034
39.105,-0.044
39.110,-0.020
39.115,-0.025
39.120,-0.020
39.125,-0.010
39.130,-0.041
39.135,0.002
39.140,0.012
39.145,0.009
39.150,0.026
39.155,-0.004
39.160,0.014
39.165,0.009
39.170,0.007
39.175,0.021
39.180,-0.005
39.185,0.017
39.190,0.006
39.195,-0.002
39.200,0.011
39.205,-0.015
39.210,0.005
39.215,-0.002
39.220,0.000
39.225,0.008
39.230,-0.025
39.235,0.006
39.240,0.006
39.245,0.000
39.250,0.001
39.255,-0.080
39.260,-0.172
39.265,-0.346
39.270,-0.532
39.275,-0.589
39.280,-0.450
39.285,-0.094
39.290,0.135
39.295,0.163
39.300,0.167
39.305,0.153
39.310,0.171
39.315,0.133
39.320,0.090
39.325,0.091
39.330,0.062
39.335,0.071
39.340,0.064
39.345,0.059
39.350,0.060
39.355,0.030
39.360,0.051
39.365,0.040
39.370,0.036
39.375,0.054
39.380,0.032
39.385,0.046
39.390,0.029
39.395,0.021
39.400,0.042
39.405,0.021
39.410,0.024
39.415,0.003
39.420,0.008
39.425,0.023
39.430,-0.003
39.435,0.021
39.440,0.007
39.445,-0.003
39.450,0.014
39.455,-0.012
39.460,0.002
39.465,-0.009
39.470,-0.016
39.475,-0.003
39.480,-0.034
39.485,-0.019
39.490,-0.028
39.495,-0.045
39.500,-0.034
39.505,-0.058
39.510,-0.052
39.515,-0.065
39.520,-0.066
39.525,-0.051
39.530,-0.076
39.535,-0.052
39.540,-0.063
39.545,-0.075
39.550,-0.052
39.555,-0.067
39.560,-0.044
39.565,-0.040
39.570,-0.029
39.575,0.000
39.580,-0.010
39.585,0.031
39.590,0.036
39.595,0.039
39.600,0.074
39.605,0.065
39.610,0.090
39.615,0.093
39.620,0.097
39.625,0.109
39.630,0.079
39.635,0.104
39.640,0.099
39.645,0.088
39.650,0.093
39.655,0.065
39.660,0.094
39.665,0.080
39.670,0.061
39.675,0.061
39.680,0.033
39.685,0.071
39.690,0.067
39.695,0.048
39.700,0.075
39.705,0.064
39.710,0.059
39.715,0.035
39.720,0.045
39.725,0.051
39.730,-0.002
39.735,0.012
39.740,0.014
39.745,0.024
39.750,0.047
39.755,-0.002
39.760,0.010
39.765,0.007
39.770,-0.013
39.775,0.013
39.780,-0.028
39.785,-0.035
39.790,-0.008
39.795,0.002
39.800,0.017
39.805,-0.013
39.810,-0.015
39.815,-0.012
39.820,-0.007
39.825,-0.007
39.830,-0.033
39.835,-0.002
39.840,-0.013
39.845,-0.020
39.850,0.020
39.855,0.005
39.860,-0.003
39.865,-0.037
39.870,-0.037
39.875,-0.003
39.880,-0.022
39.885,0.014
39.890,-0.001
39.895,-0.045
39.900,-0.006
39.905,-0.022
39.910,-0.019
39.915,-0.007
39.920,-0.016
39.925,0.003
39.930,-0.015
39.935,-0.023
39.940,-0.050
39.945,-0.040
39.950,0.002
39.955,-0.018
39.960,-0.016
39.965,-0.039
39.970,-0.032
39.975,0.000
39.980,-0.047
39.985,-0.049
39.990,-0.045
39.995,-0.047
40.000,-0.033
40.005,-0.047
40.010,-0.019
40.015,-0.015
40.020,-0.005
40.025,-0.001
40.030,-0.029
40.035,0.029
40.040,0.016
40.045,-0.010
40.050,0.025
40.055,0.019
40.060,0.061
40.065,0.034
40.070,-0.029
40.075,-0.028
40.080,-0.035
40.085,0.010
40.090,0.005
40.095,-0.028
40.100,-0.010
40.105,-0.012
40.110,0.015
40.115,0.003
40.120,-0.014
40.125,-0.001
40.130,-0.028
40.135,-0.001
40.140,0.010
40.145,0.011
40.150,0.005
40.155,-0.094
40.160,-0.200
40.165,-0.368
40.170,-0.542
40.175,-0.569
40.180,-0.372
40.185,-0.011
40.190,0.165
40.195,0.165
40.200,0.169
40.205,0.168
40.210,0.190
40.215,0.139
40.220,0.088
40.225,0.084
40.230,0.053
40.235,0.074
40.240,0.074
40.245,0.052
40.250,0.058
40.255,0.048
40.260,0.062
40.265,0.056
40.270,0.050
40.275,0.057
40.280,0.041
40.285,0.072
40.290,0.064
40.295,0.033
40.300,0.028
40.305,0.015
40.310,0.042
40.315,0.018
40.320,0.001
40.325,0.030
40.330,0.013
40.335,0.025
40.340,0.005
40.345,-0.014
40.350,0.010
40.355,-0.007
40.360,0.003
40.365,-0.004
40.370,-0.011
40.375,0.003
40.380,-0.027
40.385,-0.023
40.390,-0.033
40.395,-0.028
40.400,-0.026
40.405,-0.076
40.410,-0.048
40.415,-0.052
40.420,-0.063
40.425,-0.051
40.430,-0.075
40.435,-0.037
40.440,-0.047
40.445,-0.074
40.450,-0.048
40.455,-0.051
40.460,-0.039
40.465,-0.046
40.470,-0.032
40.475,-0.003
40.480,-0.011
40.485,0.039
40.490,0.050
40.495,0.044
40.500,0.071
40.505,0.059
40.510,0.083
40.515,0.087
40.520,0.094
40.525,0.104
40.530,0.072
40.535,0.099
40.540,0.087
40.545,0.069
40.550,0.101
40.555,0.072
40.560,0.064
40.565,0.052
40.570,0.050
40.575,0.077
40.580,0.054
40.585,0.066
40.590,0.059
40.595,0.037
40.600,0.050
40.605,0.035
40.610,0.050
40.615,0.043
40.620,0.028
40.625,0.041
40.630,0.024
40.635,0.038
40.640,0.020
40.645,0.000
40.650,0.036
40.655,0.023
40.660,0.014
40.665,0.008
40.670,0.007
40.675,0.014
40.680,-0.028
40.685,-0.015
40.690,-0.002
40.695,-0.008
40.700,0.002
40.705,-0.021
40.710,0.000
40.715,-0.009
40.720,-0.026
40.725,-0.012
40.730,-0.035
40.735,-0.013
40.740,-0.015
40.745,-0.029
40.750,-0.012
40.755,-0.029
40.760,-0.029
40.765,-0.043
40.770,-0.033
40.775,-0.019
40.780,-0.054
40.785,-0.042
40.790,-0.052
40.795,-0.052
40.800,-0.021
40.805,-0.039
40.810,-0.018
40.815,-0.024
40.820,-0.042
40.825,-0.016
40.830,-0.013
40.835,0.031
40.840,0.021
40.845,-0.013
40.850,0.008
40.855,-0.008
40.860,0.005
40.865,0.014
40.870,0.004
40.875,0.000
40.880,-0.031
40.885,-0.013
40.890,-0.009
40.895,-0.017
40.900,0.000
40.905,-0.011
40.910,0.004
40.915,-0.016
40.920,-0.027
40.925,-0.011
40.930,-0.036
40.935,-0.002
40.940,-0.002
40.945,-0.040
40.950,-0.077
40.955,-0.204
40.960,-0.343
40.965,-0.504
40.970,-0.543
40.975,-0.329
40.980,-0.049
40.985,0.158
40.990,0.166
40.995,0.129
41.000,0.156
41.005,0.134
41.010,0.138
41.015,0.121
41.020,0.073
41.025,0.042
41.030,-0.002
41.035,0.029
41.040,0.043
41.045,0.012
41.050,0.026
41.055,0.026
41.060,0.041
41.065,0.032
41.070,0.031
41.075,0.041
41.080,-0.008
41.085,0.015
41.090,0.021
41.095,0.000
41.100,0.018
41.105,-0.004
41.110,0.004
41.115,-0.004
41.120,-0.012
41.125,0.006
41.130,-0.018
41.135,0.001
41.140,-0.006
41.145,-0.027
41.150,-0.008
41.155,-0.026
41.160,-0.016
41.165,-0.023
41.170,-0.034
41.175,-0.019
41.180,-0.045
41.185,-0.037
41.190,-0.055
41.195,-0.072
41.200,-0.045
41.205,-0.060
41.210,-0.060
41.215,-0.074
41.220,-0.073
41.225,-0.055
41.230,-0.085
41.235,-0.044
41.240,-0.040
41.245,-0.079
41.250,-0.055
41.255,-0.064
41.260,-0.038
41.265,-0.019
41.270,-0.023
41.275,0.013
41.280,0.018
41.285,0.050
41.290,0.061
41.295,0.059
41.300,0.087
41.305,0.076
41.310,0.102
41.315,0.109
41.320,0.105
41.325,0.115
41.330,0.082
41.335,0.109
41.340,0.096
41.345,0.073
41.350,0.104
41.355,0.083
41.360,0.097
41.365,0.095
41.370,0.078
41.375,0.087
41.380,0.065
41.385,0.090
41.390,0.081
41.395,0.036
41.400,0.031
41.405,0.024
41.410,0.052
41.415,0.045
41.420,0.032
41.425,0.046
41.430,0.021
41.435,0.041
41.440,0.031
41.445,0.005
41.450,0.031
41.455,0.008
41.460,0.004
41.465,-0.005
41.470,-0.019
41.475,0.007
41.480,-0.002
41.485,0.003
41.490,-0.014
41.495,-0.026
41.500,-0.004
41.505,-0.023
41.510,-0.007
41.515,-0.013
41.520,-0.027
41.525,-0.011
41.530,-0.034
41.535,-0.011
41.540,-0.008
41.545,-0.026
41.550,0.004
41.555,-0.013
41.560,-0.018
41.565,-0.021
41.570,-0.024
41.575,0.002
41.580,-0.018
41.585,-0.010
41.590,-0.024
41.595,-0.043
41.600,-0.019
41.605,-0.032
41.610,-0.015
41.615,-0.033
41.620,-0.049
41.625,-0.016
41.630,-0.030
41.635,-0.018
41.640,-0.038
41.645,-0.063
41.650,-0.024
41.655,-0.027
41.660,-0.017
41.665,-0.021
41.670,-0.019
41.675,0.002
41.680,-0.021
41.685,0.013
41.690,0.028
41.695,0.011
41.700,0.033
41.705,0.013
41.710,0.018
41.715,0.014
41.720,0.006
41.725,0.027
41.730,0.005
41.735,0.023
41.740,0.024
41.745,0.007
41.750,0.031
41.755,0.008
41.760,0.006
41.765,-0.003
41.770,-0.014
41.775,0.003
41.780,-0.013
41.785,0.015
41.790,0.009
41.795,-0.058
41.800,-0.154
41.805,-0.348
41.810,-0.507
41.815,-0.553
41.820,-0.394
41.825,-0.064
41.830,0.143
41.835,0.200
41.840,0.151
41.845,0.115
41.850,0.150
41.855,0.120
41.860,0.096
41.865,0.074
41.870,0.058
41.875,0.068
41.880,0.044
41.885,0.067
41.890,0.058
41.895,0.034
41.900,0.060
41.905,0.041
41.910,0.046
41.915,0.049
41.920,0.043
41.925,0.050
41.930,0.007
41.935,0.033
41.940,0.047
41.945,0.013
41.950,0.020
41.955,-0.007
41.960,0.004
41.965,0.013
41.970,0.000
41.975,0.017
41.980,0.003
41.985,0.016
41.990,-0.007
41.995,-0.029
42.000,0.004
42.005,-0.014
42.010,-0.009
42.015,-0.017
42.020,-0.032
42.025,-0.015
42.030,-0.044
42.035,-0.037
42.040,-0.046
42.045,-0.065
42.050,-0.042
42.055,-0.064
42.060,-0.056
42.065,-0.057
42.070,-0.071
42.075,-0.049
42.080,-0.067
42.085,-0.036
42.090,-0.008
42.095,-0.034
42.100,-0.050
42.105,-0.074
42.110,-0.056
42.115,-0.033
42.120,-0.009
42.125,0.013
42.130,0.004
42.135,0.047
42.140,0.052
42.145,0.053
42.150,0.097
42.155,0.085
42.160,0.103
42.165,0.107
42.170,0.091
42.175,0.108
42.180,0.091
42.185,0.113
42.190,0.109
42.195,0.070
42.200,0.071
42.205,0.049
42.210,0.060
42.215,0.069
42.220,0.057
42.225,0.062
42.230,0.043
42.235,0.059
42.240,0.060
42.245,0.062
42.250,0.097
42.255,0.046
42.260,0.019
42.265,0.019
42.270,0.016
42.275,0.037
42.280,0.004
42.285,0.015
42.290,0.028
42.295,0.001
42.300,0.005
42.305,-0.008
42.310,0.008
42.315,0.007
42.320,-0.006
42.325,0.009
42.330,-0.010
42.335,0.014
42.340,0.010
42.345,-0.019
42.350,-0.009
42.355,-0.036
42.360,-0.026
42.365,-0.030
42.370,-0.040
42.375,-0.023
42.380,-0.051
42.385,-0.028
42.390,-0.035
42.395,-0.052
42.400,-0.005
42.405,-0.020
42.410,-0.017
42.415,-0.027
42.420,-0.054
42.425,-0.036
42.430,-0.041
42.435,0.006
42.440,0.009
42.445,-0.050
42.450,-0.045
42.455,-0.047
42.460,-0.015
42.465,0.006
42.470,-0.002
42.475,0.026
42.480,0.010
42.485,0.011
42.490,0.007
42.495,-0.009
42.500,0.016
42.505,-0.001
42.510,0.005
42.515,0.002
42.520,-0.010
42.525,0.006
42.530,-0.019
42.535,0.002
42.540,0.002
42.545,-0.019
42.550,0.003
42.555,-0.015
42.560,0.002
42.565,0.009
42.570,0.001
42.575,0.010
42.580,-0.063
42.585,-0.146
42.590,-0.300
42.595,-0.503
42.600,-0.581
42.605,-0.485
42.610,-0.152
42.615,0.141
42.620,0.180
42.625,0.138
42.630,0.111
42.635,0.155
42.640,0.142
42.645,0.067
42.650,0.067
42.655,0.065
42.660,0.067
42.665,0.054
42.670,0.050
42.675,0.075
42.680,0.038
42.685,0.038
42.690,0.039
42.695,0.019
42.700,0.048
42.705,0.038
42.710,0.036
42.715,0.030
42.720,0.015
42.725,0.026
42.730,0.006
42.735,0.027
42.740,0.021
42.745,-0.007
42.750,0.027
42.755,0.008
42.760,-0.002
42.765,0.003
42.770,0.002
42.775,0.015
42.780,-0.019
42.785,-0.010
42.790,-0.013
42.795,-0.033
42.800,-0.005
42.805,-0.026
42.810,-0.019
42.815,-0.027
42.820,-0.052
42.825,-0.035
42.830,-0.069
42.835,-0.063
42.840,-0.052
42.845,-0.069
42.850,-0.052
42.855,-0.071
42.860,-0.067
42.865,-0.068
42.870,-0.081
42.875,-0.059
42.880,-0.067
42.885,-0.040
42.890,-0.027
42.895,-0.031
42.900,0.007
42.905,-0.002
42.910,0.022
42.915,0.052
42.920,0.060
42.925,0.091
42.930,0.072
42.935,0.092
42.940,0.099
42.945,0.085
42.950,0.117
42.955,0.100
42.960,0.095
42.965,0.089
42.970,0.079
42.975,0.099
42.980,0.079
42.985,0.088
42.990,0.084
42.995,0.057
43.000,0.078
43.005,0.062
43.010,0.061
43.015,0.058
43.020,0.048
43.025,0.068
43.030,0.046
43.035,0.059
43.040,0.049
43.045,0.027
43.050,0.055
43.055,0.036
43.060,0.037
43.065,0.026
43.070,0.002
43.075,0.016
43.080,0.002
43.085,0.021
43.090,0.015
43.095,-0.005
43.100,0.029
43.105,0.004
43.110,-0.011
43.115,-0.016
43.120,-0.027
43.125,-0.004
43.130,-0.022
43.135,-0.014
43.140,-0.020
43.145,-0.042
43.150,-0.016
43.155,-0.034
43.160,-0.027
43.165,-0.032
43.170,-0.048
43.175,-0.022
43.180,-0.039
43.185,-0.019
43.190,-0.032
43.195,-0.067
43.200,-0.036
43.205,-0.047
43.210,-0.022
43.215,-0.016
43.220,-0.038
43.225,-0.004
43.230,-0.021
43.235,-0.002
43.240,0.013
43.245,-0.006
43.250,0.027
43.255,0.007
43.260,0.003
43.265,0.008
43.270,-0.002
43.275,0.014
43.280,-0.010
43.285,0.008
43.290,0.003
43.295,-0.022
43.300,0.011
43.305,-0.007
43.310,0.000
43.315,-0.004
43.320,-0.023
43.325,0.004
43.330,-0.021
43.335,-0.005
43.340,0.001
43.345,-0.015
43.350,-0.001
43.355,-0.091
43.360,-0.214
43.365,-0.386
43.370,-0.562
43.375,-0.554
43.380,-0.363
43.385,-0.032
43.390,0.170
43.395,0.167
43.400,0.169
43.405,0.154
43.410,0.155
43.415,0.127
43.420,0.070
43.425,0.073
43.430,0.047
43.435,0.047
43.440,0.050
43.445,0.023
43.450,0.040
43.455,0.041
43.460,0.048
43.465,0.034
43.470,0.014
43.475,0.034
43.480,0.021
43.485,0.031
43.490,0.023
43.495,0.002
43.500,0.034
43.505,0.021
43.510,0.025
43.515,0.018
43.520,-0.009
43.525,0.014
43.530,0.004
43.535,0.016
43.540,0.007
43.545,-0.022
43.550,0.002
43.555,-0.024
43.560,-0.028
43.565,-0.021
43.570,-0.031
43.575,-0.009
43.580,-0.033
43.585,-0.031
43.590,-0.033
43.595,-0.053
43.600,-0.031
43.605,-0.055
43.610,-0.057
43.615,-0.060
43.620,-0.073
43.625,-0.052
43.630,-0.072
43.635,-0.064
43.640,-0.072
43.645,-0.090
43.650,-0.048
43.655,-0.048
43.660,-0.029
43.665,-0.008
43.670,-0.006
43.675,0.032
43.680,0.026
43.685,0.047
43.690,0.058
43.695,0.043
43.700,0.088
43.705,0.093
43.710,0.089
43.715,0.083
43.720,0.077
43.725,0.105
43.730,0.088
43.735,0.098
43.740,0.093
43.745,0.069
43.750,0.099
43.755,0.078
43.760,0.077
43.765,0.081
43.770,0.063
43.775,0.074
43.780,0.051
43.785,0.071
43.790,0.082
43.795,0.056
43.800,0.064
43.805,0.036
43.810,0.038
43.815,0.042
43.820,0.029
43.825,0.042
43.830,0.016
43.835,0.023
43.840,0.016
43.845,-0.013
43.850,0.018
43.855,0.009
43.860,0.011
43.865,0.009
43.870,-0.019
43.875,0.002
43.880,-0.009
43.885,-0.005
43.890,-0.010
43.895,-0.041
43.900,-0.022
43.905,-0.032
43.910,-0.026
43.915,-0.013
43.920,-0.017
43.925,-0.027
43.930,-0.137
43.935,-0.278
43.940,-0.461
43.945,-0.574
43.950,-0.415
43.955,-0.127
43.960,0.117
43.965,0.175
43.970,0.126
43.975,0.127
43.980,0.106
43.985,0.094
43.990,0.066
43.995,0.044
44.000,0.073
44.005,0.035
44.010,0.031
44.015,0.063
44.020,0.055
44.025,0.065
44.030,0.037
44.035,0.036
44.040,0.030
44.045,0.007
44.050,0.041
44.055,0.043
44.060,0.058
44.065,0.040
44.070,0.000
44.075,0.011
44.080,-0.005
44.085,0.023
44.090,0.021
44.095,-0.013
44.100,0.022
44.105,0.006
44.110,-0.003
44.115,0.001
44.120,-0.014
44.125,0.004
44.130,-0.024
44.135,-0.028
44.140,-0.028
44.145,-0.040
44.150,-0.013
44.155,-0.042
44.160,-0.046
44.165,-0.041
44.170,-0.057
44.175,-0.043
44.180,-0.072
44.185,-0.060
44.190,-0.054
44.195,-0.082
44.200,-0.047
44.205,-0.056
44.210,-0.057
44.215,-0.045
44.220,-0.053
44.225,-0.029
44.230,-0.035
44.235,-0.012
44.240,0.006
44.245,-0.001
44.250,0.036
44.255,0.028
44.260,0.038
44.265,0.046
44.270,0.037
44.275,0.071
44.280,0.052
44.285,0.062
44.290,0.070
44.295,0.045
44.300,0.070
44.305,0.049
44.310,0.051
44.315,0.062
44.320,0.043
44.325,0.059
44.330,0.036
44.335,0.042
44.340,0.046
44.345,0.022
44.350,0.044
44.355,0.025
44.360,0.026
44.365,0.035
44.370,0.017
44.375,0.033
44.380,0.012
44.385,0.020
44.390,0.023
44.395,-0.004
44.400,0.023
44.405,0.005
44.410,0.001
44.415,0.007
44.420,-0.008
44.425,0.013
44.430,-0.008
44.435,0.000
44.440,0.006
44.445,-0.017
44.450,0.008
44.455,-0.012
44.460,-0.012
44.465,0.000
44.470,-0.014
44.475,0.005
44.480,-0.017
44.485,-0.008
44.490,-0.003
44.495,-0.026
44.500,0.005
44.505,-0.014
44.510,-0.015
44.515,-0.005
44.520,-0.022
44.525,-0.003
44.530,-0.019
44.535,-0.008
44.540,-0.005
44.545,-0.030
44.550,-0.001
44.555,-0.016
44.560,-0.016
44.565,-0.008
44.570,-0.026
44.575,-0.005
44.580,-0.020
44.585,-0.006
44.590,0.004
44.595,-0.021
44.600,0.003
44.605,-0.011
44.610,-0.010
44.615,-0.004
44.620,-0.020
44.625,0.000
44.630,-0.018
44.635,-0.009
44.640,-0.003
44.645,-0.027
44.650,0.002
44.655,-0.013
44.660,-0.014
44.665,-0.006
44.670,-0.021
44.675,0.001
44.680,-0.022
44.685,-0.013
44.690,-0.006
44.695,-0.031
44.700,0.003
44.705,-0.011
44.710,-0.014
44.715,-0.002
44.720,-0.017
44.725,0.002
44.730,-0.016
44.735,-0.008
44.740,-0.001
44.745,-0.022
44.750,0.006
44.755,-0.013
44.760,-0.014
44.765,-0.001
44.770,-0.016
44.775,0.000
44.780,-0.019
44.785,-0.008
44.790,0.002
44.795,-0.023
44.800,0.000
44.805,-0.014
44.810,-0.012
44.815,0.001
44.820,-0.016
44.825,-0.001
44.830,-0.026
44.835,-0.017
44.840,-0.009
44.845,-0.037
44.850,-0.011
44.855,-0.028
44.860,-0.032
44.865,-0.016
44.870,-0.026
44.875,-0.006
44.880,-0.029
44.885,-0.027
44.890,-0.019
44.895,-0.036
44.900,-0.004
44.905,-0.016
44.910,-0.015
44.915,-0.005
44.920,-0.016
44.925,0.025
44.930,0.024
44.935,0.033
44.940,0.035
44.945,0.011
44.950,0.039
44.955,0.018
44.960,0.017
44.965,0.032
44.970,0.014
44.975,0.025
44.980,0.003
44.985,0.020
44.990,0.025
44.995,-0.009
45.000,0.015
45.005,0.006
45.010,0.016
45.015,0.022
45.020,-0.028
45.025,-0.085
45.030,-0.237
45.035,-0.406
45.040,-0.559
45.045,-0.586
45.050,-0.306
45.055,0.025
45.060,0.206
45.065,0.218
45.070,0.171
45.075,0.192
45.080,0.173
45.085,0.143
45.090,0.107
45.095,0.073
45.100,0.093
45.105,0.060
45.110,0.061
45.115,0.077
45.120,0.048
45.125,0.064
45.130,0.050
45.135,0.051
45.140,0.053
45.145,0.030
45.150,0.057
45.155,0.039
45.160,0.033
45.165,0.042
45.170,0.019
45.175,0.036
45.180,0.020
45.185,0.025
