'Elapsed time','ECG'
'seconds','mV'
0.000,-0.068
0.005,0.061
0.010,0.159
0.015,-0.231
0.020,-0.106
0.025,0.207
0.030,-0.089
0.035,-0.133
0.040,0.088
0.045,-0.005
0.050,-0.119
0.055,0.016
0.060,0.026
0.065,-0.103
0.070,-0.048
0.075,0.017
0.080,-0.016
0.085,-0.021
0.090,-0.017
0.095,-0.034
0.100,-0.057
0.105,-0.011
0.110,0.015
0.115,-0.025
0.120,-0.016
0.125,-0.011
0.130,0.001
0.135,0.014
0.140,-0.013
0.145,-0.010
0.150,-0.027
0.155,-0.017
0.160,0.015
0.165,-0.004
0.170,0.005
0.175,-0.011
0.180,-0.017
0.185,0.010
0.190,0.011
0.195,0.035
0.200,0.012
0.205,-0.014
0.210,0.008
0.215,0.014
0.220,0.009
0.225,-0.011
0.230,-0.009
0.235,0.003
0.240,0.011
0.245,0.033
0.250,0.006
0.255,-0.012
0.260,0.014
0.265,0.029
0.270,0.036
0.275,0.017
0.280,0.006
0.285,0.002
0.290,0.009
0.295,0.046
0.300,0.029
0.305,0.001
0.310,-0.002
0.315,-0.008
0.320,0.012
0.325,-0.005
0.330,-0.012
0.335,-0.005
0.340,-0.019
0.345,0.025
0.350,0.033
0.355,0.017
0.360,0.018
0.365,-0.012
0.370,0.007
0.375,0.022
0.380,0.008
0.385,-0.002
0.390,-0.013
0.395,0.017
0.400,0.020
0.405,0.008
0.410,0.011
0.415,-0.004
0.420,-0.003
0.425,0.015
0.430,0.036
0.435,0.023
0.440,0.000
0.445,0.014
0.450,0.012
0.455,0.015
0.460,0.016
0.465,0.005
0.470,0.009
0.475,0.004
0.480,0.027
0.485,0.034
0.490,0.045
0.495,0.159
0.500,0.135
0.505,0.005
0.510,-0.033
0.515,-0.051
0.520,-0.008
0.525,0.003
0.530,-0.025
0.535,0.004
0.540,0.006
0.545,-0.003
0.550,-0.027
0.555,-0.009
0.560,0.030
0.565,0.011
0.570,-0.007
0.575,-0.031
0.580,-0.011
0.585,0.033
0.590,0.013
0.595,0.005
0.600,-0.003
0.605,-0.004
0.610,0.009
0.615,0.009
0.620,0.019
0.625,0.013
0.630,0.011
0.635,0.008
0.640,0.006
0.645,0.029
0.650,0.012
0.655,-0.010
0.660,0.005
0.665,0.021
0.670,0.028
0.675,0.015
0.680,0.022
0.685,0.022
0.690,0.020
0.695,0.049
0.700,0.019
0.705,0.006
0.710,0.011
0.715,-0.004
0.720,0.020
0.725,0.014
0.730,0.014
0.735,0.010
0.740,-0.005
0.745,0.043
0.750,0.049
0.755,0.034
0.760,0.029
0.765,-0.004
0.770,0.007
0.775,0.024
0.780,0.026
0.785,0.015
0.790,-0.019
0.795,0.000
0.800,0.019
0.805,0.014
0.810,0.015
0.815,-0.006
0.820,-0.009
0.825,0.013
0.830,0.021
0.835,0.002
0.840,-0.014
0.845,0.007
0.850,0.017
0.855,0.019
0.860,0.006
0.865,-0.027
0.870,-0.025
0.875,-0.013
0.880,0.022
0.885,0.020
0.890,-0.026
0.895,-0.024
0.900,-0.026
0.905,-0.005
0.910,0.019
0.915,0.004
0.920,0.020
0.925,0.038
0.930,0.099
0.935,0.153
0.940,0.148
0.945,0.185
0.950,0.181
0.955,0.160
0.960,0.141
0.965,0.051
0.970,-0.020
0.975,-0.076
0.980,-0.096
0.985,-0.082
0.990,-0.087
0.995,-0.071
1.000,-0.086
1.005,-0.103
1.010,-0.072
1.015,-0.066
1.020,-0.068
1.025,-0.072
1.030,-0.067
1.035,-0.055
1.040,-0.054
1.045,-0.043
1.050,-0.064
1.055,-0.074
1.060,-0.050
1.065,-0.030
1.070,-0.015
1.075,-0.027
1.080,-0.022
1.085,-0.022
1.090,-0.033
1.095,-0.013
1.100,-0.032
1.105,-0.037
1.110,-0.021
1.115,-0.037
1.120,-0.022
1.125,-0.016
1.130,-0.011
1.135,-0.005
1.140,-0.024
1.145,0.000
1.150,-0.007
1.155,-0.024
1.160,-0.006
1.165,-0.017
1.170,0.002
1.175,0.012
1.180,-0.007
1.185,-0.020
1.190,-0.035
1.195,-0.001
1.200,0.013
1.205,0.000
1.210,0.010
1.215,-0.004
1.220,-0.004
1.225,0.002
1.230,0.015
1.235,0.002
1.240,-0.044
1.245,-0.031
1.250,-0.012
1.255,0.011
1.260,0.029
1.265,0.004
1.270,0.000
1.275,0.008
1.280,0.039
1.285,0.040
1.290,0.000
1.295,0.007
1.300,-0.004
1.305,0.012
1.310,0.054
1.315,0.029
1.320,0.014
1.325,0.004
1.330,0.011
1.335,0.030
1.340,0.012
1.345,0.022
1.350,0.007
1.355,-0.007
1.360,0.028
1.365,0.008
1.370,-0.014
1.375,-0.020
1.380,-0.016
1.385,0.013
1.390,0.007
1.395,0.014
1.400,0.004
1.405,-0.011
1.410,0.008
1.415,-0.001
1.420,-0.006
1.425,-0.016
1.430,-0.023
1.435,-0.014
1.440,-0.011
1.445,0.009
1.450,-0.009
1.455,-0.028
1.460,-0.003
1.465,0.013
1.470,0.024
1.475,0.006
1.480,0.001
1.485,-0.003
1.490,-0.024
1.495,-0.004
1.500,-0.016
1.505,-0.026
1.510,-0.011
1.515,-0.013
1.520,0.013
1.525,0.014
1.530,0.005
1.535,0.002
1.540,-0.014
1.545,0.019
1.550,0.017
1.555,-0.009
1.560,-0.002
1.565,-0.017
1.570,0.006
1.575,0.022
1.580,0.007
1.585,0.004
1.590,-0.012
1.595,0.002
1.600,0.007
1.605,-0.004
1.610,0.008
1.615,-0.006
1.620,-0.007
1.625,0.007
1.630,0.012
1.635,-0.001
1.640,-0.023
1.645,0.002
1.650,0.008
1.655,-0.009
1.660,-0.001
1.665,-0.015
1.670,-0.014
1.675,0.000
1.680,0.012
1.685,0.010
1.690,-0.016
1.695,-0.015
1.700,-0.021
1.705,-0.014
1.710,0.005
1.715,-0.013
1.720,-0.010
1.725,-0.007
1.730,0.021
1.735,0.040
1.740,0.005
1.745,0.007
1.750,-0.020
1.755,-0.014
1.760,0.038
1.765,0.008
1.770,-0.022
1.775,-0.035
1.780,-0.027
1.785,0.004
1.790,-0.005
1.795,0.002
1.800,-0.002
1.805,-0.012
1.810,0.020
1.815,0.019
1.820,0.003
1.825,-0.013
1.830,-0.021
1.835,-0.005
1.840,-0.001
1.845,0.009
1.850,-0.005
1.855,-0.016
1.860,0.005
1.865,0.007
1.870,0.017
1.875,0.014
1.880,0.004
1.885,-0.001
1.890,-0.018
1.895,0.010
1.900,0.008
1.905,-0.017
1.910,-0.008
1.915,-0.015
1.920,0.003
1.925,0.004
1.930,-0.005
1.935,-0.005
1.940,-0.015
1.945,0.009
1.950,0.007
1.955,0.002
1.960,0.029
1.965,0.013
1.970,-0.003
1.975,-0.001
1.980,-0.003
1.985,-0.012
1.990,-0.029
1.995,0.006
2.000,0.035
2.005,0.027
2.010,0.023
2.015,0.000
2.020,-0.002
2.025,0.009
2.030,0.010
2.035,-0.001
2.040,-0.014
2.045,0.005
2.050,-0.008
2.055,-0.014
2.060,0.012
2.065,0.001
2.070,0.000
2.075,-0.009
2.080,-0.006
2.085,0.017
2.090,0.000
2.095,-0.006
2.100,-0.016
2.105,-0.008
2.110,0.024
2.115,-0.002
2.120,-0.010
2.125,0.021
2.130,0.059
2.135,0.063
2.140,0.008
2.145,-0.014
2.150,-0.027
2.155,-0.035
2.160,-0.006
2.165,-0.014
2.170,-0.013
2.175,0.010
2.180,0.044
2.185,0.091
2.190,0.116
2.195,0.163
2.200,0.180
2.205,0.166
2.210,0.178
2.215,0.142
2.220,0.073
2.225,0.006
2.230,-0.054
2.235,-0.077
2.240,-0.087
2.245,-0.086
2.250,-0.100
2.255,-0.104
2.260,-0.067
2.265,-0.043
2.270,-0.033
2.275,-0.059
2.280,-0.073
2.285,-0.069
2.290,-0.070
2.295,-0.037
2.300,-0.042
2.305,-0.049
2.310,-0.023
2.315,-0.024
2.320,-0.002
2.325,0.006
2.330,-0.006
2.335,-0.014
2.340,-0.022
2.345,0.029
2.350,0.041
2.355,0.025
2.360,0.033
2.365,0.001
2.370,0.027
2.375,0.075
2.380,0.081
2.385,0.081
2.390,0.040
2.395,0.064
2.400,0.109
2.405,0.084
2.410,0.073
2.415,0.056
2.420,0.072
2.425,0.108
2.430,0.094
2.435,0.077
2.440,0.077
2.445,0.101
2.450,0.101
2.455,0.093
2.460,0.100
2.465,0.078
2.470,0.067
2.475,0.074
2.480,0.095
2.485,0.098
2.490,0.067
2.495,0.081
2.500,0.084
2.505,0.090
2.510,0.102
2.515,0.066
2.520,0.082
2.525,0.103
2.530,0.111
2.535,0.117
2.540,0.077
2.545,0.085
2.550,0.079
2.555,0.057
2.560,0.083
2.565,0.070
2.570,0.058
2.575,0.055
2.580,0.052
2.585,0.063
2.590,0.044
2.595,0.025
2.600,-0.008
2.605,-0.024
2.610,0.015
2.615,0.015
2.620,-0.010
2.625,-0.023
2.630,-0.035
2.635,-0.041
2.640,-0.044
2.645,-0.040
2.650,-0.058
2.655,-0.075
2.660,-0.065
2.665,-0.072
2.670,-0.080
2.675,-0.091
2.680,-0.087
2.685,-0.081
2.690,-0.100
2.695,-0.087
2.700,-0.092
2.705,-0.105
2.710,-0.101
2.715,-0.112
2.720,-0.085
2.725,-0.080
2.730,-0.104
2.735,-0.117
2.740,-0.130
2.745,-0.083
2.750,-0.076
2.755,-0.100
2.760,-0.079
2.765,-0.092
2.770,-0.086
2.775,-0.083
2.780,-0.102
2.785,-0.103
2.790,-0.104
2.795,-0.070
2.800,-0.072
2.805,-0.088
2.810,-0.087
2.815,-0.101
2.820,-0.081
2.825,-0.069
2.830,-0.069
2.835,-0.079
2.840,-0.108
2.845,-0.079
2.850,-0.057
2.855,-0.055
2.860,-0.032
2.865,-0.063
2.870,-0.080
2.875,-0.059
2.880,-0.047
2.885,-0.050
2.890,-0.075
2.895,-0.065
2.900,-0.055
2.905,-0.042
2.910,-0.012
2.915,-0.025
2.920,-0.031
2.925,-0.048
2.930,-0.056
2.935,-0.032
2.940,-0.048
2.945,-0.038
2.950,-0.044
2.955,-0.049
2.960,-0.013
2.965,-0.042
2.970,-0.051
2.975,-0.044
2.980,-0.045
2.985,-0.017
2.990,-0.030
2.995,-0.024
3.000,-0.027
3.005,-0.044
3.010,-0.004
3.015,-0.007
3.020,-0.023
3.025,-0.031
3.030,-0.039
3.035,-0.019
3.040,-0.011
3.045,0.018
3.050,0.008
3.055,-0.021
3.060,-0.010
3.065,-0.029
3.070,-0.035
3.075,-0.024
3.080,-0.015
3.085,-0.013
3.090,-0.030
3.095,-0.002
3.100,0.004
3.105,-0.022
3.110,-0.026
3.115,-0.027
3.120,0.012
3.125,0.021
3.130,-0.007
3.135,-0.022
3.140,-0.032
3.145,0.003
3.150,-0.002
3.155,-0.031
3.160,-0.005
3.165,-0.008
3.170,0.002
3.175,0.026
3.180,0.026
3.185,0.021
3.190,-0.009
3.195,-0.004
3.200,0.002
3.205,-0.008
3.210,0.012
3.215,0.002
3.220,0.004
3.225,0.017
3.230,0.013
3.235,0.004
3.240,-0.014
3.245,0.002
3.250,0.006
3.255,0.017
3.260,0.037
3.265,0.000
3.270,-0.006
3.275,0.016
3.280,0.026
3.285,0.024
3.290,-0.006
3.295,0.002
3.300,0.008
3.305,0.015
3.310,0.039
3.315,0.023
3.320,0.022
3.325,0.000
3.330,-0.007
3.335,0.020
3.340,0.003
3.345,0.013
3.350,0.004
3.355,-0.006
3.360,0.035
3.365,0.018
3.370,0.003
3.375,0.000
3.380,-0.008
3.385,0.021
3.390,0.011
3.395,0.014
3.400,0.007
3.405,-0.018
3.410,0.013
3.415,0.011
3.420,0.024
3.425,0.067
3.430,0.093
3.435,0.150
3.440,0.189
3.445,0.213
3.450,0.180
3.455,0.088
3.460,0.059
3.465,0.024
3.470,-0.021
3.475,-0.049
3.480,-0.072
3.485,-0.069
3.490,-0.061
3.495,-0.036
3.500,-0.043
3.505,-0.051
3.510,-0.027
3.515,-0.047
3.520,-0.039
3.525,-0.018
3.530,-0.022
3.535,-0.032
3.540,-0.056
3.545,-0.022
3.550,-0.008
3.555,-0.023
3.560,-0.011
3.565,-0.037
3.570,-0.022
3.575,0.005
3.580,-0.007
3.585,-0.020
3.590,-0.052
3.595,-0.021
3.600,0.017
3.605,0.006
3.610,0.006
3.615,-0.020
3.620,-0.011
3.625,0.017
3.630,0.007
3.635,-0.002
3.640,-0.011
3.645,0.005
3.650,0.011
3.655,0.011
3.660,0.031
3.665,0.008
3.670,-0.002
3.675,0.006
3.680,0.019
3.685,0.028
3.690,0.000
3.695,0.014
3.700,0.027
3.705,0.038
3.710,0.069
3.715,0.036
3.720,0.015
3.725,0.014
3.730,0.014
3.735,0.028
3.740,0.007
3.745,0.008
3.750,-0.006
3.755,-0.012
3.760,0.049
3.765,0.043
3.770,0.034
3.775,0.027
3.780,0.004
3.785,0.028
3.790,0.015
3.795,0.017
3.800,0.020
3.805,-0.016
3.810,0.007
3.815,0.023
3.820,0.020
3.825,0.014
3.830,-0.005
3.835,0.004
3.840,0.021
3.845,0.039
3.850,0.009
3.855,-0.015
3.860,0.011
3.865,-0.001
3.870,-0.005
3.875,-0.007
3.880,-0.019
3.885,-0.010
3.890,-0.009
3.895,0.021
3.900,0.021
3.905,-0.013
3.910,-0.006
3.915,-0.007
3.920,0.004
3.925,0.010
3.930,0.006
3.935,0.017
3.940,0.011
3.945,0.031
3.950,0.030
3.955,0.012
3.960,0.030
3.965,0.000
3.970,0.001
3.975,0.021
3.980,-0.008
3.985,-0.007
3.990,-0.014
3.995,0.014
4.000,0.032
4.005,0.001
4.010,0.020
4.015,0.006
4.020,-0.008
4.025,0.010
4.030,0.004
4.035,0.006
4.040,0.001
4.045,0.010
4.050,0.023
4.055,0.009
4.060,0.010
4.065,-0.004
4.070,-0.013
4.075,0.001
4.080,0.013
4.085,0.009
4.090,-0.012
4.095,0.003
4.100,0.010
4.105,0.015
4.110,0.027
4.115,-0.006
4.120,-0.015
4.125,-0.003
4.130,0.007
4.135,0.017
4.140,-0.006
4.145,-0.009
4.150,-0.011
4.155,-0.019
4.160,0.014
4.165,-0.003
4.170,-0.019
4.175,-0.008
4.180,-0.014
4.185,0.011
4.190,0.012
4.195,0.006
4.200,-0.007
4.205,-0.027
4.210,0.016
4.215,0.016
4.220,-0.003
4.225,0.001
4.230,-0.014
4.235,0.010
4.240,0.022
4.245,0.017
4.250,-0.002
4.255,-0.039
4.260,-0.013
4.265,0.016
4.270,0.018
4.275,0.001
4.280,-0.016
4.285,-0.005
4.290,-0.002
4.295,0.015
4.300,0.004
4.305,-0.018
4.310,0.001
4.315,-0.009
4.320,0.005
4.325,0.016
4.330,-0.003
4.335,-0.006
4.340,-0.018
4.345,0.019
4.350,0.031
4.355,0.000
4.360,0.020
4.365,0.010
4.370,0.009
4.375,0.015
4.380,-0.006
4.385,-0.009
4.390,-0.015
4.395,0.017
4.400,0.027
4.405,0.001
4.410,0.005
4.415,-0.022
4.420,-0.019
4.425,0.014
4.430,0.009
4.435,0.014
4.440,0.010
4.445,0.018
4.450,0.024
4.455,0.012
4.460,0.011
4.465,-0.020
4.470,-0.032
4.475,-0.010
4.480,0.005
4.485,0.021
4.490,0.006
4.495,0.011
4.500,0.016
4.505,0.001
4.510,0.019
4.515,-0.008
4.520,-0.022
4.525,-0.012
4.530,-0.023
4.535,-0.004
4.540,-0.004
4.545,0.003
4.550,-0.003
4.555,-0.022
4.560,0.003
4.565,-0.009
4.570,-0.015
4.575,-0.002
4.580,-0.004
4.585,0.020
4.590,0.016
4.595,0.010
4.600,-0.007
4.605,-0.022
4.610,0.013
4.615,0.007
4.620,0.000
4.625,0.006
4.630,-0.004
4.635,0.003
4.640,-0.006
4.645,-0.007
4.650,-0.019
4.655,-0.025
4.660,0.031
4.665,0.072
4.670,0.105
4.675,0.143
4.680,0.167
4.685,0.193
4.690,0.188
4.695,0.177
4.700,0.106
4.705,0.001
4.710,-0.042
4.715,-0.082
4.720,-0.086
4.725,-0.067
4.730,-0.071
4.735,-0.067
4.740,-0.082
4.745,-0.065
4.750,-0.057
4.755,-0.071
4.760,-0.043
4.765,-0.064
4.770,-0.066
4.775,-0.035
4.780,-0.050
4.785,-0.056
4.790,-0.074
4.795,-0.056
4.800,-0.033
4.805,-0.056
4.810,-0.049
4.815,-0.065
4.820,-0.062
4.825,-0.022
4.830,-0.027
4.835,-0.034
4.840,-0.046
4.845,-0.032
4.850,-0.007
4.855,-0.017
4.860,-0.006
4.865,-0.023
4.870,-0.037
4.875,-0.020
4.880,-0.005
4.885,0.013
4.890,0.001
4.895,0.001
4.900,-0.009
4.905,-0.006
4.910,0.021
4.915,-0.008
4.920,-0.023
4.925,-0.018
4.930,-0.008
4.935,0.022
4.940,0.011
4.945,0.015
4.950,0.012
4.955,-0.004
4.960,0.027
4.965,0.013
4.970,0.006
4.975,0.013
4.980,-0.004
4.985,0.022
4.990,0.023
4.995,0.031
5.000,0.034
5.005,0.011
5.010,0.042
5.015,0.030
5.020,0.019
5.025,0.032
5.030,0.004
5.035,0.023
5.040,0.039
5.045,0.045
5.050,0.035
5.055,-0.006
5.060,0.001
5.065,0.004
5.070,0.004
5.075,0.011
5.080,0.010
5.085,0.014
5.090,0.004
5.095,0.021
5.100,0.011
5.105,-0.016
5.110,-0.001
5.115,0.002
5.120,0.022
5.125,0.030
5.130,0.004
5.135,-0.003
5.140,-0.006
5.145,0.017
5.150,0.018
5.155,-0.007
5.160,0.005
5.165,-0.012
5.170,-0.003
5.175,0.030
5.180,0.018
5.185,0.006
5.190,-0.027
5.195,-0.024
5.200,0.004
5.205,-0.003
5.210,0.014
5.215,-0.012
5.220,-0.019
5.225,0.026
5.230,0.023
5.235,0.005
5.240,-0.040
5.245,-0.051
5.250,-0.023
5.255,-0.016
5.260,0.016
5.265,0.001
5.270,-0.012
5.275,0.015
5.280,0.020
5.285,0.032
5.290,0.018
5.295,0.004
5.300,0.002
5.305,0.002
5.310,0.029
5.315,0.008
5.320,-0.019
5.325,-0.009
5.330,0.002
5.335,0.014
5.340,-0.004
5.345,-0.008
5.350,-0.005
5.355,-0.008
5.360,0.027
5.365,0.012
5.370,-0.009
5.375,0.003
5.380,-0.012
5.385,0.003
5.390,0.000
5.395,-0.006
5.400,-0.005
5.405,-0.027
5.410,0.009
5.415,0.016
5.420,0.000
5.425,0.005
5.430,-0.020
5.435,-0.013
5.440,0.004
5.445,0.013
5.450,0.001
5.455,-0.024
5.460,-0.006
5.465,-0.006
5.470,-0.008
5.475,0.011
5.480,0.002
5.485,-0.007
5.490,-0.007
5.495,0.011
5.500,0.005
5.505,-0.020
5.510,-0.004
5.515,-0.004
5.520,0.006
5.525,0.023
5.530,0.004
5.535,-0.002
5.540,-0.017
5.545,0.014
5.550,0.035
5.555,-0.011
5.560,-0.014
5.565,-0.028
5.570,-0.003
5.575,0.034
5.580,-0.007
5.585,-0.010
5.590,-0.014
5.595,-0.003
5.600,0.025
5.605,-0.004
5.610,-0.009
5.615,-0.017
5.620,-0.016
5.625,0.021
5.630,0.012
5.635,0.001
5.640,0.000
5.645,-0.002
5.650,-0.004
5.655,-0.009
5.660,0.006
5.665,-0.011
5.670,-0.030
5.675,0.001
5.680,0.034
5.685,0.036
5.690,0.001
5.695,-0.010
5.700,-0.003
5.705,-0.007
5.710,0.015
5.715,0.000
5.720,-0.010
5.725,0.014
5.730,0.011
5.735,0.016
5.740,-0.005
5.745,-0.024
5.750,-0.034
5.755,-0.033
5.760,0.022
5.765,0.020
5.770,-0.003
5.775,0.000
5.780,-0.010
5.785,0.004
5.790,-0.005
5.795,-0.015
5.800,-0.013
5.805,-0.015
5.810,0.025
5.815,0.018
5.820,-0.017
5.825,-0.022
5.830,-0.048
5.835,-0.039
5.840,-0.016
5.845,-0.009
5.850,-0.004
5.855,-0.013
5.860,0.006
5.865,0.009
5.870,-0.005
5.875,-0.007
5.880,-0.024
5.885,-0.023
5.890,-0.014
5.895,0.012
5.900,0.029
5.905,0.031
5.910,0.071
5.915,0.100
5.920,0.135
5.925,0.169
5.930,0.161
5.935,0.140
5.940,0.088
5.945,0.057
5.950,0.018
5.955,-0.063
5.960,-0.085
5.965,-0.098
5.970,-0.088
5.975,-0.057
5.980,-0.078
5.985,-0.078
5.990,-0.078
5.995,-0.079
6.000,-0.060
6.005,-0.057
6.010,-0.039
6.015,-0.059
6.020,-0.075
6.025,-0.039
6.030,-0.034
6.035,-0.032
6.040,-0.038
6.045,-0.042
6.050,-0.033
6.055,-0.037
6.060,-0.014
6.065,-0.028
6.070,-0.040
6.075,-0.009
6.080,-0.006
6.085,-0.001
6.090,-0.025
6.095,-0.036
6.100,-0.028
6.105,-0.033
6.110,-0.007
6.115,-0.012
6.120,-0.016
6.125,0.017
6.130,0.039
6.135,0.044
6.140,-0.001
6.145,-0.018
6.150,-0.008
6.155,-0.011
6.160,0.020
6.165,0.006
6.170,0.001
6.175,0.031
6.180,0.016
6.185,0.031
6.190,0.044
6.195,0.044
6.200,0.040
6.205,0.032
6.210,0.068
6.215,0.059
6.220,0.033
6.225,0.045
6.230,0.033
6.235,0.048
6.240,0.072
6.245,0.081
6.250,0.064
6.255,0.018
6.260,0.034
6.265,0.052
6.270,0.044
6.275,0.041
6.280,0.018
6.285,0.012
6.290,0.004
6.295,0.001
6.300,0.003
6.305,-0.013
6.310,-0.006
6.315,-0.009
6.320,-0.002
6.325,0.007
6.330,-0.031
6.335,-0.044
6.340,-0.037
6.345,-0.019
6.350,-0.014
6.355,-0.040
6.360,-0.027
6.365,-0.044
6.370,-0.049
6.375,-0.011
6.380,-0.027
6.385,-0.039
6.390,-0.046
6.395,-0.034
6.400,-0.003
6.405,-0.016
6.410,-0.012
6.415,-0.020
6.420,-0.015
6.425,0.033
6.430,0.018
6.435,-0.009
6.440,-0.015
6.445,-0.011
6.450,0.000
6.455,-0.013
6.460,-0.008
6.465,-0.015
6.470,-0.027
6.475,-0.007
6.480,0.002
6.485,0.001
6.490,0.038
6.495,0.145
6.500,0.128
6.505,-0.018
6.510,-0.055
6.515,-0.067
6.520,-0.048
6.525,-0.015
6.530,-0.047
6.535,-0.021
6.540,-0.008
6.545,-0.032
6.550,-0.023
6.555,-0.006
6.560,0.021
6.565,0.011
6.570,0.002
6.575,0.011
6.580,0.001
6.585,0.026
6.590,0.033
6.595,0.014
6.600,0.003
6.605,-0.013
6.610,0.018
6.615,0.020
6.620,0.001
6.625,0.010
6.630,-0.009
6.635,0.007
6.640,0.023
6.645,0.016
6.650,0.019
6.655,0.000
6.660,0.000
6.665,0.002
6.670,0.008
6.675,0.030
6.680,0.014
6.685,-0.001
6.690,0.010
6.695,0.026
6.700,0.030
6.705,0.010
6.710,0.010
6.715,0.014
6.720,0.026
6.725,0.038
6.730,0.009
6.735,-0.008
6.740,-0.010
6.745,0.016
6.750,0.025
6.755,-0.005
6.760,0.008
6.765,0.008
6.770,0.012
6.775,0.028
6.780,-0.003
6.785,-0.018
6.790,-0.019
6.795,0.001
6.800,0.021
6.805,0.000
6.810,0.007
6.815,0.001
6.820,0.003
6.825,0.041
6.830,0.020
6.835,-0.007
6.840,-0.018
6.845,-0.020
6.850,0.005
6.855,0.007
6.860,0.020
6.865,0.001
6.870,-0.024
6.875,0.008
6.880,0.010
6.885,0.003
6.890,-0.016
6.895,-0.027
6.900,-0.012
6.905,-0.004
6.910,0.022
6.915,0.007
6.920,-0.014
6.925,-0.002
6.930,-0.009
6.935,0.003
6.940,-0.003
6.945,-0.014
6.950,-0.012
6.955,-0.009
6.960,0.035
6.965,0.022
6.970,-0.017
6.975,-0.018
6.980,-0.027
6.985,0.002
6.990,0.022
6.995,0.007
7.000,-0.004
7.005,-0.022
7.010,0.001
7.015,0.015
7.020,-0.008
7.025,-0.013
7.030,-0.020
7.035,-0.008
7.040,0.004
7.045,0.003
7.050,-0.010
7.055,-0.038
7.060,-0.015
7.065,0.005
7.070,0.006
7.075,0.017
7.080,-0.002
7.085,-0.004
7.090,0.002
7.095,0.005
7.100,0.000
7.105,-0.023
7.110,-0.016
7.115,-0.025
7.120,-0.008
7.125,0.036
7.130,0.032
7.135,0.046
7.140,0.067
7.145,0.122
7.150,0.179
7.155,0.172
7.160,0.178
7.165,0.132
7.170,0.071
7.175,0.047
7.180,-0.016
7.185,-0.058
7.190,-0.084
7.195,-0.086
7.200,-0.062
7.205,-0.074
7.210,-0.066
7.215,-0.080
7.220,-0.091
7.225,-0.055
7.230,-0.054
7.235,-0.047
7.240,-0.045
7.245,-0.055
7.250,-0.035
7.255,-0.022
7.260,-0.016
7.265,-0.041
7.270,-0.064
7.275,-0.039
7.280,-0.030
7.285,-0.035
7.290,-0.046
7.295,-0.047
7.300,-0.033
7.305,-0.017
7.310,0.007
7.315,-0.020
7.320,-0.051
7.325,-0.030
7.330,-0.015
7.335,-0.005
7.340,-0.021
7.345,-0.031
7.350,-0.027
7.355,-0.021
7.360,0.023
7.365,0.012
7.370,-0.008
7.375,0.003
7.380,-0.017
7.385,0.013
7.390,0.029
7.395,0.018
7.400,0.014
7.405,-0.020
7.410,0.012
7.415,0.022
7.420,-0.001
7.425,0.012
7.430,-0.015
7.435,-0.005
7.440,0.020
7.445,0.022
7.450,0.026
7.455,0.003
7.460,0.014
7.465,0.017
7.470,0.004
7.475,0.024
7.480,0.014
7.485,0.009
7.490,0.020
7.495,0.026
7.500,0.020
7.505,-0.002
7.510,0.007
7.515,0.016
7.520,0.025
7.525,0.032
7.530,0.000
7.535,-0.018
7.540,-0.021
7.545,0.007
7.550,0.039
7.555,0.015
7.560,0.008
7.565,-0.013
7.570,-0.016
7.575,0.018
7.580,-0.010
7.585,-0.020
7.590,-0.013
7.595,0.003
7.600,0.029
7.605,0.011
7.610,0.018
7.615,-0.002
7.620,-0.020
7.625,0.027
7.630,0.017
7.635,0.002
7.640,0.002
7.645,0.004
7.650,0.019
7.655,0.006
7.660,0.013
7.665,-0.010
7.670,-0.031
7.675,0.003
7.680,0.013
7.685,0.015
7.690,-0.005
7.695,-0.027
7.700,-0.015
7.705,0.003
7.710,0.031
7.715,0.018
7.720,-0.003
7.725,0.004
7.730,-0.007
7.735,0.002
7.740,-0.013
7.745,-0.021
7.750,0.001
7.755,-0.008
7.760,0.022
7.765,0.016
7.770,-0.015
7.775,0.002
7.780,-0.011
7.785,-0.003
7.790,0.015
7.795,0.001
7.800,-0.009
7.805,-0.020
7.810,0.015
7.815,0.027
7.820,0.007
7.825,0.009
7.830,-0.020
7.835,-0.009
7.840,0.014
7.845,0.004
7.850,0.000
7.855,-0.018
7.860,-0.003
7.865,0.009
7.870,0.007
7.875,0.025
7.880,0.008
7.885,0.000
7.890,0.004
7.895,0.005
7.900,0.009
7.905,-0.008
7.910,0.004
7.915,0.000
7.920,-0.002
7.925,0.033
7.930,0.014
7.935,-0.002
7.940,-0.006
7.945,0.008
7.950,0.024
7.955,-0.007
7.960,-0.005
7.965,-0.013
7.970,-0.010
7.975,0.020
7.980,0.001
7.985,-0.004
7.990,-0.005
7.995,-0.003
8.000,0.017
8.005,0.009
8.010,0.013
8.015,-0.009
8.020,-0.028
8.025,0.009
8.030,0.005
8.035,-0.002
8.040,-0.002
8.045,-0.013
8.050,0.001
8.055,0.005
8.060,0.012
8.065,-0.001
8.070,-0.032
8.075,-0.012
8.080,0.007
8.085,0.008
8.090,-0.006
8.095,-0.021
8.100,-0.015
8.105,-0.010
8.110,0.013
8.115,0.008
8.120,-0.010
8.125,-0.005
8.130,-0.019
8.135,-0.002
8.140,0.013
8.145,0.001
8.150,0.006
8.155,0.004
8.160,0.032
8.165,0.020
8.170,-0.013
8.175,0.004
8.180,-0.010
8.185,0.003
8.190,0.014
8.195,-0.001
8.200,-0.003
8.205,-0.015
8.210,0.021
8.215,0.026
8.220,-0.009
8.225,-0.001
8.230,-0.017
8.235,-0.017
8.240,0.002
8.245,-0.003
8.250,-0.006
8.255,-0.026
8.260,-0.010
8.265,0.010
8.270,-0.003
8.275,0.003
8.280,-0.008
8.285,-0.009
8.290,0.005
8.295,0.009
8.300,0.001
8.305,-0.021
8.310,-0.010
8.315,-0.009
8.320,-0.004
8.325,0.018
8.330,-0.012
8.335,-0.030
8.340,-0.021
8.345,-0.004
8.350,0.017
8.355,0.000
8.360,-0.006
8.365,-0.032
8.370,-0.040
8.375,0.003
8.380,0.006
8.385,0.031
8.390,0.069
8.395,0.110
8.400,0.168
8.405,0.173
8.410,0.189
8.415,0.175
8.420,0.126
8.425,0.116
8.430,0.049
8.435,-0.019
8.440,-0.062
8.445,-0.087
8.450,-0.065
8.455,-0.079
8.460,-0.087
8.465,-0.102
8.470,-0.111
8.475,-0.063
8.480,-0.059
8.485,-0.059
8.490,-0.060
8.495,-0.082
8.500,-0.078
8.505,-0.063
8.510,-0.026
8.515,-0.036
8.520,-0.065
8.525,-0.043
8.530,-0.040
8.535,-0.032
8.540,-0.036
8.545,-0.047
8.550,-0.039
8.555,-0.050
8.560,-0.029
8.565,-0.028
8.570,-0.051
8.575,-0.038
8.580,-0.040
8.585,-0.017
8.590,0.000
8.595,-0.014
8.600,-0.015
8.605,-0.032
8.610,-0.008
8.615,0.002
8.620,-0.021
8.625,-0.003
8.630,-0.019
8.635,-0.003
8.640,0.037
8.645,0.017
8.650,-0.001
8.655,-0.020
8.660,-0.003
8.665,0.020
8.670,0.009
8.675,0.020
8.680,0.002
8.685,-0.007
8.690,0.024
8.695,0.041
8.700,0.037
8.705,0.007
8.710,0.010
8.715,0.014
8.720,0.019
8.725,0.038
8.730,0.007
8.735,0.005
8.740,0.026
8.745,0.033
8.750,0.037
8.755,-0.006
8.760,-0.010
8.765,-0.001
8.770,0.003
8.775,0.037
8.780,0.018
8.785,0.014
8.790,0.019
8.795,0.012
8.800,0.025
8.805,0.002
8.810,0.011
8.815,0.009
8.820,-0.012
8.825,0.036
8.830,0.035
8.835,0.021
8.840,0.022
8.845,-0.002
8.850,0.010
8.855,0.007
8.860,0.005
8.865,-0.011
8.870,-0.034
8.875,0.003
8.880,0.013
8.885,0.014
8.890,0.019
8.895,0.002
8.900,0.001
8.905,0.002
8.910,0.027
8.915,0.018
8.920,-0.004
8.925,0.016
8.930,0.009
8.935,0.013
8.940,0.004
8.945,-0.015
8.950,0.003
8.955,0.005
8.960,0.030
8.965,0.022
8.970,-0.007
8.975,0.008
8.980,-0.010
8.985,0.003
8.990,0.022
8.995,0.006
9.000,0.005
9.005,-0.019
9.010,-0.002
9.015,0.011
9.020,-0.026
9.025,-0.018
9.030,-0.022
9.035,-0.010
9.040,0.016
9.045,0.002
9.050,-0.007
9.055,-0.022
9.060,-0.003
9.065,0.012
9.070,-0.002
9.075,0.001
9.080,-0.019
9.085,-0.011
9.090,0.022
9.095,0.026
9.100,0.021
9.105,-0.008
9.110,-0.023
9.115,-0.023
9.120,-0.012
9.125,0.021
9.130,-0.003
9.135,-0.021
9.140,-0.003
9.145,0.011
9.150,0.018
9.155,-0.011
9.160,-0.018
9.165,-0.024
9.170,-0.020
9.175,0.027
9.180,0.013
9.185,-0.011
9.190,-0.017
9.195,-0.022
9.200,0.005
9.205,-0.002
9.210,0.002
9.215,-0.003
9.220,-0.018
9.225,0.019
9.230,0.010
9.235,-0.009
9.240,-0.043
9.245,-0.076
9.250,-0.036
9.255,-0.019
9.260,-0.004
9.265,-0.009
9.270,-0.034
9.275,0.008
9.280,0.015
9.285,-0.001
9.290,0.006
9.295,-0.008
9.300,-0.008
9.305,0.005
9.310,0.021
9.315,-0.001
9.320,-0.021
9.325,0.008
9.330,0.009
9.335,0.015
9.340,0.016
9.345,-0.005
9.350,-0.004
9.355,-0.015
9.360,0.009
9.365,0.015
9.370,-0.023
9.375,-0.010
9.380,-0.011
9.385,0.009
9.390,0.031
9.395,0.004
9.400,-0.007
9.405,-0.023
9.410,0.004
9.415,0.018
9.420,-0.018
9.425,-0.001
9.430,-0.007
9.435,-0.015
9.440,0.002
9.445,-0.011
9.450,-0.005
9.455,-0.002
9.460,0.007
9.465,0.013
9.470,-0.003
9.475,0.009
9.480,-0.006
9.485,-0.008
9.490,0.019
9.495,0.019
9.500,0.012
9.505,-0.017
9.510,-0.022
9.515,-0.018
9.520,-0.009
9.525,0.019
9.530,-0.012
9.535,-0.027
9.540,-0.012
9.545,-0.009
9.550,0.008
9.555,-0.005
9.560,-0.009
9.565,-0.017
9.570,-0.028
9.575,0.011
9.580,0.006
9.585,-0.004
9.590,0.003
9.595,-0.009
9.600,0.008
9.605,-0.001
9.610,-0.015
9.615,-0.028
9.620,-0.051
9.625,-0.004
9.630,0.026
9.635,0.023
9.640,0.043
9.645,0.071
9.650,0.116
9.655,0.140
9.660,0.151
9.665,0.149
9.670,0.132
9.675,0.123
9.680,0.058
9.685,-0.009
9.690,-0.049
9.695,-0.087
9.700,-0.079
9.705,-0.065
9.710,-0.056
9.715,-0.066
9.720,-0.084
9.725,-0.061
9.730,-0.057
9.735,-0.040
9.740,-0.024
9.745,-0.040
9.750,-0.042
9.755,-0.046
9.760,-0.022
9.765,-0.030
9.770,-0.056
9.775,-0.034
9.780,-0.040
9.785,-0.025
9.790,-0.007
9.795,-0.024
9.800,-0.022
9.805,-0.037
9.810,-0.025
9.815,-0.018
9.820,-0.046
9.825,-0.021
9.830,-0.023
9.835,-0.024
9.840,0.006
9.845,-0.004
9.850,-0.013
9.855,-0.027
9.860,-0.010
9.865,0.022
9.870,0.010
9.875,0.013
9.880,-0.004
9.885,-0.007
9.890,0.024
9.895,0.009
9.900,0.000
9.905,-0.006
9.910,-0.010
9.915,-0.001
9.920,0.008
9.925,0.036
9.930,0.019
9.935,-0.001
9.940,0.008
9.945,0.018
9.950,0.023
9.955,-0.002
9.960,-0.004
9.965,0.002
9.970,0.014
9.975,0.043
9.980,0.012
9.985,-0.016
9.990,-0.009
9.995,0.013
10.000,0.045
10.005,0.023
10.010,0.006
10.015,0.009
10.020,0.010
10.025,0.042
10.030,0.022
10.035,0.000
10.040,0.012
10.045,-0.010
10.050,-0.001
10.055,0.005
10.060,0.002
10.065,0.007
10.070,-0.011
10.075,0.018
10.080,0.030
10.085,0.003
10.090,-0.002
10.095,-0.008
10.100,-0.005
10.105,0.010
10.110,0.033
10.115,0.024
10.120,0.001
10.125,0.016
10.130,0.029
10.135,0.037
10.140,0.022
10.145,-0.015
10.150,-0.005
10.155,0.014
10.160,0.022
10.165,0.012
10.170,-0.002
10.175,0.020
10.180,0.003
10.185,0.000
10.190,0.021
10.195,0.002
10.200,0.004
10.205,-0.003
10.210,0.006
10.215,0.017
10.220,-0.018
10.225,-0.005
10.230,0.008
10.235,0.014
10.240,0.039
10.245,0.018
10.250,-0.004
10.255,-0.018
10.260,-0.008
10.265,0.013
10.270,0.015
10.275,0.030
10.280,0.006
10.285,-0.013
10.290,0.011
10.295,0.020
10.300,0.007
10.305,-0.014
10.310,-0.004
10.315,0.007
10.320,0.006
10.325,0.013
10.330,-0.020
10.335,-0.032
10.340,-0.004
10.345,0.013
10.350,0.029
10.355,0.011
10.360,0.008
10.365,0.006
10.370,-0.004
10.375,0.024
10.380,0.005
10.385,-0.018
10.390,-0.007
10.395,-0.002
10.400,0.014
10.405,0.004
10.410,0.004
10.415,0.018
10.420,0.008
10.425,0.024
10.430,0.007
10.435,-0.008
10.440,0.005
10.445,-0.014
10.450,0.002
10.455,0.021
10.460,0.022
10.465,0.006
10.470,-0.027
10.475,0.003
10.480,0.014
10.485,0.001
10.490,0.008
10.495,-0.009
10.500,-0.011
10.505,0.001
10.510,0.014
10.515,0.011
10.520,-0.006
10.525,-0.001
10.530,-0.009
10.535,0.005
10.540,0.019
10.545,-0.002
10.550,-0.015
10.555,-0.028
10.560,0.003
10.565,0.009
10.570,-0.025
10.575,-0.011
10.580,-0.014
10.585,0.004
10.590,0.030
10.595,0.006
10.600,-0.003
10.605,-0.025
10.610,-0.013
10.615,0.001
10.620,-0.023
10.625,-0.006
10.630,-0.012
10.635,-0.007
10.640,0.021
10.645,-0.001
10.650,-0.012
10.655,-0.018
10.660,-0.013
10.665,0.007
10.670,0.005
10.675,0.022
10.680,0.013
10.685,-0.002
10.690,0.028
10.695,0.023
10.700,0.004
10.705,-0.019
10.710,-0.029
10.715,-0.011
10.720,-0.003
10.725,0.010
10.730,-0.012
10.735,-0.022
10.740,0.003
10.745,0.005
10.750,0.008
10.755,-0.015
10.760,-0.023
10.765,-0.013
10.770,-0.010
10.775,0.022
10.780,0.002
10.785,-0.024
10.790,-0.007
10.795,-0.001
10.800,0.019
10.805,0.017
10.810,0.010
10.815,-0.010
10.820,-0.029
10.825,0.012
10.830,0.012
10.835,-0.012
10.840,-0.015
10.845,-0.041
10.850,-0.033
10.855,-0.017
10.860,0.001
10.865,0.033
10.870,0.052
10.875,0.110
10.880,0.151
10.885,0.165
10.890,0.178
10.895,0.149
10.900,0.120
10.905,0.076
10.910,0.025
10.915,-0.024
10.920,-0.068
10.925,-0.063
10.930,-0.076
10.935,-0.084
10.940,-0.073
10.945,-0.095
10.950,-0.094
10.955,-0.078
10.960,-0.046
10.965,-0.034
10.970,-0.062
10.975,-0.057
10.980,-0.056
10.985,-0.038
10.990,-0.016
10.995,-0.037
11.000,-0.039
11.005,-0.047
11.010,-0.031
11.015,-0.009
11.020,-0.035
11.025,-0.034
11.030,-0.046
11.035,-0.043
11.040,0.003
11.045,-0.006
11.050,-0.011
11.055,-0.010
11.060,-0.003
11.065,0.018
11.070,0.005
11.075,0.003
11.080,-0.032
11.085,-0.049
11.090,-0.004
11.095,0.009
11.100,0.007
11.105,-0.016
11.110,-0.018
11.115,0.012
11.120,0.014
11.125,0.027
11.130,0.005
11.135,-0.020
11.140,0.016
11.145,0.035
11.150,0.037
11.155,0.028
11.160,0.018
11.165,0.007
11.170,0.000
11.175,0.024
11.180,0.007
11.185,-0.004
11.190,0.017
11.195,0.022
11.200,0.056
11.205,0.050
11.210,0.019
11.215,0.026
11.220,0.011
11.225,0.037
11.230,0.040
11.235,0.016
11.240,0.024
11.245,-0.003
11.250,0.005
11.255,0.015
11.260,0.005
11.265,0.012
11.270,-0.010
11.275,0.012
11.280,0.016
11.285,-0.005
11.290,0.010
11.295,-0.012
11.300,-0.016
11.305,0.016
11.310,0.032
11.315,0.016
11.320,-0.018
11.325,-0.007
11.330,0.010
11.335,0.015
11.340,0.007
11.345,-0.016
11.350,-0.017
11.355,-0.006
11.360,0.023
11.365,0.024
11.370,-0.009
11.375,0.000
11.380,-0.007
11.385,-0.011
11.390,0.008
11.395,-0.011
11.400,-0.011
11.405,-0.009
11.410,0.004
11.415,0.022
11.420,0.004
11.425,0.008
11.430,-0.014
11.435,-0.020
11.440,0.023
11.445,0.011
11.450,0.001
11.455,-0.003
11.460,0.005
11.465,0.033
11.470,0.016
11.475,0.013
11.480,-0.004
11.485,-0.022
11.490,0.004
11.495,0.001
11.500,-0.008
11.505,-0.012
11.510,-0.010
11.515,0.000
11.520,-0.001
11.525,0.008
11.530,-0.015
11.535,-0.024
11.540,0.005
11.545,0.013
11.550,0.018
11.555,0.004
11.560,-0.002
11.565,-0.007
11.570,-0.022
11.575,0.011
11.580,0.003
11.585,-0.012
11.590,0.007
11.595,-0.003
11.600,0.016
11.605,0.016
11.610,0.001
11.615,-0.005
11.620,-0.028
11.625,0.000
11.630,0.003
11.635,-0.010
11.640,0.002
11.645,-0.019
11.650,-0.002
11.655,0.011
11.660,-0.003
11.665,-0.007
11.670,-0.028
11.675,-0.002
11.680,0.005
11.685,-0.016
11.690,-0.009
11.695,-0.029
11.700,-0.024
11.705,0.004
11.710,0.018
11.715,0.014
11.720,-0.018
11.725,-0.006
11.730,0.003
11.735,-0.010
11.740,0.000
11.745,-0.021
11.750,-0.027
11.755,-0.010
11.760,0.001
11.765,0.000
11.770,-0.020
11.775,-0.009
11.780,-0.016
11.785,-0.007
11.790,0.020
11.795,-0.009
11.800,-0.017
11.805,-0.017
11.810,0.003
11.815,0.027
11.820,-0.001
11.825,-0.005
11.830,-0.019
11.835,-0.017
11.840,0.023
11.845,0.009
11.850,-0.006
11.855,-0.011
11.860,-0.008
11.865,0.009
11.870,-0.001
11.875,0.002
11.880,-0.005
11.885,-0.019
11.890,0.006
11.895,0.003
11.900,-0.007
11.905,-0.012
11.910,-0.014
11.915,0.001
11.920,0.002
11.925,0.010
11.930,-0.007
11.935,-0.017
11.940,0.010
11.945,0.016
11.950,0.015
11.955,-0.003
11.960,-0.016
11.965,-0.012
11.970,-0.012
11.975,0.015
11.980,0.001
11.985,-0.013
11.990,0.013
11.995,0.001
12.000,0.007
12.005,0.003
12.010,-0.014
12.015,-0.013
12.020,-0.028
12.025,-0.001
12.030,0.004
12.035,-0.011
12.040,0.004
12.045,-0.016
12.050,-0.007
12.055,0.015
12.060,0.003
12.065,-0.007
12.070,-0.026
12.075,0.001
12.080,0.016
12.085,-0.007
12.090,-0.002
12.095,-0.018
12.100,-0.019
12.105,0.003
12.110,0.015
12.115,0.030
12.120,0.041
12.125,0.085
12.130,0.122
12.135,0.144
12.140,0.175
12.145,0.181
12.150,0.176
12.155,0.141
12.160,0.093
12.165,0.034
12.170,-0.051
12.175,-0.082
12.180,-0.094
12.185,-0.081
12.190,-0.047
12.195,-0.074
12.200,-0.087
12.205,-0.085
12.210,-0.068
12.215,-0.050
12.220,-0.077
12.225,-0.058
12.230,-0.058
12.235,-0.063
12.240,-0.021
12.245,-0.037
12.250,-0.036
12.255,-0.028
12.260,-0.041
12.265,-0.025
12.270,-0.037
12.275,-0.027
12.280,-0.030
12.285,-0.044
12.290,-0.015
12.295,-0.024
12.300,-0.028
12.305,-0.029
12.310,-0.038
12.315,-0.029
12.320,-0.028
12.325,-0.012
12.330,-0.027
12.335,-0.048
12.340,-0.027
12.345,-0.019
12.350,-0.003
12.355,-0.004
12.360,-0.023
12.365,-0.014
12.370,0.001
12.375,0.027
12.380,0.009
12.385,-0.027
12.390,-0.018
12.395,-0.003
12.400,0.018
12.405,0.013
12.410,0.006
12.415,0.004
12.420,-0.011
12.425,0.022
12.430,0.020
12.435,-0.003
12.440,0.010
12.445,-0.013
12.450,0.006
12.455,0.038
12.460,0.035
12.465,0.019
12.470,-0.012
12.475,0.006
12.480,0.025
12.485,0.009
12.490,0.062
12.495,0.150
12.500,0.128
12.505,0.017
12.510,-0.035
12.515,-0.043
12.520,-0.038
12.525,-0.015
12.530,-0.024
12.535,-0.007
12.540,0.024
12.545,-0.030
12.550,-0.051
12.555,-0.018
12.560,-0.012
12.565,-0.012
12.570,-0.015
12.575,-0.013
12.580,-0.023
12.585,0.003
12.590,0.039
12.595,0.007
12.600,-0.002
12.605,-0.009
12.610,-0.006
12.615,0.021
12.620,-0.004
12.625,-0.006
12.630,-0.015
12.635,-0.018
12.640,0.028
12.645,0.027
12.650,0.018
12.655,0.003
12.660,-0.002
12.665,0.021
12.670,0.016
12.675,0.020
12.680,0.000
12.685,-0.013
12.690,0.022
12.695,0.013
12.700,-0.004
12.705,-0.007
12.710,-0.005
12.715,0.018
12.720,0.024
12.725,0.034
12.730,0.012
12.735,-0.015
12.740,0.008
12.745,0.010
12.750,0.016
12.755,0.010
12.760,-0.002
12.765,0.011
12.770,0.005
12.775,0.029
12.780,0.018
12.785,-0.016
12.790,0.002
12.795,-0.002
12.800,0.017
12.805,0.014
12.810,-0.018
12.815,-0.011
12.820,-0.016
12.825,0.017
12.830,0.022
12.835,-0.007
12.840,0.009
12.845,-0.017
12.850,-0.011
12.855,0.026
12.860,0.014
12.865,0.009
12.870,-0.013
12.875,0.000
12.880,0.015
12.885,-0.004
12.890,0.013
12.895,0.001
12.900,0.004
12.905,0.038
12.910,0.033
12.915,0.016
12.920,-0.012
12.925,-0.018
12.930,-0.012
12.935,-0.004
12.940,0.015
12.945,-0.007
12.950,-0.013
12.955,0.001
12.960,0.014
12.965,0.013
12.970,-0.027
12.975,-0.022
12.980,-0.017
12.985,-0.013
12.990,0.018
12.995,-0.005
13.000,-0.009
13.005,-0.003
13.010,0.002
13.015,0.022
13.020,-0.003
13.025,-0.009
13.030,-0.018
13.035,-0.019
13.040,0.021
13.045,0.014
13.050,0.002
13.055,-0.011
13.060,-0.027
13.065,0.003
13.070,0.006
13.075,0.009
13.080,-0.010
13.085,-0.039
13.090,0.006
13.095,0.007
13.100,-0.005
13.105,0.000
13.110,-0.021
13.115,-0.012
13.120,-0.007
13.125,-0.002
13.130,-0.016
13.135,-0.036
13.140,-0.008
13.145,0.008
13.150,0.016
13.155,0.008
13.160,-0.015
13.165,-0.021
13.170,-0.024
13.175,0.000
13.180,0.005
13.185,-0.008
13.190,0.015
13.195,0.020
13.200,0.034
13.205,0.031
13.210,-0.002
13.215,-0.011
13.220,-0.010
13.225,0.037
13.230,0.054
13.235,0.026
13.240,0.010
13.245,-0.038
13.250,-0.024
13.255,0.008
13.260,0.000
13.265,-0.004
13.270,-0.019
13.275,0.015
13.280,0.027
13.285,-0.004
13.290,0.010
13.295,-0.009
13.300,-0.026
13.305,-0.011
13.310,-0.010
13.315,-0.013
13.320,-0.037
13.325,-0.028
13.330,-0.017
13.335,-0.019
13.340,-0.011
13.345,-0.038
13.350,-0.041
13.355,-0.020
13.360,-0.007
13.365,0.005
13.370,0.003
13.375,0.046
13.380,0.093
13.385,0.119
13.390,0.173
13.395,0.173
13.400,0.137
13.405,0.084
13.410,0.028
13.415,-0.009
13.420,-0.076
13.425,-0.097
13.430,-0.092
13.435,-0.084
13.440,-0.041
13.445,-0.059
13.450,-0.076
13.455,-0.062
13.460,-0.071
13.465,-0.052
13.470,-0.039
13.475,-0.047
13.480,-0.065
13.485,-0.081
13.490,-0.046
13.495,-0.040
13.500,-0.053
13.505,-0.040
13.510,-0.037
13.515,-0.022
13.520,-0.019
13.525,-0.024
13.530,-0.028
13.535,-0.029
13.540,-0.005
13.545,-0.006
13.550,-0.013
13.555,-0.017
13.560,-0.022
13.565,-0.008
13.570,-0.008
13.575,0.015
13.580,0.006
13.585,-0.033
13.590,-0.013
13.595,-0.004
13.600,0.016
13.605,0.027
13.610,-0.007
13.615,-0.017
13.620,-0.012
13.625,0.022
13.630,0.023
13.635,-0.014
13.640,0.000
13.645,0.000
13.650,0.020
13.655,0.042
13.660,0.015
13.665,0.013
13.670,0.013
13.675,0.035
13.680,0.046
13.685,0.018
13.690,0.029
13.695,0.021
13.700,0.018
13.705,0.041
13.710,0.023
13.715,0.014
13.720,0.017
13.725,0.023
13.730,0.025
13.735,0.014
13.740,0.031
13.745,0.024
13.750,0.014
13.755,0.020
13.760,0.010
13.765,0.009
13.770,-0.005
13.775,0.005
13.780,0.011
13.785,-0.002
13.790,0.022
13.795,0.017
13.800,0.003
13.805,-0.004
13.810,0.001
13.815,0.029
13.820,0.019
13.825,0.013
13.830,-0.003
13.835,-0.002
13.840,0.049
13.845,0.025
13.850,-0.002
13.855,-0.001
13.860,-0.010
13.865,0.018
13.870,0.018
13.875,0.012
13.880,0.009
13.885,-0.014
13.890,0.016
13.895,0.022
13.900,0.006
13.905,0.006
13.910,-0.009
13.915,0.007
13.920,0.028
13.925,0.037
13.930,0.014
13.935,-0.018
13.940,0.003
13.945,0.011
13.950,0.018
13.955,0.025
13.960,0.003
13.965,0.003
13.970,0.004
13.975,0.009
13.980,0.008
13.985,-0.016
13.990,-0.012
13.995,-0.015
14.000,-0.002
14.005,0.019
14.010,0.009
14.015,-0.001
14.020,-0.023
14.025,-0.005
14.030,0.005
14.035,-0.014
14.040,0.014
14.045,0.002
14.050,-0.003
14.055,0.019
14.060,-0.002
14.065,-0.014
14.070,-0.031
14.075,-0.010
14.080,0.020
14.085,0.003
14.090,0.014
14.095,-0.009
14.100,-0.014
14.105,0.023
14.110,0.009
14.115,-0.005
14.120,-0.024
14.125,-0.011
14.130,0.029
14.135,0.027
14.140,0.019
14.145,0.001
14.150,-0.014
14.155,-0.006
14.160,-0.007
14.165,-0.009
14.170,-0.012
14.175,-0.006
14.180,-0.011
14.185,-0.006
14.190,0.026
14.195,0.004
14.200,-0.018
14.205,-0.019
14.210,-0.021
14.215,-0.006
14.220,-0.017
14.225,0.001
14.230,0.008
14.235,-0.007
14.240,0.014
14.245,-0.017
14.250,-0.024
14.255,-0.013
14.260,-0.033
14.265,-0.010
14.270,-0.003
14.275,0.019
14.280,0.018
14.285,-0.022
14.290,0.001
14.295,0.000
14.300,-0.015
14.305,-0.013
14.310,-0.020
14.315,0.010
14.320,0.008
14.325,-0.001
14.330,0.005
14.335,-0.007
14.340,0.006
14.345,-0.014
14.350,-0.014
14.355,0.022
14.360,0.016
14.365,0.006
14.370,-0.005
14.375,0.009
14.380,0.009
14.385,-0.015
14.390,0.002
14.395,-0.006
14.400,0.003
14.405,0.029
14.410,0.002
14.415,-0.007
14.420,0.001
14.425,0.037
14.430,0.051
14.435,0.007
14.440,-0.002
14.445,-0.019
14.450,-0.019
14.455,0.008
14.460,0.004
14.465,0.019
14.470,0.009
14.475,0.016
14.480,0.044
14.485,0.026
14.490,0.024
14.495,-0.011
14.500,-0.029
14.505,0.024
14.510,0.015
14.515,-0.003
14.520,0.004
14.525,0.010
14.530,0.025
14.535,-0.002
14.540,-0.004
14.545,0.009
14.550,0.008
14.555,0.016
14.560,0.002
14.565,-0.001
14.570,-0.005
14.575,-0.013
14.580,-0.023
14.585,-0.021
14.590,0.018
14.595,0.022
14.600,0.033
14.605,0.076
14.610,0.108
14.615,0.153
14.620,0.171
14.625,0.198
14.630,0.194
14.635,0.143
14.640,0.118
14.645,0.036
14.650,-0.034
14.655,-0.058
14.660,-0.087
14.665,-0.068
14.670,-0.079
14.675,-0.095
14.680,-0.085
14.685,-0.091
14.690,-0.051
14.695,-0.039
14.700,-0.060
14.705,-0.060
14.710,-0.075
14.715,-0.061
14.720,-0.044
14.725,-0.030
14.730,-0.030
14.735,-0.054
14.740,-0.024
14.745,-0.012
14.750,-0.022
14.755,-0.020
14.760,-0.049
14.765,-0.050
14.770,-0.028
14.775,-0.006
14.780,-0.010
14.785,-0.039
14.790,-0.028
14.795,-0.026
14.800,-0.018
14.805,-0.001
14.810,-0.020
14.815,-0.023
14.820,-0.021
14.825,-0.006
14.830,-0.004
14.835,-0.018
14.840,0.000
14.845,-0.016
14.850,-0.014
14.855,0.011
14.860,-0.003
14.865,0.005
14.870,-0.004
14.875,0.010
14.880,0.033
14.885,0.006
14.890,0.011
14.895,-0.014
14.900,-0.019
14.905,0.024
14.910,0.025
14.915,0.026
14.920,0.008
14.925,0.001
14.930,0.011
14.935,0.008
14.940,0.025
14.945,0.002
14.950,-0.005
14.955,0.025
14.960,0.017
14.965,0.015
14.970,0.008
14.975,0.007
14.980,0.009
14.985,0.003
14.990,0.025
14.995,0.007
15.000,-0.016
15.005,-0.007
15.010,0.007
15.015,0.038
15.020,0.022
15.025,-0.005
15.030,-0.013
15.035,-0.022
15.040,0.020
15.045,0.013
15.050,-0.017
15.055,-0.006
15.060,-0.014
15.065,0.003
15.070,0.004
15.075,-0.003
15.080,-0.002
15.085,-0.023
15.090,0.003
15.095,0.009
15.100,-0.007
15.105,-0.003
15.110,-0.034
15.115,-0.025
15.120,-0.003
15.125,0.007
15.130,0.008
15.135,-0.022
15.140,-0.001
15.145,0.018
15.150,0.014
15.155,0.006
15.160,-0.024
15.165,-0.028
15.170,-0.012
15.175,0.015
15.180,0.015
15.185,-0.014
15.190,-0.005
15.195,-0.004
15.200,0.003
15.205,0.022
15.210,0.002
15.215,-0.013
15.220,-0.017
15.225,0.007
15.230,0.023
15.235,0.002
15.240,0.006
15.245,-0.006
15.250,-0.002
15.255,0.027
15.260,0.001
15.265,-0.007
15.270,-0.008
15.275,-0.009
15.280,0.007
15.285,-0.004
15.290,0.005
15.295,-0.009
15.300,-0.018
15.305,0.022
15.310,0.014
15.315,0.001
15.320,-0.005
15.325,-0.015
15.330,-0.014
15.335,-0.022
15.340,0.000
15.345,-0.010
15.350,-0.030
15.355,0.011
15.360,0.024
15.365,0.008
15.370,-0.008
15.375,-0.002
15.380,0.013
15.385,-0.002
15.390,0.001
15.395,-0.002
15.400,0.000
15.405,0.007
15.410,-0.002
15.415,0.012
15.420,0.000
15.425,-0.007
15.430,-0.015
15.435,-0.032
15.440,0.003
15.445,-0.005
15.450,-0.012
15.455,-0.001
15.460,-0.016
15.465,0.009
15.470,0.007
15.475,-0.011
15.480,-0.024
15.485,-0.046
15.490,0.003
15.495,0.028
15.500,0.017
15.505,0.024
15.510,-0.002
15.515,0.009
15.520,0.033
15.525,0.019
15.530,0.000
15.535,-0.029
15.540,-0.007
15.545,0.021
15.550,0.021
15.555,0.024
15.560,-0.014
15.565,-0.022
15.570,0.008
15.575,0.012
15.580,-0.002
15.585,-0.029
15.590,-0.014
15.595,-0.004
15.600,-0.005
15.605,0.007
15.610,-0.010
15.615,-0.013
15.620,-0.017
15.625,-0.005
15.630,0.010
15.635,-0.013
15.640,0.002
15.645,0.002
15.650,0.003
15.655,0.026
15.660,-0.003
15.665,-0.024
15.670,-0.014
15.675,0.023
15.680,0.032
15.685,-0.011
15.690,-0.009
15.695,-0.013
15.700,-0.014
15.705,0.012
15.710,-0.008
15.715,0.004
15.720,0.002
15.725,-0.015
15.730,0.007
15.735,-0.008
15.740,-0.006
15.745,-0.016
15.750,-0.031
15.755,0.008
15.760,0.012
15.765,0.009
15.770,0.005
15.775,-0.012
15.780,-0.019
15.785,-0.020
15.790,0.002
15.795,-0.007
15.800,-0.018
15.805,-0.002
15.810,-0.007
15.815,0.000
15.820,-0.006
15.825,-0.020
15.830,-0.026
15.835,-0.038
15.840,-0.009
15.845,-0.006
15.850,-0.008
15.855,0.031
15.860,0.062
15.865,0.123
15.870,0.161
15.875,0.182
15.880,0.194
15.885,0.163
15.890,0.161
15.895,0.102
15.900,0.007
15.905,-0.039
15.910,-0.092
15.915,-0.089
15.920,-0.076
15.925,-0.083
15.930,-0.079
15.935,-0.096
15.940,-0.075
15.945,-0.066
15.950,-0.064
15.955,-0.039
15.960,-0.049
15.965,-0.051
15.970,-0.046
15.975,-0.037
15.980,-0.045
15.985,-0.072
15.990,-0.053
15.995,-0.039
16.000,-0.022
16.005,-0.004
16.010,-0.039
16.015,-0.044
16.020,-0.031
16.025,-0.014
16.030,-0.011
16.035,-0.050
16.040,-0.044
16.045,-0.034
16.050,-0.022
16.055,0.015
16.060,-0.005
16.065,-0.027
16.070,-0.036
16.075,-0.028
16.080,0.002
16.085,-0.014
16.090,-0.012
16.095,-0.021
16.100,-0.016
16.105,0.027
16.110,0.003
16.115,-0.014
16.120,-0.013
16.125,-0.013
16.130,0.007
16.135,0.007
16.140,0.026
16.145,0.023
16.150,0.000
16.155,0.018
16.160,0.019
16.165,0.014
16.170,0.010
16.175,0.001
16.180,0.003
16.185,0.014
16.190,0.044
16.195,0.031
16.200,0.011
16.205,0.024
16.210,0.027
16.215,0.036
16.220,0.029
16.225,0.020
16.230,0.012
16.235,-0.002
16.240,0.028
16.245,0.024
16.250,0.003
16.255,0.007
16.260,-0.011
16.265,0.020
16.270,0.034
16.275,0.017
16.280,0.016
16.285,-0.004
16.290,0.023
16.295,0.031
16.300,0.001
16.305,0.001
16.310,-0.013
16.315,0.011
16.320,0.043
16.325,0.030
16.330,0.014
16.335,-0.011
16.340,0.009
16.345,0.026
16.350,0.005
16.355,0.007
16.360,-0.013
16.365,-0.017
16.370,0.011
16.375,0.018
16.380,0.005
16.385,-0.024
16.390,-0.015
16.395,-0.014
16.400,-0.008
16.405,0.022
16.410,-0.004
16.415,-0.016
16.420,-0.016
16.425,0.000
16.430,0.022
16.435,-0.002
16.440,0.001
16.445,-0.011
16.450,-0.006
16.455,0.032
16.460,0.011
16.465,0.004
16.470,-0.003
16.475,-0.001
16.480,0.018
16.485,-0.001
16.490,0.001
16.495,-0.012
16.500,-0.024
16.505,0.018
16.510,0.027
16.515,0.021
16.520,0.007
16.525,-0.018
16.530,-0.010
16.535,-0.010
16.540,-0.007
16.545,-0.019
16.550,-0.031
16.555,0.008
16.560,0.018
16.565,0.005
16.570,-0.010
16.575,-0.026
16.580,-0.015
16.585,-0.004
16.590,0.024
16.595,0.018
16.600,-0.004
16.605,0.014
16.610,0.004
16.615,0.003
16.620,-0.006
16.625,-0.017
16.630,-0.009
16.635,-0.019
16.640,0.010
16.645,0.001
16.650,-0.022
16.655,-0.006
16.660,-0.022
16.665,-0.015
16.670,-0.005
16.675,-0.011
16.680,-0.011
16.685,-0.027
16.690,0.008
16.695,0.025
16.700,0.007
16.705,0.012
16.710,-0.025
16.715,-0.033
16.720,-0.009
16.725,-0.003
16.730,0.003
16.735,-0.013
16.740,-0.007
16.745,-0.001
16.750,-0.013
16.755,-0.001
16.760,-0.015
16.765,-0.019
16.770,-0.005
16.775,-0.001
16.780,0.007
16.785,-0.002
16.790,0.004
16.795,-0.002
16.800,-0.010
16.805,0.004
16.810,-0.014
16.815,-0.011
16.820,0.001
16.825,0.003
16.830,0.015
16.835,0.003
16.840,0.016
16.845,0.000
16.850,-0.011
16.855,0.032
16.860,0.018
16.865,0.005
16.870,-0.001
16.875,-0.003
16.880,0.025
16.885,-0.003
16.890,-0.006
16.895,0.004
16.900,0.002
16.905,0.026
16.910,0.008
16.915,0.015
16.920,0.022
16.925,-0.004
16.930,0.007
16.935,0.001
16.940,0.007
16.945,0.002
16.950,-0.022
16.955,0.020
16.960,0.028
16.965,0.011
16.970,0.007
16.975,0.005
16.980,0.007
16.985,-0.001
16.990,0.022
16.995,0.017
17.000,-0.011
17.005,-0.001
17.010,0.003
17.015,0.009
17.020,0.005
17.025,-0.012
17.030,-0.016
17.035,-0.013
17.040,0.012
17.045,0.002
17.050,-0.017
17.055,0.003
17.060,-0.008
17.065,0.012
17.070,0.021
17.075,-0.007
17.080,-0.012
17.085,-0.033
17.090,-0.001
17.095,0.035
17.100,0.039
17.105,0.075
17.110,0.085
17.115,0.130
17.120,0.177
17.125,0.171
17.130,0.154
17.135,0.085
17.140,0.054
17.145,0.022
17.150,-0.040
17.155,-0.046
17.160,-0.082
17.165,-0.103
17.170,-0.071
17.175,-0.051
17.180,-0.056
17.185,-0.077
17.190,-0.054
17.195,-0.043
17.200,-0.039
17.205,-0.027
17.210,-0.065
17.215,-0.055
17.220,-0.028
17.225,-0.028
17.230,-0.022
17.235,-0.034
17.240,-0.036
17.245,-0.064
17.250,-0.063
17.255,-0.008
17.260,-0.015
17.265,-0.026
17.270,-0.023
17.275,-0.021
17.280,0.004
17.285,-0.012
17.290,-0.012
17.295,-0.010
17.300,-0.029
17.305,-0.002
17.310,0.001
17.315,-0.005
17.320,0.000
17.325,-0.005
17.330,0.016
17.335,0.024
17.340,0.020
17.345,0.000
17.350,-0.021
17.355,0.013
17.360,0.025
17.365,0.013
17.370,0.006
17.375,-0.003
17.380,0.014
17.385,0.019
17.390,0.034
17.395,0.021
17.400,-0.011
17.405,0.005
17.410,0.006
17.415,0.019
17.420,0.026
17.425,0.002
17.430,-0.003
17.435,-0.003
17.440,0.025
17.445,0.020
17.450,-0.009
17.455,0.000
17.460,-0.010
17.465,0.001
17.470,0.015
17.475,0.006
17.480,0.008
17.485,-0.024
17.490,-0.012
17.495,0.012
17.500,-0.004
17.505,-0.003
17.510,-0.035
17.515,-0.026
17.520,0.020
17.525,0.007
17.530,-0.012
17.535,-0.021
17.540,0.002
17.545,0.017
17.550,-0.003
17.555,0.000
17.560,-0.020
17.565,-0.021
17.570,0.013
17.575,0.018
17.580,0.008
17.585,-0.019
17.590,-0.019
17.595,-0.008
17.600,-0.001
17.605,0.026
17.610,0.004
17.615,-0.007
17.620,-0.001
17.625,0.000
17.630,0.024
17.635,0.014
17.640,0.020
17.645,0.010
17.650,0.001
17.655,0.038
17.660,0.012
17.665,-0.003
17.670,0.001
17.675,0.000
17.680,0.030
17.685,0.014
17.690,0.014
17.695,0.013
17.700,-0.006
17.705,0.026
17.710,0.007
17.715,-0.020
17.720,-0.015
17.725,-0.013
17.730,0.021
17.735,0.016
17.740,0.010
17.745,0.006
17.750,-0.019
17.755,0.010
17.760,0.012
17.765,-0.001
17.770,0.004
17.775,-0.002
17.780,0.012
17.785,0.025
17.790,0.030
17.795,0.006
17.800,-0.021
17.805,-0.012
17.810,-0.017
17.815,-0.004
17.820,0.006
17.825,0.000
17.830,0.010
17.835,0.000
17.840,0.018
17.845,0.014
17.850,-0.015
17.855,0.007
17.860,0.001
17.865,0.004
17.870,0.021
17.875,0.005
17.880,0.006
17.885,-0.006
17.890,0.007
17.895,0.020
17.900,-0.006
17.905,0.009
17.910,0.004
17.915,0.016
17.920,0.041
17.925,0.006
17.930,-0.008
17.935,-0.014
17.940,-0.002
17.945,0.007
17.950,-0.011
17.955,0.003
17.960,0.001
17.965,0.002
17.970,0.021
17.975,0.014
17.980,0.001
17.985,-0.019
17.990,-0.001
17.995,0.014
18.000,0.007
18.005,0.024
18.010,-0.001
18.015,-0.014
18.020,0.008
18.025,0.016
18.030,0.024
18.035,0.003
18.040,-0.005
18.045,0.001
18.050,-0.002
18.055,0.012
18.060,-0.001
18.065,-0.017
18.070,-0.006
18.075,-0.001
18.080,0.015
18.085,0.005
18.090,-0.001
18.095,-0.004
18.100,-0.011
18.105,0.028
18.110,0.015
18.115,-0.005
18.120,0.002
18.125,-0.005
18.130,0.042
18.135,0.061
18.140,0.035
18.145,-0.004
18.150,-0.048
18.155,-0.012
18.160,0.007
18.165,0.001
18.170,0.010
18.175,0.003
18.180,0.014
18.185,0.004
18.190,0.007
18.195,-0.005
18.200,-0.036
18.205,-0.013
18.210,-0.009
18.215,-0.007
18.220,-0.001
18.225,-0.026
18.230,-0.032
18.235,-0.026
18.240,-0.003
18.245,-0.010
18.250,-0.039
18.255,-0.019
18.260,-0.022
18.265,-0.014
18.270,0.005
18.275,-0.006
18.280,0.000
18.285,-0.020
18.290,-0.009
18.295,0.009
18.300,-0.018
18.305,-0.012
18.310,-0.035
18.315,-0.036
18.320,0.008
18.325,-0.001
18.330,-0.022
18.335,-0.041
18.340,-0.025
18.345,0.016
18.350,0.031
18.355,0.059
18.360,0.066
18.365,0.093
18.370,0.168
18.375,0.201
18.380,0.202
18.385,0.159
18.390,0.106
18.395,0.061
18.400,0.000
18.405,-0.036
18.410,-0.077
18.415,-0.097
18.420,-0.083
18.425,-0.074
18.430,-0.062
18.435,-0.072
18.440,-0.070
18.445,-0.081
18.450,-0.087
18.455,-0.042
18.460,-0.063
18.465,-0.082
18.470,-0.063
18.475,-0.059
18.480,-0.042
18.485,-0.055
18.490,0.005
18.495,0.118
18.500,0.063
18.505,-0.044
18.510,-0.094
18.515,-0.105
18.520,-0.059
18.525,-0.063
18.530,-0.068
18.535,-0.029
18.540,-0.021
18.545,-0.048
18.550,-0.053
18.555,-0.003
18.560,-0.008
18.565,-0.027
18.570,-0.006
18.575,-0.015
18.580,-0.008
18.585,0.003
18.590,-0.006
18.595,-0.013
18.600,-0.014
18.605,0.003
18.610,-0.004
18.615,-0.003
18.620,0.011
18.625,-0.007
18.630,-0.005
18.635,0.006
18.640,0.027
18.645,0.022
18.650,-0.014
18.655,-0.002
18.660,0.004
18.665,0.021
18.670,0.050
18.675,0.037
18.680,0.033
18.685,0.018
18.690,0.018
18.695,0.028
18.700,0.016
18.705,0.032
18.710,0.015
18.715,0.012
18.720,0.026
18.725,0.003
18.730,0.004
18.735,-0.002
18.740,0.005
18.745,0.018
18.750,0.010
18.755,0.030
18.760,0.010
18.765,-0.022
18.770,-0.002
18.775,0.005
18.780,0.001
18.785,-0.012
18.790,-0.014
18.795,0.003
18.800,0.008
18.805,0.021
18.810,0.000
18.815,-0.012
18.820,0.009
18.825,0.010
18.830,0.015
18.835,0.008
18.840,0.003
18.845,-0.001
18.850,-0.001
18.855,0.036
18.860,0.023
18.865,-0.005
18.870,0.001
18.875,0.000
18.880,0.015
18.885,-0.006
18.890,-0.015
18.895,-0.005
18.900,-0.014
18.905,0.024
18.910,0.012
18.915,-0.006
18.920,0.018
18.925,0.004
18.930,0.018
18.935,0.016
18.940,-0.003
18.945,-0.002
18.950,-0.015
18.955,0.012
18.960,0.022
18.965,0.012
18.970,0.026
18.975,0.012
18.980,0.006
18.985,0.005
18.990,0.000
18.995,-0.007
19.000,-0.016
19.005,0.006
19.010,0.008
19.015,0.009
19.020,0.012
19.025,-0.008
19.030,-0.015
19.035,-0.023
19.040,0.002
19.045,0.007
19.050,-0.027
19.055,-0.010
19.060,-0.009
19.065,-0.004
19.070,0.023
19.075,0.002
19.080,-0.010
19.085,-0.012
19.090,0.002
19.095,0.019
19.100,-0.003
19.105,-0.002
19.110,-0.011
19.115,-0.011
19.120,0.017
19.125,-0.006
19.130,-0.024
19.135,-0.028
19.140,-0.008
19.145,0.024
19.150,0.007
19.155,0.005
19.160,-0.009
19.165,-0.019
19.170,0.008
19.175,0.004
19.180,-0.007
19.185,-0.017
19.190,-0.023
19.195,-0.005
19.200,0.013
19.205,0.026
19.210,-0.006
19.215,-0.022
19.220,0.004
19.225,0.008
19.230,0.006
19.235,-0.014
19.240,-0.011
19.245,0.004
19.250,-0.001
19.255,0.022
19.260,0.002
19.265,-0.017
19.270,-0.003
19.275,-0.008
19.280,0.006
19.285,-0.004
19.290,-0.007
19.295,0.003
19.300,-0.009
19.305,0.018
19.310,0.004
19.315,-0.019
19.320,0.001
19.325,-0.012
19.330,0.006
19.335,0.013
19.340,-0.005
19.345,-0.006
19.350,-0.022
19.355,0.010
19.360,0.026
19.365,0.000
19.370,0.005
19.375,-0.008
19.380,-0.013
19.385,0.007
19.390,0.016
19.395,0.012
19.400,-0.006
19.405,-0.004
19.410,-0.014
19.415,-0.008
19.420,0.012
19.425,-0.016
19.430,-0.028
19.435,-0.008
19.440,0.022
19.445,0.024
19.450,-0.015
19.455,-0.014
19.460,-0.008
19.465,0.010
19.470,0.026
19.475,-0.005
19.480,-0.012
19.485,-0.012
19.490,0.014
19.495,0.022
19.500,-0.019
19.505,-0.016
19.510,-0.028
19.515,-0.017
19.520,0.023
19.525,-0.005
19.530,-0.020
19.535,-0.023
19.540,-0.016
19.545,0.010
19.550,-0.008
19.555,-0.002
19.560,-0.013
19.565,-0.030
19.570,0.008
19.575,0.011
19.580,0.002
19.585,-0.017
19.590,-0.033
19.595,-0.026
19.600,-0.024
19.605,0.006
19.610,0.016
19.615,0.029
19.620,0.076
19.625,0.108
19.630,0.146
19.635,0.167
19.640,0.179
19.645,0.187
19.650,0.162
19.655,0.127
19.660,0.051
19.665,-0.023
19.670,-0.058
19.675,-0.076
19.680,-0.067
19.685,-0.088
19.690,-0.103
19.695,-0.105
19.700,-0.109
19.705,-0.059
19.710,-0.060
19.715,-0.077
19.720,-0.051
19.725,-0.065
19.730,-0.063
19.735,-0.052
19.740,-0.046
19.745,-0.051
19.750,-0.073
19.755,-0.031
19.760,-0.011
19.765,-0.027
19.770,-0.032
19.775,-0.053
19.780,-0.039
19.785,-0.018
19.790,-0.026
19.795,-0.045
19.800,-0.054
19.805,-0.027
19.810,-0.018
19.815,-0.008
19.820,0.000
19.825,-0.025
19.830,-0.026
19.835,-0.025
19.840,-0.005
19.845,-0.002
19.850,-0.036
19.855,-0.018
19.860,-0.006
19.865,0.001
19.870,0.025
19.875,0.007
19.880,0.007
19.885,0.006
19.890,0.006
19.895,0.019
19.900,-0.004
19.905,0.005
19.910,-0.001
19.915,-0.005
19.920,0.033
19.925,0.023
19.930,0.016
19.935,0.013
19.940,0.020
19.945,0.040
19.950,0.015
19.955,0.015
19.960,0.002
19.965,0.000
19.970,0.047
19.975,0.039
19.980,0.027
19.985,0.015
19.990,0.000
19.995,0.007
20.000,0.003
20.005,0.021
20.010,0.011
20.015,0.001
20.020,0.026
20.025,0.021
20.030,0.017
20.035,-0.004
20.040,-0.022
20.045,-0.008
20.050,0.006
20.055,0.031
20.060,0.008
20.065,-0.015
20.070,0.002
20.075,-0.001
20.080,0.011
20.085,0.005
20.090,-0.008
20.095,-0.005
20.100,-0.014
20.105,0.019
20.110,0.019
20.115,-0.001
20.120,0.007
20.125,-0.016
20.130,-0.004
20.135,0.011
20.140,0.008
20.145,0.009
20.150,-0.011
20.155,0.018
20.160,0.033
20.165,0.000
20.170,0.004
20.175,-0.012
20.180,-0.011
20.185,0.010
20.190,0.008
20.195,0.016
20.200,0.005
20.205,0.013
20.210,0.028
20.215,0.024
20.220,0.020
20.225,-0.012
20.230,-0.018
20.235,0.007
20.240,0.021
20.245,0.010
20.250,-0.004
20.255,0.021
20.260,0.009
20.265,0.002
20.270,0.022
20.275,-0.002
20.280,-0.003
20.285,0.001
20.290,0.017
20.295,0.029
20.300,-0.013
20.305,-0.020
20.310,-0.013
20.315,-0.003
20.320,0.025
20.325,0.000
20.330,-0.011
20.335,0.000
20.340,0.000
20.345,0.014
20.350,0.006
20.355,0.019
20.360,0.010
20.365,-0.015
20.370,0.024
20.375,0.028
20.380,0.003
20.385,-0.015
20.390,-0.015
20.395,0.015
20.400,0.022
20.405,0.027
20.410,0.020
20.415,0.011
20.420,0.020
20.425,0.003
20.430,0.006
20.435,0.005
20.440,-0.005
20.445,-0.002
20.450,-0.008
20.455,0.021
20.460,0.008
20.465,-0.020
20.470,0.000
20.475,-0.005
20.480,0.008
20.485,0.008
20.490,0.001
20.495,0.012
20.500,-0.005
20.505,0.011
20.510,-0.001
20.515,-0.024
20.520,0.007
20.525,0.001
20.530,0.006
20.535,0.022
20.540,0.014
20.545,0.002
20.550,-0.016
20.555,0.010
20.560,0.019
20.565,0.002
20.570,0.006
20.575,-0.022
20.580,-0.031
20.585,-0.017
20.590,-0.014
20.595,0.002
20.600,0.002
20.605,0.008
20.610,0.007
20.615,0.001
20.620,0.005
20.625,-0.034
20.630,-0.047
20.635,-0.015
20.640,0.018
20.645,0.025
20.650,-0.012
20.655,-0.015
20.660,-0.014
20.665,-0.012
20.670,0.010
20.675,-0.005
20.680,-0.007
20.685,-0.009
20.690,-0.006
20.695,0.016
20.700,-0.001
20.705,-0.001
20.710,-0.013
20.715,-0.023
20.720,0.015
20.725,-0.003
20.730,-0.024
20.735,-0.026
20.740,-0.017
20.745,0.008
20.750,-0.011
20.755,-0.009
20.760,-0.017
20.765,-0.037
20.770,-0.002
20.775,0.005
20.780,0.005
20.785,-0.003
20.790,-0.019
20.795,0.000
20.800,0.003
20.805,0.011
20.810,-0.002
20.815,-0.023
20.820,-0.001
20.825,-0.004
20.830,-0.008
20.835,-0.009
20.840,-0.016
20.845,-0.010
20.850,0.000
20.855,0.037
20.860,0.050
20.865,0.060
20.870,0.100
20.875,0.119
20.880,0.162
20.885,0.175
20.890,0.125
20.895,0.074
20.900,0.025
20.905,0.015
20.910,-0.028
20.915,-0.080
20.920,-0.071
20.925,-0.086
20.930,-0.074
20.935,-0.047
20.940,-0.044
20.945,-0.039
20.950,-0.070
20.955,-0.050
20.960,-0.028
20.965,-0.047
20.970,-0.024
20.975,-0.038
20.980,-0.039
20.985,-0.010
20.990,-0.017
20.995,-0.018
21.000,-0.039
21.005,-0.038
21.010,-0.027
21.015,-0.024
21.020,-0.008
21.025,-0.033
21.030,-0.034
21.035,-0.011
21.040,-0.004
21.045,-0.002
21.050,-0.027
21.055,-0.010
21.060,0.005
21.065,0.003
21.070,0.019
21.075,-0.011
21.080,-0.025
21.085,-0.020
21.090,-0.002
21.095,0.021
21.100,0.000
21.105,0.001
21.110,-0.015
21.115,-0.012
21.120,0.038
21.125,0.015
21.130,-0.001
21.135,-0.006
21.140,-0.011
21.145,0.016
21.150,0.004
21.155,0.012
21.160,0.017
21.165,-0.009
21.170,0.010
21.175,0.012
21.180,0.008
21.185,0.013
21.190,0.004
21.195,0.026
21.200,0.034
21.205,0.043
21.210,0.027
21.215,-0.009
21.220,0.017
21.225,0.016
21.230,0.006
21.235,0.004
21.240,-0.029
21.245,-0.046
21.250,-0.034
21.255,0.011
21.260,0.009
21.265,-0.019
21.270,-0.016
21.275,-0.021
21.280,0.009
21.285,0.016
21.290,-0.006
21.295,-0.005
21.300,-0.011
21.305,0.027
21.310,0.029
21.315,-0.003
21.320,0.012
21.325,0.004
21.330,0.019
21.335,0.041
21.340,0.022
21.345,0.006
21.350,-0.012
21.355,0.003
21.360,0.010
21.365,-0.014
21.370,-0.002
21.375,-0.007
21.380,0.002
21.385,0.026
21.390,0.013
21.395,0.013
21.400,0.001
21.405,0.004
21.410,0.004
21.415,-0.008
21.420,0.018
21.425,0.011
21.430,0.006
21.435,0.017
21.440,0.023
21.445,0.027
21.450,0.000
21.455,0.003
21.460,0.004
21.465,0.003
21.470,0.028
21.475,0.002
21.480,-0.004
21.485,0.002
21.490,0.007
21.495,0.033
21.500,0.007
21.505,-0.001
21.510,-0.014
21.515,-0.025
21.520,0.010
21.525,-0.009
21.530,-0.018
21.535,-0.004
21.540,-0.001
21.545,0.023
21.550,0.006
21.555,0.000
21.560,-0.008
21.565,-0.023
21.570,0.016
21.575,0.013
21.580,0.000
21.585,0.002
21.590,-0.005
21.595,0.013
21.600,0.016
21.605,0.015
21.610,-0.004
21.615,-0.023
21.620,-0.001
21.625,0.002
21.630,0.004
21.635,0.007
21.640,-0.010
21.645,-0.013
21.650,-0.006
21.655,0.021
21.660,0.008
21.665,-0.020
21.670,0.001
21.675,0.003
21.680,0.009
21.685,0.004
21.690,-0.011
21.695,0.000
21.700,-0.012
21.705,0.005
21.710,0.000
21.715,-0.028
21.720,-0.005
21.725,-0.017
21.730,-0.002
21.735,0.030
21.740,0.006
21.745,0.001
21.750,-0.022
21.755,-0.005
21.760,0.019
21.765,-0.008
21.770,0.005
21.775,-0.009
21.780,-0.008
21.785,0.024
21.790,0.013
21.795,-0.002
21.800,-0.021
21.805,-0.009
21.810,0.000
21.815,-0.011
21.820,0.001
21.825,-0.011
21.830,-0.012
21.835,0.008
21.840,0.013
21.845,0.013
21.850,-0.002
21.855,-0.001
21.860,0.001
21.865,-0.002
21.870,0.010
21.875,-0.006
21.880,-0.016
21.885,0.001
21.890,0.017
21.895,0.026
21.900,0.003
21.905,-0.002
21.910,-0.012
21.915,-0.022
21.920,0.015
21.925,-0.004
21.930,-0.017
21.935,-0.003
21.940,-0.004
21.945,0.026
21.950,0.013
21.955,-0.007
21.960,-0.017
21.965,-0.025
21.970,0.023
21.975,0.022
21.980,0.007
21.985,0.009
21.990,-0.006
21.995,0.012
22.000,0.007
22.005,0.002
22.010,-0.008
22.015,-0.030
22.020,0.003
22.025,0.016
22.030,0.004
22.035,-0.007
22.040,-0.028
22.045,-0.020
22.050,-0.002
22.055,0.018
22.060,0.004
22.065,-0.020
22.070,-0.002
22.075,-0.005
22.080,0.000
22.085,0.001
22.090,-0.021
22.095,-0.024
22.100,-0.036
22.105,-0.008
22.110,0.011
22.115,0.009
22.120,0.054
22.125,0.073
22.130,0.136
22.135,0.206
22.140,0.195
22.145,0.186
22.150,0.153
22.155,0.131
22.160,0.089
22.165,-0.010
22.170,-0.056
22.175,-0.088
22.180,-0.092
22.185,-0.064
22.190,-0.073
22.195,-0.080
22.200,-0.093
22.205,-0.083
22.210,-0.068
22.215,-0.076
22.220,-0.057
22.225,-0.068
22.230,-0.078
22.235,-0.052
22.240,-0.044
22.245,-0.039
22.250,-0.054
22.255,-0.047
22.260,-0.039
22.265,-0.043
22.270,-0.018
22.275,-0.035
22.280,-0.038
22.285,-0.023
22.290,-0.027
22.295,-0.015
22.300,-0.041
22.305,-0.050
22.310,-0.057
22.315,-0.054
22.320,0.003
22.325,-0.005
22.330,-0.019
22.335,-0.002
22.340,-0.008
22.345,0.013
22.350,0.000
22.355,-0.017
22.360,-0.020
22.365,-0.034
22.370,0.002
22.375,0.010
22.380,-0.005
22.385,0.006
22.390,-0.003
22.395,0.007
22.400,0.019
22.405,0.013
22.410,0.000
22.415,-0.019
22.420,0.015
22.425,0.033
22.430,0.014
22.435,0.009
22.440,0.003
22.445,0.009
22.450,0.008
22.455,0.023
22.460,0.018
22.465,-0.004
22.470,0.012
22.475,0.012
22.480,0.031
22.485,0.039
22.490,0.008
22.495,-0.001
22.500,-0.007
22.505,0.018
22.510,0.022
22.515,0.001
22.520,0.025
22.525,0.007
22.530,0.005
22.535,0.022
22.540,-0.001
22.545,-0.007
22.550,-0.018
22.555,0.001
22.560,0.027
22.565,0.012
22.570,0.018
22.575,-0.002
22.580,-0.010
22.585,0.020
22.590,0.011
22.595,0.004
22.600,-0.005
22.605,-0.002
22.610,0.016
22.615,0.011
22.620,0.022
22.625,0.000
22.630,-0.019
22.635,0.008
22.640,0.011
22.645,0.015
22.650,0.007
22.655,0.002
22.660,0.008
22.665,0.007
22.670,0.018
22.675,-0.002
22.680,-0.015
22.685,0.001
22.690,0.010
22.695,0.022
22.700,0.005
22.705,0.005
22.710,0.001
22.715,-0.015
22.720,0.020
22.725,0.010
22.730,-0.007
22.735,0.006
22.740,0.001
22.745,0.022
22.750,0.016
22.755,0.011
22.760,0.011
22.765,-0.015
22.770,0.019
22.775,0.023
22.780,0.010
22.785,0.019
22.790,-0.003
22.795,0.012
22.800,0.016
22.805,0.010
22.810,0.000
22.815,-0.025
22.820,0.006
22.825,0.010
22.830,0.001
22.835,0.018
22.840,0.002
22.845,-0.006
22.850,-0.001
22.855,0.011
22.860,0.006
22.865,-0.018
22.870,-0.006
22.875,-0.003
22.880,0.007
22.885,0.018
22.890,-0.004
22.895,-0.007
22.900,-0.013
22.905,0.004
22.910,0.015
22.915,-0.008
22.920,0.003
22.925,-0.005
22.930,-0.008
22.935,0.014
22.940,-0.008
22.945,-0.019
22.950,-0.027
22.955,-0.018
22.960,0.004
22.965,-0.011
22.970,-0.007
22.975,-0.016
22.980,-0.009
22.985,0.023
22.990,0.005
22.995,-0.010
23.000,-0.019
23.005,-0.013
23.010,0.004
23.015,0.004
23.020,0.014
23.025,-0.002
23.030,-0.017
23.035,0.004
23.040,0.015
23.045,0.003
23.050,-0.032
23.055,-0.033
23.060,-0.019
23.065,-0.008
23.070,0.022
23.075,0.001
23.080,-0.016
23.085,-0.007
23.090,-0.015
23.095,-0.002
23.100,-0.011
23.105,-0.014
23.110,-0.012
23.115,-0.018
23.120,0.019
23.125,0.001
23.130,-0.027
23.135,-0.015
23.140,-0.015
23.145,-0.001
23.150,-0.006
23.155,-0.010
23.160,-0.001
23.165,-0.004
23.170,0.025
23.175,0.015
23.180,-0.009
23.185,-0.001
23.190,-0.016
23.195,-0.004
23.200,0.013
23.205,0.016
23.210,0.008
23.215,-0.020
23.220,-0.001
23.225,0.010
23.230,-0.001
23.235,0.002
23.240,-0.011
23.245,-0.006
23.250,0.000
23.255,0.011
23.260,0.013
23.265,-0.010
23.270,-0.013
23.275,-0.019
23.280,-0.004
23.285,0.008
23.290,-0.016
23.295,-0.019
23.300,-0.013
23.305,0.020
23.310,0.018
23.315,-0.023
23.320,-0.003
23.325,-0.018
23.330,-0.013
23.335,0.028
23.340,0.006
23.345,-0.002
23.350,-0.013
23.355,-0.001
23.360,0.017
23.365,-0.016
23.370,-0.020
23.375,-0.029
23.380,-0.017
23.385,0.042
23.390,0.061
23.395,0.089
23.400,0.122
23.405,0.152
23.410,0.199
23.415,0.206
23.420,0.191
23.425,0.126
23.430,0.043
23.435,0.010
23.440,-0.034
23.445,-0.074
23.450,-0.097
23.455,-0.108
23.460,-0.091
23.465,-0.081
23.470,-0.063
23.475,-0.067
23.480,-0.078
23.485,-0.069
23.490,-0.074
23.495,-0.067
23.500,-0.070
23.505,-0.062
23.510,-0.060
23.515,-0.060
23.520,-0.010
23.525,-0.021
23.530,-0.053
23.535,-0.047
23.540,-0.057
23.545,-0.035
23.550,-0.033
23.555,-0.029
23.560,-0.014
23.565,-0.026
23.570,0.008
23.575,0.005
23.580,-0.028
23.585,-0.036
23.590,-0.059
23.595,-0.036
23.600,-0.011
23.605,-0.007
23.610,-0.011
23.615,-0.030
23.620,-0.008
23.625,0.005
23.630,0.006
23.635,0.017
23.640,-0.006
23.645,-0.019
23.650,-0.013
23.655,0.010
23.660,0.021
23.665,-0.004
23.670,-0.001
23.675,0.000
23.680,0.010
23.685,0.020
23.690,-0.002
23.695,0.003
23.700,0.018
23.705,0.045
23.710,0.058
23.715,0.024
23.720,0.018
23.725,0.002
23.730,-0.002
23.735,0.032
23.740,0.021
23.745,0.010
23.750,0.003
23.755,0.011
23.760,0.030
23.765,0.015
23.770,0.022
23.775,0.003
23.780,-0.008
23.785,0.025
23.790,0.004
23.795,-0.003
23.800,0.007
23.805,0.005
23.810,0.017
23.815,0.010
23.820,0.020
23.825,0.006
23.830,-0.011
23.835,0.011
23.840,0.015
23.845,0.008
23.850,-0.021
23.855,-0.024
23.860,0.002
23.865,0.016
23.870,0.032
23.875,0.003
23.880,-0.022
23.885,-0.003
23.890,0.006
23.895,0.012
23.900,-0.003
23.905,-0.009
23.910,-0.011
23.915,-0.018
23.920,0.021
23.925,0.017
23.930,0.000
23.935,0.010
23.940,-0.006
23.945,0.005
23.950,0.004
23.955,-0.007
23.960,-0.012
23.965,-0.026
23.970,0.027
23.975,0.043
23.980,0.010
23.985,0.011
23.990,-0.009
23.995,0.007
24.000,0.025
24.005,0.009
24.010,0.003
24.015,-0.015
24.020,0.008
24.025,0.018
24.030,0.002
24.035,0.009
24.040,-0.015
24.045,-0.013
24.050,0.008
24.055,0.016
24.060,0.019
24.065,-0.008
24.070,-0.008
24.075,-0.002
24.080,0.004
24.085,0.013
24.090,-0.010
24.095,-0.011
24.100,0.001
24.105,0.029
24.110,0.027
24.115,-0.007
24.120,0.001
24.125,-0.017
24.130,-0.006
24.135,0.027
24.140,-0.004
24.145,-0.011
24.150,-0.009
24.155,0.010
24.160,0.031
24.165,0.005
24.170,0.003
24.175,-0.010
24.180,-0.014
24.185,0.016
24.190,0.006
24.195,0.004
24.200,0.008
24.205,0.019
24.210,0.031
24.215,0.006
24.220,0.007
24.225,-0.003
24.230,-0.019
24.235,0.013
24.240,0.020
24.245,0.004
24.250,-0.009
24.255,-0.011
24.260,0.008
24.265,0.007
24.270,0.007
24.275,-0.004
24.280,-0.005
24.285,0.014
24.290,0.008
24.295,0.013
24.300,0.004
24.305,-0.005
24.310,-0.010
24.315,-0.013
24.320,0.023
24.325,0.004
24.330,-0.014
24.335,0.000
24.340,-0.014
24.345,0.015
24.350,0.024
24.355,0.015
24.360,0.010
24.365,-0.019
24.370,0.013
24.375,0.020
24.380,-0.003
24.385,0.004
24.390,-0.021
24.395,-0.008
24.400,0.015
24.405,0.011
24.410,0.004
24.415,-0.016
24.420,0.004
24.425,0.014
24.430,-0.006
24.435,-0.007
24.440,-0.014
24.445,-0.011
24.450,-0.004
24.455,0.015
24.460,0.021
24.465,-0.005
24.470,-0.004
24.475,-0.011
24.480,0.003
24.485,0.031
24.490,0.058
24.495,0.142
24.500,0.099
24.505,-0.025
24.510,-0.073
24.515,-0.103
24.520,-0.047
24.525,-0.035
24.530,-0.058
24.535,-0.001
24.540,-0.015
24.545,-0.050
24.550,-0.040
24.555,-0.009
24.560,0.002
24.565,-0.023
24.570,-0.014
24.575,-0.030
24.580,-0.037
24.585,0.007
24.590,-0.010
24.595,-0.028
24.600,-0.025
24.605,-0.015
24.610,0.003
24.615,-0.005
24.620,0.012
24.625,0.003
24.630,-0.007
24.635,0.047
24.640,0.088
24.645,0.126
24.650,0.154
24.655,0.157
24.660,0.155
24.665,0.118
24.670,0.068
24.675,0.005
24.680,-0.059
24.685,-0.080
24.690,-0.074
24.695,-0.055
24.700,-0.053
24.705,-0.064
24.710,-0.069
24.715,-0.064
24.720,-0.027
24.725,-0.047
24.730,-0.075
24.735,-0.053
24.740,-0.051
24.745,-0.016
24.750,-0.002
24.755,-0.020
24.760,-0.017
24.765,-0.038
24.770,-0.020
24.775,-0.018
24.780,-0.036
24.785,-0.013
24.790,-0.030
24.795,-0.024
24.800,0.001
24.805,-0.006
24.810,-0.018
24.815,-0.043
24.820,-0.023
24.825,-0.002
24.830,-0.010
24.835,0.001
24.840,-0.013
24.845,-0.015
24.850,0.004
24.855,0.010
24.860,0.002
24.865,-0.025
24.870,-0.016
24.875,-0.005
24.880,0.003
24.885,0.018
24.890,-0.005
24.895,-0.006
24.900,0.001
24.905,0.011
24.910,0.014
24.915,-0.009
24.920,0.010
24.925,0.005
24.930,0.006
24.935,0.040
24.940,0.017
24.945,0.008
24.950,-0.004
24.955,-0.005
24.960,0.023
24.965,0.017
24.970,0.025
24.975,0.007
24.980,-0.001
24.985,0.037
24.990,0.026
24.995,0.014
25.000,0.006
25.005,0.003
25.010,0.023
25.015,0.014
25.020,0.023
25.025,0.006
25.030,-0.024
25.035,0.005
25.040,0.006
25.045,0.000
25.050,-0.004
25.055,-0.015
25.060,0.003
25.065,0.011
25.070,0.016
25.075,-0.007
25.080,-0.017
25.085,0.008
25.090,0.004
25.095,0.013
25.100,0.012
25.105,-0.002
25.110,0.000
25.115,-0.005
25.120,0.027
25.125,0.019
25.130,-0.013
25.135,-0.002
25.140,-0.009
25.145,0.012
25.150,0.022
25.155,0.013
25.160,0.015
25.165,-0.005
25.170,0.016
25.175,0.013
25.180,-0.006
25.185,0.003
25.190,-0.024
25.195,-0.010
25.200,0.022
25.205,0.016
25.210,0.009
25.215,-0.012
25.220,0.006
25.225,0.026
25.230,0.009
25.235,0.011
25.240,-0.020
25.245,-0.042
25.250,-0.019
25.255,0.007
25.260,0.021
25.265,0.004
25.270,0.008
25.275,0.019
25.280,0.024
25.285,0.039
25.290,0.014
25.295,0.002
25.300,0.010
25.305,0.027
25.310,0.028
25.315,-0.013
25.320,-0.010
25.325,-0.012
25.330,-0.007
25.335,0.025
25.340,0.000
25.345,-0.004
25.350,0.002
25.355,0.002
25.360,0.015
25.365,-0.006
25.370,0.004
25.375,-0.002
25.380,-0.013
25.385,0.032
25.390,0.022
25.395,0.012
25.400,0.013
25.405,-0.003
25.410,0.009
25.415,0.001
25.420,0.003
25.425,-0.002
25.430,-0.009
25.435,0.019
25.440,0.018
25.445,0.008
25.450,-0.009
25.455,-0.017
25.460,-0.007
25.465,-0.008
25.470,0.014
25.475,0.005
25.480,-0.019
25.485,-0.001
25.490,-0.004
25.495,0.007
25.500,0.014
25.505,0.000
25.510,-0.013
25.515,-0.021
25.520,0.015
25.525,0.009
25.530,-0.016
25.535,-0.002
25.540,-0.012
25.545,0.010
25.550,0.015
25.555,-0.003
25.560,0.006
25.565,-0.013
25.570,0.005
25.575,0.010
25.580,-0.012
25.585,0.004
25.590,-0.023
25.595,-0.018
25.600,0.010
25.605,-0.005
25.610,-0.012
25.615,-0.030
25.620,-0.007
25.625,0.017
25.630,-0.004
25.635,0.002
25.640,-0.017
25.645,-0.022
25.650,0.007
25.655,0.019
25.660,0.016
25.665,-0.013
25.670,-0.015
25.675,-0.014
25.680,0.000
25.685,0.026
25.690,-0.002
25.695,-0.009
25.700,0.004
25.705,0.017
25.710,0.026
25.715,-0.003
25.720,0.001
25.725,-0.004
25.730,-0.009
25.735,0.022
25.740,0.000
25.745,-0.010
25.750,-0.010
25.755,-0.009
25.760,0.020
25.765,-0.004
25.770,-0.010
25.775,-0.013
25.780,-0.020
25.785,0.026
25.790,0.015
25.795,-0.002
25.800,-0.001
25.805,-0.016
25.810,0.004
25.815,0.000
25.820,0.005
25.825,-0.002
25.830,-0.030
25.835,0.004
25.840,0.008
25.845,-0.002
25.850,-0.005
25.855,-0.028
25.860,-0.023
25.865,-0.017
25.870,-0.003
25.875,0.002
25.880,0.013
25.885,0.066
25.890,0.099
25.895,0.139
25.900,0.160
25.905,0.153
25.910,0.161
25.915,0.153
25.920,0.148
25.925,0.077
25.930,-0.022
25.935,-0.051
25.940,-0.069
25.945,-0.060
25.950,-0.059
25.955,-0.080
25.960,-0.091
25.965,-0.099
25.970,-0.059
25.975,-0.053
25.980,-0.074
25.985,-0.060
25.990,-0.087
25.995,-0.077
26.000,-0.048
26.005,-0.062
26.010,-0.054
26.015,-0.060
26.020,-0.039
26.025,-0.021
26.030,-0.042
26.035,-0.032
26.040,-0.043
26.045,-0.043
26.050,-0.014
26.055,-0.016
26.060,-0.022
26.065,-0.031
26.070,-0.017
26.075,-0.009
26.080,-0.014
26.085,0.006
26.090,-0.028
26.095,-0.049
26.100,-0.026
26.105,-0.004
26.110,0.007
26.115,-0.024
26.120,-0.021
26.125,-0.010
26.130,0.008
26.135,0.052
26.140,0.024
26.145,0.002
26.150,-0.001
26.155,0.006
26.160,0.032
26.165,-0.003
26.170,-0.006
26.175,-0.002
26.180,-0.011
26.185,0.038
26.190,0.027
26.195,0.005
26.200,0.013
26.205,-0.001
26.210,0.020
26.215,0.020
26.220,0.006
26.225,0.004
26.230,-0.007
26.235,0.020
26.240,0.028
26.245,0.019
26.250,0.014
26.255,-0.008
26.260,0.002
26.265,0.013
26.270,0.022
26.275,0.011
26.280,-0.006
26.285,0.019
26.290,0.012
26.295,0.005
26.300,0.006
26.305,-0.007
26.310,-0.003
26.315,-0.007
26.320,0.017
26.325,0.009
26.330,-0.024
26.335,0.001
26.340,0.003
26.345,0.015
26.350,0.018
26.355,-0.015
26.360,-0.007
26.365,-0.010
26.370,0.009
26.375,0.014
26.380,-0.012
26.385,0.009
26.390,-0.007
26.395,-0.011
26.400,0.017
26.405,0.005
26.410,-0.003
26.415,-0.026
26.420,-0.013
26.425,0.016
26.430,0.003
26.435,0.011
26.440,-0.004
26.445,-0.010
26.450,0.015
26.455,0.007
26.460,-0.007
26.465,-0.020
26.470,-0.011
26.475,0.011
26.480,0.021
26.485,0.031
26.490,0.003
26.495,-0.021
26.500,-0.009
26.505,0.008
26.510,0.011
26.515,-0.006
26.520,0.001
26.525,-0.001
26.530,-0.003
26.535,0.022
26.540,0.000
26.545,-0.014
26.550,-0.010
26.555,-0.002
26.560,0.031
26.565,0.019
26.570,0.009
26.575,-0.002
26.580,-0.012
26.585,0.030
26.590,0.013
26.595,-0.011
26.600,0.000
26.605,0.000
26.610,0.024
26.615,0.004
26.620,0.000
26.625,0.001
26.630,-0.019
26.635,0.016
26.640,0.013
26.645,-0.010
26.650,-0.009
26.655,-0.022
26.660,-0.009
26.665,0.010
26.670,0.025
26.675,0.011
26.680,-0.009
26.685,0.009
26.690,0.000
26.695,-0.002
26.700,0.000
26.705,-0.019
26.710,-0.010
26.715,-0.003
26.720,0.017
26.725,0.010
26.730,-0.019
26.735,0.005
26.740,0.005
26.745,0.012
26.750,0.011
26.755,-0.027
26.760,-0.023
26.765,-0.023
26.770,-0.001
26.775,0.011
26.780,-0.015
26.785,-0.001
26.790,-0.016
26.795,-0.013
26.800,0.016
26.805,-0.003
26.810,-0.012
26.815,-0.026
26.820,-0.008
26.825,0.012
26.830,-0.010
26.835,-0.004
26.840,-0.018
26.845,-0.017
26.850,0.013
26.855,0.012
26.860,0.005
26.865,-0.021
26.870,-0.019
26.875,-0.006
26.880,-0.014
26.885,0.007
26.890,-0.010
26.895,-0.022
26.900,-0.005
26.905,-0.009
26.910,-0.002
26.915,-0.010
26.920,0.000
26.925,-0.002
26.930,-0.013
26.935,0.018
26.940,-0.010
26.945,-0.034
26.950,-0.022
26.955,-0.009
26.960,0.031
26.965,0.013
26.970,-0.006
26.975,-0.009
26.980,-0.022
26.985,0.015
26.990,0.013
26.995,-0.002
27.000,0.016
27.005,0.011
27.010,0.013
27.015,0.005
27.020,0.002
27.025,0.001
27.030,-0.022
27.035,0.003
27.040,0.003
27.045,-0.017
27.050,-0.009
27.055,-0.022
27.060,-0.015
27.065,0.005
27.070,0.017
27.075,0.002
27.080,-0.024
27.085,-0.007
27.090,-0.002
27.095,0.001
27.100,0.000
27.105,-0.032
27.110,-0.030
27.115,-0.012
27.120,0.015
27.125,0.011
27.130,-0.015
27.135,0.010
27.140,0.015
27.145,0.054
27.150,0.102
27.155,0.106
27.160,0.139
27.165,0.161
27.170,0.193
27.175,0.180
27.180,0.092
27.185,0.038
27.190,-0.031
27.195,-0.074
27.200,-0.059
27.205,-0.076
27.210,-0.089
27.215,-0.104
27.220,-0.091
27.225,-0.056
27.230,-0.058
27.235,-0.051
27.240,-0.066
27.245,-0.064
27.250,-0.034
27.255,-0.054
27.260,-0.060
27.265,-0.063
27.270,-0.060
27.275,-0.035
27.280,-0.029
27.285,-0.020
27.290,-0.048
27.295,-0.067
27.300,-0.030
27.305,-0.002
27.310,0.001
27.315,-0.025
27.320,-0.028
27.325,-0.021
27.330,-0.026
27.335,-0.005
27.340,-0.013
27.345,-0.021
27.350,-0.017
27.355,-0.014
27.360,0.009
27.365,-0.006
27.370,-0.009
27.375,-0.013
27.380,-0.029
27.385,0.014
27.390,0.008
27.395,-0.006
27.400,0.023
27.405,0.014
27.410,0.030
27.415,0.037
27.420,0.023
27.425,0.006
27.430,-0.013
27.435,0.013
27.440,0.015
27.445,0.009
27.450,0.021
27.455,0.013
27.460,0.031
27.465,0.035
27.470,0.030
27.475,0.021
27.480,-0.002
27.485,0.027
27.490,0.044
27.495,0.034
27.500,0.025
27.505,0.004
27.510,0.006
27.515,0.008
27.520,0.022
27.525,0.025
27.530,0.007
27.535,0.022
27.540,0.009
27.545,0.004
27.550,0.023
27.555,0.001
27.560,0.002
27.565,0.002
27.570,0.008
27.575,0.024
27.580,0.003
27.585,0.010
27.590,-0.008
27.595,-0.008
27.600,0.036
27.605,0.022
27.610,0.000
27.615,-0.014
27.620,0.011
27.625,0.038
27.630,0.008
27.635,0.004
27.640,-0.006
27.645,-0.001
27.650,0.030
27.655,0.023
27.660,0.011
27.665,-0.011
27.670,-0.009
27.675,0.003
27.680,0.003
27.685,0.022
27.690,0.002
27.695,-0.018
27.700,-0.001
27.705,0.015
27.710,0.023
27.715,0.008
27.720,0.007
27.725,0.004
27.730,-0.003
27.735,0.012
27.740,-0.016
27.745,-0.030
27.750,-0.006
27.755,0.005
27.760,0.027
27.765,0.020
27.770,0.001
27.775,-0.009
27.780,-0.010
27.785,0.029
27.790,0.014
27.795,-0.010
27.800,0.005
27.805,-0.005
27.810,0.015
27.815,0.000
27.820,-0.027
27.825,-0.027
27.830,-0.037
27.835,0.004
27.840,0.011
27.845,-0.009
27.850,0.002
27.855,-0.009
27.860,-0.006
27.865,0.007
27.870,0.003
27.875,-0.018
27.880,-0.030
27.885,-0.010
27.890,-0.001
27.895,0.009
27.900,0.019
27.905,0.016
27.910,0.024
27.915,0.027
27.920,0.057
27.925,0.068
27.930,0.039
27.935,0.041
27.940,0.028
27.945,0.035
27.950,0.056
27.955,0.028
27.960,0.017
27.965,0.015
27.970,0.042
27.975,0.045
27.980,-0.005
27.985,-0.003
27.990,-0.014
27.995,-0.006
28.000,0.029
28.005,-0.007
28.010,-0.028
28.015,-0.034
28.020,-0.022
28.025,0.003
28.030,-0.023
28.035,-0.023
28.040,-0.031
28.045,-0.050
28.050,-0.028
28.055,-0.036
28.060,-0.036
28.065,-0.037
28.070,-0.053
28.075,-0.035
28.080,-0.025
28.085,-0.011
28.090,-0.030
28.095,-0.055
28.100,-0.029
28.105,-0.015
28.110,-0.019
28.115,-0.046
28.120,-0.042
28.125,-0.021
28.130,-0.018
28.135,0.004
28.140,-0.027
28.145,-0.044
28.150,-0.022
28.155,-0.024
28.160,-0.006
28.165,-0.005
28.170,-0.003
28.175,-0.016
28.180,-0.036
28.185,0.008
28.190,0.000
28.195,-0.013
28.200,-0.003
28.205,-0.024
28.210,0.002
28.215,0.006
28.220,-0.006
28.225,-0.005
28.230,-0.028
28.235,0.001
28.240,0.017
28.245,0.001
28.250,0.007
28.255,-0.015
28.260,-0.007
28.265,0.009
28.270,0.004
28.275,0.001
28.280,-0.013
28.285,0.009
28.290,0.011
28.295,-0.003
28.300,0.015
28.305,0.011
28.310,0.006
28.315,0.007
28.320,0.020
28.325,0.021
28.330,-0.010
28.335,-0.018
28.340,-0.035
28.345,-0.019
28.350,0.017
28.355,-0.010
28.360,-0.013
28.365,-0.009
28.370,0.005
28.375,0.035
28.380,0.034
28.385,0.073
28.390,0.104
28.395,0.135
28.400,0.196
28.405,0.190
28.410,0.149
28.415,0.087
28.420,0.043
28.425,0.017
28.430,-0.053
28.435,-0.072
28.440,-0.073
28.445,-0.069
28.450,-0.031
28.455,-0.048
28.460,-0.063
28.465,-0.071
28.470,-0.079
28.475,-0.053
28.480,-0.043
28.485,-0.027
28.490,-0.032
28.495,-0.046
28.500,-0.023
28.505,-0.028
28.510,-0.037
28.515,-0.025
28.520,-0.016
28.525,-0.013
28.530,-0.006
28.535,0.010
28.540,-0.015
28.545,-0.032
28.550,-0.024
28.555,-0.022
28.560,0.009
28.565,0.012
28.570,0.010
28.575,0.019
28.580,0.002
28.585,0.023
28.590,0.007
28.595,-0.021
28.600,0.012
28.605,0.007
28.610,0.015
28.615,0.024
28.620,0.013
28.625,0.006
28.630,-0.027
28.635,-0.014
28.640,0.009
28.645,0.010
28.650,0.023
28.655,0.014
28.660,0.019
28.665,0.032
28.670,0.030
28.675,0.011
28.680,-0.019
28.685,0.001
28.690,0.012
28.695,0.015
28.700,0.038
28.705,0.029
28.710,0.026
28.715,0.035
28.720,0.048
28.725,0.027
28.730,-0.014
28.735,-0.004
28.740,-0.001
28.745,0.014
28.750,0.037
28.755,0.007
28.760,0.000
28.765,-0.004
28.770,0.001
28.775,0.015
28.780,-0.011
28.785,-0.002
28.790,-0.008
28.795,-0.003
28.800,0.036
28.805,0.014
28.810,-0.007
28.815,-0.020
28.820,-0.010
28.825,0.020
28.830,0.011
28.835,0.018
28.840,0.012
28.845,0.004
28.850,0.028
28.855,0.006
28.860,-0.013
28.865,-0.011
28.870,-0.008
28.875,0.004
28.880,0.003
28.885,0.019
28.890,0.004
28.895,-0.011
28.900,0.016
28.905,0.014
28.910,0.013
28.915,0.006
28.920,0.001
28.925,0.014
28.930,0.016
28.935,0.035
28.940,0.013
28.945,-0.012
28.950,0.002
28.955,0.002
28.960,0.019
28.965,0.011
28.970,-0.001
28.975,-0.009
28.980,-0.018
28.985,0.033
28.990,0.031
28.995,0.013
29.000,0.030
29.005,0.015
29.010,0.025
29.015,0.013
29.020,-0.005
29.025,-0.001
29.030,-0.022
29.035,0.004
29.040,0.018
29.045,-0.009
29.050,-0.015
29.055,-0.026
29.060,0.000
29.065,0.027
29.070,0.018
29.075,0.001
29.080,-0.016
29.085,0.021
29.090,0.049
29.095,0.041
29.100,0.049
29.105,0.038
29.110,0.051
29.115,0.066
29.120,0.054
29.125,0.045
29.130,0.020
29.135,0.023
29.140,0.015
29.145,0.017
29.150,0.040
29.155,0.017
29.160,0.008
29.165,0.005
29.170,0.014
29.175,0.005
29.180,-0.036
29.185,-0.015
29.190,-0.015
29.195,-0.019
29.200,0.009
29.205,-0.022
29.210,-0.038
29.215,-0.036
29.220,-0.036
29.225,-0.025
29.230,-0.042
29.235,-0.035
29.240,-0.051
29.245,-0.090
29.250,-0.072
29.255,-0.058
29.260,-0.047
29.265,-0.045
29.270,-0.062
29.275,-0.036
29.280,-0.014
29.285,-0.010
29.290,-0.034
29.295,-0.051
29.300,-0.020
29.305,-0.014
29.310,-0.020
29.315,-0.040
29.320,-0.048
29.325,-0.039
29.330,-0.043
29.335,-0.010
29.340,-0.007
29.345,-0.022
29.350,-0.012
29.355,-0.020
29.360,0.001
29.365,0.000
29.370,-0.030
29.375,-0.043
29.380,-0.042
29.385,0.005
29.390,0.000
29.395,-0.028
29.400,-0.010
29.405,-0.022
29.410,-0.012
29.415,-0.007
29.420,-0.018
29.425,-0.020
29.430,-0.039
29.435,0.004
29.440,0.029
29.445,0.005
29.450,0.009
29.455,-0.015
29.460,-0.004
29.465,0.027
29.470,0.012
29.475,0.002
29.480,-0.008
29.485,0.008
29.490,0.019
29.495,0.013
29.500,0.017
29.505,-0.006
29.510,-0.015
29.515,0.001
29.520,0.020
29.525,0.021
29.530,-0.008
29.535,-0.008
29.540,-0.016
29.545,-0.011
29.550,0.021
29.555,0.005
29.560,0.002
29.565,0.006
29.570,0.005
29.575,0.010
29.580,-0.011
29.585,0.001
29.590,0.000
29.595,-0.007
29.600,0.020
29.605,0.000
29.610,-0.015
29.615,-0.021
29.620,-0.017
29.625,0.008
29.630,-0.004
29.635,0.013
29.640,0.031
29.645,0.046
29.650,0.112
29.655,0.138
29.660,0.157
29.665,0.180
29.670,0.185
29.675,0.186
29.680,0.133
29.685,0.072
29.690,-0.003
29.695,-0.071
29.700,-0.076
29.705,-0.083
29.710,-0.078
29.715,-0.072
29.720,-0.083
29.725,-0.076
29.730,-0.065
29.735,-0.041
29.740,-0.053
29.745,-0.080
29.750,-0.063
29.755,-0.053
29.760,-0.039
29.765,-0.039
29.770,-0.053
29.775,-0.053
29.780,-0.051
29.785,-0.020
29.790,-0.021
29.795,-0.039
29.800,-0.018
29.805,-0.029
29.810,-0.019
29.815,-0.013
29.820,-0.042
29.825,-0.045
29.830,-0.051
29.835,-0.019
29.840,-0.003
29.845,-0.025
29.850,-0.015
29.855,-0.034
29.860,-0.027
29.865,-0.007
29.870,-0.021
29.875,-0.025
29.880,-0.036
29.885,-0.006
29.890,0.018
29.895,0.005
29.900,0.012
29.905,-0.014
29.910,-0.020
29.915,0.006
29.920,0.023
29.925,0.027
29.930,0.002
29.935,0.007
29.940,0.012
29.945,0.020
29.950,0.039
29.955,0.009
29.960,0.010
29.965,0.020
29.970,0.020
29.975,0.025
29.980,0.002
29.985,0.022
29.990,0.023
29.995,0.007
30.000,0.045
30.005,0.037
30.010,0.025
30.015,0.019
30.020,0.009
30.025,0.033
30.030,0.027
30.035,0.023
30.040,0.013
30.045,0.001
30.050,0.030
30.055,0.018
30.060,0.002
30.065,-0.007
30.070,-0.021
30.075,0.005
30.080,0.013
30.085,0.017
30.090,-0.002
30.095,-0.030
30.100,0.000
30.105,0.008
30.110,0.003
30.115,0.006
30.120,0.010
30.125,0.016
30.130,0.019
30.135,0.057
30.140,0.038
30.145,-0.001
30.150,0.014
30.155,0.005
30.160,0.030
30.165,0.037
30.170,-0.002
30.175,-0.006
30.180,-0.013
30.185,0.019
30.190,0.019
30.195,-0.020
30.200,-0.001
30.205,-0.003
30.210,0.009
30.215,0.016
30.220,-0.009
30.225,-0.011
30.230,-0.025
30.235,0.002
30.240,0.021
30.245,0.001
30.250,0.014
30.255,-0.003
30.260,0.000
30.265,0.022
30.270,0.003
30.275,-0.005
30.280,-0.015
30.285,0.006
30.290,0.027
30.295,0.011
30.300,0.006
30.305,-0.023
30.310,-0.038
30.315,-0.011
30.320,0.005
30.325,0.007
30.330,-0.016
30.335,-0.017
30.340,-0.009
30.345,0.004
30.350,0.029
30.355,-0.005
30.360,-0.019
30.365,-0.011
30.370,-0.003
30.375,0.011
30.380,-0.016
30.385,-0.016
30.390,-0.024
30.395,-0.027
30.400,0.020
30.405,0.008
30.410,-0.012
30.415,-0.016
30.420,-0.016
30.425,0.020
30.430,0.006
30.435,0.004
30.440,-0.002
30.445,-0.026
30.450,0.007
30.455,-0.011
30.460,-0.028
30.465,-0.018
30.470,-0.024
30.475,0.001
30.480,0.005
30.485,0.011
30.490,0.072
30.495,0.141
30.500,0.097
30.505,-0.033
30.510,-0.079
30.515,-0.062
30.520,-0.039
30.525,-0.038
30.530,-0.052
30.535,-0.008
30.540,-0.009
30.545,-0.053
30.550,-0.024
30.555,-0.007
30.560,-0.001
30.565,0.010
30.570,-0.004
30.575,-0.018
30.580,-0.032
30.585,0.002
30.590,0.008
30.595,-0.030
30.600,-0.014
30.605,-0.016
30.610,-0.008
30.615,0.009
30.620,-0.010
30.625,-0.006
30.630,-0.008
30.635,0.017
30.640,0.026
30.645,-0.008
30.650,0.000
30.655,-0.019
30.660,-0.018
30.665,0.018
30.670,0.010
30.675,0.004
30.680,-0.010
30.685,0.012
30.690,0.031
30.695,0.008
30.700,0.014
30.705,-0.016
30.710,-0.026
30.715,0.007
30.720,0.012
30.725,0.013
30.730,-0.013
30.735,-0.017
30.740,-0.005
30.745,-0.007
30.750,0.009
30.755,-0.011
30.760,-0.013
30.765,0.007
30.770,0.013
30.775,0.028
30.780,0.002
30.785,-0.003
30.790,-0.013
30.795,-0.017
30.800,0.032
30.805,0.022
30.810,0.001
30.815,-0.001
30.820,-0.010
30.825,0.007
30.830,-0.008
30.835,-0.012
30.840,0.000
30.845,-0.011
30.850,0.017
30.855,0.010
30.860,-0.011
30.865,-0.005
30.870,-0.022
30.875,-0.012
30.880,-0.004
30.885,-0.012
30.890,-0.027
30.895,-0.033
30.900,0.018
30.905,0.052
30.910,0.081
30.915,0.116
30.920,0.137
30.925,0.173
30.930,0.187
30.935,0.188
30.940,0.135
30.945,0.045
30.950,0.004
30.955,-0.042
30.960,-0.065
30.965,-0.074
30.970,-0.101
30.975,-0.091
30.980,-0.083
30.985,-0.056
30.990,-0.052
30.995,-0.079
31.000,-0.060
31.005,-0.065
31.010,-0.051
31.015,-0.029
31.020,-0.046
31.025,-0.046
31.030,-0.057
31.035,-0.029
31.040,-0.005
31.045,-0.033
31.050,-0.030
31.055,-0.055
31.060,-0.050
31.065,-0.004
31.070,-0.007
31.075,-0.008
31.080,-0.018
31.085,-0.010
31.090,0.005
31.095,-0.017
31.100,-0.016
31.105,-0.035
31.110,-0.045
31.115,-0.012
31.120,-0.001
31.125,0.006
31.130,-0.007
31.135,-0.018
31.140,-0.022
31.145,-0.020
31.150,0.008
31.155,-0.009
31.160,-0.024
31.165,-0.006
31.170,0.013
31.175,0.032
31.180,0.004
31.185,-0.006
31.190,-0.008
31.195,-0.008
31.200,0.041
31.205,0.027
31.210,0.006
31.215,0.015
31.220,0.011
31.225,0.039
31.230,0.014
31.235,0.000
31.240,0.008
31.245,-0.006
31.250,0.029
31.255,0.021
31.260,0.009
31.265,0.027
31.270,0.007
31.275,0.019
31.280,0.025
31.285,0.025
31.290,0.019
31.295,-0.009
31.300,0.018
31.305,0.019
31.310,0.001
31.315,0.009
31.320,0.001
31.325,0.007
31.330,0.011
31.335,0.022
31.340,0.027
31.345,0.006
31.350,0.016
31.355,0.005
31.360,-0.002
31.365,0.017
31.370,-0.003
31.375,-0.011
31.380,-0.011
31.385,0.015
31.390,0.025
31.395,0.001
31.400,0.017
31.405,0.005
31.410,0.001
31.415,0.017
31.420,-0.007
31.425,-0.009
31.430,-0.013
31.435,0.004
31.440,0.026
31.445,0.008
31.450,0.010
31.455,-0.014
31.460,-0.017
31.465,0.013
31.470,0.006
31.475,0.011
31.480,0.006
31.485,0.012
31.490,0.008
31.495,-0.028
31.500,-0.022
31.505,-0.027
31.510,-0.022
31.515,0.017
31.520,0.025
31.525,0.023
31.530,0.003
31.535,-0.014
31.540,-0.002
31.545,0.006
31.550,0.012
31.555,-0.013
31.560,-0.025
31.565,0.004
31.570,0.026
31.575,0.030
31.580,0.000
31.585,-0.007
31.590,-0.010
31.595,-0.014
31.600,0.021
31.605,0.006
31.610,-0.006
31.615,0.012
31.620,0.005
31.625,0.018
31.630,0.009
31.635,0.000
31.640,-0.007
31.645,-0.016
31.650,0.016
31.655,0.001
31.660,-0.021
31.665,-0.015
31.670,-0.023
31.675,0.002
31.680,0.014
31.685,0.009
31.690,-0.003
31.695,-0.033
31.700,-0.004
31.705,0.017
31.710,0.007
31.715,0.013
31.720,-0.005
31.725,-0.007
31.730,0.002
31.735,0.011
31.740,0.010
31.745,-0.006
31.750,0.013
31.755,0.007
31.760,0.008
31.765,0.019
31.770,-0.004
31.775,-0.009
31.780,-0.014
31.785,0.013
31.790,0.026
31.795,0.001
31.800,0.015
31.805,0.006
31.810,0.012
31.815,0.021
31.820,-0.010
31.825,-0.001
31.830,0.000
31.835,0.026
31.840,0.049
31.845,0.023
31.850,0.052
31.855,0.051
31.860,0.051
31.865,0.085
31.870,0.058
31.875,0.059
31.880,0.054
31.885,0.036
31.890,0.054
31.895,0.047
31.900,0.054
31.905,0.035
31.910,0.005
31.915,0.031
31.920,0.037
31.925,0.026
31.930,0.010
31.935,0.005
31.940,0.006
31.945,-0.001
31.950,0.010
31.955,-0.018
31.960,-0.032
31.965,-0.013
31.970,-0.018
31.975,-0.017
31.980,-0.032
31.985,-0.031
31.990,-0.032
31.995,-0.051
32.000,-0.018
32.005,-0.021
32.010,-0.043
32.015,-0.045
32.020,-0.056
32.025,-0.038
32.030,-0.046
32.035,-0.056
32.040,-0.056
32.045,-0.067
32.050,-0.036
32.055,-0.029
32.060,-0.039
32.065,-0.025
32.070,-0.047
32.075,-0.046
32.080,-0.035
32.085,-0.033
32.090,-0.036
32.095,-0.059
32.100,-0.038
32.105,-0.025
32.110,-0.024
32.115,-0.026
32.120,-0.054
32.125,-0.040
32.130,-0.002
32.135,0.035
32.140,0.058
32.145,0.056
32.150,0.090
32.155,0.124
32.160,0.147
32.165,0.158
32.170,0.116
32.175,0.060
32.180,0.010
32.185,-0.016
32.190,-0.055
32.195,-0.097
32.200,-0.078
32.205,-0.076
32.210,-0.069
32.215,-0.057
32.220,-0.081
32.225,-0.075
32.230,-0.079
32.235,-0.066
32.240,-0.042
32.245,-0.054
32.250,-0.031
32.255,-0.044
32.260,-0.053
32.265,-0.004
32.270,0.003
32.275,-0.007
32.280,-0.038
32.285,-0.039
32.290,-0.007
32.295,-0.010
32.300,0.007
32.305,-0.007
32.310,-0.016
32.315,0.017
32.320,0.004
32.325,-0.006
32.330,-0.013
32.335,-0.017
32.340,-0.003
32.345,0.012
32.350,0.038
32.355,0.027
32.360,0.014
32.365,0.024
32.370,0.024
32.375,0.030
32.380,0.016
32.385,0.014
32.390,0.023
32.395,0.022
32.400,0.054
32.405,0.041
32.410,0.011
32.415,0.024
32.420,0.017
32.425,0.034
32.430,0.032
32.435,0.016
32.440,0.018
32.445,0.006
32.450,0.038
32.455,0.031
32.460,0.011
32.465,0.034
32.470,0.018
32.475,0.022
32.480,0.041
32.485,0.042
32.490,0.028
32.495,0.000
32.500,0.026
32.505,0.042
32.510,0.036
32.515,0.042
32.520,0.017
32.525,0.014
32.530,0.033
32.535,0.046
32.540,0.035
32.545,-0.002
32.550,-0.002
32.555,0.005
32.560,0.017
32.565,0.025
32.570,-0.009
32.575,-0.024
32.580,-0.005
32.585,0.030
32.590,0.034
32.595,0.002
32.600,0.010
32.605,0.007
32.610,0.013
32.615,0.030
32.620,-0.001
32.625,-0.003
32.630,-0.008
32.635,-0.002
32.640,0.021
32.645,-0.002
32.650,0.007
32.655,0.002
32.660,-0.005
32.665,0.039
32.670,0.027
32.675,0.002
32.680,-0.008
32.685,-0.008
32.690,0.008
32.695,-0.003
32.700,-0.001
32.705,-0.009
32.710,-0.011
32.715,0.016
32.720,0.010
32.725,0.002
32.730,-0.016
32.735,-0.025
32.740,-0.007
32.745,0.003
32.750,0.022
32.755,0.005
32.760,-0.014
32.765,0.010
32.770,0.008
32.775,0.000
32.780,-0.013
32.785,-0.014
32.790,-0.010
32.795,-0.009
32.800,0.030
32.805,0.025
32.810,0.003
32.815,-0.003
32.820,-0.022
32.825,-0.003
32.830,-0.006
32.835,-0.016
32.840,-0.012
32.845,-0.017
32.850,0.020
32.855,0.017
32.860,-0.009
32.865,-0.006
32.870,-0.023
32.875,-0.009
32.880,0.000
32.885,0.005
32.890,0.009
32.895,-0.022
32.900,-0.006
32.905,0.006
32.910,-0.013
32.915,-0.015
32.920,-0.030
32.925,-0.005
32.930,0.027
32.935,0.013
32.940,-0.006
32.945,-0.029
32.950,-0.019
32.955,-0.019
32.960,-0.017
32.965,0.004
32.970,-0.013
32.975,-0.023
32.980,-0.019
32.985,0.009
32.990,0.015
32.995,-0.022
33.000,-0.020
33.005,-0.029
33.010,-0.024
33.015,0.004
33.020,-0.021
33.025,-0.031
33.030,-0.025
33.035,-0.002
33.040,0.013
33.045,-0.012
33.050,-0.007
33.055,-0.015
33.060,-0.010
33.065,0.020
33.070,0.000
33.075,-0.011
33.080,-0.019
33.085,-0.018
33.090,0.003
33.095,-0.004
33.100,0.005
33.105,-0.012
33.110,-0.026
33.115,0.017
33.120,0.019
33.125,0.002
33.130,-0.016
33.135,-0.031
33.140,-0.018
33.145,-0.007
33.150,0.011
33.155,0.000
33.160,-0.012
33.165,0.008
33.170,0.009
33.175,0.015
33.180,0.007
33.185,0.003
33.190,0.001
33.195,-0.019
33.200,0.005
33.205,0.000
33.210,-0.017
33.215,0.002
33.220,0.003
33.225,0.015
33.230,-0.003
33.235,-0.024
33.240,-0.024
33.245,-0.049
33.250,-0.027
33.255,-0.013
33.260,-0.017
33.265,0.009
33.270,-0.010
33.275,-0.008
33.280,0.023
33.285,0.020
33.290,0.004
33.295,-0.018
33.300,-0.002
33.305,0.011
33.310,0.005
33.315,0.009
33.320,-0.008
33.325,-0.010
33.330,0.002
33.335,0.011
33.340,-0.003
33.345,-0.024
33.350,-0.003
33.355,-0.001
33.360,-0.002
33.365,0.001
33.370,-0.037
33.375,-0.049
33.380,-0.029
33.385,0.013
33.390,0.052
33.395,0.058
33.400,0.103
33.405,0.140
33.410,0.172
33.415,0.209
33.420,0.181
33.425,0.148
33.430,0.098
33.435,0.038
33.440,-0.004
33.445,-0.052
33.450,-0.056
33.455,-0.087
33.460,-0.108
33.465,-0.069
33.470,-0.084
33.475,-0.085
33.480,-0.070
33.485,-0.063
33.490,-0.038
33.495,-0.062
33.500,-0.061
33.505,-0.059
33.510,-0.078
33.515,-0.056
33.520,-0.060
33.525,-0.055
33.530,-0.049
33.535,-0.056
33.540,-0.040
33.545,-0.031
33.550,-0.008
33.555,-0.017
33.560,-0.041
33.565,-0.021
33.570,-0.023
33.575,-0.020
33.580,-0.008
33.585,-0.011
33.590,-0.018
33.595,-0.033
33.600,-0.017
33.605,-0.017
33.610,-0.024
33.615,-0.010
33.620,-0.022
33.625,-0.008
33.630,-0.006
33.635,-0.016
33.640,-0.015
33.645,-0.026
33.650,0.008
33.655,0.005
33.660,-0.029
33.665,-0.014
33.670,-0.022
33.675,0.000
33.680,0.031
33.685,0.025
33.690,0.019
33.695,-0.011
33.700,0.002
33.705,0.024
33.710,0.018
33.715,0.026
33.720,-0.001
33.725,-0.003
33.730,0.026
33.735,0.030
33.740,0.025
33.745,-0.006
33.750,-0.006
33.755,0.007
33.760,0.007
33.765,0.021
33.770,0.002
33.775,-0.008
33.780,-0.001
33.785,0.015
33.790,0.021
33.795,-0.005
33.800,0.008
33.805,0.007
33.810,0.011
33.815,0.041
33.820,0.007
33.825,-0.009
33.830,-0.007
33.835,-0.003
33.840,0.022
33.845,0.015
33.850,0.023
33.855,0.002
33.860,-0.014
33.865,0.014
33.870,-0.001
33.875,-0.010
33.880,-0.009
33.885,-0.004
33.890,0.016
33.895,0.005
33.900,0.012
33.905,0.003
33.910,-0.020
33.915,0.008
33.920,0.008
33.925,0.005
33.930,0.005
33.935,-0.008
33.940,0.011
33.945,0.020
33.950,0.029
33.955,0.012
33.960,-0.007
33.965,0.015
33.970,0.011
33.975,0.013
33.980,0.012
33.985,0.009
33.990,0.016
33.995,0.000
34.000,0.024
34.005,0.012
34.010,-0.026
34.015,-0.011
34.020,-0.007
34.025,0.018
34.030,0.018
34.035,0.001
34.040,0.012
34.045,0.005
34.050,0.033
34.055,0.021
34.060,-0.010
34.065,0.013
34.070,-0.006
34.075,0.000
34.080,0.015
34.085,-0.003
34.090,-0.006
34.095,-0.032
34.100,-0.011
34.105,0.017
34.110,0.002
34.115,0.016
34.120,-0.002
34.125,0.001
34.130,0.042
34.135,0.053
34.140,0.038
34.145,0.000
34.150,-0.005
34.155,-0.013
34.160,-0.010
34.165,0.015
34.170,-0.015
34.175,-0.018
34.180,0.000
34.185,0.016
34.190,0.029
34.195,-0.009
34.200,-0.014
34.205,-0.008
34.210,-0.006
34.215,0.009
34.220,-0.016
34.225,-0.013
34.230,0.002
34.235,0.008
34.240,0.020
34.245,-0.004
34.250,-0.008
34.255,-0.026
34.260,-0.033
34.265,0.021
34.270,0.016
34.275,-0.003
34.280,-0.010
34.285,-0.016
34.290,0.004
34.295,-0.015
34.300,-0.012
34.305,-0.015
34.310,-0.031
34.315,0.006
34.320,0.002
34.325,-0.017
34.330,-0.015
34.335,-0.027
34.340,-0.014
34.345,-0.005
34.350,0.009
34.355,-0.002
34.360,-0.021
34.365,0.002
34.370,0.004
34.375,0.003
34.380,-0.003
34.385,-0.017
34.390,-0.018
34.395,-0.012
34.400,0.015
34.405,0.006
34.410,-0.012
34.415,-0.005
34.420,-0.013
34.425,0.006
34.430,0.010
34.435,-0.007
34.440,-0.005
34.445,-0.018
34.450,0.006
34.455,0.010
34.460,-0.024
34.465,-0.012
34.470,-0.019
34.475,-0.005
34.480,0.019
34.485,0.001
34.490,0.010
34.495,-0.003
34.500,0.009
34.505,0.029
34.510,0.010
34.515,0.015
34.520,-0.014
34.525,-0.023
34.530,0.003
34.535,0.002
34.540,-0.001
34.545,-0.021
34.550,-0.013
34.555,-0.004
34.560,-0.009
34.565,0.010
34.570,-0.007
34.575,-0.023
34.580,-0.012
34.585,0.007
34.590,0.020
34.595,-0.008
34.600,-0.005
34.605,-0.006
34.610,-0.012
34.615,0.012
34.620,-0.018
34.625,-0.024
34.630,-0.015
34.635,-0.013
34.640,0.027
34.645,0.038
34.650,0.065
34.655,0.073
34.660,0.090
34.665,0.181
34.670,0.196
34.675,0.170
34.680,0.143
34.685,0.091
34.690,0.052
34.695,-0.022
34.700,-0.068
34.705,-0.082
34.710,-0.096
34.715,-0.057
34.720,-0.054
34.725,-0.053
34.730,-0.047
34.735,-0.074
34.740,-0.064
34.745,-0.055
34.750,-0.036
34.755,-0.034
34.760,-0.054
34.765,-0.026
34.770,-0.020
34.775,-0.014
34.780,-0.016
34.785,-0.044
34.790,-0.032
34.795,-0.023
34.800,-0.006
34.805,-0.016
34.810,-0.042
34.815,-0.017
34.820,-0.023
34.825,-0.018
34.830,-0.001
34.835,-0.019
34.840,-0.024
34.845,-0.029
34.850,-0.002
34.855,0.004
34.860,-0.021
34.865,-0.011
34.870,-0.028
34.875,-0.019
34.880,0.006
34.885,0.003
34.890,0.009
34.895,-0.018
34.900,-0.002
34.905,0.036
34.910,0.018
34.915,0.009
34.920,-0.016
34.925,-0.015
34.930,0.029
34.935,0.025
34.940,0.011
34.945,0.000
34.950,0.005
34.955,0.011
34.960,0.009
34.965,0.032
34.970,0.008
34.975,-0.016
34.980,0.006
34.985,0.031
34.990,0.036
34.995,0.004
35.000,0.011
35.005,0.020
35.010,0.017
35.015,0.044
35.020,0.018
35.025,0.006
35.030,0.007
35.035,-0.003
35.040,0.020
35.045,-0.003
35.050,-0.008
35.055,-0.011
35.060,-0.024
35.065,0.026
35.070,0.017
35.075,0.002
35.080,0.012
35.085,-0.016
35.090,-0.006
35.095,0.000
35.100,-0.003
35.105,-0.003
35.110,-0.020
35.115,0.010
35.120,0.021
35.125,0.010
35.130,0.006
35.135,-0.020
35.140,-0.004
35.145,0.019
35.150,0.027
35.155,0.015
35.160,-0.004
35.165,0.022
35.170,0.022
35.175,0.001
35.180,-0.005
35.185,-0.006
35.190,0.007
35.195,0.002
35.200,0.019
35.205,0.015
35.210,-0.007
35.215,0.013
35.220,0.003
35.225,0.014
35.230,0.024
35.235,-0.007
35.240,0.000
35.245,-0.004
35.250,0.010
35.255,0.019
35.260,-0.002
35.265,0.014
35.270,-0.005
35.275,-0.015
35.280,0.011
35.285,0.001
35.290,-0.005
35.295,-0.010
35.300,0.016
35.305,0.034
35.310,0.008
35.315,0.012
35.320,-0.010
35.325,-0.024
35.330,-0.008
35.335,-0.007
35.340,0.002
35.345,-0.007
35.350,-0.001
35.355,0.009
35.360,-0.003
35.365,0.009
35.370,-0.015
35.375,-0.037
35.380,-0.012
35.385,0.008
35.390,0.017
35.395,0.000
35.400,0.000
35.405,0.002
35.410,0.000
35.415,0.015
35.420,-0.013
35.425,-0.027
35.430,-0.006
35.435,0.005
35.440,0.019
35.445,0.008
35.450,0.000
35.455,-0.018
35.460,-0.023
35.465,0.031
35.470,0.023
35.475,0.000
35.480,-0.002
35.485,-0.013
35.490,0.021
35.495,0.011
35.500,-0.008
35.505,-0.007
35.510,-0.021
35.515,0.012
35.520,0.018
35.525,0.008
35.530,0.011
35.535,-0.008
35.540,0.003
35.545,0.009
35.550,0.011
35.555,-0.006
35.560,-0.030
35.565,0.012
35.570,0.028
35.575,0.020
35.580,0.018
35.585,0.003
35.590,0.004
35.595,-0.002
35.600,0.006
35.605,0.003
35.610,-0.019
35.615,-0.013
35.620,-0.014
35.625,0.015
35.630,0.039
35.635,0.006
35.640,-0.007
35.645,-0.017
35.650,0.005
35.655,0.012
35.660,-0.017
35.665,0.006
35.670,0.000
35.675,-0.007
35.680,0.018
35.685,0.009
35.690,0.008
35.695,0.000
35.700,0.013
35.705,0.032
35.710,0.007
35.715,0.004
35.720,-0.024
35.725,-0.039
35.730,0.001
35.735,0.004
35.740,-0.002
35.745,-0.008
35.750,-0.004
35.755,0.010
35.760,0.006
35.765,0.010
35.770,-0.014
35.775,-0.022
35.780,0.002
35.785,0.010
35.790,0.020
35.795,-0.003
35.800,-0.014
35.805,-0.005
35.810,0.000
35.815,0.024
35.820,0.006
35.825,0.000
35.830,0.014
35.835,0.009
35.840,0.015
35.845,-0.008
35.850,-0.005
35.855,-0.007
35.860,-0.023
35.865,0.015
35.870,0.005
35.875,-0.004
35.880,0.031
35.885,0.051
35.890,0.099
35.895,0.129
35.900,0.157
35.905,0.187
35.910,0.177
35.915,0.175
35.920,0.114
35.925,0.030
35.930,-0.019
35.935,-0.075
35.940,-0.070
35.945,-0.053
35.950,-0.060
35.955,-0.068
35.960,-0.090
35.965,-0.071
35.970,-0.057
35.975,-0.070
35.980,-0.061
35.985,-0.056
35.990,-0.056
35.995,-0.052
36.000,-0.033
36.005,-0.035
36.010,-0.055
36.015,-0.039
36.020,-0.043
36.025,-0.031
36.030,-0.016
36.035,-0.036
36.040,-0.034
36.045,-0.036
36.050,-0.012
36.055,-0.005
36.060,-0.033
36.065,-0.015
36.070,-0.024
36.075,-0.011
36.080,0.035
36.085,0.031
36.090,0.031
36.095,0.017
36.100,0.022
36.105,0.038
36.110,0.022
36.115,0.039
36.120,0.020
36.125,0.011
36.130,0.049
36.135,0.043
36.140,0.035
36.145,0.010
36.150,0.005
36.155,0.029
36.160,0.022
36.165,0.029
36.170,0.006
36.175,-0.016
36.180,0.008
36.185,0.008
36.190,-0.008
36.195,-0.029
36.200,-0.030
36.205,-0.021
36.210,-0.011
36.215,0.011
36.220,-0.005
36.225,-0.016
36.230,-0.007
36.235,-0.010
36.240,0.001
36.245,-0.024
36.250,-0.036
36.255,-0.022
36.260,-0.024
36.265,0.011
36.270,-0.003
36.275,-0.025
36.280,-0.015
36.285,-0.035
36.290,-0.018
36.295,-0.014
36.300,-0.027
36.305,-0.038
36.310,-0.051
36.315,-0.007
36.320,-0.001
36.325,-0.026
36.330,-0.016
36.335,-0.031
36.340,-0.031
36.345,-0.007
36.350,0.008
36.355,0.001
36.360,-0.025
36.365,-0.016
36.370,-0.013
36.375,-0.135
36.380,-0.710
36.385,-1.409
36.390,-1.650
36.395,-1.734
36.400,-1.472
36.405,-1.181
36.410,-1.260
36.415,-1.155
36.420,-1.024
36.425,-1.066
36.430,-0.924
36.435,-0.712
36.440,-0.739
36.445,-0.798
36.450,-0.657
36.455,-0.477
36.460,-0.403
36.465,-0.398
36.470,-0.451
36.475,-0.411
36.480,-0.249
36.485,-0.162
36.490,-0.129
36.495,-0.156
36.500,-0.172
36.505,-0.028
36.510,0.081
36.515,0.063
36.520,-0.035
36.525,-0.041
36.530,0.128
36.535,0.225
36.540,0.195
36.545,0.130
36.550,0.153
36.555,0.300
36.560,0.404
36.565,0.370
36.570,0.245
36.575,0.231
36.580,0.375
36.585,0.457
36.590,0.413
36.595,0.324
36.600,0.337
36.605,0.477
36.610,0.566
36.615,0.520
36.620,0.388
36.625,0.362
36.630,0.472
36.635,0.541
36.640,0.505
36.645,0.407
36.650,0.408
36.655,0.531
36.660,0.599
36.665,0.552
36.670,0.420
36.675,0.385
36.680,0.494
36.685,0.549
36.690,0.506
36.695,0.411
36.700,0.402
36.705,0.515
36.710,0.569
36.715,0.517
36.720,0.391
36.725,0.358
36.730,0.463
36.735,0.498
36.740,0.448
36.745,0.377
36.750,0.368
36.755,0.462
36.760,0.507
36.765,0.453
36.770,0.330
36.775,0.287
36.780,0.381
36.785,0.414
36.790,0.359
36.795,0.290
36.800,0.296
36.805,0.387
36.810,0.414
36.815,0.353
36.820,0.231
36.825,0.201
36.830,0.302
36.835,0.323
36.840,0.281
36.845,0.219
36.850,0.203
36.855,0.284
36.860,0.299
36.865,0.249
36.870,0.162
36.875,0.129
36.880,0.212
36.885,0.236
36.890,0.206
36.895,0.141
36.900,0.115
36.905,0.196
36.910,0.205
36.915,0.159
36.920,0.087
36.925,0.047
36.930,0.122
36.935,0.148
36.940,0.133
36.945,0.084
36.950,0.042
36.955,0.104
36.960,0.110
36.965,0.089
36.970,0.043
36.975,-0.019
36.980,0.038
36.985,0.080
36.990,0.077
36.995,0.035
37.000,-0.014
37.005,0.034
37.010,0.043
37.015,0.022
37.020,-0.025
37.025,-0.075
37.030,-0.022
37.035,0.008
37.040,0.009
37.045,-0.020
37.050,-0.053
37.055,-0.021
37.060,-0.027
37.065,-0.021
37.070,-0.052
37.075,-0.101
37.080,-0.056
37.085,-0.042
37.090,-0.031
37.095,-0.051
37.100,-0.096
37.105,-0.063
37.110,-0.071
37.115,-0.073
37.120,-0.080
37.125,-0.104
37.130,-0.057
37.135,-0.042
37.140,-0.021
37.145,-0.003
37.150,-0.013
37.155,0.008
37.160,0.000
37.165,0.000
37.170,-0.018
37.175,-0.081
37.180,-0.107
37.185,-0.131
37.190,-0.135
37.195,-0.136
37.200,-0.154
37.205,-0.134
37.210,-0.142
37.215,-0.143
37.220,-0.144
37.225,-0.159
37.230,-0.124
37.235,-0.129
37.240,-0.134
37.245,-0.139
37.250,-0.167
37.255,-0.138
37.260,-0.124
37.265,-0.104
37.270,-0.111
37.275,-0.139
37.280,-0.099
37.285,-0.105
37.290,-0.117
37.295,-0.120
37.300,-0.136
37.305,-0.099
37.310,-0.095
37.315,-0.098
37.320,-0.110
37.325,-0.129
37.330,-0.083
37.335,-0.081
37.340,-0.097
37.345,-0.101
37.350,-0.114
37.355,-0.086
37.360,-0.083
37.365,-0.071
37.370,-0.065
37.375,-0.097
37.380,-0.073
37.385,-0.067
37.390,-0.070
37.395,-0.069
37.400,-0.095
37.405,-0.072
37.410,-0.051
37.415,-0.052
37.420,-0.066
37.425,-0.088
37.430,-0.069
37.435,-0.067
37.440,-0.061
37.445,-0.057
37.450,-0.074
37.455,-0.060
37.460,-0.056
37.465,-0.034
37.470,-0.029
37.475,-0.064
37.480,-0.047
37.485,-0.041
37.490,-0.035
37.495,-0.036
37.500,-0.063
37.505,-0.047
37.510,-0.040
37.515,-0.021
37.520,-0.018
37.525,-0.045
37.530,-0.024
37.535,-0.038
37.540,-0.038
37.545,-0.016
37.550,-0.045
37.555,-0.037
37.560,-0.042
37.565,-0.036
37.570,-0.018
37.575,-0.043
37.580,-0.026
37.585,-0.030
37.590,-0.045
37.595,-0.033
37.600,-0.044
37.605,-0.032
37.610,-0.032
37.615,-0.032
37.620,-0.023
37.625,-0.032
37.630,-0.012
37.635,-0.026
37.640,-0.043
37.645,-0.033
37.650,-0.035
37.655,-0.022
37.660,-0.023
37.665,-0.013
37.670,-0.011
37.675,-0.025
37.680,-0.012
37.685,-0.027
37.690,-0.033
37.695,-0.037
37.700,-0.043
37.705,-0.006
37.710,-0.002
37.715,-0.003
37.720,-0.006
37.725,-0.023
37.730,0.007
37.735,-0.008
37.740,-0.030
37.745,-0.021
37.750,-0.031
37.755,-0.013
37.760,-0.003
37.765,0.001
37.770,-0.001
37.775,-0.027
37.780,-0.003
37.785,0.000
37.790,-0.009
37.795,-0.003
37.800,-0.020
37.805,0.001
37.810,0.004
37.815,0.000
37.820,-0.004
37.825,-0.023
37.830,0.001
37.835,-0.002
37.840,-0.014
37.845,-0.008
37.850,-0.022
37.855,-0.010
37.860,-0.009
37.865,0.004
37.870,0.011
37.875,-0.021
37.880,-0.007
37.885,-0.004
37.890,-0.007
37.895,-0.009
37.900,-0.032
37.905,-0.008
37.910,0.001
37.915,0.008
37.920,0.004
37.925,-0.022
37.930,-0.001
37.935,-0.015
37.940,-0.017
37.945,0.010
37.950,-0.010
37.955,-0.012
37.960,-0.020
37.965,-0.010
37.970,0.010
37.975,-0.005
37.980,0.011
37.985,-0.002
37.990,-0.013
37.995,0.006
38.000,-0.012
38.005,-0.002
38.010,-0.001
38.015,-0.002
38.020,0.008
38.025,-0.003
38.030,0.007
38.035,-0.005
38.040,-0.009
38.045,0.002
38.050,-0.003
38.055,0.009
38.060,-0.005
38.065,-0.001
38.070,0.012
38.075,-0.008
38.080,0.021
38.085,0.010
38.090,-0.017
38.095,-0.012
38.100,-0.028
38.105,0.002
38.110,0.013
38.115,0.007
38.120,0.006
38.125,-0.007
38.130,0.029
38.135,0.023
38.140,-0.002
38.145,-0.004
38.150,-0.017
38.155,0.008
38.160,0.009
38.165,0.007
38.170,0.006
38.175,-0.017
38.180,0.012
38.185,0.017
38.190,0.003
38.195,0.010
38.200,-0.007
38.205,-0.001
38.210,0.008
38.215,0.000
38.220,-0.010
38.225,-0.019
38.230,0.001
38.235,0.000
38.240,-0.012
38.245,-0.015
38.250,-0.029
38.255,-0.014
38.260,-0.008
38.265,0.001
38.270,0.008
38.275,-0.011
38.280,0.001
38.285,-0.002
38.290,-0.004
38.295,-0.004
38.300,-0.037
38.305,-0.017
38.310,-0.001
38.315,0.008
38.320,0.017
38.325,0.000
38.330,0.025
38.335,0.005
38.340,-0.021
38.345,-0.003
38.350,-0.012
38.355,-0.005
38.360,-0.014
38.365,-0.010
38.370,0.011
38.375,-0.001
38.380,0.026
38.385,0.035
38.390,0.034
38.395,0.070
38.400,0.077
38.405,0.088
38.410,0.073
38.415,0.039
38.420,0.027
38.425,-0.001
38.430,-0.009
38.435,-0.031
38.440,-0.043
38.445,-0.028
38.450,-0.040
38.455,-0.030
38.460,-0.034
38.465,-0.035
38.470,-0.030
38.475,-0.042
38.480,-0.011
38.485,-0.017
38.490,-0.031
38.495,-0.030
38.500,-0.046
38.505,-0.012
38.510,-0.012
38.515,-0.028
38.520,-0.016
38.525,-0.021
38.530,0.015
38.535,0.003
38.540,-0.040
38.545,-0.032
38.550,-0.027
38.555,0.001
38.560,0.010
38.565,0.002
38.570,-0.005
38.575,-0.027
38.580,0.010
38.585,0.022
38.590,0.009
38.595,0.013
38.600,-0.023
38.605,-0.012
38.610,0.002
38.615,-0.006
38.620,-0.006
38.625,-0.017
38.630,0.015
38.635,0.017
38.640,-0.005
38.645,-0.003
38.650,-0.013
38.655,0.001
38.660,0.004
38.665,0.010
38.670,0.014
38.675,-0.004
38.680,0.019
38.685,0.016
38.690,0.008
38.695,0.003
38.700,-0.022
38.705,-0.003
38.710,0.008
38.715,0.019
38.720,0.028
38.725,0.011
38.730,0.027
38.735,0.012
38.740,-0.010
38.745,-0.001
38.750,-0.011
38.755,0.001
38.760,-0.006
38.765,0.000
38.770,0.025
38.775,0.002
38.780,0.012
38.785,-0.001
38.790,-0.021
38.795,-0.001
38.800,-0.020
38.805,-0.007
38.810,0.005
38.815,-0.005
38.820,0.003
38.825,0.000
38.830,0.023
38.835,0.011
38.840,-0.015
38.845,0.000
38.850,0.004
38.855,0.016
38.860,-0.001
38.865,-0.012
38.870,0.005
38.875,0.009
38.880,0.035
38.885,0.020
38.890,-0.002
38.895,0.005
38.900,0.000
38.905,0.035
38.910,0.035
38.915,0.013
38.920,0.010
38.925,0.006
38.930,0.051
38.935,0.036
38.940,-0.004
38.945,0.003
38.950,-0.009
38.955,0.010
38.960,0.012
38.965,0.001
38.970,0.009
38.975,-0.010
38.980,0.016
38.985,0.020
38.990,-0.005
38.995,-0.003
39.000,-0.026
39.005,-0.010
39.010,0.003
39.015,-0.010
39.020,-0.010
39.025,-0.019
39.030,0.006
39.035,0.004
39.040,-0.016
39.045,-0.011
39.050,-0.031
39.055,-0.023
39.060,-0.010
39.065,-0.001
39.070,0.008
39.075,-0.011
39.080,0.000
39.085,-0.003
39.090,-0.008
39.095,-0.005
39.100,-0.031
39.105,-0.013
39.110,-0.005
39.115,-0.002
39.120,0.008
39.125,-0.015
39.130,0.013
39.135,0.004
39.140,-0.024
39.145,-0.004
39.150,-0.019
39.155,-0.011
39.160,-0.009
39.165,-0.013
39.170,0.013
39.175,0.005
39.180,0.008
39.185,-0.004
39.190,-0.023
39.195,-0.005
39.200,-0.015
39.205,-0.005
39.210,0.002
39.215,-0.011
39.220,-0.001
39.225,-0.001
39.230,0.025
39.235,0.021
39.240,-0.013
39.245,-0.001
39.250,-0.004
39.255,-0.004
39.260,-0.006
39.265,-0.015
39.270,-0.002
39.275,0.001
39.280,0.027
39.285,0.021
39.290,-0.011
39.295,-0.013
39.300,-0.021
39.305,0.010
39.310,0.019
39.315,-0.001
39.320,0.001
39.325,-0.001
39.330,0.036
39.335,0.026
39.340,-0.013
39.345,-0.010
39.350,-0.019
39.355,0.008
39.360,0.014
39.365,0.003
39.370,0.015
39.375,0.002
39.380,0.031
39.385,0.034
39.390,0.001
39.395,-0.001
39.400,-0.022
39.405,0.003
39.410,0.026
39.415,0.009
39.420,0.010
39.425,0.000
39.430,0.026
39.435,0.035
39.440,0.014
39.445,0.020
39.450,0.008
39.455,0.017
39.460,0.027
39.465,0.028
39.470,0.036
39.475,0.023
39.480,0.047
39.485,0.045
39.490,0.026
39.495,0.040
39.500,0.029
39.505,0.043
39.510,0.048
39.515,0.040
39.520,0.061
39.525,0.065
39.530,0.084
39.535,0.065
39.540,0.040
39.545,0.073
39.550,0.064
39.555,0.043
39.560,0.020
39.565,0.297
39.570,0.623
39.575,1.245
39.580,1.767
39.585,1.674
39.590,1.551
39.595,1.408
39.600,1.404
39.605,1.296
39.610,1.068
39.615,0.953
39.620,0.962
39.625,0.988
39.630,0.918
39.635,0.770
39.640,0.690
39.645,0.668
39.650,0.546
39.655,0.407
39.660,0.317
39.665,0.198
39.670,0.103
39.675,0.119
39.680,0.115
39.685,0.014
39.690,-0.010
39.695,-0.002
39.700,-0.055
39.705,-0.063
39.710,-0.074
39.715,-0.106
39.720,-0.134
39.725,-0.153
39.730,-0.144
39.735,-0.182
39.740,-0.214
39.745,-0.227
39.750,-0.262
39.755,-0.261
39.760,-0.263
39.765,-0.274
39.770,-0.293
39.775,-0.329
39.780,-0.315
39.785,-0.319
39.790,-0.354
39.795,-0.366
39.800,-0.390
39.805,-0.386
39.810,-0.361
39.815,-0.354
39.820,-0.383
39.825,-0.420
39.830,-0.400
39.835,-0.392
39.840,-0.398
39.845,-0.399
39.850,-0.411
39.855,-0.402
39.860,-0.402
39.865,-0.389
39.870,-0.385
39.875,-0.410
39.880,-0.401
39.885,-0.411
39.890,-0.411
39.895,-0.394
39.900,-0.404
39.905,-0.392
39.910,-0.387
39.915,-0.371
39.920,-0.376
39.925,-0.400
39.930,-0.383
39.935,-0.395
39.940,-0.384
39.945,-0.347
39.950,-0.354
39.955,-0.353
39.960,-0.355
39.965,-0.334
39.970,-0.312
39.975,-0.339
39.980,-0.332
39.985,-0.332
39.990,-0.336
39.995,-0.298
40.000,-0.286
40.005,-0.284
40.010,-0.302
40.015,-0.314
40.020,-0.308
40.025,-0.292
40.030,-0.252
40.035,-0.268
40.040,-0.282
40.045,-0.264
40.050,-0.261
40.055,-0.250
40.060,-0.254
40.065,-0.241
40.070,-0.236
40.075,-0.241
40.080,-0.207
40.085,-0.209
40.090,-0.242
40.095,-0.248
40.100,-0.220
40.105,-0.172
40.110,-0.169
40.115,-0.189
40.120,-0.202
40.125,-0.187
40.130,-0.143
40.135,-0.150
40.140,-0.142
40.145,-0.137
40.150,-0.154
40.155,-0.111
40.160,-0.109
40.165,-0.102
40.170,-0.097
40.175,-0.130
40.180,-0.082
40.185,-0.074
40.190,-0.085
40.195,-0.064
40.200,-0.096
40.205,-0.097
40.210,-0.081
40.215,-0.065
40.220,-0.064
40.225,-0.075
40.230,-0.027
40.235,-0.025
40.240,-0.044
40.245,-0.033
40.250,-0.036
40.255,-0.031
40.260,-0.030
40.265,-0.006
40.270,0.012
40.275,0.005
40.280,0.004
40.285,-0.021
40.290,-0.005
40.295,0.035
40.300,0.018
40.305,0.016
40.310,0.016
40.315,0.024
40.320,0.040
40.325,0.025
40.330,0.039
40.335,0.015
40.340,0.006
40.345,0.055
40.350,0.051
40.355,0.044
40.360,0.031
40.365,0.038
40.370,0.061
40.375,0.045
40.380,0.045
40.385,0.030
40.390,0.021
40.395,0.058
40.400,0.075
40.405,0.066
40.410,0.034
40.415,0.033
40.420,0.050
40.425,0.050
40.430,0.068
40.435,0.055
40.440,0.044
40.445,0.047
40.450,0.044
40.455,0.059
40.460,0.044
40.465,0.035
40.470,0.032
40.475,0.035
40.480,0.075
40.485,0.047
40.490,0.030
40.495,0.052
40.500,0.035
40.505,0.049
40.510,0.049
40.515,0.055
40.520,0.046
40.525,0.015
40.530,0.058
40.535,0.062
40.540,0.041
40.545,0.044
40.550,0.027
40.555,0.043
40.560,0.033
40.565,0.037
40.570,0.058
40.575,0.026
40.580,0.040
40.585,0.053
40.590,0.045
40.595,0.053
40.600,0.032
40.605,0.037
40.610,0.056
40.615,0.055
40.620,0.039
40.625,0.021
40.630,0.047
40.635,0.049
40.640,0.055
40.645,0.082
40.650,0.062
40.655,0.039
40.660,0.025
40.665,0.051
40.670,0.061
40.675,0.027
40.680,0.040
40.685,0.047
40.690,0.058
40.695,0.074
40.700,0.044
40.705,0.037
40.710,0.027
40.715,0.044
40.720,0.055
40.725,0.014
40.730,0.024
40.735,0.022
40.740,0.022
40.745,0.050
40.750,0.030
40.755,0.032
40.760,0.041
40.765,0.038
40.770,0.050
40.775,0.038
40.780,0.033
40.785,0.018
40.790,0.028
40.795,0.058
40.800,0.051
40.805,0.046
40.810,0.036
40.815,0.055
40.820,0.086
40.825,0.107
40.830,0.157
40.835,0.164
40.840,0.156
40.845,0.174
40.850,0.164
40.855,0.142
40.860,0.089
40.865,0.038
40.870,-0.005
40.875,-0.039
40.880,-0.019
40.885,-0.037
40.890,-0.058
40.895,-0.044
40.900,-0.046
40.905,-0.023
40.910,-0.014
40.915,-0.020
40.920,-0.026
40.925,-0.045
40.930,-0.021
40.935,-0.022
40.940,-0.030
40.945,-0.011
40.950,-0.025
40.955,-0.001
40.960,0.020
40.965,0.017
40.970,0.000
40.975,-0.043
40.980,-0.020
40.985,0.000
40.990,-0.011
40.995,-0.007
41.000,-0.025
41.005,-0.012
41.010,0.008
41.015,0.009
41.020,-0.006
41.025,-0.031
41.030,-0.007
41.035,-0.007
41.040,-0.011
41.045,0.010
41.050,-0.004
41.055,-0.001
41.060,0.004
41.065,0.017
41.070,0.021
41.075,-0.011
41.080,0.002
41.085,0.008
41.090,0.013
41.095,0.036
41.100,0.013
41.105,0.001
41.110,-0.004
41.115,0.006
41.120,0.022
41.125,-0.004
41.130,-0.003
41.135,-0.012
41.140,-0.014
41.145,0.023
41.150,0.019
41.155,0.013
41.160,-0.004
41.165,-0.005
41.170,0.013
41.175,-0.002
41.180,0.006
41.185,-0.002
41.190,-0.008
41.195,0.019
41.200,0.007
41.205,0.005
41.210,0.003
41.215,-0.007
41.220,-0.006
41.225,-0.004
41.230,0.018
41.235,-0.008
41.240,-0.023
41.245,-0.010
41.250,-0.031
41.255,-0.033
41.260,-0.032
41.265,-0.001
41.270,0.021
41.275,0.004
41.280,0.030
41.285,0.019
41.290,-0.002
41.295,0.007
41.300,0.000
41.305,0.021
41.310,0.024
41.315,0.021
41.320,0.018
41.325,0.000
41.330,0.039
41.335,0.035
41.340,0.007
41.345,0.020
41.350,0.007
41.355,0.035
41.360,0.052
41.365,0.024
41.370,0.013
41.375,-0.011
41.380,0.014
41.385,0.036
41.390,0.021
41.395,0.019
41.400,-0.006
41.405,0.001
41.410,0.023
41.415,0.034
41.420,0.024
41.425,-0.009
41.430,0.010
41.435,0.018
41.440,0.016
41.445,0.030
41.450,0.002
41.455,-0.005
41.460,0.010
41.465,0.035
41.470,0.038
41.475,0.000
41.480,0.001
41.485,0.000
41.490,0.009
41.495,0.027
41.500,-0.001
41.505,-0.006
41.510,0.001
41.515,0.023
41.520,0.032
41.525,0.000
41.530,0.002
41.535,-0.012
41.540,0.000
41.545,0.045
41.550,0.028
41.555,0.012
41.560,-0.003
41.565,-0.005
41.570,0.012
41.575,0.003
41.580,0.020
41.585,0.016
41.590,0.011
41.595,0.040
41.600,0.026
41.605,0.004
41.610,-0.008
41.615,0.005
41.620,0.032
41.625,0.016
41.630,0.009
41.635,-0.007
41.640,-0.013
41.645,0.022
41.650,0.025
41.655,0.021
41.660,0.011
41.665,0.004
41.670,0.005
41.675,0.005
41.680,0.033
41.685,0.020
41.690,0.009
41.695,0.021
41.700,-0.003
41.705,0.005
41.710,0.016
41.715,0.018
41.720,0.016
41.725,0.002
41.730,0.041
41.735,0.040
41.740,0.011
41.745,0.009
41.750,-0.002
41.755,0.022
41.760,0.019
41.765,0.003
41.770,-0.002
41.775,-0.023
41.780,0.008
41.785,0.024
41.790,-0.002
41.795,-0.001
41.800,-0.008
41.805,-0.003
41.810,0.014
41.815,0.008
41.820,-0.006
41.825,-0.022
41.830,-0.001
41.835,0.016
41.840,0.023
41.845,0.030
41.850,-0.014
41.855,-0.034
41.860,-0.020
41.865,0.004
41.870,0.025
41.875,0.016
41.880,0.028
41.885,0.025
41.890,0.015
41.895,0.023
41.900,-0.016
41.905,-0.026
41.910,-0.017
41.915,-0.011
41.920,0.003
41.925,-0.019
41.930,-0.006
41.935,-0.005
41.940,-0.006
41.945,0.027
41.950,0.001
41.955,-0.019
41.960,-0.026
41.965,-0.030
41.970,-0.007
41.975,-0.005
41.980,0.016
41.985,0.008
41.990,-0.013
41.995,0.016
42.000,0.018
42.005,0.009
42.010,-0.003
42.015,-0.004
42.020,0.009
42.025,-0.004
42.030,-0.004
42.035,-0.018
42.040,-0.021
42.045,0.006
42.050,0.020
42.055,0.040
42.060,0.049
42.065,0.072
42.070,0.107
42.075,0.138
42.080,0.194
42.085,0.187
42.090,0.156
42.095,0.138
42.100,0.063
42.105,0.005
42.110,-0.046
42.115,-0.082
42.120,-0.083
42.125,-0.090
42.130,-0.050
42.135,-0.033
42.140,-0.050
42.145,-0.050
42.150,-0.078
42.155,-0.074
42.160,-0.052
42.165,-0.054
42.170,-0.060
42.175,-0.076
42.180,-0.044
42.185,-0.031
42.190,-0.044
42.195,-0.028
42.200,-0.052
42.205,-0.065
42.210,-0.045
42.215,-0.034
42.220,-0.041
42.225,-0.064
42.230,-0.043
42.235,-0.018
42.240,-0.005
42.245,-0.007
42.250,-0.050
42.255,-0.048
42.260,-0.025
42.265,-0.006
42.270,0.003
42.275,-0.022
42.280,-0.004
42.285,-0.010
42.290,-0.011
42.295,0.018
42.300,-0.012
42.305,-0.026
42.310,-0.026
42.315,-0.014
42.320,0.005
42.325,-0.012
42.330,0.005
42.335,0.011
42.340,0.019
42.345,0.045
42.350,0.013
42.355,-0.002
42.360,0.005
42.365,0.014
42.370,0.035
42.375,0.021
42.380,0.029
42.385,0.026
42.390,0.010
42.395,0.039
42.400,0.031
42.405,0.020
42.410,0.019
42.415,0.014
42.420,0.036
42.425,0.027
42.430,0.025
42.435,0.019
42.440,0.002
42.445,0.024
42.450,0.017
42.455,0.003
42.460,0.004
42.465,0.009
42.470,0.005
42.475,-0.009
42.480,0.017
42.485,0.010
42.490,0.072
42.495,0.169
42.500,0.065
42.505,-0.031
42.510,-0.051
42.515,-0.047
42.520,-0.011
42.525,-0.039
42.530,-0.018
42.535,0.019
42.540,-0.006
42.545,-0.021
42.550,-0.023
42.555,0.007
42.560,0.005
42.565,-0.011
42.570,-0.008
42.575,-0.036
42.580,-0.008
42.585,0.018
42.590,0.003
42.595,0.012
42.600,-0.011
42.605,-0.015
42.610,-0.001
42.615,-0.002
42.620,0.011
42.625,-0.002
42.630,0.012
42.635,0.024
42.640,0.014
42.645,0.021
42.650,-0.009
42.655,-0.014
42.660,0.012
42.665,0.030
42.670,0.040
42.675,0.010
42.680,0.002
42.685,-0.003
42.690,-0.003
42.695,0.024
42.700,-0.002
42.705,-0.020
42.710,-0.011
42.715,0.011
42.720,0.019
42.725,-0.011
42.730,0.147
42.735,0.260
42.740,0.068
42.745,-0.058
42.750,-0.142
42.755,-0.136
42.760,-0.055
42.765,-0.093
42.770,-0.057
42.775,0.016
42.780,0.042
42.785,0.086
42.790,0.089
42.795,0.022
42.800,-0.040
42.805,-0.054
42.810,-0.036
42.815,-0.033
42.820,-0.031
42.825,-0.007
42.830,0.013
42.835,-0.019
42.840,-0.030
42.845,-0.001
42.850,-0.011
42.855,-0.006
42.860,-0.004
42.865,-0.016
42.870,-0.012
42.875,-0.001
42.880,0.024
42.885,0.000
42.890,-0.020
42.895,0.001
42.900,-0.007
42.905,0.006
42.910,0.011
42.915,0.006
42.920,0.016
42.925,-0.006
42.930,0.015
42.935,0.012
42.940,-0.027
42.945,-0.017
42.950,-0.030
42.955,-0.001
42.960,0.027
42.965,0.005
42.970,0.000
42.975,-0.020
42.980,-0.007
42.985,0.008
42.990,0.002
42.995,0.025
43.000,0.005
43.005,-0.012
43.010,0.007
43.015,0.012
43.020,0.006
43.025,-0.017
43.030,-0.012
43.035,-0.005
43.040,0.001
43.045,0.026
43.050,0.006
43.055,-0.007
43.060,0.010
43.065,0.017
43.070,0.008
43.075,-0.007
43.080,0.009
43.085,0.012
43.090,0.010
43.095,0.022
43.100,-0.007
43.105,-0.033
43.110,-0.037
43.115,-0.009
43.120,0.027
43.125,0.004
43.130,0.002
43.135,0.002
43.140,0.002
43.145,0.035
43.150,0.006
43.155,-0.017
43.160,-0.014
43.165,-0.012
43.170,0.020
43.175,0.010
43.180,0.007
43.185,-0.006
43.190,-0.031
43.195,0.009
43.200,0.016
43.205,0.006
43.210,0.000
43.215,-0.023
43.220,-0.018
43.225,-0.010
43.230,0.017
43.235,0.008
43.240,-0.017
43.245,0.009
43.250,0.005
43.255,-0.009
43.260,-0.013
43.265,-0.019
43.270,-0.016
43.275,-0.025
43.280,-0.006
43.285,-0.005
43.290,-0.008
43.295,0.030
43.300,0.040
43.305,0.089
43.310,0.135
43.315,0.137
43.320,0.162
43.325,0.180
43.330,0.198
43.335,0.149
43.340,0.053
43.345,-0.011
43.350,-0.076
43.355,-0.083
43.360,-0.079
43.365,-0.097
43.370,-0.087
43.375,-0.104
43.380,-0.078
43.385,-0.053
43.390,-0.077
43.395,-0.055
43.400,-0.060
43.405,-0.066
43.410,-0.041
43.415,-0.033
43.420,-0.037
43.425,-0.063
43.430,-0.054
43.435,-0.041
43.440,-0.032
43.445,-0.006
43.450,-0.027
43.455,-0.027
43.460,-0.013
43.465,-0.024
43.470,-0.026
43.475,-0.050
43.480,-0.039
43.485,-0.020
43.490,-0.011
43.495,0.012
43.500,-0.022
43.505,-0.035
43.510,-0.026
43.515,-0.016
43.520,0.011
43.525,-0.014
43.530,-0.019
43.535,-0.024
43.540,-0.022
43.545,0.033
43.550,0.015
43.555,-0.007
43.560,0.010
43.565,0.015
43.570,0.033
43.575,0.034
43.580,0.043
43.585,0.040
43.590,0.026
43.595,0.062
43.600,0.068
43.605,0.048
43.610,0.044
43.615,0.037
43.620,0.048
43.625,0.047
43.630,0.055
43.635,0.047
43.640,0.014
43.645,0.023
43.650,0.021
43.655,0.019
43.660,0.015
43.665,-0.015
43.670,-0.019
43.675,-0.003
43.680,0.021
43.685,-0.001
43.690,-0.032
43.695,-0.027
43.700,-0.039
43.705,-0.020
43.710,-0.009
43.715,-0.030
43.720,-0.027
43.725,-0.030
43.730,0.006
43.735,0.008
43.740,-0.036
43.745,-0.035
43.750,-0.050
43.755,-0.032
43.760,-0.006
43.765,-0.019
43.770,-0.018
43.775,-0.033
43.780,-0.010
43.785,0.006
43.790,-0.025
43.795,-0.016
43.800,-0.028
43.805,-0.029
43.810,0.005
43.815,0.011
43.820,0.007
43.825,-0.022
43.830,-0.031
43.835,-0.017
43.840,-0.011
43.845,0.010
43.850,-0.009
43.855,-0.013
43.860,0.013
43.865,0.012
43.870,-0.002
43.875,-0.008
43.880,0.015
43.885,0.011
43.890,0.000
43.895,0.021
43.900,0.005
43.905,-0.010
43.910,-0.015
43.915,-0.002
43.920,0.038
43.925,0.014
43.930,-0.001
43.935,0.000
43.940,-0.007
43.945,0.024
43.950,0.009
43.955,-0.005
43.960,0.006
43.965,0.009
43.970,0.034
43.975,0.024
43.980,0.028
43.985,0.019
43.990,-0.008
43.995,0.024
44.000,0.009
44.005,-0.001
44.010,0.016
44.015,0.002
44.020,0.015
44.025,0.021
44.030,0.019
44.035,0.009
44.040,-0.008
44.045,0.019
44.050,0.028
44.055,0.023
44.060,0.013
44.065,-0.008
44.070,0.008
44.075,0.017
44.080,0.029
44.085,0.022
44.090,-0.003
44.095,0.008
44.100,0.004
44.105,0.015
44.110,0.027
44.115,0.014
44.120,0.013
44.125,0.005
44.130,0.023
44.135,0.017
44.140,-0.016
44.145,0.001
44.150,-0.011
44.155,0.003
44.160,0.030
44.165,-0.004
44.170,-0.012
44.175,-0.007
44.180,0.014
44.185,0.018
44.190,-0.009
44.195,0.005
44.200,-0.004
44.205,-0.015
44.210,0.004
44.215,0.013
44.220,0.014
44.225,-0.010
44.230,-0.001
44.235,0.016
44.240,0.008
44.245,0.027
44.250,-0.001
44.255,-0.021
44.260,0.004
44.265,0.008
44.270,0.017
44.275,0.006
44.280,0.003
44.285,-0.008
44.290,-0.016
44.295,0.022
44.300,0.005
44.305,-0.013
44.310,-0.009
44.315,0.002
44.320,0.033
44.325,0.006
44.330,-0.006
44.335,-0.005
44.340,-0.008
44.345,0.035
44.350,0.018
44.355,-0.005
44.360,-0.003
44.365,-0.011
44.370,0.019
44.375,0.018
44.380,0.010
44.385,-0.004
44.390,-0.028
44.395,0.011
44.400,0.021
44.405,-0.002
44.410,-0.002
44.415,-0.010
44.420,-0.006
44.425,-0.012
44.430,-0.010
44.435,-0.008
44.440,-0.021
44.445,0.007
44.450,0.012
44.455,0.005
44.460,0.013
44.465,-0.003
44.470,-0.005
44.475,-0.005
44.480,0.001
44.485,-0.002
44.490,-0.018
44.495,-0.002
44.500,-0.006
44.505,0.012
44.510,0.040
44.515,0.046
44.520,0.084
44.525,0.104
44.530,0.157
44.535,0.180
44.540,0.145
44.545,0.128
44.550,0.049
44.555,0.006
44.560,-0.006
44.565,-0.061
44.570,-0.069
44.575,-0.079
44.580,-0.073
44.585,-0.056
44.590,-0.072
44.595,-0.052
44.600,-0.062
44.605,-0.061
44.610,-0.020
44.615,-0.025
44.620,-0.033
44.625,-0.042
44.630,-0.039
44.635,-0.033
44.640,-0.037
44.645,-0.010
44.650,-0.022
44.655,-0.044
44.660,-0.020
44.665,-0.012
44.670,-0.017
44.675,-0.043
44.680,-0.046
44.685,-0.021
44.690,-0.019
44.695,-0.008
44.700,-0.024
44.705,-0.024
44.710,-0.007
44.715,-0.009
44.720,-0.003
44.725,-0.029
44.730,-0.021
44.735,-0.011
44.740,-0.020
44.745,0.024
44.750,0.006
44.755,-0.020
44.760,-0.006
44.765,-0.014
44.770,0.017
44.775,0.025
44.780,0.016
44.785,0.005
44.790,-0.020
44.795,0.023
44.800,0.029
44.805,0.002
44.810,0.000
44.815,-0.015
44.820,0.006
44.825,0.020
44.830,0.023
44.835,0.014
44.840,-0.008
44.845,0.017
44.850,0.021
44.855,0.015
44.860,0.017
44.865,-0.002
44.870,0.005
44.875,0.017
44.880,0.034
44.885,0.022
44.890,-0.014
44.895,-0.012
44.900,-0.012
44.905,0.014
44.910,0.042
44.915,0.016
44.920,-0.005
44.925,-0.010
44.930,0.012
44.935,0.012
44.940,-0.027
44.945,-0.028
44.950,-0.037
44.955,-0.017
44.960,0.023
44.965,0.007
44.970,0.004
44.975,-0.010
44.980,-0.006
44.985,0.007
44.990,-0.018
44.995,-0.008
45.000,-0.017
45.005,-0.012
45.010,0.027
45.015,0.012
45.020,0.002
45.025,-0.007
45.030,0.000
45.035,0.018
45.040,0.006
45.045,0.019
45.050,0.010
45.055,-0.001
45.060,0.011
45.065,0.012
45.070,0.010
45.075,-0.017
45.080,-0.015
45.085,-0.001
45.090,0.007
45.095,0.037
45.100,0.018
45.105,-0.003
45.110,0.006
45.115,0.010
45.120,0.022
45.125,0.002
45.130,-0.008
45.135,-0.007
45.140,-0.015
45.145,0.017
45.150,0.004
45.155,-0.015
45.160,0.003
45.165,0.004
