'Elapsed time','ECG'
'seconds','mV'
0.000,0.077
0.005,0.124
0.010,0.119
0.015,0.105
0.020,0.089
0.025,0.083
0.030,0.088
0.035,0.073
0.040,0.061
0.045,0.064
0.050,0.057
0.055,0.047
0.060,0.044
0.065,0.043
0.070,0.040
0.075,0.036
0.080,0.032
0.085,0.029
0.090,0.028
0.095,0.029
0.100,0.024
0.105,0.020
0.110,0.023
0.115,0.018
0.120,0.014
0.125,0.015
0.130,0.015
0.135,0.012
0.140,0.009
0.145,0.006
0.150,0.002
0.155,0.002
0.160,0.002
0.165,-0.002
0.170,-0.006
0.175,-0.006
0.180,-0.004
0.185,-0.003
0.190,-0.005
0.195,-0.005
0.200,-0.003
0.205,-0.005
0.210,-0.012
0.215,-0.014
0.220,-0.011
0.225,-0.011
0.230,-0.011
0.235,-0.011
0.240,-0.014
0.245,-0.017
0.250,-0.019
0.255,-0.018
0.260,-0.018
0.265,-0.022
0.270,-0.025
0.275,-0.024
0.280,-0.022
0.285,-0.021
0.290,-0.021
0.295,-0.020
0.300,-0.021
0.305,-0.023
0.310,-0.027
0.315,-0.026
0.320,-0.022
0.325,-0.027
0.330,-0.036
0.335,-0.037
0.340,-0.031
0.345,-0.040
0.350,-0.073
0.355,-0.097
0.360,-0.091
0.365,-0.073
0.370,-0.079
0.375,-0.101
0.380,-0.091
0.385,-0.065
0.390,-0.049
0.395,-0.034
0.400,-0.016
0.405,0.004
0.410,0.021
0.415,0.023
0.420,0.022
0.425,0.026
0.430,0.034
0.435,0.039
0.440,0.038
0.445,0.036
0.450,0.033
0.455,0.033
0.460,0.029
0.465,0.017
0.470,0.010
0.475,0.012
0.480,0.014
0.485,0.012
0.490,0.005
0.495,-0.002
0.500,-0.003
0.505,0.005
0.510,0.015
0.515,0.035
0.520,0.031
0.525,-0.056
0.530,-0.242
0.535,-0.523
0.540,-0.862
0.545,-1.194
0.550,-1.362
0.555,-1.050
0.560,-0.307
0.565,0.357
0.570,0.669
0.575,0.705
0.580,0.609
0.585,0.460
0.590,0.269
0.595,0.132
0.600,0.130
0.605,0.153
0.610,0.118
0.615,0.102
0.620,0.111
0.625,0.091
0.630,0.070
0.635,0.071
0.640,0.064
0.645,0.054
0.650,0.054
0.655,0.053
0.660,0.046
0.665,0.040
0.670,0.035
0.675,0.024
0.680,0.015
0.685,0.013
0.690,0.010
0.695,-0.001
0.700,-0.014
0.705,-0.025
0.710,-0.028
0.715,-0.028
0.720,-0.036
0.725,-0.049
0.730,-0.062
0.735,-0.079
0.740,-0.094
0.745,-0.107
0.750,-0.121
0.755,-0.135
0.760,-0.154
0.765,-0.178
0.770,-0.198
0.775,-0.213
0.780,-0.221
0.785,-0.233
0.790,-0.256
0.795,-0.272
0.800,-0.274
0.805,-0.265
0.810,-0.258
0.815,-0.252
0.820,-0.228
0.825,-0.187
0.830,-0.135
0.835,-0.072
0.840,-0.001
0.845,0.071
0.850,0.139
0.855,0.208
0.860,0.268
0.865,0.316
0.870,0.360
0.875,0.394
0.880,0.413
0.885,0.423
0.890,0.424
0.895,0.426
0.900,0.425
0.905,0.412
0.910,0.395
0.915,0.379
0.920,0.361
0.925,0.348
0.930,0.335
0.935,0.316
0.940,0.297
0.945,0.284
0.950,0.268
0.955,0.251
0.960,0.238
0.965,0.223
0.970,0.210
0.975,0.195
0.980,0.178
0.985,0.162
0.990,0.148
0.995,0.131
1.000,0.122
1.005,0.115
1.010,0.096
1.015,0.077
1.020,0.069
1.025,0.061
1.030,0.053
1.035,0.043
1.040,0.032
1.045,0.026
1.050,0.019
1.055,0.013
1.060,0.009
1.065,0.006
1.070,-0.001
1.075,-0.009
1.080,-0.010
1.085,-0.009
1.090,-0.015
1.095,-0.019
1.100,-0.024
1.105,-0.029
1.110,-0.032
1.115,-0.032
1.120,-0.038
1.125,-0.047
1.130,-0.051
1.135,-0.057
1.140,-0.055
1.145,-0.049
1.150,-0.051
1.155,-0.052
1.160,-0.053
1.165,-0.054
1.170,-0.053
1.175,-0.057
1.180,-0.067
1.185,-0.068
1.190,-0.060
1.195,-0.057
1.200,-0.058
1.205,-0.061
1.210,-0.072
1.215,-0.081
1.220,-0.082
1.225,-0.086
1.230,-0.088
1.235,-0.082
1.240,-0.074
1.245,-0.086
1.250,-0.123
1.255,-0.149
1.260,-0.142
1.265,-0.126
1.270,-0.136
1.275,-0.156
1.280,-0.140
1.285,-0.110
1.290,-0.091
1.295,-0.076
1.300,-0.066
1.305,-0.055
1.310,-0.040
1.315,-0.030
1.320,-0.022
1.325,-0.013
1.330,-0.008
1.335,-0.005
1.340,-0.006
1.345,-0.013
1.350,-0.017
1.355,-0.017
1.360,-0.027
1.365,-0.032
1.370,-0.024
1.375,-0.023
1.380,-0.027
1.385,-0.030
1.390,-0.032
1.395,-0.033
1.400,-0.037
1.405,-0.038
1.410,-0.032
1.415,-0.010
1.420,0.019
1.425,-0.012
1.430,-0.151
1.435,-0.405
1.440,-0.746
1.445,-1.090
1.450,-1.372
1.455,-1.364
1.460,-0.827
1.465,-0.051
1.470,0.486
1.475,0.682
1.480,0.675
1.485,0.575
1.490,0.413
1.495,0.221
1.500,0.111
1.505,0.119
1.510,0.113
1.515,0.075
1.520,0.080
1.525,0.082
1.530,0.057
1.535,0.056
1.540,0.065
1.545,0.050
1.550,0.036
1.555,0.031
1.560,0.021
1.565,0.014
1.570,0.019
1.575,0.017
1.580,0.007
1.585,0.000
1.590,-0.004
1.595,-0.008
1.600,-0.014
1.605,-0.018
1.610,-0.026
1.615,-0.036
1.620,-0.045
1.625,-0.054
1.630,-0.067
1.635,-0.082
1.640,-0.094
1.645,-0.103
1.650,-0.120
1.655,-0.145
1.660,-0.163
1.665,-0.174
1.670,-0.187
1.675,-0.207
1.680,-0.226
1.685,-0.235
1.690,-0.244
1.695,-0.253
1.700,-0.263
1.705,-0.269
1.710,-0.264
1.715,-0.248
1.720,-0.223
1.725,-0.190
1.730,-0.145
1.735,-0.086
1.740,-0.019
1.745,0.049
1.750,0.119
1.755,0.192
1.760,0.257
1.765,0.313
1.770,0.361
1.775,0.392
1.780,0.408
1.785,0.419
1.790,0.427
1.795,0.429
1.800,0.424
1.805,0.413
1.810,0.402
1.815,0.392
1.820,0.380
1.825,0.365
1.830,0.351
1.835,0.333
1.840,0.313
1.845,0.299
1.850,0.281
1.855,0.263
1.860,0.246
1.865,0.225
1.870,0.209
1.875,0.191
1.880,0.174
1.885,0.158
1.890,0.141
1.895,0.125
1.900,0.108
1.905,0.095
1.910,0.087
1.915,0.076
1.920,0.065
1.925,0.051
1.930,0.040
1.935,0.034
1.940,0.026
1.945,0.020
1.950,0.014
1.955,0.010
1.960,0.008
1.965,0.003
1.970,-0.004
1.975,-0.010
1.980,-0.011
1.985,-0.012
1.990,-0.015
1.995,-0.018
2.000,-0.021
2.005,-0.025
2.010,-0.031
2.015,-0.035
2.020,-0.037
2.025,-0.040
2.030,-0.044
2.035,-0.048
2.040,-0.050
2.045,-0.050
2.050,-0.054
2.055,-0.058
2.060,-0.060
2.065,-0.059
2.070,-0.058
2.075,-0.060
2.080,-0.062
2.085,-0.066
2.090,-0.070
2.095,-0.069
2.100,-0.068
2.105,-0.069
2.110,-0.073
2.115,-0.075
2.120,-0.073
2.125,-0.072
2.130,-0.074
2.135,-0.073
2.140,-0.074
2.145,-0.077
2.150,-0.083
2.155,-0.086
2.160,-0.081
2.165,-0.087
2.170,-0.115
2.175,-0.140
2.180,-0.141
2.185,-0.125
2.190,-0.122
2.195,-0.144
2.200,-0.148
2.205,-0.121
2.210,-0.099
2.215,-0.084
2.220,-0.066
2.225,-0.053
2.230,-0.037
2.235,-0.024
2.240,-0.022
2.245,-0.016
2.250,-0.010
2.255,-0.006
2.260,-0.002
2.265,-0.004
2.270,-0.009
2.275,-0.009
2.280,-0.009
2.285,-0.015
2.290,-0.021
2.295,-0.021
2.300,-0.025
2.305,-0.027
2.310,-0.028
2.315,-0.033
2.320,-0.035
2.325,-0.035
2.330,-0.032
2.335,-0.013
2.340,0.016
2.345,0.002
2.350,-0.106
2.355,-0.319
2.360,-0.623
2.365,-0.970
2.370,-1.295
2.375,-1.400
2.380,-0.990
2.385,-0.218
2.390,0.402
2.395,0.663
2.400,0.675
2.405,0.571
2.410,0.422
2.415,0.242
2.420,0.123
2.425,0.127
2.430,0.133
2.435,0.093
2.440,0.083
2.445,0.090
2.450,0.073
2.455,0.063
2.460,0.068
2.465,0.058
2.470,0.045
2.475,0.045
2.480,0.041
2.485,0.029
2.490,0.025
2.495,0.022
2.500,0.013
2.505,0.007
2.510,0.006
2.515,0.004
2.520,-0.003
2.525,-0.013
2.530,-0.021
2.535,-0.029
2.540,-0.035
2.545,-0.044
2.550,-0.058
2.555,-0.071
2.560,-0.081
2.565,-0.094
2.570,-0.109
2.575,-0.128
2.580,-0.144
2.585,-0.160
2.590,-0.177
2.595,-0.193
2.600,-0.210
2.605,-0.227
2.610,-0.240
2.615,-0.252
2.620,-0.257
2.625,-0.261
2.630,-0.261
2.635,-0.251
2.640,-0.231
2.645,-0.202
2.650,-0.164
2.655,-0.114
2.660,-0.053
2.665,0.015
2.670,0.089
2.675,0.159
2.680,0.225
2.685,0.287
2.690,0.336
2.695,0.374
2.700,0.401
2.705,0.415
2.710,0.423
2.715,0.426
2.720,0.423
2.725,0.414
2.730,0.401
2.735,0.387
2.740,0.373
2.745,0.360
2.750,0.344
2.755,0.328
2.760,0.315
2.765,0.301
2.770,0.283
2.775,0.264
2.780,0.246
2.785,0.227
2.790,0.211
2.795,0.197
2.800,0.183
2.805,0.172
2.810,0.156
2.815,0.137
2.820,0.121
2.825,0.110
2.830,0.102
2.835,0.094
2.840,0.081
2.845,0.068
2.850,0.056
2.855,0.046
2.860,0.044
2.865,0.037
2.870,0.028
2.875,0.021
2.880,0.015
2.885,0.011
2.890,0.005
2.895,-0.001
2.900,-0.005
2.905,-0.007
2.910,-0.007
2.915,-0.007
2.920,-0.010
2.925,-0.016
2.930,-0.021
2.935,-0.024
2.940,-0.027
2.945,-0.032
2.950,-0.036
2.955,-0.034
2.960,-0.037
2.965,-0.043
2.970,-0.047
2.975,-0.053
2.980,-0.055
2.985,-0.052
2.990,-0.052
2.995,-0.054
3.000,-0.056
3.005,-0.060
3.010,-0.061
3.015,-0.059
3.020,-0.060
3.025,-0.064
3.030,-0.068
3.035,-0.069
3.040,-0.067
3.045,-0.065
3.050,-0.068
3.055,-0.073
3.060,-0.072
3.065,-0.064
3.070,-0.059
3.075,-0.060
3.080,-0.065
3.085,-0.071
3.090,-0.076
3.095,-0.077
3.100,-0.078
3.105,-0.075
3.110,-0.069
3.115,-0.071
3.120,-0.075
3.125,-0.077
3.130,-0.074
3.135,-0.064
3.140,-0.061
3.145,-0.066
3.150,-0.072
3.155,-0.071
3.160,-0.064
3.165,-0.069
3.170,-0.093
3.175,-0.128
3.180,-0.138
3.185,-0.118
3.190,-0.110
3.195,-0.127
3.200,-0.140
3.205,-0.118
3.210,-0.089
3.215,-0.074
3.220,-0.056
3.225,-0.038
3.230,-0.023
3.235,-0.010
3.240,-0.006
3.245,0.002
3.250,0.010
3.255,0.015
3.260,0.021
3.265,0.020
3.270,0.013
3.275,0.010
3.280,0.010
3.285,0.005
3.290,-0.001
3.295,-0.001
3.300,-0.001
3.305,0.000
3.310,-0.002
3.315,-0.011
3.320,-0.020
3.325,-0.024
3.330,-0.015
3.335,0.015
3.340,0.038
3.345,0.000
3.350,-0.136
3.355,-0.378
3.360,-0.500
3.365,-0.365
3.370,-0.370
3.375,-0.389
3.380,0.062
3.385,0.743
3.390,1.251
3.395,1.378
3.400,1.232
3.405,1.099
3.410,0.923
3.415,0.660
3.420,0.532
3.425,0.538
3.430,0.477
3.435,0.394
3.440,0.382
3.445,0.352
3.450,0.288
3.455,0.257
3.460,0.228
3.465,0.173
3.470,0.139
3.475,0.121
3.480,0.093
3.485,0.068
3.490,0.051
3.495,0.022
3.500,-0.015
3.505,-0.040
3.510,-0.062
3.515,-0.086
3.520,-0.104
3.525,-0.124
3.530,-0.150
3.535,-0.176
3.540,-0.194
3.545,-0.210
3.550,-0.227
3.555,-0.247
3.560,-0.269
3.565,-0.295
3.570,-0.321
3.575,-0.345
3.580,-0.367
3.585,-0.390
3.590,-0.408
3.595,-0.426
3.600,-0.451
3.605,-0.475
3.610,-0.490
3.615,-0.495
3.620,-0.499
3.625,-0.503
3.630,-0.503
3.635,-0.492
3.640,-0.469
3.645,-0.445
3.650,-0.417
3.655,-0.371
3.660,-0.312
3.665,-0.246
3.670,-0.175
3.675,-0.106
3.680,-0.038
3.685,0.024
3.690,0.071
3.695,0.110
3.700,0.145
3.705,0.170
3.710,0.186
3.715,0.197
3.720,0.203
3.725,0.200
3.730,0.191
3.735,0.183
3.740,0.173
3.745,0.158
3.750,0.139
3.755,0.127
3.760,0.120
3.765,0.108
3.770,0.093
3.775,0.079
3.780,0.071
3.785,0.064
3.790,0.048
3.795,0.031
3.800,0.016
3.805,0.010
3.810,0.007
3.815,-0.001
3.820,-0.010
3.825,-0.021
3.830,-0.030
3.835,-0.038
3.840,-0.049
3.845,-0.059
3.850,-0.065
3.855,-0.065
3.860,-0.062
3.865,-0.060
3.870,-0.059
3.875,-0.063
3.880,-0.066
3.885,-0.071
3.890,-0.079
3.895,-0.077
3.900,-0.075
3.905,-0.076
3.910,-0.075
3.915,-0.077
3.920,-0.080
3.925,-0.080
3.930,-0.074
3.935,-0.068
3.940,-0.061
3.945,-0.052
3.950,-0.052
3.955,-0.056
3.960,-0.067
3.965,-0.073
3.970,-0.064
3.975,-0.060
3.980,-0.063
3.985,-0.066
3.990,-0.070
3.995,-0.070
4.000,-0.072
4.005,-0.071
4.010,-0.061
4.015,-0.052
4.020,-0.051
4.025,-0.055
4.030,-0.058
4.035,-0.056
4.040,-0.052
4.045,-0.050
4.050,-0.053
4.055,-0.050
4.060,-0.049
4.065,-0.053
4.070,-0.050
4.075,-0.049
4.080,-0.049
4.085,-0.044
4.090,-0.045
4.095,-0.042
4.100,-0.037
4.105,-0.034
4.110,-0.030
4.115,-0.030
4.120,-0.034
4.125,-0.038
4.130,-0.036
4.135,-0.031
4.140,-0.031
4.145,-0.034
4.150,-0.033
4.155,-0.028
4.160,-0.041
4.165,-0.074
4.170,-0.093
4.175,-0.087
4.180,-0.071
4.185,-0.078
4.190,-0.096
4.195,-0.081
4.200,-0.055
4.205,-0.038
4.210,-0.022
4.215,-0.007
4.220,0.015
4.225,0.037
4.230,0.043
4.235,0.038
4.240,0.040
4.245,0.051
4.250,0.059
4.255,0.059
4.260,0.049
4.265,0.041
4.270,0.041
4.275,0.038
4.280,0.037
4.285,0.039
4.290,0.036
4.295,0.030
4.300,0.026
4.305,0.025
4.310,0.018
4.315,0.011
4.320,0.017
4.325,0.038
4.330,0.076
4.335,0.077
4.340,-0.026
4.345,-0.244
4.350,-0.562
4.355,-0.910
4.360,-1.222
4.365,-1.373
4.370,-1.046
4.375,-0.284
4.380,0.386
4.385,0.698
4.390,0.744
4.395,0.666
4.400,0.538
4.405,0.350
4.410,0.186
4.415,0.160
4.420,0.173
4.425,0.135
4.430,0.129
4.435,0.145
4.440,0.123
4.445,0.101
4.450,0.103
4.455,0.097
4.460,0.085
4.465,0.080
4.470,0.070
4.475,0.055
4.480,0.054
4.485,0.057
4.490,0.049
4.495,0.040
4.500,0.036
4.505,0.034
4.510,0.026
4.515,0.016
4.520,0.009
4.525,-0.004
4.530,-0.019
4.535,-0.027
4.540,-0.029
4.545,-0.034
4.550,-0.051
4.555,-0.071
4.560,-0.079
4.565,-0.087
4.570,-0.100
4.575,-0.121
4.580,-0.146
4.585,-0.161
4.590,-0.175
4.595,-0.189
4.600,-0.195
4.605,-0.204
4.610,-0.212
4.615,-0.216
4.620,-0.215
4.625,-0.211
4.630,-0.200
4.635,-0.175
4.640,-0.141
4.645,-0.102
4.650,-0.057
4.655,-0.002
4.660,0.063
4.665,0.132
4.670,0.196
4.675,0.253
4.680,0.303
4.685,0.343
4.690,0.375
4.695,0.403
4.700,0.418
4.705,0.421
4.710,0.421
4.715,0.416
4.720,0.406
4.725,0.394
4.730,0.383
4.735,0.371
4.740,0.352
4.745,0.335
4.750,0.324
4.755,0.310
4.760,0.290
4.765,0.268
4.770,0.251
4.775,0.236
4.780,0.223
4.785,0.205
4.790,0.183
4.795,0.166
4.800,0.152
4.805,0.136
4.810,0.123
4.815,0.111
4.820,0.100
4.825,0.087
4.830,0.071
4.835,0.060
4.840,0.052
4.845,0.041
4.850,0.031
4.855,0.025
4.860,0.023
4.865,0.021
4.870,0.018
4.875,0.016
4.880,0.010
4.885,0.002
4.890,0.000
4.895,-0.003
4.900,-0.007
4.905,-0.010
4.910,-0.016
4.915,-0.013
4.920,-0.010
4.925,-0.018
4.930,-0.027
4.935,-0.030
4.940,-0.034
4.945,-0.037
4.950,-0.038
4.955,-0.040
4.960,-0.039
4.965,-0.041
4.970,-0.045
4.975,-0.047
4.980,-0.049
4.985,-0.052
4.990,-0.056
4.995,-0.056
5.000,-0.057
5.005,-0.058
5.010,-0.057
5.015,-0.059
5.020,-0.062
5.025,-0.066
5.030,-0.067
5.035,-0.068
5.040,-0.069
5.045,-0.067
5.050,-0.063
5.055,-0.060
5.060,-0.062
5.065,-0.066
5.070,-0.064
5.075,-0.064
5.080,-0.068
5.085,-0.069
5.090,-0.066
5.095,-0.063
5.100,-0.065
5.105,-0.067
5.110,-0.065
5.115,-0.066
5.120,-0.068
5.125,-0.068
5.130,-0.068
5.135,-0.069
5.140,-0.072
5.145,-0.074
5.150,-0.071
5.155,-0.065
5.160,-0.072
5.165,-0.099
5.170,-0.121
5.175,-0.119
5.180,-0.102
5.185,-0.108
5.190,-0.133
5.195,-0.129
5.200,-0.099
5.205,-0.079
5.210,-0.064
5.215,-0.045
5.220,-0.027
5.225,-0.014
5.230,-0.007
5.235,-0.003
5.240,0.005
5.245,0.014
5.250,0.018
5.255,0.020
5.260,0.015
5.265,0.005
5.270,0.008
5.275,0.008
5.280,0.003
5.285,0.002
5.290,0.002
5.295,-0.002
5.300,-0.007
5.305,-0.009
5.310,-0.012
5.315,-0.016
5.320,-0.014
5.325,0.003
5.330,0.032
5.335,0.019
5.340,-0.093
5.345,-0.309
5.350,-0.614
5.355,-0.953
5.360,-1.270
5.365,-1.373
5.370,-0.961
5.375,-0.187
5.380,0.434
5.385,0.693
5.390,0.695
5.395,0.584
5.400,0.431
5.405,0.249
5.410,0.134
5.415,0.138
5.420,0.145
5.425,0.108
5.430,0.102
5.435,0.109
5.440,0.089
5.445,0.077
5.450,0.079
5.455,0.067
5.460,0.053
5.465,0.055
5.470,0.053
5.475,0.043
5.480,0.039
5.485,0.035
5.490,0.024
5.495,0.018
5.500,0.018
5.505,0.013
5.510,0.003
5.515,-0.003
5.520,-0.007
5.525,-0.015
5.530,-0.027
5.535,-0.036
5.540,-0.046
5.545,-0.055
5.550,-0.067
5.555,-0.084
5.560,-0.100
5.565,-0.113
5.570,-0.128
5.575,-0.141
5.580,-0.154
5.585,-0.174
5.590,-0.192
5.595,-0.204
5.600,-0.218
5.605,-0.231
5.610,-0.239
5.615,-0.237
5.620,-0.230
5.625,-0.224
5.630,-0.212
5.635,-0.193
5.640,-0.164
5.645,-0.127
5.650,-0.082
5.655,-0.023
5.660,0.047
5.665,0.118
5.670,0.184
5.675,0.239
5.680,0.286
5.685,0.331
5.690,0.370
5.695,0.393
5.700,0.405
5.705,0.411
5.710,0.412
5.715,0.407
5.720,0.399
5.725,0.386
5.730,0.372
5.735,0.358
5.740,0.344
5.745,0.331
5.750,0.315
5.755,0.297
5.760,0.280
5.765,0.262
5.770,0.246
5.775,0.229
5.780,0.214
5.785,0.197
5.790,0.181
5.795,0.168
5.800,0.150
5.805,0.134
5.810,0.123
5.815,0.110
5.820,0.097
5.825,0.084
5.830,0.075
5.835,0.068
5.840,0.058
5.845,0.050
5.850,0.043
5.855,0.037
5.860,0.032
5.865,0.024
5.870,0.019
5.875,0.015
5.880,0.011
5.885,0.006
5.890,0.001
5.895,-0.003
5.900,-0.007
5.905,-0.010
5.910,-0.013
5.915,-0.017
5.920,-0.020
5.925,-0.024
5.930,-0.027
5.935,-0.027
5.940,-0.029
5.945,-0.032
5.950,-0.033
5.955,-0.037
5.960,-0.042
5.965,-0.046
5.970,-0.045
5.975,-0.046
5.980,-0.051
5.985,-0.056
5.990,-0.059
5.995,-0.059
6.000,-0.059
6.005,-0.063
6.010,-0.064
6.015,-0.065
6.020,-0.067
6.025,-0.065
6.030,-0.062
6.035,-0.063
6.040,-0.066
6.045,-0.068
6.050,-0.069
6.055,-0.068
6.060,-0.069
6.065,-0.072
6.070,-0.071
6.075,-0.070
6.080,-0.071
6.085,-0.070
6.090,-0.067
6.095,-0.066
6.100,-0.070
6.105,-0.075
6.110,-0.074
6.115,-0.073
6.120,-0.073
6.125,-0.073
6.130,-0.070
6.135,-0.067
6.140,-0.067
6.145,-0.066
6.150,-0.066
6.155,-0.063
6.160,-0.063
6.165,-0.063
6.170,-0.059
6.175,-0.060
6.180,-0.062
6.185,-0.058
6.190,-0.057
6.195,-0.059
6.200,-0.060
6.205,-0.064
6.210,-0.066
6.215,-0.062
6.220,-0.058
6.225,-0.072
6.230,-0.102
6.235,-0.122
6.240,-0.118
6.245,-0.099
6.250,-0.105
6.255,-0.125
6.260,-0.112
6.265,-0.085
6.270,-0.069
6.275,-0.052
6.280,-0.035
6.285,-0.021
6.290,-0.007
6.295,0.003
6.300,0.010
6.305,0.017
6.310,0.021
6.315,0.025
6.320,0.030
6.325,0.026
6.330,0.018
6.335,0.018
6.340,0.016
6.345,0.009
6.350,0.004
6.355,0.000
6.360,-0.001
6.365,0.006
6.370,0.008
6.375,0.000
6.380,-0.006
6.385,0.005
6.390,0.034
6.395,0.038
6.400,-0.046
6.405,-0.234
6.410,-0.511
6.415,-0.840
6.420,-1.165
6.425,-1.354
6.430,-1.079
6.435,-0.340
6.440,0.343
6.445,0.671
6.450,0.711
6.455,0.607
6.460,0.463
6.465,0.284
6.470,0.142
6.475,0.131
6.480,0.148
6.485,0.113
6.490,0.092
6.495,0.095
6.500,0.081
6.505,0.074
6.510,0.083
6.515,0.071
6.520,0.054
6.525,0.055
6.530,0.053
6.535,0.038
6.540,0.029
6.545,0.031
6.550,0.024
6.555,0.010
6.560,0.005
6.565,-0.001
6.570,-0.006
6.575,-0.011
6.580,-0.019
6.585,-0.021
6.590,-0.027
6.595,-0.039
6.600,-0.048
6.605,-0.054
6.610,-0.064
6.615,-0.077
6.620,-0.092
6.625,-0.110
6.630,-0.122
6.635,-0.132
6.640,-0.148
6.645,-0.166
6.650,-0.190
6.655,-0.210
6.660,-0.217
6.665,-0.227
6.670,-0.238
6.675,-0.243
6.680,-0.237
6.685,-0.226
6.690,-0.216
6.695,-0.196
6.700,-0.171
6.705,-0.139
6.710,-0.097
6.715,-0.048
6.720,0.013
6.725,0.079
6.730,0.140
6.735,0.197
6.740,0.255
6.745,0.308
6.750,0.348
6.755,0.378
6.760,0.399
6.765,0.406
6.770,0.405
6.775,0.408
6.780,0.411
6.785,0.404
6.790,0.385
6.795,0.368
6.800,0.358
6.805,0.344
6.810,0.321
6.815,0.302
6.820,0.290
6.825,0.273
6.830,0.252
6.835,0.233
6.840,0.213
6.845,0.203
6.850,0.196
6.855,0.186
6.860,0.175
6.865,0.156
6.870,0.137
6.875,0.121
6.880,0.104
6.885,0.094
6.890,0.089
6.895,0.078
6.900,0.065
6.905,0.054
6.910,0.051
6.915,0.047
6.920,0.037
6.925,0.028
6.930,0.025
6.935,0.023
6.940,0.020
6.945,0.015
6.950,0.008
6.955,0.005
6.960,0.007
6.965,0.009
6.970,0.001
6.975,-0.014
6.980,-0.021
6.985,-0.021
6.990,-0.023
6.995,-0.024
7.000,-0.025
7.005,-0.029
7.010,-0.035
7.015,-0.042
7.020,-0.043
7.025,-0.037
7.030,-0.035
7.035,-0.037
7.040,-0.042
7.045,-0.048
7.050,-0.052
7.055,-0.057
7.060,-0.059
7.065,-0.064
7.070,-0.059
7.075,-0.054
7.080,-0.063
7.085,-0.068
7.090,-0.068
7.095,-0.064
7.100,-0.058
7.105,-0.061
7.110,-0.063
7.115,-0.065
7.120,-0.066
7.125,-0.069
7.130,-0.074
7.135,-0.076
7.140,-0.077
7.145,-0.071
7.150,-0.077
7.155,-0.106
7.160,-0.128
7.165,-0.135
7.170,-0.128
7.175,-0.129
7.180,-0.144
7.185,-0.139
7.190,-0.116
7.195,-0.100
7.200,-0.085
7.205,-0.068
7.210,-0.052
7.215,-0.032
7.220,-0.018
7.225,-0.021
7.230,-0.019
7.235,-0.012
7.240,-0.008
7.245,-0.005
7.250,-0.015
7.255,-0.021
7.260,-0.016
7.265,-0.012
7.270,-0.012
7.275,-0.010
7.280,-0.006
7.285,-0.013
7.290,-0.024
7.295,-0.025
7.300,-0.028
7.305,-0.035
7.310,-0.042
7.315,-0.036
7.320,0.002
7.325,0.034
7.330,-0.024
7.335,-0.198
7.340,-0.482
7.345,-0.823
7.350,-1.148
7.355,-1.405
7.360,-1.306
7.365,-0.667
7.370,0.109
7.375,0.574
7.380,0.703
7.385,0.659
7.390,0.549
7.395,0.383
7.400,0.192
7.405,0.107
7.410,0.122
7.415,0.099
7.420,0.072
7.425,0.088
7.430,0.079
7.435,0.048
7.440,0.047
7.445,0.059
7.450,0.052
7.455,0.045
7.460,0.041
7.465,0.024
7.470,0.015
7.475,0.016
7.480,0.010
7.485,0.002
7.490,-0.001
7.495,-0.006
7.500,-0.014
7.505,-0.022
7.510,-0.032
7.515,-0.043
7.520,-0.051
7.525,-0.054
7.530,-0.060
7.535,-0.075
7.540,-0.093
7.545,-0.105
7.550,-0.115
7.555,-0.128
7.560,-0.139
7.565,-0.154
7.570,-0.173
7.575,-0.188
7.580,-0.201
7.585,-0.211
7.590,-0.222
7.595,-0.233
7.600,-0.241
7.605,-0.247
7.610,-0.248
7.615,-0.238
7.620,-0.216
7.625,-0.194
7.630,-0.172
7.635,-0.137
7.640,-0.088
7.645,-0.038
7.650,0.023
7.655,0.097
7.660,0.169
7.665,0.231
7.670,0.282
7.675,0.324
7.680,0.363
7.685,0.388
7.690,0.396
7.695,0.404
7.700,0.408
7.705,0.402
7.710,0.397
7.715,0.397
7.720,0.394
7.725,0.382
7.730,0.365
7.735,0.349
7.740,0.332
7.745,0.310
7.750,0.287
7.755,0.272
7.760,0.258
7.765,0.235
7.770,0.211
7.775,0.196
7.780,0.186
7.785,0.174
7.790,0.161
7.795,0.149
7.800,0.134
7.805,0.110
7.810,0.090
7.815,0.081
7.820,0.076
7.825,0.066
7.830,0.051
7.835,0.040
7.840,0.032
7.845,0.026
7.850,0.028
7.855,0.030
7.860,0.026
7.865,0.015
7.870,0.011
7.875,0.012
7.880,0.004
7.885,-0.004
7.890,-0.007
7.895,-0.011
7.900,-0.016
7.905,-0.019
7.910,-0.022
7.915,-0.031
7.920,-0.043
7.925,-0.047
7.930,-0.050
7.935,-0.051
7.940,-0.038
7.945,-0.025
7.950,-0.029
7.955,-0.040
7.960,-0.051
7.965,-0.045
7.970,-0.030
7.975,-0.037
7.980,-0.057
7.985,-0.067
7.990,-0.066
7.995,-0.069
8.000,-0.073
8.005,-0.081
8.010,-0.150
8.015,-0.245
8.020,-0.248
8.025,-0.158
8.030,-0.049
8.035,-0.029
8.040,-0.092
8.045,-0.105
8.050,-0.079
8.055,-0.068
8.060,-0.052
8.065,-0.040
8.070,-0.039
8.075,-0.033
8.080,-0.026
8.085,-0.020
8.090,-0.012
8.095,-0.013
8.100,-0.021
8.105,-0.011
8.110,0.004
8.115,-0.017
8.120,-0.073
8.125,-0.097
8.130,-0.039
8.135,0.036
8.140,0.043
8.145,-0.007
8.150,-0.077
8.155,-0.151
8.160,-0.159
8.165,-0.021
8.170,0.095
8.175,0.061
8.180,0.020
8.185,0.007
8.190,-0.025
8.195,-0.165
8.200,-0.462
8.205,-0.788
8.210,-1.100
8.215,-1.379
8.220,-1.294
8.225,-0.669
8.230,0.076
8.235,0.541
8.240,0.689
8.245,0.626
8.250,0.434
8.255,0.220
8.260,0.116
8.265,0.148
8.270,0.205
8.275,0.161
8.280,0.088
8.285,0.096
8.290,0.094
8.295,0.049
8.300,0.042
8.305,0.053
8.310,0.039
8.315,0.023
8.320,0.023
8.325,0.016
8.330,0.004
8.335,0.005
8.340,0.004
8.345,-0.006
8.350,-0.011
8.355,-0.014
8.360,-0.022
8.365,-0.030
8.370,-0.034
8.375,-0.040
8.380,-0.050
8.385,-0.057
8.390,-0.066
8.395,-0.077
8.400,-0.086
8.405,-0.097
8.410,-0.106
8.415,-0.116
8.420,-0.134
8.425,-0.157
8.430,-0.177
8.435,-0.193
8.440,-0.210
8.445,-0.225
8.450,-0.238
8.455,-0.247
8.460,-0.254
8.465,-0.259
8.470,-0.256
8.475,-0.247
8.480,-0.237
8.485,-0.219
8.490,-0.190
8.495,-0.150
8.500,-0.099
8.505,-0.040
8.510,0.027
8.515,0.097
8.520,0.165
8.525,0.226
8.530,0.278
8.535,0.324
8.540,0.359
8.545,0.383
8.550,0.398
8.555,0.404
8.560,0.407
8.565,0.404
8.570,0.397
8.575,0.386
8.580,0.368
8.585,0.351
8.590,0.336
8.595,0.321
8.600,0.307
8.605,0.291
8.610,0.277
8.615,0.263
8.620,0.248
8.625,0.232
8.630,0.215
8.635,0.199
8.640,0.184
8.645,0.166
8.650,0.151
8.655,0.140
8.660,0.130
8.665,0.119
8.670,0.109
8.675,0.098
8.680,0.087
8.685,0.076
8.690,0.065
8.695,0.058
8.700,0.052
8.705,0.045
8.710,0.041
8.715,0.036
8.720,0.031
8.725,0.026
8.730,0.021
8.735,0.018
8.740,0.013
8.745,0.009
8.750,0.005
8.755,0.001
8.760,-0.001
8.765,-0.006
8.770,-0.008
8.775,-0.009
8.780,-0.014
8.785,-0.017
8.790,-0.020
8.795,-0.023
8.800,-0.025
8.805,-0.026
8.810,-0.028
8.815,-0.031
8.820,-0.037
8.825,-0.045
8.830,-0.055
8.835,-0.064
8.840,-0.081
8.845,-0.102
8.850,-0.117
8.855,-0.122
8.860,-0.115
8.865,-0.114
8.870,-0.130
8.875,-0.141
8.880,-0.131
8.885,-0.110
8.890,-0.093
8.895,-0.076
8.900,-0.062
8.905,-0.047
8.910,-0.028
8.915,-0.020
8.920,-0.013
8.925,-0.004
8.930,0.000
8.935,0.001
8.940,0.000
8.945,-0.006
8.950,-0.012
8.955,-0.013
8.960,-0.016
8.965,-0.023
8.970,-0.029
8.975,-0.035
8.980,-0.041
8.985,-0.041
8.990,-0.042
8.995,-0.045
9.000,-0.047
9.005,-0.046
9.010,-0.034
9.015,-0.010
9.020,-0.018
9.025,-0.118
9.030,-0.318
9.035,-0.607
9.040,-0.945
9.045,-1.263
9.050,-1.396
9.055,-1.038
9.060,-0.274
9.065,0.369
9.070,0.650
9.075,0.667
9.080,0.554
9.085,0.399
9.090,0.216
9.095,0.092
9.100,0.092
9.105,0.102
9.110,0.064
9.115,0.055
9.120,0.065
9.125,0.044
9.130,0.026
9.135,0.031
9.140,0.022
9.145,0.006
9.150,0.007
9.155,0.008
9.160,0.000
9.165,-0.005
9.170,-0.006
9.175,-0.010
9.180,-0.014
9.185,-0.018
9.190,-0.027
9.195,-0.034
9.200,-0.038
9.205,-0.046
9.210,-0.057
9.215,-0.065
9.220,-0.072
9.225,-0.083
9.230,-0.095
9.235,-0.104
9.240,-0.113
9.245,-0.123
9.250,-0.141
9.255,-0.159
9.260,-0.173
9.265,-0.189
9.270,-0.207
9.275,-0.226
9.280,-0.241
9.285,-0.252
9.290,-0.261
9.295,-0.263
9.300,-0.262
9.305,-0.257
9.310,-0.245
9.315,-0.227
9.320,-0.199
9.325,-0.163
9.330,-0.118
9.335,-0.061
9.340,0.004
9.345,0.077
9.350,0.151
9.355,0.216
9.360,0.272
9.365,0.319
9.370,0.361
9.375,0.390
9.380,0.404
9.385,0.413
9.390,0.414
9.395,0.406
9.400,0.398
9.405,0.390
9.410,0.377
9.415,0.364
9.420,0.351
9.425,0.336
9.430,0.317
9.435,0.297
9.440,0.277
9.445,0.259
9.450,0.248
9.455,0.238
9.460,0.226
9.465,0.210
9.470,0.187
9.475,0.166
9.480,0.152
9.485,0.137
9.490,0.123
9.495,0.116
9.500,0.108
9.505,0.097
9.510,0.088
9.515,0.076
9.520,0.064
9.525,0.057
9.530,0.053
9.535,0.047
9.540,0.039
9.545,0.033
9.550,0.028
9.555,0.022
9.560,0.015
9.565,0.007
9.570,0.006
9.575,0.005
9.580,-0.002
9.585,-0.011
9.590,-0.014
9.595,-0.012
9.600,-0.010
9.605,-0.014
9.610,-0.016
9.615,-0.016
9.620,-0.021
9.625,-0.033
9.630,-0.042
9.635,-0.042
9.640,-0.048
9.645,-0.063
9.650,-0.074
9.655,-0.085
9.660,-0.102
9.665,-0.113
9.670,-0.115
9.675,-0.107
9.680,-0.109
9.685,-0.134
9.690,-0.145
9.695,-0.128
9.700,-0.105
9.705,-0.086
9.710,-0.073
9.715,-0.066
9.720,-0.052
9.725,-0.037
9.730,-0.030
9.735,-0.015
9.740,0.001
9.745,0.010
9.750,0.013
9.755,0.001
9.760,-0.008
9.765,-0.014
9.770,-0.020
9.775,-0.025
9.780,-0.030
9.785,-0.034
9.790,-0.037
9.795,-0.038
9.800,-0.039
9.805,-0.045
9.810,-0.049
9.815,-0.050
9.820,-0.047
9.825,-0.028
9.830,0.006
9.835,0.009
9.840,-0.085
9.845,-0.292
9.850,-0.597
9.855,-0.937
9.860,-1.253
9.865,-1.415
9.870,-1.118
9.875,-0.385
9.880,0.287
9.885,0.616
9.890,0.678
9.895,0.606
9.900,0.469
9.905,0.276
9.910,0.115
9.915,0.087
9.920,0.098
9.925,0.061
9.930,0.048
9.935,0.061
9.940,0.047
9.945,0.035
9.950,0.038
9.955,0.030
9.960,0.009
9.965,0.003
9.970,0.006
9.975,-0.002
9.980,-0.008
9.985,-0.008
9.990,-0.013
9.995,-0.016
10.000,-0.017
10.005,-0.027
10.010,-0.037
10.015,-0.043
10.020,-0.048
10.025,-0.057
10.030,-0.065
10.035,-0.074
10.040,-0.087
10.045,-0.093
10.050,-0.096
10.055,-0.111
10.060,-0.129
10.065,-0.147
10.070,-0.160
10.075,-0.172
10.080,-0.189
10.085,-0.202
10.090,-0.214
10.095,-0.225
10.100,-0.236
10.105,-0.248
10.110,-0.253
10.115,-0.252
10.120,-0.247
10.125,-0.241
10.130,-0.230
10.135,-0.203
10.140,-0.164
10.145,-0.109
10.150,-0.041
10.155,0.029
10.160,0.094
10.165,0.153
10.170,0.215
10.175,0.275
10.180,0.319
10.185,0.353
10.190,0.383
10.195,0.404
10.200,0.412
10.205,0.410
10.210,0.403
10.215,0.397
10.220,0.387
10.225,0.371
10.230,0.361
10.235,0.348
10.240,0.330
10.245,0.316
10.250,0.301
10.255,0.282
10.260,0.266
10.265,0.249
10.270,0.230
10.275,0.212
10.280,0.195
10.285,0.180
10.290,0.164
10.295,0.147
10.300,0.134
10.305,0.124
10.310,0.110
10.315,0.091
10.320,0.082
10.325,0.077
10.330,0.066
10.335,0.058
10.340,0.049
10.345,0.038
10.350,0.034
10.355,0.031
10.360,0.029
10.365,0.024
10.370,0.019
10.375,0.014
10.380,0.008
10.385,0.003
10.390,-0.003
10.395,-0.007
10.400,-0.009
10.405,-0.012
10.410,-0.012
10.415,-0.012
10.420,-0.015
10.425,-0.019
10.430,-0.026
10.435,-0.033
10.440,-0.038
10.445,-0.039
10.450,-0.040
10.455,-0.041
10.460,-0.041
10.465,-0.045
10.470,-0.052
10.475,-0.058
10.480,-0.066
10.485,-0.077
10.490,-0.094
10.495,-0.109
10.500,-0.115
10.505,-0.114
10.510,-0.111
10.515,-0.120
10.520,-0.142
10.525,-0.147
10.530,-0.129
10.535,-0.102
10.540,-0.080
10.545,-0.067
10.550,-0.055
10.555,-0.038
10.560,-0.027
10.565,-0.023
10.570,-0.012
10.575,-0.001
10.580,0.001
10.585,-0.001
10.590,-0.008
10.595,-0.012
10.600,-0.013
10.605,-0.016
10.610,-0.017
10.615,-0.019
10.620,-0.023
10.625,-0.029
10.630,-0.033
10.635,-0.037
10.640,-0.043
10.645,-0.044
10.650,-0.043
10.655,-0.046
10.660,-0.038
10.665,-0.005
10.670,0.013
10.675,-0.056
10.680,-0.235
10.685,-0.521
10.690,-0.864
10.695,-1.192
10.700,-1.417
10.705,-1.234
10.710,-0.548
10.715,0.176
10.720,0.581
10.725,0.683
10.730,0.625
10.735,0.505
10.740,0.324
10.745,0.149
10.750,0.099
10.755,0.115
10.760,0.083
10.765,0.058
10.770,0.071
10.775,0.060
10.780,0.035
10.785,0.039
10.790,0.041
10.795,0.026
10.800,0.021
10.805,0.019
10.810,0.010
10.815,0.006
10.820,0.005
10.825,-0.001
10.830,-0.008
10.835,-0.011
10.840,-0.014
10.845,-0.022
10.850,-0.029
10.855,-0.036
10.860,-0.044
10.865,-0.051
10.870,-0.060
10.875,-0.070
10.880,-0.080
10.885,-0.090
10.890,-0.101
10.895,-0.116
10.900,-0.130
10.905,-0.144
10.910,-0.160
10.915,-0.177
10.920,-0.192
10.925,-0.206
10.930,-0.220
10.935,-0.230
10.940,-0.239
10.945,-0.245
10.950,-0.247
10.955,-0.246
10.960,-0.238
10.965,-0.224
10.970,-0.202
10.975,-0.169
10.980,-0.127
10.985,-0.073
10.990,-0.008
10.995,0.063
11.000,0.133
11.005,0.196
11.010,0.252
11.015,0.298
11.020,0.336
11.025,0.367
11.030,0.387
11.035,0.398
11.040,0.401
11.045,0.400
11.050,0.396
11.055,0.384
11.060,0.371
11.065,0.358
11.070,0.342
11.075,0.326
11.080,0.311
11.085,0.294
11.090,0.279
11.095,0.266
11.100,0.250
11.105,0.232
11.110,0.215
11.115,0.198
11.120,0.182
11.125,0.168
11.130,0.154
11.135,0.140
11.140,0.127
11.145,0.115
11.150,0.104
11.155,0.093
11.160,0.081
11.165,0.069
11.170,0.060
11.175,0.053
11.180,0.047
11.185,0.044
11.190,0.038
11.195,0.031
11.200,0.026
11.205,0.022
11.210,0.020
11.215,0.015
11.220,0.011
11.225,0.008
11.230,0.004
11.235,0.002
11.240,-0.004
11.245,-0.007
11.250,-0.010
11.255,-0.016
11.260,-0.019
11.265,-0.021
11.270,-0.024
11.275,-0.025
11.280,-0.029
11.285,-0.032
11.290,-0.037
11.295,-0.041
11.300,-0.044
11.305,-0.046
11.310,-0.045
11.315,-0.045
11.320,-0.048
11.325,-0.050
11.330,-0.053
11.335,-0.055
11.340,-0.056
11.345,-0.057
11.350,-0.059
11.355,-0.059
11.360,-0.060
11.365,-0.062
11.370,-0.063
11.375,-0.064
11.380,-0.065
11.385,-0.063
11.390,-0.065
11.395,-0.066
11.400,-0.066
11.405,-0.068
11.410,-0.066
11.415,-0.065
11.420,-0.064
11.425,-0.064
11.430,-0.065
11.435,-0.065
11.440,-0.064
11.445,-0.064
11.450,-0.063
11.455,-0.065
11.460,-0.071
11.465,-0.076
11.470,-0.071
11.475,-0.074
11.480,-0.100
11.485,-0.126
11.490,-0.128
11.495,-0.112
11.500,-0.110
11.505,-0.133
11.510,-0.133
11.515,-0.104
11.520,-0.081
11.525,-0.067
11.530,-0.049
11.535,-0.034
11.540,-0.018
11.545,-0.009
11.550,-0.006
11.555,0.000
11.560,0.008
11.565,0.015
11.570,0.021
11.575,0.018
11.580,0.008
11.585,0.005
11.590,0.005
11.595,0.000
11.600,-0.001
11.605,-0.003
11.610,-0.006
11.615,-0.009
11.620,-0.011
11.625,-0.013
11.630,-0.017
11.635,-0.021
11.640,-0.019
11.645,-0.004
11.650,0.024
11.655,0.014
11.660,-0.090
11.665,-0.297
11.670,-0.593
11.675,-0.926
11.680,-1.240
11.685,-1.348
11.690,-0.950
11.695,-0.184
11.700,0.433
11.705,0.689
11.710,0.690
11.715,0.575
11.720,0.421
11.725,0.238
11.730,0.121
11.735,0.127
11.740,0.135
11.745,0.098
11.750,0.093
11.755,0.098
11.760,0.077
11.765,0.064
11.770,0.069
11.775,0.061
11.780,0.047
11.785,0.047
11.790,0.045
11.795,0.033
11.800,0.028
11.805,0.023
11.810,0.017
11.815,0.011
11.820,0.007
11.825,0.000
11.830,-0.008
11.835,-0.013
11.840,-0.021
11.845,-0.028
11.850,-0.032
11.855,-0.042
11.860,-0.053
11.865,-0.065
11.870,-0.077
11.875,-0.091
11.880,-0.106
11.885,-0.119
11.890,-0.133
11.895,-0.145
11.900,-0.158
11.905,-0.173
11.910,-0.186
11.915,-0.201
11.920,-0.214
11.925,-0.224
11.930,-0.230
11.935,-0.230
11.940,-0.230
11.945,-0.226
11.950,-0.214
11.955,-0.194
11.960,-0.167
11.965,-0.135
11.970,-0.089
11.975,-0.030
11.980,0.033
11.985,0.100
11.990,0.165
11.995,0.225
12.000,0.277
12.005,0.321
12.010,0.355
12.015,0.377
12.020,0.391
12.025,0.400
12.030,0.404
12.035,0.401
12.040,0.394
12.045,0.385
12.050,0.378
12.055,0.360
12.060,0.339
12.065,0.323
12.070,0.306
12.075,0.288
12.080,0.271
12.085,0.253
12.090,0.234
12.095,0.218
12.100,0.206
12.105,0.191
12.110,0.179
12.115,0.162
12.120,0.144
12.125,0.132
12.130,0.122
12.135,0.113
12.140,0.104
12.145,0.094
12.150,0.085
12.155,0.075
12.160,0.064
12.165,0.054
12.170,0.051
12.175,0.047
12.180,0.039
12.185,0.035
12.190,0.030
12.195,0.025
12.200,0.022
12.205,0.018
12.210,0.017
12.215,0.016
12.220,0.011
12.225,0.007
12.230,-0.002
12.235,-0.009
12.240,-0.010
12.245,-0.012
12.250,-0.016
12.255,-0.020
12.260,-0.022
12.265,-0.025
12.270,-0.032
12.275,-0.034
12.280,-0.034
12.285,-0.038
12.290,-0.046
12.295,-0.048
12.300,-0.041
12.305,-0.038
12.310,-0.043
12.315,-0.050
12.320,-0.053
12.325,-0.054
12.330,-0.056
12.335,-0.057
12.340,-0.059
12.345,-0.064
12.350,-0.069
12.355,-0.068
12.360,-0.063
12.365,-0.061
12.370,-0.062
12.375,-0.064
12.380,-0.067
12.385,-0.068
12.390,-0.068
12.395,-0.068
12.400,-0.067
12.405,-0.069
12.410,-0.068
12.415,-0.066
12.420,-0.065
12.425,-0.065
12.430,-0.070
12.435,-0.075
12.440,-0.076
12.445,-0.072
12.450,-0.065
12.455,-0.061
12.460,-0.062
12.465,-0.065
12.470,-0.072
12.475,-0.070
12.480,-0.061
12.485,-0.060
12.490,-0.060
12.495,-0.056
12.500,-0.057
12.505,-0.061
12.510,-0.059
12.515,-0.056
12.520,-0.053
12.525,-0.054
12.530,-0.060
12.535,-0.059
12.540,-0.057
12.545,-0.052
12.550,-0.044
12.555,-0.043
12.560,-0.051
12.565,-0.059
12.570,-0.054
12.575,-0.044
12.580,-0.065
12.585,-0.100
12.590,-0.112
12.595,-0.098
12.600,-0.085
12.605,-0.108
12.610,-0.130
12.615,-0.109
12.620,-0.080
12.625,-0.059
12.630,-0.043
12.635,-0.023
12.640,0.001
12.645,0.010
12.650,0.008
12.655,0.010
12.660,0.022
12.665,0.038
12.670,0.045
12.675,0.043
12.680,0.031
12.685,0.025
12.690,0.023
12.695,0.018
12.700,0.014
12.705,0.009
12.710,0.007
12.715,0.008
12.720,0.008
12.725,0.008
12.730,0.003
12.735,-0.008
12.740,-0.004
12.745,0.029
12.750,0.066
12.755,0.039
12.760,-0.103
12.765,-0.364
12.770,-0.693
12.775,-1.020
12.780,-1.296
12.785,-1.278
12.790,-0.741
12.795,0.016
12.800,0.533
12.805,0.708
12.810,0.686
12.815,0.581
12.820,0.418
12.825,0.227
12.830,0.128
12.835,0.144
12.840,0.140
12.845,0.110
12.850,0.115
12.855,0.110
12.860,0.081
12.865,0.072
12.870,0.074
12.875,0.059
12.880,0.046
12.885,0.046
12.890,0.042
12.895,0.035
12.900,0.034
12.905,0.029
12.910,0.022
12.915,0.020
12.920,0.016
12.925,0.006
12.930,-0.005
12.935,-0.009
12.940,-0.015
12.945,-0.024
12.950,-0.034
12.955,-0.046
12.960,-0.055
12.965,-0.065
12.970,-0.077
12.975,-0.089
12.980,-0.101
12.985,-0.110
12.990,-0.119
12.995,-0.130
13.000,-0.140
13.005,-0.155
13.010,-0.174
13.015,-0.186
13.020,-0.194
13.025,-0.201
13.030,-0.202
13.035,-0.200
13.040,-0.197
13.045,-0.188
13.050,-0.174
13.055,-0.158
13.060,-0.132
13.065,-0.096
13.070,-0.055
13.075,-0.008
13.080,0.042
13.085,0.097
13.090,0.156
13.095,0.214
13.100,0.266
13.105,0.303
13.110,0.333
13.115,0.353
13.120,0.365
13.125,0.377
13.130,0.384
13.135,0.385
13.140,0.374
13.145,0.358
13.150,0.348
13.155,0.344
13.160,0.338
13.165,0.321
13.170,0.300
13.175,0.279
13.180,0.257
13.185,0.237
13.190,0.215
13.195,0.202
13.200,0.191
13.205,0.174
13.210,0.158
13.215,0.140
13.220,0.125
13.225,0.116
13.230,0.103
13.235,0.092
13.240,0.083
13.245,0.073
13.250,0.062
13.255,0.047
13.260,0.037
13.265,0.034
13.270,0.037
13.275,0.039
13.280,0.029
13.285,0.019
13.290,0.014
13.295,0.014
13.300,0.014
13.305,0.004
13.310,-0.007
13.315,-0.012
13.320,-0.009
13.325,-0.007
13.330,-0.008
13.335,-0.008
13.340,-0.012
13.345,-0.020
13.350,-0.028
13.355,-0.031
13.360,-0.025
13.365,-0.024
13.370,-0.028
13.375,-0.031
13.380,-0.041
13.385,-0.042
13.390,-0.045
13.395,-0.050
13.400,-0.045
13.405,-0.043
13.410,-0.045
13.415,-0.048
13.420,-0.055
13.425,-0.060
13.430,-0.061
13.435,-0.057
13.440,-0.055
13.445,-0.059
13.450,-0.061
13.455,-0.060
13.460,-0.056
13.465,-0.055
13.470,-0.057
13.475,-0.059
13.480,-0.066
13.485,-0.079
13.490,-0.086
13.495,-0.073
13.500,-0.062
13.505,-0.063
13.510,-0.059
13.515,-0.062
13.520,-0.063
13.525,-0.062
13.530,-0.069
13.535,-0.066
13.540,-0.058
13.545,-0.058
13.550,-0.056
13.555,-0.062
13.560,-0.073
13.565,-0.075
13.570,-0.072
13.575,-0.073
13.580,-0.092
13.585,-0.118
13.590,-0.124
13.595,-0.112
13.600,-0.107
13.605,-0.130
13.610,-0.133
13.615,-0.102
13.620,-0.082
13.625,-0.071
13.630,-0.059
13.635,-0.043
13.640,-0.021
13.645,-0.012
13.650,-0.011
13.655,-0.002
13.660,0.010
13.665,0.015
13.670,0.014
13.675,0.010
13.680,0.007
13.685,0.004
13.690,0.003
13.695,-0.003
13.700,-0.007
13.705,-0.006
13.710,-0.009
13.715,-0.014
13.720,-0.014
13.725,-0.013
13.730,-0.021
13.735,-0.027
13.740,-0.028
13.745,-0.011
13.750,0.034
13.755,0.051
13.760,-0.037
13.765,-0.245
13.770,-0.561
13.775,-0.914
13.780,-1.232
13.785,-1.413
13.790,-1.142
13.795,-0.399
13.800,0.297
13.805,0.640
13.810,0.708
13.815,0.643
13.820,0.521
13.825,0.338
13.830,0.170
13.835,0.138
13.840,0.156
13.845,0.119
13.850,0.099
13.855,0.108
13.860,0.086
13.865,0.061
13.870,0.069
13.875,0.069
13.880,0.049
13.885,0.048
13.890,0.053
13.895,0.044
13.900,0.036
13.905,0.030
13.910,0.023
13.915,0.017
13.920,0.017
13.925,0.010
13.930,-0.002
13.935,-0.009
13.940,-0.014
13.945,-0.020
13.950,-0.026
13.955,-0.035
13.960,-0.045
13.965,-0.054
13.970,-0.064
13.975,-0.075
13.980,-0.090
13.985,-0.107
13.990,-0.125
13.995,-0.140
14.000,-0.152
14.005,-0.164
14.010,-0.174
14.015,-0.184
14.020,-0.193
14.025,-0.204
14.030,-0.214
14.035,-0.217
14.040,-0.213
14.045,-0.204
14.050,-0.192
14.055,-0.177
14.060,-0.148
14.065,-0.111
14.070,-0.069
14.075,-0.017
14.080,0.040
14.085,0.104
14.090,0.168
14.095,0.226
14.100,0.278
14.105,0.318
14.110,0.349
14.115,0.372
14.120,0.386
14.125,0.391
14.130,0.391
14.135,0.388
14.140,0.381
14.145,0.372
14.150,0.363
14.155,0.351
14.160,0.339
14.165,0.326
14.170,0.311
14.175,0.295
14.180,0.275
14.185,0.255
14.190,0.235
14.195,0.217
14.200,0.202
14.205,0.185
14.210,0.166
14.215,0.147
14.220,0.130
14.225,0.115
14.230,0.102
14.235,0.091
14.240,0.080
14.245,0.069
14.250,0.059
14.255,0.050
14.260,0.044
14.265,0.038
14.270,0.029
14.275,0.024
14.280,0.020
14.285,0.014
14.290,0.010
14.295,0.006
14.300,0.004
14.305,0.003
14.310,-0.002
14.315,-0.009
14.320,-0.013
14.325,-0.016
14.330,-0.019
14.335,-0.017
14.340,-0.020
14.345,-0.025
14.350,-0.027
14.355,-0.031
14.360,-0.033
14.365,-0.036
14.370,-0.043
14.375,-0.044
14.380,-0.045
14.385,-0.045
14.390,-0.045
14.395,-0.046
14.400,-0.048
14.405,-0.051
14.410,-0.054
14.415,-0.057
14.420,-0.059
14.425,-0.059
14.430,-0.062
14.435,-0.064
14.440,-0.065
14.445,-0.064
14.450,-0.065
14.455,-0.067
14.460,-0.065
14.465,-0.065
14.470,-0.068
14.475,-0.071
14.480,-0.073
14.485,-0.073
14.490,-0.074
14.495,-0.075
14.500,-0.072
14.505,-0.069
14.510,-0.068
14.515,-0.068
14.520,-0.069
14.525,-0.067
14.530,-0.066
14.535,-0.065
14.540,-0.065
14.545,-0.065
14.550,-0.063
14.555,-0.063
14.560,-0.063
14.565,-0.065
14.570,-0.066
14.575,-0.062
14.580,-0.060
14.585,-0.059
14.590,-0.057
14.595,-0.056
14.600,-0.056
14.605,-0.057
14.610,-0.056
14.615,-0.053
14.620,-0.052
14.625,-0.052
14.630,-0.052
14.635,-0.050
14.640,-0.048
14.645,-0.048
14.650,-0.047
14.655,-0.052
14.660,-0.054
14.665,-0.048
14.670,-0.044
14.675,-0.060
14.680,-0.093
14.685,-0.106
14.690,-0.095
14.695,-0.084
14.700,-0.097
14.705,-0.113
14.710,-0.090
14.715,-0.061
14.720,-0.048
14.725,-0.035
14.730,-0.020
14.735,-0.005
14.740,0.006
14.745,0.011
14.750,0.020
14.755,0.027
14.760,0.033
14.765,0.037
14.770,0.039
14.775,0.035
14.780,0.030
14.785,0.031
14.790,0.025
14.795,0.018
14.800,0.019
14.805,0.019
14.810,0.014
14.815,0.009
14.820,0.007
14.825,0.005
14.830,0.003
14.835,0.009
14.840,0.033
14.845,0.052
14.850,0.002
14.855,-0.148
14.860,-0.401
14.865,-0.728
14.870,-1.062
14.875,-1.329
14.880,-1.238
14.885,-0.615
14.890,0.141
14.895,0.603
14.900,0.725
14.905,0.657
14.910,0.527
14.915,0.357
14.920,0.189
14.925,0.133
14.930,0.156
14.935,0.137
14.940,0.107
14.945,0.116
14.950,0.109
14.955,0.082
14.960,0.079
14.965,0.079
14.970,0.064
14.975,0.057
14.980,0.057
14.985,0.049
14.990,0.040
14.995,0.038
15.000,0.034
15.005,0.025
15.010,0.020
15.015,0.017
15.020,0.011
15.025,0.005
15.030,-0.004
15.035,-0.014
15.040,-0.022
15.045,-0.029
15.050,-0.038
15.055,-0.051
15.060,-0.061
15.065,-0.072
15.070,-0.084
15.075,-0.097
15.080,-0.112
15.085,-0.126
15.090,-0.140
15.095,-0.155
15.100,-0.169
15.105,-0.184
15.110,-0.197
15.115,-0.207
15.120,-0.216
15.125,-0.222
15.130,-0.220
15.135,-0.216
15.140,-0.207
15.145,-0.193
15.150,-0.172
15.155,-0.146
15.160,-0.112
15.165,-0.068
15.170,-0.014
15.175,0.047
15.180,0.107
15.185,0.169
15.190,0.230
15.195,0.281
15.200,0.323
15.205,0.354
15.210,0.377
15.215,0.393
15.220,0.400
15.225,0.402
15.230,0.398
15.235,0.391
15.240,0.380
15.245,0.367
15.250,0.355
15.255,0.339
15.260,0.321
15.265,0.306
15.270,0.289
15.275,0.274
15.280,0.256
15.285,0.236
15.290,0.217
15.295,0.199
15.300,0.183
15.305,0.167
15.310,0.152
15.315,0.140
15.320,0.124
15.325,0.110
15.330,0.101
15.335,0.090
15.340,0.079
15.345,0.068
15.350,0.059
15.355,0.050
15.360,0.042
15.365,0.035
15.370,0.029
15.375,0.026
15.380,0.021
15.385,0.016
15.390,0.011
15.395,0.009
15.400,0.008
15.405,0.005
15.410,0.002
15.415,-0.001
15.420,-0.006
15.425,-0.008
15.430,-0.011
15.435,-0.016
15.440,-0.020
15.445,-0.025
15.450,-0.029
15.455,-0.031
15.460,-0.033
15.465,-0.036
15.470,-0.038
15.475,-0.041
15.480,-0.045
15.485,-0.047
15.490,-0.046
15.495,-0.050
15.500,-0.053
15.505,-0.056
15.510,-0.057
15.515,-0.057
15.520,-0.059
15.525,-0.062
15.530,-0.063
15.535,-0.064
15.540,-0.065
15.545,-0.064
15.550,-0.064
15.555,-0.066
15.560,-0.069
15.565,-0.069
15.570,-0.069
15.575,-0.068
15.580,-0.070
15.585,-0.072
15.590,-0.072
15.595,-0.071
15.600,-0.070
15.605,-0.071
15.610,-0.071
15.615,-0.069
15.620,-0.068
15.625,-0.068
15.630,-0.069
15.635,-0.070
15.640,-0.069
15.645,-0.068
15.650,-0.069
15.655,-0.069
15.660,-0.066
15.665,-0.064
15.670,-0.065
15.675,-0.065
15.680,-0.063
15.685,-0.060
15.690,-0.060
15.695,-0.061
15.700,-0.060
15.705,-0.058
15.710,-0.058
15.715,-0.057
15.720,-0.056
15.725,-0.056
15.730,-0.057
15.735,-0.056
15.740,-0.057
15.745,-0.063
15.750,-0.064
15.755,-0.057
15.760,-0.060
15.765,-0.085
15.770,-0.112
15.775,-0.115
15.780,-0.101
15.785,-0.102
15.790,-0.120
15.795,-0.116
15.800,-0.081
15.805,-0.058
15.810,-0.045
15.815,-0.028
15.820,-0.016
15.825,-0.001
15.830,0.012
15.835,0.017
15.840,0.024
15.845,0.029
15.850,0.034
15.855,0.037
15.860,0.033
15.865,0.025
15.870,0.023
15.875,0.021
15.880,0.015
15.885,0.016
15.890,0.017
15.895,0.015
15.900,0.012
15.905,0.009
15.910,0.005
15.915,0.001
15.920,0.002
15.925,0.024
15.930,0.049
15.935,0.023
15.940,-0.096
15.945,-0.320
15.950,-0.627
15.955,-0.957
15.960,-1.257
15.965,-1.304
15.970,-0.827
15.975,-0.057
15.980,0.506
15.985,0.712
15.990,0.688
15.995,0.564
16.000,0.402
16.005,0.221
16.010,0.127
16.015,0.143
16.020,0.139
16.025,0.104
16.030,0.105
16.035,0.107
16.040,0.082
16.045,0.072
16.050,0.078
16.055,0.064
16.060,0.050
16.065,0.051
16.070,0.046
16.075,0.036
16.080,0.033
16.085,0.030
16.090,0.021
16.095,0.017
16.100,0.015
16.105,0.007
16.110,0.001
16.115,-0.005
16.120,-0.011
16.125,-0.018
16.130,-0.028
16.135,-0.038
16.140,-0.047
16.145,-0.059
16.150,-0.071
16.155,-0.086
16.160,-0.098
16.165,-0.110
16.170,-0.126
16.175,-0.143
16.180,-0.158
16.185,-0.172
16.190,-0.187
16.195,-0.200
16.200,-0.210
16.205,-0.218
16.210,-0.220
16.215,-0.223
16.220,-0.224
16.225,-0.217
16.230,-0.204
16.235,-0.182
16.240,-0.155
16.245,-0.121
16.250,-0.075
16.255,-0.022
16.260,0.039
16.265,0.102
16.270,0.165
16.275,0.224
16.280,0.272
16.285,0.316
16.290,0.352
16.295,0.378
16.300,0.396
16.305,0.405
16.310,0.408
16.315,0.405
16.320,0.396
16.325,0.388
16.330,0.379
16.335,0.365
16.340,0.347
16.345,0.331
16.350,0.317
16.355,0.299
16.360,0.283
16.365,0.265
16.370,0.247
16.375,0.230
16.380,0.211
16.385,0.194
16.390,0.178
16.395,0.161
16.400,0.146
16.405,0.131
16.410,0.118
16.415,0.106
16.420,0.092
16.425,0.081
16.430,0.071
16.435,0.064
16.440,0.055
16.445,0.045
16.450,0.038
16.455,0.033
16.460,0.028
16.465,0.022
16.470,0.017
16.475,0.014
16.480,0.010
16.485,0.007
16.490,0.006
16.495,0.002
16.500,-0.001
16.505,-0.005
16.510,-0.011
16.515,-0.014
16.520,-0.018
16.525,-0.022
16.530,-0.027
16.535,-0.031
16.540,-0.033
16.545,-0.033
16.550,-0.034
16.555,-0.039
16.560,-0.042
16.565,-0.044
16.570,-0.047
16.575,-0.048
16.580,-0.051
16.585,-0.054
16.590,-0.058
16.595,-0.061
16.600,-0.061
16.605,-0.062
16.610,-0.061
16.615,-0.062
16.620,-0.065
16.625,-0.066
16.630,-0.066
16.635,-0.065
16.640,-0.065
16.645,-0.067
16.650,-0.070
16.655,-0.072
16.660,-0.071
16.665,-0.071
16.670,-0.072
16.675,-0.071
16.680,-0.071
16.685,-0.072
16.690,-0.072
16.695,-0.071
16.700,-0.068
16.705,-0.067
16.710,-0.068
16.715,-0.069
16.720,-0.067
16.725,-0.065
16.730,-0.066
16.735,-0.066
16.740,-0.066
16.745,-0.065
16.750,-0.064
16.755,-0.065
16.760,-0.067
16.765,-0.067
16.770,-0.065
16.775,-0.064
16.780,-0.064
16.785,-0.062
16.790,-0.060
16.795,-0.058
16.800,-0.055
16.805,-0.056
16.810,-0.055
16.815,-0.053
16.820,-0.054
16.825,-0.052
16.830,-0.049
16.835,-0.048
16.840,-0.047
16.845,-0.046
16.850,-0.044
16.855,-0.045
16.860,-0.048
16.865,-0.051
16.870,-0.055
16.875,-0.051
16.880,-0.046
16.885,-0.062
16.890,-0.091
16.895,-0.108
16.900,-0.102
16.905,-0.091
16.910,-0.103
16.915,-0.114
16.920,-0.088
16.925,-0.058
16.930,-0.048
16.935,-0.035
16.940,-0.019
16.945,-0.003
16.950,0.015
16.955,0.026
16.960,0.034
16.965,0.040
16.970,0.040
16.975,0.044
16.980,0.045
16.985,0.036
16.990,0.028
16.995,0.030
17.000,0.027
17.005,0.022
17.010,0.022
17.015,0.020
17.020,0.014
17.025,0.009
17.030,0.008
17.035,0.009
17.040,0.010
17.045,0.022
17.050,0.048
17.055,0.047
17.060,-0.032
17.065,-0.207
17.070,-0.476
17.075,-0.799
17.080,-1.118
17.085,-1.318
17.090,-1.090
17.095,-0.389
17.100,0.304
17.105,0.659
17.110,0.724
17.115,0.637
17.120,0.494
17.125,0.311
17.130,0.157
17.135,0.132
17.140,0.151
17.145,0.119
17.150,0.102
17.155,0.113
17.160,0.096
17.165,0.071
17.170,0.069
17.175,0.065
17.180,0.050
17.185,0.048
17.190,0.048
17.195,0.036
17.200,0.031
17.205,0.033
17.210,0.030
17.215,0.022
17.220,0.018
17.225,0.016
17.230,0.006
17.235,0.000
17.240,-0.006
17.245,-0.016
17.250,-0.023
17.255,-0.036
17.260,-0.050
17.265,-0.055
17.270,-0.063
17.275,-0.075
17.280,-0.089
17.285,-0.105
17.290,-0.117
17.295,-0.129
17.300,-0.145
17.305,-0.161
17.310,-0.173
17.315,-0.185
17.320,-0.197
17.325,-0.202
17.330,-0.209
17.335,-0.215
17.340,-0.214
17.345,-0.210
17.350,-0.199
17.355,-0.185
17.360,-0.166
17.365,-0.142
17.370,-0.106
17.375,-0.055
17.380,0.006
17.385,0.069
17.390,0.123
17.395,0.172
17.400,0.224
17.405,0.274
17.410,0.321
17.415,0.358
17.420,0.376
17.425,0.386
17.430,0.394
17.435,0.396
17.440,0.395
17.445,0.386
17.450,0.376
17.455,0.362
17.460,0.345
17.465,0.333
17.470,0.318
17.475,0.294
17.480,0.269
17.485,0.252
17.490,0.242
17.495,0.231
17.500,0.220
17.505,0.206
17.510,0.188
17.515,0.165
17.520,0.144
17.525,0.129
17.530,0.115
17.535,0.104
17.540,0.096
17.545,0.084
17.550,0.070
17.555,0.059
17.560,0.054
17.565,0.046
17.570,0.032
17.575,0.024
17.580,0.022
17.585,0.020
17.590,0.020
17.595,0.022
17.600,0.020
17.605,0.013
17.610,0.004
17.615,-0.003
17.620,-0.007
17.625,-0.011
17.630,-0.014
17.635,-0.015
17.640,-0.016
17.645,-0.014
17.650,-0.019
17.655,-0.029
17.660,-0.032
17.665,-0.031
17.670,-0.032
17.675,-0.036
17.680,-0.042
17.685,-0.041
17.690,-0.039
17.695,-0.044
17.700,-0.050
17.705,-0.055
17.710,-0.057
17.715,-0.053
17.720,-0.053
17.725,-0.057
17.730,-0.062
17.735,-0.063
17.740,-0.062
17.745,-0.062
17.750,-0.063
17.755,-0.061
17.760,-0.057
17.765,-0.063
17.770,-0.070
17.775,-0.073
17.780,-0.079
17.785,-0.076
17.790,-0.070
17.795,-0.069
17.800,-0.069
17.805,-0.067
17.810,-0.062
17.815,-0.060
17.820,-0.060
17.825,-0.062
17.830,-0.067
17.835,-0.069
17.840,-0.068
17.845,-0.065
17.850,-0.064
17.855,-0.070
17.860,-0.077
17.865,-0.082
17.870,-0.078
17.875,-0.068
17.880,-0.061
17.885,-0.065
17.890,-0.069
17.895,-0.065
17.900,-0.062
17.905,-0.060
17.910,-0.055
17.915,-0.064
17.920,-0.092
17.925,-0.116
17.930,-0.119
17.935,-0.106
17.940,-0.112
17.945,-0.138
17.950,-0.128
17.955,-0.098
17.960,-0.078
17.965,-0.058
17.970,-0.041
17.975,-0.027
17.980,-0.011
17.985,0.000
17.990,0.009
17.995,0.018
18.000,0.020
18.005,0.018
18.010,0.018
18.015,0.016
18.020,0.011
18.025,0.015
18.030,0.020
18.035,0.013
18.040,0.006
18.045,0.004
18.050,0.000
18.055,-0.002
18.060,-0.001
18.065,-0.003
18.070,-0.010
18.075,-0.012
18.080,-0.006
18.085,0.028
18.090,0.049
18.095,-0.024
18.100,-0.213
18.105,-0.514
18.110,-0.859
18.115,-1.175
18.120,-1.377
18.125,-1.149
18.130,-0.445
18.135,0.251
18.140,0.620
18.145,0.704
18.150,0.645
18.155,0.527
18.160,0.346
18.165,0.178
18.170,0.135
18.175,0.149
18.180,0.119
18.185,0.102
18.190,0.112
18.195,0.092
18.200,0.072
18.205,0.077
18.210,0.070
18.215,0.053
18.220,0.052
18.225,0.052
18.230,0.034
18.235,0.025
18.240,0.035
18.245,0.029
18.250,0.017
18.255,0.010
18.260,0.001
18.265,-0.007
18.270,-0.011
18.275,-0.011
18.280,-0.014
18.285,-0.025
18.290,-0.039
18.295,-0.044
18.300,-0.051
18.305,-0.071
18.310,-0.087
18.315,-0.098
18.320,-0.111
18.325,-0.124
18.330,-0.137
18.335,-0.154
18.340,-0.173
18.345,-0.187
18.350,-0.194
18.355,-0.198
18.360,-0.201
18.365,-0.209
18.370,-0.214
18.375,-0.214
18.380,-0.219
18.385,-0.209
18.390,-0.178
18.395,-0.143
18.400,-0.109
18.405,-0.072
18.410,-0.027
18.415,0.028
18.420,0.084
18.425,0.146
18.430,0.211
18.435,0.272
18.440,0.319
18.445,0.347
18.450,0.369
18.455,0.386
18.460,0.393
18.465,0.395
18.470,0.394
18.475,0.393
18.480,0.394
18.485,0.391
18.490,0.373
18.495,0.352
18.500,0.339
18.505,0.323
18.510,0.300
18.515,0.280
18.520,0.263
18.525,0.248
18.530,0.231
18.535,0.210
18.540,0.188
18.545,0.170
18.550,0.156
18.555,0.144
18.560,0.131
18.565,0.116
18.570,0.104
18.575,0.095
18.580,0.081
18.585,0.065
18.590,0.053
18.595,0.045
18.600,0.034
18.605,0.024
18.610,0.018
18.615,0.014
18.620,0.018
18.625,0.019
18.630,0.010
18.635,0.006
18.640,0.005
18.645,0.000
18.650,-0.003
18.655,-0.007
18.660,-0.009
18.665,-0.012
18.670,-0.021
18.675,-0.026
18.680,-0.024
18.685,-0.025
18.690,-0.028
18.695,-0.031
18.700,-0.036
18.705,-0.044
18.710,-0.045
18.715,-0.044
18.720,-0.050
18.725,-0.054
18.730,-0.056
18.735,-0.056
18.740,-0.054
18.745,-0.055
18.750,-0.055
18.755,-0.053
18.760,-0.051
18.765,-0.051
18.770,-0.056
18.775,-0.058
18.780,-0.061
18.785,-0.066
18.790,-0.070
18.795,-0.073
18.800,-0.072
18.805,-0.072
18.810,-0.074
18.815,-0.073
18.820,-0.071
18.825,-0.069
18.830,-0.071
18.835,-0.074
18.840,-0.074
18.845,-0.077
18.850,-0.080
18.855,-0.076
18.860,-0.065
18.865,-0.063
18.870,-0.090
18.875,-0.126
18.880,-0.137
18.885,-0.124
18.890,-0.114
18.895,-0.132
18.900,-0.151
18.905,-0.130
18.910,-0.102
18.915,-0.086
18.920,-0.071
18.925,-0.055
18.930,-0.037
18.935,-0.022
18.940,-0.018
18.945,-0.018
18.950,-0.011
18.955,-0.005
18.960,0.000
18.965,0.004
18.970,0.002
18.975,-0.002
18.980,-0.004
18.985,-0.006
18.990,-0.009
18.995,-0.014
19.000,-0.017
19.005,-0.023
19.010,-0.025
19.015,-0.023
19.020,-0.026
19.025,-0.027
19.030,-0.027
19.035,-0.020
19.040,0.014
19.045,0.037
19.050,-0.027
19.055,-0.204
19.060,-0.488
19.065,-0.829
19.070,-1.159
19.075,-1.398
19.080,-1.247
19.085,-0.582
19.090,0.158
19.095,0.588
19.100,0.703
19.105,0.649
19.110,0.530
19.115,0.355
19.120,0.181
19.125,0.128
19.130,0.147
19.135,0.117
19.140,0.090
19.145,0.101
19.150,0.091
19.155,0.064
19.160,0.064
19.165,0.066
19.170,0.052
19.175,0.048
19.180,0.048
19.185,0.037
19.190,0.029
19.195,0.028
19.200,0.023
19.205,0.016
19.210,0.012
19.215,0.006
19.220,-0.006
19.225,-0.013
19.230,-0.017
19.235,-0.023
19.240,-0.030
19.245,-0.036
19.250,-0.045
19.255,-0.057
19.260,-0.065
19.265,-0.077
19.270,-0.091
19.275,-0.104
19.280,-0.119
19.285,-0.134
19.290,-0.153
19.295,-0.173
19.300,-0.186
19.305,-0.199
19.310,-0.214
19.315,-0.226
19.320,-0.235
19.325,-0.238
19.330,-0.235
19.335,-0.228
19.340,-0.217
19.345,-0.200
19.350,-0.175
19.355,-0.141
19.360,-0.095
19.365,-0.038
19.370,0.025
19.375,0.095
19.380,0.163
19.385,0.224
19.390,0.278
19.395,0.324
19.400,0.359
19.405,0.384
19.410,0.402
19.415,0.413
19.420,0.414
19.425,0.410
19.430,0.402
19.435,0.394
19.440,0.386
19.445,0.372
19.450,0.358
19.455,0.344
19.460,0.327
19.465,0.308
19.470,0.287
19.475,0.271
19.480,0.257
19.485,0.242
19.490,0.224
19.495,0.203
19.500,0.184
19.505,0.164
19.510,0.148
19.515,0.134
19.520,0.118
19.525,0.106
19.530,0.095
19.535,0.083
19.540,0.072
19.545,0.060
19.550,0.050
19.555,0.042
19.560,0.034
19.565,0.026
19.570,0.021
19.575,0.018
19.580,0.016
19.585,0.014
19.590,0.009
19.595,0.002
19.600,-0.002
19.605,-0.006
19.610,-0.008
19.615,-0.011
19.620,-0.015
19.625,-0.016
19.630,-0.019
19.635,-0.023
19.640,-0.026
19.645,-0.029
19.650,-0.032
19.655,-0.034
19.660,-0.038
19.665,-0.043
19.670,-0.046
19.675,-0.048
19.680,-0.051
19.685,-0.051
19.690,-0.050
19.695,-0.051
19.700,-0.054
19.705,-0.058
19.710,-0.060
19.715,-0.059
19.720,-0.061
19.725,-0.064
19.730,-0.065
19.735,-0.062
19.740,-0.062
19.745,-0.064
19.750,-0.066
19.755,-0.069
19.760,-0.070
19.765,-0.069
19.770,-0.071
19.775,-0.070
19.780,-0.071
19.785,-0.073
19.790,-0.072
19.795,-0.070
19.800,-0.069
19.805,-0.068
19.810,-0.068
19.815,-0.067
19.820,-0.067
19.825,-0.067
19.830,-0.068
19.835,-0.068
19.840,-0.067
19.845,-0.067
19.850,-0.066
19.855,-0.065
19.860,-0.064
19.865,-0.062
19.870,-0.062
19.875,-0.060
19.880,-0.060
19.885,-0.062
19.890,-0.059
19.895,-0.055
19.900,-0.053
19.905,-0.054
19.910,-0.057
19.915,-0.054
19.920,-0.051
19.925,-0.051
19.930,-0.051
19.935,-0.050
19.940,-0.048
19.945,-0.047
19.950,-0.045
19.955,-0.044
19.960,-0.044
19.965,-0.048
19.970,-0.056
19.975,-0.053
19.980,-0.045
19.985,-0.057
19.990,-0.085
19.995,-0.103
20.000,-0.099
20.005,-0.086
20.010,-0.093
20.015,-0.108
20.020,-0.095
20.025,-0.066
20.030,-0.049
20.035,-0.036
20.040,-0.021
20.045,-0.007
20.050,0.007
20.055,0.016
20.060,0.020
20.065,0.027
20.070,0.033
20.075,0.037
20.080,0.041
20.085,0.037
20.090,0.031
20.095,0.029
20.100,0.027
20.105,0.020
20.110,0.020
20.115,0.022
20.120,0.015
20.125,0.013
20.130,0.012
20.135,0.009
20.140,0.006
20.145,0.008
20.150,0.030
20.155,0.050
20.160,0.006
20.165,-0.130
20.170,-0.368
20.175,-0.683
20.180,-1.015
20.185,-1.302
20.190,-1.275
20.195,-0.710
20.200,0.062
20.205,0.573
20.210,0.729
20.215,0.675
20.220,0.548
20.225,0.383
20.230,0.209
20.235,0.134
20.240,0.155
20.245,0.143
20.250,0.111
20.255,0.114
20.260,0.108
20.265,0.082
20.270,0.077
20.275,0.077
20.280,0.062
20.285,0.055
20.290,0.055
20.295,0.047
20.300,0.037
20.305,0.034
20.310,0.033
20.315,0.027
20.320,0.022
20.325,0.024
20.330,0.018
20.335,0.008
20.340,0.001
20.345,-0.009
20.350,-0.020
20.355,-0.028
20.360,-0.035
20.365,-0.042
20.370,-0.053
20.375,-0.065
20.380,-0.080
20.385,-0.096
20.390,-0.114
20.395,-0.133
20.400,-0.146
20.405,-0.158
20.410,-0.173
20.415,-0.188
20.420,-0.203
20.425,-0.215
20.430,-0.223
20.435,-0.229
20.440,-0.229
20.445,-0.225
20.450,-0.217
20.455,-0.205
20.460,-0.187
20.465,-0.163
20.470,-0.128
20.475,-0.082
20.480,-0.027
20.485,0.033
20.490,0.096
20.495,0.160
20.500,0.219
20.505,0.268
20.510,0.311
20.515,0.345
20.520,0.371
20.525,0.397
20.530,0.411
20.535,0.412
20.540,0.409
20.545,0.403
20.550,0.398
20.555,0.385
20.560,0.366
20.565,0.352
20.570,0.335
20.575,0.314
20.580,0.294
20.585,0.276
20.590,0.264
20.595,0.247
20.600,0.229
20.605,0.211
20.610,0.196
20.615,0.185
20.620,0.171
20.625,0.157
20.630,0.143
20.635,0.125
20.640,0.111
20.645,0.100
20.650,0.090
20.655,0.076
20.660,0.062
20.665,0.051
20.670,0.044
20.675,0.038
20.680,0.033
20.685,0.027
20.690,0.020
20.695,0.014
20.700,0.013
20.705,0.011
20.710,0.009
20.715,0.002
20.720,-0.005
20.725,-0.007
20.730,-0.008
20.735,-0.008
20.740,-0.009
20.745,-0.015
20.750,-0.022
20.755,-0.029
20.760,-0.036
20.765,-0.035
20.770,-0.030
20.775,-0.029
20.780,-0.034
20.785,-0.040
20.790,-0.043
20.795,-0.045
20.800,-0.048
20.805,-0.058
20.810,-0.061
20.815,-0.058
20.820,-0.056
20.825,-0.056
20.830,-0.061
20.835,-0.065
20.840,-0.062
20.845,-0.060
20.850,-0.064
20.855,-0.068
20.860,-0.066
20.865,-0.063
20.870,-0.063
20.875,-0.065
20.880,-0.068
20.885,-0.070
20.890,-0.070
20.895,-0.072
20.900,-0.072
20.905,-0.074
20.910,-0.077
20.915,-0.075
20.920,-0.066
20.925,-0.061
20.930,-0.064
20.935,-0.068
20.940,-0.072
20.945,-0.072
20.950,-0.069
20.955,-0.071
20.960,-0.072
20.965,-0.067
20.970,-0.063
20.975,-0.064
20.980,-0.069
20.985,-0.070
20.990,-0.065
20.995,-0.061
21.000,-0.062
21.005,-0.059
21.010,-0.050
21.015,-0.049
21.020,-0.054
21.025,-0.058
21.030,-0.058
21.035,-0.054
21.040,-0.051
21.045,-0.052
21.050,-0.050
21.055,-0.046
21.060,-0.047
21.065,-0.052
21.070,-0.056
21.075,-0.060
21.080,-0.058
21.085,-0.048
21.090,-0.051
21.095,-0.073
21.100,-0.095
21.105,-0.102
21.110,-0.086
21.115,-0.078
21.120,-0.106
21.125,-0.122
21.130,-0.099
21.135,-0.075
21.140,-0.058
21.145,-0.041
21.150,-0.022
21.155,0.006
21.160,0.021
21.165,0.020
21.170,0.019
21.175,0.023
21.180,0.028
21.185,0.033
21.190,0.037
21.195,0.033
21.200,0.027
21.205,0.026
21.210,0.021
21.215,0.021
21.220,0.022
21.225,0.015
21.230,0.006
21.235,0.005
21.240,0.003
21.245,-0.001
21.250,-0.003
21.255,0.002
21.260,0.030
21.265,0.053
21.270,0.000
21.275,-0.163
21.280,-0.434
21.285,-0.765
21.290,-1.084
21.295,-1.321
21.300,-1.194
21.305,-0.561
21.310,0.173
21.315,0.606
21.320,0.722
21.325,0.669
21.330,0.543
21.335,0.367
21.340,0.194
21.345,0.131
21.350,0.150
21.355,0.126
21.360,0.099
21.365,0.107
21.370,0.098
21.375,0.079
21.380,0.080
21.385,0.075
21.390,0.056
21.395,0.052
21.400,0.059
21.405,0.050
21.410,0.036
21.415,0.031
21.420,0.019
21.425,0.006
21.430,0.008
21.435,0.013
21.440,0.009
21.445,0.003
21.450,-0.001
21.455,-0.011
21.460,-0.025
21.465,-0.037
21.470,-0.044
21.475,-0.052
21.480,-0.063
21.485,-0.077
21.490,-0.094
21.495,-0.111
21.500,-0.126
21.505,-0.137
21.510,-0.142
21.515,-0.155
21.520,-0.172
21.525,-0.186
21.530,-0.194
21.535,-0.201
21.540,-0.213
21.545,-0.227
21.550,-0.231
21.555,-0.223
21.560,-0.205
21.565,-0.191
21.570,-0.174
21.575,-0.143
21.580,-0.103
21.585,-0.054
21.590,0.000
21.595,0.058
21.600,0.122
21.605,0.183
21.610,0.232
21.615,0.278
21.620,0.325
21.625,0.367
21.630,0.390
21.635,0.400
21.640,0.402
21.645,0.398
21.650,0.398
21.655,0.398
21.660,0.394
21.665,0.387
21.670,0.367
21.675,0.345
21.680,0.329
21.685,0.308
21.690,0.290
21.695,0.277
21.700,0.261
21.705,0.246
21.710,0.232
21.715,0.208
21.720,0.179
21.725,0.160
21.730,0.153
21.735,0.149
21.740,0.134
21.745,0.115
21.750,0.101
21.755,0.088
21.760,0.076
21.765,0.062
21.770,0.051
21.775,0.046
21.780,0.037
21.785,0.024
21.790,0.014
21.795,0.010
21.800,0.013
21.805,0.016
21.810,0.013
21.815,0.006
21.820,0.001
21.825,-0.005
21.830,-0.013
21.835,-0.017
21.840,-0.020
21.845,-0.022
21.850,-0.024
21.855,-0.029
21.860,-0.030
21.865,-0.031
21.870,-0.036
21.875,-0.035
21.880,-0.035
21.885,-0.040
21.890,-0.044
21.895,-0.045
21.900,-0.045
21.905,-0.048
21.910,-0.052
21.915,-0.055
21.920,-0.053
21.925,-0.053
21.930,-0.056
21.935,-0.056
21.940,-0.058
21.945,-0.060
21.950,-0.061
21.955,-0.060
21.960,-0.057
21.965,-0.059
21.970,-0.065
21.975,-0.071
21.980,-0.074
21.985,-0.071
21.990,-0.068
21.995,-0.068
22.000,-0.068
22.005,-0.068
22.010,-0.071
22.015,-0.074
22.020,-0.071
22.025,-0.068
22.030,-0.072
22.035,-0.076
22.040,-0.071
22.045,-0.063
22.050,-0.063
22.055,-0.065
22.060,-0.063
22.065,-0.064
22.070,-0.068
22.075,-0.067
22.080,-0.063
22.085,-0.063
22.090,-0.060
22.095,-0.059
22.100,-0.058
22.105,-0.061
22.110,-0.068
22.115,-0.066
22.120,-0.061
22.125,-0.060
22.130,-0.058
22.135,-0.058
22.140,-0.060
22.145,-0.057
22.150,-0.057
22.155,-0.060
22.160,-0.052
22.165,-0.046
22.170,-0.060
22.175,-0.088
22.180,-0.107
22.185,-0.099
22.190,-0.087
22.195,-0.105
22.200,-0.124
22.205,-0.107
22.210,-0.084
22.215,-0.068
22.220,-0.051
22.225,-0.032
22.230,-0.014
22.235,0.000
22.240,0.004
22.245,0.006
22.250,0.016
22.255,0.027
22.260,0.037
22.265,0.039
22.270,0.027
22.275,0.018
22.280,0.020
22.285,0.021
22.290,0.020
22.295,0.017
22.300,0.015
22.305,0.008
22.310,0.003
22.315,0.002
22.320,-0.006
22.325,-0.009
22.330,-0.002
22.335,0.029
22.340,0.067
22.345,0.027
22.350,-0.130
22.355,-0.402
22.360,-0.743
22.365,-1.072
22.370,-1.351
22.375,-1.326
22.380,-0.756
22.385,0.032
22.390,0.554
22.395,0.727
22.400,0.704
22.405,0.597
22.410,0.431
22.415,0.238
22.420,0.142
22.425,0.156
22.430,0.145
22.435,0.112
22.440,0.120
22.445,0.118
22.450,0.086
22.455,0.076
22.460,0.081
22.465,0.069
22.470,0.057
22.475,0.062
22.480,0.055
22.485,0.039
22.490,0.037
22.495,0.031
22.500,0.020
22.505,0.017
22.510,0.013
22.515,0.010
22.520,0.009
22.525,0.002
22.530,-0.012
22.535,-0.026
22.540,-0.033
22.545,-0.041
22.550,-0.052
22.555,-0.061
22.560,-0.070
22.565,-0.082
22.570,-0.098
22.575,-0.108
22.580,-0.120
22.585,-0.135
22.590,-0.151
22.595,-0.170
22.600,-0.185
22.605,-0.201
22.610,-0.217
22.615,-0.226
22.620,-0.226
22.625,-0.222
22.630,-0.215
22.635,-0.205
22.640,-0.193
22.645,-0.176
22.650,-0.150
22.655,-0.113
22.660,-0.064
22.665,-0.006
22.670,0.055
22.675,0.116
22.680,0.177
22.685,0.236
22.690,0.289
22.695,0.329
22.700,0.361
22.705,0.385
22.710,0.402
22.715,0.411
22.720,0.412
22.725,0.408
22.730,0.400
22.735,0.386
22.740,0.369
22.745,0.354
22.750,0.347
22.755,0.338
22.760,0.322
22.765,0.305
22.770,0.285
22.775,0.266
22.780,0.246
22.785,0.226
22.790,0.210
22.795,0.192
22.800,0.175
22.805,0.159
22.810,0.144
22.815,0.126
22.820,0.106
22.825,0.093
22.830,0.082
22.835,0.071
22.840,0.061
22.845,0.049
22.850,0.039
22.855,0.029
22.860,0.020
22.865,0.015
22.870,0.010
22.875,0.006
22.880,0.002
22.885,-0.005
22.890,-0.008
22.895,-0.008
22.900,-0.012
22.905,-0.021
22.910,-0.026
22.915,-0.024
22.920,-0.020
22.925,-0.022
22.930,-0.029
22.935,-0.031
22.940,-0.031
22.945,-0.035
22.950,-0.039
22.955,-0.043
22.960,-0.042
22.965,-0.040
22.970,-0.043
22.975,-0.046
22.980,-0.049
22.985,-0.055
22.990,-0.057
22.995,-0.057
23.000,-0.059
23.005,-0.064
23.010,-0.066
23.015,-0.065
23.020,-0.064
23.025,-0.064
23.030,-0.067
23.035,-0.069
23.040,-0.069
23.045,-0.070
23.050,-0.069
23.055,-0.070
23.060,-0.073
23.065,-0.072
23.070,-0.070
23.075,-0.069
23.080,-0.069
23.085,-0.070
23.090,-0.066
23.095,-0.065
23.100,-0.067
23.105,-0.070
23.110,-0.071
23.115,-0.069
23.120,-0.068
23.125,-0.067
23.130,-0.067
23.135,-0.069
23.140,-0.069
23.145,-0.069
23.150,-0.068
23.155,-0.065
23.160,-0.063
23.165,-0.061
23.170,-0.061
23.175,-0.061
23.180,-0.060
23.185,-0.060
23.190,-0.058
23.195,-0.058
23.200,-0.055
23.205,-0.055
23.210,-0.058
23.215,-0.058
23.220,-0.055
23.225,-0.051
23.230,-0.049
23.235,-0.049
23.240,-0.048
23.245,-0.047
23.250,-0.046
23.255,-0.050
23.260,-0.054
23.265,-0.048
23.270,-0.051
23.275,-0.072
23.280,-0.097
23.285,-0.104
23.290,-0.090
23.295,-0.088
23.300,-0.108
23.305,-0.110
23.310,-0.081
23.315,-0.059
23.320,-0.046
23.325,-0.028
23.330,-0.014
23.335,-0.002
23.340,0.007
23.345,0.014
23.350,0.022
23.355,0.025
23.360,0.028
23.365,0.034
23.370,0.036
23.375,0.032
23.380,0.029
23.385,0.026
23.390,0.021
23.395,0.018
23.400,0.018
23.405,0.015
23.410,0.011
23.415,0.010
23.420,0.008
23.425,0.003
23.430,0.004
23.435,0.022
23.440,0.053
23.445,0.043
23.450,-0.057
23.455,-0.265
23.460,-0.570
23.465,-0.913
23.470,-1.234
23.475,-1.360
23.480,-0.983
23.485,-0.210
23.490,0.432
23.495,0.701
23.500,0.705
23.505,0.598
23.510,0.454
23.515,0.277
23.520,0.149
23.525,0.146
23.530,0.154
23.535,0.116
23.540,0.106
23.545,0.114
23.550,0.098
23.555,0.085
23.560,0.085
23.565,0.073
23.570,0.057
23.575,0.057
23.580,0.057
23.585,0.045
23.590,0.042
23.595,0.042
23.600,0.034
23.605,0.026
23.610,0.022
23.615,0.016
23.620,0.008
23.625,0.001
23.630,-0.007
23.635,-0.017
23.640,-0.025
23.645,-0.033
23.650,-0.041
23.655,-0.052
23.660,-0.063
23.665,-0.075
23.670,-0.090
23.675,-0.105
23.680,-0.120
23.685,-0.136
23.690,-0.151
23.695,-0.168
23.700,-0.185
23.705,-0.200
23.710,-0.211
23.715,-0.221
23.720,-0.231
23.725,-0.236
23.730,-0.234
23.735,-0.230
23.740,-0.220
23.745,-0.202
23.750,-0.176
23.755,-0.141
23.760,-0.097
23.765,-0.046
23.770,0.013
23.775,0.079
23.780,0.144
23.785,0.208
23.790,0.265
23.795,0.312
23.800,0.350
23.805,0.380
23.810,0.401
23.815,0.414
23.820,0.418
23.825,0.416
23.830,0.411
23.835,0.402
23.840,0.391
23.845,0.375
23.850,0.358
23.855,0.343
23.860,0.328
23.865,0.312
23.870,0.294
23.875,0.278
23.880,0.264
23.885,0.247
23.890,0.230
23.895,0.213
23.900,0.195
23.905,0.177
23.910,0.161
23.915,0.146
23.920,0.129
23.925,0.116
23.930,0.102
23.935,0.088
23.940,0.078
23.945,0.067
23.950,0.057
23.955,0.048
23.960,0.038
23.965,0.031
23.970,0.024
23.975,0.017
23.980,0.011
23.985,0.008
23.990,0.004
23.995,-0.001
24.000,-0.005
24.005,-0.008
24.010,-0.011
24.015,-0.014
24.020,-0.019
24.025,-0.020
24.030,-0.023
24.035,-0.027
24.040,-0.028
24.045,-0.031
24.050,-0.034
24.055,-0.038
24.060,-0.043
24.065,-0.044
24.070,-0.046
24.075,-0.048
24.080,-0.050
24.085,-0.051
24.090,-0.052
24.095,-0.056
24.100,-0.057
24.105,-0.058
24.110,-0.061
24.115,-0.061
24.120,-0.063
24.125,-0.064
24.130,-0.065
24.135,-0.069
24.140,-0.070
24.145,-0.070
24.150,-0.070
24.155,-0.070
24.160,-0.071
24.165,-0.070
24.170,-0.071
24.175,-0.074
24.180,-0.075
24.185,-0.075
24.190,-0.074
24.195,-0.075
24.200,-0.075
24.205,-0.075
24.210,-0.074
24.215,-0.069
24.220,-0.067
24.225,-0.066
24.230,-0.067
24.235,-0.069
24.240,-0.067
24.245,-0.066
24.250,-0.066
24.255,-0.065
24.260,-0.065
24.265,-0.065
24.270,-0.065
24.275,-0.064
24.280,-0.064
24.285,-0.064
24.290,-0.063
24.295,-0.064
24.300,-0.064
24.305,-0.063
24.310,-0.060
24.315,-0.055
24.320,-0.053
24.325,-0.051
24.330,-0.050
24.335,-0.051
24.340,-0.049
24.345,-0.049
24.350,-0.048
24.355,-0.048
24.360,-0.049
24.365,-0.046
24.370,-0.044
24.375,-0.042
24.380,-0.040
24.385,-0.040
24.390,-0.039
24.395,-0.038
24.400,-0.035
24.405,-0.034
24.410,-0.034
24.415,-0.034
24.420,-0.034
24.425,-0.033
24.430,-0.030
24.435,-0.030
24.440,-0.028
24.445,-0.027
24.450,-0.034
24.455,-0.038
24.460,-0.032
24.465,-0.031
24.470,-0.050
24.475,-0.082
24.480,-0.091
24.485,-0.076
24.490,-0.067
24.495,-0.085
24.500,-0.096
24.505,-0.071
24.510,-0.044
24.515,-0.030
24.520,-0.011
24.525,0.005
24.530,0.017
24.535,0.027
24.540,0.034
24.545,0.041
24.550,0.046
24.555,0.051
24.560,0.055
24.565,0.054
24.570,0.046
24.575,0.041
24.580,0.042
24.585,0.037
24.590,0.029
24.595,0.029
24.600,0.027
24.605,0.021
24.610,0.021
24.615,0.022
24.620,0.018
24.625,0.018
24.630,0.033
24.635,0.056
24.640,0.039
24.645,-0.070
24.650,-0.279
24.655,-0.574
24.660,-0.906
24.665,-1.219
24.670,-1.323
24.675,-0.913
24.680,-0.141
24.685,0.473
24.690,0.723
24.695,0.711
24.700,0.590
24.705,0.431
24.710,0.248
24.715,0.138
24.720,0.145
24.725,0.150
24.730,0.114
24.735,0.107
24.740,0.111
24.745,0.087
24.750,0.074
24.755,0.078
24.760,0.067
24.765,0.053
24.770,0.053
24.775,0.049
24.780,0.038
24.785,0.034
24.790,0.035
24.795,0.026
24.800,0.020
24.805,0.019
24.810,0.013
24.815,0.007
24.820,0.000
24.825,-0.008
24.830,-0.017
24.835,-0.027
24.840,-0.035
24.845,-0.043
24.850,-0.052
24.855,-0.066
24.860,-0.080
24.865,-0.092
24.870,-0.104
24.875,-0.118
24.880,-0.136
24.885,-0.154
24.890,-0.168
24.895,-0.181
24.900,-0.194
24.905,-0.207
24.910,-0.217
24.915,-0.224
24.920,-0.228
24.925,-0.229
24.930,-0.223
24.935,-0.210
24.940,-0.193
24.945,-0.170
24.950,-0.140
24.955,-0.103
24.960,-0.056
24.965,-0.002
24.970,0.060
24.975,0.126
24.980,0.190
24.985,0.247
24.990,0.296
24.995,0.337
25.000,0.369
25.005,0.391
25.010,0.404
25.015,0.412
25.020,0.414
25.025,0.411
25.030,0.406
25.035,0.397
25.040,0.383
25.045,0.365
25.050,0.347
25.055,0.331
25.060,0.314
25.065,0.296
25.070,0.279
25.075,0.262
25.080,0.243
25.085,0.225
25.090,0.208
25.095,0.190
25.100,0.175
25.105,0.162
25.110,0.147
25.115,0.131
25.120,0.118
25.125,0.109
25.130,0.099
25.135,0.082
25.140,0.067
25.145,0.060
25.150,0.054
25.155,0.045
25.160,0.034
25.165,0.024
25.170,0.018
25.175,0.014
25.180,0.011
25.185,0.005
25.190,-0.001
25.195,-0.005
25.200,-0.007
25.205,-0.010
25.210,-0.011
25.215,-0.014
25.220,-0.016
25.225,-0.020
25.230,-0.022
25.235,-0.024
25.240,-0.026
25.245,-0.025
25.250,-0.028
25.255,-0.035
25.260,-0.042
25.265,-0.046
25.270,-0.047
25.275,-0.047
25.280,-0.048
25.285,-0.047
25.290,-0.048
25.295,-0.060
25.300,-0.064
25.305,-0.060
25.310,-0.059
25.315,-0.058
25.320,-0.061
25.325,-0.062
25.330,-0.062
25.335,-0.065
25.340,-0.069
25.345,-0.071
25.350,-0.073
25.355,-0.068
25.360,-0.062
25.365,-0.061
25.370,-0.064
25.375,-0.067
25.380,-0.070
25.385,-0.072
25.390,-0.074
25.395,-0.075
25.400,-0.073
25.405,-0.072
25.410,-0.068
25.415,-0.065
25.420,-0.071
25.425,-0.077
25.430,-0.076
25.435,-0.073
25.440,-0.067
25.445,-0.063
25.450,-0.064
25.455,-0.068
25.460,-0.074
25.465,-0.074
25.470,-0.068
25.475,-0.063
25.480,-0.063
25.485,-0.068
25.490,-0.068
25.495,-0.067
25.500,-0.064
25.505,-0.056
25.510,-0.056
25.515,-0.058
25.520,-0.056
25.525,-0.053
25.530,-0.054
25.535,-0.059
25.540,-0.058
25.545,-0.053
25.550,-0.049
25.555,-0.055
25.560,-0.063
25.565,-0.060
25.570,-0.054
25.575,-0.045
25.580,-0.041
25.585,-0.048
25.590,-0.047
25.595,-0.044
25.600,-0.040
25.605,-0.035
25.610,-0.030
25.615,-0.027
25.620,-0.031
25.625,-0.036
25.630,-0.034
25.635,-0.028
25.640,-0.037
25.645,-0.056
25.650,-0.059
25.655,-0.049
25.660,-0.042
25.665,-0.053
25.670,-0.081
25.675,-0.089
25.680,-0.065
25.685,-0.047
25.690,-0.066
25.695,-0.102
25.700,-0.107
25.705,-0.078
25.710,-0.046
25.715,-0.029
25.720,-0.020
25.725,-0.005
25.730,0.018
25.735,0.041
25.740,0.053
25.745,0.046
25.750,0.046
25.755,0.059
25.760,0.063
25.765,0.057
25.770,0.051
25.775,0.052
25.780,0.049
25.785,0.038
25.790,0.035
25.795,0.036
25.800,0.029
25.805,0.016
25.810,0.007
25.815,0.010
25.820,0.020
25.825,0.042
25.830,0.081
25.835,0.077
25.840,-0.027
25.845,-0.240
25.850,-0.557
25.855,-0.905
25.860,-1.213
25.865,-1.353
25.870,-1.007
25.875,-0.228
25.880,0.433
25.885,0.717
25.890,0.739
25.895,0.649
25.900,0.521
25.905,0.331
25.910,0.170
25.915,0.155
25.920,0.165
25.925,0.122
25.930,0.110
25.935,0.121
25.940,0.096
25.945,0.065
25.950,0.064
25.955,0.061
25.960,0.049
25.965,0.052
25.970,0.049
25.975,0.033
25.980,0.026
25.985,0.025
25.990,0.017
25.995,0.009
26.000,0.007
26.005,0.004
26.010,-0.004
26.015,-0.014
26.020,-0.026
26.025,-0.032
26.030,-0.039
26.035,-0.048
26.040,-0.053
26.045,-0.061
26.050,-0.076
26.055,-0.094
26.060,-0.110
26.065,-0.118
26.070,-0.128
26.075,-0.145
26.080,-0.161
26.085,-0.174
26.090,-0.186
26.095,-0.195
26.100,-0.207
26.105,-0.218
26.110,-0.228
26.115,-0.231
26.120,-0.229
26.125,-0.222
26.130,-0.210
26.135,-0.196
26.140,-0.175
26.145,-0.145
26.150,-0.102
26.155,-0.050
26.160,0.003
26.165,0.057
26.170,0.108
26.175,0.163
26.180,0.222
26.185,0.276
26.190,0.325
26.195,0.357
26.200,0.377
26.205,0.395
26.210,0.403
26.215,0.403
26.220,0.397
26.225,0.390
26.230,0.389
26.235,0.385
26.240,0.373
26.245,0.360
26.250,0.348
26.255,0.333
26.260,0.313
26.265,0.291
26.270,0.267
26.275,0.248
26.280,0.236
26.285,0.218
26.290,0.197
26.295,0.181
26.300,0.164
26.305,0.147
26.310,0.129
26.315,0.112
26.320,0.103
26.325,0.095
26.330,0.081
26.335,0.070
26.340,0.061
26.345,0.051
26.350,0.047
26.355,0.041
26.360,0.032
26.365,0.022
26.370,0.017
26.375,0.018
26.380,0.014
26.385,0.007
26.390,0.007
26.395,0.008
26.400,0.004
26.405,-0.007
26.410,-0.021
26.415,-0.024
26.420,-0.018
26.425,-0.013
26.430,-0.015
26.435,-0.026
26.440,-0.032
26.445,-0.031
26.450,-0.036
26.455,-0.044
26.460,-0.048
26.465,-0.045
26.470,-0.045
26.475,-0.045
26.480,-0.043
26.485,-0.042
26.490,-0.038
26.495,-0.039
26.500,-0.048
26.505,-0.054
26.510,-0.056
26.515,-0.055
26.520,-0.054
26.525,-0.057
26.530,-0.058
26.535,-0.064
26.540,-0.076
26.545,-0.075
26.550,-0.064
26.555,-0.062
26.560,-0.066
26.565,-0.072
26.570,-0.071
26.575,-0.065
26.580,-0.067
26.585,-0.074
26.590,-0.074
26.595,-0.070
26.600,-0.069
26.605,-0.088
26.610,-0.123
26.615,-0.137
26.620,-0.126
26.625,-0.115
26.630,-0.134
26.635,-0.158
26.640,-0.135
26.645,-0.102
26.650,-0.086
26.655,-0.074
26.660,-0.065
26.665,-0.049
26.670,-0.032
26.675,-0.023
26.680,-0.015
26.685,-0.005
26.690,0.000
26.695,0.002
26.700,0.007
26.705,0.002
26.710,-0.004
26.715,-0.005
26.720,-0.012
26.725,-0.020
26.730,-0.022
26.735,-0.022
26.740,-0.024
26.745,-0.029
26.750,-0.035
26.755,-0.038
26.760,-0.040
26.765,-0.036
26.770,-0.019
26.775,0.015
26.780,0.016
26.785,-0.083
26.790,-0.290
26.795,-0.596
26.800,-0.946
26.805,-1.274
26.810,-1.437
26.815,-1.114
26.820,-0.342
26.825,0.352
26.830,0.677
26.835,0.713
26.840,0.617
26.845,0.480
26.850,0.299
26.855,0.145
26.860,0.117
26.865,0.129
26.870,0.097
26.875,0.086
26.880,0.094
26.885,0.071
26.890,0.053
26.895,0.062
26.900,0.058
26.905,0.041
26.910,0.035
26.915,0.035
26.920,0.026
26.925,0.020
26.930,0.017
26.935,0.008
26.940,0.002
26.945,-0.001
26.950,-0.009
26.955,-0.012
26.960,-0.011
26.965,-0.015
26.970,-0.028
26.975,-0.038
26.980,-0.043
26.985,-0.050
26.990,-0.062
26.995,-0.078
27.000,-0.096
27.005,-0.112
27.010,-0.123
27.015,-0.131
27.020,-0.145
27.025,-0.164
27.030,-0.183
27.035,-0.202
27.040,-0.221
27.045,-0.239
27.050,-0.251
27.055,-0.253
27.060,-0.255
27.065,-0.254
27.070,-0.247
27.075,-0.235
27.080,-0.215
27.085,-0.189
27.090,-0.149
27.095,-0.096
27.100,-0.032
27.105,0.040
27.110,0.112
27.115,0.181
27.120,0.243
27.125,0.300
27.130,0.349
27.135,0.385
27.140,0.410
27.145,0.424
27.150,0.432
27.155,0.434
27.160,0.427
27.165,0.418
27.170,0.407
27.175,0.395
27.180,0.380
27.185,0.361
27.190,0.344
27.195,0.331
27.200,0.319
27.205,0.302
27.210,0.284
27.215,0.264
27.220,0.240
27.225,0.225
27.230,0.213
27.235,0.195
27.240,0.177
27.245,0.156
27.250,0.141
27.255,0.131
27.260,0.117
27.265,0.103
27.270,0.091
27.275,0.074
27.280,0.057
27.285,0.048
27.290,0.044
27.295,0.035
27.300,0.027
27.305,0.019
27.310,0.011
27.315,0.008
27.320,0.002
27.325,-0.003
27.330,-0.004
27.335,-0.010
27.340,-0.013
27.345,-0.017
27.350,-0.022
27.355,-0.025
27.360,-0.027
27.365,-0.026
27.370,-0.028
27.375,-0.031
27.380,-0.035
27.385,-0.040
27.390,-0.041
27.395,-0.042
27.400,-0.047
27.405,-0.054
27.410,-0.058
27.415,-0.058
27.420,-0.058
27.425,-0.058
27.430,-0.057
27.435,-0.058
27.440,-0.061
27.445,-0.065
27.450,-0.067
27.455,-0.066
27.460,-0.066
27.465,-0.068
27.470,-0.072
27.475,-0.073
27.480,-0.072
27.485,-0.072
27.490,-0.072
27.495,-0.073
27.500,-0.075
27.505,-0.077
27.510,-0.078
27.515,-0.077
27.520,-0.077
27.525,-0.081
27.530,-0.084
27.535,-0.081
27.540,-0.074
27.545,-0.086
27.550,-0.117
27.555,-0.138
27.560,-0.135
27.565,-0.121
27.570,-0.130
27.575,-0.150
27.580,-0.137
27.585,-0.109
27.590,-0.092
27.595,-0.076
27.600,-0.059
27.605,-0.047
27.610,-0.036
27.615,-0.025
27.620,-0.017
27.625,-0.009
27.630,-0.004
27.635,0.001
27.640,0.008
27.645,0.002
27.650,-0.007
27.655,-0.007
27.660,-0.007
27.665,-0.011
27.670,-0.014
27.675,-0.016
27.680,-0.019
27.685,-0.022
27.690,-0.022
27.695,-0.026
27.700,-0.031
27.705,-0.031
27.710,-0.028
27.715,-0.004
27.720,0.023
27.725,-0.017
27.730,-0.157
27.735,-0.399
27.740,-0.722
27.745,-1.060
27.750,-1.346
27.755,-1.319
27.760,-0.755
27.765,0.020
27.770,0.535
27.775,0.702
27.780,0.661
27.785,0.540
27.790,0.376
27.795,0.197
27.800,0.111
27.805,0.127
27.810,0.119
27.815,0.088
27.820,0.094
27.825,0.093
27.830,0.071
27.835,0.068
27.840,0.071
27.845,0.055
27.850,0.043
27.855,0.043
27.860,0.034
27.865,0.026
27.870,0.025
27.875,0.022
27.880,0.013
27.885,0.006
27.890,0.003
27.895,-0.003
27.900,-0.010
27.905,-0.014
27.910,-0.021
27.915,-0.027
27.920,-0.036
27.925,-0.047
27.930,-0.058
27.935,-0.071
27.940,-0.083
27.945,-0.097
27.950,-0.110
27.955,-0.121
27.960,-0.135
27.965,-0.151
27.970,-0.170
27.975,-0.190
27.980,-0.208
27.985,-0.223
27.990,-0.235
27.995,-0.245
28.000,-0.253
28.005,-0.256
28.010,-0.252
28.015,-0.241
28.020,-0.226
28.025,-0.205
28.030,-0.173
28.035,-0.131
28.040,-0.077
28.045,-0.014
28.050,0.056
28.055,0.129
28.060,0.197
28.065,0.259
28.070,0.313
28.075,0.355
28.080,0.384
28.085,0.407
28.090,0.423
28.095,0.428
28.100,0.424
28.105,0.417
28.110,0.408
28.115,0.399
28.120,0.384
28.125,0.367
28.130,0.351
28.135,0.336
28.140,0.322
28.145,0.306
28.150,0.289
28.155,0.271
28.160,0.255
28.165,0.239
28.170,0.221
28.175,0.203
28.180,0.188
28.185,0.171
28.190,0.154
28.195,0.140
28.200,0.126
28.205,0.111
28.210,0.095
28.215,0.082
28.220,0.068
28.225,0.060
28.230,0.055
28.235,0.050
28.240,0.042
28.245,0.033
28.250,0.025
28.255,0.020
28.260,0.014
28.265,0.009
28.270,0.006
28.275,0.004
28.280,0.000
28.285,-0.003
28.290,-0.007
28.295,-0.013
28.300,-0.017
28.305,-0.018
28.310,-0.021
28.315,-0.024
28.320,-0.027
28.325,-0.029
28.330,-0.031
28.335,-0.037
28.340,-0.042
28.345,-0.043
28.350,-0.043
28.355,-0.043
28.360,-0.047
28.365,-0.050
28.370,-0.052
28.375,-0.054
28.380,-0.054
28.385,-0.056
28.390,-0.060
28.395,-0.063
28.400,-0.066
28.405,-0.066
28.410,-0.065
28.415,-0.063
28.420,-0.064
28.425,-0.068
28.430,-0.071
28.435,-0.072
28.440,-0.071
28.445,-0.070
28.450,-0.070
28.455,-0.069
28.460,-0.068
28.465,-0.067
28.470,-0.069
28.475,-0.070
28.480,-0.069
28.485,-0.069
28.490,-0.069
28.495,-0.067
28.500,-0.066
28.505,-0.067
28.510,-0.067
28.515,-0.066
28.520,-0.065
28.525,-0.064
28.530,-0.066
28.535,-0.069
28.540,-0.068
28.545,-0.066
28.550,-0.064
28.555,-0.061
28.560,-0.060
28.565,-0.061
28.570,-0.061
28.575,-0.060
28.580,-0.059
28.585,-0.059
28.590,-0.058
28.595,-0.058
28.600,-0.055
28.605,-0.052
28.610,-0.053
28.615,-0.054
28.620,-0.052
28.625,-0.045
28.630,-0.041
28.635,-0.040
28.640,-0.036
28.645,-0.037
28.650,-0.040
28.655,-0.039
28.660,-0.038
28.665,-0.038
28.670,-0.039
28.675,-0.042
28.680,-0.042
28.685,-0.044
28.690,-0.048
28.695,-0.042
28.700,-0.037
28.705,-0.058
28.710,-0.090
28.715,-0.097
28.720,-0.085
28.725,-0.079
28.730,-0.096
28.735,-0.106
28.740,-0.080
28.745,-0.053
28.750,-0.038
28.755,-0.021
28.760,-0.005
28.765,0.010
28.770,0.018
28.775,0.021
28.780,0.031
28.785,0.040
28.790,0.043
28.795,0.043
28.800,0.041
28.805,0.036
28.810,0.036
28.815,0.038
28.820,0.032
28.825,0.028
28.830,0.030
28.835,0.027
28.840,0.022
28.845,0.017
28.850,0.016
28.855,0.018
28.860,0.012
28.865,0.010
28.870,0.031
28.875,0.047
28.880,-0.005
28.885,-0.150
28.890,-0.391
28.895,-0.706
28.900,-1.034
28.905,-1.305
28.910,-1.234
28.915,-0.632
28.920,0.127
28.925,0.605
28.930,0.740
28.935,0.678
28.940,0.550
28.945,0.381
28.950,0.209
28.955,0.140
28.960,0.160
28.965,0.145
28.970,0.113
28.975,0.119
28.980,0.112
28.985,0.084
28.990,0.077
28.995,0.079
29.000,0.068
29.005,0.064
29.010,0.067
29.015,0.058
29.020,0.046
29.025,0.043
29.030,0.037
29.035,0.027
29.040,0.021
29.045,0.014
29.050,0.007
29.055,0.005
29.060,0.002
29.065,-0.001
29.070,-0.011
29.075,-0.024
29.080,-0.035
29.085,-0.048
29.090,-0.058
29.095,-0.074
29.100,-0.086
29.105,-0.093
29.110,-0.106
29.115,-0.119
29.120,-0.133
29.125,-0.151
29.130,-0.171
29.135,-0.189
29.140,-0.199
29.145,-0.206
29.150,-0.218
29.155,-0.230
29.160,-0.232
29.165,-0.225
29.170,-0.216
29.175,-0.206
29.180,-0.189
29.185,-0.165
29.190,-0.132
29.195,-0.090
29.200,-0.039
29.205,0.017
29.210,0.074
29.215,0.134
29.220,0.194
29.225,0.247
29.230,0.297
29.235,0.338
29.240,0.368
29.245,0.383
29.250,0.389
29.255,0.401
29.260,0.410
29.265,0.411
29.270,0.401
29.275,0.385
29.280,0.367
29.285,0.346
29.290,0.331
29.295,0.316
29.300,0.296
29.305,0.279
29.310,0.268
29.315,0.254
29.320,0.236
29.325,0.216
29.330,0.197
29.335,0.185
29.340,0.175
29.345,0.157
29.350,0.141
29.355,0.126
29.360,0.110
29.365,0.100
29.370,0.089
29.375,0.075
29.380,0.061
29.385,0.053
29.390,0.049
29.395,0.038
29.400,0.027
29.405,0.022
29.410,0.020
29.415,0.017
29.420,0.008
29.425,-0.001
29.430,0.000
29.435,0.003
29.440,0.004
29.445,0.002
29.450,-0.006
29.455,-0.016
29.460,-0.019
29.465,-0.023
29.470,-0.033
29.475,-0.036
29.480,-0.032
29.485,-0.027
29.490,-0.027
29.495,-0.029
29.500,-0.031
29.505,-0.033
29.510,-0.035
29.515,-0.035
29.520,-0.036
29.525,-0.040
29.530,-0.045
29.535,-0.051
29.540,-0.052
29.545,-0.051
29.550,-0.054
29.555,-0.058
29.560,-0.062
29.565,-0.064
29.570,-0.064
29.575,-0.063
29.580,-0.064
29.585,-0.071
29.590,-0.076
29.595,-0.075
29.600,-0.073
29.605,-0.068
29.610,-0.066
29.615,-0.067
29.620,-0.068
29.625,-0.071
29.630,-0.066
29.635,-0.061
29.640,-0.065
29.645,-0.073
29.650,-0.083
29.655,-0.082
29.660,-0.078
29.665,-0.077
29.670,-0.079
29.675,-0.081
29.680,-0.079
29.685,-0.078
29.690,-0.077
29.695,-0.076
29.700,-0.073
29.705,-0.069
29.710,-0.072
29.715,-0.076
29.720,-0.078
29.725,-0.078
29.730,-0.071
29.735,-0.064
29.740,-0.064
29.745,-0.065
29.750,-0.068
29.755,-0.069
29.760,-0.067
29.765,-0.063
29.770,-0.061
29.775,-0.061
29.780,-0.060
29.785,-0.059
29.790,-0.053
29.795,-0.046
29.800,-0.045
29.805,-0.045
29.810,-0.051
29.815,-0.059
29.820,-0.055
29.825,-0.046
29.830,-0.051
29.835,-0.075
29.840,-0.097
29.845,-0.101
29.850,-0.090
29.855,-0.092
29.860,-0.114
29.865,-0.110
29.870,-0.080
29.875,-0.058
29.880,-0.039
29.885,-0.021
29.890,-0.008
29.895,0.010
29.900,0.019
29.905,0.020
29.910,0.031
29.915,0.042
29.920,0.047
29.925,0.051
29.930,0.043
29.935,0.031
29.940,0.030
29.945,0.030
29.950,0.026
29.955,0.024
29.960,0.025
29.965,0.023
29.970,0.020
29.975,0.020
29.980,0.020
29.985,0.016
29.990,0.013
29.995,0.025
30.000,0.059
30.005,0.068
30.010,-0.015
30.015,-0.204
30.020,-0.499
30.025,-0.844
30.030,-1.174
30.035,-1.382
30.040,-1.143
30.045,-0.423
30.050,0.287
30.055,0.661
30.060,0.737
30.065,0.659
30.070,0.529
30.075,0.352
30.080,0.197
30.085,0.170
30.090,0.189
30.095,0.154
30.100,0.133
30.105,0.142
30.110,0.123
30.115,0.099
30.120,0.099
30.125,0.092
30.130,0.072
30.135,0.066
30.140,0.065
30.145,0.052
30.150,0.043
30.155,0.041
30.160,0.032
30.165,0.027
30.170,0.029
30.175,0.026
30.180,0.016
30.185,0.006
30.190,0.001
30.195,-0.006
30.200,-0.015
30.205,-0.025
30.210,-0.035
30.215,-0.044
30.220,-0.057
30.225,-0.071
30.230,-0.084
30.235,-0.097
30.240,-0.112
30.245,-0.127
30.250,-0.140
30.255,-0.154
30.260,-0.170
30.265,-0.184
30.270,-0.199
30.275,-0.214
30.280,-0.225
30.285,-0.232
30.290,-0.231
30.295,-0.222
30.300,-0.212
30.305,-0.197
30.310,-0.176
30.315,-0.148
30.320,-0.111
30.325,-0.066
30.330,-0.014
30.335,0.045
30.340,0.107
30.345,0.166
30.350,0.223
30.355,0.277
30.360,0.321
30.365,0.353
30.370,0.376
30.375,0.392
30.380,0.402
30.385,0.401
30.390,0.395
30.395,0.388
30.400,0.377
30.405,0.364
30.410,0.350
30.415,0.339
30.420,0.328
30.425,0.312
30.430,0.293
30.435,0.274
30.440,0.260
30.445,0.243
30.450,0.228
30.455,0.212
30.460,0.193
30.465,0.177
30.470,0.157
30.475,0.137
30.480,0.123
30.485,0.105
30.490,0.093
30.495,0.084
30.500,0.070
30.505,0.058
30.510,0.049
30.515,0.043
30.520,0.040
30.525,0.033
30.530,0.025
30.535,0.017
30.540,0.011
30.545,0.007
30.550,0.003
30.555,-0.002
30.560,-0.010
30.565,-0.017
30.570,-0.018
30.575,-0.015
30.580,-0.013
30.585,-0.017
30.590,-0.019
30.595,-0.020
30.600,-0.022
30.605,-0.026
30.610,-0.033
30.615,-0.038
30.620,-0.039
30.625,-0.041
30.630,-0.042
30.635,-0.041
30.640,-0.041
30.645,-0.045
30.650,-0.049
30.655,-0.053
30.660,-0.057
30.665,-0.056
30.670,-0.057
30.675,-0.059
30.680,-0.062
30.685,-0.065
30.690,-0.064
30.695,-0.061
30.700,-0.060
30.705,-0.060
30.710,-0.059
30.715,-0.058
30.720,-0.061
30.725,-0.064
30.730,-0.067
30.735,-0.073
30.740,-0.072
30.745,-0.069
30.750,-0.072
30.755,-0.075
30.760,-0.073
30.765,-0.069
30.770,-0.066
30.775,-0.068
30.780,-0.072
30.785,-0.072
30.790,-0.072
30.795,-0.075
30.800,-0.073
30.805,-0.067
30.810,-0.070
30.815,-0.074
30.820,-0.069
30.825,-0.066
30.830,-0.067
30.835,-0.068
30.840,-0.070
30.845,-0.069
30.850,-0.066
30.855,-0.067
30.860,-0.066
30.865,-0.061
30.870,-0.063
30.875,-0.061
30.880,-0.057
30.885,-0.061
30.890,-0.060
30.895,-0.055
30.900,-0.054
30.905,-0.052
30.910,-0.054
30.915,-0.054
30.920,-0.050
30.925,-0.040
30.930,-0.034
30.935,-0.043
30.940,-0.053
30.945,-0.054
30.950,-0.047
30.955,-0.052
30.960,-0.081
30.965,-0.102
30.970,-0.098
30.975,-0.085
30.980,-0.095
30.985,-0.123
30.990,-0.116
30.995,-0.085
31.000,-0.065
31.005,-0.050
31.010,-0.031
31.015,-0.011
31.020,0.009
31.025,0.019
31.030,0.025
31.035,0.033
31.040,0.039
31.045,0.045
31.050,0.050
31.055,0.041
31.060,0.027
31.065,0.028
31.070,0.031
31.075,0.024
31.080,0.018
31.085,0.015
31.090,0.014
31.095,0.010
31.100,0.005
31.105,0.001
31.110,0.001
31.115,0.007
31.120,0.025
31.125,0.061
31.130,0.063
31.135,-0.038
31.140,-0.250
31.145,-0.549
31.150,-0.880
31.155,-1.190
31.160,-1.342
31.165,-1.020
31.170,-0.281
31.175,0.369
31.180,0.674
31.185,0.713
31.190,0.622
31.195,0.480
31.200,0.299
31.205,0.162
31.210,0.146
31.215,0.159
31.220,0.128
31.225,0.113
31.230,0.113
31.235,0.090
31.240,0.066
31.245,0.068
31.250,0.064
31.255,0.047
31.260,0.048
31.265,0.048
31.270,0.038
31.275,0.038
31.280,0.037
31.285,0.025
31.290,0.020
31.295,0.021
31.300,0.014
31.305,0.001
31.310,-0.005
31.315,-0.007
31.320,-0.012
31.325,-0.019
31.330,-0.033
31.335,-0.049
31.340,-0.054
31.345,-0.057
31.350,-0.065
31.355,-0.081
31.360,-0.101
31.365,-0.123
31.370,-0.145
31.375,-0.161
31.380,-0.170
31.385,-0.182
31.390,-0.196
31.395,-0.206
31.400,-0.211
31.405,-0.213
31.410,-0.216
31.415,-0.219
31.420,-0.218
31.425,-0.214
31.430,-0.200
31.435,-0.172
31.440,-0.139
31.445,-0.102
31.450,-0.058
31.455,-0.007
31.460,0.049
31.465,0.108
31.470,0.169
31.475,0.225
31.480,0.279
31.485,0.330
31.490,0.370
31.495,0.398
31.500,0.413
31.505,0.416
31.510,0.413
31.515,0.405
31.520,0.396
31.525,0.390
31.530,0.379
31.535,0.358
31.540,0.339
31.545,0.326
31.550,0.314
31.555,0.305
31.560,0.297
31.565,0.276
31.570,0.250
31.575,0.233
31.580,0.220
31.585,0.203
31.590,0.182
31.595,0.157
31.600,0.137
31.605,0.122
31.610,0.106
31.615,0.099
31.620,0.094
31.625,0.084
31.630,0.074
31.635,0.060
31.640,0.050
31.645,0.044
31.650,0.036
31.655,0.028
31.660,0.018
31.665,0.010
31.670,0.009
31.675,0.007
31.680,0.002
31.685,-0.006
31.690,-0.009
31.695,-0.005
31.700,-0.006
31.705,-0.012
31.710,-0.019
31.715,-0.022
31.720,-0.021
31.725,-0.018
31.730,-0.018
31.735,-0.027
31.740,-0.034
31.745,-0.040
31.750,-0.042
31.755,-0.037
31.760,-0.041
31.765,-0.048
31.770,-0.052
31.775,-0.051
31.780,-0.042
31.785,-0.043
31.790,-0.051
31.795,-0.054
31.800,-0.054
31.805,-0.059
31.810,-0.064
31.815,-0.057
31.820,-0.057
31.825,-0.067
31.830,-0.071
31.835,-0.067
31.840,-0.057
31.845,-0.055
31.850,-0.060
31.855,-0.062
31.860,-0.067
31.865,-0.071
31.870,-0.073
31.875,-0.073
31.880,-0.070
31.885,-0.067
31.890,-0.064
31.895,-0.065
31.900,-0.064
31.905,-0.065
31.910,-0.068
31.915,-0.070
31.920,-0.073
31.925,-0.071
31.930,-0.067
31.935,-0.069
31.940,-0.070
31.945,-0.071
31.950,-0.072
31.955,-0.070
31.960,-0.072
31.965,-0.075
31.970,-0.073
31.975,-0.066
31.980,-0.060
31.985,-0.060
31.990,-0.062
31.995,-0.063
32.000,-0.060
32.005,-0.057
32.010,-0.055
32.015,-0.051
32.020,-0.047
32.025,-0.048
32.030,-0.052
32.035,-0.056
32.040,-0.056
32.045,-0.060
32.050,-0.063
32.055,-0.054
32.060,-0.051
32.065,-0.067
32.070,-0.096
32.075,-0.110
32.080,-0.100
32.085,-0.091
32.090,-0.109
32.095,-0.127
32.100,-0.104
32.105,-0.075
32.110,-0.062
32.115,-0.050
32.120,-0.040
32.125,-0.022
32.130,-0.004
32.135,0.002
32.140,0.009
32.145,0.016
32.150,0.017
32.155,0.021
32.160,0.026
32.165,0.025
32.170,0.023
32.175,0.026
32.180,0.023
32.185,0.011
32.190,0.009
32.195,0.008
32.200,0.001
32.205,-0.002
32.210,-0.004
32.215,-0.005
32.220,-0.007
32.225,-0.005
32.230,0.020
32.235,0.057
32.240,0.047
32.245,-0.062
32.250,-0.289
32.255,-0.613
32.260,-0.963
32.265,-1.277
32.270,-1.402
32.275,-1.034
32.280,-0.261
32.285,0.396
32.290,0.694
32.295,0.727
32.300,0.638
32.305,0.503
32.310,0.316
32.315,0.168
32.320,0.155
32.325,0.170
32.330,0.139
32.335,0.128
32.340,0.131
32.345,0.104
32.350,0.091
32.355,0.100
32.360,0.091
32.365,0.075
32.370,0.071
32.375,0.064
32.380,0.046
32.385,0.041
32.390,0.050
32.395,0.041
32.400,0.028
32.405,0.026
32.410,0.027
32.415,0.024
32.420,0.012
32.425,0.000
32.430,-0.003
32.435,-0.004
32.440,-0.008
32.445,-0.016
32.450,-0.025
32.455,-0.034
32.460,-0.047
32.465,-0.060
32.470,-0.074
32.475,-0.094
32.480,-0.115
32.485,-0.129
32.490,-0.141
32.495,-0.160
32.500,-0.177
32.505,-0.189
32.510,-0.202
32.515,-0.212
32.520,-0.215
32.525,-0.213
32.530,-0.206
32.535,-0.196
32.540,-0.182
32.545,-0.159
32.550,-0.133
32.555,-0.100
32.560,-0.055
32.565,-0.004
32.570,0.050
32.575,0.110
32.580,0.171
32.585,0.225
32.590,0.275
32.595,0.322
32.600,0.362
32.605,0.391
32.610,0.406
32.615,0.411
32.620,0.407
32.625,0.399
32.630,0.392
32.635,0.381
32.640,0.369
32.645,0.355
32.650,0.340
32.655,0.323
32.660,0.306
32.665,0.288
32.670,0.269
32.675,0.249
32.680,0.234
32.685,0.219
32.690,0.201
32.695,0.183
32.700,0.167
32.705,0.155
32.710,0.141
32.715,0.124
32.720,0.107
32.725,0.093
32.730,0.084
32.735,0.076
32.740,0.067
32.745,0.055
32.750,0.044
32.755,0.036
32.760,0.028
32.765,0.025
32.770,0.021
32.775,0.016
32.780,0.010
32.785,0.003
32.790,-0.001
32.795,-0.003
32.800,-0.009
32.805,-0.010
32.810,-0.012
32.815,-0.017
32.820,-0.021
32.825,-0.023
32.830,-0.026
32.835,-0.029
32.840,-0.033
32.845,-0.040
32.850,-0.045
32.855,-0.049
32.860,-0.052
32.865,-0.053
32.870,-0.052
32.875,-0.052
32.880,-0.053
32.885,-0.057
32.890,-0.061
32.895,-0.059
32.900,-0.054
32.905,-0.055
32.910,-0.060
32.915,-0.062
32.920,-0.063
32.925,-0.063
32.930,-0.063
32.935,-0.066
32.940,-0.069
32.945,-0.069
32.950,-0.070
32.955,-0.069
32.960,-0.071
32.965,-0.075
32.970,-0.076
32.975,-0.077
32.980,-0.076
32.985,-0.072
32.990,-0.070
32.995,-0.070
33.000,-0.074
33.005,-0.073
33.010,-0.072
33.015,-0.071
33.020,-0.069
33.025,-0.070
33.030,-0.071
33.035,-0.070
33.040,-0.065
33.045,-0.063
33.050,-0.064
33.055,-0.065
33.060,-0.063
33.065,-0.059
33.070,-0.058
33.075,-0.056
33.080,-0.054
33.085,-0.056
33.090,-0.057
33.095,-0.059
33.100,-0.057
33.105,-0.056
33.110,-0.060
33.115,-0.058
33.120,-0.057
33.125,-0.059
33.130,-0.063
33.135,-0.064
33.140,-0.061
33.145,-0.075
33.150,-0.103
33.155,-0.111
33.160,-0.100
33.165,-0.089
33.170,-0.105
33.175,-0.119
33.180,-0.093
33.185,-0.066
33.190,-0.054
33.195,-0.041
33.200,-0.029
33.205,-0.018
33.210,-0.009
33.215,0.001
33.220,0.014
33.225,0.029
33.230,0.035
33.235,0.032
33.240,0.029
33.245,0.021
33.250,0.019
33.255,0.029
33.260,0.027
33.265,0.018
33.270,0.010
33.275,0.007
33.280,0.005
33.285,0.002
33.290,0.004
33.295,0.003
33.300,0.000
33.305,0.005
33.310,0.026
33.315,0.050
33.320,0.018
33.325,-0.112
33.330,-0.341
33.335,-0.651
33.340,-0.986
33.345,-1.284
33.350,-1.319
33.355,-0.830
33.360,-0.060
33.365,0.499
33.370,0.705
33.375,0.690
33.380,0.582
33.385,0.429
33.390,0.248
33.395,0.140
33.400,0.150
33.405,0.149
33.410,0.113
33.415,0.115
33.420,0.116
33.425,0.090
33.430,0.082
33.435,0.084
33.440,0.069
33.445,0.054
33.450,0.052
33.455,0.046
33.460,0.035
33.465,0.034
33.470,0.034
33.475,0.032
33.480,0.028
33.485,0.020
33.490,0.011
33.495,0.001
33.500,-0.005
33.505,-0.008
33.510,-0.015
33.515,-0.020
33.520,-0.032
33.525,-0.050
33.530,-0.059
33.535,-0.071
33.540,-0.085
33.545,-0.091
33.550,-0.101
33.555,-0.115
33.560,-0.136
33.565,-0.157
33.570,-0.168
33.575,-0.178
33.580,-0.192
33.585,-0.207
33.590,-0.214
33.595,-0.218
33.600,-0.226
33.605,-0.227
33.610,-0.218
33.615,-0.202
33.620,-0.182
33.625,-0.161
33.630,-0.133
33.635,-0.092
33.640,-0.046
33.645,0.000
33.650,0.060
33.655,0.131
33.660,0.196
33.665,0.254
33.670,0.298
33.675,0.331
33.680,0.366
33.685,0.388
33.690,0.396
33.695,0.401
33.700,0.401
33.705,0.401
33.710,0.397
33.715,0.384
33.720,0.371
33.725,0.360
33.730,0.346
33.735,0.329
33.740,0.313
33.745,0.294
33.750,0.271
33.755,0.253
33.760,0.238
33.765,0.221
33.770,0.203
33.775,0.185
33.780,0.172
33.785,0.160
33.790,0.146
33.795,0.127
33.800,0.104
33.805,0.090
33.810,0.082
33.815,0.079
33.820,0.073
33.825,0.059
33.830,0.047
33.835,0.035
33.840,0.024
33.845,0.020
33.850,0.019
33.855,0.016
33.860,0.012
33.865,0.006
33.870,-0.001
33.875,-0.006
33.880,-0.010
33.885,-0.022
33.890,-0.033
33.895,-0.029
33.900,-0.020
33.905,-0.017
33.910,-0.022
33.915,-0.032
33.920,-0.036
33.925,-0.034
33.930,-0.031
33.935,-0.029
33.940,-0.033
33.945,-0.043
33.950,-0.048
33.955,-0.052
33.960,-0.057
33.965,-0.058
33.970,-0.058
33.975,-0.061
33.980,-0.065
33.985,-0.067
33.990,-0.063
33.995,-0.058
34.000,-0.055
34.005,-0.054
34.010,-0.063
34.015,-0.072
34.020,-0.075
34.025,-0.074
34.030,-0.072
34.035,-0.070
34.040,-0.067
34.045,-0.065
34.050,-0.067
34.055,-0.069
34.060,-0.072
34.065,-0.077
34.070,-0.076
34.075,-0.075
34.080,-0.073
34.085,-0.070
34.090,-0.068
34.095,-0.070
34.100,-0.072
34.105,-0.072
34.110,-0.070
34.115,-0.065
34.120,-0.064
34.125,-0.067
34.130,-0.066
34.135,-0.062
34.140,-0.056
34.145,-0.055
34.150,-0.065
34.155,-0.071
34.160,-0.066
34.165,-0.058
34.170,-0.058
34.175,-0.059
34.180,-0.056
34.185,-0.054
34.190,-0.050
34.195,-0.050
34.200,-0.056
34.205,-0.057
34.210,-0.056
34.215,-0.067
34.220,-0.092
34.225,-0.111
34.230,-0.106
34.235,-0.090
34.240,-0.096
34.245,-0.120
34.250,-0.119
34.255,-0.092
34.260,-0.077
34.265,-0.062
34.270,-0.041
34.275,-0.024
34.280,-0.008
34.285,0.000
34.290,0.004
34.295,0.017
34.300,0.027
34.305,0.031
34.310,0.030
34.315,0.022
34.320,0.015
34.325,0.017
34.330,0.017
34.335,0.008
34.340,0.006
34.345,0.008
34.350,0.006
34.355,0.006
34.360,0.004
34.365,-0.002
34.370,-0.010
34.375,-0.014
34.380,0.000
34.385,0.038
34.390,0.060
34.395,-0.009
34.400,-0.191
34.405,-0.477
34.410,-0.818
34.415,-1.145
34.420,-1.382
34.425,-1.224
34.430,-0.550
34.435,0.191
34.440,0.614
34.445,0.722
34.450,0.663
34.455,0.545
34.460,0.371
34.465,0.195
34.470,0.138
34.475,0.158
34.480,0.135
34.485,0.111
34.490,0.120
34.495,0.102
34.500,0.075
34.505,0.080
34.510,0.080
34.515,0.063
34.520,0.059
34.525,0.060
34.530,0.051
34.535,0.039
34.540,0.035
34.545,0.029
34.550,0.018
34.555,0.017
34.560,0.018
34.565,0.013
34.570,0.006
34.575,-0.002
34.580,-0.009
34.585,-0.017
34.590,-0.027
34.595,-0.036
34.600,-0.043
34.605,-0.053
34.610,-0.067
34.615,-0.083
34.620,-0.097
34.625,-0.109
34.630,-0.124
34.635,-0.140
34.640,-0.151
34.645,-0.161
34.650,-0.173
34.655,-0.186
34.660,-0.198
34.665,-0.206
34.670,-0.212
34.675,-0.214
34.680,-0.208
34.685,-0.198
34.690,-0.183
34.695,-0.164
34.700,-0.140
34.705,-0.109
34.710,-0.069
34.715,-0.019
34.720,0.036
34.725,0.095
34.730,0.155
34.735,0.210
34.740,0.260
34.745,0.303
34.750,0.336
34.755,0.364
34.760,0.385
34.765,0.395
34.770,0.399
34.775,0.397
34.780,0.391
34.785,0.379
34.790,0.367
34.795,0.356
34.800,0.343
34.805,0.328
34.810,0.310
34.815,0.295
34.820,0.277
34.825,0.257
34.830,0.241
34.835,0.222
34.840,0.206
34.845,0.189
34.850,0.173
34.855,0.158
34.860,0.142
34.865,0.128
34.870,0.115
34.875,0.103
34.880,0.091
34.885,0.079
34.890,0.067
34.895,0.056
34.900,0.047
34.905,0.040
34.910,0.032
34.915,0.027
34.920,0.024
34.925,0.021
34.930,0.017
34.935,0.014
34.940,0.010
34.945,0.005
34.950,-0.001
34.955,-0.002
34.960,-0.002
34.965,-0.006
34.970,-0.011
34.975,-0.015
34.980,-0.019
34.985,-0.023
34.990,-0.026
34.995,-0.030
35.000,-0.032
35.005,-0.032
35.010,-0.036
35.015,-0.040
35.020,-0.043
35.025,-0.046
35.030,-0.047
35.035,-0.047
35.040,-0.050
35.045,-0.053
35.050,-0.054
35.055,-0.056
35.060,-0.058
35.065,-0.059
35.070,-0.061
35.075,-0.063
35.080,-0.064
35.085,-0.065
35.090,-0.064
35.095,-0.063
35.100,-0.064
35.105,-0.066
35.110,-0.069
35.115,-0.069
35.120,-0.069
35.125,-0.071
35.130,-0.069
35.135,-0.070
35.140,-0.071
35.145,-0.070
35.150,-0.071
35.155,-0.069
35.160,-0.069
35.165,-0.070
35.170,-0.068
35.175,-0.065
35.180,-0.062
35.185,-0.063
35.190,-0.066
35.195,-0.067
35.200,-0.068
35.205,-0.065
35.210,-0.063
35.215,-0.062
35.220,-0.060
35.225,-0.059
35.230,-0.060
35.235,-0.060
35.240,-0.060
35.245,-0.061
35.250,-0.059
35.255,-0.056
35.260,-0.055
35.265,-0.054
35.270,-0.051
35.275,-0.047
35.280,-0.046
35.285,-0.048
35.290,-0.050
35.295,-0.049
35.300,-0.047
35.305,-0.044
35.310,-0.041
35.315,-0.041
35.320,-0.046
35.325,-0.053
35.330,-0.050
35.335,-0.042
35.340,-0.051
35.345,-0.081
35.350,-0.105
35.355,-0.104
35.360,-0.088
35.365,-0.090
35.370,-0.109
35.375,-0.098
35.380,-0.067
35.385,-0.050
35.390,-0.036
35.395,-0.019
35.400,-0.005
35.405,0.010
35.410,0.019
35.415,0.024
35.420,0.030
35.425,0.033
35.430,0.041
35.435,0.046
35.440,0.041
35.445,0.035
35.450,0.031
35.455,0.031
35.460,0.026
35.465,0.020
35.470,0.021
35.475,0.018
35.480,0.016
35.485,0.015
35.490,0.012
35.495,0.007
35.500,0.009
35.505,0.020
35.510,0.043
35.515,0.054
35.520,-0.009
35.525,-0.171
35.530,-0.435
35.535,-0.766
35.540,-1.099
35.545,-1.347
35.550,-1.208
35.555,-0.549
35.560,0.192
35.565,0.626
35.570,0.733
35.575,0.660
35.580,0.528
35.585,0.352
35.590,0.188
35.595,0.143
35.600,0.166
35.605,0.143
35.610,0.115
35.615,0.121
35.620,0.112
35.625,0.086
35.630,0.085
35.635,0.086
35.640,0.071
35.645,0.066
35.650,0.066
35.655,0.057
35.660,0.050
35.665,0.047
35.670,0.038
35.675,0.029
35.680,0.026
35.685,0.020
35.690,0.012
35.695,0.007
35.700,0.002
35.705,-0.006
35.710,-0.017
35.715,-0.024
35.720,-0.033
35.725,-0.043
35.730,-0.053
35.735,-0.067
35.740,-0.080
35.745,-0.091
35.750,-0.105
35.755,-0.120
35.760,-0.136
35.765,-0.151
35.770,-0.164
35.775,-0.176
35.780,-0.187
35.785,-0.199
35.790,-0.208
35.795,-0.213
35.800,-0.215
35.805,-0.213
35.810,-0.210
35.815,-0.200
35.820,-0.183
35.825,-0.157
35.830,-0.124
35.835,-0.087
35.840,-0.043
35.845,0.008
35.850,0.067
35.855,0.129
35.860,0.184
35.865,0.235
35.870,0.281
35.875,0.319
35.880,0.352
35.885,0.377
35.890,0.390
35.895,0.396
35.900,0.399
35.905,0.396
35.910,0.387
35.915,0.377
35.920,0.364
35.925,0.349
35.930,0.331
35.935,0.312
35.940,0.296
35.945,0.281
35.950,0.263
35.955,0.245
35.960,0.229
35.965,0.215
35.970,0.198
35.975,0.180
35.980,0.164
35.985,0.149
35.990,0.136
35.995,0.123
36.000,0.109
36.005,0.098
36.010,0.088
36.015,0.078
36.020,0.068
36.025,0.059
36.030,0.050
36.035,0.041
36.040,0.035
36.045,0.031
36.050,0.028
36.055,0.027
36.060,0.022
36.065,0.015
36.070,0.007
36.075,0.000
36.080,-0.003
36.085,-0.005
36.090,-0.007
36.095,-0.014
36.100,-0.018
36.105,-0.018
36.110,-0.021
36.115,-0.023
36.120,-0.026
36.125,-0.032
36.130,-0.035
36.135,-0.037
36.140,-0.039
36.145,-0.039
36.150,-0.040
36.155,-0.044
36.160,-0.046
36.165,-0.046
36.170,-0.049
36.175,-0.052
36.180,-0.055
36.185,-0.059
36.190,-0.059
36.195,-0.061
36.200,-0.064
36.205,-0.064
36.210,-0.065
36.215,-0.066
36.220,-0.068
36.225,-0.069
36.230,-0.067
36.235,-0.068
36.240,-0.067
36.245,-0.069
36.250,-0.074
36.255,-0.074
36.260,-0.072
36.265,-0.068
36.270,-0.069
36.275,-0.072
36.280,-0.071
36.285,-0.070
36.290,-0.069
36.295,-0.067
36.300,-0.065
36.305,-0.064
36.310,-0.067
36.315,-0.070
36.320,-0.069
36.325,-0.066
36.330,-0.063
36.335,-0.061
36.340,-0.061
36.345,-0.063
36.350,-0.063
36.355,-0.061
36.360,-0.059
36.365,-0.057
36.370,-0.055
36.375,-0.056
36.380,-0.055
36.385,-0.056
36.390,-0.057
36.395,-0.055
36.400,-0.054
36.405,-0.053
36.410,-0.050
36.415,-0.049
36.420,-0.047
36.425,-0.045
36.430,-0.043
36.435,-0.041
36.440,-0.039
36.445,-0.040
36.450,-0.038
36.455,-0.037
36.460,-0.038
36.465,-0.038
36.470,-0.043
36.475,-0.047
36.480,-0.046
36.485,-0.043
36.490,-0.053
36.495,-0.083
36.500,-0.102
36.505,-0.095
36.510,-0.082
36.515,-0.090
36.520,-0.104
36.525,-0.088
36.530,-0.061
36.535,-0.046
36.540,-0.032
36.545,-0.014
36.550,0.000
36.555,0.013
36.560,0.024
36.565,0.032
36.570,0.039
36.575,0.043
36.580,0.048
36.585,0.051
36.590,0.042
36.595,0.034
36.600,0.037
36.605,0.038
36.610,0.031
36.615,0.027
36.620,0.021
36.625,0.014
36.630,0.013
36.635,0.012
36.640,0.009
36.645,0.006
36.650,0.009
36.655,0.030
36.660,0.058
36.665,0.050
36.670,-0.045
36.675,-0.242
36.680,-0.532
36.685,-0.863
36.690,-1.181
36.695,-1.339
36.700,-1.033
36.705,-0.299
36.710,0.367
36.715,0.688
36.720,0.729
36.725,0.628
36.730,0.479
36.735,0.298
36.740,0.161
36.745,0.149
36.750,0.162
36.755,0.126
36.760,0.110
36.765,0.113
36.770,0.089
36.775,0.073
36.780,0.084
36.785,0.081
36.790,0.068
36.795,0.067
36.800,0.063
36.805,0.049
36.810,0.038
36.815,0.035
36.820,0.029
36.825,0.024
36.830,0.022
36.835,0.013
36.840,0.001
36.845,-0.006
36.850,-0.010
36.855,-0.014
36.860,-0.023
36.865,-0.033
36.870,-0.042
36.875,-0.048
36.880,-0.056
36.885,-0.072
36.890,-0.090
36.895,-0.106
36.900,-0.123
36.905,-0.134
36.910,-0.144
36.915,-0.151
36.920,-0.160
36.925,-0.179
36.930,-0.197
36.935,-0.209
36.940,-0.214
36.945,-0.216
36.950,-0.219
36.955,-0.216
36.960,-0.210
36.965,-0.195
36.970,-0.172
36.975,-0.146
36.980,-0.115
36.985,-0.078
36.990,-0.034
36.995,0.021
37.000,0.081
37.005,0.141
37.010,0.193
37.015,0.234
37.020,0.270
37.025,0.306
37.030,0.337
37.035,0.358
37.040,0.374
37.045,0.379
37.050,0.378
37.055,0.376
37.060,0.370
37.065,0.360
37.070,0.348
37.075,0.333
37.080,0.323
37.085,0.309
37.090,0.283
37.095,0.258
37.100,0.242
37.105,0.230
37.110,0.215
37.115,0.202
37.120,0.184
37.125,0.162
37.130,0.146
37.135,0.126
37.140,0.113
37.145,0.106
37.150,0.099
37.155,0.095
37.160,0.086
37.165,0.073
37.170,0.062
37.175,0.051
37.180,0.044
37.185,0.033
37.190,0.027
37.195,0.025
37.200,0.018
37.205,0.013
37.210,0.007
37.215,0.002
37.220,-0.003
37.225,-0.004
37.230,-0.003
37.235,-0.004
37.240,-0.005
37.245,-0.009
37.250,-0.015
37.255,-0.023
37.260,-0.032
37.265,-0.034
37.270,-0.028
37.275,-0.030
37.280,-0.039
37.285,-0.044
37.290,-0.045
37.295,-0.044
37.300,-0.044
37.305,-0.047
37.310,-0.049
37.315,-0.051
37.320,-0.053
37.325,-0.055
37.330,-0.058
37.335,-0.060
37.340,-0.059
37.345,-0.059
37.350,-0.059
37.355,-0.058
37.360,-0.057
37.365,-0.059
37.370,-0.067
37.375,-0.068
37.380,-0.062
37.385,-0.063
37.390,-0.066
37.395,-0.070
37.400,-0.073
37.405,-0.068
37.410,-0.068
37.415,-0.071
37.420,-0.071
37.425,-0.066
37.430,-0.061
37.435,-0.063
37.440,-0.069
37.445,-0.069
37.450,-0.066
37.455,-0.064
37.460,-0.067
37.465,-0.067
37.470,-0.064
37.475,-0.065
37.480,-0.071
37.485,-0.072
37.490,-0.066
37.495,-0.061
37.500,-0.061
37.505,-0.061
37.510,-0.058
37.515,-0.053
37.520,-0.055
37.525,-0.060
37.530,-0.057
37.535,-0.054
37.540,-0.052
37.545,-0.052
37.550,-0.054
37.555,-0.057
37.560,-0.058
37.565,-0.051
37.570,-0.051
37.575,-0.077
37.580,-0.103
37.585,-0.110
37.590,-0.100
37.595,-0.099
37.600,-0.121
37.605,-0.120
37.610,-0.088
37.615,-0.065
37.620,-0.050
37.625,-0.033
37.630,-0.019
37.635,-0.002
37.640,0.007
37.645,0.008
37.650,0.017
37.655,0.026
37.660,0.030
37.665,0.036
37.670,0.034
37.675,0.027
37.680,0.026
37.685,0.023
37.690,0.017
37.695,0.014
37.700,0.015
37.705,0.011
37.710,0.008
37.715,0.011
37.720,0.009
37.725,0.001
37.730,-0.004
37.735,0.001
37.740,0.034
37.745,0.069
37.750,0.033
37.755,-0.116
37.760,-0.381
37.765,-0.719
37.770,-1.050
37.775,-1.326
37.780,-1.305
37.785,-0.761
37.790,0.000
37.795,0.517
37.800,0.699
37.805,0.688
37.810,0.593
37.815,0.433
37.820,0.242
37.825,0.140
37.830,0.154
37.835,0.149
37.840,0.117
37.845,0.115
37.850,0.106
37.855,0.083
37.860,0.084
37.865,0.089
37.870,0.071
37.875,0.060
37.880,0.065
37.885,0.057
37.890,0.043
37.895,0.042
37.900,0.038
37.905,0.027
37.910,0.020
37.915,0.019
37.920,0.016
37.925,0.008
37.930,0.000
37.935,-0.008
37.940,-0.014
37.945,-0.018
37.950,-0.028
37.955,-0.043
37.960,-0.057
37.965,-0.068
37.970,-0.075
37.975,-0.082
37.980,-0.094
37.985,-0.109
37.990,-0.121
37.995,-0.137
38.000,-0.154
38.005,-0.163
38.010,-0.170
38.015,-0.180
38.020,-0.195
38.025,-0.206
38.030,-0.204
38.035,-0.199
38.040,-0.188
38.045,-0.171
38.050,-0.154
38.055,-0.133
38.060,-0.106
38.065,-0.072
38.070,-0.031
38.075,0.013
38.080,0.065
38.085,0.123
38.090,0.179
38.095,0.228
38.100,0.269
38.105,0.304
38.110,0.333
38.115,0.356
38.120,0.371
38.125,0.378
38.130,0.380
38.135,0.379
38.140,0.375
38.145,0.366
38.150,0.354
38.155,0.339
38.160,0.320
38.165,0.302
38.170,0.284
38.175,0.268
38.180,0.255
38.185,0.239
38.190,0.223
38.195,0.207
38.200,0.190
38.205,0.174
38.210,0.156
38.215,0.139
38.220,0.126
38.225,0.115
38.230,0.103
38.235,0.091
38.240,0.081
38.245,0.074
38.250,0.066
38.255,0.058
38.260,0.048
38.265,0.039
38.270,0.032
38.275,0.027
38.280,0.024
38.285,0.018
38.290,0.016
38.295,0.016
38.300,0.012
38.305,0.007
38.310,-0.001
38.315,-0.005
38.320,-0.007
38.325,-0.012
38.330,-0.016
38.335,-0.019
38.340,-0.021
38.345,-0.024
38.350,-0.026
38.355,-0.026
38.360,-0.030
38.365,-0.035
38.370,-0.038
38.375,-0.042
38.380,-0.043
38.385,-0.045
38.390,-0.048
38.395,-0.048
38.400,-0.051
38.405,-0.054
38.410,-0.054
38.415,-0.055
38.420,-0.059
38.425,-0.062
38.430,-0.062
38.435,-0.063
38.440,-0.063
38.445,-0.060
38.450,-0.060
38.455,-0.063
38.460,-0.069
38.465,-0.071
38.470,-0.070
38.475,-0.071
38.480,-0.071
38.485,-0.067
38.490,-0.067
38.495,-0.072
38.500,-0.074
38.505,-0.072
38.510,-0.070
38.515,-0.068
38.520,-0.066
38.525,-0.064
38.530,-0.062
38.535,-0.064
38.540,-0.064
38.545,-0.064
38.550,-0.066
38.555,-0.065
38.560,-0.063
38.565,-0.064
38.570,-0.065
38.575,-0.064
38.580,-0.059
38.585,-0.058
38.590,-0.058
38.595,-0.057
38.600,-0.058
38.605,-0.059
38.610,-0.061
38.615,-0.064
38.620,-0.064
38.625,-0.057
38.630,-0.063
38.635,-0.089
38.640,-0.111
38.645,-0.112
38.650,-0.098
38.655,-0.100
38.660,-0.122
38.665,-0.118
38.670,-0.089
38.675,-0.072
38.680,-0.058
38.685,-0.039
38.690,-0.020
38.695,-0.005
38.700,0.003
38.705,0.010
38.710,0.017
38.715,0.021
38.720,0.024
38.725,0.028
38.730,0.026
38.735,0.020
38.740,0.020
38.745,0.021
38.750,0.015
38.755,0.011
38.760,0.010
38.765,0.006
38.770,0.002
38.775,-0.001
38.780,-0.002
38.785,-0.005
38.790,-0.006
38.795,0.002
38.800,0.030
38.805,0.048
38.810,-0.012
38.815,-0.175
38.820,-0.440
38.825,-0.770
38.830,-1.093
38.835,-1.343
38.840,-1.227
38.845,-0.597
38.850,0.141
38.855,0.593
38.860,0.722
38.865,0.667
38.870,0.539
38.875,0.362
38.880,0.191
38.885,0.134
38.890,0.157
38.895,0.137
38.900,0.107
38.905,0.115
38.910,0.105
38.915,0.082
38.920,0.083
38.925,0.080
38.930,0.063
38.935,0.057
38.940,0.058
38.945,0.049
38.950,0.039
38.955,0.040
38.960,0.040
38.965,0.033
38.970,0.028
38.975,0.021
38.980,0.009
38.985,0.000
38.990,-0.003
38.995,-0.008
39.000,-0.019
39.005,-0.028
39.010,-0.038
39.015,-0.047
39.020,-0.055
39.025,-0.068
39.030,-0.082
39.035,-0.094
39.040,-0.105
39.045,-0.120
39.050,-0.135
39.055,-0.150
39.060,-0.166
39.065,-0.179
39.070,-0.189
39.075,-0.200
39.080,-0.209
39.085,-0.216
39.090,-0.218
39.095,-0.215
39.100,-0.207
39.105,-0.192
39.110,-0.171
39.115,-0.145
39.120,-0.115
39.125,-0.080
39.130,-0.037
39.135,0.016
39.140,0.074
39.145,0.132
39.150,0.187
39.155,0.237
39.160,0.282
39.165,0.324
39.170,0.353
39.175,0.372
39.180,0.387
39.185,0.393
39.190,0.392
39.195,0.386
39.200,0.376
39.205,0.367
39.210,0.356
39.215,0.341
39.220,0.326
39.225,0.310
39.230,0.291
39.235,0.271
39.240,0.255
39.245,0.240
39.250,0.225
39.255,0.211
39.260,0.194
39.265,0.177
39.270,0.163
39.275,0.147
39.280,0.131
39.285,0.117
39.290,0.105
39.295,0.096
39.300,0.086
39.305,0.076
39.310,0.065
39.315,0.055
39.320,0.048
39.325,0.041
39.330,0.036
39.335,0.029
39.340,0.023
39.345,0.019
39.350,0.013
39.355,0.009
39.360,0.004
39.365,0.002
39.370,0.001
39.375,-0.004
39.380,-0.008
39.385,-0.013
39.390,-0.016
39.395,-0.018
39.400,-0.022
39.405,-0.024
39.410,-0.027
39.415,-0.030
39.420,-0.033
39.425,-0.038
39.430,-0.040
39.435,-0.042
39.440,-0.044
39.445,-0.045
39.450,-0.048
39.455,-0.050
39.460,-0.053
39.465,-0.057
39.470,-0.058
39.475,-0.061
39.480,-0.062
39.485,-0.062
39.490,-0.063
39.495,-0.065
39.500,-0.066
39.505,-0.067
39.510,-0.069
39.515,-0.069
39.520,-0.069
39.525,-0.068
39.530,-0.067
39.535,-0.072
39.540,-0.075
39.545,-0.076
39.550,-0.076
39.555,-0.071
39.560,-0.070
39.565,-0.071
39.570,-0.070
39.575,-0.073
39.580,-0.072
39.585,-0.069
39.590,-0.069
39.595,-0.069
39.600,-0.071
39.605,-0.070
39.610,-0.067
39.615,-0.067
39.620,-0.066
39.625,-0.063
39.630,-0.064
39.635,-0.067
39.640,-0.067
39.645,-0.063
39.650,-0.059
39.655,-0.058
39.660,-0.058
39.665,-0.057
39.670,-0.055
39.675,-0.054
39.680,-0.053
39.685,-0.054
39.690,-0.055
39.695,-0.055
39.700,-0.058
39.705,-0.062
39.710,-0.059
39.715,-0.052
39.720,-0.065
39.725,-0.096
39.730,-0.112
39.735,-0.107
39.740,-0.094
39.745,-0.107
39.750,-0.125
39.755,-0.104
39.760,-0.075
39.765,-0.060
39.770,-0.044
39.775,-0.030
39.780,-0.010
39.785,0.007
39.790,0.014
39.795,0.020
39.800,0.026
39.805,0.029
39.810,0.035
39.815,0.036
39.820,0.030
39.825,0.026
39.830,0.029
39.835,0.026
39.840,0.020
39.845,0.017
39.850,0.016
39.855,0.012
39.860,0.008
39.865,0.006
39.870,0.002
39.875,-0.004
39.880,-0.002
39.885,0.023
39.890,0.056
39.895,0.036
39.900,-0.081
39.905,-0.302
39.910,-0.606
39.915,-0.940
39.920,-1.251
39.925,-1.339
39.930,-0.915
39.935,-0.156
39.940,0.442
39.945,0.695
39.950,0.706
39.955,0.599
39.960,0.442
39.965,0.256
39.970,0.145
39.975,0.155
39.980,0.159
39.985,0.121
39.990,0.116
39.995,0.119
40.000,0.094
40.005,0.081
40.010,0.086
40.015,0.076
40.020,0.061
40.025,0.060
40.030,0.059
40.035,0.046
40.040,0.041
40.045,0.041
40.050,0.031
40.055,0.028
40.060,0.024
40.065,0.014
40.070,0.009
40.075,0.002
40.080,-0.007
40.085,-0.013
40.090,-0.017
40.095,-0.023
40.100,-0.034
40.105,-0.046
40.110,-0.059
40.115,-0.073
40.120,-0.088
40.125,-0.101
40.130,-0.113
40.135,-0.127
40.140,-0.140
40.145,-0.154
40.150,-0.170
40.155,-0.183
40.160,-0.194
40.165,-0.200
40.170,-0.209
40.175,-0.216
40.180,-0.214
40.185,-0.209
40.190,-0.196
40.195,-0.176
40.200,-0.158
40.205,-0.134
40.210,-0.103
40.215,-0.063
40.220,-0.012
40.225,0.042
40.230,0.098
40.235,0.154
40.240,0.211
40.245,0.261
40.250,0.299
40.255,0.330
40.260,0.355
40.265,0.375
40.270,0.390
40.275,0.392
40.280,0.390
40.285,0.384
40.290,0.377
40.295,0.369
40.300,0.352
40.305,0.336
40.310,0.319
40.315,0.301
40.320,0.284
40.325,0.267
40.330,0.250
40.335,0.230
40.340,0.209
40.345,0.195
40.350,0.184
40.355,0.173
40.360,0.158
40.365,0.141
40.370,0.126
40.375,0.114
40.380,0.107
40.385,0.100
40.390,0.089
40.395,0.075
40.400,0.063
40.405,0.053
40.410,0.044
40.415,0.036
40.420,0.031
40.425,0.030
40.430,0.027
40.435,0.025
40.440,0.022
40.445,0.014
40.450,0.004
40.455,0.000
40.460,0.000
40.465,-0.001
40.470,-0.006
40.475,-0.016
40.480,-0.020
40.485,-0.019
40.490,-0.020
40.495,-0.024
40.500,-0.032
40.505,-0.038
40.510,-0.038
40.515,-0.038
40.520,-0.039
40.525,-0.041
40.530,-0.043
40.535,-0.043
40.540,-0.043
40.545,-0.045
40.550,-0.049
40.555,-0.056
40.560,-0.061
40.565,-0.064
40.570,-0.064
40.575,-0.062
40.580,-0.059
40.585,-0.058
40.590,-0.061
40.595,-0.067
40.600,-0.072
40.605,-0.070
40.610,-0.068
40.615,-0.068
40.620,-0.067
40.625,-0.065
40.630,-0.062
40.635,-0.064
40.640,-0.068
40.645,-0.070
40.650,-0.073
40.655,-0.074
40.660,-0.074
40.665,-0.074
40.670,-0.072
40.675,-0.070
40.680,-0.067
40.685,-0.063
40.690,-0.059
40.695,-0.061
40.700,-0.068
40.705,-0.073
40.710,-0.072
40.715,-0.063
40.720,-0.057
40.725,-0.060
40.730,-0.065
40.735,-0.066
40.740,-0.067
40.745,-0.067
40.750,-0.067
40.755,-0.063
40.760,-0.056
40.765,-0.050
40.770,-0.048
40.775,-0.048
40.780,-0.048
40.785,-0.050
40.790,-0.058
40.795,-0.058
40.800,-0.050
40.805,-0.057
40.810,-0.083
40.815,-0.111
40.820,-0.119
40.825,-0.105
40.830,-0.102
40.835,-0.122
40.840,-0.120
40.845,-0.085
40.850,-0.061
40.855,-0.046
40.860,-0.031
40.865,-0.023
40.870,-0.010
40.875,0.002
40.880,0.007
40.885,0.018
40.890,0.026
40.895,0.028
40.900,0.031
40.905,0.028
40.910,0.021
40.915,0.022
40.920,0.027
40.925,0.025
40.930,0.021
40.935,0.016
40.940,0.010
40.945,0.006
40.950,0.005
40.955,0.008
40.960,0.005
40.965,0.001
40.970,0.006
40.975,0.038
40.980,0.064
40.985,0.007
40.990,-0.161
40.995,-0.430
41.000,-0.762
41.005,-1.086
41.010,-1.337
41.015,-1.241
41.020,-0.625
41.025,0.120
41.030,0.580
41.035,0.719
41.040,0.676
41.045,0.558
41.050,0.387
41.055,0.208
41.060,0.136
41.065,0.154
41.070,0.133
41.075,0.102
41.080,0.116
41.085,0.114
41.090,0.090
41.095,0.083
41.100,0.081
41.105,0.069
41.110,0.062
41.115,0.063
41.120,0.054
41.125,0.043
41.130,0.039
41.135,0.032
41.140,0.024
41.145,0.021
41.150,0.016
41.155,0.008
41.160,0.002
41.165,-0.003
41.170,-0.013
41.175,-0.022
41.180,-0.025
41.185,-0.034
41.190,-0.046
41.195,-0.058
41.200,-0.070
41.205,-0.080
41.210,-0.092
41.215,-0.103
41.220,-0.115
41.225,-0.129
41.230,-0.141
41.235,-0.152
41.240,-0.163
41.245,-0.175
41.250,-0.190
41.255,-0.198
41.260,-0.201
41.265,-0.202
41.270,-0.197
41.275,-0.185
41.280,-0.171
41.285,-0.156
41.290,-0.134
41.295,-0.104
41.300,-0.067
41.305,-0.024
41.310,0.018
41.315,0.064
41.320,0.122
41.325,0.182
41.330,0.233
41.335,0.271
41.340,0.302
41.345,0.332
41.350,0.354
41.355,0.369
41.360,0.376
41.365,0.376
41.370,0.373
41.375,0.366
41.380,0.359
41.385,0.348
41.390,0.331
41.395,0.316
41.400,0.301
41.405,0.283
41.410,0.263
41.415,0.246
41.420,0.233
41.425,0.218
41.430,0.200
41.435,0.180
41.440,0.164
41.445,0.152
41.450,0.140
41.455,0.127
41.460,0.115
41.465,0.105
41.470,0.093
41.475,0.080
41.480,0.069
41.485,0.059
41.490,0.051
41.495,0.047
41.500,0.041
41.505,0.034
41.510,0.025
41.515,0.018
41.520,0.013
41.525,0.008
41.530,0.006
41.535,0.005
41.540,0.006
41.545,0.004
41.550,-0.003
41.555,-0.008
41.560,-0.014
41.565,-0.017
41.570,-0.017
41.575,-0.022
41.580,-0.028
41.585,-0.032
41.590,-0.034
41.595,-0.034
41.600,-0.036
41.605,-0.039
41.610,-0.042
41.615,-0.043
41.620,-0.043
41.625,-0.044
41.630,-0.046
41.635,-0.050
41.640,-0.055
41.645,-0.057
41.650,-0.060
41.655,-0.061
41.660,-0.061
41.665,-0.060
41.670,-0.062
41.675,-0.066
41.680,-0.066
41.685,-0.063
41.690,-0.063
41.695,-0.064
41.700,-0.067
41.705,-0.066
41.710,-0.067
41.715,-0.070
41.720,-0.071
41.725,-0.073
41.730,-0.070
41.735,-0.065
41.740,-0.064
41.745,-0.066
41.750,-0.070
41.755,-0.069
41.760,-0.064
41.765,-0.062
41.770,-0.062
41.775,-0.065
41.780,-0.066
41.785,-0.066
41.790,-0.065
41.795,-0.064
41.800,-0.062
41.805,-0.060
41.810,-0.058
41.815,-0.058
41.820,-0.060
41.825,-0.066
41.830,-0.068
41.835,-0.061
41.840,-0.062
41.845,-0.087
41.850,-0.117
41.855,-0.124
41.860,-0.112
41.865,-0.106
41.870,-0.123
41.875,-0.128
41.880,-0.101
41.885,-0.081
41.890,-0.068
41.895,-0.051
41.900,-0.038
41.905,-0.023
41.910,-0.010
41.915,-0.004
41.920,0.005
41.925,0.013
41.930,0.020
41.935,0.026
41.940,0.025
41.945,0.017
41.950,0.014
41.955,0.017
41.960,0.011
41.965,0.005
41.970,0.004
41.975,0.002
41.980,-0.001
41.985,-0.004
41.990,-0.006
41.995,-0.007
42.000,-0.010
42.005,-0.008
42.010,0.012
42.015,0.044
42.020,0.031
42.025,-0.081
42.030,-0.303
42.035,-0.615
42.040,-0.951
42.045,-1.258
42.050,-1.359
42.055,-0.959
42.060,-0.200
42.065,0.418
42.070,0.686
42.075,0.705
42.080,0.606
42.085,0.453
42.090,0.263
42.095,0.135
42.100,0.135
42.105,0.145
42.110,0.111
42.115,0.106
42.120,0.111
42.125,0.087
42.130,0.075
42.135,0.078
42.140,0.072
42.145,0.064
42.150,0.064
42.155,0.063
42.160,0.049
42.165,0.040
42.170,0.038
42.175,0.028
42.180,0.022
42.185,0.020
42.190,0.013
42.195,0.004
42.200,-0.005
42.205,-0.016
42.210,-0.022
42.215,-0.025
42.220,-0.032
42.225,-0.042
42.230,-0.053
42.235,-0.064
42.240,-0.071
42.245,-0.082
42.250,-0.091
42.255,-0.105
42.260,-0.125
42.265,-0.140
42.270,-0.150
42.275,-0.165
42.280,-0.182
42.285,-0.190
42.290,-0.194
42.295,-0.203
42.300,-0.215
42.305,-0.219
42.310,-0.209
42.315,-0.191
42.320,-0.174
42.325,-0.153
42.330,-0.125
42.335,-0.089
42.340,-0.043
42.345,0.007
42.350,0.061
42.355,0.117
42.360,0.170
42.365,0.222
42.370,0.273
42.375,0.318
42.380,0.347
42.385,0.361
42.390,0.371
42.395,0.382
42.400,0.389
42.405,0.391
42.410,0.388
42.415,0.380
42.420,0.366
42.425,0.348
42.430,0.335
42.435,0.323
42.440,0.307
42.445,0.289
42.450,0.268
42.455,0.251
42.460,0.234
42.465,0.216
42.470,0.200
42.475,0.182
42.480,0.166
42.485,0.148
42.490,0.132
42.495,0.123
42.500,0.114
42.505,0.100
42.510,0.079
42.515,0.064
42.520,0.061
42.525,0.063
42.530,0.059
42.535,0.046
42.540,0.041
42.545,0.039
42.550,0.029
42.555,0.020
42.560,0.017
42.565,0.017
42.570,0.014
42.575,0.007
42.580,0.000
42.585,-0.005
42.590,-0.010
42.595,-0.013
42.600,-0.015
42.605,-0.018
42.610,-0.021
42.615,-0.019
42.620,-0.019
42.625,-0.025
42.630,-0.032
42.635,-0.040
42.640,-0.044
42.645,-0.041
42.650,-0.041
42.655,-0.043
42.660,-0.045
42.665,-0.048
42.670,-0.052
42.675,-0.054
42.680,-0.052
42.685,-0.049
42.690,-0.051
42.695,-0.058
42.700,-0.062
42.705,-0.061
42.710,-0.063
42.715,-0.067
42.720,-0.073
42.725,-0.074
42.730,-0.069
42.735,-0.068
42.740,-0.063
42.745,-0.059
42.750,-0.062
42.755,-0.066
42.760,-0.072
42.765,-0.075
42.770,-0.071
42.775,-0.071
42.780,-0.067
42.785,-0.063
42.790,-0.072
42.795,-0.082
42.800,-0.082
42.805,-0.074
42.810,-0.066
42.815,-0.062
42.820,-0.063
42.825,-0.064
42.830,-0.062
42.835,-0.062
42.840,-0.065
42.845,-0.067
42.850,-0.067
42.855,-0.065
42.860,-0.065
42.865,-0.068
42.870,-0.070
42.875,-0.065
42.880,-0.056
42.885,-0.063
42.890,-0.093
42.895,-0.117
42.900,-0.119
42.905,-0.105
42.910,-0.115
42.915,-0.140
42.920,-0.128
42.925,-0.097
42.930,-0.076
42.935,-0.059
42.940,-0.044
42.945,-0.025
42.950,-0.010
42.955,-0.004
42.960,0.001
42.965,0.008
42.970,0.013
42.975,0.020
42.980,0.024
42.985,0.016
42.990,0.012
42.995,0.018
43.000,0.017
43.005,0.013
43.010,0.009
43.015,0.005
43.020,0.000
43.025,-0.004
43.030,-0.005
43.035,-0.005
43.040,-0.008
43.045,-0.010
43.050,0.004
43.055,0.038
43.060,0.050
43.065,-0.022
43.070,-0.203
43.075,-0.492
43.080,-0.834
43.085,-1.159
43.090,-1.381
43.095,-1.199
43.100,-0.520
43.105,0.205
43.110,0.615
43.115,0.720
43.120,0.665
43.125,0.546
43.130,0.370
43.135,0.193
43.140,0.136
43.145,0.156
43.150,0.131
43.155,0.109
43.160,0.118
43.165,0.101
43.170,0.073
43.175,0.073
43.180,0.072
43.185,0.056
43.190,0.053
43.195,0.054
43.200,0.043
43.205,0.038
43.210,0.038
43.215,0.024
43.220,0.013
43.225,0.015
43.230,0.022
43.235,0.019
43.240,0.008
43.245,-0.002
43.250,-0.007
43.255,-0.015
43.260,-0.029
43.265,-0.042
43.270,-0.051
43.275,-0.058
43.280,-0.068
43.285,-0.086
43.290,-0.098
43.295,-0.106
43.300,-0.117
43.305,-0.127
43.310,-0.142
43.315,-0.158
43.320,-0.173
43.325,-0.189
43.330,-0.200
43.335,-0.206
43.340,-0.207
43.345,-0.203
43.350,-0.195
43.355,-0.184
43.360,-0.173
43.365,-0.160
43.370,-0.140
43.375,-0.108
43.380,-0.062
43.385,-0.009
43.390,0.044
43.395,0.091
43.400,0.141
43.405,0.200
43.410,0.253
43.415,0.295
43.420,0.327
43.425,0.353
43.430,0.374
43.435,0.388
43.440,0.395
43.445,0.393
43.450,0.383
43.455,0.370
43.460,0.358
43.465,0.347
43.470,0.330
43.475,0.310
43.480,0.294
43.485,0.281
43.490,0.270
43.495,0.256
43.500,0.240
43.505,0.222
43.510,0.204
43.515,0.186
43.520,0.167
43.525,0.149
43.530,0.133
43.535,0.117
43.540,0.105
43.545,0.095
43.550,0.085
43.555,0.076
43.560,0.066
43.565,0.055
43.570,0.045
43.575,0.035
43.580,0.027
43.585,0.024
43.590,0.027
43.595,0.027
43.600,0.022
43.605,0.016
43.610,0.008
43.615,0.006
43.620,0.004
43.625,-0.004
43.630,-0.009
43.635,-0.010
43.640,-0.010
43.645,-0.010
43.650,-0.015
43.655,-0.022
43.660,-0.027
43.665,-0.030
43.670,-0.033
43.675,-0.035
43.680,-0.032
43.685,-0.033
43.690,-0.034
43.695,-0.030
43.700,-0.036
43.705,-0.041
43.710,-0.042
43.715,-0.042
43.720,-0.044
43.725,-0.055
43.730,-0.062
43.735,-0.058
43.740,-0.055
43.745,-0.058
43.750,-0.060
43.755,-0.059
43.760,-0.059
43.765,-0.060
43.770,-0.063
43.775,-0.064
43.780,-0.064
43.785,-0.065
43.790,-0.063
43.795,-0.063
43.800,-0.064
43.805,-0.062
43.810,-0.065
43.815,-0.069
43.820,-0.068
43.825,-0.069
43.830,-0.070
43.835,-0.073
43.840,-0.075
43.845,-0.073
43.850,-0.071
43.855,-0.068
43.860,-0.069
43.865,-0.070
43.870,-0.069
43.875,-0.067
43.880,-0.065
43.885,-0.063
43.890,-0.058
43.895,-0.057
43.900,-0.064
43.905,-0.069
43.910,-0.069
43.915,-0.065
43.920,-0.060
43.925,-0.058
43.930,-0.055
43.935,-0.058
43.940,-0.061
43.945,-0.063
43.950,-0.062
43.955,-0.057
43.960,-0.058
43.965,-0.062
43.970,-0.057
43.975,-0.060
43.980,-0.086
43.985,-0.118
43.990,-0.126
43.995,-0.106
44.000,-0.094
44.005,-0.114
44.010,-0.124
44.015,-0.099
44.020,-0.077
44.025,-0.066
44.030,-0.050
44.035,-0.033
44.040,-0.012
44.045,0.002
44.050,0.005
44.055,0.012
44.060,0.023
44.065,0.034
44.070,0.041
44.075,0.035
44.080,0.025
44.085,0.023
44.090,0.026
44.095,0.020
44.100,0.014
44.105,0.016
44.110,0.014
44.115,0.007
44.120,0.004
44.125,0.001
44.130,0.000
44.135,0.001
44.140,0.009
44.145,0.038
44.150,0.060
44.155,0.007
44.160,-0.154
44.165,-0.424
44.170,-0.764
44.175,-1.103
44.180,-1.370
44.185,-1.274
44.190,-0.644
44.195,0.123
44.200,0.597
44.205,0.737
44.210,0.690
44.215,0.570
44.220,0.399
44.225,0.221
44.230,0.153
44.235,0.172
44.240,0.149
44.245,0.117
44.250,0.126
44.255,0.122
44.260,0.098
44.265,0.094
44.270,0.093
44.275,0.076
44.280,0.069
44.285,0.069
44.290,0.059
44.295,0.049
44.300,0.042
44.305,0.035
44.310,0.026
44.315,0.023
44.320,0.022
44.325,0.018
44.330,0.016
44.335,0.007
44.340,-0.003
44.345,-0.009
44.350,-0.018
44.355,-0.022
44.360,-0.029
44.365,-0.040
44.370,-0.050
44.375,-0.068
44.380,-0.080
44.385,-0.088
44.390,-0.102
44.395,-0.117
44.400,-0.131
44.405,-0.148
44.410,-0.165
44.415,-0.179
44.420,-0.190
44.425,-0.199
44.430,-0.202
44.435,-0.205
44.440,-0.205
44.445,-0.199
44.450,-0.190
44.455,-0.174
44.460,-0.152
44.465,-0.122
44.470,-0.085
44.475,-0.045
44.480,0.003
44.485,0.058
44.490,0.120
44.495,0.182
44.500,0.235
44.505,0.280
44.510,0.315
44.515,0.342
44.520,0.368
44.525,0.385
44.530,0.391
44.535,0.389
44.540,0.383
44.545,0.376
44.550,0.365
44.555,0.351
44.560,0.337
44.565,0.323
44.570,0.309
44.575,0.292
44.580,0.275
44.585,0.256
44.590,0.240
44.595,0.226
44.600,0.207
44.605,0.189
44.610,0.172
44.615,0.156
44.620,0.143
44.625,0.129
44.630,0.115
44.635,0.101
44.640,0.086
44.645,0.073
44.650,0.062
44.655,0.054
44.660,0.046
44.665,0.039
44.670,0.032
44.675,0.022
44.680,0.018
44.685,0.015
44.690,0.010
44.695,0.006
44.700,0.001
44.705,-0.002
44.710,-0.005
44.715,-0.007
44.720,-0.006
44.725,-0.007
44.730,-0.011
44.735,-0.016
44.740,-0.021
44.745,-0.025
44.750,-0.030
44.755,-0.033
44.760,-0.035
44.765,-0.035
44.770,-0.035
44.775,-0.037
44.780,-0.040
44.785,-0.045
44.790,-0.050
44.795,-0.051
44.800,-0.052
44.805,-0.052
44.810,-0.054
44.815,-0.054
44.820,-0.054
44.825,-0.058
44.830,-0.061
44.835,-0.063
44.840,-0.063
44.845,-0.063
44.850,-0.065
44.855,-0.069
44.860,-0.073
44.865,-0.075
44.870,-0.074
44.875,-0.074
44.880,-0.073
44.885,-0.073
44.890,-0.072
44.895,-0.071
44.900,-0.071
44.905,-0.069
44.910,-0.067
44.915,-0.067
44.920,-0.069
44.925,-0.069
44.930,-0.064
