'Elapsed time','ECG'
'seconds','mV'
0.000,-0.147
0.005,-0.267
0.010,-0.253
0.015,-0.213
0.020,-0.160
0.025,-0.120
0.030,-0.111
0.035,-0.047
0.040,0.009
0.045,0.028
0.050,0.065
0.055,0.094
0.060,0.101
0.065,0.120
0.070,0.139
0.075,0.138
0.080,0.133
0.085,0.135
0.090,0.132
0.095,0.125
0.100,0.123
0.105,0.119
0.110,0.107
0.115,0.099
0.120,0.095
0.125,0.087
0.130,0.081
0.135,0.080
0.140,0.079
0.145,0.075
0.150,0.070
0.155,0.062
0.160,0.055
0.165,0.050
0.170,0.048
0.175,0.048
0.180,0.043
0.185,0.035
0.190,0.028
0.195,0.022
0.200,0.020
0.205,0.019
0.210,0.017
0.215,0.014
0.220,0.013
0.225,0.010
0.230,0.007
0.235,0.004
0.240,0.000
0.245,-0.001
0.250,-0.002
0.255,-0.002
0.260,-0.002
0.265,-0.005
0.270,-0.007
0.275,-0.006
0.280,-0.007
0.285,-0.009
0.290,-0.008
0.295,-0.010
0.300,-0.013
0.305,-0.013
0.310,-0.011
0.315,-0.010
0.320,-0.011
0.325,-0.012
0.330,-0.011
0.335,-0.012
0.340,-0.015
0.345,-0.018
0.350,-0.018
0.355,-0.018
0.360,-0.021
0.365,-0.023
0.370,-0.023
0.375,-0.022
0.380,-0.020
0.385,-0.018
0.390,-0.018
0.395,-0.019
0.400,-0.026
0.405,-0.043
0.410,-0.063
0.415,-0.080
0.420,-0.089
0.425,-0.089
0.430,-0.082
0.435,-0.084
0.440,-0.106
0.445,-0.132
0.450,-0.140
0.455,-0.128
0.460,-0.109
0.465,-0.104
0.470,-0.105
0.475,-0.086
0.480,-0.063
0.485,-0.053
0.490,-0.045
0.495,-0.032
0.500,-0.008
0.505,0.030
0.510,0.062
0.515,0.077
0.520,0.081
0.525,0.078
0.530,0.076
0.535,0.076
0.540,0.070
0.545,0.063
0.550,0.063
0.555,0.063
0.560,0.068
0.565,0.089
0.570,0.109
0.575,0.075
0.580,-0.065
0.585,-0.309
0.590,-0.611
0.595,-0.872
0.600,-0.979
0.605,-0.902
0.610,-0.589
0.615,-0.137
0.620,0.164
0.625,0.272
0.630,0.255
0.635,0.249
0.640,0.344
0.645,0.378
0.650,0.339
0.655,0.302
0.660,0.249
0.665,0.205
0.670,0.180
0.675,0.163
0.680,0.158
0.685,0.151
0.690,0.134
0.695,0.122
0.700,0.119
0.705,0.112
0.710,0.102
0.715,0.096
0.720,0.090
0.725,0.084
0.730,0.076
0.735,0.064
0.740,0.051
0.745,0.042
0.750,0.034
0.755,0.023
0.760,0.013
0.765,0.003
0.770,-0.008
0.775,-0.017
0.780,-0.028
0.785,-0.038
0.790,-0.050
0.795,-0.064
0.800,-0.077
0.805,-0.094
0.810,-0.110
0.815,-0.124
0.820,-0.141
0.825,-0.155
0.830,-0.172
0.835,-0.186
0.840,-0.192
0.845,-0.191
0.850,-0.185
0.855,-0.179
0.860,-0.163
0.865,-0.134
0.870,-0.098
0.875,-0.053
0.880,-0.011
0.885,0.031
0.890,0.071
0.895,0.106
0.900,0.146
0.905,0.171
0.910,0.178
0.915,0.188
0.920,0.195
0.925,0.201
0.930,0.202
0.935,0.197
0.940,0.197
0.945,0.198
0.950,0.196
0.955,0.191
0.960,0.180
0.965,0.165
0.970,0.152
0.975,0.149
0.980,0.149
0.985,0.144
0.990,0.137
0.995,0.127
1.000,0.109
1.005,0.091
1.010,0.083
1.015,0.082
1.020,0.085
1.025,0.081
1.030,0.066
1.035,0.057
1.040,0.056
1.045,0.062
1.050,0.063
1.055,0.050
1.060,0.039
1.065,0.031
1.070,0.024
1.075,0.019
1.080,0.011
1.085,0.005
1.090,0.003
1.095,0.001
1.100,0.002
1.105,0.003
1.110,-0.006
1.115,-0.011
1.120,-0.012
1.125,-0.013
1.130,-0.011
1.135,-0.015
1.140,-0.015
1.145,-0.010
1.150,-0.013
1.155,-0.020
1.160,-0.026
1.165,-0.031
1.170,-0.032
1.175,-0.031
1.180,-0.029
1.185,-0.023
1.190,-0.023
1.195,-0.029
1.200,-0.034
1.205,-0.036
1.210,-0.036
1.215,-0.033
1.220,-0.032
1.225,-0.038
1.230,-0.043
1.235,-0.040
1.240,-0.033
1.245,-0.030
1.250,-0.033
1.255,-0.042
1.260,-0.050
1.265,-0.047
1.270,-0.043
1.275,-0.047
1.280,-0.063
1.285,-0.085
1.290,-0.101
1.295,-0.110
1.300,-0.109
1.305,-0.103
1.310,-0.111
1.315,-0.135
1.320,-0.156
1.325,-0.159
1.330,-0.150
1.335,-0.142
1.340,-0.133
1.345,-0.115
1.350,-0.094
1.355,-0.077
1.360,-0.063
1.365,-0.056
1.370,-0.044
1.375,-0.012
1.380,0.027
1.385,0.052
1.390,0.053
1.395,0.042
1.400,0.042
1.405,0.050
1.410,0.057
1.415,0.065
1.420,0.063
1.425,0.052
1.430,0.049
1.435,0.059
1.440,0.082
1.445,0.098
1.450,0.062
1.455,-0.077
1.460,-0.307
1.465,-0.583
1.470,-0.831
1.475,-0.931
1.480,-0.848
1.485,-0.561
1.490,-0.143
1.495,0.137
1.500,0.226
1.505,0.225
1.510,0.173
1.515,0.186
1.520,0.252
1.525,0.273
1.530,0.287
1.535,0.274
1.540,0.227
1.545,0.205
1.550,0.182
1.555,0.153
1.560,0.147
1.565,0.147
1.570,0.134
1.575,0.121
1.580,0.115
1.585,0.105
1.590,0.086
1.595,0.076
1.600,0.073
1.605,0.063
1.610,0.061
1.615,0.062
1.620,0.057
1.625,0.061
1.630,0.056
1.635,0.035
1.640,0.020
1.645,0.008
1.650,-0.007
1.655,-0.028
1.660,-0.040
1.665,-0.040
1.670,-0.038
1.675,-0.041
1.680,-0.066
1.685,-0.099
1.690,-0.117
1.695,-0.124
1.700,-0.145
1.705,-0.172
1.710,-0.179
1.715,-0.159
1.720,-0.140
1.725,-0.141
1.730,-0.144
1.735,-0.133
1.740,-0.123
1.745,-0.115
1.750,-0.086
1.755,-0.038
1.760,0.005
1.765,0.028
1.770,0.047
1.775,0.088
1.780,0.133
1.785,0.160
1.790,0.172
1.795,0.178
1.800,0.185
1.805,0.190
1.810,0.190
1.815,0.178
1.820,0.170
1.825,0.171
1.830,0.167
1.835,0.156
1.840,0.145
1.845,0.140
1.850,0.139
1.855,0.132
1.860,0.107
1.865,0.079
1.870,0.081
1.875,0.103
1.880,0.108
1.885,0.085
1.890,0.059
1.895,0.063
1.900,0.075
1.905,0.063
1.910,0.045
1.915,0.050
1.920,0.061
1.925,0.049
1.930,0.028
1.935,0.015
1.940,0.008
1.945,0.015
1.950,0.023
1.955,0.011
1.960,-0.003
1.965,-0.010
1.970,-0.013
1.975,-0.006
1.980,0.000
1.985,0.006
1.990,0.007
1.995,-0.007
2.000,-0.019
2.005,-0.022
2.010,-0.016
2.015,-0.005
2.020,0.005
2.025,0.004
2.030,-0.011
2.035,-0.033
2.040,-0.034
2.045,-0.020
2.050,-0.016
2.055,-0.013
2.060,-0.013
2.065,-0.021
2.070,-0.042
2.075,-0.070
2.080,-0.077
2.085,-0.059
2.090,-0.031
2.095,-0.011
2.100,-0.009
2.105,-0.015
2.110,-0.024
2.115,-0.021
2.120,-0.013
2.125,-0.023
2.130,-0.034
2.135,-0.045
2.140,-0.058
2.145,-0.054
2.150,-0.036
2.155,-0.028
2.160,-0.050
2.165,-0.090
2.170,-0.102
2.175,-0.085
2.180,-0.085
2.185,-0.103
2.190,-0.128
2.195,-0.151
2.200,-0.155
2.205,-0.144
2.210,-0.129
2.215,-0.122
2.220,-0.122
2.225,-0.102
2.230,-0.071
2.235,-0.059
2.240,-0.054
2.245,-0.039
2.250,-0.010
2.255,0.033
2.260,0.067
2.265,0.072
2.270,0.061
2.275,0.047
2.280,0.055
2.285,0.080
2.290,0.085
2.295,0.073
2.300,0.062
2.305,0.059
2.310,0.071
2.315,0.093
2.320,0.111
2.325,0.071
2.330,-0.080
2.335,-0.316
2.340,-0.588
2.345,-0.828
2.350,-0.938
2.355,-0.878
2.360,-0.597
2.365,-0.165
2.370,0.132
2.375,0.236
2.380,0.250
2.385,0.198
2.390,0.197
2.395,0.242
2.400,0.262
2.405,0.301
2.410,0.298
2.415,0.235
2.420,0.192
2.425,0.173
2.430,0.163
2.435,0.160
2.440,0.154
2.445,0.135
2.450,0.119
2.455,0.116
2.460,0.109
2.465,0.101
2.470,0.104
2.475,0.097
2.480,0.076
2.485,0.068
2.490,0.069
2.495,0.064
2.500,0.046
2.505,0.026
2.510,0.015
2.515,0.009
2.520,0.007
2.525,0.001
2.530,-0.016
2.535,-0.025
2.540,-0.031
2.545,-0.039
2.550,-0.044
2.555,-0.065
2.560,-0.090
2.565,-0.108
2.570,-0.130
2.575,-0.151
2.580,-0.167
2.585,-0.177
2.590,-0.171
2.595,-0.155
2.600,-0.148
2.605,-0.146
2.610,-0.137
2.615,-0.118
2.620,-0.092
2.625,-0.061
2.630,-0.021
2.635,0.021
2.640,0.053
2.645,0.072
2.650,0.099
2.655,0.131
2.660,0.153
2.665,0.165
2.670,0.169
2.675,0.173
2.680,0.174
2.685,0.173
2.690,0.171
2.695,0.164
2.700,0.156
2.705,0.150
2.710,0.141
2.715,0.136
2.720,0.135
2.725,0.131
2.730,0.123
2.735,0.114
2.740,0.106
2.745,0.103
2.750,0.100
2.755,0.086
2.760,0.071
2.765,0.064
2.770,0.055
2.775,0.049
2.780,0.053
2.785,0.058
2.790,0.058
2.795,0.050
2.800,0.039
2.805,0.030
2.810,0.026
2.815,0.025
2.820,0.028
2.825,0.029
2.830,0.019
2.835,0.011
2.840,0.010
2.845,0.005
2.850,-0.001
2.855,-0.008
2.860,-0.014
2.865,-0.021
2.870,-0.027
2.875,-0.025
2.880,-0.022
2.885,-0.020
2.890,-0.017
2.895,-0.011
2.900,-0.006
2.905,-0.008
2.910,-0.009
2.915,-0.011
2.920,-0.015
2.925,-0.020
2.930,-0.028
2.935,-0.034
2.940,-0.038
2.945,-0.040
2.950,-0.042
2.955,-0.045
2.960,-0.041
2.965,-0.031
2.970,-0.025
2.975,-0.026
2.980,-0.030
2.985,-0.029
2.990,-0.029
2.995,-0.027
3.000,-0.026
3.005,-0.033
3.010,-0.041
3.015,-0.044
3.020,-0.041
3.025,-0.037
3.030,-0.036
3.035,-0.035
3.040,-0.036
3.045,-0.045
3.050,-0.066
3.055,-0.085
3.060,-0.092
3.065,-0.091
3.070,-0.085
3.075,-0.083
3.080,-0.095
3.085,-0.123
3.090,-0.151
3.095,-0.158
3.100,-0.144
3.105,-0.128
3.110,-0.115
3.115,-0.102
3.120,-0.078
3.125,-0.057
3.130,-0.054
3.135,-0.048
3.140,-0.033
3.145,-0.004
3.150,0.033
3.155,0.056
3.160,0.066
3.165,0.070
3.170,0.066
3.175,0.063
3.180,0.065
3.185,0.063
3.190,0.059
3.195,0.059
3.200,0.062
3.205,0.071
3.210,0.094
3.215,0.096
3.220,0.014
3.225,-0.173
3.230,-0.446
3.235,-0.736
3.240,-0.931
3.245,-0.960
3.250,-0.799
3.255,-0.419
3.260,-0.011
3.265,0.201
3.270,0.273
3.275,0.248
3.280,0.246
3.285,0.323
3.290,0.337
3.295,0.320
3.300,0.303
3.305,0.245
3.310,0.200
3.315,0.179
3.320,0.163
3.325,0.161
3.330,0.162
3.335,0.148
3.340,0.133
3.345,0.124
3.350,0.110
3.355,0.097
3.360,0.090
3.365,0.087
3.370,0.080
3.375,0.072
3.380,0.068
3.385,0.064
3.390,0.053
3.395,0.037
3.400,0.024
3.405,0.015
3.410,0.011
3.415,0.007
3.420,-0.001
3.425,-0.014
3.430,-0.032
3.435,-0.048
3.440,-0.060
3.445,-0.070
3.450,-0.086
3.455,-0.107
3.460,-0.127
3.465,-0.145
3.470,-0.158
3.475,-0.166
3.480,-0.174
3.485,-0.180
3.490,-0.181
3.495,-0.178
3.500,-0.166
3.505,-0.145
3.510,-0.117
3.515,-0.086
3.520,-0.049
3.525,-0.010
3.530,0.027
3.535,0.065
3.540,0.100
3.545,0.129
3.550,0.152
3.555,0.167
3.560,0.179
3.565,0.190
3.570,0.197
3.575,0.202
3.580,0.201
3.585,0.192
3.590,0.183
3.595,0.178
3.600,0.172
3.605,0.164
3.610,0.157
3.615,0.150
3.620,0.142
3.625,0.131
3.630,0.123
3.635,0.118
3.640,0.110
3.645,0.101
3.650,0.091
3.655,0.085
3.660,0.077
3.665,0.069
3.670,0.060
3.675,0.056
3.680,0.053
3.685,0.048
3.690,0.040
3.695,0.029
3.700,0.025
3.705,0.022
3.710,0.019
3.715,0.017
3.720,0.009
3.725,0.003
3.730,0.001
3.735,-0.002
3.740,-0.005
3.745,-0.007
3.750,-0.008
3.755,-0.010
3.760,-0.013
3.765,-0.016
3.770,-0.017
3.775,-0.018
3.780,-0.023
3.785,-0.029
3.790,-0.030
3.795,-0.029
3.800,-0.024
3.805,-0.023
3.810,-0.027
3.815,-0.031
3.820,-0.035
3.825,-0.038
3.830,-0.038
3.835,-0.038
3.840,-0.036
3.845,-0.035
3.850,-0.038
3.855,-0.040
3.860,-0.036
3.865,-0.038
3.870,-0.039
3.875,-0.037
3.880,-0.036
3.885,-0.035
3.890,-0.037
3.895,-0.036
3.900,-0.034
3.905,-0.038
3.910,-0.040
3.915,-0.040
3.920,-0.038
3.925,-0.035
3.930,-0.037
3.935,-0.038
3.940,-0.040
3.945,-0.042
3.950,-0.042
3.955,-0.048
3.960,-0.065
3.965,-0.087
3.970,-0.100
3.975,-0.103
3.980,-0.098
3.985,-0.090
3.990,-0.099
3.995,-0.121
4.000,-0.143
4.005,-0.152
4.010,-0.139
4.015,-0.122
4.020,-0.115
4.025,-0.108
4.030,-0.092
4.035,-0.066
4.040,-0.052
4.045,-0.049
4.050,-0.042
4.055,-0.021
4.060,0.023
4.065,0.055
4.070,0.069
4.075,0.076
4.080,0.074
4.085,0.073
4.090,0.074
4.095,0.073
4.100,0.071
4.105,0.069
4.110,0.068
4.115,0.073
4.120,0.092
4.125,0.114
4.130,0.084
4.135,-0.052
4.140,-0.296
4.145,-0.595
4.150,-0.854
4.155,-0.967
4.160,-0.908
4.165,-0.626
4.170,-0.186
4.175,0.132
4.180,0.258
4.185,0.260
4.190,0.255
4.195,0.347
4.200,0.390
4.205,0.347
4.210,0.308
4.215,0.258
4.220,0.210
4.225,0.184
4.230,0.167
4.235,0.159
4.240,0.152
4.245,0.139
4.250,0.130
4.255,0.123
4.260,0.113
4.265,0.106
4.270,0.099
4.275,0.093
4.280,0.085
4.285,0.078
4.290,0.072
4.295,0.061
4.300,0.053
4.305,0.044
4.310,0.035
4.315,0.028
4.320,0.018
4.325,0.006
4.330,-0.009
4.335,-0.020
4.340,-0.030
4.345,-0.042
4.350,-0.053
4.355,-0.071
4.360,-0.091
4.365,-0.110
4.370,-0.127
4.375,-0.136
4.380,-0.150
4.385,-0.168
4.390,-0.180
4.395,-0.185
4.400,-0.181
4.405,-0.177
4.410,-0.174
4.415,-0.166
4.420,-0.147
4.425,-0.113
4.430,-0.070
4.435,-0.021
4.440,0.020
4.445,0.055
4.450,0.090
4.455,0.120
4.460,0.150
4.465,0.175
4.470,0.188
4.475,0.198
4.480,0.207
4.485,0.210
4.490,0.209
4.495,0.206
4.500,0.201
4.505,0.191
4.510,0.182
4.515,0.175
4.520,0.168
4.525,0.160
4.530,0.149
4.535,0.140
4.540,0.132
4.545,0.121
4.550,0.117
4.555,0.114
4.560,0.110
4.565,0.102
4.570,0.089
4.575,0.080
4.580,0.071
4.585,0.059
4.590,0.052
4.595,0.050
4.600,0.048
4.605,0.044
4.610,0.036
4.615,0.031
4.620,0.029
4.625,0.025
4.630,0.019
4.635,0.013
4.640,0.003
4.645,-0.005
4.650,-0.004
4.655,-0.006
4.660,-0.009
4.665,-0.011
4.670,-0.009
4.675,-0.005
4.680,-0.010
4.685,-0.019
4.690,-0.027
4.695,-0.033
4.700,-0.033
4.705,-0.032
4.710,-0.028
4.715,-0.022
4.720,-0.019
4.725,-0.018
4.730,-0.021
4.735,-0.020
4.740,-0.018
4.745,-0.027
4.750,-0.042
4.755,-0.044
4.760,-0.038
4.765,-0.038
4.770,-0.037
4.775,-0.033
4.780,-0.032
4.785,-0.033
4.790,-0.035
4.795,-0.032
4.800,-0.028
4.805,-0.030
4.810,-0.032
4.815,-0.032
4.820,-0.035
4.825,-0.037
4.830,-0.036
4.835,-0.039
4.840,-0.045
4.845,-0.043
4.850,-0.039
4.855,-0.039
4.860,-0.041
4.865,-0.040
4.870,-0.039
4.875,-0.040
4.880,-0.038
4.885,-0.037
4.890,-0.048
4.895,-0.071
4.900,-0.094
4.905,-0.107
4.910,-0.109
4.915,-0.102
4.920,-0.103
4.925,-0.121
4.930,-0.140
4.935,-0.148
4.940,-0.139
4.945,-0.125
4.950,-0.122
4.955,-0.117
4.960,-0.096
4.965,-0.072
4.970,-0.057
4.975,-0.049
4.980,-0.043
4.985,-0.030
4.990,-0.001
4.995,0.035
5.000,0.061
5.005,0.071
5.010,0.067
5.015,0.067
5.020,0.078
5.025,0.083
5.030,0.080
5.035,0.072
5.040,0.062
5.045,0.060
5.050,0.070
5.055,0.088
5.060,0.076
5.065,-0.022
5.070,-0.219
5.075,-0.486
5.080,-0.755
5.085,-0.912
5.090,-0.890
5.095,-0.669
5.100,-0.265
5.105,0.085
5.110,0.220
5.115,0.243
5.120,0.205
5.125,0.211
5.130,0.286
5.135,0.310
5.140,0.313
5.145,0.301
5.150,0.237
5.155,0.191
5.160,0.178
5.165,0.163
5.170,0.154
5.175,0.148
5.180,0.133
5.185,0.131
5.190,0.131
5.195,0.121
5.200,0.109
5.205,0.098
5.210,0.095
5.215,0.083
5.220,0.065
5.225,0.057
5.230,0.049
5.235,0.042
5.240,0.035
5.245,0.026
5.250,0.017
5.255,0.012
5.260,0.011
5.265,0.003
5.270,-0.008
5.275,-0.019
5.280,-0.036
5.285,-0.048
5.290,-0.068
5.295,-0.099
5.300,-0.113
5.305,-0.123
5.310,-0.135
5.315,-0.143
5.320,-0.157
5.325,-0.169
5.330,-0.180
5.335,-0.184
5.340,-0.167
5.345,-0.144
5.350,-0.128
5.355,-0.098
5.360,-0.063
5.365,-0.036
5.370,-0.006
5.375,0.022
5.380,0.045
5.385,0.069
5.390,0.093
5.395,0.126
5.400,0.150
5.405,0.161
5.410,0.173
5.415,0.185
5.420,0.191
5.425,0.191
5.430,0.185
5.435,0.173
5.440,0.159
5.445,0.154
5.450,0.158
5.455,0.163
5.460,0.149
5.465,0.134
5.470,0.131
5.475,0.119
5.480,0.100
5.485,0.091
5.490,0.084
5.495,0.085
5.500,0.089
5.505,0.076
5.510,0.070
5.515,0.071
5.520,0.062
5.525,0.057
5.530,0.046
5.535,0.028
5.540,0.006
5.545,-0.012
5.550,-0.005
5.555,0.022
5.560,0.035
5.565,0.019
5.570,0.009
5.575,0.016
5.580,0.015
5.585,0.004
5.590,-0.014
5.595,-0.021
5.600,-0.013
5.605,-0.004
5.610,-0.002
5.615,-0.007
5.620,-0.010
5.625,-0.010
5.630,-0.012
5.635,-0.019
5.640,-0.032
5.645,-0.031
5.650,-0.026
5.655,-0.032
5.660,-0.020
5.665,-0.005
5.670,-0.005
5.675,-0.015
5.680,-0.032
5.685,-0.041
5.690,-0.043
5.695,-0.044
5.700,-0.040
5.705,-0.036
5.710,-0.031
5.715,-0.021
5.720,-0.016
5.725,-0.021
5.730,-0.023
5.735,-0.036
5.740,-0.054
5.745,-0.052
5.750,-0.038
5.755,-0.019
5.760,-0.010
5.765,-0.019
5.770,-0.018
5.775,-0.013
5.780,-0.024
5.785,-0.037
5.790,-0.037
5.795,-0.039
5.800,-0.052
5.805,-0.062
5.810,-0.070
5.815,-0.082
5.820,-0.097
5.825,-0.110
5.830,-0.107
5.835,-0.094
5.840,-0.102
5.845,-0.133
5.850,-0.154
5.855,-0.144
5.860,-0.130
5.865,-0.127
5.870,-0.123
5.875,-0.120
5.880,-0.109
5.885,-0.088
5.890,-0.070
5.895,-0.052
5.900,-0.025
5.905,0.004
5.910,0.036
5.915,0.065
5.920,0.072
5.925,0.068
5.930,0.067
5.935,0.071
5.940,0.075
5.945,0.072
5.950,0.059
5.955,0.049
5.960,0.060
5.965,0.080
5.970,0.102
5.975,0.130
5.980,0.105
5.985,-0.036
5.990,-0.280
5.995,-0.565
6.000,-0.804
6.005,-0.917
6.010,-0.878
6.015,-0.630
6.020,-0.215
6.025,0.099
6.030,0.213
6.035,0.227
6.040,0.185
6.045,0.190
6.050,0.251
6.055,0.284
6.060,0.312
6.065,0.309
6.070,0.247
6.075,0.204
6.080,0.189
6.085,0.171
6.090,0.174
6.095,0.185
6.100,0.165
6.105,0.139
6.110,0.132
6.115,0.119
6.120,0.103
6.125,0.102
6.130,0.103
6.135,0.096
6.140,0.085
6.145,0.073
6.150,0.066
6.155,0.059
6.160,0.051
6.165,0.034
6.170,0.018
6.175,0.014
6.180,0.011
6.185,0.003
6.190,-0.007
6.195,-0.024
6.200,-0.044
6.205,-0.059
6.210,-0.067
6.215,-0.076
6.220,-0.092
6.225,-0.110
6.230,-0.126
6.235,-0.133
6.240,-0.137
6.245,-0.146
6.250,-0.150
6.255,-0.152
6.260,-0.152
6.265,-0.140
6.270,-0.122
6.275,-0.107
6.280,-0.081
6.285,-0.044
6.290,-0.009
6.295,0.026
6.300,0.062
6.305,0.099
6.310,0.135
6.315,0.154
6.320,0.162
6.325,0.170
6.330,0.171
6.335,0.166
6.340,0.166
6.345,0.170
6.350,0.167
6.355,0.158
6.360,0.150
6.365,0.141
6.370,0.136
6.375,0.137
6.380,0.132
6.385,0.123
6.390,0.113
6.395,0.104
6.400,0.101
6.405,0.097
6.410,0.090
6.415,0.083
6.420,0.070
6.425,0.052
6.430,0.041
6.435,0.041
6.440,0.043
6.445,0.040
6.450,0.036
6.455,0.031
6.460,0.028
6.465,0.020
6.470,0.014
6.475,0.016
6.480,0.013
6.485,0.007
6.490,-0.002
6.495,-0.010
6.500,-0.012
6.505,-0.010
6.510,-0.004
6.515,-0.001
6.520,-0.008
6.525,-0.015
6.530,-0.014
6.535,-0.012
6.540,-0.015
6.545,-0.020
6.550,-0.024
6.555,-0.027
6.560,-0.029
6.565,-0.032
6.570,-0.031
6.575,-0.031
6.580,-0.033
6.585,-0.033
6.590,-0.034
6.595,-0.034
6.600,-0.028
6.605,-0.023
6.610,-0.024
6.615,-0.029
6.620,-0.035
6.625,-0.040
6.630,-0.038
6.635,-0.036
6.640,-0.038
6.645,-0.036
6.650,-0.033
6.655,-0.037
6.660,-0.040
6.665,-0.039
6.670,-0.035
6.675,-0.030
6.680,-0.033
6.685,-0.034
6.690,-0.034
6.695,-0.036
6.700,-0.036
6.705,-0.034
6.710,-0.031
6.715,-0.029
6.720,-0.029
6.725,-0.031
6.730,-0.039
6.735,-0.059
6.740,-0.082
6.745,-0.097
6.750,-0.102
6.755,-0.095
6.760,-0.088
6.765,-0.099
6.770,-0.125
6.775,-0.146
6.780,-0.147
6.785,-0.131
6.790,-0.118
6.795,-0.112
6.800,-0.105
6.805,-0.086
6.810,-0.061
6.815,-0.050
6.820,-0.046
6.825,-0.035
6.830,-0.011
6.835,0.030
6.840,0.062
6.845,0.074
6.850,0.078
6.855,0.074
6.860,0.070
6.865,0.069
6.870,0.067
6.875,0.067
6.880,0.067
6.885,0.068
6.890,0.075
6.895,0.099
6.900,0.112
6.905,0.049
6.910,-0.124
6.915,-0.385
6.920,-0.676
6.925,-0.898
6.930,-0.961
6.935,-0.843
6.940,-0.495
6.945,-0.066
6.950,0.182
6.955,0.272
6.960,0.257
6.965,0.251
6.970,0.330
6.975,0.353
6.980,0.328
6.985,0.304
6.990,0.253
6.995,0.212
7.000,0.190
7.005,0.167
7.010,0.156
7.015,0.154
7.020,0.143
7.025,0.129
7.030,0.121
7.035,0.113
7.040,0.103
7.045,0.095
7.050,0.089
7.055,0.082
7.060,0.074
7.065,0.065
7.070,0.058
7.075,0.050
7.080,0.044
7.085,0.038
7.090,0.029
7.095,0.018
7.100,0.007
7.105,-0.007
7.110,-0.018
7.115,-0.030
7.120,-0.046
7.125,-0.059
7.130,-0.073
7.135,-0.091
7.140,-0.110
7.145,-0.124
7.150,-0.135
7.155,-0.151
7.160,-0.166
7.165,-0.176
7.170,-0.179
7.175,-0.180
7.180,-0.178
7.185,-0.169
7.190,-0.154
7.195,-0.132
7.200,-0.102
7.205,-0.065
7.210,-0.022
7.215,0.020
7.220,0.059
7.225,0.097
7.230,0.130
7.235,0.156
7.240,0.175
7.245,0.189
7.250,0.201
7.255,0.207
7.260,0.211
7.265,0.211
7.270,0.206
7.275,0.197
7.280,0.184
7.285,0.179
7.290,0.175
7.295,0.168
7.300,0.160
7.305,0.150
7.310,0.141
7.315,0.134
7.320,0.125
7.325,0.115
7.330,0.106
7.335,0.102
7.340,0.099
7.345,0.094
7.350,0.087
7.355,0.077
7.360,0.070
7.365,0.061
7.370,0.053
7.375,0.046
7.380,0.037
7.385,0.029
7.390,0.024
7.395,0.022
7.400,0.016
7.405,0.009
7.410,0.005
7.415,-0.001
7.420,-0.003
7.425,-0.005
7.430,-0.010
7.435,-0.011
7.440,-0.014
7.445,-0.019
7.450,-0.021
7.455,-0.021
7.460,-0.022
7.465,-0.023
7.470,-0.026
7.475,-0.029
7.480,-0.029
7.485,-0.027
7.490,-0.028
7.495,-0.027
7.500,-0.028
7.505,-0.033
7.510,-0.033
7.515,-0.031
7.520,-0.033
7.525,-0.033
7.530,-0.031
7.535,-0.032
7.540,-0.032
7.545,-0.034
7.550,-0.034
7.555,-0.036
7.560,-0.038
7.565,-0.037
7.570,-0.038
7.575,-0.040
7.580,-0.042
7.585,-0.043
7.590,-0.044
7.595,-0.046
7.600,-0.047
7.605,-0.042
7.610,-0.035
7.615,-0.035
7.620,-0.038
7.625,-0.039
7.630,-0.041
7.635,-0.041
7.640,-0.041
7.645,-0.040
7.650,-0.038
7.655,-0.039
7.660,-0.041
7.665,-0.050
7.670,-0.068
7.675,-0.087
7.680,-0.099
7.685,-0.104
7.690,-0.100
7.695,-0.094
7.700,-0.105
7.705,-0.132
7.710,-0.149
7.715,-0.146
7.720,-0.131
7.725,-0.122
7.730,-0.121
7.735,-0.110
7.740,-0.084
7.745,-0.062
7.750,-0.048
7.755,-0.039
7.760,-0.032
7.765,-0.008
7.770,0.033
7.775,0.065
7.780,0.074
7.785,0.072
7.790,0.066
7.795,0.066
7.800,0.070
7.805,0.066
7.810,0.064
7.815,0.064
7.820,0.066
7.825,0.080
7.830,0.104
7.835,0.100
7.840,0.006
7.845,-0.196
7.850,-0.477
7.855,-0.767
7.860,-0.946
7.865,-0.952
7.870,-0.752
7.875,-0.337
7.880,0.050
7.885,0.230
7.890,0.263
7.895,0.241
7.900,0.310
7.905,0.390
7.910,0.361
7.915,0.317
7.920,0.274
7.925,0.223
7.930,0.192
7.935,0.171
7.940,0.161
7.945,0.156
7.950,0.142
7.955,0.129
7.960,0.122
7.965,0.108
7.970,0.096
7.975,0.093
7.980,0.088
7.985,0.083
7.990,0.075
7.995,0.063
8.000,0.057
8.005,0.052
8.010,0.049
8.015,0.044
8.020,0.035
8.025,0.026
8.030,0.015
8.035,0.004
8.040,-0.011
8.045,-0.030
8.050,-0.046
8.055,-0.058
8.060,-0.064
8.065,-0.076
8.070,-0.099
8.075,-0.117
8.080,-0.130
8.085,-0.140
8.090,-0.155
8.095,-0.170
8.100,-0.182
8.105,-0.196
8.110,-0.199
8.115,-0.188
8.120,-0.167
8.125,-0.146
8.130,-0.124
8.135,-0.090
8.140,-0.049
8.145,-0.007
8.150,0.032
8.155,0.070
8.160,0.112
8.165,0.144
8.170,0.159
8.175,0.174
8.180,0.186
8.185,0.201
8.190,0.216
8.195,0.222
8.200,0.220
8.205,0.218
8.210,0.212
8.215,0.202
8.220,0.188
8.225,0.173
8.230,0.164
8.235,0.160
8.240,0.154
8.245,0.144
8.250,0.137
8.255,0.131
8.260,0.135
8.265,0.134
8.270,0.121
8.275,0.105
8.280,0.094
8.285,0.093
8.290,0.087
8.295,0.075
8.300,0.063
8.305,0.052
8.310,0.040
8.315,0.030
8.320,0.028
8.325,0.021
8.330,0.013
8.335,0.014
8.340,0.016
8.345,0.012
8.350,0.006
8.355,0.002
8.360,0.007
8.365,0.014
8.370,0.009
8.375,0.000
8.380,-0.003
8.385,-0.009
8.390,-0.019
8.395,-0.026
8.400,-0.028
8.405,-0.028
8.410,-0.027
8.415,-0.029
8.420,-0.032
8.425,-0.032
8.430,-0.033
8.435,-0.030
8.440,-0.026
8.445,-0.035
8.450,-0.043
8.455,-0.044
8.460,-0.039
8.465,-0.036
8.470,-0.033
8.475,-0.026
8.480,-0.024
8.485,-0.031
8.490,-0.041
8.495,-0.048
8.500,-0.051
8.505,-0.048
8.510,-0.047
8.515,-0.053
8.520,-0.049
8.525,-0.043
8.530,-0.038
8.535,-0.034
8.540,-0.040
8.545,-0.036
8.550,-0.028
8.555,-0.038
8.560,-0.051
8.565,-0.056
8.570,-0.047
8.575,-0.036
8.580,-0.040
8.585,-0.048
8.590,-0.064
8.595,-0.084
8.600,-0.089
8.605,-0.088
8.610,-0.094
8.615,-0.107
8.620,-0.125
8.625,-0.146
8.630,-0.160
8.635,-0.162
8.640,-0.148
8.645,-0.123
8.650,-0.111
8.655,-0.114
8.660,-0.102
8.665,-0.077
8.670,-0.059
8.675,-0.054
8.680,-0.047
8.685,-0.031
8.690,-0.006
8.695,0.029
8.700,0.055
8.705,0.070
8.710,0.075
8.715,0.064
8.720,0.055
8.725,0.061
8.730,0.072
8.735,0.075
8.740,0.064
8.745,0.054
8.750,0.075
8.755,0.114
8.760,0.098
8.765,-0.037
8.770,-0.270
8.775,-0.539
8.780,-0.777
8.785,-0.896
8.790,-0.867
8.795,-0.637
8.800,-0.224
8.805,0.102
8.810,0.223
8.815,0.240
8.820,0.191
8.825,0.195
8.830,0.266
8.835,0.296
8.840,0.314
8.845,0.303
8.850,0.237
8.855,0.197
8.860,0.186
8.865,0.172
8.870,0.176
8.875,0.173
8.880,0.135
8.885,0.109
8.890,0.114
8.895,0.121
8.900,0.116
8.905,0.109
8.910,0.099
8.915,0.087
8.920,0.082
8.925,0.081
8.930,0.074
8.935,0.068
8.940,0.064
8.945,0.044
8.950,0.020
8.955,0.008
8.960,-0.002
8.965,-0.015
8.970,-0.022
8.975,-0.023
8.980,-0.031
8.985,-0.056
8.990,-0.077
8.995,-0.084
9.000,-0.092
9.005,-0.103
9.010,-0.108
9.015,-0.122
9.020,-0.152
9.025,-0.178
9.030,-0.179
9.035,-0.162
9.040,-0.158
9.045,-0.156
9.050,-0.131
9.055,-0.102
9.060,-0.071
9.065,-0.035
9.070,0.002
9.075,0.031
9.080,0.047
9.085,0.073
9.090,0.108
9.095,0.138
9.100,0.164
9.105,0.177
9.110,0.182
9.115,0.185
9.120,0.187
9.125,0.196
9.130,0.189
9.135,0.166
9.140,0.153
9.145,0.160
9.150,0.164
9.155,0.150
9.160,0.134
9.165,0.126
9.170,0.117
9.175,0.102
9.180,0.099
9.185,0.106
9.190,0.098
9.195,0.084
9.200,0.071
9.205,0.062
9.210,0.055
9.215,0.046
9.220,0.042
9.225,0.053
9.230,0.061
9.235,0.041
9.240,0.025
9.245,0.029
9.250,0.035
9.255,0.034
9.260,0.018
9.265,0.006
9.270,0.015
9.275,0.017
9.280,0.000
9.285,-0.009
9.290,-0.009
9.295,-0.014
9.300,-0.019
9.305,-0.023
9.310,-0.020
9.315,-0.012
9.320,-0.009
9.325,-0.017
9.330,-0.020
9.335,-0.009
9.340,-0.006
9.345,-0.016
9.350,-0.024
9.355,-0.026
9.360,-0.022
9.365,-0.025
9.370,-0.034
9.375,-0.035
9.380,-0.030
9.385,-0.033
9.390,-0.041
9.395,-0.045
9.400,-0.038
9.405,-0.022
9.410,-0.020
9.415,-0.029
9.420,-0.036
9.425,-0.034
9.430,-0.034
9.435,-0.039
9.440,-0.045
9.445,-0.049
9.450,-0.050
9.455,-0.047
9.460,-0.043
9.465,-0.047
9.470,-0.050
9.475,-0.042
9.480,-0.035
9.485,-0.038
9.490,-0.057
9.495,-0.084
9.500,-0.099
9.505,-0.099
9.510,-0.095
9.515,-0.094
9.520,-0.109
9.525,-0.140
9.530,-0.158
9.535,-0.151
9.540,-0.138
9.545,-0.127
9.550,-0.120
9.555,-0.108
9.560,-0.077
9.565,-0.051
9.570,-0.050
9.575,-0.047
9.580,-0.033
9.585,-0.003
9.590,0.035
9.595,0.060
9.600,0.069
9.605,0.072
9.610,0.077
9.615,0.080
9.620,0.078
9.625,0.071
9.630,0.059
9.635,0.055
9.640,0.065
9.645,0.089
9.650,0.115
9.655,0.110
9.660,0.009
9.665,-0.201
9.670,-0.471
9.675,-0.739
9.680,-0.918
9.685,-0.941
9.690,-0.772
9.695,-0.378
9.700,0.024
9.705,0.198
9.710,0.243
9.715,0.216
9.720,0.191
9.725,0.248
9.730,0.287
9.735,0.304
9.740,0.314
9.745,0.264
9.750,0.218
9.755,0.206
9.760,0.189
9.765,0.184
9.770,0.187
9.775,0.163
9.780,0.131
9.785,0.127
9.790,0.126
9.795,0.112
9.800,0.105
9.805,0.109
9.810,0.104
9.815,0.093
9.820,0.088
9.825,0.078
9.830,0.061
9.835,0.047
9.840,0.035
9.845,0.023
9.850,0.015
9.855,0.004
9.860,-0.009
9.865,-0.018
9.870,-0.028
9.875,-0.035
9.880,-0.042
9.885,-0.056
9.890,-0.077
9.895,-0.100
9.900,-0.119
9.905,-0.133
9.910,-0.142
9.915,-0.148
9.920,-0.152
9.925,-0.157
9.930,-0.163
9.935,-0.161
9.940,-0.155
9.945,-0.148
9.950,-0.128
9.955,-0.095
9.960,-0.057
9.965,-0.016
9.970,0.024
9.975,0.059
9.980,0.091
9.985,0.115
9.990,0.131
9.995,0.150
10.000,0.165
10.005,0.176
10.010,0.180
10.015,0.173
10.020,0.171
10.025,0.173
10.030,0.171
10.035,0.166
10.040,0.156
10.045,0.146
10.050,0.140
10.055,0.133
10.060,0.131
10.065,0.129
10.070,0.119
10.075,0.107
10.080,0.097
10.085,0.087
10.090,0.075
10.095,0.065
10.100,0.059
10.105,0.056
10.110,0.057
10.115,0.056
10.120,0.051
10.125,0.046
10.130,0.038
10.135,0.033
10.140,0.032
10.145,0.024
10.150,0.017
10.155,0.015
10.160,0.012
10.165,0.006
10.170,-0.001
10.175,-0.007
10.180,-0.010
10.185,-0.010
10.190,-0.012
10.195,-0.019
10.200,-0.025
10.205,-0.026
10.210,-0.023
10.215,-0.019
10.220,-0.020
10.225,-0.023
10.230,-0.022
10.235,-0.019
10.240,-0.022
10.245,-0.023
10.250,-0.026
10.255,-0.030
10.260,-0.030
10.265,-0.034
10.270,-0.044
10.275,-0.047
10.280,-0.048
10.285,-0.045
10.290,-0.038
10.295,-0.034
10.300,-0.028
10.305,-0.026
10.310,-0.029
10.315,-0.036
10.320,-0.041
10.325,-0.038
10.330,-0.038
10.335,-0.039
10.340,-0.036
10.345,-0.035
10.350,-0.035
10.355,-0.039
10.360,-0.044
10.365,-0.041
10.370,-0.035
10.375,-0.033
10.380,-0.033
10.385,-0.042
10.390,-0.062
10.395,-0.082
10.400,-0.097
10.405,-0.105
10.410,-0.101
10.415,-0.097
10.420,-0.112
10.425,-0.138
10.430,-0.152
10.435,-0.144
10.440,-0.127
10.445,-0.117
10.450,-0.114
10.455,-0.103
10.460,-0.079
10.465,-0.061
10.470,-0.051
10.475,-0.039
10.480,-0.026
10.485,0.001
10.490,0.037
10.495,0.062
10.500,0.073
10.505,0.075
10.510,0.072
10.515,0.069
10.520,0.071
10.525,0.069
10.530,0.067
10.535,0.067
10.540,0.066
10.545,0.081
10.550,0.106
10.555,0.091
10.560,-0.020
10.565,-0.243
10.570,-0.534
10.575,-0.813
10.580,-0.969
10.585,-0.950
10.590,-0.714
10.595,-0.284
10.600,0.078
10.605,0.239
10.610,0.270
10.615,0.249
10.620,0.311
10.625,0.376
10.630,0.351
10.635,0.319
10.640,0.277
10.645,0.226
10.650,0.198
10.655,0.179
10.660,0.170
10.665,0.167
10.670,0.154
10.675,0.137
10.680,0.129
10.685,0.123
10.690,0.110
10.695,0.100
10.700,0.093
10.705,0.085
10.710,0.078
10.715,0.071
10.720,0.064
10.725,0.055
10.730,0.047
10.735,0.037
10.740,0.027
10.745,0.021
10.750,0.010
10.755,-0.001
10.760,-0.011
10.765,-0.026
10.770,-0.039
10.775,-0.054
10.780,-0.074
10.785,-0.090
10.790,-0.104
10.795,-0.118
10.800,-0.132
10.805,-0.149
10.810,-0.164
10.815,-0.172
10.820,-0.182
10.825,-0.191
10.830,-0.189
10.835,-0.180
10.840,-0.170
10.845,-0.151
10.850,-0.121
10.855,-0.082
10.860,-0.038
10.865,0.000
10.870,0.039
10.875,0.079
10.880,0.116
10.885,0.149
10.890,0.173
10.895,0.191
10.900,0.203
10.905,0.207
10.910,0.207
10.915,0.205
10.920,0.204
10.925,0.202
10.930,0.198
10.935,0.191
10.940,0.184
10.945,0.174
10.950,0.164
10.955,0.155
10.960,0.146
10.965,0.139
10.970,0.134
10.975,0.126
10.980,0.117
10.985,0.109
10.990,0.101
10.995,0.094
11.000,0.084
11.005,0.072
11.010,0.066
11.015,0.061
11.020,0.055
11.025,0.048
11.030,0.040
11.035,0.035
11.040,0.030
11.045,0.024
11.050,0.019
11.055,0.014
11.060,0.007
11.065,-0.002
11.070,-0.005
11.075,-0.006
11.080,-0.008
11.085,-0.008
11.090,-0.012
11.095,-0.015
11.100,-0.013
11.105,-0.016
11.110,-0.019
11.115,-0.023
11.120,-0.025
11.125,-0.024
11.130,-0.022
11.135,-0.022
11.140,-0.025
11.145,-0.030
11.150,-0.031
11.155,-0.030
11.160,-0.031
11.165,-0.032
11.170,-0.033
11.175,-0.033
11.180,-0.035
11.185,-0.038
11.190,-0.037
11.195,-0.037
11.200,-0.037
11.205,-0.036
11.210,-0.036
11.215,-0.037
11.220,-0.036
11.225,-0.037
11.230,-0.038
11.235,-0.037
11.240,-0.038
11.245,-0.040
11.250,-0.041
11.255,-0.043
11.260,-0.043
11.265,-0.041
11.270,-0.042
11.275,-0.041
11.280,-0.038
11.285,-0.042
11.290,-0.055
11.295,-0.075
11.300,-0.093
11.305,-0.105
11.310,-0.107
11.315,-0.102
11.320,-0.098
11.325,-0.115
11.330,-0.143
11.335,-0.157
11.340,-0.150
11.345,-0.131
11.350,-0.122
11.355,-0.122
11.360,-0.106
11.365,-0.080
11.370,-0.065
11.375,-0.056
11.380,-0.044
11.385,-0.027
11.390,0.006
11.395,0.043
11.400,0.060
11.405,0.065
11.410,0.063
11.415,0.060
11.420,0.065
11.425,0.065
11.430,0.062
11.435,0.066
11.440,0.067
11.445,0.065
11.450,0.076
11.455,0.095
11.460,0.075
11.465,-0.040
11.470,-0.256
11.475,-0.538
11.480,-0.809
11.485,-0.958
11.490,-0.936
11.495,-0.686
11.500,-0.246
11.505,0.104
11.510,0.249
11.515,0.257
11.520,0.238
11.525,0.318
11.530,0.375
11.535,0.339
11.540,0.300
11.545,0.255
11.550,0.208
11.555,0.185
11.560,0.168
11.565,0.160
11.570,0.154
11.575,0.138
11.580,0.124
11.585,0.116
11.590,0.108
11.595,0.100
11.600,0.094
11.605,0.085
11.610,0.076
11.615,0.072
11.620,0.065
11.625,0.053
11.630,0.045
11.635,0.042
11.640,0.035
11.645,0.025
11.650,0.014
11.655,0.004
11.660,-0.007
11.665,-0.020
11.670,-0.033
11.675,-0.044
11.680,-0.056
11.685,-0.070
11.690,-0.087
11.695,-0.107
11.700,-0.125
11.705,-0.145
11.710,-0.161
11.715,-0.170
11.720,-0.179
11.725,-0.188
11.730,-0.193
11.735,-0.192
11.740,-0.185
11.745,-0.167
11.750,-0.146
11.755,-0.123
11.760,-0.086
11.765,-0.043
11.770,0.004
11.775,0.052
11.780,0.090
11.785,0.123
11.790,0.154
11.795,0.174
11.800,0.190
11.805,0.204
11.810,0.213
11.815,0.216
11.820,0.218
11.825,0.212
11.830,0.202
11.835,0.196
11.840,0.191
11.845,0.188
11.850,0.183
11.855,0.177
11.860,0.169
11.865,0.157
11.870,0.144
11.875,0.134
11.880,0.125
11.885,0.113
11.890,0.101
11.895,0.099
11.900,0.099
11.905,0.093
11.910,0.085
11.915,0.078
11.920,0.072
11.925,0.067
11.930,0.062
11.935,0.056
11.940,0.043
11.945,0.030
11.950,0.025
11.955,0.019
11.960,0.016
11.965,0.013
11.970,0.009
11.975,0.011
11.980,0.009
11.985,0.005
11.990,-0.003
11.995,-0.009
12.000,-0.009
12.005,-0.009
12.010,-0.013
12.015,-0.014
12.020,-0.007
12.025,-0.004
12.030,-0.009
12.035,-0.017
12.040,-0.025
12.045,-0.031
12.050,-0.038
12.055,-0.043
12.060,-0.040
12.065,-0.029
12.070,-0.023
12.075,-0.021
12.080,-0.021
12.085,-0.026
12.090,-0.031
12.095,-0.038
12.100,-0.048
12.105,-0.047
12.110,-0.045
12.115,-0.048
12.120,-0.040
12.125,-0.035
12.130,-0.036
12.135,-0.034
12.140,-0.036
12.145,-0.037
12.150,-0.038
12.155,-0.045
12.160,-0.047
12.165,-0.045
12.170,-0.042
12.175,-0.037
12.180,-0.038
12.185,-0.048
12.190,-0.050
12.195,-0.039
12.200,-0.028
12.205,-0.034
12.210,-0.061
12.215,-0.082
12.220,-0.091
12.225,-0.101
12.230,-0.100
12.235,-0.096
12.240,-0.110
12.245,-0.140
12.250,-0.167
12.255,-0.166
12.260,-0.146
12.265,-0.134
12.270,-0.128
12.275,-0.112
12.280,-0.082
12.285,-0.059
12.290,-0.048
12.295,-0.037
12.300,-0.026
12.305,-0.005
12.310,0.029
12.315,0.051
12.320,0.055
12.325,0.054
12.330,0.057
12.335,0.067
12.340,0.071
12.345,0.070
12.350,0.068
12.355,0.069
12.360,0.074
12.365,0.082
12.370,0.100
12.375,0.094
12.380,0.000
12.385,-0.194
12.390,-0.457
12.395,-0.722
12.400,-0.897
12.405,-0.915
12.410,-0.739
12.415,-0.354
12.420,0.041
12.425,0.214
12.430,0.240
12.435,0.202
12.440,0.181
12.445,0.242
12.450,0.278
12.455,0.291
12.460,0.307
12.465,0.264
12.470,0.207
12.475,0.184
12.480,0.166
12.485,0.157
12.490,0.163
12.495,0.159
12.500,0.145
12.505,0.136
12.510,0.122
12.515,0.108
12.520,0.109
12.525,0.102
12.530,0.086
12.535,0.079
12.540,0.073
12.545,0.063
12.550,0.048
12.555,0.040
12.560,0.036
12.565,0.033
12.570,0.034
12.575,0.026
12.580,0.001
12.585,-0.022
12.590,-0.037
12.595,-0.045
12.600,-0.052
12.605,-0.067
12.610,-0.082
12.615,-0.092
12.620,-0.104
12.625,-0.116
12.630,-0.129
12.635,-0.146
12.640,-0.167
12.645,-0.183
12.650,-0.180
12.655,-0.161
12.660,-0.134
12.665,-0.115
12.670,-0.101
12.675,-0.082
12.680,-0.058
12.685,-0.024
12.690,0.014
12.695,0.051
12.700,0.078
12.705,0.095
12.710,0.117
12.715,0.139
12.720,0.160
12.725,0.169
12.730,0.168
12.735,0.172
12.740,0.179
12.745,0.181
12.750,0.175
12.755,0.166
12.760,0.166
12.765,0.163
12.770,0.158
12.775,0.155
12.780,0.144
12.785,0.124
12.790,0.106
12.795,0.094
12.800,0.087
12.805,0.084
12.810,0.075
12.815,0.062
12.820,0.058
12.825,0.063
12.830,0.067
12.835,0.064
12.840,0.051
12.845,0.041
12.850,0.044
12.855,0.040
12.860,0.020
12.865,0.006
12.870,0.004
12.875,0.012
12.880,0.023
12.885,0.024
12.890,0.021
12.895,0.019
12.900,0.009
12.905,-0.006
12.910,-0.022
12.915,-0.031
12.920,-0.034
12.925,-0.030
12.930,-0.014
12.935,-0.007
12.940,-0.012
12.945,-0.017
12.950,-0.018
12.955,-0.014
12.960,-0.019
12.965,-0.030
12.970,-0.030
12.975,-0.029
12.980,-0.031
12.985,-0.037
12.990,-0.042
12.995,-0.041
13.000,-0.040
13.005,-0.030
13.010,-0.022
13.015,-0.023
13.020,-0.026
13.025,-0.031
13.030,-0.025
13.035,-0.021
13.040,-0.028
13.045,-0.025
13.050,-0.025
13.055,-0.033
13.060,-0.042
13.065,-0.052
13.070,-0.045
13.075,-0.033
13.080,-0.039
13.085,-0.043
13.090,-0.037
13.095,-0.032
13.100,-0.033
13.105,-0.033
13.110,-0.031
13.115,-0.046
13.120,-0.071
13.125,-0.080
13.130,-0.086
13.135,-0.104
13.140,-0.106
13.145,-0.089
13.150,-0.097
13.155,-0.142
13.160,-0.179
13.165,-0.175
13.170,-0.140
13.175,-0.114
13.180,-0.102
13.185,-0.075
13.190,-0.053
13.195,-0.064
13.200,-0.078
13.205,-0.073
13.210,-0.039
13.215,0.017
13.220,0.059
13.225,0.074
13.230,0.075
13.235,0.064
13.240,0.065
13.245,0.084
13.250,0.094
13.255,0.085
13.260,0.058
13.265,0.043
13.270,0.056
13.275,0.082
13.280,0.110
13.285,0.083
13.290,-0.056
13.295,-0.288
13.300,-0.551
13.305,-0.792
13.310,-0.931
13.315,-0.896
13.320,-0.622
13.325,-0.188
13.330,0.116
13.335,0.215
13.340,0.227
13.345,0.189
13.350,0.187
13.355,0.248
13.360,0.292
13.365,0.320
13.370,0.303
13.375,0.236
13.380,0.205
13.385,0.201
13.390,0.185
13.395,0.192
13.400,0.188
13.405,0.142
13.410,0.114
13.415,0.120
13.420,0.127
13.425,0.130
13.430,0.126
13.435,0.111
13.440,0.090
13.445,0.076
13.450,0.071
13.455,0.059
13.460,0.043
13.465,0.034
13.470,0.022
13.475,0.011
13.480,0.009
13.485,0.008
13.490,-0.002
13.495,-0.022
13.500,-0.043
13.505,-0.050
13.510,-0.051
13.515,-0.065
13.520,-0.091
13.525,-0.128
13.530,-0.148
13.535,-0.136
13.540,-0.125
13.545,-0.133
13.550,-0.155
13.555,-0.166
13.560,-0.140
13.565,-0.122
13.570,-0.133
13.575,-0.146
13.580,-0.138
13.585,-0.091
13.590,-0.035
13.595,0.009
13.600,0.049
13.605,0.084
13.610,0.109
13.615,0.108
13.620,0.108
13.625,0.153
13.630,0.213
13.635,0.236
13.640,0.225
13.645,0.185
13.650,0.160
13.655,0.173
13.660,0.180
13.665,0.184
13.670,0.180
13.675,0.159
13.680,0.149
13.685,0.149
13.690,0.138
13.695,0.121
13.700,0.106
13.705,0.109
13.710,0.122
13.715,0.110
13.720,0.079
13.725,0.055
13.730,0.049
13.735,0.052
13.740,0.063
13.745,0.070
13.750,0.062
13.755,0.051
13.760,0.041
13.765,0.028
13.770,0.001
13.775,-0.024
13.780,-0.004
13.785,0.034
13.790,0.039
13.795,0.018
13.800,0.005
13.805,0.001
13.810,-0.002
13.815,-0.003
13.820,-0.001
13.825,-0.001
13.830,-0.006
13.835,-0.009
13.840,-0.019
13.845,-0.039
13.850,-0.043
13.855,-0.030
13.860,-0.021
13.865,-0.023
13.870,-0.032
13.875,-0.030
13.880,-0.012
13.885,-0.010
13.890,-0.033
13.895,-0.050
13.900,-0.056
13.905,-0.052
13.910,-0.039
13.915,-0.030
13.920,-0.016
13.925,-0.005
13.930,-0.022
13.935,-0.040
13.940,-0.047
13.945,-0.051
13.950,-0.041
13.955,-0.028
13.960,-0.026
13.965,-0.028
13.970,-0.023
13.975,-0.022
13.980,-0.031
13.985,-0.049
13.990,-0.065
13.995,-0.062
14.000,-0.057
14.005,-0.050
14.010,-0.048
14.015,-0.075
14.020,-0.115
14.025,-0.119
14.030,-0.116
14.035,-0.113
14.040,-0.080
14.045,-0.070
14.050,-0.104
14.055,-0.146
14.060,-0.157
14.065,-0.135
14.070,-0.141
14.075,-0.178
14.080,-0.180
14.085,-0.126
14.090,-0.069
14.095,-0.028
14.100,-0.006
14.105,-0.009
14.110,-0.007
14.115,0.022
14.120,0.032
14.125,0.009
14.130,0.015
14.135,0.057
14.140,0.082
14.145,0.092
14.150,0.096
14.155,0.079
14.160,0.056
14.165,0.021
14.170,0.016
14.175,0.077
14.180,0.086
14.185,-0.019
14.190,-0.216
14.195,-0.476
14.200,-0.714
14.205,-0.885
14.210,-0.920
14.215,-0.779
14.220,-0.416
14.225,-0.002
14.230,0.203
14.235,0.294
14.240,0.285
14.245,0.240
14.250,0.278
14.255,0.294
14.260,0.281
14.265,0.286
14.270,0.238
14.275,0.194
14.280,0.208
14.285,0.199
14.290,0.175
14.295,0.154
14.300,0.124
14.305,0.128
14.310,0.132
14.315,0.089
14.320,0.037
14.325,0.023
14.330,0.063
14.335,0.077
14.340,0.039
14.345,0.045
14.350,0.095
14.355,0.104
14.360,0.056
14.365,0.002
14.370,-0.022
14.375,-0.029
14.380,-0.033
14.385,-0.047
14.390,-0.057
14.395,-0.066
14.400,-0.080
14.405,-0.061
14.410,-0.035
14.415,-0.069
14.420,-0.121
14.425,-0.157
14.430,-0.195
14.435,-0.207
14.440,-0.176
14.445,-0.132
14.450,-0.135
14.455,-0.177
14.460,-0.173
14.465,-0.126
14.470,-0.113
14.475,-0.137
14.480,-0.146
14.485,-0.078
14.490,0.028
14.495,0.063
14.500,0.055
14.505,0.069
14.510,0.112
14.515,0.183
14.520,0.232
14.525,0.243
14.530,0.234
14.535,0.222
14.540,0.247
14.545,0.281
14.550,0.268
14.555,0.204
14.560,0.164
14.565,0.170
14.570,0.192
14.575,0.215
14.580,0.176
14.585,0.130
14.590,0.126
14.595,0.124
14.600,0.134
14.605,0.113
14.610,0.098
14.615,0.145
14.620,0.144
14.625,0.097
14.630,0.083
14.635,0.101
14.640,0.149
14.645,0.135
14.650,0.059
14.655,0.032
14.660,0.047
14.665,0.054
14.670,0.009
14.675,-0.026
14.680,0.007
14.685,0.049
14.690,0.041
14.695,-0.007
14.700,0.012
14.705,0.018
14.710,-0.070
14.715,-0.077
14.720,0.022
14.725,0.051
14.730,-0.006
14.735,-0.049
14.740,0.003
14.745,0.092
14.750,0.060
14.755,0.002
14.760,0.006
14.765,-0.035
14.770,-0.082
14.775,-0.091
14.780,-0.086
14.785,-0.060
14.790,-0.043
14.795,-0.027
14.800,0.000
14.805,-0.011
14.810,-0.053
14.815,-0.072
14.820,-0.059
14.825,-0.018
14.830,0.019
14.835,0.024
14.840,0.004
14.845,-0.034
14.850,-0.044
14.855,-0.036
14.860,-0.062
14.865,-0.092
14.870,-0.071
14.875,-0.055
14.880,-0.120
14.885,-0.168
14.890,-0.121
14.895,-0.068
14.900,-0.083
14.905,-0.086
14.910,-0.070
14.915,-0.094
14.920,-0.186
14.925,-0.269
14.930,-0.149
14.935,0.043
14.940,0.079
14.945,0.021
14.950,-0.092
14.955,-0.150
14.960,-0.062
14.965,0.027
14.970,0.070
14.975,0.108
14.980,0.123
14.985,0.088
14.990,0.000
14.995,-0.031
15.000,0.039
15.005,0.056
15.010,0.031
15.015,0.059
15.020,0.062
15.025,0.062
15.030,0.062
15.035,-0.027
15.040,-0.216
15.045,-0.553
15.050,-0.942
15.055,-1.101
15.060,-0.974
15.065,-0.595
15.070,-0.030
15.075,0.325
15.080,0.391
15.085,0.381
15.090,0.278
15.095,0.256
15.100,0.364
15.105,0.401
15.110,0.387
15.115,0.310
15.120,0.191
15.125,0.146
15.130,0.104
15.135,0.059
15.140,0.045
15.145,0.068
15.150,0.131
15.155,0.149
15.160,0.080
15.165,-0.046
15.170,-0.013
15.175,0.186
15.180,0.231
15.185,0.115
15.190,0.014
15.195,-0.010
15.200,-0.006
15.205,-0.079
15.210,-0.116
15.215,-0.029
15.220,0.075
15.225,0.070
15.230,-0.039
15.235,-0.089
15.240,-0.085
15.245,-0.120
15.250,-0.169
15.255,-0.174
15.260,-0.125
15.265,-0.143
15.270,-0.205
15.275,-0.189
15.280,-0.170
15.285,-0.231
15.290,-0.302
15.295,-0.280
15.300,-0.218
15.305,-0.175
15.310,-0.164
15.315,-0.192
15.320,-0.183
15.325,-0.120
15.330,-0.049
15.335,-0.017
15.340,-0.040
15.345,0.003
15.350,0.130
15.355,0.206
15.360,0.227
15.365,0.232
15.370,0.222
15.375,0.228
15.380,0.258
15.385,0.288
15.390,0.294
15.395,0.268
15.400,0.242
15.405,0.231
15.410,0.215
15.415,0.219
15.420,0.240
15.425,0.239
15.430,0.222
15.435,0.174
15.440,0.138
15.445,0.146
15.450,0.146
15.455,0.149
15.460,0.140
15.465,0.134
15.470,0.165
15.475,0.154
15.480,0.116
15.485,0.086
15.490,0.057
15.495,0.045
15.500,0.042
15.505,0.047
15.510,0.041
15.515,0.035
15.520,0.026
15.525,-0.005
15.530,-0.013
15.535,-0.008
15.540,-0.004
15.545,0.009
15.550,0.006
15.555,-0.003
15.560,-0.021
15.565,-0.068
15.570,-0.082
15.575,-0.026
15.580,0.029
15.585,0.032
15.590,0.003
15.595,-0.039
15.600,-0.076
15.605,-0.070
15.610,-0.049
15.615,-0.053
15.620,-0.050
15.625,-0.046
15.630,-0.048
15.635,-0.034
15.640,-0.024
15.645,-0.013
15.650,-0.010
15.655,-0.044
15.660,-0.055
15.665,-0.044
15.670,-0.050
15.675,-0.045
15.680,-0.050
15.685,-0.069
15.690,-0.062
15.695,-0.046
15.700,-0.037
15.705,-0.041
15.710,-0.068
15.715,-0.087
15.720,-0.079
15.725,-0.063
15.730,-0.056
15.735,-0.090
15.740,-0.139
15.745,-0.117
15.750,-0.061
15.755,-0.065
15.760,-0.128
15.765,-0.177
15.770,-0.179
15.775,-0.187
15.780,-0.187
15.785,-0.149
15.790,-0.119
15.795,-0.084
15.800,-0.055
15.805,-0.055
15.810,-0.062
15.815,-0.074
15.820,-0.052
15.825,-0.001
15.830,0.017
15.835,0.029
15.840,0.069
15.845,0.102
15.850,0.092
15.855,0.038
15.860,-0.007
15.865,-0.004
15.870,0.022
15.875,0.053
15.880,0.082
15.885,0.102
15.890,0.103
15.895,0.004
15.900,-0.220
15.905,-0.513
15.910,-0.846
15.915,-1.054
15.920,-1.029
15.925,-0.802
15.930,-0.306
15.935,0.205
15.940,0.405
15.945,0.407
15.950,0.308
15.955,0.255
15.960,0.309
15.965,0.299
15.970,0.273
15.975,0.265
15.980,0.195
15.985,0.141
15.990,0.149
15.995,0.164
16.000,0.153
16.005,0.118
16.010,0.079
16.015,0.078
16.020,0.085
16.025,0.073
16.030,0.065
16.035,0.069
16.040,0.094
16.045,0.100
16.050,0.065
16.055,0.028
16.060,0.013
16.065,0.019
16.070,0.023
16.075,0.016
16.080,0.001
16.085,-0.026
16.090,-0.039
16.095,-0.039
16.100,-0.040
16.105,-0.040
16.110,-0.049
16.115,-0.075
16.120,-0.114
16.125,-0.140
16.130,-0.147
16.135,-0.171
16.140,-0.204
16.145,-0.206
16.150,-0.179
16.155,-0.164
16.160,-0.181
16.165,-0.210
16.170,-0.207
16.175,-0.192
16.180,-0.175
16.185,-0.123
16.190,-0.059
16.195,-0.014
16.200,0.013
16.205,0.043
16.210,0.092
16.215,0.152
16.220,0.195
16.225,0.207
16.230,0.210
16.235,0.206
16.240,0.208
16.245,0.231
16.250,0.245
16.255,0.247
16.260,0.236
16.265,0.211
16.270,0.206
16.275,0.203
16.280,0.185
16.285,0.192
16.290,0.197
16.295,0.172
16.300,0.155
16.305,0.154
16.310,0.144
16.315,0.133
16.320,0.131
16.325,0.138
16.330,0.143
16.335,0.131
16.340,0.102
16.345,0.072
16.350,0.051
16.355,0.054
16.360,0.071
16.365,0.070
16.370,0.048
16.375,0.044
16.380,0.050
16.385,0.032
16.390,0.020
16.395,0.019
16.400,0.019
16.405,0.000
16.410,-0.030
16.415,-0.030
16.420,-0.013
16.425,0.004
16.430,0.008
16.435,-0.006
16.440,-0.007
16.445,-0.001
16.450,-0.017
16.455,-0.044
16.460,-0.050
16.465,-0.028
16.470,-0.011
16.475,-0.014
16.480,-0.022
16.485,-0.028
16.490,-0.039
16.495,-0.048
16.500,-0.035
16.505,-0.016
16.510,-0.023
16.515,-0.043
16.520,-0.046
16.525,-0.031
16.530,-0.017
16.535,-0.016
16.540,-0.034
16.545,-0.043
16.550,-0.033
16.555,-0.019
16.560,-0.025
16.565,-0.056
16.570,-0.086
16.575,-0.106
16.580,-0.114
16.585,-0.118
16.590,-0.121
16.595,-0.117
16.600,-0.111
16.605,-0.121
16.610,-0.140
16.615,-0.150
16.620,-0.152
16.625,-0.144
16.630,-0.124
16.635,-0.106
16.640,-0.089
16.645,-0.070
16.650,-0.063
16.655,-0.058
16.660,-0.052
16.665,-0.034
16.670,0.001
16.675,0.024
16.680,0.048
16.685,0.065
16.690,0.061
16.695,0.059
16.700,0.059
16.705,0.068
16.710,0.069
16.715,0.051
16.720,0.048
16.725,0.068
16.730,0.099
16.735,0.087
16.740,-0.028
16.745,-0.242
16.750,-0.516
16.755,-0.794
16.760,-0.970
16.765,-0.967
16.770,-0.765
16.775,-0.345
16.780,0.074
16.785,0.268
16.790,0.305
16.795,0.257
16.800,0.264
16.805,0.338
16.810,0.331
16.815,0.285
16.820,0.265
16.825,0.243
16.830,0.211
16.835,0.179
16.840,0.139
16.845,0.113
16.850,0.114
16.855,0.125
16.860,0.123
16.865,0.096
16.870,0.077
16.875,0.075
16.880,0.076
16.885,0.074
16.890,0.058
16.895,0.044
16.900,0.030
16.905,0.017
16.910,0.032
16.915,0.024
16.920,-0.016
16.925,-0.024
16.930,-0.014
16.935,-0.015
16.940,-0.026
16.945,-0.048
16.950,-0.050
16.955,-0.049
16.960,-0.073
16.965,-0.091
16.970,-0.124
16.975,-0.159
16.980,-0.151
16.985,-0.145
16.990,-0.176
16.995,-0.201
17.000,-0.209
17.005,-0.208
17.010,-0.200
17.015,-0.185
17.020,-0.160
17.025,-0.144
17.030,-0.125
17.035,-0.090
17.040,-0.043
17.045,0.004
17.050,0.041
17.055,0.095
17.060,0.148
17.065,0.171
17.070,0.183
17.075,0.188
17.080,0.187
17.085,0.199
17.090,0.220
17.095,0.228
17.100,0.234
17.105,0.230
17.110,0.214
17.115,0.198
17.120,0.170
17.125,0.164
17.130,0.179
17.135,0.183
17.140,0.180
17.145,0.168
17.150,0.143
17.155,0.121
17.160,0.121
17.165,0.112
17.170,0.090
17.175,0.097
17.180,0.110
17.185,0.107
17.190,0.091
17.195,0.059
17.200,0.049
17.205,0.051
17.210,0.040
17.215,0.039
17.220,0.040
17.225,0.039
17.230,0.028
17.235,0.003
17.240,-0.013
17.245,-0.017
17.250,0.002
17.255,0.020
17.260,0.009
17.265,0.006
17.270,0.017
17.275,0.018
17.280,0.014
17.285,0.009
17.290,-0.011
17.295,-0.025
17.300,-0.029
17.305,-0.042
17.310,-0.045
17.315,-0.028
17.320,-0.018
17.325,-0.019
17.330,-0.025
17.335,-0.033
17.340,-0.034
17.345,-0.026
17.350,-0.016
17.355,-0.009
17.360,-0.014
17.365,-0.029
17.370,-0.036
17.375,-0.055
17.380,-0.082
17.385,-0.096
17.390,-0.107
17.395,-0.110
17.400,-0.104
17.405,-0.095
17.410,-0.117
17.415,-0.172
17.420,-0.179
17.425,-0.135
17.430,-0.100
17.435,-0.097
17.440,-0.105
17.445,-0.092
17.450,-0.071
17.455,-0.061
17.460,-0.060
17.465,-0.065
17.470,-0.053
17.475,0.000
17.480,0.053
17.485,0.067
17.490,0.053
17.495,0.039
17.500,0.049
17.505,0.067
17.510,0.071
17.515,0.068
17.520,0.062
17.525,0.048
17.530,0.064
17.535,0.101
17.540,0.108
17.545,0.043
17.550,-0.146
17.555,-0.417
17.560,-0.689
17.565,-0.890
17.570,-0.932
17.575,-0.818
17.580,-0.490
17.585,-0.056
17.590,0.227
17.595,0.321
17.600,0.259
17.605,0.215
17.610,0.292
17.615,0.323
17.620,0.299
17.625,0.274
17.630,0.219
17.635,0.178
17.640,0.165
17.645,0.152
17.650,0.143
17.655,0.141
17.660,0.122
17.665,0.084
17.670,0.058
17.675,0.055
17.680,0.072
17.685,0.083
17.690,0.071
17.695,0.071
17.700,0.068
17.705,0.043
17.710,0.025
17.715,0.020
17.720,0.011
17.725,-0.002
17.730,-0.005
17.735,-0.004
17.740,-0.020
17.745,-0.042
17.750,-0.055
17.755,-0.076
17.760,-0.085
17.765,-0.083
17.770,-0.085
17.775,-0.104
17.780,-0.135
17.785,-0.146
17.790,-0.159
17.795,-0.195
17.800,-0.226
17.805,-0.227
17.810,-0.207
17.815,-0.199
17.820,-0.199
17.825,-0.200
17.830,-0.181
17.835,-0.141
17.840,-0.100
17.845,-0.062
17.850,-0.023
17.855,0.044
17.860,0.106
17.865,0.133
17.870,0.151
17.875,0.167
17.880,0.193
17.885,0.207
17.890,0.205
17.895,0.208
17.900,0.200
17.905,0.206
17.910,0.221
17.915,0.227
17.920,0.224
17.925,0.194
17.930,0.169
17.935,0.169
17.940,0.166
17.945,0.162
17.950,0.157
17.955,0.129
17.960,0.107
17.965,0.117
17.970,0.131
17.975,0.126
17.980,0.107
17.985,0.089
17.990,0.090
17.995,0.089
18.000,0.069
18.005,0.062
18.010,0.067
18.015,0.068
18.020,0.062
18.025,0.047
18.030,0.037
18.035,0.031
18.040,0.014
18.045,0.005
18.050,0.005
18.055,0.008
18.060,0.014
18.065,0.016
18.070,0.011
18.075,-0.005
18.080,-0.015
18.085,-0.014
18.090,-0.009
18.095,-0.002
18.100,-0.007
18.105,-0.017
18.110,-0.025
18.115,-0.028
18.120,-0.024
18.125,-0.018
18.130,-0.012
18.135,-0.017
18.140,-0.022
18.145,-0.022
18.150,-0.031
18.155,-0.043
18.160,-0.059
18.165,-0.078
18.170,-0.088
18.175,-0.088
18.180,-0.087
18.185,-0.099
18.190,-0.124
18.195,-0.148
18.200,-0.156
18.205,-0.149
18.210,-0.142
18.215,-0.129
18.220,-0.107
18.225,-0.092
18.230,-0.078
18.235,-0.064
18.240,-0.059
18.245,-0.050
18.250,-0.038
18.255,-0.008
18.260,0.039
18.265,0.068
18.270,0.075
18.275,0.075
18.280,0.075
18.285,0.070
18.290,0.055
18.295,0.045
18.300,0.043
18.305,0.044
18.310,0.040
18.315,0.055
18.320,0.079
18.325,0.034
18.330,-0.119
18.335,-0.355
18.340,-0.637
18.345,-0.869
18.350,-0.946
18.355,-0.864
18.360,-0.575
18.365,-0.153
18.370,0.165
18.375,0.335
18.380,0.343
18.385,0.282
18.390,0.322
18.395,0.347
18.400,0.299
18.405,0.265
18.410,0.216
18.415,0.180
18.420,0.181
18.425,0.162
18.430,0.137
18.435,0.129
18.440,0.117
18.445,0.106
18.450,0.097
18.455,0.074
18.460,0.053
18.465,0.054
18.470,0.047
18.475,0.034
18.480,0.033
18.485,0.028
18.490,0.020
18.495,0.009
18.500,-0.002
18.505,0.002
18.510,-0.001
18.515,-0.007
18.520,-0.009
18.525,-0.022
18.530,-0.039
18.535,-0.056
18.540,-0.082
18.545,-0.101
18.550,-0.110
18.555,-0.127
18.560,-0.147
18.565,-0.167
18.570,-0.189
18.575,-0.200
18.580,-0.210
18.585,-0.221
18.590,-0.220
18.595,-0.207
18.600,-0.198
18.605,-0.189
18.610,-0.171
18.615,-0.146
18.620,-0.106
18.625,-0.053
18.630,0.002
18.635,0.050
18.640,0.087
18.645,0.116
18.650,0.141
18.655,0.158
18.660,0.174
18.665,0.189
18.670,0.201
18.675,0.211
18.680,0.213
18.685,0.206
18.690,0.194
18.695,0.186
18.700,0.182
18.705,0.179
18.710,0.176
18.715,0.171
18.720,0.158
18.725,0.143
18.730,0.137
18.735,0.131
18.740,0.119
18.745,0.112
18.750,0.111
18.755,0.110
18.760,0.104
18.765,0.091
18.770,0.080
18.775,0.073
18.780,0.062
18.785,0.051
18.790,0.039
18.795,0.030
18.800,0.031
18.805,0.041
18.810,0.045
18.815,0.040
18.820,0.027
18.825,0.012
18.830,0.006
18.835,0.003
18.840,0.001
18.845,-0.003
18.850,-0.011
18.855,-0.014
18.860,-0.011
18.865,-0.010
18.870,-0.009
18.875,-0.010
18.880,-0.016
18.885,-0.021
18.890,-0.025
18.895,-0.022
18.900,-0.020
18.905,-0.022
18.910,-0.030
18.915,-0.045
18.920,-0.061
18.925,-0.077
18.930,-0.085
18.935,-0.084
18.940,-0.084
18.945,-0.084
18.950,-0.094
18.955,-0.115
18.960,-0.135
18.965,-0.146
18.970,-0.142
18.975,-0.130
18.980,-0.122
18.985,-0.119
18.990,-0.108
18.995,-0.085
19.000,-0.068
19.005,-0.055
19.010,-0.045
19.015,-0.033
19.020,0.002
19.025,0.039
19.030,0.057
19.035,0.063
19.040,0.059
19.045,0.056
19.050,0.058
19.055,0.054
19.060,0.045
19.065,0.043
19.070,0.044
19.075,0.053
19.080,0.085
19.085,0.106
19.090,0.055
19.095,-0.102
19.100,-0.356
19.105,-0.649
19.110,-0.886
19.115,-0.972
19.120,-0.873
19.125,-0.544
19.130,-0.097
19.135,0.198
19.140,0.311
19.145,0.294
19.150,0.271
19.155,0.344
19.160,0.365
19.165,0.316
19.170,0.272
19.175,0.217
19.180,0.179
19.185,0.157
19.190,0.132
19.195,0.125
19.200,0.124
19.205,0.112
19.210,0.102
19.215,0.099
19.220,0.100
19.225,0.095
19.230,0.086
19.235,0.073
19.240,0.059
19.245,0.050
19.250,0.038
19.255,0.025
19.260,0.017
19.265,0.008
19.270,-0.003
19.275,-0.014
19.280,-0.022
19.285,-0.035
19.290,-0.053
19.295,-0.065
19.300,-0.073
19.305,-0.083
19.310,-0.096
19.315,-0.111
19.320,-0.121
19.325,-0.137
19.330,-0.160
19.335,-0.182
19.340,-0.200
19.345,-0.209
19.350,-0.211
19.355,-0.213
19.360,-0.213
19.365,-0.208
19.370,-0.196
19.375,-0.175
19.380,-0.145
19.385,-0.102
19.390,-0.054
19.395,-0.005
19.400,0.038
19.405,0.076
19.410,0.111
19.415,0.142
19.420,0.170
19.425,0.190
19.430,0.203
19.435,0.210
19.440,0.212
19.445,0.209
19.450,0.200
19.455,0.192
19.460,0.185
19.465,0.179
19.470,0.178
19.475,0.183
19.480,0.189
19.485,0.182
19.490,0.166
19.495,0.150
19.500,0.139
19.505,0.132
19.510,0.125
19.515,0.116
19.520,0.109
19.525,0.099
19.530,0.088
19.535,0.081
19.540,0.078
19.545,0.076
19.550,0.074
19.555,0.071
19.560,0.064
19.565,0.051
19.570,0.045
19.575,0.042
19.580,0.035
19.585,0.024
19.590,0.012
19.595,0.008
19.600,0.010
19.605,0.012
19.610,0.009
19.615,0.005
19.620,0.000
19.625,-0.004
19.630,-0.005
19.635,-0.012
19.640,-0.020
19.645,-0.017
19.650,-0.016
19.655,-0.017
19.660,-0.015
19.665,-0.011
19.670,-0.009
19.675,-0.014
19.680,-0.022
19.685,-0.027
19.690,-0.035
19.695,-0.056
19.700,-0.081
19.705,-0.095
19.710,-0.102
19.715,-0.100
19.720,-0.097
19.725,-0.109
19.730,-0.129
19.735,-0.145
19.740,-0.149
19.745,-0.137
19.750,-0.125
19.755,-0.123
19.760,-0.118
19.765,-0.097
19.770,-0.070
19.775,-0.059
19.780,-0.059
19.785,-0.057
19.790,-0.032
19.795,0.016
19.800,0.053
19.805,0.069
19.810,0.071
19.815,0.062
19.820,0.054
19.825,0.046
19.830,0.037
19.835,0.039
19.840,0.040
19.845,0.041
19.850,0.051
19.855,0.067
19.860,0.062
19.865,-0.029
19.870,-0.238
19.875,-0.524
19.880,-0.801
19.885,-0.962
19.890,-0.947
19.895,-0.727
19.900,-0.309
19.905,0.086
19.910,0.278
19.915,0.320
19.920,0.279
19.925,0.299
19.930,0.357
19.935,0.330
19.940,0.290
19.945,0.248
19.950,0.193
19.955,0.164
19.960,0.140
19.965,0.119
19.970,0.116
19.975,0.109
19.980,0.094
19.985,0.088
19.990,0.085
19.995,0.074
20.000,0.057
20.005,0.041
20.010,0.032
20.015,0.023
20.020,0.008
20.025,-0.015
20.030,-0.040
20.035,-0.053
20.040,-0.053
20.045,-0.046
20.050,-0.026
20.055,-0.003
20.060,0.011
20.065,0.011
20.070,-0.007
20.075,-0.030
20.080,-0.047
20.085,-0.062
20.090,-0.085
20.095,-0.110
20.100,-0.135
20.105,-0.166
20.110,-0.197
20.115,-0.217
20.120,-0.225
20.125,-0.230
20.130,-0.230
20.135,-0.223
20.140,-0.206
20.145,-0.173
20.150,-0.138
20.155,-0.096
20.160,-0.044
20.165,0.002
20.170,0.042
20.175,0.076
20.180,0.102
20.185,0.127
20.190,0.155
20.195,0.178
20.200,0.194
20.205,0.204
20.210,0.209
20.215,0.211
20.220,0.211
20.225,0.204
20.230,0.195
20.235,0.187
20.240,0.181
20.245,0.173
20.250,0.163
20.255,0.156
20.260,0.147
20.265,0.140
20.270,0.134
20.275,0.124
20.280,0.118
20.285,0.114
20.290,0.106
20.295,0.100
20.300,0.098
20.305,0.096
20.310,0.090
20.315,0.083
20.320,0.078
20.325,0.070
20.330,0.064
20.335,0.056
20.340,0.049
20.345,0.046
20.350,0.039
20.355,0.034
20.360,0.029
20.365,0.024
20.370,0.024
20.375,0.025
20.380,0.024
20.385,0.015
20.390,0.007
20.395,0.007
20.400,0.002
20.405,-0.002
20.410,-0.003
20.415,-0.006
20.420,-0.006
20.425,-0.008
20.430,-0.010
20.435,-0.008
20.440,-0.011
20.445,-0.018
20.450,-0.020
20.455,-0.023
20.460,-0.025
20.465,-0.027
20.470,-0.033
20.475,-0.045
20.480,-0.060
20.485,-0.080
20.490,-0.096
20.495,-0.104
20.500,-0.101
20.505,-0.092
20.510,-0.106
20.515,-0.137
20.520,-0.159
20.525,-0.156
20.530,-0.137
20.535,-0.125
20.540,-0.121
20.545,-0.110
20.550,-0.090
20.555,-0.073
20.560,-0.060
20.565,-0.051
20.570,-0.037
20.575,-0.005
20.580,0.036
20.585,0.053
20.590,0.053
20.595,0.052
20.600,0.053
20.605,0.057
20.610,0.054
20.615,0.049
20.620,0.051
20.625,0.048
20.630,0.046
20.635,0.058
20.640,0.082
20.645,0.067
20.650,-0.056
20.655,-0.293
20.660,-0.589
20.665,-0.850
20.670,-0.967
20.675,-0.916
20.680,-0.652
20.685,-0.216
20.690,0.122
20.695,0.266
20.700,0.274
20.705,0.232
20.710,0.275
20.715,0.326
20.720,0.309
20.725,0.294
20.730,0.264
20.735,0.214
20.740,0.187
20.745,0.170
20.750,0.158
20.755,0.157
20.760,0.144
20.765,0.123
20.770,0.112
20.775,0.100
20.780,0.085
20.785,0.077
20.790,0.072
20.795,0.058
20.800,0.041
20.805,0.029
20.810,0.023
20.815,0.016
20.820,0.002
20.825,-0.020
20.830,-0.026
20.835,-0.018
20.840,-0.016
20.845,-0.021
20.850,-0.028
20.855,-0.039
20.860,-0.052
20.865,-0.068
20.870,-0.086
20.875,-0.105
20.880,-0.131
20.885,-0.155
20.890,-0.168
20.895,-0.183
20.900,-0.203
20.905,-0.219
20.910,-0.226
20.915,-0.223
20.920,-0.209
20.925,-0.191
20.930,-0.166
20.935,-0.131
20.940,-0.090
20.945,-0.043
20.950,0.001
20.955,0.037
20.960,0.069
20.965,0.101
20.970,0.128
20.975,0.146
20.980,0.161
20.985,0.177
20.990,0.191
20.995,0.195
21.000,0.191
21.005,0.187
21.010,0.187
21.015,0.185
21.020,0.179
21.025,0.174
21.030,0.170
21.035,0.162
21.040,0.155
21.045,0.148
21.050,0.137
21.055,0.128
21.060,0.121
21.065,0.115
21.070,0.109
21.075,0.100
21.080,0.090
21.085,0.080
21.090,0.073
21.095,0.068
21.100,0.065
21.105,0.065
21.110,0.060
21.115,0.056
21.120,0.054
21.125,0.048
21.130,0.039
21.135,0.031
21.140,0.021
21.145,0.014
21.150,0.011
21.155,0.009
21.160,0.007
21.165,0.007
21.170,0.004
21.175,-0.004
21.180,-0.009
21.185,-0.010
21.190,-0.013
21.195,-0.020
21.200,-0.028
21.205,-0.031
21.210,-0.027
21.215,-0.024
21.220,-0.015
21.225,0.002
21.230,0.003
21.235,-0.015
21.240,-0.025
21.245,-0.027
21.250,-0.032
21.255,-0.041
21.260,-0.059
21.265,-0.072
21.270,-0.077
21.275,-0.089
21.280,-0.093
21.285,-0.084
21.290,-0.091
21.295,-0.117
21.300,-0.149
21.305,-0.172
21.310,-0.167
21.315,-0.141
21.320,-0.126
21.325,-0.120
21.330,-0.100
21.335,-0.066
21.340,-0.039
21.345,-0.031
21.350,-0.034
21.355,-0.021
21.360,0.016
21.365,0.048
21.370,0.059
21.375,0.061
21.380,0.059
21.385,0.051
21.390,0.041
21.395,0.032
21.400,0.025
21.405,0.037
21.410,0.055
21.415,0.067
21.420,0.101
21.425,0.109
21.430,0.037
21.435,-0.136
21.440,-0.393
21.445,-0.667
21.450,-0.876
21.455,-0.927
21.460,-0.794
21.465,-0.445
21.470,-0.014
21.475,0.222
21.480,0.295
21.485,0.262
21.490,0.219
21.495,0.280
21.500,0.306
21.505,0.281
21.510,0.273
21.515,0.238
21.520,0.193
21.525,0.156
21.530,0.116
21.535,0.104
21.540,0.117
21.545,0.109
21.550,0.089
21.555,0.084
21.560,0.081
21.565,0.072
21.570,0.061
21.575,0.057
21.580,0.057
21.585,0.046
21.590,0.026
21.595,0.015
21.600,0.010
21.605,0.001
21.610,-0.003
21.615,0.002
21.620,0.004
21.625,-0.013
21.630,-0.044
21.635,-0.057
21.640,-0.055
21.645,-0.063
21.650,-0.082
21.655,-0.102
21.660,-0.120
21.665,-0.143
21.670,-0.163
21.675,-0.165
21.680,-0.159
21.685,-0.173
21.690,-0.199
21.695,-0.202
21.700,-0.178
21.705,-0.156
21.710,-0.154
21.715,-0.151
21.720,-0.122
21.725,-0.079
21.730,-0.043
21.735,-0.016
21.740,0.018
21.745,0.057
21.750,0.085
21.755,0.113
21.760,0.154
21.765,0.186
21.770,0.197
21.775,0.200
21.780,0.207
21.785,0.214
21.790,0.210
21.795,0.197
21.800,0.184
21.805,0.181
21.810,0.181
21.815,0.173
21.820,0.157
21.825,0.134
21.830,0.126
21.835,0.131
21.840,0.120
21.845,0.106
21.850,0.108
21.855,0.111
21.860,0.112
21.865,0.102
21.870,0.083
21.875,0.073
21.880,0.055
21.885,0.043
21.890,0.057
21.895,0.066
21.900,0.065
21.905,0.054
21.910,0.040
21.915,0.050
21.920,0.060
21.925,0.046
21.930,0.022
21.935,0.002
21.940,-0.001
21.945,0.006
21.950,0.011
21.955,0.009
21.960,0.005
21.965,-0.005
21.970,-0.011
21.975,-0.002
21.980,0.003
21.985,0.000
21.990,-0.008
21.995,-0.019
22.000,-0.014
22.005,-0.004
22.010,-0.004
22.015,-0.002
22.020,-0.010
22.025,-0.031
22.030,-0.035
22.035,-0.023
22.040,-0.015
22.045,-0.035
22.050,-0.081
22.055,-0.123
22.060,-0.128
22.065,-0.097
22.070,-0.075
22.075,-0.085
22.080,-0.122
22.085,-0.155
22.090,-0.155
22.095,-0.140
22.100,-0.125
22.105,-0.108
22.110,-0.107
22.115,-0.096
22.120,-0.076
22.125,-0.062
22.130,-0.035
22.135,-0.015
22.140,0.016
22.145,0.063
22.150,0.073
22.155,0.062
22.160,0.055
22.165,0.047
22.170,0.046
22.175,0.050
22.180,0.059
22.185,0.065
22.190,0.060
22.195,0.049
22.200,0.051
22.205,0.071
22.210,0.051
22.215,-0.082
22.220,-0.318
22.225,-0.593
22.230,-0.832
22.235,-0.932
22.240,-0.865
22.245,-0.595
22.250,-0.170
22.255,0.135
22.260,0.229
22.265,0.231
22.270,0.181
22.275,0.191
22.280,0.265
22.285,0.288
22.290,0.288
22.295,0.267
22.300,0.216
22.305,0.192
22.310,0.173
22.315,0.146
22.320,0.146
22.325,0.151
22.330,0.126
22.335,0.105
22.340,0.104
22.345,0.089
22.350,0.069
22.355,0.064
22.360,0.058
22.365,0.053
22.370,0.055
22.375,0.050
22.380,0.039
22.385,0.035
22.390,0.035
22.395,0.027
22.400,0.010
22.405,-0.004
22.410,-0.011
22.415,-0.023
22.420,-0.046
22.425,-0.067
22.430,-0.079
22.435,-0.082
22.440,-0.085
22.445,-0.101
22.450,-0.123
22.455,-0.136
22.460,-0.144
22.465,-0.151
22.470,-0.159
22.475,-0.163
22.480,-0.162
22.485,-0.167
22.490,-0.174
22.495,-0.165
22.500,-0.134
22.505,-0.096
22.510,-0.055
22.515,-0.009
22.520,0.030
22.525,0.060
22.530,0.081
22.535,0.099
22.540,0.120
22.545,0.134
22.550,0.142
22.555,0.160
22.560,0.175
22.565,0.180
22.570,0.178
22.575,0.164
22.580,0.153
22.585,0.149
22.590,0.146
22.595,0.143
22.600,0.137
22.605,0.125
22.610,0.112
22.615,0.107
22.620,0.107
22.625,0.102
22.630,0.095
22.635,0.082
22.640,0.071
22.645,0.067
22.650,0.061
22.655,0.059
22.660,0.056
22.665,0.053
22.670,0.053
22.675,0.044
22.680,0.033
22.685,0.026
22.690,0.021
22.695,0.020
22.700,0.020
22.705,0.023
22.710,0.023
22.715,0.018
22.720,0.013
22.725,0.006
22.730,0.002
22.735,0.002
22.740,0.001
22.745,-0.003
22.750,-0.011
22.755,-0.021
22.760,-0.021
22.765,-0.017
22.770,-0.017
22.775,-0.023
22.780,-0.028
22.785,-0.029
22.790,-0.022
22.795,-0.019
22.800,-0.024
22.805,-0.031
22.810,-0.033
22.815,-0.030
22.820,-0.030
22.825,-0.032
22.830,-0.029
22.835,-0.024
22.840,-0.019
22.845,-0.019
22.850,-0.024
22.855,-0.032
22.860,-0.048
22.865,-0.068
22.870,-0.085
22.875,-0.098
22.880,-0.100
22.885,-0.090
22.890,-0.085
22.895,-0.100
22.900,-0.130
22.905,-0.151
22.910,-0.154
22.915,-0.143
22.920,-0.132
22.925,-0.123
22.930,-0.103
22.935,-0.075
22.940,-0.054
22.945,-0.047
22.950,-0.039
22.955,-0.020
22.960,0.017
22.965,0.056
22.970,0.073
22.975,0.072
22.980,0.062
22.985,0.053
22.990,0.053
22.995,0.055
23.000,0.055
23.005,0.052
23.010,0.047
23.015,0.050
23.020,0.074
23.025,0.107
23.030,0.098
23.035,-0.014
23.040,-0.235
23.045,-0.523
23.050,-0.803
23.055,-0.960
23.060,-0.934
23.065,-0.704
23.070,-0.286
23.075,0.087
23.080,0.267
23.085,0.308
23.090,0.273
23.095,0.306
23.100,0.367
23.105,0.344
23.110,0.306
23.115,0.260
23.120,0.206
23.125,0.174
23.130,0.151
23.135,0.135
23.140,0.129
23.145,0.121
23.150,0.111
23.155,0.109
23.160,0.110
23.165,0.099
23.170,0.086
23.175,0.073
23.180,0.061
23.185,0.054
23.190,0.053
23.195,0.053
23.200,0.044
23.205,0.035
23.210,0.024
23.215,0.015
23.220,0.008
23.225,-0.002
23.230,-0.014
23.235,-0.024
23.240,-0.039
23.245,-0.061
23.250,-0.079
23.255,-0.089
23.260,-0.102
23.265,-0.115
23.270,-0.128
23.275,-0.141
23.280,-0.154
23.285,-0.169
23.290,-0.183
23.295,-0.192
23.300,-0.195
23.305,-0.191
23.310,-0.181
23.315,-0.163
23.320,-0.138
23.325,-0.105
23.330,-0.061
23.335,-0.020
23.340,0.019
23.345,0.058
23.350,0.090
23.355,0.119
23.360,0.143
23.365,0.163
23.370,0.181
23.375,0.193
23.380,0.196
23.385,0.199
23.390,0.202
23.395,0.202
23.400,0.196
23.405,0.189
23.410,0.181
23.415,0.172
23.420,0.167
23.425,0.163
23.430,0.155
23.435,0.143
23.440,0.133
23.445,0.125
23.450,0.119
23.455,0.111
23.460,0.101
23.465,0.094
23.470,0.087
23.475,0.081
23.480,0.079
23.485,0.073
23.490,0.064
23.495,0.055
23.500,0.048
23.505,0.045
23.510,0.038
23.515,0.030
23.520,0.025
23.525,0.021
23.530,0.016
23.535,0.010
23.540,0.004
23.545,0.003
23.550,0.003
23.555,0.000
23.560,-0.005
23.565,-0.008
23.570,-0.008
23.575,-0.010
23.580,-0.011
23.585,-0.011
23.590,-0.011
23.595,-0.013
23.600,-0.015
23.605,-0.016
23.610,-0.018
23.615,-0.021
23.620,-0.023
23.625,-0.025
23.630,-0.026
23.635,-0.030
23.640,-0.034
23.645,-0.035
23.650,-0.034
23.655,-0.031
23.660,-0.030
23.665,-0.030
23.670,-0.031
23.675,-0.034
23.680,-0.037
23.685,-0.040
23.690,-0.040
23.695,-0.036
23.700,-0.034
23.705,-0.034
23.710,-0.035
23.715,-0.043
23.720,-0.062
23.725,-0.085
23.730,-0.101
23.735,-0.108
23.740,-0.101
23.745,-0.094
23.750,-0.107
23.755,-0.133
23.760,-0.155
23.765,-0.153
23.770,-0.136
23.775,-0.126
23.780,-0.125
23.785,-0.120
23.790,-0.095
23.795,-0.073
23.800,-0.063
23.805,-0.051
23.810,-0.036
23.815,-0.005
23.820,0.035
23.825,0.055
23.830,0.063
23.835,0.062
23.840,0.058
23.845,0.061
23.850,0.061
23.855,0.058
23.860,0.055
23.865,0.052
23.870,0.055
23.875,0.066
23.880,0.090
23.885,0.096
23.890,0.022
23.895,-0.166
23.900,-0.449
23.905,-0.752
23.910,-0.956
23.915,-0.978
23.920,-0.801
23.925,-0.413
23.930,-0.002
23.935,0.225
23.940,0.299
23.945,0.280
23.950,0.311
23.955,0.378
23.960,0.348
23.965,0.298
23.970,0.255
23.975,0.209
23.980,0.181
23.985,0.159
23.990,0.149
23.995,0.147
24.000,0.133
24.005,0.121
24.010,0.117
24.015,0.109
24.020,0.093
24.025,0.082
24.030,0.076
24.035,0.066
24.040,0.057
24.045,0.048
24.050,0.038
24.055,0.031
24.060,0.026
24.065,0.021
24.070,0.011
24.075,-0.001
24.080,-0.005
24.085,-0.007
24.090,-0.017
24.095,-0.030
24.100,-0.045
24.105,-0.062
24.110,-0.080
24.115,-0.095
24.120,-0.110
24.125,-0.130
24.130,-0.146
24.135,-0.161
24.140,-0.174
24.145,-0.184
24.150,-0.196
24.155,-0.198
24.160,-0.187
24.165,-0.170
24.170,-0.153
24.175,-0.142
24.180,-0.126
24.185,-0.094
24.190,-0.048
24.195,-0.003
24.200,0.038
24.205,0.076
24.210,0.110
24.215,0.142
24.220,0.169
24.225,0.190
24.230,0.205
24.235,0.210
24.240,0.211
24.245,0.209
24.250,0.206
24.255,0.197
24.260,0.188
24.265,0.183
24.270,0.177
24.275,0.172
24.280,0.170
24.285,0.167
24.290,0.157
24.295,0.140
24.300,0.125
24.305,0.121
24.310,0.120
24.315,0.119
24.320,0.117
24.325,0.107
24.330,0.087
24.335,0.072
24.340,0.066
24.345,0.058
24.350,0.044
24.355,0.042
24.360,0.048
24.365,0.059
24.370,0.062
24.375,0.049
24.380,0.038
24.385,0.026
24.390,0.010
24.395,0.002
24.400,-0.002
24.405,-0.003
24.410,0.000
24.415,-0.006
24.420,-0.014
24.425,-0.008
24.430,-0.001
24.435,0.002
24.440,0.004
24.445,-0.006
24.450,-0.023
24.455,-0.040
24.460,-0.041
24.465,-0.017
24.470,0.003
24.475,0.002
24.480,-0.005
24.485,-0.005
24.490,-0.009
24.495,-0.024
24.500,-0.038
24.505,-0.039
24.510,-0.034
24.515,-0.034
24.520,-0.038
24.525,-0.041
24.530,-0.038
24.535,-0.035
24.540,-0.037
24.545,-0.039
24.550,-0.040
24.555,-0.044
24.560,-0.056
24.565,-0.055
24.570,-0.039
24.575,-0.027
24.580,-0.032
24.585,-0.050
24.590,-0.057
24.595,-0.053
24.600,-0.062
24.605,-0.083
24.610,-0.098
24.615,-0.101
24.620,-0.118
24.625,-0.163
24.630,-0.206
24.635,-0.223
24.640,-0.191
24.645,-0.080
24.650,0.108
24.655,0.334
24.660,0.557
24.665,0.808
24.670,1.068
24.675,1.228
24.680,1.287
24.685,1.292
24.690,1.262
24.695,1.178
24.700,1.000
24.705,0.779
24.710,0.582
24.715,0.401
24.720,0.218
24.725,0.025
24.730,-0.158
24.735,-0.289
24.740,-0.373
24.745,-0.486
24.750,-0.654
24.755,-0.804
24.760,-0.884
24.765,-0.908
24.770,-0.917
24.775,-0.923
24.780,-0.908
24.785,-0.885
24.790,-0.869
24.795,-0.859
24.800,-0.849
24.805,-0.835
24.810,-0.816
24.815,-0.784
24.820,-0.756
24.825,-0.742
24.830,-0.742
24.835,-0.754
24.840,-0.750
24.845,-0.736
24.850,-0.743
24.855,-0.758
24.860,-0.765
24.865,-0.771
24.870,-0.783
24.875,-0.789
24.880,-0.794
24.885,-0.807
24.890,-0.807
24.895,-0.791
24.900,-0.781
24.905,-0.775
24.910,-0.772
24.915,-0.729
24.920,-0.634
24.925,-0.554
24.930,-0.486
24.935,-0.413
24.940,-0.323
24.945,-0.193
24.950,-0.060
24.955,0.057
24.960,0.168
24.965,0.279
24.970,0.386
24.975,0.487
24.980,0.578
24.985,0.661
24.990,0.732
24.995,0.781
25.000,0.823
25.005,0.864
25.010,0.895
25.015,0.912
25.020,0.920
25.025,0.924
25.030,0.924
25.035,0.905
25.040,0.875
25.045,0.851
25.050,0.826
25.055,0.790
25.060,0.758
25.065,0.743
25.070,0.713
25.075,0.665
25.080,0.634
25.085,0.621
25.090,0.614
25.095,0.587
25.100,0.541
25.105,0.510
25.110,0.491
25.115,0.465
25.120,0.443
25.125,0.422
25.130,0.381
25.135,0.335
25.140,0.317
25.145,0.323
25.150,0.331
25.155,0.322
25.160,0.280
25.165,0.244
25.170,0.233
25.175,0.213
25.180,0.186
25.185,0.179
25.190,0.176
25.195,0.156
25.200,0.129
25.205,0.114
25.210,0.098
25.215,0.085
25.220,0.076
25.225,0.068
25.230,0.061
25.235,0.045
25.240,0.024
25.245,0.009
25.250,-0.001
25.255,-0.017
25.260,-0.027
25.265,-0.026
25.270,-0.029
25.275,-0.027
25.280,-0.029
25.285,-0.033
25.290,-0.033
25.295,-0.049
25.300,-0.077
25.305,-0.096
25.310,-0.106
25.315,-0.108
25.320,-0.102
25.325,-0.086
25.330,-0.083
25.335,-0.105
25.340,-0.121
25.345,-0.119
25.350,-0.114
25.355,-0.131
25.360,-0.149
25.365,-0.141
25.370,-0.135
25.375,-0.134
25.380,-0.126
25.385,-0.126
25.390,-0.135
25.395,-0.149
25.400,-0.158
25.405,-0.157
25.410,-0.146
25.415,-0.135
25.420,-0.133
25.425,-0.128
25.430,-0.127
25.435,-0.136
25.440,-0.137
25.445,-0.139
25.450,-0.152
25.455,-0.152
25.460,-0.135
25.465,-0.119
25.470,-0.117
25.475,-0.138
25.480,-0.162
25.485,-0.151
25.490,-0.136
25.495,-0.162
25.500,-0.188
25.505,-0.190
25.510,-0.183
25.515,-0.177
25.520,-0.191
25.525,-0.205
25.530,-0.200
25.535,-0.207
25.540,-0.222
25.545,-0.225
25.550,-0.210
25.555,-0.189
25.560,-0.188
25.565,-0.171
25.570,-0.132
25.575,-0.100
25.580,-0.082
25.585,-0.079
25.590,-0.063
25.595,-0.026
25.600,0.002
25.605,0.003
25.610,-0.002
25.615,0.009
25.620,0.012
25.625,0.008
25.630,0.012
25.635,0.017
25.640,0.023
25.645,0.038
25.650,0.067
25.655,0.087
25.660,0.023
25.665,-0.162
25.670,-0.405
25.675,-0.671
25.680,-0.908
25.685,-1.001
25.690,-0.917
25.695,-0.609
25.700,-0.156
25.705,0.139
25.710,0.237
25.715,0.227
25.720,0.163
25.725,0.191
25.730,0.261
25.735,0.290
25.740,0.331
25.745,0.336
25.750,0.278
25.755,0.219
25.760,0.169
25.765,0.143
25.770,0.164
25.775,0.191
25.780,0.185
25.785,0.158
25.790,0.128
25.795,0.099
25.800,0.092
25.805,0.117
25.810,0.124
25.815,0.102
25.820,0.085
25.825,0.057
25.830,0.034
25.835,0.053
25.840,0.079
25.845,0.071
25.850,0.040
25.855,0.005
25.860,-0.005
25.865,0.003
25.870,0.002
25.875,-0.010
25.880,-0.025
25.885,-0.043
25.890,-0.060
25.895,-0.072
25.900,-0.084
25.905,-0.101
25.910,-0.117
25.915,-0.121
25.920,-0.119
25.925,-0.118
25.930,-0.112
25.935,-0.105
25.940,-0.106
25.945,-0.114
25.950,-0.118
25.955,-0.107
25.960,-0.078
25.965,-0.039
25.970,-0.007
25.975,0.024
25.980,0.050
25.985,0.058
25.990,0.083
25.995,0.126
26.000,0.151
26.005,0.156
26.010,0.155
26.015,0.152
26.020,0.152
26.025,0.158
26.030,0.160
26.035,0.159
26.040,0.148
26.045,0.129
26.050,0.119
26.055,0.126
26.060,0.135
26.065,0.127
26.070,0.119
26.075,0.110
26.080,0.095
26.085,0.081
26.090,0.074
26.095,0.069
26.100,0.072
26.105,0.080
26.110,0.073
26.115,0.053
26.120,0.042
26.125,0.046
26.130,0.057
26.135,0.056
26.140,0.040
26.145,0.029
26.150,0.031
26.155,0.031
26.160,0.031
26.165,0.035
26.170,0.026
26.175,0.012
26.180,0.011
26.185,0.006
26.190,-0.013
26.195,-0.033
26.200,-0.028
26.205,-0.009
26.210,0.001
26.215,0.008
26.220,0.005
26.225,-0.004
26.230,-0.007
26.235,-0.008
26.240,0.000
26.245,0.002
26.250,-0.018
26.255,-0.027
26.260,-0.020
26.265,-0.019
26.270,-0.020
26.275,-0.019
26.280,-0.025
26.285,-0.033
26.290,-0.039
26.295,-0.032
26.300,-0.014
26.305,-0.009
26.310,-0.020
26.315,-0.025
26.320,-0.025
26.325,-0.024
26.330,-0.024
26.335,-0.029
26.340,-0.042
26.345,-0.067
26.350,-0.095
26.355,-0.101
26.360,-0.093
26.365,-0.083
26.370,-0.088
26.375,-0.114
26.380,-0.138
26.385,-0.148
26.390,-0.140
26.395,-0.126
26.400,-0.110
26.405,-0.096
26.410,-0.080
26.415,-0.069
26.420,-0.070
26.425,-0.061
26.430,-0.045
26.435,-0.018
26.440,0.026
26.445,0.050
26.450,0.053
26.455,0.059
26.460,0.067
26.465,0.082
26.470,0.087
26.475,0.074
26.480,0.066
26.485,0.066
26.490,0.063
26.495,0.067
26.500,0.093
26.505,0.106
26.510,0.028
26.515,-0.173
26.520,-0.458
26.525,-0.752
26.530,-0.959
26.535,-1.000
26.540,-0.854
26.545,-0.480
26.550,-0.039
26.555,0.204
26.560,0.294
26.565,0.278
26.570,0.249
26.575,0.313
26.580,0.345
26.585,0.333
26.590,0.319
26.595,0.265
26.600,0.216
26.605,0.195
26.610,0.170
26.615,0.153
26.620,0.152
26.625,0.147
26.630,0.138
26.635,0.137
26.640,0.130
26.645,0.110
26.650,0.094
26.655,0.086
26.660,0.076
26.665,0.066
26.670,0.057
26.675,0.046
26.680,0.041
26.685,0.042
26.690,0.041
26.695,0.037
26.700,0.030
26.705,0.016
26.710,-0.003
26.715,-0.023
26.720,-0.040
26.725,-0.052
26.730,-0.063
26.735,-0.074
26.740,-0.092
26.745,-0.112
26.750,-0.126
26.755,-0.140
26.760,-0.155
26.765,-0.163
26.770,-0.165
26.775,-0.171
26.780,-0.172
26.785,-0.164
26.790,-0.149
26.795,-0.130
26.800,-0.114
26.805,-0.090
26.810,-0.053
26.815,-0.013
26.820,0.028
26.825,0.068
26.830,0.099
26.835,0.123
26.840,0.148
26.845,0.169
26.850,0.186
26.855,0.196
26.860,0.192
26.865,0.185
26.870,0.180
26.875,0.179
26.880,0.179
26.885,0.173
26.890,0.164
26.895,0.158
26.900,0.151
26.905,0.145
26.910,0.141
26.915,0.133
26.920,0.121
26.925,0.108
26.930,0.096
26.935,0.090
26.940,0.085
26.945,0.073
26.950,0.066
26.955,0.066
26.960,0.067
26.965,0.065
26.970,0.055
26.975,0.047
26.980,0.044
26.985,0.040
26.990,0.037
26.995,0.029
27.000,0.017
27.005,0.008
27.010,0.004
27.015,0.004
27.020,0.002
27.025,-0.003
27.030,-0.003
27.035,-0.002
27.040,-0.001
27.045,-0.001
27.050,-0.002
27.055,-0.007
27.060,-0.015
27.065,-0.021
27.070,-0.023
27.075,-0.022
27.080,-0.020
27.085,-0.021
27.090,-0.024
27.095,-0.028
27.100,-0.029
27.105,-0.030
27.110,-0.035
27.115,-0.038
27.120,-0.039
27.125,-0.040
27.130,-0.043
27.135,-0.049
27.140,-0.049
27.145,-0.045
27.150,-0.040
27.155,-0.032
27.160,-0.030
27.165,-0.032
27.170,-0.037
27.175,-0.040
27.180,-0.040
27.185,-0.042
27.190,-0.042
27.195,-0.042
27.200,-0.051
27.205,-0.072
27.210,-0.093
27.215,-0.102
27.220,-0.107
27.225,-0.107
27.230,-0.102
27.235,-0.110
27.240,-0.134
27.245,-0.156
27.250,-0.156
27.255,-0.139
27.260,-0.128
27.265,-0.123
27.270,-0.113
27.275,-0.091
27.280,-0.073
27.285,-0.065
27.290,-0.052
27.295,-0.036
27.300,-0.008
27.305,0.031
27.310,0.054
27.315,0.060
27.320,0.063
27.325,0.063
27.330,0.065
27.335,0.065
27.340,0.061
27.345,0.060
27.350,0.060
27.355,0.066
27.360,0.084
27.365,0.110
27.370,0.088
27.375,-0.046
27.380,-0.290
27.385,-0.596
27.390,-0.868
27.395,-0.993
27.400,-0.946
27.405,-0.677
27.410,-0.240
27.415,0.102
27.420,0.266
27.425,0.294
27.430,0.284
27.435,0.351
27.440,0.384
27.445,0.342
27.450,0.303
27.455,0.255
27.460,0.211
27.465,0.186
27.470,0.167
27.475,0.155
27.480,0.148
27.485,0.138
27.490,0.128
27.495,0.121
27.500,0.112
27.505,0.102
27.510,0.095
27.515,0.088
27.520,0.077
27.525,0.068
27.530,0.063
27.535,0.053
27.540,0.045
27.545,0.040
27.550,0.033
27.555,0.026
27.560,0.017
27.565,0.006
27.570,-0.006
27.575,-0.020
27.580,-0.032
27.585,-0.044
27.590,-0.058
27.595,-0.076
27.600,-0.096
27.605,-0.115
27.610,-0.132
27.615,-0.143
27.620,-0.153
27.625,-0.163
27.630,-0.173
27.635,-0.180
27.640,-0.183
27.645,-0.181
27.650,-0.173
27.655,-0.159
27.660,-0.138
27.665,-0.107
27.670,-0.069
27.675,-0.025
27.680,0.019
27.685,0.058
27.690,0.096
27.695,0.130
27.700,0.157
27.705,0.178
27.710,0.195
27.715,0.207
27.720,0.210
27.725,0.210
27.730,0.209
27.735,0.208
27.740,0.207
27.745,0.198
27.750,0.189
27.755,0.182
27.760,0.171
27.765,0.162
27.770,0.152
27.775,0.143
27.780,0.135
27.785,0.126
27.790,0.118
27.795,0.107
27.800,0.094
27.805,0.087
27.810,0.082
27.815,0.077
27.820,0.070
27.825,0.062
27.830,0.057
27.835,0.052
27.840,0.047
27.845,0.044
27.850,0.040
27.855,0.035
27.860,0.027
27.865,0.024
27.870,0.021
27.875,0.016
27.880,0.011
27.885,0.003
27.890,-0.002
27.895,-0.005
27.900,-0.011
27.905,-0.013
27.910,-0.014
27.915,-0.015
27.920,-0.016
27.925,-0.017
27.930,-0.019
27.935,-0.021
27.940,-0.020
27.945,-0.018
27.950,-0.017
27.955,-0.019
27.960,-0.024
27.965,-0.030
27.970,-0.032
27.975,-0.028
27.980,-0.025
27.985,-0.026
27.990,-0.030
27.995,-0.037
28.000,-0.041
28.005,-0.043
28.010,-0.046
28.015,-0.045
28.020,-0.042
28.025,-0.039
28.030,-0.034
28.035,-0.034
28.040,-0.039
28.045,-0.045
28.050,-0.042
28.055,-0.038
28.060,-0.037
28.065,-0.039
28.070,-0.043
28.075,-0.046
28.080,-0.059
28.085,-0.084
28.090,-0.101
28.095,-0.102
28.100,-0.100
28.105,-0.099
28.110,-0.108
28.115,-0.131
28.120,-0.162
28.125,-0.176
28.130,-0.154
28.135,-0.123
28.140,-0.114
28.145,-0.118
28.150,-0.107
28.155,-0.084
28.160,-0.077
28.165,-0.082
28.170,-0.068
28.175,-0.035
28.180,0.012
28.185,0.048
28.190,0.067
28.195,0.078
28.200,0.079
28.205,0.082
28.210,0.084
28.215,0.073
28.220,0.063
28.225,0.059
28.230,0.059
28.235,0.067
28.240,0.084
28.245,0.090
28.250,0.026
28.255,-0.150
28.260,-0.418
28.265,-0.699
28.270,-0.900
28.275,-0.942
28.280,-0.799
28.285,-0.450
28.290,-0.045
28.295,0.199
28.300,0.290
28.305,0.268
28.310,0.266
28.315,0.338
28.320,0.351
28.325,0.322
28.330,0.287
28.335,0.235
28.340,0.202
28.345,0.180
28.350,0.150
28.355,0.138
28.360,0.135
28.365,0.125
28.370,0.123
28.375,0.118
28.380,0.102
28.385,0.083
28.390,0.068
28.395,0.061
28.400,0.060
28.405,0.053
28.410,0.046
28.415,0.045
28.420,0.042
28.425,0.038
28.430,0.027
28.435,0.004
28.440,-0.011
28.445,-0.016
28.450,-0.023
28.455,-0.025
28.460,-0.035
28.465,-0.052
28.470,-0.064
28.475,-0.083
28.480,-0.106
28.485,-0.124
28.490,-0.133
28.495,-0.144
28.500,-0.159
28.505,-0.175
28.510,-0.194
28.515,-0.192
28.520,-0.179
28.525,-0.174
28.530,-0.169
28.535,-0.163
28.540,-0.138
28.545,-0.096
28.550,-0.063
28.555,-0.030
28.560,0.013
28.565,0.068
28.570,0.115
28.575,0.142
28.580,0.158
28.585,0.175
28.590,0.190
28.595,0.192
28.600,0.199
28.605,0.214
28.610,0.223
28.615,0.216
28.620,0.195
28.625,0.187
28.630,0.188
28.635,0.182
28.640,0.170
28.645,0.164
28.650,0.156
28.655,0.123
28.660,0.085
28.665,0.065
28.670,0.086
28.675,0.129
28.680,0.135
28.685,0.124
28.690,0.110
28.695,0.102
28.700,0.107
28.705,0.084
28.710,0.044
28.715,0.020
28.720,0.022
28.725,0.046
28.730,0.057
28.735,0.046
28.740,0.037
28.745,0.033
28.750,0.030
28.755,0.024
28.760,0.012
28.765,0.002
28.770,0.000
28.775,0.009
28.780,0.025
28.785,0.023
28.790,0.003
28.795,-0.013
28.800,-0.018
28.805,-0.025
28.810,-0.036
28.815,-0.034
28.820,-0.021
28.825,-0.022
28.830,-0.022
28.835,-0.015
28.840,-0.005
28.845,-0.003
28.850,-0.012
28.855,-0.030
28.860,-0.049
28.865,-0.059
28.870,-0.051
28.875,-0.034
28.880,-0.022
28.885,-0.011
28.890,-0.025
28.895,-0.051
28.900,-0.048
28.905,-0.029
28.910,-0.023
28.915,-0.044
28.920,-0.054
28.925,-0.035
28.930,-0.043
28.935,-0.087
28.940,-0.119
28.945,-0.119
28.950,-0.093
28.955,-0.084
28.960,-0.121
28.965,-0.159
28.970,-0.177
28.975,-0.168
28.980,-0.129
28.985,-0.125
28.990,-0.137
28.995,-0.107
29.000,-0.074
29.005,-0.067
29.010,-0.071
29.015,-0.076
29.020,-0.053
29.025,-0.001
29.030,0.045
29.035,0.068
29.040,0.076
29.045,0.074
29.050,0.071
29.055,0.069
29.060,0.066
29.065,0.065
29.070,0.061
29.075,0.054
29.080,0.059
29.085,0.087
29.090,0.108
29.095,0.062
29.100,-0.093
29.105,-0.342
29.110,-0.626
29.115,-0.860
29.120,-0.954
29.125,-0.883
29.130,-0.578
29.135,-0.124
29.140,0.161
29.145,0.237
29.150,0.222
29.155,0.179
29.160,0.204
29.165,0.256
29.170,0.276
29.175,0.305
29.180,0.278
29.185,0.208
29.190,0.191
29.195,0.182
29.200,0.164
29.205,0.176
29.210,0.184
29.215,0.152
29.220,0.122
29.225,0.114
29.230,0.102
29.235,0.096
29.240,0.098
29.245,0.089
29.250,0.075
29.255,0.068
29.260,0.083
29.265,0.093
29.270,0.065
29.275,0.034
29.280,0.022
29.285,0.016
29.290,0.011
29.295,-0.009
29.300,-0.017
29.305,-0.009
29.310,-0.024
29.315,-0.037
29.320,-0.044
29.325,-0.084
29.330,-0.103
29.335,-0.099
29.340,-0.108
29.345,-0.118
29.350,-0.144
29.355,-0.153
29.360,-0.138
29.365,-0.148
29.370,-0.169
29.375,-0.154
29.380,-0.118
29.385,-0.089
29.390,-0.071
29.395,-0.067
29.400,-0.043
29.405,0.003
29.410,0.051
29.415,0.107
29.420,0.133
29.425,0.138
29.430,0.133
29.435,0.127
29.440,0.155
29.445,0.175
29.450,0.170
29.455,0.161
29.460,0.156
29.465,0.170
29.470,0.171
29.475,0.158
29.480,0.149
29.485,0.138
29.490,0.120
29.495,0.096
29.500,0.083
29.505,0.087
29.510,0.094
29.515,0.106
29.520,0.112
29.525,0.084
29.530,0.053
29.535,0.047
29.540,0.058
29.545,0.074
29.550,0.060
29.555,0.032
29.560,0.023
29.565,0.020
29.570,0.019
29.575,0.016
29.580,0.015
29.585,0.016
29.590,0.014
29.595,0.018
29.600,0.011
29.605,-0.004
29.610,0.000
29.615,0.011
29.620,0.007
29.625,-0.022
29.630,-0.043
29.635,-0.038
29.640,-0.019
29.645,0.001
29.650,0.002
29.655,-0.002
29.660,-0.012
29.665,-0.026
29.670,-0.011
29.675,-0.005
29.680,-0.026
29.685,-0.034
29.690,-0.033
29.695,-0.017
29.700,-0.014
29.705,-0.050
29.710,-0.068
29.715,-0.062
29.720,-0.047
29.725,-0.011
29.730,-0.009
29.735,-0.036
29.740,-0.045
29.745,-0.044
29.750,-0.024
29.755,-0.011
29.760,-0.051
29.765,-0.086
29.770,-0.079
29.775,-0.076
29.780,-0.086
29.785,-0.107
29.790,-0.122
29.795,-0.121
29.800,-0.136
29.805,-0.164
29.810,-0.161
29.815,-0.126
29.820,-0.099
29.825,-0.098
29.830,-0.115
29.835,-0.113
29.840,-0.078
29.845,-0.052
29.850,-0.047
29.855,-0.052
29.860,-0.051
29.865,-0.004
29.870,0.059
29.875,0.084
29.880,0.080
29.885,0.069
29.890,0.064
29.895,0.053
29.900,0.045
29.905,0.050
29.910,0.066
29.915,0.082
29.920,0.105
29.925,0.146
29.930,0.123
29.935,-0.017
29.940,-0.242
29.945,-0.512
29.950,-0.756
29.955,-0.926
29.960,-0.985
29.965,-0.812
29.970,-0.388
29.975,0.008
29.980,0.210
29.985,0.278
29.990,0.251
29.995,0.279
30.000,0.332
30.005,0.304
30.010,0.302
30.015,0.300
30.020,0.245
30.025,0.215
30.030,0.199
30.035,0.174
30.040,0.157
30.045,0.162
30.050,0.183
30.055,0.153
30.060,0.124
30.065,0.135
30.070,0.128
30.075,0.103
30.080,0.090
30.085,0.086
30.090,0.093
30.095,0.070
30.100,0.023
30.105,0.032
30.110,0.070
30.115,0.089
30.120,0.054
30.125,-0.007
30.130,-0.013
30.135,-0.006
30.140,-0.004
30.145,-0.022
30.150,-0.032
30.155,-0.021
30.160,-0.084
30.165,-0.135
30.170,-0.121
30.175,-0.090
30.180,-0.078
30.185,-0.124
30.190,-0.173
30.195,-0.192
30.200,-0.170
30.205,-0.149
30.210,-0.179
30.215,-0.196
30.220,-0.174
30.225,-0.107
30.230,-0.028
30.235,0.017
30.240,0.046
30.245,0.046
30.250,0.043
30.255,0.088
30.260,0.168
30.265,0.218
30.270,0.204
30.275,0.162
30.280,0.137
30.285,0.166
30.290,0.206
30.295,0.179
30.300,0.161
30.305,0.207
30.310,0.209
30.315,0.176
30.320,0.175
30.325,0.183
30.330,0.157
30.335,0.080
30.340,0.050
30.345,0.117
30.350,0.118
30.355,0.032
30.360,0.011
30.365,0.068
30.370,0.132
30.375,0.108
30.380,0.017
30.385,0.029
30.390,0.116
30.395,0.099
30.400,0.007
30.405,-0.019
30.410,0.039
30.415,0.051
30.420,-0.005
30.425,-0.062
30.430,-0.056
30.435,-0.006
30.440,0.008
30.445,0.008
30.450,-0.029
30.455,-0.070
30.460,-0.052
30.465,0.013
30.470,0.049
30.475,0.066
30.480,-0.004
30.485,-0.139
30.490,-0.074
30.495,0.022
30.500,-0.010
30.505,-0.059
30.510,-0.078
30.515,-0.008
30.520,-0.007
30.525,-0.143
30.530,-0.154
30.535,0.003
30.540,0.035
30.545,-0.061
30.550,-0.071
30.555,-0.047
30.560,0.019
30.565,0.052
30.570,-0.025
30.575,-0.120
30.580,-0.176
30.585,-0.088
30.590,-0.009
30.595,-0.052
30.600,-0.133
30.605,-0.202
30.610,-0.150
30.615,-0.067
30.620,-0.077
30.625,-0.140
30.630,-0.162
30.635,-0.130
30.640,-0.094
30.645,-0.064
30.650,-0.121
30.655,-0.215
30.660,-0.187
30.665,-0.109
30.670,-0.076
30.675,-0.069
30.680,-0.103
30.685,-0.101
30.690,-0.046
30.695,-0.023
30.700,0.003
30.705,0.056
30.710,0.098
30.715,0.084
30.720,0.013
30.725,0.001
30.730,0.037
30.735,0.087
30.740,0.122
30.745,0.035
30.750,0.007
30.755,0.098
30.760,0.110
30.765,0.022
30.770,-0.182
30.775,-0.471
30.780,-0.765
30.785,-1.000
30.790,-1.044
30.795,-0.855
30.800,-0.466
30.805,-0.058
30.810,0.186
30.815,0.284
30.820,0.263
30.825,0.284
30.830,0.357
30.835,0.365
30.840,0.366
30.845,0.321
30.850,0.253
30.855,0.223
30.860,0.187
30.865,0.164
30.870,0.163
30.875,0.185
30.880,0.194
30.885,0.146
30.890,0.105
30.895,0.117
30.900,0.119
30.905,0.115
30.910,0.140
30.915,0.142
30.920,0.093
30.925,0.026
30.930,0.009
30.935,0.056
30.940,0.084
30.945,0.071
30.950,0.054
30.955,0.022
30.960,-0.014
30.965,0.017
30.970,0.074
30.975,0.059
30.980,-0.029
30.985,-0.103
30.990,-0.115
30.995,-0.111
31.000,-0.110
31.005,-0.131
31.010,-0.158
31.015,-0.145
31.020,-0.149
31.025,-0.171
31.030,-0.164
31.035,-0.171
31.040,-0.180
31.045,-0.174
31.050,-0.153
31.055,-0.059
31.060,0.044
31.065,0.064
31.070,0.046
31.075,0.026
31.080,0.029
31.085,0.088
31.090,0.161
31.095,0.201
31.100,0.232
31.105,0.255
31.110,0.249
31.115,0.251
31.120,0.220
31.125,0.170
31.130,0.139
31.135,0.122
31.140,0.225
31.145,0.305
31.150,0.271
31.155,0.198
31.160,0.061
31.165,0.076
31.170,0.244
31.175,0.294
31.180,0.265
31.185,0.170
31.190,-0.008
31.195,-0.106
31.200,-0.112
31.205,0.068
31.210,0.318
31.215,0.200
31.220,-0.067
31.225,-0.123
31.230,-0.010
31.235,0.227
31.240,0.244
31.245,0.028
31.250,-0.044
31.255,-0.052
31.260,-0.030
31.265,0.026
31.270,0.112
31.275,0.319
31.280,0.353
31.285,0.041
31.290,-0.246
31.295,-0.225
31.300,-0.021
31.305,0.078
31.310,-0.056
31.315,-0.256
31.320,-0.144
31.325,0.199
31.330,0.235
31.335,-0.035
31.340,-0.168
31.345,0.046
31.350,0.177
31.355,-0.068
31.360,-0.193
31.365,-0.041
31.370,0.008
31.375,-0.112
31.380,-0.163
31.385,-0.056
31.390,0.067
31.395,0.112
31.400,0.097
31.405,-0.062
31.410,-0.185
31.415,-0.155
31.420,-0.164
31.425,-0.149
31.430,-0.039
31.435,0.104
31.440,0.021
31.445,-0.219
31.450,-0.272
31.455,-0.164
31.460,-0.005
31.465,-0.051
31.470,-0.153
31.475,-0.183
31.480,-0.304
31.485,-0.201
31.490,-0.020
31.495,-0.152
31.500,-0.268
31.505,-0.018
31.510,0.161
31.515,0.057
31.520,-0.018
31.525,-0.088
31.530,-0.063
31.535,0.001
31.540,-0.025
31.545,0.085
31.550,0.203
31.555,0.124
31.560,-0.004
31.565,0.018
31.570,0.110
31.575,0.020
31.580,-0.235
31.585,-0.637
31.590,-0.872
31.595,-0.813
31.600,-0.824
31.605,-0.867
31.610,-0.684
31.615,-0.205
31.620,0.178
31.625,0.135
31.630,-0.033
31.635,0.055
31.640,0.232
31.645,0.267
31.650,0.134
31.655,0.026
31.660,0.217
31.665,0.311
31.670,0.226
31.675,0.175
31.680,0.064
31.685,0.085
31.690,0.162
31.695,0.098
31.700,0.033
31.705,0.062
31.710,0.125
31.715,0.199
31.720,0.147
31.725,-0.016
31.730,0.010
31.735,0.012
31.740,-0.014
31.745,0.093
31.750,0.000
31.755,-0.065
31.760,0.051
31.765,0.060
31.770,0.007
31.775,-0.072
31.780,-0.062
31.785,0.038
31.790,-0.015
31.795,-0.108
31.800,-0.072
31.805,-0.085
31.810,-0.156
31.815,-0.124
31.820,-0.038
31.825,-0.073
31.830,-0.187
31.835,-0.180
31.840,-0.121
31.845,-0.149
31.850,-0.172
31.855,-0.110
31.860,-0.071
31.865,-0.071
31.870,-0.117
31.875,-0.088
31.880,0.068
31.885,0.112
31.890,0.080
31.895,0.072
31.900,0.074
31.905,0.173
31.910,0.274
31.915,0.242
31.920,0.098
31.925,0.054
31.930,0.279
31.935,0.352
31.940,0.175
31.945,0.097
31.950,0.134
31.955,0.290
31.960,0.210
31.965,0.056
31.970,0.257
31.975,0.251
31.980,0.065
31.985,0.103
31.990,0.219
31.995,0.249
32.000,0.022
32.005,-0.064
32.010,0.154
32.015,0.048
32.020,-0.126
32.025,-0.048
32.030,0.103
32.035,0.245
32.040,0.109
32.045,-0.017
32.050,0.064
32.055,0.070
32.060,-0.024
32.065,0.004
32.070,0.120
32.075,0.115
32.080,0.022
32.085,-0.165
32.090,-0.147
32.095,0.123
32.100,0.177
32.105,0.055
32.110,0.014
32.115,-0.051
32.120,-0.101
32.125,0.022
32.130,-0.006
32.135,-0.092
32.140,-0.018
32.145,-0.014
32.150,0.040
32.155,0.073
32.160,-0.100
32.165,-0.120
32.170,0.067
32.175,0.049
32.180,-0.075
32.185,-0.084
32.190,-0.037
32.195,0.043
32.200,0.013
32.205,-0.049
32.210,-0.008
32.215,-0.022
32.220,-0.079
32.225,-0.090
32.230,-0.110
32.235,-0.119
32.240,-0.106
32.245,-0.082
32.250,-0.028
32.255,-0.045
32.260,-0.075
32.265,-0.079
32.270,-0.087
32.275,-0.047
32.280,-0.075
32.285,-0.085
32.290,-0.036
32.295,0.004
32.300,0.101
32.305,0.112
32.310,0.064
32.315,0.112
32.320,0.114
32.325,0.066
32.330,0.110
32.335,0.153
32.340,0.026
32.345,-0.030
32.350,0.098
32.355,0.186
32.360,0.144
32.365,-0.056
32.370,-0.247
32.375,-0.464
32.380,-0.756
32.385,-1.005
32.390,-1.108
32.395,-0.922
32.400,-0.505
32.405,-0.101
32.410,0.194
32.415,0.333
32.420,0.186
32.425,0.110
32.430,0.203
32.435,0.232
32.440,0.352
32.445,0.391
32.450,0.239
32.455,0.160
32.460,0.135
32.465,0.093
32.470,0.090
32.475,0.147
32.480,0.173
32.485,0.152
32.490,0.065
32.495,-0.055
32.500,0.029
32.505,0.165
32.510,0.170
32.515,0.149
32.520,0.095
32.525,0.040
32.530,0.026
32.535,0.012
32.540,0.027
32.545,0.017
32.550,-0.052
32.555,-0.019
32.560,0.051
32.565,0.056
32.570,0.003
32.575,-0.052
32.580,-0.047
32.585,-0.072
32.590,-0.117
32.595,-0.136
32.600,-0.151
32.605,-0.197
32.610,-0.206
32.615,-0.106
32.620,-0.022
32.625,-0.110
32.630,-0.271
32.635,-0.292
32.640,-0.167
32.645,-0.039
32.650,-0.071
32.655,-0.168
32.660,-0.117
32.665,-0.014
32.670,0.026
32.675,0.028
32.680,0.033
32.685,0.077
32.690,0.097
32.695,0.092
32.700,0.127
32.705,0.173
32.710,0.199
32.715,0.226
32.720,0.243
32.725,0.202
32.730,0.127
32.735,0.098
32.740,0.134
32.745,0.151
32.750,0.137
32.755,0.167
32.760,0.226
32.765,0.169
32.770,0.061
32.775,0.086
32.780,0.118
32.785,0.073
32.790,0.058
32.795,0.088
32.800,0.129
32.805,0.102
32.810,0.010
32.815,0.020
32.820,0.084
32.825,0.081
32.830,0.076
32.835,0.108
32.840,0.100
32.845,0.062
32.850,0.047
32.855,-0.009
32.860,-0.026
32.865,0.000
32.870,0.022
32.875,0.083
32.880,0.083
32.885,0.064
32.890,0.062
32.895,-0.007
32.900,-0.027
32.905,0.057
32.910,0.093
32.915,-0.005
32.920,-0.096
32.925,-0.043
32.930,0.048
32.935,0.065
32.940,0.032
32.945,0.011
32.950,0.017
32.955,0.020
32.960,-0.005
32.965,-0.039
32.970,-0.017
32.975,0.028
32.980,0.021
32.985,-0.036
32.990,-0.101
32.995,-0.065
33.000,-0.002
33.005,-0.070
33.010,-0.155
33.015,-0.154
33.020,-0.137
33.025,-0.136
33.030,-0.098
33.035,-0.059
33.040,-0.061
33.045,-0.082
33.050,-0.064
33.055,0.001
33.060,-0.001
33.065,-0.006
33.070,-0.002
33.075,-0.036
33.080,0.033
33.085,0.154
33.090,0.158
33.095,0.052
33.100,-0.016
33.105,0.007
33.110,0.066
33.115,0.073
33.120,0.014
33.125,0.003
33.130,0.043
33.135,0.099
33.140,0.120
33.145,0.031
33.150,-0.197
33.155,-0.536
33.160,-0.835
33.165,-0.975
33.170,-0.959
33.175,-0.746
33.180,-0.357
33.185,0.010
33.190,0.203
33.195,0.195
33.200,0.155
33.205,0.245
33.210,0.334
33.215,0.292
33.220,0.198
33.225,0.164
33.230,0.151
33.235,0.135
33.240,0.161
33.245,0.175
33.250,0.148
33.255,0.110
33.260,0.086
33.265,0.100
33.270,0.101
33.275,0.076
33.280,0.070
33.285,0.055
33.290,0.033
33.295,0.020
33.300,0.007
33.305,0.015
33.310,0.041
33.315,0.047
33.320,0.022
33.325,-0.010
33.330,-0.026
33.335,-0.019
33.340,0.001
33.345,-0.003
33.350,-0.044
33.355,-0.074
33.360,-0.095
33.365,-0.130
33.370,-0.150
33.375,-0.152
33.380,-0.153
33.385,-0.158
33.390,-0.170
33.395,-0.195
33.400,-0.221
33.405,-0.219
33.410,-0.205
33.415,-0.205
33.420,-0.211
33.425,-0.206
33.430,-0.182
33.435,-0.149
33.440,-0.117
33.445,-0.078
33.450,-0.004
33.455,0.047
33.460,0.052
33.465,0.096
33.470,0.145
33.475,0.153
33.480,0.168
33.485,0.188
33.490,0.190
33.495,0.176
33.500,0.133
33.505,0.103
33.510,0.162
33.515,0.226
33.520,0.207
33.525,0.166
33.530,0.129
33.535,0.103
33.540,0.107
33.545,0.090
33.550,0.084
33.555,0.102
33.560,0.108
33.565,0.110
33.570,0.118
33.575,0.149
33.580,0.152
33.585,0.104
33.590,0.070
33.595,0.058
33.600,0.054
33.605,0.035
33.610,0.009
33.615,0.032
33.620,0.075
33.625,0.081
33.630,0.071
33.635,0.079
33.640,0.069
33.645,0.003
33.650,-0.030
33.655,0.008
33.660,0.016
33.665,-0.010
33.670,-0.025
33.675,-0.016
33.680,0.011
33.685,0.011
33.690,-0.002
33.695,0.016
33.700,0.030
33.705,0.019
33.710,0.021
33.715,0.027
33.720,0.004
33.725,-0.034
33.730,-0.066
33.735,-0.074
33.740,-0.065
33.745,-0.063
33.750,-0.065
33.755,-0.058
33.760,-0.056
33.765,-0.089
33.770,-0.138
33.775,-0.164
33.780,-0.157
33.785,-0.124
33.790,-0.113
33.795,-0.114
33.800,-0.085
33.805,-0.053
33.810,-0.045
33.815,-0.042
33.820,-0.020
33.825,0.016
33.830,0.051
33.835,0.068
33.840,0.083
33.845,0.102
33.850,0.094
33.855,0.073
33.860,0.059
33.865,0.057
33.870,0.053
33.875,0.015
33.880,0.009
33.885,0.099
33.890,0.168
33.895,0.085
33.900,-0.105
33.905,-0.333
33.910,-0.569
33.915,-0.793
33.920,-0.933
33.925,-0.867
33.930,-0.545
33.935,-0.144
33.940,0.062
33.945,0.113
33.950,0.111
33.955,0.086
33.960,0.155
33.965,0.254
33.970,0.294
33.975,0.319
33.980,0.293
33.985,0.261
33.990,0.259
33.995,0.202
34.000,0.151
34.005,0.166
34.010,0.196
34.015,0.203
34.020,0.196
34.025,0.196
34.030,0.144
34.035,0.084
34.040,0.141
34.045,0.194
34.050,0.134
34.055,0.073
34.060,0.035
34.065,0.019
34.070,0.025
34.075,0.020
34.080,0.046
34.085,0.061
34.090,0.001
34.095,-0.030
34.100,-0.018
34.105,-0.035
34.110,-0.055
34.115,-0.054
34.120,-0.062
34.125,-0.086
34.130,-0.081
34.135,-0.065
34.140,-0.094
34.145,-0.141
34.150,-0.185
34.155,-0.199
34.160,-0.169
34.165,-0.158
34.170,-0.170
34.175,-0.155
34.180,-0.141
34.185,-0.126
34.190,-0.085
34.195,-0.060
34.200,-0.055
34.205,-0.038
34.210,-0.009
34.215,0.030
34.220,0.075
34.225,0.096
34.230,0.093
34.235,0.084
34.240,0.074
34.245,0.083
34.250,0.130
34.255,0.183
34.260,0.202
34.265,0.177
34.270,0.131
34.275,0.105
34.280,0.112
34.285,0.112
34.290,0.098
34.295,0.104
34.300,0.112
34.305,0.099
34.310,0.075
34.315,0.056
34.320,0.049
34.325,0.036
34.330,0.026
34.335,0.033
34.340,0.017
34.345,0.009
34.350,0.045
34.355,0.065
34.360,0.056
34.365,0.038
34.370,0.028
34.375,0.045
34.380,0.042
34.385,0.012
34.390,0.000
34.395,-0.010
34.400,-0.018
34.405,0.004
34.410,0.033
34.415,0.044
34.420,0.032
34.425,0.014
34.430,0.002
34.435,-0.006
34.440,-0.013
34.445,-0.016
34.450,-0.018
34.455,-0.023
34.460,-0.021
34.465,-0.031
34.470,-0.067
34.475,-0.095
34.480,-0.114
34.485,-0.110
34.490,-0.083
34.495,-0.061
34.500,-0.052
34.505,-0.074
34.510,-0.114
34.515,-0.137
34.520,-0.137
34.525,-0.127
34.530,-0.145
34.535,-0.181
34.540,-0.175
34.545,-0.131
34.550,-0.087
34.555,-0.079
34.560,-0.099
34.565,-0.086
34.570,-0.011
34.575,0.070
34.580,0.094
34.585,0.089
34.590,0.070
34.595,0.043
34.600,0.045
34.605,0.053
34.610,0.066
34.615,0.078
34.620,0.048
34.625,0.023
34.630,0.048
34.635,0.084
34.640,0.057
34.645,-0.081
34.650,-0.316
34.655,-0.598
34.660,-0.836
34.665,-0.932
34.670,-0.869
34.675,-0.603
34.680,-0.209
34.685,0.038
34.690,0.115
34.695,0.138
34.700,0.119
34.705,0.146
34.710,0.213
34.715,0.242
34.720,0.272
34.725,0.281
34.730,0.233
34.735,0.206
34.740,0.209
34.745,0.186
34.750,0.176
34.755,0.190
34.760,0.171
34.765,0.150
34.770,0.146
34.775,0.116
34.780,0.102
34.785,0.119
34.790,0.104
34.795,0.076
34.800,0.078
34.805,0.078
34.810,0.058
34.815,0.035
34.820,0.024
34.825,0.048
34.830,0.068
34.835,0.046
34.840,0.035
34.845,0.032
34.850,0.008
34.855,-0.014
34.860,-0.028
34.865,-0.035
34.870,-0.047
34.875,-0.065
34.880,-0.073
34.885,-0.076
34.890,-0.075
34.895,-0.082
34.900,-0.092
34.905,-0.102
34.910,-0.112
34.915,-0.112
34.920,-0.110
34.925,-0.103
34.930,-0.094
34.935,-0.066
34.940,-0.025
34.945,-0.009
34.950,0.016
34.955,0.067
34.960,0.092
34.965,0.102
34.970,0.120
34.975,0.124
34.980,0.132
34.985,0.151
34.990,0.160
34.995,0.160
35.000,0.170
35.005,0.166
35.010,0.151
35.015,0.152
35.020,0.151
35.025,0.132
35.030,0.103
35.035,0.090
35.040,0.090
35.045,0.120
35.050,0.125
35.055,0.092
35.060,0.104
35.065,0.124
35.070,0.107
35.075,0.071
35.080,0.048
35.085,0.044
35.090,0.050
35.095,0.037
35.100,0.027
35.105,0.057
35.110,0.065
35.115,0.055
35.120,0.058
35.125,0.046
35.130,0.021
35.135,0.002
35.140,0.001
35.145,0.009
35.150,-0.004
35.155,-0.023
35.160,-0.025
35.165,-0.016
35.170,0.006
35.175,0.007
35.180,-0.008
35.185,-0.025
35.190,-0.043
35.195,-0.044
35.200,-0.050
35.205,-0.057
35.210,-0.052
35.215,-0.055
35.220,-0.060
35.225,-0.060
35.230,-0.067
35.235,-0.086
35.240,-0.101
35.245,-0.112
35.250,-0.122
35.255,-0.146
35.260,-0.154
35.265,-0.126
35.270,-0.118
35.275,-0.122
35.280,-0.125
35.285,-0.131
35.290,-0.107
35.295,-0.102
35.300,-0.120
35.305,-0.092
35.310,-0.036
35.315,0.014
35.320,0.041
35.325,0.044
35.330,0.053
35.335,0.068
35.340,0.068
35.345,0.063
35.350,0.069
35.355,0.071
35.360,0.063
35.365,0.060
35.370,0.058
35.375,0.072
35.380,0.063
35.385,-0.043
35.390,-0.253
35.395,-0.551
35.400,-0.847
35.405,-0.997
35.410,-0.986
35.415,-0.778
35.420,-0.367
35.425,-0.012
35.430,0.160
35.435,0.213
35.440,0.180
35.445,0.203
35.450,0.284
35.455,0.292
35.460,0.283
35.465,0.276
35.470,0.222
35.475,0.190
35.480,0.183
35.485,0.162
35.490,0.157
35.495,0.153
35.500,0.127
35.505,0.118
35.510,0.130
35.515,0.130
35.520,0.113
35.525,0.093
35.530,0.084
35.535,0.081
35.540,0.074
35.545,0.058
35.550,0.056
35.555,0.057
35.560,0.038
35.565,0.014
35.570,0.000
35.575,0.008
35.580,0.012
35.585,-0.009
35.590,-0.028
35.595,-0.036
35.600,-0.050
35.605,-0.068
35.610,-0.091
35.615,-0.109
35.620,-0.121
35.625,-0.135
35.630,-0.142
35.635,-0.143
35.640,-0.148
35.645,-0.152
35.650,-0.159
35.655,-0.163
35.660,-0.152
35.665,-0.139
35.670,-0.120
35.675,-0.085
35.680,-0.048
35.685,-0.006
35.690,0.039
35.695,0.068
35.700,0.096
35.705,0.128
35.710,0.155
35.715,0.173
35.720,0.178
35.725,0.178
35.730,0.179
35.735,0.184
35.740,0.188
35.745,0.185
35.750,0.178
35.755,0.163
35.760,0.151
35.765,0.147
35.770,0.138
35.775,0.131
35.780,0.126
35.785,0.120
35.790,0.112
35.795,0.097
35.800,0.092
35.805,0.098
35.810,0.093
35.815,0.079
35.820,0.078
35.825,0.084
35.830,0.071
35.835,0.048
35.840,0.043
35.845,0.048
35.850,0.048
35.855,0.038
35.860,0.027
35.865,0.031
35.870,0.030
35.875,0.020
35.880,0.016
35.885,0.013
35.890,0.008
35.895,0.004
35.900,-0.001
35.905,-0.003
35.910,0.002
35.915,0.008
35.920,0.003
35.925,-0.010
35.930,-0.016
35.935,-0.010
35.940,-0.009
35.945,-0.026
35.950,-0.059
35.955,-0.089
35.960,-0.093
35.965,-0.085
35.970,-0.084
35.975,-0.117
35.980,-0.144
35.985,-0.130
35.990,-0.112
35.995,-0.104
36.000,-0.110
36.005,-0.115
36.010,-0.111
36.015,-0.098
36.020,-0.083
36.025,-0.080
36.030,-0.067
36.035,-0.054
36.040,-0.039
36.045,-0.005
36.050,0.028
36.055,0.050
36.060,0.057
36.065,0.044
36.070,0.027
36.075,0.045
36.080,0.087
36.085,0.099
36.090,0.088
36.095,0.068
36.100,0.056
36.105,0.079
36.110,0.105
36.115,0.055
36.120,-0.119
36.125,-0.383
36.130,-0.681
36.135,-0.900
36.140,-0.955
36.145,-0.877
36.150,-0.580
36.155,-0.164
36.160,0.079
36.165,0.183
36.170,0.194
36.175,0.215
36.180,0.316
36.185,0.333
36.190,0.301
36.195,0.289
36.200,0.261
36.205,0.220
36.210,0.188
36.215,0.172
36.220,0.161
36.225,0.156
36.230,0.148
36.235,0.134
36.240,0.124
36.245,0.106
36.250,0.085
36.255,0.081
36.260,0.083
36.265,0.075
36.270,0.067
36.275,0.058
36.280,0.042
36.285,0.030
36.290,0.023
36.295,0.012
36.300,0.000
36.305,-0.011
36.310,-0.024
36.315,-0.034
36.320,-0.044
36.325,-0.053
36.330,-0.061
36.335,-0.072
36.340,-0.087
36.345,-0.104
36.350,-0.125
36.355,-0.141
36.360,-0.153
36.365,-0.166
36.370,-0.171
36.375,-0.177
36.380,-0.186
36.385,-0.181
36.390,-0.170
36.395,-0.154
36.400,-0.131
36.405,-0.104
36.410,-0.072
36.415,-0.036
36.420,0.000
36.425,0.036
36.430,0.064
36.435,0.087
36.440,0.106
36.445,0.121
36.450,0.135
36.455,0.147
36.460,0.159
36.465,0.168
36.470,0.169
36.475,0.167
36.480,0.161
36.485,0.156
36.490,0.151
36.495,0.141
36.500,0.132
36.505,0.123
36.510,0.112
36.515,0.101
36.520,0.085
36.525,0.071
36.530,0.061
36.535,0.049
36.540,0.036
36.545,0.009
36.550,-0.017
36.555,-0.001
36.560,0.040
36.565,0.087
36.570,0.118
36.575,0.128
36.580,0.128
36.585,0.115
36.590,0.097
36.595,0.079
36.600,0.060
36.605,0.043
36.610,0.021
36.615,0.002
36.620,-0.017
36.625,-0.032
36.630,-0.039
36.635,-0.048
36.640,-0.044
36.645,-0.013
36.650,0.019
36.655,0.030
36.660,0.025
36.665,0.024
36.670,0.023
36.675,-0.003
36.680,-0.033
36.685,-0.060
36.690,-0.097
36.695,-0.103
36.700,-0.076
36.705,-0.066
36.710,-0.088
36.715,-0.135
36.720,-0.161
36.725,-0.137
36.730,-0.124
36.735,-0.125
36.740,-0.113
36.745,-0.092
36.750,-0.073
36.755,-0.062
36.760,-0.055
36.765,-0.042
36.770,-0.014
36.775,0.020
36.780,0.053
36.785,0.068
36.790,0.061
36.795,0.048
36.800,0.047
36.805,0.051
36.810,0.050
36.815,0.048
36.820,0.048
36.825,0.067
36.830,0.094
36.835,0.093
36.840,0.010
36.845,-0.186
36.850,-0.457
36.855,-0.728
36.860,-0.904
36.865,-0.926
36.870,-0.774
36.875,-0.407
36.880,-0.015
36.885,0.169
36.890,0.222
36.895,0.194
36.900,0.183
36.905,0.255
36.910,0.283
36.915,0.285
36.920,0.289
36.925,0.243
36.930,0.201
36.935,0.189
36.940,0.171
36.945,0.158
36.950,0.159
36.955,0.149
36.960,0.134
36.965,0.128
36.970,0.118
36.975,0.104
36.980,0.101
36.985,0.096
36.990,0.081
36.995,0.072
37.000,0.066
37.005,0.060
37.010,0.051
37.015,0.038
37.020,0.027
37.025,0.014
37.030,0.005
37.035,-0.001
37.040,-0.012
37.045,-0.024
37.050,-0.038
37.055,-0.055
37.060,-0.070
37.065,-0.087
37.070,-0.102
37.075,-0.112
37.080,-0.124
37.085,-0.137
37.090,-0.144
37.095,-0.151
37.100,-0.159
37.105,-0.165
37.110,-0.167
37.115,-0.161
37.120,-0.151
37.125,-0.133
37.130,-0.107
37.135,-0.076
37.140,-0.044
37.145,-0.017
37.150,0.017
37.155,0.064
37.160,0.106
37.165,0.136
37.170,0.153
37.175,0.162
37.180,0.167
37.185,0.167
37.190,0.162
37.195,0.156
37.200,0.155
37.205,0.152
37.210,0.142
37.215,0.134
37.220,0.132
37.225,0.132
37.230,0.132
37.235,0.128
37.240,0.124
37.245,0.120
37.250,0.110
37.255,0.099
37.260,0.087
37.265,0.075
37.270,0.063
37.275,0.055
37.280,0.050
37.285,0.044
37.290,0.040
37.295,0.034
37.300,0.024
37.305,0.013
37.310,0.005
37.315,0.013
37.320,0.022
37.325,0.024
37.330,0.022
37.335,0.014
37.340,0.009
37.345,0.005
37.350,-0.004
37.355,-0.015
37.360,-0.018
37.365,-0.014
37.370,-0.013
37.375,-0.011
37.380,-0.007
37.385,-0.003
37.390,-0.003
37.395,-0.012
37.400,-0.033
37.405,-0.053
37.410,-0.066
37.415,-0.076
37.420,-0.082
37.425,-0.079
37.430,-0.082
37.435,-0.101
37.440,-0.134
37.445,-0.158
37.450,-0.151
37.455,-0.124
37.460,-0.105
37.465,-0.098
37.470,-0.092
37.475,-0.076
37.480,-0.058
37.485,-0.050
37.490,-0.048
37.495,-0.031
37.500,0.004
37.505,0.039
37.510,0.055
37.515,0.056
37.520,0.043
37.525,0.027
37.530,0.025
37.535,0.036
37.540,0.057
37.545,0.069
37.550,0.072
37.555,0.090
37.560,0.118
37.565,0.106
37.570,-0.008
37.575,-0.230
37.580,-0.519
37.585,-0.799
37.590,-0.952
37.595,-0.939
37.600,-0.741
37.605,-0.335
37.610,0.031
37.615,0.191
37.620,0.232
37.625,0.203
37.630,0.243
37.635,0.307
37.640,0.278
37.645,0.283
37.650,0.300
37.655,0.255
37.660,0.213
37.665,0.182
37.670,0.154
37.675,0.139
37.680,0.127
37.685,0.129
37.690,0.148
37.695,0.142
37.700,0.114
37.705,0.095
37.710,0.080
37.715,0.064
37.720,0.049
37.725,0.039
37.730,0.032
37.735,0.025
37.740,0.022
37.745,0.025
37.750,0.027
37.755,0.021
37.760,0.005
37.765,-0.013
37.770,-0.027
37.775,-0.041
37.780,-0.053
37.785,-0.062
37.790,-0.079
37.795,-0.103
37.800,-0.121
37.805,-0.138
37.810,-0.159
37.815,-0.172
37.820,-0.173
37.825,-0.169
37.830,-0.170
37.835,-0.177
37.840,-0.169
37.845,-0.150
37.850,-0.138
37.855,-0.127
37.860,-0.101
37.865,-0.058
37.870,-0.019
37.875,0.012
37.880,0.038
37.885,0.057
37.890,0.081
37.895,0.121
37.900,0.166
37.905,0.188
37.910,0.187
37.915,0.178
37.920,0.169
37.925,0.169
37.930,0.172
37.935,0.172
37.940,0.168
37.945,0.164
37.950,0.163
37.955,0.157
37.960,0.130
37.965,0.095
37.970,0.084
37.975,0.094
37.980,0.093
37.985,0.093
37.990,0.096
37.995,0.092
38.000,0.091
38.005,0.078
38.010,0.058
38.015,0.050
38.020,0.044
38.025,0.037
38.030,0.033
38.035,0.023
38.040,0.020
38.045,0.028
38.050,0.035
38.055,0.039
38.060,0.038
38.065,0.030
38.070,0.020
38.075,0.004
38.080,-0.017
38.085,-0.021
38.090,-0.009
38.095,-0.011
38.100,-0.008
38.105,0.003
38.110,-0.004
38.115,-0.026
38.120,-0.057
38.125,-0.082
38.130,-0.082
38.135,-0.077
38.140,-0.088
38.145,-0.101
38.150,-0.113
38.155,-0.138
38.160,-0.162
38.165,-0.162
38.170,-0.143
38.175,-0.109
38.180,-0.084
38.185,-0.065
38.190,-0.041
38.195,-0.036
38.200,-0.045
38.205,-0.036
38.210,0.006
38.215,0.040
38.220,0.034
38.225,0.024
38.230,0.038
38.235,0.067
38.240,0.082
38.245,0.068
38.250,0.061
38.255,0.065
38.260,0.066
38.265,0.076
38.270,0.097
38.275,0.086
38.280,-0.035
38.285,-0.261
38.290,-0.522
38.295,-0.762
38.300,-0.899
38.305,-0.885
38.310,-0.675
38.315,-0.280
38.320,0.060
38.325,0.194
38.330,0.214
38.335,0.163
38.340,0.144
38.345,0.209
38.350,0.264
38.355,0.305
38.360,0.306
38.365,0.247
38.370,0.204
38.375,0.184
38.380,0.162
38.385,0.154
38.390,0.158
38.395,0.141
38.400,0.098
38.405,0.079
38.410,0.099
38.415,0.114
38.420,0.115
38.425,0.114
38.430,0.088
38.435,0.057
38.440,0.035
38.445,0.022
38.450,0.036
38.455,0.045
38.460,0.025
38.465,0.005
38.470,-0.001
38.475,-0.003
38.480,-0.015
38.485,-0.050
38.490,-0.089
38.495,-0.095
38.500,-0.079
38.505,-0.074
38.510,-0.084
38.515,-0.102
38.520,-0.109
38.525,-0.108
38.530,-0.123
38.535,-0.147
38.540,-0.176
38.545,-0.182
38.550,-0.165
38.555,-0.157
38.560,-0.149
38.565,-0.115
38.570,-0.073
38.575,-0.037
38.580,-0.001
38.585,0.034
38.590,0.066
38.595,0.088
38.600,0.100
38.605,0.103
38.610,0.093
38.615,0.092
38.620,0.125
38.625,0.172
38.630,0.175
38.635,0.144
38.640,0.151
38.645,0.165
38.650,0.141
38.655,0.109
38.660,0.086
38.665,0.095
38.670,0.114
38.675,0.120
38.680,0.117
38.685,0.102
38.690,0.093
38.695,0.090
38.700,0.088
38.705,0.076
38.710,0.046
38.715,0.016
38.720,-0.002
38.725,-0.005
38.730,0.026
38.735,0.074
38.740,0.078
38.745,0.049
38.750,0.031
38.755,0.017
38.760,0.016
38.765,0.011
38.770,-0.007
38.775,-0.005
38.780,0.008
38.785,-0.005
38.790,-0.028
38.795,-0.027
38.800,-0.003
38.805,0.030
38.810,0.033
38.815,0.003
38.820,-0.016
38.825,-0.030
38.830,-0.062
38.835,-0.096
38.840,-0.122
38.845,-0.115
38.850,-0.076
38.855,-0.058
38.860,-0.075
38.865,-0.107
38.870,-0.126
38.875,-0.115
38.880,-0.107
38.885,-0.121
38.890,-0.119
38.895,-0.104
38.900,-0.089
38.905,-0.073
38.910,-0.064
38.915,-0.053
38.920,-0.039
38.925,-0.013
38.930,0.028
38.935,0.060
38.940,0.075
38.945,0.075
38.950,0.069
38.955,0.054
38.960,0.032
38.965,0.021
38.970,0.034
38.975,0.049
38.980,0.065
38.985,0.089
38.990,0.079
38.995,-0.037
39.000,-0.271
39.005,-0.549
39.010,-0.794
39.015,-0.934
39.020,-0.916
39.025,-0.693
39.030,-0.268
39.035,0.101
39.040,0.244
39.045,0.258
39.050,0.199
39.055,0.178
39.060,0.245
39.065,0.293
39.070,0.310
39.075,0.295
39.080,0.236
39.085,0.188
39.090,0.164
39.095,0.140
39.100,0.139
39.105,0.157
39.110,0.143
39.115,0.117
39.120,0.108
39.125,0.092
39.130,0.087
39.135,0.100
39.140,0.093
39.145,0.064
39.150,0.046
39.155,0.047
39.160,0.051
39.165,0.050
39.170,0.044
39.175,0.031
39.180,0.018
39.185,0.009
39.190,-0.003
39.195,-0.024
39.200,-0.044
39.205,-0.056
39.210,-0.073
39.215,-0.090
39.220,-0.095
39.225,-0.098
39.230,-0.108
39.235,-0.126
39.240,-0.145
39.245,-0.156
39.250,-0.161
39.255,-0.175
39.260,-0.181
39.265,-0.158
39.270,-0.130
39.275,-0.106
39.280,-0.082
39.285,-0.051
39.290,-0.010
39.295,0.019
39.300,0.038
39.305,0.061
39.310,0.085
39.315,0.103
39.320,0.115
39.325,0.129
39.330,0.148
39.335,0.162
39.340,0.169
39.345,0.165
39.350,0.164
39.355,0.172
39.360,0.169
39.365,0.155
39.370,0.136
39.375,0.127
39.380,0.128
39.385,0.120
39.390,0.107
39.395,0.089
39.400,0.074
39.405,0.070
39.410,0.073
39.415,0.074
39.420,0.072
39.425,0.072
39.430,0.069
39.435,0.063
39.440,0.061
39.445,0.060
39.450,0.055
39.455,0.044
39.460,0.028
39.465,0.018
39.470,0.012
39.475,0.005
39.480,0.000
39.485,-0.006
39.490,-0.009
39.495,-0.005
39.500,0.002
39.505,0.004
39.510,-0.002
39.515,-0.007
39.520,-0.005
39.525,-0.001
39.530,0.002
39.535,-0.004
39.540,-0.013
39.545,-0.020
39.550,-0.024
39.555,-0.027
39.560,-0.039
39.565,-0.056
39.570,-0.073
39.575,-0.084
39.580,-0.088
39.585,-0.090
39.590,-0.103
39.595,-0.125
39.600,-0.140
39.605,-0.137
39.610,-0.123
39.615,-0.111
39.620,-0.108
39.625,-0.106
39.630,-0.087
39.635,-0.066
39.640,-0.052
39.645,-0.043
39.650,-0.038
39.655,-0.016
39.660,0.021
39.665,0.048
39.670,0.055
39.675,0.055
39.680,0.059
39.685,0.068
39.690,0.075
39.695,0.073
39.700,0.067
39.705,0.061
39.710,0.065
39.715,0.088
39.720,0.095
39.725,0.024
39.730,-0.162
39.735,-0.438
39.740,-0.732
39.745,-0.940
39.750,-0.989
39.755,-0.868
39.760,-0.518
39.765,-0.085
39.770,0.175
39.775,0.274
39.780,0.253
39.785,0.257
39.790,0.342
39.795,0.351
39.800,0.320
39.805,0.289
39.810,0.229
39.815,0.184
39.820,0.167
39.825,0.160
39.830,0.160
39.835,0.157
39.840,0.144
39.845,0.131
39.850,0.124
39.855,0.113
39.860,0.098
39.865,0.090
39.870,0.081
39.875,0.072
39.880,0.066
39.885,0.059
39.890,0.048
39.895,0.039
39.900,0.032
39.905,0.021
39.910,0.009
39.915,-0.004
39.920,-0.019
39.925,-0.033
39.930,-0.048
39.935,-0.063
39.940,-0.076
39.945,-0.090
39.950,-0.098
39.955,-0.104
39.960,-0.116
39.965,-0.130
39.970,-0.147
39.975,-0.161
39.980,-0.172
39.985,-0.177
39.990,-0.174
39.995,-0.168
40.000,-0.161
40.005,-0.149
40.010,-0.126
40.015,-0.094
40.020,-0.055
40.025,-0.013
40.030,0.024
40.035,0.057
40.040,0.089
40.045,0.119
40.050,0.142
40.055,0.158
40.060,0.168
40.065,0.179
40.070,0.185
40.075,0.186
40.080,0.183
40.085,0.176
40.090,0.168
40.095,0.158
40.100,0.151
40.105,0.146
40.110,0.138
40.115,0.129
40.120,0.120
40.125,0.115
40.130,0.109
40.135,0.102
40.140,0.097
40.145,0.092
40.150,0.087
40.155,0.081
40.160,0.073
40.165,0.065
40.170,0.055
40.175,0.046
40.180,0.044
40.185,0.043
40.190,0.039
40.195,0.032
40.200,0.025
40.205,0.018
40.210,0.014
40.215,0.009
40.220,0.002
40.225,-0.001
40.230,-0.002
40.235,-0.002
40.240,-0.004
40.245,-0.010
40.250,-0.012
40.255,-0.009
40.260,-0.008
40.265,-0.009
40.270,-0.009
40.275,-0.011
40.280,-0.016
40.285,-0.023
40.290,-0.025
40.295,-0.024
40.300,-0.024
40.305,-0.030
40.310,-0.050
40.315,-0.073
40.320,-0.091
40.325,-0.103
40.330,-0.100
40.335,-0.091
40.340,-0.096
40.345,-0.120
40.350,-0.144
40.355,-0.149
40.360,-0.134
40.365,-0.117
40.370,-0.112
40.375,-0.106
40.380,-0.088
40.385,-0.069
40.390,-0.062
40.395,-0.056
40.400,-0.046
40.405,-0.022
40.410,0.019
40.415,0.055
40.420,0.071
40.425,0.074
40.430,0.067
40.435,0.063
40.440,0.064
40.445,0.058
40.450,0.051
40.455,0.046
40.460,0.047
40.465,0.067
40.470,0.091
40.475,0.065
40.480,-0.068
40.485,-0.314
40.490,-0.618
40.495,-0.877
40.500,-0.989
40.505,-0.933
40.510,-0.647
40.515,-0.210
40.520,0.109
40.525,0.255
40.530,0.265
40.535,0.267
40.540,0.353
40.545,0.371
40.550,0.320
40.555,0.279
40.560,0.230
40.565,0.190
40.570,0.169
40.575,0.157
40.580,0.152
40.585,0.142
40.590,0.128
40.595,0.120
40.600,0.115
40.605,0.101
40.610,0.089
40.615,0.086
40.620,0.078
40.625,0.063
40.630,0.051
40.635,0.043
40.640,0.037
40.645,0.033
40.650,0.028
40.655,0.020
40.660,0.009
40.665,-0.002
40.670,-0.014
40.675,-0.025
40.680,-0.036
40.685,-0.049
40.690,-0.065
40.695,-0.086
40.700,-0.104
40.705,-0.119
40.710,-0.135
40.715,-0.150
40.720,-0.164
40.725,-0.175
40.730,-0.185
40.735,-0.188
40.740,-0.181
40.745,-0.173
40.750,-0.161
40.755,-0.145
40.760,-0.124
40.765,-0.090
40.770,-0.056
40.775,-0.028
40.780,0.006
40.785,0.040
40.790,0.070
40.795,0.094
40.800,0.116
40.805,0.144
40.810,0.177
40.815,0.199
40.820,0.207
40.825,0.208
40.830,0.204
40.835,0.196
40.840,0.184
40.845,0.172
40.850,0.161
40.855,0.154
40.860,0.146
40.865,0.135
40.870,0.127
40.875,0.125
40.880,0.121
40.885,0.116
40.890,0.114
40.895,0.109
40.900,0.100
40.905,0.087
40.910,0.070
40.915,0.060
40.920,0.053
40.925,0.042
40.930,0.033
40.935,0.034
40.940,0.040
40.945,0.042
40.950,0.038
40.955,0.035
40.960,0.029
40.965,0.021
40.970,0.011
40.975,0.009
40.980,0.010
40.985,0.004
40.990,-0.005
40.995,-0.011
41.000,-0.012
41.005,-0.011
41.010,-0.012
41.015,-0.014
41.020,-0.010
41.025,-0.003
41.030,0.001
41.035,-0.005
41.040,-0.018
41.045,-0.026
41.050,-0.027
41.055,-0.028
41.060,-0.036
41.065,-0.041
41.070,-0.030
41.075,-0.016
41.080,-0.012
41.085,-0.024
41.090,-0.051
41.095,-0.081
41.100,-0.100
41.105,-0.108
41.110,-0.102
41.115,-0.101
41.120,-0.117
41.125,-0.135
41.130,-0.150
41.135,-0.151
41.140,-0.137
41.145,-0.128
41.150,-0.131
41.155,-0.127
41.160,-0.102
41.165,-0.071
41.170,-0.055
41.175,-0.056
41.180,-0.049
41.185,-0.012
41.190,0.036
41.195,0.065
41.200,0.075
41.205,0.074
41.210,0.068
41.215,0.070
41.220,0.069
41.225,0.061
41.230,0.052
41.235,0.053
41.240,0.072
41.245,0.106
41.250,0.110
41.255,0.036
41.260,-0.141
41.265,-0.405
41.270,-0.682
41.275,-0.877
41.280,-0.913
41.285,-0.772
41.290,-0.422
41.295,-0.018
41.300,0.189
41.305,0.254
41.310,0.231
41.315,0.200
41.320,0.255
41.325,0.284
41.330,0.288
41.335,0.294
41.340,0.240
41.345,0.183
41.350,0.170
41.355,0.156
41.360,0.142
41.365,0.143
41.370,0.134
41.375,0.124
41.380,0.125
41.385,0.117
41.390,0.097
41.395,0.087
41.400,0.083
41.405,0.069
41.410,0.058
41.415,0.048
41.420,0.034
41.425,0.021
41.430,0.015
41.435,0.015
41.440,0.005
41.445,0.000
41.450,0.004
41.455,0.000
41.460,-0.002
41.465,-0.018
41.470,-0.039
41.475,-0.052
41.480,-0.082
41.485,-0.108
41.490,-0.123
41.495,-0.142
41.500,-0.150
41.505,-0.149
41.510,-0.149
41.515,-0.156
41.520,-0.167
41.525,-0.167
41.530,-0.164
41.535,-0.148
41.540,-0.114
41.545,-0.071
41.550,-0.031
41.555,-0.007
41.560,0.015
41.565,0.044
41.570,0.070
41.575,0.086
41.580,0.099
41.585,0.118
41.590,0.142
41.595,0.158
41.600,0.154
41.605,0.141
41.610,0.145
41.615,0.158
41.620,0.164
41.625,0.162
41.630,0.147
41.635,0.132
41.640,0.132
41.645,0.130
41.650,0.122
41.655,0.110
41.660,0.096
41.665,0.088
41.670,0.086
41.675,0.088
41.680,0.084
41.685,0.076
41.690,0.060
41.695,0.045
41.700,0.050
41.705,0.052
41.710,0.044
41.715,0.037
41.720,0.035
41.725,0.033
41.730,0.031
41.735,0.031
41.740,0.028
41.745,0.020
41.750,0.006
41.755,-0.019
41.760,-0.032
41.765,-0.014
41.770,0.022
41.775,0.037
41.780,0.018
41.785,0.001
41.790,0.003
41.795,0.006
41.800,-0.003
41.805,-0.022
41.810,-0.032
41.815,-0.027
41.820,-0.028
41.825,-0.034
41.830,-0.029
41.835,-0.016
41.840,-0.006
41.845,-0.010
41.850,-0.021
41.855,-0.025
41.860,-0.023
41.865,-0.020
41.870,-0.016
41.875,-0.015
41.880,-0.032
41.885,-0.055
41.890,-0.071
41.895,-0.085
41.900,-0.097
41.905,-0.105
41.910,-0.097
41.915,-0.091
41.920,-0.113
41.925,-0.147
41.930,-0.161
41.935,-0.152
41.940,-0.132
41.945,-0.115
41.950,-0.109
41.955,-0.103
41.960,-0.090
41.965,-0.081
41.970,-0.070
41.975,-0.050
41.980,-0.020
41.985,0.018
41.990,0.045
41.995,0.052
42.000,0.048
42.005,0.043
42.010,0.044
42.015,0.052
42.020,0.058
42.025,0.058
42.030,0.059
42.035,0.065
42.040,0.090
42.045,0.115
42.050,0.084
42.055,-0.056
42.060,-0.298
42.065,-0.576
42.070,-0.808
42.075,-0.908
42.080,-0.855
42.085,-0.609
42.090,-0.209
42.095,0.087
42.100,0.207
42.105,0.229
42.110,0.189
42.115,0.202
42.120,0.261
42.125,0.286
42.130,0.305
42.135,0.291
42.140,0.236
42.145,0.206
42.150,0.189
42.155,0.162
42.160,0.156
42.165,0.157
42.170,0.143
42.175,0.132
42.180,0.122
42.185,0.101
42.190,0.087
42.195,0.084
42.200,0.076
42.205,0.063
42.210,0.061
42.215,0.068
42.220,0.064
42.225,0.057
42.230,0.053
42.235,0.044
42.240,0.031
42.245,0.014
42.250,-0.002
42.255,-0.016
42.260,-0.030
42.265,-0.039
42.270,-0.051
42.275,-0.066
42.280,-0.084
42.285,-0.101
42.290,-0.112
42.295,-0.122
42.300,-0.135
42.305,-0.143
42.310,-0.146
42.315,-0.149
42.320,-0.154
42.325,-0.150
42.330,-0.136
42.335,-0.116
42.340,-0.095
42.345,-0.071
42.350,-0.039
42.355,-0.002
42.360,0.035
42.365,0.067
42.370,0.092
42.375,0.110
42.380,0.123
42.385,0.136
42.390,0.148
42.395,0.153
42.400,0.157
42.405,0.163
42.410,0.164
42.415,0.155
42.420,0.141
42.425,0.130
42.430,0.122
42.435,0.113
42.440,0.110
42.445,0.113
42.450,0.113
42.455,0.102
42.460,0.088
42.465,0.084
42.470,0.081
42.475,0.076
42.480,0.071
42.485,0.064
42.490,0.061
42.495,0.058
42.500,0.056
42.505,0.053
42.510,0.045
42.515,0.036
42.520,0.028
42.525,0.021
42.530,0.016
42.535,0.013
42.540,0.009
42.545,0.001
42.550,-0.001
42.555,0.003
42.560,0.004
42.565,0.001
42.570,-0.001
42.575,-0.002
42.580,-0.003
42.585,-0.007
42.590,-0.011
42.595,-0.012
42.600,-0.010
42.605,-0.011
42.610,-0.016
42.615,-0.021
42.620,-0.023
42.625,-0.024
42.630,-0.027
42.635,-0.027
42.640,-0.023
42.645,-0.021
42.650,-0.017
42.655,-0.018
42.660,-0.023
42.665,-0.027
42.670,-0.029
42.675,-0.027
42.680,-0.024
42.685,-0.025
42.690,-0.030
42.695,-0.035
42.700,-0.034
42.705,-0.037
42.710,-0.049
42.715,-0.068
42.720,-0.087
42.725,-0.097
42.730,-0.097
42.735,-0.092
42.740,-0.089
42.745,-0.105
42.750,-0.133
42.755,-0.149
42.760,-0.143
42.765,-0.126
42.770,-0.117
42.775,-0.112
42.780,-0.094
42.785,-0.070
42.790,-0.055
42.795,-0.049
42.800,-0.045
42.805,-0.031
42.810,0.005
42.815,0.048
42.820,0.069
42.825,0.072
42.830,0.067
42.835,0.068
42.840,0.073
42.845,0.070
42.850,0.064
42.855,0.064
42.860,0.069
42.865,0.082
42.870,0.109
42.875,0.114
42.880,0.024
42.885,-0.179
42.890,-0.465
42.895,-0.759
42.900,-0.943
42.905,-0.960
42.910,-0.783
42.915,-0.391
42.920,-0.004
42.925,0.197
42.930,0.258
42.935,0.242
42.940,0.291
42.945,0.364
42.950,0.344
42.955,0.308
42.960,0.266
42.965,0.214
42.970,0.185
42.975,0.168
42.980,0.159
42.985,0.154
42.990,0.144
42.995,0.131
43.000,0.123
43.005,0.117
43.010,0.108
43.015,0.104
43.020,0.096
43.025,0.080
43.030,0.067
43.035,0.060
43.040,0.056
43.045,0.051
43.050,0.044
43.055,0.037
43.060,0.029
43.065,0.020
43.070,0.008
43.075,-0.005
43.080,-0.018
43.085,-0.033
43.090,-0.045
43.095,-0.059
43.100,-0.074
43.105,-0.090
43.110,-0.107
43.115,-0.120
43.120,-0.131
43.125,-0.143
43.130,-0.155
43.135,-0.165
43.140,-0.172
43.145,-0.176
43.150,-0.173
43.155,-0.161
43.160,-0.143
43.165,-0.122
43.170,-0.093
43.175,-0.056
43.180,-0.015
43.185,0.026
43.190,0.061
43.195,0.089
43.200,0.116
43.205,0.140
43.210,0.161
43.215,0.177
43.220,0.185
43.225,0.190
43.230,0.194
43.235,0.193
43.240,0.190
43.245,0.182
43.250,0.173
43.255,0.165
43.260,0.159
43.265,0.151
43.270,0.142
43.275,0.136
43.280,0.129
43.285,0.118
43.290,0.106
43.295,0.094
43.300,0.090
43.305,0.087
43.310,0.081
43.315,0.074
43.320,0.067
43.325,0.060
43.330,0.053
43.335,0.047
43.340,0.042
43.345,0.037
43.350,0.033
43.355,0.028
43.360,0.020
43.365,0.011
43.370,0.007
43.375,0.006
43.380,0.001
43.385,-0.006
43.390,-0.012
43.395,-0.014
43.400,-0.013
43.405,-0.014
43.410,-0.016
43.415,-0.015
43.420,-0.019
43.425,-0.022
43.430,-0.022
43.435,-0.020
43.440,-0.018
43.445,-0.017
43.450,-0.013
43.455,-0.011
43.460,-0.012
43.465,-0.017
43.470,-0.021
43.475,-0.022
43.480,-0.027
43.485,-0.035
43.490,-0.037
43.495,-0.033
43.500,-0.028
43.505,-0.030
43.510,-0.033
43.515,-0.033
43.520,-0.031
43.525,-0.029
43.530,-0.029
43.535,-0.031
43.540,-0.032
43.545,-0.041
43.550,-0.046
43.555,-0.041
43.560,-0.041
43.565,-0.053
43.570,-0.071
43.575,-0.086
43.580,-0.089
43.585,-0.085
43.590,-0.079
43.595,-0.081
43.600,-0.102
43.605,-0.137
43.610,-0.160
43.615,-0.158
43.620,-0.142
43.625,-0.123
43.630,-0.113
43.635,-0.101
43.640,-0.080
43.645,-0.069
43.650,-0.062
43.655,-0.054
43.660,-0.045
43.665,-0.013
43.670,0.034
43.675,0.057
43.680,0.058
43.685,0.052
43.690,0.048
43.695,0.057
43.700,0.066
43.705,0.070
43.710,0.074
43.715,0.078
43.720,0.087
43.725,0.107
43.730,0.106
43.735,0.021
43.740,-0.171
43.745,-0.444
43.750,-0.726
43.755,-0.908
43.760,-0.918
43.765,-0.751
43.770,-0.390
43.775,-0.003
43.780,0.203
43.785,0.268
43.790,0.231
43.795,0.227
43.800,0.305
43.805,0.321
43.810,0.305
43.815,0.280
43.820,0.224
43.825,0.188
43.830,0.165
43.835,0.149
43.840,0.152
43.845,0.152
43.850,0.134
43.855,0.121
43.860,0.122
43.865,0.119
43.870,0.107
43.875,0.093
43.880,0.080
43.885,0.073
43.890,0.068
43.895,0.058
43.900,0.052
43.905,0.044
43.910,0.033
43.915,0.024
43.920,0.011
43.925,0.001
43.930,-0.006
43.935,-0.019
43.940,-0.029
43.945,-0.040
43.950,-0.052
43.955,-0.055
43.960,-0.062
43.965,-0.083
43.970,-0.106
43.975,-0.122
43.980,-0.142
43.985,-0.163
43.990,-0.180
43.995,-0.190
44.000,-0.181
44.005,-0.166
44.010,-0.147
44.015,-0.116
44.020,-0.097
44.025,-0.085
44.030,-0.065
44.035,-0.034
44.040,0.004
44.045,0.036
44.050,0.071
44.055,0.109
44.060,0.136
44.065,0.155
44.070,0.162
44.075,0.165
44.080,0.175
44.085,0.186
44.090,0.197
44.095,0.190
44.100,0.168
44.105,0.156
44.110,0.154
44.115,0.160
44.120,0.166
44.125,0.158
44.130,0.145
44.135,0.133
44.140,0.121
44.145,0.116
44.150,0.110
44.155,0.100
44.160,0.098
44.165,0.092
44.170,0.077
44.175,0.079
44.180,0.082
44.185,0.071
44.190,0.060
44.195,0.043
44.200,0.021
44.205,0.005
44.210,0.005
44.215,0.029
44.220,0.044
44.225,0.032
44.230,0.017
44.235,0.013
44.240,0.012
44.245,-0.002
44.250,-0.022
44.255,-0.025
44.260,-0.006
44.265,0.010
44.270,0.004
44.275,-0.016
44.280,-0.025
44.285,-0.010
44.290,-0.001
44.295,-0.014
44.300,-0.024
44.305,-0.031
44.310,-0.030
44.315,-0.023
44.320,-0.023
44.325,-0.017
44.330,-0.019
44.335,-0.024
44.340,-0.018
44.345,-0.027
44.350,-0.045
44.355,-0.049
44.360,-0.044
44.365,-0.035
44.370,-0.026
44.375,-0.033
44.380,-0.045
44.385,-0.036
44.390,-0.034
44.395,-0.036
44.400,-0.038
44.405,-0.060
44.410,-0.075
44.415,-0.081
44.420,-0.091
44.425,-0.095
44.430,-0.096
44.435,-0.106
44.440,-0.118
44.445,-0.133
44.450,-0.146
44.455,-0.147
44.460,-0.147
44.465,-0.143
44.470,-0.137
44.475,-0.120
44.480,-0.087
44.485,-0.063
44.490,-0.050
44.495,-0.046
44.500,-0.032
44.505,0.012
44.510,0.050
44.515,0.054
44.520,0.053
44.525,0.057
44.530,0.055
44.535,0.047
44.540,0.043
44.545,0.058
44.550,0.075
44.555,0.069
44.560,0.072
44.565,0.100
44.570,0.101
44.575,-0.003
44.580,-0.223
44.585,-0.492
44.590,-0.744
44.595,-0.893
44.600,-0.885
44.605,-0.688
44.610,-0.304
44.615,0.034
44.620,0.164
44.625,0.198
44.630,0.178
44.635,0.176
44.640,0.245
44.645,0.281
44.650,0.298
44.655,0.297
44.660,0.237
44.665,0.197
44.670,0.190
44.675,0.167
44.680,0.158
44.685,0.171
44.690,0.162
44.695,0.135
44.700,0.123
44.705,0.124
44.710,0.125
44.715,0.117
44.720,0.102
44.725,0.088
44.730,0.080
44.735,0.071
44.740,0.059
44.745,0.047
44.750,0.029
44.755,0.013
44.760,0.016
44.765,0.022
44.770,0.019
44.775,0.007
44.780,-0.019
44.785,-0.036
44.790,-0.047
44.795,-0.061
44.800,-0.070
44.805,-0.082
44.810,-0.099
44.815,-0.109
44.820,-0.121
44.825,-0.141
44.830,-0.147
44.835,-0.140
44.840,-0.139
44.845,-0.139
44.850,-0.141
44.855,-0.137
44.860,-0.115
44.865,-0.083
44.870,-0.055
44.875,-0.030
44.880,-0.003
44.885,0.035
44.890,0.076
44.895,0.102
44.900,0.124
44.905,0.140
44.910,0.150
44.915,0.161
44.920,0.163
44.925,0.162
44.930,0.162
44.935,0.155
44.940,0.141
44.945,0.129
44.950,0.130
44.955,0.137
44.960,0.142
44.965,0.136
44.970,0.123
44.975,0.114
44.980,0.103
44.985,0.091
44.990,0.085
44.995,0.084
45.000,0.084
45.005,0.076
45.010,0.063
45.015,0.053
45.020,0.047
45.025,0.049
45.030,0.049
45.035,0.042
45.040,0.034
45.045,0.025
45.050,0.028
45.055,0.033
45.060,0.031
45.065,0.024
45.070,0.016
45.075,0.009
45.080,0.006
45.085,0.008
45.090,0.007
45.095,0.003
45.100,-0.001
45.105,-0.003
45.110,-0.003
45.115,-0.012
45.120,-0.021
45.125,-0.019
45.130,-0.021
45.135,-0.030
45.140,-0.032
45.145,-0.022
45.150,-0.008
45.155,-0.003
45.160,-0.010
45.165,-0.022
45.170,-0.028
45.175,-0.028
45.180,-0.031
45.185,-0.033
45.190,-0.031
45.195,-0.027
45.200,-0.021
45.205,-0.025
45.210,-0.034
45.215,-0.038
45.220,-0.039
45.225,-0.040
45.230,-0.036
45.235,-0.028
45.240,-0.025
45.245,-0.033
45.250,-0.047
45.255,-0.063
45.260,-0.080
