'Elapsed time','ECG'
'seconds','mV'
0.000,0.257
0.005,-0.072
0.010,-0.247
0.015,0.874
0.020,0.559
0.025,-0.372
0.030,0.556
0.035,0.744
0.040,-0.086
0.045,0.314
0.050,0.685
0.055,0.198
0.060,0.236
0.065,0.491
0.070,0.352
0.075,0.143
0.080,0.243
0.085,0.273
0.090,-0.036
0.095,-0.003
0.100,0.035
0.105,-0.157
0.110,-0.155
0.115,-0.180
0.120,-0.188
0.125,-0.246
0.130,-0.255
0.135,-0.173
0.140,-0.304
0.145,-0.265
0.150,-0.209
0.155,-0.262
0.160,-0.208
0.165,-0.232
0.170,-0.163
0.175,-0.185
0.180,-0.232
0.185,-0.149
0.190,-0.252
0.195,-0.217
0.200,-0.163
0.205,-0.191
0.210,-0.135
0.215,-0.184
0.220,-0.128
0.225,-0.152
0.230,-0.195
0.235,-0.089
0.240,-0.168
0.245,-0.126
0.250,-0.074
0.255,-0.113
0.260,-0.065
0.265,-0.111
0.270,-0.050
0.275,-0.077
0.280,-0.125
0.285,-0.023
0.290,-0.103
0.295,-0.070
0.300,-0.027
0.305,-0.069
0.310,-0.024
0.315,-0.069
0.320,-0.010
0.325,-0.034
0.330,-0.078
0.335,0.023
0.340,-0.065
0.345,-0.035
0.350,0.007
0.355,-0.035
0.360,0.007
0.365,-0.044
0.370,0.015
0.375,-0.011
0.380,-0.051
0.385,0.059
0.390,-0.024
0.395,0.004
0.400,0.038
0.405,-0.009
0.410,0.034
0.415,-0.016
0.420,0.043
0.425,0.014
0.430,-0.031
0.435,0.078
0.440,-0.003
0.445,0.026
0.450,0.063
0.455,0.018
0.460,0.062
0.465,0.015
0.470,0.083
0.475,0.062
0.480,0.009
0.485,0.102
0.490,0.014
0.495,0.045
0.500,0.083
0.505,0.033
0.510,0.074
0.515,0.029
0.520,0.093
0.525,0.069
0.530,0.020
0.535,0.114
0.540,0.022
0.545,0.045
0.550,0.078
0.555,0.022
0.560,0.049
0.565,-0.005
0.570,0.058
0.575,0.027
0.580,-0.021
0.585,0.086
0.590,0.015
0.595,0.057
0.600,0.092
0.605,0.041
0.610,0.081
0.615,0.032
0.620,0.115
0.625,0.121
0.630,0.092
0.635,0.177
0.640,0.060
0.645,0.069
0.650,0.095
0.655,0.041
0.660,0.064
0.665,-0.009
0.670,0.034
0.675,-0.016
0.680,-0.079
0.685,0.021
0.690,-0.061
0.695,-0.024
0.700,0.021
0.705,-0.022
0.710,0.023
0.715,-0.027
0.720,0.024
0.725,-0.025
0.730,-0.083
0.735,0.056
0.740,0.142
0.745,0.497
0.750,0.852
0.755,0.868
0.760,0.677
0.765,0.312
0.770,0.098
0.775,-0.098
0.780,-0.181
0.785,-0.069
0.790,-0.126
0.795,-0.099
0.800,-0.104
0.805,-0.153
0.810,-0.105
0.815,-0.167
0.820,-0.105
0.825,-0.132
0.830,-0.184
0.835,-0.085
0.840,-0.164
0.845,-0.133
0.850,-0.101
0.855,-0.136
0.860,-0.087
0.865,-0.134
0.870,-0.064
0.875,-0.092
0.880,-0.141
0.885,-0.046
0.890,-0.139
0.895,-0.118
0.900,-0.089
0.905,-0.125
0.910,-0.082
0.915,-0.136
0.920,-0.059
0.925,-0.071
0.930,-0.102
0.935,0.010
0.940,-0.067
0.945,-0.027
0.950,0.021
0.955,-0.008
0.960,0.042
0.965,0.000
0.970,0.070
0.975,0.046
0.980,0.003
0.985,0.106
0.990,0.032
0.995,0.079
1.000,0.125
1.005,0.094
1.010,0.148
1.015,0.110
1.020,0.187
1.025,0.171
1.030,0.143
1.035,0.263
1.040,0.189
1.045,0.216
1.050,0.231
1.055,0.154
1.060,0.152
1.065,0.051
1.070,0.050
1.075,-0.057
1.080,-0.169
1.085,-0.119
1.090,-0.247
1.095,-0.256
1.100,-0.259
1.105,-0.322
1.110,-0.282
1.115,-0.333
1.120,-0.271
1.125,-0.300
1.130,-0.342
1.135,-0.241
1.140,-0.319
1.145,-0.271
1.150,-0.220
1.155,-0.250
1.160,-0.203
1.165,-0.244
1.170,-0.165
1.175,-0.189
1.180,-0.223
1.185,-0.105
1.190,-0.173
1.195,-0.121
1.200,-0.073
1.205,-0.102
1.210,-0.051
1.215,-0.095
1.220,-0.018
1.225,-0.036
1.230,-0.069
1.235,0.042
1.240,-0.037
1.245,-0.003
1.250,0.034
1.255,0.003
1.260,0.051
1.265,0.002
1.270,0.067
1.275,0.035
1.280,-0.006
1.285,0.101
1.290,0.013
1.295,0.044
1.300,0.078
1.305,0.039
1.310,0.082
1.315,0.029
1.320,0.093
1.325,0.064
1.330,0.023
1.335,0.124
1.340,0.034
1.345,0.060
1.350,0.092
1.355,0.056
1.360,0.094
1.365,0.037
1.370,0.106
1.375,0.078
1.380,0.035
1.385,0.132
1.390,0.040
1.395,0.072
1.400,0.107
1.405,0.073
1.410,0.112
1.415,0.055
1.420,0.125
1.425,0.094
1.430,0.053
1.435,0.149
1.440,0.051
1.445,0.076
1.450,0.098
1.455,0.054
1.460,0.093
1.465,0.035
1.470,0.108
1.475,0.085
1.480,0.047
1.485,0.145
1.490,0.046
1.495,0.073
1.500,0.102
1.505,0.061
1.510,0.123
1.515,0.110
1.520,0.192
1.525,0.145
1.530,0.074
1.535,0.150
1.540,0.050
1.545,0.072
1.550,0.085
1.555,0.022
1.560,0.034
1.565,-0.040
1.570,0.018
1.575,-0.014
1.580,-0.057
1.585,0.036
1.590,-0.054
1.595,-0.025
1.600,0.001
1.605,-0.040
1.610,-0.022
1.615,-0.111
1.620,-0.053
1.625,-0.032
1.630,0.109
1.635,0.595
1.640,0.874
1.645,0.870
1.650,0.578
1.655,0.218
1.660,0.011
1.665,-0.161
1.670,-0.156
1.675,-0.196
1.680,-0.155
1.685,-0.037
1.690,-0.176
1.695,-0.145
1.700,-0.110
1.705,-0.169
1.710,-0.119
1.715,-0.152
1.720,-0.085
1.725,-0.114
1.730,-0.142
1.735,-0.046
1.740,-0.143
1.745,-0.110
1.750,-0.077
1.755,-0.116
1.760,-0.078
1.765,-0.126
1.770,-0.052
1.775,-0.081
1.780,-0.118
1.785,-0.017
1.790,-0.098
1.795,-0.057
1.800,-0.027
1.805,-0.058
1.810,-0.012
1.815,-0.058
1.820,0.021
1.825,-0.005
1.830,-0.035
1.835,0.074
1.840,-0.008
1.845,0.033
1.850,0.069
1.855,0.043
1.860,0.097
1.865,0.056
1.870,0.137
1.875,0.120
1.880,0.097
1.885,0.214
1.890,0.141
1.895,0.185
1.900,0.229
1.905,0.208
1.910,0.258
1.915,0.219
1.920,0.302
1.925,0.273
1.930,0.231
1.935,0.322
1.940,0.213
1.945,0.205
1.950,0.172
1.955,0.069
1.960,0.036
1.965,-0.093
1.970,-0.094
1.975,-0.185
1.980,-0.270
1.985,-0.215
1.990,-0.339
1.995,-0.330
2.000,-0.317
2.005,-0.359
2.010,-0.323
2.015,-0.375
2.020,-0.297
2.025,-0.323
2.030,-0.354
2.035,-0.248
2.040,-0.331
2.045,-0.286
2.050,-0.249
2.055,-0.278
2.060,-0.224
2.065,-0.262
2.070,-0.178
2.075,-0.199
2.080,-0.229
2.085,-0.118
2.090,-0.199
2.095,-0.161
2.100,-0.126
2.105,-0.154
2.110,-0.107
2.115,-0.154
2.120,-0.075
2.125,-0.094
2.130,-0.122
2.135,-0.022
2.140,-0.115
2.145,-0.087
2.150,-0.053
2.155,-0.081
2.160,-0.040
2.165,-0.092
2.170,-0.018
2.175,-0.043
2.180,-0.073
2.185,0.026
2.190,-0.061
2.195,-0.029
2.200,-0.005
2.205,-0.036
2.210,0.005
2.215,-0.048
2.220,0.026
2.225,-0.006
2.230,-0.039
2.235,0.066
2.240,-0.020
2.245,0.015
2.250,0.040
2.255,0.009
2.260,0.052
2.265,-0.003
2.270,0.068
2.275,0.037
2.280,0.001
2.285,0.103
2.290,0.017
2.295,0.054
2.300,0.086
2.305,0.053
2.310,0.090
2.315,0.034
2.320,0.103
2.325,0.068
2.330,0.029
2.335,0.128
2.340,0.038
2.345,0.068
2.350,0.091
2.355,0.056
2.360,0.092
2.365,0.034
2.370,0.102
2.375,0.071
2.380,0.038
2.385,0.135
2.390,0.042
2.395,0.071
2.400,0.096
2.405,0.066
2.410,0.105
2.415,0.053
2.420,0.130
2.425,0.096
2.430,0.058
2.435,0.155
2.440,0.062
2.445,0.112
2.450,0.164
2.455,0.133
2.460,0.153
2.465,0.073
2.470,0.127
2.475,0.086
2.480,0.037
2.485,0.119
2.490,0.009
2.495,0.018
2.500,0.026
2.505,-0.020
2.510,0.009
2.515,-0.052
2.520,0.020
2.525,-0.007
2.530,-0.045
2.535,0.046
2.540,-0.045
2.545,-0.026
2.550,-0.025
2.555,-0.066
2.560,0.037
2.565,0.204
2.570,0.690
2.575,0.983
2.580,0.840
2.585,0.630
2.590,0.261
2.595,0.017
2.600,-0.107
2.605,-0.195
2.610,-0.134
2.615,-0.110
2.620,-0.073
2.625,-0.169
2.630,-0.180
2.635,-0.080
2.640,-0.199
2.645,-0.152
2.650,-0.114
2.655,-0.158
2.660,-0.110
2.665,-0.148
2.670,-0.080
2.675,-0.117
2.680,-0.140
2.685,-0.033
2.690,-0.123
2.695,-0.082
2.700,-0.050
2.705,-0.084
2.710,-0.039
2.715,-0.083
2.720,-0.007
2.725,-0.034
2.730,-0.061
2.735,0.040
2.740,-0.049
2.745,-0.009
2.750,0.023
2.755,-0.006
2.760,0.033
2.765,-0.020
2.770,0.058
2.775,0.030
2.780,-0.004
2.785,0.094
2.790,0.009
2.795,0.052
2.800,0.086
2.805,0.064
2.810,0.114
2.815,0.076
2.820,0.169
2.825,0.150
2.830,0.125
2.835,0.237
2.840,0.156
2.845,0.198
2.850,0.235
2.855,0.212
2.860,0.255
2.865,0.201
2.870,0.274
2.875,0.227
2.880,0.163
2.885,0.222
2.890,0.077
2.895,0.039
2.900,-0.015
2.905,-0.116
2.910,-0.136
2.915,-0.245
2.920,-0.217
2.925,-0.283
2.930,-0.342
2.935,-0.264
2.940,-0.366
2.945,-0.333
2.950,-0.302
2.955,-0.325
2.960,-0.280
2.965,-0.332
2.970,-0.254
2.975,-0.282
2.980,-0.305
2.985,-0.193
2.990,-0.276
2.995,-0.236
3.000,-0.200
3.005,-0.218
3.010,-0.169
3.015,-0.215
3.020,-0.129
3.025,-0.154
3.030,-0.180
3.035,-0.076
3.040,-0.161
3.045,-0.118
3.050,-0.087
3.055,-0.111
3.060,-0.065
3.065,-0.112
3.070,-0.028
3.075,-0.057
3.080,-0.086
3.085,0.017
3.090,-0.068
3.095,-0.031
3.100,-0.010
3.105,-0.041
3.110,0.002
3.115,-0.051
3.120,0.026
3.125,-0.010
3.130,-0.048
3.135,0.052
3.140,-0.031
3.145,0.007
3.150,0.031
3.155,0.001
3.160,0.039
3.165,-0.014
3.170,0.061
3.175,0.025
3.180,-0.010
3.185,0.086
3.190,-0.004
3.195,0.032
3.200,0.053
3.205,0.018
3.210,0.052
3.215,-0.003
3.220,0.074
3.225,0.040
3.230,0.005
3.235,0.101
3.240,0.009
3.245,0.040
3.250,0.066
3.255,0.041
3.260,0.076
3.265,0.018
3.270,0.092
3.275,0.049
3.280,0.007
3.285,0.104
3.290,0.012
3.295,0.044
3.300,0.062
3.305,0.028
3.310,0.066
3.315,0.008
3.320,0.077
3.325,0.040
3.330,0.005
3.335,0.100
3.340,0.005
3.345,0.024
3.350,0.046
3.355,0.039
3.360,0.085
3.365,0.031
3.370,0.104
3.375,0.062
3.380,0.034
3.385,0.132
3.390,0.038
3.395,0.087
3.400,0.140
3.405,0.129
3.410,0.161
3.415,0.089
3.420,0.147
3.425,0.095
3.430,0.046
3.435,0.128
3.440,0.017
3.445,0.027
3.450,0.020
3.455,-0.034
3.460,-0.006
3.465,-0.064
3.470,0.016
3.475,-0.014
3.480,-0.048
3.485,0.039
3.490,-0.061
3.495,-0.033
3.500,-0.034
3.505,-0.087
3.510,-0.038
3.515,0.010
3.520,0.385
3.525,0.766
3.530,0.860
3.535,0.768
3.540,0.443
3.545,0.176
3.550,-0.027
3.555,-0.164
3.560,-0.163
3.565,-0.139
3.570,-0.040
3.575,-0.144
3.580,-0.189
3.585,-0.078
3.590,-0.198
3.595,-0.168
3.600,-0.124
3.605,-0.152
3.610,-0.118
3.615,-0.154
3.620,-0.067
3.625,-0.108
3.630,-0.131
3.635,-0.027
3.640,-0.119
3.645,-0.075
3.650,-0.044
3.655,-0.070
3.660,-0.037
3.665,-0.092
3.670,-0.008
3.675,-0.036
3.680,-0.057
3.685,0.045
3.690,-0.045
3.695,-0.003
3.700,0.025
3.705,0.003
3.710,0.043
3.715,-0.008
3.720,0.076
3.725,0.041
3.730,0.014
3.735,0.121
3.740,0.033
3.745,0.066
3.750,0.096
3.755,0.088
3.760,0.139
3.765,0.092
3.770,0.181
3.775,0.160
3.780,0.146
3.785,0.259
3.790,0.183
3.795,0.227
3.800,0.258
3.805,0.243
3.810,0.285
3.815,0.232
3.820,0.306
3.825,0.258
3.830,0.205
3.835,0.254
3.840,0.105
3.845,0.076
3.850,0.021
3.855,-0.082
3.860,-0.119
3.865,-0.232
3.870,-0.200
3.875,-0.274
3.880,-0.330
3.885,-0.253
3.890,-0.358
3.895,-0.334
3.900,-0.320
3.905,-0.339
3.910,-0.295
3.915,-0.345
3.920,-0.257
3.925,-0.283
3.930,-0.307
3.935,-0.199
3.940,-0.277
3.945,-0.233
3.950,-0.202
3.955,-0.215
3.960,-0.172
3.965,-0.216
3.970,-0.128
3.975,-0.160
3.980,-0.178
3.985,-0.075
3.990,-0.160
3.995,-0.114
4.000,-0.088
4.005,-0.111
4.010,-0.075
4.015,-0.126
4.020,-0.034
4.025,-0.064
4.030,-0.089
4.035,0.015
4.040,-0.074
4.045,-0.039
4.050,-0.017
4.055,-0.035
4.060,0.003
4.065,-0.059
4.070,0.018
4.075,-0.015
4.080,-0.043
4.085,0.051
4.090,-0.041
4.095,0.000
4.100,0.024
4.105,0.003
4.110,0.038
4.115,-0.022
4.120,0.058
4.125,0.023
4.130,-0.009
4.135,0.082
4.140,-0.010
4.145,0.031
4.150,0.055
4.155,0.028
4.160,0.054
4.165,-0.006
4.170,0.076
4.175,0.043
4.180,0.015
4.185,0.109
4.190,0.016
4.195,0.048
4.200,0.064
4.205,0.038
4.210,0.068
4.215,0.012
4.220,0.094
4.225,0.054
4.230,0.027
4.235,0.123
4.240,0.031
4.245,0.070
4.250,0.093
4.255,0.078
4.260,0.112
4.265,0.045
4.270,0.122
4.275,0.080
4.280,0.049
4.285,0.172
4.290,0.124
4.295,0.174
4.300,0.167
4.305,0.107
4.310,0.122
4.315,0.063
4.320,0.131
4.325,0.064
4.330,0.007
4.335,0.083
4.340,-0.023
4.345,0.004
4.350,0.016
4.355,-0.016
4.360,0.012
4.365,-0.044
4.370,0.037
4.375,0.001
4.380,-0.032
4.385,0.035
4.390,-0.087
4.395,-0.050
4.400,0.044
4.405,0.277
4.410,0.698
4.415,0.812
4.420,0.769
4.425,0.477
4.430,0.132
4.435,0.026
4.440,-0.170
4.445,-0.183
4.450,-0.109
4.455,-0.090
4.460,-0.075
4.465,-0.146
4.470,-0.065
4.475,-0.118
4.480,-0.145
4.485,-0.037
4.490,-0.131
4.495,-0.096
4.500,-0.070
4.505,-0.088
4.510,-0.052
4.515,-0.100
4.520,-0.019
4.525,-0.061
4.530,-0.082
4.535,0.018
4.540,-0.077
4.545,-0.044
4.550,-0.021
4.555,-0.037
4.560,-0.002
4.565,-0.052
4.570,0.036
4.575,-0.006
4.580,-0.035
4.585,0.064
4.590,-0.017
4.595,0.025
4.600,0.042
4.605,0.027
4.610,0.065
4.615,0.008
4.620,0.091
4.625,0.053
4.630,0.039
4.635,0.150
4.640,0.069
4.645,0.118
4.650,0.147
4.655,0.143
4.660,0.191
4.665,0.143
4.670,0.238
4.675,0.210
4.680,0.194
4.685,0.301
4.690,0.217
4.695,0.257
4.700,0.274
4.705,0.252
4.710,0.269
4.715,0.177
4.720,0.208
4.725,0.099
4.730,-0.009
4.735,0.007
4.740,-0.153
4.745,-0.173
4.750,-0.213
4.755,-0.285
4.760,-0.290
4.765,-0.374
4.770,-0.310
4.775,-0.361
4.780,-0.394
4.785,-0.305
4.790,-0.392
4.795,-0.346
4.800,-0.319
4.805,-0.326
4.810,-0.284
4.815,-0.337
4.820,-0.249
4.825,-0.284
4.830,-0.300
4.835,-0.190
4.840,-0.270
4.845,-0.218
4.850,-0.188
4.855,-0.198
4.860,-0.156
4.865,-0.208
4.870,-0.118
4.875,-0.149
4.880,-0.164
4.885,-0.055
4.890,-0.136
4.895,-0.096
4.900,-0.074
4.905,-0.083
4.910,-0.043
4.915,-0.101
4.920,-0.017
4.925,-0.051
4.930,-0.074
4.935,0.020
4.940,-0.072
4.945,-0.033
4.950,-0.012
4.955,-0.027
4.960,0.006
4.965,-0.054
4.970,0.029
4.975,-0.010
4.980,-0.039
4.985,0.055
4.990,-0.030
4.995,0.009
5.000,0.023
5.005,0.008
5.010,0.044
5.015,-0.012
5.020,0.068
5.025,0.019
5.030,-0.008
5.035,0.086
5.040,-0.006
5.045,0.035
5.050,0.051
5.055,0.030
5.060,0.062
5.065,0.000
5.070,0.080
5.075,0.038
5.080,0.011
5.085,0.106
5.090,0.016
5.095,0.052
5.100,0.065
5.105,0.046
5.110,0.077
5.115,0.015
5.120,0.095
5.125,0.049
5.130,0.018
5.135,0.110
5.140,0.019
5.145,0.051
5.150,0.061
5.155,0.044
5.160,0.073
5.165,0.012
5.170,0.096
5.175,0.057
5.180,0.042
5.185,0.143
5.190,0.051
5.195,0.088
5.200,0.095
5.205,0.087
5.210,0.152
5.215,0.114
5.220,0.189
5.225,0.117
5.230,0.070
5.235,0.152
5.240,0.047
5.245,0.069
5.250,0.067
5.255,0.033
5.260,0.039
5.265,-0.042
5.270,0.034
5.275,-0.010
5.280,-0.036
5.285,0.058
5.290,-0.032
5.295,0.005
5.300,0.018
5.305,-0.013
5.310,-0.010
5.315,-0.081
5.320,0.060
5.325,0.228
5.330,0.556
5.335,0.966
5.340,0.904
5.345,0.665
5.350,0.331
5.355,0.019
5.360,-0.117
5.365,-0.201
5.370,-0.099
5.375,-0.106
5.380,-0.138
5.385,-0.094
5.390,-0.192
5.395,-0.146
5.400,-0.142
5.405,-0.146
5.410,-0.103
5.415,-0.170
5.420,-0.086
5.425,-0.118
5.430,-0.138
5.435,-0.044
5.440,-0.129
5.445,-0.084
5.450,-0.071
5.455,-0.089
5.460,-0.055
5.465,-0.108
5.470,-0.020
5.475,-0.063
5.480,-0.088
5.485,0.008
5.490,-0.076
5.495,-0.032
5.500,-0.016
5.505,-0.024
5.510,0.014
5.515,-0.041
5.520,0.050
5.525,0.013
5.530,-0.007
5.535,0.090
5.540,0.005
5.545,0.046
5.550,0.065
5.555,0.061
5.560,0.101
5.565,0.054
5.570,0.150
5.575,0.117
5.580,0.106
5.585,0.214
5.590,0.138
5.595,0.185
5.600,0.212
5.605,0.216
5.610,0.256
5.615,0.206
5.620,0.298
5.625,0.255
5.630,0.225
5.635,0.297
5.640,0.174
5.645,0.163
5.650,0.110
5.655,0.023
5.660,-0.021
5.665,-0.148
5.670,-0.127
5.675,-0.225
5.680,-0.289
5.685,-0.231
5.690,-0.347
5.695,-0.322
5.700,-0.318
5.705,-0.333
5.710,-0.304
5.715,-0.362
5.720,-0.271
5.725,-0.309
5.730,-0.326
5.735,-0.225
5.740,-0.306
5.745,-0.257
5.750,-0.236
5.755,-0.237
5.760,-0.197
5.765,-0.250
5.770,-0.158
5.775,-0.196
5.780,-0.211
5.785,-0.110
5.790,-0.191
5.795,-0.141
5.800,-0.120
5.805,-0.123
5.810,-0.085
5.815,-0.141
5.820,-0.049
5.825,-0.088
5.830,-0.107
5.835,-0.007
5.840,-0.091
5.845,-0.047
5.850,-0.034
5.855,-0.046
5.860,-0.014
5.865,-0.069
5.870,0.018
5.875,-0.031
5.880,-0.054
5.885,0.041
5.890,-0.042
5.895,0.000
5.900,0.007
5.905,-0.002
5.910,0.030
5.915,-0.030
5.920,0.052
5.925,-0.003
5.930,-0.028
5.935,0.069
5.940,-0.017
5.945,0.022
5.950,0.030
5.955,0.020
5.960,0.052
5.965,-0.003
5.970,0.083
5.975,0.031
5.980,0.008
5.985,0.098
5.990,0.006
5.995,0.047
6.000,0.054
6.005,0.046
6.010,0.076
6.015,0.011
6.020,0.099
6.025,0.051
6.030,0.030
6.035,0.121
6.040,0.025
6.045,0.059
6.050,0.064
6.055,0.055
6.060,0.082
6.065,0.019
6.070,0.103
6.075,0.052
6.080,0.027
6.085,0.114
6.090,0.019
6.095,0.052
6.100,0.055
6.105,0.047
6.110,0.075
6.115,0.014
6.120,0.104
6.125,0.060
6.130,0.042
6.135,0.131
6.140,0.040
6.145,0.079
6.150,0.091
6.155,0.105
6.160,0.160
6.165,0.108
6.170,0.176
6.175,0.096
6.180,0.056
6.185,0.131
6.190,0.030
6.195,0.056
6.200,0.042
6.205,0.011
6.210,0.020
6.215,-0.054
6.220,0.025
6.225,-0.033
6.230,-0.056
6.235,0.040
6.240,-0.051
6.245,-0.018
6.250,-0.016
6.255,-0.035
6.260,-0.027
6.265,-0.086
6.270,0.080
6.275,0.263
6.280,0.585
6.285,0.930
6.290,0.835
6.295,0.626
6.300,0.311
6.305,0.018
6.310,-0.110
6.315,-0.183
6.320,-0.069
6.325,-0.108
6.330,-0.160
6.335,-0.105
6.340,-0.188
6.345,-0.150
6.350,-0.158
6.355,-0.160
6.360,-0.127
6.365,-0.187
6.370,-0.091
6.375,-0.136
6.380,-0.159
6.385,-0.065
6.390,-0.143
6.395,-0.097
6.400,-0.087
6.405,-0.089
6.410,-0.063
6.415,-0.123
6.420,-0.029
6.425,-0.068
6.430,-0.073
6.435,0.021
6.440,-0.067
6.445,-0.025
6.450,-0.017
6.455,-0.018
6.460,0.011
6.465,-0.051
6.470,0.043
6.475,0.002
6.480,-0.010
6.485,0.089
6.490,0.009
6.495,0.057
6.500,0.070
6.505,0.072
6.510,0.105
6.515,0.047
6.520,0.142
6.525,0.104
6.530,0.106
6.535,0.220
6.540,0.147
6.545,0.200
6.550,0.220
6.555,0.232
6.560,0.267
6.565,0.209
6.570,0.300
6.575,0.251
6.580,0.228
6.585,0.298
6.590,0.178
6.595,0.167
6.600,0.104
6.605,0.027
6.610,-0.018
6.615,-0.142
6.620,-0.117
6.625,-0.228
6.630,-0.284
6.635,-0.221
6.640,-0.336
6.645,-0.316
6.650,-0.324
6.655,-0.330
6.660,-0.300
6.665,-0.355
6.670,-0.263
6.675,-0.314
6.680,-0.327
6.685,-0.227
6.690,-0.300
6.695,-0.248
6.700,-0.240
6.705,-0.233
6.710,-0.196
6.715,-0.248
6.720,-0.147
6.725,-0.185
6.730,-0.190
6.735,-0.091
6.740,-0.170
6.745,-0.122
6.750,-0.114
6.755,-0.115
6.760,-0.091
6.765,-0.152
6.770,-0.056
6.775,-0.095
6.780,-0.098
6.785,-0.002
6.790,-0.086
6.795,-0.039
6.800,-0.032
6.805,-0.032
6.810,-0.003
6.815,-0.056
6.820,0.038
6.825,-0.024
6.830,-0.047
6.835,0.041
6.840,-0.043
6.845,0.010
6.850,0.022
6.855,0.019
6.860,0.041
6.865,-0.024
6.870,0.068
6.875,0.017
6.880,-0.005
6.885,0.081
6.890,-0.002
6.895,0.036
6.900,0.034
6.905,0.033
6.910,0.053
6.915,-0.011
6.920,0.084
6.925,0.032
6.930,0.011
6.935,0.096
6.940,0.007
6.945,0.052
6.950,0.055
6.955,0.051
6.960,0.074
6.965,0.011
6.970,0.094
6.975,0.036
6.980,0.027
6.985,0.117
6.990,0.025
6.995,0.062
7.000,0.059
7.005,0.059
7.010,0.081
7.015,0.017
7.020,0.107
7.025,0.051
7.030,0.038
7.035,0.133
7.040,0.049
7.045,0.089
7.050,0.084
7.055,0.078
7.060,0.102
7.065,0.039
7.070,0.136
7.075,0.108
7.080,0.120
7.085,0.212
7.090,0.103
7.095,0.113
7.100,0.096
7.105,0.092
7.110,0.106
7.115,0.019
7.120,0.078
7.125,-0.004
7.130,-0.034
7.135,0.045
7.140,-0.044
7.145,-0.006
7.150,-0.008
7.155,-0.002
7.160,0.022
7.165,-0.042
7.170,0.043
7.175,-0.040
7.180,-0.080
7.185,0.012
7.190,0.001
7.195,0.295
7.200,0.723
7.205,0.961
7.210,0.813
7.215,0.417
7.220,0.190
7.225,-0.059
7.230,-0.163
7.235,-0.127
7.240,-0.166
7.245,-0.061
7.250,-0.081
7.255,-0.111
7.260,-0.086
7.265,-0.159
7.270,-0.077
7.275,-0.121
7.280,-0.130
7.285,-0.044
7.290,-0.121
7.295,-0.072
7.300,-0.078
7.305,-0.067
7.310,-0.033
7.315,-0.101
7.320,-0.015
7.325,-0.063
7.330,-0.067
7.335,0.021
7.340,-0.067
7.345,-0.021
7.350,-0.016
7.355,-0.007
7.360,0.020
7.365,-0.040
7.370,0.051
7.375,-0.006
7.380,-0.014
7.385,0.082
7.390,0.006
7.395,0.054
7.400,0.051
7.405,0.056
7.410,0.084
7.415,0.028
7.420,0.122
7.425,0.067
7.430,0.065
7.435,0.165
7.440,0.091
7.445,0.145
7.450,0.155
7.455,0.178
7.460,0.216
7.465,0.163
7.470,0.268
7.475,0.225
7.480,0.224
7.485,0.318
7.490,0.233
7.495,0.266
7.500,0.247
7.505,0.222
7.510,0.200
7.515,0.078
7.520,0.091
7.525,-0.049
7.530,-0.135
7.535,-0.113
7.540,-0.253
7.545,-0.256
7.550,-0.297
7.555,-0.321
7.560,-0.317
7.565,-0.390
7.570,-0.305
7.575,-0.360
7.580,-0.364
7.585,-0.273
7.590,-0.352
7.595,-0.301
7.600,-0.295
7.605,-0.281
7.610,-0.255
7.615,-0.314
7.620,-0.208
7.625,-0.251
7.630,-0.249
7.635,-0.152
7.640,-0.229
7.645,-0.176
7.650,-0.174
7.655,-0.160
7.660,-0.129
7.665,-0.185
7.670,-0.084
7.675,-0.135
7.680,-0.140
7.685,-0.049
7.690,-0.131
7.695,-0.079
7.700,-0.073
7.705,-0.064
7.710,-0.039
7.715,-0.101
7.720,-0.006
7.725,-0.057
7.730,-0.063
7.735,0.023
7.740,-0.064
7.745,-0.028
7.750,-0.035
7.755,-0.023
7.760,0.005
7.765,-0.054
7.770,0.038
7.775,-0.023
7.780,-0.030
7.785,0.062
7.790,-0.021
7.795,0.017
7.800,0.007
7.805,0.013
7.810,0.040
7.815,-0.021
7.820,0.068
7.825,0.007
7.830,-0.004
7.835,0.077
7.840,-0.010
7.845,0.035
7.850,0.031
7.855,0.036
7.860,0.055
7.865,-0.011
7.870,0.085
7.875,0.029
7.880,0.016
7.885,0.103
7.890,0.019
7.895,0.067
7.900,0.061
7.905,0.062
7.910,0.082
7.915,0.016
7.920,0.106
7.925,0.047
7.930,0.039
7.935,0.126
7.940,0.037
7.945,0.075
7.950,0.074
7.955,0.086
7.960,0.105
7.965,0.037
7.970,0.133
7.975,0.080
7.980,0.074
7.985,0.179
7.990,0.129
7.995,0.184
8.000,0.159
8.005,0.135
8.010,0.133
8.015,0.058
8.020,0.139
8.025,0.061
8.030,0.027
8.035,0.082
8.040,-0.029
8.045,0.002
8.050,-0.013
8.055,-0.011
8.060,0.007
8.065,-0.056
8.070,0.037
8.075,-0.026
8.080,-0.040
8.085,0.025
8.090,-0.087
8.095,-0.046
8.100,0.007
8.105,0.220
8.110,0.602
8.115,0.764
8.120,0.831
8.125,0.603
8.130,0.288
8.135,0.101
8.140,-0.157
8.145,-0.176
8.150,-0.121
8.155,-0.080
8.160,-0.093
8.165,-0.181
8.170,-0.088
8.175,-0.160
8.180,-0.169
8.185,-0.065
8.190,-0.151
8.195,-0.113
8.200,-0.112
8.205,-0.098
8.210,-0.079
8.215,-0.138
8.220,-0.039
8.225,-0.103
8.230,-0.109
8.235,-0.015
8.240,-0.096
8.245,-0.048
8.250,-0.051
8.255,-0.038
8.260,-0.013
8.265,-0.070
8.270,0.029
8.275,-0.029
8.280,-0.033
8.285,0.055
8.290,-0.033
8.295,0.012
8.300,0.012
8.305,0.029
8.310,0.056
8.315,-0.006
8.320,0.091
8.325,0.037
8.330,0.034
8.335,0.129
8.340,0.057
8.345,0.109
8.350,0.112
8.355,0.135
8.360,0.168
8.365,0.118
8.370,0.226
8.375,0.183
8.380,0.193
8.385,0.286
8.390,0.212
8.395,0.262
8.400,0.257
8.405,0.269
8.410,0.277
8.415,0.188
8.420,0.246
8.425,0.131
8.430,0.055
8.435,0.063
8.440,-0.096
8.445,-0.121
8.450,-0.189
8.455,-0.230
8.460,-0.253
8.465,-0.350
8.470,-0.277
8.475,-0.350
8.480,-0.365
8.485,-0.286
8.490,-0.370
8.495,-0.323
8.500,-0.330
8.505,-0.316
8.510,-0.287
8.515,-0.341
8.520,-0.239
8.525,-0.293
8.530,-0.294
8.535,-0.199
8.540,-0.268
8.545,-0.213
8.550,-0.214
8.555,-0.197
8.560,-0.165
8.565,-0.216
8.570,-0.119
8.575,-0.178
8.580,-0.171
8.585,-0.072
8.590,-0.148
8.595,-0.101
8.600,-0.102
8.605,-0.080
8.610,-0.053
8.615,-0.112
8.620,-0.015
8.625,-0.074
8.630,-0.075
8.635,0.016
8.640,-0.064
8.645,-0.020
8.650,-0.032
8.655,-0.019
8.660,0.008
8.665,-0.050
8.670,0.044
8.675,-0.019
8.680,-0.024
8.685,0.064
8.690,-0.013
8.695,0.032
8.700,0.017
8.705,0.027
8.710,0.047
8.715,-0.020
8.720,0.073
8.725,0.007
8.730,-0.001
8.735,0.083
8.740,-0.002
8.745,0.043
8.750,0.032
8.755,0.041
8.760,0.060
8.765,-0.001
8.770,0.094
8.775,0.024
8.780,0.011
8.785,0.094
8.790,0.015
8.795,0.060
8.800,0.047
8.805,0.053
8.810,0.064
8.815,-0.002
8.820,0.096
8.825,0.035
8.830,0.029
8.835,0.111
8.840,0.025
8.845,0.068
8.850,0.053
8.855,0.062
8.860,0.079
8.865,0.011
8.870,0.106
8.875,0.043
8.880,0.037
8.885,0.116
8.890,0.024
8.895,0.064
8.900,0.051
8.905,0.064
8.910,0.081
8.915,0.013
8.920,0.103
8.925,0.036
8.930,0.030
8.935,0.117
8.940,0.038
8.945,0.081
8.950,0.067
8.955,0.081
8.960,0.097
8.965,0.030
8.970,0.133
8.975,0.093
8.980,0.110
8.985,0.186
8.990,0.077
8.995,0.097
9.000,0.070
9.005,0.072
9.010,0.073
9.015,-0.008
9.020,0.061
9.025,-0.034
9.030,-0.058
9.035,0.016
9.040,-0.068
9.045,-0.022
9.050,-0.034
9.055,-0.017
9.060,-0.005
9.065,-0.073
9.070,0.022
9.075,-0.066
9.080,-0.099
9.085,-0.006
9.090,0.022
9.095,0.350
9.100,0.743
9.105,0.972
9.110,0.853
9.115,0.501
9.120,0.261
9.125,-0.068
9.130,-0.181
9.135,-0.115
9.140,-0.152
9.145,-0.091
9.150,-0.167
9.155,-0.187
9.160,-0.154
9.165,-0.219
9.170,-0.124
9.175,-0.174
9.180,-0.179
9.185,-0.105
9.190,-0.171
9.195,-0.113
9.200,-0.132
9.205,-0.112
9.210,-0.086
9.215,-0.144
9.220,-0.038
9.225,-0.094
9.230,-0.095
9.235,-0.017
9.240,-0.099
9.245,-0.053
9.250,-0.066
9.255,-0.041
9.260,-0.017
9.265,-0.077
9.270,0.024
9.275,-0.040
9.280,-0.044
9.285,0.038
9.290,-0.040
9.295,0.012
9.300,0.001
9.305,0.022
9.310,0.046
9.315,-0.002
9.320,0.105
9.325,0.039
9.330,0.040
9.335,0.131
9.340,0.061
9.345,0.107
9.350,0.102
9.355,0.151
9.360,0.190
9.365,0.143
9.370,0.247
9.375,0.186
9.380,0.202
9.385,0.296
9.390,0.220
9.395,0.266
9.400,0.244
9.405,0.243
9.410,0.224
9.415,0.112
9.420,0.144
9.425,0.003
9.430,-0.070
9.435,-0.054
9.440,-0.192
9.445,-0.197
9.450,-0.258
9.455,-0.271
9.460,-0.275
9.465,-0.356
9.470,-0.267
9.475,-0.336
9.480,-0.340
9.485,-0.254
9.490,-0.324
9.495,-0.267
9.500,-0.275
9.505,-0.252
9.510,-0.228
9.515,-0.280
9.520,-0.172
9.525,-0.231
9.530,-0.224
9.535,-0.133
9.540,-0.202
9.545,-0.147
9.550,-0.159
9.555,-0.138
9.560,-0.116
9.565,-0.167
9.570,-0.059
9.575,-0.119
9.580,-0.112
9.585,-0.026
9.590,-0.102
9.595,-0.052
9.600,-0.070
9.605,-0.054
9.610,-0.043
9.615,-0.106
9.620,-0.001
9.625,-0.061
9.630,-0.057
9.635,0.027
9.640,-0.048
9.645,-0.002
9.650,-0.021
9.655,0.000
9.660,0.018
9.665,-0.039
9.670,0.063
9.675,-0.012
9.680,-0.017
9.685,0.064
9.690,-0.017
9.695,0.035
9.700,0.026
9.705,0.047
9.710,0.061
9.715,-0.006
9.720,0.092
9.725,0.027
9.730,0.024
9.735,0.099
9.740,0.020
9.745,0.061
9.750,0.038
9.755,0.063
9.760,0.079
9.765,0.018
9.770,0.115
9.775,0.039
9.780,0.034
9.785,0.107
9.790,0.020
9.795,0.063
9.800,0.046
9.805,0.072
9.810,0.087
9.815,0.022
9.820,0.115
9.825,0.039
9.830,0.038
9.835,0.118
9.840,0.037
9.845,0.074
9.850,0.048
9.855,0.071
9.860,0.088
9.865,0.023
9.870,0.111
9.875,0.033
9.880,0.031
9.885,0.105
9.890,0.027
9.895,0.078
9.900,0.060
9.905,0.084
9.910,0.093
9.915,0.026
9.920,0.124
9.925,0.051
9.930,0.066
9.935,0.182
9.940,0.130
9.945,0.173
9.950,0.130
9.955,0.124
9.960,0.117
9.965,0.045
9.970,0.125
9.975,0.024
9.980,-0.007
9.985,0.048
9.990,-0.046
9.995,-0.011
10.000,-0.036
10.005,-0.018
10.010,-0.007
10.015,-0.072
10.020,0.025
10.025,-0.044
10.030,-0.049
10.035,-0.001
10.040,-0.106
10.045,-0.053
10.050,0.016
10.055,0.316
10.060,0.727
10.065,0.804
10.070,0.733
10.075,0.410
10.080,0.115
10.085,0.003
10.090,-0.175
10.095,-0.173
10.100,-0.128
10.105,-0.076
10.110,-0.104
10.115,-0.176
10.120,-0.072
10.125,-0.159
10.130,-0.155
10.135,-0.065
10.140,-0.150
10.145,-0.112
10.150,-0.123
10.155,-0.094
10.160,-0.086
10.165,-0.144
10.170,-0.039
10.175,-0.110
10.180,-0.102
10.185,-0.015
10.190,-0.089
10.195,-0.041
10.200,-0.061
10.205,-0.039
10.210,-0.028
10.215,-0.082
10.220,0.031
10.225,-0.041
10.230,-0.043
10.235,0.036
10.240,-0.037
10.245,0.019
10.250,0.003
10.255,0.033
10.260,0.050
10.265,-0.014
10.270,0.086
10.275,0.024
10.280,0.041
10.285,0.130
10.290,0.063
10.295,0.125
10.300,0.121
10.305,0.159
10.310,0.184
10.315,0.144
10.320,0.262
10.325,0.198
10.330,0.205
10.335,0.287
10.340,0.229
10.345,0.284
10.350,0.265
10.355,0.289
10.360,0.280
10.365,0.193
10.370,0.246
10.375,0.106
10.380,0.037
10.385,0.040
10.390,-0.105
10.395,-0.126
10.400,-0.215
10.405,-0.241
10.410,-0.269
10.415,-0.360
10.420,-0.278
10.425,-0.363
10.430,-0.365
10.435,-0.295
10.440,-0.373
10.445,-0.318
10.450,-0.333
10.455,-0.298
10.460,-0.278
10.465,-0.330
10.470,-0.217
10.475,-0.279
10.480,-0.268
10.485,-0.183
10.490,-0.251
10.495,-0.196
10.500,-0.208
10.505,-0.168
10.510,-0.148
10.515,-0.200
10.520,-0.092
10.525,-0.157
10.530,-0.146
10.535,-0.065
10.540,-0.132
10.545,-0.075
10.550,-0.087
10.555,-0.053
10.560,-0.042
10.565,-0.098
10.570,0.006
10.575,-0.063
10.580,-0.057
10.585,0.014
10.590,-0.056
10.595,-0.003
10.600,-0.022
10.605,0.010
10.610,0.016
10.615,-0.049
10.620,0.047
10.625,-0.032
10.630,-0.025
10.635,0.056
10.640,-0.017
10.645,0.033
10.650,0.013
10.655,0.041
10.660,0.050
10.665,-0.011
10.670,0.087
10.675,0.011
10.680,0.012
10.685,0.085
10.690,0.015
10.695,0.058
10.700,0.023
10.705,0.047
10.710,0.057
10.715,0.000
10.720,0.104
10.725,0.029
10.730,0.030
10.735,0.102
10.740,0.026
10.745,0.070
10.750,0.043
10.755,0.066
10.760,0.067
10.765,0.009
10.770,0.112
10.775,0.034
10.780,0.034
10.785,0.102
10.790,0.031
10.795,0.080
10.800,0.052
10.805,0.079
10.810,0.083
10.815,0.026
10.820,0.135
10.825,0.062
10.830,0.065
10.835,0.135
10.840,0.059
10.845,0.115
10.850,0.118
10.855,0.179
10.860,0.188
10.865,0.105
10.870,0.180
10.875,0.087
10.880,0.077
10.885,0.132
10.890,0.040
10.895,0.065
10.900,0.016
10.905,0.026
10.910,0.019
10.915,-0.046
10.920,0.055
10.925,-0.020
10.930,-0.014
10.935,0.050
10.940,-0.035
10.945,0.004
10.950,-0.044
10.955,-0.039
10.960,-0.039
10.965,-0.035
10.970,0.299
10.975,0.644
10.980,0.863
10.985,0.800
10.990,0.520
10.995,0.267
11.000,-0.006
11.005,-0.113
11.010,-0.186
11.015,-0.181
11.020,-0.034
11.025,-0.158
11.030,-0.168
11.035,-0.083
11.040,-0.176
11.045,-0.132
11.050,-0.140
11.055,-0.117
11.060,-0.123
11.065,-0.163
11.070,-0.044
11.075,-0.126
11.080,-0.117
11.085,-0.035
11.090,-0.106
11.095,-0.058
11.100,-0.082
11.105,-0.052
11.110,-0.050
11.115,-0.106
11.120,0.004
11.125,-0.067
11.130,-0.057
11.135,0.013
11.140,-0.058
11.145,-0.008
11.150,-0.034
11.155,-0.003
11.160,-0.001
11.165,-0.053
11.170,0.060
11.175,-0.014
11.180,-0.003
11.185,0.073
11.190,0.010
11.195,0.067
11.200,0.048
11.205,0.092
11.210,0.104
11.215,0.057
11.220,0.175
11.225,0.112
11.230,0.137
11.235,0.222
11.240,0.163
11.245,0.221
11.250,0.204
11.255,0.249
11.260,0.258
11.265,0.203
11.270,0.311
11.275,0.229
11.280,0.213
11.285,0.238
11.290,0.111
11.295,0.088
11.300,-0.016
11.305,-0.053
11.310,-0.116
11.315,-0.229
11.320,-0.175
11.325,-0.294
11.330,-0.313
11.335,-0.268
11.340,-0.358
11.345,-0.320
11.350,-0.351
11.355,-0.314
11.360,-0.307
11.365,-0.361
11.370,-0.253
11.375,-0.321
11.380,-0.303
11.385,-0.229
11.390,-0.288
11.395,-0.235
11.400,-0.261
11.405,-0.213
11.410,-0.202
11.415,-0.248
11.420,-0.134
11.425,-0.207
11.430,-0.188
11.435,-0.111
11.440,-0.172
11.445,-0.114
11.450,-0.140
11.455,-0.099
11.460,-0.090
11.465,-0.135
11.470,-0.020
11.475,-0.097
11.480,-0.089
11.485,-0.020
11.490,-0.086
11.495,-0.034
11.500,-0.063
11.505,-0.028
11.510,-0.026
11.515,-0.081
11.520,0.026
11.525,-0.050
11.530,-0.041
11.535,0.030
11.540,-0.028
11.545,0.020
11.550,-0.015
11.555,0.023
11.560,0.026
11.565,-0.028
11.570,0.075
11.575,-0.003
11.580,0.009
11.585,0.072
11.590,0.002
11.595,0.049
11.600,0.016
11.605,0.054
11.610,0.051
11.615,-0.008
11.620,0.101
11.625,0.026
11.630,0.038
11.635,0.099
11.640,0.024
11.645,0.071
11.650,0.039
11.655,0.075
11.660,0.071
11.665,0.009
11.670,0.111
11.675,0.029
11.680,0.037
11.685,0.101
11.690,0.030
11.695,0.074
11.700,0.038
11.705,0.074
11.710,0.070
11.715,0.008
11.720,0.109
11.725,0.030
11.730,0.043
11.735,0.105
11.740,0.033
11.745,0.076
11.750,0.043
11.755,0.082
11.760,0.078
11.765,0.017
11.770,0.117
11.775,0.036
11.780,0.047
11.785,0.108
11.790,0.041
11.795,0.089
11.800,0.053
11.805,0.091
11.810,0.083
11.815,0.021
11.820,0.127
11.825,0.068
11.830,0.109
11.835,0.178
11.840,0.089
11.845,0.114
11.850,0.064
11.855,0.092
11.860,0.075
11.865,0.004
11.870,0.092
11.875,-0.019
11.880,-0.035
11.885,0.013
11.890,-0.059
11.895,-0.015
11.900,-0.053
11.905,-0.014
11.910,-0.022
11.915,-0.082
11.920,0.023
11.925,-0.074
11.930,-0.092
11.935,-0.039
11.940,-0.035
11.945,0.237
11.950,0.613
11.955,0.984
11.960,0.932
11.965,0.588
11.970,0.365
11.975,0.014
11.980,-0.122
11.985,-0.116
11.990,-0.159
11.995,-0.070
12.000,-0.140
12.005,-0.158
12.010,-0.160
12.015,-0.210
12.020,-0.119
12.025,-0.189
12.030,-0.158
12.035,-0.105
12.040,-0.174
12.045,-0.116
12.050,-0.146
12.055,-0.096
12.060,-0.092
12.065,-0.146
12.070,-0.037
12.075,-0.110
12.080,-0.095
12.085,-0.040
12.090,-0.101
12.095,-0.046
12.100,-0.077
12.105,-0.031
12.110,-0.032
12.115,-0.081
12.120,0.030
12.125,-0.041
12.130,-0.022
12.135,0.038
12.140,-0.025
12.145,0.021
12.150,-0.012
12.155,0.038
12.160,0.033
12.165,-0.017
12.170,0.099
12.175,0.029
12.180,0.053
12.185,0.121
12.190,0.071
12.195,0.131
12.200,0.109
12.205,0.168
12.210,0.173
12.215,0.133
12.220,0.251
12.225,0.179
12.230,0.205
12.235,0.274
12.240,0.222
12.245,0.269
12.250,0.227
12.255,0.264
12.260,0.231
12.265,0.135
12.270,0.182
12.275,0.024
12.280,-0.035
12.285,-0.049
12.290,-0.177
12.295,-0.179
12.300,-0.263
12.305,-0.261
12.310,-0.295
12.315,-0.364
12.320,-0.267
12.325,-0.353
12.330,-0.343
12.335,-0.286
12.340,-0.342
12.345,-0.284
12.350,-0.313
12.355,-0.263
12.360,-0.267
12.365,-0.314
12.370,-0.193
12.375,-0.257
12.380,-0.224
12.385,-0.155
12.390,-0.215
12.395,-0.168
12.400,-0.195
12.405,-0.135
12.410,-0.140
12.415,-0.193
12.420,-0.082
12.425,-0.153
12.430,-0.128
12.435,-0.076
12.440,-0.141
12.445,-0.088
12.450,-0.116
12.455,-0.057
12.460,-0.063
12.465,-0.122
12.470,-0.010
12.475,-0.085
12.480,-0.065
12.485,-0.005
12.490,-0.066
12.495,-0.017
12.500,-0.050
12.505,0.000
12.510,-0.006
12.515,-0.054
12.520,0.051
12.525,-0.037
12.530,-0.024
12.535,0.026
12.540,-0.031
12.545,0.026
12.550,-0.008
12.555,0.044
12.560,0.028
12.565,-0.028
12.570,0.080
12.575,-0.010
12.580,0.008
12.585,0.069
12.590,0.014
12.595,0.067
12.600,0.025
12.605,0.070
12.610,0.053
12.615,-0.006
12.620,0.103
12.625,0.017
12.630,0.033
12.635,0.090
12.640,0.033
12.645,0.079
12.650,0.034
12.655,0.087
12.660,0.075
12.665,0.012
12.670,0.112
12.675,0.033
12.680,0.071
12.685,0.127
12.690,0.047
12.695,0.082
12.700,0.043
12.705,0.098
12.710,0.085
12.715,0.033
12.720,0.142
12.725,0.053
12.730,0.061
12.735,0.096
12.740,0.031
12.745,0.080
12.750,0.046
12.755,0.120
12.760,0.112
12.765,0.049
12.770,0.140
12.775,0.042
12.780,0.084
12.785,0.180
12.790,0.149
12.795,0.184
12.800,0.112
12.805,0.142
12.810,0.113
12.815,0.051
12.820,0.129
12.825,0.001
12.830,-0.002
12.835,0.043
12.840,-0.023
12.845,0.009
12.850,-0.042
12.855,0.015
12.860,-0.011
12.865,-0.085
12.870,0.021
12.875,-0.048
12.880,-0.024
12.885,-0.009
12.890,-0.101
12.895,-0.028
12.900,0.048
12.905,0.413
12.910,0.821
12.915,0.870
12.920,0.718
12.925,0.312
12.930,0.041
12.935,-0.047
12.940,-0.169
12.945,-0.168
12.950,-0.143
12.955,-0.034
12.960,-0.072
12.965,-0.131
12.970,-0.018
12.975,-0.124
12.980,-0.100
12.985,-0.023
12.990,-0.084
12.995,-0.049
13.000,-0.077
13.005,-0.019
13.010,-0.031
13.015,-0.058
13.020,0.062
13.025,-0.018
13.030,0.002
13.035,0.041
13.040,-0.019
13.045,0.017
13.050,-0.030
13.055,0.055
13.060,0.061
13.065,-0.007
13.070,0.088
13.075,0.017
13.080,0.065
13.085,0.124
13.090,0.061
13.095,0.104
13.100,0.062
13.105,0.102
13.110,0.064
13.115,0.014
13.120,0.133
13.125,0.044
13.130,0.068
13.135,0.140
13.140,0.096
13.145,0.130
13.150,0.093
13.155,0.164
13.160,0.175
13.165,0.163
13.170,0.273
13.175,0.202
13.180,0.249
13.185,0.296
13.190,0.249
13.195,0.300
13.200,0.255
13.205,0.305
13.210,0.267
13.215,0.193
13.220,0.267
13.225,0.133
13.230,0.084
13.235,0.047
13.240,-0.075
13.245,-0.095
13.250,-0.209
13.255,-0.209
13.260,-0.269
13.265,-0.353
13.270,-0.268
13.275,-0.366
13.280,-0.351
13.285,-0.312
13.290,-0.371
13.295,-0.325
13.300,-0.365
13.305,-0.306
13.310,-0.317
13.315,-0.353
13.320,-0.234
13.325,-0.307
13.330,-0.275
13.335,-0.228
13.340,-0.277
13.345,-0.231
13.350,-0.271
13.355,-0.197
13.360,-0.204
13.365,-0.245
13.370,-0.135
13.375,-0.220
13.380,-0.184
13.385,-0.124
13.390,-0.168
13.395,-0.120
13.400,-0.163
13.405,-0.102
13.410,-0.115
13.415,-0.148
13.420,-0.036
13.425,-0.126
13.430,-0.102
13.435,-0.053
13.440,-0.100
13.445,-0.059
13.450,-0.113
13.455,-0.057
13.460,-0.068
13.465,-0.109
13.470,-0.004
13.475,-0.100
13.480,-0.086
13.485,-0.048
13.490,-0.103
13.495,-0.057
13.500,-0.100
13.505,-0.038
13.510,-0.055
13.515,-0.099
13.520,0.012
13.525,-0.069
13.530,-0.043
13.535,0.003
13.540,-0.044
13.545,-0.005
13.550,-0.054
13.555,0.007
13.560,-0.021
13.565,-0.071
13.570,0.038
13.575,-0.041
13.580,-0.010
13.585,0.028
13.590,-0.022
13.595,0.033
13.600,0.003
13.605,0.077
13.610,0.053
13.615,0.000
13.620,0.107
13.625,0.034
13.630,0.067
13.635,0.111
13.640,0.061
13.645,0.098
13.650,0.058
13.655,0.145
13.660,0.163
13.665,0.138
13.670,0.221
13.675,0.093
13.680,0.094
13.685,0.119
13.690,0.062
13.695,0.096
13.700,0.035
13.705,0.090
13.710,0.049
13.715,-0.012
13.720,0.096
13.725,0.022
13.730,0.066
13.735,0.109
13.740,0.046
13.745,0.083
13.750,0.034
13.755,0.075
13.760,0.032
13.765,0.022
13.770,0.295
13.775,0.578
13.780,0.887
13.785,0.943
13.790,0.794
13.795,0.542
13.800,0.163
13.805,0.007
13.810,-0.121
13.815,-0.106
13.820,0.044
13.825,-0.093
13.830,-0.102
13.835,-0.062
13.840,-0.126
13.845,-0.097
13.850,-0.129
13.855,-0.065
13.860,-0.103
13.865,-0.143
13.870,-0.034
13.875,-0.126
13.880,-0.096
13.885,-0.051
13.890,-0.100
13.895,-0.063
13.900,-0.103
13.905,-0.032
13.910,-0.062
13.915,-0.106
13.920,0.003
13.925,-0.084
13.930,-0.052
13.935,-0.006
13.940,-0.042
13.945,0.008
13.950,-0.034
13.955,0.039
13.960,0.015
13.965,-0.031
13.970,0.070
13.975,-0.018
13.980,0.014
13.985,0.050
13.990,0.004
13.995,0.056
14.000,0.018
14.005,0.091
14.010,0.072
14.015,0.036
14.020,0.148
14.025,0.069
14.030,0.110
14.035,0.166
14.040,0.141
14.045,0.201
14.050,0.162
14.055,0.236
14.060,0.220
14.065,0.191
14.070,0.309
14.075,0.218
14.080,0.225
14.085,0.237
14.090,0.154
14.095,0.134
14.100,0.013
14.105,0.003
14.110,-0.096
14.115,-0.206
14.120,-0.166
14.125,-0.301
14.130,-0.304
14.135,-0.295
14.140,-0.359
14.145,-0.329
14.150,-0.381
14.155,-0.313
14.160,-0.337
14.165,-0.375
14.170,-0.268
14.175,-0.358
14.180,-0.325
14.185,-0.279
14.190,-0.308
14.195,-0.258
14.200,-0.304
14.205,-0.228
14.210,-0.244
14.215,-0.280
14.220,-0.170
14.225,-0.246
14.230,-0.200
14.235,-0.153
14.240,-0.184
14.245,-0.136
14.250,-0.179
14.255,-0.097
14.260,-0.113
14.265,-0.146
14.270,-0.035
14.275,-0.120
14.280,-0.086
14.285,-0.047
14.290,-0.082
14.295,-0.037
14.300,-0.087
14.305,-0.019
14.310,-0.040
14.315,-0.070
14.320,0.042
14.325,-0.045
14.330,-0.013
14.335,0.031
14.340,-0.001
14.345,0.039
14.350,-0.015
14.355,0.049
14.360,0.021
14.365,-0.015
14.370,0.088
14.375,0.000
14.380,0.030
14.385,0.060
14.390,0.023
14.395,0.066
14.400,0.013
14.405,0.081
14.410,0.054
14.415,0.019
14.420,0.126
14.425,0.033
14.430,0.053
14.435,0.080
14.440,0.038
14.445,0.077
14.450,0.027
14.455,0.099
14.460,0.072
14.465,0.031
14.470,0.133
14.475,0.044
14.480,0.069
14.485,0.095
14.490,0.051
14.495,0.090
14.500,0.042
14.505,0.115
14.510,0.087
14.515,0.043
14.520,0.139
14.525,0.044
14.530,0.072
14.535,0.105
14.540,0.065
14.545,0.098
14.550,0.047
14.555,0.123
14.560,0.099
14.565,0.063
14.570,0.161
14.575,0.071
14.580,0.103
14.585,0.129
14.590,0.098
14.595,0.163
14.600,0.132
14.605,0.195
14.610,0.136
14.615,0.074
14.620,0.163
14.625,0.061
14.630,0.073
14.635,0.081
14.640,0.018
14.645,0.032
14.650,-0.040
14.655,0.022
14.660,-0.010
14.665,-0.047
14.670,0.055
14.675,-0.038
14.680,-0.015
14.685,0.016
14.690,-0.026
14.695,-0.011
14.700,-0.083
14.705,0.015
14.710,0.120
14.715,0.400
14.720,0.910
14.725,0.966
14.730,0.772
14.735,0.472
14.740,0.119
14.745,-0.059
14.750,-0.186
14.755,-0.126
14.760,-0.110
14.765,-0.132
14.770,-0.096
14.775,-0.207
14.780,-0.156
14.785,-0.145
14.790,-0.189
14.795,-0.132
14.800,-0.184
14.805,-0.116
14.810,-0.139
14.815,-0.172
14.820,-0.074
14.825,-0.157
14.830,-0.112
14.835,-0.078
14.840,-0.109
14.845,-0.065
14.850,-0.115
14.855,-0.040
14.860,-0.069
14.865,-0.105
14.870,-0.001
14.875,-0.083
14.880,-0.045
14.885,-0.011
14.890,-0.038
14.895,0.006
14.900,-0.042
14.905,0.036
14.910,0.006
14.915,-0.027
14.920,0.077
14.925,-0.009
14.930,0.031
14.935,0.066
14.940,0.038
14.945,0.080
14.950,0.033
14.955,0.123
14.960,0.106
14.965,0.080
14.970,0.192
14.975,0.118
14.980,0.168
14.985,0.212
14.990,0.191
14.995,0.232
15.000,0.188
15.005,0.276
15.010,0.249
15.015,0.213
15.020,0.303
15.025,0.190
15.030,0.191
15.035,0.170
15.040,0.074
15.045,0.040
15.050,-0.083
15.055,-0.072
15.060,-0.166
15.065,-0.254
15.070,-0.198
15.075,-0.319
15.080,-0.301
15.085,-0.285
15.090,-0.330
15.095,-0.304
15.100,-0.363
15.105,-0.287
15.110,-0.317
15.115,-0.342
15.120,-0.232
15.125,-0.316
15.130,-0.276
15.135,-0.244
15.140,-0.272
15.145,-0.231
15.150,-0.279
15.155,-0.192
15.160,-0.213
15.165,-0.230
15.170,-0.113
15.175,-0.190
15.180,-0.147
15.185,-0.116
15.190,-0.139
15.195,-0.096
15.200,-0.146
15.205,-0.065
15.210,-0.095
15.215,-0.122
15.220,-0.022
15.225,-0.113
15.230,-0.071
15.235,-0.040
15.240,-0.066
15.245,-0.027
15.250,-0.079
15.255,0.006
15.260,-0.032
15.265,-0.076
15.270,0.025
15.275,-0.061
15.280,-0.031
15.285,-0.007
15.290,-0.030
15.295,0.011
15.300,-0.042
15.305,0.036
15.310,0.006
15.315,-0.022
15.320,0.078
15.325,-0.014
15.330,0.019
15.335,0.047
15.340,0.018
15.345,0.039
15.350,-0.016
15.355,0.082
15.360,0.051
15.365,0.015
15.370,0.109
15.375,0.018
15.380,0.064
15.385,0.080
15.390,0.042
15.395,0.089
15.400,0.043
15.405,0.120
15.410,0.081
15.415,0.047
15.420,0.150
15.425,0.062
15.430,0.097
15.435,0.117
15.440,0.090
15.445,0.129
15.450,0.062
15.455,0.137
15.460,0.132
15.465,0.139
15.470,0.248
15.475,0.133
15.480,0.137
15.485,0.141
15.490,0.100
15.495,0.120
15.500,0.048
15.505,0.102
15.510,0.038
15.515,-0.017
15.520,0.073
15.525,-0.018
15.530,0.008
15.535,0.029
15.540,0.004
15.545,0.035
15.550,-0.023
15.555,0.043
15.560,-0.027
15.565,-0.072
15.570,0.067
15.575,0.114
15.580,0.444
15.585,0.822
15.590,0.893
15.595,0.677
15.600,0.286
15.605,0.095
15.610,-0.092
15.615,-0.184
15.620,-0.104
15.625,-0.136
15.630,-0.058
15.635,-0.073
15.640,-0.126
15.645,-0.089
15.650,-0.160
15.655,-0.086
15.660,-0.109
15.665,-0.137
15.670,-0.039
15.675,-0.117
15.680,-0.077
15.685,-0.058
15.690,-0.080
15.695,-0.037
15.700,-0.090
15.705,-0.010
15.710,-0.046
15.715,-0.080
15.720,0.014
15.725,-0.074
15.730,-0.029
15.735,-0.002
15.740,-0.024
15.745,0.010
15.750,-0.047
15.755,0.033
15.760,-0.003
15.765,-0.025
15.770,0.082
15.775,-0.001
15.780,0.038
15.785,0.057
15.790,0.034
15.795,0.070
15.800,0.019
15.805,0.109
15.810,0.080
15.815,0.058
15.820,0.167
15.825,0.090
15.830,0.138
15.835,0.174
15.840,0.169
15.845,0.214
15.850,0.168
15.855,0.266
15.860,0.242
15.865,0.227
15.870,0.336
15.875,0.249
15.880,0.275
15.885,0.276
15.890,0.220
15.895,0.199
15.900,0.077
15.905,0.081
15.910,-0.040
15.915,-0.142
15.920,-0.111
15.925,-0.256
15.930,-0.263
15.935,-0.282
15.940,-0.332
15.945,-0.318
15.950,-0.388
15.955,-0.315
15.960,-0.357
15.965,-0.378
15.970,-0.272
15.975,-0.351
15.980,-0.305
15.985,-0.282
15.990,-0.300
15.995,-0.264
16.000,-0.313
16.005,-0.222
16.010,-0.255
16.015,-0.272
16.020,-0.164
16.025,-0.244
16.030,-0.198
16.035,-0.174
16.040,-0.189
16.045,-0.146
16.050,-0.194
16.055,-0.106
16.060,-0.138
16.065,-0.156
16.070,-0.046
16.075,-0.127
16.080,-0.089
16.085,-0.067
16.090,-0.079
16.095,-0.045
16.100,-0.102
16.105,-0.015
16.110,-0.049
16.115,-0.073
16.120,0.024
16.125,-0.065
16.130,-0.025
16.135,-0.007
16.140,-0.028
16.145,0.002
16.150,-0.056
16.155,0.027
16.160,-0.010
16.165,-0.031
16.170,0.069
16.175,-0.021
16.180,0.018
16.185,0.036
16.190,0.018
16.195,0.051
16.200,-0.004
16.205,0.081
16.210,0.038
16.215,0.011
16.220,0.112
16.225,0.027
16.230,0.067
16.235,0.089
16.240,0.080
16.245,0.112
16.250,0.058
16.255,0.169
16.260,0.154
16.265,0.124
16.270,0.191
16.275,0.073
16.280,0.093
16.285,0.099
16.290,0.070
16.295,0.090
16.300,0.017
16.305,0.075
16.310,0.013
16.315,-0.021
16.320,0.072
16.325,-0.016
16.330,0.023
16.335,0.040
16.340,0.023
16.345,0.051
16.350,-0.029
16.355,0.030
16.360,-0.006
16.365,0.065
16.370,0.435
16.375,0.761
16.380,0.969
16.385,0.772
16.390,0.456
16.395,0.184
16.400,-0.075
16.405,-0.084
16.410,-0.173
16.415,-0.129
16.420,0.020
16.425,-0.116
16.430,-0.104
16.435,-0.076
16.440,-0.105
16.445,-0.080
16.450,-0.120
16.455,-0.037
16.460,-0.091
16.465,-0.105
16.470,-0.004
16.475,-0.101
16.480,-0.059
16.485,-0.036
16.490,-0.051
16.495,-0.022
16.500,-0.075
16.505,0.010
16.510,-0.036
16.515,-0.057
16.520,0.043
16.525,-0.044
16.530,-0.002
16.535,0.014
16.540,0.000
16.545,0.035
16.550,-0.018
16.555,0.070
16.560,0.030
16.565,0.011
16.570,0.107
16.575,0.018
16.580,0.061
16.585,0.081
16.590,0.078
16.595,0.115
16.600,0.064
16.605,0.161
16.610,0.127
16.615,0.115
16.620,0.222
16.625,0.145
16.630,0.197
16.635,0.224
16.640,0.228
16.645,0.265
16.650,0.210
16.655,0.303
16.660,0.264
16.665,0.244
16.670,0.332
16.675,0.222
16.680,0.222
16.685,0.183
16.690,0.109
16.695,0.060
16.700,-0.083
16.705,-0.074
16.710,-0.184
16.715,-0.256
16.720,-0.207
16.725,-0.334
16.730,-0.317
16.735,-0.314
16.740,-0.334
16.745,-0.309
16.750,-0.370
16.755,-0.291
16.760,-0.335
16.765,-0.345
16.770,-0.243
16.775,-0.324
16.780,-0.278
16.785,-0.261
16.790,-0.263
16.795,-0.226
16.800,-0.274
16.805,-0.175
16.810,-0.218
16.815,-0.240
16.820,-0.139
16.825,-0.214
16.830,-0.158
16.835,-0.136
16.840,-0.143
16.845,-0.111
16.850,-0.166
16.855,-0.074
16.860,-0.119
16.865,-0.140
16.870,-0.039
16.875,-0.118
16.880,-0.075
16.885,-0.060
16.890,-0.064
16.895,-0.031
16.900,-0.092
16.905,-0.007
16.910,-0.050
16.915,-0.069
16.920,0.024
16.925,-0.068
16.930,-0.027
16.935,-0.011
16.940,-0.016
16.945,0.010
16.950,-0.054
16.955,0.031
16.960,-0.018
16.965,-0.035
16.970,0.059
16.975,-0.033
16.980,0.011
16.985,0.026
16.990,0.023
16.995,0.051
17.000,-0.018
17.005,0.067
17.010,0.017
17.015,-0.005
17.020,0.095
17.025,0.011
17.030,0.054
17.035,0.071
17.040,0.067
17.045,0.099
17.050,0.054
17.055,0.175
17.060,0.153
17.065,0.124
17.070,0.188
17.075,0.073
17.080,0.094
17.085,0.087
17.090,0.062
17.095,0.081
17.100,0.005
17.105,0.066
17.110,0.004
17.115,-0.021
17.120,0.069
17.125,-0.022
17.130,0.020
17.135,0.035
17.140,0.031
17.145,0.050
17.150,-0.039
17.155,0.023
17.160,-0.015
17.165,0.074
17.170,0.450
17.175,0.767
17.180,0.957
17.185,0.751
17.190,0.449
17.195,0.188
17.200,-0.063
17.205,-0.071
17.210,-0.172
17.215,-0.134
17.220,0.003
17.225,-0.131
17.230,-0.114
17.235,-0.095
17.240,-0.119
17.245,-0.097
17.250,-0.139
17.255,-0.053
17.260,-0.111
17.265,-0.121
17.270,-0.025
17.275,-0.116
17.280,-0.071
17.285,-0.057
17.290,-0.062
17.295,-0.033
17.300,-0.086
17.305,0.008
17.310,-0.039
17.315,-0.050
17.320,0.046
17.325,-0.043
17.330,-0.001
17.335,0.016
17.340,0.021
17.345,0.050
17.350,-0.009
17.355,0.081
17.360,0.027
17.365,0.013
17.370,0.110
17.375,0.028
17.380,0.076
17.385,0.084
17.390,0.092
17.395,0.128
17.400,0.069
17.405,0.167
17.410,0.127
17.415,0.124
17.420,0.227
17.425,0.146
17.430,0.200
17.435,0.226
17.440,0.243
17.445,0.283
17.450,0.232
17.455,0.330
17.460,0.280
17.465,0.263
17.470,0.341
17.475,0.228
17.480,0.224
17.485,0.165
17.490,0.091
17.495,0.044
17.500,-0.091
17.505,-0.072
17.510,-0.186
17.515,-0.256
17.520,-0.206
17.525,-0.320
17.530,-0.306
17.535,-0.327
17.540,-0.339
17.545,-0.314
17.550,-0.370
17.555,-0.274
17.560,-0.321
17.565,-0.331
17.570,-0.241
17.575,-0.328
17.580,-0.278
17.585,-0.265
17.590,-0.258
17.595,-0.217
17.600,-0.258
17.605,-0.148
17.610,-0.194
17.615,-0.204
17.620,-0.100
17.625,-0.178
17.630,-0.131
17.635,-0.120
17.640,-0.117
17.645,-0.085
17.650,-0.136
17.655,-0.041
17.660,-0.092
17.665,-0.106
17.670,-0.014
17.675,-0.101
17.680,-0.060
17.685,-0.059
17.690,-0.061
17.695,-0.036
17.700,-0.090
17.705,0.008
17.710,-0.047
17.715,-0.061
17.720,0.029
17.725,-0.060
17.730,-0.021
17.735,-0.023
17.740,-0.018
17.745,0.018
17.750,-0.044
17.755,0.039
17.760,-0.018
17.765,-0.031
17.770,0.060
17.775,-0.025
17.780,0.017
17.785,0.020
17.790,0.027
17.795,0.045
17.800,-0.023
17.805,0.073
17.810,0.019
17.815,0.008
17.820,0.104
17.825,0.016
17.830,0.058
17.835,0.064
17.840,0.070
17.845,0.092
17.850,0.026
17.855,0.133
17.860,0.116
17.865,0.134
17.870,0.220
17.875,0.100
17.880,0.109
17.885,0.093
17.890,0.085
17.895,0.093
17.900,0.013
17.905,0.084
17.910,0.012
17.915,-0.010
17.920,0.076
17.925,-0.008
17.930,0.034
17.935,0.028
17.940,0.024
17.945,0.042
17.950,-0.025
17.955,0.037
17.960,-0.050
17.965,-0.040
17.970,0.167
17.975,0.386
17.980,0.779
17.985,0.868
17.990,0.707
17.995,0.428
18.000,0.072
18.005,0.002
18.010,-0.150
18.015,-0.180
18.020,-0.035
18.025,-0.093
18.030,-0.065
18.035,-0.082
18.040,-0.088
18.045,-0.078
18.050,-0.137
18.055,-0.035
18.060,-0.097
18.065,-0.106
18.070,-0.006
18.075,-0.089
18.080,-0.047
18.085,-0.048
18.090,-0.044
18.095,-0.021
18.100,-0.078
18.105,0.018
18.110,-0.040
18.115,-0.047
18.120,0.048
18.125,-0.037
18.130,0.004
18.135,0.004
18.140,0.018
18.145,0.047
18.150,-0.009
18.155,0.090
18.160,0.036
18.165,0.028
18.170,0.118
18.175,0.036
18.180,0.083
18.185,0.087
18.190,0.101
18.195,0.126
18.200,0.067
18.205,0.167
18.210,0.117
18.215,0.117
18.220,0.215
18.225,0.136
18.230,0.188
18.235,0.203
18.240,0.227
18.245,0.257
18.250,0.199
18.255,0.297
18.260,0.245
18.265,0.240
18.270,0.326
18.275,0.227
18.280,0.234
18.285,0.180
18.290,0.124
18.295,0.072
18.300,-0.062
18.305,-0.042
18.310,-0.167
18.315,-0.235
18.320,-0.201
18.325,-0.325
18.330,-0.316
18.335,-0.344
18.340,-0.348
18.345,-0.331
18.350,-0.396
18.355,-0.306
18.360,-0.358
18.365,-0.355
18.370,-0.262
18.375,-0.342
18.380,-0.295
18.385,-0.296
18.390,-0.279
18.395,-0.247
18.400,-0.298
18.405,-0.192
18.410,-0.245
18.415,-0.242
18.420,-0.143
18.425,-0.219
18.430,-0.168
18.435,-0.166
18.440,-0.148
18.445,-0.118
18.450,-0.168
18.455,-0.063
18.460,-0.118
18.465,-0.124
18.470,-0.034
18.475,-0.114
18.480,-0.065
18.485,-0.068
18.490,-0.060
18.495,-0.038
18.500,-0.096
18.505,0.003
18.510,-0.054
18.515,-0.061
18.520,0.028
18.525,-0.051
18.530,-0.003
18.535,-0.008
18.540,0.003
18.545,0.021
18.550,-0.044
18.555,0.050
18.560,-0.012
18.565,-0.022
18.570,0.063
18.575,-0.017
18.580,0.028
18.585,0.021
18.590,0.035
18.595,0.051
18.600,-0.016
18.605,0.077
18.610,0.012
18.615,0.003
18.620,0.085
18.625,-0.004
18.630,0.040
18.635,0.035
18.640,0.047
18.645,0.066
18.650,0.005
18.655,0.103
18.660,0.043
18.665,0.041
18.670,0.129
18.675,0.045
18.680,0.089
18.685,0.074
18.690,0.086
18.695,0.130
18.700,0.101
18.705,0.207
18.710,0.126
18.715,0.091
18.720,0.154
18.725,0.056
18.730,0.082
18.735,0.054
18.740,0.050
18.745,0.048
18.750,-0.033
18.755,0.051
18.760,-0.020
18.765,-0.032
18.770,0.049
18.775,-0.034
18.780,0.007
18.785,-0.009
18.790,-0.001
18.795,-0.004
18.800,-0.090
18.805,0.014
18.810,0.041
18.815,0.298
18.820,0.802
18.825,0.953
18.830,0.841
18.835,0.511
18.840,0.194
18.845,-0.019
18.850,-0.176
18.855,-0.111
18.860,-0.133
18.865,-0.097
18.870,-0.053
18.875,-0.169
18.880,-0.113
18.885,-0.134
18.890,-0.130
18.895,-0.095
18.900,-0.152
18.905,-0.065
18.910,-0.124
18.915,-0.122
18.920,-0.042
18.925,-0.117
18.930,-0.062
18.935,-0.069
18.940,-0.054
18.945,-0.036
18.950,-0.100
18.955,-0.004
18.960,-0.063
18.965,-0.060
18.970,0.025
18.975,-0.054
18.980,-0.007
18.985,-0.015
18.990,0.009
18.995,0.030
19.000,-0.031
19.005,0.070
19.010,0.005
19.015,0.005
19.020,0.093
19.025,0.012
19.030,0.062
19.035,0.058
19.040,0.083
19.045,0.110
19.050,0.057
19.055,0.165
19.060,0.113
19.065,0.121
19.070,0.216
19.075,0.153
19.080,0.215
19.085,0.216
19.090,0.246
19.095,0.273
19.100,0.223
19.105,0.327
19.110,0.260
19.115,0.245
19.120,0.306
19.125,0.190
19.130,0.178
19.135,0.098
19.140,0.043
19.145,-0.020
19.150,-0.151
19.155,-0.117
19.160,-0.239
19.165,-0.281
19.170,-0.230
19.175,-0.334
19.180,-0.305
19.185,-0.331
19.190,-0.317
19.195,-0.299
19.200,-0.357
19.205,-0.255
19.210,-0.317
19.215,-0.314
19.220,-0.225
19.225,-0.300
19.230,-0.249
19.235,-0.255
19.240,-0.230
19.245,-0.207
19.250,-0.260
19.255,-0.153
19.260,-0.210
19.265,-0.199
19.270,-0.108
19.275,-0.179
19.280,-0.126
19.285,-0.133
19.290,-0.108
19.295,-0.089
19.300,-0.144
19.305,-0.038
19.310,-0.102
19.315,-0.104
19.320,-0.024
19.325,-0.103
19.330,-0.056
19.335,-0.070
19.340,-0.048
19.345,-0.030
19.350,-0.088
19.355,0.014
19.360,-0.052
19.365,-0.046
19.370,0.038
19.375,-0.044
19.380,-0.001
19.385,-0.016
19.390,0.010
19.395,0.024
19.400,-0.040
19.405,0.062
19.410,-0.005
19.415,-0.004
19.420,0.076
19.425,-0.005
19.430,0.042
19.435,0.025
19.440,0.046
19.445,0.058
19.450,-0.004
19.455,0.098
19.460,0.032
19.465,0.033
19.470,0.110
19.475,0.028
19.480,0.073
19.485,0.057
19.490,0.078
19.495,0.083
19.500,0.017
19.505,0.119
19.510,0.051
19.515,0.050
19.520,0.125
19.525,0.044
19.530,0.087
19.535,0.064
19.540,0.084
19.545,0.093
19.550,0.029
19.555,0.125
19.560,0.052
19.565,0.056
19.570,0.142
19.575,0.068
19.580,0.111
19.585,0.088
19.590,0.108
19.595,0.117
19.600,0.072
19.605,0.204
19.610,0.149
19.615,0.140
19.620,0.198
19.625,0.103
19.630,0.131
19.635,0.085
19.640,0.079
19.645,0.066
19.650,-0.019
19.655,0.058
19.660,-0.031
19.665,-0.043
19.670,0.027
19.675,-0.049
19.680,0.006
19.685,-0.016
19.690,-0.001
19.695,0.006
19.700,-0.059
19.705,0.022
19.710,-0.072
19.715,-0.058
19.720,0.134
19.725,0.353
19.730,0.732
19.735,0.814
19.740,0.732
19.745,0.504
19.750,0.131
19.755,-0.004
19.760,-0.186
19.765,-0.172
19.770,-0.039
19.775,-0.128
19.780,-0.131
19.785,-0.160
19.790,-0.135
19.795,-0.147
19.800,-0.205
19.805,-0.084
19.810,-0.155
19.815,-0.152
19.820,-0.067
19.825,-0.147
19.830,-0.100
19.835,-0.111
19.840,-0.081
19.845,-0.070
19.850,-0.124
19.855,-0.015
19.860,-0.084
19.865,-0.081
19.870,-0.002
19.875,-0.076
19.880,-0.026
19.885,-0.044
19.890,-0.020
19.895,-0.011
19.900,-0.067
19.905,0.034
19.910,-0.038
19.915,-0.031
19.920,0.051
19.925,-0.018
19.930,0.030
19.935,0.014
19.940,0.053
19.945,0.070
19.950,0.015
19.955,0.123
19.960,0.057
19.965,0.072
19.970,0.158
19.975,0.094
19.980,0.157
19.985,0.152
19.990,0.194
19.995,0.213
20.000,0.161
20.005,0.276
20.010,0.214
20.015,0.227
20.020,0.311
20.025,0.235
20.030,0.260
20.035,0.202
20.040,0.184
20.045,0.133
20.050,0.003
20.055,0.030
20.060,-0.114
20.065,-0.177
20.070,-0.165
20.075,-0.283
20.080,-0.265
20.085,-0.314
20.090,-0.306
20.095,-0.310
20.100,-0.376
20.105,-0.276
20.110,-0.347
20.115,-0.337
20.120,-0.257
20.125,-0.326
20.130,-0.269
20.135,-0.283
20.140,-0.246
20.145,-0.234
20.150,-0.284
20.155,-0.166
20.160,-0.231
20.165,-0.217
20.170,-0.136
20.175,-0.208
20.180,-0.153
20.185,-0.172
20.190,-0.132
20.195,-0.112
20.200,-0.163
20.205,-0.050
20.210,-0.119
20.215,-0.111
20.220,-0.037
20.225,-0.111
20.230,-0.057
20.235,-0.074
20.240,-0.035
20.245,-0.023
20.250,-0.089
20.255,0.010
20.260,-0.063
20.265,-0.051
20.270,0.027
20.275,-0.050
20.280,-0.008
20.285,-0.033
20.290,0.003
20.295,0.013
20.300,-0.045
20.305,0.059
20.310,-0.016
20.315,-0.010
20.320,0.061
20.325,-0.013
20.330,0.036
20.335,0.013
20.340,0.044
20.345,0.044
20.350,-0.021
20.355,0.081
20.360,0.009
20.365,0.020
20.370,0.088
20.375,0.015
20.380,0.064
20.385,0.033
20.390,0.060
20.395,0.060
20.400,0.000
20.405,0.106
20.410,0.022
20.415,0.023
20.420,0.092
20.425,0.016
20.430,0.061
20.435,0.029
20.440,0.055
20.445,0.060
20.450,0.005
20.455,0.110
20.460,0.028
20.465,0.030
20.470,0.099
20.475,0.026
20.480,0.070
20.485,0.038
20.490,0.068
20.495,0.075
20.500,0.018
20.505,0.131
20.510,0.060
20.515,0.062
20.520,0.134
20.525,0.059
20.530,0.097
20.535,0.083
20.540,0.151
20.545,0.182
20.550,0.118
20.555,0.198
20.560,0.107
20.565,0.097
20.570,0.135
20.575,0.028
20.580,0.049
20.585,0.002
20.590,0.015
20.595,0.001
20.600,-0.064
20.605,0.036
20.610,-0.046
20.615,-0.039
20.620,0.031
20.625,-0.043
20.630,0.002
20.635,-0.037
20.640,-0.035
20.645,-0.062
20.650,-0.104
20.655,0.131
20.660,0.385
20.665,0.710
20.670,0.850
20.675,0.657
20.680,0.423
20.685,0.104
20.690,-0.057
20.695,-0.161
20.700,-0.201
20.705,-0.046
20.710,-0.122
20.715,-0.137
20.720,-0.077
20.725,-0.158
20.730,-0.120
20.735,-0.137
20.740,-0.091
20.745,-0.098
20.750,-0.161
20.755,-0.050
20.760,-0.127
20.765,-0.115
20.770,-0.042
20.775,-0.111
20.780,-0.057
20.785,-0.079
20.790,-0.039
20.795,-0.030
20.800,-0.078
20.805,0.034
20.810,-0.043
20.815,-0.035
20.820,0.025
20.825,-0.050
20.830,-0.001
20.835,-0.028
20.840,0.024
20.845,0.041
20.850,-0.016
20.855,0.081
20.860,-0.008
20.865,-0.002
20.870,0.077
20.875,0.026
20.880,0.082
20.885,0.054
20.890,0.096
20.895,0.107
20.900,0.071
20.905,0.197
20.910,0.128
20.915,0.149
20.920,0.235
20.925,0.184
20.930,0.243
20.935,0.223
20.940,0.269
20.945,0.275
20.950,0.228
20.955,0.333
20.960,0.241
20.965,0.228
20.970,0.250
20.975,0.125
20.980,0.109
20.985,0.003
20.990,-0.030
20.995,-0.097
21.000,-0.216
21.005,-0.162
21.010,-0.289
21.015,-0.314
21.020,-0.273
21.025,-0.356
21.030,-0.312
21.035,-0.352
21.040,-0.319
21.045,-0.313
21.050,-0.369
21.055,-0.265
21.060,-0.335
21.065,-0.311
21.070,-0.234
21.075,-0.290
21.080,-0.232
21.085,-0.261
21.090,-0.216
21.095,-0.206
21.100,-0.257
21.105,-0.144
21.110,-0.205
21.115,-0.178
21.120,-0.108
21.125,-0.175
21.130,-0.126
21.135,-0.151
21.140,-0.102
21.145,-0.102
21.150,-0.153
21.155,-0.036
21.160,-0.109
21.165,-0.089
21.170,-0.016
21.175,-0.086
21.180,-0.043
21.185,-0.072
21.190,-0.029
21.195,-0.028
21.200,-0.079
21.205,0.037
21.210,-0.036
21.215,-0.022
21.220,0.043
21.225,-0.025
21.230,0.020
21.235,-0.011
21.240,0.035
21.245,0.040
21.250,-0.014
21.255,0.091
21.260,0.007
21.265,0.019
21.270,0.085
21.275,0.024
21.280,0.075
21.285,0.037
21.290,0.068
21.295,0.058
21.300,0.003
21.305,0.111
21.310,0.031
21.315,0.036
21.320,0.091
21.325,0.022
21.330,0.072
21.335,0.041
21.340,0.080
21.345,0.061
21.350,0.003
21.355,0.134
21.360,0.070
21.365,0.080
21.370,0.130
21.375,0.057
21.380,0.106
21.385,0.081
21.390,0.157
21.395,0.189
21.400,0.136
21.405,0.217
21.410,0.110
21.415,0.106
21.420,0.146
21.425,0.050
21.430,0.072
21.435,0.019
21.440,0.047
21.445,0.030
21.450,-0.040
21.455,0.058
21.460,-0.021
21.465,-0.004
21.470,0.056
21.475,-0.018
21.480,0.024
21.485,-0.015
21.490,0.001
21.495,-0.035
21.500,-0.092
21.505,0.084
21.510,0.242
21.515,0.601
21.520,0.896
21.525,0.799
21.530,0.556
21.535,0.188
21.540,0.004
21.545,-0.118
21.550,-0.191
21.555,-0.063
21.560,-0.117
21.565,-0.098
21.570,-0.065
21.575,-0.145
21.580,-0.100
21.585,-0.137
21.590,-0.085
21.595,-0.083
21.600,-0.133
21.605,-0.021
21.610,-0.100
21.615,-0.079
21.620,-0.008
21.625,-0.065
21.630,-0.017
21.635,-0.052
21.640,-0.004
21.645,-0.008
21.650,-0.062
21.655,0.047
21.660,-0.031
21.665,-0.016
21.670,0.041
21.675,-0.022
21.680,0.029
21.685,-0.006
21.690,0.044
21.695,0.041
21.700,-0.009
21.705,0.103
21.710,0.022
21.715,0.037
21.720,0.099
21.725,0.041
21.730,0.089
21.735,0.053
21.740,0.104
21.745,0.109
21.750,0.075
21.755,0.200
21.760,0.134
21.765,0.166
21.770,0.234
21.775,0.186
21.780,0.247
21.785,0.224
21.790,0.286
21.795,0.281
21.800,0.229
21.805,0.338
21.810,0.247
21.815,0.238
21.820,0.249
21.825,0.129
21.830,0.108
21.835,-0.004
21.840,-0.031
21.845,-0.111
21.850,-0.228
21.855,-0.177
21.860,-0.305
21.865,-0.319
21.870,-0.284
21.875,-0.360
21.880,-0.320
21.885,-0.360
21.890,-0.315
21.895,-0.322
21.900,-0.367
21.905,-0.254
21.910,-0.331
21.915,-0.306
21.920,-0.243
21.925,-0.296
21.930,-0.243
21.935,-0.273
21.940,-0.211
21.945,-0.207
21.950,-0.251
21.955,-0.139
21.960,-0.215
21.965,-0.187
21.970,-0.122
21.975,-0.175
21.980,-0.117
21.985,-0.143
21.990,-0.083
21.995,-0.084
22.000,-0.133
22.005,-0.022
22.010,-0.099
22.015,-0.075
22.020,-0.017
22.025,-0.076
22.030,-0.028
22.035,-0.066
22.040,-0.011
22.045,-0.018
22.050,-0.070
22.055,0.042
22.060,-0.041
22.065,-0.026
22.070,0.027
22.075,-0.036
22.080,0.008
22.085,-0.035
22.090,0.011
22.095,0.000
22.100,-0.050
22.105,0.058
22.110,-0.026
22.115,-0.011
22.120,0.039
22.125,-0.022
22.130,0.023
22.135,-0.017
22.140,0.031
22.145,0.019
22.150,-0.031
22.155,0.076
22.160,-0.008
22.165,0.008
22.170,0.054
22.175,-0.007
22.180,0.038
22.185,-0.006
22.190,0.041
22.195,0.025
22.200,-0.027
22.205,0.086
22.210,0.006
22.215,0.025
22.220,0.075
22.225,0.011
22.230,0.056
22.235,0.013
22.240,0.064
22.245,0.056
22.250,0.013
22.255,0.128
22.260,0.044
22.265,0.060
22.270,0.110
22.275,0.049
22.280,0.108
22.285,0.099
22.290,0.177
22.295,0.163
22.300,0.091
22.305,0.175
22.310,0.073
22.315,0.077
22.320,0.108
22.325,0.029
22.330,0.051
22.335,-0.015
22.340,0.025
22.345,0.005
22.350,-0.051
22.355,0.054
22.360,-0.028
22.365,-0.008
22.370,0.038
22.375,-0.022
22.380,0.015
22.385,-0.055
22.390,-0.020
22.395,0.001
22.400,0.104
22.405,0.565
22.410,0.862
22.415,0.893
22.420,0.677
22.425,0.353
22.430,0.115
22.435,-0.105
22.440,-0.126
22.445,-0.151
22.450,-0.119
22.455,-0.013
22.460,-0.173
22.465,-0.154
22.470,-0.094
22.475,-0.178
22.480,-0.122
22.485,-0.142
22.490,-0.098
22.495,-0.109
22.500,-0.137
22.505,-0.031
22.510,-0.126
22.515,-0.096
22.520,-0.039
22.525,-0.098
22.530,-0.052
22.535,-0.091
22.540,-0.039
22.545,-0.053
22.550,-0.098
22.555,0.008
22.560,-0.077
22.565,-0.053
22.570,0.001
22.575,-0.048
22.580,0.004
22.585,-0.035
22.590,0.023
22.595,0.011
22.600,-0.027
22.605,0.089
22.610,0.006
22.615,0.035
22.620,0.091
22.625,0.045
22.630,0.099
22.635,0.065
22.640,0.133
22.645,0.129
22.650,0.088
22.655,0.208
22.660,0.140
22.665,0.175
22.670,0.235
22.675,0.191
22.680,0.242
22.685,0.209
22.690,0.275
22.695,0.264
22.700,0.216
22.705,0.313
22.710,0.208
22.715,0.193
22.720,0.182
22.725,0.059
22.730,0.025
22.735,-0.095
22.740,-0.107
22.745,-0.184
22.750,-0.283
22.755,-0.221
22.760,-0.339
22.765,-0.333
22.770,-0.299
22.775,-0.360
22.780,-0.314
22.785,-0.356
22.790,-0.293
22.795,-0.303
22.800,-0.343
22.805,-0.229
22.810,-0.306
22.815,-0.274
22.820,-0.214
22.825,-0.258
22.830,-0.204
22.835,-0.240
22.840,-0.176
22.845,-0.186
22.850,-0.225
22.855,-0.109
22.860,-0.185
22.865,-0.154
22.870,-0.101
22.875,-0.146
22.880,-0.097
22.885,-0.137
22.890,-0.073
22.895,-0.084
22.900,-0.125
22.905,-0.015
22.910,-0.097
22.915,-0.073
22.920,-0.028
22.925,-0.076
22.930,-0.028
22.935,-0.069
22.940,-0.008
22.945,-0.027
22.950,-0.071
22.955,0.042
22.960,-0.043
22.965,-0.020
22.970,0.024
22.975,-0.028
22.980,0.018
22.985,-0.027
22.990,0.032
22.995,0.013
23.000,-0.035
23.005,0.074
23.010,-0.011
23.015,0.014
23.020,0.060
23.025,0.007
23.030,0.050
23.035,0.005
23.040,0.067
23.045,0.051
23.050,0.001
23.055,0.103
23.060,0.017
23.065,0.040
23.070,0.081
23.075,0.028
23.080,0.072
23.085,0.029
23.090,0.091
23.095,0.072
23.100,0.024
23.105,0.127
23.110,0.039
23.115,0.063
23.120,0.100
23.125,0.040
23.130,0.075
23.135,0.028
23.140,0.092
23.145,0.072
23.150,0.021
23.155,0.119
23.160,0.026
23.165,0.047
23.170,0.089
23.175,0.039
23.180,0.081
23.185,0.038
23.190,0.115
23.195,0.104
23.200,0.054
23.205,0.152
23.210,0.059
23.215,0.089
23.220,0.155
23.225,0.137
23.230,0.190
23.235,0.126
23.240,0.167
23.245,0.134
23.250,0.074
23.255,0.157
23.260,0.046
23.265,0.047
23.270,0.062
23.275,-0.014
23.280,0.008
23.285,-0.048
23.290,0.012
23.295,-0.013
23.300,-0.060
23.305,0.040
23.310,-0.054
23.315,-0.026
23.320,0.009
23.325,-0.064
23.330,-0.040
23.335,-0.052
23.340,0.176
23.345,0.497
23.350,0.728
23.355,0.868
23.360,0.660
23.365,0.405
23.370,0.144
23.375,-0.104
23.380,-0.138
23.385,-0.140
23.390,-0.045
23.395,-0.107
23.400,-0.192
23.405,-0.092
23.410,-0.192
23.415,-0.175
23.420,-0.121
23.425,-0.165
23.430,-0.124
23.435,-0.160
23.440,-0.087
23.445,-0.116
23.450,-0.163
23.455,-0.048
23.460,-0.130
23.465,-0.100
23.470,-0.050
23.475,-0.093
23.480,-0.051
23.485,-0.097
23.490,-0.034
23.495,-0.060
23.500,-0.103
23.505,0.006
23.510,-0.075
23.515,-0.039
23.520,0.011
23.525,-0.029
23.530,0.009
23.535,-0.040
23.540,0.030
23.545,0.011
23.550,-0.026
23.555,0.082
23.560,-0.004
23.565,0.030
23.570,0.074
23.575,0.040
23.580,0.098
23.585,0.061
23.590,0.145
23.595,0.142
23.600,0.114
23.605,0.227
23.610,0.148
23.615,0.191
23.620,0.244
23.625,0.212
23.630,0.261
23.635,0.218
23.640,0.287
23.645,0.252
23.650,0.190
23.655,0.265
23.660,0.122
23.665,0.077
23.670,0.044
23.675,-0.070
23.680,-0.096
23.685,-0.202
23.690,-0.182
23.695,-0.239
23.700,-0.310
23.705,-0.239
23.710,-0.353
23.715,-0.348
23.720,-0.324
23.725,-0.357
23.730,-0.292
23.735,-0.326
23.740,-0.255
23.745,-0.280
23.750,-0.321
23.755,-0.215
23.760,-0.301
23.765,-0.257
23.770,-0.207
23.775,-0.246
23.780,-0.199
23.785,-0.234
23.790,-0.147
23.795,-0.161
23.800,-0.203
23.805,-0.093
23.810,-0.167
23.815,-0.128
23.820,-0.092
23.825,-0.133
23.830,-0.083
23.835,-0.125
23.840,-0.055
23.845,-0.080
23.850,-0.112
23.855,0.003
23.860,-0.088
23.865,-0.066
23.870,-0.030
23.875,-0.064
23.880,-0.013
23.885,-0.062
23.890,0.009
23.895,-0.010
23.900,-0.044
23.905,0.066
23.910,-0.011
23.915,0.028
23.920,0.059
23.925,0.010
23.930,0.044
23.935,-0.006
23.940,0.073
23.945,0.053
23.950,0.013
23.955,0.119
23.960,0.032
23.965,0.059
23.970,0.086
23.975,0.037
23.980,0.080
23.985,0.035
23.990,0.104
23.995,0.075
24.000,0.033
24.005,0.135
24.010,0.042
24.015,0.067
24.020,0.096
24.025,0.056
24.030,0.103
24.035,0.054
24.040,0.121
24.045,0.084
24.050,0.034
24.055,0.142
24.060,0.058
24.065,0.090
24.070,0.130
24.075,0.094
24.080,0.135
24.085,0.084
24.090,0.147
24.095,0.117
24.100,0.103
24.105,0.240
24.110,0.157
24.115,0.171
24.120,0.186
24.125,0.138
24.130,0.163
24.135,0.080
24.140,0.111
24.145,0.051
24.150,-0.011
24.155,0.073
24.160,-0.026
24.165,0.005
24.170,0.031
24.175,-0.015
24.180,0.023
24.185,-0.032
24.190,0.039
24.195,0.008
24.200,-0.047
24.205,0.028
24.210,-0.084
24.215,-0.029
24.220,0.137
24.225,0.429
24.230,0.834
24.235,0.821
24.240,0.652
24.245,0.327
24.250,0.022
24.255,-0.009
24.260,-0.173
24.265,-0.169
24.270,-0.076
24.275,-0.092
24.280,-0.086
24.285,-0.144
24.290,-0.076
24.295,-0.124
24.300,-0.158
24.305,-0.047
24.310,-0.141
24.315,-0.106
24.320,-0.067
24.325,-0.107
24.330,-0.072
24.335,-0.118
24.340,-0.037
24.345,-0.065
24.350,-0.100
24.355,0.004
24.360,-0.088
24.365,-0.056
24.370,-0.018
24.375,-0.050
24.380,-0.010
24.385,-0.064
24.390,0.010
24.395,-0.017
24.400,-0.052
24.405,0.055
24.410,-0.035
24.415,-0.002
24.420,0.034
24.425,0.004
24.430,0.050
24.435,0.008
24.440,0.092
24.445,0.069
24.450,0.040
24.455,0.146
24.460,0.060
24.465,0.103
24.470,0.156
24.475,0.146
24.480,0.202
24.485,0.164
24.490,0.251
24.495,0.228
24.500,0.203
24.505,0.317
24.510,0.239
24.515,0.279
24.520,0.314
24.525,0.270
24.530,0.268
24.535,0.161
24.540,0.168
24.545,0.056
24.550,-0.062
24.555,-0.041
24.560,-0.197
24.565,-0.216
24.570,-0.237
24.575,-0.318
24.580,-0.311
24.585,-0.381
24.590,-0.316
24.595,-0.354
24.600,-0.395
24.605,-0.290
24.610,-0.366
24.615,-0.323
24.620,-0.294
24.625,-0.326
24.630,-0.275
24.635,-0.311
24.640,-0.229
24.645,-0.257
24.650,-0.292
24.655,-0.185
24.660,-0.259
24.665,-0.207
24.670,-0.160
24.675,-0.184
24.680,-0.139
24.685,-0.182
24.690,-0.098
24.695,-0.127
24.700,-0.164
24.705,-0.058
24.710,-0.136
24.715,-0.095
24.720,-0.065
24.725,-0.096
24.730,-0.058
24.735,-0.106
24.740,-0.024
24.745,-0.054
24.750,-0.087
24.755,0.011
24.760,-0.080
24.765,-0.039
24.770,-0.007
24.775,-0.040
24.780,-0.002
24.785,-0.049
24.790,0.034
24.795,0.002
24.800,-0.038
24.805,0.057
24.810,-0.031
24.815,0.005
24.820,0.031
24.825,0.004
24.830,0.041
24.835,-0.018
24.840,0.063
24.845,0.034
24.850,-0.002
24.855,0.098
24.860,0.004
24.865,0.034
24.870,0.062
24.875,0.035
24.880,0.076
24.885,0.021
24.890,0.095
24.895,0.059
24.900,0.029
24.905,0.136
24.910,0.045
24.915,0.076
24.920,0.097
24.925,0.065
24.930,0.128
24.935,0.121
24.940,0.213
24.945,0.152
24.950,0.085
24.955,0.162
24.960,0.060
24.965,0.081
24.970,0.078
24.975,0.026
24.980,0.045
24.985,-0.027
24.990,0.039
24.995,-0.003
25.000,-0.037
25.005,0.069
25.010,-0.015
25.015,0.016
25.020,0.035
25.025,0.007
25.030,0.021
25.035,-0.072
25.040,0.001
25.045,0.044
25.050,0.250
25.055,0.769
25.060,0.956
25.065,0.850
25.070,0.546
25.075,0.202
25.080,0.016
25.085,-0.137
25.090,-0.117
25.095,-0.139
25.100,-0.115
25.105,-0.041
25.110,-0.173
25.115,-0.128
25.120,-0.108
25.125,-0.148
25.130,-0.098
25.135,-0.141
25.140,-0.069
25.145,-0.104
25.150,-0.133
25.155,-0.039
25.160,-0.125
25.165,-0.077
25.170,-0.052
25.175,-0.084
25.180,-0.046
25.185,-0.096
25.190,-0.012
25.195,-0.042
25.200,-0.068
25.205,0.035
25.210,-0.052
25.215,-0.011
25.220,0.014
25.225,-0.013
25.230,0.026
25.235,-0.024
25.240,0.059
25.245,0.030
25.250,0.002
25.255,0.097
25.260,0.009
25.265,0.052
25.270,0.085
25.275,0.071
25.280,0.110
25.285,0.059
25.290,0.149
25.295,0.126
25.300,0.113
25.305,0.234
25.310,0.166
25.315,0.213
25.320,0.244
25.325,0.232
25.330,0.278
25.335,0.234
25.340,0.322
25.345,0.283
25.350,0.242
25.355,0.313
25.360,0.182
25.365,0.159
25.370,0.107
25.375,0.002
25.380,-0.039
25.385,-0.164
25.390,-0.150
25.395,-0.245
25.400,-0.315
25.405,-0.243
25.410,-0.350
25.415,-0.324
25.420,-0.311
25.425,-0.339
25.430,-0.305
25.435,-0.359
25.440,-0.279
25.445,-0.314
25.450,-0.338
25.455,-0.231
25.460,-0.311
25.465,-0.265
25.470,-0.233
25.475,-0.246
25.480,-0.201
25.485,-0.246
25.490,-0.152
25.495,-0.180
25.500,-0.200
25.505,-0.095
25.510,-0.177
25.515,-0.133
25.520,-0.103
25.525,-0.116
25.530,-0.080
25.535,-0.134
25.540,-0.047
25.545,-0.079
25.550,-0.104
25.555,-0.005
25.560,-0.090
25.565,-0.049
25.570,-0.024
25.575,-0.042
25.580,-0.007
25.585,-0.063
25.590,0.021
25.595,-0.018
25.600,-0.044
25.605,0.053
25.610,-0.038
25.615,0.003
25.620,0.025
25.625,0.006
25.630,0.043
25.635,-0.016
25.640,0.063
25.645,0.020
25.650,-0.011
25.655,0.083
25.660,-0.012
25.665,0.024
25.670,0.045
25.675,0.027
25.680,0.065
25.685,0.016
25.690,0.097
25.695,0.051
25.700,0.025
25.705,0.127
25.710,0.060
25.715,0.133
25.720,0.170
25.725,0.145
25.730,0.156
25.735,0.079
25.740,0.147
25.745,0.087
25.750,0.033
25.755,0.108
25.760,0.003
25.765,0.020
25.770,0.022
25.775,-0.006
25.780,0.023
25.785,-0.039
25.790,0.040
25.795,-0.003
25.800,-0.031
25.805,0.067
25.810,-0.029
25.815,-0.018
25.820,-0.018
25.825,-0.002
25.830,0.183
25.835,0.467
25.840,0.936
25.845,0.967
25.850,0.681
25.855,0.443
25.860,0.055
25.865,-0.085
25.870,-0.132
25.875,-0.151
25.880,-0.055
25.885,-0.094
25.890,-0.066
25.895,-0.122
25.900,-0.138
25.905,-0.060
25.910,-0.147
25.915,-0.090
25.920,-0.074
25.925,-0.095
25.930,-0.054
25.935,-0.108
25.940,-0.027
25.945,-0.066
25.950,-0.090
25.955,0.001
25.960,-0.086
25.965,-0.040
25.970,-0.022
25.975,-0.036
25.980,0.003
25.985,-0.049
25.990,0.037
25.995,-0.003
26.000,-0.028
26.005,0.069
26.010,-0.018
26.015,0.022
26.020,0.042
26.025,0.029
26.030,0.063
26.035,0.005
26.040,0.089
26.045,0.054
26.050,0.038
26.055,0.140
26.060,0.058
26.065,0.104
26.070,0.127
26.075,0.123
26.080,0.169
26.085,0.129
26.090,0.230
26.095,0.197
26.100,0.181
26.105,0.289
26.110,0.212
26.115,0.256
26.120,0.274
26.125,0.267
26.130,0.299
26.135,0.227
26.140,0.275
26.145,0.170
26.150,0.077
26.155,0.099
26.160,-0.065
26.165,-0.101
26.170,-0.161
26.175,-0.235
26.180,-0.249
26.185,-0.344
26.190,-0.284
26.195,-0.343
26.200,-0.377
26.205,-0.286
26.210,-0.378
26.215,-0.334
26.220,-0.311
26.225,-0.320
26.230,-0.280
26.235,-0.327
26.240,-0.232
26.245,-0.266
26.250,-0.281
26.255,-0.182
26.260,-0.269
26.265,-0.222
26.270,-0.197
26.275,-0.201
26.280,-0.162
26.285,-0.214
26.290,-0.123
26.295,-0.159
26.300,-0.173
26.305,-0.070
26.310,-0.151
26.315,-0.105
26.320,-0.084
26.325,-0.088
26.330,-0.050
26.335,-0.106
26.340,-0.017
26.345,-0.059
26.350,-0.083
26.355,0.011
26.360,-0.075
26.365,-0.029
26.370,-0.013
26.375,-0.025
26.380,0.004
26.385,-0.058
26.390,0.030
26.395,-0.012
26.400,-0.031
26.405,0.063
26.410,-0.029
26.415,0.009
26.420,0.023
26.425,0.012
26.430,0.042
26.435,-0.019
26.440,0.064
26.445,0.017
26.450,-0.008
26.455,0.086
26.460,-0.002
26.465,0.039
26.470,0.051
26.475,0.031
26.480,0.052
26.485,-0.011
26.490,0.072
26.495,0.025
26.500,0.002
26.505,0.093
26.510,0.004
26.515,0.042
26.520,0.050
26.525,0.042
26.530,0.082
26.535,0.030
26.540,0.115
26.545,0.064
26.550,0.039
26.555,0.132
26.560,0.057
26.565,0.126
26.570,0.160
26.575,0.145
26.580,0.154
26.585,0.071
26.590,0.141
26.595,0.081
26.600,0.040
26.605,0.114
26.610,0.005
26.615,0.020
26.620,0.011
26.625,-0.014
26.630,0.011
26.635,-0.049
26.640,0.037
26.645,-0.011
26.650,-0.035
26.655,0.060
26.660,-0.029
26.665,-0.008
26.670,-0.024
26.675,-0.035
26.680,0.074
26.685,0.258
26.690,0.756
26.695,0.976
26.700,0.815
26.705,0.603
26.710,0.215
26.715,-0.003
26.720,-0.111
26.725,-0.157
26.730,-0.092
26.735,-0.097
26.740,-0.059
26.745,-0.158
26.750,-0.162
26.755,-0.076
26.760,-0.185
26.765,-0.123
26.770,-0.103
26.775,-0.126
26.780,-0.088
26.785,-0.133
26.790,-0.047
26.795,-0.092
26.800,-0.103
26.805,-0.009
26.810,-0.098
26.815,-0.046
26.820,-0.027
26.825,-0.038
26.830,-0.007
26.835,-0.067
26.840,0.016
26.845,-0.030
26.850,-0.047
26.855,0.050
26.860,-0.034
26.865,0.011
26.870,0.024
26.875,0.015
26.880,0.045
26.885,-0.011
26.890,0.083
26.895,0.042
26.900,0.026
26.905,0.123
26.910,0.039
26.915,0.083
26.920,0.097
26.925,0.100
26.930,0.144
26.935,0.099
26.940,0.202
26.945,0.171
26.950,0.167
26.955,0.275
26.960,0.194
26.965,0.236
26.970,0.250
26.975,0.255
26.980,0.292
26.985,0.229
26.990,0.298
26.995,0.215
27.000,0.145
27.005,0.170
27.010,0.007
27.015,-0.026
27.020,-0.089
27.025,-0.162
27.030,-0.189
27.035,-0.297
27.040,-0.246
27.045,-0.316
27.050,-0.347
27.055,-0.264
27.060,-0.358
27.065,-0.321
27.070,-0.311
27.075,-0.315
27.080,-0.282
27.085,-0.335
27.090,-0.236
27.095,-0.271
27.100,-0.280
27.105,-0.183
27.110,-0.264
27.115,-0.214
27.120,-0.200
27.125,-0.198
27.130,-0.160
27.135,-0.211
27.140,-0.115
27.145,-0.161
27.150,-0.174
27.155,-0.074
27.160,-0.154
27.165,-0.100
27.170,-0.082
27.175,-0.086
27.180,-0.060
27.185,-0.119
27.190,-0.023
27.195,-0.065
27.200,-0.080
27.205,0.013
27.210,-0.072
27.215,-0.028
27.220,-0.018
27.225,-0.022
27.230,0.003
27.235,-0.059
27.240,0.028
27.245,-0.023
27.250,-0.042
27.255,0.049
27.260,-0.040
27.265,0.000
27.270,0.010
27.275,0.011
27.280,0.047
27.285,-0.013
27.290,0.066
27.295,0.008
27.300,-0.012
27.305,0.086
27.310,0.004
27.315,0.037
27.320,0.036
27.325,0.035
27.330,0.062
27.335,-0.001
27.340,0.085
27.345,0.025
27.350,0.012
27.355,0.119
27.360,0.027
27.365,0.060
27.370,0.054
27.375,0.042
27.380,0.073
27.385,0.009
27.390,0.092
27.395,0.039
27.400,0.019
27.405,0.105
27.410,0.015
27.415,0.060
27.420,0.065
27.425,0.059
27.430,0.085
27.435,0.017
27.440,0.098
27.445,0.039
27.450,0.016
27.455,0.109
27.460,0.032
27.465,0.079
27.470,0.078
27.475,0.065
27.480,0.086
27.485,0.023
27.490,0.124
27.495,0.108
27.500,0.122
27.505,0.211
27.510,0.105
27.515,0.125
27.520,0.111
27.525,0.087
27.530,0.080
27.535,-0.017
27.540,0.048
27.545,-0.016
27.550,-0.045
27.555,0.036
27.560,-0.059
27.565,-0.022
27.570,-0.017
27.575,-0.020
27.580,0.001
27.585,-0.063
27.590,0.033
27.595,-0.034
27.600,-0.081
27.605,-0.004
27.610,-0.054
27.615,0.171
27.620,0.569
27.625,0.904
27.630,0.893
27.635,0.545
27.640,0.306
27.645,0.003
27.650,-0.144
27.655,-0.121
27.660,-0.193
27.665,-0.082
27.670,-0.081
27.675,-0.129
27.680,-0.106
27.685,-0.169
27.690,-0.094
27.695,-0.141
27.700,-0.148
27.705,-0.061
27.710,-0.146
27.715,-0.095
27.720,-0.090
27.725,-0.091
27.730,-0.054
27.735,-0.111
27.740,-0.024
27.745,-0.077
27.750,-0.087
27.755,0.005
27.760,-0.084
27.765,-0.040
27.770,-0.033
27.775,-0.030
27.780,-0.001
27.785,-0.061
27.790,0.038
27.795,-0.009
27.800,-0.026
27.805,0.060
27.810,-0.026
27.815,0.022
27.820,0.031
27.825,0.039
27.830,0.072
27.835,0.012
27.840,0.105
27.845,0.065
27.850,0.061
27.855,0.158
27.860,0.087
27.865,0.145
27.870,0.162
27.875,0.176
27.880,0.209
27.885,0.159
27.890,0.264
27.895,0.218
27.900,0.214
27.905,0.316
27.910,0.235
27.915,0.273
27.920,0.266
27.925,0.246
27.930,0.224
27.935,0.101
27.940,0.119
27.945,-0.013
27.950,-0.098
27.955,-0.076
27.960,-0.226
27.965,-0.234
27.970,-0.272
27.975,-0.298
27.980,-0.292
27.985,-0.369
27.990,-0.288
27.995,-0.343
28.000,-0.354
28.005,-0.267
28.010,-0.357
28.015,-0.311
28.020,-0.294
28.025,-0.274
28.030,-0.240
28.035,-0.296
28.040,-0.200
28.045,-0.249
28.050,-0.253
28.055,-0.157
28.060,-0.237
28.065,-0.187
28.070,-0.174
28.075,-0.153
28.080,-0.116
28.085,-0.178
28.090,-0.086
28.095,-0.135
28.100,-0.137
28.105,-0.039
28.110,-0.117
28.115,-0.070
28.120,-0.066
28.125,-0.056
28.130,-0.025
28.135,-0.083
28.140,0.010
28.145,-0.046
28.150,-0.056
28.155,0.036
28.160,-0.048
28.165,-0.003
28.170,-0.004
28.175,0.001
28.180,0.026
28.185,-0.035
28.190,0.060
28.195,0.003
28.200,-0.009
28.205,0.083
28.210,-0.005
28.215,0.031
28.220,0.025
28.225,0.027
28.230,0.054
28.235,-0.007
28.240,0.084
28.245,0.028
28.250,0.015
28.255,0.103
28.260,0.016
28.265,0.059
28.270,0.056
28.275,0.056
28.280,0.076
28.285,0.009
28.290,0.099
28.295,0.045
28.300,0.032
28.305,0.116
28.310,0.027
28.315,0.070
28.320,0.071
28.325,0.081
28.330,0.105
28.335,0.040
28.340,0.134
28.345,0.077
28.350,0.058
28.355,0.156
28.360,0.106
28.365,0.185
28.370,0.186
28.375,0.170
28.380,0.168
28.385,0.088
28.390,0.161
28.395,0.072
28.400,0.034
28.405,0.097
28.410,-0.009
28.415,0.020
28.420,0.006
28.425,0.003
28.430,0.021
28.435,-0.046
28.440,0.049
28.445,-0.006
28.450,-0.016
28.455,0.067
28.460,-0.046
28.465,-0.036
28.470,-0.041
28.475,0.032
28.480,0.281
28.485,0.610
28.490,0.984
28.495,0.853
28.500,0.530
28.505,0.274
28.510,-0.052
28.515,-0.125
28.520,-0.167
28.525,-0.131
28.530,-0.058
28.535,-0.128
28.540,-0.073
28.545,-0.136
28.550,-0.147
28.555,-0.069
28.560,-0.148
28.565,-0.100
28.570,-0.113
28.575,-0.100
28.580,-0.068
28.585,-0.135
28.590,-0.043
28.595,-0.100
28.600,-0.108
28.605,-0.020
28.610,-0.100
28.615,-0.053
28.620,-0.060
28.625,-0.054
28.630,-0.028
28.635,-0.083
28.640,0.017
28.645,-0.038
28.650,-0.046
28.655,0.042
28.660,-0.036
28.665,0.013
28.670,0.009
28.675,0.017
28.680,0.038
28.685,-0.020
28.690,0.082
28.695,0.027
28.700,0.021
28.705,0.112
28.710,0.038
28.715,0.090
28.720,0.095
28.725,0.121
28.730,0.158
28.735,0.111
28.740,0.221
28.745,0.177
28.750,0.182
28.755,0.280
28.760,0.205
28.765,0.253
28.770,0.253
28.775,0.267
28.780,0.281
28.785,0.199
28.790,0.257
28.795,0.142
28.800,0.067
28.805,0.079
28.810,-0.085
28.815,-0.113
28.820,-0.180
28.825,-0.224
28.830,-0.242
28.835,-0.337
28.840,-0.272
28.845,-0.348
28.850,-0.362
28.855,-0.282
28.860,-0.366
28.865,-0.320
28.870,-0.322
28.875,-0.304
28.880,-0.273
28.885,-0.328
28.890,-0.229
28.895,-0.283
28.900,-0.278
28.905,-0.180
28.910,-0.254
28.915,-0.206
28.920,-0.209
28.925,-0.189
28.930,-0.156
28.935,-0.209
28.940,-0.105
28.945,-0.157
28.950,-0.153
28.955,-0.061
28.960,-0.142
28.965,-0.093
28.970,-0.093
28.975,-0.077
28.980,-0.053
28.985,-0.112
28.990,-0.014
28.995,-0.072
29.000,-0.078
29.005,0.009
29.010,-0.073
29.015,-0.029
29.020,-0.038
29.025,-0.028
29.030,-0.008
29.035,-0.071
29.040,0.024
29.045,-0.035
29.050,-0.037
29.055,0.054
29.060,-0.028
29.065,0.014
29.070,0.003
29.075,0.011
29.080,0.029
29.085,-0.032
29.090,0.063
29.095,-0.002
29.100,-0.012
29.105,0.074
29.110,-0.006
29.115,0.041
29.120,0.029
29.125,0.037
29.130,0.054
29.135,-0.012
29.140,0.081
29.145,0.015
29.150,0.004
29.155,0.089
29.160,0.008
29.165,0.054
29.170,0.044
29.175,0.056
29.180,0.075
29.185,0.010
29.190,0.107
29.195,0.044
29.200,0.032
29.205,0.111
29.210,0.024
29.215,0.069
29.220,0.058
29.225,0.065
29.230,0.082
29.235,0.017
29.240,0.108
29.245,0.041
29.250,0.033
29.255,0.118
29.260,0.034
29.265,0.080
29.270,0.073
29.275,0.087
29.280,0.107
29.285,0.038
29.290,0.122
29.295,0.069
29.300,0.099
29.305,0.209
29.310,0.120
29.315,0.141
29.320,0.106
29.325,0.100
29.330,0.100
29.335,0.012
29.340,0.087
29.345,0.004
29.350,-0.027
29.355,0.033
29.360,-0.062
29.365,-0.022
29.370,-0.034
29.375,-0.019
29.380,-0.002
29.385,-0.067
29.390,0.033
29.395,-0.035
29.400,-0.062
29.405,-0.006
29.410,-0.097
29.415,0.008
29.420,0.199
29.425,0.606
29.430,0.939
29.435,0.797
29.440,0.630
29.445,0.290
29.450,0.006
29.455,-0.062
29.460,-0.204
29.465,-0.135
29.470,-0.077
29.475,-0.098
29.480,-0.136
29.485,-0.176
29.490,-0.081
29.495,-0.171
29.500,-0.159
29.505,-0.066
29.510,-0.163
29.515,-0.114
29.520,-0.114
29.525,-0.103
29.530,-0.086
29.535,-0.134
29.540,-0.033
29.545,-0.102
29.550,-0.104
29.555,-0.019
29.560,-0.099
29.565,-0.046
29.570,-0.055
29.575,-0.040
29.580,-0.018
29.585,-0.074
29.590,0.023
29.595,-0.043
29.600,-0.044
29.605,0.043
29.610,-0.038
29.615,0.011
29.620,0.006
29.625,0.027
29.630,0.049
29.635,-0.012
29.640,0.088
29.645,0.033
29.650,0.039
29.655,0.128
29.660,0.056
29.665,0.114
29.670,0.116
29.675,0.150
29.680,0.182
29.685,0.132
29.690,0.243
29.695,0.191
29.700,0.199
29.705,0.292
29.710,0.217
29.715,0.262
29.720,0.253
29.725,0.263
29.730,0.253
29.735,0.154
29.740,0.202
29.745,0.075
29.750,0.005
29.755,0.015
29.760,-0.131
29.765,-0.144
29.770,-0.211
29.775,-0.233
29.780,-0.248
29.785,-0.338
29.790,-0.258
29.795,-0.329
29.800,-0.333
29.805,-0.253
29.810,-0.335
29.815,-0.285
29.820,-0.297
29.825,-0.280
29.830,-0.253
29.835,-0.303
29.840,-0.197
29.845,-0.257
29.850,-0.252
29.855,-0.158
29.860,-0.229
29.865,-0.174
29.870,-0.179
29.875,-0.151
29.880,-0.126
29.885,-0.180
29.890,-0.074
29.895,-0.138
29.900,-0.139
29.905,-0.053
29.910,-0.126
29.915,-0.073
29.920,-0.086
29.925,-0.064
29.930,-0.044
29.935,-0.105
29.940,-0.006
29.945,-0.074
29.950,-0.076
29.955,0.005
29.960,-0.073
29.965,-0.022
29.970,-0.032
29.975,-0.013
29.980,0.001
29.985,-0.064
29.990,0.037
29.995,-0.028
30.000,-0.031
30.005,0.050
30.010,-0.032
30.015,0.012
30.020,-0.001
30.025,0.020
30.030,0.038
30.035,-0.021
30.040,0.079
30.045,0.010
30.050,0.005
30.055,0.081
30.060,-0.002
30.065,0.044
30.070,0.026
30.075,0.043
30.080,0.057
30.085,-0.004
30.090,0.094
30.095,0.025
30.100,0.021
30.105,0.099
30.110,0.015
30.115,0.058
30.120,0.040
30.125,0.058
30.130,0.069
30.135,0.003
30.140,0.099
30.145,0.027
30.150,0.022
30.155,0.097
30.160,0.014
30.165,0.060
30.170,0.041
30.175,0.058
30.180,0.071
30.185,0.009
30.190,0.108
30.195,0.035
30.200,0.027
30.205,0.105
30.210,0.024
30.215,0.066
30.220,0.039
30.225,0.055
30.230,0.078
30.235,0.022
30.240,0.121
30.245,0.047
30.250,0.035
30.255,0.114
30.260,0.052
30.265,0.126
30.270,0.135
30.275,0.151
30.280,0.145
30.285,0.068
30.290,0.152
30.295,0.062
30.300,0.034
30.305,0.082
30.310,-0.022
30.315,0.011
30.320,-0.016
30.325,-0.004
30.330,0.001
30.335,-0.072
30.340,0.026
30.345,-0.042
30.350,-0.045
30.355,0.035
30.360,-0.042
30.365,-0.014
30.370,-0.061
30.375,-0.046
30.380,0.031
30.385,0.188
30.390,0.689
30.395,0.899
30.400,0.788
30.405,0.583
30.410,0.212
30.415,0.010
30.420,-0.140
30.425,-0.172
30.430,-0.124
30.435,-0.128
30.440,-0.067
30.445,-0.185
30.450,-0.167
30.455,-0.085
30.460,-0.178
30.465,-0.119
30.470,-0.135
30.475,-0.130
30.480,-0.112
30.485,-0.158
30.490,-0.060
30.495,-0.133
30.500,-0.123
30.505,-0.038
30.510,-0.112
30.515,-0.057
30.520,-0.075
30.525,-0.054
30.530,-0.037
30.535,-0.100
30.540,-0.002
30.545,-0.067
30.550,-0.060
30.555,0.026
30.560,-0.047
30.565,0.004
30.570,-0.012
30.575,0.010
30.580,0.030
30.585,-0.018
30.590,0.090
30.595,0.021
30.600,0.025
30.605,0.108
30.610,0.040
30.615,0.097
30.620,0.084
30.625,0.114
30.630,0.135
30.635,0.090
30.640,0.215
30.645,0.161
30.650,0.169
30.655,0.256
30.660,0.193
30.665,0.248
30.670,0.236
30.675,0.272
30.680,0.292
30.685,0.234
30.690,0.324
30.695,0.227
30.700,0.185
30.705,0.200
30.710,0.053
30.715,0.027
30.720,-0.066
30.725,-0.112
30.730,-0.163
30.735,-0.270
30.740,-0.204
30.745,-0.302
30.750,-0.317
30.755,-0.254
30.760,-0.341
30.765,-0.299
30.770,-0.322
30.775,-0.293
30.780,-0.275
30.785,-0.336
30.790,-0.234
30.795,-0.297
30.800,-0.281
30.805,-0.191
30.810,-0.259
30.815,-0.202
30.820,-0.211
30.825,-0.181
30.830,-0.170
30.835,-0.230
30.840,-0.118
30.845,-0.173
30.850,-0.156
30.855,-0.072
30.860,-0.145
30.865,-0.094
30.870,-0.112
30.875,-0.087
30.880,-0.080
30.885,-0.135
30.890,-0.021
30.895,-0.084
30.900,-0.079
30.905,-0.009
30.910,-0.082
30.915,-0.030
30.920,-0.054
30.925,-0.024
30.930,-0.011
30.935,-0.070
30.940,0.032
30.945,-0.042
30.950,-0.032
30.955,0.049
30.960,-0.030
30.965,0.017
30.970,-0.012
30.975,0.012
30.980,0.033
30.985,-0.019
30.990,0.080
30.995,0.003
31.000,0.001
31.005,0.070
31.010,-0.006
31.015,0.042
31.020,0.019
31.025,0.046
31.030,0.056
31.035,0.001
31.040,0.107
31.045,0.027
31.050,0.017
31.055,0.091
31.060,0.020
31.065,0.065
31.070,0.038
31.075,0.060
31.080,0.065
31.085,0.004
31.090,0.105
31.095,0.028
31.100,0.026
31.105,0.098
31.110,0.031
31.115,0.090
31.120,0.068
31.125,0.092
31.130,0.093
31.135,0.035
31.140,0.162
31.145,0.129
31.150,0.157
31.155,0.224
31.160,0.125
31.165,0.152
31.170,0.112
31.175,0.122
31.180,0.104
31.185,0.010
31.190,0.086
31.195,-0.004
31.200,-0.012
31.205,0.055
31.210,-0.027
31.215,0.019
31.220,-0.005
31.225,0.017
31.230,0.018
31.235,-0.044
31.240,0.055
31.245,-0.040
31.250,-0.059
31.255,0.019
31.260,0.025
31.265,0.323
31.270,0.713
31.275,0.980
31.280,0.828
31.285,0.436
31.290,0.217
31.295,-0.056
31.300,-0.139
31.305,-0.115
31.310,-0.158
31.315,-0.062
31.320,-0.111
31.325,-0.110
31.330,-0.091
31.335,-0.156
31.340,-0.064
31.345,-0.130
31.350,-0.125
31.355,-0.058
31.360,-0.122
31.365,-0.065
31.370,-0.100
31.375,-0.075
31.380,-0.060
31.385,-0.115
31.390,-0.009
31.395,-0.080
31.400,-0.072
31.405,0.002
31.410,-0.072
31.415,-0.023
31.420,-0.051
31.425,-0.023
31.430,-0.007
31.435,-0.057
31.440,0.050
31.445,-0.022
31.450,-0.016
31.455,0.059
31.460,-0.006
31.465,0.051
31.470,0.030
31.475,0.063
31.480,0.072
31.485,0.015
31.490,0.123
31.495,0.057
31.500,0.075
31.505,0.159
31.510,0.100
31.515,0.162
31.520,0.152
31.525,0.203
31.530,0.222
31.535,0.177
31.540,0.300
31.545,0.237
31.550,0.246
31.555,0.320
31.560,0.249
31.565,0.286
31.570,0.235
31.575,0.230
31.580,0.177
31.585,0.045
31.590,0.071
31.595,-0.081
31.600,-0.145
31.605,-0.140
31.610,-0.271
31.615,-0.263
31.620,-0.319
31.625,-0.310
31.630,-0.317
31.635,-0.386
31.640,-0.287
31.645,-0.358
31.650,-0.344
31.655,-0.273
31.660,-0.346
31.665,-0.295
31.670,-0.308
31.675,-0.259
31.680,-0.245
31.685,-0.299
31.690,-0.188
31.695,-0.254
31.700,-0.233
31.705,-0.150
31.710,-0.214
31.715,-0.160
31.720,-0.182
31.725,-0.136
31.730,-0.114
31.735,-0.162
31.740,-0.055
31.745,-0.130
31.750,-0.118
31.755,-0.041
31.760,-0.107
31.765,-0.053
31.770,-0.076
31.775,-0.039
31.780,-0.029
31.785,-0.085
31.790,0.016
31.795,-0.062
31.800,-0.051
31.805,0.022
31.810,-0.051
31.815,-0.006
31.820,-0.035
31.825,-0.001
31.830,0.003
31.835,-0.059
31.840,0.043
31.845,-0.030
31.850,-0.023
31.855,0.044
31.860,-0.027
31.865,0.018
31.870,-0.012
31.875,0.022
31.880,0.024
31.885,-0.034
31.890,0.069
31.895,-0.009
31.900,-0.001
31.905,0.068
31.910,0.000
31.915,0.050
31.920,0.021
31.925,0.055
31.930,0.056
31.935,-0.004
31.940,0.100
31.945,0.020
31.950,0.027
31.955,0.095
31.960,0.018
31.965,0.064
31.970,0.036
31.975,0.069
31.980,0.065
31.985,-0.004
31.990,0.096
31.995,0.020
32.000,0.028
32.005,0.093
32.010,0.019
32.015,0.067
32.020,0.039
32.025,0.077
32.030,0.087
32.035,0.031
32.040,0.130
32.045,0.044
32.050,0.045
32.055,0.126
32.060,0.091
32.065,0.170
32.070,0.142
32.075,0.156
32.080,0.132
32.085,0.053
32.090,0.141
32.095,0.048
32.100,0.041
32.105,0.087
32.110,-0.008
32.115,0.018
32.120,-0.026
32.125,0.007
32.130,0.008
32.135,-0.047
32.140,0.061
32.145,-0.023
32.150,-0.019
32.155,0.041
32.160,-0.055
32.165,-0.031
32.170,-0.045
32.175,0.118
32.180,0.424
32.185,0.671
32.190,0.891
32.195,0.721
32.200,0.442
32.205,0.199
32.210,-0.095
32.215,-0.152
32.220,-0.158
32.225,-0.086
32.230,-0.090
32.235,-0.175
32.240,-0.090
32.245,-0.175
32.250,-0.170
32.255,-0.099
32.260,-0.165
32.265,-0.121
32.270,-0.146
32.275,-0.099
32.280,-0.099
32.285,-0.156
32.290,-0.042
32.295,-0.111
32.300,-0.097
32.305,-0.028
32.310,-0.092
32.315,-0.042
32.320,-0.068
32.325,-0.021
32.330,-0.022
32.335,-0.078
32.340,0.030
32.345,-0.048
32.350,-0.035
32.355,0.031
32.360,-0.037
32.365,0.014
32.370,-0.014
32.375,0.031
32.380,0.033
32.385,-0.022
32.390,0.089
32.395,0.014
32.400,0.032
32.405,0.102
32.410,0.038
32.415,0.094
32.420,0.075
32.425,0.131
32.430,0.144
32.435,0.101
32.440,0.221
32.445,0.155
32.450,0.179
32.455,0.255
32.460,0.200
32.465,0.257
32.470,0.233
32.475,0.279
32.480,0.271
32.485,0.197
32.490,0.268
32.495,0.137
32.500,0.090
32.505,0.079
32.510,-0.068
32.515,-0.094
32.520,-0.195
32.525,-0.213
32.530,-0.261
32.535,-0.352
32.540,-0.272
32.545,-0.367
32.550,-0.361
32.555,-0.299
32.560,-0.364
32.565,-0.316
32.570,-0.345
32.575,-0.294
32.580,-0.288
32.585,-0.331
32.590,-0.213
32.595,-0.290
32.600,-0.272
32.605,-0.197
32.610,-0.249
32.615,-0.189
32.620,-0.216
32.625,-0.169
32.630,-0.161
32.635,-0.205
32.640,-0.088
32.645,-0.156
32.650,-0.134
32.655,-0.065
32.660,-0.125
32.665,-0.073
32.670,-0.098
32.675,-0.050
32.680,-0.053
32.685,-0.102
32.690,0.011
32.695,-0.066
32.700,-0.051
32.705,0.008
32.710,-0.055
32.715,-0.003
32.720,-0.033
32.725,0.014
32.730,0.007
32.735,-0.051
32.740,0.059
32.745,-0.020
32.750,-0.003
32.755,0.057
32.760,-0.006
32.765,0.046
32.770,0.009
32.775,0.049
32.780,0.038
32.785,-0.020
32.790,0.087
32.795,0.009
32.800,0.024
32.805,0.080
32.810,0.013
32.815,0.062
32.820,0.030
32.825,0.075
32.830,0.065
32.835,0.006
32.840,0.113
32.845,0.031
32.850,0.041
32.855,0.096
32.860,0.030
32.865,0.077
32.870,0.043
32.875,0.083
32.880,0.069
32.885,0.009
32.890,0.111
32.895,0.025
32.900,0.036
32.905,0.092
32.910,0.028
32.915,0.072
32.920,0.029
32.925,0.072
32.930,0.059
32.935,0.000
32.940,0.108
32.945,0.026
32.950,0.041
32.955,0.096
32.960,0.028
32.965,0.069
32.970,0.026
32.975,0.067
32.980,0.056
32.985,0.006
32.990,0.121
32.995,0.041
33.000,0.056
33.005,0.111
33.010,0.048
33.015,0.095
33.020,0.055
33.025,0.117
33.030,0.145
33.035,0.112
33.040,0.208
33.045,0.102
33.050,0.095
33.055,0.135
33.060,0.056
33.065,0.080
33.070,0.021
33.075,0.043
33.080,0.006
33.085,-0.063
33.090,0.034
33.095,-0.053
33.100,-0.041
33.105,0.006
33.110,-0.058
33.115,-0.011
33.120,-0.044
33.125,0.003
33.130,-0.032
33.135,-0.107
33.140,0.017
33.145,0.048
33.150,0.359
33.155,0.815
33.160,0.924
33.165,0.791
33.170,0.455
33.175,0.189
33.180,-0.056
33.185,-0.204
33.190,-0.111
33.195,-0.144
33.200,-0.115
33.205,-0.129
33.210,-0.211
33.215,-0.136
33.220,-0.185
33.225,-0.144
33.230,-0.141
33.235,-0.196
33.240,-0.095
33.245,-0.167
33.250,-0.143
33.255,-0.096
33.260,-0.158
33.265,-0.103
33.270,-0.134
33.275,-0.070
33.280,-0.069
33.285,-0.122
33.290,-0.024
33.295,-0.108
33.300,-0.085
33.305,-0.029
33.310,-0.085
33.315,-0.036
33.320,-0.076
33.325,-0.019
33.330,-0.025
33.335,-0.075
33.340,0.034
33.345,-0.056
33.350,-0.024
33.355,0.060
33.360,0.016
33.365,0.069
33.370,0.026
33.375,0.077
33.380,0.076
33.385,0.028
33.390,0.141
33.395,0.074
33.400,0.108
33.405,0.175
33.410,0.136
33.415,0.196
33.420,0.167
33.425,0.232
33.430,0.233
33.435,0.193
33.440,0.308
33.445,0.230
33.450,0.248
33.455,0.293
33.460,0.211
33.465,0.205
33.470,0.102
33.475,0.079
33.480,-0.010
33.485,-0.126
33.490,-0.081
33.495,-0.220
33.500,-0.246
33.505,-0.238
33.510,-0.322
33.515,-0.290
33.520,-0.345
33.525,-0.297
33.530,-0.310
33.535,-0.361
33.540,-0.252
33.545,-0.326
33.550,-0.296
33.555,-0.240
33.560,-0.288
33.565,-0.229
33.570,-0.264
33.575,-0.204
33.580,-0.209
33.585,-0.255
33.590,-0.137
33.595,-0.209
33.600,-0.177
33.605,-0.123
33.610,-0.179
33.615,-0.123
33.620,-0.153
33.625,-0.092
33.630,-0.100
33.635,-0.144
33.640,-0.028
33.645,-0.104
33.650,-0.081
33.655,-0.027
33.660,-0.082
33.665,-0.035
33.670,-0.066
33.675,-0.002
33.680,-0.012
33.685,-0.060
33.690,0.044
33.695,-0.042
33.700,-0.020
33.705,0.031
33.710,-0.023
33.715,0.024
33.720,-0.021
33.725,0.035
33.730,0.027
33.735,-0.019
33.740,0.088
33.745,0.004
33.750,0.026
33.755,0.069
33.760,0.010
33.765,0.058
33.770,0.013
33.775,0.064
33.780,0.047
33.785,-0.001
33.790,0.113
33.795,0.032
33.800,0.050
33.805,0.100
33.810,0.046
33.815,0.088
33.820,0.035
33.825,0.079
33.830,0.057
33.835,0.006
33.840,0.115
33.845,0.030
33.850,0.053
33.855,0.102
33.860,0.043
33.865,0.085
33.870,0.039
33.875,0.092
33.880,0.077
33.885,0.031
33.890,0.133
33.895,0.043
33.900,0.062
33.905,0.103
33.910,0.045
33.915,0.088
33.920,0.046
33.925,0.113
33.930,0.102
33.935,0.051
33.940,0.151
33.945,0.057
33.950,0.076
33.955,0.129
33.960,0.108
33.965,0.189
33.970,0.148
33.975,0.181
33.980,0.133
33.985,0.062
33.990,0.155
33.995,0.049
34.000,0.045
34.005,0.066
34.010,-0.013
34.015,0.013
34.020,-0.041
34.025,0.012
34.030,-0.008
34.035,-0.059
34.040,0.051
34.045,-0.034
34.050,-0.010
34.055,0.035
34.060,-0.042
34.065,-0.033
34.070,-0.095
34.075,-0.001
34.080,0.151
34.085,0.473
34.090,0.926
34.095,0.837
34.100,0.580
34.105,0.299
34.110,0.002
34.115,-0.078
34.120,-0.189
34.125,-0.136
34.130,-0.100
34.135,-0.141
34.140,-0.079
34.145,-0.173
34.150,-0.143
34.155,-0.105
34.160,-0.149
34.165,-0.095
34.170,-0.151
34.175,-0.092
34.180,-0.093
34.185,-0.138
34.190,-0.035
34.195,-0.114
34.200,-0.081
34.205,-0.030
34.210,-0.080
34.215,-0.034
34.220,-0.073
34.225,-0.012
34.230,-0.030
34.235,-0.073
34.240,0.038
34.245,-0.048
34.250,-0.028
34.255,0.022
34.260,-0.017
34.265,0.030
34.270,-0.018
34.275,0.041
34.280,0.024
34.285,-0.014
34.290,0.101
34.295,0.018
34.300,0.041
34.305,0.084
34.310,0.041
34.315,0.103
34.320,0.071
34.325,0.138
34.330,0.130
34.335,0.104
34.340,0.231
34.345,0.161
34.350,0.195
34.355,0.248
34.360,0.215
34.365,0.276
34.370,0.240
34.375,0.306
34.380,0.278
34.385,0.210
34.390,0.280
34.395,0.141
34.400,0.103
34.405,0.078
34.410,-0.047
34.415,-0.080
34.420,-0.195
34.425,-0.192
34.430,-0.259
34.435,-0.344
34.440,-0.267
34.445,-0.370
34.450,-0.354
34.455,-0.316
34.460,-0.370
34.465,-0.331
34.470,-0.377
34.475,-0.308
34.480,-0.317
34.485,-0.357
34.490,-0.246
34.495,-0.315
34.500,-0.268
34.505,-0.215
34.510,-0.257
34.515,-0.203
34.520,-0.242
34.525,-0.169
34.530,-0.175
34.535,-0.211
34.540,-0.095
34.545,-0.171
34.550,-0.133
34.555,-0.081
34.560,-0.125
34.565,-0.077
34.570,-0.117
34.575,-0.046
34.580,-0.063
34.585,-0.107
34.590,0.004
34.595,-0.081
34.600,-0.053
34.605,-0.006
34.610,-0.050
34.615,-0.006
34.620,-0.055
34.625,0.012
34.630,0.001
34.635,-0.041
34.640,0.062
34.645,-0.030
34.650,-0.002
34.655,0.039
34.660,-0.015
34.665,0.026
34.670,-0.020
34.675,0.041
34.680,0.017
34.685,-0.025
34.690,0.084
34.695,-0.003
34.700,0.021
34.705,0.058
34.710,0.013
34.715,0.059
34.720,0.012
34.725,0.075
34.730,0.053
34.735,0.004
34.740,0.105
34.745,0.014
34.750,0.036
34.755,0.075
34.760,0.031
34.765,0.077
34.770,0.030
34.775,0.090
34.780,0.063
34.785,0.018
34.790,0.124
34.795,0.034
34.800,0.060
34.805,0.105
34.810,0.064
34.815,0.106
34.820,0.059
34.825,0.118
34.830,0.088
34.835,0.054
34.840,0.192
34.845,0.139
34.850,0.167
34.855,0.176
34.860,0.100
34.865,0.121
34.870,0.064
34.875,0.113
34.880,0.063
34.885,-0.008
34.890,0.073
34.895,-0.027
34.900,-0.001
34.905,0.038
34.910,-0.010
34.915,0.027
34.920,-0.026
34.925,0.038
34.930,0.017
34.935,-0.039
34.940,0.030
34.945,-0.082
34.950,-0.021
34.955,0.179
34.960,0.506
34.965,0.891
34.970,0.823
34.975,0.658
34.980,0.358
34.985,0.043
34.990,-0.012
34.995,-0.190
35.000,-0.163
35.005,-0.052
35.010,-0.104
35.015,-0.114
35.020,-0.158
35.025,-0.094
35.030,-0.137
35.035,-0.163
35.040,-0.048
35.045,-0.149
35.050,-0.118
35.055,-0.066
35.060,-0.109
35.065,-0.069
35.070,-0.112
35.075,-0.050
35.080,-0.080
35.085,-0.106
35.090,0.010
35.095,-0.083
35.100,-0.057
35.105,-0.014
35.110,-0.051
35.115,-0.008
35.120,-0.059
35.125,0.009
35.130,-0.013
35.135,-0.050
35.140,0.057
35.145,-0.031
35.150,-0.001
35.155,0.039
35.160,0.001
35.165,0.050
35.170,0.012
35.175,0.093
35.180,0.073
35.185,0.035
35.190,0.148
35.195,0.075
35.200,0.118
35.205,0.164
35.210,0.136
35.215,0.196
35.220,0.168
35.225,0.253
35.230,0.233
35.235,0.198
35.240,0.314
35.245,0.241
35.250,0.278
35.255,0.309
35.260,0.247
35.265,0.250
35.270,0.158
35.275,0.172
35.280,0.070
35.285,-0.054
35.290,-0.029
35.295,-0.183
35.300,-0.210
35.305,-0.227
35.310,-0.306
35.315,-0.292
35.320,-0.363
35.325,-0.307
35.330,-0.338
35.335,-0.378
35.340,-0.275
35.345,-0.361
35.350,-0.323
35.355,-0.280
35.360,-0.314
35.365,-0.269
35.370,-0.313
35.375,-0.235
35.380,-0.253
35.385,-0.284
35.390,-0.171
35.395,-0.244
35.400,-0.194
35.405,-0.159
35.410,-0.204
35.415,-0.155
35.420,-0.189
35.425,-0.101
35.430,-0.119
35.435,-0.153
35.440,-0.041
35.445,-0.122
35.450,-0.085
35.455,-0.046
35.460,-0.081
35.465,-0.042
35.470,-0.091
35.475,-0.015
35.480,-0.040
35.485,-0.077
35.490,0.028
35.495,-0.056
35.500,-0.028
35.505,-0.003
35.510,-0.041
35.515,0.003
35.520,-0.042
35.525,0.031
35.530,-0.002
35.535,-0.041
35.540,0.065
35.545,-0.024
35.550,0.004
35.555,0.032
35.560,-0.009
35.565,0.032
35.570,-0.018
35.575,0.053
35.580,0.023
35.585,-0.017
35.590,0.083
35.595,-0.008
35.600,0.022
35.605,0.055
35.610,0.018
35.615,0.056
35.620,0.007
35.625,0.082
35.630,0.054
35.635,0.013
35.640,0.112
35.645,0.026
35.650,0.058
35.655,0.084
35.660,0.045
35.665,0.079
35.670,0.022
35.675,0.092
35.680,0.055
35.685,0.010
35.690,0.108
35.695,0.017
35.700,0.048
35.705,0.078
35.710,0.037
35.715,0.071
35.720,0.019
35.725,0.090
35.730,0.052
35.735,0.012
35.740,0.117
35.745,0.035
35.750,0.070
35.755,0.096
35.760,0.057
35.765,0.094
35.770,0.037
35.775,0.109
35.780,0.101
35.785,0.092
35.790,0.199
35.795,0.089
35.800,0.095
35.805,0.110
35.810,0.062
35.815,0.086
35.820,0.019
35.825,0.070
35.830,0.017
35.835,-0.038
35.840,0.047
35.845,-0.050
35.850,-0.023
35.855,0.002
35.860,-0.030
35.865,0.003
35.870,-0.060
35.875,0.012
35.880,-0.035
35.885,-0.098
35.890,0.000
35.895,-0.016
35.900,0.250
35.905,0.687
35.910,0.933
35.915,0.876
35.920,0.534
35.925,0.292
35.930,0.002
35.935,-0.168
35.940,-0.110
35.945,-0.168
35.950,-0.093
35.955,-0.104
35.960,-0.185
35.965,-0.132
35.970,-0.186
35.975,-0.127
35.980,-0.144
35.985,-0.172
35.990,-0.082
35.995,-0.166
36.000,-0.121
36.005,-0.096
36.010,-0.131
36.015,-0.084
36.020,-0.131
36.025,-0.054
36.030,-0.081
36.035,-0.116
36.040,-0.018
36.045,-0.102
36.050,-0.061
36.055,-0.033
36.060,-0.065
36.065,-0.024
36.070,-0.072
36.075,0.006
36.080,-0.026
36.085,-0.060
36.090,0.044
36.095,-0.037
36.100,0.005
36.105,0.037
36.110,0.010
36.115,0.046
36.120,-0.006
36.125,0.080
36.130,0.053
36.135,0.024
36.140,0.138
36.145,0.065
36.150,0.119
36.155,0.164
36.160,0.148
36.165,0.199
36.170,0.162
36.175,0.256
36.180,0.235
36.185,0.209
36.190,0.314
36.195,0.228
36.200,0.262
36.205,0.278
36.210,0.226
36.215,0.224
36.220,0.112
36.225,0.115
36.230,0.005
36.235,-0.099
36.240,-0.070
36.245,-0.220
36.250,-0.234
36.255,-0.249
36.260,-0.307
36.265,-0.288
36.270,-0.356
36.275,-0.291
36.280,-0.333
36.285,-0.369
36.290,-0.261
36.295,-0.338
36.300,-0.298
36.305,-0.270
36.310,-0.291
36.315,-0.245
36.320,-0.290
36.325,-0.204
36.330,-0.231
36.335,-0.256
36.340,-0.150
36.345,-0.234
36.350,-0.190
36.355,-0.154
36.360,-0.172
36.365,-0.123
36.370,-0.166
36.375,-0.081
36.380,-0.111
36.385,-0.143
36.390,-0.043
36.395,-0.124
36.400,-0.078
36.405,-0.043
36.410,-0.065
36.415,-0.026
36.420,-0.076
36.425,0.007
36.430,-0.026
36.435,-0.053
36.440,0.056
36.445,-0.033
36.450,-0.003
36.455,0.018
36.460,-0.012
36.465,0.027
36.470,-0.022
36.475,0.061
36.480,0.027
36.485,-0.006
36.490,0.088
36.495,-0.002
36.500,0.032
36.505,0.053
36.510,0.027
36.515,0.058
36.520,-0.001
36.525,0.078
36.530,0.041
36.535,0.006
36.540,0.101
36.545,0.007
36.550,0.040
36.555,0.062
36.560,0.035
36.565,0.070
36.570,0.009
36.575,0.081
36.580,0.044
36.585,0.014
36.590,0.115
36.595,0.026
36.600,0.055
36.605,0.074
36.610,0.047
36.615,0.082
36.620,0.025
36.625,0.096
36.630,0.056
36.635,0.025
36.640,0.123
36.645,0.034
36.650,0.068
36.655,0.088
36.660,0.061
36.665,0.094
36.670,0.036
36.675,0.113
36.680,0.075
36.685,0.048
36.690,0.149
36.695,0.053
36.700,0.082
36.705,0.103
36.710,0.078
36.715,0.115
36.720,0.087
36.725,0.197
36.730,0.160
36.735,0.107
36.740,0.175
36.745,0.062
36.750,0.085
36.755,0.089
36.760,0.046
36.765,0.063
36.770,-0.018
36.775,0.037
36.780,-0.017
36.785,-0.052
36.790,0.052
36.795,-0.037
36.800,-0.009
36.805,0.003
36.810,-0.026
36.815,0.009
36.820,-0.059
36.825,-0.008
36.830,-0.062
36.835,-0.049
36.840,0.235
36.845,0.535
36.850,0.855
36.855,0.808
36.860,0.570
36.865,0.324
36.870,0.017
36.875,-0.058
36.880,-0.186
36.885,-0.185
36.890,-0.031
36.895,-0.147
36.900,-0.148
36.905,-0.118
36.910,-0.147
36.915,-0.132
36.920,-0.180
36.925,-0.093
36.930,-0.141
36.935,-0.161
36.940,-0.053
36.945,-0.154
36.950,-0.116
36.955,-0.082
36.960,-0.103
36.965,-0.067
36.970,-0.118
36.975,-0.037
36.980,-0.080
36.985,-0.102
36.990,0.002
36.995,-0.086
37.000,-0.047
37.005,-0.024
37.010,-0.035
37.015,0.007
37.020,-0.046
37.025,0.041
37.030,0.002
37.035,-0.027
37.040,0.072
37.045,-0.016
37.050,0.027
37.055,0.058
37.060,0.050
37.065,0.091
37.070,0.044
37.075,0.136
37.080,0.104
37.085,0.086
37.090,0.195
37.095,0.128
37.100,0.186
37.105,0.214
37.110,0.209
37.115,0.257
37.120,0.214
37.125,0.309
37.130,0.273
37.135,0.246
37.140,0.340
37.145,0.238
37.150,0.245
37.155,0.217
37.160,0.138
37.165,0.097
37.170,-0.032
37.175,-0.019
37.180,-0.131
37.185,-0.222
37.190,-0.174
37.195,-0.302
37.200,-0.292
37.205,-0.293
37.210,-0.329
37.215,-0.304
37.220,-0.355
37.225,-0.266
37.230,-0.311
37.235,-0.349
37.240,-0.260
37.245,-0.336
37.250,-0.278
37.255,-0.249
37.260,-0.261
37.265,-0.226
37.270,-0.282
37.275,-0.192
37.280,-0.219
37.285,-0.232
37.290,-0.127
37.295,-0.208
37.300,-0.161
37.305,-0.136
37.310,-0.149
37.315,-0.114
37.320,-0.168
37.325,-0.077
37.330,-0.107
37.335,-0.122
37.340,-0.020
37.345,-0.109
37.350,-0.068
37.355,-0.048
37.360,-0.067
37.365,-0.031
37.370,-0.087
37.375,-0.002
37.380,-0.040
37.385,-0.066
37.390,0.033
37.395,-0.058
37.400,-0.018
37.405,0.009
37.410,-0.003
37.415,0.028
37.420,-0.034
37.425,0.043
37.430,-0.002
37.435,-0.026
37.440,0.072
37.445,-0.016
37.450,0.016
37.455,0.028
37.460,0.018
37.465,0.054
37.470,-0.005
37.475,0.072
37.480,0.020
37.485,-0.005
37.490,0.097
37.495,0.014
37.500,0.051
37.505,0.053
37.510,0.030
37.515,0.065
37.520,0.012
37.525,0.097
37.530,0.050
37.535,0.021
37.540,0.117
37.545,0.033
37.550,0.078
37.555,0.093
37.560,0.075
37.565,0.110
37.570,0.054
37.575,0.141
37.580,0.111
37.585,0.113
37.590,0.223
37.595,0.118
37.600,0.127
37.605,0.120
37.610,0.091
37.615,0.109
37.620,0.031
37.625,0.098
37.630,0.038
37.635,-0.006
37.640,0.073
37.645,-0.022
37.650,0.020
37.655,0.037
37.660,0.023
37.665,0.048
37.670,-0.016
37.675,0.059
37.680,-0.019
37.685,-0.070
37.690,0.042
37.695,0.067
37.700,0.399
37.705,0.809
37.710,0.962
37.715,0.795
37.720,0.410
37.725,0.188
37.730,-0.055
37.735,-0.160
37.740,-0.097
37.745,-0.147
37.750,-0.071
37.755,-0.097
37.760,-0.136
37.765,-0.103
37.770,-0.181
37.775,-0.096
37.780,-0.120
37.785,-0.141
37.790,-0.054
37.795,-0.140
37.800,-0.099
37.805,-0.087
37.810,-0.090
37.815,-0.050
37.820,-0.108
37.825,-0.020
37.830,-0.060
37.835,-0.080
37.840,0.013
37.845,-0.071
37.850,-0.027
37.855,-0.012
37.860,-0.022
37.865,0.005
37.870,-0.054
37.875,0.036
37.880,-0.006
37.885,-0.021
37.890,0.078
37.895,-0.008
37.900,0.033
37.905,0.043
37.910,0.038
37.915,0.078
37.920,0.028
37.925,0.122
37.930,0.077
37.935,0.061
37.940,0.169
37.945,0.095
37.950,0.148
37.955,0.175
37.960,0.182
37.965,0.223
37.970,0.174
37.975,0.272
37.980,0.234
37.985,0.224
37.990,0.328
37.995,0.242
38.000,0.267
38.005,0.251
38.010,0.204
38.015,0.174
38.020,0.042
38.025,0.046
38.030,-0.079
38.035,-0.167
38.040,-0.136
38.045,-0.276
38.050,-0.275
38.055,-0.298
38.060,-0.335
38.065,-0.328
38.070,-0.392
38.075,-0.304
38.080,-0.351
38.085,-0.367
38.090,-0.272
38.095,-0.354
38.100,-0.304
38.105,-0.286
38.110,-0.282
38.115,-0.247
38.120,-0.306
38.125,-0.213
38.130,-0.249
38.135,-0.253
38.140,-0.148
38.145,-0.233
38.150,-0.186
38.155,-0.166
38.160,-0.160
38.165,-0.120
38.170,-0.173
38.175,-0.075
38.180,-0.114
38.185,-0.127
38.190,-0.024
38.195,-0.110
38.200,-0.066
38.205,-0.051
38.210,-0.060
38.215,-0.034
38.220,-0.093
38.225,-0.002
38.230,-0.050
38.235,-0.069
38.240,0.025
38.245,-0.058
38.250,-0.013
38.255,-0.007
38.260,-0.014
38.265,0.015
38.270,-0.042
38.275,0.047
38.280,-0.003
38.285,-0.020
38.290,0.071
38.295,-0.022
38.300,0.015
38.305,0.018
38.310,0.015
38.315,0.046
38.320,-0.013
38.325,0.076
38.330,0.015
38.335,-0.012
38.340,0.078
38.345,-0.012
38.350,0.028
38.355,0.032
38.360,0.027
38.365,0.057
38.370,-0.008
38.375,0.079
38.380,0.026
38.385,0.004
38.390,0.098
38.395,0.012
38.400,0.051
38.405,0.053
38.410,0.047
38.415,0.075
38.420,0.013
38.425,0.095
38.430,0.042
38.435,0.029
38.440,0.125
38.445,0.042
38.450,0.084
38.455,0.088
38.460,0.088
38.465,0.137
38.470,0.104
38.475,0.196
38.480,0.119
38.485,0.078
38.490,0.152
38.495,0.051
38.500,0.081
38.505,0.071
38.510,0.054
38.515,0.058
38.520,-0.026
38.525,0.052
38.530,-0.006
38.535,-0.027
38.540,0.060
38.545,-0.031
38.550,0.009
38.555,0.013
38.560,0.000
38.565,-0.002
38.570,-0.084
38.575,0.044
38.580,0.158
38.585,0.484
38.590,0.937
38.595,0.914
38.600,0.719
38.605,0.403
38.610,0.098
38.615,-0.063
38.620,-0.185
38.625,-0.094
38.630,-0.098
38.635,-0.114
38.640,-0.082
38.645,-0.180
38.650,-0.132
38.655,-0.143
38.660,-0.137
38.665,-0.095
38.670,-0.162
38.675,-0.076
38.680,-0.116
38.685,-0.126
38.690,-0.039
38.695,-0.118
38.700,-0.069
38.705,-0.067
38.710,-0.064
38.715,-0.033
38.720,-0.092
38.725,0.003
38.730,-0.049
38.735,-0.062
38.740,0.032
38.745,-0.051
38.750,-0.006
38.755,-0.001
38.760,0.002
38.765,0.031
38.770,-0.027
38.775,0.066
38.780,0.016
38.785,0.004
38.790,0.094
38.795,0.011
38.800,0.057
38.805,0.067
38.810,0.077
38.815,0.114
38.820,0.064
38.825,0.164
38.830,0.122
38.835,0.118
38.840,0.219
38.845,0.149
38.850,0.205
38.855,0.221
38.860,0.234
38.865,0.260
38.870,0.205
38.875,0.305
38.880,0.252
38.885,0.232
38.890,0.297
38.895,0.172
38.900,0.160
38.905,0.094
38.910,0.023
38.915,-0.030
38.920,-0.165
38.925,-0.134
38.930,-0.243
38.935,-0.299
38.940,-0.241
38.945,-0.348
38.950,-0.315
38.955,-0.321
38.960,-0.326
38.965,-0.302
38.970,-0.365
38.975,-0.271
38.980,-0.320
38.985,-0.325
38.990,-0.226
38.995,-0.306
39.000,-0.256
39.005,-0.246
39.010,-0.234
39.015,-0.200
39.020,-0.255
39.025,-0.153
39.030,-0.197
39.035,-0.203
39.040,-0.105
39.045,-0.181
39.050,-0.128
39.055,-0.118
39.060,-0.111
39.065,-0.084
39.070,-0.140
39.075,-0.045
39.080,-0.097
39.085,-0.103
39.090,-0.009
39.095,-0.093
39.100,-0.051
39.105,-0.053
39.110,-0.046
39.115,-0.017
39.120,-0.074
39.125,0.023
39.130,-0.034
39.135,-0.049
39.140,0.042
39.145,-0.042
39.150,0.004
39.155,0.003
39.160,0.001
39.165,0.018
39.170,-0.046
39.175,0.044
39.180,-0.012
39.185,-0.023
39.190,0.066
39.195,-0.017
39.200,0.026
39.205,0.024
39.210,0.029
39.215,0.051
39.220,-0.016
39.225,0.073
39.230,0.020
39.235,0.011
39.240,0.095
39.245,0.004
39.250,0.039
39.255,0.033
39.260,0.038
39.265,0.059
39.270,-0.002
39.275,0.094
39.280,0.034
39.285,0.015
39.290,0.094
39.295,0.005
39.300,0.051
39.305,0.051
39.310,0.051
39.315,0.066
39.320,0.004
39.325,0.100
39.330,0.038
39.335,0.022
39.340,0.104
39.345,0.005
39.350,0.053
39.355,0.072
39.360,0.082
39.365,0.100
39.370,0.027
39.375,0.114
39.380,0.056
39.385,0.038
39.390,0.143
39.395,0.093
39.400,0.144
39.405,0.124
39.410,0.112
39.415,0.115
39.420,0.033
39.425,0.105
39.430,0.029
39.435,0.002
39.440,0.066
39.445,-0.037
39.450,-0.006
39.455,-0.021
39.460,-0.019
39.465,0.004
39.470,-0.055
39.475,0.038
39.480,-0.022
39.485,-0.031
39.490,0.045
39.495,-0.066
39.500,-0.040
39.505,-0.012
39.510,0.160
39.515,0.526
39.520,0.742
39.525,0.864
39.530,0.649
39.535,0.352
39.540,0.160
39.545,-0.118
39.550,-0.156
39.555,-0.126
39.560,-0.082
39.565,-0.082
39.570,-0.177
39.575,-0.087
39.580,-0.152
39.585,-0.171
39.590,-0.076
39.595,-0.157
39.600,-0.115
39.605,-0.109
39.610,-0.090
39.615,-0.067
39.620,-0.123
39.625,-0.022
39.630,-0.082
39.635,-0.096
39.640,-0.007
39.645,-0.085
39.650,-0.037
39.655,-0.036
39.660,-0.022
39.665,-0.004
39.670,-0.067
39.675,0.032
39.680,-0.026
39.685,-0.035
39.690,0.057
39.695,-0.020
39.700,0.026
39.705,0.016
39.710,0.021
39.715,0.046
39.720,-0.004
39.725,0.098
39.730,0.042
39.735,0.043
39.740,0.134
39.745,0.057
39.750,0.117
39.755,0.122
39.760,0.143
39.765,0.173
39.770,0.122
39.775,0.234
39.780,0.186
39.785,0.183
39.790,0.274
39.795,0.207
39.800,0.265
39.805,0.263
39.810,0.274
39.815,0.286
39.820,0.201
39.825,0.256
39.830,0.131
39.835,0.051
39.840,0.065
39.845,-0.093
39.850,-0.117
39.855,-0.178
39.860,-0.214
39.865,-0.239
39.870,-0.333
39.875,-0.258
39.880,-0.331
39.885,-0.349
39.890,-0.274
39.895,-0.357
39.900,-0.311
39.905,-0.319
39.910,-0.297
39.915,-0.261
39.920,-0.309
39.925,-0.206
39.930,-0.266
39.935,-0.262
39.940,-0.162
39.945,-0.237
39.950,-0.184
39.955,-0.183
39.960,-0.161
39.965,-0.130
39.970,-0.189
39.975,-0.092
39.980,-0.150
39.985,-0.150
39.990,-0.057
39.995,-0.135
40.000,-0.086
40.005,-0.087
40.010,-0.065
40.015,-0.043
40.020,-0.105
40.025,-0.004
40.030,-0.059
40.035,-0.062
40.040,0.018
40.045,-0.065
40.050,-0.018
40.055,-0.029
40.060,-0.019
40.065,0.000
40.070,-0.055
40.075,0.047
40.080,-0.025
40.085,-0.036
40.090,0.050
40.095,-0.030
40.100,0.017
40.105,0.003
40.110,0.011
40.115,0.029
40.120,-0.028
40.125,0.073
40.130,0.010
40.135,0.005
40.140,0.087
40.145,0.003
40.150,0.050
40.155,0.034
40.160,0.043
40.165,0.065
40.170,0.008
40.175,0.113
40.180,0.050
40.185,0.034
40.190,0.107
40.195,0.021
40.200,0.070
40.205,0.067
40.210,0.088
40.215,0.109
40.220,0.047
40.225,0.137
40.230,0.066
40.235,0.071
40.240,0.192
40.245,0.139
40.250,0.173
40.255,0.127
40.260,0.118
40.265,0.124
40.270,0.045
40.275,0.122
40.280,0.036
40.285,0.013
40.290,0.079
40.295,-0.023
40.300,0.009
40.305,-0.004
40.310,0.010
40.315,0.026
40.320,-0.037
40.325,0.058
40.330,-0.012
40.335,-0.039
40.340,0.011
40.345,-0.076
40.350,0.036
40.355,0.242
40.360,0.667
40.365,0.966
40.370,0.768
40.375,0.564
40.380,0.213
40.385,-0.012
40.390,-0.042
40.395,-0.195
40.400,-0.130
40.405,-0.070
40.410,-0.073
40.415,-0.095
40.420,-0.147
40.425,-0.063
40.430,-0.150
40.435,-0.134
40.440,-0.040
40.445,-0.132
40.450,-0.080
40.455,-0.084
40.460,-0.074
40.465,-0.060
40.470,-0.112
40.475,-0.011
40.480,-0.077
40.485,-0.074
40.490,0.009
40.495,-0.076
40.500,-0.031
40.505,-0.043
40.510,-0.026
40.515,-0.010
40.520,-0.067
40.525,0.036
40.530,-0.030
40.535,-0.032
40.540,0.052
40.545,-0.024
40.550,0.031
40.555,0.020
40.560,0.036
40.565,0.054
40.570,0.000
40.575,0.109
40.580,0.055
40.585,0.063
40.590,0.152
40.595,0.083
40.600,0.140
40.605,0.137
40.610,0.171
40.615,0.200
40.620,0.150
40.625,0.263
40.630,0.214
40.635,0.226
40.640,0.318
40.645,0.247
40.650,0.292
40.655,0.268
40.660,0.264
40.665,0.236
40.670,0.117
40.675,0.148
40.680,0.001
40.685,-0.079
40.690,-0.067
40.695,-0.209
40.700,-0.216
40.705,-0.278
40.710,-0.295
40.715,-0.301
40.720,-0.376
40.725,-0.284
40.730,-0.355
40.735,-0.357
40.740,-0.274
40.745,-0.352
40.750,-0.301
40.755,-0.309
40.760,-0.285
40.765,-0.263
40.770,-0.312
40.775,-0.202
40.780,-0.260
40.785,-0.253
40.790,-0.167
40.795,-0.236
40.800,-0.177
40.805,-0.185
40.810,-0.158
40.815,-0.131
40.820,-0.179
40.825,-0.070
40.830,-0.133
40.835,-0.134
40.840,-0.054
40.845,-0.128
40.850,-0.076
40.855,-0.085
40.860,-0.057
40.865,-0.042
40.870,-0.098
40.875,0.010
40.880,-0.054
40.885,-0.057
40.890,0.018
40.895,-0.059
40.900,-0.006
40.905,-0.021
40.910,-0.001
40.915,0.012
40.920,-0.045
40.925,0.060
40.930,-0.010
40.935,-0.015
40.940,0.061
40.945,-0.018
40.950,0.028
40.955,0.008
40.960,0.029
40.965,0.042
40.970,-0.020
40.975,0.081
40.980,0.009
40.985,0.008
40.990,0.090
40.995,0.009
41.000,0.051
41.005,0.034
41.010,0.054
41.015,0.064
41.020,0.002
41.025,0.100
41.030,0.030
41.035,0.028
41.040,0.099
41.045,0.015
41.050,0.057
41.055,0.037
41.060,0.063
41.065,0.079
41.070,0.020
41.075,0.118
41.080,0.050
41.085,0.052
41.090,0.131
41.095,0.072
41.100,0.147
41.105,0.136
41.110,0.142
41.115,0.129
41.120,0.049
41.125,0.137
41.130,0.051
41.135,0.034
41.140,0.099
41.145,0.001
41.150,0.024
41.155,-0.013
41.160,0.004
41.165,0.014
41.170,-0.050
41.175,0.050
41.180,-0.028
41.185,-0.036
41.190,0.036
41.195,-0.064
41.200,-0.035
41.205,-0.026
41.210,0.133
41.215,0.457
41.220,0.706
41.225,0.900
41.230,0.708
41.235,0.413
41.240,0.181
41.245,-0.110
41.250,-0.154
41.255,-0.145
41.260,-0.080
41.265,-0.079
41.270,-0.172
41.275,-0.087
41.280,-0.170
41.285,-0.181
41.290,-0.096
41.295,-0.157
41.300,-0.108
41.305,-0.128
41.310,-0.097
41.315,-0.083
41.320,-0.141
41.325,-0.035
41.330,-0.104
41.335,-0.096
41.340,-0.012
41.345,-0.087
41.350,-0.039
41.355,-0.057
41.360,-0.026
41.365,-0.016
41.370,-0.079
41.375,0.027
41.380,-0.040
41.385,-0.034
41.390,0.044
41.395,-0.032
41.400,0.017
41.405,-0.003
41.410,0.029
41.415,0.048
41.420,-0.005
41.425,0.103
41.430,0.038
41.435,0.048
41.440,0.130
41.445,0.065
41.450,0.120
41.455,0.110
41.460,0.155
41.465,0.179
41.470,0.137
41.475,0.254
41.480,0.191
41.485,0.208
41.490,0.297
41.495,0.235
41.500,0.286
41.505,0.265
41.510,0.297
41.515,0.296
41.520,0.214
41.525,0.277
41.530,0.144
41.535,0.080
41.540,0.078
41.545,-0.074
41.550,-0.098
41.555,-0.186
41.560,-0.208
41.565,-0.238
41.570,-0.327
41.575,-0.247
41.580,-0.337
41.585,-0.338
41.590,-0.267
41.595,-0.345
41.600,-0.299
41.605,-0.321
41.610,-0.287
41.615,-0.269
41.620,-0.316
41.625,-0.204
41.630,-0.266
41.635,-0.252
41.640,-0.173
41.645,-0.240
41.650,-0.186
41.655,-0.204
41.660,-0.170
41.665,-0.156
41.670,-0.202
41.675,-0.087
41.680,-0.153
41.685,-0.143
41.690,-0.066
41.695,-0.136
41.700,-0.088
41.705,-0.110
41.710,-0.073
41.715,-0.064
41.720,-0.118
41.725,-0.005
41.730,-0.071
41.735,-0.062
41.740,0.009
41.745,-0.067
41.750,-0.016
41.755,-0.037
41.760,-0.002
41.765,0.005
41.770,-0.058
41.775,0.041
41.780,-0.036
41.785,-0.028
41.790,0.049
41.795,-0.025
41.800,0.019
41.805,-0.002
41.810,0.035
41.815,0.040
41.820,-0.025
41.825,0.073
41.830,-0.003
41.835,0.005
41.840,0.076
41.845,0.003
41.850,0.051
41.855,0.025
41.860,0.057
41.865,0.057
41.870,-0.009
41.875,0.090
41.880,0.017
41.885,0.027
41.890,0.095
41.895,0.018
41.900,0.063
41.905,0.036
41.910,0.070
41.915,0.075
41.920,0.022
41.925,0.135
41.930,0.054
41.935,0.050
41.940,0.110
41.945,0.035
41.950,0.101
41.955,0.106
41.960,0.160
41.965,0.156
41.970,0.077
41.975,0.163
41.980,0.068
41.985,0.055
41.990,0.108
41.995,0.017
42.000,0.042
42.005,-0.012
42.010,0.000
42.015,-0.001
42.020,-0.058
42.025,0.047
42.030,-0.025
42.035,-0.019
42.040,0.047
42.045,-0.023
42.050,0.017
42.055,-0.041
42.060,-0.029
42.065,-0.003
42.070,0.070
42.075,0.499
42.080,0.813
42.085,0.889
42.090,0.733
42.095,0.412
42.100,0.162
42.105,-0.082
42.110,-0.141
42.115,-0.158
42.120,-0.139
42.125,-0.026
42.130,-0.173
42.135,-0.167
42.140,-0.088
42.145,-0.190
42.150,-0.138
42.155,-0.139
42.160,-0.108
42.165,-0.112
42.170,-0.155
42.175,-0.045
42.180,-0.127
42.185,-0.109
42.190,-0.034
42.195,-0.108
42.200,-0.054
42.205,-0.080
42.210,-0.051
42.215,-0.049
42.220,-0.097
42.225,0.018
42.230,-0.055
42.235,-0.043
42.240,0.027
42.245,-0.043
42.250,0.008
42.255,-0.018
42.260,0.025
42.265,0.033
42.270,-0.019
42.275,0.089
42.280,0.012
42.285,0.024
42.290,0.094
42.295,0.032
42.300,0.095
42.305,0.077
42.310,0.130
42.315,0.148
42.320,0.100
42.325,0.215
42.330,0.151
42.335,0.179
42.340,0.263
42.345,0.211
42.350,0.271
42.355,0.250
42.360,0.294
42.365,0.292
42.370,0.234
42.375,0.334
42.380,0.232
42.385,0.197
42.390,0.202
42.395,0.069
42.400,0.042
42.405,-0.068
42.410,-0.101
42.415,-0.158
42.420,-0.259
42.425,-0.197
42.430,-0.314
42.435,-0.331
42.440,-0.279
42.445,-0.350
42.450,-0.298
42.455,-0.328
42.460,-0.291
42.465,-0.289
42.470,-0.336
42.475,-0.217
42.480,-0.283
42.485,-0.261
42.490,-0.192
42.495,-0.259
42.500,-0.199
42.505,-0.218
42.510,-0.173
42.515,-0.166
42.520,-0.215
42.525,-0.102
42.530,-0.171
42.535,-0.149
42.540,-0.079
42.545,-0.142
42.550,-0.090
42.555,-0.119
42.560,-0.070
42.565,-0.066
42.570,-0.125
42.575,-0.019
42.580,-0.092
42.585,-0.071
42.590,0.000
42.595,-0.064
42.600,-0.012
42.605,-0.045
42.610,-0.010
42.615,-0.010
42.620,-0.063
42.625,0.044
42.630,-0.034
42.635,-0.024
42.640,0.042
42.645,-0.023
42.650,0.018
42.655,-0.019
42.660,0.024
42.665,0.021
42.670,-0.037
42.675,0.068
42.680,-0.012
42.685,0.002
42.690,0.064
42.695,-0.008
42.700,0.033
42.705,-0.001
42.710,0.052
42.715,0.058
42.720,0.002
42.725,0.109
42.730,0.029
42.735,0.038
42.740,0.102
42.745,0.038
42.750,0.093
42.755,0.089
42.760,0.165
42.765,0.172
42.770,0.101
42.775,0.183
42.780,0.086
42.785,0.085
42.790,0.126
42.795,0.033
42.800,0.058
42.805,0.002
42.810,0.019
42.815,0.002
42.820,-0.058
42.825,0.050
42.830,-0.019
42.835,0.000
42.840,0.054
42.845,-0.022
42.850,0.019
42.855,-0.035
42.860,-0.023
42.865,-0.029
42.870,-0.026
42.875,0.282
42.880,0.602
42.885,0.878
42.890,0.846
42.895,0.540
42.900,0.274
42.905,0.003
42.910,-0.082
42.915,-0.165
42.920,-0.178
42.925,-0.012
42.930,-0.106
42.935,-0.113
42.940,-0.049
42.945,-0.131
42.950,-0.092
42.955,-0.113
42.960,-0.064
42.965,-0.074
42.970,-0.129
42.975,-0.017
42.980,-0.101
42.985,-0.084
42.990,-0.015
42.995,-0.080
43.000,-0.029
43.005,-0.056
43.010,-0.012
43.015,-0.019
43.020,-0.069
43.025,0.037
43.030,-0.046
43.035,-0.027
43.040,0.033
43.045,-0.031
43.050,0.021
43.055,-0.008
43.060,0.045
43.065,0.044
43.070,-0.007
43.075,0.106
43.080,0.033
43.085,0.056
43.090,0.121
43.095,0.066
43.100,0.122
43.105,0.093
43.110,0.148
43.115,0.152
43.120,0.110
43.125,0.234
43.130,0.165
43.135,0.191
43.140,0.264
43.145,0.215
43.150,0.279
43.155,0.256
43.160,0.311
43.165,0.317
43.170,0.266
43.175,0.363
43.180,0.251
43.185,0.209
43.190,0.200
43.195,0.062
43.200,0.028
43.205,-0.083
43.210,-0.109
43.215,-0.177
43.220,-0.280
43.225,-0.221
43.230,-0.338
43.235,-0.344
43.240,-0.302
43.245,-0.371
43.250,-0.323
43.255,-0.361
43.260,-0.316
43.265,-0.322
43.270,-0.369
43.275,-0.254
43.280,-0.324
43.285,-0.296
43.290,-0.230
43.295,-0.281
43.300,-0.220
43.305,-0.247
43.310,-0.196
43.315,-0.200
43.320,-0.246
43.325,-0.124
43.330,-0.190
43.335,-0.164
43.340,-0.104
43.345,-0.155
43.350,-0.090
43.355,-0.123
43.360,-0.073
43.365,-0.076
43.370,-0.123
43.375,-0.005
43.380,-0.083
43.385,-0.063
43.390,-0.001
43.395,-0.060
43.400,-0.008
43.405,-0.046
43.410,-0.004
43.415,-0.011
43.420,-0.061
43.425,0.046
43.430,-0.039
43.435,-0.028
43.440,0.026
43.445,-0.034
43.450,0.017
43.455,-0.021
43.460,0.026
43.465,0.017
43.470,-0.036
43.475,0.075
43.480,-0.007
43.485,0.008
43.490,0.060
43.495,-0.004
43.500,0.044
43.505,0.008
43.510,0.060
43.515,0.058
43.520,0.014
43.525,0.124
43.530,0.030
43.535,0.035
43.540,0.091
43.545,0.048
43.550,0.131
43.555,0.122
43.560,0.174
43.565,0.151
43.570,0.076
43.575,0.164
43.580,0.072
43.585,0.076
43.590,0.109
43.595,0.021
43.600,0.043
43.605,-0.014
43.610,0.022
43.615,0.006
43.620,-0.051
43.625,0.059
43.630,-0.025
43.635,-0.019
43.640,0.029
43.645,-0.028
43.650,0.010
43.655,-0.058
43.660,-0.023
43.665,0.023
43.670,0.173
43.675,0.678
43.680,0.933
43.685,0.887
43.690,0.644
43.695,0.280
43.700,0.071
43.705,-0.098
43.710,-0.113
43.715,-0.114
43.720,-0.096
43.725,-0.005
43.730,-0.143
43.735,-0.118
43.740,-0.071
43.745,-0.156
43.750,-0.087
43.755,-0.108
43.760,-0.069
43.765,-0.078
43.770,-0.123
43.775,-0.018
43.780,-0.095
43.785,-0.067
43.790,-0.014
43.795,-0.080
43.800,-0.030
43.805,-0.055
43.810,0.002
43.815,-0.007
43.820,-0.054
43.825,0.054
43.830,-0.028
43.835,-0.007
43.840,0.043
43.845,-0.019
43.850,0.027
43.855,-0.008
43.860,0.052
43.865,0.043
43.870,-0.005
43.875,0.109
43.880,0.034
43.885,0.056
43.890,0.112
43.895,0.063
43.900,0.119
43.905,0.087
43.910,0.146
43.915,0.139
43.920,0.104
43.925,0.230
43.930,0.162
43.935,0.200
43.940,0.265
43.945,0.220
43.950,0.273
43.955,0.235
43.960,0.298
43.965,0.289
43.970,0.229
43.975,0.314
43.980,0.183
43.985,0.135
43.990,0.112
43.995,-0.023
44.000,-0.055
44.005,-0.164
44.010,-0.173
44.015,-0.239
44.020,-0.330
44.025,-0.255
44.030,-0.356
44.035,-0.346
44.040,-0.305
44.045,-0.368
44.050,-0.318
44.055,-0.351
44.060,-0.291
44.065,-0.294
44.070,-0.338
44.075,-0.222
44.080,-0.293
44.085,-0.262
44.090,-0.211
44.095,-0.264
44.100,-0.205
44.105,-0.234
44.110,-0.174
44.115,-0.179
44.120,-0.223
44.125,-0.109
44.130,-0.183
44.135,-0.151
44.140,-0.095
44.145,-0.151
44.150,-0.098
44.155,-0.130
44.160,-0.071
44.165,-0.085
44.170,-0.138
44.175,-0.023
44.180,-0.098
44.185,-0.075
44.190,-0.024
44.195,-0.080
44.200,-0.033
44.205,-0.071
44.210,-0.016
44.215,-0.030
44.220,-0.080
44.225,0.027
44.230,-0.053
44.235,-0.024
44.240,0.026
44.245,-0.035
44.250,0.010
44.255,-0.030
44.260,0.035
44.265,0.024
44.270,-0.032
44.275,0.074
44.280,-0.002
44.285,0.031
44.290,0.085
44.295,0.023
44.300,0.061
44.305,0.019
44.310,0.096
44.315,0.120
44.320,0.098
44.325,0.205
44.330,0.100
44.335,0.102
44.340,0.136
44.345,0.068
44.350,0.101
44.355,0.038
44.360,0.066
44.365,0.027
44.370,-0.041
44.375,0.055
44.380,-0.035
44.385,-0.018
44.390,0.033
44.395,-0.018
44.400,0.026
44.405,-0.018
44.410,0.039
44.415,0.010
44.420,-0.063
44.425,0.033
44.430,-0.003
44.435,0.202
44.440,0.628
44.445,0.922
44.450,0.952
44.455,0.627
44.460,0.362
44.465,0.073
44.470,-0.126
44.475,-0.073
44.480,-0.140
44.485,-0.053
44.490,-0.015
44.495,-0.127
44.500,-0.080
44.505,-0.114
44.510,-0.074
44.515,-0.086
44.520,-0.121
44.525,-0.018
44.530,-0.102
44.535,-0.071
44.540,-0.029
44.545,-0.088
44.550,-0.033
44.555,-0.070
44.560,-0.018
44.565,-0.037
44.570,-0.082
44.575,0.030
44.580,-0.048
44.585,-0.021
44.590,0.023
44.595,-0.028
44.600,0.023
44.605,-0.020
44.610,0.040
44.615,0.032
44.620,-0.015
44.625,0.091
44.630,0.011
44.635,0.043
44.640,0.094
44.645,0.046
44.650,0.095
44.655,0.059
44.660,0.126
44.665,0.115
44.670,0.079
44.675,0.196
44.680,0.122
44.685,0.159
44.690,0.218
44.695,0.181
44.700,0.237
44.705,0.203
44.710,0.275
44.715,0.268
44.720,0.233
44.725,0.348
44.730,0.261
44.735,0.271
44.740,0.288
44.745,0.191
44.750,0.172
44.755,0.051
44.760,0.030
44.765,-0.061
44.770,-0.173
44.775,-0.128
44.780,-0.265
44.785,-0.280
44.790,-0.267
44.795,-0.342
44.800,-0.308
44.805,-0.359
44.810,-0.302
44.815,-0.317
44.820,-0.358
44.825,-0.247
44.830,-0.323
44.835,-0.292
44.840,-0.244
44.845,-0.287
44.850,-0.232
44.855,-0.264
44.860,-0.194
44.865,-0.206
44.870,-0.242
44.875,-0.126
44.880,-0.206
44.885,-0.177
44.890,-0.126
44.895,-0.164
44.900,-0.110
44.905,-0.149
44.910,-0.083
44.915,-0.096
44.920,-0.138
44.925,-0.026
44.930,-0.105
44.935,-0.074
44.940,-0.031
44.945,-0.083
44.950,-0.036
44.955,-0.075
44.960,-0.009
44.965,-0.026
44.970,-0.072
44.975,0.033
44.980,-0.051
44.985,-0.023
44.990,0.020
44.995,-0.033
45.000,0.009
45.005,-0.037
45.010,0.026
45.015,0.004
45.020,-0.046
45.025,0.059
45.030,-0.028
45.035,-0.004
45.040,0.041
45.045,-0.005
45.050,0.041
45.055,-0.002
45.060,0.066
45.065,0.051
45.070,0.004
45.075,0.104
45.080,0.018
45.085,0.053
45.090,0.115
45.095,0.096
45.100,0.154
45.105,0.097
45.110,0.139
45.115,0.097
45.120,0.035
45.125,0.126
45.130,0.019
45.135,0.025
45.140,0.040
45.145,-0.034
45.150,-0.002
45.155,-0.055
45.160,0.005
45.165,-0.017
45.170,-0.062
45.175,0.046
45.180,-0.041
