'Elapsed time','ECG'
'seconds','mV'
0.000,0.037
0.005,0.080
0.010,0.022
0.015,0.050
0.020,0.220
0.025,0.083
0.030,-0.261
0.035,-0.575
0.040,-1.066
0.045,-1.591
0.050,-1.798
0.055,-1.743
0.060,-1.459
0.065,-0.866
0.070,-0.216
0.075,0.208
0.080,0.352
0.085,0.372
0.090,0.396
0.095,0.418
0.100,0.394
0.105,0.380
0.110,0.427
0.115,0.410
0.120,0.381
0.125,0.376
0.130,0.350
0.135,0.343
0.140,0.331
0.145,0.322
0.150,0.306
0.155,0.277
0.160,0.281
0.165,0.266
0.170,0.242
0.175,0.226
0.180,0.209
0.185,0.201
0.190,0.173
0.195,0.171
0.200,0.167
0.205,0.147
0.210,0.155
0.215,0.119
0.220,0.094
0.225,0.100
0.230,0.091
0.235,0.100
0.240,0.085
0.245,0.073
0.250,0.040
0.255,0.002
0.260,0.030
0.265,0.023
0.270,-0.004
0.275,-0.036
0.280,-0.067
0.285,-0.049
0.290,-0.068
0.295,-0.091
0.300,-0.082
0.305,-0.095
0.310,-0.108
0.315,-0.125
0.320,-0.133
0.325,-0.149
0.330,-0.161
0.335,-0.159
0.340,-0.171
0.345,-0.141
0.350,-0.116
0.355,-0.099
0.360,-0.051
0.365,-0.043
0.370,-0.021
0.375,0.022
0.380,0.043
0.385,0.069
0.390,0.077
0.395,0.104
0.400,0.106
0.405,0.086
0.410,0.109
0.415,0.104
0.420,0.089
0.425,0.089
0.430,0.097
0.435,0.104
0.440,0.077
0.445,0.079
0.450,0.077
0.455,0.060
0.460,0.068
0.465,0.057
0.470,0.054
0.475,0.031
0.480,-0.005
0.485,0.006
0.490,0.007
0.495,0.012
0.500,0.015
0.505,0.021
0.510,0.041
0.515,0.009
0.520,-0.010
0.525,-0.001
0.530,-0.001
0.535,0.007
0.540,-0.010
0.545,0.013
0.550,0.033
0.555,0.010
0.560,0.008
0.565,-0.015
0.570,-0.014
0.575,-0.009
0.580,-0.030
0.585,-0.017
0.590,-0.019
0.595,-0.013
0.600,-0.012
0.605,-0.025
0.610,-0.015
0.615,-0.052
0.620,-0.080
0.625,-0.080
0.630,-0.090
0.635,-0.094
0.640,-0.106
0.645,-0.087
0.650,-0.082
0.655,-0.107
0.660,-0.089
0.665,-0.074
0.670,-0.055
0.675,-0.041
0.680,-0.051
0.685,-0.055
0.690,-0.074
0.695,-0.038
0.700,0.007
0.705,0.020
0.710,0.064
0.715,0.079
0.720,0.078
0.725,0.067
0.730,0.048
0.735,0.060
0.740,0.052
0.745,0.057
0.750,0.055
0.755,0.036
0.760,0.065
0.765,0.100
0.770,0.164
0.775,0.191
0.780,0.061
0.785,-0.192
0.790,-0.593
0.795,-1.085
0.800,-1.551
0.805,-1.887
0.810,-1.866
0.815,-1.445
0.820,-0.773
0.825,-0.130
0.830,0.228
0.835,0.356
0.840,0.397
0.845,0.444
0.850,0.446
0.855,0.411
0.860,0.451
0.865,0.462
0.870,0.431
0.875,0.420
0.880,0.401
0.885,0.405
0.890,0.383
0.895,0.361
0.900,0.358
0.905,0.329
0.910,0.311
0.915,0.300
0.920,0.299
0.925,0.274
0.930,0.236
0.935,0.231
0.940,0.205
0.945,0.206
0.950,0.216
0.955,0.192
0.960,0.176
0.965,0.144
0.970,0.130
0.975,0.133
0.980,0.122
0.985,0.110
0.990,0.096
0.995,0.105
1.000,0.080
1.005,0.048
1.010,0.056
1.015,0.042
1.020,0.034
1.025,0.010
1.030,-0.022
1.035,-0.023
1.040,-0.043
1.045,-0.037
1.050,-0.054
1.055,-0.099
1.060,-0.090
1.065,-0.112
1.070,-0.141
1.075,-0.165
1.080,-0.193
1.085,-0.179
1.090,-0.177
1.095,-0.164
1.100,-0.156
1.105,-0.157
1.110,-0.102
1.115,-0.066
1.120,-0.051
1.125,-0.025
1.130,0.002
1.135,0.036
1.140,0.039
1.145,0.055
1.150,0.071
1.155,0.072
1.160,0.102
1.165,0.108
1.170,0.109
1.175,0.099
1.180,0.072
1.185,0.077
1.190,0.075
1.195,0.076
1.200,0.065
1.205,0.051
1.210,0.059
1.215,0.042
1.220,0.055
1.225,0.063
1.230,0.038
1.235,0.035
1.240,0.016
1.245,0.017
1.250,0.011
1.255,-0.022
1.260,0.000
1.265,0.012
1.270,0.004
1.275,0.005
1.280,0.000
1.285,0.003
1.290,-0.008
1.295,-0.002
1.300,0.008
1.305,-0.003
1.310,-0.001
1.315,-0.019
1.320,-0.018
1.325,-0.003
1.330,0.002
1.335,0.020
1.340,0.016
1.345,0.033
1.350,0.024
1.355,-0.030
1.360,-0.027
1.365,-0.020
1.370,-0.014
1.375,-0.020
1.380,-0.058
1.385,-0.066
1.390,-0.084
1.395,-0.091
1.400,-0.091
1.405,-0.107
1.410,-0.097
1.415,-0.104
1.420,-0.100
1.425,-0.082
1.430,-0.080
1.435,-0.071
1.440,-0.072
1.445,-0.045
1.450,-0.032
1.455,-0.040
1.460,-0.017
1.465,-0.004
1.470,0.032
1.475,0.055
1.480,0.064
1.485,0.096
1.490,0.093
1.495,0.085
1.500,0.048
1.505,0.009
1.510,0.047
1.515,0.067
1.520,0.052
1.525,0.040
1.530,0.063
1.535,0.147
1.540,0.197
1.545,0.153
1.550,-0.035
1.555,-0.375
1.560,-0.805
1.565,-1.303
1.570,-1.738
1.575,-1.896
1.580,-1.627
1.585,-1.019
1.590,-0.371
1.595,0.113
1.600,0.352
1.605,0.418
1.610,0.432
1.615,0.400
1.620,0.397
1.625,0.420
1.630,0.418
1.635,0.419
1.640,0.379
1.645,0.365
1.650,0.383
1.655,0.360
1.660,0.359
1.665,0.348
1.670,0.323
1.675,0.323
1.680,0.301
1.685,0.279
1.690,0.276
1.695,0.283
1.700,0.254
1.705,0.214
1.710,0.215
1.715,0.189
1.720,0.184
1.725,0.184
1.730,0.156
1.735,0.149
1.740,0.118
1.745,0.112
1.750,0.106
1.755,0.070
1.760,0.083
1.765,0.080
1.770,0.061
1.775,0.051
1.780,0.035
1.785,0.045
1.790,0.039
1.795,0.033
1.800,0.017
1.805,-0.015
1.810,-0.021
1.815,-0.055
1.820,-0.072
1.825,-0.075
1.830,-0.098
1.835,-0.115
1.840,-0.139
1.845,-0.134
1.850,-0.142
1.855,-0.163
1.860,-0.147
1.865,-0.149
1.870,-0.141
1.875,-0.115
1.880,-0.087
1.885,-0.037
1.890,-0.008
1.895,0.034
1.900,0.075
1.905,0.084
1.910,0.111
1.915,0.111
1.920,0.102
1.925,0.104
1.930,0.105
1.935,0.119
1.940,0.112
1.945,0.113
1.950,0.096
1.955,0.074
1.960,0.092
1.965,0.089
1.970,0.095
1.975,0.091
1.980,0.065
1.985,0.064
1.990,0.048
1.995,0.050
2.000,0.052
2.005,0.018
2.010,0.010
2.015,-0.002
2.020,0.003
2.025,0.030
2.030,0.021
2.035,0.007
2.040,-0.007
2.045,0.009
2.050,0.027
2.055,0.008
2.060,0.010
2.065,-0.001
2.070,-0.013
2.075,-0.010
2.080,-0.002
2.085,0.016
2.090,-0.006
2.095,-0.019
2.100,-0.012
2.105,-0.008
2.110,0.013
2.115,-0.004
2.120,-0.026
2.125,-0.039
2.130,-0.065
2.135,-0.054
2.140,-0.068
2.145,-0.094
2.150,-0.097
2.155,-0.109
2.160,-0.101
2.165,-0.107
2.170,-0.111
2.175,-0.105
2.180,-0.086
2.185,-0.050
2.190,-0.066
2.195,-0.070
2.200,-0.045
2.205,-0.030
2.210,0.008
2.215,0.029
2.220,0.046
2.225,0.069
2.230,0.060
2.235,0.047
2.240,0.045
2.245,0.076
2.250,0.070
2.255,0.021
2.260,0.027
2.265,0.014
2.270,0.011
2.275,0.045
2.280,0.095
2.285,0.196
2.290,0.189
2.295,0.012
2.300,-0.325
2.305,-0.806
2.310,-1.304
2.315,-1.676
2.320,-1.808
2.325,-1.645
2.330,-1.140
2.335,-0.503
2.340,0.011
2.345,0.333
2.350,0.403
2.355,0.390
2.360,0.441
2.365,0.427
2.370,0.404
2.375,0.419
2.380,0.396
2.385,0.393
2.390,0.402
2.395,0.408
2.400,0.387
2.405,0.337
2.410,0.322
2.415,0.290
2.420,0.270
2.425,0.272
2.430,0.255
2.435,0.265
2.440,0.247
2.445,0.222
2.450,0.204
2.455,0.175
2.460,0.181
2.465,0.164
2.470,0.146
2.475,0.148
2.480,0.143
2.485,0.149
2.490,0.125
2.495,0.113
2.500,0.112
2.505,0.087
2.510,0.088
2.515,0.076
2.520,0.055
2.525,0.049
2.530,0.038
2.535,0.027
2.540,-0.012
2.545,-0.035
2.550,-0.046
2.555,-0.056
2.560,-0.039
2.565,-0.078
2.570,-0.109
2.575,-0.108
2.580,-0.119
2.585,-0.106
2.590,-0.132
2.595,-0.164
2.600,-0.172
2.605,-0.184
2.610,-0.150
2.615,-0.125
2.620,-0.100
2.625,-0.060
2.630,-0.043
2.635,-0.017
2.640,0.006
2.645,0.053
2.650,0.078
2.655,0.069
2.660,0.096
2.665,0.094
2.670,0.091
2.675,0.116
2.680,0.121
2.685,0.112
2.690,0.077
2.695,0.073
2.700,0.080
2.705,0.057
2.710,0.056
2.715,0.047
2.720,0.051
2.725,0.056
2.730,0.021
2.735,0.012
2.740,-0.003
2.745,-0.010
2.750,0.001
2.755,-0.008
2.760,0.013
2.765,0.012
2.770,-0.016
2.775,-0.019
2.780,-0.011
2.785,0.003
2.790,-0.003
2.795,0.003
2.800,0.010
2.805,-0.005
2.810,0.009
2.815,0.010
2.820,0.010
2.825,-0.001
2.830,-0.032
2.835,-0.009
2.840,0.003
2.845,-0.006
2.850,-0.029
2.855,-0.063
2.860,-0.046
2.865,-0.038
2.870,-0.044
2.875,-0.053
2.880,-0.078
2.885,-0.085
2.890,-0.094
2.895,-0.072
2.900,-0.056
2.905,-0.070
2.910,-0.047
2.915,-0.048
2.920,-0.052
2.925,-0.050
2.930,-0.057
2.935,-0.015
2.940,0.017
2.945,0.058
2.950,0.088
2.955,0.071
2.960,0.078
2.965,0.079
2.970,0.090
2.975,0.084
2.980,0.058
2.985,0.050
2.990,0.028
2.995,0.037
3.000,0.042
3.005,0.069
3.010,0.184
3.015,0.195
3.020,0.052
3.025,-0.227
3.030,-0.686
3.035,-1.198
3.040,-1.668
3.045,-1.872
3.050,-1.690
3.055,-1.252
3.060,-0.629
3.065,-0.070
3.070,0.278
3.075,0.423
3.080,0.409
3.085,0.410
3.090,0.421
3.095,0.421
3.100,0.426
3.105,0.422
3.110,0.437
3.115,0.418
3.120,0.398
3.125,0.397
3.130,0.377
3.135,0.357
3.140,0.319
3.145,0.307
3.150,0.298
3.155,0.256
3.160,0.246
3.165,0.241
3.170,0.242
3.175,0.229
3.180,0.188
3.185,0.177
3.190,0.166
3.195,0.174
3.200,0.175
3.205,0.140
3.210,0.131
3.215,0.118
3.220,0.107
3.225,0.096
3.230,0.069
3.235,0.054
3.240,0.044
3.245,0.053
3.250,0.036
3.255,0.014
3.260,0.032
3.265,0.016
3.270,-0.006
3.275,-0.014
3.280,-0.044
3.285,-0.054
3.290,-0.058
3.295,-0.048
3.300,-0.064
3.305,-0.113
3.310,-0.128
3.315,-0.154
3.320,-0.156
3.325,-0.145
3.330,-0.150
3.335,-0.143
3.340,-0.157
3.345,-0.120
3.350,-0.061
3.355,-0.041
3.360,-0.007
3.365,0.004
3.370,0.027
3.375,0.062
3.380,0.078
3.385,0.112
3.390,0.108
3.395,0.103
3.400,0.103
3.405,0.090
3.410,0.107
3.415,0.097
3.420,0.080
3.425,0.081
3.430,0.066
3.435,0.063
3.440,0.067
3.445,0.086
3.450,0.075
3.455,0.026
3.460,0.013
3.465,0.003
3.470,0.016
3.475,0.033
3.480,0.027
3.485,0.031
3.490,-0.008
3.495,-0.024
3.500,-0.010
3.505,-0.017
3.510,0.001
3.515,-0.002
3.520,-0.009
3.525,0.003
3.530,-0.001
3.535,0.011
3.540,0.010
3.545,0.007
3.550,-0.002
3.555,-0.020
3.560,-0.001
3.565,-0.024
3.570,-0.065
3.575,-0.075
3.580,-0.083
3.585,-0.071
3.590,-0.085
3.595,-0.096
3.600,-0.100
3.605,-0.128
3.610,-0.123
3.615,-0.111
3.620,-0.092
3.625,-0.066
3.630,-0.060
3.635,-0.054
3.640,-0.060
3.645,-0.049
3.650,-0.031
3.655,-0.018
3.660,0.021
3.665,0.032
3.670,0.044
3.675,0.070
3.680,0.071
3.685,0.075
3.690,0.071
3.695,0.077
3.700,0.072
3.705,0.044
3.710,0.048
3.715,0.044
3.720,0.076
3.725,0.155
3.730,0.184
3.735,0.074
3.740,-0.219
3.745,-0.626
3.750,-1.122
3.755,-1.624
3.760,-1.886
3.765,-1.781
3.770,-1.354
3.775,-0.755
3.780,-0.155
3.785,0.254
3.790,0.392
3.795,0.418
3.800,0.412
3.805,0.410
3.810,0.434
3.815,0.412
3.820,0.426
3.825,0.454
3.830,0.425
3.835,0.410
3.840,0.383
3.845,0.364
3.850,0.343
3.855,0.316
3.860,0.312
3.865,0.274
3.870,0.260
3.875,0.266
3.880,0.250
3.885,0.249
3.890,0.228
3.895,0.225
3.900,0.213
3.905,0.175
3.910,0.179
3.915,0.161
3.920,0.149
3.925,0.149
3.930,0.123
3.935,0.109
3.940,0.074
3.945,0.070
3.950,0.073
3.955,0.048
3.960,0.051
3.965,0.026
3.970,0.007
3.975,0.001
3.980,-0.028
3.985,-0.031
3.990,-0.049
3.995,-0.059
4.000,-0.051
4.005,-0.063
4.010,-0.075
4.015,-0.112
4.020,-0.137
4.025,-0.133
4.030,-0.139
4.035,-0.145
4.040,-0.172
4.045,-0.172
4.050,-0.151
4.055,-0.155
4.060,-0.131
4.065,-0.113
4.070,-0.090
4.075,-0.049
4.080,-0.019
4.085,0.020
4.090,0.042
4.095,0.073
4.100,0.087
4.105,0.077
4.110,0.098
4.115,0.092
4.120,0.088
4.125,0.097
4.130,0.093
4.135,0.104
4.140,0.082
4.145,0.071
4.150,0.067
4.155,0.047
4.160,0.059
4.165,0.047
4.170,0.037
4.175,0.046
4.180,0.042
4.185,0.050
4.190,0.032
4.195,0.022
4.200,0.012
4.205,0.001
4.210,0.030
4.215,0.030
4.220,0.023
4.225,0.021
4.230,0.008
4.235,0.013
4.240,0.000
4.245,0.007
4.250,0.014
4.255,-0.002
4.260,0.014
4.265,0.004
4.270,-0.019
4.275,-0.036
4.280,-0.046
4.285,-0.037
4.290,-0.058
4.295,-0.069
4.300,-0.083
4.305,-0.096
4.310,-0.059
4.315,-0.051
4.320,-0.057
4.325,-0.058
4.330,-0.058
4.335,-0.027
4.340,-0.030
4.345,-0.029
4.350,-0.006
4.355,0.012
4.360,0.058
4.365,0.065
4.370,0.064
4.375,0.076
4.380,0.071
4.385,0.088
4.390,0.079
4.395,0.065
4.400,0.061
4.405,0.046
4.410,0.066
4.415,0.070
4.420,0.093
4.425,0.169
4.430,0.200
4.435,0.111
4.440,-0.129
4.445,-0.483
4.450,-0.968
4.455,-1.499
4.460,-1.822
4.465,-1.775
4.470,-1.412
4.475,-0.871
4.480,-0.272
4.485,0.180
4.490,0.395
4.495,0.458
4.500,0.428
4.505,0.400
4.510,0.415
4.515,0.399
4.520,0.412
4.525,0.433
4.530,0.401
4.535,0.393
4.540,0.378
4.545,0.357
4.550,0.337
4.555,0.317
4.560,0.326
4.565,0.302
4.570,0.275
4.575,0.265
4.580,0.246
4.585,0.252
4.590,0.237
4.595,0.216
4.600,0.194
4.605,0.168
4.610,0.183
4.615,0.168
4.620,0.142
4.625,0.126
4.630,0.106
4.635,0.113
4.640,0.097
4.645,0.081
4.650,0.079
4.655,0.059
4.660,0.055
4.665,0.035
4.670,0.021
4.675,0.022
4.680,0.002
4.685,-0.007
4.690,-0.033
4.695,-0.044
4.700,-0.046
4.705,-0.063
4.710,-0.051
4.715,-0.077
4.720,-0.105
4.725,-0.112
4.730,-0.136
4.735,-0.144
4.740,-0.164
4.745,-0.153
4.750,-0.136
4.755,-0.135
4.760,-0.098
4.765,-0.085
4.770,-0.067
4.775,-0.036
4.780,-0.010
4.785,0.021
4.790,0.022
4.795,0.053
4.800,0.085
4.805,0.085
4.810,0.101
4.815,0.087
4.820,0.085
4.825,0.091
4.830,0.074
4.835,0.080
4.840,0.072
4.845,0.078
4.850,0.070
4.855,0.035
4.860,0.047
4.865,0.038
4.870,0.037
4.875,0.045
4.880,0.022
4.885,0.025
4.890,0.009
4.895,0.007
4.900,0.017
4.905,-0.004
4.910,0.010
4.915,0.007
4.920,-0.006
4.925,-0.001
4.930,0.001
4.935,0.016
4.940,0.004
4.945,-0.003
4.950,-0.007
4.955,-0.025
4.960,-0.005
4.965,-0.007
4.970,-0.032
4.975,-0.050
4.980,-0.068
4.985,-0.063
4.990,-0.065
4.995,-0.054
5.000,-0.058
5.005,-0.088
5.010,-0.073
5.015,-0.067
5.020,-0.056
5.025,-0.029
5.030,-0.023
5.035,-0.018
5.040,-0.039
5.045,-0.045
5.050,-0.033
5.055,-0.020
5.060,0.018
5.065,0.032
5.070,0.049
5.075,0.070
5.080,0.072
5.085,0.078
5.090,0.054
5.095,0.051
5.100,0.052
5.105,0.046
5.110,0.067
5.115,0.040
5.120,0.038
5.125,0.097
5.130,0.169
5.135,0.193
5.140,0.043
5.145,-0.227
5.150,-0.623
5.155,-1.140
5.160,-1.602
5.165,-1.790
5.170,-1.662
5.175,-1.308
5.180,-0.703
5.185,-0.106
5.190,0.259
5.195,0.427
5.200,0.417
5.205,0.410
5.210,0.440
5.215,0.396
5.220,0.391
5.225,0.428
5.230,0.407
5.235,0.392
5.240,0.394
5.245,0.391
5.250,0.352
5.255,0.312
5.260,0.321
5.265,0.295
5.270,0.272
5.275,0.275
5.280,0.258
5.285,0.251
5.290,0.225
5.295,0.213
5.300,0.206
5.305,0.184
5.310,0.188
5.315,0.162
5.320,0.144
5.325,0.148
5.330,0.142
5.335,0.141
5.340,0.114
5.345,0.104
5.350,0.090
5.355,0.048
5.360,0.056
5.365,0.055
5.370,0.040
5.375,0.027
5.380,0.001
5.385,0.004
5.390,-0.004
5.395,-0.006
5.400,-0.017
5.405,-0.055
5.410,-0.059
5.415,-0.081
5.420,-0.097
5.425,-0.106
5.430,-0.137
5.435,-0.141
5.440,-0.161
5.445,-0.163
5.450,-0.153
5.455,-0.164
5.460,-0.136
5.465,-0.118
5.470,-0.091
5.475,-0.046
5.480,-0.025
5.485,0.014
5.490,0.024
5.495,0.032
5.500,0.053
5.505,0.057
5.510,0.086
5.515,0.089
5.520,0.088
5.525,0.093
5.530,0.077
5.535,0.083
5.540,0.075
5.545,0.078
5.550,0.085
5.555,0.063
5.560,0.071
5.565,0.062
5.570,0.051
5.575,0.056
5.580,0.041
5.585,0.038
5.590,0.035
5.595,0.045
5.600,0.039
5.605,0.012
5.610,0.020
5.615,0.008
5.620,-0.002
5.625,0.006
5.630,0.005
5.635,0.017
5.640,0.003
5.645,0.006
5.650,0.015
5.655,0.000
5.660,0.017
5.665,0.016
5.670,0.009
5.675,0.006
5.680,-0.010
5.685,-0.011
5.690,-0.035
5.695,-0.047
5.700,-0.053
5.705,-0.074
5.710,-0.058
5.715,-0.057
5.720,-0.064
5.725,-0.072
5.730,-0.085
5.735,-0.066
5.740,-0.061
5.745,-0.043
5.750,-0.040
5.755,-0.054
5.760,-0.028
5.765,-0.038
5.770,-0.034
5.775,0.006
5.780,0.023
5.785,0.055
5.790,0.057
5.795,0.051
5.800,0.049
5.805,0.030
5.810,0.049
5.815,0.045
5.820,0.024
5.825,0.015
5.830,0.004
5.835,0.013
5.840,0.013
5.845,0.084
5.850,0.184
5.855,0.145
5.860,-0.022
5.865,-0.317
5.870,-0.728
5.875,-1.202
5.880,-1.614
5.885,-1.774
5.890,-1.649
5.895,-1.200
5.900,-0.572
5.905,-0.039
5.910,0.315
5.915,0.407
5.920,0.378
5.925,0.381
5.930,0.368
5.935,0.379
5.940,0.401
5.945,0.405
5.950,0.376
5.955,0.345
5.960,0.375
5.965,0.373
5.970,0.349
5.975,0.336
5.980,0.307
5.985,0.302
5.990,0.281
5.995,0.264
6.000,0.253
6.005,0.230
6.010,0.227
6.015,0.200
6.020,0.185
6.025,0.184
6.030,0.167
6.035,0.165
6.040,0.145
6.045,0.138
6.050,0.132
6.055,0.118
6.060,0.147
6.065,0.135
6.070,0.094
6.075,0.066
6.080,0.058
6.085,0.072
6.090,0.052
6.095,0.043
6.100,0.033
6.105,0.015
6.110,0.022
6.115,-0.011
6.120,-0.028
6.125,-0.024
6.130,-0.057
6.135,-0.060
6.140,-0.064
6.145,-0.068
6.150,-0.090
6.155,-0.138
6.160,-0.129
6.165,-0.128
6.170,-0.137
6.175,-0.137
6.180,-0.125
6.185,-0.075
6.190,-0.054
6.195,-0.033
6.200,-0.020
6.205,-0.015
6.210,0.040
6.215,0.064
6.220,0.084
6.225,0.105
6.230,0.090
6.235,0.104
6.240,0.099
6.245,0.101
6.250,0.101
6.255,0.062
6.260,0.071
6.265,0.088
6.270,0.091
6.275,0.074
6.280,0.039
6.285,0.035
6.290,0.021
6.295,0.024
6.300,0.027
6.305,0.017
6.310,0.035
6.315,0.014
6.320,0.005
6.325,0.010
6.330,0.000
6.335,0.009
6.340,-0.007
6.345,0.003
6.350,0.008
6.355,-0.007
6.360,0.013
6.365,0.005
6.370,-0.003
6.375,0.002
6.380,-0.011
6.385,-0.010
6.390,-0.017
6.395,-0.006
6.400,-0.006
6.405,-0.028
6.410,-0.024
6.415,-0.040
6.420,-0.057
6.425,-0.066
6.430,-0.067
6.435,-0.054
6.440,-0.069
6.445,-0.069
6.450,-0.072
6.455,-0.085
6.460,-0.064
6.465,-0.058
6.470,-0.053
6.475,-0.046
6.480,-0.050
6.485,-0.038
6.490,-0.041
6.495,-0.025
6.500,0.010
6.505,0.039
6.510,0.083
6.515,0.071
6.520,0.046
6.525,0.047
6.530,0.037
6.535,0.040
6.540,0.021
6.545,0.028
6.550,0.037
6.555,0.019
6.560,0.044
6.565,0.070
6.570,0.146
6.575,0.185
6.580,0.051
6.585,-0.203
6.590,-0.614
6.595,-1.096
6.600,-1.555
6.605,-1.919
6.610,-1.879
6.615,-1.405
6.620,-0.741
6.625,-0.134
6.630,0.242
6.635,0.402
6.640,0.426
6.645,0.424
6.650,0.408
6.655,0.401
6.660,0.424
6.665,0.394
6.670,0.383
6.675,0.398
6.680,0.384
6.685,0.379
6.690,0.349
6.695,0.333
6.700,0.330
6.705,0.310
6.710,0.311
6.715,0.276
6.720,0.247
6.725,0.242
6.730,0.222
6.735,0.216
6.740,0.202
6.745,0.202
6.750,0.186
6.755,0.156
6.760,0.174
6.765,0.166
6.770,0.144
6.775,0.123
6.780,0.102
6.785,0.102
6.790,0.069
6.795,0.051
6.800,0.051
6.805,0.028
6.810,0.042
6.815,0.031
6.820,0.016
6.825,0.015
6.830,-0.021
6.835,-0.033
6.840,-0.051
6.845,-0.058
6.850,-0.059
6.855,-0.080
6.860,-0.068
6.865,-0.078
6.870,-0.094
6.875,-0.119
6.880,-0.157
6.885,-0.150
6.890,-0.151
6.895,-0.127
6.900,-0.104
6.905,-0.104
6.910,-0.052
6.915,-0.031
6.920,-0.030
6.925,-0.006
6.930,0.018
6.935,0.058
6.940,0.068
6.945,0.077
6.950,0.090
6.955,0.083
6.960,0.094
6.965,0.080
6.970,0.088
6.975,0.101
6.980,0.076
6.985,0.073
6.990,0.064
6.995,0.071
7.000,0.066
7.005,0.029
7.010,0.038
7.015,0.040
7.020,0.029
7.025,0.023
7.030,0.016
7.035,0.019
7.040,0.004
7.045,0.006
7.050,0.004
7.055,-0.012
7.060,0.005
7.065,-0.003
7.070,-0.006
7.075,0.009
7.080,-0.002
7.085,0.004
7.090,-0.006
7.095,0.000
7.100,0.002
7.105,-0.020
7.110,0.013
7.115,0.007
7.120,-0.010
7.125,-0.009
7.130,-0.035
7.135,-0.041
7.140,-0.060
7.145,-0.063
7.150,-0.059
7.155,-0.076
7.160,-0.058
7.165,-0.062
7.170,-0.078
7.175,-0.080
7.180,-0.071
7.185,-0.038
7.190,-0.041
7.195,-0.037
7.200,-0.030
7.205,-0.045
7.210,-0.028
7.215,-0.024
7.220,0.003
7.225,0.042
7.230,0.050
7.235,0.078
7.240,0.081
7.245,0.085
7.250,0.075
7.255,0.033
7.260,0.045
7.265,0.048
7.270,0.043
7.275,0.047
7.280,0.037
7.285,0.067
7.290,0.123
7.295,0.193
7.300,0.157
7.305,-0.062
7.310,-0.409
7.315,-0.903
7.320,-1.406
7.325,-1.789
7.330,-1.862
7.335,-1.544
7.340,-1.033
7.345,-0.393
7.350,0.113
7.355,0.343
7.360,0.437
7.365,0.415
7.370,0.406
7.375,0.423
7.380,0.395
7.385,0.401
7.390,0.415
7.395,0.411
7.400,0.401
7.405,0.384
7.410,0.382
7.415,0.350
7.420,0.321
7.425,0.316
7.430,0.303
7.435,0.296
7.440,0.267
7.445,0.255
7.450,0.247
7.455,0.225
7.460,0.233
7.465,0.215
7.470,0.195
7.475,0.178
7.480,0.159
7.485,0.171
7.490,0.150
7.495,0.132
7.500,0.119
7.505,0.095
7.510,0.098
7.515,0.073
7.520,0.053
7.525,0.049
7.530,0.046
7.535,0.054
7.540,0.025
7.545,0.015
7.550,0.006
7.555,-0.035
7.560,-0.038
7.565,-0.053
7.570,-0.058
7.575,-0.050
7.580,-0.070
7.585,-0.083
7.590,-0.112
7.595,-0.125
7.600,-0.132
7.605,-0.149
7.610,-0.138
7.615,-0.148
7.620,-0.145
7.625,-0.115
7.630,-0.088
7.635,-0.054
7.640,-0.046
7.645,-0.007
7.650,0.035
7.655,0.043
7.660,0.072
7.665,0.071
7.670,0.087
7.675,0.113
7.680,0.101
7.685,0.107
7.690,0.098
7.695,0.096
7.700,0.091
7.705,0.070
7.710,0.082
7.715,0.058
7.720,0.036
7.725,0.050
7.730,0.053
7.735,0.054
7.740,0.030
7.745,0.028
7.750,0.030
7.755,0.011
7.760,0.018
7.765,0.009
7.770,0.018
7.775,0.030
7.780,0.003
7.785,-0.005
7.790,-0.013
7.795,0.001
7.800,0.010
7.805,-0.015
7.810,-0.005
7.815,0.000
7.820,0.006
7.825,0.011
7.830,0.005
7.835,0.011
7.840,-0.015
7.845,-0.018
7.850,-0.003
7.855,-0.010
7.860,0.003
7.865,-0.034
7.870,-0.069
7.875,-0.068
7.880,-0.083
7.885,-0.074
7.890,-0.085
7.895,-0.081
7.900,-0.068
7.905,-0.091
7.910,-0.079
7.915,-0.072
7.920,-0.055
7.925,-0.026
7.930,-0.039
7.935,-0.052
7.940,-0.073
7.945,-0.054
7.950,-0.014
7.955,0.003
7.960,0.045
7.965,0.042
7.970,0.038
7.975,0.056
7.980,0.056
7.985,0.068
7.990,0.051
7.995,0.048
8.000,0.049
8.005,0.021
8.010,0.029
8.015,0.039
8.020,0.078
8.025,0.156
8.030,0.190
8.035,0.111
8.040,-0.144
8.045,-0.543
8.050,-1.049
8.055,-1.562
8.060,-1.856
8.065,-1.793
8.070,-1.416
8.075,-0.844
8.080,-0.237
8.085,0.168
8.090,0.348
8.095,0.412
8.100,0.408
8.105,0.413
8.110,0.430
8.115,0.412
8.120,0.418
8.125,0.422
8.130,0.391
8.135,0.393
8.140,0.388
8.145,0.366
8.150,0.337
8.155,0.311
8.160,0.312
8.165,0.296
8.170,0.294
8.175,0.292
8.180,0.265
8.185,0.248
8.190,0.221
8.195,0.217
8.200,0.213
8.205,0.184
8.210,0.180
8.215,0.161
8.220,0.144
8.225,0.127
8.230,0.107
8.235,0.111
8.240,0.095
8.245,0.094
8.250,0.092
8.255,0.072
8.260,0.079
8.265,0.056
8.270,0.031
8.275,0.028
8.280,0.013
8.285,0.010
8.290,-0.010
8.295,-0.022
8.300,-0.024
8.305,-0.048
8.310,-0.061
8.315,-0.091
8.320,-0.114
8.325,-0.125
8.330,-0.135
8.335,-0.133
8.340,-0.158
8.345,-0.153
8.350,-0.150
8.355,-0.162
8.360,-0.120
8.365,-0.093
8.370,-0.062
8.375,-0.019
8.380,-0.001
8.385,0.037
8.390,0.062
8.395,0.079
8.400,0.087
8.405,0.079
8.410,0.102
8.415,0.105
8.420,0.102
8.425,0.105
8.430,0.089
8.435,0.086
8.440,0.074
8.445,0.081
8.450,0.088
8.455,0.075
8.460,0.083
8.465,0.060
8.470,0.040
8.475,0.039
8.480,0.034
8.485,0.040
8.490,0.011
8.495,0.016
8.500,0.021
8.505,0.001
8.510,0.031
8.515,0.025
8.520,0.016
8.525,0.022
8.530,0.000
8.535,0.009
8.540,0.011
8.545,0.015
8.550,0.013
8.555,-0.006
8.560,0.005
8.565,0.004
8.570,0.005
8.575,-0.004
8.580,-0.014
8.585,0.002
8.590,-0.014
8.595,-0.004
8.600,0.008
8.605,-0.013
8.610,-0.010
8.615,-0.032
8.620,-0.050
8.625,-0.048
8.630,-0.062
8.635,-0.077
8.640,-0.103
8.645,-0.103
8.650,-0.097
8.655,-0.107
8.660,-0.094
8.665,-0.104
8.670,-0.093
8.675,-0.062
8.680,-0.055
8.685,-0.039
8.690,-0.052
8.695,-0.050
8.700,-0.026
8.705,-0.009
8.710,0.042
8.715,0.047
8.720,0.035
8.725,0.045
8.730,0.042
8.735,0.057
8.740,0.049
8.745,0.039
8.750,0.037
8.755,0.025
8.760,0.033
8.765,0.033
8.770,0.060
8.775,0.125
8.780,0.189
8.785,0.164
8.790,-0.032
8.795,-0.339
8.800,-0.783
8.805,-1.303
8.810,-1.708
8.815,-1.809
8.820,-1.579
8.825,-1.129
8.830,-0.493
8.835,0.038
8.840,0.301
8.845,0.415
8.850,0.404
8.855,0.396
8.860,0.429
8.865,0.401
8.870,0.400
8.875,0.426
8.880,0.402
8.885,0.387
8.890,0.370
8.895,0.355
8.900,0.336
8.905,0.322
8.910,0.325
8.915,0.291
8.920,0.273
8.925,0.273
8.930,0.250
8.935,0.239
8.940,0.223
8.945,0.217
8.950,0.197
8.955,0.178
8.960,0.194
8.965,0.171
8.970,0.152
8.975,0.144
8.980,0.119
8.985,0.113
8.990,0.091
8.995,0.089
9.000,0.095
9.005,0.082
9.010,0.087
9.015,0.053
9.020,0.032
9.025,0.036
9.030,0.026
9.035,0.022
9.040,-0.010
9.045,-0.018
9.050,-0.021
9.055,-0.063
9.060,-0.078
9.065,-0.092
9.070,-0.105
9.075,-0.115
9.080,-0.139
9.085,-0.153
9.090,-0.179
9.095,-0.170
9.100,-0.159
9.105,-0.162
9.110,-0.119
9.115,-0.112
9.120,-0.093
9.125,-0.044
9.130,-0.023
9.135,0.021
9.140,0.049
9.145,0.071
9.150,0.091
9.155,0.091
9.160,0.115
9.165,0.115
9.170,0.105
9.175,0.090
9.180,0.084
9.185,0.105
9.190,0.091
9.195,0.087
9.200,0.089
9.205,0.067
9.210,0.070
9.215,0.057
9.220,0.052
9.225,0.053
9.230,0.040
9.235,0.060
9.240,0.064
9.245,0.074
9.250,0.066
9.255,0.024
9.260,0.028
9.265,0.026
9.270,0.017
9.275,0.027
9.280,0.026
9.285,0.019
9.290,0.004
9.295,0.005
9.300,0.003
9.305,0.000
9.310,0.022
9.315,0.007
9.320,0.008
9.325,0.024
9.330,0.011
9.335,0.006
9.340,-0.028
9.345,-0.031
9.350,0.006
9.355,0.005
9.360,0.002
9.365,-0.012
9.370,-0.010
9.375,0.012
9.380,-0.009
9.385,-0.050
9.390,-0.095
9.395,-0.101
9.400,-0.095
9.405,-0.099
9.410,-0.080
9.415,-0.093
9.420,-0.103
9.425,-0.096
9.430,-0.092
9.435,-0.078
9.440,-0.083
9.445,-0.065
9.450,-0.048
9.455,-0.051
9.460,-0.032
9.465,-0.035
9.470,-0.019
9.475,0.015
9.480,0.036
9.485,0.061
9.490,0.044
9.495,0.043
9.500,0.055
9.505,0.041
9.510,0.051
9.515,0.036
9.520,0.020
9.525,0.026
9.530,0.029
9.535,0.059
9.540,0.108
9.545,0.188
9.550,0.168
9.555,-0.021
9.560,-0.313
9.565,-0.759
9.570,-1.256
9.575,-1.682
9.580,-1.833
9.585,-1.573
9.590,-1.087
9.595,-0.473
9.600,0.029
9.605,0.308
9.610,0.441
9.615,0.422
9.620,0.417
9.625,0.423
9.630,0.395
9.635,0.404
9.640,0.395
9.645,0.394
9.650,0.398
9.655,0.376
9.660,0.365
9.665,0.323
9.670,0.302
9.675,0.310
9.680,0.291
9.685,0.268
9.690,0.234
9.695,0.229
9.700,0.232
9.705,0.216
9.710,0.219
9.715,0.198
9.720,0.177
9.725,0.161
9.730,0.140
9.735,0.144
9.740,0.137
9.745,0.145
9.750,0.134
9.755,0.094
9.760,0.097
9.765,0.088
9.770,0.083
9.775,0.077
9.780,0.053
9.785,0.048
9.790,0.027
9.795,0.014
9.800,-0.012
9.805,-0.042
9.810,-0.011
9.815,-0.008
9.820,-0.036
9.825,-0.054
9.830,-0.075
9.835,-0.081
9.840,-0.098
9.845,-0.110
9.850,-0.133
9.855,-0.160
9.860,-0.145
9.865,-0.147
9.870,-0.145
9.875,-0.132
9.880,-0.114
9.885,-0.069
9.890,-0.045
9.895,-0.005
9.900,0.020
9.905,0.015
9.910,0.051
9.915,0.072
9.920,0.082
9.925,0.083
9.930,0.080
9.935,0.120
9.940,0.109
9.945,0.093
9.950,0.096
9.955,0.075
9.960,0.091
9.965,0.088
9.970,0.092
9.975,0.096
9.980,0.052
9.985,0.027
9.990,0.010
9.995,0.012
10.000,0.024
10.005,0.017
10.010,0.033
10.015,0.024
10.020,0.002
10.025,-0.002
10.030,-0.003
10.035,0.004
10.040,-0.018
10.045,-0.021
10.050,-0.013
10.055,-0.018
10.060,0.020
10.065,0.021
10.070,-0.003
10.075,-0.006
10.080,-0.014
10.085,0.000
10.090,0.004
10.095,0.013
10.100,0.019
10.105,-0.001
10.110,0.009
10.115,0.013
10.120,0.009
10.125,0.000
10.130,-0.019
10.135,-0.008
10.140,-0.014
10.145,-0.019
10.150,-0.046
10.155,-0.081
10.160,-0.069
10.165,-0.097
10.170,-0.107
10.175,-0.084
10.180,-0.091
10.185,-0.089
10.190,-0.105
10.195,-0.101
10.200,-0.076
10.205,-0.072
10.210,-0.040
10.215,-0.027
10.220,-0.028
10.225,-0.020
10.230,-0.005
10.235,0.037
10.240,0.037
10.245,0.045
10.250,0.069
10.255,0.062
10.260,0.068
10.265,0.049
10.270,0.045
10.275,0.058
10.280,0.040
10.285,0.040
10.290,0.034
10.295,0.049
10.300,0.091
10.305,0.152
10.310,0.206
10.315,0.086
10.320,-0.189
10.325,-0.596
10.330,-1.107
10.335,-1.572
10.340,-1.893
10.345,-1.831
10.350,-1.356
10.355,-0.715
10.360,-0.110
10.365,0.253
10.370,0.399
10.375,0.453
10.380,0.456
10.385,0.440
10.390,0.421
10.395,0.448
10.400,0.452
10.405,0.412
10.410,0.395
10.415,0.367
10.420,0.364
10.425,0.368
10.430,0.346
10.435,0.338
10.440,0.308
10.445,0.295
10.450,0.280
10.455,0.241
10.460,0.252
10.465,0.246
10.470,0.231
10.475,0.227
10.480,0.193
10.485,0.175
10.490,0.158
10.495,0.165
10.500,0.170
10.505,0.143
10.510,0.140
10.515,0.123
10.520,0.106
10.525,0.095
10.530,0.078
10.535,0.079
10.540,0.058
10.545,0.047
10.550,0.035
10.555,0.014
10.560,0.021
10.565,-0.006
10.570,-0.029
10.575,-0.035
10.580,-0.053
10.585,-0.051
10.590,-0.066
10.595,-0.076
10.600,-0.087
10.605,-0.112
10.610,-0.109
10.615,-0.125
10.620,-0.135
10.625,-0.136
10.630,-0.141
10.635,-0.114
10.640,-0.094
10.645,-0.070
10.650,-0.055
10.655,-0.043
10.660,0.014
10.665,0.038
10.670,0.048
10.675,0.069
10.680,0.075
10.685,0.101
10.690,0.095
10.695,0.090
10.700,0.100
10.705,0.081
10.710,0.079
10.715,0.058
10.720,0.045
10.725,0.056
10.730,0.053
10.735,0.059
10.740,0.047
10.745,0.045
10.750,0.035
10.755,0.017
10.760,0.036
10.765,0.033
10.770,0.028
10.775,0.025
10.780,0.002
10.785,-0.009
10.790,-0.030
10.795,-0.019
10.800,0.000
10.805,-0.010
10.810,0.001
10.815,-0.003
10.820,-0.020
10.825,-0.025
10.830,-0.012
10.835,0.005
10.840,-0.013
10.845,-0.011
10.850,0.003
10.855,0.002
10.860,0.025
10.865,0.014
10.870,-0.006
10.875,-0.005
10.880,-0.003
10.885,0.008
10.890,-0.012
10.895,-0.028
10.900,-0.041
10.905,-0.067
10.910,-0.068
10.915,-0.090
10.920,-0.098
10.925,-0.091
10.930,-0.098
10.935,-0.082
10.940,-0.096
10.945,-0.100
10.950,-0.087
10.955,-0.081
10.960,-0.059
10.965,-0.064
10.970,-0.056
10.975,-0.038
10.980,-0.039
10.985,-0.013
10.990,0.015
10.995,0.057
11.000,0.070
11.005,0.059
11.010,0.088
11.015,0.074
11.020,0.052
11.025,0.060
11.030,0.060
11.035,0.063
11.040,0.035
11.045,0.032
11.050,0.054
11.055,0.084
11.060,0.176
11.065,0.199
11.070,0.078
11.075,-0.175
11.080,-0.591
11.085,-1.095
11.090,-1.601
11.095,-1.857
11.100,-1.716
11.105,-1.336
11.110,-0.768
11.115,-0.192
11.120,0.195
11.125,0.384
11.130,0.415
11.135,0.429
11.140,0.450
11.145,0.443
11.150,0.417
11.155,0.408
11.160,0.421
11.165,0.391
11.170,0.380
11.175,0.386
11.180,0.359
11.185,0.343
11.190,0.323
11.195,0.322
11.200,0.310
11.205,0.278
11.210,0.280
11.215,0.251
11.220,0.233
11.225,0.230
11.230,0.210
11.235,0.211
11.240,0.186
11.245,0.175
11.250,0.166
11.255,0.134
11.260,0.140
11.265,0.126
11.270,0.114
11.275,0.116
11.280,0.095
11.285,0.087
11.290,0.062
11.295,0.057
11.300,0.054
11.305,0.029
11.310,0.033
11.315,0.005
11.320,-0.018
11.325,-0.003
11.330,-0.012
11.335,-0.034
11.340,-0.076
11.345,-0.088
11.350,-0.091
11.355,-0.116
11.360,-0.110
11.365,-0.122
11.370,-0.140
11.375,-0.160
11.380,-0.174
11.385,-0.147
11.390,-0.133
11.395,-0.106
11.400,-0.078
11.405,-0.060
11.410,-0.018
11.415,-0.004
11.420,0.026
11.425,0.066
11.430,0.073
11.435,0.091
11.440,0.098
11.445,0.117
11.450,0.119
11.455,0.090
11.460,0.102
11.465,0.100
11.470,0.091
11.475,0.091
11.480,0.077
11.485,0.079
11.490,0.055
11.495,0.046
11.500,0.048
11.505,0.031
11.510,0.046
11.515,0.044
11.520,0.035
11.525,0.022
11.530,0.000
11.535,0.011
11.540,0.007
11.545,0.013
11.550,0.018
11.555,0.000
11.560,0.001
11.565,-0.005
11.570,-0.002
11.575,0.002
11.580,-0.012
11.585,0.001
11.590,0.005
11.595,0.010
11.600,0.011
11.605,-0.014
11.610,0.008
11.615,0.011
11.620,-0.008
11.625,-0.003
11.630,-0.006
11.635,0.003
11.640,-0.005
11.645,-0.008
11.650,-0.007
11.655,-0.022
11.660,-0.014
11.665,-0.036
11.670,-0.060
11.675,-0.069
11.680,-0.088
11.685,-0.085
11.690,-0.102
11.695,-0.105
11.700,-0.102
11.705,-0.120
11.710,-0.094
11.715,-0.083
11.720,-0.081
11.725,-0.068
11.730,-0.069
11.735,-0.051
11.740,-0.054
11.745,-0.044
11.750,-0.021
11.755,-0.004
11.760,0.046
11.765,0.045
11.770,0.032
11.775,0.048
11.780,0.057
11.785,0.070
11.790,0.048
11.795,0.041
11.800,0.053
11.805,0.052
11.810,0.063
11.815,0.052
11.820,0.063
11.825,0.138
11.830,0.189
11.835,0.114
11.840,-0.121
11.845,-0.474
11.850,-0.954
11.855,-1.487
11.860,-1.837
11.865,-1.815
11.870,-1.462
11.875,-0.922
11.880,-0.316
11.885,0.125
11.890,0.334
11.895,0.419
11.900,0.421
11.905,0.424
11.910,0.447
11.915,0.410
11.920,0.410
11.925,0.426
11.930,0.392
11.935,0.396
11.940,0.383
11.945,0.354
11.950,0.340
11.955,0.328
11.960,0.332
11.965,0.300
11.970,0.279
11.975,0.282
11.980,0.266
11.985,0.255
11.990,0.224
11.995,0.205
12.000,0.202
12.005,0.189
12.010,0.197
12.015,0.173
12.020,0.142
12.025,0.138
12.030,0.127
12.035,0.125
12.040,0.098
12.045,0.083
12.050,0.083
12.055,0.070
12.060,0.076
12.065,0.046
12.070,0.025
12.075,0.024
12.080,0.006
12.085,0.007
12.090,-0.022
12.095,-0.034
12.100,-0.038
12.105,-0.071
12.110,-0.072
12.115,-0.091
12.120,-0.106
12.125,-0.108
12.130,-0.123
12.135,-0.127
12.140,-0.157
12.145,-0.156
12.150,-0.146
12.155,-0.158
12.160,-0.123
12.165,-0.098
12.170,-0.064
12.175,-0.023
12.180,-0.016
12.185,0.020
12.190,0.046
12.195,0.071
12.200,0.091
12.205,0.088
12.210,0.118
12.215,0.118
12.220,0.108
12.225,0.115
12.230,0.096
12.235,0.089
12.240,0.074
12.245,0.073
12.250,0.068
12.255,0.043
12.260,0.064
12.265,0.063
12.270,0.052
12.275,0.056
12.280,0.043
12.285,0.041
12.290,0.022
12.295,0.025
12.300,0.041
12.305,0.034
12.310,0.038
12.315,0.012
12.320,0.004
12.325,0.009
12.330,-0.003
12.335,0.016
12.340,0.011
12.345,0.015
12.350,0.027
12.355,0.007
12.360,0.004
12.365,-0.003
12.370,0.001
12.375,0.009
12.380,0.008
12.385,0.020
12.390,0.002
12.395,0.006
12.400,0.008
12.405,-0.022
12.410,-0.004
12.415,-0.008
12.420,-0.013
12.425,0.003
12.430,-0.009
12.435,-0.007
12.440,-0.023
12.445,-0.036
12.450,-0.059
12.455,-0.100
12.460,-0.084
12.465,-0.088
12.470,-0.098
12.475,-0.094
12.480,-0.113
12.485,-0.105
12.490,-0.107
12.495,-0.096
12.500,-0.085
12.505,-0.095
12.510,-0.063
12.515,-0.054
12.520,-0.054
12.525,-0.033
12.530,-0.022
12.535,0.016
12.540,0.032
12.545,0.047
12.550,0.066
12.555,0.051
12.560,0.061
12.565,0.060
12.570,0.047
12.575,0.050
12.580,0.046
12.585,0.057
12.590,0.050
12.595,0.045
12.600,0.056
12.605,0.111
12.610,0.175
12.615,0.061
12.620,-0.196
12.625,-0.561
12.630,-1.034
12.635,-1.504
12.640,-1.872
12.645,-1.850
12.650,-1.380
12.655,-0.732
12.660,-0.120
12.665,0.247
12.670,0.392
12.675,0.434
12.680,0.417
12.685,0.404
12.690,0.401
12.695,0.423
12.700,0.422
12.705,0.390
12.710,0.389
12.715,0.372
12.720,0.359
12.725,0.358
12.730,0.339
12.735,0.334
12.740,0.313
12.745,0.300
12.750,0.285
12.755,0.249
12.760,0.248
12.765,0.234
12.770,0.221
12.775,0.228
12.780,0.216
12.785,0.207
12.790,0.176
12.795,0.149
12.800,0.136
12.805,0.114
12.810,0.115
12.815,0.103
12.820,0.093
12.825,0.086
12.830,0.075
12.835,0.085
12.840,0.064
12.845,0.049
12.850,0.040
12.855,0.014
12.860,0.017
12.865,0.006
12.870,-0.002
12.875,-0.013
12.880,-0.045
12.885,-0.045
12.890,-0.066
12.895,-0.077
12.900,-0.081
12.905,-0.117
12.910,-0.116
12.915,-0.133
12.920,-0.153
12.925,-0.140
12.930,-0.139
12.935,-0.132
12.940,-0.122
12.945,-0.093
12.950,-0.069
12.955,-0.041
12.960,0.014
12.965,0.033
12.970,0.058
12.975,0.084
12.980,0.088
12.985,0.111
12.990,0.106
12.995,0.116
13.000,0.120
13.005,0.090
13.010,0.105
13.015,0.096
13.020,0.086
13.025,0.099
13.030,0.079
13.035,0.072
13.040,0.048
13.045,0.045
13.050,0.064
13.055,0.044
13.060,0.049
13.065,0.045
13.070,0.026
13.075,0.022
13.080,0.015
13.085,0.026
13.090,0.013
13.095,0.001
13.100,-0.005
13.105,-0.011
13.110,0.020
13.115,0.014
13.120,0.005
13.125,0.014
13.130,0.001
13.135,0.014
13.140,0.003
13.145,-0.005
13.150,0.007
13.155,-0.006
13.160,0.005
13.165,-0.003
13.170,-0.012
13.175,0.010
13.180,0.013
13.185,0.014
13.190,-0.007
13.195,-0.006
13.200,0.000
13.205,-0.032
13.210,-0.024
13.215,-0.042
13.220,-0.076
13.225,-0.082
13.230,-0.099
13.235,-0.092
13.240,-0.098
13.245,-0.091
13.250,-0.081
13.255,-0.101
13.260,-0.090
13.265,-0.098
13.270,-0.089
13.275,-0.064
13.280,-0.075
13.285,-0.058
13.290,-0.047
13.295,-0.038
13.300,-0.026
13.305,-0.012
13.310,0.031
13.315,0.040
13.320,0.051
13.325,0.060
13.330,0.053
13.335,0.066
13.340,0.046
13.345,0.043
13.350,0.044
13.355,0.032
13.360,0.060
13.365,0.064
13.370,0.083
13.375,0.154
13.380,0.197
13.385,0.119
13.390,-0.136
13.395,-0.498
13.400,-0.966
13.405,-1.483
13.410,-1.815
13.415,-1.797
13.420,-1.423
13.425,-0.854
13.430,-0.260
13.435,0.178
13.440,0.381
13.445,0.434
13.450,0.415
13.455,0.403
13.460,0.432
13.465,0.420
13.470,0.404
13.475,0.410
13.480,0.385
13.485,0.379
13.490,0.364
13.495,0.350
13.500,0.340
13.505,0.316
13.510,0.321
13.515,0.295
13.520,0.268
13.525,0.249
13.530,0.215
13.535,0.224
13.540,0.214
13.545,0.203
13.550,0.211
13.555,0.190
13.560,0.182
13.565,0.158
13.570,0.133
13.575,0.137
13.580,0.134
13.585,0.132
13.590,0.109
13.595,0.099
13.600,0.093
13.605,0.065
13.610,0.056
13.615,0.025
13.620,0.006
13.625,0.010
13.630,-0.003
13.635,-0.012
13.640,-0.032
13.645,-0.029
13.650,-0.028
13.655,-0.058
13.660,-0.071
13.665,-0.090
13.670,-0.091
13.675,-0.082
13.680,-0.101
13.685,-0.120
13.690,-0.151
13.695,-0.148
13.700,-0.136
13.705,-0.144
13.710,-0.104
13.715,-0.077
13.720,-0.047
13.725,-0.017
13.730,-0.018
13.735,0.017
13.740,0.034
13.745,0.052
13.750,0.079
13.755,0.083
13.760,0.109
13.765,0.106
13.770,0.100
13.775,0.104
13.780,0.084
13.785,0.092
13.790,0.087
13.795,0.082
13.800,0.077
13.805,0.059
13.810,0.077
13.815,0.056
13.820,0.025
13.825,0.031
13.830,0.027
13.835,0.017
13.840,-0.010
13.845,-0.009
13.850,0.003
13.855,-0.023
13.860,-0.015
13.865,-0.004
13.870,-0.001
13.875,0.017
13.880,0.025
13.885,0.042
13.890,0.020
13.895,-0.014
13.900,-0.019
13.905,-0.024
13.910,0.003
13.915,0.003
13.920,-0.005
13.925,0.028
13.930,0.025
13.935,0.008
13.940,-0.009
13.945,-0.008
13.950,0.002
13.955,-0.014
13.960,-0.015
13.965,-0.031
13.970,-0.051
13.975,-0.069
13.980,-0.084
13.985,-0.064
13.990,-0.073
13.995,-0.073
14.000,-0.062
14.005,-0.076
14.010,-0.078
14.015,-0.112
14.020,-0.099
14.025,-0.053
14.030,-0.050
14.035,-0.046
14.040,-0.062
14.045,-0.048
14.050,-0.024
14.055,-0.008
14.060,0.048
14.065,0.050
14.070,0.038
14.075,0.048
14.080,0.042
14.085,0.059
14.090,0.046
14.095,0.042
14.100,0.055
14.105,0.031
14.110,0.043
14.115,0.051
14.120,0.054
14.125,0.126
14.130,0.202
14.135,0.177
14.140,-0.029
14.145,-0.387
14.150,-0.886
14.155,-1.420
14.160,-1.771
14.165,-1.806
14.170,-1.522
14.175,-1.023
14.180,-0.388
14.185,0.132
14.190,0.359
14.195,0.403
14.200,0.386
14.205,0.404
14.210,0.440
14.215,0.417
14.220,0.413
14.225,0.420
14.230,0.384
14.235,0.390
14.240,0.397
14.245,0.384
14.250,0.344
14.255,0.308
14.260,0.341
14.265,0.330
14.270,0.291
14.275,0.268
14.280,0.231
14.285,0.229
14.290,0.227
14.295,0.218
14.300,0.190
14.305,0.149
14.310,0.161
14.315,0.151
14.320,0.118
14.325,0.125
14.330,0.133
14.335,0.130
14.340,0.114
14.345,0.111
14.350,0.105
14.355,0.058
14.360,0.040
14.365,0.034
14.370,0.032
14.375,0.029
14.380,0.002
14.385,0.017
14.390,0.000
14.395,-0.041
14.400,-0.045
14.405,-0.056
14.410,-0.052
14.415,-0.083
14.420,-0.112
14.425,-0.107
14.430,-0.132
14.435,-0.145
14.440,-0.158
14.445,-0.152
14.450,-0.129
14.455,-0.118
14.460,-0.071
14.465,-0.063
14.470,-0.057
14.475,-0.007
14.480,0.029
14.485,0.073
14.490,0.086
14.495,0.108
14.500,0.131
14.505,0.106
14.510,0.109
14.515,0.096
14.520,0.103
14.525,0.124
14.530,0.100
14.535,0.104
14.540,0.099
14.545,0.087
14.550,0.078
14.555,0.062
14.560,0.072
14.565,0.058
14.570,0.042
14.575,0.042
14.580,0.031
14.585,0.024
14.590,-0.008
14.595,-0.004
14.600,0.022
14.605,0.007
14.610,0.016
14.615,0.001
14.620,-0.029
14.625,-0.014
14.630,-0.007
14.635,-0.006
14.640,-0.012
14.645,-0.007
14.650,0.004
14.655,0.002
14.660,0.004
14.665,-0.024
14.670,-0.023
14.675,-0.004
14.680,-0.001
14.685,0.026
14.690,0.003
14.695,-0.021
14.700,-0.050
14.705,-0.102
14.710,-0.070
14.715,-0.050
14.720,-0.061
14.725,-0.062
14.730,-0.076
14.735,-0.079
14.740,-0.104
14.745,-0.094
14.750,-0.064
14.755,-0.069
14.760,-0.063
14.765,-0.073
14.770,-0.049
14.775,-0.010
14.780,-0.022
14.785,-0.005
14.790,0.013
14.795,0.018
14.800,0.029
14.805,0.035
14.810,0.073
14.815,0.082
14.820,0.057
14.825,0.055
14.830,0.050
14.835,0.056
14.840,0.052
14.845,0.060
14.850,0.106
14.855,0.172
14.860,0.227
14.865,0.097
14.870,-0.221
14.875,-0.654
14.880,-1.194
14.885,-1.694
14.890,-1.982
14.895,-1.843
14.900,-1.289
14.905,-0.602
14.910,0.005
14.915,0.345
14.920,0.446
14.925,0.453
14.930,0.423
14.935,0.414
14.940,0.414
14.945,0.448
14.950,0.455
14.955,0.407
14.960,0.396
14.965,0.387
14.970,0.390
14.975,0.381
14.980,0.328
14.985,0.300
14.990,0.280
14.995,0.285
15.000,0.295
15.005,0.258
15.010,0.232
15.015,0.213
15.020,0.209
15.025,0.220
15.030,0.208
15.035,0.210
15.040,0.194
15.045,0.170
15.050,0.164
15.055,0.133
15.060,0.128
15.065,0.132
15.070,0.127
15.075,0.113
15.080,0.070
15.085,0.066
15.090,0.063
15.095,0.051
15.100,0.035
15.105,-0.006
15.110,-0.008
15.115,-0.026
15.120,-0.063
15.125,-0.055
15.130,-0.045
15.135,-0.057
15.140,-0.115
15.145,-0.148
15.150,-0.132
15.155,-0.134
15.160,-0.142
15.165,-0.161
15.170,-0.157
15.175,-0.138
15.180,-0.126
15.185,-0.079
15.190,-0.050
15.195,-0.031
15.200,-0.020
15.205,-0.010
15.210,0.046
15.215,0.077
15.220,0.108
15.225,0.134
15.230,0.103
15.235,0.100
15.240,0.107
15.245,0.106
15.250,0.102
15.255,0.072
15.260,0.055
15.265,0.045
15.270,0.073
15.275,0.108
15.280,0.088
15.285,0.053
15.290,0.006
15.295,0.010
15.300,0.024
15.305,-0.015
15.310,0.018
15.315,0.023
15.320,-0.024
15.325,-0.010
15.330,-0.001
15.335,0.008
15.340,-0.010
15.345,-0.043
15.350,-0.038
15.355,-0.038
15.360,-0.013
15.365,-0.014
15.370,-0.042
15.375,-0.039
15.380,-0.052
15.385,-0.046
15.390,-0.039
15.395,-0.039
15.400,-0.033
15.405,-0.042
15.410,-0.028
15.415,-0.046
15.420,-0.067
15.425,-0.074
15.430,-0.094
15.435,-0.075
15.440,-0.090
15.445,-0.107
15.450,-0.095
15.455,-0.107
15.460,-0.079
15.465,-0.087
15.470,-0.119
15.475,-0.097
15.480,-0.090
15.485,-0.070
15.490,-0.071
15.495,-0.085
15.500,-0.052
15.505,-0.023
15.510,0.029
15.515,0.052
15.520,0.037
15.525,0.061
15.530,0.077
15.535,0.075
15.540,0.060
15.545,0.060
15.550,0.059
15.555,0.038
15.560,0.056
15.565,0.061
15.570,0.097
15.575,0.188
15.580,0.209
15.585,0.084
15.590,-0.262
15.595,-0.768
15.600,-1.320
15.605,-1.804
15.610,-1.948
15.615,-1.694
15.620,-1.145
15.625,-0.452
15.630,0.101
15.635,0.390
15.640,0.443
15.645,0.418
15.650,0.425
15.655,0.424
15.660,0.429
15.665,0.418
15.670,0.425
15.675,0.431
15.680,0.386
15.685,0.377
15.690,0.371
15.695,0.355
15.700,0.351
15.705,0.322
15.710,0.308
15.715,0.279
15.720,0.256
15.725,0.252
15.730,0.215
15.735,0.208
15.740,0.219
15.745,0.221
15.750,0.203
15.755,0.160
15.760,0.170
15.765,0.170
15.770,0.147
15.775,0.141
15.780,0.118
15.785,0.105
15.790,0.081
15.795,0.078
15.800,0.090
15.805,0.079
15.810,0.089
15.815,0.058
15.820,0.015
15.825,-0.003
15.830,-0.021
15.835,-0.018
15.840,-0.045
15.845,-0.061
15.850,-0.050
15.855,-0.065
15.860,-0.063
15.865,-0.087
15.870,-0.109
15.875,-0.116
15.880,-0.146
15.885,-0.139
15.890,-0.144
15.895,-0.144
15.900,-0.124
15.905,-0.122
15.910,-0.083
15.915,-0.058
15.920,-0.036
15.925,0.009
15.930,0.028
15.935,0.046
15.940,0.060
15.945,0.082
15.950,0.100
15.955,0.080
15.960,0.090
15.965,0.091
15.970,0.092
15.975,0.120
15.980,0.110
15.985,0.090
15.990,0.055
15.995,0.043
16.000,0.050
16.005,0.032
16.010,0.050
16.015,0.054
16.020,0.043
16.025,0.036
16.030,0.004
16.035,0.007
16.040,0.005
16.045,-0.002
16.050,0.000
16.055,-0.016
16.060,0.007
16.065,0.004
16.070,-0.011
16.075,0.000
16.080,-0.013
16.085,-0.006
16.090,-0.017
16.095,-0.009
16.100,0.014
16.105,-0.010
16.110,-0.004
16.115,-0.007
16.120,-0.009
16.125,0.005
16.130,-0.010
16.135,-0.013
16.140,-0.031
16.145,-0.044
16.150,-0.049
16.155,-0.068
16.160,-0.062
16.165,-0.077
16.170,-0.088
16.175,-0.083
16.180,-0.092
16.185,-0.078
16.190,-0.078
16.195,-0.069
16.200,-0.053
16.205,-0.060
16.210,-0.039
16.215,-0.040
16.220,-0.039
16.225,-0.005
16.230,0.019
16.235,0.042
16.240,0.046
16.245,0.065
16.250,0.079
16.255,0.060
16.260,0.073
16.265,0.064
16.270,0.049
16.275,0.055
16.280,0.038
16.285,0.041
16.290,0.046
16.295,0.102
16.300,0.201
16.305,0.196
16.310,0.046
16.315,-0.313
16.320,-0.839
16.325,-1.391
16.330,-1.746
16.335,-1.774
16.340,-1.616
16.345,-1.132
16.350,-0.434
16.355,0.120
16.360,0.425
16.365,0.419
16.370,0.375
16.375,0.426
16.380,0.418
16.385,0.409
16.390,0.420
16.395,0.433
16.400,0.422
16.405,0.385
16.410,0.388
16.415,0.359
16.420,0.337
16.425,0.346
16.430,0.310
16.435,0.299
16.440,0.300
16.445,0.292
16.450,0.261
16.455,0.217
16.460,0.231
16.465,0.216
16.470,0.190
16.475,0.202
16.480,0.188
16.485,0.171
16.490,0.150
16.495,0.139
16.500,0.136
16.505,0.110
16.510,0.109
16.515,0.099
16.520,0.081
16.525,0.081
16.530,0.064
16.535,0.062
16.540,0.047
16.545,0.029
16.550,0.026
16.555,0.000
16.560,-0.008
16.565,-0.022
16.570,-0.038
16.575,-0.038
16.580,-0.052
16.585,-0.066
16.590,-0.106
16.595,-0.126
16.600,-0.124
16.605,-0.136
16.610,-0.121
16.615,-0.148
16.620,-0.173
16.625,-0.146
16.630,-0.133
16.635,-0.096
16.640,-0.075
16.645,-0.051
16.650,-0.010
16.655,-0.002
16.660,0.040
16.665,0.062
16.670,0.067
16.675,0.084
16.680,0.073
16.685,0.083
16.690,0.084
16.695,0.087
16.700,0.090
16.705,0.064
16.710,0.068
16.715,0.058
16.720,0.048
16.725,0.065
16.730,0.063
16.735,0.067
16.740,0.052
16.745,0.043
16.750,0.041
16.755,0.015
16.760,0.028
16.765,0.034
16.770,0.027
16.775,0.029
16.780,0.008
16.785,0.008
16.790,0.003
16.795,0.001
16.800,0.010
16.805,0.005
16.810,0.018
16.815,0.004
16.820,-0.007
16.825,0.003
16.830,0.002
16.835,0.024
16.840,0.020
16.845,0.011
16.850,0.006
16.855,-0.010
16.860,0.023
16.865,0.015
16.870,-0.027
16.875,-0.039
16.880,-0.061
16.885,-0.060
16.890,-0.061
16.895,-0.067
16.900,-0.065
16.905,-0.083
16.910,-0.075
16.915,-0.084
16.920,-0.101
16.925,-0.076
16.930,-0.050
16.935,-0.019
16.940,-0.034
16.945,-0.052
16.950,-0.051
16.955,-0.054
16.960,-0.003
16.965,0.030
16.970,0.048
16.975,0.072
16.980,0.065
16.985,0.059
16.990,0.035
16.995,0.032
17.000,0.051
17.005,0.053
17.010,0.071
17.015,0.054
17.020,0.035
17.025,0.056
17.030,0.101
17.035,0.193
17.040,0.163
17.045,-0.047
17.050,-0.401
17.055,-0.929
17.060,-1.456
17.065,-1.745
17.070,-1.786
17.075,-1.576
17.080,-1.022
17.085,-0.361
17.090,0.140
17.095,0.387
17.100,0.398
17.105,0.393
17.110,0.440
17.115,0.415
17.120,0.397
17.125,0.440
17.130,0.427
17.135,0.397
17.140,0.383
17.145,0.381
17.150,0.361
17.155,0.331
17.160,0.340
17.165,0.307
17.170,0.280
17.175,0.286
17.180,0.266
17.185,0.262
17.190,0.250
17.195,0.239
17.200,0.224
17.205,0.193
17.210,0.204
17.215,0.188
17.220,0.162
17.225,0.162
17.230,0.146
17.235,0.143
17.240,0.125
17.245,0.117
17.250,0.113
17.255,0.078
17.260,0.086
17.265,0.082
17.270,0.064
17.275,0.062
17.280,0.027
17.285,0.015
17.290,0.000
17.295,-0.016
17.300,-0.009
17.305,-0.024
17.310,-0.032
17.315,-0.060
17.320,-0.078
17.325,-0.080
17.330,-0.105
17.335,-0.110
17.340,-0.134
17.345,-0.152
17.350,-0.146
17.355,-0.158
17.360,-0.126
17.365,-0.109
17.370,-0.105
17.375,-0.062
17.380,-0.040
17.385,-0.012
17.390,0.006
17.395,0.026
17.400,0.056
17.405,0.058
17.410,0.081
17.415,0.080
17.420,0.065
17.425,0.073
17.430,0.068
17.435,0.074
17.440,0.063
17.445,0.058
17.450,0.061
17.455,0.043
17.460,0.056
17.465,0.051
17.470,0.035
17.475,0.042
17.480,0.035
17.485,0.045
17.490,0.037
17.495,0.025
17.500,0.029
17.505,0.012
17.510,0.022
17.515,0.016
17.520,0.000
17.525,0.006
17.530,-0.005
17.535,0.006
17.540,0.016
17.545,0.014
17.550,0.008
17.555,-0.014
17.560,0.005
17.565,0.008
17.570,-0.010
17.575,-0.001
17.580,-0.006
17.585,-0.001
17.590,-0.003
17.595,-0.003
17.600,0.001
17.605,-0.009
17.610,0.007
17.615,-0.003
17.620,-0.019
17.625,-0.027
17.630,-0.060
17.635,-0.063
17.640,-0.073
17.645,-0.081
17.650,-0.075
17.655,-0.094
17.660,-0.086
17.665,-0.096
17.670,-0.107
17.675,-0.091
17.680,-0.090
17.685,-0.075
17.690,-0.064
17.695,-0.043
17.700,-0.034
17.705,-0.059
17.710,-0.033
17.715,0.005
17.720,0.031
17.725,0.052
17.730,0.052
17.735,0.069
17.740,0.059
17.745,0.053
17.750,0.060
17.755,0.038
17.760,0.055
17.765,0.046
17.770,0.023
17.775,0.042
17.780,0.065
17.785,0.148
17.790,0.189
17.795,0.085
17.800,-0.155
17.805,-0.574
17.810,-1.075
17.815,-1.542
17.820,-1.859
17.825,-1.837
17.830,-1.411
17.835,-0.750
17.840,-0.139
17.845,0.250
17.850,0.389
17.855,0.406
17.860,0.434
17.865,0.420
17.870,0.408
17.875,0.435
17.880,0.416
17.885,0.401
17.890,0.394
17.895,0.385
17.900,0.371
17.905,0.334
17.910,0.331
17.915,0.323
17.920,0.310
17.925,0.304
17.930,0.273
17.935,0.260
17.940,0.242
17.945,0.236
17.950,0.237
17.955,0.197
17.960,0.196
17.965,0.198
17.970,0.178
17.975,0.168
17.980,0.143
17.985,0.141
17.990,0.134
17.995,0.116
18.000,0.106
18.005,0.086
18.010,0.094
18.015,0.077
18.020,0.052
18.025,0.064
18.030,0.055
18.035,0.048
18.040,0.026
18.045,0.004
18.050,0.004
18.055,-0.022
18.060,-0.028
18.065,-0.039
18.070,-0.059
18.075,-0.063
18.080,-0.086
18.085,-0.095
18.090,-0.117
18.095,-0.137
18.100,-0.139
18.105,-0.150
18.110,-0.131
18.115,-0.136
18.120,-0.137
18.125,-0.098
18.130,-0.078
18.135,-0.045
18.140,-0.022
18.145,0.004
18.150,0.037
18.155,0.041
18.160,0.069
18.165,0.076
18.170,0.070
18.175,0.083
18.180,0.073
18.185,0.081
18.190,0.077
18.195,0.073
18.200,0.081
18.205,0.061
18.210,0.071
18.215,0.064
18.220,0.037
18.225,0.046
18.230,0.041
18.235,0.040
18.240,0.044
18.245,0.041
18.250,0.030
18.255,0.006
18.260,0.017
18.265,0.022
18.270,0.013
18.275,0.019
18.280,0.014
18.285,0.023
18.290,0.016
18.295,0.011
18.300,0.029
18.305,0.015
18.310,0.016
18.315,0.007
18.320,-0.010
18.325,0.005
18.330,0.004
18.335,0.015
18.340,0.021
18.345,0.013
18.350,0.001
18.355,-0.025
18.360,-0.010
18.365,-0.002
18.370,-0.006
18.375,-0.006
18.380,-0.020
18.385,-0.006
18.390,-0.009
18.395,-0.021
18.400,-0.034
18.405,-0.071
18.410,-0.068
18.415,-0.081
18.420,-0.098
18.425,-0.089
18.430,-0.106
18.435,-0.105
18.440,-0.107
18.445,-0.100
18.450,-0.083
18.455,-0.091
18.460,-0.064
18.465,-0.053
18.470,-0.053
18.475,-0.035
18.480,-0.036
18.485,-0.006
18.490,0.024
18.495,0.040
18.500,0.054
18.505,0.040
18.510,0.057
18.515,0.068
18.520,0.053
18.525,0.052
18.530,0.039
18.535,0.044
18.540,0.051
18.545,0.038
18.550,0.043
18.555,0.097
18.560,0.181
18.565,0.118
18.570,-0.119
18.575,-0.465
18.580,-0.942
18.585,-1.439
18.590,-1.834
18.595,-1.869
18.600,-1.437
18.605,-0.816
18.610,-0.200
18.615,0.213
18.620,0.382
18.625,0.429
18.630,0.408
18.635,0.401
18.640,0.393
18.645,0.397
18.650,0.416
18.655,0.392
18.660,0.381
18.665,0.364
18.670,0.348
18.675,0.353
18.680,0.326
18.685,0.310
18.690,0.295
18.695,0.282
18.700,0.279
18.705,0.253
18.710,0.249
18.715,0.235
18.720,0.218
18.725,0.216
18.730,0.185
18.735,0.175
18.740,0.168
18.745,0.160
18.750,0.152
18.755,0.127
18.760,0.135
18.765,0.122
18.770,0.090
18.775,0.086
18.780,0.072
18.785,0.075
18.790,0.077
18.795,0.063
18.800,0.036
18.805,0.003
18.810,0.012
18.815,0.019
18.820,0.010
18.825,0.005
18.830,-0.017
18.835,-0.038
18.840,-0.056
18.845,-0.053
18.850,-0.059
18.855,-0.096
18.860,-0.100
18.865,-0.114
18.870,-0.134
18.875,-0.127
18.880,-0.140
18.885,-0.133
18.890,-0.127
18.895,-0.108
18.900,-0.062
18.905,-0.044
18.910,-0.019
18.915,-0.006
18.920,0.009
18.925,0.051
18.930,0.063
18.935,0.073
18.940,0.077
18.945,0.077
18.950,0.085
18.955,0.075
18.960,0.082
18.965,0.077
18.970,0.071
18.975,0.074
18.980,0.057
18.985,0.062
18.990,0.048
18.995,0.041
19.000,0.048
19.005,0.023
19.010,0.037
19.015,0.044
19.020,0.038
19.025,0.041
19.030,0.019
19.035,0.021
19.040,0.014
19.045,0.009
19.050,0.018
19.055,0.005
19.060,0.025
19.065,0.017
19.070,-0.004
19.075,0.013
19.080,0.009
19.085,0.022
19.090,0.027
19.095,0.019
19.100,0.020
19.105,0.002
19.110,0.018
19.115,0.022
19.120,0.014
19.125,0.024
19.130,0.003
19.135,-0.003
19.140,-0.002
19.145,0.000
19.150,0.001
19.155,-0.016
19.160,-0.007
19.165,-0.032
19.170,-0.067
19.175,-0.069
19.180,-0.088
19.185,-0.090
19.190,-0.097
19.195,-0.096
19.200,-0.080
19.205,-0.102
19.210,-0.099
19.215,-0.094
19.220,-0.088
19.225,-0.059
19.230,-0.063
19.235,-0.053
19.240,-0.047
19.245,-0.043
19.250,-0.017
19.255,-0.008
19.260,0.037
19.265,0.058
19.270,0.047
19.275,0.065
19.280,0.054
19.285,0.051
19.290,0.047
19.295,0.041
19.300,0.052
19.305,0.029
19.310,0.033
19.315,0.041
19.320,0.058
19.325,0.139
19.330,0.161
19.335,0.056
19.340,-0.197
19.345,-0.590
19.350,-1.075
19.355,-1.584
19.360,-1.856
19.365,-1.716
19.370,-1.231
19.375,-0.585
19.380,-0.035
19.385,0.296
19.390,0.420
19.395,0.419
19.400,0.405
19.405,0.392
19.410,0.395
19.415,0.391
19.420,0.385
19.425,0.395
19.430,0.374
19.435,0.365
19.440,0.357
19.445,0.336
19.450,0.323
19.455,0.293
19.460,0.294
19.465,0.277
19.470,0.247
19.475,0.249
19.480,0.234
19.485,0.231
19.490,0.209
19.495,0.179
19.500,0.172
19.505,0.155
19.510,0.165
19.515,0.153
19.520,0.127
19.525,0.129
19.530,0.117
19.535,0.111
19.540,0.089
19.545,0.074
19.550,0.080
19.555,0.062
19.560,0.071
19.565,0.063
19.570,0.035
19.575,0.041
19.580,0.020
19.585,-0.001
19.590,-0.021
19.595,-0.043
19.600,-0.040
19.605,-0.051
19.610,-0.047
19.615,-0.065
19.620,-0.098
19.625,-0.103
19.630,-0.129
19.635,-0.130
19.640,-0.132
19.645,-0.143
19.650,-0.125
19.655,-0.123
19.660,-0.096
19.665,-0.077
19.670,-0.061
19.675,-0.014
19.680,-0.008
19.685,0.008
19.690,0.031
19.695,0.056
19.700,0.092
19.705,0.074
19.710,0.076
19.715,0.089
19.720,0.091
19.725,0.109
19.730,0.092
19.735,0.073
19.740,0.063
19.745,0.057
19.750,0.054
19.755,0.033
19.760,0.050
19.765,0.057
19.770,0.034
19.775,0.035
19.780,0.030
19.785,0.038
19.790,0.032
19.795,0.015
19.800,0.011
19.805,0.003
19.810,0.026
19.815,0.023
19.820,0.010
19.825,0.027
19.830,0.011
19.835,0.008
19.840,-0.001
19.845,-0.010
19.850,0.010
19.855,0.004
19.860,0.016
19.865,0.015
19.870,-0.002
19.875,0.007
19.880,-0.004
19.885,0.009
19.890,0.024
19.895,0.028
19.900,0.031
19.905,-0.009
19.910,-0.013
19.915,-0.013
19.920,-0.035
19.925,-0.034
19.930,-0.059
19.935,-0.072
19.940,-0.074
19.945,-0.085
19.950,-0.081
19.955,-0.093
19.960,-0.083
19.965,-0.078
19.970,-0.091
19.975,-0.086
19.980,-0.098
19.985,-0.079
19.990,-0.061
19.995,-0.052
20.000,-0.029
20.005,-0.040
20.010,-0.001
20.015,0.039
20.020,0.047
20.025,0.081
20.030,0.067
20.035,0.055
20.040,0.059
20.045,0.049
20.050,0.054
20.055,0.037
20.060,0.042
20.065,0.054
20.070,0.051
20.075,0.079
20.080,0.126
20.085,0.185
20.090,0.124
20.095,-0.083
20.100,-0.397
20.105,-0.890
20.110,-1.402
20.115,-1.716
20.120,-1.770
20.125,-1.476
20.130,-0.883
20.135,-0.266
20.140,0.188
20.145,0.411
20.150,0.428
20.155,0.400
20.160,0.407
20.165,0.384
20.170,0.382
20.175,0.412
20.180,0.382
20.185,0.363
20.190,0.372
20.195,0.366
20.200,0.348
20.205,0.315
20.210,0.310
20.215,0.289
20.220,0.266
20.225,0.274
20.230,0.248
20.235,0.229
20.240,0.215
20.245,0.204
20.250,0.203
20.255,0.179
20.260,0.176
20.265,0.146
20.270,0.121
20.275,0.150
20.280,0.137
20.285,0.114
20.290,0.094
20.295,0.083
20.300,0.098
20.305,0.087
20.310,0.080
20.315,0.063
20.320,0.038
20.325,0.030
20.330,0.010
20.335,0.007
20.340,0.001
20.345,-0.007
20.350,-0.019
20.355,-0.059
20.360,-0.057
20.365,-0.055
20.370,-0.076
20.375,-0.078
20.380,-0.098
20.385,-0.105
20.390,-0.113
20.395,-0.131
20.400,-0.130
20.405,-0.135
20.410,-0.113
20.415,-0.093
20.420,-0.082
20.425,-0.052
20.430,-0.036
20.435,0.000
20.440,0.028
20.445,0.041
20.450,0.063
20.455,0.067
20.460,0.091
20.465,0.084
20.470,0.071
20.475,0.088
20.480,0.077
20.485,0.080
20.490,0.073
20.495,0.060
20.500,0.070
20.505,0.048
20.510,0.045
20.515,0.046
20.520,0.031
20.525,0.038
20.530,0.028
20.535,0.017
20.540,0.018
20.545,0.024
20.550,0.023
20.555,-0.005
20.560,0.002
20.565,0.004
20.570,0.003
20.575,0.022
20.580,0.005
20.585,-0.005
20.590,-0.005
20.595,0.005
20.600,0.021
20.605,0.004
20.610,0.007
20.615,0.003
20.620,-0.002
20.625,0.012
20.630,-0.005
20.635,-0.005
20.640,-0.003
20.645,-0.004
20.650,0.016
20.655,0.001
20.660,-0.005
20.665,-0.022
20.670,-0.055
20.675,-0.044
20.680,-0.055
20.685,-0.069
20.690,-0.073
20.695,-0.080
20.700,-0.071
20.705,-0.083
20.710,-0.081
20.715,-0.088
20.720,-0.103
20.725,-0.080
20.730,-0.064
20.735,-0.044
20.740,-0.047
20.745,-0.052
20.750,-0.022
20.755,-0.010
20.760,0.025
20.765,0.043
20.770,0.040
20.775,0.065
20.780,0.064
20.785,0.071
20.790,0.060
20.795,0.042
20.800,0.053
20.805,0.041
20.810,0.051
20.815,0.048
20.820,0.037
20.825,0.100
20.830,0.171
20.835,0.185
20.840,0.052
20.845,-0.231
20.850,-0.648
20.855,-1.179
20.860,-1.615
20.865,-1.772
20.870,-1.639
20.875,-1.228
20.880,-0.607
20.885,-0.042
20.890,0.300
20.895,0.422
20.900,0.411
20.905,0.401
20.910,0.413
20.915,0.383
20.920,0.379
20.925,0.410
20.930,0.387
20.935,0.376
20.940,0.375
20.945,0.363
20.950,0.344
20.955,0.313
20.960,0.319
20.965,0.294
20.970,0.265
20.975,0.269
20.980,0.235
20.985,0.232
20.990,0.234
20.995,0.213
21.000,0.202
21.005,0.177
21.010,0.175
21.015,0.157
21.020,0.134
21.025,0.144
21.030,0.124
21.035,0.115
21.040,0.105
21.045,0.089
21.050,0.090
21.055,0.061
21.060,0.059
21.065,0.059
21.070,0.035
21.075,0.029
21.080,0.011
21.085,0.006
21.090,-0.013
21.095,-0.035
21.100,-0.035
21.105,-0.048
21.110,-0.047
21.115,-0.068
21.120,-0.098
21.125,-0.100
21.130,-0.117
21.135,-0.126
21.140,-0.142
21.145,-0.146
21.150,-0.130
21.155,-0.134
21.160,-0.115
21.165,-0.098
21.170,-0.073
21.175,-0.017
21.180,0.003
21.185,0.019
21.190,0.035
21.195,0.050
21.200,0.079
21.205,0.082
21.210,0.104
21.215,0.109
21.220,0.085
21.225,0.101
21.230,0.100
21.235,0.097
21.240,0.089
21.245,0.070
21.250,0.070
21.255,0.060
21.260,0.069
21.265,0.057
21.270,0.031
21.275,0.041
21.280,0.039
21.285,0.042
21.290,0.028
21.295,0.007
21.300,0.013
21.305,0.014
21.310,0.026
21.315,0.018
21.320,0.003
21.325,0.017
21.330,0.007
21.335,0.005
21.340,0.008
21.345,0.001
21.350,0.002
21.355,-0.018
21.360,-0.005
21.365,0.004
21.370,-0.012
21.375,0.004
21.380,0.007
21.385,0.004
21.390,-0.001
21.395,-0.004
21.400,0.000
21.405,-0.016
21.410,-0.002
21.415,0.004
21.420,-0.019
21.425,-0.035
21.430,-0.067
21.435,-0.074
21.440,-0.075
21.445,-0.085
21.450,-0.085
21.455,-0.106
21.460,-0.097
21.465,-0.092
21.470,-0.098
21.475,-0.074
21.480,-0.081
21.485,-0.072
21.490,-0.048
21.495,-0.053
21.500,-0.044
21.505,-0.043
21.510,-0.010
21.515,0.028
21.520,0.036
21.525,0.061
21.530,0.060
21.535,0.056
21.540,0.049
21.545,0.048
21.550,0.062
21.555,0.044
21.560,0.050
21.565,0.047
21.570,0.023
21.575,0.035
21.580,0.069
21.585,0.166
21.590,0.195
21.595,0.049
21.600,-0.218
21.605,-0.638
21.610,-1.135
21.615,-1.587
21.620,-1.873
21.625,-1.781
21.630,-1.274
21.635,-0.586
21.640,-0.008
21.645,0.308
21.650,0.406
21.655,0.414
21.660,0.429
21.665,0.404
21.670,0.375
21.675,0.412
21.680,0.415
21.685,0.404
21.690,0.397
21.695,0.375
21.700,0.363
21.705,0.341
21.710,0.347
21.715,0.332
21.720,0.286
21.725,0.282
21.730,0.263
21.735,0.243
21.740,0.235
21.745,0.218
21.750,0.216
21.755,0.192
21.760,0.177
21.765,0.164
21.770,0.149
21.775,0.161
21.780,0.153
21.785,0.148
21.790,0.130
21.795,0.103
21.800,0.104
21.805,0.094
21.810,0.098
21.815,0.081
21.820,0.054
21.825,0.061
21.830,0.046
21.835,0.033
21.840,0.018
21.845,0.003
21.850,0.006
21.855,-0.026
21.860,-0.046
21.865,-0.054
21.870,-0.069
21.875,-0.070
21.880,-0.099
21.885,-0.114
21.890,-0.120
21.895,-0.140
21.900,-0.146
21.905,-0.144
21.910,-0.104
21.915,-0.088
21.920,-0.090
21.925,-0.062
21.930,-0.044
21.935,-0.003
21.940,0.030
21.945,0.056
21.950,0.083
21.955,0.067
21.960,0.090
21.965,0.116
21.970,0.109
21.975,0.124
21.980,0.112
21.985,0.100
21.990,0.105
21.995,0.096
22.000,0.088
22.005,0.066
22.010,0.065
22.015,0.059
22.020,0.045
22.025,0.061
22.030,0.054
22.035,0.054
22.040,0.050
22.045,0.041
22.050,0.055
22.055,0.034
22.060,0.030
22.065,0.033
22.070,0.021
22.075,0.036
22.080,0.037
22.085,0.046
22.090,0.029
22.095,0.002
22.100,0.023
22.105,0.035
22.110,0.054
22.115,0.051
22.120,0.030
22.125,0.058
22.130,0.052
22.135,0.031
22.140,0.038
22.145,0.038
22.150,0.034
22.155,0.019
22.160,0.027
22.165,0.037
22.170,0.032
22.175,0.032
22.180,0.012
22.185,0.006
22.190,-0.003
22.195,-0.020
22.200,-0.040
22.205,-0.082
22.210,-0.079
22.215,-0.063
22.220,-0.061
22.225,-0.059
22.230,-0.086
22.235,-0.097
22.240,-0.103
22.245,-0.100
22.250,-0.067
22.255,-0.057
22.260,-0.039
22.265,-0.048
22.270,-0.066
22.275,-0.030
22.280,-0.009
22.285,0.014
22.290,0.027
22.295,0.030
22.300,0.057
22.305,0.047
22.310,0.041
22.315,0.035
22.320,0.014
22.325,0.030
22.330,0.031
22.335,0.025
22.340,0.023
22.345,0.029
22.350,0.089
22.355,0.155
22.360,0.125
22.365,-0.076
22.370,-0.409
22.375,-0.837
22.380,-1.344
22.385,-1.799
22.390,-1.974
22.395,-1.658
22.400,-1.004
22.405,-0.346
22.410,0.136
22.415,0.344
22.420,0.398
22.425,0.424
22.430,0.389
22.435,0.374
22.440,0.379
22.445,0.377
22.450,0.393
22.455,0.373
22.460,0.357
22.465,0.338
22.470,0.316
22.475,0.331
22.480,0.306
22.485,0.265
22.490,0.252
22.495,0.261
22.500,0.268
22.505,0.235
22.510,0.217
22.515,0.201
22.520,0.187
22.525,0.185
22.530,0.153
22.535,0.147
22.540,0.153
22.545,0.131
22.550,0.098
22.555,0.070
22.560,0.100
22.565,0.110
22.570,0.073
22.575,0.057
22.580,0.043
22.585,0.053
22.590,0.043
22.595,0.015
22.600,0.020
22.605,-0.003
22.610,-0.019
22.615,-0.035
22.620,-0.058
22.625,-0.036
22.630,-0.043
22.635,-0.073
22.640,-0.135
22.645,-0.189
22.650,-0.135
22.655,-0.091
22.660,-0.094
22.665,-0.124
22.670,-0.164
22.675,-0.145
22.680,-0.126
22.685,-0.115
22.690,-0.091
22.695,-0.059
22.700,-0.023
22.705,-0.013
22.710,0.019
22.715,0.043
22.720,0.044
22.725,0.078
22.730,0.072
22.735,0.051
22.740,0.060
22.745,0.064
22.750,0.073
22.755,0.088
22.760,0.109
22.765,0.111
22.770,0.090
22.775,0.082
22.780,0.060
22.785,0.050
22.790,0.052
22.795,0.043
22.800,0.044
22.805,0.018
22.810,0.013
22.815,0.018
22.820,0.017
22.825,0.039
22.830,0.021
22.835,0.008
22.840,0.000
22.845,-0.012
22.850,0.003
22.855,-0.005
22.860,0.006
22.865,0.012
22.870,-0.023
22.875,-0.034
22.880,-0.030
22.885,-0.002
22.890,0.018
22.895,0.010
22.900,-0.007
22.905,-0.037
22.910,-0.028
22.915,-0.026
22.920,-0.027
22.925,0.027
22.930,0.031
22.935,0.007
22.940,-0.010
22.945,-0.019
22.950,0.013
22.955,0.012
22.960,-0.001
22.965,-0.016
22.970,-0.066
22.975,-0.090
22.980,-0.092
22.985,-0.078
22.990,-0.079
22.995,-0.095
23.000,-0.099
23.005,-0.116
23.010,-0.084
23.015,-0.060
23.020,-0.092
23.025,-0.074
23.030,-0.070
23.035,-0.088
23.040,-0.055
23.045,-0.021
23.050,-0.009
23.055,-0.002
23.060,0.021
23.065,0.036
23.070,0.051
23.075,0.086
23.080,0.070
23.085,0.063
23.090,0.065
23.095,0.045
23.100,0.061
23.105,0.056
23.110,0.038
23.115,0.025
23.120,0.032
23.125,0.104
23.130,0.172
23.135,0.153
23.140,-0.012
23.145,-0.310
23.150,-0.723
23.155,-1.228
23.160,-1.664
23.165,-1.811
23.170,-1.568
23.175,-1.018
23.180,-0.379
23.185,0.109
23.190,0.350
23.195,0.412
23.200,0.403
23.205,0.388
23.210,0.401
23.215,0.390
23.220,0.373
23.225,0.398
23.230,0.388
23.235,0.376
23.240,0.361
23.245,0.325
23.250,0.319
23.255,0.292
23.260,0.280
23.265,0.292
23.270,0.277
23.275,0.271
23.280,0.241
23.285,0.216
23.290,0.217
23.295,0.203
23.300,0.190
23.305,0.173
23.310,0.184
23.315,0.171
23.320,0.128
23.325,0.121
23.330,0.101
23.335,0.098
23.340,0.089
23.345,0.067
23.350,0.086
23.355,0.077
23.360,0.067
23.365,0.066
23.370,0.044
23.375,0.035
23.380,0.003
23.385,-0.022
23.390,-0.014
23.395,-0.012
23.400,-0.017
23.405,-0.043
23.410,-0.058
23.415,-0.090
23.420,-0.123
23.425,-0.096
23.430,-0.104
23.435,-0.138
23.440,-0.159
23.445,-0.167
23.450,-0.147
23.455,-0.147
23.460,-0.118
23.465,-0.084
23.470,-0.075
23.475,-0.040
23.480,-0.018
23.485,0.017
23.490,0.055
23.495,0.080
23.500,0.103
23.505,0.088
23.510,0.102
23.515,0.116
23.520,0.097
23.525,0.099
23.530,0.080
23.535,0.084
23.540,0.102
23.545,0.082
23.550,0.076
23.555,0.063
23.560,0.059
23.565,0.055
23.570,0.040
23.575,0.047
23.580,0.035
23.585,0.034
23.590,0.037
23.595,0.023
23.600,0.005
23.605,-0.016
23.610,0.008
23.615,0.016
23.620,-0.004
23.625,0.004
23.630,-0.012
23.635,-0.019
23.640,0.000
23.645,0.009
23.650,0.013
23.655,-0.032
23.660,-0.050
23.665,-0.007
23.670,0.017
23.675,0.019
23.680,-0.001
23.685,0.007
23.690,0.015
23.695,-0.005
23.700,-0.001
23.705,-0.005
23.710,0.002
23.715,0.000
23.720,-0.014
23.725,-0.003
23.730,-0.042
23.735,-0.074
23.740,-0.068
23.745,-0.058
23.750,-0.058
23.755,-0.113
23.760,-0.112
23.765,-0.079
23.770,-0.091
23.775,-0.080
23.780,-0.097
23.785,-0.109
23.790,-0.078
23.795,-0.061
23.800,-0.045
23.805,-0.039
23.810,-0.031
23.815,-0.025
23.820,-0.010
23.825,0.033
23.830,0.044
23.835,0.060
23.840,0.066
23.845,0.048
23.850,0.054
23.855,0.036
23.860,0.035
23.865,0.050
23.870,0.040
23.875,0.042
23.880,0.039
23.885,0.069
23.890,0.138
23.895,0.181
23.900,0.125
23.905,-0.089
23.910,-0.420
23.915,-0.903
23.920,-1.444
23.925,-1.802
23.930,-1.819
23.935,-1.449
23.940,-0.868
23.945,-0.257
23.950,0.199
23.955,0.405
23.960,0.444
23.965,0.406
23.970,0.392
23.975,0.407
23.980,0.383
23.985,0.381
23.990,0.402
23.995,0.402
24.000,0.391
24.005,0.360
24.010,0.358
24.015,0.349
24.020,0.317
24.025,0.310
24.030,0.287
24.035,0.271
24.040,0.268
24.045,0.256
24.050,0.244
24.055,0.220
24.060,0.221
24.065,0.214
24.070,0.183
24.075,0.161
24.080,0.136
24.085,0.142
24.090,0.140
24.095,0.117
24.100,0.117
24.105,0.116
24.110,0.128
24.115,0.103
24.120,0.054
24.125,0.055
24.130,0.037
24.135,0.025
24.140,0.020
24.145,0.002
24.150,0.003
24.155,-0.022
24.160,-0.024
24.165,-0.024
24.170,-0.072
24.175,-0.082
24.180,-0.087
24.185,-0.091
24.190,-0.095
24.195,-0.124
24.200,-0.126
24.205,-0.128
24.210,-0.129
24.215,-0.118
24.220,-0.105
24.225,-0.079
24.230,-0.077
24.235,-0.051
24.240,-0.007
24.245,0.024
24.250,0.064
24.255,0.075
24.260,0.106
24.265,0.137
24.270,0.120
24.275,0.108
24.280,0.100
24.285,0.110
24.290,0.124
24.295,0.117
24.300,0.102
24.305,0.074
24.310,0.074
24.315,0.081
24.320,0.065
24.325,0.069
24.330,0.066
24.335,0.050
24.340,0.035
24.345,0.010
24.350,0.007
24.355,0.011
24.360,0.027
24.365,0.025
24.370,0.000
24.375,-0.004
24.380,-0.033
24.385,-0.042
24.390,-0.028
24.395,-0.014
24.400,0.023
24.405,0.024
24.410,0.020
24.415,0.004
24.420,-0.026
24.425,-0.002
24.430,0.009
24.435,0.018
24.440,0.021
24.445,-0.033
24.450,-0.049
24.455,-0.018
24.460,0.016
24.465,0.013
24.470,-0.014
24.475,-0.002
24.480,-0.003
24.485,0.004
24.490,0.007
24.495,-0.002
24.500,0.000
24.505,-0.054
24.510,-0.090
24.515,-0.095
24.520,-0.107
24.525,-0.082
24.530,-0.091
24.535,-0.106
24.540,-0.096
24.545,-0.107
24.550,-0.121
24.555,-0.147
24.560,-0.121
24.565,-0.075
24.570,-0.073
24.575,-0.054
24.580,-0.062
24.585,-0.064
24.590,-0.050
24.595,-0.050
24.600,-0.002
24.605,0.027
24.610,0.023
24.615,0.027
24.620,0.032
24.625,0.071
24.630,0.070
24.635,0.028
24.640,0.020
24.645,0.019
24.650,0.018
24.655,0.016
24.660,0.059
24.665,0.113
24.670,0.091
24.675,-0.021
24.680,-0.271
24.685,-0.689
24.690,-1.226
24.695,-1.647
24.700,-1.772
24.705,-1.697
24.710,-1.314
24.715,-0.678
24.720,-0.121
24.725,0.231
24.730,0.352
24.735,0.402
24.740,0.452
24.745,0.406
24.750,0.312
24.755,0.273
24.760,0.298
24.765,0.298
24.770,0.312
24.775,0.367
24.780,0.334
24.785,0.278
24.790,0.273
24.795,0.261
24.800,0.274
24.805,0.264
24.810,0.209
24.815,0.152
24.820,0.098
24.825,0.099
24.830,0.120
24.835,0.114
24.840,0.113
24.845,0.116
24.850,0.100
24.855,0.105
24.860,0.151
24.865,0.142
24.870,0.103
24.875,0.055
24.880,-0.028
24.885,0.001
24.890,0.059
24.895,0.008
24.900,-0.034
24.905,-0.044
24.910,0.008
24.915,0.050
24.920,-0.034
24.925,-0.101
24.930,-0.093
24.935,-0.070
24.940,-0.066
24.945,-0.076
24.950,-0.053
24.955,-0.062
24.960,-0.080
24.965,-0.134
24.970,-0.208
24.975,-0.202
24.980,-0.233
24.985,-0.253
24.990,-0.221
24.995,-0.225
25.000,-0.196
25.005,-0.116
25.010,-0.007
25.015,0.055
25.020,0.099
25.025,0.242
25.030,0.317
25.035,0.267
25.040,0.198
25.045,0.184
25.050,0.291
25.055,0.409
25.060,0.459
25.065,0.429
25.070,0.320
25.075,0.266
25.080,0.290
25.085,0.337
25.090,0.340
25.095,0.263
25.100,0.217
25.105,0.190
25.110,0.169
25.115,0.172
25.120,0.210
25.125,0.269
25.130,0.228
25.135,0.189
25.140,0.223
25.145,0.251
25.150,0.295
25.155,0.253
25.160,0.135
25.165,0.115
25.170,0.184
25.175,0.286
25.180,0.295
25.185,0.145
25.190,-0.002
25.195,-0.076
25.200,-0.132
25.205,-0.154
25.210,-0.066
25.215,0.000
25.220,-0.034
25.225,-0.005
25.230,0.125
25.235,0.285
25.240,0.355
25.245,0.316
25.250,0.207
25.255,0.032
25.260,-0.009
25.265,0.058
25.270,0.063
25.275,0.047
25.280,-0.027
25.285,-0.066
25.290,-0.071
25.295,-0.145
25.300,-0.134
25.305,-0.052
25.310,-0.015
25.315,-0.011
25.320,-0.002
25.325,0.028
25.330,-0.010
25.335,-0.024
25.340,0.037
25.345,-0.004
25.350,0.001
25.355,0.110
25.360,0.144
25.365,0.149
25.370,0.100
25.375,-0.003
25.380,-0.064
25.385,-0.059
25.390,-0.043
25.395,-0.044
25.400,-0.038
25.405,-0.029
25.410,0.033
25.415,0.076
25.420,0.055
25.425,0.126
25.430,0.189
25.435,0.096
25.440,-0.070
25.445,-0.370
25.450,-0.825
25.455,-1.322
25.460,-1.747
25.465,-1.867
25.470,-1.613
25.475,-1.066
25.480,-0.447
25.485,-0.064
25.490,0.086
25.495,0.155
25.500,0.243
25.505,0.300
25.510,0.308
25.515,0.309
25.520,0.324
25.525,0.370
25.530,0.316
25.535,0.254
25.540,0.262
25.545,0.231
25.550,0.252
25.555,0.276
25.560,0.282
25.565,0.301
25.570,0.282
25.575,0.290
25.580,0.264
25.585,0.230
25.590,0.239
25.595,0.206
25.600,0.164
25.605,0.087
25.610,0.029
25.615,0.008
25.620,-0.020
25.625,0.024
25.630,0.034
25.635,0.045
25.640,0.091
25.645,0.049
25.650,0.045
25.655,0.062
25.660,0.078
25.665,0.119
25.670,0.116
25.675,0.123
25.680,0.106
25.685,0.107
25.690,0.199
25.695,0.214
25.700,0.119
25.705,-0.009
25.710,-0.104
25.715,-0.136
25.720,-0.178
25.725,-0.218
25.730,-0.257
25.735,-0.278
25.740,-0.279
25.745,-0.298
25.750,-0.280
25.755,-0.289
25.760,-0.284
25.765,-0.242
25.770,-0.229
25.775,-0.161
25.780,-0.123
25.785,-0.112
25.790,-0.077
25.795,-0.080
25.800,-0.048
25.805,-0.022
25.810,0.014
25.815,0.072
25.820,0.068
25.825,0.076
25.830,0.045
25.835,0.001
25.840,0.028
25.845,0.029
25.850,0.026
25.855,0.009
25.860,-0.005
25.865,-0.004
25.870,-0.043
25.875,-0.038
25.880,-0.032
25.885,-0.041
25.890,-0.026
25.895,-0.026
25.900,-0.006
25.905,-0.008
25.910,-0.010
25.915,-0.014
25.920,-0.067
25.925,-0.053
25.930,-0.030
25.935,-0.036
25.940,-0.020
25.945,-0.035
25.950,-0.049
25.955,-0.064
25.960,-0.053
25.965,-0.037
25.970,-0.085
25.975,-0.097
25.980,-0.108
25.985,-0.120
25.990,-0.154
25.995,-0.212
26.000,-0.163
26.005,-0.125
26.010,-0.124
26.015,-0.104
26.020,-0.166
26.025,-0.245
26.030,-0.283
26.035,-0.284
26.040,-0.262
26.045,-0.291
26.050,-0.324
26.055,-0.318
26.060,-0.268
26.065,-0.240
26.070,-0.253
26.075,-0.207
26.080,-0.213
26.085,-0.232
26.090,-0.191
26.095,-0.204
26.100,-0.139
26.105,-0.044
26.110,-0.030
26.115,-0.029
26.120,-0.046
26.125,0.003
26.130,0.046
26.135,0.063
26.140,0.140
26.145,0.187
26.150,0.185
26.155,0.142
26.160,0.130
26.165,0.134
26.170,0.107
26.175,0.139
26.180,0.170
26.185,0.227
26.190,0.270
26.195,0.147
26.200,-0.058
26.205,-0.420
26.210,-0.893
26.215,-1.294
26.220,-1.611
26.225,-1.608
26.230,-1.209
26.235,-0.594
26.240,0.039
26.245,0.385
26.250,0.500
26.255,0.551
26.260,0.583
26.265,0.616
26.270,0.616
26.275,0.677
26.280,0.706
26.285,0.686
26.290,0.712
26.295,0.713
26.300,0.713
26.305,0.690
26.310,0.665
26.315,0.652
26.320,0.589
26.325,0.564
26.330,0.524
26.335,0.482
26.340,0.495
26.345,0.471
26.350,0.450
26.355,0.413
26.360,0.382
26.365,0.372
26.370,0.318
26.375,0.308
26.380,0.288
26.385,0.267
26.390,0.269
26.395,0.215
26.400,0.196
26.405,0.179
26.410,0.177
26.415,0.205
26.420,0.181
26.425,0.176
26.430,0.151
26.435,0.119
26.440,0.108
26.445,0.054
26.450,0.027
26.455,-0.011
26.460,-0.033
26.465,-0.034
26.470,-0.081
26.475,-0.078
26.480,-0.102
26.485,-0.145
26.490,-0.150
26.495,-0.200
26.500,-0.220
26.505,-0.219
26.510,-0.202
26.515,-0.179
26.520,-0.209
26.525,-0.190
26.530,-0.177
26.535,-0.183
26.540,-0.152
26.545,-0.152
26.550,-0.136
26.555,-0.131
26.560,-0.130
26.565,-0.109
26.570,-0.125
26.575,-0.103
26.580,-0.094
26.585,-0.100
26.590,-0.073
26.595,-0.080
26.600,-0.084
26.605,-0.104
26.610,-0.121
26.615,-0.112
26.620,-0.136
26.625,-0.117
26.630,-0.116
26.635,-0.135
26.640,-0.118
26.645,-0.129
26.650,-0.117
26.655,-0.113
26.660,-0.107
26.665,-0.084
26.670,-0.103
26.675,-0.077
26.680,-0.071
26.685,-0.079
26.690,-0.045
26.695,-0.049
26.700,-0.035
26.705,-0.033
26.710,-0.037
26.715,-0.018
26.720,-0.037
26.725,-0.019
26.730,-0.020
26.735,-0.048
26.740,-0.025
26.745,-0.012
26.750,0.016
26.755,0.019
26.760,0.001
26.765,-0.007
26.770,-0.049
26.775,-0.048
26.780,-0.057
26.785,-0.076
26.790,-0.057
26.795,-0.073
26.800,-0.066
26.805,-0.068
26.810,-0.080
26.815,-0.066
26.820,-0.075
26.825,-0.041
26.830,-0.023
26.835,-0.027
26.840,-0.003
26.845,-0.011
26.850,0.015
26.855,0.045
26.860,0.072
26.865,0.104
26.870,0.086
26.875,0.101
26.880,0.093
26.885,0.066
26.890,0.080
26.895,0.058
26.900,0.057
26.905,0.053
26.910,0.043
26.915,0.063
26.920,0.067
26.925,0.151
26.930,0.183
26.935,0.053
26.940,-0.170
26.945,-0.553
26.950,-1.028
26.955,-1.512
26.960,-1.741
26.965,-1.542
26.970,-1.149
26.975,-0.589
26.980,-0.054
26.985,0.283
26.990,0.471
26.995,0.445
27.000,0.412
27.005,0.427
27.010,0.415
27.015,0.417
27.020,0.411
27.025,0.435
27.030,0.416
27.035,0.387
27.040,0.407
27.045,0.375
27.050,0.362
27.055,0.353
27.060,0.329
27.065,0.324
27.070,0.286
27.075,0.285
27.080,0.271
27.085,0.235
27.090,0.239
27.095,0.211
27.100,0.201
27.105,0.189
27.110,0.170
27.115,0.170
27.120,0.136
27.125,0.140
27.130,0.129
27.135,0.101
27.140,0.117
27.145,0.096
27.150,0.087
27.155,0.076
27.160,0.066
27.165,0.078
27.170,0.041
27.175,0.040
27.180,0.034
27.185,0.009
27.190,0.016
27.195,-0.012
27.200,-0.020
27.205,-0.032
27.210,-0.045
27.215,-0.043
27.220,-0.079
27.225,-0.074
27.230,-0.088
27.235,-0.115
27.240,-0.102
27.245,-0.133
27.250,-0.131
27.255,-0.119
27.260,-0.112
27.265,-0.078
27.270,-0.075
27.275,-0.031
27.280,0.004
27.285,0.013
27.290,0.052
27.295,0.050
27.300,0.064
27.305,0.070
27.310,0.064
27.315,0.080
27.320,0.062
27.325,0.076
27.330,0.070
27.335,0.041
27.340,0.052
27.345,0.031
27.350,0.024
27.355,0.015
27.360,0.003
27.365,0.013
27.370,-0.014
27.375,-0.009
27.380,-0.014
27.385,-0.037
27.390,-0.017
27.395,-0.034
27.400,-0.039
27.405,-0.039
27.410,-0.042
27.415,-0.024
27.420,-0.045
27.425,-0.032
27.430,-0.031
27.435,-0.049
27.440,-0.023
27.445,-0.033
27.450,-0.031
27.455,-0.032
27.460,-0.039
27.465,-0.027
27.470,-0.047
27.475,-0.035
27.480,-0.052
27.485,-0.088
27.490,-0.074
27.495,-0.096
27.500,-0.096
27.505,-0.098
27.510,-0.114
27.515,-0.094
27.520,-0.113
27.525,-0.103
27.530,-0.095
27.535,-0.106
27.540,-0.076
27.545,-0.076
27.550,-0.061
27.555,-0.054
27.560,-0.050
27.565,-0.019
27.570,-0.023
27.575,0.022
27.580,0.049
27.585,0.041
27.590,0.066
27.595,0.045
27.600,0.042
27.605,0.045
27.610,0.040
27.615,0.054
27.620,0.026
27.625,0.031
27.630,0.042
27.635,0.059
27.640,0.155
27.645,0.184
27.650,0.088
27.655,-0.148
27.660,-0.519
27.665,-0.988
27.670,-1.506
27.675,-1.769
27.680,-1.619
27.685,-1.215
27.690,-0.684
27.695,-0.172
27.700,0.220
27.705,0.447
27.710,0.478
27.715,0.438
27.720,0.414
27.725,0.425
27.730,0.421
27.735,0.417
27.740,0.441
27.745,0.413
27.750,0.395
27.755,0.381
27.760,0.360
27.765,0.356
27.770,0.319
27.775,0.316
27.780,0.291
27.785,0.247
27.790,0.259
27.795,0.232
27.800,0.219
27.805,0.217
27.810,0.209
27.815,0.218
27.820,0.185
27.825,0.186
27.830,0.171
27.835,0.136
27.840,0.148
27.845,0.125
27.850,0.124
27.855,0.123
27.860,0.109
27.865,0.112
27.870,0.068
27.875,0.063
27.880,0.058
27.885,0.040
27.890,0.068
27.895,0.049
27.900,0.041
27.905,0.032
27.910,0.010
27.915,0.016
27.920,-0.017
27.925,-0.029
27.930,-0.052
27.935,-0.087
27.940,-0.076
27.945,-0.097
27.950,-0.102
27.955,-0.112
27.960,-0.124
27.965,-0.098
27.970,-0.094
27.975,-0.051
27.980,-0.023
27.985,-0.025
27.990,0.014
27.995,0.033
28.000,0.069
28.005,0.092
28.010,0.092
28.015,0.106
28.020,0.090
28.025,0.116
28.030,0.117
28.035,0.088
28.040,0.110
28.045,0.097
28.050,0.088
28.055,0.075
28.060,0.054
28.065,0.058
28.070,0.029
28.075,0.031
28.080,0.018
28.085,-0.018
28.090,-0.005
28.095,-0.020
28.100,-0.014
28.105,-0.007
28.110,-0.018
28.115,-0.008
28.120,-0.035
28.125,-0.022
28.130,-0.011
28.135,-0.033
28.140,-0.015
28.145,-0.027
28.150,-0.026
28.155,-0.021
28.160,-0.026
28.165,-0.006
28.170,-0.025
28.175,-0.021
28.180,-0.028
28.185,-0.059
28.190,-0.052
28.195,-0.078
28.200,-0.089
28.205,-0.084
28.210,-0.083
28.215,-0.070
28.220,-0.103
28.225,-0.103
28.230,-0.096
28.235,-0.103
28.240,-0.078
28.245,-0.082
28.250,-0.068
28.255,-0.059
28.260,-0.058
28.265,-0.033
28.270,-0.040
28.275,0.006
28.280,0.037
28.285,0.026
28.290,0.062
28.295,0.044
28.300,0.033
28.305,0.042
28.310,0.038
28.315,0.059
28.320,0.035
28.325,0.031
28.330,0.037
28.335,0.054
28.340,0.153
28.345,0.186
28.350,0.090
28.355,-0.147
28.360,-0.528
28.365,-0.998
28.370,-1.505
28.375,-1.795
28.380,-1.686
28.385,-1.291
28.390,-0.750
28.395,-0.219
28.400,0.182
28.405,0.408
28.410,0.443
28.415,0.413
28.420,0.395
28.425,0.403
28.430,0.385
28.435,0.358
28.440,0.387
28.445,0.378
28.450,0.366
28.455,0.358
28.460,0.338
28.465,0.332
28.470,0.288
28.475,0.279
28.480,0.267
28.485,0.237
28.490,0.257
28.495,0.231
28.500,0.213
28.505,0.205
28.510,0.181
28.515,0.193
28.520,0.165
28.525,0.155
28.530,0.147
28.535,0.117
28.540,0.131
28.545,0.106
28.550,0.088
28.555,0.084
28.560,0.067
28.565,0.075
28.570,0.053
28.575,0.055
28.580,0.050
28.585,0.019
28.590,0.034
28.595,0.016
28.600,0.004
28.605,-0.002
28.610,-0.024
28.615,-0.019
28.620,-0.051
28.625,-0.056
28.630,-0.061
28.635,-0.095
28.640,-0.091
28.645,-0.122
28.650,-0.133
28.655,-0.127
28.660,-0.137
28.665,-0.121
28.670,-0.129
28.675,-0.079
28.680,-0.033
28.685,-0.039
28.690,0.005
28.695,0.021
28.700,0.036
28.705,0.054
28.710,0.051
28.715,0.075
28.720,0.076
28.725,0.099
28.730,0.096
28.735,0.066
28.740,0.084
28.745,0.064
28.750,0.057
28.755,0.053
28.760,0.036
28.765,0.059
28.770,0.042
28.775,0.028
28.780,0.017
28.785,0.007
28.790,0.034
28.795,0.013
28.800,0.002
28.805,0.000
28.810,-0.010
28.815,0.004
28.820,-0.016
28.825,0.007
28.830,0.024
28.835,0.005
28.840,0.031
28.845,0.014
28.850,-0.004
28.855,-0.009
28.860,-0.021
28.865,-0.011
28.870,-0.041
28.875,-0.040
28.880,-0.031
28.885,-0.051
28.890,-0.027
28.895,-0.046
28.900,-0.069
28.905,-0.067
28.910,-0.066
28.915,-0.041
28.920,-0.063
28.925,-0.061
28.930,-0.049
28.935,-0.050
28.940,-0.002
28.945,0.002
28.950,0.012
28.955,0.040
28.960,0.047
28.965,0.080
28.970,0.072
28.975,0.071
28.980,0.076
28.985,0.050
28.990,0.056
28.995,0.048
29.000,0.056
29.005,0.064
29.010,0.053
29.015,0.093
29.020,0.158
29.025,0.228
29.030,0.140
29.035,-0.153
29.040,-0.545
29.045,-1.061
29.050,-1.550
29.055,-1.874
29.060,-1.834
29.065,-1.339
29.070,-0.704
29.075,-0.106
29.080,0.273
29.085,0.413
29.090,0.476
29.095,0.439
29.100,0.411
29.105,0.413
29.110,0.402
29.115,0.414
29.120,0.395
29.125,0.400
29.130,0.391
29.135,0.347
29.140,0.354
29.145,0.328
29.150,0.305
29.155,0.295
29.160,0.266
29.165,0.268
29.170,0.236
29.175,0.222
29.180,0.217
29.185,0.188
29.190,0.204
29.195,0.178
29.200,0.154
29.205,0.153
29.210,0.132
29.215,0.132
29.220,0.109
29.225,0.116
29.230,0.119
29.235,0.078
29.240,0.082
29.245,0.065
29.250,0.054
29.255,0.049
29.260,0.029
29.265,0.035
29.270,0.008
29.275,-0.002
29.280,-0.011
29.285,-0.041
29.290,-0.021
29.295,-0.042
29.300,-0.061
29.305,-0.060
29.310,-0.079
29.315,-0.074
29.320,-0.102
29.325,-0.110
29.330,-0.116
29.335,-0.152
29.340,-0.133
29.345,-0.126
29.350,-0.107
29.355,-0.072
29.360,-0.056
29.365,-0.019
29.370,-0.013
29.375,0.018
29.380,0.043
29.385,0.028
29.390,0.060
29.395,0.062
29.400,0.066
29.405,0.076
29.410,0.059
29.415,0.070
29.420,0.057
29.425,0.061
29.430,0.062
29.435,0.038
29.440,0.053
29.445,0.034
29.450,0.023
29.455,0.024
29.460,0.007
29.465,0.018
29.470,-0.005
29.475,-0.005
29.480,-0.001
29.485,-0.022
29.490,0.003
29.495,-0.007
29.500,-0.019
29.505,-0.012
29.510,-0.019
29.515,0.000
29.520,-0.015
29.525,-0.008
29.530,-0.003
29.535,-0.031
29.540,-0.017
29.545,-0.037
29.550,-0.051
29.555,-0.049
29.560,-0.060
29.565,-0.042
29.570,-0.058
29.575,-0.057
29.580,-0.058
29.585,-0.088
29.590,-0.062
29.595,-0.063
29.600,-0.062
29.605,-0.047
29.610,-0.056
29.615,-0.038
29.620,-0.055
29.625,-0.034
29.630,0.007
29.635,0.016
29.640,0.066
29.645,0.068
29.650,0.065
29.655,0.079
29.660,0.063
29.665,0.071
29.670,0.052
29.675,0.053
29.680,0.055
29.685,0.029
29.690,0.057
29.695,0.082
29.700,0.157
29.705,0.223
29.710,0.124
29.715,-0.106
29.720,-0.505
29.725,-0.995
29.730,-1.469
29.735,-1.874
29.740,-1.921
29.745,-1.524
29.750,-0.862
29.755,-0.187
29.760,0.240
29.765,0.409
29.770,0.436
29.775,0.453
29.780,0.443
29.785,0.409
29.790,0.432
29.795,0.420
29.800,0.412
29.805,0.413
29.810,0.383
29.815,0.380
29.820,0.348
29.825,0.336
29.830,0.333
29.835,0.295
29.840,0.300
29.845,0.279
29.850,0.259
29.855,0.256
29.860,0.228
29.865,0.230
29.870,0.208
29.875,0.198
29.880,0.188
29.885,0.153
29.890,0.168
29.895,0.149
29.900,0.133
29.905,0.132
29.910,0.108
29.915,0.110
29.920,0.082
29.925,0.073
29.930,0.072
29.935,0.039
29.940,0.050
29.945,0.030
29.950,0.012
29.955,0.011
29.960,-0.015
29.965,-0.015
29.970,-0.043
29.975,-0.051
29.980,-0.055
29.985,-0.089
29.990,-0.076
29.995,-0.100
30.000,-0.127
30.005,-0.132
30.010,-0.151
30.015,-0.138
30.020,-0.148
30.025,-0.128
30.030,-0.094
30.035,-0.089
30.040,-0.036
30.045,-0.015
30.050,0.006
30.055,0.044
30.060,0.055
30.065,0.086
30.070,0.083
30.075,0.095
30.080,0.110
30.085,0.089
30.090,0.111
30.095,0.094
30.100,0.079
30.105,0.089
30.110,0.069
30.115,0.078
30.120,0.064
30.125,0.068
30.130,0.074
30.135,0.038
30.140,0.048
30.145,0.036
30.150,0.027
30.155,0.037
30.160,0.018
30.165,0.029
30.170,0.009
30.175,0.002
30.180,0.010
30.185,-0.013
30.190,0.011
30.195,0.004
30.200,-0.011
30.205,-0.004
30.210,-0.027
30.215,-0.032
30.220,-0.054
30.225,-0.054
30.230,-0.049
30.235,-0.076
30.240,-0.057
30.245,-0.065
30.250,-0.070
30.255,-0.059
30.260,-0.073
30.265,-0.055
30.270,-0.060
30.275,-0.047
30.280,-0.034
30.285,-0.066
30.290,-0.053
30.295,-0.050
30.300,-0.024
30.305,0.022
30.310,0.027
30.315,0.053
30.320,0.050
30.325,0.055
30.330,0.062
30.335,0.031
30.340,0.054
30.345,0.048
30.350,0.033
30.355,0.044
30.360,0.031
30.365,0.060
30.370,0.111
30.375,0.195
30.380,0.188
30.385,-0.017
30.390,-0.324
30.395,-0.786
30.400,-1.305
30.405,-1.739
30.410,-1.846
30.415,-1.563
30.420,-1.155
30.425,-0.549
30.430,0.006
30.435,0.293
30.440,0.443
30.445,0.411
30.450,0.400
30.455,0.439
30.460,0.396
30.465,0.397
30.470,0.412
30.475,0.402
30.480,0.380
30.485,0.356
30.490,0.369
30.495,0.334
30.500,0.314
30.505,0.320
30.510,0.284
30.515,0.280
30.520,0.261
30.525,0.248
30.530,0.240
30.535,0.204
30.540,0.215
30.545,0.192
30.550,0.171
30.555,0.178
30.560,0.153
30.565,0.154
30.570,0.133
30.575,0.122
30.580,0.122
30.585,0.089
30.590,0.099
30.595,0.078
30.600,0.056
30.605,0.061
30.610,0.038
30.615,0.036
30.620,0.009
30.625,-0.001
30.630,-0.004
30.635,-0.041
30.640,-0.033
30.645,-0.054
30.650,-0.080
30.655,-0.081
30.660,-0.108
30.665,-0.109
30.670,-0.138
30.675,-0.152
30.680,-0.151
30.685,-0.178
30.690,-0.151
30.695,-0.141
30.700,-0.125
30.705,-0.080
30.710,-0.060
30.715,-0.016
30.720,0.003
30.725,0.037
30.730,0.074
30.735,0.067
30.740,0.104
30.745,0.107
30.750,0.101
30.755,0.118
30.760,0.105
30.765,0.116
30.770,0.099
30.775,0.093
30.780,0.099
30.785,0.070
30.790,0.087
30.795,0.074
30.800,0.059
30.805,0.071
30.810,0.049
30.815,0.052
30.820,0.032
30.825,0.029
30.830,0.040
30.835,0.013
30.840,0.028
30.845,0.018
30.850,0.008
30.855,0.023
30.860,0.004
30.865,0.010
30.870,-0.001
30.875,0.002
30.880,0.005
30.885,-0.036
30.890,-0.031
30.895,-0.046
30.900,-0.057
30.905,-0.044
30.910,-0.063
30.915,-0.054
30.920,-0.064
30.925,-0.061
30.930,-0.051
30.935,-0.080
30.940,-0.049
30.945,-0.033
30.950,-0.032
30.955,-0.023
30.960,-0.052
30.965,-0.050
30.970,-0.043
30.975,-0.005
30.980,0.037
30.985,0.029
30.990,0.055
30.995,0.048
31.000,0.040
31.005,0.057
31.010,0.039
31.015,0.046
31.020,0.032
31.025,0.029
31.030,0.040
31.035,0.016
31.040,0.049
31.045,0.097
31.050,0.168
31.055,0.180
31.060,0.003
31.065,-0.288
31.070,-0.731
31.075,-1.219
31.080,-1.602
31.085,-1.891
31.090,-1.816
31.095,-1.296
31.100,-0.604
31.105,0.024
31.110,0.340
31.115,0.409
31.120,0.433
31.125,0.443
31.130,0.419
31.135,0.386
31.140,0.419
31.145,0.410
31.150,0.384
31.155,0.393
31.160,0.366
31.165,0.360
31.170,0.336
31.175,0.317
31.180,0.315
31.185,0.280
31.190,0.290
31.195,0.269
31.200,0.237
31.205,0.240
31.210,0.218
31.215,0.217
31.220,0.195
31.225,0.181
31.230,0.180
31.235,0.148
31.240,0.161
31.245,0.143
31.250,0.120
31.255,0.126
31.260,0.099
31.265,0.101
31.270,0.083
31.275,0.072
31.280,0.074
31.285,0.036
31.290,0.042
31.295,0.021
31.300,-0.006
31.305,-0.001
31.310,-0.030
31.315,-0.034
31.320,-0.059
31.325,-0.073
31.330,-0.072
31.335,-0.117
31.340,-0.114
31.345,-0.130
31.350,-0.156
31.355,-0.151
31.360,-0.171
31.365,-0.158
31.370,-0.152
31.375,-0.130
31.380,-0.088
31.385,-0.080
31.390,-0.024
31.395,0.004
31.400,0.020
31.405,0.067
31.410,0.071
31.415,0.094
31.420,0.099
31.425,0.105
31.430,0.122
31.435,0.097
31.440,0.112
31.445,0.104
31.450,0.086
31.455,0.101
31.460,0.086
31.465,0.090
31.470,0.074
31.475,0.066
31.480,0.075
31.485,0.045
31.490,0.059
31.495,0.049
31.500,0.031
31.505,0.044
31.510,0.025
31.515,0.031
31.520,0.018
31.525,0.013
31.530,0.030
31.535,0.007
31.540,0.024
31.545,0.015
31.550,-0.003
31.555,0.016
31.560,-0.001
31.565,0.005
31.570,-0.005
31.575,-0.021
31.580,-0.028
31.585,-0.067
31.590,-0.054
31.595,-0.056
31.600,-0.069
31.605,-0.054
31.610,-0.070
31.615,-0.067
31.620,-0.080
31.625,-0.070
31.630,-0.034
31.635,-0.042
31.640,-0.023
31.645,-0.040
31.650,-0.063
31.655,-0.040
31.660,-0.030
31.665,0.013
31.670,0.029
31.675,0.040
31.680,0.055
31.685,0.029
31.690,0.053
31.695,0.048
31.700,0.031
31.705,0.049
31.710,0.029
31.715,0.035
31.720,0.027
31.725,0.022
31.730,0.050
31.735,0.081
31.740,0.180
31.745,0.161
31.750,-0.029
31.755,-0.313
31.760,-0.755
31.765,-1.234
31.770,-1.692
31.775,-1.873
31.780,-1.606
31.785,-1.124
31.790,-0.476
31.795,0.076
31.800,0.345
31.805,0.451
31.810,0.420
31.815,0.402
31.820,0.403
31.825,0.387
31.830,0.383
31.835,0.375
31.840,0.388
31.845,0.356
31.850,0.333
31.855,0.347
31.860,0.309
31.865,0.300
31.870,0.288
31.875,0.270
31.880,0.266
31.885,0.232
31.890,0.239
31.895,0.221
31.900,0.192
31.905,0.202
31.910,0.178
31.915,0.175
31.920,0.160
31.925,0.147
31.930,0.149
31.935,0.116
31.940,0.124
31.945,0.110
31.950,0.087
31.955,0.096
31.960,0.071
31.965,0.071
31.970,0.051
31.975,0.033
31.980,0.038
31.985,0.002
31.990,0.006
31.995,-0.008
32.000,-0.036
32.005,-0.033
32.010,-0.062
32.015,-0.068
32.020,-0.085
32.025,-0.102
32.030,-0.105
32.035,-0.145
32.040,-0.140
32.045,-0.154
32.050,-0.177
32.055,-0.157
32.060,-0.160
32.065,-0.127
32.070,-0.103
32.075,-0.074
32.080,-0.029
32.085,-0.023
32.090,0.024
32.095,0.048
32.100,0.053
32.105,0.090
32.110,0.090
32.115,0.104
32.120,0.102
32.125,0.100
32.130,0.114
32.135,0.088
32.140,0.103
32.145,0.095
32.150,0.078
32.155,0.094
32.160,0.073
32.165,0.074
32.170,0.063
32.175,0.055
32.180,0.067
32.185,0.036
32.190,0.053
32.195,0.050
32.200,0.025
32.205,0.039
32.210,0.019
32.215,0.022
32.220,0.019
32.225,0.015
32.230,0.028
32.235,0.003
32.240,0.015
32.245,0.009
32.250,-0.005
32.255,0.018
32.260,0.006
32.265,0.015
32.270,0.006
32.275,-0.003
32.280,0.011
32.285,-0.013
32.290,0.001
32.295,-0.013
32.300,-0.052
32.305,-0.054
32.310,-0.076
32.315,-0.061
32.320,-0.061
32.325,-0.071
32.330,-0.061
32.335,-0.090
32.340,-0.073
32.345,-0.063
32.350,-0.067
32.355,-0.037
32.360,-0.050
32.365,-0.051
32.370,-0.054
32.375,-0.047
32.380,-0.009
32.385,0.000
32.390,0.037
32.395,0.046
32.400,0.032
32.405,0.052
32.410,0.038
32.415,0.039
32.420,0.033
32.425,0.030
32.430,0.046
32.435,0.020
32.440,0.029
32.445,0.027
32.450,0.026
32.455,0.106
32.460,0.167
32.465,0.146
32.470,-0.034
32.475,-0.341
32.480,-0.756
32.485,-1.263
32.490,-1.659
32.495,-1.743
32.500,-1.520
32.505,-1.060
32.510,-0.429
32.515,0.087
32.520,0.344
32.525,0.415
32.530,0.381
32.535,0.370
32.540,0.399
32.545,0.363
32.550,0.354
32.555,0.397
32.560,0.357
32.565,0.338
32.570,0.337
32.575,0.323
32.580,0.320
32.585,0.288
32.590,0.290
32.595,0.265
32.600,0.231
32.605,0.246
32.610,0.222
32.615,0.214
32.620,0.205
32.625,0.191
32.630,0.189
32.635,0.154
32.640,0.166
32.645,0.155
32.650,0.125
32.655,0.137
32.660,0.113
32.665,0.114
32.670,0.103
32.675,0.075
32.680,0.076
32.685,0.056
32.690,0.070
32.695,0.059
32.700,0.029
32.705,0.040
32.710,0.016
32.715,0.002
32.720,-0.021
32.725,-0.038
32.730,-0.034
32.735,-0.070
32.740,-0.069
32.745,-0.087
32.750,-0.121
32.755,-0.110
32.760,-0.129
32.765,-0.127
32.770,-0.132
32.775,-0.139
32.780,-0.112
32.785,-0.119
32.790,-0.083
32.795,-0.054
32.800,-0.047
32.805,-0.002
32.810,0.015
32.815,0.047
32.820,0.065
32.825,0.071
32.830,0.095
32.835,0.084
32.840,0.107
32.845,0.105
32.850,0.086
32.855,0.107
32.860,0.087
32.865,0.093
32.870,0.099
32.875,0.092
32.880,0.102
32.885,0.071
32.890,0.077
32.895,0.066
32.900,0.035
32.905,0.047
32.910,0.027
32.915,0.024
32.920,0.019
32.925,0.020
32.930,0.043
32.935,0.013
32.940,0.019
32.945,0.014
32.950,-0.009
32.955,0.015
32.960,0.008
32.965,0.013
32.970,0.004
32.975,-0.009
32.980,0.007
32.985,-0.013
32.990,0.009
32.995,0.015
33.000,-0.007
33.005,0.015
33.010,-0.002
33.015,-0.009
33.020,-0.026
33.025,-0.055
33.030,-0.056
33.035,-0.080
33.040,-0.056
33.045,-0.040
33.050,-0.053
33.055,-0.044
33.060,-0.073
33.065,-0.069
33.070,-0.054
33.075,-0.050
33.080,-0.037
33.085,-0.062
33.090,-0.044
33.095,-0.039
33.100,-0.050
33.105,-0.002
33.110,0.019
33.115,0.044
33.120,0.046
33.125,0.035
33.130,0.051
33.135,0.032
33.140,0.047
33.145,0.047
33.150,0.024
33.155,0.040
33.160,0.023
33.165,0.030
33.170,0.041
33.175,0.074
33.180,0.168
33.185,0.167
33.190,0.054
33.195,-0.215
33.200,-0.644
33.205,-1.117
33.210,-1.530
33.215,-1.750
33.220,-1.727
33.225,-1.316
33.230,-0.646
33.235,-0.073
33.240,0.307
33.245,0.407
33.250,0.388
33.255,0.423
33.260,0.392
33.265,0.377
33.270,0.394
33.275,0.386
33.280,0.381
33.285,0.359
33.290,0.372
33.295,0.346
33.300,0.305
33.305,0.320
33.310,0.293
33.315,0.282
33.320,0.271
33.325,0.249
33.330,0.252
33.335,0.218
33.340,0.217
33.345,0.203
33.350,0.172
33.355,0.189
33.360,0.169
33.365,0.156
33.370,0.142
33.375,0.126
33.380,0.132
33.385,0.100
33.390,0.105
33.395,0.098
33.400,0.071
33.405,0.083
33.410,0.056
33.415,0.045
33.420,0.040
33.425,0.034
33.430,0.046
33.435,0.012
33.440,0.005
33.445,-0.014
33.450,-0.044
33.455,-0.033
33.460,-0.057
33.465,-0.061
33.470,-0.069
33.475,-0.090
33.480,-0.088
33.485,-0.125
33.490,-0.129
33.495,-0.136
33.500,-0.151
33.505,-0.109
33.510,-0.096
33.515,-0.073
33.520,-0.052
33.525,-0.027
33.530,0.019
33.535,0.015
33.540,0.042
33.545,0.062
33.550,0.055
33.555,0.083
33.560,0.075
33.565,0.082
33.570,0.084
33.575,0.076
33.580,0.087
33.585,0.061
33.590,0.069
33.595,0.067
33.600,0.041
33.605,0.061
33.610,0.046
33.615,0.036
33.620,0.031
33.625,0.016
33.630,0.025
33.635,0.006
33.640,0.022
33.645,0.024
33.650,0.001
33.655,0.016
33.660,-0.003
33.665,0.001
33.670,0.004
33.675,-0.006
33.680,0.007
33.685,-0.018
33.690,-0.005
33.695,0.001
33.700,-0.013
33.705,0.016
33.710,0.003
33.715,0.002
33.720,0.006
33.725,-0.002
33.730,0.013
33.735,-0.012
33.740,-0.009
33.745,-0.022
33.750,-0.058
33.755,-0.045
33.760,-0.058
33.765,-0.050
33.770,-0.048
33.775,-0.059
33.780,-0.052
33.785,-0.081
33.790,-0.063
33.795,-0.051
33.800,-0.065
33.805,-0.039
33.810,-0.050
33.815,-0.042
33.820,-0.031
33.825,-0.032
33.830,0.001
33.835,0.011
33.840,0.047
33.845,0.062
33.850,0.046
33.855,0.065
33.860,0.051
33.865,0.050
33.870,0.042
33.875,0.031
33.880,0.043
33.885,0.021
33.890,0.042
33.895,0.073
33.900,0.127
33.905,0.217
33.910,0.141
33.915,-0.077
33.920,-0.433
33.925,-0.923
33.930,-1.409
33.935,-1.841
33.940,-1.926
33.945,-1.554
33.950,-0.943
33.955,-0.272
33.960,0.177
33.965,0.372
33.970,0.432
33.975,0.430
33.980,0.430
33.985,0.404
33.990,0.413
33.995,0.412
34.000,0.391
34.005,0.405
34.010,0.378
34.015,0.369
34.020,0.357
34.025,0.328
34.030,0.327
34.035,0.295
34.040,0.300
34.045,0.293
34.050,0.252
34.055,0.253
34.060,0.224
34.065,0.212
34.070,0.207
34.075,0.188
34.080,0.193
34.085,0.163
34.090,0.162
34.095,0.155
34.100,0.124
34.105,0.134
34.110,0.110
34.115,0.101
34.120,0.090
34.125,0.072
34.130,0.080
34.135,0.046
34.140,0.046
34.145,0.040
34.150,0.009
34.155,0.023
34.160,-0.001
34.165,-0.015
34.170,-0.024
34.175,-0.045
34.180,-0.039
34.185,-0.071
34.190,-0.073
34.195,-0.082
34.200,-0.114
34.205,-0.101
34.210,-0.127
34.215,-0.137
34.220,-0.131
34.225,-0.129
34.230,-0.095
34.235,-0.088
34.240,-0.053
34.245,-0.029
34.250,-0.026
34.255,0.023
34.260,0.037
34.265,0.057
34.270,0.072
34.275,0.072
34.280,0.097
34.285,0.085
34.290,0.100
34.295,0.101
34.300,0.074
34.305,0.093
34.310,0.075
34.315,0.066
34.320,0.064
34.325,0.054
34.330,0.067
34.335,0.042
34.340,0.049
34.345,0.048
34.350,0.019
34.355,0.038
34.360,0.022
34.365,0.015
34.370,0.014
34.375,-0.002
34.380,0.011
34.385,-0.008
34.390,0.001
34.395,0.006
34.400,-0.015
34.405,0.003
34.410,-0.009
34.415,-0.006
34.420,0.000
34.425,-0.009
34.430,0.005
34.435,-0.016
34.440,-0.006
34.445,0.001
34.450,-0.019
34.455,0.007
34.460,-0.003
34.465,-0.007
34.470,-0.013
34.475,-0.043
34.480,-0.043
34.485,-0.069
34.490,-0.063
34.495,-0.058
34.500,-0.082
34.505,-0.063
34.510,-0.081
34.515,-0.094
34.520,-0.089
34.525,-0.082
34.530,-0.052
34.535,-0.062
34.540,-0.048
34.545,-0.042
34.550,-0.066
34.555,-0.035
34.560,-0.020
34.565,0.005
34.570,0.034
34.575,0.037
34.580,0.057
34.585,0.046
34.590,0.056
34.595,0.056
34.600,0.031
34.605,0.052
34.610,0.039
34.615,0.036
34.620,0.040
34.625,0.040
34.630,0.111
34.635,0.182
34.640,0.196
34.645,0.047
34.650,-0.268
34.655,-0.674
34.660,-1.186
34.665,-1.673
34.670,-1.963
34.675,-1.841
34.680,-1.309
34.685,-0.648
34.690,-0.036
34.695,0.304
34.700,0.400
34.705,0.453
34.710,0.437
34.715,0.428
34.720,0.430
34.725,0.417
34.730,0.435
34.735,0.413
34.740,0.406
34.745,0.397
34.750,0.362
34.755,0.364
34.760,0.336
34.765,0.323
34.770,0.313
34.775,0.285
34.780,0.290
34.785,0.259
34.790,0.253
34.795,0.244
34.800,0.208
34.805,0.217
34.810,0.194
34.815,0.181
34.820,0.178
34.825,0.156
34.830,0.160
34.835,0.133
34.840,0.128
34.845,0.123
34.850,0.091
34.855,0.099
34.860,0.078
34.865,0.064
34.870,0.057
34.875,0.036
34.880,0.039
34.885,0.008
34.890,0.007
34.895,-0.002
34.900,-0.042
34.905,-0.034
34.910,-0.059
34.915,-0.077
34.920,-0.085
34.925,-0.111
34.930,-0.110
34.935,-0.140
34.940,-0.145
34.945,-0.150
34.950,-0.174
34.955,-0.140
34.960,-0.133
34.965,-0.113
34.970,-0.076
34.975,-0.053
34.980,-0.002
34.985,0.013
34.990,0.043
34.995,0.070
35.000,0.066
35.005,0.103
35.010,0.103
35.015,0.101
35.020,0.109
35.025,0.098
35.030,0.110
35.035,0.090
35.040,0.094
35.045,0.098
35.050,0.071
35.055,0.086
35.060,0.070
35.065,0.063
35.070,0.066
35.075,0.050
35.080,0.058
35.085,0.034
35.090,0.038
35.095,0.040
35.100,0.016
35.105,0.036
35.110,0.021
35.115,0.014
35.120,0.020
35.125,0.008
35.130,0.020
35.135,-0.001
35.140,0.006
35.145,0.016
35.150,-0.007
35.155,0.013
35.160,-0.001
35.165,-0.009
35.170,0.002
35.175,-0.008
35.180,0.004
35.185,-0.012
35.190,-0.005
35.195,0.005
35.200,-0.019
35.205,-0.002
35.210,-0.011
35.215,-0.013
35.220,-0.006
35.225,-0.024
35.230,-0.029
35.235,-0.070
35.240,-0.081
35.245,-0.080
35.250,-0.100
35.255,-0.074
35.260,-0.085
35.265,-0.096
35.270,-0.097
35.275,-0.109
35.280,-0.085
35.285,-0.087
35.290,-0.067
35.295,-0.052
35.300,-0.072
35.305,-0.053
35.310,-0.055
35.315,-0.030
35.320,0.006
35.325,0.012
35.330,0.040
35.335,0.033
35.340,0.048
35.345,0.054
35.350,0.025
35.355,0.048
35.360,0.038
35.365,0.029
35.370,0.035
35.375,0.022
35.380,0.044
35.385,0.066
35.390,0.157
35.395,0.203
35.400,0.064
35.405,-0.173
35.410,-0.580
35.415,-1.075
35.420,-1.540
35.425,-1.785
35.430,-1.654
35.435,-1.343
35.440,-0.772
35.445,-0.131
35.450,0.255
35.455,0.442
35.460,0.416
35.465,0.392
35.470,0.434
35.475,0.401
35.480,0.386
35.485,0.395
35.490,0.405
35.495,0.379
35.500,0.348
35.505,0.370
35.510,0.332
35.515,0.309
35.520,0.317
35.525,0.288
35.530,0.282
35.535,0.260
35.540,0.253
35.545,0.242
35.550,0.207
35.555,0.219
35.560,0.196
35.565,0.179
35.570,0.180
35.575,0.160
35.580,0.160
35.585,0.133
35.590,0.131
35.595,0.129
35.600,0.095
35.605,0.107
35.610,0.088
35.615,0.073
35.620,0.072
35.625,0.049
35.630,0.051
35.635,0.022
35.640,0.014
35.645,0.009
35.650,-0.024
35.655,-0.014
35.660,-0.041
35.665,-0.064
35.670,-0.068
35.675,-0.092
35.680,-0.090
35.685,-0.121
35.690,-0.134
35.695,-0.140
35.700,-0.173
35.705,-0.155
35.710,-0.163
35.715,-0.154
35.720,-0.121
35.725,-0.103
35.730,-0.055
35.735,-0.039
35.740,-0.001
35.745,0.038
35.750,0.039
35.755,0.084
35.760,0.092
35.765,0.095
35.770,0.115
35.775,0.107
35.780,0.119
35.785,0.101
35.790,0.104
35.795,0.112
35.800,0.085
35.805,0.103
35.810,0.088
35.815,0.074
35.820,0.083
35.825,0.067
35.830,0.075
35.835,0.056
35.840,0.056
35.845,0.059
35.850,0.031
35.855,0.049
35.860,0.040
35.865,0.032
35.870,0.036
35.875,0.019
35.880,0.032
35.885,0.014
35.890,0.016
35.895,0.021
35.900,-0.004
35.905,0.021
35.910,0.012
35.915,0.002
35.920,0.011
35.925,-0.003
35.930,0.013
35.935,-0.003
35.940,0.001
35.945,0.010
35.950,-0.013
35.955,0.008
35.960,-0.003
35.965,-0.012
35.970,-0.002
35.975,-0.015
35.980,-0.002
35.985,-0.015
35.990,-0.009
35.995,-0.001
36.000,-0.028
36.005,-0.007
36.010,-0.015
36.015,-0.026
36.020,-0.025
36.025,-0.062
36.030,-0.078
36.035,-0.105
36.040,-0.099
36.045,-0.087
36.050,-0.112
36.055,-0.094
36.060,-0.109
36.065,-0.119
36.070,-0.100
36.075,-0.100
36.080,-0.076
36.085,-0.082
36.090,-0.070
36.095,-0.052
36.100,-0.063
36.105,-0.018
36.110,-0.002
36.115,0.013
36.120,0.041
36.125,0.036
36.130,0.057
36.135,0.044
36.140,0.040
36.145,0.051
36.150,0.029
36.155,0.047
36.160,0.038
36.165,0.028
36.170,0.042
36.175,0.061
36.180,0.150
36.185,0.190
36.190,0.112
36.195,-0.104
36.200,-0.488
36.205,-0.934
36.210,-1.398
36.215,-1.785
36.220,-1.885
36.225,-1.525
36.230,-0.833
36.235,-0.162
36.240,0.284
36.245,0.425
36.250,0.418
36.255,0.449
36.260,0.419
36.265,0.392
36.270,0.407
36.275,0.394
36.280,0.401
36.285,0.378
36.290,0.367
36.295,0.362
36.300,0.327
36.305,0.337
36.310,0.311
36.315,0.286
36.320,0.285
36.325,0.261
36.330,0.262
36.335,0.233
36.340,0.222
36.345,0.221
36.350,0.188
36.355,0.199
36.360,0.179
36.365,0.159
36.370,0.162
36.375,0.138
36.380,0.138
36.385,0.116
36.390,0.114
36.395,0.115
36.400,0.077
36.405,0.087
36.410,0.071
36.415,0.053
36.420,0.055
36.425,0.028
36.430,0.027
36.435,0.003
36.440,-0.003
36.445,-0.005
36.450,-0.044
36.455,-0.037
36.460,-0.059
36.465,-0.079
36.470,-0.079
36.475,-0.109
36.480,-0.111
36.485,-0.138
36.490,-0.147
36.495,-0.143
36.500,-0.170
36.505,-0.143
36.510,-0.134
36.515,-0.120
36.520,-0.076
36.525,-0.055
36.530,-0.011
36.535,0.004
36.540,0.033
36.545,0.064
36.550,0.058
36.555,0.097
36.560,0.101
36.565,0.096
36.570,0.109
36.575,0.097
36.580,0.110
36.585,0.095
36.590,0.094
36.595,0.101
36.600,0.072
36.605,0.089
36.610,0.075
36.615,0.062
36.620,0.073
36.625,0.052
36.630,0.058
36.635,0.041
36.640,0.038
36.645,0.044
36.650,0.021
36.655,0.043
36.660,0.035
36.665,0.019
36.670,0.025
36.675,0.010
36.680,0.024
36.685,0.012
36.690,0.010
36.695,0.017
36.700,-0.007
36.705,0.013
36.710,0.005
36.715,-0.003
36.720,0.014
36.725,0.003
36.730,0.012
36.735,-0.005
36.740,-0.003
36.745,0.010
36.750,-0.018
36.755,-0.004
36.760,-0.014
36.765,-0.020
36.770,0.005
36.775,-0.007
36.780,-0.002
36.785,-0.010
36.790,-0.004
36.795,0.003
36.800,-0.028
36.805,-0.005
36.810,-0.003
36.815,-0.014
36.820,-0.010
36.825,-0.029
36.830,-0.015
36.835,-0.027
36.840,-0.022
36.845,-0.015
36.850,-0.060
36.855,-0.066
36.860,-0.093
36.865,-0.106
36.870,-0.085
36.875,-0.099
36.880,-0.089
36.885,-0.107
36.890,-0.114
36.895,-0.102
36.900,-0.118
36.905,-0.085
36.910,-0.082
36.915,-0.082
36.920,-0.057
36.925,-0.056
36.930,-0.028
36.935,-0.028
36.940,-0.005
36.945,0.027
36.950,0.013
36.955,0.043
36.960,0.041
36.965,0.033
36.970,0.048
36.975,0.034
36.980,0.048
36.985,0.036
36.990,0.039
36.995,0.055
37.000,0.040
37.005,0.092
37.010,0.156
37.015,0.173
37.020,0.072
37.025,-0.190
37.030,-0.564
37.035,-1.065
37.040,-1.508
37.045,-1.686
37.050,-1.646
37.055,-1.282
37.060,-0.635
37.065,-0.050
37.070,0.329
37.075,0.433
37.080,0.394
37.085,0.402
37.090,0.414
37.095,0.379
37.100,0.364
37.105,0.414
37.110,0.386
37.115,0.355
37.120,0.371
37.125,0.338
37.130,0.321
37.135,0.303
37.140,0.298
37.145,0.292
37.150,0.253
37.155,0.265
37.160,0.245
37.165,0.225
37.170,0.232
37.175,0.200
37.180,0.196
37.185,0.177
37.190,0.167
37.195,0.165
37.200,0.132
37.205,0.149
37.210,0.137
37.215,0.119
37.220,0.127
37.225,0.098
37.230,0.095
37.235,0.071
37.240,0.058
37.245,0.061
37.250,0.027
37.255,0.041
37.260,0.030
37.265,0.006
37.270,0.009
37.275,-0.016
37.280,-0.021
37.285,-0.048
37.290,-0.061
37.295,-0.061
37.300,-0.095
37.305,-0.083
37.310,-0.100
37.315,-0.118
37.320,-0.112
37.325,-0.144
37.330,-0.132
37.335,-0.128
37.340,-0.117
37.345,-0.087
37.350,-0.088
37.355,-0.041
37.360,-0.016
37.365,-0.006
37.370,0.036
37.375,0.057
37.380,0.087
37.385,0.077
37.390,0.080
37.395,0.101
37.400,0.081
37.405,0.102
37.410,0.100
37.415,0.088
37.420,0.099
37.425,0.078
37.430,0.085
37.435,0.075
37.440,0.073
37.445,0.080
37.450,0.052
37.455,0.065
37.460,0.044
37.465,0.025
37.470,0.040
37.475,0.017
37.480,0.016
37.485,0.000
37.490,0.002
37.495,0.022
37.500,0.003
37.505,0.019
37.510,0.008
37.515,-0.001
37.520,0.017
37.525,0.000
37.530,0.003
37.535,-0.003
37.540,0.017
37.545,0.038
37.550,0.002
37.555,0.013
37.560,0.006
37.565,-0.008
37.570,0.012
37.575,0.001
37.580,0.010
37.585,-0.002
37.590,-0.002
37.595,0.010
37.600,-0.015
37.605,0.005
37.610,0.005
37.615,-0.002
37.620,0.011
37.625,-0.014
37.630,-0.016
37.635,-0.044
37.640,-0.063
37.645,-0.057
37.650,-0.084
37.655,-0.064
37.660,-0.066
37.665,-0.079
37.670,-0.069
37.675,-0.092
37.680,-0.083
37.685,-0.085
37.690,-0.078
37.695,-0.059
37.700,-0.076
37.705,-0.047
37.710,-0.045
37.715,-0.049
37.720,-0.004
37.725,0.014
37.730,0.039
37.735,0.035
37.740,0.043
37.745,0.063
37.750,0.038
37.755,0.049
37.760,0.036
37.765,0.025
37.770,0.045
37.775,0.027
37.780,0.042
37.785,0.075
37.790,0.159
37.795,0.220
37.800,0.090
37.805,-0.158
37.810,-0.568
37.815,-1.087
37.820,-1.549
37.825,-1.764
37.830,-1.631
37.835,-1.301
37.840,-0.712
37.845,-0.105
37.850,0.247
37.855,0.430
37.860,0.399
37.865,0.374
37.870,0.425
37.875,0.382
37.880,0.378
37.885,0.396
37.890,0.382
37.895,0.368
37.900,0.344
37.905,0.354
37.910,0.317
37.915,0.291
37.920,0.312
37.925,0.284
37.930,0.272
37.935,0.250
37.940,0.235
37.945,0.236
37.950,0.199
37.955,0.203
37.960,0.186
37.965,0.166
37.970,0.180
37.975,0.152
37.980,0.149
37.985,0.135
37.990,0.126
37.995,0.130
38.000,0.091
38.005,0.098
38.010,0.087
38.015,0.064
38.020,0.069
38.025,0.043
38.030,0.041
38.035,0.021
38.040,0.012
38.045,0.020
38.050,-0.013
38.055,-0.004
38.060,-0.022
38.065,-0.047
38.070,-0.033
38.075,-0.054
38.080,-0.054
38.085,-0.073
38.090,-0.086
38.095,-0.079
38.100,-0.120
38.105,-0.110
38.110,-0.111
38.115,-0.123
38.120,-0.095
38.125,-0.094
38.130,-0.062
38.135,-0.040
38.140,-0.017
38.145,0.020
38.150,0.016
38.155,0.047
38.160,0.056
38.165,0.059
38.170,0.092
38.175,0.081
38.180,0.090
38.185,0.084
38.190,0.084
38.195,0.105
38.200,0.076
38.205,0.086
38.210,0.075
38.215,0.046
38.220,0.060
38.225,0.046
38.230,0.055
38.235,0.047
38.240,0.035
38.245,0.039
38.250,0.011
38.255,0.027
38.260,0.020
38.265,0.000
38.270,0.014
38.275,-0.008
38.280,-0.005
38.285,-0.005
38.290,0.000
38.295,0.013
38.300,-0.012
38.305,0.006
38.310,0.005
38.315,-0.006
38.320,0.011
38.325,-0.007
38.330,-0.001
38.335,-0.006
38.340,-0.008
38.345,0.008
38.350,-0.014
38.355,0.006
38.360,0.007
38.365,-0.006
38.370,0.011
38.375,-0.013
38.380,-0.005
38.385,-0.007
38.390,-0.012
38.395,-0.008
38.400,-0.052
38.405,-0.047
38.410,-0.061
38.415,-0.090
38.420,-0.074
38.425,-0.090
38.430,-0.080
38.435,-0.080
38.440,-0.089
38.445,-0.080
38.450,-0.100
38.455,-0.076
38.460,-0.070
38.465,-0.078
38.470,-0.050
38.475,-0.061
38.480,-0.053
38.485,-0.040
38.490,-0.008
38.495,0.034
38.500,0.024
38.505,0.050
38.510,0.058
38.515,0.042
38.520,0.049
38.525,0.031
38.530,0.038
38.535,0.029
38.540,0.024
38.545,0.041
38.550,0.035
38.555,0.111
38.560,0.193
38.565,0.176
38.570,0.038
38.575,-0.282
38.580,-0.723
38.585,-1.237
38.590,-1.634
38.595,-1.721
38.600,-1.620
38.605,-1.216
38.610,-0.542
38.615,0.027
38.620,0.361
38.625,0.407
38.630,0.382
38.635,0.428
38.640,0.432
38.645,0.396
38.650,0.379
38.655,0.427
38.660,0.399
38.665,0.355
38.670,0.381
38.675,0.354
38.680,0.332
38.685,0.318
38.690,0.302
38.695,0.297
38.700,0.264
38.705,0.270
38.710,0.250
38.715,0.219
38.720,0.227
38.725,0.200
38.730,0.191
38.735,0.177
38.740,0.169
38.745,0.174
38.750,0.141
38.755,0.147
38.760,0.129
38.765,0.100
38.770,0.112
38.775,0.090
38.780,0.085
38.785,0.069
38.790,0.052
38.795,0.057
38.800,0.027
38.805,0.032
38.810,0.015
38.815,-0.017
38.820,-0.013
38.825,-0.039
38.830,-0.043
38.835,-0.061
38.840,-0.083
38.845,-0.083
38.850,-0.120
38.855,-0.118
38.860,-0.132
38.865,-0.157
38.870,-0.141
38.875,-0.157
38.880,-0.144
38.885,-0.129
38.890,-0.110
38.895,-0.068
38.900,-0.061
38.905,-0.007
38.910,0.026
38.915,0.032
38.920,0.075
38.925,0.079
38.930,0.096
38.935,0.104
38.940,0.106
38.945,0.126
38.950,0.105
38.955,0.118
38.960,0.112
38.965,0.094
38.970,0.114
38.975,0.095
38.980,0.091
38.985,0.079
38.990,0.071
38.995,0.081
39.000,0.052
39.005,0.068
39.010,0.066
39.015,0.039
39.020,0.051
39.025,0.030
39.030,0.031
39.035,0.027
39.040,0.015
39.045,0.027
39.050,0.001
39.055,0.014
39.060,0.018
39.065,-0.004
39.070,0.011
39.075,0.000
39.080,0.005
39.085,0.003
39.090,-0.001
39.095,0.014
39.100,-0.009
39.105,0.002
39.110,-0.004
39.115,-0.018
39.120,0.007
39.125,-0.008
39.130,-0.006
39.135,-0.010
39.140,-0.014
39.145,-0.001
39.150,-0.028
39.155,-0.021
39.160,-0.037
39.165,-0.069
39.170,-0.061
39.175,-0.082
39.180,-0.077
39.185,-0.085
39.190,-0.094
39.195,-0.077
39.200,-0.106
39.205,-0.088
39.210,-0.079
39.215,-0.095
39.220,-0.070
39.225,-0.073
39.230,-0.056
39.235,-0.051
39.240,-0.049
39.245,-0.014
39.250,-0.009
39.255,0.032
39.260,0.049
39.265,0.039
39.270,0.069
39.275,0.053
39.280,0.050
39.285,0.046
39.290,0.035
39.295,0.049
39.300,0.029
39.305,0.046
39.310,0.066
39.315,0.116
39.320,0.208
39.325,0.145
39.330,-0.056
39.335,-0.406
39.340,-0.881
39.345,-1.360
39.350,-1.813
39.355,-1.933
39.360,-1.592
39.365,-0.972
39.370,-0.267
39.375,0.197
39.380,0.382
39.385,0.423
39.390,0.425
39.395,0.432
39.400,0.404
39.405,0.414
39.410,0.413
39.415,0.396
39.420,0.407
39.425,0.373
39.430,0.365
39.435,0.353
39.440,0.327
39.445,0.327
39.450,0.293
39.455,0.293
39.460,0.279
39.465,0.249
39.470,0.256
39.475,0.228
39.480,0.222
39.485,0.210
39.490,0.187
39.495,0.190
39.500,0.158
39.505,0.160
39.510,0.151
39.515,0.124
39.520,0.133
39.525,0.107
39.530,0.101
39.535,0.091
39.540,0.074
39.545,0.081
39.550,0.047
39.555,0.049
39.560,0.039
39.565,0.008
39.570,0.019
39.575,-0.010
39.580,-0.027
39.585,-0.045
39.590,-0.066
39.595,-0.062
39.600,-0.094
39.605,-0.087
39.610,-0.102
39.615,-0.141
39.620,-0.135
39.625,-0.160
39.630,-0.162
39.635,-0.162
39.640,-0.157
39.645,-0.118
39.650,-0.111
39.655,-0.064
39.660,-0.031
39.665,-0.020
39.670,0.033
39.675,0.046
39.680,0.072
39.685,0.091
39.690,0.096
39.695,0.120
39.700,0.102
39.705,0.117
39.710,0.120
39.715,0.098
39.720,0.114
39.725,0.097
39.730,0.097
39.735,0.093
39.740,0.077
39.745,0.088
39.750,0.067
39.755,0.077
39.760,0.070
39.765,0.042
39.770,0.062
39.775,0.044
39.780,0.038
39.785,0.033
39.790,0.023
39.795,0.036
39.800,0.009
39.805,0.021
39.810,0.023
39.815,0.000
39.820,0.018
39.825,0.003
39.830,0.008
39.835,0.007
39.840,-0.005
39.845,0.011
39.850,-0.012
39.855,0.003
39.860,0.005
39.865,-0.017
39.870,0.003
39.875,-0.012
39.880,-0.009
39.885,-0.007
39.890,-0.018
39.895,-0.003
39.900,-0.021
39.905,-0.005
39.910,-0.004
39.915,-0.027
39.920,-0.004
39.925,-0.018
39.930,-0.019
39.935,-0.021
39.940,-0.039
39.945,-0.044
39.950,-0.088
39.955,-0.086
39.960,-0.086
39.965,-0.105
39.970,-0.081
39.975,-0.095
39.980,-0.102
39.985,-0.112
39.990,-0.114
39.995,-0.083
40.000,-0.097
40.005,-0.076
40.010,-0.061
40.015,-0.073
40.020,-0.044
40.025,-0.043
40.030,-0.013
40.035,0.013
40.040,0.024
40.045,0.053
40.050,0.038
40.055,0.054
40.060,0.054
40.065,0.032
40.070,0.057
40.075,0.039
40.080,0.034
40.085,0.033
40.090,0.024
40.095,0.057
40.100,0.100
40.105,0.195
40.110,0.174
40.115,-0.032
40.120,-0.330
40.125,-0.785
40.130,-1.271
40.135,-1.707
40.140,-1.852
40.145,-1.545
40.150,-1.029
40.155,-0.366
40.160,0.145
40.165,0.351
40.170,0.434
40.175,0.406
40.180,0.404
40.185,0.419
40.190,0.390
40.195,0.394
40.200,0.392
40.205,0.398
40.210,0.376
40.215,0.347
40.220,0.359
40.225,0.324
40.230,0.311
40.235,0.302
40.240,0.273
40.245,0.278
40.250,0.256
40.255,0.258
40.260,0.240
40.265,0.200
40.270,0.209
40.275,0.182
40.280,0.169
40.285,0.157
40.290,0.135
40.295,0.144
40.300,0.119
40.305,0.124
40.310,0.117
40.315,0.087
40.320,0.099
40.325,0.076
40.330,0.069
40.335,0.064
40.340,0.045
40.345,0.045
40.350,0.009
40.355,0.010
40.360,-0.001
40.365,-0.041
40.370,-0.034
40.375,-0.056
40.380,-0.067
40.385,-0.080
40.390,-0.106
40.395,-0.103
40.400,-0.132
40.405,-0.132
40.410,-0.139
40.415,-0.168
40.420,-0.149
40.425,-0.158
40.430,-0.141
40.435,-0.112
40.440,-0.095
40.445,-0.050
40.450,-0.037
40.455,0.009
40.460,0.041
40.465,0.040
40.470,0.081
40.475,0.089
40.480,0.104
40.485,0.117
40.490,0.112
40.495,0.126
40.500,0.105
40.505,0.110
40.510,0.109
40.515,0.090
40.520,0.109
40.525,0.087
40.530,0.079
40.535,0.078
40.540,0.069
40.545,0.082
40.550,0.053
40.555,0.058
40.560,0.061
40.565,0.032
40.570,0.044
40.575,0.030
40.580,0.021
40.585,0.018
40.590,0.010
40.595,0.023
40.600,0.000
40.605,0.012
40.610,0.019
40.615,-0.003
40.620,0.017
40.625,0.003
40.630,0.003
40.635,0.009
40.640,-0.005
40.645,0.008
40.650,-0.009
40.655,0.004
40.660,0.010
40.665,-0.013
40.670,0.008
40.675,-0.007
40.680,-0.010
40.685,-0.003
40.690,-0.011
40.695,0.004
40.700,-0.011
40.705,0.000
40.710,0.000
40.715,-0.023
40.720,-0.001
40.725,-0.019
40.730,-0.030
40.735,-0.033
40.740,-0.058
40.745,-0.057
40.750,-0.085
40.755,-0.080
40.760,-0.075
40.765,-0.097
40.770,-0.085
40.775,-0.107
40.780,-0.104
40.785,-0.090
40.790,-0.092
40.795,-0.063
40.800,-0.074
40.805,-0.057
40.810,-0.040
40.815,-0.055
40.820,-0.014
40.825,0.006
40.830,0.024
40.835,0.039
40.840,0.040
40.845,0.057
40.850,0.034
40.855,0.043
40.860,0.047
40.865,0.022
40.870,0.046
40.875,0.036
40.880,0.037
40.885,0.054
40.890,0.076
40.895,0.165
40.900,0.178
40.905,0.071
40.910,-0.191
40.915,-0.627
40.920,-1.102
40.925,-1.515
40.930,-1.759
40.935,-1.739
40.940,-1.286
40.945,-0.572
40.950,0.005
40.955,0.337
40.960,0.392
40.965,0.370
40.970,0.423
40.975,0.396
40.980,0.373
40.985,0.400
40.990,0.392
40.995,0.385
41.000,0.358
41.005,0.362
41.010,0.350
41.015,0.306
41.020,0.314
41.025,0.289
41.030,0.277
41.035,0.277
41.040,0.254
41.045,0.254
41.050,0.221
41.055,0.216
41.060,0.210
41.065,0.181
41.070,0.195
41.075,0.169
41.080,0.149
41.085,0.146
41.090,0.131
41.095,0.132
41.100,0.100
41.105,0.098
41.110,0.092
41.115,0.062
41.120,0.079
41.125,0.062
41.130,0.050
41.135,0.043
41.140,0.015
41.145,0.018
41.150,0.000
41.155,-0.001
41.160,-0.008
41.165,-0.038
41.170,-0.032
41.175,-0.061
41.180,-0.080
41.185,-0.087
41.190,-0.103
41.195,-0.095
41.200,-0.130
41.205,-0.133
41.210,-0.133
41.215,-0.157
41.220,-0.123
41.225,-0.114
41.230,-0.097
41.235,-0.066
41.240,-0.049
41.245,-0.004
41.250,0.005
41.255,0.035
41.260,0.063
41.265,0.065
41.270,0.107
41.275,0.104
41.280,0.101
41.285,0.108
41.290,0.095
41.295,0.105
41.300,0.083
41.305,0.090
41.310,0.094
41.315,0.067
41.320,0.084
41.325,0.067
41.330,0.056
41.335,0.054
41.340,0.034
41.345,0.042
41.350,0.022
41.355,0.029
41.360,0.031
41.365,0.004
41.370,0.026
41.375,0.016
41.380,0.007
41.385,0.009
41.390,-0.002
41.395,0.011
41.400,-0.010
41.405,-0.001
41.410,0.006
41.415,-0.016
41.420,0.010
41.425,-0.001
41.430,-0.005
41.435,0.006
41.440,-0.002
41.445,0.017
41.450,0.001
41.455,0.007
41.460,0.011
41.465,-0.014
41.470,0.010
41.475,-0.001
41.480,-0.006
41.485,0.004
41.490,-0.004
41.495,0.014
41.500,-0.006
41.505,-0.005
41.510,0.001
41.515,-0.019
41.520,-0.003
41.525,-0.030
41.530,-0.055
41.535,-0.062
41.540,-0.078
41.545,-0.067
41.550,-0.091
41.555,-0.084
41.560,-0.080
41.565,-0.110
41.570,-0.090
41.575,-0.092
41.580,-0.087
41.585,-0.078
41.590,-0.078
41.595,-0.043
41.600,-0.046
41.605,-0.031
41.610,-0.015
41.615,-0.015
41.620,0.037
41.625,0.041
41.630,0.041
41.635,0.054
41.640,0.041
41.645,0.055
41.650,0.042
41.655,0.045
41.660,0.046
41.665,0.022
41.670,0.047
41.675,0.044
41.680,0.074
41.685,0.161
41.690,0.203
41.695,0.125
41.700,-0.141
41.705,-0.516
41.710,-1.000
41.715,-1.522
41.720,-1.838
41.725,-1.769
41.730,-1.333
41.735,-0.740
41.740,-0.135
41.745,0.255
41.750,0.380
41.755,0.426
41.760,0.413
41.765,0.404
41.770,0.426
41.775,0.386
41.780,0.389
41.785,0.413
41.790,0.379
41.795,0.375
41.800,0.355
41.805,0.343
41.810,0.329
41.815,0.301
41.820,0.311
41.825,0.279
41.830,0.259
41.835,0.255
41.840,0.231
41.845,0.235
41.850,0.206
41.855,0.199
41.860,0.194
41.865,0.159
41.870,0.169
41.875,0.145
41.880,0.131
41.885,0.135
41.890,0.116
41.895,0.122
41.900,0.096
41.905,0.089
41.910,0.083
41.915,0.050
41.920,0.061
41.925,0.036
41.930,0.019
41.935,0.020
41.940,0.000
41.945,-0.001
41.950,-0.032
41.955,-0.037
41.960,-0.042
41.965,-0.078
41.970,-0.067
41.975,-0.090
41.980,-0.109
41.985,-0.111
41.990,-0.133
41.995,-0.125
42.000,-0.149
42.005,-0.147
42.010,-0.130
42.015,-0.136
42.020,-0.088
42.025,-0.069
42.030,-0.047
42.035,-0.005
42.040,0.014
42.045,0.051
42.050,0.053
42.055,0.075
42.060,0.096
42.065,0.081
42.070,0.110
42.075,0.111
42.080,0.109
42.085,0.114
42.090,0.093
42.095,0.096
42.100,0.078
42.105,0.085
42.110,0.091
42.115,0.062
42.120,0.075
42.125,0.056
42.130,0.048
42.135,0.054
42.140,0.034
42.145,0.043
42.150,0.027
42.155,0.028
42.160,0.026
42.165,-0.008
42.170,0.012
42.175,0.006
42.180,-0.002
42.185,0.002
42.190,-0.011
42.195,0.009
42.200,-0.005
42.205,0.000
42.210,0.008
42.215,-0.016
42.220,0.009
42.225,0.001
42.230,-0.004
42.235,0.008
42.240,-0.006
42.245,0.005
42.250,-0.015
42.255,-0.011
42.260,0.000
42.265,-0.021
42.270,0.003
42.275,-0.007
42.280,-0.015
42.285,-0.003
42.290,-0.016
42.295,-0.005
42.300,-0.019
42.305,-0.009
42.310,-0.004
42.315,-0.030
42.320,-0.005
42.325,-0.015
42.330,-0.029
42.335,-0.034
42.340,-0.065
42.345,-0.068
42.350,-0.093
42.355,-0.091
42.360,-0.082
42.365,-0.104
42.370,-0.084
42.375,-0.101
42.380,-0.111
42.385,-0.095
42.390,-0.099
42.395,-0.078
42.400,-0.081
42.405,-0.061
42.410,-0.041
42.415,-0.058
42.420,-0.017
42.425,0.001
42.430,0.017
42.435,0.044
42.440,0.038
42.445,0.062
42.450,0.051
42.455,0.053
42.460,0.063
42.465,0.036
42.470,0.054
42.475,0.046
42.480,0.035
42.485,0.048
42.490,0.066
42.495,0.161
42.500,0.210
42.505,0.138
42.510,-0.086
42.515,-0.483
42.520,-0.943
42.525,-1.411
42.530,-1.788
42.535,-1.904
42.540,-1.567
42.545,-0.868
42.550,-0.192
42.555,0.250
42.560,0.385
42.565,0.389
42.570,0.446
42.575,0.431
42.580,0.406
42.585,0.424
42.590,0.416
42.595,0.420
42.600,0.395
42.605,0.391
42.610,0.385
42.615,0.342
42.620,0.349
42.625,0.328
42.630,0.303
42.635,0.304
42.640,0.278
42.645,0.274
42.650,0.247
42.655,0.240
42.660,0.236
42.665,0.196
42.670,0.205
42.675,0.187
42.680,0.167
42.685,0.167
42.690,0.147
42.695,0.154
42.700,0.131
42.705,0.120
42.710,0.115
42.715,0.078
42.720,0.088
42.725,0.071
42.730,0.057
42.735,0.060
42.740,0.034
42.745,0.030
42.750,0.005
42.755,-0.002
42.760,-0.008
42.765,-0.051
42.770,-0.046
42.775,-0.067
42.780,-0.083
42.785,-0.080
42.790,-0.106
42.795,-0.110
42.800,-0.143
42.805,-0.153
42.810,-0.152
42.815,-0.182
42.820,-0.157
42.825,-0.147
42.830,-0.122
42.835,-0.079
42.840,-0.064
42.845,-0.015
42.850,0.005
42.855,0.037
42.860,0.069
42.865,0.060
42.870,0.097
42.875,0.101
42.880,0.102
42.885,0.124
42.890,0.113
42.895,0.124
42.900,0.111
42.905,0.110
42.910,0.109
42.915,0.078
42.920,0.100
42.925,0.090
42.930,0.069
42.935,0.074
42.940,0.058
42.945,0.067
42.950,0.046
42.955,0.036
42.960,0.038
42.965,0.013
42.970,0.037
42.975,0.025
42.980,0.007
42.985,0.016
42.990,0.002
42.995,0.020
43.000,0.008
43.005,0.007
43.010,0.012
43.015,-0.022
43.020,-0.003
43.025,-0.004
43.030,-0.008
43.035,0.008
43.040,-0.004
43.045,0.008
43.050,-0.002
43.055,0.001
43.060,0.007
43.065,-0.026
43.070,-0.008
43.075,-0.010
43.080,-0.015
43.085,-0.001
43.090,-0.015
43.095,0.003
43.100,-0.007
43.105,-0.007
43.110,0.005
43.115,-0.023
43.120,-0.003
43.125,-0.009
43.130,-0.021
43.135,-0.007
43.140,-0.026
43.145,-0.017
43.150,-0.023
43.155,-0.023
43.160,-0.027
43.165,-0.066
43.170,-0.062
43.175,-0.087
43.180,-0.106
43.185,-0.092
43.190,-0.097
43.195,-0.084
43.200,-0.112
43.205,-0.121
43.210,-0.101
43.215,-0.114
43.220,-0.087
43.225,-0.083
43.230,-0.076
43.235,-0.046
43.240,-0.051
43.245,-0.035
43.250,-0.029
43.255,0.006
43.260,0.039
43.265,0.026
43.270,0.056
43.275,0.049
43.280,0.038
43.285,0.055
43.290,0.037
43.295,0.045
43.300,0.034
43.305,0.034
43.310,0.048
43.315,0.037
43.320,0.115
43.325,0.197
43.330,0.179
43.335,0.028
43.340,-0.293
43.345,-0.727
43.350,-1.242
43.355,-1.632
43.360,-1.706
43.365,-1.553
43.370,-1.114
43.375,-0.459
43.380,0.068
43.385,0.355
43.390,0.400
43.395,0.381
43.400,0.413
43.405,0.422
43.410,0.389
43.415,0.375
43.420,0.419
43.425,0.387
43.430,0.353
43.435,0.372
43.440,0.338
43.445,0.323
43.450,0.307
43.455,0.298
43.460,0.288
43.465,0.254
43.470,0.272
43.475,0.249
43.480,0.223
43.485,0.230
43.490,0.201
43.495,0.192
43.500,0.172
43.505,0.165
43.510,0.168
43.515,0.137
43.520,0.147
43.525,0.129
43.530,0.103
43.535,0.102
43.540,0.074
43.545,0.077
43.550,0.062
43.555,0.055
43.560,0.053
43.565,0.016
43.570,0.030
43.575,0.020
43.580,0.001
43.585,-0.005
43.590,-0.038
43.595,-0.035
43.600,-0.054
43.605,-0.063
43.610,-0.066
43.615,-0.106
43.620,-0.093
43.625,-0.113
43.630,-0.142
43.635,-0.134
43.640,-0.152
43.645,-0.137
43.650,-0.133
43.655,-0.113
43.660,-0.071
43.665,-0.062
43.670,-0.014
43.675,0.007
43.680,0.017
43.685,0.057
43.690,0.073
43.695,0.100
43.700,0.103
43.705,0.112
43.710,0.129
43.715,0.111
43.720,0.127
43.725,0.117
43.730,0.106
43.735,0.119
43.740,0.098
43.745,0.101
43.750,0.084
43.755,0.079
43.760,0.085
43.765,0.051
43.770,0.066
43.775,0.059
43.780,0.039
43.785,0.048
43.790,0.026
43.795,0.026
43.800,0.014
43.805,0.014
43.810,0.023
43.815,-0.008
43.820,0.010
43.825,0.003
43.830,-0.015
43.835,-0.001
43.840,-0.013
43.845,0.002
43.850,-0.006
43.855,-0.013
43.860,-0.003
43.865,-0.019
43.870,0.007
43.875,-0.004
43.880,-0.020
43.885,0.004
43.890,-0.004
43.895,0.007
43.900,-0.007
43.905,-0.013
43.910,0.005
43.915,-0.018
43.920,-0.002
43.925,-0.005
43.930,-0.020
43.935,-0.002
43.940,-0.011
43.945,-0.005
43.950,-0.020
43.955,-0.022
43.960,-0.005
43.965,-0.028
43.970,-0.012
43.975,-0.020
43.980,-0.032
43.985,-0.026
43.990,-0.066
43.995,-0.079
44.000,-0.097
44.005,-0.101
44.010,-0.091
44.015,-0.118
44.020,-0.096
44.025,-0.099
44.030,-0.120
44.035,-0.100
44.040,-0.100
44.045,-0.078
44.050,-0.076
44.055,-0.071
44.060,-0.056
44.065,-0.081
44.070,-0.047
44.075,-0.025
44.080,-0.015
44.085,0.020
44.090,0.015
44.095,0.039
44.100,0.044
44.105,0.035
44.110,0.043
44.115,0.021
44.120,0.041
44.125,0.042
44.130,0.034
44.135,0.053
44.140,0.050
44.145,0.109
44.150,0.181
44.155,0.186
44.160,0.041
44.165,-0.286
44.170,-0.698
44.175,-1.192
44.180,-1.668
44.185,-1.920
44.190,-1.765
44.195,-1.187
44.200,-0.480
44.205,0.099
44.210,0.367
44.215,0.391
44.220,0.431
44.225,0.436
44.230,0.423
44.235,0.434
44.240,0.411
44.245,0.424
44.250,0.408
44.255,0.383
44.260,0.389
44.265,0.357
44.270,0.355
44.275,0.332
44.280,0.307
44.285,0.312
44.290,0.280
44.295,0.275
44.300,0.255
44.305,0.238
44.310,0.242
44.315,0.209
44.320,0.218
44.325,0.202
44.330,0.174
44.335,0.178
44.340,0.152
44.345,0.154
44.350,0.137
44.355,0.121
44.360,0.123
44.365,0.087
44.370,0.098
44.375,0.086
44.380,0.058
44.385,0.064
44.390,0.039
44.395,0.035
44.400,0.015
44.405,-0.001
44.410,0.001
44.415,-0.040
44.420,-0.038
44.425,-0.054
44.430,-0.081
44.435,-0.078
44.440,-0.108
44.445,-0.114
44.450,-0.135
44.455,-0.151
44.460,-0.147
44.465,-0.177
44.470,-0.157
44.475,-0.151
44.480,-0.148
44.485,-0.100
44.490,-0.079
44.495,-0.038
44.500,-0.009
44.505,0.022
44.510,0.064
44.515,0.064
44.520,0.101
44.525,0.114
44.530,0.108
44.535,0.132
44.540,0.119
44.545,0.126
44.550,0.119
44.555,0.114
44.560,0.124
44.565,0.094
44.570,0.108
44.575,0.099
44.580,0.077
44.585,0.092
44.590,0.075
44.595,0.080
44.600,0.068
44.605,0.057
44.610,0.067
44.615,0.036
44.620,0.049
44.625,0.042
44.630,0.021
44.635,0.035
44.640,0.016
44.645,0.025
44.650,0.021
44.655,0.015
44.660,0.025
44.665,-0.004
44.670,0.011
44.675,0.006
44.680,-0.012
44.685,0.005
44.690,-0.009
44.695,0.002
44.700,-0.004
44.705,-0.007
44.710,0.009
44.715,-0.017
44.720,0.002
44.725,-0.001
44.730,-0.021
44.735,-0.004
44.740,-0.018
44.745,-0.010
44.750,-0.016
44.755,-0.020
44.760,-0.005
44.765,-0.028
44.770,-0.008
44.775,-0.011
44.780,-0.029
44.785,-0.009
44.790,-0.024
44.795,-0.024
44.800,-0.043
44.805,-0.067
44.810,-0.073
44.815,-0.108
44.820,-0.092
44.825,-0.095
44.830,-0.111
44.835,-0.090
44.840,-0.112
44.845,-0.111
44.850,-0.106
44.855,-0.098
44.860,-0.073
44.865,-0.085
44.870,-0.061
44.875,-0.056
44.880,-0.068
44.885,-0.031
44.890,-0.016
44.895,0.016
44.900,0.029
44.905,0.033
44.910,0.057
44.915,0.038
44.920,0.050
44.925,0.047
44.930,0.030
44.935,0.046
44.940,0.032
44.945,0.039
44.950,0.032
44.955,0.041
44.960,0.109
44.965,0.165
44.970,0.178
44.975,0.014
44.980,-0.305
44.985,-0.717
44.990,-1.214
44.995,-1.661
45.000,-1.932
45.005,-1.738
45.010,-1.099
45.015,-0.405
45.020,0.152
45.025,0.378
45.030,0.399
45.035,0.439
45.040,0.420
45.045,0.405
45.050,0.400
45.055,0.397
45.060,0.410
45.065,0.380
45.070,0.380
45.075,0.362
45.080,0.335
45.085,0.341
45.090,0.309
45.095,0.299
45.100,0.283
45.105,0.268
45.110,0.272
45.115,0.234
45.120,0.237
45.125,0.224
45.130,0.197
45.135,0.206
45.140,0.180
45.145,0.176
45.150,0.164
45.155,0.149
45.160,0.151
45.165,0.117
45.170,0.125
45.175,0.114
45.180,0.087
45.185,0.098
45.190,0.075
45.195,0.074
45.200,0.061
45.205,0.043
45.210,0.044
45.215,0.006
45.220,0.011
45.225,-0.004
45.230,-0.039
45.235,-0.033
45.240,-0.060
45.245,-0.067
45.250,-0.084
45.255,-0.103
45.260,-0.102
45.265,-0.142
45.270,-0.138
45.275,-0.147
45.280,-0.170
45.285,-0.150
45.290,-0.156
45.295,-0.129
45.300,-0.105
45.305,-0.079
45.310,-0.029
45.315,-0.020
45.320,0.026
45.325,0.053
45.330,0.060
45.335,0.100
45.340,0.099
45.345,0.112
45.350,0.113
45.355,0.110
45.360,0.126
45.365,0.102
45.370,0.118
45.375,0.113
45.380,0.091
45.385,0.108
45.390,0.088
45.395,0.086
45.400,0.076
45.405,0.067
45.410,0.077
45.415,0.049
45.420,0.060
45.425,0.053
45.430,0.027
45.435,0.044
45.440,0.025
45.445,0.028
45.450,0.025
45.455,0.016
45.460,0.030
45.465,0.006
45.470,0.019
45.475,0.017
45.480,-0.004
45.485,0.017
45.490,0.003
45.495,0.004
45.500,0.001
45.505,-0.003
45.510,0.013
45.515,-0.011
45.520,0.004
45.525,0.005
45.530,-0.013
45.535,0.006
45.540,-0.009
45.545,-0.004
