'Elapsed time','ECG'
'seconds','mV'
0.000,-0.133
0.005,0.002
0.010,0.007
0.015,0.000
0.020,0.000
0.025,0.023
0.030,0.075
0.035,0.063
0.040,0.067
0.045,0.108
0.050,0.101
0.055,0.086
0.060,0.108
0.065,0.119
0.070,0.114
0.075,0.113
0.080,0.101
0.085,0.091
0.090,0.093
0.095,0.090
0.100,0.081
0.105,0.075
0.110,0.071
0.115,0.067
0.120,0.066
0.125,0.105
0.130,0.170
0.135,0.159
0.140,0.018
0.145,-0.226
0.150,-0.540
0.155,-0.887
0.160,-1.157
0.165,-1.122
0.170,-0.723
0.175,-0.246
0.180,0.096
0.185,0.309
0.190,0.446
0.195,0.520
0.200,0.485
0.205,0.389
0.210,0.322
0.215,0.281
0.220,0.249
0.225,0.226
0.230,0.203
0.235,0.177
0.240,0.163
0.245,0.161
0.250,0.149
0.255,0.131
0.260,0.118
0.265,0.106
0.270,0.094
0.275,0.087
0.280,0.083
0.285,0.073
0.290,0.062
0.295,0.051
0.300,0.035
0.305,0.022
0.310,0.014
0.315,0.003
0.320,-0.011
0.325,-0.023
0.330,-0.025
0.335,-0.032
0.340,-0.046
0.345,-0.060
0.350,-0.077
0.355,-0.091
0.360,-0.107
0.365,-0.125
0.370,-0.144
0.375,-0.168
0.380,-0.186
0.385,-0.200
0.390,-0.210
0.395,-0.219
0.400,-0.226
0.405,-0.226
0.410,-0.223
0.415,-0.219
0.420,-0.215
0.425,-0.206
0.430,-0.189
0.435,-0.169
0.440,-0.146
0.445,-0.118
0.450,-0.083
0.455,-0.043
0.460,-0.005
0.465,0.023
0.470,0.047
0.475,0.072
0.480,0.103
0.485,0.133
0.490,0.150
0.495,0.161
0.500,0.173
0.505,0.185
0.510,0.193
0.515,0.192
0.520,0.186
0.525,0.183
0.530,0.178
0.535,0.168
0.540,0.160
0.545,0.153
0.550,0.143
0.555,0.130
0.560,0.124
0.565,0.123
0.570,0.118
0.575,0.111
0.580,0.104
0.585,0.100
0.590,0.096
0.595,0.089
0.600,0.082
0.605,0.075
0.610,0.070
0.615,0.073
0.620,0.073
0.625,0.067
0.630,0.064
0.635,0.062
0.640,0.061
0.645,0.065
0.650,0.067
0.655,0.067
0.660,0.060
0.665,0.051
0.670,0.046
0.675,0.042
0.680,0.037
0.685,0.036
0.690,0.038
0.695,0.035
0.700,0.028
0.705,0.023
0.710,0.022
0.715,0.023
0.720,0.020
0.725,0.014
0.730,0.010
0.735,0.008
0.740,0.006
0.745,0.002
0.750,-0.003
0.755,-0.008
0.760,-0.018
0.765,-0.020
0.770,-0.014
0.775,-0.009
0.780,-0.012
0.785,-0.018
0.790,-0.020
0.795,-0.021
0.800,-0.030
0.805,-0.045
0.810,-0.063
0.815,-0.077
0.820,-0.081
0.825,-0.078
0.830,-0.073
0.835,-0.069
0.840,-0.071
0.845,-0.090
0.850,-0.115
0.855,-0.125
0.860,-0.118
0.865,-0.097
0.870,-0.075
0.875,-0.054
0.880,-0.033
0.885,-0.022
0.890,-0.010
0.895,-0.001
0.900,0.004
0.905,0.015
0.910,0.030
0.915,0.040
0.920,0.040
0.925,0.029
0.930,0.021
0.935,0.018
0.940,0.015
0.945,0.013
0.950,0.013
0.955,0.012
0.960,0.010
0.965,0.013
0.970,0.040
0.975,0.094
0.980,0.113
0.985,0.015
0.990,-0.205
0.995,-0.508
1.000,-0.860
1.005,-1.176
1.010,-1.236
1.015,-0.905
1.020,-0.407
1.025,-0.014
1.030,0.238
1.035,0.395
1.040,0.482
1.045,0.480
1.050,0.397
1.055,0.325
1.060,0.285
1.065,0.234
1.070,0.202
1.075,0.197
1.080,0.176
1.085,0.154
1.090,0.147
1.095,0.131
1.100,0.113
1.105,0.106
1.110,0.098
1.115,0.085
1.120,0.076
1.125,0.068
1.130,0.060
1.135,0.054
1.140,0.053
1.145,0.048
1.150,0.032
1.155,0.015
1.160,0.006
1.165,-0.004
1.170,-0.014
1.175,-0.021
1.180,-0.030
1.185,-0.045
1.190,-0.061
1.195,-0.078
1.200,-0.095
1.205,-0.109
1.210,-0.128
1.215,-0.149
1.220,-0.168
1.225,-0.188
1.230,-0.201
1.235,-0.207
1.240,-0.211
1.245,-0.216
1.250,-0.220
1.255,-0.221
1.260,-0.220
1.265,-0.213
1.270,-0.202
1.275,-0.187
1.280,-0.168
1.285,-0.148
1.290,-0.122
1.295,-0.092
1.300,-0.060
1.305,-0.024
1.310,0.012
1.315,0.047
1.320,0.078
1.325,0.103
1.330,0.129
1.335,0.154
1.340,0.173
1.345,0.184
1.350,0.185
1.355,0.189
1.360,0.192
1.365,0.192
1.370,0.194
1.375,0.189
1.380,0.183
1.385,0.174
1.390,0.163
1.395,0.157
1.400,0.152
1.405,0.144
1.410,0.133
1.415,0.124
1.420,0.117
1.425,0.111
1.430,0.105
1.435,0.100
1.440,0.095
1.445,0.091
1.450,0.089
1.455,0.090
1.460,0.086
1.465,0.079
1.470,0.075
1.475,0.071
1.480,0.071
1.485,0.071
1.490,0.074
1.495,0.076
1.500,0.068
1.505,0.059
1.510,0.053
1.515,0.051
1.520,0.049
1.525,0.046
1.530,0.044
1.535,0.041
1.540,0.040
1.545,0.038
1.550,0.031
1.555,0.026
1.560,0.023
1.565,-0.006
1.570,-0.055
1.575,-0.082
1.580,-0.084
1.585,-0.077
1.590,-0.076
1.595,-0.079
1.600,-0.073
1.605,-0.069
1.610,-0.071
1.615,-0.069
1.620,-0.067
1.625,-0.065
1.630,-0.061
1.635,-0.056
1.640,-0.053
1.645,-0.060
1.650,-0.073
1.655,-0.083
1.660,-0.093
1.665,-0.097
1.670,-0.090
1.675,-0.085
1.680,-0.081
1.685,-0.075
1.690,-0.082
1.695,-0.103
1.700,-0.114
1.705,-0.113
1.710,-0.102
1.715,-0.079
1.720,-0.053
1.725,-0.025
1.730,-0.006
1.735,0.003
1.740,0.013
1.745,0.021
1.750,0.023
1.755,0.037
1.760,0.055
1.765,0.061
1.770,0.061
1.775,0.053
1.780,0.049
1.785,0.047
1.790,0.044
1.795,0.046
1.800,0.046
1.805,0.042
1.810,0.039
1.815,0.049
1.820,0.089
1.825,0.140
1.830,0.118
1.835,-0.035
1.840,-0.291
1.845,-0.613
1.850,-0.960
1.855,-1.204
1.860,-1.118
1.865,-0.686
1.870,-0.197
1.875,0.161
1.880,0.373
1.885,0.480
1.890,0.518
1.895,0.465
1.900,0.371
1.905,0.315
1.910,0.273
1.915,0.235
1.920,0.220
1.925,0.203
1.930,0.180
1.935,0.168
1.940,0.158
1.945,0.140
1.950,0.128
1.955,0.126
1.960,0.114
1.965,0.099
1.970,0.090
1.975,0.081
1.980,0.071
1.985,0.063
1.990,0.055
1.995,0.047
2.000,0.037
2.005,0.026
2.010,0.017
2.015,0.011
2.020,0.002
2.025,-0.012
2.030,-0.027
2.035,-0.044
2.040,-0.059
2.045,-0.073
2.050,-0.089
2.055,-0.105
2.060,-0.124
2.065,-0.142
2.070,-0.158
2.075,-0.176
2.080,-0.195
2.085,-0.211
2.090,-0.221
2.095,-0.224
2.100,-0.226
2.105,-0.226
2.110,-0.223
2.115,-0.217
2.120,-0.202
2.125,-0.186
2.130,-0.168
2.135,-0.146
2.140,-0.116
2.145,-0.078
2.150,-0.044
2.155,-0.010
2.160,0.027
2.165,0.063
2.170,0.097
2.175,0.123
2.180,0.145
2.185,0.165
2.190,0.180
2.195,0.193
2.200,0.201
2.205,0.203
2.210,0.204
2.215,0.204
2.220,0.201
2.225,0.193
2.230,0.184
2.235,0.177
2.240,0.168
2.245,0.159
2.250,0.147
2.255,0.136
2.260,0.127
2.265,0.119
2.270,0.116
2.275,0.114
2.280,0.111
2.285,0.107
2.290,0.099
2.295,0.092
2.300,0.089
2.305,0.086
2.310,0.086
2.315,0.084
2.320,0.078
2.325,0.074
2.330,0.075
2.335,0.077
2.340,0.078
2.345,0.075
2.350,0.068
2.355,0.061
2.360,0.051
2.365,0.045
2.370,0.045
2.375,0.045
2.380,0.043
2.385,0.039
2.390,0.036
2.395,0.033
2.400,0.026
2.405,0.023
2.410,0.020
2.415,0.016
2.420,0.014
2.425,0.012
2.430,0.012
2.435,0.008
2.440,0.005
2.445,0.007
2.450,0.005
2.455,0.002
2.460,-0.004
2.465,-0.011
2.470,-0.017
2.475,-0.023
2.480,-0.024
2.485,-0.025
2.490,-0.030
2.495,-0.040
2.500,-0.053
2.505,-0.065
2.510,-0.073
2.515,-0.076
2.520,-0.078
2.525,-0.077
2.530,-0.074
2.535,-0.076
2.540,-0.091
2.545,-0.105
2.550,-0.115
2.555,-0.117
2.560,-0.106
2.565,-0.086
2.570,-0.062
2.575,-0.035
2.580,-0.013
2.585,0.001
2.590,0.007
2.595,0.000
2.600,0.001
2.605,0.021
2.610,0.039
2.615,0.043
2.620,0.038
2.625,0.031
2.630,0.026
2.635,0.021
2.640,0.020
2.645,0.019
2.650,0.013
2.655,0.006
2.660,0.000
2.665,0.015
2.670,0.066
2.675,0.116
2.680,0.074
2.685,-0.098
2.690,-0.363
2.695,-0.682
2.700,-1.016
2.705,-1.217
2.710,-1.064
2.715,-0.611
2.720,-0.146
2.725,0.185
2.730,0.365
2.735,0.450
2.740,0.468
2.745,0.403
2.750,0.322
2.755,0.273
2.760,0.228
2.765,0.192
2.770,0.175
2.775,0.155
2.780,0.139
2.785,0.140
2.790,0.136
2.795,0.122
2.800,0.109
2.805,0.099
2.810,0.085
2.815,0.071
2.820,0.064
2.825,0.054
2.830,0.046
2.835,0.040
2.840,0.028
2.845,0.015
2.850,0.006
2.855,0.001
2.860,-0.007
2.865,-0.021
2.870,-0.034
2.875,-0.043
2.880,-0.049
2.885,-0.059
2.890,-0.073
2.895,-0.090
2.900,-0.108
2.905,-0.122
2.910,-0.143
2.915,-0.164
2.920,-0.181
2.925,-0.200
2.930,-0.212
2.935,-0.221
2.940,-0.229
2.945,-0.228
2.950,-0.232
2.955,-0.238
2.960,-0.236
2.965,-0.222
2.970,-0.197
2.975,-0.173
2.980,-0.156
2.985,-0.136
2.990,-0.108
2.995,-0.080
3.000,-0.045
3.005,-0.003
3.010,0.037
3.015,0.077
3.020,0.109
3.025,0.131
3.030,0.150
3.035,0.163
3.040,0.176
3.045,0.190
3.050,0.198
3.055,0.201
3.060,0.202
3.065,0.199
3.070,0.194
3.075,0.192
3.080,0.187
3.085,0.178
3.090,0.168
3.095,0.154
3.100,0.143
3.105,0.137
3.110,0.128
3.115,0.122
3.120,0.119
3.125,0.113
3.130,0.108
3.135,0.103
3.140,0.097
3.145,0.092
3.150,0.087
3.155,0.086
3.160,0.083
3.165,0.076
3.170,0.075
3.175,0.075
3.180,0.073
3.185,0.069
3.190,0.065
3.195,0.066
3.200,0.064
3.205,0.057
3.210,0.053
3.215,0.054
3.220,0.052
3.225,0.044
3.230,0.036
3.235,0.034
3.240,0.039
3.245,0.039
3.250,0.032
3.255,0.028
3.260,0.026
3.265,0.022
3.270,0.016
3.275,0.010
3.280,0.005
3.285,-0.004
3.290,-0.008
3.295,-0.001
3.300,0.003
3.305,0.004
3.310,-0.002
3.315,-0.015
3.320,-0.019
3.325,-0.019
3.330,-0.022
3.335,-0.028
3.340,-0.043
3.345,-0.061
3.350,-0.071
3.355,-0.074
3.360,-0.075
3.365,-0.068
3.370,-0.057
3.375,-0.060
3.380,-0.081
3.385,-0.104
3.390,-0.113
3.395,-0.109
3.400,-0.097
3.405,-0.078
3.410,-0.053
3.415,-0.032
3.420,-0.022
3.425,-0.004
3.430,0.007
3.435,0.000
3.440,0.010
3.445,0.031
3.450,0.038
3.455,0.031
3.460,0.023
3.465,0.031
3.470,0.037
3.475,0.027
3.480,0.022
3.485,0.022
3.490,0.016
3.495,0.002
3.500,-0.003
3.505,0.021
3.510,0.073
3.515,0.110
3.520,0.046
3.525,-0.148
3.530,-0.439
3.535,-0.784
3.540,-1.116
3.545,-1.246
3.550,-0.989
3.555,-0.485
3.560,-0.054
3.565,0.205
3.570,0.363
3.575,0.467
3.580,0.494
3.585,0.421
3.590,0.331
3.595,0.281
3.600,0.233
3.605,0.201
3.610,0.193
3.615,0.173
3.620,0.147
3.625,0.134
3.630,0.128
3.635,0.113
3.640,0.098
3.645,0.088
3.650,0.071
3.655,0.053
3.660,0.053
3.665,0.061
3.670,0.049
3.675,0.033
3.680,0.027
3.685,0.020
3.690,0.010
3.695,-0.003
3.700,-0.014
3.705,-0.020
3.710,-0.027
3.715,-0.042
3.720,-0.058
3.725,-0.072
3.730,-0.086
3.735,-0.099
3.740,-0.113
3.745,-0.134
3.750,-0.152
3.755,-0.169
3.760,-0.189
3.765,-0.196
3.770,-0.202
3.775,-0.214
3.780,-0.226
3.785,-0.235
3.790,-0.232
3.795,-0.224
3.800,-0.220
3.805,-0.208
3.810,-0.186
3.815,-0.163
3.820,-0.141
3.825,-0.121
3.830,-0.096
3.835,-0.060
3.840,-0.016
3.845,0.020
3.850,0.045
3.855,0.075
3.860,0.104
3.865,0.128
3.870,0.153
3.875,0.170
3.880,0.183
3.885,0.195
3.890,0.202
3.895,0.202
3.900,0.191
3.905,0.179
3.910,0.174
3.915,0.178
3.920,0.176
3.925,0.167
3.930,0.157
3.935,0.142
3.940,0.136
3.945,0.135
3.950,0.126
3.955,0.115
3.960,0.106
3.965,0.103
3.970,0.103
3.975,0.096
3.980,0.088
3.985,0.080
3.990,0.073
3.995,0.071
4.000,0.073
4.005,0.076
4.010,0.074
4.015,0.071
4.020,0.072
4.025,0.069
4.030,0.065
4.035,0.062
4.040,0.056
4.045,0.053
4.050,0.054
4.055,0.056
4.060,0.057
4.065,0.052
4.070,0.048
4.075,0.049
4.080,0.048
4.085,0.036
4.090,0.026
4.095,0.026
4.100,0.021
4.105,0.017
4.110,0.011
4.115,0.012
4.120,0.015
4.125,0.011
4.130,0.004
4.135,-0.002
4.140,-0.006
4.145,-0.009
4.150,-0.013
4.155,-0.012
4.160,-0.007
4.165,-0.010
4.170,-0.017
4.175,-0.028
4.180,-0.047
4.185,-0.062
4.190,-0.068
4.195,-0.072
4.200,-0.074
4.205,-0.069
4.210,-0.060
4.215,-0.057
4.220,-0.079
4.225,-0.105
4.230,-0.112
4.235,-0.105
4.240,-0.093
4.245,-0.073
4.250,-0.047
4.255,-0.028
4.260,-0.019
4.265,-0.008
4.270,-0.002
4.275,0.002
4.280,0.018
4.285,0.032
4.290,0.035
4.295,0.031
4.300,0.028
4.305,0.032
4.310,0.031
4.315,0.020
4.320,0.008
4.325,0.006
4.330,0.010
4.335,0.010
4.340,0.014
4.345,0.046
4.350,0.105
4.355,0.109
4.360,-0.025
4.365,-0.281
4.370,-0.602
4.375,-0.945
4.380,-1.211
4.385,-1.176
4.390,-0.766
4.395,-0.268
4.400,0.081
4.405,0.292
4.410,0.421
4.415,0.489
4.420,0.469
4.425,0.382
4.430,0.314
4.435,0.266
4.440,0.217
4.445,0.195
4.450,0.183
4.455,0.155
4.460,0.135
4.465,0.136
4.470,0.126
4.475,0.108
4.480,0.103
4.485,0.095
4.490,0.078
4.495,0.066
4.500,0.062
4.505,0.058
4.510,0.053
4.515,0.041
4.520,0.026
4.525,0.015
4.530,0.005
4.535,-0.005
4.540,-0.011
4.545,-0.019
4.550,-0.032
4.555,-0.050
4.560,-0.063
4.565,-0.070
4.570,-0.083
4.575,-0.103
4.580,-0.120
4.585,-0.136
4.590,-0.154
4.595,-0.173
4.600,-0.191
4.605,-0.206
4.610,-0.220
4.615,-0.234
4.620,-0.240
4.625,-0.239
4.630,-0.234
4.635,-0.224
4.640,-0.211
4.645,-0.200
4.650,-0.187
4.655,-0.165
4.660,-0.139
4.665,-0.108
4.670,-0.073
4.675,-0.038
4.680,-0.004
4.685,0.029
4.690,0.061
4.695,0.093
4.700,0.122
4.705,0.147
4.710,0.167
4.715,0.184
4.720,0.198
4.725,0.206
4.730,0.209
4.735,0.205
4.740,0.202
4.745,0.200
4.750,0.191
4.755,0.181
4.760,0.176
4.765,0.171
4.770,0.162
4.775,0.152
4.780,0.144
4.785,0.124
4.790,0.088
4.795,0.059
4.800,0.050
4.805,0.054
4.810,0.055
4.815,0.047
4.820,0.043
4.825,0.038
4.830,0.037
4.835,0.042
4.840,0.047
4.845,0.048
4.850,0.043
4.855,0.041
4.860,0.043
4.865,0.042
4.870,0.037
4.875,0.039
4.880,0.046
4.885,0.052
4.890,0.053
4.895,0.045
4.900,0.039
4.905,0.041
4.910,0.039
4.915,0.032
4.920,0.030
4.925,0.031
4.930,0.031
4.935,0.028
4.940,0.028
4.945,0.030
4.950,0.025
4.955,0.020
4.960,0.017
4.965,0.017
4.970,0.015
4.975,0.010
4.980,0.010
4.985,0.009
4.990,0.008
4.995,0.008
5.000,0.003
5.005,0.002
5.010,0.002
5.015,0.000
5.020,-0.004
5.025,-0.015
5.030,-0.028
5.035,-0.039
5.040,-0.051
5.045,-0.062
5.050,-0.065
5.055,-0.061
5.060,-0.055
5.065,-0.054
5.070,-0.064
5.075,-0.078
5.080,-0.083
5.085,-0.084
5.090,-0.077
5.095,-0.058
5.100,-0.033
5.105,-0.008
5.110,0.002
5.115,0.009
5.120,0.019
5.125,0.021
5.130,0.026
5.135,0.042
5.140,0.055
5.145,0.057
5.150,0.048
5.155,0.048
5.160,0.053
5.165,0.046
5.170,0.037
5.175,0.031
5.180,0.029
5.185,0.026
5.190,0.027
5.195,0.050
5.200,0.099
5.205,0.131
5.210,0.057
5.215,-0.142
5.220,-0.429
5.225,-0.768
5.230,-1.093
5.235,-1.229
5.240,-0.992
5.245,-0.511
5.250,-0.075
5.255,0.220
5.260,0.392
5.265,0.482
5.270,0.493
5.275,0.413
5.280,0.329
5.285,0.284
5.290,0.239
5.295,0.209
5.300,0.201
5.305,0.182
5.310,0.161
5.315,0.151
5.320,0.137
5.325,0.121
5.330,0.117
5.335,0.109
5.340,0.092
5.345,0.078
5.350,0.073
5.355,0.066
5.360,0.055
5.365,0.048
5.370,0.042
5.375,0.033
5.380,0.022
5.385,0.008
5.390,0.000
5.395,-0.008
5.400,-0.022
5.405,-0.036
5.410,-0.051
5.415,-0.064
5.420,-0.079
5.425,-0.095
5.430,-0.111
5.435,-0.128
5.440,-0.148
5.445,-0.168
5.450,-0.186
5.455,-0.201
5.460,-0.218
5.465,-0.231
5.470,-0.241
5.475,-0.245
5.480,-0.244
5.485,-0.241
5.490,-0.234
5.495,-0.222
5.500,-0.205
5.505,-0.184
5.510,-0.161
5.515,-0.137
5.520,-0.107
5.525,-0.072
5.530,-0.032
5.535,0.009
5.540,0.046
5.545,0.081
5.550,0.117
5.555,0.145
5.560,0.166
5.565,0.185
5.570,0.196
5.575,0.202
5.580,0.202
5.585,0.198
5.590,0.201
5.595,0.207
5.600,0.203
5.605,0.197
5.610,0.190
5.615,0.179
5.620,0.167
5.625,0.154
5.630,0.146
5.635,0.140
5.640,0.133
5.645,0.124
5.650,0.113
5.655,0.113
5.660,0.112
5.665,0.102
5.670,0.093
5.675,0.087
5.680,0.083
5.685,0.079
5.690,0.076
5.695,0.076
5.700,0.077
5.705,0.073
5.710,0.064
5.715,0.059
5.720,0.060
5.725,0.063
5.730,0.066
5.735,0.060
5.740,0.050
5.745,0.046
5.750,0.045
5.755,0.043
5.760,0.038
5.765,0.033
5.770,0.028
5.775,0.025
5.780,0.026
5.785,0.025
5.790,0.026
5.795,0.024
5.800,0.019
5.805,0.012
5.810,0.002
5.815,-0.003
5.820,0.000
5.825,0.000
5.830,-0.002
5.835,-0.008
5.840,-0.013
5.845,-0.015
5.850,-0.019
5.855,-0.019
5.860,-0.018
5.865,-0.019
5.870,-0.023
5.875,-0.030
5.880,-0.031
5.885,-0.033
5.890,-0.043
5.895,-0.058
5.900,-0.078
5.905,-0.089
5.910,-0.092
5.915,-0.092
5.920,-0.087
5.925,-0.084
5.930,-0.082
5.935,-0.091
5.940,-0.110
5.945,-0.120
5.950,-0.119
5.955,-0.103
5.960,-0.082
5.965,-0.063
5.970,-0.041
5.975,-0.024
5.980,-0.012
5.985,-0.003
5.990,0.003
5.995,0.011
6.000,0.024
6.005,0.037
6.010,0.041
6.015,0.033
6.020,0.025
6.025,0.025
6.030,0.022
6.035,0.015
6.040,0.014
6.045,0.012
6.050,0.006
6.055,0.002
6.060,0.008
6.065,0.047
6.070,0.107
6.075,0.095
6.080,-0.040
6.085,-0.278
6.090,-0.593
6.095,-0.940
6.100,-1.209
6.105,-1.183
6.110,-0.792
6.115,-0.293
6.120,0.091
6.125,0.324
6.130,0.445
6.135,0.492
6.140,0.448
6.145,0.349
6.150,0.283
6.155,0.247
6.160,0.210
6.165,0.190
6.170,0.174
6.175,0.154
6.180,0.144
6.185,0.134
6.190,0.116
6.195,0.106
6.200,0.100
6.205,0.088
6.210,0.074
6.215,0.064
6.220,0.054
6.225,0.049
6.230,0.046
6.235,0.038
6.240,0.027
6.245,0.020
6.250,0.013
6.255,0.004
6.260,-0.009
6.265,-0.018
6.270,-0.025
6.275,-0.036
6.280,-0.049
6.285,-0.067
6.290,-0.080
6.295,-0.092
6.300,-0.114
6.305,-0.135
6.310,-0.158
6.315,-0.175
6.320,-0.187
6.325,-0.206
6.330,-0.222
6.335,-0.235
6.340,-0.243
6.345,-0.242
6.350,-0.238
6.355,-0.232
6.360,-0.227
6.365,-0.216
6.370,-0.196
6.375,-0.174
6.380,-0.150
6.385,-0.119
6.390,-0.082
6.395,-0.044
6.400,-0.009
6.405,0.027
6.410,0.063
6.415,0.097
6.420,0.133
6.425,0.162
6.430,0.184
6.435,0.197
6.440,0.203
6.445,0.212
6.450,0.216
6.455,0.213
6.460,0.210
6.465,0.207
6.470,0.204
6.475,0.201
6.480,0.195
6.485,0.186
6.490,0.175
6.495,0.164
6.500,0.154
6.505,0.148
6.510,0.141
6.515,0.130
6.520,0.122
6.525,0.115
6.530,0.109
6.535,0.103
6.540,0.098
6.545,0.094
6.550,0.089
6.555,0.085
6.560,0.081
6.565,0.075
6.570,0.074
6.575,0.077
6.580,0.079
6.585,0.076
6.590,0.075
6.595,0.072
6.600,0.067
6.605,0.065
6.610,0.063
6.615,0.058
6.620,0.054
6.625,0.051
6.630,0.053
6.635,0.051
6.640,0.042
6.645,0.035
6.650,0.027
6.655,0.024
6.660,0.023
6.665,0.018
6.670,0.011
6.675,0.007
6.680,0.007
6.685,0.007
6.690,0.005
6.695,-0.002
6.700,-0.008
6.705,-0.010
6.710,-0.006
6.715,-0.003
6.720,-0.006
6.725,-0.015
6.730,-0.021
6.735,-0.019
6.740,-0.019
6.745,-0.023
6.750,-0.024
6.755,-0.026
6.760,-0.035
6.765,-0.043
6.770,-0.053
6.775,-0.069
6.780,-0.080
6.785,-0.091
6.790,-0.092
6.795,-0.081
6.800,-0.074
6.805,-0.074
6.810,-0.090
6.815,-0.108
6.820,-0.117
6.825,-0.123
6.830,-0.112
6.835,-0.084
6.840,-0.054
6.845,-0.025
6.850,-0.011
6.855,-0.002
6.860,0.003
6.865,0.000
6.870,0.008
6.875,0.030
6.880,0.038
6.885,0.031
6.890,0.031
6.895,0.038
6.900,0.039
6.905,0.027
6.910,0.011
6.915,0.011
6.920,0.015
6.925,0.014
6.930,0.012
6.935,0.019
6.940,0.055
6.945,0.109
6.950,0.097
6.955,-0.041
6.960,-0.282
6.965,-0.595
6.970,-0.941
6.975,-1.197
6.980,-1.134
6.985,-0.725
6.990,-0.244
6.995,0.112
7.000,0.325
7.005,0.443
7.010,0.489
7.015,0.440
7.020,0.349
7.025,0.289
7.030,0.245
7.035,0.204
7.040,0.190
7.045,0.175
7.050,0.147
7.055,0.133
7.060,0.130
7.065,0.123
7.070,0.108
7.075,0.093
7.080,0.084
7.085,0.077
7.090,0.071
7.095,0.062
7.100,0.048
7.105,0.044
7.110,0.047
7.115,0.038
7.120,0.025
7.125,0.015
7.130,0.000
7.135,-0.013
7.140,-0.023
7.145,-0.034
7.150,-0.047
7.155,-0.063
7.160,-0.079
7.165,-0.095
7.170,-0.110
7.175,-0.124
7.180,-0.137
7.185,-0.152
7.190,-0.173
7.195,-0.191
7.200,-0.205
7.205,-0.215
7.210,-0.224
7.215,-0.235
7.220,-0.242
7.225,-0.243
7.230,-0.233
7.235,-0.218
7.240,-0.203
7.245,-0.189
7.250,-0.170
7.255,-0.143
7.260,-0.112
7.265,-0.082
7.270,-0.054
7.275,-0.018
7.280,0.022
7.285,0.062
7.290,0.099
7.295,0.129
7.300,0.149
7.305,0.162
7.310,0.178
7.315,0.198
7.320,0.211
7.325,0.213
7.330,0.209
7.335,0.207
7.340,0.208
7.345,0.201
7.350,0.194
7.355,0.187
7.360,0.173
7.365,0.164
7.370,0.154
7.375,0.142
7.380,0.134
7.385,0.128
7.390,0.122
7.395,0.114
7.400,0.108
7.405,0.101
7.410,0.095
7.415,0.090
7.420,0.085
7.425,0.087
7.430,0.094
7.435,0.089
7.440,0.082
7.445,0.080
7.450,0.079
7.455,0.076
7.460,0.070
7.465,0.061
7.470,0.056
7.475,0.053
7.480,0.053
7.485,0.051
7.490,0.048
7.495,0.048
7.500,0.046
7.505,0.044
7.510,0.040
7.515,0.039
7.520,0.041
7.525,0.040
7.530,0.036
7.535,0.028
7.540,0.020
7.545,0.016
7.550,0.012
7.555,0.007
7.560,0.000
7.565,-0.004
7.570,-0.002
7.575,0.003
7.580,0.005
7.585,0.001
7.590,-0.007
7.595,-0.015
7.600,-0.020
7.605,-0.016
7.610,-0.016
7.615,-0.018
7.620,-0.024
7.625,-0.032
7.630,-0.035
7.635,-0.045
7.640,-0.062
7.645,-0.073
7.650,-0.079
7.655,-0.080
7.660,-0.074
7.665,-0.069
7.670,-0.065
7.675,-0.076
7.680,-0.096
7.685,-0.109
7.690,-0.113
7.695,-0.105
7.700,-0.090
7.705,-0.066
7.710,-0.044
7.715,-0.034
7.720,-0.021
7.725,-0.005
7.730,0.003
7.735,0.010
7.740,0.022
7.745,0.033
7.750,0.032
7.755,0.029
7.760,0.034
7.765,0.039
7.770,0.029
7.775,0.014
7.780,0.006
7.785,0.000
7.790,-0.005
7.795,-0.005
7.800,0.008
7.805,0.051
7.810,0.113
7.815,0.120
7.820,-0.009
7.825,-0.261
7.830,-0.585
7.835,-0.940
7.840,-1.217
7.845,-1.197
7.850,-0.803
7.855,-0.299
7.860,0.060
7.865,0.280
7.870,0.424
7.875,0.498
7.880,0.480
7.885,0.394
7.890,0.320
7.895,0.268
7.900,0.219
7.905,0.197
7.910,0.192
7.915,0.169
7.920,0.150
7.925,0.148
7.930,0.139
7.935,0.120
7.940,0.108
7.945,0.094
7.950,0.077
7.955,0.067
7.960,0.062
7.965,0.055
7.970,0.048
7.975,0.043
7.980,0.031
7.985,0.013
7.990,0.002
7.995,-0.006
8.000,-0.009
8.005,-0.011
8.010,-0.024
8.015,-0.042
8.020,-0.055
8.025,-0.067
8.030,-0.081
8.035,-0.103
8.040,-0.122
8.045,-0.135
8.050,-0.150
8.055,-0.170
8.060,-0.192
8.065,-0.210
8.070,-0.223
8.075,-0.228
8.080,-0.229
8.085,-0.233
8.090,-0.233
8.095,-0.225
8.100,-0.218
8.105,-0.205
8.110,-0.188
8.115,-0.172
8.120,-0.146
8.125,-0.118
8.130,-0.091
8.135,-0.055
8.140,-0.019
8.145,0.018
8.150,0.055
8.155,0.085
8.160,0.109
8.165,0.130
8.170,0.149
8.175,0.171
8.180,0.185
8.185,0.190
8.190,0.196
8.195,0.199
8.200,0.197
8.205,0.189
8.210,0.183
8.215,0.185
8.220,0.182
8.225,0.171
8.230,0.158
8.235,0.147
8.240,0.138
8.245,0.130
8.250,0.118
8.255,0.107
8.260,0.097
8.265,0.093
8.270,0.094
8.275,0.096
8.280,0.090
8.285,0.072
8.290,0.064
8.295,0.066
8.300,0.068
8.305,0.071
8.310,0.069
8.315,0.066
8.320,0.068
8.325,0.071
8.330,0.069
8.335,0.064
8.340,0.056
8.345,0.052
8.350,0.050
8.355,0.047
8.360,0.044
8.365,0.043
8.370,0.040
8.375,0.036
8.380,0.035
8.385,0.034
8.390,0.030
8.395,0.026
8.400,0.026
8.405,0.028
8.410,0.018
8.415,0.013
8.420,0.018
8.425,0.011
8.430,0.002
8.435,-0.002
8.440,-0.002
8.445,0.001
8.450,-0.004
8.455,-0.009
8.460,-0.011
8.465,-0.015
8.470,-0.015
8.475,-0.015
8.480,-0.015
8.485,-0.017
8.490,-0.025
8.495,-0.028
8.500,-0.034
8.505,-0.049
8.510,-0.065
8.515,-0.077
8.520,-0.080
8.525,-0.072
8.530,-0.065
8.535,-0.061
8.540,-0.065
8.545,-0.085
8.550,-0.106
8.555,-0.113
8.560,-0.107
8.565,-0.092
8.570,-0.072
8.575,-0.050
8.580,-0.030
8.585,-0.015
8.590,-0.003
8.595,0.006
8.600,0.011
8.605,0.019
8.610,0.031
8.615,0.037
8.620,0.032
8.625,0.026
8.630,0.019
8.635,0.017
8.640,0.022
8.645,0.021
8.650,0.017
8.655,0.015
8.660,0.017
8.665,0.028
8.670,0.064
8.675,0.118
8.680,0.110
8.685,-0.037
8.690,-0.297
8.695,-0.620
8.700,-0.969
8.705,-1.224
8.710,-1.161
8.715,-0.744
8.720,-0.261
8.725,0.086
8.730,0.304
8.735,0.437
8.740,0.495
8.745,0.454
8.750,0.366
8.755,0.309
8.760,0.266
8.765,0.221
8.770,0.204
8.775,0.197
8.780,0.177
8.785,0.158
8.790,0.149
8.795,0.132
8.800,0.115
8.805,0.109
8.810,0.098
8.815,0.086
8.820,0.078
8.825,0.071
8.830,0.064
8.835,0.052
8.840,0.042
8.845,0.035
8.850,0.028
8.855,0.025
8.860,0.015
8.865,0.000
8.870,-0.011
8.875,-0.023
8.880,-0.039
8.885,-0.056
8.890,-0.071
8.895,-0.084
8.900,-0.099
8.905,-0.114
8.910,-0.135
8.915,-0.155
8.920,-0.176
8.925,-0.192
8.930,-0.201
8.935,-0.212
8.940,-0.222
8.945,-0.230
8.950,-0.235
8.955,-0.231
8.960,-0.224
8.965,-0.216
8.970,-0.204
8.975,-0.191
8.980,-0.172
8.985,-0.148
8.990,-0.122
8.995,-0.086
9.000,-0.045
9.005,-0.007
9.010,0.027
9.015,0.058
9.020,0.090
9.025,0.124
9.030,0.152
9.035,0.170
9.040,0.182
9.045,0.193
9.050,0.204
9.055,0.214
9.060,0.213
9.065,0.206
9.070,0.196
9.075,0.188
9.080,0.185
9.085,0.182
9.090,0.177
9.095,0.170
9.100,0.157
9.105,0.145
9.110,0.137
9.115,0.127
9.120,0.116
9.125,0.111
9.130,0.108
9.135,0.102
9.140,0.095
9.145,0.088
9.150,0.085
9.155,0.083
9.160,0.080
9.165,0.078
9.170,0.079
9.175,0.080
9.180,0.078
9.185,0.077
9.190,0.074
9.195,0.069
9.200,0.064
9.205,0.059
9.210,0.056
9.215,0.055
9.220,0.054
9.225,0.052
9.230,0.050
9.235,0.044
9.240,0.039
9.245,0.035
9.250,0.032
9.255,0.030
9.260,0.027
9.265,0.021
9.270,0.016
9.275,0.013
9.280,0.011
9.285,0.010
9.290,0.008
9.295,0.004
9.300,-0.002
9.305,-0.004
9.310,-0.005
9.315,-0.008
9.320,-0.011
9.325,-0.012
9.330,-0.013
9.335,-0.018
9.340,-0.019
9.345,-0.020
9.350,-0.026
9.355,-0.034
9.360,-0.050
9.365,-0.069
9.370,-0.083
9.375,-0.089
9.380,-0.085
9.385,-0.079
9.390,-0.073
9.395,-0.070
9.400,-0.083
9.405,-0.103
9.410,-0.115
9.415,-0.116
9.420,-0.102
9.425,-0.078
9.430,-0.053
9.435,-0.030
9.440,-0.017
9.445,-0.009
9.450,0.001
9.455,0.005
9.460,0.011
9.465,0.026
9.470,0.036
9.475,0.036
9.480,0.033
9.485,0.028
9.490,0.027
9.495,0.022
9.500,0.016
9.505,0.015
9.510,0.012
9.515,0.009
9.520,0.011
9.525,0.030
9.530,0.082
9.535,0.112
9.540,0.032
9.545,-0.168
9.550,-0.458
9.555,-0.797
9.560,-1.120
9.565,-1.248
9.570,-0.990
9.575,-0.493
9.580,-0.047
9.585,0.243
9.590,0.399
9.595,0.478
9.600,0.481
9.605,0.395
9.610,0.310
9.615,0.266
9.620,0.229
9.625,0.207
9.630,0.193
9.635,0.165
9.640,0.143
9.645,0.138
9.650,0.130
9.655,0.116
9.660,0.103
9.665,0.092
9.670,0.083
9.675,0.074
9.680,0.067
9.685,0.057
9.690,0.047
9.695,0.041
9.700,0.033
9.705,0.024
9.710,0.016
9.715,0.007
9.720,-0.003
9.725,-0.010
9.730,-0.018
9.735,-0.032
9.740,-0.047
9.745,-0.059
9.750,-0.074
9.755,-0.094
9.760,-0.116
9.765,-0.134
9.770,-0.149
9.775,-0.167
9.780,-0.186
9.785,-0.200
9.790,-0.213
9.795,-0.223
9.800,-0.232
9.805,-0.239
9.810,-0.240
9.815,-0.239
9.820,-0.234
9.825,-0.223
9.830,-0.207
9.835,-0.190
9.840,-0.167
9.845,-0.136
9.850,-0.100
9.855,-0.065
9.860,-0.031
9.865,0.004
9.870,0.043
9.875,0.080
9.880,0.110
9.885,0.136
9.890,0.162
9.895,0.184
9.900,0.200
9.905,0.209
9.910,0.212
9.915,0.212
9.920,0.209
9.925,0.206
9.930,0.202
9.935,0.196
9.940,0.185
9.945,0.176
9.950,0.170
9.955,0.166
9.960,0.157
9.965,0.146
9.970,0.138
9.975,0.134
9.980,0.129
9.985,0.119
9.990,0.116
9.995,0.115
10.000,0.106
10.005,0.097
10.010,0.087
10.015,0.081
10.020,0.079
10.025,0.073
10.030,0.076
10.035,0.081
10.040,0.080
10.045,0.076
10.050,0.067
10.055,0.061
10.060,0.060
10.065,0.061
10.070,0.067
10.075,0.067
10.080,0.061
10.085,0.056
10.090,0.053
10.095,0.052
10.100,0.047
10.105,0.038
10.110,0.032
10.115,0.027
10.120,0.019
10.125,0.014
10.130,0.015
10.135,0.016
10.140,0.015
10.145,0.008
10.150,0.001
10.155,-0.001
10.160,-0.005
10.165,-0.003
10.170,-0.002
10.175,-0.006
10.180,-0.008
10.185,-0.013
10.190,-0.013
10.195,-0.013
10.200,-0.020
10.205,-0.026
10.210,-0.034
10.215,-0.038
10.220,-0.046
10.225,-0.063
10.230,-0.080
10.235,-0.091
10.240,-0.089
10.245,-0.076
10.250,-0.064
10.255,-0.064
10.260,-0.084
10.265,-0.106
10.270,-0.117
10.275,-0.118
10.280,-0.102
10.285,-0.076
10.290,-0.049
10.295,-0.027
10.300,-0.017
10.305,-0.005
10.310,0.004
10.315,0.004
10.320,0.014
10.325,0.030
10.330,0.037
10.335,0.033
10.340,0.022
10.345,0.023
10.350,0.027
10.355,0.025
10.360,0.024
10.365,0.021
10.370,0.014
10.375,0.007
10.380,0.009
10.385,0.040
10.390,0.095
10.395,0.108
10.400,-0.001
10.405,-0.223
10.410,-0.525
10.415,-0.870
10.420,-1.168
10.425,-1.205
10.430,-0.857
10.435,-0.357
10.440,0.036
10.445,0.278
10.450,0.416
10.455,0.487
10.460,0.470
10.465,0.378
10.470,0.306
10.475,0.266
10.480,0.224
10.485,0.197
10.490,0.184
10.495,0.160
10.500,0.138
10.505,0.127
10.510,0.112
10.515,0.103
10.520,0.104
10.525,0.092
10.530,0.080
10.535,0.071
10.540,0.061
10.545,0.052
10.550,0.043
10.555,0.039
10.560,0.034
10.565,0.025
10.570,0.019
10.575,0.010
10.580,-0.003
10.585,-0.018
10.590,-0.032
10.595,-0.044
10.600,-0.059
10.605,-0.072
10.610,-0.085
10.615,-0.099
10.620,-0.114
10.625,-0.132
10.630,-0.153
10.635,-0.177
10.640,-0.193
10.645,-0.200
10.650,-0.212
10.655,-0.223
10.660,-0.231
10.665,-0.234
10.670,-0.229
10.675,-0.229
10.680,-0.223
10.685,-0.211
10.690,-0.193
10.695,-0.173
10.700,-0.155
10.705,-0.129
10.710,-0.094
10.715,-0.057
10.720,-0.019
10.725,0.014
10.730,0.047
10.735,0.084
10.740,0.118
10.745,0.144
10.750,0.165
10.755,0.182
10.760,0.195
10.765,0.205
10.770,0.208
10.775,0.208
10.780,0.207
10.785,0.205
10.790,0.202
10.795,0.192
10.800,0.179
10.805,0.167
10.810,0.161
10.815,0.153
10.820,0.143
10.825,0.138
10.830,0.134
10.835,0.125
10.840,0.110
10.845,0.097
10.850,0.093
10.855,0.093
10.860,0.092
10.865,0.088
10.870,0.085
10.875,0.083
10.880,0.083
10.885,0.084
10.890,0.086
10.895,0.083
10.900,0.077
10.905,0.071
10.910,0.064
10.915,0.062
10.920,0.063
10.925,0.060
10.930,0.056
10.935,0.049
10.940,0.041
10.945,0.031
10.950,0.026
10.955,0.033
10.960,0.039
10.965,0.042
10.970,0.037
10.975,0.029
10.980,0.031
10.985,0.030
10.990,0.024
10.995,0.016
11.000,0.006
11.005,0.000
11.010,-0.003
11.015,-0.002
11.020,-0.001
11.025,-0.006
11.030,-0.009
11.035,-0.012
11.040,-0.012
11.045,-0.013
11.050,-0.020
11.055,-0.024
11.060,-0.025
11.065,-0.033
11.070,-0.050
11.075,-0.064
11.080,-0.072
11.085,-0.076
11.090,-0.079
11.095,-0.078
11.100,-0.070
11.105,-0.071
11.110,-0.092
11.115,-0.113
11.120,-0.120
11.125,-0.112
11.130,-0.092
11.135,-0.066
11.140,-0.043
11.145,-0.027
11.150,-0.012
11.155,0.004
11.160,0.005
11.165,0.007
11.170,0.019
11.175,0.032
11.180,0.034
11.185,0.022
11.190,0.019
11.195,0.024
11.200,0.020
11.205,0.015
11.210,0.014
11.215,0.018
11.220,0.018
11.225,0.013
11.230,0.023
11.235,0.058
11.240,0.105
11.245,0.077
11.250,-0.087
11.255,-0.359
11.260,-0.692
11.265,-1.034
11.270,-1.245
11.275,-1.105
11.280,-0.640
11.285,-0.167
11.290,0.140
11.295,0.322
11.300,0.438
11.305,0.489
11.310,0.442
11.315,0.351
11.320,0.295
11.325,0.254
11.330,0.218
11.335,0.211
11.340,0.201
11.345,0.164
11.350,0.136
11.355,0.130
11.360,0.121
11.365,0.110
11.370,0.096
11.375,0.081
11.380,0.073
11.385,0.068
11.390,0.064
11.395,0.049
11.400,0.033
11.405,0.029
11.410,0.019
11.415,0.005
11.420,-0.004
11.425,-0.011
11.430,-0.013
11.435,-0.014
11.440,-0.027
11.445,-0.043
11.450,-0.062
11.455,-0.078
11.460,-0.092
11.465,-0.111
11.470,-0.133
11.475,-0.149
11.480,-0.159
11.485,-0.172
11.490,-0.188
11.495,-0.213
11.500,-0.234
11.505,-0.239
11.510,-0.238
11.515,-0.239
11.520,-0.233
11.525,-0.228
11.530,-0.222
11.535,-0.208
11.540,-0.190
11.545,-0.160
11.550,-0.128
11.555,-0.102
11.560,-0.072
11.565,-0.038
11.570,-0.005
11.575,0.031
11.580,0.071
11.585,0.103
11.590,0.131
11.595,0.157
11.600,0.172
11.605,0.182
11.610,0.187
11.615,0.192
11.620,0.197
11.625,0.198
11.630,0.197
11.635,0.190
11.640,0.182
11.645,0.177
11.650,0.172
11.655,0.166
11.660,0.155
11.665,0.145
11.670,0.139
11.675,0.131
11.680,0.122
11.685,0.117
11.690,0.116
11.695,0.107
11.700,0.091
11.705,0.084
11.710,0.080
11.715,0.078
11.720,0.079
11.725,0.075
11.730,0.067
11.735,0.059
11.740,0.058
11.745,0.063
11.750,0.061
11.755,0.058
11.760,0.062
11.765,0.065
11.770,0.065
11.775,0.062
11.780,0.056
11.785,0.048
11.790,0.043
11.795,0.045
11.800,0.048
11.805,0.046
11.810,0.038
11.815,0.032
11.820,0.029
11.825,0.023
11.830,0.021
11.835,0.018
11.840,0.014
11.845,0.015
11.850,0.015
11.855,0.011
11.860,0.002
11.865,-0.008
11.870,-0.012
11.875,-0.010
11.880,-0.003
11.885,0.002
11.890,-0.008
11.895,-0.021
11.900,-0.026
11.905,-0.037
11.910,-0.053
11.915,-0.065
11.920,-0.071
11.925,-0.071
11.930,-0.064
11.935,-0.058
11.940,-0.057
11.945,-0.073
11.950,-0.094
11.955,-0.098
11.960,-0.094
11.965,-0.087
11.970,-0.075
11.975,-0.055
11.980,-0.037
11.985,-0.026
11.990,-0.008
11.995,0.005
12.000,0.007
12.005,0.013
12.010,0.024
12.015,0.030
12.020,0.026
12.025,0.021
12.030,0.026
12.035,0.030
12.040,0.025
12.045,0.022
12.050,0.020
12.055,0.011
12.060,0.001
12.065,0.005
12.070,0.035
12.075,0.090
12.080,0.118
12.085,0.029
12.090,-0.186
12.095,-0.489
12.100,-0.838
12.105,-1.151
12.110,-1.240
12.115,-0.949
12.120,-0.450
12.125,-0.036
12.130,0.228
12.135,0.387
12.140,0.477
12.145,0.488
12.150,0.410
12.155,0.330
12.160,0.285
12.165,0.236
12.170,0.208
12.175,0.202
12.180,0.183
12.185,0.157
12.190,0.147
12.195,0.137
12.200,0.119
12.205,0.106
12.210,0.095
12.215,0.083
12.220,0.077
12.225,0.074
12.230,0.065
12.235,0.055
12.240,0.047
12.245,0.040
12.250,0.033
12.255,0.023
12.260,0.010
12.265,0.001
12.270,-0.008
12.275,-0.021
12.280,-0.034
12.285,-0.046
12.290,-0.055
12.295,-0.067
12.300,-0.087
12.305,-0.104
12.310,-0.120
12.315,-0.140
12.320,-0.160
12.325,-0.178
12.330,-0.196
12.335,-0.216
12.340,-0.233
12.345,-0.240
12.350,-0.239
12.355,-0.233
12.360,-0.227
12.365,-0.222
12.370,-0.213
12.375,-0.196
12.380,-0.173
12.385,-0.152
12.390,-0.127
12.395,-0.093
12.400,-0.053
12.405,-0.013
12.410,0.022
12.415,0.056
12.420,0.089
12.425,0.118
12.430,0.146
12.435,0.169
12.440,0.187
12.445,0.200
12.450,0.208
12.455,0.213
12.460,0.214
12.465,0.212
12.470,0.211
12.475,0.204
12.480,0.194
12.485,0.186
12.490,0.180
12.495,0.174
12.500,0.165
12.505,0.153
12.510,0.141
12.515,0.133
12.520,0.125
12.525,0.116
12.530,0.109
12.535,0.102
12.540,0.096
12.545,0.091
12.550,0.084
12.555,0.079
12.560,0.079
12.565,0.080
12.570,0.075
12.575,0.070
12.580,0.068
12.585,0.061
12.590,0.059
12.595,0.059
12.600,0.057
12.605,0.056
12.610,0.050
12.615,0.047
12.620,0.048
12.625,0.044
12.630,0.041
12.635,0.041
12.640,0.038
12.645,0.033
12.650,0.030
12.655,0.030
12.660,0.028
12.665,0.022
12.670,0.015
12.675,0.012
12.680,0.011
12.685,0.011
12.690,0.010
12.695,0.005
12.700,-0.003
12.705,-0.007
12.710,-0.007
12.715,-0.007
12.720,-0.009
12.725,-0.013
12.730,-0.018
12.735,-0.026
12.740,-0.034
12.745,-0.049
12.750,-0.067
12.755,-0.075
12.760,-0.077
12.765,-0.077
12.770,-0.072
12.775,-0.066
12.780,-0.068
12.785,-0.087
12.790,-0.105
12.795,-0.107
12.800,-0.101
12.805,-0.087
12.810,-0.069
12.815,-0.047
12.820,-0.026
12.825,-0.018
12.830,-0.005
12.835,0.005
12.840,0.006
12.845,0.017
12.850,0.031
12.855,0.041
12.860,0.042
12.865,0.034
12.870,0.028
12.875,0.026
12.880,0.023
12.885,0.018
12.890,0.013
12.895,0.010
12.900,0.005
12.905,0.012
12.910,0.051
12.915,0.105
12.920,0.099
12.925,-0.039
12.930,-0.292
12.935,-0.615
12.940,-0.968
12.945,-1.242
12.950,-1.206
12.955,-0.794
12.960,-0.279
12.965,0.110
12.970,0.336
12.975,0.444
12.980,0.491
12.985,0.448
12.990,0.349
12.995,0.285
13.000,0.248
13.005,0.212
13.010,0.195
13.015,0.179
13.020,0.153
13.025,0.142
13.030,0.138
13.035,0.126
13.040,0.116
13.045,0.108
13.050,0.094
13.055,0.080
13.060,0.069
13.065,0.062
13.070,0.055
13.075,0.044
13.080,0.036
13.085,0.029
13.090,0.022
13.095,0.015
13.100,0.005
13.105,-0.006
13.110,-0.019
13.115,-0.031
13.120,-0.044
13.125,-0.058
13.130,-0.073
13.135,-0.089
13.140,-0.104
13.145,-0.122
13.150,-0.143
13.155,-0.162
13.160,-0.182
13.165,-0.201
13.170,-0.217
13.175,-0.231
13.180,-0.241
13.185,-0.252
13.190,-0.254
13.195,-0.247
13.200,-0.242
13.205,-0.237
13.210,-0.227
13.215,-0.211
13.220,-0.188
13.225,-0.160
13.230,-0.127
13.235,-0.092
13.240,-0.053
13.245,-0.011
13.250,0.028
13.255,0.063
13.260,0.096
13.265,0.129
13.270,0.157
13.275,0.177
13.280,0.193
13.285,0.204
13.290,0.211
13.295,0.214
13.300,0.213
13.305,0.209
13.310,0.203
13.315,0.198
13.320,0.197
13.325,0.192
13.330,0.184
13.335,0.176
13.340,0.166
13.345,0.159
13.350,0.149
13.355,0.138
13.360,0.132
13.365,0.125
13.370,0.117
13.375,0.109
13.380,0.101
13.385,0.092
13.390,0.088
13.395,0.084
13.400,0.078
13.405,0.076
13.410,0.074
13.415,0.073
13.420,0.071
13.425,0.067
13.430,0.065
13.435,0.065
13.440,0.065
13.445,0.063
13.450,0.057
13.455,0.054
13.460,0.053
13.465,0.051
13.470,0.048
13.475,0.042
13.480,0.037
13.485,0.034
13.490,0.031
13.495,0.025
13.500,0.019
13.505,0.016
13.510,0.012
13.515,0.011
13.520,0.012
13.525,0.006
13.530,0.002
13.535,-0.002
13.540,-0.009
13.545,-0.011
13.550,-0.010
13.555,-0.007
13.560,-0.004
13.565,-0.006
13.570,-0.012
13.575,-0.019
13.580,-0.022
13.585,-0.027
13.590,-0.037
13.595,-0.057
13.600,-0.079
13.605,-0.087
13.610,-0.084
13.615,-0.080
13.620,-0.077
13.625,-0.074
13.630,-0.076
13.635,-0.095
13.640,-0.112
13.645,-0.115
13.650,-0.110
13.655,-0.093
13.660,-0.071
13.665,-0.046
13.670,-0.027
13.675,-0.018
13.680,-0.002
13.685,0.012
13.690,0.012
13.695,0.015
13.700,0.023
13.705,0.033
13.710,0.037
13.715,0.031
13.720,0.033
13.725,0.038
13.730,0.031
13.735,0.023
13.740,0.017
13.745,0.010
13.750,0.005
13.755,0.006
13.760,0.030
13.765,0.086
13.770,0.100
13.775,-0.009
13.780,-0.231
13.785,-0.532
13.790,-0.876
13.795,-1.173
13.800,-1.216
13.805,-0.878
13.810,-0.366
13.815,0.058
13.820,0.317
13.825,0.437
13.830,0.483
13.835,0.454
13.840,0.363
13.845,0.293
13.850,0.251
13.855,0.213
13.860,0.193
13.865,0.174
13.870,0.152
13.875,0.144
13.880,0.142
13.885,0.133
13.890,0.121
13.895,0.109
13.900,0.094
13.905,0.078
13.910,0.070
13.915,0.068
13.920,0.064
13.925,0.057
13.930,0.051
13.935,0.040
13.940,0.032
13.945,0.022
13.950,0.007
13.955,-0.008
13.960,-0.019
13.965,-0.031
13.970,-0.045
13.975,-0.054
13.980,-0.064
13.985,-0.081
13.990,-0.100
13.995,-0.113
14.000,-0.128
14.005,-0.151
14.010,-0.178
14.015,-0.197
14.020,-0.209
14.025,-0.219
14.030,-0.227
14.035,-0.237
14.040,-0.248
14.045,-0.258
14.050,-0.261
14.055,-0.250
14.060,-0.233
14.065,-0.210
14.070,-0.185
14.075,-0.158
14.080,-0.125
14.085,-0.088
14.090,-0.049
14.095,-0.012
14.100,0.021
14.105,0.055
14.110,0.090
14.115,0.126
14.120,0.158
14.125,0.180
14.130,0.197
14.135,0.208
14.140,0.217
14.145,0.221
14.150,0.218
14.155,0.211
14.160,0.203
14.165,0.195
14.170,0.195
14.175,0.200
14.180,0.195
14.185,0.179
14.190,0.162
14.195,0.158
14.200,0.155
14.205,0.144
14.210,0.131
14.215,0.125
14.220,0.121
14.225,0.110
14.230,0.103
14.235,0.102
14.240,0.100
14.245,0.097
14.250,0.090
14.255,0.087
14.260,0.081
14.265,0.071
14.270,0.071
14.275,0.072
14.280,0.073
14.285,0.072
14.290,0.067
14.295,0.060
14.300,0.056
14.305,0.052
14.310,0.045
14.315,0.035
14.320,0.033
14.325,0.035
14.330,0.034
14.335,0.028
14.340,0.027
14.345,0.029
14.350,0.025
14.355,0.018
14.360,0.014
14.365,0.016
14.370,0.018
14.375,0.015
14.380,0.011
14.385,0.000
14.390,-0.009
14.395,-0.010
14.400,-0.009
14.405,-0.010
14.410,-0.014
14.415,-0.020
14.420,-0.025
14.425,-0.027
14.430,-0.031
14.435,-0.032
14.440,-0.034
14.445,-0.043
14.450,-0.061
14.455,-0.075
14.460,-0.084
14.465,-0.087
14.470,-0.083
14.475,-0.079
14.480,-0.081
14.485,-0.098
14.490,-0.118
14.495,-0.123
14.500,-0.116
14.505,-0.096
14.510,-0.071
14.515,-0.046
14.520,-0.024
14.525,-0.019
14.530,-0.015
14.535,-0.008
14.540,-0.004
14.545,0.012
14.550,0.029
14.555,0.035
14.560,0.034
14.565,0.031
14.570,0.027
14.575,0.027
14.580,0.025
14.585,0.018
14.590,0.007
14.595,0.003
14.600,0.008
14.605,0.016
14.610,0.030
14.615,0.073
14.620,0.111
14.625,0.048
14.630,-0.151
14.635,-0.442
14.640,-0.778
14.645,-1.099
14.650,-1.231
14.655,-0.979
14.660,-0.478
14.665,-0.049
14.670,0.210
14.675,0.371
14.680,0.476
14.685,0.499
14.690,0.426
14.695,0.334
14.700,0.274
14.705,0.224
14.710,0.185
14.715,0.172
14.720,0.155
14.725,0.134
14.730,0.133
14.735,0.130
14.740,0.107
14.745,0.090
14.750,0.090
14.755,0.085
14.760,0.074
14.765,0.067
14.770,0.054
14.775,0.040
14.780,0.032
14.785,0.020
14.790,0.011
14.795,0.009
14.800,0.005
14.805,0.002
14.810,-0.007
14.815,-0.027
14.820,-0.041
14.825,-0.052
14.830,-0.063
14.835,-0.074
14.840,-0.090
14.845,-0.114
14.850,-0.135
14.855,-0.151
14.860,-0.164
14.865,-0.177
14.870,-0.196
14.875,-0.215
14.880,-0.219
14.885,-0.219
14.890,-0.224
14.895,-0.234
14.900,-0.237
14.905,-0.227
14.910,-0.218
14.915,-0.207
14.920,-0.186
14.925,-0.153
14.930,-0.120
14.935,-0.095
14.940,-0.065
14.945,-0.023
14.950,0.010
14.955,0.038
14.960,0.072
14.965,0.105
14.970,0.137
14.975,0.161
14.980,0.176
14.985,0.192
14.990,0.199
14.995,0.200
15.000,0.206
15.005,0.206
15.010,0.201
15.015,0.199
15.020,0.189
15.025,0.175
15.030,0.167
15.035,0.160
15.040,0.155
15.045,0.147
15.050,0.136
15.055,0.124
15.060,0.110
15.065,0.106
15.070,0.108
15.075,0.104
15.080,0.102
15.085,0.094
15.090,0.085
15.095,0.083
15.100,0.080
15.105,0.078
15.110,0.078
15.115,0.080
15.120,0.080
15.125,0.075
15.130,0.067
15.135,0.058
15.140,0.059
15.145,0.064
15.150,0.061
15.155,0.062
15.160,0.059
15.165,0.048
15.170,0.045
15.175,0.051
15.180,0.049
15.185,0.043
15.190,0.040
15.195,0.035
15.200,0.032
15.205,0.026
15.210,0.019
15.215,0.020
15.220,0.016
15.225,0.008
15.230,0.009
15.235,0.007
15.240,0.004
15.245,0.002
15.250,-0.003
15.255,-0.007
15.260,-0.010
15.265,-0.011
15.270,-0.008
15.275,-0.012
15.280,-0.025
15.285,-0.043
15.290,-0.056
15.295,-0.062
15.300,-0.067
15.305,-0.071
15.310,-0.072
15.315,-0.065
15.320,-0.055
15.325,-0.060
15.330,-0.079
15.335,-0.097
15.340,-0.106
15.345,-0.103
15.350,-0.089
15.355,-0.064
15.360,-0.040
15.365,-0.027
15.370,-0.014
15.375,0.001
15.380,0.007
15.385,0.005
15.390,0.010
15.395,0.021
15.400,0.027
15.405,0.027
15.410,0.025
15.415,0.027
15.420,0.026
15.425,0.019
15.430,0.016
15.435,0.017
15.440,0.013
15.445,0.006
15.450,0.010
15.455,0.044
15.460,0.101
15.465,0.112
15.470,-0.007
15.475,-0.244
15.480,-0.556
15.485,-0.912
15.490,-1.203
15.495,-1.210
15.500,-0.837
15.505,-0.327
15.510,0.049
15.515,0.274
15.520,0.420
15.525,0.493
15.530,0.475
15.535,0.386
15.540,0.314
15.545,0.269
15.550,0.219
15.555,0.194
15.560,0.189
15.565,0.168
15.570,0.141
15.575,0.126
15.580,0.120
15.585,0.108
15.590,0.100
15.595,0.097
15.600,0.085
15.605,0.073
15.610,0.064
15.615,0.051
15.620,0.044
15.625,0.040
15.630,0.031
15.635,0.021
15.640,0.013
15.645,0.004
15.650,-0.008
15.655,-0.020
15.660,-0.032
15.665,-0.043
15.670,-0.053
15.675,-0.064
15.680,-0.081
15.685,-0.098
15.690,-0.116
15.695,-0.134
15.700,-0.155
15.705,-0.176
15.710,-0.193
15.715,-0.204
15.720,-0.214
15.725,-0.222
15.730,-0.229
15.735,-0.237
15.740,-0.242
15.745,-0.241
15.750,-0.233
15.755,-0.217
15.760,-0.197
15.765,-0.175
15.770,-0.146
15.775,-0.112
15.780,-0.079
15.785,-0.045
15.790,-0.008
15.795,0.029
15.800,0.064
15.805,0.095
15.810,0.123
15.815,0.150
15.820,0.170
15.825,0.184
15.830,0.195
15.835,0.203
15.840,0.207
15.845,0.206
15.850,0.202
15.855,0.196
15.860,0.189
15.865,0.181
15.870,0.174
15.875,0.170
15.880,0.166
15.885,0.155
15.890,0.145
15.895,0.140
15.900,0.132
15.905,0.122
15.910,0.111
15.915,0.101
15.920,0.097
15.925,0.098
15.930,0.097
15.935,0.093
15.940,0.084
15.945,0.074
15.950,0.068
15.955,0.068
15.960,0.063
15.965,0.061
15.970,0.064
15.975,0.061
15.980,0.061
15.985,0.061
15.990,0.063
15.995,0.064
16.000,0.058
16.005,0.054
16.010,0.053
16.015,0.053
16.020,0.046
16.025,0.034
16.030,0.030
16.035,0.031
16.040,0.031
16.045,0.030
16.050,0.024
16.055,0.019
16.060,0.014
16.065,0.010
16.070,0.005
16.075,0.000
16.080,0.000
16.085,-0.003
16.090,-0.009
16.095,-0.009
16.100,-0.008
16.105,-0.009
16.110,-0.010
16.115,-0.016
16.120,-0.022
16.125,-0.029
16.130,-0.046
16.135,-0.065
16.140,-0.075
16.145,-0.078
16.150,-0.076
16.155,-0.070
16.160,-0.065
16.165,-0.064
16.170,-0.077
16.175,-0.100
16.180,-0.112
16.185,-0.111
16.190,-0.094
16.195,-0.069
16.200,-0.049
16.205,-0.031
16.210,-0.018
16.215,-0.004
16.220,0.009
16.225,0.009
16.230,0.018
16.235,0.033
16.240,0.042
16.245,0.044
16.250,0.037
16.255,0.033
16.260,0.030
16.265,0.021
16.270,0.017
16.275,0.016
16.280,0.012
16.285,0.008
16.290,0.011
16.295,0.033
16.300,0.084
16.305,0.118
16.310,0.042
16.315,-0.160
16.320,-0.451
16.325,-0.793
16.330,-1.121
16.335,-1.262
16.340,-1.016
16.345,-0.516
16.350,-0.067
16.355,0.231
16.360,0.398
16.365,0.481
16.370,0.490
16.375,0.409
16.380,0.324
16.385,0.280
16.390,0.236
16.395,0.206
16.400,0.196
16.405,0.174
16.410,0.152
16.415,0.143
16.420,0.131
16.425,0.113
16.430,0.103
16.435,0.098
16.440,0.090
16.445,0.082
16.450,0.072
16.455,0.061
16.460,0.051
16.465,0.044
16.470,0.037
16.475,0.027
16.480,0.019
16.485,0.009
16.490,-0.003
16.495,-0.014
16.500,-0.026
16.505,-0.037
16.510,-0.046
16.515,-0.059
16.520,-0.075
16.525,-0.094
16.530,-0.113
16.535,-0.133
16.540,-0.152
16.545,-0.169
16.550,-0.189
16.555,-0.207
16.560,-0.223
16.565,-0.233
16.570,-0.235
16.575,-0.239
16.580,-0.243
16.585,-0.240
16.590,-0.233
16.595,-0.223
16.600,-0.209
16.605,-0.190
16.610,-0.169
16.615,-0.140
16.620,-0.106
16.625,-0.067
16.630,-0.027
16.635,0.010
16.640,0.048
16.645,0.087
16.650,0.116
16.655,0.140
16.660,0.164
16.665,0.184
16.670,0.200
16.675,0.208
16.680,0.214
16.685,0.217
16.690,0.214
16.695,0.210
16.700,0.204
16.705,0.196
16.710,0.187
16.715,0.178
16.720,0.173
16.725,0.169
16.730,0.162
16.735,0.152
16.740,0.140
16.745,0.130
16.750,0.118
16.755,0.112
16.760,0.111
16.765,0.107
16.770,0.102
16.775,0.092
16.780,0.084
16.785,0.081
16.790,0.077
16.795,0.076
16.800,0.074
16.805,0.073
16.810,0.072
16.815,0.069
16.820,0.067
16.825,0.065
16.830,0.062
16.835,0.057
16.840,0.053
16.845,0.049
16.850,0.045
16.855,0.045
16.860,0.043
16.865,0.037
16.870,0.035
16.875,0.031
16.880,0.028
16.885,0.023
16.890,0.018
16.895,0.017
16.900,0.015
16.905,0.011
16.910,0.008
16.915,0.005
16.920,0.004
16.925,0.001
16.930,-0.002
16.935,-0.007
16.940,-0.011
16.945,-0.010
16.950,-0.014
16.955,-0.020
16.960,-0.027
16.965,-0.041
16.970,-0.059
16.975,-0.074
16.980,-0.082
16.985,-0.081
16.990,-0.076
16.995,-0.073
17.000,-0.066
17.005,-0.074
17.010,-0.099
17.015,-0.112
17.020,-0.110
17.025,-0.100
17.030,-0.079
17.035,-0.055
17.040,-0.034
17.045,-0.019
17.050,-0.011
17.055,0.000
17.060,0.005
17.065,0.009
17.070,0.022
17.075,0.037
17.080,0.042
17.085,0.034
17.090,0.027
17.095,0.027
17.100,0.024
17.105,0.019
17.110,0.015
17.115,0.011
17.120,0.007
17.125,0.007
17.130,0.025
17.135,0.070
17.140,0.111
17.145,0.062
17.150,-0.116
17.155,-0.392
17.160,-0.724
17.165,-1.061
17.170,-1.255
17.175,-1.088
17.180,-0.612
17.185,-0.125
17.190,0.215
17.195,0.395
17.200,0.473
17.205,0.487
17.210,0.413
17.215,0.321
17.220,0.271
17.225,0.228
17.230,0.196
17.235,0.182
17.240,0.162
17.245,0.141
17.250,0.130
17.255,0.121
17.260,0.109
17.265,0.101
17.270,0.094
17.275,0.081
17.280,0.072
17.285,0.067
17.290,0.057
17.295,0.049
17.300,0.043
17.305,0.035
17.310,0.026
17.315,0.018
17.320,0.014
17.325,0.005
17.330,-0.008
17.335,-0.021
17.340,-0.034
17.345,-0.048
17.350,-0.064
17.355,-0.077
17.360,-0.090
17.365,-0.107
17.370,-0.127
17.375,-0.147
17.380,-0.164
17.385,-0.183
17.390,-0.205
17.395,-0.222
17.400,-0.234
17.405,-0.238
17.410,-0.241
17.415,-0.242
17.420,-0.237
17.425,-0.228
17.430,-0.219
17.435,-0.205
17.440,-0.187
17.445,-0.165
17.450,-0.141
17.455,-0.111
17.460,-0.074
17.465,-0.033
17.470,0.006
17.475,0.042
17.480,0.081
17.485,0.113
17.490,0.135
17.495,0.156
17.500,0.177
17.505,0.194
17.510,0.203
17.515,0.206
17.520,0.207
17.525,0.207
17.530,0.206
17.535,0.204
17.540,0.199
17.545,0.193
17.550,0.182
17.555,0.171
17.560,0.162
17.565,0.153
17.570,0.148
17.575,0.145
17.580,0.138
17.585,0.130
17.590,0.126
17.595,0.120
17.600,0.112
17.605,0.104
17.610,0.093
17.615,0.084
17.620,0.081
17.625,0.082
17.630,0.086
17.635,0.085
17.640,0.081
17.645,0.077
17.650,0.074
17.655,0.073
17.660,0.069
17.665,0.065
17.670,0.060
17.675,0.056
17.680,0.052
17.685,0.048
17.690,0.045
17.695,0.042
17.700,0.041
17.705,0.040
17.710,0.036
17.715,0.035
17.720,0.032
17.725,0.025
17.730,0.022
17.735,0.016
17.740,0.008
17.745,0.005
17.750,0.004
17.755,0.004
17.760,-0.002
17.765,-0.011
17.770,-0.016
17.775,-0.013
17.780,-0.010
17.785,-0.013
17.790,-0.019
17.795,-0.034
17.800,-0.058
17.805,-0.076
17.810,-0.086
17.815,-0.086
17.820,-0.076
17.825,-0.069
17.830,-0.064
17.835,-0.072
17.840,-0.096
17.845,-0.116
17.850,-0.120
17.855,-0.108
17.860,-0.087
17.865,-0.066
17.870,-0.042
17.875,-0.020
17.880,-0.003
17.885,0.009
17.890,0.008
17.895,0.001
17.900,0.007
17.905,0.026
17.910,0.039
17.915,0.036
17.920,0.024
17.925,0.018
17.930,0.018
17.935,0.016
17.940,0.015
17.945,0.015
17.950,0.009
17.955,0.003
17.960,0.011
17.965,0.048
17.970,0.101
17.975,0.093
17.980,-0.040
17.985,-0.276
17.990,-0.583
17.995,-0.927
18.000,-1.197
18.005,-1.157
18.010,-0.754
18.015,-0.266
18.020,0.089
18.025,0.300
18.030,0.428
18.035,0.488
18.040,0.451
18.045,0.357
18.050,0.286
18.055,0.239
18.060,0.198
18.065,0.183
18.070,0.173
18.075,0.148
18.080,0.130
18.085,0.126
18.090,0.114
18.095,0.100
18.100,0.089
18.105,0.074
18.110,0.061
18.115,0.056
18.120,0.057
18.125,0.050
18.130,0.040
18.135,0.035
18.140,0.027
18.145,0.018
18.150,0.011
18.155,0.000
18.160,-0.015
18.165,-0.024
18.170,-0.032
18.175,-0.039
18.180,-0.052
18.185,-0.076
18.190,-0.097
18.195,-0.111
18.200,-0.125
18.205,-0.139
18.210,-0.160
18.215,-0.184
18.220,-0.199
18.225,-0.205
18.230,-0.209
18.235,-0.214
18.240,-0.219
18.245,-0.224
18.250,-0.223
18.255,-0.219
18.260,-0.214
18.265,-0.206
18.270,-0.191
18.275,-0.167
18.280,-0.140
18.285,-0.114
18.290,-0.089
18.295,-0.054
18.300,-0.012
18.305,0.026
18.310,0.060
18.315,0.094
18.320,0.123
18.325,0.148
18.330,0.172
18.335,0.188
18.340,0.195
18.345,0.199
18.350,0.204
18.355,0.208
18.360,0.205
18.365,0.203
18.370,0.204
18.375,0.195
18.380,0.178
18.385,0.163
18.390,0.156
18.395,0.150
18.400,0.141
18.405,0.133
18.410,0.127
18.415,0.122
18.420,0.118
18.425,0.112
18.430,0.098
18.435,0.086
18.440,0.089
18.445,0.095
18.450,0.093
18.455,0.087
18.460,0.079
18.465,0.078
18.470,0.079
18.475,0.075
18.480,0.073
18.485,0.069
18.490,0.064
18.495,0.062
18.500,0.061
18.505,0.063
18.510,0.061
18.515,0.054
18.520,0.048
18.525,0.045
18.530,0.044
18.535,0.040
18.540,0.036
18.545,0.035
18.550,0.033
18.555,0.032
18.560,0.027
18.565,0.016
18.570,0.008
18.575,0.004
18.580,0.005
18.585,0.004
18.590,0.004
18.595,0.004
18.600,0.000
18.605,-0.002
18.610,-0.006
18.615,-0.014
18.620,-0.025
18.625,-0.041
18.630,-0.051
18.635,-0.060
18.640,-0.067
18.645,-0.062
18.650,-0.055
18.655,-0.057
18.660,-0.072
18.665,-0.097
18.670,-0.111
18.675,-0.112
18.680,-0.101
18.685,-0.076
18.690,-0.053
18.695,-0.038
18.700,-0.032
18.705,-0.028
18.710,-0.016
18.715,-0.004
18.720,0.012
18.725,0.028
18.730,0.035
18.735,0.034
18.740,0.032
18.745,0.031
18.750,0.029
18.755,0.026
18.760,0.025
18.765,0.019
18.770,0.007
18.775,-0.007
18.780,-0.012
18.785,0.001
18.790,0.041
18.795,0.095
18.800,0.084
18.805,-0.053
18.810,-0.296
18.815,-0.613
18.820,-0.966
18.825,-1.221
18.830,-1.145
18.835,-0.709
18.840,-0.220
18.845,0.107
18.850,0.303
18.855,0.425
18.860,0.480
18.865,0.454
18.870,0.379
18.875,0.316
18.880,0.264
18.885,0.206
18.890,0.182
18.895,0.174
18.900,0.146
18.905,0.132
18.910,0.133
18.915,0.121
18.920,0.100
18.925,0.086
18.930,0.077
18.935,0.065
18.940,0.062
18.945,0.062
18.950,0.046
18.955,0.030
18.960,0.023
18.965,0.019
18.970,0.016
18.975,0.007
18.980,-0.005
18.985,-0.017
18.990,-0.025
18.995,-0.030
19.000,-0.038
19.005,-0.050
19.010,-0.069
19.015,-0.095
19.020,-0.119
19.025,-0.132
19.030,-0.145
19.035,-0.165
19.040,-0.182
19.045,-0.197
19.050,-0.209
19.055,-0.221
19.060,-0.231
19.065,-0.233
19.070,-0.232
19.075,-0.229
19.080,-0.225
19.085,-0.214
19.090,-0.198
19.095,-0.184
19.100,-0.165
19.105,-0.136
19.110,-0.104
19.115,-0.073
19.120,-0.038
19.125,-0.007
19.130,0.027
19.135,0.063
19.140,0.094
19.145,0.123
19.150,0.147
19.155,0.168
19.160,0.184
19.165,0.196
19.170,0.196
19.175,0.193
19.180,0.198
19.185,0.197
19.190,0.191
19.195,0.184
19.200,0.171
19.205,0.166
19.210,0.161
19.215,0.153
19.220,0.148
19.225,0.143
19.230,0.137
19.235,0.129
19.240,0.116
19.245,0.103
19.250,0.092
19.255,0.088
19.260,0.086
19.265,0.084
19.270,0.086
19.275,0.084
19.280,0.084
19.285,0.078
19.290,0.069
19.295,0.067
19.300,0.066
19.305,0.067
19.310,0.071
19.315,0.068
19.320,0.061
19.325,0.056
19.330,0.060
19.335,0.064
19.340,0.057
19.345,0.047
19.350,0.038
19.355,0.034
19.360,0.032
19.365,0.033
19.370,0.036
19.375,0.032
19.380,0.021
19.385,0.012
19.390,0.010
19.395,0.011
19.400,0.012
19.405,0.010
19.410,0.006
19.415,0.001
19.420,-0.006
19.425,-0.008
19.430,-0.007
19.435,-0.012
19.440,-0.017
19.445,-0.027
19.450,-0.045
19.455,-0.056
19.460,-0.063
19.465,-0.065
19.470,-0.058
19.475,-0.055
19.480,-0.055
19.485,-0.065
19.490,-0.085
19.495,-0.098
19.500,-0.102
19.505,-0.095
19.510,-0.077
19.515,-0.053
19.520,-0.027
19.525,-0.013
19.530,-0.003
19.535,0.005
19.540,0.003
19.545,0.010
19.550,0.027
19.555,0.038
19.560,0.040
19.565,0.033
19.570,0.029
19.575,0.034
19.580,0.033
19.585,0.024
19.590,0.020
19.595,0.016
19.600,0.012
19.605,0.011
19.610,0.026
19.615,0.075
19.620,0.121
19.625,0.069
19.630,-0.121
19.635,-0.411
19.640,-0.748
19.645,-1.078
19.650,-1.246
19.655,-1.041
19.660,-0.557
19.665,-0.108
19.670,0.183
19.675,0.360
19.680,0.465
19.685,0.495
19.690,0.430
19.695,0.341
19.700,0.290
19.705,0.245
19.710,0.206
19.715,0.193
19.720,0.177
19.725,0.149
19.730,0.137
19.735,0.131
19.740,0.112
19.745,0.100
19.750,0.101
19.755,0.097
19.760,0.085
19.765,0.075
19.770,0.063
19.775,0.051
19.780,0.042
19.785,0.031
19.790,0.023
19.795,0.016
19.800,0.005
19.805,-0.005
19.810,-0.014
19.815,-0.026
19.820,-0.036
19.825,-0.046
19.830,-0.055
19.835,-0.069
19.840,-0.088
19.845,-0.107
19.850,-0.125
19.855,-0.147
19.860,-0.170
19.865,-0.187
19.870,-0.196
19.875,-0.208
19.880,-0.224
19.885,-0.236
19.890,-0.240
19.895,-0.238
19.900,-0.235
19.905,-0.230
19.910,-0.221
19.915,-0.205
19.920,-0.185
19.925,-0.164
19.930,-0.139
19.935,-0.106
19.940,-0.067
19.945,-0.029
19.950,0.007
19.955,0.044
19.960,0.079
19.965,0.109
19.970,0.133
19.975,0.156
19.980,0.180
19.985,0.198
19.990,0.210
19.995,0.214
20.000,0.210
20.005,0.206
20.010,0.203
20.015,0.197
20.020,0.191
20.025,0.185
20.030,0.178
20.035,0.171
20.040,0.162
20.045,0.151
20.050,0.140
20.055,0.132
20.060,0.125
20.065,0.115
20.070,0.104
20.075,0.095
20.080,0.091
20.085,0.088
20.090,0.082
20.095,0.078
20.100,0.077
20.105,0.077
20.110,0.074
20.115,0.071
20.120,0.069
20.125,0.067
20.130,0.066
20.135,0.062
20.140,0.059
20.145,0.057
20.150,0.056
20.155,0.053
20.160,0.051
20.165,0.050
20.170,0.047
20.175,0.043
20.180,0.041
20.185,0.035
20.190,0.030
20.195,0.026
20.200,0.022
20.205,0.021
20.210,0.019
20.215,0.016
20.220,0.012
20.225,0.004
20.230,-0.002
20.235,-0.006
20.240,-0.006
20.245,-0.003
20.250,-0.005
20.255,-0.009
20.260,-0.014
20.265,-0.019
20.270,-0.022
20.275,-0.029
20.280,-0.034
20.285,-0.044
20.290,-0.061
20.295,-0.072
20.300,-0.081
20.305,-0.081
20.310,-0.075
20.315,-0.071
20.320,-0.070
20.325,-0.084
20.330,-0.105
20.335,-0.114
20.340,-0.111
20.345,-0.099
20.350,-0.080
20.355,-0.055
20.360,-0.032
20.365,-0.018
20.370,-0.011
20.375,-0.006
20.380,-0.003
20.385,0.003
20.390,0.019
20.395,0.034
20.400,0.036
20.405,0.030
20.410,0.026
20.415,0.026
20.420,0.024
20.425,0.018
20.430,0.014
20.435,0.010
20.440,0.006
20.445,0.007
20.450,0.021
20.455,0.071
20.460,0.115
20.465,0.063
20.470,-0.118
20.475,-0.399
20.480,-0.737
20.485,-1.079
20.490,-1.270
20.495,-1.088
20.500,-0.604
20.505,-0.121
20.510,0.218
20.515,0.398
20.520,0.475
20.525,0.484
20.530,0.405
20.535,0.313
20.540,0.267
20.545,0.228
20.550,0.198
20.555,0.187
20.560,0.166
20.565,0.145
20.570,0.140
20.575,0.129
20.580,0.112
20.585,0.102
20.590,0.097
20.595,0.089
20.600,0.076
20.605,0.065
20.610,0.056
20.615,0.048
20.620,0.043
20.625,0.034
20.630,0.022
20.635,0.013
20.640,0.005
20.645,-0.002
20.650,-0.010
20.655,-0.020
20.660,-0.032
20.665,-0.045
20.670,-0.059
20.675,-0.074
20.680,-0.089
20.685,-0.108
20.690,-0.128
20.695,-0.147
20.700,-0.170
20.705,-0.189
20.710,-0.203
20.715,-0.217
20.720,-0.230
20.725,-0.241
20.730,-0.246
20.735,-0.247
20.740,-0.243
20.745,-0.236
20.750,-0.230
20.755,-0.220
20.760,-0.204
20.765,-0.180
20.770,-0.148
20.775,-0.112
20.780,-0.077
20.785,-0.040
20.790,0.000
20.795,0.037
20.800,0.071
20.805,0.105
20.810,0.133
20.815,0.157
20.820,0.179
20.825,0.194
20.830,0.205
20.835,0.211
20.840,0.210
20.845,0.209
20.850,0.206
20.855,0.202
20.860,0.195
20.865,0.187
20.870,0.182
20.875,0.174
20.880,0.166
20.885,0.158
20.890,0.150
20.895,0.143
20.900,0.136
20.905,0.130
20.910,0.124
20.915,0.117
20.920,0.109
20.925,0.106
20.930,0.105
20.935,0.096
20.940,0.085
20.945,0.082
20.950,0.082
20.955,0.082
20.960,0.080
20.965,0.076
20.970,0.074
20.975,0.071
20.980,0.066
20.985,0.063
20.990,0.060
20.995,0.057
21.000,0.055
21.005,0.053
21.010,0.048
21.015,0.045
21.020,0.041
21.025,0.035
21.030,0.033
21.035,0.029
21.040,0.024
21.045,0.021
21.050,0.017
21.055,0.014
21.060,0.011
21.065,0.008
21.070,0.005
21.075,0.001
21.080,-0.003
21.085,-0.006
21.090,-0.007
21.095,-0.008
21.100,-0.011
21.105,-0.012
21.110,-0.016
21.115,-0.019
21.120,-0.018
21.125,-0.020
21.130,-0.022
21.135,-0.022
21.140,-0.026
21.145,-0.037
21.150,-0.057
21.155,-0.075
21.160,-0.083
21.165,-0.086
21.170,-0.084
21.175,-0.081
21.180,-0.074
21.185,-0.072
21.190,-0.089
21.195,-0.109
21.200,-0.115
21.205,-0.108
21.210,-0.090
21.215,-0.067
21.220,-0.043
21.225,-0.022
21.230,-0.009
21.235,0.001
21.240,0.008
21.245,0.009
21.250,0.016
21.255,0.032
21.260,0.043
21.265,0.043
21.270,0.036
21.275,0.034
21.280,0.034
21.285,0.028
21.290,0.025
21.295,0.025
21.300,0.019
21.305,0.013
21.310,0.014
21.315,0.031
21.320,0.080
21.325,0.117
21.330,0.051
21.335,-0.138
21.340,-0.418
21.345,-0.750
21.350,-1.074
21.355,-1.220
21.360,-0.997
21.365,-0.516
21.370,-0.059
21.375,0.254
21.380,0.416
21.385,0.486
21.390,0.485
21.395,0.399
21.400,0.311
21.405,0.263
21.410,0.221
21.415,0.196
21.420,0.187
21.425,0.166
21.430,0.146
21.435,0.135
21.440,0.123
21.445,0.110
21.450,0.102
21.455,0.094
21.460,0.082
21.465,0.076
21.470,0.070
21.475,0.060
21.480,0.050
21.485,0.042
21.490,0.035
21.495,0.028
21.500,0.021
21.505,0.010
21.510,-0.003
21.515,-0.014
21.520,-0.025
21.525,-0.036
21.530,-0.047
21.535,-0.060
21.540,-0.072
21.545,-0.088
21.550,-0.106
21.555,-0.122
21.560,-0.142
21.565,-0.165
21.570,-0.185
21.575,-0.202
21.580,-0.216
21.585,-0.229
21.590,-0.238
21.595,-0.239
21.600,-0.237
21.605,-0.232
21.610,-0.228
21.615,-0.220
21.620,-0.206
21.625,-0.190
21.630,-0.169
21.635,-0.143
21.640,-0.111
21.645,-0.073
21.650,-0.035
21.655,0.002
21.660,0.039
21.665,0.074
21.670,0.107
21.675,0.136
21.680,0.160
21.685,0.177
21.690,0.193
21.695,0.201
21.700,0.202
21.705,0.206
21.710,0.205
21.715,0.201
21.720,0.197
21.725,0.191
21.730,0.187
21.735,0.181
21.740,0.173
21.745,0.164
21.750,0.153
21.755,0.145
21.760,0.138
21.765,0.135
21.770,0.127
21.775,0.118
21.780,0.115
21.785,0.108
21.790,0.098
21.795,0.094
21.800,0.090
21.805,0.089
21.810,0.085
21.815,0.077
21.820,0.077
21.825,0.078
21.830,0.076
21.835,0.072
21.840,0.066
21.845,0.063
21.850,0.063
21.855,0.066
21.860,0.067
21.865,0.065
21.870,0.059
21.875,0.052
21.880,0.045
21.885,0.039
21.890,0.037
21.895,0.039
21.900,0.040
21.905,0.036
21.910,0.028
21.915,0.020
21.920,0.015
21.925,0.010
21.930,0.008
21.935,0.005
21.940,0.002
21.945,0.004
21.950,0.005
21.955,0.002
21.960,-0.004
21.965,-0.008
21.970,-0.011
21.975,-0.016
21.980,-0.017
21.985,-0.015
21.990,-0.016
21.995,-0.019
22.000,-0.027
22.005,-0.030
22.010,-0.032
22.015,-0.043
22.020,-0.058
22.025,-0.076
22.030,-0.088
22.035,-0.092
22.040,-0.086
22.045,-0.076
22.050,-0.071
22.055,-0.076
22.060,-0.100
22.065,-0.123
22.070,-0.129
22.075,-0.121
22.080,-0.101
22.085,-0.076
22.090,-0.046
22.095,-0.019
22.100,-0.006
22.105,0.005
22.110,0.012
22.115,0.015
22.120,0.023
22.125,0.031
22.130,0.037
22.135,0.036
22.140,0.030
22.145,0.028
22.150,0.026
22.155,0.022
22.160,0.018
22.165,0.013
22.170,0.007
22.175,0.004
22.180,0.008
22.185,0.027
22.190,0.075
22.195,0.110
22.200,0.048
22.205,-0.132
22.210,-0.397
22.215,-0.714
22.220,-1.040
22.225,-1.207
22.230,-0.997
22.235,-0.522
22.240,-0.078
22.245,0.218
22.250,0.378
22.255,0.463
22.260,0.480
22.265,0.409
22.270,0.322
22.275,0.271
22.280,0.226
22.285,0.192
22.290,0.181
22.295,0.157
22.300,0.131
22.305,0.135
22.310,0.134
22.315,0.114
22.320,0.099
22.325,0.087
22.330,0.074
22.335,0.062
22.340,0.055
22.345,0.051
22.350,0.045
22.355,0.037
22.360,0.024
22.365,0.012
22.370,0.007
22.375,0.004
22.380,-0.003
22.385,-0.015
22.390,-0.030
22.395,-0.043
22.400,-0.054
22.405,-0.069
22.410,-0.085
22.415,-0.095
22.420,-0.102
22.425,-0.116
22.430,-0.136
22.435,-0.158
22.440,-0.177
22.445,-0.193
22.450,-0.211
22.455,-0.220
22.460,-0.221
22.465,-0.223
22.470,-0.226
22.475,-0.227
22.480,-0.222
22.485,-0.211
22.490,-0.196
22.495,-0.181
22.500,-0.163
22.505,-0.138
22.510,-0.106
22.515,-0.066
22.520,-0.031
22.525,-0.001
22.530,0.030
22.535,0.063
22.540,0.100
22.545,0.132
22.550,0.154
22.555,0.172
22.560,0.184
22.565,0.195
22.570,0.200
22.575,0.200
22.580,0.201
22.585,0.200
22.590,0.195
22.595,0.191
22.600,0.183
22.605,0.173
22.610,0.164
22.615,0.155
22.620,0.142
22.625,0.134
22.630,0.129
22.635,0.126
22.640,0.121
22.645,0.108
22.650,0.097
22.655,0.095
22.660,0.092
22.665,0.089
22.670,0.086
22.675,0.080
22.680,0.080
22.685,0.081
22.690,0.078
22.695,0.079
22.700,0.078
22.705,0.076
22.710,0.072
22.715,0.065
22.720,0.064
22.725,0.066
22.730,0.065
22.735,0.060
22.740,0.057
22.745,0.056
22.750,0.056
22.755,0.053
22.760,0.044
22.765,0.039
22.770,0.036
22.775,0.032
22.780,0.027
22.785,0.022
22.790,0.020
22.795,0.016
22.800,0.012
22.805,0.008
22.810,0.008
22.815,0.011
22.820,0.002
22.825,-0.006
22.830,-0.003
22.835,-0.004
22.840,-0.007
22.845,-0.011
22.850,-0.015
22.855,-0.013
22.860,-0.015
22.865,-0.023
22.870,-0.032
22.875,-0.048
22.880,-0.070
22.885,-0.083
22.890,-0.079
22.895,-0.067
22.900,-0.063
22.905,-0.066
22.910,-0.069
22.915,-0.082
22.920,-0.103
22.925,-0.115
22.930,-0.115
22.935,-0.098
22.940,-0.080
22.945,-0.067
22.950,-0.051
22.955,-0.033
22.960,-0.013
22.965,0.000
22.970,0.000
22.975,0.007
22.980,0.022
22.985,0.035
22.990,0.037
22.995,0.028
23.000,0.021
23.005,0.019
23.010,0.015
23.015,0.014
23.020,0.017
23.025,0.016
23.030,0.012
23.035,0.006
23.040,0.010
23.045,0.043
23.050,0.099
23.055,0.102
23.060,-0.030
23.065,-0.282
23.070,-0.605
23.075,-0.961
23.080,-1.228
23.085,-1.171
23.090,-0.742
23.095,-0.239
23.100,0.093
23.105,0.290
23.110,0.429
23.115,0.499
23.120,0.472
23.125,0.383
23.130,0.312
23.135,0.261
23.140,0.206
23.145,0.189
23.150,0.196
23.155,0.170
23.160,0.137
23.165,0.130
23.170,0.123
23.175,0.109
23.180,0.097
23.185,0.085
23.190,0.078
23.195,0.077
23.200,0.067
23.205,0.049
23.210,0.031
23.215,0.023
23.220,0.021
23.225,0.016
23.230,0.004
23.235,-0.006
23.240,-0.013
23.245,-0.021
23.250,-0.030
23.255,-0.040
23.260,-0.053
23.265,-0.063
23.270,-0.081
23.275,-0.106
23.280,-0.121
23.285,-0.135
23.290,-0.154
23.295,-0.173
23.300,-0.190
23.305,-0.201
23.310,-0.207
23.315,-0.219
23.320,-0.232
23.325,-0.236
23.330,-0.227
23.335,-0.211
23.340,-0.200
23.345,-0.190
23.350,-0.178
23.355,-0.165
23.360,-0.143
23.365,-0.112
23.370,-0.079
23.375,-0.045
23.380,-0.010
23.385,0.025
23.390,0.057
23.395,0.084
23.400,0.109
23.405,0.136
23.410,0.153
23.415,0.166
23.420,0.186
23.425,0.206
23.430,0.210
23.435,0.204
23.440,0.198
23.445,0.192
23.450,0.180
23.455,0.169
23.460,0.166
23.465,0.158
23.470,0.147
23.475,0.140
23.480,0.140
23.485,0.137
23.490,0.129
23.495,0.120
23.500,0.108
23.505,0.100
23.510,0.094
23.515,0.089
23.520,0.085
23.525,0.079
23.530,0.072
23.535,0.067
23.540,0.071
23.545,0.079
23.550,0.078
23.555,0.071
23.560,0.072
23.565,0.081
23.570,0.079
23.575,0.068
23.580,0.063
23.585,0.063
23.590,0.066
23.595,0.063
23.600,0.053
23.605,0.046
23.610,0.038
23.615,0.031
23.620,0.032
23.625,0.032
23.630,0.032
23.635,0.031
23.640,0.027
23.645,0.025
23.650,0.018
23.655,0.009
23.660,0.008
23.665,0.013
23.670,0.017
23.675,0.014
23.680,0.004
23.685,-0.008
23.690,-0.009
23.695,-0.006
23.700,0.000
23.705,0.001
23.710,-0.006
23.715,-0.012
23.720,-0.020
23.725,-0.035
23.730,-0.043
23.735,-0.049
23.740,-0.064
23.745,-0.073
23.750,-0.074
23.755,-0.065
23.760,-0.057
23.765,-0.062
23.770,-0.066
23.775,-0.079
23.780,-0.100
23.785,-0.108
23.790,-0.110
23.795,-0.102
23.800,-0.082
23.805,-0.056
23.810,-0.029
23.815,-0.020
23.820,-0.013
23.825,-0.003
23.830,0.000
23.835,0.003
23.840,0.012
23.845,0.022
23.850,0.030
23.855,0.030
23.860,0.024
23.865,0.023
23.870,0.025
23.875,0.023
23.880,0.019
23.885,0.011
23.890,0.002
23.895,0.004
23.900,0.024
23.905,0.077
23.910,0.124
23.915,0.062
23.920,-0.137
23.925,-0.429
23.930,-0.769
23.935,-1.093
23.940,-1.240
23.945,-1.010
23.950,-0.510
23.955,-0.067
23.960,0.201
23.965,0.364
23.970,0.468
23.975,0.500
23.980,0.439
23.985,0.347
23.990,0.290
23.995,0.240
24.000,0.198
24.005,0.188
24.010,0.173
24.015,0.143
24.020,0.130
24.025,0.126
24.030,0.111
24.035,0.096
24.040,0.088
24.045,0.077
24.050,0.062
24.055,0.054
24.060,0.048
24.065,0.045
24.070,0.048
24.075,0.044
24.080,0.033
24.085,0.021
24.090,0.011
24.095,-0.003
24.100,-0.019
24.105,-0.034
24.110,-0.044
24.115,-0.048
24.120,-0.060
24.125,-0.075
24.130,-0.089
24.135,-0.110
24.140,-0.130
24.145,-0.152
24.150,-0.169
24.155,-0.180
24.160,-0.196
24.165,-0.215
24.170,-0.227
24.175,-0.227
24.180,-0.223
24.185,-0.227
24.190,-0.226
24.195,-0.219
24.200,-0.213
24.205,-0.202
24.210,-0.182
24.215,-0.156
24.220,-0.125
24.225,-0.094
24.230,-0.061
24.235,-0.029
24.240,0.003
24.245,0.036
24.250,0.069
24.255,0.104
24.260,0.134
24.265,0.156
24.270,0.174
24.275,0.185
24.280,0.193
24.285,0.198
24.290,0.198
24.295,0.198
24.300,0.200
24.305,0.200
24.310,0.192
24.315,0.181
24.320,0.172
24.325,0.165
24.330,0.158
24.335,0.150
24.340,0.143
24.345,0.135
24.350,0.125
24.355,0.119
24.360,0.115
24.365,0.107
24.370,0.098
24.375,0.091
24.380,0.088
24.385,0.082
24.390,0.076
24.395,0.076
24.400,0.081
24.405,0.083
24.410,0.077
24.415,0.070
24.420,0.065
24.425,0.067
24.430,0.072
24.435,0.072
24.440,0.069
24.445,0.063
24.450,0.056
24.455,0.054
24.460,0.053
24.465,0.054
24.470,0.054
24.475,0.046
24.480,0.040
24.485,0.034
24.490,0.027
24.495,0.024
24.500,0.021
24.505,0.018
24.510,0.019
24.515,0.021
24.520,0.019
24.525,0.014
24.530,0.009
24.535,0.001
24.540,-0.006
24.545,-0.006
24.550,-0.004
24.555,-0.001
24.560,-0.004
24.565,-0.013
24.570,-0.020
24.575,-0.031
24.580,-0.051
24.585,-0.069
24.590,-0.080
24.595,-0.079
24.600,-0.069
24.605,-0.062
24.610,-0.061
24.615,-0.071
24.620,-0.088
24.625,-0.101
24.630,-0.106
24.635,-0.099
24.640,-0.081
24.645,-0.058
24.650,-0.036
24.655,-0.021
24.660,-0.009
24.665,0.003
24.670,0.006
24.675,0.008
24.680,0.017
24.685,0.026
24.690,0.035
24.695,0.036
24.700,0.028
24.705,0.026
24.710,0.025
24.715,0.019
24.720,0.018
24.725,0.015
24.730,0.013
24.735,0.013
24.740,0.025
24.745,0.071
24.750,0.120
24.755,0.075
24.760,-0.108
24.765,-0.393
24.770,-0.736
24.775,-1.081
24.780,-1.278
24.785,-1.105
24.790,-0.621
24.795,-0.140
24.800,0.184
24.805,0.369
24.810,0.465
24.815,0.492
24.820,0.426
24.825,0.335
24.830,0.284
24.835,0.240
24.840,0.204
24.845,0.195
24.850,0.180
24.855,0.157
24.860,0.145
24.865,0.134
24.870,0.118
24.875,0.104
24.880,0.098
24.885,0.091
24.890,0.080
24.895,0.072
24.900,0.061
24.905,0.048
24.910,0.039
24.915,0.035
24.920,0.027
24.925,0.017
24.930,0.008
24.935,-0.003
24.940,-0.008
24.945,-0.015
24.950,-0.028
24.955,-0.040
24.960,-0.056
24.965,-0.076
24.970,-0.096
24.975,-0.114
24.980,-0.128
24.985,-0.147
24.990,-0.171
24.995,-0.190
25.000,-0.206
25.005,-0.220
25.010,-0.235
25.015,-0.246
25.020,-0.250
25.025,-0.249
25.030,-0.245
25.035,-0.237
25.040,-0.226
25.045,-0.214
25.050,-0.202
25.055,-0.184
25.060,-0.156
25.065,-0.118
25.070,-0.081
25.075,-0.046
25.080,-0.009
25.085,0.027
25.090,0.063
25.095,0.097
25.100,0.128
25.105,0.157
25.110,0.179
25.115,0.194
25.120,0.206
25.125,0.209
25.130,0.207
25.135,0.204
25.140,0.205
25.145,0.207
25.150,0.201
25.155,0.192
25.160,0.184
25.165,0.176
25.170,0.168
25.175,0.156
25.180,0.144
25.185,0.135
25.190,0.127
25.195,0.119
25.200,0.112
25.205,0.107
25.210,0.101
25.215,0.096
25.220,0.089
25.225,0.083
25.230,0.079
25.235,0.075
25.240,0.074
25.245,0.074
25.250,0.072
25.255,0.070
25.260,0.069
25.265,0.069
25.270,0.069
25.275,0.065
25.280,0.058
25.285,0.055
25.290,0.054
25.295,0.050
25.300,0.042
25.305,0.036
25.310,0.035
25.315,0.034
25.320,0.032
25.325,0.029
25.330,0.027
25.335,0.022
25.340,0.019
25.345,0.018
25.350,0.016
25.355,0.013
25.360,0.008
25.365,0.004
25.370,-0.001
25.375,-0.006
25.380,-0.008
25.385,-0.009
25.390,-0.009
25.395,-0.010
25.400,-0.015
25.405,-0.019
25.410,-0.024
25.415,-0.039
25.420,-0.060
25.425,-0.077
25.430,-0.083
25.435,-0.077
25.440,-0.072
25.445,-0.070
25.450,-0.068
25.455,-0.075
25.460,-0.095
25.465,-0.111
25.470,-0.112
25.475,-0.102
25.480,-0.082
25.485,-0.058
25.490,-0.036
25.495,-0.017
25.500,-0.005
25.505,0.004
25.510,0.007
25.515,0.010
25.520,0.025
25.525,0.041
25.530,0.048
25.535,0.040
25.540,0.029
25.545,0.027
25.550,0.026
25.555,0.022
25.560,0.019
25.565,0.016
25.570,0.010
25.575,0.009
25.580,0.026
25.585,0.073
25.590,0.117
25.595,0.068
25.600,-0.113
25.605,-0.389
25.610,-0.723
25.615,-1.066
25.620,-1.268
25.625,-1.102
25.630,-0.621
25.635,-0.132
25.640,0.207
25.645,0.387
25.650,0.468
25.655,0.486
25.660,0.414
25.665,0.322
25.670,0.274
25.675,0.234
25.680,0.202
25.685,0.190
25.690,0.171
25.695,0.148
25.700,0.139
25.705,0.132
25.710,0.114
25.715,0.102
25.720,0.096
25.725,0.084
25.730,0.072
25.735,0.063
25.740,0.053
25.745,0.044
25.750,0.036
25.755,0.030
25.760,0.026
25.765,0.019
25.770,0.006
25.775,-0.010
25.780,-0.019
25.785,-0.021
25.790,-0.028
25.795,-0.043
25.800,-0.059
25.805,-0.075
25.810,-0.092
25.815,-0.112
25.820,-0.133
25.825,-0.159
25.830,-0.187
25.835,-0.212
25.840,-0.230
25.845,-0.242
25.850,-0.251
25.855,-0.247
25.860,-0.233
25.865,-0.228
25.870,-0.227
25.875,-0.225
25.880,-0.219
25.885,-0.201
25.890,-0.179
25.895,-0.157
25.900,-0.129
25.905,-0.105
25.910,-0.074
25.915,-0.029
25.920,0.013
25.925,0.047
25.930,0.084
25.935,0.117
25.940,0.145
25.945,0.170
25.950,0.185
25.955,0.197
25.960,0.211
25.965,0.218
25.970,0.218
25.975,0.213
25.980,0.209
25.985,0.207
25.990,0.203
25.995,0.193
26.000,0.180
26.005,0.171
26.010,0.165
26.015,0.156
26.020,0.146
26.025,0.138
26.030,0.132
26.035,0.124
26.040,0.117
26.045,0.112
26.050,0.107
26.055,0.100
26.060,0.095
26.065,0.096
26.070,0.094
26.075,0.091
26.080,0.086
26.085,0.079
26.090,0.080
26.095,0.079
26.100,0.072
26.105,0.074
26.110,0.076
26.115,0.071
26.120,0.063
26.125,0.056
26.130,0.057
26.135,0.055
26.140,0.050
26.145,0.050
26.150,0.051
26.155,0.048
26.160,0.040
26.165,0.037
26.170,0.039
26.175,0.035
26.180,0.029
26.185,0.025
26.190,0.019
26.195,0.017
26.200,0.017
26.205,0.015
26.210,0.006
26.215,-0.001
26.220,0.000
26.225,0.001
26.230,-0.005
26.235,-0.018
26.240,-0.026
26.245,-0.029
26.250,-0.047
26.255,-0.063
26.260,-0.066
26.265,-0.063
26.270,-0.058
26.275,-0.056
26.280,-0.055
26.285,-0.064
26.290,-0.088
26.295,-0.106
26.300,-0.109
26.305,-0.100
26.310,-0.085
26.315,-0.067
26.320,-0.042
26.325,-0.027
26.330,-0.017
26.335,-0.003
26.340,0.003
26.345,0.006
26.350,0.020
26.355,0.037
26.360,0.043
26.365,0.034
26.370,0.027
26.375,0.028
26.380,0.025
26.385,0.016
26.390,0.011
26.395,0.015
26.400,0.013
26.405,0.004
26.410,0.011
26.415,0.052
26.420,0.110
26.425,0.100
26.430,-0.047
26.435,-0.309
26.440,-0.632
26.445,-0.968
26.450,-1.214
26.455,-1.146
26.460,-0.728
26.465,-0.245
26.470,0.097
26.475,0.303
26.480,0.428
26.485,0.487
26.490,0.451
26.495,0.358
26.500,0.293
26.505,0.250
26.510,0.208
26.515,0.193
26.520,0.180
26.525,0.148
26.530,0.129
26.535,0.129
26.540,0.126
26.545,0.114
26.550,0.101
26.555,0.091
26.560,0.075
26.565,0.061
26.570,0.051
26.575,0.040
26.580,0.037
26.585,0.032
26.590,0.020
26.595,0.007
26.600,-0.003
26.605,-0.009
26.610,-0.019
26.615,-0.029
26.620,-0.035
26.625,-0.041
26.630,-0.049
26.635,-0.064
26.640,-0.083
26.645,-0.105
26.650,-0.122
26.655,-0.134
26.660,-0.155
26.665,-0.180
26.670,-0.204
26.675,-0.228
26.680,-0.238
26.685,-0.244
26.690,-0.245
26.695,-0.238
26.700,-0.231
26.705,-0.222
26.710,-0.211
26.715,-0.199
26.720,-0.184
26.725,-0.163
26.730,-0.137
26.735,-0.108
26.740,-0.070
26.745,-0.030
26.750,-0.001
26.755,0.023
26.760,0.051
26.765,0.089
26.770,0.125
26.775,0.151
26.780,0.170
26.785,0.184
26.790,0.197
26.795,0.205
26.800,0.207
26.805,0.206
26.810,0.200
26.815,0.194
26.820,0.194
26.825,0.191
26.830,0.179
26.835,0.170
26.840,0.162
26.845,0.150
26.850,0.136
26.855,0.120
26.860,0.110
26.865,0.111
26.870,0.114
26.875,0.109
26.880,0.098
26.885,0.087
26.890,0.079
26.895,0.075
26.900,0.073
26.905,0.074
26.910,0.078
26.915,0.083
26.920,0.086
26.925,0.081
26.930,0.073
26.935,0.066
26.940,0.065
26.945,0.067
26.950,0.066
26.955,0.057
26.960,0.046
26.965,0.040
26.970,0.040
26.975,0.038
26.980,0.037
26.985,0.032
26.990,0.028
26.995,0.028
27.000,0.025
27.005,0.021
27.010,0.018
27.015,0.015
27.020,0.015
27.025,0.016
27.030,0.014
27.035,0.010
27.040,0.008
27.045,0.008
27.050,0.004
27.055,-0.004
27.060,-0.013
27.065,-0.018
27.070,-0.028
27.075,-0.049
27.080,-0.069
27.085,-0.080
27.090,-0.081
27.095,-0.071
27.100,-0.062
27.105,-0.054
27.110,-0.059
27.115,-0.083
27.120,-0.097
27.125,-0.096
27.130,-0.092
27.135,-0.085
27.140,-0.069
27.145,-0.046
27.150,-0.031
27.155,-0.018
27.160,-0.010
27.165,-0.005
27.170,0.004
27.175,0.014
27.180,0.023
27.185,0.026
27.190,0.021
27.195,0.018
27.200,0.021
27.205,0.022
27.210,0.015
27.215,0.008
27.220,0.001
27.225,-0.004
27.230,-0.002
27.235,0.016
27.240,0.072
27.245,0.129
27.250,0.081
27.255,-0.110
27.260,-0.398
27.265,-0.735
27.270,-1.067
27.275,-1.244
27.280,-1.059
27.285,-0.582
27.290,-0.132
27.295,0.156
27.300,0.334
27.305,0.444
27.310,0.484
27.315,0.433
27.320,0.344
27.325,0.291
27.330,0.242
27.335,0.201
27.340,0.192
27.345,0.176
27.350,0.144
27.355,0.128
27.360,0.126
27.365,0.119
27.370,0.107
27.375,0.097
27.380,0.081
27.385,0.063
27.390,0.060
27.395,0.061
27.400,0.054
27.405,0.046
27.410,0.037
27.415,0.029
27.420,0.018
27.425,0.005
27.430,-0.008
27.435,-0.022
27.440,-0.028
27.445,-0.032
27.450,-0.046
27.455,-0.065
27.460,-0.087
27.465,-0.105
27.470,-0.116
27.475,-0.130
27.480,-0.145
27.485,-0.162
27.490,-0.181
27.495,-0.199
27.500,-0.212
27.505,-0.214
27.510,-0.220
27.515,-0.231
27.520,-0.233
27.525,-0.229
27.530,-0.219
27.535,-0.206
27.540,-0.192
27.545,-0.174
27.550,-0.152
27.555,-0.126
27.560,-0.095
27.565,-0.061
27.570,-0.029
27.575,0.005
27.580,0.044
27.585,0.079
27.590,0.110
27.595,0.142
27.600,0.166
27.605,0.182
27.610,0.190
27.615,0.196
27.620,0.205
27.625,0.209
27.630,0.206
27.635,0.198
27.640,0.189
27.645,0.183
27.650,0.175
27.655,0.167
27.660,0.162
27.665,0.157
27.670,0.152
27.675,0.145
27.680,0.137
27.685,0.125
27.690,0.113
27.695,0.103
27.700,0.096
27.705,0.095
27.710,0.089
27.715,0.082
27.720,0.081
27.725,0.077
27.730,0.075
27.735,0.074
27.740,0.074
27.745,0.077
27.750,0.075
27.755,0.072
27.760,0.067
27.765,0.064
27.770,0.062
27.775,0.060
27.780,0.058
27.785,0.053
27.790,0.049
27.795,0.049
27.800,0.048
27.805,0.044
27.810,0.042
27.815,0.038
27.820,0.035
27.825,0.032
27.830,0.028
27.835,0.024
27.840,0.021
27.845,0.019
27.850,0.018
27.855,0.018
27.860,0.012
27.865,0.004
27.870,0.001
27.875,0.000
27.880,-0.002
27.885,-0.011
27.890,-0.024
27.895,-0.036
27.900,-0.048
27.905,-0.056
27.910,-0.061
27.915,-0.064
27.920,-0.063
27.925,-0.061
27.930,-0.060
27.935,-0.072
27.940,-0.090
27.945,-0.100
27.950,-0.100
27.955,-0.091
27.960,-0.073
27.965,-0.045
27.970,-0.021
27.975,-0.013
27.980,-0.007
27.985,0.002
27.990,0.008
27.995,0.014
28.000,0.024
28.005,0.037
28.010,0.044
28.015,0.039
28.020,0.033
28.025,0.030
28.030,0.026
28.035,0.019
28.040,0.014
28.045,0.010
28.050,0.006
28.055,0.010
28.060,0.039
28.065,0.100
28.070,0.125
28.075,0.025
28.080,-0.201
28.085,-0.511
28.090,-0.864
28.095,-1.183
28.100,-1.268
28.105,-0.945
28.110,-0.424
28.115,-0.007
28.120,0.256
28.125,0.404
28.130,0.483
28.135,0.483
28.140,0.393
28.145,0.312
28.150,0.269
28.155,0.225
28.160,0.201
28.165,0.191
28.170,0.163
28.175,0.138
28.180,0.134
28.185,0.127
28.190,0.112
28.195,0.105
28.200,0.097
28.205,0.087
28.210,0.077
28.215,0.069
28.220,0.058
28.225,0.047
28.230,0.040
28.235,0.033
28.240,0.024
28.245,0.013
28.250,0.001
28.255,-0.008
28.260,-0.020
28.265,-0.032
28.270,-0.045
28.275,-0.061
28.280,-0.073
28.285,-0.087
28.290,-0.101
28.295,-0.115
28.300,-0.136
28.305,-0.159
28.310,-0.179
28.315,-0.195
28.320,-0.210
28.325,-0.228
28.330,-0.239
28.335,-0.243
28.340,-0.245
28.345,-0.245
28.350,-0.242
28.355,-0.234
28.360,-0.223
28.365,-0.212
28.370,-0.195
28.375,-0.169
28.380,-0.137
28.385,-0.103
28.390,-0.065
28.395,-0.024
28.400,0.014
28.405,0.050
28.410,0.083
28.415,0.110
28.420,0.139
28.425,0.164
28.430,0.183
28.435,0.196
28.440,0.201
28.445,0.202
28.450,0.201
28.455,0.204
28.460,0.208
28.465,0.204
28.470,0.194
28.475,0.183
28.480,0.176
28.485,0.168
28.490,0.158
28.495,0.149
28.500,0.141
28.505,0.131
28.510,0.122
28.515,0.114
28.520,0.107
28.525,0.100
28.530,0.092
28.535,0.086
28.540,0.084
28.545,0.082
28.550,0.078
28.555,0.075
28.560,0.070
28.565,0.067
28.570,0.065
28.575,0.066
28.580,0.065
28.585,0.058
28.590,0.053
28.595,0.054
28.600,0.057
28.605,0.055
28.610,0.050
28.615,0.045
28.620,0.043
28.625,0.041
28.630,0.038
28.635,0.033
28.640,0.028
28.645,0.025
28.650,0.023
28.655,0.022
28.660,0.017
28.665,0.012
28.670,0.012
28.675,0.009
28.680,0.003
28.685,-0.004
28.690,-0.006
28.695,-0.005
28.700,-0.004
28.705,-0.005
28.710,-0.008
28.715,-0.016
28.720,-0.029
28.725,-0.048
28.730,-0.066
28.735,-0.079
28.740,-0.085
28.745,-0.081
28.750,-0.076
28.755,-0.069
28.760,-0.066
28.765,-0.079
28.770,-0.097
28.775,-0.109
28.780,-0.107
28.785,-0.092
28.790,-0.070
28.795,-0.043
28.800,-0.020
28.805,-0.007
28.810,0.002
28.815,0.010
28.820,0.013
28.825,0.020
28.830,0.033
28.835,0.041
28.840,0.041
28.845,0.035
28.850,0.029
28.855,0.029
28.860,0.027
28.865,0.024
28.870,0.020
28.875,0.015
28.880,0.011
28.885,0.012
28.890,0.036
28.895,0.091
28.900,0.107
28.905,0.005
28.910,-0.219
28.915,-0.530
28.920,-0.878
28.925,-1.184
28.930,-1.246
28.935,-0.915
28.940,-0.397
28.945,0.035
28.950,0.304
28.955,0.434
28.960,0.490
28.965,0.470
28.970,0.379
28.975,0.301
28.980,0.259
28.985,0.219
28.990,0.197
28.995,0.185
29.000,0.160
29.005,0.143
29.010,0.138
29.015,0.125
29.020,0.109
29.025,0.098
29.030,0.090
29.035,0.079
29.040,0.073
29.045,0.069
29.050,0.057
29.055,0.047
29.060,0.039
29.065,0.031
29.070,0.025
29.075,0.017
29.080,0.007
29.085,-0.003
29.090,-0.014
29.095,-0.026
29.100,-0.040
29.105,-0.054
29.110,-0.067
29.115,-0.080
29.120,-0.094
29.125,-0.111
29.130,-0.130
29.135,-0.153
29.140,-0.176
29.145,-0.193
29.150,-0.211
29.155,-0.223
29.160,-0.231
29.165,-0.236
29.170,-0.238
29.175,-0.241
29.180,-0.239
29.185,-0.232
29.190,-0.220
29.195,-0.206
29.200,-0.190
29.205,-0.167
29.210,-0.134
29.215,-0.096
29.220,-0.056
29.225,-0.018
29.230,0.021
29.235,0.060
29.240,0.093
29.245,0.125
29.250,0.153
29.255,0.174
29.260,0.187
29.265,0.196
29.270,0.202
29.275,0.206
29.280,0.207
29.285,0.204
29.290,0.204
29.295,0.202
29.300,0.191
29.305,0.179
29.310,0.171
29.315,0.166
29.320,0.164
29.325,0.156
29.330,0.147
29.335,0.142
29.340,0.138
29.345,0.130
29.350,0.117
29.355,0.107
29.360,0.099
29.365,0.091
29.370,0.087
29.375,0.089
29.380,0.090
29.385,0.085
29.390,0.081
29.395,0.080
29.400,0.078
29.405,0.077
29.410,0.074
29.415,0.071
29.420,0.065
29.425,0.058
29.430,0.054
29.435,0.052
29.440,0.053
29.445,0.055
29.450,0.056
29.455,0.052
29.460,0.044
29.465,0.038
29.470,0.034
29.475,0.031
29.480,0.029
29.485,0.027
29.490,0.026
29.495,0.021
29.500,0.010
29.505,0.001
29.510,-0.002
29.515,0.001
29.520,0.004
29.525,0.000
29.530,0.000
29.535,-0.001
29.540,-0.009
29.545,-0.013
29.550,-0.018
29.555,-0.026
29.560,-0.048
29.565,-0.073
29.570,-0.083
29.575,-0.080
29.580,-0.068
29.585,-0.058
29.590,-0.057
29.595,-0.061
29.600,-0.080
29.605,-0.104
29.610,-0.118
29.615,-0.118
29.620,-0.102
29.625,-0.077
29.630,-0.050
29.635,-0.026
29.640,-0.010
29.645,0.004
29.650,0.013
29.655,0.009
29.660,0.007
29.665,0.020
29.670,0.036
29.675,0.046
29.680,0.044
29.685,0.038
29.690,0.036
29.695,0.033
29.700,0.024
29.705,0.017
29.710,0.013
29.715,0.007
29.720,0.005
29.725,0.020
29.730,0.065
29.735,0.104
29.740,0.050
29.745,-0.133
29.750,-0.410
29.755,-0.739
29.760,-1.066
29.765,-1.229
29.770,-1.021
29.775,-0.541
29.780,-0.087
29.785,0.215
29.790,0.378
29.795,0.460
29.800,0.476
29.805,0.405
29.810,0.319
29.815,0.269
29.820,0.222
29.825,0.187
29.830,0.178
29.835,0.164
29.840,0.142
29.845,0.131
29.850,0.121
29.855,0.108
29.860,0.100
29.865,0.090
29.870,0.074
29.875,0.062
29.880,0.059
29.885,0.048
29.890,0.033
29.895,0.029
29.900,0.027
29.905,0.021
29.910,0.008
29.915,-0.005
29.920,-0.015
29.925,-0.021
29.930,-0.024
29.935,-0.034
29.940,-0.049
29.945,-0.065
29.950,-0.083
29.955,-0.097
29.960,-0.115
29.965,-0.136
29.970,-0.150
29.975,-0.163
29.980,-0.178
29.985,-0.195
29.990,-0.213
29.995,-0.229
30.000,-0.240
30.005,-0.241
30.010,-0.236
30.015,-0.229
30.020,-0.227
30.025,-0.221
30.030,-0.202
30.035,-0.179
30.040,-0.158
30.045,-0.135
30.050,-0.110
30.055,-0.078
30.060,-0.040
30.065,0.000
30.070,0.043
30.075,0.077
30.080,0.103
30.085,0.126
30.090,0.146
30.095,0.160
30.100,0.177
30.105,0.197
30.110,0.208
30.115,0.212
30.120,0.211
30.125,0.206
30.130,0.201
30.135,0.193
30.140,0.185
30.145,0.177
30.150,0.165
30.155,0.155
30.160,0.148
30.165,0.140
30.170,0.132
30.175,0.122
30.180,0.117
30.185,0.112
30.190,0.107
30.195,0.103
30.200,0.098
30.205,0.092
30.210,0.085
30.215,0.084
30.220,0.084
30.225,0.079
30.230,0.076
30.235,0.077
30.240,0.082
30.245,0.080
30.250,0.069
30.255,0.060
30.260,0.058
30.265,0.057
30.270,0.056
30.275,0.054
30.280,0.053
30.285,0.050
30.290,0.046
30.295,0.046
30.300,0.039
30.305,0.030
30.310,0.030
30.315,0.028
30.320,0.024
30.325,0.018
30.330,0.009
30.335,0.009
30.340,0.013
30.345,0.009
30.350,0.004
30.355,-0.003
30.360,-0.005
30.365,-0.003
30.370,-0.004
30.375,-0.006
30.380,-0.012
30.385,-0.021
30.390,-0.038
30.395,-0.057
30.400,-0.068
30.405,-0.073
30.410,-0.068
30.415,-0.061
30.420,-0.056
30.425,-0.054
30.430,-0.068
30.435,-0.095
30.440,-0.112
30.445,-0.116
30.450,-0.109
30.455,-0.087
30.460,-0.065
30.465,-0.041
30.470,-0.022
30.475,-0.010
30.480,0.007
30.485,0.011
30.490,0.005
30.495,0.015
30.500,0.030
30.505,0.040
30.510,0.043
30.515,0.034
30.520,0.027
30.525,0.020
30.530,0.010
30.535,0.009
30.540,0.010
30.545,0.010
30.550,0.011
30.555,0.017
30.560,0.048
30.565,0.105
30.570,0.107
30.575,-0.031
30.580,-0.278
30.585,-0.586
30.590,-0.929
30.595,-1.202
30.600,-1.181
30.605,-0.778
30.610,-0.270
30.615,0.079
30.620,0.284
30.625,0.418
30.630,0.489
30.635,0.467
30.640,0.378
30.645,0.309
30.650,0.262
30.655,0.214
30.660,0.193
30.665,0.187
30.670,0.163
30.675,0.138
30.680,0.127
30.685,0.112
30.690,0.096
30.695,0.092
30.700,0.085
30.705,0.071
30.710,0.061
30.715,0.060
30.720,0.054
30.725,0.041
30.730,0.030
30.735,0.022
30.740,0.013
30.745,0.007
30.750,-0.004
30.755,-0.016
30.760,-0.024
30.765,-0.037
30.770,-0.051
30.775,-0.063
30.780,-0.074
30.785,-0.088
30.790,-0.104
30.795,-0.118
30.800,-0.134
30.805,-0.152
30.810,-0.170
30.815,-0.187
30.820,-0.201
30.825,-0.215
30.830,-0.227
30.835,-0.233
30.840,-0.235
30.845,-0.233
30.850,-0.225
30.855,-0.213
30.860,-0.203
30.865,-0.191
30.870,-0.169
30.875,-0.139
30.880,-0.109
30.885,-0.081
30.890,-0.048
30.895,-0.012
30.900,0.021
30.905,0.057
30.910,0.091
30.915,0.117
30.920,0.137
30.925,0.154
30.930,0.172
30.935,0.186
30.940,0.193
30.945,0.193
30.950,0.189
30.955,0.187
30.960,0.184
30.965,0.181
30.970,0.178
30.975,0.170
30.980,0.160
30.985,0.150
30.990,0.141
30.995,0.133
31.000,0.123
31.005,0.116
31.010,0.113
31.015,0.109
31.020,0.107
31.025,0.099
31.030,0.091
31.035,0.087
31.040,0.086
31.045,0.084
31.050,0.076
31.055,0.068
31.060,0.067
31.065,0.069
31.070,0.067
31.075,0.066
31.080,0.070
31.085,0.070
31.090,0.059
31.095,0.052
31.100,0.052
31.105,0.054
31.110,0.052
31.115,0.048
31.120,0.048
31.125,0.046
31.130,0.041
31.135,0.036
31.140,0.031
31.145,0.025
31.150,0.017
31.155,0.015
31.160,0.018
31.165,0.019
31.170,0.019
31.175,0.016
31.180,0.014
31.185,0.011
31.190,0.003
31.195,-0.002
31.200,-0.007
31.205,-0.010
31.210,-0.010
31.215,-0.016
31.220,-0.022
31.225,-0.027
31.230,-0.042
31.235,-0.060
31.240,-0.071
31.245,-0.070
31.250,-0.065
31.255,-0.059
31.260,-0.058
31.265,-0.068
31.270,-0.090
31.275,-0.108
31.280,-0.109
31.285,-0.100
31.290,-0.079
31.295,-0.053
31.300,-0.035
31.305,-0.025
31.310,-0.014
31.315,-0.002
31.320,0.006
31.325,0.011
31.330,0.024
31.335,0.037
31.340,0.039
31.345,0.032
31.350,0.030
31.355,0.033
31.360,0.029
31.365,0.025
31.370,0.023
31.375,0.018
31.380,0.014
31.385,0.013
31.390,0.028
31.395,0.075
31.400,0.123
31.405,0.079
31.410,-0.102
31.415,-0.389
31.420,-0.724
31.425,-1.058
31.430,-1.248
31.435,-1.076
31.440,-0.599
31.445,-0.135
31.450,0.172
31.455,0.356
31.460,0.461
31.465,0.496
31.470,0.434
31.475,0.340
31.480,0.287
31.485,0.245
31.490,0.206
31.495,0.196
31.500,0.181
31.505,0.156
31.510,0.144
31.515,0.136
31.520,0.119
31.525,0.107
31.530,0.101
31.535,0.091
31.540,0.078
31.545,0.070
31.550,0.064
31.555,0.055
31.560,0.045
31.565,0.035
31.570,0.026
31.575,0.019
31.580,0.011
31.585,0.000
31.590,-0.009
31.595,-0.016
31.600,-0.028
31.605,-0.043
31.610,-0.058
31.615,-0.072
31.620,-0.087
31.625,-0.101
31.630,-0.118
31.635,-0.142
31.640,-0.165
31.645,-0.178
31.650,-0.188
31.655,-0.201
31.660,-0.215
31.665,-0.225
31.670,-0.228
31.675,-0.229
31.680,-0.227
31.685,-0.220
31.690,-0.211
31.695,-0.201
31.700,-0.189
31.705,-0.167
31.710,-0.139
31.715,-0.107
31.720,-0.071
31.725,-0.035
31.730,0.001
31.735,0.033
31.740,0.067
31.745,0.100
31.750,0.129
31.755,0.155
31.760,0.174
31.765,0.188
31.770,0.200
31.775,0.204
31.780,0.204
31.785,0.204
31.790,0.204
31.795,0.200
31.800,0.188
31.805,0.177
31.810,0.170
31.815,0.165
31.820,0.159
31.825,0.150
31.830,0.144
31.835,0.137
31.840,0.128
31.845,0.121
31.850,0.113
31.855,0.103
31.860,0.095
31.865,0.091
31.870,0.087
31.875,0.083
31.880,0.079
31.885,0.076
31.890,0.075
31.895,0.071
31.900,0.069
31.905,0.072
31.910,0.073
31.915,0.071
31.920,0.069
31.925,0.065
31.930,0.062
31.935,0.059
31.940,0.056
31.945,0.053
31.950,0.049
31.955,0.045
31.960,0.041
31.965,0.037
31.970,0.033
31.975,0.030
31.980,0.028
31.985,0.026
31.990,0.023
31.995,0.020
32.000,0.018
32.005,0.013
32.010,0.008
32.015,0.004
32.020,0.000
32.025,-0.006
32.030,-0.010
32.035,-0.011
32.040,-0.008
32.045,-0.007
32.050,-0.014
32.055,-0.022
32.060,-0.029
32.065,-0.041
32.070,-0.061
32.075,-0.077
32.080,-0.083
32.085,-0.082
32.090,-0.078
32.095,-0.075
32.100,-0.071
32.105,-0.076
32.110,-0.093
32.115,-0.108
32.120,-0.111
32.125,-0.099
32.130,-0.077
32.135,-0.053
32.140,-0.032
32.145,-0.018
32.150,-0.009
32.155,0.002
32.160,0.005
32.165,0.011
32.170,0.029
32.175,0.040
32.180,0.041
32.185,0.034
32.190,0.029
32.195,0.030
32.200,0.027
32.205,0.019
32.210,0.014
32.215,0.011
32.220,0.006
32.225,0.006
32.230,0.025
32.235,0.077
32.240,0.118
32.245,0.056
32.250,-0.141
32.255,-0.436
32.260,-0.784
32.265,-1.116
32.270,-1.262
32.275,-1.026
32.280,-0.519
32.285,-0.045
32.290,0.264
32.295,0.413
32.300,0.475
32.305,0.477
32.310,0.393
32.315,0.304
32.320,0.257
32.325,0.217
32.330,0.193
32.335,0.181
32.340,0.161
32.345,0.143
32.350,0.134
32.355,0.126
32.360,0.113
32.365,0.102
32.370,0.090
32.375,0.078
32.380,0.071
32.385,0.067
32.390,0.058
32.395,0.046
32.400,0.037
32.405,0.029
32.410,0.021
32.415,0.013
32.420,0.004
32.425,-0.005
32.430,-0.015
32.435,-0.026
32.440,-0.036
32.445,-0.048
32.450,-0.063
32.455,-0.079
32.460,-0.096
32.465,-0.111
32.470,-0.128
32.475,-0.148
32.480,-0.166
32.485,-0.183
32.490,-0.201
32.495,-0.216
32.500,-0.228
32.505,-0.236
32.510,-0.240
32.515,-0.241
32.520,-0.239
32.525,-0.233
32.530,-0.227
32.535,-0.214
32.540,-0.191
32.545,-0.164
32.550,-0.136
32.555,-0.104
32.560,-0.069
32.565,-0.033
32.570,0.004
32.575,0.039
32.580,0.076
32.585,0.109
32.590,0.136
32.595,0.161
32.600,0.177
32.605,0.187
32.610,0.196
32.615,0.202
32.620,0.205
32.625,0.205
32.630,0.207
32.635,0.207
32.640,0.201
32.645,0.194
32.650,0.183
32.655,0.173
32.660,0.162
32.665,0.151
32.670,0.145
32.675,0.138
32.680,0.130
32.685,0.123
32.690,0.116
32.695,0.113
32.700,0.107
32.705,0.100
32.710,0.095
32.715,0.091
32.720,0.088
32.725,0.086
32.730,0.083
32.735,0.082
32.740,0.080
32.745,0.077
32.750,0.072
32.755,0.070
32.760,0.067
32.765,0.064
32.770,0.062
32.775,0.057
32.780,0.054
32.785,0.051
32.790,0.049
32.795,0.047
32.800,0.044
32.805,0.042
32.810,0.037
32.815,0.030
32.820,0.025
32.825,0.019
32.830,0.017
32.835,0.016
32.840,0.013
32.845,0.011
32.850,0.007
32.855,0.004
32.860,0.002
32.865,-0.003
32.870,-0.007
32.875,-0.010
32.880,-0.013
32.885,-0.016
32.890,-0.019
32.895,-0.025
32.900,-0.038
32.905,-0.059
32.910,-0.074
32.915,-0.082
32.920,-0.083
32.925,-0.077
32.930,-0.072
32.935,-0.068
32.940,-0.073
32.945,-0.092
32.950,-0.109
32.955,-0.112
32.960,-0.103
32.965,-0.083
32.970,-0.058
32.975,-0.034
32.980,-0.018
32.985,-0.009
32.990,0.004
32.995,0.009
33.000,0.008
33.005,0.021
33.010,0.037
33.015,0.043
33.020,0.038
33.025,0.029
33.030,0.028
33.035,0.026
33.040,0.020
33.045,0.018
33.050,0.017
33.055,0.011
33.060,0.008
33.065,0.019
33.070,0.062
33.075,0.112
33.080,0.084
33.085,-0.075
33.090,-0.336
33.095,-0.659
33.100,-1.002
33.105,-1.227
33.110,-1.110
33.115,-0.660
33.120,-0.162
33.125,0.193
33.130,0.381
33.135,0.461
33.140,0.480
33.145,0.410
33.150,0.312
33.155,0.259
33.160,0.220
33.165,0.193
33.170,0.182
33.175,0.160
33.180,0.136
33.185,0.126
33.190,0.117
33.195,0.105
33.200,0.095
33.205,0.088
33.210,0.077
33.215,0.068
33.220,0.062
33.225,0.052
33.230,0.041
33.235,0.033
33.240,0.027
33.245,0.019
33.250,0.010
33.255,0.004
33.260,-0.006
33.265,-0.015
33.270,-0.026
33.275,-0.042
33.280,-0.057
33.285,-0.070
33.290,-0.084
33.295,-0.096
33.300,-0.110
33.305,-0.126
33.310,-0.145
33.315,-0.164
33.320,-0.181
33.325,-0.198
33.330,-0.208
33.335,-0.219
33.340,-0.227
33.345,-0.229
33.350,-0.229
33.355,-0.226
33.360,-0.221
33.365,-0.213
33.370,-0.201
33.375,-0.188
33.380,-0.168
33.385,-0.142
33.390,-0.111
33.395,-0.077
33.400,-0.045
33.405,-0.008
33.410,0.030
33.415,0.063
33.420,0.099
33.425,0.132
33.430,0.158
33.435,0.175
33.440,0.184
33.445,0.193
33.450,0.202
33.455,0.202
33.460,0.199
33.465,0.199
33.470,0.198
33.475,0.189
33.480,0.179
33.485,0.171
33.490,0.167
33.495,0.162
33.500,0.152
33.505,0.144
33.510,0.136
33.515,0.127
33.520,0.121
33.525,0.117
33.530,0.112
33.535,0.108
33.540,0.102
33.545,0.096
33.550,0.091
33.555,0.089
33.560,0.088
33.565,0.086
33.570,0.081
33.575,0.079
33.580,0.079
33.585,0.075
33.590,0.070
33.595,0.069
33.600,0.069
33.605,0.071
33.610,0.068
33.615,0.063
33.620,0.058
33.625,0.050
33.630,0.042
33.635,0.038
33.640,0.039
33.645,0.036
33.650,0.026
33.655,0.022
33.660,0.023
33.665,0.019
33.670,0.014
33.675,0.012
33.680,0.015
33.685,0.019
33.690,0.016
33.695,0.010
33.700,0.005
33.705,-0.002
33.710,-0.008
33.715,-0.011
33.720,-0.020
33.725,-0.029
33.730,-0.034
33.735,-0.047
33.740,-0.065
33.745,-0.078
33.750,-0.086
33.755,-0.081
33.760,-0.073
33.765,-0.066
33.770,-0.063
33.775,-0.077
33.780,-0.101
33.785,-0.113
33.790,-0.111
33.795,-0.095
33.800,-0.073
33.805,-0.051
33.810,-0.030
33.815,-0.014
33.820,0.002
33.825,0.014
33.830,0.014
33.835,0.014
33.840,0.028
33.845,0.043
33.850,0.044
33.855,0.033
33.860,0.024
33.865,0.027
33.870,0.028
33.875,0.018
33.880,0.016
33.885,0.019
33.890,0.017
33.895,0.016
33.900,0.034
33.905,0.082
33.910,0.114
33.915,0.043
33.920,-0.149
33.925,-0.429
33.930,-0.761
33.935,-1.087
33.940,-1.213
33.945,-0.947
33.950,-0.449
33.955,-0.012
33.960,0.264
33.965,0.400
33.970,0.467
33.975,0.466
33.980,0.379
33.985,0.294
33.990,0.248
33.995,0.204
34.000,0.180
34.005,0.175
34.010,0.153
34.015,0.127
34.020,0.121
34.025,0.113
34.030,0.101
34.035,0.091
34.040,0.081
34.045,0.072
34.050,0.064
34.055,0.057
34.060,0.046
34.065,0.034
34.070,0.027
34.075,0.019
34.080,0.011
34.085,0.002
34.090,-0.007
34.095,-0.016
34.100,-0.028
34.105,-0.041
34.110,-0.056
34.115,-0.073
34.120,-0.081
34.125,-0.088
34.130,-0.100
34.135,-0.119
34.140,-0.137
34.145,-0.146
34.150,-0.156
34.155,-0.175
34.160,-0.196
34.165,-0.210
34.170,-0.216
34.175,-0.221
34.180,-0.230
34.185,-0.233
34.190,-0.227
34.195,-0.219
34.200,-0.210
34.205,-0.199
34.210,-0.184
34.215,-0.161
34.220,-0.133
34.225,-0.098
34.230,-0.063
34.235,-0.029
34.240,0.007
34.245,0.043
34.250,0.076
34.255,0.105
34.260,0.136
34.265,0.166
34.270,0.184
34.275,0.192
34.280,0.194
34.285,0.194
34.290,0.194
34.295,0.191
34.300,0.185
34.305,0.182
34.310,0.179
34.315,0.176
34.320,0.172
34.325,0.164
34.330,0.157
34.335,0.146
34.340,0.136
34.345,0.132
34.350,0.126
34.355,0.119
34.360,0.113
34.365,0.106
34.370,0.101
34.375,0.096
34.380,0.091
34.385,0.086
34.390,0.082
34.395,0.078
34.400,0.077
34.405,0.077
34.410,0.078
34.415,0.081
34.420,0.083
34.425,0.081
34.430,0.078
34.435,0.067
34.440,0.057
34.445,0.053
34.450,0.052
34.455,0.055
34.460,0.052
34.465,0.045
34.470,0.044
34.475,0.043
34.480,0.037
34.485,0.034
34.490,0.031
34.495,0.025
34.500,0.024
34.505,0.020
34.510,0.011
34.515,0.009
34.520,0.010
34.525,0.007
34.530,0.004
34.535,-0.002
34.540,-0.012
34.545,-0.013
34.550,-0.013
34.555,-0.018
34.560,-0.030
34.565,-0.052
34.570,-0.072
34.575,-0.074
34.580,-0.066
34.585,-0.062
34.590,-0.054
34.595,-0.055
34.600,-0.080
34.605,-0.104
34.610,-0.115
34.615,-0.108
34.620,-0.088
34.625,-0.067
34.630,-0.046
34.635,-0.030
34.640,-0.015
34.645,0.001
34.650,0.004
34.655,0.008
34.660,0.021
34.665,0.036
34.670,0.043
34.675,0.037
34.680,0.037
34.685,0.046
34.690,0.045
34.695,0.030
34.700,0.012
34.705,0.005
34.710,0.004
34.715,0.004
34.720,0.013
34.725,0.051
34.730,0.104
34.735,0.088
34.740,-0.065
34.745,-0.326
34.750,-0.647
34.755,-0.983
34.760,-1.211
34.765,-1.102
34.770,-0.647
34.775,-0.162
34.780,0.147
34.785,0.320
34.790,0.432
34.795,0.486
34.800,0.446
34.805,0.356
34.810,0.294
34.815,0.244
34.820,0.191
34.825,0.171
34.830,0.167
34.835,0.144
34.840,0.127
34.845,0.120
34.850,0.101
34.855,0.081
34.860,0.074
34.865,0.072
34.870,0.068
34.875,0.065
34.880,0.056
34.885,0.038
34.890,0.029
34.895,0.027
34.900,0.017
34.905,0.006
34.910,-0.004
34.915,-0.016
34.920,-0.022
34.925,-0.030
34.930,-0.046
34.935,-0.060
34.940,-0.073
34.945,-0.080
34.950,-0.091
34.955,-0.112
34.960,-0.130
34.965,-0.145
34.970,-0.159
34.975,-0.177
34.980,-0.197
34.985,-0.210
34.990,-0.218
34.995,-0.224
35.000,-0.228
35.005,-0.230
35.010,-0.224
35.015,-0.210
35.020,-0.199
35.025,-0.192
35.030,-0.182
35.035,-0.162
35.040,-0.133
35.045,-0.100
35.050,-0.067
35.055,-0.035
35.060,-0.005
35.065,0.025
35.070,0.062
35.075,0.098
35.080,0.124
35.085,0.141
35.090,0.155
35.095,0.174
35.100,0.192
35.105,0.201
35.110,0.198
35.115,0.191
35.120,0.191
35.125,0.189
35.130,0.185
35.135,0.178
35.140,0.168
35.145,0.160
35.150,0.150
35.155,0.138
35.160,0.128
35.165,0.123
35.170,0.119
35.175,0.112
35.180,0.104
35.185,0.093
35.190,0.085
35.195,0.082
35.200,0.080
35.205,0.080
35.210,0.080
35.215,0.079
35.220,0.077
35.225,0.074
35.230,0.076
35.235,0.078
35.240,0.074
35.245,0.068
35.250,0.061
35.255,0.057
35.260,0.057
35.265,0.055
35.270,0.053
35.275,0.052
35.280,0.050
35.285,0.047
35.290,0.042
35.295,0.036
35.300,0.030
35.305,0.031
35.310,0.033
35.315,0.027
35.320,0.021
35.325,0.017
35.330,0.014
35.335,0.011
35.340,0.009
35.345,0.006
35.350,0.004
35.355,0.004
35.360,0.001
35.365,-0.004
35.370,-0.012
35.375,-0.025
35.380,-0.041
35.385,-0.058
35.390,-0.069
35.395,-0.066
35.400,-0.058
35.405,-0.054
35.410,-0.057
35.415,-0.073
35.420,-0.092
35.425,-0.101
35.430,-0.099
35.435,-0.083
35.440,-0.056
35.445,-0.031
35.450,-0.018
35.455,-0.008
35.460,0.004
35.465,0.005
35.470,0.009
35.475,0.024
35.480,0.039
35.485,0.046
35.490,0.039
35.495,0.032
35.500,0.034
35.505,0.036
35.510,0.034
35.515,0.031
35.520,0.023
35.525,0.013
35.530,0.006
35.535,0.007
35.540,0.035
35.545,0.094
35.550,0.105
35.555,-0.011
35.560,-0.246
35.565,-0.558
35.570,-0.902
35.575,-1.183
35.580,-1.179
35.585,-0.795
35.590,-0.296
35.595,0.064
35.600,0.284
35.605,0.423
35.610,0.494
35.615,0.469
35.620,0.375
35.625,0.299
35.630,0.252
35.635,0.205
35.640,0.183
35.645,0.177
35.650,0.153
35.655,0.131
35.660,0.125
35.665,0.114
35.670,0.099
35.675,0.092
35.680,0.086
35.685,0.073
35.690,0.064
35.695,0.056
35.700,0.044
35.705,0.036
35.710,0.032
35.715,0.025
35.720,0.015
35.725,0.005
35.730,-0.005
35.735,-0.019
35.740,-0.033
35.745,-0.044
35.750,-0.054
35.755,-0.064
35.760,-0.075
35.765,-0.088
35.770,-0.104
35.775,-0.125
35.780,-0.145
35.785,-0.162
35.790,-0.177
35.795,-0.194
35.800,-0.214
35.805,-0.225
35.810,-0.229
35.815,-0.231
35.820,-0.230
35.825,-0.227
35.830,-0.221
35.835,-0.215
35.840,-0.206
35.845,-0.191
35.850,-0.170
35.855,-0.141
35.860,-0.109
35.865,-0.075
35.870,-0.038
35.875,-0.005
35.880,0.031
35.885,0.065
35.890,0.096
35.895,0.128
35.900,0.154
35.905,0.173
35.910,0.185
35.915,0.194
35.920,0.202
35.925,0.207
35.930,0.209
35.935,0.204
35.940,0.196
35.945,0.189
35.950,0.180
35.955,0.171
35.960,0.166
35.965,0.161
35.970,0.155
35.975,0.147
35.980,0.139
35.985,0.131
35.990,0.121
35.995,0.111
36.000,0.106
36.005,0.100
36.010,0.093
36.015,0.086
36.020,0.082
36.025,0.080
36.030,0.077
36.035,0.072
36.040,0.069
36.045,0.068
36.050,0.067
36.055,0.068
36.060,0.069
36.065,0.065
36.070,0.060
36.075,0.054
36.080,0.051
36.085,0.051
36.090,0.049
36.095,0.047
36.100,0.046
36.105,0.045
36.110,0.041
36.115,0.035
36.120,0.031
36.125,0.029
36.130,0.026
36.135,0.024
36.140,0.024
36.145,0.022
36.150,0.014
36.155,0.005
36.160,-0.001
36.165,-0.004
36.170,-0.005
36.175,-0.005
36.180,-0.004
36.185,-0.006
36.190,-0.009
36.195,-0.013
36.200,-0.020
36.205,-0.033
36.210,-0.055
36.215,-0.075
36.220,-0.085
36.225,-0.087
36.230,-0.081
36.235,-0.074
36.240,-0.069
36.245,-0.069
36.250,-0.088
36.255,-0.105
36.260,-0.110
36.265,-0.104
36.270,-0.084
36.275,-0.061
36.280,-0.038
36.285,-0.023
36.290,-0.015
36.295,-0.003
36.300,0.005
36.305,0.007
36.310,0.016
36.315,0.032
36.320,0.042
36.325,0.039
36.330,0.030
36.335,0.028
36.340,0.027
36.345,0.018
36.350,0.011
36.355,0.011
36.360,0.010
36.365,0.006
36.370,0.010
36.375,0.044
36.380,0.100
36.385,0.098
36.390,-0.033
36.395,-0.276
36.400,-0.592
36.405,-0.938
36.410,-1.209
36.415,-1.181
36.420,-0.777
36.425,-0.264
36.430,0.126
36.435,0.350
36.440,0.451
36.445,0.488
36.450,0.439
36.455,0.340
36.460,0.276
36.465,0.235
36.470,0.197
36.475,0.181
36.480,0.167
36.485,0.141
36.490,0.128
36.495,0.124
36.500,0.111
36.505,0.100
36.510,0.091
36.515,0.079
36.520,0.068
36.525,0.060
36.530,0.056
36.535,0.051
36.540,0.043
36.545,0.035
36.550,0.024
36.555,0.013
36.560,0.004
36.565,-0.008
36.570,-0.018
36.575,-0.027
36.580,-0.036
36.585,-0.048
36.590,-0.062
36.595,-0.075
36.600,-0.089
36.605,-0.106
36.610,-0.126
36.615,-0.147
36.620,-0.168
36.625,-0.188
36.630,-0.203
36.635,-0.215
36.640,-0.226
36.645,-0.236
36.650,-0.246
36.655,-0.247
36.660,-0.243
36.665,-0.240
36.670,-0.232
36.675,-0.219
36.680,-0.202
36.685,-0.178
36.690,-0.150
36.695,-0.120
36.700,-0.087
36.705,-0.045
36.710,-0.003
36.715,0.035
36.720,0.072
36.725,0.105
36.730,0.136
36.735,0.162
36.740,0.180
36.745,0.197
36.750,0.208
36.755,0.213
36.760,0.215
36.765,0.213
36.770,0.211
36.775,0.207
36.780,0.202
36.785,0.195
36.790,0.188
36.795,0.181
36.800,0.170
36.805,0.161
36.810,0.153
36.815,0.144
36.820,0.134
36.825,0.122
36.830,0.115
36.835,0.111
36.840,0.107
36.845,0.099
36.850,0.090
36.855,0.088
36.860,0.090
36.865,0.089
36.870,0.084
36.875,0.080
36.880,0.078
36.885,0.077
36.890,0.074
36.895,0.071
36.900,0.067
36.905,0.063
36.910,0.060
36.915,0.057
36.920,0.057
36.925,0.053
36.930,0.049
36.935,0.046
36.940,0.042
36.945,0.039
36.950,0.036
36.955,0.032
36.960,0.028
36.965,0.022
36.970,0.018
36.975,0.015
36.980,0.014
36.985,0.011
36.990,0.007
36.995,0.006
37.000,0.005
37.005,0.002
37.010,-0.002
37.015,-0.007
37.020,-0.009
37.025,-0.011
37.030,-0.014
37.035,-0.017
37.040,-0.023
37.045,-0.031
37.050,-0.047
37.055,-0.066
37.060,-0.083
37.065,-0.089
37.070,-0.084
37.075,-0.078
37.080,-0.072
37.085,-0.068
37.090,-0.080
37.095,-0.103
37.100,-0.115
37.105,-0.112
37.110,-0.094
37.115,-0.070
37.120,-0.046
37.125,-0.024
37.130,-0.013
37.135,-0.005
37.140,0.007
37.145,0.011
37.150,0.012
37.155,0.025
37.160,0.035
37.165,0.035
37.170,0.032
37.175,0.032
37.180,0.035
37.185,0.031
37.190,0.022
37.195,0.020
37.200,0.018
37.205,0.013
37.210,0.013
37.215,0.030
37.220,0.077
37.225,0.110
37.230,0.046
37.235,-0.141
37.240,-0.419
37.245,-0.747
37.250,-1.074
37.255,-1.227
37.260,-1.002
37.265,-0.512
37.270,-0.043
37.275,0.266
37.280,0.414
37.285,0.474
37.290,0.467
37.295,0.383
37.300,0.298
37.305,0.251
37.310,0.211
37.315,0.188
37.320,0.177
37.325,0.157
37.330,0.141
37.335,0.137
37.340,0.131
37.345,0.117
37.350,0.103
37.355,0.092
37.360,0.079
37.365,0.066
37.370,0.059
37.375,0.051
37.380,0.043
37.385,0.035
37.390,0.023
37.395,0.010
37.400,0.002
37.405,-0.003
37.410,-0.009
37.415,-0.018
37.420,-0.028
37.425,-0.037
37.430,-0.045
37.435,-0.057
37.440,-0.076
37.445,-0.097
37.450,-0.115
37.455,-0.130
37.460,-0.148
37.465,-0.164
37.470,-0.182
37.475,-0.203
37.480,-0.219
37.485,-0.232
37.490,-0.240
37.495,-0.242
37.500,-0.247
37.505,-0.246
37.510,-0.237
37.515,-0.222
37.520,-0.206
37.525,-0.191
37.530,-0.168
37.535,-0.135
37.540,-0.098
37.545,-0.060
37.550,-0.023
37.555,0.015
37.560,0.055
37.565,0.091
37.570,0.121
37.575,0.148
37.580,0.169
37.585,0.186
37.590,0.200
37.595,0.210
37.600,0.215
37.605,0.218
37.610,0.216
37.615,0.211
37.620,0.207
37.625,0.200
37.630,0.194
37.635,0.192
37.640,0.184
37.645,0.171
37.650,0.157
37.655,0.150
37.660,0.143
37.665,0.135
37.670,0.127
37.675,0.120
37.680,0.116
37.685,0.109
37.690,0.102
37.695,0.098
37.700,0.091
37.705,0.084
37.710,0.081
37.715,0.079
37.720,0.075
37.725,0.067
37.730,0.068
37.735,0.071
37.740,0.066
37.745,0.068
37.750,0.069
37.755,0.064
37.760,0.055
37.765,0.047
37.770,0.046
37.775,0.041
37.780,0.034
37.785,0.030
37.790,0.031
37.795,0.035
37.800,0.030
37.805,0.029
37.810,0.028
37.815,0.018
37.820,0.009
37.825,0.005
37.830,0.005
37.835,0.006
37.840,0.006
37.845,0.001
37.850,-0.006
37.855,-0.007
37.860,-0.009
37.865,-0.013
37.870,-0.015
37.875,-0.017
37.880,-0.021
37.885,-0.025
37.890,-0.029
37.895,-0.038
37.900,-0.052
37.905,-0.067
37.910,-0.077
37.915,-0.080
37.920,-0.074
37.925,-0.066
37.930,-0.063
37.935,-0.065
37.940,-0.086
37.945,-0.113
37.950,-0.127
37.955,-0.129
37.960,-0.112
37.965,-0.087
37.970,-0.063
37.975,-0.042
37.980,-0.027
37.985,-0.013
37.990,0.000
37.995,0.006
38.000,0.013
38.005,0.029
38.010,0.041
38.015,0.039
38.020,0.030
38.025,0.024
38.030,0.024
38.035,0.026
38.040,0.023
38.045,0.016
38.050,0.005
38.055,-0.003
38.060,-0.003
38.065,0.006
38.070,0.045
38.075,0.093
38.080,0.066
38.085,-0.088
38.090,-0.344
38.095,-0.665
38.100,-1.006
38.105,-1.214
38.110,-1.061
38.115,-0.594
38.120,-0.134
38.125,0.155
38.130,0.325
38.135,0.436
38.140,0.480
38.145,0.428
38.150,0.336
38.155,0.279
38.160,0.232
38.165,0.192
38.170,0.184
38.175,0.171
38.180,0.143
38.185,0.127
38.190,0.122
38.195,0.111
38.200,0.101
38.205,0.096
38.210,0.088
38.215,0.072
38.220,0.058
38.225,0.048
38.230,0.036
38.235,0.028
38.240,0.027
38.245,0.022
38.250,0.011
38.255,0.001
38.260,-0.011
38.265,-0.022
38.270,-0.033
38.275,-0.042
38.280,-0.049
38.285,-0.062
38.290,-0.080
38.295,-0.097
38.300,-0.114
38.305,-0.130
38.310,-0.142
38.315,-0.152
38.320,-0.169
38.325,-0.192
38.330,-0.203
38.335,-0.209
38.340,-0.216
38.345,-0.217
38.350,-0.218
38.355,-0.219
38.360,-0.218
38.365,-0.213
38.370,-0.196
38.375,-0.176
38.380,-0.157
38.385,-0.136
38.390,-0.108
38.395,-0.076
38.400,-0.043
38.405,-0.001
38.410,0.040
38.415,0.071
38.420,0.104
38.425,0.135
38.430,0.160
38.435,0.175
38.440,0.186
38.445,0.201
38.450,0.206
38.455,0.204
38.460,0.199
38.465,0.199
38.470,0.203
38.475,0.199
38.480,0.189
38.485,0.176
38.490,0.166
38.495,0.155
38.500,0.144
38.505,0.134
38.510,0.123
38.515,0.114
38.520,0.107
38.525,0.100
38.530,0.095
38.535,0.090
38.540,0.084
38.545,0.083
38.550,0.081
38.555,0.077
38.560,0.076
38.565,0.078
38.570,0.078
38.575,0.078
38.580,0.080
38.585,0.075
38.590,0.067
38.595,0.063
38.600,0.063
38.605,0.064
38.610,0.059
38.615,0.054
38.620,0.053
38.625,0.052
38.630,0.048
38.635,0.040
38.640,0.034
38.645,0.032
38.650,0.033
38.655,0.034
38.660,0.031
38.665,0.023
38.670,0.016
38.675,0.007
38.680,0.002
38.685,0.003
38.690,0.004
38.695,0.000
38.700,-0.006
38.705,-0.010
38.710,-0.009
38.715,-0.007
38.720,-0.008
38.725,-0.011
38.730,-0.015
38.735,-0.016
38.740,-0.016
38.745,-0.018
38.750,-0.019
38.755,-0.025
38.760,-0.042
38.765,-0.063
38.770,-0.076
38.775,-0.080
38.780,-0.075
38.785,-0.070
38.790,-0.066
38.795,-0.067
38.800,-0.086
38.805,-0.105
38.810,-0.114
38.815,-0.112
38.820,-0.097
38.825,-0.075
38.830,-0.049
38.835,-0.030
38.840,-0.019
38.845,-0.005
38.850,0.004
38.855,0.006
38.860,0.013
38.865,0.028
38.870,0.040
38.875,0.038
38.880,0.031
38.885,0.031
38.890,0.032
38.895,0.026
38.900,0.016
38.905,0.012
38.910,0.016
38.915,0.016
38.920,0.015
38.925,0.028
38.930,0.074
38.935,0.114
38.940,0.049
38.945,-0.143
38.950,-0.425
38.955,-0.763
38.960,-1.097
38.965,-1.251
38.970,-1.018
38.975,-0.520
38.980,-0.082
38.985,0.194
38.990,0.368
38.995,0.475
39.000,0.498
39.005,0.431
39.010,0.343
39.015,0.289
39.020,0.241
39.025,0.205
39.030,0.193
39.035,0.172
39.040,0.141
39.045,0.135
39.050,0.135
39.055,0.121
39.060,0.105
39.065,0.096
39.070,0.085
39.075,0.073
39.080,0.063
39.085,0.050
39.090,0.038
39.095,0.036
39.100,0.033
39.105,0.026
39.110,0.019
39.115,0.012
39.120,0.002
39.125,-0.013
39.130,-0.026
39.135,-0.038
39.140,-0.051
39.145,-0.065
39.150,-0.081
39.155,-0.091
39.160,-0.102
39.165,-0.120
39.170,-0.142
39.175,-0.165
39.180,-0.179
39.185,-0.193
39.190,-0.210
39.195,-0.220
39.200,-0.227
39.205,-0.230
39.210,-0.228
39.215,-0.227
39.220,-0.220
39.225,-0.204
39.230,-0.187
39.235,-0.171
39.240,-0.152
39.245,-0.127
39.250,-0.096
39.255,-0.060
39.260,-0.026
39.265,0.011
39.270,0.050
39.275,0.080
39.280,0.109
39.285,0.141
39.290,0.163
39.295,0.182
39.300,0.193
39.305,0.202
39.310,0.210
39.315,0.210
39.320,0.208
39.325,0.206
39.330,0.201
39.335,0.192
39.340,0.180
39.345,0.169
39.350,0.163
39.355,0.159
39.360,0.152
39.365,0.144
39.370,0.136
39.375,0.125
39.380,0.117
39.385,0.112
39.390,0.105
39.395,0.096
39.400,0.089
39.405,0.084
39.410,0.082
39.415,0.080
39.420,0.077
39.425,0.077
39.430,0.077
39.435,0.077
39.440,0.075
39.445,0.071
39.450,0.068
39.455,0.069
39.460,0.067
39.465,0.061
39.470,0.056
39.475,0.054
39.480,0.051
39.485,0.047
39.490,0.043
39.495,0.042
39.500,0.039
39.505,0.035
39.510,0.032
39.515,0.029
39.520,0.026
39.525,0.020
39.530,0.014
39.535,0.011
39.540,0.010
39.545,0.010
39.550,0.007
39.555,0.001
39.560,-0.002
39.565,-0.003
39.570,-0.005
39.575,-0.006
39.580,-0.011
39.585,-0.018
39.590,-0.020
39.595,-0.016
39.600,-0.018
39.605,-0.023
39.610,-0.026
39.615,-0.026
39.620,-0.026
39.625,-0.035
39.630,-0.048
39.635,-0.063
39.640,-0.081
39.645,-0.092
39.650,-0.092
39.655,-0.083
39.660,-0.076
39.665,-0.071
39.670,-0.074
39.675,-0.095
39.680,-0.116
39.685,-0.122
39.690,-0.114
39.695,-0.093
39.700,-0.069
39.705,-0.044
39.710,-0.025
39.715,-0.016
39.720,-0.007
39.725,0.003
39.730,0.005
39.735,0.011
39.740,0.024
39.745,0.036
39.750,0.036
39.755,0.030
39.760,0.026
39.765,0.024
39.770,0.018
39.775,0.013
39.780,0.013
39.785,0.013
39.790,0.009
39.795,0.008
39.800,0.028
39.805,0.083
39.810,0.112
39.815,0.022
39.820,-0.191
39.825,-0.490
39.830,-0.834
39.835,-1.148
39.840,-1.239
39.845,-0.941
39.850,-0.438
39.855,-0.002
39.860,0.280
39.865,0.422
39.870,0.486
39.875,0.475
39.880,0.386
39.885,0.309
39.890,0.265
39.895,0.225
39.900,0.202
39.905,0.187
39.910,0.162
39.915,0.141
39.920,0.136
39.925,0.127
39.930,0.114
39.935,0.109
39.940,0.100
39.945,0.086
39.950,0.077
39.955,0.070
39.960,0.060
39.965,0.050
39.970,0.044
39.975,0.036
39.980,0.028
39.985,0.019
39.990,0.009
39.995,0.000
40.000,-0.011
40.005,-0.022
40.010,-0.036
40.015,-0.054
40.020,-0.068
40.025,-0.079
40.030,-0.094
40.035,-0.111
40.040,-0.130
40.045,-0.147
40.050,-0.165
40.055,-0.183
40.060,-0.201
40.065,-0.217
40.070,-0.229
40.075,-0.239
40.080,-0.242
40.085,-0.241
40.090,-0.238
40.095,-0.233
40.100,-0.225
40.105,-0.209
40.110,-0.185
40.115,-0.159
40.120,-0.131
40.125,-0.096
40.130,-0.060
40.135,-0.023
40.140,0.014
40.145,0.051
40.150,0.087
40.155,0.119
40.160,0.145
40.165,0.166
40.170,0.186
40.175,0.203
40.180,0.213
40.185,0.214
40.190,0.212
40.195,0.213
40.200,0.212
40.205,0.210
40.210,0.203
40.215,0.194
40.220,0.185
40.225,0.173
40.230,0.164
40.235,0.155
40.240,0.146
40.245,0.138
40.250,0.133
40.255,0.129
40.260,0.120
40.265,0.111
40.270,0.103
40.275,0.099
40.280,0.096
40.285,0.095
40.290,0.092
40.295,0.089
40.300,0.086
40.305,0.082
40.310,0.079
40.315,0.074
40.320,0.067
40.325,0.064
40.330,0.065
40.335,0.066
40.340,0.063
40.345,0.058
40.350,0.049
40.355,0.047
40.360,0.047
40.365,0.040
40.370,0.035
40.375,0.035
40.380,0.038
40.385,0.039
40.390,0.033
40.395,0.028
40.400,0.027
40.405,0.021
40.410,0.012
40.415,0.008
40.420,0.007
40.425,0.004
40.430,0.002
40.435,-0.002
40.440,-0.003
40.445,-0.002
40.450,-0.011
40.455,-0.017
40.460,-0.017
40.465,-0.015
40.470,-0.015
40.475,-0.019
40.480,-0.023
40.485,-0.022
40.490,-0.022
40.495,-0.027
40.500,-0.035
40.505,-0.056
40.510,-0.081
40.515,-0.092
40.520,-0.091
40.525,-0.084
40.530,-0.077
40.535,-0.071
40.540,-0.073
40.545,-0.093
40.550,-0.117
40.555,-0.125
40.560,-0.118
40.565,-0.099
40.570,-0.073
40.575,-0.047
40.580,-0.026
40.585,-0.015
40.590,0.000
40.595,0.011
40.600,0.007
40.605,0.013
40.610,0.028
40.615,0.036
40.620,0.036
40.625,0.030
40.630,0.029
40.635,0.032
40.640,0.028
40.645,0.024
40.650,0.020
40.655,0.012
40.660,0.004
40.665,0.003
40.670,0.028
40.675,0.086
40.680,0.116
40.685,0.029
40.690,-0.176
40.695,-0.462
40.700,-0.802
40.705,-1.125
40.710,-1.227
40.715,-0.938
40.720,-0.437
40.725,-0.015
40.730,0.250
40.735,0.397
40.740,0.477
40.745,0.474
40.750,0.388
40.755,0.307
40.760,0.262
40.765,0.223
40.770,0.198
40.775,0.186
40.780,0.164
40.785,0.141
40.790,0.131
40.795,0.117
40.800,0.100
40.805,0.093
40.810,0.090
40.815,0.084
40.820,0.080
40.825,0.070
40.830,0.055
40.835,0.045
40.840,0.042
40.845,0.035
40.850,0.022
40.855,0.013
40.860,0.001
40.865,-0.010
40.870,-0.020
40.875,-0.035
40.880,-0.047
40.885,-0.057
40.890,-0.070
40.895,-0.084
40.900,-0.100
40.905,-0.114
40.910,-0.125
40.915,-0.141
40.920,-0.164
40.925,-0.185
40.930,-0.202
40.935,-0.216
40.940,-0.226
40.945,-0.234
40.950,-0.234
40.955,-0.226
40.960,-0.223
40.965,-0.224
40.970,-0.219
40.975,-0.207
40.980,-0.184
40.985,-0.159
40.990,-0.136
40.995,-0.107
41.000,-0.071
41.005,-0.030
41.010,0.011
41.015,0.047
41.020,0.083
41.025,0.118
41.030,0.148
41.035,0.172
41.040,0.193
41.045,0.209
41.050,0.212
41.055,0.212
41.060,0.213
41.065,0.212
41.070,0.209
41.075,0.205
41.080,0.202
41.085,0.191
41.090,0.171
41.095,0.161
41.100,0.155
41.105,0.149
41.110,0.142
41.115,0.137
41.120,0.135
41.125,0.121
41.130,0.103
41.135,0.096
41.140,0.098
41.145,0.097
41.150,0.094
41.155,0.093
41.160,0.090
41.165,0.084
41.170,0.079
41.175,0.074
41.180,0.072
41.185,0.067
41.190,0.066
41.195,0.072
41.200,0.073
41.205,0.064
41.210,0.054
41.215,0.052
41.220,0.050
41.225,0.047
41.230,0.045
41.235,0.043
41.240,0.045
41.245,0.046
41.250,0.035
41.255,0.026
41.260,0.018
41.265,0.012
41.270,0.017
41.275,0.018
41.280,0.014
41.285,0.013
41.290,0.013
41.295,0.011
41.300,0.005
41.305,-0.005
41.310,-0.006
41.315,-0.005
41.320,-0.015
41.325,-0.022
41.330,-0.019
41.335,-0.014
41.340,-0.012
41.345,-0.018
41.350,-0.034
41.355,-0.043
41.360,-0.057
41.365,-0.076
41.370,-0.082
41.375,-0.081
41.380,-0.075
41.385,-0.067
41.390,-0.065
41.395,-0.068
41.400,-0.079
41.405,-0.096
41.410,-0.107
41.415,-0.108
41.420,-0.095
41.425,-0.076
41.430,-0.053
41.435,-0.037
41.440,-0.030
41.445,-0.019
41.450,-0.007
41.455,-0.005
41.460,0.001
41.465,0.016
41.470,0.031
41.475,0.037
41.480,0.035
41.485,0.031
41.490,0.025
41.495,0.018
41.500,0.015
41.505,0.014
41.510,0.013
41.515,0.008
41.520,0.008
41.525,0.032
41.530,0.081
41.535,0.113
41.540,0.041
41.545,-0.160
41.550,-0.447
41.555,-0.783
41.560,-1.113
41.565,-1.254
41.570,-1.001
41.575,-0.497
41.580,-0.066
41.585,0.198
41.590,0.368
41.595,0.482
41.600,0.509
41.605,0.436
41.610,0.346
41.615,0.297
41.620,0.249
41.625,0.206
41.630,0.193
41.635,0.174
41.640,0.147
41.645,0.137
41.650,0.130
41.655,0.118
41.660,0.110
41.665,0.099
41.670,0.083
41.675,0.069
41.680,0.062
41.685,0.058
41.690,0.055
41.695,0.050
41.700,0.036
41.705,0.022
41.710,0.012
41.715,0.003
41.720,-0.005
41.725,-0.015
41.730,-0.023
41.735,-0.034
41.740,-0.052
41.745,-0.067
41.750,-0.079
41.755,-0.097
41.760,-0.116
41.765,-0.131
41.770,-0.144
41.775,-0.159
41.780,-0.178
41.785,-0.200
41.790,-0.218
41.795,-0.228
41.800,-0.234
41.805,-0.231
41.810,-0.224
41.815,-0.223
41.820,-0.217
41.825,-0.207
41.830,-0.196
41.835,-0.180
41.840,-0.157
41.845,-0.127
41.850,-0.095
41.855,-0.060
41.860,-0.031
41.865,0.001
41.870,0.038
41.875,0.072
41.880,0.108
41.885,0.141
41.890,0.163
41.895,0.179
41.900,0.188
41.905,0.193
41.910,0.201
41.915,0.208
41.920,0.208
41.925,0.206
41.930,0.200
41.935,0.194
41.940,0.189
41.945,0.182
41.950,0.170
41.955,0.159
41.960,0.146
41.965,0.132
41.970,0.122
41.975,0.113
41.980,0.108
41.985,0.106
41.990,0.100
41.995,0.099
42.000,0.094
42.005,0.084
42.010,0.080
42.015,0.079
42.020,0.075
42.025,0.073
42.030,0.072
42.035,0.072
42.040,0.070
42.045,0.068
42.050,0.069
42.055,0.070
42.060,0.070
42.065,0.064
42.070,0.054
42.075,0.047
42.080,0.044
42.085,0.043
42.090,0.044
42.095,0.044
42.100,0.045
42.105,0.043
42.110,0.037
42.115,0.028
42.120,0.024
42.125,0.021
42.130,0.012
42.135,0.007
42.140,0.004
42.145,0.001
42.150,0.001
42.155,0.001
42.160,-0.005
42.165,-0.008
42.170,-0.008
42.175,-0.009
42.180,-0.010
42.185,-0.012
42.190,-0.014
42.195,-0.014
42.200,-0.019
42.205,-0.026
42.210,-0.031
42.215,-0.042
42.220,-0.061
42.225,-0.077
42.230,-0.079
42.235,-0.073
42.240,-0.066
42.245,-0.065
42.250,-0.068
42.255,-0.075
42.260,-0.096
42.265,-0.114
42.270,-0.118
42.275,-0.109
42.280,-0.087
42.285,-0.066
42.290,-0.046
42.295,-0.027
42.300,-0.018
42.305,-0.006
42.310,0.000
42.315,0.001
42.320,0.016
42.325,0.032
42.330,0.040
42.335,0.035
42.340,0.023
42.345,0.026
42.350,0.028
42.355,0.018
42.360,0.011
42.365,0.008
42.370,0.010
42.375,0.009
42.380,0.016
42.385,0.058
42.390,0.114
42.395,0.089
42.400,-0.070
42.405,-0.331
42.410,-0.657
42.415,-1.006
42.420,-1.241
42.425,-1.131
42.430,-0.684
42.435,-0.207
42.440,0.124
42.445,0.328
42.450,0.452
42.455,0.500
42.460,0.443
42.465,0.346
42.470,0.292
42.475,0.252
42.480,0.214
42.485,0.196
42.490,0.179
42.495,0.156
42.500,0.145
42.505,0.142
42.510,0.132
42.515,0.118
42.520,0.108
42.525,0.095
42.530,0.080
42.535,0.074
42.540,0.070
42.545,0.061
42.550,0.052
42.555,0.043
42.560,0.032
42.565,0.020
42.570,0.010
42.575,0.000
42.580,-0.011
42.585,-0.020
42.590,-0.030
42.595,-0.039
42.600,-0.048
42.605,-0.062
42.610,-0.082
42.615,-0.101
42.620,-0.116
42.625,-0.136
42.630,-0.158
42.635,-0.179
42.640,-0.194
42.645,-0.206
42.650,-0.224
42.655,-0.239
42.660,-0.244
42.665,-0.240
42.670,-0.235
42.675,-0.230
42.680,-0.220
42.685,-0.205
42.690,-0.189
42.695,-0.169
42.700,-0.144
42.705,-0.111
42.710,-0.075
42.715,-0.041
42.720,-0.004
42.725,0.033
42.730,0.069
42.735,0.104
42.740,0.135
42.745,0.161
42.750,0.180
42.755,0.193
42.760,0.205
42.765,0.215
42.770,0.220
42.775,0.217
42.780,0.209
42.785,0.203
42.790,0.199
42.795,0.190
42.800,0.180
42.805,0.172
42.810,0.163
42.815,0.156
42.820,0.146
42.825,0.135
42.830,0.127
42.835,0.120
42.840,0.116
42.845,0.110
42.850,0.100
42.855,0.093
42.860,0.092
42.865,0.088
42.870,0.084
42.875,0.081
42.880,0.077
42.885,0.074
42.890,0.074
42.895,0.074
42.900,0.072
42.905,0.067
42.910,0.064
42.915,0.065
42.920,0.065
42.925,0.062
42.930,0.057
42.935,0.053
42.940,0.049
42.945,0.046
42.950,0.043
42.955,0.039
42.960,0.036
42.965,0.033
42.970,0.031
42.975,0.025
42.980,0.019
42.985,0.014
42.990,0.010
42.995,0.013
43.000,0.012
43.005,0.009
43.010,0.004
43.015,0.000
43.020,0.001
43.025,-0.002
43.030,-0.010
43.035,-0.017
43.040,-0.019
43.045,-0.016
43.050,-0.017
43.055,-0.019
43.060,-0.023
43.065,-0.025
43.070,-0.028
43.075,-0.036
43.080,-0.044
43.085,-0.057
43.090,-0.075
43.095,-0.083
43.100,-0.083
43.105,-0.080
43.110,-0.074
43.115,-0.069
43.120,-0.074
43.125,-0.093
43.130,-0.112
43.135,-0.115
43.140,-0.107
43.145,-0.090
43.150,-0.068
43.155,-0.044
43.160,-0.025
43.165,-0.017
43.170,-0.006
43.175,0.006
43.180,0.007
43.185,0.015
43.190,0.027
43.195,0.036
43.200,0.037
43.205,0.035
43.210,0.033
43.215,0.030
43.220,0.025
43.225,0.021
43.230,0.017
43.235,0.014
43.240,0.010
43.245,0.012
43.250,0.044
43.255,0.098
43.260,0.103
43.265,-0.013
43.270,-0.242
43.275,-0.548
43.280,-0.894
43.285,-1.188
43.290,-1.213
43.295,-0.851
43.300,-0.341
43.305,0.065
43.310,0.310
43.315,0.431
43.320,0.486
43.325,0.462
43.330,0.370
43.335,0.297
43.340,0.253
43.345,0.215
43.350,0.197
43.355,0.181
43.360,0.158
43.365,0.145
43.370,0.139
43.375,0.124
43.380,0.109
43.385,0.102
43.390,0.093
43.395,0.079
43.400,0.068
43.405,0.064
43.410,0.059
43.415,0.050
43.420,0.041
43.425,0.031
43.430,0.023
43.435,0.017
43.440,0.008
43.445,-0.001
43.450,-0.011
43.455,-0.024
43.460,-0.039
43.465,-0.054
43.470,-0.066
43.475,-0.081
43.480,-0.097
43.485,-0.115
43.490,-0.132
43.495,-0.150
43.500,-0.169
43.505,-0.185
43.510,-0.201
43.515,-0.217
43.520,-0.229
43.525,-0.238
43.530,-0.242
43.535,-0.242
43.540,-0.239
43.545,-0.230
43.550,-0.219
43.555,-0.204
43.560,-0.187
43.565,-0.163
43.570,-0.130
43.575,-0.092
43.580,-0.052
43.585,-0.017
43.590,0.015
43.595,0.053
43.600,0.092
43.605,0.124
43.610,0.152
43.615,0.175
43.620,0.193
43.625,0.206
43.630,0.213
43.635,0.214
43.640,0.213
43.645,0.210
43.650,0.205
43.655,0.203
43.660,0.199
43.665,0.188
43.670,0.179
43.675,0.171
43.680,0.165
43.685,0.160
43.690,0.153
43.695,0.145
43.700,0.136
43.705,0.126
43.710,0.115
43.715,0.106
43.720,0.102
43.725,0.098
43.730,0.094
43.735,0.089
43.740,0.084
43.745,0.080
43.750,0.078
43.755,0.077
43.760,0.076
43.765,0.076
43.770,0.075
43.775,0.072
43.780,0.067
43.785,0.060
43.790,0.058
43.795,0.063
43.800,0.063
43.805,0.056
43.810,0.049
43.815,0.041
43.820,0.038
43.825,0.037
43.830,0.033
43.835,0.026
43.840,0.021
43.845,0.018
43.850,0.017
43.855,0.019
43.860,0.017
43.865,0.012
43.870,0.005
43.875,0.000
43.880,-0.001
43.885,0.000
43.890,-0.004
43.895,-0.011
43.900,-0.016
43.905,-0.018
43.910,-0.019
43.915,-0.019
43.920,-0.020
43.925,-0.019
43.930,-0.017
43.935,-0.017
43.940,-0.022
43.945,-0.029
43.950,-0.033
43.955,-0.042
43.960,-0.059
43.965,-0.078
43.970,-0.088
43.975,-0.087
43.980,-0.085
43.985,-0.085
43.990,-0.082
43.995,-0.083
44.000,-0.100
44.005,-0.119
44.010,-0.124
44.015,-0.112
44.020,-0.085
44.025,-0.062
44.030,-0.045
44.035,-0.035
44.040,-0.027
44.045,-0.006
44.050,0.008
44.055,0.012
44.060,0.023
44.065,0.036
44.070,0.044
44.075,0.039
44.080,0.027
44.085,0.023
44.090,0.020
44.095,0.015
44.100,0.014
44.105,0.012
44.110,0.011
44.115,0.006
44.120,0.010
44.125,0.044
44.130,0.100
44.135,0.101
44.140,-0.022
44.145,-0.249
44.150,-0.543
44.155,-0.880
44.160,-1.171
44.165,-1.182
44.170,-0.807
44.175,-0.307
44.180,0.076
44.185,0.308
44.190,0.431
44.195,0.489
44.200,0.456
44.205,0.361
44.210,0.296
44.215,0.254
44.220,0.212
44.225,0.192
44.230,0.176
44.235,0.149
44.240,0.133
44.245,0.131
44.250,0.122
44.255,0.108
44.260,0.097
44.265,0.088
44.270,0.079
44.275,0.070
44.280,0.064
44.285,0.057
44.290,0.048
44.295,0.040
44.300,0.027
44.305,0.018
44.310,0.016
44.315,0.008
44.320,0.000
44.325,-0.010
44.330,-0.029
44.335,-0.048
44.340,-0.058
44.345,-0.065
44.350,-0.076
44.355,-0.095
44.360,-0.115
44.365,-0.136
44.370,-0.154
44.375,-0.170
44.380,-0.187
44.385,-0.204
44.390,-0.217
44.395,-0.229
44.400,-0.237
44.405,-0.237
44.410,-0.235
44.415,-0.233
44.420,-0.227
44.425,-0.215
44.430,-0.199
44.435,-0.180
44.440,-0.158
44.445,-0.125
44.450,-0.086
44.455,-0.047
44.460,-0.011
44.465,0.021
44.470,0.053
44.475,0.086
44.480,0.119
44.485,0.149
44.490,0.172
44.495,0.190
44.500,0.203
44.505,0.211
44.510,0.215
44.515,0.215
44.520,0.207
44.525,0.204
44.530,0.204
44.535,0.193
44.540,0.183
44.545,0.177
44.550,0.170
44.555,0.161
44.560,0.150
44.565,0.140
44.570,0.136
44.575,0.132
44.580,0.124
44.585,0.118
44.590,0.112
44.595,0.100
44.600,0.088
44.605,0.086
44.610,0.089
44.615,0.087
44.620,0.085
44.625,0.081
44.630,0.081
44.635,0.080
44.640,0.069
44.645,0.062
44.650,0.059
44.655,0.054
44.660,0.049
44.665,0.048
44.670,0.052
44.675,0.052
44.680,0.050
44.685,0.048
44.690,0.044
44.695,0.043
44.700,0.039
44.705,0.030
44.710,0.023
44.715,0.019
44.720,0.021
44.725,0.023
44.730,0.022
44.735,0.020
44.740,0.012
44.745,0.005
44.750,0.003
44.755,0.003
44.760,0.000
44.765,-0.010
44.770,-0.019
44.775,-0.021
44.780,-0.023
44.785,-0.024
44.790,-0.026
44.795,-0.030
44.800,-0.033
44.805,-0.030
44.810,-0.028
44.815,-0.039
44.820,-0.058
44.825,-0.073
44.830,-0.080
44.835,-0.076
44.840,-0.069
44.845,-0.065
44.850,-0.071
44.855,-0.092
44.860,-0.117
44.865,-0.128
44.870,-0.127
44.875,-0.111
44.880,-0.079
44.885,-0.046
44.890,-0.031
44.895,-0.021
44.900,-0.009
44.905,-0.006
44.910,-0.004
44.915,0.004
44.920,0.017
44.925,0.034
44.930,0.037
44.935,0.026
44.940,0.021
44.945,0.017
44.950,0.010
44.955,0.011
44.960,0.012
44.965,0.005
44.970,0.000
44.975,0.003
44.980,0.028
44.985,0.077
44.990,0.115
44.995,0.059
45.000,-0.133
45.005,-0.424
45.010,-0.766
45.015,-1.109
45.020,-1.271
45.025,-1.044
45.030,-0.542
45.035,-0.081
45.040,0.200
45.045,0.359
45.050,0.463
45.055,0.498
45.060,0.440
45.065,0.357
45.070,0.300
45.075,0.245
45.080,0.203
45.085,0.192
45.090,0.180
45.095,0.154
45.100,0.134
45.105,0.122
45.110,0.105
45.115,0.091
45.120,0.086
45.125,0.078
45.130,0.073
45.135,0.075
45.140,0.068
45.145,0.054
45.150,0.044
45.155,0.035
45.160,0.025
45.165,0.019
45.170,0.009
45.175,-0.007
45.180,-0.018
45.185,-0.024
45.190,-0.035
45.195,-0.050
45.200,-0.066
45.205,-0.079
45.210,-0.089
45.215,-0.106
45.220,-0.126
45.225,-0.143
45.230,-0.158
45.235,-0.172
45.240,-0.190
45.245,-0.211
45.250,-0.229
45.255,-0.234
45.260,-0.235
45.265,-0.235
45.270,-0.224
45.275,-0.213
45.280,-0.208
45.285,-0.198
45.290,-0.183
45.295,-0.158
45.300,-0.128
45.305,-0.100
45.310,-0.063
45.315,-0.020
45.320,0.020
45.325,0.052
45.330,0.076
45.335,0.101
45.340,0.131
45.345,0.154
45.350,0.171
45.355,0.184
45.360,0.193
45.365,0.206
45.370,0.214
45.375,0.212
45.380,0.207
45.385,0.201
45.390,0.195
45.395,0.188
45.400,0.176
45.405,0.164
45.410,0.149
45.415,0.135
45.420,0.127
45.425,0.121
45.430,0.119
45.435,0.115
45.440,0.111
45.445,0.103
45.450,0.088
45.455,0.076
45.460,0.066
45.465,0.058
45.470,0.058
45.475,0.063
45.480,0.073
45.485,0.074
45.490,0.069
45.495,0.069
45.500,0.062
45.505,0.055
45.510,0.057
45.515,0.056
45.520,0.051
45.525,0.045
45.530,0.044
45.535,0.049
45.540,0.048
45.545,0.043
45.550,0.037
45.555,0.033
45.560,0.029
45.565,0.024
45.570,0.021
