'Elapsed time','ECG'
'seconds','mV'
0.000,-0.088
0.005,-0.082
0.010,-0.047
0.015,-0.035
0.020,0.000
0.025,0.027
0.030,0.010
0.035,0.030
0.040,0.040
0.045,0.018
0.050,0.024
0.055,0.027
0.060,0.013
0.065,-0.001
0.070,0.002
0.075,0.003
0.080,-0.015
0.085,-0.015
0.090,-0.019
0.095,-0.027
0.100,-0.023
0.105,-0.032
0.110,-0.044
0.115,-0.058
0.120,-0.061
0.125,-0.052
0.130,-0.060
0.135,-0.067
0.140,-0.079
0.145,-0.088
0.150,-0.083
0.155,-0.085
0.160,-0.085
0.165,-0.090
0.170,-0.091
0.175,-0.089
0.180,-0.099
0.185,-0.091
0.190,-0.091
0.195,-0.099
0.200,-0.093
0.205,-0.090
0.210,-0.083
0.215,-0.081
0.220,-0.082
0.225,-0.075
0.230,-0.074
0.235,-0.070
0.240,-0.073
0.245,-0.072
0.250,-0.068
0.255,-0.072
0.260,-0.065
0.265,-0.067
0.270,-0.061
0.275,-0.050
0.280,-0.060
0.285,-0.061
0.290,-0.057
0.295,-0.060
0.300,-0.055
0.305,-0.056
0.310,-0.046
0.315,-0.048
0.320,-0.049
0.325,-0.039
0.330,-0.049
0.335,-0.048
0.340,-0.047
0.345,-0.048
0.350,-0.035
0.355,-0.041
0.360,-0.049
0.365,-0.051
0.370,-0.043
0.375,-0.034
0.380,-0.040
0.385,-0.037
0.390,-0.040
0.395,-0.044
0.400,-0.037
0.405,-0.040
0.410,-0.036
0.415,-0.032
0.420,-0.030
0.425,-0.029
0.430,-0.037
0.435,-0.031
0.440,-0.026
0.445,-0.027
0.450,-0.029
0.455,-0.036
0.460,-0.024
0.465,-0.025
0.470,-0.034
0.475,-0.028
0.480,-0.034
0.485,-0.026
0.490,-0.021
0.495,-0.025
0.500,-0.013
0.505,-0.018
0.510,-0.019
0.515,-0.022
0.520,-0.024
0.525,-0.016
0.530,-0.022
0.535,-0.016
0.540,-0.012
0.545,-0.013
0.550,-0.012
0.555,-0.019
0.560,-0.014
0.565,-0.013
0.570,-0.011
0.575,-0.012
0.580,-0.021
0.585,-0.014
0.590,-0.005
0.595,-0.010
0.600,-0.029
0.605,-0.052
0.610,-0.051
0.615,-0.055
0.620,-0.066
0.625,-0.069
0.630,-0.072
0.635,-0.061
0.640,-0.058
0.645,-0.064
0.650,-0.058
0.655,-0.044
0.660,-0.003
0.665,0.027
0.670,0.022
0.675,0.022
0.680,0.026
0.685,0.047
0.690,0.074
0.695,0.086
0.700,0.092
0.705,0.086
0.710,0.081
0.715,0.072
0.720,0.070
0.725,0.071
0.730,0.053
0.735,0.059
0.740,0.100
0.745,0.202
0.750,0.319
0.755,0.320
0.760,0.175
0.765,-0.166
0.770,-0.712
0.775,-1.385
0.780,-1.874
0.785,-1.893
0.790,-1.509
0.795,-0.808
0.800,-0.182
0.805,0.065
0.810,0.129
0.815,0.162
0.820,0.277
0.825,0.412
0.830,0.410
0.835,0.402
0.840,0.445
0.845,0.442
0.850,0.412
0.855,0.407
0.860,0.411
0.865,0.382
0.870,0.363
0.875,0.363
0.880,0.340
0.885,0.324
0.890,0.313
0.895,0.296
0.900,0.280
0.905,0.260
0.910,0.246
0.915,0.224
0.920,0.209
0.925,0.204
0.930,0.180
0.935,0.165
0.940,0.153
0.945,0.133
0.950,0.119
0.955,0.099
0.960,0.085
0.965,0.062
0.970,0.038
0.975,0.028
0.980,0.000
0.985,-0.021
0.990,-0.043
0.995,-0.074
1.000,-0.094
1.005,-0.128
1.010,-0.154
1.015,-0.185
1.020,-0.221
1.025,-0.242
1.030,-0.273
1.035,-0.295
1.040,-0.317
1.045,-0.341
1.050,-0.350
1.055,-0.362
1.060,-0.357
1.065,-0.349
1.070,-0.341
1.075,-0.325
1.080,-0.313
1.085,-0.276
1.090,-0.224
1.095,-0.168
1.100,-0.100
1.105,-0.032
1.110,0.044
1.115,0.118
1.120,0.189
1.125,0.250
1.130,0.298
1.135,0.353
1.140,0.388
1.145,0.413
1.150,0.437
1.155,0.437
1.160,0.438
1.165,0.429
1.170,0.417
1.175,0.413
1.180,0.395
1.185,0.383
1.190,0.369
1.195,0.349
1.200,0.335
1.205,0.314
1.210,0.299
1.215,0.278
1.220,0.259
1.225,0.253
1.230,0.228
1.235,0.213
1.240,0.198
1.245,0.174
1.250,0.162
1.255,0.149
1.260,0.138
1.265,0.119
1.270,0.102
1.275,0.094
1.280,0.076
1.285,0.071
1.290,0.063
1.295,0.048
1.300,0.041
1.305,0.025
1.310,0.018
1.315,0.011
1.320,0.004
1.325,0.001
1.330,-0.012
1.335,-0.015
1.340,-0.018
1.345,-0.023
1.350,-0.024
1.355,-0.028
1.360,-0.026
1.365,-0.031
1.370,-0.035
1.375,-0.033
1.380,-0.044
1.385,-0.041
1.390,-0.040
1.395,-0.050
1.400,-0.051
1.405,-0.054
1.410,-0.046
1.415,-0.050
1.420,-0.055
1.425,-0.054
1.430,-0.065
1.435,-0.067
1.440,-0.070
1.445,-0.068
1.450,-0.064
1.455,-0.072
1.460,-0.065
1.465,-0.068
1.470,-0.075
1.475,-0.071
1.480,-0.081
1.485,-0.078
1.490,-0.076
1.495,-0.081
1.500,-0.076
1.505,-0.078
1.510,-0.074
1.515,-0.077
1.520,-0.082
1.525,-0.080
1.530,-0.087
1.535,-0.081
1.540,-0.079
1.545,-0.080
1.550,-0.074
1.555,-0.084
1.560,-0.084
1.565,-0.079
1.570,-0.077
1.575,-0.074
1.580,-0.085
1.585,-0.079
1.590,-0.073
1.595,-0.074
1.600,-0.068
1.605,-0.074
1.610,-0.074
1.615,-0.076
1.620,-0.076
1.625,-0.065
1.630,-0.070
1.635,-0.068
1.640,-0.066
1.645,-0.068
1.650,-0.059
1.655,-0.063
1.660,-0.059
1.665,-0.058
1.670,-0.063
1.675,-0.060
1.680,-0.066
1.685,-0.059
1.690,-0.049
1.695,-0.051
1.700,-0.049
1.705,-0.051
1.710,-0.044
1.715,-0.049
1.720,-0.053
1.725,-0.041
1.730,-0.047
1.735,-0.056
1.740,-0.080
1.745,-0.094
1.750,-0.088
1.755,-0.098
1.760,-0.101
1.765,-0.100
1.770,-0.094
1.775,-0.083
1.780,-0.088
1.785,-0.084
1.790,-0.074
1.795,-0.048
1.800,-0.003
1.805,0.009
1.810,0.006
1.815,0.007
1.820,0.017
1.825,0.043
1.830,0.053
1.835,0.064
1.840,0.069
1.845,0.065
1.850,0.063
1.855,0.056
1.860,0.053
1.865,0.049
1.870,0.052
1.875,0.070
1.880,0.125
1.885,0.243
1.890,0.308
1.895,0.232
1.900,-0.009
1.905,-0.456
1.910,-1.098
1.915,-1.729
1.920,-1.964
1.925,-1.743
1.930,-1.196
1.935,-0.496
1.940,-0.065
1.945,0.084
1.950,0.151
1.955,0.217
1.960,0.370
1.965,0.441
1.970,0.407
1.975,0.431
1.980,0.456
1.985,0.438
1.990,0.422
1.995,0.423
2.000,0.415
2.005,0.389
2.010,0.383
2.015,0.368
2.020,0.337
2.025,0.319
2.030,0.302
2.035,0.296
2.040,0.283
2.045,0.265
2.050,0.250
2.055,0.224
2.060,0.215
2.065,0.197
2.070,0.177
2.075,0.170
2.080,0.145
2.085,0.130
2.090,0.115
2.095,0.094
2.100,0.081
2.105,0.055
2.110,0.039
2.115,0.016
2.120,-0.011
2.125,-0.026
2.130,-0.057
2.135,-0.079
2.140,-0.106
2.145,-0.143
2.150,-0.174
2.155,-0.205
2.160,-0.226
2.165,-0.257
2.170,-0.290
2.175,-0.309
2.180,-0.335
2.185,-0.342
2.190,-0.348
2.195,-0.361
2.200,-0.358
2.205,-0.355
2.210,-0.337
2.215,-0.316
2.220,-0.291
2.225,-0.245
2.230,-0.200
2.235,-0.139
2.240,-0.070
2.245,0.005
2.250,0.089
2.255,0.152
2.260,0.217
2.265,0.280
2.270,0.334
2.275,0.379
2.280,0.398
2.285,0.421
2.290,0.436
2.295,0.435
2.300,0.432
2.305,0.419
2.310,0.415
2.315,0.406
2.320,0.388
2.325,0.379
2.330,0.360
2.335,0.345
2.340,0.326
2.345,0.301
2.350,0.288
2.355,0.271
2.360,0.258
2.365,0.239
2.370,0.219
2.375,0.206
2.380,0.184
2.385,0.173
2.390,0.158
2.395,0.139
2.400,0.132
2.405,0.116
2.410,0.103
2.415,0.084
2.420,0.068
2.425,0.067
2.430,0.049
2.435,0.036
2.440,0.032
2.445,0.022
2.450,0.015
2.455,0.002
2.460,-0.004
2.465,-0.007
2.470,-0.012
2.475,-0.011
2.480,-0.023
2.485,-0.025
2.490,-0.031
2.495,-0.041
2.500,-0.035
2.505,-0.036
2.510,-0.035
2.515,-0.045
2.520,-0.054
2.525,-0.044
2.530,-0.048
2.535,-0.045
2.540,-0.048
2.545,-0.058
2.550,-0.053
2.555,-0.063
2.560,-0.062
2.565,-0.061
2.570,-0.066
2.575,-0.058
2.580,-0.070
2.585,-0.068
2.590,-0.062
2.595,-0.074
2.600,-0.074
2.605,-0.078
2.610,-0.076
2.615,-0.073
2.620,-0.079
2.625,-0.078
2.630,-0.084
2.635,-0.079
2.640,-0.076
2.645,-0.082
2.650,-0.081
2.655,-0.082
2.660,-0.075
2.665,-0.078
2.670,-0.083
2.675,-0.076
2.680,-0.083
2.685,-0.083
2.690,-0.083
2.695,-0.082
2.700,-0.071
2.705,-0.074
2.710,-0.073
2.715,-0.075
2.720,-0.076
2.725,-0.072
2.730,-0.080
2.735,-0.074
2.740,-0.077
2.745,-0.080
2.750,-0.067
2.755,-0.072
2.760,-0.069
2.765,-0.071
2.770,-0.072
2.775,-0.057
2.780,-0.064
2.785,-0.061
2.790,-0.059
2.795,-0.065
2.800,-0.057
2.805,-0.061
2.810,-0.057
2.815,-0.052
2.820,-0.056
2.825,-0.051
2.830,-0.056
2.835,-0.052
2.840,-0.050
2.845,-0.053
2.850,-0.044
2.855,-0.044
2.860,-0.049
2.865,-0.075
2.870,-0.097
2.875,-0.084
2.880,-0.086
2.885,-0.092
2.890,-0.099
2.895,-0.107
2.900,-0.096
2.905,-0.095
2.910,-0.090
2.915,-0.080
2.920,-0.063
2.925,-0.028
2.930,-0.005
2.935,0.006
2.940,0.004
2.945,0.006
2.950,0.027
2.955,0.042
2.960,0.062
2.965,0.068
2.970,0.062
2.975,0.063
2.980,0.052
2.985,0.056
2.990,0.054
2.995,0.040
3.000,0.048
3.005,0.079
3.010,0.187
3.015,0.302
3.020,0.302
3.025,0.160
3.030,-0.186
3.035,-0.740
3.040,-1.422
3.045,-1.885
3.050,-1.889
3.055,-1.527
3.060,-0.837
3.065,-0.208
3.070,0.065
3.075,0.145
3.080,0.162
3.085,0.280
3.090,0.418
3.095,0.408
3.100,0.391
3.105,0.437
3.110,0.449
3.115,0.410
3.120,0.411
3.125,0.415
3.130,0.376
3.135,0.367
3.140,0.365
3.145,0.340
3.150,0.320
3.155,0.299
3.160,0.287
3.165,0.272
3.170,0.258
3.175,0.252
3.180,0.226
3.185,0.209
3.190,0.196
3.195,0.179
3.200,0.172
3.205,0.150
3.210,0.132
3.215,0.115
3.220,0.097
3.225,0.088
3.230,0.061
3.235,0.044
3.240,0.028
3.245,0.000
3.250,-0.022
3.255,-0.050
3.260,-0.069
3.265,-0.092
3.270,-0.125
3.275,-0.155
3.280,-0.201
3.285,-0.231
3.290,-0.253
3.295,-0.283
3.300,-0.305
3.305,-0.334
3.310,-0.346
3.315,-0.353
3.320,-0.359
3.325,-0.355
3.330,-0.365
3.335,-0.352
3.340,-0.332
3.345,-0.315
3.350,-0.274
3.355,-0.229
3.360,-0.170
3.365,-0.104
3.370,-0.031
3.375,0.052
3.380,0.121
3.385,0.193
3.390,0.256
3.395,0.307
3.400,0.360
3.405,0.388
3.410,0.419
3.415,0.438
3.420,0.445
3.425,0.453
3.430,0.434
3.435,0.426
3.440,0.424
3.445,0.405
3.450,0.389
3.455,0.364
3.460,0.352
3.465,0.342
3.470,0.321
3.475,0.303
3.480,0.283
3.485,0.271
3.490,0.252
3.495,0.231
3.500,0.220
3.505,0.203
3.510,0.191
3.515,0.171
3.520,0.151
3.525,0.140
3.530,0.118
3.535,0.105
3.540,0.094
3.545,0.082
3.550,0.079
3.555,0.062
3.560,0.050
3.565,0.038
3.570,0.025
3.575,0.024
3.580,0.014
3.585,0.010
3.590,0.005
3.595,-0.008
3.600,-0.010
3.605,-0.016
3.610,-0.021
3.615,-0.023
3.620,-0.027
3.625,-0.026
3.630,-0.036
3.635,-0.038
3.640,-0.035
3.645,-0.040
3.650,-0.043
3.655,-0.052
3.660,-0.051
3.665,-0.055
3.670,-0.055
3.675,-0.046
3.680,-0.056
3.685,-0.055
3.690,-0.056
3.695,-0.064
3.700,-0.064
3.705,-0.072
3.710,-0.067
3.715,-0.065
3.720,-0.068
3.725,-0.065
3.730,-0.080
3.735,-0.083
3.740,-0.076
3.745,-0.079
3.750,-0.072
3.755,-0.075
3.760,-0.079
3.765,-0.077
3.770,-0.080
3.775,-0.078
3.780,-0.083
3.785,-0.082
3.790,-0.082
3.795,-0.089
3.800,-0.082
3.805,-0.082
3.810,-0.077
3.815,-0.079
3.820,-0.086
3.825,-0.079
3.830,-0.081
3.835,-0.074
3.840,-0.075
3.845,-0.083
3.850,-0.071
3.855,-0.077
3.860,-0.074
3.865,-0.069
3.870,-0.074
3.875,-0.069
3.880,-0.078
3.885,-0.074
3.890,-0.066
3.895,-0.071
3.900,-0.071
3.905,-0.071
3.910,-0.059
3.915,-0.057
3.920,-0.072
3.925,-0.088
3.930,-0.112
3.935,-0.114
3.940,-0.108
3.945,-0.112
3.950,-0.112
3.955,-0.117
3.960,-0.113
3.965,-0.110
3.970,-0.109
3.975,-0.092
3.980,-0.074
3.985,-0.043
3.990,-0.026
3.995,-0.026
4.000,-0.008
4.005,0.000
4.010,0.013
4.015,0.032
4.020,0.041
4.025,0.054
4.030,0.045
4.035,0.037
4.040,0.036
4.045,0.032
4.050,0.030
4.055,0.024
4.060,0.035
4.065,0.087
4.070,0.207
4.075,0.306
4.080,0.271
4.085,0.084
4.090,-0.312
4.095,-0.923
4.100,-1.605
4.105,-1.971
4.110,-1.827
4.115,-1.315
4.120,-0.586
4.125,-0.081
4.130,0.062
4.135,0.110
4.140,0.163
4.145,0.297
4.150,0.405
4.155,0.376
4.160,0.376
4.165,0.421
4.170,0.410
4.175,0.389
4.180,0.386
4.185,0.378
4.190,0.353
4.195,0.340
4.200,0.340
4.205,0.313
4.210,0.299
4.215,0.290
4.220,0.266
4.225,0.254
4.230,0.237
4.235,0.227
4.240,0.214
4.245,0.192
4.250,0.184
4.255,0.164
4.260,0.150
4.265,0.138
4.270,0.117
4.275,0.106
4.280,0.081
4.285,0.066
4.290,0.055
4.295,0.028
4.300,0.009
4.305,-0.020
4.310,-0.041
4.315,-0.058
4.320,-0.087
4.325,-0.110
4.330,-0.147
4.335,-0.174
4.340,-0.199
4.345,-0.241
4.350,-0.268
4.355,-0.294
4.360,-0.311
4.365,-0.327
4.370,-0.344
4.375,-0.348
4.380,-0.362
4.385,-0.361
4.390,-0.352
4.395,-0.341
4.400,-0.315
4.405,-0.292
4.410,-0.248
4.415,-0.195
4.420,-0.137
4.425,-0.057
4.430,0.011
4.435,0.086
4.440,0.164
4.445,0.227
4.450,0.292
4.455,0.339
4.460,0.377
4.465,0.404
4.470,0.423
4.475,0.440
4.480,0.437
4.485,0.438
4.490,0.433
4.495,0.420
4.500,0.413
4.505,0.390
4.510,0.374
4.515,0.359
4.520,0.340
4.525,0.330
4.530,0.307
4.535,0.289
4.540,0.274
4.545,0.249
4.550,0.237
4.555,0.222
4.560,0.211
4.565,0.196
4.570,0.176
4.575,0.165
4.580,0.144
4.585,0.132
4.590,0.117
4.595,0.098
4.600,0.092
4.605,0.078
4.610,0.070
4.615,0.057
4.620,0.041
4.625,0.038
4.630,0.024
4.635,0.018
4.640,0.012
4.645,-0.001
4.650,-0.003
4.655,-0.015
4.660,-0.015
4.665,-0.013
4.670,-0.019
4.675,-0.017
4.680,-0.028
4.685,-0.026
4.690,-0.024
4.695,-0.037
4.700,-0.036
4.705,-0.042
4.710,-0.040
4.715,-0.040
4.720,-0.049
4.725,-0.044
4.730,-0.055
4.735,-0.058
4.740,-0.052
4.745,-0.056
4.750,-0.055
4.755,-0.061
4.760,-0.063
4.765,-0.063
4.770,-0.066
4.775,-0.062
4.780,-0.070
4.785,-0.071
4.790,-0.067
4.795,-0.073
4.800,-0.070
4.805,-0.075
4.810,-0.076
4.815,-0.077
4.820,-0.080
4.825,-0.075
4.830,-0.077
4.835,-0.074
4.840,-0.077
4.845,-0.083
4.850,-0.075
4.855,-0.076
4.860,-0.077
4.865,-0.081
4.870,-0.083
4.875,-0.074
4.880,-0.079
4.885,-0.078
4.890,-0.076
4.895,-0.079
4.900,-0.072
4.905,-0.075
4.910,-0.072
4.915,-0.073
4.920,-0.077
4.925,-0.069
4.930,-0.071
4.935,-0.069
4.940,-0.070
4.945,-0.073
4.950,-0.061
4.955,-0.063
4.960,-0.065
4.965,-0.064
4.970,-0.064
4.975,-0.059
4.980,-0.067
4.985,-0.062
4.990,-0.055
4.995,-0.059
5.000,-0.054
5.005,-0.059
5.010,-0.054
5.015,-0.053
5.020,-0.057
5.025,-0.049
5.030,-0.066
5.035,-0.090
5.040,-0.095
5.045,-0.092
5.050,-0.092
5.055,-0.106
5.060,-0.106
5.065,-0.100
5.070,-0.097
5.075,-0.089
5.080,-0.091
5.085,-0.076
5.090,-0.050
5.095,-0.027
5.100,0.000
5.105,-0.002
5.110,-0.001
5.115,0.012
5.120,0.027
5.125,0.051
5.130,0.054
5.135,0.061
5.140,0.062
5.145,0.044
5.150,0.051
5.155,0.055
5.160,0.049
5.165,0.045
5.170,0.046
5.175,0.096
5.180,0.198
5.185,0.289
5.190,0.269
5.195,0.093
5.200,-0.264
5.205,-0.846
5.210,-1.529
5.215,-1.931
5.220,-1.885
5.225,-1.464
5.230,-0.766
5.235,-0.200
5.240,0.034
5.245,0.107
5.250,0.161
5.255,0.303
5.260,0.433
5.265,0.422
5.270,0.414
5.275,0.466
5.280,0.455
5.285,0.426
5.290,0.432
5.295,0.420
5.300,0.396
5.305,0.380
5.310,0.378
5.315,0.359
5.320,0.334
5.325,0.328
5.330,0.303
5.335,0.283
5.340,0.271
5.345,0.248
5.350,0.237
5.355,0.223
5.360,0.210
5.365,0.191
5.370,0.169
5.375,0.161
5.380,0.138
5.385,0.120
5.390,0.107
5.395,0.084
5.400,0.069
5.405,0.046
5.410,0.026
5.415,0.001
5.420,-0.026
5.425,-0.043
5.430,-0.076
5.435,-0.099
5.440,-0.124
5.445,-0.163
5.450,-0.190
5.455,-0.225
5.460,-0.254
5.465,-0.284
5.470,-0.314
5.475,-0.325
5.480,-0.346
5.485,-0.356
5.490,-0.359
5.495,-0.366
5.500,-0.354
5.505,-0.349
5.510,-0.335
5.515,-0.303
5.520,-0.263
5.525,-0.206
5.530,-0.154
5.535,-0.091
5.540,-0.008
5.545,0.076
5.550,0.152
5.555,0.210
5.560,0.269
5.565,0.325
5.570,0.369
5.575,0.409
5.580,0.422
5.585,0.435
5.590,0.442
5.595,0.435
5.600,0.433
5.605,0.419
5.610,0.409
5.615,0.397
5.620,0.375
5.625,0.362
5.630,0.343
5.635,0.333
5.640,0.316
5.645,0.288
5.650,0.274
5.655,0.256
5.660,0.247
5.665,0.231
5.670,0.213
5.675,0.205
5.680,0.177
5.685,0.163
5.690,0.154
5.695,0.130
5.700,0.119
5.705,0.103
5.710,0.092
5.715,0.081
5.720,0.064
5.725,0.060
5.730,0.047
5.735,0.037
5.740,0.026
5.745,0.010
5.750,0.006
5.755,-0.006
5.760,-0.009
5.765,-0.010
5.770,-0.018
5.775,-0.019
5.780,-0.029
5.785,-0.028
5.790,-0.028
5.795,-0.042
5.800,-0.043
5.805,-0.047
5.810,-0.045
5.815,-0.043
5.820,-0.049
5.825,-0.049
5.830,-0.061
5.835,-0.062
5.840,-0.055
5.845,-0.056
5.850,-0.053
5.855,-0.061
5.860,-0.065
5.865,-0.065
5.870,-0.071
5.875,-0.066
5.880,-0.069
5.885,-0.068
5.890,-0.069
5.895,-0.079
5.900,-0.077
5.905,-0.080
5.910,-0.075
5.915,-0.074
5.920,-0.078
5.925,-0.074
5.930,-0.085
5.935,-0.083
5.940,-0.080
5.945,-0.084
5.950,-0.075
5.955,-0.079
5.960,-0.081
5.965,-0.083
5.970,-0.085
5.975,-0.073
5.980,-0.082
5.985,-0.083
5.990,-0.077
5.995,-0.081
6.000,-0.075
6.005,-0.080
6.010,-0.083
6.015,-0.080
6.020,-0.076
6.025,-0.069
6.030,-0.079
6.035,-0.075
6.040,-0.070
6.045,-0.076
6.050,-0.071
6.055,-0.074
6.060,-0.068
6.065,-0.060
6.070,-0.064
6.075,-0.060
6.080,-0.065
6.085,-0.069
6.090,-0.061
6.095,-0.059
6.100,-0.055
6.105,-0.058
6.110,-0.058
6.115,-0.059
6.120,-0.059
6.125,-0.051
6.130,-0.056
6.135,-0.048
6.140,-0.045
6.145,-0.052
6.150,-0.043
6.155,-0.047
6.160,-0.045
6.165,-0.046
6.170,-0.049
6.175,-0.032
6.180,-0.035
6.185,-0.039
6.190,-0.038
6.195,-0.037
6.200,-0.027
6.205,-0.035
6.210,-0.039
6.215,-0.030
6.220,-0.022
6.225,-0.021
6.230,-0.053
6.235,-0.070
6.240,-0.067
6.245,-0.076
6.250,-0.076
6.255,-0.083
6.260,-0.085
6.265,-0.080
6.270,-0.081
6.275,-0.070
6.280,-0.066
6.285,-0.046
6.290,-0.016
6.295,0.003
6.300,0.017
6.305,0.017
6.310,0.024
6.315,0.035
6.320,0.051
6.325,0.077
6.330,0.076
6.335,0.080
6.340,0.078
6.345,0.065
6.350,0.070
6.355,0.061
6.360,0.058
6.365,0.060
6.370,0.079
6.375,0.182
6.380,0.295
6.385,0.314
6.390,0.194
6.395,-0.112
6.400,-0.623
6.405,-1.310
6.410,-1.825
6.415,-1.899
6.420,-1.610
6.425,-0.963
6.430,-0.299
6.435,0.032
6.440,0.133
6.445,0.154
6.450,0.262
6.455,0.412
6.460,0.426
6.465,0.397
6.470,0.443
6.475,0.467
6.480,0.423
6.485,0.415
6.490,0.424
6.495,0.395
6.500,0.377
6.505,0.368
6.510,0.351
6.515,0.330
6.520,0.321
6.525,0.312
6.530,0.283
6.535,0.272
6.540,0.259
6.545,0.230
6.550,0.217
6.555,0.200
6.560,0.186
6.565,0.169
6.570,0.151
6.575,0.144
6.580,0.119
6.585,0.101
6.590,0.083
6.595,0.057
6.600,0.048
6.605,0.033
6.610,0.011
6.615,-0.016
6.620,-0.047
6.625,-0.065
6.630,-0.094
6.635,-0.121
6.640,-0.152
6.645,-0.195
6.650,-0.222
6.655,-0.253
6.660,-0.278
6.665,-0.302
6.670,-0.332
6.675,-0.343
6.680,-0.358
6.685,-0.366
6.690,-0.368
6.695,-0.372
6.700,-0.357
6.705,-0.346
6.710,-0.325
6.715,-0.288
6.720,-0.247
6.725,-0.187
6.730,-0.128
6.735,-0.055
6.740,0.027
6.745,0.097
6.750,0.178
6.755,0.250
6.760,0.304
6.765,0.347
6.770,0.382
6.775,0.420
6.780,0.435
6.785,0.441
6.790,0.445
6.795,0.439
6.800,0.435
6.805,0.419
6.810,0.409
6.815,0.394
6.820,0.377
6.825,0.371
6.830,0.347
6.835,0.326
6.840,0.311
6.845,0.289
6.850,0.276
6.855,0.248
6.860,0.231
6.865,0.224
6.870,0.209
6.875,0.197
6.880,0.172
6.885,0.159
6.890,0.150
6.895,0.127
6.900,0.116
6.905,0.100
6.910,0.089
6.915,0.073
6.920,0.057
6.925,0.061
6.930,0.047
6.935,0.034
6.940,0.023
6.945,0.005
6.950,0.006
6.955,0.003
6.960,-0.006
6.965,-0.012
6.970,-0.021
6.975,-0.018
6.980,-0.024
6.985,-0.027
6.990,-0.029
6.995,-0.037
7.000,-0.036
7.005,-0.046
7.010,-0.045
7.015,-0.040
7.020,-0.047
7.025,-0.045
7.030,-0.055
7.035,-0.054
7.040,-0.048
7.045,-0.060
7.050,-0.063
7.055,-0.068
7.060,-0.065
7.065,-0.062
7.070,-0.064
7.075,-0.059
7.080,-0.073
7.085,-0.077
7.090,-0.070
7.095,-0.078
7.100,-0.077
7.105,-0.082
7.110,-0.081
7.115,-0.076
7.120,-0.079
7.125,-0.077
7.130,-0.083
7.135,-0.079
7.140,-0.080
7.145,-0.087
7.150,-0.078
7.155,-0.082
7.160,-0.080
7.165,-0.077
7.170,-0.083
7.175,-0.080
7.180,-0.090
7.185,-0.090
7.190,-0.081
7.195,-0.082
7.200,-0.077
7.205,-0.081
7.210,-0.078
7.215,-0.073
7.220,-0.080
7.225,-0.074
7.230,-0.075
7.235,-0.075
7.240,-0.073
7.245,-0.082
7.250,-0.080
7.255,-0.081
7.260,-0.074
7.265,-0.066
7.270,-0.068
7.275,-0.065
7.280,-0.067
7.285,-0.062
7.290,-0.058
7.295,-0.068
7.300,-0.063
7.305,-0.061
7.310,-0.061
7.315,-0.059
7.320,-0.060
7.325,-0.051
7.330,-0.053
7.335,-0.053
7.340,-0.047
7.345,-0.049
7.350,-0.043
7.355,-0.057
7.360,-0.078
7.365,-0.088
7.370,-0.094
7.375,-0.091
7.380,-0.101
7.385,-0.101
7.390,-0.093
7.395,-0.097
7.400,-0.093
7.405,-0.092
7.410,-0.082
7.415,-0.055
7.420,-0.024
7.425,-0.002
7.430,-0.006
7.435,-0.001
7.440,0.014
7.445,0.025
7.450,0.046
7.455,0.054
7.460,0.062
7.465,0.063
7.470,0.051
7.475,0.053
7.480,0.046
7.485,0.042
7.490,0.044
7.495,0.045
7.500,0.101
7.505,0.219
7.510,0.313
7.515,0.282
7.520,0.082
7.525,-0.306
7.530,-0.907
7.535,-1.578
7.540,-1.916
7.545,-1.805
7.550,-1.345
7.555,-0.626
7.560,-0.106
7.565,0.067
7.570,0.120
7.575,0.165
7.580,0.307
7.585,0.425
7.590,0.393
7.595,0.382
7.600,0.440
7.605,0.428
7.610,0.402
7.615,0.410
7.620,0.395
7.625,0.375
7.630,0.362
7.635,0.356
7.640,0.331
7.645,0.303
7.650,0.300
7.655,0.278
7.660,0.258
7.665,0.251
7.670,0.237
7.675,0.226
7.680,0.206
7.685,0.187
7.690,0.169
7.695,0.150
7.700,0.148
7.705,0.132
7.710,0.114
7.715,0.097
7.720,0.073
7.725,0.060
7.730,0.034
7.735,0.012
7.740,-0.002
7.745,-0.029
7.750,-0.049
7.755,-0.078
7.760,-0.108
7.765,-0.139
7.770,-0.173
7.775,-0.198
7.780,-0.232
7.785,-0.260
7.790,-0.286
7.795,-0.316
7.800,-0.331
7.805,-0.347
7.810,-0.357
7.815,-0.361
7.820,-0.363
7.825,-0.352
7.830,-0.348
7.835,-0.330
7.840,-0.297
7.845,-0.262
7.850,-0.207
7.855,-0.148
7.860,-0.078
7.865,-0.003
7.870,0.070
7.875,0.151
7.880,0.214
7.885,0.280
7.890,0.343
7.895,0.374
7.900,0.405
7.905,0.424
7.910,0.439
7.915,0.452
7.920,0.445
7.925,0.439
7.930,0.425
7.935,0.413
7.940,0.403
7.945,0.379
7.950,0.364
7.955,0.347
7.960,0.333
7.965,0.315
7.970,0.295
7.975,0.283
7.980,0.261
7.985,0.245
7.990,0.232
7.995,0.210
8.000,0.199
8.005,0.183
8.010,0.165
8.015,0.151
8.020,0.135
8.025,0.124
8.030,0.104
8.035,0.092
8.040,0.082
8.045,0.066
8.050,0.057
8.055,0.040
8.060,0.033
8.065,0.031
8.070,0.019
8.075,0.011
8.080,0.000
8.085,-0.004
8.090,-0.008
8.095,-0.016
8.100,-0.019
8.105,-0.029
8.110,-0.029
8.115,-0.029
8.120,-0.032
8.125,-0.025
8.130,-0.039
8.135,-0.044
8.140,-0.040
8.145,-0.047
8.150,-0.043
8.155,-0.049
8.160,-0.050
8.165,-0.046
8.170,-0.056
8.175,-0.057
8.180,-0.064
8.185,-0.064
8.190,-0.057
8.195,-0.066
8.200,-0.068
8.205,-0.069
8.210,-0.068
8.215,-0.068
8.220,-0.073
8.225,-0.070
8.230,-0.075
8.235,-0.074
8.240,-0.071
8.245,-0.082
8.250,-0.076
8.255,-0.075
8.260,-0.076
8.265,-0.076
8.270,-0.084
8.275,-0.078
8.280,-0.078
8.285,-0.081
8.290,-0.079
8.295,-0.085
8.300,-0.077
8.305,-0.076
8.310,-0.079
8.315,-0.076
8.320,-0.077
8.325,-0.072
8.330,-0.081
8.335,-0.083
8.340,-0.077
8.345,-0.081
8.350,-0.075
8.355,-0.074
8.360,-0.074
8.365,-0.069
8.370,-0.071
8.375,-0.070
8.380,-0.076
8.385,-0.072
8.390,-0.061
8.395,-0.062
8.400,-0.059
8.405,-0.063
8.410,-0.063
8.415,-0.063
8.420,-0.067
8.425,-0.056
8.430,-0.060
8.435,-0.059
8.440,-0.053
8.445,-0.055
8.450,-0.046
8.455,-0.051
8.460,-0.052
8.465,-0.049
8.470,-0.052
8.475,-0.044
8.480,-0.048
8.485,-0.046
8.490,-0.041
8.495,-0.049
8.500,-0.044
8.505,-0.045
8.510,-0.040
8.515,-0.032
8.520,-0.037
8.525,-0.030
8.530,-0.034
8.535,-0.032
8.540,-0.018
8.545,-0.025
8.550,-0.025
8.555,-0.026
8.560,-0.027
8.565,-0.034
8.570,-0.058
8.575,-0.071
8.580,-0.077
8.585,-0.075
8.590,-0.073
8.595,-0.083
8.600,-0.082
8.605,-0.077
8.610,-0.071
8.615,-0.069
8.620,-0.067
8.625,-0.038
8.630,-0.009
8.635,0.020
8.640,0.030
8.645,0.023
8.650,0.037
8.655,0.048
8.660,0.061
8.665,0.081
8.670,0.089
8.675,0.093
8.680,0.079
8.685,0.072
8.690,0.074
8.695,0.066
8.700,0.066
8.705,0.061
8.710,0.091
8.715,0.187
8.720,0.288
8.725,0.303
8.730,0.163
8.735,-0.155
8.740,-0.688
8.745,-1.383
8.750,-1.872
8.755,-1.892
8.760,-1.537
8.765,-0.898
8.770,-0.286
8.775,0.004
8.780,0.101
8.785,0.162
8.790,0.281
8.795,0.426
8.800,0.444
8.805,0.412
8.810,0.454
8.815,0.469
8.820,0.432
8.825,0.434
8.830,0.432
8.835,0.406
8.840,0.389
8.845,0.380
8.850,0.365
8.855,0.338
8.860,0.330
8.865,0.319
8.870,0.288
8.875,0.275
8.880,0.259
8.885,0.243
8.890,0.231
8.895,0.207
8.900,0.193
8.905,0.177
8.910,0.160
8.915,0.143
8.920,0.123
8.925,0.113
8.930,0.090
8.935,0.070
8.940,0.052
8.945,0.030
8.950,0.017
8.955,-0.013
8.960,-0.041
8.965,-0.063
8.970,-0.091
8.975,-0.113
8.980,-0.151
8.985,-0.185
8.990,-0.211
8.995,-0.248
9.000,-0.275
9.005,-0.301
9.010,-0.318
9.015,-0.334
9.020,-0.351
9.025,-0.357
9.030,-0.369
9.035,-0.361
9.040,-0.347
9.045,-0.342
9.050,-0.318
9.055,-0.288
9.060,-0.242
9.065,-0.184
9.070,-0.126
9.075,-0.050
9.080,0.021
9.085,0.095
9.090,0.170
9.095,0.227
9.100,0.287
9.105,0.341
9.110,0.385
9.115,0.414
9.120,0.424
9.125,0.435
9.130,0.434
9.135,0.431
9.140,0.425
9.145,0.409
9.150,0.405
9.155,0.387
9.160,0.368
9.165,0.356
9.170,0.333
9.175,0.320
9.180,0.296
9.185,0.279
9.190,0.269
9.195,0.245
9.200,0.237
9.205,0.221
9.210,0.201
9.215,0.184
9.220,0.160
9.225,0.155
9.230,0.142
9.235,0.128
9.240,0.117
9.245,0.092
9.250,0.083
9.255,0.074
9.260,0.058
9.265,0.048
9.270,0.036
9.275,0.033
9.280,0.022
9.285,0.012
9.290,0.004
9.295,-0.011
9.300,-0.015
9.305,-0.021
9.310,-0.021
9.315,-0.022
9.320,-0.035
9.325,-0.032
9.330,-0.038
9.335,-0.042
9.340,-0.045
9.345,-0.053
9.350,-0.043
9.355,-0.045
9.360,-0.048
9.365,-0.048
9.370,-0.054
9.375,-0.051
9.380,-0.060
9.385,-0.060
9.390,-0.056
9.395,-0.066
9.400,-0.067
9.405,-0.071
9.410,-0.075
9.415,-0.074
9.420,-0.070
9.425,-0.065
9.430,-0.072
9.435,-0.075
9.440,-0.075
9.445,-0.078
9.450,-0.072
9.455,-0.080
9.460,-0.083
9.465,-0.080
9.470,-0.086
9.475,-0.082
9.480,-0.091
9.485,-0.092
9.490,-0.077
9.495,-0.080
9.500,-0.081
9.505,-0.083
9.510,-0.081
9.515,-0.082
9.520,-0.089
9.525,-0.080
9.530,-0.083
9.535,-0.084
9.540,-0.077
9.545,-0.082
9.550,-0.077
9.555,-0.079
9.560,-0.080
9.565,-0.074
9.570,-0.076
9.575,-0.074
9.580,-0.083
9.585,-0.076
9.590,-0.062
9.595,-0.068
9.600,-0.064
9.605,-0.068
9.610,-0.071
9.615,-0.063
9.620,-0.064
9.625,-0.058
9.630,-0.060
9.635,-0.061
9.640,-0.060
9.645,-0.071
9.650,-0.062
9.655,-0.053
9.660,-0.052
9.665,-0.052
9.670,-0.056
9.675,-0.046
9.680,-0.050
9.685,-0.053
9.690,-0.043
9.695,-0.043
9.700,-0.038
9.705,-0.046
9.710,-0.044
9.715,-0.033
9.720,-0.040
9.725,-0.038
9.730,-0.036
9.735,-0.025
9.740,-0.023
9.745,-0.048
9.750,-0.067
9.755,-0.080
9.760,-0.079
9.765,-0.077
9.770,-0.090
9.775,-0.098
9.780,-0.101
9.785,-0.085
9.790,-0.071
9.795,-0.073
9.800,-0.062
9.805,-0.050
9.810,-0.016
9.815,0.016
9.820,0.018
9.825,0.024
9.830,0.023
9.835,0.040
9.840,0.071
9.845,0.072
9.850,0.075
9.855,0.077
9.860,0.074
9.865,0.070
9.870,0.060
9.875,0.064
9.880,0.062
9.885,0.058
9.890,0.081
9.895,0.174
9.900,0.298
9.905,0.317
9.910,0.197
9.915,-0.101
9.920,-0.624
9.925,-1.312
9.930,-1.847
9.935,-1.933
9.940,-1.620
9.945,-0.962
9.950,-0.283
9.955,0.042
9.960,0.133
9.965,0.162
9.970,0.270
9.975,0.420
9.980,0.424
9.985,0.398
9.990,0.446
9.995,0.454
10.000,0.422
10.005,0.413
10.010,0.427
10.015,0.407
10.020,0.372
10.025,0.371
10.030,0.347
10.035,0.329
10.040,0.328
10.045,0.306
10.050,0.290
10.055,0.269
10.060,0.250
10.065,0.234
10.070,0.214
10.075,0.205
10.080,0.186
10.085,0.174
10.090,0.162
10.095,0.135
10.100,0.114
10.105,0.100
10.110,0.091
10.115,0.073
10.120,0.052
10.125,0.035
10.130,0.003
10.135,-0.020
10.140,-0.036
10.145,-0.062
10.150,-0.084
10.155,-0.120
10.160,-0.153
10.165,-0.183
10.170,-0.219
10.175,-0.245
10.180,-0.277
10.185,-0.302
10.190,-0.323
10.195,-0.349
10.200,-0.351
10.205,-0.360
10.210,-0.370
10.215,-0.365
10.220,-0.362
10.225,-0.342
10.230,-0.324
10.235,-0.293
10.240,-0.244
10.245,-0.198
10.250,-0.134
10.255,-0.061
10.260,0.019
10.265,0.095
10.270,0.161
10.275,0.237
10.280,0.296
10.285,0.341
10.290,0.382
10.295,0.406
10.300,0.433
10.305,0.441
10.310,0.440
10.315,0.442
10.320,0.430
10.325,0.423
10.330,0.409
10.335,0.395
10.340,0.385
10.345,0.363
10.350,0.347
10.355,0.324
10.360,0.304
10.365,0.292
10.370,0.275
10.375,0.261
10.380,0.237
10.385,0.221
10.390,0.217
10.395,0.199
10.400,0.175
10.405,0.156
10.410,0.141
10.415,0.128
10.420,0.114
10.425,0.102
10.430,0.082
10.435,0.075
10.440,0.072
10.445,0.050
10.450,0.043
10.455,0.028
10.460,0.017
10.465,0.019
10.470,0.004
10.475,-0.004
10.480,-0.009
10.485,-0.010
10.490,-0.008
10.495,-0.022
10.500,-0.028
10.505,-0.033
10.510,-0.034
10.515,-0.033
10.520,-0.036
10.525,-0.034
10.530,-0.048
10.535,-0.055
10.540,-0.046
10.545,-0.050
10.550,-0.052
10.555,-0.057
10.560,-0.057
10.565,-0.052
10.570,-0.058
10.575,-0.064
10.580,-0.072
10.585,-0.068
10.590,-0.061
10.595,-0.068
10.600,-0.066
10.605,-0.074
10.610,-0.075
10.615,-0.069
10.620,-0.078
10.625,-0.077
10.630,-0.081
10.635,-0.081
10.640,-0.075
10.645,-0.083
10.650,-0.083
10.655,-0.086
10.660,-0.083
10.665,-0.077
10.670,-0.080
10.675,-0.078
10.680,-0.092
10.685,-0.092
10.690,-0.078
10.695,-0.081
10.700,-0.078
10.705,-0.082
10.710,-0.085
10.715,-0.079
10.720,-0.082
10.725,-0.082
10.730,-0.083
10.735,-0.081
10.740,-0.074
10.745,-0.078
10.750,-0.082
10.755,-0.082
10.760,-0.068
10.765,-0.061
10.770,-0.070
10.775,-0.074
10.780,-0.078
10.785,-0.070
10.790,-0.070
10.795,-0.078
10.800,-0.064
10.805,-0.062
10.810,-0.065
10.815,-0.063
10.820,-0.065
10.825,-0.063
10.830,-0.072
10.835,-0.062
10.840,-0.046
10.845,-0.053
10.850,-0.051
10.855,-0.052
10.860,-0.052
10.865,-0.053
10.870,-0.057
10.875,-0.044
10.880,-0.059
10.885,-0.082
10.890,-0.085
10.895,-0.094
10.900,-0.091
10.905,-0.098
10.910,-0.103
10.915,-0.099
10.920,-0.105
10.925,-0.102
10.930,-0.099
10.935,-0.086
10.940,-0.055
10.945,-0.025
10.950,-0.003
10.955,-0.010
10.960,-0.006
10.965,0.015
10.970,0.032
10.975,0.056
10.980,0.060
10.985,0.061
10.990,0.064
10.995,0.051
11.000,0.052
11.005,0.052
11.010,0.046
11.015,0.038
11.020,0.039
11.025,0.088
11.030,0.195
11.035,0.304
11.040,0.300
11.045,0.132
11.050,-0.211
11.055,-0.775
11.060,-1.465
11.065,-1.911
11.070,-1.907
11.075,-1.496
11.080,-0.778
11.085,-0.179
11.090,0.057
11.095,0.110
11.100,0.151
11.105,0.282
11.110,0.411
11.115,0.406
11.120,0.393
11.125,0.442
11.130,0.437
11.135,0.412
11.140,0.418
11.145,0.408
11.150,0.382
11.155,0.362
11.160,0.355
11.165,0.340
11.170,0.321
11.175,0.318
11.180,0.295
11.185,0.275
11.190,0.265
11.195,0.242
11.200,0.230
11.205,0.216
11.210,0.203
11.215,0.185
11.220,0.158
11.225,0.153
11.230,0.139
11.235,0.119
11.240,0.107
11.245,0.084
11.250,0.066
11.255,0.046
11.260,0.026
11.265,0.006
11.270,-0.022
11.275,-0.041
11.280,-0.065
11.285,-0.088
11.290,-0.117
11.295,-0.158
11.300,-0.183
11.305,-0.214
11.310,-0.243
11.315,-0.267
11.320,-0.298
11.325,-0.315
11.330,-0.338
11.335,-0.353
11.340,-0.353
11.345,-0.362
11.350,-0.353
11.355,-0.341
11.360,-0.330
11.365,-0.310
11.370,-0.277
11.375,-0.221
11.380,-0.165
11.385,-0.099
11.390,-0.021
11.395,0.044
11.400,0.119
11.405,0.185
11.410,0.250
11.415,0.313
11.420,0.355
11.425,0.396
11.430,0.420
11.435,0.435
11.440,0.445
11.445,0.434
11.450,0.433
11.455,0.428
11.460,0.420
11.465,0.411
11.470,0.390
11.475,0.373
11.480,0.351
11.485,0.336
11.490,0.320
11.495,0.296
11.500,0.289
11.505,0.270
11.510,0.252
11.515,0.238
11.520,0.214
11.525,0.206
11.530,0.187
11.535,0.167
11.540,0.154
11.545,0.131
11.550,0.122
11.555,0.112
11.560,0.103
11.565,0.087
11.570,0.066
11.575,0.063
11.580,0.050
11.585,0.041
11.590,0.034
11.595,0.017
11.600,0.016
11.605,0.006
11.610,-0.005
11.615,-0.008
11.620,-0.016
11.625,-0.012
11.630,-0.016
11.635,-0.022
11.640,-0.021
11.645,-0.031
11.650,-0.030
11.655,-0.034
11.660,-0.038
11.665,-0.036
11.670,-0.041
11.675,-0.044
11.680,-0.052
11.685,-0.050
11.690,-0.046
11.695,-0.057
11.700,-0.055
11.705,-0.055
11.710,-0.061
11.715,-0.064
11.720,-0.071
11.725,-0.065
11.730,-0.065
11.735,-0.066
11.740,-0.060
11.745,-0.070
11.750,-0.070
11.755,-0.071
11.760,-0.074
11.765,-0.075
11.770,-0.082
11.775,-0.078
11.780,-0.082
11.785,-0.082
11.790,-0.076
11.795,-0.084
11.800,-0.077
11.805,-0.076
11.810,-0.078
11.815,-0.074
11.820,-0.079
11.825,-0.079
11.830,-0.085
11.835,-0.082
11.840,-0.075
11.845,-0.081
11.850,-0.075
11.855,-0.077
11.860,-0.079
11.865,-0.075
11.870,-0.082
11.875,-0.077
11.880,-0.076
11.885,-0.076
11.890,-0.071
11.895,-0.075
11.900,-0.073
11.905,-0.073
11.910,-0.071
11.915,-0.066
11.920,-0.067
11.925,-0.063
11.930,-0.069
11.935,-0.066
11.940,-0.058
11.945,-0.062
11.950,-0.058
11.955,-0.060
11.960,-0.058
11.965,-0.056
11.970,-0.061
11.975,-0.053
11.980,-0.053
11.985,-0.051
11.990,-0.045
11.995,-0.054
12.000,-0.049
12.005,-0.047
12.010,-0.048
12.015,-0.043
12.020,-0.046
12.025,-0.038
12.030,-0.039
12.035,-0.039
12.040,-0.038
12.045,-0.045
12.050,-0.033
12.055,-0.030
12.060,-0.030
12.065,-0.031
12.070,-0.053
12.075,-0.064
12.080,-0.075
12.085,-0.083
12.090,-0.082
12.095,-0.088
12.100,-0.086
12.105,-0.087
12.110,-0.086
12.115,-0.081
12.120,-0.078
12.125,-0.063
12.130,-0.044
12.135,-0.007
12.140,0.018
12.145,0.010
12.150,0.021
12.155,0.030
12.160,0.043
12.165,0.067
12.170,0.072
12.175,0.083
12.180,0.079
12.185,0.068
12.190,0.070
12.195,0.063
12.200,0.064
12.205,0.063
12.210,0.062
12.215,0.086
12.220,0.173
12.225,0.287
12.230,0.296
12.235,0.169
12.240,-0.135
12.245,-0.665
12.250,-1.349
12.255,-1.840
12.260,-1.871
12.265,-1.561
12.270,-0.941
12.275,-0.300
12.280,0.003
12.285,0.111
12.290,0.154
12.295,0.254
12.300,0.420
12.305,0.436
12.310,0.402
12.315,0.447
12.320,0.459
12.325,0.429
12.330,0.424
12.335,0.431
12.340,0.405
12.345,0.376
12.350,0.380
12.355,0.361
12.360,0.334
12.365,0.324
12.370,0.303
12.375,0.288
12.380,0.270
12.385,0.256
12.390,0.242
12.395,0.217
12.400,0.207
12.405,0.188
12.410,0.171
12.415,0.159
12.420,0.140
12.425,0.129
12.430,0.103
12.435,0.083
12.440,0.075
12.445,0.051
12.450,0.031
12.455,0.005
12.460,-0.016
12.465,-0.032
12.470,-0.062
12.475,-0.086
12.480,-0.119
12.485,-0.147
12.490,-0.174
12.495,-0.214
12.500,-0.237
12.505,-0.264
12.510,-0.295
12.515,-0.314
12.520,-0.341
12.525,-0.351
12.530,-0.356
12.535,-0.359
12.540,-0.350
12.545,-0.351
12.550,-0.342
12.555,-0.321
12.560,-0.289
12.565,-0.245
12.570,-0.197
12.575,-0.133
12.580,-0.066
12.585,0.010
12.590,0.087
12.595,0.149
12.600,0.221
12.605,0.281
12.610,0.326
12.615,0.368
12.620,0.393
12.625,0.415
12.630,0.424
12.635,0.430
12.640,0.434
12.645,0.425
12.650,0.421
12.655,0.401
12.660,0.384
12.665,0.372
12.670,0.348
12.675,0.336
12.680,0.318
12.685,0.304
12.690,0.293
12.695,0.266
12.700,0.253
12.705,0.234
12.710,0.213
12.715,0.206
12.720,0.190
12.725,0.173
12.730,0.151
12.735,0.138
12.740,0.131
12.745,0.111
12.750,0.097
12.755,0.085
12.760,0.078
12.765,0.068
12.770,0.053
12.775,0.049
12.780,0.031
12.785,0.019
12.790,0.019
12.795,0.006
12.800,0.004
12.805,-0.004
12.810,-0.018
12.815,-0.017
12.820,-0.020
12.825,-0.023
12.830,-0.029
12.835,-0.033
12.840,-0.030
12.845,-0.035
12.850,-0.035
12.855,-0.038
12.860,-0.044
12.865,-0.047
12.870,-0.051
12.875,-0.045
12.880,-0.052
12.885,-0.059
12.890,-0.056
12.895,-0.061
12.900,-0.056
12.905,-0.055
12.910,-0.055
12.915,-0.059
12.920,-0.069
12.925,-0.067
12.930,-0.071
12.935,-0.070
12.940,-0.070
12.945,-0.079
12.950,-0.071
12.955,-0.071
12.960,-0.076
12.965,-0.079
12.970,-0.080
12.975,-0.070
12.980,-0.079
12.985,-0.082
12.990,-0.074
12.995,-0.079
13.000,-0.075
13.005,-0.077
13.010,-0.079
13.015,-0.072
13.020,-0.079
13.025,-0.078
13.030,-0.079
13.035,-0.082
13.040,-0.081
13.045,-0.081
13.050,-0.071
13.055,-0.073
13.060,-0.074
13.065,-0.074
13.070,-0.079
13.075,-0.077
13.080,-0.084
13.085,-0.073
13.090,-0.058
13.095,-0.063
13.100,-0.060
13.105,-0.069
13.110,-0.070
13.115,-0.062
13.120,-0.071
13.125,-0.068
13.130,-0.066
13.135,-0.061
13.140,-0.053
13.145,-0.060
13.150,-0.056
13.155,-0.058
13.160,-0.061
13.165,-0.056
13.170,-0.058
13.175,-0.050
13.180,-0.048
13.185,-0.048
13.190,-0.043
13.195,-0.050
13.200,-0.048
13.205,-0.045
13.210,-0.043
13.215,-0.040
13.220,-0.042
13.225,-0.034
13.230,-0.038
13.235,-0.038
13.240,-0.035
13.245,-0.052
13.250,-0.057
13.255,-0.064
13.260,-0.070
13.265,-0.071
13.270,-0.083
13.275,-0.085
13.280,-0.094
13.285,-0.097
13.290,-0.083
13.295,-0.085
13.300,-0.076
13.305,-0.062
13.310,-0.037
13.315,0.001
13.320,0.008
13.325,0.009
13.330,0.016
13.335,0.028
13.340,0.050
13.345,0.066
13.350,0.079
13.355,0.075
13.360,0.068
13.365,0.066
13.370,0.066
13.375,0.071
13.380,0.059
13.385,0.050
13.390,0.061
13.395,0.110
13.400,0.233
13.405,0.318
13.410,0.275
13.415,0.078
13.420,-0.331
13.425,-0.948
13.430,-1.629
13.435,-1.963
13.440,-1.816
13.445,-1.323
13.450,-0.596
13.455,-0.073
13.460,0.102
13.465,0.151
13.470,0.193
13.475,0.330
13.480,0.425
13.485,0.402
13.490,0.412
13.495,0.453
13.500,0.445
13.505,0.416
13.510,0.420
13.515,0.413
13.520,0.377
13.525,0.364
13.530,0.353
13.535,0.333
13.540,0.325
13.545,0.312
13.550,0.293
13.555,0.269
13.560,0.257
13.565,0.245
13.570,0.225
13.575,0.215
13.580,0.192
13.585,0.174
13.590,0.162
13.595,0.142
13.600,0.130
13.605,0.112
13.610,0.097
13.615,0.081
13.620,0.055
13.625,0.039
13.630,0.016
13.635,-0.006
13.640,-0.024
13.645,-0.055
13.650,-0.073
13.655,-0.102
13.660,-0.134
13.665,-0.157
13.670,-0.193
13.675,-0.225
13.680,-0.258
13.685,-0.285
13.690,-0.303
13.695,-0.329
13.700,-0.343
13.705,-0.352
13.710,-0.358
13.715,-0.359
13.720,-0.363
13.725,-0.352
13.730,-0.334
13.735,-0.299
13.740,-0.262
13.745,-0.231
13.750,-0.175
13.755,-0.109
13.760,-0.033
13.765,0.044
13.770,0.111
13.775,0.186
13.780,0.249
13.785,0.305
13.790,0.355
13.795,0.383
13.800,0.413
13.805,0.435
13.810,0.441
13.815,0.441
13.820,0.434
13.825,0.427
13.830,0.408
13.835,0.396
13.840,0.392
13.845,0.372
13.850,0.357
13.855,0.336
13.860,0.319
13.865,0.307
13.870,0.283
13.875,0.266
13.880,0.238
13.885,0.222
13.890,0.224
13.895,0.206
13.900,0.191
13.905,0.167
13.910,0.148
13.915,0.139
13.920,0.118
13.925,0.109
13.930,0.096
13.935,0.084
13.940,0.076
13.945,0.057
13.950,0.050
13.955,0.040
13.960,0.030
13.965,0.025
13.970,0.012
13.975,0.008
13.980,-0.006
13.985,-0.013
13.990,-0.004
13.995,-0.006
14.000,-0.005
14.005,-0.020
14.010,-0.038
14.015,-0.033
14.020,-0.032
14.025,-0.030
14.030,-0.035
14.035,-0.037
14.040,-0.034
14.045,-0.042
14.050,-0.044
14.055,-0.051
14.060,-0.054
14.065,-0.048
14.070,-0.057
14.075,-0.056
14.080,-0.058
14.085,-0.060
14.090,-0.055
14.095,-0.071
14.100,-0.073
14.105,-0.068
14.110,-0.067
14.115,-0.065
14.120,-0.077
14.125,-0.076
14.130,-0.070
14.135,-0.069
14.140,-0.069
14.145,-0.082
14.150,-0.078
14.155,-0.075
14.160,-0.075
14.165,-0.076
14.170,-0.083
14.175,-0.075
14.180,-0.080
14.185,-0.084
14.190,-0.078
14.195,-0.085
14.200,-0.081
14.205,-0.080
14.210,-0.084
14.215,-0.083
14.220,-0.088
14.225,-0.082
14.230,-0.081
14.235,-0.077
14.240,-0.074
14.245,-0.083
14.250,-0.075
14.255,-0.074
14.260,-0.077
14.265,-0.073
14.270,-0.074
14.275,-0.071
14.280,-0.076
14.285,-0.074
14.290,-0.068
14.295,-0.071
14.300,-0.066
14.305,-0.065
14.310,-0.062
14.315,-0.063
14.320,-0.069
14.325,-0.058
14.330,-0.063
14.335,-0.063
14.340,-0.055
14.345,-0.063
14.350,-0.071
14.355,-0.093
14.360,-0.104
14.365,-0.098
14.370,-0.105
14.375,-0.108
14.380,-0.113
14.385,-0.108
14.390,-0.098
14.395,-0.109
14.400,-0.105
14.405,-0.091
14.410,-0.065
14.415,-0.028
14.420,-0.018
14.425,-0.016
14.430,-0.009
14.435,0.006
14.440,0.029
14.445,0.036
14.450,0.046
14.455,0.056
14.460,0.053
14.465,0.047
14.470,0.045
14.475,0.046
14.480,0.033
14.485,0.028
14.490,0.043
14.495,0.094
14.500,0.217
14.505,0.302
14.510,0.261
14.515,0.071
14.520,-0.337
14.525,-0.949
14.530,-1.623
14.535,-1.977
14.540,-1.836
14.545,-1.321
14.550,-0.590
14.555,-0.085
14.560,0.072
14.565,0.119
14.570,0.169
14.575,0.315
14.580,0.414
14.585,0.392
14.590,0.402
14.595,0.434
14.600,0.425
14.605,0.402
14.610,0.402
14.615,0.397
14.620,0.367
14.625,0.358
14.630,0.353
14.635,0.334
14.640,0.319
14.645,0.302
14.650,0.286
14.655,0.268
14.660,0.256
14.665,0.242
14.670,0.217
14.675,0.205
14.680,0.187
14.685,0.170
14.690,0.159
14.695,0.137
14.700,0.124
14.705,0.108
14.710,0.090
14.715,0.074
14.720,0.049
14.725,0.035
14.730,0.012
14.735,-0.010
14.740,-0.024
14.745,-0.057
14.750,-0.076
14.755,-0.094
14.760,-0.126
14.765,-0.155
14.770,-0.195
14.775,-0.224
14.780,-0.252
14.785,-0.281
14.790,-0.305
14.795,-0.330
14.800,-0.337
14.805,-0.346
14.810,-0.354
14.815,-0.351
14.820,-0.349
14.825,-0.332
14.830,-0.319
14.835,-0.299
14.840,-0.256
14.845,-0.212
14.850,-0.150
14.855,-0.086
14.860,-0.019
14.865,0.059
14.870,0.131
14.875,0.201
14.880,0.259
14.885,0.309
14.890,0.361
14.895,0.392
14.900,0.417
14.905,0.434
14.910,0.438
14.915,0.438
14.920,0.429
14.925,0.423
14.930,0.409
14.935,0.394
14.940,0.380
14.945,0.357
14.950,0.351
14.955,0.333
14.960,0.314
14.965,0.300
14.970,0.272
14.975,0.258
14.980,0.242
14.985,0.233
14.990,0.228
14.995,0.197
15.000,0.181
15.005,0.170
15.010,0.152
15.015,0.139
15.020,0.117
15.025,0.107
15.030,0.094
15.035,0.076
15.040,0.068
15.045,0.053
15.050,0.048
15.055,0.039
15.060,0.029
15.065,0.024
15.070,0.011
15.075,0.010
15.080,0.002
15.085,-0.007
15.090,-0.009
15.095,-0.017
15.100,-0.014
15.105,-0.018
15.110,-0.026
15.115,-0.022
15.120,-0.027
15.125,-0.030
15.130,-0.038
15.135,-0.038
15.140,-0.028
15.145,-0.038
15.150,-0.044
15.155,-0.047
15.160,-0.048
15.165,-0.045
15.170,-0.053
15.175,-0.056
15.180,-0.063
15.185,-0.061
15.190,-0.056
15.195,-0.065
15.200,-0.062
15.205,-0.064
15.210,-0.068
15.215,-0.067
15.220,-0.075
15.225,-0.068
15.230,-0.067
15.235,-0.073
15.240,-0.071
15.245,-0.079
15.250,-0.074
15.255,-0.071
15.260,-0.076
15.265,-0.076
15.270,-0.083
15.275,-0.077
15.280,-0.078
15.285,-0.083
15.290,-0.078
15.295,-0.081
15.300,-0.075
15.305,-0.075
15.310,-0.078
15.315,-0.076
15.320,-0.079
15.325,-0.071
15.330,-0.076
15.335,-0.079
15.340,-0.073
15.345,-0.079
15.350,-0.071
15.355,-0.068
15.360,-0.075
15.365,-0.071
15.370,-0.070
15.375,-0.062
15.380,-0.065
15.385,-0.072
15.390,-0.068
15.395,-0.068
15.400,-0.056
15.405,-0.052
15.410,-0.056
15.415,-0.055
15.420,-0.061
15.425,-0.059
15.430,-0.061
15.435,-0.059
15.440,-0.052
15.445,-0.056
15.450,-0.052
15.455,-0.052
15.460,-0.056
15.465,-0.049
15.470,-0.051
15.475,-0.045
15.480,-0.046
15.485,-0.048
15.490,-0.046
15.495,-0.051
15.500,-0.040
15.505,-0.030
15.510,-0.028
15.515,-0.030
15.520,-0.049
15.525,-0.068
15.530,-0.081
15.535,-0.082
15.540,-0.079
15.545,-0.091
15.550,-0.091
15.555,-0.087
15.560,-0.084
15.565,-0.082
15.570,-0.084
15.575,-0.064
15.580,-0.045
15.585,-0.015
15.590,0.016
15.595,0.011
15.600,0.018
15.605,0.027
15.610,0.036
15.615,0.062
15.620,0.072
15.625,0.077
15.630,0.062
15.635,0.053
15.640,0.073
15.645,0.072
15.650,0.069
15.655,0.057
15.660,0.050
15.665,0.085
15.670,0.171
15.675,0.285
15.680,0.304
15.685,0.168
15.690,-0.146
15.695,-0.682
15.700,-1.365
15.705,-1.848
15.710,-1.876
15.715,-1.551
15.720,-0.916
15.725,-0.283
15.730,0.013
15.735,0.119
15.740,0.166
15.745,0.267
15.750,0.422
15.755,0.429
15.760,0.398
15.765,0.450
15.770,0.456
15.775,0.426
15.780,0.422
15.785,0.423
15.790,0.401
15.795,0.373
15.800,0.372
15.805,0.352
15.810,0.324
15.815,0.320
15.820,0.306
15.825,0.287
15.830,0.271
15.835,0.256
15.840,0.240
15.845,0.217
15.850,0.204
15.855,0.188
15.860,0.175
15.865,0.163
15.870,0.142
15.875,0.127
15.880,0.104
15.885,0.088
15.890,0.075
15.895,0.044
15.900,0.026
15.905,0.010
15.910,-0.010
15.915,-0.029
15.920,-0.060
15.925,-0.087
15.930,-0.119
15.935,-0.148
15.940,-0.174
15.945,-0.209
15.950,-0.231
15.955,-0.257
15.960,-0.287
15.965,-0.308
15.970,-0.331
15.975,-0.342
15.980,-0.351
15.985,-0.355
15.990,-0.349
15.995,-0.351
16.000,-0.333
16.005,-0.309
16.010,-0.280
16.015,-0.240
16.020,-0.198
16.025,-0.128
16.030,-0.064
16.035,-0.001
16.040,0.078
16.045,0.145
16.050,0.218
16.055,0.274
16.060,0.318
16.065,0.360
16.070,0.389
16.075,0.416
16.080,0.423
16.085,0.426
16.090,0.431
16.095,0.418
16.100,0.414
16.105,0.398
16.110,0.379
16.115,0.371
16.120,0.351
16.125,0.338
16.130,0.320
16.135,0.300
16.140,0.286
16.145,0.261
16.150,0.251
16.155,0.236
16.160,0.211
16.165,0.200
16.170,0.183
16.175,0.169
16.180,0.148
16.185,0.130
16.190,0.126
16.195,0.112
16.200,0.101
16.205,0.085
16.210,0.071
16.215,0.066
16.220,0.052
16.225,0.044
16.230,0.032
16.235,0.019
16.240,0.016
16.245,0.006
16.250,0.001
16.255,-0.008
16.260,-0.013
16.265,-0.014
16.270,-0.022
16.275,-0.020
16.280,-0.027
16.285,-0.034
16.290,-0.038
16.295,-0.044
16.300,-0.031
16.305,-0.035
16.310,-0.041
16.315,-0.042
16.320,-0.050
16.325,-0.047
16.330,-0.055
16.335,-0.056
16.340,-0.046
16.345,-0.058
16.350,-0.058
16.355,-0.059
16.360,-0.067
16.365,-0.062
16.370,-0.065
16.375,-0.065
16.380,-0.072
16.385,-0.075
16.390,-0.068
16.395,-0.075
16.400,-0.071
16.405,-0.072
16.410,-0.078
16.415,-0.075
16.420,-0.082
16.425,-0.075
16.430,-0.075
16.435,-0.081
16.440,-0.080
16.445,-0.087
16.450,-0.080
16.455,-0.075
16.460,-0.080
16.465,-0.080
16.470,-0.086
16.475,-0.081
16.480,-0.083
16.485,-0.082
16.490,-0.067
16.495,-0.071
16.500,-0.072
16.505,-0.075
16.510,-0.079
16.515,-0.072
16.520,-0.074
16.525,-0.072
16.530,-0.076
16.535,-0.079
16.540,-0.073
16.545,-0.074
16.550,-0.068
16.555,-0.073
16.560,-0.078
16.565,-0.063
16.570,-0.059
16.575,-0.057
16.580,-0.062
16.585,-0.064
16.590,-0.056
16.595,-0.062
16.600,-0.062
16.605,-0.058
16.610,-0.052
16.615,-0.050
16.620,-0.056
16.625,-0.049
16.630,-0.048
16.635,-0.049
16.640,-0.044
16.645,-0.049
16.650,-0.044
16.655,-0.043
16.660,-0.044
16.665,-0.044
16.670,-0.071
16.675,-0.085
16.680,-0.086
16.685,-0.090
16.690,-0.089
16.695,-0.103
16.700,-0.101
16.705,-0.091
16.710,-0.095
16.715,-0.088
16.720,-0.073
16.725,-0.052
16.730,-0.023
16.735,0.005
16.740,0.007
16.745,-0.001
16.750,0.017
16.755,0.035
16.760,0.048
16.765,0.062
16.770,0.065
16.775,0.072
16.780,0.060
16.785,0.051
16.790,0.060
16.795,0.053
16.800,0.050
16.805,0.051
16.810,0.085
16.815,0.196
16.820,0.299
16.825,0.306
16.830,0.149
16.835,-0.210
16.840,-0.772
16.845,-1.473
16.850,-1.933
16.855,-1.907
16.860,-1.485
16.865,-0.773
16.870,-0.167
16.875,0.079
16.880,0.137
16.885,0.170
16.890,0.293
16.895,0.415
16.900,0.415
16.905,0.398
16.910,0.437
16.915,0.447
16.920,0.415
16.925,0.414
16.930,0.411
16.935,0.384
16.940,0.369
16.945,0.358
16.950,0.342
16.955,0.318
16.960,0.305
16.965,0.296
16.970,0.269
16.975,0.261
16.980,0.248
16.985,0.223
16.990,0.212
16.995,0.187
17.000,0.173
17.005,0.168
17.010,0.152
17.015,0.138
17.020,0.118
17.025,0.102
17.030,0.082
17.035,0.061
17.040,0.045
17.045,0.018
17.050,0.006
17.055,-0.014
17.060,-0.044
17.065,-0.068
17.070,-0.100
17.075,-0.126
17.080,-0.154
17.085,-0.184
17.090,-0.210
17.095,-0.246
17.100,-0.271
17.105,-0.296
17.110,-0.322
17.115,-0.336
17.120,-0.355
17.125,-0.357
17.130,-0.354
17.135,-0.356
17.140,-0.341
17.145,-0.332
17.150,-0.310
17.155,-0.277
17.160,-0.236
17.165,-0.176
17.170,-0.123
17.175,-0.056
17.180,0.018
17.185,0.095
17.190,0.170
17.195,0.222
17.200,0.283
17.205,0.338
17.210,0.374
17.215,0.400
17.220,0.417
17.225,0.439
17.230,0.436
17.235,0.432
17.240,0.431
17.245,0.410
17.250,0.402
17.255,0.388
17.260,0.371
17.265,0.359
17.270,0.334
17.275,0.318
17.280,0.302
17.285,0.285
17.290,0.270
17.295,0.246
17.300,0.236
17.305,0.218
17.310,0.196
17.315,0.181
17.320,0.162
17.325,0.156
17.330,0.137
17.335,0.120
17.340,0.115
17.345,0.099
17.350,0.091
17.355,0.077
17.360,0.057
17.365,0.050
17.370,0.039
17.375,0.028
17.380,0.017
17.385,0.011
17.390,0.013
17.395,0.006
17.400,0.002
17.405,-0.005
17.410,-0.012
17.415,-0.012
17.420,-0.026
17.425,-0.030
17.430,-0.026
17.435,-0.024
17.440,-0.026
17.445,-0.039
17.450,-0.038
17.455,-0.040
17.460,-0.046
17.465,-0.043
17.470,-0.045
17.475,-0.043
17.480,-0.053
17.485,-0.062
17.490,-0.051
17.495,-0.056
17.500,-0.062
17.505,-0.062
17.510,-0.071
17.515,-0.071
17.520,-0.063
17.525,-0.059
17.530,-0.068
17.535,-0.076
17.540,-0.074
17.545,-0.078
17.550,-0.075
17.555,-0.075
17.560,-0.078
17.565,-0.071
17.570,-0.080
17.575,-0.082
17.580,-0.086
17.585,-0.094
17.590,-0.080
17.595,-0.074
17.600,-0.073
17.605,-0.078
17.610,-0.087
17.615,-0.076
17.620,-0.075
17.625,-0.078
17.630,-0.080
17.635,-0.080
17.640,-0.074
17.645,-0.083
17.650,-0.081
17.655,-0.079
17.660,-0.080
17.665,-0.074
17.670,-0.076
17.675,-0.074
17.680,-0.078
17.685,-0.076
17.690,-0.069
17.695,-0.075
17.700,-0.072
17.705,-0.070
17.710,-0.071
17.715,-0.080
17.720,-0.106
17.725,-0.111
17.730,-0.112
17.735,-0.115
17.740,-0.115
17.745,-0.126
17.750,-0.117
17.755,-0.110
17.760,-0.114
17.765,-0.109
17.770,-0.103
17.775,-0.078
17.780,-0.046
17.785,-0.025
17.790,-0.020
17.795,-0.024
17.800,-0.010
17.805,0.009
17.810,0.029
17.815,0.042
17.820,0.041
17.825,0.045
17.830,0.035
17.835,0.032
17.840,0.037
17.845,0.020
17.850,0.023
17.855,0.034
17.860,0.078
17.865,0.194
17.870,0.285
17.875,0.265
17.880,0.081
17.885,-0.302
17.890,-0.892
17.895,-1.579
17.900,-1.972
17.905,-1.885
17.910,-1.406
17.915,-0.670
17.920,-0.122
17.925,0.065
17.930,0.108
17.935,0.159
17.940,0.304
17.945,0.409
17.950,0.391
17.955,0.386
17.960,0.432
17.965,0.433
17.970,0.398
17.975,0.406
17.980,0.398
17.985,0.365
17.990,0.358
17.995,0.345
18.000,0.326
18.005,0.309
18.010,0.296
18.015,0.284
18.020,0.261
18.025,0.252
18.030,0.240
18.035,0.222
18.040,0.209
18.045,0.186
18.050,0.171
18.055,0.160
18.060,0.144
18.065,0.128
18.070,0.105
18.075,0.093
18.080,0.076
18.085,0.061
18.090,0.046
18.095,0.012
18.100,-0.006
18.105,-0.025
18.110,-0.052
18.115,-0.073
18.120,-0.104
18.125,-0.130
18.130,-0.157
18.135,-0.185
18.140,-0.213
18.145,-0.249
18.150,-0.274
18.155,-0.297
18.160,-0.319
18.165,-0.328
18.170,-0.343
18.175,-0.345
18.180,-0.351
18.185,-0.350
18.190,-0.332
18.195,-0.322
18.200,-0.293
18.205,-0.257
18.210,-0.211
18.215,-0.148
18.220,-0.094
18.225,-0.020
18.230,0.053
18.235,0.126
18.240,0.207
18.245,0.260
18.250,0.312
18.255,0.354
18.260,0.383
18.265,0.414
18.270,0.423
18.275,0.432
18.280,0.436
18.285,0.431
18.290,0.430
18.295,0.409
18.300,0.394
18.305,0.376
18.310,0.355
18.315,0.348
18.320,0.328
18.325,0.312
18.330,0.295
18.335,0.277
18.340,0.266
18.345,0.238
18.350,0.222
18.355,0.213
18.360,0.192
18.365,0.179
18.370,0.169
18.375,0.158
18.380,0.137
18.385,0.114
18.390,0.102
18.395,0.087
18.400,0.084
18.405,0.072
18.410,0.057
18.415,0.053
18.420,0.038
18.425,0.033
18.430,0.023
18.435,0.011
18.440,0.010
18.445,-0.003
18.450,-0.005
18.455,-0.008
18.460,-0.015
18.465,-0.017
18.470,-0.024
18.475,-0.022
18.480,-0.028
18.485,-0.034
18.490,-0.027
18.495,-0.034
18.500,-0.039
18.505,-0.039
18.510,-0.040
18.515,-0.037
18.520,-0.045
18.525,-0.047
18.530,-0.050
18.535,-0.052
18.540,-0.050
18.545,-0.061
18.550,-0.060
18.555,-0.062
18.560,-0.068
18.565,-0.061
18.570,-0.064
18.575,-0.064
18.580,-0.069
18.585,-0.072
18.590,-0.063
18.595,-0.074
18.600,-0.080
18.605,-0.079
18.610,-0.075
18.615,-0.066
18.620,-0.074
18.625,-0.076
18.630,-0.077
18.635,-0.076
18.640,-0.071
18.645,-0.084
18.650,-0.079
18.655,-0.076
18.660,-0.081
18.665,-0.075
18.670,-0.077
18.675,-0.076
18.680,-0.080
18.685,-0.082
18.690,-0.072
18.695,-0.076
18.700,-0.074
18.705,-0.073
18.710,-0.077
18.715,-0.073
18.720,-0.074
18.725,-0.069
18.730,-0.069
18.735,-0.071
18.740,-0.066
18.745,-0.071
18.750,-0.067
18.755,-0.064
18.760,-0.070
18.765,-0.066
18.770,-0.064
18.775,-0.056
18.780,-0.056
18.785,-0.055
18.790,-0.051
18.795,-0.074
18.800,-0.095
18.805,-0.105
18.810,-0.105
18.815,-0.101
18.820,-0.113
18.825,-0.113
18.830,-0.108
18.835,-0.108
18.840,-0.101
18.845,-0.100
18.850,-0.085
18.855,-0.063
18.860,-0.033
18.865,-0.005
18.870,-0.006
18.875,-0.001
18.880,0.005
18.885,0.017
18.890,0.041
18.895,0.049
18.900,0.062
18.905,0.061
18.910,0.047
18.915,0.048
18.920,0.048
18.925,0.046
18.930,0.036
18.935,0.039
18.940,0.090
18.945,0.192
18.950,0.285
18.955,0.266
18.960,0.096
18.965,-0.262
18.970,-0.844
18.975,-1.524
18.980,-1.938
18.985,-1.889
18.990,-1.454
18.995,-0.750
19.000,-0.173
19.005,0.055
19.010,0.119
19.015,0.171
19.020,0.303
19.025,0.424
19.030,0.409
19.035,0.399
19.040,0.451
19.045,0.440
19.050,0.413
19.055,0.419
19.060,0.410
19.065,0.389
19.070,0.371
19.075,0.364
19.080,0.344
19.085,0.323
19.090,0.317
19.095,0.295
19.100,0.275
19.105,0.261
19.110,0.246
19.115,0.233
19.120,0.212
19.125,0.198
19.130,0.180
19.135,0.162
19.140,0.153
19.145,0.128
19.150,0.112
19.155,0.099
19.160,0.078
19.165,0.062
19.170,0.042
19.175,0.025
19.180,-0.005
19.185,-0.029
19.190,-0.041
19.195,-0.070
19.200,-0.093
19.205,-0.122
19.210,-0.160
19.215,-0.184
19.220,-0.222
19.225,-0.250
19.230,-0.271
19.235,-0.296
19.240,-0.312
19.245,-0.335
19.250,-0.347
19.255,-0.352
19.260,-0.357
19.265,-0.349
19.270,-0.345
19.275,-0.328
19.280,-0.307
19.285,-0.274
19.290,-0.217
19.295,-0.169
19.300,-0.102
19.305,-0.028
19.310,0.037
19.315,0.114
19.320,0.182
19.325,0.251
19.330,0.305
19.335,0.343
19.340,0.381
19.345,0.399
19.350,0.419
19.355,0.433
19.360,0.433
19.365,0.434
19.370,0.417
19.375,0.406
19.380,0.396
19.385,0.376
19.390,0.364
19.395,0.344
19.400,0.329
19.405,0.314
19.410,0.290
19.415,0.277
19.420,0.254
19.425,0.244
19.430,0.235
19.435,0.211
19.440,0.199
19.445,0.176
19.450,0.162
19.455,0.151
19.460,0.129
19.465,0.122
19.470,0.113
19.475,0.101
19.480,0.082
19.485,0.067
19.490,0.067
19.495,0.051
19.500,0.040
19.505,0.032
19.510,0.021
19.515,0.019
19.520,0.005
19.525,0.001
19.530,-0.003
19.535,-0.012
19.540,-0.012
19.545,-0.031
19.550,-0.033
19.555,-0.023
19.560,-0.022
19.565,-0.021
19.570,-0.029
19.575,-0.033
19.580,-0.038
19.585,-0.041
19.590,-0.040
19.595,-0.051
19.600,-0.050
19.605,-0.052
19.610,-0.059
19.615,-0.051
19.620,-0.055
19.625,-0.057
19.630,-0.064
19.635,-0.074
19.640,-0.066
19.645,-0.067
19.650,-0.066
19.655,-0.071
19.660,-0.080
19.665,-0.072
19.670,-0.075
19.675,-0.071
19.680,-0.070
19.685,-0.075
19.690,-0.071
19.695,-0.082
19.700,-0.084
19.705,-0.081
19.710,-0.085
19.715,-0.078
19.720,-0.079
19.725,-0.077
19.730,-0.077
19.735,-0.077
19.740,-0.072
19.745,-0.081
19.750,-0.079
19.755,-0.077
19.760,-0.085
19.765,-0.080
19.770,-0.079
19.775,-0.079
19.780,-0.081
19.785,-0.078
19.790,-0.074
19.795,-0.079
19.800,-0.071
19.805,-0.065
19.810,-0.069
19.815,-0.068
19.820,-0.076
19.825,-0.071
19.830,-0.066
19.835,-0.068
19.840,-0.062
19.845,-0.065
19.850,-0.058
19.855,-0.061
19.860,-0.087
19.865,-0.098
19.870,-0.106
19.875,-0.107
19.880,-0.112
19.885,-0.123
19.890,-0.115
19.895,-0.113
19.900,-0.112
19.905,-0.109
19.910,-0.104
19.915,-0.084
19.920,-0.064
19.925,-0.031
19.930,-0.021
19.935,-0.025
19.940,-0.009
19.945,-0.005
19.950,0.017
19.955,0.044
19.960,0.049
19.965,0.056
19.970,0.049
19.975,0.044
19.980,0.043
19.985,0.035
19.990,0.031
19.995,0.022
20.000,0.041
20.005,0.117
20.010,0.238
20.015,0.316
20.020,0.241
20.025,-0.007
20.030,-0.469
20.035,-1.128
20.040,-1.729
20.045,-1.959
20.050,-1.743
20.055,-1.138
20.060,-0.415
20.065,0.001
20.070,0.106
20.075,0.130
20.080,0.203
20.085,0.351
20.090,0.412
20.095,0.372
20.100,0.402
20.105,0.433
20.110,0.394
20.115,0.387
20.120,0.394
20.125,0.377
20.130,0.352
20.135,0.344
20.140,0.341
20.145,0.315
20.150,0.303
20.155,0.293
20.160,0.269
20.165,0.257
20.170,0.236
20.175,0.218
20.180,0.204
20.185,0.197
20.190,0.187
20.195,0.163
20.200,0.152
20.205,0.138
20.210,0.113
20.215,0.097
20.220,0.079
20.225,0.069
20.230,0.049
20.235,0.022
20.240,0.011
20.245,-0.018
20.250,-0.043
20.255,-0.062
20.260,-0.088
20.265,-0.110
20.270,-0.146
20.275,-0.177
20.280,-0.208
20.285,-0.239
20.290,-0.256
20.295,-0.285
20.300,-0.306
20.305,-0.330
20.310,-0.349
20.315,-0.346
20.320,-0.353
20.325,-0.355
20.330,-0.350
20.335,-0.336
20.340,-0.304
20.345,-0.284
20.350,-0.247
20.355,-0.192
20.360,-0.128
20.365,-0.052
20.370,0.012
20.375,0.086
20.380,0.159
20.385,0.221
20.390,0.286
20.395,0.329
20.400,0.372
20.405,0.405
20.410,0.424
20.415,0.439
20.420,0.430
20.425,0.424
20.430,0.419
20.435,0.413
20.440,0.408
20.445,0.383
20.450,0.371
20.455,0.361
20.460,0.338
20.465,0.322
20.470,0.298
20.475,0.286
20.480,0.272
20.485,0.256
20.490,0.246
20.495,0.213
20.500,0.196
20.505,0.188
20.510,0.173
20.515,0.166
20.520,0.142
20.525,0.126
20.530,0.116
20.535,0.104
20.540,0.098
20.545,0.078
20.550,0.072
20.555,0.060
20.560,0.045
20.565,0.048
20.570,0.032
20.575,0.022
20.580,0.015
20.585,0.001
20.590,0.001
20.595,-0.010
20.600,-0.011
20.605,-0.008
20.610,-0.015
20.615,-0.016
20.620,-0.028
20.625,-0.026
20.630,-0.027
20.635,-0.034
20.640,-0.031
20.645,-0.042
20.650,-0.043
20.655,-0.040
20.660,-0.047
20.665,-0.044
20.670,-0.050
20.675,-0.054
20.680,-0.057
20.685,-0.057
20.690,-0.051
20.695,-0.068
20.700,-0.067
20.705,-0.059
20.710,-0.066
20.715,-0.066
20.720,-0.073
20.725,-0.068
20.730,-0.069
20.735,-0.078
20.740,-0.073
20.745,-0.082
20.750,-0.082
20.755,-0.076
20.760,-0.081
20.765,-0.078
20.770,-0.079
20.775,-0.079
20.780,-0.080
20.785,-0.078
20.790,-0.071
20.795,-0.081
20.800,-0.083
20.805,-0.085
20.810,-0.088
20.815,-0.082
20.820,-0.088
20.825,-0.082
20.830,-0.080
20.835,-0.093
20.840,-0.105
20.845,-0.121
20.850,-0.119
20.855,-0.127
20.860,-0.141
20.865,-0.135
20.870,-0.136
20.875,-0.130
20.880,-0.127
20.885,-0.132
20.890,-0.120
20.895,-0.110
20.900,-0.076
20.905,-0.046
20.910,-0.046
20.915,-0.038
20.920,-0.033
20.925,-0.014
20.930,0.005
20.935,0.014
20.940,0.030
20.945,0.023
20.950,0.014
20.955,0.014
20.960,0.013
20.965,0.014
20.970,0.002
20.975,0.002
20.980,0.026
20.985,0.121
20.990,0.251
20.995,0.269
21.000,0.151
21.005,-0.142
21.010,-0.651
21.015,-1.315
21.020,-1.855
21.025,-1.942
21.030,-1.598
21.035,-0.922
21.040,-0.262
21.045,0.013
21.050,0.077
21.055,0.112
21.060,0.211
21.065,0.359
21.070,0.374
21.075,0.349
21.080,0.388
21.085,0.399
21.090,0.377
21.095,0.369
21.100,0.371
21.105,0.348
21.110,0.325
21.115,0.328
21.120,0.314
21.125,0.294
21.130,0.278
21.135,0.259
21.140,0.249
21.145,0.234
21.150,0.225
21.155,0.206
21.160,0.184
21.165,0.177
21.170,0.153
21.175,0.141
21.180,0.132
21.185,0.119
21.190,0.113
21.195,0.088
21.200,0.071
21.205,0.051
21.210,0.028
21.215,0.019
21.220,-0.004
21.225,-0.025
21.230,-0.050
21.235,-0.081
21.240,-0.102
21.245,-0.135
21.250,-0.157
21.255,-0.183
21.260,-0.220
21.265,-0.246
21.270,-0.283
21.275,-0.307
21.280,-0.322
21.285,-0.338
21.290,-0.340
21.295,-0.354
21.300,-0.357
21.305,-0.349
21.310,-0.347
21.315,-0.329
21.320,-0.300
21.325,-0.254
21.330,-0.211
21.335,-0.161
21.340,-0.089
21.345,-0.020
21.350,0.064
21.355,0.141
21.360,0.201
21.365,0.271
21.370,0.325
21.375,0.369
21.380,0.397
21.385,0.417
21.390,0.437
21.395,0.434
21.400,0.435
21.405,0.431
21.410,0.416
21.415,0.411
21.420,0.392
21.425,0.379
21.430,0.366
21.435,0.344
21.440,0.333
21.445,0.312
21.450,0.297
21.455,0.283
21.460,0.259
21.465,0.250
21.470,0.234
21.475,0.215
21.480,0.200
21.485,0.183
21.490,0.171
21.495,0.150
21.500,0.137
21.505,0.128
21.510,0.116
21.515,0.105
21.520,0.085
21.525,0.076
21.530,0.061
21.535,0.048
21.540,0.051
21.545,0.035
21.550,0.023
21.555,0.012
21.560,0.001
21.565,0.006
21.570,-0.001
21.575,-0.005
21.580,-0.011
21.585,-0.021
21.590,-0.015
21.595,-0.023
21.600,-0.025
21.605,-0.030
21.610,-0.036
21.615,-0.026
21.620,-0.031
21.625,-0.033
21.630,-0.039
21.635,-0.045
21.640,-0.038
21.645,-0.048
21.650,-0.048
21.655,-0.047
21.660,-0.056
21.665,-0.050
21.670,-0.057
21.675,-0.059
21.680,-0.056
21.685,-0.061
21.690,-0.061
21.695,-0.069
21.700,-0.068
21.705,-0.070
21.710,-0.076
21.715,-0.065
21.720,-0.065
21.725,-0.066
21.730,-0.073
21.735,-0.082
21.740,-0.072
21.745,-0.076
21.750,-0.076
21.755,-0.070
21.760,-0.075
21.765,-0.073
21.770,-0.073
21.775,-0.074
21.780,-0.078
21.785,-0.081
21.790,-0.072
21.795,-0.076
21.800,-0.076
21.805,-0.076
21.810,-0.079
21.815,-0.070
21.820,-0.074
21.825,-0.070
21.830,-0.068
21.835,-0.071
21.840,-0.060
21.845,-0.069
21.850,-0.068
21.855,-0.065
21.860,-0.072
21.865,-0.064
21.870,-0.066
21.875,-0.064
21.880,-0.062
21.885,-0.065
21.890,-0.057
21.895,-0.063
21.900,-0.061
21.905,-0.053
21.910,-0.056
21.915,-0.051
21.920,-0.054
21.925,-0.055
21.930,-0.050
21.935,-0.051
21.940,-0.047
21.945,-0.051
21.950,-0.056
21.955,-0.074
21.960,-0.094
21.965,-0.096
21.970,-0.103
21.975,-0.102
21.980,-0.101
21.985,-0.100
21.990,-0.085
21.995,-0.090
22.000,-0.086
22.005,-0.073
22.010,-0.061
22.015,-0.023
22.020,-0.002
22.025,0.000
22.030,0.003
22.035,0.007
22.040,0.026
22.045,0.041
22.050,0.056
22.055,0.067
22.060,0.061
22.065,0.060
22.070,0.056
22.075,0.061
22.080,0.055
22.085,0.041
22.090,0.048
22.095,0.072
22.100,0.170
22.105,0.281
22.110,0.283
22.115,0.149
22.120,-0.176
22.125,-0.707
22.130,-1.401
22.135,-1.896
22.140,-1.890
22.145,-1.543
22.150,-0.909
22.155,-0.287
22.160,-0.006
22.165,0.106
22.170,0.156
22.175,0.266
22.180,0.421
22.185,0.436
22.190,0.411
22.195,0.448
22.200,0.464
22.205,0.433
22.210,0.429
22.215,0.442
22.220,0.405
22.225,0.377
22.230,0.375
22.235,0.357
22.240,0.337
22.245,0.316
22.250,0.311
22.255,0.296
22.260,0.271
22.265,0.260
22.270,0.237
22.275,0.226
22.280,0.213
22.285,0.189
22.290,0.179
22.295,0.157
22.300,0.142
22.305,0.125
22.310,0.100
22.315,0.090
22.320,0.070
22.325,0.050
22.330,0.032
22.335,0.005
22.340,-0.015
22.345,-0.045
22.350,-0.069
22.355,-0.089
22.360,-0.125
22.365,-0.156
22.370,-0.189
22.375,-0.215
22.380,-0.242
22.385,-0.274
22.390,-0.294
22.395,-0.317
22.400,-0.332
22.405,-0.346
22.410,-0.366
22.415,-0.365
22.420,-0.359
22.425,-0.348
22.430,-0.332
22.435,-0.312
22.440,-0.276
22.445,-0.238
22.450,-0.179
22.455,-0.108
22.460,-0.040
22.465,0.033
22.470,0.101
22.475,0.176
22.480,0.242
22.485,0.294
22.490,0.345
22.495,0.372
22.500,0.400
22.505,0.422
22.510,0.423
22.515,0.426
22.520,0.421
22.525,0.419
22.530,0.411
22.535,0.390
22.540,0.379
22.545,0.364
22.550,0.352
22.555,0.334
22.560,0.306
22.565,0.294
22.570,0.276
22.575,0.258
22.580,0.239
22.585,0.224
22.590,0.223
22.595,0.203
22.600,0.185
22.605,0.166
22.610,0.141
22.615,0.136
22.620,0.119
22.625,0.107
22.630,0.098
22.635,0.079
22.640,0.072
22.645,0.058
22.650,0.048
22.655,0.035
22.660,0.019
22.665,0.018
22.670,0.009
22.675,0.006
22.680,-0.001
22.685,-0.008
22.690,-0.004
22.695,-0.018
22.700,-0.026
22.705,-0.029
22.710,-0.033
22.715,-0.033
22.720,-0.041
22.725,-0.036
22.730,-0.033
22.735,-0.041
22.740,-0.040
22.745,-0.051
22.750,-0.048
22.755,-0.042
22.760,-0.054
22.765,-0.051
22.770,-0.056
22.775,-0.058
22.780,-0.058
22.785,-0.064
22.790,-0.057
22.795,-0.065
22.800,-0.070
22.805,-0.069
22.810,-0.073
22.815,-0.064
22.820,-0.069
22.825,-0.070
22.830,-0.069
22.835,-0.073
22.840,-0.068
22.845,-0.078
22.850,-0.074
22.855,-0.064
22.860,-0.074
22.865,-0.075
22.870,-0.081
22.875,-0.080
22.880,-0.077
22.885,-0.079
22.890,-0.071
22.895,-0.073
22.900,-0.071
22.905,-0.073
22.910,-0.084
22.915,-0.077
22.920,-0.076
22.925,-0.076
22.930,-0.078
22.935,-0.080
22.940,-0.068
22.945,-0.071
22.950,-0.072
22.955,-0.070
22.960,-0.074
22.965,-0.067
22.970,-0.067
22.975,-0.062
22.980,-0.061
22.985,-0.072
22.990,-0.069
22.995,-0.067
23.000,-0.058
23.005,-0.056
23.010,-0.064
23.015,-0.061
23.020,-0.063
23.025,-0.057
23.030,-0.052
23.035,-0.059
23.040,-0.054
23.045,-0.056
23.050,-0.053
23.055,-0.049
23.060,-0.056
23.065,-0.047
23.070,-0.040
23.075,-0.040
23.080,-0.044
23.085,-0.046
23.090,-0.039
23.095,-0.045
23.100,-0.040
23.105,-0.035
23.110,-0.039
23.115,-0.038
23.120,-0.060
23.125,-0.075
23.130,-0.078
23.135,-0.084
23.140,-0.081
23.145,-0.096
23.150,-0.097
23.155,-0.086
23.160,-0.086
23.165,-0.083
23.170,-0.080
23.175,-0.060
23.180,-0.030
23.185,-0.005
23.190,0.010
23.195,0.006
23.200,0.013
23.205,0.028
23.210,0.041
23.215,0.066
23.220,0.072
23.225,0.071
23.230,0.067
23.235,0.059
23.240,0.063
23.245,0.052
23.250,0.049
23.255,0.055
23.260,0.064
23.265,0.148
23.270,0.268
23.275,0.319
23.280,0.232
23.285,-0.034
23.290,-0.508
23.295,-1.193
23.300,-1.802
23.305,-1.948
23.310,-1.677
23.315,-1.092
23.320,-0.394
23.325,-0.004
23.330,0.113
23.335,0.152
23.340,0.222
23.345,0.377
23.350,0.444
23.355,0.406
23.360,0.423
23.365,0.463
23.370,0.431
23.375,0.413
23.380,0.422
23.385,0.396
23.390,0.378
23.395,0.369
23.400,0.356
23.405,0.334
23.410,0.311
23.415,0.303
23.420,0.283
23.425,0.268
23.430,0.257
23.435,0.233
23.440,0.221
23.445,0.206
23.450,0.190
23.455,0.171
23.460,0.148
23.465,0.141
23.470,0.127
23.475,0.111
23.480,0.090
23.485,0.065
23.490,0.054
23.495,0.030
23.500,0.010
23.505,-0.011
23.510,-0.039
23.515,-0.057
23.520,-0.092
23.525,-0.120
23.530,-0.145
23.535,-0.181
23.540,-0.207
23.545,-0.242
23.550,-0.277
23.555,-0.302
23.560,-0.325
23.565,-0.337
23.570,-0.348
23.575,-0.355
23.580,-0.361
23.585,-0.361
23.590,-0.351
23.595,-0.345
23.600,-0.325
23.605,-0.294
23.610,-0.260
23.615,-0.204
23.620,-0.145
23.625,-0.076
23.630,-0.001
23.635,0.068
23.640,0.145
23.645,0.211
23.650,0.279
23.655,0.339
23.660,0.368
23.665,0.399
23.670,0.419
23.675,0.433
23.680,0.442
23.685,0.437
23.690,0.431
23.695,0.416
23.700,0.408
23.705,0.398
23.710,0.376
23.715,0.363
23.720,0.345
23.725,0.331
23.730,0.310
23.735,0.285
23.740,0.282
23.745,0.260
23.750,0.243
23.755,0.229
23.760,0.204
23.765,0.197
23.770,0.179
23.775,0.162
23.780,0.147
23.785,0.128
23.790,0.121
23.795,0.102
23.800,0.086
23.805,0.078
23.810,0.067
23.815,0.062
23.820,0.046
23.825,0.034
23.830,0.022
23.835,0.011
23.840,0.016
23.845,0.005
23.850,0.001
23.855,-0.004
23.860,-0.019
23.865,-0.016
23.870,-0.021
23.875,-0.028
23.880,-0.029
23.885,-0.033
23.890,-0.030
23.895,-0.039
23.900,-0.041
23.905,-0.039
23.910,-0.044
23.915,-0.043
23.920,-0.047
23.925,-0.046
23.930,-0.049
23.935,-0.059
23.940,-0.055
23.945,-0.060
23.950,-0.060
23.955,-0.061
23.960,-0.071
23.965,-0.068
23.970,-0.074
23.975,-0.075
23.980,-0.072
23.985,-0.072
23.990,-0.066
23.995,-0.073
24.000,-0.073
24.005,-0.073
24.010,-0.086
24.015,-0.081
24.020,-0.080
24.025,-0.078
24.030,-0.075
24.035,-0.084
24.040,-0.080
24.045,-0.078
24.050,-0.078
24.055,-0.078
24.060,-0.081
24.065,-0.078
24.070,-0.086
24.075,-0.088
24.080,-0.081
24.085,-0.076
24.090,-0.069
24.095,-0.080
24.100,-0.080
24.105,-0.073
24.110,-0.081
24.115,-0.074
24.120,-0.074
24.125,-0.079
24.130,-0.081
24.135,-0.079
24.140,-0.066
24.145,-0.069
24.150,-0.072
24.155,-0.071
24.160,-0.075
24.165,-0.066
24.170,-0.065
24.175,-0.068
24.180,-0.068
24.185,-0.067
24.190,-0.053
24.195,-0.054
24.200,-0.060
24.205,-0.059
24.210,-0.065
24.215,-0.070
24.220,-0.091
24.225,-0.098
24.230,-0.092
24.235,-0.099
24.240,-0.103
24.245,-0.113
24.250,-0.108
24.255,-0.098
24.260,-0.106
24.265,-0.101
24.270,-0.094
24.275,-0.070
24.280,-0.035
24.285,-0.014
24.290,-0.005
24.295,-0.015
24.300,-0.005
24.305,0.019
24.310,0.035
24.315,0.055
24.320,0.054
24.325,0.051
24.330,0.048
24.335,0.038
24.340,0.041
24.345,0.036
24.350,0.034
24.355,0.036
24.360,0.067
24.365,0.181
24.370,0.286
24.375,0.282
24.380,0.124
24.385,-0.221
24.390,-0.769
24.395,-1.458
24.400,-1.920
24.405,-1.893
24.410,-1.469
24.415,-0.765
24.420,-0.174
24.425,0.054
24.430,0.109
24.435,0.149
24.440,0.276
24.445,0.399
24.450,0.399
24.455,0.388
24.460,0.424
24.465,0.432
24.470,0.400
24.475,0.403
24.480,0.408
24.485,0.375
24.490,0.360
24.495,0.345
24.500,0.328
24.505,0.320
24.510,0.307
24.515,0.294
24.520,0.267
24.525,0.252
24.530,0.244
24.535,0.223
24.540,0.211
24.545,0.192
24.550,0.178
24.555,0.166
24.560,0.147
24.565,0.137
24.570,0.115
24.575,0.094
24.580,0.076
24.585,0.056
24.590,0.045
24.595,0.020
24.600,0.001
24.605,-0.019
24.610,-0.047
24.615,-0.066
24.620,-0.097
24.625,-0.123
24.630,-0.154
24.635,-0.190
24.640,-0.213
24.645,-0.249
24.650,-0.277
24.655,-0.298
24.660,-0.324
24.665,-0.333
24.670,-0.348
24.675,-0.355
24.680,-0.358
24.685,-0.357
24.690,-0.337
24.695,-0.327
24.700,-0.297
24.705,-0.256
24.710,-0.220
24.715,-0.159
24.720,-0.098
24.725,-0.025
24.730,0.054
24.735,0.123
24.740,0.198
24.745,0.255
24.750,0.308
24.755,0.357
24.760,0.388
24.765,0.418
24.770,0.428
24.775,0.437
24.780,0.442
24.785,0.430
24.790,0.425
24.795,0.410
24.800,0.401
24.805,0.390
24.810,0.366
24.815,0.354
24.820,0.336
24.825,0.321
24.830,0.303
24.835,0.282
24.840,0.269
24.845,0.242
24.850,0.231
24.855,0.224
24.860,0.204
24.865,0.192
24.870,0.168
24.875,0.153
24.880,0.144
24.885,0.124
24.890,0.116
24.895,0.096
24.900,0.084
24.905,0.078
24.910,0.059
24.915,0.052
24.920,0.038
24.925,0.029
24.930,0.024
24.935,0.012
24.940,0.012
24.945,-0.001
24.950,-0.009
24.955,-0.009
24.960,-0.019
24.965,-0.017
24.970,-0.020
24.975,-0.024
24.980,-0.021
24.985,-0.028
24.990,-0.029
24.995,-0.039
25.000,-0.043
25.005,-0.037
25.010,-0.041
25.015,-0.040
25.020,-0.049
25.025,-0.055
25.030,-0.049
25.035,-0.050
25.040,-0.047
25.045,-0.060
25.050,-0.062
25.055,-0.057
25.060,-0.066
25.065,-0.062
25.070,-0.070
25.075,-0.073
25.080,-0.063
25.085,-0.067
25.090,-0.068
25.095,-0.075
25.100,-0.079
25.105,-0.076
25.110,-0.082
25.115,-0.078
25.120,-0.080
25.125,-0.075
25.130,-0.070
25.135,-0.077
25.140,-0.072
25.145,-0.083
25.150,-0.086
25.155,-0.074
25.160,-0.079
25.165,-0.078
25.170,-0.078
25.175,-0.080
25.180,-0.077
25.185,-0.080
25.190,-0.075
25.195,-0.077
25.200,-0.078
25.205,-0.073
25.210,-0.079
25.215,-0.074
25.220,-0.073
25.225,-0.075
25.230,-0.075
25.235,-0.076
25.240,-0.067
25.245,-0.067
25.250,-0.062
25.255,-0.061
25.260,-0.070
25.265,-0.067
25.270,-0.073
25.275,-0.069
25.280,-0.058
25.285,-0.058
25.290,-0.052
25.295,-0.057
25.300,-0.057
25.305,-0.051
25.310,-0.057
25.315,-0.051
25.320,-0.051
25.325,-0.053
25.330,-0.055
25.335,-0.053
25.340,-0.039
25.345,-0.050
25.350,-0.072
25.355,-0.086
25.360,-0.093
25.365,-0.090
25.370,-0.099
25.375,-0.102
25.380,-0.100
25.385,-0.096
25.390,-0.083
25.395,-0.085
25.400,-0.076
25.405,-0.062
25.410,-0.048
25.415,-0.012
25.420,-0.002
25.425,-0.001
25.430,0.008
25.435,0.014
25.440,0.040
25.445,0.052
25.450,0.067
25.455,0.079
25.460,0.063
25.465,0.062
25.470,0.058
25.475,0.052
25.480,0.044
25.485,0.036
25.490,0.058
25.495,0.117
25.500,0.228
25.505,0.297
25.510,0.240
25.515,0.040
25.520,-0.380
25.525,-1.009
25.530,-1.665
25.535,-1.956
25.540,-1.772
25.545,-1.278
25.550,-0.584
25.555,-0.100
25.560,0.061
25.565,0.131
25.570,0.196
25.575,0.343
25.580,0.438
25.585,0.406
25.590,0.420
25.595,0.464
25.600,0.452
25.605,0.427
25.610,0.425
25.615,0.419
25.620,0.383
25.625,0.371
25.630,0.366
25.635,0.340
25.640,0.332
25.645,0.318
25.650,0.299
25.655,0.283
25.660,0.258
25.665,0.246
25.670,0.230
25.675,0.216
25.680,0.206
25.685,0.185
25.690,0.171
25.695,0.152
25.700,0.136
25.705,0.121
25.710,0.098
25.715,0.080
25.720,0.058
25.725,0.041
25.730,0.024
25.735,-0.004
25.740,-0.024
25.745,-0.054
25.750,-0.076
25.755,-0.097
25.760,-0.131
25.765,-0.156
25.770,-0.192
25.775,-0.228
25.780,-0.259
25.785,-0.287
25.790,-0.300
25.795,-0.322
25.800,-0.339
25.805,-0.345
25.810,-0.356
25.815,-0.351
25.820,-0.349
25.825,-0.341
25.830,-0.323
25.835,-0.299
25.840,-0.256
25.845,-0.215
25.850,-0.158
25.855,-0.089
25.860,-0.026
25.865,0.056
25.870,0.132
25.875,0.198
25.880,0.262
25.885,0.314
25.890,0.361
25.895,0.386
25.900,0.408
25.905,0.429
25.910,0.432
25.915,0.434
25.920,0.422
25.925,0.411
25.930,0.402
25.935,0.388
25.940,0.384
25.945,0.363
25.950,0.342
25.955,0.327
25.960,0.304
25.965,0.295
25.970,0.275
25.975,0.252
25.980,0.237
25.985,0.223
25.990,0.219
25.995,0.198
26.000,0.178
26.005,0.167
26.010,0.149
26.015,0.138
26.020,0.118
26.025,0.102
26.030,0.093
26.035,0.074
26.040,0.066
26.045,0.053
26.050,0.046
26.055,0.044
26.060,0.031
26.065,0.025
26.070,0.010
26.075,-0.001
26.080,-0.001
26.085,-0.011
26.090,-0.010
26.095,-0.016
26.100,-0.023
26.105,-0.020
26.110,-0.027
26.115,-0.030
26.120,-0.036
26.125,-0.040
26.130,-0.038
26.135,-0.039
26.140,-0.038
26.145,-0.045
26.150,-0.046
26.155,-0.049
26.160,-0.058
26.165,-0.048
26.170,-0.049
26.175,-0.056
26.180,-0.059
26.185,-0.064
26.190,-0.058
26.195,-0.065
26.200,-0.068
26.205,-0.067
26.210,-0.078
26.215,-0.071
26.220,-0.070
26.225,-0.072
26.230,-0.075
26.235,-0.081
26.240,-0.071
26.245,-0.076
26.250,-0.083
26.255,-0.079
26.260,-0.082
26.265,-0.076
26.270,-0.081
26.275,-0.086
26.280,-0.082
26.285,-0.083
26.290,-0.077
26.295,-0.084
26.300,-0.083
26.305,-0.077
26.310,-0.087
26.315,-0.080
26.320,-0.075
26.325,-0.073
26.330,-0.073
26.335,-0.083
26.340,-0.078
26.345,-0.077
26.350,-0.079
26.355,-0.074
26.360,-0.074
26.365,-0.072
26.370,-0.079
26.375,-0.076
26.380,-0.064
26.385,-0.066
26.390,-0.066
26.395,-0.076
26.400,-0.074
26.405,-0.060
26.410,-0.062
26.415,-0.060
26.420,-0.062
26.425,-0.062
26.430,-0.057
26.435,-0.059
26.440,-0.052
26.445,-0.055
26.450,-0.055
26.455,-0.049
26.460,-0.052
26.465,-0.045
26.470,-0.048
26.475,-0.049
26.480,-0.045
26.485,-0.045
26.490,-0.034
26.495,-0.041
26.500,-0.054
26.505,-0.073
26.510,-0.094
26.515,-0.089
26.520,-0.093
26.525,-0.096
26.530,-0.090
26.535,-0.092
26.540,-0.083
26.545,-0.086
26.550,-0.080
26.555,-0.065
26.560,-0.058
26.565,-0.023
26.570,0.003
26.575,0.003
26.580,0.007
26.585,0.015
26.590,0.037
26.595,0.053
26.600,0.064
26.605,0.074
26.610,0.067
26.615,0.062
26.620,0.056
26.625,0.057
26.630,0.054
26.635,0.042
26.640,0.051
26.645,0.089
26.650,0.199
26.655,0.313
26.660,0.298
26.665,0.136
26.670,-0.223
26.675,-0.799
26.680,-1.496
26.685,-1.930
26.690,-1.864
26.695,-1.450
26.700,-0.753
26.705,-0.160
26.710,0.063
26.715,0.141
26.720,0.173
26.725,0.288
26.730,0.425
26.735,0.414
26.740,0.400
26.745,0.441
26.750,0.442
26.755,0.415
26.760,0.410
26.765,0.412
26.770,0.381
26.775,0.362
26.780,0.360
26.785,0.337
26.790,0.323
26.795,0.312
26.800,0.297
26.805,0.279
26.810,0.260
26.815,0.249
26.820,0.225
26.825,0.205
26.830,0.197
26.835,0.178
26.840,0.164
26.845,0.149
26.850,0.136
26.855,0.126
26.860,0.103
26.865,0.084
26.870,0.060
26.875,0.042
26.880,0.025
26.885,0.001
26.890,-0.016
26.895,-0.049
26.900,-0.076
26.905,-0.097
26.910,-0.130
26.915,-0.154
26.920,-0.186
26.925,-0.214
26.930,-0.242
26.935,-0.276
26.940,-0.293
26.945,-0.320
26.950,-0.337
26.955,-0.340
26.960,-0.351
26.965,-0.348
26.970,-0.346
26.975,-0.343
26.980,-0.327
26.985,-0.306
26.990,-0.273
26.995,-0.237
27.000,-0.184
27.005,-0.120
27.010,-0.055
27.015,0.026
27.020,0.101
27.025,0.169
27.030,0.237
27.035,0.292
27.040,0.343
27.045,0.376
27.050,0.403
27.055,0.425
27.060,0.426
27.065,0.432
27.070,0.427
27.075,0.418
27.080,0.412
27.085,0.397
27.090,0.390
27.095,0.372
27.100,0.354
27.105,0.339
27.110,0.315
27.115,0.300
27.120,0.280
27.125,0.263
27.130,0.246
27.135,0.225
27.140,0.216
27.145,0.198
27.150,0.180
27.155,0.167
27.160,0.149
27.165,0.138
27.170,0.121
27.175,0.111
27.180,0.103
27.185,0.084
27.190,0.075
27.195,0.058
27.200,0.048
27.205,0.045
27.210,0.028
27.215,0.025
27.220,0.019
27.225,0.011
27.230,0.004
27.235,-0.006
27.240,-0.001
27.245,-0.012
27.250,-0.017
27.255,-0.014
27.260,-0.023
27.265,-0.018
27.270,-0.024
27.275,-0.033
27.280,-0.031
27.285,-0.035
27.290,-0.032
27.295,-0.039
27.300,-0.044
27.305,-0.044
27.310,-0.053
27.315,-0.051
27.320,-0.054
27.325,-0.052
27.330,-0.051
27.335,-0.063
27.340,-0.062
27.345,-0.069
27.350,-0.067
27.355,-0.059
27.360,-0.070
27.365,-0.069
27.370,-0.071
27.375,-0.074
27.380,-0.075
27.385,-0.076
27.390,-0.071
27.395,-0.079
27.400,-0.079
27.405,-0.075
27.410,-0.078
27.415,-0.073
27.420,-0.082
27.425,-0.087
27.430,-0.084
27.435,-0.088
27.440,-0.081
27.445,-0.090
27.450,-0.091
27.455,-0.075
27.460,-0.077
27.465,-0.073
27.470,-0.081
27.475,-0.088
27.480,-0.080
27.485,-0.080
27.490,-0.075
27.495,-0.079
27.500,-0.080
27.505,-0.073
27.510,-0.076
27.515,-0.070
27.520,-0.076
27.525,-0.080
27.530,-0.073
27.535,-0.077
27.540,-0.068
27.545,-0.069
27.550,-0.071
27.555,-0.066
27.560,-0.072
27.565,-0.067
27.570,-0.064
27.575,-0.062
27.580,-0.055
27.585,-0.058
27.590,-0.054
27.595,-0.057
27.600,-0.059
27.605,-0.053
27.610,-0.053
27.615,-0.047
27.620,-0.048
27.625,-0.053
27.630,-0.066
27.635,-0.088
27.640,-0.090
27.645,-0.097
27.650,-0.099
27.655,-0.100
27.660,-0.109
27.665,-0.094
27.670,-0.092
27.675,-0.096
27.680,-0.089
27.685,-0.083
27.690,-0.054
27.695,-0.022
27.700,-0.002
27.705,-0.002
27.710,-0.006
27.715,0.011
27.720,0.030
27.725,0.054
27.730,0.063
27.735,0.058
27.740,0.062
27.745,0.050
27.750,0.049
27.755,0.059
27.760,0.045
27.765,0.042
27.770,0.047
27.775,0.094
27.780,0.213
27.785,0.307
27.790,0.283
27.795,0.092
27.800,-0.284
27.805,-0.869
27.810,-1.554
27.815,-1.946
27.820,-1.868
27.825,-1.398
27.830,-0.670
27.835,-0.126
27.840,0.069
27.845,0.114
27.850,0.169
27.855,0.316
27.860,0.418
27.865,0.406
27.870,0.401
27.875,0.444
27.880,0.444
27.885,0.413
27.890,0.423
27.895,0.413
27.900,0.380
27.905,0.371
27.910,0.359
27.915,0.339
27.920,0.318
27.925,0.312
27.930,0.299
27.935,0.275
27.940,0.267
27.945,0.246
27.950,0.224
27.955,0.214
27.960,0.196
27.965,0.183
27.970,0.161
27.975,0.145
27.980,0.137
27.985,0.115
27.990,0.103
27.995,0.084
28.000,0.066
28.005,0.050
28.010,0.020
28.015,0.005
28.020,-0.015
28.025,-0.044
28.030,-0.070
28.035,-0.100
28.040,-0.120
28.045,-0.153
28.050,-0.184
28.055,-0.206
28.060,-0.242
28.065,-0.270
28.070,-0.295
28.075,-0.314
28.080,-0.329
28.085,-0.345
28.090,-0.349
28.095,-0.352
28.100,-0.342
28.105,-0.330
28.110,-0.324
28.115,-0.297
28.120,-0.266
28.125,-0.222
28.130,-0.164
28.135,-0.106
28.140,-0.030
28.145,0.041
28.150,0.111
28.155,0.182
28.160,0.242
28.165,0.305
28.170,0.346
28.175,0.378
28.180,0.403
28.185,0.415
28.190,0.427
28.195,0.421
28.200,0.427
28.205,0.428
28.210,0.403
28.215,0.394
28.220,0.380
28.225,0.365
28.230,0.349
28.235,0.324
28.240,0.317
28.245,0.298
28.250,0.276
28.255,0.265
28.260,0.244
28.265,0.230
28.270,0.209
28.275,0.192
28.280,0.180
28.285,0.162
28.290,0.151
28.295,0.132
28.300,0.118
28.305,0.105
28.310,0.085
28.315,0.083
28.320,0.073
28.325,0.061
28.330,0.051
28.335,0.034
28.340,0.034
28.345,0.020
28.350,0.011
28.355,0.014
28.360,0.001
28.365,-0.003
28.370,-0.012
28.375,-0.018
28.380,-0.017
28.385,-0.025
28.390,-0.024
28.395,-0.028
28.400,-0.027
28.405,-0.026
28.410,-0.038
28.415,-0.035
28.420,-0.038
28.425,-0.042
28.430,-0.042
28.435,-0.047
28.440,-0.044
28.445,-0.052
28.450,-0.053
28.455,-0.048
28.460,-0.059
28.465,-0.060
28.470,-0.066
28.475,-0.064
28.480,-0.057
28.485,-0.065
28.490,-0.064
28.495,-0.073
28.500,-0.076
28.505,-0.070
28.510,-0.073
28.515,-0.066
28.520,-0.070
28.525,-0.078
28.530,-0.078
28.535,-0.080
28.540,-0.074
28.545,-0.081
28.550,-0.083
28.555,-0.076
28.560,-0.081
28.565,-0.078
28.570,-0.080
28.575,-0.082
28.580,-0.079
28.585,-0.084
28.590,-0.079
28.595,-0.083
28.600,-0.081
28.605,-0.072
28.610,-0.080
28.615,-0.078
28.620,-0.076
28.625,-0.074
28.630,-0.070
28.635,-0.073
28.640,-0.070
28.645,-0.076
28.650,-0.074
28.655,-0.067
28.660,-0.070
28.665,-0.062
28.670,-0.067
28.675,-0.068
28.680,-0.061
28.685,-0.067
28.690,-0.067
28.695,-0.065
28.700,-0.062
28.705,-0.057
28.710,-0.060
28.715,-0.054
28.720,-0.054
28.725,-0.053
28.730,-0.051
28.735,-0.052
28.740,-0.045
28.745,-0.051
28.750,-0.050
28.755,-0.042
28.760,-0.047
28.765,-0.040
28.770,-0.042
28.775,-0.044
28.780,-0.037
28.785,-0.040
28.790,-0.033
28.795,-0.036
28.800,-0.036
28.805,-0.030
28.810,-0.040
28.815,-0.036
28.820,-0.029
28.825,-0.031
28.830,-0.050
28.835,-0.074
28.840,-0.072
28.845,-0.080
28.850,-0.084
28.855,-0.083
28.860,-0.090
28.865,-0.077
28.870,-0.073
28.875,-0.073
28.880,-0.064
28.885,-0.051
28.890,-0.015
28.895,0.009
28.900,0.015
28.905,0.018
28.910,0.018
28.915,0.036
28.920,0.054
28.925,0.070
28.930,0.084
28.935,0.078
28.940,0.071
28.945,0.066
28.950,0.070
28.955,0.069
28.960,0.053
28.965,0.055
28.970,0.076
28.975,0.161
28.980,0.278
28.985,0.309
28.990,0.212
28.995,-0.072
29.000,-0.567
29.005,-1.236
29.010,-1.800
29.015,-1.926
29.020,-1.656
29.025,-1.036
29.030,-0.356
29.035,-0.007
29.040,0.107
29.045,0.143
29.050,0.246
29.055,0.409
29.060,0.435
29.065,0.409
29.070,0.440
29.075,0.458
29.080,0.435
29.085,0.426
29.090,0.433
29.095,0.402
29.100,0.378
29.105,0.380
29.110,0.360
29.115,0.336
29.120,0.319
29.125,0.306
29.130,0.289
29.135,0.269
29.140,0.261
29.145,0.239
29.150,0.221
29.155,0.214
29.160,0.191
29.165,0.179
29.170,0.163
29.175,0.146
29.180,0.129
29.185,0.106
29.190,0.094
29.195,0.069
29.200,0.048
29.205,0.038
29.210,0.018
29.215,0.001
29.220,-0.028
29.225,-0.056
29.230,-0.079
29.235,-0.111
29.240,-0.138
29.245,-0.171
29.250,-0.198
29.255,-0.218
29.260,-0.251
29.265,-0.273
29.270,-0.296
29.275,-0.320
29.280,-0.335
29.285,-0.347
29.290,-0.342
29.295,-0.342
29.300,-0.338
29.305,-0.324
29.310,-0.315
29.315,-0.285
29.320,-0.250
29.325,-0.203
29.330,-0.145
29.335,-0.087
29.340,-0.016
29.345,0.051
29.350,0.121
29.355,0.194
29.360,0.250
29.365,0.303
29.370,0.342
29.375,0.373
29.380,0.397
29.385,0.408
29.390,0.418
29.395,0.412
29.400,0.409
29.405,0.411
29.410,0.395
29.415,0.383
29.420,0.364
29.425,0.347
29.430,0.334
29.435,0.313
29.440,0.304
29.445,0.285
29.450,0.264
29.455,0.245
29.460,0.226
29.465,0.223
29.470,0.206
29.475,0.186
29.480,0.169
29.485,0.148
29.490,0.137
29.495,0.118
29.500,0.106
29.505,0.098
29.510,0.078
29.515,0.069
29.520,0.055
29.525,0.048
29.530,0.046
29.535,0.034
29.540,0.028
29.545,0.013
29.550,0.011
29.555,0.012
29.560,-0.003
29.565,-0.005
29.570,-0.011
29.575,-0.017
29.580,-0.018
29.585,-0.024
29.590,-0.019
29.595,-0.026
29.600,-0.030
29.605,-0.029
29.610,-0.037
29.615,-0.031
29.620,-0.033
29.625,-0.040
29.630,-0.044
29.635,-0.050
29.640,-0.043
29.645,-0.049
29.650,-0.054
29.655,-0.050
29.660,-0.062
29.665,-0.060
29.670,-0.059
29.675,-0.064
29.680,-0.061
29.685,-0.066
29.690,-0.066
29.695,-0.067
29.700,-0.063
29.705,-0.063
29.710,-0.072
29.715,-0.069
29.720,-0.074
29.725,-0.075
29.730,-0.074
29.735,-0.082
29.740,-0.075
29.745,-0.078
29.750,-0.082
29.755,-0.076
29.760,-0.080
29.765,-0.074
29.770,-0.072
29.775,-0.074
29.780,-0.077
29.785,-0.084
29.790,-0.078
29.795,-0.078
29.800,-0.076
29.805,-0.072
29.810,-0.080
29.815,-0.075
29.820,-0.071
29.825,-0.068
29.830,-0.069
29.835,-0.074
29.840,-0.067
29.845,-0.071
29.850,-0.069
29.855,-0.064
29.860,-0.071
29.865,-0.062
29.870,-0.065
29.875,-0.070
29.880,-0.064
29.885,-0.065
29.890,-0.059
29.895,-0.061
29.900,-0.058
29.905,-0.054
29.910,-0.061
29.915,-0.059
29.920,-0.059
29.925,-0.051
29.930,-0.046
29.935,-0.053
29.940,-0.048
29.945,-0.052
29.950,-0.053
29.955,-0.048
29.960,-0.050
29.965,-0.040
29.970,-0.034
29.975,-0.034
29.980,-0.043
29.985,-0.062
29.990,-0.074
29.995,-0.090
30.000,-0.092
30.005,-0.088
30.010,-0.098
30.015,-0.093
30.020,-0.092
30.025,-0.094
30.030,-0.085
30.035,-0.080
30.040,-0.057
30.045,-0.031
30.050,-0.004
30.055,0.010
30.060,0.002
30.065,0.010
30.070,0.017
30.075,0.033
30.080,0.059
30.085,0.067
30.090,0.074
30.095,0.067
30.100,0.061
30.105,0.065
30.110,0.056
30.115,0.053
30.120,0.048
30.125,0.055
30.130,0.125
30.135,0.247
30.140,0.323
30.145,0.251
30.150,0.012
30.155,-0.428
30.160,-1.082
30.165,-1.726
30.170,-1.959
30.175,-1.729
30.180,-1.183
30.185,-0.478
30.190,-0.035
30.195,0.099
30.200,0.154
30.205,0.214
30.210,0.350
30.215,0.433
30.220,0.396
30.225,0.409
30.230,0.454
30.235,0.429
30.240,0.407
30.245,0.411
30.250,0.398
30.255,0.377
30.260,0.364
30.265,0.354
30.270,0.325
30.275,0.311
30.280,0.306
30.285,0.281
30.290,0.268
30.295,0.255
30.300,0.239
30.305,0.224
30.310,0.202
30.315,0.192
30.320,0.175
30.325,0.158
30.330,0.143
30.335,0.120
30.340,0.106
30.345,0.082
30.350,0.070
30.355,0.065
30.360,0.037
30.365,0.021
30.370,-0.004
30.375,-0.030
30.380,-0.047
30.385,-0.080
30.390,-0.102
30.395,-0.131
30.400,-0.164
30.405,-0.191
30.410,-0.225
30.415,-0.249
30.420,-0.274
30.425,-0.294
30.430,-0.310
30.435,-0.331
30.440,-0.339
30.445,-0.350
30.450,-0.349
30.455,-0.338
30.460,-0.338
30.465,-0.318
30.470,-0.291
30.475,-0.258
30.480,-0.210
30.485,-0.158
30.490,-0.092
30.495,-0.030
30.500,0.043
30.505,0.118
30.510,0.176
30.515,0.243
30.520,0.296
30.525,0.339
30.530,0.378
30.535,0.399
30.540,0.421
30.545,0.427
30.550,0.424
30.555,0.425
30.560,0.412
30.565,0.403
30.570,0.392
30.575,0.376
30.580,0.362
30.585,0.341
30.590,0.325
30.595,0.305
30.600,0.292
30.605,0.282
30.610,0.256
30.615,0.241
30.620,0.226
30.625,0.208
30.630,0.193
30.635,0.170
30.640,0.158
30.645,0.142
30.650,0.125
30.655,0.117
30.660,0.103
30.665,0.094
30.670,0.078
30.675,0.066
30.680,0.057
30.685,0.039
30.690,0.035
30.695,0.027
30.700,0.022
30.705,0.022
30.710,0.009
30.715,0.006
30.720,-0.002
30.725,-0.008
30.730,-0.008
30.735,-0.016
30.740,-0.013
30.745,-0.021
30.750,-0.027
30.755,-0.024
30.760,-0.033
30.765,-0.031
30.770,-0.032
30.775,-0.036
30.780,-0.036
30.785,-0.041
30.790,-0.042
30.795,-0.052
30.800,-0.054
30.805,-0.048
30.810,-0.057
30.815,-0.058
30.820,-0.060
30.825,-0.062
30.830,-0.059
30.835,-0.064
30.840,-0.062
30.845,-0.068
30.850,-0.071
30.855,-0.071
30.860,-0.078
30.865,-0.071
30.870,-0.074
30.875,-0.077
30.880,-0.077
30.885,-0.085
30.890,-0.077
30.895,-0.080
30.900,-0.085
30.905,-0.076
30.910,-0.080
30.915,-0.076
30.920,-0.079
30.925,-0.084
30.930,-0.079
30.935,-0.083
30.940,-0.080
30.945,-0.083
30.950,-0.082
30.955,-0.074
30.960,-0.081
30.965,-0.077
30.970,-0.079
30.975,-0.082
30.980,-0.078
30.985,-0.078
30.990,-0.074
30.995,-0.078
31.000,-0.077
31.005,-0.069
31.010,-0.072
31.015,-0.068
31.020,-0.072
31.025,-0.072
31.030,-0.068
31.035,-0.073
31.040,-0.067
31.045,-0.068
31.050,-0.065
31.055,-0.061
31.060,-0.068
31.065,-0.058
31.070,-0.054
31.075,-0.056
31.080,-0.057
31.085,-0.059
31.090,-0.049
31.095,-0.053
31.100,-0.055
31.105,-0.047
31.110,-0.049
31.115,-0.042
31.120,-0.046
31.125,-0.050
31.130,-0.043
31.135,-0.040
31.140,-0.047
31.145,-0.077
31.150,-0.092
31.155,-0.085
31.160,-0.090
31.165,-0.089
31.170,-0.098
31.175,-0.096
31.180,-0.085
31.185,-0.087
31.190,-0.080
31.195,-0.076
31.200,-0.056
31.205,-0.016
31.210,0.000
31.215,0.004
31.220,0.005
31.225,0.014
31.230,0.036
31.235,0.054
31.240,0.070
31.245,0.068
31.250,0.068
31.255,0.067
31.260,0.054
31.265,0.058
31.270,0.053
31.275,0.050
31.280,0.059
31.285,0.090
31.290,0.199
31.295,0.299
31.300,0.293
31.305,0.142
31.310,-0.213
31.315,-0.776
31.320,-1.458
31.325,-1.881
31.330,-1.858
31.335,-1.482
31.340,-0.784
31.345,-0.192
31.350,0.052
31.355,0.128
31.360,0.158
31.365,0.293
31.370,0.424
31.375,0.414
31.380,0.407
31.385,0.450
31.390,0.452
31.395,0.412
31.400,0.416
31.405,0.419
31.410,0.382
31.415,0.374
31.420,0.367
31.425,0.343
31.430,0.328
31.435,0.316
31.440,0.302
31.445,0.274
31.450,0.263
31.455,0.258
31.460,0.230
31.465,0.217
31.470,0.204
31.475,0.187
31.480,0.171
31.485,0.148
31.490,0.138
31.495,0.120
31.500,0.103
31.505,0.089
31.510,0.064
31.515,0.052
31.520,0.032
31.525,0.009
31.530,-0.012
31.535,-0.041
31.540,-0.061
31.545,-0.091
31.550,-0.120
31.555,-0.144
31.560,-0.178
31.565,-0.202
31.570,-0.233
31.575,-0.260
31.580,-0.281
31.585,-0.305
31.590,-0.316
31.595,-0.332
31.600,-0.337
31.605,-0.332
31.610,-0.338
31.615,-0.327
31.620,-0.316
31.625,-0.300
31.630,-0.269
31.635,-0.233
31.640,-0.180
31.645,-0.121
31.650,-0.053
31.655,0.018
31.660,0.080
31.665,0.149
31.670,0.212
31.675,0.272
31.680,0.321
31.685,0.352
31.690,0.385
31.695,0.402
31.700,0.416
31.705,0.427
31.710,0.416
31.715,0.413
31.720,0.405
31.725,0.392
31.730,0.382
31.735,0.362
31.740,0.349
31.745,0.332
31.750,0.316
31.755,0.301
31.760,0.273
31.765,0.258
31.770,0.244
31.775,0.227
31.780,0.210
31.785,0.193
31.790,0.185
31.795,0.164
31.800,0.148
31.805,0.137
31.810,0.116
31.815,0.109
31.820,0.093
31.825,0.079
31.830,0.074
31.835,0.059
31.840,0.053
31.845,0.039
31.850,0.029
31.855,0.029
31.860,0.016
31.865,0.009
31.870,0.001
31.875,-0.002
31.880,-0.005
31.885,-0.014
31.890,-0.012
31.895,-0.019
31.900,-0.022
31.905,-0.020
31.910,-0.030
31.915,-0.027
31.920,-0.031
31.925,-0.037
31.930,-0.037
31.935,-0.043
31.940,-0.042
31.945,-0.047
31.950,-0.048
31.955,-0.047
31.960,-0.054
31.965,-0.052
31.970,-0.059
31.975,-0.063
31.980,-0.059
31.985,-0.063
31.990,-0.058
31.995,-0.067
32.000,-0.071
32.005,-0.067
32.010,-0.073
32.015,-0.070
32.020,-0.072
32.025,-0.076
32.030,-0.075
32.035,-0.077
32.040,-0.072
32.045,-0.079
32.050,-0.082
32.055,-0.077
32.060,-0.082
32.065,-0.076
32.070,-0.078
32.075,-0.082
32.080,-0.081
32.085,-0.084
32.090,-0.076
32.095,-0.078
32.100,-0.079
32.105,-0.076
32.110,-0.082
32.115,-0.075
32.120,-0.075
32.125,-0.076
32.130,-0.072
32.135,-0.076
32.140,-0.070
32.145,-0.076
32.150,-0.076
32.155,-0.066
32.160,-0.072
32.165,-0.065
32.170,-0.067
32.175,-0.072
32.180,-0.067
32.185,-0.067
32.190,-0.061
32.195,-0.066
32.200,-0.070
32.205,-0.060
32.210,-0.057
32.215,-0.050
32.220,-0.052
32.225,-0.057
32.230,-0.056
32.235,-0.058
32.240,-0.054
32.245,-0.057
32.250,-0.054
32.255,-0.047
32.260,-0.051
32.265,-0.045
32.270,-0.047
32.275,-0.045
32.280,-0.039
32.285,-0.044
32.290,-0.040
32.295,-0.044
32.300,-0.043
32.305,-0.034
32.310,-0.037
32.315,-0.031
32.320,-0.032
32.325,-0.034
32.330,-0.029
32.335,-0.032
32.340,-0.026
32.345,-0.032
32.350,-0.052
32.355,-0.066
32.360,-0.076
32.365,-0.074
32.370,-0.079
32.375,-0.087
32.380,-0.086
32.385,-0.081
32.390,-0.071
32.395,-0.074
32.400,-0.066
32.405,-0.044
32.410,-0.022
32.415,0.012
32.420,0.020
32.425,0.015
32.430,0.022
32.435,0.029
32.440,0.056
32.445,0.073
32.450,0.079
32.455,0.085
32.460,0.072
32.465,0.071
32.470,0.070
32.475,0.064
32.480,0.059
32.485,0.053
32.490,0.075
32.495,0.150
32.500,0.268
32.505,0.317
32.510,0.219
32.515,-0.040
32.520,-0.516
32.525,-1.186
32.530,-1.783
32.535,-1.952
32.540,-1.667
32.545,-1.058
32.550,-0.375
32.555,0.001
32.560,0.108
32.565,0.158
32.570,0.238
32.575,0.384
32.580,0.441
32.585,0.403
32.590,0.431
32.595,0.458
32.600,0.436
32.605,0.426
32.610,0.419
32.615,0.401
32.620,0.380
32.625,0.373
32.630,0.360
32.635,0.334
32.640,0.326
32.645,0.308
32.650,0.286
32.655,0.274
32.660,0.255
32.665,0.240
32.670,0.219
32.675,0.205
32.680,0.195
32.685,0.173
32.690,0.160
32.695,0.140
32.700,0.124
32.705,0.113
32.710,0.090
32.715,0.076
32.720,0.055
32.725,0.034
32.730,0.017
32.735,-0.010
32.740,-0.028
32.745,-0.054
32.750,-0.078
32.755,-0.100
32.760,-0.138
32.765,-0.162
32.770,-0.190
32.775,-0.221
32.780,-0.244
32.785,-0.272
32.790,-0.289
32.795,-0.312
32.800,-0.323
32.805,-0.324
32.810,-0.335
32.815,-0.335
32.820,-0.332
32.825,-0.319
32.830,-0.299
32.835,-0.279
32.840,-0.245
32.845,-0.210
32.850,-0.160
32.855,-0.094
32.860,-0.033
32.865,0.041
32.870,0.105
32.875,0.169
32.880,0.237
32.885,0.287
32.890,0.332
32.895,0.360
32.900,0.386
32.905,0.409
32.910,0.411
32.915,0.413
32.920,0.407
32.925,0.402
32.930,0.396
32.935,0.379
32.940,0.370
32.945,0.346
32.950,0.330
32.955,0.321
32.960,0.297
32.965,0.284
32.970,0.263
32.975,0.242
32.980,0.233
32.985,0.217
32.990,0.207
32.995,0.186
33.000,0.168
33.005,0.157
33.010,0.136
33.015,0.121
33.020,0.107
33.025,0.097
33.030,0.087
33.035,0.071
33.040,0.063
33.045,0.049
33.050,0.043
33.055,0.038
33.060,0.017
33.065,0.013
33.070,0.008
33.075,0.006
33.080,0.005
33.085,-0.007
33.090,-0.007
33.095,-0.012
33.100,-0.016
33.105,-0.018
33.110,-0.027
33.115,-0.025
33.120,-0.033
33.125,-0.036
33.130,-0.033
33.135,-0.037
33.140,-0.033
33.145,-0.043
33.150,-0.045
33.155,-0.038
33.160,-0.051
33.165,-0.053
33.170,-0.055
33.175,-0.055
33.180,-0.051
33.185,-0.059
33.190,-0.062
33.195,-0.068
33.200,-0.065
33.205,-0.059
33.210,-0.070
33.215,-0.072
33.220,-0.070
33.225,-0.067
33.230,-0.069
33.235,-0.078
33.240,-0.075
33.245,-0.078
33.250,-0.075
33.255,-0.072
33.260,-0.081
33.265,-0.074
33.270,-0.076
33.275,-0.077
33.280,-0.077
33.285,-0.086
33.290,-0.078
33.295,-0.079
33.300,-0.080
33.305,-0.076
33.310,-0.085
33.315,-0.079
33.320,-0.075
33.325,-0.076
33.330,-0.075
33.335,-0.079
33.340,-0.072
33.345,-0.076
33.350,-0.075
33.355,-0.071
33.360,-0.077
33.365,-0.068
33.370,-0.070
33.375,-0.070
33.380,-0.062
33.385,-0.069
33.390,-0.067
33.395,-0.071
33.400,-0.068
33.405,-0.058
33.410,-0.063
33.415,-0.061
33.420,-0.060
33.425,-0.057
33.430,-0.054
33.435,-0.059
33.440,-0.053
33.445,-0.057
33.450,-0.054
33.455,-0.047
33.460,-0.056
33.465,-0.051
33.470,-0.049
33.475,-0.047
33.480,-0.040
33.485,-0.045
33.490,-0.045
33.495,-0.049
33.500,-0.044
33.505,-0.036
33.510,-0.041
33.515,-0.032
33.520,-0.032
33.525,-0.032
33.530,-0.029
33.535,-0.037
33.540,-0.030
33.545,-0.028
33.550,-0.027
33.555,-0.020
33.560,-0.028
33.565,-0.040
33.570,-0.061
33.575,-0.069
33.580,-0.069
33.585,-0.077
33.590,-0.077
33.595,-0.085
33.600,-0.079
33.605,-0.069
33.610,-0.077
33.615,-0.068
33.620,-0.053
33.625,-0.027
33.630,0.004
33.635,0.016
33.640,0.020
33.645,0.017
33.650,0.033
33.655,0.054
33.660,0.064
33.665,0.080
33.670,0.082
33.675,0.078
33.680,0.075
33.685,0.066
33.690,0.072
33.695,0.063
33.700,0.055
33.705,0.066
33.710,0.109
33.715,0.233
33.720,0.325
33.725,0.286
33.730,0.090
33.735,-0.314
33.740,-0.923
33.745,-1.602
33.750,-1.951
33.755,-1.808
33.760,-1.300
33.765,-0.578
33.770,-0.073
33.775,0.100
33.780,0.154
33.785,0.202
33.790,0.339
33.795,0.428
33.800,0.404
33.805,0.412
33.810,0.448
33.815,0.443
33.820,0.414
33.825,0.415
33.830,0.407
33.835,0.376
33.840,0.371
33.845,0.359
33.850,0.338
33.855,0.328
33.860,0.310
33.865,0.295
33.870,0.271
33.875,0.253
33.880,0.244
33.885,0.223
33.890,0.212
33.895,0.192
33.900,0.172
33.905,0.160
33.910,0.141
33.915,0.133
33.920,0.120
33.925,0.099
33.930,0.080
33.935,0.060
33.940,0.048
33.945,0.021
33.950,-0.004
33.955,-0.023
33.960,-0.048
33.965,-0.065
33.970,-0.095
33.975,-0.123
33.980,-0.149
33.985,-0.185
33.990,-0.212
33.995,-0.242
34.000,-0.266
34.005,-0.283
34.010,-0.309
34.015,-0.321
34.020,-0.332
34.025,-0.339
34.030,-0.339
34.035,-0.338
34.040,-0.322
34.045,-0.311
34.050,-0.294
34.055,-0.260
34.060,-0.228
34.065,-0.177
34.070,-0.120
34.075,-0.059
34.080,0.007
34.085,0.072
34.090,0.145
34.095,0.206
34.100,0.265
34.105,0.316
34.110,0.345
34.115,0.377
34.120,0.393
34.125,0.406
34.130,0.418
34.135,0.413
34.140,0.412
34.145,0.401
34.150,0.389
34.155,0.383
34.160,0.361
34.165,0.346
34.170,0.328
34.175,0.308
34.180,0.293
34.185,0.272
34.190,0.259
34.195,0.236
34.200,0.217
34.205,0.207
34.210,0.189
34.215,0.177
34.220,0.160
34.225,0.146
34.230,0.131
34.235,0.113
34.240,0.107
34.245,0.092
34.250,0.082
34.255,0.074
34.260,0.056
34.265,0.050
34.270,0.039
34.275,0.028
34.280,0.025
34.285,0.015
34.290,0.015
34.295,0.004
34.300,-0.006
34.305,-0.005
34.310,-0.009
34.315,-0.006
34.320,-0.012
34.325,-0.017
34.330,-0.015
34.335,-0.023
34.340,-0.026
34.345,-0.034
34.350,-0.035
34.355,-0.031
34.360,-0.042
34.365,-0.041
34.370,-0.042
34.375,-0.047
34.380,-0.048
34.385,-0.053
34.390,-0.050
34.395,-0.057
34.400,-0.060
34.405,-0.057
34.410,-0.065
34.415,-0.061
34.420,-0.066
34.425,-0.067
34.430,-0.064
34.435,-0.072
34.440,-0.067
34.445,-0.073
34.450,-0.076
34.455,-0.072
34.460,-0.080
34.465,-0.075
34.470,-0.080
34.475,-0.085
34.480,-0.079
34.485,-0.077
34.490,-0.071
34.495,-0.079
34.500,-0.082
34.505,-0.079
34.510,-0.084
34.515,-0.079
34.520,-0.081
34.525,-0.082
34.530,-0.085
34.535,-0.091
34.540,-0.083
34.545,-0.083
34.550,-0.074
34.555,-0.068
34.560,-0.080
34.565,-0.071
34.570,-0.071
34.575,-0.075
34.580,-0.070
34.585,-0.075
34.590,-0.068
34.595,-0.070
34.600,-0.073
34.605,-0.065
34.610,-0.067
34.615,-0.065
34.620,-0.072
34.625,-0.072
34.630,-0.060
34.635,-0.059
34.640,-0.054
34.645,-0.061
34.650,-0.060
34.655,-0.050
34.660,-0.058
34.665,-0.057
34.670,-0.056
34.675,-0.053
34.680,-0.049
34.685,-0.054
34.690,-0.049
34.695,-0.049
34.700,-0.046
34.705,-0.039
34.710,-0.046
34.715,-0.042
34.720,-0.039
34.725,-0.039
34.730,-0.036
34.735,-0.038
34.740,-0.043
34.745,-0.067
34.750,-0.081
34.755,-0.078
34.760,-0.088
34.765,-0.090
34.770,-0.095
34.775,-0.093
34.780,-0.086
34.785,-0.089
34.790,-0.078
34.795,-0.067
34.800,-0.043
34.805,-0.008
34.810,0.005
34.815,0.010
34.820,0.007
34.825,0.015
34.830,0.035
34.835,0.053
34.840,0.075
34.845,0.074
34.850,0.073
34.855,0.070
34.860,0.061
34.865,0.068
34.870,0.061
34.875,0.053
34.880,0.060
34.885,0.098
34.890,0.210
34.895,0.305
34.900,0.288
34.905,0.124
34.910,-0.249
34.915,-0.834
34.920,-1.505
34.925,-1.886
34.930,-1.825
34.935,-1.411
34.940,-0.705
34.945,-0.148
34.950,0.075
34.955,0.141
34.960,0.170
34.965,0.310
34.970,0.424
34.975,0.399
34.980,0.394
34.985,0.443
34.990,0.449
34.995,0.416
35.000,0.418
35.005,0.414
35.010,0.378
35.015,0.372
35.020,0.362
35.025,0.338
35.030,0.324
35.035,0.309
35.040,0.294
35.045,0.271
35.050,0.258
35.055,0.247
35.060,0.224
35.065,0.214
35.070,0.198
35.075,0.184
35.080,0.170
35.085,0.148
35.090,0.137
35.095,0.113
35.100,0.098
35.105,0.089
35.110,0.062
35.115,0.045
35.120,0.027
35.125,0.005
35.130,-0.015
35.135,-0.047
35.140,-0.067
35.145,-0.087
35.150,-0.113
35.155,-0.139
35.160,-0.177
35.165,-0.201
35.170,-0.228
35.175,-0.259
35.180,-0.280
35.185,-0.301
35.190,-0.311
35.195,-0.326
35.200,-0.332
35.205,-0.325
35.210,-0.331
35.215,-0.324
35.220,-0.312
35.225,-0.294
35.230,-0.261
35.235,-0.230
35.240,-0.183
35.245,-0.130
35.250,-0.063
35.255,0.011
35.260,0.074
35.265,0.145
35.270,0.209
35.275,0.263
35.280,0.311
35.285,0.338
35.290,0.370
35.295,0.395
35.300,0.415
35.305,0.426
35.310,0.417
35.315,0.412
35.320,0.402
35.325,0.391
35.330,0.381
35.335,0.363
35.340,0.347
35.345,0.322
35.350,0.310
35.355,0.301
35.360,0.275
35.365,0.258
35.370,0.239
35.375,0.228
35.380,0.217
35.385,0.192
35.390,0.179
35.395,0.159
35.400,0.145
35.405,0.137
35.410,0.120
35.415,0.108
35.420,0.092
35.425,0.081
35.430,0.069
35.435,0.056
35.440,0.052
35.445,0.036
35.450,0.028
35.455,0.026
35.460,0.012
35.465,0.012
35.470,0.005
35.475,-0.002
35.480,-0.002
35.485,-0.012
35.490,-0.016
35.495,-0.023
35.500,-0.019
35.505,-0.017
35.510,-0.029
35.515,-0.023
35.520,-0.027
35.525,-0.031
35.530,-0.035
35.535,-0.044
35.540,-0.038
35.545,-0.046
35.550,-0.051
35.555,-0.047
35.560,-0.055
35.565,-0.051
35.570,-0.054
35.575,-0.059
35.580,-0.059
35.585,-0.067
35.590,-0.062
35.595,-0.068
35.600,-0.068
35.605,-0.058
35.610,-0.067
35.615,-0.069
35.620,-0.073
35.625,-0.075
35.630,-0.073
35.635,-0.078
35.640,-0.073
35.645,-0.075
35.650,-0.078
35.655,-0.075
35.660,-0.081
35.665,-0.073
35.670,-0.076
35.675,-0.081
35.680,-0.080
35.685,-0.083
35.690,-0.077
35.695,-0.082
35.700,-0.081
35.705,-0.072
35.710,-0.078
35.715,-0.075
35.720,-0.075
35.725,-0.078
35.730,-0.075
35.735,-0.079
35.740,-0.073
35.745,-0.072
35.750,-0.072
35.755,-0.066
35.760,-0.071
35.765,-0.069
35.770,-0.071
35.775,-0.074
35.780,-0.068
35.785,-0.067
35.790,-0.061
35.795,-0.066
35.800,-0.069
35.805,-0.060
35.810,-0.062
35.815,-0.058
35.820,-0.060
35.825,-0.063
35.830,-0.058
35.835,-0.058
35.840,-0.047
35.845,-0.050
35.850,-0.051
35.855,-0.046
35.860,-0.052
35.865,-0.044
35.870,-0.044
35.875,-0.045
35.880,-0.039
35.885,-0.042
35.890,-0.040
35.895,-0.043
35.900,-0.037
35.905,-0.031
35.910,-0.039
35.915,-0.035
35.920,-0.037
35.925,-0.036
35.930,-0.027
35.935,-0.032
35.940,-0.027
35.945,-0.032
35.950,-0.049
35.955,-0.061
35.960,-0.073
35.965,-0.068
35.970,-0.074
35.975,-0.085
35.980,-0.085
35.985,-0.083
35.990,-0.073
35.995,-0.076
36.000,-0.071
36.005,-0.051
36.010,-0.030
36.015,0.002
36.020,0.017
36.025,0.020
36.030,0.027
36.035,0.033
36.040,0.056
36.045,0.068
36.050,0.073
36.055,0.079
36.060,0.075
36.065,0.076
36.070,0.072
36.075,0.066
36.080,0.061
36.085,0.053
36.090,0.068
36.095,0.124
36.100,0.243
36.105,0.327
36.110,0.271
36.115,0.067
36.120,-0.339
36.125,-0.962
36.130,-1.634
36.135,-1.947
36.140,-1.767
36.145,-1.256
36.150,-0.548
36.155,-0.060
36.160,0.093
36.165,0.152
36.170,0.203
36.175,0.336
36.180,0.436
36.185,0.408
36.190,0.411
36.195,0.449
36.200,0.434
36.205,0.409
36.210,0.415
36.215,0.416
36.220,0.384
36.225,0.369
36.230,0.362
36.235,0.335
36.240,0.322
36.245,0.306
36.250,0.289
36.255,0.274
36.260,0.252
36.265,0.240
36.270,0.220
36.275,0.207
36.280,0.199
36.285,0.179
36.290,0.163
36.295,0.142
36.300,0.129
36.305,0.117
36.310,0.092
36.315,0.078
36.320,0.059
36.325,0.041
36.330,0.024
36.335,-0.003
36.340,-0.019
36.345,-0.044
36.350,-0.068
36.355,-0.091
36.360,-0.125
36.365,-0.149
36.370,-0.177
36.375,-0.205
36.380,-0.232
36.385,-0.262
36.390,-0.275
36.395,-0.298
36.400,-0.319
36.405,-0.325
36.410,-0.331
36.415,-0.325
36.420,-0.323
36.425,-0.320
36.430,-0.308
36.435,-0.289
36.440,-0.253
36.445,-0.220
36.450,-0.173
36.455,-0.114
36.460,-0.059
36.465,0.010
36.470,0.075
36.475,0.139
36.480,0.202
36.485,0.252
36.490,0.303
36.495,0.340
36.500,0.370
36.505,0.395
36.510,0.402
36.515,0.410
36.520,0.405
36.525,0.400
36.530,0.395
36.535,0.381
36.540,0.373
36.545,0.349
36.550,0.331
36.555,0.324
36.560,0.299
36.565,0.287
36.570,0.271
36.575,0.251
36.580,0.241
36.585,0.221
36.590,0.208
36.595,0.188
36.600,0.169
36.605,0.157
36.610,0.137
36.615,0.130
36.620,0.117
36.625,0.101
36.630,0.090
36.635,0.073
36.640,0.069
36.645,0.057
36.650,0.048
36.655,0.044
36.660,0.025
36.665,0.019
36.670,0.012
36.675,0.005
36.680,0.006
36.685,-0.005
36.690,-0.006
36.695,-0.010
36.700,-0.012
36.705,-0.013
36.710,-0.027
36.715,-0.024
36.720,-0.025
36.725,-0.029
36.730,-0.033
36.735,-0.043
36.740,-0.039
36.745,-0.042
36.750,-0.043
36.755,-0.042
36.760,-0.050
36.765,-0.050
36.770,-0.050
36.775,-0.050
36.780,-0.051
36.785,-0.057
36.790,-0.056
36.795,-0.066
36.800,-0.068
36.805,-0.057
36.810,-0.063
36.815,-0.063
36.820,-0.068
36.825,-0.073
36.830,-0.072
36.835,-0.076
36.840,-0.071
36.845,-0.076
36.850,-0.072
36.855,-0.069
36.860,-0.080
36.865,-0.073
36.870,-0.075
36.875,-0.078
36.880,-0.071
36.885,-0.076
36.890,-0.074
36.895,-0.078
36.900,-0.080
36.905,-0.074
36.910,-0.078
36.915,-0.076
36.920,-0.078
36.925,-0.075
36.930,-0.072
36.935,-0.075
36.940,-0.069
36.945,-0.076
36.950,-0.076
36.955,-0.070
36.960,-0.076
36.965,-0.069
36.970,-0.070
36.975,-0.067
36.980,-0.061
36.985,-0.069
36.990,-0.070
36.995,-0.071
37.000,-0.062
37.005,-0.055
37.010,-0.062
37.015,-0.060
37.020,-0.060
37.025,-0.061
37.030,-0.058
37.035,-0.060
37.040,-0.054
37.045,-0.053
37.050,-0.051
37.055,-0.045
37.060,-0.049
37.065,-0.047
37.070,-0.049
37.075,-0.052
37.080,-0.051
37.085,-0.050
37.090,-0.039
37.095,-0.041
37.100,-0.041
37.105,-0.036
37.110,-0.040
37.115,-0.035
37.120,-0.033
37.125,-0.029
37.130,-0.037
37.135,-0.069
37.140,-0.079
37.145,-0.085
37.150,-0.088
37.155,-0.083
37.160,-0.091
37.165,-0.082
37.170,-0.077
37.175,-0.082
37.180,-0.076
37.185,-0.065
37.190,-0.039
37.195,-0.010
37.200,0.014
37.205,0.015
37.210,0.007
37.215,0.023
37.220,0.041
37.225,0.062
37.230,0.072
37.235,0.067
37.240,0.076
37.245,0.069
37.250,0.065
37.255,0.067
37.260,0.051
37.265,0.055
37.270,0.063
37.275,0.107
37.280,0.220
37.285,0.312
37.290,0.296
37.295,0.104
37.300,-0.288
37.305,-0.890
37.310,-1.578
37.315,-1.950
37.320,-1.842
37.325,-1.335
37.330,-0.591
37.335,-0.068
37.340,0.110
37.345,0.149
37.350,0.193
37.355,0.328
37.360,0.412
37.365,0.391
37.370,0.402
37.375,0.447
37.380,0.436
37.385,0.402
37.390,0.408
37.395,0.399
37.400,0.373
37.405,0.361
37.410,0.345
37.415,0.334
37.420,0.317
37.425,0.302
37.430,0.290
37.435,0.268
37.440,0.260
37.445,0.241
37.450,0.221
37.455,0.213
37.460,0.191
37.465,0.174
37.470,0.154
37.475,0.140
37.480,0.131
37.485,0.108
37.490,0.096
37.495,0.078
37.500,0.057
37.505,0.046
37.510,0.022
37.515,0.003
37.520,-0.024
37.525,-0.052
37.530,-0.067
37.535,-0.090
37.540,-0.115
37.545,-0.152
37.550,-0.183
37.555,-0.206
37.560,-0.242
37.565,-0.266
37.570,-0.288
37.575,-0.305
37.580,-0.313
37.585,-0.327
37.590,-0.330
37.595,-0.337
37.600,-0.336
37.605,-0.322
37.610,-0.314
37.615,-0.290
37.620,-0.265
37.625,-0.227
37.630,-0.178
37.635,-0.130
37.640,-0.061
37.645,0.004
37.650,0.072
37.655,0.147
37.660,0.205
37.665,0.263
37.670,0.305
37.675,0.344
37.680,0.383
37.685,0.402
37.690,0.417
37.695,0.416
37.700,0.416
37.705,0.417
37.710,0.400
37.715,0.392
37.720,0.374
37.725,0.360
37.730,0.350
37.735,0.328
37.740,0.315
37.745,0.293
37.750,0.276
37.755,0.263
37.760,0.238
37.765,0.232
37.770,0.218
37.775,0.196
37.780,0.177
37.785,0.155
37.790,0.148
37.795,0.132
37.800,0.119
37.805,0.112
37.810,0.094
37.815,0.088
37.820,0.075
37.825,0.057
37.830,0.048
37.835,0.038
37.840,0.037
37.845,0.028
37.850,0.022
37.855,0.017
37.860,0.001
37.865,0.003
37.870,0.002
37.875,-0.005
37.880,-0.015
37.885,-0.021
37.890,-0.012
37.895,-0.024
37.900,-0.029
37.905,-0.026
37.910,-0.035
37.915,-0.032
37.920,-0.034
37.925,-0.034
37.930,-0.030
37.935,-0.040
37.940,-0.041
37.945,-0.049
37.950,-0.054
37.955,-0.049
37.960,-0.057
37.965,-0.056
37.970,-0.059
37.975,-0.060
37.980,-0.057
37.985,-0.065
37.990,-0.066
37.995,-0.072
38.000,-0.073
38.005,-0.066
38.010,-0.070
38.015,-0.069
38.020,-0.072
38.025,-0.073
38.030,-0.071
38.035,-0.080
38.040,-0.080
38.045,-0.082
38.050,-0.078
38.055,-0.074
38.060,-0.086
38.065,-0.081
38.070,-0.078
38.075,-0.077
38.080,-0.077
38.085,-0.086
38.090,-0.081
38.095,-0.079
38.100,-0.074
38.105,-0.070
38.110,-0.079
38.115,-0.074
38.120,-0.077
38.125,-0.082
38.130,-0.077
38.135,-0.078
38.140,-0.073
38.145,-0.075
38.150,-0.075
38.155,-0.068
38.160,-0.072
38.165,-0.066
38.170,-0.066
38.175,-0.068
38.180,-0.066
38.185,-0.069
38.190,-0.063
38.195,-0.066
38.200,-0.063
38.205,-0.056
38.210,-0.064
38.215,-0.061
38.220,-0.060
38.225,-0.057
38.230,-0.059
38.235,-0.082
38.240,-0.093
38.245,-0.100
38.250,-0.104
38.255,-0.106
38.260,-0.114
38.265,-0.104
38.270,-0.103
38.275,-0.102
38.280,-0.096
38.285,-0.097
38.290,-0.077
38.295,-0.054
38.300,-0.021
38.305,-0.005
38.310,-0.015
38.315,-0.005
38.320,0.010
38.325,0.029
38.330,0.048
38.335,0.052
38.340,0.060
38.345,0.050
38.350,0.040
38.355,0.045
38.360,0.038
38.365,0.036
38.370,0.037
38.375,0.056
38.380,0.142
38.385,0.265
38.390,0.318
38.395,0.213
38.400,-0.074
38.405,-0.572
38.410,-1.254
38.415,-1.830
38.420,-1.956
38.425,-1.630
38.430,-0.980
38.435,-0.302
38.440,0.033
38.445,0.106
38.450,0.140
38.455,0.228
38.460,0.364
38.465,0.408
38.470,0.378
38.475,0.406
38.480,0.435
38.485,0.404
38.490,0.394
38.495,0.395
38.500,0.381
38.505,0.369
38.510,0.352
38.515,0.337
38.520,0.314
38.525,0.304
38.530,0.293
38.535,0.265
38.540,0.259
38.545,0.245
38.550,0.224
38.555,0.211
38.560,0.194
38.565,0.185
38.570,0.166
38.575,0.145
38.580,0.132
38.585,0.116
38.590,0.106
38.595,0.084
38.600,0.065
38.605,0.052
38.610,0.028
38.615,0.013
38.620,-0.008
38.625,-0.033
38.630,-0.054
38.635,-0.085
38.640,-0.106
38.645,-0.136
38.650,-0.166
38.655,-0.189
38.660,-0.221
38.665,-0.244
38.670,-0.272
38.675,-0.297
38.680,-0.309
38.685,-0.324
38.690,-0.326
38.695,-0.333
38.700,-0.334
38.705,-0.321
38.710,-0.312
38.715,-0.294
38.720,-0.275
38.725,-0.239
38.730,-0.186
38.735,-0.136
38.740,-0.072
38.745,-0.013
38.750,0.056
38.755,0.134
38.760,0.191
38.765,0.251
38.770,0.300
38.775,0.341
38.780,0.378
38.785,0.399
38.790,0.415
38.795,0.417
38.800,0.417
38.805,0.412
38.810,0.400
38.815,0.403
38.820,0.388
38.825,0.369
38.830,0.358
38.835,0.333
38.840,0.319
38.845,0.299
38.850,0.279
38.855,0.271
38.860,0.248
38.865,0.232
38.870,0.216
38.875,0.200
38.880,0.191
38.885,0.172
38.890,0.159
38.895,0.137
38.900,0.119
38.905,0.112
38.910,0.095
38.915,0.090
38.920,0.078
38.925,0.063
38.930,0.057
38.935,0.043
38.940,0.037
38.945,0.027
38.950,0.019
38.955,0.018
38.960,0.003
38.965,-0.002
38.970,-0.003
38.975,-0.006
38.980,-0.010
38.985,-0.016
38.990,-0.015
38.995,-0.023
39.000,-0.025
39.005,-0.021
39.010,-0.029
39.015,-0.030
39.020,-0.034
39.025,-0.036
39.030,-0.034
39.035,-0.039
39.040,-0.041
39.045,-0.051
39.050,-0.050
39.055,-0.042
39.060,-0.050
39.065,-0.050
39.070,-0.056
39.075,-0.060
39.080,-0.057
39.085,-0.064
39.090,-0.060
39.095,-0.063
39.100,-0.064
39.105,-0.063
39.110,-0.074
39.115,-0.070
39.120,-0.073
39.125,-0.076
39.130,-0.073
39.135,-0.078
39.140,-0.073
39.145,-0.075
39.150,-0.075
39.155,-0.073
39.160,-0.079
39.165,-0.074
39.170,-0.075
39.175,-0.075
39.180,-0.070
39.185,-0.077
39.190,-0.075
39.195,-0.082
39.200,-0.081
39.205,-0.071
39.210,-0.080
39.215,-0.080
39.220,-0.078
39.225,-0.074
39.230,-0.064
39.235,-0.065
39.240,-0.067
39.245,-0.075
39.250,-0.073
39.255,-0.065
39.260,-0.070
39.265,-0.068
39.270,-0.070
39.275,-0.064
39.280,-0.060
39.285,-0.067
39.290,-0.061
39.295,-0.064
39.300,-0.061
39.305,-0.051
39.310,-0.057
39.315,-0.054
39.320,-0.057
39.325,-0.057
39.330,-0.049
39.335,-0.054
39.340,-0.050
39.345,-0.052
39.350,-0.054
39.355,-0.046
39.360,-0.049
39.365,-0.046
39.370,-0.065
39.375,-0.090
39.380,-0.093
39.385,-0.090
39.390,-0.090
39.395,-0.103
39.400,-0.101
39.405,-0.090
39.410,-0.097
39.415,-0.093
39.420,-0.083
39.425,-0.061
39.430,-0.026
39.435,-0.005
39.440,0.006
39.445,0.002
39.450,0.007
39.455,0.027
39.460,0.042
39.465,0.060
39.470,0.062
39.475,0.065
39.480,0.066
39.485,0.056
39.490,0.060
39.495,0.051
39.500,0.040
39.505,0.048
39.510,0.069
39.515,0.166
39.520,0.287
39.525,0.306
39.530,0.187
39.535,-0.116
39.540,-0.631
39.545,-1.323
39.550,-1.866
39.555,-1.920
39.560,-1.580
39.565,-0.948
39.570,-0.300
39.575,0.016
39.580,0.117
39.585,0.159
39.590,0.251
39.595,0.396
39.600,0.430
39.605,0.398
39.610,0.427
39.615,0.456
39.620,0.422
39.625,0.409
39.630,0.416
39.635,0.392
39.640,0.376
39.645,0.363
39.650,0.348
39.655,0.332
39.660,0.313
39.665,0.307
39.670,0.284
39.675,0.262
39.680,0.248
39.685,0.226
39.690,0.220
39.695,0.205
39.700,0.186
39.705,0.173
39.710,0.151
39.715,0.137
39.720,0.116
39.725,0.100
39.730,0.091
39.735,0.069
39.740,0.051
39.745,0.025
39.750,0.006
39.755,-0.010
39.760,-0.039
39.765,-0.058
39.770,-0.082
39.775,-0.105
39.780,-0.134
39.785,-0.173
39.790,-0.196
39.795,-0.225
39.800,-0.250
39.805,-0.270
39.810,-0.300
39.815,-0.317
39.820,-0.329
39.825,-0.333
39.830,-0.333
39.835,-0.338
39.840,-0.327
39.845,-0.320
39.850,-0.303
39.855,-0.271
39.860,-0.241
39.865,-0.194
39.870,-0.140
39.875,-0.081
39.880,-0.014
39.885,0.052
39.890,0.123
39.895,0.185
39.900,0.248
39.905,0.302
39.910,0.332
39.915,0.370
39.920,0.396
39.925,0.409
39.930,0.414
39.935,0.404
39.940,0.409
39.945,0.404
39.950,0.394
39.955,0.385
39.960,0.362
39.965,0.347
39.970,0.329
39.975,0.311
39.980,0.296
39.985,0.274
39.990,0.263
39.995,0.245
40.000,0.233
40.005,0.219
40.010,0.191
40.015,0.179
40.020,0.160
40.025,0.145
40.030,0.140
40.035,0.120
40.040,0.109
40.045,0.096
40.050,0.087
40.055,0.081
40.060,0.061
40.065,0.052
40.070,0.041
40.075,0.032
40.080,0.025
40.085,0.010
40.090,0.007
40.095,0.001
40.100,-0.005
40.105,-0.003
40.110,-0.014
40.115,-0.016
40.120,-0.019
40.125,-0.024
40.130,-0.023
40.135,-0.032
40.140,-0.035
40.145,-0.042
40.150,-0.042
40.155,-0.034
40.160,-0.042
40.165,-0.044
40.170,-0.044
40.175,-0.043
40.180,-0.045
40.185,-0.051
40.190,-0.046
40.195,-0.055
40.200,-0.060
40.205,-0.056
40.210,-0.065
40.215,-0.061
40.220,-0.063
40.225,-0.065
40.230,-0.062
40.235,-0.067
40.240,-0.066
40.245,-0.071
40.250,-0.073
40.255,-0.071
40.260,-0.080
40.265,-0.071
40.270,-0.069
40.275,-0.075
40.280,-0.073
40.285,-0.079
40.290,-0.077
40.295,-0.082
40.300,-0.082
40.305,-0.072
40.310,-0.077
40.315,-0.075
40.320,-0.078
40.325,-0.080
40.330,-0.075
40.335,-0.079
40.340,-0.074
40.345,-0.076
40.350,-0.075
40.355,-0.070
40.360,-0.075
40.365,-0.068
40.370,-0.070
40.375,-0.070
40.380,-0.069
40.385,-0.076
40.390,-0.068
40.395,-0.067
40.400,-0.064
40.405,-0.059
40.410,-0.067
40.415,-0.064
40.420,-0.061
40.425,-0.060
40.430,-0.055
40.435,-0.059
40.440,-0.059
40.445,-0.064
40.450,-0.058
40.455,-0.048
40.460,-0.055
40.465,-0.049
40.470,-0.048
40.475,-0.053
40.480,-0.047
40.485,-0.045
40.490,-0.039
40.495,-0.039
40.500,-0.040
40.505,-0.036
40.510,-0.038
40.515,-0.033
40.520,-0.037
40.525,-0.056
40.530,-0.076
40.535,-0.087
40.540,-0.083
40.545,-0.090
40.550,-0.098
40.555,-0.092
40.560,-0.087
40.565,-0.079
40.570,-0.081
40.575,-0.078
40.580,-0.063
40.585,-0.033
40.590,0.008
40.595,0.012
40.600,0.009
40.605,0.016
40.610,0.025
40.615,0.052
40.620,0.066
40.625,0.073
40.630,0.077
40.635,0.063
40.640,0.064
40.645,0.062
40.650,0.059
40.655,0.057
40.660,0.046
40.665,0.076
40.670,0.171
40.675,0.286
40.680,0.317
40.685,0.193
40.690,-0.108
40.695,-0.638
40.700,-1.330
40.705,-1.825
40.710,-1.882
40.715,-1.568
40.720,-0.920
40.725,-0.268
40.730,0.045
40.735,0.135
40.740,0.161
40.745,0.255
40.750,0.405
40.755,0.422
40.760,0.385
40.765,0.434
40.770,0.444
40.775,0.407
40.780,0.412
40.785,0.413
40.790,0.386
40.795,0.363
40.800,0.363
40.805,0.350
40.810,0.317
40.815,0.308
40.820,0.295
40.825,0.277
40.830,0.264
40.835,0.246
40.840,0.232
40.845,0.209
40.850,0.196
40.855,0.190
40.860,0.166
40.865,0.152
40.870,0.132
40.875,0.118
40.880,0.107
40.885,0.084
40.890,0.069
40.895,0.044
40.900,0.026
40.905,0.011
40.910,-0.019
40.915,-0.035
40.920,-0.059
40.925,-0.090
40.930,-0.112
40.935,-0.146
40.940,-0.171
40.945,-0.200
40.950,-0.228
40.955,-0.249
40.960,-0.280
40.965,-0.303
40.970,-0.323
40.975,-0.337
40.980,-0.344
40.985,-0.349
40.990,-0.339
40.995,-0.337
41.000,-0.324
41.005,-0.303
41.010,-0.285
41.015,-0.246
41.020,-0.204
41.025,-0.148
41.030,-0.081
41.035,-0.017
41.040,0.063
41.045,0.131
41.050,0.194
41.055,0.255
41.060,0.298
41.065,0.346
41.070,0.379
41.075,0.394
41.080,0.410
41.085,0.426
41.090,0.434
41.095,0.421
41.100,0.412
41.105,0.401
41.110,0.379
41.115,0.369
41.120,0.352
41.125,0.336
41.130,0.320
41.135,0.295
41.140,0.284
41.145,0.270
41.150,0.252
41.155,0.236
41.160,0.218
41.165,0.208
41.170,0.191
41.175,0.173
41.180,0.155
41.185,0.134
41.190,0.126
41.195,0.109
41.200,0.094
41.205,0.086
41.210,0.069
41.215,0.067
41.220,0.061
41.225,0.047
41.230,0.038
41.235,0.023
41.240,0.015
41.245,0.005
41.250,0.004
41.255,0.007
41.260,-0.008
41.265,-0.014
41.270,-0.016
41.275,-0.013
41.280,-0.014
41.285,-0.027
41.290,-0.028
41.295,-0.032
41.300,-0.032
41.305,-0.033
41.310,-0.046
41.315,-0.039
41.320,-0.039
41.325,-0.044
41.330,-0.047
41.335,-0.056
41.340,-0.049
41.345,-0.052
41.350,-0.058
41.355,-0.056
41.360,-0.061
41.365,-0.057
41.370,-0.061
41.375,-0.066
41.380,-0.066
41.385,-0.071
41.390,-0.069
41.395,-0.075
41.400,-0.076
41.405,-0.068
41.410,-0.073
41.415,-0.072
41.420,-0.076
41.425,-0.079
41.430,-0.073
41.435,-0.080
41.440,-0.078
41.445,-0.084
41.450,-0.085
41.455,-0.076
41.460,-0.080
41.465,-0.076
41.470,-0.075
41.475,-0.072
41.480,-0.074
41.485,-0.081
41.490,-0.077
41.495,-0.080
41.500,-0.075
41.505,-0.073
41.510,-0.083
41.515,-0.076
41.520,-0.078
41.525,-0.080
41.530,-0.077
41.535,-0.078
41.540,-0.068
41.545,-0.072
41.550,-0.073
41.555,-0.068
41.560,-0.077
41.565,-0.071
41.570,-0.069
41.575,-0.068
41.580,-0.064
41.585,-0.067
41.590,-0.061
41.595,-0.064
41.600,-0.059
41.605,-0.048
41.610,-0.054
41.615,-0.051
41.620,-0.054
41.625,-0.055
41.630,-0.047
41.635,-0.061
41.640,-0.078
41.645,-0.092
41.650,-0.095
41.655,-0.091
41.660,-0.098
41.665,-0.104
41.670,-0.106
41.675,-0.101
41.680,-0.097
41.685,-0.098
41.690,-0.086
41.695,-0.070
41.700,-0.038
41.705,-0.007
41.710,-0.012
41.715,-0.005
41.720,0.008
41.725,0.022
41.730,0.047
41.735,0.055
41.740,0.062
41.745,0.056
41.750,0.049
41.755,0.053
41.760,0.047
41.765,0.048
41.770,0.043
41.775,0.038
41.780,0.076
41.785,0.179
41.790,0.298
41.795,0.306
41.800,0.160
41.805,-0.174
41.810,-0.732
41.815,-1.421
41.820,-1.882
41.825,-1.869
41.830,-1.493
41.835,-0.815
41.840,-0.195
41.845,0.055
41.850,0.124
41.855,0.153
41.860,0.255
41.865,0.399
41.870,0.403
41.875,0.381
41.880,0.431
41.885,0.432
41.890,0.404
41.895,0.406
41.900,0.409
41.905,0.382
41.910,0.356
41.915,0.354
41.920,0.335
41.925,0.314
41.930,0.305
41.935,0.286
41.940,0.270
41.945,0.254
41.950,0.247
41.955,0.230
41.960,0.204
41.965,0.198
41.970,0.180
41.975,0.164
41.980,0.153
41.985,0.127
41.990,0.113
41.995,0.095
42.000,0.081
42.005,0.069
42.010,0.041
42.015,0.023
42.020,0.002
42.025,-0.020
42.030,-0.038
42.035,-0.068
42.040,-0.088
42.045,-0.118
42.050,-0.149
42.055,-0.172
42.060,-0.207
42.065,-0.234
42.070,-0.262
42.075,-0.287
42.080,-0.305
42.085,-0.326
42.090,-0.333
42.095,-0.340
42.100,-0.346
42.105,-0.340
42.110,-0.337
42.115,-0.318
42.120,-0.296
42.125,-0.268
42.130,-0.225
42.135,-0.179
42.140,-0.121
42.145,-0.064
42.150,0.007
42.155,0.086
42.160,0.150
42.165,0.219
42.170,0.273
42.175,0.319
42.180,0.363
42.185,0.391
42.190,0.416
42.195,0.422
42.200,0.425
42.205,0.428
42.210,0.416
42.215,0.414
42.220,0.403
42.225,0.383
42.230,0.368
42.235,0.348
42.240,0.336
42.245,0.316
42.250,0.299
42.255,0.287
42.260,0.262
42.265,0.250
42.270,0.232
42.275,0.215
42.280,0.202
42.285,0.178
42.290,0.168
42.295,0.152
42.300,0.139
42.305,0.133
42.310,0.109
42.315,0.095
42.320,0.082
42.325,0.073
42.330,0.062
42.335,0.044
42.340,0.043
42.345,0.032
42.350,0.024
42.355,0.019
42.360,0.004
42.365,0.006
42.370,0.000
42.375,-0.007
42.380,-0.010
42.385,-0.020
42.390,-0.017
42.395,-0.023
42.400,-0.024
42.405,-0.022
42.410,-0.033
42.415,-0.032
42.420,-0.036
42.425,-0.041
42.430,-0.040
42.435,-0.045
42.440,-0.041
42.445,-0.047
42.450,-0.049
42.455,-0.045
42.460,-0.055
42.465,-0.054
42.470,-0.057
42.475,-0.061
42.480,-0.061
42.485,-0.066
42.490,-0.063
42.495,-0.069
42.500,-0.068
42.505,-0.062
42.510,-0.074
42.515,-0.073
42.520,-0.073
42.525,-0.076
42.530,-0.072
42.535,-0.076
42.540,-0.071
42.545,-0.075
42.550,-0.078
42.555,-0.075
42.560,-0.081
42.565,-0.076
42.570,-0.082
42.575,-0.084
42.580,-0.076
42.585,-0.080
42.590,-0.078
42.595,-0.082
42.600,-0.077
42.605,-0.070
42.610,-0.080
42.615,-0.078
42.620,-0.079
42.625,-0.075
42.630,-0.073
42.635,-0.081
42.640,-0.070
42.645,-0.070
42.650,-0.071
42.655,-0.063
42.660,-0.070
42.665,-0.067
42.670,-0.068
42.675,-0.071
42.680,-0.064
42.685,-0.066
42.690,-0.063
42.695,-0.068
42.700,-0.063
42.705,-0.053
42.710,-0.063
42.715,-0.059
42.720,-0.056
42.725,-0.056
42.730,-0.054
42.735,-0.057
42.740,-0.048
42.745,-0.050
42.750,-0.051
42.755,-0.048
42.760,-0.054
42.765,-0.045
42.770,-0.044
42.775,-0.044
42.780,-0.040
42.785,-0.044
42.790,-0.038
42.795,-0.039
42.800,-0.038
42.805,-0.030
42.810,-0.034
42.815,-0.031
42.820,-0.034
42.825,-0.034
42.830,-0.024
42.835,-0.029
42.840,-0.025
42.845,-0.035
42.850,-0.057
42.855,-0.065
42.860,-0.077
42.865,-0.076
42.870,-0.077
42.875,-0.084
42.880,-0.079
42.885,-0.076
42.890,-0.069
42.895,-0.072
42.900,-0.064
42.905,-0.034
42.910,-0.008
42.915,0.019
42.920,0.019
42.925,0.018
42.930,0.030
42.935,0.040
42.940,0.065
42.945,0.076
42.950,0.084
42.955,0.091
42.960,0.073
42.965,0.068
42.970,0.067
42.975,0.063
42.980,0.061
42.985,0.059
42.990,0.106
42.995,0.211
43.000,0.305
43.005,0.289
43.010,0.110
43.015,-0.246
43.020,-0.820
43.025,-1.504
43.030,-1.912
43.035,-1.866
43.040,-1.435
43.045,-0.730
43.050,-0.160
43.055,0.070
43.060,0.132
43.065,0.181
43.070,0.315
43.075,0.435
43.080,0.425
43.085,0.412
43.090,0.462
43.095,0.455
43.100,0.426
43.105,0.434
43.110,0.420
43.115,0.395
43.120,0.382
43.125,0.377
43.130,0.358
43.135,0.329
43.140,0.321
43.145,0.303
43.150,0.283
43.155,0.271
43.160,0.249
43.165,0.236
43.170,0.220
43.175,0.200
43.180,0.182
43.185,0.164
43.190,0.156
43.195,0.137
43.200,0.121
43.205,0.110
43.210,0.083
43.215,0.067
43.220,0.051
43.225,0.030
43.230,0.010
43.235,-0.018
43.240,-0.037
43.245,-0.064
43.250,-0.093
43.255,-0.117
43.260,-0.150
43.265,-0.176
43.270,-0.207
43.275,-0.236
43.280,-0.259
43.285,-0.286
43.290,-0.303
43.295,-0.324
43.300,-0.338
43.305,-0.341
43.310,-0.349
43.315,-0.340
43.320,-0.334
43.325,-0.324
43.330,-0.302
43.335,-0.280
43.340,-0.240
43.345,-0.194
43.350,-0.134
43.355,-0.063
43.360,0.001
43.365,0.075
43.370,0.143
43.375,0.204
43.380,0.261
43.385,0.307
43.390,0.354
43.395,0.379
43.400,0.399
43.405,0.420
43.410,0.421
43.415,0.424
43.420,0.416
43.425,0.405
43.430,0.395
43.435,0.376
43.440,0.366
43.445,0.348
43.450,0.330
43.455,0.318
43.460,0.296
43.465,0.283
43.470,0.266
43.475,0.248
43.480,0.236
43.485,0.214
43.490,0.199
43.495,0.178
43.500,0.166
43.505,0.159
43.510,0.135
43.515,0.122
43.520,0.107
43.525,0.093
43.530,0.085
43.535,0.069
43.540,0.061
43.545,0.046
43.550,0.037
43.555,0.032
43.560,0.016
43.565,0.012
43.570,0.005
43.575,-0.004
43.580,-0.008
43.585,-0.018
43.590,-0.017
43.595,-0.022
43.600,-0.026
43.605,-0.027
43.610,-0.037
43.615,-0.034
43.620,-0.033
43.625,-0.034
43.630,-0.037
43.635,-0.046
43.640,-0.042
43.645,-0.047
43.650,-0.052
43.655,-0.049
43.660,-0.057
43.665,-0.056
43.670,-0.058
43.675,-0.062
43.680,-0.058
43.685,-0.065
43.690,-0.062
43.695,-0.066
43.700,-0.071
43.705,-0.068
43.710,-0.071
43.715,-0.068
43.720,-0.073
43.725,-0.077
43.730,-0.076
43.735,-0.078
43.740,-0.072
43.745,-0.079
43.750,-0.077
43.755,-0.072
43.760,-0.082
43.765,-0.080
43.770,-0.081
43.775,-0.082
43.780,-0.079
43.785,-0.083
43.790,-0.078
43.795,-0.081
43.800,-0.079
43.805,-0.075
43.810,-0.084
43.815,-0.079
43.820,-0.079
43.825,-0.080
43.830,-0.076
43.835,-0.080
43.840,-0.075
43.845,-0.077
43.850,-0.076
43.855,-0.071
43.860,-0.076
43.865,-0.068
43.870,-0.069
43.875,-0.072
43.880,-0.069
43.885,-0.073
43.890,-0.068
43.895,-0.067
43.900,-0.064
43.905,-0.058
43.910,-0.064
43.915,-0.060
43.920,-0.061
43.925,-0.062
43.930,-0.059
43.935,-0.060
43.940,-0.050
43.945,-0.053
43.950,-0.054
43.955,-0.047
43.960,-0.053
43.965,-0.047
43.970,-0.048
43.975,-0.049
43.980,-0.043
43.985,-0.043
43.990,-0.039
43.995,-0.043
44.000,-0.042
44.005,-0.030
44.010,-0.034
44.015,-0.033
44.020,-0.035
44.025,-0.034
44.030,-0.026
44.035,-0.029
44.040,-0.027
44.045,-0.028
44.050,-0.033
44.055,-0.048
44.060,-0.073
44.065,-0.074
44.070,-0.074
44.075,-0.078
44.080,-0.083
44.085,-0.088
44.090,-0.075
44.095,-0.077
44.100,-0.073
44.105,-0.056
44.110,-0.046
44.115,-0.014
44.120,0.012
44.125,0.015
44.130,0.015
44.135,0.020
44.140,0.043
44.145,0.060
44.150,0.076
44.155,0.087
44.160,0.083
44.165,0.082
44.170,0.071
44.175,0.068
44.180,0.070
44.185,0.059
44.190,0.060
44.195,0.072
44.200,0.146
44.205,0.270
44.210,0.316
44.215,0.233
44.220,-0.029
44.225,-0.502
44.230,-1.171
44.235,-1.766
44.240,-1.904
44.245,-1.650
44.250,-1.075
44.255,-0.380
44.260,-0.002
44.265,0.127
44.270,0.166
44.275,0.228
44.280,0.386
44.285,0.436
44.290,0.399
44.295,0.422
44.300,0.459
44.305,0.439
44.310,0.417
44.315,0.426
44.320,0.400
44.325,0.372
44.330,0.372
44.335,0.357
44.340,0.339
44.345,0.319
44.350,0.304
44.355,0.291
44.360,0.270
44.365,0.262
44.370,0.240
44.375,0.216
44.380,0.207
44.385,0.189
44.390,0.172
44.395,0.155
44.400,0.144
44.405,0.131
44.410,0.107
44.415,0.094
44.420,0.075
44.425,0.056
44.430,0.040
44.435,0.014
44.440,-0.003
44.445,-0.031
44.450,-0.057
44.455,-0.075
44.460,-0.108
44.465,-0.133
44.470,-0.161
44.475,-0.193
44.480,-0.222
44.485,-0.256
44.490,-0.282
44.495,-0.309
44.500,-0.323
44.505,-0.331
44.510,-0.351
44.515,-0.351
44.520,-0.349
44.525,-0.346
44.530,-0.332
44.535,-0.323
44.540,-0.295
44.545,-0.262
44.550,-0.221
44.555,-0.164
44.560,-0.107
44.565,-0.034
44.570,0.034
44.575,0.104
44.580,0.176
44.585,0.233
44.590,0.295
44.595,0.339
44.600,0.374
44.605,0.405
44.610,0.413
44.615,0.421
44.620,0.425
44.625,0.425
44.630,0.419
44.635,0.402
44.640,0.393
44.645,0.373
44.650,0.360
44.655,0.351
44.660,0.328
44.665,0.319
44.670,0.300
44.675,0.275
44.680,0.256
44.685,0.234
44.690,0.229
44.695,0.212
44.700,0.194
44.705,0.182
44.710,0.158
44.715,0.147
44.720,0.135
44.725,0.119
44.730,0.108
44.735,0.092
44.740,0.084
44.745,0.068
44.750,0.056
44.755,0.048
44.760,0.032
44.765,0.027
44.770,0.017
44.775,0.012
44.780,0.012
44.785,-0.002
44.790,-0.006
44.795,-0.015
44.800,-0.020
44.805,-0.017
44.810,-0.026
44.815,-0.027
44.820,-0.031
44.825,-0.036
44.830,-0.034
44.835,-0.039
44.840,-0.040
44.845,-0.048
44.850,-0.048
44.855,-0.044
44.860,-0.054
44.865,-0.055
44.870,-0.055
44.875,-0.053
44.880,-0.052
44.885,-0.060
44.890,-0.059
44.895,-0.066
44.900,-0.068
44.905,-0.064
44.910,-0.072
44.915,-0.070
44.920,-0.076
