'Elapsed time','ECG'
'seconds','mV'
0.000,0.428
0.005,1.036
0.010,-0.375
0.015,-1.120
0.020,0.552
0.025,0.235
0.030,-1.088
0.035,-0.096
0.040,0.359
0.045,-0.544
0.050,-0.374
0.055,0.149
0.060,-0.148
0.065,-0.284
0.070,0.057
0.075,-0.047
0.080,-0.411
0.085,-0.198
0.090,0.016
0.095,-0.137
0.100,-0.109
0.105,-0.005
0.110,-0.028
0.115,-0.177
0.120,-0.177
0.125,-0.055
0.130,-0.159
0.135,-0.077
0.140,0.024
0.145,-0.053
0.150,-0.092
0.155,-0.091
0.160,0.032
0.165,-0.069
0.170,-0.132
0.175,-0.020
0.180,-0.117
0.185,-0.046
0.190,0.020
0.195,0.027
0.200,0.230
0.205,0.197
0.210,0.074
0.215,-0.167
0.220,-0.273
0.225,0.003
0.230,-0.070
0.235,-0.089
0.240,0.026
0.245,-0.028
0.250,-0.047
0.255,-0.072
0.260,0.068
0.265,0.078
0.270,0.008
0.275,0.037
0.280,-0.045
0.285,0.013
0.290,0.100
0.295,0.056
0.300,-0.006
0.305,0.023
0.310,0.149
0.315,-0.009
0.320,-0.097
0.325,0.033
0.330,0.001
0.335,0.098
0.340,0.136
0.345,0.055
0.350,0.000
0.355,-0.031
0.360,0.111
0.365,0.092
0.370,0.037
0.375,0.058
0.380,-0.035
0.385,0.031
0.390,0.096
0.395,0.058
0.400,0.073
0.405,0.066
0.410,0.114
0.415,-0.001
0.420,-0.074
0.425,0.058
0.430,-0.053
0.435,-0.048
0.440,0.096
0.445,0.070
0.450,0.042
0.455,0.012
0.460,0.075
0.465,0.147
0.470,0.119
0.475,0.055
0.480,-0.068
0.485,-0.062
0.490,0.065
0.495,0.086
0.500,0.046
0.505,0.046
0.510,0.112
0.515,0.023
0.520,-0.042
0.525,0.046
0.530,-0.056
0.535,-0.045
0.540,0.066
0.545,0.045
0.550,0.006
0.555,0.001
0.560,0.112
0.565,-0.009
0.570,-0.087
0.575,0.050
0.580,-0.052
0.585,-0.025
0.590,0.043
0.595,-0.002
0.600,0.071
0.605,0.077
0.610,0.103
0.615,-0.080
0.620,-0.185
0.625,0.034
0.630,-0.030
0.635,-0.016
0.640,0.052
0.645,-0.021
0.650,-0.005
0.655,-0.020
0.660,0.070
0.665,0.061
0.670,-0.006
0.675,0.036
0.680,-0.067
0.685,-0.051
0.690,0.049
0.695,0.020
0.700,-0.028
0.705,-0.012
0.710,0.111
0.715,0.006
0.720,-0.078
0.725,0.024
0.730,-0.038
0.735,0.033
0.740,0.090
0.745,0.017
0.750,-0.029
0.755,-0.047
0.760,0.091
0.765,0.040
0.770,-0.029
0.775,0.036
0.780,-0.080
0.785,-0.037
0.790,0.047
0.795,0.010
0.800,0.060
0.805,0.054
0.810,0.085
0.815,-0.038
0.820,-0.120
0.825,0.042
0.830,-0.070
0.835,-0.076
0.840,0.073
0.845,0.052
0.850,0.055
0.855,0.023
0.860,0.054
0.865,0.115
0.870,0.085
0.875,0.034
0.880,-0.100
0.885,-0.111
0.890,0.039
0.895,0.072
0.900,0.032
0.905,0.021
0.910,0.078
0.915,-0.030
0.920,-0.104
0.925,0.024
0.930,-0.052
0.935,-0.033
0.940,0.056
0.945,0.022
0.950,0.021
0.955,0.008
0.960,0.082
0.965,-0.042
0.970,-0.116
0.975,0.039
0.980,-0.030
0.985,0.003
0.990,0.035
0.995,-0.024
1.000,0.064
1.005,0.069
1.010,0.086
1.015,-0.098
1.020,-0.197
1.025,0.027
1.030,-0.033
1.035,-0.021
1.040,0.037
1.045,-0.050
1.050,-0.032
1.055,-0.040
1.060,0.048
1.065,0.027
1.070,-0.045
1.075,0.027
1.080,-0.079
1.085,-0.074
1.090,0.032
1.095,-0.024
1.100,-0.093
1.105,-0.071
1.110,0.084
1.115,-0.018
1.120,-0.108
1.125,0.020
1.130,-0.043
1.135,0.027
1.140,0.087
1.145,0.005
1.150,0.007
1.155,0.011
1.160,0.104
1.165,0.053
1.170,-0.011
1.175,0.035
1.180,-0.083
1.185,-0.055
1.190,0.021
1.195,0.036
1.200,0.204
1.205,0.196
1.210,0.105
1.215,-0.068
1.220,-0.152
1.225,0.050
1.230,-0.031
1.235,-0.068
1.240,0.062
1.245,0.042
1.250,0.024
1.255,-0.010
1.260,0.042
1.265,0.113
1.270,0.088
1.275,0.044
1.280,-0.077
1.285,-0.093
1.290,0.006
1.295,0.000
1.300,-0.046
1.305,-0.039
1.310,0.059
1.315,-0.091
1.320,-0.189
1.325,0.022
1.330,-0.092
1.335,-0.105
1.340,0.010
1.345,-0.054
1.350,-0.051
1.355,-0.063
1.360,0.054
1.365,-0.054
1.370,-0.143
1.375,0.050
1.380,-0.064
1.385,-0.044
1.390,-0.006
1.395,-0.091
1.400,0.064
1.405,0.095
1.410,0.107
1.415,0.004
1.420,-0.081
1.425,0.063
1.430,0.044
1.435,0.081
1.440,0.083
1.445,0.018
1.450,0.060
1.455,0.060
1.460,0.110
1.465,0.146
1.470,0.122
1.475,0.069
1.480,-0.044
1.485,-0.053
1.490,0.016
1.495,-0.040
1.500,-0.220
1.505,-0.182
1.510,0.086
1.515,-0.057
1.520,-0.152
1.525,0.050
1.530,-0.068
1.535,-0.026
1.540,0.058
1.545,-0.041
1.550,0.007
1.555,0.022
1.560,0.081
1.565,0.017
1.570,-0.054
1.575,0.038
1.580,-0.082
1.585,-0.073
1.590,0.027
1.595,0.014
1.600,0.110
1.605,0.119
1.610,0.110
1.615,-0.056
1.620,-0.132
1.625,0.072
1.630,0.086
1.635,0.134
1.640,0.148
1.645,0.118
1.650,0.171
1.655,0.125
1.660,0.088
1.665,0.080
1.670,0.081
1.675,0.059
1.680,-0.031
1.685,-0.034
1.690,0.042
1.695,0.004
1.700,-0.116
1.705,-0.081
1.710,0.059
1.715,-0.088
1.720,-0.165
1.725,0.009
1.730,-0.147
1.735,-0.182
1.740,-0.020
1.745,-0.049
1.750,-0.038
1.755,-0.047
1.760,0.016
1.765,-0.121
1.770,-0.221
1.775,0.011
1.780,-0.094
1.785,-0.101
1.790,-0.025
1.795,-0.109
1.800,0.005
1.805,0.007
1.810,0.035
1.815,-0.084
1.820,-0.185
1.825,0.043
1.830,0.027
1.835,0.061
1.840,0.044
1.845,-0.128
1.850,-0.181
1.855,-0.201
1.860,0.015
1.865,0.039
1.870,-0.036
1.875,0.064
1.880,-0.090
1.885,-0.078
1.890,0.009
1.895,-0.101
1.900,-0.089
1.905,-0.067
1.910,0.066
1.915,0.032
1.920,-0.042
1.925,0.094
1.930,0.050
1.935,0.121
1.940,0.135
1.945,0.017
1.950,0.046
1.955,0.044
1.960,0.110
1.965,0.081
1.970,0.032
1.975,0.091
1.980,-0.024
1.985,-0.013
1.990,0.051
1.995,-0.012
2.000,0.025
2.005,0.040
2.010,0.102
2.015,0.018
2.020,-0.054
2.025,0.101
2.030,-0.017
2.035,-0.041
2.040,0.071
2.045,0.015
2.050,0.022
2.055,0.015
2.060,0.068
2.065,0.135
2.070,0.113
2.075,0.087
2.080,-0.065
2.085,-0.103
2.090,0.011
2.095,0.002
2.100,-0.008
2.105,0.005
2.110,0.081
2.115,0.023
2.120,-0.041
2.125,0.073
2.130,-0.033
2.135,-0.049
2.140,0.031
2.145,-0.026
2.150,-0.020
2.155,-0.013
2.160,0.076
2.165,-0.035
2.170,-0.110
2.175,0.082
2.180,-0.036
2.185,-0.052
2.190,0.005
2.195,-0.032
2.200,0.174
2.205,0.203
2.210,0.118
2.215,-0.105
2.220,-0.212
2.225,0.056
2.230,-0.007
2.235,-0.047
2.240,0.005
2.245,-0.076
2.250,-0.023
2.255,-0.019
2.260,0.058
2.265,0.056
2.270,-0.010
2.275,0.061
2.280,-0.055
2.285,-0.084
2.290,0.009
2.295,-0.041
2.300,-0.056
2.305,-0.008
2.310,0.098
2.315,0.012
2.320,-0.067
2.325,0.045
2.330,-0.029
2.335,-0.005
2.340,0.038
2.345,-0.048
2.350,-0.044
2.355,-0.035
2.360,0.072
2.365,0.020
2.370,-0.053
2.375,0.059
2.380,-0.069
2.385,-0.081
2.390,0.001
2.395,-0.064
2.400,-0.001
2.405,0.017
2.410,0.068
2.415,-0.028
2.420,-0.108
2.425,0.078
2.430,-0.050
2.435,-0.088
2.440,0.032
2.445,-0.023
2.450,0.013
2.455,0.000
2.460,0.041
2.465,0.111
2.470,0.081
2.475,0.082
2.480,-0.071
2.485,-0.115
2.490,0.012
2.495,0.006
2.500,0.009
2.505,0.014
2.510,0.070
2.515,-0.003
2.520,-0.072
2.525,0.066
2.530,-0.025
2.535,-0.036
2.540,0.043
2.545,-0.017
2.550,-0.003
2.555,-0.001
2.560,0.072
2.565,-0.043
2.570,-0.113
2.575,0.083
2.580,-0.009
2.585,-0.011
2.590,0.015
2.595,-0.075
2.600,0.040
2.605,0.058
2.610,0.076
2.615,-0.072
2.620,-0.162
2.625,0.074
2.630,0.028
2.635,0.025
2.640,0.033
2.645,-0.088
2.650,-0.035
2.655,-0.024
2.660,0.052
2.665,0.033
2.670,-0.027
2.675,0.076
2.680,-0.037
2.685,-0.058
2.690,0.025
2.695,-0.061
2.700,-0.073
2.705,-0.017
2.710,0.093
2.715,0.017
2.720,-0.052
2.725,0.074
2.730,0.036
2.735,0.078
2.740,0.074
2.745,-0.047
2.750,-0.046
2.755,-0.034
2.760,0.079
2.765,0.047
2.770,-0.014
2.775,0.078
2.780,-0.066
2.785,-0.086
2.790,0.007
2.795,-0.065
2.800,-0.028
2.805,-0.002
2.810,0.064
2.815,-0.021
2.820,-0.093
2.825,0.096
2.830,-0.049
2.835,-0.100
2.840,0.021
2.845,-0.051
2.850,-0.016
2.855,-0.029
2.860,0.022
2.865,0.106
2.870,0.075
2.875,0.092
2.880,-0.082
2.885,-0.144
2.890,-0.019
2.895,-0.045
2.900,-0.017
2.905,-0.009
2.910,0.056
2.915,0.020
2.920,-0.054
2.925,0.083
2.930,-0.018
2.935,-0.042
2.940,0.019
2.945,-0.056
2.950,-0.009
2.955,0.006
2.960,0.082
2.965,-0.002
2.970,-0.065
2.975,0.117
2.980,-0.001
2.985,-0.023
2.990,0.013
2.995,-0.086
3.000,0.019
3.005,0.054
3.010,0.092
3.015,-0.052
3.020,-0.147
3.025,0.092
3.030,0.012
3.035,-0.014
3.040,0.014
3.045,-0.110
3.050,-0.046
3.055,-0.019
3.060,0.067
3.065,0.058
3.070,-0.008
3.075,0.095
3.080,-0.028
3.085,-0.062
3.090,0.014
3.095,-0.073
3.100,-0.066
3.105,-0.004
3.110,0.109
3.115,0.044
3.120,-0.039
3.125,0.073
3.130,0.018
3.135,0.045
3.140,0.054
3.145,-0.047
3.150,-0.019
3.155,-0.015
3.160,0.082
3.165,0.048
3.170,-0.022
3.175,0.091
3.180,-0.052
3.185,-0.078
3.190,0.013
3.195,-0.024
3.200,0.143
3.205,0.174
3.210,0.101
3.215,-0.094
3.220,-0.191
3.225,0.083
3.230,-0.056
3.235,-0.148
3.240,-0.005
3.245,-0.063
3.250,0.000
3.255,-0.019
3.260,0.017
3.265,0.096
3.270,0.048
3.275,0.090
3.280,-0.064
3.285,-0.128
3.290,-0.001
3.295,-0.048
3.300,-0.049
3.305,-0.037
3.310,0.045
3.315,-0.015
3.320,-0.103
3.325,0.072
3.330,-0.021
3.335,-0.042
3.340,0.022
3.345,-0.069
3.350,-0.014
3.355,-0.007
3.360,0.063
3.365,-0.040
3.370,-0.121
3.375,0.105
3.380,0.002
3.385,-0.013
3.390,0.025
3.395,-0.100
3.400,0.007
3.405,0.030
3.410,0.066
3.415,-0.003
3.420,-0.070
3.425,0.127
3.430,0.124
3.435,0.143
3.440,0.070
3.445,-0.085
3.450,-0.024
3.455,-0.013
3.460,0.068
3.465,0.059
3.470,0.009
3.475,0.110
3.480,-0.020
3.485,-0.057
3.490,0.032
3.495,-0.075
3.500,-0.101
3.505,-0.030
3.510,0.094
3.515,0.011
3.520,-0.071
3.525,0.075
3.530,0.025
3.535,0.053
3.540,0.064
3.545,-0.073
3.550,-0.062
3.555,-0.041
3.560,0.073
3.565,0.049
3.570,-0.015
3.575,0.098
3.580,-0.043
3.585,-0.069
3.590,0.019
3.595,-0.073
3.600,-0.028
3.605,-0.006
3.610,0.050
3.615,-0.030
3.620,-0.106
3.625,0.102
3.630,-0.049
3.635,-0.106
3.640,0.024
3.645,-0.068
3.650,-0.023
3.655,-0.043
3.660,0.003
3.665,0.112
3.670,0.072
3.675,0.099
3.680,-0.087
3.685,-0.161
3.690,-0.005
3.695,-0.036
3.700,-0.005
3.705,-0.001
3.710,0.043
3.715,0.051
3.720,-0.004
3.725,0.103
3.730,0.020
3.735,0.003
3.740,0.045
3.745,-0.035
3.750,0.004
3.755,0.019
3.760,0.084
3.765,0.014
3.770,-0.029
3.775,0.133
3.780,0.001
3.785,-0.035
3.790,0.025
3.795,-0.067
3.800,0.004
3.805,0.040
3.810,0.075
3.815,-0.080
3.820,-0.168
3.825,0.091
3.830,0.025
3.835,0.000
3.840,0.029
3.845,-0.105
3.850,-0.051
3.855,-0.026
3.860,0.049
3.865,0.062
3.870,0.001
3.875,0.076
3.880,-0.076
3.885,-0.123
3.890,0.001
3.895,-0.088
3.900,-0.105
3.905,-0.003
3.910,0.119
3.915,-0.087
3.920,-0.263
3.925,-0.047
3.930,-0.024
3.935,0.052
3.940,0.056
3.945,-0.090
3.950,-0.021
3.955,-0.025
3.960,0.055
3.965,0.106
3.970,0.042
3.975,0.090
3.980,-0.053
3.985,-0.070
3.990,0.034
3.995,-0.045
4.000,0.007
4.005,0.029
4.010,0.068
4.015,0.061
4.020,0.006
4.025,0.123
4.030,-0.005
4.035,-0.042
4.040,0.062
4.045,-0.017
4.050,0.025
4.055,0.005
4.060,0.025
4.065,0.082
4.070,0.042
4.075,0.108
4.080,-0.062
4.085,-0.136
4.090,0.029
4.095,-0.012
4.100,-0.008
4.105,0.003
4.110,0.049
4.115,0.019
4.120,-0.054
4.125,0.076
4.130,-0.020
4.135,-0.050
4.140,0.035
4.145,-0.058
4.150,-0.054
4.155,-0.045
4.160,0.036
4.165,-0.011
4.170,-0.068
4.175,0.109
4.180,0.030
4.185,0.025
4.190,0.059
4.195,-0.043
4.200,0.100
4.205,0.157
4.210,0.104
4.215,-0.082
4.220,-0.167
4.225,0.084
4.230,0.082
4.235,0.074
4.240,0.055
4.245,-0.118
4.250,-0.123
4.255,-0.128
4.260,-0.021
4.265,-0.058
4.270,-0.153
4.275,0.049
4.280,-0.071
4.285,-0.111
4.290,0.044
4.295,-0.045
4.300,0.010
4.305,0.083
4.310,0.135
4.315,0.229
4.320,0.200
4.325,0.111
4.330,0.090
4.335,0.138
4.340,0.076
4.345,-0.064
4.350,-0.146
4.355,-0.112
4.360,0.059
4.365,0.044
4.370,0.009
4.375,0.132
4.380,0.029
4.385,0.023
4.390,0.076
4.395,-0.003
4.400,0.066
4.405,0.088
4.410,0.088
4.415,0.054
4.420,0.025
4.425,0.114
4.430,-0.062
4.435,-0.134
4.440,0.017
4.445,-0.072
4.450,-0.135
4.455,-0.124
4.460,-0.030
4.465,0.065
4.470,0.057
4.475,0.111
4.480,0.022
4.485,-0.006
4.490,0.047
4.495,-0.054
4.500,-0.083
4.505,-0.002
4.510,0.072
4.515,-0.399
4.520,-0.647
4.525,-0.146
4.530,-0.205
4.535,-0.230
4.540,-0.056
4.545,-0.252
4.550,-0.257
4.555,-0.317
4.560,-0.184
4.565,-0.185
4.570,-0.339
4.575,-0.024
4.580,-0.099
4.585,-0.056
4.590,0.090
4.595,-0.054
4.600,0.209
4.605,0.169
4.610,0.003
4.615,0.077
4.620,0.038
4.625,0.114
4.630,0.087
4.635,0.118
4.640,0.140
4.645,0.021
4.650,0.117
4.655,0.102
4.660,0.083
4.665,0.139
4.670,0.112
4.675,0.169
4.680,0.117
4.685,0.116
4.690,0.149
4.695,0.016
4.700,-0.010
4.705,0.028
4.710,0.097
4.715,0.053
4.720,-0.017
4.725,0.101
4.730,0.070
4.735,0.086
4.740,0.135
4.745,0.002
4.750,-0.030
4.755,-0.029
4.760,0.041
4.765,0.057
4.770,0.011
4.775,0.111
4.780,0.018
4.785,0.011
4.790,0.120
4.795,0.018
4.800,0.038
4.805,0.033
4.810,0.019
4.815,-0.004
4.820,-0.037
4.825,0.118
4.830,0.009
4.835,-0.030
4.840,0.108
4.845,-0.020
4.850,-0.050
4.855,-0.055
4.860,-0.027
4.865,0.110
4.870,0.123
4.875,0.142
4.880,0.065
4.885,0.036
4.890,0.117
4.895,0.093
4.900,0.113
4.905,0.120
4.910,0.112
4.915,0.181
4.920,0.216
4.925,0.168
4.930,0.172
4.935,0.156
4.940,0.065
4.945,-0.042
4.950,-0.202
4.955,-0.220
4.960,-0.106
4.965,-0.581
4.970,-0.832
4.975,-0.211
4.980,-0.484
4.985,-0.678
4.990,-0.221
4.995,-0.345
5.000,-0.274
5.005,-0.220
5.010,-0.177
5.015,0.065
5.020,0.119
5.025,0.181
5.030,0.339
5.035,0.472
5.040,0.210
5.045,0.173
5.050,0.400
5.055,0.284
5.060,0.140
5.065,0.054
5.070,0.069
5.075,0.100
5.080,-0.052
5.085,-0.017
5.090,0.161
5.095,0.069
5.100,0.019
5.105,0.018
5.110,-0.034
5.115,-0.192
5.120,-0.227
5.125,0.064
5.130,0.029
5.135,0.018
5.140,0.129
5.145,-0.020
5.150,-0.054
5.155,-0.051
5.160,-0.029
5.165,-0.058
5.170,-0.128
5.175,-0.012
5.180,-0.209
5.185,-0.278
5.190,-0.009
5.195,-0.098
5.200,-0.062
5.205,-0.037
5.210,-0.093
5.215,-0.236
5.220,-0.389
5.225,-0.042
5.230,-0.085
5.235,-0.092
5.240,0.169
5.245,0.119
5.250,0.257
5.255,0.133
5.260,-0.043
5.265,0.163
5.270,0.197
5.275,0.161
5.280,0.170
5.285,0.174
5.290,0.161
5.295,0.106
5.300,0.100
5.305,0.057
5.310,0.036
5.315,0.066
5.320,0.107
5.325,0.179
5.330,-0.082
5.335,-0.260
5.340,-0.083
5.345,-0.283
5.350,-0.609
5.355,-0.475
5.360,-0.074
5.365,-0.125
5.370,-0.237
5.375,0.019
5.380,-0.094
5.385,-0.043
5.390,0.116
5.395,-0.067
5.400,0.039
5.405,0.014
5.410,-0.067
5.415,0.057
5.420,0.055
5.425,0.135
5.430,0.125
5.435,0.141
5.440,0.170
5.445,0.048
5.450,0.085
5.455,0.034
5.460,-0.002
5.465,0.138
5.470,0.155
5.475,0.161
5.480,0.077
5.485,0.048
5.490,0.160
5.495,0.097
5.500,0.067
5.505,0.121
5.510,0.136
5.515,0.151
5.520,0.158
5.525,0.151
5.530,0.024
5.535,-0.017
5.540,0.109
5.545,0.087
5.550,0.036
5.555,-0.041
5.560,-0.088
5.565,-0.407
5.570,-0.423
5.575,0.202
5.580,-0.164
5.585,-0.434
5.590,-0.072
5.595,-0.293
5.600,-0.430
5.605,-0.391
5.610,-0.173
5.615,-0.268
5.620,-0.510
5.625,-0.152
5.630,-0.113
5.635,0.045
5.640,0.215
5.645,-0.035
5.650,0.107
5.655,0.008
5.660,-0.114
5.665,0.220
5.670,0.227
5.675,0.098
5.680,0.133
5.685,0.215
5.690,0.216
5.695,0.149
5.700,0.223
5.705,0.094
5.710,-0.023
5.715,0.033
5.720,0.009
5.725,0.116
5.730,0.054
5.735,0.038
5.740,0.194
5.745,0.041
5.750,-0.070
5.755,-0.063
5.760,-0.017
5.765,-0.075
5.770,-0.122
5.775,0.112
5.780,-0.011
5.785,-0.045
5.790,0.155
5.795,0.011
5.800,0.037
5.805,0.015
5.810,-0.055
5.815,-0.052
5.820,-0.123
5.825,0.062
5.830,0.009
5.835,-0.003
5.840,0.185
5.845,0.036
5.850,0.007
5.855,-0.022
5.860,-0.041
5.865,0.128
5.870,0.108
5.875,0.095
5.880,0.012
5.885,-0.001
5.890,0.180
5.895,-0.005
5.900,-0.205
5.905,-0.151
5.910,-0.022
5.915,0.059
5.920,-0.006
5.925,0.037
5.930,0.070
5.935,0.115
5.940,0.171
5.945,0.049
5.950,0.009
5.955,-0.021
5.960,-0.033
5.965,-0.050
5.970,-0.119
5.975,0.013
5.980,-0.202
5.985,-0.299
5.990,0.020
5.995,-0.088
6.000,-0.119
6.005,-0.055
6.010,-0.035
6.015,0.064
6.020,0.016
6.025,0.077
6.030,0.075
6.035,0.088
6.040,0.165
6.045,0.089
6.050,0.120
6.055,0.050
6.060,-0.024
6.065,0.118
6.070,0.078
6.075,0.016
6.080,0.124
6.085,0.175
6.090,0.157
6.095,0.134
6.100,0.112
6.105,0.064
6.110,0.056
6.115,0.123
6.120,0.129
6.125,0.102
6.130,0.084
6.135,0.111
6.140,0.217
6.145,0.106
6.150,-0.083
6.155,-0.024
6.160,-0.005
6.165,-0.086
6.170,-0.043
6.175,0.054
6.180,-0.068
6.185,-0.085
6.190,0.133
6.195,0.011
6.200,-0.144
6.205,-0.070
6.210,-0.059
6.215,-0.184
6.220,-0.286
6.225,-0.151
6.230,-0.220
6.235,-0.221
6.240,0.022
6.245,-0.139
6.250,-0.214
6.255,-0.085
6.260,-0.044
6.265,-0.170
6.270,-0.353
6.275,-0.189
6.280,-0.337
6.285,-0.375
6.290,0.019
6.295,-0.111
6.300,-0.188
6.305,-0.085
6.310,-0.033
6.315,0.009
6.320,-0.172
6.325,-0.161
6.330,-0.037
6.335,0.108
6.340,0.198
6.345,0.038
6.350,0.046
6.355,0.071
6.360,0.077
6.365,0.312
6.370,0.344
6.375,0.224
6.380,-0.052
6.385,-0.144
6.390,0.180
6.395,0.057
6.400,-0.158
6.405,-0.093
6.410,0.001
6.415,-0.135
6.420,-0.275
6.425,0.019
6.430,0.009
6.435,0.047
6.440,0.244
6.445,0.119
6.450,0.178
6.455,0.086
6.460,-0.049
6.465,0.054
6.470,-0.018
6.475,0.000
6.480,-0.154
6.485,-0.220
6.490,0.077
6.495,-0.099
6.500,-0.319
6.505,-0.214
6.510,-0.008
6.515,-0.103
6.520,-0.323
6.525,-0.094
6.530,0.021
6.535,0.102
6.540,0.037
6.545,-0.232
6.550,-0.140
6.555,-0.039
6.560,0.091
6.565,0.373
6.570,0.260
6.575,-0.006
6.580,0.076
6.585,0.215
6.590,0.225
6.595,0.120
6.600,0.087
6.605,0.133
6.610,0.143
6.615,0.221
6.620,0.175
6.625,0.088
6.630,0.096
6.635,0.123
6.640,0.191
6.645,0.051
6.650,-0.081
6.655,0.053
6.660,0.151
6.665,0.190
6.670,0.104
6.675,-0.002
6.680,0.038
6.685,0.097
6.690,0.183
6.695,0.054
6.700,-0.103
6.705,0.035
6.710,0.103
6.715,0.050
6.720,-0.024
6.725,-0.055
6.730,-0.045
6.735,0.015
6.740,0.166
6.745,0.107
6.750,0.012
6.755,0.071
6.760,0.082
6.765,0.079
6.770,-0.013
6.775,-0.093
6.780,-0.185
6.785,-0.176
6.790,0.063
6.795,0.005
6.800,-0.069
6.805,0.052
6.810,0.067
6.815,0.052
6.820,-0.035
6.825,-0.083
6.830,-0.132
6.835,-0.135
6.840,0.013
6.845,0.343
6.850,0.503
6.855,1.008
6.860,2.762
6.865,2.511
6.870,0.727
6.875,1.686
6.880,2.384
6.885,1.036
6.890,1.107
6.895,1.868
6.900,1.222
6.905,0.855
6.910,1.355
6.915,1.192
6.920,0.761
6.925,0.960
6.930,1.018
6.935,-0.091
6.940,-0.428
6.945,0.652
6.950,0.760
6.955,0.700
6.960,0.651
6.965,0.359
6.970,0.601
6.975,0.529
6.980,0.274
6.985,0.392
6.990,0.412
6.995,0.217
7.000,0.210
7.005,0.264
7.010,0.150
7.015,0.087
7.020,0.121
7.025,0.070
7.030,-0.028
7.035,-1.066
7.040,-1.472
7.045,-0.240
7.050,0.131
7.055,0.195
7.060,-0.031
7.065,-0.401
7.070,-0.099
7.075,-0.220
7.080,-0.354
7.085,-0.867
7.090,-1.095
7.095,-0.368
7.100,-0.356
7.105,-0.334
7.110,-0.323
7.115,-0.561
7.120,-0.547
7.125,-0.706
7.130,-0.504
7.135,-1.017
7.140,-1.308
7.145,-0.492
7.150,-0.895
7.155,-1.143
7.160,-0.721
7.165,-0.815
7.170,-1.167
7.175,-1.298
7.180,-0.680
7.185,-1.144
7.190,-1.527
7.195,-0.751
7.200,-1.122
7.205,-1.345
7.210,-0.983
7.215,-1.344
7.220,-1.709
7.225,-1.986
7.230,-2.840
7.235,-2.713
7.240,-2.441
7.245,-3.673
7.250,-2.893
7.255,-1.780
7.260,-2.890
7.265,-2.714
7.270,-1.716
7.275,-1.318
7.280,0.307
7.285,0.937
7.290,0.489
7.295,1.320
7.300,1.161
7.305,1.013
7.310,1.254
7.315,1.204
7.320,1.917
7.325,1.658
7.330,1.015
7.335,0.745
7.340,0.594
7.345,1.027
7.350,0.585
7.355,0.284
7.360,0.682
7.365,0.601
7.370,-0.194
7.375,-1.560
7.380,-1.277
7.385,-0.691
7.390,-1.746
7.395,-2.677
7.400,-2.424
7.405,-1.436
7.410,-1.710
7.415,-2.246
7.420,-0.973
7.425,0.165
7.430,-0.641
7.435,-1.456
7.440,-0.250
7.445,1.556
7.450,1.490
7.455,0.429
7.460,0.653
7.465,0.248
7.470,-0.817
7.475,-1.498
7.480,-1.933
7.485,-0.821
7.490,-0.173
7.495,-0.659
7.500,-0.503
7.505,-0.510
7.510,-1.209
7.515,-1.034
7.520,-0.353
7.525,-0.754
7.530,-0.918
7.535,-0.354
7.540,-0.422
7.545,-0.657
7.550,-0.350
7.555,-0.224
7.560,-0.395
7.565,-0.279
7.570,-0.107
7.575,-0.177
7.580,-0.162
7.585,-0.022
7.590,-0.015
7.595,-0.030
7.600,0.059
7.605,0.105
7.610,0.094
7.615,0.142
7.620,0.195
7.625,0.200
7.630,0.223
7.635,0.269
7.640,0.285
7.645,0.299
7.650,0.332
7.655,0.354
7.660,0.364
7.665,0.386
7.670,0.407
7.675,0.418
7.680,0.432
7.685,0.450
7.690,0.461
7.695,0.471
7.700,0.484
7.705,0.494
7.710,0.501
7.715,0.509
7.720,0.517
7.725,0.523
7.730,0.528
7.735,0.534
7.740,0.537
7.745,0.540
7.750,0.543
7.755,0.545
7.760,0.546
7.765,0.547
7.770,0.548
7.775,0.547
7.780,0.546
7.785,0.545
7.790,0.543
7.795,0.541
7.800,0.538
7.805,0.535
7.810,0.531
7.815,0.528
7.820,0.523
7.825,1.099
7.830,2.962
7.835,4.381
7.840,4.267
7.845,3.071
7.850,0.785
7.855,-0.328
7.860,-0.161
7.865,-0.217
7.870,0.486
7.875,2.279
7.880,3.659
7.885,3.798
7.890,3.430
7.895,2.923
7.900,3.000
7.905,3.135
7.910,2.590
7.915,2.479
7.920,2.625
7.925,2.305
7.930,2.076
7.935,2.136
7.940,1.984
7.945,1.744
7.950,1.714
7.955,1.641
7.960,1.448
7.965,1.357
7.970,1.306
7.975,1.167
7.980,1.053
7.985,0.996
7.990,0.897
7.995,0.789
8.000,0.580
8.005,0.394
8.010,0.461
8.015,0.421
8.020,0.160
8.025,0.115
8.030,0.264
8.035,0.204
8.040,0.112
8.045,0.074
8.050,-0.428
8.055,-0.758
8.060,-0.367
8.065,-0.097
8.070,-0.056
8.075,-0.199
8.080,-0.334
8.085,-0.311
8.090,-0.368
8.095,-0.396
8.100,-0.711
8.105,-0.914
8.110,-0.681
8.115,-0.656
8.120,-1.113
8.125,-1.205
8.130,-0.636
8.135,-1.230
8.140,-1.556
8.145,-0.737
8.150,-1.210
8.155,-1.401
8.160,-0.964
8.165,-0.984
8.170,-0.957
8.175,-1.161
8.180,-0.926
8.185,-1.120
8.190,-1.368
8.195,-0.870
8.200,-1.166
8.205,-1.158
8.210,-0.954
8.215,-1.001
8.220,-0.868
8.225,-1.156
8.230,-0.925
8.235,-1.124
8.240,-1.386
8.245,-0.825
8.250,-1.097
8.255,-1.177
8.260,-1.014
8.265,-0.963
8.270,-0.901
8.275,-1.186
8.280,-0.803
8.285,-0.951
8.290,-1.199
8.295,-0.734
8.300,-0.833
8.305,-0.650
8.310,-0.702
8.315,-0.755
8.320,-0.397
8.325,-0.707
8.330,-0.543
8.335,-0.477
8.340,-0.605
8.345,-0.379
8.350,-0.563
8.355,-0.328
8.360,-0.416
8.365,-0.536
8.370,-0.305
8.375,-0.628
8.380,-0.320
8.385,-0.275
8.390,-0.439
8.395,-0.180
8.400,-0.424
8.405,-0.193
8.410,-0.221
8.415,-0.389
8.420,-0.234
8.425,-0.546
8.430,-0.226
8.435,-0.340
8.440,-0.611
8.445,-0.172
8.450,-0.317
8.455,-0.219
8.460,-0.244
8.465,-0.270
8.470,-0.033
8.475,-0.343
8.480,-0.110
8.485,-0.170
8.490,-0.340
8.495,-0.005
8.500,-0.293
8.505,-0.267
8.510,-0.240
8.515,-0.235
8.520,-0.048
8.525,-0.319
8.530,-0.095
8.535,-0.234
8.540,-0.546
8.545,-0.295
8.550,-0.584
8.555,-0.676
8.560,-0.453
8.565,-0.602
8.570,-0.638
8.575,-0.422
8.580,-0.859
8.585,-1.119
8.590,-0.405
8.595,-0.231
8.600,-0.349
8.605,-0.405
8.610,-0.617
8.615,-0.757
8.620,-0.691
8.625,-0.279
8.630,0.008
8.635,0.014
8.640,-0.105
8.645,-0.110
8.650,-0.046
8.655,-0.169
8.660,-0.148
8.665,0.262
8.670,0.329
8.675,0.103
8.680,0.620
8.685,0.855
8.690,0.295
8.695,0.379
8.700,0.698
8.705,0.826
8.710,0.612
8.715,1.195
8.720,2.940
8.725,2.141
8.730,0.678
8.735,1.604
8.740,1.782
8.745,0.972
8.750,0.606
8.755,0.138
8.760,0.193
8.765,1.124
8.770,1.896
8.775,1.453
8.780,0.087
8.785,-1.227
8.790,-1.343
8.795,-1.043
8.800,-1.599
8.805,-1.953
8.810,-2.618
8.815,-2.573
8.820,-1.493
8.825,-1.014
8.830,0.447
8.835,0.823
8.840,-1.306
8.845,-2.386
8.850,-1.857
8.855,-0.094
8.860,1.566
8.865,1.972
8.870,2.439
8.875,2.219
8.880,1.550
8.885,1.945
8.890,2.072
8.895,1.504
8.900,1.568
8.905,1.753
8.910,0.240
8.915,-1.913
8.920,-2.451
8.925,-2.346
8.930,-1.534
8.935,0.615
8.940,1.877
8.945,1.903
8.950,1.828
8.955,1.413
8.960,1.444
8.965,1.367
8.970,-0.126
8.975,-0.106
8.980,1.446
8.985,1.376
8.990,1.143
8.995,1.142
9.000,0.300
9.005,-1.271
9.010,-2.790
9.015,-2.948
9.020,-2.356
9.025,-2.171
9.030,-2.439
9.035,-2.272
9.040,-1.880
9.045,-2.005
9.050,-2.002
9.055,-1.690
9.060,-1.654
9.065,-1.692
9.070,-1.253
9.075,0.486
9.080,1.125
9.085,-0.649
9.090,-1.537
9.095,-1.631
9.100,-0.663
9.105,1.582
9.110,2.462
9.115,2.313
9.120,2.051
9.125,1.711
9.130,1.291
9.135,-0.148
9.140,-0.496
9.145,1.224
9.150,1.383
9.155,0.685
9.160,1.081
9.165,0.764
9.170,-0.168
9.175,-0.075
9.180,0.166
9.185,-0.330
9.190,-1.381
9.195,-2.078
9.200,0.597
9.205,3.152
9.210,2.017
9.215,1.609
9.220,1.907
9.225,1.500
9.230,1.654
9.235,1.436
9.240,1.181
9.245,1.467
9.250,1.128
9.255,0.862
9.260,1.044
9.265,0.411
9.270,-0.552
9.275,-0.120
9.280,0.760
9.285,-0.183
9.290,-0.808
9.295,-0.468
9.300,-1.172
9.305,-1.297
9.310,-0.602
9.315,-0.521
9.320,-0.765
9.325,-0.398
9.330,0.076
9.335,-0.266
9.340,-0.979
9.345,-1.750
9.350,-1.592
9.355,-0.666
9.360,-0.308
9.365,-0.268
9.370,-0.500
9.375,-0.362
9.380,0.020
9.385,-0.204
9.390,-0.044
9.395,-0.482
9.400,-1.110
9.405,-1.140
9.410,-2.485
9.415,-2.290
9.420,-0.757
9.425,-1.673
9.430,-2.129
9.435,-0.979
9.440,-1.126
9.445,-1.699
9.450,-1.112
9.455,-0.853
9.460,-1.257
9.465,-1.072
9.470,-0.728
9.475,-0.901
9.480,-0.916
9.485,-0.644
9.490,-0.647
9.495,-0.713
9.500,-0.550
9.505,-0.469
9.510,-0.514
9.515,-0.436
9.520,-0.335
9.525,-0.341
9.530,-0.309
9.535,-0.224
9.540,-0.199
9.545,-0.183
9.550,-0.123
9.555,-0.083
9.560,-0.068
9.565,-0.028
9.570,0.014
9.575,0.033
9.580,0.061
9.585,0.096
9.590,0.119
9.595,0.140
9.600,0.168
9.605,0.191
9.610,0.209
9.615,0.230
9.620,0.251
9.625,0.267
9.630,0.284
9.635,0.302
9.640,0.316
9.645,0.329
9.650,0.343
9.655,0.355
9.660,0.366
9.665,0.376
9.670,0.386
9.675,0.395
9.680,0.403
9.685,0.410
9.690,0.417
9.695,0.422
9.700,0.428
9.705,0.432
9.710,0.436
9.715,0.440
9.720,0.443
9.725,0.445
9.730,0.446
9.735,0.448
9.740,0.448
9.745,0.448
9.750,0.448
9.755,0.448
9.760,0.446
9.765,0.445
9.770,0.443
9.775,0.441
9.780,0.438
9.785,0.436
9.790,0.432
9.795,0.429
9.800,0.425
9.805,0.421
9.810,0.417
9.815,0.413
9.820,0.408
9.825,0.403
9.830,0.398
9.835,0.393
9.840,0.387
9.845,0.382
9.850,0.376
9.855,0.371
9.860,0.365
9.865,0.359
9.870,0.353
9.875,0.346
9.880,0.340
9.885,0.334
9.890,0.328
9.895,0.321
9.900,0.315
9.905,0.308
9.910,0.302
9.915,0.295
9.920,0.289
9.925,0.282
9.930,0.276
9.935,0.269
9.940,0.263
9.945,0.256
9.950,0.250
9.955,0.244
9.960,0.237
9.965,0.231
9.970,0.225
9.975,0.218
9.980,0.212
9.985,0.206
9.990,0.200
9.995,0.194
10.000,0.188
10.005,0.183
10.010,0.177
10.015,0.171
10.020,0.166
10.025,0.160
10.030,0.155
10.035,0.149
10.040,0.144
10.045,0.139
10.050,0.134
10.055,0.129
10.060,0.124
10.065,0.119
10.070,0.114
10.075,0.110
10.080,0.105
10.085,0.101
10.090,0.096
10.095,0.092
10.100,0.088
10.105,0.084
10.110,0.080
10.115,0.076
10.120,0.072
10.125,0.069
10.130,0.065
10.135,0.061
10.140,0.058
10.145,0.055
10.150,0.052
10.155,0.048
10.160,0.045
10.165,0.042
10.170,0.040
10.175,0.037
10.180,0.034
10.185,0.031
10.190,0.029
10.195,0.026
10.200,0.024
10.205,0.022
10.210,0.020
10.215,0.017
10.220,0.015
10.225,0.013
10.230,0.011
10.235,0.010
10.240,0.008
10.245,0.006
10.250,0.004
10.255,0.003
10.260,0.001
10.265,0.000
10.270,-0.001
10.275,-0.003
10.280,-0.004
10.285,-0.005
10.290,-0.006
10.295,-0.007
10.300,-0.008
10.305,-0.009
10.310,-0.010
10.315,-0.011
10.320,-0.012
10.325,-0.013
10.330,-0.013
10.335,-0.014
10.340,-0.015
10.345,-0.015
10.350,-0.016
10.355,-0.017
10.360,-0.017
10.365,-0.017
10.370,-0.018
10.375,-0.018
10.380,-0.019
10.385,-0.019
10.390,-0.019
10.395,-0.019
10.400,-0.020
10.405,-0.020
10.410,-0.020
10.415,-0.020
10.420,-0.020
10.425,-0.020
10.430,-0.020
10.435,-0.020
10.440,-0.020
10.445,-0.020
10.450,-0.020
10.455,-0.020
10.460,-0.020
10.465,-0.020
10.470,-0.020
10.475,-0.020
10.480,-0.020
10.485,-0.019
10.490,-0.009
10.495,0.014
10.500,0.042
10.505,0.082
10.510,0.123
10.515,0.143
10.520,0.170
10.525,0.213
10.530,0.240
10.535,0.247
10.540,0.269
10.545,0.299
10.550,0.314
10.555,0.322
10.560,0.312
10.565,0.287
10.570,0.263
10.575,0.245
10.580,0.228
10.585,0.193
10.590,0.160
10.595,0.149
10.600,0.145
10.605,0.145
10.610,0.138
10.615,0.130
10.620,0.134
10.625,0.136
10.630,0.145
10.635,0.154
10.640,0.155
10.645,0.153
10.650,0.153
10.655,0.167
10.660,0.182
10.665,0.189
10.670,0.193
10.675,0.189
10.680,0.190
10.685,0.194
10.690,0.193
10.695,0.191
10.700,0.190
10.705,0.193
10.710,0.191
10.715,0.183
10.720,0.179
10.725,0.175
10.730,0.167
10.735,0.159
10.740,0.159
10.745,0.164
10.750,0.157
10.755,0.148
10.760,0.154
10.765,0.173
10.770,0.191
10.775,0.201
10.780,0.212
10.785,0.218
10.790,0.208
10.795,0.194
10.800,0.183
10.805,0.181
10.810,0.190
10.815,0.195
10.820,0.181
10.825,0.161
10.830,0.151
10.835,0.134
10.840,0.104
10.845,0.076
10.850,0.055
10.855,0.041
10.860,0.019
10.865,-0.017
10.870,-0.047
10.875,-0.064
10.880,-0.069
10.885,-0.073
10.890,-0.080
10.895,-0.081
10.900,-0.078
10.905,-0.071
10.910,-0.074
10.915,-0.086
10.920,-0.096
10.925,-0.142
10.930,-0.197
10.935,-0.201
10.940,-0.146
10.945,-0.039
10.950,0.094
10.955,0.295
10.960,0.635
10.965,0.850
10.970,0.715
10.975,0.441
10.980,0.156
10.985,-0.058
10.990,-0.170
10.995,-0.274
11.000,-0.285
11.005,-0.212
11.010,-0.186
11.015,-0.184
11.020,-0.177
11.025,-0.199
11.030,-0.220
11.035,-0.212
11.040,-0.205
11.045,-0.200
11.050,-0.182
11.055,-0.173
11.060,-0.181
11.065,-0.173
11.070,-0.159
11.075,-0.153
11.080,-0.147
11.085,-0.145
11.090,-0.143
11.095,-0.134
11.100,-0.127
11.105,-0.126
11.110,-0.129
11.115,-0.130
11.120,-0.121
11.125,-0.111
11.130,-0.099
11.135,-0.092
11.140,-0.084
11.145,-0.072
11.150,-0.067
11.155,-0.057
11.160,-0.051
11.165,-0.044
11.170,-0.029
11.175,-0.024
11.180,-0.015
11.185,-0.005
11.190,0.005
11.195,0.013
11.200,-0.001
11.205,-0.017
11.210,-0.030
11.215,-0.054
11.220,-0.088
11.225,-0.125
11.230,-0.145
11.235,-0.167
11.240,-0.201
11.245,-0.225
11.250,-0.233
11.255,-0.231
11.260,-0.238
11.265,-0.243
11.270,-0.241
11.275,-0.239
11.280,-0.227
11.285,-0.221
11.290,-0.220
11.295,-0.214
11.300,-0.213
11.305,-0.206
11.310,-0.191
11.315,-0.185
11.320,-0.181
11.325,-0.174
11.330,-0.175
11.335,-0.165
11.340,-0.150
11.345,-0.151
11.350,-0.149
11.355,-0.141
11.360,-0.131
11.365,-0.119
11.370,-0.120
11.375,-0.124
11.380,-0.116
11.385,-0.106
11.390,-0.103
11.395,-0.098
11.400,-0.094
11.405,-0.093
11.410,-0.089
11.415,-0.087
11.420,-0.084
11.425,-0.076
11.430,-0.060
11.435,-0.038
11.440,-0.019
11.445,0.001
11.450,0.015
11.455,0.019
11.460,0.022
11.465,0.021
11.470,0.025
11.475,0.045
11.480,0.068
11.485,0.070
11.490,0.053
11.495,0.034
11.500,0.013
11.505,-0.004
11.510,-0.020
11.515,-0.038
11.520,-0.052
11.525,-0.062
11.530,-0.078
11.535,-0.113
11.540,-0.140
11.545,-0.144
11.550,-0.137
11.555,-0.122
11.560,-0.116
11.565,-0.112
11.570,-0.107
11.575,-0.110
11.580,-0.100
11.585,-0.088
11.590,-0.124
11.595,-0.188
11.600,-0.205
11.605,-0.153
11.610,-0.055
11.615,0.080
11.620,0.276
11.625,0.597
11.630,0.859
11.635,0.786
11.640,0.530
11.645,0.259
11.650,0.023
11.655,-0.099
11.660,-0.198
11.665,-0.239
11.670,-0.181
11.675,-0.149
11.680,-0.141
11.685,-0.129
11.690,-0.141
11.695,-0.157
11.700,-0.149
11.705,-0.137
11.710,-0.139
11.715,-0.124
11.720,-0.098
11.725,-0.095
11.730,-0.088
11.735,-0.074
11.740,-0.068
11.745,-0.058
11.750,-0.051
11.755,-0.046
11.760,-0.047
11.765,-0.046
11.770,-0.035
11.775,-0.024
11.780,-0.012
11.785,-0.008
11.790,-0.011
11.795,-0.004
11.800,0.001
11.805,0.010
11.810,0.019
11.815,0.024
11.820,0.032
11.825,0.031
11.830,0.038
11.835,0.051
11.840,0.060
11.845,0.070
11.850,0.079
11.855,0.093
11.860,0.099
11.865,0.094
11.870,0.086
11.875,0.069
11.880,0.049
11.885,0.023
11.890,-0.006
11.895,-0.033
11.900,-0.065
11.905,-0.091
11.910,-0.112
11.915,-0.130
11.920,-0.138
11.925,-0.140
11.930,-0.139
11.935,-0.139
11.940,-0.137
11.945,-0.130
11.950,-0.132
11.955,-0.138
11.960,-0.134
11.965,-0.119
11.970,-0.102
11.975,-0.094
11.980,-0.086
11.985,-0.082
11.990,-0.076
11.995,-0.062
12.000,-0.062
12.005,-0.067
12.010,-0.068
12.015,-0.064
12.020,-0.055
12.025,-0.053
12.030,-0.052
12.035,-0.049
12.040,-0.045
12.045,-0.042
12.050,-0.041
12.055,-0.034
12.060,-0.026
12.065,-0.027
12.070,-0.024
12.075,-0.019
12.080,-0.017
12.085,-0.021
12.090,-0.027
12.095,-0.017
12.100,0.001
12.105,0.015
12.110,0.031
12.115,0.051
12.120,0.070
12.125,0.077
12.130,0.076
12.135,0.072
12.140,0.063
12.145,0.066
12.150,0.089
12.155,0.115
12.160,0.113
12.165,0.092
12.170,0.074
12.175,0.053
12.180,0.040
12.185,0.031
12.190,0.017
12.195,-0.007
12.200,-0.034
12.205,-0.052
12.210,-0.070
12.215,-0.087
12.220,-0.096
12.225,-0.094
12.230,-0.087
12.235,-0.095
12.240,-0.098
12.245,-0.080
12.250,-0.073
12.255,-0.069
12.260,-0.073
12.265,-0.123
12.270,-0.169
12.275,-0.151
12.280,-0.076
12.285,0.041
12.290,0.178
12.295,0.384
12.300,0.724
12.305,0.906
12.310,0.745
12.315,0.487
12.320,0.210
12.325,-0.006
12.330,-0.111
12.335,-0.208
12.340,-0.206
12.345,-0.136
12.350,-0.121
12.355,-0.113
12.360,-0.100
12.365,-0.123
12.370,-0.135
12.375,-0.114
12.380,-0.103
12.385,-0.103
12.390,-0.086
12.395,-0.073
12.400,-0.076
12.405,-0.066
12.410,-0.052
12.415,-0.050
12.420,-0.050
12.425,-0.051
12.430,-0.043
12.435,-0.033
12.440,-0.032
12.445,-0.026
12.450,-0.017
12.455,-0.006
12.460,-0.001
12.465,0.001
12.470,0.009
12.475,0.014
12.480,0.020
12.485,0.029
12.490,0.046
12.495,0.064
12.500,0.070
12.505,0.080
12.510,0.088
12.515,0.087
12.520,0.095
12.525,0.105
12.530,0.117
12.535,0.119
12.540,0.108
12.545,0.103
12.550,0.088
12.555,0.064
12.560,0.038
12.565,0.002
12.570,-0.033
12.575,-0.065
12.580,-0.085
12.585,-0.100
12.590,-0.115
12.595,-0.121
12.600,-0.129
12.605,-0.133
12.610,-0.134
12.615,-0.135
12.620,-0.129
12.625,-0.122
12.630,-0.109
12.635,-0.101
12.640,-0.102
12.645,-0.098
12.650,-0.091
12.655,-0.083
12.660,-0.081
12.665,-0.085
12.670,-0.079
12.675,-0.067
12.680,-0.056
12.685,-0.048
12.690,-0.048
12.695,-0.046
12.700,-0.045
12.705,-0.044
12.710,-0.041
12.715,-0.037
12.720,-0.028
12.725,-0.025
12.730,-0.029
12.735,-0.033
12.740,-0.034
12.745,-0.027
12.750,-0.023
12.755,-0.022
12.760,-0.021
12.765,-0.019
12.770,-0.015
12.775,-0.011
12.780,0.001
12.785,0.018
12.790,0.038
12.795,0.062
12.800,0.078
12.805,0.087
12.810,0.088
12.815,0.075
12.820,0.067
12.825,0.075
12.830,0.101
12.835,0.127
12.840,0.122
12.845,0.106
12.850,0.083
12.855,0.052
12.860,0.035
12.865,0.025
12.870,0.011
12.875,-0.005
12.880,-0.024
12.885,-0.045
12.890,-0.065
12.895,-0.080
12.900,-0.089
12.905,-0.079
12.910,-0.071
12.915,-0.075
12.920,-0.074
12.925,-0.072
12.930,-0.067
12.935,-0.061
12.940,-0.079
12.945,-0.132
12.950,-0.166
12.955,-0.126
12.960,-0.035
12.965,0.089
12.970,0.231
12.975,0.460
12.980,0.796
12.985,0.900
12.990,0.683
12.995,0.418
13.000,0.143
13.005,-0.044
13.010,-0.143
13.015,-0.227
13.020,-0.188
13.025,-0.121
13.030,-0.115
13.035,-0.107
13.040,-0.106
13.045,-0.132
13.050,-0.135
13.055,-0.104
13.060,-0.095
13.065,-0.101
13.070,-0.088
13.075,-0.082
13.080,-0.080
13.085,-0.063
13.090,-0.049
13.095,-0.046
13.100,-0.044
13.105,-0.035
13.110,-0.028
13.115,-0.021
13.120,-0.012
13.125,-0.013
13.130,-0.009
13.135,-0.006
13.140,-0.001
13.145,0.011
13.150,0.020
13.155,0.035
13.160,0.051
13.165,0.051
13.170,0.048
13.175,0.044
13.180,0.050
13.185,0.064
13.190,0.081
13.195,0.099
13.200,0.109
13.205,0.115
13.210,0.117
13.215,0.115
13.220,0.108
13.225,0.096
13.230,0.082
13.235,0.057
13.240,0.028
13.245,0.003
13.250,-0.031
13.255,-0.069
13.260,-0.098
13.265,-0.114
13.270,-0.123
13.275,-0.135
13.280,-0.138
13.285,-0.137
13.290,-0.135
13.295,-0.135
13.300,-0.141
13.305,-0.139
13.310,-0.133
13.315,-0.123
13.320,-0.106
13.325,-0.096
13.330,-0.091
13.335,-0.089
13.340,-0.089
13.345,-0.087
13.350,-0.083
13.355,-0.070
13.360,-0.062
13.365,-0.060
13.370,-0.058
13.375,-0.062
13.380,-0.056
13.385,-0.046
13.390,-0.041
13.395,-0.038
13.400,-0.043
13.405,-0.047
13.410,-0.045
13.415,-0.045
13.420,-0.042
13.425,-0.036
13.430,-0.026
13.435,-0.014
13.440,-0.011
13.445,-0.017
13.450,-0.026
13.455,-0.027
13.460,-0.017
13.465,-0.001
13.470,0.019
13.475,0.036
13.480,0.060
13.485,0.084
13.490,0.097
13.495,0.096
13.500,0.078
13.505,0.065
13.510,0.076
13.515,0.104
13.520,0.125
13.525,0.119
13.530,0.104
13.535,0.088
13.540,0.068
13.545,0.055
13.550,0.038
13.555,0.021
13.560,0.004
13.565,-0.016
13.570,-0.033
13.575,-0.055
13.580,-0.065
13.585,-0.065
13.590,-0.063
13.595,-0.059
13.600,-0.060
13.605,-0.055
13.610,-0.046
13.615,-0.054
13.620,-0.063
13.625,-0.073
13.630,-0.118
13.635,-0.160
13.640,-0.140
13.645,-0.061
13.650,0.062
13.655,0.209
13.660,0.413
13.665,0.731
13.670,0.908
13.675,0.755
13.680,0.500
13.685,0.226
13.690,0.011
13.695,-0.099
13.700,-0.202
13.705,-0.207
13.710,-0.142
13.715,-0.119
13.720,-0.106
13.725,-0.101
13.730,-0.118
13.735,-0.128
13.740,-0.111
13.745,-0.098
13.750,-0.100
13.755,-0.087
13.760,-0.075
13.765,-0.079
13.770,-0.075
13.775,-0.063
13.780,-0.050
13.785,-0.042
13.790,-0.033
13.795,-0.023
13.800,-0.022
13.805,-0.019
13.810,-0.013
13.815,-0.008
13.820,0.008
13.825,0.017
13.830,0.014
13.835,0.011
13.840,0.015
13.845,0.028
13.850,0.039
13.855,0.053
13.860,0.069
13.865,0.081
13.870,0.085
13.875,0.078
13.880,0.081
13.885,0.093
13.890,0.104
13.895,0.117
13.900,0.122
13.905,0.120
13.910,0.106
13.915,0.078
13.920,0.052
13.925,0.024
13.930,-0.012
13.935,-0.048
13.940,-0.075
13.945,-0.093
13.950,-0.115
13.955,-0.127
13.960,-0.132
13.965,-0.138
13.970,-0.137
13.975,-0.141
13.980,-0.137
13.985,-0.134
13.990,-0.135
13.995,-0.123
14.000,-0.112
14.005,-0.101
14.010,-0.094
14.015,-0.096
14.020,-0.093
14.025,-0.085
14.030,-0.074
14.035,-0.068
14.040,-0.067
14.045,-0.062
14.050,-0.056
14.055,-0.052
14.060,-0.049
14.065,-0.049
14.070,-0.047
14.075,-0.046
14.080,-0.039
14.085,-0.034
14.090,-0.034
14.095,-0.032
14.100,-0.035
14.105,-0.042
14.110,-0.046
14.115,-0.040
14.120,-0.027
14.125,-0.016
14.130,-0.008
14.135,-0.008
14.140,-0.014
14.145,-0.017
14.150,-0.017
14.155,0.000
14.160,0.020
14.165,0.032
14.170,0.051
14.175,0.067
14.180,0.079
14.185,0.087
14.190,0.080
14.195,0.072
14.200,0.073
14.205,0.095
14.210,0.128
14.215,0.134
14.220,0.115
14.225,0.093
14.230,0.075
14.235,0.059
14.240,0.045
14.245,0.033
14.250,0.014
14.255,-0.007
14.260,-0.026
14.265,-0.050
14.270,-0.072
14.275,-0.085
14.280,-0.082
14.285,-0.068
14.290,-0.067
14.295,-0.064
14.300,-0.061
14.305,-0.064
14.310,-0.060
14.315,-0.059
14.320,-0.089
14.325,-0.147
14.330,-0.154
14.335,-0.087
14.340,0.023
14.345,0.158
14.350,0.334
14.355,0.639
14.360,0.904
14.365,0.835
14.370,0.576
14.375,0.296
14.380,0.046
14.385,-0.096
14.390,-0.199
14.395,-0.226
14.400,-0.156
14.405,-0.111
14.410,-0.110
14.415,-0.112
14.420,-0.121
14.425,-0.133
14.430,-0.112
14.435,-0.092
14.440,-0.102
14.445,-0.096
14.450,-0.081
14.455,-0.079
14.460,-0.073
14.465,-0.056
14.470,-0.048
14.475,-0.056
14.480,-0.050
14.485,-0.038
14.490,-0.029
14.495,-0.020
14.500,-0.020
14.505,-0.017
14.510,-0.008
14.515,-0.001
14.520,0.010
14.525,0.021
14.530,0.032
14.535,0.035
14.540,0.032
14.545,0.045
14.550,0.061
14.555,0.072
14.560,0.083
14.565,0.091
14.570,0.097
14.575,0.100
14.580,0.109
14.585,0.118
14.590,0.123
14.595,0.127
14.600,0.117
14.605,0.099
14.610,0.070
14.615,0.033
14.620,0.003
14.625,-0.027
14.630,-0.059
14.635,-0.086
14.640,-0.107
14.645,-0.124
14.650,-0.138
14.655,-0.143
14.660,-0.147
14.665,-0.149
14.670,-0.142
14.675,-0.138
14.680,-0.130
14.685,-0.121
14.690,-0.123
14.695,-0.115
14.700,-0.108
14.705,-0.102
14.710,-0.091
14.715,-0.087
14.720,-0.083
14.725,-0.079
14.730,-0.071
14.735,-0.064
14.740,-0.062
14.745,-0.056
14.750,-0.050
14.755,-0.042
14.760,-0.040
14.765,-0.044
14.770,-0.043
14.775,-0.041
14.780,-0.041
14.785,-0.043
14.790,-0.041
14.795,-0.030
14.800,-0.025
14.805,-0.026
14.810,-0.024
14.815,-0.024
14.820,-0.021
14.825,-0.017
14.830,-0.015
14.835,-0.013
14.840,-0.009
14.845,-0.002
14.850,-0.002
14.855,0.006
14.860,0.029
14.865,0.048
14.870,0.061
14.875,0.075
14.880,0.091
14.885,0.098
14.890,0.085
14.895,0.077
14.900,0.096
14.905,0.130
14.910,0.145
14.915,0.124
14.920,0.101
14.925,0.081
14.930,0.063
14.935,0.047
14.940,0.030
14.945,0.015
14.950,-0.002
14.955,-0.018
14.960,-0.036
14.965,-0.055
14.970,-0.067
14.975,-0.077
14.980,-0.076
14.985,-0.066
14.990,-0.062
14.995,-0.057
15.000,-0.054
15.005,-0.057
15.010,-0.051
15.015,-0.078
15.020,-0.140
15.025,-0.162
15.030,-0.107
15.035,0.000
15.040,0.133
15.045,0.301
15.050,0.579
15.055,0.871
15.060,0.858
15.065,0.605
15.070,0.334
15.075,0.075
15.080,-0.077
15.085,-0.173
15.090,-0.227
15.095,-0.170
15.100,-0.123
15.105,-0.120
15.110,-0.108
15.115,-0.117
15.120,-0.140
15.125,-0.135
15.130,-0.113
15.135,-0.109
15.140,-0.107
15.145,-0.090
15.150,-0.086
15.155,-0.083
15.160,-0.065
15.165,-0.059
15.170,-0.057
15.175,-0.047
15.180,-0.036
15.185,-0.029
15.190,-0.027
15.195,-0.020
15.200,-0.013
15.205,-0.011
15.210,-0.009
15.215,-0.004
15.220,0.007
15.225,0.018
15.230,0.027
15.235,0.037
15.240,0.047
15.245,0.059
15.250,0.067
15.255,0.074
15.260,0.082
15.265,0.086
15.270,0.090
15.275,0.097
15.280,0.109
15.285,0.120
15.290,0.122
15.295,0.116
15.300,0.096
15.305,0.074
15.310,0.049
15.315,0.012
15.320,-0.023
15.325,-0.053
15.330,-0.078
15.335,-0.102
15.340,-0.124
15.345,-0.135
15.350,-0.143
15.355,-0.148
15.360,-0.148
15.365,-0.148
15.370,-0.144
15.375,-0.140
15.380,-0.135
15.385,-0.130
15.390,-0.130
15.395,-0.121
15.400,-0.109
15.405,-0.102
15.410,-0.094
15.415,-0.086
15.420,-0.075
15.425,-0.067
15.430,-0.063
15.435,-0.058
15.440,-0.050
15.445,-0.050
15.450,-0.055
15.455,-0.049
15.460,-0.040
15.465,-0.035
15.470,-0.031
15.475,-0.029
15.480,-0.025
15.485,-0.026
15.490,-0.029
15.495,-0.024
15.500,-0.022
15.505,-0.018
15.510,-0.015
15.515,-0.015
15.520,-0.012
15.525,-0.013
15.530,-0.016
15.535,-0.018
15.540,-0.017
15.545,-0.005
15.550,0.005
15.555,0.017
15.560,0.036
15.565,0.055
15.570,0.078
15.575,0.092
15.580,0.099
15.585,0.098
15.590,0.088
15.595,0.090
15.600,0.110
15.605,0.136
15.610,0.140
15.615,0.115
15.620,0.092
15.625,0.070
15.630,0.056
15.635,0.042
15.640,0.015
15.645,0.002
15.650,-0.010
15.655,-0.034
15.660,-0.056
15.665,-0.071
15.670,-0.075
15.675,-0.074
15.680,-0.069
15.685,-0.062
15.690,-0.058
15.695,-0.057
15.700,-0.059
15.705,-0.052
15.710,-0.052
15.715,-0.099
15.720,-0.153
15.725,-0.142
15.730,-0.066
15.735,0.052
15.740,0.192
15.745,0.394
15.750,0.713
15.755,0.906
15.760,0.768
15.765,0.501
15.770,0.220
15.775,0.002
15.780,-0.113
15.785,-0.208
15.790,-0.213
15.795,-0.145
15.800,-0.121
15.805,-0.118
15.810,-0.109
15.815,-0.124
15.820,-0.133
15.825,-0.114
15.830,-0.101
15.835,-0.100
15.840,-0.090
15.845,-0.079
15.850,-0.078
15.855,-0.070
15.860,-0.053
15.865,-0.049
15.870,-0.049
15.875,-0.039
15.880,-0.029
15.885,-0.025
15.890,-0.024
15.895,-0.020
15.900,-0.017
15.905,-0.012
15.910,-0.005
15.915,0.000
15.920,0.011
15.925,0.023
15.930,0.032
15.935,0.044
15.940,0.052
15.945,0.062
15.950,0.073
15.955,0.084
15.960,0.098
15.965,0.107
15.970,0.112
15.975,0.116
15.980,0.124
15.985,0.132
15.990,0.125
15.995,0.107
16.000,0.077
16.005,0.044
16.010,0.009
16.015,-0.028
16.020,-0.055
16.025,-0.077
16.030,-0.099
16.035,-0.116
16.040,-0.131
16.045,-0.138
16.050,-0.143
16.055,-0.146
16.060,-0.149
16.065,-0.153
16.070,-0.151
16.075,-0.144
16.080,-0.137
16.085,-0.133
16.090,-0.125
16.095,-0.113
16.100,-0.105
16.105,-0.096
16.110,-0.084
16.115,-0.079
16.120,-0.074
16.125,-0.071
16.130,-0.067
16.135,-0.060
16.140,-0.058
16.145,-0.050
16.150,-0.044
16.155,-0.046
16.160,-0.047
16.165,-0.047
16.170,-0.042
16.175,-0.040
16.180,-0.039
16.185,-0.033
16.190,-0.027
16.195,-0.022
16.200,-0.027
16.205,-0.024
16.210,-0.014
16.215,-0.013
16.220,-0.013
16.225,-0.017
16.230,-0.016
16.235,-0.011
16.240,-0.014
16.245,-0.013
16.250,-0.005
16.255,0.013
16.260,0.043
16.265,0.069
16.270,0.088
16.275,0.094
16.280,0.092
16.285,0.086
16.290,0.081
16.295,0.094
16.300,0.119
16.305,0.136
16.310,0.130
16.315,0.108
16.320,0.091
16.325,0.071
16.330,0.054
16.335,0.040
16.340,0.022
16.345,0.007
16.350,-0.014
16.355,-0.036
16.360,-0.061
16.365,-0.077
16.370,-0.074
16.375,-0.067
16.380,-0.061
16.385,-0.064
16.390,-0.063
16.395,-0.055
16.400,-0.054
16.405,-0.053
16.410,-0.062
16.415,-0.111
16.420,-0.153
16.425,-0.133
16.430,-0.049
16.435,0.075
16.440,0.216
16.445,0.442
16.450,0.773
16.455,0.908
16.460,0.720
16.465,0.451
16.470,0.175
16.475,-0.019
16.480,-0.122
16.485,-0.212
16.490,-0.196
16.495,-0.130
16.500,-0.119
16.505,-0.108
16.510,-0.095
16.515,-0.115
16.520,-0.121
16.525,-0.103
16.530,-0.099
16.535,-0.098
16.540,-0.083
16.545,-0.073
16.550,-0.079
16.555,-0.069
16.560,-0.053
16.565,-0.049
16.570,-0.044
16.575,-0.038
16.580,-0.030
16.585,-0.020
16.590,-0.012
16.595,-0.008
16.600,-0.010
16.605,-0.007
16.610,0.002
16.615,0.012
16.620,0.028
16.625,0.037
16.630,0.038
16.635,0.040
16.640,0.048
16.645,0.068
16.650,0.080
16.655,0.086
16.660,0.096
16.665,0.108
16.670,0.117
16.675,0.125
16.680,0.134
16.685,0.135
16.690,0.120
16.695,0.102
16.700,0.073
16.705,0.043
16.710,0.010
16.715,-0.030
16.720,-0.065
16.725,-0.090
16.730,-0.109
16.735,-0.127
16.740,-0.140
16.745,-0.148
16.750,-0.152
16.755,-0.150
16.760,-0.155
16.765,-0.161
16.770,-0.153
16.775,-0.143
16.780,-0.129
16.785,-0.116
16.790,-0.113
16.795,-0.105
16.800,-0.095
16.805,-0.094
16.810,-0.090
16.815,-0.085
16.820,-0.081
16.825,-0.076
16.830,-0.064
16.835,-0.058
16.840,-0.060
16.845,-0.055
16.850,-0.054
16.855,-0.052
16.860,-0.046
16.865,-0.044
16.870,-0.040
16.875,-0.038
16.880,-0.033
16.885,-0.027
16.890,-0.026
16.895,-0.021
16.900,-0.020
16.905,-0.021
16.910,-0.019
16.915,-0.020
16.920,-0.014
16.925,-0.014
16.930,-0.016
16.935,-0.008
16.940,0.007
16.945,0.029
16.950,0.043
16.955,0.058
16.960,0.082
16.965,0.097
16.970,0.102
16.975,0.092
16.980,0.079
16.985,0.086
16.990,0.114
16.995,0.133
17.000,0.120
17.005,0.101
17.010,0.086
17.015,0.068
17.020,0.052
17.025,0.031
17.030,0.014
17.035,0.001
17.040,-0.019
17.045,-0.038
17.050,-0.063
17.055,-0.082
17.060,-0.085
17.065,-0.076
17.070,-0.068
17.075,-0.072
17.080,-0.064
17.085,-0.053
17.090,-0.054
17.095,-0.052
17.100,-0.069
17.105,-0.120
17.110,-0.153
17.115,-0.130
17.120,-0.049
17.125,0.078
17.130,0.232
17.135,0.461
17.140,0.783
17.145,0.908
17.150,0.719
17.155,0.455
17.160,0.176
17.165,-0.020
17.170,-0.118
17.175,-0.201
17.180,-0.175
17.185,-0.110
17.190,-0.106
17.195,-0.104
17.200,-0.106
17.205,-0.127
17.210,-0.122
17.215,-0.102
17.220,-0.101
17.225,-0.105
17.230,-0.092
17.235,-0.083
17.240,-0.083
17.245,-0.071
17.250,-0.059
17.255,-0.052
17.260,-0.043
17.265,-0.031
17.270,-0.023
17.275,-0.023
17.280,-0.018
17.285,-0.012
17.290,-0.009
17.295,0.008
17.300,0.018
17.305,0.020
17.310,0.024
17.315,0.027
17.320,0.036
17.325,0.049
17.330,0.062
17.335,0.073
17.340,0.076
17.345,0.081
17.350,0.087
17.355,0.097
17.360,0.109
17.365,0.121
17.370,0.130
17.375,0.132
17.380,0.123
17.385,0.101
17.390,0.068
17.395,0.035
17.400,0.003
17.405,-0.028
17.410,-0.058
17.415,-0.090
17.420,-0.109
17.425,-0.124
17.430,-0.134
17.435,-0.141
17.440,-0.152
17.445,-0.152
17.450,-0.148
17.455,-0.144
17.460,-0.136
17.465,-0.132
17.470,-0.125
17.475,-0.121
17.480,-0.116
17.485,-0.106
17.490,-0.098
17.495,-0.090
17.500,-0.087
17.505,-0.084
17.510,-0.075
17.515,-0.069
17.520,-0.065
17.525,-0.062
17.530,-0.058
17.535,-0.051
17.540,-0.047
17.545,-0.046
17.550,-0.049
17.555,-0.049
17.560,-0.045
17.565,-0.043
17.570,-0.036
17.575,-0.032
17.580,-0.029
17.585,-0.026
17.590,-0.026
17.595,-0.020
17.600,-0.012
17.605,-0.006
17.610,-0.004
17.615,-0.008
17.620,-0.007
17.625,0.001
17.630,0.021
17.635,0.047
17.640,0.061
17.645,0.075
17.650,0.087
17.655,0.084
17.660,0.074
17.665,0.066
17.670,0.072
17.675,0.098
17.680,0.118
17.685,0.112
17.690,0.098
17.695,0.083
17.700,0.061
17.705,0.044
17.710,0.036
17.715,0.022
17.720,0.003
17.725,-0.017
17.730,-0.036
17.735,-0.057
17.740,-0.073
17.745,-0.075
17.750,-0.072
17.755,-0.068
17.760,-0.067
17.765,-0.067
17.770,-0.057
17.775,-0.052
17.780,-0.051
17.785,-0.059
17.790,-0.109
17.795,-0.151
17.800,-0.130
17.805,-0.050
17.810,0.079
17.815,0.225
17.820,0.436
17.825,0.760
17.830,0.912
17.835,0.745
17.840,0.484
17.845,0.204
17.850,-0.004
17.855,-0.114
17.860,-0.208
17.865,-0.199
17.870,-0.135
17.875,-0.122
17.880,-0.114
17.885,-0.106
17.890,-0.123
17.895,-0.123
17.900,-0.104
17.905,-0.101
17.910,-0.102
17.915,-0.088
17.920,-0.077
17.925,-0.077
17.930,-0.066
17.935,-0.050
17.940,-0.047
17.945,-0.040
17.950,-0.029
17.955,-0.020
17.960,-0.013
17.965,-0.009
17.970,-0.002
17.975,0.005
17.980,0.010
17.985,0.015
17.990,0.016
17.995,0.024
18.000,0.034
18.005,0.042
18.010,0.053
18.015,0.066
18.020,0.090
18.025,0.104
18.030,0.098
18.035,0.094
18.040,0.097
18.045,0.113
18.050,0.128
18.055,0.139
18.060,0.143
18.065,0.122
18.070,0.092
18.075,0.062
18.080,0.030
18.085,-0.002
18.090,-0.042
18.095,-0.072
18.100,-0.093
18.105,-0.120
18.110,-0.141
18.115,-0.152
18.120,-0.155
18.125,-0.154
18.130,-0.152
18.135,-0.155
18.140,-0.156
18.145,-0.149
18.150,-0.145
18.155,-0.142
18.160,-0.138
18.165,-0.133
18.170,-0.118
18.175,-0.108
18.180,-0.102
18.185,-0.093
18.190,-0.084
18.195,-0.075
18.200,-0.072
18.205,-0.069
18.210,-0.064
18.215,-0.057
18.220,-0.047
18.225,-0.047
18.230,-0.044
18.235,-0.045
18.240,-0.047
18.245,-0.036
18.250,-0.033
18.255,-0.035
18.260,-0.030
18.265,-0.024
18.270,-0.024
18.275,-0.027
18.280,-0.023
18.285,-0.017
18.290,-0.009
18.295,-0.005
18.300,-0.017
18.305,-0.024
18.310,-0.016
18.315,-0.009
18.320,0.008
18.325,0.031
18.330,0.055
18.335,0.076
18.340,0.091
18.345,0.092
18.350,0.076
18.355,0.067
18.360,0.065
18.365,0.081
18.370,0.115
18.375,0.119
18.380,0.094
18.385,0.074
18.390,0.055
18.395,0.046
18.400,0.041
18.405,0.029
18.410,0.015
18.415,0.000
18.420,-0.016
18.425,-0.041
18.430,-0.061
18.435,-0.066
18.440,-0.066
18.445,-0.056
18.450,-0.060
18.455,-0.068
18.460,-0.058
18.465,-0.050
18.470,-0.046
18.475,-0.050
18.480,-0.078
18.485,-0.128
18.490,-0.139
18.495,-0.078
18.500,0.033
18.505,0.178
18.510,0.352
18.515,0.628
18.520,0.877
18.525,0.822
18.530,0.578
18.535,0.311
18.540,0.060
18.545,-0.081
18.550,-0.179
18.555,-0.215
18.560,-0.150
18.565,-0.108
18.570,-0.105
18.575,-0.099
18.580,-0.109
18.585,-0.124
18.590,-0.113
18.595,-0.098
18.600,-0.103
18.605,-0.095
18.610,-0.076
18.615,-0.074
18.620,-0.070
18.625,-0.058
18.630,-0.051
18.635,-0.050
18.640,-0.043
18.645,-0.032
18.650,-0.025
18.655,-0.017
18.660,-0.010
18.665,-0.010
18.670,-0.004
18.675,0.005
18.680,0.014
18.685,0.024
18.690,0.032
18.695,0.043
18.700,0.049
18.705,0.059
18.710,0.068
18.715,0.072
18.720,0.084
18.725,0.097
18.730,0.109
18.735,0.118
18.740,0.124
18.745,0.133
18.750,0.139
18.755,0.133
18.760,0.120
18.765,0.093
18.770,0.056
18.775,0.018
18.780,-0.017
18.785,-0.049
18.790,-0.080
18.795,-0.101
18.800,-0.119
18.805,-0.137
18.810,-0.146
18.815,-0.152
18.820,-0.155
18.825,-0.154
18.830,-0.149
18.835,-0.139
18.840,-0.134
18.845,-0.129
18.850,-0.121
18.855,-0.114
18.860,-0.105
18.865,-0.101
18.870,-0.099
18.875,-0.092
18.880,-0.085
18.885,-0.082
18.890,-0.076
18.895,-0.069
18.900,-0.066
18.905,-0.064
18.910,-0.060
18.915,-0.053
18.920,-0.043
18.925,-0.040
18.930,-0.042
18.935,-0.037
18.940,-0.033
18.945,-0.026
18.950,-0.024
18.955,-0.032
18.960,-0.036
18.965,-0.038
18.970,-0.032
18.975,-0.022
18.980,-0.008
18.985,0.001
18.990,-0.003
18.995,-0.001
19.000,-0.001
19.005,-0.008
19.010,-0.008
19.015,0.000
19.020,0.022
19.025,0.050
19.030,0.070
19.035,0.087
19.040,0.088
19.045,0.074
19.050,0.068
19.055,0.078
19.060,0.105
19.065,0.126
19.070,0.118
19.075,0.097
19.080,0.081
19.085,0.062
19.090,0.047
19.095,0.045
19.100,0.038
19.105,0.017
19.110,-0.007
19.115,-0.034
19.120,-0.060
19.125,-0.085
19.130,-0.098
19.135,-0.087
19.140,-0.071
19.145,-0.064
19.150,-0.063
19.155,-0.055
19.160,-0.048
19.165,-0.048
19.170,-0.047
19.175,-0.075
19.180,-0.125
19.185,-0.127
19.190,-0.064
19.195,0.035
19.200,0.141
19.205,0.299
19.210,0.597
19.215,0.868
19.220,0.826
19.225,0.571
19.230,0.299
19.235,0.068
19.240,-0.062
19.245,-0.150
19.250,-0.192
19.255,-0.146
19.260,-0.108
19.265,-0.107
19.270,-0.097
19.275,-0.106
19.280,-0.127
19.285,-0.115
19.290,-0.103
19.295,-0.105
19.300,-0.093
19.305,-0.073
19.310,-0.076
19.315,-0.084
19.320,-0.076
19.325,-0.066
19.330,-0.056
19.335,-0.044
19.340,-0.033
19.345,-0.025
19.350,-0.017
19.355,-0.008
19.360,-0.010
19.365,-0.011
19.370,0.001
19.375,0.013
19.380,0.027
19.385,0.040
19.390,0.047
19.395,0.057
19.400,0.063
19.405,0.067
19.410,0.082
19.415,0.099
19.420,0.109
19.425,0.109
19.430,0.115
19.435,0.128
19.440,0.134
19.445,0.137
19.450,0.131
19.455,0.122
19.460,0.103
19.465,0.061
19.470,0.020
19.475,-0.012
19.480,-0.041
19.485,-0.071
19.490,-0.104
19.495,-0.121
19.500,-0.136
19.505,-0.156
19.510,-0.168
19.515,-0.167
19.520,-0.162
19.525,-0.159
19.530,-0.148
19.535,-0.131
19.540,-0.126
19.545,-0.128
19.550,-0.128
19.555,-0.123
19.560,-0.112
19.565,-0.108
19.570,-0.100
19.575,-0.093
19.580,-0.101
19.585,-0.103
19.590,-0.093
19.595,-0.075
19.600,-0.065
19.605,-0.059
19.610,-0.050
19.615,-0.047
19.620,-0.045
19.625,-0.043
19.630,-0.039
19.635,-0.035
19.640,-0.035
19.645,-0.031
19.650,-0.025
19.655,-0.018
19.660,-0.015
19.665,-0.026
19.670,-0.031
19.675,-0.030
19.680,-0.024
19.685,-0.017
19.690,-0.018
19.695,-0.013
19.700,-0.005
19.705,0.007
19.710,0.033
19.715,0.062
19.720,0.074
19.725,0.080
19.730,0.090
19.735,0.088
19.740,0.074
19.745,0.063
19.750,0.066
19.755,0.097
19.760,0.123
19.765,0.117
19.770,0.107
19.775,0.086
19.780,0.051
19.785,0.033
19.790,0.023
19.795,0.014
19.800,-0.001
19.805,-0.024
19.810,-0.037
19.815,-0.045
19.820,-0.057
19.825,-0.077
19.830,-0.081
19.835,-0.076
19.840,-0.078
19.845,-0.066
19.850,-0.053
19.855,-0.048
19.860,-0.042
19.865,-0.058
19.870,-0.106
19.875,-0.145
19.880,-0.123
19.885,-0.035
19.890,0.101
19.895,0.260
19.900,0.495
19.905,0.847
19.910,0.991
19.915,0.776
19.920,0.478
19.925,0.174
19.930,-0.044
19.935,-0.178
19.940,-0.279
19.945,-0.233
19.950,-0.153
19.955,-0.138
19.960,-0.129
19.965,-0.126
19.970,-0.136
19.975,-0.134
19.980,-0.111
19.985,-0.098
19.990,-0.104
19.995,-0.096
20.000,-0.092
20.005,-0.101
20.010,-0.087
20.015,-0.059
20.020,-0.034
20.025,-0.031
20.030,-0.041
20.035,-0.042
20.040,-0.038
20.045,-0.018
20.050,-0.002
20.055,-0.003
20.060,-0.002
20.065,-0.002
20.070,-0.001
20.075,0.005
20.080,0.020
20.085,0.039
20.090,0.055
20.095,0.066
20.100,0.068
20.105,0.082
20.110,0.109
20.115,0.126
20.120,0.132
20.125,0.133
20.130,0.140
20.135,0.150
20.140,0.143
20.145,0.129
20.150,0.106
20.155,0.075
20.160,0.042
20.165,-0.001
20.170,-0.041
20.175,-0.076
20.180,-0.101
20.185,-0.116
20.190,-0.140
20.195,-0.156
20.200,-0.161
20.205,-0.163
20.210,-0.159
20.215,-0.164
20.220,-0.167
20.225,-0.163
20.230,-0.157
20.235,-0.144
20.240,-0.133
20.245,-0.131
20.250,-0.123
20.255,-0.105
20.260,-0.093
20.265,-0.087
20.270,-0.077
20.275,-0.068
20.280,-0.065
20.285,-0.078
20.290,-0.086
20.295,-0.062
20.300,-0.046
20.305,-0.050
20.310,-0.052
20.315,-0.044
20.320,-0.023
20.325,-0.011
20.330,-0.005
20.335,-0.005
20.340,-0.017
20.345,-0.026
20.350,-0.036
20.355,-0.030
20.360,-0.015
20.365,-0.012
20.370,-0.009
20.375,-0.012
20.380,-0.009
20.385,0.005
20.390,0.016
20.395,0.018
20.400,0.016
20.405,0.036
20.410,0.065
20.415,0.076
20.420,0.090
20.425,0.098
20.430,0.089
20.435,0.700
20.440,1.714
20.445,2.023
20.450,1.913
20.455,1.689
20.460,1.565
20.465,1.671
20.470,1.513
20.475,1.334
20.480,1.383
20.485,1.313
20.490,1.152
20.495,1.131
20.500,1.103
20.505,0.983
20.510,0.921
20.515,0.899
20.520,0.817
20.525,0.742
20.530,0.712
20.535,0.656
20.540,0.586
20.545,0.546
20.550,0.503
20.555,0.444
20.560,0.400
20.565,0.363
20.570,0.315
20.575,0.271
20.580,0.236
20.585,0.198
20.590,0.158
20.595,0.125
20.600,0.092
20.605,0.057
20.610,0.026
20.615,-0.002
20.620,-0.031
20.625,-0.059
20.630,-0.084
20.635,-0.109
20.640,-0.133
20.645,-0.155
20.650,-0.176
20.655,-0.197
20.660,-0.216
20.665,-0.234
20.670,-0.251
20.675,-0.267
20.680,-0.282
20.685,-0.297
20.690,-0.310
20.695,-0.322
20.700,-0.334
20.705,-0.345
20.710,-0.355
20.715,-0.364
20.720,-0.372
20.725,-0.380
20.730,-0.387
20.735,-0.393
20.740,-0.399
20.745,-0.404
20.750,-0.408
20.755,-0.412
20.760,-0.415
20.765,-0.418
20.770,-0.420
20.775,-0.421
20.780,-0.423
20.785,-0.423
20.790,-0.424
20.795,-0.423
20.800,-0.423
20.805,-0.422
20.810,-0.420
20.815,-0.419
20.820,-0.417
20.825,-0.414
20.830,-0.412
20.835,-0.409
20.840,-0.405
20.845,-0.402
20.850,-0.398
20.855,-0.394
20.860,-0.390
20.865,-0.386
20.870,-0.381
20.875,-0.376
20.880,-0.372
20.885,-0.366
20.890,-0.361
20.895,-0.356
20.900,-0.350
20.905,-0.345
20.910,-0.339
20.915,-0.334
20.920,-0.328
20.925,-0.322
20.930,-0.316
20.935,-0.310
20.940,-0.304
20.945,-0.298
20.950,-0.292
20.955,-0.286
20.960,-0.279
20.965,-0.273
20.970,-0.267
20.975,-0.261
20.980,-0.255
20.985,-0.249
20.990,-0.243
20.995,-0.237
21.000,-0.231
21.005,-0.225
21.010,-0.219
21.015,-0.213
21.020,-0.207
21.025,-0.201
21.030,-0.203
21.035,-0.214
21.040,-0.203
21.045,-0.177
21.050,-0.188
21.055,-0.189
21.060,-0.163
21.065,-0.209
21.070,-0.231
21.075,-0.169
21.080,-0.185
21.085,-0.268
21.090,-0.241
21.095,-0.134
21.100,-0.274
21.105,-0.326
21.110,-0.122
21.115,-0.267
21.120,-0.354
21.125,-0.189
21.130,-0.191
21.135,-0.266
21.140,-0.279
21.145,-0.131
21.150,-0.213
21.155,-0.279
21.160,-0.091
21.165,-0.283
21.170,-0.372
21.175,-0.202
21.180,-0.199
21.185,-0.325
21.190,-0.377
21.195,-0.113
21.200,-0.323
21.205,-0.470
21.210,-0.085
21.215,-0.324
21.220,-0.414
21.225,-0.201
21.230,-0.209
21.235,-0.285
21.240,-0.408
21.245,-0.109
21.250,-0.283
21.255,-0.457
21.260,-0.056
21.265,-0.262
21.270,-0.241
21.275,-0.111
21.280,-0.135
21.285,-0.891
21.290,-3.074
21.295,-3.935
21.300,-2.995
21.305,-2.491
21.310,-2.923
21.315,-2.863
21.320,-2.199
21.325,-2.286
21.330,-2.425
21.335,-1.974
21.340,-1.828
21.345,-1.950
21.350,-1.712
21.355,-1.484
21.360,-1.518
21.365,-1.413
21.370,-1.200
21.375,-1.154
21.380,-1.103
21.385,-0.941
21.390,-0.850
21.395,-0.809
21.400,-0.696
21.405,-0.593
21.410,-0.544
21.415,-0.465
21.420,-0.370
21.425,-0.311
21.430,-0.251
21.435,-0.172
21.440,-0.110
21.445,-0.059
21.450,0.005
21.455,0.063
21.460,0.110
21.465,0.161
21.470,0.213
21.475,0.256
21.480,0.298
21.485,0.343
21.490,0.381
21.495,0.417
21.500,0.453
21.505,0.487
21.510,0.517
21.515,0.546
21.520,0.575
21.525,0.600
21.530,0.624
21.535,0.647
21.540,0.667
21.545,0.686
21.550,0.704
21.555,0.721
21.560,0.735
21.565,0.749
21.570,0.761
21.575,0.772
21.580,0.782
21.585,0.790
21.590,0.798
21.595,0.804
21.600,0.809
21.605,0.813
21.610,0.816
21.615,0.819
21.620,0.820
21.625,0.820
21.630,0.820
21.635,0.819
21.640,0.817
21.645,0.815
21.650,0.811
21.655,0.807
21.660,0.803
21.665,0.798
21.670,0.792
21.675,0.786
21.680,0.779
21.685,0.772
21.690,0.764
21.695,0.756
21.700,0.747
21.705,0.739
21.710,0.729
21.715,0.720
21.720,0.710
21.725,0.700
21.730,0.690
21.735,0.679
21.740,0.669
21.745,0.658
21.750,0.647
21.755,0.635
21.760,0.624
21.765,0.612
21.770,0.601
21.775,0.589
21.780,0.577
21.785,0.566
21.790,0.554
21.795,0.542
21.800,0.530
21.805,0.518
21.810,0.506
21.815,0.494
21.820,0.482
21.825,0.471
21.830,0.459
21.835,0.447
21.840,0.435
21.845,0.424
21.850,0.413
21.855,0.401
21.860,0.390
21.865,0.379
21.870,0.368
21.875,0.357
21.880,0.346
21.885,0.335
21.890,0.325
21.895,0.314
21.900,0.304
21.905,0.294
21.910,0.284
21.915,0.274
21.920,0.265
21.925,0.255
21.930,0.246
21.935,0.237
21.940,0.228
21.945,0.219
21.950,0.210
21.955,0.202
21.960,0.193
21.965,0.185
21.970,0.177
21.975,0.169
21.980,0.162
21.985,0.154
21.990,0.147
21.995,0.140
22.000,0.133
22.005,0.126
22.010,0.120
22.015,0.113
22.020,0.107
22.025,0.101
22.030,0.095
22.035,0.089
22.040,0.084
22.045,0.078
22.050,0.073
22.055,0.068
22.060,0.063
22.065,0.058
22.070,0.053
22.075,0.049
22.080,0.044
22.085,0.040
22.090,0.036
22.095,0.032
22.100,0.028
22.105,0.025
22.110,0.021
22.115,0.018
22.120,0.015
22.125,0.011
22.130,0.008
22.135,0.006
22.140,0.003
22.145,0.000
22.150,-0.002
22.155,-0.005
22.160,-0.007
22.165,-0.009
22.170,-0.011
22.175,-0.013
22.180,-0.015
22.185,-0.017
22.190,-0.019
22.195,-0.020
22.200,-0.022
22.205,-0.023
22.210,-0.025
22.215,-0.026
22.220,-0.027
22.225,-0.028
22.230,-0.029
22.235,-0.030
22.240,-0.031
22.245,-0.032
22.250,-0.033
22.255,-0.033
22.260,-0.034
22.265,-0.035
22.270,-0.035
22.275,-0.036
22.280,-0.036
22.285,-0.036
22.290,-0.037
22.295,-0.037
22.300,-0.037
22.305,-0.037
22.310,-0.037
22.315,-0.037
22.320,-0.037
22.325,-0.037
22.330,-0.037
22.335,-0.037
22.340,-0.037
22.345,-0.037
22.350,-0.034
22.355,-0.011
22.360,0.019
22.365,0.028
22.370,0.049
22.375,0.081
22.380,0.097
22.385,0.114
22.390,0.135
22.395,0.152
22.400,0.164
22.405,0.179
22.410,0.197
22.415,0.209
22.420,0.218
22.425,0.221
22.430,0.219
22.435,0.227
22.440,0.239
22.445,0.250
22.450,0.253
22.455,0.255
22.460,0.267
22.465,0.268
22.470,0.266
22.475,0.265
22.480,0.262
22.485,0.267
22.490,0.284
22.495,0.311
22.500,0.328
22.505,0.339
22.510,0.354
22.515,0.352
22.520,0.339
22.525,0.323
22.530,0.314
22.535,0.336
22.540,0.359
22.545,0.353
22.550,0.325
22.555,0.292
22.560,0.265
22.565,0.246
22.570,0.227
22.575,0.203
22.580,0.185
22.585,0.170
22.590,0.139
22.595,0.102
22.600,0.076
22.605,0.066
22.610,0.072
22.615,0.074
22.620,0.067
22.625,0.057
22.630,0.051
22.635,0.053
22.640,0.054
22.645,0.046
22.650,0.002
22.655,-0.062
22.660,-0.073
22.665,-0.024
22.670,0.080
22.675,0.216
22.680,0.389
22.685,0.676
22.690,0.934
22.695,0.880
22.700,0.594
22.705,0.290
22.710,0.051
22.715,-0.063
22.720,-0.151
22.725,-0.221
22.730,-0.186
22.735,-0.145
22.740,-0.146
22.745,-0.142
22.750,-0.153
22.755,-0.172
22.760,-0.161
22.765,-0.147
22.770,-0.149
22.775,-0.145
22.780,-0.131
22.785,-0.131
22.790,-0.135
22.795,-0.123
22.800,-0.120
22.805,-0.120
22.810,-0.109
22.815,-0.111
22.820,-0.116
22.825,-0.111
22.830,-0.106
22.835,-0.099
22.840,-0.090
22.845,-0.084
22.850,-0.085
22.855,-0.083
22.860,-0.073
22.865,-0.065
22.870,-0.055
22.875,-0.044
22.880,-0.030
22.885,-0.011
22.890,-0.004
22.895,0.003
22.900,0.012
22.905,0.022
22.910,0.036
22.915,0.042
22.920,0.040
22.925,0.028
22.930,0.005
22.935,-0.027
22.940,-0.067
22.945,-0.111
22.950,-0.151
22.955,-0.188
22.960,-0.220
22.965,-0.250
22.970,-0.275
22.975,-0.292
22.980,-0.298
22.985,-0.301
22.990,-0.301
22.995,-0.296
23.000,-0.294
23.005,-0.294
23.010,-0.288
23.015,-0.281
23.020,-0.271
23.025,-0.264
23.030,-0.254
23.035,-0.242
23.040,-0.234
23.045,-0.228
23.050,-0.225
23.055,-0.221
23.060,-0.212
23.065,-0.204
23.070,-0.197
23.075,-0.188
23.080,-0.181
23.085,-0.176
23.090,-0.175
23.095,-0.169
23.100,-0.162
23.105,-0.157
23.110,-0.150
23.115,-0.146
23.120,-0.136
23.125,-0.133
23.130,-0.143
23.135,-0.142
23.140,-0.135
23.145,-0.122
23.150,-0.113
23.155,-0.112
23.160,-0.107
23.165,-0.103
23.170,-0.100
23.175,-0.100
23.180,-0.103
23.185,-0.101
23.190,-0.099
23.195,-0.087
23.200,-0.079
23.205,-0.081
23.210,-0.069
23.215,-0.046
23.220,-0.021
23.225,0.001
23.230,0.020
23.235,0.029
23.240,0.022
23.245,0.013
23.250,0.009
23.255,0.026
23.260,0.058
23.265,0.063
23.270,0.048
23.275,0.034
23.280,0.014
23.285,-0.007
23.290,-0.026
23.295,-0.038
23.300,-0.047
23.305,-0.059
23.310,-0.075
23.315,-0.103
23.320,-0.121
23.325,-0.126
23.330,-0.129
23.335,-0.119
23.340,-0.116
23.345,-0.115
23.350,-0.104
23.355,-0.101
23.360,-0.098
23.365,-0.091
23.370,-0.104
23.375,-0.160
23.380,-0.198
23.385,-0.164
23.390,-0.080
23.395,0.053
23.400,0.212
23.405,0.446
23.410,0.771
23.415,0.869
23.420,0.652
23.425,0.376
23.430,0.105
23.435,-0.066
23.440,-0.152
23.445,-0.239
23.450,-0.222
23.455,-0.158
23.460,-0.149
23.465,-0.151
23.470,-0.153
23.475,-0.168
23.480,-0.159
23.485,-0.134
23.490,-0.134
23.495,-0.128
23.500,-0.107
23.505,-0.102
23.510,-0.102
23.515,-0.091
23.520,-0.075
23.525,-0.064
23.530,-0.060
23.535,-0.058
23.540,-0.057
23.545,-0.049
23.550,-0.039
23.555,-0.033
23.560,-0.027
23.565,-0.021
23.570,-0.008
23.575,0.004
23.580,0.012
23.585,0.021
23.590,0.031
23.595,0.049
23.600,0.064
23.605,0.075
23.610,0.085
23.615,0.094
23.620,0.103
23.625,0.109
23.630,0.121
23.635,0.133
23.640,0.134
23.645,0.135
23.650,0.124
23.655,0.100
23.660,0.069
23.665,0.025
23.670,-0.015
23.675,-0.054
23.680,-0.089
23.685,-0.115
23.690,-0.139
23.695,-0.160
23.700,-0.179
23.705,-0.192
23.710,-0.196
23.715,-0.197
23.720,-0.190
23.725,-0.186
23.730,-0.182
23.735,-0.171
23.740,-0.162
23.745,-0.149
23.750,-0.140
23.755,-0.136
23.760,-0.130
23.765,-0.125
23.770,-0.113
23.775,-0.101
23.780,-0.096
23.785,-0.095
23.790,-0.096
23.795,-0.085
23.800,-0.075
23.805,-0.072
23.810,-0.072
23.815,-0.074
23.820,-0.067
23.825,-0.059
23.830,-0.056
23.835,-0.051
23.840,-0.048
23.845,-0.044
23.850,-0.039
23.855,-0.038
23.860,-0.037
23.865,-0.037
23.870,-0.034
23.875,-0.029
23.880,-0.024
23.885,-0.019
23.890,-0.016
23.895,-0.011
23.900,-0.014
23.905,-0.017
23.910,-0.008
23.915,-0.004
23.920,-0.008
23.925,-0.009
23.930,-0.005
23.935,0.007
23.940,0.020
23.945,0.033
23.950,0.052
23.955,0.076
23.960,0.095
23.965,0.094
23.970,0.087
23.975,0.083
23.980,0.090
23.985,0.119
23.990,0.142
23.995,0.137
24.000,0.115
24.005,0.090
24.010,0.069
24.015,0.050
24.020,0.036
24.025,0.020
24.030,0.006
24.035,-0.008
24.040,-0.035
24.045,-0.060
24.050,-0.073
24.055,-0.078
24.060,-0.069
24.065,-0.059
24.070,-0.062
24.075,-0.066
24.080,-0.061
24.085,-0.054
24.090,-0.048
24.095,-0.041
24.100,-0.074
24.105,-0.131
24.110,-0.133
24.115,-0.082
24.120,0.012
24.125,0.143
24.130,0.319
24.135,0.606
24.140,0.868
24.145,0.822
24.150,0.563
24.155,0.290
24.160,0.054
24.165,-0.077
24.170,-0.168
24.175,-0.217
24.180,-0.165
24.185,-0.122
24.190,-0.123
24.195,-0.117
24.200,-0.123
24.205,-0.138
24.210,-0.120
24.215,-0.105
24.220,-0.108
24.225,-0.098
24.230,-0.083
24.235,-0.078
24.240,-0.075
24.245,-0.063
24.250,-0.053
24.255,-0.043
24.260,-0.031
24.265,-0.031
24.270,-0.030
24.275,-0.025
24.280,-0.017
24.285,-0.006
24.290,-0.001
24.295,0.009
24.300,0.018
24.305,0.025
24.310,0.037
24.315,0.042
24.320,0.049
24.325,0.061
24.330,0.076
24.335,0.092
24.340,0.098
24.345,0.107
24.350,0.118
24.355,0.133
24.360,0.148
24.365,0.154
24.370,0.156
24.375,0.149
24.380,0.128
24.385,0.101
24.390,0.068
24.395,0.032
24.400,-0.016
24.405,-0.060
24.410,-0.087
24.415,-0.112
24.420,-0.136
24.425,-0.153
24.430,-0.160
24.435,-0.164
24.440,-0.177
24.445,-0.185
24.450,-0.186
24.455,-0.184
24.460,-0.172
24.465,-0.158
24.470,-0.143
24.475,-0.132
24.480,-0.132
24.485,-0.134
24.490,-0.138
24.495,-0.131
24.500,-0.113
24.505,-0.099
24.510,-0.087
24.515,-0.082
24.520,-0.081
24.525,-0.077
24.530,-0.074
24.535,-0.064
24.540,-0.055
24.545,-0.053
24.550,-0.056
24.555,-0.062
24.560,-0.062
24.565,-0.058
24.570,-0.047
24.575,-0.031
24.580,-0.021
24.585,-0.018
24.590,-0.016
24.595,-0.012
24.600,-0.020
24.605,-0.031
24.610,-0.026
24.615,-0.016
24.620,-0.004
24.625,-0.004
24.630,-0.014
24.635,-0.005
24.640,0.001
24.645,-0.005
24.650,-0.002
24.655,0.007
24.660,0.030
24.665,0.054
24.670,0.070
24.675,0.088
24.680,0.104
24.685,0.103
24.690,0.085
24.695,0.075
24.700,0.085
24.705,0.120
24.710,0.153
24.715,0.150
24.720,0.133
24.725,0.113
24.730,0.086
24.735,0.058
24.740,0.033
24.745,0.020
24.750,0.008
24.755,-0.009
24.760,-0.034
24.765,-0.066
24.770,-0.071
24.775,-0.053
24.780,-0.044
24.785,-0.051
24.790,-0.069
24.795,-0.074
24.800,-0.061
24.805,-0.049
24.810,-0.042
24.815,-0.044
24.820,-0.086
24.825,-0.143
24.830,-0.134
24.835,-0.054
24.840,0.068
24.845,0.212
24.850,0.397
24.855,0.722
24.860,1.005
24.865,0.923
24.870,0.616
24.875,0.296
24.880,0.018
24.885,-0.146
24.890,-0.258
24.895,-0.280
24.900,-0.204
24.905,-0.165
24.910,-0.149
24.915,-0.123
24.920,-0.123
24.925,-0.145
24.930,-0.138
24.935,-0.112
24.940,-0.114
24.945,-0.114
24.950,-0.099
24.955,-0.096
24.960,-0.092
24.965,-0.074
24.970,-0.058
24.975,-0.051
24.980,-0.043
24.985,-0.040
24.990,-0.041
24.995,-0.027
25.000,-0.014
25.005,-0.017
25.010,-0.021
25.015,-0.019
25.020,0.002
25.025,0.022
25.030,0.254
25.035,1.164
25.040,1.959
25.045,1.925
25.050,1.746
25.055,1.557
25.060,1.537
25.065,1.587
25.070,1.355
25.075,1.281
25.080,1.327
25.085,1.186
25.090,1.073
25.095,1.081
25.100,1.008
25.105,0.896
25.110,0.867
25.115,0.826
25.120,0.735
25.125,0.684
25.130,0.652
25.135,0.584
25.140,0.526
25.145,0.492
25.150,0.442
25.155,0.387
25.160,0.350
25.165,0.311
25.170,0.263
25.175,0.225
25.180,0.191
25.185,0.152
25.190,0.115
25.195,0.085
25.200,0.052
25.205,0.019
25.210,-0.009
25.215,-0.037
25.220,-0.065
25.225,-0.091
25.230,-0.114
25.235,-0.138
25.240,-0.161
25.245,-0.181
25.250,-0.201
25.255,-0.221
25.260,-0.238
25.265,-0.255
25.270,-0.271
25.275,-0.286
25.280,-0.300
25.285,-0.313
25.290,-0.326
25.295,-0.337
25.300,-0.347
25.305,-0.357
25.310,-0.366
25.315,-0.374
25.320,-0.382
25.325,-0.389
25.330,-0.395
25.335,-0.400
25.340,-0.405
25.345,-0.409
25.350,-0.413
25.355,-0.416
25.360,-0.419
25.365,-0.421
25.370,-0.422
25.375,-0.423
25.380,-0.424
25.385,-0.424
25.390,-0.424
25.395,-0.423
25.400,-0.422
25.405,-0.421
25.410,-0.419
25.415,-0.417
25.420,-0.414
25.425,-0.412
25.430,-0.409
25.435,-0.405
25.440,-0.402
25.445,-0.398
25.450,-0.394
25.455,-0.390
25.460,-0.385
25.465,-0.381
25.470,-0.376
25.475,-0.371
25.480,-0.366
25.485,-0.361
25.490,-0.355
25.495,-0.350
25.500,-0.344
25.505,-0.339
25.510,-0.333
25.515,-0.327
25.520,-0.321
25.525,-0.315
25.530,-0.309
25.535,-0.303
25.540,-0.297
25.545,-0.291
25.550,-0.285
25.555,-0.278
25.560,-0.272
25.565,-0.266
25.570,-0.260
25.575,-0.254
25.580,-0.248
25.585,-0.242
25.590,-0.236
25.595,-0.230
25.600,-0.224
25.605,-0.218
25.610,-0.212
25.615,-0.206
25.620,-0.200
25.625,-0.194
25.630,-0.193
25.635,-0.197
25.640,-0.188
25.645,-0.171
25.650,-0.200
25.655,-0.206
25.660,-0.157
25.665,-0.208
25.670,-0.230
25.675,-0.156
25.680,-0.190
25.685,-0.252
25.690,-0.210
25.695,-0.138
25.700,-0.264
25.705,-0.310
25.710,-0.122
25.715,-0.251
25.720,-0.317
25.725,-0.149
25.730,-0.208
25.735,-0.323
25.740,-0.306
25.745,-0.133
25.750,-0.260
25.755,-0.349
25.760,-0.093
25.765,-0.249
25.770,-0.297
25.775,-0.137
25.780,-0.209
25.785,-0.266
25.790,-0.304
25.795,-0.121
25.800,-0.217
25.805,-0.330
25.810,-0.051
25.815,-0.245
25.820,-0.297
25.825,-0.127
25.830,-0.200
25.835,-0.231
25.840,-0.302
25.845,-0.093
25.850,-0.254
25.855,-0.433
25.860,-0.034
25.865,-0.282
25.870,-0.368
25.875,-0.126
25.880,-0.202
25.885,-0.225
25.890,-0.336
25.895,-0.072
25.900,-0.162
25.905,-0.367
25.910,0.003
25.915,-0.211
25.920,-0.211
25.925,-0.049
25.930,-0.180
25.935,-0.145
25.940,-0.300
25.945,-0.027
25.950,-0.116
25.955,-0.352
25.960,0.058
25.965,-0.178
25.970,-0.171
25.975,-0.006
25.980,-0.130
25.985,-0.059
25.990,-0.270
25.995,0.011
26.000,-0.037
26.005,-0.275
26.010,0.123
26.015,-0.100
26.020,-0.065
26.025,0.032
26.030,-0.109
26.035,0.019
26.040,-0.200
26.045,0.056
26.050,0.029
26.055,-0.190
26.060,0.177
26.065,-0.089
26.070,-0.065
26.075,0.054
26.080,-0.050
26.085,0.128
26.090,-0.115
26.095,0.093
26.100,0.106
26.105,-0.110
26.110,0.221
26.115,0.013
26.120,0.062
26.125,0.108
26.130,-0.005
26.135,0.206
26.140,-0.048
26.145,0.127
26.150,0.117
26.155,-0.110
26.160,0.227
26.165,-0.007
26.170,-0.008
26.175,0.082
26.180,-0.012
26.185,0.171
26.190,-0.035
26.195,0.147
26.200,0.134
26.205,-0.088
26.210,0.215
26.215,0.007
26.220,0.016
26.225,0.083
26.230,-0.008
26.235,0.199
26.240,0.012
26.245,0.242
26.250,0.409
26.255,0.213
26.260,0.329
26.265,0.100
26.270,0.126
26.275,0.111
26.280,-0.032
26.285,0.124
26.290,-0.028
26.295,0.160
26.300,0.103
26.305,-0.110
26.310,0.200
26.315,0.031
26.320,0.046
26.325,0.093
26.330,-0.026
26.335,0.139
26.340,-0.030
26.345,0.096
26.350,0.074
26.355,-0.097
26.360,0.184
26.365,0.040
26.370,0.065
26.375,0.090
26.380,-0.013
26.385,0.156
26.390,-0.029
26.395,0.100
26.400,0.107
26.405,-0.081
26.410,0.182
26.415,0.101
26.420,0.141
26.425,0.122
26.430,0.073
26.435,0.302
26.440,0.056
26.445,0.160
26.450,0.188
26.455,-0.048
26.460,-1.032
26.465,-1.915
26.470,-1.489
26.475,-2.641
26.480,-2.662
26.485,-1.067
26.490,-1.894
26.495,-2.355
26.500,-1.239
26.505,-1.328
26.510,-1.863
26.515,-1.305
26.520,-1.021
26.525,-1.382
26.530,-1.206
26.535,-0.856
26.540,-0.995
26.545,-1.003
26.550,-0.730
26.555,-0.710
26.560,-0.763
26.565,-0.598
26.570,-0.503
26.575,-0.533
26.580,-0.449
26.585,-0.341
26.590,-0.333
26.595,-0.294
26.600,-0.204
26.605,-0.168
26.610,-0.145
26.615,-0.079
26.620,-0.032
26.625,-0.009
26.630,0.036
26.635,0.083
26.640,0.108
26.645,0.140
26.650,0.181
26.655,0.208
26.660,0.233
26.665,0.265
26.670,0.292
26.675,0.313
26.680,0.338
26.685,0.362
26.690,0.380
26.695,0.399
26.700,0.419
26.705,0.436
26.710,0.451
26.715,0.466
26.720,0.480
26.725,0.492
26.730,0.503
26.735,0.514
26.740,0.523
26.745,0.532
26.750,0.540
26.755,0.547
26.760,0.553
26.765,0.558
26.770,0.562
26.775,0.566
26.780,0.569
26.785,0.571
26.790,0.573
26.795,0.574
26.800,0.574
26.805,0.574
26.810,0.573
26.815,0.572
26.820,0.570
26.825,0.568
26.830,0.565
26.835,0.562
26.840,0.559
26.845,0.555
26.850,0.550
26.855,0.546
26.860,0.541
26.865,0.535
26.870,0.530
26.875,0.524
26.880,0.518
26.885,0.511
26.890,0.505
26.895,0.498
26.900,0.491
26.905,0.483
26.910,0.476
26.915,0.469
26.920,0.461
26.925,0.453
26.930,0.445
26.935,0.437
26.940,0.429
26.945,0.421
26.950,0.413
26.955,0.405
26.960,0.397
26.965,0.388
26.970,0.380
26.975,0.372
26.980,0.363
26.985,0.355
26.990,0.347
26.995,0.338
27.000,0.330
27.005,0.322
27.010,0.314
27.015,0.306
27.020,0.297
27.025,0.289
27.030,0.282
27.035,0.274
27.040,0.266
27.045,0.258
27.050,0.250
27.055,0.243
27.060,0.235
27.065,0.228
27.070,0.221
27.075,0.214
27.080,0.206
27.085,0.199
27.090,0.192
27.095,0.186
27.100,0.179
27.105,0.173
27.110,0.166
27.115,0.160
27.120,0.154
27.125,0.148
27.130,0.142
27.135,0.136
27.140,0.130
27.145,0.124
27.150,0.119
27.155,0.114
27.160,0.109
27.165,0.103
27.170,0.098
27.175,0.094
27.180,0.089
27.185,0.084
27.190,0.080
27.195,0.075
27.200,0.071
27.205,0.067
27.210,0.063
27.215,0.059
27.220,0.055
27.225,0.051
27.230,0.048
27.235,0.044
27.240,0.041
27.245,0.038
27.250,0.035
27.255,0.031
27.260,0.029
27.265,0.026
27.270,0.023
27.275,0.020
27.280,0.018
27.285,0.015
27.290,0.013
27.295,0.010
27.300,0.008
27.305,0.006
27.310,0.004
27.315,0.002
27.320,0.000
27.325,-0.001
27.330,-0.003
27.335,-0.005
27.340,-0.006
27.345,-0.008
27.350,-0.009
27.355,-0.011
27.360,-0.012
27.365,-0.013
27.370,-0.014
27.375,-0.015
27.380,-0.016
27.385,-0.017
27.390,-0.018
27.395,-0.019
27.400,-0.020
27.405,-0.020
27.410,-0.021
27.415,-0.022
27.420,-0.022
27.425,-0.023
27.430,-0.023
27.435,-0.024
27.440,-0.024
27.445,-0.025
27.450,-0.025
27.455,-0.025
27.460,-0.025
27.465,-0.026
27.470,-0.026
27.475,-0.026
27.480,-0.026
27.485,-0.026
27.490,-0.026
27.495,-0.026
27.500,-0.026
27.505,-0.026
27.510,-0.026
27.515,-0.026
27.520,-0.026
27.525,-0.026
27.530,-0.026
27.535,-0.025
27.540,-0.025
27.545,-0.025
27.550,-0.025
27.555,-0.025
27.560,-0.024
27.565,-0.024
27.570,-0.016
27.575,0.004
27.580,0.018
27.585,0.033
27.590,0.054
27.595,0.032
27.600,-0.007
27.605,0.017
27.610,0.101
27.615,0.224
27.620,0.392
27.625,0.614
27.630,0.934
27.635,1.143
27.640,1.008
27.645,0.713
27.650,0.426
27.655,0.231
27.660,0.160
27.665,0.080
27.670,0.053
27.675,0.114
27.680,0.147
27.685,0.153
27.690,0.157
27.695,0.147
27.700,0.143
27.705,0.160
27.710,0.170
27.715,0.168
27.720,0.182
27.725,0.192
27.730,0.186
27.735,0.188
27.740,0.197
27.745,0.200
27.750,0.199
27.755,0.200
27.760,0.203
27.765,0.202
27.770,0.207
27.775,0.217
27.780,0.217
27.785,0.216
27.790,0.213
27.795,0.217
27.800,0.221
27.805,0.222
27.810,0.226
27.815,0.234
27.820,0.246
27.825,0.253
27.830,0.257
27.835,0.266
27.840,0.264
27.845,0.259
27.850,0.258
27.855,0.260
27.860,0.265
27.865,0.261
27.870,0.251
27.875,0.229
27.880,0.182
27.885,0.125
27.890,0.070
27.895,0.029
27.900,-0.005
27.905,-0.041
27.910,-0.073
27.915,-0.101
27.920,-0.127
27.925,-0.157
27.930,-0.176
27.935,-0.176
27.940,-0.171
27.945,-0.163
27.950,-0.162
27.955,-0.164
27.960,-0.166
27.965,-0.175
27.970,-0.175
27.975,-0.164
27.980,-0.154
27.985,-0.150
27.990,-0.149
27.995,-0.142
28.000,-0.139
28.005,-0.143
28.010,-0.144
28.015,-0.141
28.020,-0.136
28.025,-0.132
28.030,-0.130
28.035,-0.128
28.040,-0.132
28.045,-0.129
28.050,-0.127
28.055,-0.129
28.060,-0.127
28.065,-0.130
28.070,-0.130
28.075,-0.127
28.080,-0.128
28.085,-0.128
28.090,-0.126
28.095,-0.121
28.100,-0.120
28.105,-0.125
28.110,-0.123
28.115,-0.120
28.120,-0.114
28.125,-0.101
28.130,-0.080
28.135,-0.059
28.140,-0.043
28.145,-0.028
28.150,-0.029
28.155,-0.036
28.160,-0.041
28.165,-0.035
28.170,-0.008
28.175,0.004
28.180,-0.010
28.185,-0.023
28.190,-0.035
28.195,-0.056
28.200,-0.080
28.205,-0.095
28.210,-0.102
28.215,-0.113
28.220,-0.132
28.225,-0.158
28.230,-0.182
28.235,-0.196
28.240,-0.198
28.245,-0.184
28.250,-0.175
28.255,-0.181
28.260,-0.183
28.265,-0.180
28.270,-0.172
28.275,-0.164
28.280,-0.177
28.285,-0.228
28.290,-0.267
28.295,-0.239
28.300,-0.156
28.305,-0.028
28.310,0.134
28.315,0.373
28.320,0.700
28.325,0.797
28.330,0.563
28.335,0.279
28.340,0.011
28.345,-0.150
28.350,-0.218
28.355,-0.300
28.360,-0.280
28.365,-0.217
28.370,-0.213
28.375,-0.208
28.380,-0.206
28.385,-0.221
28.390,-0.214
28.395,-0.188
28.400,-0.185
28.405,-0.186
28.410,-0.167
28.415,-0.155
28.420,-0.150
28.425,-0.140
28.430,-0.130
28.435,-0.127
28.440,-0.123
28.445,-0.109
28.450,-0.102
28.455,-0.097
28.460,-0.081
28.465,-0.077
28.470,-0.076
28.475,-0.068
28.480,-0.058
28.485,-0.049
28.490,-0.044
28.495,-0.030
28.500,-0.013
28.505,0.001
28.510,0.017
28.515,0.031
28.520,0.046
28.525,0.058
28.530,0.066
28.535,0.075
28.540,0.078
28.545,0.084
28.550,0.090
28.555,0.091
28.560,0.089
28.565,0.066
28.570,0.032
28.575,-0.006
28.580,-0.050
28.585,-0.089
28.590,-0.118
28.595,-0.139
28.600,-0.161
28.605,-0.184
28.610,-0.197
28.615,-0.206
28.620,-0.209
28.625,-0.210
28.630,-0.209
28.635,-0.202
28.640,-0.198
28.645,-0.194
28.650,-0.186
28.655,-0.176
28.660,-0.164
28.665,-0.157
28.670,-0.148
28.675,-0.135
28.680,-0.127
28.685,-0.125
28.690,-0.127
28.695,-0.123
28.700,-0.112
28.705,-0.100
28.710,-0.091
28.715,-0.093
28.720,-0.093
28.725,-0.090
28.730,-0.084
28.735,-0.076
28.740,-0.071
28.745,-0.064
28.750,-0.062
28.755,-0.060
28.760,-0.053
28.765,-0.050
28.770,-0.045
28.775,-0.041
28.780,-0.038
28.785,-0.035
28.790,-0.040
28.795,-0.039
28.800,-0.035
28.805,-0.029
28.810,-0.011
28.815,0.013
28.820,0.034
28.825,0.048
28.830,0.063
28.835,0.076
28.840,0.071
28.845,0.059
28.850,0.057
28.855,0.082
28.860,0.117
28.865,0.122
28.870,0.100
28.875,0.077
28.880,0.055
28.885,0.034
28.890,0.018
28.895,0.008
28.900,-0.006
28.905,-0.023
28.910,-0.040
28.915,-0.060
28.920,-0.075
28.925,-0.084
28.930,-0.089
28.935,-0.084
28.940,-0.078
28.945,-0.072
28.950,-0.067
28.955,-0.066
28.960,-0.060
28.965,-0.059
28.970,-0.092
28.975,-0.152
28.980,-0.168
28.985,-0.114
28.990,-0.013
28.995,0.122
29.000,0.293
29.005,0.578
29.010,0.858
29.015,0.830
29.020,0.571
29.025,0.293
29.030,0.050
29.035,-0.073
29.040,-0.155
29.045,-0.211
29.050,-0.166
29.055,-0.121
29.060,-0.111
29.065,-0.104
29.070,-0.111
29.075,-0.123
29.080,-0.112
29.085,-0.097
29.090,-0.099
29.095,-0.091
29.100,-0.074
29.105,-0.070
29.110,-0.064
29.115,-0.054
29.120,-0.050
29.125,-0.054
29.130,-0.043
29.135,-0.026
29.140,-0.028
29.145,-0.027
29.150,-0.018
29.155,-0.009
29.160,0.003
29.165,0.007
29.170,0.013
29.175,0.021
29.180,0.027
29.185,0.039
29.190,0.048
29.195,0.060
29.200,0.071
29.205,0.075
29.210,0.091
29.215,0.105
29.220,0.115
29.225,0.125
29.230,0.127
29.235,0.133
29.240,0.139
29.245,0.137
29.250,0.125
29.255,0.100
29.260,0.071
29.265,0.038
29.270,0.002
29.275,-0.035
29.280,-0.070
29.285,-0.101
29.290,-0.127
29.295,-0.142
29.300,-0.156
29.305,-0.168
29.310,-0.169
29.315,-0.167
29.320,-0.164
29.325,-0.165
29.330,-0.164
29.335,-0.154
29.340,-0.148
29.345,-0.141
29.350,-0.133
29.355,-0.122
29.360,-0.109
29.365,-0.109
29.370,-0.106
29.375,-0.096
29.380,-0.088
29.385,-0.079
29.390,-0.073
29.395,-0.067
29.400,-0.063
29.405,-0.066
29.410,-0.069
29.415,-0.064
29.420,-0.057
29.425,-0.055
29.430,-0.049
29.435,-0.041
29.440,-0.042
29.445,-0.040
29.450,-0.034
29.455,-0.031
29.460,-0.023
29.465,-0.022
29.470,-0.020
29.475,-0.015
29.480,-0.016
29.485,-0.018
29.490,-0.012
29.495,0.010
29.500,0.029
29.505,0.042
29.510,0.060
29.515,0.075
29.520,0.085
29.525,0.082
29.530,0.075
29.535,0.082
29.540,0.100
29.545,0.118
29.550,0.110
29.555,0.091
29.560,0.082
29.565,0.064
29.570,0.047
29.575,0.032
29.580,0.013
29.585,-0.004
29.590,-0.023
29.595,-0.042
29.600,-0.058
29.605,-0.069
29.610,-0.075
29.615,-0.079
29.620,-0.074
29.625,-0.071
29.630,-0.073
29.635,-0.067
29.640,-0.062
29.645,-0.054
29.650,-0.061
29.655,-0.106
29.660,-0.144
29.665,-0.128
29.670,-0.059
29.675,0.065
29.680,0.213
29.685,0.417
29.690,0.743
29.695,0.923
29.700,0.758
29.705,0.479
29.710,0.190
29.715,-0.029
29.720,-0.134
29.725,-0.220
29.730,-0.205
29.735,-0.135
29.740,-0.129
29.745,-0.125
29.750,-0.107
29.755,-0.115
29.760,-0.123
29.765,-0.105
29.770,-0.093
29.775,-0.097
29.780,-0.088
29.785,-0.076
29.790,-0.073
29.795,-0.057
29.800,-0.040
29.805,-0.036
29.810,-0.038
29.815,-0.039
29.820,-0.031
29.825,-0.018
29.830,-0.005
29.835,0.004
29.840,0.002
29.845,0.004
29.850,0.014
29.855,0.025
29.860,0.036
29.865,0.043
29.870,0.056
29.875,0.073
29.880,0.082
29.885,0.083
29.890,0.081
29.895,0.092
29.900,0.110
29.905,0.126
29.910,0.135
29.915,0.136
29.920,0.140
29.925,0.142
29.930,0.134
29.935,0.117
29.940,0.091
29.945,0.060
29.950,0.025
29.955,-0.012
29.960,-0.052
29.965,-0.086
29.970,-0.114
29.975,-0.137
29.980,-0.152
29.985,-0.160
29.990,-0.170
29.995,-0.174
30.000,-0.177
30.005,-0.171
30.010,-0.151
30.015,-0.139
30.020,-0.137
30.025,-0.140
30.030,-0.142
30.035,-0.130
30.040,-0.115
30.045,-0.098
30.050,-0.088
30.055,-0.090
30.060,-0.084
30.065,-0.074
30.070,-0.071
30.075,-0.075
30.080,-0.079
30.085,-0.074
30.090,-0.060
30.095,-0.046
30.100,-0.043
30.105,-0.041
30.110,-0.035
30.115,-0.039
30.120,-0.038
30.125,-0.035
30.130,-0.033
30.135,-0.022
30.140,-0.014
30.145,-0.006
30.150,-0.011
30.155,-0.028
30.160,-0.025
30.165,-0.006
30.170,0.014
30.175,0.037
30.180,0.055
30.185,0.069
30.190,0.090
30.195,0.105
30.200,0.093
30.205,0.071
30.210,0.070
30.215,0.105
30.220,0.138
30.225,0.126
30.230,0.107
30.235,0.099
30.240,0.078
30.245,0.050
30.250,0.026
30.255,0.014
30.260,0.007
30.265,-0.014
30.270,-0.038
30.275,-0.058
30.280,-0.071
30.285,-0.073
30.290,-0.067
30.295,-0.060
30.300,-0.063
30.305,-0.060
30.310,-0.060
30.315,-0.071
30.320,-0.066
30.325,-0.067
30.330,-0.121
30.335,-0.162
30.340,-0.132
30.345,-0.038
30.350,0.113
30.355,0.288
30.360,0.540
30.365,0.910
30.370,1.053
30.375,0.834
30.380,1.065
30.385,1.684
30.390,1.864
30.395,1.783
30.400,1.572
30.405,1.467
30.410,1.545
30.415,1.390
30.420,1.239
30.425,1.271
30.430,1.196
30.435,1.054
30.440,1.031
30.445,0.995
30.450,0.885
30.455,0.828
30.460,0.800
30.465,0.723
30.470,0.655
30.475,0.622
30.480,0.567
30.485,0.503
30.490,0.463
30.495,0.421
30.500,0.366
30.505,0.324
30.510,0.288
30.515,0.242
30.520,0.201
30.525,0.168
30.530,0.131
30.535,0.093
30.540,0.062
30.545,0.031
30.550,-0.002
30.555,-0.031
30.560,-0.057
30.565,-0.085
30.570,-0.111
30.575,-0.134
30.580,-0.158
30.585,-0.180
30.590,-0.200
30.595,-0.220
30.600,-0.239
30.605,-0.256
30.610,-0.273
30.615,-0.289
30.620,-0.303
30.625,-0.317
30.630,-0.330
30.635,-0.342
30.640,-0.352
30.645,-0.363
30.650,-0.372
30.655,-0.381
30.660,-0.389
30.665,-0.396
30.670,-0.402
30.675,-0.408
30.680,-0.413
30.685,-0.418
30.690,-0.422
30.695,-0.425
30.700,-0.428
30.705,-0.430
30.710,-0.432
30.715,-0.433
30.720,-0.434
30.725,-0.434
30.730,-0.434
30.735,-0.433
30.740,-0.432
30.745,-0.431
30.750,-0.429
30.755,-0.427
30.760,-0.425
30.765,-0.422
30.770,-0.419
30.775,-0.416
30.780,-0.412
30.785,-0.408
30.790,-0.404
30.795,-0.400
30.800,-0.395
30.805,-0.391
30.810,-0.386
30.815,-0.381
30.820,-0.376
30.825,-0.371
30.830,-0.365
30.835,-0.359
30.840,-0.354
30.845,-0.348
30.850,-0.342
30.855,-0.336
30.860,-0.330
30.865,-0.324
30.870,-0.318
30.875,-0.312
30.880,-0.306
30.885,-0.299
30.890,-0.293
30.895,-0.287
30.900,-0.280
30.905,-0.274
30.910,-0.268
30.915,-0.262
30.920,-0.255
30.925,-0.249
30.930,-0.243
30.935,-0.237
30.940,-0.230
30.945,-0.224
30.950,-0.218
30.955,-0.212
30.960,-0.206
30.965,-0.200
30.970,-0.195
30.975,-0.189
30.980,-0.185
30.985,-0.183
30.990,-0.176
30.995,-0.166
31.000,-0.181
31.005,-0.183
31.010,-0.151
31.015,-0.177
31.020,-0.189
31.025,-0.145
31.030,-0.130
31.035,-0.118
31.040,-0.120
31.045,-0.125
31.050,-0.141
31.055,-0.151
31.060,-0.108
31.065,-0.223
31.070,-0.288
31.075,-0.136
31.080,-0.183
31.085,-0.380
31.090,-0.322
31.095,-0.099
31.100,-0.195
31.105,-0.253
31.110,-0.081
31.115,-0.123
31.120,-0.084
31.125,-0.065
31.130,-0.097
31.135,0.052
31.140,-0.012
31.145,-0.088
31.150,-0.162
31.155,-0.227
31.160,-0.039
31.165,-0.509
31.170,-0.876
31.175,-0.327
31.180,-0.246
31.185,-0.712
31.190,-0.656
31.195,-0.097
31.200,-0.235
31.205,-0.389
31.210,-0.064
31.215,-0.350
31.220,-0.365
31.225,-0.167
31.230,-0.271
31.235,-0.339
31.240,-0.451
31.245,-0.103
31.250,-0.172
31.255,-0.367
31.260,-0.023
31.265,-0.101
31.270,0.055
31.275,0.027
31.280,-0.193
31.285,-0.069
31.290,-0.240
31.295,-0.046
31.300,-0.317
31.305,-0.580
31.310,0.034
31.315,-0.200
31.320,-0.290
31.325,-0.091
31.330,-0.124
31.335,0.033
31.340,-0.196
31.345,-0.011
31.350,-0.088
31.355,-0.295
31.360,0.111
31.365,-0.163
31.370,-0.189
31.375,-0.042
31.380,-0.116
31.385,-0.016
31.390,-0.237
31.395,0.035
31.400,-0.027
31.405,-0.235
31.410,0.155
31.415,-0.106
31.420,-0.097
31.425,0.002
31.430,-0.038
31.435,0.167
31.440,-0.106
31.445,-0.419
31.450,-1.013
31.455,-2.249
31.460,-3.395
31.465,-2.668
31.470,-1.495
31.475,-2.392
31.480,-2.580
31.485,-1.471
31.490,-1.700
31.495,-2.121
31.500,-1.467
31.505,-1.276
31.510,-1.614
31.515,-1.340
31.520,-1.019
31.525,-1.174
31.530,-1.113
31.535,-0.830
31.540,-0.830
31.545,-0.845
31.550,-0.653
31.555,-0.568
31.560,-0.582
31.565,-0.471
31.570,-0.362
31.575,-0.348
31.580,-0.287
31.585,-0.188
31.590,-0.149
31.595,-0.112
31.600,-0.034
31.605,0.017
31.610,0.048
31.615,0.104
31.620,0.156
31.625,0.188
31.630,0.229
31.635,0.275
31.640,0.307
31.645,0.338
31.650,0.376
31.655,0.406
31.660,0.432
31.665,0.462
31.670,0.489
31.675,0.511
31.680,0.534
31.685,0.557
31.690,0.575
31.695,0.593
31.700,0.611
31.705,0.627
31.710,0.640
31.715,0.654
31.720,0.666
31.725,0.676
31.730,0.686
31.735,0.695
31.740,0.702
31.745,0.708
31.750,0.714
31.755,0.718
31.760,0.722
31.765,0.725
31.770,0.726
31.775,0.728
31.780,0.728
31.785,0.728
31.790,0.726
31.795,0.725
31.800,0.722
31.805,0.719
31.810,0.716
31.815,0.712
31.820,0.707
31.825,0.702
31.830,0.696
31.835,0.690
31.840,0.684
31.845,0.677
31.850,0.670
31.855,0.662
31.860,0.654
31.865,0.646
31.870,0.638
31.875,0.629
31.880,0.620
31.885,0.611
31.890,0.602
31.895,0.592
31.900,0.582
31.905,0.573
31.910,0.563
31.915,0.552
31.920,0.542
31.925,0.532
31.930,0.522
31.935,0.511
31.940,0.501
31.945,0.490
31.950,0.480
31.955,0.469
31.960,0.458
31.965,0.448
31.970,0.437
31.975,0.427
31.980,0.416
31.985,0.406
31.990,0.396
31.995,0.385
32.000,0.375
32.005,0.365
32.010,0.355
32.015,0.345
32.020,0.335
32.025,0.325
32.030,0.316
32.035,0.306
32.040,0.296
32.045,0.287
32.050,0.278
32.055,0.269
32.060,0.260
32.065,0.251
32.070,0.242
32.075,0.234
32.080,0.225
32.085,0.217
32.090,0.209
32.095,0.201
32.100,0.193
32.105,0.186
32.110,0.178
32.115,0.171
32.120,0.164
32.125,0.156
32.130,0.150
32.135,0.143
32.140,0.136
32.145,0.130
32.150,0.124
32.155,0.117
32.160,0.111
32.165,0.106
32.170,0.100
32.175,0.094
32.180,0.089
32.185,0.084
32.190,0.079
32.195,0.074
32.200,0.069
32.205,0.064
32.210,0.060
32.215,0.055
32.220,0.051
32.225,0.047
32.230,0.043
32.235,0.039
32.240,0.035
32.245,0.032
32.250,0.028
32.255,0.025
32.260,0.022
32.265,0.019
32.270,0.016
32.275,0.013
32.280,0.010
32.285,0.007
32.290,0.005
32.295,0.002
32.300,0.000
32.305,-0.002
32.310,-0.004
32.315,-0.006
32.320,-0.008
32.325,-0.010
32.330,-0.012
32.335,-0.014
32.340,-0.015
32.345,-0.017
32.350,-0.018
32.355,-0.020
32.360,-0.021
32.365,-0.022
32.370,-0.023
32.375,-0.024
32.380,-0.025
32.385,-0.026
32.390,-0.027
32.395,-0.028
32.400,-0.028
32.405,-0.029
32.410,-0.030
32.415,-0.030
32.420,-0.031
32.425,-0.031
32.430,-0.032
32.435,-0.032
32.440,-0.032
32.445,-0.032
32.450,-0.033
32.455,-0.033
32.460,-0.033
32.465,-0.033
32.470,-0.033
32.475,-0.033
32.480,-0.033
32.485,-0.033
32.490,-0.033
32.495,-0.033
32.500,-0.033
32.505,-0.033
32.510,-0.032
32.515,-0.031
32.520,-0.012
32.525,0.024
32.530,0.051
32.535,0.082
32.540,0.125
32.545,0.160
32.550,0.185
32.555,0.217
32.560,0.247
32.565,0.261
32.570,0.283
32.575,0.314
32.580,0.336
32.585,0.354
32.590,0.369
32.595,0.377
32.600,0.373
32.605,0.359
32.610,0.341
32.615,0.312
32.620,0.278
32.625,0.244
32.630,0.212
32.635,0.186
32.640,0.161
32.645,0.145
32.650,0.133
32.655,0.124
32.660,0.122
32.665,0.115
32.670,0.115
32.675,0.119
32.680,0.122
32.685,0.129
32.690,0.133
32.695,0.139
32.700,0.141
32.705,0.141
32.710,0.148
32.715,0.152
32.720,0.155
32.725,0.154
32.730,0.151
32.735,0.151
32.740,0.148
32.745,0.153
32.750,0.156
32.755,0.153
32.760,0.149
32.765,0.144
32.770,0.145
32.775,0.143
32.780,0.137
32.785,0.131
32.790,0.126
32.795,0.128
32.800,0.124
32.805,0.115
32.810,0.112
32.815,0.102
32.820,0.095
32.825,0.094
32.830,0.101
32.835,0.119
32.840,0.135
32.845,0.146
32.850,0.154
32.855,0.158
32.860,0.145
32.865,0.120
32.870,0.112
32.875,0.127
32.880,0.146
32.885,0.145
32.890,0.123
32.895,0.103
32.900,0.084
32.905,0.055
32.910,0.031
32.915,0.017
32.920,0.004
32.925,-0.018
32.930,-0.046
32.935,-0.075
32.940,-0.100
32.945,-0.114
32.950,-0.119
32.955,-0.116
32.960,-0.107
32.965,-0.109
32.970,-0.113
32.975,-0.113
32.980,-0.117
32.985,-0.119
32.990,-0.148
32.995,-0.210
33.000,-0.236
33.005,-0.194
33.010,-0.100
33.015,0.032
33.020,0.207
33.025,0.486
33.030,0.780
33.035,0.772
33.040,0.495
33.045,0.205
33.050,-0.045
33.055,-0.171
33.060,-0.243
33.065,-0.308
33.070,-0.268
33.075,-0.221
33.080,-0.221
33.085,-0.212
33.090,-0.215
33.095,-0.229
33.100,-0.225
33.105,-0.216
33.110,-0.218
33.115,-0.212
33.120,-0.197
33.125,-0.192
33.130,-0.189
33.135,-0.177
33.140,-0.169
33.145,-0.167
33.150,-0.161
33.155,-0.152
33.160,-0.141
33.165,-0.134
33.170,-0.131
33.175,-0.131
33.180,-0.126
33.185,-0.114
33.190,-0.106
33.195,-0.096
33.200,-0.087
33.205,-0.077
33.210,-0.068
33.215,-0.065
33.220,-0.054
33.225,-0.039
33.230,-0.022
33.235,-0.003
33.240,0.004
33.245,0.010
33.250,0.016
33.255,0.019
33.260,0.023
33.265,0.020
33.270,0.010
33.275,-0.012
33.280,-0.044
33.285,-0.077
33.290,-0.117
33.295,-0.151
33.300,-0.184
33.305,-0.213
33.310,-0.231
33.315,-0.249
33.320,-0.258
33.325,-0.260
33.330,-0.262
33.335,-0.257
33.340,-0.256
33.345,-0.254
33.350,-0.249
33.355,-0.240
33.360,-0.228
33.365,-0.222
33.370,-0.216
33.375,-0.207
33.380,-0.196
33.385,-0.186
33.390,-0.179
33.395,-0.168
33.400,-0.160
33.405,-0.154
33.410,-0.144
33.415,-0.141
33.420,-0.137
33.425,-0.134
33.430,-0.131
33.435,-0.121
33.440,-0.117
33.445,-0.114
33.450,-0.112
33.455,-0.111
33.460,-0.104
33.465,-0.101
33.470,-0.100
33.475,-0.096
33.480,-0.090
33.485,-0.080
33.490,-0.078
33.495,-0.074
33.500,-0.060
33.505,-0.035
33.510,-0.008
33.515,0.011
33.520,0.027
33.525,0.033
33.530,0.026
33.535,0.021
33.540,0.026
33.545,0.053
33.550,0.072
33.555,0.060
33.560,0.044
33.565,0.030
33.570,0.012
33.575,-0.007
33.580,-0.020
33.585,-0.032
33.590,-0.047
33.595,-0.060
33.600,-0.079
33.605,-0.102
33.610,-0.117
33.615,-0.126
33.620,-0.124
33.625,-0.117
33.630,-0.113
33.635,-0.109
33.640,-0.102
33.645,-0.096
33.650,-0.092
33.655,-0.095
33.660,-0.140
33.665,-0.195
33.670,-0.184
33.675,-0.115
33.680,-0.005
33.685,0.138
33.690,0.342
33.695,0.671
33.700,0.865
33.705,0.715
33.710,0.446
33.715,0.172
33.720,-0.027
33.725,-0.114
33.730,-0.198
33.735,-0.204
33.740,-0.145
33.745,-0.127
33.750,-0.126
33.755,-0.118
33.760,-0.128
33.765,-0.138
33.770,-0.119
33.775,-0.109
33.780,-0.110
33.785,-0.094
33.790,-0.088
33.795,-0.086
33.800,-0.075
33.805,-0.061
33.810,-0.050
33.815,-0.048
33.820,-0.040
33.825,-0.031
33.830,-0.032
33.835,-0.031
33.840,-0.024
33.845,-0.013
33.850,-0.002
33.855,0.003
33.860,0.004
33.865,0.012
33.870,0.025
33.875,0.034
33.880,0.038
33.885,0.047
33.890,0.062
33.895,0.078
33.900,0.089
33.905,0.099
33.910,0.109
33.915,0.116
33.920,0.123
33.925,0.127
33.930,0.128
33.935,0.122
33.940,0.100
33.945,0.076
33.950,0.046
33.955,0.008
33.960,-0.022
33.965,-0.054
33.970,-0.083
33.975,-0.109
33.980,-0.134
33.985,-0.144
33.990,-0.153
33.995,-0.160
34.000,-0.164
34.005,-0.163
34.010,-0.155
34.015,-0.152
34.020,-0.146
34.025,-0.135
34.030,-0.128
34.035,-0.125
34.040,-0.125
34.045,-0.118
34.050,-0.106
34.055,-0.099
34.060,-0.092
34.065,-0.082
34.070,-0.076
34.075,-0.074
34.080,-0.071
34.085,-0.067
34.090,-0.065
34.095,-0.060
34.100,-0.061
34.105,-0.058
34.110,-0.050
34.115,-0.047
34.120,-0.043
34.125,-0.041
34.130,-0.040
34.135,-0.036
34.140,-0.034
34.145,-0.027
34.150,-0.026
34.155,-0.027
34.160,-0.019
34.165,-0.010
34.170,0.012
34.175,0.036
34.180,0.049
34.185,0.067
34.190,0.080
34.195,0.081
34.200,0.071
34.205,0.058
34.210,0.069
34.215,0.097
34.220,0.113
34.225,0.103
34.230,0.091
34.235,0.078
34.240,0.055
34.245,0.039
34.250,0.024
34.255,0.004
34.260,-0.013
34.265,-0.031
34.270,-0.049
34.275,-0.069
34.280,-0.085
34.285,-0.089
34.290,-0.079
34.295,-0.068
34.300,-0.072
34.305,-0.073
34.310,-0.063
34.315,-0.061
34.320,-0.056
34.325,-0.068
34.330,-0.124
34.335,-0.163
34.340,-0.138
34.345,-0.054
34.350,0.072
34.355,0.221
34.360,0.457
34.365,0.778
34.370,0.876
34.375,0.666
34.380,0.397
34.385,0.131
34.390,-0.035
34.395,-0.114
34.400,-0.189
34.405,-0.166
34.410,-0.112
34.415,-0.106
34.420,-0.096
34.425,-0.095
34.430,-0.115
34.435,-0.112
34.440,-0.093
34.445,-0.093
34.450,-0.097
34.455,-0.081
34.460,-0.069
34.465,-0.071
34.470,-0.061
34.475,-0.049
34.480,-0.045
34.485,-0.039
34.490,-0.033
34.495,-0.024
34.500,-0.017
34.505,-0.011
34.510,0.001
34.515,0.008
34.520,0.014
34.525,0.017
34.530,0.019
34.535,0.029
34.540,0.043
34.545,0.052
34.550,0.057
34.555,0.066
34.560,0.073
34.565,0.076
34.570,0.086
34.575,0.096
34.580,0.108
34.585,0.116
34.590,0.117
34.595,0.123
34.600,0.126
34.605,0.119
34.610,0.105
34.615,0.078
34.620,0.047
34.625,0.009
34.630,-0.029
34.635,-0.058
34.640,-0.087
34.645,-0.110
34.650,-0.130
34.655,-0.142
34.660,-0.147
34.665,-0.157
34.670,-0.161
34.675,-0.158
34.680,-0.151
34.685,-0.141
34.690,-0.138
34.695,-0.130
34.700,-0.120
34.705,-0.115
34.710,-0.107
34.715,-0.099
34.720,-0.093
34.725,-0.089
34.730,-0.087
34.735,-0.088
34.740,-0.087
34.745,-0.077
34.750,-0.070
34.755,-0.062
34.760,-0.055
34.765,-0.054
34.770,-0.047
34.775,-0.039
34.780,-0.033
34.785,-0.030
34.790,-0.038
34.795,-0.040
34.800,-0.037
34.805,-0.036
34.810,-0.030
34.815,-0.032
34.820,-0.038
34.825,-0.037
34.830,-0.029
34.835,-0.005
34.840,0.029
34.845,0.051
34.850,0.067
34.855,0.084
34.860,0.085
34.865,0.075
34.870,0.070
34.875,0.080
34.880,0.103
34.885,0.106
34.890,0.083
34.895,0.072
34.900,0.070
34.905,0.061
34.910,0.047
34.915,0.029
34.920,0.011
34.925,-0.006
34.930,-0.022
34.935,-0.039
34.940,-0.067
34.945,-0.084
34.950,-0.090
34.955,-0.091
34.960,-0.086
34.965,-0.083
34.970,-0.076
34.975,-0.070
34.980,-0.069
34.985,-0.062
34.990,-0.061
34.995,-0.095
35.000,-0.140
35.005,-0.129
35.010,-0.055
35.015,0.063
35.020,0.210
35.025,0.418
35.030,0.750
35.035,0.939
35.040,0.775
35.045,0.493
35.050,0.206
35.055,-0.010
35.060,-0.122
35.065,-0.218
35.070,-0.211
35.075,-0.138
35.080,-0.115
35.085,-0.111
35.090,-0.098
35.095,-0.103
35.100,-0.116
35.105,-0.100
35.110,-0.089
35.115,-0.096
35.120,-0.081
35.125,-0.064
35.130,-0.066
35.135,-0.062
35.140,-0.048
35.145,-0.032
35.150,-0.024
35.155,-0.024
35.160,-0.023
35.165,-0.021
35.170,-0.011
35.175,-0.001
35.180,0.007
35.185,0.016
35.190,0.021
35.195,0.030
35.200,0.042
35.205,0.055
35.210,0.066
35.215,0.066
35.220,0.072
35.225,0.080
35.230,0.082
35.235,0.088
35.240,0.099
35.245,0.119
35.250,0.135
35.255,0.136
35.260,0.133
35.265,0.127
35.270,0.124
35.275,0.106
35.280,0.074
35.285,0.041
35.290,0.000
35.295,-0.038
35.300,-0.069
35.305,-0.100
35.310,-0.127
35.315,-0.142
35.320,-0.146
35.325,-0.148
35.330,-0.150
35.335,-0.159
35.340,-0.173
35.345,-0.171
35.350,-0.164
35.355,-0.155
35.360,-0.139
35.365,-0.132
35.370,-0.128
35.375,-0.121
35.380,-0.110
35.385,-0.098
35.390,-0.089
35.395,-0.087
35.400,-0.090
35.405,-0.081
35.410,-0.065
35.415,-0.061
35.420,-0.064
35.425,-0.062
35.430,-0.054
35.435,-0.044
35.440,-0.039
35.445,-0.037
35.450,-0.040
35.455,-0.043
35.460,-0.040
35.465,-0.034
35.470,-0.023
35.475,-0.016
35.480,-0.018
35.485,-0.011
35.490,0.006
35.495,0.030
35.500,0.046
35.505,0.045
35.510,0.054
35.515,0.074
35.520,0.084
35.525,0.074
35.530,0.065
35.535,0.080
35.540,0.111
35.545,0.130
35.550,0.114
35.555,0.089
35.560,0.077
35.565,0.064
35.570,0.048
35.575,0.396
35.580,1.357
35.585,2.009
35.590,1.930
35.595,1.726
35.600,1.578
35.605,1.597
35.610,1.563
35.615,1.358
35.620,1.330
35.625,1.327
35.630,1.181
35.635,1.104
35.640,1.095
35.645,1.004
35.650,0.913
35.655,0.885
35.660,0.827
35.665,0.744
35.670,0.700
35.675,0.658
35.680,0.590
35.685,0.538
35.690,0.500
35.695,0.447
35.700,0.396
35.705,0.358
35.710,0.315
35.715,0.269
35.720,0.232
35.725,0.196
35.730,0.156
35.735,0.121
35.740,0.089
35.745,0.056
35.750,0.023
35.755,-0.005
35.760,-0.034
35.765,-0.062
35.770,-0.087
35.775,-0.111
35.780,-0.136
35.785,-0.158
35.790,-0.179
35.795,-0.200
35.800,-0.219
35.805,-0.237
35.810,-0.254
35.815,-0.270
35.820,-0.285
35.825,-0.299
35.830,-0.313
35.835,-0.325
35.840,-0.336
35.845,-0.347
35.850,-0.357
35.855,-0.366
35.860,-0.375
35.865,-0.382
35.870,-0.389
35.875,-0.395
35.880,-0.401
35.885,-0.406
35.890,-0.410
35.895,-0.414
35.900,-0.417
35.905,-0.420
35.910,-0.422
35.915,-0.423
35.920,-0.425
35.925,-0.425
35.930,-0.425
35.935,-0.425
35.940,-0.425
35.945,-0.424
35.950,-0.422
35.955,-0.420
35.960,-0.418
35.965,-0.416
35.970,-0.413
35.975,-0.410
35.980,-0.407
35.985,-0.403
35.990,-0.400
35.995,-0.396
36.000,-0.391
36.005,-0.387
36.010,-0.382
36.015,-0.378
36.020,-0.373
36.025,-0.368
36.030,-0.363
36.035,-0.357
36.040,-0.352
36.045,-0.346
36.050,-0.340
36.055,-0.335
36.060,-0.329
36.065,-0.323
36.070,-0.317
36.075,-0.311
36.080,-0.305
36.085,-0.299
36.090,-0.293
36.095,-0.286
36.100,-0.280
36.105,-0.274
36.110,-0.268
36.115,-0.262
36.120,-0.256
36.125,-0.249
36.130,-0.243
36.135,-0.237
36.140,-0.231
36.145,-0.225
36.150,-0.219
36.155,-0.213
36.160,-0.207
36.165,-0.202
36.170,-0.196
36.175,-0.190
36.180,-0.184
36.185,-0.179
36.190,-0.173
36.195,-0.168
36.200,-0.162
36.205,-0.157
36.210,-0.152
36.215,-0.191
36.220,-0.215
36.225,-0.159
36.230,-0.168
36.235,-0.258
36.240,-0.229
36.245,-0.118
36.250,-0.208
36.255,-0.246
36.260,-0.111
36.265,-0.188
36.270,-0.210
36.275,-0.124
36.280,-0.127
36.285,-0.074
36.290,-0.092
36.295,-0.104
36.300,-0.058
36.305,-0.077
36.310,-0.078
36.315,-0.235
36.320,-0.341
36.325,-0.165
36.330,-0.154
36.335,-0.411
36.340,-0.396
36.345,-0.057
36.350,-0.145
36.355,-0.229
36.360,-0.045
36.365,-0.445
36.370,-0.716
36.375,-0.368
36.380,-0.683
36.385,-1.953
36.390,-1.775
36.395,-0.253
36.400,-0.583
36.405,-0.867
36.410,-0.152
36.415,-0.063
36.420,0.451
36.425,0.157
36.430,-0.189
36.435,0.492
36.440,0.160
36.445,-0.132
36.450,-0.442
36.455,-0.736
36.460,-0.075
36.465,-0.011
36.470,0.007
36.475,-0.012
36.480,-0.201
36.485,-0.311
36.490,-0.490
36.495,0.056
36.500,-0.013
36.505,-1.023
36.510,-2.654
36.515,-3.265
36.520,-2.244
36.525,-2.695
36.530,-2.922
36.535,-1.939
36.540,-2.152
36.545,-2.404
36.550,-1.822
36.555,-1.690
36.560,-1.900
36.565,-1.623
36.570,-1.363
36.575,-1.455
36.580,-1.353
36.585,-1.107
36.590,-1.087
36.595,-1.057
36.600,-0.875
36.605,-0.790
36.610,-0.770
36.615,-0.651
36.620,-0.545
36.625,-0.510
36.630,-0.434
36.635,-0.335
36.640,-0.285
36.645,-0.231
36.650,-0.149
36.655,-0.091
36.660,-0.047
36.665,0.017
36.670,0.074
36.675,0.116
36.680,0.165
36.685,0.216
36.690,0.256
36.695,0.295
36.700,0.338
36.705,0.375
36.710,0.408
36.715,0.443
36.720,0.475
36.725,0.503
36.730,0.531
36.735,0.558
36.740,0.582
36.745,0.604
36.750,0.626
36.755,0.646
36.760,0.663
36.765,0.680
36.770,0.696
36.775,0.710
36.780,0.722
36.785,0.734
36.790,0.744
36.795,0.753
36.800,0.761
36.805,0.768
36.810,0.774
36.815,0.778
36.820,0.782
36.825,0.785
36.830,0.787
36.835,0.788
36.840,0.788
36.845,0.788
36.850,0.787
36.855,0.785
36.860,0.782
36.865,0.779
36.870,0.775
36.875,0.770
36.880,0.765
36.885,0.760
36.890,0.754
36.895,0.747
36.900,0.740
36.905,0.732
36.910,0.725
36.915,0.716
36.920,0.708
36.925,0.699
36.930,0.690
36.935,0.680
36.940,0.671
36.945,0.661
36.950,0.650
36.955,0.640
36.960,0.630
36.965,0.619
36.970,0.608
36.975,0.597
36.980,0.586
36.985,0.575
36.990,0.564
36.995,0.552
37.000,0.541
37.005,0.530
37.010,0.518
37.015,0.507
37.020,0.495
37.025,0.484
37.030,0.472
37.035,0.461
37.040,0.450
37.045,0.438
37.050,0.427
37.055,0.416
37.060,0.405
37.065,0.394
37.070,0.383
37.075,0.372
37.080,0.362
37.085,0.351
37.090,0.341
37.095,0.330
37.100,0.320
37.105,0.310
37.110,0.300
37.115,0.290
37.120,0.280
37.125,0.271
37.130,0.261
37.135,0.252
37.140,0.243
37.145,0.234
37.150,0.225
37.155,0.217
37.160,0.208
37.165,0.200
37.170,0.192
37.175,0.184
37.180,0.176
37.185,0.169
37.190,0.161
37.195,0.154
37.200,0.147
37.205,0.140
37.210,0.133
37.215,0.126
37.220,0.120
37.225,0.114
37.230,0.108
37.235,0.101
37.240,0.096
37.245,0.090
37.250,0.085
37.255,0.079
37.260,0.074
37.265,0.069
37.270,0.064
37.275,0.059
37.280,0.055
37.285,0.050
37.290,0.046
37.295,0.042
37.300,0.038
37.305,0.034
37.310,0.030
37.315,0.027
37.320,0.023
37.325,0.020
37.330,0.016
37.335,0.013
37.340,0.010
37.345,0.008
37.350,0.005
37.355,0.002
37.360,0.000
37.365,-0.003
37.370,-0.005
37.375,-0.007
37.380,-0.009
37.385,-0.011
37.390,-0.013
37.395,-0.015
37.400,-0.017
37.405,-0.018
37.410,-0.020
37.415,-0.021
37.420,-0.023
37.425,-0.024
37.430,-0.025
37.435,-0.026
37.440,-0.027
37.445,-0.028
37.450,-0.029
37.455,-0.030
37.460,-0.031
37.465,-0.032
37.470,-0.032
37.475,-0.033
37.480,-0.033
37.485,-0.034
37.490,-0.034
37.495,-0.035
37.500,-0.035
37.505,-0.035
37.510,-0.035
37.515,-0.036
37.520,-0.036
37.525,-0.036
37.530,-0.036
37.535,-0.036
37.540,-0.036
37.545,-0.036
37.550,-0.036
37.555,-0.036
37.560,-0.036
37.565,-0.035
37.570,-0.035
37.575,-0.035
37.580,-0.034
37.585,-0.019
37.590,0.019
37.595,0.049
37.600,0.059
37.605,0.080
37.610,0.110
37.615,0.106
37.620,0.058
37.625,0.028
37.630,0.068
37.635,0.171
37.640,0.318
37.645,0.497
37.650,0.762
37.655,1.103
37.660,1.180
37.665,0.907
37.670,0.608
37.675,0.360
37.680,0.221
37.685,0.162
37.690,0.086
37.695,0.107
37.700,0.156
37.705,0.153
37.710,0.167
37.715,0.169
37.720,0.149
37.725,0.160
37.730,0.191
37.735,0.199
37.740,0.186
37.745,0.194
37.750,0.217
37.755,0.219
37.760,0.204
37.765,0.180
37.770,0.165
37.775,0.170
37.780,0.191
37.785,0.212
37.790,0.231
37.795,0.248
37.800,0.238
37.805,0.217
37.810,0.205
37.815,0.198
37.820,0.205
37.825,0.222
37.830,0.234
37.835,0.231
37.840,0.230
37.845,0.241
37.850,0.247
37.855,0.246
37.860,0.237
37.865,0.231
37.870,0.239
37.875,0.251
37.880,0.260
37.885,0.260
37.890,0.244
37.895,0.215
37.900,0.170
37.905,0.119
37.910,0.076
37.915,0.034
37.920,-0.011
37.925,-0.056
37.930,-0.100
37.935,-0.136
37.940,-0.155
37.945,-0.155
37.950,-0.153
37.955,-0.160
37.960,-0.167
37.965,-0.175
37.970,-0.178
37.975,-0.183
37.980,-0.189
37.985,-0.189
37.990,-0.192
37.995,-0.187
38.000,-0.177
38.005,-0.169
38.010,-0.160
38.015,-0.161
38.020,-0.170
38.025,-0.180
38.030,-0.174
38.035,-0.155
38.040,-0.147
38.045,-0.152
38.050,-0.156
38.055,-0.146
38.060,-0.137
38.065,-0.135
38.070,-0.130
38.075,-0.136
38.080,-0.146
38.085,-0.150
38.090,-0.147
38.095,-0.141
38.100,-0.141
38.105,-0.136
38.110,-0.117
38.115,-0.099
38.120,-0.078
38.125,-0.055
38.130,-0.045
38.135,-0.056
38.140,-0.076
38.145,-0.075
38.150,-0.056
38.155,-0.033
38.160,-0.020
38.165,-0.027
38.170,-0.037
38.175,-0.049
38.180,-0.072
38.185,-0.090
38.190,-0.101
38.195,-0.108
38.200,-0.123
38.205,-0.148
38.210,-0.172
38.215,-0.192
38.220,-0.198
38.225,-0.195
38.230,-0.185
38.235,-0.174
38.240,-0.170
38.245,-0.164
38.250,-0.158
38.255,-0.154
38.260,-0.147
38.265,-0.179
38.270,-0.238
38.275,-0.256
38.280,-0.210
38.285,-0.118
38.290,0.004
38.295,0.182
38.300,0.492
38.305,0.774
38.310,0.719
38.315,0.450
38.320,0.197
38.325,-0.005
38.330,-0.115
38.335,-0.203
38.340,-0.253
38.345,-0.196
38.350,-0.155
38.355,-0.164
38.360,-0.167
38.365,-0.185
38.370,-0.210
38.375,-0.194
38.380,-0.166
38.385,-0.162
38.390,-0.154
38.395,-0.136
38.400,-0.131
38.405,-0.131
38.410,-0.118
38.415,-0.113
38.420,-0.114
38.425,-0.108
38.430,-0.102
38.435,-0.095
38.440,-0.087
38.445,-0.075
38.450,-0.075
38.455,-0.081
38.460,-0.071
38.465,-0.056
38.470,-0.038
38.475,-0.026
38.480,-0.021
38.485,-0.011
38.490,-0.004
38.495,0.003
38.500,0.012
38.505,0.026
38.510,0.041
38.515,0.051
38.520,0.055
38.525,0.055
38.530,0.058
38.535,0.063
38.540,0.068
38.545,0.061
38.550,0.033
38.555,-0.002
38.560,-0.043
38.565,-0.090
38.570,-0.123
38.575,-0.147
38.580,-0.170
38.585,-0.193
38.590,-0.215
38.595,-0.229
38.600,-0.232
38.605,-0.230
38.610,-0.227
38.615,-0.232
38.620,-0.232
38.625,-0.219
38.630,-0.204
38.635,-0.196
38.640,-0.196
38.645,-0.188
38.650,-0.175
38.655,-0.170
38.660,-0.166
38.665,-0.155
38.670,-0.143
38.675,-0.134
38.680,-0.134
38.685,-0.137
38.690,-0.137
38.695,-0.127
38.700,-0.116
38.705,-0.113
38.710,-0.119
38.715,-0.131
38.720,-0.121
38.725,-0.093
38.730,-0.076
38.735,-0.077
38.740,-0.080
38.745,-0.069
38.750,-0.047
38.755,-0.024
38.760,-0.003
38.765,0.015
38.770,0.037
38.775,0.054
38.780,0.053
38.785,0.037
38.790,0.018
38.795,0.032
38.800,0.062
38.805,0.068
38.810,0.061
38.815,0.052
38.820,0.048
38.825,0.034
38.830,0.019
38.835,0.007
38.840,-0.019
38.845,-0.046
38.850,-0.069
38.855,-0.082
38.860,-0.087
38.865,-0.096
38.870,-0.097
38.875,-0.090
38.880,-0.082
38.885,-0.079
38.890,-0.084
38.895,-0.079
38.900,-0.078
38.905,-0.094
38.910,-0.135
38.915,-0.193
38.920,-0.189
38.925,-0.119
38.930,-0.021
38.935,0.110
38.940,0.295
38.945,0.619
38.950,0.926
38.955,0.881
38.960,0.603
38.965,0.315
38.970,0.052
38.975,-0.092
38.980,-0.192
38.985,-0.251
38.990,-0.188
38.995,-0.134
39.000,-0.124
39.005,-0.095
39.010,-0.092
39.015,-0.115
39.020,-0.109
39.025,-0.100
39.030,-0.110
39.035,-0.114
39.040,-0.113
39.045,-0.108
39.050,-0.095
39.055,-0.072
39.060,-0.053
39.065,-0.049
39.070,-0.046
39.075,-0.045
39.080,-0.047
39.085,-0.041
39.090,-0.025
39.095,-0.021
39.100,-0.038
39.105,-0.044
39.110,-0.031
39.115,-0.008
39.120,0.017
39.125,0.023
39.130,0.030
39.135,0.043
39.140,0.042
39.145,0.044
39.150,0.052
39.155,0.063
39.160,0.077
39.165,0.087
39.170,0.093
39.175,0.090
39.180,0.087
39.185,0.087
39.190,0.078
39.195,0.059
39.200,0.023
39.205,-0.014
39.210,-0.042
39.215,-0.072
39.220,-0.100
39.225,-0.135
39.230,-0.167
39.235,-0.181
39.240,-0.181
39.245,-0.173
39.250,-0.173
39.255,-0.171
39.260,-0.163
39.265,-0.160
39.270,-0.155
39.275,-0.148
39.280,-0.133
39.285,-0.125
39.290,-0.137
39.295,-0.139
39.300,-0.129
39.305,-0.108
39.310,-0.087
39.315,-0.080
39.320,-0.077
39.325,-0.079
39.330,-0.083
39.335,-0.081
39.340,-0.075
39.345,-0.062
39.350,-0.059
39.355,-0.064
39.360,-0.070
39.365,-0.076
39.370,-0.069
39.375,-0.056
39.380,-0.033
39.385,-0.007
39.390,0.010
39.395,0.026
39.400,0.038
39.405,0.048
39.410,0.066
39.415,0.077
39.420,0.063
39.425,0.040
39.430,0.040
39.435,0.072
39.440,0.109
39.445,0.109
39.450,0.081
39.455,0.068
39.460,0.058
39.465,0.043
39.470,0.035
39.475,0.022
39.480,0.005
39.485,-0.010
39.490,-0.033
39.495,-0.051
39.500,-0.066
39.505,-0.070
39.510,-0.056
39.515,-0.053
39.520,-0.065
39.525,-0.068
39.530,-0.056
39.535,-0.046
39.540,-0.041
39.545,-0.049
39.550,-0.109
39.555,-0.176
39.560,-0.175
39.565,-0.110
39.570,0.011
39.575,0.159
39.580,0.381
39.585,0.740
39.590,0.927
39.595,0.772
39.600,0.522
39.605,0.259
39.610,0.068
39.615,-0.033
39.620,-0.139
39.625,-0.151
39.630,-0.102
39.635,-0.093
39.640,-0.083
39.645,-0.072
39.650,-0.099
39.655,-0.125
39.660,-0.125
39.665,-0.130
39.670,-0.128
39.675,-0.101
39.680,-0.071
39.685,-0.057
39.690,-0.043
39.695,-0.023
39.700,-0.022
39.705,-0.024
39.710,-0.028
39.715,-0.042
39.720,-0.038
39.725,-0.023
39.730,-0.010
39.735,-0.003
39.740,0.001
39.745,0.013
39.750,0.016
39.755,0.010
39.760,0.020
39.765,0.042
39.770,0.050
39.775,0.045
39.780,0.058
39.785,0.086
39.790,0.105
39.795,0.114
39.800,0.117
39.805,0.122
39.810,0.131
39.815,0.130
39.820,0.127
39.825,0.118
39.830,0.098
39.835,0.074
39.840,0.048
39.845,0.018
39.850,-0.021
39.855,-0.058
39.860,-0.086
39.865,-0.115
39.870,-0.127
39.875,-0.125
39.880,-0.124
39.885,-0.128
39.890,-0.131
39.895,-0.129
39.900,-0.130
39.905,-0.134
39.910,-0.129
39.915,-0.116
39.920,-0.106
39.925,-0.102
39.930,-0.098
39.935,-0.094
39.940,-0.089
39.945,-0.072
39.950,-0.057
39.955,-0.043
39.960,-0.029
39.965,-0.037
39.970,-0.056
39.975,-0.068
39.980,-0.069
39.985,-0.061
39.990,-0.058
39.995,-0.050
40.000,-0.035
40.005,-0.022
40.010,-0.018
40.015,-0.024
40.020,-0.018
40.025,0.003
40.030,0.027
40.035,0.049
40.040,0.067
40.045,0.080
40.050,0.080
40.055,0.067
40.060,0.054
40.065,0.061
40.070,0.090
40.075,0.107
40.080,0.098
40.085,0.083
40.090,0.060
40.095,0.038
40.100,0.023
40.105,0.010
40.110,0.001
40.115,-0.012
40.120,-0.031
40.125,-0.053
40.130,-0.078
40.135,-0.087
40.140,-0.082
40.145,-0.070
40.150,-0.068
40.155,-0.080
40.160,-0.080
40.165,-0.070
40.170,-0.065
40.175,-0.069
40.180,-0.097
40.185,-0.157
40.190,-0.187
40.195,-0.148
40.200,-0.066
40.205,0.056
40.210,0.228
40.215,0.521
40.220,0.837
40.225,0.848
40.230,0.612
40.235,0.362
40.240,0.138
40.245,0.021
40.250,-0.072
40.255,-0.153
40.260,-0.132
40.265,-0.109
40.270,-0.109
40.275,-0.098
40.280,-0.102
40.285,-0.121
40.290,-0.117
40.295,-0.103
40.300,-0.107
40.305,-0.101
40.310,-0.082
40.315,-0.076
40.320,-0.070
40.325,-0.053
40.330,-0.044
40.335,-0.047
40.340,-0.046
40.345,-0.035
40.350,-0.028
40.355,-0.018
40.360,-0.010
40.365,-0.012
40.370,-0.011
40.375,0.000
40.380,0.013
40.385,0.016
40.390,0.015
40.395,0.026
40.400,0.042
40.405,0.060
40.410,0.071
40.415,0.068
40.420,0.071
40.425,0.079
40.430,0.093
40.435,0.102
40.440,0.098
40.445,0.105
40.450,0.113
40.455,0.117
40.460,0.113
40.465,0.090
40.470,0.059
40.475,0.024
40.480,-0.009
40.485,-0.038
40.490,-0.069
40.495,-0.088
40.500,-0.105
40.505,-0.123
40.510,-0.137
40.515,-0.145
40.520,-0.143
40.525,-0.144
40.530,-0.144
40.535,-0.137
40.540,-0.128
40.545,-0.117
40.550,-0.107
40.555,-0.097
40.560,-0.089
40.565,-0.083
40.570,-0.072
40.575,-0.066
40.580,-0.064
40.585,-0.066
40.590,-0.070
40.595,-0.061
40.600,-0.053
40.605,-0.048
40.610,-0.046
40.615,-0.047
40.620,-0.041
40.625,-0.035
40.630,-0.036
40.635,-0.041
40.640,-0.043
40.645,-0.040
40.650,-0.026
40.655,0.003
40.660,0.032
40.665,0.049
40.670,0.062
40.675,0.069
40.680,0.071
40.685,0.069
40.690,0.065
40.695,0.082
40.700,0.105
40.705,0.115
40.710,0.108
40.715,0.089
40.720,0.067
40.725,0.048
40.730,0.034
40.735,0.015
40.740,-0.006
40.745,-0.021
40.750,-0.036
40.755,-0.054
40.760,-0.075
40.765,-0.092
40.770,-0.093
40.775,-0.083
40.780,-0.074
40.785,-0.068
40.790,-0.060
40.795,-0.041
40.800,-0.028
40.805,-0.028
40.810,-0.064
40.815,-0.131
40.820,-0.158
40.825,-0.124
40.830,-0.027
40.835,0.114
40.840,0.300
40.845,0.626
40.850,0.921
40.855,0.877
40.860,0.618
40.865,0.331
40.870,0.085
40.875,-0.038
40.880,-0.134
40.885,-0.178
40.890,-0.121
40.895,-0.089
40.900,-0.100
40.905,-0.097
40.910,-0.109
40.915,-0.135
40.920,-0.122
40.925,-0.094
40.930,-0.090
40.935,-0.094
40.940,-0.090
40.945,-0.076
40.950,-0.057
40.955,-0.043
40.960,-0.045
40.965,-0.051
40.970,-0.040
40.975,-0.021
40.980,-0.016
40.985,-0.026
40.990,-0.033
40.995,-0.030
41.000,-0.014
41.005,0.010
41.010,0.027
41.015,0.033
41.020,0.026
41.025,0.021
41.030,0.040
41.035,0.069
41.040,0.069
41.045,0.045
41.050,0.051
41.055,0.083
41.060,0.109
41.065,0.129
41.070,0.137
41.075,0.133
41.080,0.126
41.085,0.114
41.090,0.110
41.095,0.103
41.100,0.067
41.105,0.022
41.110,-0.015
41.115,-0.042
41.120,-0.057
41.125,-0.078
41.130,-0.100
41.135,-0.124
41.140,-0.149
41.145,-0.147
41.150,-0.135
41.155,-0.130
41.160,-0.125
41.165,-0.127
41.170,-0.129
41.175,-0.128
41.180,-0.121
41.185,-0.105
41.190,-0.095
41.195,-0.096
41.200,-0.105
41.205,-0.095
41.210,-0.072
41.215,-0.061
41.220,-0.060
41.225,-0.074
41.230,-0.077
41.235,-0.058
41.240,-0.043
41.245,-0.033
41.250,-0.044
41.255,-0.060
41.260,-0.053
41.265,-0.048
41.270,-0.040
41.275,-0.023
41.280,-0.004
41.285,0.021
41.290,0.040
41.295,0.055
41.300,0.077
41.305,0.095
41.310,0.097
41.315,0.071
41.320,0.052
41.325,0.077
41.330,0.110
41.335,0.118
41.340,0.105
41.345,0.093
41.350,0.078
41.355,0.045
41.360,0.012
41.365,-0.007
41.370,-0.019
41.375,-0.024
41.380,-0.027
41.385,-0.051
41.390,-0.092
41.395,-0.111
41.400,-0.101
41.405,-0.084
41.410,-0.082
41.415,-0.083
41.420,-0.075
41.425,-0.078
41.430,-0.074
41.435,-0.065
41.440,-0.103
41.445,-0.169
41.450,-0.185
41.455,-0.109
41.460,0.030
41.465,0.189
41.470,0.393
41.475,0.744
41.480,1.029
41.485,0.927
41.490,0.632
41.495,0.323
41.500,0.037
41.505,-0.132
41.510,-0.247
41.515,-0.258
41.520,-0.164
41.525,-0.117
41.530,-0.131
41.535,-0.146
41.540,-0.168
41.545,-0.184
41.550,-0.149
41.555,-0.119
41.560,-0.128
41.565,-0.121
41.570,-0.096
41.575,-0.082
41.580,-0.073
41.585,-0.068
41.590,-0.061
41.595,-0.053
41.600,-0.059
41.605,-0.061
41.610,-0.048
41.615,-0.035
41.620,-0.028
41.625,-0.032
41.630,-0.028
41.635,-0.010
41.640,-0.008
41.645,-0.009
41.650,0.002
41.655,0.016
41.660,0.028
41.665,0.038
41.670,0.051
41.675,0.053
41.680,0.050
41.685,0.063
41.690,0.081
41.695,0.097
41.700,0.100
41.705,0.101
41.710,0.106
41.715,0.107
41.720,0.108
41.725,0.088
41.730,0.061
41.735,0.039
41.740,0.004
41.745,-0.033
41.750,-0.072
41.755,-0.103
41.760,-0.107
41.765,-0.112
41.770,-0.130
41.775,-0.143
41.780,-0.148
41.785,-0.153
41.790,-0.150
41.795,-0.124
41.800,-0.099
41.805,-0.097
41.810,-0.101
41.815,-0.102
41.820,-0.094
41.825,-0.079
41.830,-0.077
41.835,-0.070
41.840,-0.056
41.845,-0.054
41.850,-0.058
41.855,-0.065
41.860,-0.069
41.865,-0.053
41.870,-0.034
41.875,-0.021
41.880,0.002
41.885,0.016
41.890,0.013
41.895,-0.004
41.900,-0.031
41.905,-0.042
41.910,-0.026
41.915,0.006
41.920,0.036
41.925,0.037
41.930,0.029
41.935,0.043
41.940,0.076
41.945,0.112
41.950,0.111
41.955,0.096
41.960,0.106
41.965,0.118
41.970,0.103
41.975,0.084
41.980,0.092
41.985,0.088
41.990,0.054
41.995,0.013
42.000,-0.009
42.005,-0.015
42.010,-0.023
42.015,-0.031
42.020,-0.039
42.025,-0.054
42.030,-0.076
42.035,-0.088
42.040,-0.076
42.045,-0.057
42.050,-0.047
42.055,-0.048
42.060,-0.061
42.065,-0.075
42.070,-0.109
42.075,-0.175
42.080,-0.183
42.085,-0.110
42.090,0.002
42.095,0.146
42.100,0.375
42.105,0.783
42.110,1.139
42.115,1.048
42.120,0.675
42.125,0.321
42.130,0.042
42.135,-0.102
42.140,-0.206
42.145,-0.262
42.150,-0.210
42.155,-0.167
42.160,-0.163
42.165,-0.147
42.170,-0.135
42.175,-0.143
42.180,-0.128
42.185,-0.125
42.190,-0.146
42.195,-0.129
42.200,-0.098
42.205,-0.087
42.210,-0.074
42.215,-0.065
42.220,-0.091
42.225,-0.130
42.230,-0.120
42.235,-0.078
42.240,-0.045
42.245,-0.014
42.250,-0.002
42.255,0.095
42.260,0.918
42.265,1.900
42.270,1.999
42.275,1.817
42.280,1.607
42.285,1.558
42.290,1.643
42.295,1.414
42.300,1.304
42.305,1.366
42.310,1.239
42.315,1.103
42.320,1.111
42.325,1.051
42.330,0.929
42.335,0.893
42.340,0.860
42.345,0.767
42.350,0.708
42.355,0.679
42.360,-0.629
42.365,-2.759
42.370,-3.410
42.375,-3.204
42.380,-2.839
42.385,-2.654
42.390,-2.882
42.395,-2.619
42.400,-2.325
42.405,-2.450
42.410,-2.346
42.415,-2.078
42.420,-2.070
42.425,-2.043
42.430,-1.845
42.435,-1.757
42.440,-1.739
42.445,-1.608
42.450,-1.493
42.455,-1.456
42.460,-1.371
42.465,-1.260
42.470,-1.203
42.475,-1.141
42.480,-1.047
42.485,-0.979
42.490,-0.925
42.495,-0.849
42.500,-0.779
42.505,-0.727
42.510,-0.665
42.515,-0.600
42.520,-0.548
42.525,-0.496
42.530,-0.439
42.535,-0.389
42.540,-0.343
42.545,-0.294
42.550,-0.248
42.555,-0.206
42.560,-0.164
42.565,-0.122
42.570,-0.084
42.575,-0.048
42.580,-0.011
42.585,0.022
42.590,0.054
42.595,0.086
42.600,0.115
42.605,0.143
42.610,0.170
42.615,0.196
42.620,0.220
42.625,0.243
42.630,0.264
42.635,0.285
42.640,0.304
42.645,0.322
42.650,0.339
42.655,0.355
42.660,0.370
42.665,0.384
42.670,0.397
42.675,0.409
42.680,0.420
42.685,0.430
42.690,0.440
42.695,0.448
42.700,0.456
42.705,0.463
42.710,0.469
42.715,0.474
42.720,0.479
42.725,0.483
42.730,0.487
42.735,0.489
42.740,0.491
42.745,0.493
42.750,0.494
42.755,0.495
42.760,0.495
42.765,0.494
42.770,0.493
42.775,0.492
42.780,0.490
42.785,0.488
42.790,0.485
42.795,0.482
42.800,0.479
42.805,0.475
42.810,0.471
42.815,0.467
42.820,0.463
42.825,0.458
42.830,0.453
42.835,0.447
42.840,0.442
42.845,0.436
42.850,0.431
42.855,0.425
42.860,0.418
42.865,0.412
42.870,0.406
42.875,0.399
42.880,0.392
42.885,0.386
42.890,0.379
42.895,0.372
42.900,0.365
42.905,0.359
42.910,0.357
42.915,0.363
42.920,0.378
42.925,0.406
42.930,0.432
42.935,0.453
42.940,0.490
42.945,0.513
42.950,0.510
42.955,0.534
42.960,0.567
42.965,0.571
42.970,0.583
42.975,0.609
42.980,0.614
42.985,0.596
42.990,0.556
42.995,0.526
43.000,0.522
43.005,0.513
43.010,0.484
43.015,0.442
43.020,0.407
43.025,0.389
43.030,0.379
43.035,0.369
43.040,0.356
43.045,0.346
43.050,0.334
43.055,0.329
43.060,0.333
43.065,0.335
43.070,0.337
43.075,0.331
43.080,0.333
43.085,0.335
43.090,0.322
43.095,0.321
43.100,0.323
43.105,0.329
43.110,0.331
43.115,0.315
43.120,0.300
43.125,0.295
43.130,0.296
43.135,0.292
43.140,0.276
43.145,0.261
43.150,0.249
43.155,0.237
43.160,0.233
43.165,0.234
43.170,0.221
43.175,0.199
43.180,0.192
43.185,0.193
43.190,0.203
43.195,0.220
43.200,0.226
43.205,0.235
43.210,0.242
43.215,0.234
43.220,0.218
43.225,0.198
43.230,0.190
43.235,0.204
43.240,0.213
43.245,0.199
43.250,0.168
43.255,0.143
43.260,0.121
43.265,0.094
43.270,0.078
43.275,0.068
43.280,0.048
43.285,0.013
43.290,-0.025
43.295,-0.059
43.300,-0.090
43.305,-0.102
43.310,-0.104
43.315,-0.098
43.320,-0.086
43.325,-0.092
43.330,-0.100
43.335,-0.080
43.340,-0.026
43.345,-0.040
43.350,0.167
43.355,1.119
43.360,1.538
43.365,0.458
43.370,-0.490
43.375,-0.557
43.380,-0.108
43.385,0.440
43.390,0.384
43.395,0.213
43.400,0.219
43.405,-0.154
43.410,-0.453
43.415,-0.375
43.420,-0.472
43.425,-0.622
43.430,-0.499
43.435,-0.410
43.440,-0.467
43.445,-0.445
43.450,-0.399
43.455,-0.438
43.460,-0.439
43.465,-0.387
43.470,-0.377
43.475,-0.381
43.480,-0.350
43.485,-0.324
43.490,-0.321
43.495,-0.316
43.500,-0.313
43.505,-0.303
43.510,-0.263
43.515,-0.223
43.520,-0.218
43.525,-0.216
43.530,-0.186
43.535,-0.169
43.540,-0.178
43.545,-0.191
43.550,-0.193
43.555,-0.170
43.560,-0.140
43.565,-0.124
43.570,-0.114
43.575,-0.097
43.580,-0.081
43.585,-0.075
43.590,-0.064
43.595,-0.041
43.600,-0.010
43.605,0.008
43.610,-0.009
43.615,-0.025
43.620,-0.014
43.625,-0.005
43.630,-0.004
43.635,-0.016
43.640,-0.054
43.645,-0.082
43.650,-0.099
43.655,-0.125
43.660,-0.159
43.665,-0.196
43.670,-0.218
43.675,-0.208
43.680,-0.194
43.685,-0.209
43.690,-0.218
43.695,-0.198
43.700,-0.180
43.705,-0.179
43.710,-0.193
43.715,-0.204
43.720,-0.190
43.725,-0.166
43.730,-0.147
43.735,-0.135
43.740,-0.131
43.745,-0.137
43.750,-0.141
43.755,-0.122
43.760,-0.099
43.765,-0.102
43.770,-0.117
43.775,-0.118
43.780,-0.100
43.785,-0.082
43.790,-0.079
43.795,-0.077
43.800,-0.086
43.805,-0.109
43.810,-0.112
43.815,-0.094
43.820,-0.064
43.825,-0.046
43.830,-0.053
43.835,-0.054
43.840,-0.030
43.845,0.000
43.850,0.026
43.855,0.044
43.860,0.039
43.865,0.025
43.870,0.023
43.875,0.035
43.880,0.068
43.885,0.091
43.890,0.077
43.895,0.055
43.900,0.043
43.905,0.027
43.910,0.005
43.915,-0.013
43.920,-0.022
43.925,-0.027
43.930,-0.044
43.935,-0.069
43.940,-0.099
43.945,-0.116
43.950,-0.116
43.955,-0.101
43.960,-0.071
43.965,-0.062
43.970,-0.076
43.975,-0.084
43.980,-0.078
43.985,-0.073
43.990,-0.083
43.995,-0.128
44.000,-0.183
44.005,-0.175
44.010,-0.123
44.015,-0.044
44.020,0.087
44.025,0.276
44.030,0.595
44.035,0.842
44.040,0.760
44.045,0.521
44.050,0.261
44.055,0.053
44.060,-0.029
44.065,-0.109
44.070,-0.163
44.075,-0.145
44.080,-0.139
44.085,-0.132
44.090,-0.114
44.095,-0.118
44.100,-0.132
44.105,-0.121
44.110,-0.107
44.115,-0.106
44.120,-0.096
44.125,-0.094
44.130,-0.101
44.135,-0.091
44.140,-0.067
44.145,-0.048
44.150,-0.052
44.155,-0.057
44.160,-0.055
44.165,-0.053
44.170,-0.035
44.175,-0.022
44.180,-0.026
44.185,-0.019
44.190,-0.006
44.195,0.004
44.200,0.008
44.205,0.003
44.210,-0.006
44.215,0.000
44.220,0.020
44.225,0.033
44.230,0.045
44.235,0.059
44.240,0.072
44.245,0.093
44.250,0.091
44.255,0.073
44.260,0.076
44.265,0.084
44.270,0.089
44.275,0.085
44.280,0.055
44.285,0.015
44.290,-0.009
44.295,-0.025
44.300,-0.046
44.305,-0.073
44.310,-0.114
44.315,-0.146
44.320,-0.146
44.325,-0.142
44.330,-0.140
44.335,-0.146
44.340,-0.164
44.345,-0.169
44.350,-0.163
44.355,-0.160
44.360,-0.163
44.365,-0.158
44.370,-0.133
44.375,-0.106
44.380,-0.093
44.385,-0.099
44.390,-0.106
44.395,-0.099
44.400,-0.110
44.405,-0.124
44.410,-0.105
44.415,-0.083
44.420,-0.070
44.425,-0.058
44.430,-0.046
44.435,-0.040
44.440,-0.053
44.445,-0.067
44.450,-0.069
44.455,-0.053
44.460,-0.039
44.465,-0.037
44.470,-0.035
44.475,-0.037
44.480,-0.028
44.485,-0.008
44.490,0.015
44.495,0.048
44.500,0.068
44.505,0.075
44.510,0.077
44.515,0.063
44.520,0.047
44.525,0.049
44.530,0.069
44.535,0.098
44.540,0.105
44.545,0.092
44.550,0.077
44.555,0.057
44.560,0.030
44.565,-0.001
44.570,-0.016
44.575,-0.021
44.580,-0.034
44.585,-0.050
44.590,-0.070
44.595,-0.073
44.600,-0.069
44.605,-0.075
44.610,-0.074
44.615,-0.071
44.620,-0.069
44.625,-0.067
44.630,-0.061
44.635,-0.054
44.640,-0.063
44.645,-0.114
44.650,-0.171
44.655,-0.164
44.660,-0.096
44.665,0.013
44.670,0.155
44.675,0.375
44.680,0.711
44.685,0.865
44.690,0.701
44.695,0.463
44.700,0.205
44.705,0.038
44.710,-0.042
44.715,-0.149
44.720,-0.162
44.725,-0.117
44.730,-0.103
44.735,-0.089
44.740,-0.088
44.745,-0.110
44.750,-0.117
44.755,-0.098
44.760,-0.091
44.765,-0.081
44.770,-0.054
44.775,-0.058
44.780,-0.080
44.785,-0.079
44.790,-0.067
44.795,-0.050
44.800,-0.029
44.805,-0.027
44.810,-0.037
44.815,-0.035
44.820,-0.026
44.825,-0.023
44.830,-0.017
44.835,0.001
44.840,0.020
44.845,0.020
44.850,0.003
44.855,0.007
44.860,0.030
44.865,0.046
44.870,0.045
44.875,0.049
44.880,0.067
44.885,0.063
44.890,0.055
44.895,0.066
44.900,0.076
44.905,0.089
44.910,0.105
44.915,0.112
44.920,0.110
44.925,0.089
44.930,0.058
44.935,0.033
