'Elapsed time','ECG'
'seconds','mV'
0.000,0.264
0.005,0.233
0.010,0.352
0.015,0.411
0.020,0.197
0.025,0.188
0.030,0.396
0.035,0.223
0.040,0.072
0.045,0.283
0.050,0.252
0.055,0.019
0.060,0.155
0.065,0.264
0.070,0.013
0.075,0.014
0.080,0.225
0.085,0.061
0.090,-0.067
0.095,0.168
0.100,0.138
0.105,-0.104
0.110,0.044
0.115,0.166
0.120,-0.071
0.125,-0.056
0.130,0.167
0.135,0.015
0.140,-0.118
0.145,0.103
0.150,0.085
0.155,-0.137
0.160,0.007
0.165,0.130
0.170,-0.105
0.175,-0.095
0.180,0.128
0.185,-0.026
0.190,-0.168
0.195,0.051
0.200,0.027
0.205,-0.215
0.210,-0.085
0.215,0.028
0.220,-0.216
0.225,-0.205
0.230,0.013
0.235,-0.148
0.240,-0.273
0.245,-0.017
0.250,0.001
0.255,-0.205
0.260,-0.056
0.265,0.076
0.270,-0.140
0.275,-0.122
0.280,0.101
0.285,-0.049
0.290,-0.188
0.295,0.040
0.300,0.034
0.305,-0.191
0.310,-0.047
0.315,0.082
0.320,-0.153
0.325,-0.147
0.330,0.104
0.335,0.020
0.340,-0.102
0.345,0.005
0.350,-0.275
0.355,-0.923
0.360,-1.212
0.365,-1.255
0.370,-1.258
0.375,-0.802
0.380,-0.192
0.385,-0.042
0.390,0.014
0.395,0.278
0.400,0.256
0.405,0.022
0.410,0.174
0.415,0.329
0.420,0.103
0.425,0.090
0.430,0.299
0.435,0.154
0.440,0.013
0.445,0.233
0.450,0.224
0.455,-0.009
0.460,0.125
0.465,0.255
0.470,0.018
0.475,0.009
0.480,0.229
0.485,0.079
0.490,-0.073
0.495,0.148
0.500,0.142
0.505,-0.102
0.510,0.025
0.515,0.163
0.520,-0.069
0.525,-0.073
0.530,0.146
0.535,-0.012
0.540,-0.169
0.545,0.052
0.550,0.045
0.555,-0.202
0.560,-0.082
0.565,0.048
0.570,-0.198
0.575,-0.226
0.580,-0.019
0.585,-0.179
0.590,-0.353
0.595,-0.153
0.600,-0.170
0.605,-0.420
0.610,-0.295
0.615,-0.161
0.620,-0.394
0.625,-0.394
0.630,-0.143
0.635,-0.236
0.640,-0.320
0.645,-0.026
0.650,0.048
0.655,-0.116
0.660,0.075
0.665,0.263
0.670,0.073
0.675,0.088
0.680,0.327
0.685,0.204
0.690,0.073
0.695,0.301
0.700,0.294
0.705,0.053
0.710,0.180
0.715,0.320
0.720,0.091
0.725,0.080
0.730,0.299
0.735,0.148
0.740,-0.010
0.745,0.213
0.750,0.218
0.755,-0.017
0.760,0.111
0.765,0.249
0.770,0.016
0.775,0.001
0.780,0.225
0.785,0.089
0.790,-0.074
0.795,0.133
0.800,0.144
0.805,-0.090
0.810,0.035
0.815,0.184
0.820,-0.048
0.825,-0.069
0.830,0.160
0.835,0.028
0.840,-0.130
0.845,0.092
0.850,0.105
0.855,-0.131
0.860,-0.001
0.865,0.155
0.870,-0.067
0.875,-0.082
0.880,0.143
0.885,0.011
0.890,-0.139
0.895,0.089
0.900,0.102
0.905,-0.143
0.910,-0.018
0.915,0.144
0.920,-0.081
0.925,-0.106
0.930,0.128
0.935,0.006
0.940,-0.151
0.945,0.069
0.950,0.081
0.955,-0.158
0.960,-0.028
0.965,0.126
0.970,-0.103
0.975,-0.121
0.980,0.115
0.985,-0.013
0.990,-0.169
0.995,0.050
1.000,0.064
1.005,-0.165
1.010,-0.034
1.015,0.118
1.020,-0.111
1.025,-0.134
1.030,0.103
1.035,-0.025
1.040,-0.194
1.045,0.035
1.050,0.072
1.055,-0.170
1.060,-0.073
1.065,0.065
1.070,-0.154
1.075,-0.179
1.080,0.044
1.085,-0.079
1.090,-0.247
1.095,-0.039
1.100,-0.012
1.105,-0.231
1.110,-0.083
1.115,0.116
1.120,-0.076
1.125,-0.093
1.130,0.147
1.135,0.042
1.140,-0.109
1.145,0.104
1.150,0.128
1.155,-0.103
1.160,0.013
1.165,0.171
1.170,-0.047
1.175,-0.077
1.180,0.148
1.185,0.029
1.190,-0.115
1.195,0.142
1.200,0.217
1.205,-0.066
1.210,-0.173
1.215,-0.367
1.220,-1.009
1.225,-1.368
1.230,-1.114
1.235,-0.825
1.240,-0.549
1.245,-0.029
1.250,0.241
1.255,0.100
1.260,0.220
1.265,0.386
1.270,0.168
1.275,0.156
1.280,0.401
1.285,0.284
1.290,0.113
1.295,0.320
1.300,0.340
1.305,0.092
1.310,0.199
1.315,0.353
1.320,0.121
1.325,0.080
1.330,0.303
1.335,0.179
1.340,0.007
1.345,0.212
1.350,0.234
1.355,-0.011
1.360,0.091
1.365,0.247
1.370,0.023
1.375,-0.023
1.380,0.202
1.385,0.086
1.390,-0.092
1.395,0.110
1.400,0.136
1.405,-0.112
1.410,-0.013
1.415,0.141
1.420,-0.101
1.425,-0.161
1.430,0.066
1.435,-0.061
1.440,-0.253
1.445,-0.059
1.450,-0.043
1.455,-0.305
1.460,-0.226
1.465,-0.079
1.470,-0.307
1.475,-0.359
1.480,-0.131
1.485,-0.239
1.490,-0.400
1.495,-0.160
1.500,-0.068
1.505,-0.245
1.510,-0.072
1.515,0.172
1.520,0.018
1.525,0.027
1.530,0.305
1.535,0.235
1.540,0.088
1.545,0.310
1.550,0.363
1.555,0.130
1.560,0.226
1.565,0.391
1.570,0.169
1.575,0.111
1.580,0.340
1.585,0.230
1.590,0.043
1.595,0.245
1.600,0.280
1.605,0.031
1.610,0.132
1.615,0.299
1.620,0.077
1.625,0.024
1.630,0.251
1.635,0.139
1.640,-0.040
1.645,0.164
1.650,0.206
1.655,-0.045
1.660,0.041
1.665,0.211
1.670,-0.001
1.675,-0.053
1.680,0.179
1.685,0.074
1.690,-0.111
1.695,0.090
1.700,0.134
1.705,-0.106
1.710,-0.010
1.715,0.157
1.720,-0.060
1.725,-0.115
1.730,0.125
1.735,0.030
1.740,-0.157
1.745,0.042
1.750,0.089
1.755,-0.142
1.760,-0.032
1.765,0.144
1.770,-0.076
1.775,-0.141
1.780,0.086
1.785,-0.002
1.790,-0.172
1.795,0.033
1.800,0.085
1.805,-0.158
1.810,-0.072
1.815,0.107
1.820,-0.101
1.825,-0.156
1.830,0.087
1.835,-0.002
1.840,-0.180
1.845,0.016
1.850,0.060
1.855,-0.179
1.860,-0.086
1.865,0.096
1.870,-0.107
1.875,-0.165
1.880,0.071
1.885,-0.018
1.890,-0.202
1.895,-0.004
1.900,0.043
1.905,-0.202
1.910,-0.107
1.915,0.075
1.920,-0.137
1.925,-0.196
1.930,0.031
1.935,-0.072
1.940,-0.263
1.945,-0.075
1.950,-0.014
1.955,-0.240
1.960,-0.156
1.965,0.021
1.970,-0.168
1.975,-0.198
1.980,0.068
1.985,0.004
1.990,-0.161
1.995,0.049
2.000,0.108
2.005,-0.131
2.010,-0.042
2.015,0.141
2.020,-0.063
2.025,-0.119
2.030,0.130
2.035,0.045
2.040,-0.149
2.045,0.045
2.050,0.109
2.055,-0.121
2.060,-0.011
2.065,0.221
2.070,0.025
2.075,-0.171
2.080,-0.210
2.085,-0.673
2.090,-1.252
2.095,-1.228
2.100,-0.935
2.105,-0.730
2.110,-0.298
2.115,0.146
2.120,0.119
2.125,0.104
2.130,0.354
2.135,0.273
2.140,0.100
2.145,0.320
2.150,0.385
2.155,0.144
2.160,0.224
2.165,0.401
2.170,0.192
2.175,0.122
2.180,0.355
2.185,0.262
2.190,0.058
2.195,0.242
2.200,0.301
2.205,0.056
2.210,0.128
2.215,0.308
2.220,0.101
2.225,0.025
2.230,0.265
2.235,0.176
2.240,-0.043
2.245,0.134
2.250,0.200
2.255,-0.041
2.260,0.034
2.265,0.211
2.270,-0.002
2.275,-0.082
2.280,0.144
2.285,0.056
2.290,-0.146
2.295,0.029
2.300,0.073
2.305,-0.190
2.310,-0.138
2.315,0.026
2.320,-0.188
2.325,-0.281
2.330,-0.071
2.335,-0.173
2.340,-0.397
2.345,-0.218
2.350,-0.137
2.355,-0.378
2.360,-0.284
2.365,-0.041
2.370,-0.189
2.375,-0.207
2.380,0.102
2.385,0.100
2.390,-0.035
2.395,0.198
2.400,0.315
2.405,0.112
2.410,0.197
2.415,0.393
2.420,0.204
2.425,0.125
2.430,0.363
2.435,0.288
2.440,0.075
2.445,0.245
2.450,0.317
2.455,0.072
2.460,0.124
2.465,0.301
2.470,0.103
2.475,0.019
2.480,0.246
2.485,0.167
2.490,-0.039
2.495,0.138
2.500,0.212
2.505,-0.032
2.510,0.024
2.515,0.211
2.520,0.022
2.525,-0.065
2.530,0.167
2.535,0.097
2.540,-0.108
2.545,0.077
2.550,0.154
2.555,-0.093
2.560,-0.031
2.565,0.167
2.570,-0.026
2.575,-0.115
2.580,0.120
2.585,0.057
2.590,-0.137
2.595,0.051
2.600,0.134
2.605,-0.109
2.610,-0.055
2.615,0.143
2.620,-0.046
2.625,-0.136
2.630,0.109
2.635,0.047
2.640,-0.162
2.645,0.019
2.650,0.088
2.655,-0.171
2.660,-0.107
2.665,0.103
2.670,-0.088
2.675,-0.183
2.680,0.055
2.685,-0.004
2.690,-0.204
2.695,-0.011
2.700,0.082
2.705,-0.161
2.710,-0.100
2.715,0.107
2.720,-0.077
2.725,-0.167
2.730,0.072
2.735,0.016
2.740,-0.180
2.745,0.014
2.750,0.105
2.755,-0.138
2.760,-0.076
2.765,0.133
2.770,-0.068
2.775,-0.186
2.780,0.039
2.785,-0.026
2.790,-0.231
2.795,-0.047
2.800,0.046
2.805,-0.179
2.810,-0.121
2.815,0.070
2.820,-0.107
2.825,-0.182
2.830,0.084
2.835,0.065
2.840,-0.116
2.845,0.063
2.850,0.146
2.855,-0.084
2.860,-0.020
2.865,0.180
2.870,-0.004
2.875,-0.098
2.880,0.136
2.885,0.081
2.890,-0.119
2.895,0.056
2.900,0.141
2.905,-0.096
2.910,-0.041
2.915,0.184
2.920,0.054
2.925,-0.021
2.930,0.130
2.935,-0.146
2.940,-0.729
2.945,-0.983
2.950,-1.139
2.955,-1.255
2.960,-0.783
2.965,-0.182
2.970,-0.080
2.975,0.040
2.980,0.336
2.985,0.271
2.990,0.066
2.995,0.237
3.000,0.335
3.005,0.102
3.010,0.152
3.015,0.360
3.020,0.172
3.025,0.058
3.030,0.292
3.035,0.245
3.040,0.028
3.045,0.190
3.050,0.278
3.055,0.025
3.060,0.059
3.065,0.262
3.070,0.074
3.075,-0.037
3.080,0.195
3.085,0.141
3.090,-0.082
3.095,0.090
3.100,0.194
3.105,-0.049
3.110,-0.016
3.115,0.192
3.120,0.016
3.125,-0.104
3.130,0.120
3.135,0.067
3.140,-0.163
3.145,-0.003
3.150,0.088
3.155,-0.180
3.160,-0.161
3.165,0.035
3.170,-0.161
3.175,-0.298
3.180,-0.097
3.185,-0.155
3.190,-0.368
3.195,-0.221
3.200,-0.136
3.205,-0.377
3.210,-0.352
3.215,-0.127
3.220,-0.253
3.225,-0.314
3.230,-0.019
3.235,0.007
3.240,-0.141
3.245,0.093
3.250,0.250
3.255,0.046
3.260,0.106
3.265,0.334
3.270,0.168
3.275,0.054
3.280,0.289
3.285,0.268
3.290,0.063
3.295,0.217
3.300,0.317
3.305,0.080
3.310,0.109
3.315,0.324
3.320,0.160
3.325,0.044
3.330,0.270
3.335,0.221
3.340,-0.006
3.345,0.161
3.350,0.268
3.355,0.016
3.360,0.040
3.365,0.250
3.370,0.078
3.375,-0.032
3.380,0.203
3.385,0.164
3.390,-0.060
3.395,0.098
3.400,0.209
3.405,-0.026
3.410,0.002
3.415,0.209
3.420,0.038
3.425,-0.080
3.430,0.148
3.435,0.116
3.440,-0.095
3.445,0.067
3.450,0.177
3.455,-0.055
3.460,-0.024
3.465,0.188
3.470,0.026
3.475,-0.084
3.480,0.150
3.485,0.118
3.490,-0.097
3.495,0.061
3.500,0.168
3.505,-0.067
3.510,-0.037
3.515,0.181
3.520,0.016
3.525,-0.106
3.530,0.126
3.535,0.098
3.540,-0.124
3.545,0.030
3.550,0.148
3.555,-0.086
3.560,-0.063
3.565,0.153
3.570,-0.015
3.575,-0.138
3.580,0.100
3.585,0.074
3.590,-0.160
3.595,-0.025
3.600,0.073
3.605,-0.178
3.610,-0.159
3.615,0.062
3.620,-0.111
3.625,-0.240
3.630,-0.002
3.635,-0.028
3.640,-0.247
3.645,-0.073
3.650,0.074
3.655,-0.129
3.660,-0.082
3.665,0.153
3.670,-0.004
3.675,-0.120
3.680,0.120
3.685,0.092
3.690,-0.135
3.695,0.025
3.700,0.151
3.705,-0.086
3.710,-0.071
3.715,0.144
3.720,-0.017
3.725,-0.147
3.730,0.081
3.735,0.064
3.740,-0.130
3.745,0.077
3.750,0.200
3.755,-0.173
3.760,-0.452
3.765,-0.656
3.770,-1.214
3.775,-1.471
3.780,-0.955
3.785,-0.505
3.790,-0.363
3.795,0.073
3.800,0.355
3.805,0.128
3.810,0.125
3.815,0.338
3.820,0.198
3.825,0.086
3.830,0.314
3.835,0.294
3.840,0.067
3.845,0.208
3.850,0.331
3.855,0.097
3.860,0.100
3.865,0.314
3.870,0.155
3.875,0.014
3.880,0.231
3.885,0.211
3.890,-0.016
3.895,0.123
3.900,0.240
3.905,0.001
3.910,0.005
3.915,0.215
3.920,0.052
3.925,-0.092
3.930,0.128
3.935,0.111
3.940,-0.122
3.945,0.013
3.950,0.129
3.955,-0.117
3.960,-0.121
3.965,0.087
3.970,-0.079
3.975,-0.229
3.980,-0.018
3.985,-0.049
3.990,-0.298
3.995,-0.175
4.000,-0.067
4.005,-0.320
4.010,-0.329
4.015,-0.119
4.020,-0.278
4.025,-0.421
4.030,-0.196
4.035,-0.195
4.040,-0.391
4.045,-0.199
4.050,-0.001
4.055,-0.159
4.060,-0.084
4.065,0.206
4.070,0.120
4.075,0.032
4.080,0.298
4.085,0.312
4.090,0.099
4.095,0.254
4.100,0.392
4.105,0.159
4.110,0.159
4.115,0.382
4.120,0.232
4.125,0.081
4.130,0.296
4.135,0.285
4.140,0.046
4.145,0.174
4.150,0.308
4.155,0.074
4.160,0.068
4.165,0.289
4.170,0.137
4.175,-0.013
4.180,0.204
4.185,0.190
4.190,-0.045
4.195,0.093
4.200,0.229
4.205,-0.003
4.210,-0.012
4.215,0.204
4.220,0.053
4.225,-0.096
4.230,0.128
4.235,0.125
4.240,-0.111
4.245,0.023
4.250,0.161
4.255,-0.071
4.260,-0.077
4.265,0.147
4.270,0.005
4.275,-0.141
4.280,0.081
4.285,0.082
4.290,-0.150
4.295,-0.017
4.300,0.127
4.305,-0.100
4.310,-0.106
4.315,0.122
4.320,-0.019
4.325,-0.167
4.330,0.061
4.335,0.065
4.340,-0.170
4.345,-0.038
4.350,0.106
4.355,-0.123
4.360,-0.132
4.365,0.097
4.370,-0.038
4.375,-0.186
4.380,0.037
4.385,0.040
4.390,-0.190
4.395,-0.049
4.400,0.098
4.405,-0.133
4.410,-0.141
4.415,0.096
4.420,-0.025
4.425,-0.172
4.430,0.036
4.435,0.018
4.440,-0.230
4.445,-0.094
4.450,0.059
4.455,-0.173
4.460,-0.192
4.465,0.041
4.470,-0.077
4.475,-0.226
4.480,-0.013
4.485,0.009
4.490,-0.188
4.495,-0.030
4.500,0.131
4.505,-0.081
4.510,-0.082
4.515,0.148
4.520,0.010
4.525,-0.145
4.530,0.082
4.535,0.099
4.540,-0.139
4.545,-0.010
4.550,0.146
4.555,-0.082
4.560,-0.101
4.565,0.140
4.570,0.045
4.575,-0.060
4.580,0.138
4.585,-0.015
4.590,-0.556
4.595,-0.844
4.600,-1.073
4.605,-1.384
4.610,-1.076
4.615,-0.387
4.620,-0.175
4.625,-0.067
4.630,0.293
4.635,0.325
4.640,0.087
4.645,0.211
4.650,0.381
4.655,0.174
4.660,0.155
4.665,0.383
4.670,0.250
4.675,0.081
4.680,0.292
4.685,0.303
4.690,0.063
4.695,0.182
4.700,0.329
4.705,0.099
4.710,0.071
4.715,0.298
4.720,0.165
4.725,-0.006
4.730,0.203
4.735,0.220
4.740,-0.017
4.745,0.097
4.750,0.247
4.755,0.015
4.760,-0.019
4.765,0.205
4.770,0.067
4.775,-0.101
4.780,0.112
4.785,0.118
4.790,-0.130
4.795,-0.024
4.800,0.116
4.805,-0.120
4.810,-0.166
4.815,0.044
4.820,-0.098
4.825,-0.284
4.830,-0.093
4.835,-0.091
4.840,-0.347
4.845,-0.250
4.850,-0.103
4.855,-0.333
4.860,-0.365
4.865,-0.117
4.870,-0.207
4.875,-0.325
4.880,-0.043
4.885,0.057
4.890,-0.113
4.895,0.063
4.900,0.280
4.905,0.105
4.910,0.110
4.915,0.370
4.920,0.266
4.925,0.105
4.930,0.326
4.935,0.350
4.940,0.105
4.945,0.219
4.950,0.377
4.955,0.147
4.960,0.109
4.965,0.332
4.970,0.203
4.975,0.029
4.980,0.236
4.985,0.255
4.990,0.006
4.995,0.111
5.000,0.272
5.005,0.051
5.010,0.006
5.015,0.235
5.020,0.117
5.025,-0.060
5.030,0.144
5.035,0.171
5.040,-0.076
5.045,0.022
5.050,0.190
5.055,-0.028
5.060,-0.073
5.065,0.160
5.070,0.044
5.075,-0.131
5.080,0.075
5.085,0.105
5.090,-0.134
5.095,-0.031
5.100,0.137
5.105,-0.075
5.110,-0.117
5.115,0.116
5.120,0.003
5.125,-0.167
5.130,0.050
5.135,0.085
5.140,-0.156
5.145,-0.050
5.150,0.121
5.155,-0.091
5.160,-0.132
5.165,0.107
5.170,0.001
5.175,-0.175
5.180,0.034
5.185,0.071
5.190,-0.163
5.195,-0.054
5.200,0.113
5.205,-0.102
5.210,-0.142
5.215,0.092
5.220,-0.015
5.225,-0.186
5.230,0.024
5.235,0.065
5.240,-0.168
5.245,-0.064
5.250,0.105
5.255,-0.107
5.260,-0.149
5.265,0.091
5.270,-0.011
5.275,-0.186
5.280,0.023
5.285,0.068
5.290,-0.166
5.295,-0.061
5.300,0.119
5.305,-0.094
5.310,-0.166
5.315,0.041
5.320,-0.078
5.325,-0.246
5.330,-0.020
5.335,0.025
5.340,-0.217
5.345,-0.114
5.350,0.065
5.355,-0.146
5.360,-0.197
5.365,0.062
5.370,0.001
5.375,-0.151
5.380,0.068
5.385,0.124
5.390,-0.111
5.395,-0.010
5.400,0.167
5.405,-0.045
5.410,-0.095
5.415,0.146
5.420,0.049
5.425,-0.131
5.430,0.075
5.435,0.123
5.440,-0.119
5.445,-0.022
5.450,0.178
5.455,0.021
5.460,-0.017
5.465,0.102
5.470,-0.261
5.475,-0.825
5.480,-1.030
5.485,-1.181
5.490,-1.222
5.495,-0.675
5.500,-0.111
5.505,-0.052
5.510,0.069
5.515,0.356
5.520,0.264
5.525,0.089
5.530,0.306
5.535,0.376
5.540,0.138
5.545,0.223
5.550,0.395
5.555,0.186
5.560,0.125
5.565,0.351
5.570,0.247
5.575,0.054
5.580,0.250
5.585,0.296
5.590,0.045
5.595,0.129
5.600,0.302
5.605,0.086
5.610,0.016
5.615,0.247
5.620,0.149
5.625,-0.045
5.630,0.148
5.635,0.198
5.640,-0.049
5.645,0.025
5.650,0.195
5.655,-0.014
5.660,-0.083
5.665,0.143
5.670,0.043
5.675,-0.157
5.680,0.025
5.685,0.068
5.690,-0.190
5.695,-0.125
5.700,0.038
5.705,-0.186
5.710,-0.269
5.715,-0.053
5.720,-0.162
5.725,-0.369
5.730,-0.186
5.735,-0.140
5.740,-0.387
5.745,-0.298
5.750,-0.096
5.755,-0.262
5.760,-0.274
5.765,0.027
5.770,0.012
5.775,-0.112
5.780,0.142
5.785,0.255
5.790,0.056
5.795,0.168
5.800,0.376
5.805,0.188
5.810,0.127
5.815,0.364
5.820,0.279
5.825,0.088
5.830,0.279
5.835,0.337
5.840,0.087
5.845,0.156
5.850,0.335
5.855,0.126
5.860,0.050
5.865,0.279
5.870,0.187
5.875,-0.010
5.880,0.177
5.885,0.236
5.890,-0.007
5.895,0.064
5.900,0.243
5.905,0.039
5.910,-0.036
5.915,0.196
5.920,0.104
5.925,-0.098
5.930,0.099
5.935,0.171
5.940,-0.075
5.945,-0.008
5.950,0.172
5.955,-0.035
5.960,-0.112
5.965,0.124
5.970,0.047
5.975,-0.143
5.980,0.049
5.985,0.114
5.990,-0.128
5.995,-0.054
6.000,0.138
6.005,-0.057
6.010,-0.133
6.015,0.105
6.020,0.033
6.025,-0.160
6.030,0.034
6.035,0.107
6.040,-0.133
6.045,-0.056
6.050,0.141
6.055,-0.054
6.060,-0.135
6.065,0.105
6.070,0.035
6.075,-0.163
6.080,0.027
6.085,0.099
6.090,-0.150
6.095,-0.082
6.100,0.119
6.105,-0.067
6.110,-0.144
6.115,0.088
6.120,0.013
6.125,-0.185
6.130,0.005
6.135,0.088
6.140,-0.140
6.145,-0.060
6.150,0.131
6.155,-0.079
6.160,-0.167
6.165,0.070
6.170,-0.004
6.175,-0.201
6.180,-0.010
6.185,0.062
6.190,-0.200
6.195,-0.149
6.200,0.043
6.205,-0.164
6.210,-0.259
6.215,-0.013
6.220,-0.066
6.225,-0.268
6.230,-0.090
6.235,0.005
6.240,-0.194
6.245,-0.101
6.250,0.099
6.255,-0.083
6.260,-0.161
6.265,0.079
6.270,0.030
6.275,-0.158
6.280,0.020
6.285,0.094
6.290,-0.144
6.295,-0.083
6.300,0.115
6.305,-0.072
6.310,-0.167
6.315,0.076
6.320,0.049
6.325,-0.100
6.330,0.081
6.335,0.030
6.340,-0.480
6.345,-0.811
6.350,-1.024
6.355,-1.395
6.360,-1.247
6.365,-0.533
6.370,-0.216
6.375,-0.146
6.380,0.217
6.385,0.330
6.390,0.066
6.395,0.124
6.400,0.354
6.405,0.195
6.410,0.106
6.415,0.337
6.420,0.269
6.425,0.058
6.430,0.245
6.435,0.332
6.440,0.086
6.445,0.140
6.450,0.327
6.455,0.128
6.460,0.033
6.465,0.261
6.470,0.192
6.475,-0.018
6.480,0.157
6.485,0.239
6.490,-0.013
6.495,0.029
6.500,0.228
6.505,0.047
6.510,-0.046
6.515,0.191
6.520,0.136
6.525,-0.071
6.530,0.099
6.535,0.177
6.540,-0.068
6.545,-0.019
6.550,0.174
6.555,-0.021
6.560,-0.132
6.565,0.087
6.570,0.010
6.575,-0.219
6.580,-0.060
6.585,0.016
6.590,-0.250
6.595,-0.237
6.600,-0.053
6.605,-0.234
6.610,-0.329
6.615,-0.085
6.620,-0.109
6.625,-0.275
6.630,-0.063
6.635,0.085
6.640,-0.070
6.645,0.062
6.650,0.330
6.655,0.193
6.660,0.123
6.665,0.386
6.670,0.358
6.675,0.167
6.680,0.350
6.685,0.438
6.690,0.183
6.695,0.226
6.700,0.438
6.705,0.264
6.710,0.150
6.715,0.354
6.720,0.281
6.725,0.061
6.730,0.236
6.735,0.332
6.740,0.075
6.745,0.108
6.750,0.317
6.755,0.114
6.760,-0.020
6.765,0.215
6.770,0.162
6.775,-0.072
6.780,0.087
6.785,0.176
6.790,-0.067
6.795,-0.016
6.800,0.199
6.805,0.008
6.810,-0.111
6.815,0.119
6.820,0.065
6.825,-0.148
6.830,0.023
6.835,0.122
6.840,-0.116
6.845,-0.076
6.850,0.138
6.855,-0.023
6.860,-0.120
6.865,0.116
6.870,0.067
6.875,-0.146
6.880,0.032
6.885,0.141
6.890,-0.100
6.895,-0.067
6.900,0.142
6.905,-0.037
6.910,-0.154
6.915,0.084
6.920,0.053
6.925,-0.158
6.930,0.009
6.935,0.113
6.940,-0.133
6.945,-0.105
6.950,0.110
6.955,-0.053
6.960,-0.154
6.965,0.080
6.970,0.038
6.975,-0.169
6.980,0.009
6.985,0.114
6.990,-0.129
6.995,-0.090
7.000,0.126
7.005,-0.033
7.010,-0.131
7.015,0.098
7.020,0.040
7.025,-0.201
7.030,-0.050
7.035,0.064
7.040,-0.168
7.045,-0.146
7.050,0.051
7.055,-0.116
7.060,-0.215
7.065,0.021
7.070,-0.020
7.075,-0.220
7.080,-0.022
7.085,0.112
7.090,-0.110
7.095,-0.071
7.100,0.147
7.105,-0.020
7.110,-0.138
7.115,0.099
7.120,0.076
7.125,-0.137
7.130,0.022
7.135,0.124
7.140,-0.122
7.145,-0.092
7.150,0.123
7.155,-0.048
7.160,-0.142
7.165,0.157
7.170,0.145
7.175,-0.190
7.180,-0.299
7.185,-0.607
7.190,-1.286
7.195,-1.445
7.200,-0.997
7.205,-0.694
7.210,-0.412
7.215,0.125
7.220,0.285
7.225,0.077
7.230,0.208
7.235,0.322
7.240,0.091
7.245,0.135
7.250,0.354
7.255,0.169
7.260,0.032
7.265,0.258
7.270,0.224
7.275,-0.006
7.280,0.142
7.285,0.253
7.290,0.016
7.295,0.041
7.300,0.258
7.305,0.089
7.310,-0.046
7.315,0.183
7.320,0.165
7.325,-0.060
7.330,0.084
7.335,0.194
7.340,-0.044
7.345,-0.022
7.350,0.194
7.355,0.023
7.360,-0.105
7.365,0.117
7.370,0.083
7.375,-0.138
7.380,0.011
7.385,0.121
7.390,-0.129
7.395,-0.134
7.400,0.067
7.405,-0.097
7.410,-0.236
7.415,-0.030
7.420,-0.070
7.425,-0.311
7.430,-0.180
7.435,-0.068
7.440,-0.312
7.445,-0.314
7.450,-0.102
7.455,-0.241
7.460,-0.331
7.465,-0.058
7.470,-0.028
7.475,-0.190
7.480,0.033
7.485,0.230
7.490,0.049
7.495,0.102
7.500,0.357
7.505,0.237
7.510,0.125
7.515,0.353
7.520,0.341
7.525,0.120
7.530,0.263
7.535,0.382
7.540,0.144
7.545,0.157
7.550,0.372
7.555,0.206
7.560,0.073
7.565,0.306
7.570,0.279
7.575,0.034
7.580,0.179
7.585,0.306
7.590,0.070
7.595,0.073
7.600,0.277
7.605,0.111
7.610,-0.034
7.615,0.189
7.620,0.165
7.625,-0.082
7.630,0.051
7.635,0.171
7.640,-0.063
7.645,-0.051
7.650,0.164
7.655,0.007
7.660,-0.125
7.665,0.114
7.670,0.109
7.675,-0.124
7.680,0.011
7.685,0.134
7.690,-0.102
7.695,-0.095
7.700,0.129
7.705,-0.023
7.710,-0.158
7.715,0.074
7.720,0.062
7.725,-0.172
7.730,-0.032
7.735,0.103
7.740,-0.126
7.745,-0.113
7.750,0.122
7.755,-0.035
7.760,-0.194
7.765,0.031
7.770,0.036
7.775,-0.181
7.780,-0.034
7.785,0.098
7.790,-0.141
7.795,-0.140
7.800,0.091
7.805,-0.051
7.810,-0.189
7.815,0.038
7.820,0.033
7.825,-0.183
7.830,-0.023
7.835,0.106
7.840,-0.153
7.845,-0.169
7.850,0.066
7.855,-0.048
7.860,-0.191
7.865,-0.002
7.870,-0.007
7.875,-0.207
7.880,-0.061
7.885,0.060
7.890,-0.167
7.895,-0.135
7.900,0.124
7.905,0.009
7.910,-0.111
7.915,0.109
7.920,0.094
7.925,-0.130
7.930,0.025
7.935,0.166
7.940,-0.082
7.945,-0.091
7.950,0.147
7.955,0.004
7.960,-0.139
7.965,0.099
7.970,0.096
7.975,-0.127
7.980,0.062
7.985,0.243
7.990,-0.066
7.995,-0.304
8.000,-0.447
8.005,-1.029
8.010,-1.466
8.015,-1.129
8.020,-0.668
8.025,-0.466
8.030,-0.028
8.035,0.353
8.040,0.180
8.045,0.136
8.050,0.362
8.055,0.228
8.060,0.092
8.065,0.321
8.070,0.323
8.075,0.091
8.080,0.218
8.085,0.349
8.090,0.111
8.095,0.098
8.100,0.326
8.105,0.181
8.110,0.014
8.115,0.233
8.120,0.241
8.125,0.001
8.130,0.129
8.135,0.265
8.140,0.014
8.145,-0.004
8.150,0.225
8.155,0.080
8.160,-0.077
8.165,0.137
8.170,0.138
8.175,-0.095
8.180,0.024
8.185,0.150
8.190,-0.082
8.195,-0.105
8.200,0.105
8.205,-0.035
8.210,-0.200
8.215,-0.009
8.220,-0.024
8.225,-0.270
8.230,-0.164
8.235,-0.043
8.240,-0.293
8.245,-0.330
8.250,-0.115
8.255,-0.260
8.260,-0.434
8.265,-0.227
8.270,-0.204
8.275,-0.403
8.280,-0.230
8.285,-0.025
8.290,-0.186
8.295,-0.139
8.300,0.163
8.305,0.110
8.310,0.011
8.315,0.265
8.320,0.308
8.325,0.097
8.330,0.231
8.335,0.387
8.340,0.172
8.345,0.151
8.350,0.365
8.355,0.228
8.360,0.073
8.365,0.286
8.370,0.295
8.375,0.059
8.380,0.172
8.385,0.312
8.390,0.084
8.395,0.061
8.400,0.285
8.405,0.149
8.410,-0.023
8.415,0.181
8.420,0.196
8.425,-0.034
8.430,0.086
8.435,0.233
8.440,0.005
8.445,-0.024
8.450,0.201
8.455,0.069
8.460,-0.099
8.465,0.111
8.470,0.127
8.475,-0.115
8.480,-0.003
8.485,0.156
8.490,-0.058
8.495,-0.087
8.500,0.126
8.505,-0.002
8.510,-0.154
8.515,0.065
8.520,0.088
8.525,-0.153
8.530,-0.039
8.535,0.133
8.540,-0.084
8.545,-0.123
8.550,0.107
8.555,-0.012
8.560,-0.177
8.565,0.039
8.570,0.067
8.575,-0.166
8.580,-0.054
8.585,0.103
8.590,-0.116
8.595,-0.138
8.600,0.108
8.605,-0.011
8.610,-0.184
8.615,0.026
8.620,0.051
8.625,-0.184
8.630,-0.064
8.635,0.111
8.640,-0.096
8.645,-0.134
8.650,0.093
8.655,-0.013
8.660,-0.178
8.665,0.024
8.670,0.051
8.675,-0.182
8.680,-0.064
8.685,0.110
8.690,-0.099
8.695,-0.147
8.700,0.052
8.705,-0.079
8.710,-0.234
8.715,-0.007
8.720,0.018
8.725,-0.230
8.730,-0.113
8.735,0.073
8.740,-0.146
8.745,-0.197
8.750,0.052
8.755,-0.025
8.760,-0.162
8.765,0.070
8.770,0.116
8.775,-0.110
8.780,-0.001
8.785,0.161
8.790,-0.048
8.795,-0.086
8.800,0.146
8.805,0.042
8.810,-0.134
8.815,0.072
8.820,0.112
8.825,-0.128
8.830,-0.020
8.835,0.178
8.840,0.020
8.845,-0.015
8.850,0.091
8.855,-0.285
8.860,-0.854
8.865,-1.069
8.870,-1.217
8.875,-1.222
8.880,-0.648
8.885,-0.089
8.890,-0.022
8.895,0.111
8.900,0.375
8.905,0.261
8.910,0.089
8.915,0.305
8.920,0.361
8.925,0.121
8.930,0.220
8.935,0.393
8.940,0.178
8.945,0.122
8.950,0.348
8.955,0.239
8.960,0.052
8.965,0.244
8.970,0.279
8.975,0.029
8.980,0.119
8.985,0.292
8.990,0.076
8.995,0.018
9.000,0.249
9.005,0.149
9.010,-0.036
9.015,0.155
9.020,0.193
9.025,-0.052
9.030,0.038
9.035,0.201
9.040,-0.023
9.045,-0.086
9.050,0.143
9.055,0.037
9.060,-0.159
9.065,0.029
9.070,0.069
9.075,-0.188
9.080,-0.118
9.085,0.039
9.090,-0.187
9.095,-0.264
9.100,-0.053
9.105,-0.173
9.110,-0.366
9.115,-0.170
9.120,-0.143
9.125,-0.400
9.130,-0.300
9.135,-0.097
9.140,-0.263
9.145,-0.261
9.150,0.047
9.155,0.025
9.160,-0.096
9.165,0.165
9.170,0.275
9.175,0.075
9.180,0.195
9.185,0.394
9.190,0.197
9.195,0.145
9.200,0.388
9.205,0.296
9.210,0.101
9.215,0.293
9.220,0.341
9.225,0.092
9.230,0.173
9.235,0.346
9.240,0.130
9.245,0.057
9.250,0.288
9.255,0.190
9.260,-0.003
9.265,0.198
9.270,0.250
9.275,-0.004
9.280,0.070
9.285,0.249
9.290,0.044
9.295,-0.027
9.300,0.205
9.305,0.116
9.310,-0.079
9.315,0.111
9.320,0.166
9.325,-0.078
9.330,0.002
9.335,0.185
9.340,-0.016
9.345,-0.085
9.350,0.142
9.355,0.054
9.360,-0.134
9.365,0.060
9.370,0.124
9.375,-0.119
9.380,-0.041
9.385,0.146
9.390,-0.058
9.395,-0.128
9.400,0.114
9.405,0.028
9.410,-0.169
9.415,0.032
9.420,0.095
9.425,-0.153
9.430,-0.070
9.435,0.125
9.440,-0.072
9.445,-0.144
9.450,0.090
9.455,0.010
9.460,-0.181
9.465,0.012
9.470,0.077
9.475,-0.163
9.480,-0.077
9.485,0.118
9.490,-0.081
9.495,-0.158
9.500,0.077
9.505,-0.001
9.510,-0.196
9.515,0.000
9.520,0.075
9.525,-0.157
9.530,-0.077
9.535,0.105
9.540,-0.100
9.545,-0.172
9.550,0.073
9.555,0.004
9.560,-0.191
9.565,-0.006
9.570,0.063
9.575,-0.171
9.580,-0.092
9.585,0.104
9.590,-0.100
9.595,-0.201
9.600,0.032
9.605,-0.033
9.610,-0.236
9.615,-0.058
9.620,0.019
9.625,-0.207
9.630,-0.134
9.635,0.052
9.640,-0.129
9.645,-0.175
9.650,0.099
9.655,0.045
9.660,-0.156
9.665,0.040
9.670,0.128
9.675,-0.109
9.680,-0.037
9.685,0.158
9.690,-0.039
9.695,-0.125
9.700,0.111
9.705,0.046
9.710,-0.149
9.715,0.040
9.720,0.121
9.725,-0.111
9.730,-0.007
9.735,0.232
9.740,-0.025
9.745,-0.335
9.750,-0.441
9.755,-0.912
9.760,-1.421
9.765,-1.197
9.770,-0.694
9.775,-0.496
9.780,-0.151
9.785,0.266
9.790,0.164
9.795,0.080
9.800,0.329
9.805,0.279
9.810,0.095
9.815,0.287
9.820,0.371
9.825,0.129
9.830,0.181
9.835,0.370
9.840,0.179
9.845,0.085
9.850,0.315
9.855,0.247
9.860,0.032
9.865,0.207
9.870,0.289
9.875,0.036
9.880,0.083
9.885,0.281
9.890,0.092
9.895,-0.007
9.900,0.225
9.905,0.161
9.910,-0.057
9.915,0.112
9.920,0.196
9.925,-0.049
9.930,-0.004
9.935,0.187
9.940,-0.008
9.945,-0.113
9.950,0.110
9.955,0.035
9.960,-0.188
9.965,-0.020
9.970,0.059
9.975,-0.203
9.980,-0.172
9.985,0.009
9.990,-0.197
9.995,-0.310
10.000,-0.088
10.005,-0.161
10.010,-0.386
10.015,-0.220
10.020,-0.122
10.025,-0.338
10.030,-0.261
10.035,-0.021
10.040,-0.141
10.045,-0.166
10.050,0.146
10.055,0.161
10.060,0.000
10.065,0.214
10.070,0.346
10.075,0.134
10.080,0.196
10.085,0.408
10.090,0.235
10.095,0.135
10.100,0.366
10.105,0.312
10.110,0.096
10.115,0.261
10.120,0.340
10.125,0.089
10.130,0.132
10.135,0.333
10.140,0.153
10.145,0.046
10.150,0.270
10.155,0.215
10.160,0.000
10.165,0.160
10.170,0.248
10.175,0.007
10.180,0.044
10.185,0.241
10.190,0.056
10.195,-0.050
10.200,0.180
10.205,0.118
10.210,-0.100
10.215,0.074
10.220,0.165
10.225,-0.078
10.230,-0.034
10.235,0.175
10.240,0.000
10.245,-0.105
10.250,0.134
10.255,0.088
10.260,-0.131
10.265,0.033
10.270,0.134
10.275,-0.099
10.280,-0.055
10.285,0.152
10.290,-0.029
10.295,-0.139
10.300,0.099
10.305,0.056
10.310,-0.169
10.315,-0.004
10.320,0.110
10.325,-0.121
10.330,-0.082
10.335,0.121
10.340,-0.058
10.345,-0.167
10.350,0.065
10.355,0.022
10.360,-0.181
10.365,-0.003
10.370,0.101
10.375,-0.143
10.380,-0.113
10.385,0.099
10.390,-0.066
10.395,-0.175
10.400,0.060
10.405,0.025
10.410,-0.188
10.415,-0.019
10.420,0.087
10.425,-0.154
10.430,-0.123
10.435,0.090
10.440,-0.078
10.445,-0.198
10.450,0.023
10.455,-0.014
10.460,-0.223
10.465,-0.068
10.470,0.024
10.475,-0.218
10.480,-0.176
10.485,0.049
10.490,-0.114
10.495,-0.215
10.500,0.051
10.505,0.044
10.510,-0.163
10.515,0.010
10.520,0.140
10.525,-0.086
10.530,-0.058
10.535,0.155
10.540,-0.012
10.545,-0.133
10.550,0.101
10.555,0.069
10.560,-0.152
10.565,0.014
10.570,0.125
10.575,-0.121
10.580,-0.080
10.585,0.188
10.590,0.073
10.595,-0.097
10.600,-0.066
10.605,-0.433
10.610,-1.074
10.615,-1.231
10.620,-1.082
10.625,-0.912
10.630,-0.445
10.635,0.079
10.640,0.149
10.645,0.097
10.650,0.304
10.655,0.277
10.660,0.066
10.665,0.240
10.670,0.363
10.675,0.119
10.680,0.136
10.685,0.354
10.690,0.194
10.695,0.062
10.700,0.278
10.705,0.238
10.710,0.014
10.715,0.167
10.720,0.273
10.725,0.029
10.730,0.045
10.735,0.268
10.740,0.116
10.745,-0.027
10.750,0.175
10.755,0.139
10.760,-0.086
10.765,0.073
10.770,0.202
10.775,-0.043
10.780,-0.049
10.785,0.157
10.790,-0.006
10.795,-0.137
10.800,0.089
10.805,0.063
10.810,-0.173
10.815,-0.041
10.820,0.062
10.825,-0.202
10.830,-0.212
10.835,-0.005
10.840,-0.182
10.845,-0.340
10.850,-0.128
10.855,-0.159
10.860,-0.405
10.865,-0.267
10.870,-0.144
10.875,-0.377
10.880,-0.342
10.885,-0.072
10.890,-0.171
10.895,-0.247
10.900,0.053
10.905,0.115
10.910,-0.044
10.915,0.159
10.920,0.333
10.925,0.131
10.930,0.168
10.935,0.411
10.940,0.258
10.945,0.125
10.950,0.356
10.955,0.338
10.960,0.105
10.965,0.236
10.970,0.358
10.975,0.125
10.980,0.126
10.985,0.348
10.990,0.196
10.995,0.048
11.000,0.268
11.005,0.247
11.010,-0.002
11.015,0.131
11.020,0.272
11.025,0.043
11.030,0.035
11.035,0.250
11.040,0.096
11.045,-0.053
11.050,0.175
11.055,0.175
11.060,-0.064
11.065,0.063
11.070,0.200
11.075,-0.025
11.080,-0.029
11.085,0.188
11.090,0.033
11.095,-0.117
11.100,0.106
11.105,0.099
11.110,-0.132
11.115,0.012
11.120,0.158
11.125,-0.073
11.130,-0.083
11.135,0.135
11.140,-0.007
11.145,-0.147
11.150,0.079
11.155,0.080
11.160,-0.153
11.165,-0.017
11.170,0.125
11.175,-0.109
11.180,-0.113
11.185,0.116
11.190,-0.023
11.195,-0.166
11.200,0.055
11.205,0.053
11.210,-0.173
11.215,-0.029
11.220,0.111
11.225,-0.122
11.230,-0.127
11.235,0.102
11.240,-0.036
11.245,-0.181
11.250,0.047
11.255,0.051
11.260,-0.181
11.265,-0.049
11.270,0.095
11.275,-0.129
11.280,-0.135
11.285,0.095
11.290,-0.040
11.295,-0.197
11.300,0.014
11.305,0.019
11.310,-0.218
11.315,-0.108
11.320,0.032
11.325,-0.186
11.330,-0.199
11.335,0.032
11.340,-0.093
11.345,-0.225
11.350,0.035
11.355,0.083
11.360,-0.134
11.365,-0.003
11.370,0.152
11.375,-0.069
11.380,-0.082
11.385,0.150
11.390,0.018
11.395,-0.139
11.400,0.075
11.405,0.093
11.410,-0.133
11.415,-0.004
11.420,0.154
11.425,-0.068
11.430,-0.068
11.435,0.218
11.440,0.116
11.445,-0.144
11.450,-0.190
11.455,-0.590
11.460,-1.261
11.465,-1.327
11.470,-0.945
11.475,-0.694
11.480,-0.319
11.485,0.195
11.490,0.243
11.495,0.101
11.500,0.298
11.505,0.313
11.510,0.081
11.515,0.218
11.520,0.379
11.525,0.155
11.530,0.128
11.535,0.356
11.540,0.228
11.545,0.059
11.550,0.264
11.555,0.273
11.560,0.034
11.565,0.152
11.570,0.298
11.575,0.070
11.580,0.042
11.585,0.265
11.590,0.132
11.595,-0.038
11.600,0.172
11.605,0.190
11.610,-0.045
11.615,0.068
11.620,0.214
11.625,-0.021
11.630,-0.057
11.635,0.171
11.640,0.043
11.645,-0.136
11.650,0.066
11.655,0.079
11.660,-0.171
11.665,-0.068
11.670,0.079
11.675,-0.159
11.680,-0.212
11.685,-0.003
11.690,-0.147
11.695,-0.331
11.700,-0.131
11.705,-0.119
11.710,-0.375
11.715,-0.280
11.720,-0.128
11.725,-0.336
11.730,-0.340
11.735,-0.064
11.740,-0.116
11.745,-0.214
11.750,0.062
11.755,0.158
11.760,-0.020
11.765,0.139
11.770,0.344
11.775,0.151
11.780,0.133
11.785,0.388
11.790,0.280
11.795,0.106
11.800,0.318
11.805,0.348
11.810,0.102
11.815,0.208
11.820,0.367
11.825,0.131
11.830,0.083
11.835,0.318
11.840,0.201
11.845,0.023
11.850,0.224
11.855,0.247
11.860,0.001
11.865,0.102
11.870,0.262
11.875,0.044
11.880,0.000
11.885,0.223
11.890,0.104
11.895,-0.071
11.900,0.131
11.905,0.156
11.910,-0.083
11.915,0.021
11.920,0.180
11.925,-0.039
11.930,-0.079
11.935,0.152
11.940,0.037
11.945,-0.139
11.950,0.068
11.955,0.104
11.960,-0.137
11.965,-0.036
11.970,0.138
11.975,-0.072
11.980,-0.117
11.985,0.115
11.990,0.008
11.995,-0.163
12.000,0.047
12.005,0.086
12.010,-0.153
12.015,-0.051
12.020,0.124
12.025,-0.084
12.030,-0.132
12.035,0.097
12.040,-0.008
12.045,-0.183
12.050,0.025
12.055,0.073
12.060,-0.165
12.065,-0.067
12.070,0.106
12.075,-0.108
12.080,-0.158
12.085,0.081
12.090,-0.015
12.095,-0.192
12.100,0.016
12.105,0.064
12.110,-0.177
12.115,-0.082
12.120,0.096
12.125,-0.108
12.130,-0.159
12.135,0.073
12.140,-0.040
12.145,-0.226
12.150,-0.016
12.155,0.019
12.160,-0.238
12.165,-0.142
12.170,0.036
12.175,-0.172
12.180,-0.226
12.185,0.016
12.190,-0.046
12.195,-0.188
12.200,0.039
12.205,0.108
12.210,-0.125
12.215,-0.033
12.220,0.150
12.225,-0.056
12.230,-0.114
12.235,0.128
12.240,0.038
12.245,-0.144
12.250,0.058
12.255,0.107
12.260,-0.135
12.265,-0.039
12.270,0.156
12.275,-0.006
12.280,-0.018
12.285,0.165
12.290,-0.132
12.295,-0.660
12.300,-0.895
12.305,-1.162
12.310,-1.368
12.315,-0.877
12.320,-0.246
12.325,-0.135
12.330,0.038
12.335,0.354
12.340,0.256
12.345,0.075
12.350,0.276
12.355,0.349
12.360,0.119
12.365,0.203
12.370,0.382
12.375,0.172
12.380,0.104
12.385,0.337
12.390,0.239
12.395,0.040
12.400,0.230
12.405,0.283
12.410,0.042
12.415,0.121
12.420,0.292
12.425,0.079
12.430,0.008
12.435,0.240
12.440,0.147
12.445,-0.049
12.450,0.146
12.455,0.203
12.460,-0.049
12.465,0.019
12.470,0.197
12.475,-0.010
12.480,-0.088
12.485,0.142
12.490,0.052
12.495,-0.148
12.500,0.035
12.505,0.081
12.510,-0.179
12.515,-0.120
12.520,0.045
12.525,-0.176
12.530,-0.268
12.535,-0.049
12.540,-0.148
12.545,-0.363
12.550,-0.187
12.555,-0.134
12.560,-0.384
12.565,-0.305
12.570,-0.099
12.575,-0.265
12.580,-0.292
12.585,0.008
12.590,0.007
12.595,-0.116
12.600,0.136
12.605,0.257
12.610,0.058
12.615,0.166
12.620,0.381
12.625,0.198
12.630,0.128
12.635,0.366
12.640,0.288
12.645,0.092
12.650,0.278
12.655,0.342
12.660,0.098
12.665,0.168
12.670,0.352
12.675,0.146
12.680,0.059
12.685,0.290
12.690,0.209
12.695,0.004
12.700,0.188
12.705,0.258
12.710,0.007
12.715,0.068
12.720,0.259
12.725,0.061
12.730,-0.030
12.735,0.197
12.740,0.116
12.745,-0.088
12.750,0.099
12.755,0.178
12.760,-0.064
12.765,-0.003
12.770,0.180
12.775,-0.020
12.780,-0.104
12.785,0.133
12.790,0.065
12.795,-0.134
12.800,0.048
12.805,0.128
12.810,-0.113
12.815,-0.053
12.820,0.144
12.825,-0.046
12.830,-0.133
12.835,0.105
12.840,0.036
12.845,-0.167
12.850,0.021
12.855,0.105
12.860,-0.138
12.865,-0.076
12.870,0.122
12.875,-0.067
12.880,-0.154
12.885,0.085
12.890,0.026
12.895,-0.179
12.900,0.000
12.905,0.088
12.910,-0.149
12.915,-0.093
12.920,0.104
12.925,-0.081
12.930,-0.167
12.935,0.079
12.940,0.021
12.945,-0.185
12.950,-0.005
12.955,0.084
12.960,-0.151
12.965,-0.092
12.970,0.108
12.975,-0.076
12.980,-0.166
12.985,0.072
12.990,0.014
12.995,-0.191
13.000,-0.009
13.005,0.078
13.010,-0.168
13.015,-0.114
13.020,0.089
13.025,-0.110
13.030,-0.223
13.035,0.005
13.040,-0.048
13.045,-0.248
13.050,-0.073
13.055,0.021
13.060,-0.198
13.065,-0.115
13.070,0.120
13.075,-0.046
13.080,-0.134
13.085,0.116
13.090,0.068
13.095,-0.143
13.100,0.038
13.105,0.137
13.110,-0.107
13.115,-0.061
13.120,0.148
13.125,-0.032
13.130,-0.133
13.135,0.101
13.140,0.051
13.145,-0.147
13.150,0.065
13.155,0.211
13.160,-0.064
13.165,-0.210
13.170,-0.324
13.175,-0.906
13.180,-1.359
13.185,-1.166
13.190,-0.842
13.195,-0.592
13.200,-0.106
13.205,0.238
13.210,0.111
13.215,0.156
13.220,0.369
13.225,0.203
13.230,0.115
13.235,0.358
13.240,0.311
13.245,0.096
13.250,0.261
13.255,0.359
13.260,0.115
13.265,0.142
13.270,0.342
13.275,0.165
13.280,0.047
13.285,0.272
13.290,0.224
13.295,0.001
13.300,0.162
13.305,0.263
13.310,0.018
13.315,0.048
13.320,0.253
13.325,0.071
13.330,-0.049
13.335,0.179
13.340,0.133
13.345,-0.091
13.350,0.070
13.355,0.172
13.360,-0.078
13.365,-0.059
13.370,0.140
13.375,-0.046
13.380,-0.173
13.385,0.052
13.390,-0.001
13.395,-0.235
13.400,-0.090
13.405,-0.010
13.410,-0.268
13.415,-0.247
13.420,-0.055
13.425,-0.241
13.430,-0.372
13.435,-0.151
13.440,-0.190
13.445,-0.399
13.450,-0.209
13.455,-0.054
13.460,-0.235
13.465,-0.139
13.470,0.142
13.475,0.043
13.480,-0.012
13.485,0.267
13.490,0.270
13.495,0.077
13.500,0.253
13.505,0.376
13.510,0.144
13.515,0.174
13.520,0.389
13.525,0.221
13.530,0.093
13.535,0.317
13.540,0.281
13.545,0.053
13.550,0.202
13.555,0.312
13.560,0.072
13.565,0.091
13.570,0.297
13.575,0.127
13.580,0.002
13.585,0.225
13.590,0.187
13.595,-0.043
13.600,0.112
13.605,0.230
13.610,-0.015
13.615,-0.003
13.620,0.210
13.625,0.041
13.630,-0.090
13.635,0.143
13.640,0.117
13.645,-0.111
13.650,0.042
13.655,0.160
13.660,-0.077
13.665,-0.062
13.670,0.149
13.675,-0.012
13.680,-0.137
13.685,0.093
13.690,0.071
13.695,-0.152
13.700,0.006
13.705,0.129
13.710,-0.109
13.715,-0.088
13.720,0.134
13.725,-0.023
13.730,-0.150
13.735,0.078
13.740,0.060
13.745,-0.163
13.750,-0.012
13.755,0.116
13.760,-0.117
13.765,-0.106
13.770,0.114
13.775,-0.039
13.780,-0.167
13.785,0.063
13.790,0.047
13.795,-0.176
13.800,-0.026
13.805,0.105
13.810,-0.128
13.815,-0.121
13.820,0.104
13.825,-0.044
13.830,-0.178
13.835,0.049
13.840,0.039
13.845,-0.182
13.850,-0.034
13.855,0.094
13.860,-0.137
13.865,-0.125
13.870,0.100
13.875,-0.049
13.880,-0.179
13.885,0.050
13.890,0.033
13.895,-0.204
13.900,-0.068
13.905,0.062
13.910,-0.176
13.915,-0.180
13.920,0.046
13.925,-0.095
13.930,-0.234
13.935,-0.010
13.940,-0.006
13.945,-0.204
13.950,-0.028
13.955,0.130
13.960,-0.086
13.965,-0.072
13.970,0.157
13.975,0.013
13.980,-0.122
13.985,0.104
13.990,0.095
13.995,-0.137
14.000,0.007
14.005,0.147
14.010,-0.087
14.015,-0.085
14.020,0.144
14.025,0.003
14.030,-0.114
14.035,0.164
14.040,0.160
14.045,-0.215
14.050,-0.356
14.055,-0.592
14.060,-1.206
14.065,-1.368
14.070,-0.885
14.075,-0.566
14.080,-0.361
14.085,0.115
14.090,0.269
14.095,0.070
14.100,0.215
14.105,0.365
14.110,0.149
14.115,0.159
14.120,0.387
14.125,0.245
14.130,0.095
14.135,0.313
14.140,0.307
14.145,0.067
14.150,0.195
14.155,0.328
14.160,0.091
14.165,0.077
14.170,0.297
14.175,0.152
14.180,-0.004
14.185,0.212
14.190,0.214
14.195,-0.020
14.200,0.104
14.205,0.235
14.210,-0.002
14.215,-0.017
14.220,0.205
14.225,0.063
14.230,-0.093
14.235,0.119
14.240,0.115
14.245,-0.121
14.250,-0.002
14.255,0.129
14.260,-0.110
14.265,-0.140
14.270,0.073
14.275,-0.076
14.280,-0.246
14.285,-0.045
14.290,-0.058
14.295,-0.311
14.300,-0.183
14.305,-0.020
14.310,-0.256
14.315,-0.298
14.320,-0.078
14.325,-0.203
14.330,-0.339
14.335,-0.082
14.340,-0.015
14.345,-0.186
14.350,0.001
14.355,0.205
14.360,0.033
14.365,0.066
14.370,0.337
14.375,0.235
14.380,0.102
14.385,0.335
14.390,0.349
14.395,0.111
14.400,0.235
14.405,0.387
14.410,0.158
14.415,0.123
14.420,0.342
14.425,0.208
14.430,0.038
14.435,0.247
14.440,0.258
14.445,0.014
14.450,0.125
14.455,0.268
14.460,0.041
14.465,0.015
14.470,0.242
14.475,0.114
14.480,-0.050
14.485,0.160
14.490,0.171
14.495,-0.074
14.500,0.039
14.505,0.192
14.510,-0.039
14.515,-0.073
14.520,0.158
14.525,0.036
14.530,-0.127
14.535,0.092
14.540,0.120
14.545,-0.112
14.550,0.001
14.555,0.148
14.560,-0.076
14.565,-0.100
14.570,0.132
14.575,0.010
14.580,-0.149
14.585,0.068
14.590,0.088
14.595,-0.151
14.600,-0.039
14.605,0.117
14.610,-0.098
14.615,-0.124
14.620,0.109
14.625,-0.009
14.630,-0.172
14.635,0.047
14.640,0.073
14.645,-0.163
14.650,-0.049
14.655,0.106
14.660,-0.113
14.665,-0.140
14.670,0.092
14.675,-0.025
14.680,-0.190
14.685,0.023
14.690,0.058
14.695,-0.175
14.700,-0.061
14.705,0.104
14.710,-0.114
14.715,-0.147
14.720,0.094
14.725,-0.018
14.730,-0.188
14.735,0.029
14.740,0.064
14.745,-0.176
14.750,-0.070
14.755,0.093
14.760,-0.138
14.765,-0.185
14.770,0.055
14.775,-0.064
14.780,-0.246
14.785,-0.035
14.790,-0.002
14.795,-0.240
14.800,-0.132
14.805,0.054
14.810,-0.120
14.815,-0.130
14.820,0.121
14.825,0.025
14.830,-0.140
14.835,0.077
14.840,0.122
14.845,-0.119
14.850,-0.017
14.855,0.156
14.860,-0.054
14.865,-0.095
14.870,0.147
14.875,0.043
14.880,-0.133
14.885,0.073
14.890,0.116
14.895,-0.085
14.900,0.069
14.905,0.206
14.910,-0.180
14.915,-0.541
14.920,-0.726
14.925,-1.163
14.930,-1.351
14.935,-0.777
14.940,-0.289
14.945,-0.217
14.950,0.125
14.955,0.390
14.960,0.156
14.965,0.095
14.970,0.327
14.975,0.240
14.980,0.074
14.985,0.281
14.990,0.326
14.995,0.081
15.000,0.170
15.005,0.334
15.010,0.120
15.015,0.064
15.020,0.288
15.025,0.185
15.030,0.000
15.035,0.199
15.040,0.251
15.045,0.005
15.050,0.086
15.055,0.258
15.060,0.046
15.065,-0.015
15.070,0.217
15.075,0.112
15.080,-0.086
15.085,0.114
15.090,0.166
15.095,-0.085
15.100,-0.009
15.105,0.161
15.110,-0.047
15.115,-0.115
15.120,0.102
15.125,-0.014
15.130,-0.219
15.135,-0.035
15.140,0.000
15.145,-0.260
15.150,-0.188
15.155,-0.024
15.160,-0.250
15.165,-0.332
15.170,-0.111
15.175,-0.211
15.180,-0.406
15.185,-0.214
15.190,-0.143
15.195,-0.352
15.200,-0.226
15.205,0.016
15.210,-0.113
15.215,-0.102
15.220,0.194
15.225,0.152
15.230,0.007
15.235,0.242
15.240,0.334
15.245,0.115
15.250,0.204
15.255,0.391
15.260,0.189
15.265,0.116
15.270,0.349
15.275,0.263
15.280,0.069
15.285,0.261
15.290,0.319
15.295,0.067
15.300,0.131
15.305,0.308
15.310,0.106
15.315,0.029
15.320,0.258
15.325,0.174
15.330,-0.023
15.335,0.165
15.340,0.230
15.345,-0.016
15.350,0.056
15.355,0.240
15.360,0.031
15.365,-0.056
15.370,0.171
15.375,0.089
15.380,-0.103
15.385,0.088
15.390,0.157
15.395,-0.087
15.400,-0.020
15.405,0.168
15.410,-0.029
15.415,-0.107
15.420,0.131
15.425,0.060
15.430,-0.137
15.435,0.049
15.440,0.116
15.445,-0.131
15.450,-0.060
15.455,0.138
15.460,-0.053
15.465,-0.131
15.470,0.104
15.475,0.020
15.480,-0.182
15.485,0.020
15.490,0.105
15.495,-0.141
15.500,-0.084
15.505,0.106
15.510,-0.073
15.515,-0.147
15.520,0.083
15.525,0.013
15.530,-0.180
15.535,0.009
15.540,0.083
15.545,-0.158
15.550,-0.081
15.555,0.118
15.560,-0.080
15.565,-0.170
15.570,0.071
15.575,0.012
15.580,-0.181
15.585,0.006
15.590,0.085
15.595,-0.160
15.600,-0.099
15.605,0.100
15.610,-0.096
15.615,-0.190
15.620,0.046
15.625,-0.027
15.630,-0.244
15.635,-0.060
15.640,0.025
15.645,-0.216
15.650,-0.155
15.655,0.049
15.660,-0.114
15.665,-0.168
15.670,0.094
15.675,0.049
15.680,-0.141
15.685,0.056
15.690,0.155
15.695,-0.091
15.700,-0.047
15.705,0.149
15.710,-0.032
15.715,-0.118
15.720,0.122
15.725,0.060
15.730,-0.148
15.735,0.033
15.740,0.134
15.745,-0.071
15.750,0.034
15.755,0.228
15.760,-0.099
15.765,-0.493
15.770,-0.691
15.775,-1.140
15.780,-1.422
15.785,-0.905
15.790,-0.341
15.795,-0.238
15.800,0.066
15.805,0.384
15.810,0.198
15.815,0.089
15.820,0.314
15.825,0.275
15.830,0.093
15.835,0.276
15.840,0.363
15.845,0.110
15.850,0.150
15.855,0.348
15.860,0.155
15.865,0.047
15.870,0.276
15.875,0.217
15.880,0.009
15.885,0.182
15.890,0.268
15.895,0.020
15.900,0.055
15.905,0.250
15.910,0.069
15.915,-0.037
15.920,0.197
15.925,0.150
15.930,-0.073
15.935,0.086
15.940,0.178
15.945,-0.069
15.950,-0.034
15.955,0.167
15.960,-0.021
15.965,-0.141
15.970,0.081
15.975,0.026
15.980,-0.198
15.985,-0.046
15.990,0.034
15.995,-0.229
16.000,-0.207
16.005,-0.005
16.010,-0.188
16.015,-0.317
16.020,-0.109
16.025,-0.174
16.030,-0.400
16.035,-0.233
16.040,-0.119
16.045,-0.330
16.050,-0.240
16.055,0.037
16.060,-0.071
16.065,-0.121
16.070,0.171
16.075,0.182
16.080,0.018
16.085,0.222
16.090,0.354
16.095,0.138
16.100,0.182
16.105,0.394
16.110,0.226
16.115,0.114
16.120,0.348
16.125,0.301
16.130,0.070
16.135,0.226
16.140,0.328
16.145,0.087
16.150,0.118
16.155,0.323
16.160,0.140
16.165,0.015
16.170,0.242
16.175,0.204
16.180,-0.018
16.185,0.135
16.190,0.238
16.195,0.000
16.200,0.030
16.205,0.232
16.210,0.047
16.215,-0.078
16.220,0.153
16.225,0.114
16.230,-0.108
16.235,0.052
16.240,0.164
16.245,-0.075
16.250,-0.056
16.255,0.152
16.260,-0.014
16.265,-0.132
16.270,0.099
16.275,0.072
16.280,-0.139
16.285,0.021
16.290,0.129
16.295,-0.112
16.300,-0.084
16.305,0.134
16.310,-0.034
16.315,-0.158
16.320,0.077
16.325,0.052
16.330,-0.168
16.335,-0.007
16.340,0.116
16.345,-0.117
16.350,-0.097
16.355,0.115
16.360,-0.050
16.365,-0.174
16.370,0.061
16.375,0.042
16.380,-0.183
16.385,-0.033
16.390,0.093
16.395,-0.135
16.400,-0.114
16.405,0.108
16.410,-0.051
16.415,-0.182
16.420,0.050
16.425,0.033
16.430,-0.184
16.435,-0.034
16.440,0.079
16.445,-0.158
16.450,-0.143
16.455,0.069
16.460,-0.098
16.465,-0.240
16.470,-0.020
16.475,-0.035
16.480,-0.255
16.485,-0.111
16.490,0.025
16.495,-0.177
16.500,-0.131
16.505,0.111
16.510,-0.029
16.515,-0.146
16.520,0.093
16.525,0.080
16.530,-0.141
16.535,0.015
16.540,0.150
16.545,-0.075
16.550,-0.059
16.555,0.159
16.560,0.000
16.565,-0.136
16.570,0.094
16.575,0.086
16.580,-0.120
16.585,0.073
16.590,0.241
16.595,-0.046
16.600,-0.237
16.605,-0.359
16.610,-0.940
16.615,-1.393
16.620,-1.125
16.625,-0.727
16.630,-0.510
16.635,-0.061
16.640,0.303
16.645,0.158
16.650,0.161
16.655,0.386
16.660,0.233
16.665,0.104
16.670,0.342
16.675,0.341
16.680,0.115
16.685,0.244
16.690,0.361
16.695,0.119
16.700,0.117
16.705,0.335
16.710,0.177
16.715,0.029
16.720,0.251
16.725,0.242
16.730,0.009
16.735,0.145
16.740,0.274
16.745,0.032
16.750,0.023
16.755,0.244
16.760,0.099
16.765,-0.049
16.770,0.166
16.775,0.149
16.780,-0.087
16.785,0.050
16.790,0.182
16.795,-0.059
16.800,-0.077
16.805,0.134
16.810,-0.020
16.815,-0.176
16.820,0.031
16.825,0.006
16.830,-0.248
16.835,-0.133
16.840,-0.015
16.845,-0.263
16.850,-0.285
16.855,-0.076
16.860,-0.230
16.865,-0.393
16.870,-0.184
16.875,-0.182
16.880,-0.395
16.885,-0.219
16.890,-0.012
16.895,-0.170
16.900,-0.115
16.905,0.172
16.910,0.094
16.915,-0.004
16.920,0.262
16.925,0.306
16.930,0.101
16.935,0.239
16.940,0.382
16.945,0.161
16.950,0.155
16.955,0.377
16.960,0.235
16.965,0.078
16.970,0.292
16.975,0.292
16.980,0.055
16.985,0.181
16.990,0.313
16.995,0.075
17.000,0.060
17.005,0.283
17.010,0.143
17.015,-0.016
17.020,0.192
17.025,0.193
17.030,-0.037
17.035,0.091
17.040,0.223
17.045,-0.016
17.050,-0.031
17.055,0.200
17.060,0.060
17.065,-0.107
17.070,0.110
17.075,0.127
17.080,-0.111
17.085,0.006
17.090,0.154
17.095,-0.073
17.100,-0.093
17.105,0.137
17.110,0.005
17.115,-0.158
17.120,0.057
17.125,0.077
17.130,-0.156
17.135,-0.041
17.140,0.111
17.145,-0.107
17.150,-0.130
17.155,0.105
17.160,-0.010
17.165,-0.172
17.170,0.038
17.175,0.061
17.180,-0.170
17.185,-0.047
17.190,0.109
17.195,-0.112
17.200,-0.135
17.205,0.092
17.210,-0.033
17.215,-0.187
17.220,0.033
17.225,0.053
17.230,-0.183
17.235,-0.064
17.240,0.096
17.245,-0.124
17.250,-0.156
17.255,0.074
17.260,-0.046
17.265,-0.202
17.270,0.006
17.275,0.003
17.280,-0.248
17.285,-0.134
17.290,0.032
17.295,-0.186
17.300,-0.214
17.305,0.041
17.310,-0.045
17.315,-0.182
17.320,0.045
17.325,0.075
17.330,-0.149
17.335,-0.020
17.340,0.140
17.345,-0.084
17.350,-0.114
17.355,0.124
17.360,0.011
17.365,-0.153
17.370,0.059
17.375,0.089
17.380,-0.144
17.385,-0.034
17.390,0.146
17.395,-0.015
17.400,-0.022
17.405,0.108
17.410,-0.261
17.415,-0.813
17.420,-1.022
17.425,-1.208
17.430,-1.260
17.435,-0.698
17.440,-0.139
17.445,-0.067
17.450,0.088
17.455,0.352
17.460,0.228
17.465,0.071
17.470,0.292
17.475,0.342
17.480,0.112
17.485,0.214
17.490,0.376
17.495,0.157
17.500,0.110
17.505,0.336
17.510,0.219
17.515,0.042
17.520,0.241
17.525,0.266
17.530,0.026
17.535,0.128
17.540,0.284
17.545,0.062
17.550,0.015
17.555,0.246
17.560,0.133
17.565,-0.049
17.570,0.155
17.575,0.185
17.580,-0.061
17.585,0.035
17.590,0.196
17.595,-0.025
17.600,-0.077
17.605,0.149
17.610,0.030
17.615,-0.159
17.620,0.033
17.625,0.054
17.630,-0.204
17.635,-0.117
17.640,0.041
17.645,-0.195
17.650,-0.267
17.655,-0.052
17.660,-0.175
17.665,-0.372
17.670,-0.182
17.675,-0.149
17.680,-0.391
17.685,-0.279
17.690,-0.082
17.695,-0.257
17.700,-0.246
17.705,0.063
17.710,0.033
17.715,-0.078
17.720,0.184
17.725,0.270
17.730,0.064
17.735,0.196
17.740,0.399
17.745,0.197
17.750,0.145
17.755,0.379
17.760,0.275
17.765,0.090
17.770,0.293
17.775,0.341
17.780,0.091
17.785,0.171
17.790,0.341
17.795,0.128
17.800,0.062
17.805,0.281
17.810,0.177
17.815,-0.002
17.820,0.194
17.825,0.238
17.830,-0.001
17.835,0.087
17.840,0.252
17.845,0.031
17.850,-0.028
17.855,0.211
17.860,0.114
17.865,-0.080
17.870,0.116
17.875,0.165
17.880,-0.087
17.885,-0.004
17.890,0.175
17.895,-0.033
17.900,-0.091
17.905,0.148
17.910,0.054
17.915,-0.138
17.920,0.057
17.925,0.116
17.930,-0.120
17.935,-0.032
17.940,0.132
17.945,-0.086
17.950,-0.137
17.955,0.105
17.960,0.017
17.965,-0.163
17.970,0.039
17.975,0.099
17.980,-0.144
17.985,-0.065
17.990,0.120
17.995,-0.077
18.000,-0.142
18.005,0.094
18.010,0.008
18.015,-0.184
18.020,0.009
18.025,0.077
18.030,-0.157
18.035,-0.071
18.040,0.114
18.045,-0.094
18.050,-0.162
18.055,0.074
18.060,-0.004
18.065,-0.192
18.070,-0.023
18.075,0.017
18.080,-0.226
18.085,-0.144
18.090,0.043
18.095,-0.164
18.100,-0.223
18.105,0.051
18.110,0.006
18.115,-0.168
18.120,0.035
18.125,0.116
18.130,-0.117
18.135,-0.042
18.140,0.146
18.145,-0.051
18.150,-0.119
18.155,0.122
18.160,0.043
18.165,-0.150
18.170,0.042
18.175,0.111
18.180,-0.131
18.185,-0.042
18.190,0.199
18.195,0.037
18.200,-0.117
18.205,-0.110
18.210,-0.545
18.215,-1.160
18.220,-1.239
18.225,-1.051
18.230,-0.846
18.235,-0.359
18.240,0.113
18.245,0.123
18.250,0.099
18.255,0.317
18.260,0.245
18.265,0.061
18.270,0.273
18.275,0.352
18.280,0.107
18.285,0.171
18.290,0.359
18.295,0.162
18.300,0.073
18.305,0.296
18.310,0.215
18.315,0.009
18.320,0.192
18.325,0.263
18.330,0.014
18.335,0.073
18.340,0.261
18.345,0.065
18.350,-0.024
18.355,0.208
18.360,0.137
18.365,-0.067
18.370,0.113
18.375,0.188
18.380,-0.059
18.385,-0.004
18.390,0.184
18.395,-0.016
18.400,-0.111
18.405,0.114
18.410,0.035
18.415,-0.178
18.420,-0.013
18.425,0.049
18.430,-0.204
18.435,-0.166
18.440,0.006
18.445,-0.199
18.450,-0.304
18.455,-0.089
18.460,-0.173
18.465,-0.392
18.470,-0.221
18.475,-0.142
18.480,-0.380
18.485,-0.297
18.490,-0.048
18.495,-0.173
18.500,-0.198
18.505,0.104
18.510,0.110
18.515,-0.035
18.520,0.195
18.525,0.320
18.530,0.106
18.535,0.178
18.540,0.387
18.545,0.211
18.550,0.123
18.555,0.359
18.560,0.296
18.565,0.079
18.570,0.250
18.575,0.337
18.580,0.090
18.585,0.129
18.590,0.325
18.595,0.141
18.600,0.039
18.605,0.264
18.610,0.198
18.615,-0.019
18.620,0.152
18.625,0.239
18.630,-0.009
18.635,0.036
18.640,0.236
18.645,0.048
18.650,-0.053
18.655,0.177
18.660,0.119
18.665,-0.091
18.670,0.081
18.675,0.173
18.680,-0.065
18.685,-0.024
18.690,0.171
18.695,-0.013
18.700,-0.114
18.705,0.121
18.710,0.068
18.715,-0.147
18.720,0.025
18.725,0.123
18.730,-0.117
18.735,-0.070
18.740,0.137
18.745,-0.040
18.750,-0.140
18.755,0.097
18.760,0.049
18.765,-0.167
18.770,0.001
18.775,0.103
18.780,-0.131
18.785,-0.088
18.790,0.120
18.795,-0.052
18.800,-0.156
18.805,0.074
18.810,0.030
18.815,-0.182
18.820,-0.013
18.825,0.088
18.830,-0.149
18.835,-0.111
18.840,0.101
18.845,-0.066
18.850,-0.177
18.855,0.058
18.860,0.019
18.865,-0.195
18.870,-0.022
18.875,0.080
18.880,-0.161
18.885,-0.125
18.890,0.076
18.895,-0.099
18.900,-0.208
18.905,0.015
18.910,-0.031
18.915,-0.249
18.920,-0.080
18.925,0.030
18.930,-0.203
18.935,-0.145
18.940,0.103
18.945,-0.041
18.950,-0.145
18.955,0.100
18.960,0.076
18.965,-0.135
18.970,0.030
18.975,0.140
18.980,-0.098
18.985,-0.069
18.990,0.147
18.995,-0.017
19.000,-0.134
19.005,0.097
19.010,0.064
19.015,-0.141
19.020,0.071
19.025,0.224
19.030,-0.086
19.035,-0.282
19.040,-0.413
19.045,-0.985
19.050,-1.390
19.055,-1.081
19.060,-0.681
19.065,-0.480
19.070,-0.048
19.075,0.282
19.080,0.124
19.085,0.144
19.090,0.359
19.095,0.203
19.100,0.106
19.105,0.351
19.110,0.318
19.115,0.091
19.120,0.244
19.125,0.354
19.130,0.112
19.135,0.128
19.140,0.337
19.145,0.167
19.150,0.033
19.155,0.257
19.160,0.226
19.165,0.001
19.170,0.156
19.175,0.264
19.180,0.018
19.185,0.034
19.190,0.245
19.195,0.078
19.200,-0.054
19.205,0.167
19.210,0.133
19.215,-0.096
19.220,0.052
19.225,0.165
19.230,-0.083
19.235,-0.076
19.240,0.133
19.245,-0.039
19.250,-0.176
19.255,0.040
19.260,-0.006
19.265,-0.256
19.270,-0.127
19.275,-0.026
19.280,-0.281
19.285,-0.281
19.290,-0.076
19.295,-0.248
19.300,-0.395
19.305,-0.178
19.310,-0.189
19.315,-0.391
19.320,-0.203
19.325,-0.022
19.330,-0.193
19.335,-0.117
19.340,0.171
19.345,0.079
19.350,0.002
19.355,0.275
19.360,0.287
19.365,0.080
19.370,0.245
19.375,0.386
19.380,0.156
19.385,0.159
19.390,0.375
19.395,0.222
19.400,0.079
19.405,0.296
19.410,0.279
19.415,0.046
19.420,0.182
19.425,0.305
19.430,0.064
19.435,0.063
19.440,0.283
19.445,0.128
19.450,-0.014
19.455,0.210
19.460,0.195
19.465,-0.040
19.470,0.097
19.475,0.222
19.480,-0.013
19.485,-0.015
19.490,0.203
19.495,0.055
19.500,-0.091
19.505,0.124
19.510,0.115
19.515,-0.110
19.520,0.032
19.525,0.161
19.530,-0.079
19.535,-0.078
19.540,0.153
19.545,0.010
19.550,-0.132
19.555,0.096
19.560,0.094
19.565,-0.139
19.570,-0.006
19.575,0.130
19.580,-0.098
19.585,-0.100
19.590,0.129
19.595,-0.008
19.600,-0.153
19.605,0.066
19.610,0.068
19.615,-0.156
19.620,-0.021
19.625,0.118
19.630,-0.110
19.635,-0.117
19.640,0.105
19.645,-0.035
19.650,-0.177
19.655,0.049
19.660,0.057
19.665,-0.168
19.670,-0.033
19.675,0.108
19.680,-0.120
19.685,-0.128
19.690,0.102
19.695,-0.034
19.700,-0.187
19.705,0.032
19.710,0.038
19.715,-0.191
19.720,-0.057
19.725,0.072
19.730,-0.185
19.735,-0.205
19.740,0.030
19.745,-0.096
19.750,-0.247
19.755,-0.024
19.760,0.015
19.765,-0.174
19.770,-0.023
19.775,0.128
19.780,-0.089
19.785,-0.094
19.790,0.141
19.795,0.011
19.800,-0.140
19.805,0.089
19.810,0.107
19.815,-0.126
19.820,-0.002
19.825,0.148
19.830,-0.074
19.835,-0.096
19.840,0.132
19.845,0.029
19.850,-0.068
19.855,0.167
19.860,0.064
19.865,-0.430
19.870,-0.692
19.875,-0.950
19.880,-1.353
19.885,-1.147
19.890,-0.462
19.895,-0.206
19.900,-0.085
19.905,0.297
19.910,0.328
19.915,0.071
19.920,0.191
19.925,0.358
19.930,0.153
19.935,0.132
19.940,0.361
19.945,0.233
19.950,0.067
19.955,0.278
19.960,0.292
19.965,0.052
19.970,0.165
19.975,0.313
19.980,0.084
19.985,0.055
19.990,0.284
19.995,0.156
20.000,-0.013
20.005,0.196
20.010,0.215
20.015,-0.022
20.020,0.083
20.025,0.228
20.030,0.003
20.035,-0.033
20.040,0.190
20.045,0.063
20.050,-0.112
20.055,0.091
20.060,0.108
20.065,-0.135
20.070,-0.028
20.075,0.120
20.080,-0.120
20.085,-0.176
20.090,0.034
20.095,-0.100
20.100,-0.283
20.105,-0.090
20.110,-0.086
20.115,-0.345
20.120,-0.252
20.125,-0.101
20.130,-0.330
20.135,-0.372
20.140,-0.129
20.145,-0.217
20.150,-0.338
20.155,-0.060
20.160,0.041
20.165,-0.134
20.170,0.034
20.175,0.255
20.180,0.085
20.185,0.087
20.190,0.350
20.195,0.255
20.200,0.098
20.205,0.315
20.210,0.348
20.215,0.107
20.220,0.212
20.225,0.379
20.230,0.161
20.235,0.112
20.240,0.333
20.245,0.216
20.250,0.039
20.255,0.234
20.260,0.256
20.265,0.015
20.270,0.119
20.275,0.280
20.280,0.060
20.285,0.016
20.290,0.246
20.295,0.130
20.300,-0.056
20.305,0.145
20.310,0.182
20.315,-0.059
20.320,0.036
20.325,0.199
20.330,-0.017
20.335,-0.062
20.340,0.169
20.345,0.062
20.350,-0.118
20.355,0.085
20.360,0.129
20.365,-0.110
20.370,-0.020
20.375,0.145
20.380,-0.065
20.385,-0.107
20.390,0.129
20.395,0.021
20.400,-0.160
20.405,0.051
20.410,0.098
20.415,-0.143
20.420,-0.044
20.425,0.130
20.430,-0.082
20.435,-0.130
20.440,0.106
20.445,0.005
20.450,-0.173
20.455,0.027
20.460,0.077
20.465,-0.157
20.470,-0.065
20.475,0.109
20.480,-0.100
20.485,-0.160
20.490,0.078
20.495,-0.002
20.500,-0.174
20.505,0.025
20.510,0.067
20.515,-0.179
20.520,-0.092
20.525,0.088
20.530,-0.123
20.535,-0.202
20.540,0.019
20.545,-0.078
20.550,-0.263
20.555,-0.058
20.560,-0.002
20.565,-0.224
20.570,-0.099
20.575,0.111
20.580,-0.079
20.585,-0.126
20.590,0.123
20.595,0.036
20.600,-0.146
20.605,0.063
20.610,0.120
20.615,-0.127
20.620,-0.045
20.625,0.135
20.630,-0.064
20.635,-0.119
20.640,0.116
20.645,0.022
20.650,-0.156
20.655,0.081
20.660,0.196
20.665,-0.047
20.670,-0.103
20.675,-0.222
20.680,-0.861
20.685,-1.324
20.690,-1.184
20.695,-0.946
20.700,-0.666
20.705,-0.125
20.710,0.211
20.715,0.117
20.720,0.202
20.725,0.369
20.730,0.154
20.735,0.099
20.740,0.351
20.745,0.256
20.750,0.062
20.755,0.265
20.760,0.319
20.765,0.064
20.770,0.141
20.775,0.327
20.780,0.123
20.785,0.046
20.790,0.273
20.795,0.184
20.800,-0.009
20.805,0.182
20.810,0.234
20.815,-0.018
20.820,0.059
20.825,0.242
20.830,0.037
20.835,-0.038
20.840,0.189
20.845,0.095
20.850,-0.100
20.855,0.093
20.860,0.148
20.865,-0.109
20.870,-0.044
20.875,0.134
20.880,-0.077
20.885,-0.166
20.890,0.053
20.895,-0.045
20.900,-0.257
20.905,-0.085
20.910,-0.040
20.915,-0.292
20.920,-0.234
20.925,-0.067
20.930,-0.280
20.935,-0.370
20.940,-0.145
20.945,-0.222
20.950,-0.402
20.955,-0.175
20.960,-0.053
20.965,-0.230
20.970,-0.085
20.975,0.175
20.980,0.040
20.985,0.019
20.990,0.300
20.995,0.256
21.000,0.086
21.005,0.293
21.010,0.375
21.015,0.136
21.020,0.205
21.025,0.394
21.030,0.191
21.035,0.107
21.040,0.337
21.045,0.254
21.050,0.052
21.055,0.239
21.060,0.308
21.065,0.059
21.070,0.118
21.075,0.300
21.080,0.096
21.085,0.007
21.090,0.241
21.095,0.170
21.100,-0.033
21.105,0.148
21.110,0.214
21.115,-0.043
21.120,0.015
21.125,0.212
21.130,0.013
21.135,-0.079
21.140,0.153
21.145,0.080
21.150,-0.124
21.155,0.058
21.160,0.134
21.165,-0.112
21.170,-0.050
21.175,0.146
21.180,-0.044
21.185,-0.123
21.190,0.116
21.195,0.048
21.200,-0.151
21.205,0.037
21.210,0.116
21.215,-0.134
21.220,-0.077
21.225,0.125
21.230,-0.059
21.235,-0.146
21.240,0.092
21.245,0.031
21.250,-0.169
21.255,0.017
21.260,0.100
21.265,-0.143
21.270,-0.082
21.275,0.121
21.280,-0.064
21.285,-0.154
21.290,0.081
21.295,0.023
21.300,-0.180
21.305,-0.004
21.310,0.084
21.315,-0.150
21.320,-0.095
21.325,0.106
21.330,-0.075
21.335,-0.161
21.340,0.080
21.345,0.019
21.350,-0.189
21.355,-0.015
21.360,0.069
21.365,-0.164
21.370,-0.118
21.375,0.055
21.380,-0.143
21.385,-0.236
21.390,0.009
21.395,-0.041
21.400,-0.249
21.405,-0.057
21.410,0.062
21.415,-0.152
21.420,-0.087
21.425,0.130
21.430,-0.032
21.435,-0.121
21.440,0.116
21.445,0.067
21.450,-0.141
21.455,0.034
21.460,0.131
21.465,-0.110
21.470,-0.064
21.475,0.144
21.480,-0.036
21.485,-0.135
21.490,0.115
21.495,0.107
21.500,-0.058
21.505,0.067
21.510,-0.030
21.515,-0.600
21.520,-0.985
21.525,-1.117
21.530,-1.287
21.535,-0.994
21.540,-0.305
21.545,-0.030
21.550,0.010
21.555,0.269
21.560,0.348
21.565,0.108
21.570,0.152
21.575,0.375
21.580,0.215
21.585,0.105
21.590,0.332
21.595,0.285
21.600,0.065
21.605,0.225
21.610,0.320
21.615,0.076
21.620,0.110
21.625,0.313
21.630,0.132
21.635,0.017
21.640,0.241
21.645,0.192
21.650,-0.027
21.655,0.135
21.660,0.234
21.665,-0.012
21.670,0.019
21.675,0.225
21.680,0.046
21.685,-0.071
21.690,0.157
21.695,0.105
21.700,-0.121
21.705,0.040
21.710,0.138
21.715,-0.112
21.720,-0.087
21.725,0.106
21.730,-0.083
21.735,-0.209
21.740,0.001
21.745,-0.057
21.750,-0.293
21.755,-0.152
21.760,-0.062
21.765,-0.316
21.770,-0.299
21.775,-0.097
21.780,-0.271
21.785,-0.385
21.790,-0.138
21.795,-0.141
21.800,-0.309
21.805,-0.080
21.810,0.101
21.815,-0.070
21.820,0.020
21.825,0.294
21.830,0.176
21.835,0.086
21.840,0.339
21.845,0.323
21.850,0.111
21.855,0.273
21.860,0.388
21.865,0.149
21.870,0.166
21.875,0.375
21.880,0.209
21.885,0.084
21.890,0.304
21.895,0.262
21.900,0.037
21.905,0.191
21.910,0.296
21.915,0.052
21.920,0.071
21.925,0.281
21.930,0.111
21.935,-0.015
21.940,0.212
21.945,0.177
21.950,-0.053
21.955,0.095
21.960,0.212
21.965,-0.025
21.970,-0.014
21.975,0.196
21.980,0.033
21.985,-0.094
21.990,0.134
21.995,0.106
22.000,-0.120
22.005,0.032
22.010,0.148
22.015,-0.091
22.020,-0.073
22.025,0.143
22.030,-0.016
22.035,-0.141
22.040,0.088
22.045,0.065
22.050,-0.156
22.055,0.000
22.060,0.125
22.065,-0.107
22.070,-0.093
22.075,0.121
22.080,-0.034
22.085,-0.164
22.090,0.063
22.095,0.049
22.100,-0.170
22.105,-0.014
22.110,0.114
22.115,-0.125
22.120,-0.115
22.125,0.107
22.130,-0.046
22.135,-0.174
22.140,0.060
22.145,0.044
22.150,-0.181
22.155,-0.031
22.160,0.097
22.165,-0.135
22.170,-0.123
22.175,0.095
22.180,-0.056
22.185,-0.182
22.190,0.047
22.195,0.035
22.200,-0.185
22.205,-0.037
22.210,0.089
22.215,-0.148
22.220,-0.145
22.225,0.069
22.230,-0.093
22.235,-0.245
22.240,-0.024
22.245,-0.022
22.250,-0.239
22.255,-0.100
22.260,0.041
22.265,-0.170
22.270,-0.141
22.275,0.109
22.280,-0.028
22.285,-0.161
22.290,0.075
22.295,0.068
22.300,-0.168
22.305,-0.030
22.310,0.105
22.315,-0.124
22.320,-0.123
22.325,0.099
22.330,-0.046
22.335,-0.183
22.340,0.048
22.345,0.045
22.350,-0.171
22.355,0.016
22.360,0.206
22.365,-0.068
22.370,-0.269
22.375,-0.376
22.380,-0.932
22.385,-1.400
22.390,-1.159
22.395,-0.750
22.400,-0.525
22.405,-0.085
22.410,0.291
22.415,0.155
22.420,0.146
22.425,0.375
22.430,0.243
22.435,0.120
22.440,0.353
22.445,0.351
22.450,0.120
22.455,0.254
22.460,0.390
22.465,0.155
22.470,0.137
22.475,0.354
22.480,0.210
22.485,0.060
22.490,0.278
22.495,0.275
22.500,0.039
22.505,0.165
22.510,0.300
22.515,0.067
22.520,0.055
22.525,0.278
22.530,0.134
22.535,-0.025
22.540,0.190
22.545,0.193
22.550,-0.045
22.555,0.072
22.560,0.206
22.565,-0.029
22.570,-0.052
22.575,0.164
22.580,0.020
22.585,-0.146
22.590,0.056
22.595,0.048
22.600,-0.205
22.605,-0.100
22.610,0.024
22.615,-0.222
22.620,-0.260
22.625,-0.052
22.630,-0.198
22.635,-0.364
22.640,-0.158
22.645,-0.153
22.650,-0.375
22.655,-0.216
22.660,-0.022
22.665,-0.191
22.670,-0.145
22.675,0.149
22.680,0.082
22.685,-0.020
22.690,0.244
22.695,0.294
22.700,0.084
22.705,0.221
22.710,0.383
22.715,0.165
22.720,0.139
22.725,0.365
22.730,0.235
22.735,0.070
22.740,0.280
22.745,0.287
22.750,0.041
22.755,0.155
22.760,0.303
22.765,0.074
22.770,0.042
22.775,0.259
22.780,0.126
22.785,-0.037
22.790,0.174
22.795,0.186
22.800,-0.057
22.805,0.053
22.810,0.200
22.815,-0.024
22.820,-0.051
22.825,0.172
22.830,0.040
22.835,-0.124
22.840,0.091
22.845,0.108
22.850,-0.130
22.855,-0.011
22.860,0.141
22.865,-0.087
22.870,-0.115
22.875,0.120
22.880,-0.004
22.885,-0.170
22.890,0.050
22.895,0.077
22.900,-0.161
22.905,-0.045
22.910,0.113
22.915,-0.108
22.920,-0.137
22.925,0.098
22.930,-0.020
22.935,-0.186
22.940,0.027
22.945,0.055
22.950,-0.176
22.955,-0.059
22.960,0.101
22.965,-0.119
22.970,-0.148
22.975,0.088
22.980,-0.030
22.985,-0.197
22.990,0.018
22.995,0.052
23.000,-0.179
23.005,-0.066
23.010,0.094
23.015,-0.121
23.020,-0.152
23.025,0.082
23.030,-0.031
23.035,-0.194
23.040,0.023
23.045,0.054
23.050,-0.184
23.055,-0.073
23.060,0.094
23.065,-0.119
23.070,-0.152
23.075,0.084
23.080,-0.032
23.085,-0.202
23.090,0.007
23.095,0.033
23.100,-0.210
23.105,-0.119
23.110,0.039
23.115,-0.167
23.120,-0.206
23.125,0.026
23.130,-0.074
23.135,-0.221
23.140,0.022
23.145,0.090
23.150,-0.133
23.155,-0.025
23.160,0.153
23.165,-0.052
23.170,-0.091
23.175,0.143
23.180,0.036
23.185,-0.133
23.190,0.077
23.195,0.116
23.200,-0.116
23.205,-0.011
23.210,0.157
23.215,-0.058
23.220,-0.097
23.225,0.180
23.230,0.123
23.235,-0.104
23.240,-0.101
23.245,-0.381
23.250,-1.013
23.255,-1.244
23.260,-1.083
23.265,-0.905
23.270,-0.503
23.275,0.027
23.280,0.151
23.285,0.076
23.290,0.287
23.295,0.333
23.300,0.097
23.305,0.212
23.310,0.399
23.315,0.190
23.320,0.139
23.325,0.367
23.330,0.256
23.335,0.070
23.340,0.271
23.345,0.309
23.350,0.059
23.355,0.149
23.360,0.319
23.365,0.104
23.370,0.046
23.375,0.275
23.380,0.167
23.385,-0.021
23.390,0.180
23.395,0.228
23.400,-0.019
23.405,0.062
23.410,0.231
23.415,0.016
23.420,-0.047
23.425,0.181
23.430,0.077
23.435,-0.114
23.440,0.073
23.445,0.110
23.450,-0.137
23.455,-0.057
23.460,0.103
23.465,-0.126
23.470,-0.203
23.475,0.009
23.480,-0.110
23.485,-0.316
23.490,-0.130
23.495,-0.088
23.500,-0.345
23.505,-0.276
23.510,-0.109
23.515,-0.317
23.520,-0.369
23.525,-0.109
23.530,-0.155
23.535,-0.278
23.540,-0.004
23.545,0.122
23.550,-0.058
23.555,0.082
23.560,0.310
23.565,0.143
23.570,0.111
23.575,0.370
23.580,0.292
23.585,0.110
23.590,0.308
23.595,0.363
23.600,0.118
23.605,0.199
23.610,0.376
23.615,0.158
23.620,0.079
23.625,0.313
23.630,0.223
23.635,0.025
23.640,0.218
23.645,0.274
23.650,0.023
23.655,0.105
23.660,0.288
23.665,0.079
23.670,0.005
23.675,0.235
23.680,0.148
23.685,-0.045
23.690,0.147
23.695,0.205
23.700,-0.050
23.705,0.020
23.710,0.204
23.715,0.003
23.720,-0.067
23.725,0.169
23.730,0.088
23.735,-0.103
23.740,0.087
23.745,0.153
23.750,-0.092
23.755,-0.026
23.760,0.160
23.765,-0.037
23.770,-0.113
23.775,0.124
23.780,0.048
23.785,-0.147
23.790,0.042
23.795,0.111
23.800,-0.131
23.805,-0.062
23.810,0.127
23.815,-0.066
23.820,-0.140
23.825,0.101
23.830,0.031
23.835,-0.169
23.840,0.015
23.845,0.085
23.850,-0.157
23.855,-0.082
23.860,0.115
23.865,-0.080
23.870,-0.160
23.875,0.078
23.880,0.005
23.885,-0.194
23.890,-0.005
23.895,0.074
23.900,-0.163
23.905,-0.095
23.910,0.099
23.915,-0.087
23.920,-0.158
23.925,0.082
23.930,0.008
23.935,-0.194
23.940,-0.010
23.945,0.062
23.950,-0.184
23.955,-0.128
23.960,0.055
23.965,-0.146
23.970,-0.236
23.975,0.005
23.980,-0.057
23.985,-0.262
23.990,-0.069
23.995,0.043
24.000,-0.166
24.005,-0.082
24.010,0.124
24.015,-0.057
24.020,-0.128
24.025,0.120
24.030,0.064
24.035,-0.138
24.040,0.043
24.045,0.132
24.050,-0.108
24.055,-0.054
24.060,0.142
24.065,-0.044
24.070,-0.128
24.075,0.109
24.080,0.064
24.085,-0.089
24.090,0.137
24.095,0.170
24.100,-0.265
24.105,-0.540
24.110,-0.772
24.115,-1.282
24.120,-1.343
24.125,-0.697
24.130,-0.307
24.135,-0.208
24.140,0.205
24.145,0.369
24.150,0.103
24.155,0.148
24.160,0.345
24.165,0.179
24.170,0.098
24.175,0.331
24.180,0.270
24.185,0.053
24.190,0.226
24.195,0.317
24.200,0.069
24.205,0.114
24.210,0.312
24.215,0.119
24.220,0.011
24.225,0.245
24.230,0.191
24.235,-0.029
24.240,0.140
24.245,0.237
24.250,-0.008
24.255,0.028
24.260,0.222
24.265,0.036
24.270,-0.069
24.275,0.159
24.280,0.102
24.285,-0.113
24.290,0.050
24.295,0.137
24.300,-0.109
24.305,-0.076
24.310,0.114
24.315,-0.079
24.320,-0.196
24.325,0.022
24.330,-0.050
24.335,-0.282
24.340,-0.123
24.345,-0.041
24.350,-0.302
24.355,-0.274
24.360,-0.080
24.365,-0.272
24.370,-0.388
24.375,-0.158
24.380,-0.191
24.385,-0.365
24.390,-0.143
24.395,0.019
24.400,-0.151
24.405,-0.045
24.410,0.220
24.415,0.095
24.420,0.033
24.425,0.308
24.430,0.292
24.435,0.098
24.440,0.281
24.445,0.384
24.450,0.142
24.455,0.184
24.460,0.394
24.465,0.210
24.470,0.094
24.475,0.325
24.480,0.270
24.485,0.037
24.490,0.198
24.495,0.304
24.500,0.060
24.505,0.087
24.510,0.287
24.515,0.108
24.520,0.000
24.525,0.228
24.530,0.177
24.535,-0.043
24.540,0.121
24.545,0.216
24.550,-0.034
24.555,0.001
24.560,0.211
24.565,0.030
24.570,-0.087
24.575,0.149
24.580,0.110
24.585,-0.109
24.590,0.054
24.595,0.156
24.600,-0.089
24.605,-0.055
24.610,0.163
24.615,-0.010
24.620,-0.132
24.625,0.103
24.630,0.066
24.635,-0.157
24.640,0.006
24.645,0.120
24.650,-0.114
24.655,-0.083
24.660,0.132
24.665,-0.034
24.670,-0.146
24.675,0.087
24.680,0.050
24.685,-0.173
24.690,-0.011
24.695,0.106
24.700,-0.128
24.705,-0.096
24.710,0.116
24.715,-0.057
24.720,-0.173
24.725,0.061
24.730,0.027
24.735,-0.190
24.740,-0.024
24.745,0.097
24.750,-0.131
24.755,-0.104
24.760,0.102
24.765,-0.080
24.770,-0.215
24.775,0.015
24.780,-0.022
24.785,-0.259
24.790,-0.101
24.795,0.024
24.800,-0.212
24.805,-0.190
24.810,0.043
24.815,-0.081
24.820,-0.164
24.825,0.085
24.830,0.064
24.835,-0.141
24.840,0.024
24.845,0.136
24.850,-0.103
24.855,-0.080
24.860,0.144
24.865,-0.007
24.870,-0.132
24.875,0.092
24.880,0.070
24.885,-0.153
24.890,-0.004
24.895,0.127
24.900,-0.064
24.905,0.017
24.910,0.227
24.915,-0.080
24.920,-0.514
24.925,-0.736
24.930,-1.154
24.935,-1.452
24.940,-0.965
24.945,-0.361
24.950,-0.239
24.955,0.046
24.960,0.399
24.965,0.233
24.970,0.077
24.975,0.298
24.980,0.294
24.985,0.084
24.990,0.234
24.995,0.358
25.000,0.121
25.005,0.129
25.010,0.345
25.015,0.181
25.020,0.039
25.025,0.263
25.030,0.245
25.035,0.016
25.040,0.156
25.045,0.273
25.050,0.026
25.055,0.029
25.060,0.251
25.065,0.097
25.070,-0.043
25.075,0.177
25.080,0.158
25.085,-0.074
25.090,0.068
25.095,0.189
25.100,-0.056
25.105,-0.059
25.110,0.152
25.115,-0.008
25.120,-0.155
25.125,0.062
25.130,0.040
25.135,-0.206
25.140,-0.085
25.145,0.029
25.150,-0.220
25.155,-0.236
25.160,-0.034
25.165,-0.202
25.170,-0.357
25.175,-0.144
25.180,-0.161
25.185,-0.399
25.190,-0.261
25.195,-0.117
25.200,-0.316
25.205,-0.266
25.210,0.019
25.215,-0.049
25.220,-0.115
25.225,0.172
25.230,0.221
25.235,0.038
25.240,0.213
25.245,0.376
25.250,0.165
25.255,0.175
25.260,0.399
25.265,0.254
25.270,0.110
25.275,0.332
25.280,0.326
25.285,0.090
25.290,0.219
25.295,0.343
25.300,0.105
25.305,0.101
25.310,0.322
25.315,0.170
25.320,0.018
25.325,0.234
25.330,0.225
25.335,-0.011
25.340,0.120
25.345,0.251
25.350,0.018
25.355,0.012
25.360,0.229
25.365,0.079
25.370,-0.071
25.375,0.146
25.380,0.137
25.385,-0.096
25.390,0.040
25.395,0.177
25.400,-0.059
25.405,-0.066
25.410,0.165
25.415,0.020
25.420,-0.136
25.425,0.089
25.430,0.098
25.435,-0.135
25.440,-0.006
25.445,0.139
25.450,-0.088
25.455,-0.102
25.460,0.124
25.465,-0.009
25.470,-0.153
25.475,0.069
25.480,0.070
25.485,-0.160
25.490,-0.025
25.495,0.118
25.500,-0.113
25.505,-0.120
25.510,0.113
25.515,-0.025
25.520,-0.178
25.525,0.043
25.530,0.051
25.535,-0.183
25.540,-0.046
25.545,0.112
25.550,-0.108
25.555,-0.115
25.560,0.113
25.565,-0.041
25.570,-0.224
25.575,-0.012
25.580,0.006
25.585,-0.232
25.590,-0.111
25.595,0.047
25.600,-0.173
25.605,-0.195
25.610,0.039
25.615,-0.071
25.620,-0.198
25.625,0.054
25.630,0.090
25.635,-0.140
25.640,-0.014
25.645,0.146
25.650,-0.075
25.655,-0.096
25.660,0.133
25.665,0.007
25.670,-0.148
25.675,0.070
25.680,0.086
25.685,-0.143
25.690,-0.018
25.695,0.132
25.700,-0.079
25.705,-0.054
25.710,0.224
25.715,0.049
25.720,-0.314
25.725,-0.439
25.730,-0.850
25.735,-1.423
25.740,-1.293
25.745,-0.733
25.750,-0.493
25.755,-0.200
25.760,0.280
25.765,0.252
25.770,0.074
25.775,0.282
25.780,0.308
25.785,0.091
25.790,0.215
25.795,0.368
25.800,0.148
25.805,0.121
25.810,0.343
25.815,0.211
25.820,0.044
25.825,0.255
25.830,0.271
25.835,0.027
25.840,0.134
25.845,0.288
25.850,0.063
25.855,0.023
25.860,0.249
25.865,0.127
25.870,-0.045
25.875,0.164
25.880,0.184
25.885,-0.062
25.890,0.044
25.895,0.202
25.900,-0.025
25.905,-0.066
25.910,0.160
25.915,0.035
25.920,-0.144
25.925,0.055
25.930,0.071
25.935,-0.178
25.940,-0.078
25.945,0.070
25.950,-0.168
25.955,-0.226
25.960,-0.019
25.965,-0.158
25.970,-0.346
25.975,-0.149
25.980,-0.131
25.985,-0.382
25.990,-0.283
25.995,-0.116
26.000,-0.316
26.005,-0.320
26.010,-0.031
26.015,-0.072
26.020,-0.174
26.025,0.105
26.030,0.206
26.035,0.020
26.040,0.166
26.045,0.363
26.050,0.172
26.055,0.145
26.060,0.380
26.065,0.271
26.070,0.104
26.075,0.314
26.080,0.342
26.085,0.094
26.090,0.190
26.095,0.351
26.100,0.127
26.105,0.075
26.110,0.307
26.115,0.193
26.120,0.013
26.125,0.217
26.130,0.248
26.135,0.006
26.140,0.101
26.145,0.257
26.150,0.034
26.155,-0.018
26.160,0.213
26.165,0.103
26.170,-0.078
26.175,0.126
26.180,0.163
26.185,-0.082
26.190,0.010
26.195,0.177
26.200,-0.035
26.205,-0.086
26.210,0.145
26.215,0.040
26.220,-0.139
26.225,0.069
26.230,0.111
26.235,-0.132
26.240,-0.032
26.245,0.141
26.250,-0.074
26.255,-0.128
26.260,0.107
26.265,0.010
26.270,-0.167
26.275,0.039
26.280,0.084
26.285,-0.156
26.290,-0.062
26.295,0.113
26.300,-0.092
26.305,-0.148
26.310,0.084
26.315,-0.009
26.320,-0.185
26.325,0.021
26.330,0.075
26.335,-0.159
26.340,-0.063
26.345,0.116
26.350,-0.091
26.355,-0.144
26.360,0.094
26.365,0.002
26.370,-0.178
26.375,0.025
26.380,0.075
26.385,-0.162
26.390,-0.058
26.395,0.132
26.400,-0.073
26.405,-0.140
26.410,0.070
26.415,-0.048
26.420,-0.231
26.425,-0.024
26.430,0.020
26.435,-0.227
26.440,-0.130
26.445,0.054
26.450,-0.161
26.455,-0.220
26.460,0.033
26.465,-0.030
26.470,-0.184
26.475,0.033
26.480,0.098
26.485,-0.136
26.490,-0.045
26.495,0.135
26.500,-0.069
26.505,-0.125
26.510,0.118
26.515,0.031
26.520,-0.155
26.525,0.044
26.530,0.102
26.535,-0.138
26.540,-0.050
26.545,0.152
26.550,0.001
26.555,-0.035
26.560,0.097
26.565,-0.250
26.570,-0.815
26.575,-1.029
26.580,-1.192
26.585,-1.249
26.590,-0.701
26.595,-0.113
26.600,-0.036
26.605,0.083
26.610,0.362
26.615,0.270
26.620,0.084
26.625,0.293
26.630,0.374
26.635,0.137
26.640,0.215
26.645,0.396
26.650,0.189
26.655,0.112
26.660,0.338
26.665,0.248
26.670,0.050
26.675,0.234
26.680,0.291
26.685,0.048
26.690,0.117
26.695,0.295
26.700,0.092
26.705,0.016
26.710,0.245
26.715,0.158
26.720,-0.044
26.725,0.140
26.730,0.205
26.735,-0.043
26.740,0.020
26.745,0.202
26.750,-0.002
26.755,-0.086
26.760,0.145
26.765,0.059
26.770,-0.152
26.775,0.022
26.780,0.077
26.785,-0.181
26.790,-0.125
26.795,0.043
26.800,-0.176
26.805,-0.267
26.810,-0.047
26.815,-0.147
26.820,-0.361
26.825,-0.185
26.830,-0.130
26.835,-0.381
26.840,-0.303
26.845,-0.092
26.850,-0.248
26.855,-0.266
26.860,0.037
26.865,0.029
26.870,-0.105
26.875,0.145
26.880,0.270
26.885,0.070
26.890,0.174
26.895,0.384
26.900,0.198
26.905,0.127
26.910,0.370
26.915,0.298
26.920,0.091
26.925,0.268
26.930,0.335
26.935,0.091
26.940,0.155
26.945,0.341
26.950,0.141
26.955,0.050
26.960,0.275
26.965,0.193
26.970,-0.012
26.975,0.176
26.980,0.247
26.985,-0.005
26.990,0.054
26.995,0.244
27.000,0.046
27.005,-0.038
27.010,0.200
27.015,0.126
27.020,-0.087
27.025,0.094
27.030,0.170
27.035,-0.078
27.040,-0.015
27.045,0.183
27.050,-0.011
27.055,-0.103
27.060,0.129
27.065,0.058
27.070,-0.145
27.075,0.040
27.080,0.122
27.085,-0.118
27.090,-0.055
27.095,0.145
27.100,-0.041
27.105,-0.131
27.110,0.100
27.115,0.034
27.120,-0.167
27.125,0.021
27.130,0.104
27.135,-0.144
27.140,-0.088
27.145,0.115
27.150,-0.068
27.155,-0.156
27.160,0.082
27.165,0.020
27.170,-0.185
27.175,-0.001
27.180,0.085
27.185,-0.158
27.190,-0.098
27.195,0.106
27.200,-0.082
27.205,-0.171
27.210,0.073
27.215,0.017
27.220,-0.188
27.225,0.000
27.230,0.098
27.235,-0.153
27.240,-0.132
27.245,0.052
27.250,-0.121
27.255,-0.212
27.260,0.008
27.265,-0.051
27.270,-0.242
27.275,-0.061
27.280,0.020
27.285,-0.212
27.290,-0.130
27.295,0.105
27.300,-0.053
27.305,-0.135
27.310,0.107
27.315,0.062
27.320,-0.138
27.325,0.037
27.330,0.130
27.335,-0.105
27.340,-0.053
27.345,0.147
27.350,-0.034
27.355,-0.132
27.360,0.103
27.365,0.053
27.370,-0.158
27.375,0.032
27.380,0.181
27.385,-0.022
27.390,-0.050
27.395,-0.056
27.400,-0.590
27.405,-1.131
27.410,-1.182
27.415,-1.126
27.420,-0.894
27.425,-0.292
27.430,0.101
27.435,0.084
27.440,0.186
27.445,0.361
27.450,0.173
27.455,0.069
27.460,0.322
27.465,0.290
27.470,0.078
27.475,0.244
27.480,0.340
27.485,0.098
27.490,0.133
27.495,0.331
27.500,0.149
27.505,0.038
27.510,0.269
27.515,0.215
27.520,-0.014
27.525,0.150
27.530,0.251
27.535,0.008
27.540,0.046
27.545,0.255
27.550,0.073
27.555,-0.048
27.560,0.174
27.565,0.127
27.570,-0.091
27.575,0.072
27.580,0.171
27.585,-0.081
27.590,-0.055
27.595,0.143
27.600,-0.047
27.605,-0.165
27.610,0.064
27.615,0.004
27.620,-0.240
27.625,-0.101
27.630,-0.015
27.635,-0.271
27.640,-0.254
27.645,-0.058
27.650,-0.250
27.655,-0.380
27.660,-0.159
27.665,-0.206
27.670,-0.415
27.675,-0.224
27.680,-0.075
27.685,-0.260
27.690,-0.161
27.695,0.127
27.700,0.024
27.705,-0.031
27.710,0.256
27.715,0.261
27.720,0.077
27.725,0.264
27.730,0.389
27.735,0.161
27.740,0.190
27.745,0.397
27.750,0.223
27.755,0.103
27.760,0.332
27.765,0.290
27.770,0.059
27.775,0.212
27.780,0.327
27.785,0.091
27.790,0.110
27.795,0.311
27.800,0.134
27.805,0.006
27.810,0.232
27.815,0.201
27.820,-0.023
27.825,0.131
27.830,0.242
27.835,-0.005
27.840,0.006
27.845,0.217
27.850,0.050
27.855,-0.076
27.860,0.155
27.865,0.122
27.870,-0.108
27.875,0.044
27.880,0.162
27.885,-0.071
27.890,-0.049
27.895,0.167
27.900,-0.001
27.905,-0.134
27.910,0.098
27.915,0.074
27.920,-0.148
27.925,0.005
27.930,0.122
27.935,-0.116
27.940,-0.096
27.945,0.132
27.950,-0.020
27.955,-0.151
27.960,0.077
27.965,0.052
27.970,-0.176
27.975,-0.022
27.980,0.104
27.985,-0.126
27.990,-0.103
27.995,0.119
28.000,-0.041
28.005,-0.174
28.010,0.060
28.015,0.049
28.020,-0.167
28.025,-0.006
28.030,0.126
28.035,-0.124
28.040,-0.145
28.045,0.057
28.050,-0.092
28.055,-0.223
28.060,-0.008
28.065,-0.020
28.070,-0.233
28.075,-0.093
28.080,0.027
28.085,-0.194
28.090,-0.155
28.095,0.103
28.100,-0.023
28.105,-0.142
28.110,0.093
28.115,0.084
28.120,-0.136
28.125,0.016
28.130,0.143
28.135,-0.095
28.140,-0.086
28.145,0.142
28.150,-0.002
28.155,-0.137
28.160,0.079
28.165,0.062
28.170,-0.158
28.175,0.011
28.180,0.194
28.185,-0.002
28.190,-0.075
28.195,-0.092
28.200,-0.632
28.205,-1.223
28.210,-1.255
28.215,-1.109
28.220,-0.877
28.225,-0.313
28.230,0.126
28.235,0.116
28.240,0.168
28.245,0.361
28.250,0.205
28.255,0.069
28.260,0.317
28.265,0.321
28.270,0.088
28.275,0.228
28.280,0.358
28.285,0.114
28.290,0.108
28.295,0.328
28.300,0.172
28.305,0.025
28.310,0.251
28.315,0.241
28.320,0.000
28.325,0.130
28.330,0.263
28.335,0.025
28.340,0.019
28.345,0.242
28.350,0.089
28.355,-0.064
28.360,0.157
28.365,0.148
28.370,-0.091
28.375,0.039
28.380,0.170
28.385,-0.070
28.390,-0.088
28.395,0.127
28.400,-0.023
28.405,-0.180
28.410,0.030
28.415,0.013
28.420,-0.239
28.425,-0.127
28.430,-0.008
28.435,-0.258
28.440,-0.285
28.445,-0.075
28.450,-0.227
28.455,-0.388
28.460,-0.181
28.465,-0.186
28.470,-0.408
28.475,-0.247
28.480,-0.056
28.485,-0.215
28.490,-0.149
28.495,0.145
28.500,0.067
28.505,-0.029
28.510,0.241
28.515,0.290
28.520,0.092
28.525,0.241
28.530,0.395
28.535,0.174
28.540,0.164
28.545,0.393
28.550,0.257
28.555,0.099
28.560,0.312
28.565,0.310
28.570,0.066
28.575,0.186
28.580,0.327
28.585,0.096
28.590,0.074
28.595,0.294
28.600,0.159
28.605,0.003
28.610,0.213
28.615,0.217
28.620,-0.023
28.625,0.091
28.630,0.234
28.635,0.006
28.640,-0.018
28.645,0.206
28.650,0.071
28.655,-0.091
28.660,0.122
28.665,0.132
28.670,-0.104
28.675,0.016
28.680,0.164
28.685,-0.062
28.690,-0.086
28.695,0.139
28.700,0.010
28.705,-0.148
28.710,0.077
28.715,0.100
28.720,-0.140
28.725,-0.020
28.730,0.132
28.735,-0.093
28.740,-0.114
28.745,0.119
28.750,-0.008
28.755,-0.166
28.760,0.057
28.765,0.078
28.770,-0.156
28.775,-0.033
28.780,0.122
28.785,-0.104
28.790,-0.130
28.795,0.103
28.800,-0.019
28.805,-0.178
28.810,0.040
28.815,0.064
28.820,-0.168
28.825,-0.046
28.830,0.118
28.835,-0.094
28.840,-0.126
28.845,0.084
28.850,-0.062
28.855,-0.231
28.860,-0.011
28.865,0.008
28.870,-0.236
28.875,-0.118
28.880,0.042
28.885,-0.178
28.890,-0.202
28.895,0.041
28.900,-0.048
28.905,-0.178
28.910,0.058
28.915,0.093
28.920,-0.136
28.925,-0.014
28.930,0.145
28.935,-0.073
28.940,-0.096
28.945,0.141
28.950,0.021
28.955,-0.149
28.960,0.061
28.965,0.089
28.970,-0.146
28.975,-0.037
28.980,0.135
28.985,-0.031
28.990,-0.014
28.995,0.176
29.000,-0.131
29.005,-0.636
29.010,-0.856
29.015,-1.182
29.020,-1.444
29.025,-0.945
29.030,-0.302
29.035,-0.185
29.040,0.036
29.045,0.378
29.050,0.251
29.055,0.073
29.060,0.288
29.065,0.336
29.070,0.108
29.075,0.213
29.080,0.378
29.085,0.158
29.090,0.111
29.095,0.338
29.100,0.221
29.105,0.042
29.110,0.242
29.115,0.272
29.120,0.029
29.125,0.126
29.130,0.285
29.135,0.064
29.140,0.015
29.145,0.243
29.150,0.128
29.155,-0.054
29.160,0.151
29.165,0.187
29.170,-0.057
29.175,0.034
29.180,0.192
29.185,-0.028
29.190,-0.077
29.195,0.148
29.200,0.030
29.205,-0.154
29.210,0.040
29.215,0.063
29.220,-0.192
29.225,-0.108
29.230,0.041
29.235,-0.196
29.240,-0.265
29.245,-0.048
29.250,-0.171
29.255,-0.370
29.260,-0.179
29.265,-0.146
29.270,-0.392
29.275,-0.291
29.280,-0.101
29.285,-0.276
29.290,-0.270
29.295,0.034
29.300,0.001
29.305,-0.108
29.310,0.164
29.315,0.262
29.320,0.062
29.325,0.191
29.330,0.388
29.335,0.191
29.340,0.151
29.345,0.394
29.350,0.292
29.355,0.108
29.360,0.307
29.365,0.341
29.370,0.090
29.375,0.181
29.380,0.351
29.385,0.136
29.390,0.074
29.395,0.299
29.400,0.194
29.405,0.005
29.410,0.200
29.415,0.243
29.420,-0.001
29.425,0.090
29.430,0.261
29.435,0.045
29.440,-0.019
29.445,0.209
29.450,0.104
29.455,-0.084
29.460,0.116
29.465,0.163
29.470,-0.083
29.475,0.003
29.480,0.180
29.485,-0.028
29.490,-0.089
29.495,0.142
29.500,0.045
29.505,-0.139
29.510,0.060
29.515,0.112
29.520,-0.129
29.525,-0.043
29.530,0.133
29.535,-0.071
29.540,-0.122
29.545,0.118
29.550,0.019
29.555,-0.169
29.560,0.033
29.565,0.087
29.570,-0.153
29.575,-0.063
29.580,0.118
29.585,-0.090
29.590,-0.148
29.595,0.090
29.600,0.002
29.605,-0.184
29.610,0.014
29.615,0.074
29.620,-0.165
29.625,-0.081
29.630,0.106
29.635,-0.095
29.640,-0.161
29.645,0.077
29.650,-0.007
29.655,-0.192
29.660,0.010
29.665,0.080
29.670,-0.156
29.675,-0.080
29.680,0.083
29.685,-0.140
29.690,-0.208
29.695,0.035
29.700,-0.056
29.705,-0.248
29.710,-0.042
29.715,0.032
29.720,-0.210
29.725,-0.135
29.730,0.064
29.735,-0.104
29.740,-0.142
29.745,0.113
29.750,0.040
29.755,-0.146
29.760,0.054
29.765,0.121
29.770,-0.123
29.775,-0.044
29.780,0.145
29.785,-0.055
29.790,-0.122
29.795,0.114
29.800,0.029
29.805,-0.164
29.810,0.030
29.815,0.122
29.820,-0.059
29.825,0.037
29.830,0.109
29.835,-0.351
29.840,-0.806
29.845,-0.984
29.850,-1.280
29.855,-1.279
29.860,-0.613
29.865,-0.137
29.870,-0.103
29.875,0.149
29.880,0.376
29.885,0.166
29.890,0.092
29.895,0.344
29.900,0.287
29.905,0.094
29.910,0.282
29.915,0.351
29.920,0.107
29.925,0.171
29.930,0.353
29.935,0.153
29.940,0.069
29.945,0.296
29.950,0.215
29.955,0.013
29.960,0.195
29.965,0.262
29.970,0.014
29.975,0.074
29.980,0.262
29.985,0.065
29.990,-0.021
29.995,0.207
30.000,0.128
30.005,-0.076
30.010,0.105
30.015,0.174
30.020,-0.074
30.025,-0.018
30.030,0.166
30.035,-0.036
30.040,-0.131
30.045,0.092
30.050,0.009
30.055,-0.208
30.060,-0.044
30.065,0.011
30.070,-0.249
30.075,-0.203
30.080,-0.029
30.085,-0.242
30.090,-0.351
30.095,-0.133
30.100,-0.208
30.105,-0.413
30.110,-0.221
30.115,-0.116
30.120,-0.316
30.125,-0.199
30.130,0.066
30.135,-0.050
30.140,-0.070
30.145,0.223
30.150,0.206
30.155,0.046
30.160,0.261
30.165,0.362
30.170,0.133
30.175,0.196
30.180,0.393
30.185,0.204
30.190,0.108
30.195,0.340
30.200,0.275
30.205,0.063
30.210,0.236
30.215,0.314
30.220,0.067
30.225,0.112
30.230,0.301
30.235,0.110
30.240,0.013
30.245,0.241
30.250,0.179
30.255,-0.027
30.260,0.143
30.265,0.221
30.270,-0.021
30.275,0.027
30.280,0.212
30.285,0.021
30.290,-0.070
30.295,0.171
30.300,0.117
30.305,-0.108
30.310,0.051
30.315,0.149
30.320,-0.067
30.325,-0.015
30.330,0.161
30.335,-0.019
30.340,-0.108
30.345,0.099
30.350,0.038
30.355,-0.176
30.360,-0.032
30.365,0.059
30.370,-0.180
30.375,-0.130
30.380,0.092
30.385,-0.087
30.390,-0.194
30.395,0.044
30.400,-0.003
30.405,-0.219
30.410,-0.049
30.415,0.050
30.420,-0.174
30.425,-0.101
30.430,0.114
30.435,-0.079
30.440,-0.182
30.445,0.087
30.450,0.060
30.455,-0.168
30.460,-0.012
30.465,0.079
30.470,-0.156
30.475,-0.098
30.480,0.123
30.485,-0.056
30.490,-0.172
30.495,0.071
30.500,0.047
30.505,-0.146
30.510,0.017
30.515,0.093
30.520,-0.150
30.525,-0.113
30.530,0.082
30.535,-0.092
30.540,-0.192
30.545,0.054
30.550,0.032
30.555,-0.183
30.560,-0.030
30.565,0.084
30.570,-0.176
30.575,-0.183
30.580,0.031
30.585,-0.128
30.590,-0.251
30.595,-0.036
30.600,-0.078
30.605,-0.297
30.610,-0.130
30.615,-0.001
30.620,-0.213
30.625,-0.154
30.630,0.060
30.635,-0.112
30.640,-0.212
30.645,0.029
30.650,-0.004
30.655,-0.218
30.660,-0.057
30.665,0.054
30.670,-0.173
30.675,-0.144
30.680,0.062
30.685,-0.090
30.690,-0.193
30.695,0.053
30.700,0.045
30.705,-0.156
30.710,0.044
30.715,0.185
30.720,-0.150
30.725,-0.374
30.730,-0.547
30.735,-1.134
30.740,-1.463
30.745,-1.024
30.750,-0.564
30.755,-0.381
30.760,0.045
30.765,0.349
30.770,0.151
30.775,0.157
30.780,0.363
30.785,0.205
30.790,0.123
30.795,0.377
30.800,0.351
30.805,0.122
30.810,0.262
30.815,0.377
30.820,0.154
30.825,0.180
30.830,0.386
30.835,0.222
30.840,0.101
30.845,0.317
30.850,0.297
30.855,0.092
30.860,0.223
30.865,0.327
30.870,0.112
30.875,0.121
30.880,0.304
30.885,0.151
30.890,0.045
30.895,0.240
30.900,0.192
30.905,0.003
30.910,0.147
30.915,0.222
30.920,-0.001
30.925,0.043
30.930,0.240
30.935,0.039
30.940,-0.108
30.945,0.106
30.950,0.075
30.955,-0.139
30.960,-0.030
30.965,0.036
30.970,-0.203
30.975,-0.198
30.980,-0.005
30.985,-0.172
30.990,-0.310
30.995,-0.103
31.000,-0.127
31.005,-0.311
31.010,-0.133
31.015,0.029
31.020,-0.083
31.025,0.009
31.030,0.241
31.035,0.143
31.040,0.074
31.045,0.331
31.050,0.354
31.055,0.177
31.060,0.347
31.065,0.472
31.070,0.231
31.075,0.219
31.080,0.404
31.085,0.241
31.090,0.124
31.095,0.360
31.100,0.345
31.105,0.095
31.110,0.200
31.115,0.326
31.120,0.111
31.125,0.113
31.130,0.313
31.135,0.127
31.140,-0.037
31.145,0.193
31.150,0.217
31.155,-0.007
31.160,0.066
31.165,0.127
31.170,-0.113
31.175,-0.096
31.180,0.123
31.185,-0.012
31.190,-0.127
31.195,0.061
31.200,-0.006
31.205,-0.225
31.210,-0.052
31.215,0.083
31.220,-0.160
31.225,-0.198
31.230,-0.014
31.235,-0.153
31.240,-0.282
31.245,-0.045
31.250,-0.034
31.255,-0.255
31.260,-0.098
31.265,0.013
31.270,-0.248
31.275,-0.210
31.280,0.016
31.285,-0.164
31.290,-0.290
31.295,-0.048
31.300,-0.080
31.305,-0.338
31.310,-0.170
31.315,-0.002
31.320,-0.273
31.325,-0.303
31.330,-0.074
31.335,-0.243
31.340,-0.385
31.345,-0.122
31.350,-0.177
31.355,-0.493
31.360,-0.341
31.365,-0.199
31.370,-0.476
31.375,-0.490
31.380,-0.259
31.385,-0.428
31.390,-0.639
31.395,-0.447
31.400,-0.455
31.405,-0.759
31.410,-0.709
31.415,-0.570
31.420,-0.730
31.425,-0.638
31.430,-0.304
31.435,-0.341
31.440,-0.430
31.445,-0.176
31.450,-0.115
31.455,-0.277
31.460,-0.085
31.465,0.119
31.470,-0.071
31.475,-0.058
31.480,0.220
31.485,0.157
31.490,0.069
31.495,0.303
31.500,0.318
31.505,0.122
31.510,0.286
31.515,0.500
31.520,0.379
31.525,0.377
31.530,0.450
31.535,0.012
31.540,-0.543
31.545,-0.681
31.550,-0.762
31.555,-0.656
31.560,-0.054
31.565,0.458
31.570,0.573
31.575,0.692
31.580,0.864
31.585,0.744
31.590,0.614
31.595,0.818
31.600,0.847
31.605,0.618
31.610,0.705
31.615,0.843
31.620,0.649
31.625,0.627
31.630,0.785
31.635,0.637
31.640,0.505
31.645,0.670
31.650,0.640
31.655,0.414
31.660,0.504
31.665,0.629
31.670,0.444
31.675,0.401
31.680,0.546
31.685,0.413
31.690,0.251
31.695,0.410
31.700,0.424
31.705,0.200
31.710,0.273
31.715,0.382
31.720,0.157
31.725,0.120
31.730,0.293
31.735,0.148
31.740,-0.002
31.745,0.164
31.750,0.134
31.755,-0.096
31.760,0.013
31.765,0.119
31.770,-0.146
31.775,-0.200
31.780,-0.006
31.785,-0.154
31.790,-0.343
31.795,-0.182
31.800,-0.176
31.805,-0.383
31.810,-0.257
31.815,-0.091
31.820,-0.263
31.825,-0.233
31.830,0.050
31.835,0.002
31.840,-0.093
31.845,0.155
31.850,0.199
31.855,-0.012
31.860,0.120
31.865,0.286
31.870,0.080
31.875,0.058
31.880,0.276
31.885,0.138
31.890,-0.034
31.895,0.174
31.900,0.181
31.905,-0.070
31.910,0.036
31.915,0.169
31.920,-0.060
31.925,-0.084
31.930,0.131
31.935,-0.004
31.940,-0.170
31.945,0.029
31.950,0.032
31.955,-0.206
31.960,-0.080
31.965,0.070
31.970,-0.165
31.975,-0.189
31.980,0.050
31.985,-0.075
31.990,-0.252
31.995,-0.055
32.000,-0.043
32.005,-0.273
32.010,-0.161
32.015,-0.014
32.020,-0.231
32.025,-0.248
32.030,0.007
32.035,-0.113
32.040,-0.305
32.045,-0.107
32.050,-0.077
32.055,-0.304
32.060,-0.186
32.065,-0.030
32.070,-0.243
32.075,-0.261
32.080,-0.025
32.085,-0.143
32.090,-0.303
32.095,-0.090
32.100,-0.064
32.105,-0.287
32.110,-0.155
32.115,0.036
32.120,-0.164
32.125,-0.214
32.130,0.006
32.135,-0.095
32.140,-0.239
32.145,-0.012
32.150,0.015
32.155,-0.239
32.160,-0.137
32.165,0.042
32.170,-0.152
32.175,-0.169
32.180,0.070
32.185,-0.038
32.190,-0.198
32.195,0.013
32.200,0.041
32.205,-0.221
32.210,-0.151
32.215,0.012
32.220,-0.183
32.225,-0.224
32.230,0.006
32.235,-0.094
32.240,-0.262
32.245,-0.043
32.250,0.002
32.255,-0.234
32.260,-0.107
32.265,0.086
32.270,-0.098
32.275,-0.119
32.280,0.109
32.285,0.006
32.290,-0.165
32.295,0.024
32.300,0.075
32.305,-0.130
32.310,-0.042
32.315,0.117
32.320,-0.066
32.325,-0.110
32.330,0.098
32.335,-0.002
32.340,-0.124
32.345,0.145
32.350,0.196
32.355,-0.180
32.360,-0.429
32.365,-0.708
32.370,-1.280
32.375,-1.423
32.380,-0.887
32.385,-0.512
32.390,-0.313
32.395,0.181
32.400,0.350
32.405,0.096
32.410,0.175
32.415,0.355
32.420,0.178
32.425,0.126
32.430,0.333
32.435,0.256
32.440,0.090
32.445,0.261
32.450,0.296
32.455,0.064
32.460,0.142
32.465,0.305
32.470,0.104
32.475,0.036
32.480,0.262
32.485,0.179
32.490,-0.011
32.495,0.178
32.500,0.223
32.505,-0.033
32.510,0.037
32.515,0.209
32.520,0.027
32.525,-0.024
32.530,0.173
32.535,0.066
32.540,-0.107
32.545,0.083
32.550,0.139
32.555,-0.107
32.560,-0.049
32.565,0.114
32.570,-0.091
32.575,-0.154
32.580,0.059
32.585,-0.055
32.590,-0.265
32.595,-0.098
32.600,-0.053
32.605,-0.313
32.610,-0.273
32.615,-0.118
32.620,-0.315
32.625,-0.369
32.630,-0.132
32.635,-0.202
32.640,-0.349
32.645,-0.113
32.650,-0.001
32.655,-0.159
32.660,-0.005
32.665,0.248
32.670,0.117
32.675,0.071
32.680,0.310
32.685,0.260
32.690,0.110
32.695,0.315
32.700,0.378
32.705,0.140
32.710,0.201
32.715,0.374
32.720,0.191
32.725,0.116
32.730,0.328
32.735,0.245
32.740,0.050
32.745,0.238
32.750,0.304
32.755,0.054
32.760,0.109
32.765,0.279
32.770,0.087
32.775,0.026
32.780,0.245
32.785,0.148
32.790,-0.042
32.795,0.164
32.800,0.225
32.805,-0.031
32.810,0.035
32.815,0.194
32.820,-0.013
32.825,-0.059
32.830,0.182
32.835,0.092
32.840,-0.115
32.845,0.056
32.850,0.125
32.855,-0.090
32.860,-0.009
32.865,0.169
32.870,-0.021
32.875,-0.097
32.880,0.111
32.885,0.027
32.890,-0.147
32.895,0.037
32.900,0.094
32.905,-0.126
32.910,-0.038
32.915,0.156
32.920,-0.039
32.925,-0.136
32.930,0.077
32.935,0.017
32.940,-0.142
32.945,0.040
32.950,0.087
32.955,-0.155
32.960,-0.086
32.965,0.102
32.970,-0.090
32.975,-0.156
32.980,0.085
32.985,0.005
32.990,-0.168
32.995,0.037
33.000,0.096
33.005,-0.176
33.010,-0.151
33.015,0.042
33.020,-0.118
33.025,-0.206
33.030,-0.004
33.035,-0.071
33.040,-0.243
33.045,-0.056
33.050,0.028
33.055,-0.181
33.060,-0.105
33.065,0.095
33.070,-0.068
33.075,-0.137
33.080,0.093
33.085,0.026
33.090,-0.157
33.095,0.031
33.100,0.098
33.105,-0.123
33.110,-0.051
33.115,0.120
33.120,-0.063
33.125,-0.128
33.130,0.113
33.135,0.053
33.140,-0.147
33.145,0.063
33.150,0.193
33.155,-0.100
33.160,-0.273
33.165,-0.452
33.170,-1.051
33.175,-1.411
33.180,-1.109
33.185,-0.756
33.190,-0.517
33.195,-0.031
33.200,0.286
33.205,0.127
33.210,0.154
33.215,0.342
33.220,0.189
33.225,0.146
33.230,0.369
33.235,0.259
33.240,0.055
33.245,0.251
33.250,0.326
33.255,0.079
33.260,0.143
33.265,0.328
33.270,0.120
33.275,0.041
33.280,0.274
33.285,0.178
33.290,-0.031
33.295,0.168
33.300,0.252
33.305,0.007
33.310,0.058
33.315,0.230
33.320,0.034
33.325,-0.054
33.330,0.169
33.335,0.095
33.340,-0.111
33.345,0.070
33.350,0.162
33.355,-0.089
33.360,-0.069
33.365,0.120
33.370,-0.063
33.375,-0.179
33.380,0.026
33.385,-0.040
33.390,-0.262
33.395,-0.124
33.400,-0.045
33.405,-0.283
33.410,-0.266
33.415,-0.106
33.420,-0.279
33.425,-0.365
33.430,-0.160
33.435,-0.222
33.440,-0.401
33.445,-0.183
33.450,-0.018
33.455,-0.166
33.460,-0.040
33.465,0.220
33.470,0.097
33.475,0.039
33.480,0.286
33.485,0.276
33.490,0.128
33.495,0.292
33.500,0.360
33.505,0.140
33.510,0.184
33.515,0.371
33.520,0.211
33.525,0.123
33.530,0.326
33.535,0.249
33.540,0.034
33.545,0.197
33.550,0.288
33.555,0.051
33.560,0.082
33.565,0.287
33.570,0.140
33.575,0.023
33.580,0.203
33.585,0.150
33.590,-0.037
33.595,0.116
33.600,0.201
33.605,-0.010
33.610,0.023
33.615,0.200
33.620,0.021
33.625,-0.091
33.630,0.131
33.635,0.079
33.640,-0.117
33.645,0.057
33.650,0.138
33.655,-0.092
33.660,-0.046
33.665,0.158
33.670,-0.012
33.675,-0.133
33.680,0.069
33.685,0.031
33.690,-0.143
33.695,0.019
33.700,0.110
33.705,-0.121
33.710,-0.098
33.715,0.107
33.720,-0.044
33.725,-0.142
33.730,0.071
33.735,0.023
33.740,-0.162
33.745,0.013
33.750,0.097
33.755,-0.147
33.760,-0.100
33.765,0.110
33.770,-0.044
33.775,-0.139
33.780,0.073
33.785,0.029
33.790,-0.170
33.795,-0.020
33.800,0.070
33.805,-0.154
33.810,-0.137
33.815,0.041
33.820,-0.126
33.825,-0.232
33.830,-0.005
33.835,-0.032
33.840,-0.228
33.845,-0.047
33.850,0.083
33.855,-0.135
33.860,-0.098
33.865,0.127
33.870,-0.012
33.875,-0.110
33.880,0.123
33.885,0.085
33.890,-0.139
33.895,0.011
33.900,0.122
33.905,-0.099
33.910,-0.064
33.915,0.139
33.920,-0.036
33.925,-0.150
33.930,0.099
33.935,0.122
33.940,-0.029
33.945,0.102
33.950,0.049
33.955,-0.512
33.960,-0.958
33.965,-1.124
33.970,-1.331
33.975,-1.109
33.980,-0.411
33.985,-0.069
33.990,0.007
33.995,0.278
34.000,0.376
34.005,0.127
34.010,0.144
34.015,0.373
34.020,0.240
34.025,0.126
34.030,0.339
34.035,0.318
34.040,0.089
34.045,0.215
34.050,0.337
34.055,0.103
34.060,0.101
34.065,0.312
34.070,0.172
34.075,0.038
34.080,0.232
34.085,0.211
34.090,0.004
34.095,0.144
34.100,0.244
34.105,0.006
34.110,0.022
34.115,0.234
34.120,0.072
34.125,-0.062
34.130,0.142
34.135,0.107
34.140,-0.105
34.145,0.035
34.150,0.141
34.155,-0.094
34.160,-0.102
34.165,0.084
34.170,-0.073
34.175,-0.210
34.180,-0.016
34.185,-0.053
34.190,-0.299
34.195,-0.180
34.200,-0.061
34.205,-0.306
34.210,-0.330
34.215,-0.136
34.220,-0.270
34.225,-0.367
34.230,-0.141
34.235,-0.138
34.240,-0.286
34.245,-0.073
34.250,0.120
34.255,-0.015
34.260,0.049
34.265,0.288
34.270,0.194
34.275,0.108
34.280,0.336
34.285,0.331
34.290,0.124
34.295,0.263
34.300,0.382
34.305,0.150
34.310,0.142
34.315,0.349
34.320,0.211
34.325,0.092
34.330,0.308
34.335,0.259
34.340,0.014
34.345,0.166
34.350,0.301
34.355,0.058
34.360,0.051
34.365,0.266
34.370,0.110
34.375,-0.024
34.380,0.200
34.385,0.186
34.390,-0.041
34.395,0.099
34.400,0.230
34.405,-0.010
34.410,-0.025
34.415,0.185
34.420,0.040
34.425,-0.105
34.430,0.110
34.435,0.113
34.440,-0.109
34.445,0.012
34.450,0.142
34.455,-0.069
34.460,-0.076
34.465,0.135
34.470,0.004
34.475,-0.132
34.480,0.077
34.485,0.068
34.490,-0.150
34.495,-0.004
34.500,0.133
34.505,-0.101
34.510,-0.097
34.515,0.139
34.520,-0.017
34.525,-0.174
34.530,0.053
34.535,0.063
34.540,-0.157
34.545,-0.037
34.550,0.090
34.555,-0.105
34.560,-0.103
34.565,0.098
34.570,-0.029
34.575,-0.166
34.580,0.045
34.585,0.062
34.590,-0.157
34.595,-0.031
34.600,0.120
34.605,-0.096
34.610,-0.124
34.615,0.060
34.620,-0.089
34.625,-0.218
34.630,-0.013
34.635,-0.028
34.640,-0.236
34.645,-0.089
34.650,0.048
34.655,-0.167
34.660,-0.164
34.665,0.064
34.670,-0.033
34.675,-0.152
34.680,0.073
34.685,0.100
34.690,-0.132
34.695,-0.020
34.700,0.129
34.705,-0.083
34.710,-0.086
34.715,0.144
34.720,0.015
34.725,-0.147
34.730,0.061
34.735,0.080
34.740,-0.141
34.745,-0.020
34.750,0.172
34.755,0.039
34.760,-0.014
34.765,0.012
34.770,-0.396
34.775,-0.947
34.780,-1.148
34.785,-1.256
34.790,-1.169
34.795,-0.573
34.800,-0.058
34.805,0.027
34.810,0.160
34.815,0.367
34.820,0.233
34.825,0.084
34.830,0.297
34.835,0.331
34.840,0.118
34.845,0.243
34.850,0.383
34.855,0.144
34.860,0.114
34.865,0.336
34.870,0.211
34.875,0.049
34.880,0.244
34.885,0.255
34.890,0.029
34.895,0.148
34.900,0.303
34.905,0.078
34.910,0.029
34.915,0.236
34.920,0.107
34.925,-0.044
34.930,0.164
34.935,0.169
34.940,-0.067
34.945,0.038
34.950,0.188
34.955,-0.021
34.960,-0.062
34.965,0.140
34.970,0.015
34.975,-0.142
34.980,0.057
34.985,0.044
34.990,-0.223
34.995,-0.119
35.000,0.015
35.005,-0.231
35.010,-0.277
35.015,-0.069
35.020,-0.196
35.025,-0.355
35.030,-0.166
35.035,-0.167
35.040,-0.401
35.045,-0.280
35.050,-0.097
35.055,-0.246
35.060,-0.197
35.065,0.099
35.070,0.061
35.075,-0.030
35.080,0.215
35.085,0.272
35.090,0.075
35.095,0.210
35.100,0.384
35.105,0.177
35.110,0.143
35.115,0.365
35.120,0.249
35.125,0.083
35.130,0.288
35.135,0.317
35.140,0.073
35.145,0.155
35.150,0.312
35.155,0.108
35.160,0.065
35.165,0.289
35.170,0.178
35.175,-0.004
35.180,0.184
35.185,0.214
35.190,-0.029
35.195,0.063
35.200,0.229
35.205,0.025
35.210,-0.012
35.215,0.210
35.220,0.078
35.225,-0.109
35.230,0.102
35.235,0.154
35.240,-0.074
35.245,0.021
35.250,0.172
35.255,-0.049
35.260,-0.096
35.265,0.136
35.270,0.039
35.275,-0.127
35.280,0.067
35.285,0.092
35.290,-0.138
35.295,-0.034
35.300,0.138
35.305,-0.066
35.310,-0.122
35.315,0.102
35.320,0.010
35.325,-0.162
35.330,0.019
35.335,0.066
35.340,-0.140
35.345,-0.043
35.350,0.116
35.355,-0.089
35.360,-0.134
35.365,0.093
35.370,-0.015
35.375,-0.185
35.380,0.032
35.385,0.069
35.390,-0.167
35.395,-0.054
35.400,0.107
35.405,-0.113
35.410,-0.148
35.415,0.075
35.420,-0.020
35.425,-0.164
35.430,0.032
35.435,0.064
35.440,-0.161
35.445,-0.085
35.450,0.056
35.455,-0.141
35.460,-0.182
35.465,0.038
35.470,-0.070
35.475,-0.255
35.480,-0.055
35.485,0.004
35.490,-0.212
35.495,-0.097
35.500,0.109
35.505,-0.060
35.510,-0.109
35.515,0.107
35.520,0.012
35.525,-0.149
35.530,0.057
35.535,0.115
35.540,-0.103
35.545,-0.030
35.550,0.129
35.555,-0.058
35.560,-0.113
35.565,0.104
35.570,0.016
35.575,-0.145
35.580,0.067
35.585,0.162
35.590,-0.042
35.595,-0.053
35.600,-0.113
35.605,-0.668
35.610,-1.156
35.615,-1.201
35.620,-1.165
35.625,-0.890
35.630,-0.266
35.635,0.072
35.640,0.043
35.645,0.191
35.650,0.357
35.655,0.168
35.660,0.131
35.665,0.378
35.670,0.282
35.675,0.096
35.680,0.293
35.685,0.343
35.690,0.098
35.695,0.170
35.700,0.333
35.705,0.127
35.710,0.063
35.715,0.286
35.720,0.200
35.725,0.015
35.730,0.201
35.735,0.258
35.740,0.017
35.745,0.087
35.750,0.252
35.755,0.043
35.760,-0.025
35.765,0.207
35.770,0.116
35.775,-0.091
35.780,0.087
35.785,0.150
35.790,-0.086
35.795,-0.022
35.800,0.152
35.805,-0.044
35.810,-0.131
35.815,0.071
35.820,-0.020
35.825,-0.205
35.830,-0.043
35.835,-0.030
35.840,-0.289
35.845,-0.220
35.850,-0.057
35.855,-0.275
35.860,-0.365
35.865,-0.137
35.870,-0.204
35.875,-0.398
35.880,-0.200
35.885,-0.079
35.890,-0.245
35.895,-0.118
35.900,0.128
35.905,0.020
35.910,0.001
35.915,0.252
35.920,0.222
35.925,0.086
35.930,0.284
35.935,0.351
35.940,0.133
35.945,0.201
35.950,0.371
35.955,0.185
35.960,0.104
35.965,0.318
35.970,0.245
35.975,0.055
35.980,0.229
35.985,0.290
35.990,0.055
35.995,0.122
36.000,0.283
36.005,0.068
36.010,-0.006
36.015,0.232
36.020,0.152
36.025,-0.048
36.030,0.146
36.035,0.228
36.040,-0.021
36.045,0.022
36.050,0.196
36.055,0.024
36.060,-0.040
36.065,0.160
36.070,0.073
36.075,-0.112
36.080,0.069
36.085,0.151
36.090,-0.075
36.095,-0.032
36.100,0.141
36.105,-0.031
36.110,-0.104
36.115,0.121
36.120,0.060
36.125,-0.130
36.130,0.032
36.135,0.090
36.140,-0.136
36.145,-0.072
36.150,0.114
36.155,-0.061
36.160,-0.135
36.165,0.101
36.170,0.047
36.175,-0.153
36.180,0.006
36.185,0.081
36.190,-0.147
36.195,-0.090
36.200,0.118
36.205,-0.048
36.210,-0.156
36.215,0.053
36.220,0.007
36.225,-0.170
36.230,0.004
36.235,0.081
36.240,-0.148
36.245,-0.098
36.250,0.092
36.255,-0.075
36.260,-0.153
36.265,0.072
36.270,-0.001
36.275,-0.207
36.280,-0.021
36.285,0.081
36.290,-0.141
36.295,-0.085
36.300,0.110
36.305,-0.092
36.310,-0.222
36.315,0.004
36.320,-0.026
36.325,-0.218
36.330,-0.060
36.335,0.018
36.340,-0.207
36.345,-0.131
36.350,0.072
36.355,-0.121
36.360,-0.207
36.365,0.046
36.370,0.028
36.375,-0.162
36.380,0.000
36.385,0.105
36.390,-0.104
36.395,-0.035
36.400,0.169
36.405,-0.034
36.410,-0.141
36.415,0.100
36.420,0.050
36.425,-0.137
36.430,0.036
36.435,0.105
36.440,-0.112
36.445,-0.032
36.450,0.206
36.455,0.042
36.460,-0.174
36.465,-0.214
36.470,-0.628
36.475,-1.218
36.480,-1.283
36.485,-1.011
36.490,-0.739
36.495,-0.278
36.500,0.170
36.505,0.160
36.510,0.097
36.515,0.306
36.520,0.277
36.525,0.115
36.530,0.289
36.535,0.360
36.540,0.124
36.545,0.163
36.550,0.361
36.555,0.193
36.560,0.074
36.565,0.280
36.570,0.250
36.575,0.054
36.580,0.202
36.585,0.286
36.590,0.049
36.595,0.071
36.600,0.260
36.605,0.099
36.610,0.001
36.615,0.213
36.620,0.163
36.625,-0.038
36.630,0.114
36.635,0.194
36.640,-0.054
36.645,-0.035
36.650,0.176
36.655,0.014
36.660,-0.108
36.665,0.106
36.670,0.063
36.675,-0.154
36.680,-0.013
36.685,0.050
36.690,-0.213
36.695,-0.173
36.700,0.020
36.705,-0.197
36.710,-0.337
36.715,-0.111
36.720,-0.147
36.725,-0.383
36.730,-0.255
36.735,-0.151
36.740,-0.357
36.745,-0.303
36.750,-0.065
36.755,-0.159
36.760,-0.200
36.765,0.083
36.770,0.127
36.775,-0.018
36.780,0.188
36.785,0.329
36.790,0.110
36.795,0.155
36.800,0.370
36.805,0.212
36.810,0.120
36.815,0.353
36.820,0.302
36.825,0.078
36.830,0.230
36.835,0.337
36.840,0.105
36.845,0.120
36.850,0.318
36.855,0.148
36.860,0.022
36.865,0.253
36.870,0.223
36.875,-0.002
36.880,0.130
36.885,0.218
36.890,-0.004
36.895,0.045
36.900,0.261
36.905,0.082
36.910,-0.064
36.915,0.154
36.920,0.130
36.925,-0.081
36.930,0.078
36.935,0.184
36.940,-0.050
36.945,-0.028
36.950,0.171
36.955,0.010
36.960,-0.111
36.965,0.111
36.970,0.095
36.975,-0.126
36.980,0.000
36.985,0.108
36.990,-0.096
36.995,-0.062
37.000,0.123
37.005,-0.046
37.010,-0.152
37.015,0.083
37.020,0.064
37.025,-0.147
37.030,-0.002
37.035,0.095
37.040,-0.138
37.045,-0.111
37.050,0.108
37.055,-0.026
37.060,-0.148
37.065,0.046
37.070,0.028
37.075,-0.163
37.080,-0.004
37.085,0.118
37.090,-0.116
37.095,-0.112
37.100,0.108
37.105,-0.029
37.110,-0.163
37.115,0.034
37.120,0.005
37.125,-0.220
37.130,-0.088
37.135,0.025
37.140,-0.191
37.145,-0.166
37.150,0.040
37.155,-0.093
37.160,-0.182
37.165,0.052
37.170,0.046
37.175,-0.146
37.180,0.013
37.185,0.140
37.190,-0.074
37.195,-0.058
37.200,0.153
37.205,0.008
37.210,-0.130
37.215,0.078
37.220,0.075
37.225,-0.131
37.230,0.006
37.235,0.125
37.240,-0.091
37.245,-0.072
37.250,0.177
37.255,0.090
37.260,-0.078
37.265,-0.059
37.270,-0.402
37.275,-1.040
37.280,-1.254
37.285,-1.154
37.290,-0.981
37.295,-0.506
37.300,0.030
37.305,0.153
37.310,0.128
37.315,0.318
37.320,0.285
37.325,0.051
37.330,0.197
37.335,0.366
37.340,0.176
37.345,0.163
37.350,0.346
37.355,0.191
37.360,0.052
37.365,0.272
37.370,0.264
37.375,0.030
37.380,0.154
37.385,0.278
37.390,0.060
37.395,0.061
37.400,0.260
37.405,0.100
37.410,-0.045
37.415,0.170
37.420,0.173
37.425,-0.039
37.430,0.084
37.435,0.190
37.440,-0.038
37.445,-0.032
37.450,0.185
37.455,0.032
37.460,-0.135
37.465,0.063
37.470,0.058
37.475,-0.165
37.480,-0.031
37.485,0.081
37.490,-0.175
37.495,-0.192
37.500,0.004
37.505,-0.157
37.510,-0.309
37.515,-0.111
37.520,-0.136
37.525,-0.372
37.530,-0.242
37.535,-0.120
37.540,-0.349
37.545,-0.337
37.550,-0.080
37.555,-0.150
37.560,-0.228
37.565,0.044
37.570,0.121
37.575,-0.036
37.580,0.143
37.585,0.323
37.590,0.129
37.595,0.136
37.600,0.368
37.605,0.248
37.610,0.105
37.615,0.315
37.620,0.314
37.625,0.081
37.630,0.207
37.635,0.344
37.640,0.119
37.645,0.103
37.650,0.314
37.655,0.173
37.660,0.024
37.665,0.228
37.670,0.218
37.675,-0.012
37.680,0.111
37.685,0.251
37.690,0.041
37.695,0.009
37.700,0.195
37.705,0.070
37.710,-0.068
37.715,0.137
37.720,0.149
37.725,-0.080
37.730,0.028
37.735,0.164
37.740,-0.053
37.745,-0.067
37.750,0.148
37.755,0.017
37.760,-0.131
37.765,0.076
37.770,0.094
37.775,-0.127
37.780,-0.013
37.785,0.137
37.790,-0.069
37.795,-0.089
37.800,0.140
37.805,0.036
37.810,-0.133
37.815,0.046
37.820,0.061
37.825,-0.159
37.830,-0.038
37.835,0.118
37.840,-0.079
37.845,-0.100
37.850,0.097
37.855,-0.029
37.860,-0.183
37.865,0.020
37.870,0.045
37.875,-0.175
37.880,-0.060
37.885,0.093
37.890,-0.116
37.895,-0.146
37.900,0.075
37.905,-0.034
37.910,-0.187
37.915,0.018
37.920,0.055
37.925,-0.153
37.930,-0.034
37.935,0.120
37.940,-0.115
37.945,-0.179
37.950,0.047
37.955,-0.059
37.960,-0.230
37.965,-0.031
37.970,0.001
37.975,-0.208
37.980,-0.098
37.985,0.035
37.990,-0.160
37.995,-0.150
38.000,0.096
38.005,0.001
38.010,-0.146
38.015,0.061
38.020,0.103
38.025,-0.113
38.030,-0.013
38.035,0.145
38.040,-0.059
38.045,-0.095
38.050,0.126
38.055,0.019
38.060,-0.144
38.065,0.057
38.070,0.103
38.075,-0.092
38.080,0.056
38.085,0.257
38.090,-0.002
38.095,-0.246
38.100,-0.348
38.105,-0.864
38.110,-1.377
38.115,-1.202
38.120,-0.781
38.125,-0.547
38.130,-0.121
38.135,0.306
38.140,0.198
38.145,0.129
38.150,0.340
38.155,0.242
38.160,0.097
38.165,0.305
38.170,0.333
38.175,0.098
38.180,0.190
38.185,0.342
38.190,0.136
38.195,0.091
38.200,0.304
38.205,0.202
38.210,0.033
38.215,0.214
38.220,0.241
38.225,0.009
38.230,0.099
38.235,0.254
38.240,0.035
38.245,-0.017
38.250,0.208
38.255,0.098
38.260,-0.079
38.265,0.109
38.270,0.146
38.275,-0.089
38.280,-0.018
38.285,0.141
38.290,-0.050
38.295,-0.107
38.300,0.099
38.305,-0.013
38.310,-0.195
38.315,-0.006
38.320,0.029
38.325,-0.217
38.330,-0.147
38.335,0.008
38.340,-0.202
38.345,-0.275
38.350,-0.074
38.355,-0.183
38.360,-0.366
38.365,-0.178
38.370,-0.119
38.375,-0.332
38.380,-0.222
38.385,0.001
38.390,-0.127
38.395,-0.114
38.400,0.178
38.405,0.152
38.410,0.025
38.415,0.248
38.420,0.330
38.425,0.122
38.430,0.212
38.435,0.389
38.440,0.198
38.445,0.142
38.450,0.364
38.455,0.274
38.460,0.088
38.465,0.262
38.470,0.312
38.475,0.084
38.480,0.152
38.485,0.312
38.490,0.117
38.495,0.053
38.500,0.271
38.505,0.182
38.510,0.002
38.515,0.182
38.520,0.228
38.525,-0.004
38.530,0.070
38.535,0.237
38.540,0.037
38.545,-0.034
38.550,0.184
38.555,0.101
38.560,-0.083
38.565,0.096
38.570,0.149
38.575,-0.078
38.580,-0.001
38.585,0.162
38.590,-0.029
38.595,-0.074
38.600,0.149
38.605,0.049
38.610,-0.132
38.615,0.071
38.620,0.130
38.625,-0.101
38.630,-0.021
38.635,0.152
38.640,-0.042
38.645,-0.101
38.650,0.126
38.655,0.048
38.660,-0.129
38.665,0.053
38.670,0.115
38.675,-0.103
38.680,-0.018
38.685,0.159
38.690,-0.041
38.695,-0.112
38.700,0.119
38.705,0.046
38.710,-0.130
38.715,0.060
38.720,0.126
38.725,-0.098
38.730,-0.027
38.735,0.158
38.740,-0.024
38.745,-0.112
38.750,0.079
38.755,-0.015
38.760,-0.195
38.765,-0.013
38.770,0.041
38.775,-0.186
38.780,-0.115
38.785,0.057
38.790,-0.123
38.795,-0.185
38.800,0.054
38.805,0.018
38.810,-0.143
38.815,0.042
38.820,0.115
38.825,-0.106
38.830,-0.030
38.835,0.160
38.840,-0.024
38.845,-0.103
38.850,0.115
38.855,0.047
38.860,-0.137
38.865,0.035
38.870,0.106
38.875,-0.118
38.880,-0.050
38.885,0.160
38.890,0.034
38.895,-0.031
38.900,0.063
38.905,-0.280
38.910,-0.857
38.915,-1.089
38.920,-1.219
38.925,-1.239
38.930,-0.715
38.935,-0.144
38.940,-0.029
38.945,0.078
38.950,0.321
38.955,0.230
38.960,0.029
38.965,0.223
38.970,0.324
38.975,0.093
38.980,0.146
38.985,0.334
38.990,0.153
38.995,0.062
39.000,0.274
39.005,0.201
39.010,0.002
39.015,0.167
39.020,0.236
39.025,0.007
39.030,0.060
39.035,0.238
39.040,0.054
39.045,-0.035
39.050,0.184
39.055,0.122
39.060,-0.074
39.065,0.095
39.070,0.169
39.075,-0.068
39.080,-0.011
39.085,0.177
39.090,-0.006
39.095,-0.100
39.100,0.104
39.105,0.032
39.110,-0.171
39.115,-0.019
39.120,0.043
39.125,-0.207
39.130,-0.178
39.135,-0.009
39.140,-0.201
39.145,-0.306
39.150,-0.104
39.155,-0.183
39.160,-0.399
39.165,-0.243
39.170,-0.161
39.175,-0.391
39.180,-0.337
39.185,-0.110
39.190,-0.223
39.195,-0.256
39.200,0.025
39.205,0.040
39.210,-0.088
39.215,0.147
39.220,0.288
39.225,0.087
39.230,0.155
39.235,0.367
39.240,0.201
39.245,0.107
39.250,0.333
39.255,0.295
39.260,0.099
39.265,0.251
39.270,0.330
39.275,0.096
39.280,0.134
39.285,0.318
39.290,0.131
39.295,0.030
39.300,0.260
39.305,0.210
39.310,0.000
39.315,0.154
39.320,0.235
39.325,0.000
39.330,0.038
39.335,0.234
39.340,0.062
39.345,-0.051
39.350,0.158
39.355,0.115
39.360,-0.086
39.365,0.072
39.370,0.167
39.375,-0.066
39.380,-0.041
39.385,0.152
39.390,-0.014
39.395,-0.117
39.400,0.104
39.405,0.058
39.410,-0.137
39.415,0.026
39.420,0.107
39.425,-0.122
39.430,-0.073
39.435,0.133
39.440,-0.032
39.445,-0.136
39.450,0.088
39.455,0.048
39.460,-0.157
39.465,0.007
39.470,0.109
39.475,-0.122
39.480,-0.093
39.485,0.112
39.490,-0.042
39.495,-0.148
39.500,0.072
39.505,0.036
39.510,-0.173
39.515,-0.015
39.520,0.091
39.525,-0.133
39.530,-0.096
39.535,0.109
39.540,-0.048
39.545,-0.149
39.550,0.076
39.555,0.027
39.560,-0.208
39.565,-0.065
39.570,0.040
39.575,-0.193
39.580,-0.174
39.585,0.035
39.590,-0.117
39.595,-0.228
39.600,-0.004
39.605,-0.019
39.610,-0.191
39.615,-0.002
39.620,0.118
39.625,-0.106
39.630,-0.076
39.635,0.140
39.640,-0.003
39.645,-0.114
39.650,0.091
39.655,0.054
39.660,-0.147
39.665,0.013
39.670,0.126
39.675,-0.103
39.680,-0.091
39.685,0.110
39.690,-0.028
39.695,-0.091
39.700,0.191
39.705,0.146
39.710,-0.227
39.715,-0.401
39.720,-0.742
39.725,-1.352
39.730,-1.391
39.735,-0.821
39.740,-0.491
39.745,-0.269
39.750,0.228
39.755,0.333
39.760,0.088
39.765,0.204
39.770,0.321
39.775,0.122
39.780,0.160
39.785,0.364
39.790,0.204
39.795,0.080
39.800,0.297
39.805,0.272
39.810,0.054
39.815,0.188
39.820,0.295
39.825,0.071
39.830,0.082
39.835,0.276
39.840,0.122
39.845,-0.002
39.850,0.205
39.855,0.176
39.860,-0.046
39.865,0.093
39.870,0.216
39.875,-0.006
39.880,-0.006
39.885,0.190
39.890,0.041
39.895,-0.086
39.900,0.110
39.905,0.073
39.910,-0.150
39.915,-0.014
39.920,0.099
39.925,-0.138
39.930,-0.147
39.935,0.045
39.940,-0.121
39.945,-0.270
39.950,-0.076
39.955,-0.107
39.960,-0.333
39.965,-0.212
39.970,-0.111
39.975,-0.347
39.980,-0.356
39.985,-0.145
39.990,-0.256
39.995,-0.348
40.000,-0.080
40.005,-0.012
40.010,-0.150
40.015,0.051
40.020,0.239
40.025,0.073
40.030,0.116
40.035,0.356
40.040,0.236
40.045,0.115
40.050,0.338
40.055,0.344
40.060,0.136
40.065,0.261
40.070,0.373
40.075,0.138
40.080,0.128
40.085,0.340
40.090,0.203
40.095,0.059
40.100,0.261
40.105,0.257
40.110,0.043
40.115,0.163
40.120,0.277
40.125,0.048
40.130,0.040
40.135,0.256
40.140,0.121
40.145,-0.026
40.150,0.178
40.155,0.168
40.160,-0.064
40.165,0.059
40.170,0.186
40.175,-0.035
40.180,-0.035
40.185,0.188
40.190,0.052
40.195,-0.103
40.200,0.097
40.205,0.098
40.210,-0.121
40.215,0.013
40.220,0.153
40.225,-0.077
40.230,-0.092
40.235,0.127
40.240,-0.005
40.245,-0.142
40.250,0.074
40.255,0.076
40.260,-0.144
40.265,-0.019
40.270,0.116
40.275,-0.100
40.280,-0.103
40.285,0.113
40.290,-0.016
40.295,-0.155
40.300,0.050
40.305,0.052
40.310,-0.166
40.315,-0.034
40.320,0.120
40.325,-0.084
40.330,-0.100
40.335,0.101
40.340,-0.050
40.345,-0.214
40.350,-0.005
40.355,0.007
40.360,-0.222
40.365,-0.108
40.370,0.036
40.375,-0.171
40.380,-0.183
40.385,0.035
40.390,-0.068
40.395,-0.181
40.400,0.051
40.405,0.085
40.410,-0.125
40.415,-0.003
40.420,0.143
40.425,-0.068
40.430,-0.084
40.435,0.132
40.440,0.010
40.445,-0.136
40.450,0.072
40.455,0.087
40.460,-0.132
40.465,-0.020
40.470,0.121
40.475,-0.056
40.480,-0.007
40.485,0.229
40.490,-0.018
40.495,-0.452
40.500,-0.655
40.505,-1.062
40.510,-1.482
40.515,-1.151
40.520,-0.533
40.525,-0.334
40.530,-0.043
40.535,0.367
40.540,0.263
40.545,0.088
40.550,0.294
40.555,0.323
40.560,0.117
40.565,0.228
40.570,0.366
40.575,0.157
40.580,0.134
40.585,0.348
40.590,0.224
40.595,0.061
40.600,0.253
40.605,0.264
40.610,0.038
40.615,0.143
40.620,0.286
40.625,0.075
40.630,0.041
40.635,0.249
40.640,0.124
40.645,-0.038
40.650,0.159
40.655,0.176
40.660,-0.058
40.665,0.042
40.670,0.187
40.675,-0.027
40.680,-0.065
40.685,0.146
40.690,0.026
40.695,-0.138
40.700,0.053
40.705,0.057
40.710,-0.186
40.715,-0.094
40.720,0.035
40.725,-0.199
40.730,-0.253
40.735,-0.058
40.740,-0.186
40.745,-0.353
40.750,-0.173
40.755,-0.169
40.760,-0.402
40.765,-0.294
40.770,-0.123
40.775,-0.292
40.780,-0.273
40.785,0.013
40.790,-0.017
40.795,-0.103
40.800,0.157
40.805,0.235
40.810,0.051
40.815,0.192
40.820,0.375
40.825,0.179
40.830,0.147
40.835,0.374
40.840,0.266
40.845,0.096
40.850,0.290
40.855,0.316
40.860,0.082
40.865,0.176
40.870,0.326
40.875,0.120
40.880,0.083
40.885,0.292
40.890,0.170
40.895,-0.005
40.900,0.192
40.905,0.227
40.910,-0.006
40.915,0.087
40.920,0.238
40.925,0.024
40.930,-0.015
40.935,0.205
40.940,0.095
40.945,-0.073
40.950,0.122
40.955,0.149
40.960,-0.086
40.965,0.013
40.970,0.177
40.975,-0.032
40.980,-0.082
40.985,0.138
40.990,0.030
40.995,-0.141
41.000,0.057
41.005,0.099
41.010,-0.124
41.015,-0.026
41.020,0.139
41.025,-0.062
41.030,-0.113
41.035,0.109
41.040,0.016
41.045,-0.154
41.050,0.036
41.055,0.078
41.060,-0.145
41.065,-0.048
41.070,0.117
41.075,-0.085
41.080,-0.133
41.085,0.093
41.090,-0.002
41.095,-0.171
41.100,0.025
41.105,0.068
41.110,-0.160
41.115,-0.065
41.120,0.110
41.125,-0.089
41.130,-0.142
41.135,0.087
41.140,0.006
41.145,-0.161
41.150,0.016
41.155,0.038
41.160,-0.213
41.165,-0.125
41.170,0.057
41.175,-0.144
41.180,-0.206
41.185,0.022
41.190,-0.061
41.195,-0.230
41.200,-0.033
41.205,0.032
41.210,-0.169
41.215,-0.057
41.220,0.124
41.225,-0.060
41.230,-0.099
41.235,0.128
41.240,0.037
41.245,-0.139
41.250,0.052
41.255,0.111
41.260,-0.111
41.265,-0.030
41.270,0.143
41.275,-0.049
41.280,-0.119
41.285,0.108
41.290,0.076
41.295,-0.042
41.300,0.111
41.305,-0.029
41.310,-0.587
41.315,-0.921
41.320,-1.109
41.325,-1.357
41.330,-1.066
41.335,-0.376
41.340,-0.114
41.345,-0.017
41.350,0.292
41.355,0.344
41.360,0.113
41.365,0.189
41.370,0.379
41.375,0.202
41.380,0.140
41.385,0.360
41.390,0.268
41.395,0.086
41.400,0.273
41.405,0.319
41.410,0.080
41.415,0.149
41.420,0.314
41.425,0.116
41.430,0.049
41.435,0.266
41.440,0.177
41.445,-0.014
41.450,0.164
41.455,0.226
41.460,-0.014
41.465,0.047
41.470,0.223
41.475,0.027
41.480,-0.057
41.485,0.157
41.490,0.079
41.495,-0.105
41.500,0.069
41.505,0.117
41.510,-0.130
41.515,-0.075
41.520,0.094
41.525,-0.106
41.530,-0.196
41.535,0.003
41.540,-0.088
41.545,-0.288
41.550,-0.132
41.555,-0.085
41.560,-0.325
41.565,-0.275
41.570,-0.113
41.575,-0.305
41.580,-0.380
41.585,-0.140
41.590,-0.168
41.595,-0.297
41.600,-0.047
41.605,0.104
41.610,-0.061
41.615,0.051
41.620,0.284
41.625,0.146
41.630,0.101
41.635,0.347
41.640,0.296
41.645,0.120
41.650,0.305
41.655,0.370
41.660,0.124
41.665,0.185
41.670,0.367
41.675,0.172
41.680,0.085
41.685,0.305
41.690,0.228
41.695,0.032
41.700,0.210
41.705,0.280
41.710,0.037
41.715,0.085
41.720,0.264
41.725,0.079
41.730,-0.006
41.735,0.213
41.740,0.144
41.745,-0.051
41.750,0.115
41.755,0.183
41.760,-0.051
41.765,0.004
41.770,0.196
41.775,0.018
41.780,-0.072
41.785,0.147
41.790,0.080
41.795,-0.121
41.800,0.052
41.805,0.129
41.810,-0.105
41.815,-0.044
41.820,0.146
41.825,-0.039
41.830,-0.124
41.835,0.101
41.840,0.038
41.845,-0.158
41.850,0.017
41.855,0.100
41.860,-0.129
41.865,-0.079
41.870,0.105
41.875,-0.069
41.880,-0.150
41.885,0.076
41.890,0.019
41.895,-0.182
41.900,-0.011
41.905,0.082
41.910,-0.145
41.915,-0.101
41.920,0.089
41.925,-0.072
41.930,-0.151
41.935,0.071
41.940,0.018
41.945,-0.181
41.950,-0.017
41.955,0.072
41.960,-0.155
41.965,-0.104
41.970,0.098
41.975,-0.073
41.980,-0.166
41.985,0.066
41.990,0.029
41.995,-0.174
42.000,-0.040
42.005,0.024
42.010,-0.199
42.015,-0.140
42.020,0.052
42.025,-0.131
42.030,-0.233
42.035,0.011
42.040,-0.017
42.045,-0.228
42.050,-0.065
42.055,0.056
42.060,-0.139
42.065,-0.077
42.070,0.132
42.075,-0.025
42.080,-0.119
42.085,0.106
42.090,0.068
42.095,-0.131
42.100,0.023
42.105,0.118
42.110,-0.099
42.115,-0.060
42.120,0.129
42.125,-0.035
42.130,-0.124
42.135,0.114
42.140,0.118
42.145,-0.046
42.150,0.030
42.155,-0.114
42.160,-0.698
42.165,-1.072
42.170,-1.164
42.175,-1.249
42.180,-0.910
42.185,-0.245
42.190,0.016
42.195,0.030
42.200,0.256
42.205,0.340
42.210,0.113
42.215,0.164
42.220,0.387
42.225,0.235
42.230,0.130
42.235,0.339
42.240,0.294
42.245,0.083
42.250,0.229
42.255,0.322
42.260,0.084
42.265,0.109
42.270,0.304
42.275,0.138
42.280,0.031
42.285,0.248
42.290,0.207
42.295,-0.008
42.300,0.131
42.305,0.230
42.310,0.006
42.315,0.024
42.320,0.214
42.325,0.049
42.330,-0.068
42.335,0.146
42.340,0.109
42.345,-0.102
42.350,0.038
42.355,0.124
42.360,-0.115
42.365,-0.099
42.370,0.092
42.375,-0.079
42.380,-0.210
42.385,-0.013
42.390,-0.071
42.395,-0.298
42.400,-0.158
42.405,-0.077
42.410,-0.334
42.415,-0.322
42.420,-0.118
42.425,-0.282
42.430,-0.404
42.435,-0.167
42.440,-0.146
42.445,-0.282
42.450,-0.057
42.455,0.113
42.460,-0.044
42.465,0.045
42.470,0.289
42.475,0.173
42.480,0.090
42.485,0.319
42.490,0.304
42.495,0.113
42.500,0.271
42.505,0.379
42.510,0.155
42.515,0.166
42.520,0.355
42.525,0.203
42.530,0.084
42.535,0.292
42.540,0.257
42.545,0.040
42.550,0.179
42.555,0.280
42.560,0.049
42.565,0.061
42.570,0.257
42.575,0.101
42.580,-0.017
42.585,0.195
42.590,0.169
42.595,-0.041
42.600,0.099
42.605,0.207
42.610,-0.025
42.615,-0.025
42.620,0.177
42.625,0.033
42.630,-0.092
42.635,0.120
42.640,0.094
42.645,-0.124
42.650,0.030
42.655,0.157
42.660,-0.064
42.665,-0.056
42.670,0.143
42.675,-0.010
42.680,-0.139
42.685,0.073
42.690,0.056
42.695,-0.163
42.700,-0.019
42.705,0.114
42.710,-0.107
42.715,-0.101
42.720,0.111
42.725,-0.033
42.730,-0.155
42.735,0.066
42.740,0.049
42.745,-0.171
42.750,-0.036
42.755,0.080
42.760,-0.138
42.765,-0.119
42.770,0.096
42.775,-0.044
42.780,-0.173
42.785,0.039
42.790,0.029
42.795,-0.178
42.800,-0.038
42.805,0.081
42.810,-0.139
42.815,-0.132
42.820,0.083
42.825,-0.041
42.830,-0.169
42.835,0.019
42.840,-0.020
42.845,-0.237
42.850,-0.074
42.855,0.060
42.860,-0.183
42.865,-0.192
42.870,0.034
42.875,-0.088
42.880,-0.222
42.885,-0.008
42.890,0.006
42.895,-0.182
42.900,-0.028
42.905,0.123
42.910,-0.074
42.915,-0.068
42.920,0.146
42.925,0.010
42.930,-0.129
42.935,0.083
42.940,0.084
42.945,-0.129
42.950,-0.002
42.955,0.122
42.960,-0.095
42.965,-0.089
42.970,0.142
42.975,0.053
42.980,-0.030
42.985,0.137
42.990,-0.075
42.995,-0.664
43.000,-0.991
43.005,-1.169
43.010,-1.318
43.015,-0.895
43.020,-0.235
43.025,-0.052
43.030,0.060
43.035,0.342
43.040,0.305
43.045,0.081
43.050,0.221
43.055,0.375
43.060,0.167
43.065,0.153
43.070,0.357
43.075,0.217
43.080,0.072
43.085,0.278
43.090,0.274
43.095,0.050
43.100,0.170
43.105,0.297
43.110,0.078
43.115,0.065
43.120,0.279
43.125,0.147
43.130,-0.011
43.135,0.190
43.140,0.195
43.145,-0.034
43.150,0.079
43.155,0.209
43.160,-0.012
43.165,-0.032
43.170,0.178
43.175,0.050
43.180,-0.102
43.185,0.092
43.190,0.086
43.195,-0.155
43.200,-0.045
43.205,0.097
43.210,-0.127
43.215,-0.163
43.220,0.028
43.225,-0.133
43.230,-0.308
43.235,-0.115
43.240,-0.117
43.245,-0.360
43.250,-0.262
43.255,-0.135
43.260,-0.351
43.265,-0.352
43.270,-0.107
43.275,-0.184
43.280,-0.268
43.285,-0.001
43.290,0.080
43.295,-0.066
43.300,0.112
43.305,0.302
43.310,0.130
43.315,0.137
43.320,0.374
43.325,0.267
43.330,0.120
43.335,0.328
43.340,0.348
43.345,0.119
43.350,0.227
43.355,0.369
43.360,0.147
43.365,0.116
43.370,0.331
43.375,0.207
43.380,0.048
43.385,0.245
43.390,0.248
43.395,0.015
43.400,0.126
43.405,0.263
43.410,0.049
43.415,0.030
43.420,0.238
43.425,0.109
43.430,-0.049
43.435,0.147
43.440,0.163
43.445,-0.060
43.450,0.044
43.455,0.185
43.460,-0.026
43.465,-0.051
43.470,0.160
43.475,0.032
43.480,-0.123
43.485,0.087
43.490,0.113
43.495,-0.112
43.500,-0.011
43.505,0.130
43.510,-0.080
43.515,-0.106
43.520,0.115
43.525,0.004
43.530,-0.153
43.535,0.049
43.540,0.074
43.545,-0.147
43.550,-0.032
43.555,0.127
43.560,-0.091
43.565,-0.134
43.570,0.090
43.575,-0.013
43.580,-0.168
43.585,0.033
43.590,0.063
43.595,-0.159
43.600,-0.057
43.605,0.098
43.610,-0.104
43.615,-0.139
43.620,0.087
43.625,-0.013
43.630,-0.174
43.635,0.019
43.640,0.051
43.645,-0.160
43.650,-0.051
43.655,0.091
43.660,-0.140
43.665,-0.195
43.670,0.031
43.675,-0.069
43.680,-0.240
43.685,-0.048
43.690,-0.001
43.695,-0.204
43.700,-0.102
43.705,0.049
43.710,-0.141
43.715,-0.148
43.720,0.104
43.725,0.012
43.730,-0.147
43.735,0.061
43.740,0.112
43.745,-0.104
43.750,-0.011
43.755,0.142
43.760,-0.060
43.765,-0.099
43.770,0.123
43.775,0.023
43.780,-0.139
43.785,0.057
43.790,0.104
43.795,-0.078
43.800,0.077
43.805,0.214
43.810,-0.170
43.815,-0.541
43.820,-0.746
43.825,-1.223
43.830,-1.468
43.835,-0.924
43.840,-0.398
43.845,-0.269
43.850,0.109
43.855,0.399
43.860,0.177
43.865,0.120
43.870,0.353
43.875,0.277
43.880,0.122
43.885,0.310
43.890,0.342
43.895,0.110
43.900,0.200
43.905,0.363
43.910,0.153
43.915,0.092
43.920,0.307
43.925,0.207
43.930,0.031
43.935,0.218
43.940,0.257
43.945,0.022
43.950,0.102
43.955,0.262
43.960,0.058
43.965,0.000
43.970,0.217
43.975,0.119
43.980,-0.057
43.985,0.127
43.990,0.160
43.995,-0.075
44.000,0.009
44.005,0.164
44.010,-0.048
44.015,-0.113
44.020,0.098
44.025,-0.006
44.030,-0.201
44.035,-0.039
44.040,-0.012
44.045,-0.261
44.050,-0.201
44.055,-0.050
44.060,-0.260
44.065,-0.335
44.070,-0.130
44.075,-0.228
44.080,-0.416
44.085,-0.232
44.090,-0.159
44.095,-0.343
44.100,-0.203
44.105,0.038
44.110,-0.081
44.115,-0.067
44.120,0.219
44.125,0.184
44.130,0.051
44.135,0.274
44.140,0.348
44.145,0.127
44.150,0.210
44.155,0.389
44.160,0.195
44.165,0.127
44.170,0.349
44.175,0.264
44.180,0.075
44.185,0.250
44.190,0.304
44.195,0.076
44.200,0.145
44.205,0.309
44.210,0.109
44.215,0.035
44.220,0.255
44.225,0.173
44.230,-0.016
44.235,0.162
44.240,0.213
44.245,-0.023
44.250,0.053
44.255,0.227
44.260,0.032
44.265,-0.032
44.270,0.185
44.275,0.086
44.280,-0.101
44.285,0.091
44.290,0.155
44.295,-0.077
44.300,-0.014
44.305,0.158
44.310,-0.034
44.315,-0.110
44.320,0.117
44.325,0.048
44.330,-0.136
44.335,0.039
44.340,0.102
44.345,-0.120
44.350,-0.052
44.355,0.125
44.360,-0.056
44.365,-0.122
44.370,0.098
44.375,0.017
44.380,-0.166
44.385,0.021
44.390,0.089
44.395,-0.141
44.400,-0.072
44.405,0.107
44.410,-0.083
44.415,-0.156
44.420,0.082
44.425,0.025
44.430,-0.160
44.435,0.012
44.440,0.075
44.445,-0.155
44.450,-0.085
44.455,0.105
44.460,-0.077
44.465,-0.153
44.470,0.072
44.475,0.001
44.480,-0.191
44.485,-0.013
44.490,0.065
44.495,-0.153
44.500,-0.084
44.505,0.102
44.510,-0.078
44.515,-0.151
44.520,0.077
44.525,0.002
44.530,-0.212
44.535,-0.055
44.540,0.024
44.545,-0.186
44.550,-0.130
44.555,0.035
44.560,-0.147
44.565,-0.206
44.570,0.032
44.575,-0.036
44.580,-0.224
44.585,-0.034
44.590,0.075
44.595,-0.120
44.600,-0.050
44.605,0.140
44.610,-0.033
44.615,-0.109
44.620,0.121
44.625,0.062
44.630,-0.132
44.635,0.039
44.640,0.122
44.645,-0.104
44.650,-0.050
44.655,0.139
44.660,-0.031
44.665,-0.087
44.670,0.188
44.675,0.140
44.680,-0.177
44.685,-0.287
44.690,-0.606
44.695,-1.245
44.700,-1.385
44.705,-0.975
44.710,-0.685
44.715,-0.377
44.720,0.145
44.725,0.276
44.730,0.110
44.735,0.267
44.740,0.356
44.745,0.145
44.750,0.206
44.755,0.393
44.760,0.220
44.765,0.130
44.770,0.341
44.775,0.276
44.780,0.074
44.785,0.237
44.790,0.322
44.795,0.089
44.800,0.126
44.805,0.308
44.810,0.129
44.815,0.031
44.820,0.248
44.825,0.189
44.830,-0.016
44.835,0.147
44.840,0.231
44.845,-0.009
44.850,0.023
44.855,0.214
44.860,0.040
44.865,-0.070
44.870,0.143
44.875,0.084
44.880,-0.123
44.885,0.034
44.890,0.109
44.895,-0.128
44.900,-0.098
44.905,0.069
44.910,-0.120
44.915,-0.235
44.920,-0.037
44.925,-0.098
44.930,-0.322
44.935,-0.189
44.940,-0.109
44.945,-0.345
44.950,-0.313
44.955,-0.129
44.960,-0.300
44.965,-0.374
44.970,-0.099
44.975,-0.077
44.980,-0.207
44.985,0.025
44.990,0.180
44.995,0.003
45.000,0.090
45.005,0.327
45.010,0.190
45.015,0.109
45.020,0.342
45.025,0.310
45.030,0.113
45.035,0.263
45.040,0.349
45.045,0.124
45.050,0.157
45.055,0.348
45.060,0.173
45.065,0.056
45.070,0.268
45.075,0.227
45.080,0.026
45.085,0.181
45.090,0.264
45.095,0.029
45.100,0.057
45.105,0.243
45.110,0.074
45.115,-0.031
45.120,0.188
45.125,0.148
45.130,-0.061
45.135,0.096
45.140,0.197
45.145,-0.041
45.150,-0.017
45.155,0.182
45.160,0.014
45.165,-0.102
45.170,0.114
45.175,0.080
45.180,-0.120
45.185,0.033
45.190,0.129
45.195,-0.092
45.200,-0.056
45.205,0.139
45.210,-0.027
45.215,-0.130
45.220,0.094
45.225,0.049
45.230,-0.159
45.235,0.006
45.240,0.110
45.245,-0.114
45.250,-0.083
45.255,0.121
45.260,-0.039
45.265,-0.154
45.270,0.069
45.275,0.043
45.280,-0.160
45.285,-0.012
45.290,0.091
45.295,-0.128
45.300,-0.100
45.305,0.109
45.310,-0.048
45.315,-0.170
45.320,0.064
45.325,0.046
45.330,-0.176
45.335,-0.027
45.340,0.098
45.345,-0.123
45.350,-0.103
45.355,0.099
45.360,-0.058
