'Elapsed time','ECG'
'seconds','mV'
0.000,1.251
0.005,2.426
0.010,1.745
0.015,1.562
0.020,2.110
0.025,1.617
0.030,1.345
0.035,1.793
0.040,1.632
0.045,1.146
0.050,1.465
0.055,1.653
0.060,1.128
0.065,1.182
0.070,1.621
0.075,1.248
0.080,0.981
0.085,1.445
0.090,1.348
0.095,0.861
0.100,1.169
0.105,1.375
0.110,0.852
0.115,0.878
0.120,1.273
0.125,0.877
0.130,0.592
0.135,1.032
0.140,0.922
0.145,0.433
0.150,0.735
0.155,0.938
0.160,0.424
0.165,0.451
0.170,0.857
0.175,0.464
0.180,0.172
0.185,0.634
0.190,0.555
0.195,0.068
0.200,0.372
0.205,0.587
0.210,0.055
0.215,0.068
0.220,0.507
0.225,0.144
0.230,-0.144
0.235,0.320
0.240,0.240
0.245,-0.246
0.250,0.065
0.255,0.298
0.260,-0.205
0.265,-0.168
0.270,0.268
0.275,-0.089
0.280,-0.356
0.285,0.127
0.290,0.065
0.295,-0.415
0.300,-0.099
0.305,0.144
0.310,-0.361
0.315,-0.340
0.320,0.107
0.325,-0.225
0.330,-0.478
0.335,0.013
0.340,-0.038
0.345,-0.511
0.350,-0.197
0.355,0.071
0.360,-0.404
0.365,-0.369
0.370,0.093
0.375,-0.238
0.380,-0.503
0.385,-0.011
0.390,-0.051
0.395,-0.533
0.400,-0.222
0.405,0.063
0.410,-0.422
0.415,-0.425
0.420,0.013
0.425,-0.300
0.430,-0.552
0.435,-0.063
0.440,-0.094
0.445,-0.557
0.450,-0.223
0.455,0.083
0.460,-0.379
0.465,-0.352
0.470,0.128
0.475,-0.167
0.480,-0.440
0.485,0.038
0.490,-0.005
0.495,-0.480
0.500,-0.161
0.505,0.100
0.510,-0.387
0.515,-0.364
0.520,0.092
0.525,-0.232
0.530,-0.525
0.535,-0.059
0.540,-0.051
0.545,-0.483
0.550,-0.238
0.555,-0.118
0.560,-0.828
0.565,-1.174
0.570,-1.214
0.575,-1.827
0.580,-1.798
0.585,-0.674
0.590,-0.188
0.595,-0.424
0.600,-0.064
0.605,0.300
0.610,-0.058
0.615,-0.001
0.620,0.483
0.625,0.196
0.630,-0.095
0.635,0.372
0.640,0.358
0.645,-0.115
0.650,0.183
0.655,0.467
0.660,-0.030
0.665,-0.049
0.670,0.415
0.675,0.112
0.680,-0.181
0.685,0.297
0.690,0.290
0.695,-0.199
0.700,0.075
0.705,0.364
0.710,-0.122
0.715,-0.145
0.720,0.327
0.725,0.026
0.730,-0.286
0.735,0.178
0.740,0.182
0.745,-0.297
0.750,-0.022
0.755,0.263
0.760,-0.218
0.765,-0.241
0.770,0.216
0.775,-0.087
0.780,-0.414
0.785,0.039
0.790,0.051
0.795,-0.425
0.800,-0.142
0.805,0.165
0.810,-0.303
0.815,-0.329
0.820,0.146
0.825,-0.116
0.830,-0.397
0.835,0.099
0.840,0.145
0.845,-0.309
0.850,-0.004
0.855,0.343
0.860,-0.085
0.865,-0.084
0.870,0.400
0.875,0.128
0.880,-0.170
0.885,0.306
0.890,0.338
0.895,-0.142
0.900,0.101
0.905,0.379
0.910,-0.100
0.915,-0.136
0.920,0.339
0.925,0.049
0.930,-0.301
0.935,0.150
0.940,0.189
0.945,-0.288
0.950,-0.026
0.955,0.280
0.960,-0.193
0.965,-0.238
0.970,0.222
0.975,-0.060
0.980,-0.382
0.985,0.089
0.990,0.151
0.995,-0.326
1.000,-0.089
1.005,0.235
1.010,-0.220
1.015,-0.271
1.020,0.221
1.025,-0.006
1.030,-0.317
1.035,0.129
1.040,0.176
1.045,-0.318
1.050,-0.091
1.055,0.249
1.060,-0.175
1.065,-0.212
1.070,0.281
1.075,0.047
1.080,-0.295
1.085,0.135
1.090,0.197
1.095,-0.284
1.100,-0.057
1.105,0.274
1.110,-0.168
1.115,-0.243
1.120,0.230
1.125,0.007
1.130,-0.341
1.135,0.085
1.140,0.169
1.145,-0.323
1.150,-0.120
1.155,0.218
1.160,-0.234
1.165,-0.312
1.170,0.162
1.175,-0.086
1.180,-0.455
1.185,-0.031
1.190,0.073
1.195,-0.373
1.200,-0.135
1.205,0.229
1.210,-0.188
1.215,-0.252
1.220,0.229
1.225,0.002
1.230,-0.330
1.235,0.123
1.240,0.213
1.245,-0.272
1.250,-0.061
1.255,0.285
1.260,-0.153
1.265,-0.223
1.270,0.257
1.275,0.033
1.280,-0.300
1.285,0.141
1.290,0.229
1.295,-0.259
1.300,-0.031
1.305,0.340
1.310,-0.169
1.315,-0.441
1.320,-0.237
1.325,-0.823
1.330,-1.671
1.335,-1.561
1.340,-1.038
1.345,-0.720
1.350,-0.077
1.355,0.454
1.360,0.127
1.365,0.100
1.370,0.674
1.375,0.512
1.380,0.154
1.385,0.589
1.390,0.678
1.395,0.170
1.400,0.368
1.405,0.718
1.410,0.263
1.415,0.144
1.420,0.621
1.425,0.413
1.430,0.040
1.435,0.443
1.440,0.523
1.445,0.007
1.450,0.177
1.455,0.519
1.460,0.072
1.465,-0.028
1.470,0.467
1.475,0.237
1.480,-0.162
1.485,0.261
1.490,0.369
1.495,-0.142
1.500,0.035
1.505,0.398
1.510,-0.031
1.515,-0.153
1.520,0.301
1.525,0.088
1.530,-0.285
1.535,0.111
1.540,0.199
1.545,-0.313
1.550,-0.151
1.555,0.210
1.560,-0.212
1.565,-0.324
1.570,0.165
1.575,-0.023
1.580,-0.393
1.585,0.027
1.590,0.159
1.595,-0.309
1.600,-0.092
1.605,0.333
1.610,-0.048
1.615,-0.154
1.620,0.342
1.625,0.178
1.630,-0.189
1.635,0.226
1.640,0.367
1.645,-0.111
1.650,0.072
1.655,0.462
1.660,0.056
1.665,-0.070
1.670,0.414
1.675,0.233
1.680,-0.168
1.685,0.217
1.690,0.342
1.695,-0.153
1.700,0.017
1.705,0.407
1.710,-0.011
1.715,-0.152
1.720,0.324
1.725,0.140
1.730,-0.232
1.735,0.175
1.740,0.285
1.745,-0.219
1.750,-0.063
1.755,0.318
1.760,-0.084
1.765,-0.225
1.770,0.265
1.775,0.109
1.780,-0.272
1.785,0.145
1.790,0.304
1.795,-0.189
1.800,-0.045
1.805,0.355
1.810,-0.027
1.815,-0.173
1.820,0.307
1.825,0.155
1.830,-0.235
1.835,0.155
1.840,0.307
1.845,-0.172
1.850,-0.014
1.855,0.379
1.860,-0.032
1.865,-0.195
1.870,0.281
1.875,0.120
1.880,-0.275
1.885,0.117
1.890,0.263
1.895,-0.250
1.900,-0.120
1.905,0.290
1.910,-0.102
1.915,-0.262
1.920,0.215
1.925,0.039
1.930,-0.394
1.935,-0.024
1.940,0.141
1.945,-0.339
1.950,-0.187
1.955,0.228
1.960,-0.144
1.965,-0.295
1.970,0.173
1.975,0.034
1.980,-0.331
1.985,0.076
1.990,0.233
1.995,-0.259
2.000,-0.114
2.005,0.285
2.010,-0.109
2.015,-0.267
2.020,0.215
2.025,0.080
2.030,-0.309
2.035,0.069
2.040,0.220
2.045,-0.288
2.050,-0.142
2.055,0.272
2.060,-0.207
2.065,-0.570
2.070,-0.348
2.075,-0.837
2.080,-1.750
2.085,-1.796
2.090,-1.322
2.095,-0.971
2.100,-0.314
2.105,0.284
2.110,-0.003
2.115,-0.098
2.120,0.485
2.125,0.406
2.130,0.007
2.135,0.377
2.140,0.540
2.145,0.041
2.150,0.144
2.155,0.539
2.160,0.139
2.165,-0.068
2.170,0.408
2.175,0.280
2.180,-0.143
2.185,0.231
2.190,0.415
2.195,-0.086
2.200,0.021
2.205,0.427
2.210,0.044
2.215,-0.137
2.220,0.341
2.225,0.202
2.230,-0.234
2.235,0.123
2.240,0.308
2.245,-0.179
2.250,-0.071
2.255,0.333
2.260,-0.045
2.265,-0.243
2.270,0.226
2.275,0.101
2.280,-0.345
2.285,-0.003
2.290,0.189
2.295,-0.294
2.300,-0.191
2.305,0.215
2.310,-0.154
2.315,-0.344
2.320,0.127
2.325,0.016
2.330,-0.405
2.335,-0.030
2.340,0.211
2.345,-0.235
2.350,-0.120
2.355,0.326
2.360,0.007
2.365,-0.161
2.370,0.335
2.375,0.252
2.380,-0.157
2.385,0.209
2.390,0.416
2.395,-0.071
2.400,0.030
2.405,0.461
2.410,0.087
2.415,-0.121
2.420,0.370
2.425,0.272
2.430,-0.165
2.435,0.182
2.440,0.403
2.445,-0.073
2.450,0.009
2.455,0.433
2.460,0.077
2.465,-0.140
2.470,0.328
2.475,0.227
2.480,-0.199
2.485,0.149
2.490,0.351
2.495,-0.124
2.500,-0.035
2.505,0.374
2.510,-0.001
2.515,-0.236
2.520,0.240
2.525,0.169
2.530,-0.271
2.535,0.063
2.540,0.282
2.545,-0.206
2.550,-0.122
2.555,0.304
2.560,-0.069
2.565,-0.306
2.570,0.167
2.575,0.095
2.580,-0.334
2.585,0.007
2.590,0.224
2.595,-0.264
2.600,-0.198
2.605,0.232
2.610,-0.111
2.615,-0.337
2.620,0.152
2.625,0.098
2.630,-0.344
2.635,-0.008
2.640,0.226
2.645,-0.262
2.650,-0.197
2.655,0.234
2.660,-0.121
2.665,-0.359
2.670,0.130
2.675,0.057
2.680,-0.419
2.685,-0.099
2.690,0.148
2.695,-0.312
2.700,-0.228
2.705,0.234
2.710,-0.083
2.715,-0.302
2.720,0.182
2.725,0.118
2.730,-0.316
2.735,0.046
2.740,0.300
2.745,-0.185
2.750,-0.118
2.755,0.342
2.760,0.010
2.765,-0.224
2.770,0.260
2.775,0.187
2.780,-0.287
2.785,0.027
2.790,0.267
2.795,-0.217
2.800,-0.164
2.805,0.303
2.810,-0.021
2.815,-0.360
2.820,-0.068
2.825,-0.360
2.830,-1.176
2.835,-1.371
2.840,-1.445
2.845,-1.502
2.850,-0.655
2.855,0.230
2.860,0.047
2.865,-0.142
2.870,0.409
2.875,0.475
2.880,0.068
2.885,0.400
2.890,0.668
2.895,0.179
2.900,0.205
2.905,0.643
2.910,0.299
2.915,0.023
2.920,0.481
2.925,0.437
2.930,-0.026
2.935,0.274
2.940,0.518
2.945,0.026
2.950,0.057
2.955,0.501
2.960,0.167
2.965,-0.113
2.970,0.343
2.975,0.305
2.980,-0.161
2.985,0.128
2.990,0.377
2.995,-0.114
3.000,-0.106
3.005,0.344
3.010,0.018
3.015,-0.274
3.020,0.185
3.025,0.154
3.030,-0.324
3.035,-0.041
3.040,0.222
3.045,-0.262
3.050,-0.250
3.055,0.203
3.060,-0.113
3.065,-0.402
3.070,0.054
3.075,0.045
3.080,-0.406
3.085,-0.101
3.090,0.198
3.095,-0.249
3.100,-0.197
3.105,0.300
3.110,0.030
3.115,-0.216
3.120,0.273
3.125,0.290
3.130,-0.136
3.135,0.196
3.140,0.482
3.145,0.002
3.150,0.016
3.155,0.483
3.160,0.184
3.165,-0.108
3.170,0.349
3.175,0.336
3.180,-0.143
3.185,0.134
3.190,0.404
3.195,-0.092
3.200,-0.106
3.205,0.353
3.210,0.044
3.215,-0.257
3.220,0.206
3.225,0.191
3.230,-0.298
3.235,-0.005
3.240,0.298
3.245,-0.183
3.250,-0.207
3.255,0.246
3.260,-0.042
3.265,-0.327
3.270,0.143
3.275,0.142
3.280,-0.334
3.285,-0.050
3.290,0.251
3.295,-0.202
3.300,-0.205
3.305,0.257
3.310,-0.034
3.315,-0.330
3.320,0.137
3.325,0.138
3.330,-0.335
3.335,-0.048
3.340,0.254
3.345,-0.207
3.350,-0.213
3.355,0.255
3.360,-0.035
3.365,-0.336
3.370,0.122
3.375,0.119
3.380,-0.365
3.385,-0.089
3.390,0.211
3.395,-0.269
3.400,-0.290
3.405,0.191
3.410,-0.104
3.415,-0.448
3.420,-0.011
3.425,0.004
3.430,-0.460
3.435,-0.159
3.440,0.178
3.445,-0.278
3.450,-0.304
3.455,0.175
3.460,-0.093
3.465,-0.387
3.470,0.099
3.475,0.141
3.480,-0.336
3.485,-0.077
3.490,0.226
3.495,-0.239
3.500,-0.265
3.505,0.210
3.510,-0.057
3.515,-0.375
3.520,0.086
3.525,0.130
3.530,-0.350
3.535,-0.083
3.540,0.258
3.545,-0.202
3.550,-0.331
3.555,-0.039
3.560,-0.567
3.565,-1.253
3.570,-1.280
3.575,-1.476
3.580,-1.489
3.585,-0.486
3.590,0.288
3.595,0.003
3.600,0.015
3.605,0.577
3.610,0.428
3.615,0.143
3.620,0.611
3.625,0.663
3.630,0.166
3.635,0.412
3.640,0.718
3.645,0.233
3.650,0.178
3.655,0.649
3.660,0.357
3.665,-0.019
3.670,0.418
3.675,0.472
3.680,-0.029
3.685,0.199
3.690,0.516
3.695,0.037
3.700,-0.033
3.705,0.446
3.710,0.184
3.715,-0.164
3.720,0.292
3.725,0.345
3.730,-0.165
3.735,0.067
3.740,0.403
3.745,-0.064
3.750,-0.149
3.755,0.324
3.760,0.062
3.765,-0.307
3.770,0.139
3.775,0.197
3.780,-0.329
3.785,-0.116
3.790,0.235
3.795,-0.215
3.800,-0.293
3.805,0.191
3.810,-0.040
3.815,-0.391
3.820,0.053
3.825,0.153
3.830,-0.303
3.835,-0.042
3.840,0.340
3.845,-0.079
3.850,-0.134
3.855,0.374
3.860,0.168
3.865,-0.170
3.870,0.282
3.875,0.375
3.880,-0.113
3.885,0.113
3.890,0.478
3.895,0.029
3.900,-0.076
3.905,0.412
3.910,0.194
3.915,-0.163
3.920,0.282
3.925,0.364
3.930,-0.155
3.935,0.039
3.940,0.392
3.945,-0.053
3.950,-0.151
3.955,0.345
3.960,0.138
3.965,-0.233
3.970,0.186
3.975,0.284
3.980,-0.212
3.985,-0.016
3.990,0.343
3.995,-0.097
4.000,-0.200
4.005,0.296
4.010,0.098
4.015,-0.275
4.020,0.164
4.025,0.297
4.030,-0.173
4.035,0.047
4.040,0.420
4.045,-0.027
4.050,-0.134
4.055,0.370
4.060,0.164
4.065,-0.210
4.070,0.232
4.075,0.334
4.080,-0.191
4.085,-0.006
4.090,0.371
4.095,-0.070
4.100,-0.193
4.105,0.309
4.110,0.120
4.115,-0.282
4.120,0.125
4.125,0.242
4.130,-0.271
4.135,-0.087
4.140,0.304
4.145,-0.138
4.150,-0.299
4.155,0.172
4.160,-0.016
4.165,-0.387
4.170,0.052
4.175,0.192
4.180,-0.301
4.185,-0.130
4.190,0.255
4.195,-0.144
4.200,-0.262
4.205,0.241
4.210,0.074
4.215,-0.316
4.220,0.092
4.225,0.228
4.230,-0.267
4.235,-0.105
4.240,0.276
4.245,-0.138
4.250,-0.265
4.255,0.233
4.260,0.043
4.265,-0.368
4.270,0.059
4.275,0.182
4.280,-0.446
4.285,-0.476
4.290,-0.337
4.295,-1.129
4.300,-1.799
4.305,-1.609
4.310,-1.297
4.315,-0.871
4.320,-0.019
4.325,0.304
4.330,-0.109
4.335,0.125
4.340,0.616
4.345,0.234
4.350,0.087
4.355,0.592
4.360,0.429
4.365,0.011
4.370,0.395
4.375,0.522
4.380,-0.002
4.385,0.146
4.390,0.539
4.395,0.113
4.400,-0.061
4.405,0.430
4.410,0.273
4.415,-0.158
4.420,0.218
4.425,0.375
4.430,-0.141
4.435,-0.014
4.440,0.389
4.445,-0.012
4.450,-0.188
4.455,0.297
4.460,0.152
4.465,-0.267
4.470,0.108
4.475,0.259
4.480,-0.251
4.485,-0.131
4.490,0.269
4.495,-0.143
4.500,-0.340
4.505,0.143
4.510,-0.002
4.515,-0.417
4.520,-0.025
4.525,0.137
4.530,-0.370
4.535,-0.237
4.540,0.174
4.545,-0.221
4.550,-0.381
4.555,0.142
4.560,0.039
4.565,-0.351
4.570,0.068
4.575,0.291
4.580,-0.166
4.585,0.003
4.590,0.456
4.595,0.072
4.600,-0.107
4.605,0.400
4.610,0.263
4.615,-0.180
4.620,0.207
4.625,0.395
4.630,-0.120
4.635,-0.003
4.640,0.401
4.645,-0.011
4.650,-0.195
4.655,0.281
4.660,0.112
4.665,-0.343
4.670,0.002
4.675,0.169
4.680,-0.354
4.685,-0.260
4.690,0.151
4.695,-0.269
4.700,-0.493
4.705,-0.038
4.710,-0.228
4.715,-0.699
4.720,-0.348
4.725,-0.193
4.730,-0.701
4.735,-0.562
4.740,-0.106
4.745,-0.500
4.750,-0.739
4.755,-0.238
4.760,-0.344
4.765,-0.775
4.770,-0.386
4.775,-0.183
4.780,-0.651
4.785,-0.500
4.790,-0.010
4.795,-0.350
4.800,-0.544
4.805,-0.009
4.810,-0.119
4.815,-0.623
4.820,-0.295
4.825,-0.093
4.830,-0.626
4.835,-0.552
4.840,-0.096
4.845,-0.486
4.850,-0.766
4.855,-0.349
4.860,-0.524
4.865,-0.981
4.870,-0.626
4.875,-0.456
4.880,-0.916
4.885,-0.841
4.890,-0.525
4.895,-0.713
4.900,-0.782
4.905,-0.548
4.910,-0.566
4.915,-0.681
4.920,-0.597
4.925,-0.534
4.930,-0.510
4.935,-0.455
4.940,-0.415
4.945,-0.375
4.950,-0.334
4.955,-0.297
4.960,-0.260
4.965,-0.224
4.970,-0.190
4.975,-0.157
4.980,-0.125
4.985,-0.095
4.990,-0.066
4.995,-0.038
5.000,-0.011
5.005,0.014
5.010,0.039
5.015,0.062
5.020,0.085
5.025,0.106
5.030,0.126
5.035,0.145
5.040,0.164
5.045,0.181
5.050,0.197
5.055,0.213
5.060,0.227
5.065,0.241
5.070,0.254
5.075,0.266
5.080,0.277
5.085,0.288
5.090,0.298
5.095,0.307
5.100,0.315
5.105,0.323
5.110,0.330
5.115,0.336
5.120,0.342
5.125,0.347
5.130,0.352
5.135,0.356
5.140,0.360
5.145,0.363
5.150,0.365
5.155,0.367
5.160,0.369
5.165,0.370
5.170,0.371
5.175,0.372
5.180,0.372
5.185,0.371
5.190,0.371
5.195,0.370
5.200,0.368
5.205,0.367
5.210,0.365
5.215,0.362
5.220,0.360
5.225,0.357
5.230,0.354
5.235,0.351
5.240,0.348
5.245,0.344
5.250,0.340
5.255,0.337
5.260,0.332
5.265,0.328
5.270,0.324
5.275,0.319
5.280,0.315
5.285,0.310
5.290,0.305
5.295,0.300
5.300,0.295
5.305,0.290
5.310,0.285
5.315,0.280
5.320,0.275
5.325,0.269
5.330,0.264
5.335,0.259
5.340,0.253
5.345,0.248
5.350,0.243
5.355,0.237
5.360,0.232
5.365,0.228
5.370,0.393
5.375,0.509
5.380,0.289
5.385,0.651
5.390,1.525
5.395,1.252
5.400,0.874
5.405,1.860
5.410,1.990
5.415,1.123
5.420,1.725
5.425,2.324
5.430,1.476
5.435,1.684
5.440,2.804
5.445,2.194
5.450,1.447
5.455,2.384
5.460,2.413
5.465,1.310
5.470,1.805
5.475,2.427
5.480,1.453
5.485,1.302
5.490,2.075
5.495,1.436
5.500,0.912
5.505,1.734
5.510,1.630
5.515,0.834
5.520,1.173
5.525,1.507
5.530,0.727
5.535,0.587
5.540,1.218
5.545,0.618
5.550,0.066
5.555,0.796
5.560,0.760
5.565,-0.028
5.570,0.321
5.575,0.821
5.580,0.280
5.585,0.200
5.590,0.637
5.595,0.157
5.600,-0.274
5.605,0.199
5.610,0.125
5.615,-0.534
5.620,-0.222
5.625,0.196
5.630,-0.476
5.635,-0.586
5.640,0.003
5.645,-0.680
5.650,-1.420
5.655,-0.687
5.660,-0.748
5.665,-1.965
5.670,-1.771
5.675,-1.384
5.680,-2.533
5.685,-2.921
5.690,-2.329
5.695,-2.914
5.700,-3.605
5.705,-3.309
5.710,-3.134
5.715,-3.103
5.720,-2.937
5.725,-2.835
5.730,-2.727
5.735,-2.611
5.740,-2.507
5.745,-2.400
5.750,-2.297
5.755,-2.196
5.760,-2.097
5.765,-2.001
5.770,-1.906
5.775,-1.814
5.780,-1.724
5.785,-1.637
5.790,-1.551
5.795,-1.468
5.800,-1.387
5.805,-1.308
5.810,-1.231
5.815,-1.156
5.820,-1.084
5.825,-1.013
5.830,-0.945
5.835,-0.879
5.840,-0.814
5.845,-0.752
5.850,-0.692
5.855,-0.633
5.860,-0.577
5.865,-0.522
5.870,-0.469
5.875,-0.418
5.880,-0.369
5.885,-0.282
5.890,-0.120
5.895,-0.115
5.900,-0.063
5.905,0.637
5.910,0.934
5.915,0.452
5.920,1.069
5.925,1.887
5.930,1.227
5.935,1.100
5.940,1.949
5.945,1.575
5.950,1.000
5.955,1.840
5.960,2.061
5.965,1.304
5.970,1.833
5.975,2.601
5.980,1.952
5.985,1.894
5.990,2.811
5.995,2.530
6.000,2.047
6.005,2.553
6.010,2.645
6.015,2.365
6.020,2.316
6.025,2.213
6.030,2.087
6.035,1.993
6.040,1.887
6.045,1.787
6.050,1.691
6.055,1.595
6.060,1.494
6.065,1.355
6.070,1.273
6.075,1.134
6.080,0.541
6.085,0.386
6.090,0.946
6.095,0.450
6.100,-0.319
6.105,0.231
6.110,0.199
6.115,-0.892
6.120,-0.708
6.125,-0.144
6.130,-0.991
6.135,-1.219
6.140,-0.306
6.145,-0.619
6.150,-1.243
6.155,-0.434
6.160,-0.196
6.165,-0.994
6.170,-0.503
6.175,0.383
6.180,-0.066
6.185,-0.058
6.190,0.788
6.195,0.673
6.200,0.358
6.205,0.638
6.210,0.670
6.215,0.539
6.220,0.522
6.225,0.469
6.230,0.415
6.235,0.375
6.240,0.329
6.245,0.286
6.250,0.246
6.255,0.206
6.260,0.168
6.265,0.132
6.270,0.097
6.275,0.063
6.280,0.031
6.285,0.000
6.290,-0.029
6.295,-0.085
6.300,-0.127
6.305,-0.113
6.310,-0.146
6.315,-0.219
6.320,-0.211
6.325,-0.188
6.330,-0.291
6.335,-0.324
6.340,-0.227
6.345,-0.270
6.350,-0.325
6.355,-0.287
6.360,-0.307
6.365,-0.346
6.370,-0.341
6.375,-0.333
6.380,-0.349
6.385,-0.359
6.390,-0.366
6.395,-0.378
6.400,-0.386
6.405,-0.389
6.410,-0.396
6.415,-0.402
6.420,-0.406
6.425,-0.417
6.430,-0.518
6.435,-0.546
6.440,-0.419
6.445,-0.663
6.450,-0.942
6.455,-0.587
6.460,-0.563
6.465,-1.164
6.470,-0.950
6.475,-0.445
6.480,-0.979
6.485,-1.098
6.490,-0.363
6.495,-0.524
6.500,-0.926
6.505,-0.410
6.510,-0.229
6.515,-0.699
6.520,-0.550
6.525,-0.290
6.530,-1.071
6.535,-1.632
6.540,-1.394
6.545,-1.698
6.550,-1.768
6.555,-0.643
6.560,-0.181
6.565,-0.857
6.570,-0.629
6.575,-0.027
6.580,-0.667
6.585,-0.947
6.590,-0.205
6.595,-0.457
6.600,-1.102
6.605,-0.506
6.610,-0.305
6.615,-1.114
6.620,-0.902
6.625,-0.289
6.630,-0.912
6.635,-1.126
6.640,-0.312
6.645,-0.523
6.650,-1.124
6.655,-0.431
6.660,-0.168
6.665,-1.006
6.670,-0.756
6.675,-0.077
6.680,-0.759
6.685,-1.044
6.690,-0.272
6.695,-0.646
6.700,-1.449
6.705,-0.866
6.710,-0.686
6.715,-1.627
6.720,-1.511
6.725,-0.955
6.730,-1.719
6.735,-2.066
6.740,-1.271
6.745,-1.415
6.750,-1.981
6.755,-1.479
6.760,-1.242
6.765,-1.638
6.770,-1.361
6.775,-0.962
6.780,-1.189
6.785,-1.111
6.790,-0.426
6.795,-0.417
6.800,-0.713
6.805,0.239
6.810,0.916
6.815,0.436
6.820,0.950
6.825,1.926
6.830,1.555
6.835,1.478
6.840,2.447
6.845,2.405
6.850,1.867
6.855,2.378
6.860,2.610
6.865,2.127
6.870,2.175
6.875,2.417
6.880,2.188
6.885,2.058
6.890,2.123
6.895,2.011
6.900,1.901
6.905,1.862
6.910,1.779
6.915,1.683
6.920,1.621
6.925,1.570
6.930,1.457
6.935,1.374
6.940,1.368
6.945,1.228
6.950,1.080
6.955,1.135
6.960,1.092
6.965,0.842
6.970,0.838
6.975,0.981
6.980,0.684
6.985,0.536
6.990,0.823
6.995,0.670
7.000,0.418
7.005,0.612
7.010,0.667
7.015,0.459
7.020,0.459
7.025,0.559
7.030,0.392
7.035,0.301
7.040,0.425
7.045,0.319
7.050,0.174
7.055,0.268
7.060,0.223
7.065,-0.092
7.070,-0.049
7.075,0.215
7.080,-0.171
7.085,-0.385
7.090,0.062
7.095,-0.188
7.100,-0.720
7.105,-0.267
7.110,-0.082
7.115,-0.829
7.120,-0.710
7.125,-0.090
7.130,-0.697
7.135,-1.067
7.140,-0.273
7.145,-0.382
7.150,-1.086
7.155,-0.541
7.160,-0.226
7.165,-0.983
7.170,-0.752
7.175,-0.009
7.180,-0.604
7.185,-0.904
7.190,0.009
7.195,-0.015
7.200,-0.597
7.205,-0.066
7.210,0.255
7.215,-0.306
7.220,-0.206
7.225,0.201
7.230,-0.508
7.235,-1.088
7.240,-0.766
7.245,-1.476
7.250,-2.492
7.255,-1.607
7.260,-0.719
7.265,-1.149
7.270,-0.807
7.275,0.007
7.280,-0.477
7.285,-0.708
7.290,0.203
7.295,0.133
7.300,-0.576
7.305,0.014
7.310,0.469
7.315,-0.260
7.320,-0.136
7.325,0.582
7.330,0.014
7.335,-0.372
7.340,0.378
7.345,0.181
7.350,-0.607
7.355,-0.115
7.360,0.138
7.365,-0.746
7.370,-0.704
7.375,-0.093
7.380,-0.722
7.385,-1.175
7.390,-0.480
7.395,-0.583
7.400,-1.201
7.405,-0.574
7.410,-0.087
7.415,-0.663
7.420,-0.451
7.425,0.226
7.430,-0.277
7.435,-0.502
7.440,0.343
7.445,0.261
7.450,-0.423
7.455,0.004
7.460,0.216
7.465,-0.612
7.470,-0.652
7.475,-0.182
7.480,-0.864
7.485,-1.391
7.490,-0.853
7.495,-1.102
7.500,-1.846
7.505,-1.371
7.510,-1.039
7.515,-1.740
7.520,-1.583
7.525,-0.863
7.530,-1.315
7.535,-1.555
7.540,-0.715
7.545,-0.733
7.550,-1.268
7.555,-0.646
7.560,-0.241
7.565,-0.834
7.570,-0.579
7.575,0.169
7.580,-0.202
7.585,-0.364
7.590,0.467
7.595,0.498
7.600,0.037
7.605,0.699
7.610,1.123
7.615,0.439
7.620,0.559
7.625,1.225
7.630,0.735
7.635,0.384
7.640,0.989
7.645,0.769
7.650,0.075
7.655,0.550
7.660,0.886
7.665,0.245
7.670,0.352
7.675,0.891
7.680,0.373
7.685,0.066
7.690,0.742
7.695,0.674
7.700,0.083
7.705,0.568
7.710,0.957
7.715,0.345
7.720,0.414
7.725,1.008
7.730,0.543
7.735,0.173
7.740,0.805
7.745,0.747
7.750,0.195
7.755,0.754
7.760,1.168
7.765,0.517
7.770,0.593
7.775,1.234
7.780,0.787
7.785,0.479
7.790,1.193
7.795,1.182
7.800,0.608
7.805,1.050
7.810,1.380
7.815,0.730
7.820,0.803
7.825,1.442
7.830,1.001
7.835,0.583
7.840,1.147
7.845,1.060
7.850,0.441
7.855,0.876
7.860,1.206
7.865,0.457
7.870,0.439
7.875,1.121
7.880,0.668
7.885,0.185
7.890,0.790
7.895,0.648
7.900,-0.107
7.905,0.380
7.910,0.845
7.915,0.181
7.920,0.193
7.925,0.821
7.930,0.225
7.935,-0.488
7.940,-0.135
7.945,-0.605
7.950,-1.564
7.955,-0.671
7.960,0.472
7.965,0.170
7.970,0.342
7.975,1.072
7.980,0.616
7.985,0.246
7.990,0.997
7.995,1.017
8.000,0.323
8.005,0.619
8.010,0.940
8.015,0.179
8.020,0.041
8.025,0.628
8.030,0.068
8.035,-0.546
8.040,0.012
8.045,-0.069
8.050,-0.871
8.055,-0.651
8.060,-0.478
8.065,-1.304
8.070,-1.347
8.075,-0.855
8.080,-1.592
8.085,-2.171
8.090,-1.506
8.095,-1.634
8.100,-2.515
8.105,-2.230
8.110,-1.861
8.115,-2.268
8.120,-2.230
8.125,-1.956
8.130,-1.982
8.135,-1.942
8.140,-1.816
8.145,-1.731
8.150,-1.644
8.155,-1.552
8.160,-1.468
8.165,-1.385
8.170,-1.303
8.175,-1.225
8.180,-1.148
8.185,-1.074
8.190,-1.002
8.195,-0.932
8.200,-0.864
8.205,-0.798
8.210,-0.734
8.215,-0.672
8.220,-0.613
8.225,-0.555
8.230,-0.499
8.235,-0.446
8.240,-0.394
8.245,-0.344
8.250,-0.295
8.255,-0.249
8.260,-0.205
8.265,-0.162
8.270,-0.120
8.275,-0.081
8.280,-0.043
8.285,-0.007
8.290,0.041
8.295,0.077
8.300,0.089
8.305,0.132
8.310,0.171
8.315,0.175
8.320,0.200
8.325,0.230
8.330,0.250
8.335,0.273
8.340,0.294
8.345,0.313
8.350,0.332
8.355,0.350
8.360,0.366
8.365,0.381
8.370,0.395
8.375,0.409
8.380,0.421
8.385,0.432
8.390,0.443
8.395,0.452
8.400,0.461
8.405,0.469
8.410,0.476
8.415,0.482
8.420,0.487
8.425,0.492
8.430,0.496
8.435,0.500
8.440,0.506
8.445,0.508
8.450,0.557
8.455,1.028
8.460,1.551
8.465,1.319
8.470,1.459
8.475,2.233
8.480,1.929
8.485,1.404
8.490,1.937
8.495,1.850
8.500,0.957
8.505,1.108
8.510,1.413
8.515,0.643
8.520,0.449
8.525,0.983
8.530,0.471
8.535,-0.159
8.540,0.286
8.545,0.280
8.550,-0.293
8.555,-0.193
8.560,-0.057
8.565,-0.218
8.570,-0.201
8.575,-0.164
8.580,-0.174
8.585,-0.155
8.590,-0.145
8.595,-0.137
8.600,-0.125
8.605,-0.116
8.610,-0.107
8.615,-0.098
8.620,-0.090
8.625,-0.081
8.630,-0.073
8.635,-0.065
8.640,-0.058
8.645,-0.051
8.650,-0.044
8.655,-0.037
8.660,-0.031
8.665,-0.024
8.670,-0.018
8.675,-0.013
8.680,-0.007
8.685,-0.002
8.690,0.003
8.695,0.008
8.700,0.013
8.705,0.017
8.710,0.021
8.715,0.025
8.720,0.029
8.725,0.032
8.730,0.036
8.735,0.039
8.740,0.042
8.745,0.045
8.750,0.048
8.755,0.114
8.760,0.204
8.765,0.143
8.770,0.418
8.775,1.149
8.780,1.128
8.785,0.890
8.790,1.714
8.795,2.086
8.800,1.566
8.805,1.995
8.810,2.640
8.815,2.169
8.820,2.132
8.825,2.877
8.830,2.645
8.835,2.147
8.840,2.544
8.845,2.625
8.850,2.223
8.855,2.213
8.860,2.250
8.865,2.065
8.870,1.936
8.875,1.835
8.880,1.705
8.885,1.594
8.890,1.484
8.895,1.375
8.900,1.272
8.905,1.171
8.910,1.073
8.915,0.979
8.920,0.888
8.925,0.800
8.930,0.714
8.935,0.632
8.940,0.553
8.945,0.477
8.950,0.403
8.955,0.333
8.960,0.265
8.965,0.200
8.970,0.137
8.975,0.077
8.980,-0.039
8.985,-0.130
8.990,-0.098
8.995,-0.156
9.000,-0.318
9.005,-0.309
9.010,-0.234
9.015,-0.328
9.020,-0.388
9.025,-0.359
9.030,-0.409
9.035,-0.453
9.040,-0.470
9.045,-0.505
9.050,-0.533
9.055,-0.558
9.060,-0.583
9.065,-0.606
9.070,-0.627
9.075,-0.647
9.080,-0.666
9.085,-0.683
9.090,-0.698
9.095,-0.712
9.100,-0.725
9.105,-0.737
9.110,-0.747
9.115,-0.756
9.120,-0.764
9.125,-0.771
9.130,-0.777
9.135,-0.782
9.140,-0.786
9.145,-0.789
9.150,-0.791
9.155,-0.792
9.160,-0.792
9.165,-0.792
9.170,-0.791
9.175,-0.789
9.180,-0.786
9.185,-0.783
9.190,-0.779
9.195,-0.774
9.200,-0.769
9.205,-0.764
9.210,-0.758
9.215,-0.751
9.220,-0.744
9.225,-0.737
9.230,-0.729
9.235,-0.721
9.240,-0.712
9.245,-0.703
9.250,-0.694
9.255,-0.684
9.260,-0.675
9.265,-0.665
9.270,-0.655
9.275,-0.644
9.280,-0.673
9.285,-0.690
9.290,-0.624
9.295,-0.719
9.300,-1.123
9.305,-1.216
9.310,-1.253
9.315,-2.101
9.320,-2.126
9.325,-0.795
9.330,-0.442
9.335,-0.729
9.340,-0.340
9.345,-0.155
9.350,-0.312
9.355,-0.252
9.360,-0.175
9.365,-0.196
9.370,-0.192
9.375,-0.180
9.380,-0.181
9.385,-0.174
9.390,-0.169
9.395,-0.166
9.400,-0.161
9.405,-0.156
9.410,-0.152
9.415,-0.148
9.420,-0.143
9.425,-0.139
9.430,-0.135
9.435,-0.131
9.440,-0.126
9.445,-0.123
9.450,-0.119
9.455,-0.115
9.460,-0.110
9.465,-0.118
9.470,-0.117
9.475,-0.096
9.480,-0.135
9.485,-0.170
9.490,-0.103
9.495,-0.094
9.500,-0.197
9.505,-0.163
9.510,-0.041
9.515,-0.152
9.520,-0.200
9.525,-0.036
9.530,-0.090
9.535,-0.182
9.540,-0.060
9.545,-0.030
9.550,-0.150
9.555,-0.112
9.560,0.018
9.565,-0.063
9.570,-0.098
9.575,0.017
9.580,-0.017
9.585,-0.061
9.590,0.004
9.595,0.012
9.600,-0.029
9.605,-0.013
9.610,0.026
9.615,-0.012
9.620,-0.026
9.625,0.027
9.630,-0.015
9.635,-0.066
9.640,0.002
9.645,0.012
9.650,-0.098
9.655,-0.065
9.660,0.055
9.665,-0.105
9.670,-0.173
9.675,0.049
9.680,-0.050
9.685,-0.243
9.690,-0.039
9.695,0.032
9.700,-0.264
9.705,-0.197
9.710,0.094
9.715,-0.199
9.720,-0.338
9.725,0.068
9.730,-0.052
9.735,-0.384
9.740,-0.065
9.745,0.094
9.750,-0.314
9.755,-0.217
9.760,0.181
9.765,-0.141
9.770,-0.309
9.775,0.138
9.780,0.053
9.785,-0.280
9.790,0.021
9.795,0.166
9.800,-0.262
9.805,-0.184
9.810,0.220
9.815,-0.132
9.820,-0.346
9.825,0.136
9.830,0.007
9.835,-0.471
9.840,-0.091
9.845,0.134
9.850,-0.424
9.855,-0.313
9.860,0.214
9.865,-0.185
9.870,-0.448
9.875,0.128
9.880,0.059
9.885,-0.455
9.890,-0.057
9.895,0.203
9.900,-0.386
9.905,-0.314
9.910,0.204
9.915,-0.220
9.920,-0.521
9.925,0.042
9.930,-0.037
9.935,-0.574
9.940,-0.188
9.945,0.101
9.950,-0.460
9.955,-0.447
9.960,-0.067
9.965,-0.696
9.970,-1.288
9.975,-1.130
9.980,-1.672
9.985,-2.131
9.990,-0.961
9.995,-0.015
10.000,-0.294
10.005,-0.076
10.010,0.544
10.015,0.240
10.020,0.019
10.025,0.635
10.030,0.594
10.035,0.060
10.040,0.457
10.045,0.745
10.050,0.144
10.055,0.191
10.060,0.732
10.065,0.297
10.070,-0.043
10.075,0.539
10.080,0.461
10.085,-0.118
10.090,0.265
10.095,0.558
10.100,-0.050
10.105,-0.007
10.110,0.542
10.115,0.136
10.120,-0.186
10.125,0.393
10.130,0.339
10.135,-0.225
10.140,0.162
10.145,0.469
10.150,-0.139
10.155,-0.110
10.160,0.446
10.165,0.049
10.170,-0.284
10.175,0.289
10.180,0.239
10.185,-0.324
10.190,0.068
10.195,0.387
10.200,-0.204
10.205,-0.162
10.210,0.398
10.215,0.013
10.220,-0.302
10.225,0.290
10.230,0.262
10.235,-0.281
10.240,0.127
10.245,0.485
10.250,-0.066
10.255,-0.014
10.260,0.562
10.265,0.213
10.270,-0.096
10.275,0.478
10.280,0.447
10.285,-0.112
10.290,0.253
10.295,0.578
10.300,0.001
10.305,0.010
10.310,0.545
10.315,0.168
10.320,-0.168
10.325,0.384
10.330,0.344
10.335,-0.226
10.340,0.112
10.345,0.415
10.350,-0.160
10.355,-0.158
10.360,0.366
10.365,-0.013
10.370,-0.361
10.375,0.179
10.380,0.153
10.385,-0.402
10.390,-0.061
10.395,0.264
10.400,-0.296
10.405,-0.289
10.410,0.254
10.415,-0.102
10.420,-0.440
10.425,0.098
10.430,0.075
10.435,-0.475
10.440,-0.128
10.445,0.208
10.450,-0.344
10.455,-0.368
10.460,0.152
10.465,-0.172
10.470,-0.515
10.475,-0.006
10.480,-0.013
10.485,-0.556
10.490,-0.251
10.495,0.046
10.500,-0.479
10.505,-0.437
10.510,0.153
10.515,-0.105
10.520,-0.376
10.525,0.227
10.530,0.305
10.535,-0.175
10.540,0.212
10.545,0.598
10.550,0.090
10.555,0.106
10.560,0.636
10.565,0.277
10.570,-0.064
10.575,0.498
10.580,0.514
10.585,-0.072
10.590,0.184
10.595,0.473
10.600,-0.082
10.605,-0.087
10.610,0.457
10.615,0.024
10.620,-0.571
10.625,-0.331
10.630,-0.641
10.635,-1.635
10.640,-1.696
10.645,-1.099
10.650,-0.917
10.655,-0.472
10.660,0.242
10.665,-0.033
10.670,-0.387
10.675,0.197
10.680,0.255
10.685,-0.332
10.690,-0.088
10.695,0.226
10.700,-0.351
10.705,-0.448
10.710,0.040
10.715,-0.342
10.720,-0.814
10.725,-0.391
10.730,-0.451
10.735,-1.102
10.740,-0.880
10.745,-0.590
10.750,-1.163
10.755,-1.257
10.760,-0.784
10.765,-0.970
10.770,-1.233
10.775,-0.931
10.780,-0.841
10.785,-1.005
10.790,-0.873
10.795,-0.750
10.800,-0.781
10.805,-0.656
10.810,-0.459
10.815,-0.490
10.820,-0.545
10.825,-0.234
10.830,-0.137
10.835,-0.398
10.840,-0.101
10.845,0.239
10.850,-0.111
10.855,-0.048
10.860,0.551
10.865,0.371
10.870,0.050
10.875,0.579
10.880,0.677
10.885,0.158
10.890,0.441
10.895,0.844
10.900,0.389
10.905,0.349
10.910,0.907
10.915,0.673
10.920,0.305
10.925,0.749
10.930,0.745
10.935,0.158
10.940,0.368
10.945,0.724
10.950,0.225
10.955,0.088
10.960,0.551
10.965,0.276
10.970,-0.134
10.975,0.215
10.980,0.256
10.985,-0.128
10.990,-0.018
10.995,0.124
11.000,-0.027
11.005,0.000
11.010,0.111
11.015,0.068
11.020,0.039
11.025,0.227
11.030,0.280
11.035,0.103
11.040,0.395
11.045,0.768
11.050,0.433
11.055,0.387
11.060,0.955
11.065,0.788
11.070,0.378
11.075,0.813
11.080,0.840
11.085,0.149
11.090,0.204
11.095,0.428
11.100,0.046
11.105,-0.032
11.110,0.111
11.115,0.044
11.120,0.022
11.125,0.054
11.130,0.058
11.135,0.068
11.140,0.080
11.145,0.087
11.150,0.097
11.155,0.105
11.160,0.112
11.165,0.120
11.170,0.127
11.175,0.133
11.180,0.139
11.185,0.145
11.190,0.150
11.195,0.155
11.200,0.159
11.205,0.164
11.210,0.167
11.215,0.171
11.220,0.174
11.225,0.177
11.230,0.180
11.235,0.182
11.240,0.184
11.245,0.186
11.250,0.187
11.255,0.188
11.260,0.189
11.265,0.190
11.270,0.191
11.275,0.191
11.280,0.191
11.285,0.191
11.290,0.233
11.295,0.261
11.300,0.201
11.305,0.248
11.310,0.437
11.315,0.347
11.320,0.111
11.325,0.287
11.330,0.408
11.335,0.300
11.340,1.010
11.345,1.766
11.350,1.098
11.355,0.984
11.360,2.170
11.365,1.853
11.370,0.934
11.375,1.838
11.380,2.221
11.385,1.142
11.390,1.503
11.395,2.477
11.400,1.700
11.405,1.368
11.410,2.468
11.415,2.200
11.420,1.269
11.425,2.004
11.430,2.254
11.435,1.124
11.440,1.384
11.445,2.242
11.450,1.409
11.455,0.958
11.460,1.795
11.465,1.394
11.470,0.558
11.475,1.241
11.480,1.457
11.485,0.436
11.490,0.591
11.495,1.301
11.500,0.369
11.505,-0.092
11.510,0.919
11.515,0.495
11.520,-0.494
11.525,0.367
11.530,0.650
11.535,-0.642
11.540,-0.365
11.545,0.645
11.550,-0.402
11.555,-0.991
11.560,0.177
11.565,-0.211
11.570,-1.406
11.575,-0.697
11.580,-0.463
11.585,-1.632
11.590,-1.178
11.595,-0.162
11.600,-1.352
11.605,-2.190
11.610,-1.035
11.615,-1.062
11.620,-1.863
11.625,-0.876
11.630,-0.686
11.635,-2.088
11.640,-1.622
11.645,-0.530
11.650,-1.490
11.655,-1.850
11.660,-0.488
11.665,-0.405
11.670,-1.276
11.675,-0.640
11.680,-0.076
11.685,-0.890
11.690,-0.703
11.695,0.132
11.700,-0.455
11.705,-0.866
11.710,-0.186
11.715,-0.423
11.720,-0.982
11.725,-0.148
11.730,0.073
11.735,-0.940
11.740,-0.741
11.745,-0.248
11.750,-1.040
11.755,-1.206
11.760,-0.396
11.765,-0.509
11.770,-0.808
11.775,0.121
11.780,0.332
11.785,-0.356
11.790,0.477
11.795,1.437
11.800,1.172
11.805,1.054
11.810,1.091
11.815,0.976
11.820,0.934
11.825,0.883
11.830,0.822
11.835,0.774
11.840,0.722
11.845,0.648
11.850,0.396
11.855,0.279
11.860,0.519
11.865,0.452
11.870,0.261
11.875,0.400
11.880,0.415
11.885,0.268
11.890,0.272
11.895,0.321
11.900,0.264
11.905,0.219
11.910,0.205
11.915,0.167
11.920,0.136
11.925,0.110
11.930,0.051
11.935,-0.118
11.940,-0.135
11.945,0.004
11.950,-0.306
11.955,-0.510
11.960,-0.162
11.965,-0.401
11.970,-0.922
11.975,-0.623
11.980,-0.651
11.985,-1.524
11.990,-1.654
11.995,-1.517
12.000,-2.517
12.005,-2.783
12.010,-1.500
12.015,-1.157
12.020,-1.647
12.025,-1.210
12.030,-1.060
12.035,-1.819
12.040,-1.643
12.045,-0.997
12.050,-1.567
12.055,-1.973
12.060,-1.303
12.065,-1.380
12.070,-2.013
12.075,-1.498
12.080,-1.131
12.085,-1.896
12.090,-1.831
12.095,-1.057
12.100,-1.378
12.105,-1.611
12.110,-0.852
12.115,-0.888
12.120,-1.457
12.125,-0.923
12.130,-0.535
12.135,-1.109
12.140,-0.960
12.145,-0.368
12.150,-0.792
12.155,-1.053
12.160,-0.468
12.165,-0.664
12.170,-1.355
12.175,-1.085
12.180,-0.821
12.185,-1.138
12.190,-1.116
12.195,-0.948
12.200,-0.917
12.205,-0.830
12.210,-0.752
12.215,-0.687
12.220,-0.615
12.225,-0.550
12.230,-0.486
12.235,-0.424
12.240,-0.365
12.245,-0.308
12.250,-0.253
12.255,-0.200
12.260,-0.150
12.265,-0.101
12.270,-0.054
12.275,-0.010
12.280,0.033
12.285,0.074
12.290,0.113
12.295,0.150
12.300,0.185
12.305,0.219
12.310,0.251
12.315,0.281
12.320,0.310
12.325,0.337
12.330,0.363
12.335,0.387
12.340,0.410
12.345,0.432
12.350,0.452
12.355,0.494
12.360,0.623
12.365,0.627
12.370,0.509
12.375,0.838
12.380,1.081
12.385,0.656
12.390,0.699
12.395,1.168
12.400,0.846
12.405,0.533
12.410,0.931
12.415,0.833
12.420,0.404
12.425,0.620
12.430,0.720
12.435,0.462
12.440,0.470
12.445,0.521
12.450,0.490
12.455,0.506
12.460,0.509
12.465,0.507
12.470,0.512
12.475,0.512
12.480,0.512
12.485,0.512
12.490,0.511
12.495,0.510
12.500,0.509
12.505,0.507
12.510,0.504
12.515,0.501
12.520,0.498
12.525,0.495
12.530,0.491
12.535,0.487
12.540,0.482
12.545,0.477
12.550,0.472
12.555,0.467
12.560,0.462
12.565,0.456
12.570,0.450
12.575,0.444
12.580,0.438
12.585,0.431
12.590,0.425
12.595,0.418
12.600,0.411
12.605,0.404
12.610,0.397
12.615,0.390
12.620,0.383
12.625,0.376
12.630,0.369
12.635,0.361
12.640,0.381
12.645,0.440
12.650,0.405
12.655,0.421
12.660,0.696
12.665,0.600
12.670,0.213
12.675,0.237
12.680,0.293
12.685,0.297
12.690,0.867
12.695,1.560
12.700,1.083
12.705,0.391
12.710,0.701
12.715,0.533
12.720,-0.003
12.725,0.371
12.730,0.497
12.735,0.001
12.740,0.194
12.745,0.614
12.750,0.235
12.755,-0.168
12.760,-0.065
12.765,-0.037
12.770,-0.085
12.775,-0.055
12.780,-0.063
12.785,-0.064
12.790,-0.060
12.795,-0.061
12.800,-0.060
12.805,-0.059
12.810,-0.058
12.815,-0.057
12.820,-0.056
12.825,-0.055
12.830,-0.054
12.835,-0.054
12.840,-0.053
12.845,-0.052
12.850,-0.051
12.855,-0.050
12.860,-0.049
12.865,-0.048
12.870,-0.040
12.875,0.125
12.880,0.236
12.885,0.012
12.890,0.133
12.895,0.536
12.900,0.240
12.905,-0.035
12.910,0.524
12.915,0.577
12.920,-0.001
12.925,0.243
12.930,0.513
12.935,-0.027
12.940,-0.094
12.945,0.403
12.950,0.216
12.955,-0.185
12.960,0.187
12.965,0.343
12.970,-0.013
12.975,0.308
12.980,0.645
12.985,0.253
12.990,0.321
12.995,0.821
13.000,0.547
13.005,0.189
13.010,0.714
13.015,0.743
13.020,-0.057
13.025,0.079
13.030,0.555
13.035,0.041
13.040,-0.108
13.045,0.536
13.050,0.461
13.055,0.210
13.060,0.642
13.065,0.446
13.070,-0.193
13.075,-0.023
13.080,-0.086
13.085,-0.744
13.090,-0.847
13.095,-0.703
13.100,-0.735
13.105,-0.705
13.110,-0.673
13.115,-0.660
13.120,-0.635
13.125,-0.614
13.130,-0.594
13.135,-0.572
13.140,-0.552
13.145,-0.532
13.150,-0.512
13.155,-0.493
13.160,-0.474
13.165,-0.455
13.170,-0.437
13.175,-0.419
13.180,-0.402
13.185,-0.385
13.190,-0.368
13.195,-0.351
13.200,-0.335
13.205,-0.320
13.210,-0.304
13.215,-0.289
13.220,-0.275
13.225,-0.261
13.230,-0.247
13.235,-0.233
13.240,-0.220
13.245,-0.207
13.250,-0.195
13.255,-0.096
13.260,0.323
13.265,0.635
13.270,0.517
13.275,0.878
13.280,1.328
13.285,0.962
13.290,1.002
13.295,1.540
13.300,1.210
13.305,0.943
13.310,1.650
13.315,1.917
13.320,1.602
13.325,1.947
13.330,2.292
13.335,1.882
13.340,1.901
13.345,2.440
13.350,2.173
13.355,1.580
13.360,1.620
13.365,1.322
13.370,0.395
13.375,0.207
13.380,0.753
13.385,1.016
13.390,1.335
13.395,1.773
13.400,1.405
13.405,0.881
13.410,1.067
13.415,0.888
13.420,0.065
13.425,-0.171
13.430,-0.264
13.435,-1.141
13.440,-1.695
13.445,-1.710
13.450,-2.208
13.455,-2.552
13.460,-2.345
13.465,-2.259
13.470,-2.224
13.475,-2.121
13.480,-2.057
13.485,-1.984
13.490,-1.910
13.495,-1.842
13.500,-1.772
13.505,-1.704
13.510,-1.638
13.515,-1.573
13.520,-1.509
13.525,-1.446
13.530,-1.385
13.535,-1.325
13.540,-1.266
13.545,-1.209
13.550,-1.153
13.555,-1.098
13.560,-1.044
13.565,-0.992
13.570,-0.941
13.575,-0.892
13.580,-0.843
13.585,-0.796
13.590,-0.751
13.595,-0.706
13.600,-0.663
13.605,-0.621
13.610,-0.580
13.615,-0.540
13.620,-0.502
13.625,-0.464
13.630,-0.428
13.635,-0.394
13.640,-0.360
13.645,-0.327
13.650,-0.295
13.655,-0.265
13.660,-0.235
13.665,-0.207
13.670,-0.180
13.675,-0.153
13.680,-0.128
13.685,-0.103
13.690,-0.080
13.695,-0.058
13.700,-0.036
13.705,-0.015
13.710,0.004
13.715,0.023
13.720,0.041
13.725,0.059
13.730,0.075
13.735,0.091
13.740,0.111
13.745,0.153
13.750,0.164
13.755,0.175
13.760,0.495
13.765,0.690
13.770,0.505
13.775,1.177
13.780,2.121
13.785,1.890
13.790,2.074
13.795,3.169
13.800,3.058
13.805,2.439
13.810,2.992
13.815,3.219
13.820,2.610
13.825,2.678
13.830,2.883
13.835,2.340
13.840,2.161
13.845,2.380
13.850,1.639
13.855,0.605
13.860,0.640
13.865,0.678
13.870,0.108
13.875,0.625
13.880,1.556
13.885,1.074
13.890,0.782
13.895,1.462
13.900,1.053
13.905,0.016
13.910,-0.111
13.915,-0.773
13.920,-2.102
13.925,-2.360
13.930,-2.087
13.935,-2.081
13.940,-2.019
13.945,-1.927
13.950,-1.875
13.955,-1.803
13.960,-1.738
13.965,-1.675
13.970,-1.611
13.975,-1.550
13.980,-1.490
13.985,-1.430
13.990,-1.372
13.995,-1.315
14.000,-1.259
14.005,-1.204
14.010,-1.151
14.015,-1.098
14.020,-1.046
14.025,-0.996
14.030,-0.948
14.035,-0.900
14.040,-0.854
14.045,-0.809
14.050,-0.765
14.055,-0.710
14.060,-0.342
14.065,0.135
14.070,0.128
14.075,0.521
14.080,1.263
14.085,0.950
14.090,0.795
14.095,1.593
14.100,1.397
14.105,0.488
14.110,0.731
14.115,0.932
14.120,0.110
14.125,0.229
14.130,0.942
14.135,0.296
14.140,-0.113
14.145,0.600
14.150,0.214
14.155,-0.721
14.160,-0.257
14.165,-0.048
14.170,-0.869
14.175,-0.634
14.180,0.015
14.185,-0.532
14.190,-0.710
14.195,0.237
14.200,0.363
14.205,0.043
14.210,1.220
14.215,2.270
14.220,1.903
14.225,2.101
14.230,2.753
14.235,2.563
14.240,2.344
14.245,2.320
14.250,2.165
14.255,2.059
14.260,1.959
14.265,1.846
14.270,1.747
14.275,1.647
14.280,1.549
14.285,1.455
14.290,1.363
14.295,1.274
14.300,1.187
14.305,1.103
14.310,1.022
14.315,0.943
14.320,0.867
14.325,0.793
14.330,0.722
14.335,0.653
14.340,0.586
14.345,0.522
14.350,0.460
14.355,0.400
14.360,0.342
14.365,0.280
14.370,0.200
14.375,0.154
14.380,0.143
14.385,0.068
14.390,0.005
14.395,-0.031
14.400,-0.497
14.405,-0.977
14.410,-0.562
14.415,-0.455
14.420,-1.334
14.425,-1.330
14.430,-0.837
14.435,-1.554
14.440,-1.872
14.445,-1.356
14.450,-2.087
14.455,-3.182
14.460,-2.927
14.465,-2.785
14.470,-3.396
14.475,-3.401
14.480,-3.121
14.485,-3.069
14.490,-2.933
14.495,-2.799
14.500,-2.690
14.505,-2.567
14.510,-2.453
14.515,-2.341
14.520,-2.230
14.525,-2.123
14.530,-2.019
14.535,-1.916
14.540,-1.817
14.545,-1.720
14.550,-1.625
14.555,-1.533
14.560,-1.444
14.565,-1.357
14.570,-1.272
14.575,-1.190
14.580,-1.110
14.585,-1.033
14.590,-0.958
14.595,-0.885
14.600,-0.815
14.605,-0.747
14.610,-0.681
14.615,-0.617
14.620,-0.555
14.625,-0.496
14.630,-0.439
14.635,-0.383
14.640,-0.330
14.645,-0.279
14.650,-0.230
14.655,-0.182
14.660,-0.137
14.665,-0.093
14.670,-0.051
14.675,0.001
14.680,0.051
14.685,0.071
14.690,0.105
14.695,0.172
14.700,0.191
14.705,0.181
14.710,0.216
14.715,0.250
14.720,0.270
14.725,0.297
14.730,0.320
14.735,0.341
14.740,0.362
14.745,0.382
14.750,0.400
14.755,0.417
14.760,0.433
14.765,0.447
14.770,0.461
14.775,0.474
14.780,0.485
14.785,0.496
14.790,0.505
14.795,0.514
14.800,0.522
14.805,0.529
14.810,0.535
14.815,0.541
14.820,0.545
14.825,0.549
14.830,0.552
14.835,0.555
14.840,0.668
14.845,1.153
14.850,1.379
14.855,1.133
14.860,1.678
14.865,2.214
14.870,1.749
14.875,2.069
14.880,3.013
14.885,2.783
14.890,2.671
14.895,3.512
14.900,3.676
14.905,3.316
14.910,3.279
14.915,3.161
14.920,2.967
14.925,2.849
14.930,2.703
14.935,2.564
14.940,2.434
14.945,2.303
14.950,2.177
14.955,2.054
14.960,1.934
14.965,1.818
14.970,1.705
14.975,1.595
14.980,1.450
14.985,0.976
14.990,0.490
14.995,0.403
15.000,-0.321
15.005,-1.346
15.010,-1.168
15.015,-0.971
15.020,-1.716
15.025,-1.823
15.030,-1.444
15.035,-2.057
15.040,-2.645
15.045,-2.417
15.050,-2.301
15.055,-2.306
15.060,-2.186
15.065,-2.117
15.070,-2.047
15.075,-1.966
15.080,-1.896
15.085,-1.824
15.090,-1.753
15.095,-1.684
15.100,-1.616
15.105,-1.549
15.110,-1.484
15.115,-1.421
15.120,-1.358
15.125,-1.297
15.130,-1.238
15.135,-1.179
15.140,-1.123
15.145,-1.067
15.150,-1.013
15.155,-0.960
15.160,-0.909
15.165,-0.859
15.170,-0.810
15.175,-0.763
15.180,-0.717
15.185,-0.672
15.190,-0.628
15.195,-0.586
15.200,-0.545
15.205,-0.505
15.210,-0.467
15.215,-0.430
15.220,-0.394
15.225,-0.359
15.230,-0.325
15.235,-0.292
15.240,-0.261
15.245,-0.231
15.250,-0.201
15.255,-0.173
15.260,-0.146
15.265,-0.120
15.270,-0.095
15.275,-0.071
15.280,-0.048
15.285,-0.025
15.290,-0.004
15.295,0.016
15.300,0.035
15.305,0.054
15.310,0.072
15.315,0.088
15.320,0.104
15.325,0.120
15.330,0.134
15.335,0.148
15.340,0.161
15.345,0.173
15.350,0.184
15.355,0.195
15.360,0.205
15.365,0.215
15.370,0.224
15.375,0.232
15.380,0.240
15.385,0.247
15.390,0.253
15.395,0.260
15.400,0.265
15.405,0.270
15.410,0.275
15.415,0.279
15.420,0.282
15.425,0.286
15.430,0.288
15.435,0.291
15.440,0.293
15.445,0.294
15.450,0.296
15.455,0.297
15.460,0.297
15.465,0.297
15.470,0.297
15.475,0.297
15.480,0.296
15.485,0.296
15.490,0.294
15.495,0.293
15.500,0.291
15.505,0.290
15.510,0.338
15.515,0.528
15.520,0.987
15.525,2.173
15.530,3.645
15.535,4.023
15.540,3.670
15.545,3.533
15.550,3.400
15.555,3.213
15.560,3.072
15.565,2.919
15.570,2.770
15.575,2.628
15.580,2.488
15.585,2.352
15.590,2.219
15.595,2.090
15.600,1.965
15.605,1.843
15.610,1.725
15.615,1.610
15.620,1.498
15.625,1.390
15.630,1.285
15.635,1.184
15.640,1.085
15.645,0.990
15.650,0.898
15.655,0.809
15.660,0.724
15.665,0.641
15.670,0.561
15.675,0.484
15.680,0.410
15.685,0.339
15.690,0.271
15.695,0.205
15.700,0.142
15.705,0.082
15.710,0.024
15.715,-0.032
15.720,-0.085
15.725,-0.135
15.730,-0.183
15.735,-0.229
15.740,-0.273
15.745,-0.315
15.750,-0.354
15.755,-0.392
15.760,-0.427
15.765,-0.461
15.770,-0.492
15.775,-0.522
15.780,-0.550
15.785,-0.576
15.790,-0.600
15.795,-0.623
15.800,-0.644
15.805,-0.664
15.810,-0.682
15.815,-0.699
15.820,-0.714
15.825,-0.728
15.830,-0.740
15.835,-0.752
15.840,-0.762
15.845,-0.771
15.850,-0.778
15.855,-0.785
15.860,-0.791
15.865,-0.795
15.870,-0.799
15.875,-0.801
15.880,-0.803
15.885,-0.804
15.890,-0.804
15.895,-0.803
15.900,-0.802
15.905,-0.800
15.910,-0.797
15.915,-0.793
15.920,-0.789
15.925,-0.784
15.930,-0.779
15.935,-0.773
15.940,-0.767
15.945,-0.760
15.950,-0.753
15.955,-0.745
15.960,-0.737
15.965,-0.728
15.970,-0.719
15.975,-0.710
15.980,-0.701
15.985,-0.691
15.990,-0.681
15.995,-0.671
16.000,-0.661
16.005,-0.650
16.010,-0.639
16.015,-0.628
16.020,-0.617
16.025,-0.606
16.030,-0.595
16.035,-0.583
16.040,-0.572
16.045,-0.560
16.050,-0.549
16.055,-0.537
16.060,-0.525
16.065,-0.513
16.070,-0.502
16.075,-0.490
16.080,-0.479
16.085,-0.467
16.090,-0.456
16.095,-0.444
16.100,-0.473
16.105,-0.659
16.110,-0.834
16.115,-1.118
16.120,-1.965
16.125,-2.379
16.130,-2.019
16.135,-2.393
16.140,-2.969
16.145,-2.643
16.150,-2.676
16.155,-3.238
16.160,-2.996
16.165,-2.629
16.170,-2.900
16.175,-2.829
16.180,-2.393
16.185,-2.386
16.190,-2.352
16.195,-1.673
16.200,-1.293
16.205,-1.405
16.210,-0.633
16.215,0.409
16.220,0.613
16.225,1.120
16.230,1.953
16.235,1.990
16.240,1.812
16.245,1.832
16.250,1.764
16.255,1.708
16.260,1.668
16.265,1.614
16.270,1.567
16.275,1.520
16.280,1.472
16.285,1.426
16.290,1.380
16.295,1.335
16.300,1.290
16.305,1.246
16.310,1.203
16.315,1.160
16.320,1.118
16.325,1.078
16.330,1.037
16.335,0.997
16.340,0.959
16.345,0.920
16.350,0.883
16.355,0.846
16.360,0.811
16.365,0.775
16.370,0.741
16.375,0.707
16.380,0.674
16.385,0.643
16.390,0.611
16.395,0.581
16.400,0.551
16.405,0.522
16.410,0.494
16.415,0.466
16.420,0.439
16.425,0.413
16.430,0.388
16.435,0.363
16.440,0.339
16.445,0.316
16.450,0.294
16.455,0.272
16.460,0.251
16.465,0.230
16.470,0.211
16.475,0.192
16.480,0.173
16.485,0.155
16.490,0.138
16.495,0.122
16.500,0.105
16.505,0.090
16.510,0.075
16.515,0.061
16.520,0.047
16.525,0.034
16.530,0.021
16.535,0.005
16.540,-0.009
16.545,-0.014
16.550,-0.139
16.555,-0.369
16.560,-0.250
16.565,-0.084
16.570,-0.545
16.575,-0.655
16.580,-0.110
16.585,-0.292
16.590,-0.662
16.595,-0.224
16.600,-0.147
16.605,-0.790
16.610,-0.820
16.615,-0.629
16.620,-1.261
16.625,-1.176
16.630,-0.017
16.635,0.332
16.640,0.117
16.645,0.172
16.650,0.177
16.655,0.139
16.660,0.144
16.665,0.129
16.670,0.118
16.675,0.111
16.680,0.100
16.685,0.091
16.690,0.083
16.695,0.074
16.700,0.066
16.705,0.058
16.710,0.051
16.715,0.043
16.720,0.036
16.725,0.030
16.730,0.023
16.735,0.017
16.740,0.011
16.745,0.005
16.750,0.000
16.755,-0.005
16.760,-0.010
16.765,-0.015
16.770,-0.020
16.775,-0.024
16.780,-0.028
16.785,-0.032
16.790,-0.036
16.795,-0.039
16.800,-0.042
16.805,-0.046
16.810,-0.049
16.815,-0.051
16.820,-0.054
16.825,-0.056
16.830,-0.059
16.835,-0.061
16.840,-0.063
16.845,-0.065
16.850,-0.066
16.855,-0.068
16.860,-0.069
16.865,-0.070
16.870,-0.072
16.875,-0.073
16.880,-0.200
16.885,-0.920
16.890,-1.806
16.895,-1.878
16.900,-2.049
16.905,-2.829
16.910,-2.872
16.915,-2.595
16.920,-3.038
16.925,-3.168
16.930,-2.739
16.935,-2.700
16.940,-2.765
16.945,-2.545
16.950,-2.390
16.955,-2.306
16.960,-2.158
16.965,-2.028
16.970,-1.910
16.975,-1.785
16.980,-1.669
16.985,-1.555
16.990,-1.444
16.995,-1.337
17.000,-1.234
17.005,-1.128
17.010,-0.852
17.015,-0.501
17.020,-0.586
17.025,-0.469
17.030,0.324
17.035,0.415
17.040,0.078
17.045,0.644
17.050,0.870
17.055,0.289
17.060,0.546
17.065,1.073
17.070,0.563
17.075,0.368
17.080,0.983
17.085,0.774
17.090,0.247
17.095,0.701
17.100,0.840
17.105,0.172
17.110,0.332
17.115,0.866
17.120,0.326
17.125,-0.031
17.130,0.514
17.135,0.346
17.140,-0.186
17.145,0.254
17.150,0.458
17.155,-0.085
17.160,-0.037
17.165,0.228
17.170,0.017
17.175,-0.048
17.180,0.059
17.185,0.074
17.190,0.107
17.195,0.148
17.200,0.175
17.205,0.207
17.210,0.236
17.215,0.263
17.220,0.290
17.225,0.314
17.230,0.337
17.235,0.359
17.240,0.380
17.245,0.399
17.250,0.417
17.255,0.434
17.260,0.450
17.265,0.464
17.270,0.478
17.275,0.490
17.280,0.502
17.285,0.512
17.290,0.522
17.295,0.530
17.300,0.538
17.305,0.545
17.310,0.551
17.315,0.556
17.320,0.560
17.325,0.564
17.330,0.567
17.335,0.569
17.340,0.571
17.345,0.572
17.350,0.572
17.355,0.572
17.360,0.571
17.365,0.570
17.370,0.568
17.375,0.566
17.380,0.563
17.385,0.560
17.390,0.557
17.395,0.553
17.400,0.548
17.405,0.544
17.410,0.539
17.415,0.533
17.420,0.528
17.425,0.522
17.430,0.516
17.435,0.509
17.440,0.503
17.445,0.496
17.450,0.489
17.455,0.482
17.460,0.474
17.465,0.467
17.470,0.459
17.475,0.451
17.480,0.444
17.485,0.436
17.490,0.428
17.495,0.420
17.500,0.411
17.505,0.403
17.510,0.395
17.515,0.387
17.520,0.379
17.525,0.448
17.530,0.779
17.535,0.891
17.540,0.757
17.545,1.378
17.550,1.817
17.555,1.314
17.560,1.495
17.565,2.193
17.570,2.010
17.575,2.030
17.580,2.934
17.585,3.058
17.590,2.621
17.595,2.952
17.600,3.116
17.605,2.684
17.610,2.599
17.615,2.673
17.620,2.390
17.625,2.209
17.630,2.239
17.635,2.101
17.640,1.942
17.645,1.842
17.650,1.711
17.655,1.594
17.660,1.482
17.665,1.370
17.670,1.264
17.675,1.160
17.680,1.060
17.685,0.963
17.690,0.870
17.695,0.779
17.700,0.692
17.705,0.608
17.710,0.527
17.715,0.449
17.720,0.374
17.725,0.301
17.730,0.232
17.735,0.165
17.740,0.102
17.745,0.040
17.750,-0.018
17.755,-0.074
17.760,-0.128
17.765,-0.179
17.770,-0.227
17.775,-0.274
17.780,-0.318
17.785,-0.360
17.790,-0.399
17.795,-0.437
17.800,-0.472
17.805,-0.506
17.810,-0.537
17.815,-0.567
17.820,-0.594
17.825,-0.620
17.830,-0.645
17.835,-0.667
17.840,-0.688
17.845,-0.708
17.850,-0.725
17.855,-0.742
17.860,-0.757
17.865,-0.770
17.870,-0.782
17.875,-0.793
17.880,-0.803
17.885,-0.811
17.890,-0.818
17.895,-0.825
17.900,-0.830
17.905,-0.834
17.910,-0.837
17.915,-0.839
17.920,-0.840
17.925,-0.840
17.930,-0.840
17.935,-0.838
17.940,-0.836
17.945,-0.833
17.950,-0.830
17.955,-0.826
17.960,-0.821
17.965,-0.815
17.970,-0.809
17.975,-0.803
17.980,-0.796
17.985,-0.788
17.990,-0.780
17.995,-0.772
18.000,-0.763
18.005,-0.754
18.010,-0.745
18.015,-0.735
18.020,-0.725
18.025,-0.714
18.030,-0.704
18.035,-0.693
18.040,-0.682
18.045,-0.671
18.050,-0.659
18.055,-0.648
18.060,-0.636
18.065,-0.624
18.070,-0.612
18.075,-0.600
18.080,-0.588
18.085,-0.576
18.090,-0.564
18.095,-0.552
18.100,-0.540
18.105,-0.527
18.110,-0.515
18.115,-0.503
18.120,-0.491
18.125,-0.479
18.130,-0.467
18.135,-0.455
18.140,-0.443
18.145,-0.431
18.150,-0.420
18.155,-0.408
18.160,-0.396
18.165,-0.385
18.170,-0.374
18.175,-0.363
18.180,-0.352
18.185,-0.341
18.190,-0.330
18.195,-0.319
18.200,-0.309
18.205,-0.299
18.210,-0.288
18.215,-0.278
18.220,-0.269
18.225,-0.259
18.230,-0.249
18.235,-0.240
18.240,-0.231
18.245,-0.222
18.250,-0.213
18.255,-0.204
18.260,-0.196
18.265,-0.188
18.270,-0.179
18.275,-0.172
18.280,-0.164
18.285,-0.156
18.290,-0.149
18.295,-0.142
18.300,-0.135
18.305,-0.128
18.310,-0.121
18.315,-0.114
18.320,-0.108
18.325,-0.102
18.330,-0.096
18.335,-0.094
18.340,-0.091
18.345,-0.080
18.350,-0.072
18.355,-0.070
18.360,-0.065
18.365,-0.057
18.370,-0.053
18.375,-0.049
18.380,-0.044
18.385,-0.209
18.390,-0.647
18.395,-0.727
18.400,-0.334
18.405,-0.188
18.410,-0.071
18.415,0.122
18.420,0.083
18.425,0.061
18.430,0.090
18.435,0.076
18.440,0.080
18.445,0.082
18.450,0.080
18.455,0.082
18.460,0.082
18.465,0.082
18.470,0.082
18.475,0.082
18.480,0.082
18.485,0.081
18.490,0.081
18.495,0.081
18.500,0.080
18.505,0.080
18.510,0.079
18.515,0.079
18.520,0.078
18.525,0.078
18.530,0.077
18.535,0.074
18.540,0.071
18.545,0.074
18.550,0.075
18.555,0.070
18.560,0.069
18.565,0.072
18.570,0.071
18.575,0.069
18.580,0.068
18.585,0.067
18.590,0.066
18.595,0.065
18.600,0.064
18.605,0.062
18.610,0.061
18.615,0.060
18.620,0.059
18.625,0.058
18.630,0.057
18.635,0.055
18.640,0.054
18.645,0.053
18.650,0.052
18.655,0.051
18.660,0.049
18.665,0.048
18.670,0.047
18.675,0.046
18.680,0.045
18.685,0.044
18.690,0.043
18.695,0.041
18.700,0.040
18.705,0.039
18.710,0.038
18.715,0.037
18.720,0.036
18.725,0.035
18.730,0.034
18.735,0.032
18.740,0.031
18.745,0.030
18.750,0.029
18.755,0.016
18.760,0.013
18.765,0.030
18.770,-0.007
18.775,-0.032
18.780,0.023
18.785,0.017
18.790,-0.051
18.795,-0.025
18.800,-0.040
18.805,-0.448
18.810,-0.644
18.815,-0.408
18.820,-0.890
18.825,-1.366
18.830,-0.763
18.835,-0.717
18.840,-1.566
18.845,-1.491
18.850,-1.131
18.855,-1.731
18.860,-1.778
18.865,-1.036
18.870,-1.276
18.875,-1.705
18.880,-1.090
18.885,-0.854
18.890,-1.301
18.895,-0.960
18.900,-0.465
18.905,-0.882
18.910,-0.890
18.915,-0.343
18.920,-0.731
18.925,-1.119
18.930,-0.479
18.935,-0.436
18.940,-1.156
18.945,-0.895
18.950,-0.435
18.955,-1.055
18.960,-1.288
18.965,-0.845
18.970,-1.311
18.975,-1.908
18.980,-1.590
18.985,-1.376
18.990,-1.350
18.995,-0.659
19.000,-0.134
19.005,-0.741
19.010,-1.051
19.015,-0.554
19.020,-0.694
19.025,-1.015
19.030,-0.693
19.035,-0.595
19.040,-0.777
19.045,-0.632
19.050,-0.494
19.055,-0.516
19.060,-0.451
19.065,-0.370
19.070,-0.314
19.075,-0.248
19.080,-0.164
19.085,-0.104
19.090,-0.083
19.095,0.058
19.100,0.188
19.105,0.109
19.110,0.079
19.115,0.159
19.120,0.196
19.125,0.230
19.130,0.274
19.135,0.307
19.140,0.342
19.145,0.376
19.150,0.406
19.155,0.435
19.160,0.462
19.165,0.488
19.170,0.512
19.175,0.535
19.180,0.556
19.185,0.576
19.190,0.594
19.195,0.610
19.200,0.625
19.205,0.640
19.210,0.653
19.215,0.665
19.220,0.676
19.225,0.685
19.230,0.694
19.235,0.701
19.240,0.707
19.245,0.713
19.250,0.717
19.255,0.721
19.260,0.723
19.265,0.725
19.270,0.726
19.275,0.727
19.280,0.726
19.285,0.725
19.290,0.723
19.295,0.721
19.300,0.718
19.305,0.714
19.310,0.710
19.315,0.705
19.320,0.700
19.325,0.695
19.330,0.689
19.335,0.682
19.340,0.675
19.345,0.668
19.350,0.660
19.355,0.653
19.360,0.704
19.365,1.013
19.370,1.320
19.375,1.637
19.380,2.589
19.385,3.168
19.390,2.848
19.395,3.117
19.400,3.522
19.405,2.929
19.410,2.649
19.415,3.064
19.420,2.723
19.425,2.141
19.430,2.377
19.435,2.271
19.440,1.522
19.445,1.589
19.450,1.960
19.455,1.479
19.460,1.314
19.465,1.797
19.470,1.431
19.475,0.779
19.480,1.094
19.485,1.069
19.490,0.260
19.495,0.259
19.500,0.551
19.505,-0.052
19.510,-0.375
19.515,-0.038
19.520,-0.425
19.525,-1.116
19.530,-1.055
19.535,-1.320
19.540,-2.009
19.545,-2.002
19.550,-1.826
19.555,-1.837
19.560,-1.757
19.565,-1.696
19.570,-1.647
19.575,-1.586
19.580,-1.532
19.585,-1.478
19.590,-1.423
19.595,-1.371
19.600,-1.319
19.605,-1.269
19.610,-1.219
19.615,-1.170
19.620,-1.122
19.625,-0.978
19.630,-0.417
19.635,0.078
19.640,0.012
19.645,0.526
19.650,1.324
19.655,1.092
19.660,1.026
19.665,1.678
19.670,1.563
19.675,1.158
19.680,1.645
19.685,1.753
19.690,1.069
19.695,1.174
19.700,1.572
19.705,1.037
19.710,0.851
19.715,1.466
19.720,1.320
19.725,0.856
19.730,1.295
19.735,1.432
19.740,0.769
19.745,0.803
19.750,1.114
19.755,0.491
19.760,0.147
19.765,0.582
19.770,0.296
19.775,-0.265
19.780,0.093
19.785,0.170
19.790,-0.450
19.795,-0.285
19.800,0.150
19.805,-0.377
19.810,-0.617
19.815,-0.095
19.820,-0.335
19.825,-0.814
19.830,-0.270
19.835,0.000
19.840,-0.563
19.845,-0.398
19.850,0.134
19.855,-0.173
19.860,-0.111
19.865,0.738
19.870,0.899
19.875,0.651
19.880,0.749
19.885,0.729
19.890,0.619
19.895,0.591
19.900,0.530
19.905,0.475
19.910,0.428
19.915,0.377
19.920,0.330
19.925,0.285
19.930,0.241
19.935,0.200
19.940,0.159
19.945,0.120
19.950,0.083
19.955,0.048
19.960,0.013
19.965,-0.019
19.970,-0.051
19.975,-0.080
19.980,-0.109
19.985,-0.136
19.990,-0.162
19.995,-0.186
20.000,-0.210
20.005,-0.232
20.010,-0.253
20.015,-0.272
20.020,-0.369
20.025,-0.490
20.030,-0.405
20.035,-0.368
20.040,-0.616
20.045,-0.577
20.050,-0.305
20.055,-0.400
20.060,-0.463
20.065,-0.347
20.070,-0.377
20.075,-0.404
20.080,-0.394
20.085,-0.410
20.090,-0.416
20.095,-0.420
20.100,-0.427
20.105,-0.431
20.110,-0.436
20.115,-0.454
20.120,-0.788
20.125,-1.318
20.130,-0.996
20.135,-0.309
20.140,-0.352
20.145,-0.435
20.150,-0.345
20.155,-0.406
20.160,-0.415
20.165,-0.394
20.170,-0.673
20.175,-1.059
20.180,-0.889
20.185,-0.824
20.190,-1.382
20.195,-1.300
20.200,-0.811
20.205,-1.190
20.210,-1.415
20.215,-0.879
20.220,-0.950
20.225,-1.318
20.230,-0.843
20.235,-0.587
20.240,-1.072
20.245,-0.881
20.250,-0.307
20.255,-0.618
20.260,-0.731
20.265,-0.070
20.270,-0.076
20.275,-0.395
20.280,0.053
20.285,0.275
20.290,-0.077
20.295,0.033
20.300,0.322
20.305,0.056
20.310,-0.045
20.315,0.267
20.320,0.164
20.325,-0.067
20.330,0.137
20.335,0.230
20.340,-0.014
20.345,0.049
20.350,0.284
20.355,0.140
20.360,0.073
20.365,0.238
20.370,0.213
20.375,0.160
20.380,0.195
20.385,0.187
20.390,0.172
20.395,0.167
20.400,0.157
20.405,0.148
20.410,0.140
20.415,0.131
20.420,0.123
20.425,0.116
20.430,0.108
20.435,0.101
20.440,0.094
20.445,0.087
20.450,0.080
20.455,0.074
20.460,0.068
20.465,0.062
20.470,0.056
20.475,0.050
20.480,0.045
20.485,0.040
20.490,0.035
20.495,0.030
20.500,0.025
20.505,0.021
20.510,0.016
20.515,0.012
20.520,0.008
20.525,0.004
20.530,0.001
20.535,-0.003
20.540,-0.006
20.545,-0.009
20.550,-0.012
20.555,-0.015
20.560,-0.018
20.565,-0.021
20.570,-0.023
20.575,-0.025
20.580,-0.028
20.585,-0.030
20.590,-0.032
20.595,-0.034
20.600,-0.035
20.605,-0.037
20.610,-0.039
20.615,-0.040
20.620,-0.041
20.625,-0.042
20.630,-0.044
20.635,-0.045
20.640,-0.046
20.645,-0.047
20.650,-0.047
20.655,-0.048
20.660,-0.049
20.665,-0.049
20.670,-0.050
20.675,-0.050
20.680,-0.050
20.685,-0.096
20.690,-0.419
20.695,-0.590
20.700,-0.153
20.705,0.066
20.710,-0.052
20.715,-0.008
20.720,0.005
20.725,-0.023
20.730,-0.009
20.735,-0.009
20.740,-0.011
20.745,-0.011
20.750,-0.012
20.755,-0.013
20.760,-0.013
20.765,-0.014
20.770,-0.014
20.775,-0.015
20.780,-0.015
20.785,-0.018
20.790,-0.031
20.795,-0.031
20.800,-0.014
20.805,-0.065
20.810,-0.084
20.815,-0.009
20.820,-0.070
20.825,-0.187
20.830,-0.089
20.835,0.006
20.840,-0.146
20.845,-0.152
20.850,0.027
20.855,-0.124
20.860,-0.210
20.865,0.020
20.870,-0.040
20.875,-0.232
20.880,-0.084
20.885,0.027
20.890,-0.225
20.895,-0.210
20.900,0.090
20.905,-0.085
20.910,-0.218
20.915,0.048
20.920,-0.035
20.925,-0.277
20.930,-0.071
20.935,0.068
20.940,-0.356
20.945,-0.448
20.950,-0.050
20.955,-0.369
20.960,-0.693
20.965,-0.120
20.970,-0.066
20.975,-0.562
20.980,-0.198
20.985,0.148
20.990,-0.371
20.995,-0.349
21.000,0.202
21.005,-0.074
21.010,-0.306
21.015,0.196
21.020,0.206
21.025,-0.125
21.030,0.115
21.035,0.312
21.040,-0.001
21.045,-0.013
21.050,0.309
21.055,0.133
21.060,-0.019
21.065,0.255
21.070,0.142
21.075,-0.202
21.080,0.021
21.085,0.223
21.090,-0.250
21.095,-0.312
21.100,0.137
21.105,-0.243
21.110,-0.667
21.115,-0.220
21.120,-0.323
21.125,-0.960
21.130,-0.672
21.135,-0.344
21.140,-0.873
21.145,-0.850
21.150,-0.249
21.155,-0.500
21.160,-0.795
21.165,-0.190
21.170,-0.032
21.175,-0.462
21.180,-0.090
21.185,0.336
21.190,-0.128
21.195,-0.128
21.200,0.465
21.205,0.234
21.210,-0.069
21.215,0.497
21.220,0.657
21.225,0.302
21.230,0.550
21.235,0.754
21.240,0.282
21.245,0.112
21.250,0.242
21.255,-0.523
21.260,-1.062
21.265,0.012
21.270,0.866
21.275,0.683
21.280,0.697
21.285,0.786
21.290,0.696
21.295,0.686
21.300,0.666
21.305,0.632
21.310,0.612
21.315,0.587
21.320,0.563
21.325,0.540
21.330,0.517
21.335,0.495
21.340,0.473
21.345,0.451
21.350,0.431
21.355,0.395
21.360,0.368
21.365,0.372
21.370,0.339
21.375,0.302
21.380,0.314
21.385,0.308
21.390,0.269
21.395,0.252
21.400,0.257
21.405,0.238
21.410,0.217
21.415,0.210
21.420,0.182
21.425,0.150
21.430,0.151
21.435,0.148
21.440,0.031
21.445,0.007
21.450,0.139
21.455,-0.014
21.460,-0.172
21.465,0.035
21.470,-0.028
21.475,-0.395
21.480,-0.229
21.485,0.015
21.490,-0.462
21.495,-0.575
21.500,-0.077
21.505,-0.313
21.510,-0.664
21.515,-0.183
21.520,-0.101
21.525,-0.597
21.530,-0.339
21.535,0.043
21.540,-0.408
21.545,-0.477
21.550,0.040
21.555,-0.187
21.560,-0.534
21.565,-0.059
21.570,0.041
21.575,-0.439
21.580,-0.195
21.585,0.178
21.590,-0.271
21.595,-0.378
21.600,0.078
21.605,-0.206
21.610,-0.594
21.615,-0.143
21.620,-0.075
21.625,-0.614
21.630,-0.415
21.635,-0.072
21.640,-0.546
21.645,-0.628
21.650,-0.106
21.655,-0.330
21.660,-0.698
21.665,-0.219
21.670,-0.117
21.675,-0.652
21.680,-0.441
21.685,-0.078
21.690,-0.561
21.695,-0.687
21.700,-0.226
21.705,-0.506
21.710,-0.915
21.715,-0.470
21.720,-0.394
21.725,-0.944
21.730,-0.736
21.735,-0.441
21.740,-1.072
21.745,-1.241
21.750,-0.809
21.755,-1.185
21.760,-1.617
21.765,-1.166
21.770,-1.012
21.775,-1.454
21.780,-1.201
21.785,-0.752
21.790,-1.192
21.795,-1.340
21.800,-0.869
21.805,-1.176
21.810,-1.687
21.815,-1.423
21.820,-1.405
21.825,-1.696
21.830,-1.542
21.835,-1.385
21.840,-1.341
21.845,-1.220
21.850,-1.132
21.855,-1.046
21.860,-0.956
21.865,-0.874
21.870,-0.792
21.875,-0.714
21.880,-0.638
21.885,-0.565
21.890,-0.495
21.895,-0.427
21.900,-0.362
21.905,-0.299
21.910,-0.239
21.915,-0.181
21.920,-0.125
21.925,-0.072
21.930,-0.021
21.935,0.028
21.940,0.075
21.945,0.119
21.950,0.162
21.955,0.203
21.960,0.241
21.965,0.278
21.970,0.313
21.975,0.346
21.980,0.377
21.985,0.406
21.990,0.434
21.995,0.460
22.000,0.485
22.005,0.508
22.010,0.529
22.015,0.550
22.020,0.568
22.025,0.586
22.030,0.602
22.035,0.616
22.040,0.630
22.045,0.642
22.050,0.653
22.055,0.663
22.060,0.672
22.065,0.680
22.070,0.687
22.075,0.693
22.080,0.697
22.085,0.701
22.090,0.705
22.095,0.707
22.100,0.709
22.105,0.709
22.110,0.709
22.115,0.709
22.120,0.707
22.125,0.705
22.130,0.703
22.135,0.700
22.140,0.696
22.145,0.692
22.150,0.687
22.155,0.682
22.160,0.692
22.165,0.860
22.170,1.016
22.175,1.088
22.180,1.758
22.185,2.360
22.190,2.018
22.195,1.965
22.200,2.338
22.205,2.056
22.210,1.867
22.215,2.444
22.220,2.537
22.225,1.940
22.230,2.102
22.235,2.338
22.240,1.382
22.245,0.670
22.250,0.985
22.255,0.947
22.260,0.585
22.265,1.059
22.270,1.450
22.275,1.020
22.280,1.095
22.285,1.648
22.290,1.502
22.295,1.401
22.300,1.676
22.305,1.199
22.310,0.748
22.315,1.184
22.320,1.308
22.325,0.779
22.330,0.792
22.335,1.172
22.340,0.905
22.345,0.805
22.350,1.268
22.355,1.160
22.360,0.795
22.365,1.041
22.370,1.090
22.375,0.582
22.380,0.465
22.385,0.543
22.390,0.090
22.395,-0.161
22.400,-0.013
22.405,-0.374
22.410,-0.792
22.415,-0.691
22.420,-0.928
22.425,-1.411
22.430,-0.828
22.435,0.156
22.440,0.289
22.445,0.435
22.450,0.952
22.455,0.934
22.460,0.754
22.465,0.976
22.470,1.006
22.475,0.845
22.480,0.800
22.485,0.734
22.490,0.655
22.495,0.593
22.500,0.526
22.505,0.463
22.510,0.403
22.515,0.345
22.520,0.289
22.525,0.235
22.530,0.183
22.535,0.133
22.540,0.085
22.545,0.040
22.550,-0.004
22.555,-0.046
22.560,-0.086
22.565,-0.124
22.570,-0.161
22.575,-0.195
22.580,-0.228
22.585,-0.260
22.590,-0.332
22.595,-0.401
22.600,-0.452
22.605,-0.872
22.610,-1.430
22.615,-1.423
22.620,-1.561
22.625,-2.347
22.630,-2.699
22.635,-2.611
22.640,-3.154
22.645,-3.699
22.650,-3.545
22.655,-3.445
22.660,-3.437
22.665,-3.252
22.670,-3.117
22.675,-2.998
22.680,-2.859
22.685,-2.737
22.690,-2.614
22.695,-2.492
22.700,-2.375
22.705,-2.260
22.710,-2.147
22.715,-2.038
22.720,-1.931
22.725,-1.827
22.730,-1.726
22.735,-1.627
22.740,-1.532
22.745,-1.438
22.750,-1.348
22.755,-1.260
22.760,-1.175
22.765,-1.092
22.770,-1.012
22.775,-0.934
22.780,-0.858
22.785,-0.786
22.790,-0.715
22.795,-0.647
22.800,-0.581
22.805,-0.518
22.810,-0.456
22.815,-0.397
22.820,-0.340
22.825,-0.286
22.830,-0.233
22.835,-0.182
22.840,-0.134
22.845,-0.087
22.850,-0.043
22.855,0.000
22.860,0.041
22.865,0.080
22.870,0.117
22.875,0.153
22.880,0.187
22.885,0.219
22.890,0.250
22.895,0.279
22.900,0.306
22.905,0.332
22.910,0.356
22.915,0.380
22.920,0.402
22.925,0.422
22.930,0.441
22.935,0.459
22.940,0.475
22.945,0.491
22.950,0.505
22.955,0.518
22.960,0.530
22.965,0.541
22.970,0.551
22.975,0.560
22.980,0.689
22.985,0.848
22.990,0.699
22.995,0.546
23.000,0.670
23.005,0.654
23.010,0.547
23.015,0.662
23.020,0.691
23.025,0.555
23.030,0.612
23.035,0.865
23.040,1.072
23.045,1.575
23.050,2.495
23.055,2.707
23.060,2.533
23.065,3.226
23.070,3.675
23.075,3.230
23.080,3.288
23.085,3.621
23.090,3.350
23.095,3.138
23.100,3.106
23.105,2.933
23.110,2.782
23.115,2.657
23.120,2.513
23.125,2.383
23.130,2.257
23.135,2.124
23.140,1.843
23.145,1.648
23.150,1.751
23.155,1.430
23.160,0.794
23.165,0.883
23.170,0.911
23.175,0.038
23.180,-0.221
23.185,0.088
23.190,-0.605
23.195,-1.170
23.200,-0.740
23.205,-1.023
23.210,-1.836
23.215,-1.615
23.220,-1.471
23.225,-2.171
23.230,-2.151
23.235,-1.670
23.240,-2.041
23.245,-2.219
23.250,-1.626
23.255,-1.631
23.260,-2.055
23.265,-1.593
23.270,-1.185
23.275,-1.651
23.280,-1.515
23.285,-0.831
23.290,-1.112
23.295,-1.292
23.300,-0.436
23.305,-0.286
23.310,-0.749
23.315,-0.178
23.320,0.275
23.325,-0.348
23.330,-0.273
23.335,0.458
23.340,0.114
23.345,-0.225
23.350,0.490
23.355,0.560
23.360,-0.007
23.365,0.422
23.370,0.836
23.375,0.284
23.380,0.333
23.385,0.930
23.390,0.634
23.395,0.439
23.400,1.098
23.405,1.127
23.410,0.664
23.415,1.072
23.420,1.384
23.425,0.802
23.430,0.802
23.435,1.382
23.440,1.123
23.445,0.836
23.450,1.260
23.455,1.211
23.460,0.792
23.465,0.972
23.470,1.113
23.475,0.707
23.480,0.641
23.485,0.903
23.490,0.611
23.495,0.413
23.500,0.729
23.505,0.627
23.510,0.322
23.515,0.479
23.520,0.612
23.525,0.470
23.530,0.423
23.535,0.429
23.540,0.360
23.545,0.311
23.550,0.272
23.555,0.223
23.560,0.182
23.565,0.142
23.570,0.103
23.575,0.066
23.580,0.030
23.585,-0.004
23.590,-0.036
23.595,-0.068
23.600,-0.098
23.605,-0.126
23.610,-0.153
23.615,-0.179
23.620,-0.268
23.625,-0.444
23.630,-0.400
23.635,-0.210
23.640,-0.257
23.645,-0.312
23.650,-0.296
23.655,-0.328
23.660,-0.342
23.665,-0.354
23.670,-0.370
23.675,-0.381
23.680,-0.393
23.685,-0.404
23.690,-0.414
23.695,-0.424
23.700,-0.432
23.705,-0.439
23.710,-0.446
23.715,-0.452
23.720,-0.458
23.725,-0.462
23.730,-0.466
23.735,-0.470
23.740,-0.473
23.745,-0.475
23.750,-0.477
23.755,-0.478
23.760,-0.478
23.765,-0.478
23.770,-0.478
23.775,-0.477
23.780,-0.476
23.785,-0.474
23.790,-0.472
23.795,-0.470
23.800,-0.467
23.805,-0.484
23.810,-0.508
23.815,-0.477
23.820,-0.449
23.825,-0.505
23.830,-0.500
23.835,-0.416
23.840,-0.428
23.845,-0.442
23.850,-0.408
23.855,-0.425
23.860,-0.435
23.865,-0.401
23.870,-0.390
23.875,-0.437
23.880,-0.434
23.885,-0.361
23.890,-0.434
23.895,-0.482
23.900,-0.350
23.905,-0.394
23.910,-0.527
23.915,-0.403
23.920,-0.265
23.925,-0.307
23.930,-0.310
23.935,-0.270
23.940,-0.275
23.945,-0.270
23.950,-0.260
23.955,-0.256
23.960,-0.250
23.965,-0.244
23.970,-0.238
23.975,-0.232
23.980,-0.226
23.985,-0.220
23.990,-0.214
23.995,-0.208
24.000,-0.202
24.005,-0.197
24.010,-0.191
24.015,-0.185
24.020,-0.180
24.025,-0.175
24.030,-0.169
24.035,-0.164
24.040,-0.158
24.045,-0.153
24.050,-0.148
24.055,-0.143
24.060,-0.138
24.065,-0.133
24.070,-0.129
24.075,-0.131
24.080,-0.127
24.085,-0.126
24.090,-0.314
24.095,-0.473
24.100,-0.231
24.105,-0.290
24.110,-0.748
24.115,-0.589
24.120,-0.393
24.125,-0.884
24.130,-0.922
24.135,-0.439
24.140,-0.637
24.145,-0.874
24.150,-0.360
24.155,-0.219
24.160,-0.506
24.165,-0.120
24.170,0.251
24.175,-0.046
24.180,-0.013
24.185,0.348
24.190,0.307
24.195,0.238
24.200,0.305
24.205,0.230
24.210,0.049
24.215,-0.101
24.220,-0.304
24.225,-0.442
24.230,-0.022
24.235,0.413
24.240,0.345
24.245,0.300
24.250,0.335
24.255,0.304
24.260,0.300
24.265,0.294
24.270,0.283
24.275,0.276
24.280,0.267
24.285,0.259
24.290,0.251
24.295,0.244
24.300,0.236
24.305,0.228
24.310,0.220
24.315,0.213
24.320,0.205
24.325,0.198
24.330,0.191
24.335,0.184
24.340,0.177
24.345,0.171
24.350,0.164
24.355,0.153
24.360,0.138
24.365,0.137
24.370,0.111
24.375,-0.062
24.380,-0.094
24.385,0.094
24.390,-0.137
24.395,-0.402
24.400,-0.094
24.405,-0.115
24.410,-0.562
24.415,-0.384
24.420,-0.131
24.425,-0.519
24.430,-0.547
24.435,-0.132
24.440,-0.341
24.445,-0.589
24.450,-0.153
24.455,-0.066
24.460,-0.423
24.465,-0.128
24.470,0.263
24.475,-0.009
24.480,0.006
24.485,0.397
24.490,0.299
24.495,0.179
24.500,0.358
24.505,0.373
24.510,0.320
24.515,0.331
24.520,0.313
24.525,0.300
24.530,0.291
24.535,0.279
24.540,0.268
24.545,0.257
24.550,0.247
24.555,0.237
24.560,0.226
24.565,0.216
24.570,0.207
24.575,0.197
24.580,0.188
24.585,0.179
24.590,0.170
24.595,0.162
24.600,0.153
24.605,0.145
24.610,0.137
24.615,0.130
24.620,0.122
24.625,0.115
24.630,0.108
24.635,0.101
24.640,0.088
24.645,0.080
24.650,0.083
24.655,0.076
24.660,0.067
24.665,0.064
24.670,0.054
24.675,0.035
24.680,0.033
24.685,0.048
24.690,-0.004
24.695,-0.037
24.700,0.026
24.705,0.001
24.710,-0.106
24.715,-0.055
24.720,0.025
24.725,-0.127
24.730,-0.147
24.735,0.034
24.740,-0.125
24.745,-0.298
24.750,-0.062
24.755,-0.077
24.760,-0.445
24.765,-0.358
24.770,-0.185
24.775,-0.608
24.780,-0.767
24.785,-0.483
24.790,-0.754
24.795,-1.123
24.800,-0.915
24.805,-1.051
24.810,-1.694
24.815,-1.850
24.820,-1.978
24.825,-2.770
24.830,-2.836
24.835,-1.781
24.840,-1.277
24.845,-1.212
24.850,-0.719
24.855,-0.555
24.860,-0.794
24.865,-0.473
24.870,-0.079
24.875,-0.327
24.880,-0.296
24.885,0.181
24.890,0.094
24.895,-0.094
24.900,0.362
24.905,0.560
24.910,0.273
24.915,0.509
24.920,0.876
24.925,0.604
24.930,0.575
24.935,1.021
24.940,0.901
24.945,0.628
24.950,0.976
24.955,1.051
24.960,0.622
24.965,0.741
24.970,1.026
24.975,0.694
24.980,0.602
24.985,0.939
24.990,0.704
24.995,0.334
25.000,0.591
25.005,0.617
25.010,0.187
25.015,0.276
25.020,0.493
25.025,0.117
25.030,0.016
25.035,0.368
25.040,0.156
25.045,-0.197
25.050,0.064
25.055,0.093
25.060,-0.267
25.065,-0.028
25.070,0.326
25.075,0.007
25.080,-0.058
25.085,0.395
25.090,0.310
25.095,0.041
25.100,0.389
25.105,0.505
25.110,0.145
25.115,0.354
25.120,0.765
25.125,0.536
25.130,0.463
25.135,0.831
25.140,0.694
25.145,0.425
25.150,0.746
25.155,0.755
25.160,0.257
25.165,0.360
25.170,0.670
25.175,0.291
25.180,0.072
25.185,0.386
25.190,0.243
25.195,-0.072
25.200,0.183
25.205,0.188
25.210,-0.261
25.215,-0.140
25.220,0.112
25.225,-0.336
25.230,-0.538
25.235,-0.175
25.240,-0.326
25.245,-0.695
25.250,-0.487
25.255,-0.501
25.260,-0.943
25.265,-0.722
25.270,-0.302
25.275,-0.670
25.280,-0.897
25.285,-0.590
25.290,-0.810
25.295,-1.171
25.300,-0.802
25.305,-0.626
25.310,-1.014
25.315,-0.898
25.320,-0.503
25.325,-0.661
25.330,-0.702
25.335,-0.305
25.340,-0.382
25.345,-0.623
25.350,-0.251
25.355,-0.101
25.360,-0.484
25.365,-0.370
25.370,-0.062
25.375,-0.400
25.380,-0.516
25.385,-0.072
25.390,-0.160
25.395,-0.508
25.400,-0.184
25.405,0.050
25.410,-0.290
25.415,-0.257
25.420,-0.161
25.425,-0.845
25.430,-1.392
25.435,-1.411
25.440,-1.541
25.445,-1.327
25.450,-0.528
25.455,-0.178
25.460,-0.548
25.465,-0.472
25.470,-0.012
25.475,-0.225
25.480,-0.411
25.485,-0.060
25.490,-0.173
25.495,-0.554
25.500,-0.335
25.505,-0.246
25.510,-0.680
25.515,-0.664
25.520,-0.446
25.525,-0.750
25.530,-0.839
25.535,-0.547
25.540,-0.628
25.545,-0.779
25.550,-0.638
25.555,-0.565
25.560,-0.558
25.565,-0.485
25.570,-0.429
25.575,-0.382
25.580,-0.328
25.585,-0.280
25.590,-0.234
25.595,-0.188
25.600,-0.145
25.605,-0.103
25.610,-0.063
25.615,-0.025
25.620,0.011
25.625,0.046
25.630,0.080
25.635,0.112
25.640,0.142
25.645,0.171
25.650,0.198
25.655,0.224
25.660,0.249
25.665,0.273
25.670,0.295
25.675,0.316
25.680,0.335
25.685,0.354
25.690,0.371
25.695,0.387
25.700,0.403
25.705,0.417
25.710,0.430
25.715,0.442
25.720,0.453
25.725,0.463
25.730,0.472
25.735,0.481
25.740,0.488
25.745,0.506
25.750,0.668
25.755,0.776
25.760,0.615
25.765,0.829
25.770,1.278
25.775,1.196
25.780,1.299
25.785,1.822
25.790,1.684
25.795,1.324
25.800,1.725
25.805,1.913
25.810,1.383
25.815,1.359
25.820,1.715
25.825,1.418
25.830,1.192
25.835,1.505
25.840,1.282
25.845,0.798
25.850,1.045
25.855,1.107
25.860,0.464
25.865,0.301
25.870,0.494
25.875,0.053
25.880,-0.264
25.885,0.014
25.890,-0.116
25.895,-0.486
25.900,-0.360
25.905,-0.282
25.910,-0.430
25.915,-0.384
25.920,-0.325
25.925,-0.357
25.930,-0.341
25.935,-0.318
25.940,-0.306
25.945,-0.289
25.950,-0.273
25.955,-0.259
25.960,-0.244
25.965,-0.229
25.970,-0.215
25.975,-0.202
25.980,-0.181
25.985,-0.141
25.990,-0.134
25.995,-0.158
26.000,-0.082
26.005,-0.048
26.010,-0.133
26.015,-0.076
26.020,0.008
26.025,-0.068
26.030,-0.093
26.035,0.005
26.040,-0.004
26.045,-0.093
26.050,-0.071
26.055,-0.045
26.060,-0.054
26.065,0.032
26.070,0.302
26.075,0.525
26.080,0.758
26.085,1.303
26.090,1.473
26.095,1.342
26.100,1.774
26.105,1.999
26.110,1.550
26.115,1.551
26.120,1.829
26.125,1.416
26.130,1.090
26.135,1.318
26.140,1.078
26.145,0.554
26.150,0.667
26.155,0.702
26.160,0.185
26.165,0.153
26.170,0.440
26.175,0.078
26.180,-0.177
26.185,0.152
26.190,0.002
26.195,-0.472
26.200,-0.314
26.205,-0.242
26.210,-0.732
26.215,-0.708
26.220,-0.340
26.225,-0.627
26.230,-0.822
26.235,-0.404
26.240,-0.398
26.245,-0.695
26.250,-0.403
26.255,-0.156
26.260,-0.328
26.265,0.054
26.270,0.759
26.275,0.766
26.280,0.788
26.285,1.383
26.290,1.475
26.295,1.182
26.300,1.525
26.305,1.778
26.310,1.398
26.315,1.478
26.320,1.863
26.325,1.531
26.330,1.301
26.335,1.695
26.340,1.701
26.345,1.431
26.350,1.469
26.355,1.454
26.360,1.311
26.365,1.231
26.370,1.144
26.375,1.051
26.380,0.970
26.385,0.888
26.390,0.808
26.395,0.732
26.400,0.658
26.405,0.587
26.410,0.518
26.415,0.452
26.420,0.387
26.425,0.268
26.430,0.180
26.435,0.206
26.440,0.065
26.445,-0.158
26.450,-0.056
26.455,0.010
26.460,-0.301
26.465,-0.332
26.470,-0.080
26.475,-0.306
26.480,-0.481
26.485,-0.215
26.490,-0.258
26.495,-0.480
26.500,-0.356
26.505,-0.270
26.510,-0.466
26.515,-0.480
26.520,-0.327
26.525,-0.419
26.530,-0.496
26.535,-0.417
26.540,-0.467
26.545,-0.546
26.550,-0.505
26.555,-0.487
26.560,-0.569
26.565,-0.581
26.570,-0.518
26.575,-0.575
26.580,-0.616
26.585,-0.558
26.590,-0.576
26.595,-0.606
26.600,-0.588
26.605,-0.591
26.610,-0.611
26.615,-0.615
26.620,-0.606
26.625,-0.611
26.630,-0.617
26.635,-0.616
26.640,-0.619
26.645,-0.619
26.650,-0.619
26.655,-0.619
26.660,-0.625
26.665,-0.624
26.670,-0.662
26.675,-1.076
26.680,-1.697
26.685,-1.649
26.690,-1.202
26.695,-0.912
26.700,-0.533
26.705,-0.356
26.710,-0.437
26.715,-0.424
26.720,-0.405
26.725,-0.416
26.730,-0.407
26.735,-0.405
26.740,-0.402
26.745,-0.398
26.750,-0.394
26.755,-0.390
26.760,-0.386
26.765,-0.381
26.770,-0.377
26.775,-0.375
26.780,-0.371
26.785,-0.361
26.790,-0.379
26.795,-0.403
26.800,-0.366
26.805,-0.336
26.810,-0.389
26.815,-0.381
26.820,-0.300
26.825,-0.334
26.830,-0.364
26.835,-0.299
26.840,-0.317
26.845,-0.378
26.850,-0.318
26.855,-0.262
26.860,-0.368
26.865,-0.366
26.870,-0.219
26.875,-0.309
26.880,-0.387
26.885,-0.232
26.890,-0.228
26.895,-0.321
26.900,-0.237
26.905,-0.162
26.910,-0.245
26.915,-0.250
26.920,-0.146
26.925,-0.173
26.930,-0.201
26.935,-0.139
26.940,-0.146
26.945,-0.178
26.950,-0.146
26.955,-0.115
26.960,-0.131
26.965,-0.128
26.970,-0.102
26.975,-0.102
26.980,-0.102
26.985,-0.094
26.990,-0.093
26.995,-0.089
27.000,-0.085
27.005,-0.082
27.010,-0.078
27.015,-0.075
27.020,-0.072
27.025,-0.078
27.030,-0.081
27.035,-0.065
27.040,-0.066
27.045,-0.081
27.050,-0.066
27.055,-0.054
27.060,-0.097
27.065,-0.090
27.070,-0.026
27.075,-0.088
27.080,-0.132
27.085,-0.035
27.090,-0.050
27.095,-0.154
27.100,-0.091
27.105,-0.015
27.110,-0.171
27.115,-0.177
27.120,0.020
27.125,-0.139
27.130,-0.293
27.135,-0.044
27.140,-0.051
27.145,-0.340
27.150,-0.188
27.155,0.016
27.160,-0.322
27.165,-0.387
27.170,-0.033
27.175,-0.247
27.180,-0.525
27.185,-0.149
27.190,-0.078
27.195,-0.440
27.200,-0.210
27.205,0.088
27.210,-0.259
27.215,-0.278
27.220,0.149
27.225,-0.031
27.230,-0.294
27.235,0.077
27.240,0.131
27.245,-0.255
27.250,-0.061
27.255,0.218
27.260,-0.134
27.265,-0.171
27.270,0.228
27.275,0.043
27.280,-0.213
27.285,0.115
27.290,0.043
27.295,-0.550
27.300,-0.638
27.305,-0.779
27.310,-1.670
27.315,-1.763
27.320,-0.679
27.325,-0.197
27.330,-0.161
27.335,0.302
27.340,0.381
27.345,0.036
27.350,0.272
27.355,0.565
27.360,0.193
27.365,0.125
27.370,0.515
27.375,0.307
27.380,-0.001
27.385,0.350
27.390,0.397
27.395,-0.028
27.400,0.143
27.405,0.423
27.410,0.052
27.415,-0.019
27.420,0.373
27.425,0.172
27.430,-0.137
27.435,0.217
27.440,0.280
27.445,-0.132
27.450,0.042
27.455,0.321
27.460,-0.058
27.465,-0.144
27.470,0.252
27.475,0.060
27.480,-0.249
27.485,0.111
27.490,0.175
27.495,-0.247
27.500,-0.085
27.505,0.194
27.510,-0.185
27.515,-0.276
27.520,0.119
27.525,-0.065
27.530,-0.374
27.535,-0.026
27.540,0.047
27.545,-0.358
27.550,-0.183
27.555,0.125
27.560,-0.222
27.565,-0.288
27.570,0.138
27.575,-0.012
27.580,-0.287
27.585,0.100
27.590,0.209
27.595,-0.179
27.600,0.006
27.605,0.326
27.610,-0.022
27.615,-0.096
27.620,0.317
27.625,0.145
27.630,-0.164
27.635,0.187
27.640,0.265
27.645,-0.149
27.650,0.014
27.655,0.317
27.660,-0.040
27.665,-0.137
27.670,0.259
27.675,0.095
27.680,-0.211
27.685,0.136
27.690,0.218
27.695,-0.196
27.700,-0.033
27.705,0.278
27.710,-0.075
27.715,-0.164
27.720,0.241
27.725,0.070
27.730,-0.243
27.735,0.103
27.740,0.189
27.745,-0.214
27.750,-0.046
27.755,0.266
27.760,-0.081
27.765,-0.169
27.770,0.242
27.775,0.081
27.780,-0.237
27.785,0.107
27.790,0.207
27.795,-0.191
27.800,-0.037
27.805,0.264
27.810,-0.102
27.815,-0.227
27.820,0.165
27.825,0.019
27.830,-0.289
27.835,0.062
27.840,0.180
27.845,-0.207
27.850,-0.044
27.855,0.285
27.860,-0.044
27.865,-0.133
27.870,0.280
27.875,0.132
27.880,-0.172
27.885,0.176
27.890,0.270
27.895,-0.149
27.900,-0.013
27.905,0.297
27.910,-0.049
27.915,-0.161
27.920,0.247
27.925,0.121
27.930,-0.198
27.935,0.058
27.940,0.009
27.945,-0.622
27.950,-0.798
27.955,-0.962
27.960,-1.726
27.965,-1.574
27.970,-0.377
27.975,0.027
27.980,-0.081
27.985,0.318
27.990,0.453
27.995,0.109
28.000,0.285
28.005,0.620
28.010,0.293
28.015,0.174
28.020,0.577
28.025,0.436
28.030,0.101
28.035,0.427
28.040,0.535
28.045,0.119
28.050,0.252
28.055,0.574
28.060,0.223
28.065,0.089
28.070,0.488
28.075,0.341
28.080,0.005
28.085,0.336
28.090,0.446
28.095,0.025
28.100,0.147
28.105,0.466
28.110,0.114
28.115,-0.019
28.120,0.381
28.125,0.235
28.130,-0.105
28.135,0.217
28.140,0.327
28.145,-0.102
28.150,0.004
28.155,0.316
28.160,-0.043
28.165,-0.193
28.170,0.203
28.175,0.064
28.180,-0.276
28.185,0.047
28.190,0.164
28.195,-0.253
28.200,-0.128
28.205,0.208
28.210,-0.116
28.215,-0.225
28.220,0.208
28.225,0.106
28.230,-0.204
28.235,0.148
28.240,0.301
28.245,-0.092
28.250,0.042
28.255,0.388
28.260,0.064
28.265,-0.067
28.270,0.352
28.275,0.238
28.280,-0.102
28.285,0.221
28.290,0.351
28.295,-0.072
28.300,0.036
28.305,0.368
28.310,0.033
28.315,-0.115
28.320,0.289
28.325,0.168
28.330,-0.187
28.335,0.129
28.340,0.262
28.345,-0.161
28.350,-0.052
28.355,0.296
28.360,-0.016
28.365,-0.163
28.370,0.231
28.375,0.115
28.380,-0.222
28.385,0.097
28.390,0.235
28.395,-0.179
28.400,-0.076
28.405,0.261
28.410,-0.066
28.415,-0.213
28.420,0.202
28.425,0.087
28.430,-0.268
28.435,0.055
28.440,0.211
28.445,-0.205
28.450,-0.121
28.455,0.207
28.460,-0.128
28.465,-0.285
28.470,0.137
28.475,0.037
28.480,-0.337
28.485,-0.063
28.490,0.061
28.495,-0.373
28.500,-0.281
28.505,0.078
28.510,-0.232
28.515,-0.356
28.520,0.086
28.525,-0.015
28.530,-0.378
28.535,-0.055
28.540,0.117
28.545,-0.327
28.550,-0.300
28.555,0.005
28.560,-0.353
28.565,-0.590
28.570,-0.279
28.575,-0.478
28.580,-0.943
28.585,-0.748
28.590,-0.687
28.595,-1.190
28.600,-1.160
28.605,-0.834
28.610,-1.245
28.615,-1.579
28.620,-1.352
28.625,-1.433
28.630,-1.588
28.635,-1.429
28.640,-1.339
28.645,-1.287
28.650,-1.174
28.655,-1.087
28.660,-1.041
28.665,-0.962
28.670,-0.779
28.675,-0.724
28.680,-0.774
28.685,-0.481
28.690,-0.296
28.695,-0.539
28.700,-0.344
28.705,0.092
28.710,-0.095
28.715,-0.164
28.720,0.343
28.725,0.353
28.730,0.046
28.735,0.418
28.740,0.660
28.745,0.255
28.750,0.324
28.755,0.687
28.760,0.363
28.765,0.159
28.770,0.566
28.775,0.473
28.780,0.068
28.785,0.341
28.790,0.508
28.795,0.086
28.800,0.157
28.805,0.534
28.810,0.238
28.815,0.012
28.820,0.387
28.825,0.337
28.830,-0.020
28.835,0.276
28.840,0.479
28.845,0.089
28.850,0.181
28.855,0.577
28.860,0.302
28.865,0.122
28.870,0.545
28.875,0.492
28.880,0.122
28.885,0.434
28.890,0.669
28.895,0.322
28.900,0.464
28.905,0.909
28.910,0.681
28.915,0.579
28.920,1.153
28.925,1.324
28.930,1.082
28.935,1.301
28.940,1.366
28.945,0.877
28.950,0.902
28.955,1.274
28.960,0.987
28.965,0.776
28.970,1.151
28.975,1.052
28.980,0.650
28.985,0.935
28.990,1.150
28.995,0.770
29.000,0.854
29.005,1.237
29.010,0.896
29.015,0.610
29.020,0.935
29.025,0.792
29.030,0.309
29.035,0.480
29.040,0.626
29.045,0.211
29.050,0.256
29.055,0.629
29.060,0.350
29.065,0.176
29.070,0.649
29.075,0.692
29.080,0.403
29.085,0.703
29.090,0.813
29.095,0.309
29.100,0.300
29.105,0.620
29.110,0.343
29.115,0.174
29.120,0.612
29.125,0.600
29.130,0.194
29.135,0.407
29.140,0.566
29.145,0.133
29.150,0.159
29.155,0.513
29.160,0.216
29.165,-0.009
29.170,0.358
29.175,0.280
29.180,-0.124
29.185,0.114
29.190,0.295
29.195,-0.115
29.200,-0.099
29.205,0.213
29.210,-0.104
29.215,-0.343
29.220,0.001
29.225,-0.065
29.230,-0.460
29.235,-0.266
29.240,-0.130
29.245,-0.533
29.250,-0.495
29.255,-0.136
29.260,-0.382
29.265,-0.554
29.270,-0.152
29.275,-0.157
29.280,-0.434
29.285,-0.111
29.290,0.044
29.295,-0.472
29.300,-0.667
29.305,-0.630
29.310,-1.308
29.315,-1.827
29.320,-1.117
29.325,-0.371
29.330,-0.226
29.335,0.193
29.340,0.390
29.345,-0.021
29.350,0.042
29.355,0.426
29.360,0.213
29.365,0.037
29.370,0.396
29.375,0.362
29.380,0.001
29.385,0.222
29.390,0.413
29.395,0.036
29.400,0.040
29.405,0.365
29.410,0.069
29.415,-0.193
29.420,0.110
29.425,-0.015
29.430,-0.453
29.435,-0.227
29.440,-0.028
29.445,-0.459
29.450,-0.509
29.455,-0.199
29.460,-0.507
29.465,-0.776
29.470,-0.419
29.475,-0.442
29.480,-0.826
29.485,-0.609
29.490,-0.386
29.495,-0.732
29.500,-0.726
29.505,-0.405
29.510,-0.649
29.515,-0.843
29.520,-0.482
29.525,-0.525
29.530,-0.892
29.535,-0.605
29.540,-0.294
29.545,-0.541
29.550,-0.389
29.555,0.095
29.560,-0.034
29.565,-0.151
29.570,0.316
29.575,0.416
29.580,0.166
29.585,0.479
29.590,0.748
29.595,0.437
29.600,0.479
29.605,0.824
29.610,0.554
29.615,0.287
29.620,0.599
29.625,0.549
29.630,0.133
29.635,0.285
29.640,0.427
29.645,0.003
29.650,-0.053
29.655,0.246
29.660,-0.017
29.665,-0.284
29.670,-0.002
29.675,-0.067
29.680,-0.483
29.685,-0.319
29.690,-0.128
29.695,-0.489
29.700,-0.485
29.705,-0.143
29.710,-0.377
29.715,-0.580
29.720,-0.193
29.725,-0.157
29.730,-0.496
29.735,-0.295
29.740,-0.097
29.745,-0.478
29.750,-0.548
29.755,-0.278
29.760,-0.541
29.765,-0.806
29.770,-0.495
29.775,-0.512
29.780,-0.948
29.785,-0.844
29.790,-0.668
29.795,-1.005
29.800,-1.029
29.805,-0.756
29.810,-1.045
29.815,-1.347
29.820,-1.043
29.825,-0.998
29.830,-1.282
29.835,-1.036
29.840,-0.832
29.845,-1.115
29.850,-1.150
29.855,-0.966
29.860,-0.950
29.865,-0.944
29.870,-0.864
29.875,-0.803
29.880,-0.752
29.885,-0.692
29.890,-0.639
29.895,-0.587
29.900,-0.536
29.905,-0.487
29.910,-0.440
29.915,-0.394
29.920,-0.350
29.925,-0.308
29.930,-0.267
29.935,-0.227
29.940,-0.189
29.945,-0.153
29.950,-0.118
29.955,-0.084
29.960,-0.052
29.965,-0.021
29.970,0.012
29.975,0.041
29.980,0.063
29.985,0.089
29.990,0.115
29.995,0.137
30.000,0.160
30.005,0.216
30.010,0.303
30.015,0.575
30.020,1.118
30.025,1.309
30.030,1.160
30.035,1.552
30.040,1.975
30.045,1.754
30.050,1.841
30.055,2.333
30.060,2.205
30.065,1.983
30.070,2.384
30.075,2.441
30.080,2.023
30.085,2.183
30.090,2.404
30.095,1.950
30.100,1.784
30.105,2.049
30.110,1.735
30.115,1.343
30.120,1.566
30.125,1.452
30.130,0.883
30.135,0.918
30.140,1.083
30.145,0.676
30.150,0.639
30.155,1.074
30.160,0.962
30.165,0.769
30.170,1.123
30.175,1.107
30.180,0.647
30.185,0.752
30.190,0.893
30.195,0.376
30.200,0.156
30.205,0.364
30.210,0.039
30.215,-0.304
30.220,0.008
30.225,0.018
30.230,-0.419
30.235,-0.291
30.240,-0.066
30.245,-0.462
30.250,-0.575
30.255,-0.259
30.260,-0.486
30.265,-0.780
30.270,-0.486
30.275,-0.526
30.280,-0.984
30.285,-0.839
30.290,-0.622
30.295,-1.021
30.300,-1.078
30.305,-0.677
30.310,-0.820
30.315,-1.047
30.320,-0.679
30.325,-0.600
30.330,-0.931
30.335,-0.690
30.340,-0.332
30.345,-0.561
30.350,-0.505
30.355,-0.023
30.360,-0.097
30.365,-0.294
30.370,0.085
30.375,0.196
30.380,-0.099
30.385,0.133
30.390,0.414
30.395,0.070
30.400,-0.005
30.405,0.352
30.410,0.177
30.415,-0.098
30.420,0.230
30.425,0.297
30.430,-0.063
30.435,0.111
30.440,0.381
30.445,0.065
30.450,0.035
30.455,0.443
30.460,0.317
30.465,0.094
30.470,0.475
30.475,0.587
30.480,0.252
30.485,0.442
30.490,0.746
30.495,0.442
30.500,0.381
30.505,0.742
30.510,0.557
30.515,0.243
30.520,0.502
30.525,0.503
30.530,0.069
30.535,0.141
30.540,0.324
30.545,-0.091
30.550,-0.276
30.555,-0.013
30.560,-0.235
30.565,-0.570
30.570,-0.296
30.575,-0.236
30.580,-0.632
30.585,-0.497
30.590,-0.187
30.595,-0.484
30.600,-0.564
30.605,-0.212
30.610,-0.398
30.615,-0.695
30.620,-0.404
30.625,-0.388
30.630,-0.812
30.635,-0.705
30.640,-0.475
30.645,-0.831
30.650,-0.951
30.655,-0.652
30.660,-0.835
30.665,-1.123
30.670,-0.894
30.675,-0.975
30.680,-1.572
30.685,-1.759
30.690,-1.889
30.695,-2.364
30.700,-2.273
30.705,-1.588
30.710,-1.185
30.715,-1.022
30.720,-0.575
30.725,-0.382
30.730,-0.610
30.735,-0.373
30.740,-0.055
30.745,-0.346
30.750,-0.423
30.755,-0.061
30.760,-0.191
30.765,-0.465
30.770,-0.165
30.775,-0.074
30.780,-0.434
30.785,-0.295
30.790,0.003
30.795,-0.269
30.800,-0.317
30.805,0.085
30.810,0.004
30.815,-0.211
30.820,0.179
30.825,0.374
30.830,0.128
30.835,0.390
30.840,0.799
30.845,0.609
30.850,0.605
30.855,1.041
30.860,0.987
30.865,0.774
30.870,1.142
30.875,1.301
30.880,0.975
30.885,1.111
30.890,1.411
30.895,1.123
30.900,1.016
30.905,1.357
30.910,1.214
30.915,0.899
30.920,1.174
30.925,1.271
30.930,0.883
30.935,0.961
30.940,1.220
30.945,0.891
30.950,0.763
30.955,1.111
30.960,0.976
30.965,0.686
30.970,0.963
30.975,1.029
30.980,0.656
30.985,0.737
30.990,0.961
30.995,0.664
31.000,0.544
31.005,0.803
31.010,0.674
31.015,0.446
31.020,0.602
31.025,0.609
31.030,0.348
31.035,0.381
31.040,0.521
31.045,0.271
31.050,0.152
31.055,0.374
31.060,0.232
31.065,-0.022
31.070,0.172
31.075,0.199
31.080,-0.156
31.085,-0.084
31.090,0.153
31.095,-0.170
31.100,-0.322
31.105,-0.004
31.110,-0.143
31.115,-0.459
31.120,-0.197
31.125,-0.106
31.130,-0.494
31.135,-0.411
31.140,-0.124
31.145,-0.427
31.150,-0.566
31.155,-0.234
31.160,-0.361
31.165,-0.671
31.170,-0.411
31.175,-0.320
31.180,-0.690
31.185,-0.585
31.190,-0.310
31.195,-0.640
31.200,-0.789
31.205,-0.442
31.210,-0.547
31.215,-0.839
31.220,-0.558
31.225,-0.443
31.230,-0.812
31.235,-0.730
31.240,-0.443
31.245,-0.714
31.250,-0.818
31.255,-0.450
31.260,-0.526
31.265,-0.787
31.270,-0.466
31.275,-0.308
31.280,-0.625
31.285,-0.489
31.290,-0.169
31.295,-0.432
31.300,-0.524
31.305,-0.139
31.310,-0.222
31.315,-0.502
31.320,-0.196
31.325,-0.053
31.330,-0.393
31.335,-0.277
31.340,0.044
31.345,-0.179
31.350,-0.262
31.355,0.037
31.360,-0.203
31.365,-0.727
31.370,-0.770
31.375,-1.080
31.380,-1.886
31.385,-1.667
31.390,-0.606
31.395,-0.246
31.400,-0.083
31.405,0.351
31.410,0.259
31.415,0.006
31.420,0.318
31.425,0.460
31.430,0.112
31.435,0.190
31.440,0.466
31.445,0.170
31.450,0.020
31.455,0.353
31.460,0.249
31.465,-0.068
31.470,0.174
31.475,0.277
31.480,-0.106
31.485,-0.046
31.490,0.248
31.495,-0.034
31.500,-0.195
31.505,0.142
31.510,0.052
31.515,-0.266
31.520,-0.018
31.525,0.103
31.530,-0.257
31.535,-0.177
31.540,0.114
31.545,-0.174
31.550,-0.330
31.555,0.000
31.560,-0.103
31.565,-0.431
31.570,-0.184
31.575,-0.061
31.580,-0.437
31.585,-0.383
31.590,-0.097
31.595,-0.364
31.600,-0.502
31.605,-0.147
31.610,-0.204
31.615,-0.496
31.620,-0.214
31.625,-0.038
31.630,-0.355
31.635,-0.244
31.640,0.091
31.645,-0.143
31.650,-0.249
31.655,0.141
31.660,0.097
31.665,-0.192
31.670,0.090
31.675,0.250
31.680,-0.105
31.685,-0.042
31.690,0.252
31.695,-0.031
31.700,-0.200
31.705,0.140
31.710,0.065
31.715,-0.258
31.720,-0.008
31.725,0.139
31.730,-0.221
31.735,-0.153
31.740,0.174
31.745,-0.081
31.750,-0.244
31.755,0.095
31.760,0.027
31.765,-0.272
31.770,0.005
31.775,0.173
31.780,-0.177
31.785,-0.112
31.790,0.213
31.795,-0.033
31.800,-0.193
31.805,0.149
31.810,0.076
31.815,-0.241
31.820,0.022
31.825,0.189
31.830,-0.160
31.835,-0.115
31.840,0.194
31.845,-0.057
31.850,-0.216
31.855,0.148
31.860,0.116
31.865,-0.168
31.870,0.126
31.875,0.310
31.880,-0.037
31.885,0.019
31.890,0.329
31.895,0.072
31.900,-0.097
31.905,0.234
31.910,0.139
31.915,-0.242
31.920,-0.048
31.925,0.071
31.930,-0.313
31.935,-0.276
31.940,0.034
31.945,-0.201
31.950,-0.331
31.955,0.051
31.960,0.022
31.965,-0.289
31.970,-0.046
31.975,0.125
31.980,-0.223
31.985,-0.193
31.990,0.102
31.995,-0.153
32.000,-0.330
32.005,-0.003
32.010,-0.080
32.015,-0.423
32.020,-0.210
32.025,-0.086
32.030,-0.470
32.035,-0.425
32.040,-0.095
32.045,-0.397
32.050,-0.694
32.055,-0.529
32.060,-0.847
32.065,-1.605
32.070,-1.869
32.075,-1.689
32.080,-1.335
32.085,-0.561
32.090,0.143
32.095,0.049
32.100,-0.046
32.105,0.403
32.110,0.454
32.115,0.188
32.120,0.458
32.125,0.649
32.130,0.306
32.135,0.335
32.140,0.641
32.145,0.389
32.150,0.193
32.155,0.517
32.160,0.485
32.165,0.167
32.170,0.374
32.175,0.534
32.180,0.191
32.185,0.226
32.190,0.566
32.195,0.354
32.200,0.167
32.205,0.491
32.210,0.454
32.215,0.123
32.220,0.334
32.225,0.488
32.230,0.121
32.235,0.130
32.240,0.440
32.245,0.177
32.250,-0.058
32.255,0.247
32.260,0.183
32.265,-0.202
32.270,-0.039
32.275,0.113
32.280,-0.258
32.285,-0.283
32.290,0.021
32.295,-0.208
32.300,-0.435
32.305,-0.136
32.310,-0.176
32.315,-0.527
32.320,-0.331
32.325,-0.156
32.330,-0.500
32.335,-0.486
32.340,-0.161
32.345,-0.357
32.350,-0.515
32.355,-0.157
32.360,-0.143
32.365,-0.438
32.370,-0.197
32.375,0.032
32.380,-0.257
32.385,-0.197
32.390,0.184
32.395,0.038
32.400,-0.101
32.405,0.273
32.410,0.332
32.415,0.085
32.420,0.356
32.425,0.606
32.430,0.315
32.435,0.355
32.440,0.726
32.445,0.544
32.450,0.353
32.455,0.707
32.460,0.727
32.465,0.392
32.470,0.588
32.475,0.799
32.480,0.468
32.485,0.477
32.490,0.829
32.495,0.640
32.500,0.445
32.505,0.770
32.510,0.747
32.515,0.404
32.520,0.612
32.525,0.825
32.530,0.475
32.535,0.445
32.540,0.776
32.545,0.549
32.550,0.290
32.555,0.585
32.560,0.534
32.565,0.122
32.570,0.271
32.575,0.428
32.580,-0.005
32.585,-0.135
32.590,0.092
32.595,-0.210
32.600,-0.523
32.605,-0.260
32.610,-0.303
32.615,-0.706
32.620,-0.563
32.625,-0.385
32.630,-0.747
32.635,-0.776
32.640,-0.446
32.645,-0.665
32.650,-0.900
32.655,-0.553
32.660,-0.549
32.665,-0.938
32.670,-0.746
32.675,-0.510
32.680,-0.826
32.685,-0.775
32.690,-0.369
32.695,-0.550
32.700,-0.756
32.705,-0.373
32.710,-0.315
32.715,-0.607
32.720,-0.320
32.725,-0.029
32.730,-0.313
32.735,-0.238
32.740,0.217
32.745,0.117
32.750,-0.012
32.755,0.455
32.760,0.595
32.765,0.253
32.770,0.391
32.775,0.521
32.780,-0.034
32.785,-0.400
32.790,-0.408
32.795,-0.467
32.800,0.051
32.805,1.092
32.810,1.481
32.815,1.253
32.820,1.484
32.825,1.795
32.830,1.503
32.835,1.491
32.840,1.849
32.845,1.613
32.850,1.292
32.855,1.520
32.860,1.445
32.865,1.013
32.870,1.143
32.875,1.336
32.880,0.945
32.885,0.852
32.890,1.158
32.895,0.906
32.900,0.588
32.905,0.857
32.910,0.805
32.915,0.361
32.920,0.481
32.925,0.645
32.930,0.211
32.935,0.070
32.940,0.324
32.945,0.063
32.950,-0.221
32.955,0.090
32.960,0.121
32.965,-0.228
32.970,-0.029
32.975,0.244
32.980,-0.054
32.985,-0.066
32.990,0.294
32.995,0.113
33.000,-0.127
33.005,0.184
33.010,0.178
33.015,-0.214
33.020,-0.038
33.025,0.197
33.030,-0.169
33.035,-0.217
33.040,0.155
33.045,-0.031
33.050,-0.296
33.055,0.038
33.060,0.093
33.065,-0.261
33.070,-0.040
33.075,0.309
33.080,0.052
33.085,0.006
33.090,0.354
33.095,0.189
33.100,-0.056
33.105,0.293
33.110,0.339
33.115,-0.067
33.120,0.088
33.125,0.317
33.130,-0.060
33.135,-0.129
33.140,0.219
33.145,0.003
33.150,-0.309
33.155,-0.003
33.160,0.051
33.165,-0.334
33.170,-0.211
33.175,-0.017
33.180,-0.431
33.185,-0.555
33.190,-0.240
33.195,-0.486
33.200,-0.818
33.205,-0.539
33.210,-0.533
33.215,-0.926
33.220,-0.756
33.225,-0.475
33.230,-0.776
33.235,-0.788
33.240,-0.371
33.245,-0.526
33.250,-0.792
33.255,-0.415
33.260,-0.297
33.265,-0.615
33.270,-0.383
33.275,-0.100
33.280,-0.449
33.285,-0.487
33.290,-0.082
33.295,-0.220
33.300,-0.475
33.305,-0.126
33.310,-0.014
33.315,-0.346
33.320,-0.163
33.325,0.124
33.330,-0.192
33.335,-0.251
33.340,0.120
33.345,-0.055
33.350,-0.324
33.355,0.055
33.360,0.161
33.365,-0.240
33.370,-0.136
33.375,0.061
33.380,-0.345
33.385,-0.457
33.390,-0.107
33.395,-0.309
33.400,-0.643
33.405,-0.356
33.410,-0.324
33.415,-0.737
33.420,-0.581
33.425,-0.269
33.430,-0.571
33.435,-0.644
33.440,-0.284
33.445,-0.460
33.450,-0.719
33.455,-0.365
33.460,-0.306
33.465,-0.680
33.470,-0.496
33.475,-0.213
33.480,-0.554
33.485,-0.621
33.490,-0.218
33.495,-0.419
33.500,-0.842
33.505,-0.740
33.510,-0.986
33.515,-1.783
33.520,-2.029
33.525,-1.616
33.530,-1.248
33.535,-0.691
33.540,0.081
33.545,0.123
33.550,-0.076
33.555,0.377
33.560,0.593
33.565,0.303
33.570,0.480
33.575,0.783
33.580,0.503
33.585,0.444
33.590,0.807
33.595,0.646
33.600,0.341
33.605,0.606
33.610,0.630
33.615,0.221
33.620,0.325
33.625,0.546
33.630,0.153
33.635,0.005
33.640,0.351
33.645,0.206
33.650,-0.084
33.655,0.241
33.660,0.343
33.665,-0.034
33.670,0.107
33.675,0.411
33.680,0.117
33.685,0.046
33.690,0.442
33.695,0.335
33.700,0.083
33.705,0.433
33.710,0.557
33.715,0.204
33.720,0.342
33.725,0.618
33.730,0.289
33.735,0.180
33.740,0.541
33.745,0.384
33.750,0.047
33.755,0.314
33.760,0.364
33.765,-0.066
33.770,0.019
33.775,0.265
33.780,-0.096
33.785,-0.235
33.790,0.119
33.795,-0.027
33.800,-0.334
33.805,-0.023
33.810,0.092
33.815,-0.259
33.820,-0.091
33.825,0.259
33.830,0.007
33.835,-0.043
33.840,0.373
33.845,0.298
33.850,0.073
33.855,0.422
33.860,0.528
33.865,0.146
33.870,0.238
33.875,0.471
33.880,0.111
33.885,-0.012
33.890,0.365
33.895,0.246
33.900,-0.053
33.905,0.247
33.910,0.344
33.915,-0.042
33.920,0.062
33.925,0.332
33.930,-0.001
33.935,-0.136
33.940,0.208
33.945,0.042
33.950,-0.322
33.955,-0.078
33.960,-0.026
33.965,-0.452
33.970,-0.356
33.975,-0.076
33.980,-0.400
33.985,-0.537
33.990,-0.170
33.995,-0.249
34.000,-0.524
34.005,-0.209
34.010,-0.071
34.015,-0.425
34.020,-0.297
34.025,0.010
34.030,-0.278
34.035,-0.380
34.040,-0.003
34.045,-0.105
34.050,-0.359
34.055,0.006
34.060,0.135
34.065,-0.244
34.070,-0.128
34.075,0.169
34.080,-0.107
34.085,-0.167
34.090,0.244
34.095,0.150
34.100,-0.135
34.105,0.181
34.110,0.332
34.115,0.001
34.120,0.133
34.125,0.472
34.130,0.220
34.135,0.118
34.140,0.496
34.145,0.393
34.150,0.097
34.155,0.403
34.160,0.523
34.165,0.150
34.170,0.259
34.175,0.561
34.180,0.304
34.185,0.247
34.190,0.614
34.195,0.407
34.200,-0.096
34.205,-0.135
34.210,-0.450
34.215,-1.285
34.220,-1.277
34.225,-0.431
34.230,-0.065
34.235,0.180
34.240,0.682
34.245,0.588
34.250,0.304
34.255,0.647
34.260,0.788
34.265,0.398
34.270,0.474
34.275,0.767
34.280,0.477
34.285,0.322
34.290,0.631
34.295,0.470
34.300,0.111
34.305,0.359
34.310,0.452
34.315,0.037
34.320,0.093
34.325,0.382
34.330,0.082
34.335,-0.073
34.340,0.266
34.345,0.147
34.350,-0.184
34.355,0.086
34.360,0.216
34.365,-0.172
34.370,-0.117
34.375,0.153
34.380,-0.184
34.385,-0.348
34.390,0.022
34.395,-0.095
34.400,-0.458
34.405,-0.237
34.410,-0.144
34.415,-0.531
34.420,-0.470
34.425,-0.184
34.430,-0.480
34.435,-0.628
34.440,-0.271
34.445,-0.368
34.450,-0.691
34.455,-0.399
34.460,-0.237
34.465,-0.610
34.470,-0.519
34.475,-0.168
34.480,-0.417
34.485,-0.537
34.490,-0.137
34.495,-0.171
34.500,-0.447
34.505,-0.148
34.510,0.016
34.515,-0.331
34.520,-0.234
34.525,0.091
34.530,-0.175
34.535,-0.313
34.540,0.045
34.545,-0.038
34.550,-0.330
34.555,-0.034
34.560,0.106
34.565,-0.252
34.570,-0.145
34.575,0.193
34.580,-0.063
34.585,-0.198
34.590,0.165
34.595,0.092
34.600,-0.186
34.605,0.136
34.610,0.314
34.615,-0.021
34.620,0.097
34.625,0.446
34.630,0.177
34.635,0.031
34.640,0.419
34.645,0.354
34.650,0.024
34.655,0.291
34.660,0.448
34.665,0.076
34.670,0.132
34.675,0.432
34.680,0.127
34.685,-0.066
34.690,0.269
34.695,0.181
34.700,-0.146
34.705,0.111
34.710,0.248
34.715,-0.138
34.720,-0.081
34.725,0.221
34.730,-0.091
34.735,-0.270
34.740,0.097
34.745,0.027
34.750,-0.305
34.755,-0.052
34.760,0.077
34.765,-0.324
34.770,-0.274
34.775,0.044
34.780,-0.221
34.785,-0.359
34.790,0.017
34.795,-0.057
34.800,-0.381
34.805,-0.090
34.810,0.097
34.815,-0.267
34.820,-0.207
34.825,0.124
34.830,-0.127
34.835,-0.274
34.840,0.087
34.845,0.017
34.850,-0.297
34.855,-0.029
34.860,0.146
34.865,-0.172
34.870,-0.050
34.875,0.279
34.880,-0.091
34.885,-0.452
34.890,-0.377
34.895,-0.822
34.900,-1.647
34.905,-1.703
34.910,-1.142
34.915,-0.718
34.920,-0.149
34.925,0.393
34.930,0.179
34.935,0.028
34.940,0.460
34.945,0.420
34.950,0.079
34.955,0.339
34.960,0.490
34.965,0.098
34.970,0.126
34.975,0.438
34.980,0.173
34.985,-0.010
34.990,0.340
34.995,0.279
35.000,-0.071
35.005,0.163
35.010,0.326
35.015,-0.051
35.020,-0.012
35.025,0.323
35.030,0.067
35.035,-0.114
35.040,0.251
35.045,0.208
35.050,-0.136
35.055,0.106
35.060,0.279
35.065,-0.074
35.070,0.000
35.075,0.358
35.080,0.123
35.085,-0.047
35.090,0.328
35.095,0.304
35.100,-0.020
35.105,0.232
35.110,0.417
35.115,0.060
35.120,0.109
35.125,0.457
35.130,0.216
35.135,0.036
35.140,0.403
35.145,0.369
35.150,0.042
35.155,0.299
35.160,0.483
35.165,0.129
35.170,0.186
35.175,0.538
35.180,0.301
35.185,0.124
35.190,0.482
35.195,0.435
35.200,0.087
35.205,0.310
35.210,0.464
35.215,0.086
35.220,0.095
35.225,0.393
35.230,0.111
35.235,-0.119
35.240,0.193
35.245,0.111
35.250,-0.270
35.255,-0.068
35.260,0.076
35.265,-0.338
35.270,-0.380
35.275,-0.116
35.280,-0.416
35.285,-0.636
35.290,-0.295
35.295,-0.343
35.300,-0.684
35.305,-0.436
35.310,-0.234
35.315,-0.572
35.320,-0.508
35.325,-0.131
35.330,-0.339
35.335,-0.494
35.340,-0.092
35.345,-0.078
35.350,-0.379
35.355,-0.104
35.360,0.127
35.365,-0.189
35.370,-0.120
35.375,0.251
35.380,0.034
35.385,-0.130
35.390,0.253
35.395,0.238
35.400,-0.096
35.405,0.140
35.410,0.336
35.415,0.004
35.420,0.050
35.425,0.379
35.430,0.125
35.435,-0.091
35.440,0.238
35.445,0.206
35.450,-0.133
35.455,0.090
35.460,0.287
35.465,-0.049
35.470,-0.022
35.475,0.317
35.480,0.089
35.485,-0.106
35.490,0.248
35.495,0.220
35.500,-0.135
35.505,0.076
35.510,0.260
35.515,-0.098
35.520,-0.090
35.525,0.242
35.530,0.007
35.535,-0.205
35.540,0.135
35.545,0.134
35.550,-0.170
35.555,0.012
35.560,0.065
35.565,-0.493
35.570,-0.781
35.575,-0.874
35.580,-1.627
35.585,-2.000
35.590,-1.117
35.595,-0.406
35.600,-0.329
35.605,0.027
35.610,0.257
35.615,-0.030
35.620,0.046
35.625,0.412
35.630,0.202
35.635,0.000
35.640,0.332
35.645,0.310
35.650,-0.040
35.655,0.169
35.660,0.361
35.665,0.001
35.670,0.007
35.675,0.360
35.680,0.152
35.685,-0.051
35.690,0.305
35.695,0.313
35.700,-0.016
35.705,0.215
35.710,0.428
35.715,0.092
35.720,0.112
35.725,0.461
35.730,0.247
35.735,0.052
35.740,0.405
35.745,0.389
35.750,0.041
35.755,0.247
35.760,0.430
35.765,0.080
35.770,0.090
35.775,0.424
35.780,0.193
35.785,-0.034
35.790,0.285
35.795,0.259
35.800,-0.093
35.805,0.121
35.810,0.329
35.815,-0.029
35.820,-0.047
35.825,0.292
35.830,0.088
35.835,-0.110
35.840,0.233
35.845,0.235
35.850,-0.086
35.855,0.146
35.860,0.373
35.865,0.052
35.870,0.063
35.875,0.404
35.880,0.190
35.885,-0.025
35.890,0.310
35.895,0.307
35.900,-0.046
35.905,0.150
35.910,0.355
35.915,-0.008
35.920,-0.039
35.925,0.273
35.930,0.043
35.935,-0.179
35.940,0.139
35.945,0.119
35.950,-0.246
35.955,-0.070
35.960,0.118
35.965,-0.228
35.970,-0.240
35.975,0.074
35.980,-0.148
35.985,-0.360
35.990,-0.024
35.995,-0.021
36.000,-0.366
36.005,-0.168
36.010,0.049
36.015,-0.280
36.020,-0.283
36.025,0.062
36.030,-0.140
36.035,-0.352
36.040,0.003
36.045,0.023
36.050,-0.314
36.055,-0.096
36.060,0.133
36.065,-0.203
36.070,-0.216
36.075,0.128
36.080,-0.072
36.085,-0.299
36.090,0.027
36.095,0.035
36.100,-0.315
36.105,-0.141
36.110,0.047
36.115,-0.298
36.120,-0.296
36.125,0.051
36.130,-0.145
36.135,-0.351
36.140,-0.002
36.145,0.012
36.150,-0.322
36.155,-0.091
36.160,0.152
36.165,-0.172
36.170,-0.191
36.175,0.147
36.180,-0.042
36.185,-0.269
36.190,0.055
36.195,0.077
36.200,-0.265
36.205,-0.082
36.210,0.134
36.215,-0.192
36.220,-0.167
36.225,0.201
36.230,-0.102
36.235,-0.526
36.240,-0.426
36.245,-0.738
36.250,-1.599
36.255,-1.816
36.260,-1.261
36.265,-0.754
36.270,-0.206
36.275,0.365
36.280,0.232
36.285,0.012
36.290,0.412
36.295,0.496
36.300,0.168
36.305,0.360
36.310,0.584
36.315,0.239
36.320,0.192
36.325,0.531
36.330,0.340
36.335,0.095
36.340,0.412
36.345,0.431
36.350,0.069
36.355,0.235
36.360,0.454
36.365,0.106
36.370,0.061
36.375,0.410
36.380,0.215
36.385,-0.032
36.390,0.294
36.395,0.321
36.400,-0.041
36.405,0.123
36.410,0.346
36.415,0.002
36.420,-0.050
36.425,0.297
36.430,0.114
36.435,-0.142
36.440,0.165
36.445,0.196
36.450,-0.163
36.455,-0.005
36.460,0.223
36.465,-0.108
36.470,-0.160
36.475,0.181
36.480,-0.002
36.485,-0.256
36.490,0.063
36.495,0.105
36.500,-0.245
36.505,-0.062
36.510,0.206
36.515,-0.097
36.520,-0.122
36.525,0.246
36.530,0.084
36.535,-0.149
36.540,0.197
36.545,0.256
36.550,-0.090
36.555,0.099
36.560,0.359
36.565,0.035
36.570,-0.018
36.575,0.339
36.580,0.180
36.585,-0.075
36.590,0.248
36.595,0.303
36.600,-0.055
36.605,0.108
36.610,0.351
36.615,0.022
36.620,-0.035
36.625,0.309
36.630,0.125
36.635,-0.135
36.640,0.179
36.645,0.216
36.650,-0.157
36.655,-0.022
36.660,0.206
36.665,-0.126
36.670,-0.195
36.675,0.151
36.680,-0.020
36.685,-0.286
36.690,0.031
36.695,0.087
36.700,-0.274
36.705,-0.108
36.710,0.154
36.715,-0.174
36.720,-0.235
36.725,0.130
36.730,-0.029
36.735,-0.289
36.740,0.037
36.745,0.104
36.750,-0.264
36.755,-0.113
36.760,0.148
36.765,-0.168
36.770,-0.233
36.775,0.120
36.780,-0.052
36.785,-0.339
36.790,-0.041
36.795,0.033
36.800,-0.319
36.805,-0.175
36.810,0.101
36.815,-0.195
36.820,-0.253
36.825,0.117
36.830,-0.014
36.835,-0.259
36.840,0.065
36.845,0.128
36.850,-0.242
36.855,-0.088
36.860,0.179
36.865,-0.143
36.870,-0.220
36.875,0.133
36.880,-0.021
36.885,-0.282
36.890,0.044
36.895,0.143
36.900,-0.177
36.905,-0.063
36.910,0.060
36.915,-0.463
36.920,-0.820
36.925,-0.872
36.930,-1.505
36.935,-1.845
36.940,-0.917
36.945,-0.091
36.950,-0.040
36.955,0.223
36.960,0.521
36.965,0.265
36.970,0.230
36.975,0.604
36.980,0.460
36.985,0.171
36.990,0.461
36.995,0.523
37.000,0.135
37.005,0.255
37.010,0.509
37.015,0.180
37.020,0.083
37.025,0.424
37.030,0.272
37.035,-0.013
37.040,0.285
37.045,0.359
37.050,-0.021
37.055,0.104
37.060,0.380
37.065,0.063
37.070,-0.036
37.075,0.317
37.080,0.168
37.085,-0.123
37.090,0.171
37.095,0.241
37.100,-0.141
37.105,-0.024
37.110,0.237
37.115,-0.090
37.120,-0.208
37.125,0.132
37.130,-0.012
37.135,-0.308
37.140,-0.011
37.145,0.078
37.150,-0.294
37.155,-0.165
37.160,0.117
37.165,-0.194
37.170,-0.290
37.175,0.090
37.180,-0.019
37.185,-0.289
37.190,0.032
37.195,0.154
37.200,-0.177
37.205,-0.026
37.210,0.282
37.215,0.002
37.220,-0.086
37.225,0.285
37.230,0.165
37.235,-0.122
37.240,0.181
37.245,0.282
37.250,-0.079
37.255,0.047
37.260,0.335
37.265,0.033
37.270,-0.065
37.275,0.312
37.280,0.202
37.285,-0.083
37.290,0.219
37.295,0.325
37.300,-0.043
37.305,0.070
37.310,0.357
37.315,0.061
37.320,-0.046
37.325,0.314
37.330,0.195
37.335,-0.103
37.340,0.183
37.345,0.282
37.350,-0.094
37.355,0.008
37.360,0.294
37.365,-0.011
37.370,-0.136
37.375,0.217
37.380,0.096
37.385,-0.212
37.390,0.071
37.395,0.178
37.400,-0.192
37.405,-0.077
37.410,0.219
37.415,-0.074
37.420,-0.190
37.425,0.165
37.430,0.048
37.435,-0.267
37.440,0.002
37.445,0.103
37.450,-0.277
37.455,-0.182
37.460,0.123
37.465,-0.161
37.470,-0.291
37.475,0.061
37.480,-0.070
37.485,-0.394
37.490,-0.102
37.495,0.026
37.500,-0.340
37.505,-0.228
37.510,0.097
37.515,-0.171
37.520,-0.278
37.525,0.111
37.530,0.036
37.535,-0.249
37.540,0.042
37.545,0.168
37.550,-0.188
37.555,-0.086
37.560,0.215
37.565,-0.070
37.570,-0.193
37.575,0.180
37.580,0.085
37.585,-0.224
37.590,0.071
37.595,0.236
37.600,-0.135
37.605,-0.132
37.610,0.017
37.615,-0.520
37.620,-1.030
37.625,-1.182
37.630,-1.587
37.635,-1.461
37.640,-0.375
37.645,0.242
37.650,0.055
37.655,0.202
37.660,0.564
37.665,0.366
37.670,0.261
37.675,0.632
37.680,0.549
37.685,0.225
37.690,0.483
37.695,0.601
37.700,0.218
37.705,0.287
37.710,0.582
37.715,0.286
37.720,0.125
37.725,0.466
37.730,0.358
37.735,0.032
37.740,0.306
37.745,0.431
37.750,0.044
37.755,0.109
37.760,0.403
37.765,0.110
37.770,-0.048
37.775,0.304
37.780,0.212
37.785,-0.116
37.790,0.139
37.795,0.257
37.800,-0.140
37.805,-0.086
37.810,0.216
37.815,-0.064
37.820,-0.213
37.825,0.140
37.830,0.040
37.835,-0.291
37.840,-0.029
37.845,0.104
37.850,-0.269
37.855,-0.203
37.860,0.091
37.865,-0.197
37.870,-0.349
37.875,0.002
37.880,-0.082
37.885,-0.386
37.890,-0.101
37.895,0.068
37.900,-0.272
37.905,-0.173
37.910,0.162
37.915,-0.095
37.920,-0.233
37.925,0.152
37.930,0.111
37.935,-0.190
37.940,0.094
37.945,0.271
37.950,-0.082
37.955,-0.016
37.960,0.303
37.965,0.039
37.970,-0.115
37.975,0.244
37.980,0.159
37.985,-0.180
37.990,0.075
37.995,0.214
38.000,-0.168
38.005,-0.104
38.010,0.219
38.015,-0.042
38.020,-0.195
38.025,0.163
38.030,0.080
38.035,-0.250
38.040,0.022
38.045,0.182
38.050,-0.184
38.055,-0.123
38.060,0.200
38.065,-0.052
38.070,-0.202
38.075,0.166
38.080,0.105
38.085,-0.222
38.090,0.041
38.095,0.210
38.100,-0.140
38.105,-0.069
38.110,0.253
38.115,-0.011
38.120,-0.172
38.125,0.184
38.130,0.116
38.135,-0.219
38.140,0.017
38.145,0.171
38.150,-0.176
38.155,-0.106
38.160,0.206
38.165,-0.078
38.170,-0.271
38.175,0.060
38.180,-0.011
38.185,-0.330
38.190,-0.055
38.195,0.144
38.200,-0.195
38.205,-0.143
38.210,0.186
38.215,-0.044
38.220,-0.185
38.225,0.180
38.230,0.124
38.235,-0.203
38.240,0.044
38.245,0.205
38.250,-0.165
38.255,-0.123
38.260,0.202
38.265,-0.050
38.270,-0.227
38.275,0.120
38.280,0.089
38.285,-0.183
38.290,0.068
38.295,0.116
38.300,-0.444
38.305,-0.669
38.310,-0.716
38.315,-1.422
38.320,-1.835
38.325,-1.097
38.330,-0.389
38.335,-0.190
38.340,0.237
38.345,0.454
38.350,0.142
38.355,0.260
38.360,0.642
38.365,0.404
38.370,0.212
38.375,0.555
38.380,0.503
38.385,0.150
38.390,0.372
38.395,0.539
38.400,0.169
38.405,0.191
38.410,0.508
38.415,0.249
38.420,0.054
38.425,0.399
38.430,0.346
38.435,-0.006
38.440,0.221
38.445,0.386
38.450,0.015
38.455,0.047
38.460,0.370
38.465,0.103
38.470,-0.101
38.475,0.242
38.480,0.195
38.485,-0.138
38.490,0.099
38.495,0.270
38.500,-0.092
38.505,-0.069
38.510,0.252
38.515,0.001
38.520,-0.202
38.525,0.149
38.530,0.116
38.535,-0.232
38.540,-0.001
38.545,0.177
38.550,-0.181
38.555,-0.138
38.560,0.205
38.565,-0.028
38.570,-0.206
38.575,0.165
38.580,0.154
38.585,-0.168
38.590,0.089
38.595,0.299
38.600,-0.045
38.605,-0.008
38.610,0.347
38.615,0.117
38.620,-0.073
38.625,0.295
38.630,0.270
38.635,-0.079
38.640,0.154
38.645,0.346
38.650,-0.020
38.655,-0.002
38.660,0.334
38.665,0.089
38.670,-0.116
38.675,0.229
38.680,0.197
38.685,-0.150
38.690,0.074
38.695,0.265
38.700,-0.098
38.705,-0.092
38.710,0.243
38.715,0.004
38.720,-0.216
38.725,0.126
38.730,0.100
38.735,-0.253
38.740,-0.042
38.745,0.148
38.750,-0.207
38.755,-0.195
38.760,0.160
38.765,-0.065
38.770,-0.276
38.775,0.076
38.780,0.065
38.785,-0.273
38.790,-0.046
38.795,0.158
38.800,-0.193
38.805,-0.181
38.810,0.163
38.815,-0.066
38.820,-0.280
38.825,0.072
38.830,0.064
38.835,-0.294
38.840,-0.085
38.845,0.118
38.850,-0.226
38.855,-0.211
38.860,0.119
38.865,-0.128
38.870,-0.357
38.875,-0.015
38.880,-0.021
38.885,-0.370
38.890,-0.145
38.895,0.087
38.900,-0.245
38.905,-0.226
38.910,0.147
38.915,-0.052
38.920,-0.261
38.925,0.089
38.930,0.088
38.935,-0.257
38.940,-0.040
38.945,0.172
38.950,-0.177
38.955,-0.172
38.960,0.176
38.965,-0.041
38.970,-0.253
38.975,0.106
38.980,0.147
38.985,-0.182
38.990,-0.058
38.995,-0.022
39.000,-0.610
39.005,-0.955
39.010,-1.109
39.015,-1.713
39.020,-1.670
39.025,-0.577
39.030,0.033
39.035,-0.043
39.040,0.229
39.045,0.488
39.050,0.213
39.055,0.236
39.060,0.594
39.065,0.386
39.070,0.151
39.075,0.481
39.080,0.472
39.085,0.103
39.090,0.297
39.095,0.496
39.100,0.130
39.105,0.122
39.110,0.466
39.115,0.238
39.120,0.000
39.125,0.337
39.130,0.339
39.135,-0.024
39.140,0.170
39.145,0.382
39.150,0.019
39.155,-0.010
39.160,0.330
39.165,0.102
39.170,-0.144
39.175,0.197
39.180,0.195
39.185,-0.177
39.190,0.014
39.195,0.226
39.200,-0.135
39.205,-0.166
39.210,0.172
39.215,-0.048
39.220,-0.291
39.225,0.047
39.230,0.055
39.235,-0.306
39.240,-0.108
39.245,0.122
39.250,-0.215
39.255,-0.228
39.260,0.134
39.265,-0.057
39.270,-0.272
39.275,0.092
39.280,0.130
39.285,-0.204
39.290,0.016
39.295,0.262
39.300,-0.074
39.305,-0.092
39.310,0.272
39.315,0.080
39.320,-0.149
39.325,0.203
39.330,0.225
39.335,-0.133
39.340,0.062
39.345,0.289
39.350,-0.062
39.355,-0.091
39.360,0.268
39.365,0.075
39.370,-0.161
39.375,0.180
39.380,0.215
39.385,-0.145
39.390,0.041
39.395,0.283
39.400,-0.061
39.405,-0.090
39.410,0.269
39.415,0.077
39.420,-0.164
39.425,0.172
39.430,0.200
39.435,-0.161
39.440,0.026
39.445,0.262
39.450,-0.085
39.455,-0.127
39.460,0.223
39.465,0.025
39.470,-0.220
39.475,0.118
39.480,0.144
39.485,-0.226
39.490,-0.046
39.495,0.193
39.500,-0.145
39.505,-0.179
39.510,0.183
39.515,-0.005
39.520,-0.253
39.525,0.086
39.530,0.126
39.535,-0.235
39.540,-0.048
39.545,0.194
39.550,-0.155
39.555,-0.202
39.560,0.160
39.565,-0.019
39.570,-0.268
39.575,0.062
39.580,0.079
39.585,-0.308
39.590,-0.126
39.595,0.125
39.600,-0.213
39.605,-0.243
39.610,0.142
39.615,-0.019
39.620,-0.253
39.625,0.108
39.630,0.170
39.635,-0.188
39.640,-0.005
39.645,0.254
39.650,-0.083
39.655,-0.129
39.660,0.236
39.665,0.049
39.670,-0.210
39.675,0.121
39.680,0.163
39.685,-0.199
39.690,-0.011
39.695,0.278
39.700,-0.041
39.705,-0.170
39.710,0.024
39.715,-0.397
39.720,-1.010
39.725,-1.199
39.730,-1.539
39.735,-1.568
39.740,-0.600
39.745,0.164
39.750,0.021
39.755,0.042
39.760,0.471
39.765,0.382
39.770,0.154
39.775,0.492
39.780,0.549
39.785,0.172
39.790,0.329
39.795,0.567
39.800,0.214
39.805,0.147
39.810,0.503
39.815,0.315
39.820,0.044
39.825,0.369
39.830,0.411
39.835,0.034
39.840,0.190
39.845,0.434
39.850,0.092
39.855,0.028
39.860,0.387
39.865,0.209
39.870,-0.068
39.875,0.249
39.880,0.292
39.885,-0.091
39.890,0.058
39.895,0.303
39.900,-0.043
39.905,-0.119
39.910,0.234
39.915,0.046
39.920,-0.238
39.925,0.081
39.930,0.128
39.935,-0.251
39.940,-0.094
39.945,0.162
39.950,-0.167
39.955,-0.231
39.960,0.125
39.965,-0.038
39.970,-0.293
39.975,0.044
39.980,0.124
39.985,-0.226
39.990,-0.050
39.995,0.224
40.000,-0.098
40.005,-0.141
40.010,0.252
40.015,0.108
40.020,-0.147
40.025,0.189
40.030,0.261
40.035,-0.109
40.040,0.050
40.045,0.329
40.050,0.003
40.055,-0.083
40.060,0.271
40.065,0.105
40.070,-0.172
40.075,0.146
40.080,0.207
40.085,-0.168
40.090,-0.013
40.095,0.260
40.100,-0.069
40.105,-0.159
40.110,0.190
40.115,0.031
40.120,-0.250
40.125,0.065
40.130,0.130
40.135,-0.260
40.140,-0.127
40.145,0.133
40.150,-0.195
40.155,-0.268
40.160,0.103
40.165,-0.045
40.170,-0.320
40.175,0.004
40.180,0.094
40.185,-0.258
40.190,-0.098
40.195,0.181
40.200,-0.136
40.205,-0.209
40.210,0.163
40.215,0.020
40.220,-0.246
40.225,0.080
40.230,0.164
40.235,-0.213
40.240,-0.083
40.245,0.195
40.250,-0.131
40.255,-0.227
40.260,0.138
40.265,-0.010
40.270,-0.280
40.275,0.039
40.280,0.099
40.285,-0.294
40.290,-0.167
40.295,0.109
40.300,-0.200
40.305,-0.283
40.310,0.095
40.315,-0.023
40.320,-0.279
40.325,0.054
40.330,0.157
40.335,-0.193
40.340,-0.045
40.345,0.234
40.350,-0.090
40.355,-0.182
40.360,0.185
40.365,0.040
40.370,-0.256
40.375,0.044
40.380,0.123
40.385,-0.261
40.390,-0.122
40.395,0.183
40.400,-0.091
40.405,-0.162
40.410,0.130
40.415,-0.180
40.420,-0.728
40.425,-0.791
40.430,-1.160
40.435,-1.753
40.440,-1.268
40.445,-0.315
40.450,-0.098
40.455,0.024
40.460,0.432
40.465,0.361
40.470,0.147
40.475,0.488
40.480,0.607
40.485,0.249
40.490,0.374
40.495,0.657
40.500,0.338
40.505,0.232
40.510,0.582
40.515,0.424
40.520,0.116
40.525,0.408
40.530,0.487
40.535,0.092
40.540,0.196
40.545,0.468
40.550,0.136
40.555,0.013
40.560,0.367
40.565,0.221
40.570,-0.087
40.575,0.200
40.580,0.271
40.585,-0.121
40.590,0.000
40.595,0.283
40.600,-0.040
40.605,-0.158
40.610,0.202
40.615,0.067
40.620,-0.246
40.625,0.037
40.630,0.133
40.635,-0.238
40.640,-0.119
40.645,0.163
40.650,-0.152
40.655,-0.254
40.660,0.119
40.665,-0.008
40.670,-0.300
40.675,0.008
40.680,0.113
40.685,-0.250
40.690,-0.101
40.695,0.219
40.700,-0.072
40.705,-0.159
40.710,0.241
40.715,0.138
40.720,-0.140
40.725,0.196
40.730,0.327
40.735,-0.030
40.740,0.107
40.745,0.410
40.750,0.102
40.755,-0.014
40.760,0.358
40.765,0.236
40.770,-0.072
40.775,0.228
40.780,0.334
40.785,-0.060
40.790,0.036
40.795,0.331
40.800,0.020
40.805,-0.120
40.810,0.236
40.815,0.117
40.820,-0.194
40.825,0.094
40.830,0.197
40.835,-0.184
40.840,-0.076
40.845,0.225
40.850,-0.082
40.855,-0.213
40.860,0.157
40.865,0.059
40.870,-0.235
40.875,0.062
40.880,0.187
40.885,-0.177
40.890,-0.061
40.895,0.245
40.900,-0.057
40.905,-0.178
40.910,0.198
40.915,0.099
40.920,-0.203
40.925,0.091
40.930,0.213
40.935,-0.163
40.940,-0.064
40.945,0.227
40.950,-0.081
40.955,-0.214
40.960,0.155
40.965,0.058
40.970,-0.253
40.975,0.022
40.980,0.121
40.985,-0.276
40.990,-0.181
40.995,0.129
41.000,-0.155
41.005,-0.263
41.010,0.130
41.015,0.043
41.020,-0.251
41.025,0.064
41.030,0.208
41.035,-0.167
41.040,-0.070
41.045,0.246
41.050,-0.042
41.055,-0.177
41.060,0.186
41.065,0.084
41.070,-0.220
41.075,0.072
41.080,0.199
41.085,-0.180
41.090,-0.066
41.095,0.280
41.100,-0.065
41.105,-0.378
41.110,-0.240
41.115,-0.641
41.120,-1.404
41.125,-1.649
41.130,-1.544
41.135,-1.178
41.140,-0.341
41.145,0.318
41.150,0.135
41.155,0.025
41.160,0.468
41.165,0.427
41.170,0.119
41.175,0.411
41.180,0.546
41.185,0.159
41.190,0.229
41.195,0.532
41.200,0.242
41.205,0.082
41.210,0.426
41.215,0.330
41.220,0.002
41.225,0.265
41.230,0.396
41.235,0.010
41.240,0.074
41.245,0.374
41.250,0.079
41.255,-0.082
41.260,0.276
41.265,0.181
41.270,-0.151
41.275,0.120
41.280,0.253
41.285,-0.138
41.290,-0.078
41.295,0.228
41.300,-0.066
41.305,-0.237
41.310,0.118
41.315,0.029
41.320,-0.310
41.325,-0.057
41.330,0.083
41.335,-0.295
41.340,-0.233
41.345,0.091
41.350,-0.181
41.355,-0.324
41.360,0.057
41.365,-0.014
41.370,-0.330
41.375,-0.043
41.380,0.126
41.385,-0.229
41.390,-0.139
41.395,0.206
41.400,-0.042
41.405,-0.175
41.410,0.210
41.415,0.151
41.420,-0.156
41.425,0.126
41.430,0.284
41.435,-0.089
41.440,-0.024
41.445,0.300
41.450,0.028
41.455,-0.126
41.460,0.247
41.465,0.175
41.470,-0.156
41.475,0.108
41.480,0.266
41.485,-0.102
41.490,-0.031
41.495,0.300
41.500,0.029
41.505,-0.140
41.510,0.226
41.515,0.163
41.520,-0.171
41.525,0.093
41.530,0.252
41.535,-0.128
41.540,-0.079
41.545,0.241
41.550,-0.025
41.555,-0.192
41.560,0.177
41.565,0.119
41.570,-0.212
41.575,0.050
41.580,0.218
41.585,-0.149
41.590,-0.095
41.595,0.230
41.600,-0.039
41.605,-0.214
41.610,0.148
41.615,0.088
41.620,-0.243
41.625,0.013
41.630,0.174
41.635,-0.206
41.640,-0.166
41.645,0.160
41.650,-0.094
41.655,-0.260
41.660,0.098
41.665,0.025
41.670,-0.332
41.675,-0.087
41.680,0.093
41.685,-0.270
41.690,-0.208
41.695,0.161
41.700,-0.075
41.705,-0.236
41.710,0.158
41.715,0.133
41.720,-0.189
41.725,0.073
41.730,0.254
41.735,-0.109
41.740,-0.063
41.745,0.271
41.750,0.009
41.755,-0.175
41.760,0.187
41.765,0.144
41.770,-0.190
41.775,0.067
41.780,0.277
41.785,-0.064
41.790,-0.082
41.795,0.104
41.800,-0.371
41.805,-0.883
41.810,-1.015
41.815,-1.504
41.820,-1.688
41.825,-0.742
41.830,0.026
41.835,-0.070
41.840,0.054
41.845,0.447
41.850,0.282
41.855,0.134
41.860,0.501
41.865,0.469
41.870,0.136
41.875,0.379
41.880,0.545
41.885,0.166
41.890,0.196
41.895,0.533
41.900,0.279
41.905,0.076
41.910,0.423
41.915,0.377
41.920,0.029
41.925,0.264
41.930,0.442
41.935,0.067
41.940,0.090
41.945,0.427
41.950,0.174
41.955,-0.036
41.960,0.303
41.965,0.259
41.970,-0.092
41.975,0.137
41.980,0.310
41.985,-0.074
41.990,-0.060
41.995,0.264
42.000,0.000
42.005,-0.221
42.010,0.113
42.015,0.065
42.020,-0.302
42.025,-0.085
42.030,0.095
42.035,-0.278
42.040,-0.250
42.045,0.096
42.050,-0.147
42.055,-0.344
42.060,0.020
42.065,0.007
42.070,-0.321
42.075,-0.064
42.080,0.157
42.085,-0.181
42.090,-0.139
42.095,0.221
42.100,-0.004
42.105,-0.191
42.110,0.187
42.115,0.176
42.120,-0.165
42.125,0.075
42.130,0.279
42.135,-0.083
42.140,-0.075
42.145,0.260
42.150,0.023
42.155,-0.179
42.160,0.178
42.165,0.160
42.170,-0.185
42.175,0.046
42.180,0.251
42.185,-0.107
42.190,-0.102
42.195,0.245
42.200,0.021
42.205,-0.184
42.210,0.179
42.215,0.168
42.220,-0.182
42.225,0.045
42.230,0.252
42.235,-0.107
42.240,-0.086
42.245,0.277
42.250,0.044
42.255,-0.175
42.260,0.182
42.265,0.173
42.270,-0.175
42.275,0.053
42.280,0.264
42.285,-0.092
42.290,-0.082
42.295,0.273
42.300,0.052
42.305,-0.164
42.310,0.191
42.315,0.189
42.320,-0.167
42.325,0.048
42.330,0.256
42.335,-0.108
42.340,-0.103
42.345,0.246
42.350,0.006
42.355,-0.231
42.360,0.099
42.365,0.068
42.370,-0.294
42.375,-0.069
42.380,0.160
42.385,-0.171
42.390,-0.157
42.395,0.197
42.400,-0.013
42.405,-0.214
42.410,0.154
42.415,0.164
42.420,-0.192
42.425,0.020
42.430,0.242
42.435,-0.117
42.440,-0.130
42.445,0.216
42.450,-0.011
42.455,-0.238
42.460,0.117
42.465,0.120
42.470,-0.232
42.475,0.004
42.480,0.195
42.485,-0.289
42.490,-0.500
42.495,-0.440
42.500,-1.083
42.505,-1.850
42.510,-1.616
42.515,-0.968
42.520,-0.622
42.525,-0.075
42.530,0.279
42.535,-0.013
42.540,0.060
42.545,0.487
42.550,0.299
42.555,0.083
42.560,0.437
42.565,0.442
42.570,0.075
42.575,0.281
42.580,0.509
42.585,0.141
42.590,0.111
42.595,0.457
42.600,0.240
42.605,0.000
42.610,0.329
42.615,0.314
42.620,-0.070
42.625,0.121
42.630,0.351
42.635,0.004
42.640,-0.025
42.645,0.316
42.650,0.101
42.655,-0.136
42.660,0.222
42.665,0.243
42.670,-0.126
42.675,0.067
42.680,0.288
42.685,-0.074
42.690,-0.106
42.695,0.245
42.700,0.032
42.705,-0.210
42.710,0.133
42.715,0.141
42.720,-0.233
42.725,-0.039
42.730,0.199
42.735,-0.142
42.740,-0.175
42.745,0.179
42.750,-0.013
42.755,-0.244
42.760,0.112
42.765,0.153
42.770,-0.194
42.775,0.018
42.780,0.272
42.785,-0.054
42.790,-0.051
42.795,0.332
42.800,0.138
42.805,-0.102
42.810,0.246
42.815,0.273
42.820,-0.094
42.825,0.094
42.830,0.329
42.835,-0.032
42.840,-0.080
42.845,0.273
42.850,0.067
42.855,-0.192
42.860,0.135
42.865,0.162
42.870,-0.211
42.875,-0.043
42.880,0.183
42.885,-0.173
42.890,-0.216
42.895,0.142
42.900,-0.051
42.905,-0.305
42.910,0.028
42.915,0.057
42.920,-0.318
42.925,-0.137
42.930,0.114
42.935,-0.216
42.940,-0.245
42.945,0.121
42.950,-0.065
42.955,-0.302
42.960,0.054
42.965,0.099
42.970,-0.265
42.975,-0.080
42.980,0.177
42.985,-0.155
42.990,-0.192
42.995,0.172
43.000,-0.014
43.005,-0.259
43.010,0.085
43.015,0.132
43.020,-0.234
43.025,-0.063
43.030,0.177
43.035,-0.178
43.040,-0.230
43.045,0.145
43.050,-0.020
43.055,-0.255
43.060,0.103
43.065,0.173
43.070,-0.160
43.075,0.053
43.080,0.333
43.085,0.012
43.090,-0.033
43.095,0.323
43.100,0.139
43.105,-0.114
43.110,0.225
43.115,0.274
43.120,-0.102
43.125,0.061
43.130,0.308
43.135,-0.026
43.140,-0.056
43.145,0.337
43.150,0.139
43.155,-0.251
43.160,-0.127
43.165,-0.343
43.170,-1.089
43.175,-1.451
43.180,-1.521
43.185,-1.419
43.190,-0.672
43.195,0.162
43.200,0.154
43.205,-0.072
43.210,0.289
43.215,0.407
43.220,0.056
43.225,0.214
43.230,0.474
43.235,0.139
43.240,0.071
43.245,0.435
43.250,0.264
43.255,0.000
43.260,0.323
43.265,0.367
43.270,-0.001
43.275,0.166
43.280,0.421
43.285,0.081
43.290,-0.001
43.295,0.344
43.300,0.161
43.305,-0.124
43.310,0.178
43.315,0.217
43.320,-0.171
43.325,-0.039
43.330,0.190
43.335,-0.168
43.340,-0.245
43.345,0.109
43.350,-0.085
43.355,-0.371
43.360,-0.042
43.365,0.024
43.370,-0.349
43.375,-0.179
43.380,0.120
43.385,-0.174
43.390,-0.214
43.395,0.177
43.400,0.043
43.405,-0.214
43.410,0.111
43.415,0.191
43.420,-0.179
43.425,-0.031
43.430,0.249
43.435,-0.067
43.440,-0.129
43.445,0.258
43.450,0.125
43.455,-0.127
43.460,0.220
43.465,0.320
43.470,-0.031
43.475,0.137
43.480,0.425
43.485,0.120
43.490,0.057
43.495,0.432
43.500,0.289
43.505,0.011
43.510,0.324
43.515,0.397
43.520,0.019
43.525,0.151
43.530,0.406
43.535,0.061
43.540,-0.043
43.545,0.303
43.550,0.122
43.555,-0.193
43.560,0.102
43.565,0.168
43.570,-0.216
43.575,-0.085
43.580,0.183
43.585,-0.143
43.590,-0.224
43.595,0.154
43.600,0.017
43.605,-0.256
43.610,0.071
43.615,0.169
43.620,-0.179
43.625,-0.018
43.630,0.275
43.635,-0.025
43.640,-0.094
43.645,0.284
43.650,0.151
43.655,-0.122
43.660,0.195
43.665,0.280
43.670,-0.084
43.675,0.059
43.680,0.350
43.685,0.048
43.690,-0.043
43.695,0.318
43.700,0.154
43.705,-0.160
43.710,0.146
43.715,0.235
43.720,-0.128
43.725,0.030
43.730,0.330
43.735,0.019
43.740,-0.063
43.745,0.322
43.750,0.190
43.755,-0.102
43.760,0.207
43.765,0.285
43.770,-0.116
43.775,-0.003
43.780,0.269
43.785,-0.067
43.790,-0.188
43.795,0.159
43.800,0.008
43.805,-0.285
43.810,0.036
43.815,0.160
43.820,-0.219
43.825,-0.185
43.830,-0.069
43.835,-0.641
43.840,-1.131
43.845,-1.277
43.850,-1.593
43.855,-1.340
43.860,-0.290
43.865,0.216
43.870,-0.016
43.875,0.160
43.880,0.514
43.885,0.267
43.890,0.186
43.895,0.563
43.900,0.437
43.905,0.127
43.910,0.396
43.915,0.476
43.920,0.082
43.925,0.183
43.930,0.465
43.935,0.132
43.940,0.009
43.945,0.363
43.950,0.223
43.955,-0.075
43.960,0.213
43.965,0.307
43.970,-0.065
43.975,0.052
43.980,0.341
43.985,0.021
43.990,-0.102
43.995,0.260
44.000,0.136
44.005,-0.175
44.010,0.105
44.015,0.205
44.020,-0.178
44.025,-0.069
44.030,0.220
44.035,-0.096
44.040,-0.225
44.045,0.123
44.050,-0.017
44.055,-0.326
44.060,-0.032
44.065,0.067
44.070,-0.312
44.075,-0.199
44.080,0.103
44.085,-0.195
44.090,-0.307
44.095,0.084
44.100,-0.008
44.105,-0.298
44.110,0.015
44.115,0.150
44.120,-0.207
44.125,-0.089
44.130,0.223
44.135,-0.054
44.140,-0.166
44.145,0.209
44.150,0.102
44.155,-0.201
44.160,0.105
44.165,0.220
44.170,-0.156
44.175,-0.049
44.180,0.245
44.185,-0.053
44.190,-0.182
44.195,0.174
44.200,0.055
44.205,-0.258
44.210,0.029
44.215,0.140
44.220,-0.249
44.225,-0.157
44.230,0.172
44.235,-0.107
44.240,-0.249
44.245,0.121
44.250,0.021
44.255,-0.286
44.260,0.007
44.265,0.128
44.270,-0.244
44.275,-0.126
44.280,0.195
44.285,-0.097
44.290,-0.224
44.295,0.143
44.300,0.042
44.305,-0.260
44.310,0.035
44.315,0.169
44.320,-0.202
44.325,-0.105
44.330,0.195
44.335,-0.114
44.340,-0.271
44.345,0.080
44.350,-0.017
44.355,-0.325
44.360,-0.042
44.365,0.065
44.370,-0.340
44.375,-0.258
44.380,0.052
44.385,-0.236
44.390,-0.373
44.395,0.011
44.400,-0.050
44.405,-0.335
44.410,-0.021
44.415,0.134
44.420,-0.235
44.425,-0.146
44.430,0.170
44.435,-0.104
44.440,-0.238
44.445,0.126
44.450,0.043
44.455,-0.255
44.460,0.026
44.465,0.157
44.470,-0.208
44.475,-0.108
44.480,0.231
44.485,-0.003
44.490,-0.128
44.495,0.158
44.500,-0.104
44.505,-0.688
44.510,-0.804
44.515,-1.171
44.520,-1.721
44.525,-1.140
44.530,-0.146
44.535,-0.035
44.540,-0.033
44.545,0.381
44.550,0.356
44.555,0.082
44.560,0.367
44.565,0.518
44.570,0.145
44.575,0.210
44.580,0.511
44.585,0.215
44.590,0.044
44.595,0.387
44.600,0.290
44.605,-0.047
44.610,0.205
44.615,0.322
44.620,-0.065
44.625,0.009
44.630,0.317
44.635,0.022
44.640,-0.146
44.645,0.197
44.650,0.097
44.655,-0.232
44.660,0.045
44.665,0.197
44.670,-0.176
44.675,-0.105
44.680,0.213
44.685,-0.067
44.690,-0.221
44.695,0.151
44.700,0.082
44.705,-0.237
44.710,0.034
44.715,0.185
44.720,-0.187
44.725,-0.116
44.730,0.213
44.735,-0.056
44.740,-0.217
44.745,0.150
44.750,0.086
44.755,-0.227
44.760,0.056
44.765,0.225
44.770,-0.128
44.775,-0.037
44.780,0.326
44.785,0.093
44.790,-0.055
44.795,0.310
44.800,0.228
44.805,-0.117
44.810,0.139
44.815,0.300
44.820,-0.068
44.825,0.002
44.830,0.341
44.835,0.075
44.840,-0.083
44.845,0.295
44.850,0.233
44.855,-0.088
44.860,0.201
44.865,0.387
44.870,0.037
44.875,0.114
44.880,0.446
44.885,0.180
44.890,0.018
44.895,0.389
44.900,0.329
44.905,-0.001
44.910,0.259
44.915,0.412
44.920,0.040
44.925,0.107
44.930,0.429
44.935,0.147
44.940,-0.037
44.945,0.303
44.950,0.216
44.955,-0.125
44.960,0.130
44.965,0.277
44.970,-0.111
44.975,-0.070
44.980,0.249
44.985,-0.008
44.990,-0.173
44.995,0.182
45.000,0.114
45.005,-0.223
45.010,0.027
45.015,0.194
45.020,-0.167
45.025,-0.123
45.030,0.185
45.035,-0.102
45.040,-0.285
45.045,0.088
45.050,0.034
45.055,-0.292
45.060,-0.019
45.065,0.155
45.070,-0.203
45.075,-0.132
45.080,0.208
45.085,-0.061
45.090,-0.244
45.095,0.126
45.100,0.079
45.105,-0.263
45.110,-0.021
45.115,0.165
45.120,-0.175
45.125,-0.106
45.130,0.244
45.135,-0.002
45.140,-0.173
45.145,0.212
45.150,0.200
45.155,-0.176
45.160,-0.066
45.165,-0.099
45.170,-0.765
45.175,-1.163
45.180,-1.366
45.185,-1.661
45.190,-1.169
