'Elapsed time','ECG'
'seconds','mV'
0.000,0.004
0.005,-0.093
0.010,-0.051
0.015,0.026
0.020,-0.083
0.025,-0.027
0.030,0.087
0.035,-0.061
0.040,-0.153
0.045,0.022
0.050,0.071
0.055,0.055
0.060,0.352
0.065,0.589
0.070,0.503
0.075,0.464
0.080,0.400
0.085,0.068
0.090,-0.141
0.095,-0.058
0.100,-0.096
0.105,-0.225
0.110,-0.107
0.115,-0.002
0.120,-0.141
0.125,-0.126
0.130,0.020
0.135,-0.082
0.140,-0.155
0.145,0.000
0.150,-0.001
0.155,-0.112
0.160,-0.027
0.165,0.015
0.170,-0.115
0.175,-0.069
0.180,0.077
0.185,-0.039
0.190,-0.116
0.195,0.047
0.200,0.010
0.205,-0.111
0.210,0.040
0.215,0.084
0.220,-0.088
0.225,-0.048
0.230,0.083
0.235,-0.020
0.240,-0.051
0.245,0.100
0.250,0.039
0.255,-0.074
0.260,0.043
0.265,0.072
0.270,-0.061
0.275,-0.005
0.280,0.115
0.285,-0.006
0.290,-0.047
0.295,0.114
0.300,0.066
0.305,-0.038
0.310,0.133
0.315,0.175
0.320,-0.019
0.325,0.034
0.330,0.180
0.335,0.064
0.340,0.011
0.345,0.148
0.350,0.104
0.355,-0.006
0.360,0.112
0.365,0.143
0.370,0.006
0.375,0.043
0.380,0.104
0.385,-0.051
0.390,-0.118
0.395,-0.008
0.400,-0.042
0.405,-0.120
0.410,-0.035
0.415,-0.036
0.420,-0.179
0.425,-0.133
0.430,-0.021
0.435,-0.127
0.440,-0.147
0.445,-0.008
0.450,-0.077
0.455,-0.177
0.460,-0.036
0.465,-0.004
0.470,-0.142
0.475,-0.081
0.480,0.018
0.485,-0.094
0.490,-0.128
0.495,0.003
0.500,-0.026
0.505,-0.112
0.510,0.009
0.515,0.048
0.520,-0.101
0.525,-0.067
0.530,0.057
0.535,-0.048
0.540,-0.092
0.545,0.051
0.550,0.003
0.555,-0.105
0.560,0.012
0.565,0.049
0.570,-0.085
0.575,-0.022
0.580,0.084
0.585,-0.042
0.590,-0.064
0.595,0.072
0.600,0.013
0.605,-0.079
0.610,0.041
0.615,0.081
0.620,-0.056
0.625,-0.020
0.630,0.094
0.635,-0.012
0.640,-0.052
0.645,0.086
0.650,0.034
0.655,-0.059
0.660,0.058
0.665,0.064
0.670,-0.068
0.675,0.005
0.680,0.103
0.685,-0.034
0.690,-0.063
0.695,0.094
0.700,0.039
0.705,-0.063
0.710,0.061
0.715,0.087
0.720,-0.056
0.725,0.003
0.730,0.115
0.735,-0.001
0.740,-0.035
0.745,0.088
0.750,0.029
0.755,-0.063
0.760,0.067
0.765,0.113
0.770,-0.010
0.775,0.023
0.780,0.102
0.785,0.030
0.790,0.044
0.795,0.152
0.800,0.066
0.805,-0.021
0.810,0.108
0.815,0.097
0.820,-0.042
0.825,0.033
0.830,0.089
0.835,-0.052
0.840,-0.068
0.845,0.059
0.850,-0.010
0.855,-0.113
0.860,0.020
0.865,0.049
0.870,-0.082
0.875,-0.014
0.880,0.061
0.885,-0.081
0.890,-0.073
0.895,0.096
0.900,0.020
0.905,-0.084
0.910,0.033
0.915,0.034
0.920,-0.114
0.925,-0.058
0.930,0.035
0.935,-0.069
0.940,-0.026
0.945,0.206
0.950,0.314
0.955,0.422
0.960,0.612
0.965,0.544
0.970,0.194
0.975,0.009
0.980,-0.035
0.985,-0.214
0.990,-0.228
0.995,-0.041
1.000,-0.091
1.005,-0.187
1.010,-0.055
1.015,-0.047
1.020,-0.178
1.025,-0.069
1.030,0.041
1.035,-0.121
1.040,-0.141
1.045,0.016
1.050,-0.070
1.055,-0.155
1.060,0.021
1.065,0.020
1.070,-0.163
1.075,-0.063
1.080,0.075
1.085,-0.074
1.090,-0.110
1.095,0.046
1.100,-0.018
1.105,-0.110
1.110,0.051
1.115,0.060
1.120,-0.130
1.125,-0.044
1.130,0.082
1.135,-0.067
1.140,-0.070
1.145,0.109
1.150,0.029
1.155,-0.090
1.160,0.060
1.165,0.084
1.170,-0.074
1.175,0.014
1.180,0.144
1.185,0.000
1.190,-0.021
1.195,0.147
1.200,0.072
1.205,-0.026
1.210,0.111
1.215,0.109
1.220,-0.043
1.225,0.054
1.230,0.171
1.235,0.013
1.240,-0.011
1.245,0.152
1.250,0.067
1.255,-0.047
1.260,0.076
1.265,0.067
1.270,-0.102
1.275,-0.043
1.280,0.062
1.285,-0.107
1.290,-0.175
1.295,-0.043
1.300,-0.120
1.305,-0.193
1.310,-0.033
1.315,-0.049
1.320,-0.208
1.325,-0.110
1.330,-0.014
1.335,-0.167
1.340,-0.153
1.345,0.017
1.350,-0.095
1.355,-0.202
1.360,0.001
1.365,0.033
1.370,-0.154
1.375,-0.076
1.380,0.036
1.385,-0.123
1.390,-0.131
1.395,0.065
1.400,-0.002
1.405,-0.115
1.410,0.036
1.415,0.041
1.420,-0.118
1.425,-0.013
1.430,0.089
1.435,-0.071
1.440,-0.075
1.445,0.078
1.450,-0.013
1.455,-0.108
1.460,0.053
1.465,0.077
1.470,-0.077
1.475,0.008
1.480,0.103
1.485,-0.078
1.490,-0.078
1.495,0.123
1.500,0.029
1.505,-0.100
1.510,0.059
1.515,0.077
1.520,-0.082
1.525,0.003
1.530,0.108
1.535,-0.044
1.540,-0.051
1.545,0.104
1.550,0.004
1.555,-0.095
1.560,0.071
1.565,0.074
1.570,-0.093
1.575,0.004
1.580,0.108
1.585,-0.037
1.590,-0.034
1.595,0.102
1.600,-0.001
1.605,-0.096
1.610,0.077
1.615,0.113
1.620,-0.062
1.625,0.026
1.630,0.171
1.635,0.009
1.640,-0.026
1.645,0.142
1.650,0.054
1.655,-0.035
1.660,0.139
1.665,0.117
1.670,-0.080
1.675,0.006
1.680,0.109
1.685,-0.080
1.690,-0.110
1.695,0.102
1.700,0.028
1.705,-0.128
1.710,0.024
1.715,0.060
1.720,-0.104
1.725,-0.017
1.730,0.088
1.735,-0.071
1.740,-0.072
1.745,0.095
1.750,-0.001
1.755,-0.109
1.760,0.073
1.765,0.085
1.770,-0.118
1.775,-0.031
1.780,0.093
1.785,-0.050
1.790,-0.059
1.795,0.162
1.800,0.284
1.805,0.377
1.810,0.550
1.815,0.489
1.820,0.172
1.825,0.002
1.830,-0.041
1.835,-0.186
1.840,-0.193
1.845,-0.049
1.850,-0.102
1.855,-0.175
1.860,-0.033
1.865,0.007
1.870,-0.123
1.875,-0.081
1.880,0.019
1.885,-0.092
1.890,-0.109
1.895,0.040
1.900,-0.025
1.905,-0.133
1.910,-0.003
1.915,0.019
1.920,-0.111
1.925,-0.015
1.930,0.079
1.935,-0.069
1.940,-0.071
1.945,0.081
1.950,0.001
1.955,-0.097
1.960,0.035
1.965,0.042
1.970,-0.090
1.975,-0.006
1.980,0.098
1.985,-0.035
1.990,-0.063
1.995,0.076
2.000,0.024
2.005,-0.053
2.010,0.064
2.015,0.077
2.020,-0.041
2.025,0.020
2.030,0.106
2.035,-0.004
2.040,0.002
2.045,0.137
2.050,0.061
2.055,-0.025
2.060,0.102
2.065,0.126
2.070,0.000
2.075,0.073
2.080,0.170
2.085,0.008
2.090,-0.043
2.095,0.102
2.100,0.071
2.105,-0.007
2.110,0.076
2.115,0.072
2.120,-0.075
2.125,-0.043
2.130,0.034
2.135,-0.119
2.140,-0.149
2.145,-0.013
2.150,-0.091
2.155,-0.179
2.160,-0.056
2.165,-0.044
2.170,-0.174
2.175,-0.114
2.180,-0.033
2.185,-0.149
2.190,-0.156
2.195,-0.026
2.200,-0.074
2.205,-0.151
2.210,-0.038
2.215,-0.027
2.220,-0.159
2.225,-0.079
2.230,0.024
2.235,-0.096
2.240,-0.080
2.245,0.053
2.250,-0.046
2.255,-0.127
2.260,0.001
2.265,0.010
2.270,-0.094
2.275,-0.014
2.280,0.047
2.285,-0.078
2.290,-0.061
2.295,0.072
2.300,-0.007
2.305,-0.099
2.310,0.034
2.315,0.049
2.320,-0.085
2.325,0.007
2.330,0.104
2.335,-0.051
2.340,-0.066
2.345,0.090
2.350,0.018
2.355,-0.064
2.360,0.060
2.365,0.032
2.370,-0.107
2.375,-0.002
2.380,0.094
2.385,-0.069
2.390,-0.071
2.395,0.106
2.400,0.025
2.405,-0.083
2.410,0.073
2.415,0.082
2.420,-0.093
2.425,0.013
2.430,0.131
2.435,-0.044
2.440,-0.046
2.445,0.137
2.450,0.038
2.455,-0.064
2.460,0.125
2.465,0.128
2.470,-0.077
2.475,0.032
2.480,0.173
2.485,0.011
2.490,-0.013
2.495,0.131
2.500,0.038
2.505,-0.055
2.510,0.108
2.515,0.119
2.520,-0.051
2.525,0.053
2.530,0.155
2.535,-0.050
2.540,-0.073
2.545,0.104
2.550,0.004
2.555,-0.116
2.560,0.038
2.565,0.052
2.570,-0.111
2.575,-0.031
2.580,0.080
2.585,-0.044
2.590,-0.050
2.595,0.087
2.600,-0.009
2.605,-0.104
2.610,0.068
2.615,0.068
2.620,-0.115
2.625,-0.002
2.630,0.083
2.635,-0.138
2.640,-0.110
2.645,0.155
2.650,0.171
2.655,0.236
2.660,0.573
2.665,0.622
2.670,0.326
2.675,0.208
2.680,0.125
2.685,-0.155
2.690,-0.190
2.695,-0.002
2.700,-0.091
2.705,-0.191
2.710,-0.030
2.715,-0.036
2.720,-0.185
2.725,-0.080
2.730,0.000
2.735,-0.153
2.740,-0.126
2.745,0.021
2.750,-0.101
2.755,-0.166
2.760,0.040
2.765,0.023
2.770,-0.176
2.775,-0.055
2.780,0.078
2.785,-0.091
2.790,-0.090
2.795,0.089
2.800,-0.026
2.805,-0.140
2.810,0.048
2.815,0.049
2.820,-0.137
2.825,-0.024
2.830,0.088
2.835,-0.076
2.840,-0.064
2.845,0.089
2.850,-0.036
2.855,-0.114
2.860,0.103
2.865,0.098
2.870,-0.121
2.875,0.003
2.880,0.129
2.885,-0.068
2.890,-0.043
2.895,0.158
2.900,0.038
2.905,-0.074
2.910,0.120
2.915,0.133
2.920,-0.040
2.925,0.074
2.930,0.161
2.935,-0.036
2.940,-0.013
2.945,0.181
2.950,0.065
2.955,-0.063
2.960,0.102
2.965,0.093
2.970,-0.105
2.975,-0.007
2.980,0.072
2.985,-0.122
2.990,-0.115
2.995,0.029
3.000,-0.075
3.005,-0.139
3.010,-0.018
3.015,-0.072
3.020,-0.190
3.025,-0.068
3.030,0.010
3.035,-0.149
3.040,-0.152
3.045,-0.003
3.050,-0.095
3.055,-0.172
3.060,-0.016
3.065,-0.029
3.070,-0.162
3.075,-0.051
3.080,0.010
3.085,-0.138
3.090,-0.095
3.095,0.047
3.100,-0.055
3.105,-0.128
3.110,0.027
3.115,0.022
3.120,-0.135
3.125,-0.030
3.130,0.069
3.135,-0.083
3.140,-0.070
3.145,0.067
3.150,-0.035
3.155,-0.108
3.160,0.049
3.165,0.047
3.170,-0.101
3.175,-0.008
3.180,0.076
3.185,-0.074
3.190,-0.050
3.195,0.108
3.200,-0.004
3.205,-0.086
3.210,0.077
3.215,0.043
3.220,-0.103
3.225,0.014
3.230,0.096
3.235,-0.049
3.240,-0.027
3.245,0.115
3.250,-0.005
3.255,-0.077
3.260,0.090
3.265,0.059
3.270,-0.070
3.275,0.064
3.280,0.116
3.285,-0.065
3.290,-0.048
3.295,0.088
3.300,0.008
3.305,-0.054
3.310,0.080
3.315,0.066
3.320,-0.077
3.325,0.018
3.330,0.103
3.335,-0.048
3.340,-0.022
3.345,0.122
3.350,0.010
3.355,-0.054
3.360,0.110
3.365,0.098
3.370,-0.042
3.375,0.072
3.380,0.161
3.385,-0.002
3.390,0.001
3.395,0.139
3.400,0.055
3.405,-0.002
3.410,0.113
3.415,0.062
3.420,-0.057
3.425,0.069
3.430,0.127
3.435,-0.050
3.440,-0.044
3.445,0.078
3.450,-0.035
3.455,-0.101
3.460,0.073
3.465,0.061
3.470,-0.105
3.475,-0.014
3.480,0.061
3.485,-0.084
3.490,-0.059
3.495,0.089
3.500,-0.009
3.505,-0.083
3.510,0.064
3.515,0.020
3.520,-0.124
3.525,-0.001
3.530,0.048
3.535,-0.138
3.540,-0.085
3.545,0.156
3.550,0.172
3.555,0.256
3.560,0.600
3.565,0.658
3.570,0.381
3.575,0.229
3.580,0.091
3.585,-0.160
3.590,-0.176
3.595,-0.043
3.600,-0.144
3.605,-0.210
3.610,-0.033
3.615,-0.011
3.620,-0.141
3.625,-0.084
3.630,-0.024
3.635,-0.145
3.640,-0.115
3.645,0.028
3.650,-0.089
3.655,-0.172
3.660,-0.001
3.665,-0.028
3.670,-0.160
3.675,-0.009
3.680,0.062
3.685,-0.119
3.690,-0.095
3.695,0.062
3.700,-0.037
3.705,-0.116
3.710,0.027
3.715,0.018
3.720,-0.108
3.725,0.005
3.730,0.087
3.735,-0.066
3.740,-0.060
3.745,0.067
3.750,-0.039
3.755,-0.082
3.760,0.098
3.765,0.058
3.770,-0.091
3.775,0.053
3.780,0.110
3.785,-0.086
3.790,-0.025
3.795,0.164
3.800,0.038
3.805,-0.056
3.810,0.132
3.815,0.114
3.820,-0.051
3.825,0.085
3.830,0.152
3.835,-0.020
3.840,0.028
3.845,0.163
3.850,0.039
3.855,-0.025
3.860,0.129
3.865,0.086
3.870,-0.078
3.875,-0.006
3.880,0.032
3.885,-0.124
3.890,-0.084
3.895,0.046
3.900,-0.114
3.905,-0.204
3.910,-0.038
3.915,-0.079
3.920,-0.219
3.925,-0.071
3.930,-0.001
3.935,-0.185
3.940,-0.159
3.945,0.000
3.950,-0.098
3.955,-0.167
3.960,-0.012
3.965,-0.045
3.970,-0.182
3.975,-0.037
3.980,0.050
3.985,-0.111
3.990,-0.092
3.995,0.041
4.000,-0.077
4.005,-0.146
4.010,0.034
4.015,0.015
4.020,-0.147
4.025,-0.018
4.030,0.077
4.035,-0.103
4.040,-0.081
4.045,0.086
4.050,-0.019
4.055,-0.086
4.060,0.075
4.065,0.041
4.070,-0.093
4.075,0.035
4.080,0.090
4.085,-0.107
4.090,-0.080
4.095,0.109
4.100,-0.012
4.105,-0.121
4.110,0.066
4.115,0.072
4.120,-0.087
4.125,0.016
4.130,0.104
4.135,-0.051
4.140,-0.042
4.145,0.124
4.150,0.018
4.155,-0.083
4.160,0.099
4.165,0.081
4.170,-0.094
4.175,0.036
4.180,0.121
4.185,-0.065
4.190,-0.030
4.195,0.149
4.200,0.009
4.205,-0.097
4.210,0.104
4.215,0.095
4.220,-0.093
4.225,0.036
4.230,0.146
4.235,-0.052
4.240,-0.039
4.245,0.153
4.250,0.048
4.255,-0.034
4.260,0.151
4.265,0.108
4.270,-0.076
4.275,0.061
4.280,0.158
4.285,-0.029
4.290,-0.012
4.295,0.176
4.300,0.054
4.305,-0.087
4.310,0.060
4.315,0.042
4.320,-0.127
4.325,0.012
4.330,0.107
4.335,-0.090
4.340,-0.073
4.345,0.101
4.350,-0.022
4.355,-0.139
4.360,0.047
4.365,0.058
4.370,-0.126
4.375,-0.025
4.380,0.078
4.385,-0.075
4.390,-0.041
4.395,0.120
4.400,-0.018
4.405,-0.145
4.410,-0.001
4.415,0.010
4.420,-0.071
4.425,0.188
4.430,0.485
4.435,0.468
4.440,0.473
4.445,0.455
4.450,0.083
4.455,-0.174
4.460,-0.056
4.465,-0.109
4.470,-0.272
4.475,-0.103
4.480,0.020
4.485,-0.150
4.490,-0.129
4.495,0.036
4.500,-0.088
4.505,-0.178
4.510,0.018
4.515,0.013
4.520,-0.155
4.525,-0.037
4.530,0.050
4.535,-0.124
4.540,-0.095
4.545,0.077
4.550,-0.052
4.555,-0.139
4.560,0.091
4.565,0.083
4.570,-0.148
4.575,-0.034
4.580,0.101
4.585,-0.076
4.590,-0.087
4.595,0.075
4.600,-0.014
4.605,-0.100
4.610,0.079
4.615,0.080
4.620,-0.093
4.625,0.031
4.630,0.134
4.635,-0.059
4.640,-0.046
4.645,0.137
4.650,0.013
4.655,-0.069
4.660,0.150
4.665,0.119
4.670,-0.077
4.675,0.058
4.680,0.159
4.685,-0.013
4.690,0.013
4.695,0.150
4.700,0.014
4.705,-0.038
4.710,0.159
4.715,0.128
4.720,-0.046
4.725,0.069
4.730,0.141
4.735,-0.045
4.740,-0.027
4.745,0.130
4.750,-0.005
4.755,-0.132
4.760,0.011
4.765,-0.029
4.770,-0.196
4.775,-0.066
4.780,-0.005
4.785,-0.214
4.790,-0.181
4.795,-0.001
4.800,-0.135
4.805,-0.218
4.810,-0.034
4.815,-0.048
4.820,-0.197
4.825,-0.074
4.830,0.020
4.835,-0.147
4.840,-0.128
4.845,0.045
4.850,-0.056
4.855,-0.154
4.860,0.007
4.865,-0.015
4.870,-0.184
4.875,-0.038
4.880,0.082
4.885,-0.078
4.890,-0.077
4.895,0.062
4.900,-0.053
4.905,-0.140
4.910,0.063
4.915,0.062
4.920,-0.130
4.925,-0.010
4.930,0.103
4.935,-0.073
4.940,-0.031
4.945,0.141
4.950,-0.037
4.955,-0.125
4.960,0.087
4.965,0.031
4.970,-0.148
4.975,-0.002
4.980,0.106
4.985,-0.047
4.990,-0.032
4.995,0.122
5.000,-0.008
5.005,-0.115
5.010,0.067
5.015,0.063
5.020,-0.095
5.025,0.032
5.030,0.132
5.035,-0.030
5.040,-0.042
5.045,0.080
5.050,-0.031
5.055,-0.108
5.060,0.097
5.065,0.085
5.070,-0.108
5.075,0.030
5.080,0.139
5.085,-0.046
5.090,-0.013
5.095,0.168
5.100,0.024
5.105,-0.074
5.110,0.132
5.115,0.127
5.120,-0.049
5.125,0.060
5.130,0.151
5.135,-0.043
5.140,-0.026
5.145,0.180
5.150,0.052
5.155,-0.074
5.160,0.100
5.165,0.072
5.170,-0.099
5.175,0.017
5.180,0.067
5.185,-0.119
5.190,-0.069
5.195,0.122
5.200,-0.011
5.205,-0.134
5.210,0.052
5.215,0.042
5.220,-0.118
5.225,0.008
5.230,0.084
5.235,-0.086
5.240,-0.058
5.245,0.093
5.250,-0.027
5.255,-0.087
5.260,0.068
5.265,-0.023
5.270,-0.177
5.275,0.024
5.280,0.220
5.285,0.214
5.290,0.419
5.295,0.663
5.300,0.458
5.305,0.167
5.310,0.139
5.315,-0.012
5.320,-0.233
5.325,-0.107
5.330,-0.007
5.335,-0.193
5.340,-0.169
5.345,0.021
5.350,-0.102
5.355,-0.194
5.360,0.012
5.365,0.005
5.370,-0.135
5.375,-0.011
5.380,0.029
5.385,-0.114
5.390,-0.053
5.395,0.038
5.400,-0.098
5.405,-0.112
5.410,0.058
5.415,-0.012
5.420,-0.142
5.425,0.007
5.430,0.048
5.435,-0.114
5.440,-0.026
5.445,0.098
5.450,-0.067
5.455,-0.092
5.460,0.099
5.465,0.016
5.470,-0.130
5.475,0.055
5.480,0.120
5.485,-0.085
5.490,-0.024
5.495,0.149
5.500,-0.021
5.505,-0.081
5.510,0.134
5.515,0.065
5.520,-0.085
5.525,0.087
5.530,0.133
5.535,-0.057
5.540,0.012
5.545,0.162
5.550,0.010
5.555,-0.042
5.560,0.181
5.565,0.130
5.570,-0.058
5.575,0.077
5.580,0.139
5.585,-0.031
5.590,0.023
5.595,0.136
5.600,-0.050
5.605,-0.106
5.610,0.074
5.615,-0.025
5.620,-0.182
5.625,-0.022
5.630,0.008
5.635,-0.198
5.640,-0.136
5.645,0.022
5.650,-0.137
5.655,-0.210
5.660,-0.023
5.665,-0.086
5.670,-0.215
5.675,-0.030
5.680,-0.011
5.685,-0.216
5.690,-0.117
5.695,0.046
5.700,-0.110
5.705,-0.158
5.710,0.044
5.715,-0.021
5.720,-0.176
5.725,-0.014
5.730,0.040
5.735,-0.134
5.740,-0.047
5.745,0.093
5.750,-0.071
5.755,-0.112
5.760,0.053
5.765,-0.011
5.770,-0.107
5.775,0.060
5.780,0.067
5.785,-0.144
5.790,-0.032
5.795,0.129
5.800,-0.057
5.805,-0.076
5.810,0.123
5.815,0.022
5.820,-0.118
5.825,0.065
5.830,0.105
5.835,-0.093
5.840,-0.030
5.845,0.094
5.850,-0.055
5.855,-0.091
5.860,0.091
5.865,0.044
5.870,-0.104
5.875,0.015
5.880,0.059
5.885,-0.074
5.890,-0.002
5.895,0.095
5.900,-0.034
5.905,-0.045
5.910,0.127
5.915,0.071
5.920,-0.066
5.925,0.047
5.930,0.075
5.935,-0.069
5.940,0.008
5.945,0.129
5.950,-0.004
5.955,-0.032
5.960,0.137
5.965,0.079
5.970,-0.036
5.975,0.115
5.980,0.151
5.985,-0.012
5.990,0.059
5.995,0.192
6.000,0.039
6.005,-0.030
6.010,0.117
6.015,0.058
6.020,-0.063
6.025,0.076
6.030,0.117
6.035,-0.050
6.040,0.003
6.045,0.111
6.050,-0.041
6.055,-0.075
6.060,0.093
6.065,0.037
6.070,-0.082
6.075,0.052
6.080,0.082
6.085,-0.083
6.090,-0.011
6.095,0.120
6.100,-0.019
6.105,-0.068
6.110,0.081
6.115,0.009
6.120,-0.104
6.125,0.058
6.130,0.070
6.135,-0.141
6.140,-0.074
6.145,0.115
6.150,0.084
6.155,0.227
6.160,0.588
6.165,0.604
6.170,0.392
6.175,0.308
6.180,0.108
6.185,-0.183
6.190,-0.154
6.195,-0.052
6.200,-0.209
6.205,-0.192
6.210,0.023
6.215,-0.060
6.220,-0.189
6.225,-0.038
6.230,-0.006
6.235,-0.191
6.240,-0.138
6.245,-0.010
6.250,-0.140
6.255,-0.148
6.260,0.018
6.265,-0.065
6.270,-0.177
6.275,-0.024
6.280,0.001
6.285,-0.172
6.290,-0.075
6.295,0.073
6.300,-0.089
6.305,-0.128
6.310,0.066
6.315,0.011
6.320,-0.123
6.325,0.016
6.330,0.041
6.335,-0.131
6.340,-0.040
6.345,0.089
6.350,-0.083
6.355,-0.106
6.360,0.076
6.365,-0.009
6.370,-0.115
6.375,0.063
6.380,0.099
6.385,-0.080
6.390,-0.007
6.395,0.123
6.400,-0.033
6.405,-0.025
6.410,0.176
6.415,0.076
6.420,-0.043
6.425,0.115
6.430,0.142
6.435,-0.010
6.440,0.065
6.445,0.164
6.450,0.004
6.455,-0.009
6.460,0.153
6.465,0.046
6.470,-0.095
6.475,0.044
6.480,0.047
6.485,-0.146
6.490,-0.097
6.495,0.016
6.500,-0.127
6.505,-0.181
6.510,-0.029
6.515,-0.104
6.520,-0.232
6.525,-0.082
6.530,-0.049
6.535,-0.204
6.540,-0.120
6.545,-0.013
6.550,-0.136
6.555,-0.110
6.560,0.034
6.565,-0.063
6.570,-0.152
6.575,-0.005
6.580,0.009
6.585,-0.142
6.590,-0.031
6.595,0.104
6.600,-0.073
6.605,-0.112
6.610,0.061
6.615,-0.039
6.620,-0.158
6.625,0.040
6.630,0.087
6.635,-0.090
6.640,-0.017
6.645,0.108
6.650,-0.026
6.655,-0.051
6.660,0.092
6.665,-0.007
6.670,-0.118
6.675,0.060
6.680,0.116
6.685,-0.033
6.690,0.029
6.695,0.138
6.700,-0.011
6.705,-0.037
6.710,0.114
6.715,0.019
6.720,-0.092
6.725,0.067
6.730,0.094
6.735,-0.089
6.740,-0.016
6.745,0.119
6.750,-0.030
6.755,-0.046
6.760,0.123
6.765,0.040
6.770,-0.063
6.775,0.089
6.780,0.100
6.785,-0.061
6.790,0.055
6.795,0.165
6.800,-0.056
6.805,-0.088
6.810,0.111
6.815,0.045
6.820,-0.077
6.825,0.076
6.830,0.111
6.835,-0.078
6.840,-0.044
6.845,0.075
6.850,-0.057
6.855,-0.073
6.860,0.116
6.865,0.075
6.870,-0.017
6.875,0.087
6.880,0.077
6.885,-0.052
6.890,0.034
6.895,0.111
6.900,-0.041
6.905,-0.013
6.910,0.157
6.915,0.052
6.920,-0.065
6.925,0.102
6.930,0.118
6.935,-0.111
6.940,-0.065
6.945,0.086
6.950,-0.058
6.955,-0.088
6.960,0.092
6.965,-0.002
6.970,-0.142
6.975,0.023
6.980,0.047
6.985,-0.122
6.990,-0.032
6.995,0.092
7.000,-0.044
7.005,-0.069
7.010,0.088
7.015,0.014
7.020,-0.119
7.025,-0.003
7.030,0.024
7.035,-0.052
7.040,0.191
7.045,0.509
7.050,0.519
7.055,0.506
7.060,0.538
7.065,0.243
7.070,-0.090
7.075,-0.053
7.080,-0.075
7.085,-0.267
7.090,-0.161
7.095,0.005
7.100,-0.148
7.105,-0.167
7.110,0.022
7.115,-0.067
7.120,-0.188
7.125,-0.030
7.130,-0.008
7.135,-0.177
7.140,-0.090
7.145,0.050
7.150,-0.091
7.155,-0.129
7.160,0.020
7.165,-0.053
7.170,-0.133
7.175,0.027
7.180,0.016
7.185,-0.145
7.190,-0.048
7.195,0.043
7.200,-0.116
7.205,-0.117
7.210,0.050
7.215,-0.022
7.220,-0.113
7.225,0.048
7.230,0.064
7.235,-0.089
7.240,0.017
7.245,0.122
7.250,-0.066
7.255,-0.096
7.260,0.089
7.265,0.024
7.270,-0.073
7.275,0.075
7.280,0.073
7.285,-0.072
7.290,0.056
7.295,0.173
7.300,0.000
7.305,0.001
7.310,0.175
7.315,0.079
7.320,-0.018
7.325,0.134
7.330,0.115
7.335,-0.044
7.340,0.071
7.345,0.169
7.350,-0.014
7.355,-0.036
7.360,0.109
7.365,-0.013
7.370,-0.143
7.375,0.015
7.380,0.043
7.385,-0.140
7.390,-0.113
7.395,-0.042
7.400,-0.180
7.405,-0.168
7.410,-0.004
7.415,-0.100
7.420,-0.212
7.425,-0.050
7.430,-0.031
7.435,-0.197
7.440,-0.106
7.445,0.002
7.450,-0.141
7.455,-0.122
7.460,0.001
7.465,-0.116
7.470,-0.165
7.475,-0.005
7.480,-0.008
7.485,-0.164
7.490,-0.070
7.495,0.041
7.500,-0.126
7.505,-0.120
7.510,0.057
7.515,-0.045
7.520,-0.143
7.525,0.032
7.530,0.043
7.535,-0.128
7.540,-0.033
7.545,0.080
7.550,-0.097
7.555,-0.109
7.560,0.070
7.565,-0.006
7.570,-0.102
7.575,0.058
7.580,0.081
7.585,-0.098
7.590,-0.007
7.595,0.102
7.600,-0.083
7.605,-0.073
7.610,0.109
7.615,0.002
7.620,-0.115
7.625,0.040
7.630,0.055
7.635,-0.115
7.640,-0.034
7.645,0.072
7.650,-0.075
7.655,-0.035
7.660,0.144
7.665,0.008
7.670,-0.096
7.675,0.099
7.680,0.103
7.685,-0.085
7.690,0.004
7.695,0.102
7.700,-0.073
7.705,-0.082
7.710,0.086
7.715,0.002
7.720,-0.095
7.725,0.062
7.730,0.069
7.735,-0.093
7.740,0.014
7.745,0.131
7.750,-0.039
7.755,-0.033
7.760,0.133
7.765,0.031
7.770,-0.052
7.775,0.112
7.780,0.133
7.785,-0.021
7.790,0.053
7.795,0.178
7.800,0.016
7.805,-0.027
7.810,0.153
7.815,0.061
7.820,-0.063
7.825,0.116
7.830,0.122
7.835,-0.071
7.840,0.013
7.845,0.107
7.850,-0.065
7.855,-0.074
7.860,0.078
7.865,-0.025
7.870,-0.107
7.875,0.076
7.880,0.058
7.885,-0.123
7.890,0.002
7.895,0.088
7.900,-0.099
7.905,-0.061
7.910,0.129
7.915,0.032
7.920,-0.076
7.925,0.056
7.930,0.031
7.935,-0.140
7.940,-0.003
7.945,0.169
7.950,0.124
7.955,0.353
7.960,0.685
7.965,0.582
7.970,0.376
7.975,0.289
7.980,0.028
7.985,-0.227
7.990,-0.131
7.995,-0.011
8.000,-0.153
8.005,-0.152
8.010,0.008
8.015,-0.101
8.020,-0.198
8.025,-0.017
8.030,-0.019
8.035,-0.195
8.040,-0.064
8.045,0.072
8.050,-0.090
8.055,-0.057
8.060,0.118
8.065,-0.051
8.070,-0.183
8.075,0.000
8.080,-0.009
8.085,-0.178
8.090,-0.054
8.095,0.056
8.100,-0.108
8.105,-0.095
8.110,0.071
8.115,-0.024
8.120,-0.105
8.125,0.045
8.130,0.022
8.135,-0.142
8.140,-0.015
8.145,0.087
8.150,-0.105
8.155,-0.063
8.160,0.141
8.165,0.012
8.170,-0.112
8.175,0.052
8.180,0.041
8.185,-0.128
8.190,-0.001
8.195,0.112
8.200,-0.056
8.205,-0.039
8.210,0.143
8.215,0.035
8.220,-0.059
8.225,0.124
8.230,0.142
8.235,-0.022
8.240,0.060
8.245,0.164
8.250,-0.021
8.255,-0.043
8.260,0.142
8.265,0.040
8.270,-0.083
8.275,0.064
8.280,0.061
8.285,-0.112
8.290,-0.055
8.295,0.015
8.300,-0.151
8.305,-0.151
8.310,0.006
8.315,-0.092
8.320,-0.175
8.325,-0.007
8.330,-0.008
8.335,-0.171
8.340,-0.078
8.345,0.016
8.350,-0.144
8.355,-0.125
8.360,0.044
8.365,-0.045
8.370,-0.111
8.375,0.048
8.380,0.013
8.385,-0.152
8.390,-0.013
8.395,0.108
8.400,-0.086
8.405,-0.093
8.410,0.097
8.415,0.021
8.420,-0.076
8.425,0.075
8.430,0.074
8.435,-0.091
8.440,0.016
8.445,0.122
8.450,-0.053
8.455,-0.044
8.460,0.126
8.465,-0.002
8.470,-0.105
8.475,0.085
8.480,0.079
8.485,-0.091
8.490,0.029
8.495,0.129
8.500,-0.035
8.505,-0.026
8.510,0.129
8.515,0.028
8.520,-0.039
8.525,0.132
8.530,0.059
8.535,-0.119
8.540,0.022
8.545,0.085
8.550,-0.099
8.555,-0.048
8.560,0.138
8.565,0.022
8.570,-0.084
8.575,0.080
8.580,0.079
8.585,-0.084
8.590,0.033
8.595,0.142
8.600,-0.044
8.605,-0.031
8.610,0.145
8.615,0.015
8.620,-0.106
8.625,0.052
8.630,0.052
8.635,-0.095
8.640,0.026
8.645,0.113
8.650,-0.060
8.655,-0.044
8.660,0.125
8.665,0.036
8.670,-0.033
8.675,0.125
8.680,0.097
8.685,-0.018
8.690,0.106
8.695,0.125
8.700,-0.047
8.705,0.018
8.710,0.173
8.715,0.028
8.720,-0.078
8.725,0.104
8.730,0.080
8.735,-0.107
8.740,0.004
8.745,0.082
8.750,-0.099
8.755,-0.086
8.760,0.066
8.765,-0.043
8.770,-0.111
8.775,0.081
8.780,0.034
8.785,-0.171
8.790,-0.022
8.795,0.099
8.800,-0.069
8.805,-0.074
8.810,0.057
8.815,-0.033
8.820,-0.124
8.825,0.038
8.830,0.033
8.835,-0.163
8.840,-0.053
8.845,0.099
8.850,0.016
8.855,0.204
8.860,0.605
8.865,0.611
8.870,0.424
8.875,0.355
8.880,0.103
8.885,-0.189
8.890,-0.128
8.895,-0.071
8.900,-0.221
8.905,-0.162
8.910,-0.003
8.915,-0.131
8.920,-0.211
8.925,-0.018
8.930,-0.024
8.935,-0.209
8.940,-0.108
8.945,-0.002
8.950,-0.150
8.955,-0.114
8.960,0.051
8.965,-0.063
8.970,-0.161
8.975,-0.001
8.980,0.016
8.985,-0.118
8.990,-0.016
8.995,0.050
9.000,-0.134
9.005,-0.099
9.010,0.084
9.015,-0.036
9.020,-0.147
9.025,0.027
9.030,0.048
9.035,-0.092
9.040,0.028
9.045,0.099
9.050,-0.088
9.055,-0.060
9.060,0.114
9.065,0.022
9.070,-0.072
9.075,0.079
9.080,0.074
9.085,-0.083
9.090,0.050
9.095,0.144
9.100,-0.035
9.105,0.004
9.110,0.173
9.115,0.053
9.120,-0.036
9.125,0.128
9.130,0.117
9.135,-0.030
9.140,0.092
9.145,0.176
9.150,-0.001
9.155,0.017
9.160,0.175
9.165,0.050
9.170,-0.066
9.175,0.077
9.180,0.043
9.185,-0.149
9.190,-0.051
9.195,0.025
9.200,-0.172
9.205,-0.153
9.210,0.000
9.215,-0.134
9.220,-0.212
9.225,-0.028
9.230,-0.050
9.235,-0.228
9.240,-0.106
9.245,0.003
9.250,-0.160
9.255,-0.149
9.260,0.010
9.265,-0.089
9.270,-0.184
9.275,-0.039
9.280,-0.033
9.285,-0.158
9.290,-0.041
9.295,0.035
9.300,-0.146
9.305,-0.104
9.310,0.092
9.315,-0.048
9.320,-0.171
9.325,0.033
9.330,0.047
9.335,-0.131
9.340,-0.014
9.345,0.082
9.350,-0.093
9.355,-0.067
9.360,0.105
9.365,-0.021
9.370,-0.127
9.375,0.058
9.380,0.057
9.385,-0.110
9.390,0.005
9.395,0.094
9.400,-0.080
9.405,-0.053
9.410,0.111
9.415,-0.012
9.420,-0.108
9.425,0.055
9.430,0.053
9.435,-0.095
9.440,0.012
9.445,0.105
9.450,-0.049
9.455,-0.019
9.460,0.126
9.465,-0.017
9.470,-0.095
9.475,0.100
9.480,0.097
9.485,-0.085
9.490,-0.009
9.495,0.089
9.500,-0.059
9.505,-0.023
9.510,0.125
9.515,-0.017
9.520,-0.087
9.525,0.098
9.530,0.069
9.535,-0.089
9.540,0.071
9.545,0.173
9.550,-0.026
9.555,-0.012
9.560,0.150
9.565,0.053
9.570,-0.035
9.575,0.109
9.580,0.120
9.585,-0.019
9.590,0.072
9.595,0.143
9.600,-0.027
9.605,-0.002
9.610,0.147
9.615,0.011
9.620,-0.082
9.625,0.081
9.630,0.037
9.635,-0.118
9.640,0.016
9.645,0.075
9.650,-0.095
9.655,-0.064
9.660,0.089
9.665,-0.013
9.670,-0.113
9.675,0.050
9.680,0.052
9.685,-0.112
9.690,0.007
9.695,0.093
9.700,-0.078
9.705,-0.052
9.710,0.072
9.715,-0.071
9.720,-0.123
9.725,0.122
9.730,0.237
9.735,0.268
9.740,0.541
9.745,0.613
9.750,0.239
9.755,0.018
9.760,0.012
9.765,-0.165
9.770,-0.226
9.775,-0.032
9.780,-0.072
9.785,-0.229
9.790,-0.068
9.795,0.035
9.800,-0.136
9.805,-0.103
9.810,0.072
9.815,-0.068
9.820,-0.191
9.825,0.001
9.830,0.006
9.835,-0.141
9.840,-0.008
9.845,0.062
9.850,-0.111
9.855,-0.082
9.860,0.078
9.865,-0.030
9.870,-0.111
9.875,0.050
9.880,0.020
9.885,-0.117
9.890,0.006
9.895,0.064
9.900,-0.088
9.905,-0.053
9.910,0.088
9.915,-0.027
9.920,-0.097
9.925,0.084
9.930,0.069
9.935,-0.084
9.940,0.031
9.945,0.096
9.950,-0.067
9.955,-0.010
9.960,0.161
9.965,0.021
9.970,-0.071
9.975,0.126
9.980,0.126
9.985,-0.058
9.990,0.042
9.995,0.161
10.000,0.008
10.005,0.019
10.010,0.174
10.015,0.068
10.020,-0.011
10.025,0.151
10.030,0.114
10.035,-0.061
10.040,0.063
10.045,0.135
10.050,-0.065
10.055,-0.061
10.060,0.062
10.065,-0.089
10.070,-0.181
10.075,-0.010
10.080,-0.046
10.085,-0.211
10.090,-0.080
10.095,-0.003
10.100,-0.153
10.105,-0.111
10.110,-0.019
10.115,-0.152
10.120,-0.167
10.125,0.004
10.130,-0.054
10.135,-0.192
10.140,-0.056
10.145,-0.001
10.150,-0.149
10.155,-0.089
10.160,0.055
10.165,-0.063
10.170,-0.125
10.175,0.046
10.180,-0.009
10.185,-0.179
10.190,-0.018
10.195,0.086
10.200,-0.076
10.205,-0.038
10.210,0.075
10.215,-0.072
10.220,-0.111
10.225,0.079
10.230,0.037
10.235,-0.110
10.240,0.006
10.245,0.068
10.250,-0.085
10.255,-0.052
10.260,0.096
10.265,-0.015
10.270,-0.092
10.275,0.071
10.280,0.047
10.285,-0.078
10.290,0.037
10.295,0.061
10.300,-0.101
10.305,-0.023
10.310,0.161
10.315,0.005
10.320,-0.114
10.325,0.074
10.330,0.059
10.335,-0.085
10.340,0.029
10.345,0.085
10.350,-0.074
10.355,-0.046
10.360,0.101
10.365,-0.011
10.370,-0.074
10.375,0.093
10.380,0.066
10.385,-0.051
10.390,0.069
10.395,0.113
10.400,-0.056
10.405,0.010
10.410,0.192
10.415,0.035
10.420,-0.058
10.425,0.121
10.430,0.076
10.435,-0.059
10.440,0.081
10.445,0.127
10.450,-0.047
10.455,-0.009
10.460,0.116
10.465,-0.032
10.470,-0.121
10.475,0.062
10.480,0.049
10.485,-0.122
10.490,-0.024
10.495,0.068
10.500,-0.060
10.505,-0.036
10.510,0.074
10.515,-0.056
10.520,-0.112
10.525,0.058
10.530,0.014
10.535,-0.116
10.540,0.024
10.545,0.061
10.550,-0.127
10.555,-0.085
10.560,0.098
10.565,0.088
10.570,0.205
10.575,0.549
10.580,0.578
10.585,0.381
10.590,0.344
10.595,0.172
10.600,-0.158
10.605,-0.161
10.610,-0.008
10.615,-0.130
10.620,-0.195
10.625,-0.008
10.630,-0.026
10.635,-0.179
10.640,-0.077
10.645,-0.006
10.650,-0.151
10.655,-0.106
10.660,0.051
10.665,-0.078
10.670,-0.163
10.675,0.031
10.680,0.017
10.685,-0.152
10.690,-0.033
10.695,0.042
10.700,-0.113
10.705,-0.049
10.710,0.085
10.715,-0.064
10.720,-0.117
10.725,0.073
10.730,0.024
10.735,-0.126
10.740,0.040
10.745,0.129
10.750,-0.062
10.755,-0.061
10.760,0.058
10.765,-0.050
10.770,-0.072
10.775,0.100
10.780,0.049
10.785,-0.081
10.790,0.062
10.795,0.111
10.800,-0.058
10.805,-0.008
10.810,0.142
10.815,0.017
10.820,-0.032
10.825,0.174
10.830,0.112
10.835,-0.064
10.840,0.094
10.845,0.168
10.850,-0.007
10.855,0.053
10.860,0.188
10.865,0.021
10.870,-0.046
10.875,0.122
10.880,0.074
10.885,-0.073
10.890,0.023
10.895,0.046
10.900,-0.142
10.905,-0.097
10.910,0.045
10.915,-0.103
10.920,-0.164
10.925,0.006
10.930,-0.059
10.935,-0.205
10.940,-0.059
10.945,-0.015
10.950,-0.201
10.955,-0.140
10.960,0.020
10.965,-0.118
10.970,-0.178
10.975,0.017
10.980,-0.009
10.985,-0.151
10.990,-0.044
10.995,0.010
11.000,-0.135
11.005,-0.101
11.010,0.039
11.015,-0.045
11.020,-0.088
11.025,0.040
11.030,-0.034
11.035,-0.158
11.040,0.002
11.045,0.059
11.050,-0.118
11.055,-0.061
11.060,0.083
11.065,-0.045
11.070,-0.065
11.075,0.110
11.080,0.032
11.085,-0.104
11.090,0.038
11.095,0.082
11.100,-0.136
11.105,-0.090
11.110,0.119
11.115,-0.011
11.120,-0.100
11.125,0.081
11.130,0.046
11.135,-0.090
11.140,0.052
11.145,0.097
11.150,-0.086
11.155,-0.037
11.160,0.110
11.165,-0.008
11.170,-0.058
11.175,0.098
11.180,0.030
11.185,-0.091
11.190,0.062
11.195,0.085
11.200,-0.085
11.205,-0.025
11.210,0.114
11.215,-0.008
11.220,-0.076
11.225,0.090
11.230,0.049
11.235,-0.073
11.240,0.070
11.245,0.107
11.250,-0.053
11.255,0.014
11.260,0.139
11.265,0.006
11.270,-0.020
11.275,0.145
11.280,0.077
11.285,-0.066
11.290,0.067
11.295,0.128
11.300,-0.031
11.305,0.023
11.310,0.173
11.315,0.047
11.320,-0.035
11.325,0.092
11.330,0.014
11.335,-0.142
11.340,0.012
11.345,0.062
11.350,-0.128
11.355,-0.044
11.360,0.102
11.365,-0.054
11.370,-0.092
11.375,0.080
11.380,0.016
11.385,-0.112
11.390,0.025
11.395,0.070
11.400,-0.092
11.405,-0.045
11.410,0.092
11.415,-0.055
11.420,-0.144
11.425,0.041
11.430,0.070
11.435,0.022
11.440,0.314
11.445,0.595
11.450,0.553
11.455,0.528
11.460,0.410
11.465,0.001
11.470,-0.177
11.475,-0.047
11.480,-0.125
11.485,-0.245
11.490,-0.086
11.495,-0.030
11.500,-0.178
11.505,-0.108
11.510,0.030
11.515,-0.102
11.520,-0.174
11.525,-0.034
11.530,-0.077
11.535,-0.175
11.540,-0.017
11.545,0.029
11.550,-0.139
11.555,-0.072
11.560,0.073
11.565,-0.082
11.570,-0.149
11.575,0.043
11.580,0.002
11.585,-0.129
11.590,0.021
11.595,0.071
11.600,-0.106
11.605,-0.068
11.610,0.066
11.615,-0.047
11.620,-0.096
11.625,0.074
11.630,0.035
11.635,-0.104
11.640,0.039
11.645,0.086
11.650,-0.089
11.655,-0.019
11.660,0.121
11.665,-0.013
11.670,-0.058
11.675,0.111
11.680,0.058
11.685,-0.056
11.690,0.110
11.695,0.166
11.700,-0.015
11.705,0.044
11.710,0.206
11.715,0.052
11.720,-0.024
11.725,0.124
11.730,0.065
11.735,-0.015
11.740,0.127
11.745,0.107
11.750,-0.076
11.755,-0.014
11.760,0.085
11.765,-0.076
11.770,-0.129
11.775,0.018
11.780,-0.065
11.785,-0.213
11.790,-0.076
11.795,-0.012
11.800,-0.163
11.805,-0.129
11.810,-0.023
11.815,-0.161
11.820,-0.195
11.825,-0.006
11.830,-0.058
11.835,-0.174
11.840,-0.030
11.845,-0.016
11.850,-0.176
11.855,-0.099
11.860,0.037
11.865,-0.072
11.870,-0.125
11.875,0.009
11.880,-0.042
11.885,-0.151
11.890,-0.002
11.895,0.043
11.900,-0.105
11.905,-0.031
11.910,0.067
11.915,-0.082
11.920,-0.080
11.925,0.097
11.930,0.000
11.935,-0.131
11.940,0.025
11.945,0.075
11.950,-0.075
11.955,-0.025
11.960,0.084
11.965,-0.042
11.970,-0.073
11.975,0.086
11.980,0.026
11.985,-0.074
11.990,0.067
11.995,0.067
12.000,-0.092
12.005,-0.006
12.010,0.113
12.015,-0.026
12.020,-0.067
12.025,0.096
12.030,0.034
12.035,-0.089
12.040,0.059
12.045,0.092
12.050,-0.075
12.055,-0.007
12.060,0.116
12.065,-0.035
12.070,-0.071
12.075,0.106
12.080,0.039
12.085,-0.090
12.090,0.058
12.095,0.098
12.100,-0.064
12.105,-0.003
12.110,0.131
12.115,0.002
12.120,-0.064
12.125,0.083
12.130,0.041
12.135,-0.059
12.140,0.086
12.145,0.116
12.150,-0.039
12.155,0.002
12.160,0.119
12.165,0.026
12.170,-0.003
12.175,0.152
12.180,0.084
12.185,-0.050
12.190,0.103
12.195,0.133
12.200,-0.052
12.205,0.020
12.210,0.128
12.215,-0.049
12.220,-0.089
12.225,0.055
12.230,-0.025
12.235,-0.127
12.240,0.017
12.245,0.049
12.250,-0.109
12.255,-0.047
12.260,0.095
12.265,-0.025
12.270,-0.072
12.275,0.074
12.280,0.007
12.285,-0.105
12.290,0.027
12.295,0.060
12.300,-0.084
12.305,-0.038
12.310,0.037
12.315,-0.099
12.320,-0.045
12.325,0.269
12.330,0.407
12.335,0.439
12.340,0.563
12.345,0.421
12.350,0.034
12.355,-0.062
12.360,-0.045
12.365,-0.213
12.370,-0.202
12.375,-0.019
12.380,-0.092
12.385,-0.188
12.390,-0.012
12.395,0.009
12.400,-0.153
12.405,-0.060
12.410,0.047
12.415,-0.107
12.420,-0.116
12.425,0.049
12.430,-0.032
12.435,-0.149
12.440,-0.007
12.445,0.023
12.450,-0.135
12.455,-0.049
12.460,0.095
12.465,-0.051
12.470,-0.083
12.475,0.094
12.480,-0.001
12.485,-0.135
12.490,0.046
12.495,0.073
12.500,-0.106
12.505,-0.005
12.510,0.120
12.515,-0.032
12.520,-0.064
12.525,0.085
12.530,0.019
12.535,-0.086
12.540,0.070
12.545,0.118
12.550,-0.043
12.555,0.012
12.560,0.128
12.565,-0.001
12.570,-0.001
12.575,0.159
12.580,0.046
12.585,-0.069
12.590,0.101
12.595,0.141
12.600,-0.009
12.605,0.048
12.610,0.152
12.615,0.007
12.620,-0.003
12.625,0.177
12.630,0.089
12.635,-0.049
12.640,0.062
12.645,0.061
12.650,-0.122
12.655,-0.080
12.660,0.027
12.665,-0.131
12.670,-0.168
12.675,-0.036
12.680,-0.159
12.685,-0.269
12.690,-0.077
12.695,-0.037
12.700,-0.220
12.705,-0.147
12.710,-0.025
12.715,-0.169
12.720,-0.156
12.725,0.037
12.730,-0.060
12.735,-0.194
12.740,-0.013
12.745,0.093
12.750,-0.018
12.755,0.001
12.760,0.060
12.765,-0.065
12.770,-0.097
12.775,0.013
12.780,-0.069
12.785,-0.146
12.790,0.014
12.795,0.025
12.800,-0.105
12.805,-0.002
12.810,0.080
12.815,-0.076
12.820,-0.088
12.825,0.058
12.830,-0.007
12.835,-0.086
12.840,0.041
12.845,0.046
12.850,-0.095
12.855,-0.019
12.860,0.089
12.865,-0.047
12.870,-0.054
12.875,0.099
12.880,0.002
12.885,-0.115
12.890,0.033
12.895,0.054
12.900,-0.093
12.905,-0.012
12.910,0.087
12.915,-0.050
12.920,-0.066
12.925,0.083
12.930,0.014
12.935,-0.081
12.940,0.054
12.945,0.074
12.950,-0.065
12.955,0.007
12.960,0.093
12.965,-0.067
12.970,-0.071
12.975,0.101
12.980,0.024
12.985,-0.075
12.990,0.053
12.995,0.056
13.000,-0.082
13.005,0.017
13.010,0.124
13.015,-0.034
13.020,-0.043
13.025,0.129
13.030,0.059
13.035,-0.034
13.040,0.090
13.045,0.095
13.050,-0.026
13.055,0.050
13.060,0.112
13.065,-0.018
13.070,0.002
13.075,0.133
13.080,0.036
13.085,-0.052
13.090,0.069
13.095,0.047
13.100,-0.100
13.105,-0.016
13.110,0.074
13.115,-0.068
13.120,-0.072
13.125,0.073
13.130,-0.008
13.135,-0.094
13.140,0.039
13.145,0.040
13.150,-0.099
13.155,-0.011
13.160,0.086
13.165,-0.076
13.170,-0.090
13.175,0.077
13.180,-0.003
13.185,-0.114
13.190,0.000
13.195,0.010
13.200,-0.066
13.205,0.130
13.210,0.382
13.215,0.425
13.220,0.515
13.225,0.593
13.230,0.298
13.235,-0.042
13.240,-0.037
13.245,-0.071
13.250,-0.227
13.255,-0.121
13.260,-0.029
13.265,-0.174
13.270,-0.147
13.275,0.007
13.280,-0.072
13.285,-0.152
13.290,-0.023
13.295,-0.016
13.300,-0.140
13.305,-0.051
13.310,0.030
13.315,-0.091
13.320,-0.067
13.325,0.044
13.330,-0.068
13.335,-0.137
13.340,0.011
13.345,0.030
13.350,-0.095
13.355,-0.042
13.360,0.059
13.365,-0.038
13.370,-0.058
13.375,0.064
13.380,-0.005
13.385,-0.075
13.390,0.058
13.395,0.050
13.400,-0.084
13.405,0.003
13.410,0.100
13.415,-0.008
13.420,0.001
13.425,0.113
13.430,0.009
13.435,-0.073
13.440,0.072
13.445,0.091
13.450,-0.034
13.455,0.050
13.460,0.146
13.465,0.023
13.470,0.031
13.475,0.153
13.480,0.042
13.485,-0.028
13.490,0.126
13.495,0.121
13.500,-0.024
13.505,0.055
13.510,0.125
13.515,-0.067
13.520,-0.118
13.525,-0.035
13.530,-0.194
13.535,-0.300
13.540,-0.150
13.545,-0.132
13.550,-0.255
13.555,-0.169
13.560,-0.051
13.565,-0.147
13.570,-0.097
13.575,0.055
13.580,-0.066
13.585,-0.135
13.590,0.018
13.595,0.013
13.600,-0.089
13.605,0.011
13.610,0.072
13.615,-0.069
13.620,-0.052
13.625,0.069
13.630,-0.031
13.635,-0.075
13.640,0.065
13.645,0.007
13.650,-0.134
13.655,0.017
13.660,0.106
13.665,-0.068
13.670,-0.038
13.675,0.098
13.680,-0.018
13.685,-0.077
13.690,0.086
13.695,0.085
13.700,-0.055
13.705,0.021
13.710,0.095
13.715,-0.033
13.720,0.006
13.725,0.133
13.730,0.009
13.735,-0.053
13.740,0.096
13.745,0.090
13.750,-0.040
13.755,0.043
13.760,0.128
13.765,-0.008
13.770,-0.003
13.775,0.120
13.780,0.011
13.785,-0.056
13.790,0.100
13.795,0.077
13.800,-0.084
13.805,0.021
13.810,0.131
13.815,-0.027
13.820,-0.053
13.825,0.075
13.830,-0.015
13.835,-0.081
13.840,0.080
13.845,0.079
13.850,-0.070
13.855,0.008
13.860,0.087
13.865,-0.051
13.870,-0.032
13.875,0.101
13.880,-0.003
13.885,-0.063
13.890,0.094
13.895,0.086
13.900,-0.064
13.905,0.003
13.910,0.080
13.915,-0.046
13.920,-0.012
13.925,0.108
13.930,-0.022
13.935,-0.076
13.940,0.085
13.945,0.052
13.950,-0.089
13.955,0.022
13.960,0.103
13.965,-0.038
13.970,-0.005
13.975,0.129
13.980,0.028
13.985,-0.038
13.990,0.087
13.995,0.061
14.000,-0.073
14.005,0.041
14.010,0.132
14.015,-0.036
14.020,-0.034
14.025,0.106
14.030,0.012
14.035,-0.082
14.040,0.028
14.045,0.018
14.050,-0.122
14.055,-0.050
14.060,0.035
14.065,-0.087
14.070,-0.061
14.075,0.068
14.080,-0.057
14.085,-0.130
14.090,0.035
14.095,0.004
14.100,-0.152
14.105,-0.024
14.110,0.067
14.115,-0.098
14.120,-0.075
14.125,0.046
14.130,-0.078
14.135,-0.144
14.140,-0.013
14.145,-0.006
14.150,-0.030
14.155,0.250
14.160,0.532
14.165,0.515
14.170,0.527
14.175,0.486
14.180,0.117
14.185,-0.125
14.190,-0.061
14.195,-0.119
14.200,-0.253
14.205,-0.150
14.210,-0.057
14.215,-0.172
14.220,-0.142
14.225,-0.018
14.230,-0.127
14.235,-0.171
14.240,-0.006
14.245,-0.058
14.250,-0.218
14.255,-0.093
14.260,0.003
14.265,-0.139
14.270,-0.110
14.275,0.050
14.280,-0.056
14.285,-0.141
14.290,0.014
14.295,-0.021
14.300,-0.155
14.305,-0.015
14.310,0.075
14.315,-0.076
14.320,-0.073
14.325,0.056
14.330,-0.041
14.335,-0.108
14.340,0.041
14.345,0.042
14.350,-0.086
14.355,0.010
14.360,0.105
14.365,-0.045
14.370,-0.047
14.375,0.100
14.380,0.033
14.385,-0.013
14.390,0.099
14.395,0.063
14.400,-0.042
14.405,0.054
14.410,0.130
14.415,-0.004
14.420,0.004
14.425,0.162
14.430,0.084
14.435,-0.005
14.440,0.117
14.445,0.109
14.450,-0.002
14.455,0.087
14.460,0.143
14.465,-0.025
14.470,-0.035
14.475,0.103
14.480,-0.007
14.485,-0.120
14.490,0.000
14.495,-0.032
14.500,-0.185
14.505,-0.091
14.510,-0.010
14.515,-0.162
14.520,-0.152
14.525,-0.009
14.530,-0.099
14.535,-0.178
14.540,-0.056
14.545,-0.055
14.550,-0.159
14.555,-0.071
14.560,-0.002
14.565,-0.119
14.570,-0.101
14.575,0.019
14.580,-0.063
14.585,-0.125
14.590,0.007
14.595,-0.014
14.600,-0.128
14.605,-0.017
14.610,0.047
14.615,-0.089
14.620,-0.066
14.625,0.060
14.630,-0.032
14.635,-0.092
14.640,0.046
14.645,0.037
14.650,-0.082
14.655,0.026
14.660,0.106
14.665,-0.071
14.670,-0.071
14.675,0.083
14.680,-0.005
14.685,-0.069
14.690,0.061
14.695,0.025
14.700,-0.099
14.705,0.022
14.710,0.092
14.715,-0.065
14.720,-0.029
14.725,0.105
14.730,-0.016
14.735,-0.072
14.740,0.076
14.745,0.055
14.750,-0.071
14.755,0.030
14.760,0.106
14.765,-0.039
14.770,-0.025
14.775,0.085
14.780,-0.011
14.785,-0.037
14.790,0.098
14.795,0.038
14.800,-0.099
14.805,0.034
14.810,0.110
14.815,-0.054
14.820,-0.028
14.825,0.112
14.830,0.017
14.835,-0.038
14.840,0.102
14.845,0.058
14.850,-0.091
14.855,0.036
14.860,0.112
14.865,-0.038
14.870,-0.008
14.875,0.087
14.880,-0.011
14.885,-0.046
14.890,0.076
14.895,0.064
14.900,-0.044
14.905,0.038
14.910,0.101
14.915,-0.019
14.920,0.007
14.925,0.104
14.930,0.013
14.935,-0.001
14.940,0.128
14.945,0.067
14.950,-0.047
14.955,0.088
14.960,0.140
14.965,-0.037
14.970,-0.011
14.975,0.128
14.980,0.037
14.985,-0.017
14.990,0.102
14.995,0.038
15.000,-0.103
15.005,0.000
15.010,0.076
15.015,-0.070
15.020,-0.075
15.025,0.048
15.030,-0.038
15.035,-0.081
15.040,0.071
15.045,0.031
15.050,-0.110
15.055,0.004
15.060,0.063
15.065,-0.096
15.070,-0.067
15.075,0.061
15.080,-0.045
15.085,-0.100
15.090,0.031
15.095,-0.016
15.100,-0.133
15.105,0.026
15.110,0.204
15.115,0.251
15.120,0.468
15.125,0.622
15.130,0.391
15.135,0.116
15.140,0.030
15.145,-0.093
15.150,-0.239
15.155,-0.153
15.160,-0.078
15.165,-0.178
15.170,-0.124
15.175,-0.021
15.180,-0.120
15.185,-0.139
15.190,-0.002
15.195,-0.044
15.200,-0.162
15.205,-0.049
15.210,0.001
15.215,-0.154
15.220,-0.104
15.225,0.026
15.230,-0.088
15.235,-0.132
15.240,-0.003
15.245,-0.032
15.250,-0.116
15.255,-0.014
15.260,0.008
15.265,-0.163
15.270,-0.148
15.275,-0.005
15.280,-0.109
15.285,-0.199
15.290,-0.096
15.295,-0.148
15.300,-0.295
15.305,-0.200
15.310,-0.066
15.315,-0.126
15.320,-0.053
15.325,0.099
15.330,0.010
15.335,-0.012
15.340,0.160
15.345,0.154
15.350,0.035
15.355,0.129
15.360,0.202
15.365,0.068
15.370,0.118
15.375,0.252
15.380,0.133
15.385,0.096
15.390,0.230
15.395,0.174
15.400,0.060
15.405,0.170
15.410,0.232
15.415,0.080
15.420,0.076
15.425,0.188
15.430,0.087
15.435,0.017
15.440,0.125
15.445,0.063
15.450,-0.088
15.455,-0.025
15.460,0.033
15.465,-0.083
15.470,-0.077
15.475,0.028
15.480,-0.071
15.485,-0.126
15.490,0.019
15.495,-0.018
15.500,-0.150
15.505,-0.032
15.510,0.025
15.515,-0.117
15.520,-0.076
15.525,0.039
15.530,-0.061
15.535,-0.103
15.540,0.016
15.545,-0.028
15.550,-0.133
15.555,-0.028
15.560,0.043
15.565,-0.083
15.570,-0.070
15.575,0.046
15.580,-0.051
15.585,-0.099
15.590,0.036
15.595,0.021
15.600,-0.078
15.605,0.008
15.610,0.047
15.615,-0.088
15.620,-0.037
15.625,0.096
15.630,-0.020
15.635,-0.099
15.640,0.030
15.645,0.012
15.650,-0.096
15.655,0.040
15.660,0.088
15.665,-0.079
15.670,-0.030
15.675,0.069
15.680,-0.060
15.685,-0.077
15.690,0.070
15.695,0.016
15.700,-0.100
15.705,0.024
15.710,0.076
15.715,-0.059
15.720,-0.006
15.725,0.085
15.730,-0.033
15.735,-0.070
15.740,0.031
15.745,0.009
15.750,-0.053
15.755,0.038
15.760,0.048
15.765,-0.081
15.770,-0.011
15.775,0.096
15.780,-0.037
15.785,-0.073
15.790,0.078
15.795,0.029
15.800,-0.088
15.805,0.032
15.810,0.058
15.815,-0.086
15.820,-0.014
15.825,0.102
15.830,-0.019
15.835,-0.071
15.840,0.059
15.845,0.042
15.850,-0.049
15.855,0.065
15.860,0.095
15.865,-0.058
15.870,-0.004
15.875,0.105
15.880,-0.007
15.885,-0.031
15.890,0.103
15.895,0.055
15.900,-0.053
15.905,0.068
15.910,0.100
15.915,-0.080
15.920,-0.029
15.925,0.110
15.930,-0.036
15.935,-0.099
15.940,0.047
15.945,-0.015
15.950,-0.125
15.955,0.001
15.960,0.021
15.965,-0.114
15.970,-0.023
15.975,0.085
15.980,-0.059
15.985,-0.103
15.990,0.040
15.995,-0.001
16.000,-0.104
16.005,0.022
16.010,0.070
16.015,-0.103
16.020,-0.101
16.025,0.034
16.030,0.012
16.035,0.048
16.040,0.292
16.045,0.447
16.050,0.468
16.055,0.514
16.060,0.343
16.065,-0.011
16.070,-0.080
16.075,-0.040
16.080,-0.196
16.085,-0.212
16.090,-0.045
16.095,-0.091
16.100,-0.186
16.105,-0.037
16.110,-0.017
16.115,-0.185
16.120,-0.113
16.125,0.013
16.130,-0.099
16.135,-0.145
16.140,-0.001
16.145,-0.027
16.150,-0.152
16.155,-0.026
16.160,0.032
16.165,-0.118
16.170,-0.067
16.175,0.041
16.180,-0.065
16.185,-0.085
16.190,0.055
16.195,-0.010
16.200,-0.132
16.205,0.018
16.210,0.081
16.215,-0.079
16.220,-0.034
16.225,0.069
16.230,-0.047
16.235,-0.053
16.240,0.098
16.245,0.030
16.250,-0.088
16.255,0.048
16.260,0.082
16.265,-0.069
16.270,0.029
16.275,0.161
16.280,0.003
16.285,-0.024
16.290,0.158
16.295,0.102
16.300,-0.029
16.305,0.090
16.310,0.128
16.315,-0.019
16.320,0.059
16.325,0.170
16.330,0.011
16.335,-0.010
16.340,0.179
16.345,0.112
16.350,-0.058
16.355,0.057
16.360,0.091
16.365,-0.097
16.370,-0.056
16.375,0.045
16.380,-0.089
16.385,-0.120
16.390,0.009
16.395,-0.095
16.400,-0.230
16.405,-0.080
16.410,-0.065
16.415,-0.208
16.420,-0.104
16.425,-0.011
16.430,-0.145
16.435,-0.148
16.440,0.009
16.445,-0.061
16.450,-0.183
16.455,-0.026
16.460,0.020
16.465,-0.144
16.470,-0.072
16.475,0.051
16.480,-0.102
16.485,-0.132
16.490,0.057
16.495,-0.004
16.500,-0.135
16.505,0.003
16.510,0.017
16.515,-0.149
16.520,-0.059
16.525,0.076
16.530,-0.052
16.535,-0.074
16.540,0.087
16.545,0.016
16.550,-0.105
16.555,0.045
16.560,0.084
16.565,-0.086
16.570,-0.015
16.575,0.117
16.580,-0.047
16.585,-0.089
16.590,0.107
16.595,0.037
16.600,-0.114
16.605,0.043
16.610,0.100
16.615,-0.086
16.620,-0.032
16.625,0.103
16.630,-0.037
16.635,-0.067
16.640,0.093
16.645,0.015
16.650,-0.102
16.655,0.049
16.660,0.088
16.665,-0.063
16.670,0.015
16.675,0.125
16.680,-0.027
16.685,-0.050
16.690,0.129
16.695,0.048
16.700,-0.093
16.705,0.070
16.710,0.099
16.715,-0.087
16.720,-0.007
16.725,0.134
16.730,-0.008
16.735,-0.061
16.740,0.091
16.745,0.037
16.750,-0.078
16.755,0.066
16.760,0.103
16.765,-0.062
16.770,0.014
16.775,0.145
16.780,-0.020
16.785,-0.087
16.790,0.103
16.795,0.047
16.800,-0.108
16.805,0.064
16.810,0.125
16.815,-0.053
16.820,0.023
16.825,0.157
16.830,-0.020
16.835,-0.069
16.840,0.151
16.845,0.091
16.850,-0.052
16.855,0.114
16.860,0.146
16.865,-0.056
16.870,-0.007
16.875,0.132
16.880,-0.017
16.885,-0.066
16.890,0.106
16.895,0.025
16.900,-0.118
16.905,0.025
16.910,0.049
16.915,-0.118
16.920,-0.039
16.925,0.077
16.930,-0.080
16.935,-0.112
16.940,0.078
16.945,0.023
16.950,-0.122
16.955,0.021
16.960,0.062
16.965,-0.116
16.970,-0.034
16.975,0.104
16.980,-0.083
16.985,-0.149
16.990,0.055
16.995,0.003
17.000,-0.131
17.005,0.120
17.010,0.349
17.015,0.381
17.020,0.594
17.025,0.690
17.030,0.322
17.035,0.027
17.040,0.053
17.045,-0.091
17.050,-0.250
17.055,-0.062
17.060,-0.016
17.065,-0.209
17.070,-0.121
17.075,0.020
17.080,-0.159
17.085,-0.228
17.090,-0.029
17.095,-0.056
17.100,-0.194
17.105,-0.056
17.110,-0.018
17.115,-0.182
17.120,-0.103
17.125,0.006
17.130,-0.149
17.135,-0.157
17.140,0.035
17.145,-0.041
17.150,-0.181
17.155,0.015
17.160,0.108
17.165,-0.104
17.170,-0.078
17.175,0.079
17.180,-0.049
17.185,-0.084
17.190,0.088
17.195,0.026
17.200,-0.086
17.205,0.061
17.210,0.087
17.215,-0.074
17.220,0.004
17.225,0.131
17.230,-0.002
17.235,-0.021
17.240,0.148
17.245,0.055
17.250,-0.084
17.255,0.109
17.260,0.163
17.265,-0.042
17.270,0.044
17.275,0.176
17.280,-0.003
17.285,0.008
17.290,0.216
17.295,0.119
17.300,-0.004
17.305,0.162
17.310,0.192
17.315,0.018
17.320,0.077
17.325,0.189
17.330,0.026
17.335,-0.045
17.340,0.106
17.345,0.044
17.350,-0.122
17.355,-0.012
17.360,0.028
17.365,-0.151
17.370,-0.097
17.375,0.000
17.380,-0.156
17.385,-0.166
17.390,0.001
17.395,-0.076
17.400,-0.184
17.405,-0.033
17.410,-0.020
17.415,-0.190
17.420,-0.098
17.425,0.043
17.430,-0.110
17.435,-0.149
17.440,0.017
17.445,-0.072
17.450,-0.182
17.455,-0.005
17.460,0.028
17.465,-0.128
17.470,-0.059
17.475,0.045
17.480,-0.093
17.485,-0.094
17.490,0.077
17.495,-0.037
17.500,-0.169
17.505,0.006
17.510,0.048
17.515,-0.114
17.520,-0.032
17.525,0.078
17.530,-0.090
17.535,-0.089
17.540,0.095
17.545,-0.022
17.550,-0.136
17.555,0.059
17.560,0.061
17.565,-0.134
17.570,-0.044
17.575,0.087
17.580,-0.044
17.585,-0.072
17.590,0.098
17.595,0.026
17.600,-0.106
17.605,0.058
17.610,0.079
17.615,-0.102
17.620,-0.010
17.625,0.099
17.630,-0.071
17.635,-0.067
17.640,0.130
17.645,0.030
17.650,-0.114
17.655,0.063
17.660,0.099
17.665,-0.102
17.670,-0.008
17.675,0.126
17.680,-0.056
17.685,-0.080
17.690,0.098
17.695,0.032
17.700,-0.082
17.705,0.066
17.710,0.093
17.715,-0.092
17.720,-0.012
17.725,0.121
17.730,-0.038
17.735,-0.039
17.740,0.142
17.745,0.018
17.750,-0.105
17.755,0.081
17.760,0.101
17.765,-0.062
17.770,0.044
17.775,0.159
17.780,-0.005
17.785,-0.023
17.790,0.140
17.795,0.052
17.800,-0.061
17.805,0.100
17.810,0.109
17.815,-0.079
17.820,0.015
17.825,0.131
17.830,-0.054
17.835,-0.079
17.840,0.090
17.845,-0.018
17.850,-0.132
17.855,0.066
17.860,0.092
17.865,-0.107
17.870,-0.009
17.875,0.121
17.880,-0.088
17.885,-0.121
17.890,0.079
17.895,-0.023
17.900,-0.145
17.905,0.031
17.910,0.042
17.915,-0.113
17.920,0.002
17.925,0.087
17.930,-0.126
17.935,-0.127
17.940,0.104
17.945,0.117
17.950,0.218
17.955,0.594
17.960,0.624
17.965,0.300
17.970,0.162
17.975,0.071
17.980,-0.181
17.985,-0.223
17.990,-0.053
17.995,-0.118
18.000,-0.199
18.005,-0.004
18.010,0.011
18.015,-0.182
18.020,-0.102
18.025,0.023
18.030,-0.125
18.035,-0.144
18.040,0.034
18.045,-0.034
18.050,-0.127
18.055,0.045
18.060,0.042
18.065,-0.162
18.070,-0.066
18.075,0.085
18.080,-0.058
18.085,-0.063
18.090,0.100
18.095,-0.017
18.100,-0.132
18.105,0.042
18.110,0.052
18.115,-0.123
18.120,-0.028
18.125,0.083
18.130,-0.065
18.135,-0.045
18.140,0.122
18.145,0.000
18.150,-0.090
18.155,0.097
18.160,0.087
18.165,-0.076
18.170,0.043
18.175,0.142
18.180,-0.041
18.185,-0.021
18.190,0.168
18.195,0.037
18.200,-0.072
18.205,0.120
18.210,0.128
18.215,-0.050
18.220,0.045
18.225,0.170
18.230,0.012
18.235,-0.010
18.240,0.152
18.245,0.077
18.250,-0.005
18.255,0.143
18.260,0.086
18.265,-0.129
18.270,-0.004
18.275,0.117
18.280,-0.122
18.285,-0.176
18.290,0.032
18.295,-0.052
18.300,-0.226
18.305,-0.087
18.310,-0.065
18.315,-0.245
18.320,-0.114
18.325,0.014
18.330,-0.187
18.335,-0.176
18.340,0.013
18.345,-0.117
18.350,-0.211
18.355,0.006
18.360,-0.008
18.365,-0.208
18.370,-0.071
18.375,0.059
18.380,-0.117
18.385,-0.101
18.390,0.079
18.395,-0.058
18.400,-0.190
18.405,0.014
18.410,0.037
18.415,-0.147
18.420,-0.017
18.425,0.107
18.430,-0.089
18.435,-0.086
18.440,0.104
18.445,-0.016
18.450,-0.140
18.455,0.049
18.460,0.058
18.465,-0.114
18.470,0.011
18.475,0.121
18.480,-0.076
18.485,-0.090
18.490,0.096
18.495,-0.010
18.500,-0.099
18.505,0.121
18.510,0.110
18.515,-0.099
18.520,-0.001
18.525,0.093
18.530,-0.077
18.535,-0.039
18.540,0.142
18.545,-0.014
18.550,-0.108
18.555,0.126
18.560,0.100
18.565,-0.123
18.570,0.005
18.575,0.138
18.580,-0.050
18.585,-0.047
18.590,0.126
18.595,-0.011
18.600,-0.098
18.605,0.106
18.610,0.092
18.615,-0.072
18.620,0.049
18.625,0.133
18.630,-0.053
18.635,-0.053
18.640,0.123
18.645,0.025
18.650,-0.057
18.655,0.126
18.660,0.084
18.665,-0.093
18.670,0.059
18.675,0.173
18.680,-0.028
18.685,-0.023
18.690,0.159
18.695,0.042
18.700,-0.065
18.705,0.088
18.710,0.078
18.715,-0.090
18.720,-0.007
18.725,0.085
18.730,-0.080
18.735,-0.077
18.740,0.105
18.745,-0.006
18.750,-0.113
18.755,0.081
18.760,0.057
18.765,-0.127
18.770,0.015
18.775,0.109
18.780,-0.096
18.785,-0.080
18.790,0.109
18.795,-0.019
18.800,-0.127
18.805,0.047
18.810,0.000
18.815,-0.181
18.820,0.002
18.825,0.210
18.830,0.168
18.835,0.338
18.840,0.643
18.845,0.540
18.850,0.252
18.855,0.166
18.860,0.013
18.865,-0.216
18.870,-0.137
18.875,-0.039
18.880,-0.193
18.885,-0.162
18.890,0.011
18.895,-0.090
18.900,-0.181
18.905,-0.025
18.910,-0.019
18.915,-0.167
18.920,-0.051
18.925,0.060
18.930,-0.130
18.935,-0.127
18.940,0.061
18.945,-0.060
18.950,-0.150
18.955,0.050
18.960,0.038
18.965,-0.144
18.970,-0.036
18.975,0.079
18.980,-0.054
18.985,-0.049
18.990,0.072
18.995,-0.062
19.000,-0.135
19.005,0.077
19.010,0.081
19.015,-0.079
19.020,0.034
19.025,0.108
19.030,-0.086
19.035,-0.071
19.040,0.130
19.045,0.015
19.050,-0.108
19.055,0.089
19.060,0.108
19.065,-0.064
19.070,0.050
19.075,0.154
19.080,-0.022
19.085,-0.014
19.090,0.160
19.095,0.052
19.100,-0.041
19.105,0.149
19.110,0.135
19.115,-0.043
19.120,0.086
19.125,0.188
19.130,0.002
19.135,0.004
19.140,0.167
19.145,0.020
19.150,-0.109
19.155,0.064
19.160,0.023
19.165,-0.166
19.170,-0.057
19.175,0.008
19.180,-0.181
19.185,-0.153
19.190,0.005
19.195,-0.134
19.200,-0.215
19.205,-0.017
19.210,-0.035
19.215,-0.194
19.220,-0.079
19.225,-0.005
19.230,-0.162
19.235,-0.124
19.240,0.027
19.245,-0.119
19.250,-0.185
19.255,0.028
19.260,-0.017
19.265,-0.200
19.270,-0.053
19.275,0.054
19.280,-0.126
19.285,-0.099
19.290,0.081
19.295,-0.048
19.300,-0.138
19.305,0.060
19.310,0.035
19.315,-0.135
19.320,0.007
19.325,0.091
19.330,-0.096
19.335,-0.047
19.340,0.119
19.345,-0.050
19.350,-0.129
19.355,0.103
19.360,0.081
19.365,-0.113
19.370,-0.002
19.375,0.090
19.380,-0.084
19.385,-0.050
19.390,0.126
19.395,-0.008
19.400,-0.102
19.405,0.086
19.410,0.070
19.415,-0.096
19.420,0.030
19.425,0.128
19.430,-0.056
19.435,-0.047
19.440,0.128
19.445,0.026
19.450,-0.049
19.455,0.109
19.460,0.060
19.465,-0.109
19.470,0.040
19.475,0.155
19.480,-0.056
19.485,-0.056
19.490,0.130
19.495,0.003
19.500,-0.090
19.505,0.107
19.510,0.086
19.515,-0.106
19.520,0.035
19.525,0.158
19.530,-0.051
19.535,-0.047
19.540,0.156
19.545,0.050
19.550,-0.080
19.555,0.063
19.560,0.074
19.565,-0.078
19.570,0.018
19.575,0.128
19.580,-0.031
19.585,-0.024
19.590,0.148
19.595,0.050
19.600,-0.007
19.605,0.155
19.610,0.098
19.615,-0.075
19.620,0.034
19.625,0.125
19.630,-0.027
19.635,0.037
19.640,0.199
19.645,-0.018
19.650,-0.151
19.655,0.046
19.660,0.021
19.665,-0.142
19.670,-0.011
19.675,0.081
19.680,-0.080
19.685,-0.059
19.690,0.084
19.695,-0.054
19.700,-0.143
19.705,0.049
19.710,0.038
19.715,-0.126
19.720,0.021
19.725,0.117
19.730,-0.116
19.735,-0.120
19.740,0.045
19.745,-0.103
19.750,-0.158
19.755,0.127
19.760,0.274
19.765,0.313
19.770,0.565
19.775,0.670
19.780,0.338
19.785,0.091
19.790,0.095
19.795,-0.084
19.800,-0.237
19.805,-0.096
19.810,-0.083
19.815,-0.223
19.820,-0.108
19.825,0.005
19.830,-0.127
19.835,-0.100
19.840,0.011
19.845,-0.147
19.850,-0.194
19.855,0.017
19.860,-0.010
19.865,-0.168
19.870,-0.033
19.875,0.048
19.880,-0.147
19.885,-0.109
19.890,0.075
19.895,-0.056
19.900,-0.126
19.905,0.075
19.910,0.042
19.915,-0.149
19.920,-0.034
19.925,0.088
19.930,-0.075
19.935,-0.066
19.940,0.106
19.945,-0.024
19.950,-0.128
19.955,0.060
19.960,0.054
19.965,-0.103
19.970,0.029
19.975,0.124
19.980,-0.078
19.985,-0.062
19.990,0.138
19.995,0.023
20.000,-0.066
20.005,0.125
20.010,0.107
20.015,-0.067
20.020,0.065
20.025,0.185
20.030,-0.007
20.035,0.004
20.040,0.183
20.045,0.041
20.050,-0.045
20.055,0.151
20.060,0.117
20.065,-0.052
20.070,0.065
20.075,0.119
20.080,-0.074
20.085,-0.054
20.090,0.090
20.095,-0.056
20.100,-0.159
20.105,0.007
20.110,-0.029
20.115,-0.220
20.120,-0.097
20.125,0.015
20.130,-0.182
20.135,-0.174
20.140,0.005
20.145,-0.121
20.150,-0.187
20.155,0.010
20.160,-0.058
20.165,-0.235
20.170,-0.064
20.175,0.057
20.180,-0.123
20.185,-0.102
20.190,0.061
20.195,-0.095
20.200,-0.177
20.205,0.034
20.210,0.009
20.215,-0.154
20.220,-0.007
20.225,0.099
20.230,-0.104
20.235,-0.100
20.240,0.084
20.245,-0.044
20.250,-0.123
20.255,0.076
20.260,0.046
20.265,-0.120
20.270,0.017
20.275,0.105
20.280,-0.091
20.285,-0.060
20.290,0.115
20.295,-0.024
20.300,-0.095
20.305,0.108
20.310,0.066
20.315,-0.111
20.320,0.030
20.325,0.119
20.330,-0.072
20.335,-0.060
20.340,0.101
20.345,-0.015
20.350,-0.092
20.355,0.099
20.360,0.069
20.365,-0.109
20.370,0.034
20.375,0.149
20.380,-0.051
20.385,-0.059
20.390,0.131
20.395,0.008
20.400,-0.097
20.405,0.111
20.410,0.098
20.415,-0.103
20.420,0.002
20.425,0.114
20.430,-0.056
20.435,-0.032
20.440,0.132
20.445,-0.012
20.450,-0.092
20.455,0.099
20.460,0.059
20.465,-0.098
20.470,0.050
20.475,0.136
20.480,-0.050
20.485,-0.023
20.490,0.159
20.495,0.036
20.500,-0.046
20.505,0.146
20.510,0.094
20.515,-0.086
20.520,0.057
20.525,0.143
20.530,-0.038
20.535,0.002
20.540,0.169
20.545,0.028
20.550,-0.073
20.555,0.102
20.560,0.072
20.565,-0.128
20.570,-0.021
20.575,0.087
20.580,-0.088
20.585,-0.069
20.590,0.110
20.595,-0.012
20.600,-0.106
20.605,0.058
20.610,0.019
20.615,-0.137
20.620,0.005
20.625,0.093
20.630,-0.100
20.635,-0.078
20.640,0.096
20.645,-0.024
20.650,-0.106
20.655,0.048
20.660,-0.012
20.665,-0.141
20.670,0.107
20.675,0.373
20.680,0.385
20.685,0.515
20.690,0.602
20.695,0.221
20.700,-0.099
20.705,-0.007
20.710,-0.070
20.715,-0.259
20.720,-0.115
20.725,-0.002
20.730,-0.173
20.735,-0.144
20.740,0.023
20.745,-0.080
20.750,-0.141
20.755,0.011
20.760,-0.023
20.765,-0.146
20.770,-0.012
20.775,0.064
20.780,-0.107
20.785,-0.078
20.790,0.074
20.795,-0.061
20.800,-0.129
20.805,0.069
20.810,0.042
20.815,-0.123
20.820,-0.007
20.825,0.066
20.830,-0.098
20.835,-0.048
20.840,0.115
20.845,-0.030
20.850,-0.121
20.855,0.053
20.860,0.043
20.865,-0.093
20.870,0.025
20.875,0.093
20.880,-0.076
20.885,-0.025
20.890,0.139
20.895,0.005
20.900,-0.078
20.905,0.105
20.910,0.086
20.915,-0.070
20.920,0.066
20.925,0.131
20.930,-0.067
20.935,-0.006
20.940,0.166
20.945,0.007
20.950,-0.058
20.955,0.157
20.960,0.123
20.965,-0.048
20.970,0.077
20.975,0.150
20.980,-0.042
20.985,-0.010
20.990,0.140
20.995,-0.036
21.000,-0.117
21.005,0.078
21.010,0.003
21.015,-0.195
21.020,-0.084
21.025,-0.021
21.030,-0.208
21.035,-0.185
21.040,-0.008
21.045,-0.121
21.050,-0.201
21.055,-0.019
21.060,-0.053
21.065,-0.213
21.070,-0.073
21.075,0.004
21.080,-0.181
21.085,-0.132
21.090,0.030
21.095,-0.115
21.100,-0.173
21.105,0.038
21.110,0.018
21.115,-0.141
21.120,-0.030
21.125,0.021
21.130,-0.148
21.135,-0.080
21.140,0.089
21.145,-0.053
21.150,-0.117
21.155,0.080
21.160,0.037
21.165,-0.122
21.170,0.011
21.175,0.079
21.180,-0.102
21.185,-0.049
21.190,0.118
21.195,-0.032
21.200,-0.102
21.205,0.088
21.210,0.077
21.215,-0.033
21.220,0.051
21.225,0.061
21.230,-0.080
21.235,-0.036
21.240,0.076
21.245,-0.039
21.250,-0.075
21.255,0.081
21.260,0.031
21.265,-0.098
21.270,0.036
21.275,0.092
21.280,-0.081
21.285,-0.042
21.290,0.109
21.295,-0.006
21.300,-0.065
21.305,0.102
21.310,0.064
21.315,-0.074
21.320,0.046
21.325,0.112
21.330,-0.029
21.335,-0.012
21.340,0.089
21.345,-0.015
21.350,-0.044
21.355,0.122
21.360,0.076
21.365,-0.061
21.370,0.081
21.375,0.145
21.380,-0.034
21.385,0.011
21.390,0.150
21.395,0.005
21.400,-0.043
21.405,0.124
21.410,0.063
21.415,-0.084
21.420,0.022
21.425,0.057
21.430,-0.096
21.435,-0.029
21.440,0.079
21.445,-0.069
21.450,-0.097
21.455,0.076
21.460,0.029
21.465,-0.110
21.470,0.003
21.475,0.082
21.480,-0.044
21.485,-0.016
21.490,0.091
21.495,-0.034
21.500,-0.091
21.505,0.053
21.510,-0.023
21.515,-0.147
21.520,0.060
21.525,0.223
21.530,0.239
21.535,0.474
21.540,0.644
21.545,0.390
21.550,0.134
21.555,0.114
21.560,-0.040
21.565,-0.237
21.570,-0.116
21.575,-0.045
21.580,-0.188
21.585,-0.107
21.590,0.021
21.595,-0.117
21.600,-0.145
21.605,0.009
21.610,-0.058
21.615,-0.173
21.620,-0.021
21.625,0.034
21.630,-0.138
21.635,-0.076
21.640,0.066
21.645,-0.078
21.650,-0.118
21.655,0.071
21.660,0.005
21.665,-0.148
21.670,0.018
21.675,0.071
21.680,-0.117
21.685,-0.034
21.690,0.106
21.695,-0.044
21.700,-0.090
21.705,0.056
21.710,0.002
21.715,-0.086
21.720,0.062
21.725,0.083
21.730,-0.090
21.735,-0.017
21.740,0.124
21.745,-0.018
21.750,-0.060
21.755,0.130
21.760,0.078
21.765,-0.073
21.770,0.081
21.775,0.145
21.780,-0.047
21.785,0.011
21.790,0.166
21.795,0.022
21.800,-0.011
21.805,0.180
21.810,0.101
21.815,-0.056
21.820,0.100
21.825,0.152
21.830,-0.031
21.835,0.009
21.840,0.120
21.845,-0.031
21.850,-0.081
21.855,0.077
21.860,-0.002
21.865,-0.170
21.870,-0.040
21.875,0.013
21.880,-0.201
21.885,-0.151
21.890,0.019
21.895,-0.156
21.900,-0.228
21.905,-0.019
21.910,-0.054
21.915,-0.213
21.920,-0.082
21.925,0.019
21.930,-0.138
21.935,-0.101
21.940,0.043
21.945,-0.122
21.950,-0.179
21.955,0.034
21.960,-0.008
21.965,-0.167
21.970,-0.017
21.975,0.064
21.980,-0.107
21.985,-0.081
21.990,0.036
21.995,-0.093
22.000,-0.123
22.005,0.091
22.010,0.055
22.015,-0.118
22.020,0.024
22.025,0.078
22.030,-0.118
22.035,-0.030
22.040,0.117
22.045,-0.047
22.050,-0.076
22.055,0.103
22.060,0.046
22.065,-0.081
22.070,0.046
22.075,0.081
22.080,-0.114
22.085,-0.047
22.090,0.128
22.095,-0.043
22.100,-0.105
22.105,0.115
22.110,0.056
22.115,-0.100
22.120,0.057
22.125,0.111
22.130,-0.074
22.135,-0.023
22.140,0.113
22.145,-0.020
22.150,-0.052
22.155,0.114
22.160,0.033
22.165,-0.091
22.170,0.089
22.175,0.096
22.180,-0.134
22.185,-0.018
22.190,0.158
22.195,-0.032
22.200,-0.092
22.205,0.108
22.210,0.055
22.215,-0.084
22.220,0.077
22.225,0.134
22.230,-0.076
22.235,-0.019
22.240,0.155
22.245,-0.003
22.250,-0.071
22.255,0.141
22.260,0.111
22.265,-0.052
22.270,0.082
22.275,0.143
22.280,-0.036
22.285,0.015
22.290,0.148
22.295,0.000
22.300,-0.049
22.305,0.135
22.310,0.073
22.315,-0.091
22.320,0.037
22.325,0.075
22.330,-0.116
22.335,-0.048
22.340,0.108
22.345,-0.035
22.350,-0.104
22.355,0.054
22.360,0.017
22.365,-0.114
22.370,0.013
22.375,0.085
22.380,-0.070
22.385,-0.046
22.390,0.070
22.395,-0.034
22.400,-0.062
22.405,0.071
22.410,-0.028
22.415,-0.184
22.420,-0.021
22.425,0.123
22.430,0.091
22.435,0.305
22.440,0.614
22.445,0.577
22.450,0.425
22.455,0.319
22.460,0.050
22.465,-0.168
22.470,-0.096
22.475,-0.092
22.480,-0.222
22.485,-0.104
22.490,0.013
22.495,-0.154
22.500,-0.184
22.505,-0.004
22.510,-0.056
22.515,-0.189
22.520,-0.065
22.525,-0.021
22.530,-0.148
22.535,-0.049
22.540,0.045
22.545,-0.132
22.550,-0.146
22.555,0.042
22.560,-0.020
22.565,-0.156
22.570,-0.011
22.575,0.043
22.580,-0.127
22.585,-0.060
22.590,0.085
22.595,-0.051
22.600,-0.092
22.605,0.063
22.610,0.003
22.615,-0.095
22.620,0.045
22.625,0.063
22.630,-0.086
22.635,-0.011
22.640,0.100
22.645,-0.030
22.650,-0.052
22.655,0.100
22.660,0.018
22.665,-0.093
22.670,0.075
22.675,0.110
22.680,-0.053
22.685,0.027
22.690,0.155
22.695,0.022
22.700,0.000
22.705,0.168
22.710,0.097
22.715,-0.037
22.720,0.098
22.725,0.125
22.730,-0.034
22.735,0.052
22.740,0.175
22.745,0.014
22.750,-0.068
22.755,0.058
22.760,-0.003
22.765,-0.140
22.770,-0.019
22.775,0.002
22.780,-0.187
22.785,-0.132
22.790,-0.010
22.795,-0.160
22.800,-0.189
22.805,-0.009
22.810,-0.084
22.815,-0.222
22.820,-0.062
22.825,-0.015
22.830,-0.192
22.835,-0.109
22.840,0.054
22.845,-0.091
22.850,-0.149
22.855,0.022
22.860,-0.022
22.865,-0.138
22.870,-0.008
22.875,0.013
22.880,-0.152
22.885,-0.061
22.890,0.073
22.895,-0.081
22.900,-0.108
22.905,0.079
22.910,0.025
22.915,-0.118
22.920,0.028
22.925,0.075
22.930,-0.112
22.935,-0.046
22.940,0.099
22.945,-0.023
22.950,-0.077
22.955,0.069
22.960,0.023
22.965,-0.101
22.970,0.037
22.975,0.066
22.980,-0.093
22.985,0.004
22.990,0.102
22.995,-0.067
23.000,-0.076
23.005,0.091
23.010,0.024
23.015,-0.079
23.020,0.055
23.025,0.069
23.030,-0.087
23.035,0.018
23.040,0.124
23.045,-0.088
23.050,-0.106
23.055,0.111
23.060,0.045
23.065,-0.086
23.070,0.072
23.075,0.091
23.080,-0.087
23.085,0.004
23.090,0.107
23.095,-0.056
23.100,-0.055
23.105,0.127
23.110,0.052
23.115,-0.082
23.120,0.051
23.125,0.094
23.130,-0.056
23.135,0.021
23.140,0.137
23.145,-0.008
23.150,-0.031
23.155,0.148
23.160,0.079
23.165,-0.055
23.170,0.105
23.175,0.126
23.180,-0.042
23.185,0.029
23.190,0.111
23.195,-0.019
23.200,-0.021
23.205,0.117
23.210,0.025
23.215,-0.101
23.220,0.043
23.225,0.072
23.230,-0.096
23.235,-0.030
23.240,0.073
23.245,-0.044
23.250,-0.046
23.255,0.073
23.260,-0.024
23.265,-0.119
23.270,0.055
23.275,0.070
23.280,-0.119
23.285,-0.037
23.290,0.092
23.295,-0.044
23.300,-0.081
23.305,0.037
23.310,-0.041
23.315,-0.107
23.320,0.130
23.325,0.341
23.330,0.404
23.335,0.568
23.340,0.561
23.345,0.174
23.350,-0.080
23.355,-0.030
23.360,-0.105
23.365,-0.220
23.370,-0.092
23.375,-0.048
23.380,-0.171
23.385,-0.082
23.390,0.036
23.395,-0.103
23.400,-0.139
23.405,0.008
23.410,-0.047
23.415,-0.145
23.420,0.013
23.425,0.044
23.430,-0.135
23.435,-0.058
23.440,0.079
23.445,-0.073
23.450,-0.111
23.455,0.070
23.460,0.005
23.465,-0.133
23.470,0.022
23.475,0.074
23.480,-0.096
23.485,-0.025
23.490,0.076
23.495,-0.074
23.500,-0.069
23.505,0.096
23.510,0.024
23.515,-0.071
23.520,0.072
23.525,0.077
23.530,-0.066
23.535,0.028
23.540,0.105
23.545,-0.059
23.550,-0.040
23.555,0.148
23.560,0.047
23.565,-0.061
23.570,0.113
23.575,0.124
23.580,-0.034
23.585,0.067
23.590,0.160
23.595,-0.010
23.600,-0.017
23.605,0.153
23.610,0.077
23.615,-0.038
23.620,0.110
23.625,0.145
23.630,-0.026
23.635,0.013
23.640,0.091
23.645,-0.062
23.650,-0.074
23.655,0.058
23.660,-0.041
23.665,-0.139
23.670,-0.019
23.675,-0.038
23.680,-0.210
23.685,-0.132
23.690,-0.020
23.695,-0.154
23.700,-0.157
23.705,-0.014
23.710,-0.114
23.715,-0.213
23.720,-0.044
23.725,-0.018
23.730,-0.189
23.735,-0.110
23.740,0.028
23.745,-0.109
23.750,-0.148
23.755,0.018
23.760,-0.032
23.765,-0.141
23.770,0.001
23.775,0.010
23.780,-0.152
23.785,-0.052
23.790,0.062
23.795,-0.088
23.800,-0.097
23.805,0.076
23.810,-0.010
23.815,-0.129
23.820,0.016
23.825,0.030
23.830,-0.102
23.835,-0.003
23.840,0.080
23.845,-0.076
23.850,-0.068
23.855,0.105
23.860,0.007
23.865,-0.117
23.870,0.042
23.875,0.069
23.880,-0.076
23.885,0.009
23.890,0.088
23.895,-0.053
23.900,-0.057
23.905,0.073
23.910,-0.004
23.915,-0.075
23.920,0.092
23.925,0.089
23.930,-0.094
23.935,-0.005
23.940,0.117
23.945,-0.030
23.950,-0.058
23.955,0.083
23.960,-0.002
23.965,-0.083
23.970,0.084
23.975,0.092
23.980,-0.063
23.985,0.017
23.990,0.109
23.995,-0.027
24.000,-0.028
24.005,0.138
24.010,0.076
24.015,-0.026
24.020,0.124
24.025,0.141
24.030,-0.060
24.035,-0.018
24.040,0.103
24.045,0.004
24.050,0.008
24.055,0.137
24.060,0.020
24.065,-0.130
24.070,0.005
24.075,0.050
24.080,-0.074
24.085,-0.003
24.090,0.064
24.095,-0.062
24.100,-0.048
24.105,0.089
24.110,0.028
24.115,-0.071
24.120,0.022
24.125,0.040
24.130,-0.096
24.135,-0.022
24.140,0.099
24.145,-0.028
24.150,-0.070
24.155,0.028
24.160,-0.056
24.165,-0.105
24.170,0.141
24.175,0.313
24.180,0.342
24.185,0.523
24.190,0.590
24.195,0.291
24.200,0.037
24.205,0.025
24.210,-0.083
24.215,-0.197
24.220,-0.088
24.225,-0.060
24.230,-0.148
24.235,-0.069
24.240,-0.017
24.245,-0.143
24.250,-0.127
24.255,0.021
24.260,-0.055
24.265,-0.160
24.270,-0.011
24.275,0.019
24.280,-0.117
24.285,-0.042
24.290,0.040
24.295,-0.098
24.300,-0.102
24.305,0.060
24.310,-0.005
24.315,-0.105
24.320,0.027
24.325,0.045
24.330,-0.106
24.335,-0.044
24.340,0.076
24.345,-0.048
24.350,-0.062
24.355,0.101
24.360,0.005
24.365,-0.105
24.370,0.060
24.375,0.072
24.380,-0.089
24.385,-0.006
24.390,0.104
24.395,-0.039
24.400,-0.040
24.405,0.158
24.410,0.080
24.415,-0.072
24.420,0.059
24.425,0.086
24.430,-0.053
24.435,0.039
24.440,0.152
24.445,0.039
24.450,0.028
24.455,0.144
24.460,0.058
24.465,-0.014
24.470,0.134
24.475,0.123
24.480,-0.042
24.485,0.024
24.490,0.102
24.495,-0.047
24.500,-0.064
24.505,0.063
24.510,-0.039
24.515,-0.121
24.520,-0.001
24.525,-0.070
24.530,-0.219
24.535,-0.095
24.540,-0.007
24.545,-0.163
24.550,-0.155
24.555,-0.001
24.560,-0.109
24.565,-0.202
24.570,-0.032
24.575,-0.021
24.580,-0.168
24.585,-0.075
24.590,0.020
24.595,-0.126
24.600,-0.107
24.605,0.064
24.610,-0.062
24.615,-0.185
24.620,0.021
24.625,0.054
24.630,-0.149
24.635,-0.066
24.640,0.069
24.645,-0.082
24.650,-0.090
24.655,0.076
24.660,-0.024
24.665,-0.117
24.670,0.046
24.675,0.045
24.680,-0.100
24.685,0.004
24.690,0.110
24.695,-0.043
24.700,-0.052
24.705,0.098
24.710,-0.006
24.715,-0.106
24.720,0.051
24.725,0.051
24.730,-0.087
24.735,0.034
24.740,0.122
24.745,-0.046
24.750,-0.052
24.755,0.089
24.760,-0.002
24.765,-0.091
24.770,0.060
24.775,0.082
24.780,-0.051
24.785,0.009
24.790,0.089
24.795,-0.028
24.800,-0.037
24.805,0.094
24.810,0.003
24.815,-0.077
24.820,0.092
24.825,0.085
24.830,-0.073
24.835,0.023
24.840,0.109
24.845,-0.039
24.850,-0.039
24.855,0.090
24.860,-0.002
24.865,-0.068
24.870,0.088
24.875,0.079
24.880,-0.054
24.885,0.042
24.890,0.105
24.895,-0.038
24.900,-0.010
24.905,0.119
24.910,0.011
24.915,-0.027
24.920,0.137
24.925,0.098
24.930,-0.035
24.935,0.069
24.940,0.133
24.945,-0.019
24.950,-0.025
24.955,0.109
24.960,0.033
24.965,-0.061
24.970,0.049
24.975,0.041
24.980,-0.082
24.985,-0.016
24.990,0.025
24.995,-0.089
25.000,-0.053
25.005,0.050
25.010,-0.057
25.015,-0.105
25.020,0.052
25.025,0.026
25.030,-0.110
25.035,-0.006
25.040,0.070
25.045,-0.061
25.050,-0.039
25.055,0.095
25.060,-0.032
25.065,-0.152
25.070,-0.010
25.075,0.031
25.080,0.058
25.085,0.395
25.090,0.630
25.095,0.527
25.100,0.459
25.105,0.342
25.110,-0.019
25.115,-0.183
25.120,-0.060
25.125,-0.100
25.130,-0.211
25.135,-0.084
25.140,-0.018
25.145,-0.172
25.150,-0.140
25.155,0.004
25.160,-0.106
25.165,-0.164
25.170,0.008
25.175,-0.015
25.180,-0.157
25.185,-0.066
25.190,-0.007
25.195,-0.130
25.200,-0.079
25.205,0.048
25.210,-0.066
25.215,-0.120
25.220,0.039
25.225,0.004
25.230,-0.132
25.235,-0.017
25.240,0.054
25.245,-0.080
25.250,-0.052
25.255,0.079
25.260,-0.001
25.265,-0.079
25.270,0.030
25.275,0.029
25.280,-0.080
25.285,0.012
25.290,0.092
25.295,-0.038
25.300,-0.020
25.305,0.107
25.310,0.005
25.315,-0.045
25.320,0.104
25.325,0.071
25.330,-0.045
25.335,0.072
25.340,0.140
25.345,0.003
25.350,0.027
25.355,0.172
25.360,0.076
25.365,-0.024
25.370,0.104
25.375,0.102
25.380,-0.004
25.385,0.105
25.390,0.146
25.395,-0.037
25.400,-0.038
25.405,0.088
25.410,-0.027
25.415,-0.123
25.420,0.003
25.425,-0.031
25.430,-0.170
25.435,-0.084
25.440,-0.027
25.445,-0.154
25.450,-0.137
25.455,-0.020
25.460,-0.100
25.465,-0.162
25.470,-0.034
25.475,-0.042
25.480,-0.157
25.485,-0.054
25.490,0.013
25.495,-0.122
25.500,-0.088
25.505,0.041
25.510,-0.065
25.515,-0.144
25.520,-0.006
25.525,0.010
25.530,-0.090
25.535,-0.011
25.540,0.055
25.545,-0.053
25.550,-0.048
25.555,0.027
25.560,-0.075
25.565,-0.114
25.570,0.039
25.575,0.028
25.580,-0.088
25.585,0.013
25.590,0.066
25.595,-0.077
25.600,-0.055
25.605,0.057
25.610,-0.050
25.615,-0.078
25.620,0.086
25.625,0.044
25.630,-0.069
25.635,0.049
25.640,0.090
25.645,-0.060
25.650,-0.040
25.655,0.059
25.660,-0.050
25.665,-0.088
25.670,0.061
25.675,0.033
25.680,-0.072
25.685,0.035
25.690,0.076
25.695,-0.067
25.700,-0.031
25.705,0.085
25.710,-0.026
25.715,-0.064
25.720,0.086
25.725,0.029
25.730,-0.090
25.735,0.038
25.740,0.082
25.745,-0.064
25.750,-0.001
25.755,0.129
25.760,-0.008
25.765,-0.072
25.770,0.076
25.775,0.040
25.780,-0.068
25.785,0.050
25.790,0.105
25.795,-0.035
25.800,0.006
25.805,0.142
25.810,0.027
25.815,-0.028
25.820,0.130
25.825,0.092
25.830,-0.041
25.835,0.064
25.840,0.123
25.845,-0.036
25.850,-0.032
25.855,0.086
25.860,-0.021
25.865,-0.085
25.870,0.039
25.875,0.004
25.880,-0.098
25.885,0.009
25.890,0.050
25.895,-0.091
25.900,-0.042
25.905,0.097
25.910,-0.018
25.915,-0.087
25.920,0.048
25.925,0.018
25.930,-0.085
25.935,0.026
25.940,0.065
25.945,-0.106
25.950,-0.105
25.955,0.043
25.960,0.010
25.965,0.051
25.970,0.359
25.975,0.515
25.980,0.466
25.985,0.456
25.990,0.264
25.995,-0.094
26.000,-0.163
26.005,-0.058
26.010,-0.155
26.015,-0.203
26.020,-0.047
26.025,-0.056
26.030,-0.150
26.035,-0.037
26.040,0.021
26.045,-0.117
26.050,-0.100
26.055,0.029
26.060,-0.065
26.065,-0.121
26.070,0.018
26.075,-0.016
26.080,-0.121
26.085,-0.018
26.090,0.031
26.095,-0.084
26.100,-0.047
26.105,0.056
26.110,-0.052
26.115,-0.090
26.120,0.057
26.125,0.019
26.130,-0.093
26.135,0.019
26.140,0.076
26.145,-0.058
26.150,-0.027
26.155,0.086
26.160,-0.015
26.165,-0.057
26.170,0.061
26.175,0.032
26.180,-0.063
26.185,0.032
26.190,0.088
26.195,-0.038
26.200,-0.002
26.205,0.112
26.210,0.004
26.215,-0.008
26.220,0.145
26.225,0.074
26.230,-0.039
26.235,0.085
26.240,0.143
26.245,0.022
26.250,0.042
26.255,0.128
26.260,0.031
26.265,0.012
26.270,0.126
26.275,0.050
26.280,-0.046
26.285,0.053
26.290,0.057
26.295,-0.086
26.300,-0.064
26.305,0.000
26.310,-0.135
26.315,-0.166
26.320,-0.023
26.325,-0.071
26.330,-0.176
26.335,-0.083
26.340,-0.068
26.345,-0.189
26.350,-0.132
26.355,-0.005
26.360,-0.094
26.365,-0.155
26.370,-0.021
26.375,-0.047
26.380,-0.155
26.385,-0.046
26.390,-0.004
26.395,-0.131
26.400,-0.079
26.405,0.027
26.410,-0.094
26.415,-0.119
26.420,0.035
26.425,-0.020
26.430,-0.128
26.435,0.003
26.440,0.048
26.445,-0.098
26.450,-0.039
26.455,0.077
26.460,-0.052
26.465,-0.080
26.470,0.071
26.475,0.016
26.480,-0.098
26.485,0.018
26.490,0.074
26.495,-0.059
26.500,-0.040
26.505,0.069
26.510,-0.021
26.515,-0.068
26.520,0.053
26.525,0.024
26.530,-0.072
26.535,0.035
26.540,0.086
26.545,-0.039
26.550,-0.008
26.555,0.076
26.560,-0.048
26.565,-0.074
26.570,0.095
26.575,0.059
26.580,-0.084
26.585,0.020
26.590,0.089
26.595,-0.051
26.600,-0.030
26.605,0.082
26.610,-0.018
26.615,-0.052
26.620,0.087
26.625,0.047
26.630,-0.061
26.635,0.041
26.640,0.100
26.645,-0.001
26.650,0.054
26.655,0.168
26.660,0.015
26.665,-0.070
26.670,0.101
26.675,0.076
26.680,-0.060
26.685,0.066
26.690,0.130
26.695,-0.039
26.700,-0.012
26.705,0.085
26.710,-0.065
26.715,-0.096
26.720,0.067
26.725,0.015
26.730,-0.107
26.735,0.022
26.740,0.076
26.745,-0.083
26.750,-0.040
26.755,0.077
26.760,-0.052
26.765,-0.068
26.770,0.095
26.775,0.014
26.780,-0.097
26.785,0.048
26.790,0.061
26.795,-0.114
26.800,-0.055
26.805,0.062
26.810,-0.038
26.815,0.053
26.820,0.409
26.825,0.524
26.830,0.463
26.835,0.501
26.840,0.302
26.845,-0.086
26.850,-0.099
26.855,-0.015
26.860,-0.193
26.865,-0.196
26.870,0.003
26.875,-0.058
26.880,-0.176
26.885,-0.018
26.890,0.006
26.895,-0.173
26.900,-0.074
26.905,0.056
26.910,-0.113
26.915,-0.125
26.920,0.058
26.925,-0.020
26.930,-0.136
26.935,0.011
26.940,0.034
26.945,-0.135
26.950,-0.050
26.955,0.073
26.960,-0.084
26.965,-0.099
26.970,0.071
26.975,-0.008
26.980,-0.112
26.985,0.051
26.990,0.069
26.995,-0.082
27.000,0.016
27.005,0.094
27.010,-0.074
27.015,-0.065
27.020,0.114
27.025,0.050
27.030,-0.063
27.035,0.059
27.040,0.076
27.045,-0.075
27.050,0.017
27.055,0.129
27.060,-0.038
27.065,-0.037
27.070,0.144
27.075,0.043
27.080,-0.048
27.085,0.154
27.090,0.157
27.095,-0.033
27.100,0.062
27.105,0.161
27.110,0.007
27.115,0.029
27.120,0.181
27.125,0.034
27.130,-0.093
27.135,0.077
27.140,0.059
27.145,-0.138
27.150,-0.049
27.155,0.038
27.160,-0.127
27.165,-0.133
27.170,-0.002
27.175,-0.107
27.180,-0.211
27.185,-0.046
27.190,-0.017
27.195,-0.204
27.200,-0.122
27.205,0.029
27.210,-0.130
27.215,-0.156
27.220,0.017
27.225,-0.090
27.230,-0.195
27.235,-0.015
27.240,-0.003
27.245,-0.152
27.250,-0.051
27.255,0.039
27.260,-0.130
27.265,-0.114
27.270,0.071
27.275,-0.039
27.280,-0.153
27.285,0.014
27.290,0.034
27.295,-0.112
27.300,-0.005
27.305,0.101
27.310,-0.084
27.315,-0.102
27.320,0.083
27.325,-0.020
27.330,-0.139
27.335,0.042
27.340,0.072
27.345,-0.084
27.350,0.000
27.355,0.086
27.360,-0.057
27.365,-0.046
27.370,0.092
27.375,0.003
27.380,-0.083
27.385,0.063
27.390,0.069
27.395,-0.090
27.400,-0.008
27.405,0.091
27.410,-0.066
27.415,-0.042
27.420,0.123
27.425,-0.009
27.430,-0.083
27.435,0.105
27.440,0.072
27.445,-0.095
27.450,0.027
27.455,0.119
27.460,-0.035
27.465,-0.014
27.470,0.125
27.475,0.012
27.480,-0.083
27.485,0.071
27.490,0.074
27.495,-0.079
27.500,0.006
27.505,0.121
27.510,0.013
27.515,-0.007
27.520,0.093
27.525,0.023
27.530,-0.043
27.535,0.087
27.540,0.105
27.545,-0.026
27.550,0.055
27.555,0.158
27.560,0.010
27.565,-0.022
27.570,0.121
27.575,0.057
27.580,-0.029
27.585,0.108
27.590,0.081
27.595,-0.078
27.600,0.034
27.605,0.095
27.610,-0.069
27.615,-0.056
27.620,0.082
27.625,-0.002
27.630,-0.107
27.635,0.021
27.640,0.050
27.645,-0.094
27.650,-0.031
27.655,0.068
27.660,-0.053
27.665,-0.050
27.670,0.079
27.675,-0.014
27.680,-0.109
27.685,0.018
27.690,0.021
27.695,-0.121
27.700,-0.020
27.705,0.113
27.710,0.070
27.715,0.259
27.720,0.599
27.725,0.606
27.730,0.444
27.735,0.339
27.740,0.094
27.745,-0.150
27.750,-0.117
27.755,-0.065
27.760,-0.189
27.765,-0.177
27.770,-0.030
27.775,-0.087
27.780,-0.174
27.785,-0.058
27.790,-0.054
27.795,-0.187
27.800,-0.084
27.805,0.016
27.810,-0.135
27.815,-0.117
27.820,0.045
27.825,-0.049
27.830,-0.141
27.835,0.015
27.840,0.033
27.845,-0.123
27.850,-0.063
27.855,0.027
27.860,-0.082
27.865,-0.066
27.870,0.053
27.875,-0.051
27.880,-0.104
27.885,0.065
27.890,0.037
27.895,-0.128
27.900,-0.017
27.905,0.091
27.910,-0.043
27.915,-0.032
27.920,0.100
27.925,0.008
27.930,-0.063
27.935,0.068
27.940,0.057
27.945,-0.055
27.950,0.051
27.955,0.137
27.960,-0.001
27.965,-0.009
27.970,0.125
27.975,0.044
27.980,-0.033
27.985,0.125
27.990,0.127
27.995,-0.024
28.000,0.066
28.005,0.146
28.010,-0.008
28.015,0.005
28.020,0.144
28.025,0.027
28.030,-0.064
28.035,0.081
28.040,0.032
28.045,-0.157
28.050,-0.071
28.055,-0.002
28.060,-0.146
28.065,-0.112
28.070,0.009
28.075,-0.124
28.080,-0.208
28.085,-0.054
28.090,-0.066
28.095,-0.181
28.100,-0.053
28.105,-0.002
28.110,-0.180
28.115,-0.151
28.120,0.024
28.125,-0.058
28.130,-0.173
28.135,-0.061
28.140,-0.053
28.145,-0.148
28.150,-0.024
28.155,0.053
28.160,-0.093
28.165,-0.080
28.170,0.050
28.175,-0.044
28.180,-0.126
28.185,0.027
28.190,0.044
28.195,-0.091
28.200,0.004
28.205,0.074
28.210,-0.090
28.215,-0.071
28.220,0.073
28.225,-0.025
28.230,-0.099
28.235,0.061
28.240,0.059
28.245,-0.091
28.250,0.023
28.255,0.103
28.260,-0.076
28.265,-0.056
28.270,0.089
28.275,-0.005
28.280,-0.060
28.285,0.090
28.290,0.059
28.295,-0.096
28.300,0.019
28.305,0.115
28.310,-0.043
28.315,-0.045
28.320,0.093
28.325,0.005
28.330,-0.072
28.335,0.081
28.340,0.075
28.345,-0.099
28.350,0.006
28.355,0.145
28.360,-0.018
28.365,-0.060
28.370,0.078
28.375,0.002
28.380,-0.065
28.385,0.098
28.390,0.093
28.395,-0.065
28.400,0.029
28.405,0.124
28.410,-0.027
28.415,-0.025
28.420,0.126
28.425,0.037
28.430,-0.038
28.435,0.126
28.440,0.128
28.445,-0.031
28.450,0.033
28.455,0.117
28.460,-0.006
28.465,0.000
28.470,0.139
28.475,0.054
28.480,-0.044
28.485,0.059
28.490,0.017
28.495,-0.109
28.500,0.003
28.505,0.062
28.510,-0.092
28.515,-0.085
28.520,0.050
28.525,-0.025
28.530,-0.085
28.535,0.066
28.540,0.049
28.545,-0.103
28.550,-0.030
28.555,0.053
28.560,-0.045
28.565,-0.050
28.570,0.051
28.575,-0.015
28.580,-0.098
28.585,-0.001
28.590,0.002
28.595,-0.069
28.600,0.106
28.605,0.329
28.610,0.393
28.615,0.515
28.620,0.572
28.625,0.255
28.630,-0.066
28.635,-0.060
28.640,-0.088
28.645,-0.206
28.650,-0.119
28.655,-0.043
28.660,-0.144
28.665,-0.116
28.670,0.004
28.675,-0.081
28.680,-0.134
28.685,0.002
28.690,-0.029
28.695,-0.144
28.700,-0.020
28.705,0.065
28.710,-0.076
28.715,-0.074
28.720,0.042
28.725,-0.064
28.730,-0.114
28.735,0.039
28.740,0.014
28.745,-0.103
28.750,-0.012
28.755,0.053
28.760,-0.056
28.765,-0.039
28.770,0.074
28.775,-0.003
28.780,-0.060
28.785,0.068
28.790,0.045
28.795,-0.074
28.800,0.031
28.805,0.086
28.810,-0.055
28.815,-0.014
28.820,0.141
28.825,0.050
28.830,-0.034
28.835,0.093
28.840,0.044
28.845,-0.090
28.850,0.042
28.855,0.118
28.860,0.000
28.865,0.034
28.870,0.135
28.875,0.035
28.880,-0.004
28.885,0.147
28.890,0.108
28.895,-0.033
28.900,0.077
28.905,0.140
28.910,-0.025
28.915,0.001
28.920,0.144
28.925,-0.006
28.930,-0.125
28.935,0.030
28.940,-0.023
28.945,-0.190
28.950,-0.056
28.955,-0.016
28.960,-0.197
28.965,-0.144
28.970,-0.021
28.975,-0.161
28.980,-0.205
28.985,-0.030
28.990,-0.072
28.995,-0.198
29.000,-0.051
29.005,-0.005
29.010,-0.190
29.015,-0.131
29.020,0.020
29.025,-0.115
29.030,-0.164
29.035,0.029
29.040,0.005
29.045,-0.135
29.050,-0.021
29.055,0.030
29.060,-0.135
29.065,-0.093
29.070,0.044
29.075,-0.064
29.080,-0.108
29.085,0.065
29.090,0.042
29.095,-0.110
29.100,-0.001
29.105,0.058
29.110,-0.109
29.115,-0.045
29.120,0.117
29.125,-0.019
29.130,-0.101
29.135,0.080
29.140,0.059
29.145,-0.114
29.150,0.010
29.155,0.113
29.160,-0.045
29.165,-0.029
29.170,0.119
29.175,-0.012
29.180,-0.112
29.185,0.067
29.190,0.053
29.195,-0.093
29.200,0.031
29.205,0.102
29.210,-0.060
29.215,-0.026
29.220,0.122
29.225,-0.018
29.230,-0.110
29.235,0.074
29.240,0.070
29.245,-0.073
29.250,0.031
29.255,0.094
29.260,-0.049
29.265,-0.009
29.270,0.127
29.275,0.007
29.280,-0.058
29.285,0.119
29.290,0.084
29.295,-0.061
29.300,0.070
29.305,0.145
29.310,-0.021
29.315,-0.011
29.320,0.136
29.325,0.034
29.330,-0.041
29.335,0.103
29.340,0.053
29.345,-0.081
29.350,0.037
29.355,0.088
29.360,-0.081
29.365,-0.070
29.370,0.066
29.375,-0.031
29.380,-0.086
29.385,0.055
29.390,0.016
29.395,-0.098
29.400,0.044
29.405,0.086
29.410,-0.108
29.415,-0.058
29.420,0.090
29.425,-0.028
29.430,-0.079
29.435,0.072
29.440,0.023
29.445,-0.141
29.450,-0.028
29.455,0.072
29.460,-0.013
29.465,0.168
29.470,0.513
29.475,0.534
29.480,0.462
29.485,0.459
29.490,0.174
29.495,-0.136
29.500,-0.076
29.505,-0.029
29.510,-0.206
29.515,-0.169
29.520,0.003
29.525,-0.096
29.530,-0.158
29.535,-0.008
29.540,-0.041
29.545,-0.161
29.550,-0.039
29.555,0.017
29.560,-0.129
29.565,-0.088
29.570,0.045
29.575,-0.066
29.580,-0.139
29.585,0.020
29.590,0.016
29.595,-0.125
29.600,-0.032
29.605,0.042
29.610,-0.093
29.615,-0.041
29.620,0.117
29.625,-0.022
29.630,-0.114
29.635,0.054
29.640,0.021
29.645,-0.112
29.650,0.029
29.655,0.089
29.660,-0.080
29.665,-0.034
29.670,0.110
29.675,-0.017
29.680,-0.078
29.685,0.084
29.690,0.031
29.695,-0.099
29.700,0.046
29.705,0.116
29.710,-0.034
29.715,0.014
29.720,0.161
29.725,0.030
29.730,-0.034
29.735,0.158
29.740,0.138
29.745,-0.015
29.750,0.093
29.755,0.146
29.760,-0.032
29.765,-0.005
29.770,0.148
29.775,0.037
29.780,-0.045
29.785,0.102
29.790,0.042
29.795,-0.132
29.800,-0.027
29.805,-0.003
29.810,-0.188
29.815,-0.117
29.820,0.022
29.825,-0.146
29.830,-0.202
29.835,-0.004
29.840,-0.059
29.845,-0.227
29.850,-0.100
29.855,-0.020
29.860,-0.149
29.865,-0.098
29.870,0.036
29.875,-0.085
29.880,-0.159
29.885,-0.002
29.890,-0.041
29.895,-0.169
29.900,-0.028
29.905,0.025
29.910,-0.158
29.915,-0.110
29.920,0.063
29.925,-0.069
29.930,-0.132
29.935,0.064
29.940,0.016
29.945,-0.138
29.950,-0.003
29.955,0.069
29.960,-0.081
29.965,-0.054
29.970,0.061
29.975,-0.039
29.980,-0.067
29.985,0.097
29.990,0.051
29.995,-0.105
30.000,0.003
30.005,0.073
30.010,-0.085
30.015,-0.032
30.020,0.124
30.025,-0.029
30.030,-0.106
30.035,0.088
30.040,0.059
30.045,-0.094
30.050,0.041
30.055,0.103
30.060,-0.071
30.065,-0.026
30.070,0.119
30.075,0.003
30.080,-0.046
30.085,0.111
30.090,0.039
30.095,-0.103
30.100,0.045
30.105,0.110
30.110,-0.066
30.115,-0.021
30.120,0.125
30.125,-0.023
30.130,-0.083
30.135,0.106
30.140,0.061
30.145,-0.083
30.150,0.063
30.155,0.128
30.160,-0.051
30.165,-0.007
30.170,0.128
30.175,-0.016
30.180,-0.062
30.185,0.123
30.190,0.100
30.195,-0.041
30.200,0.040
30.205,0.101
30.210,-0.039
30.215,0.022
30.220,0.180
30.225,0.019
30.230,-0.059
30.235,0.129
30.240,0.084
30.245,-0.064
30.250,0.076
30.255,0.143
30.260,-0.043
30.265,-0.024
30.270,0.117
30.275,-0.032
30.280,-0.111
30.285,0.066
30.290,0.034
30.295,-0.112
30.300,0.010
30.305,0.085
30.310,-0.082
30.315,-0.043
30.320,0.115
30.325,-0.032
30.330,-0.114
30.335,0.074
30.340,0.034
30.345,-0.126
30.350,0.021
30.355,0.116
30.360,-0.081
30.365,-0.089
30.370,0.063
30.375,-0.041
30.380,-0.014
30.385,0.354
30.390,0.510
30.395,0.474
30.400,0.557
30.405,0.401
30.410,-0.016
30.415,-0.097
30.420,-0.011
30.425,-0.186
30.430,-0.221
30.435,-0.013
30.440,-0.076
30.445,-0.220
30.450,-0.047
30.455,0.013
30.460,-0.181
30.465,-0.121
30.470,0.048
30.475,-0.089
30.480,-0.143
30.485,0.031
30.490,-0.039
30.495,-0.182
30.500,-0.023
30.505,0.048
30.510,-0.132
30.515,-0.086
30.520,0.068
30.525,-0.069
30.530,-0.127
30.535,0.048
30.540,0.008
30.545,-0.118
30.550,0.008
30.555,0.062
30.560,-0.083
30.565,-0.026
30.570,0.108
30.575,-0.029
30.580,-0.088
30.585,0.073
30.590,0.022
30.595,-0.100
30.600,0.048
30.605,0.099
30.610,-0.065
30.615,0.012
30.620,0.149
30.625,-0.011
30.630,-0.044
30.635,0.143
30.640,0.071
30.645,-0.072
30.650,0.085
30.655,0.141
30.660,-0.051
30.665,0.009
30.670,0.193
30.675,0.058
30.680,-0.029
30.685,0.136
30.690,0.094
30.695,-0.054
30.700,0.061
30.705,0.094
30.710,-0.105
30.715,-0.083
30.720,0.041
30.725,-0.113
30.730,-0.178
30.735,-0.001
30.740,-0.066
30.745,-0.232
30.750,-0.075
30.755,0.004
30.760,-0.195
30.765,-0.161
30.770,0.000
30.775,-0.133
30.780,-0.191
30.785,-0.001
30.790,-0.058
30.795,-0.209
30.800,-0.038
30.805,0.029
30.810,-0.157
30.815,-0.090
30.820,0.077
30.825,-0.077
30.830,-0.151
30.835,0.046
30.840,-0.007
30.845,-0.161
30.850,-0.004
30.855,0.071
30.860,-0.096
30.865,-0.055
30.870,0.081
30.875,-0.074
30.880,-0.144
30.885,0.064
30.890,0.044
30.895,-0.117
30.900,0.011
30.905,0.078
30.910,-0.107
30.915,-0.042
30.920,0.140
30.925,-0.016
30.930,-0.073
30.935,0.128
30.940,0.014
30.945,-0.153
30.950,0.058
30.955,0.120
30.960,-0.082
30.965,-0.019
30.970,0.114
30.975,-0.049
30.980,-0.100
30.985,0.093
30.990,0.040
30.995,-0.101
31.000,0.065
31.005,0.125
31.010,-0.071
31.015,-0.027
31.020,0.134
31.025,0.006
31.030,-0.070
31.035,0.098
31.040,0.057
31.045,-0.091
31.050,0.053
31.055,0.126
31.060,-0.056
31.065,-0.012
31.070,0.154
31.075,0.009
31.080,-0.071
31.085,0.135
31.090,0.114
31.095,-0.042
31.100,0.098
31.105,0.161
31.110,-0.051
31.115,-0.018
31.120,0.165
31.125,0.038
31.130,-0.045
31.135,0.137
31.140,0.061
31.145,-0.147
31.150,0.010
31.155,0.110
31.160,-0.101
31.165,-0.079
31.170,0.104
31.175,-0.009
31.180,-0.084
31.185,0.083
31.190,0.026
31.195,-0.126
31.200,0.015
31.205,0.070
31.210,-0.107
31.215,-0.039
31.220,0.126
31.225,-0.033
31.230,-0.111
31.235,0.058
31.240,-0.020
31.245,-0.141
31.250,0.130
31.255,0.376
31.260,0.357
31.265,0.469
31.270,0.548
31.275,0.199
31.280,-0.086
31.285,0.005
31.290,-0.074
31.295,-0.244
31.300,-0.068
31.305,0.022
31.310,-0.184
31.315,-0.153
31.320,0.028
31.325,-0.083
31.330,-0.140
31.335,0.042
31.340,-0.021
31.345,-0.189
31.350,-0.040
31.355,0.048
31.360,-0.117
31.365,-0.061
31.370,0.100
31.375,-0.058
31.380,-0.146
31.385,0.066
31.390,0.038
31.395,-0.125
31.400,0.021
31.405,0.072
31.410,-0.116
31.415,-0.034
31.420,0.140
31.425,-0.029
31.430,-0.102
31.435,0.104
31.440,0.032
31.445,-0.141
31.450,0.035
31.455,0.118
31.460,-0.063
31.465,-0.003
31.470,0.130
31.475,-0.030
31.480,-0.064
31.485,0.141
31.490,0.084
31.495,-0.070
31.500,0.077
31.505,0.149
31.510,-0.024
31.515,0.019
31.520,0.177
31.525,0.063
31.530,-0.009
31.535,0.115
31.540,0.056
31.545,-0.053
31.550,0.091
31.555,0.144
31.560,-0.039
31.565,0.003
31.570,0.129
31.575,-0.053
31.580,-0.129
31.585,0.049
31.590,-0.019
31.595,-0.186
31.600,-0.047
31.605,-0.002
31.610,-0.215
31.615,-0.145
31.620,0.018
31.625,-0.149
31.630,-0.175
31.635,0.002
31.640,-0.101
31.645,-0.232
31.650,-0.067
31.655,-0.007
31.660,-0.178
31.665,-0.112
31.670,0.047
31.675,-0.114
31.680,-0.179
31.685,0.021
31.690,-0.030
31.695,-0.181
31.700,-0.022
31.705,0.051
31.710,-0.142
31.715,-0.087
31.720,0.117
31.725,-0.037
31.730,-0.138
31.735,0.089
31.740,0.033
31.745,-0.159
31.750,0.005
31.755,0.071
31.760,-0.121
31.765,-0.055
31.770,0.118
31.775,-0.031
31.780,-0.115
31.785,0.068
31.790,0.023
31.795,-0.110
31.800,0.055
31.805,0.098
31.810,-0.107
31.815,-0.037
31.820,0.142
31.825,-0.026
31.830,-0.113
31.835,0.085
31.840,0.053
31.845,-0.095
31.850,0.044
31.855,0.119
31.860,-0.059
31.865,-0.043
31.870,0.104
31.875,-0.029
31.880,-0.082
31.885,0.125
31.890,0.060
31.895,-0.097
31.900,0.077
31.905,0.129
31.910,-0.082
31.915,-0.030
31.920,0.155
31.925,0.023
31.930,-0.050
31.935,0.161
31.940,0.102
31.945,-0.077
31.950,0.093
31.955,0.147
31.960,-0.066
31.965,0.004
31.970,0.186
31.975,0.032
31.980,-0.065
31.985,0.101
31.990,0.024
31.995,-0.148
32.000,0.005
32.005,0.070
32.010,-0.115
32.015,-0.059
32.020,0.102
32.025,-0.039
32.030,-0.093
32.035,0.094
32.040,0.027
32.045,-0.131
32.050,0.041
32.055,0.116
32.060,-0.116
32.065,-0.073
32.070,0.116
32.075,-0.059
32.080,-0.156
32.085,0.083
32.090,0.145
32.095,0.139
32.100,0.459
32.105,0.646
32.110,0.431
32.115,0.293
32.120,0.205
32.125,-0.108
32.130,-0.230
32.135,-0.041
32.140,-0.072
32.145,-0.223
32.150,-0.059
32.155,0.028
32.160,-0.171
32.165,-0.118
32.170,0.044
32.175,-0.105
32.180,-0.147
32.185,0.059
32.190,0.000
32.195,-0.183
32.200,-0.047
32.205,0.053
32.210,-0.099
32.215,-0.062
32.220,0.068
32.225,-0.085
32.230,-0.142
32.235,0.063
32.240,0.039
32.245,-0.107
32.250,0.032
32.255,0.097
32.260,-0.106
32.265,-0.073
32.270,0.097
32.275,-0.040
32.280,-0.106
32.285,0.087
32.290,0.048
32.295,-0.095
32.300,0.060
32.305,0.122
32.310,-0.090
32.315,-0.032
32.320,0.170
32.325,0.015
32.330,-0.088
32.335,0.100
32.340,0.082
32.345,-0.057
32.350,0.094
32.355,0.176
32.360,-0.025
32.365,-0.004
32.370,0.171
32.375,0.046
32.380,-0.045
32.385,0.141
32.390,0.114
32.395,-0.069
32.400,0.054
32.405,0.140
32.410,-0.056
32.415,-0.037
32.420,0.097
32.425,-0.071
32.430,-0.146
32.435,0.028
32.440,-0.037
32.445,-0.215
32.450,-0.084
32.455,0.007
32.460,-0.182
32.465,-0.155
32.470,0.018
32.475,-0.116
32.480,-0.178
32.485,-0.001
32.490,-0.076
32.495,-0.206
32.500,-0.028
32.505,0.011
32.510,-0.183
32.515,-0.104
32.520,0.057
32.525,-0.099
32.530,-0.140
32.535,0.075
32.540,-0.005
32.545,-0.187
32.550,-0.014
32.555,0.068
32.560,-0.122
32.565,-0.064
32.570,0.112
32.575,-0.024
32.580,-0.135
32.585,0.021
32.590,0.038
32.595,-0.087
32.600,0.017
32.605,0.065
32.610,-0.110
32.615,-0.044
32.620,0.132
32.625,-0.013
32.630,-0.097
32.635,0.086
32.640,0.040
32.645,-0.106
32.650,0.057
32.655,0.119
32.660,-0.079
32.665,-0.032
32.670,0.118
32.675,-0.033
32.680,-0.083
32.685,0.105
32.690,0.030
32.695,-0.122
32.700,0.044
32.705,0.113
32.710,-0.058
32.715,-0.005
32.720,0.118
32.725,-0.031
32.730,-0.067
32.735,0.117
32.740,0.074
32.745,-0.048
32.750,0.054
32.755,0.056
32.760,-0.089
32.765,-0.010
32.770,0.101
32.775,-0.040
32.780,-0.060
32.785,0.124
32.790,0.066
32.795,-0.067
32.800,0.077
32.805,0.132
32.810,-0.045
32.815,0.013
32.820,0.164
32.825,0.017
32.830,-0.037
32.835,0.138
32.840,0.079
32.845,-0.058
32.850,0.085
32.855,0.130
32.860,-0.055
32.865,0.008
32.870,0.132
32.875,-0.058
32.880,-0.117
32.885,0.074
32.890,0.004
32.895,-0.151
32.900,0.016
32.905,0.086
32.910,-0.122
32.915,-0.046
32.920,0.142
32.925,-0.052
32.930,-0.130
32.935,0.097
32.940,0.037
32.945,-0.113
32.950,0.070
32.955,0.095
32.960,-0.143
32.965,-0.088
32.970,0.067
32.975,-0.027
32.980,0.060
32.985,0.404
32.990,0.520
32.995,0.494
33.000,0.564
33.005,0.381
33.010,-0.027
33.015,-0.081
33.020,-0.004
33.025,-0.210
33.030,-0.231
33.035,-0.006
33.040,-0.076
33.045,-0.213
33.050,-0.049
33.055,0.008
33.060,-0.171
33.065,-0.111
33.070,0.045
33.075,-0.080
33.080,-0.135
33.085,-0.010
33.090,-0.077
33.095,-0.172
33.100,0.017
33.105,0.073
33.110,-0.171
33.115,-0.130
33.120,0.044
33.125,-0.094
33.130,-0.125
33.135,0.054
33.140,-0.017
33.145,-0.143
33.150,0.033
33.155,0.069
33.160,-0.141
33.165,-0.061
33.170,0.086
33.175,-0.067
33.180,-0.086
33.185,0.116
33.190,0.050
33.195,-0.104
33.200,0.045
33.205,0.098
33.210,-0.080
33.215,-0.002
33.220,0.142
33.225,-0.024
33.230,-0.053
33.235,0.155
33.240,0.084
33.245,-0.072
33.250,0.080
33.255,0.136
33.260,-0.036
33.265,0.030
33.270,0.174
33.275,0.025
33.280,-0.025
33.285,0.160
33.290,0.084
33.295,-0.081
33.300,0.072
33.305,0.096
33.310,-0.137
33.315,-0.062
33.320,0.078
33.325,-0.118
33.330,-0.156
33.335,0.033
33.340,-0.064
33.345,-0.230
33.350,-0.066
33.355,-0.016
33.360,-0.216
33.365,-0.141
33.370,0.013
33.375,-0.138
33.380,-0.179
33.385,0.005
33.390,-0.038
33.395,-0.160
33.400,-0.034
33.405,0.000
33.410,-0.160
33.415,-0.088
33.420,0.061
33.425,-0.094
33.430,-0.157
33.435,0.066
33.440,0.026
33.445,-0.145
33.450,0.015
33.455,0.068
33.460,-0.125
33.465,-0.041
33.470,0.116
33.475,-0.047
33.480,-0.102
33.485,0.101
33.490,0.018
33.495,-0.163
33.500,0.019
33.505,0.097
33.510,-0.086
33.515,-0.035
33.520,0.074
33.525,-0.069
33.530,-0.061
33.535,0.136
33.540,0.052
33.545,-0.094
33.550,0.054
33.555,0.108
33.560,-0.068
33.565,-0.007
33.570,0.141
33.575,-0.016
33.580,-0.078
33.585,0.104
33.590,0.052
33.595,-0.088
33.600,0.064
33.605,0.096
33.610,-0.103
33.615,-0.017
33.620,0.115
33.625,-0.066
33.630,-0.082
33.635,0.149
33.640,0.085
33.645,-0.090
33.650,0.057
33.655,0.125
33.660,-0.047
33.665,0.027
33.670,0.156
33.675,-0.016
33.680,-0.032
33.685,0.179
33.690,0.100
33.695,-0.052
33.700,0.090
33.705,0.110
33.710,-0.075
33.715,0.036
33.720,0.193
33.725,-0.016
33.730,-0.084
33.735,0.134
33.740,0.064
33.745,-0.104
33.750,0.039
33.755,0.071
33.760,-0.113
33.765,-0.025
33.770,0.106
33.775,-0.085
33.780,-0.120
33.785,0.096
33.790,0.021
33.795,-0.140
33.800,0.038
33.805,0.114
33.810,-0.102
33.815,-0.065
33.820,0.108
33.825,-0.041
33.830,-0.107
33.835,0.075
33.840,-0.005
33.845,-0.126
33.850,0.160
33.855,0.412
33.860,0.385
33.865,0.495
33.870,0.533
33.875,0.122
33.880,-0.137
33.885,-0.023
33.890,-0.116
33.895,-0.252
33.900,-0.058
33.905,0.005
33.910,-0.173
33.915,-0.082
33.920,0.056
33.925,-0.108
33.930,-0.141
33.935,0.035
33.940,-0.042
33.945,-0.167
33.950,0.010
33.955,0.049
33.960,-0.144
33.965,-0.067
33.970,0.086
33.975,-0.080
33.980,-0.152
33.985,0.054
33.990,0.027
33.995,-0.126
34.000,0.010
34.005,0.069
34.010,-0.106
34.015,-0.033
34.020,0.121
34.025,-0.037
34.030,-0.105
34.035,0.076
34.040,0.032
34.045,-0.117
34.050,0.024
34.055,0.100
34.060,-0.066
34.065,-0.016
34.070,0.127
34.075,-0.014
34.080,-0.055
34.085,0.142
34.090,0.093
34.095,-0.076
34.100,0.049
34.105,0.130
34.110,-0.010
34.115,0.036
34.120,0.151
34.125,0.025
34.130,-0.017
34.135,0.155
34.140,0.102
34.145,-0.067
34.150,0.059
34.155,0.134
34.160,-0.039
34.165,-0.016
34.170,0.108
34.175,-0.019
34.180,-0.109
34.185,0.013
34.190,-0.027
34.195,-0.172
34.200,-0.067
34.205,-0.017
34.210,-0.180
34.215,-0.145
34.220,-0.014
34.225,-0.126
34.230,-0.186
34.235,-0.037
34.240,-0.070
34.245,-0.190
34.250,-0.072
34.255,-0.032
34.260,-0.191
34.265,-0.141
34.270,0.025
34.275,-0.077
34.280,-0.145
34.285,0.003
34.290,-0.034
34.295,-0.133
34.300,0.007
34.305,0.031
34.310,-0.138
34.315,-0.064
34.320,0.076
34.325,-0.050
34.330,-0.106
34.335,0.041
34.340,-0.001
34.345,-0.130
34.350,0.010
34.355,0.082
34.360,-0.081
34.365,-0.030
34.370,0.099
34.375,-0.038
34.380,-0.071
34.385,0.090
34.390,0.021
34.395,-0.111
34.400,0.035
34.405,0.107
34.410,-0.077
34.415,-0.051
34.420,0.112
34.425,-0.001
34.430,-0.066
34.435,0.082
34.440,0.023
34.445,-0.098
34.450,0.056
34.455,0.105
34.460,-0.066
34.465,0.004
34.470,0.158
34.475,0.012
34.480,-0.073
34.485,0.091
34.490,0.057
34.495,-0.086
34.500,0.040
34.505,0.099
34.510,-0.043
34.515,0.047
34.520,0.184
34.525,0.023
34.530,-0.024
34.535,0.141
34.540,0.060
34.545,-0.063
34.550,0.110
34.555,0.138
34.560,-0.070
34.565,-0.016
34.570,0.103
34.575,-0.056
34.580,-0.101
34.585,0.071
34.590,0.037
34.595,-0.087
34.600,0.011
34.605,0.028
34.610,-0.120
34.615,-0.032
34.620,0.095
34.625,-0.041
34.630,-0.072
34.635,0.075
34.640,0.010
34.645,-0.105
34.650,0.032
34.655,0.067
34.660,-0.127
34.665,-0.075
34.670,0.099
34.675,0.053
34.680,0.208
34.685,0.569
34.690,0.581
34.695,0.379
34.700,0.282
34.705,0.092
34.710,-0.168
34.715,-0.152
34.720,-0.052
34.725,-0.154
34.730,-0.147
34.735,0.006
34.740,-0.076
34.745,-0.184
34.750,-0.014
34.755,0.013
34.760,-0.171
34.765,-0.080
34.770,0.045
34.775,-0.107
34.780,-0.139
34.785,0.047
34.790,0.024
34.795,-0.132
34.800,-0.023
34.805,0.053
34.810,-0.107
34.815,-0.042
34.820,0.105
34.825,-0.063
34.830,-0.132
34.835,0.061
34.840,0.023
34.845,-0.106
34.850,0.060
34.855,0.098
34.860,-0.110
34.865,-0.040
34.870,0.112
34.875,-0.020
34.880,-0.039
34.885,0.124
34.890,0.038
34.895,-0.089
34.900,0.085
34.905,0.126
34.910,-0.061
34.915,0.015
34.920,0.133
34.925,-0.012
34.930,-0.029
34.935,0.138
34.940,0.097
34.945,-0.024
34.950,0.090
34.955,0.122
34.960,-0.008
34.965,0.077
34.970,0.158
34.975,-0.001
34.980,-0.007
34.985,0.157
34.990,0.068
34.995,-0.074
35.000,0.045
35.005,0.019
35.010,-0.152
35.015,-0.037
35.020,0.041
35.025,-0.147
35.030,-0.157
35.035,-0.011
35.040,-0.103
35.045,-0.207
35.050,-0.068
35.055,-0.062
35.060,-0.218
35.065,-0.110
35.070,0.020
35.075,-0.143
35.080,-0.168
35.085,0.005
35.090,-0.060
35.095,-0.167
35.100,-0.011
35.105,0.024
35.110,-0.133
35.115,-0.051
35.120,0.054
35.125,-0.107
35.130,-0.107
35.135,0.058
35.140,-0.046
35.145,-0.141
35.150,0.041
35.155,0.055
35.160,-0.121
35.165,-0.034
35.170,0.085
35.175,-0.073
35.180,-0.111
35.185,0.059
35.190,0.004
35.195,-0.108
35.200,0.056
35.205,0.083
35.210,-0.106
35.215,-0.011
35.220,0.131
35.225,-0.029
35.230,-0.063
35.235,0.087
35.240,-0.008
35.245,-0.095
35.250,0.083
35.255,0.060
35.260,-0.122
35.265,0.011
35.270,0.131
35.275,-0.047
35.280,-0.056
35.285,0.106
35.290,-0.006
35.295,-0.093
35.300,0.099
35.305,0.096
35.310,-0.087
35.315,0.008
35.320,0.135
35.325,-0.020
35.330,-0.056
35.335,0.101
35.340,0.019
35.345,-0.071
35.350,0.111
35.355,0.083
35.360,-0.109
35.365,0.020
35.370,0.159
35.375,0.022
35.380,-0.012
35.385,0.128
35.390,0.060
35.395,-0.047
35.400,0.096
35.405,0.114
35.410,-0.036
35.415,0.047
35.420,0.147
35.425,-0.009
35.430,-0.040
35.435,0.101
35.440,-0.013
35.445,-0.137
35.450,0.040
35.455,0.054
35.460,-0.123
35.465,-0.016
35.470,0.087
35.475,-0.076
35.480,-0.083
35.485,0.074
35.490,0.007
35.495,-0.102
35.500,0.018
35.505,0.049
35.510,-0.082
35.515,-0.007
35.520,0.092
35.525,-0.076
35.530,-0.138
35.535,0.038
35.540,0.068
35.545,0.106
35.550,0.444
35.555,0.636
35.560,0.516
35.565,0.453
35.570,0.283
35.575,-0.069
35.580,-0.151
35.585,-0.040
35.590,-0.137
35.595,-0.212
35.600,-0.043
35.605,-0.039
35.610,-0.193
35.615,-0.089
35.620,0.008
35.625,-0.145
35.630,-0.161
35.635,-0.002
35.640,-0.030
35.645,-0.122
35.650,-0.021
35.655,0.001
35.660,-0.112
35.665,-0.029
35.670,0.037
35.675,-0.106
35.680,-0.092
35.685,0.057
35.690,-0.026
35.695,-0.125
35.700,0.034
35.705,0.041
35.710,-0.143
35.715,-0.040
35.720,0.093
35.725,-0.052
35.730,-0.072
35.735,0.076
35.740,-0.001
35.745,-0.096
35.750,0.058
35.755,0.092
35.760,-0.056
35.765,0.012
35.770,0.114
35.775,-0.028
35.780,-0.040
35.785,0.131
35.790,0.064
35.795,-0.046
35.800,0.098
35.805,0.132
35.810,-0.011
35.815,0.050
35.820,0.140
35.825,-0.007
35.830,-0.021
35.835,0.152
35.840,0.066
35.845,-0.053
35.850,0.105
35.855,0.107
35.860,-0.060
35.865,0.009
35.870,0.079
35.875,-0.064
35.880,-0.090
35.885,0.014
35.890,-0.080
35.895,-0.186
35.900,-0.038
35.905,-0.025
35.910,-0.204
35.915,-0.123
35.920,-0.010
35.925,-0.169
35.930,-0.158
35.935,0.031
35.940,-0.083
35.945,-0.206
35.950,-0.019
35.955,-0.011
35.960,-0.187
35.965,-0.068
35.970,0.044
35.975,-0.133
35.980,-0.141
35.985,0.046
35.990,-0.022
35.995,-0.131
36.000,0.006
36.005,0.006
36.010,-0.146
36.015,-0.037
36.020,0.074
36.025,-0.076
36.030,-0.082
36.035,0.078
36.040,0.010
36.045,-0.106
36.050,0.022
36.055,0.041
36.060,-0.106
36.065,-0.017
36.070,0.082
36.075,-0.066
36.080,-0.058
36.085,0.102
36.090,-0.004
36.095,-0.103
36.100,0.059
36.105,0.045
36.110,-0.111
36.115,-0.005
36.120,0.107
36.125,-0.040
36.130,-0.064
36.135,0.098
36.140,0.015
36.145,-0.091
36.150,0.074
36.155,0.074
36.160,-0.078
36.165,0.029
36.170,0.117
36.175,-0.056
36.180,-0.055
36.185,0.122
36.190,0.038
36.195,-0.070
36.200,0.078
36.205,0.118
36.210,-0.045
36.215,-0.004
36.220,0.125
36.225,0.033
36.230,0.016
36.235,0.125
36.240,0.040
36.245,-0.040
36.250,0.109
36.255,0.126
36.260,-0.032
36.265,0.032
36.270,0.120
36.275,-0.031
36.280,-0.056
36.285,0.069
36.290,-0.021
36.295,-0.110
36.300,0.030
36.305,0.044
36.310,-0.102
36.315,-0.034
36.320,0.085
36.325,-0.051
36.330,-0.088
36.335,0.089
36.340,0.044
36.345,-0.067
36.350,0.047
36.355,0.053
36.360,-0.097
36.365,-0.040
36.370,0.047
36.375,-0.080
36.380,-0.042
36.385,0.234
36.390,0.348
36.395,0.419
36.400,0.605
36.405,0.462
36.410,0.046
36.415,-0.052
36.420,-0.011
36.425,-0.179
36.430,-0.200
36.435,-0.027
36.440,-0.088
36.445,-0.182
36.450,-0.034
36.455,-0.007
36.460,-0.142
36.465,-0.059
36.470,0.049
36.475,-0.080
36.480,-0.091
36.485,0.053
36.490,-0.033
36.495,-0.141
36.500,-0.003
36.505,0.019
36.510,-0.114
36.515,-0.033
36.520,0.070
36.525,-0.075
36.530,-0.087
36.535,0.090
36.540,0.013
36.545,-0.112
36.550,0.019
36.555,0.046
36.560,-0.091
36.565,-0.011
36.570,0.089
36.575,-0.043
36.580,-0.045
36.585,0.093
36.590,0.022
36.595,-0.059
36.600,0.071
36.605,0.067
36.610,-0.081
36.615,0.034
36.620,0.167
36.625,0.007
36.630,-0.017
36.635,0.147
36.640,0.059
36.645,-0.068
36.650,0.076
36.655,0.116
36.660,-0.018
36.665,0.057
36.670,0.143
36.675,-0.001
36.680,-0.009
36.685,0.160
36.690,0.073
36.695,-0.078
36.700,0.067
36.705,0.109
36.710,-0.081
36.715,-0.072
36.720,0.022
36.725,-0.105
36.730,-0.165
36.735,-0.034
36.740,-0.067
36.745,-0.182
36.750,-0.099
36.755,-0.071
36.760,-0.189
36.765,-0.127
36.770,-0.030
36.775,-0.157
36.780,-0.163
36.785,0.002
36.790,-0.067
36.795,-0.176
36.800,-0.028
36.805,-0.002
36.810,-0.150
36.815,-0.087
36.820,0.009
36.825,-0.081
36.830,-0.069
36.835,0.035
36.840,-0.061
36.845,-0.134
36.850,0.028
36.855,0.040
36.860,-0.111
36.865,-0.023
36.870,0.090
36.875,-0.044
36.880,-0.071
36.885,0.076
36.890,0.014
36.895,-0.098
36.900,0.033
36.905,0.075
36.910,-0.072
36.915,-0.021
36.920,0.081
36.925,-0.058
36.930,-0.059
36.935,0.106
36.940,0.004
36.945,-0.094
36.950,0.046
36.955,0.052
36.960,-0.056
36.965,0.024
36.970,0.090
36.975,-0.037
36.980,-0.033
36.985,0.102
36.990,0.020
36.995,-0.076
37.000,0.042
37.005,0.059
37.010,-0.052
37.015,0.010
37.020,0.085
37.025,-0.021
37.030,-0.010
37.035,0.129
37.040,0.046
37.045,-0.046
37.050,0.095
37.055,0.099
37.060,-0.048
37.065,0.032
37.070,0.135
37.075,0.021
37.080,0.002
37.085,0.119
37.090,0.051
37.095,-0.051
37.100,0.037
37.105,0.023
37.110,-0.098
37.115,-0.015
37.120,0.048
37.125,-0.093
37.130,-0.065
37.135,0.099
37.140,0.022
37.145,-0.075
37.150,0.034
37.155,0.038
37.160,-0.080
37.165,-0.005
37.170,0.085
37.175,-0.035
37.180,-0.044
37.185,0.078
37.190,-0.033
37.195,-0.142
37.200,0.049
37.205,0.144
37.210,0.127
37.215,0.398
37.220,0.623
37.225,0.468
37.230,0.311
37.235,0.238
37.240,-0.006
37.245,-0.195
37.250,-0.097
37.255,-0.064
37.260,-0.186
37.265,-0.095
37.270,0.032
37.275,-0.112
37.280,-0.146
37.285,0.006
37.290,-0.077
37.295,-0.172
37.300,-0.022
37.305,-0.022
37.310,-0.150
37.315,-0.047
37.320,0.031
37.325,-0.100
37.330,-0.092
37.335,0.034
37.340,-0.039
37.345,-0.106
37.350,0.029
37.355,0.038
37.360,-0.095
37.365,-0.031
37.370,0.049
37.375,-0.074
37.380,-0.059
37.385,0.091
37.390,0.017
37.395,-0.081
37.400,0.033
37.405,0.051
37.410,-0.073
37.415,0.001
37.420,0.082
37.425,-0.048
37.430,-0.038
37.435,0.077
37.440,-0.016
37.445,-0.080
37.450,0.067
37.455,0.091
37.460,-0.033
37.465,0.045
37.470,0.144
37.475,0.017
37.480,0.006
37.485,0.146
37.490,0.073
37.495,-0.007
37.500,0.120
37.505,0.103
37.510,-0.008
37.515,0.077
37.520,0.093
37.525,-0.067
37.530,-0.057
37.535,0.073
37.540,-0.017
37.545,-0.118
37.550,-0.012
37.555,-0.026
37.560,-0.157
37.565,-0.086
37.570,-0.028
37.575,-0.154
37.580,-0.132
37.585,-0.014
37.590,-0.101
37.595,-0.160
37.600,-0.030
37.605,-0.038
37.610,-0.167
37.615,-0.091
37.620,-0.020
37.625,-0.117
37.630,-0.077
37.635,0.035
37.640,-0.075
37.645,-0.134
37.650,0.027
37.655,0.008
37.660,-0.114
37.665,0.000
37.670,0.055
37.675,-0.099
37.680,-0.087
37.685,0.065
37.690,0.000
37.695,-0.074
37.700,0.055
37.705,0.028
37.710,-0.099
37.715,0.000
37.720,0.056
37.725,-0.066
37.730,-0.034
37.735,0.075
37.740,-0.013
37.745,-0.055
37.750,0.110
37.755,0.092
37.760,-0.088
37.765,-0.019
37.770,0.068
37.775,-0.043
37.780,-0.032
37.785,0.066
37.790,-0.019
37.795,-0.073
37.800,0.064
37.805,0.060
37.810,-0.044
37.815,0.050
37.820,0.083
37.825,-0.067
37.830,-0.051
37.835,0.103
37.840,0.034
37.845,-0.066
37.850,0.068
37.855,0.071
37.860,-0.051
37.865,0.034
37.870,0.078
37.875,-0.037
37.880,0.006
37.885,0.112
37.890,0.012
37.895,-0.048
37.900,0.091
37.905,0.098
37.910,-0.004
37.915,0.072
37.920,0.108
37.925,-0.013
37.930,0.013
37.935,0.108
37.940,0.028
37.945,-0.013
37.950,0.095
37.955,0.067
37.960,-0.048
37.965,0.023
37.970,0.064
37.975,-0.061
37.980,-0.052
37.985,0.035
37.990,-0.039
37.995,-0.056
38.000,0.045
38.005,-0.019
38.010,-0.118
38.015,0.008
38.020,0.064
38.025,-0.081
38.030,-0.072
38.035,0.046
38.040,-0.024
38.045,-0.075
38.050,0.051
38.055,0.017
38.060,-0.137
38.065,-0.033
38.070,0.125
38.075,0.144
38.080,0.369
38.085,0.665
38.090,0.577
38.095,0.332
38.100,0.211
38.105,0.039
38.110,-0.146
38.115,-0.135
38.120,-0.108
38.125,-0.202
38.130,-0.150
38.135,-0.012
38.140,-0.095
38.145,-0.156
38.150,-0.028
38.155,-0.053
38.160,-0.171
38.165,-0.067
38.170,0.005
38.175,-0.123
38.180,-0.107
38.185,0.014
38.190,-0.060
38.195,-0.128
38.200,0.004
38.205,0.010
38.210,-0.100
38.215,-0.009
38.220,0.039
38.225,-0.106
38.230,-0.066
38.235,0.101
38.240,0.015
38.245,-0.090
38.250,0.023
38.255,0.014
38.260,-0.112
38.265,-0.009
38.270,0.069
38.275,-0.069
38.280,-0.032
38.285,0.102
38.290,-0.008
38.295,-0.067
38.300,0.080
38.305,0.080
38.310,-0.029
38.315,0.038
38.320,0.098
38.325,0.014
38.330,0.048
38.335,0.129
38.340,0.014
38.345,-0.021
38.350,0.130
38.355,0.094
38.360,-0.022
38.365,0.071
38.370,0.126
38.375,0.014
38.380,0.022
38.385,0.120
38.390,0.025
38.395,-0.052
38.400,0.045
38.405,-0.007
38.410,-0.138
38.415,-0.057
38.420,-0.018
38.425,-0.141
38.430,-0.126
38.435,-0.051
38.440,-0.143
38.445,-0.165
38.450,-0.016
38.455,-0.047
38.460,-0.193
38.465,-0.103
38.470,-0.027
38.475,-0.155
38.480,-0.134
38.485,0.003
38.490,-0.068
38.495,-0.121
38.500,-0.001
38.505,-0.031
38.510,-0.124
38.515,-0.030
38.520,0.007
38.525,-0.092
38.530,-0.036
38.535,0.057
38.540,-0.066
38.545,-0.121
38.550,0.008
38.555,-0.003
38.560,-0.108
38.565,-0.004
38.570,0.078
38.575,-0.057
38.580,-0.054
38.585,0.054
38.590,-0.023
38.595,-0.057
38.600,0.062
38.605,0.029
38.610,-0.062
38.615,0.039
38.620,0.063
38.625,-0.068
38.630,-0.025
38.635,0.103
38.640,0.008
38.645,-0.075
38.650,0.056
38.655,0.038
38.660,-0.091
38.665,0.007
38.670,0.077
38.675,-0.017
38.680,0.019
38.685,0.108
38.690,-0.003
38.695,-0.053
38.700,0.071
38.705,0.025
38.710,-0.073
38.715,0.051
38.720,0.104
38.725,-0.043
38.730,-0.009
38.735,0.117
38.740,-0.014
38.745,-0.073
38.750,0.079
38.755,0.063
38.760,-0.029
38.765,0.073
38.770,0.092
38.775,-0.039
38.780,0.034
38.785,0.149
38.790,0.062
38.795,0.010
38.800,0.091
38.805,0.068
38.810,-0.015
38.815,0.070
38.820,0.095
38.825,-0.045
38.830,-0.036
38.835,0.068
38.840,-0.003
38.845,-0.051
38.850,0.053
38.855,-0.002
38.860,-0.097
38.865,0.026
38.870,0.063
38.875,-0.062
38.880,-0.015
38.885,0.074
38.890,-0.064
38.895,-0.095
38.900,0.079
38.905,0.041
38.910,-0.086
38.915,0.021
38.920,0.062
38.925,-0.118
38.930,-0.106
38.935,0.053
38.940,0.009
38.945,0.066
38.950,0.387
38.955,0.532
38.960,0.475
38.965,0.437
38.970,0.222
38.975,-0.096
38.980,-0.134
38.985,-0.060
38.990,-0.164
38.995,-0.186
39.000,-0.027
39.005,-0.051
39.010,-0.153
39.015,-0.027
39.020,0.013
39.025,-0.127
39.030,-0.071
39.035,0.041
39.040,-0.080
39.045,-0.142
39.050,0.001
39.055,-0.006
39.060,-0.108
39.065,-0.004
39.070,0.031
39.075,-0.103
39.080,-0.049
39.085,0.059
39.090,-0.048
39.095,-0.072
39.100,0.064
39.105,0.008
39.110,-0.084
39.115,0.037
39.120,0.049
39.125,-0.089
39.130,-0.017
39.135,0.097
39.140,-0.041
39.145,-0.077
39.150,0.078
39.155,0.026
39.160,-0.063
39.165,0.061
39.170,0.088
39.175,-0.040
39.180,0.011
39.185,0.120
39.190,0.040
39.195,0.053
39.200,0.175
39.205,0.053
39.210,-0.044
39.215,0.122
39.220,0.131
39.225,-0.027
39.230,0.036
39.235,0.133
39.240,-0.008
39.245,-0.034
39.250,0.128
39.255,0.038
39.260,-0.091
39.265,0.045
39.270,0.048
39.275,-0.124
39.280,-0.067
39.285,0.017
39.290,-0.148
39.295,-0.188
39.300,-0.042
39.305,-0.099
39.310,-0.182
39.315,-0.051
39.320,-0.041
39.325,-0.202
39.330,-0.154
39.335,-0.037
39.340,-0.145
39.345,-0.156
39.350,-0.007
39.355,-0.077
39.360,-0.165
39.365,-0.021
39.370,-0.018
39.375,-0.170
39.380,-0.069
39.385,0.040
39.390,-0.106
39.395,-0.123
39.400,0.036
39.405,-0.006
39.410,-0.092
39.415,0.036
39.420,0.030
39.425,-0.144
39.430,-0.065
39.435,0.058
39.440,-0.064
39.445,-0.058
39.450,0.090
39.455,-0.001
39.460,-0.090
39.465,0.049
39.470,0.047
39.475,-0.093
39.480,-0.001
39.485,0.096
39.490,-0.038
39.495,-0.029
39.500,0.106
39.505,-0.017
39.510,-0.107
39.515,0.066
39.520,0.086
39.525,-0.074
39.530,-0.007
39.535,0.104
39.540,-0.042
39.545,-0.068
39.550,0.105
39.555,0.042
39.560,-0.076
39.565,0.061
39.570,0.076
39.575,-0.073
39.580,0.035
39.585,0.146
39.590,-0.004
39.595,-0.029
39.600,0.114
39.605,0.037
39.610,-0.076
39.615,0.084
39.620,0.133
39.625,-0.022
39.630,0.031
39.635,0.122
39.640,-0.007
39.645,-0.012
39.650,0.127
39.655,0.052
39.660,-0.043
39.665,0.089
39.670,0.100
39.675,-0.070
39.680,-0.008
39.685,0.099
39.690,-0.057
39.695,-0.085
39.700,0.063
39.705,-0.030
39.710,-0.132
39.715,0.030
39.720,0.070
39.725,-0.067
39.730,-0.020
39.735,0.044
39.740,-0.088
39.745,-0.080
39.750,0.109
39.755,0.054
39.760,-0.086
39.765,0.009
39.770,0.011
39.775,-0.088
39.780,0.068
39.785,0.237
39.790,0.268
39.795,0.449
39.800,0.619
39.805,0.414
39.810,0.112
39.815,0.068
39.820,-0.027
39.825,-0.219
39.830,-0.132
39.835,-0.025
39.840,-0.152
39.845,-0.127
39.850,0.013
39.855,-0.083
39.860,-0.139
39.865,0.007
39.870,-0.022
39.875,-0.157
39.880,-0.049
39.885,0.045
39.890,-0.101
39.895,-0.102
39.900,0.053
39.905,-0.034
39.910,-0.143
39.915,0.011
39.920,0.043
39.925,-0.107
39.930,-0.046
39.935,0.054
39.940,-0.053
39.945,-0.060
39.950,0.069
39.955,0.003
39.960,-0.093
39.965,0.028
39.970,0.036
39.975,-0.106
39.980,-0.011
39.985,0.087
39.990,-0.046
39.995,-0.032
40.000,0.109
40.005,0.003
40.010,-0.096
40.015,0.089
40.020,0.123
40.025,-0.036
40.030,0.042
40.035,0.124
40.040,-0.006
40.045,0.012
40.050,0.155
40.055,0.085
40.060,-0.020
40.065,0.080
40.070,0.110
40.075,-0.002
40.080,0.051
40.085,0.119
40.090,-0.011
40.095,-0.006
40.100,0.114
40.105,-0.005
40.110,-0.097
40.115,0.056
40.120,0.038
40.125,-0.142
40.130,-0.062
40.135,0.018
40.140,-0.156
40.145,-0.171
40.150,-0.015
40.155,-0.085
40.160,-0.180
40.165,-0.061
40.170,-0.050
40.175,-0.178
40.180,-0.100
40.185,0.018
40.190,-0.095
40.195,-0.130
40.200,-0.012
40.205,-0.070
40.210,-0.146
40.215,-0.007
40.220,0.003
40.225,-0.144
40.230,-0.044
40.235,0.063
40.240,-0.084
40.245,-0.098
40.250,0.040
40.255,-0.028
40.260,-0.112
40.265,0.025
40.270,0.037
40.275,-0.107
40.280,-0.014
40.285,0.081
40.290,-0.063
40.295,-0.046
40.300,0.085
40.305,-0.020
40.310,-0.091
40.315,0.037
40.320,0.028
40.325,-0.087
40.330,0.017
40.335,0.096
40.340,-0.055
40.345,-0.036
40.350,0.095
40.355,-0.012
40.360,-0.080
40.365,0.072
40.370,0.065
40.375,-0.097
40.380,-0.003
40.385,0.117
40.390,-0.013
40.395,-0.030
40.400,0.090
40.405,0.014
40.410,-0.079
40.415,0.038
40.420,0.054
40.425,-0.061
40.430,0.027
40.435,0.087
40.440,-0.054
40.445,-0.032
40.450,0.096
40.455,0.015
40.460,-0.052
40.465,0.059
40.470,0.039
40.475,-0.064
40.480,0.048
40.485,0.122
40.490,-0.019
40.495,-0.017
40.500,0.113
40.505,0.033
40.510,-0.028
40.515,0.129
40.520,0.128
40.525,-0.018
40.530,0.044
40.535,0.103
40.540,-0.019
40.545,-0.004
40.550,0.128
40.555,0.054
40.560,-0.057
40.565,0.039
40.570,0.054
40.575,-0.060
40.580,0.010
40.585,0.074
40.590,-0.061
40.595,-0.065
40.600,0.054
40.605,-0.023
40.610,-0.092
40.615,0.050
40.620,0.048
40.625,-0.108
40.630,-0.035
40.635,0.047
40.640,-0.070
40.645,-0.052
40.650,0.080
40.655,0.003
40.660,-0.123
40.665,-0.041
40.670,-0.025
40.675,-0.089
40.680,0.117
40.685,0.362
40.690,0.430
40.695,0.566
40.700,0.618
40.705,0.294
40.710,-0.018
40.715,-0.008
40.720,-0.055
40.725,-0.206
40.730,-0.108
40.735,-0.043
40.740,-0.212
40.745,-0.182
40.750,-0.034
40.755,-0.128
40.760,-0.181
40.765,-0.026
40.770,-0.034
40.775,-0.160
40.780,-0.074
40.785,0.012
40.790,-0.096
40.795,-0.092
40.800,0.028
40.805,-0.066
40.810,-0.152
40.815,-0.005
40.820,0.001
40.825,-0.122
40.830,-0.011
40.835,0.081
40.840,-0.061
40.845,-0.074
40.850,0.050
40.855,-0.013
40.860,-0.094
40.865,0.016
40.870,0.040
40.875,-0.074
40.880,-0.005
40.885,0.089
40.890,-0.026
40.895,-0.023
40.900,0.102
40.905,0.014
40.910,-0.050
40.915,0.094
40.920,0.078
40.925,-0.062
40.930,0.047
40.935,0.158
40.940,0.026
40.945,0.013
40.950,0.115
40.955,0.034
40.960,0.001
40.965,0.147
40.970,0.114
40.975,-0.010
40.980,0.092
40.985,0.127
40.990,-0.035
40.995,-0.014
41.000,0.121
41.005,0.011
41.010,-0.094
41.015,0.028
41.020,0.003
41.025,-0.157
41.030,-0.071
41.035,0.015
41.040,-0.129
41.045,-0.134
41.050,-0.018
41.055,-0.116
41.060,-0.196
41.065,-0.039
41.070,-0.040
41.075,-0.189
41.080,-0.084
41.085,0.007
41.090,-0.118
41.095,-0.088
41.100,0.018
41.105,-0.088
41.110,-0.150
41.115,-0.023
41.120,-0.022
41.125,-0.122
41.130,-0.011
41.135,0.045
41.140,-0.099
41.145,-0.062
41.150,0.044
41.155,-0.060
41.160,-0.112
41.165,0.024
41.170,0.018
41.175,-0.103
41.180,0.001
41.185,0.077
41.190,-0.074
41.195,-0.049
41.200,0.100
41.205,0.003
41.210,-0.058
41.215,0.087
41.220,0.049
41.225,-0.097
41.230,0.013
41.235,0.069
41.240,-0.080
41.245,-0.026
41.250,0.098
41.255,-0.010
41.260,-0.062
41.265,0.067
41.270,0.042
41.275,-0.080
41.280,0.022
41.285,0.098
41.290,-0.040
41.295,-0.011
41.300,0.119
41.305,-0.004
41.310,-0.082
41.315,0.069
41.320,0.066
41.325,-0.039
41.330,0.046
41.335,0.059
41.340,-0.078
41.345,-0.014
41.350,0.113
41.355,-0.006
41.360,-0.083
41.365,0.068
41.370,0.079
41.375,-0.050
41.380,0.040
41.385,0.142
41.390,0.019
41.395,0.000
41.400,0.110
41.405,0.031
41.410,-0.037
41.415,0.111
41.420,0.102
41.425,-0.036
41.430,0.069
41.435,0.138
41.440,-0.015
41.445,-0.003
41.450,0.113
41.455,0.001
41.460,-0.086
41.465,0.048
41.470,0.039
41.475,-0.097
41.480,0.002
41.485,0.067
41.490,-0.084
41.495,-0.055
41.500,0.079
41.505,-0.024
41.510,-0.105
41.515,0.047
41.520,0.040
41.525,-0.111
41.530,0.005
41.535,0.085
41.540,-0.077
41.545,-0.042
41.550,0.089
41.555,-0.070
41.560,-0.153
41.565,0.080
41.570,0.173
41.575,0.191
41.580,0.480
41.585,0.622
41.590,0.352
41.595,0.117
41.600,0.038
41.605,-0.144
41.610,-0.225
41.615,-0.068
41.620,-0.085
41.625,-0.216
41.630,-0.071
41.635,0.022
41.640,-0.135
41.645,-0.109
41.650,0.050
41.655,-0.027
41.660,-0.125
41.665,-0.013
41.670,-0.006
41.675,-0.136
41.680,-0.038
41.685,0.054
41.690,-0.098
41.695,-0.094
41.700,0.031
41.705,-0.066
41.710,-0.127
41.715,0.012
41.720,-0.033
41.725,-0.159
41.730,0.005
41.735,0.083
41.740,-0.077
41.745,-0.020
41.750,0.127
41.755,0.002
41.760,-0.084
41.765,0.077
41.770,0.075
41.775,-0.066
41.780,0.044
41.785,0.124
41.790,-0.033
41.795,-0.010
41.800,0.142
41.805,0.028
41.810,-0.059
41.815,0.107
41.820,0.102
41.825,-0.035
41.830,0.069
41.835,0.143
41.840,0.004
41.845,0.041
41.850,0.170
41.855,0.037
41.860,-0.049
41.865,0.100
41.870,0.078
41.875,-0.058
41.880,0.040
41.885,0.074
41.890,-0.087
41.895,-0.043
41.900,0.063
41.905,-0.099
41.910,-0.175
41.915,-0.023
41.920,-0.059
41.925,-0.211
41.930,-0.116
41.935,-0.040
41.940,-0.198
41.945,-0.166
41.950,-0.002
41.955,-0.121
41.960,-0.193
41.965,-0.012
41.970,-0.029
41.975,-0.180
41.980,-0.056
41.985,0.038
41.990,-0.110
41.995,-0.083
42.000,0.046
42.005,-0.069
42.010,-0.130
42.015,0.023
42.020,-0.006
42.025,-0.122
42.030,0.012
42.035,0.068
42.040,-0.094
42.045,-0.051
42.050,0.097
42.055,-0.020
42.060,-0.107
42.065,0.060
42.070,0.051
42.075,-0.100
42.080,0.012
42.085,0.112
42.090,-0.018
42.095,-0.022
42.100,0.080
42.105,-0.033
42.110,-0.088
42.115,0.110
42.120,0.095
42.125,-0.090
42.130,0.002
42.135,0.097
42.140,-0.048
42.145,-0.024
42.150,0.126
42.155,0.007
42.160,-0.080
42.165,0.080
42.170,0.066
42.175,-0.085
42.180,0.014
42.185,0.096
42.190,-0.041
42.195,-0.015
42.200,0.097
42.205,-0.023
42.210,-0.064
42.215,0.109
42.220,0.083
42.225,-0.062
42.230,0.048
42.235,0.132
42.240,-0.019
42.245,0.009
42.250,0.158
42.255,0.021
42.260,-0.064
42.265,0.108
42.270,0.079
42.275,-0.064
42.280,0.048
42.285,0.088
42.290,-0.075
42.295,-0.055
42.300,0.060
42.305,-0.019
42.310,-0.080
42.315,0.050
42.320,0.028
42.325,-0.119
42.330,0.012
42.335,0.111
42.340,-0.076
42.345,-0.076
42.350,0.075
42.355,-0.037
42.360,-0.108
42.365,0.068
42.370,0.029
42.375,-0.149
42.380,-0.029
42.385,0.061
42.390,-0.045
42.395,0.135
42.400,0.479
42.405,0.497
42.410,0.408
42.415,0.414
42.420,0.165
42.425,-0.164
42.430,-0.098
42.435,-0.024
42.440,-0.208
42.445,-0.165
42.450,0.008
42.455,-0.102
42.460,-0.165
42.465,0.001
42.470,-0.033
42.475,-0.178
42.480,-0.041
42.485,0.041
42.490,-0.139
42.495,-0.104
42.500,0.087
42.505,-0.026
42.510,-0.140
42.515,0.038
42.520,0.014
42.525,-0.144
42.530,0.021
42.535,0.102
42.540,-0.086
42.545,-0.074
42.550,0.066
42.555,-0.033
42.560,-0.093
42.565,0.081
42.570,0.049
42.575,-0.098
42.580,0.042
42.585,0.085
42.590,-0.126
42.595,-0.037
42.600,0.180
42.605,0.017
42.610,-0.096
42.615,0.095
42.620,0.076
42.625,-0.072
42.630,0.064
42.635,0.143
42.640,-0.022
42.645,0.006
42.650,0.156
42.655,0.034
42.660,-0.030
42.665,0.148
42.670,0.093
42.675,-0.084
42.680,0.040
42.685,0.149
42.690,-0.035
42.695,-0.063
42.700,0.122
42.705,0.075
42.710,-0.001
42.715,0.088
42.720,0.038
42.725,-0.072
42.730,-0.012
42.735,0.011
42.740,-0.100
42.745,-0.091
42.750,-0.021
42.755,-0.100
42.760,-0.151
42.765,-0.069
42.770,-0.074
42.775,-0.140
42.780,-0.070
42.785,-0.041
42.790,-0.141
42.795,-0.109
42.800,-0.024
42.805,-0.103
42.810,-0.137
42.815,-0.027
42.820,-0.037
42.825,-0.114
42.830,-0.024
42.835,0.009
42.840,-0.111
42.845,-0.066
42.850,0.046
42.855,-0.051
42.860,-0.116
42.865,0.007
42.870,0.014
42.875,-0.088
42.880,-0.014
42.885,0.036
42.890,-0.076
42.895,-0.037
42.900,0.075
42.905,-0.012
42.910,-0.082
42.915,0.031
42.920,0.020
42.925,-0.081
42.930,0.032
42.935,0.079
42.940,-0.061
42.945,-0.022
42.950,0.087
42.955,-0.015
42.960,-0.058
42.965,0.058
42.970,0.010
42.975,-0.085
42.980,0.015
42.985,0.063
42.990,-0.036
42.995,-0.016
43.000,0.077
43.005,0.002
43.010,-0.062
43.015,0.057
43.020,0.049
43.025,-0.057
43.030,0.042
43.035,0.093
43.040,-0.020
43.045,0.014
43.050,0.109
43.055,-0.003
43.060,-0.076
43.065,0.080
43.070,0.090
43.075,-0.027
43.080,0.071
43.085,0.132
43.090,0.009
43.095,0.021
43.100,0.106
43.105,0.019
43.110,-0.021
43.115,0.108
43.120,0.070
43.125,-0.059
43.130,0.025
43.135,0.037
43.140,-0.100
43.145,-0.022
43.150,0.094
43.155,-0.059
43.160,-0.121
43.165,0.032
43.170,0.018
43.175,-0.077
43.180,0.005
43.185,0.044
43.190,-0.068
43.195,-0.044
43.200,0.069
43.205,-0.017
43.210,-0.072
43.215,0.064
43.220,-0.008
43.225,-0.154
43.230,0.013
43.235,0.172
43.240,0.178
43.245,0.405
43.250,0.665
43.255,0.510
43.260,0.236
43.265,0.145
43.270,-0.014
43.275,-0.164
43.280,-0.072
43.285,-0.044
43.290,-0.165
43.295,-0.132
43.300,-0.025
43.305,-0.106
43.310,-0.157
43.315,-0.011
43.320,-0.031
43.325,-0.165
43.330,-0.070
43.335,-0.009
43.340,-0.124
43.345,-0.087
43.350,0.019
43.355,-0.094
43.360,-0.147
43.365,0.024
43.370,0.019
43.375,-0.114
43.380,-0.024
43.385,0.049
43.390,-0.070
43.395,-0.049
43.400,0.058
43.405,-0.030
43.410,-0.069
43.415,0.040
43.420,-0.004
43.425,-0.079
43.430,0.050
43.435,0.087
43.440,-0.061
43.445,-0.025
43.450,0.103
43.455,-0.003
43.460,-0.060
43.465,0.096
43.470,0.070
43.475,-0.046
43.480,0.068
43.485,0.108
43.490,-0.025
43.495,0.026
43.500,0.149
43.505,0.057
43.510,-0.011
43.515,0.104
43.520,0.092
43.525,-0.001
43.530,0.109
43.535,0.149
43.540,-0.028
43.545,-0.016
43.550,0.143
43.555,0.039
43.560,-0.086
43.565,0.023
43.570,-0.018
43.575,-0.184
43.580,-0.079
43.585,-0.009
43.590,-0.162
43.595,-0.129
43.600,-0.010
43.605,-0.115
43.610,-0.165
43.615,-0.029
43.620,-0.061
43.625,-0.180
43.630,-0.062
43.635,-0.021
43.640,-0.168
43.645,-0.112
43.650,0.008
43.655,-0.079
43.660,-0.121
43.665,0.019
43.670,-0.011
43.675,-0.152
43.680,-0.043
43.685,0.022
43.690,-0.114
43.695,-0.071
43.700,0.064
43.705,-0.028
43.710,-0.094
43.715,0.038
43.720,0.030
43.725,-0.091
43.730,-0.004
43.735,0.051
43.740,-0.093
43.745,-0.065
43.750,0.083
43.755,-0.005
43.760,-0.060
43.765,0.088
43.770,0.056
43.775,-0.092
43.780,0.010
43.785,0.090
43.790,-0.047
43.795,-0.017
43.800,0.114
43.805,-0.006
43.810,-0.070
43.815,0.086
43.820,0.056
43.825,-0.080
43.830,0.021
43.835,0.067
43.840,-0.078
43.845,-0.030
43.850,0.105
43.855,-0.009
43.860,-0.073
43.865,0.087
43.870,0.062
43.875,-0.075
43.880,0.036
43.885,0.088
43.890,-0.059
43.895,-0.008
43.900,0.142
43.905,0.017
43.910,-0.065
43.915,0.106
43.920,0.080
43.925,-0.058
43.930,0.062
43.935,0.140
43.940,-0.013
43.945,0.003
43.950,0.146
43.955,0.040
43.960,-0.054
43.965,0.066
43.970,0.052
43.975,-0.059
43.980,0.025
43.985,0.063
43.990,-0.069
43.995,-0.037
44.000,0.071
44.005,-0.033
44.010,-0.097
44.015,0.041
44.020,0.023
44.025,-0.098
44.030,0.008
44.035,0.059
44.040,-0.100
44.045,-0.053
44.050,0.098
44.055,-0.015
44.060,-0.073
44.065,0.063
44.070,-0.002
44.075,-0.156
44.080,-0.054
44.085,0.048
44.090,0.029
44.095,0.238
44.100,0.540
44.105,0.561
44.110,0.460
44.115,0.367
44.120,0.080
44.125,-0.168
44.130,-0.100
44.135,-0.084
44.140,-0.221
44.145,-0.131
44.150,0.017
44.155,-0.104
44.160,-0.144
44.165,0.018
44.170,-0.031
44.175,-0.166
44.180,-0.049
44.185,0.012
44.190,-0.122
44.195,-0.076
44.200,0.038
44.205,-0.071
44.210,-0.110
44.215,0.027
44.220,-0.027
44.225,-0.141
44.230,-0.001
44.235,0.058
44.240,-0.097
44.245,-0.047
44.250,0.093
44.255,-0.047
44.260,-0.109
44.265,0.063
44.270,0.023
44.275,-0.102
44.280,0.036
44.285,0.092
44.290,-0.070
44.295,-0.026
44.300,0.119
44.305,0.018
44.310,-0.042
44.315,0.105
44.320,0.078
44.325,-0.054
44.330,0.052
44.335,0.117
44.340,-0.027
44.345,-0.005
44.350,0.146
44.355,0.063
44.360,0.001
44.365,0.158
44.370,0.105
44.375,-0.042
44.380,0.094
44.385,0.145
44.390,-0.004
44.395,0.057
44.400,0.156
44.405,-0.003
44.410,-0.070
44.415,0.081
44.420,0.030
44.425,-0.143
44.430,-0.046
44.435,0.011
44.440,-0.181
44.445,-0.146
44.450,0.018
44.455,-0.115
44.460,-0.178
44.465,0.000
44.470,-0.064
44.475,-0.217
44.480,-0.074
44.485,-0.007
44.490,-0.158
44.495,-0.115
44.500,-0.004
44.505,-0.130
44.510,-0.145
44.515,0.033
44.520,-0.042
44.525,-0.187
44.530,-0.034
44.535,0.035
44.540,-0.112
44.545,-0.049
44.550,0.069
44.555,-0.084
44.560,-0.112
44.565,0.056
44.570,-0.032
44.575,-0.147
44.580,0.020
44.585,0.080
44.590,-0.091
44.595,-0.064
44.600,0.077
44.605,-0.027
44.610,-0.087
44.615,0.065
44.620,0.022
44.625,-0.108
44.630,0.025
44.635,0.089
44.640,-0.058
44.645,-0.026
44.650,0.092
44.655,-0.027
44.660,-0.084
44.665,0.083
44.670,0.059
44.675,-0.078
44.680,0.023
44.685,0.050
44.690,-0.103
44.695,-0.020
44.700,0.122
44.705,-0.012
44.710,-0.070
44.715,0.081
44.720,0.024
44.725,-0.105
44.730,0.022
44.735,0.082
44.740,-0.034
44.745,0.021
44.750,0.135
44.755,0.015
44.760,-0.019
44.765,0.130
44.770,0.057
44.775,-0.057
44.780,0.069
44.785,0.102
44.790,-0.033
44.795,0.025
44.800,0.133
44.805,-0.010
44.810,-0.061
44.815,0.110
44.820,0.054
44.825,-0.105
44.830,0.013
44.835,0.054
44.840,-0.119
44.845,-0.067
44.850,0.085
44.855,-0.042
44.860,-0.096
44.865,0.095
44.870,0.046
44.875,-0.091
44.880,0.026
44.885,0.041
44.890,-0.099
44.895,-0.015
44.900,0.117
44.905,-0.032
44.910,-0.106
44.915,0.036
44.920,-0.021
44.925,-0.091
44.930,0.123
44.935,0.288
44.940,0.326
44.945,0.506
44.950,0.578
44.955,0.242
44.960,-0.036
44.965,0.004
44.970,-0.079
44.975,-0.203
44.980,-0.070
44.985,-0.039
44.990,-0.171
44.995,-0.083
45.000,0.027
45.005,-0.092
45.010,-0.108
45.015,0.022
45.020,-0.032
45.025,-0.125
45.030,0.001
45.035,0.041
45.040,-0.108
45.045,-0.048
45.050,0.086
