'Elapsed time','ECG'
'seconds','mV'
0.000,-0.119
0.005,0.326
0.010,0.228
0.015,0.178
0.020,0.221
0.025,0.191
0.030,0.206
0.035,0.188
0.040,0.168
0.045,0.174
0.050,0.168
0.055,0.165
0.060,0.170
0.065,0.155
0.070,0.138
0.075,0.139
0.080,0.136
0.085,0.121
0.090,0.120
0.095,0.123
0.100,0.104
0.105,0.100
0.110,0.109
0.115,0.095
0.120,0.087
0.125,0.096
0.130,0.091
0.135,0.076
0.140,0.079
0.145,0.085
0.150,0.064
0.155,0.054
0.160,0.065
0.165,0.054
0.170,0.042
0.175,0.047
0.180,0.044
0.185,0.034
0.190,0.039
0.195,0.043
0.200,0.032
0.205,0.025
0.210,0.029
0.215,0.021
0.220,0.010
0.225,0.015
0.230,0.012
0.235,0.010
0.240,0.019
0.245,0.015
0.250,0.000
0.255,-0.002
0.260,0.003
0.265,-0.004
0.270,-0.012
0.275,-0.006
0.280,-0.010
0.285,-0.016
0.290,-0.009
0.295,-0.004
0.300,-0.013
0.305,-0.017
0.310,-0.014
0.315,-0.022
0.320,-0.024
0.325,-0.012
0.330,-0.015
0.335,-0.028
0.340,-0.026
0.345,-0.019
0.350,-0.024
0.355,-0.023
0.360,-0.014
0.365,-0.021
0.370,-0.030
0.375,-0.028
0.380,-0.028
0.385,-0.034
0.390,-0.032
0.395,-0.024
0.400,-0.031
0.405,-0.035
0.410,-0.023
0.415,-0.023
0.420,-0.030
0.425,-0.030
0.430,-0.030
0.435,-0.026
0.440,-0.024
0.445,-0.033
0.450,-0.043
0.455,-0.047
0.460,-0.045
0.465,-0.048
0.470,-0.055
0.475,-0.044
0.480,-0.043
0.485,-0.066
0.490,-0.061
0.495,-0.038
0.500,-0.044
0.505,-0.056
0.510,-0.051
0.515,-0.044
0.520,-0.040
0.525,-0.030
0.530,-0.017
0.535,-0.009
0.540,-0.007
0.545,-0.022
0.550,-0.039
0.555,-0.025
0.560,0.006
0.565,0.016
0.570,0.023
0.575,0.036
0.580,0.039
0.585,0.027
0.590,0.024
0.595,0.035
0.600,0.027
0.605,0.014
0.610,0.021
0.615,0.019
0.620,0.013
0.625,0.020
0.630,0.018
0.635,0.006
0.640,0.006
0.645,0.010
0.650,0.007
0.655,0.005
0.660,0.009
0.665,0.004
0.670,-0.004
0.675,0.001
0.680,0.000
0.685,-0.014
0.690,-0.010
0.695,0.003
0.700,-0.008
0.705,-0.015
0.710,-0.009
0.715,-0.033
0.720,-0.073
0.725,-0.139
0.730,-0.285
0.735,-0.510
0.740,-0.768
0.745,-0.980
0.750,-0.912
0.755,-0.553
0.760,-0.255
0.765,-0.055
0.770,0.127
0.775,0.235
0.780,0.282
0.785,0.304
0.790,0.312
0.795,0.297
0.800,0.262
0.805,0.240
0.810,0.237
0.815,0.212
0.820,0.177
0.825,0.173
0.830,0.176
0.835,0.165
0.840,0.167
0.845,0.169
0.850,0.143
0.855,0.115
0.860,0.115
0.865,0.110
0.870,0.102
0.875,0.117
0.880,0.125
0.885,0.101
0.890,0.077
0.895,0.064
0.900,0.045
0.905,0.043
0.910,0.058
0.915,0.049
0.920,0.028
0.925,0.029
0.930,0.027
0.935,0.012
0.940,0.007
0.945,0.004
0.950,-0.013
0.955,-0.030
0.960,-0.041
0.965,-0.065
0.970,-0.089
0.975,-0.091
0.980,-0.099
0.985,-0.118
0.990,-0.132
0.995,-0.151
1.000,-0.166
1.005,-0.163
1.010,-0.154
1.015,-0.158
1.020,-0.176
1.025,-0.172
1.030,-0.153
1.035,-0.151
1.040,-0.150
1.045,-0.131
1.050,-0.108
1.055,-0.073
1.060,-0.003
1.065,0.035
1.070,0.041
1.075,0.095
1.080,0.144
1.085,0.151
1.090,0.182
1.095,0.219
1.100,0.230
1.105,0.237
1.110,0.239
1.115,0.228
1.120,0.219
1.125,0.226
1.130,0.228
1.135,0.204
1.140,0.190
1.145,0.202
1.150,0.199
1.155,0.190
1.160,0.189
1.165,0.174
1.170,0.157
1.175,0.148
1.180,0.125
1.185,0.097
1.190,0.103
1.195,0.122
1.200,0.109
1.205,0.086
1.210,0.078
1.215,0.066
1.220,0.054
1.225,0.055
1.230,0.046
1.235,0.033
1.240,0.040
1.245,0.041
1.250,0.022
1.255,0.021
1.260,0.025
1.265,0.002
1.270,-0.015
1.275,0.000
1.280,0.015
1.285,0.008
1.290,0.006
1.295,0.011
1.300,-0.003
1.305,-0.012
1.310,-0.007
1.315,-0.023
1.320,-0.031
1.325,-0.008
1.330,0.005
1.335,-0.006
1.340,-0.013
1.345,-0.013
1.350,-0.027
1.355,-0.038
1.360,-0.025
1.365,-0.019
1.370,-0.034
1.375,-0.041
1.380,-0.034
1.385,-0.031
1.390,-0.017
1.395,-0.008
1.400,-0.027
1.405,-0.045
1.410,-0.049
1.415,-0.047
1.420,-0.041
1.425,-0.027
1.430,-0.016
1.435,-0.037
1.440,-0.059
1.445,-0.051
1.450,-0.048
1.455,-0.048
1.460,-0.042
1.465,-0.047
1.470,-0.043
1.475,-0.036
1.480,-0.051
1.485,-0.060
1.490,-0.049
1.495,-0.033
1.500,-0.031
1.505,-0.043
1.510,-0.055
1.515,-0.071
1.520,-0.058
1.525,-0.030
1.530,-0.036
1.535,-0.062
1.540,-0.060
1.545,-0.033
1.550,-0.039
1.555,-0.049
1.560,-0.031
1.565,-0.033
1.570,-0.057
1.575,-0.056
1.580,-0.043
1.585,-0.048
1.590,-0.048
1.595,-0.040
1.600,-0.045
1.605,-0.046
1.610,-0.039
1.615,-0.046
1.620,-0.046
1.625,-0.026
1.630,-0.025
1.635,-0.043
1.640,-0.044
1.645,-0.029
1.650,-0.034
1.655,-0.039
1.660,-0.023
1.665,-0.034
1.670,-0.051
1.675,-0.034
1.680,-0.035
1.685,-0.052
1.690,-0.039
1.695,-0.027
1.700,-0.043
1.705,-0.038
1.710,-0.016
1.715,-0.024
1.720,-0.043
1.725,-0.051
1.730,-0.052
1.735,-0.051
1.740,-0.045
1.745,-0.054
1.750,-0.067
1.755,-0.060
1.760,-0.050
1.765,-0.051
1.770,-0.040
1.775,-0.015
1.780,0.002
1.785,-0.005
1.790,-0.021
1.795,-0.021
1.800,-0.021
1.805,-0.015
1.810,0.006
1.815,0.019
1.820,0.023
1.825,0.030
1.830,0.025
1.835,0.006
1.840,0.013
1.845,0.033
1.850,0.023
1.855,0.010
1.860,0.018
1.865,0.011
1.870,-0.003
1.875,-0.003
1.880,-0.002
1.885,0.007
1.890,0.019
1.895,0.015
1.900,-0.001
1.905,-0.002
1.910,0.012
1.915,0.015
1.920,0.006
1.925,0.003
1.930,-0.006
1.935,-0.018
1.940,-0.005
1.945,0.010
1.950,-0.003
1.955,-0.007
1.960,0.003
1.965,-0.018
1.970,-0.063
1.975,-0.148
1.980,-0.338
1.985,-0.622
1.990,-0.899
1.995,-0.981
2.000,-0.748
2.005,-0.425
2.010,-0.206
2.015,0.011
2.020,0.179
2.025,0.265
2.030,0.317
2.035,0.303
2.040,0.290
2.045,0.292
2.050,0.264
2.055,0.238
2.060,0.218
2.065,0.194
2.070,0.168
2.075,0.156
2.080,0.156
2.085,0.145
2.090,0.143
2.095,0.147
2.100,0.127
2.105,0.112
2.110,0.110
2.115,0.096
2.120,0.086
2.125,0.092
2.130,0.092
2.135,0.072
2.140,0.058
2.145,0.068
2.150,0.061
2.155,0.042
2.160,0.044
2.165,0.037
2.170,0.016
2.175,0.012
2.180,0.010
2.185,-0.009
2.190,-0.013
2.195,-0.016
2.200,-0.035
2.205,-0.045
2.210,-0.048
2.215,-0.063
2.220,-0.091
2.225,-0.100
2.230,-0.102
2.235,-0.127
2.240,-0.140
2.245,-0.148
2.250,-0.174
2.255,-0.187
2.260,-0.172
2.265,-0.168
2.270,-0.175
2.275,-0.154
2.280,-0.136
2.285,-0.140
2.290,-0.126
2.295,-0.098
2.300,-0.071
2.305,-0.033
2.310,0.012
2.315,0.051
2.320,0.086
2.325,0.127
2.330,0.160
2.335,0.173
2.340,0.193
2.345,0.220
2.350,0.228
2.355,0.223
2.360,0.231
2.365,0.237
2.370,0.221
2.375,0.222
2.380,0.237
2.385,0.219
2.390,0.199
2.395,0.208
2.400,0.199
2.405,0.179
2.410,0.175
2.415,0.154
2.420,0.128
2.425,0.132
2.430,0.134
2.435,0.115
2.440,0.105
2.445,0.103
2.450,0.086
2.455,0.077
2.460,0.078
2.465,0.064
2.470,0.050
2.475,0.055
2.480,0.051
2.485,0.027
2.490,0.018
2.495,0.027
2.500,0.026
2.505,0.020
2.510,0.018
2.515,0.008
2.520,-0.002
2.525,0.000
2.530,-0.001
2.535,-0.011
2.540,-0.007
2.545,0.001
2.550,-0.007
2.555,-0.010
2.560,-0.003
2.565,-0.001
2.570,-0.008
2.575,-0.003
2.580,0.003
2.585,-0.008
2.590,-0.013
2.595,0.000
2.600,-0.008
2.605,-0.024
2.610,-0.014
2.615,-0.011
2.620,-0.021
2.625,-0.018
2.630,-0.015
2.635,-0.028
2.640,-0.027
2.645,-0.013
2.650,-0.023
2.655,-0.032
2.660,-0.023
2.665,-0.027
2.670,-0.038
2.675,-0.030
2.680,-0.027
2.685,-0.041
2.690,-0.036
2.695,-0.021
2.700,-0.031
2.705,-0.042
2.710,-0.039
2.715,-0.037
2.720,-0.036
2.725,-0.030
2.730,-0.030
2.735,-0.043
2.740,-0.041
2.745,-0.031
2.750,-0.042
2.755,-0.046
2.760,-0.032
2.765,-0.034
2.770,-0.048
2.775,-0.045
2.780,-0.041
2.785,-0.047
2.790,-0.043
2.795,-0.036
2.800,-0.042
2.805,-0.042
2.810,-0.035
2.815,-0.035
2.820,-0.040
2.825,-0.036
2.830,-0.035
2.835,-0.042
2.840,-0.044
2.845,-0.038
2.850,-0.044
2.855,-0.044
2.860,-0.027
2.865,-0.027
2.870,-0.040
2.875,-0.030
2.880,-0.022
2.885,-0.039
2.890,-0.042
2.895,-0.035
2.900,-0.034
2.905,-0.032
2.910,-0.026
2.915,-0.023
2.920,-0.027
2.925,-0.020
2.930,-0.018
2.935,-0.033
2.940,-0.029
2.945,-0.015
2.950,-0.022
2.955,-0.030
2.960,-0.023
2.965,-0.020
2.970,-0.023
2.975,-0.011
2.980,-0.012
2.985,-0.029
2.990,-0.029
2.995,-0.024
3.000,-0.037
3.005,-0.052
3.010,-0.048
3.015,-0.044
3.020,-0.055
3.025,-0.059
3.030,-0.054
3.035,-0.052
3.040,-0.040
3.045,-0.024
3.050,-0.028
3.055,-0.036
3.060,-0.038
3.065,-0.041
3.070,-0.034
3.075,-0.013
3.080,-0.001
3.085,-0.011
3.090,-0.013
3.095,0.000
3.100,0.000
3.105,0.011
3.110,0.038
3.115,0.038
3.120,0.030
3.125,0.054
3.130,0.060
3.135,0.036
3.140,0.034
3.145,0.040
3.150,0.028
3.155,0.022
3.160,0.030
3.165,0.031
3.170,0.021
3.175,0.020
3.180,0.022
3.185,0.013
3.190,0.016
3.195,0.024
3.200,0.008
3.205,-0.004
3.210,0.006
3.215,0.007
3.220,-0.004
3.225,0.004
3.230,0.009
3.235,-0.002
3.240,-0.004
3.245,-0.002
3.250,-0.010
3.255,-0.009
3.260,-0.012
3.265,-0.075
3.270,-0.202
3.275,-0.362
3.280,-0.592
3.285,-0.865
3.290,-0.953
3.295,-0.706
3.300,-0.373
3.305,-0.157
3.310,0.061
3.315,0.222
3.320,0.264
3.325,0.302
3.330,0.333
3.335,0.311
3.340,0.293
3.345,0.282
3.350,0.241
3.355,0.212
3.360,0.211
3.365,0.197
3.370,0.174
3.375,0.165
3.380,0.155
3.385,0.141
3.390,0.146
3.395,0.148
3.400,0.123
3.405,0.105
3.410,0.113
3.415,0.108
3.420,0.092
3.425,0.104
3.430,0.102
3.435,0.068
3.440,0.056
3.445,0.060
3.450,0.052
3.455,0.036
3.460,0.039
3.465,0.044
3.470,0.023
3.475,0.010
3.480,-0.003
3.485,-0.029
3.490,-0.018
3.495,0.002
3.500,-0.018
3.505,-0.054
3.510,-0.069
3.515,-0.076
3.520,-0.101
3.525,-0.114
3.530,-0.119
3.535,-0.147
3.540,-0.160
3.545,-0.154
3.550,-0.163
3.555,-0.170
3.560,-0.160
3.565,-0.157
3.570,-0.172
3.575,-0.169
3.580,-0.146
3.585,-0.121
3.590,-0.091
3.595,-0.061
3.600,-0.041
3.605,-0.016
3.610,0.031
3.615,0.083
3.620,0.121
3.625,0.148
3.630,0.166
3.635,0.170
3.640,0.198
3.645,0.241
3.650,0.243
3.655,0.216
3.660,0.214
3.665,0.226
3.670,0.208
3.675,0.194
3.680,0.207
3.685,0.198
3.690,0.182
3.695,0.177
3.700,0.157
3.705,0.143
3.710,0.152
3.715,0.146
3.720,0.119
3.725,0.119
3.730,0.123
3.735,0.092
3.740,0.085
3.745,0.103
3.750,0.080
3.755,0.045
3.760,0.043
3.765,0.041
3.770,0.034
3.775,0.047
3.780,0.042
3.785,0.006
3.790,0.005
3.795,0.026
3.800,0.018
3.805,0.008
3.810,0.012
3.815,0.003
3.820,-0.013
3.825,0.001
3.830,0.013
3.835,-0.018
3.840,-0.036
3.845,-0.019
3.850,-0.010
3.855,-0.008
3.860,-0.007
3.865,-0.013
3.870,-0.015
3.875,-0.005
3.880,-0.012
3.885,-0.033
3.890,-0.025
3.895,-0.013
3.900,-0.030
3.905,-0.040
3.910,-0.022
3.915,-0.012
3.920,-0.033
3.925,-0.041
3.930,-0.028
3.935,-0.020
3.940,-0.017
3.945,-0.026
3.950,-0.045
3.955,-0.058
3.960,-0.049
3.965,-0.038
3.970,-0.043
3.975,-0.033
3.980,-0.029
3.985,-0.049
3.990,-0.051
3.995,-0.036
4.000,-0.038
4.005,-0.045
4.010,-0.050
4.015,-0.054
4.020,-0.041
4.025,-0.025
4.030,-0.039
4.035,-0.055
4.040,-0.040
4.045,-0.026
4.050,-0.045
4.055,-0.064
4.060,-0.056
4.065,-0.044
4.070,-0.035
4.075,-0.026
4.080,-0.044
4.085,-0.067
4.090,-0.056
4.095,-0.039
4.100,-0.039
4.105,-0.040
4.110,-0.025
4.115,-0.029
4.120,-0.057
4.125,-0.053
4.130,-0.025
4.135,-0.032
4.140,-0.052
4.145,-0.045
4.150,-0.039
4.155,-0.042
4.160,-0.024
4.165,-0.019
4.170,-0.044
4.175,-0.044
4.180,-0.030
4.185,-0.045
4.190,-0.047
4.195,-0.029
4.200,-0.026
4.205,-0.023
4.210,-0.022
4.215,-0.040
4.220,-0.052
4.225,-0.029
4.230,-0.006
4.235,-0.014
4.240,-0.018
4.245,-0.014
4.250,-0.025
4.255,-0.042
4.260,-0.037
4.265,-0.023
4.270,-0.037
4.275,-0.041
4.280,-0.028
4.285,-0.045
4.290,-0.054
4.295,-0.043
4.300,-0.048
4.305,-0.065
4.310,-0.072
4.315,-0.066
4.320,-0.054
4.325,-0.018
4.330,0.014
4.335,-0.003
4.340,-0.017
4.345,-0.012
4.350,-0.017
4.355,-0.016
4.360,-0.003
4.365,0.005
4.370,0.011
4.375,0.035
4.380,0.049
4.385,0.021
4.390,0.005
4.395,0.018
4.400,0.013
4.405,0.007
4.410,0.012
4.415,0.012
4.420,0.017
4.425,0.024
4.430,0.022
4.435,0.011
4.440,0.004
4.445,0.002
4.450,-0.001
4.455,0.002
4.460,0.006
4.465,0.003
4.470,-0.002
4.475,0.004
4.480,0.009
4.485,-0.009
4.490,-0.021
4.495,-0.017
4.500,-0.020
4.505,-0.025
4.510,-0.010
4.515,-0.004
4.520,-0.026
4.525,-0.058
4.530,-0.145
4.535,-0.328
4.540,-0.577
4.545,-0.839
4.550,-0.971
4.555,-0.781
4.560,-0.436
4.565,-0.210
4.570,-0.005
4.575,0.189
4.580,0.269
4.585,0.295
4.590,0.304
4.595,0.294
4.600,0.271
4.605,0.247
4.610,0.237
4.615,0.220
4.620,0.184
4.625,0.168
4.630,0.168
4.635,0.151
4.640,0.142
4.645,0.150
4.650,0.139
4.655,0.118
4.660,0.124
4.665,0.123
4.670,0.101
4.675,0.099
4.680,0.104
4.685,0.097
4.690,0.092
4.695,0.075
4.700,0.056
4.705,0.049
4.710,0.048
4.715,0.041
4.720,0.027
4.725,0.030
4.730,0.030
4.735,0.006
4.740,-0.005
4.745,0.004
4.750,-0.003
4.755,-0.023
4.760,-0.032
4.765,-0.046
4.770,-0.069
4.775,-0.073
4.780,-0.074
4.785,-0.096
4.790,-0.113
4.795,-0.120
4.800,-0.140
4.805,-0.153
4.810,-0.152
4.815,-0.156
4.820,-0.164
4.825,-0.160
4.830,-0.150
4.835,-0.145
4.840,-0.132
4.845,-0.106
4.850,-0.090
4.855,-0.067
4.860,-0.023
4.865,0.013
4.870,0.036
4.875,0.079
4.880,0.130
4.885,0.152
4.890,0.164
4.895,0.188
4.900,0.204
4.905,0.213
4.910,0.229
4.915,0.231
4.920,0.222
4.925,0.228
4.930,0.235
4.935,0.218
4.940,0.208
4.945,0.214
4.950,0.196
4.955,0.175
4.960,0.179
4.965,0.170
4.970,0.145
4.975,0.143
4.980,0.140
4.985,0.122
4.990,0.117
4.995,0.111
5.000,0.091
5.005,0.077
5.010,0.076
5.015,0.071
5.020,0.053
5.025,0.051
5.030,0.054
5.035,0.039
5.040,0.029
5.045,0.031
5.050,0.021
5.055,0.012
5.060,0.020
5.065,0.017
5.070,-0.002
5.075,-0.003
5.080,0.013
5.085,0.005
5.090,-0.012
5.095,-0.010
5.100,-0.013
5.105,-0.021
5.110,-0.010
5.115,-0.006
5.120,-0.020
5.125,-0.015
5.130,-0.003
5.135,-0.018
5.140,-0.024
5.145,-0.009
5.150,-0.015
5.155,-0.027
5.160,-0.013
5.165,-0.012
5.170,-0.030
5.175,-0.024
5.180,-0.019
5.185,-0.030
5.190,-0.027
5.195,-0.022
5.200,-0.030
5.205,-0.035
5.210,-0.024
5.215,-0.022
5.220,-0.036
5.225,-0.038
5.230,-0.029
5.235,-0.038
5.240,-0.043
5.245,-0.035
5.250,-0.044
5.255,-0.049
5.260,-0.029
5.265,-0.029
5.270,-0.051
5.275,-0.044
5.280,-0.036
5.285,-0.047
5.290,-0.041
5.295,-0.027
5.300,-0.036
5.305,-0.049
5.310,-0.043
5.315,-0.042
5.320,-0.055
5.325,-0.049
5.330,-0.041
5.335,-0.052
5.340,-0.046
5.345,-0.026
5.350,-0.028
5.355,-0.034
5.360,-0.030
5.365,-0.035
5.370,-0.043
5.375,-0.042
5.380,-0.041
5.385,-0.044
5.390,-0.043
5.395,-0.037
5.400,-0.036
5.405,-0.038
5.410,-0.035
5.415,-0.038
5.420,-0.049
5.425,-0.035
5.430,-0.022
5.435,-0.034
5.440,-0.041
5.445,-0.035
5.450,-0.028
5.455,-0.016
5.460,-0.001
5.465,-0.016
5.470,-0.041
5.475,-0.035
5.480,-0.020
5.485,-0.025
5.490,-0.034
5.495,-0.026
5.500,-0.020
5.505,-0.018
5.510,-0.001
5.515,-0.002
5.520,-0.028
5.525,-0.020
5.530,-0.005
5.535,-0.025
5.540,-0.025
5.545,-0.002
5.550,-0.008
5.555,-0.019
5.560,-0.015
5.565,-0.024
5.570,-0.048
5.575,-0.044
5.580,-0.029
5.585,-0.039
5.590,-0.052
5.595,-0.045
5.600,-0.038
5.605,-0.035
5.610,-0.025
5.615,-0.023
5.620,-0.025
5.625,-0.020
5.630,-0.020
5.635,-0.017
5.640,0.002
5.645,0.015
5.650,-0.010
5.655,-0.042
5.660,-0.020
5.665,0.022
5.670,0.046
5.675,0.064
5.680,0.060
5.685,0.034
5.690,0.034
5.695,0.058
5.700,0.043
5.705,0.022
5.710,0.043
5.715,0.051
5.720,0.038
5.725,0.044
5.730,0.046
5.735,0.030
5.740,0.021
5.745,0.021
5.750,0.023
5.755,0.022
5.760,0.023
5.765,0.015
5.770,-0.002
5.775,0.010
5.780,0.030
5.785,0.023
5.790,0.012
5.795,0.015
5.800,0.010
5.805,-0.001
5.810,0.002
5.815,-0.002
5.820,-0.027
5.825,-0.058
5.830,-0.102
5.835,-0.205
5.840,-0.389
5.845,-0.642
5.850,-0.899
5.855,-0.909
5.860,-0.599
5.865,-0.311
5.870,-0.127
5.875,0.081
5.880,0.210
5.885,0.249
5.890,0.282
5.895,0.302
5.900,0.289
5.905,0.272
5.910,0.272
5.915,0.245
5.920,0.190
5.925,0.185
5.930,0.204
5.935,0.172
5.940,0.139
5.945,0.143
5.950,0.147
5.955,0.145
5.960,0.131
5.965,0.106
5.970,0.089
5.975,0.086
5.980,0.099
5.985,0.103
5.990,0.080
5.995,0.067
6.000,0.068
6.005,0.053
6.010,0.041
6.015,0.042
6.020,0.036
6.025,0.035
6.030,0.031
6.035,0.019
6.040,0.015
6.045,0.004
6.050,-0.026
6.055,-0.044
6.060,-0.034
6.065,-0.034
6.070,-0.059
6.075,-0.076
6.080,-0.082
6.085,-0.097
6.090,-0.130
6.095,-0.149
6.100,-0.151
6.105,-0.167
6.110,-0.172
6.115,-0.161
6.120,-0.164
6.125,-0.173
6.130,-0.179
6.135,-0.184
6.140,-0.173
6.145,-0.144
6.150,-0.113
6.155,-0.088
6.160,-0.056
6.165,-0.022
6.170,0.007
6.175,0.052
6.180,0.096
6.185,0.108
6.190,0.129
6.195,0.172
6.200,0.198
6.205,0.215
6.210,0.232
6.215,0.234
6.220,0.227
6.225,0.223
6.230,0.217
6.235,0.198
6.240,0.190
6.245,0.210
6.250,0.217
6.255,0.193
6.260,0.185
6.265,0.179
6.270,0.148
6.275,0.139
6.280,0.149
6.285,0.132
6.290,0.106
6.295,0.102
6.300,0.099
6.305,0.087
6.310,0.076
6.315,0.064
6.320,0.053
6.325,0.055
6.330,0.059
6.335,0.041
6.340,0.024
6.345,0.015
6.350,0.004
6.355,0.010
6.360,0.025
6.365,0.014
6.370,-0.009
6.375,-0.013
6.380,0.000
6.385,0.008
6.390,-0.003
6.395,-0.019
6.400,-0.021
6.405,-0.006
6.410,-0.006
6.415,-0.019
6.420,-0.016
6.425,-0.014
6.430,-0.022
6.435,-0.032
6.440,-0.032
6.445,-0.017
6.450,-0.013
6.455,-0.015
6.460,-0.011
6.465,-0.030
6.470,-0.040
6.475,-0.015
6.480,-0.006
6.485,-0.025
6.490,-0.042
6.495,-0.036
6.500,-0.018
6.505,-0.006
6.510,-0.005
6.515,-0.021
6.520,-0.043
6.525,-0.041
6.530,-0.030
6.535,-0.034
6.540,-0.037
6.545,-0.031
6.550,-0.037
6.555,-0.054
6.560,-0.050
6.565,-0.050
6.570,-0.064
6.575,-0.053
6.580,-0.040
6.585,-0.050
6.590,-0.056
6.595,-0.045
6.600,-0.051
6.605,-0.058
6.610,-0.039
6.615,-0.031
6.620,-0.034
6.625,-0.033
6.630,-0.037
6.635,-0.050
6.640,-0.052
6.645,-0.037
6.650,-0.047
6.655,-0.067
6.660,-0.049
6.665,-0.033
6.670,-0.048
6.675,-0.052
6.680,-0.042
6.685,-0.047
6.690,-0.051
6.695,-0.035
6.700,-0.035
6.705,-0.050
6.710,-0.043
6.715,-0.032
6.720,-0.034
6.725,-0.032
6.730,-0.038
6.735,-0.059
6.740,-0.059
6.745,-0.038
6.750,-0.034
6.755,-0.043
6.760,-0.040
6.765,-0.033
6.770,-0.039
6.775,-0.031
6.780,-0.022
6.785,-0.038
6.790,-0.038
6.795,-0.023
6.800,-0.029
6.805,-0.038
6.810,-0.032
6.815,-0.027
6.820,-0.040
6.825,-0.046
6.830,-0.037
6.835,-0.040
6.840,-0.045
6.845,-0.036
6.850,-0.040
6.855,-0.053
6.860,-0.048
6.865,-0.055
6.870,-0.075
6.875,-0.067
6.880,-0.039
6.885,-0.023
6.890,-0.013
6.895,-0.001
6.900,-0.009
6.905,-0.020
6.910,-0.017
6.915,-0.018
6.920,-0.016
6.925,0.008
6.930,0.031
6.935,0.024
6.940,0.018
6.945,0.034
6.950,0.029
6.955,0.014
6.960,0.022
6.965,0.024
6.970,0.014
6.975,0.015
6.980,0.019
6.985,0.011
6.990,0.000
6.995,0.005
7.000,0.008
7.005,-0.004
7.010,0.000
7.015,0.011
7.020,0.007
7.025,0.011
7.030,0.017
7.035,0.011
7.040,0.006
7.045,0.009
7.050,0.004
7.055,-0.006
7.060,0.006
7.065,0.010
7.070,-0.011
7.075,-0.017
7.080,-0.031
7.085,-0.106
7.090,-0.246
7.095,-0.455
7.100,-0.730
7.105,-0.952
7.110,-0.868
7.115,-0.540
7.120,-0.291
7.125,-0.077
7.130,0.138
7.135,0.238
7.140,0.287
7.145,0.324
7.150,0.315
7.155,0.289
7.160,0.279
7.165,0.265
7.170,0.239
7.175,0.214
7.180,0.187
7.185,0.162
7.190,0.158
7.195,0.165
7.200,0.155
7.205,0.134
7.210,0.134
7.215,0.133
7.220,0.117
7.225,0.112
7.230,0.111
7.235,0.099
7.240,0.088
7.245,0.085
7.250,0.081
7.255,0.067
7.260,0.067
7.265,0.069
7.270,0.051
7.275,0.042
7.280,0.042
7.285,0.022
7.290,0.009
7.295,0.011
7.300,0.007
7.305,-0.003
7.310,-0.012
7.315,-0.022
7.320,-0.038
7.325,-0.052
7.330,-0.059
7.335,-0.083
7.340,-0.105
7.345,-0.104
7.350,-0.116
7.355,-0.143
7.360,-0.154
7.365,-0.160
7.370,-0.172
7.375,-0.167
7.380,-0.149
7.385,-0.151
7.390,-0.153
7.395,-0.132
7.400,-0.119
7.405,-0.108
7.410,-0.074
7.415,-0.041
7.420,-0.013
7.425,0.034
7.430,0.083
7.435,0.104
7.440,0.125
7.445,0.162
7.450,0.189
7.455,0.206
7.460,0.222
7.465,0.227
7.470,0.224
7.475,0.223
7.480,0.225
7.485,0.219
7.490,0.211
7.495,0.214
7.500,0.204
7.505,0.190
7.510,0.192
7.515,0.181
7.520,0.154
7.525,0.149
7.530,0.154
7.535,0.136
7.540,0.118
7.545,0.116
7.550,0.107
7.555,0.085
7.560,0.080
7.565,0.079
7.570,0.062
7.575,0.059
7.580,0.062
7.585,0.048
7.590,0.039
7.595,0.042
7.600,0.029
7.605,0.010
7.610,0.020
7.615,0.026
7.620,0.005
7.625,0.003
7.630,0.009
7.635,-0.002
7.640,-0.005
7.645,0.001
7.650,-0.006
7.655,-0.016
7.660,-0.007
7.665,-0.004
7.670,-0.017
7.675,-0.024
7.680,-0.015
7.685,-0.014
7.690,-0.016
7.695,-0.008
7.700,-0.014
7.705,-0.023
7.710,-0.018
7.715,-0.017
7.720,-0.020
7.725,-0.018
7.730,-0.017
7.735,-0.026
7.740,-0.034
7.745,-0.026
7.750,-0.024
7.755,-0.032
7.760,-0.028
7.765,-0.023
7.770,-0.029
7.775,-0.030
7.780,-0.026
7.785,-0.033
7.790,-0.042
7.795,-0.031
7.800,-0.028
7.805,-0.047
7.810,-0.050
7.815,-0.041
7.820,-0.050
7.825,-0.044
7.830,-0.029
7.835,-0.037
7.840,-0.041
7.845,-0.034
7.850,-0.045
7.855,-0.058
7.860,-0.045
7.865,-0.030
7.870,-0.039
7.875,-0.045
7.880,-0.045
7.885,-0.058
7.890,-0.061
7.895,-0.041
7.900,-0.033
7.905,-0.039
7.910,-0.034
7.915,-0.034
7.920,-0.049
7.925,-0.049
7.930,-0.037
7.935,-0.041
7.940,-0.048
7.945,-0.034
7.950,-0.030
7.955,-0.045
7.960,-0.047
7.965,-0.040
7.970,-0.040
7.975,-0.036
7.980,-0.036
7.985,-0.041
7.990,-0.036
7.995,-0.024
8.000,-0.031
8.005,-0.047
8.010,-0.037
8.015,-0.019
8.020,-0.017
8.025,-0.024
8.030,-0.017
8.035,-0.013
8.040,-0.019
8.045,-0.015
8.050,-0.029
8.055,-0.043
8.060,-0.027
8.065,-0.008
8.070,-0.005
8.075,-0.008
8.080,-0.007
8.085,-0.015
8.090,-0.027
8.095,-0.021
8.100,-0.024
8.105,-0.030
8.110,-0.019
8.115,-0.019
8.120,-0.025
8.125,-0.015
8.130,-0.013
8.135,-0.027
8.140,-0.030
8.145,-0.027
8.150,-0.042
8.155,-0.052
8.160,-0.032
8.165,-0.034
8.170,-0.059
8.175,-0.039
8.180,0.003
8.185,0.000
8.190,-0.016
8.195,0.005
8.200,0.021
8.205,-0.004
8.210,-0.003
8.215,0.019
8.220,0.017
8.225,0.032
8.230,0.057
8.235,0.048
8.240,0.041
8.245,0.045
8.250,0.032
8.255,0.022
8.260,0.027
8.265,0.024
8.270,0.022
8.275,0.034
8.280,0.032
8.285,0.021
8.290,0.019
8.295,0.027
8.300,0.031
8.305,0.021
8.310,0.010
8.315,0.010
8.320,0.014
8.325,0.024
8.330,0.026
8.335,0.001
8.340,-0.014
8.345,-0.003
8.350,-0.002
8.355,0.001
8.360,0.013
8.365,0.010
8.370,-0.019
8.375,-0.058
8.380,-0.110
8.385,-0.229
8.390,-0.428
8.395,-0.672
8.400,-0.900
8.405,-0.886
8.410,-0.596
8.415,-0.331
8.420,-0.121
8.425,0.092
8.430,0.215
8.435,0.276
8.440,0.311
8.445,0.311
8.450,0.286
8.455,0.255
8.460,0.249
8.465,0.235
8.470,0.189
8.475,0.168
8.480,0.178
8.485,0.168
8.490,0.165
8.495,0.177
8.500,0.154
8.505,0.125
8.510,0.125
8.515,0.120
8.520,0.101
8.525,0.097
8.530,0.114
8.535,0.105
8.540,0.074
8.545,0.064
8.550,0.068
8.555,0.066
8.560,0.063
8.565,0.050
8.570,0.028
8.575,0.029
8.580,0.040
8.585,0.022
8.590,0.002
8.595,0.004
8.600,-0.015
8.605,-0.048
8.610,-0.041
8.615,-0.036
8.620,-0.058
8.625,-0.066
8.630,-0.075
8.635,-0.104
8.640,-0.131
8.645,-0.139
8.650,-0.151
8.655,-0.167
8.660,-0.169
8.665,-0.166
8.670,-0.173
8.675,-0.179
8.680,-0.168
8.685,-0.160
8.690,-0.162
8.695,-0.133
8.700,-0.099
8.705,-0.096
8.710,-0.077
8.715,-0.032
8.720,0.001
8.725,0.045
8.730,0.102
8.735,0.124
8.740,0.136
8.745,0.173
8.750,0.202
8.755,0.215
8.760,0.222
8.765,0.220
8.770,0.222
8.775,0.222
8.780,0.215
8.785,0.208
8.790,0.204
8.795,0.204
8.800,0.189
8.805,0.174
8.810,0.182
8.815,0.179
8.820,0.154
8.825,0.145
8.830,0.142
8.835,0.105
8.840,0.087
8.845,0.111
8.850,0.108
8.855,0.082
8.860,0.071
8.865,0.069
8.870,0.067
8.875,0.055
8.880,0.048
8.885,0.037
8.890,0.011
8.895,0.005
8.900,0.021
8.905,0.021
8.910,0.018
8.915,0.015
8.920,0.000
8.925,-0.007
8.930,0.000
8.935,0.006
8.940,0.006
8.945,-0.007
8.950,-0.026
8.955,-0.033
8.960,-0.023
8.965,-0.009
8.970,-0.005
8.975,0.000
8.980,0.001
8.985,-0.018
8.990,-0.021
8.995,-0.002
9.000,-0.015
9.005,-0.038
9.010,-0.026
9.015,-0.019
9.020,-0.036
9.025,-0.029
9.030,-0.010
9.035,-0.020
9.040,-0.027
9.045,-0.012
9.050,-0.020
9.055,-0.037
9.060,-0.036
9.065,-0.042
9.070,-0.048
9.075,-0.037
9.080,-0.031
9.085,-0.040
9.090,-0.043
9.095,-0.031
9.100,-0.029
9.105,-0.039
9.110,-0.043
9.115,-0.046
9.120,-0.058
9.125,-0.067
9.130,-0.059
9.135,-0.046
9.140,-0.037
9.145,-0.026
9.150,-0.035
9.155,-0.050
9.160,-0.044
9.165,-0.038
9.170,-0.051
9.175,-0.052
9.180,-0.039
9.185,-0.046
9.190,-0.065
9.195,-0.053
9.200,-0.035
9.205,-0.040
9.210,-0.041
9.215,-0.050
9.220,-0.066
9.225,-0.050
9.230,-0.034
9.235,-0.041
9.240,-0.045
9.245,-0.038
9.250,-0.044
9.255,-0.058
9.260,-0.048
9.265,-0.041
9.270,-0.045
9.275,-0.037
9.280,-0.031
9.285,-0.039
9.290,-0.049
9.295,-0.039
9.300,-0.035
9.305,-0.039
9.310,-0.028
9.315,-0.030
9.320,-0.051
9.325,-0.047
9.330,-0.030
9.335,-0.032
9.340,-0.036
9.345,-0.023
9.350,-0.024
9.355,-0.038
9.360,-0.040
9.365,-0.038
9.370,-0.039
9.375,-0.029
9.380,-0.024
9.385,-0.041
9.390,-0.056
9.395,-0.050
9.400,-0.053
9.405,-0.060
9.410,-0.049
9.415,-0.053
9.420,-0.077
9.425,-0.070
9.430,-0.026
9.435,-0.005
9.440,-0.015
9.445,-0.001
9.450,0.004
9.455,-0.016
9.460,-0.014
9.465,0.004
9.470,0.010
9.475,0.023
9.480,0.041
9.485,0.032
9.490,0.023
9.495,0.040
9.500,0.047
9.505,0.029
9.510,0.023
9.515,0.028
9.520,0.017
9.525,0.012
9.530,0.025
9.535,0.022
9.540,0.014
9.545,0.021
9.550,0.018
9.555,0.008
9.560,0.014
9.565,0.024
9.570,0.018
9.575,0.010
9.580,0.015
9.585,0.011
9.590,0.004
9.595,0.014
9.600,0.012
9.605,0.001
9.610,0.005
9.615,0.005
9.620,-0.005
9.625,-0.026
9.630,-0.081
9.635,-0.209
9.640,-0.408
9.645,-0.657
9.650,-0.914
9.655,-0.940
9.660,-0.642
9.665,-0.339
9.670,-0.136
9.675,0.077
9.680,0.224
9.685,0.279
9.690,0.311
9.695,0.324
9.700,0.304
9.705,0.281
9.710,0.273
9.715,0.250
9.720,0.207
9.725,0.185
9.730,0.184
9.735,0.178
9.740,0.170
9.745,0.168
9.750,0.152
9.755,0.135
9.760,0.137
9.765,0.136
9.770,0.118
9.775,0.108
9.780,0.109
9.785,0.094
9.790,0.081
9.795,0.089
9.800,0.087
9.805,0.069
9.810,0.056
9.815,0.051
9.820,0.038
9.825,0.030
9.830,0.043
9.835,0.028
9.840,0.002
9.845,0.009
9.850,-0.001
9.855,-0.028
9.860,-0.032
9.865,-0.037
9.870,-0.055
9.875,-0.062
9.880,-0.069
9.885,-0.098
9.890,-0.119
9.895,-0.118
9.900,-0.132
9.905,-0.155
9.910,-0.157
9.915,-0.157
9.920,-0.173
9.925,-0.173
9.930,-0.163
9.935,-0.161
9.940,-0.153
9.945,-0.128
9.950,-0.115
9.955,-0.107
9.960,-0.063
9.965,-0.014
9.970,0.005
9.975,0.041
9.980,0.096
9.985,0.126
9.990,0.144
9.995,0.173
10.000,0.195
10.005,0.211
10.010,0.230
10.015,0.235
10.020,0.226
10.025,0.224
10.030,0.223
10.035,0.209
10.040,0.202
10.045,0.205
10.050,0.200
10.055,0.186
10.060,0.179
10.065,0.170
10.070,0.155
10.075,0.149
10.080,0.144
10.085,0.121
10.090,0.107
10.095,0.115
10.100,0.107
10.105,0.083
10.110,0.075
10.115,0.075
10.120,0.058
10.125,0.053
10.130,0.062
10.135,0.046
10.140,0.034
10.145,0.036
10.150,0.021
10.155,0.006
10.160,0.015
10.165,0.019
10.170,0.002
10.175,0.003
10.180,0.013
10.185,-0.008
10.190,-0.015
10.195,0.004
10.200,0.004
10.205,-0.009
10.210,-0.006
10.215,0.000
10.220,-0.009
10.225,-0.015
10.230,-0.012
10.235,-0.022
10.240,-0.027
10.245,-0.021
10.250,-0.023
10.255,-0.027
10.260,-0.025
10.265,-0.026
10.270,-0.038
10.275,-0.034
10.280,-0.023
10.285,-0.033
10.290,-0.039
10.295,-0.032
10.300,-0.031
10.305,-0.031
10.310,-0.020
10.315,-0.017
10.320,-0.027
10.325,-0.028
10.330,-0.023
10.335,-0.030
10.340,-0.036
10.345,-0.036
10.350,-0.042
10.355,-0.038
10.360,-0.032
10.365,-0.036
10.370,-0.038
10.375,-0.031
10.380,-0.029
10.385,-0.039
10.390,-0.036
10.395,-0.035
10.400,-0.052
10.405,-0.052
10.410,-0.029
10.415,-0.020
10.420,-0.039
10.425,-0.047
10.430,-0.036
10.435,-0.040
10.440,-0.045
10.445,-0.029
10.450,-0.017
10.455,-0.023
10.460,-0.037
10.465,-0.044
10.470,-0.052
10.475,-0.053
10.480,-0.036
10.485,-0.028
10.490,-0.035
10.495,-0.036
10.500,-0.039
10.505,-0.050
10.510,-0.044
10.515,-0.038
10.520,-0.041
10.525,-0.025
10.530,-0.012
10.535,-0.021
10.540,-0.032
10.545,-0.038
10.550,-0.040
10.555,-0.035
10.560,-0.022
10.565,-0.013
10.570,-0.019
10.575,-0.022
10.580,-0.017
10.585,-0.023
10.590,-0.035
10.595,-0.031
10.600,-0.014
10.605,-0.010
10.610,-0.014
10.615,-0.021
10.620,-0.039
10.625,-0.034
10.630,-0.016
10.635,-0.026
10.640,-0.028
10.645,-0.008
10.650,-0.012
10.655,-0.046
10.660,-0.055
10.665,-0.037
10.670,-0.033
10.675,-0.041
10.680,-0.047
10.685,-0.054
10.690,-0.047
10.695,-0.026
10.700,-0.010
10.705,-0.006
10.710,-0.002
10.715,0.004
10.720,-0.008
10.725,-0.021
10.730,-0.011
10.735,0.002
10.740,0.010
10.745,0.025
10.750,0.037
10.755,0.035
10.760,0.034
10.765,0.041
10.770,0.039
10.775,0.033
10.780,0.030
10.785,0.018
10.790,0.013
10.795,0.020
10.800,0.015
10.805,0.011
10.810,0.024
10.815,0.024
10.820,0.004
10.825,-0.001
10.830,0.000
10.835,-0.008
10.840,0.000
10.845,0.013
10.850,0.009
10.855,0.011
10.860,0.016
10.865,0.012
10.870,-0.006
10.875,-0.015
10.880,-0.005
10.885,-0.009
10.890,-0.021
10.895,-0.037
10.900,-0.098
10.905,-0.227
10.910,-0.429
10.915,-0.689
10.920,-0.925
10.925,-0.920
10.930,-0.639
10.935,-0.369
10.940,-0.155
10.945,0.081
10.950,0.224
10.955,0.269
10.960,0.310
10.965,0.332
10.970,0.302
10.975,0.271
10.980,0.260
10.985,0.227
10.990,0.193
10.995,0.190
11.000,0.178
11.005,0.158
11.010,0.161
11.015,0.162
11.020,0.144
11.025,0.127
11.030,0.127
11.035,0.125
11.040,0.120
11.045,0.119
11.050,0.102
11.055,0.088
11.060,0.090
11.065,0.082
11.070,0.069
11.075,0.062
11.080,0.056
11.085,0.047
11.090,0.035
11.095,0.032
11.100,0.033
11.105,0.022
11.110,0.007
11.115,-0.018
11.120,-0.038
11.125,-0.023
11.130,-0.009
11.135,-0.030
11.140,-0.050
11.145,-0.062
11.150,-0.090
11.155,-0.124
11.160,-0.130
11.165,-0.121
11.170,-0.131
11.175,-0.152
11.180,-0.164
11.185,-0.169
11.190,-0.167
11.195,-0.164
11.200,-0.172
11.205,-0.180
11.210,-0.159
11.215,-0.136
11.220,-0.129
11.225,-0.091
11.230,-0.037
11.235,-0.013
11.240,0.018
11.245,0.067
11.250,0.096
11.255,0.115
11.260,0.153
11.265,0.187
11.270,0.197
11.275,0.205
11.280,0.216
11.285,0.223
11.290,0.236
11.295,0.240
11.300,0.226
11.305,0.213
11.310,0.213
11.315,0.211
11.320,0.190
11.325,0.190
11.330,0.199
11.335,0.167
11.340,0.137
11.345,0.146
11.350,0.142
11.355,0.115
11.360,0.104
11.365,0.105
11.370,0.094
11.375,0.085
11.380,0.075
11.385,0.050
11.390,0.038
11.395,0.048
11.400,0.039
11.405,0.024
11.410,0.029
11.415,0.029
11.420,0.017
11.425,0.012
11.430,0.013
11.435,0.007
11.440,0.003
11.445,-0.005
11.450,-0.015
11.455,-0.016
11.460,-0.008
11.465,-0.006
11.470,-0.020
11.475,-0.021
11.480,-0.013
11.485,-0.015
11.490,-0.017
11.495,-0.007
11.500,-0.006
11.505,-0.018
11.510,-0.020
11.515,-0.014
11.520,-0.018
11.525,-0.021
11.530,-0.021
11.535,-0.031
11.540,-0.037
11.545,-0.027
11.550,-0.025
11.555,-0.034
11.560,-0.031
11.565,-0.021
11.570,-0.022
11.575,-0.022
11.580,-0.023
11.585,-0.037
11.590,-0.042
11.595,-0.038
11.600,-0.045
11.605,-0.052
11.610,-0.045
11.615,-0.037
11.620,-0.039
11.625,-0.034
11.630,-0.032
11.635,-0.043
11.640,-0.050
11.645,-0.041
11.650,-0.036
11.655,-0.046
11.660,-0.047
11.665,-0.040
11.670,-0.048
11.675,-0.046
11.680,-0.031
11.685,-0.046
11.690,-0.056
11.695,-0.042
11.700,-0.040
11.705,-0.053
11.710,-0.048
11.715,-0.031
11.720,-0.042
11.725,-0.052
11.730,-0.039
11.735,-0.040
11.740,-0.053
11.745,-0.048
11.750,-0.036
11.755,-0.041
11.760,-0.040
11.765,-0.026
11.770,-0.040
11.775,-0.055
11.780,-0.043
11.785,-0.041
11.790,-0.045
11.795,-0.037
11.800,-0.031
11.805,-0.034
11.810,-0.032
11.815,-0.030
11.820,-0.042
11.825,-0.038
11.830,-0.019
11.835,-0.024
11.840,-0.036
11.845,-0.026
11.850,-0.026
11.855,-0.037
11.860,-0.027
11.865,-0.026
11.870,-0.044
11.875,-0.037
11.880,-0.017
11.885,-0.021
11.890,-0.031
11.895,-0.033
11.900,-0.031
11.905,-0.032
11.910,-0.036
11.915,-0.041
11.920,-0.055
11.925,-0.051
11.930,-0.039
11.935,-0.048
11.940,-0.059
11.945,-0.062
11.950,-0.062
11.955,-0.043
11.960,-0.008
11.965,0.013
11.970,0.004
11.975,-0.005
11.980,-0.002
11.985,-0.008
11.990,-0.007
11.995,0.008
12.000,0.018
12.005,0.026
12.010,0.038
12.015,0.037
12.020,0.027
12.025,0.031
12.030,0.034
12.035,0.024
12.040,0.024
12.045,0.027
12.050,0.018
12.055,0.011
12.060,0.018
12.065,0.024
12.070,0.011
12.075,0.013
12.080,0.033
12.085,0.027
12.090,0.005
12.095,0.007
12.100,0.018
12.105,0.010
12.110,0.005
12.115,0.009
12.120,0.003
12.125,-0.001
12.130,0.003
12.135,-0.004
12.140,-0.007
12.145,0.000
12.150,-0.020
12.155,-0.061
12.160,-0.116
12.165,-0.232
12.170,-0.443
12.175,-0.711
12.180,-0.941
12.185,-0.919
12.190,-0.610
12.195,-0.313
12.200,-0.093
12.205,0.115
12.210,0.240
12.215,0.296
12.220,0.319
12.225,0.317
12.230,0.310
12.235,0.283
12.240,0.250
12.245,0.237
12.250,0.217
12.255,0.187
12.260,0.183
12.265,0.186
12.270,0.166
12.275,0.157
12.280,0.156
12.285,0.135
12.290,0.129
12.295,0.140
12.300,0.127
12.305,0.106
12.310,0.104
12.315,0.103
12.320,0.093
12.325,0.091
12.330,0.088
12.335,0.069
12.340,0.053
12.345,0.052
12.350,0.046
12.355,0.029
12.360,0.031
12.365,0.034
12.370,0.015
12.375,0.002
12.380,-0.003
12.385,-0.022
12.390,-0.036
12.395,-0.038
12.400,-0.050
12.405,-0.073
12.410,-0.082
12.415,-0.089
12.420,-0.110
12.425,-0.126
12.430,-0.136
12.435,-0.154
12.440,-0.168
12.445,-0.168
12.450,-0.168
12.455,-0.170
12.460,-0.160
12.465,-0.153
12.470,-0.159
12.475,-0.142
12.480,-0.104
12.485,-0.088
12.490,-0.074
12.495,-0.023
12.500,0.027
12.505,0.055
12.510,0.098
12.515,0.140
12.520,0.159
12.525,0.180
12.530,0.206
12.535,0.220
12.540,0.222
12.545,0.224
12.550,0.224
12.555,0.218
12.560,0.218
12.565,0.224
12.570,0.215
12.575,0.209
12.580,0.205
12.585,0.183
12.590,0.163
12.595,0.162
12.600,0.156
12.605,0.137
12.610,0.131
12.615,0.133
12.620,0.115
12.625,0.100
12.630,0.095
12.635,0.077
12.640,0.064
12.645,0.064
12.650,0.056
12.655,0.047
12.660,0.058
12.665,0.060
12.670,0.033
12.675,0.021
12.680,0.025
12.685,0.018
12.690,0.018
12.695,0.025
12.700,0.023
12.705,0.014
12.710,0.005
12.715,0.003
12.720,0.001
12.725,0.002
12.730,0.005
12.735,-0.006
12.740,-0.011
12.745,-0.001
12.750,0.003
12.755,-0.013
12.760,-0.028
12.765,-0.024
12.770,-0.012
12.775,0.002
12.780,0.002
12.785,-0.013
12.790,-0.023
12.795,-0.019
12.800,-0.020
12.805,-0.019
12.810,-0.009
12.815,-0.014
12.820,-0.029
12.825,-0.026
12.830,-0.016
12.835,-0.022
12.840,-0.031
12.845,-0.024
12.850,-0.025
12.855,-0.041
12.860,-0.035
12.865,-0.026
12.870,-0.045
12.875,-0.043
12.880,-0.026
12.885,-0.030
12.890,-0.031
12.895,-0.027
12.900,-0.039
12.905,-0.051
12.910,-0.037
12.915,-0.025
12.920,-0.039
12.925,-0.046
12.930,-0.028
12.935,-0.025
12.940,-0.045
12.945,-0.039
12.950,-0.033
12.955,-0.053
12.960,-0.050
12.965,-0.033
12.970,-0.044
12.975,-0.036
12.980,-0.022
12.985,-0.048
12.990,-0.059
12.995,-0.039
13.000,-0.028
13.005,-0.028
13.010,-0.033
13.015,-0.046
13.020,-0.056
13.025,-0.045
13.030,-0.026
13.035,-0.029
13.040,-0.036
13.045,-0.025
13.050,-0.029
13.055,-0.041
13.060,-0.039
13.065,-0.048
13.070,-0.062
13.075,-0.049
13.080,-0.023
13.085,-0.017
13.090,-0.025
13.095,-0.021
13.100,-0.026
13.105,-0.048
13.110,-0.050
13.115,-0.046
13.120,-0.047
13.125,-0.027
13.130,-0.008
13.135,-0.016
13.140,-0.029
13.145,-0.033
13.150,-0.037
13.155,-0.040
13.160,-0.028
13.165,-0.024
13.170,-0.041
13.175,-0.050
13.180,-0.047
13.185,-0.047
13.190,-0.052
13.195,-0.066
13.200,-0.084
13.205,-0.078
13.210,-0.034
13.215,0.000
13.220,0.008
13.225,0.010
13.230,-0.002
13.235,-0.013
13.240,-0.022
13.245,-0.013
13.250,0.004
13.255,0.009
13.260,0.035
13.265,0.051
13.270,0.030
13.275,0.013
13.280,0.018
13.285,0.026
13.290,0.021
13.295,0.015
13.300,0.019
13.305,0.025
13.310,0.026
13.315,0.021
13.320,0.017
13.325,0.015
13.330,0.006
13.335,0.000
13.340,0.002
13.345,0.003
13.350,0.009
13.355,0.006
13.360,-0.006
13.365,-0.008
13.370,-0.009
13.375,0.011
13.380,0.021
13.385,-0.007
13.390,-0.015
13.395,-0.006
13.400,-0.006
13.405,-0.015
13.410,-0.034
13.415,-0.073
13.420,-0.180
13.425,-0.386
13.430,-0.673
13.435,-0.953
13.440,-0.983
13.445,-0.688
13.450,-0.379
13.455,-0.167
13.460,0.061
13.465,0.221
13.470,0.286
13.475,0.320
13.480,0.314
13.485,0.281
13.490,0.251
13.495,0.246
13.500,0.240
13.505,0.218
13.510,0.207
13.515,0.196
13.520,0.167
13.525,0.145
13.530,0.144
13.535,0.140
13.540,0.123
13.545,0.121
13.550,0.136
13.555,0.130
13.560,0.113
13.565,0.100
13.570,0.078
13.575,0.078
13.580,0.088
13.585,0.075
13.590,0.055
13.595,0.054
13.600,0.055
13.605,0.037
13.610,0.031
13.615,0.033
13.620,0.025
13.625,0.015
13.630,-0.004
13.635,-0.018
13.640,-0.023
13.645,-0.036
13.650,-0.053
13.655,-0.062
13.660,-0.065
13.665,-0.082
13.670,-0.111
13.675,-0.120
13.680,-0.126
13.685,-0.157
13.690,-0.172
13.695,-0.166
13.700,-0.174
13.705,-0.178
13.710,-0.170
13.715,-0.163
13.720,-0.163
13.725,-0.157
13.730,-0.139
13.735,-0.119
13.740,-0.088
13.745,-0.047
13.750,0.000
13.755,0.037
13.760,0.063
13.765,0.099
13.770,0.127
13.775,0.149
13.780,0.180
13.785,0.192
13.790,0.204
13.795,0.231
13.800,0.230
13.805,0.215
13.810,0.224
13.815,0.236
13.820,0.229
13.825,0.218
13.830,0.207
13.835,0.189
13.840,0.176
13.845,0.170
13.850,0.160
13.855,0.145
13.860,0.151
13.865,0.152
13.870,0.129
13.875,0.120
13.880,0.118
13.885,0.094
13.890,0.074
13.895,0.079
13.900,0.075
13.905,0.053
13.910,0.047
13.915,0.045
13.920,0.026
13.925,0.013
13.930,0.022
13.935,0.024
13.940,0.013
13.945,0.008
13.950,0.000
13.955,-0.014
13.960,-0.011
13.965,-0.001
13.970,-0.005
13.975,-0.011
13.980,-0.007
13.985,-0.009
13.990,-0.017
13.995,-0.011
14.000,-0.010
14.005,-0.025
14.010,-0.024
14.015,-0.018
14.020,-0.023
14.025,-0.015
14.030,-0.004
14.035,-0.012
14.040,-0.025
14.045,-0.021
14.050,-0.013
14.055,-0.023
14.060,-0.022
14.065,-0.020
14.070,-0.032
14.075,-0.031
14.080,-0.023
14.085,-0.026
14.090,-0.032
14.095,-0.028
14.100,-0.023
14.105,-0.029
14.110,-0.027
14.115,-0.033
14.120,-0.052
14.125,-0.048
14.130,-0.033
14.135,-0.034
14.140,-0.044
14.145,-0.040
14.150,-0.038
14.155,-0.047
14.160,-0.036
14.165,-0.029
14.170,-0.044
14.175,-0.040
14.180,-0.033
14.185,-0.044
14.190,-0.041
14.195,-0.032
14.200,-0.045
14.205,-0.057
14.210,-0.044
14.215,-0.037
14.220,-0.048
14.225,-0.043
14.230,-0.035
14.235,-0.045
14.240,-0.050
14.245,-0.037
14.250,-0.038
14.255,-0.050
14.260,-0.045
14.265,-0.040
14.270,-0.040
14.275,-0.037
14.280,-0.036
14.285,-0.041
14.290,-0.044
14.295,-0.040
14.300,-0.036
14.305,-0.040
14.310,-0.030
14.315,-0.024
14.320,-0.039
14.325,-0.042
14.330,-0.034
14.335,-0.030
14.340,-0.033
14.345,-0.034
14.350,-0.028
14.355,-0.030
14.360,-0.026
14.365,-0.016
14.370,-0.028
14.375,-0.041
14.380,-0.031
14.385,-0.029
14.390,-0.031
14.395,-0.019
14.400,-0.022
14.405,-0.033
14.410,-0.028
14.415,-0.024
14.420,-0.033
14.425,-0.032
14.430,-0.021
14.435,-0.032
14.440,-0.050
14.445,-0.043
14.450,-0.042
14.455,-0.047
14.460,-0.039
14.465,-0.049
14.470,-0.068
14.475,-0.051
14.480,-0.016
14.485,-0.002
14.490,0.001
14.495,0.013
14.500,0.011
14.505,-0.021
14.510,-0.020
14.515,0.013
14.520,0.019
14.525,0.022
14.530,0.042
14.535,0.040
14.540,0.028
14.545,0.036
14.550,0.037
14.555,0.023
14.560,0.029
14.565,0.040
14.570,0.032
14.575,0.028
14.580,0.026
14.585,0.017
14.590,0.013
14.595,0.018
14.600,0.019
14.605,0.012
14.610,0.011
14.615,0.010
14.620,0.003
14.625,0.007
14.630,0.017
14.635,0.004
14.640,-0.010
14.645,0.004
14.650,0.006
14.655,-0.007
14.660,-0.003
14.665,0.000
14.670,-0.010
14.675,-0.036
14.680,-0.104
14.685,-0.235
14.690,-0.424
14.695,-0.664
14.700,-0.919
14.705,-0.968
14.710,-0.671
14.715,-0.339
14.720,-0.129
14.725,0.081
14.730,0.225
14.735,0.282
14.740,0.316
14.745,0.323
14.750,0.308
14.755,0.279
14.760,0.261
14.765,0.247
14.770,0.214
14.775,0.192
14.780,0.186
14.785,0.174
14.790,0.164
14.795,0.165
14.800,0.163
14.805,0.150
14.810,0.142
14.815,0.136
14.820,0.121
14.825,0.114
14.830,0.115
14.835,0.099
14.840,0.080
14.845,0.083
14.850,0.078
14.855,0.056
14.860,0.050
14.865,0.051
14.870,0.038
14.875,0.029
14.880,0.032
14.885,0.028
14.890,0.014
14.895,0.007
14.900,0.000
14.905,-0.014
14.910,-0.013
14.915,-0.024
14.920,-0.058
14.925,-0.078
14.930,-0.077
14.935,-0.092
14.940,-0.119
14.945,-0.122
14.950,-0.133
14.955,-0.164
14.960,-0.170
14.965,-0.167
14.970,-0.180
14.975,-0.174
14.980,-0.163
14.985,-0.172
14.990,-0.165
14.995,-0.136
15.000,-0.114
15.005,-0.100
15.010,-0.062
15.015,-0.017
15.020,0.009
15.025,0.049
15.030,0.098
15.035,0.127
15.040,0.151
15.045,0.185
15.050,0.209
15.055,0.210
15.060,0.219
15.065,0.232
15.070,0.229
15.075,0.229
15.080,0.235
15.085,0.229
15.090,0.219
15.095,0.219
15.100,0.206
15.105,0.184
15.110,0.185
15.115,0.178
15.120,0.153
15.125,0.146
15.130,0.144
15.135,0.124
15.140,0.102
15.145,0.106
15.150,0.109
15.155,0.091
15.160,0.086
15.165,0.077
15.170,0.054
15.175,0.059
15.180,0.069
15.185,0.054
15.190,0.033
15.195,0.024
15.200,0.019
15.205,0.016
15.210,0.021
15.215,0.018
15.220,0.007
15.225,0.015
15.230,0.023
15.235,0.005
15.240,-0.007
15.245,0.002
15.250,0.001
15.255,-0.014
15.260,-0.012
15.265,-0.002
15.270,-0.005
15.275,-0.006
15.280,-0.005
15.285,-0.017
15.290,-0.022
15.295,-0.004
15.300,-0.010
15.305,-0.032
15.310,-0.015
15.315,0.005
15.320,-0.010
15.325,-0.017
15.330,-0.014
15.335,-0.029
15.340,-0.034
15.345,-0.012
15.350,-0.013
15.355,-0.036
15.360,-0.033
15.365,-0.030
15.370,-0.041
15.375,-0.037
15.380,-0.029
15.385,-0.037
15.390,-0.048
15.395,-0.039
15.400,-0.038
15.405,-0.054
15.410,-0.043
15.415,-0.029
15.420,-0.042
15.425,-0.043
15.430,-0.030
15.435,-0.038
15.440,-0.051
15.445,-0.045
15.450,-0.047
15.455,-0.055
15.460,-0.039
15.465,-0.028
15.470,-0.044
15.475,-0.047
15.480,-0.035
15.485,-0.043
15.490,-0.054
15.495,-0.041
15.500,-0.032
15.505,-0.039
15.510,-0.034
15.515,-0.036
15.520,-0.058
15.525,-0.061
15.530,-0.050
15.535,-0.053
15.540,-0.041
15.545,-0.015
15.550,-0.018
15.555,-0.041
15.560,-0.050
15.565,-0.040
15.570,-0.029
15.575,-0.027
15.580,-0.030
15.585,-0.036
15.590,-0.045
15.595,-0.035
15.600,-0.021
15.605,-0.025
15.610,-0.025
15.615,-0.022
15.620,-0.038
15.625,-0.042
15.630,-0.027
15.635,-0.036
15.640,-0.045
15.645,-0.028
15.650,-0.030
15.655,-0.034
15.660,-0.018
15.665,-0.019
15.670,-0.036
15.675,-0.035
15.680,-0.028
15.685,-0.039
15.690,-0.049
15.695,-0.036
15.700,-0.032
15.705,-0.057
15.710,-0.062
15.715,-0.055
15.720,-0.071
15.725,-0.057
15.730,-0.028
15.735,-0.025
15.740,-0.023
15.745,-0.010
15.750,-0.001
15.755,-0.010
15.760,-0.014
15.765,-0.003
15.770,0.000
15.775,0.007
15.780,0.022
15.785,0.027
15.790,0.034
15.795,0.047
15.800,0.036
15.805,0.019
15.810,0.033
15.815,0.031
15.820,0.004
15.825,0.003
15.830,0.015
15.835,0.014
15.840,0.021
15.845,0.036
15.850,0.022
15.855,0.002
15.860,0.001
15.865,-0.006
15.870,-0.005
15.875,0.019
15.880,0.029
15.885,0.000
15.890,-0.029
15.895,-0.010
15.900,0.016
15.905,0.013
15.910,0.009
15.915,0.002
15.920,-0.011
15.925,-0.014
15.930,-0.024
15.935,-0.095
15.940,-0.241
15.945,-0.442
15.950,-0.706
15.955,-0.958
15.960,-0.925
15.965,-0.607
15.970,-0.339
15.975,-0.112
15.980,0.123
15.985,0.228
15.990,0.268
15.995,0.316
16.000,0.321
16.005,0.293
16.010,0.285
16.015,0.270
16.020,0.220
16.025,0.183
16.030,0.185
16.035,0.189
16.040,0.170
16.045,0.146
16.050,0.135
16.055,0.143
16.060,0.151
16.065,0.138
16.070,0.103
16.075,0.086
16.080,0.102
16.085,0.113
16.090,0.103
16.095,0.082
16.100,0.052
16.105,0.052
16.110,0.072
16.115,0.056
16.120,0.037
16.125,0.036
16.130,0.036
16.135,0.034
16.140,0.014
16.145,-0.002
16.150,-0.012
16.155,-0.021
16.160,-0.016
16.165,-0.034
16.170,-0.069
16.175,-0.076
16.180,-0.074
16.185,-0.086
16.190,-0.104
16.195,-0.126
16.200,-0.151
16.205,-0.166
16.210,-0.169
16.215,-0.169
16.220,-0.169
16.225,-0.171
16.230,-0.171
16.235,-0.176
16.240,-0.173
16.245,-0.143
16.250,-0.130
16.255,-0.125
16.260,-0.076
16.265,-0.022
16.270,0.008
16.275,0.037
16.280,0.065
16.285,0.098
16.290,0.133
16.295,0.173
16.300,0.207
16.305,0.215
16.310,0.221
16.315,0.230
16.320,0.230
16.325,0.236
16.330,0.236
16.335,0.220
16.340,0.206
16.345,0.208
16.350,0.210
16.355,0.194
16.360,0.189
16.365,0.188
16.370,0.169
16.375,0.158
16.380,0.152
16.385,0.142
16.390,0.127
16.395,0.115
16.400,0.111
16.405,0.095
16.410,0.082
16.415,0.076
16.420,0.060
16.425,0.052
16.430,0.049
16.435,0.037
16.440,0.033
16.445,0.038
16.450,0.031
16.455,0.015
16.460,0.014
16.465,0.013
16.470,-0.009
16.475,-0.019
16.480,0.002
16.485,0.008
16.490,-0.011
16.495,-0.013
16.500,-0.007
16.505,-0.015
16.510,-0.015
16.515,-0.006
16.520,-0.012
16.525,-0.019
16.530,-0.010
16.535,-0.011
16.540,-0.020
16.545,-0.009
16.550,-0.003
16.555,-0.021
16.560,-0.026
16.565,-0.022
16.570,-0.036
16.575,-0.037
16.580,-0.020
16.585,-0.021
16.590,-0.035
16.595,-0.029
16.600,-0.029
16.605,-0.043
16.610,-0.036
16.615,-0.024
16.620,-0.032
16.625,-0.037
16.630,-0.028
16.635,-0.033
16.640,-0.051
16.645,-0.045
16.650,-0.044
16.655,-0.056
16.660,-0.047
16.665,-0.034
16.670,-0.039
16.675,-0.048
16.680,-0.043
16.685,-0.049
16.690,-0.060
16.695,-0.048
16.700,-0.040
16.705,-0.045
16.710,-0.041
16.715,-0.045
16.720,-0.057
16.725,-0.048
16.730,-0.040
16.735,-0.052
16.740,-0.059
16.745,-0.045
16.750,-0.037
16.755,-0.048
16.760,-0.052
16.765,-0.042
16.770,-0.039
16.775,-0.040
16.780,-0.044
16.785,-0.053
16.790,-0.051
16.795,-0.039
16.800,-0.036
16.805,-0.042
16.810,-0.040
16.815,-0.035
16.820,-0.044
16.825,-0.047
16.830,-0.035
16.835,-0.032
16.840,-0.038
16.845,-0.035
16.850,-0.036
16.855,-0.046
16.860,-0.037
16.865,-0.023
16.870,-0.030
16.875,-0.029
16.880,-0.018
16.885,-0.025
16.890,-0.033
16.895,-0.023
16.900,-0.024
16.905,-0.035
16.910,-0.030
16.915,-0.019
16.920,-0.023
16.925,-0.028
16.930,-0.023
16.935,-0.029
16.940,-0.037
16.945,-0.026
16.950,-0.024
16.955,-0.034
16.960,-0.036
16.965,-0.040
16.970,-0.049
16.975,-0.049
16.980,-0.043
16.985,-0.048
16.990,-0.059
16.995,-0.047
17.000,-0.030
17.005,-0.025
17.010,-0.003
17.015,0.016
17.020,0.007
17.025,0.002
17.030,0.004
17.035,0.002
17.040,0.004
17.045,0.014
17.050,0.031
17.055,0.038
17.060,0.041
17.065,0.043
17.070,0.028
17.075,0.022
17.080,0.038
17.085,0.039
17.090,0.021
17.095,0.023
17.100,0.033
17.105,0.027
17.110,0.020
17.115,0.019
17.120,0.015
17.125,0.015
17.130,0.021
17.135,0.012
17.140,0.001
17.145,0.010
17.150,0.012
17.155,0.002
17.160,0.006
17.165,0.009
17.170,0.003
17.175,0.003
17.180,0.004
17.185,-0.003
17.190,-0.001
17.195,-0.013
17.200,-0.071
17.205,-0.167
17.210,-0.310
17.215,-0.531
17.220,-0.815
17.225,-0.993
17.230,-0.824
17.235,-0.467
17.240,-0.222
17.245,0.000
17.250,0.185
17.255,0.257
17.260,0.309
17.265,0.336
17.270,0.311
17.275,0.282
17.280,0.276
17.285,0.257
17.290,0.224
17.295,0.208
17.300,0.198
17.305,0.186
17.310,0.179
17.315,0.174
17.320,0.161
17.325,0.149
17.330,0.144
17.335,0.131
17.340,0.120
17.345,0.124
17.350,0.114
17.355,0.098
17.360,0.100
17.365,0.098
17.370,0.076
17.375,0.067
17.380,0.071
17.385,0.062
17.390,0.049
17.395,0.046
17.400,0.038
17.405,0.019
17.410,0.011
17.415,0.011
17.420,-0.003
17.425,-0.012
17.430,-0.011
17.435,-0.028
17.440,-0.049
17.445,-0.054
17.450,-0.065
17.455,-0.085
17.460,-0.097
17.465,-0.110
17.470,-0.135
17.475,-0.150
17.480,-0.157
17.485,-0.177
17.490,-0.183
17.495,-0.170
17.500,-0.169
17.505,-0.175
17.510,-0.167
17.515,-0.149
17.520,-0.139
17.525,-0.116
17.530,-0.076
17.535,-0.046
17.540,-0.013
17.545,0.037
17.550,0.079
17.555,0.109
17.560,0.151
17.565,0.183
17.570,0.194
17.575,0.207
17.580,0.229
17.585,0.235
17.590,0.233
17.595,0.240
17.600,0.230
17.605,0.216
17.610,0.217
17.615,0.213
17.620,0.202
17.625,0.194
17.630,0.187
17.635,0.173
17.640,0.161
17.645,0.160
17.650,0.151
17.655,0.129
17.660,0.119
17.665,0.112
17.670,0.094
17.675,0.087
17.680,0.090
17.685,0.075
17.690,0.055
17.695,0.056
17.700,0.051
17.705,0.036
17.710,0.032
17.715,0.027
17.720,0.020
17.725,0.020
17.730,0.019
17.735,0.010
17.740,0.003
17.745,0.009
17.750,0.013
17.755,0.007
17.760,0.005
17.765,0.005
17.770,-0.017
17.775,-0.023
17.780,0.002
17.785,0.012
17.790,0.000
17.795,-0.006
17.800,-0.008
17.805,-0.021
17.810,-0.028
17.815,-0.022
17.820,-0.016
17.825,-0.008
17.830,-0.004
17.835,-0.011
17.840,-0.016
17.845,-0.005
17.850,-0.006
17.855,-0.024
17.860,-0.028
17.865,-0.026
17.870,-0.034
17.875,-0.036
17.880,-0.031
17.885,-0.035
17.890,-0.039
17.895,-0.027
17.900,-0.024
17.905,-0.037
17.910,-0.036
17.915,-0.031
17.920,-0.040
17.925,-0.036
17.930,-0.022
17.935,-0.033
17.940,-0.047
17.945,-0.033
17.950,-0.027
17.955,-0.044
17.960,-0.050
17.965,-0.054
17.970,-0.063
17.975,-0.040
17.980,-0.014
17.985,-0.029
17.990,-0.046
17.995,-0.043
18.000,-0.038
18.005,-0.043
18.010,-0.038
18.015,-0.032
18.020,-0.049
18.025,-0.048
18.030,-0.032
18.035,-0.046
18.040,-0.052
18.045,-0.036
18.050,-0.047
18.055,-0.064
18.060,-0.044
18.065,-0.023
18.070,-0.026
18.075,-0.030
18.080,-0.033
18.085,-0.041
18.090,-0.036
18.095,-0.026
18.100,-0.040
18.105,-0.042
18.110,-0.027
18.115,-0.029
18.120,-0.039
18.125,-0.036
18.130,-0.025
18.135,-0.035
18.140,-0.046
18.145,-0.024
18.150,-0.004
18.155,-0.020
18.160,-0.034
18.165,-0.033
18.170,-0.045
18.175,-0.045
18.180,-0.022
18.185,-0.009
18.190,-0.006
18.195,-0.010
18.200,-0.028
18.205,-0.043
18.210,-0.031
18.215,-0.027
18.220,-0.043
18.225,-0.047
18.230,-0.041
18.235,-0.037
18.240,-0.036
18.245,-0.038
18.250,-0.046
18.255,-0.072
18.260,-0.080
18.265,-0.031
18.270,0.012
18.275,0.006
18.280,0.000
18.285,-0.006
18.290,-0.024
18.295,-0.021
18.300,-0.011
18.305,-0.005
18.310,0.021
18.315,0.039
18.320,0.020
18.325,0.023
18.330,0.044
18.335,0.026
18.340,0.009
18.345,0.032
18.350,0.036
18.355,0.012
18.360,0.016
18.365,0.029
18.370,0.018
18.375,0.017
18.380,0.015
18.385,0.001
18.390,0.009
18.395,0.020
18.400,0.007
18.405,-0.008
18.410,0.005
18.415,0.023
18.420,0.005
18.425,-0.011
18.430,-0.004
18.435,-0.009
18.440,-0.002
18.445,0.026
18.450,0.009
18.455,-0.027
18.460,-0.020
18.465,-0.022
18.470,-0.103
18.475,-0.240
18.480,-0.439
18.485,-0.714
18.490,-0.945
18.495,-0.898
18.500,-0.586
18.505,-0.321
18.510,-0.115
18.515,0.101
18.520,0.221
18.525,0.274
18.530,0.310
18.535,0.306
18.540,0.279
18.545,0.271
18.550,0.262
18.555,0.224
18.560,0.189
18.565,0.174
18.570,0.164
18.575,0.166
18.580,0.172
18.585,0.149
18.590,0.118
18.595,0.123
18.600,0.134
18.605,0.121
18.610,0.114
18.615,0.101
18.620,0.071
18.625,0.074
18.630,0.097
18.635,0.094
18.640,0.079
18.645,0.070
18.650,0.054
18.655,0.027
18.660,0.023
18.665,0.035
18.670,0.012
18.675,-0.006
18.680,0.010
18.685,0.000
18.690,-0.025
18.695,-0.026
18.700,-0.028
18.705,-0.037
18.710,-0.041
18.715,-0.065
18.720,-0.103
18.725,-0.124
18.730,-0.134
18.735,-0.145
18.740,-0.142
18.745,-0.139
18.750,-0.165
18.755,-0.188
18.760,-0.179
18.765,-0.171
18.770,-0.180
18.775,-0.179
18.780,-0.159
18.785,-0.147
18.790,-0.133
18.795,-0.088
18.800,-0.046
18.805,-0.013
18.810,0.044
18.815,0.093
18.820,0.103
18.825,0.119
18.830,0.160
18.835,0.185
18.840,0.200
18.845,0.224
18.850,0.229
18.855,0.224
18.860,0.244
18.865,0.253
18.870,0.225
18.875,0.209
18.880,0.220
18.885,0.206
18.890,0.189
18.895,0.199
18.900,0.182
18.905,0.147
18.910,0.157
18.915,0.169
18.920,0.140
18.925,0.122
18.930,0.128
18.935,0.109
18.940,0.079
18.945,0.081
18.950,0.084
18.955,0.065
18.960,0.059
18.965,0.055
18.970,0.029
18.975,0.019
18.980,0.037
18.985,0.028
18.990,-0.005
18.995,-0.010
19.000,0.003
19.005,-0.005
19.010,-0.013
19.015,-0.005
19.020,-0.013
19.025,-0.020
19.030,0.000
19.035,0.004
19.040,-0.015
19.045,-0.022
19.050,-0.029
19.055,-0.035
19.060,-0.023
19.065,-0.010
19.070,-0.017
19.075,-0.024
19.080,-0.017
19.085,-0.019
19.090,-0.026
19.095,-0.017
19.100,-0.012
19.105,-0.031
19.110,-0.035
19.115,-0.020
19.120,-0.030
19.125,-0.042
19.130,-0.031
19.135,-0.033
19.140,-0.041
19.145,-0.031
19.150,-0.027
19.155,-0.033
19.160,-0.032
19.165,-0.031
19.170,-0.038
19.175,-0.042
19.180,-0.031
19.185,-0.031
19.190,-0.046
19.195,-0.039
19.200,-0.026
19.205,-0.040
19.210,-0.055
19.215,-0.049
19.220,-0.045
19.225,-0.049
19.230,-0.049
19.235,-0.051
19.240,-0.050
19.245,-0.040
19.250,-0.038
19.255,-0.042
19.260,-0.034
19.265,-0.030
19.270,-0.039
19.275,-0.038
19.280,-0.031
19.285,-0.042
19.290,-0.052
19.295,-0.039
19.300,-0.033
19.305,-0.051
19.310,-0.048
19.315,-0.027
19.320,-0.032
19.325,-0.044
19.330,-0.037
19.335,-0.041
19.340,-0.053
19.345,-0.038
19.350,-0.028
19.355,-0.038
19.360,-0.030
19.365,-0.020
19.370,-0.032
19.375,-0.037
19.380,-0.029
19.385,-0.029
19.390,-0.038
19.395,-0.031
19.400,-0.024
19.405,-0.036
19.410,-0.033
19.415,-0.016
19.420,-0.027
19.425,-0.033
19.430,-0.014
19.435,-0.019
19.440,-0.031
19.445,-0.016
19.450,-0.007
19.455,-0.027
19.460,-0.032
19.465,-0.020
19.470,-0.034
19.475,-0.038
19.480,-0.022
19.485,-0.033
19.490,-0.043
19.495,-0.031
19.500,-0.035
19.505,-0.051
19.510,-0.053
19.515,-0.045
19.520,-0.038
19.525,-0.031
19.530,-0.021
19.535,-0.031
19.540,-0.043
19.545,-0.021
19.550,0.000
19.555,-0.006
19.560,-0.001
19.565,0.014
19.570,-0.002
19.575,-0.023
19.580,-0.008
19.585,0.017
19.590,0.032
19.595,0.048
19.600,0.053
19.605,0.046
19.610,0.039
19.615,0.037
19.620,0.031
19.625,0.029
19.630,0.040
19.635,0.037
19.640,0.029
19.645,0.037
19.650,0.036
19.655,0.020
19.660,0.026
19.665,0.033
19.670,0.010
19.675,0.007
19.680,0.030
19.685,0.023
19.690,0.005
19.695,0.009
19.700,0.013
19.705,0.002
19.710,0.001
19.715,0.008
19.720,0.003
19.725,0.003
19.730,0.007
19.735,-0.006
19.740,-0.032
19.745,-0.066
19.750,-0.140
19.755,-0.290
19.760,-0.501
19.765,-0.753
19.770,-0.974
19.775,-0.887
19.780,-0.514
19.785,-0.238
19.790,-0.047
19.795,0.155
19.800,0.250
19.805,0.279
19.810,0.315
19.815,0.323
19.820,0.292
19.825,0.271
19.830,0.263
19.835,0.229
19.840,0.200
19.845,0.195
19.850,0.182
19.855,0.163
19.860,0.159
19.865,0.162
19.870,0.144
19.875,0.132
19.880,0.139
19.885,0.120
19.890,0.101
19.895,0.111
19.900,0.100
19.905,0.070
19.910,0.067
19.915,0.084
19.920,0.075
19.925,0.057
19.930,0.062
19.935,0.055
19.940,0.035
19.945,0.038
19.950,0.035
19.955,0.008
19.960,0.002
19.965,0.009
19.970,-0.014
19.975,-0.034
19.980,-0.031
19.985,-0.051
19.990,-0.077
19.995,-0.078
20.000,-0.093
20.005,-0.119
20.010,-0.125
20.015,-0.133
20.020,-0.159
20.025,-0.176
20.030,-0.170
20.035,-0.176
20.040,-0.190
20.045,-0.185
20.050,-0.165
20.055,-0.155
20.060,-0.153
20.065,-0.137
20.070,-0.118
20.075,-0.090
20.080,-0.040
20.085,0.004
20.090,0.030
20.095,0.061
20.100,0.095
20.105,0.127
20.110,0.177
20.115,0.222
20.120,0.225
20.125,0.229
20.130,0.245
20.135,0.239
20.140,0.227
20.145,0.237
20.150,0.241
20.155,0.217
20.160,0.210
20.165,0.215
20.170,0.194
20.175,0.175
20.180,0.183
20.185,0.183
20.190,0.166
20.195,0.169
20.200,0.161
20.205,0.129
20.210,0.117
20.215,0.117
20.220,0.104
20.225,0.091
20.230,0.094
20.235,0.091
20.240,0.073
20.245,0.062
20.250,0.054
20.255,0.038
20.260,0.040
20.265,0.051
20.270,0.034
20.275,0.026
20.280,0.036
20.285,0.015
20.290,-0.006
20.295,0.002
20.300,0.005
20.305,-0.004
20.310,-0.002
20.315,0.005
20.320,-0.010
20.325,-0.017
20.330,0.004
20.335,0.012
20.340,0.000
20.345,-0.002
20.350,-0.011
20.355,-0.030
20.360,-0.014
20.365,0.007
20.370,-0.012
20.375,-0.030
20.380,-0.021
20.385,-0.018
20.390,-0.028
20.395,-0.027
20.400,-0.029
20.405,-0.041
20.410,-0.035
20.415,-0.023
20.420,-0.030
20.425,-0.039
20.430,-0.029
20.435,-0.018
20.440,-0.028
20.445,-0.031
20.450,-0.024
20.455,-0.041
20.460,-0.057
20.465,-0.049
20.470,-0.045
20.475,-0.051
20.480,-0.039
20.485,-0.025
20.490,-0.038
20.495,-0.042
20.500,-0.034
20.505,-0.054
20.510,-0.064
20.515,-0.042
20.520,-0.038
20.525,-0.046
20.530,-0.047
20.535,-0.060
20.540,-0.064
20.545,-0.038
20.550,-0.030
20.555,-0.048
20.560,-0.047
20.565,-0.039
20.570,-0.051
20.575,-0.064
20.580,-0.053
20.585,-0.040
20.590,-0.043
20.595,-0.043
20.600,-0.047
20.605,-0.061
20.610,-0.046
20.615,-0.026
20.620,-0.045
20.625,-0.051
20.630,-0.033
20.635,-0.045
20.640,-0.050
20.645,-0.031
20.650,-0.038
20.655,-0.053
20.660,-0.040
20.665,-0.021
20.670,-0.022
20.675,-0.038
20.680,-0.048
20.685,-0.036
20.690,-0.024
20.695,-0.026
20.700,-0.032
20.705,-0.036
20.710,-0.032
20.715,-0.033
20.720,-0.058
20.725,-0.065
20.730,-0.034
20.735,-0.015
20.740,-0.032
20.745,-0.042
20.750,-0.044
20.755,-0.063
20.760,-0.060
20.765,-0.044
20.770,-0.061
20.775,-0.081
20.780,-0.057
20.785,-0.020
20.790,-0.021
20.795,-0.020
20.800,-0.006
20.805,-0.014
20.810,-0.015
20.815,-0.020
20.820,-0.033
20.825,-0.017
20.830,0.016
20.835,0.025
20.840,0.018
20.845,0.024
20.850,0.028
20.855,0.015
20.860,0.020
20.865,0.039
20.870,0.031
20.875,0.011
20.880,0.014
20.885,0.016
20.890,0.007
20.895,0.015
20.900,0.017
20.905,-0.007
20.910,-0.003
20.915,0.023
20.920,0.020
20.925,0.007
20.930,0.017
20.935,0.012
20.940,-0.010
20.945,0.006
20.950,0.029
20.955,0.007
20.960,-0.001
20.965,0.013
20.970,-0.006
20.975,-0.020
20.980,-0.010
20.985,-0.019
20.990,-0.055
20.995,-0.143
21.000,-0.326
21.005,-0.585
21.010,-0.848
21.015,-0.975
21.020,-0.793
21.025,-0.456
21.030,-0.218
21.035,-0.001
21.040,0.180
21.045,0.266
21.050,0.313
21.055,0.304
21.060,0.282
21.065,0.290
21.070,0.272
21.075,0.231
21.080,0.210
21.085,0.189
21.090,0.175
21.095,0.180
21.100,0.174
21.105,0.144
21.110,0.132
21.115,0.140
21.120,0.122
21.125,0.107
21.130,0.119
21.135,0.119
21.140,0.101
21.145,0.092
21.150,0.088
21.155,0.076
21.160,0.072
21.165,0.076
21.170,0.058
21.175,0.042
21.180,0.046
21.185,0.041
21.190,0.022
21.195,0.009
21.200,0.000
21.205,-0.015
21.210,-0.019
21.215,-0.020
21.220,-0.043
21.225,-0.056
21.230,-0.052
21.235,-0.070
21.240,-0.094
21.245,-0.104
21.250,-0.118
21.255,-0.145
21.260,-0.153
21.265,-0.145
21.270,-0.164
21.275,-0.181
21.280,-0.171
21.285,-0.170
21.290,-0.178
21.295,-0.169
21.300,-0.158
21.305,-0.155
21.310,-0.131
21.315,-0.094
21.320,-0.073
21.325,-0.035
21.330,0.014
21.335,0.043
21.340,0.077
21.345,0.125
21.350,0.158
21.355,0.173
21.360,0.198
21.365,0.225
21.370,0.228
21.375,0.223
21.380,0.236
21.385,0.234
21.390,0.217
21.395,0.228
21.400,0.236
21.405,0.208
21.410,0.197
21.415,0.207
21.420,0.188
21.425,0.169
21.430,0.169
21.435,0.155
21.440,0.136
21.445,0.141
21.450,0.137
21.455,0.114
21.460,0.108
21.465,0.101
21.470,0.079
21.475,0.069
21.480,0.073
21.485,0.063
21.490,0.041
21.495,0.041
21.500,0.043
21.505,0.021
21.510,0.011
21.515,0.022
21.520,0.020
21.525,0.011
21.530,0.014
21.535,0.008
21.540,-0.005
21.545,-0.003
21.550,-0.005
21.555,-0.017
21.560,-0.012
21.565,0.001
21.570,0.000
21.575,-0.007
21.580,-0.004
21.585,-0.009
21.590,-0.018
21.595,-0.009
21.600,-0.004
21.605,-0.015
21.610,-0.013
21.615,-0.008
21.620,-0.022
21.625,-0.036
21.630,-0.026
21.635,-0.015
21.640,-0.013
21.645,-0.002
21.650,-0.007
21.655,-0.028
21.660,-0.030
21.665,-0.023
21.670,-0.029
21.675,-0.031
21.680,-0.021
21.685,-0.018
21.690,-0.033
21.695,-0.034
21.700,-0.024
21.705,-0.041
21.710,-0.043
21.715,-0.025
21.720,-0.027
21.725,-0.035
21.730,-0.031
21.735,-0.033
21.740,-0.045
21.745,-0.042
21.750,-0.038
21.755,-0.044
21.760,-0.041
21.765,-0.032
21.770,-0.033
21.775,-0.032
21.780,-0.030
21.785,-0.041
21.790,-0.051
21.795,-0.045
21.800,-0.037
21.805,-0.045
21.810,-0.045
21.815,-0.028
21.820,-0.037
21.825,-0.054
21.830,-0.040
21.835,-0.032
21.840,-0.042
21.845,-0.032
21.850,-0.029
21.855,-0.042
21.860,-0.040
21.865,-0.032
21.870,-0.042
21.875,-0.050
21.880,-0.034
21.885,-0.025
21.890,-0.039
21.895,-0.034
21.900,-0.022
21.905,-0.031
21.910,-0.032
21.915,-0.028
21.920,-0.041
21.925,-0.046
21.930,-0.034
21.935,-0.034
21.940,-0.042
21.945,-0.028
21.950,-0.010
21.955,-0.024
21.960,-0.033
21.965,-0.022
21.970,-0.027
21.975,-0.034
21.980,-0.023
21.985,-0.024
21.990,-0.035
21.995,-0.020
22.000,-0.012
22.005,-0.033
22.010,-0.035
22.015,-0.024
22.020,-0.031
22.025,-0.042
22.030,-0.041
22.035,-0.040
22.040,-0.051
22.045,-0.045
22.050,-0.040
22.055,-0.063
22.060,-0.058
22.065,-0.028
22.070,-0.032
22.075,-0.041
22.080,-0.026
22.085,-0.026
22.090,-0.038
22.095,-0.019
22.100,0.003
22.105,0.000
22.110,-0.003
22.115,-0.003
22.120,-0.013
22.125,-0.013
22.130,0.016
22.135,0.042
22.140,0.037
22.145,0.036
22.150,0.045
22.155,0.036
22.160,0.034
22.165,0.046
22.170,0.037
22.175,0.022
22.180,0.030
22.185,0.037
22.190,0.023
22.195,0.026
22.200,0.036
22.205,0.023
22.210,0.022
22.215,0.030
22.220,0.016
22.225,0.005
22.230,0.010
22.235,0.012
22.240,0.003
22.245,0.006
22.250,0.015
22.255,0.005
22.260,-0.001
22.265,-0.002
22.270,-0.016
22.275,-0.022
22.280,-0.015
22.285,-0.034
22.290,-0.101
22.295,-0.208
22.300,-0.379
22.305,-0.634
22.310,-0.892
22.315,-0.969
22.320,-0.729
22.325,-0.373
22.330,-0.128
22.335,0.071
22.340,0.203
22.345,0.260
22.350,0.312
22.355,0.316
22.360,0.300
22.365,0.297
22.370,0.264
22.375,0.223
22.380,0.213
22.385,0.206
22.390,0.186
22.395,0.174
22.400,0.164
22.405,0.149
22.410,0.152
22.415,0.162
22.420,0.144
22.425,0.118
22.430,0.119
22.435,0.123
22.440,0.114
22.445,0.111
22.450,0.102
22.455,0.083
22.460,0.071
22.465,0.060
22.470,0.047
22.475,0.049
22.480,0.059
22.485,0.050
22.490,0.027
22.495,0.022
22.500,0.019
22.505,-0.001
22.510,-0.004
22.515,0.004
22.520,-0.028
22.525,-0.067
22.530,-0.057
22.535,-0.045
22.540,-0.068
22.545,-0.090
22.550,-0.112
22.555,-0.150
22.560,-0.161
22.565,-0.142
22.570,-0.141
22.575,-0.156
22.580,-0.166
22.585,-0.177
22.590,-0.183
22.595,-0.169
22.600,-0.155
22.605,-0.147
22.610,-0.118
22.615,-0.088
22.620,-0.068
22.625,-0.032
22.630,0.009
22.635,0.044
22.640,0.082
22.645,0.130
22.650,0.171
22.655,0.183
22.660,0.203
22.665,0.234
22.670,0.232
22.675,0.225
22.680,0.244
22.685,0.245
22.690,0.227
22.695,0.230
22.700,0.224
22.705,0.202
22.710,0.204
22.715,0.207
22.720,0.186
22.725,0.174
22.730,0.177
22.735,0.165
22.740,0.129
22.745,0.119
22.750,0.136
22.755,0.132
22.760,0.125
22.765,0.117
22.770,0.079
22.775,0.049
22.780,0.065
22.785,0.072
22.790,0.054
22.795,0.051
22.800,0.055
22.805,0.036
22.810,0.017
22.815,0.019
22.820,0.017
22.825,0.008
22.830,0.010
22.835,0.008
22.840,0.006
22.845,0.020
22.850,0.020
22.855,-0.002
22.860,-0.015
22.865,-0.009
22.870,-0.004
22.875,-0.006
22.880,-0.012
22.885,-0.014
22.890,-0.011
22.895,-0.015
22.900,-0.016
22.905,-0.026
22.910,-0.027
22.915,-0.010
22.920,-0.016
22.925,-0.025
22.930,-0.022
22.935,-0.034
22.940,-0.051
22.945,-0.040
22.950,-0.015
22.955,-0.016
22.960,-0.014
22.965,-0.010
22.970,-0.041
22.975,-0.060
22.980,-0.038
22.985,-0.023
22.990,-0.035
22.995,-0.042
23.000,-0.045
23.005,-0.055
23.010,-0.039
23.015,-0.017
23.020,-0.032
23.025,-0.061
23.030,-0.059
23.035,-0.043
23.040,-0.043
23.045,-0.046
23.050,-0.052
23.055,-0.069
23.060,-0.058
23.065,-0.031
23.070,-0.037
23.075,-0.056
23.080,-0.048
23.085,-0.032
23.090,-0.042
23.095,-0.057
23.100,-0.052
23.105,-0.051
23.110,-0.044
23.115,-0.040
23.120,-0.060
23.125,-0.058
23.130,-0.035
23.135,-0.043
23.140,-0.053
23.145,-0.036
23.150,-0.030
23.155,-0.047
23.160,-0.049
23.165,-0.032
23.170,-0.032
23.175,-0.041
23.180,-0.035
23.185,-0.033
23.190,-0.052
23.195,-0.053
23.200,-0.025
23.205,-0.028
23.210,-0.043
23.215,-0.028
23.220,-0.030
23.225,-0.046
23.230,-0.043
23.235,-0.036
23.240,-0.037
23.245,-0.026
23.250,-0.024
23.255,-0.043
23.260,-0.037
23.265,-0.019
23.270,-0.036
23.275,-0.052
23.280,-0.042
23.285,-0.032
23.290,-0.034
23.295,-0.035
23.300,-0.044
23.305,-0.060
23.310,-0.056
23.315,-0.052
23.320,-0.056
23.325,-0.055
23.330,-0.050
23.335,-0.043
23.340,-0.029
23.345,-0.010
23.350,-0.008
23.355,-0.009
23.360,-0.009
23.365,-0.022
23.370,-0.021
23.375,-0.011
23.380,0.000
23.385,0.023
23.390,0.040
23.395,0.042
23.400,0.037
23.405,0.028
23.410,0.029
23.415,0.026
23.420,0.013
23.425,0.020
23.430,0.030
23.435,0.020
23.440,0.010
23.445,0.014
23.450,0.013
23.455,-0.001
23.460,0.007
23.465,0.031
23.470,0.019
23.475,-0.005
23.480,0.005
23.485,0.013
23.490,-0.004
23.495,-0.001
23.500,0.007
23.505,0.001
23.510,0.007
23.515,0.005
23.520,-0.009
23.525,-0.013
23.530,-0.008
23.535,-0.025
23.540,-0.080
23.545,-0.174
23.550,-0.337
23.555,-0.596
23.560,-0.878
23.565,-0.968
23.570,-0.732
23.575,-0.413
23.580,-0.199
23.585,0.014
23.590,0.178
23.595,0.259
23.600,0.312
23.605,0.305
23.610,0.284
23.615,0.282
23.620,0.258
23.625,0.222
23.630,0.205
23.635,0.186
23.640,0.161
23.645,0.158
23.650,0.160
23.655,0.140
23.660,0.137
23.665,0.144
23.670,0.120
23.675,0.095
23.680,0.113
23.685,0.122
23.690,0.097
23.695,0.089
23.700,0.095
23.705,0.075
23.710,0.053
23.715,0.055
23.720,0.047
23.725,0.032
23.730,0.035
23.735,0.031
23.740,0.015
23.745,0.016
23.750,0.025
23.755,0.005
23.760,-0.019
23.765,-0.023
23.770,-0.034
23.775,-0.056
23.780,-0.064
23.785,-0.072
23.790,-0.097
23.795,-0.107
23.800,-0.111
23.805,-0.142
23.810,-0.162
23.815,-0.159
23.820,-0.168
23.825,-0.178
23.830,-0.174
23.835,-0.179
23.840,-0.183
23.845,-0.160
23.850,-0.143
23.855,-0.150
23.860,-0.135
23.865,-0.093
23.870,-0.059
23.875,-0.030
23.880,0.015
23.885,0.059
23.890,0.084
23.895,0.122
23.900,0.163
23.905,0.178
23.910,0.193
23.915,0.219
23.920,0.229
23.925,0.228
23.930,0.238
23.935,0.237
23.940,0.222
23.945,0.222
23.950,0.215
23.955,0.194
23.960,0.205
23.965,0.219
23.970,0.192
23.975,0.167
23.980,0.168
23.985,0.156
23.990,0.130
23.995,0.126
24.000,0.129
24.005,0.110
24.010,0.098
24.015,0.101
24.020,0.087
24.025,0.073
24.030,0.073
24.035,0.059
24.040,0.036
24.045,0.032
24.050,0.034
24.055,0.023
24.060,0.018
24.065,0.029
24.070,0.024
24.075,0.008
24.080,0.015
24.085,0.014
24.090,-0.008
24.095,-0.006
24.100,0.002
24.105,-0.006
24.110,-0.004
24.115,-0.003
24.120,-0.016
24.125,-0.019
24.130,-0.007
24.135,-0.004
24.140,-0.015
24.145,-0.014
24.150,-0.001
24.155,-0.010
24.160,-0.017
24.165,-0.005
24.170,-0.009
24.175,-0.017
24.180,-0.006
24.185,-0.006
24.190,-0.023
24.195,-0.024
24.200,-0.021
24.205,-0.031
24.210,-0.032
24.215,-0.020
24.220,-0.020
24.225,-0.025
24.230,-0.023
24.235,-0.027
24.240,-0.033
24.245,-0.022
24.250,-0.021
24.255,-0.040
24.260,-0.038
24.265,-0.028
24.270,-0.036
24.275,-0.039
24.280,-0.028
24.285,-0.034
24.290,-0.044
24.295,-0.033
24.300,-0.029
24.305,-0.043
24.310,-0.039
24.315,-0.032
24.320,-0.038
24.325,-0.042
24.330,-0.028
24.335,-0.027
24.340,-0.048
24.345,-0.048
24.350,-0.044
24.355,-0.048
24.360,-0.041
24.365,-0.029
24.370,-0.033
24.375,-0.043
24.380,-0.039
24.385,-0.034
24.390,-0.042
24.395,-0.039
24.400,-0.029
24.405,-0.037
24.410,-0.039
24.415,-0.030
24.420,-0.035
24.425,-0.039
24.430,-0.025
24.435,-0.023
24.440,-0.042
24.445,-0.042
24.450,-0.036
24.455,-0.039
24.460,-0.031
24.465,-0.021
24.470,-0.030
24.475,-0.040
24.480,-0.030
24.485,-0.023
24.490,-0.033
24.495,-0.027
24.500,-0.014
24.505,-0.028
24.510,-0.031
24.515,-0.018
24.520,-0.026
24.525,-0.032
24.530,-0.019
24.535,-0.016
24.540,-0.025
24.545,-0.021
24.550,-0.015
24.555,-0.023
24.560,-0.022
24.565,-0.021
24.570,-0.034
24.575,-0.052
24.580,-0.056
24.585,-0.049
24.590,-0.055
24.595,-0.058
24.600,-0.058
24.605,-0.058
24.610,-0.038
24.615,-0.019
24.620,-0.031
24.625,-0.043
24.630,-0.030
24.635,-0.021
24.640,-0.025
24.645,-0.012
24.650,0.001
24.655,-0.010
24.660,-0.010
24.665,0.003
24.670,0.007
24.675,0.021
24.680,0.049
24.685,0.055
24.690,0.043
24.695,0.047
24.700,0.047
24.705,0.027
24.710,0.025
24.715,0.037
24.720,0.027
24.725,0.014
24.730,0.028
24.735,0.029
24.740,0.014
24.745,0.025
24.750,0.031
24.755,0.013
24.760,0.008
24.765,0.023
24.770,0.021
24.775,0.011
24.780,0.019
24.785,0.015
24.790,0.000
24.795,0.009
24.800,0.017
24.805,0.005
24.810,0.001
24.815,0.002
24.820,-0.012
24.825,-0.035
24.830,-0.059
24.835,-0.138
24.840,-0.307
24.845,-0.531
24.850,-0.784
24.855,-0.957
24.860,-0.797
24.865,-0.423
24.870,-0.195
24.875,-0.021
24.880,0.172
24.885,0.264
24.890,0.305
24.895,0.333
24.900,0.312
24.905,0.271
24.910,0.257
24.915,0.250
24.920,0.224
24.925,0.196
24.930,0.188
24.935,0.181
24.940,0.174
24.945,0.170
24.950,0.155
24.955,0.135
24.960,0.127
24.965,0.131
24.970,0.133
24.975,0.122
24.980,0.101
24.985,0.081
24.990,0.066
24.995,0.069
25.000,0.079
25.005,0.075
25.010,0.077
25.015,0.076
25.020,0.050
25.025,0.025
25.030,0.020
25.035,0.009
25.040,0.001
25.045,0.021
25.050,0.028
25.055,-0.010
25.060,-0.037
25.065,-0.023
25.070,-0.025
25.075,-0.061
25.080,-0.078
25.085,-0.087
25.090,-0.109
25.095,-0.121
25.100,-0.133
25.105,-0.161
25.110,-0.171
25.115,-0.162
25.120,-0.166
25.125,-0.174
25.130,-0.171
25.135,-0.178
25.140,-0.182
25.145,-0.146
25.150,-0.120
25.155,-0.124
25.160,-0.091
25.165,-0.028
25.170,0.013
25.175,0.049
25.180,0.093
25.185,0.121
25.190,0.129
25.195,0.159
25.200,0.198
25.205,0.214
25.210,0.228
25.215,0.246
25.220,0.234
25.225,0.205
25.230,0.208
25.235,0.226
25.240,0.215
25.245,0.209
25.250,0.216
25.255,0.201
25.260,0.187
25.265,0.184
25.270,0.169
25.275,0.150
25.280,0.151
25.285,0.140
25.290,0.112
25.295,0.113
25.300,0.123
25.305,0.106
25.310,0.083
25.315,0.076
25.320,0.072
25.325,0.060
25.330,0.060
25.335,0.053
25.340,0.033
25.345,0.040
25.350,0.038
25.355,0.012
25.360,0.009
25.365,0.007
25.370,-0.003
25.375,0.004
25.380,0.019
25.385,0.010
25.390,-0.012
25.395,-0.010
25.400,-0.007
25.405,-0.013
25.410,0.002
25.415,0.010
25.420,-0.015
25.425,-0.033
25.430,-0.021
25.435,-0.016
25.440,-0.026
25.445,-0.011
25.450,0.009
25.455,-0.001
25.460,-0.013
25.465,-0.023
25.470,-0.047
25.475,-0.051
25.480,-0.025
25.485,-0.013
25.490,-0.032
25.495,-0.041
25.500,-0.035
25.505,-0.037
25.510,-0.036
25.515,-0.026
25.520,-0.032
25.525,-0.051
25.530,-0.051
25.535,-0.032
25.540,-0.025
25.545,-0.032
25.550,-0.037
25.555,-0.041
25.560,-0.049
25.565,-0.050
25.570,-0.042
25.575,-0.037
25.580,-0.038
25.585,-0.048
25.590,-0.060
25.595,-0.051
25.600,-0.035
25.605,-0.040
25.610,-0.048
25.615,-0.044
25.620,-0.050
25.625,-0.070
25.630,-0.061
25.635,-0.033
25.640,-0.033
25.645,-0.038
25.650,-0.044
25.655,-0.060
25.660,-0.057
25.665,-0.048
25.670,-0.057
25.675,-0.051
25.680,-0.026
25.685,-0.026
25.690,-0.044
25.695,-0.043
25.700,-0.037
25.705,-0.039
25.710,-0.040
25.715,-0.043
25.720,-0.047
25.725,-0.053
25.730,-0.049
25.735,-0.035
25.740,-0.033
25.745,-0.032
25.750,-0.039
25.755,-0.051
25.760,-0.045
25.765,-0.032
25.770,-0.036
25.775,-0.047
25.780,-0.035
25.785,-0.019
25.790,-0.026
25.795,-0.030
25.800,-0.025
25.805,-0.033
25.810,-0.046
25.815,-0.043
25.820,-0.038
25.825,-0.042
25.830,-0.040
25.835,-0.043
25.840,-0.057
25.845,-0.051
25.850,-0.035
25.855,-0.038
25.860,-0.046
25.865,-0.043
25.870,-0.044
25.875,-0.048
25.880,-0.055
25.885,-0.071
25.890,-0.072
25.895,-0.045
25.900,-0.010
25.905,-0.003
25.910,-0.008
25.915,0.004
25.920,-0.005
25.925,-0.030
25.930,-0.016
25.935,-0.003
25.940,0.001
25.945,0.027
25.950,0.041
25.955,0.027
25.960,0.016
25.965,0.022
25.970,0.021
25.975,0.007
25.980,0.012
25.985,0.019
25.990,0.008
25.995,0.015
26.000,0.021
26.005,0.001
26.010,-0.002
26.015,0.006
26.020,-0.005
26.025,-0.013
26.030,0.004
26.035,0.014
26.040,-0.002
26.045,-0.005
26.050,0.008
26.055,-0.002
26.060,-0.008
26.065,0.004
26.070,-0.002
26.075,-0.015
26.080,-0.003
26.085,-0.004
26.090,-0.032
26.095,-0.058
26.100,-0.118
26.105,-0.270
26.110,-0.505
26.115,-0.770
26.120,-0.964
26.125,-0.838
26.130,-0.469
26.135,-0.238
26.140,-0.071
26.145,0.132
26.150,0.239
26.155,0.288
26.160,0.316
26.165,0.307
26.170,0.284
26.175,0.259
26.180,0.243
26.185,0.216
26.190,0.177
26.195,0.172
26.200,0.174
26.205,0.149
26.210,0.133
26.215,0.135
26.220,0.127
26.225,0.117
26.230,0.123
26.235,0.118
26.240,0.097
26.245,0.094
26.250,0.097
26.255,0.079
26.260,0.076
26.265,0.086
26.270,0.064
26.275,0.044
26.280,0.050
26.285,0.047
26.290,0.029
26.295,0.023
26.300,0.019
26.305,0.012
26.310,0.006
26.315,0.002
26.320,-0.012
26.325,-0.028
26.330,-0.031
26.335,-0.040
26.340,-0.056
26.345,-0.063
26.350,-0.080
26.355,-0.107
26.360,-0.117
26.365,-0.116
26.370,-0.135
26.375,-0.165
26.380,-0.166
26.385,-0.158
26.390,-0.164
26.395,-0.157
26.400,-0.149
26.405,-0.153
26.410,-0.135
26.415,-0.100
26.420,-0.087
26.425,-0.073
26.430,-0.032
26.435,0.003
26.440,0.034
26.445,0.081
26.450,0.124
26.455,0.147
26.460,0.169
26.465,0.205
26.470,0.220
26.475,0.218
26.480,0.234
26.485,0.240
26.490,0.228
26.495,0.228
26.500,0.234
26.505,0.222
26.510,0.212
26.515,0.219
26.520,0.207
26.525,0.188
26.530,0.184
26.535,0.181
26.540,0.164
26.545,0.156
26.550,0.153
26.555,0.135
26.560,0.120
26.565,0.108
26.570,0.092
26.575,0.087
26.580,0.084
26.585,0.074
26.590,0.063
26.595,0.060
26.600,0.061
26.605,0.046
26.610,0.034
26.615,0.039
26.620,0.031
26.625,0.014
26.630,0.017
26.635,0.020
26.640,0.009
26.645,0.006
26.650,0.008
26.655,0.003
26.660,0.000
26.665,-0.002
26.670,-0.010
26.675,-0.011
26.680,-0.001
26.685,-0.003
26.690,-0.010
26.695,-0.005
26.700,-0.001
26.705,-0.009
26.710,-0.013
26.715,-0.009
26.720,-0.020
26.725,-0.028
26.730,-0.013
26.735,-0.012
26.740,-0.024
26.745,-0.018
26.750,-0.020
26.755,-0.035
26.760,-0.030
26.765,-0.011
26.770,-0.022
26.775,-0.045
26.780,-0.039
26.785,-0.034
26.790,-0.048
26.795,-0.039
26.800,-0.026
26.805,-0.038
26.810,-0.046
26.815,-0.037
26.820,-0.040
26.825,-0.046
26.830,-0.036
26.835,-0.033
26.840,-0.042
26.845,-0.037
26.850,-0.036
26.855,-0.045
26.860,-0.045
26.865,-0.037
26.870,-0.037
26.875,-0.051
26.880,-0.049
26.885,-0.043
26.890,-0.049
26.895,-0.041
26.900,-0.035
26.905,-0.044
26.910,-0.045
26.915,-0.033
26.920,-0.036
26.925,-0.048
26.930,-0.042
26.935,-0.043
26.940,-0.050
26.945,-0.036
26.950,-0.022
26.955,-0.035
26.960,-0.047
26.965,-0.032
26.970,-0.029
26.975,-0.043
26.980,-0.036
26.985,-0.030
26.990,-0.043
26.995,-0.037
27.000,-0.025
27.005,-0.036
27.010,-0.043
27.015,-0.036
27.020,-0.036
27.025,-0.037
27.030,-0.025
27.035,-0.022
27.040,-0.035
27.045,-0.037
27.050,-0.026
27.055,-0.028
27.060,-0.028
27.065,-0.015
27.070,-0.019
27.075,-0.029
27.080,-0.024
27.085,-0.023
27.090,-0.029
27.095,-0.022
27.100,-0.015
27.105,-0.032
27.110,-0.038
27.115,-0.020
27.120,-0.026
27.125,-0.039
27.130,-0.024
27.135,-0.022
27.140,-0.033
27.145,-0.028
27.150,-0.035
27.155,-0.047
27.160,-0.044
27.165,-0.044
27.170,-0.053
27.175,-0.053
27.180,-0.038
27.185,-0.032
27.190,-0.036
27.195,-0.032
27.200,-0.028
27.205,-0.025
27.210,-0.013
27.215,0.011
27.220,0.023
27.225,-0.001
27.230,-0.022
27.235,-0.015
27.240,-0.012
27.245,0.016
27.250,0.054
27.255,0.047
27.260,0.041
27.265,0.061
27.270,0.064
27.275,0.060
27.280,0.066
27.285,0.053
27.290,0.025
27.295,0.020
27.300,0.030
27.305,0.039
27.310,0.050
27.315,0.048
27.320,0.039
27.325,0.034
27.330,0.034
27.335,0.027
27.340,0.007
27.345,0.008
27.350,0.016
27.355,0.010
27.360,0.016
27.365,0.026
27.370,0.015
27.375,0.000
27.380,0.002
27.385,-0.008
27.390,-0.025
27.395,-0.012
27.400,-0.015
27.405,-0.076
27.410,-0.175
27.415,-0.326
27.420,-0.566
27.425,-0.828
27.430,-0.895
27.435,-0.658
27.440,-0.364
27.445,-0.154
27.450,0.060
27.455,0.196
27.460,0.246
27.465,0.291
27.470,0.300
27.475,0.287
27.480,0.281
27.485,0.270
27.490,0.236
27.495,0.197
27.500,0.187
27.505,0.192
27.510,0.182
27.515,0.164
27.520,0.134
27.525,0.112
27.530,0.120
27.535,0.125
27.540,0.115
27.545,0.112
27.550,0.108
27.555,0.087
27.560,0.079
27.565,0.093
27.570,0.078
27.575,0.048
27.580,0.057
27.585,0.060
27.590,0.033
27.595,0.024
27.600,0.024
27.605,0.006
27.610,0.011
27.615,0.029
27.620,0.018
27.625,-0.004
27.630,-0.009
27.635,-0.025
27.640,-0.058
27.645,-0.075
27.650,-0.078
27.655,-0.080
27.660,-0.088
27.665,-0.107
27.670,-0.133
27.675,-0.156
27.680,-0.161
27.685,-0.169
27.690,-0.194
27.695,-0.197
27.700,-0.172
27.705,-0.164
27.710,-0.169
27.715,-0.155
27.720,-0.147
27.725,-0.143
27.730,-0.116
27.735,-0.075
27.740,-0.033
27.745,0.019
27.750,0.060
27.755,0.075
27.760,0.101
27.765,0.145
27.770,0.166
27.775,0.185
27.780,0.223
27.785,0.232
27.790,0.212
27.795,0.220
27.800,0.236
27.805,0.222
27.810,0.218
27.815,0.228
27.820,0.202
27.825,0.177
27.830,0.190
27.835,0.187
27.840,0.164
27.845,0.160
27.850,0.156
27.855,0.141
27.860,0.133
27.865,0.133
27.870,0.111
27.875,0.081
27.880,0.091
27.885,0.096
27.890,0.059
27.895,0.040
27.900,0.061
27.905,0.070
27.910,0.059
27.915,0.054
27.920,0.037
27.925,0.012
27.930,0.013
27.935,0.022
27.940,0.015
27.945,0.000
27.950,-0.002
27.955,0.003
27.960,-0.001
27.965,-0.007
27.970,-0.020
27.975,-0.025
27.980,-0.009
27.985,-0.009
27.990,-0.020
27.995,-0.015
28.000,-0.007
28.005,-0.020
28.010,-0.031
28.015,-0.011
28.020,-0.010
28.025,-0.025
28.030,-0.015
28.035,-0.013
28.040,-0.034
28.045,-0.030
28.050,-0.012
28.055,-0.032
28.060,-0.037
28.065,-0.020
28.070,-0.037
28.075,-0.053
28.080,-0.035
28.085,-0.025
28.090,-0.027
28.095,-0.029
28.100,-0.043
28.105,-0.048
28.110,-0.033
28.115,-0.024
28.120,-0.043
28.125,-0.056
28.130,-0.037
28.135,-0.035
28.140,-0.053
28.145,-0.049
28.150,-0.031
28.155,-0.035
28.160,-0.044
28.165,-0.034
28.170,-0.031
28.175,-0.040
28.180,-0.039
28.185,-0.044
28.190,-0.061
28.195,-0.058
28.200,-0.045
28.205,-0.047
28.210,-0.049
28.215,-0.049
28.220,-0.065
28.225,-0.068
28.230,-0.040
28.235,-0.031
28.240,-0.043
28.245,-0.051
28.250,-0.050
28.255,-0.053
28.260,-0.055
28.265,-0.046
28.270,-0.051
28.275,-0.061
28.280,-0.044
28.285,-0.035
28.290,-0.047
28.295,-0.044
28.300,-0.042
28.305,-0.045
28.310,-0.033
28.315,-0.033
28.320,-0.049
28.325,-0.062
28.330,-0.050
28.335,-0.033
28.340,-0.035
28.345,-0.036
28.350,-0.033
28.355,-0.038
28.360,-0.043
28.365,-0.031
28.370,-0.021
28.375,-0.025
28.380,-0.030
28.385,-0.044
28.390,-0.052
28.395,-0.032
28.400,-0.025
28.405,-0.046
28.410,-0.057
28.415,-0.045
28.420,-0.046
28.425,-0.060
28.430,-0.052
28.435,-0.050
28.440,-0.073
28.445,-0.073
28.450,-0.049
28.455,-0.036
28.460,-0.022
28.465,-0.001
28.470,0.005
28.475,-0.004
28.480,-0.011
28.485,-0.014
28.490,-0.013
28.495,0.000
28.500,0.022
28.505,0.027
28.510,0.019
28.515,0.027
28.520,0.027
28.525,0.015
28.530,0.021
28.535,0.028
28.540,0.019
28.545,0.014
28.550,0.019
28.555,0.014
28.560,0.006
28.565,0.018
28.570,0.023
28.575,0.009
28.580,0.010
28.585,0.011
28.590,-0.004
28.595,-0.006
28.600,0.006
28.605,0.003
28.610,0.001
28.615,0.010
28.620,0.003
28.625,-0.003
28.630,0.008
28.635,0.006
28.640,-0.012
28.645,-0.015
28.650,-0.016
28.655,-0.048
28.660,-0.122
28.665,-0.262
28.670,-0.499
28.675,-0.781
28.680,-0.941
28.685,-0.784
28.690,-0.456
28.695,-0.232
28.700,-0.029
28.705,0.155
28.710,0.243
28.715,0.306
28.720,0.325
28.725,0.296
28.730,0.274
28.735,0.258
28.740,0.227
28.745,0.206
28.750,0.198
28.755,0.179
28.760,0.162
28.765,0.154
28.770,0.145
28.775,0.137
28.780,0.135
28.785,0.129
28.790,0.117
28.795,0.114
28.800,0.114
28.805,0.103
28.810,0.093
28.815,0.096
28.820,0.087
28.825,0.072
28.830,0.073
28.835,0.062
28.840,0.038
28.845,0.041
28.850,0.057
28.855,0.034
28.860,0.002
28.865,0.009
28.870,0.006
28.875,-0.013
28.880,-0.012
28.885,-0.011
28.890,-0.027
28.895,-0.041
28.900,-0.046
28.905,-0.066
28.910,-0.087
28.915,-0.093
28.920,-0.107
28.925,-0.132
28.930,-0.141
28.935,-0.144
28.940,-0.158
28.945,-0.163
28.950,-0.157
28.955,-0.163
28.960,-0.163
28.965,-0.142
28.970,-0.128
28.975,-0.122
28.980,-0.102
28.985,-0.069
28.990,-0.040
28.995,-0.002
29.000,0.048
29.005,0.077
29.010,0.110
29.015,0.161
29.020,0.187
29.025,0.193
29.030,0.209
29.035,0.224
29.040,0.224
29.045,0.228
29.050,0.240
29.055,0.234
29.060,0.228
29.065,0.228
29.070,0.213
29.075,0.196
29.080,0.196
29.085,0.196
29.090,0.178
29.095,0.160
29.100,0.158
29.105,0.148
29.110,0.131
29.115,0.128
29.120,0.119
29.125,0.106
29.130,0.100
29.135,0.092
29.140,0.079
29.145,0.070
29.150,0.062
29.155,0.047
29.160,0.044
29.165,0.052
29.170,0.044
29.175,0.029
29.180,0.028
29.185,0.025
29.190,0.002
29.195,0.003
29.200,0.022
29.205,0.008
29.210,-0.007
29.215,0.007
29.220,0.008
29.225,-0.009
29.230,-0.004
29.235,0.002
29.240,-0.012
29.245,-0.012
29.250,-0.005
29.255,-0.017
29.260,-0.015
29.265,0.001
29.270,-0.007
29.275,-0.019
29.280,-0.009
29.285,-0.008
29.290,-0.020
29.295,-0.019
29.300,-0.017
29.305,-0.023
29.310,-0.020
29.315,-0.011
29.320,-0.022
29.325,-0.037
29.330,-0.025
29.335,-0.018
29.340,-0.033
29.345,-0.034
29.350,-0.025
29.355,-0.041
29.360,-0.047
29.365,-0.031
29.370,-0.036
29.375,-0.044
29.380,-0.039
29.385,-0.035
29.390,-0.040
29.395,-0.038
29.400,-0.029
29.405,-0.042
29.410,-0.056
29.415,-0.049
29.420,-0.046
29.425,-0.052
29.430,-0.047
29.435,-0.041
29.440,-0.047
29.445,-0.050
29.450,-0.042
29.455,-0.048
29.460,-0.055
29.465,-0.041
29.470,-0.035
29.475,-0.041
29.480,-0.037
29.485,-0.036
29.490,-0.047
29.495,-0.048
29.500,-0.037
29.505,-0.043
29.510,-0.049
29.515,-0.042
29.520,-0.041
29.525,-0.040
29.530,-0.031
29.535,-0.035
29.540,-0.049
29.545,-0.050
29.550,-0.041
29.555,-0.046
29.560,-0.052
29.565,-0.042
29.570,-0.042
29.575,-0.052
29.580,-0.046
29.585,-0.036
29.590,-0.040
29.595,-0.033
29.600,-0.024
29.605,-0.040
29.610,-0.046
29.615,-0.033
29.620,-0.028
29.625,-0.030
29.630,-0.024
29.635,-0.017
29.640,-0.015
29.645,-0.009
29.650,-0.011
29.655,-0.025
29.660,-0.024
29.665,-0.014
29.670,-0.017
29.675,-0.020
29.680,-0.011
29.685,-0.011
29.690,-0.026
29.695,-0.022
29.700,-0.008
29.705,-0.027
29.710,-0.046
29.715,-0.037
29.720,-0.036
29.725,-0.045
29.730,-0.041
29.735,-0.036
29.740,-0.040
29.745,-0.035
29.750,-0.020
29.755,-0.015
29.760,-0.010
29.765,-0.011
29.770,-0.030
29.775,-0.028
29.780,-0.001
29.785,0.005
29.790,-0.018
29.795,-0.016
29.800,0.001
29.805,0.000
29.810,0.025
29.815,0.061
29.820,0.058
29.825,0.044
29.830,0.045
29.835,0.045
29.840,0.040
29.845,0.046
29.850,0.054
29.855,0.040
29.860,0.031
29.865,0.042
29.870,0.040
29.875,0.021
29.880,0.015
29.885,0.024
29.890,0.029
29.895,0.034
29.900,0.034
29.905,0.016
29.910,0.008
29.915,0.014
29.920,0.005
29.925,-0.003
29.930,0.005
29.935,0.013
29.940,0.017
29.945,0.014
29.950,0.000
29.955,-0.020
29.960,-0.031
29.965,-0.050
29.970,-0.143
29.975,-0.321
29.980,-0.548
29.985,-0.792
29.990,-0.919
29.995,-0.729
30.000,-0.402
30.005,-0.208
30.010,-0.015
30.015,0.164
30.020,0.230
30.025,0.282
30.030,0.317
30.035,0.307
30.040,0.287
30.045,0.264
30.050,0.240
30.055,0.203
30.060,0.171
30.065,0.170
30.070,0.166
30.075,0.154
30.080,0.156
30.085,0.159
30.090,0.138
30.095,0.105
30.100,0.100
30.105,0.106
30.110,0.112
30.115,0.115
30.120,0.098
30.125,0.076
30.130,0.074
30.135,0.078
30.140,0.058
30.145,0.049
30.150,0.057
30.155,0.035
30.160,0.021
30.165,0.032
30.170,0.014
30.175,-0.010
30.180,-0.006
30.185,-0.006
30.190,-0.026
30.195,-0.031
30.200,-0.031
30.205,-0.047
30.210,-0.067
30.215,-0.087
30.220,-0.101
30.225,-0.114
30.230,-0.127
30.235,-0.134
30.240,-0.153
30.245,-0.170
30.250,-0.167
30.255,-0.177
30.260,-0.187
30.265,-0.168
30.270,-0.160
30.275,-0.168
30.280,-0.153
30.285,-0.131
30.290,-0.121
30.295,-0.076
30.300,-0.028
30.305,-0.008
30.310,0.036
30.315,0.082
30.320,0.108
30.325,0.134
30.330,0.166
30.335,0.196
30.340,0.201
30.345,0.204
30.350,0.222
30.355,0.218
30.360,0.205
30.365,0.207
30.370,0.213
30.375,0.216
30.380,0.216
30.385,0.213
30.390,0.197
30.395,0.173
30.400,0.157
30.405,0.157
30.410,0.163
30.415,0.158
30.420,0.136
30.425,0.106
30.430,0.089
30.435,0.090
30.440,0.090
30.445,0.085
30.450,0.082
30.455,0.081
30.460,0.064
30.465,0.043
30.470,0.038
30.475,0.031
30.480,0.019
30.485,0.015
30.490,0.012
30.495,0.013
30.500,0.022
30.505,0.011
30.510,-0.010
30.515,-0.005
30.520,0.001
30.525,-0.011
30.530,-0.007
30.535,-0.002
30.540,-0.021
30.545,-0.017
30.550,-0.002
30.555,-0.014
30.560,-0.018
30.565,-0.015
30.570,-0.019
30.575,-0.010
30.580,-0.001
30.585,-0.005
30.590,-0.016
30.595,-0.019
30.600,-0.017
30.605,-0.027
30.610,-0.031
30.615,-0.024
30.620,-0.031
30.625,-0.037
30.630,-0.018
30.635,-0.012
30.640,-0.033
30.645,-0.035
30.650,-0.026
30.655,-0.040
30.660,-0.050
30.665,-0.044
30.670,-0.052
30.675,-0.057
30.680,-0.035
30.685,-0.022
30.690,-0.033
30.695,-0.037
30.700,-0.034
30.705,-0.039
30.710,-0.040
30.715,-0.037
30.720,-0.052
30.725,-0.065
30.730,-0.049
30.735,-0.039
30.740,-0.057
30.745,-0.054
30.750,-0.032
30.755,-0.038
30.760,-0.051
30.765,-0.039
30.770,-0.037
30.775,-0.041
30.780,-0.034
30.785,-0.035
30.790,-0.053
30.795,-0.062
30.800,-0.051
30.805,-0.046
30.810,-0.048
30.815,-0.040
30.820,-0.037
30.825,-0.050
30.830,-0.056
30.835,-0.054
30.840,-0.058
30.845,-0.048
30.850,-0.039
30.855,-0.050
30.860,-0.047
30.865,-0.032
30.870,-0.040
30.875,-0.051
30.880,-0.039
30.885,-0.033
30.890,-0.044
30.895,-0.037
30.900,-0.029
30.905,-0.040
30.910,-0.047
30.915,-0.038
30.920,-0.038
30.925,-0.039
30.930,-0.030
30.935,-0.037
30.940,-0.051
30.945,-0.045
30.950,-0.029
30.955,-0.029
30.960,-0.040
30.965,-0.053
30.970,-0.060
30.975,-0.060
30.980,-0.052
30.985,-0.048
30.990,-0.068
30.995,-0.076
31.000,-0.055
31.005,-0.035
31.010,-0.011
31.015,0.008
31.020,0.001
31.025,-0.020
31.030,-0.031
31.035,-0.022
31.040,-0.009
31.045,0.004
31.050,0.019
31.055,0.028
31.060,0.036
31.065,0.038
31.070,0.032
31.075,0.022
31.080,0.020
31.085,0.024
31.090,0.018
31.095,0.020
31.100,0.026
31.105,0.018
31.110,0.010
31.115,0.018
31.120,0.021
31.125,0.007
31.130,0.008
31.135,0.012
31.140,0.001
31.145,0.008
31.150,0.013
31.155,-0.003
31.160,-0.005
31.165,0.005
31.170,0.001
31.175,-0.007
31.180,0.007
31.185,0.013
31.190,-0.009
31.195,-0.018
31.200,-0.024
31.205,-0.076
31.210,-0.183
31.215,-0.359
31.220,-0.616
31.225,-0.880
31.230,-0.928
31.235,-0.669
31.240,-0.373
31.245,-0.161
31.250,0.068
31.255,0.216
31.260,0.265
31.265,0.313
31.270,0.323
31.275,0.291
31.280,0.275
31.285,0.265
31.290,0.240
31.295,0.218
31.300,0.200
31.305,0.179
31.310,0.164
31.315,0.160
31.320,0.156
31.325,0.141
31.330,0.129
31.335,0.122
31.340,0.106
31.345,0.107
31.350,0.116
31.355,0.106
31.360,0.097
31.365,0.095
31.370,0.086
31.375,0.069
31.380,0.069
31.385,0.070
31.390,0.046
31.395,0.035
31.400,0.041
31.405,0.035
31.410,0.027
31.415,0.022
31.420,0.008
31.425,-0.005
31.430,-0.008
31.435,-0.018
31.440,-0.038
31.445,-0.054
31.450,-0.067
31.455,-0.076
31.460,-0.081
31.465,-0.097
31.470,-0.120
31.475,-0.133
31.480,-0.134
31.485,-0.141
31.490,-0.158
31.495,-0.162
31.500,-0.164
31.505,-0.170
31.510,-0.159
31.515,-0.145
31.520,-0.129
31.525,-0.105
31.530,-0.073
31.535,-0.044
31.540,-0.027
31.545,0.011
31.550,0.061
31.555,0.086
31.560,0.120
31.565,0.159
31.570,0.179
31.575,0.195
31.580,0.221
31.585,0.236
31.590,0.227
31.595,0.232
31.600,0.241
31.605,0.230
31.610,0.217
31.615,0.221
31.620,0.218
31.625,0.201
31.630,0.191
31.635,0.180
31.640,0.159
31.645,0.149
31.650,0.147
31.655,0.130
31.660,0.129
31.665,0.133
31.670,0.111
31.675,0.101
31.680,0.094
31.685,0.080
31.690,0.075
31.695,0.070
31.700,0.062
31.705,0.042
31.710,0.021
31.715,0.026
31.720,0.031
31.725,0.017
31.730,0.018
31.735,0.023
31.740,0.014
31.745,0.021
31.750,0.024
31.755,-0.001
31.760,-0.014
31.765,-0.004
31.770,-0.003
31.775,-0.010
31.780,-0.008
31.785,-0.007
31.790,-0.021
31.795,-0.024
31.800,-0.011
31.805,-0.014
31.810,-0.020
31.815,-0.003
31.820,-0.003
31.825,-0.029
31.830,-0.026
31.835,-0.008
31.840,-0.012
31.845,-0.020
31.850,-0.020
31.855,-0.028
31.860,-0.035
31.865,-0.017
31.870,-0.008
31.875,-0.019
31.880,-0.025
31.885,-0.026
31.890,-0.033
31.895,-0.030
31.900,-0.026
31.905,-0.036
31.910,-0.029
31.915,-0.011
31.920,-0.023
31.925,-0.049
31.930,-0.044
31.935,-0.029
31.940,-0.041
31.945,-0.047
31.950,-0.034
31.955,-0.037
31.960,-0.036
31.965,-0.025
31.970,-0.028
31.975,-0.036
31.980,-0.036
31.985,-0.034
31.990,-0.040
31.995,-0.037
32.000,-0.028
32.005,-0.032
32.010,-0.044
32.015,-0.050
32.020,-0.042
32.025,-0.038
32.030,-0.033
32.035,-0.028
32.040,-0.046
32.045,-0.042
32.050,-0.017
32.055,-0.019
32.060,-0.037
32.065,-0.032
32.070,-0.031
32.075,-0.048
32.080,-0.038
32.085,-0.024
32.090,-0.028
32.095,-0.017
32.100,-0.019
32.105,-0.042
32.110,-0.039
32.115,-0.025
32.120,-0.026
32.125,-0.034
32.130,-0.033
32.135,-0.023
32.140,-0.032
32.145,-0.033
32.150,-0.008
32.155,-0.019
32.160,-0.046
32.165,-0.032
32.170,-0.019
32.175,-0.029
32.180,-0.023
32.185,-0.016
32.190,-0.032
32.195,-0.046
32.200,-0.032
32.205,-0.021
32.210,-0.033
32.215,-0.044
32.220,-0.048
32.225,-0.037
32.230,-0.024
32.235,-0.035
32.240,-0.053
32.245,-0.061
32.250,-0.062
32.255,-0.048
32.260,-0.021
32.265,-0.005
32.270,0.000
32.275,-0.005
32.280,-0.005
32.285,-0.019
32.290,-0.038
32.295,-0.010
32.300,0.018
32.305,0.011
32.310,0.022
32.315,0.047
32.320,0.035
32.325,0.014
32.330,0.032
32.335,0.028
32.340,0.014
32.345,0.048
32.350,0.049
32.355,0.006
32.360,0.001
32.365,0.014
32.370,0.012
32.375,0.012
32.380,0.015
32.385,0.013
32.390,0.002
32.395,-0.011
32.400,-0.005
32.405,0.006
32.410,-0.001
32.415,-0.004
32.420,0.006
32.425,0.006
32.430,0.010
32.435,0.017
32.440,-0.010
32.445,-0.013
32.450,-0.001
32.455,-0.041
32.460,-0.092
32.465,-0.182
32.470,-0.380
32.475,-0.653
32.480,-0.896
32.485,-0.922
32.490,-0.671
32.495,-0.391
32.500,-0.171
32.505,0.049
32.510,0.176
32.515,0.246
32.520,0.311
32.525,0.308
32.530,0.280
32.535,0.272
32.540,0.255
32.545,0.236
32.550,0.209
32.555,0.165
32.560,0.144
32.565,0.168
32.570,0.186
32.575,0.156
32.580,0.125
32.585,0.119
32.590,0.110
32.595,0.117
32.600,0.111
32.605,0.078
32.610,0.073
32.615,0.086
32.620,0.083
32.625,0.066
32.630,0.062
32.635,0.067
32.640,0.057
32.645,0.039
32.650,0.030
32.655,0.030
32.660,0.033
32.665,0.025
32.670,0.002
32.675,-0.015
32.680,-0.006
32.685,-0.011
32.690,-0.038
32.695,-0.059
32.700,-0.074
32.705,-0.076
32.710,-0.072
32.715,-0.096
32.720,-0.130
32.725,-0.142
32.730,-0.137
32.735,-0.146
32.740,-0.179
32.745,-0.192
32.750,-0.167
32.755,-0.147
32.760,-0.150
32.765,-0.152
32.770,-0.142
32.775,-0.130
32.780,-0.118
32.785,-0.095
32.790,-0.067
32.795,-0.027
32.800,0.027
32.805,0.065
32.810,0.095
32.815,0.135
32.820,0.161
32.825,0.171
32.830,0.201
32.835,0.223
32.840,0.214
32.845,0.220
32.850,0.229
32.855,0.220
32.860,0.224
32.865,0.234
32.870,0.213
32.875,0.189
32.880,0.192
32.885,0.186
32.890,0.165
32.895,0.160
32.900,0.163
32.905,0.142
32.910,0.119
32.915,0.125
32.920,0.132
32.925,0.121
32.930,0.102
32.935,0.075
32.940,0.060
32.945,0.060
32.950,0.055
32.955,0.046
32.960,0.038
32.965,0.027
32.970,0.018
32.975,0.014
32.980,0.012
32.985,0.010
32.990,-0.006
32.995,-0.011
33.000,-0.003
33.005,-0.010
33.010,-0.009
33.015,0.003
33.020,-0.010
33.025,-0.024
33.030,-0.016
33.035,-0.016
33.040,-0.019
33.045,-0.006
33.050,-0.007
33.055,-0.024
33.060,-0.035
33.065,-0.021
33.070,-0.006
33.075,-0.018
33.080,-0.023
33.085,-0.020
33.090,-0.032
33.095,-0.032
33.100,-0.018
33.105,-0.018
33.110,-0.025
33.115,-0.023
33.120,-0.025
33.125,-0.028
33.130,-0.019
33.135,-0.017
33.140,-0.031
33.145,-0.036
33.150,-0.037
33.155,-0.041
33.160,-0.042
33.165,-0.039
33.170,-0.037
33.175,-0.043
33.180,-0.037
33.185,-0.025
33.190,-0.041
33.195,-0.045
33.200,-0.028
33.205,-0.032
33.210,-0.045
33.215,-0.039
33.220,-0.037
33.225,-0.049
33.230,-0.048
33.235,-0.047
33.240,-0.050
33.245,-0.043
33.250,-0.042
33.255,-0.047
33.260,-0.047
33.265,-0.040
33.270,-0.044
33.275,-0.055
33.280,-0.043
33.285,-0.033
33.290,-0.044
33.295,-0.041
33.300,-0.036
33.305,-0.046
33.310,-0.047
33.315,-0.035
33.320,-0.033
33.325,-0.042
33.330,-0.033
33.335,-0.027
33.340,-0.043
33.345,-0.048
33.350,-0.038
33.355,-0.029
33.360,-0.024
33.365,-0.022
33.370,-0.033
33.375,-0.043
33.380,-0.032
33.385,-0.023
33.390,-0.027
33.395,-0.030
33.400,-0.031
33.405,-0.034
33.410,-0.034
33.415,-0.020
33.420,-0.018
33.425,-0.035
33.430,-0.032
33.435,-0.025
33.440,-0.040
33.445,-0.037
33.450,-0.015
33.455,-0.022
33.460,-0.043
33.465,-0.040
33.470,-0.036
33.475,-0.045
33.480,-0.041
33.485,-0.036
33.490,-0.055
33.495,-0.065
33.500,-0.052
33.505,-0.034
33.510,-0.012
33.515,0.010
33.520,0.010
33.525,-0.004
33.530,-0.005
33.535,-0.007
33.540,-0.006
33.545,0.015
33.550,0.035
33.555,0.036
33.560,0.035
33.565,0.043
33.570,0.038
33.575,0.022
33.580,0.025
33.585,0.031
33.590,0.021
33.595,0.021
33.600,0.027
33.605,0.018
33.610,0.015
33.615,0.028
33.620,0.029
33.625,0.015
33.630,0.016
33.635,0.021
33.640,0.008
33.645,0.002
33.650,0.007
33.655,0.001
33.660,-0.004
33.665,0.011
33.670,0.014
33.675,-0.003
33.680,-0.003
33.685,0.002
33.690,-0.001
33.695,0.001
33.700,-0.025
33.705,-0.097
33.710,-0.207
33.715,-0.377
33.720,-0.619
33.725,-0.881
33.730,-0.933
33.735,-0.667
33.740,-0.370
33.745,-0.163
33.750,0.063
33.755,0.212
33.760,0.267
33.765,0.314
33.770,0.315
33.775,0.285
33.780,0.283
33.785,0.269
33.790,0.232
33.795,0.208
33.800,0.193
33.805,0.185
33.810,0.178
33.815,0.163
33.820,0.146
33.825,0.134
33.830,0.139
33.835,0.140
33.840,0.117
33.845,0.107
33.850,0.111
33.855,0.101
33.860,0.092
33.865,0.095
33.870,0.086
33.875,0.060
33.880,0.051
33.885,0.053
33.890,0.044
33.895,0.039
33.900,0.038
33.905,0.027
33.910,0.017
33.915,0.017
33.920,0.012
33.925,-0.001
33.930,0.001
33.935,-0.014
33.940,-0.048
33.945,-0.052
33.950,-0.051
33.955,-0.081
33.960,-0.109
33.965,-0.112
33.970,-0.123
33.975,-0.145
33.980,-0.151
33.985,-0.150
33.990,-0.164
33.995,-0.176
34.000,-0.167
34.005,-0.166
34.010,-0.165
34.015,-0.146
34.020,-0.138
34.025,-0.130
34.030,-0.090
34.035,-0.055
34.040,-0.031
34.045,0.012
34.050,0.063
34.055,0.099
34.060,0.129
34.065,0.169
34.070,0.196
34.075,0.206
34.080,0.228
34.085,0.243
34.090,0.235
34.095,0.238
34.100,0.248
34.105,0.233
34.110,0.208
34.115,0.209
34.120,0.215
34.125,0.192
34.130,0.183
34.135,0.181
34.140,0.165
34.145,0.159
34.150,0.149
34.155,0.131
34.160,0.120
34.165,0.115
34.170,0.104
34.175,0.088
34.180,0.089
34.185,0.087
34.190,0.069
34.195,0.063
34.200,0.060
34.205,0.044
34.210,0.033
34.215,0.037
34.220,0.030
34.225,0.017
34.230,0.016
34.235,0.007
34.240,0.000
34.245,0.012
34.250,0.008
34.255,-0.012
34.260,-0.006
34.265,0.008
34.270,0.007
34.275,-0.008
34.280,-0.014
34.285,-0.002
34.290,-0.001
34.295,-0.010
34.300,-0.004
34.305,-0.004
34.310,-0.019
34.315,-0.019
34.320,-0.019
34.325,-0.027
34.330,-0.012
34.335,-0.005
34.340,-0.019
34.345,-0.018
34.350,-0.011
34.355,-0.020
34.360,-0.029
34.365,-0.016
34.370,-0.010
34.375,-0.034
34.380,-0.040
34.385,-0.020
34.390,-0.022
34.395,-0.031
34.400,-0.022
34.405,-0.023
34.410,-0.042
34.415,-0.044
34.420,-0.035
34.425,-0.033
34.430,-0.029
34.435,-0.033
34.440,-0.046
34.445,-0.043
34.450,-0.031
34.455,-0.040
34.460,-0.046
34.465,-0.025
34.470,-0.025
34.475,-0.046
34.480,-0.037
34.485,-0.030
34.490,-0.049
34.495,-0.050
34.500,-0.040
34.505,-0.048
34.510,-0.047
34.515,-0.032
34.520,-0.039
34.525,-0.058
34.530,-0.044
34.535,-0.023
34.540,-0.016
34.545,-0.014
34.550,-0.037
34.555,-0.054
34.560,-0.046
34.565,-0.035
34.570,-0.041
34.575,-0.048
34.580,-0.029
34.585,-0.029
34.590,-0.054
34.595,-0.050
34.600,-0.027
34.605,-0.026
34.610,-0.027
34.615,-0.014
34.620,-0.025
34.625,-0.051
34.630,-0.040
34.635,-0.018
34.640,-0.024
34.645,-0.038
34.650,-0.034
34.655,-0.028
34.660,-0.035
34.665,-0.034
34.670,-0.036
34.675,-0.045
34.680,-0.016
34.685,0.001
34.690,-0.020
34.695,-0.028
34.700,-0.040
34.705,-0.053
34.710,-0.043
34.715,-0.026
34.720,-0.037
34.725,-0.064
34.730,-0.059
34.735,-0.039
34.740,-0.042
34.745,-0.049
34.750,-0.051
34.755,-0.039
34.760,-0.017
34.765,-0.010
34.770,-0.010
34.775,-0.004
34.780,-0.005
34.785,-0.011
34.790,-0.014
34.795,-0.008
34.800,0.015
34.805,0.030
34.810,0.024
34.815,0.022
34.820,0.031
34.825,0.031
34.830,0.023
34.835,0.022
34.840,0.020
34.845,0.027
34.850,0.033
34.855,0.021
34.860,0.018
34.865,0.021
34.870,-0.002
34.875,-0.018
34.880,0.004
34.885,0.023
34.890,0.012
34.895,-0.004
34.900,0.003
34.905,0.006
34.910,-0.013
34.915,-0.006
34.920,0.009
34.925,-0.001
34.930,0.010
34.935,0.021
34.940,-0.001
34.945,-0.007
34.950,-0.012
34.955,-0.053
34.960,-0.131
34.965,-0.257
34.970,-0.482
34.975,-0.773
34.980,-0.962
34.985,-0.872
34.990,-0.574
34.995,-0.307
35.000,-0.057
35.005,0.154
35.010,0.236
35.015,0.283
35.020,0.304
35.025,0.278
35.030,0.270
35.035,0.277
35.040,0.256
35.045,0.220
35.050,0.199
35.055,0.183
35.060,0.164
35.065,0.157
35.070,0.159
35.075,0.149
35.080,0.138
35.085,0.133
35.090,0.120
35.095,0.105
35.100,0.106
35.105,0.119
35.110,0.107
35.115,0.091
35.120,0.084
35.125,0.066
35.130,0.071
35.135,0.072
35.140,0.050
35.145,0.048
35.150,0.030
35.155,0.001
35.160,0.015
35.165,0.025
35.170,0.005
35.175,-0.006
35.180,-0.002
35.185,-0.002
35.190,-0.022
35.195,-0.053
35.200,-0.076
35.205,-0.089
35.210,-0.096
35.215,-0.100
35.220,-0.110
35.225,-0.134
35.230,-0.141
35.235,-0.150
35.240,-0.176
35.245,-0.184
35.250,-0.174
35.255,-0.180
35.260,-0.183
35.265,-0.154
35.270,-0.143
35.275,-0.143
35.280,-0.112
35.285,-0.076
35.290,-0.039
35.295,0.004
35.300,0.046
35.305,0.079
35.310,0.112
35.315,0.155
35.320,0.186
35.325,0.197
35.330,0.213
35.335,0.223
35.340,0.215
35.345,0.220
35.350,0.231
35.355,0.219
35.360,0.206
35.365,0.205
35.370,0.200
35.375,0.198
35.380,0.206
35.385,0.196
35.390,0.163
35.395,0.147
35.400,0.151
35.405,0.140
35.410,0.129
35.415,0.130
35.420,0.123
35.425,0.103
35.430,0.086
35.435,0.076
35.440,0.062
35.445,0.053
35.450,0.057
35.455,0.051
35.460,0.033
35.465,0.026
35.470,0.026
35.475,0.013
35.480,-0.003
35.485,-0.007
35.490,-0.008
35.495,-0.005
35.500,-0.004
35.505,-0.019
35.510,-0.024
35.515,-0.013
35.520,-0.017
35.525,-0.021
35.530,-0.012
35.535,-0.011
35.540,-0.018
35.545,-0.019
35.550,-0.009
35.555,-0.016
35.560,-0.035
35.565,-0.026
35.570,-0.024
35.575,-0.044
35.580,-0.047
35.585,-0.031
35.590,-0.024
35.595,-0.018
35.600,-0.008
35.605,-0.012
35.610,-0.023
35.615,-0.029
35.620,-0.032
35.625,-0.032
35.630,-0.028
35.635,-0.035
35.640,-0.045
35.645,-0.038
35.650,-0.029
35.655,-0.035
35.660,-0.037
35.665,-0.023
35.670,-0.031
35.675,-0.047
35.680,-0.038
35.685,-0.035
35.690,-0.044
35.695,-0.037
35.700,-0.030
35.705,-0.047
35.710,-0.055
35.715,-0.039
35.720,-0.041
35.725,-0.051
35.730,-0.036
35.735,-0.034
35.740,-0.050
35.745,-0.041
35.750,-0.021
35.755,-0.035
35.760,-0.056
35.765,-0.046
35.770,-0.040
35.775,-0.049
35.780,-0.039
35.785,-0.031
35.790,-0.040
35.795,-0.041
35.800,-0.037
35.805,-0.047
35.810,-0.052
35.815,-0.037
35.820,-0.033
35.825,-0.042
35.830,-0.035
35.835,-0.028
35.840,-0.032
35.845,-0.035
35.850,-0.040
35.855,-0.045
35.860,-0.041
35.865,-0.027
35.870,-0.025
35.875,-0.039
35.880,-0.027
35.885,-0.014
35.890,-0.025
35.895,-0.027
35.900,-0.013
35.905,-0.018
35.910,-0.036
35.915,-0.027
35.920,-0.021
35.925,-0.031
35.930,-0.027
35.935,-0.022
35.940,-0.024
35.945,-0.019
35.950,-0.013
35.955,-0.028
35.960,-0.035
35.965,-0.021
35.970,-0.035
35.975,-0.054
35.980,-0.039
35.985,-0.041
35.990,-0.060
35.995,-0.050
36.000,-0.029
36.005,-0.027
36.010,-0.044
36.015,-0.045
36.020,-0.027
36.025,-0.021
36.030,-0.007
36.035,0.008
36.040,0.006
36.045,0.002
36.050,-0.002
36.055,-0.009
36.060,-0.006
36.065,0.016
36.070,0.035
36.075,0.039
36.080,0.048
36.085,0.048
36.090,0.037
36.095,0.043
36.100,0.045
36.105,0.027
36.110,0.021
36.115,0.038
36.120,0.030
36.125,0.011
36.130,0.017
36.135,0.025
36.140,0.021
36.145,0.020
36.150,0.021
36.155,0.016
36.160,0.017
36.165,0.019
36.170,0.008
36.175,0.002
36.180,0.007
36.185,0.012
36.190,0.005
36.195,-0.001
36.200,0.007
36.205,-0.005
36.210,-0.017
36.215,-0.012
36.220,-0.043
36.225,-0.124
36.230,-0.250
36.235,-0.455
36.240,-0.724
36.245,-0.941
36.250,-0.880
36.255,-0.572
36.260,-0.307
36.265,-0.076
36.270,0.133
36.275,0.228
36.280,0.283
36.285,0.320
36.290,0.309
36.295,0.290
36.300,0.283
36.305,0.252
36.310,0.219
36.315,0.208
36.320,0.191
36.325,0.173
36.330,0.163
36.335,0.163
36.340,0.166
36.345,0.154
36.350,0.136
36.355,0.122
36.360,0.114
36.365,0.119
36.370,0.111
36.375,0.097
36.380,0.100
36.385,0.097
36.390,0.083
36.395,0.069
36.400,0.054
36.405,0.037
36.410,0.035
36.415,0.048
36.420,0.043
36.425,0.029
36.430,0.031
36.435,0.019
36.440,-0.012
36.445,-0.021
36.450,-0.010
36.455,-0.019
36.460,-0.047
36.465,-0.060
36.470,-0.074
36.475,-0.106
36.480,-0.113
36.485,-0.107
36.490,-0.131
36.495,-0.154
36.500,-0.147
36.505,-0.154
36.510,-0.173
36.515,-0.172
36.520,-0.175
36.525,-0.177
36.530,-0.153
36.535,-0.141
36.540,-0.142
36.545,-0.115
36.550,-0.068
36.555,-0.042
36.560,-0.021
36.565,0.027
36.570,0.075
36.575,0.105
36.580,0.136
36.585,0.173
36.590,0.190
36.595,0.203
36.600,0.232
36.605,0.231
36.610,0.214
36.615,0.224
36.620,0.225
36.625,0.221
36.630,0.233
36.635,0.230
36.640,0.201
36.645,0.180
36.650,0.181
36.655,0.179
36.660,0.167
36.665,0.170
36.670,0.166
36.675,0.133
36.680,0.116
36.685,0.119
36.690,0.109
36.695,0.095
36.700,0.090
36.705,0.082
36.710,0.076
36.715,0.079
36.720,0.060
36.725,0.041
36.730,0.042
36.735,0.037
36.740,0.035
36.745,0.038
36.750,0.033
36.755,0.010
36.760,-0.002
36.765,0.015
36.770,0.017
36.775,0.006
36.780,0.010
36.785,0.004
36.790,-0.012
36.795,-0.008
36.800,-0.006
36.805,-0.014
36.810,-0.006
36.815,0.009
36.820,0.008
36.825,-0.007
36.830,-0.007
36.835,-0.007
36.840,-0.029
36.845,-0.031
36.850,-0.011
36.855,0.005
36.860,-0.001
36.865,-0.026
36.870,-0.037
36.875,-0.034
36.880,-0.020
36.885,-0.017
36.890,-0.036
36.895,-0.041
36.900,-0.028
36.905,-0.029
36.910,-0.032
36.915,-0.019
36.920,-0.013
36.925,-0.029
36.930,-0.044
36.935,-0.044
36.940,-0.052
36.945,-0.053
36.950,-0.043
36.955,-0.037
36.960,-0.022
36.965,-0.026
36.970,-0.052
36.975,-0.057
36.980,-0.040
36.985,-0.038
36.990,-0.054
36.995,-0.051
37.000,-0.030
37.005,-0.035
37.010,-0.050
37.015,-0.040
37.020,-0.042
37.025,-0.057
37.030,-0.045
37.035,-0.040
37.040,-0.061
37.045,-0.060
37.050,-0.031
37.055,-0.032
37.060,-0.048
37.065,-0.044
37.070,-0.039
37.075,-0.041
37.080,-0.040
37.085,-0.033
37.090,-0.034
37.095,-0.045
37.100,-0.045
37.105,-0.049
37.110,-0.048
37.115,-0.032
37.120,-0.033
37.125,-0.054
37.130,-0.054
37.135,-0.041
37.140,-0.043
37.145,-0.034
37.150,-0.020
37.155,-0.039
37.160,-0.048
37.165,-0.027
37.170,-0.025
37.175,-0.039
37.180,-0.028
37.185,-0.016
37.190,-0.046
37.195,-0.065
37.200,-0.043
37.205,-0.028
37.210,-0.029
37.215,-0.031
37.220,-0.041
37.225,-0.057
37.230,-0.059
37.235,-0.052
37.240,-0.062
37.245,-0.065
37.250,-0.046
37.255,-0.041
37.260,-0.027
37.265,0.001
37.270,-0.010
37.275,-0.022
37.280,-0.014
37.285,-0.024
37.290,-0.026
37.295,0.003
37.300,0.024
37.305,0.016
37.310,0.005
37.315,0.019
37.320,0.034
37.325,0.039
37.330,0.042
37.335,0.030
37.340,0.007
37.345,-0.001
37.350,0.019
37.355,0.027
37.360,0.010
37.365,0.006
37.370,0.013
37.375,-0.001
37.380,-0.011
37.385,0.004
37.390,0.017
37.395,0.025
37.400,0.019
37.405,-0.002
37.410,-0.006
37.415,0.000
37.420,0.002
37.425,-0.002
37.430,-0.005
37.435,0.001
37.440,-0.008
37.445,-0.017
37.450,-0.017
37.455,-0.043
37.460,-0.096
37.465,-0.213
37.470,-0.453
37.475,-0.746
37.480,-0.955
37.485,-0.905
37.490,-0.614
37.495,-0.342
37.500,-0.100
37.505,0.115
37.510,0.227
37.515,0.299
37.520,0.322
37.525,0.296
37.530,0.290
37.535,0.283
37.540,0.250
37.545,0.228
37.550,0.210
37.555,0.179
37.560,0.166
37.565,0.175
37.570,0.172
37.575,0.148
37.580,0.140
37.585,0.142
37.590,0.116
37.595,0.092
37.600,0.099
37.605,0.102
37.610,0.100
37.615,0.099
37.620,0.082
37.625,0.064
37.630,0.069
37.635,0.075
37.640,0.057
37.645,0.039
37.650,0.038
37.655,0.032
37.660,0.017
37.665,0.005
37.670,-0.009
37.675,-0.019
37.680,-0.014
37.685,-0.012
37.690,-0.028
37.695,-0.043
37.700,-0.049
37.705,-0.075
37.710,-0.103
37.715,-0.111
37.720,-0.129
37.725,-0.153
37.730,-0.156
37.735,-0.161
37.740,-0.182
37.745,-0.185
37.750,-0.165
37.755,-0.167
37.760,-0.177
37.765,-0.165
37.770,-0.161
37.775,-0.152
37.780,-0.109
37.785,-0.070
37.790,-0.045
37.795,0.000
37.800,0.048
37.805,0.073
37.810,0.101
37.815,0.145
37.820,0.175
37.825,0.187
37.830,0.202
37.835,0.216
37.840,0.218
37.845,0.230
37.850,0.243
37.855,0.227
37.860,0.213
37.865,0.217
37.870,0.209
37.875,0.197
37.880,0.198
37.885,0.197
37.890,0.174
37.895,0.163
37.900,0.162
37.905,0.130
37.910,0.113
37.915,0.134
37.920,0.133
37.925,0.112
37.930,0.105
37.935,0.094
37.940,0.068
37.945,0.058
37.950,0.066
37.955,0.050
37.960,0.027
37.965,0.030
37.970,0.029
37.975,0.017
37.980,0.021
37.985,0.023
37.990,0.005
37.995,-0.005
38.000,0.005
38.005,-0.004
38.010,-0.016
38.015,-0.002
38.020,-0.004
38.025,-0.018
38.030,-0.004
38.035,-0.002
38.040,-0.027
38.045,-0.019
38.050,0.005
38.055,-0.005
38.060,-0.020
38.065,-0.020
38.070,-0.024
38.075,-0.028
38.080,-0.017
38.085,-0.004
38.090,-0.014
38.095,-0.024
38.100,-0.012
38.105,-0.013
38.110,-0.027
38.115,-0.021
38.120,-0.024
38.125,-0.036
38.130,-0.027
38.135,-0.024
38.140,-0.034
38.145,-0.031
38.150,-0.022
38.155,-0.028
38.160,-0.033
38.165,-0.021
38.170,-0.025
38.175,-0.042
38.180,-0.036
38.185,-0.025
38.190,-0.033
38.195,-0.038
38.200,-0.032
38.205,-0.043
38.210,-0.048
38.215,-0.032
38.220,-0.034
38.225,-0.047
38.230,-0.032
38.235,-0.026
38.240,-0.047
38.245,-0.047
38.250,-0.035
38.255,-0.045
38.260,-0.052
38.265,-0.038
38.270,-0.032
38.275,-0.041
38.280,-0.031
38.285,-0.023
38.290,-0.042
38.295,-0.044
38.300,-0.026
38.305,-0.029
38.310,-0.038
38.315,-0.035
38.320,-0.034
38.325,-0.041
38.330,-0.043
38.335,-0.037
38.340,-0.037
38.345,-0.034
38.350,-0.027
38.355,-0.037
38.360,-0.040
38.365,-0.033
38.370,-0.036
38.375,-0.039
38.380,-0.030
38.385,-0.021
38.390,-0.031
38.395,-0.032
38.400,-0.021
38.405,-0.028
38.410,-0.038
38.415,-0.023
38.420,-0.018
38.425,-0.031
38.430,-0.029
38.435,-0.019
38.440,-0.027
38.445,-0.033
38.450,-0.020
38.455,-0.027
38.460,-0.045
38.465,-0.044
38.470,-0.048
38.475,-0.047
38.480,-0.040
38.485,-0.050
38.490,-0.069
38.495,-0.063
38.500,-0.036
38.505,-0.034
38.510,-0.045
38.515,-0.039
38.520,-0.034
38.525,-0.036
38.530,-0.019
38.535,-0.004
38.540,-0.008
38.545,-0.004
38.550,0.000
38.555,-0.011
38.560,-0.012
38.565,0.014
38.570,0.042
38.575,0.044
38.580,0.044
38.585,0.049
38.590,0.034
38.595,0.037
38.600,0.053
38.605,0.037
38.610,0.020
38.615,0.033
38.620,0.038
38.625,0.029
38.630,0.028
38.635,0.027
38.640,0.015
38.645,0.014
38.650,0.024
38.655,0.019
38.660,0.015
38.665,0.023
38.670,0.019
38.675,0.008
38.680,0.009
38.685,0.005
38.690,-0.007
38.695,-0.001
38.700,0.008
38.705,-0.005
38.710,-0.020
38.715,-0.029
38.720,-0.063
38.725,-0.154
38.730,-0.296
38.735,-0.497
38.740,-0.765
38.745,-0.968
38.750,-0.854
38.755,-0.513
38.760,-0.259
38.765,-0.044
38.770,0.144
38.775,0.221
38.780,0.275
38.785,0.324
38.790,0.318
38.795,0.299
38.800,0.287
38.805,0.246
38.810,0.219
38.815,0.217
38.820,0.199
38.825,0.173
38.830,0.175
38.835,0.180
38.840,0.161
38.845,0.148
38.850,0.145
38.855,0.133
38.860,0.121
38.865,0.114
38.870,0.102
38.875,0.092
38.880,0.100
38.885,0.104
38.890,0.081
38.895,0.076
38.900,0.086
38.905,0.061
38.910,0.035
38.915,0.051
38.920,0.057
38.925,0.026
38.930,0.010
38.935,0.014
38.940,0.000
38.945,-0.017
38.950,-0.020
38.955,-0.027
38.960,-0.043
38.965,-0.055
38.970,-0.070
38.975,-0.091
38.980,-0.096
38.985,-0.099
38.990,-0.127
38.995,-0.156
39.000,-0.168
39.005,-0.182
39.010,-0.186
39.015,-0.168
39.020,-0.156
39.025,-0.158
39.030,-0.148
39.035,-0.139
39.040,-0.145
39.045,-0.125
39.050,-0.073
39.055,-0.032
39.060,0.005
39.065,0.054
39.070,0.093
39.075,0.114
39.080,0.142
39.085,0.162
39.090,0.170
39.095,0.206
39.100,0.240
39.105,0.228
39.110,0.215
39.115,0.233
39.120,0.240
39.125,0.227
39.130,0.221
39.135,0.220
39.140,0.202
39.145,0.183
39.150,0.182
39.155,0.176
39.160,0.164
39.165,0.163
39.170,0.149
39.175,0.133
39.180,0.129
39.185,0.105
39.190,0.084
39.195,0.095
39.200,0.103
39.205,0.094
39.210,0.086
39.215,0.081
39.220,0.063
39.225,0.039
39.230,0.038
39.235,0.044
39.240,0.030
39.245,0.028
39.250,0.035
39.255,0.016
39.260,-0.006
39.265,0.000
39.270,0.007
39.275,0.005
39.280,0.001
39.285,-0.019
39.290,-0.027
39.295,-0.002
39.300,0.012
39.305,0.001
39.310,-0.011
39.315,-0.010
39.320,-0.013
39.325,-0.031
39.330,-0.021
39.335,-0.004
39.340,-0.023
39.345,-0.029
39.350,-0.016
39.355,-0.026
39.360,-0.035
39.365,-0.027
39.370,-0.025
39.375,-0.037
39.380,-0.041
39.385,-0.027
39.390,-0.034
39.395,-0.037
39.400,-0.023
39.405,-0.031
39.410,-0.045
39.415,-0.043
39.420,-0.041
39.425,-0.051
39.430,-0.040
39.435,-0.022
39.440,-0.039
39.445,-0.054
39.450,-0.051
39.455,-0.051
39.460,-0.055
39.465,-0.049
39.470,-0.044
39.475,-0.047
39.480,-0.037
39.485,-0.028
39.490,-0.050
39.495,-0.057
39.500,-0.051
39.505,-0.057
39.510,-0.045
39.515,-0.036
39.520,-0.045
39.525,-0.056
39.530,-0.060
39.535,-0.042
39.540,-0.036
39.545,-0.051
39.550,-0.055
39.555,-0.050
39.560,-0.051
39.565,-0.038
39.570,-0.030
39.575,-0.053
39.580,-0.048
39.585,-0.028
39.590,-0.038
39.595,-0.037
39.600,-0.032
39.605,-0.050
39.610,-0.060
39.615,-0.049
39.620,-0.038
39.625,-0.043
39.630,-0.036
39.635,-0.023
39.640,-0.036
39.645,-0.039
39.650,-0.028
39.655,-0.038
39.660,-0.040
39.665,-0.030
39.670,-0.044
39.675,-0.055
39.680,-0.040
39.685,-0.040
39.690,-0.051
39.695,-0.040
39.700,-0.034
39.705,-0.054
39.710,-0.056
39.715,-0.039
39.720,-0.042
39.725,-0.056
39.730,-0.058
39.735,-0.056
39.740,-0.057
39.745,-0.039
39.750,-0.010
39.755,-0.003
39.760,-0.011
39.765,-0.017
39.770,-0.020
39.775,-0.024
39.780,-0.011
39.785,0.015
39.790,0.011
39.795,0.022
39.800,0.055
39.805,0.045
39.810,0.021
39.815,0.026
39.820,0.028
39.825,0.001
39.830,0.001
39.835,0.022
39.840,0.005
39.845,-0.001
39.850,0.018
39.855,0.012
39.860,0.005
39.865,0.023
39.870,0.021
39.875,-0.011
39.880,-0.017
39.885,-0.005
39.890,-0.020
39.895,-0.022
39.900,0.001
39.905,0.003
39.910,-0.006
39.915,0.003
39.920,0.007
39.925,-0.015
39.930,-0.012
39.935,0.005
39.940,-0.030
39.945,-0.081
39.950,-0.152
39.955,-0.320
39.960,-0.576
39.965,-0.852
39.970,-0.990
39.975,-0.802
39.980,-0.455
39.985,-0.210
39.990,0.003
39.995,0.181
40.000,0.268
40.005,0.311
40.010,0.314
40.015,0.299
40.020,0.279
40.025,0.254
40.030,0.240
40.035,0.226
40.040,0.192
40.045,0.165
40.050,0.159
40.055,0.150
40.060,0.142
40.065,0.144
40.070,0.138
40.075,0.117
40.080,0.109
40.085,0.106
40.090,0.093
40.095,0.097
40.100,0.105
40.105,0.091
40.110,0.073
40.115,0.062
40.120,0.056
40.125,0.048
40.130,0.044
40.135,0.040
40.140,0.027
40.145,0.020
40.150,0.023
40.155,0.013
40.160,-0.003
40.165,-0.010
40.170,-0.023
40.175,-0.039
40.180,-0.044
40.185,-0.055
40.190,-0.081
40.195,-0.087
40.200,-0.086
40.205,-0.114
40.210,-0.145
40.215,-0.146
40.220,-0.147
40.225,-0.167
40.230,-0.172
40.235,-0.169
40.240,-0.182
40.245,-0.180
40.250,-0.163
40.255,-0.159
40.260,-0.149
40.265,-0.121
40.270,-0.083
40.275,-0.053
40.280,-0.021
40.285,0.024
40.290,0.057
40.295,0.097
40.300,0.140
40.305,0.154
40.310,0.175
40.315,0.208
40.320,0.215
40.325,0.214
40.330,0.231
40.335,0.243
40.340,0.230
40.345,0.222
40.350,0.229
40.355,0.217
40.360,0.198
40.365,0.194
40.370,0.188
40.375,0.178
40.380,0.177
40.385,0.177
40.390,0.154
40.395,0.138
40.400,0.148
40.405,0.127
40.410,0.095
40.415,0.098
40.420,0.097
40.425,0.085
40.430,0.081
40.435,0.072
40.440,0.055
40.445,0.045
40.450,0.046
40.455,0.034
40.460,0.018
40.465,0.025
40.470,0.027
40.475,0.008
40.480,0.004
40.485,0.007
40.490,-0.007
40.495,-0.006
40.500,0.003
40.505,-0.007
40.510,-0.010
40.515,0.004
40.520,0.002
40.525,-0.017
40.530,-0.018
40.535,-0.004
40.540,-0.005
40.545,-0.006
40.550,-0.004
40.555,-0.016
40.560,-0.026
40.565,-0.016
40.570,-0.010
40.575,-0.020
40.580,-0.019
40.585,-0.015
40.590,-0.023
40.595,-0.022
40.600,-0.013
40.605,-0.013
40.610,-0.020
40.615,-0.017
40.620,-0.016
40.625,-0.031
40.630,-0.035
40.635,-0.029
40.640,-0.029
40.645,-0.024
40.650,-0.020
40.655,-0.026
40.660,-0.031
40.665,-0.023
40.670,-0.017
40.675,-0.038
40.680,-0.041
40.685,-0.029
40.690,-0.043
40.695,-0.046
40.700,-0.026
40.705,-0.027
40.710,-0.043
40.715,-0.043
40.720,-0.041
40.725,-0.050
40.730,-0.038
40.735,-0.023
40.740,-0.040
40.745,-0.047
40.750,-0.031
40.755,-0.032
40.760,-0.042
40.765,-0.035
40.770,-0.030
40.775,-0.042
40.780,-0.041
40.785,-0.032
40.790,-0.042
40.795,-0.037
40.800,-0.025
40.805,-0.036
40.810,-0.036
40.815,-0.023
40.820,-0.029
40.825,-0.043
40.830,-0.041
40.835,-0.031
40.840,-0.037
40.845,-0.037
40.850,-0.025
40.855,-0.029
40.860,-0.038
40.865,-0.026
40.870,-0.018
40.875,-0.035
40.880,-0.040
40.885,-0.028
40.890,-0.030
40.895,-0.035
40.900,-0.027
40.905,-0.025
40.910,-0.032
40.915,-0.019
40.920,-0.012
40.925,-0.031
40.930,-0.031
40.935,-0.015
40.940,-0.023
40.945,-0.025
40.950,-0.016
40.955,-0.030
40.960,-0.043
40.965,-0.043
40.970,-0.051
40.975,-0.057
40.980,-0.049
40.985,-0.051
40.990,-0.060
40.995,-0.044
41.000,-0.027
41.005,-0.031
41.010,-0.039
41.015,-0.035
41.020,-0.027
41.025,-0.030
41.030,-0.019
41.035,0.000
41.040,-0.003
41.045,-0.009
41.050,-0.002
41.055,-0.004
41.060,-0.006
41.065,0.022
41.070,0.046
41.075,0.040
41.080,0.052
41.085,0.060
41.090,0.037
41.095,0.030
41.100,0.038
41.105,0.032
41.110,0.030
41.115,0.038
41.120,0.034
41.125,0.016
41.130,0.013
41.135,0.018
41.140,0.013
41.145,0.007
41.150,0.013
41.155,0.014
41.160,0.005
41.165,0.015
41.170,0.025
41.175,0.006
41.180,-0.010
41.185,-0.001
41.190,0.000
41.195,-0.004
41.200,-0.002
41.205,-0.012
41.210,-0.020
41.215,-0.029
41.220,-0.077
41.225,-0.198
41.230,-0.378
41.235,-0.605
41.240,-0.873
41.245,-0.968
41.250,-0.713
41.255,-0.370
41.260,-0.144
41.265,0.075
41.270,0.235
41.275,0.272
41.280,0.302
41.285,0.326
41.290,0.295
41.295,0.272
41.300,0.273
41.305,0.250
41.310,0.212
41.315,0.199
41.320,0.196
41.325,0.177
41.330,0.165
41.335,0.158
41.340,0.156
41.345,0.156
41.350,0.151
41.355,0.129
41.360,0.100
41.365,0.108
41.370,0.115
41.375,0.085
41.380,0.077
41.385,0.089
41.390,0.075
41.395,0.061
41.400,0.059
41.405,0.055
41.410,0.048
41.415,0.046
41.420,0.042
41.425,0.020
41.430,0.009
41.435,0.018
41.440,0.001
41.445,-0.021
41.450,-0.020
41.455,-0.037
41.460,-0.058
41.465,-0.061
41.470,-0.080
41.475,-0.111
41.480,-0.113
41.485,-0.113
41.490,-0.142
41.495,-0.156
41.500,-0.148
41.505,-0.161
41.510,-0.192
41.515,-0.193
41.520,-0.180
41.525,-0.175
41.530,-0.152
41.535,-0.132
41.540,-0.133
41.545,-0.104
41.550,-0.061
41.555,-0.035
41.560,0.007
41.565,0.069
41.570,0.108
41.575,0.128
41.580,0.167
41.585,0.194
41.590,0.193
41.595,0.211
41.600,0.238
41.605,0.224
41.610,0.206
41.615,0.224
41.620,0.223
41.625,0.210
41.630,0.223
41.635,0.216
41.640,0.182
41.645,0.175
41.650,0.180
41.655,0.167
41.660,0.153
41.665,0.155
41.670,0.153
41.675,0.127
41.680,0.104
41.685,0.097
41.690,0.090
41.695,0.095
41.700,0.095
41.705,0.069
41.710,0.056
41.715,0.062
41.720,0.052
41.725,0.042
41.730,0.047
41.735,0.041
41.740,0.019
41.745,0.013
41.750,0.020
41.755,0.014
41.760,0.003
41.765,0.005
41.770,-0.001
41.775,-0.024
41.780,-0.032
41.785,-0.018
41.790,-0.010
41.795,-0.002
41.800,0.012
41.805,-0.001
41.810,-0.029
41.815,-0.020
41.820,-0.007
41.825,-0.021
41.830,-0.023
41.835,-0.027
41.840,-0.040
41.845,-0.024
41.850,-0.005
41.855,-0.004
41.860,-0.018
41.865,-0.028
41.870,-0.031
41.875,-0.044
41.880,-0.041
41.885,-0.023
41.890,-0.023
41.895,-0.030
41.900,-0.046
41.905,-0.072
41.910,-0.063
41.915,-0.021
41.920,-0.011
41.925,-0.041
41.930,-0.042
41.935,-0.026
41.940,-0.053
41.945,-0.068
41.950,-0.044
41.955,-0.037
41.960,-0.045
41.965,-0.044
41.970,-0.042
41.975,-0.052
41.980,-0.056
41.985,-0.046
41.990,-0.041
41.995,-0.040
42.000,-0.044
42.005,-0.058
42.010,-0.059
42.015,-0.030
42.020,-0.024
42.025,-0.064
42.030,-0.069
42.035,-0.035
42.040,-0.030
42.045,-0.040
42.050,-0.048
42.055,-0.061
42.060,-0.047
42.065,-0.025
42.070,-0.032
42.075,-0.048
42.080,-0.059
42.085,-0.064
42.090,-0.056
42.095,-0.028
42.100,-0.014
42.105,-0.028
42.110,-0.039
42.115,-0.028
42.120,-0.033
42.125,-0.049
42.130,-0.034
42.135,-0.023
42.140,-0.045
42.145,-0.048
42.150,-0.018
42.155,-0.010
42.160,-0.022
42.165,-0.028
42.170,-0.034
42.175,-0.034
42.180,-0.016
42.185,-0.014
42.190,-0.049
42.195,-0.030
42.200,0.126
42.205,0.248
42.210,0.224
42.215,0.203
42.220,0.204
42.225,0.185
42.230,0.175
42.235,0.164
42.240,0.152
42.245,0.141
42.250,0.129
42.255,0.118
42.260,0.108
42.265,0.098
42.270,0.087
42.275,0.078
42.280,0.069
42.285,0.060
42.290,0.051
42.295,0.043
42.300,0.035
42.305,0.028
42.310,0.021
42.315,0.014
42.320,0.007
42.325,0.001
42.330,-0.005
42.335,-0.011
42.340,-0.016
42.345,-0.021
42.350,-0.026
42.355,-0.030
42.360,-0.035
42.365,-0.039
42.370,-0.042
42.375,-0.046
42.380,-0.049
42.385,-0.052
42.390,-0.055
42.395,-0.058
42.400,-0.060
42.405,-0.062
42.410,-0.064
42.415,-0.066
42.420,-0.068
42.425,-0.069
42.430,-0.071
42.435,-0.072
42.440,-0.073
42.445,-0.074
42.450,-0.074
42.455,-0.075
42.460,-0.075
42.465,-0.076
42.470,-0.076
42.475,-0.076
42.480,-0.076
42.485,-0.076
42.490,-0.075
42.495,-0.075
42.500,-0.075
42.505,-0.074
42.510,-0.074
42.515,-0.073
42.520,-0.072
42.525,-0.071
42.530,-0.070
42.535,-0.070
42.540,-0.069
42.545,-0.067
42.550,-0.066
42.555,-0.065
42.560,-0.064
42.565,-0.063
42.570,-0.061
42.575,-0.060
42.580,-0.059
42.585,-0.057
42.590,-0.056
42.595,-0.055
42.600,-0.054
42.605,-0.052
42.610,-0.051
42.615,-0.049
42.620,-0.048
42.625,-0.047
42.630,-0.045
42.635,-0.043
42.640,-0.042
42.645,-0.041
42.650,-0.039
42.655,-0.037
42.660,-0.036
42.665,-0.035
42.670,-0.033
42.675,-0.032
42.680,-0.030
42.685,-0.029
42.690,-0.028
42.695,-0.026
42.700,-0.025
42.705,-0.024
42.710,-0.022
42.715,-0.021
42.720,-0.020
42.725,-0.018
42.730,-0.017
42.735,-0.016
42.740,-0.015
42.745,-0.014
42.750,-0.013
42.755,-0.011
42.760,-0.010
42.765,-0.009
42.770,-0.008
42.775,-0.007
42.780,-0.006
42.785,-0.005
42.790,-0.004
42.795,-0.003
42.800,-0.002
42.805,-0.001
42.810,-0.001
42.815,0.000
42.820,0.001
42.825,0.002
42.830,0.003
42.835,0.004
42.840,0.004
42.845,0.005
42.850,0.005
42.855,0.006
42.860,0.007
42.865,0.008
42.870,0.008
42.875,0.009
42.880,0.009
42.885,0.010
42.890,0.010
42.895,0.011
42.900,0.011
42.905,0.012
42.910,0.012
42.915,0.013
42.920,0.013
42.925,0.013
42.930,0.013
42.935,0.014
42.940,0.014
42.945,0.014
42.950,0.014
42.955,0.015
42.960,0.015
42.965,0.015
42.970,0.015
42.975,0.015
42.980,0.016
42.985,0.016
42.990,0.017
42.995,0.016
43.000,0.016
43.005,0.016
43.010,0.016
43.015,0.016
43.020,0.017
43.025,0.017
43.030,0.017
43.035,0.017
43.040,0.017
43.045,0.017
43.050,0.017
43.055,0.017
43.060,0.017
43.065,0.016
43.070,0.017
43.075,0.017
43.080,0.016
43.085,0.016
43.090,0.016
43.095,0.016
43.100,0.016
43.105,0.016
43.110,0.016
43.115,0.016
43.120,0.015
43.125,0.015
43.130,0.015
43.135,0.015
43.140,0.015
43.145,0.015
43.150,0.015
43.155,0.015
43.160,0.015
43.165,0.015
43.170,0.014
43.175,0.014
43.180,0.014
43.185,0.014
43.190,0.013
43.195,0.013
43.200,0.013
43.205,0.013
43.210,0.013
43.215,0.013
43.220,0.012
43.225,0.013
43.230,0.012
43.235,0.012
43.240,0.012
43.245,0.012
43.250,0.011
43.255,0.011
43.260,0.011
43.265,0.011
43.270,0.011
43.275,0.010
43.280,0.010
43.285,0.010
43.290,0.010
43.295,0.010
43.300,0.010
43.305,0.009
43.310,0.009
43.315,0.009
43.320,0.009
43.325,0.009
43.330,0.009
43.335,0.009
43.340,0.009
43.345,0.008
43.350,0.008
43.355,0.008
43.360,0.008
43.365,0.008
43.370,0.008
43.375,0.007
43.380,0.007
43.385,0.007
43.390,0.007
43.395,0.007
43.400,0.006
43.405,0.006
43.410,0.007
43.415,0.006
43.420,0.006
43.425,0.006
43.430,0.006
43.435,0.005
43.440,0.006
43.445,0.006
43.450,0.005
43.455,0.004
43.460,0.004
43.465,0.005
43.470,0.005
43.475,0.005
43.480,0.004
43.485,0.004
43.490,0.004
43.495,0.004
43.500,0.004
43.505,0.004
43.510,0.004
43.515,0.004
43.520,0.003
43.525,0.003
43.530,0.004
43.535,0.004
43.540,0.003
43.545,0.003
43.550,0.003
43.555,0.003
43.560,0.003
43.565,0.003
43.570,0.003
43.575,0.002
43.580,0.003
43.585,0.003
43.590,0.003
43.595,0.003
43.600,0.003
43.605,0.003
43.610,0.002
43.615,0.002
43.620,0.002
43.625,0.002
43.630,0.002
43.635,0.002
43.640,0.002
43.645,0.002
43.650,0.002
43.655,0.002
43.660,0.002
43.665,0.002
43.670,0.001
43.675,0.002
43.680,0.002
43.685,0.001
43.690,0.001
43.695,0.002
43.700,0.002
43.705,0.001
43.710,0.001
43.715,0.002
43.720,0.001
43.725,0.001
43.730,0.001
43.735,0.001
43.740,0.001
43.745,0.001
43.750,0.001
43.755,0.001
43.760,0.001
43.765,0.001
43.770,0.001
43.775,0.001
43.780,0.001
43.785,0.001
43.790,0.001
43.795,0.001
43.800,0.001
43.805,0.001
43.810,0.001
43.815,0.001
43.820,0.001
43.825,0.001
43.830,0.001
43.835,0.001
43.840,0.001
43.845,0.001
43.850,0.001
43.855,0.001
43.860,0.001
43.865,0.001
43.870,0.001
43.875,0.001
43.880,0.001
43.885,0.001
43.890,0.001
43.895,0.000
43.900,0.000
43.905,0.000
43.910,0.000
43.915,0.001
43.920,0.001
43.925,0.001
43.930,0.001
43.935,0.001
43.940,0.001
43.945,0.000
43.950,0.000
43.955,0.000
43.960,0.000
43.965,0.000
43.970,0.000
43.975,0.001
43.980,0.001
43.985,0.001
43.990,0.001
43.995,0.000
44.000,0.001
44.005,0.001
44.010,0.000
44.015,0.000
44.020,0.001
44.025,0.001
44.030,0.000
44.035,0.000
44.040,0.000
44.045,0.000
44.050,0.000
44.055,0.000
44.060,0.000
44.065,0.000
44.070,0.001
44.075,0.001
44.080,0.001
44.085,0.000
44.090,0.000
44.095,0.000
44.100,0.000
44.105,0.000
44.110,0.000
44.115,0.000
44.120,0.000
44.125,0.000
44.130,0.000
44.135,0.000
44.140,0.000
44.145,0.000
44.150,0.000
44.155,0.000
44.160,0.000
44.165,0.000
44.170,0.000
44.175,0.001
44.180,0.000
44.185,0.000
44.190,0.000
44.195,0.000
44.200,0.000
44.205,0.000
44.210,0.000
44.215,0.000
44.220,0.000
44.225,0.000
44.230,0.001
44.235,0.000
44.240,0.000
44.245,0.000
44.250,0.000
44.255,0.000
44.260,0.000
44.265,0.000
44.270,0.000
44.275,0.000
44.280,0.000
44.285,0.000
44.290,0.000
44.295,0.000
44.300,0.001
44.305,0.000
44.310,0.000
44.315,0.000
44.320,0.000
44.325,0.000
44.330,0.000
44.335,0.000
44.340,0.000
44.345,0.000
44.350,0.001
44.355,0.000
44.360,0.000
44.365,0.000
44.370,0.000
44.375,0.000
44.380,0.000
44.385,0.000
44.390,0.001
44.395,0.000
44.400,0.000
44.405,0.000
44.410,0.001
44.415,0.000
44.420,0.000
44.425,0.001
44.430,0.000
44.435,0.000
44.440,0.001
44.445,0.000
44.450,0.000
44.455,0.000
44.460,0.000
44.465,0.000
44.470,0.000
44.475,0.000
44.480,0.000
44.485,0.000
44.490,0.000
44.495,0.000
44.500,0.000
44.505,0.000
44.510,0.000
44.515,0.000
44.520,0.000
44.525,0.000
44.530,0.000
44.535,0.000
44.540,0.000
44.545,0.000
44.550,0.000
44.555,0.000
44.560,0.000
44.565,0.000
44.570,0.000
44.575,0.000
44.580,0.000
44.585,0.000
44.590,0.000
44.595,0.000
44.600,0.000
44.605,0.000
44.610,0.001
44.615,0.000
44.620,0.000
44.625,0.000
44.630,0.000
44.635,0.000
44.640,0.000
44.645,0.000
44.650,0.000
44.655,0.000
44.660,0.000
44.665,0.000
44.670,0.000
44.675,0.000
44.680,0.000
44.685,0.000
44.690,0.000
44.695,0.000
44.700,0.000
44.705,0.000
44.710,0.000
44.715,0.000
44.720,0.000
44.725,0.000
44.730,0.000
44.735,0.000
44.740,0.000
44.745,0.000
44.750,0.000
44.755,0.000
44.760,0.000
44.765,0.000
44.770,0.000
44.775,0.000
44.780,0.001
44.785,0.000
44.790,0.000
44.795,0.000
44.800,0.001
44.805,0.000
44.810,0.000
44.815,0.000
44.820,0.000
44.825,0.000
44.830,0.000
44.835,0.000
44.840,0.000
44.845,0.000
44.850,0.000
44.855,0.000
44.860,0.000
44.865,0.000
44.870,0.000
44.875,0.000
44.880,0.000
44.885,0.000
44.890,0.000
44.895,0.000
44.900,0.000
44.905,0.000
44.910,0.000
44.915,0.000
44.920,0.000
44.925,0.000
44.930,0.000
44.935,0.000
44.940,0.000
44.945,0.000
44.950,0.000
44.955,0.000
44.960,0.000
44.965,0.000
44.970,0.000
44.975,0.000
44.980,0.000
