'Elapsed time','ECG'
'seconds','mV'
0.000,0.090
0.005,-0.117
0.010,-0.042
0.015,0.297
0.020,-0.024
0.025,-0.188
0.030,0.256
0.035,0.124
0.040,-0.248
0.045,0.100
0.050,0.242
0.055,-0.199
0.060,-0.067
0.065,0.294
0.070,-0.062
0.075,-0.209
0.080,0.229
0.085,0.093
0.090,-0.271
0.095,0.086
0.100,0.226
0.105,-0.221
0.110,-0.089
0.115,0.270
0.120,-0.090
0.125,-0.236
0.130,0.204
0.135,0.072
0.140,-0.287
0.145,0.073
0.150,0.211
0.155,-0.233
0.160,-0.094
0.165,0.262
0.170,-0.099
0.175,-0.236
0.180,0.205
0.185,0.068
0.190,-0.287
0.195,0.074
0.200,0.209
0.205,-0.234
0.210,-0.097
0.215,0.258
0.220,-0.101
0.225,-0.233
0.230,0.213
0.235,0.071
0.240,-0.288
0.245,0.070
0.250,0.201
0.255,-0.238
0.260,-0.099
0.265,0.251
0.270,-0.109
0.275,-0.238
0.280,0.204
0.285,0.057
0.290,-0.305
0.295,0.055
0.300,0.191
0.305,-0.258
0.310,-0.134
0.315,0.201
0.320,-0.167
0.325,-0.283
0.330,0.177
0.335,0.043
0.340,-0.307
0.345,0.059
0.350,0.192
0.355,-0.255
0.360,-0.106
0.365,0.260
0.370,-0.095
0.375,-0.209
0.380,0.250
0.385,0.109
0.390,-0.244
0.395,0.119
0.400,0.244
0.405,-0.202
0.410,-0.056
0.415,0.308
0.420,0.001
0.425,-0.059
0.430,0.373
0.435,0.130
0.440,-0.448
0.445,-0.529
0.450,-0.968
0.455,-1.759
0.460,-1.573
0.465,-0.943
0.470,-0.835
0.475,-0.365
0.480,0.494
0.485,0.474
0.490,0.168
0.495,0.566
0.500,0.631
0.505,0.127
0.510,0.286
0.515,0.648
0.520,0.272
0.525,0.143
0.530,0.572
0.535,0.400
0.540,0.039
0.545,0.394
0.550,0.497
0.555,0.040
0.560,0.185
0.565,0.520
0.570,0.135
0.575,0.004
0.580,0.435
0.585,0.263
0.590,-0.095
0.595,0.264
0.600,0.367
0.605,-0.088
0.610,0.060
0.615,0.394
0.620,0.011
0.625,-0.117
0.630,0.312
0.635,0.140
0.640,-0.215
0.645,0.146
0.650,0.245
0.655,-0.213
0.660,-0.064
0.665,0.267
0.670,-0.119
0.675,-0.242
0.680,0.188
0.685,0.012
0.690,-0.342
0.695,0.024
0.700,0.127
0.705,-0.325
0.710,-0.168
0.715,0.168
0.720,-0.210
0.725,-0.323
0.730,0.117
0.735,-0.045
0.740,-0.380
0.745,0.005
0.750,0.130
0.755,-0.291
0.760,-0.103
0.765,0.260
0.770,-0.094
0.775,-0.177
0.780,0.288
0.785,0.139
0.790,-0.187
0.795,0.203
0.800,0.319
0.805,-0.118
0.810,0.053
0.815,0.395
0.820,0.019
0.825,-0.092
0.830,0.342
0.835,0.168
0.840,-0.175
0.845,0.197
0.850,0.296
0.855,-0.151
0.860,0.017
0.865,0.352
0.870,-0.030
0.875,-0.138
0.880,0.300
0.885,0.125
0.890,-0.216
0.895,0.160
0.900,0.257
0.905,-0.189
0.910,-0.017
0.915,0.315
0.920,-0.069
0.925,-0.173
0.930,0.263
0.935,0.083
0.940,-0.257
0.945,0.119
0.950,0.215
0.955,-0.231
0.960,-0.061
0.965,0.269
0.970,-0.115
0.975,-0.217
0.980,0.223
0.985,0.042
0.990,-0.297
0.995,0.085
1.000,0.180
1.005,-0.264
1.010,-0.087
1.015,0.243
1.020,-0.141
1.025,-0.237
1.030,0.203
1.035,0.024
1.040,-0.309
1.045,0.074
1.050,0.169
1.055,-0.274
1.060,-0.097
1.065,0.233
1.070,-0.151
1.075,-0.243
1.080,0.200
1.085,0.018
1.090,-0.315
1.095,0.071
1.100,0.165
1.105,-0.278
1.110,-0.098
1.115,0.233
1.120,-0.151
1.125,-0.241
1.130,0.197
1.135,0.013
1.140,-0.312
1.145,0.072
1.150,0.160
1.155,-0.281
1.160,-0.098
1.165,0.229
1.170,-0.160
1.175,-0.253
1.180,0.183
1.185,-0.004
1.190,-0.327
1.195,0.059
1.200,0.129
1.205,-0.331
1.210,-0.156
1.215,0.173
1.220,-0.195
1.225,-0.263
1.230,0.187
1.235,0.004
1.240,-0.318
1.245,0.076
1.250,0.159
1.255,-0.279
1.260,-0.075
1.265,0.265
1.270,-0.111
1.275,-0.185
1.280,0.260
1.285,0.070
1.290,-0.254
1.295,0.135
1.300,0.218
1.305,-0.220
1.310,-0.004
1.315,0.380
1.320,0.024
1.325,-0.103
1.330,0.212
1.335,-0.284
1.340,-1.124
1.345,-1.268
1.350,-1.417
1.355,-1.661
1.360,-1.073
1.365,-0.237
1.370,-0.086
1.375,0.117
1.380,0.629
1.385,0.481
1.390,0.150
1.395,0.490
1.400,0.558
1.405,0.134
1.410,0.328
1.415,0.641
1.420,0.240
1.425,0.152
1.430,0.576
1.435,0.363
1.440,0.030
1.445,0.408
1.450,0.468
1.455,0.012
1.460,0.196
1.465,0.502
1.470,0.094
1.475,0.006
1.480,0.433
1.485,0.223
1.490,-0.108
1.495,0.273
1.500,0.336
1.505,-0.113
1.510,0.076
1.515,0.381
1.520,-0.027
1.525,-0.109
1.530,0.319
1.535,0.108
1.540,-0.220
1.545,0.162
1.550,0.220
1.555,-0.232
1.560,-0.043
1.565,0.257
1.570,-0.154
1.575,-0.237
1.580,0.189
1.585,-0.028
1.590,-0.351
1.595,0.038
1.600,0.095
1.605,-0.353
1.610,-0.154
1.615,0.156
1.620,-0.245
1.625,-0.313
1.630,0.129
1.635,-0.070
1.640,-0.369
1.645,0.045
1.650,0.131
1.655,-0.284
1.660,-0.054
1.665,0.281
1.670,-0.094
1.675,-0.138
1.680,0.316
1.685,0.126
1.690,-0.170
1.695,0.232
1.700,0.298
1.705,-0.134
1.710,0.076
1.715,0.382
1.720,-0.021
1.725,-0.083
1.730,0.350
1.735,0.134
1.740,-0.182
1.745,0.210
1.750,0.263
1.755,-0.177
1.760,0.032
1.765,0.336
1.770,-0.070
1.775,-0.134
1.780,0.299
1.785,0.084
1.790,-0.225
1.795,0.171
1.800,0.225
1.805,-0.215
1.810,-0.007
1.815,0.294
1.820,-0.111
1.825,-0.170
1.830,0.265
1.835,0.046
1.840,-0.263
1.845,0.137
1.850,0.187
1.855,-0.253
1.860,-0.039
1.865,0.262
1.870,-0.144
1.875,-0.201
1.880,0.231
1.885,0.010
1.890,-0.293
1.895,0.112
1.900,0.161
1.905,-0.278
1.910,-0.060
1.915,0.241
1.920,-0.164
1.925,-0.217
1.930,0.211
1.935,-0.011
1.940,-0.306
1.945,0.099
1.950,0.145
1.955,-0.291
1.960,-0.070
1.965,0.228
1.970,-0.180
1.975,-0.228
1.980,0.209
1.985,-0.013
1.990,-0.310
1.995,0.098
2.000,0.146
2.005,-0.288
2.010,-0.066
2.015,0.227
2.020,-0.180
2.025,-0.224
2.030,0.210
2.035,-0.014
2.040,-0.311
2.045,0.094
2.050,0.136
2.055,-0.304
2.060,-0.085
2.065,0.213
2.070,-0.189
2.075,-0.241
2.080,0.171
2.085,-0.073
2.090,-0.369
2.095,0.051
2.100,0.107
2.105,-0.313
2.110,-0.078
2.115,0.217
2.120,-0.186
2.125,-0.225
2.130,0.209
2.135,-0.004
2.140,-0.279
2.145,0.140
2.150,0.190
2.155,-0.233
2.160,-0.003
2.165,0.283
2.170,-0.130
2.175,-0.165
2.180,0.269
2.185,0.042
2.190,-0.205
2.195,0.281
2.200,0.342
2.205,-0.148
2.210,-0.083
2.215,-0.169
2.220,-1.128
2.225,-1.628
2.230,-1.298
2.235,-1.268
2.240,-1.143
2.245,-0.196
2.250,0.337
2.255,0.113
2.260,0.402
2.265,0.733
2.270,0.284
2.275,0.171
2.280,0.587
2.285,0.369
2.290,0.079
2.295,0.481
2.300,0.503
2.305,0.061
2.310,0.283
2.315,0.552
2.320,0.125
2.325,0.085
2.330,0.504
2.335,0.252
2.340,-0.042
2.345,0.360
2.350,0.369
2.355,-0.076
2.360,0.154
2.365,0.423
2.370,-0.004
2.375,-0.040
2.380,0.379
2.385,0.129
2.390,-0.161
2.395,0.241
2.400,0.254
2.405,-0.187
2.410,0.041
2.415,0.308
2.420,-0.118
2.425,-0.150
2.430,0.265
2.435,0.002
2.440,-0.292
2.445,0.111
2.450,0.120
2.455,-0.318
2.460,-0.082
2.465,0.183
2.470,-0.241
2.475,-0.268
2.480,0.151
2.485,-0.102
2.490,-0.383
2.495,0.030
2.500,0.046
2.505,-0.378
2.510,-0.126
2.515,0.160
2.520,-0.239
2.525,-0.237
2.530,0.209
2.535,-0.017
2.540,-0.265
2.545,0.177
2.550,0.214
2.555,-0.190
2.560,0.078
2.565,0.365
2.570,-0.043
2.575,-0.052
2.580,0.376
2.585,0.124
2.590,-0.147
2.595,0.275
2.600,0.284
2.605,-0.148
2.610,0.101
2.615,0.365
2.620,-0.062
2.625,-0.080
2.630,0.343
2.635,0.086
2.640,-0.184
2.645,0.235
2.650,0.234
2.655,-0.199
2.660,0.055
2.665,0.320
2.670,-0.103
2.675,-0.113
2.680,0.304
2.685,0.044
2.690,-0.224
2.695,0.190
2.700,0.190
2.705,-0.236
2.710,0.015
2.715,0.273
2.720,-0.152
2.725,-0.158
2.730,0.262
2.735,0.001
2.740,-0.264
2.745,0.153
2.750,0.151
2.755,-0.274
2.760,-0.017
2.765,0.241
2.770,-0.182
2.775,-0.180
2.780,0.244
2.785,-0.023
2.790,-0.289
2.795,0.133
2.800,0.129
2.805,-0.297
2.810,-0.036
2.815,0.222
2.820,-0.205
2.825,-0.204
2.830,0.220
2.835,-0.042
2.840,-0.301
2.845,0.123
2.850,0.121
2.855,-0.299
2.860,-0.034
2.865,0.223
2.870,-0.203
2.875,-0.202
2.880,0.215
2.885,-0.050
2.890,-0.304
2.895,0.121
2.900,0.110
2.905,-0.312
2.910,-0.049
2.915,0.200
2.920,-0.226
2.925,-0.211
2.930,0.208
2.935,-0.079
2.940,-0.355
2.945,0.058
2.950,0.049
2.955,-0.353
2.960,-0.064
2.965,0.195
2.970,-0.231
2.975,-0.211
2.980,0.216
2.985,-0.056
2.990,-0.297
2.995,0.145
3.000,0.143
3.005,-0.266
3.010,0.015
3.015,0.269
3.020,-0.160
3.025,-0.147
3.030,0.271
3.035,-0.003
3.040,-0.250
3.045,0.193
3.050,0.243
3.055,-0.103
3.060,0.153
3.065,0.284
3.070,-0.422
3.075,-0.898
3.080,-1.027
3.085,-1.586
3.090,-1.707
3.095,-0.933
3.100,-0.446
3.105,-0.275
3.110,0.342
3.115,0.666
3.120,0.283
3.125,0.312
3.130,0.651
3.135,0.318
3.140,0.088
3.145,0.523
3.150,0.488
3.155,0.063
3.160,0.328
3.165,0.555
3.170,0.115
3.175,0.130
3.180,0.531
3.185,0.232
3.190,-0.026
3.195,0.390
3.200,0.349
3.205,-0.076
3.210,0.195
3.215,0.422
3.220,-0.019
3.225,-0.003
3.230,0.397
3.235,0.100
3.240,-0.146
3.245,0.278
3.250,0.237
3.255,-0.189
3.260,0.083
3.265,0.307
3.270,-0.133
3.275,-0.112
3.280,0.286
3.285,-0.014
3.290,-0.261
3.295,0.159
3.300,0.118
3.305,-0.307
3.310,-0.036
3.315,0.188
3.320,-0.254
3.325,-0.235
3.330,0.165
3.335,-0.127
3.340,-0.364
3.345,0.064
3.350,0.026
3.355,-0.385
3.360,-0.093
3.365,0.139
3.370,-0.286
3.375,-0.231
3.380,0.199
3.385,-0.072
3.390,-0.282
3.395,0.175
3.400,0.164
3.405,-0.223
3.410,0.088
3.415,0.334
3.420,-0.086
3.425,-0.032
3.430,0.387
3.435,0.094
3.440,-0.135
3.445,0.299
3.450,0.258
3.455,-0.151
3.460,0.140
3.465,0.363
3.470,-0.074
3.475,-0.040
3.480,0.364
3.485,0.068
3.490,-0.162
3.495,0.265
3.500,0.217
3.505,-0.194
3.510,0.096
3.515,0.314
3.520,-0.124
3.525,-0.086
3.530,0.313
3.535,0.014
3.540,-0.214
3.545,0.215
3.550,0.167
3.555,-0.241
3.560,0.052
3.565,0.270
3.570,-0.170
3.575,-0.128
3.580,0.272
3.585,-0.030
3.590,-0.254
3.595,0.176
3.600,0.125
3.605,-0.281
3.610,0.014
3.615,0.228
3.620,-0.210
3.625,-0.161
3.630,0.242
3.635,-0.060
3.640,-0.279
3.645,0.154
3.650,0.098
3.655,-0.306
3.660,-0.001
3.665,0.214
3.670,-0.224
3.675,-0.169
3.680,0.232
3.685,-0.072
3.690,-0.285
3.695,0.154
3.700,0.098
3.705,-0.306
3.710,-0.003
3.715,0.209
3.720,-0.231
3.725,-0.179
3.730,0.220
3.735,-0.082
3.740,-0.293
3.745,0.140
3.750,0.080
3.755,-0.320
3.760,-0.015
3.765,0.190
3.770,-0.251
3.775,-0.192
3.780,0.212
3.785,-0.092
3.790,-0.314
3.795,0.100
3.800,0.024
3.805,-0.372
3.810,-0.048
3.815,0.177
3.820,-0.252
3.825,-0.190
3.830,0.212
3.835,-0.093
3.840,-0.302
3.845,0.145
3.850,0.096
3.855,-0.290
3.860,0.033
3.865,0.247
3.870,-0.185
3.875,-0.119
3.880,0.276
3.885,-0.034
3.890,-0.237
3.895,0.201
3.900,0.156
3.905,-0.171
3.910,0.197
3.915,0.369
3.920,-0.188
3.925,-0.405
3.930,-0.510
3.935,-1.360
3.940,-1.852
3.945,-1.304
3.950,-1.002
3.955,-0.874
3.960,0.023
3.965,0.571
3.970,0.213
3.975,0.327
3.980,0.730
3.985,0.339
3.990,0.091
3.995,0.543
4.000,0.479
4.005,0.079
4.010,0.388
4.015,0.572
4.020,0.117
4.025,0.174
4.030,0.552
4.035,0.223
4.040,0.014
4.045,0.438
4.050,0.347
4.055,-0.059
4.060,0.247
4.065,0.433
4.070,-0.017
4.075,0.047
4.080,0.427
4.085,0.097
4.090,-0.108
4.095,0.320
4.100,0.229
4.105,-0.174
4.110,0.136
4.115,0.319
4.120,-0.133
4.125,-0.068
4.130,0.310
4.135,-0.023
4.140,-0.227
4.145,0.198
4.150,0.105
4.155,-0.296
4.160,0.012
4.165,0.188
4.170,-0.265
4.175,-0.193
4.180,0.184
4.185,-0.149
4.190,-0.342
4.195,0.092
4.200,0.004
4.205,-0.386
4.210,-0.064
4.215,0.122
4.220,-0.318
4.225,-0.226
4.230,0.178
4.235,-0.128
4.240,-0.290
4.245,0.177
4.250,0.114
4.255,-0.250
4.260,0.094
4.265,0.298
4.270,-0.123
4.275,-0.020
4.280,0.374
4.285,0.054
4.290,-0.124
4.295,0.319
4.300,0.232
4.305,-0.155
4.310,0.167
4.315,0.345
4.320,-0.102
4.325,-0.015
4.330,0.368
4.335,0.036
4.340,-0.149
4.345,0.283
4.350,0.184
4.355,-0.204
4.360,0.122
4.365,0.300
4.370,-0.144
4.375,-0.056
4.380,0.323
4.385,-0.010
4.390,-0.194
4.395,0.242
4.400,0.142
4.405,-0.244
4.410,0.084
4.415,0.256
4.420,-0.190
4.425,-0.099
4.430,0.278
4.435,-0.058
4.440,-0.237
4.445,0.201
4.450,0.095
4.455,-0.294
4.460,0.038
4.465,0.214
4.470,-0.228
4.475,-0.132
4.480,0.248
4.485,-0.088
4.490,-0.264
4.495,0.178
4.500,0.080
4.505,-0.302
4.510,0.029
4.515,0.200
4.520,-0.240
4.525,-0.137
4.530,0.242
4.535,-0.093
4.540,-0.265
4.545,0.176
4.550,0.071
4.555,-0.310
4.560,0.027
4.565,0.199
4.570,-0.242
4.575,-0.136
4.580,0.241
4.585,-0.099
4.590,-0.270
4.595,0.174
4.600,0.071
4.605,-0.308
4.610,0.028
4.615,0.194
4.620,-0.251
4.625,-0.146
4.630,0.232
4.635,-0.112
4.640,-0.284
4.645,0.157
4.650,0.052
4.655,-0.324
4.660,0.002
4.665,0.146
4.670,-0.310
4.675,-0.201
4.680,0.191
4.685,-0.129
4.690,-0.281
4.695,0.165
4.700,0.055
4.705,-0.316
4.710,0.026
4.715,0.194
4.720,-0.235
4.725,-0.110
4.730,0.277
4.735,-0.054
4.740,-0.209
4.745,0.235
4.750,0.118
4.755,-0.259
4.760,0.084
4.765,0.245
4.770,-0.176
4.775,0.003
4.780,0.427
4.785,0.051
4.790,-0.220
4.795,-0.055
4.800,-0.661
4.805,-1.588
4.810,-1.561
4.815,-1.285
4.820,-1.350
4.825,-0.727
4.830,0.222
4.835,0.233
4.840,0.167
4.845,0.652
4.850,0.542
4.855,0.114
4.860,0.432
4.865,0.603
4.870,0.164
4.875,0.275
4.880,0.636
4.885,0.277
4.890,0.108
4.895,0.535
4.900,0.399
4.905,0.016
4.910,0.350
4.915,0.487
4.920,0.030
4.925,0.139
4.930,0.495
4.935,0.134
4.940,-0.031
4.945,0.397
4.950,0.261
4.955,-0.119
4.960,0.218
4.965,0.358
4.970,-0.095
4.975,0.022
4.980,0.379
4.985,0.012
4.990,-0.153
4.995,0.279
5.000,0.143
5.005,-0.236
5.010,0.102
5.015,0.238
5.020,-0.220
5.025,-0.108
5.030,0.246
5.035,-0.122
5.040,-0.283
5.045,0.148
5.050,0.008
5.055,-0.363
5.060,-0.016
5.065,0.121
5.070,-0.329
5.075,-0.206
5.080,0.155
5.085,-0.197
5.090,-0.339
5.095,0.110
5.100,-0.008
5.105,-0.356
5.110,0.020
5.115,0.190
5.120,-0.228
5.125,-0.073
5.130,0.314
5.135,-0.020
5.140,-0.145
5.145,0.312
5.150,0.190
5.155,-0.163
5.160,0.200
5.165,0.343
5.170,-0.101
5.175,0.031
5.180,0.388
5.185,0.025
5.190,-0.118
5.195,0.322
5.200,0.180
5.205,-0.188
5.210,0.163
5.215,0.300
5.220,-0.148
5.225,-0.017
5.230,0.337
5.235,-0.025
5.240,-0.164
5.245,0.277
5.250,0.135
5.255,-0.228
5.260,0.128
5.265,0.258
5.270,-0.192
5.275,-0.057
5.280,0.298
5.285,-0.066
5.290,-0.204
5.295,0.235
5.300,0.091
5.305,-0.270
5.310,0.087
5.315,0.217
5.320,-0.231
5.325,-0.094
5.330,0.260
5.335,-0.103
5.340,-0.238
5.345,0.202
5.350,0.056
5.355,-0.303
5.360,0.056
5.365,0.187
5.370,-0.256
5.375,-0.114
5.380,0.236
5.385,-0.130
5.390,-0.260
5.395,0.183
5.400,0.039
5.405,-0.316
5.410,0.046
5.415,0.175
5.420,-0.266
5.425,-0.119
5.430,0.232
5.435,-0.136
5.440,-0.264
5.445,0.181
5.450,0.035
5.455,-0.317
5.460,0.049
5.465,0.176
5.470,-0.266
5.475,-0.119
5.480,0.229
5.485,-0.137
5.490,-0.262
5.495,0.178
5.500,0.029
5.505,-0.318
5.510,0.048
5.515,0.166
5.520,-0.284
5.525,-0.134
5.530,0.218
5.535,-0.158
5.540,-0.299
5.545,0.127
5.550,-0.032
5.555,-0.372
5.560,0.015
5.565,0.151
5.570,-0.285
5.575,-0.129
5.580,0.227
5.585,-0.139
5.590,-0.262
5.595,0.192
5.600,0.053
5.605,-0.286
5.610,0.096
5.615,0.224
5.620,-0.218
5.625,-0.066
5.630,0.280
5.635,-0.089
5.640,-0.205
5.645,0.242
5.650,0.114
5.655,-0.167
5.660,0.241
5.665,0.315
5.670,-0.257
5.675,-0.416
5.680,-0.593
5.685,-1.471
5.690,-1.803
5.695,-1.198
5.700,-0.974
5.705,-0.788
5.710,0.138
5.715,0.544
5.720,0.173
5.725,0.381
5.730,0.714
5.735,0.270
5.740,0.136
5.745,0.599
5.750,0.440
5.755,0.086
5.760,0.453
5.765,0.553
5.770,0.094
5.775,0.244
5.780,0.572
5.785,0.181
5.790,0.055
5.795,0.484
5.800,0.308
5.805,-0.045
5.810,0.319
5.815,0.412
5.820,-0.046
5.825,0.108
5.830,0.440
5.835,0.055
5.840,-0.067
5.845,0.360
5.850,0.182
5.855,-0.172
5.860,0.192
5.865,0.289
5.870,-0.167
5.875,-0.013
5.880,0.312
5.885,-0.078
5.890,-0.194
5.895,0.234
5.900,0.050
5.905,-0.300
5.910,0.064
5.915,0.154
5.920,-0.300
5.925,-0.142
5.930,0.182
5.935,-0.206
5.940,-0.316
5.945,0.119
5.950,-0.060
5.955,-0.401
5.960,-0.022
5.965,0.079
5.970,-0.363
5.975,-0.184
5.980,0.167
5.985,-0.187
5.990,-0.258
5.995,0.209
6.000,0.058
6.005,-0.252
6.010,0.152
6.015,0.269
6.020,-0.156
6.025,0.036
6.030,0.379
6.035,0.006
6.040,-0.080
6.045,0.364
6.050,0.184
6.055,-0.151
6.060,0.226
6.065,0.317
6.070,-0.130
6.075,0.042
6.080,0.367
6.085,-0.022
6.090,-0.118
6.095,0.319
6.100,0.135
6.105,-0.197
6.110,0.184
6.115,0.274
6.120,-0.172
6.125,0.003
6.130,0.330
6.135,-0.060
6.140,-0.160
6.145,0.278
6.150,0.094
6.155,-0.240
6.160,0.140
6.165,0.225
6.170,-0.219
6.175,-0.038
6.180,0.283
6.185,-0.109
6.190,-0.202
6.195,0.234
6.200,0.044
6.205,-0.283
6.210,0.102
6.215,0.184
6.220,-0.261
6.225,-0.076
6.230,0.250
6.235,-0.140
6.240,-0.228
6.245,0.209
6.250,0.018
6.255,-0.309
6.260,0.078
6.265,0.161
6.270,-0.279
6.275,-0.091
6.280,0.231
6.285,-0.158
6.290,-0.237
6.295,0.205
6.300,0.011
6.305,-0.312
6.310,0.079
6.315,0.157
6.320,-0.289
6.325,-0.097
6.330,0.228
6.335,-0.162
6.340,-0.240
6.345,0.202
6.350,0.010
6.355,-0.312
6.360,0.076
6.365,0.149
6.370,-0.289
6.375,-0.091
6.380,0.225
6.385,-0.174
6.390,-0.255
6.395,0.183
6.400,-0.011
6.405,-0.338
6.410,0.033
6.415,0.088
6.420,-0.352
6.425,-0.137
6.430,0.200
6.435,-0.180
6.440,-0.248
6.445,0.191
6.450,-0.004
6.455,-0.319
6.460,0.082
6.465,0.169
6.470,-0.257
6.475,-0.044
6.480,0.280
6.485,-0.113
6.490,-0.184
6.495,0.256
6.500,0.054
6.505,-0.261
6.510,0.135
6.515,0.206
6.520,-0.193
6.525,0.095
6.530,0.447
6.535,-0.008
6.540,-0.234
6.545,-0.152
6.550,-0.903
6.555,-1.709
6.560,-1.473
6.565,-1.177
6.570,-1.196
6.575,-0.438
6.580,0.413
6.585,0.251
6.590,0.235
6.595,0.720
6.600,0.487
6.605,0.088
6.610,0.457
6.615,0.540
6.620,0.107
6.625,0.305
6.630,0.599
6.635,0.187
6.640,0.114
6.645,0.535
6.650,0.312
6.655,-0.008
6.660,0.376
6.665,0.418
6.670,-0.033
6.675,0.167
6.680,0.460
6.685,0.048
6.690,-0.021
6.695,0.402
6.700,0.176
6.705,-0.140
6.710,0.252
6.715,0.297
6.720,-0.152
6.725,0.051
6.730,0.344
6.735,-0.069
6.740,-0.132
6.745,0.295
6.750,0.067
6.755,-0.247
6.760,0.144
6.765,0.185
6.770,-0.263
6.775,-0.059
6.780,0.229
6.785,-0.187
6.790,-0.251
6.795,0.174
6.800,-0.058
6.805,-0.370
6.810,0.028
6.815,0.074
6.820,-0.364
6.825,-0.148
6.830,0.149
6.835,-0.252
6.840,-0.293
6.845,0.152
6.850,-0.054
6.855,-0.332
6.860,0.097
6.865,0.165
6.870,-0.246
6.875,0.001
6.880,0.321
6.885,-0.065
6.890,-0.093
6.895,0.353
6.900,0.141
6.905,-0.146
6.910,0.262
6.915,0.305
6.920,-0.130
6.925,0.092
6.930,0.385
6.935,-0.025
6.940,-0.074
6.945,0.352
6.950,0.122
6.955,-0.175
6.960,0.229
6.965,0.263
6.970,-0.174
6.975,0.050
6.980,0.335
6.985,-0.078
6.990,-0.120
6.995,0.311
7.000,0.077
7.005,-0.220
7.010,0.184
7.015,0.217
7.020,-0.220
7.025,0.007
7.030,0.295
7.035,-0.120
7.040,-0.161
7.045,0.269
7.050,0.032
7.055,-0.264
7.060,0.143
7.065,0.176
7.070,-0.258
7.075,-0.031
7.080,0.251
7.085,-0.162
7.090,-0.196
7.095,0.234
7.100,-0.003
7.105,-0.292
7.110,0.114
7.115,0.144
7.120,-0.287
7.125,-0.052
7.130,0.231
7.135,-0.185
7.140,-0.216
7.145,0.219
7.150,-0.015
7.155,-0.300
7.160,0.111
7.165,0.139
7.170,-0.293
7.175,-0.058
7.180,0.225
7.185,-0.188
7.190,-0.214
7.195,0.218
7.200,-0.021
7.205,-0.303
7.210,0.111
7.215,0.136
7.220,-0.297
7.225,-0.058
7.230,0.222
7.235,-0.194
7.240,-0.219
7.245,0.211
7.250,-0.031
7.255,-0.310
7.260,0.103
7.265,0.117
7.270,-0.314
7.275,-0.067
7.280,0.203
7.285,-0.233
7.290,-0.273
7.295,0.148
7.300,-0.085
7.305,-0.341
7.310,0.091
7.315,0.116
7.320,-0.312
7.325,-0.061
7.330,0.216
7.335,-0.201
7.340,-0.203
7.345,0.239
7.350,0.001
7.355,-0.264
7.360,0.162
7.365,0.179
7.370,-0.251
7.375,-0.002
7.380,0.272
7.385,-0.146
7.390,-0.155
7.395,0.306
7.400,0.129
7.405,-0.107
7.410,0.263
7.415,0.137
7.420,-0.620
7.425,-0.908
7.430,-1.158
7.435,-1.749
7.440,-1.563
7.445,-0.787
7.450,-0.489
7.455,-0.180
7.460,0.503
7.465,0.575
7.470,0.196
7.475,0.435
7.480,0.624
7.485,0.180
7.490,0.192
7.495,0.620
7.500,0.358
7.505,0.082
7.510,0.488
7.515,0.480
7.520,0.041
7.525,0.282
7.530,0.537
7.535,0.101
7.540,0.080
7.545,0.494
7.550,0.221
7.555,-0.058
7.560,0.352
7.565,0.343
7.570,-0.092
7.575,0.155
7.580,0.406
7.585,-0.029
7.590,-0.042
7.595,0.372
7.600,0.099
7.605,-0.177
7.610,0.235
7.615,0.223
7.620,-0.213
7.625,0.035
7.630,0.281
7.635,-0.154
7.640,-0.164
7.645,0.243
7.650,-0.034
7.655,-0.307
7.660,0.103
7.665,0.089
7.670,-0.343
7.675,-0.088
7.680,0.162
7.685,-0.270
7.690,-0.272
7.695,0.145
7.700,-0.124
7.705,-0.381
7.710,0.045
7.715,0.042
7.720,-0.369
7.725,-0.086
7.730,0.188
7.735,-0.216
7.740,-0.185
7.745,0.260
7.750,0.016
7.755,-0.214
7.760,0.233
7.765,0.241
7.770,-0.167
7.775,0.112
7.780,0.374
7.785,-0.046
7.790,-0.034
7.795,0.383
7.800,0.109
7.805,-0.145
7.810,0.278
7.815,0.261
7.820,-0.163
7.825,0.101
7.830,0.345
7.835,-0.086
7.840,-0.076
7.845,0.341
7.850,0.063
7.855,-0.194
7.860,0.231
7.865,0.216
7.870,-0.205
7.875,0.062
7.880,0.304
7.885,-0.128
7.890,-0.115
7.895,0.297
7.900,0.018
7.905,-0.234
7.910,0.188
7.915,0.166
7.920,-0.255
7.925,0.017
7.930,0.261
7.935,-0.169
7.940,-0.154
7.945,0.258
7.950,-0.022
7.955,-0.270
7.960,0.156
7.965,0.133
7.970,-0.285
7.975,-0.009
7.980,0.231
7.985,-0.201
7.990,-0.179
7.995,0.235
8.000,-0.046
8.005,-0.288
8.010,0.140
8.015,0.113
8.020,-0.303
8.025,-0.023
8.030,0.216
8.035,-0.212
8.040,-0.184
8.045,0.229
8.050,-0.053
8.055,-0.292
8.060,0.134
8.065,0.102
8.070,-0.313
8.075,-0.030
8.080,0.208
8.085,-0.220
8.090,-0.189
8.095,0.224
8.100,-0.061
8.105,-0.298
8.110,0.133
8.115,0.104
8.120,-0.311
8.125,-0.027
8.130,0.207
8.135,-0.224
8.140,-0.191
8.145,0.218
8.150,-0.075
8.155,-0.311
8.160,0.122
8.165,0.082
8.170,-0.346
8.175,-0.076
8.180,0.145
8.185,-0.283
8.190,-0.228
8.195,0.201
8.200,-0.076
8.205,-0.303
8.210,0.130
8.215,0.097
8.220,-0.312
8.225,-0.017
8.230,0.226
8.235,-0.194
8.240,-0.141
8.245,0.280
8.250,-0.005
8.255,-0.234
8.260,0.197
8.265,0.158
8.270,-0.251
8.275,0.038
8.280,0.280
8.285,-0.093
8.290,0.003
8.295,0.394
8.300,0.007
8.305,-0.471
8.310,-0.514
8.315,-1.099
8.320,-1.816
8.325,-1.466
8.330,-0.937
8.335,-0.870
8.340,-0.248
8.345,0.531
8.350,0.360
8.355,0.188
8.360,0.629
8.365,0.527
8.370,0.094
8.375,0.405
8.380,0.633
8.385,0.195
8.390,0.234
8.395,0.627
8.400,0.315
8.405,0.079
8.410,0.500
8.415,0.438
8.420,0.019
8.425,0.303
8.430,0.509
8.435,0.058
8.440,0.093
8.445,0.486
8.450,0.171
8.455,-0.062
8.460,0.359
8.465,0.294
8.470,-0.121
8.475,0.169
8.480,0.373
8.485,-0.072
8.490,-0.029
8.495,0.362
8.500,0.047
8.505,-0.183
8.510,0.240
8.515,0.174
8.520,-0.242
8.525,0.049
8.530,0.249
8.535,-0.203
8.540,-0.163
8.545,0.226
8.550,-0.092
8.555,-0.317
8.560,0.107
8.565,0.040
8.570,-0.371
8.575,-0.073
8.580,0.134
8.585,-0.308
8.590,-0.257
8.595,0.140
8.600,-0.164
8.605,-0.367
8.610,0.084
8.615,0.043
8.620,-0.336
8.625,-0.005
8.630,0.229
8.635,-0.182
8.640,-0.093
8.645,0.329
8.650,0.039
8.655,-0.156
8.660,0.292
8.665,0.238
8.670,-0.155
8.675,0.159
8.680,0.366
8.685,-0.078
8.690,-0.019
8.695,0.376
8.700,0.059
8.705,-0.154
8.710,0.279
8.715,0.212
8.720,-0.190
8.725,0.116
8.730,0.315
8.735,-0.128
8.740,-0.063
8.745,0.332
8.750,0.016
8.755,-0.193
8.760,0.241
8.765,0.168
8.770,-0.234
8.775,0.075
8.780,0.276
8.785,-0.165
8.790,-0.101
8.795,0.291
8.800,-0.025
8.805,-0.230
8.810,0.205
8.815,0.130
8.820,-0.268
8.825,0.046
8.830,0.242
8.835,-0.202
8.840,-0.136
8.845,0.256
8.850,-0.060
8.855,-0.262
8.860,0.175
8.865,0.098
8.870,-0.299
8.875,0.016
8.880,0.211
8.885,-0.232
8.890,-0.159
8.895,0.234
8.900,-0.081
8.905,-0.275
8.910,0.162
8.915,0.084
8.920,-0.311
8.925,0.004
8.930,0.199
8.935,-0.239
8.940,-0.160
8.945,0.231
8.950,-0.092
8.955,-0.284
8.960,0.159
8.965,0.081
8.970,-0.310
8.975,0.011
8.980,0.200
8.985,-0.241
8.990,-0.159
8.995,0.233
9.000,-0.090
9.005,-0.279
9.010,0.162
9.015,0.078
9.020,-0.313
9.025,0.010
9.030,0.201
9.035,-0.241
9.040,-0.164
9.045,0.216
9.050,-0.110
9.055,-0.294
9.060,0.147
9.065,0.046
9.070,-0.369
9.075,-0.056
9.080,0.140
9.085,-0.281
9.090,-0.178
9.095,0.219
9.100,-0.103
9.105,-0.284
9.110,0.159
9.115,0.069
9.120,-0.312
9.125,0.027
9.130,0.229
9.135,-0.199
9.140,-0.106
9.145,0.290
9.150,-0.034
9.155,-0.222
9.160,0.218
9.165,0.128
9.170,-0.261
9.175,0.080
9.180,0.327
9.185,-0.041
9.190,0.048
9.195,0.342
9.200,-0.225
9.205,-0.867
9.210,-0.988
9.215,-1.435
9.220,-1.770
9.225,-1.141
9.230,-0.504
9.235,-0.351
9.240,0.161
9.245,0.673
9.250,0.393
9.255,0.233
9.260,0.607
9.265,0.450
9.270,0.073
9.275,0.417
9.280,0.587
9.285,0.135
9.290,0.217
9.295,0.586
9.300,0.245
9.305,0.054
9.310,0.480
9.315,0.370
9.320,-0.027
9.325,0.293
9.330,0.456
9.335,-0.002
9.340,0.082
9.345,0.452
9.350,0.105
9.355,-0.084
9.360,0.345
9.365,0.239
9.370,-0.152
9.375,0.168
9.380,0.332
9.385,-0.119
9.390,-0.029
9.395,0.342
9.400,-0.006
9.405,-0.192
9.410,0.237
9.415,0.124
9.420,-0.270
9.425,0.048
9.430,0.206
9.435,-0.248
9.440,-0.161
9.445,0.208
9.450,-0.135
9.455,-0.318
9.460,0.111
9.465,0.003
9.470,-0.382
9.475,-0.053
9.480,0.112
9.485,-0.333
9.490,-0.229
9.495,0.151
9.500,-0.183
9.505,-0.341
9.510,0.120
9.515,0.039
9.520,-0.312
9.525,0.051
9.530,0.245
9.535,-0.174
9.540,-0.046
9.545,0.354
9.550,0.030
9.555,-0.130
9.560,0.320
9.565,0.219
9.570,-0.156
9.575,0.186
9.580,0.355
9.585,-0.088
9.590,0.014
9.595,0.383
9.600,0.039
9.605,-0.129
9.610,0.307
9.615,0.189
9.620,-0.191
9.625,0.150
9.630,0.310
9.635,-0.133
9.640,-0.025
9.645,0.342
9.650,-0.007
9.655,-0.175
9.660,0.259
9.665,0.145
9.670,-0.228
9.675,0.112
9.680,0.264
9.685,-0.185
9.690,-0.072
9.695,0.301
9.700,-0.046
9.705,-0.215
9.710,0.220
9.715,0.100
9.720,-0.277
9.725,0.066
9.730,0.225
9.735,-0.220
9.740,-0.109
9.745,0.261
9.750,-0.087
9.755,-0.250
9.760,0.190
9.765,0.077
9.770,-0.295
9.775,0.050
9.780,0.205
9.785,-0.244
9.790,-0.131
9.795,0.237
9.800,-0.111
9.805,-0.267
9.810,0.173
9.815,0.051
9.820,-0.317
9.825,0.034
9.830,0.191
9.835,-0.251
9.840,-0.131
9.845,0.238
9.850,-0.115
9.855,-0.274
9.860,0.171
9.865,0.049
9.870,-0.322
9.875,0.030
9.880,0.185
9.885,-0.261
9.890,-0.141
9.895,0.227
9.900,-0.122
9.905,-0.272
9.910,0.172
9.915,0.047
9.920,-0.325
9.925,0.020
9.930,0.168
9.935,-0.271
9.940,-0.147
9.945,0.203
9.950,-0.172
9.955,-0.337
9.960,0.113
9.965,0.008
9.970,-0.338
9.975,0.025
9.980,0.174
9.985,-0.267
9.990,-0.138
9.995,0.224
10.000,-0.118
10.005,-0.246
10.010,0.211
10.015,0.092
10.020,-0.265
10.025,0.094
10.030,0.237
10.035,-0.209
10.040,-0.078
10.045,0.286
10.050,-0.068
10.055,-0.191
10.060,0.325
10.065,0.261
10.070,-0.127
10.075,0.108
10.080,-0.038
10.085,-0.986
10.090,-1.409
10.095,-1.347
10.100,-1.571
10.105,-1.337
10.110,-0.381
10.115,0.078
10.120,0.060
10.125,0.492
10.130,0.681
10.135,0.244
10.140,0.295
10.145,0.603
10.150,0.259
10.155,0.126
10.160,0.561
10.165,0.417
10.170,0.046
10.175,0.389
10.180,0.513
10.185,0.056
10.190,0.178
10.195,0.527
10.200,0.157
10.205,0.004
10.210,0.431
10.215,0.283
10.220,-0.082
10.225,0.264
10.230,0.386
10.235,-0.068
10.240,0.059
10.245,0.395
10.250,0.018
10.255,-0.119
10.260,0.316
10.265,0.160
10.270,-0.208
10.275,0.143
10.280,0.266
10.285,-0.186
10.290,-0.056
10.295,0.285
10.300,-0.095
10.305,-0.241
10.310,0.195
10.315,0.041
10.320,-0.333
10.325,0.014
10.330,0.139
10.335,-0.316
10.340,-0.184
10.345,0.170
10.350,-0.201
10.355,-0.339
10.360,0.106
10.365,-0.032
10.370,-0.385
10.375,-0.020
10.380,0.117
10.385,-0.311
10.390,-0.145
10.395,0.230
10.400,-0.112
10.405,-0.212
10.410,0.255
10.415,0.126
10.420,-0.206
10.425,0.182
10.430,0.323
10.435,-0.115
10.440,0.040
10.445,0.400
10.450,0.033
10.455,-0.097
10.460,0.347
10.465,0.198
10.470,-0.158
10.475,0.202
10.480,0.320
10.485,-0.130
10.490,0.015
10.495,0.359
10.500,-0.014
10.505,-0.139
10.510,0.303
10.515,0.144
10.520,-0.211
10.525,0.156
10.530,0.273
10.535,-0.176
10.540,-0.027
10.545,0.314
10.550,-0.061
10.555,-0.183
10.560,0.257
10.565,0.098
10.570,-0.256
10.575,0.108
10.580,0.224
10.585,-0.220
10.590,-0.069
10.595,0.273
10.600,-0.103
10.605,-0.228
10.610,0.211
10.615,0.052
10.620,-0.294
10.625,0.078
10.630,0.194
10.635,-0.257
10.640,-0.103
10.645,0.245
10.650,-0.130
10.655,-0.247
10.660,0.198
10.665,0.038
10.670,-0.308
10.675,0.063
10.680,0.178
10.685,-0.266
10.690,-0.108
10.695,0.236
10.700,-0.136
10.705,-0.250
10.710,0.194
10.715,0.032
10.720,-0.315
10.725,0.057
10.730,0.171
10.735,-0.273
10.740,-0.111
10.745,0.233
10.750,-0.140
10.755,-0.252
10.760,0.191
10.765,0.028
10.770,-0.316
10.775,0.058
10.780,0.172
10.785,-0.270
10.790,-0.107
10.795,0.235
10.800,-0.141
10.805,-0.252
10.810,0.185
10.815,0.017
10.820,-0.323
10.825,0.044
10.830,0.131
10.835,-0.330
10.840,-0.168
10.845,0.183
10.850,-0.177
10.855,-0.266
10.860,0.185
10.865,0.018
10.870,-0.316
10.875,0.064
10.880,0.170
10.885,-0.260
10.890,-0.079
10.895,0.270
10.900,-0.095
10.905,-0.193
10.910,0.250
10.915,0.080
10.920,-0.258
10.925,0.119
10.930,0.222
10.935,-0.213
10.940,0.005
10.945,0.413
10.950,0.047
10.955,-0.124
10.960,0.135
10.965,-0.436
10.970,-1.344
10.975,-1.442
10.980,-1.427
10.985,-1.583
10.990,-0.958
10.995,-0.041
11.000,0.083
11.005,0.173
11.010,0.666
11.015,0.531
11.020,0.156
11.025,0.472
11.030,0.565
11.035,0.140
11.040,0.316
11.045,0.642
11.050,0.250
11.055,0.139
11.060,0.566
11.065,0.374
11.070,0.025
11.075,0.390
11.080,0.471
11.085,0.019
11.090,0.183
11.095,0.500
11.100,0.104
11.105,-0.006
11.110,0.421
11.115,0.231
11.120,-0.111
11.125,0.259
11.130,0.340
11.135,-0.116
11.140,0.047
11.145,0.367
11.150,-0.026
11.155,-0.131
11.160,0.295
11.165,0.099
11.170,-0.242
11.175,0.130
11.180,0.209
11.185,-0.245
11.190,-0.076
11.195,0.240
11.200,-0.161
11.205,-0.265
11.210,0.164
11.215,-0.033
11.220,-0.372
11.225,0.007
11.230,0.088
11.235,-0.361
11.240,-0.180
11.245,0.145
11.250,-0.244
11.255,-0.329
11.260,0.117
11.265,-0.060
11.270,-0.369
11.275,0.040
11.280,0.150
11.285,-0.263
11.290,-0.050
11.295,0.299
11.300,-0.067
11.305,-0.130
11.310,0.329
11.315,0.155
11.320,-0.156
11.325,0.241
11.330,0.326
11.335,-0.114
11.340,0.077
11.345,0.399
11.350,0.005
11.355,-0.081
11.360,0.352
11.365,0.156
11.370,-0.168
11.375,0.217
11.380,0.290
11.385,-0.155
11.390,0.030
11.395,0.347
11.400,-0.048
11.405,-0.130
11.410,0.311
11.415,0.114
11.420,-0.213
11.425,0.175
11.430,0.249
11.435,-0.198
11.440,-0.011
11.445,0.304
11.450,-0.092
11.455,-0.174
11.460,0.260
11.465,0.062
11.470,-0.261
11.475,0.127
11.480,0.200
11.485,-0.244
11.490,-0.051
11.495,0.264
11.500,-0.132
11.505,-0.211
11.510,0.223
11.515,0.021
11.520,-0.298
11.525,0.095
11.530,0.167
11.535,-0.273
11.540,-0.075
11.545,0.238
11.550,-0.157
11.555,-0.228
11.560,0.212
11.565,0.011
11.570,-0.305
11.575,0.091
11.580,0.159
11.585,-0.282
11.590,-0.080
11.595,0.233
11.600,-0.166
11.605,-0.232
11.610,0.207
11.615,-0.001
11.620,-0.314
11.625,0.084
11.630,0.150
11.635,-0.287
11.640,-0.082
11.645,0.229
11.650,-0.168
11.655,-0.237
11.660,0.198
11.665,-0.005
11.670,-0.317
11.675,0.073
11.680,0.130
11.685,-0.307
11.690,-0.097
11.695,0.199
11.700,-0.222
11.705,-0.299
11.710,0.135
11.715,-0.058
11.720,-0.345
11.725,0.067
11.730,0.132
11.735,-0.303
11.740,-0.087
11.745,0.219
11.750,-0.176
11.755,-0.218
11.760,0.231
11.765,0.033
11.770,-0.261
11.775,0.145
11.780,0.205
11.785,-0.232
11.790,-0.020
11.795,0.284
11.800,-0.120
11.805,-0.163
11.810,0.335
11.815,0.188
11.820,-0.123
11.825,0.192
11.830,0.007
11.835,-0.897
11.840,-1.254
11.845,-1.331
11.850,-1.682
11.855,-1.394
11.860,-0.485
11.865,-0.115
11.870,0.001
11.875,0.529
11.880,0.630
11.885,0.211
11.890,0.364
11.895,0.612
11.900,0.217
11.905,0.178
11.910,0.609
11.915,0.383
11.920,0.069
11.925,0.458
11.930,0.496
11.935,0.049
11.940,0.254
11.945,0.541
11.950,0.122
11.955,0.060
11.960,0.480
11.965,0.244
11.970,-0.069
11.975,0.322
11.980,0.356
11.985,-0.091
11.990,0.116
11.995,0.396
12.000,-0.019
12.005,-0.069
12.010,0.350
12.015,0.112
12.020,-0.190
12.025,0.207
12.030,0.236
12.035,-0.213
12.040,-0.004
12.045,0.274
12.050,-0.145
12.055,-0.197
12.060,0.225
12.065,-0.013
12.070,-0.320
12.075,0.074
12.080,0.102
12.085,-0.346
12.090,-0.131
12.095,0.154
12.100,-0.261
12.105,-0.305
12.110,0.126
12.115,-0.106
12.120,-0.399
12.125,0.015
12.130,0.060
12.135,-0.363
12.140,-0.114
12.145,0.199
12.150,-0.186
12.155,-0.194
12.160,0.266
12.165,0.059
12.170,-0.207
12.175,0.221
12.180,0.270
12.185,-0.147
12.190,0.096
12.195,0.389
12.200,-0.018
12.205,-0.051
12.210,0.381
12.215,0.141
12.220,-0.153
12.225,0.254
12.230,0.282
12.235,-0.155
12.240,0.075
12.245,0.355
12.250,-0.062
12.255,-0.095
12.260,0.334
12.265,0.093
12.270,-0.194
12.275,0.214
12.280,0.235
12.285,-0.200
12.290,0.035
12.295,0.315
12.300,-0.102
12.305,-0.134
12.310,0.290
12.315,0.047
12.320,-0.240
12.325,0.172
12.330,0.198
12.335,-0.237
12.340,-0.003
12.345,0.274
12.350,-0.145
12.355,-0.171
12.360,0.259
12.365,0.015
12.370,-0.269
12.375,0.143
12.380,0.159
12.385,-0.273
12.390,-0.030
12.395,0.246
12.400,-0.169
12.405,-0.190
12.410,0.233
12.415,-0.014
12.420,-0.290
12.425,0.124
12.430,0.139
12.435,-0.292
12.440,-0.045
12.445,0.233
12.450,-0.186
12.455,-0.209
12.460,0.220
12.465,-0.023
12.470,-0.299
12.475,0.114
12.480,0.130
12.485,-0.297
12.490,-0.050
12.495,0.222
12.500,-0.198
12.505,-0.212
12.510,0.216
12.515,-0.039
12.520,-0.320
12.525,0.095
12.530,0.109
12.535,-0.330
12.540,-0.102
12.545,0.152
12.550,-0.274
12.555,-0.277
12.560,0.176
12.565,-0.054
12.570,-0.317
12.575,0.097
12.580,0.105
12.585,-0.320
12.590,-0.063
12.595,0.222
12.600,-0.181
12.605,-0.178
12.610,0.264
12.615,0.019
12.620,-0.248
12.625,0.171
12.630,0.178
12.635,-0.246
12.640,0.014
12.645,0.289
12.650,-0.087
12.655,-0.018
12.660,0.422
12.665,0.091
12.670,-0.362
12.675,-0.340
12.680,-0.900
12.685,-1.782
12.690,-1.613
12.695,-1.075
12.700,-1.036
12.705,-0.467
12.710,0.449
12.715,0.389
12.720,0.175
12.725,0.631
12.730,0.584
12.735,0.084
12.740,0.337
12.745,0.616
12.750,0.188
12.755,0.178
12.760,0.592
12.765,0.319
12.770,0.044
12.775,0.454
12.780,0.442
12.785,0.006
12.790,0.256
12.795,0.501
12.800,0.058
12.805,0.044
12.810,0.451
12.815,0.174
12.820,-0.095
12.825,0.318
12.830,0.307
12.835,-0.126
12.840,0.120
12.845,0.366
12.850,-0.069
12.855,-0.078
12.860,0.332
12.865,0.057
12.870,-0.207
12.875,0.209
12.880,0.184
12.885,-0.249
12.890,0.009
12.895,0.250
12.900,-0.188
12.905,-0.192
12.910,0.218
12.915,-0.060
12.920,-0.332
12.925,0.073
12.930,0.049
12.935,-0.376
12.940,-0.109
12.945,0.140
12.950,-0.292
12.955,-0.284
12.960,0.142
12.965,-0.122
12.970,-0.373
12.975,0.065
12.980,0.070
12.985,-0.330
12.990,-0.032
12.995,0.248
13.000,-0.151
13.005,-0.113
13.010,0.328
13.015,0.074
13.020,-0.163
13.025,0.279
13.030,0.276
13.035,-0.131
13.040,0.143
13.045,0.373
13.050,-0.061
13.055,-0.032
13.060,0.389
13.065,0.108
13.070,-0.149
13.075,0.265
13.080,0.246
13.085,-0.164
13.090,0.100
13.095,0.337
13.100,-0.091
13.105,-0.074
13.110,0.329
13.115,0.033
13.120,-0.208
13.125,0.233
13.130,0.205
13.135,-0.225
13.140,0.055
13.145,0.302
13.150,-0.151
13.155,-0.146
13.160,0.298
13.165,0.037
13.170,-0.248
13.175,0.163
13.180,0.162
13.185,-0.265
13.190,-0.002
13.195,0.245
13.200,-0.175
13.205,-0.142
13.210,0.254
13.215,-0.063
13.220,-0.292
13.225,0.156
13.230,0.120
13.235,-0.285
13.240,-0.008
13.245,0.210
13.250,-0.217
13.255,-0.192
13.260,0.226
13.265,-0.022
13.270,-0.273
13.275,0.106
13.280,0.084
13.285,-0.310
13.290,-0.029
13.295,0.216
13.300,-0.217
13.305,-0.196
13.310,0.215
13.315,-0.069
13.320,-0.303
13.325,0.135
13.330,0.101
13.335,-0.325
13.340,-0.044
13.345,0.191
13.350,-0.242
13.355,-0.221
13.360,0.175
13.365,-0.126
13.370,-0.373
13.375,0.067
13.380,0.059
13.385,-0.337
13.390,-0.044
13.395,0.194
13.400,-0.235
13.405,-0.204
13.410,0.207
13.415,-0.068
13.420,-0.287
13.425,0.160
13.430,0.140
13.435,-0.262
13.440,0.030
13.445,0.261
13.450,-0.172
13.455,-0.139
13.460,0.269
13.465,-0.012
13.470,-0.198
13.475,0.306
13.480,0.288
13.485,-0.197
13.490,-0.105
13.495,-0.277
13.500,-1.272
13.505,-1.693
13.510,-1.346
13.515,-1.327
13.520,-1.101
13.525,-0.104
13.530,0.346
13.535,0.119
13.540,0.456
13.545,0.720
13.550,0.235
13.555,0.193
13.560,0.593
13.565,0.317
13.570,0.081
13.575,0.507
13.580,0.459
13.585,0.038
13.590,0.317
13.595,0.528
13.600,0.083
13.605,0.111
13.610,0.507
13.615,0.205
13.620,-0.035
13.625,0.388
13.630,0.335
13.635,-0.085
13.640,0.199
13.645,0.410
13.650,-0.035
13.655,-0.002
13.660,0.395
13.665,0.091
13.670,-0.147
13.675,0.273
13.680,0.218
13.685,-0.200
13.690,0.086
13.695,0.297
13.700,-0.151
13.705,-0.119
13.710,0.276
13.715,-0.030
13.720,-0.268
13.725,0.153
13.730,0.096
13.735,-0.322
13.740,-0.038
13.745,0.170
13.750,-0.278
13.755,-0.240
13.760,0.158
13.765,-0.147
13.770,-0.371
13.775,0.061
13.780,0.013
13.785,-0.386
13.790,-0.082
13.795,0.149
13.800,-0.264
13.805,-0.191
13.810,0.237
13.815,-0.037
13.820,-0.225
13.825,0.234
13.830,0.204
13.835,-0.176
13.840,0.142
13.845,0.371
13.850,-0.056
13.855,0.002
13.860,0.406
13.865,0.104
13.870,-0.113
13.875,0.317
13.880,0.258
13.885,-0.146
13.890,0.152
13.895,0.360
13.900,-0.081
13.905,-0.035
13.910,0.360
13.915,0.053
13.920,-0.167
13.925,0.264
13.930,0.207
13.935,-0.199
13.940,0.097
13.945,0.306
13.950,-0.131
13.955,-0.078
13.960,0.315
13.965,0.003
13.970,-0.212
13.975,0.222
13.980,0.160
13.985,-0.245
13.990,0.055
13.995,0.261
14.000,-0.180
14.005,-0.127
14.010,0.273
14.015,-0.034
14.020,-0.250
14.025,0.181
14.030,0.117
14.035,-0.287
14.040,0.017
14.045,0.228
14.050,-0.209
14.055,-0.153
14.060,0.243
14.065,-0.067
14.070,-0.277
14.075,0.161
14.080,0.099
14.085,-0.299
14.090,0.008
14.095,0.212
14.100,-0.227
14.105,-0.162
14.110,0.233
14.115,-0.080
14.120,-0.288
14.125,0.147
14.130,0.082
14.135,-0.320
14.140,-0.020
14.145,0.180
14.150,-0.257
14.155,-0.189
14.160,0.206
14.165,-0.114
14.170,-0.332
14.175,0.078
14.180,-0.009
14.185,-0.389
14.190,-0.052
14.195,0.161
14.200,-0.266
14.205,-0.185
14.210,0.218
14.215,-0.098
14.220,-0.299
14.225,0.153
14.230,0.103
14.235,-0.274
14.240,0.053
14.245,0.259
14.250,-0.180
14.255,-0.114
14.260,0.280
14.265,-0.033
14.270,-0.233
14.275,0.206
14.280,0.144
14.285,-0.196
14.290,0.196
14.295,0.409
14.300,-0.105
14.305,-0.235
14.310,-0.261
14.315,-1.144
14.320,-1.782
14.325,-1.386
14.330,-1.143
14.335,-1.073
14.340,-0.189
14.345,0.477
14.350,0.205
14.355,0.320
14.360,0.744
14.365,0.374
14.370,0.095
14.375,0.522
14.380,0.465
14.385,0.071
14.390,0.380
14.395,0.562
14.400,0.107
14.405,0.170
14.410,0.547
14.415,0.212
14.420,0.002
14.425,0.424
14.430,0.333
14.435,-0.068
14.440,0.240
14.445,0.421
14.450,-0.030
14.455,0.038
14.460,0.417
14.465,0.082
14.470,-0.122
14.475,0.306
14.480,0.213
14.485,-0.186
14.490,0.125
14.495,0.302
14.500,-0.150
14.505,-0.081
14.510,0.295
14.515,-0.036
14.520,-0.236
14.525,0.189
14.530,0.089
14.535,-0.315
14.540,-0.005
14.545,0.171
14.550,-0.279
14.555,-0.203
14.560,0.176
14.565,-0.157
14.570,-0.353
14.575,0.079
14.580,-0.012
14.585,-0.404
14.590,-0.081
14.595,0.106
14.600,-0.330
14.605,-0.238
14.610,0.159
14.615,-0.147
14.620,-0.307
14.625,0.160
14.630,0.099
14.635,-0.259
14.640,0.093
14.645,0.295
14.650,-0.130
14.655,-0.026
14.660,0.375
14.665,0.060
14.670,-0.115
14.675,0.326
14.680,0.234
14.685,-0.153
14.690,0.174
14.695,0.355
14.700,-0.093
14.705,-0.010
14.710,0.372
14.715,0.039
14.720,-0.146
14.725,0.293
14.730,0.195
14.735,-0.193
14.740,0.132
14.745,0.303
14.750,-0.143
14.755,-0.054
14.760,0.324
14.765,-0.011
14.770,-0.193
14.775,0.244
14.780,0.146
14.785,-0.239
14.790,0.090
14.795,0.263
14.800,-0.184
14.805,-0.093
14.810,0.285
14.815,-0.048
14.820,-0.229
14.825,0.205
14.830,0.105
14.835,-0.279
14.840,0.048
14.845,0.220
14.850,-0.222
14.855,-0.124
14.860,0.255
14.865,-0.080
14.870,-0.257
14.875,0.178
14.880,0.074
14.885,-0.306
14.890,0.032
14.895,0.205
14.900,-0.239
14.905,-0.139
14.910,0.239
14.915,-0.098
14.920,-0.268
14.925,0.175
14.930,0.073
14.935,-0.310
14.940,0.021
14.945,0.185
14.950,-0.269
14.955,-0.172
14.960,0.210
14.965,-0.122
14.970,-0.292
14.975,0.142
14.980,0.019
14.985,-0.382
14.990,-0.058
14.995,0.109
15.000,-0.326
15.005,-0.203
15.010,0.192
15.015,-0.136
15.020,-0.294
15.025,0.150
15.030,0.054
15.035,-0.304
15.040,0.050
15.045,0.234
15.050,-0.192
15.055,-0.078
15.060,0.295
15.065,-0.048
15.070,-0.213
15.075,0.231
15.080,0.125
15.085,-0.248
15.090,0.095
15.095,0.298
15.100,-0.066
15.105,0.075
15.110,0.390
15.115,-0.116
15.120,-0.649
15.125,-0.762
15.130,-1.352
15.135,-1.854
15.140,-1.284
15.145,-0.707
15.150,-0.583
15.155,0.051
15.160,0.645
15.165,0.352
15.170,0.228
15.175,0.638
15.180,0.442
15.185,0.046
15.190,0.408
15.195,0.568
15.200,0.115
15.205,0.216
15.210,0.575
15.215,0.217
15.220,0.046
15.225,0.475
15.230,0.345
15.235,-0.041
15.240,0.291
15.245,0.435
15.250,-0.024
15.255,0.076
15.260,0.434
15.265,0.079
15.270,-0.087
15.275,0.347
15.280,0.218
15.285,-0.165
15.290,0.168
15.295,0.312
15.300,-0.142
15.305,-0.035
15.310,0.324
15.315,-0.033
15.320,-0.199
15.325,0.233
15.330,0.100
15.335,-0.284
15.340,0.053
15.345,0.196
15.350,-0.259
15.355,-0.151
15.360,0.206
15.365,-0.153
15.370,-0.315
15.375,0.118
15.380,-0.013
15.385,-0.386
15.390,-0.043
15.395,0.105
15.400,-0.340
15.405,-0.219
15.410,0.148
15.415,-0.196
15.420,-0.334
15.425,0.127
15.430,0.025
15.435,-0.317
15.440,0.060
15.445,0.236
15.450,-0.183
15.455,-0.038
15.460,0.345
15.465,0.011
15.470,-0.122
15.475,0.330
15.480,0.211
15.485,-0.152
15.490,0.201
15.495,0.349
15.500,-0.097
15.505,0.025
15.510,0.386
15.515,0.029
15.520,-0.124
15.525,0.314
15.530,0.183
15.535,-0.186
15.540,0.160
15.545,0.302
15.550,-0.140
15.555,-0.014
15.560,0.345
15.565,-0.012
15.570,-0.160
15.575,0.278
15.580,0.140
15.585,-0.229
15.590,0.121
15.595,0.260
15.600,-0.187
15.605,-0.060
15.610,0.299
15.615,-0.061
15.620,-0.208
15.625,0.230
15.630,0.092
15.635,-0.275
15.640,0.078
15.645,0.216
15.650,-0.231
15.655,-0.100
15.660,0.260
15.665,-0.100
15.670,-0.244
15.675,0.199
15.680,0.064
15.685,-0.298
15.690,0.056
15.695,0.194
15.700,-0.251
15.705,-0.117
15.710,0.241
15.715,-0.116
15.720,-0.255
15.725,0.188
15.730,0.052
15.735,-0.306
15.740,0.054
15.745,0.193
15.750,-0.251
15.755,-0.113
15.760,0.246
15.765,-0.114
15.770,-0.253
15.775,0.188
15.780,0.048
15.785,-0.313
15.790,0.042
15.795,0.168
15.800,-0.286
15.805,-0.147
15.810,0.217
15.815,-0.144
15.820,-0.288
15.825,0.139
15.830,-0.021
15.835,-0.398
15.840,-0.040
15.845,0.116
15.850,-0.307
15.855,-0.158
15.860,0.206
15.865,-0.145
15.870,-0.273
15.875,0.172
15.880,0.041
15.885,-0.300
15.890,0.080
15.895,0.234
15.900,-0.196
15.905,-0.050
15.910,0.305
15.915,-0.060
15.920,-0.194
15.925,0.246
15.930,0.102
15.935,-0.250
15.940,0.127
15.945,0.313
15.950,-0.070
15.955,0.061
15.960,0.321
15.965,-0.283
15.970,-0.878
15.975,-1.011
15.980,-1.507
15.985,-1.783
15.990,-1.105
15.995,-0.504
16.000,-0.347
16.005,0.201
16.010,0.671
16.015,0.351
16.020,0.237
16.025,0.620
16.030,0.424
16.035,0.080
16.040,0.457
16.045,0.576
16.050,0.127
16.055,0.266
16.060,0.601
16.065,0.219
16.070,0.082
16.075,0.511
16.080,0.346
16.085,-0.017
16.090,0.337
16.095,0.445
16.100,-0.011
16.105,0.126
16.110,0.460
16.115,0.081
16.120,-0.054
16.125,0.373
16.130,0.208
16.135,-0.152
16.140,0.203
16.145,0.312
16.150,-0.140
16.155,0.002
16.160,0.337
16.165,-0.045
16.170,-0.180
16.175,0.251
16.180,0.086
16.185,-0.276
16.190,0.081
16.195,0.187
16.200,-0.271
16.205,-0.130
16.210,0.205
16.215,-0.175
16.220,-0.302
16.225,0.130
16.230,-0.037
16.235,-0.390
16.240,-0.023
16.245,0.087
16.250,-0.358
16.255,-0.199
16.260,0.149
16.265,-0.217
16.270,-0.320
16.275,0.141
16.280,0.005
16.285,-0.314
16.290,0.084
16.295,0.222
16.300,-0.199
16.305,-0.016
16.310,0.348
16.315,-0.010
16.320,-0.113
16.325,0.339
16.330,0.185
16.335,-0.153
16.340,0.222
16.345,0.333
16.350,-0.113
16.355,0.045
16.360,0.383
16.365,0.002
16.370,-0.113
16.375,0.327
16.380,0.157
16.385,-0.189
16.390,0.184
16.395,0.289
16.400,-0.160
16.405,0.001
16.410,0.338
16.415,-0.043
16.420,-0.156
16.425,0.283
16.430,0.112
16.435,-0.231
16.440,0.143
16.445,0.244
16.450,-0.203
16.455,-0.040
16.460,0.293
16.465,-0.090
16.470,-0.201
16.475,0.238
16.480,0.067
16.485,-0.275
16.490,0.098
16.495,0.198
16.500,-0.248
16.505,-0.080
16.510,0.255
16.515,-0.129
16.520,-0.236
16.525,0.208
16.530,0.037
16.535,-0.302
16.540,0.076
16.545,0.177
16.550,-0.269
16.555,-0.099
16.560,0.235
16.565,-0.147
16.570,-0.247
16.575,0.195
16.580,0.022
16.585,-0.313
16.590,0.068
16.595,0.166
16.600,-0.278
16.605,-0.104
16.610,0.230
16.615,-0.148
16.620,-0.242
16.625,0.199
16.630,0.019
16.635,-0.316
16.640,0.067
16.645,0.162
16.650,-0.280
16.655,-0.104
16.660,0.228
16.665,-0.155
16.670,-0.252
16.675,0.182
16.680,-0.003
16.685,-0.334
16.690,0.050
16.695,0.131
16.700,-0.328
16.705,-0.163
16.710,0.166
16.715,-0.203
16.720,-0.274
16.725,0.182
16.730,0.006
16.735,-0.321
16.740,0.067
16.745,0.155
16.750,-0.284
16.755,-0.085
16.760,0.258
16.765,-0.116
16.770,-0.192
16.775,0.257
16.780,0.077
16.785,-0.252
16.790,0.132
16.795,0.220
16.800,-0.223
16.805,-0.038
16.810,0.314
16.815,-0.007
16.820,-0.049
16.825,0.358
16.830,0.054
16.835,-0.573
16.840,-0.704
16.845,-1.151
16.850,-1.814
16.855,-1.472
16.860,-0.803
16.865,-0.662
16.870,-0.181
16.875,0.561
16.880,0.459
16.885,0.175
16.890,0.551
16.895,0.568
16.900,0.102
16.905,0.308
16.910,0.638
16.915,0.242
16.920,0.149
16.925,0.577
16.930,0.374
16.935,0.035
16.940,0.406
16.945,0.473
16.950,0.020
16.955,0.197
16.960,0.504
16.965,0.099
16.970,0.005
16.975,0.434
16.980,0.232
16.985,-0.099
16.990,0.282
16.995,0.347
17.000,-0.108
17.005,0.073
17.010,0.380
17.015,-0.022
17.020,-0.109
17.025,0.319
17.030,0.112
17.035,-0.219
17.040,0.159
17.045,0.224
17.050,-0.228
17.055,-0.045
17.060,0.260
17.065,-0.148
17.070,-0.236
17.075,0.192
17.080,-0.016
17.085,-0.344
17.090,0.036
17.095,0.096
17.100,-0.352
17.105,-0.159
17.110,0.155
17.115,-0.245
17.120,-0.323
17.125,0.116
17.130,-0.078
17.135,-0.385
17.140,0.023
17.145,0.112
17.150,-0.306
17.155,-0.082
17.160,0.261
17.165,-0.103
17.170,-0.148
17.175,0.309
17.180,0.126
17.185,-0.174
17.190,0.232
17.195,0.309
17.200,-0.124
17.205,0.079
17.210,0.391
17.215,-0.003
17.220,-0.070
17.225,0.366
17.230,0.156
17.235,-0.164
17.240,0.228
17.245,0.288
17.250,-0.156
17.255,0.042
17.260,0.346
17.265,-0.055
17.270,-0.122
17.275,0.313
17.280,0.104
17.285,-0.212
17.290,0.180
17.295,0.239
17.300,-0.202
17.305,0.002
17.310,0.308
17.315,-0.093
17.320,-0.161
17.325,0.271
17.330,0.059
17.335,-0.252
17.340,0.141
17.345,0.196
17.350,-0.243
17.355,-0.036
17.360,0.268
17.365,-0.135
17.370,-0.200
17.375,0.233
17.380,0.017
17.385,-0.295
17.390,0.102
17.395,0.159
17.400,-0.278
17.405,-0.064
17.410,0.242
17.415,-0.162
17.420,-0.224
17.425,0.211
17.430,-0.002
17.435,-0.307
17.440,0.094
17.445,0.148
17.450,-0.289
17.455,-0.077
17.460,0.225
17.465,-0.176
17.470,-0.227
17.475,0.214
17.480,-0.005
17.485,-0.314
17.490,0.088
17.495,0.141
17.500,-0.294
17.505,-0.076
17.510,0.226
17.515,-0.181
17.520,-0.234
17.525,0.206
17.530,-0.016
17.535,-0.322
17.540,0.087
17.545,0.138
17.550,-0.304
17.555,-0.092
17.560,0.205
17.565,-0.196
17.570,-0.246
17.575,0.172
17.580,-0.071
17.585,-0.382
17.590,0.030
17.595,0.098
17.600,-0.318
17.605,-0.088
17.610,0.209
17.615,-0.191
17.620,-0.229
17.625,0.206
17.630,-0.008
17.635,-0.289
17.640,0.131
17.645,0.191
17.650,-0.230
17.655,-0.004
17.660,0.288
17.665,-0.118
17.670,-0.160
17.675,0.274
17.680,0.049
17.685,-0.242
17.690,0.210
17.695,0.336
17.700,-0.069
17.705,0.087
17.710,0.187
17.715,-0.626
17.720,-1.232
17.725,-1.246
17.730,-1.529
17.735,-1.529
17.740,-0.673
17.745,-0.068
17.750,-0.025
17.755,0.375
17.760,0.711
17.765,0.339
17.770,0.250
17.775,0.592
17.780,0.342
17.785,0.066
17.790,0.471
17.795,0.499
17.800,0.058
17.805,0.276
17.810,0.552
17.815,0.130
17.820,0.080
17.825,0.496
17.830,0.251
17.835,-0.049
17.840,0.350
17.845,0.371
17.850,-0.075
17.855,0.151
17.860,0.430
17.865,0.002
17.870,-0.045
17.875,0.377
17.880,0.135
17.885,-0.160
17.890,0.240
17.895,0.259
17.900,-0.184
17.905,0.039
17.910,0.315
17.915,-0.108
17.920,-0.153
17.925,0.269
17.930,0.024
17.935,-0.274
17.940,0.124
17.945,0.142
17.950,-0.301
17.955,-0.079
17.960,0.191
17.965,-0.234
17.970,-0.275
17.975,0.150
17.980,-0.092
17.985,-0.383
17.990,0.026
17.995,0.057
18.000,-0.374
18.005,-0.133
18.010,0.159
18.015,-0.246
18.020,-0.261
18.025,0.188
18.030,-0.029
18.035,-0.289
18.040,0.147
18.045,0.199
18.050,-0.208
18.055,0.052
18.060,0.351
18.065,-0.053
18.070,-0.075
18.075,0.363
18.080,0.130
18.085,-0.150
18.090,0.264
18.095,0.291
18.100,-0.137
18.105,0.101
18.110,0.375
18.115,-0.045
18.120,-0.077
18.125,0.346
18.130,0.101
18.135,-0.182
18.140,0.226
18.145,0.245
18.150,-0.185
18.155,0.058
18.160,0.331
18.165,-0.093
18.170,-0.120
18.175,0.303
18.180,0.052
18.185,-0.228
18.190,0.186
18.195,0.203
18.200,-0.229
18.205,0.012
18.210,0.285
18.215,-0.135
18.220,-0.160
18.225,0.264
18.230,0.015
18.235,-0.266
18.240,0.146
18.245,0.159
18.250,-0.274
18.255,-0.028
18.260,0.248
18.265,-0.171
18.270,-0.191
18.275,0.234
18.280,-0.016
18.285,-0.290
18.290,0.128
18.295,0.145
18.300,-0.284
18.305,-0.039
18.310,0.230
18.315,-0.189
18.320,-0.204
18.325,0.219
18.330,-0.033
18.335,-0.305
18.340,0.115
18.345,0.127
18.350,-0.301
18.355,-0.049
18.360,0.223
18.365,-0.199
18.370,-0.215
18.375,0.211
18.380,-0.037
18.385,-0.304
18.390,0.115
18.395,0.126
18.400,-0.298
18.405,-0.048
18.410,0.219
18.415,-0.200
18.420,-0.209
18.425,0.217
18.430,-0.040
18.435,-0.313
18.440,0.103
18.445,0.113
18.450,-0.313
18.455,-0.075
18.460,0.165
18.465,-0.268
18.470,-0.265
18.475,0.180
18.480,-0.058
18.485,-0.318
18.490,0.103
18.495,0.115
18.500,-0.305
18.505,-0.049
18.510,0.228
18.515,-0.177
18.520,-0.171
18.525,0.262
18.530,0.013
18.535,-0.246
18.540,0.172
18.545,0.174
18.550,-0.251
18.555,0.007
18.560,0.273
18.565,-0.133
18.570,-0.075
18.575,0.424
18.580,0.163
18.585,-0.195
18.590,-0.010
18.595,-0.463
18.600,-1.455
18.605,-1.582
18.610,-1.274
18.615,-1.337
18.620,-0.859
18.625,0.137
18.630,0.291
18.635,0.145
18.640,0.607
18.645,0.632
18.650,0.141
18.655,0.329
18.660,0.591
18.665,0.184
18.670,0.180
18.675,0.592
18.680,0.317
18.685,0.044
18.690,0.454
18.695,0.436
18.700,-0.002
18.705,0.247
18.710,0.493
18.715,0.055
18.720,0.044
18.725,0.453
18.730,0.177
18.735,-0.091
18.740,0.322
18.745,0.306
18.750,-0.124
18.755,0.131
18.760,0.377
18.765,-0.057
18.770,-0.064
18.775,0.344
18.780,0.069
18.785,-0.197
18.790,0.216
18.795,0.198
18.800,-0.234
18.805,0.020
18.810,0.262
18.815,-0.175
18.820,-0.179
18.825,0.231
18.830,-0.048
18.835,-0.318
18.840,0.093
18.845,0.077
18.850,-0.352
18.855,-0.089
18.860,0.160
18.865,-0.271
18.870,-0.262
18.875,0.154
18.880,-0.115
18.885,-0.362
18.890,0.069
18.895,0.067
18.900,-0.334
18.905,-0.045
18.910,0.225
18.915,-0.179
18.920,-0.144
18.925,0.295
18.930,0.045
18.935,-0.185
18.940,0.256
18.945,0.252
18.950,-0.158
18.955,0.120
18.960,0.371
18.965,-0.057
18.970,-0.041
18.975,0.376
18.980,0.101
18.985,-0.150
18.990,0.272
18.995,0.252
19.000,-0.169
19.005,0.100
19.010,0.341
19.015,-0.091
19.020,-0.078
19.025,0.333
19.030,0.054
19.035,-0.194
19.040,0.229
19.045,0.204
19.050,-0.215
19.055,0.056
19.060,0.295
19.065,-0.136
19.070,-0.120
19.075,0.290
19.080,0.007
19.085,-0.242
19.090,0.183
19.095,0.160
19.100,-0.260
19.105,0.013
19.110,0.252
19.115,-0.180
19.120,-0.161
19.125,0.251
19.130,-0.030
19.135,-0.273
19.140,0.154
19.145,0.128
19.150,-0.288
19.155,-0.009
19.160,0.231
19.165,-0.201
19.170,-0.177
19.175,0.236
19.180,-0.047
19.185,-0.288
19.190,0.141
19.195,0.115
19.200,-0.301
19.205,-0.021
19.210,0.218
19.215,-0.211
19.220,-0.185
19.225,0.227
19.230,-0.055
19.235,-0.294
19.240,0.135
19.245,0.106
19.250,-0.306
19.255,-0.023
19.260,0.213
19.265,-0.217
19.270,-0.187
19.275,0.226
19.280,-0.057
19.285,-0.292
19.290,0.138
19.295,0.107
19.300,-0.304
19.305,-0.019
19.310,0.214
19.315,-0.220
19.320,-0.187
19.325,0.224
19.330,-0.066
19.335,-0.306
19.340,0.123
19.345,0.094
19.350,-0.328
19.355,-0.062
19.360,0.158
19.365,-0.275
19.370,-0.228
19.375,0.205
19.380,-0.067
19.385,-0.297
19.390,0.132
19.395,0.102
19.400,-0.309
19.405,-0.020
19.410,0.226
19.415,-0.191
19.420,-0.144
19.425,0.277
19.430,-0.005
19.435,-0.233
19.440,0.197
19.445,0.159
19.450,-0.249
19.455,0.041
19.460,0.276
19.465,-0.107
19.470,0.001
19.475,0.416
19.480,0.051
19.485,-0.369
19.490,-0.346
19.495,-0.945
19.500,-1.784
19.505,-1.549
19.510,-1.034
19.515,-1.001
19.520,-0.398
19.525,0.466
19.530,0.346
19.535,0.167
19.540,0.633
19.545,0.550
19.550,0.084
19.555,0.377
19.560,0.616
19.565,0.179
19.570,0.214
19.575,0.613
19.580,0.305
19.585,0.064
19.590,0.482
19.595,0.426
19.600,0.007
19.605,0.288
19.610,0.497
19.615,0.051
19.620,0.084
19.625,0.476
19.630,0.165
19.635,-0.071
19.640,0.350
19.645,0.294
19.650,-0.122
19.655,0.161
19.660,0.371
19.665,-0.072
19.670,-0.036
19.675,0.357
19.680,0.047
19.685,-0.188
19.690,0.234
19.695,0.174
19.700,-0.240
19.705,0.047
19.710,0.252
19.715,-0.198
19.720,-0.163
19.725,0.230
19.730,-0.079
19.735,-0.311
19.740,0.111
19.745,0.052
19.750,-0.360
19.755,-0.067
19.760,0.147
19.765,-0.294
19.770,-0.251
19.775,0.148
19.780,-0.149
19.785,-0.360
19.790,0.083
19.795,0.045
19.800,-0.338
19.805,-0.017
19.810,0.224
19.815,-0.186
19.820,-0.111
19.825,0.314
19.830,0.033
19.835,-0.166
19.840,0.281
19.845,0.237
19.850,-0.158
19.855,0.147
19.860,0.362
19.865,-0.074
19.870,-0.021
19.875,0.379
19.880,0.072
19.885,-0.147
19.890,0.283
19.895,0.223
19.900,-0.182
19.905,0.116
19.910,0.325
19.915,-0.114
19.920,-0.061
19.925,0.336
19.930,0.028
19.935,-0.186
19.940,0.246
19.945,0.182
19.950,-0.223
19.955,0.078
19.960,0.284
19.965,-0.156
19.970,-0.101
19.975,0.294
19.980,-0.017
19.985,-0.233
19.990,0.199
19.995,0.136
20.000,-0.267
20.005,0.036
20.010,0.242
20.015,-0.198
20.020,-0.143
20.025,0.252
20.030,-0.059
20.035,-0.271
20.040,0.165
20.045,0.101
20.050,-0.299
20.055,0.008
20.060,0.213
20.065,-0.225
20.070,-0.163
20.075,0.234
20.080,-0.075
20.085,-0.282
20.090,0.153
20.095,0.090
20.100,-0.306
20.105,0.004
20.110,0.209
20.115,-0.229
20.120,-0.162
20.125,0.236
20.130,-0.077
20.135,-0.283
20.140,0.154
20.145,0.087
20.150,-0.310
20.155,0.002
20.160,0.206
20.165,-0.233
20.170,-0.166
20.175,0.231
20.180,-0.080
20.185,-0.282
20.190,0.155
20.195,0.087
20.200,-0.307
20.205,0.006
20.210,0.207
20.215,-0.232
20.220,-0.164
20.225,0.229
20.230,-0.087
20.235,-0.289
20.240,0.146
20.245,0.068
20.250,-0.331
20.255,-0.016
20.260,0.181
20.265,-0.268
20.270,-0.212
20.275,0.170
20.280,-0.146
20.285,-0.324
20.290,0.137
20.295,0.076
20.300,-0.315
20.305,0.003
20.310,0.205
20.315,-0.232
20.320,-0.154
20.325,0.254
20.330,-0.049
20.335,-0.233
20.340,0.219
20.345,0.149
20.350,-0.242
20.355,0.074
20.360,0.267
20.365,-0.172
20.370,-0.096
20.375,0.301
20.380,0.024
20.385,-0.103
20.390,0.350
20.395,0.206
20.400,-0.361
20.405,-0.428
20.410,-0.792
20.415,-1.672
20.420,-1.668
20.425,-1.014
20.430,-0.887
20.435,-0.529
20.440,0.375
20.445,0.489
20.450,0.154
20.455,0.508
20.460,0.657
20.465,0.155
20.470,0.233
20.475,0.638
20.480,0.311
20.485,0.112
20.490,0.540
20.495,0.442
20.500,0.038
20.505,0.348
20.510,0.524
20.515,0.069
20.520,0.140
20.525,0.515
20.530,0.179
20.535,-0.022
20.540,0.404
20.545,0.306
20.550,-0.094
20.555,0.217
20.560,0.391
20.565,-0.060
20.570,0.014
20.575,0.387
20.580,0.048
20.585,-0.147
20.590,0.284
20.595,0.186
20.600,-0.211
20.605,0.104
20.610,0.275
20.615,-0.177
20.620,-0.099
20.625,0.273
20.630,-0.068
20.635,-0.264
20.640,0.161
20.645,0.057
20.650,-0.339
20.655,-0.022
20.660,0.150
20.665,-0.300
20.670,-0.215
20.675,0.165
20.680,-0.167
20.685,-0.353
20.690,0.083
20.695,-0.010
20.700,-0.390
20.705,-0.053
20.710,0.140
20.715,-0.281
20.720,-0.165
20.725,0.242
20.730,-0.068
20.735,-0.227
20.740,0.236
20.745,0.164
20.750,-0.200
20.755,0.146
20.760,0.336
20.765,-0.098
20.770,0.002
20.775,0.387
20.780,0.055
20.785,-0.123
20.790,0.314
20.795,0.212
20.800,-0.175
20.805,0.152
20.810,0.322
20.815,-0.124
20.820,-0.031
20.825,0.348
20.830,0.010
20.835,-0.170
20.840,0.268
20.845,0.167
20.850,-0.217
20.855,0.111
20.860,0.280
20.865,-0.162
20.870,-0.066
20.875,0.306
20.880,-0.033
20.885,-0.208
20.890,0.230
20.895,0.125
20.900,-0.256
20.905,0.075
20.910,0.242
20.915,-0.202
20.920,-0.103
20.925,0.269
20.930,-0.072
20.935,-0.241
20.940,0.198
20.945,0.088
20.950,-0.291
20.955,0.045
20.960,0.210
20.965,-0.234
20.970,-0.130
20.975,0.245
20.980,-0.096
20.985,-0.263
20.990,0.181
20.995,0.072
21.000,-0.306
21.005,0.033
21.010,0.198
21.015,-0.244
21.020,-0.137
21.025,0.235
21.030,-0.105
21.035,-0.268
21.040,0.173
21.045,0.066
21.050,-0.308
21.055,0.030
21.060,0.192
21.065,-0.248
21.070,-0.137
21.075,0.235
21.080,-0.106
21.085,-0.266
21.090,0.177
21.095,0.065
21.100,-0.312
21.105,0.029
21.110,0.188
21.115,-0.254
21.120,-0.137
21.125,0.239
21.130,-0.107
21.135,-0.270
21.140,0.169
21.145,0.052
21.150,-0.321
21.155,0.023
21.160,0.179
21.165,-0.265
21.170,-0.149
21.175,0.220
21.180,-0.137
21.185,-0.313
21.190,0.115
21.195,0.000
21.200,-0.354
21.205,0.009
21.210,0.177
21.215,-0.264
21.220,-0.145
21.225,0.232
21.230,-0.113
21.235,-0.263
21.240,0.197
21.245,0.093
21.250,-0.265
21.255,0.093
21.260,0.251
21.265,-0.192
21.270,-0.070
21.275,0.299
21.280,-0.050
21.285,-0.204
21.290,0.241
21.295,0.161
21.300,-0.126
21.305,0.257
21.310,0.352
21.315,-0.259
21.320,-0.514
21.325,-0.696
21.330,-1.504
21.335,-1.758
21.340,-1.067
21.345,-0.771
21.350,-0.598
21.355,0.244
21.360,0.607
21.365,0.221
21.370,0.385
21.375,0.708
21.380,0.267
21.385,0.100
21.390,0.563
21.395,0.435
21.400,0.062
21.405,0.405
21.410,0.539
21.415,0.081
21.420,0.192
21.425,0.542
21.430,0.177
21.435,0.014
21.440,0.441
21.445,0.299
21.450,-0.078
21.455,0.265
21.460,0.401
21.465,-0.054
21.470,0.063
21.475,0.417
21.480,0.053
21.485,-0.100
21.490,0.332
21.495,0.186
21.500,-0.186
21.505,0.158
21.510,0.287
21.515,-0.168
21.520,-0.048
21.525,0.302
21.530,-0.064
21.535,-0.217
21.540,0.214
21.545,0.069
21.550,-0.308
21.555,0.035
21.560,0.161
21.565,-0.294
21.570,-0.166
21.575,0.185
21.580,-0.180
21.585,-0.324
21.590,0.112
21.595,-0.033
21.600,-0.397
21.605,-0.041
21.610,0.096
21.615,-0.338
21.620,-0.187
21.625,0.188
21.630,-0.154
21.635,-0.274
21.640,0.191
21.645,0.079
21.650,-0.256
21.655,0.126
21.660,0.281
21.665,-0.147
21.670,0.006
21.675,0.374
21.680,0.023
21.685,-0.106
21.690,0.337
21.695,0.195
21.700,-0.162
21.705,0.199
21.710,0.332
21.715,-0.117
21.720,0.020
21.725,0.369
21.730,0.000
21.735,-0.134
21.740,0.306
21.745,0.157
21.750,-0.204
21.755,0.153
21.760,0.281
21.765,-0.164
21.770,-0.025
21.775,0.324
21.780,-0.041
21.785,-0.177
21.790,0.258
21.795,0.109
21.800,-0.246
21.805,0.116
21.810,0.236
21.815,-0.214
21.820,-0.070
21.825,0.280
21.830,-0.088
21.835,-0.220
21.840,0.217
21.845,0.063
21.850,-0.290
21.855,0.077
21.860,0.202
21.865,-0.245
21.870,-0.098
21.875,0.254
21.880,-0.114
21.885,-0.244
21.890,0.199
21.895,0.046
21.900,-0.306
21.905,0.063
21.910,0.186
21.915,-0.262
21.920,-0.113
21.925,0.236
21.930,-0.132
21.935,-0.256
21.940,0.187
21.945,0.035
21.950,-0.313
21.955,0.055
21.960,0.175
21.965,-0.269
21.970,-0.114
21.975,0.235
21.980,-0.135
21.985,-0.255
21.990,0.190
21.995,0.036
22.000,-0.312
22.005,0.060
22.010,0.179
22.015,-0.264
22.020,-0.109
22.025,0.233
22.030,-0.140
22.035,-0.259
22.040,0.182
22.045,0.025
22.050,-0.320
22.055,0.051
22.060,0.164
22.065,-0.278
22.070,-0.117
22.075,0.220
22.080,-0.174
22.085,-0.311
22.090,0.126
22.095,-0.020
22.100,-0.347
22.105,0.040
22.110,0.161
22.115,-0.282
22.120,-0.117
22.125,0.226
22.130,-0.144
22.135,-0.237
22.140,0.224
22.145,0.072
22.150,-0.262
22.155,0.119
22.160,0.229
22.165,-0.219
22.170,-0.056
22.175,0.289
22.180,-0.083
22.185,-0.192
22.190,0.287
22.195,0.206
22.200,-0.095
22.205,0.227
22.210,0.177
22.215,-0.626
22.220,-1.004
22.225,-1.148
22.230,-1.657
22.235,-1.519
22.240,-0.671
22.245,-0.302
22.250,-0.121
22.255,0.477
22.260,0.633
22.265,0.238
22.270,0.378
22.275,0.626
22.280,0.219
22.285,0.132
22.290,0.576
22.295,0.398
22.300,0.048
22.305,0.414
22.310,0.505
22.315,0.047
22.320,0.201
22.325,0.524
22.330,0.132
22.335,0.018
22.340,0.448
22.345,0.261
22.350,-0.088
22.355,0.283
22.360,0.374
22.365,-0.081
22.370,0.078
22.375,0.403
22.380,0.015
22.385,-0.094
22.390,0.337
22.395,0.150
22.400,-0.199
22.405,0.170
22.410,0.258
22.415,-0.196
22.420,-0.031
22.425,0.292
22.430,-0.101
22.435,-0.210
22.440,0.217
22.445,0.027
22.450,-0.316
22.455,0.056
22.460,0.142
22.465,-0.309
22.470,-0.141
22.475,0.183
22.480,-0.208
22.485,-0.310
22.490,0.128
22.495,-0.049
22.500,-0.379
22.505,0.004
22.510,0.101
22.515,-0.332
22.520,-0.140
22.525,0.209
22.530,-0.155
22.535,-0.229
22.540,0.237
22.545,0.082
22.550,-0.226
22.555,0.177
22.560,0.284
22.565,-0.145
22.570,0.046
22.575,0.380
22.580,-0.004
22.585,-0.093
22.590,0.350
22.595,0.165
22.600,-0.164
22.605,0.219
22.610,0.303
22.615,-0.141
22.620,0.039
22.625,0.359
22.630,-0.032
22.635,-0.123
22.640,0.314
22.645,0.125
22.650,-0.205
22.655,0.176
22.660,0.257
22.665,-0.188
22.670,-0.004
22.675,0.317
22.680,-0.074
22.685,-0.162
22.690,0.273
22.695,0.080
22.700,-0.247
22.705,0.136
22.710,0.214
22.715,-0.231
22.720,-0.048
22.725,0.269
22.730,-0.122
22.735,-0.207
22.740,0.229
22.745,0.034
22.750,-0.291
22.755,0.100
22.760,0.180
22.765,-0.263
22.770,-0.073
22.775,0.245
22.780,-0.146
22.785,-0.224
22.790,0.212
22.795,0.015
22.800,-0.306
22.805,0.083
22.810,0.159
22.815,-0.279
22.820,-0.082
22.825,0.239
22.830,-0.155
22.835,-0.235
22.840,0.202
22.845,0.008
22.850,-0.310
22.855,0.081
22.860,0.156
22.865,-0.285
22.870,-0.088
22.875,0.232
22.880,-0.164
22.885,-0.238
22.890,0.205
22.895,0.007
22.900,-0.312
22.905,0.082
22.910,0.154
22.915,-0.285
22.920,-0.085
22.925,0.230
22.930,-0.164
22.935,-0.234
22.940,0.204
22.945,0.000
22.950,-0.317
22.955,0.078
22.960,0.145
22.965,-0.298
22.970,-0.098
22.975,0.218
22.980,-0.181
22.985,-0.263
22.990,0.157
22.995,-0.058
23.000,-0.369
23.005,0.046
23.010,0.134
23.015,-0.296
23.020,-0.092
23.025,0.225
23.030,-0.165
23.035,-0.232
23.040,0.212
23.045,0.023
23.050,-0.277
23.055,0.132
23.060,0.211
23.065,-0.221
23.070,-0.018
23.075,0.290
23.080,-0.109
23.085,-0.172
23.090,0.269
23.095,0.091
23.100,-0.149
23.105,0.283
23.110,0.298
23.115,-0.272
23.120,-0.388
23.125,-0.607
23.130,-1.503
23.135,-1.764
23.140,-1.150
23.145,-0.955
23.150,-0.738
23.155,0.184
23.160,0.519
23.165,0.152
23.170,0.408
23.175,0.703
23.180,0.239
23.185,0.164
23.190,0.617
23.195,0.404
23.200,0.092
23.205,0.485
23.210,0.529
23.215,0.079
23.220,0.278
23.225,0.568
23.230,0.153
23.235,0.083
23.240,0.505
23.245,0.279
23.250,-0.038
23.255,0.351
23.260,0.395
23.265,-0.055
23.270,0.145
23.275,0.436
23.280,0.022
23.285,-0.044
23.290,0.381
23.295,0.154
23.300,-0.159
23.305,0.235
23.310,0.275
23.315,-0.174
23.320,0.030
23.325,0.319
23.330,-0.096
23.335,-0.162
23.340,0.259
23.345,0.028
23.350,-0.285
23.355,0.106
23.360,0.144
23.365,-0.304
23.370,-0.100
23.375,0.191
23.380,-0.221
23.385,-0.279
23.390,0.149
23.395,-0.078
23.400,-0.384
23.405,0.015
23.410,0.063
23.415,-0.369
23.420,-0.142
23.425,0.170
23.430,-0.215
23.435,-0.238
23.440,0.220
23.445,0.022
23.450,-0.251
23.455,0.177
23.460,0.241
23.465,-0.176
23.470,0.063
23.475,0.370
23.480,-0.028
23.485,-0.066
23.490,0.368
23.495,0.142
23.500,-0.154
23.505,0.248
23.510,0.284
23.515,-0.153
23.520,0.070
23.525,0.358
23.530,-0.055
23.535,-0.100
23.540,0.328
23.545,0.097
23.550,-0.198
23.555,0.206
23.560,0.244
23.565,-0.194
23.570,0.027
23.575,0.316
23.580,-0.095
23.585,-0.138
23.590,0.290
23.595,0.056
23.600,-0.240
23.605,0.167
23.610,0.200
23.615,-0.237
23.620,-0.010
23.625,0.274
23.630,-0.142
23.635,-0.183
23.640,0.247
23.645,0.014
23.650,-0.281
23.655,0.125
23.660,0.159
23.665,-0.276
23.670,-0.045
23.675,0.242
23.680,-0.170
23.685,-0.207
23.690,0.220
23.695,-0.016
23.700,-0.303
23.705,0.108
23.710,0.138
23.715,-0.295
23.720,-0.063
23.725,0.225
23.730,-0.185
23.735,-0.218
23.740,0.212
23.745,-0.024
23.750,-0.307
23.755,0.107
23.760,0.134
23.765,-0.298
23.770,-0.059
23.775,0.227
23.780,-0.187
23.785,-0.217
23.790,0.214
23.795,-0.024
23.800,-0.309
23.805,0.103
23.810,0.131
23.815,-0.298
23.820,-0.056
23.825,0.227
23.830,-0.188
23.835,-0.212
23.840,0.219
23.845,-0.021
23.850,-0.303
23.855,0.109
23.860,0.132
23.865,-0.297
23.870,-0.060
23.875,0.215
23.880,-0.205
23.885,-0.231
23.890,0.198
23.895,-0.053
23.900,-0.350
23.905,0.050
23.910,0.067
23.915,-0.345
23.920,-0.078
23.925,0.214
23.930,-0.199
23.935,-0.220
23.940,0.214
23.945,-0.029
23.950,-0.305
23.955,0.126
23.960,0.163
23.965,-0.250
23.970,0.006
23.975,0.287
23.980,-0.130
23.985,-0.153
23.990,0.276
23.995,0.034
24.000,-0.243
24.005,0.178
24.010,0.242
24.015,-0.118
24.020,0.134
24.025,0.333
24.030,-0.273
24.035,-0.692
24.040,-0.819
24.045,-1.475
24.050,-1.771
24.055,-1.082
24.060,-0.641
24.065,-0.520
24.070,0.175
24.075,0.623
24.080,0.268
24.085,0.288
24.090,0.667
24.095,0.359
24.100,0.088
24.105,0.520
24.110,0.530
24.115,0.098
24.120,0.338
24.125,0.595
24.130,0.164
24.135,0.136
24.140,0.546
24.145,0.279
24.150,-0.005
24.155,0.400
24.160,0.396
24.165,-0.042
24.170,0.199
24.175,0.454
24.180,0.022
24.185,0.000
24.190,0.414
24.195,0.146
24.200,-0.135
24.205,0.277
24.210,0.276
24.215,-0.162
24.220,0.080
24.225,0.336
24.230,-0.094
24.235,-0.112
24.240,0.298
24.245,0.030
24.250,-0.249
24.255,0.158
24.260,0.149
24.265,-0.291
24.270,-0.048
24.275,0.205
24.280,-0.226
24.285,-0.241
24.290,0.173
24.295,-0.091
24.300,-0.363
24.305,0.048
24.310,0.046
24.315,-0.381
24.320,-0.124
24.325,0.141
24.330,-0.276
24.335,-0.270
24.340,0.168
24.345,-0.071
24.350,-0.308
24.355,0.139
24.360,0.163
24.365,-0.239
24.370,0.044
24.375,0.325
24.380,-0.081
24.385,-0.067
24.390,0.365
24.395,0.108
24.400,-0.145
24.405,0.282
24.410,0.280
24.415,-0.146
24.420,0.113
24.425,0.366
24.430,-0.064
24.435,-0.065
24.440,0.351
24.445,0.083
24.450,-0.179
24.455,0.240
24.460,0.232
24.465,-0.195
24.470,0.065
24.475,0.320
24.480,-0.107
24.485,-0.104
24.490,0.314
24.495,0.043
24.500,-0.218
24.505,0.202
24.510,0.192
24.515,-0.232
24.520,0.029
24.525,0.280
24.530,-0.148
24.535,-0.142
24.540,0.274
24.545,0.002
24.550,-0.256
24.555,0.164
24.560,0.151
24.565,-0.272
24.570,-0.009
24.575,0.239
24.580,-0.189
24.585,-0.182
24.590,0.231
24.595,-0.041
24.600,-0.292
24.605,0.133
24.610,0.122
24.615,-0.298
24.620,-0.029
24.625,0.221
24.630,-0.207
24.635,-0.196
24.640,0.223
24.645,-0.047
24.650,-0.297
24.655,0.128
24.660,0.111
24.665,-0.308
24.670,-0.035
24.675,0.215
24.680,-0.212
24.685,-0.196
24.690,0.220
24.695,-0.056
24.700,-0.301
24.705,0.129
24.710,0.113
24.715,-0.306
24.720,-0.034
24.725,0.213
24.730,-0.210
24.735,-0.188
24.740,0.230
24.745,-0.047
24.750,-0.292
24.755,0.139
24.760,0.116
24.765,-0.305
24.770,-0.029
24.775,0.214
24.780,-0.214
24.785,-0.194
24.790,0.216
24.795,-0.068
24.800,-0.313
24.805,0.113
24.810,0.078
24.815,-0.355
24.820,-0.090
24.825,0.151
24.830,-0.261
24.835,-0.214
24.840,0.218
24.845,-0.057
24.850,-0.299
24.855,0.134
24.860,0.109
24.865,-0.303
24.870,-0.007
24.875,0.248
24.880,-0.167
24.885,-0.127
24.890,0.293
24.895,0.010
24.900,-0.230
24.905,0.200
24.910,0.172
24.915,-0.243
24.920,0.046
24.925,0.331
24.930,-0.031
24.935,0.007
24.940,0.351
24.945,-0.121
24.950,-0.760
24.955,-0.880
24.960,-1.333
24.965,-1.774
24.970,-1.204
24.975,-0.556
24.980,-0.448
24.985,0.038
24.990,0.627
24.995,0.406
25.000,0.206
25.005,0.588
25.010,0.496
25.015,0.083
25.020,0.382
25.025,0.610
25.030,0.171
25.035,0.194
25.040,0.590
25.045,0.290
25.050,0.046
25.055,0.464
25.060,0.415
25.065,-0.006
25.070,0.272
25.075,0.487
25.080,0.038
25.085,0.058
25.090,0.455
25.095,0.155
25.100,-0.086
25.105,0.333
25.110,0.283
25.115,-0.138
25.120,0.141
25.125,0.359
25.130,-0.085
25.135,-0.057
25.140,0.339
25.145,0.036
25.150,-0.202
25.155,0.220
25.160,0.168
25.165,-0.254
25.170,0.022
25.175,0.233
25.180,-0.215
25.185,-0.186
25.190,0.210
25.195,-0.094
25.200,-0.330
25.205,0.092
25.210,0.041
25.215,-0.371
25.220,-0.083
25.225,0.134
25.230,-0.306
25.235,-0.264
25.240,0.141
25.245,-0.150
25.250,-0.358
25.255,0.094
25.260,0.069
25.265,-0.315
25.270,0.004
25.275,0.251
25.280,-0.156
25.285,-0.086
25.290,0.339
25.295,0.057
25.300,-0.151
25.305,0.295
25.310,0.254
25.315,-0.150
25.320,0.148
25.325,0.366
25.330,-0.069
25.335,-0.025
25.340,0.375
25.345,0.073
25.350,-0.152
25.355,0.277
25.360,0.224
25.365,-0.184
25.370,0.110
25.375,0.323
25.380,-0.118
25.385,-0.071
25.390,0.329
25.395,0.026
25.400,-0.193
25.405,0.239
25.410,0.180
25.415,-0.227
25.420,0.072
25.425,0.283
25.430,-0.157
25.435,-0.106
25.440,0.293
25.445,-0.017
25.450,-0.238
25.455,0.190
25.460,0.132
25.465,-0.271
25.470,0.032
25.475,0.242
25.480,-0.200
25.485,-0.147
25.490,0.254
25.495,-0.052
25.500,-0.268
25.505,0.165
25.510,0.106
25.515,-0.295
25.520,0.006
25.525,0.213
25.530,-0.225
25.535,-0.166
25.540,0.232
25.545,-0.073
25.550,-0.281
25.555,0.154
25.560,0.091
25.565,-0.313
25.570,-0.008
25.575,0.200
25.580,-0.235
25.585,-0.171
25.590,0.231
25.595,-0.079
25.600,-0.287
25.605,0.152
25.610,0.087
25.615,-0.310
25.620,0.003
25.625,0.207
25.630,-0.234
25.635,-0.171
25.640,0.229
25.645,-0.080
25.650,-0.286
25.655,0.148
25.660,0.082
25.665,-0.311
25.670,0.003
25.675,0.206
25.680,-0.234
25.685,-0.168
25.690,0.228
25.695,-0.085
25.700,-0.290
25.705,0.146
25.710,0.074
25.715,-0.325
25.720,-0.022
25.725,0.156
25.730,-0.302
25.735,-0.234
25.740,0.179
25.745,-0.115
25.750,-0.299
25.755,0.145
25.760,0.072
25.765,-0.316
25.770,-0.002
25.775,0.196
25.780,-0.224
25.785,-0.133
25.790,0.269
25.795,-0.034
25.800,-0.221
25.805,0.217
25.810,0.135
25.815,-0.258
25.820,0.065
25.825,0.264
25.830,-0.173
25.835,-0.065
25.840,0.404
25.845,0.136
25.850,-0.103
25.855,0.190
25.860,-0.222
25.865,-1.139
25.870,-1.317
25.875,-1.301
25.880,-1.528
25.885,-1.066
25.890,-0.164
25.895,0.050
25.900,0.115
25.905,0.617
25.910,0.582
25.915,0.169
25.920,0.406
25.925,0.564
25.930,0.141
25.935,0.224
25.940,0.602
25.945,0.268
25.950,0.067
25.955,0.494
25.960,0.397
25.965,-0.006
25.970,0.302
25.975,0.476
25.980,0.025
25.985,0.096
25.990,0.468
25.995,0.131
26.000,-0.065
26.005,0.365
26.010,0.268
26.015,-0.131
26.020,0.185
26.025,0.360
26.030,-0.093
26.035,-0.020
26.040,0.356
26.045,0.020
26.050,-0.176
26.055,0.254
26.060,0.155
26.065,-0.243
26.070,0.072
26.075,0.243
26.080,-0.207
26.085,-0.129
26.090,0.242
26.095,-0.099
26.100,-0.296
26.105,0.130
26.110,0.026
26.115,-0.367
26.120,-0.048
26.125,0.122
26.130,-0.323
26.135,-0.233
26.140,0.147
26.145,-0.183
26.150,-0.359
26.155,0.086
26.160,0.004
26.165,-0.357
26.170,0.000
26.175,0.201
26.180,-0.218
26.185,-0.098
26.190,0.308
26.195,-0.005
26.200,-0.163
26.205,0.292
26.210,0.209
26.215,-0.157
26.220,0.184
26.225,0.360
26.230,-0.080
26.235,0.016
26.240,0.393
26.245,0.058
26.250,-0.117
26.255,0.318
26.260,0.213
26.265,-0.171
26.270,0.158
26.275,0.326
26.280,-0.121
26.285,-0.026
26.290,0.349
26.295,0.011
26.300,-0.166
26.305,0.270
26.310,0.164
26.315,-0.221
26.320,0.109
26.325,0.277
26.330,-0.168
26.335,-0.070
26.340,0.307
26.345,-0.033
26.350,-0.212
26.355,0.221
26.360,0.114
26.365,-0.264
26.370,0.071
26.375,0.233
26.380,-0.217
26.385,-0.114
26.390,0.260
26.395,-0.080
26.400,-0.247
26.405,0.192
26.410,0.084
26.415,-0.294
26.420,0.043
26.425,0.208
26.430,-0.234
26.435,-0.127
26.440,0.247
26.445,-0.097
26.450,-0.266
26.455,0.173
26.460,0.061
26.465,-0.313
26.470,0.030
26.475,0.196
26.480,-0.246
26.485,-0.138
26.490,0.234
26.495,-0.107
26.500,-0.269
26.505,0.172
26.510,0.060
26.515,-0.316
26.520,0.026
26.525,0.188
26.530,-0.254
26.535,-0.142
26.540,0.231
26.545,-0.112
26.550,-0.271
26.555,0.172
26.560,0.059
26.565,-0.317
26.570,0.022
26.575,0.179
26.580,-0.263
26.585,-0.148
26.590,0.220
26.595,-0.125
26.600,-0.282
26.605,0.162
26.610,0.039
26.615,-0.350
26.620,-0.027
26.625,0.118
26.630,-0.315
26.635,-0.176
26.640,0.211
26.645,-0.127
26.650,-0.278
26.655,0.172
26.660,0.055
26.665,-0.314
26.670,0.044
26.675,0.216
26.680,-0.213
26.685,-0.089
26.690,0.282
26.695,-0.061
26.700,-0.212
26.705,0.228
26.710,0.106
26.715,-0.262
26.720,0.088
26.725,0.270
26.730,-0.096
26.735,0.077
26.740,0.401
26.745,-0.088
26.750,-0.561
26.755,-0.640
26.760,-1.271
26.765,-1.844
26.770,-1.323
26.775,-0.800
26.780,-0.707
26.785,-0.020
26.790,0.627
26.795,0.339
26.800,0.238
26.805,0.671
26.810,0.460
26.815,0.054
26.820,0.423
26.825,0.576
26.830,0.125
26.835,0.239
26.840,0.589
26.845,0.224
26.850,0.066
26.855,0.495
26.860,0.354
26.865,-0.024
26.870,0.314
26.875,0.444
26.880,-0.012
26.885,0.104
26.890,0.457
26.895,0.092
26.900,-0.064
26.905,0.366
26.910,0.224
26.915,-0.150
26.920,0.196
26.925,0.330
26.930,-0.124
26.935,-0.004
26.940,0.346
26.945,-0.023
26.950,-0.180
26.955,0.254
26.960,0.113
26.965,-0.264
26.970,0.077
26.975,0.206
26.980,-0.249
26.985,-0.129
26.990,0.219
26.995,-0.148
27.000,-0.300
27.005,0.132
27.010,-0.010
27.015,-0.378
27.020,-0.027
27.025,0.106
27.030,-0.344
27.035,-0.211
27.040,0.151
27.045,-0.199
27.050,-0.325
27.055,0.135
27.060,0.019
27.065,-0.316
27.070,0.068
27.075,0.231
27.080,-0.187
27.085,-0.027
27.090,0.350
27.095,0.007
27.100,-0.118
27.105,0.334
27.110,0.201
27.115,-0.155
27.120,0.207
27.125,0.344
27.130,-0.101
27.135,0.034
27.140,0.386
27.145,0.019
27.150,-0.121
27.155,0.319
27.160,0.173
27.165,-0.188
27.170,0.171
27.175,0.302
27.180,-0.146
27.185,-0.009
27.190,0.342
27.195,-0.025
27.200,-0.162
27.205,0.279
27.210,0.129
27.215,-0.233
27.220,0.126
27.225,0.253
27.230,-0.194
27.235,-0.055
27.240,0.292
27.245,-0.076
27.250,-0.207
27.255,0.230
27.260,0.077
27.265,-0.281
27.270,0.078
27.275,0.203
27.280,-0.244
27.285,-0.101
27.290,0.247
27.295,-0.120
27.300,-0.246
27.305,0.196
27.310,0.045
27.315,-0.308
27.320,0.056
27.325,0.177
27.330,-0.268
27.335,-0.117
27.340,0.236
27.345,-0.130
27.350,-0.256
27.355,0.186
27.360,0.036
27.365,-0.317
27.370,0.048
27.375,0.171
27.380,-0.272
27.385,-0.119
27.390,0.232
27.395,-0.137
27.400,-0.261
27.405,0.181
27.410,0.030
27.415,-0.315
27.420,0.057
27.425,0.176
27.430,-0.268
27.435,-0.114
27.440,0.233
27.445,-0.136
27.450,-0.255
27.455,0.186
27.460,0.030
27.465,-0.318
27.470,0.052
27.475,0.169
27.480,-0.274
27.485,-0.119
27.490,0.224
27.495,-0.150
27.500,-0.266
27.505,0.176
27.510,0.007
27.515,-0.357
27.520,0.000
27.525,0.111
27.530,-0.318
27.535,-0.136
27.540,0.225
27.545,-0.142
27.550,-0.254
27.555,0.194
27.560,0.032
27.565,-0.312
27.570,0.077
27.575,0.205
27.580,-0.227
27.585,-0.052
27.590,0.298
27.595,-0.075
27.600,-0.191
27.605,0.249
27.610,0.090
27.615,-0.248
27.620,0.137
27.625,0.300
27.630,-0.083
27.635,0.066
27.640,0.318
27.645,-0.282
27.650,-0.842
27.655,-0.965
27.660,-1.488
27.665,-1.776
27.670,-1.104
27.675,-0.543
27.680,-0.404
27.685,0.172
27.690,0.647
27.695,0.326
27.700,0.238
27.705,0.628
27.710,0.424
27.715,0.096
27.720,0.483
27.725,0.584
27.730,0.133
27.735,0.289
27.740,0.614
27.745,0.224
27.750,0.104
27.755,0.527
27.760,0.341
27.765,-0.008
27.770,0.355
27.775,0.442
27.780,-0.012
27.785,0.147
27.790,0.471
27.795,0.079
27.800,-0.035
27.805,0.395
27.810,0.212
27.815,-0.136
27.820,0.231
27.825,0.321
27.830,-0.135
27.835,0.025
27.840,0.349
27.845,-0.043
27.850,-0.155
27.855,0.274
27.860,0.086
27.865,-0.260
27.870,0.108
27.875,0.192
27.880,-0.263
27.885,-0.101
27.890,0.216
27.895,-0.179
27.900,-0.287
27.905,0.143
27.910,-0.043
27.915,-0.383
27.920,-0.007
27.925,0.085
27.930,-0.360
27.935,-0.183
27.940,0.152
27.945,-0.223
27.950,-0.305
27.955,0.154
27.960,0.000
27.965,-0.306
27.970,0.103
27.975,0.221
27.980,-0.198
27.985,0.003
27.990,0.351
27.995,-0.019
28.000,-0.101
28.005,0.350
28.010,0.175
28.015,-0.153
28.020,0.232
28.025,0.322
28.030,-0.125
28.035,0.051
28.040,0.376
28.045,-0.014
28.050,-0.111
28.055,0.324
28.060,0.135
28.065,-0.199
28.070,0.180
28.075,0.267
28.080,-0.178
28.085,-0.001
28.090,0.323
28.095,-0.066
28.100,-0.157
28.105,0.281
28.110,0.094
28.115,-0.237
28.120,0.148
28.125,0.233
28.130,-0.213
28.135,-0.032
28.140,0.290
28.145,-0.100
28.150,-0.192
28.155,0.243
28.160,0.053
28.165,-0.277
28.170,0.108
28.175,0.190
28.180,-0.255
28.185,-0.070
28.190,0.253
28.195,-0.139
28.200,-0.226
28.205,0.211
28.210,0.022
28.215,-0.303
28.220,0.083
28.225,0.166
28.230,-0.275
28.235,-0.087
28.240,0.234
28.245,-0.156
28.250,-0.238
28.255,0.202
28.260,0.012
28.265,-0.308
28.270,0.080
28.275,0.159
28.280,-0.282
28.285,-0.090
28.290,0.233
28.295,-0.157
28.300,-0.237
28.305,0.202
28.310,0.009
28.315,-0.312
28.320,0.076
28.325,0.155
28.330,-0.284
28.335,-0.091
28.340,0.229
28.345,-0.161
28.350,-0.239
28.355,0.198
28.360,0.003
28.365,-0.315
28.370,0.076
28.375,0.151
28.380,-0.290
28.385,-0.096
28.390,0.223
28.395,-0.169
28.400,-0.250
28.405,0.183
28.410,-0.013
28.415,-0.332
28.420,0.054
28.425,0.114
28.430,-0.341
28.435,-0.151
28.440,0.178
28.445,-0.194
28.450,-0.250
28.455,0.196
28.460,-0.002
28.465,-0.315
28.470,0.081
28.475,0.149
28.480,-0.278
28.485,-0.061
28.490,0.266
28.495,-0.115
28.500,-0.174
28.505,0.267
28.510,0.062
28.515,-0.250
28.520,0.147
28.525,0.213
28.530,-0.225
28.535,0.003
28.540,0.379
28.545,0.028
28.550,-0.072
28.555,0.252
28.560,-0.240
28.565,-1.056
28.570,-1.199
28.575,-1.394
28.580,-1.679
28.585,-1.112
28.590,-0.305
28.595,-0.144
28.600,0.115
28.605,0.644
28.610,0.491
28.615,0.177
28.620,0.511
28.625,0.552
28.630,0.130
28.635,0.339
28.640,0.641
28.645,0.233
28.650,0.157
28.655,0.581
28.660,0.360
28.665,0.038
28.670,0.423
28.675,0.465
28.680,0.010
28.685,0.207
28.690,0.505
28.695,0.096
28.700,0.021
28.705,0.442
28.710,0.217
28.715,-0.102
28.720,0.286
28.725,0.334
28.730,-0.113
28.735,0.088
28.740,0.382
28.745,-0.031
28.750,-0.105
28.755,0.317
28.760,0.094
28.765,-0.224
28.770,0.163
28.775,0.205
28.780,-0.245
28.785,-0.045
28.790,0.244
28.795,-0.172
28.800,-0.239
28.805,0.187
28.810,-0.039
28.815,-0.355
28.820,0.035
28.825,0.081
28.830,-0.366
28.835,-0.159
28.840,0.140
28.845,-0.265
28.850,-0.321
28.855,0.119
28.860,-0.086
28.865,-0.368
28.870,0.060
28.875,0.137
28.880,-0.276
28.885,-0.036
28.890,0.294
28.895,-0.083
28.900,-0.113
28.905,0.342
28.910,0.140
28.915,-0.150
28.920,0.259
28.925,0.310
28.930,-0.126
28.935,0.095
28.940,0.394
28.945,-0.015
28.950,-0.066
28.955,0.365
28.960,0.139
28.965,-0.166
28.970,0.231
28.975,0.270
28.980,-0.169
28.985,0.049
28.990,0.344
28.995,-0.067
29.000,-0.118
29.005,0.314
29.010,0.088
29.015,-0.215
29.020,0.185
29.025,0.224
29.030,-0.215
29.035,0.007
29.040,0.305
29.045,-0.106
29.050,-0.158
29.055,0.274
29.060,0.044
29.065,-0.258
29.070,0.146
29.075,0.183
29.080,-0.254
29.085,-0.027
29.090,0.266
29.095,-0.145
29.100,-0.192
29.105,0.235
29.110,0.005
29.115,-0.292
29.120,0.112
29.125,0.147
29.130,-0.290
29.135,-0.062
29.140,0.232
29.145,-0.177
29.150,-0.220
29.155,0.208
29.160,-0.020
29.165,-0.308
29.170,0.102
29.175,0.138
29.180,-0.297
29.185,-0.068
29.190,0.223
29.195,-0.188
29.200,-0.227
29.205,0.205
29.210,-0.025
29.215,-0.316
29.220,0.094
29.225,0.132
29.230,-0.296
29.235,-0.063
29.240,0.226
29.245,-0.186
29.250,-0.222
29.255,0.210
29.260,-0.021
29.265,-0.308
29.270,0.101
29.275,0.133
29.280,-0.299
29.285,-0.067
29.290,0.219
29.295,-0.191
29.300,-0.226
29.305,0.200
29.310,-0.039
29.315,-0.323
29.320,0.085
29.325,0.099
29.330,-0.355
29.335,-0.133
29.340,0.158
29.345,-0.233
29.350,-0.241
29.355,0.202
29.360,-0.034
29.365,-0.315
29.370,0.105
29.375,0.133
29.380,-0.290
29.385,-0.033
29.390,0.263
29.395,-0.143
29.400,-0.162
29.405,0.272
29.410,0.027
29.415,-0.254
29.420,0.164
29.425,0.188
29.430,-0.243
29.435,0.004
29.440,0.332
29.445,0.000
29.450,0.005
29.455,0.371
29.460,-0.046
29.465,-0.711
29.470,-0.855
29.475,-1.289
29.480,-1.806
29.485,-1.316
29.490,-0.626
29.495,-0.467
29.500,0.026
29.505,0.648
29.510,0.448
29.515,0.211
29.520,0.587
29.525,0.521
29.530,0.072
29.535,0.335
29.540,0.611
29.545,0.186
29.550,0.153
29.555,0.565
29.560,0.304
29.565,0.014
29.570,0.420
29.575,0.428
29.580,-0.016
29.585,0.214
29.590,0.475
29.595,0.049
29.600,0.022
29.605,0.434
29.610,0.173
29.615,-0.110
29.620,0.298
29.625,0.298
29.630,-0.144
29.635,0.095
29.640,0.356
29.645,-0.075
29.650,-0.100
29.655,0.317
29.660,0.058
29.665,-0.223
29.670,0.185
29.675,0.185
29.680,-0.254
29.685,-0.018
29.690,0.236
29.695,-0.197
29.700,-0.221
29.705,0.192
29.710,-0.075
29.715,-0.357
29.720,0.051
29.725,0.053
29.730,-0.376
29.735,-0.126
29.740,0.140
29.745,-0.280
29.750,-0.289
29.755,0.141
29.760,-0.109
29.765,-0.366
29.770,0.075
29.775,0.108
29.780,-0.291
29.785,-0.012
29.790,0.278
29.795,-0.119
29.800,-0.104
29.805,0.340
29.810,0.099
29.815,-0.153
29.820,0.279
29.825,0.291
29.830,-0.132
29.835,0.125
29.840,0.389
29.845,-0.035
29.850,-0.042
29.855,0.377
29.860,0.114
29.865,-0.154
29.870,0.261
29.875,0.258
29.880,-0.169
29.885,0.081
29.890,0.334
29.895,-0.089
29.900,-0.092
29.905,0.325
29.910,0.060
29.915,-0.206
29.920,0.211
29.925,0.209
29.930,-0.213
29.935,0.043
29.940,0.297
29.945,-0.129
29.950,-0.131
29.955,0.284
29.960,0.014
29.965,-0.252
29.970,0.167
29.975,0.161
29.980,-0.264
29.985,-0.001
29.990,0.254
29.995,-0.177
30.000,-0.178
30.005,0.241
30.010,-0.025
30.015,-0.282
30.020,0.138
30.025,0.129
30.030,-0.294
30.035,-0.027
30.040,0.229
30.045,-0.196
30.050,-0.188
30.055,0.231
30.060,-0.040
30.065,-0.298
30.070,0.126
30.075,0.116
30.080,-0.304
30.085,-0.034
30.090,0.220
30.095,-0.207
30.100,-0.198
30.105,0.220
30.110,-0.047
30.115,-0.299
30.120,0.125
30.125,0.115
30.130,-0.302
30.135,-0.033
30.140,0.216
30.145,-0.209
30.150,-0.196
30.155,0.221
30.160,-0.051
30.165,-0.300
30.170,0.127
30.175,0.111
30.180,-0.309
30.185,-0.038
30.190,0.213
30.195,-0.215
30.200,-0.207
30.205,0.207
30.210,-0.065
30.215,-0.311
30.220,0.104
30.225,0.064
30.230,-0.369
30.235,-0.096
30.240,0.167
30.245,-0.239
30.250,-0.211
30.255,0.208
30.260,-0.063
30.265,-0.302
30.270,0.126
30.275,0.112
30.280,-0.289
30.285,-0.003
30.290,0.255
30.295,-0.160
30.300,-0.137
30.305,0.279
30.310,0.001
30.315,-0.242
30.320,0.187
30.325,0.166
30.330,-0.242
30.335,0.081
30.340,0.401
30.345,-0.011
30.350,-0.065
30.355,0.166
30.360,-0.503
30.365,-1.310
30.370,-1.356
30.375,-1.473
30.380,-1.615
30.385,-0.890
30.390,-0.059
30.395,0.028
30.400,0.234
30.405,0.688
30.410,0.454
30.415,0.178
30.420,0.533
30.425,0.499
30.430,0.102
30.435,0.379
30.440,0.610
30.445,0.169
30.450,0.183
30.455,0.583
30.460,0.284
30.465,0.030
30.470,0.446
30.475,0.405
30.480,-0.024
30.485,0.244
30.490,0.469
30.495,0.025
30.500,0.041
30.505,0.443
30.510,0.148
30.515,-0.101
30.520,0.317
30.525,0.276
30.530,-0.150
30.535,0.121
30.540,0.345
30.545,-0.097
30.550,-0.075
30.555,0.329
30.560,0.031
30.565,-0.219
30.570,0.201
30.575,0.157
30.580,-0.270
30.585,0.001
30.590,0.220
30.595,-0.226
30.600,-0.203
30.605,0.196
30.610,-0.103
30.615,-0.344
30.620,0.079
30.625,0.036
30.630,-0.378
30.635,-0.094
30.640,0.134
30.645,-0.300
30.650,-0.263
30.655,0.153
30.660,-0.124
30.665,-0.334
30.670,0.122
30.675,0.111
30.680,-0.271
30.685,0.045
30.690,0.297
30.695,-0.113
30.700,-0.057
30.705,0.368
30.710,0.091
30.715,-0.129
30.720,0.308
30.725,0.273
30.730,-0.135
30.735,0.153
30.740,0.377
30.745,-0.060
30.750,-0.026
30.755,0.378
30.760,0.081
30.765,-0.154
30.770,0.275
30.775,0.230
30.780,-0.183
30.785,0.107
30.790,0.327
30.795,-0.113
30.800,-0.075
30.805,0.327
30.810,0.027
30.815,-0.201
30.820,0.233
30.825,0.187
30.830,-0.227
30.835,0.061
30.840,0.280
30.845,-0.156
30.850,-0.116
30.855,0.284
30.860,-0.015
30.865,-0.241
30.870,0.188
30.875,0.138
30.880,-0.273
30.885,0.021
30.890,0.241
30.895,-0.198
30.900,-0.154
30.905,0.249
30.910,-0.052
30.915,-0.278
30.920,0.154
30.925,0.106
30.930,-0.299
30.935,-0.001
30.940,0.218
30.945,-0.219
30.950,-0.172
30.955,0.234
30.960,-0.067
30.965,-0.287
30.970,0.148
30.975,0.097
30.980,-0.309
30.985,-0.011
30.990,0.206
30.995,-0.228
31.000,-0.178
31.005,0.223
31.010,-0.078
31.015,-0.294
31.020,0.140
31.025,0.089
31.030,-0.316
31.035,-0.014
31.040,0.205
31.045,-0.230
31.050,-0.177
31.055,0.227
31.060,-0.074
31.065,-0.288
31.070,0.149
31.075,0.095
31.080,-0.308
31.085,-0.007
31.090,0.204
31.095,-0.234
31.100,-0.181
31.105,0.218
31.110,-0.086
31.115,-0.300
31.120,0.135
31.125,0.078
31.130,-0.324
31.135,-0.029
31.140,0.165
31.145,-0.287
31.150,-0.236
31.155,0.174
31.160,-0.109
31.165,-0.301
31.170,0.145
31.175,0.088
31.180,-0.308
31.185,0.003
31.190,0.209
31.195,-0.222
31.200,-0.146
31.205,0.267
31.210,-0.028
31.215,-0.227
31.220,0.216
31.225,0.156
31.230,-0.246
31.235,0.062
31.240,0.273
31.245,-0.164
31.250,-0.086
31.255,0.373
31.260,0.116
31.265,-0.117
31.270,0.221
31.275,-0.102
31.280,-0.985
31.285,-1.242
31.290,-1.373
31.295,-1.707
31.300,-1.286
31.305,-0.409
31.310,-0.140
31.315,0.032
31.320,0.577
31.325,0.564
31.330,0.173
31.335,0.428
31.340,0.607
31.345,0.185
31.350,0.257
31.355,0.648
31.360,0.328
31.365,0.113
31.370,0.535
31.375,0.451
31.380,0.042
31.385,0.341
31.390,0.529
31.395,0.077
31.400,0.131
31.405,0.513
31.410,0.185
31.415,-0.030
31.420,0.394
31.425,0.311
31.430,-0.095
31.435,0.209
31.440,0.398
31.445,-0.054
31.450,0.007
31.455,0.392
31.460,0.064
31.465,-0.149
31.470,0.277
31.475,0.193
31.480,-0.215
31.485,0.086
31.490,0.271
31.495,-0.182
31.500,-0.124
31.505,0.252
31.510,-0.079
31.515,-0.288
31.520,0.137
31.525,0.051
31.530,-0.356
31.535,-0.051
31.540,0.137
31.545,-0.312
31.550,-0.247
31.555,0.140
31.560,-0.181
31.565,-0.377
31.570,0.065
31.575,-0.002
31.580,-0.378
31.585,-0.040
31.590,0.178
31.595,-0.235
31.600,-0.131
31.605,0.287
31.610,-0.007
31.615,-0.178
31.620,0.282
31.625,0.219
31.630,-0.162
31.635,0.166
31.640,0.367
31.645,-0.073
31.650,0.001
31.655,0.390
31.660,0.069
31.665,-0.126
31.670,0.306
31.675,0.220
31.680,-0.175
31.685,0.142
31.690,0.326
31.695,-0.121
31.700,-0.046
31.705,0.341
31.710,0.015
31.715,-0.180
31.720,0.257
31.725,0.171
31.730,-0.221
31.735,0.102
31.740,0.288
31.745,-0.159
31.750,-0.079
31.755,0.306
31.760,-0.024
31.765,-0.216
31.770,0.220
31.775,0.132
31.780,-0.257
31.785,0.062
31.790,0.241
31.795,-0.203
31.800,-0.121
31.805,0.260
31.810,-0.071
31.815,-0.259
31.820,0.179
31.825,0.091
31.830,-0.296
31.835,0.030
31.840,0.211
31.845,-0.234
31.850,-0.147
31.855,0.237
31.860,-0.097
31.865,-0.283
31.870,0.163
31.875,0.074
31.880,-0.315
31.885,0.011
31.890,0.194
31.895,-0.245
31.900,-0.156
31.905,0.229
31.910,-0.098
31.915,-0.279
31.920,0.160
31.925,0.067
31.930,-0.315
31.935,0.019
31.940,0.200
31.945,-0.242
31.950,-0.148
31.955,0.234
31.960,-0.097
31.965,-0.271
31.970,0.171
31.975,0.076
31.980,-0.307
31.985,0.023
31.990,0.199
31.995,-0.241
32.000,-0.141
32.005,0.243
32.010,-0.091
32.015,-0.275
32.020,0.160
32.025,0.060
32.030,-0.326
32.035,0.006
32.040,0.185
32.045,-0.258
32.050,-0.167
32.055,0.219
32.060,-0.112
32.065,-0.306
32.070,0.111
32.075,0.002
32.080,-0.368
32.085,-0.010
32.090,0.180
32.095,-0.256
32.100,-0.158
32.105,0.225
32.110,-0.101
32.115,-0.274
32.120,0.177
32.125,0.096
32.130,-0.272
32.135,0.071
32.140,0.253
32.145,-0.182
32.150,-0.081
32.155,0.296
32.160,-0.043
32.165,-0.212
32.170,0.232
32.175,0.139
32.180,-0.184
32.185,0.227
32.190,0.400
32.195,-0.124
32.200,-0.235
32.205,-0.292
32.210,-1.194
32.215,-1.780
32.220,-1.360
32.225,-1.152
32.230,-1.060
32.235,-0.138
32.240,0.489
32.245,0.200
32.250,0.349
32.255,0.751
32.260,0.353
32.265,0.119
32.270,0.560
32.275,0.467
32.280,0.083
32.285,0.410
32.290,0.564
32.295,0.110
32.300,0.207
32.305,0.569
32.310,0.212
32.315,0.033
32.320,0.460
32.325,0.334
32.330,-0.055
32.335,0.274
32.340,0.426
32.345,-0.025
32.350,0.074
32.355,0.432
32.360,0.075
32.365,-0.100
32.370,0.333
32.375,0.209
32.380,-0.177
32.385,0.160
32.390,0.310
32.395,-0.151
32.400,-0.051
32.405,0.309
32.410,-0.047
32.415,-0.217
32.420,0.212
32.425,0.085
32.430,-0.301
32.435,0.027
32.440,0.171
32.445,-0.283
32.450,-0.181
32.455,0.179
32.460,-0.174
32.465,-0.340
32.470,0.094
32.475,-0.029
32.480,-0.401
32.485,-0.060
32.490,0.093
32.495,-0.343
32.500,-0.215
32.505,0.166
32.510,-0.163
32.515,-0.295
32.520,0.173
32.525,0.081
32.530,-0.260
32.535,0.114
32.540,0.290
32.545,-0.136
32.550,0.003
32.555,0.385
32.560,0.044
32.565,-0.103
32.570,0.342
32.575,0.221
32.580,-0.146
32.585,0.203
32.590,0.349
32.595,-0.101
32.600,0.016
32.605,0.380
32.610,0.029
32.615,-0.124
32.620,0.308
32.625,0.174
32.630,-0.195
32.635,0.155
32.640,0.303
32.645,-0.144
32.650,-0.025
32.655,0.333
32.660,-0.025
32.665,-0.176
32.670,0.266
32.675,0.136
32.680,-0.237
32.685,0.107
32.690,0.249
32.695,-0.195
32.700,-0.068
32.705,0.293
32.710,-0.063
32.715,-0.215
32.720,0.222
32.725,0.091
32.730,-0.278
32.735,0.069
32.740,0.214
32.745,-0.231
32.750,-0.106
32.755,0.255
32.760,-0.101
32.765,-0.245
32.770,0.195
32.775,0.060
32.780,-0.304
32.785,0.052
32.790,0.196
32.795,-0.252
32.800,-0.125
32.805,0.237
32.810,-0.116
32.815,-0.258
32.820,0.183
32.825,0.048
32.830,-0.313
32.835,0.045
32.840,0.183
32.845,-0.262
32.850,-0.127
32.855,0.235
32.860,-0.125
32.865,-0.268
32.870,0.175
32.875,0.041
32.880,-0.318
32.885,0.041
32.890,0.179
32.895,-0.269
32.900,-0.135
32.905,0.226
32.910,-0.133
32.915,-0.272
32.920,0.170
32.925,0.024
32.930,-0.338
32.935,0.026
32.940,0.168
32.945,-0.279
32.950,-0.159
32.955,0.177
32.960,-0.196
32.965,-0.327
32.970,0.138
32.975,0.019
32.980,-0.332
32.985,0.027
32.990,0.169
32.995,-0.265
33.000,-0.128
33.005,0.236
33.010,-0.103
33.015,-0.223
33.020,0.220
33.025,0.080
33.030,-0.268
33.035,0.099
33.040,0.229
33.045,-0.216
33.050,-0.071
33.055,0.289
33.060,-0.063
33.065,-0.140
33.070,0.384
33.075,0.248
33.080,-0.198
33.085,-0.060
33.090,-0.368
33.095,-1.379
33.100,-1.655
33.105,-1.310
33.110,-1.341
33.115,-0.985
33.120,0.053
33.125,0.360
33.130,0.138
33.135,0.538
33.140,0.698
33.145,0.195
33.150,0.261
33.155,0.607
33.160,0.260
33.165,0.129
33.170,0.562
33.175,0.404
33.180,0.035
33.185,0.384
33.190,0.500
33.195,0.043
33.200,0.173
33.205,0.515
33.210,0.140
33.215,-0.001
33.220,0.427
33.225,0.263
33.230,-0.104
33.235,0.248
33.240,0.363
33.245,-0.088
33.250,0.054
33.255,0.392
33.260,0.012
33.265,-0.126
33.270,0.306
33.275,0.146
33.280,-0.218
33.285,0.137
33.290,0.251
33.295,-0.202
33.300,-0.066
33.305,0.269
33.310,-0.107
33.315,-0.238
33.320,0.188
33.325,0.020
33.330,-0.342
33.335,0.009
33.340,0.120
33.345,-0.328
33.350,-0.183
33.355,0.157
33.360,-0.218
33.365,-0.340
33.370,0.100
33.375,-0.054
33.380,-0.397
33.385,-0.020
33.390,0.112
33.395,-0.311
33.400,-0.131
33.405,0.243
33.410,-0.103
33.415,-0.195
33.420,0.273
33.425,0.136
33.430,-0.190
33.435,0.200
33.440,0.330
33.445,-0.106
33.450,0.052
33.455,0.400
33.460,0.030
33.465,-0.088
33.470,0.350
33.475,0.185
33.480,-0.166
33.485,0.203
33.490,0.312
33.495,-0.133
33.500,0.025
33.505,0.363
33.510,-0.019
33.515,-0.137
33.520,0.305
33.525,0.141
33.530,-0.209
33.535,0.162
33.540,0.274
33.545,-0.175
33.550,-0.021
33.555,0.315
33.560,-0.066
33.565,-0.185
33.570,0.251
33.575,0.086
33.580,-0.258
33.585,0.114
33.590,0.223
33.595,-0.224
33.600,-0.067
33.605,0.272
33.610,-0.106
33.615,-0.219
33.620,0.220
33.625,0.052
33.630,-0.290
33.635,0.087
33.640,0.192
33.645,-0.256
33.650,-0.088
33.655,0.252
33.660,-0.128
33.665,-0.240
33.670,0.198
33.675,0.027
33.680,-0.312
33.685,0.066
33.690,0.173
33.695,-0.271
33.700,-0.105
33.705,0.232
33.710,-0.146
33.715,-0.249
33.720,0.194
33.725,0.023
33.730,-0.313
33.735,0.065
33.740,0.168
33.745,-0.274
33.750,-0.107
33.755,0.232
33.760,-0.142
33.765,-0.244
33.770,0.197
33.775,0.025
33.780,-0.312
33.785,0.068
33.790,0.172
33.795,-0.275
33.800,-0.108
33.805,0.231
33.810,-0.149
33.815,-0.253
33.820,0.188
33.825,0.013
33.830,-0.322
33.835,0.056
33.840,0.141
33.845,-0.323
33.850,-0.164
33.855,0.173
33.860,-0.186
33.865,-0.262
33.870,0.189
33.875,0.013
33.880,-0.319
33.885,0.066
33.890,0.161
33.895,-0.272
33.900,-0.080
33.905,0.264
33.910,-0.104
33.915,-0.188
33.920,0.258
33.925,0.079
33.930,-0.256
33.935,0.125
33.940,0.222
33.945,-0.218
33.950,-0.012
33.955,0.389
33.960,0.048
33.965,-0.088
33.970,0.223
33.975,-0.271
33.980,-1.133
33.985,-1.297
33.990,-1.448
33.995,-1.702
34.000,-1.123
34.005,-0.248
34.010,-0.049
34.015,0.152
34.020,0.654
34.025,0.519
34.030,0.178
34.035,0.489
34.040,0.558
34.045,0.137
34.050,0.319
34.055,0.638
34.060,0.242
34.065,0.137
34.070,0.566
34.075,0.371
34.080,0.026
34.085,0.396
34.090,0.474
34.095,0.017
34.100,0.182
34.105,0.498
34.110,0.102
34.115,-0.002
34.120,0.424
34.125,0.228
34.130,-0.112
34.135,0.261
34.140,0.338
34.145,-0.114
34.150,0.054
34.155,0.370
34.160,-0.024
34.165,-0.122
34.170,0.306
34.175,0.106
34.180,-0.235
34.185,0.141
34.190,0.217
34.195,-0.238
34.200,-0.068
34.205,0.242
34.210,-0.161
34.215,-0.259
34.220,0.169
34.225,-0.032
34.230,-0.367
34.235,0.011
34.240,0.088
34.245,-0.358
34.250,-0.178
34.255,0.141
34.260,-0.247
34.265,-0.330
34.270,0.113
34.275,-0.067
34.280,-0.374
34.285,0.038
34.290,0.148
34.295,-0.267
34.300,-0.050
34.305,0.298
34.310,-0.068
34.315,-0.128
34.320,0.330
34.325,0.153
34.330,-0.156
34.335,0.242
34.340,0.325
34.345,-0.113
34.350,0.079
34.355,0.397
34.360,0.000
34.365,-0.086
34.370,0.353
34.375,0.157
34.380,-0.171
34.385,0.214
34.390,0.287
34.395,-0.155
34.400,0.035
34.405,0.347
34.410,-0.050
34.415,-0.130
34.420,0.307
34.425,0.107
34.430,-0.218
34.435,0.169
34.440,0.243
34.445,-0.197
34.450,-0.004
34.455,0.308
34.460,-0.091
34.465,-0.169
34.470,0.265
34.475,0.061
34.480,-0.259
34.485,0.130
34.490,0.198
34.495,-0.244
34.500,-0.050
34.505,0.265
34.510,-0.132
34.515,-0.209
34.520,0.228
34.525,0.026
34.530,-0.296
34.535,0.099
34.540,0.172
34.545,-0.272
34.550,-0.074
34.555,0.240
34.560,-0.158
34.565,-0.231
34.570,0.207
34.575,0.004
34.580,-0.311
34.585,0.084
34.590,0.150
34.595,-0.290
34.600,-0.088
34.605,0.226
34.610,-0.169
34.615,-0.239
34.620,0.199
34.625,-0.001
34.630,-0.314
34.635,0.081
34.640,0.151
34.645,-0.284
34.650,-0.081
34.655,0.228
34.660,-0.168
34.665,-0.232
34.670,0.204
34.675,-0.002
34.680,-0.316
34.685,0.075
34.690,0.139
34.695,-0.296
34.700,-0.093
34.705,0.213
34.710,-0.189
34.715,-0.251
34.720,0.191
34.725,-0.025
34.730,-0.356
34.735,0.024
34.740,0.086
34.745,-0.336
34.750,-0.107
34.755,0.215
34.760,-0.182
34.765,-0.242
34.770,0.204
34.775,-0.005
34.780,-0.315
34.785,0.095
34.790,0.174
34.795,-0.248
34.800,-0.026
34.805,0.292
34.810,-0.105
34.815,-0.168
34.820,0.267
34.825,0.056
34.830,-0.252
34.835,0.160
34.840,0.274
34.845,-0.107
34.850,0.091
34.855,0.314
34.860,-0.310
34.865,-0.821
34.870,-0.958
34.875,-1.527
34.880,-1.788
34.885,-1.113
34.890,-0.589
34.895,-0.429
34.900,0.190
34.905,0.639
34.910,0.295
34.915,0.249
34.920,0.636
34.925,0.394
34.930,0.100
34.935,0.509
34.940,0.560
34.945,0.117
34.950,0.320
34.955,0.611
34.960,0.195
34.965,0.123
34.970,0.544
34.975,0.318
34.980,0.001
34.985,0.384
34.990,0.426
34.995,-0.020
35.000,0.179
35.005,0.468
35.010,0.055
35.015,-0.013
35.020,0.411
35.025,0.184
35.030,-0.134
35.035,0.254
35.040,0.297
35.045,-0.149
35.050,0.056
35.055,0.350
35.060,-0.063
35.065,-0.132
35.070,0.285
35.075,0.052
35.080,-0.260
35.085,0.135
35.090,0.173
35.095,-0.276
35.100,-0.072
35.105,0.214
35.110,-0.204
35.115,-0.270
35.120,0.153
35.125,-0.073
35.130,-0.380
35.135,0.015
35.140,0.061
35.145,-0.373
35.150,-0.155
35.155,0.143
35.160,-0.255
35.165,-0.291
35.170,0.165
35.175,-0.030
35.180,-0.305
35.185,0.127
35.190,0.202
35.195,-0.211
35.200,0.030
35.205,0.350
35.210,-0.036
35.215,-0.070
35.220,0.372
35.225,0.153
35.230,-0.140
35.235,0.267
35.240,0.310
35.245,-0.129
35.250,0.093
35.255,0.384
35.260,-0.033
35.265,-0.084
35.270,0.349
35.275,0.122
35.280,-0.180
35.285,0.220
35.290,0.258
35.295,-0.185
35.300,0.030
35.305,0.325
35.310,-0.082
35.315,-0.130
35.320,0.301
35.325,0.070
35.330,-0.233
35.335,0.174
35.340,0.224
35.345,-0.210
35.350,0.006
35.355,0.292
35.360,-0.119
35.365,-0.165
35.370,0.265
35.375,0.035
35.380,-0.265
35.385,0.134
35.390,0.172
35.395,-0.263
35.400,-0.040
35.405,0.251
35.410,-0.157
35.415,-0.200
35.420,0.229
35.425,0.000
35.430,-0.295
35.435,0.109
35.440,0.147
35.445,-0.286
35.450,-0.059
35.455,0.229
35.460,-0.183
35.465,-0.225
35.470,0.204
35.475,-0.022
35.480,-0.311
35.485,0.095
35.490,0.133
35.495,-0.300
35.500,-0.073
35.505,0.217
35.510,-0.192
35.515,-0.227
35.520,0.208
35.525,-0.022
35.530,-0.313
35.535,0.092
35.540,0.127
35.545,-0.302
35.550,-0.071
35.555,0.215
35.560,-0.200
35.565,-0.240
35.570,0.194
35.575,-0.037
35.580,-0.328
35.585,0.081
35.590,0.115
35.595,-0.316
35.600,-0.093
35.605,0.173
35.610,-0.259
35.615,-0.300
35.620,0.146
35.625,-0.063
35.630,-0.332
35.635,0.084
35.640,0.111
35.645,-0.319
35.650,-0.081
35.655,0.211
35.660,-0.180
35.665,-0.196
35.670,0.243
35.675,0.019
35.680,-0.257
35.685,0.158
35.690,0.188
35.695,-0.245
35.700,-0.011
35.705,0.273
35.710,-0.134
35.715,-0.133
35.720,0.372
35.725,0.184
35.730,-0.140
35.735,0.134
35.740,-0.170
35.745,-1.137
35.750,-1.426
35.755,-1.354
35.760,-1.561
35.765,-1.182
35.770,-0.216
35.775,0.108
35.780,0.100
35.785,0.571
35.790,0.648
35.795,0.203
35.800,0.352
35.805,0.598
35.810,0.203
35.815,0.181
35.820,0.600
35.825,0.345
35.830,0.049
35.835,0.452
35.840,0.466
35.845,0.026
35.850,0.250
35.855,0.515
35.860,0.090
35.865,0.048
35.870,0.461
35.875,0.209
35.880,-0.085
35.885,0.316
35.890,0.331
35.895,-0.108
35.900,0.124
35.905,0.394
35.910,-0.031
35.915,-0.065
35.920,0.351
35.925,0.094
35.930,-0.198
35.935,0.205
35.940,0.218
35.945,-0.219
35.950,0.012
35.955,0.276
35.960,-0.152
35.965,-0.187
35.970,0.226
35.975,-0.033
35.980,-0.326
35.985,0.080
35.990,0.093
35.995,-0.348
36.000,-0.114
36.005,0.153
36.010,-0.270
36.015,-0.290
36.020,0.137
36.025,-0.111
36.030,-0.386
36.035,0.036
36.040,0.065
36.045,-0.346
36.050,-0.079
36.055,0.221
36.060,-0.170
36.065,-0.162
36.070,0.289
36.075,0.067
36.080,-0.184
36.085,0.253
36.090,0.282
36.095,-0.138
36.100,0.116
36.105,0.394
36.110,-0.022
36.115,-0.037
36.120,0.388
36.125,0.134
36.130,-0.148
36.135,0.260
36.140,0.268
36.145,-0.160
36.150,0.089
36.155,0.354
36.160,-0.072
36.165,-0.089
36.170,0.333
36.175,0.079
36.180,-0.192
36.185,0.222
36.190,0.227
36.195,-0.203
36.200,0.043
36.205,0.308
36.210,-0.116
36.215,-0.130
36.220,0.293
36.225,0.034
36.230,-0.241
36.235,0.175
36.240,0.181
36.245,-0.248
36.250,0.002
36.255,0.267
36.260,-0.157
36.265,-0.171
36.270,0.250
36.275,-0.009
36.280,-0.277
36.285,0.146
36.290,0.153
36.295,-0.276
36.300,-0.027
36.305,0.237
36.310,-0.185
36.315,-0.195
36.320,0.226
36.325,-0.029
36.330,-0.296
36.335,0.121
36.340,0.125
36.345,-0.299
36.350,-0.045
36.355,0.220
36.360,-0.199
36.365,-0.203
36.370,0.219
36.375,-0.042
36.380,-0.308
36.385,0.113
36.390,0.117
36.395,-0.307
36.400,-0.049
36.405,0.214
36.410,-0.208
36.415,-0.210
36.420,0.213
36.425,-0.048
36.430,-0.314
36.435,0.107
36.440,0.109
36.445,-0.316
36.450,-0.062
36.455,0.197
36.460,-0.221
36.465,-0.220
36.470,0.194
36.475,-0.085
36.480,-0.365
36.485,0.054
36.490,0.068
36.495,-0.334
36.500,-0.057
36.505,0.207
36.510,-0.213
36.515,-0.206
36.520,0.212
36.525,-0.050
36.530,-0.292
36.535,0.145
36.540,0.154
36.545,-0.253
36.550,0.017
36.555,0.273
36.560,-0.153
36.565,-0.151
36.570,0.271
36.575,0.009
36.580,-0.242
36.585,0.231
36.590,0.302
36.595,-0.105
36.600,0.085
36.605,0.153
36.610,-0.670
36.615,-1.235
36.620,-1.288
36.625,-1.622
36.630,-1.582
36.635,-0.716
36.640,-0.138
36.645,-0.057
36.650,0.380
36.655,0.677
36.660,0.297
36.665,0.265
36.670,0.610
36.675,0.337
36.680,0.100
36.685,0.521
36.690,0.505
36.695,0.075
36.700,0.329
36.705,0.567
36.710,0.131
36.715,0.128
36.720,0.532
36.725,0.249
36.730,-0.016
36.735,0.396
36.740,0.374
36.745,-0.061
36.750,0.194
36.755,0.436
36.760,0.000
36.765,-0.001
36.770,0.405
36.775,0.122
36.780,-0.142
36.785,0.274
36.790,0.253
36.795,-0.179
36.800,0.076
36.805,0.314
36.810,-0.122
36.815,-0.120
36.820,0.286
36.825,0.001
36.830,-0.261
36.835,0.152
36.840,0.124
36.845,-0.307
36.850,-0.048
36.855,0.189
36.860,-0.247
36.865,-0.244
36.870,0.164
36.875,-0.114
36.880,-0.366
36.885,0.054
36.890,0.031
36.895,-0.387
36.900,-0.109
36.905,0.146
36.910,-0.269
36.915,-0.235
36.920,0.202
36.925,-0.049
36.930,-0.270
36.935,0.184
36.940,0.192
36.945,-0.202
36.950,0.091
36.955,0.352
36.960,-0.064
36.965,-0.037
36.970,0.384
36.975,0.110
36.980,-0.133
36.985,0.295
36.990,0.273
36.995,-0.148
37.000,0.122
37.005,0.360
37.010,-0.072
37.015,-0.056
37.020,0.354
37.025,0.072
37.030,-0.175
37.035,0.248
37.040,0.221
37.045,-0.199
37.050,0.077
37.055,0.316
37.060,-0.118
37.065,-0.099
37.070,0.314
37.075,0.031
37.080,-0.217
37.085,0.205
37.090,0.179
37.095,-0.237
37.100,0.040
37.105,0.275
37.110,-0.161
37.115,-0.140
37.120,0.271
37.125,-0.014
37.130,-0.259
37.135,0.166
37.140,0.138
37.145,-0.277
37.150,-0.001
37.155,0.234
37.160,-0.199
37.165,-0.175
37.170,0.239
37.175,-0.045
37.180,-0.285
37.185,0.147
37.190,0.121
37.195,-0.296
37.200,-0.016
37.205,0.221
37.210,-0.210
37.215,-0.182
37.220,0.230
37.225,-0.054
37.230,-0.293
37.235,0.137
37.240,0.108
37.245,-0.305
37.250,-0.019
37.255,0.219
37.260,-0.214
37.265,-0.186
37.270,0.225
37.275,-0.057
37.280,-0.292
37.285,0.136
37.290,0.104
37.295,-0.306
37.300,-0.020
37.305,0.213
37.310,-0.221
37.315,-0.193
37.320,0.217
37.325,-0.068
37.330,-0.304
37.335,0.123
37.340,0.088
37.345,-0.322
37.350,-0.036
37.355,0.191
37.360,-0.257
37.365,-0.242
37.370,0.161
37.375,-0.117
37.380,-0.330
37.385,0.119
37.390,0.092
37.395,-0.316
37.400,-0.022
37.405,0.212
37.410,-0.222
37.415,-0.178
37.420,0.247
37.425,-0.034
37.430,-0.249
37.435,0.200
37.440,0.169
37.445,-0.244
37.450,0.044
37.455,0.274
37.460,-0.159
37.465,-0.121
37.470,0.313
37.475,0.088
37.480,-0.102
37.485,0.294
37.490,0.140
37.495,-0.571
37.500,-0.804
37.505,-1.118
37.510,-1.765
37.515,-1.564
37.520,-0.830
37.525,-0.591
37.530,-0.245
37.535,0.481
37.540,0.531
37.545,0.169
37.550,0.450
37.555,0.620
37.560,0.171
37.565,0.228
37.570,0.638
37.575,0.339
37.580,0.103
37.585,0.525
37.590,0.469
37.595,0.045
37.600,0.322
37.605,0.534
37.610,0.087
37.615,0.116
37.620,0.509
37.625,0.201
37.630,-0.036
37.635,0.384
37.640,0.328
37.645,-0.091
37.650,0.191
37.655,0.405
37.660,-0.041
37.665,-0.010
37.670,0.388
37.675,0.082
37.680,-0.157
37.685,0.265
37.690,0.213
37.695,-0.205
37.700,0.075
37.705,0.286
37.710,-0.162
37.715,-0.134
37.720,0.256
37.725,-0.053
37.730,-0.289
37.735,0.131
37.740,0.074
37.745,-0.344
37.750,-0.063
37.755,0.148
37.760,-0.290
37.765,-0.251
37.770,0.146
37.775,-0.155
37.780,-0.378
37.785,0.054
37.790,0.009
37.795,-0.386
37.800,-0.074
37.805,0.166
37.810,-0.243
37.815,-0.169
37.820,0.270
37.825,0.153
37.830,0.006
37.835,0.129
37.840,0.156
37.845,0.133
37.850,0.136
37.855,0.127
37.860,0.119
37.865,0.114
37.870,0.106
37.875,0.100
37.880,0.094
37.885,0.088
37.890,0.083
37.895,0.077
37.900,0.071
37.905,0.066
37.910,0.061
37.915,0.056
37.920,0.051
37.925,0.046
37.930,0.042
37.935,0.037
37.940,0.033
37.945,0.029
37.950,0.025
37.955,0.021
37.960,0.017
37.965,0.013
37.970,0.010
37.975,0.007
37.980,0.004
37.985,0.001
37.990,-0.003
37.995,-0.005
38.000,-0.008
38.005,-0.010
38.010,-0.012
38.015,-0.014
38.020,-0.016
38.025,-0.018
38.030,-0.019
38.035,-0.021
38.040,-0.023
38.045,-0.024
38.050,-0.025
38.055,-0.026
38.060,-0.028
38.065,-0.029
38.070,-0.030
38.075,-0.031
38.080,-0.032
38.085,-0.033
38.090,-0.033
38.095,-0.034
38.100,-0.034
38.105,-0.035
38.110,-0.035
38.115,-0.036
38.120,-0.036
38.125,-0.037
38.130,-0.037
38.135,-0.037
38.140,-0.037
38.145,-0.037
38.150,-0.037
38.155,-0.037
38.160,-0.036
38.165,-0.036
38.170,-0.036
38.175,-0.036
38.180,-0.036
38.185,-0.035
38.190,-0.035
38.195,-0.035
38.200,-0.034
38.205,-0.034
38.210,-0.034
38.215,-0.033
38.220,-0.033
38.225,-0.032
38.230,-0.032
38.235,-0.031
38.240,-0.031
38.245,-0.030
38.250,-0.030
38.255,-0.029
38.260,-0.028
38.265,-0.028
38.270,-0.027
38.275,-0.027
38.280,-0.026
38.285,-0.025
38.290,-0.024
38.295,-0.024
38.300,-0.024
38.305,-0.023
38.310,-0.022
38.315,-0.021
38.320,-0.021
38.325,-0.020
38.330,-0.020
38.335,-0.019
38.340,-0.018
38.345,-0.017
38.350,-0.017
38.355,-0.016
38.360,-0.016
38.365,-0.015
38.370,-0.014
38.375,-0.014
38.380,-0.014
38.385,-0.013
38.390,-0.013
38.395,-0.012
38.400,-0.011
38.405,-0.011
38.410,-0.010
38.415,-0.009
38.420,-0.009
38.425,-0.009
38.430,-0.008
38.435,-0.008
38.440,-0.007
38.445,-0.007
38.450,-0.006
38.455,-0.006
38.460,-0.005
38.465,-0.005
38.470,-0.004
38.475,-0.004
38.480,-0.004
38.485,-0.004
38.490,-0.003
38.495,-0.003
38.500,-0.002
38.505,-0.002
38.510,-0.002
38.515,-0.001
38.520,-0.001
38.525,-0.001
38.530,0.000
38.535,0.000
38.540,0.000
38.545,0.001
38.550,0.001
38.555,0.001
38.560,0.002
38.565,0.002
38.570,0.002
38.575,0.002
38.580,0.002
38.585,0.003
38.590,0.003
38.595,0.003
38.600,0.003
38.605,0.003
38.610,0.004
38.615,0.004
38.620,0.004
38.625,0.004
38.630,0.004
38.635,0.005
38.640,0.004
38.645,0.004
38.650,0.005
38.655,0.005
38.660,0.005
38.665,0.004
38.670,0.004
38.675,0.005
38.680,0.005
38.685,0.005
38.690,0.005
38.695,0.005
38.700,0.005
38.705,0.005
38.710,0.005
38.715,0.005
38.720,0.005
38.725,0.005
38.730,0.005
38.735,0.005
38.740,0.005
38.745,0.005
38.750,0.005
38.755,0.005
38.760,0.005
38.765,0.005
38.770,0.005
38.775,0.005
38.780,0.005
38.785,0.005
38.790,0.005
38.795,0.005
38.800,0.005
38.805,0.005
38.810,0.004
38.815,0.005
38.820,0.005
38.825,0.005
38.830,0.005
38.835,0.005
38.840,0.005
38.845,0.005
38.850,0.005
38.855,0.005
38.860,0.005
38.865,0.005
38.870,0.004
38.875,0.004
38.880,0.004
38.885,0.004
38.890,0.004
38.895,0.004
38.900,0.004
38.905,0.004
38.910,0.004
38.915,0.004
38.920,0.004
38.925,0.003
38.930,0.004
38.935,0.004
38.940,0.004
38.945,0.004
38.950,0.003
38.955,0.004
38.960,0.004
38.965,0.003
38.970,0.003
38.975,0.003
38.980,0.003
38.985,0.003
38.990,0.003
38.995,0.003
39.000,0.003
39.005,0.003
39.010,0.003
39.015,0.003
39.020,0.003
39.025,0.003
39.030,0.002
39.035,0.002
39.040,0.002
39.045,0.002
39.050,0.002
39.055,0.002
39.060,0.002
39.065,0.002
39.070,0.002
39.075,0.002
39.080,0.002
39.085,0.002
39.090,0.002
39.095,0.002
39.100,0.002
39.105,0.002
39.110,0.002
39.115,0.002
39.120,0.001
39.125,0.001
39.130,0.001
39.135,0.001
39.140,0.001
39.145,0.001
39.150,0.001
39.155,0.001
39.160,0.001
39.165,0.001
39.170,0.001
39.175,0.001
39.180,0.001
39.185,0.001
39.190,0.001
39.195,0.001
39.200,0.001
39.205,0.001
39.210,0.002
39.215,0.001
39.220,0.001
39.225,0.001
39.230,0.001
39.235,0.001
39.240,0.001
39.245,0.001
39.250,0.001
39.255,0.001
39.260,0.001
39.265,0.001
39.270,0.001
39.275,0.001
39.280,0.001
39.285,0.000
39.290,0.000
39.295,0.000
39.300,0.000
39.305,0.000
39.310,0.000
39.315,0.000
39.320,0.001
39.325,0.001
39.330,0.000
39.335,0.000
39.340,0.000
39.345,0.000
39.350,0.000
39.355,0.000
39.360,0.001
39.365,0.000
39.370,0.000
39.375,0.000
39.380,0.000
39.385,0.000
39.390,0.000
39.395,0.000
39.400,0.000
39.405,0.000
39.410,0.001
39.415,0.001
39.420,0.000
39.425,0.000
39.430,0.000
39.435,0.000
39.440,0.000
39.445,0.000
39.450,0.000
39.455,0.000
39.460,0.000
39.465,0.000
39.470,0.000
39.475,0.000
39.480,0.000
39.485,0.000
39.490,0.000
39.495,0.000
39.500,0.000
39.505,0.000
39.510,0.000
39.515,0.000
39.520,0.000
39.525,0.000
39.530,0.000
39.535,0.000
39.540,0.001
39.545,0.000
39.550,0.000
39.555,0.000
39.560,0.000
39.565,0.000
39.570,0.000
39.575,0.000
39.580,0.000
39.585,0.000
39.590,0.000
39.595,0.000
39.600,0.000
39.605,0.000
39.610,0.000
39.615,0.000
39.620,0.000
39.625,0.000
39.630,0.001
39.635,0.000
39.640,0.000
39.645,0.000
39.650,0.000
39.655,0.000
39.660,0.000
39.665,0.000
39.670,0.000
39.675,0.000
39.680,0.000
39.685,0.000
39.690,0.000
39.695,0.000
39.700,0.000
39.705,0.000
39.710,0.000
39.715,0.000
39.720,0.000
39.725,0.000
39.730,0.000
39.735,0.000
39.740,0.000
39.745,0.000
39.750,0.001
39.755,0.000
39.760,0.000
39.765,0.000
39.770,0.000
39.775,0.000
39.780,0.000
39.785,0.000
39.790,0.000
39.795,0.000
39.800,0.000
39.805,0.000
39.810,0.000
39.815,0.000
39.820,0.000
39.825,0.000
39.830,0.000
39.835,0.000
39.840,0.000
39.845,0.000
39.850,0.000
39.855,0.000
39.860,0.000
39.865,0.000
39.870,0.000
39.875,0.000
39.880,0.000
39.885,0.000
39.890,0.000
39.895,0.000
39.900,0.000
39.905,0.000
39.910,0.000
39.915,0.000
39.920,0.000
39.925,0.000
39.930,0.000
39.935,0.000
39.940,0.000
39.945,0.000
39.950,0.000
39.955,0.000
39.960,0.000
39.965,0.000
39.970,0.000
39.975,0.000
39.980,0.000
39.985,0.000
39.990,0.000
39.995,0.000
40.000,0.000
40.005,0.000
40.010,0.000
40.015,0.000
40.020,0.000
40.025,0.000
40.030,0.000
40.035,0.000
40.040,0.000
40.045,0.000
40.050,0.000
40.055,0.000
40.060,0.000
40.065,0.000
40.070,0.000
40.075,0.000
40.080,0.000
40.085,0.000
40.090,0.000
40.095,0.000
40.100,0.000
40.105,0.000
40.110,0.000
40.115,0.000
40.120,0.000
40.125,0.000
40.130,0.000
40.135,0.000
40.140,0.000
40.145,0.000
40.150,0.000
40.155,0.000
40.160,0.000
40.165,0.000
40.170,0.000
40.175,0.000
40.180,0.000
40.185,0.000
40.190,0.000
40.195,0.000
40.200,0.000
40.205,0.000
40.210,0.000
40.215,0.000
40.220,0.000
40.225,0.000
40.230,0.000
40.235,0.000
40.240,0.000
40.245,0.000
40.250,0.000
40.255,0.000
40.260,0.000
40.265,0.000
40.270,0.000
40.275,0.000
40.280,0.000
40.285,0.000
40.290,0.000
40.295,0.000
40.300,0.000
40.305,0.000
40.310,0.000
40.315,0.000
40.320,0.000
40.325,0.000
40.330,0.000
40.335,0.000
40.340,0.000
40.345,0.000
40.350,0.000
40.355,0.000
40.360,0.000
40.365,0.000
40.370,0.000
40.375,0.000
40.380,0.000
40.385,0.000
40.390,0.000
40.395,0.000
40.400,0.000
40.405,0.000
40.410,0.000
40.415,0.000
40.420,0.000
40.425,0.000
40.430,0.000
40.435,0.000
40.440,0.000
40.445,0.000
40.450,0.000
40.455,0.000
40.460,0.000
40.465,0.000
40.470,0.000
40.475,0.000
40.480,0.000
40.485,0.000
40.490,0.000
40.495,0.000
40.500,0.000
40.505,0.000
40.510,0.000
40.515,0.000
40.520,0.000
40.525,0.000
40.530,0.000
40.535,0.000
40.540,0.000
40.545,0.000
40.550,0.000
40.555,0.000
40.560,0.000
40.565,0.000
40.570,0.000
40.575,0.000
40.580,0.000
40.585,0.000
40.590,0.000
40.595,0.000
40.600,0.000
40.605,0.000
40.610,0.000
40.615,0.000
40.620,0.000
40.625,0.000
40.630,0.000
40.635,0.000
40.640,0.000
40.645,0.000
40.650,0.000
40.655,0.000
40.660,0.000
40.665,0.000
40.670,0.000
40.675,0.000
40.680,0.000
40.685,0.000
40.690,0.000
40.695,0.000
40.700,0.000
40.705,0.000
40.710,0.000
40.715,0.000
40.720,0.000
40.725,0.000
40.730,0.000
40.735,0.000
40.740,0.000
40.745,0.000
40.750,0.000
40.755,0.000
40.760,0.000
40.765,0.000
40.770,0.000
40.775,0.000
40.780,0.000
40.785,0.000
40.790,0.000
40.795,0.000
40.800,0.000
40.805,0.000
40.810,0.000
40.815,0.000
40.820,0.000
40.825,0.000
40.830,0.000
40.835,0.000
40.840,0.000
40.845,0.000
40.850,0.000
40.855,0.000
40.860,0.000
40.865,0.000
40.870,0.000
40.875,0.001
40.880,0.000
40.885,0.000
40.890,0.000
40.895,0.000
40.900,0.000
40.905,0.000
40.910,0.000
40.915,0.000
40.920,0.000
40.925,0.000
40.930,0.000
40.935,0.000
40.940,0.000
40.945,0.000
40.950,0.000
40.955,0.000
40.960,0.000
40.965,0.000
40.970,0.000
40.975,0.000
40.980,0.000
40.985,0.000
40.990,0.000
40.995,0.000
41.000,0.000
41.005,0.000
41.010,0.000
41.015,0.000
41.020,0.000
41.025,0.000
41.030,0.000
41.035,0.000
41.040,0.000
41.045,0.000
41.050,0.000
41.055,0.000
41.060,0.000
41.065,0.000
41.070,0.000
41.075,0.000
41.080,0.000
41.085,0.000
41.090,0.000
41.095,0.000
41.100,0.000
41.105,0.000
41.110,-0.001
41.115,0.000
41.120,0.000
41.125,0.000
41.130,0.000
41.135,0.000
41.140,0.000
41.145,0.000
41.150,0.000
41.155,0.000
41.160,0.000
41.165,0.000
41.170,0.000
41.175,0.000
41.180,0.000
41.185,0.000
41.190,0.000
41.195,0.000
41.200,0.000
41.205,0.000
41.210,0.000
41.215,0.001
41.220,0.000
41.225,0.000
41.230,0.000
41.235,0.000
41.240,0.000
41.245,0.000
41.250,0.000
41.255,0.000
41.260,0.000
41.265,0.000
41.270,0.000
41.275,0.000
41.280,0.000
41.285,0.000
41.290,0.000
41.295,0.000
41.300,0.000
41.305,0.000
41.310,0.000
41.315,0.000
41.320,0.000
41.325,0.000
41.330,0.000
41.335,0.000
41.340,0.000
41.345,0.000
41.350,0.000
41.355,0.000
41.360,0.000
41.365,0.000
41.370,0.000
41.375,0.000
41.380,0.000
41.385,0.000
41.390,0.000
41.395,0.000
41.400,0.000
41.405,0.001
41.410,0.000
41.415,0.000
41.420,0.000
41.425,0.000
41.430,0.000
41.435,0.000
41.440,0.000
41.445,0.000
41.450,0.000
41.455,0.000
41.460,0.000
41.465,0.000
41.470,0.000
41.475,0.000
41.480,0.000
41.485,0.000
41.490,0.000
41.495,0.000
41.500,0.000
41.505,0.000
41.510,0.000
41.515,0.000
41.520,0.000
41.525,0.000
41.530,0.000
41.535,0.000
41.540,0.000
41.545,0.001
41.550,0.000
41.555,0.000
41.560,0.000
41.565,0.000
41.570,0.000
41.575,0.000
41.580,0.000
41.585,0.000
41.590,0.000
41.595,0.000
41.600,0.000
41.605,0.000
41.610,0.000
41.615,0.000
41.620,0.000
41.625,0.000
41.630,0.000
41.635,0.000
41.640,0.000
41.645,0.000
41.650,-0.001
41.655,0.000
41.660,0.000
41.665,0.000
41.670,0.000
41.675,0.000
41.680,0.000
41.685,0.000
41.690,0.000
41.695,0.000
41.700,0.000
41.705,0.000
41.710,0.000
41.715,0.000
41.720,0.000
41.725,0.000
41.730,0.000
41.735,0.000
41.740,0.000
41.745,0.000
41.750,0.000
41.755,0.000
41.760,0.000
41.765,0.000
41.770,0.000
41.775,0.000
41.780,0.000
41.785,0.000
41.790,0.000
41.795,0.000
41.800,0.000
41.805,0.000
41.810,0.000
41.815,0.000
41.820,0.000
41.825,0.000
41.830,0.000
41.835,0.000
41.840,0.000
41.845,0.000
41.850,0.000
41.855,0.000
41.860,0.000
41.865,0.000
41.870,0.000
41.875,0.000
41.880,0.000
41.885,0.000
41.890,0.000
41.895,0.000
41.900,0.000
41.905,0.000
41.910,0.000
41.915,0.000
41.920,0.000
41.925,0.000
41.930,0.000
41.935,0.000
41.940,0.000
41.945,0.000
41.950,0.000
41.955,0.000
41.960,0.000
41.965,0.000
41.970,0.001
41.975,0.000
41.980,0.000
41.985,0.000
41.990,0.000
41.995,0.000
42.000,0.000
42.005,0.000
42.010,0.000
42.015,0.000
42.020,0.000
42.025,0.000
42.030,0.000
42.035,0.000
42.040,0.000
42.045,0.000
42.050,0.000
42.055,0.001
42.060,0.000
42.065,0.000
42.070,0.000
42.075,0.000
42.080,0.000
42.085,0.000
42.090,0.000
42.095,0.000
42.100,0.000
42.105,0.000
42.110,0.000
42.115,0.000
42.120,0.000
42.125,0.000
42.130,0.000
42.135,-0.001
42.140,0.000
42.145,0.000
42.150,0.000
42.155,0.000
42.160,0.000
42.165,0.000
42.170,0.000
42.175,0.000
42.180,0.000
42.185,0.000
42.190,0.000
42.195,0.000
42.200,0.000
42.205,0.000
42.210,0.000
42.215,0.000
42.220,0.000
42.225,0.000
42.230,0.000
42.235,0.000
42.240,0.000
42.245,0.000
42.250,0.000
42.255,0.000
42.260,0.000
42.265,0.000
42.270,0.000
42.275,0.000
42.280,0.000
42.285,0.000
42.290,0.000
42.295,0.000
42.300,0.000
42.305,-0.001
42.310,0.000
42.315,0.000
42.320,0.000
42.325,0.000
42.330,0.000
42.335,0.000
42.340,0.000
42.345,0.000
42.350,0.000
42.355,0.000
42.360,0.000
42.365,0.000
42.370,0.000
42.375,0.000
42.380,0.000
42.385,0.000
42.390,0.000
42.395,0.000
42.400,0.000
42.405,0.000
42.410,0.000
42.415,0.000
42.420,0.000
42.425,0.000
42.430,0.000
42.435,0.000
42.440,0.000
42.445,0.000
42.450,0.000
42.455,0.000
42.460,0.000
42.465,0.000
42.470,0.000
42.475,0.000
42.480,0.000
42.485,0.000
42.490,0.000
42.495,0.000
42.500,0.000
42.505,0.000
42.510,0.000
42.515,0.000
42.520,0.000
42.525,0.000
42.530,0.000
42.535,0.000
42.540,0.000
42.545,0.000
42.550,0.000
42.555,0.000
42.560,0.000
42.565,0.000
42.570,0.000
42.575,0.000
42.580,0.000
42.585,0.000
42.590,0.000
42.595,0.000
42.600,0.000
42.605,0.000
42.610,0.000
42.615,0.000
42.620,0.000
42.625,0.000
42.630,0.000
42.635,0.000
42.640,0.000
42.645,0.000
42.650,0.000
42.655,0.000
42.660,0.000
42.665,0.000
42.670,0.000
42.675,0.000
42.680,0.001
42.685,0.000
42.690,0.000
42.695,0.000
42.700,0.000
42.705,0.000
42.710,0.000
42.715,0.000
42.720,0.000
42.725,0.000
42.730,0.000
42.735,0.000
42.740,0.000
42.745,0.000
42.750,0.000
42.755,0.000
42.760,0.000
42.765,0.000
42.770,0.000
42.775,0.000
42.780,0.000
42.785,0.000
42.790,0.000
42.795,0.000
42.800,0.000
42.805,0.000
42.810,0.000
42.815,0.000
42.820,0.000
42.825,0.000
42.830,0.000
42.835,0.000
42.840,0.000
42.845,0.000
42.850,0.000
42.855,0.000
42.860,0.000
42.865,0.000
42.870,0.000
42.875,0.000
42.880,0.000
42.885,0.000
42.890,0.000
42.895,0.000
42.900,0.000
42.905,0.000
42.910,0.000
42.915,0.000
42.920,0.000
42.925,0.000
42.930,0.000
42.935,0.000
42.940,0.000
42.945,0.000
42.950,0.000
42.955,0.000
42.960,0.000
42.965,0.000
42.970,0.000
42.975,0.000
42.980,0.000
42.985,0.000
42.990,0.000
42.995,0.000
43.000,0.000
43.005,0.000
43.010,0.000
43.015,0.000
43.020,0.000
43.025,0.000
43.030,0.000
43.035,0.000
43.040,0.000
43.045,0.000
43.050,0.000
43.055,0.000
43.060,0.000
43.065,0.000
43.070,0.000
43.075,0.000
43.080,0.000
43.085,0.000
43.090,0.000
43.095,0.000
43.100,0.000
43.105,0.000
43.110,0.000
43.115,0.000
43.120,0.000
43.125,0.000
43.130,0.000
43.135,0.000
43.140,0.000
43.145,0.000
43.150,0.000
43.155,0.000
43.160,0.000
43.165,0.000
43.170,0.000
43.175,0.000
43.180,0.000
43.185,0.000
43.190,0.000
43.195,0.000
43.200,0.000
43.205,0.000
43.210,0.000
43.215,0.000
43.220,0.000
43.225,0.000
43.230,0.000
43.235,0.000
43.240,0.000
43.245,0.000
43.250,0.000
43.255,0.000
43.260,0.000
43.265,0.000
43.270,0.000
43.275,0.000
43.280,0.000
43.285,0.000
43.290,0.000
43.295,0.000
43.300,0.000
43.305,0.000
43.310,0.000
43.315,0.000
43.320,0.000
43.325,0.000
43.330,0.000
43.335,0.000
43.340,0.000
43.345,0.000
43.350,0.000
43.355,0.000
43.360,0.000
43.365,0.000
43.370,0.000
43.375,0.000
43.380,0.000
43.385,0.000
43.390,0.000
43.395,0.000
43.400,0.000
43.405,0.000
43.410,0.000
43.415,0.000
43.420,0.000
43.425,0.000
43.430,0.000
43.435,0.000
43.440,0.000
43.445,0.000
43.450,0.000
43.455,0.000
43.460,0.000
43.465,0.000
43.470,0.000
43.475,0.000
43.480,0.000
43.485,0.000
43.490,0.000
43.495,0.000
43.500,0.000
43.505,0.000
43.510,0.000
43.515,0.000
43.520,-0.001
43.525,0.000
43.530,0.000
43.535,0.000
43.540,0.000
43.545,0.000
43.550,0.000
43.555,0.000
43.560,0.000
43.565,0.000
43.570,0.000
43.575,0.000
43.580,0.000
43.585,0.000
43.590,0.000
43.595,0.000
43.600,0.000
43.605,0.000
43.610,0.000
43.615,0.000
43.620,0.000
43.625,0.000
43.630,0.000
43.635,0.000
43.640,0.000
43.645,0.000
43.650,0.000
43.655,0.000
43.660,0.000
43.665,0.000
43.670,0.000
43.675,0.000
43.680,0.000
43.685,0.000
43.690,0.000
43.695,0.000
43.700,0.000
43.705,0.000
43.710,0.000
43.715,0.000
43.720,0.000
43.725,0.000
43.730,0.000
43.735,0.000
43.740,0.000
43.745,0.000
43.750,0.000
43.755,0.000
43.760,0.000
43.765,0.000
43.770,0.000
43.775,0.000
43.780,0.000
43.785,0.000
43.790,0.000
43.795,0.000
43.800,0.000
43.805,0.000
43.810,0.000
43.815,0.000
43.820,0.000
43.825,0.000
43.830,0.000
43.835,0.000
43.840,0.000
43.845,0.000
43.850,0.000
43.855,0.000
43.860,0.000
43.865,0.000
43.870,0.000
43.875,0.000
43.880,0.000
43.885,0.000
43.890,0.000
43.895,0.000
43.900,0.000
43.905,0.000
43.910,0.000
43.915,0.000
43.920,0.000
43.925,0.000
43.930,0.000
43.935,0.000
43.940,0.000
43.945,0.000
43.950,0.000
43.955,0.000
43.960,0.000
43.965,0.000
43.970,0.000
43.975,0.000
43.980,0.000
43.985,0.000
43.990,0.000
43.995,0.000
44.000,0.000
44.005,0.000
44.010,0.000
44.015,0.000
44.020,0.000
44.025,0.000
44.030,0.000
44.035,0.000
44.040,0.000
44.045,0.000
44.050,0.000
44.055,0.001
44.060,0.000
44.065,0.000
44.070,0.000
44.075,0.000
44.080,0.000
44.085,0.000
44.090,0.000
44.095,0.000
44.100,0.000
44.105,0.000
44.110,0.000
44.115,0.000
44.120,0.000
44.125,0.000
44.130,0.000
44.135,0.000
44.140,0.000
44.145,0.000
44.150,0.000
44.155,0.001
44.160,0.000
44.165,0.000
44.170,0.000
44.175,0.000
44.180,0.000
44.185,0.000
44.190,0.000
44.195,0.000
44.200,0.000
44.205,0.000
44.210,0.000
44.215,0.000
44.220,0.000
44.225,0.000
44.230,0.000
44.235,0.000
44.240,0.000
44.245,0.000
44.250,0.000
44.255,0.000
44.260,0.000
44.265,0.000
44.270,0.000
44.275,0.000
44.280,0.000
44.285,0.000
44.290,0.000
44.295,0.000
44.300,0.000
44.305,0.000
44.310,0.000
44.315,0.000
44.320,0.000
44.325,0.000
44.330,0.000
44.335,0.000
44.340,0.000
44.345,0.000
44.350,0.000
44.355,0.000
44.360,0.000
44.365,0.000
44.370,0.000
44.375,0.000
44.380,0.000
44.385,0.000
44.390,0.000
44.395,0.000
44.400,0.000
44.405,0.000
44.410,0.000
44.415,0.000
44.420,0.000
44.425,0.000
44.430,0.000
44.435,0.000
44.440,0.000
44.445,0.000
44.450,0.000
44.455,0.000
44.460,0.000
44.465,0.000
44.470,0.000
44.475,0.000
44.480,0.000
44.485,0.000
44.490,0.000
44.495,0.000
44.500,0.000
44.505,0.000
44.510,0.000
44.515,0.000
44.520,0.000
44.525,0.000
44.530,0.000
44.535,0.000
44.540,0.000
44.545,0.000
44.550,0.000
44.555,0.000
44.560,0.000
44.565,0.000
44.570,0.000
44.575,0.000
44.580,0.000
44.585,0.000
44.590,0.000
44.595,0.000
44.600,0.000
44.605,0.000
44.610,0.000
44.615,0.000
44.620,0.000
44.625,0.000
44.630,0.000
44.635,0.000
44.640,0.000
44.645,0.001
44.650,0.000
44.655,0.000
44.660,0.000
44.665,0.000
44.670,0.000
44.675,0.000
44.680,0.000
44.685,0.000
44.690,0.000
44.695,0.000
44.700,0.000
44.705,0.000
44.710,0.000
44.715,0.000
44.720,0.000
44.725,0.000
44.730,0.000
44.735,0.000
44.740,0.000
44.745,0.000
44.750,0.000
44.755,0.000
44.760,0.000
44.765,0.000
44.770,0.000
44.775,0.000
44.780,0.000
44.785,0.000
44.790,0.000
44.795,0.000
44.800,0.000
44.805,0.000
44.810,0.000
44.815,0.000
44.820,0.000
44.825,0.000
44.830,0.000
44.835,0.000
44.840,0.000
44.845,0.000
44.850,0.000
44.855,0.000
44.860,0.000
44.865,0.000
44.870,0.000
44.875,0.000
44.880,0.000
44.885,0.000
44.890,0.000
44.895,0.000
44.900,0.000
44.905,0.000
44.910,0.000
44.915,0.000
44.920,0.000
44.925,0.000
44.930,0.000
44.935,0.000
44.940,0.000
44.945,0.000
44.950,0.000
44.955,0.000
44.960,0.000
44.965,0.000
44.970,0.000
44.975,0.000
44.980,0.000
44.985,0.000
44.990,0.000
44.995,0.000
45.000,0.000
45.005,0.000
45.010,0.000
45.015,0.000
45.020,0.001
45.025,0.001
45.030,0.000
45.035,0.000
45.040,0.000
45.045,0.000
45.050,0.000
45.055,0.000
45.060,0.000
45.065,0.000
45.070,0.000
45.075,0.000
45.080,0.000
45.085,0.000
45.090,0.000
45.095,0.000
45.100,0.000
45.105,0.000
45.110,0.000
45.115,0.000
45.120,0.000
45.125,-0.001
45.130,0.000
45.135,0.000
45.140,0.000
45.145,0.000
45.150,0.000
45.155,0.000
45.160,0.000
45.165,0.000
45.170,0.000
45.175,0.000
45.180,0.000
45.185,0.000
45.190,0.000
45.195,0.000
45.200,0.000
45.205,0.000
45.210,0.000
45.215,0.000
45.220,0.000
45.225,0.000
45.230,0.000
45.235,0.000
45.240,0.000
45.245,0.000
45.250,0.000
45.255,0.000
45.260,0.000
45.265,0.000
45.270,0.000
45.275,0.000
45.280,0.000
45.285,0.000
45.290,0.000
45.295,0.000
45.300,0.000
45.305,0.000
45.310,0.000
45.315,0.000
45.320,0.000
45.325,0.000
45.330,0.000
45.335,-0.001
45.340,0.000
45.345,0.000
45.350,0.000
45.355,0.000
45.360,0.000
45.365,0.000
45.370,0.000
45.375,0.000
45.380,0.000
45.385,0.000
45.390,0.000
45.395,0.000
45.400,0.000
45.405,0.000
45.410,0.000
45.415,0.000
45.420,0.000
45.425,0.000
45.430,0.000
45.435,0.000
45.440,0.000
45.445,0.000
45.450,0.000
45.455,0.000
45.460,0.000
45.465,0.000
45.470,0.000
45.475,0.000
45.480,0.000
45.485,0.000
45.490,0.000
45.495,0.000
45.500,0.000
45.505,0.000
45.510,0.000
45.515,0.000
