'Elapsed time','ECG'
'seconds','mV'
0.000,-0.046
0.005,-0.002
0.010,-0.013
0.015,-0.044
0.020,-0.019
0.025,-0.009
0.030,-0.037
0.035,-0.027
0.040,0.004
0.045,-0.014
0.050,-0.023
0.055,0.010
0.060,0.008
0.065,-0.015
0.070,0.008
0.075,0.025
0.080,0.004
0.085,0.014
0.090,0.038
0.095,0.019
0.100,0.016
0.105,0.053
0.110,0.051
0.115,0.030
0.120,0.056
0.125,0.062
0.130,0.049
0.135,0.152
0.140,0.357
0.145,0.575
0.150,0.852
0.155,1.086
0.160,0.949
0.165,0.392
0.170,-0.156
0.175,-0.423
0.180,-0.531
0.185,-0.534
0.190,-0.441
0.195,-0.331
0.200,-0.203
0.205,-0.068
0.210,-0.020
0.215,-0.025
0.220,0.011
0.225,0.033
0.230,0.011
0.235,0.024
0.240,0.054
0.245,0.040
0.250,0.034
0.255,0.063
0.260,0.058
0.265,0.038
0.270,0.063
0.275,0.072
0.280,0.045
0.285,0.055
0.290,0.081
0.295,0.062
0.300,0.050
0.305,0.074
0.310,0.071
0.315,0.053
0.320,0.078
0.325,0.092
0.330,0.068
0.335,0.080
0.340,0.108
0.345,0.090
0.350,0.087
0.355,0.123
0.360,0.121
0.365,0.103
0.370,0.132
0.375,0.151
0.380,0.135
0.385,0.150
0.390,0.178
0.395,0.162
0.400,0.156
0.405,0.188
0.410,0.184
0.415,0.158
0.420,0.173
0.425,0.173
0.430,0.135
0.435,0.128
0.440,0.133
0.445,0.095
0.450,0.067
0.455,0.069
0.460,0.032
0.465,-0.023
0.470,-0.036
0.475,-0.060
0.480,-0.122
0.485,-0.152
0.490,-0.160
0.495,-0.208
0.500,-0.241
0.505,-0.228
0.510,-0.247
0.515,-0.279
0.520,-0.259
0.525,-0.247
0.530,-0.271
0.535,-0.261
0.540,-0.233
0.545,-0.246
0.550,-0.247
0.555,-0.210
0.560,-0.209
0.565,-0.225
0.570,-0.194
0.575,-0.177
0.580,-0.196
0.585,-0.177
0.590,-0.142
0.595,-0.156
0.600,-0.159
0.605,-0.121
0.610,-0.117
0.615,-0.128
0.620,-0.096
0.625,-0.077
0.630,-0.096
0.635,-0.077
0.640,-0.043
0.645,-0.057
0.650,-0.059
0.655,-0.023
0.660,-0.023
0.665,-0.038
0.670,-0.007
0.675,0.011
0.680,-0.012
0.685,0.002
0.690,0.032
0.695,0.013
0.700,0.007
0.705,0.039
0.710,0.034
0.715,0.012
0.720,0.035
0.725,0.045
0.730,0.017
0.735,0.025
0.740,0.050
0.745,0.028
0.750,0.019
0.755,0.048
0.760,0.039
0.765,0.015
0.770,0.038
0.775,0.048
0.780,0.021
0.785,0.030
0.790,0.054
0.795,0.034
0.800,0.024
0.805,0.051
0.810,0.043
0.815,0.021
0.820,0.045
0.825,0.054
0.830,0.024
0.835,0.029
0.840,0.054
0.845,0.036
0.850,0.026
0.855,0.050
0.860,0.041
0.865,0.020
0.870,0.044
0.875,0.052
0.880,0.023
0.885,0.032
0.890,0.054
0.895,0.032
0.900,0.026
0.905,0.062
0.910,0.064
0.915,0.052
0.920,0.085
0.925,0.101
0.930,0.074
0.935,0.083
0.940,0.107
0.945,0.085
0.950,0.078
0.955,0.104
0.960,0.098
0.965,0.078
0.970,0.096
0.975,0.101
0.980,0.069
0.985,0.066
0.990,0.078
0.995,0.036
1.000,0.001
1.005,0.014
1.010,-0.005
1.015,-0.041
1.020,-0.027
1.025,-0.030
1.030,-0.067
1.035,-0.058
1.040,-0.037
1.045,-0.061
1.050,-0.068
1.055,-0.041
1.060,-0.048
1.065,-0.067
1.070,-0.041
1.075,-0.030
1.080,-0.056
1.085,-0.043
1.090,-0.017
1.095,-0.037
1.100,-0.042
1.105,-0.010
1.110,-0.014
1.115,-0.030
1.120,-0.001
1.125,0.009
1.130,-0.020
1.135,-0.012
1.140,0.024
1.145,0.087
1.150,0.251
1.155,0.503
1.160,0.764
1.165,0.961
1.170,0.912
1.175,0.431
1.180,-0.178
1.185,-0.475
1.190,-0.554
1.195,-0.595
1.200,-0.538
1.205,-0.367
1.210,-0.217
1.215,-0.133
1.220,-0.062
1.225,-0.033
1.230,-0.045
1.235,-0.028
1.240,0.002
1.245,-0.013
1.250,-0.017
1.255,0.013
1.260,0.009
1.265,-0.008
1.270,0.017
1.275,0.026
1.280,0.000
1.285,0.012
1.290,0.037
1.295,0.017
1.300,0.012
1.305,0.042
1.310,0.034
1.315,0.014
1.320,0.042
1.325,0.053
1.330,0.027
1.335,0.040
1.340,0.068
1.345,0.049
1.350,0.046
1.355,0.080
1.360,0.076
1.365,0.063
1.370,0.097
1.375,0.114
1.380,0.091
1.385,0.110
1.390,0.140
1.395,0.124
1.400,0.125
1.405,0.160
1.410,0.154
1.415,0.137
1.420,0.163
1.425,0.168
1.430,0.135
1.435,0.139
1.440,0.150
1.445,0.115
1.450,0.098
1.455,0.110
1.460,0.079
1.465,0.037
1.470,0.035
1.475,0.011
1.480,-0.049
1.485,-0.072
1.490,-0.085
1.495,-0.143
1.500,-0.181
1.505,-0.180
1.510,-0.215
1.515,-0.255
1.520,-0.243
1.525,-0.245
1.530,-0.280
1.535,-0.271
1.540,-0.247
1.545,-0.266
1.550,-0.263
1.555,-0.227
1.560,-0.232
1.565,-0.244
1.570,-0.209
1.575,-0.196
1.580,-0.218
1.585,-0.197
1.590,-0.162
1.595,-0.176
1.600,-0.174
1.605,-0.137
1.610,-0.139
1.615,-0.151
1.620,-0.118
1.625,-0.101
1.630,-0.118
1.635,-0.099
1.640,-0.067
1.645,-0.081
1.650,-0.079
1.655,-0.041
1.660,-0.041
1.665,-0.055
1.670,-0.022
1.675,-0.007
1.680,-0.029
1.685,-0.009
1.690,0.018
1.695,-0.002
1.700,0.000
1.705,0.032
1.710,0.023
1.715,0.004
1.720,0.032
1.725,0.043
1.730,0.016
1.735,0.029
1.740,0.051
1.745,0.025
1.750,0.021
1.755,0.050
1.760,0.039
1.765,0.019
1.770,0.044
1.775,0.049
1.780,0.021
1.785,0.033
1.790,0.054
1.795,0.029
1.800,0.025
1.805,0.057
1.810,0.043
1.815,0.021
1.820,0.046
1.825,0.054
1.830,0.028
1.835,0.038
1.840,0.059
1.845,0.034
1.850,0.025
1.855,0.055
1.860,0.045
1.865,0.027
1.870,0.053
1.875,0.056
1.880,0.026
1.885,0.039
1.890,0.060
1.895,0.035
1.900,0.030
1.905,0.059
1.910,0.045
1.915,0.025
1.920,0.051
1.925,0.055
1.930,0.027
1.935,0.041
1.940,0.065
1.945,0.047
1.950,0.055
1.955,0.097
1.960,0.096
1.965,0.079
1.970,0.101
1.975,0.107
1.980,0.081
1.985,0.095
1.990,0.116
1.995,0.090
2.000,0.088
2.005,0.119
2.010,0.101
2.015,0.075
2.020,0.091
2.025,0.080
2.030,0.033
2.035,0.021
2.040,0.023
2.045,-0.012
2.050,-0.029
2.055,-0.012
2.060,-0.037
2.065,-0.069
2.070,-0.047
2.075,-0.041
2.080,-0.071
2.085,-0.060
2.090,-0.039
2.095,-0.063
2.100,-0.063
2.105,-0.033
2.110,-0.045
2.115,-0.062
2.120,-0.033
2.125,-0.028
2.130,-0.053
2.135,-0.034
2.140,-0.010
2.145,-0.031
2.150,-0.031
2.155,0.004
2.160,-0.004
2.165,-0.020
2.170,0.008
2.175,0.009
2.180,0.002
2.185,0.122
2.190,0.323
2.195,0.522
2.200,0.780
2.205,0.987
2.210,0.814
2.215,0.251
2.220,-0.247
2.225,-0.482
2.230,-0.589
2.235,-0.579
2.240,-0.477
2.245,-0.349
2.250,-0.202
2.255,-0.083
2.260,-0.059
2.265,-0.058
2.270,-0.016
2.275,-0.007
2.280,-0.029
2.285,-0.009
2.290,0.018
2.295,-0.003
2.300,-0.006
2.305,0.023
2.310,0.013
2.315,-0.002
2.320,0.025
2.325,0.029
2.330,0.004
2.335,0.022
2.340,0.044
2.345,0.021
2.350,0.018
2.355,0.046
2.360,0.037
2.365,0.019
2.370,0.047
2.375,0.056
2.380,0.033
2.385,0.050
2.390,0.073
2.395,0.052
2.400,0.056
2.405,0.091
2.410,0.085
2.415,0.077
2.420,0.113
2.425,0.127
2.430,0.107
2.435,0.129
2.440,0.156
2.445,0.137
2.450,0.138
2.455,0.173
2.460,0.161
2.465,0.139
2.470,0.159
2.475,0.157
2.480,0.121
2.485,0.123
2.490,0.128
2.495,0.082
2.500,0.057
2.505,0.063
2.510,0.024
2.515,-0.024
2.520,-0.031
2.525,-0.062
2.530,-0.121
2.535,-0.143
2.540,-0.159
2.545,-0.210
2.550,-0.234
2.555,-0.227
2.560,-0.256
2.565,-0.282
2.570,-0.258
2.575,-0.257
2.580,-0.285
2.585,-0.266
2.590,-0.237
2.595,-0.253
2.600,-0.247
2.605,-0.209
2.610,-0.214
2.615,-0.224
2.620,-0.191
2.625,-0.180
2.630,-0.200
2.635,-0.178
2.640,-0.146
2.645,-0.160
2.650,-0.151
2.655,-0.114
2.660,-0.123
2.665,-0.131
2.670,-0.091
2.675,-0.082
2.680,-0.101
2.685,-0.074
2.690,-0.044
2.695,-0.059
2.700,-0.051
2.705,-0.018
2.710,-0.026
2.715,-0.032
2.720,0.005
2.725,0.011
2.730,-0.019
2.735,0.000
2.740,0.028
2.745,0.007
2.750,0.011
2.755,0.043
2.760,0.027
2.765,0.009
2.770,0.040
2.775,0.046
2.780,0.021
2.785,0.034
2.790,0.049
2.795,0.026
2.800,0.025
2.805,0.048
2.810,0.031
2.815,0.019
2.820,0.049
2.825,0.046
2.830,0.014
2.835,0.028
2.840,0.047
2.845,0.025
2.850,0.027
2.855,0.056
2.860,0.039
2.865,0.014
2.870,0.041
2.875,0.050
2.880,0.025
2.885,0.039
2.890,0.054
2.895,0.023
2.900,0.022
2.905,0.057
2.910,0.041
2.915,0.021
2.920,0.046
2.925,0.048
2.930,0.026
2.935,0.043
2.940,0.057
2.945,0.026
2.950,0.025
2.955,0.058
2.960,0.041
2.965,0.021
2.970,0.054
2.975,0.063
2.980,0.048
2.985,0.080
2.990,0.108
2.995,0.083
3.000,0.078
3.005,0.101
3.010,0.085
3.015,0.074
3.020,0.107
3.025,0.113
3.030,0.091
3.035,0.097
3.040,0.102
3.045,0.076
3.050,0.074
3.055,0.089
3.060,0.054
3.065,0.010
3.070,0.014
3.075,-0.002
3.080,-0.040
3.085,-0.024
3.090,-0.013
3.095,-0.056
3.100,-0.064
3.105,-0.039
3.110,-0.059
3.115,-0.073
3.120,-0.039
3.125,-0.037
3.130,-0.066
3.135,-0.050
3.140,-0.025
3.145,-0.044
3.150,-0.045
3.155,-0.016
3.160,-0.027
3.165,-0.040
3.170,-0.015
3.175,-0.017
3.180,-0.032
3.185,0.001
3.190,0.020
3.195,-0.009
3.200,-0.013
3.205,0.008
3.210,0.014
3.215,0.110
3.220,0.329
3.225,0.567
3.230,0.816
3.235,1.018
3.240,0.861
3.245,0.280
3.250,-0.245
3.255,-0.457
3.260,-0.555
3.265,-0.580
3.270,-0.476
3.275,-0.349
3.280,-0.244
3.285,-0.122
3.290,-0.055
3.295,-0.065
3.300,-0.048
3.305,-0.009
3.310,-0.022
3.315,-0.038
3.320,-0.008
3.325,-0.001
3.330,-0.017
3.335,0.012
3.340,0.032
3.345,0.001
3.350,0.004
3.355,0.037
3.360,0.020
3.365,-0.002
3.370,0.025
3.375,0.034
3.380,0.021
3.385,0.045
3.390,0.058
3.395,0.024
3.400,0.023
3.405,0.066
3.410,0.064
3.415,0.045
3.420,0.068
3.425,0.073
3.430,0.058
3.435,0.086
3.440,0.107
3.445,0.087
3.450,0.093
3.455,0.122
3.460,0.119
3.465,0.125
3.470,0.162
3.475,0.163
3.480,0.142
3.485,0.158
3.490,0.168
3.495,0.149
3.500,0.154
3.505,0.171
3.510,0.135
3.515,0.103
3.520,0.123
3.525,0.109
3.530,0.062
3.535,0.056
3.540,0.043
3.545,-0.013
3.550,-0.044
3.555,-0.057
3.560,-0.115
3.565,-0.161
3.570,-0.161
3.575,-0.192
3.580,-0.241
3.585,-0.237
3.590,-0.236
3.595,-0.276
3.600,-0.279
3.605,-0.254
3.610,-0.267
3.615,-0.273
3.620,-0.242
3.625,-0.239
3.630,-0.254
3.635,-0.226
3.640,-0.204
3.645,-0.225
3.650,-0.214
3.655,-0.177
3.660,-0.185
3.665,-0.190
3.670,-0.153
3.675,-0.147
3.680,-0.165
3.685,-0.136
3.690,-0.109
3.695,-0.130
3.700,-0.123
3.705,-0.080
3.710,-0.078
3.715,-0.084
3.720,-0.049
3.725,-0.040
3.730,-0.062
3.735,-0.037
3.740,-0.007
3.745,-0.021
3.750,-0.013
3.755,0.019
3.760,0.007
3.765,-0.007
3.770,0.020
3.775,0.023
3.780,0.001
3.785,0.022
3.790,0.040
3.795,0.019
3.800,0.026
3.805,0.054
3.810,0.029
3.815,0.010
3.820,0.044
3.825,0.045
3.830,0.015
3.835,0.033
3.840,0.049
3.845,0.023
3.850,0.029
3.855,0.052
3.860,0.029
3.865,0.016
3.870,0.049
3.875,0.050
3.880,0.022
3.885,0.035
3.890,0.048
3.895,0.025
3.900,0.033
3.905,0.060
3.910,0.038
3.915,0.021
3.920,0.050
3.925,0.050
3.930,0.024
3.935,0.044
3.940,0.060
3.945,0.034
3.950,0.040
3.955,0.067
3.960,0.053
3.965,0.047
3.970,0.085
3.975,0.094
3.980,0.073
3.985,0.093
3.990,0.109
3.995,0.082
4.000,0.087
4.005,0.115
4.010,0.099
4.015,0.094
4.020,0.124
4.025,0.112
4.030,0.081
4.035,0.095
4.040,0.097
4.045,0.054
4.050,0.036
4.055,0.045
4.060,0.010
4.065,-0.022
4.070,-0.006
4.075,-0.019
4.080,-0.051
4.085,-0.036
4.090,-0.026
4.095,-0.057
4.100,-0.049
4.105,-0.021
4.110,-0.042
4.115,-0.055
4.120,-0.023
4.125,-0.023
4.130,-0.047
4.135,-0.028
4.140,-0.013
4.145,-0.036
4.150,-0.030
4.155,-0.003
4.160,-0.017
4.165,-0.022
4.170,0.012
4.175,0.011
4.180,-0.010
4.185,0.014
4.190,0.025
4.195,-0.004
4.200,0.053
4.205,0.231
4.210,0.433
4.215,0.699
4.220,0.989
4.225,1.023
4.230,0.610
4.235,0.006
4.240,-0.389
4.245,-0.561
4.250,-0.591
4.255,-0.524
4.260,-0.433
4.265,-0.300
4.270,-0.144
4.275,-0.069
4.280,-0.069
4.285,-0.034
4.290,-0.005
4.295,-0.026
4.300,-0.014
4.305,0.020
4.310,0.006
4.315,-0.007
4.320,0.021
4.325,0.021
4.330,0.002
4.335,0.024
4.340,0.037
4.345,0.013
4.350,0.021
4.355,0.048
4.360,0.028
4.365,0.015
4.370,0.046
4.375,0.046
4.380,0.022
4.385,0.046
4.390,0.063
4.395,0.035
4.400,0.044
4.405,0.079
4.410,0.064
4.415,0.053
4.420,0.087
4.425,0.091
4.430,0.073
4.435,0.103
4.440,0.126
4.445,0.106
4.450,0.118
4.455,0.152
4.460,0.140
4.465,0.132
4.470,0.166
4.475,0.165
4.480,0.139
4.485,0.155
4.490,0.161
4.495,0.126
4.500,0.121
4.505,0.133
4.510,0.097
4.515,0.066
4.520,0.072
4.525,0.040
4.530,-0.018
4.535,-0.031
4.540,-0.051
4.545,-0.113
4.550,-0.143
4.555,-0.148
4.560,-0.194
4.565,-0.232
4.570,-0.228
4.575,-0.248
4.580,-0.283
4.585,-0.270
4.590,-0.261
4.595,-0.289
4.600,-0.277
4.605,-0.243
4.610,-0.257
4.615,-0.262
4.620,-0.223
4.625,-0.219
4.630,-0.235
4.635,-0.206
4.640,-0.186
4.645,-0.204
4.650,-0.188
4.655,-0.155
4.660,-0.168
4.665,-0.170
4.670,-0.132
4.675,-0.127
4.680,-0.141
4.685,-0.110
4.690,-0.088
4.695,-0.105
4.700,-0.088
4.705,-0.057
4.710,-0.070
4.715,-0.070
4.720,-0.032
4.725,-0.030
4.730,-0.046
4.735,-0.015
4.740,0.006
4.745,-0.015
4.750,-0.006
4.755,0.023
4.760,0.008
4.765,0.003
4.770,0.037
4.775,0.028
4.780,0.004
4.785,0.033
4.790,0.052
4.795,0.032
4.800,0.045
4.805,0.068
4.810,0.031
4.815,-0.004
4.820,0.038
4.825,0.063
4.830,0.025
4.835,0.006
4.840,0.016
4.845,0.016
4.850,0.009
4.855,0.025
4.860,0.045
4.865,0.037
4.870,0.043
4.875,0.034
4.880,0.015
4.885,0.047
4.890,0.057
4.895,0.024
4.900,0.032
4.905,0.062
4.910,0.046
4.915,0.024
4.920,0.044
4.925,0.060
4.930,0.064
4.935,0.075
4.940,0.068
4.945,0.036
4.950,0.044
4.955,0.074
4.960,0.047
4.965,0.035
4.970,0.075
4.975,0.078
4.980,0.051
4.985,0.075
4.990,0.120
4.995,0.113
5.000,0.101
5.005,0.103
5.010,0.073
5.015,0.072
5.020,0.114
5.025,0.116
5.030,0.104
5.035,0.124
5.040,0.110
5.045,0.070
5.050,0.080
5.055,0.079
5.060,-0.001
5.065,-0.044
5.070,0.003
5.075,0.006
5.080,-0.067
5.085,-0.071
5.090,-0.034
5.095,-0.087
5.100,-0.107
5.105,-0.053
5.110,-0.068
5.115,-0.095
5.120,-0.047
5.125,-0.022
5.130,-0.064
5.135,-0.060
5.140,-0.025
5.145,-0.060
5.150,-0.081
5.155,-0.060
5.160,-0.066
5.165,-0.043
5.170,-0.012
5.175,-0.022
5.180,-0.024
5.185,0.001
5.190,0.004
5.195,-0.028
5.200,-0.017
5.205,0.058
5.210,0.173
5.215,0.371
5.220,0.664
5.225,0.915
5.230,0.976
5.235,0.676
5.240,0.083
5.245,-0.374
5.250,-0.520
5.255,-0.550
5.260,-0.572
5.265,-0.475
5.270,-0.267
5.275,-0.147
5.280,-0.125
5.285,-0.048
5.290,0.024
5.295,-0.005
5.300,-0.010
5.305,-0.001
5.310,-0.010
5.315,0.031
5.320,0.057
5.325,0.013
5.330,-0.018
5.335,0.008
5.340,0.035
5.345,0.031
5.350,0.042
5.355,0.060
5.360,0.029
5.365,0.006
5.370,0.036
5.375,0.061
5.380,0.059
5.385,0.051
5.390,0.047
5.395,0.049
5.400,0.085
5.405,0.112
5.410,0.077
5.415,0.047
5.420,0.050
5.425,0.049
5.430,0.069
5.435,0.132
5.440,0.145
5.445,0.113
5.450,0.121
5.455,0.126
5.460,0.113
5.465,0.138
5.470,0.196
5.475,0.186
5.480,0.148
5.485,0.194
5.490,0.199
5.495,0.114
5.500,0.116
5.505,0.162
5.510,0.107
5.515,0.085
5.520,0.123
5.525,0.069
5.530,0.000
5.535,0.024
5.540,0.030
5.545,-0.050
5.550,-0.107
5.555,-0.115
5.560,-0.155
5.565,-0.191
5.570,-0.197
5.575,-0.236
5.580,-0.284
5.585,-0.273
5.590,-0.263
5.595,-0.286
5.600,-0.292
5.605,-0.284
5.610,-0.286
5.615,-0.269
5.620,-0.245
5.625,-0.259
5.630,-0.262
5.635,-0.215
5.640,-0.187
5.645,-0.219
5.650,-0.230
5.655,-0.191
5.660,-0.185
5.665,-0.182
5.670,-0.137
5.675,-0.133
5.680,-0.147
5.685,-0.109
5.690,-0.095
5.695,-0.127
5.700,-0.107
5.705,-0.071
5.710,-0.083
5.715,-0.076
5.720,-0.040
5.725,-0.046
5.730,-0.054
5.735,-0.017
5.740,0.000
5.745,-0.019
5.750,-0.005
5.755,0.027
5.760,0.007
5.765,-0.005
5.770,0.026
5.775,0.022
5.780,0.011
5.785,0.056
5.790,0.081
5.795,0.030
5.800,-0.001
5.805,0.024
5.810,0.015
5.815,0.012
5.820,0.050
5.825,0.033
5.830,0.006
5.835,0.033
5.840,0.036
5.845,0.013
5.850,0.027
5.855,0.044
5.860,0.019
5.865,0.019
5.870,0.050
5.875,0.035
5.880,0.015
5.885,0.037
5.890,0.038
5.895,0.020
5.900,0.046
5.905,0.063
5.910,0.025
5.915,0.022
5.920,0.064
5.925,0.055
5.930,0.041
5.935,0.076
5.940,0.082
5.945,0.059
5.950,0.073
5.955,0.090
5.960,0.077
5.965,0.088
5.970,0.117
5.975,0.105
5.980,0.095
5.985,0.128
5.990,0.137
5.995,0.110
6.000,0.120
6.005,0.143
6.010,0.115
6.015,0.107
6.020,0.135
6.025,0.107
6.030,0.064
6.035,0.069
6.040,0.055
6.045,0.012
6.050,0.014
6.055,0.015
6.060,-0.028
6.065,-0.042
6.070,-0.018
6.075,-0.029
6.080,-0.052
6.085,-0.037
6.090,-0.036
6.095,-0.063
6.100,-0.044
6.105,-0.017
6.110,-0.041
6.115,-0.042
6.120,-0.005
6.125,-0.018
6.130,-0.043
6.135,-0.011
6.140,0.006
6.145,-0.017
6.150,-0.004
6.155,0.020
6.160,0.000
6.165,-0.002
6.170,0.025
6.175,0.014
6.180,-0.004
6.185,0.075
6.190,0.237
6.195,0.431
6.200,0.717
6.205,0.987
6.210,0.979
6.215,0.568
6.220,-0.014
6.225,-0.396
6.230,-0.543
6.235,-0.556
6.240,-0.527
6.245,-0.457
6.250,-0.303
6.255,-0.167
6.260,-0.128
6.265,-0.109
6.270,-0.058
6.275,-0.051
6.280,-0.069
6.285,-0.038
6.290,-0.023
6.295,-0.044
6.300,-0.020
6.305,0.009
6.310,-0.015
6.315,-0.020
6.320,0.007
6.325,-0.010
6.330,-0.029
6.335,0.011
6.340,0.034
6.345,0.002
6.350,-0.001
6.355,0.026
6.360,0.017
6.365,0.020
6.370,0.055
6.375,0.049
6.380,0.031
6.385,0.053
6.390,0.058
6.395,0.037
6.400,0.054
6.405,0.085
6.410,0.080
6.415,0.086
6.420,0.110
6.425,0.100
6.430,0.096
6.435,0.140
6.440,0.155
6.445,0.135
6.450,0.158
6.455,0.185
6.460,0.154
6.465,0.143
6.470,0.172
6.475,0.152
6.480,0.127
6.485,0.153
6.490,0.143
6.495,0.091
6.500,0.086
6.505,0.083
6.510,0.028
6.515,-0.005
6.520,-0.008
6.525,-0.062
6.530,-0.122
6.535,-0.128
6.540,-0.154
6.545,-0.216
6.550,-0.236
6.555,-0.231
6.560,-0.252
6.565,-0.259
6.570,-0.251
6.575,-0.277
6.580,-0.294
6.585,-0.265
6.590,-0.256
6.595,-0.273
6.600,-0.246
6.605,-0.217
6.610,-0.233
6.615,-0.229
6.620,-0.190
6.625,-0.190
6.630,-0.202
6.635,-0.172
6.640,-0.162
6.645,-0.182
6.650,-0.157
6.655,-0.121
6.660,-0.138
6.665,-0.135
6.670,-0.093
6.675,-0.094
6.680,-0.105
6.685,-0.066
6.690,-0.042
6.695,-0.061
6.700,-0.044
6.705,-0.016
6.710,-0.031
6.715,-0.026
6.720,0.006
6.725,-0.003
6.730,-0.013
6.735,0.017
6.740,0.023
6.745,0.005
6.750,0.021
6.755,0.041
6.760,0.027
6.765,0.026
6.770,0.050
6.775,0.041
6.780,0.025
6.785,0.052
6.790,0.057
6.795,0.030
6.800,0.046
6.805,0.067
6.810,0.035
6.815,0.028
6.820,0.059
6.825,0.047
6.830,0.028
6.835,0.055
6.840,0.059
6.845,0.031
6.850,0.045
6.855,0.064
6.860,0.037
6.865,0.037
6.870,0.068
6.875,0.049
6.880,0.032
6.885,0.070
6.890,0.084
6.895,0.074
6.900,0.102
6.905,0.121
6.910,0.090
6.915,0.086
6.920,0.116
6.925,0.105
6.930,0.094
6.935,0.122
6.940,0.125
6.945,0.094
6.950,0.103
6.955,0.122
6.960,0.092
6.965,0.078
6.970,0.094
6.975,0.053
6.980,0.010
6.985,0.025
6.990,0.013
6.995,-0.028
7.000,-0.024
7.005,-0.012
7.010,-0.040
7.015,-0.043
7.020,-0.017
7.025,-0.038
7.030,-0.060
7.035,-0.032
7.040,-0.025
7.045,-0.046
7.050,-0.027
7.055,-0.006
7.060,-0.029
7.065,-0.029
7.070,0.000
7.075,-0.014
7.080,-0.024
7.085,0.012
7.090,0.018
7.095,-0.006
7.100,0.014
7.105,0.034
7.110,0.005
7.115,0.001
7.120,0.074
7.125,0.199
7.130,0.402
7.135,0.713
7.140,0.988
7.145,1.027
7.150,0.682
7.155,0.064
7.160,-0.402
7.165,-0.555
7.170,-0.561
7.175,-0.542
7.180,-0.453
7.185,-0.285
7.190,-0.153
7.195,-0.097
7.200,-0.056
7.205,-0.018
7.210,-0.023
7.215,-0.018
7.220,0.007
7.225,-0.005
7.230,-0.011
7.235,0.022
7.240,0.022
7.245,-0.004
7.250,0.015
7.255,0.034
7.260,0.009
7.265,0.012
7.270,0.041
7.275,0.027
7.280,0.015
7.285,0.043
7.290,0.045
7.295,0.022
7.300,0.039
7.305,0.058
7.310,0.038
7.315,0.041
7.320,0.072
7.325,0.062
7.330,0.048
7.335,0.080
7.340,0.087
7.345,0.067
7.350,0.094
7.355,0.122
7.360,0.104
7.365,0.113
7.370,0.147
7.375,0.135
7.380,0.126
7.385,0.163
7.390,0.170
7.395,0.147
7.400,0.162
7.405,0.174
7.410,0.142
7.415,0.133
7.420,0.146
7.425,0.115
7.430,0.082
7.435,0.092
7.440,0.071
7.445,0.018
7.450,0.002
7.455,-0.020
7.460,-0.083
7.465,-0.118
7.470,-0.126
7.475,-0.174
7.480,-0.220
7.485,-0.215
7.490,-0.237
7.495,-0.282
7.500,-0.275
7.505,-0.264
7.510,-0.291
7.515,-0.289
7.520,-0.257
7.525,-0.267
7.530,-0.277
7.535,-0.241
7.540,-0.228
7.545,-0.241
7.550,-0.221
7.555,-0.199
7.560,-0.212
7.565,-0.205
7.570,-0.173
7.575,-0.179
7.580,-0.181
7.585,-0.145
7.590,-0.136
7.595,-0.152
7.600,-0.128
7.605,-0.103
7.610,-0.113
7.615,-0.098
7.620,-0.063
7.625,-0.073
7.630,-0.082
7.635,-0.042
7.640,-0.032
7.645,-0.055
7.650,-0.029
7.655,-0.004
7.660,-0.021
7.665,-0.012
7.670,0.021
7.675,0.010
7.680,-0.001
7.685,0.029
7.690,0.030
7.695,0.007
7.700,0.030
7.705,0.049
7.710,0.020
7.715,0.020
7.720,0.048
7.725,0.032
7.730,0.019
7.735,0.047
7.740,0.045
7.745,0.020
7.750,0.039
7.755,0.055
7.760,0.028
7.765,0.032
7.770,0.058
7.775,0.036
7.780,0.023
7.785,0.055
7.790,0.054
7.795,0.027
7.800,0.046
7.805,0.062
7.810,0.033
7.815,0.033
7.820,0.059
7.825,0.044
7.830,0.030
7.835,0.056
7.840,0.053
7.845,0.028
7.850,0.048
7.855,0.060
7.860,0.031
7.865,0.040
7.870,0.078
7.875,0.075
7.880,0.072
7.885,0.108
7.890,0.109
7.895,0.082
7.900,0.102
7.905,0.116
7.910,0.088
7.915,0.092
7.920,0.119
7.925,0.104
7.930,0.088
7.935,0.113
7.940,0.107
7.945,0.069
7.950,0.075
7.955,0.074
7.960,0.021
7.965,0.002
7.970,0.015
7.975,-0.016
7.980,-0.040
7.985,-0.021
7.990,-0.033
7.995,-0.062
8.000,-0.043
8.005,-0.031
8.010,-0.062
8.015,-0.059
8.020,-0.032
8.025,-0.049
8.030,-0.060
8.035,-0.030
8.040,-0.030
8.045,-0.050
8.050,-0.027
8.055,-0.011
8.060,-0.035
8.065,-0.029
8.070,0.001
8.075,-0.009
8.080,-0.019
8.085,0.012
8.090,0.012
8.095,-0.018
8.100,0.024
8.105,0.146
8.110,0.306
8.115,0.556
8.120,0.868
8.125,1.026
8.130,0.826
8.135,0.291
8.140,-0.245
8.145,-0.507
8.150,-0.554
8.155,-0.542
8.160,-0.492
8.165,-0.348
8.170,-0.183
8.175,-0.111
8.180,-0.085
8.185,-0.037
8.190,-0.018
8.195,-0.034
8.200,-0.012
8.205,0.006
8.210,-0.015
8.215,-0.006
8.220,0.022
8.225,0.005
8.230,-0.006
8.235,0.024
8.240,0.025
8.245,0.005
8.250,0.025
8.255,0.039
8.260,0.012
8.265,0.019
8.270,0.046
8.275,0.025
8.280,0.016
8.285,0.053
8.290,0.052
8.295,0.029
8.300,0.054
8.305,0.071
8.310,0.048
8.315,0.059
8.320,0.093
8.325,0.081
8.330,0.074
8.335,0.111
8.340,0.117
8.345,0.101
8.350,0.128
8.355,0.149
8.360,0.128
8.365,0.142
8.370,0.176
8.375,0.159
8.380,0.146
8.385,0.172
8.390,0.164
8.395,0.131
8.400,0.143
8.405,0.144
8.410,0.097
8.415,0.084
8.420,0.092
8.425,0.045
8.430,0.000
8.435,-0.004
8.440,-0.041
8.445,-0.101
8.450,-0.118
8.455,-0.139
8.460,-0.196
8.465,-0.217
8.470,-0.215
8.475,-0.254
8.480,-0.279
8.485,-0.258
8.490,-0.269
8.495,-0.294
8.500,-0.268
8.505,-0.251
8.510,-0.273
8.515,-0.261
8.520,-0.228
8.525,-0.235
8.530,-0.238
8.535,-0.203
8.540,-0.196
8.545,-0.212
8.550,-0.186
8.555,-0.166
8.560,-0.185
8.565,-0.170
8.570,-0.134
8.575,-0.144
8.580,-0.144
8.585,-0.105
8.590,-0.103
8.595,-0.119
8.600,-0.085
8.605,-0.062
8.610,-0.081
8.615,-0.065
8.620,-0.032
8.625,-0.044
8.630,-0.046
8.635,-0.008
8.640,-0.008
8.645,-0.027
8.650,0.001
8.655,0.017
8.660,-0.004
8.665,0.011
8.670,0.040
8.675,0.021
8.680,0.011
8.685,0.044
8.690,0.041
8.695,0.015
8.700,0.036
8.705,0.053
8.710,0.026
8.715,0.030
8.720,0.054
8.725,0.032
8.730,0.021
8.735,0.052
8.740,0.046
8.745,0.021
8.750,0.043
8.755,0.054
8.760,0.025
8.765,0.029
8.770,0.055
8.775,0.037
8.780,0.026
8.785,0.055
8.790,0.048
8.795,0.022
8.800,0.046
8.805,0.058
8.810,0.031
8.815,0.036
8.820,0.056
8.825,0.036
8.830,0.027
8.835,0.055
8.840,0.049
8.845,0.026
8.850,0.047
8.855,0.058
8.860,0.030
8.865,0.035
8.870,0.061
8.875,0.048
8.880,0.052
8.885,0.098
8.890,0.097
8.895,0.074
8.900,0.098
8.905,0.112
8.910,0.086
8.915,0.092
8.920,0.115
8.925,0.096
8.930,0.090
8.935,0.117
8.940,0.103
8.945,0.074
8.950,0.089
8.955,0.089
8.960,0.046
8.965,0.027
8.970,0.026
8.975,-0.009
8.980,-0.031
8.985,-0.010
8.990,-0.025
8.995,-0.061
9.000,-0.042
9.005,-0.032
9.010,-0.063
9.015,-0.056
9.020,-0.032
9.025,-0.056
9.030,-0.064
9.035,-0.031
9.040,-0.038
9.045,-0.061
9.050,-0.035
9.055,-0.024
9.060,-0.048
9.065,-0.035
9.070,-0.008
9.075,-0.024
9.080,-0.027
9.085,0.006
9.090,0.005
9.095,-0.015
9.100,0.006
9.105,0.016
9.110,0.040
9.115,0.191
9.120,0.418
9.125,0.653
9.130,0.901
9.135,1.000
9.140,0.649
9.145,0.025
9.150,-0.360
9.155,-0.507
9.160,-0.582
9.165,-0.543
9.170,-0.409
9.175,-0.279
9.180,-0.165
9.185,-0.068
9.190,-0.049
9.195,-0.056
9.200,-0.021
9.205,-0.003
9.210,-0.025
9.215,-0.013
9.220,0.016
9.225,-0.003
9.230,-0.009
9.235,0.023
9.240,0.018
9.245,-0.001
9.250,0.026
9.255,0.034
9.260,0.006
9.265,0.018
9.270,0.044
9.275,0.025
9.280,0.018
9.285,0.048
9.290,0.043
9.295,0.026
9.300,0.054
9.305,0.064
9.310,0.042
9.315,0.059
9.320,0.085
9.325,0.067
9.330,0.067
9.335,0.102
9.340,0.098
9.345,0.084
9.350,0.118
9.355,0.133
9.360,0.114
9.365,0.134
9.370,0.167
9.375,0.149
9.380,0.143
9.385,0.177
9.390,0.167
9.395,0.138
9.400,0.158
9.405,0.158
9.410,0.117
9.415,0.115
9.420,0.123
9.425,0.082
9.430,0.052
9.435,0.052
9.440,0.014
9.445,-0.040
9.450,-0.053
9.455,-0.079
9.460,-0.140
9.465,-0.163
9.470,-0.169
9.475,-0.217
9.480,-0.247
9.485,-0.235
9.490,-0.255
9.495,-0.286
9.500,-0.266
9.505,-0.256
9.510,-0.281
9.515,-0.268
9.520,-0.240
9.525,-0.252
9.530,-0.252
9.535,-0.217
9.540,-0.214
9.545,-0.222
9.550,-0.190
9.555,-0.175
9.560,-0.196
9.565,-0.177
9.570,-0.142
9.575,-0.156
9.580,-0.157
9.585,-0.120
9.590,-0.121
9.595,-0.133
9.600,-0.098
9.605,-0.079
9.610,-0.094
9.615,-0.075
9.620,-0.045
9.625,-0.060
9.630,-0.060
9.635,-0.020
9.640,-0.019
9.645,-0.034
9.650,-0.006
9.655,0.004
9.660,-0.016
9.665,0.006
9.670,0.035
9.675,0.014
9.680,0.009
9.685,0.039
9.690,0.034
9.695,0.017
9.700,0.040
9.705,0.045
9.710,0.019
9.715,0.028
9.720,0.049
9.725,0.029
9.730,0.024
9.735,0.053
9.740,0.042
9.745,0.018
9.750,0.045
9.755,0.053
9.760,0.021
9.765,0.028
9.770,0.050
9.775,0.031
9.780,0.027
9.785,0.056
9.790,0.046
9.795,0.023
9.800,0.045
9.805,0.057
9.810,0.034
9.815,0.038
9.820,0.052
9.825,0.030
9.830,0.030
9.835,0.061
9.840,0.049
9.845,0.026
9.850,0.051
9.855,0.056
9.860,0.026
9.865,0.036
9.870,0.056
9.875,0.031
9.880,0.029
9.885,0.066
9.890,0.065
9.895,0.056
9.900,0.091
9.905,0.103
9.910,0.071
9.915,0.083
9.920,0.110
9.925,0.087
9.930,0.082
9.935,0.111
9.940,0.103
9.945,0.088
9.950,0.109
9.955,0.108
9.960,0.070
9.965,0.067
9.970,0.072
9.975,0.029
9.980,0.002
9.985,0.016
9.990,-0.008
9.995,-0.044
10.000,-0.030
10.005,-0.032
10.010,-0.067
10.015,-0.058
10.020,-0.041
10.025,-0.068
10.030,-0.069
10.035,-0.039
10.040,-0.050
10.045,-0.065
10.050,-0.033
10.055,-0.027
10.060,-0.062
10.065,-0.047
10.070,-0.015
10.075,-0.031
10.080,-0.032
10.085,-0.005
10.090,-0.014
10.095,-0.026
10.100,0.005
10.105,0.013
10.110,-0.015
10.115,-0.005
10.120,0.031
10.125,0.094
10.130,0.260
10.135,0.511
10.140,0.768
10.145,0.966
10.150,0.915
10.155,0.437
10.160,-0.146
10.165,-0.415
10.170,-0.500
10.175,-0.559
10.180,-0.511
10.185,-0.362
10.190,-0.236
10.195,-0.149
10.200,-0.072
10.205,-0.049
10.210,-0.055
10.215,-0.029
10.220,-0.007
10.225,-0.024
10.230,-0.021
10.235,0.006
10.240,-0.003
10.245,-0.013
10.250,0.019
10.255,0.023
10.260,-0.009
10.265,0.005
10.270,0.029
10.275,0.011
10.280,0.012
10.285,0.041
10.290,0.031
10.295,0.011
10.300,0.039
10.305,0.052
10.310,0.030
10.315,0.047
10.320,0.075
10.325,0.054
10.330,0.051
10.335,0.079
10.340,0.069
10.345,0.060
10.350,0.095
10.355,0.111
10.360,0.093
10.365,0.107
10.370,0.132
10.375,0.122
10.380,0.136
10.385,0.182
10.390,0.173
10.395,0.144
10.400,0.161
10.405,0.164
10.410,0.134
10.415,0.146
10.420,0.160
10.425,0.122
10.430,0.106
10.435,0.119
10.440,0.084
10.445,0.041
10.450,0.043
10.455,0.023
10.460,-0.038
10.465,-0.064
10.470,-0.083
10.475,-0.142
10.480,-0.173
10.485,-0.175
10.490,-0.225
10.495,-0.271
10.500,-0.255
10.505,-0.257
10.510,-0.290
10.515,-0.280
10.520,-0.260
10.525,-0.278
10.530,-0.268
10.535,-0.233
10.540,-0.246
10.545,-0.260
10.550,-0.228
10.555,-0.215
10.560,-0.220
10.565,-0.191
10.570,-0.170
10.575,-0.191
10.580,-0.184
10.585,-0.148
10.590,-0.149
10.595,-0.156
10.600,-0.125
10.605,-0.115
10.610,-0.129
10.615,-0.095
10.620,-0.057
10.625,-0.080
10.630,-0.084
10.635,-0.045
10.640,-0.045
10.645,-0.052
10.650,-0.017
10.655,-0.008
10.660,-0.032
10.665,-0.019
10.670,0.011
10.675,0.003
10.680,0.009
10.685,0.034
10.690,0.019
10.695,0.006
10.700,0.034
10.705,0.041
10.710,0.021
10.715,0.036
10.720,0.051
10.725,0.023
10.730,0.020
10.735,0.049
10.740,0.036
10.745,0.019
10.750,0.045
10.755,0.047
10.760,0.018
10.765,0.034
10.770,0.060
10.775,0.041
10.780,0.040
10.785,0.059
10.790,0.034
10.795,0.018
10.800,0.054
10.805,0.059
10.810,0.027
10.815,0.041
10.820,0.059
10.825,0.027
10.830,0.026
10.835,0.062
10.840,0.049
10.845,0.027
10.850,0.053
10.855,0.057
10.860,0.033
10.865,0.057
10.870,0.091
10.875,0.080
10.880,0.084
10.885,0.103
10.890,0.082
10.895,0.074
10.900,0.107
10.905,0.109
10.910,0.084
10.915,0.103
10.920,0.129
10.925,0.106
10.930,0.097
10.935,0.117
10.940,0.093
10.945,0.060
10.950,0.067
10.955,0.047
10.960,0.005
10.965,0.010
10.970,0.009
10.975,-0.032
10.980,-0.041
10.985,-0.024
10.990,-0.048
10.995,-0.064
11.000,-0.035
11.005,-0.035
11.010,-0.060
11.015,-0.040
11.020,-0.019
11.025,-0.042
11.030,-0.043
11.035,-0.018
11.040,-0.034
11.045,-0.044
11.050,-0.010
11.055,-0.007
11.060,-0.032
11.065,-0.010
11.070,0.014
11.075,-0.008
11.080,-0.007
11.085,0.026
11.090,0.016
11.095,0.000
11.100,0.020
11.105,0.054
11.110,0.153
11.115,0.374
11.120,0.661
11.125,0.921
11.130,1.045
11.135,0.796
11.140,0.174
11.145,-0.329
11.150,-0.499
11.155,-0.554
11.160,-0.568
11.165,-0.464
11.170,-0.310
11.175,-0.205
11.180,-0.112
11.185,-0.047
11.190,-0.046
11.195,-0.046
11.200,-0.008
11.205,-0.001
11.210,-0.023
11.215,-0.001
11.220,0.020
11.225,-0.005
11.230,-0.002
11.235,0.028
11.240,0.014
11.245,0.001
11.250,0.028
11.255,0.029
11.260,0.009
11.265,0.029
11.270,0.043
11.275,0.021
11.280,0.024
11.285,0.051
11.290,0.035
11.295,0.023
11.300,0.061
11.305,0.064
11.310,0.037
11.315,0.062
11.320,0.087
11.325,0.064
11.330,0.072
11.335,0.110
11.340,0.099
11.345,0.088
11.350,0.127
11.355,0.141
11.360,0.120
11.365,0.140
11.370,0.167
11.375,0.148
11.380,0.151
11.385,0.178
11.390,0.157
11.395,0.136
11.400,0.159
11.405,0.149
11.410,0.107
11.415,0.107
11.420,0.101
11.425,0.052
11.430,0.031
11.435,0.030
11.440,-0.021
11.445,-0.074
11.450,-0.082
11.455,-0.117
11.460,-0.178
11.465,-0.194
11.470,-0.206
11.475,-0.256
11.480,-0.268
11.485,-0.251
11.490,-0.277
11.495,-0.297
11.500,-0.271
11.505,-0.268
11.510,-0.285
11.515,-0.260
11.520,-0.236
11.525,-0.254
11.530,-0.245
11.535,-0.210
11.540,-0.217
11.545,-0.222
11.550,-0.187
11.555,-0.184
11.560,-0.200
11.565,-0.169
11.570,-0.143
11.575,-0.163
11.580,-0.153
11.585,-0.114
11.590,-0.120
11.595,-0.124
11.600,-0.086
11.605,-0.077
11.610,-0.093
11.615,-0.068
11.620,-0.043
11.625,-0.060
11.630,-0.048
11.635,-0.012
11.640,-0.022
11.645,-0.028
11.650,0.004
11.655,0.007
11.660,-0.009
11.665,0.014
11.670,0.033
11.675,0.012
11.680,0.017
11.685,0.044
11.690,0.028
11.695,0.015
11.700,0.045
11.705,0.041
11.710,0.014
11.715,0.036
11.720,0.052
11.725,0.024
11.730,0.027
11.735,0.053
11.740,0.035
11.745,0.022
11.750,0.051
11.755,0.049
11.760,0.023
11.765,0.041
11.770,0.055
11.775,0.028
11.780,0.034
11.785,0.062
11.790,0.042
11.795,0.025
11.800,0.052
11.805,0.049
11.810,0.024
11.815,0.045
11.820,0.058
11.825,0.031
11.830,0.036
11.835,0.063
11.840,0.044
11.845,0.026
11.850,0.052
11.855,0.050
11.860,0.026
11.865,0.047
11.870,0.064
11.875,0.043
11.880,0.061
11.885,0.101
11.890,0.090
11.895,0.077
11.900,0.104
11.905,0.102
11.910,0.078
11.915,0.098
11.920,0.116
11.925,0.090
11.930,0.095
11.935,0.119
11.940,0.094
11.945,0.076
11.950,0.097
11.955,0.080
11.960,0.037
11.965,0.031
11.970,0.025
11.975,-0.015
11.980,-0.025
11.985,-0.010
11.990,-0.038
11.995,-0.056
12.000,-0.029
12.005,-0.036
12.010,-0.066
12.015,-0.046
12.020,-0.033
12.025,-0.060
12.030,-0.053
12.035,-0.028
12.040,-0.047
12.045,-0.055
12.050,-0.023
12.055,-0.024
12.060,-0.046
12.065,-0.024
12.070,-0.008
12.075,-0.033
12.080,-0.024
12.085,0.009
12.090,-0.006
12.095,-0.016
12.100,0.016
12.105,0.011
12.110,-0.001
12.115,0.111
12.120,0.299
12.125,0.499
12.130,0.781
12.135,1.020
12.140,0.899
12.145,0.379
12.150,-0.152
12.155,-0.442
12.160,-0.568
12.165,-0.567
12.170,-0.487
12.175,-0.379
12.180,-0.228
12.185,-0.100
12.190,-0.071
12.195,-0.063
12.200,-0.017
12.205,-0.013
12.210,-0.033
12.215,-0.004
12.220,0.012
12.225,-0.013
12.230,-0.002
12.235,0.029
12.240,0.012
12.245,0.003
12.250,0.033
12.255,0.028
12.260,0.004
12.265,0.028
12.270,0.041
12.275,0.013
12.280,0.021
12.285,0.049
12.290,0.033
12.295,0.026
12.300,0.058
12.305,0.056
12.310,0.035
12.315,0.060
12.320,0.076
12.325,0.055
12.330,0.069
12.335,0.098
12.340,0.081
12.345,0.079
12.350,0.116
12.355,0.120
12.360,0.107
12.365,0.137
12.370,0.157
12.375,0.134
12.380,0.147
12.385,0.177
12.390,0.155
12.395,0.140
12.400,0.168
12.405,0.158
12.410,0.122
12.415,0.132
12.420,0.128
12.425,0.083
12.430,0.074
12.435,0.078
12.440,0.029
12.445,-0.015
12.450,-0.019
12.455,-0.062
12.460,-0.126
12.465,-0.141
12.470,-0.160
12.475,-0.213
12.480,-0.230
12.485,-0.227
12.490,-0.263
12.495,-0.280
12.500,-0.257
12.505,-0.266
12.510,-0.289
12.515,-0.265
12.520,-0.247
12.525,-0.267
12.530,-0.252
12.535,-0.220
12.540,-0.233
12.545,-0.233
12.550,-0.193
12.555,-0.191
12.560,-0.207
12.565,-0.176
12.570,-0.156
12.575,-0.177
12.580,-0.162
12.585,-0.124
12.590,-0.133
12.595,-0.136
12.600,-0.099
12.605,-0.093
12.610,-0.106
12.615,-0.076
12.620,-0.056
12.625,-0.075
12.630,-0.058
12.635,-0.025
12.640,-0.043
12.645,-0.044
12.650,-0.001
12.655,-0.001
12.660,-0.025
12.665,0.004
12.670,0.025
12.675,0.001
12.680,0.010
12.685,0.039
12.690,0.020
12.695,0.013
12.700,0.044
12.705,0.037
12.710,0.015
12.715,0.036
12.720,0.047
12.725,0.021
12.730,0.029
12.735,0.053
12.740,0.029
12.745,0.019
12.750,0.053
12.755,0.046
12.760,0.018
12.765,0.042
12.770,0.054
12.775,0.026
12.780,0.033
12.785,0.056
12.790,0.035
12.795,0.027
12.800,0.055
12.805,0.048
12.810,0.026
12.815,0.048
12.820,0.058
12.825,0.029
12.830,0.034
12.835,0.060
12.840,0.039
12.845,0.029
12.850,0.057
12.855,0.047
12.860,0.022
12.865,0.044
12.870,0.055
12.875,0.029
12.880,0.038
12.885,0.060
12.890,0.037
12.895,0.029
12.900,0.060
12.905,0.060
12.910,0.051
12.915,0.089
12.920,0.107
12.925,0.080
12.930,0.086
12.935,0.112
12.940,0.092
12.945,0.083
12.950,0.113
12.955,0.108
12.960,0.089
12.965,0.110
12.970,0.116
12.975,0.085
12.980,0.082
12.985,0.090
12.990,0.049
12.995,0.015
13.000,0.020
13.005,0.000
13.010,-0.035
13.015,-0.024
13.020,-0.024
13.025,-0.062
13.030,-0.059
13.035,-0.036
13.040,-0.062
13.045,-0.071
13.050,-0.039
13.055,-0.046
13.060,-0.068
13.065,-0.044
13.070,-0.032
13.075,-0.056
13.080,-0.046
13.085,-0.021
13.090,-0.037
13.095,-0.038
13.100,-0.007
13.105,-0.015
13.110,-0.033
13.115,-0.003
13.120,0.009
13.125,-0.017
13.130,-0.003
13.135,0.017
13.140,-0.003
13.145,0.057
13.150,0.242
13.155,0.440
13.160,0.674
13.165,0.941
13.170,0.969
13.175,0.534
13.180,-0.049
13.185,-0.374
13.190,-0.530
13.195,-0.582
13.200,-0.510
13.205,-0.399
13.210,-0.270
13.215,-0.130
13.220,-0.061
13.225,-0.069
13.230,-0.043
13.235,-0.006
13.240,-0.024
13.245,-0.024
13.250,0.008
13.255,0.000
13.260,-0.017
13.265,0.012
13.270,0.023
13.275,-0.003
13.280,0.007
13.285,0.035
13.290,0.014
13.295,0.004
13.300,0.035
13.305,0.029
13.310,0.009
13.315,0.036
13.320,0.050
13.325,0.024
13.330,0.036
13.335,0.062
13.340,0.042
13.345,0.040
13.350,0.077
13.355,0.073
13.360,0.055
13.365,0.083
13.370,0.096
13.375,0.076
13.380,0.096
13.385,0.129
13.390,0.117
13.395,0.116
13.400,0.151
13.405,0.149
13.410,0.130
13.415,0.158
13.420,0.172
13.425,0.147
13.430,0.155
13.435,0.169
13.440,0.135
13.445,0.116
13.450,0.132
13.455,0.106
13.460,0.064
13.465,0.067
13.470,0.047
13.475,-0.010
13.480,-0.025
13.485,-0.033
13.490,-0.094
13.495,-0.138
13.500,-0.143
13.505,-0.184
13.510,-0.232
13.515,-0.225
13.520,-0.234
13.525,-0.276
13.530,-0.274
13.535,-0.254
13.540,-0.276
13.545,-0.279
13.550,-0.246
13.555,-0.252
13.560,-0.268
13.565,-0.234
13.570,-0.213
13.575,-0.227
13.580,-0.209
13.585,-0.185
13.590,-0.202
13.595,-0.194
13.600,-0.154
13.605,-0.160
13.610,-0.176
13.615,-0.141
13.620,-0.121
13.625,-0.138
13.630,-0.119
13.635,-0.088
13.640,-0.102
13.645,-0.096
13.650,-0.058
13.655,-0.065
13.660,-0.078
13.665,-0.037
13.670,-0.019
13.675,-0.041
13.680,-0.026
13.685,-0.002
13.690,-0.018
13.695,-0.012
13.700,0.024
13.705,0.013
13.710,-0.005
13.715,0.022
13.720,0.031
13.725,0.007
13.730,0.022
13.735,0.045
13.740,0.021
13.745,0.018
13.750,0.050
13.755,0.036
13.760,0.016
13.765,0.040
13.770,0.043
13.775,0.017
13.780,0.032
13.785,0.054
13.790,0.031
13.795,0.023
13.800,0.048
13.805,0.037
13.810,0.020
13.815,0.046
13.820,0.047
13.825,0.017
13.830,0.032
13.835,0.053
13.840,0.029
13.845,0.028
13.850,0.058
13.855,0.047
13.860,0.026
13.865,0.047
13.870,0.054
13.875,0.028
13.880,0.039
13.885,0.057
13.890,0.032
13.895,0.031
13.900,0.064
13.905,0.049
13.910,0.024
13.915,0.048
13.920,0.051
13.925,0.021
13.930,0.043
13.935,0.076
13.940,0.058
13.945,0.063
13.950,0.101
13.955,0.095
13.960,0.076
13.965,0.101
13.970,0.104
13.975,0.079
13.980,0.099
13.985,0.116
13.990,0.086
13.995,0.090
14.000,0.125
14.005,0.108
14.010,0.071
14.015,0.082
14.020,0.076
14.025,0.021
14.030,0.008
14.035,0.021
14.040,-0.011
14.045,-0.028
14.050,-0.015
14.055,-0.041
14.060,-0.069
14.065,-0.050
14.070,-0.044
14.075,-0.060
14.080,-0.044
14.085,-0.030
14.090,-0.057
14.095,-0.056
14.100,-0.020
14.105,-0.024
14.110,-0.044
14.115,-0.024
14.120,-0.020
14.125,-0.040
14.130,-0.021
14.135,0.003
14.140,-0.016
14.145,-0.015
14.150,0.013
14.155,0.001
14.160,-0.013
14.165,0.018
14.170,0.020
14.175,-0.006
14.180,0.065
14.185,0.229
14.190,0.407
14.195,0.668
14.200,0.961
14.205,1.002
14.210,0.615
14.215,0.042
14.220,-0.337
14.225,-0.509
14.230,-0.550
14.235,-0.512
14.240,-0.446
14.245,-0.313
14.250,-0.157
14.255,-0.090
14.260,-0.083
14.265,-0.035
14.270,-0.018
14.275,-0.052
14.280,-0.034
14.285,0.003
14.290,-0.012
14.295,-0.017
14.300,0.009
14.305,0.000
14.310,-0.012
14.315,0.019
14.320,0.023
14.325,0.001
14.330,0.021
14.335,0.038
14.340,0.012
14.345,0.007
14.350,0.033
14.355,0.026
14.360,0.012
14.365,0.042
14.370,0.053
14.375,0.032
14.380,0.045
14.385,0.071
14.390,0.062
14.395,0.066
14.400,0.094
14.405,0.081
14.410,0.064
14.415,0.099
14.420,0.117
14.425,0.102
14.430,0.130
14.435,0.155
14.440,0.134
14.445,0.142
14.450,0.177
14.455,0.157
14.460,0.134
14.465,0.162
14.470,0.160
14.475,0.120
14.480,0.126
14.485,0.140
14.490,0.106
14.495,0.090
14.500,0.093
14.505,0.044
14.510,-0.003
14.515,-0.008
14.520,-0.047
14.525,-0.109
14.530,-0.122
14.535,-0.141
14.540,-0.205
14.545,-0.227
14.550,-0.217
14.555,-0.253
14.560,-0.283
14.565,-0.265
14.570,-0.266
14.575,-0.291
14.580,-0.267
14.585,-0.240
14.590,-0.269
14.595,-0.271
14.600,-0.228
14.605,-0.229
14.610,-0.238
14.615,-0.205
14.620,-0.193
14.625,-0.210
14.630,-0.184
14.635,-0.159
14.640,-0.184
14.645,-0.175
14.650,-0.130
14.655,-0.135
14.660,-0.145
14.665,-0.108
14.670,-0.094
14.675,-0.108
14.680,-0.084
14.685,-0.058
14.690,-0.074
14.695,-0.067
14.700,-0.032
14.705,-0.037
14.710,-0.048
14.715,-0.013
14.720,0.002
14.725,-0.017
14.730,0.003
14.735,0.027
14.740,0.004
14.745,0.006
14.750,0.040
14.755,0.026
14.760,0.007
14.765,0.036
14.770,0.036
14.775,0.009
14.780,0.031
14.785,0.052
14.790,0.027
14.795,0.026
14.800,0.051
14.805,0.033
14.810,0.020
14.815,0.050
14.820,0.051
14.825,0.025
14.830,0.038
14.835,0.052
14.840,0.027
14.845,0.031
14.850,0.058
14.855,0.038
14.860,0.020
14.865,0.047
14.870,0.049
14.875,0.026
14.880,0.048
14.885,0.065
14.890,0.035
14.895,0.035
14.900,0.061
14.905,0.046
14.910,0.031
14.915,0.056
14.920,0.056
14.925,0.033
14.930,0.057
14.935,0.087
14.940,0.076
14.945,0.085
14.950,0.111
14.955,0.092
14.960,0.076
14.965,0.107
14.970,0.110
14.975,0.087
14.980,0.108
14.985,0.128
14.990,0.100
14.995,0.096
15.000,0.117
15.005,0.091
15.010,0.065
15.015,0.076
15.020,0.047
15.025,0.000
15.030,0.008
15.035,0.010
15.040,-0.031
15.045,-0.039
15.050,-0.022
15.055,-0.045
15.060,-0.060
15.065,-0.031
15.070,-0.031
15.075,-0.059
15.080,-0.045
15.085,-0.028
15.090,-0.048
15.095,-0.039
15.100,-0.010
15.105,-0.030
15.110,-0.045
15.115,-0.013
15.120,-0.011
15.125,-0.034
15.130,-0.010
15.135,0.006
15.140,-0.020
15.145,-0.009
15.150,0.024
15.155,0.009
15.160,-0.004
15.165,0.027
15.170,0.022
15.175,0.013
15.180,0.134
15.185,0.340
15.190,0.563
15.195,0.848
15.200,1.050
15.205,0.848
15.210,0.273
15.215,-0.239
15.220,-0.490
15.225,-0.585
15.230,-0.563
15.235,-0.467
15.240,-0.354
15.245,-0.214
15.250,-0.090
15.255,-0.062
15.260,-0.059
15.265,-0.016
15.270,-0.007
15.275,-0.030
15.280,-0.005
15.285,0.019
15.290,-0.008
15.295,-0.006
15.300,0.027
15.305,0.011
15.310,-0.003
15.315,0.026
15.320,0.026
15.325,0.001
15.330,0.023
15.335,0.041
15.340,0.017
15.345,0.021
15.350,0.046
15.355,0.028
15.360,0.021
15.365,0.055
15.370,0.053
15.375,0.032
15.380,0.057
15.385,0.078
15.390,0.054
15.395,0.065
15.400,0.101
15.405,0.087
15.410,0.078
15.415,0.115
15.420,0.123
15.425,0.108
15.430,0.137
15.435,0.160
15.440,0.138
15.445,0.147
15.450,0.176
15.455,0.154
15.460,0.138
15.465,0.165
15.470,0.156
15.475,0.115
15.480,0.119
15.485,0.123
15.490,0.080
15.495,0.062
15.500,0.064
15.505,0.016
15.510,-0.030
15.515,-0.035
15.520,-0.073
15.525,-0.135
15.530,-0.150
15.535,-0.167
15.540,-0.224
15.545,-0.245
15.550,-0.234
15.555,-0.264
15.560,-0.287
15.565,-0.267
15.570,-0.269
15.575,-0.289
15.580,-0.265
15.585,-0.247
15.590,-0.268
15.595,-0.255
15.600,-0.219
15.605,-0.229
15.610,-0.234
15.615,-0.200
15.620,-0.196
15.625,-0.212
15.630,-0.183
15.635,-0.158
15.640,-0.176
15.645,-0.164
15.650,-0.127
15.655,-0.136
15.660,-0.139
15.665,-0.100
15.670,-0.094
15.675,-0.110
15.680,-0.078
15.685,-0.052
15.690,-0.070
15.695,-0.058
15.700,-0.023
15.705,-0.035
15.710,-0.041
15.715,-0.004
15.720,0.000
15.725,-0.018
15.730,0.006
15.735,0.025
15.740,0.005
15.745,0.016
15.750,0.046
15.755,0.027
15.760,0.014
15.765,0.042
15.770,0.042
15.775,0.019
15.780,0.040
15.785,0.055
15.790,0.027
15.795,0.030
15.800,0.056
15.805,0.034
15.810,0.023
15.815,0.052
15.820,0.046
15.825,0.020
15.830,0.044
15.835,0.059
15.840,0.029
15.845,0.034
15.850,0.059
15.855,0.039
15.860,0.026
15.865,0.054
15.870,0.049
15.875,0.023
15.880,0.045
15.885,0.060
15.890,0.032
15.895,0.037
15.900,0.062
15.905,0.044
15.910,0.031
15.915,0.057
15.920,0.052
15.925,0.028
15.930,0.048
15.935,0.058
15.940,0.029
15.945,0.036
15.950,0.063
15.955,0.044
15.960,0.040
15.965,0.079
15.970,0.084
15.975,0.069
15.980,0.099
15.985,0.112
15.990,0.081
15.995,0.089
16.000,0.114
16.005,0.094
16.010,0.085
16.015,0.116
16.020,0.110
16.025,0.080
16.030,0.098
16.035,0.103
16.040,0.061
16.045,0.052
16.050,0.059
16.055,0.013
16.060,-0.015
16.065,0.002
16.070,-0.016
16.075,-0.051
16.080,-0.040
16.085,-0.035
16.090,-0.065
16.095,-0.059
16.100,-0.036
16.105,-0.057
16.110,-0.068
16.115,-0.039
16.120,-0.043
16.125,-0.066
16.130,-0.041
16.135,-0.022
16.140,-0.047
16.145,-0.040
16.150,-0.014
16.155,-0.033
16.160,-0.042
16.165,-0.008
16.170,-0.008
16.175,-0.031
16.180,-0.006
16.185,0.011
16.190,-0.010
16.195,-0.001
16.200,0.024
16.205,0.062
16.210,0.201
16.215,0.433
16.220,0.685
16.225,0.909
16.230,0.965
16.235,0.593
16.240,-0.025
16.245,-0.389
16.250,-0.509
16.255,-0.574
16.260,-0.551
16.265,-0.407
16.270,-0.254
16.275,-0.157
16.280,-0.072
16.285,-0.039
16.290,-0.048
16.295,-0.025
16.300,0.004
16.305,-0.013
16.310,-0.019
16.315,0.014
16.320,0.013
16.325,-0.009
16.330,0.017
16.335,0.032
16.340,0.005
16.345,0.014
16.350,0.040
16.355,0.021
16.360,0.012
16.365,0.042
16.370,0.034
16.375,0.010
16.380,0.039
16.385,0.056
16.390,0.030
16.395,0.041
16.400,0.068
16.405,0.051
16.410,0.048
16.415,0.081
16.420,0.077
16.425,0.057
16.430,0.086
16.435,0.105
16.440,0.083
16.445,0.100
16.450,0.138
16.455,0.126
16.460,0.123
16.465,0.156
16.470,0.154
16.475,0.135
16.480,0.162
16.485,0.173
16.490,0.142
16.495,0.145
16.500,0.162
16.505,0.128
16.510,0.105
16.515,0.120
16.520,0.092
16.525,0.046
16.530,0.044
16.535,0.027
16.540,-0.033
16.545,-0.060
16.550,-0.070
16.555,-0.127
16.560,-0.171
16.565,-0.172
16.570,-0.206
16.575,-0.250
16.580,-0.243
16.585,-0.247
16.590,-0.285
16.595,-0.278
16.600,-0.253
16.605,-0.274
16.610,-0.278
16.615,-0.242
16.620,-0.242
16.625,-0.258
16.630,-0.225
16.635,-0.205
16.640,-0.228
16.645,-0.213
16.650,-0.180
16.655,-0.193
16.660,-0.192
16.665,-0.152
16.670,-0.150
16.675,-0.166
16.680,-0.134
16.685,-0.114
16.690,-0.132
16.695,-0.112
16.700,-0.076
16.705,-0.088
16.710,-0.089
16.715,-0.050
16.720,-0.049
16.725,-0.064
16.730,-0.033
16.735,-0.017
16.740,-0.036
16.745,-0.018
16.750,0.011
16.755,-0.007
16.760,-0.010
16.765,0.024
16.770,0.021
16.775,0.001
16.780,0.027
16.785,0.040
16.790,0.013
16.795,0.022
16.800,0.050
16.805,0.027
16.810,0.017
16.815,0.048
16.820,0.041
16.825,0.018
16.830,0.044
16.835,0.055
16.840,0.025
16.845,0.033
16.850,0.057
16.855,0.037
16.860,0.031
16.865,0.058
16.870,0.046
16.875,0.022
16.880,0.046
16.885,0.056
16.890,0.028
16.895,0.039
16.900,0.062
16.905,0.037
16.910,0.029
16.915,0.057
16.920,0.048
16.925,0.028
16.930,0.051
16.935,0.057
16.940,0.029
16.945,0.041
16.950,0.063
16.955,0.038
16.960,0.031
16.965,0.062
16.970,0.051
16.975,0.025
16.980,0.049
16.985,0.057
16.990,0.027
16.995,0.036
17.000,0.059
17.005,0.037
17.010,0.034
17.015,0.075
17.020,0.077
17.025,0.066
17.030,0.099
17.035,0.107
17.040,0.076
17.045,0.088
17.050,0.112
17.055,0.090
17.060,0.082
17.065,0.112
17.070,0.107
17.075,0.083
17.080,0.102
17.085,0.102
17.090,0.060
17.095,0.058
17.100,0.063
17.105,0.011
17.110,-0.013
17.115,0.006
17.120,-0.020
17.125,-0.053
17.130,-0.037
17.135,-0.037
17.140,-0.067
17.145,-0.057
17.150,-0.037
17.155,-0.062
17.160,-0.069
17.165,-0.039
17.170,-0.049
17.175,-0.071
17.180,-0.042
17.185,-0.030
17.190,-0.055
17.195,-0.038
17.200,-0.015
17.205,-0.040
17.210,-0.042
17.215,-0.009
17.220,-0.017
17.225,-0.033
17.230,-0.004
17.235,0.006
17.240,-0.016
17.245,-0.003
17.250,0.015
17.255,0.025
17.260,0.148
17.265,0.367
17.270,0.586
17.275,0.822
17.280,0.974
17.285,0.726
17.290,0.126
17.295,-0.317
17.300,-0.488
17.305,-0.582
17.310,-0.575
17.315,-0.444
17.320,-0.298
17.325,-0.181
17.330,-0.078
17.335,-0.041
17.340,-0.051
17.345,-0.024
17.350,0.003
17.355,-0.019
17.360,-0.018
17.365,0.015
17.370,0.008
17.375,-0.005
17.380,0.023
17.385,0.029
17.390,0.003
17.395,0.017
17.400,0.041
17.405,0.017
17.410,0.016
17.415,0.050
17.420,0.039
17.425,0.018
17.430,0.046
17.435,0.053
17.440,0.028
17.445,0.047
17.450,0.071
17.455,0.048
17.460,0.048
17.465,0.081
17.470,0.074
17.475,0.061
17.480,0.092
17.485,0.102
17.490,0.084
17.495,0.108
17.500,0.134
17.505,0.113
17.510,0.119
17.515,0.160
17.520,0.152
17.525,0.135
17.530,0.164
17.535,0.170
17.540,0.139
17.545,0.150
17.550,0.164
17.555,0.126
17.560,0.109
17.565,0.127
17.570,0.101
17.575,0.058
17.580,0.057
17.585,0.036
17.590,-0.022
17.595,-0.042
17.600,-0.057
17.605,-0.117
17.610,-0.156
17.615,-0.162
17.620,-0.202
17.625,-0.244
17.630,-0.237
17.635,-0.247
17.640,-0.282
17.645,-0.273
17.650,-0.256
17.655,-0.280
17.660,-0.278
17.665,-0.245
17.670,-0.250
17.675,-0.260
17.680,-0.225
17.685,-0.213
17.690,-0.229
17.695,-0.204
17.700,-0.173
17.705,-0.190
17.710,-0.192
17.715,-0.161
17.720,-0.164
17.725,-0.169
17.730,-0.127
17.735,-0.112
17.740,-0.135
17.745,-0.114
17.750,-0.084
17.755,-0.097
17.760,-0.088
17.765,-0.050
17.770,-0.057
17.775,-0.070
17.780,-0.032
17.785,-0.015
17.790,-0.034
17.795,-0.017
17.800,0.004
17.805,-0.018
17.810,-0.015
17.815,0.026
17.820,0.021
17.825,0.003
17.830,0.032
17.835,0.038
17.840,0.008
17.845,0.022
17.850,0.047
17.855,0.025
17.860,0.022
17.865,0.051
17.870,0.039
17.875,0.022
17.880,0.049
17.885,0.050
17.890,0.017
17.895,0.030
17.900,0.053
17.905,0.030
17.910,0.026
17.915,0.052
17.920,0.032
17.925,0.013
17.930,0.048
17.935,0.056
17.940,0.025
17.945,0.036
17.950,0.053
17.955,0.029
17.960,0.031
17.965,0.060
17.970,0.045
17.975,0.024
17.980,0.046
17.985,0.049
17.990,0.027
17.995,0.045
18.000,0.059
18.005,0.030
18.010,0.031
18.015,0.059
18.020,0.039
18.025,0.019
18.030,0.050
18.035,0.058
18.040,0.031
18.045,0.047
18.050,0.066
18.055,0.042
18.060,0.053
18.065,0.097
18.070,0.091
18.075,0.074
18.080,0.101
18.085,0.107
18.090,0.079
18.095,0.095
18.100,0.116
18.105,0.088
18.110,0.088
18.115,0.114
18.120,0.098
18.125,0.082
18.130,0.095
18.135,0.075
18.140,0.023
18.145,0.014
18.150,0.024
18.155,-0.007
18.160,-0.025
18.165,-0.020
18.170,-0.051
18.175,-0.072
18.180,-0.041
18.185,-0.041
18.190,-0.072
18.195,-0.052
18.200,-0.025
18.205,-0.053
18.210,-0.061
18.215,-0.030
18.220,-0.038
18.225,-0.055
18.230,-0.026
18.235,-0.020
18.240,-0.043
18.245,-0.023
18.250,-0.006
18.255,-0.031
18.260,-0.020
18.265,0.017
18.270,0.005
18.275,-0.011
18.280,0.010
18.285,0.002
18.290,-0.025
18.295,0.041
18.300,0.196
18.305,0.368
18.310,0.623
18.315,0.920
18.320,1.000
18.325,0.683
18.330,0.132
18.335,-0.300
18.340,-0.508
18.345,-0.551
18.350,-0.525
18.355,-0.463
18.360,-0.315
18.365,-0.155
18.370,-0.096
18.375,-0.090
18.380,-0.042
18.385,-0.021
18.390,-0.045
18.395,-0.023
18.400,0.000
18.405,-0.024
18.410,-0.018
18.415,0.017
18.420,0.005
18.425,-0.009
18.430,0.020
18.435,0.024
18.440,0.003
18.445,0.020
18.450,0.039
18.455,0.015
18.460,0.010
18.465,0.038
18.470,0.030
18.475,0.019
18.480,0.050
18.485,0.052
18.490,0.023
18.495,0.047
18.500,0.078
18.505,0.057
18.510,0.059
18.515,0.093
18.520,0.085
18.525,0.076
18.530,0.112
18.535,0.119
18.540,0.100
18.545,0.130
18.550,0.156
18.555,0.131
18.560,0.131
18.565,0.166
18.570,0.159
18.575,0.146
18.580,0.173
18.585,0.164
18.590,0.127
18.595,0.136
18.600,0.144
18.605,0.107
18.610,0.092
18.615,0.097
18.620,0.051
18.625,0.001
18.630,-0.003
18.635,-0.034
18.640,-0.089
18.645,-0.105
18.650,-0.134
18.655,-0.201
18.660,-0.220
18.665,-0.210
18.670,-0.248
18.675,-0.280
18.680,-0.264
18.685,-0.269
18.690,-0.293
18.695,-0.275
18.700,-0.259
18.705,-0.275
18.710,-0.262
18.715,-0.229
18.720,-0.238
18.725,-0.241
18.730,-0.200
18.735,-0.192
18.740,-0.214
18.745,-0.189
18.750,-0.162
18.755,-0.177
18.760,-0.164
18.765,-0.128
18.770,-0.139
18.775,-0.148
18.780,-0.107
18.785,-0.097
18.790,-0.119
18.795,-0.093
18.800,-0.065
18.805,-0.081
18.810,-0.065
18.815,-0.025
18.820,-0.041
18.825,-0.051
18.830,-0.011
18.835,-0.006
18.840,-0.028
18.845,-0.001
18.850,0.020
18.855,-0.004
18.860,0.006
18.865,0.037
18.870,0.017
18.875,0.002
18.880,0.035
18.885,0.039
18.890,0.018
18.895,0.040
18.900,0.052
18.905,0.018
18.910,0.015
18.915,0.046
18.920,0.037
18.925,0.028
18.930,0.052
18.935,0.044
18.940,0.017
18.945,0.037
18.950,0.050
18.955,0.020
18.960,0.025
18.965,0.055
18.970,0.037
18.975,0.026
18.980,0.054
18.985,0.047
18.990,0.018
18.995,0.037
19.000,0.055
19.005,0.031
19.010,0.038
19.015,0.067
19.020,0.046
19.025,0.027
19.030,0.055
19.035,0.054
19.040,0.031
19.045,0.051
19.050,0.068
19.055,0.049
19.060,0.059
19.065,0.096
19.070,0.090
19.075,0.080
19.080,0.107
19.085,0.103
19.090,0.078
19.095,0.102
19.100,0.121
19.105,0.090
19.110,0.097
19.115,0.128
19.120,0.104
19.125,0.084
19.130,0.106
19.135,0.091
19.140,0.049
19.145,0.047
19.150,0.042
19.155,0.001
19.160,-0.007
19.165,0.006
19.170,-0.028
19.175,-0.055
19.180,-0.033
19.185,-0.034
19.190,-0.059
19.195,-0.043
19.200,-0.029
19.205,-0.056
19.210,-0.051
19.215,-0.021
19.220,-0.041
19.225,-0.055
19.230,-0.021
19.235,-0.024
19.240,-0.046
19.245,-0.019
19.250,-0.003
19.255,-0.030
19.260,-0.022
19.265,0.009
19.270,-0.007
19.275,-0.019
19.280,0.014
19.285,0.015
19.290,-0.014
19.295,0.005
19.300,0.067
19.305,0.181
19.310,0.394
19.315,0.690
19.320,0.938
19.325,0.997
19.330,0.688
19.335,0.074
19.340,-0.388
19.345,-0.534
19.350,-0.564
19.355,-0.563
19.360,-0.448
19.365,-0.268
19.370,-0.160
19.375,-0.097
19.380,-0.044
19.385,-0.036
19.390,-0.045
19.395,-0.015
19.400,0.002
19.405,-0.020
19.410,-0.009
19.415,0.021
19.420,0.004
19.425,-0.006
19.430,0.025
19.435,0.021
19.440,-0.004
19.445,0.021
19.450,0.034
19.455,0.006
19.460,0.016
19.465,0.043
19.470,0.020
19.475,0.009
19.480,0.043
19.485,0.042
19.490,0.021
19.495,0.047
19.500,0.064
19.505,0.040
19.510,0.052
19.515,0.084
19.520,0.070
19.525,0.064
19.530,0.096
19.535,0.100
19.540,0.087
19.545,0.120
19.550,0.139
19.555,0.116
19.560,0.131
19.565,0.164
19.570,0.146
19.575,0.137
19.580,0.171
19.585,0.163
19.590,0.128
19.595,0.146
19.600,0.151
19.605,0.108
19.610,0.098
19.615,0.104
19.620,0.061
19.625,0.025
19.630,0.026
19.635,-0.010
19.640,-0.067
19.645,-0.080
19.650,-0.104
19.655,-0.165
19.660,-0.188
19.665,-0.195
19.670,-0.241
19.675,-0.268
19.680,-0.254
19.685,-0.267
19.690,-0.290
19.695,-0.267
19.700,-0.255
19.705,-0.284
19.710,-0.272
19.715,-0.237
19.720,-0.248
19.725,-0.248
19.730,-0.211
19.735,-0.208
19.740,-0.223
19.745,-0.191
19.750,-0.169
19.755,-0.187
19.760,-0.174
19.765,-0.144
19.770,-0.154
19.775,-0.153
19.780,-0.117
19.785,-0.114
19.790,-0.128
19.795,-0.094
19.800,-0.072
19.805,-0.089
19.810,-0.071
19.815,-0.037
19.820,-0.052
19.825,-0.052
19.830,-0.013
19.835,-0.012
19.840,-0.029
19.845,-0.002
19.850,0.014
19.855,-0.006
19.860,0.008
19.865,0.038
19.870,0.021
19.875,0.012
19.880,0.043
19.885,0.038
19.890,0.016
19.895,0.041
19.900,0.052
19.905,0.021
19.910,0.029
19.915,0.056
19.920,0.034
19.925,0.026
19.930,0.056
19.935,0.046
19.940,0.020
19.945,0.044
19.950,0.056
19.955,0.026
19.960,0.033
19.965,0.059
19.970,0.036
19.975,0.027
19.980,0.056
19.985,0.046
19.990,0.023
19.995,0.049
20.000,0.059
20.005,0.029
20.010,0.036
20.015,0.061
20.020,0.042
20.025,0.034
20.030,0.062
20.035,0.051
20.040,0.026
20.045,0.050
20.050,0.061
20.055,0.033
20.060,0.042
20.065,0.065
20.070,0.041
20.075,0.030
20.080,0.061
20.085,0.053
20.090,0.027
20.095,0.051
20.100,0.065
20.105,0.047
20.110,0.071
20.115,0.108
20.120,0.092
20.125,0.080
20.130,0.108
20.135,0.101
20.140,0.077
20.145,0.102
20.150,0.113
20.155,0.085
20.160,0.096
20.165,0.116
20.170,0.090
20.175,0.075
20.180,0.088
20.185,0.065
20.190,0.025
20.195,0.023
20.200,0.015
20.205,-0.024
20.210,-0.029
20.215,-0.017
20.220,-0.050
20.225,-0.063
20.230,-0.037
20.235,-0.047
20.240,-0.070
20.245,-0.046
20.250,-0.036
20.255,-0.063
20.260,-0.054
20.265,-0.029
20.270,-0.049
20.275,-0.056
20.280,-0.027
20.285,-0.030
20.290,-0.046
20.295,-0.019
20.300,-0.010
20.305,-0.038
20.310,-0.020
20.315,0.010
20.320,-0.012
20.325,-0.017
20.330,0.015
20.335,0.003
20.340,0.015
20.345,0.166
20.350,0.366
20.355,0.570
20.360,0.841
20.365,1.005
20.370,0.743
20.375,0.160
20.380,-0.291
20.385,-0.508
20.390,-0.595
20.395,-0.562
20.400,-0.456
20.405,-0.320
20.410,-0.166
20.415,-0.065
20.420,-0.058
20.425,-0.046
20.430,-0.005
20.435,-0.010
20.440,-0.024
20.445,0.007
20.450,0.016
20.455,-0.009
20.460,0.005
20.465,0.029
20.470,0.010
20.475,0.006
20.480,0.035
20.485,0.027
20.490,0.009
20.495,0.035
20.500,0.042
20.505,0.013
20.510,0.025
20.515,0.049
20.520,0.029
20.525,0.027
20.530,0.057
20.535,0.049
20.540,0.034
20.545,0.064
20.550,0.076
20.555,0.053
20.560,0.068
20.565,0.096
20.570,0.080
20.575,0.081
20.580,0.120
20.585,0.117
20.590,0.101
20.595,0.135
20.600,0.150
20.605,0.128
20.610,0.145
20.615,0.172
20.620,0.149
20.625,0.142
20.630,0.167
20.635,0.148
20.640,0.119
20.645,0.134
20.650,0.123
20.655,0.077
20.660,0.070
20.665,0.067
20.670,0.015
20.675,-0.021
20.680,-0.024
20.685,-0.070
20.690,-0.125
20.695,-0.136
20.700,-0.164
20.705,-0.219
20.710,-0.230
20.715,-0.228
20.720,-0.269
20.725,-0.285
20.730,-0.260
20.735,-0.272
20.740,-0.292
20.745,-0.264
20.750,-0.252
20.755,-0.270
20.760,-0.245
20.765,-0.216
20.770,-0.234
20.775,-0.228
20.780,-0.187
20.785,-0.191
20.790,-0.203
20.795,-0.165
20.800,-0.152
20.805,-0.175
20.810,-0.148
20.815,-0.114
20.820,-0.132
20.825,-0.127
20.830,-0.088
20.835,-0.090
20.840,-0.100
20.845,-0.066
20.850,-0.051
20.855,-0.069
20.860,-0.048
20.865,-0.019
20.870,-0.037
20.875,-0.034
20.880,0.004
20.885,-0.003
20.890,-0.022
20.895,0.011
20.900,0.023
20.905,-0.001
20.910,0.017
20.915,0.041
20.920,0.018
20.925,0.017
20.930,0.051
20.935,0.040
20.940,0.020
20.945,0.047
20.950,0.052
20.955,0.025
20.960,0.041
20.965,0.060
20.970,0.032
20.975,0.028
20.980,0.057
20.985,0.045
20.990,0.027
20.995,0.051
21.000,0.055
21.005,0.028
21.010,0.043
21.015,0.063
21.020,0.037
21.025,0.033
21.030,0.061
21.035,0.047
21.040,0.029
21.045,0.055
21.050,0.057
21.055,0.027
21.060,0.044
21.065,0.065
21.070,0.035
21.075,0.031
21.080,0.064
21.085,0.051
21.090,0.030
21.095,0.054
21.100,0.056
21.105,0.027
21.110,0.040
21.115,0.057
21.120,0.030
21.125,0.029
21.130,0.055
21.135,0.038
21.140,0.019
21.145,0.049
21.150,0.064
21.155,0.047
21.160,0.073
21.165,0.108
21.170,0.088
21.175,0.080
21.180,0.108
21.185,0.096
21.190,0.076
21.195,0.102
21.200,0.104
21.205,0.080
21.210,0.099
21.215,0.115
21.220,0.083
21.225,0.069
21.230,0.083
21.235,0.055
21.240,0.013
21.245,0.013
21.250,0.002
21.255,-0.037
21.260,-0.035
21.265,-0.025
21.270,-0.063
21.275,-0.070
21.280,-0.041
21.285,-0.057
21.290,-0.079
21.295,-0.055
21.300,-0.056
21.305,-0.082
21.310,-0.061
21.315,-0.039
21.320,-0.065
21.325,-0.063
21.330,-0.035
21.335,-0.051
21.340,-0.064
21.345,-0.030
21.350,-0.021
21.355,-0.041
21.360,-0.021
21.365,0.000
21.370,-0.023
21.375,-0.017
21.380,0.014
21.385,-0.001
21.390,0.037
21.395,0.211
21.400,0.409
21.405,0.627
21.410,0.889
21.415,0.952
21.420,0.566
21.425,-0.011
21.430,-0.359
21.435,-0.526
21.440,-0.594
21.445,-0.536
21.450,-0.414
21.455,-0.279
21.460,-0.141
21.465,-0.061
21.470,-0.062
21.475,-0.048
21.480,-0.011
21.485,-0.019
21.490,-0.031
21.495,-0.001
21.500,0.004
21.505,-0.020
21.510,0.002
21.515,0.027
21.520,0.000
21.525,0.003
21.530,0.038
21.535,0.024
21.540,0.008
21.545,0.039
21.550,0.038
21.555,0.004
21.560,0.020
21.565,0.044
21.570,0.025
21.575,0.029
21.580,0.058
21.585,0.044
21.590,0.028
21.595,0.059
21.600,0.074
21.605,0.058
21.610,0.075
21.615,0.091
21.620,0.072
21.625,0.087
21.630,0.132
21.635,0.122
21.640,0.109
21.645,0.143
21.650,0.147
21.655,0.127
21.660,0.152
21.665,0.170
21.670,0.138
21.675,0.136
21.680,0.165
21.685,0.144
21.690,0.116
21.695,0.132
21.700,0.120
21.705,0.077
21.710,0.070
21.715,0.060
21.720,0.011
21.725,-0.015
21.730,-0.023
21.735,-0.079
21.740,-0.131
21.745,-0.133
21.750,-0.165
21.755,-0.227
21.760,-0.234
21.765,-0.233
21.770,-0.275
21.775,-0.282
21.780,-0.254
21.785,-0.274
21.790,-0.294
21.795,-0.259
21.800,-0.247
21.805,-0.268
21.810,-0.246
21.815,-0.219
21.820,-0.235
21.825,-0.230
21.830,-0.202
21.835,-0.209
21.840,-0.207
21.845,-0.167
21.850,-0.161
21.855,-0.180
21.860,-0.152
21.865,-0.125
21.870,-0.140
21.875,-0.129
21.880,-0.093
21.885,-0.101
21.890,-0.106
21.895,-0.070
21.900,-0.062
21.905,-0.077
21.910,-0.051
21.915,-0.024
21.920,-0.042
21.925,-0.039
21.930,-0.007
21.935,-0.013
21.940,-0.019
21.945,0.017
21.950,0.023
21.955,-0.004
21.960,0.011
21.965,0.031
21.970,0.013
21.975,0.022
21.980,0.053
21.985,0.038
21.990,0.021
21.995,0.046
22.000,0.043
22.005,0.020
22.010,0.047
22.015,0.060
22.020,0.022
22.025,0.025
22.030,0.061
22.035,0.043
22.040,0.023
22.045,0.052
22.050,0.055
22.055,0.033
22.060,0.050
22.065,0.059
22.070,0.024
22.075,0.028
22.080,0.062
22.085,0.043
22.090,0.023
22.095,0.056
22.100,0.058
22.105,0.026
22.110,0.045
22.115,0.066
22.120,0.041
22.125,0.045
22.130,0.069
22.135,0.048
22.140,0.037
22.145,0.071
22.150,0.067
22.155,0.038
22.160,0.055
22.165,0.072
22.170,0.054
22.175,0.074
22.180,0.114
22.185,0.096
22.190,0.081
22.195,0.113
22.200,0.117
22.205,0.092
22.210,0.111
22.215,0.129
22.220,0.101
22.225,0.109
22.230,0.140
22.235,0.119
22.240,0.094
22.245,0.105
22.250,0.092
22.255,0.049
22.260,0.041
22.265,0.039
22.270,-0.002
22.275,-0.020
22.280,-0.012
22.285,-0.038
22.290,-0.055
22.295,-0.028
22.300,-0.032
22.305,-0.065
22.310,-0.053
22.315,-0.040
22.320,-0.063
22.325,-0.051
22.330,-0.021
22.335,-0.041
22.340,-0.052
22.345,-0.019
22.350,-0.022
22.355,-0.051
22.360,-0.028
22.365,-0.006
22.370,-0.033
22.375,-0.027
22.380,0.007
22.385,-0.006
22.390,-0.015
22.395,0.013
22.400,0.003
22.405,-0.017
22.410,0.065
22.415,0.223
22.420,0.406
22.425,0.690
22.430,0.982
22.435,1.004
22.440,0.611
22.445,0.034
22.450,-0.360
22.455,-0.536
22.460,-0.568
22.465,-0.527
22.470,-0.449
22.475,-0.303
22.480,-0.153
22.485,-0.094
22.490,-0.081
22.495,-0.036
22.500,-0.026
22.505,-0.044
22.510,-0.014
22.515,0.005
22.520,-0.026
22.525,-0.018
22.530,0.019
22.535,-0.001
22.540,-0.017
22.545,0.018
22.550,0.021
22.555,-0.001
22.560,0.018
22.565,0.035
22.570,0.013
22.575,0.017
22.580,0.039
22.585,0.020
22.590,0.014
22.595,0.052
22.600,0.055
22.605,0.031
22.610,0.053
22.615,0.070
22.620,0.047
22.625,0.056
22.630,0.087
22.635,0.076
22.640,0.073
22.645,0.110
22.650,0.112
22.655,0.095
22.660,0.128
22.665,0.152
22.670,0.133
22.675,0.142
22.680,0.171
22.685,0.154
22.690,0.146
22.695,0.177
22.700,0.167
22.705,0.132
22.710,0.141
22.715,0.140
22.720,0.097
22.725,0.084
22.730,0.088
22.735,0.046
22.740,0.005
22.745,0.002
22.750,-0.035
22.755,-0.098
22.760,-0.114
22.765,-0.132
22.770,-0.196
22.775,-0.221
22.780,-0.216
22.785,-0.254
22.790,-0.282
22.795,-0.262
22.800,-0.269
22.805,-0.290
22.810,-0.262
22.815,-0.245
22.820,-0.263
22.825,-0.247
22.830,-0.216
22.835,-0.228
22.840,-0.231
22.845,-0.194
22.850,-0.188
22.855,-0.202
22.860,-0.172
22.865,-0.151
22.870,-0.169
22.875,-0.154
22.880,-0.123
22.885,-0.138
22.890,-0.138
22.895,-0.098
22.900,-0.098
22.905,-0.113
22.910,-0.080
22.915,-0.057
22.920,-0.077
22.925,-0.062
22.930,-0.028
22.935,-0.044
22.940,-0.049
22.945,-0.008
22.950,-0.005
22.955,-0.025
22.960,0.004
22.965,0.020
22.970,-0.005
22.975,0.009
22.980,0.041
22.985,0.020
22.990,0.010
22.995,0.041
23.000,0.037
23.005,0.013
23.010,0.035
23.015,0.049
23.020,0.022
23.025,0.027
23.030,0.048
23.035,0.027
23.040,0.020
23.045,0.051
23.050,0.044
23.055,0.019
23.060,0.043
23.065,0.053
23.070,0.021
23.075,0.029
23.080,0.054
23.085,0.032
23.090,0.024
23.095,0.056
23.100,0.049
23.105,0.023
23.110,0.049
23.115,0.061
23.120,0.029
23.125,0.035
23.130,0.062
23.135,0.040
23.140,0.030
23.145,0.059
23.150,0.050
23.155,0.026
23.160,0.050
23.165,0.060
23.170,0.030
23.175,0.037
23.180,0.064
23.185,0.049
23.190,0.046
23.195,0.088
23.200,0.098
23.205,0.081
23.210,0.102
23.215,0.112
23.220,0.083
23.225,0.092
23.230,0.120
23.235,0.098
23.240,0.088
23.245,0.119
23.250,0.107
23.255,0.083
23.260,0.102
23.265,0.096
23.270,0.050
23.275,0.037
23.280,0.037
23.285,-0.001
23.290,-0.023
23.295,-0.007
23.300,-0.023
23.305,-0.055
23.310,-0.040
23.315,-0.034
23.320,-0.063
23.325,-0.056
23.330,-0.036
23.335,-0.059
23.340,-0.063
23.345,-0.030
23.350,-0.040
23.355,-0.063
23.360,-0.035
23.365,-0.021
23.370,-0.048
23.375,-0.038
23.380,-0.011
23.385,-0.030
23.390,-0.034
23.395,0.003
23.400,-0.004
23.405,-0.027
23.410,0.001
23.415,0.015
23.420,-0.016
23.425,0.048
23.430,0.222
23.435,0.402
23.440,0.651
23.445,0.941
23.450,0.992
23.455,0.613
23.460,0.032
23.465,-0.366
23.470,-0.551
23.475,-0.588
23.480,-0.530
23.485,-0.434
23.490,-0.286
23.495,-0.136
23.500,-0.078
23.505,-0.072
23.510,-0.029
23.515,-0.008
23.520,-0.031
23.525,-0.013
23.530,0.018
23.535,-0.002
23.540,-0.005
23.545,0.030
23.550,0.021
23.555,-0.001
23.560,0.026
23.565,0.035
23.570,0.010
23.575,0.023
23.580,0.046
23.585,0.026
23.590,0.022
23.595,0.050
23.600,0.039
23.605,0.019
23.610,0.048
23.615,0.061
23.620,0.035
23.625,0.047
23.630,0.076
23.635,0.059
23.640,0.055
23.645,0.087
23.650,0.085
23.655,0.073
23.660,0.107
23.665,0.122
23.670,0.101
23.675,0.121
23.680,0.151
23.685,0.131
23.690,0.131
23.695,0.170
23.700,0.164
23.705,0.140
23.710,0.160
23.715,0.165
23.720,0.130
23.725,0.130
23.730,0.139
23.735,0.101
23.740,0.075
23.745,0.082
23.750,0.047
23.755,-0.003
23.760,-0.009
23.765,-0.035
23.770,-0.100
23.775,-0.123
23.780,-0.134
23.785,-0.192
23.790,-0.224
23.795,-0.217
23.800,-0.249
23.805,-0.286
23.810,-0.267
23.815,-0.264
23.820,-0.293
23.825,-0.277
23.830,-0.250
23.835,-0.269
23.840,-0.269
23.845,-0.228
23.850,-0.227
23.855,-0.239
23.860,-0.205
23.865,-0.190
23.870,-0.210
23.875,-0.190
23.880,-0.159
23.885,-0.171
23.890,-0.166
23.895,-0.127
23.900,-0.129
23.905,-0.142
23.910,-0.106
23.915,-0.087
23.920,-0.107
23.925,-0.088
23.930,-0.058
23.935,-0.075
23.940,-0.068
23.945,-0.028
23.950,-0.035
23.955,-0.052
23.960,-0.019
23.965,-0.004
23.970,-0.024
23.975,-0.006
23.980,0.022
23.985,0.003
23.990,0.000
23.995,0.033
24.000,0.026
24.005,0.007
24.010,0.035
24.015,0.044
24.020,0.013
24.025,0.023
24.030,0.045
24.035,0.022
24.040,0.020
24.045,0.049
24.050,0.035
24.055,0.014
24.060,0.038
24.065,0.043
24.070,0.014
24.075,0.024
24.080,0.044
24.085,0.021
24.090,0.019
24.095,0.050
24.100,0.039
24.105,0.016
24.110,0.038
24.115,0.043
24.120,0.016
24.125,0.030
24.130,0.050
24.135,0.026
24.140,0.022
24.145,0.049
24.150,0.036
24.155,0.015
24.160,0.042
24.165,0.048
24.170,0.020
24.175,0.035
24.180,0.055
24.185,0.024
24.190,0.019
24.195,0.052
24.200,0.041
24.205,0.020
24.210,0.045
24.215,0.052
24.220,0.028
24.225,0.052
24.230,0.087
24.235,0.075
24.240,0.077
24.245,0.105
24.250,0.089
24.255,0.071
24.260,0.102
24.265,0.109
24.270,0.081
24.275,0.096
24.280,0.120
24.285,0.092
24.290,0.084
24.295,0.108
24.300,0.080
24.305,0.045
24.310,0.049
24.315,0.025
24.320,-0.018
24.325,-0.013
24.330,-0.003
24.335,-0.038
24.340,-0.054
24.345,-0.033
24.350,-0.046
24.355,-0.068
24.360,-0.044
24.365,-0.040
24.370,-0.068
24.375,-0.053
24.380,-0.031
24.385,-0.054
24.390,-0.055
24.395,-0.023
24.400,-0.034
24.405,-0.054
24.410,-0.024
24.415,-0.014
24.420,-0.040
24.425,-0.021
24.430,0.007
24.435,-0.013
24.440,-0.014
24.445,0.019
24.450,0.005
24.455,-0.007
24.460,0.096
24.465,0.262
24.470,0.439
24.475,0.707
24.480,0.958
24.485,0.914
24.490,0.476
24.495,-0.071
24.500,-0.412
24.505,-0.553
24.510,-0.558
24.515,-0.504
24.520,-0.405
24.525,-0.232
24.530,-0.100
24.535,-0.073
24.540,-0.058
24.545,-0.013
24.550,-0.016
24.555,-0.030
24.560,0.002
24.565,0.012
24.570,-0.012
24.575,0.003
24.580,0.024
24.585,0.003
24.590,0.005
24.595,0.033
24.600,0.021
24.605,0.006
24.610,0.034
24.615,0.036
24.620,0.012
24.625,0.030
24.630,0.048
24.635,0.024
24.640,0.027
24.645,0.063
24.650,0.052
24.655,0.034
24.660,0.064
24.665,0.073
24.670,0.049
24.675,0.068
24.680,0.094
24.685,0.073
24.690,0.080
24.695,0.119
24.700,0.113
24.705,0.101
24.710,0.136
24.715,0.148
24.720,0.130
24.725,0.149
24.730,0.170
24.735,0.148
24.740,0.150
24.745,0.177
24.750,0.153
24.755,0.124
24.760,0.143
24.765,0.134
24.770,0.091
24.775,0.089
24.780,0.088
24.785,0.035
24.790,0.003
24.795,0.002
24.800,-0.046
24.805,-0.099
24.810,-0.105
24.815,-0.136
24.820,-0.197
24.825,-0.208
24.830,-0.210
24.835,-0.255
24.840,-0.271
24.845,-0.251
24.850,-0.269
24.855,-0.284
24.860,-0.254
24.865,-0.248
24.870,-0.271
24.875,-0.245
24.880,-0.216
24.885,-0.232
24.890,-0.225
24.895,-0.188
24.900,-0.193
24.905,-0.204
24.910,-0.171
24.915,-0.159
24.920,-0.176
24.925,-0.152
24.930,-0.123
24.935,-0.141
24.940,-0.134
24.945,-0.094
24.950,-0.103
24.955,-0.113
24.960,-0.073
24.965,-0.061
24.970,-0.077
24.975,-0.051
24.980,-0.027
24.985,-0.046
24.990,-0.040
24.995,-0.008
25.000,-0.018
25.005,-0.024
25.010,0.013
25.015,0.018
25.020,-0.004
25.025,0.016
25.030,0.034
25.035,0.010
25.040,0.014
25.045,0.044
25.050,0.029
25.055,0.013
25.060,0.043
25.065,0.044
25.070,0.014
25.075,0.031
25.080,0.047
25.085,0.018
25.090,0.021
25.095,0.053
25.100,0.038
25.105,0.021
25.110,0.044
25.115,0.041
25.120,0.012
25.125,0.028
25.130,0.050
25.135,0.027
25.140,0.025
25.145,0.048
25.150,0.033
25.155,0.018
25.160,0.045
25.165,0.046
25.170,0.021
25.175,0.036
25.180,0.052
25.185,0.025
25.190,0.026
25.195,0.052
25.200,0.032
25.205,0.017
25.210,0.047
25.215,0.048
25.220,0.025
25.225,0.046
25.230,0.061
25.235,0.028
25.240,0.032
25.245,0.072
25.250,0.065
25.255,0.062
25.260,0.105
25.265,0.110
25.270,0.074
25.275,0.088
25.280,0.110
25.285,0.090
25.290,0.091
25.295,0.108
25.300,0.089
25.305,0.079
25.310,0.109
25.315,0.110
25.320,0.077
25.325,0.081
25.330,0.079
25.335,0.024
25.340,-0.005
25.345,0.006
25.350,-0.019
25.355,-0.037
25.360,-0.017
25.365,-0.035
25.370,-0.071
25.375,-0.052
25.380,-0.038
25.385,-0.067
25.390,-0.059
25.395,-0.029
25.400,-0.054
25.405,-0.075
25.410,-0.044
25.415,-0.039
25.420,-0.058
25.425,-0.035
25.430,-0.022
25.435,-0.053
25.440,-0.046
25.445,-0.010
25.450,-0.021
25.455,-0.029
25.460,0.003
25.465,0.003
25.470,-0.023
25.475,-0.006
25.480,0.023
25.485,0.080
25.490,0.248
25.495,0.485
25.500,0.726
25.505,0.936
25.510,0.926
25.515,0.478
25.520,-0.110
25.525,-0.395
25.530,-0.495
25.535,-0.566
25.540,-0.519
25.545,-0.371
25.550,-0.240
25.555,-0.145
25.560,-0.067
25.565,-0.051
25.570,-0.052
25.575,-0.015
25.580,0.003
25.585,-0.022
25.590,-0.021
25.595,0.008
25.600,0.003
25.605,-0.003
25.610,0.026
25.615,0.023
25.620,-0.003
25.625,0.021
25.630,0.044
25.635,0.022
25.640,0.027
25.645,0.047
25.650,0.022
25.655,0.017
25.660,0.056
25.665,0.054
25.670,0.027
25.675,0.048
25.680,0.069
25.685,0.049
25.690,0.057
25.695,0.084
25.700,0.068
25.705,0.063
25.710,0.101
25.715,0.109
25.720,0.087
25.725,0.106
25.730,0.133
25.735,0.122
25.740,0.141
25.745,0.176
25.750,0.149
25.755,0.132
25.760,0.169
25.765,0.171
25.770,0.147
25.775,0.161
25.780,0.165
25.785,0.126
25.790,0.115
25.795,0.122
25.800,0.086
25.805,0.057
25.810,0.061
25.815,0.022
25.820,-0.035
25.825,-0.043
25.830,-0.063
25.835,-0.132
25.840,-0.170
25.845,-0.175
25.850,-0.218
25.855,-0.248
25.860,-0.231
25.865,-0.250
25.870,-0.289
25.875,-0.273
25.880,-0.258
25.885,-0.278
25.890,-0.266
25.895,-0.238
25.900,-0.256
25.905,-0.263
25.910,-0.223
25.915,-0.216
25.920,-0.232
25.925,-0.204
25.930,-0.185
25.935,-0.203
25.940,-0.183
25.945,-0.141
25.950,-0.154
25.955,-0.166
25.960,-0.130
25.965,-0.120
25.970,-0.130
25.975,-0.098
25.980,-0.078
25.985,-0.102
25.990,-0.084
25.995,-0.040
26.000,-0.053
26.005,-0.064
26.010,-0.027
26.015,-0.016
26.020,-0.033
26.025,-0.012
26.030,0.005
26.035,-0.013
26.040,0.002
26.045,0.034
26.050,0.013
26.055,-0.001
26.060,0.033
26.065,0.037
26.070,0.012
26.075,0.027
26.080,0.043
26.085,0.016
26.090,0.018
26.095,0.045
26.100,0.029
26.105,0.026
26.110,0.057
26.115,0.039
26.120,0.008
26.125,0.032
26.130,0.044
26.135,0.014
26.140,0.023
26.145,0.055
26.150,0.034
26.155,0.017
26.160,0.048
26.165,0.047
26.170,0.020
26.175,0.035
26.180,0.047
26.185,0.022
26.190,0.030
26.195,0.054
26.200,0.033
26.205,0.028
26.210,0.061
26.215,0.050
26.220,0.023
26.225,0.056
26.230,0.084
26.235,0.069
26.240,0.088
26.245,0.116
26.250,0.088
26.255,0.073
26.260,0.096
26.265,0.089
26.270,0.077
26.275,0.112
26.280,0.127
26.285,0.095
26.290,0.097
26.295,0.111
26.300,0.076
26.305,0.053
26.310,0.062
26.315,0.031
26.320,-0.008
26.325,0.006
26.330,0.004
26.335,-0.040
26.340,-0.042
26.345,-0.021
26.350,-0.043
26.355,-0.058
26.360,-0.031
26.365,-0.037
26.370,-0.062
26.375,-0.037
26.380,-0.021
26.385,-0.049
26.390,-0.039
26.395,-0.010
26.400,-0.028
26.405,-0.034
26.410,-0.002
26.415,-0.007
26.420,-0.029
26.425,-0.002
26.430,0.014
26.435,-0.008
26.440,0.003
26.445,0.029
26.450,0.012
26.455,0.002
26.460,0.030
26.465,0.079
26.470,0.209
26.475,0.451
26.480,0.737
26.485,0.967
26.490,1.003
26.495,0.633
26.500,-0.005
26.505,-0.409
26.510,-0.523
26.515,-0.569
26.520,-0.551
26.525,-0.418
26.530,-0.266
26.535,-0.165
26.540,-0.079
26.545,-0.031
26.550,-0.037
26.555,-0.031
26.560,0.005
26.565,0.006
26.570,-0.012
26.575,0.011
26.580,0.022
26.585,-0.003
26.590,0.010
26.595,0.038
26.600,0.020
26.605,0.015
26.610,0.044
26.615,0.034
26.620,0.013
26.625,0.041
26.630,0.052
26.635,0.025
26.640,0.037
26.645,0.066
26.650,0.045
26.655,0.036
26.660,0.066
26.665,0.065
26.670,0.048
26.675,0.073
26.680,0.088
26.685,0.067
26.690,0.085
26.695,0.121
26.700,0.106
26.705,0.102
26.710,0.137
26.715,0.136
26.720,0.122
26.725,0.158
26.730,0.176
26.735,0.150
26.740,0.158
26.745,0.179
26.750,0.154
26.755,0.139
26.760,0.160
26.765,0.142
26.770,0.105
26.775,0.114
26.780,0.106
26.785,0.052
26.790,0.033
26.795,0.031
26.800,-0.026
26.805,-0.072
26.810,-0.077
26.815,-0.121
26.820,-0.182
26.825,-0.190
26.830,-0.202
26.835,-0.250
26.840,-0.259
26.845,-0.253
26.850,-0.284
26.855,-0.292
26.860,-0.261
26.865,-0.270
26.870,-0.290
26.875,-0.259
26.880,-0.241
26.885,-0.262
26.890,-0.246
26.895,-0.213
26.900,-0.225
26.905,-0.224
26.910,-0.188
26.915,-0.189
26.920,-0.203
26.925,-0.166
26.930,-0.147
26.935,-0.169
26.940,-0.148
26.945,-0.113
26.950,-0.127
26.955,-0.123
26.960,-0.083
26.965,-0.085
26.970,-0.097
26.975,-0.061
26.980,-0.046
26.985,-0.066
26.990,-0.047
26.995,-0.015
27.000,-0.029
27.005,-0.030
27.010,0.007
27.015,0.007
27.020,-0.012
27.025,0.015
27.030,0.030
27.035,0.005
27.040,0.018
27.045,0.043
27.050,0.020
27.055,0.012
27.060,0.043
27.065,0.035
27.070,0.016
27.075,0.041
27.080,0.049
27.085,0.020
27.090,0.032
27.095,0.055
27.100,0.030
27.105,0.024
27.110,0.053
27.115,0.046
27.120,0.025
27.125,0.048
27.130,0.056
27.135,0.025
27.140,0.033
27.145,0.057
27.150,0.033
27.155,0.024
27.160,0.053
27.165,0.041
27.170,0.020
27.175,0.047
27.180,0.056
27.185,0.027
27.190,0.039
27.195,0.062
27.200,0.037
27.205,0.029
27.210,0.058
27.215,0.047
27.220,0.026
27.225,0.056
27.230,0.066
27.235,0.043
27.240,0.067
27.245,0.106
27.250,0.089
27.255,0.081
27.260,0.110
27.265,0.100
27.270,0.076
27.275,0.104
27.280,0.112
27.285,0.085
27.290,0.102
27.295,0.122
27.300,0.091
27.305,0.075
27.310,0.092
27.315,0.070
27.320,0.028
27.325,0.027
27.330,0.017
27.335,-0.022
27.340,-0.023
27.345,-0.010
27.350,-0.046
27.355,-0.062
27.360,-0.036
27.365,-0.047
27.370,-0.067
27.375,-0.040
27.380,-0.035
27.385,-0.064
27.390,-0.051
27.395,-0.025
27.400,-0.049
27.405,-0.054
27.410,-0.021
27.415,-0.030
27.420,-0.049
27.425,-0.019
27.430,-0.012
27.435,-0.037
27.440,-0.018
27.445,0.010
27.450,-0.010
27.455,-0.012
27.460,0.017
27.465,0.002
27.470,0.028
27.475,0.197
27.480,0.403
27.485,0.625
27.490,0.900
27.495,1.008
27.500,0.658
27.505,0.052
27.510,-0.346
27.515,-0.525
27.520,-0.595
27.525,-0.544
27.530,-0.434
27.535,-0.308
27.540,-0.166
27.545,-0.067
27.550,-0.061
27.555,-0.047
27.560,-0.001
27.565,-0.007
27.570,-0.023
27.575,0.006
27.580,0.013
27.585,-0.011
27.590,0.007
27.595,0.032
27.600,0.008
27.605,0.005
27.610,0.038
27.615,0.031
27.620,0.012
27.625,0.036
27.630,0.040
27.635,0.015
27.640,0.033
27.645,0.055
27.650,0.030
27.655,0.030
27.660,0.064
27.665,0.055
27.670,0.041
27.675,0.075
27.680,0.083
27.685,0.057
27.690,0.077
27.695,0.106
27.700,0.089
27.705,0.093
27.710,0.132
27.715,0.126
27.720,0.111
27.725,0.148
27.730,0.160
27.735,0.137
27.740,0.160
27.745,0.185
27.750,0.156
27.755,0.147
27.760,0.169
27.765,0.151
27.770,0.123
27.775,0.135
27.780,0.124
27.785,0.080
27.790,0.075
27.795,0.068
27.800,0.011
27.805,-0.022
27.810,-0.026
27.815,-0.077
27.820,-0.131
27.825,-0.138
27.830,-0.168
27.835,-0.224
27.840,-0.231
27.845,-0.228
27.850,-0.268
27.855,-0.282
27.860,-0.261
27.865,-0.277
27.870,-0.292
27.875,-0.261
27.880,-0.252
27.885,-0.273
27.890,-0.249
27.895,-0.218
27.900,-0.234
27.905,-0.228
27.910,-0.191
27.915,-0.197
27.920,-0.207
27.925,-0.171
27.930,-0.159
27.935,-0.178
27.940,-0.155
27.945,-0.125
27.950,-0.140
27.955,-0.136
27.960,-0.098
27.965,-0.102
27.970,-0.111
27.975,-0.073
27.980,-0.058
27.985,-0.078
27.990,-0.054
27.995,-0.024
28.000,-0.043
28.005,-0.041
28.010,-0.004
28.015,-0.009
28.020,-0.022
28.025,0.011
28.030,0.018
28.035,-0.004
28.040,0.019
28.045,0.042
28.050,0.015
28.055,0.015
28.060,0.045
28.065,0.030
28.070,0.013
28.075,0.043
28.080,0.048
28.085,0.022
28.090,0.038
28.095,0.056
28.100,0.026
28.105,0.023
28.110,0.055
28.115,0.042
28.120,0.022
28.125,0.047
28.130,0.049
28.135,0.019
28.140,0.035
28.145,0.057
28.150,0.029
28.155,0.030
28.160,0.059
28.165,0.042
28.170,0.025
28.175,0.051
28.180,0.053
28.185,0.027
28.190,0.046
28.195,0.068
28.200,0.041
28.205,0.035
28.210,0.062
28.215,0.047
28.220,0.027
28.225,0.054
28.230,0.057
28.235,0.027
28.240,0.042
28.245,0.064
28.250,0.040
28.255,0.046
28.260,0.085
28.265,0.083
28.270,0.076
28.275,0.104
28.280,0.101
28.285,0.073
28.290,0.091
28.295,0.115
28.300,0.088
28.305,0.088
28.310,0.120
28.315,0.102
28.320,0.078
28.325,0.098
28.330,0.088
28.335,0.045
28.340,0.042
28.345,0.034
28.350,-0.009
28.355,-0.017
28.360,-0.001
28.365,-0.029
28.370,-0.058
28.375,-0.040
28.380,-0.042
28.385,-0.068
28.390,-0.051
28.395,-0.035
28.400,-0.063
28.405,-0.062
28.410,-0.034
28.415,-0.050
28.420,-0.066
28.425,-0.035
28.430,-0.029
28.435,-0.054
28.440,-0.036
28.445,-0.012
28.450,-0.036
28.455,-0.035
28.460,-0.001
28.465,-0.010
28.470,-0.023
28.475,0.007
28.480,0.008
28.485,-0.020
28.490,0.033
28.495,0.175
28.500,0.334
28.505,0.569
28.510,0.862
28.515,0.982
28.520,0.725
28.525,0.184
28.530,-0.285
28.535,-0.512
28.540,-0.562
28.545,-0.536
28.550,-0.472
28.555,-0.324
28.560,-0.156
28.565,-0.087
28.570,-0.071
28.575,-0.024
28.580,-0.008
28.585,-0.030
28.590,-0.010
28.595,0.013
28.600,-0.007
28.605,-0.003
28.610,0.029
28.615,0.018
28.620,0.002
28.625,0.035
28.630,0.038
28.635,0.009
28.640,0.029
28.645,0.047
28.650,0.021
28.655,0.026
28.660,0.056
28.665,0.042
28.670,0.029
28.675,0.061
28.680,0.062
28.685,0.036
28.690,0.057
28.695,0.081
28.700,0.059
28.705,0.061
28.710,0.091
28.715,0.081
28.720,0.074
28.725,0.112
28.730,0.120
28.735,0.098
28.740,0.126
28.745,0.154
28.750,0.133
28.755,0.137
28.760,0.172
28.765,0.163
28.770,0.148
28.775,0.173
28.780,0.170
28.785,0.138
28.790,0.148
28.795,0.152
28.800,0.107
28.805,0.091
28.810,0.100
28.815,0.060
28.820,0.016
28.825,0.007
28.830,-0.024
28.835,-0.084
28.840,-0.105
28.845,-0.123
28.850,-0.184
28.855,-0.211
28.860,-0.205
28.865,-0.242
28.870,-0.277
28.875,-0.260
28.880,-0.266
28.885,-0.295
28.890,-0.272
28.895,-0.251
28.900,-0.277
28.905,-0.270
28.910,-0.231
28.915,-0.238
28.920,-0.248
28.925,-0.212
28.930,-0.203
28.935,-0.219
28.940,-0.189
28.945,-0.162
28.950,-0.185
28.955,-0.176
28.960,-0.138
28.965,-0.145
28.970,-0.151
28.975,-0.111
28.980,-0.105
28.985,-0.126
28.990,-0.094
28.995,-0.063
29.000,-0.078
29.005,-0.065
29.010,-0.030
29.015,-0.044
29.020,-0.052
29.025,-0.013
29.030,-0.010
29.035,-0.034
29.040,-0.007
29.045,0.021
29.050,0.002
29.055,0.008
29.060,0.035
29.065,0.016
29.070,0.004
29.075,0.038
29.080,0.040
29.085,0.017
29.090,0.037
29.095,0.049
29.100,0.022
29.105,0.027
29.110,0.055
29.115,0.037
29.120,0.020
29.125,0.046
29.130,0.044
29.135,0.020
29.140,0.038
29.145,0.052
29.150,0.024
29.155,0.024
29.160,0.051
29.165,0.037
29.170,0.024
29.175,0.051
29.180,0.043
29.185,0.016
29.190,0.045
29.195,0.063
29.200,0.028
29.205,0.030
29.210,0.056
29.215,0.033
29.220,0.019
29.225,0.053
29.230,0.051
29.235,0.022
29.240,0.043
29.245,0.062
29.250,0.045
29.255,0.062
29.260,0.099
29.265,0.087
29.270,0.071
29.275,0.101
29.280,0.107
29.285,0.081
29.290,0.095
29.295,0.114
29.300,0.092
29.305,0.103
29.310,0.130
29.315,0.103
29.320,0.086
29.325,0.105
29.330,0.088
29.335,0.049
29.340,0.041
29.345,0.025
29.350,-0.015
29.355,-0.017
29.360,0.002
29.365,-0.029
29.370,-0.060
29.375,-0.038
29.380,-0.041
29.385,-0.067
29.390,-0.047
29.395,-0.030
29.400,-0.056
29.405,-0.053
29.410,-0.025
29.415,-0.043
29.420,-0.056
29.425,-0.024
29.430,-0.020
29.435,-0.037
29.440,-0.014
29.445,-0.005
29.450,-0.032
29.455,-0.019
29.460,0.019
29.465,0.003
29.470,-0.011
29.475,0.018
29.480,0.012
29.485,-0.007
29.490,0.077
29.495,0.240
29.500,0.417
29.505,0.685
29.510,0.967
29.515,0.979
29.520,0.574
29.525,0.013
29.530,-0.352
29.535,-0.520
29.540,-0.551
29.545,-0.508
29.550,-0.433
29.555,-0.284
29.560,-0.134
29.565,-0.079
29.570,-0.072
29.575,-0.033
29.580,-0.022
29.585,-0.041
29.590,-0.010
29.595,0.011
29.600,-0.018
29.605,-0.009
29.610,0.021
29.615,0.003
29.620,-0.007
29.625,0.025
29.630,0.022
29.635,-0.002
29.640,0.026
29.645,0.043
29.650,0.011
29.655,0.018
29.660,0.051
29.665,0.031
29.670,0.015
29.675,0.048
29.680,0.054
29.685,0.035
29.690,0.057
29.695,0.072
29.700,0.045
29.705,0.054
29.710,0.094
29.715,0.092
29.720,0.091
29.725,0.116
29.730,0.106
29.735,0.089
29.740,0.129
29.745,0.159
29.750,0.141
29.755,0.154
29.760,0.182
29.765,0.158
29.770,0.142
29.775,0.171
29.780,0.166
29.785,0.139
29.790,0.154
29.795,0.150
29.800,0.096
29.805,0.080
29.810,0.089
29.815,0.053
29.820,0.014
29.825,0.001
29.830,-0.041
29.835,-0.096
29.840,-0.112
29.845,-0.138
29.850,-0.199
29.855,-0.221
29.860,-0.218
29.865,-0.260
29.870,-0.283
29.875,-0.260
29.880,-0.269
29.885,-0.292
29.890,-0.265
29.895,-0.254
29.900,-0.282
29.905,-0.266
29.910,-0.233
29.915,-0.244
29.920,-0.240
29.925,-0.202
29.930,-0.202
29.935,-0.219
29.940,-0.190
29.945,-0.167
29.950,-0.183
29.955,-0.164
29.960,-0.130
29.965,-0.145
29.970,-0.146
29.975,-0.104
29.980,-0.099
29.985,-0.119
29.990,-0.088
29.995,-0.062
30.000,-0.080
30.005,-0.067
30.010,-0.034
30.015,-0.044
30.020,-0.045
30.025,-0.010
30.030,-0.012
30.035,-0.029
30.040,0.005
30.045,0.022
30.050,-0.001
30.055,0.011
30.060,0.036
30.065,0.014
30.070,0.006
30.075,0.041
30.080,0.039
30.085,0.014
30.090,0.035
30.095,0.045
30.100,0.017
30.105,0.029
30.110,0.057
30.115,0.033
30.120,0.020
30.125,0.051
30.130,0.046
30.135,0.024
30.140,0.046
30.145,0.054
30.150,0.024
30.155,0.032
30.160,0.057
30.165,0.036
30.170,0.028
30.175,0.059
30.180,0.051
30.185,0.024
30.190,0.049
30.195,0.062
30.200,0.031
30.205,0.039
30.210,0.064
30.215,0.043
30.220,0.039
30.225,0.080
30.230,0.088
30.235,0.077
30.240,0.103
30.245,0.108
30.250,0.078
30.255,0.095
30.260,0.121
30.265,0.096
30.270,0.087
30.275,0.120
30.280,0.115
30.285,0.090
30.290,0.112
30.295,0.120
30.300,0.080
30.305,0.071
30.310,0.072
30.315,0.025
30.320,0.004
30.325,0.025
30.330,0.001
30.335,-0.038
30.340,-0.027
30.345,-0.025
30.350,-0.057
30.355,-0.052
30.360,-0.026
30.365,-0.047
30.370,-0.056
30.375,-0.025
30.380,-0.033
30.385,-0.054
30.390,-0.027
30.395,-0.015
30.400,-0.041
30.405,-0.028
30.410,-0.001
30.415,-0.022
30.420,-0.027
30.425,0.006
30.430,0.001
30.435,-0.018
30.440,0.009
30.445,0.019
30.450,-0.004
30.455,0.011
30.460,0.030
30.465,0.031
30.470,0.137
30.475,0.363
30.480,0.611
30.485,0.869
30.490,1.049
30.495,0.840
30.500,0.230
30.505,-0.281
30.510,-0.483
30.515,-0.569
30.520,-0.571
30.525,-0.459
30.530,-0.329
30.535,-0.213
30.540,-0.096
30.545,-0.049
30.550,-0.058
30.555,-0.030
30.560,0.002
30.565,-0.016
30.570,-0.020
30.575,0.015
30.580,0.012
30.585,-0.005
30.590,0.022
30.595,0.030
30.600,0.003
30.605,0.013
30.610,0.036
30.615,0.016
30.620,0.011
30.625,0.044
30.630,0.036
30.635,0.013
30.640,0.039
30.645,0.049
30.650,0.023
30.655,0.035
30.660,0.064
30.665,0.047
30.670,0.043
30.675,0.074
30.680,0.068
30.685,0.054
30.690,0.089
30.695,0.104
30.700,0.083
30.705,0.103
30.710,0.135
30.715,0.120
30.720,0.120
30.725,0.159
30.730,0.158
30.735,0.141
30.740,0.169
30.745,0.179
30.750,0.149
30.755,0.154
30.760,0.168
30.765,0.134
30.770,0.116
30.775,0.133
30.780,0.105
30.785,0.060
30.790,0.059
30.795,0.039
30.800,-0.018
30.805,-0.043
30.810,-0.059
30.815,-0.119
30.820,-0.160
30.825,-0.162
30.830,-0.203
30.835,-0.250
30.840,-0.245
30.845,-0.253
30.850,-0.291
30.855,-0.287
30.860,-0.269
30.865,-0.292
30.870,-0.291
30.875,-0.253
30.880,-0.256
30.885,-0.270
30.890,-0.239
30.895,-0.225
30.900,-0.244
30.905,-0.221
30.910,-0.189
30.915,-0.205
30.920,-0.201
30.925,-0.162
30.930,-0.165
30.935,-0.176
30.940,-0.138
30.945,-0.122
30.950,-0.142
30.955,-0.121
30.960,-0.089
30.965,-0.104
30.970,-0.102
30.975,-0.063
30.980,-0.061
30.985,-0.073
30.990,-0.039
30.995,-0.022
31.000,-0.044
31.005,-0.028
31.010,0.002
31.015,-0.014
31.020,-0.014
31.025,0.021
31.030,0.017
31.035,0.000
31.040,0.027
31.045,0.036
31.050,0.011
31.055,0.026
31.060,0.049
31.065,0.024
31.070,0.018
31.075,0.048
31.080,0.038
31.085,0.019
31.090,0.045
31.095,0.048
31.100,0.016
31.105,0.030
31.110,0.056
31.115,0.033
31.120,0.026
31.125,0.055
31.130,0.045
31.135,0.026
31.140,0.052
31.145,0.053
31.150,0.022
31.155,0.037
31.160,0.059
31.165,0.033
31.170,0.027
31.175,0.057
31.180,0.046
31.185,0.025
31.190,0.051
31.195,0.058
31.200,0.029
31.205,0.040
31.210,0.063
31.215,0.038
31.220,0.032
31.225,0.068
31.230,0.065
31.235,0.055
31.240,0.093
31.245,0.109
31.250,0.083
31.255,0.095
31.260,0.119
31.265,0.094
31.270,0.088
31.275,0.117
31.280,0.102
31.285,0.085
31.290,0.115
31.295,0.116
31.300,0.082
31.305,0.087
31.310,0.092
31.315,0.049
31.320,0.024
31.325,0.032
31.330,0.002
31.335,-0.030
31.340,-0.011
31.345,-0.016
31.350,-0.056
31.355,-0.048
31.360,-0.029
31.365,-0.058
31.370,-0.064
31.375,-0.033
31.380,-0.044
31.385,-0.065
31.390,-0.037
31.395,-0.027
31.400,-0.053
31.405,-0.037
31.410,-0.013
31.415,-0.036
31.420,-0.037
31.425,-0.007
31.430,-0.017
31.435,-0.031
31.440,-0.003
31.445,0.006
31.450,-0.018
31.455,-0.001
31.460,0.023
31.465,-0.005
31.470,0.021
31.475,0.172
31.480,0.352
31.485,0.568
31.490,0.859
31.495,1.016
31.500,0.764
31.505,0.201
31.510,-0.270
31.515,-0.504
31.520,-0.573
31.525,-0.542
31.530,-0.467
31.535,-0.337
31.540,-0.173
31.545,-0.083
31.550,-0.074
31.555,-0.039
31.560,-0.002
31.565,-0.024
31.570,-0.023
31.575,0.014
31.580,0.005
31.585,-0.013
31.590,0.016
31.595,0.024
31.600,0.000
31.605,0.017
31.610,0.038
31.615,0.010
31.620,0.005
31.625,0.040
31.630,0.035
31.635,0.018
31.640,0.044
31.645,0.051
31.650,0.025
31.655,0.041
31.660,0.065
31.665,0.044
31.670,0.044
31.675,0.076
31.680,0.068
31.685,0.055
31.690,0.088
31.695,0.100
31.700,0.078
31.705,0.101
31.710,0.130
31.715,0.112
31.720,0.115
31.725,0.152
31.730,0.150
31.735,0.138
31.740,0.169
31.745,0.179
31.750,0.153
31.755,0.163
31.760,0.178
31.765,0.145
31.770,0.131
31.775,0.147
31.780,0.120
31.785,0.086
31.790,0.092
31.795,0.071
31.800,0.016
31.805,-0.001
31.810,-0.018
31.815,-0.082
31.820,-0.122
31.825,-0.129
31.830,-0.177
31.835,-0.226
31.840,-0.225
31.845,-0.242
31.850,-0.284
31.855,-0.279
31.860,-0.264
31.865,-0.292
31.870,-0.293
31.875,-0.262
31.880,-0.271
31.885,-0.281
31.890,-0.245
31.895,-0.234
31.900,-0.252
31.905,-0.226
31.910,-0.196
31.915,-0.214
31.920,-0.209
31.925,-0.171
31.930,-0.179
31.935,-0.186
31.940,-0.147
31.945,-0.134
31.950,-0.153
31.955,-0.128
31.960,-0.098
31.965,-0.113
31.970,-0.105
31.975,-0.068
31.980,-0.072
31.985,-0.081
31.990,-0.046
31.995,-0.033
32.000,-0.050
32.005,-0.028
32.010,-0.005
32.015,-0.023
32.020,-0.014
32.025,0.021
32.030,0.011
32.035,-0.001
32.040,0.031
32.045,0.035
32.050,0.010
32.055,0.029
32.060,0.048
32.065,0.021
32.070,0.022
32.075,0.053
32.080,0.037
32.085,0.020
32.090,0.050
32.095,0.050
32.100,0.022
32.105,0.038
32.110,0.056
32.115,0.029
32.120,0.029
32.125,0.057
32.130,0.038
32.135,0.017
32.140,0.051
32.145,0.058
32.150,0.027
32.155,0.041
32.160,0.060
32.165,0.032
32.170,0.033
32.175,0.060
32.180,0.043
32.185,0.027
32.190,0.054
32.195,0.054
32.200,0.027
32.205,0.044
32.210,0.060
32.215,0.033
32.220,0.036
32.225,0.063
32.230,0.043
32.235,0.024
32.240,0.053
32.245,0.057
32.250,0.035
32.255,0.063
32.260,0.095
32.265,0.082
32.270,0.087
32.275,0.113
32.280,0.095
32.285,0.079
32.290,0.110
32.295,0.113
32.300,0.085
32.305,0.105
32.310,0.124
32.315,0.094
32.320,0.092
32.325,0.109
32.330,0.074
32.335,0.040
32.340,0.047
32.345,0.024
32.350,-0.014
32.355,-0.007
32.360,-0.006
32.365,-0.043
32.370,-0.052
32.375,-0.034
32.380,-0.052
32.385,-0.067
32.390,-0.042
32.395,-0.043
32.400,-0.068
32.405,-0.047
32.410,-0.028
32.415,-0.055
32.420,-0.054
32.425,-0.023
32.430,-0.037
32.435,-0.051
32.440,-0.018
32.445,-0.013
32.450,-0.038
32.455,-0.017
32.460,0.000
32.465,-0.023
32.470,-0.014
32.475,0.016
32.480,-0.001
32.485,-0.016
32.490,0.017
32.495,0.078
32.500,0.204
32.505,0.423
32.510,0.691
32.515,0.913
32.520,0.950
32.525,0.594
32.530,-0.014
32.535,-0.394
32.540,-0.507
32.545,-0.557
32.550,-0.553
32.555,-0.422
32.560,-0.248
32.565,-0.148
32.570,-0.082
32.575,-0.037
32.580,-0.039
32.585,-0.041
32.590,-0.010
32.595,-0.003
32.600,-0.019
32.605,0.002
32.610,0.020
32.615,-0.006
32.620,-0.001
32.625,0.033
32.630,0.019
32.635,0.001
32.640,0.028
32.645,0.031
32.650,0.009
32.655,0.033
32.660,0.050
32.665,0.021
32.670,0.027
32.675,0.059
32.680,0.041
32.685,0.025
32.690,0.057
32.695,0.062
32.700,0.047
32.705,0.071
32.710,0.086
32.715,0.061
32.720,0.070
32.725,0.107
32.730,0.099
32.735,0.090
32.740,0.125
32.745,0.136
32.750,0.121
32.755,0.153
32.760,0.178
32.765,0.149
32.770,0.147
32.775,0.176
32.780,0.161
32.785,0.141
32.790,0.160
32.795,0.146
32.800,0.106
32.805,0.114
32.810,0.117
32.815,0.068
32.820,0.042
32.825,0.038
32.830,-0.011
32.835,-0.061
32.840,-0.068
32.845,-0.105
32.850,-0.167
32.855,-0.178
32.860,-0.189
32.865,-0.242
32.870,-0.263
32.875,-0.252
32.880,-0.275
32.885,-0.285
32.890,-0.255
32.895,-0.265
32.900,-0.293
32.905,-0.263
32.910,-0.235
32.915,-0.254
32.920,-0.244
32.925,-0.208
32.930,-0.219
32.935,-0.224
32.940,-0.181
32.945,-0.173
32.950,-0.194
32.955,-0.163
32.960,-0.140
32.965,-0.163
32.970,-0.150
32.975,-0.109
32.980,-0.117
32.985,-0.126
32.990,-0.094
32.995,-0.086
33.000,-0.095
33.005,-0.060
33.010,-0.035
33.015,-0.056
33.020,-0.050
33.025,-0.019
33.030,-0.026
33.035,-0.027
33.040,0.010
33.045,0.011
33.050,-0.014
33.055,0.009
33.060,0.030
33.065,0.008
33.070,0.017
33.075,0.043
33.080,0.023
33.085,0.013
33.090,0.045
33.095,0.042
33.100,0.015
33.105,0.033
33.110,0.049
33.115,0.027
33.120,0.030
33.125,0.046
33.130,0.023
33.135,0.017
33.140,0.051
33.145,0.045
33.150,0.016
33.155,0.037
33.160,0.053
33.165,0.027
33.170,0.032
33.175,0.054
33.180,0.032
33.185,0.025
33.190,0.058
33.195,0.050
33.200,0.019
33.205,0.042
33.210,0.059
33.215,0.029
33.220,0.036
33.225,0.064
33.230,0.038
33.235,0.021
33.240,0.054
33.245,0.057
33.250,0.035
33.255,0.059
33.260,0.081
33.265,0.062
33.270,0.074
33.275,0.110
33.280,0.099
33.285,0.085
33.290,0.101
33.295,0.093
33.300,0.078
33.305,0.106
33.310,0.123
33.315,0.094
33.320,0.093
33.325,0.119
33.330,0.088
33.335,0.059
33.340,0.076
33.345,0.053
33.350,0.003
33.355,0.008
33.360,0.011
33.365,-0.028
33.370,-0.035
33.375,-0.022
33.380,-0.046
33.385,-0.058
33.390,-0.034
33.395,-0.042
33.400,-0.064
33.405,-0.039
33.410,-0.020
33.415,-0.051
33.420,-0.051
33.425,-0.022
33.430,-0.033
33.435,-0.038
33.440,-0.010
33.445,-0.015
33.450,-0.034
33.455,-0.011
33.460,0.006
33.465,-0.018
33.470,-0.010
33.475,0.022
33.480,0.004
33.485,-0.004
33.490,0.030
33.495,0.017
33.500,-0.007
33.505,0.084
33.510,0.250
33.515,0.427
33.520,0.702
33.525,0.986
33.530,0.984
33.535,0.564
33.540,-0.013
33.545,-0.385
33.550,-0.546
33.555,-0.566
33.560,-0.513
33.565,-0.433
33.570,-0.290
33.575,-0.149
33.580,-0.099
33.585,-0.091
33.590,-0.047
33.595,-0.031
33.600,-0.043
33.605,-0.012
33.610,0.003
33.615,-0.027
33.620,-0.019
33.625,0.016
33.630,0.004
33.635,-0.007
33.640,0.022
33.645,0.019
33.650,-0.005
33.655,0.018
33.660,0.034
33.665,0.009
33.670,0.019
33.675,0.049
33.680,0.029
33.685,0.015
33.690,0.048
33.695,0.049
33.700,0.029
33.705,0.059
33.710,0.077
33.715,0.054
33.720,0.067
33.725,0.101
33.730,0.085
33.735,0.075
33.740,0.111
33.745,0.120
33.750,0.110
33.755,0.142
33.760,0.158
33.765,0.130
33.770,0.141
33.775,0.178
33.780,0.165
33.785,0.154
33.790,0.182
33.795,0.169
33.800,0.134
33.805,0.149
33.810,0.148
33.815,0.100
33.820,0.088
33.825,0.096
33.830,0.049
33.835,0.005
33.840,-0.003
33.845,-0.048
33.850,-0.104
33.855,-0.113
33.860,-0.137
33.865,-0.200
33.870,-0.223
33.875,-0.220
33.880,-0.260
33.885,-0.285
33.890,-0.263
33.895,-0.274
33.900,-0.299
33.905,-0.270
33.910,-0.253
33.915,-0.275
33.920,-0.258
33.925,-0.225
33.930,-0.243
33.935,-0.245
33.940,-0.204
33.945,-0.198
33.950,-0.214
33.955,-0.189
33.960,-0.170
33.965,-0.185
33.970,-0.165
33.975,-0.131
33.980,-0.142
33.985,-0.141
33.990,-0.103
33.995,-0.101
34.000,-0.115
34.005,-0.082
34.010,-0.059
34.015,-0.076
34.020,-0.058
34.025,-0.027
34.030,-0.043
34.035,-0.042
34.040,-0.002
34.045,-0.005
34.050,-0.023
34.055,0.007
34.060,0.023
34.065,0.000
34.070,0.014
34.075,0.046
34.080,0.027
34.085,0.018
34.090,0.048
34.095,0.042
34.100,0.019
34.105,0.041
34.110,0.053
34.115,0.029
34.120,0.036
34.125,0.058
34.130,0.035
34.135,0.025
34.140,0.052
34.145,0.045
34.150,0.025
34.155,0.048
34.160,0.054
34.165,0.024
34.170,0.036
34.175,0.062
34.180,0.037
34.185,0.025
34.190,0.056
34.195,0.052
34.200,0.030
34.205,0.054
34.210,0.062
34.215,0.028
34.220,0.036
34.225,0.062
34.230,0.040
34.235,0.031
34.240,0.063
34.245,0.060
34.250,0.040
34.255,0.072
34.260,0.094
34.265,0.075
34.270,0.090
34.275,0.115
34.280,0.090
34.285,0.084
34.290,0.116
34.295,0.110
34.300,0.091
34.305,0.116
34.310,0.123
34.315,0.091
34.320,0.099
34.325,0.114
34.330,0.075
34.335,0.050
34.340,0.055
34.345,0.023
34.350,-0.009
34.355,0.004
34.360,-0.003
34.365,-0.043
34.370,-0.043
34.375,-0.023
34.380,-0.048
34.385,-0.060
34.390,-0.032
34.395,-0.042
34.400,-0.063
34.405,-0.037
34.410,-0.029
34.415,-0.056
34.420,-0.044
34.425,-0.016
34.430,-0.036
34.435,-0.042
34.440,-0.010
34.445,-0.019
34.450,-0.041
34.455,-0.013
34.460,0.000
34.465,-0.024
34.470,-0.007
34.475,0.022
34.480,0.001
34.485,-0.003
34.490,0.026
34.495,0.014
34.500,0.031
34.505,0.187
34.510,0.398
34.515,0.627
34.520,0.902
34.525,1.028
34.530,0.706
34.535,0.101
34.540,-0.323
34.545,-0.513
34.550,-0.586
34.555,-0.540
34.560,-0.427
34.565,-0.303
34.570,-0.166
34.575,-0.068
34.580,-0.064
34.585,-0.055
34.590,-0.005
34.595,-0.004
34.600,-0.023
34.605,0.006
34.610,0.019
34.615,-0.008
34.620,0.006
34.625,0.032
34.630,0.009
34.635,0.003
34.640,0.037
34.645,0.030
34.650,0.007
34.655,0.030
34.660,0.036
34.665,0.010
34.670,0.027
34.675,0.052
34.680,0.029
34.685,0.024
34.690,0.057
34.695,0.049
34.700,0.031
34.705,0.064
34.710,0.078
34.715,0.054
34.720,0.071
34.725,0.100
34.730,0.084
34.735,0.084
34.740,0.120
34.745,0.117
34.750,0.104
34.755,0.141
34.760,0.157
34.765,0.133
34.770,0.151
34.775,0.178
34.780,0.155
34.785,0.148
34.790,0.171
34.795,0.150
34.800,0.120
34.805,0.134
34.810,0.123
34.815,0.079
34.820,0.073
34.825,0.069
34.830,0.015
34.835,-0.022
34.840,-0.025
34.845,-0.071
34.850,-0.129
34.855,-0.138
34.860,-0.165
34.865,-0.224
34.870,-0.236
34.875,-0.234
34.880,-0.276
34.885,-0.290
34.890,-0.263
34.895,-0.279
34.900,-0.303
34.905,-0.272
34.910,-0.257
34.915,-0.277
34.920,-0.258
34.925,-0.229
34.930,-0.242
34.935,-0.235
34.940,-0.197
34.945,-0.200
34.950,-0.212
34.955,-0.177
34.960,-0.164
34.965,-0.185
34.970,-0.158
34.975,-0.124
34.980,-0.144
34.985,-0.139
34.990,-0.096
34.995,-0.100
35.000,-0.116
35.005,-0.079
35.010,-0.059
35.015,-0.079
35.020,-0.059
35.025,-0.030
35.030,-0.046
35.035,-0.041
35.040,-0.005
35.045,-0.011
35.050,-0.025
35.055,0.007
35.060,0.019
35.065,-0.003
35.070,0.014
35.075,0.039
35.080,0.018
35.085,0.015
35.090,0.043
35.095,0.032
35.100,0.015
35.105,0.041
35.110,0.047
35.115,0.022
35.120,0.038
35.125,0.058
35.130,0.031
35.135,0.026
35.140,0.054
35.145,0.039
35.150,0.017
35.155,0.043
35.160,0.048
35.165,0.019
35.170,0.037
35.175,0.062
35.180,0.036
35.185,0.032
35.190,0.059
35.195,0.044
35.200,0.025
35.205,0.053
35.210,0.057
35.215,0.027
35.220,0.042
35.225,0.062
35.230,0.036
35.235,0.033
35.240,0.060
35.245,0.046
35.250,0.026
35.255,0.053
35.260,0.056
35.265,0.027
35.270,0.040
35.275,0.060
35.280,0.035
35.285,0.036
35.290,0.070
35.295,0.065
35.300,0.057
35.305,0.095
35.310,0.106
35.315,0.079
35.320,0.092
35.325,0.113
35.330,0.087
35.335,0.085
35.340,0.114
35.345,0.104
35.350,0.086
35.355,0.109
35.360,0.109
35.365,0.075
35.370,0.075
35.375,0.079
35.380,0.031
35.385,0.003
35.390,0.020
35.395,-0.005
35.400,-0.040
35.405,-0.023
35.410,-0.029
35.415,-0.064
35.420,-0.049
35.425,-0.031
35.430,-0.061
35.435,-0.063
35.440,-0.034
35.445,-0.050
35.450,-0.067
35.455,-0.036
35.460,-0.030
35.465,-0.058
35.470,-0.041
35.475,-0.017
35.480,-0.039
35.485,-0.039
35.490,-0.007
35.495,-0.016
35.500,-0.029
35.505,0.002
35.510,0.008
35.515,-0.018
35.520,0.000
35.525,0.018
35.530,0.005
35.535,0.092
35.540,0.293
35.545,0.495
35.550,0.741
35.555,0.980
35.560,0.898
35.565,0.379
35.570,-0.166
35.575,-0.433
35.580,-0.558
35.585,-0.579
35.590,-0.490
35.595,-0.374
35.600,-0.243
35.605,-0.109
35.610,-0.052
35.615,-0.061
35.620,-0.031
35.625,-0.003
35.630,-0.025
35.635,-0.020
35.640,0.013
35.645,0.000
35.650,-0.014
35.655,0.017
35.660,0.022
35.665,-0.004
35.670,0.013
35.675,0.035
35.680,0.013
35.685,0.014
35.690,0.044
35.695,0.031
35.700,0.015
35.705,0.044
35.710,0.049
35.715,0.024
35.720,0.045
35.725,0.068
35.730,0.045
35.735,0.050
35.740,0.084
35.745,0.072
35.750,0.058
35.755,0.092
35.760,0.102
35.765,0.083
35.770,0.105
35.775,0.131
35.780,0.114
35.785,0.120
35.790,0.156
35.795,0.151
35.800,0.140
35.805,0.170
35.810,0.172
35.815,0.144
35.820,0.158
35.825,0.169
35.830,0.134
35.835,0.122
35.840,0.136
35.845,0.107
35.850,0.072
35.855,0.075
35.860,0.050
35.865,-0.007
35.870,-0.021
35.875,-0.035
35.880,-0.097
35.885,-0.133
35.890,-0.138
35.895,-0.186
35.900,-0.230
35.905,-0.221
35.910,-0.238
35.915,-0.279
35.920,-0.269
35.925,-0.256
35.930,-0.285
35.935,-0.280
35.940,-0.248
35.945,-0.258
35.950,-0.266
35.955,-0.229
35.960,-0.219
35.965,-0.238
35.970,-0.212
35.975,-0.185
35.980,-0.206
35.985,-0.198
35.990,-0.161
35.995,-0.168
36.000,-0.172
36.005,-0.132
36.010,-0.125
36.015,-0.143
36.020,-0.115
36.025,-0.089
36.030,-0.104
36.035,-0.091
36.040,-0.054
36.045,-0.064
36.050,-0.072
36.055,-0.034
36.060,-0.025
36.065,-0.047
36.070,-0.024
36.075,0.001
36.080,-0.019
36.085,-0.011
36.090,0.023
36.095,0.012
36.100,-0.002
36.105,0.031
36.110,0.037
36.115,0.010
36.120,0.030
36.125,0.050
36.130,0.022
36.135,0.022
36.140,0.050
36.145,0.034
36.150,0.018
36.155,0.044
36.160,0.043
36.165,0.014
36.170,0.029
36.175,0.047
36.180,0.024
36.185,0.027
36.190,0.053
36.195,0.034
36.200,0.018
36.205,0.047
36.210,0.049
36.215,0.023
36.220,0.039
36.225,0.055
36.230,0.029
36.235,0.031
36.240,0.059
36.245,0.041
36.250,0.022
36.255,0.048
36.260,0.048
36.265,0.023
36.270,0.043
36.275,0.059
36.280,0.031
36.285,0.033
36.290,0.059
36.295,0.038
36.300,0.021
36.305,0.051
36.310,0.050
36.315,0.024
36.320,0.043
36.325,0.062
36.330,0.041
36.335,0.052
36.340,0.091
36.345,0.087
36.350,0.079
36.355,0.103
36.360,0.096
36.365,0.070
36.370,0.093
36.375,0.114
36.380,0.087
36.385,0.092
36.390,0.124
36.395,0.103
36.400,0.084
36.405,0.099
36.410,0.078
36.415,0.036
36.420,0.034
36.425,0.025
36.430,-0.016
36.435,-0.023
36.440,-0.009
36.445,-0.038
36.450,-0.063
36.455,-0.036
36.460,-0.040
36.465,-0.075
36.470,-0.058
36.475,-0.036
36.480,-0.060
36.485,-0.056
36.490,-0.032
36.495,-0.053
36.500,-0.065
36.505,-0.034
36.510,-0.035
36.515,-0.057
36.520,-0.029
36.525,-0.009
36.530,-0.035
36.535,-0.031
36.540,0.000
36.545,-0.012
36.550,-0.021
36.555,0.012
36.560,0.011
36.565,-0.018
36.570,0.006
36.575,0.093
36.580,0.222
36.585,0.424
36.590,0.705
36.595,0.926
36.600,0.921
36.605,0.549
36.610,-0.027
36.615,-0.394
36.620,-0.512
36.625,-0.549
36.630,-0.543
36.635,-0.427
36.640,-0.248
36.645,-0.147
36.650,-0.098
36.655,-0.051
36.660,-0.039
36.665,-0.048
36.670,-0.015
36.675,0.010
36.680,-0.018
36.685,-0.015
36.690,0.016
36.695,0.003
36.700,-0.004
36.705,0.026
36.710,0.019
36.715,-0.009
36.720,0.018
36.725,0.040
36.730,0.012
36.735,0.016
36.740,0.044
36.745,0.025
36.750,0.013
36.755,0.046
36.760,0.049
36.765,0.026
36.770,0.049
36.775,0.070
36.780,0.044
36.785,0.051
36.790,0.085
36.795,0.070
36.800,0.068
36.805,0.109
36.810,0.109
36.815,0.089
36.820,0.123
36.825,0.144
36.830,0.121
36.835,0.136
36.840,0.171
36.845,0.155
36.850,0.142
36.855,0.173
36.860,0.171
36.865,0.142
36.870,0.153
36.875,0.157
36.880,0.116
36.885,0.108
36.890,0.114
36.895,0.071
36.900,0.041
36.905,0.044
36.910,0.001
36.915,-0.065
36.920,-0.077
36.925,-0.091
36.930,-0.146
36.935,-0.173
36.940,-0.180
36.945,-0.225
36.950,-0.253
36.955,-0.237
36.960,-0.254
36.965,-0.287
36.970,-0.265
36.975,-0.252
36.980,-0.278
36.985,-0.267
36.990,-0.238
36.995,-0.251
37.000,-0.246
37.005,-0.205
37.010,-0.206
37.015,-0.226
37.020,-0.196
37.025,-0.172
37.030,-0.190
37.035,-0.173
37.040,-0.138
37.045,-0.151
37.050,-0.153
37.055,-0.113
37.060,-0.110
37.065,-0.123
37.070,-0.090
37.075,-0.071
37.080,-0.089
37.085,-0.069
37.090,-0.036
37.095,-0.050
37.100,-0.055
37.105,-0.020
37.110,-0.014
37.115,-0.029
37.120,0.000
37.125,0.020
37.130,-0.006
37.135,0.002
37.140,0.033
37.145,0.010
37.150,-0.003
37.155,0.034
37.160,0.036
37.165,0.016
37.170,0.042
37.175,0.055
37.180,0.027
37.185,0.030
37.190,0.053
37.195,0.031
37.200,0.018
37.205,0.050
37.210,0.049
37.215,0.024
37.220,0.044
37.225,0.052
37.230,0.022
37.235,0.028
37.240,0.053
37.245,0.034
37.250,0.026
37.255,0.056
37.260,0.050
37.265,0.029
37.270,0.054
37.275,0.058
37.280,0.020
37.285,0.025
37.290,0.055
37.295,0.039
37.300,0.029
37.305,0.056
37.310,0.049
37.315,0.025
37.320,0.050
37.325,0.061
37.330,0.029
37.335,0.036
37.340,0.066
37.345,0.055
37.350,0.060
37.355,0.102
37.360,0.100
37.365,0.079
37.370,0.105
37.375,0.113
37.380,0.081
37.385,0.091
37.390,0.124
37.395,0.107
37.400,0.094
37.405,0.116
37.410,0.106
37.415,0.079
37.420,0.092
37.425,0.085
37.430,0.035
37.435,0.021
37.440,0.032
37.445,-0.003
37.450,-0.031
37.455,-0.013
37.460,-0.031
37.465,-0.063
37.470,-0.040
37.475,-0.031
37.480,-0.068
37.485,-0.062
37.490,-0.031
37.495,-0.050
37.500,-0.058
37.505,-0.025
37.510,-0.032
37.515,-0.058
37.520,-0.032
37.525,-0.016
37.530,-0.040
37.535,-0.027
37.540,0.003
37.545,-0.018
37.550,-0.028
37.555,0.002
37.560,0.003
37.565,-0.015
37.570,0.008
37.575,0.016
37.580,-0.017
37.585,0.004
37.590,0.108
37.595,0.253
37.600,0.471
37.605,0.777
37.610,1.000
37.615,0.929
37.620,0.488
37.625,-0.093
37.630,-0.450
37.635,-0.554
37.640,-0.553
37.645,-0.521
37.650,-0.417
37.655,-0.247
37.660,-0.136
37.665,-0.096
37.670,-0.054
37.675,-0.025
37.680,-0.038
37.685,-0.025
37.690,0.002
37.695,-0.016
37.700,-0.018
37.705,0.018
37.710,0.013
37.715,-0.007
37.720,0.020
37.725,0.029
37.730,-0.001
37.735,0.011
37.740,0.038
37.745,0.018
37.750,0.014
37.755,0.046
37.760,0.036
37.765,0.015
37.770,0.046
37.775,0.056
37.780,0.027
37.785,0.042
37.790,0.074
37.795,0.057
37.800,0.054
37.805,0.090
37.810,0.088
37.815,0.070
37.820,0.096
37.825,0.115
37.830,0.099
37.835,0.116
37.840,0.148
37.845,0.132
37.850,0.131
37.855,0.167
37.860,0.165
37.865,0.145
37.870,0.168
37.875,0.173
37.880,0.139
37.885,0.142
37.890,0.155
37.895,0.118
37.900,0.093
37.905,0.107
37.910,0.077
37.915,0.028
37.920,0.025
37.925,0.003
37.930,-0.062
37.935,-0.087
37.940,-0.099
37.945,-0.158
37.950,-0.197
37.955,-0.195
37.960,-0.225
37.965,-0.263
37.970,-0.251
37.975,-0.253
37.980,-0.287
37.985,-0.274
37.990,-0.247
37.995,-0.269
38.000,-0.272
38.005,-0.235
38.010,-0.237
38.015,-0.253
38.020,-0.220
38.025,-0.203
38.030,-0.222
38.035,-0.201
38.040,-0.170
38.045,-0.187
38.050,-0.185
38.055,-0.145
38.060,-0.147
38.065,-0.156
38.070,-0.117
38.075,-0.103
38.080,-0.124
38.085,-0.101
38.090,-0.068
38.095,-0.082
38.100,-0.078
38.105,-0.039
38.110,-0.043
38.115,-0.058
38.120,-0.022
38.125,-0.006
38.130,-0.027
38.135,-0.008
38.140,0.019
38.145,-0.003
38.150,-0.005
38.155,0.031
38.160,0.025
38.165,0.006
38.170,0.034
38.175,0.042
38.180,0.016
38.185,0.031
38.190,0.050
38.195,0.023
38.200,0.018
38.205,0.051
38.210,0.040
38.215,0.015
38.220,0.040
38.225,0.048
38.230,0.021
38.235,0.035
38.240,0.056
38.245,0.031
38.250,0.025
38.255,0.052
38.260,0.041
38.265,0.021
38.270,0.046
38.275,0.053
38.280,0.023
38.285,0.034
38.290,0.057
38.295,0.032
38.300,0.028
38.305,0.058
38.310,0.046
38.315,0.025
38.320,0.049
38.325,0.054
38.330,0.025
38.335,0.038
38.340,0.059
38.345,0.034
38.350,0.028
38.355,0.056
38.360,0.043
38.365,0.023
38.370,0.055
38.375,0.070
38.380,0.054
38.385,0.081
38.390,0.109
38.395,0.084
38.400,0.079
38.405,0.110
38.410,0.098
38.415,0.077
38.420,0.103
38.425,0.112
38.430,0.087
38.435,0.099
38.440,0.116
38.445,0.082
38.450,0.062
38.455,0.077
38.460,0.047
38.465,0.000
38.470,0.008
38.475,0.002
38.480,-0.040
38.485,-0.037
38.490,-0.023
38.495,-0.057
38.500,-0.066
38.505,-0.036
38.510,-0.049
38.515,-0.070
38.520,-0.044
38.525,-0.037
38.530,-0.061
38.535,-0.046
38.540,-0.025
38.545,-0.046
38.550,-0.047
38.555,-0.014
38.560,-0.021
38.565,-0.040
38.570,-0.013
38.575,-0.006
38.580,-0.032
38.585,-0.014
38.590,0.012
38.595,-0.009
38.600,-0.010
38.605,0.022
38.610,0.008
38.615,-0.004
38.620,0.096
38.625,0.264
38.630,0.448
38.635,0.725
38.640,0.977
38.645,0.921
38.650,0.472
38.655,-0.082
38.660,-0.423
38.665,-0.564
38.670,-0.570
38.675,-0.511
38.680,-0.409
38.685,-0.241
38.690,-0.109
38.695,-0.080
38.700,-0.064
38.705,-0.014
38.710,-0.015
38.715,-0.035
38.720,-0.002
38.725,0.009
38.730,-0.015
38.735,0.003
38.740,0.027
38.745,0.003
38.750,0.003
38.755,0.036
38.760,0.025
38.765,0.006
38.770,0.034
38.775,0.040
38.780,0.013
38.785,0.031
38.790,0.054
38.795,0.028
38.800,0.026
38.805,0.057
38.810,0.044
38.815,0.030
38.820,0.065
38.825,0.075
38.830,0.052
38.835,0.073
38.840,0.096
38.845,0.074
38.850,0.078
38.855,0.116
38.860,0.112
38.865,0.102
38.870,0.137
38.875,0.148
38.880,0.127
38.885,0.145
38.890,0.169
38.895,0.147
38.900,0.145
38.905,0.170
38.910,0.150
38.915,0.122
38.920,0.137
38.925,0.125
38.930,0.082
38.935,0.086
38.940,0.087
38.945,0.033
38.950,0.002
38.955,0.001
38.960,-0.049
38.965,-0.106
38.970,-0.110
38.975,-0.136
38.980,-0.198
38.985,-0.214
38.990,-0.216
38.995,-0.260
39.000,-0.277
39.005,-0.256
39.010,-0.276
39.015,-0.295
39.020,-0.261
39.025,-0.254
39.030,-0.280
39.035,-0.260
39.040,-0.234
39.045,-0.253
39.050,-0.243
39.055,-0.204
39.060,-0.209
39.065,-0.216
39.070,-0.179
39.075,-0.169
39.080,-0.190
39.085,-0.164
39.090,-0.134
39.095,-0.151
39.100,-0.145
39.105,-0.105
39.110,-0.108
39.115,-0.118
39.120,-0.081
39.125,-0.067
39.130,-0.087
39.135,-0.064
39.140,-0.036
39.145,-0.053
39.150,-0.046
39.155,-0.009
39.160,-0.016
39.165,-0.029
39.170,0.003
39.175,0.013
39.180,-0.005
39.185,0.015
39.190,0.036
39.195,0.013
39.200,0.016
39.205,0.045
39.210,0.029
39.215,0.012
39.220,0.041
39.225,0.044
39.230,0.016
39.235,0.032
39.240,0.051
39.245,0.022
39.250,0.020
39.255,0.049
39.260,0.035
39.265,0.018
39.270,0.043
39.275,0.045
39.280,0.020
39.285,0.038
39.290,0.056
39.295,0.029
39.300,0.029
39.305,0.059
39.310,0.044
39.315,0.025
39.320,0.054
39.325,0.057
39.330,0.028
39.335,0.042
39.340,0.060
39.345,0.035
39.350,0.036
39.355,0.064
39.360,0.047
39.365,0.026
39.370,0.053
39.375,0.055
39.380,0.030
39.385,0.047
39.390,0.063
39.395,0.034
39.400,0.032
39.405,0.062
39.410,0.048
39.415,0.033
39.420,0.069
39.425,0.080
39.430,0.063
39.435,0.091
39.440,0.113
39.445,0.084
39.450,0.086
39.455,0.117
39.460,0.100
39.465,0.084
39.470,0.112
39.475,0.115
39.480,0.094
39.485,0.110
39.490,0.120
39.495,0.080
39.500,0.064
39.505,0.075
39.510,0.034
39.515,-0.004
39.520,0.013
39.525,0.003
39.530,-0.038
39.535,-0.031
39.540,-0.025
39.545,-0.060
39.550,-0.061
39.555,-0.035
39.560,-0.055
39.565,-0.072
39.570,-0.044
39.575,-0.041
39.580,-0.064
39.585,-0.045
39.590,-0.027
39.595,-0.052
39.600,-0.052
39.605,-0.023
39.610,-0.031
39.615,-0.043
39.620,-0.016
39.625,-0.012
39.630,-0.029
39.635,-0.007
39.640,0.011
39.645,-0.013
39.650,-0.010
39.655,0.018
39.660,0.001
39.665,0.020
39.670,0.169
39.675,0.352
39.680,0.550
39.685,0.824
39.690,0.987
39.695,0.735
39.700,0.173
39.705,-0.270
39.710,-0.491
39.715,-0.581
39.720,-0.552
39.725,-0.459
39.730,-0.331
39.735,-0.172
39.740,-0.072
39.745,-0.066
39.750,-0.047
39.755,-0.006
39.760,-0.017
39.765,-0.026
39.770,0.008
39.775,0.010
39.780,-0.011
39.785,0.011
39.790,0.028
39.795,0.005
39.800,0.009
39.805,0.038
39.810,0.022
39.815,0.006
39.820,0.035
39.825,0.037
39.830,0.013
39.835,0.035
39.840,0.053
39.845,0.027
39.850,0.032
39.855,0.063
39.860,0.047
39.865,0.035
39.870,0.067
39.875,0.071
39.880,0.051
39.885,0.075
39.890,0.096
39.895,0.075
39.900,0.085
39.905,0.120
39.910,0.109
39.915,0.103
39.920,0.140
39.925,0.147
39.930,0.126
39.935,0.150
39.940,0.169
39.945,0.141
39.950,0.144
39.955,0.167
39.960,0.141
39.965,0.118
39.970,0.138
39.975,0.121
39.980,0.077
39.985,0.077
39.990,0.073
39.995,0.021
40.000,-0.006
40.005,-0.010
40.010,-0.062
40.015,-0.111
40.020,-0.117
40.025,-0.151
40.030,-0.207
40.035,-0.212
40.040,-0.218
40.045,-0.264
40.050,-0.272
40.055,-0.252
40.060,-0.275
40.065,-0.291
40.070,-0.257
40.075,-0.254
40.080,-0.277
40.085,-0.252
40.090,-0.228
40.095,-0.246
40.100,-0.233
40.105,-0.195
40.110,-0.202
40.115,-0.209
40.120,-0.175
40.125,-0.167
40.130,-0.182
40.135,-0.153
40.140,-0.128
40.145,-0.144
40.150,-0.130
40.155,-0.094
40.160,-0.100
40.165,-0.101
40.170,-0.065
40.175,-0.060
40.180,-0.075
40.185,-0.047
40.190,-0.028
40.195,-0.049
40.200,-0.040
40.205,-0.007
40.210,-0.014
40.215,-0.017
40.220,0.016
40.225,0.013
40.230,-0.008
40.235,0.023
40.240,0.044
40.245,0.013
40.250,0.016
40.255,0.045
40.260,0.030
40.265,0.023
40.270,0.053
40.275,0.045
40.280,0.016
40.285,0.039
40.290,0.055
40.295,0.024
40.300,0.024
40.305,0.052
40.310,0.035
40.315,0.020
40.320,0.046
40.325,0.044
40.330,0.022
40.335,0.044
40.340,0.056
40.345,0.025
40.350,0.028
40.355,0.053
40.360,0.034
40.365,0.025
40.370,0.055
40.375,0.052
40.380,0.025
40.385,0.039
40.390,0.050
40.395,0.026
40.400,0.037
40.405,0.064
40.410,0.040
40.415,0.024
40.420,0.054
40.425,0.051
40.430,0.023
40.435,0.044
40.440,0.058
40.445,0.029
40.450,0.034
40.455,0.061
40.460,0.039
40.465,0.024
40.470,0.055
40.475,0.056
40.480,0.041
40.485,0.080
40.490,0.106
40.495,0.079
40.500,0.079
40.505,0.105
40.510,0.091
40.515,0.079
40.520,0.106
40.525,0.100
40.530,0.080
40.535,0.105
40.540,0.114
40.545,0.084
40.550,0.083
40.555,0.087
40.560,0.050
40.565,0.018
40.570,0.023
40.575,0.005
40.580,-0.029
40.585,-0.018
40.590,-0.019
40.595,-0.062
40.600,-0.064
40.605,-0.038
40.610,-0.059
40.615,-0.075
40.620,-0.046
40.625,-0.047
40.630,-0.069
40.635,-0.044
40.640,-0.025
40.645,-0.052
40.650,-0.048
40.655,-0.020
40.660,-0.039
40.665,-0.047
40.670,-0.012
40.675,-0.014
40.680,-0.036
40.685,-0.012
40.690,0.002
40.695,-0.020
40.700,-0.006
40.705,0.023
40.710,-0.002
40.715,-0.002
40.720,0.118
40.725,0.279
40.730,0.463
40.735,0.752
40.740,0.987
40.745,0.885
40.750,0.416
40.755,-0.105
40.760,-0.406
40.765,-0.529
40.770,-0.544
40.775,-0.503
40.780,-0.403
40.785,-0.236
40.790,-0.115
40.795,-0.088
40.800,-0.066
40.805,-0.029
40.810,-0.037
40.815,-0.038
40.820,0.001
40.825,0.000
40.830,-0.023
40.835,0.004
40.840,0.020
40.845,-0.007
40.850,0.003
40.855,0.025
40.860,0.005
40.865,0.001
40.870,0.037
40.875,0.033
40.880,0.006
40.885,0.028
40.890,0.043
40.895,0.018
40.900,0.031
40.905,0.059
40.910,0.036
40.915,0.033
40.920,0.070
40.925,0.065
40.930,0.045
40.935,0.077
40.940,0.093
40.945,0.068
40.950,0.082
40.955,0.119
40.960,0.113
40.965,0.114
40.970,0.146
40.975,0.139
40.980,0.116
40.985,0.145
40.990,0.170
40.995,0.149
41.000,0.151
41.005,0.173
41.010,0.151
41.015,0.135
41.020,0.153
41.025,0.129
41.030,0.086
41.035,0.093
41.040,0.086
41.045,0.036
41.050,0.015
41.055,0.001
41.060,-0.054
41.065,-0.091
41.070,-0.093
41.075,-0.137
41.080,-0.189
41.085,-0.189
41.090,-0.200
41.095,-0.251
41.100,-0.262
41.105,-0.248
41.110,-0.272
41.115,-0.280
41.120,-0.250
41.125,-0.258
41.130,-0.274
41.135,-0.239
41.140,-0.224
41.145,-0.251
41.150,-0.233
41.155,-0.195
41.160,-0.203
41.165,-0.205
41.170,-0.170
41.175,-0.167
41.180,-0.182
41.185,-0.149
41.190,-0.131
41.195,-0.155
41.200,-0.135
41.205,-0.091
41.210,-0.099
41.215,-0.105
41.220,-0.071
41.225,-0.067
41.230,-0.076
41.235,-0.042
41.240,-0.026
41.245,-0.045
41.250,-0.025
41.255,0.004
41.260,-0.017
41.265,-0.018
41.270,0.024
41.275,0.019
41.280,-0.004
41.285,0.025
41.290,0.038
41.295,0.009
41.300,0.019
41.305,0.051
41.310,0.033
41.315,0.022
41.320,0.053
41.325,0.045
41.330,0.020
41.335,0.041
41.340,0.047
41.345,0.019
41.350,0.035
41.355,0.066
41.360,0.041
41.365,0.024
41.370,0.052
41.375,0.049
41.380,0.029
41.385,0.050
41.390,0.052
41.395,0.022
41.400,0.035
41.405,0.060
41.410,0.035
41.415,0.029
41.420,0.057
41.425,0.048
41.430,0.027
41.435,0.047
41.440,0.052
41.445,0.025
41.450,0.033
41.455,0.056
41.460,0.037
41.465,0.034
41.470,0.062
41.475,0.049
41.480,0.022
41.485,0.050
41.490,0.072
41.495,0.057
41.500,0.079
41.505,0.109
41.510,0.081
41.515,0.069
41.520,0.100
41.525,0.094
41.530,0.080
41.535,0.107
41.540,0.113
41.545,0.082
41.550,0.088
41.555,0.107
41.560,0.077
41.565,0.060
41.570,0.076
41.575,0.042
41.580,-0.004
41.585,0.008
41.590,0.005
41.595,-0.037
41.600,-0.035
41.605,-0.027
41.610,-0.064
41.615,-0.071
41.620,-0.039
41.625,-0.049
41.630,-0.071
41.635,-0.047
41.640,-0.036
41.645,-0.062
41.650,-0.053
41.655,-0.028
41.660,-0.046
41.665,-0.047
41.670,-0.011
41.675,-0.023
41.680,-0.046
41.685,-0.017
41.690,-0.007
41.695,-0.033
41.700,-0.013
41.705,0.017
41.710,-0.005
41.715,-0.009
41.720,0.021
41.725,0.010
41.730,0.038
41.735,0.208
41.740,0.430
41.745,0.674
41.750,0.950
41.755,1.031
41.760,0.645
41.765,0.022
41.770,-0.368
41.775,-0.535
41.780,-0.597
41.785,-0.534
41.790,-0.419
41.795,-0.304
41.800,-0.170
41.805,-0.076
41.810,-0.071
41.815,-0.053
41.820,-0.007
41.825,-0.014
41.830,-0.033
41.835,-0.003
41.840,0.009
41.845,-0.014
41.850,0.006
41.855,0.033
41.860,0.006
41.865,0.000
41.870,0.032
41.875,0.025
41.880,0.004
41.885,0.031
41.890,0.044
41.895,0.018
41.900,0.028
41.905,0.051
41.910,0.030
41.915,0.025
41.920,0.057
41.925,0.054
41.930,0.040
41.935,0.066
41.940,0.076
41.945,0.056
41.950,0.076
41.955,0.104
41.960,0.084
41.965,0.086
41.970,0.127
41.975,0.126
41.980,0.111
41.985,0.141
41.990,0.152
41.995,0.131
42.000,0.153
42.005,0.178
42.010,0.150
42.015,0.142
42.020,0.168
42.025,0.149
42.030,0.118
42.035,0.134
42.040,0.127
42.045,0.081
42.050,0.074
42.055,0.075
42.060,0.022
42.065,-0.018
42.070,-0.023
42.075,-0.067
42.080,-0.124
42.085,-0.133
42.090,-0.160
42.095,-0.218
42.100,-0.229
42.105,-0.224
42.110,-0.264
42.115,-0.284
42.120,-0.260
42.125,-0.271
42.130,-0.292
42.135,-0.264
42.140,-0.252
42.145,-0.272
42.150,-0.249
42.155,-0.219
42.160,-0.236
42.165,-0.234
42.170,-0.197
42.175,-0.198
42.180,-0.207
42.185,-0.170
42.190,-0.156
42.195,-0.179
42.200,-0.159
42.205,-0.123
42.210,-0.136
42.215,-0.135
42.220,-0.096
42.225,-0.093
42.230,-0.104
42.235,-0.070
42.240,-0.053
42.245,-0.073
42.250,-0.053
42.255,-0.024
42.260,-0.042
42.265,-0.039
42.270,-0.002
42.275,-0.007
42.280,-0.021
42.285,0.010
42.290,0.021
42.295,-0.003
42.300,0.012
42.305,0.035
42.310,0.013
42.315,0.013
42.320,0.044
42.325,0.033
42.330,0.011
42.335,0.036
42.340,0.044
42.345,0.019
42.350,0.034
42.355,0.056
42.360,0.028
42.365,0.021
42.370,0.049
42.375,0.038
42.380,0.018
42.385,0.043
42.390,0.049
42.395,0.021
42.400,0.036
42.405,0.054
42.410,0.027
42.415,0.027
42.420,0.057
42.425,0.042
42.430,0.025
42.435,0.054
42.440,0.058
42.445,0.030
42.450,0.043
42.455,0.061
42.460,0.037
42.465,0.032
42.470,0.059
42.475,0.046
42.480,0.024
42.485,0.049
42.490,0.055
42.495,0.024
42.500,0.036
42.505,0.056
42.510,0.038
42.515,0.045
42.520,0.083
42.525,0.081
42.530,0.071
42.535,0.102
42.540,0.106
42.545,0.078
42.550,0.091
42.555,0.112
42.560,0.089
42.565,0.086
42.570,0.118
42.575,0.106
42.580,0.083
42.585,0.106
42.590,0.098
42.595,0.053
42.600,0.054
42.605,0.051
42.610,0.002
42.615,-0.016
42.620,0.000
42.625,-0.025
42.630,-0.053
42.635,-0.036
42.640,-0.038
42.645,-0.067
42.650,-0.056
42.655,-0.039
42.660,-0.066
42.665,-0.067
42.670,-0.031
42.675,-0.041
42.680,-0.064
42.685,-0.037
42.690,-0.027
42.695,-0.050
42.700,-0.033
42.705,-0.011
42.710,-0.032
42.715,-0.030
42.720,0.002
42.725,-0.008
42.730,-0.025
42.735,0.003
42.740,0.012
42.745,-0.015
42.750,0.000
42.755,0.080
42.760,0.208
42.765,0.409
42.770,0.691
42.775,0.923
42.780,0.942
42.785,0.592
42.790,-0.001
42.795,-0.411
42.800,-0.541
42.805,-0.563
42.810,-0.551
42.815,-0.435
42.820,-0.245
42.825,-0.138
42.830,-0.096
42.835,-0.044
42.840,-0.023
42.845,-0.038
42.850,-0.018
42.855,0.008
42.860,-0.014
42.865,-0.013
42.870,0.020
42.875,0.013
42.880,-0.001
42.885,0.026
42.890,0.029
42.895,0.003
42.900,0.022
42.905,0.042
42.910,0.014
42.915,0.014
42.920,0.045
42.925,0.033
42.930,0.016
42.935,0.045
42.940,0.053
42.945,0.028
42.950,0.046
42.955,0.069
42.960,0.044
42.965,0.046
42.970,0.080
42.975,0.072
42.980,0.062
42.985,0.096
42.990,0.106
42.995,0.087
43.000,0.112
43.005,0.139
43.010,0.119
43.015,0.125
43.020,0.161
43.025,0.152
43.030,0.137
43.035,0.164
43.040,0.162
43.045,0.130
43.050,0.142
43.055,0.154
43.060,0.118
43.065,0.100
43.070,0.108
43.075,0.074
43.080,0.036
43.085,0.037
43.090,0.009
43.095,-0.053
43.100,-0.073
43.105,-0.087
43.110,-0.146
43.115,-0.180
43.120,-0.180
43.125,-0.219
43.130,-0.256
43.135,-0.245
43.140,-0.256
43.145,-0.290
43.150,-0.277
43.155,-0.257
43.160,-0.278
43.165,-0.274
43.170,-0.240
43.175,-0.249
43.180,-0.259
43.185,-0.220
43.190,-0.207
43.195,-0.227
43.200,-0.201
43.205,-0.173
43.210,-0.191
43.215,-0.181
43.220,-0.143
43.225,-0.149
43.230,-0.159
43.235,-0.122
43.240,-0.111
43.245,-0.128
43.250,-0.099
43.255,-0.071
43.260,-0.088
43.265,-0.079
43.270,-0.044
43.275,-0.053
43.280,-0.059
43.285,-0.020
43.290,-0.014
43.295,-0.036
43.300,-0.009
43.305,0.016
43.310,-0.008
43.315,-0.003
43.320,0.031
43.325,0.018
43.330,0.004
43.335,0.034
43.340,0.037
43.345,0.012
43.350,0.030
43.355,0.049
43.360,0.022
43.365,0.020
43.370,0.049
43.375,0.038
43.380,0.024
43.385,0.050
43.390,0.050
43.395,0.025
43.400,0.043
43.405,0.059
43.410,0.032
43.415,0.034
43.420,0.060
43.425,0.042
43.430,0.028
43.435,0.057
43.440,0.055
43.445,0.027
43.450,0.046
43.455,0.064
43.460,0.037
43.465,0.040
43.470,0.067
43.475,0.049
43.480,0.035
43.485,0.063
43.490,0.062
43.495,0.033
43.500,0.050
43.505,0.067
43.510,0.039
43.515,0.040
43.520,0.065
43.525,0.047
43.530,0.032
43.535,0.061
43.540,0.060
43.545,0.032
43.550,0.049
43.555,0.069
43.560,0.049
43.565,0.062
43.570,0.106
43.575,0.099
43.580,0.084
43.585,0.110
43.590,0.112
43.595,0.084
43.600,0.099
43.605,0.114
43.610,0.091
43.615,0.097
43.620,0.123
43.625,0.101
43.630,0.077
43.635,0.090
43.640,0.075
43.645,0.026
43.650,0.016
43.655,0.016
43.660,-0.021
43.665,-0.032
43.670,-0.016
43.675,-0.043
43.680,-0.067
43.685,-0.044
43.690,-0.045
43.695,-0.073
43.700,-0.055
43.705,-0.035
43.710,-0.061
43.715,-0.059
43.720,-0.030
43.725,-0.046
43.730,-0.060
43.735,-0.029
43.740,-0.029
43.745,-0.053
43.750,-0.032
43.755,-0.013
43.760,-0.037
43.765,-0.028
43.770,0.003
43.775,-0.012
43.780,-0.022
43.785,0.009
43.790,0.003
43.795,0.005
43.800,0.146
43.805,0.347
43.810,0.541
43.815,0.798
43.820,0.982
43.825,0.764
43.830,0.198
43.835,-0.262
43.840,-0.483
43.845,-0.585
43.850,-0.568
43.855,-0.461
43.860,-0.331
43.865,-0.188
43.870,-0.079
43.875,-0.062
43.880,-0.057
43.885,-0.012
43.890,-0.008
43.895,-0.030
43.900,-0.005
43.905,0.017
43.910,-0.008
43.915,-0.005
43.920,0.023
43.925,0.004
43.930,-0.008
43.935,0.027
43.940,0.028
43.945,0.002
43.950,0.021
43.955,0.038
43.960,0.016
43.965,0.022
43.970,0.051
43.975,0.035
43.980,0.021
43.985,0.050
43.990,0.053
43.995,0.035
44.000,0.060
44.005,0.076
44.010,0.050
44.015,0.060
44.020,0.097
44.025,0.083
44.030,0.076
44.035,0.115
44.040,0.119
44.045,0.098
44.050,0.127
44.055,0.154
44.060,0.133
44.065,0.136
44.070,0.168
44.075,0.155
44.080,0.140
44.085,0.165
44.090,0.155
44.095,0.121
44.100,0.131
44.105,0.135
44.110,0.090
44.115,0.072
44.120,0.079
44.125,0.035
44.130,-0.011
44.135,-0.015
44.140,-0.046
44.145,-0.103
44.150,-0.115
44.155,-0.129
44.160,-0.188
44.165,-0.217
44.170,-0.216
44.175,-0.252
44.180,-0.276
44.185,-0.255
44.190,-0.265
44.195,-0.289
44.200,-0.261
44.205,-0.245
44.210,-0.274
44.215,-0.266
44.220,-0.226
44.225,-0.236
44.230,-0.242
44.235,-0.201
44.240,-0.191
44.245,-0.213
44.250,-0.188
44.255,-0.160
44.260,-0.175
44.265,-0.165
44.270,-0.127
44.275,-0.133
44.280,-0.138
44.285,-0.102
44.290,-0.097
44.295,-0.109
44.300,-0.073
44.305,-0.051
44.310,-0.074
44.315,-0.062
44.320,-0.026
44.325,-0.037
44.330,-0.042
44.335,-0.003
44.340,0.001
44.345,-0.020
44.350,0.006
44.355,0.023
44.360,-0.003
44.365,0.004
44.370,0.035
44.375,0.022
44.380,0.013
44.385,0.043
44.390,0.043
44.395,0.021
44.400,0.040
44.405,0.050
44.410,0.019
44.415,0.027
44.420,0.057
44.425,0.035
44.430,0.021
44.435,0.052
44.440,0.051
44.445,0.025
44.450,0.047
44.455,0.059
44.460,0.025
44.465,0.025
44.470,0.054
44.475,0.040
44.480,0.031
44.485,0.057
44.490,0.048
44.495,0.022
44.500,0.047
44.505,0.060
44.510,0.029
44.515,0.035
44.520,0.065
44.525,0.046
44.530,0.030
44.535,0.054
44.540,0.049
44.545,0.026
44.550,0.050
44.555,0.068
44.560,0.036
44.565,0.033
44.570,0.059
44.575,0.041
44.580,0.034
44.585,0.075
44.590,0.083
44.595,0.070
44.600,0.101
44.605,0.110
44.610,0.072
44.615,0.081
44.620,0.117
44.625,0.099
44.630,0.087
44.635,0.120
44.640,0.119
44.645,0.089
44.650,0.105
44.655,0.112
44.660,0.072
44.665,0.061
44.670,0.065
44.675,0.017
44.680,-0.018
44.685,0.001
44.690,-0.011
44.695,-0.044
44.700,-0.037
44.705,-0.035
44.710,-0.065
44.715,-0.061
44.720,-0.034
44.725,-0.055
44.730,-0.072
44.735,-0.044
44.740,-0.046
44.745,-0.062
44.750,-0.031
44.755,-0.020
44.760,-0.055
44.765,-0.048
44.770,-0.017
44.775,-0.035
44.780,-0.040
44.785,-0.002
44.790,-0.009
44.795,-0.037
44.800,-0.010
44.805,0.009
44.810,-0.013
44.815,-0.010
44.820,0.020
44.825,0.086
44.830,0.253
44.835,0.498
44.840,0.757
44.845,0.963
44.850,0.930
44.855,0.470
44.860,-0.129
44.865,-0.428
44.870,-0.517
44.875,-0.575
44.880,-0.537
44.885,-0.386
44.890,-0.244
44.895,-0.157
44.900,-0.084
44.905,-0.052
44.910,-0.056
44.915,-0.037
44.920,-0.013
44.925,-0.029
44.930,-0.030
44.935,0.004
44.940,0.003
44.945,-0.014
44.950,0.010
44.955,0.019
44.960,-0.008
44.965,0.004
44.970,0.036
44.975,0.021
44.980,0.008
44.985,0.034
44.990,0.032
44.995,0.012
45.000,0.034
45.005,0.051
45.010,0.030
45.015,0.044
45.020,0.077
45.025,0.057
45.030,0.044
45.035,0.076
45.040,0.078
45.045,0.065
45.050,0.097
45.055,0.113
45.060,0.087
45.065,0.100
45.070,0.135
45.075,0.125
45.080,0.123
45.085,0.158
45.090,0.155
45.095,0.137
45.100,0.168
45.105,0.176
45.110,0.137
45.115,0.143
45.120,0.169
45.125,0.134
45.130,0.105
45.135,0.120
45.140,0.095
45.145,0.046
45.150,0.041
45.155,0.031
45.160,-0.018
45.165,-0.047
45.170,-0.068
45.175,-0.123
45.180,-0.159
45.185,-0.163
45.190,-0.204
45.195,-0.249
45.200,-0.239
45.205,-0.245
45.210,-0.283
45.215,-0.278
45.220,-0.259
45.225,-0.282
45.230,-0.283
45.235,-0.244
45.240,-0.247
45.245,-0.272
45.250,-0.244
45.255,-0.218
45.260,-0.229
45.265,-0.208
45.270,-0.179
45.275,-0.195
45.280,-0.191
45.285,-0.153
45.290,-0.157
45.295,-0.171
45.300,-0.133
45.305,-0.113
45.310,-0.134
45.315,-0.111
45.320,-0.075
45.325,-0.089
45.330,-0.084
45.335,-0.046
45.340,-0.051
45.345,-0.066
45.350,-0.032
45.355,-0.016
45.360,-0.037
45.365,-0.024
45.370,0.008
45.375,-0.003
45.380,-0.009
45.385,0.021
45.390,0.019
45.395,0.002
45.400,0.029
45.405,0.040
45.410,0.013
45.415,0.027
45.420,0.053
45.425,0.028
45.430,0.018
45.435,0.049
45.440,0.043
45.445,0.018
45.450,0.042
45.455,0.053
45.460,0.024
45.465,0.032
