'Elapsed time','ECG'
'seconds','mV'
0.000,0.293
0.005,0.350
0.010,0.467
0.015,0.611
0.020,0.413
0.025,0.283
0.030,0.538
0.035,0.481
0.040,0.287
0.045,0.515
0.050,0.572
0.055,0.279
0.060,0.356
0.065,0.526
0.070,0.276
0.075,0.213
0.080,0.454
0.085,0.312
0.090,0.099
0.095,0.325
0.100,0.370
0.105,0.091
0.110,0.186
0.115,0.359
0.120,0.123
0.125,0.079
0.130,0.316
0.135,0.184
0.140,0.035
0.145,0.292
0.150,0.318
0.155,0.057
0.160,0.171
0.165,0.350
0.170,0.106
0.175,0.039
0.180,0.297
0.185,0.205
0.190,0.006
0.195,0.175
0.200,0.184
0.205,-0.083
0.210,0.028
0.215,0.177
0.220,-0.137
0.225,-0.217
0.230,0.039
0.235,-0.111
0.240,-0.324
0.245,-0.083
0.250,-0.037
0.255,-0.306
0.260,-0.181
0.265,0.005
0.270,-0.260
0.275,-0.309
0.280,-0.016
0.285,-0.113
0.290,-0.278
0.295,-0.033
0.300,-0.005
0.305,-0.251
0.310,-0.118
0.315,0.056
0.320,-0.191
0.325,-0.232
0.330,0.054
0.335,-0.039
0.340,-0.227
0.345,0.012
0.350,0.066
0.355,-0.199
0.360,-0.094
0.365,0.058
0.370,-0.205
0.375,-0.238
0.380,0.038
0.385,-0.083
0.390,-0.285
0.395,-0.060
0.400,0.005
0.405,-0.232
0.410,-0.113
0.415,0.073
0.420,-0.178
0.425,-0.210
0.430,0.108
0.435,0.008
0.440,-0.186
0.445,0.092
0.450,0.179
0.455,-0.072
0.460,0.062
0.465,0.236
0.470,-0.034
0.475,-0.070
0.480,0.237
0.485,0.152
0.490,-0.079
0.495,-0.002
0.500,-0.378
0.505,-1.455
0.510,-2.055
0.515,-1.906
0.520,-1.640
0.525,-0.811
0.530,0.329
0.535,0.496
0.540,0.239
0.545,0.479
0.550,0.581
0.555,0.373
0.560,0.501
0.565,0.659
0.570,0.399
0.575,0.340
0.580,0.584
0.585,0.456
0.590,0.228
0.595,0.400
0.600,0.424
0.605,0.191
0.610,0.357
0.615,0.542
0.620,0.240
0.625,0.148
0.630,0.388
0.635,0.256
0.640,0.046
0.645,0.262
0.650,0.299
0.655,0.020
0.660,0.129
0.665,0.312
0.670,0.059
0.675,0.031
0.680,0.311
0.685,0.181
0.690,0.002
0.695,0.241
0.700,0.257
0.705,0.004
0.710,0.163
0.715,0.345
0.720,0.079
0.725,0.025
0.730,0.245
0.735,0.049
0.740,-0.189
0.745,0.038
0.750,0.075
0.755,-0.230
0.760,-0.145
0.765,0.054
0.770,-0.179
0.775,-0.243
0.780,-0.006
0.785,-0.150
0.790,-0.353
0.795,-0.110
0.800,-0.046
0.805,-0.296
0.810,-0.159
0.815,0.064
0.820,-0.178
0.825,-0.251
0.830,0.008
0.835,-0.115
0.840,-0.279
0.845,0.022
0.850,0.079
0.855,-0.215
0.860,-0.091
0.865,0.125
0.870,-0.113
0.875,-0.166
0.880,0.108
0.885,0.003
0.890,-0.195
0.895,0.023
0.900,0.064
0.905,-0.216
0.910,-0.128
0.915,0.073
0.920,-0.126
0.925,-0.156
0.930,0.102
0.935,-0.022
0.940,-0.214
0.945,0.003
0.950,0.028
0.955,-0.230
0.960,-0.112
0.965,0.078
0.970,-0.129
0.975,-0.115
0.980,0.188
0.985,0.061
0.990,-0.122
0.995,0.156
1.000,0.213
1.005,-0.058
1.010,0.057
1.015,0.228
1.020,-0.013
1.025,-0.046
1.030,0.217
1.035,0.008
1.040,-0.493
1.045,-0.843
1.050,-1.465
1.055,-1.969
1.060,-1.618
1.065,-0.810
1.070,-0.121
1.075,0.286
1.080,0.537
1.085,0.469
1.090,0.302
1.095,0.530
1.100,0.574
1.105,0.308
1.110,0.428
1.115,0.596
1.120,0.352
1.125,0.297
1.130,0.535
1.135,0.408
1.140,0.210
1.145,0.409
1.150,0.394
1.155,0.111
1.160,0.249
1.165,0.436
1.170,0.166
1.175,0.096
1.180,0.345
1.185,0.210
1.190,0.023
1.195,0.260
1.200,0.290
1.205,0.013
1.210,0.120
1.215,0.295
1.220,0.054
1.225,0.037
1.230,0.314
1.235,0.180
1.240,-0.014
1.245,0.233
1.250,0.278
1.255,-0.013
1.260,0.070
1.265,0.253
1.270,0.002
1.275,-0.080
1.280,0.152
1.285,0.007
1.290,-0.190
1.295,0.030
1.300,0.038
1.305,-0.238
1.310,-0.131
1.315,0.026
1.320,-0.220
1.325,-0.253
1.330,0.014
1.335,-0.108
1.340,-0.304
1.345,-0.064
1.350,-0.008
1.355,-0.269
1.360,-0.152
1.365,0.047
1.370,-0.186
1.375,-0.231
1.380,0.061
1.385,-0.039
1.390,-0.240
1.395,-0.007
1.400,0.037
1.405,-0.218
1.410,-0.073
1.415,0.132
1.420,-0.110
1.425,-0.153
1.430,0.111
1.435,-0.007
1.440,-0.181
1.445,0.043
1.450,0.055
1.455,-0.211
1.460,-0.093
1.465,0.095
1.470,-0.132
1.475,-0.167
1.480,0.099
1.485,-0.051
1.490,-0.276
1.495,-0.041
1.500,0.014
1.505,-0.240
1.510,-0.116
1.515,0.103
1.520,-0.071
1.525,-0.080
1.530,0.199
1.535,0.107
1.540,-0.081
1.545,0.141
1.550,0.202
1.555,-0.052
1.560,0.044
1.565,0.226
1.570,0.034
1.575,-0.002
1.580,0.069
1.585,-0.484
1.590,-1.368
1.595,-1.855
1.600,-1.903
1.605,-1.642
1.610,-0.761
1.615,0.261
1.620,0.377
1.625,0.300
1.630,0.598
1.635,0.486
1.640,0.279
1.645,0.533
1.650,0.579
1.655,0.312
1.660,0.428
1.665,0.583
1.670,0.314
1.675,0.257
1.680,0.494
1.685,0.350
1.690,0.151
1.695,0.384
1.700,0.420
1.705,0.132
1.710,0.223
1.715,0.405
1.720,0.157
1.725,0.082
1.730,0.324
1.735,0.202
1.740,0.006
1.745,0.228
1.750,0.267
1.755,0.009
1.760,0.123
1.765,0.307
1.770,0.057
1.775,0.003
1.780,0.277
1.785,0.164
1.790,-0.018
1.795,0.216
1.800,0.245
1.805,-0.026
1.810,0.073
1.815,0.235
1.820,-0.018
1.825,-0.077
1.830,0.154
1.835,0.011
1.840,-0.185
1.845,0.020
1.850,0.012
1.855,-0.282
1.860,-0.170
1.865,0.021
1.870,-0.200
1.875,-0.233
1.880,0.011
1.885,-0.130
1.890,-0.310
1.895,-0.060
1.900,-0.025
1.905,-0.290
1.910,-0.138
1.915,0.079
1.920,-0.171
1.925,-0.232
1.930,0.038
1.935,-0.070
1.940,-0.247
1.945,-0.006
1.950,0.039
1.955,-0.223
1.960,-0.098
1.965,0.104
1.970,-0.134
1.975,-0.175
1.980,0.107
1.985,-0.005
1.990,-0.212
1.995,-0.015
2.000,0.014
2.005,-0.212
2.010,-0.076
2.015,0.074
2.020,-0.179
2.025,-0.203
2.030,0.052
2.035,-0.067
2.040,-0.222
2.045,0.017
2.050,0.048
2.055,-0.176
2.060,-0.018
2.065,0.182
2.070,-0.022
2.075,-0.028
2.080,0.256
2.085,0.154
2.090,-0.032
2.095,0.198
2.100,0.234
2.105,-0.024
2.110,0.112
2.115,0.338
2.120,0.116
2.125,-0.105
2.130,-0.324
2.135,-1.168
2.140,-1.963
2.145,-1.907
2.150,-1.613
2.155,-1.074
2.160,0.025
2.165,0.666
2.170,0.433
2.175,0.374
2.180,0.668
2.185,0.570
2.190,0.382
2.195,0.594
2.200,0.622
2.205,0.367
2.210,0.486
2.215,0.649
2.220,0.377
2.225,0.308
2.230,0.559
2.235,0.428
2.240,0.213
2.245,0.428
2.250,0.448
2.255,0.151
2.260,0.242
2.265,0.403
2.270,0.145
2.275,0.096
2.280,0.328
2.285,0.188
2.290,0.001
2.295,0.210
2.300,0.236
2.305,-0.021
2.310,0.103
2.315,0.304
2.320,0.055
2.325,-0.002
2.330,0.287
2.335,0.171
2.340,-0.034
2.345,0.207
2.350,0.244
2.355,-0.031
2.360,0.061
2.365,0.215
2.370,-0.022
2.375,-0.068
2.380,0.180
2.385,0.065
2.390,-0.134
2.395,0.065
2.400,0.072
2.405,-0.236
2.410,-0.151
2.415,0.031
2.420,-0.213
2.425,-0.255
2.430,0.009
2.435,-0.134
2.440,-0.332
2.445,-0.081
2.450,-0.017
2.455,-0.276
2.460,-0.174
2.465,0.008
2.470,-0.222
2.475,-0.264
2.480,0.014
2.485,-0.064
2.490,-0.246
2.495,-0.040
2.500,-0.008
2.505,-0.257
2.510,-0.119
2.515,0.078
2.520,-0.159
2.525,-0.206
2.530,0.030
2.535,-0.109
2.540,-0.289
2.545,-0.045
2.550,-0.023
2.555,-0.303
2.560,-0.160
2.565,0.042
2.570,-0.207
2.575,-0.248
2.580,0.018
2.585,-0.105
2.590,-0.285
2.595,-0.037
2.600,0.040
2.605,-0.172
2.610,-0.031
2.615,0.180
2.620,-0.030
2.625,-0.069
2.630,0.197
2.635,0.091
2.640,-0.090
2.645,0.133
2.650,0.178
2.655,-0.029
2.660,0.080
2.665,0.028
2.670,-0.752
2.675,-1.636
2.680,-1.982
2.685,-1.922
2.690,-1.584
2.695,-0.633
2.700,0.269
2.705,0.319
2.710,0.398
2.715,0.621
2.720,0.401
2.725,0.370
2.730,0.628
2.735,0.484
2.740,0.300
2.745,0.547
2.750,0.555
2.755,0.265
2.760,0.384
2.765,0.536
2.770,0.266
2.775,0.234
2.780,0.484
2.785,0.331
2.790,0.137
2.795,0.360
2.800,0.369
2.805,0.081
2.810,0.188
2.815,0.368
2.820,0.136
2.825,0.095
2.830,0.337
2.835,0.202
2.840,0.004
2.845,0.214
2.850,0.247
2.855,0.007
2.860,0.136
2.865,0.317
2.870,0.070
2.875,0.032
2.880,0.309
2.885,0.180
2.890,-0.021
2.895,0.197
2.900,0.217
2.905,-0.043
2.910,0.070
2.915,0.228
2.920,-0.026
2.925,-0.080
2.930,0.152
2.935,-0.026
2.940,-0.251
2.945,-0.021
2.950,-0.008
2.955,-0.291
2.960,-0.180
2.965,-0.017
2.970,-0.250
2.975,-0.255
2.980,0.020
2.985,-0.121
2.990,-0.307
2.995,-0.032
3.000,0.024
3.005,-0.274
3.010,-0.161
3.015,0.048
3.020,-0.177
3.025,-0.184
3.030,0.079
3.035,-0.074
3.040,-0.253
3.045,0.006
3.050,0.056
3.055,-0.200
3.060,-0.085
3.065,0.078
3.070,-0.178
3.075,-0.205
3.080,0.073
3.085,-0.060
3.090,-0.238
3.095,0.024
3.100,0.054
3.105,-0.243
3.110,-0.133
3.115,0.056
3.120,-0.176
3.125,-0.176
3.130,0.119
3.135,-0.012
3.140,-0.180
3.145,0.103
3.150,0.160
3.155,-0.076
3.160,0.080
3.165,0.254
3.170,-0.004
3.175,-0.040
3.180,0.223
3.185,0.104
3.190,-0.050
3.195,0.211
3.200,0.101
3.205,-0.593
3.210,-1.188
3.215,-1.691
3.220,-1.984
3.225,-1.583
3.230,-0.653
3.235,0.088
3.240,0.296
3.245,0.483
3.250,0.530
3.255,0.277
3.260,0.407
3.265,0.602
3.270,0.341
3.275,0.304
3.280,0.562
3.285,0.413
3.290,0.215
3.295,0.434
3.300,0.458
3.305,0.192
3.310,0.285
3.315,0.443
3.320,0.197
3.325,0.145
3.330,0.388
3.335,0.234
3.340,0.031
3.345,0.272
3.350,0.293
3.355,0.038
3.360,0.175
3.365,0.330
3.370,0.073
3.375,0.034
3.380,0.276
3.385,0.147
3.390,-0.016
3.395,0.238
3.400,0.280
3.405,0.016
3.410,0.136
3.415,0.315
3.420,0.070
3.425,0.037
3.430,0.304
3.435,0.149
3.440,-0.067
3.445,0.160
3.450,0.154
3.455,-0.137
3.460,-0.019
3.465,0.139
3.470,-0.134
3.475,-0.201
3.480,0.036
3.485,-0.094
3.490,-0.261
3.495,-0.045
3.500,-0.052
3.505,-0.303
3.510,-0.151
3.515,0.031
3.520,-0.216
3.525,-0.252
3.530,0.010
3.535,-0.129
3.540,-0.320
3.545,-0.057
3.550,-0.005
3.555,-0.281
3.560,-0.162
3.565,0.039
3.570,-0.181
3.575,-0.211
3.580,0.041
3.585,-0.085
3.590,-0.258
3.595,-0.016
3.600,0.017
3.605,-0.248
3.610,-0.121
3.615,0.056
3.620,-0.184
3.625,-0.189
3.630,0.065
3.635,-0.103
3.640,-0.273
3.645,-0.015
3.650,0.011
3.655,-0.249
3.660,-0.112
3.665,0.096
3.670,-0.112
3.675,-0.110
3.680,0.182
3.685,0.069
3.690,-0.093
3.695,0.158
3.700,0.186
3.705,-0.076
3.710,0.058
3.715,0.238
3.720,-0.014
3.725,-0.029
3.730,0.270
3.735,0.072
3.740,-0.466
3.745,-0.930
3.750,-1.588
3.755,-1.982
3.760,-1.578
3.765,-0.885
3.770,-0.272
3.775,0.261
3.780,0.576
3.785,0.453
3.790,0.287
3.795,0.549
3.800,0.599
3.805,0.312
3.810,0.436
3.815,0.619
3.820,0.355
3.825,0.315
3.830,0.573
3.835,0.416
3.840,0.223
3.845,0.463
3.850,0.460
3.855,0.168
3.860,0.281
3.865,0.440
3.870,0.193
3.875,0.162
3.880,0.410
3.885,0.264
3.890,0.068
3.895,0.299
3.900,0.321
3.905,0.044
3.910,0.166
3.915,0.337
3.920,0.080
3.925,0.053
3.930,0.320
3.935,0.185
3.940,-0.003
3.945,0.226
3.950,0.244
3.955,-0.021
3.960,0.114
3.965,0.282
3.970,0.021
3.975,-0.012
3.980,0.226
3.985,0.056
3.990,-0.141
3.995,0.093
4.000,0.083
4.005,-0.214
4.010,-0.080
4.015,0.089
4.020,-0.183
4.025,-0.219
4.030,0.039
4.035,-0.112
4.040,-0.302
4.045,-0.050
4.050,-0.022
4.055,-0.300
4.060,-0.166
4.065,0.023
4.070,-0.226
4.075,-0.248
4.080,0.034
4.085,-0.105
4.090,-0.304
4.095,-0.058
4.100,-0.019
4.105,-0.266
4.110,-0.117
4.115,0.066
4.120,-0.172
4.125,-0.194
4.130,0.064
4.135,-0.084
4.140,-0.264
4.145,0.002
4.150,0.038
4.155,-0.233
4.160,-0.095
4.165,0.078
4.170,-0.191
4.175,-0.219
4.180,0.058
4.185,-0.069
4.190,-0.235
4.195,0.022
4.200,0.052
4.205,-0.186
4.210,-0.016
4.215,0.183
4.220,-0.039
4.225,-0.036
4.230,0.234
4.235,0.095
4.240,-0.080
4.245,0.166
4.250,0.187
4.255,-0.061
4.260,0.117
4.265,0.313
4.270,-0.077
4.275,-0.558
4.280,-1.071
4.285,-1.804
4.290,-1.978
4.295,-1.402
4.300,-0.712
4.305,-0.128
4.310,0.376
4.315,0.548
4.320,0.319
4.325,0.309
4.330,0.573
4.335,0.444
4.340,0.263
4.345,0.506
4.350,0.526
4.355,0.252
4.360,0.362
4.365,0.519
4.370,0.258
4.375,0.218
4.380,0.465
4.385,0.294
4.390,0.091
4.395,0.317
4.400,0.309
4.405,0.029
4.410,0.163
4.415,0.343
4.420,0.082
4.425,0.049
4.430,0.324
4.435,0.168
4.440,-0.043
4.445,0.183
4.450,0.197
4.455,-0.059
4.460,0.082
4.465,0.254
4.470,0.005
4.475,-0.018
4.480,0.247
4.485,0.109
4.490,-0.068
4.495,0.181
4.500,0.204
4.505,-0.063
4.510,0.058
4.515,0.202
4.520,-0.078
4.525,-0.109
4.530,0.147
4.535,-0.015
4.540,-0.196
4.545,0.040
4.550,0.033
4.555,-0.233
4.560,-0.080
4.565,0.093
4.570,-0.183
4.575,-0.229
4.580,0.034
4.585,-0.094
4.590,-0.257
4.595,-0.008
4.600,0.004
4.605,-0.256
4.610,-0.129
4.615,0.024
4.620,-0.201
4.625,-0.188
4.630,0.058
4.635,-0.113
4.640,-0.283
4.645,-0.017
4.650,0.012
4.655,-0.228
4.660,-0.062
4.665,0.098
4.670,-0.194
4.675,-0.228
4.680,0.066
4.685,-0.062
4.690,-0.248
4.695,0.000
4.700,0.025
4.705,-0.239
4.710,-0.119
4.715,0.055
4.720,-0.181
4.725,-0.196
4.730,0.088
4.735,-0.011
4.740,-0.124
4.745,0.162
4.750,0.195
4.755,-0.062
4.760,0.076
4.765,0.233
4.770,-0.036
4.775,-0.049
4.780,0.227
4.785,0.098
4.790,-0.033
4.795,0.266
4.800,0.205
4.805,-0.358
4.810,-0.781
4.815,-1.343
4.820,-1.911
4.825,-1.668
4.830,-0.912
4.835,-0.259
4.840,0.180
4.845,0.495
4.850,0.513
4.855,0.268
4.860,0.399
4.865,0.586
4.870,0.316
4.875,0.287
4.880,0.569
4.885,0.411
4.890,0.213
4.895,0.460
4.900,0.461
4.905,0.181
4.910,0.303
4.915,0.450
4.920,0.167
4.925,0.121
4.930,0.382
4.935,0.237
4.940,0.049
4.945,0.284
4.950,0.297
4.955,0.022
4.960,0.146
4.965,0.307
4.970,0.036
4.975,-0.001
4.980,0.258
4.985,0.127
4.990,-0.038
4.995,0.208
5.000,0.233
5.005,-0.033
5.010,0.105
5.015,0.287
5.020,0.033
5.025,0.013
5.030,0.274
5.035,0.128
5.040,-0.049
5.045,0.174
5.050,0.156
5.055,-0.134
5.060,0.012
5.065,0.192
5.070,-0.097
5.075,-0.145
5.080,0.116
5.085,-0.046
5.090,-0.225
5.095,0.045
5.100,0.079
5.105,-0.189
5.110,-0.068
5.115,0.100
5.120,-0.154
5.125,-0.178
5.130,0.091
5.135,-0.047
5.140,-0.232
5.145,0.002
5.150,0.024
5.155,-0.225
5.160,-0.074
5.165,0.115
5.170,-0.133
5.175,-0.156
5.180,0.128
5.185,-0.018
5.190,-0.214
5.195,0.030
5.200,0.034
5.205,-0.225
5.210,-0.071
5.215,0.102
5.220,-0.132
5.225,-0.132
5.230,0.106
5.235,-0.090
5.240,-0.263
5.245,0.015
5.250,0.040
5.255,-0.215
5.260,-0.063
5.265,0.134
5.270,-0.092
5.275,-0.108
5.280,0.175
5.285,0.065
5.290,-0.096
5.295,0.166
5.300,0.190
5.305,-0.058
5.310,0.099
5.315,0.242
5.320,-0.035
5.325,-0.022
5.330,0.296
5.335,0.135
5.340,-0.257
5.345,-0.498
5.350,-1.226
5.355,-2.022
5.360,-1.897
5.365,-1.424
5.370,-0.895
5.375,-0.018
5.380,0.570
5.385,0.418
5.390,0.267
5.395,0.547
5.400,0.574
5.405,0.319
5.410,0.450
5.415,0.590
5.420,0.311
5.425,0.286
5.430,0.536
5.435,0.373
5.440,0.185
5.445,0.420
5.450,0.409
5.455,0.120
5.460,0.263
5.465,0.426
5.470,0.146
5.475,0.113
5.480,0.368
5.485,0.198
5.490,0.004
5.495,0.257
5.500,0.273
5.505,-0.001
5.510,0.124
5.515,0.283
5.520,0.032
5.525,-0.011
5.530,0.219
5.535,0.102
5.540,-0.022
5.545,0.211
5.550,0.180
5.555,-0.077
5.560,0.072
5.565,0.215
5.570,-0.033
5.575,-0.036
5.580,0.208
5.585,0.052
5.590,-0.129
5.595,0.100
5.600,0.085
5.605,-0.208
5.610,-0.062
5.615,0.115
5.620,-0.148
5.625,-0.152
5.630,0.115
5.635,-0.058
5.640,-0.221
5.645,0.059
5.650,0.048
5.655,-0.242
5.660,-0.087
5.665,0.080
5.670,-0.185
5.675,-0.184
5.680,0.080
5.685,-0.089
5.690,-0.258
5.695,0.000
5.700,0.021
5.705,-0.222
5.710,-0.076
5.715,0.071
5.720,-0.186
5.725,-0.181
5.730,0.086
5.735,-0.068
5.740,-0.251
5.745,-0.016
5.750,-0.010
5.755,-0.268
5.760,-0.120
5.765,0.045
5.770,-0.217
5.775,-0.236
5.780,0.031
5.785,-0.106
5.790,-0.279
5.795,-0.032
5.800,-0.001
5.805,-0.223
5.810,-0.039
5.815,0.145
5.820,-0.105
5.825,-0.109
5.830,0.175
5.835,0.061
5.840,-0.092
5.845,0.160
5.850,0.169
5.855,-0.096
5.860,0.050
5.865,0.201
5.870,-0.022
5.875,0.003
5.880,0.089
5.885,-0.533
5.890,-1.477
5.895,-1.947
5.900,-1.940
5.905,-1.733
5.910,-1.019
5.915,0.002
5.920,0.309
5.925,0.313
5.930,0.585
5.935,0.494
5.940,0.320
5.945,0.555
5.950,0.550
5.955,0.285
5.960,0.469
5.965,0.657
5.970,0.366
5.975,0.314
5.980,0.566
5.985,0.410
5.990,0.200
5.995,0.410
6.000,0.410
6.005,0.148
6.010,0.272
6.015,0.406
6.020,0.154
6.025,0.154
6.030,0.396
6.035,0.223
6.040,0.041
6.045,0.283
6.050,0.303
6.055,0.039
6.060,0.156
6.065,0.297
6.070,0.031
6.075,0.021
6.080,0.276
6.085,0.111
6.090,-0.063
6.095,0.201
6.100,0.221
6.105,-0.056
6.110,0.082
6.115,0.256
6.120,-0.008
6.125,-0.047
6.130,0.187
6.135,0.006
6.140,-0.183
6.145,0.068
6.150,0.075
6.155,-0.191
6.160,-0.054
6.165,0.092
6.170,-0.168
6.175,-0.165
6.180,0.101
6.185,-0.056
6.190,-0.218
6.195,0.043
6.200,0.046
6.205,-0.218
6.210,-0.062
6.215,0.110
6.220,-0.151
6.225,-0.166
6.230,0.085
6.235,-0.080
6.240,-0.246
6.245,0.000
6.250,-0.007
6.255,-0.265
6.260,-0.090
6.265,0.105
6.270,-0.139
6.275,-0.150
6.280,0.100
6.285,-0.067
6.290,-0.240
6.295,-0.001
6.300,-0.011
6.305,-0.274
6.310,-0.117
6.315,0.056
6.320,-0.186
6.325,-0.192
6.330,0.060
6.335,-0.097
6.340,-0.272
6.345,-0.020
6.350,-0.001
6.355,-0.226
6.360,-0.028
6.365,0.158
6.370,-0.079
6.375,-0.052
6.380,0.224
6.385,0.061
6.390,-0.104
6.395,0.156
6.400,0.172
6.405,-0.080
6.410,0.055
6.415,0.213
6.420,0.009
6.425,0.038
6.430,0.161
6.435,-0.425
6.440,-1.357
6.445,-1.866
6.450,-1.939
6.455,-1.777
6.460,-1.169
6.465,-0.192
6.470,0.257
6.475,0.332
6.480,0.582
6.485,0.495
6.490,0.345
6.495,0.605
6.500,0.603
6.505,0.326
6.510,0.464
6.515,0.613
6.520,0.350
6.525,0.331
6.530,0.567
6.535,0.395
6.540,0.216
6.545,0.452
6.550,0.444
6.555,0.180
6.560,0.324
6.565,0.477
6.570,0.205
6.575,0.167
6.580,0.401
6.585,0.226
6.590,0.048
6.595,0.304
6.600,0.309
6.605,0.045
6.610,0.180
6.615,0.317
6.620,0.052
6.625,0.046
6.630,0.301
6.635,0.142
6.640,-0.025
6.645,0.222
6.650,0.221
6.655,-0.045
6.660,0.098
6.665,0.261
6.670,-0.008
6.675,-0.046
6.680,0.190
6.685,0.018
6.690,-0.158
6.695,0.085
6.700,0.074
6.705,-0.189
6.710,-0.043
6.715,0.101
6.720,-0.163
6.725,-0.173
6.730,0.074
6.735,-0.090
6.740,-0.253
6.745,0.002
6.750,0.000
6.755,-0.254
6.760,-0.083
6.765,0.078
6.770,-0.194
6.775,-0.207
6.780,0.048
6.785,-0.114
6.790,-0.278
6.795,-0.011
6.800,0.005
6.805,-0.258
6.810,-0.105
6.815,0.063
6.820,-0.193
6.825,-0.201
6.830,0.060
6.835,-0.089
6.840,-0.250
6.845,0.004
6.850,0.008
6.855,-0.235
6.860,-0.076
6.865,0.048
6.870,-0.229
6.875,-0.231
6.880,0.006
6.885,-0.152
6.890,-0.289
6.895,-0.022
6.900,-0.016
6.905,-0.270
6.910,-0.117
6.915,0.033
6.920,-0.222
6.925,-0.193
6.930,0.103
6.935,-0.033
6.940,-0.176
6.945,0.099
6.950,0.129
6.955,-0.098
6.960,0.063
6.965,0.216
6.970,-0.041
6.975,-0.057
6.980,0.181
6.985,0.049
6.990,-0.038
6.995,0.230
7.000,0.079
7.005,-0.583
7.010,-1.156
7.015,-1.678
7.020,-1.966
7.025,-1.730
7.030,-1.146
7.035,-0.378
7.040,0.195
7.045,0.492
7.050,0.516
7.055,0.340
7.060,0.501
7.065,0.661
7.070,0.400
7.075,0.396
7.080,0.645
7.085,0.463
7.090,0.288
7.095,0.533
7.100,0.519
7.105,0.257
7.110,0.405
7.115,0.549
7.120,0.270
7.125,0.233
7.130,0.459
7.135,0.287
7.140,0.114
7.145,0.357
7.150,0.349
7.155,0.075
7.160,0.219
7.165,0.370
7.170,0.101
7.175,0.090
7.180,0.333
7.185,0.168
7.190,-0.002
7.195,0.239
7.200,0.239
7.205,-0.019
7.210,0.128
7.215,0.279
7.220,0.028
7.225,0.021
7.230,0.253
7.235,0.090
7.240,-0.068
7.245,0.160
7.250,0.128
7.255,-0.150
7.260,-0.017
7.265,0.122
7.270,-0.154
7.275,-0.179
7.280,0.059
7.285,-0.112
7.290,-0.275
7.295,-0.021
7.300,-0.022
7.305,-0.274
7.310,-0.118
7.315,0.027
7.320,-0.231
7.325,-0.216
7.330,0.048
7.335,-0.111
7.340,-0.268
7.345,-0.011
7.350,-0.011
7.355,-0.255
7.360,-0.098
7.365,0.047
7.370,-0.193
7.375,-0.178
7.380,0.076
7.385,-0.073
7.390,-0.222
7.395,0.035
7.400,0.037
7.405,-0.213
7.410,-0.049
7.415,0.118
7.420,-0.130
7.425,-0.131
7.430,0.121
7.435,-0.030
7.440,-0.186
7.445,0.055
7.450,0.030
7.455,-0.242
7.460,-0.092
7.465,0.057
7.470,-0.193
7.475,-0.170
7.480,0.101
7.485,-0.057
7.490,-0.217
7.495,0.034
7.500,0.023
7.505,-0.221
7.510,-0.023
7.515,0.167
7.520,-0.075
7.525,-0.057
7.530,0.229
7.535,0.094
7.540,-0.059
7.545,0.189
7.550,0.186
7.555,-0.060
7.560,0.100
7.565,0.252
7.570,0.012
7.575,0.045
7.580,0.244
7.585,-0.212
7.590,-0.983
7.595,-1.543
7.600,-1.883
7.605,-1.827
7.610,-1.307
7.615,-0.432
7.620,0.176
7.625,0.378
7.630,0.590
7.635,0.494
7.640,0.361
7.645,0.610
7.650,0.601
7.655,0.344
7.660,0.493
7.665,0.633
7.670,0.363
7.675,0.362
7.680,0.609
7.685,0.427
7.690,0.257
7.695,0.497
7.700,0.470
7.705,0.195
7.710,0.338
7.715,0.479
7.720,0.202
7.725,0.177
7.730,0.414
7.735,0.244
7.740,0.070
7.745,0.302
7.750,0.284
7.755,0.035
7.760,0.206
7.765,0.358
7.770,0.085
7.775,0.072
7.780,0.322
7.785,0.170
7.790,0.019
7.795,0.259
7.800,0.241
7.805,-0.014
7.810,0.135
7.815,0.275
7.820,0.001
7.825,-0.023
7.830,0.194
7.835,0.001
7.840,-0.179
7.845,0.034
7.850,-0.019
7.855,-0.300
7.860,-0.156
7.865,-0.011
7.870,-0.273
7.875,-0.283
7.880,-0.055
7.885,-0.225
7.890,-0.378
7.895,-0.121
7.900,-0.109
7.905,-0.348
7.910,-0.175
7.915,-0.006
7.920,-0.259
7.925,-0.254
7.930,0.001
7.935,-0.160
7.940,-0.298
7.945,-0.023
7.950,-0.022
7.955,-0.266
7.960,-0.092
7.965,0.068
7.970,-0.186
7.975,-0.169
7.980,0.102
7.985,-0.045
7.990,-0.190
7.995,0.061
8.000,0.049
8.005,-0.195
8.010,-0.026
8.015,0.127
8.020,-0.125
8.025,-0.113
8.030,0.149
8.035,-0.014
8.040,-0.187
8.045,0.030
8.050,-0.008
8.055,-0.257
8.060,-0.084
8.065,0.064
8.070,-0.184
8.075,-0.160
8.080,0.095
8.085,-0.071
8.090,-0.219
8.095,0.037
8.100,0.033
8.105,-0.188
8.110,0.014
8.115,0.178
8.120,-0.053
8.125,0.003
8.130,0.260
8.135,0.077
8.140,-0.066
8.145,0.199
8.150,0.193
8.155,-0.054
8.160,0.115
8.165,0.286
8.170,0.037
8.175,-0.072
8.180,-0.195
8.185,-1.050
8.190,-1.941
8.195,-1.995
8.200,-1.731
8.205,-1.221
8.210,-0.123
8.215,0.572
8.220,0.372
8.225,0.353
8.230,0.628
8.235,0.481
8.240,0.353
8.245,0.624
8.250,0.599
8.255,0.306
8.260,0.443
8.265,0.581
8.270,0.313
8.275,0.308
8.280,0.528
8.285,0.329
8.290,0.144
8.295,0.372
8.300,0.363
8.305,0.108
8.310,0.262
8.315,0.392
8.320,0.086
8.325,0.077
8.330,0.344
8.335,0.173
8.340,0.011
8.345,0.265
8.350,0.213
8.355,-0.085
8.360,0.100
8.365,0.281
8.370,0.042
8.375,0.072
8.380,0.317
8.385,0.124
8.390,-0.048
8.395,0.196
8.400,0.191
8.405,-0.029
8.410,0.146
8.415,0.265
8.420,-0.040
8.425,-0.075
8.430,0.120
8.435,-0.100
8.440,-0.257
8.445,0.023
8.450,0.005
8.455,-0.279
8.460,-0.127
8.465,0.002
8.470,-0.270
8.475,-0.237
8.480,0.020
8.485,-0.165
8.490,-0.332
8.495,-0.096
8.500,-0.097
8.505,-0.296
8.510,-0.085
8.515,0.078
8.520,-0.184
8.525,-0.172
8.530,0.084
8.535,-0.095
8.540,-0.255
8.545,0.004
8.550,0.000
8.555,-0.233
8.560,-0.051
8.565,0.112
8.570,-0.129
8.575,-0.105
8.580,0.152
8.585,-0.008
8.590,-0.156
8.595,0.095
8.600,0.089
8.605,-0.146
8.610,0.021
8.615,0.164
8.620,-0.098
8.625,-0.112
8.630,0.105
8.635,-0.079
8.640,-0.221
8.645,0.053
8.650,0.045
8.655,-0.205
8.660,-0.042
8.665,0.083
8.670,-0.192
8.675,-0.175
8.680,0.062
8.685,-0.128
8.690,-0.259
8.695,0.050
8.700,0.101
8.705,-0.098
8.710,0.094
8.715,0.263
8.720,0.012
8.725,0.008
8.730,0.248
8.735,0.075
8.740,-0.087
8.745,0.169
8.750,0.164
8.755,-0.077
8.760,0.093
8.765,0.122
8.770,-0.495
8.775,-1.139
8.780,-1.628
8.785,-1.929
8.790,-1.637
8.795,-0.764
8.800,0.049
8.805,0.255
8.810,0.419
8.815,0.604
8.820,0.374
8.825,0.388
8.830,0.645
8.835,0.448
8.840,0.280
8.845,0.546
8.850,0.531
8.855,0.267
8.860,0.423
8.865,0.559
8.870,0.279
8.875,0.266
8.880,0.496
8.885,0.304
8.890,0.153
8.895,0.417
8.900,0.386
8.905,0.117
8.910,0.269
8.915,0.385
8.920,0.104
8.925,0.112
8.930,0.362
8.935,0.195
8.940,0.054
8.945,0.323
8.950,0.312
8.955,0.054
8.960,0.229
8.965,0.368
8.970,0.082
8.975,0.090
8.980,0.346
8.985,0.181
8.990,0.039
8.995,0.269
9.000,0.190
9.005,-0.117
9.010,0.024
9.015,0.158
9.020,-0.115
9.025,-0.112
9.030,0.116
9.035,-0.102
9.040,-0.286
9.045,-0.045
9.050,-0.078
9.055,-0.333
9.060,-0.144
9.065,0.006
9.070,-0.278
9.075,-0.267
9.080,0.000
9.085,-0.167
9.090,-0.307
9.095,-0.031
9.100,-0.036
9.105,-0.285
9.110,-0.114
9.115,0.034
9.120,-0.216
9.125,-0.177
9.130,0.080
9.135,-0.102
9.140,-0.226
9.145,0.066
9.150,0.045
9.155,-0.209
9.160,-0.019
9.165,0.129
9.170,-0.139
9.175,-0.124
9.180,0.130
9.185,-0.035
9.190,-0.176
9.195,0.090
9.200,0.061
9.205,-0.200
9.210,-0.011
9.215,0.139
9.220,-0.152
9.225,-0.169
9.230,0.058
9.235,-0.135
9.240,-0.284
9.245,-0.017
9.250,-0.025
9.255,-0.264
9.260,-0.088
9.265,0.050
9.270,-0.218
9.275,-0.194
9.280,0.073
9.285,-0.071
9.290,-0.183
9.295,0.103
9.300,0.108
9.305,-0.127
9.310,0.081
9.315,0.259
9.320,-0.012
9.325,0.001
9.330,0.256
9.335,0.066
9.340,-0.069
9.345,0.219
9.350,0.198
9.355,-0.122
9.360,-0.218
9.365,-0.641
9.370,-1.648
9.375,-2.137
9.380,-1.820
9.385,-1.425
9.390,-0.650
9.395,0.378
9.400,0.515
9.405,0.215
9.410,0.432
9.415,0.594
9.420,0.335
9.425,0.379
9.430,0.637
9.435,0.439
9.440,0.284
9.445,0.543
9.450,0.490
9.455,0.192
9.460,0.343
9.465,0.479
9.470,0.195
9.475,0.195
9.480,0.432
9.485,0.231
9.490,0.078
9.495,0.338
9.500,0.294
9.505,0.011
9.510,0.161
9.515,0.292
9.520,0.037
9.525,0.080
9.530,0.334
9.535,0.127
9.540,-0.026
9.545,0.246
9.550,0.213
9.555,-0.039
9.560,0.161
9.565,0.314
9.570,0.044
9.575,0.067
9.580,0.312
9.585,0.100
9.590,-0.079
9.595,0.160
9.600,0.123
9.605,-0.134
9.610,0.015
9.615,0.120
9.620,-0.170
9.625,-0.187
9.630,0.019
9.635,-0.186
9.640,-0.344
9.645,-0.086
9.650,-0.099
9.655,-0.336
9.660,-0.159
9.665,-0.023
9.670,-0.285
9.675,-0.247
9.680,0.015
9.685,-0.165
9.690,-0.290
9.695,-0.005
9.700,-0.020
9.705,-0.248
9.710,-0.054
9.715,0.068
9.720,-0.207
9.725,-0.158
9.730,0.115
9.735,-0.058
9.740,-0.193
9.745,0.068
9.750,0.037
9.755,-0.207
9.760,-0.018
9.765,0.144
9.770,-0.099
9.775,-0.079
9.780,0.155
9.785,-0.030
9.790,-0.165
9.795,0.096
9.800,0.064
9.805,-0.171
9.810,0.012
9.815,0.111
9.820,-0.184
9.825,-0.146
9.830,0.113
9.835,-0.059
9.840,-0.190
9.845,0.059
9.850,0.016
9.855,-0.228
9.860,-0.029
9.865,0.120
9.870,-0.131
9.875,-0.076
9.880,0.192
9.885,0.034
9.890,-0.073
9.895,0.214
9.900,0.200
9.905,-0.052
9.910,0.120
9.915,0.253
9.920,-0.019
9.925,0.002
9.930,0.262
9.935,0.097
9.940,-0.108
9.945,-0.097
9.950,-0.609
9.955,-1.585
9.960,-2.012
9.965,-1.832
9.970,-1.393
9.975,-0.360
9.980,0.537
9.985,0.406
9.990,0.249
9.995,0.573
10.000,0.544
10.005,0.289
10.010,0.464
10.015,0.589
10.020,0.330
10.025,0.368
10.030,0.591
10.035,0.373
10.040,0.224
10.045,0.478
10.050,0.425
10.055,0.155
10.060,0.317
10.065,0.429
10.070,0.150
10.075,0.173
10.080,0.402
10.085,0.198
10.090,0.044
10.095,0.297
10.100,0.264
10.105,0.010
10.110,0.184
10.115,0.312
10.120,0.042
10.125,0.078
10.130,0.323
10.135,0.130
10.140,0.004
10.145,0.277
10.150,0.241
10.155,-0.006
10.160,0.173
10.165,0.289
10.170,0.003
10.175,0.017
10.180,0.240
10.185,0.026
10.190,-0.130
10.195,0.108
10.200,0.037
10.205,-0.235
10.210,-0.060
10.215,0.061
10.220,-0.225
10.225,-0.214
10.230,0.026
10.235,-0.163
10.240,-0.295
10.245,-0.013
10.250,-0.045
10.255,-0.293
10.260,-0.096
10.265,0.042
10.270,-0.220
10.275,-0.175
10.280,0.073
10.285,-0.108
10.290,-0.228
10.295,0.044
10.300,0.015
10.305,-0.226
10.310,-0.033
10.315,0.108
10.320,-0.160
10.325,-0.123
10.330,0.143
10.335,-0.040
10.340,-0.182
10.345,0.084
10.350,0.048
10.355,-0.191
10.360,0.007
10.365,0.127
10.370,-0.147
10.375,-0.106
10.380,0.148
10.385,-0.036
10.390,-0.180
10.395,0.062
10.400,0.015
10.405,-0.222
10.410,-0.050
10.415,0.050
10.420,-0.211
10.425,-0.160
10.430,0.085
10.435,-0.099
10.440,-0.237
10.445,0.019
10.450,-0.013
10.455,-0.258
10.460,-0.058
10.465,0.106
10.470,-0.133
10.475,-0.078
10.480,0.206
10.485,0.055
10.490,-0.076
10.495,0.172
10.500,0.137
10.505,-0.097
10.510,0.084
10.515,0.198
10.520,-0.058
10.525,-0.006
10.530,0.146
10.535,-0.347
10.540,-1.059
10.545,-1.563
10.550,-1.879
10.555,-1.742
10.560,-0.988
10.565,-0.048
10.570,0.262
10.575,0.324
10.580,0.565
10.585,0.398
10.590,0.266
10.595,0.559
10.600,0.526
10.605,0.282
10.610,0.469
10.615,0.579
10.620,0.288
10.625,0.311
10.630,0.542
10.635,0.336
10.640,0.192
10.645,0.447
10.650,0.388
10.655,0.127
10.660,0.313
10.665,0.415
10.670,0.131
10.675,0.174
10.680,0.407
10.685,0.203
10.690,0.072
10.695,0.335
10.700,0.285
10.705,0.040
10.710,0.241
10.715,0.363
10.720,0.100
10.725,0.153
10.730,0.393
10.735,0.201
10.740,0.071
10.745,0.331
10.750,0.297
10.755,0.052
10.760,0.217
10.765,0.314
10.770,0.020
10.775,0.038
10.780,0.252
10.785,0.011
10.790,-0.137
10.795,0.135
10.800,0.058
10.805,-0.218
10.810,-0.025
10.815,0.085
10.820,-0.203
10.825,-0.166
10.830,0.073
10.835,-0.114
10.840,-0.237
10.845,0.023
10.850,-0.020
10.855,-0.261
10.860,-0.071
10.865,0.064
10.870,-0.189
10.875,-0.143
10.880,0.096
10.885,-0.098
10.890,-0.216
10.895,0.059
10.900,0.028
10.905,-0.206
10.910,-0.019
10.915,0.111
10.920,-0.151
10.925,-0.119
10.930,0.122
10.935,-0.054
10.940,-0.161
10.945,0.102
10.950,0.056
10.955,-0.173
10.960,0.016
10.965,0.130
10.970,-0.143
10.975,-0.107
10.980,0.126
10.985,-0.084
10.990,-0.224
10.995,0.042
11.000,0.004
11.005,-0.236
11.010,-0.051
11.015,0.065
11.020,-0.213
11.025,-0.192
11.030,0.051
11.035,-0.129
11.040,-0.242
11.045,0.051
11.050,0.027
11.055,-0.191
11.060,0.033
11.065,0.179
11.070,-0.067
11.075,-0.011
11.080,0.221
11.085,0.007
11.090,-0.130
11.095,0.134
11.100,0.089
11.105,-0.139
11.110,0.091
11.115,0.174
11.120,-0.368
11.125,-0.906
11.130,-1.461
11.135,-2.061
11.140,-1.929
11.145,-1.129
11.150,-0.368
11.155,0.047
11.160,0.369
11.165,0.506
11.170,0.273
11.175,0.328
11.180,0.592
11.185,0.406
11.190,0.273
11.195,0.525
11.200,0.469
11.205,0.213
11.210,0.382
11.215,0.479
11.220,0.189
11.225,0.222
11.230,0.439
11.235,0.211
11.240,0.075
11.245,0.345
11.250,0.295
11.255,0.041
11.260,0.214
11.265,0.307
11.270,0.021
11.275,0.058
11.280,0.291
11.285,0.094
11.290,-0.033
11.295,0.228
11.300,0.193
11.305,-0.048
11.310,0.127
11.315,0.251
11.320,-0.011
11.325,0.033
11.330,0.280
11.335,0.088
11.340,-0.041
11.345,0.218
11.350,0.166
11.355,-0.086
11.360,0.081
11.365,0.176
11.370,-0.097
11.375,-0.060
11.380,0.142
11.385,-0.096
11.390,-0.234
11.395,0.028
11.400,-0.043
11.405,-0.293
11.410,-0.073
11.415,0.048
11.420,-0.235
11.425,-0.174
11.430,0.067
11.435,-0.150
11.440,-0.274
11.445,-0.004
11.450,-0.058
11.455,-0.286
11.460,-0.073
11.465,0.041
11.470,-0.222
11.475,-0.158
11.480,0.073
11.485,-0.133
11.490,-0.247
11.495,0.030
11.500,0.001
11.505,-0.222
11.510,-0.023
11.515,0.089
11.520,-0.182
11.525,-0.116
11.530,0.135
11.535,-0.067
11.540,-0.184
11.545,0.090
11.550,0.034
11.555,-0.227
11.560,-0.038
11.565,0.070
11.570,-0.219
11.575,-0.154
11.580,0.105
11.585,-0.113
11.590,-0.252
11.595,0.025
11.600,-0.025
11.605,-0.274
11.610,-0.073
11.615,0.057
11.620,-0.185
11.625,-0.097
11.630,0.174
11.635,0.002
11.640,-0.087
11.645,0.191
11.650,0.124
11.655,-0.112
11.660,0.098
11.665,0.194
11.670,-0.100
11.675,-0.039
11.680,0.241
11.685,0.083
11.690,-0.089
11.695,-0.082
11.700,-0.692
11.705,-1.726
11.710,-2.038
11.715,-1.689
11.720,-1.246
11.725,-0.366
11.730,0.457
11.735,0.370
11.740,0.244
11.745,0.554
11.750,0.499
11.755,0.251
11.760,0.457
11.765,0.571
11.770,0.277
11.775,0.313
11.780,0.545
11.785,0.339
11.790,0.215
11.795,0.458
11.800,0.383
11.805,0.148
11.810,0.333
11.815,0.405
11.820,0.112
11.825,0.154
11.830,0.373
11.835,0.166
11.840,0.052
11.845,0.307
11.850,0.238
11.855,-0.005
11.860,0.185
11.865,0.289
11.870,0.013
11.875,0.068
11.880,0.301
11.885,0.097
11.890,-0.002
11.895,0.273
11.900,0.220
11.905,-0.001
11.910,0.211
11.915,0.308
11.920,0.023
11.925,0.077
11.930,0.291
11.935,0.048
11.940,-0.093
11.945,0.166
11.950,0.088
11.955,-0.174
11.960,0.011
11.965,0.116
11.970,-0.139
11.975,-0.078
11.980,0.146
11.985,-0.064
11.990,-0.192
11.995,0.069
12.000,0.005
12.005,-0.248
12.010,-0.038
12.015,0.068
12.020,-0.221
12.025,-0.149
12.030,0.087
12.035,-0.126
12.040,-0.227
12.045,0.047
12.050,-0.015
12.055,-0.258
12.060,-0.062
12.065,0.052
12.070,-0.208
12.075,-0.135
12.080,0.116
12.085,-0.083
12.090,-0.188
12.095,0.099
12.100,0.048
12.105,-0.198
12.110,0.013
12.115,0.145
12.120,-0.139
12.125,-0.113
12.130,0.109
12.135,-0.101
12.140,-0.209
12.145,0.072
12.150,0.011
12.155,-0.227
12.160,-0.028
12.165,0.074
12.170,-0.210
12.175,-0.165
12.180,0.089
12.185,-0.093
12.190,-0.196
12.195,0.088
12.200,0.060
12.205,-0.135
12.210,0.090
12.215,0.212
12.220,-0.051
12.225,0.007
12.230,0.242
12.235,0.029
12.240,-0.089
12.245,0.183
12.250,0.128
12.255,-0.077
12.260,0.168
12.265,0.216
12.270,-0.333
12.275,-0.859
12.280,-1.418
12.285,-1.956
12.290,-1.768
12.295,-1.016
12.300,-0.280
12.305,0.160
12.310,0.455
12.315,0.549
12.320,0.299
12.325,0.350
12.330,0.608
12.335,0.409
12.340,0.282
12.345,0.532
12.350,0.447
12.355,0.191
12.360,0.394
12.365,0.506
12.370,0.218
12.375,0.257
12.380,0.472
12.385,0.236
12.390,0.102
12.395,0.372
12.400,0.293
12.405,0.021
12.410,0.220
12.415,0.331
12.420,0.038
12.425,0.079
12.430,0.310
12.435,0.094
12.440,-0.020
12.445,0.259
12.450,0.188
12.455,-0.049
12.460,0.171
12.465,0.266
12.470,-0.027
12.475,0.043
12.480,0.283
12.485,0.066
12.490,-0.038
12.495,0.233
12.500,0.162
12.505,-0.094
12.510,0.092
12.515,0.199
12.520,-0.086
12.525,-0.049
12.530,0.174
12.535,-0.035
12.540,-0.142
12.545,0.119
12.550,0.034
12.555,-0.212
12.560,0.000
12.565,0.102
12.570,-0.169
12.575,-0.088
12.580,0.146
12.585,-0.091
12.590,-0.204
12.595,0.080
12.600,0.004
12.605,-0.246
12.610,-0.046
12.615,0.054
12.620,-0.218
12.625,-0.150
12.630,0.082
12.635,-0.141
12.640,-0.252
12.645,0.032
12.650,-0.033
12.655,-0.271
12.660,-0.042
12.665,0.080
12.670,-0.193
12.675,-0.131
12.680,0.106
12.685,-0.090
12.690,-0.185
12.695,0.091
12.700,0.024
12.705,-0.226
12.710,-0.040
12.715,0.055
12.720,-0.221
12.725,-0.150
12.730,0.093
12.735,-0.125
12.740,-0.235
12.745,0.041
12.750,-0.027
12.755,-0.259
12.760,-0.044
12.765,0.082
12.770,-0.169
12.775,-0.091
12.780,0.172
12.785,-0.008
12.790,-0.086
12.795,0.211
12.800,0.152
12.805,-0.089
12.810,0.111
12.815,0.215
12.820,-0.058
12.825,0.010
12.830,0.272
12.835,0.113
12.840,-0.021
12.845,-0.021
12.850,-0.696
12.855,-1.746
12.860,-2.017
12.865,-1.727
12.870,-1.457
12.875,-0.605
12.880,0.388
12.885,0.414
12.890,0.290
12.895,0.589
12.900,0.531
12.905,0.312
12.910,0.541
12.915,0.632
12.920,0.334
12.925,0.388
12.930,0.606
12.935,0.370
12.940,0.257
12.945,0.516
12.950,0.407
12.955,0.147
12.960,0.351
12.965,0.431
12.970,0.132
12.975,0.182
12.980,0.397
12.985,0.165
12.990,0.038
12.995,0.296
13.000,0.221
13.005,-0.035
13.010,0.162
13.015,0.268
13.020,-0.020
13.025,0.034
13.030,0.264
13.035,0.040
13.040,-0.067
13.045,0.203
13.050,0.116
13.055,-0.123
13.060,0.104
13.065,0.207
13.070,-0.081
13.075,-0.010
13.080,0.222
13.085,-0.005
13.090,-0.111
13.095,0.161
13.100,0.084
13.105,-0.157
13.110,0.040
13.115,0.139
13.120,-0.121
13.125,-0.060
13.130,0.158
13.135,-0.055
13.140,-0.156
13.145,0.110
13.150,0.040
13.155,-0.181
13.160,0.030
13.165,0.117
13.170,-0.159
13.175,-0.083
13.180,0.138
13.185,-0.096
13.190,-0.204
13.195,0.075
13.200,0.001
13.205,-0.240
13.210,-0.036
13.215,0.057
13.220,-0.210
13.225,-0.135
13.230,0.086
13.235,-0.129
13.240,-0.219
13.245,0.063
13.250,-0.005
13.255,-0.232
13.260,-0.018
13.265,0.064
13.270,-0.224
13.275,-0.144
13.280,0.089
13.285,-0.131
13.290,-0.225
13.295,0.051
13.300,-0.028
13.305,-0.263
13.310,-0.054
13.315,0.031
13.320,-0.248
13.325,-0.159
13.330,0.095
13.335,-0.097
13.340,-0.173
13.345,0.126
13.350,0.069
13.355,-0.144
13.360,0.101
13.365,0.203
13.370,-0.081
13.375,0.006
13.380,0.230
13.385,-0.005
13.390,-0.090
13.395,0.198
13.400,0.148
13.405,-0.023
13.410,0.130
13.415,-0.172
13.420,-1.228
13.425,-1.990
13.430,-2.000
13.435,-1.814
13.440,-1.293
13.445,-0.221
13.450,0.334
13.455,0.247
13.460,0.475
13.465,0.605
13.470,0.335
13.475,0.432
13.480,0.676
13.485,0.450
13.490,0.344
13.495,0.597
13.500,0.481
13.505,0.229
13.510,0.440
13.515,0.511
13.520,0.201
13.525,0.264
13.530,0.483
13.535,0.243
13.540,0.131
13.545,0.384
13.550,0.287
13.555,0.045
13.560,0.239
13.565,0.320
13.570,0.036
13.575,0.096
13.580,0.311
13.585,0.082
13.590,-0.016
13.595,0.242
13.600,0.134
13.605,-0.099
13.610,0.116
13.615,0.186
13.620,-0.089
13.625,-0.001
13.630,0.218
13.635,-0.009
13.640,-0.102
13.645,0.173
13.650,0.093
13.655,-0.137
13.660,0.087
13.665,0.182
13.670,-0.095
13.675,-0.009
13.680,0.209
13.685,-0.029
13.690,-0.114
13.695,0.173
13.700,0.094
13.705,-0.119
13.710,0.104
13.715,0.171
13.720,-0.121
13.725,-0.041
13.730,0.195
13.735,-0.024
13.740,-0.129
13.745,0.135
13.750,0.054
13.755,-0.176
13.760,0.033
13.765,0.114
13.770,-0.167
13.775,-0.089
13.780,0.136
13.785,-0.089
13.790,-0.182
13.795,0.083
13.800,-0.019
13.805,-0.242
13.810,-0.008
13.815,0.079
13.820,-0.201
13.825,-0.121
13.830,0.087
13.835,-0.144
13.840,-0.213
13.845,0.066
13.850,-0.045
13.855,-0.288
13.860,-0.059
13.865,0.030
13.870,-0.252
13.875,-0.170
13.880,0.060
13.885,-0.159
13.890,-0.244
13.895,0.064
13.900,0.011
13.905,-0.195
13.910,0.064
13.915,0.166
13.920,-0.114
13.925,-0.029
13.930,0.198
13.935,-0.018
13.940,-0.098
13.945,0.188
13.950,0.106
13.955,-0.124
13.960,0.124
13.965,0.249
13.970,-0.118
13.975,-0.365
13.980,-0.796
13.985,-1.743
13.990,-2.071
13.995,-1.563
14.000,-1.082
14.005,-0.438
14.010,0.370
14.015,0.529
14.020,0.251
14.025,0.369
14.030,0.595
14.035,0.363
14.040,0.268
14.045,0.548
14.050,0.455
14.055,0.210
14.060,0.420
14.065,0.501
14.070,0.210
14.075,0.274
14.080,0.474
14.085,0.221
14.090,0.122
14.095,0.386
14.100,0.270
14.105,0.033
14.110,0.249
14.115,0.315
14.120,0.026
14.125,0.104
14.130,0.314
14.135,0.080
14.140,-0.018
14.145,0.234
14.150,0.135
14.155,-0.092
14.160,0.131
14.165,0.201
14.170,-0.107
14.175,-0.027
14.180,0.210
14.185,-0.013
14.190,-0.088
14.195,0.206
14.200,0.115
14.205,-0.136
14.210,0.070
14.215,0.144
14.220,-0.138
14.225,-0.039
14.230,0.181
14.235,-0.056
14.240,-0.132
14.245,0.154
14.250,0.058
14.255,-0.175
14.260,0.058
14.265,0.142
14.270,-0.139
14.275,-0.046
14.280,0.170
14.285,-0.051
14.290,-0.116
14.295,0.152
14.300,0.039
14.305,-0.195
14.310,0.026
14.315,0.092
14.320,-0.208
14.325,-0.126
14.330,0.098
14.335,-0.124
14.340,-0.194
14.345,0.088
14.350,-0.017
14.355,-0.256
14.360,-0.030
14.365,0.056
14.370,-0.218
14.375,-0.116
14.380,0.110
14.385,-0.137
14.390,-0.229
14.395,0.059
14.400,-0.033
14.405,-0.265
14.410,-0.043
14.415,0.042
14.420,-0.224
14.425,-0.137
14.430,0.067
14.435,-0.166
14.440,-0.230
14.445,0.065
14.450,-0.024
14.455,-0.230
14.460,0.029
14.465,0.127
14.470,-0.125
14.475,0.008
14.480,0.254
14.485,0.028
14.490,-0.050
14.495,0.208
14.500,0.078
14.505,-0.147
14.510,0.101
14.515,0.193
14.520,-0.044
14.525,0.096
14.530,0.190
14.535,-0.460
14.540,-1.269
14.545,-1.760
14.550,-1.944
14.555,-1.689
14.560,-0.880
14.565,0.038
14.570,0.298
14.575,0.382
14.580,0.591
14.585,0.390
14.590,0.331
14.595,0.635
14.600,0.524
14.605,0.274
14.610,0.493
14.615,0.555
14.620,0.257
14.625,0.345
14.630,0.542
14.635,0.282
14.640,0.192
14.645,0.453
14.650,0.336
14.655,0.104
14.660,0.316
14.665,0.374
14.670,0.083
14.675,0.161
14.680,0.365
14.685,0.115
14.690,0.024
14.695,0.297
14.700,0.180
14.705,-0.055
14.710,0.172
14.715,0.222
14.720,-0.075
14.725,0.025
14.730,0.235
14.735,-0.009
14.740,-0.073
14.745,0.212
14.750,0.095
14.755,-0.138
14.760,0.101
14.765,0.172
14.770,-0.116
14.775,-0.015
14.780,0.200
14.785,-0.037
14.790,-0.109
14.795,0.168
14.800,0.067
14.805,-0.148
14.810,0.084
14.815,0.147
14.820,-0.131
14.825,-0.019
14.830,0.200
14.835,-0.043
14.840,-0.118
14.845,0.167
14.850,0.063
14.855,-0.166
14.860,0.059
14.865,0.121
14.870,-0.168
14.875,-0.071
14.880,0.138
14.885,-0.111
14.890,-0.190
14.895,0.077
14.900,-0.029
14.905,-0.234
14.910,0.006
14.915,0.063
14.920,-0.231
14.925,-0.132
14.930,0.090
14.935,-0.140
14.940,-0.204
14.945,0.075
14.950,-0.041
14.955,-0.264
14.960,-0.021
14.965,0.044
14.970,-0.245
14.975,-0.143
14.980,0.068
14.985,-0.170
14.990,-0.236
14.995,0.034
15.000,-0.078
15.005,-0.275
15.010,-0.014
15.015,0.070
15.020,-0.183
15.025,-0.046
15.030,0.185
15.035,-0.031
15.040,-0.074
15.045,0.213
15.050,0.114
15.055,-0.096
15.060,0.135
15.065,0.194
15.070,-0.093
15.075,0.009
15.080,0.262
15.085,0.094
15.090,-0.036
15.095,-0.123
15.100,-0.947
15.105,-1.932
15.110,-2.039
15.115,-1.806
15.120,-1.506
15.125,-0.507
15.130,0.441
15.135,0.402
15.140,0.322
15.145,0.630
15.150,0.539
15.155,0.332
15.160,0.568
15.165,0.626
15.170,0.336
15.175,0.426
15.180,0.620
15.185,0.361
15.190,0.271
15.195,0.518
15.200,0.387
15.205,0.163
15.210,0.385
15.215,0.428
15.220,0.129
15.225,0.216
15.230,0.410
15.235,0.159
15.240,0.077
15.245,0.320
15.250,0.185
15.255,-0.034
15.260,0.198
15.265,0.245
15.270,-0.049
15.275,0.044
15.280,0.234
15.285,-0.021
15.290,-0.091
15.295,0.185
15.300,0.076
15.305,-0.136
15.310,0.091
15.315,0.146
15.320,-0.132
15.325,-0.032
15.330,0.174
15.335,-0.067
15.340,-0.134
15.345,0.154
15.350,0.051
15.355,-0.161
15.360,0.078
15.365,0.143
15.370,-0.131
15.375,-0.017
15.380,0.196
15.385,-0.048
15.390,-0.110
15.395,0.172
15.400,0.057
15.405,-0.162
15.410,0.074
15.415,0.130
15.420,-0.161
15.425,-0.051
15.430,0.164
15.435,-0.083
15.440,-0.146
15.445,0.125
15.450,-0.001
15.455,-0.214
15.460,0.028
15.465,0.085
15.470,-0.201
15.475,-0.093
15.480,0.120
15.485,-0.122
15.490,-0.188
15.495,0.094
15.500,-0.002
15.505,-0.212
15.510,0.018
15.515,0.076
15.520,-0.207
15.525,-0.110
15.530,0.081
15.535,-0.160
15.540,-0.209
15.545,0.066
15.550,-0.047
15.555,-0.256
15.560,-0.025
15.565,0.033
15.570,-0.246
15.575,-0.137
15.580,0.081
15.585,-0.142
15.590,-0.179
15.595,0.119
15.600,0.017
15.605,-0.179
15.610,0.091
15.615,0.177
15.620,-0.096
15.625,0.011
15.630,0.223
15.635,-0.011
15.640,-0.082
15.645,0.184
15.650,0.079
15.655,-0.088
15.660,0.223
15.665,0.219
15.670,-0.460
15.675,-1.146
15.680,-1.720
15.685,-2.026
15.690,-1.793
15.695,-1.201
15.700,-0.452
15.705,0.102
15.710,0.461
15.715,0.539
15.720,0.317
15.725,0.445
15.730,0.661
15.735,0.412
15.740,0.349
15.745,0.619
15.750,0.485
15.755,0.261
15.760,0.483
15.765,0.521
15.770,0.229
15.775,0.317
15.780,0.498
15.785,0.238
15.790,0.161
15.795,0.424
15.800,0.298
15.805,0.071
15.810,0.285
15.815,0.322
15.820,0.038
15.825,0.137
15.830,0.317
15.835,0.062
15.840,0.002
15.845,0.256
15.850,0.110
15.855,-0.101
15.860,0.137
15.865,0.174
15.870,-0.115
15.875,-0.002
15.880,0.202
15.885,-0.051
15.890,-0.113
15.895,0.166
15.900,0.038
15.905,-0.170
15.910,0.085
15.915,0.142
15.920,-0.130
15.925,-0.005
15.930,0.200
15.935,-0.050
15.940,-0.110
15.945,0.174
15.950,0.065
15.955,-0.146
15.960,0.094
15.965,0.156
15.970,-0.118
15.975,-0.017
15.980,0.183
15.985,-0.048
15.990,-0.104
15.995,0.164
16.000,0.045
16.005,-0.166
16.010,0.064
16.015,0.107
16.020,-0.175
16.025,-0.061
16.030,0.142
16.035,-0.102
16.040,-0.160
16.045,0.115
16.050,0.006
16.055,-0.200
16.060,0.029
16.065,0.081
16.070,-0.187
16.075,-0.074
16.080,0.123
16.085,-0.118
16.090,-0.173
16.095,0.095
16.100,-0.042
16.105,-0.254
16.110,0.005
16.115,0.054
16.120,-0.236
16.125,-0.116
16.130,0.085
16.135,-0.165
16.140,-0.233
16.145,0.028
16.150,-0.082
16.155,-0.269
16.160,-0.010
16.165,0.064
16.170,-0.183
16.175,-0.032
16.180,0.187
16.185,-0.057
16.190,-0.106
16.195,0.178
16.200,0.069
16.205,-0.124
16.210,0.122
16.215,0.163
16.220,-0.124
16.225,-0.005
16.230,0.238
16.235,0.038
16.240,-0.113
16.245,-0.223
16.250,-1.066
16.255,-1.992
16.260,-1.950
16.265,-1.580
16.270,-1.182
16.275,-0.197
16.280,0.517
16.285,0.312
16.290,0.268
16.295,0.573
16.300,0.447
16.305,0.270
16.310,0.530
16.315,0.567
16.320,0.275
16.325,0.379
16.330,0.554
16.335,0.284
16.340,0.224
16.345,0.496
16.350,0.348
16.355,0.112
16.360,0.343
16.365,0.386
16.370,0.103
16.375,0.212
16.380,0.390
16.385,0.124
16.390,0.055
16.395,0.300
16.400,0.147
16.405,-0.069
16.410,0.175
16.415,0.223
16.420,-0.055
16.425,0.057
16.430,0.245
16.435,-0.014
16.440,-0.077
16.445,0.196
16.450,0.071
16.455,-0.138
16.460,0.089
16.465,0.113
16.470,-0.158
16.475,-0.016
16.480,0.181
16.485,-0.074
16.490,-0.115
16.495,0.171
16.500,0.038
16.505,-0.168
16.510,0.101
16.515,0.153
16.520,-0.150
16.525,-0.022
16.530,0.200
16.535,-0.060
16.540,-0.121
16.545,0.170
16.550,0.072
16.555,-0.122
16.560,0.104
16.565,0.137
16.570,-0.147
16.575,-0.030
16.580,0.169
16.585,-0.088
16.590,-0.153
16.595,0.109
16.600,-0.023
16.605,-0.224
16.610,0.022
16.615,0.055
16.620,-0.225
16.625,-0.085
16.630,0.114
16.635,-0.155
16.640,-0.207
16.645,0.086
16.650,-0.039
16.655,-0.251
16.660,0.004
16.665,0.055
16.670,-0.227
16.675,-0.103
16.680,0.092
16.685,-0.170
16.690,-0.220
16.695,0.071
16.700,-0.036
16.705,-0.241
16.710,-0.029
16.715,-0.009
16.720,-0.262
16.725,-0.112
16.730,0.070
16.735,-0.168
16.740,-0.160
16.745,0.146
16.750,0.035
16.755,-0.135
16.760,0.133
16.765,0.179
16.770,-0.097
16.775,0.024
16.780,0.213
16.785,-0.052
16.790,-0.090
16.795,0.219
16.800,0.120
16.805,-0.034
16.810,0.155
16.815,-0.131
16.820,-1.029
16.825,-1.718
16.830,-1.924
16.835,-1.824
16.840,-1.251
16.845,-0.200
16.850,0.335
16.855,0.252
16.860,0.468
16.865,0.541
16.870,0.270
16.875,0.428
16.880,0.628
16.885,0.358
16.890,0.296
16.895,0.552
16.900,0.408
16.905,0.194
16.910,0.421
16.915,0.438
16.920,0.151
16.925,0.266
16.930,0.450
16.935,0.198
16.940,0.141
16.945,0.393
16.950,0.235
16.955,0.016
16.960,0.268
16.965,0.307
16.970,0.006
16.975,0.110
16.980,0.298
16.985,0.031
16.990,-0.024
16.995,0.246
17.000,0.100
17.005,-0.098
17.010,0.154
17.015,0.191
17.020,-0.076
17.025,0.038
17.030,0.200
17.035,-0.054
17.040,-0.079
17.045,0.207
17.050,0.064
17.055,-0.142
17.060,0.112
17.065,0.147
17.070,-0.131
17.075,0.005
17.080,0.194
17.085,-0.058
17.090,-0.090
17.095,0.182
17.100,0.043
17.105,-0.143
17.110,0.115
17.115,0.152
17.120,-0.115
17.125,0.014
17.130,0.198
17.135,-0.052
17.140,-0.097
17.145,0.155
17.150,0.002
17.155,-0.192
17.160,0.061
17.165,0.089
17.170,-0.185
17.175,-0.054
17.180,0.114
17.185,-0.152
17.190,-0.179
17.195,0.102
17.200,-0.035
17.205,-0.228
17.210,0.031
17.215,0.053
17.220,-0.222
17.225,-0.069
17.230,0.118
17.235,-0.138
17.240,-0.178
17.245,0.079
17.250,-0.047
17.255,-0.215
17.260,0.027
17.265,0.038
17.270,-0.232
17.275,-0.099
17.280,0.070
17.285,-0.197
17.290,-0.218
17.295,0.076
17.300,-0.056
17.305,-0.233
17.310,0.038
17.315,0.095
17.320,-0.135
17.325,0.034
17.330,0.226
17.335,-0.028
17.340,-0.049
17.345,0.223
17.350,0.084
17.355,-0.084
17.360,0.171
17.365,0.184
17.370,-0.073
17.375,0.111
17.380,0.264
17.385,-0.233
17.390,-0.798
17.395,-1.328
17.400,-1.891
17.405,-1.884
17.410,-1.329
17.415,-0.601
17.420,0.022
17.425,0.447
17.430,0.590
17.435,0.347
17.440,0.319
17.445,0.574
17.450,0.441
17.455,0.286
17.460,0.552
17.465,0.555
17.470,0.265
17.475,0.392
17.480,0.556
17.485,0.285
17.490,0.241
17.495,0.486
17.500,0.319
17.505,0.126
17.510,0.372
17.515,0.356
17.520,0.045
17.525,0.174
17.530,0.348
17.535,0.088
17.540,0.058
17.545,0.296
17.550,0.115
17.555,-0.083
17.560,0.172
17.565,0.194
17.570,-0.087
17.575,0.036
17.580,0.193
17.585,-0.073
17.590,-0.079
17.595,0.198
17.600,0.022
17.605,-0.192
17.610,0.046
17.615,0.069
17.620,-0.157
17.625,0.033
17.630,0.214
17.635,-0.052
17.640,-0.078
17.645,0.178
17.650,0.027
17.655,-0.147
17.660,0.126
17.665,0.157
17.670,-0.123
17.675,0.009
17.680,0.176
17.685,-0.074
17.690,-0.065
17.695,0.225
17.700,0.071
17.705,-0.134
17.710,0.105
17.715,0.116
17.720,-0.167
17.725,-0.013
17.730,0.170
17.735,-0.137
17.740,-0.206
17.745,0.065
17.750,-0.047
17.755,-0.185
17.760,0.080
17.765,0.067
17.770,-0.220
17.775,-0.053
17.780,0.137
17.785,-0.129
17.790,-0.158
17.795,0.097
17.800,-0.064
17.805,-0.232
17.810,0.039
17.815,0.044
17.820,-0.256
17.825,-0.115
17.830,0.084
17.835,-0.174
17.840,-0.201
17.845,0.061
17.850,-0.126
17.855,-0.321
17.860,-0.045
17.865,-0.027
17.870,-0.313
17.875,-0.164
17.880,0.082
17.885,-0.077
17.890,-0.052
17.895,0.238
17.900,0.099
17.905,-0.109
17.910,0.132
17.915,0.158
17.920,-0.106
17.925,0.051
17.930,0.223
17.935,-0.061
17.940,-0.071
17.945,0.225
17.950,0.107
17.955,-0.101
17.960,-0.163
17.965,-0.861
17.970,-1.868
17.975,-2.065
17.980,-1.833
17.985,-1.596
17.990,-0.704
17.995,0.328
18.000,0.356
18.005,0.132
18.010,0.468
18.015,0.577
18.020,0.345
18.025,0.508
18.030,0.651
18.035,0.312
18.040,0.266
18.045,0.561
18.050,0.437
18.055,0.283
18.060,0.519
18.065,0.485
18.070,0.190
18.075,0.335
18.080,0.482
18.085,0.183
18.090,0.146
18.095,0.376
18.100,0.200
18.105,0.030
18.110,0.284
18.115,0.257
18.120,-0.066
18.125,0.074
18.130,0.256
18.135,0.009
18.140,0.026
18.145,0.291
18.150,0.105
18.155,-0.103
18.160,0.101
18.165,0.084
18.170,-0.161
18.175,0.006
18.180,0.175
18.185,-0.091
18.190,-0.137
18.195,0.080
18.200,-0.077
18.205,-0.194
18.210,0.143
18.215,0.195
18.220,-0.076
18.225,0.091
18.230,0.240
18.235,-0.069
18.240,-0.062
18.245,0.215
18.250,0.058
18.255,-0.093
18.260,0.157
18.265,0.145
18.270,-0.118
18.275,0.033
18.280,0.182
18.285,-0.076
18.290,-0.069
18.295,0.194
18.300,0.017
18.305,-0.168
18.310,0.120
18.315,0.121
18.320,-0.209
18.325,-0.052
18.330,0.168
18.335,-0.081
18.340,-0.117
18.345,0.112
18.350,-0.069
18.355,-0.242
18.360,0.068
18.365,0.131
18.370,-0.140
18.375,-0.014
18.380,0.133
18.385,-0.134
18.390,-0.126
18.395,0.142
18.400,-0.046
18.405,-0.244
18.410,0.009
18.415,0.016
18.420,-0.236
18.425,-0.066
18.430,0.099
18.435,-0.169
18.440,-0.181
18.445,0.067
18.450,-0.113
18.455,-0.272
18.460,0.034
18.465,0.070
18.470,-0.210
18.475,-0.058
18.480,0.158
18.485,-0.055
18.490,-0.035
18.495,0.239
18.500,0.064
18.505,-0.104
18.510,0.172
18.515,0.151
18.520,-0.126
18.525,0.089
18.530,0.318
18.535,0.034
18.540,-0.225
18.545,-0.568
18.550,-1.499
18.555,-2.089
18.560,-1.846
18.565,-1.557
18.570,-0.991
18.575,0.054
18.580,0.552
18.585,0.324
18.590,0.370
18.595,0.676
18.600,0.517
18.605,0.350
18.610,0.609
18.615,0.580
18.620,0.283
18.625,0.435
18.630,0.576
18.635,0.287
18.640,0.275
18.645,0.523
18.650,0.338
18.655,0.157
18.660,0.403
18.665,0.379
18.670,0.091
18.675,0.244
18.680,0.391
18.685,0.101
18.690,0.088
18.695,0.335
18.700,0.149
18.705,-0.015
18.710,0.238
18.715,0.202
18.720,-0.088
18.725,0.060
18.730,0.213
18.735,-0.061
18.740,-0.076
18.745,0.179
18.750,0.013
18.755,-0.148
18.760,0.111
18.765,0.083
18.770,-0.195
18.775,-0.006
18.780,0.178
18.785,-0.092
18.790,-0.098
18.795,0.168
18.800,0.014
18.805,-0.132
18.810,0.140
18.815,0.136
18.820,-0.126
18.825,0.043
18.830,0.204
18.835,-0.063
18.840,-0.056
18.845,0.212
18.850,0.035
18.855,-0.138
18.860,0.123
18.865,0.107
18.870,-0.156
18.875,0.023
18.880,0.171
18.885,-0.111
18.890,-0.100
18.895,0.167
18.900,-0.006
18.905,-0.165
18.910,0.095
18.915,0.080
18.920,-0.191
18.925,-0.030
18.930,0.126
18.935,-0.146
18.940,-0.136
18.945,0.141
18.950,-0.034
18.955,-0.193
18.960,0.088
18.965,0.077
18.970,-0.184
18.975,-0.001
18.980,0.161
18.985,-0.117
18.990,-0.129
18.995,0.112
19.000,-0.072
19.005,-0.227
19.010,0.031
19.015,0.010
19.020,-0.239
19.025,-0.062
19.030,0.069
19.035,-0.222
19.040,-0.200
19.045,0.085
19.050,-0.083
19.055,-0.225
19.060,0.078
19.065,0.085
19.070,-0.183
19.075,0.005
19.080,0.194
19.085,-0.067
19.090,-0.064
19.095,0.195
19.100,0.018
19.105,-0.143
19.110,0.125
19.115,0.107
19.120,-0.137
19.125,0.101
19.130,0.244
19.135,-0.284
19.140,-0.864
19.145,-1.431
19.150,-2.003
19.155,-1.927
19.160,-1.273
19.165,-0.526
19.170,0.004
19.175,0.375
19.180,0.518
19.185,0.279
19.190,0.315
19.195,0.609
19.200,0.427
19.205,0.250
19.210,0.505
19.215,0.463
19.220,0.185
19.225,0.370
19.230,0.514
19.235,0.209
19.240,0.211
19.245,0.464
19.250,0.267
19.255,0.110
19.260,0.369
19.265,0.322
19.270,0.042
19.275,0.210
19.280,0.335
19.285,0.035
19.290,0.042
19.295,0.307
19.300,0.111
19.305,-0.062
19.310,0.195
19.315,0.147
19.320,-0.133
19.325,0.049
19.330,0.204
19.335,-0.071
19.340,-0.066
19.345,0.188
19.350,-0.001
19.355,-0.178
19.360,0.090
19.365,0.092
19.370,-0.170
19.375,0.004
19.380,0.163
19.385,-0.102
19.390,-0.069
19.395,0.199
19.400,0.019
19.405,-0.123
19.410,0.146
19.415,0.128
19.420,-0.117
19.425,0.072
19.430,0.221
19.435,-0.056
19.440,-0.043
19.445,0.217
19.450,0.032
19.455,-0.123
19.460,0.145
19.465,0.111
19.470,-0.157
19.475,0.019
19.480,0.166
19.485,-0.111
19.490,-0.107
19.495,0.136
19.500,-0.060
19.505,-0.218
19.510,0.040
19.515,0.016
19.520,-0.233
19.525,-0.046
19.530,0.098
19.535,-0.180
19.540,-0.157
19.545,0.098
19.550,-0.102
19.555,-0.248
19.560,0.040
19.565,0.028
19.570,-0.221
19.575,-0.039
19.580,0.090
19.585,-0.209
19.590,-0.198
19.595,0.073
19.600,-0.103
19.605,-0.247
19.610,0.031
19.615,-0.005
19.620,-0.281
19.625,-0.105
19.630,0.043
19.635,-0.220
19.640,-0.192
19.645,0.070
19.650,-0.098
19.655,-0.212
19.660,0.097
19.665,0.094
19.670,-0.145
19.675,0.055
19.680,0.201
19.685,-0.074
19.690,-0.054
19.695,0.198
19.700,0.005
19.705,-0.145
19.710,0.151
19.715,0.173
19.720,-0.065
19.725,-0.004
19.730,-0.228
19.735,-1.171
19.740,-1.936
19.745,-1.957
19.750,-1.727
19.755,-1.147
19.760,-0.009
19.765,0.498
19.770,0.247
19.775,0.400
19.780,0.559
19.785,0.286
19.790,0.342
19.795,0.593
19.800,0.380
19.805,0.238
19.810,0.513
19.815,0.463
19.820,0.188
19.825,0.361
19.830,0.478
19.835,0.197
19.840,0.223
19.845,0.448
19.850,0.233
19.855,0.081
19.860,0.333
19.865,0.281
19.870,0.020
19.875,0.195
19.880,0.301
19.885,0.011
19.890,0.051
19.895,0.300
19.900,0.082
19.905,-0.073
19.910,0.199
19.915,0.158
19.920,-0.108
19.925,0.071
19.930,0.200
19.935,-0.070
19.940,-0.037
19.945,0.206
19.950,0.012
19.955,-0.118
19.960,0.157
19.965,0.120
19.970,-0.132
19.975,0.057
19.980,0.192
19.985,-0.081
19.990,-0.051
19.995,0.200
20.000,0.011
20.005,-0.114
20.010,0.174
20.015,0.149
20.020,-0.096
20.025,0.091
20.030,0.210
20.035,-0.065
20.040,-0.025
20.045,0.226
20.050,0.034
20.055,-0.112
20.060,0.143
20.065,0.097
20.070,-0.163
20.075,0.019
20.080,0.148
20.085,-0.129
20.090,-0.097
20.095,0.151
20.100,-0.051
20.105,-0.196
20.110,0.067
20.115,0.029
20.120,-0.212
20.125,-0.016
20.130,0.115
20.135,-0.163
20.140,-0.126
20.145,0.130
20.150,-0.062
20.155,-0.189
20.160,0.093
20.165,0.059
20.170,-0.184
20.175,0.017
20.180,0.137
20.185,-0.155
20.190,-0.130
20.195,0.108
20.200,-0.096
20.205,-0.230
20.210,0.047
20.215,0.016
20.220,-0.226
20.225,-0.039
20.230,0.073
20.235,-0.210
20.240,-0.164
20.245,0.092
20.250,-0.093
20.255,-0.194
20.260,0.111
20.265,0.087
20.270,-0.142
20.275,0.082
20.280,0.227
20.285,-0.052
20.290,-0.016
20.295,0.235
20.300,0.038
20.305,-0.086
20.310,0.190
20.315,0.141
20.320,-0.070
20.325,0.177
20.330,0.200
20.335,-0.439
20.340,-1.048
20.345,-1.562
20.350,-1.956
20.355,-1.779
20.360,-1.134
20.365,-0.333
20.370,0.192
20.375,0.478
20.380,0.574
20.385,0.332
20.390,0.388
20.395,0.656
20.400,0.449
20.405,0.310
20.410,0.574
20.415,0.511
20.420,0.251
20.425,0.435
20.430,0.533
20.435,0.234
20.440,0.262
20.445,0.485
20.450,0.265
20.455,0.124
20.460,0.375
20.465,0.303
20.470,0.039
20.475,0.228
20.480,0.346
20.485,0.066
20.490,0.094
20.495,0.309
20.500,0.083
20.505,-0.061
20.510,0.196
20.515,0.134
20.520,-0.112
20.525,0.084
20.530,0.182
20.535,-0.111
20.540,-0.070
20.545,0.174
20.550,-0.032
20.555,-0.165
20.560,0.109
20.565,0.060
20.570,-0.189
20.575,0.020
20.580,0.148
20.585,-0.125
20.590,-0.064
20.595,0.191
20.600,-0.012
20.605,-0.131
20.610,0.160
20.615,0.114
20.620,-0.139
20.625,0.072
20.630,0.205
20.635,-0.076
20.640,-0.029
20.645,0.216
20.650,0.011
20.655,-0.107
20.660,0.167
20.665,0.099
20.670,-0.153
20.675,0.058
20.680,0.169
20.685,-0.127
20.690,-0.075
20.695,0.163
20.700,-0.059
20.705,-0.176
20.710,0.098
20.715,0.031
20.720,-0.209
20.725,-0.007
20.730,0.099
20.735,-0.172
20.740,-0.116
20.745,0.119
20.750,-0.081
20.755,-0.193
20.760,0.085
20.765,0.034
20.770,-0.205
20.775,0.001
20.780,0.116
20.785,-0.159
20.790,-0.113
20.795,0.109
20.800,-0.103
20.805,-0.217
20.810,0.049
20.815,-0.009
20.820,-0.244
20.825,-0.045
20.830,0.060
20.835,-0.219
20.840,-0.162
20.845,0.086
20.850,-0.107
20.855,-0.200
20.860,0.104
20.865,0.061
20.870,-0.171
20.875,0.060
20.880,0.197
20.885,-0.067
20.890,-0.001
20.895,0.233
20.900,0.010
20.905,-0.108
20.910,0.169
20.915,0.110
20.920,-0.126
20.925,0.125
20.930,0.266
20.935,-0.198
20.940,-0.651
20.945,-1.214
20.950,-1.951
20.955,-2.011
20.960,-1.502
20.965,-0.917
20.970,-0.230
20.975,0.415
20.980,0.557
20.985,0.288
20.990,0.370
20.995,0.627
21.000,0.433
21.005,0.316
21.010,0.571
21.015,0.499
21.020,0.245
21.025,0.425
21.030,0.520
21.035,0.225
21.040,0.266
21.045,0.494
21.050,0.259
21.055,0.131
21.060,0.396
21.065,0.298
21.070,0.036
21.075,0.235
21.080,0.322
21.085,0.024
21.090,0.082
21.095,0.310
21.100,0.067
21.105,-0.061
21.110,0.213
21.115,0.124
21.120,-0.134
21.125,0.085
21.130,0.185
21.135,-0.121
21.140,-0.064
21.145,0.161
21.150,-0.069
21.155,-0.167
21.160,0.113
21.165,0.033
21.170,-0.212
21.175,-0.011
21.180,0.091
21.185,-0.170
21.190,-0.075
21.195,0.185
21.200,-0.019
21.205,-0.099
21.210,0.201
21.215,0.118
21.220,-0.126
21.225,0.112
21.230,0.226
21.235,-0.087
21.240,-0.039
21.245,0.210
21.250,-0.002
21.255,-0.090
21.260,0.197
21.265,0.086
21.270,-0.175
21.275,0.042
21.280,0.132
21.285,-0.146
21.290,-0.079
21.295,0.125
21.300,-0.086
21.305,-0.143
21.310,0.150
21.315,0.065
21.320,-0.173
21.325,0.027
21.330,0.116
21.335,-0.163
21.340,-0.117
21.345,0.113
21.350,-0.094
21.355,-0.215
21.360,0.081
21.365,0.045
21.370,-0.218
21.375,-0.032
21.380,0.061
21.385,-0.244
21.390,-0.152
21.395,0.126
21.400,-0.103
21.405,-0.187
21.410,0.112
21.415,-0.003
21.420,-0.238
21.425,-0.012
21.430,0.051
21.435,-0.256
21.440,-0.186
21.445,0.041
21.450,-0.194
21.455,-0.267
21.460,0.038
21.465,-0.041
21.470,-0.262
21.475,-0.021
21.480,0.102
21.485,-0.147
21.490,-0.046
21.495,0.190
21.500,-0.039
21.505,-0.130
21.510,0.177
21.515,0.117
21.520,-0.151
21.525,0.047
21.530,0.173
21.535,-0.092
21.540,-0.012
21.545,0.235
21.550,0.051
21.555,-0.044
21.560,0.014
21.565,-0.650
21.570,-1.717
21.575,-2.068
21.580,-1.870
21.585,-1.662
21.590,-0.878
21.595,0.193
21.600,0.392
21.605,0.316
21.610,0.599
21.615,0.537
21.620,0.294
21.625,0.501
21.630,0.632
21.635,0.377
21.640,0.399
21.645,0.568
21.650,0.325
21.655,0.250
21.660,0.549
21.665,0.440
21.670,0.175
21.675,0.379
21.680,0.433
21.685,0.138
21.690,0.250
21.695,0.479
21.700,0.214
21.705,0.070
21.710,0.333
21.715,0.253
21.720,-0.025
21.725,0.175
21.730,0.287
21.735,-0.015
21.740,0.021
21.745,0.216
21.750,-0.024
21.755,-0.088
21.760,0.205
21.765,0.074
21.770,-0.191
21.775,0.063
21.780,0.188
21.785,-0.139
21.790,-0.113
21.795,0.159
21.800,-0.020
21.805,-0.114
21.810,0.162
21.815,0.053
21.820,-0.176
21.825,0.112
21.830,0.246
21.835,-0.043
21.840,0.033
21.845,0.273
21.850,0.029
21.855,-0.109
21.860,0.179
21.865,0.128
21.870,-0.096
21.875,0.125
21.880,0.195
21.885,-0.096
21.890,-0.003
21.895,0.224
21.900,-0.007
21.905,-0.096
21.910,0.189
21.915,0.103
21.920,-0.151
21.925,0.008
21.930,0.022
21.935,-0.251
21.940,-0.093
21.945,0.195
21.950,-0.017
21.955,-0.136
21.960,0.119
21.965,0.045
21.970,-0.171
21.975,0.045
21.980,0.117
21.985,-0.181
21.990,-0.099
21.995,0.129
22.000,-0.096
22.005,-0.176
22.010,0.094
22.015,-0.012
22.020,-0.219
22.025,0.059
22.030,0.167
22.035,-0.117
22.040,-0.051
22.045,0.142
22.050,-0.104
22.055,-0.190
22.060,0.077
22.065,-0.032
22.070,-0.259
22.075,-0.046
22.080,0.031
22.085,-0.238
22.090,-0.169
22.095,0.051
22.100,-0.159
22.105,-0.239
22.110,0.061
22.115,0.011
22.120,-0.168
22.125,0.083
22.130,0.157
22.135,-0.116
22.140,0.010
22.145,0.265
22.150,0.013
22.155,-0.119
22.160,0.159
22.165,0.104
22.170,-0.106
22.175,0.137
22.180,0.250
22.185,-0.151
22.190,-0.507
22.195,-1.049
22.200,-1.875
22.205,-2.019
22.210,-1.525
22.215,-0.994
22.220,-0.297
22.225,0.422
22.230,0.531
22.235,0.248
22.240,0.366
22.245,0.605
22.250,0.403
22.255,0.314
22.260,0.557
22.265,0.438
22.270,0.197
22.275,0.427
22.280,0.518
22.285,0.226
22.290,0.276
22.295,0.451
22.300,0.188
22.305,0.107
22.310,0.387
22.315,0.273
22.320,0.037
22.325,0.253
22.330,0.310
22.335,0.012
22.340,0.084
22.345,0.293
22.350,0.060
22.355,-0.033
22.360,0.222
22.365,0.105
22.370,-0.132
22.375,0.093
22.380,0.163
22.385,-0.136
22.390,-0.062
22.395,0.160
22.400,-0.065
22.405,-0.146
22.410,0.132
22.415,0.032
22.420,-0.194
22.425,0.045
22.430,0.127
22.435,-0.156
22.440,-0.047
22.445,0.196
22.450,-0.031
22.455,-0.115
22.460,0.167
22.465,0.087
22.470,-0.114
22.475,0.145
22.480,0.227
22.485,-0.074
22.490,0.020
22.495,0.234
22.500,-0.021
22.505,-0.094
22.510,0.199
22.515,0.103
22.520,-0.125
22.525,0.090
22.530,0.135
22.535,-0.159
22.540,-0.042
22.545,0.192
22.550,-0.042
22.555,-0.117
22.560,0.140
22.565,-0.001
22.570,-0.230
22.575,0.017
22.580,0.080
22.585,-0.213
22.590,-0.097
22.595,0.139
22.600,-0.102
22.605,-0.172
22.610,0.121
22.615,0.028
22.620,-0.180
22.625,0.032
22.630,0.073
22.635,-0.187
22.640,-0.063
22.645,0.155
22.650,-0.078
22.655,-0.149
22.660,0.127
22.665,0.024
22.670,-0.205
22.675,0.014
22.680,0.083
22.685,-0.205
22.690,-0.128
22.695,0.073
22.700,-0.148
22.705,-0.207
22.710,0.064
22.715,-0.046
22.720,-0.257
22.725,-0.019
22.730,0.050
22.735,-0.218
22.740,-0.096
22.745,0.143
22.750,-0.069
22.755,-0.128
22.760,0.156
22.765,0.074
22.770,-0.122
22.775,0.112
22.780,0.178
22.785,-0.096
22.790,0.003
22.795,0.204
22.800,-0.013
22.805,-0.011
22.810,0.288
22.815,0.007
22.820,-0.657
22.825,-1.181
22.830,-1.754
22.835,-2.005
22.840,-1.561
22.845,-0.766
22.850,-0.084
22.855,0.305
22.860,0.538
22.865,0.434
22.870,0.240
22.875,0.489
22.880,0.571
22.885,0.280
22.890,0.378
22.895,0.580
22.900,0.316
22.905,0.236
22.910,0.501
22.915,0.364
22.920,0.137
22.925,0.364
22.930,0.404
22.935,0.111
22.940,0.203
22.945,0.392
22.950,0.144
22.955,0.077
22.960,0.342
22.965,0.213
22.970,-0.015
22.975,0.210
22.980,0.253
22.985,-0.057
22.990,0.034
22.995,0.250
23.000,0.005
23.005,-0.074
23.010,0.187
23.015,0.063
23.020,-0.148
23.025,0.087
23.030,0.135
23.035,-0.143
23.040,-0.029
23.045,0.173
23.050,-0.072
23.055,-0.128
23.060,0.156
23.065,0.050
23.070,-0.153
23.075,0.090
23.080,0.150
23.085,-0.115
23.090,0.010
23.095,0.222
23.100,-0.014
23.105,-0.066
23.110,0.215
23.115,0.095
23.120,-0.112
23.125,0.139
23.130,0.190
23.135,-0.104
23.140,0.000
23.145,0.202
23.150,-0.040
23.155,-0.095
23.160,0.175
23.165,0.049
23.170,-0.157
23.175,0.081
23.180,0.119
23.185,-0.170
23.190,-0.059
23.195,0.143
23.200,-0.106
23.205,-0.163
23.210,0.116
23.215,-0.001
23.220,-0.199
23.225,0.047
23.230,0.096
23.235,-0.183
23.240,-0.070
23.245,0.135
23.250,-0.105
23.255,-0.152
23.260,0.134
23.265,0.020
23.270,-0.181
23.275,0.065
23.280,0.112
23.285,-0.161
23.290,-0.031
23.295,0.162
23.300,-0.103
23.305,-0.167
23.310,0.099
23.315,-0.021
23.320,-0.226
23.325,0.007
23.330,0.048
23.335,-0.227
23.340,-0.105
23.345,0.077
23.350,-0.178
23.355,-0.208
23.360,0.077
23.365,-0.043
23.370,-0.219
23.375,0.057
23.380,0.115
23.385,-0.151
23.390,0.002
23.395,0.223
23.400,-0.017
23.405,-0.057
23.410,0.211
23.415,0.073
23.420,-0.125
23.425,0.115
23.430,0.151
23.435,-0.078
23.440,0.113
23.445,0.237
23.450,-0.338
23.455,-1.026
23.460,-1.578
23.465,-1.990
23.470,-1.888
23.475,-1.313
23.480,-0.494
23.485,0.097
23.490,0.401
23.495,0.564
23.500,0.356
23.505,0.326
23.510,0.621
23.515,0.503
23.520,0.301
23.525,0.534
23.530,0.552
23.535,0.255
23.540,0.358
23.545,0.535
23.550,0.273
23.555,0.208
23.560,0.460
23.565,0.317
23.570,0.104
23.575,0.337
23.580,0.364
23.585,0.072
23.590,0.182
23.595,0.355
23.600,0.087
23.605,0.034
23.610,0.290
23.615,0.141
23.620,-0.069
23.625,0.163
23.630,0.185
23.635,-0.102
23.640,0.013
23.645,0.188
23.650,-0.073
23.655,-0.119
23.660,0.145
23.665,0.011
23.670,-0.182
23.675,0.062
23.680,0.100
23.685,-0.168
23.690,-0.038
23.695,0.158
23.700,-0.082
23.705,-0.111
23.710,0.171
23.715,0.050
23.720,-0.128
23.725,0.138
23.730,0.186
23.735,-0.086
23.740,0.042
23.745,0.232
23.750,-0.022
23.755,-0.060
23.760,0.213
23.765,0.078
23.770,-0.110
23.775,0.138
23.780,0.156
23.785,-0.128
23.790,0.004
23.795,0.189
23.800,-0.074
23.805,-0.120
23.810,0.146
23.815,0.005
23.820,-0.190
23.825,0.053
23.830,0.082
23.835,-0.190
23.840,-0.060
23.845,0.121
23.850,-0.131
23.855,-0.161
23.860,0.110
23.865,-0.028
23.870,-0.214
23.875,0.038
23.880,0.072
23.885,-0.193
23.890,-0.057
23.895,0.132
23.900,-0.112
23.905,-0.139
23.910,0.126
23.915,-0.010
23.920,-0.191
23.925,0.056
23.930,0.084
23.935,-0.186
23.940,-0.067
23.945,0.098
23.950,-0.160
23.955,-0.190
23.960,0.074
23.965,-0.067
23.970,-0.254
23.975,-0.011
23.980,0.014
23.985,-0.251
23.990,-0.114
23.995,0.073
24.000,-0.162
24.005,-0.168
24.010,0.116
24.015,-0.010
24.020,-0.176
24.025,0.107
24.030,0.162
24.035,-0.104
24.040,0.033
24.045,0.216
24.050,-0.043
24.055,-0.074
24.060,0.191
24.065,0.049
24.070,-0.101
24.075,0.215
24.080,0.206
24.085,-0.377
24.090,-0.905
24.095,-1.528
24.100,-2.048
24.105,-1.894
24.110,-1.382
24.115,-0.722
24.120,-0.018
24.125,0.485
24.130,0.521
24.135,0.286
24.140,0.452
24.145,0.657
24.150,0.404
24.155,0.365
24.160,0.624
24.165,0.468
24.170,0.266
24.175,0.495
24.180,0.496
24.185,0.210
24.190,0.334
24.195,0.493
24.200,0.219
24.205,0.175
24.210,0.421
24.215,0.262
24.220,0.070
24.225,0.299
24.230,0.296
24.235,0.015
24.240,0.148
24.245,0.306
24.250,0.028
24.255,-0.012
24.260,0.239
24.265,0.080
24.270,-0.111
24.275,0.131
24.280,0.132
24.285,-0.152
24.290,-0.012
24.295,0.157
24.300,-0.112
24.305,-0.132
24.310,0.138
24.315,-0.018
24.320,-0.200
24.325,0.066
24.330,0.098
24.335,-0.160
24.340,-0.002
24.345,0.184
24.350,-0.062
24.355,-0.068
24.360,0.208
24.365,0.067
24.370,-0.101
24.375,0.161
24.380,0.175
24.385,-0.099
24.390,0.050
24.395,0.231
24.400,-0.033
24.405,-0.064
24.410,0.196
24.415,0.041
24.420,-0.141
24.425,0.114
24.430,0.127
24.435,-0.150
24.440,-0.006
24.445,0.165
24.450,-0.099
24.455,-0.115
24.460,0.148
24.465,-0.015
24.470,-0.197
24.475,0.063
24.480,0.076
24.485,-0.191
24.490,-0.039
24.495,0.131
24.500,-0.129
24.505,-0.137
24.510,0.136
24.515,-0.019
24.520,-0.196
24.525,0.068
24.530,0.086
24.535,-0.183
24.540,-0.033
24.545,0.146
24.550,-0.110
24.555,-0.129
24.560,0.135
24.565,-0.019
24.570,-0.193
24.575,0.070
24.580,0.078
24.585,-0.207
24.590,-0.071
24.595,0.092
24.600,-0.171
24.605,-0.185
24.610,0.080
24.615,-0.074
24.620,-0.249
24.625,0.005
24.630,0.007
24.635,-0.265
24.640,-0.101
24.645,0.080
24.650,-0.169
24.655,-0.156
24.660,0.131
24.665,-0.009
24.670,-0.160
24.675,0.128
24.680,0.155
24.685,-0.111
24.690,0.045
24.695,0.212
24.700,-0.059
24.705,-0.075
24.710,0.190
24.715,0.040
24.720,-0.084
24.725,0.240
24.730,0.149
24.735,-0.545
24.740,-1.166
24.745,-1.722
24.750,-2.030
24.755,-1.759
24.760,-1.128
24.765,-0.413
24.770,0.121
24.775,0.487
24.780,0.515
24.785,0.292
24.790,0.466
24.795,0.648
24.800,0.383
24.805,0.366
24.810,0.617
24.815,0.438
24.820,0.251
24.825,0.493
24.830,0.481
24.835,0.204
24.840,0.347
24.845,0.490
24.850,0.211
24.855,0.188
24.860,0.428
24.865,0.244
24.870,0.062
24.875,0.308
24.880,0.289
24.885,0.007
24.890,0.154
24.895,0.304
24.900,0.026
24.905,0.004
24.910,0.247
24.915,0.077
24.920,-0.099
24.925,0.142
24.930,0.131
24.935,-0.140
24.940,0.008
24.945,0.159
24.950,-0.113
24.955,-0.123
24.960,0.138
24.965,-0.024
24.970,-0.190
24.975,0.082
24.980,0.099
24.985,-0.154
24.990,0.019
24.995,0.194
25.000,-0.066
25.005,-0.057
25.010,0.227
25.015,0.075
25.020,-0.088
25.025,0.178
25.030,0.181
25.035,-0.085
25.040,0.069
25.045,0.221
25.050,-0.056
25.055,-0.066
25.060,0.199
25.065,0.033
25.070,-0.139
25.075,0.127
25.080,0.128
25.085,-0.143
25.090,0.014
25.095,0.170
25.100,-0.099
25.105,-0.100
25.110,0.157
25.115,-0.013
25.120,-0.177
25.125,0.082
25.130,0.072
25.135,-0.197
25.140,-0.031
25.145,0.130
25.150,-0.142
25.155,-0.135
25.160,0.137
25.165,-0.030
25.170,-0.185
25.175,0.092
25.180,0.090
25.185,-0.180
25.190,-0.011
25.195,0.152
25.200,-0.128
25.205,-0.134
25.210,0.133
25.215,-0.024
25.220,-0.183
25.225,0.074
25.230,0.074
25.235,-0.182
25.240,-0.030
25.245,0.105
25.250,-0.171
25.255,-0.169
25.260,0.094
25.265,-0.072
25.270,-0.236
25.275,0.019
25.280,0.009
25.285,-0.258
25.290,-0.098
25.295,0.059
25.300,-0.207
25.305,-0.197
25.310,0.077
25.315,-0.077
25.320,-0.211
25.325,0.079
25.330,0.093
25.335,-0.142
25.340,0.046
25.345,0.212
25.350,-0.053
25.355,-0.050
25.360,0.204
25.365,0.025
25.370,-0.137
25.375,0.133
25.380,0.156
25.385,-0.048
25.390,0.074
25.395,-0.088
25.400,-1.009
25.405,-1.854
25.410,-2.015
25.415,-1.858
25.420,-1.395
25.425,-0.333
25.430,0.365
25.435,0.269
25.440,0.410
25.445,0.589
25.450,0.328
25.455,0.350
25.460,0.604
25.465,0.419
25.470,0.258
25.475,0.519
25.480,0.499
25.485,0.214
25.490,0.367
25.495,0.508
25.500,0.212
25.505,0.205
25.510,0.456
25.515,0.259
25.520,0.093
25.525,0.354
25.530,0.314
25.535,0.035
25.540,0.197
25.545,0.330
25.550,0.048
25.555,0.038
25.560,0.264
25.565,0.079
25.570,-0.073
25.575,0.185
25.580,0.160
25.585,-0.119
25.590,0.038
25.595,0.180
25.600,-0.101
25.605,-0.090
25.610,0.164
25.615,-0.022
25.620,-0.171
25.625,0.101
25.630,0.088
25.635,-0.165
25.640,0.020
25.645,0.183
25.650,-0.078
25.655,-0.058
25.660,0.202
25.665,0.028
25.670,-0.114
25.675,0.161
25.680,0.145
25.685,-0.118
25.690,0.068
25.695,0.231
25.700,-0.041
25.705,-0.022
25.710,0.242
25.715,0.057
25.720,-0.098
25.725,0.167
25.730,0.131
25.735,-0.152
25.740,0.021
25.745,0.170
25.750,-0.116
25.755,-0.106
25.760,0.151
25.765,-0.031
25.770,-0.187
25.775,0.069
25.780,0.049
25.785,-0.207
25.790,-0.027
25.795,0.116
25.800,-0.157
25.805,-0.132
25.810,0.121
25.815,-0.060
25.820,-0.198
25.825,0.075
25.830,0.052
25.835,-0.201
25.840,-0.009
25.845,0.150
25.850,-0.117
25.855,-0.105
25.860,0.144
25.865,-0.039
25.870,-0.180
25.875,0.097
25.880,0.072
25.885,-0.192
25.890,-0.028
25.895,0.093
25.900,-0.183
25.905,-0.155
25.910,0.101
25.915,-0.088
25.920,-0.236
25.925,0.031
25.930,-0.004
25.935,-0.269
25.940,-0.087
25.945,0.064
25.950,-0.204
25.955,-0.170
25.960,0.111
25.965,-0.050
25.970,-0.178
25.975,0.106
25.980,0.113
25.985,-0.109
25.990,0.077
25.995,0.212
26.000,-0.065
26.005,-0.048
26.010,0.196
26.015,0.007
26.020,-0.121
26.025,0.189
26.030,0.220
26.035,-0.071
26.040,-0.158
26.045,-0.578
26.050,-1.600
26.055,-2.085
26.060,-1.793
26.065,-1.483
26.070,-0.749
26.075,0.324
26.080,0.523
26.085,0.237
26.090,0.434
26.095,0.576
26.100,0.307
26.105,0.349
26.110,0.612
26.115,0.412
26.120,0.248
26.125,0.503
26.130,0.464
26.135,0.191
26.140,0.352
26.145,0.475
26.150,0.185
26.155,0.199
26.160,0.437
26.165,0.229
26.170,0.080
26.175,0.337
26.180,0.282
26.185,0.011
26.190,0.186
26.195,0.314
26.200,0.026
26.205,0.036
26.210,0.272
26.215,0.067
26.220,-0.082
26.225,0.181
26.230,0.133
26.235,-0.134
26.240,0.045
26.245,0.172
26.250,-0.104
26.255,-0.068
26.260,0.190
26.265,-0.001
26.270,-0.140
26.275,0.131
26.280,0.096
26.285,-0.158
26.290,0.038
26.295,0.188
26.300,-0.078
26.305,-0.041
26.310,0.218
26.315,0.036
26.320,-0.092
26.325,0.189
26.330,0.156
26.335,-0.097
26.340,0.099
26.345,0.231
26.350,-0.044
26.355,0.000
26.360,0.245
26.365,0.036
26.370,-0.101
26.375,0.163
26.380,0.115
26.385,-0.139
26.390,0.047
26.395,0.167
26.400,-0.120
26.405,-0.089
26.410,0.162
26.415,-0.039
26.420,-0.181
26.425,0.091
26.430,0.051
26.435,-0.204
26.440,-0.012
26.445,0.118
26.450,-0.154
26.455,-0.115
26.460,0.137
26.465,-0.058
26.470,-0.193
26.475,0.085
26.480,0.049
26.485,-0.199
26.490,0.004
26.495,0.140
26.500,-0.136
26.505,-0.097
26.510,0.154
26.515,-0.040
26.520,-0.170
26.525,0.106
26.530,0.065
26.535,-0.196
26.540,-0.024
26.545,0.098
26.550,-0.173
26.555,-0.137
26.560,0.103
26.565,-0.096
26.570,-0.227
26.575,0.037
26.580,-0.012
26.585,-0.260
26.590,-0.063
26.595,0.070
26.600,-0.200
26.605,-0.144
26.610,0.126
26.615,-0.052
26.620,-0.165
26.625,0.134
26.630,0.116
26.635,-0.123
26.640,0.073
26.645,0.198
26.650,-0.081
26.655,-0.041
26.660,0.207
26.665,0.009
26.670,-0.109
26.675,0.220
26.680,0.209
26.685,-0.205
26.690,-0.467
26.695,-1.092
26.700,-1.951
26.705,-2.021
26.710,-1.637
26.715,-1.178
26.720,-0.300
26.725,0.499
26.730,0.487
26.735,0.235
26.740,0.468
26.745,0.612
26.750,0.348
26.755,0.390
26.760,0.630
26.765,0.418
26.770,0.277
26.775,0.537
26.780,0.472
26.785,0.204
26.790,0.385
26.795,0.491
26.800,0.194
26.805,0.220
26.810,0.444
26.815,0.219
26.820,0.083
26.825,0.347
26.830,0.274
26.835,0.011
26.840,0.199
26.845,0.297
26.850,0.003
26.855,0.044
26.860,0.271
26.865,0.044
26.870,-0.093
26.875,0.172
26.880,0.106
26.885,-0.151
26.890,0.043
26.895,0.148
26.900,-0.139
26.905,-0.085
26.910,0.157
26.915,-0.051
26.920,-0.168
26.925,0.111
26.930,0.064
26.935,-0.166
26.940,0.054
26.945,0.179
26.950,-0.092
26.955,-0.022
26.960,0.234
26.965,0.029
26.970,-0.086
26.975,0.200
26.980,0.148
26.985,-0.094
26.990,0.118
26.995,0.226
27.000,-0.062
27.005,-0.003
27.010,0.235
27.015,0.016
27.020,-0.103
27.025,0.172
27.030,0.106
27.035,-0.151
27.040,0.044
27.045,0.150
27.050,-0.135
27.055,-0.084
27.060,0.151
27.065,-0.064
27.070,-0.184
27.075,0.090
27.080,0.029
27.085,-0.220
27.090,-0.021
27.095,0.094
27.100,-0.175
27.105,-0.113
27.110,0.125
27.115,-0.084
27.120,-0.189
27.125,0.092
27.130,0.030
27.135,-0.213
27.140,-0.003
27.145,0.113
27.150,-0.166
27.155,-0.105
27.160,0.139
27.165,-0.075
27.170,-0.186
27.175,0.097
27.180,0.033
27.185,-0.213
27.190,-0.010
27.195,0.080
27.200,-0.217
27.205,-0.154
27.210,0.086
27.215,-0.135
27.220,-0.241
27.225,0.040
27.230,-0.032
27.235,-0.280
27.240,-0.072
27.245,0.040
27.250,-0.234
27.255,-0.154
27.260,0.108
27.265,-0.089
27.270,-0.180
27.275,0.120
27.280,0.076
27.285,-0.143
27.290,0.078
27.295,0.186
27.300,-0.098
27.305,-0.034
27.310,0.204
27.315,-0.016
27.320,-0.122
27.325,0.178
27.330,0.173
27.335,-0.054
27.340,-0.081
27.345,-0.570
27.350,-1.652
27.355,-2.136
27.360,-1.914
27.365,-1.724
27.370,-1.036
27.375,0.113
27.380,0.454
27.385,0.253
27.390,0.481
27.395,0.614
27.400,0.347
27.405,0.426
27.410,0.666
27.415,0.437
27.420,0.313
27.425,0.575
27.430,0.484
27.435,0.226
27.440,0.423
27.445,0.507
27.450,0.208
27.455,0.258
27.460,0.475
27.465,0.238
27.470,0.115
27.475,0.379
27.480,0.289
27.485,0.033
27.490,0.232
27.495,0.312
27.500,0.009
27.505,0.064
27.510,0.283
27.515,0.044
27.520,-0.067
27.525,0.202
27.530,0.102
27.535,-0.155
27.540,0.055
27.545,0.148
27.550,-0.142
27.555,-0.079
27.560,0.151
27.565,-0.069
27.570,-0.168
27.575,0.112
27.580,0.043
27.585,-0.180
27.590,0.052
27.595,0.161
27.600,-0.105
27.605,-0.017
27.610,0.231
27.615,0.024
27.620,-0.064
27.625,0.221
27.630,0.147
27.635,-0.086
27.640,0.131
27.645,0.226
27.650,-0.057
27.655,0.014
27.660,0.241
27.665,0.009
27.670,-0.096
27.675,0.182
27.680,0.097
27.685,-0.140
27.690,0.078
27.695,0.163
27.700,-0.126
27.705,-0.052
27.710,0.175
27.715,-0.048
27.720,-0.147
27.725,0.123
27.730,0.038
27.735,-0.196
27.740,0.023
27.745,0.114
27.750,-0.169
27.755,-0.089
27.760,0.143
27.765,-0.075
27.770,-0.165
27.775,0.109
27.780,0.027
27.785,-0.197
27.790,0.029
27.795,0.123
27.800,-0.157
27.805,-0.082
27.810,0.151
27.815,-0.065
27.820,-0.160
27.825,0.118
27.830,0.037
27.835,-0.198
27.840,0.026
27.845,0.113
27.850,-0.184
27.855,-0.123
27.860,0.092
27.865,-0.131
27.870,-0.221
27.875,0.054
27.880,-0.027
27.885,-0.259
27.890,-0.046
27.895,0.045
27.900,-0.233
27.905,-0.153
27.910,0.079
27.915,-0.124
27.920,-0.192
27.925,0.097
27.930,0.036
27.935,-0.160
27.940,0.084
27.945,0.182
27.950,-0.097
27.955,-0.013
27.960,0.214
27.965,-0.018
27.970,-0.109
27.975,0.170
27.980,0.086
27.985,-0.116
27.990,0.177
27.995,0.251
28.000,-0.328
28.005,-0.907
28.010,-1.496
28.015,-2.001
28.020,-1.874
28.025,-1.340
28.030,-0.669
28.035,-0.036
28.040,0.432
28.045,0.529
28.050,0.286
28.055,0.390
28.060,0.635
28.065,0.416
28.070,0.321
28.075,0.589
28.080,0.484
28.085,0.243
28.090,0.452
28.095,0.514
28.100,0.215
28.105,0.281
28.110,0.486
28.115,0.244
28.120,0.145
28.125,0.406
28.130,0.297
28.135,0.054
28.140,0.261
28.145,0.324
28.150,0.026
28.155,0.099
28.160,0.308
28.165,0.058
28.170,-0.045
28.175,0.216
28.180,0.105
28.185,-0.132
28.190,0.085
28.195,0.151
28.200,-0.145
28.205,-0.066
28.210,0.151
28.215,-0.086
28.220,-0.173
28.225,0.103
28.230,0.010
28.235,-0.212
28.240,0.028
28.245,0.128
28.250,-0.138
28.255,-0.033
28.260,0.206
28.265,-0.009
28.270,-0.076
28.275,0.210
28.280,0.125
28.285,-0.084
28.290,0.147
28.295,0.222
28.300,-0.052
28.305,0.044
28.310,0.254
28.315,0.017
28.320,-0.064
28.325,0.207
28.330,0.107
28.335,-0.119
28.340,0.102
28.345,0.172
28.350,-0.112
28.355,-0.026
28.360,0.188
28.365,-0.045
28.370,-0.128
28.375,0.142
28.380,0.041
28.385,-0.185
28.390,0.038
28.395,0.112
28.400,-0.168
28.405,-0.075
28.410,0.136
28.415,-0.103
28.420,-0.169
28.425,0.118
28.430,0.016
28.435,-0.204
28.440,0.034
28.445,0.110
28.450,-0.169
28.455,-0.069
28.460,0.151
28.465,-0.083
28.470,-0.154
28.475,0.129
28.480,0.027
28.485,-0.198
28.490,0.035
28.495,0.114
28.500,-0.168
28.505,-0.089
28.510,0.105
28.515,-0.136
28.520,-0.206
28.525,0.065
28.530,-0.041
28.535,-0.250
28.540,-0.020
28.545,0.040
28.550,-0.244
28.555,-0.146
28.560,0.073
28.565,-0.152
28.570,-0.204
28.575,0.095
28.580,0.011
28.585,-0.181
28.590,0.074
28.595,0.165
28.600,-0.100
28.605,-0.003
28.610,0.211
28.615,-0.012
28.620,-0.082
28.625,0.184
28.630,0.079
28.635,-0.128
28.640,0.127
28.645,0.249
28.650,-0.040
28.655,-0.208
28.660,-0.620
28.665,-1.615
28.670,-2.094
28.675,-1.748
28.680,-1.406
28.685,-0.788
28.690,0.209
28.695,0.524
28.700,0.254
28.705,0.379
28.710,0.609
28.715,0.385
28.720,0.323
28.725,0.598
28.730,0.479
28.735,0.247
28.740,0.471
28.745,0.524
28.750,0.227
28.755,0.308
28.760,0.499
28.765,0.247
28.770,0.167
28.775,0.429
28.780,0.309
28.785,0.078
28.790,0.287
28.795,0.329
28.800,0.033
28.805,0.118
28.810,0.316
28.815,0.066
28.820,-0.016
28.825,0.242
28.830,0.117
28.835,-0.108
28.840,0.110
28.845,0.155
28.850,-0.137
28.855,-0.042
28.860,0.150
28.865,-0.099
28.870,-0.150
28.875,0.135
28.880,0.013
28.885,-0.202
28.890,0.043
28.895,0.107
28.900,-0.163
28.905,-0.038
28.910,0.187
28.915,-0.044
28.920,-0.095
28.925,0.198
28.930,0.104
28.935,-0.090
28.940,0.157
28.945,0.218
28.950,-0.059
28.955,0.055
28.960,0.262
28.965,0.015
28.970,-0.049
28.975,0.216
28.980,0.092
28.985,-0.113
28.990,0.124
28.995,0.167
29.000,-0.114
29.005,-0.008
29.010,0.184
29.015,-0.065
29.020,-0.126
29.025,0.143
29.030,0.019
29.035,-0.197
29.040,0.035
29.045,0.088
29.050,-0.192
29.055,-0.079
29.060,0.126
29.065,-0.116
29.070,-0.162
29.075,0.122
29.080,0.005
29.085,-0.203
29.090,0.038
29.095,0.097
29.100,-0.178
29.105,-0.067
29.110,0.135
29.115,-0.111
29.120,-0.168
29.125,0.110
29.130,-0.005
29.135,-0.206
29.140,0.042
29.145,0.099
29.150,-0.179
29.155,-0.073
29.160,0.109
29.165,-0.148
29.170,-0.197
29.175,0.077
29.180,-0.048
29.185,-0.246
29.190,-0.015
29.195,0.016
29.200,-0.259
29.205,-0.135
29.210,0.071
29.215,-0.163
29.220,-0.197
29.225,0.099
29.230,0.003
29.235,-0.173
29.240,0.090
29.245,0.158
29.250,-0.102
29.255,0.017
29.260,0.210
29.265,-0.037
29.270,-0.089
29.275,0.182
29.280,0.058
29.285,-0.140
29.290,0.137
29.295,0.255
29.300,-0.046
29.305,-0.205
29.310,-0.617
29.315,-1.619
29.320,-2.069
29.325,-1.681
29.330,-1.319
29.335,-0.688
29.340,0.273
29.345,0.509
29.350,0.229
29.355,0.375
29.360,0.580
29.365,0.347
29.370,0.306
29.375,0.572
29.380,0.441
29.385,0.232
29.390,0.457
29.395,0.486
29.400,0.199
29.405,0.303
29.410,0.480
29.415,0.216
29.420,0.153
29.425,0.409
29.430,0.268
29.435,0.050
29.440,0.274
29.445,0.309
29.450,0.027
29.455,0.131
29.460,0.305
29.465,0.041
29.470,-0.018
29.475,0.240
29.480,0.102
29.485,-0.104
29.490,0.126
29.495,0.152
29.500,-0.130
29.505,-0.012
29.510,0.171
29.515,-0.085
29.520,-0.130
29.525,0.140
29.530,0.012
29.535,-0.178
29.540,0.071
29.545,0.115
29.550,-0.150
29.555,-0.017
29.560,0.184
29.565,-0.049
29.570,-0.071
29.575,0.206
29.580,0.084
29.585,-0.093
29.590,0.153
29.595,0.188
29.600,-0.072
29.605,0.058
29.610,0.242
29.615,0.001
29.620,-0.038
29.625,0.217
29.630,0.080
29.635,-0.112
29.640,0.119
29.645,0.144
29.650,-0.125
29.655,-0.006
29.660,0.168
29.665,-0.084
29.670,-0.126
29.675,0.130
29.680,-0.007
29.685,-0.194
29.690,0.048
29.695,0.079
29.700,-0.186
29.705,-0.052
29.710,0.137
29.715,-0.111
29.720,-0.144
29.725,0.128
29.730,0.003
29.735,-0.179
29.740,0.065
29.745,0.101
29.750,-0.161
29.755,-0.031
29.760,0.153
29.765,-0.089
29.770,-0.122
29.775,0.140
29.780,0.006
29.785,-0.176
29.790,0.073
29.795,0.105
29.800,-0.162
29.805,-0.032
29.810,0.142
29.815,-0.124
29.820,-0.170
29.825,0.093
29.830,-0.042
29.835,-0.230
29.840,0.009
29.845,0.032
29.850,-0.235
29.855,-0.105
29.860,0.073
29.865,-0.169
29.870,-0.197
29.875,0.076
29.880,-0.033
29.885,-0.193
29.890,0.069
29.895,0.120
29.900,-0.115
29.905,0.035
29.910,0.218
29.915,-0.028
29.920,-0.060
29.925,0.196
29.930,0.056
29.935,-0.126
29.940,0.120
29.945,0.159
29.950,-0.051
29.955,0.130
29.960,0.157
29.965,-0.575
29.970,-1.421
29.975,-1.880
29.980,-1.976
29.985,-1.706
29.990,-0.951
29.995,-0.087
30.000,0.207
30.005,0.375
30.010,0.579
30.015,0.369
30.020,0.346
30.025,0.625
30.030,0.488
30.035,0.297
30.040,0.527
30.045,0.540
30.050,0.262
30.055,0.376
30.060,0.532
30.065,0.268
30.070,0.225
30.075,0.466
30.080,0.309
30.085,0.116
30.090,0.345
30.095,0.345
30.100,0.062
30.105,0.184
30.110,0.338
30.115,0.062
30.120,0.023
30.125,0.279
30.130,0.118
30.135,-0.086
30.140,0.152
30.145,0.166
30.150,-0.116
30.155,0.006
30.160,0.172
30.165,-0.094
30.170,-0.134
30.175,0.122
30.180,-0.027
30.185,-0.204
30.190,0.057
30.195,0.086
30.200,-0.169
30.205,-0.014
30.210,0.171
30.215,-0.072
30.220,-0.083
30.225,0.190
30.230,0.059
30.235,-0.105
30.240,0.160
30.245,0.195
30.250,-0.064
30.255,0.077
30.260,0.254
30.265,0.000
30.270,-0.025
30.275,0.234
30.280,0.086
30.285,-0.089
30.290,0.153
30.295,0.162
30.300,-0.101
30.305,0.030
30.310,0.184
30.315,-0.071
30.320,-0.095
30.325,0.155
30.330,0.005
30.335,-0.172
30.340,0.074
30.345,0.086
30.350,-0.183
30.355,-0.044
30.360,0.125
30.365,-0.132
30.370,-0.150
30.375,0.118
30.380,-0.028
30.385,-0.204
30.390,0.052
30.395,0.075
30.400,-0.181
30.405,-0.037
30.410,0.130
30.415,-0.118
30.420,-0.132
30.425,0.124
30.430,-0.025
30.435,-0.193
30.440,0.058
30.445,0.070
30.450,-0.195
30.455,-0.063
30.460,0.086
30.465,-0.173
30.470,-0.187
30.475,0.061
30.480,-0.088
30.485,-0.252
30.490,-0.011
30.495,-0.011
30.500,-0.277
30.505,-0.132
30.510,0.043
30.515,-0.190
30.520,-0.181
30.525,0.093
30.530,-0.032
30.535,-0.176
30.540,0.099
30.545,0.139
30.550,-0.113
30.555,0.027
30.560,0.194
30.565,-0.056
30.570,-0.076
30.575,0.176
30.580,0.028
30.585,-0.135
30.590,0.144
30.595,0.222
30.600,-0.065
30.605,-0.232
30.610,-0.731
30.615,-1.734
30.620,-2.096
30.625,-1.712
30.630,-1.363
30.635,-0.685
30.640,0.271
30.645,0.482
30.650,0.227
30.655,0.398
30.660,0.581
30.665,0.351
30.670,0.353
30.675,0.609
30.680,0.437
30.685,0.245
30.690,0.483
30.695,0.477
30.700,0.203
30.705,0.345
30.710,0.497
30.715,0.221
30.720,0.189
30.725,0.429
30.730,0.258
30.735,0.067
30.740,0.302
30.745,0.299
30.750,0.025
30.755,0.157
30.760,0.298
30.765,0.024
30.770,0.005
30.775,0.242
30.780,0.065
30.785,-0.114
30.790,0.129
30.795,0.124
30.800,-0.144
30.805,0.006
30.810,0.158
30.815,-0.110
30.820,-0.120
30.825,0.134
30.830,-0.023
30.835,-0.185
30.840,0.072
30.845,0.089
30.850,-0.151
30.855,0.017
30.860,0.185
30.865,-0.061
30.870,-0.057
30.875,0.208
30.880,0.069
30.885,-0.077
30.890,0.186
30.895,0.198
30.900,-0.056
30.905,0.094
30.910,0.254
30.915,0.000
30.920,-0.014
30.925,0.223
30.930,0.058
30.935,-0.100
30.940,0.149
30.945,0.145
30.950,-0.113
30.955,0.036
30.960,0.184
30.965,-0.083
30.970,-0.096
30.975,0.154
30.980,-0.007
30.985,-0.178
30.990,0.068
30.995,0.077
31.000,-0.173
31.005,-0.019
31.010,0.135
31.015,-0.121
31.020,-0.125
31.025,0.121
31.030,-0.036
31.035,-0.186
31.040,0.071
31.045,0.070
31.050,-0.179
31.055,-0.007
31.060,0.162
31.065,-0.100
31.070,-0.117
31.075,0.136
31.080,-0.013
31.085,-0.169
31.090,0.087
31.095,0.082
31.100,-0.189
31.105,-0.036
31.110,0.110
31.115,-0.166
31.120,-0.170
31.125,0.077
31.130,-0.092
31.135,-0.237
31.140,0.030
31.145,0.016
31.150,-0.260
31.155,-0.109
31.160,0.044
31.165,-0.215
31.170,-0.191
31.175,0.096
31.180,-0.048
31.185,-0.182
31.190,0.098
31.195,0.122
31.200,-0.111
31.205,0.050
31.210,0.199
31.215,-0.067
31.220,-0.070
31.225,0.186
31.230,0.027
31.235,-0.123
31.240,0.147
31.245,0.186
31.250,-0.034
31.255,-0.006
31.260,-0.291
31.265,-1.320
31.270,-2.049
31.275,-1.902
31.280,-1.633
31.285,-1.108
31.290,-0.020
31.295,0.456
31.300,0.241
31.305,0.407
31.310,0.578
31.315,0.328
31.320,0.353
31.325,0.597
31.330,0.414
31.335,0.250
31.340,0.490
31.345,0.460
31.350,0.196
31.355,0.351
31.360,0.484
31.365,0.207
31.370,0.200
31.375,0.434
31.380,0.245
31.385,0.073
31.390,0.308
31.395,0.276
31.400,0.015
31.405,0.182
31.410,0.319
31.415,0.036
31.420,0.035
31.425,0.270
31.430,0.078
31.435,-0.089
31.440,0.144
31.445,0.106
31.450,-0.154
31.455,0.011
31.460,0.156
31.465,-0.108
31.470,-0.093
31.475,0.164
31.480,-0.011
31.485,-0.169
31.490,0.089
31.495,0.077
31.500,-0.176
31.505,0.002
31.510,0.163
31.515,-0.086
31.520,-0.053
31.525,0.222
31.530,0.060
31.535,-0.086
31.540,0.187
31.545,0.179
31.550,-0.076
31.555,0.090
31.560,0.229
31.565,-0.036
31.570,-0.011
31.575,0.240
31.580,0.053
31.585,-0.093
31.590,0.166
31.595,0.132
31.600,-0.129
31.605,0.045
31.610,0.176
31.615,-0.113
31.620,-0.103
31.625,0.145
31.630,-0.041
31.635,-0.192
31.640,0.068
31.645,0.054
31.650,-0.196
31.655,-0.023
31.660,0.122
31.665,-0.154
31.670,-0.151
31.675,0.104
31.680,-0.056
31.685,-0.194
31.690,0.068
31.695,0.052
31.700,-0.193
31.705,-0.009
31.710,0.144
31.715,-0.122
31.720,-0.110
31.725,0.140
31.730,-0.036
31.735,-0.181
31.740,0.071
31.745,0.024
31.750,-0.242
31.755,-0.059
31.760,0.085
31.765,-0.189
31.770,-0.162
31.775,0.094
31.780,-0.100
31.785,-0.253
31.790,0.015
31.795,-0.005
31.800,-0.254
31.805,-0.069
31.810,0.091
31.815,-0.148
31.820,-0.102
31.825,0.173
31.830,0.019
31.835,-0.106
31.840,0.161
31.845,0.131
31.850,-0.122
31.855,0.064
31.860,0.203
31.865,-0.067
31.870,-0.043
31.875,0.226
31.880,0.106
31.885,-0.020
31.890,0.044
31.895,-0.472
31.900,-1.509
31.905,-2.033
31.910,-1.918
31.915,-1.680
31.920,-0.914
31.925,0.180
31.930,0.405
31.935,0.254
31.940,0.527
31.945,0.521
31.950,0.281
31.955,0.475
31.960,0.598
31.965,0.318
31.970,0.338
31.975,0.572
31.980,0.374
31.985,0.225
31.990,0.472
31.995,0.420
32.000,0.152
32.005,0.321
32.010,0.440
32.015,0.153
32.020,0.171
32.025,0.405
32.030,0.196
32.035,0.042
32.040,0.293
32.045,0.247
32.050,-0.017
32.055,0.152
32.060,0.273
32.065,-0.016
32.070,-0.002
32.075,0.230
32.080,0.026
32.085,-0.115
32.090,0.141
32.095,0.093
32.100,-0.155
32.105,0.030
32.110,0.152
32.115,-0.115
32.120,-0.076
32.125,0.168
32.130,-0.020
32.135,-0.137
32.140,0.139
32.145,0.110
32.150,-0.117
32.155,0.090
32.160,0.229
32.165,-0.035
32.170,0.005
32.175,0.259
32.180,0.076
32.185,-0.055
32.190,0.206
32.195,0.168
32.200,-0.079
32.205,0.098
32.210,0.222
32.215,-0.044
32.220,-0.012
32.225,0.219
32.230,0.019
32.235,-0.109
32.240,0.150
32.245,0.099
32.250,-0.148
32.255,0.029
32.260,0.141
32.265,-0.128
32.270,-0.096
32.275,0.135
32.280,-0.058
32.285,-0.181
32.290,0.079
32.295,0.033
32.300,-0.207
32.305,-0.014
32.310,0.113
32.315,-0.154
32.320,-0.111
32.325,0.133
32.330,-0.059
32.335,-0.179
32.340,0.091
32.345,0.047
32.350,-0.193
32.355,0.000
32.360,0.122
32.365,-0.144
32.370,-0.099
32.375,0.137
32.380,-0.060
32.385,-0.185
32.390,0.065
32.395,0.002
32.400,-0.239
32.405,-0.048
32.410,0.064
32.415,-0.206
32.420,-0.163
32.425,0.065
32.430,-0.132
32.435,-0.251
32.440,0.014
32.445,-0.027
32.450,-0.251
32.455,-0.038
32.460,0.093
32.465,-0.163
32.470,-0.091
32.475,0.178
32.480,0.000
32.485,-0.110
32.490,0.158
32.495,0.106
32.500,-0.133
32.505,0.056
32.510,0.167
32.515,-0.099
32.520,-0.039
32.525,0.246
32.530,0.085
32.535,-0.192
32.540,-0.424
32.545,-1.268
32.550,-2.083
32.555,-1.992
32.560,-1.702
32.565,-1.274
32.570,-0.263
32.575,0.485
32.580,0.370
32.585,0.268
32.590,0.563
32.595,0.525
32.600,0.299
32.605,0.491
32.610,0.592
32.615,0.317
32.620,0.353
32.625,0.565
32.630,0.348
32.635,0.219
32.640,0.465
32.645,0.393
32.650,0.140
32.655,0.316
32.660,0.406
32.665,0.120
32.670,0.159
32.675,0.379
32.680,0.156
32.685,0.026
32.690,0.279
32.695,0.205
32.700,-0.049
32.705,0.132
32.710,0.224
32.715,-0.060
32.720,-0.019
32.725,0.197
32.730,-0.021
32.735,-0.143
32.740,0.113
32.745,0.042
32.750,-0.201
32.755,-0.006
32.760,0.097
32.765,-0.168
32.770,-0.098
32.775,0.143
32.780,-0.052
32.785,-0.142
32.790,0.144
32.795,0.096
32.800,-0.119
32.805,0.103
32.810,0.223
32.815,-0.035
32.820,0.032
32.825,0.270
32.830,0.072
32.835,-0.034
32.840,0.227
32.845,0.158
32.850,-0.077
32.855,0.119
32.860,0.216
32.865,-0.060
32.870,-0.005
32.875,0.220
32.880,0.009
32.885,-0.099
32.890,0.162
32.895,0.089
32.900,-0.149
32.905,0.049
32.910,0.146
32.915,-0.129
32.920,-0.069
32.925,0.160
32.930,-0.050
32.935,-0.157
32.940,0.109
32.945,0.041
32.950,-0.192
32.955,0.014
32.960,0.117
32.965,-0.151
32.970,-0.083
32.975,0.147
32.980,-0.060
32.985,-0.159
32.990,0.110
32.995,0.044
33.000,-0.184
33.005,0.022
33.010,0.118
33.015,-0.153
33.020,-0.085
33.025,0.145
33.030,-0.062
33.035,-0.169
33.040,0.083
33.045,-0.004
33.050,-0.244
33.055,-0.034
33.060,0.063
33.065,-0.213
33.070,-0.143
33.075,0.083
33.080,-0.136
33.085,-0.240
33.090,0.030
33.095,-0.036
33.100,-0.257
33.105,-0.033
33.110,0.086
33.115,-0.166
33.120,-0.079
33.125,0.170
33.130,-0.018
33.135,-0.096
33.140,0.178
33.145,0.103
33.150,-0.127
33.155,0.086
33.160,0.178
33.165,-0.099
33.170,-0.026
33.175,0.211
33.180,0.053
33.185,0.002
33.190,0.094
33.195,-0.513
33.200,-1.584
33.205,-2.062
33.210,-1.932
33.215,-1.735
33.220,-1.056
33.225,-0.003
33.230,0.309
33.235,0.271
33.240,0.556
33.245,0.522
33.250,0.308
33.255,0.531
33.260,0.624
33.265,0.338
33.270,0.393
33.275,0.606
33.280,0.381
33.285,0.267
33.290,0.517
33.295,0.421
33.300,0.174
33.305,0.371
33.310,0.445
33.315,0.152
33.320,0.208
33.325,0.415
33.330,0.182
33.335,0.070
33.340,0.321
33.345,0.227
33.350,-0.014
33.355,0.178
33.360,0.249
33.365,-0.040
33.370,0.020
33.375,0.224
33.380,-0.011
33.385,-0.116
33.390,0.139
33.395,0.043
33.400,-0.194
33.405,0.011
33.410,0.097
33.415,-0.176
33.420,-0.100
33.425,0.127
33.430,-0.082
33.435,-0.158
33.440,0.132
33.445,0.069
33.450,-0.137
33.455,0.094
33.460,0.195
33.465,-0.064
33.470,0.027
33.475,0.259
33.480,0.047
33.485,-0.037
33.490,0.233
33.495,0.146
33.500,-0.080
33.505,0.131
33.510,0.210
33.515,-0.072
33.520,0.002
33.525,0.219
33.530,-0.008
33.535,-0.103
33.540,0.166
33.545,0.075
33.550,-0.154
33.555,0.064
33.560,0.145
33.565,-0.134
33.570,-0.057
33.575,0.157
33.580,-0.065
33.585,-0.148
33.590,0.119
33.595,0.029
33.600,-0.194
33.605,0.024
33.610,0.107
33.615,-0.165
33.620,-0.080
33.625,0.141
33.630,-0.078
33.635,-0.160
33.640,0.112
33.645,0.028
33.650,-0.190
33.655,0.029
33.660,0.107
33.665,-0.169
33.670,-0.080
33.675,0.142
33.680,-0.082
33.685,-0.156
33.690,0.117
33.695,0.025
33.700,-0.194
33.705,0.025
33.710,0.097
33.715,-0.192
33.720,-0.124
33.725,0.086
33.730,-0.131
33.735,-0.209
33.740,0.058
33.745,-0.032
33.750,-0.258
33.755,-0.053
33.760,0.016
33.765,-0.249
33.770,-0.145
33.775,0.085
33.780,-0.125
33.785,-0.189
33.790,0.098
33.795,0.031
33.800,-0.158
33.805,0.084
33.810,0.170
33.815,-0.094
33.820,0.000
33.825,0.215
33.830,-0.010
33.835,-0.098
33.840,0.165
33.845,0.072
33.850,-0.136
33.855,0.140
33.860,0.249
33.865,-0.219
33.870,-0.686
33.875,-1.297
33.880,-1.976
33.885,-1.945
33.890,-1.436
33.895,-0.858
33.900,-0.188
33.905,0.396
33.910,0.504
33.915,0.262
33.920,0.370
33.925,0.600
33.930,0.391
33.935,0.307
33.940,0.564
33.945,0.461
33.950,0.225
33.955,0.423
33.960,0.476
33.965,0.188
33.970,0.265
33.975,0.463
33.980,0.223
33.985,0.135
33.990,0.386
33.995,0.273
34.000,0.049
34.005,0.258
34.010,0.312
34.015,0.028
34.020,0.109
34.025,0.305
34.030,0.057
34.035,-0.036
34.040,0.217
34.045,0.092
34.050,-0.147
34.055,0.069
34.060,0.131
34.065,-0.152
34.070,-0.070
34.075,0.121
34.080,-0.117
34.085,-0.179
34.090,0.091
34.095,-0.010
34.100,-0.217
34.105,0.016
34.110,0.099
34.115,-0.153
34.120,-0.038
34.125,0.192
34.130,-0.020
34.135,-0.076
34.140,0.208
34.145,0.120
34.150,-0.090
34.155,0.142
34.160,0.219
34.165,-0.056
34.170,0.039
34.175,0.249
34.180,0.014
34.185,-0.055
34.190,0.220
34.195,0.116
34.200,-0.101
34.205,0.123
34.210,0.181
34.215,-0.100
34.220,-0.006
34.225,0.192
34.230,-0.049
34.235,-0.116
34.240,0.152
34.245,0.039
34.250,-0.177
34.255,0.052
34.260,0.118
34.265,-0.158
34.270,-0.061
34.275,0.152
34.280,-0.083
34.285,-0.147
34.290,0.130
34.295,0.025
34.300,-0.181
34.305,0.054
34.310,0.117
34.315,-0.158
34.320,-0.057
34.325,0.152
34.330,-0.083
34.335,-0.130
34.340,0.162
34.345,0.046
34.350,-0.173
34.355,0.057
34.360,0.116
34.365,-0.152
34.370,-0.045
34.375,0.157
34.380,-0.077
34.385,-0.137
34.390,0.129
34.395,0.009
34.400,-0.220
34.405,-0.009
34.410,0.064
34.415,-0.191
34.420,-0.090
34.425,0.114
34.430,-0.125
34.435,-0.210
34.440,0.029
34.445,-0.086
34.450,-0.270
34.455,-0.009
34.460,0.079
34.465,-0.177
34.470,-0.068
34.475,0.154
34.480,-0.064
34.485,-0.111
34.490,0.186
34.495,0.090
34.500,-0.123
34.505,0.100
34.510,0.150
34.515,-0.135
34.520,-0.030
34.525,0.184
34.530,-0.044
34.535,-0.053
34.540,0.288
34.545,0.100
34.550,-0.465
34.555,-0.927
34.560,-1.600
34.565,-2.031
34.570,-1.677
34.575,-1.044
34.580,-0.410
34.585,0.182
34.590,0.508
34.595,0.383
34.600,0.206
34.605,0.458
34.610,0.536
34.615,0.262
34.620,0.367
34.625,0.563
34.630,0.302
34.635,0.218
34.640,0.474
34.645,0.352
34.650,0.132
34.655,0.351
34.660,0.392
34.665,0.097
34.670,0.192
34.675,0.388
34.680,0.141
34.685,0.071
34.690,0.324
34.695,0.191
34.700,-0.026
34.705,0.206
34.710,0.249
34.715,-0.047
34.720,0.035
34.725,0.218
34.730,-0.018
34.735,-0.074
34.740,0.190
34.745,0.059
34.750,-0.169
34.755,0.054
34.760,0.111
34.765,-0.160
34.770,-0.050
34.775,0.149
34.780,-0.097
34.785,-0.149
34.790,0.130
34.795,0.019
34.800,-0.166
34.805,0.093
34.810,0.162
34.815,-0.101
34.820,0.023
34.825,0.237
34.830,0.004
34.835,-0.043
34.840,0.237
34.845,0.129
34.850,-0.068
34.855,0.163
34.860,0.213
34.865,-0.051
34.870,0.061
34.875,0.251
34.880,0.006
34.885,-0.045
34.890,0.220
34.895,0.089
34.900,-0.113
34.905,0.125
34.910,0.154
34.915,-0.132
34.920,-0.015
34.925,0.179
34.930,-0.071
34.935,-0.122
34.940,0.151
34.945,0.032
34.950,-0.174
34.955,0.059
34.960,0.112
34.965,-0.153
34.970,-0.027
34.975,0.176
34.980,-0.066
34.985,-0.117
34.990,0.146
34.995,0.019
35.000,-0.169
35.005,0.082
35.010,0.127
35.015,-0.146
35.020,-0.037
35.025,0.147
35.030,-0.088
35.035,-0.131
35.040,0.137
35.045,0.021
35.050,-0.173
35.055,0.066
35.060,0.110
35.065,-0.167
35.070,-0.049
35.075,0.149
35.080,-0.105
35.085,-0.169
35.090,0.087
35.095,-0.036
35.100,-0.223
35.105,0.017
35.110,0.060
35.115,-0.205
35.120,-0.107
35.125,0.048
35.130,-0.181
35.135,-0.179
35.140,0.111
35.145,-0.003
35.150,-0.185
35.155,0.061
35.160,0.115
35.165,-0.139
35.170,-0.005
35.175,0.196
35.180,-0.048
35.185,-0.093
35.190,0.173
35.195,0.047
35.200,-0.145
35.205,0.091
35.210,0.131
35.215,-0.125
35.220,0.051
35.225,0.290
35.230,-0.066
35.235,-0.496
35.240,-0.940
35.245,-1.732
35.250,-2.066
35.255,-1.664
35.260,-1.138
35.265,-0.464
35.270,0.292
35.275,0.547
35.280,0.301
35.285,0.272
35.290,0.538
35.295,0.438
35.300,0.258
35.305,0.489
35.310,0.519
35.315,0.245
35.320,0.352
35.325,0.520
35.330,0.261
35.335,0.206
35.340,0.457
35.345,0.314
35.350,0.107
35.355,0.326
35.360,0.343
35.365,0.066
35.370,0.182
35.375,0.349
35.380,0.087
35.385,0.034
35.390,0.283
35.395,0.139
35.400,-0.061
35.405,0.167
35.410,0.184
35.415,-0.102
35.420,0.014
35.425,0.185
35.430,-0.075
35.435,-0.124
35.440,0.133
35.445,0.005
35.450,-0.179
35.455,0.059
35.460,0.089
35.465,-0.172
35.470,-0.035
35.475,0.157
35.480,-0.076
35.485,-0.094
35.490,0.184
35.495,0.063
35.500,-0.108
35.505,0.151
35.510,0.195
35.515,-0.062
35.520,0.076
35.525,0.261
35.530,0.014
35.535,-0.019
35.540,0.242
35.545,0.105
35.550,-0.082
35.555,0.156
35.560,0.179
35.565,-0.091
35.570,0.031
35.575,0.201
35.580,-0.059
35.585,-0.107
35.590,0.143
35.595,0.001
35.600,-0.186
35.605,0.051
35.610,0.073
35.615,-0.193
35.620,-0.058
35.625,0.126
35.630,-0.122
35.635,-0.156
35.640,0.105
35.645,-0.029
35.650,-0.207
35.655,0.037
35.660,0.065
35.665,-0.193
35.670,-0.059
35.675,0.116
35.680,-0.128
35.685,-0.154
35.690,0.105
35.695,-0.034
35.700,-0.216
35.705,0.021
35.710,0.040
35.715,-0.221
35.720,-0.084
35.725,0.090
35.730,-0.157
35.735,-0.181
35.740,0.085
35.745,-0.048
35.750,-0.223
35.755,0.024
35.760,0.035
35.765,-0.246
35.770,-0.116
35.775,0.065
35.780,-0.183
35.785,-0.209
35.790,0.061
35.795,-0.075
35.800,-0.263
35.805,-0.029
35.810,0.003
35.815,-0.234
35.820,-0.072
35.825,0.127
35.830,-0.111
35.835,-0.134
35.840,0.144
35.845,0.028
35.850,-0.125
35.855,0.142
35.860,0.165
35.865,-0.103
35.870,0.037
35.875,0.211
35.880,-0.041
35.885,-0.064
35.890,0.197
35.895,0.062
35.900,-0.058
35.905,0.240
35.910,0.100
35.915,-0.657
35.920,-1.336
35.925,-1.789
35.930,-1.917
35.935,-1.639
35.940,-1.006
35.945,-0.259
35.950,0.185
35.955,0.485
35.960,0.528
35.965,0.301
35.970,0.456
35.975,0.647
35.980,0.392
35.985,0.361
35.990,0.612
35.995,0.450
36.000,0.256
36.005,0.492
36.010,0.497
36.015,0.213
36.020,0.334
36.025,0.492
36.030,0.226
36.035,0.187
36.040,0.426
36.045,0.262
36.050,0.072
36.055,0.307
36.060,0.308
36.065,0.029
36.070,0.156
36.075,0.309
36.080,0.036
36.085,-0.002
36.090,0.239
36.095,0.074
36.100,-0.115
36.105,0.119
36.110,0.117
36.115,-0.159
36.120,-0.027
36.125,0.132
36.130,-0.125
36.135,-0.143
36.140,0.113
36.145,-0.030
36.150,-0.189
36.155,0.075
36.160,0.105
36.165,-0.137
36.170,0.031
36.175,0.217
36.180,-0.026
36.185,-0.024
36.190,0.248
36.195,0.108
36.200,-0.048
36.205,0.209
36.210,0.217
36.215,-0.046
36.220,0.100
36.225,0.261
36.230,-0.001
36.235,-0.020
36.240,0.233
36.245,0.075
36.250,-0.100
36.255,0.147
36.260,0.154
36.265,-0.111
36.270,0.032
36.275,0.192
36.280,-0.069
36.285,-0.088
36.290,0.164
36.295,0.007
36.300,-0.163
36.305,0.087
36.310,0.091
36.315,-0.168
36.320,-0.015
36.325,0.148
36.330,-0.111
36.335,-0.120
36.340,0.139
36.345,-0.012
36.350,-0.177
36.355,0.079
36.360,0.087
36.365,-0.168
36.370,-0.008
36.375,0.156
36.380,-0.099
36.385,-0.106
36.390,0.151
36.395,-0.001
36.400,-0.165
36.405,0.093
36.410,0.102
36.415,-0.160
36.420,-0.007
36.425,0.159
36.430,-0.100
36.435,-0.109
36.440,0.151
36.445,-0.003
36.450,-0.169
36.455,0.081
36.460,0.078
36.465,-0.199
36.470,-0.059
36.475,0.104
36.480,-0.154
36.485,-0.168
36.490,0.087
36.495,-0.078
36.500,-0.261
36.505,-0.015
36.510,0.013
36.515,-0.212
36.520,-0.031
36.525,0.143
36.530,-0.124
36.535,-0.121
36.540,0.163
36.545,0.022
36.550,-0.127
36.555,0.139
36.560,0.143
36.565,-0.119
36.570,0.034
36.575,0.189
36.580,-0.072
36.585,-0.075
36.590,0.182
36.595,0.044
36.600,-0.050
36.605,0.204
36.610,-0.064
36.615,-0.950
36.620,-1.670
36.625,-1.975
36.630,-1.947
36.635,-1.524
36.640,-0.650
36.645,0.035
36.650,0.231
36.655,0.481
36.660,0.513
36.665,0.287
36.670,0.464
36.675,0.628
36.680,0.359
36.685,0.351
36.690,0.594
36.695,0.414
36.700,0.236
36.705,0.475
36.710,0.454
36.715,0.180
36.720,0.322
36.725,0.461
36.730,0.184
36.735,0.169
36.740,0.409
36.745,0.226
36.750,0.051
36.755,0.298
36.760,0.279
36.765,0.004
36.770,0.151
36.775,0.288
36.780,0.009
36.785,-0.007
36.790,0.229
36.795,0.050
36.800,-0.122
36.805,0.115
36.810,0.092
36.815,-0.178
36.820,-0.026
36.825,0.121
36.830,-0.148
36.835,-0.149
36.840,0.106
36.845,-0.056
36.850,-0.202
36.855,0.070
36.860,0.079
36.865,-0.158
36.870,0.022
36.875,0.196
36.880,-0.044
36.885,-0.027
36.890,0.238
36.895,0.078
36.900,-0.072
36.905,0.193
36.910,0.190
36.915,-0.066
36.920,0.094
36.925,0.239
36.930,-0.033
36.935,-0.033
36.940,0.215
36.945,0.039
36.950,-0.118
36.955,0.136
36.960,0.116
36.965,-0.148
36.970,0.010
36.975,0.159
36.980,-0.103
36.985,-0.098
36.990,0.149
36.995,-0.030
37.000,-0.182
37.005,0.080
37.010,0.060
37.015,-0.195
37.020,-0.024
37.025,0.120
37.030,-0.145
37.035,-0.133
37.040,0.123
37.045,-0.044
37.050,-0.193
37.055,0.069
37.060,0.060
37.065,-0.193
37.070,-0.025
37.075,0.123
37.080,-0.136
37.085,-0.121
37.090,0.129
37.095,-0.044
37.100,-0.194
37.105,0.064
37.110,0.046
37.115,-0.208
37.120,-0.035
37.125,0.114
37.130,-0.147
37.135,-0.126
37.140,0.129
37.145,-0.046
37.150,-0.200
37.155,0.050
37.160,0.034
37.165,-0.213
37.170,-0.045
37.175,0.096
37.180,-0.175
37.185,-0.167
37.190,0.089
37.195,-0.087
37.200,-0.251
37.205,0.000
37.210,-0.040
37.215,-0.327
37.220,-0.152
37.225,0.034
37.230,-0.188
37.235,-0.144
37.240,0.110
37.245,-0.062
37.250,-0.191
37.255,0.095
37.260,0.103
37.265,-0.142
37.270,0.023
37.275,0.168
37.280,-0.100
37.285,-0.087
37.290,0.171
37.295,-0.004
37.300,-0.155
37.305,0.112
37.310,0.139
37.315,-0.065
37.320,-0.010
37.325,-0.298
37.330,-1.329
37.335,-2.049
37.340,-1.923
37.345,-1.687
37.350,-1.165
37.355,-0.067
37.360,0.415
37.365,0.215
37.370,0.404
37.375,0.574
37.380,0.315
37.385,0.347
37.390,0.594
37.395,0.406
37.400,0.251
37.405,0.499
37.410,0.462
37.415,0.199
37.420,0.357
37.425,0.476
37.430,0.196
37.435,0.213
37.440,0.457
37.445,0.257
37.450,0.092
37.455,0.336
37.460,0.287
37.465,0.016
37.470,0.184
37.475,0.305
37.480,0.017
37.485,0.035
37.490,0.280
37.495,0.087
37.500,-0.063
37.505,0.178
37.510,0.116
37.515,-0.152
37.520,0.029
37.525,0.164
37.530,-0.119
37.535,-0.102
37.540,0.151
37.545,-0.038
37.550,-0.186
37.555,0.086
37.560,0.067
37.565,-0.164
37.570,0.036
37.575,0.185
37.580,-0.063
37.585,-0.022
37.590,0.236
37.595,0.071
37.600,-0.053
37.605,0.224
37.610,0.202
37.615,-0.051
37.620,0.127
37.625,0.261
37.630,-0.011
37.635,0.020
37.640,0.278
37.645,0.089
37.650,-0.048
37.655,0.222
37.660,0.172
37.665,-0.095
37.670,0.090
37.675,0.217
37.680,-0.064
37.685,-0.038
37.690,0.198
37.695,-0.005
37.700,-0.147
37.705,0.123
37.710,0.087
37.715,-0.177
37.720,0.007
37.725,0.146
37.730,-0.119
37.735,-0.080
37.740,0.167
37.745,-0.031
37.750,-0.172
37.755,0.101
37.760,0.072
37.765,-0.174
37.770,0.023
37.775,0.160
37.780,-0.119
37.785,-0.092
37.790,0.164
37.795,-0.013
37.800,-0.150
37.805,0.101
37.810,0.060
37.815,-0.173
37.820,0.023
37.825,0.146
37.830,-0.129
37.835,-0.089
37.840,0.164
37.845,-0.029
37.850,-0.161
37.855,0.112
37.860,0.064
37.865,-0.204
37.870,-0.009
37.875,0.137
37.880,-0.141
37.885,-0.114
37.890,0.124
37.895,-0.086
37.900,-0.219
37.905,0.060
37.910,0.017
37.915,-0.237
37.920,-0.051
37.925,0.043
37.930,-0.261
37.935,-0.196
37.940,0.087
37.945,-0.084
37.950,-0.195
37.955,0.079
37.960,0.047
37.965,-0.180
37.970,0.024
37.975,0.167
37.980,-0.090
37.985,-0.051
37.990,0.187
37.995,-0.006
38.000,-0.134
38.005,0.127
38.010,0.075
38.015,-0.165
38.020,0.074
38.025,0.268
38.030,-0.020
38.035,-0.220
38.040,-0.520
38.045,-1.472
38.050,-2.096
38.055,-1.791
38.060,-1.417
38.065,-0.841
38.070,0.159
38.075,0.533
38.080,0.243
38.085,0.300
38.090,0.552
38.095,0.372
38.100,0.264
38.105,0.531
38.110,0.470
38.115,0.208
38.120,0.391
38.125,0.495
38.130,0.197
38.135,0.236
38.140,0.479
38.145,0.266
38.150,0.128
38.155,0.384
38.160,0.316
38.165,0.052
38.170,0.230
38.175,0.331
38.180,0.043
38.185,0.080
38.190,0.309
38.195,0.099
38.200,-0.031
38.205,0.221
38.210,0.145
38.215,-0.113
38.220,0.069
38.225,0.174
38.230,-0.105
38.235,-0.066
38.240,0.167
38.245,-0.031
38.250,-0.154
38.255,0.106
38.260,0.056
38.265,-0.182
38.270,0.018
38.275,0.141
38.280,-0.122
38.285,-0.058
38.290,0.196
38.295,0.007
38.300,-0.098
38.305,0.184
38.310,0.143
38.315,-0.083
38.320,0.126
38.325,0.242
38.330,-0.025
38.335,0.034
38.340,0.273
38.345,0.066
38.350,-0.053
38.355,0.217
38.360,0.158
38.365,-0.092
38.370,0.098
38.375,0.208
38.380,-0.069
38.385,-0.024
38.390,0.201
38.395,-0.010
38.400,-0.127
38.405,0.135
38.410,0.064
38.415,-0.172
38.420,0.035
38.425,0.140
38.430,-0.136
38.435,-0.083
38.440,0.149
38.445,-0.057
38.450,-0.167
38.455,0.109
38.460,0.056
38.465,-0.176
38.470,0.027
38.475,0.138
38.480,-0.133
38.485,-0.077
38.490,0.160
38.495,-0.041
38.500,-0.145
38.505,0.127
38.510,0.063
38.515,-0.177
38.520,0.024
38.525,0.135
38.530,-0.135
38.535,-0.077
38.540,0.159
38.545,-0.048
38.550,-0.162
38.555,0.114
38.560,0.060
38.565,-0.180
38.570,0.019
38.575,0.125
38.580,-0.148
38.585,-0.089
38.590,0.144
38.595,-0.065
38.600,-0.181
38.605,0.073
38.610,0.001
38.615,-0.230
38.620,-0.031
38.625,0.066
38.630,-0.224
38.635,-0.189
38.640,0.051
38.645,-0.120
38.650,-0.193
38.655,0.099
38.660,0.032
38.665,-0.202
38.670,0.028
38.675,0.152
38.680,-0.106
38.685,-0.034
38.690,0.199
38.695,-0.004
38.700,-0.109
38.705,0.157
38.710,0.089
38.715,-0.149
38.720,0.064
38.725,0.198
38.730,-0.014
38.735,0.056
38.740,0.070
38.745,-0.688
38.750,-1.650
38.755,-2.034
38.760,-1.962
38.765,-1.688
38.770,-0.859
38.775,0.109
38.780,0.306
38.785,0.372
38.790,0.619
38.795,0.439
38.800,0.349
38.805,0.635
38.810,0.564
38.815,0.320
38.820,0.515
38.825,0.601
38.830,0.307
38.835,0.352
38.840,0.572
38.845,0.346
38.850,0.219
38.855,0.470
38.860,0.381
38.865,0.135
38.870,0.331
38.875,0.408
38.880,0.116
38.885,0.165
38.890,0.374
38.895,0.145
38.900,0.029
38.905,0.280
38.910,0.189
38.915,-0.063
38.920,0.126
38.925,0.205
38.930,-0.086
38.935,-0.035
38.940,0.177
38.945,-0.048
38.950,-0.156
38.955,0.107
38.960,0.026
38.965,-0.211
38.970,-0.002
38.975,0.101
38.980,-0.162
38.985,-0.076
38.990,0.168
38.995,-0.032
39.000,-0.111
39.005,0.176
39.010,0.114
39.015,-0.101
39.020,0.125
39.025,0.226
39.030,-0.045
39.035,0.032
39.040,0.263
39.045,0.045
39.050,-0.056
39.055,0.211
39.060,0.131
39.065,-0.103
39.070,0.100
39.075,0.185
39.080,-0.097
39.085,-0.030
39.090,0.191
39.095,-0.033
39.100,-0.135
39.105,0.127
39.110,0.040
39.115,-0.191
39.120,0.023
39.125,0.108
39.130,-0.177
39.135,-0.106
39.140,0.118
39.145,-0.104
39.150,-0.199
39.155,0.073
39.160,-0.008
39.165,-0.234
39.170,-0.018
39.175,0.072
39.180,-0.201
39.185,-0.120
39.190,0.108
39.195,-0.108
39.200,-0.197
39.205,0.081
39.210,0.004
39.215,-0.222
39.220,-0.005
39.225,0.086
39.230,-0.187
39.235,-0.108
39.240,0.118
39.245,-0.103
39.250,-0.194
39.255,0.083
39.260,0.005
39.265,-0.223
39.270,-0.001
39.275,0.091
39.280,-0.189
39.285,-0.112
39.290,0.113
39.295,-0.105
39.300,-0.193
39.305,0.071
39.310,-0.029
39.315,-0.266
39.320,-0.046
39.325,0.043
39.330,-0.237
39.335,-0.164
39.340,0.037
39.345,-0.200
39.350,-0.269
39.355,0.036
39.360,-0.020
39.365,-0.226
39.370,-0.009
39.375,0.076
39.380,-0.177
39.385,-0.071
39.390,0.174
39.395,-0.033
39.400,-0.124
39.405,0.150
39.410,0.063
39.415,-0.168
39.420,0.053
39.425,0.143
39.430,-0.133
39.435,-0.029
39.440,0.257
39.445,0.038
39.450,-0.299
39.455,-0.638
39.460,-1.520
39.465,-2.160
39.470,-1.935
39.475,-1.608
39.480,-1.066
39.485,-0.062
39.490,0.523
39.495,0.352
39.500,0.297
39.505,0.599
39.510,0.530
39.515,0.319
39.520,0.534
39.525,0.604
39.530,0.325
39.535,0.399
39.540,0.594
39.545,0.351
39.550,0.253
39.555,0.507
39.560,0.399
39.565,0.161
39.570,0.363
39.575,0.422
39.580,0.128
39.585,0.199
39.590,0.401
39.595,0.157
39.600,0.059
39.605,0.316
39.610,0.205
39.615,-0.038
39.620,0.168
39.625,0.234
39.630,-0.058
39.635,0.010
39.640,0.210
39.645,-0.036
39.650,-0.134
39.655,0.131
39.660,0.032
39.665,-0.198
39.670,0.019
39.675,0.094
39.680,-0.183
39.685,-0.091
39.690,0.136
39.695,-0.076
39.700,-0.135
39.705,0.161
39.710,0.087
39.715,-0.114
39.720,0.130
39.725,0.222
39.730,-0.037
39.735,0.070
39.740,0.292
39.745,0.068
39.750,-0.005
39.755,0.268
39.760,0.165
39.765,-0.059
39.770,0.166
39.775,0.231
39.780,-0.056
39.785,0.035
39.790,0.246
39.795,0.006
39.800,-0.076
39.805,0.195
39.810,0.089
39.815,-0.136
39.820,0.089
39.825,0.155
39.830,-0.129
39.835,-0.035
39.840,0.177
39.845,-0.060
39.850,-0.137
39.855,0.137
39.860,0.035
39.865,-0.184
39.870,0.046
39.875,0.117
39.880,-0.162
39.885,-0.068
39.890,0.142
39.895,-0.087
39.900,-0.149
39.905,0.131
39.910,0.028
39.915,-0.189
39.920,0.044
39.925,0.114
39.930,-0.163
39.935,-0.062
39.940,0.151
39.945,-0.084
39.950,-0.153
39.955,0.122
39.960,0.020
39.965,-0.193
39.970,0.039
39.975,0.105
39.980,-0.172
39.985,-0.071
39.990,0.138
39.995,-0.100
40.000,-0.171
40.005,0.103
40.010,-0.005
40.015,-0.227
40.020,-0.006
40.025,0.056
40.030,-0.219
40.035,-0.123
40.040,0.074
40.045,-0.183
40.050,-0.272
40.055,0.016
40.060,-0.054
40.065,-0.232
40.070,0.022
40.075,0.085
40.080,-0.183
40.085,-0.054
40.090,0.176
40.095,-0.047
40.100,-0.109
40.105,0.164
40.110,0.061
40.115,-0.151
40.120,0.080
40.125,0.144
40.130,-0.133
40.135,-0.021
40.140,0.209
40.145,0.028
40.150,-0.010
40.155,0.062
40.160,-0.596
40.165,-1.660
40.170,-2.080
40.175,-1.923
40.180,-1.707
40.185,-0.959
40.190,0.080
40.195,0.298
40.200,0.263
40.205,0.566
40.210,0.494
40.215,0.292
40.220,0.540
40.225,0.609
40.230,0.323
40.235,0.417
40.240,0.616
40.245,0.360
40.250,0.274
40.255,0.526
40.260,0.394
40.265,0.163
40.270,0.389
40.275,0.445
40.280,0.146
40.285,0.227
40.290,0.415
40.295,0.160
40.300,0.080
40.305,0.337
40.310,0.208
40.315,-0.020
40.320,0.199
40.325,0.240
40.330,-0.054
40.335,0.043
40.340,0.237
40.345,-0.022
40.350,-0.102
40.355,0.158
40.360,0.027
40.365,-0.200
40.370,0.027
40.375,0.086
40.380,-0.181
40.385,-0.061
40.390,0.145
40.395,-0.090
40.400,-0.134
40.405,0.152
40.410,0.049
40.415,-0.131
40.420,0.126
40.425,0.191
40.430,-0.062
40.435,0.064
40.440,0.272
40.445,0.047
40.450,0.003
40.455,0.276
40.460,0.157
40.465,-0.048
40.470,0.188
40.475,0.228
40.480,-0.054
40.485,0.057
40.490,0.252
40.495,0.007
40.500,-0.054
40.505,0.199
40.510,0.080
40.515,-0.111
40.520,0.113
40.525,0.146
40.530,-0.133
40.535,-0.028
40.540,0.164
40.545,-0.081
40.550,-0.141
40.555,0.122
40.560,-0.004
40.565,-0.208
40.570,0.032
40.575,0.089
40.580,-0.171
40.585,-0.046
40.590,0.150
40.595,-0.104
40.600,-0.168
40.605,0.104
40.610,-0.010
40.615,-0.207
40.620,0.036
40.625,0.087
40.630,-0.181
40.635,-0.058
40.640,0.137
40.645,-0.107
40.650,-0.151
40.655,0.127
40.660,0.011
40.665,-0.191
40.670,0.039
40.675,0.078
40.680,-0.193
40.685,-0.074
40.690,0.119
40.695,-0.118
40.700,-0.156
40.705,0.109
40.710,-0.028
40.715,-0.232
40.720,0.006
40.725,0.044
40.730,-0.235
40.735,-0.129
40.740,0.044
40.745,-0.224
40.750,-0.269
40.755,0.037
40.760,-0.043
40.765,-0.213
40.770,0.028
40.775,0.090
40.780,-0.150
40.785,-0.016
40.790,0.186
40.795,-0.058
40.800,-0.109
40.805,0.164
40.810,0.044
40.815,-0.149
40.820,0.093
40.825,0.128
40.830,-0.141
40.835,0.014
40.840,0.272
40.845,0.025
40.850,-0.246
40.855,-0.525
40.860,-1.425
40.865,-2.096
40.870,-1.798
40.875,-1.369
40.880,-0.840
40.885,0.084
40.890,0.534
40.895,0.287
40.900,0.253
40.905,0.532
40.910,0.430
40.915,0.255
40.920,0.497
40.925,0.526
40.930,0.232
40.935,0.334
40.940,0.513
40.945,0.256
40.950,0.206
40.955,0.464
40.960,0.318
40.965,0.109
40.970,0.336
40.975,0.354
40.980,0.065
40.985,0.171
40.990,0.344
40.995,0.095
41.000,0.053
41.005,0.303
41.010,0.151
41.015,-0.067
41.020,0.151
41.025,0.180
41.030,-0.093
41.035,0.021
41.040,0.188
41.045,-0.073
41.050,-0.115
41.055,0.144
41.060,0.009
41.065,-0.175
41.070,0.073
41.075,0.107
41.080,-0.166
41.085,-0.038
41.090,0.155
41.095,-0.088
41.100,-0.116
41.105,0.166
41.110,0.053
41.115,-0.113
41.120,0.152
41.125,0.198
41.130,-0.063
41.135,0.072
41.140,0.264
41.145,0.023
41.150,-0.011
41.155,0.261
41.160,0.132
41.165,-0.061
41.170,0.177
41.175,0.196
41.180,-0.085
41.185,0.041
41.190,0.217
41.195,-0.031
41.200,-0.059
41.205,0.194
41.210,0.039
41.215,-0.157
41.220,0.084
41.225,0.106
41.230,-0.168
41.235,-0.032
41.240,0.151
41.245,-0.103
41.250,-0.142
41.255,0.115
41.260,-0.019
41.265,-0.192
41.270,0.057
41.275,0.088
41.280,-0.174
41.285,-0.043
41.290,0.138
41.295,-0.104
41.300,-0.131
41.305,0.133
41.310,-0.003
41.315,-0.175
41.320,0.078
41.325,0.099
41.330,-0.167
41.335,-0.030
41.340,0.147
41.345,-0.097
41.350,-0.117
41.355,0.147
41.360,0.009
41.365,-0.168
41.370,0.073
41.375,0.087
41.380,-0.178
41.385,-0.039
41.390,0.136
41.395,-0.123
41.400,-0.165
41.405,0.088
41.410,-0.049
41.415,-0.232
41.420,0.005
41.425,0.022
41.430,-0.264
41.435,-0.145
41.440,0.061
41.445,-0.146
41.450,-0.150
41.455,0.119
41.460,-0.021
41.465,-0.185
41.470,0.085
41.475,0.123
41.480,-0.130
41.485,0.015
41.490,0.196
41.495,-0.052
41.500,-0.081
41.505,0.176
41.510,0.026
41.515,-0.155
41.520,0.105
41.525,0.178
41.530,-0.023
41.535,0.033
41.540,-0.154
41.545,-1.088
41.550,-1.924
41.555,-2.004
41.560,-1.820
41.565,-1.407
41.570,-0.340
41.575,0.407
41.580,0.288
41.585,0.383
41.590,0.586
41.595,0.347
41.600,0.344
41.605,0.606
41.610,0.454
41.615,0.276
41.620,0.512
41.625,0.510
41.630,0.234
41.635,0.364
41.640,0.519
41.645,0.247
41.650,0.206
41.655,0.448
41.660,0.289
41.665,0.103
41.670,0.339
41.675,0.337
41.680,0.055
41.685,0.183
41.690,0.338
41.695,0.065
41.700,0.027
41.705,0.267
41.710,0.106
41.715,-0.082
41.720,0.147
41.725,0.147
41.730,-0.125
41.735,0.004
41.740,0.155
41.745,-0.104
41.750,-0.123
41.755,0.128
41.760,-0.020
41.765,-0.184
41.770,0.064
41.775,0.081
41.780,-0.162
41.785,0.000
41.790,0.182
41.795,-0.055
41.800,-0.058
41.805,0.216
41.810,0.087
41.815,-0.067
41.820,0.195
41.825,0.219
41.830,-0.036
41.835,0.111
41.840,0.280
41.845,0.023
41.850,0.003
41.855,0.260
41.860,0.107
41.865,-0.068
41.870,0.177
41.875,0.180
41.880,-0.087
41.885,0.057
41.890,0.216
41.895,-0.050
41.900,-0.070
41.905,0.182
41.910,0.024
41.915,-0.150
41.920,0.094
41.925,0.094
41.930,-0.173
41.935,-0.027
41.940,0.140
41.945,-0.119
41.950,-0.134
41.955,0.124
41.960,-0.032
41.965,-0.198
41.970,0.058
41.975,0.068
41.980,-0.187
41.985,-0.032
41.990,0.134
41.995,-0.118
42.000,-0.125
42.005,0.132
42.010,-0.023
42.015,-0.189
42.020,0.067
42.025,0.074
42.030,-0.184
42.035,-0.026
42.040,0.140
42.045,-0.122
42.050,-0.133
42.055,0.130
42.060,-0.024
42.065,-0.193
42.070,0.060
42.075,0.057
42.080,-0.219
42.085,-0.075
42.090,0.089
42.095,-0.174
42.100,-0.185
42.105,0.079
42.110,-0.084
42.115,-0.277
42.120,-0.032
42.125,-0.002
42.130,-0.233
42.135,-0.053
42.140,0.128
42.145,-0.140
42.150,-0.147
42.155,0.142
42.160,0.009
42.165,-0.141
42.170,0.126
42.175,0.129
42.180,-0.134
42.185,0.021
42.190,0.177
42.195,-0.088
42.200,-0.088
42.205,0.176
42.210,0.035
42.215,-0.067
42.220,0.203
42.225,-0.043
42.230,-0.908
42.235,-1.625
42.240,-1.961
42.245,-1.956
42.250,-1.611
42.255,-0.833
42.260,-0.077
42.265,0.228
42.270,0.492
42.275,0.526
42.280,0.297
42.285,0.473
42.290,0.646
42.295,0.378
42.300,0.366
42.305,0.613
42.310,0.434
42.315,0.253
42.320,0.493
42.325,0.472
42.330,0.195
42.335,0.341
42.340,0.479
42.345,0.193
42.350,0.176
42.355,0.421
42.360,0.237
42.365,0.055
42.370,0.300
42.375,0.281
42.380,0.000
42.385,0.141
42.390,0.283
42.395,0.006
42.400,-0.010
42.405,0.228
42.410,0.041
42.415,-0.136
42.420,0.111
42.425,0.091
42.430,-0.184
42.435,-0.031
42.440,0.120
42.445,-0.153
42.450,-0.158
42.455,0.099
42.460,-0.059
42.465,-0.202
42.470,0.077
42.475,0.092
42.480,-0.148
42.485,0.033
42.490,0.207
42.495,-0.037
42.500,-0.015
42.505,0.258
42.510,0.099
42.515,-0.050
42.520,0.220
42.525,0.214
42.530,-0.049
42.535,0.115
42.540,0.266
42.545,-0.003
42.550,-0.007
42.555,0.241
42.560,0.066
42.565,-0.098
42.570,0.155
42.575,0.140
42.580,-0.120
42.585,0.043
42.590,0.188
42.595,-0.082
42.600,-0.078
42.605,0.171
42.610,-0.007
42.615,-0.164
42.620,0.097
42.625,0.080
42.630,-0.182
42.635,-0.015
42.640,0.137
42.645,-0.130
42.650,-0.126
42.655,0.127
42.660,-0.038
42.665,-0.185
42.670,0.074
42.675,0.062
42.680,-0.193
42.685,-0.023
42.690,0.129
42.695,-0.137
42.700,-0.122
42.705,0.140
42.710,-0.031
42.715,-0.184
42.720,0.079
42.725,0.065
42.730,-0.192
42.735,-0.022
42.740,0.129
42.745,-0.136
42.750,-0.124
42.755,0.129
42.760,-0.052
42.765,-0.214
42.770,0.035
42.775,0.012
42.780,-0.245
42.785,-0.078
42.790,0.065
42.795,-0.206
42.800,-0.215
42.805,0.024
42.810,-0.128
42.815,-0.246
42.820,0.044
42.825,0.046
42.830,-0.213
42.835,-0.030
42.840,0.147
42.845,-0.099
42.850,-0.068
42.855,0.193
42.860,0.013
42.865,-0.135
42.870,0.129
42.875,0.107
42.880,-0.150
42.885,0.023
42.890,0.169
42.895,-0.080
42.900,0.003
42.905,0.287
42.910,-0.101
42.915,-0.815
42.920,-1.410
42.925,-1.924
42.930,-1.997
42.935,-1.595
42.940,-0.924
42.945,-0.237
42.950,0.259
42.955,0.543
42.960,0.405
42.965,0.290
42.970,0.572
42.975,0.564
42.980,0.305
42.985,0.474
42.990,0.607
42.995,0.325
43.000,0.329
43.005,0.560
43.010,0.359
43.015,0.197
43.020,0.446
43.025,0.406
43.030,0.134
43.035,0.292
43.040,0.414
43.045,0.129
43.050,0.135
43.055,0.365
43.060,0.161
43.065,0.007
43.070,0.265
43.075,0.218
43.080,-0.058
43.085,0.103
43.090,0.223
43.095,-0.064
43.100,-0.056
43.105,0.177
43.110,-0.021
43.115,-0.175
43.120,0.078
43.125,0.038
43.130,-0.220
43.135,-0.042
43.140,0.094
43.145,-0.170
43.150,-0.131
43.155,0.136
43.160,-0.027
43.165,-0.148
43.170,0.133
43.175,0.131
43.180,-0.093
43.185,0.100
43.190,0.246
43.195,-0.005
43.200,0.035
43.205,0.284
43.210,0.099
43.215,-0.034
43.220,0.228
43.225,0.190
43.230,-0.066
43.235,0.110
43.240,0.240
43.245,-0.034
43.250,-0.008
43.255,0.235
43.260,0.038
43.265,-0.110
43.270,0.148
43.275,0.115
43.280,-0.131
43.285,0.048
43.290,0.175
43.295,-0.099
43.300,-0.083
43.305,0.151
43.310,-0.031
43.315,-0.161
43.320,0.098
43.325,0.064
43.330,-0.177
43.335,0.009
43.340,0.134
43.345,-0.136
43.350,-0.092
43.355,0.157
43.360,-0.031
43.365,-0.161
43.370,0.097
43.375,0.057
43.380,-0.186
43.385,-0.001
43.390,0.127
43.395,-0.140
43.400,-0.099
43.405,0.151
43.410,-0.041
43.415,-0.180
43.420,0.078
43.425,0.036
43.430,-0.198
43.435,-0.003
43.440,0.115
43.445,-0.152
43.450,-0.114
43.455,0.110
43.460,-0.088
43.465,-0.204
43.470,0.059
43.475,-0.004
43.480,-0.271
43.485,-0.110
43.490,-0.002
43.495,-0.250
43.500,-0.173
43.505,0.103
43.510,-0.071
43.515,-0.196
43.520,0.086
43.525,0.067
43.530,-0.167
43.535,0.036
43.540,0.168
43.545,-0.106
43.550,-0.060
43.555,0.188
43.560,-0.009
43.565,-0.132
43.570,0.132
43.575,0.080
43.580,-0.158
43.585,0.083
43.590,0.260
43.595,-0.121
43.600,-0.496
43.605,-1.010
43.610,-1.844
43.615,-2.056
43.620,-1.584
43.625,-1.062
43.630,-0.394
43.635,0.337
43.640,0.520
43.645,0.256
43.650,0.325
43.655,0.576
43.660,0.397
43.665,0.276
43.670,0.536
43.675,0.480
43.680,0.225
43.685,0.405
43.690,0.511
43.695,0.220
43.700,0.250
43.705,0.477
43.710,0.259
43.715,0.119
43.720,0.369
43.725,0.301
43.730,0.048
43.735,0.233
43.740,0.332
43.745,0.034
43.750,0.071
43.755,0.309
43.760,0.092
43.765,-0.049
43.770,0.202
43.775,0.125
43.780,-0.135
43.785,0.056
43.790,0.161
43.795,-0.123
43.800,-0.083
43.805,0.139
43.810,-0.076
43.815,-0.197
43.820,0.070
43.825,0.016
43.830,-0.217
43.835,-0.002
43.840,0.123
43.845,-0.144
43.850,-0.068
43.855,0.201
43.860,0.021
43.865,-0.078
43.870,0.203
43.875,0.155
43.880,-0.079
43.885,0.134
43.890,0.272
43.895,0.008
43.900,0.053
43.905,0.283
43.910,0.074
43.915,-0.039
43.920,0.230
43.925,0.167
43.930,-0.080
43.935,0.107
43.940,0.205
43.945,-0.075
43.950,-0.022
43.955,0.207
43.960,-0.006
43.965,-0.121
43.970,0.147
43.975,0.083
43.980,-0.163
43.985,0.026
43.990,0.121
43.995,-0.163
44.000,-0.110
44.005,0.127
44.010,-0.077
44.015,-0.180
44.020,0.094
44.025,0.023
44.030,-0.210
44.035,0.003
44.040,0.108
44.045,-0.161
44.050,-0.090
44.055,0.148
44.060,-0.051
44.065,-0.157
44.070,0.101
44.075,0.033
44.080,-0.200
44.085,0.007
44.090,0.115
44.095,-0.166
44.100,-0.106
44.105,0.150
44.110,-0.043
44.115,-0.153
44.120,0.120
44.125,0.053
44.130,-0.204
44.135,-0.017
44.140,0.074
44.145,-0.199
44.150,-0.126
44.155,0.099
44.160,-0.130
44.165,-0.248
44.170,0.010
44.175,-0.062
44.180,-0.277
44.185,-0.035
44.190,0.098
44.195,-0.175
44.200,-0.112
44.205,0.150
44.210,-0.031
44.215,-0.114
44.220,0.161
44.225,0.077
44.230,-0.160
44.235,0.061
44.240,0.166
44.245,-0.112
44.250,-0.050
44.255,0.172
44.260,-0.035
44.265,-0.089
44.270,0.250
44.275,0.156
44.280,-0.330
44.285,-0.697
44.290,-1.383
44.295,-2.035
44.300,-1.851
44.305,-1.322
44.310,-0.723
44.315,0.020
44.320,0.507
44.325,0.423
44.330,0.210
44.335,0.433
44.340,0.551
44.345,0.287
44.350,0.357
44.355,0.583
44.360,0.357
44.365,0.243
44.370,0.497
44.375,0.401
44.380,0.152
44.385,0.351
44.390,0.430
44.395,0.143
44.400,0.198
44.405,0.400
44.410,0.169
44.415,0.064
44.420,0.323
44.425,0.233
44.430,-0.011
44.435,0.187
44.440,0.261
44.445,-0.032
44.450,0.027
44.455,0.239
44.460,0.008
44.465,-0.097
44.470,0.166
44.475,0.070
44.480,-0.175
44.485,0.026
44.490,0.110
44.495,-0.168
44.500,-0.096
44.505,0.133
44.510,-0.081
44.515,-0.168
44.520,0.120
44.525,0.052
44.530,-0.166
44.535,0.070
44.540,0.185
44.545,-0.073
44.550,0.014
44.555,0.248
44.560,0.037
44.565,-0.040
44.570,0.252
44.575,0.175
44.580,-0.054
44.585,0.168
44.590,0.254
44.595,-0.031
44.600,0.043
44.605,0.265
44.610,0.039
44.615,-0.055
44.620,0.214
44.625,0.118
44.630,-0.120
44.635,0.092
44.640,0.174
44.645,-0.111
44.650,-0.040
44.655,0.180
44.660,-0.048
44.665,-0.145
44.670,0.125
44.675,0.043
44.680,-0.179
44.685,0.034
44.690,0.115
44.695,-0.160
44.700,-0.082
44.705,0.136
44.710,-0.088
44.715,-0.171
44.720,0.115
44.725,0.043
44.730,-0.178
44.735,0.037
44.740,0.121
44.745,-0.147
44.750,-0.060
44.755,0.158
44.760,-0.063
44.765,-0.144
44.770,0.127
44.775,0.042
44.780,-0.180
44.785,0.041
44.790,0.123
44.795,-0.156
44.800,-0.074
44.805,0.147
44.810,-0.078
44.815,-0.177
44.820,0.082
44.825,-0.007
44.830,-0.233
44.835,-0.023
44.840,0.057
44.845,-0.217
44.850,-0.153
44.855,0.049
44.860,-0.151
44.865,-0.194
44.870,0.099
44.875,0.017
44.880,-0.208
44.885,0.025
44.890,0.136
44.895,-0.122
44.900,-0.026
44.905,0.205
44.910,-0.023
44.915,-0.107
44.920,0.167
44.925,0.072
44.930,-0.150
44.935,0.071
44.940,0.151
44.945,-0.104
44.950,0.042
44.955,0.274
44.960,-0.163
44.965,-0.783
44.970,-1.333
44.975,-1.906
44.980,-1.977
44.985,-1.543
44.990,-0.888
44.995,-0.190
45.000,0.339
45.005,0.554
45.010,0.351
45.015,0.296
45.020,0.590
45.025,0.515
45.030,0.289
45.035,0.505
45.040,0.568
45.045,0.275
45.050,0.349
45.055,0.549
45.060,0.305
45.065,0.211
45.070,0.465
45.075,0.352
45.080,0.117
45.085,0.326
45.090,0.383
45.095,0.091
45.100,0.167
45.105,0.363
45.110,0.118
45.115,0.026
45.120,0.281
45.125,0.167
45.130,-0.065
45.135,0.142
45.140,0.195
45.145,-0.103
45.150,-0.029
45.155,0.177
45.160,-0.062
45.165,-0.154
45.170,0.110
45.175,0.008
45.180,-0.215
45.185,0.007
45.190,0.078
45.195,-0.189
45.200,-0.083
45.205,0.144
45.210,-0.066
45.215,-0.119
45.220,0.173
45.225,0.093
45.230,-0.103
45.235,0.140
45.240,0.226
45.245,-0.035
45.250,0.070
45.255,0.285
45.260,0.054
45.265,-0.022
45.270,0.247
45.275,0.152
45.280,-0.062
45.285,0.154
45.290,0.213
45.295,-0.066
45.300,0.024
45.305,0.225
45.310,-0.010
45.315,-0.083
45.320,0.176
45.325,0.068
45.330,-0.146
45.335,0.074
45.340,0.132
45.345,-0.145
45.350,-0.050
45.355,0.151
45.360,-0.082
45.365,-0.150
45.370,0.115
45.375,0.010
45.380,-0.200
45.385,0.023
45.390,0.088
45.395,-0.178
45.400,-0.073
45.405,0.136
45.410,-0.096
45.415,-0.158
45.420,0.113
