'Elapsed time','ECG'
'seconds','mV'
0.000,0.006
0.005,-0.032
0.010,-0.054
0.015,-0.006
0.020,-0.021
0.025,-0.075
0.030,-0.048
0.035,-0.022
0.040,-0.053
0.045,-0.029
0.050,0.025
0.055,0.004
0.060,-0.014
0.065,0.028
0.070,0.020
0.075,-0.018
0.080,0.020
0.085,0.045
0.090,-0.006
0.095,-0.007
0.100,0.034
0.105,0.004
0.110,-0.017
0.115,0.027
0.120,0.017
0.125,-0.029
0.130,0.001
0.135,0.022
0.140,-0.017
0.145,0.014
0.150,0.078
0.155,0.021
0.160,-0.122
0.165,-0.339
0.170,-0.669
0.175,-0.928
0.180,-0.909
0.185,-0.613
0.190,-0.178
0.195,0.200
0.200,0.331
0.205,0.225
0.210,0.145
0.215,0.170
0.220,0.148
0.225,0.107
0.230,0.138
0.235,0.156
0.240,0.106
0.245,0.105
0.250,0.139
0.255,0.100
0.260,0.073
0.265,0.110
0.270,0.092
0.275,0.046
0.280,0.077
0.285,0.093
0.290,0.042
0.295,0.046
0.300,0.083
0.305,0.041
0.310,0.015
0.315,0.060
0.320,0.048
0.325,-0.001
0.330,0.030
0.335,0.049
0.340,-0.006
0.345,-0.005
0.350,0.035
0.355,-0.003
0.360,-0.026
0.365,0.015
0.370,0.000
0.375,-0.046
0.380,-0.015
0.385,-0.003
0.390,-0.060
0.395,-0.059
0.400,-0.022
0.405,-0.062
0.410,-0.091
0.415,-0.054
0.420,-0.069
0.425,-0.122
0.430,-0.096
0.435,-0.081
0.440,-0.135
0.445,-0.136
0.450,-0.097
0.455,-0.120
0.460,-0.134
0.465,-0.081
0.470,-0.079
0.475,-0.109
0.480,-0.057
0.485,-0.018
0.490,-0.041
0.495,-0.003
0.500,0.066
0.505,0.051
0.510,0.049
0.515,0.116
0.520,0.122
0.525,0.088
0.530,0.128
0.535,0.153
0.540,0.108
0.545,0.117
0.550,0.157
0.555,0.114
0.560,0.084
0.565,0.131
0.570,0.121
0.575,0.072
0.580,0.102
0.585,0.115
0.590,0.059
0.595,0.066
0.600,0.103
0.605,0.061
0.610,0.040
0.615,0.085
0.620,0.070
0.625,0.024
0.630,0.054
0.635,0.068
0.640,0.016
0.645,0.022
0.650,0.058
0.655,0.019
0.660,-0.005
0.665,0.039
0.670,0.020
0.675,-0.028
0.680,0.006
0.685,0.022
0.690,-0.031
0.695,-0.024
0.700,0.013
0.705,-0.027
0.710,-0.049
0.715,-0.002
0.720,-0.011
0.725,-0.050
0.730,-0.016
0.735,0.000
0.740,-0.045
0.745,-0.032
0.750,0.012
0.755,-0.023
0.760,-0.046
0.765,0.001
0.770,-0.009
0.775,-0.052
0.780,-0.013
0.785,0.007
0.790,-0.047
0.795,-0.043
0.800,-0.007
0.805,-0.044
0.810,-0.063
0.815,-0.020
0.820,-0.034
0.825,-0.074
0.830,-0.036
0.835,-0.026
0.840,-0.083
0.845,-0.073
0.850,-0.029
0.855,-0.054
0.860,-0.053
0.865,0.009
0.870,0.009
0.875,-0.026
0.880,0.012
0.885,0.033
0.890,-0.012
0.895,0.000
0.900,0.042
0.905,0.006
0.910,-0.012
0.915,0.036
0.920,0.022
0.925,-0.019
0.930,0.016
0.935,0.030
0.940,-0.020
0.945,-0.010
0.950,0.030
0.955,-0.004
0.960,0.000
0.965,0.080
0.970,0.069
0.975,-0.049
0.980,-0.226
0.985,-0.541
0.990,-0.882
0.995,-0.993
1.000,-0.814
1.005,-0.406
1.010,0.064
1.015,0.330
1.020,0.285
1.025,0.176
1.030,0.184
1.035,0.186
1.040,0.135
1.045,0.146
1.050,0.183
1.055,0.140
1.060,0.112
1.065,0.154
1.070,0.137
1.075,0.090
1.080,0.120
1.085,0.129
1.090,0.074
1.095,0.082
1.100,0.117
1.105,0.073
1.110,0.049
1.115,0.091
1.120,0.075
1.125,0.032
1.130,0.067
1.135,0.080
1.140,0.024
1.145,0.029
1.150,0.065
1.155,0.022
1.160,0.003
1.165,0.047
1.170,0.026
1.175,-0.017
1.180,0.017
1.185,0.023
1.190,-0.033
1.195,-0.023
1.200,0.014
1.205,-0.033
1.210,-0.061
1.215,-0.019
1.220,-0.036
1.225,-0.087
1.230,-0.060
1.235,-0.049
1.240,-0.109
1.245,-0.113
1.250,-0.078
1.255,-0.121
1.260,-0.146
1.265,-0.102
1.270,-0.113
1.275,-0.151
1.280,-0.111
1.285,-0.086
1.290,-0.124
1.295,-0.097
1.300,-0.035
1.305,-0.047
1.310,-0.037
1.315,0.042
1.320,0.055
1.325,0.035
1.330,0.094
1.335,0.130
1.340,0.094
1.345,0.114
1.350,0.162
1.355,0.128
1.360,0.113
1.365,0.159
1.370,0.141
1.375,0.097
1.380,0.131
1.385,0.141
1.390,0.087
1.395,0.097
1.400,0.133
1.405,0.086
1.410,0.064
1.415,0.108
1.420,0.088
1.425,0.043
1.430,0.081
1.435,0.092
1.440,0.037
1.445,0.050
1.450,0.086
1.455,0.040
1.460,0.021
1.465,0.060
1.470,0.036
1.475,0.004
1.480,0.053
1.485,0.065
1.490,0.004
1.495,0.006
1.500,0.042
1.505,0.006
1.510,-0.009
1.515,0.037
1.520,0.013
1.525,-0.034
1.530,0.006
1.535,0.022
1.540,-0.030
1.545,-0.020
1.550,0.018
1.555,-0.021
1.560,-0.037
1.565,0.009
1.570,-0.006
1.575,-0.044
1.580,-0.007
1.585,0.005
1.590,-0.042
1.595,-0.021
1.600,0.016
1.605,-0.027
1.610,-0.039
1.615,0.010
1.620,-0.006
1.625,-0.045
1.630,-0.006
1.635,0.010
1.640,-0.041
1.645,-0.032
1.650,0.002
1.655,-0.040
1.660,-0.057
1.665,-0.009
1.670,-0.033
1.675,-0.080
1.680,-0.035
1.685,-0.019
1.690,-0.077
1.695,-0.071
1.700,-0.037
1.705,-0.073
1.710,-0.074
1.715,-0.005
1.720,-0.008
1.725,-0.040
1.730,0.012
1.735,0.031
1.740,-0.017
1.745,0.002
1.750,0.041
1.755,0.002
1.760,-0.010
1.765,0.037
1.770,0.022
1.775,-0.018
1.780,0.017
1.785,0.031
1.790,-0.016
1.795,-0.005
1.800,0.029
1.805,-0.008
1.810,-0.017
1.815,0.043
1.820,0.056
1.825,0.036
1.830,0.036
1.835,-0.107
1.840,-0.463
1.845,-0.786
1.850,-0.955
1.855,-0.982
1.860,-0.659
1.865,-0.086
1.870,0.259
1.875,0.282
1.880,0.244
1.885,0.211
1.890,0.146
1.895,0.156
1.900,0.197
1.905,0.148
1.910,0.127
1.915,0.171
1.920,0.147
1.925,0.101
1.930,0.133
1.935,0.139
1.940,0.082
1.945,0.092
1.950,0.125
1.955,0.077
1.960,0.057
1.965,0.101
1.970,0.080
1.975,0.036
1.980,0.072
1.985,0.082
1.990,0.027
1.995,0.036
2.000,0.071
2.005,0.026
2.010,0.005
2.015,0.048
2.020,0.028
2.025,-0.015
2.030,0.021
2.035,0.032
2.040,-0.025
2.045,-0.016
2.050,0.019
2.055,-0.028
2.060,-0.049
2.065,-0.007
2.070,-0.030
2.075,-0.074
2.080,-0.046
2.085,-0.044
2.090,-0.101
2.095,-0.097
2.100,-0.071
2.105,-0.120
2.110,-0.141
2.115,-0.101
2.120,-0.123
2.125,-0.162
2.130,-0.122
2.135,-0.107
2.140,-0.147
2.145,-0.124
2.150,-0.079
2.155,-0.101
2.160,-0.087
2.165,-0.012
2.170,0.001
2.175,-0.004
2.180,0.064
2.185,0.098
2.190,0.068
2.195,0.101
2.200,0.154
2.205,0.124
2.210,0.115
2.215,0.163
2.220,0.147
2.225,0.110
2.230,0.145
2.235,0.153
2.240,0.103
2.245,0.113
2.250,0.145
2.255,0.102
2.260,0.082
2.265,0.122
2.270,0.101
2.275,0.062
2.280,0.100
2.285,0.107
2.290,0.054
2.295,0.067
2.300,0.098
2.305,0.053
2.310,0.036
2.315,0.080
2.320,0.059
2.325,0.018
2.330,0.051
2.335,0.059
2.340,0.011
2.345,0.022
2.350,0.052
2.355,0.007
2.360,-0.007
2.365,0.037
2.370,0.014
2.375,-0.028
2.380,0.009
2.385,0.019
2.390,-0.030
2.395,-0.014
2.400,0.019
2.405,-0.025
2.410,-0.039
2.415,0.008
2.420,-0.010
2.425,-0.046
2.430,-0.005
2.435,0.009
2.440,-0.039
2.445,-0.023
2.450,0.014
2.455,-0.028
2.460,-0.041
2.465,0.008
2.470,-0.010
2.475,-0.047
2.480,-0.007
2.485,0.004
2.490,-0.042
2.495,-0.024
2.500,0.010
2.505,-0.031
2.510,-0.041
2.515,0.008
2.520,-0.012
2.525,-0.048
2.530,-0.005
2.535,-0.002
2.540,-0.057
2.545,-0.038
2.550,-0.007
2.555,-0.047
2.560,-0.057
2.565,-0.020
2.570,-0.041
2.575,-0.075
2.580,-0.041
2.585,-0.039
2.590,-0.092
2.595,-0.072
2.600,-0.019
2.605,-0.040
2.610,-0.042
2.615,0.017
2.620,0.012
2.625,-0.020
2.630,0.021
2.635,0.031
2.640,-0.012
2.645,0.011
2.650,0.044
2.655,0.001
2.660,-0.008
2.665,0.042
2.670,0.025
2.675,-0.013
2.680,0.021
2.685,0.027
2.690,-0.019
2.695,-0.003
2.700,0.031
2.705,0.007
2.710,0.029
2.715,0.095
2.720,0.038
2.725,-0.162
2.730,-0.443
2.735,-0.781
2.740,-1.039
2.745,-0.999
2.750,-0.605
2.755,-0.101
2.760,0.249
2.765,0.348
2.770,0.247
2.775,0.167
2.780,0.195
2.785,0.193
2.790,0.142
2.795,0.159
2.800,0.187
2.805,0.135
2.810,0.119
2.815,0.162
2.820,0.133
2.825,0.089
2.830,0.126
2.835,0.130
2.840,0.075
2.845,0.090
2.850,0.118
2.855,0.066
2.860,0.051
2.865,0.097
2.870,0.073
2.875,0.030
2.880,0.065
2.885,0.070
2.890,0.017
2.895,0.034
2.900,0.067
2.905,0.017
2.910,0.003
2.915,0.046
2.920,0.018
2.925,-0.020
2.930,0.014
2.935,0.012
2.940,-0.037
2.945,-0.016
2.950,0.010
2.955,-0.046
2.960,-0.060
2.965,-0.017
2.970,-0.050
2.975,-0.092
2.980,-0.060
2.985,-0.064
2.990,-0.117
2.995,-0.108
3.000,-0.083
3.005,-0.130
3.010,-0.148
3.015,-0.104
3.020,-0.119
3.025,-0.150
3.030,-0.105
3.035,-0.088
3.040,-0.126
3.045,-0.091
3.050,-0.028
3.055,-0.041
3.060,-0.025
3.065,0.047
3.070,0.052
3.075,0.043
3.080,0.104
3.085,0.128
3.090,0.094
3.095,0.122
3.100,0.165
3.105,0.125
3.110,0.115
3.115,0.165
3.120,0.138
3.125,0.096
3.130,0.137
3.135,0.140
3.140,0.084
3.145,0.101
3.150,0.135
3.155,0.089
3.160,0.074
3.165,0.116
3.170,0.086
3.175,0.048
3.180,0.091
3.185,0.090
3.190,0.036
3.195,0.057
3.200,0.089
3.205,0.041
3.210,0.025
3.215,0.067
3.220,0.037
3.225,-0.004
3.230,0.039
3.235,0.042
3.240,-0.012
3.245,0.007
3.250,0.035
3.255,-0.014
3.260,-0.023
3.265,0.022
3.270,-0.002
3.275,-0.037
3.280,0.003
3.285,0.011
3.290,-0.037
3.295,-0.016
3.300,0.017
3.305,-0.032
3.310,-0.039
3.315,0.015
3.320,-0.008
3.325,-0.047
3.330,-0.003
3.335,0.010
3.340,-0.038
3.345,-0.021
3.350,0.008
3.355,-0.035
3.360,-0.035
3.365,0.014
3.370,-0.013
3.375,-0.046
3.380,-0.004
3.385,0.002
3.390,-0.044
3.395,-0.022
3.400,0.010
3.405,-0.035
3.410,-0.042
3.415,0.008
3.420,-0.013
3.425,-0.047
3.430,-0.007
3.435,-0.001
3.440,-0.053
3.445,-0.035
3.450,0.000
3.455,-0.045
3.460,-0.052
3.465,-0.012
3.470,-0.045
3.475,-0.075
3.480,-0.026
3.485,-0.025
3.490,-0.087
3.495,-0.066
3.500,-0.025
3.505,-0.057
3.510,-0.045
3.515,0.013
3.520,-0.003
3.525,-0.025
3.530,0.025
3.535,0.029
3.540,-0.020
3.545,0.006
3.550,0.043
3.555,0.001
3.560,-0.006
3.565,0.040
3.570,0.011
3.575,-0.024
3.580,0.021
3.585,0.026
3.590,-0.020
3.595,0.000
3.600,0.027
3.605,-0.012
3.610,0.001
3.615,0.073
3.620,0.052
3.625,-0.042
3.630,-0.179
3.635,-0.475
3.640,-0.789
3.645,-0.877
3.650,-0.747
3.655,-0.415
3.660,0.039
3.665,0.325
3.670,0.289
3.675,0.176
3.680,0.185
3.685,0.180
3.690,0.123
3.695,0.140
3.700,0.171
3.705,0.120
3.710,0.107
3.715,0.150
3.720,0.120
3.725,0.083
3.730,0.121
3.735,0.119
3.740,0.067
3.745,0.085
3.750,0.112
3.755,0.064
3.760,0.051
3.765,0.092
3.770,0.066
3.775,0.032
3.780,0.070
3.785,0.066
3.790,0.015
3.795,0.038
3.800,0.065
3.805,0.016
3.810,0.006
3.815,0.048
3.820,0.021
3.825,-0.016
3.830,0.022
3.835,0.024
3.840,-0.024
3.845,-0.005
3.850,0.016
3.855,-0.036
3.860,-0.043
3.865,0.001
3.870,-0.034
3.875,-0.077
3.880,-0.040
3.885,-0.045
3.890,-0.103
3.895,-0.084
3.900,-0.059
3.905,-0.109
3.910,-0.122
3.915,-0.082
3.920,-0.105
3.925,-0.132
3.930,-0.084
3.935,-0.079
3.940,-0.119
3.945,-0.082
3.950,-0.034
3.955,-0.057
3.960,-0.036
3.965,0.035
3.970,0.031
3.975,0.025
3.980,0.087
3.985,0.101
3.990,0.068
3.995,0.103
4.000,0.138
4.005,0.101
4.010,0.103
4.015,0.150
4.020,0.120
4.025,0.085
4.030,0.128
4.035,0.131
4.040,0.080
4.045,0.100
4.050,0.125
4.055,0.075
4.060,0.069
4.065,0.112
4.070,0.081
4.075,0.046
4.080,0.088
4.085,0.083
4.090,0.031
4.095,0.055
4.100,0.079
4.105,0.026
4.110,0.019
4.115,0.061
4.120,0.030
4.125,-0.002
4.130,0.037
4.135,0.032
4.140,-0.019
4.145,0.001
4.150,0.027
4.155,-0.020
4.160,-0.027
4.165,0.017
4.170,-0.014
4.175,-0.046
4.180,0.003
4.185,0.001
4.190,-0.048
4.195,-0.018
4.200,0.009
4.205,-0.038
4.210,-0.038
4.215,0.008
4.220,-0.019
4.225,-0.046
4.230,-0.001
4.235,0.001
4.240,-0.044
4.245,-0.017
4.250,0.010
4.255,-0.040
4.260,-0.044
4.265,-0.001
4.270,-0.027
4.275,-0.054
4.280,-0.015
4.285,-0.021
4.290,-0.069
4.295,-0.043
4.300,-0.014
4.305,-0.064
4.310,-0.073
4.315,-0.030
4.320,-0.049
4.325,-0.063
4.330,-0.005
4.335,0.007
4.340,-0.029
4.345,0.003
4.350,0.036
4.355,-0.009
4.360,-0.010
4.365,0.036
4.370,0.010
4.375,-0.018
4.380,0.028
4.385,0.026
4.390,-0.021
4.395,0.008
4.400,0.034
4.405,-0.014
4.410,-0.013
4.415,0.032
4.420,0.002
4.425,-0.015
4.430,0.054
4.435,0.066
4.440,-0.013
4.445,-0.122
4.450,-0.367
4.455,-0.703
4.460,-0.875
4.465,-0.820
4.470,-0.565
4.475,-0.133
4.480,0.240
4.485,0.300
4.490,0.184
4.495,0.167
4.500,0.179
4.505,0.129
4.510,0.127
4.515,0.166
4.520,0.136
4.525,0.104
4.530,0.141
4.535,0.137
4.540,0.084
4.545,0.103
4.550,0.128
4.555,0.076
4.560,0.067
4.565,0.110
4.570,0.077
4.575,0.041
4.580,0.080
4.585,0.077
4.590,0.029
4.595,0.050
4.600,0.074
4.605,0.028
4.610,0.026
4.615,0.068
4.620,0.033
4.625,-0.005
4.630,0.035
4.635,0.031
4.640,-0.018
4.645,0.008
4.650,0.031
4.655,-0.022
4.660,-0.025
4.665,0.014
4.670,-0.020
4.675,-0.052
4.680,-0.016
4.685,-0.024
4.690,-0.072
4.695,-0.053
4.700,-0.037
4.705,-0.089
4.710,-0.096
4.715,-0.064
4.720,-0.102
4.725,-0.130
4.730,-0.090
4.735,-0.097
4.740,-0.140
4.745,-0.105
4.750,-0.072
4.755,-0.109
4.760,-0.097
4.765,-0.037
4.770,-0.045
4.775,-0.049
4.780,0.022
4.785,0.043
4.790,0.024
4.795,0.073
4.800,0.113
4.805,0.080
4.810,0.092
4.815,0.147
4.820,0.126
4.825,0.100
4.830,0.142
4.835,0.136
4.840,0.089
4.845,0.116
4.850,0.138
4.855,0.086
4.860,0.081
4.865,0.122
4.870,0.089
4.875,0.059
4.880,0.103
4.885,0.096
4.890,0.046
4.895,0.071
4.900,0.091
4.905,0.042
4.910,0.041
4.915,0.080
4.920,0.046
4.925,0.016
4.930,0.058
4.935,0.052
4.940,-0.001
4.945,0.024
4.950,0.046
4.955,-0.008
4.960,-0.009
4.965,0.032
4.970,-0.002
4.975,-0.027
4.980,0.015
4.985,0.005
4.990,-0.045
4.995,-0.015
5.000,0.013
5.005,-0.034
5.010,-0.035
5.015,0.009
5.020,-0.020
5.025,-0.046
5.030,0.002
5.035,0.000
5.040,-0.048
5.045,-0.019
5.050,0.010
5.055,-0.036
5.060,-0.034
5.065,0.012
5.070,-0.019
5.075,-0.042
5.080,0.006
5.085,-0.004
5.090,-0.049
5.095,-0.014
5.100,0.009
5.105,-0.038
5.110,-0.035
5.115,0.007
5.120,-0.023
5.125,-0.047
5.130,-0.001
5.135,-0.007
5.140,-0.053
5.145,-0.023
5.150,-0.001
5.155,-0.051
5.160,-0.048
5.165,-0.006
5.170,-0.041
5.175,-0.072
5.180,-0.028
5.185,-0.032
5.190,-0.079
5.195,-0.046
5.200,-0.028
5.205,-0.081
5.210,-0.064
5.215,0.001
5.220,-0.020
5.225,-0.039
5.230,0.019
5.235,0.022
5.240,-0.024
5.245,0.006
5.250,0.032
5.255,-0.012
5.260,-0.004
5.265,0.040
5.270,0.005
5.275,-0.021
5.280,0.023
5.285,0.017
5.290,-0.023
5.295,0.009
5.300,0.027
5.305,-0.023
5.310,-0.015
5.315,0.046
5.320,0.040
5.325,0.017
5.330,-0.001
5.335,-0.186
5.340,-0.522
5.345,-0.742
5.350,-0.828
5.355,-0.788
5.360,-0.427
5.365,0.063
5.370,0.267
5.375,0.233
5.380,0.211
5.385,0.178
5.390,0.124
5.395,0.152
5.400,0.174
5.405,0.126
5.410,0.127
5.415,0.164
5.420,0.124
5.425,0.090
5.430,0.136
5.435,0.128
5.440,0.072
5.445,0.098
5.450,0.118
5.455,0.064
5.460,0.064
5.465,0.107
5.470,0.070
5.475,0.043
5.480,0.086
5.485,0.071
5.490,0.023
5.495,0.054
5.500,0.070
5.505,0.016
5.510,0.023
5.515,0.067
5.520,0.030
5.525,-0.002
5.530,0.038
5.535,0.026
5.540,-0.023
5.545,0.006
5.550,0.025
5.555,-0.029
5.560,-0.031
5.565,0.006
5.570,-0.033
5.575,-0.065
5.580,-0.024
5.585,-0.039
5.590,-0.090
5.595,-0.062
5.600,-0.050
5.605,-0.106
5.610,-0.104
5.615,-0.072
5.620,-0.113
5.625,-0.130
5.630,-0.077
5.635,-0.085
5.640,-0.125
5.645,-0.085
5.650,-0.057
5.655,-0.091
5.660,-0.061
5.665,0.005
5.670,-0.008
5.675,-0.006
5.680,0.065
5.685,0.075
5.690,0.050
5.695,0.099
5.700,0.130
5.705,0.091
5.710,0.104
5.715,0.147
5.720,0.115
5.725,0.093
5.730,0.135
5.735,0.123
5.740,0.077
5.745,0.109
5.750,0.129
5.755,0.075
5.760,0.075
5.765,0.108
5.770,0.071
5.775,0.051
5.780,0.092
5.785,0.078
5.790,0.032
5.795,0.063
5.800,0.080
5.805,0.028
5.810,0.030
5.815,0.069
5.820,0.031
5.825,0.005
5.830,0.046
5.835,0.030
5.840,-0.015
5.845,0.019
5.850,0.034
5.855,-0.016
5.860,-0.006
5.865,0.033
5.870,-0.009
5.875,-0.039
5.880,0.009
5.885,0.004
5.890,-0.040
5.895,-0.010
5.900,0.007
5.905,-0.039
5.910,-0.029
5.915,0.013
5.920,-0.022
5.925,-0.042
5.930,0.008
5.935,-0.001
5.940,-0.046
5.945,-0.013
5.950,0.009
5.955,-0.037
5.960,-0.027
5.965,0.017
5.970,-0.020
5.975,-0.042
5.980,0.005
5.985,-0.001
5.990,-0.042
5.995,-0.010
6.000,0.009
6.005,-0.035
6.010,-0.028
6.015,0.011
6.020,-0.021
6.025,-0.043
6.030,0.002
6.035,-0.008
6.040,-0.048
6.045,-0.007
6.050,0.013
6.055,-0.041
6.060,-0.031
6.065,0.010
6.070,-0.029
6.075,-0.050
6.080,-0.007
6.085,-0.022
6.090,-0.062
6.095,-0.027
6.100,-0.015
6.105,-0.068
6.110,-0.056
6.115,-0.013
6.120,-0.057
6.125,-0.085
6.130,-0.033
6.135,-0.030
6.140,-0.059
6.145,-0.012
6.150,0.019
6.155,-0.017
6.160,-0.003
6.165,0.036
6.170,-0.001
6.175,-0.016
6.180,0.035
6.185,0.025
6.190,-0.015
6.195,0.023
6.200,0.040
6.205,-0.012
6.210,0.000
6.215,0.043
6.220,0.003
6.225,-0.019
6.230,0.029
6.235,0.022
6.240,-0.010
6.245,0.044
6.250,0.071
6.255,-0.023
6.260,-0.178
6.265,-0.421
6.270,-0.720
6.275,-0.864
6.280,-0.751
6.285,-0.429
6.290,-0.023
6.295,0.273
6.300,0.297
6.305,0.177
6.310,0.155
6.315,0.181
6.320,0.142
6.325,0.124
6.330,0.166
6.335,0.150
6.340,0.107
6.345,0.135
6.350,0.144
6.355,0.090
6.360,0.096
6.365,0.129
6.370,0.087
6.375,0.066
6.380,0.104
6.385,0.085
6.390,0.042
6.395,0.076
6.400,0.090
6.405,0.036
6.410,0.042
6.415,0.078
6.420,0.037
6.425,0.017
6.430,0.061
6.435,0.042
6.440,-0.003
6.445,0.033
6.450,0.047
6.455,-0.008
6.460,-0.001
6.465,0.035
6.470,-0.008
6.475,-0.027
6.480,0.017
6.485,-0.002
6.490,-0.049
6.495,-0.019
6.500,-0.010
6.505,-0.066
6.510,-0.063
6.515,-0.029
6.520,-0.074
6.525,-0.100
6.530,-0.063
6.535,-0.086
6.540,-0.127
6.545,-0.091
6.550,-0.081
6.555,-0.128
6.560,-0.109
6.565,-0.065
6.570,-0.096
6.575,-0.101
6.580,-0.045
6.585,-0.045
6.590,-0.061
6.595,0.002
6.600,0.043
6.605,0.017
6.610,0.052
6.615,0.109
6.620,0.083
6.625,0.075
6.630,0.130
6.635,0.126
6.640,0.090
6.645,0.125
6.650,0.142
6.655,0.095
6.660,0.105
6.665,0.134
6.670,0.088
6.675,0.074
6.680,0.122
6.685,0.099
6.690,0.054
6.695,0.091
6.700,0.099
6.705,0.045
6.710,0.058
6.715,0.093
6.720,0.048
6.725,0.027
6.730,0.070
6.735,0.053
6.740,0.010
6.745,0.042
6.750,0.054
6.755,0.005
6.760,0.012
6.765,0.046
6.770,0.004
6.775,-0.014
6.780,0.030
6.785,0.008
6.790,-0.033
6.795,0.004
6.800,0.014
6.805,-0.036
6.810,-0.025
6.815,0.010
6.820,-0.027
6.825,-0.041
6.830,0.006
6.835,-0.009
6.840,-0.045
6.845,-0.005
6.850,0.007
6.855,-0.039
6.860,-0.019
6.865,0.020
6.870,-0.021
6.875,-0.037
6.880,0.010
6.885,-0.004
6.890,-0.043
6.895,-0.008
6.900,0.009
6.905,-0.033
6.910,-0.018
6.915,0.015
6.920,-0.022
6.925,-0.034
6.930,0.009
6.935,-0.010
6.940,-0.043
6.945,-0.003
6.950,0.008
6.955,-0.042
6.960,-0.026
6.965,0.011
6.970,-0.031
6.975,-0.043
6.980,0.009
6.985,-0.007
6.990,-0.047
6.995,-0.009
7.000,0.003
7.005,-0.046
7.010,-0.028
7.015,0.012
7.020,-0.030
7.025,-0.047
7.030,0.001
7.035,-0.019
7.040,-0.061
7.045,-0.022
7.050,-0.011
7.055,-0.061
7.060,-0.044
7.065,-0.009
7.070,-0.054
7.075,-0.070
7.080,-0.026
7.085,-0.045
7.090,-0.071
7.095,-0.012
7.100,0.015
7.105,-0.023
7.110,0.003
7.115,0.042
7.120,0.000
7.125,-0.012
7.130,0.038
7.135,0.022
7.140,-0.012
7.145,0.028
7.150,0.037
7.155,-0.014
7.160,0.004
7.165,0.044
7.170,0.003
7.175,-0.010
7.180,0.035
7.185,0.013
7.190,-0.022
7.195,0.030
7.200,0.060
7.205,0.016
7.210,-0.025
7.215,-0.167
7.220,-0.497
7.225,-0.759
7.230,-0.817
7.235,-0.742
7.240,-0.418
7.245,0.068
7.250,0.308
7.255,0.238
7.260,0.185
7.265,0.197
7.270,0.138
7.275,0.126
7.280,0.178
7.285,0.150
7.290,0.109
7.295,0.144
7.300,0.146
7.305,0.096
7.310,0.111
7.315,0.137
7.320,0.086
7.325,0.073
7.330,0.115
7.335,0.088
7.340,0.050
7.345,0.088
7.350,0.094
7.355,0.042
7.360,0.054
7.365,0.084
7.370,0.037
7.375,0.023
7.380,0.069
7.385,0.044
7.390,0.004
7.395,0.043
7.400,0.047
7.405,-0.008
7.410,0.006
7.415,0.037
7.420,-0.008
7.425,-0.022
7.430,0.020
7.435,-0.007
7.440,-0.049
7.445,-0.015
7.450,-0.013
7.455,-0.065
7.460,-0.051
7.465,-0.024
7.470,-0.075
7.475,-0.096
7.480,-0.054
7.485,-0.079
7.490,-0.125
7.495,-0.086
7.500,-0.080
7.505,-0.137
7.510,-0.116
7.515,-0.076
7.520,-0.115
7.525,-0.114
7.530,-0.059
7.535,-0.070
7.540,-0.089
7.545,-0.029
7.550,0.006
7.555,-0.011
7.560,0.035
7.565,0.089
7.570,0.063
7.575,0.067
7.580,0.123
7.585,0.113
7.590,0.087
7.595,0.131
7.600,0.138
7.605,0.092
7.610,0.116
7.615,0.147
7.620,0.098
7.625,0.085
7.630,0.131
7.635,0.105
7.640,0.065
7.645,0.102
7.650,0.102
7.655,0.049
7.660,0.069
7.665,0.098
7.670,0.052
7.675,0.041
7.680,0.085
7.685,0.063
7.690,0.025
7.695,0.058
7.700,0.058
7.705,0.006
7.710,0.023
7.715,0.050
7.720,0.005
7.725,-0.008
7.730,0.036
7.735,0.016
7.740,-0.022
7.745,0.016
7.750,0.019
7.755,-0.032
7.760,-0.011
7.765,0.022
7.770,-0.025
7.775,-0.035
7.780,0.009
7.785,-0.015
7.790,-0.048
7.795,-0.003
7.800,0.004
7.805,-0.043
7.810,-0.019
7.815,0.016
7.820,-0.029
7.825,-0.039
7.830,0.009
7.835,-0.013
7.840,-0.044
7.845,0.000
7.850,0.006
7.855,-0.041
7.860,-0.017
7.865,0.016
7.870,-0.029
7.875,-0.034
7.880,0.018
7.885,-0.008
7.890,-0.048
7.895,-0.003
7.900,0.007
7.905,-0.039
7.910,-0.015
7.915,0.016
7.920,-0.031
7.925,-0.039
7.930,0.012
7.935,-0.005
7.940,-0.039
7.945,-0.001
7.950,0.000
7.955,-0.052
7.960,-0.032
7.965,-0.002
7.970,-0.052
7.975,-0.057
7.980,-0.008
7.985,-0.040
7.990,-0.077
7.995,-0.030
8.000,-0.029
8.005,-0.087
8.010,-0.068
8.015,-0.030
8.020,-0.062
8.025,-0.051
8.030,0.007
8.035,-0.004
8.040,-0.022
8.045,0.024
8.050,0.029
8.055,-0.016
8.060,0.005
8.065,0.037
8.070,-0.002
8.075,-0.004
8.080,0.039
8.085,0.011
8.090,-0.018
8.095,0.027
8.100,0.029
8.105,-0.024
8.110,-0.001
8.115,0.032
8.120,-0.011
8.125,0.001
8.130,0.070
8.135,0.041
8.140,-0.063
8.145,-0.223
8.150,-0.530
8.155,-0.827
8.160,-0.878
8.165,-0.691
8.170,-0.322
8.175,0.111
8.180,0.345
8.185,0.281
8.190,0.178
8.195,0.186
8.200,0.170
8.205,0.126
8.210,0.148
8.215,0.169
8.220,0.118
8.225,0.108
8.230,0.154
8.235,0.124
8.240,0.085
8.245,0.121
8.250,0.118
8.255,0.069
8.260,0.089
8.265,0.114
8.270,0.063
8.275,0.056
8.280,0.101
8.285,0.068
8.290,0.035
8.295,0.076
8.300,0.069
8.305,0.019
8.310,0.040
8.315,0.063
8.320,0.012
8.325,0.006
8.330,0.050
8.335,0.021
8.340,-0.015
8.345,0.023
8.350,0.019
8.355,-0.032
8.360,-0.013
8.365,0.014
8.370,-0.039
8.375,-0.053
8.380,-0.011
8.385,-0.042
8.390,-0.082
8.395,-0.047
8.400,-0.053
8.405,-0.107
8.410,-0.091
8.415,-0.068
8.420,-0.118
8.425,-0.128
8.430,-0.085
8.435,-0.112
8.440,-0.145
8.445,-0.095
8.450,-0.084
8.455,-0.127
8.460,-0.092
8.465,-0.046
8.470,-0.071
8.475,-0.050
8.480,0.022
8.485,0.022
8.490,0.014
8.495,0.080
8.500,0.100
8.505,0.066
8.510,0.104
8.515,0.144
8.520,0.103
8.525,0.102
8.530,0.147
8.535,0.120
8.540,0.095
8.545,0.142
8.550,0.136
8.555,0.078
8.560,0.100
8.565,0.126
8.570,0.074
8.575,0.072
8.580,0.116
8.585,0.081
8.590,0.047
8.595,0.093
8.600,0.090
8.605,0.034
8.610,0.060
8.615,0.090
8.620,0.038
8.625,0.027
8.630,0.062
8.635,0.028
8.640,0.001
8.645,0.046
8.650,0.041
8.655,-0.016
8.660,0.005
8.665,0.034
8.670,-0.016
8.675,-0.023
8.680,0.019
8.685,-0.011
8.690,-0.040
8.695,0.010
8.700,0.010
8.705,-0.040
8.710,-0.011
8.715,0.015
8.720,-0.032
8.725,-0.025
8.730,0.026
8.735,-0.004
8.740,-0.034
8.745,0.011
8.750,0.013
8.755,-0.027
8.760,0.002
8.765,0.029
8.770,-0.012
8.775,-0.010
8.780,0.029
8.785,-0.002
8.790,-0.027
8.795,0.018
8.800,0.013
8.805,-0.036
8.810,-0.010
8.815,0.022
8.820,-0.019
8.825,-0.022
8.830,0.020
8.835,-0.007
8.840,-0.032
8.845,0.010
8.850,-0.003
8.855,-0.051
8.860,-0.019
8.865,0.006
8.870,-0.047
8.875,-0.050
8.880,0.000
8.885,-0.025
8.890,-0.057
8.895,-0.019
8.900,-0.028
8.905,-0.072
8.910,-0.031
8.915,0.010
8.920,-0.028
8.925,-0.017
8.930,0.042
8.935,0.017
8.940,-0.010
8.945,0.034
8.950,0.028
8.955,-0.009
8.960,0.026
8.965,0.047
8.970,-0.005
8.975,-0.005
8.980,0.037
8.985,0.004
8.990,-0.023
8.995,0.025
9.000,0.021
9.005,-0.028
9.010,0.002
9.015,0.044
9.020,0.022
9.025,0.032
9.030,0.014
9.035,-0.217
9.040,-0.559
9.045,-0.787
9.050,-0.904
9.055,-0.832
9.060,-0.398
9.065,0.100
9.070,0.284
9.075,0.264
9.080,0.235
9.085,0.167
9.090,0.118
9.095,0.159
9.100,0.156
9.105,0.106
9.110,0.134
9.115,0.153
9.120,0.097
9.125,0.097
9.130,0.136
9.135,0.092
9.140,0.060
9.145,0.102
9.150,0.092
9.155,0.041
9.160,0.066
9.165,0.088
9.170,0.037
9.175,0.033
9.180,0.075
9.185,0.042
9.190,0.011
9.195,0.053
9.200,0.046
9.205,-0.005
9.210,0.020
9.215,0.043
9.220,-0.008
9.225,-0.011
9.230,0.030
9.235,-0.006
9.240,-0.037
9.245,0.006
9.250,-0.002
9.255,-0.052
9.260,-0.028
9.265,-0.005
9.270,-0.054
9.275,-0.060
9.280,-0.022
9.285,-0.061
9.290,-0.097
9.295,-0.058
9.300,-0.072
9.305,-0.123
9.310,-0.090
9.315,-0.076
9.320,-0.133
9.325,-0.126
9.330,-0.081
9.335,-0.115
9.340,-0.131
9.345,-0.069
9.350,-0.064
9.355,-0.097
9.360,-0.047
9.365,-0.001
9.370,-0.026
9.375,0.003
9.380,0.073
9.385,0.060
9.390,0.055
9.395,0.120
9.400,0.124
9.405,0.086
9.410,0.123
9.415,0.152
9.420,0.107
9.425,0.108
9.430,0.148
9.435,0.110
9.440,0.080
9.445,0.128
9.450,0.124
9.455,0.077
9.460,0.109
9.465,0.133
9.470,0.080
9.475,0.076
9.480,0.111
9.485,0.076
9.490,0.051
9.495,0.094
9.500,0.079
9.505,0.026
9.510,0.051
9.515,0.071
9.520,0.019
9.525,0.016
9.530,0.053
9.535,0.020
9.540,-0.005
9.545,0.036
9.550,0.026
9.555,-0.017
9.560,0.011
9.565,0.025
9.570,-0.025
9.575,-0.016
9.580,0.029
9.585,-0.010
9.590,-0.037
9.595,0.014
9.600,0.010
9.605,-0.035
9.610,0.001
9.615,0.026
9.620,-0.024
9.625,-0.019
9.630,0.024
9.635,-0.013
9.640,-0.038
9.645,0.012
9.650,0.004
9.655,-0.041
9.660,-0.004
9.665,0.018
9.670,-0.028
9.675,-0.019
9.680,0.024
9.685,-0.008
9.690,-0.034
9.695,0.007
9.700,-0.003
9.705,-0.050
9.710,-0.018
9.715,0.000
9.720,-0.055
9.725,-0.049
9.730,-0.003
9.735,-0.042
9.740,-0.069
9.745,-0.024
9.750,-0.041
9.755,-0.081
9.760,-0.030
9.765,0.009
9.770,-0.024
9.775,-0.007
9.780,0.036
9.785,0.001
9.790,-0.018
9.795,0.033
9.800,0.025
9.805,-0.017
9.810,0.018
9.815,0.035
9.820,-0.019
9.825,-0.012
9.830,0.031
9.835,-0.006
9.840,-0.028
9.845,0.014
9.850,0.003
9.855,-0.039
9.860,0.001
9.865,0.041
9.870,0.006
9.875,-0.017
9.880,-0.106
9.885,-0.411
9.890,-0.725
9.895,-0.844
9.900,-0.841
9.905,-0.603
9.910,-0.107
9.915,0.250
9.920,0.269
9.925,0.209
9.930,0.200
9.935,0.139
9.940,0.108
9.945,0.155
9.950,0.138
9.955,0.093
9.960,0.124
9.965,0.138
9.970,0.084
9.975,0.085
9.980,0.121
9.985,0.080
9.990,0.056
9.995,0.096
10.000,0.074
10.005,0.026
10.010,0.061
10.015,0.075
10.020,0.018
10.025,0.025
10.030,0.065
10.035,0.024
10.040,-0.001
10.045,0.042
10.050,0.024
10.055,-0.019
10.060,0.016
10.065,0.029
10.070,-0.022
10.075,-0.015
10.080,0.022
10.085,-0.018
10.090,-0.040
10.095,0.004
10.100,-0.011
10.105,-0.058
10.110,-0.024
10.115,-0.010
10.120,-0.069
10.125,-0.066
10.130,-0.029
10.135,-0.074
10.140,-0.100
10.145,-0.059
10.150,-0.081
10.155,-0.135
10.160,-0.105
10.165,-0.089
10.170,-0.137
10.175,-0.123
10.180,-0.082
10.185,-0.116
10.190,-0.123
10.195,-0.062
10.200,-0.064
10.205,-0.087
10.210,-0.024
10.215,0.019
10.220,-0.005
10.225,0.032
10.230,0.095
10.235,0.072
10.240,0.062
10.245,0.123
10.250,0.125
10.255,0.091
10.260,0.135
10.265,0.156
10.270,0.101
10.275,0.106
10.280,0.140
10.285,0.097
10.290,0.079
10.295,0.121
10.300,0.101
10.305,0.061
10.310,0.100
10.315,0.115
10.320,0.064
10.325,0.070
10.330,0.104
10.335,0.060
10.340,0.041
10.345,0.087
10.350,0.065
10.355,0.018
10.360,0.052
10.365,0.066
10.370,0.010
10.375,0.015
10.380,0.050
10.385,0.005
10.390,-0.014
10.395,0.033
10.400,0.013
10.405,-0.036
10.410,0.001
10.415,0.017
10.420,-0.034
10.425,-0.025
10.430,0.008
10.435,-0.030
10.440,-0.042
10.445,0.008
10.450,-0.002
10.455,-0.042
10.460,-0.011
10.465,0.001
10.470,-0.047
10.475,-0.033
10.480,0.010
10.485,-0.027
10.490,-0.048
10.495,0.001
10.500,-0.009
10.505,-0.047
10.510,-0.006
10.515,0.009
10.520,-0.040
10.525,-0.023
10.530,0.017
10.535,-0.023
10.540,-0.044
10.545,0.002
10.550,-0.015
10.555,-0.062
10.560,-0.026
10.565,-0.009
10.570,-0.052
10.575,-0.038
10.580,-0.003
10.585,-0.048
10.590,-0.067
10.595,-0.019
10.600,-0.043
10.605,-0.082
10.610,-0.021
10.615,0.013
10.620,-0.025
10.625,0.004
10.630,0.054
10.635,0.011
10.640,-0.012
10.645,0.040
10.650,0.031
10.655,-0.008
10.660,0.033
10.665,0.051
10.670,-0.001
10.675,0.007
10.680,0.043
10.685,0.002
10.690,-0.015
10.695,0.032
10.700,0.016
10.705,-0.024
10.710,0.022
10.715,0.051
10.720,0.013
10.725,-0.001
10.730,-0.097
10.735,-0.410
10.740,-0.709
10.745,-0.809
10.750,-0.785
10.755,-0.518
10.760,-0.018
10.765,0.299
10.770,0.290
10.775,0.232
10.780,0.215
10.785,0.139
10.790,0.112
10.795,0.166
10.800,0.148
10.805,0.101
10.810,0.134
10.815,0.142
10.820,0.089
10.825,0.096
10.830,0.128
10.835,0.083
10.840,0.062
10.845,0.104
10.850,0.080
10.855,0.037
10.860,0.075
10.865,0.084
10.870,0.032
10.875,0.046
10.880,0.080
10.885,0.034
10.890,0.017
10.895,0.061
10.900,0.042
10.905,0.003
10.910,0.038
10.915,0.044
10.920,-0.009
10.925,0.006
10.930,0.043
10.935,-0.002
10.940,-0.017
10.945,0.027
10.950,0.001
10.955,-0.043
10.960,-0.006
10.965,0.001
10.970,-0.056
10.975,-0.047
10.980,-0.018
10.985,-0.068
10.990,-0.091
10.995,-0.057
11.000,-0.082
11.005,-0.116
11.010,-0.072
11.015,-0.063
11.020,-0.117
11.025,-0.097
11.030,-0.058
11.035,-0.094
11.040,-0.086
11.045,-0.030
11.050,-0.047
11.055,-0.066
11.060,0.000
11.065,0.038
11.070,0.018
11.075,0.060
11.080,0.107
11.085,0.077
11.090,0.085
11.095,0.143
11.100,0.126
11.105,0.092
11.110,0.136
11.115,0.146
11.120,0.097
11.125,0.117
11.130,0.146
11.135,0.091
11.140,0.077
11.145,0.128
11.150,0.104
11.155,0.057
11.160,0.093
11.165,0.102
11.170,0.052
11.175,0.067
11.180,0.098
11.185,0.050
11.190,0.034
11.195,0.084
11.200,0.056
11.205,0.008
11.210,0.045
11.215,0.052
11.220,-0.003
11.225,0.010
11.230,0.040
11.235,-0.006
11.240,-0.017
11.245,0.028
11.250,0.005
11.255,-0.031
11.260,0.008
11.265,0.013
11.270,-0.038
11.275,-0.019
11.280,0.017
11.285,-0.029
11.290,-0.040
11.295,0.011
11.300,-0.011
11.305,-0.049
11.310,-0.007
11.315,0.002
11.320,-0.046
11.325,-0.025
11.330,0.007
11.335,-0.034
11.340,-0.038
11.345,0.012
11.350,-0.010
11.355,-0.051
11.360,-0.016
11.365,-0.006
11.370,-0.053
11.375,-0.039
11.380,-0.007
11.385,-0.046
11.390,-0.058
11.395,-0.017
11.400,-0.042
11.405,-0.081
11.410,-0.043
11.415,-0.027
11.420,-0.059
11.425,-0.026
11.430,0.018
11.435,-0.020
11.440,-0.023
11.445,0.030
11.450,0.009
11.455,-0.028
11.460,0.015
11.465,0.025
11.470,-0.023
11.475,0.001
11.480,0.037
11.485,-0.014
11.490,-0.021
11.495,0.037
11.500,0.012
11.505,-0.029
11.510,0.012
11.515,0.024
11.520,-0.005
11.525,0.039
11.530,0.069
11.535,-0.046
11.540,-0.232
11.545,-0.460
11.550,-0.729
11.555,-0.869
11.560,-0.725
11.565,-0.359
11.570,0.012
11.575,0.241
11.580,0.264
11.585,0.164
11.590,0.131
11.595,0.165
11.600,0.140
11.605,0.109
11.610,0.146
11.615,0.146
11.620,0.100
11.625,0.115
11.630,0.128
11.635,0.080
11.640,0.076
11.645,0.112
11.650,0.084
11.655,0.054
11.660,0.094
11.665,0.095
11.670,0.046
11.675,0.066
11.680,0.089
11.685,0.041
11.690,0.034
11.695,0.075
11.700,0.047
11.705,0.011
11.710,0.051
11.715,0.056
11.720,-0.002
11.725,0.013
11.730,0.048
11.735,-0.001
11.740,-0.012
11.745,0.033
11.750,0.001
11.755,-0.039
11.760,0.002
11.765,0.001
11.770,-0.055
11.775,-0.038
11.780,-0.008
11.785,-0.060
11.790,-0.075
11.795,-0.036
11.800,-0.072
11.805,-0.113
11.810,-0.080
11.815,-0.087
11.820,-0.134
11.825,-0.113
11.830,-0.085
11.835,-0.123
11.840,-0.132
11.845,-0.084
11.850,-0.093
11.855,-0.111
11.860,-0.056
11.865,-0.038
11.870,-0.064
11.875,-0.015
11.880,0.037
11.885,0.011
11.890,0.024
11.895,0.088
11.900,0.077
11.905,0.059
11.910,0.113
11.915,0.119
11.920,0.074
11.925,0.098
11.930,0.126
11.935,0.083
11.940,0.078
11.945,0.118
11.950,0.088
11.955,0.054
11.960,0.093
11.965,0.087
11.970,0.038
11.975,0.063
11.980,0.087
11.985,0.034
11.990,0.028
11.995,0.075
12.000,0.047
12.005,0.014
12.010,0.057
12.015,0.050
12.020,0.000
12.025,0.024
12.030,0.048
12.035,0.000
12.040,-0.005
12.045,0.039
12.050,0.007
12.055,-0.028
12.060,0.014
12.065,0.016
12.070,-0.030
12.075,-0.010
12.080,0.008
12.085,-0.056
12.090,-0.081
12.095,-0.070
12.100,-0.154
12.105,-0.252
12.110,-0.276
12.115,-0.343
12.120,-0.447
12.125,-0.486
12.130,-0.521
12.135,-0.580
12.140,-0.557
12.145,-0.497
12.150,-0.497
12.155,-0.425
12.160,-0.190
12.165,0.059
12.170,0.202
12.175,0.268
12.180,0.276
12.185,0.247
12.190,0.273
12.195,0.315
12.200,0.275
12.205,0.264
12.210,0.335
12.215,0.346
12.220,0.310
12.225,0.338
12.230,0.340
12.235,0.263
12.240,0.253
12.245,0.294
12.250,0.255
12.255,0.218
12.260,0.254
12.265,0.243
12.270,0.187
12.275,0.210
12.280,0.230
12.285,0.169
12.290,0.157
12.295,0.192
12.300,0.150
12.305,0.112
12.310,0.149
12.315,0.138
12.320,0.081
12.325,0.101
12.330,0.120
12.335,0.064
12.340,0.057
12.345,0.097
12.350,0.055
12.355,0.016
12.360,0.061
12.365,0.055
12.370,-0.004
12.375,0.012
12.380,0.029
12.385,-0.029
12.390,-0.040
12.395,-0.010
12.400,-0.059
12.405,-0.100
12.410,-0.067
12.415,-0.083
12.420,-0.144
12.425,-0.127
12.430,-0.111
12.435,-0.166
12.440,-0.170
12.445,-0.129
12.450,-0.161
12.455,-0.187
12.460,-0.136
12.465,-0.125
12.470,-0.151
12.475,-0.105
12.480,-0.069
12.485,-0.106
12.490,-0.092
12.495,-0.033
12.500,-0.052
12.505,-0.071
12.510,-0.015
12.515,-0.009
12.520,-0.050
12.525,-0.016
12.530,0.014
12.535,-0.032
12.540,-0.031
12.545,0.015
12.550,-0.012
12.555,-0.037
12.560,0.008
12.565,0.005
12.570,-0.042
12.575,-0.012
12.580,0.012
12.585,-0.038
12.590,-0.034
12.595,0.011
12.600,-0.021
12.605,-0.046
12.610,0.001
12.615,0.000
12.620,-0.044
12.625,-0.014
12.630,0.013
12.635,-0.030
12.640,-0.027
12.645,0.015
12.650,-0.014
12.655,-0.034
12.660,0.015
12.665,0.011
12.670,-0.035
12.675,-0.004
12.680,0.020
12.685,-0.025
12.690,-0.021
12.695,0.023
12.700,-0.005
12.705,-0.028
12.710,0.017
12.715,0.011
12.720,-0.034
12.725,-0.003
12.730,0.022
12.735,-0.026
12.740,-0.022
12.745,0.023
12.750,-0.009
12.755,-0.037
12.760,0.009
12.765,0.007
12.770,-0.034
12.775,-0.002
12.780,0.022
12.785,-0.027
12.790,-0.023
12.795,0.023
12.800,-0.008
12.805,-0.034
12.810,0.014
12.815,0.006
12.820,-0.041
12.825,-0.005
12.830,0.022
12.835,-0.028
12.840,-0.023
12.845,0.022
12.850,-0.012
12.855,-0.039
12.860,0.008
12.865,0.008
12.870,-0.031
12.875,0.001
12.880,0.023
12.885,-0.027
12.890,-0.024
12.895,0.020
12.900,-0.012
12.905,-0.036
12.910,0.008
12.915,0.004
12.920,-0.035
12.925,-0.004
12.930,0.018
12.935,-0.030
12.940,-0.025
12.945,0.020
12.950,-0.013
12.955,-0.038
12.960,0.006
12.965,-0.005
12.970,-0.053
12.975,-0.020
12.980,0.003
12.985,-0.050
12.990,-0.049
12.995,-0.006
13.000,-0.041
13.005,-0.065
13.010,-0.018
13.015,-0.029
13.020,-0.079
13.025,-0.037
13.030,0.003
13.035,-0.029
13.040,-0.007
13.045,0.049
13.050,0.019
13.055,-0.003
13.060,0.046
13.065,0.037
13.070,-0.003
13.075,0.036
13.080,0.055
13.085,0.004
13.090,0.012
13.095,0.055
13.100,0.017
13.105,-0.007
13.110,0.043
13.115,0.037
13.120,-0.005
13.125,0.039
13.130,0.081
13.135,0.043
13.140,0.008
13.145,-0.110
13.150,-0.450
13.155,-0.789
13.160,-0.915
13.165,-0.872
13.170,-0.558
13.175,-0.012
13.180,0.332
13.185,0.315
13.190,0.241
13.195,0.239
13.200,0.183
13.205,0.148
13.210,0.195
13.215,0.184
13.220,0.134
13.225,0.162
13.230,0.177
13.235,0.120
13.240,0.121
13.245,0.159
13.250,0.117
13.255,0.088
13.260,0.129
13.265,0.116
13.270,0.068
13.275,0.097
13.280,0.110
13.285,0.054
13.290,0.059
13.295,0.096
13.300,0.055
13.305,0.031
13.310,0.072
13.315,0.057
13.320,0.011
13.325,0.044
13.330,0.057
13.335,0.000
13.340,0.002
13.345,0.042
13.350,0.005
13.355,-0.022
13.360,0.018
13.365,0.003
13.370,-0.045
13.375,-0.015
13.380,-0.003
13.385,-0.061
13.390,-0.060
13.395,-0.022
13.400,-0.067
13.405,-0.096
13.410,-0.056
13.415,-0.073
13.420,-0.123
13.425,-0.095
13.430,-0.083
13.435,-0.135
13.440,-0.125
13.445,-0.085
13.450,-0.116
13.455,-0.123
13.460,-0.068
13.465,-0.071
13.470,-0.098
13.475,-0.047
13.480,-0.014
13.485,-0.039
13.490,0.001
13.495,0.065
13.500,0.042
13.505,0.042
13.510,0.111
13.515,0.112
13.520,0.078
13.525,0.121
13.530,0.143
13.535,0.100
13.540,0.121
13.545,0.166
13.550,0.124
13.555,0.101
13.560,0.142
13.565,0.125
13.570,0.080
13.575,0.110
13.580,0.122
13.585,0.067
13.590,0.073
13.595,0.107
13.600,0.061
13.605,0.038
13.610,0.084
13.615,0.069
13.620,0.022
13.625,0.053
13.630,0.071
13.635,0.019
13.640,0.025
13.645,0.061
13.650,0.018
13.655,-0.006
13.660,0.038
13.665,0.025
13.670,-0.019
13.675,0.016
13.680,0.035
13.685,-0.019
13.690,-0.010
13.695,0.034
13.700,-0.006
13.705,-0.026
13.710,0.023
13.715,0.011
13.720,-0.027
13.725,0.012
13.730,0.022
13.735,-0.028
13.740,-0.012
13.745,0.024
13.750,-0.021
13.755,-0.040
13.760,0.010
13.765,-0.003
13.770,-0.043
13.775,-0.007
13.780,0.002
13.785,-0.049
13.790,-0.038
13.795,-0.008
13.800,-0.053
13.805,-0.071
13.810,-0.024
13.815,-0.031
13.820,-0.058
13.825,-0.002
13.830,0.030
13.835,-0.013
13.840,0.003
13.845,0.042
13.850,0.003
13.855,-0.011
13.860,0.039
13.865,0.025
13.870,-0.016
13.875,0.023
13.880,0.038
13.885,-0.014
13.890,-0.004
13.895,0.033
13.900,-0.006
13.905,-0.023
13.910,0.022
13.915,0.007
13.920,-0.023
13.925,0.032
13.930,0.048
13.935,-0.057
13.940,-0.217
13.945,-0.478
13.950,-0.792
13.955,-0.900
13.960,-0.716
13.965,-0.346
13.970,0.063
13.975,0.325
13.980,0.322
13.985,0.194
13.990,0.156
13.995,0.165
14.000,0.116
14.005,0.097
14.010,0.140
14.015,0.118
14.020,0.074
14.025,0.108
14.030,0.114
14.035,0.060
14.040,0.072
14.045,0.107
14.050,0.060
14.055,0.039
14.060,0.084
14.065,0.066
14.070,0.022
14.075,0.057
14.080,0.067
14.085,0.013
14.090,0.024
14.095,0.059
14.100,0.014
14.105,-0.003
14.110,0.044
14.115,0.022
14.120,-0.020
14.125,0.016
14.130,0.024
14.135,-0.031
14.140,-0.017
14.145,0.021
14.150,-0.026
14.155,-0.048
14.160,-0.004
14.165,-0.026
14.170,-0.071
14.175,-0.036
14.180,-0.028
14.185,-0.084
14.190,-0.075
14.195,-0.045
14.200,-0.096
14.205,-0.116
14.210,-0.070
14.215,-0.093
14.220,-0.131
14.225,-0.085
14.230,-0.071
14.235,-0.119
14.240,-0.097
14.245,-0.051
14.250,-0.079
14.255,-0.078
14.260,-0.015
14.265,-0.012
14.270,-0.028
14.275,0.032
14.280,0.067
14.285,0.039
14.290,0.070
14.295,0.120
14.300,0.086
14.305,0.080
14.310,0.138
14.315,0.121
14.320,0.082
14.325,0.122
14.330,0.131
14.335,0.079
14.340,0.098
14.345,0.134
14.350,0.087
14.355,0.071
14.360,0.114
14.365,0.089
14.370,0.048
14.375,0.086
14.380,0.090
14.385,0.035
14.390,0.051
14.395,0.085
14.400,0.036
14.405,0.016
14.410,0.058
14.415,0.035
14.420,-0.006
14.425,0.031
14.430,0.037
14.435,-0.016
14.440,-0.002
14.445,0.030
14.450,-0.016
14.455,-0.029
14.460,0.018
14.465,-0.004
14.470,-0.044
14.475,-0.003
14.480,0.006
14.485,-0.044
14.490,-0.025
14.495,0.013
14.500,-0.027
14.505,-0.038
14.510,0.011
14.515,-0.010
14.520,-0.050
14.525,-0.011
14.530,-0.007
14.535,-0.056
14.540,-0.031
14.545,0.002
14.550,-0.047
14.555,-0.054
14.560,-0.004
14.565,-0.033
14.570,-0.076
14.575,-0.038
14.580,-0.034
14.585,-0.074
14.590,-0.036
14.595,0.015
14.600,-0.014
14.605,-0.013
14.610,0.038
14.615,0.015
14.620,-0.022
14.625,0.024
14.630,0.038
14.635,-0.009
14.640,0.009
14.645,0.042
14.650,-0.001
14.655,-0.012
14.660,0.034
14.665,0.012
14.670,-0.025
14.675,0.016
14.680,0.024
14.685,-0.025
14.690,0.004
14.695,0.063
14.700,0.036
14.705,-0.001
14.710,-0.086
14.715,-0.384
14.720,-0.743
14.725,-0.903
14.730,-0.890
14.735,-0.649
14.740,-0.138
14.745,0.267
14.750,0.304
14.755,0.222
14.760,0.214
14.765,0.167
14.770,0.120
14.775,0.164
14.780,0.165
14.785,0.111
14.790,0.129
14.795,0.156
14.800,0.105
14.805,0.091
14.810,0.131
14.815,0.101
14.820,0.063
14.825,0.103
14.830,0.104
14.835,0.050
14.840,0.066
14.845,0.095
14.850,0.044
14.855,0.029
14.860,0.075
14.865,0.053
14.870,0.011
14.875,0.047
14.880,0.053
14.885,0.000
14.890,0.017
14.895,0.048
14.900,-0.002
14.905,-0.013
14.910,0.031
14.915,0.002
14.920,-0.037
14.925,0.002
14.930,-0.001
14.935,-0.055
14.940,-0.034
14.945,-0.005
14.950,-0.060
14.955,-0.076
14.960,-0.033
14.965,-0.066
14.970,-0.109
14.975,-0.076
14.980,-0.081
14.985,-0.134
14.990,-0.113
14.995,-0.080
15.000,-0.127
15.005,-0.133
15.010,-0.079
15.015,-0.094
15.020,-0.121
15.025,-0.064
15.030,-0.040
15.035,-0.069
15.040,-0.022
15.045,0.039
15.050,0.020
15.055,0.036
15.060,0.102
15.065,0.092
15.070,0.073
15.075,0.129
15.080,0.139
15.085,0.096
15.090,0.123
15.095,0.152
15.100,0.106
15.105,0.105
15.110,0.149
15.115,0.114
15.120,0.075
15.125,0.118
15.130,0.121
15.135,0.068
15.140,0.088
15.145,0.113
15.150,0.062
15.155,0.053
15.160,0.096
15.165,0.064
15.170,0.029
15.175,0.072
15.180,0.069
15.185,0.016
15.190,0.041
15.195,0.067
15.200,0.013
15.205,0.004
15.210,0.050
15.215,0.019
15.220,-0.017
15.225,0.026
15.230,0.025
15.235,-0.028
15.240,-0.007
15.245,0.020
15.250,-0.025
15.255,-0.027
15.260,0.019
15.265,-0.009
15.270,-0.042
15.275,0.004
15.280,0.008
15.285,-0.041
15.290,-0.014
15.295,0.019
15.300,-0.027
15.305,-0.033
15.310,0.013
15.315,-0.021
15.320,-0.060
15.325,-0.013
15.330,-0.009
15.335,-0.062
15.340,-0.042
15.345,-0.011
15.350,-0.059
15.355,-0.069
15.360,-0.024
15.365,-0.056
15.370,-0.090
15.375,-0.029
15.380,-0.006
15.385,-0.040
15.390,-0.003
15.395,0.036
15.400,-0.004
15.405,-0.002
15.410,0.042
15.415,0.013
15.420,-0.013
15.425,0.034
15.430,0.032
15.435,-0.011
15.440,0.019
15.445,0.046
15.450,-0.006
15.455,-0.013
15.460,0.032
15.465,0.002
15.470,-0.030
15.475,0.020
15.480,0.041
15.485,0.029
15.490,0.068
15.495,0.033
15.500,-0.211
15.505,-0.553
15.510,-0.846
15.515,-1.054
15.520,-0.998
15.525,-0.513
15.530,0.037
15.535,0.274
15.540,0.304
15.545,0.262
15.550,0.175
15.555,0.155
15.560,0.199
15.565,0.167
15.570,0.130
15.575,0.172
15.580,0.166
15.585,0.111
15.590,0.132
15.595,0.153
15.600,0.100
15.605,0.091
15.610,0.127
15.615,0.096
15.620,0.066
15.625,0.103
15.630,0.094
15.635,0.043
15.640,0.067
15.645,0.091
15.650,0.038
15.655,0.033
15.660,0.074
15.665,0.040
15.670,0.006
15.675,0.047
15.680,0.043
15.685,-0.009
15.690,0.015
15.695,0.039
15.700,-0.013
15.705,-0.019
15.710,0.020
15.715,-0.017
15.720,-0.049
15.725,-0.007
15.730,-0.018
15.735,-0.074
15.740,-0.052
15.745,-0.034
15.750,-0.088
15.755,-0.094
15.760,-0.059
15.765,-0.102
15.770,-0.139
15.775,-0.097
15.780,-0.102
15.785,-0.152
15.790,-0.124
15.795,-0.097
15.800,-0.138
15.805,-0.127
15.810,-0.071
15.815,-0.086
15.820,-0.094
15.825,-0.022
15.830,0.003
15.835,-0.016
15.840,0.041
15.845,0.093
15.850,0.065
15.855,0.083
15.860,0.140
15.865,0.118
15.870,0.098
15.875,0.147
15.880,0.147
15.885,0.104
15.890,0.130
15.895,0.151
15.900,0.100
15.905,0.098
15.910,0.139
15.915,0.103
15.920,0.074
15.925,0.118
15.930,0.106
15.935,0.055
15.940,0.081
15.945,0.100
15.950,0.048
15.955,0.050
15.960,0.090
15.965,0.051
15.970,0.019
15.975,0.069
15.980,0.065
15.985,0.011
15.990,0.036
15.995,0.058
16.000,0.004
16.005,0.004
16.010,0.046
16.015,0.011
16.020,-0.020
16.025,0.023
16.030,0.018
16.035,-0.029
16.040,-0.003
16.045,0.018
16.050,-0.030
16.055,-0.025
16.060,0.018
16.065,-0.017
16.070,-0.045
16.075,0.004
16.080,0.003
16.085,-0.044
16.090,-0.011
16.095,0.013
16.100,-0.038
16.105,-0.030
16.110,0.020
16.115,-0.018
16.120,-0.047
16.125,0.001
16.130,-0.004
16.135,-0.053
16.140,-0.029
16.145,-0.009
16.150,-0.056
16.155,-0.050
16.160,-0.009
16.165,-0.048
16.170,-0.078
16.175,-0.034
16.180,-0.045
16.185,-0.094
16.190,-0.064
16.195,-0.037
16.200,-0.068
16.205,-0.044
16.210,0.013
16.215,-0.008
16.220,-0.025
16.225,0.027
16.230,0.027
16.235,-0.020
16.240,0.012
16.245,0.039
16.250,-0.005
16.255,-0.001
16.260,0.040
16.265,0.009
16.270,-0.015
16.275,0.029
16.280,0.023
16.285,-0.024
16.290,0.006
16.295,0.030
16.300,-0.012
16.305,0.009
16.310,0.080
16.315,0.056
16.320,-0.037
16.325,-0.198
16.330,-0.550
16.335,-0.917
16.340,-1.024
16.345,-0.868
16.350,-0.465
16.355,0.066
16.360,0.364
16.365,0.308
16.370,0.205
16.375,0.210
16.380,0.181
16.385,0.131
16.390,0.165
16.395,0.185
16.400,0.131
16.405,0.127
16.410,0.163
16.415,0.122
16.420,0.093
16.425,0.136
16.430,0.119
16.435,0.068
16.440,0.100
16.445,0.120
16.450,0.065
16.455,0.060
16.460,0.096
16.465,0.056
16.470,0.027
16.475,0.076
16.480,0.069
16.485,0.017
16.490,0.046
16.495,0.065
16.500,0.010
16.505,0.010
16.510,0.049
16.515,0.009
16.520,-0.018
16.525,0.025
16.530,0.012
16.535,-0.039
16.540,-0.008
16.545,0.011
16.550,-0.046
16.555,-0.049
16.560,-0.014
16.565,-0.054
16.570,-0.085
16.575,-0.049
16.580,-0.066
16.585,-0.114
16.590,-0.089
16.595,-0.079
16.600,-0.134
16.605,-0.129
16.610,-0.088
16.615,-0.124
16.620,-0.141
16.625,-0.085
16.630,-0.086
16.635,-0.120
16.640,-0.069
16.645,-0.028
16.650,-0.054
16.655,-0.017
16.660,0.052
16.665,0.038
16.670,0.042
16.675,0.110
16.680,0.112
16.685,0.082
16.690,0.125
16.695,0.149
16.700,0.101
16.705,0.117
16.710,0.166
16.715,0.123
16.720,0.096
16.725,0.138
16.730,0.122
16.735,0.081
16.740,0.114
16.745,0.127
16.750,0.071
16.755,0.073
16.760,0.112
16.765,0.073
16.770,0.053
16.775,0.099
16.780,0.077
16.785,0.025
16.790,0.058
16.795,0.077
16.800,0.022
16.805,0.024
16.810,0.063
16.815,0.026
16.820,-0.001
16.825,0.043
16.830,0.029
16.835,-0.019
16.840,0.013
16.845,0.028
16.850,-0.025
16.855,-0.017
16.860,0.022
16.865,-0.017
16.870,-0.039
16.875,0.009
16.880,0.000
16.885,-0.043
16.890,-0.009
16.895,0.010
16.900,-0.039
16.905,-0.027
16.910,0.013
16.915,-0.023
16.920,-0.038
16.925,0.009
16.930,-0.004
16.935,-0.044
16.940,-0.010
16.945,0.004
16.950,-0.048
16.955,-0.039
16.960,0.003
16.965,-0.032
16.970,-0.053
16.975,-0.013
16.980,-0.029
16.985,-0.074
16.990,-0.041
16.995,-0.028
17.000,-0.082
17.005,-0.070
17.010,-0.017
17.015,-0.037
17.020,-0.044
17.025,0.017
17.030,0.014
17.035,-0.025
17.040,0.015
17.045,0.033
17.050,-0.016
17.055,0.002
17.060,0.044
17.065,0.004
17.070,-0.013
17.075,0.036
17.080,0.018
17.085,-0.029
17.090,0.012
17.095,0.029
17.100,-0.025
17.105,-0.015
17.110,0.027
17.115,0.003
17.120,0.012
17.125,0.073
17.130,0.019
17.135,-0.176
17.140,-0.438
17.145,-0.733
17.150,-0.942
17.155,-0.870
17.160,-0.487
17.165,-0.041
17.170,0.253
17.175,0.336
17.180,0.239
17.185,0.146
17.190,0.164
17.195,0.173
17.200,0.123
17.205,0.129
17.210,0.164
17.215,0.120
17.220,0.095
17.225,0.137
17.230,0.119
17.235,0.071
17.240,0.102
17.245,0.113
17.250,0.058
17.255,0.066
17.260,0.104
17.265,0.060
17.270,0.036
17.275,0.079
17.280,0.062
17.285,0.019
17.290,0.054
17.295,0.065
17.300,0.010
17.305,0.020
17.310,0.055
17.315,0.011
17.320,-0.010
17.325,0.034
17.330,0.017
17.335,-0.028
17.340,0.006
17.345,0.015
17.350,-0.041
17.355,-0.031
17.360,0.004
17.365,-0.043
17.370,-0.066
17.375,-0.025
17.380,-0.048
17.385,-0.094
17.390,-0.062
17.395,-0.060
17.400,-0.118
17.405,-0.110
17.410,-0.079
17.415,-0.122
17.420,-0.137
17.425,-0.089
17.430,-0.104
17.435,-0.141
17.440,-0.093
17.445,-0.066
17.450,-0.100
17.455,-0.066
17.460,-0.002
17.465,-0.016
17.470,-0.004
17.475,0.072
17.480,0.079
17.485,0.054
17.490,0.107
17.495,0.133
17.500,0.093
17.505,0.114
17.510,0.155
17.515,0.113
17.520,0.099
17.525,0.147
17.530,0.127
17.535,0.085
17.540,0.121
17.545,0.131
17.550,0.075
17.555,0.085
17.560,0.120
17.565,0.077
17.570,0.057
17.575,0.101
17.580,0.082
17.585,0.041
17.590,0.078
17.595,0.087
17.600,0.032
17.605,0.044
17.610,0.077
17.615,0.030
17.620,0.013
17.625,0.057
17.630,0.031
17.635,-0.012
17.640,0.025
17.645,0.031
17.650,-0.025
17.655,-0.013
17.660,0.026
17.665,-0.018
17.670,-0.038
17.675,0.011
17.680,-0.008
17.685,-0.049
17.690,-0.008
17.695,0.006
17.700,-0.044
17.705,-0.027
17.710,0.013
17.715,-0.031
17.720,-0.046
17.725,0.007
17.730,-0.010
17.735,-0.049
17.740,-0.006
17.745,0.006
17.750,-0.046
17.755,-0.026
17.760,0.013
17.765,-0.029
17.770,-0.041
17.775,0.001
17.780,-0.023
17.785,-0.062
17.790,-0.022
17.795,-0.012
17.800,-0.064
17.805,-0.050
17.810,-0.012
17.815,-0.056
17.820,-0.077
17.825,-0.034
17.830,-0.055
17.835,-0.090
17.840,-0.034
17.845,-0.001
17.850,-0.037
17.855,-0.010
17.860,0.035
17.865,-0.004
17.870,-0.012
17.875,0.039
17.880,0.019
17.885,-0.016
17.890,0.029
17.895,0.038
17.900,-0.013
17.905,0.008
17.910,0.045
17.915,0.001
17.920,-0.014
17.925,0.029
17.930,0.009
17.935,-0.026
17.940,0.020
17.945,0.054
17.950,0.040
17.955,0.067
17.960,0.032
17.965,-0.216
17.970,-0.570
17.975,-0.853
17.980,-1.047
17.985,-0.994
17.990,-0.508
17.995,0.048
18.000,0.273
18.005,0.288
18.010,0.254
18.015,0.178
18.020,0.159
18.025,0.208
18.030,0.183
18.035,0.137
18.040,0.175
18.045,0.181
18.050,0.124
18.055,0.135
18.060,0.164
18.065,0.114
18.070,0.099
18.075,0.140
18.080,0.110
18.085,0.066
18.090,0.103
18.095,0.106
18.100,0.053
18.105,0.070
18.110,0.098
18.115,0.046
18.120,0.036
18.125,0.083
18.130,0.055
18.135,0.015
18.140,0.051
18.145,0.052
18.150,-0.001
18.155,0.018
18.160,0.050
18.165,-0.004
18.170,-0.020
18.175,0.025
18.180,-0.004
18.185,-0.047
18.190,-0.012
18.195,-0.008
18.200,-0.062
18.205,-0.052
18.210,-0.027
18.215,-0.082
18.220,-0.104
18.225,-0.067
18.230,-0.100
18.235,-0.145
18.240,-0.108
18.245,-0.103
18.250,-0.154
18.255,-0.137
18.260,-0.102
18.265,-0.139
18.270,-0.140
18.275,-0.080
18.280,-0.085
18.285,-0.099
18.290,-0.029
18.295,0.009
18.300,-0.009
18.305,0.041
18.310,0.098
18.315,0.075
18.320,0.086
18.325,0.143
18.330,0.132
18.335,0.115
18.340,0.160
18.345,0.162
18.350,0.111
18.355,0.129
18.360,0.160
18.365,0.113
18.370,0.101
18.375,0.144
18.380,0.114
18.385,0.073
18.390,0.112
18.395,0.115
18.400,0.059
18.405,0.076
18.410,0.107
18.415,0.062
18.420,0.053
18.425,0.094
18.430,0.066
18.435,0.029
18.440,0.070
18.445,0.071
18.450,0.015
18.455,0.034
18.460,0.066
18.465,0.019
18.470,0.007
18.475,0.050
18.480,0.021
18.485,-0.017
18.490,0.024
18.495,0.025
18.500,-0.029
18.505,-0.009
18.510,0.025
18.515,-0.021
18.520,-0.031
18.525,0.013
18.530,-0.013
18.535,-0.043
18.540,0.001
18.545,0.001
18.550,-0.047
18.555,-0.022
18.560,0.011
18.565,-0.035
18.570,-0.040
18.575,0.008
18.580,-0.015
18.585,-0.048
18.590,-0.005
18.595,-0.002
18.600,-0.052
18.605,-0.026
18.610,0.011
18.615,-0.036
18.620,-0.043
18.625,0.007
18.630,-0.019
18.635,-0.053
18.640,-0.010
18.645,-0.005
18.650,-0.047
18.655,-0.021
18.660,0.004
18.665,-0.046
18.670,-0.055
18.675,-0.013
18.680,-0.042
18.685,-0.074
18.690,-0.028
18.695,-0.033
18.700,-0.085
18.705,-0.059
18.710,-0.033
18.715,-0.085
18.720,-0.092
18.725,-0.042
18.730,-0.053
18.735,-0.064
18.740,-0.007
18.745,0.008
18.750,-0.026
18.755,0.006
18.760,0.039
18.765,-0.006
18.770,-0.008
18.775,0.043
18.780,0.016
18.785,-0.014
18.790,0.033
18.795,0.033
18.800,-0.016
18.805,0.008
18.810,0.033
18.815,-0.015
18.820,-0.018
18.825,0.027
18.830,0.008
18.835,0.003
18.840,0.085
18.845,0.105
18.850,-0.006
18.855,-0.193
18.860,-0.522
18.865,-0.922
18.870,-1.121
18.875,-0.997
18.880,-0.572
18.885,-0.022
18.890,0.328
18.895,0.330
18.900,0.212
18.905,0.208
18.910,0.224
18.915,0.174
18.920,0.165
18.925,0.203
18.930,0.173
18.935,0.139
18.940,0.177
18.945,0.170
18.950,0.115
18.955,0.136
18.960,0.159
18.965,0.103
18.970,0.094
18.975,0.137
18.980,0.100
18.985,0.062
18.990,0.104
18.995,0.101
19.000,0.048
19.005,0.068
19.010,0.093
19.015,0.043
19.020,0.036
19.025,0.077
19.030,0.043
19.035,0.007
19.040,0.049
19.045,0.045
19.050,-0.007
19.055,0.016
19.060,0.037
19.065,-0.015
19.070,-0.021
19.075,0.019
19.080,-0.017
19.085,-0.056
19.090,-0.020
19.095,-0.031
19.100,-0.081
19.105,-0.060
19.110,-0.045
19.115,-0.103
19.120,-0.117
19.125,-0.084
19.130,-0.120
19.135,-0.151
19.140,-0.110
19.145,-0.116
19.150,-0.159
19.155,-0.129
19.160,-0.097
19.165,-0.130
19.170,-0.115
19.175,-0.047
19.180,-0.052
19.185,-0.052
19.190,0.028
19.195,0.056
19.200,0.037
19.205,0.092
19.210,0.136
19.215,0.102
19.220,0.120
19.225,0.176
19.230,0.146
19.235,0.116
19.240,0.161
19.245,0.157
19.250,0.109
19.255,0.138
19.260,0.159
19.265,0.101
19.270,0.098
19.275,0.140
19.280,0.102
19.285,0.070
19.290,0.114
19.295,0.108
19.300,0.058
19.305,0.081
19.310,0.102
19.315,0.050
19.320,0.049
19.325,0.092
19.330,0.056
19.335,0.023
19.340,0.065
19.345,0.058
19.350,0.010
19.355,0.039
19.360,0.059
19.365,0.005
19.370,0.001
19.375,0.041
19.380,0.007
19.385,-0.022
19.390,0.021
19.395,0.014
19.400,-0.038
19.405,-0.009
19.410,0.017
19.415,-0.035
19.420,-0.031
19.425,0.015
19.430,-0.021
19.435,-0.052
19.440,-0.006
19.445,-0.003
19.450,-0.045
19.455,-0.017
19.460,0.005
19.465,-0.046
19.470,-0.042
19.475,0.006
19.480,-0.028
19.485,-0.053
19.490,-0.003
19.495,-0.006
19.500,-0.052
19.505,-0.022
19.510,0.000
19.515,-0.049
19.520,-0.042
19.525,0.006
19.530,-0.029
19.535,-0.055
19.540,-0.006
19.545,-0.011
19.550,-0.058
19.555,-0.031
19.560,-0.012
19.565,-0.062
19.570,-0.056
19.575,-0.016
19.580,-0.052
19.585,-0.077
19.590,-0.031
19.595,-0.042
19.600,-0.096
19.605,-0.067
19.610,-0.036
19.615,-0.068
19.620,-0.049
19.625,0.006
19.630,-0.016
19.635,-0.033
19.640,0.017
19.645,0.018
19.650,-0.025
19.655,0.009
19.660,0.038
19.665,-0.011
19.670,-0.010
19.675,0.041
19.680,0.008
19.685,-0.022
19.690,0.030
19.695,0.023
19.700,-0.029
19.705,0.000
19.710,0.025
19.715,-0.017
19.720,0.005
19.725,0.074
19.730,0.051
19.735,-0.029
19.740,-0.166
19.745,-0.492
19.750,-0.843
19.755,-0.952
19.760,-0.835
19.765,-0.492
19.770,0.020
19.775,0.349
19.780,0.316
19.785,0.205
19.790,0.204
19.795,0.170
19.800,0.119
19.805,0.157
19.810,0.173
19.815,0.117
19.820,0.120
19.825,0.159
19.830,0.116
19.835,0.086
19.840,0.133
19.845,0.119
19.850,0.066
19.855,0.096
19.860,0.116
19.865,0.062
19.870,0.060
19.875,0.098
19.880,0.058
19.885,0.035
19.890,0.083
19.895,0.064
19.900,0.012
19.905,0.046
19.910,0.063
19.915,0.008
19.920,0.011
19.925,0.050
19.930,0.013
19.935,-0.013
19.940,0.029
19.945,0.015
19.950,-0.033
19.955,-0.003
19.960,0.010
19.965,-0.047
19.970,-0.044
19.975,-0.007
19.980,-0.049
19.985,-0.081
19.990,-0.041
19.995,-0.059
20.000,-0.111
20.005,-0.084
20.010,-0.075
20.015,-0.132
20.020,-0.122
20.025,-0.082
20.030,-0.121
20.035,-0.139
20.040,-0.087
20.045,-0.091
20.050,-0.123
20.055,-0.075
20.060,-0.036
20.065,-0.054
20.070,-0.015
20.075,0.053
20.080,0.041
20.085,0.041
20.090,0.105
20.095,0.109
20.100,0.083
20.105,0.133
20.110,0.156
20.115,0.106
20.120,0.117
20.125,0.161
20.130,0.121
20.135,0.097
20.140,0.142
20.145,0.125
20.150,0.082
20.155,0.119
20.160,0.132
20.165,0.077
20.170,0.085
20.175,0.124
20.180,0.081
20.185,0.057
20.190,0.103
20.195,0.088
20.200,0.036
20.205,0.067
20.210,0.081
20.215,0.027
20.220,0.039
20.225,0.074
20.230,0.027
20.235,0.003
20.240,0.047
20.245,0.029
20.250,-0.019
20.255,0.013
20.260,0.028
20.265,-0.024
20.270,-0.017
20.275,0.022
20.280,-0.018
20.285,-0.042
20.290,0.004
20.295,-0.006
20.300,-0.048
20.305,-0.012
20.310,0.005
20.315,-0.041
20.320,-0.028
20.325,0.013
20.330,-0.025
20.335,-0.042
20.340,0.009
20.345,-0.004
20.350,-0.045
20.355,-0.006
20.360,0.010
20.365,-0.038
20.370,-0.024
20.375,0.017
20.380,-0.020
20.385,-0.038
20.390,0.006
20.395,-0.010
20.400,-0.053
20.405,-0.016
20.410,0.002
20.415,-0.049
20.420,-0.039
20.425,0.000
20.430,-0.040
20.435,-0.064
20.440,-0.019
20.445,-0.037
20.450,-0.082
20.455,-0.046
20.460,-0.035
20.465,-0.079
20.470,-0.048
20.475,0.007
20.480,-0.019
20.485,-0.025
20.490,0.028
20.495,0.015
20.500,-0.025
20.505,0.019
20.510,0.036
20.515,-0.014
20.520,0.001
20.525,0.040
20.530,-0.001
20.535,-0.018
20.540,0.030
20.545,0.017
20.550,-0.024
20.555,0.010
20.560,0.025
20.565,-0.024
20.570,-0.003
20.575,0.062
20.580,0.050
20.585,0.024
20.590,-0.021
20.595,-0.267
20.600,-0.633
20.605,-0.856
20.610,-0.930
20.615,-0.806
20.620,-0.341
20.625,0.154
20.630,0.294
20.635,0.234
20.640,0.220
20.645,0.181
20.650,0.128
20.655,0.166
20.660,0.179
20.665,0.126
20.670,0.135
20.675,0.165
20.680,0.119
20.685,0.099
20.690,0.139
20.695,0.115
20.700,0.069
20.705,0.105
20.710,0.116
20.715,0.059
20.720,0.069
20.725,0.104
20.730,0.058
20.735,0.036
20.740,0.079
20.745,0.060
20.750,0.018
20.755,0.052
20.760,0.062
20.765,0.007
20.770,0.016
20.775,0.051
20.780,0.007
20.785,-0.010
20.790,0.035
20.795,0.011
20.800,-0.034
20.805,0.003
20.810,0.012
20.815,-0.045
20.820,-0.037
20.825,-0.005
20.830,-0.052
20.835,-0.075
20.840,-0.035
20.845,-0.060
20.850,-0.111
20.855,-0.082
20.860,-0.075
20.865,-0.132
20.870,-0.125
20.875,-0.093
20.880,-0.138
20.885,-0.153
20.890,-0.101
20.895,-0.114
20.900,-0.143
20.905,-0.090
20.910,-0.064
20.915,-0.089
20.920,-0.041
20.925,0.025
20.930,0.011
20.935,0.023
20.940,0.096
20.945,0.098
20.950,0.074
20.955,0.127
20.960,0.151
20.965,0.110
20.970,0.131
20.975,0.171
20.980,0.127
20.985,0.108
20.990,0.152
20.995,0.133
21.000,0.088
21.005,0.120
21.010,0.125
21.015,0.073
21.020,0.093
21.025,0.126
21.030,0.077
21.035,0.058
21.040,0.101
21.045,0.082
21.050,0.041
21.055,0.079
21.060,0.085
21.065,0.030
21.070,0.044
21.075,0.079
21.080,0.032
21.085,0.010
21.090,0.054
21.095,0.033
21.100,-0.010
21.105,0.024
21.110,0.033
21.115,-0.019
21.120,-0.005
21.125,0.027
21.130,-0.020
21.135,-0.033
21.140,0.015
21.145,-0.008
21.150,-0.047
21.155,-0.005
21.160,0.005
21.165,-0.044
21.170,-0.024
21.175,0.012
21.180,-0.030
21.185,-0.043
21.190,0.006
21.195,-0.012
21.200,-0.051
21.205,-0.012
21.210,0.002
21.215,-0.045
21.220,-0.025
21.225,0.013
21.230,-0.032
21.235,-0.043
21.240,0.006
21.245,-0.016
21.250,-0.051
21.255,-0.008
21.260,0.000
21.265,-0.049
21.270,-0.027
21.275,0.011
21.280,-0.031
21.285,-0.044
21.290,-0.001
21.295,-0.026
21.300,-0.066
21.305,-0.029
21.310,-0.019
21.315,-0.068
21.320,-0.053
21.325,-0.021
21.330,-0.063
21.335,-0.074
21.340,-0.033
21.345,-0.062
21.350,-0.099
21.355,-0.045
21.360,-0.014
21.365,-0.049
21.370,-0.016
21.375,0.037
21.380,0.000
21.385,-0.009
21.390,0.040
21.395,0.018
21.400,-0.013
21.405,0.035
21.410,0.043
21.415,-0.009
21.420,0.011
21.425,0.048
21.430,0.001
21.435,-0.010
21.440,0.039
21.445,0.014
21.450,-0.024
21.455,0.017
21.460,0.039
21.465,0.028
21.470,0.079
21.475,0.090
21.480,-0.097
21.485,-0.409
21.490,-0.719
21.495,-1.006
21.500,-1.099
21.505,-0.757
21.510,-0.190
21.515,0.193
21.520,0.321
21.525,0.284
21.530,0.193
21.535,0.176
21.540,0.214
21.545,0.188
21.550,0.151
21.555,0.192
21.560,0.191
21.565,0.133
21.570,0.149
21.575,0.177
21.580,0.125
21.585,0.109
21.590,0.149
21.595,0.121
21.600,0.081
21.605,0.117
21.610,0.117
21.615,0.062
21.620,0.077
21.625,0.107
21.630,0.058
21.635,0.044
21.640,0.089
21.645,0.062
21.650,0.020
21.655,0.058
21.660,0.059
21.665,0.004
21.670,0.023
21.675,0.051
21.680,0.002
21.685,-0.010
21.690,0.029
21.695,-0.001
21.700,-0.039
21.705,0.000
21.710,-0.001
21.715,-0.057
21.720,-0.043
21.725,-0.019
21.730,-0.074
21.735,-0.093
21.740,-0.059
21.745,-0.092
21.750,-0.134
21.755,-0.100
21.760,-0.104
21.765,-0.159
21.770,-0.140
21.775,-0.108
21.780,-0.151
21.785,-0.151
21.790,-0.094
21.795,-0.109
21.800,-0.127
21.805,-0.058
21.810,-0.023
21.815,-0.039
21.820,0.014
21.825,0.074
21.830,0.056
21.835,0.075
21.840,0.140
21.845,0.129
21.850,0.104
21.855,0.155
21.860,0.165
21.865,0.117
21.870,0.142
21.875,0.174
21.880,0.124
21.885,0.111
21.890,0.152
21.895,0.122
21.900,0.087
21.905,0.126
21.910,0.122
21.915,0.068
21.920,0.088
21.925,0.115
21.930,0.062
21.935,0.056
21.940,0.103
21.945,0.073
21.950,0.036
21.955,0.075
21.960,0.072
21.965,0.018
21.970,0.041
21.975,0.070
21.980,0.018
21.985,0.011
21.990,0.054
21.995,0.023
22.000,-0.012
22.005,0.027
22.010,0.025
22.015,-0.027
22.020,-0.003
22.025,0.024
22.030,-0.028
22.035,-0.033
22.040,0.014
22.045,-0.014
22.050,-0.045
22.055,-0.003
22.060,-0.003
22.065,-0.051
22.070,-0.022
22.075,0.010
22.080,-0.038
22.085,-0.040
22.090,0.009
22.095,-0.020
22.100,-0.051
22.105,-0.003
22.110,-0.002
22.115,-0.050
22.120,-0.021
22.125,0.009
22.130,-0.039
22.135,-0.042
22.140,0.007
22.145,-0.019
22.150,-0.049
22.155,-0.006
22.160,-0.006
22.165,-0.049
22.170,-0.021
22.175,0.004
22.180,-0.041
22.185,-0.041
22.190,0.004
22.195,-0.022
22.200,-0.052
22.205,-0.009
22.210,-0.008
22.215,-0.051
22.220,-0.020
22.225,0.006
22.230,-0.042
22.235,-0.040
22.240,0.005
22.245,-0.030
22.250,-0.069
22.255,-0.025
22.260,-0.024
22.265,-0.070
22.270,-0.043
22.275,-0.022
22.280,-0.072
22.285,-0.072
22.290,-0.031
22.295,-0.065
22.300,-0.095
22.305,-0.041
22.310,-0.022
22.315,-0.053
22.320,-0.016
22.325,0.024
22.330,-0.011
22.335,-0.007
22.340,0.040
22.345,0.011
22.350,-0.015
22.355,0.036
22.360,0.036
22.365,-0.008
22.370,0.021
22.375,0.045
22.380,-0.002
22.385,0.000
22.390,0.042
22.395,0.010
22.400,-0.020
22.405,0.023
22.410,0.037
22.415,0.023
22.420,0.078
22.425,0.092
22.430,-0.072
22.435,-0.349
22.440,-0.664
22.445,-0.976
22.450,-1.082
22.455,-0.785
22.460,-0.249
22.465,0.177
22.470,0.351
22.475,0.307
22.480,0.198
22.485,0.174
22.490,0.206
22.495,0.178
22.500,0.145
22.505,0.187
22.510,0.186
22.515,0.129
22.520,0.148
22.525,0.170
22.530,0.114
22.535,0.109
22.540,0.147
22.545,0.111
22.550,0.080
22.555,0.118
22.560,0.108
22.565,0.062
22.570,0.085
22.575,0.100
22.580,0.050
22.585,0.048
22.590,0.090
22.595,0.055
22.600,0.022
22.605,0.067
22.610,0.059
22.615,0.004
22.620,0.028
22.625,0.051
22.630,-0.003
22.635,-0.006
22.640,0.034
22.645,-0.001
22.650,-0.030
22.655,0.008
22.660,-0.007
22.665,-0.058
22.670,-0.034
22.675,-0.015
22.680,-0.067
22.685,-0.079
22.690,-0.050
22.695,-0.088
22.700,-0.126
22.705,-0.090
22.710,-0.096
22.715,-0.147
22.720,-0.120
22.725,-0.094
22.730,-0.141
22.735,-0.135
22.740,-0.087
22.745,-0.109
22.750,-0.117
22.755,-0.047
22.760,-0.026
22.765,-0.045
22.770,0.014
22.775,0.064
22.780,0.043
22.785,0.074
22.790,0.136
22.795,0.112
22.800,0.096
22.805,0.152
22.810,0.153
22.815,0.114
22.820,0.142
22.825,0.159
22.830,0.108
22.835,0.111
22.840,0.156
22.845,0.119
22.850,0.088
22.855,0.132
22.860,0.120
22.865,0.067
22.870,0.094
22.875,0.116
22.880,0.065
22.885,0.059
22.890,0.097
22.895,0.065
22.900,0.035
22.905,0.078
22.910,0.070
22.915,0.019
22.920,0.045
22.925,0.063
22.930,0.009
22.935,0.007
22.940,0.047
22.945,0.015
22.950,-0.012
22.955,0.031
22.960,0.019
22.965,-0.031
22.970,0.001
22.975,0.021
22.980,-0.033
22.985,-0.026
22.990,0.017
22.995,-0.023
23.000,-0.050
23.005,0.002
23.010,-0.003
23.015,-0.051
23.020,-0.018
23.025,0.009
23.030,-0.037
23.035,-0.035
23.040,0.008
23.045,-0.023
23.050,-0.045
23.055,0.007
23.060,0.000
23.065,-0.048
23.070,-0.015
23.075,0.006
23.080,-0.042
23.085,-0.038
23.090,0.004
23.095,-0.029
23.100,-0.046
23.105,0.006
23.110,-0.008
23.115,-0.055
23.120,-0.015
23.125,0.008
23.130,-0.047
23.135,-0.044
23.140,-0.003
23.145,-0.039
23.150,-0.061
23.155,-0.016
23.160,-0.028
23.165,-0.074
23.170,-0.041
23.175,-0.019
23.180,-0.075
23.185,-0.072
23.190,-0.032
23.195,-0.061
23.200,-0.064
23.205,-0.003
23.210,0.000
23.215,-0.033
23.220,0.006
23.225,0.031
23.230,-0.012
23.235,-0.005
23.240,0.036
23.245,0.006
23.250,-0.013
23.255,0.028
23.260,0.017
23.265,-0.019
23.270,0.015
23.275,0.030
23.280,-0.021
23.285,-0.013
23.290,0.030
23.295,-0.007
23.300,-0.022
23.305,0.047
23.310,0.055
23.315,-0.008
23.320,-0.084
23.325,-0.308
23.330,-0.658
23.335,-0.846
23.340,-0.822
23.345,-0.626
23.350,-0.195
23.355,0.235
23.360,0.327
23.365,0.209
23.370,0.185
23.375,0.183
23.380,0.119
23.385,0.128
23.390,0.169
23.395,0.128
23.400,0.099
23.405,0.138
23.410,0.125
23.415,0.083
23.420,0.108
23.425,0.115
23.430,0.066
23.435,0.072
23.440,0.106
23.445,0.065
23.450,0.041
23.455,0.089
23.460,0.075
23.465,0.020
23.470,0.050
23.475,0.074
23.480,0.024
23.485,0.027
23.490,0.060
23.495,0.019
23.500,-0.002
23.505,0.043
23.510,0.031
23.515,-0.016
23.520,0.015
23.525,0.032
23.530,-0.020
23.535,-0.019
23.540,0.014
23.545,-0.026
23.550,-0.052
23.555,-0.005
23.560,-0.020
23.565,-0.074
23.570,-0.045
23.575,-0.033
23.580,-0.094
23.585,-0.100
23.590,-0.063
23.595,-0.099
23.600,-0.124
23.605,-0.083
23.610,-0.099
23.615,-0.137
23.620,-0.094
23.625,-0.076
23.630,-0.119
23.635,-0.090
23.640,-0.033
23.645,-0.056
23.650,-0.048
23.655,0.026
23.660,0.032
23.665,0.014
23.670,0.078
23.675,0.114
23.680,0.078
23.685,0.103
23.690,0.152
23.695,0.112
23.700,0.098
23.705,0.154
23.710,0.140
23.715,0.093
23.720,0.125
23.725,0.138
23.730,0.083
23.735,0.087
23.740,0.123
23.745,0.084
23.750,0.066
23.755,0.112
23.760,0.090
23.765,0.048
23.770,0.088
23.775,0.096
23.780,0.045
23.785,0.058
23.790,0.092
23.795,0.041
23.800,0.016
23.805,0.065
23.810,0.046
23.815,-0.002
23.820,0.033
23.825,0.045
23.830,-0.012
23.835,-0.004
23.840,0.036
23.845,-0.005
23.850,-0.027
23.855,0.018
23.860,-0.003
23.865,-0.045
23.870,-0.005
23.875,0.009
23.880,-0.042
23.885,-0.034
23.890,0.005
23.895,-0.028
23.900,-0.042
23.905,0.007
23.910,-0.006
23.915,-0.049
23.920,-0.011
23.925,0.004
23.930,-0.044
23.935,-0.021
23.940,0.017
23.945,-0.032
23.950,-0.045
23.955,0.007
23.960,-0.015
23.965,-0.055
23.970,-0.012
23.975,0.000
23.980,-0.051
23.985,-0.037
23.990,-0.004
23.995,-0.052
24.000,-0.070
24.005,-0.024
24.010,-0.042
24.015,-0.082
24.020,-0.031
24.025,-0.003
24.030,-0.048
24.035,-0.027
24.040,0.022
24.045,-0.011
24.050,-0.025
24.055,0.025
24.060,0.013
24.065,-0.023
24.070,0.019
24.075,0.028
24.080,-0.018
24.085,0.001
24.090,0.035
24.095,-0.003
24.100,-0.018
24.105,0.023
24.110,0.003
24.115,-0.034
24.120,0.003
24.125,0.025
24.130,-0.002
24.135,0.022
24.140,0.027
24.145,-0.132
24.150,-0.386
24.155,-0.576
24.160,-0.707
24.165,-0.735
24.170,-0.466
24.175,-0.050
24.180,0.194
24.185,0.256
24.190,0.219
24.195,0.135
24.200,0.107
24.205,0.148
24.210,0.133
24.215,0.087
24.220,0.117
24.225,0.130
24.230,0.076
24.235,0.084
24.240,0.118
24.245,0.073
24.250,0.056
24.255,0.101
24.260,0.074
24.265,0.032
24.270,0.072
24.275,0.077
24.280,0.027
24.285,0.050
24.290,0.076
24.295,0.024
24.300,0.014
24.305,0.061
24.310,0.043
24.315,0.002
24.320,0.035
24.325,0.045
24.330,-0.004
24.335,0.008
24.340,0.039
24.345,-0.008
24.350,-0.023
24.355,0.022
24.360,-0.002
24.365,-0.043
24.370,-0.005
24.375,0.002
24.380,-0.054
24.385,-0.042
24.390,-0.009
24.395,-0.055
24.400,-0.077
24.405,-0.041
24.410,-0.069
24.415,-0.108
24.420,-0.069
24.425,-0.064
24.430,-0.117
24.435,-0.101
24.440,-0.062
24.445,-0.102
24.450,-0.107
24.455,-0.051
24.460,-0.061
24.465,-0.082
24.470,-0.020
24.475,0.014
24.480,-0.009
24.485,0.030
24.490,0.080
24.495,0.051
24.500,0.058
24.505,0.121
24.510,0.108
24.515,0.075
24.520,0.125
24.525,0.137
24.530,0.083
24.535,0.099
24.540,0.131
24.545,0.085
24.550,0.074
24.555,0.119
24.560,0.090
24.565,0.049
24.570,0.092
24.575,0.099
24.580,0.047
24.585,0.064
24.590,0.095
24.595,0.044
24.600,0.029
24.605,0.075
24.610,0.054
24.615,0.020
24.620,0.060
24.625,0.061
24.630,0.005
24.635,0.024
24.640,0.060
24.645,0.011
24.650,-0.010
24.655,0.036
24.660,0.014
24.665,-0.027
24.670,0.015
24.675,0.021
24.680,-0.033
24.685,-0.014
24.690,0.020
24.695,-0.025
24.700,-0.035
24.705,0.011
24.710,-0.011
24.715,-0.043
24.720,0.001
24.725,0.004
24.730,-0.044
24.735,-0.014
24.740,0.019
24.745,-0.031
24.750,-0.043
24.755,0.001
24.760,-0.021
24.765,-0.055
24.770,-0.014
24.775,-0.011
24.780,-0.060
24.785,-0.038
24.790,-0.010
24.795,-0.060
24.800,-0.070
24.805,-0.026
24.810,-0.044
24.815,-0.061
24.820,-0.002
24.825,0.014
24.830,-0.025
24.835,0.002
24.840,0.036
24.845,-0.009
24.850,-0.015
24.855,0.037
24.860,0.014
24.865,-0.023
24.870,0.022
24.875,0.025
24.880,-0.025
24.885,0.000
24.890,0.032
24.895,-0.016
24.900,-0.021
24.905,0.025
24.910,-0.002
24.915,-0.023
24.920,0.046
24.925,0.056
24.930,-0.035
24.935,-0.150
24.940,-0.372
24.945,-0.671
24.950,-0.822
24.955,-0.749
24.960,-0.488
24.965,-0.097
24.970,0.223
24.975,0.264
24.980,0.154
24.985,0.147
24.990,0.168
24.995,0.122
25.000,0.119
25.005,0.158
25.010,0.124
25.015,0.091
25.020,0.134
25.025,0.129
25.030,0.075
25.035,0.093
25.040,0.117
25.045,0.068
25.050,0.057
25.055,0.099
25.060,0.068
25.065,0.031
25.070,0.074
25.075,0.076
25.080,0.025
25.085,0.044
25.090,0.073
25.095,0.024
25.100,0.013
25.105,0.055
25.110,0.029
25.115,-0.007
25.120,0.031
25.125,0.031
25.130,-0.020
25.135,0.005
25.140,0.032
25.145,-0.022
25.150,-0.029
25.155,0.014
25.160,-0.019
25.165,-0.058
25.170,-0.018
25.175,-0.021
25.180,-0.080
25.185,-0.064
25.190,-0.038
25.195,-0.089
25.200,-0.102
25.205,-0.064
25.210,-0.095
25.215,-0.128
25.220,-0.086
25.225,-0.089
25.230,-0.135
25.235,-0.101
25.240,-0.065
25.245,-0.102
25.250,-0.091
25.255,-0.027
25.260,-0.035
25.265,-0.044
25.270,0.028
25.275,0.056
25.280,0.030
25.285,0.073
25.290,0.114
25.295,0.079
25.300,0.089
25.305,0.143
25.310,0.116
25.315,0.087
25.320,0.133
25.325,0.135
25.330,0.084
25.335,0.104
25.340,0.129
25.345,0.080
25.350,0.073
25.355,0.113
25.360,0.083
25.365,0.051
25.370,0.094
25.375,0.092
25.380,0.037
25.385,0.058
25.390,0.082
25.395,0.036
25.400,0.038
25.405,0.082
25.410,0.047
25.415,0.010
25.420,0.054
25.425,0.055
25.430,0.003
25.435,0.027
25.440,0.051
25.445,-0.003
25.450,-0.005
25.455,0.040
25.460,0.009
25.465,-0.023
25.470,0.020
25.475,0.013
25.480,-0.041
25.485,-0.015
25.490,0.017
25.495,-0.028
25.500,-0.031
25.505,0.014
25.510,-0.018
25.515,-0.049
25.520,0.001
25.525,0.004
25.530,-0.044
25.535,-0.016
25.540,0.011
25.545,-0.039
25.550,-0.039
25.555,0.010
25.560,-0.018
25.565,-0.048
25.570,-0.001
25.575,-0.001
25.580,-0.048
25.585,-0.018
25.590,0.011
25.595,-0.036
25.600,-0.036
25.605,0.009
25.610,-0.020
25.615,-0.052
25.620,-0.009
25.625,-0.014
25.630,-0.062
25.635,-0.031
25.640,-0.003
25.645,-0.057
25.650,-0.061
25.655,-0.015
25.660,-0.047
25.665,-0.080
25.670,-0.037
25.675,-0.043
25.680,-0.086
25.685,-0.038
25.690,0.009
25.695,-0.027
25.700,-0.015
25.705,0.037
25.710,0.006
25.715,-0.021
25.720,0.027
25.725,0.028
25.730,-0.016
25.735,0.016
25.740,0.044
25.745,-0.005
25.750,-0.006
25.755,0.039
25.760,0.009
25.765,-0.021
25.770,0.024
25.775,0.019
25.780,-0.028
25.785,0.017
25.790,0.078
25.795,0.047
25.800,0.004
25.805,-0.106
25.810,-0.430
25.815,-0.758
25.820,-0.893
25.825,-0.883
25.830,-0.607
25.835,-0.087
25.840,0.264
25.845,0.262
25.850,0.198
25.855,0.211
25.860,0.167
25.865,0.131
25.870,0.180
25.875,0.172
25.880,0.119
25.885,0.147
25.890,0.165
25.895,0.109
25.900,0.107
25.905,0.147
25.910,0.109
25.915,0.076
25.920,0.116
25.925,0.106
25.930,0.057
25.935,0.082
25.940,0.100
25.945,0.048
25.950,0.048
25.955,0.088
25.960,0.053
25.965,0.023
25.970,0.066
25.975,0.057
25.980,0.009
25.985,0.036
25.990,0.054
25.995,0.001
26.000,0.002
26.005,0.042
26.010,0.005
26.015,-0.026
26.020,0.016
26.025,0.004
26.030,-0.048
26.035,-0.024
26.040,-0.003
26.045,-0.055
26.050,-0.060
26.055,-0.026
26.060,-0.067
26.065,-0.103
26.070,-0.067
26.075,-0.080
26.080,-0.133
26.085,-0.109
26.090,-0.090
26.095,-0.141
26.100,-0.136
26.105,-0.089
26.110,-0.115
26.115,-0.133
26.120,-0.075
26.125,-0.060
26.130,-0.085
26.135,-0.029
26.140,0.028
26.145,0.008
26.150,0.034
26.155,0.097
26.160,0.083
26.165,0.079
26.170,0.139
26.175,0.136
26.180,0.098
26.185,0.136
26.190,0.159
26.195,0.109
26.200,0.112
26.205,0.153
26.210,0.115
26.215,0.085
26.220,0.129
26.225,0.119
26.230,0.070
26.235,0.097
26.240,0.115
26.245,0.062
26.250,0.064
26.255,0.103
26.260,0.064
26.265,0.037
26.270,0.085
26.275,0.075
26.280,0.026
26.285,0.054
26.290,0.071
26.295,0.019
26.300,0.021
26.305,0.062
26.310,0.023
26.315,-0.005
26.320,0.043
26.325,0.030
26.330,-0.023
26.335,0.012
26.340,0.034
26.345,-0.024
26.350,-0.019
26.355,0.024
26.360,-0.017
26.365,-0.043
26.370,0.004
26.375,-0.003
26.380,-0.046
26.385,-0.012
26.390,0.009
26.395,-0.041
26.400,-0.030
26.405,0.015
26.410,-0.024
26.415,-0.048
26.420,0.003
26.425,-0.004
26.430,-0.046
26.435,-0.012
26.440,0.008
26.445,-0.039
26.450,-0.029
26.455,0.012
26.460,-0.026
26.465,-0.046
26.470,0.005
26.475,-0.005
26.480,-0.051
26.485,-0.017
26.490,0.005
26.495,-0.045
26.500,-0.036
26.505,0.013
26.510,-0.026
26.515,-0.057
26.520,-0.015
26.525,-0.028
26.530,-0.073
26.535,-0.034
26.540,-0.016
26.545,-0.073
26.550,-0.064
26.555,-0.021
26.560,-0.066
26.565,-0.096
26.570,-0.046
26.575,-0.044
26.580,-0.070
26.585,-0.017
26.590,0.016
26.595,-0.024
26.600,-0.008
26.605,0.040
26.610,0.010
26.615,-0.011
26.620,0.036
26.625,0.030
26.630,-0.011
26.635,0.021
26.640,0.040
26.645,-0.009
26.650,0.002
26.655,0.044
26.660,0.003
26.665,-0.019
26.670,0.028
26.675,0.019
26.680,-0.009
26.685,0.059
26.690,0.105
26.695,0.032
26.700,-0.097
26.705,-0.348
26.710,-0.736
26.715,-1.012
26.720,-1.012
26.725,-0.728
26.730,-0.224
26.735,0.235
26.740,0.350
26.745,0.227
26.750,0.193
26.755,0.220
26.760,0.171
26.765,0.151
26.770,0.197
26.775,0.178
26.780,0.129
26.785,0.164
26.790,0.177
26.795,0.118
26.800,0.123
26.805,0.157
26.810,0.110
26.815,0.084
26.820,0.127
26.825,0.108
26.830,0.060
26.835,0.092
26.840,0.103
26.845,0.048
26.850,0.057
26.855,0.094
26.860,0.050
26.865,0.026
26.870,0.070
26.875,0.052
26.880,0.005
26.885,0.039
26.890,0.051
26.895,-0.004
26.900,0.004
26.905,0.039
26.910,-0.007
26.915,-0.031
26.920,0.014
26.925,-0.006
26.930,-0.056
26.935,-0.025
26.940,-0.016
26.945,-0.075
26.950,-0.069
26.955,-0.036
26.960,-0.088
26.965,-0.117
26.970,-0.079
26.975,-0.103
26.980,-0.151
26.985,-0.117
26.990,-0.105
26.995,-0.156
27.000,-0.140
27.005,-0.093
27.010,-0.125
27.015,-0.130
27.020,-0.065
27.025,-0.061
27.030,-0.076
27.035,-0.006
27.040,0.039
27.045,0.018
27.050,0.058
27.055,0.121
27.060,0.099
27.065,0.093
27.070,0.151
27.075,0.146
27.080,0.109
27.085,0.149
27.090,0.163
27.095,0.110
27.100,0.123
27.105,0.162
27.110,0.115
27.115,0.088
27.120,0.134
27.125,0.119
27.130,0.070
27.135,0.104
27.140,0.117
27.145,0.061
27.150,0.068
27.155,0.103
27.160,0.062
27.165,0.043
27.170,0.085
27.175,0.064
27.180,0.020
27.185,0.057
27.190,0.069
27.195,0.012
27.200,0.022
27.205,0.062
27.210,0.018
27.215,-0.006
27.220,0.039
27.225,0.022
27.230,-0.022
27.235,0.010
27.240,0.018
27.245,-0.034
27.250,-0.020
27.255,0.017
27.260,-0.025
27.265,-0.043
27.270,0.006
27.275,-0.009
27.280,-0.050
27.285,-0.010
27.290,0.005
27.295,-0.045
27.300,-0.031
27.305,0.009
27.310,-0.030
27.315,-0.045
27.320,0.002
27.325,-0.016
27.330,-0.059
27.335,-0.019
27.340,0.006
27.345,-0.039
27.350,-0.028
27.355,0.011
27.360,-0.030
27.365,-0.047
27.370,0.005
27.375,-0.011
27.380,-0.051
27.385,-0.009
27.390,0.003
27.395,-0.050
27.400,-0.033
27.405,0.007
27.410,-0.035
27.415,-0.051
27.420,-0.003
27.425,-0.018
27.430,-0.057
27.435,-0.024
27.440,-0.018
27.445,-0.071
27.450,-0.051
27.455,-0.010
27.460,-0.060
27.465,-0.077
27.470,-0.027
27.475,-0.050
27.480,-0.097
27.485,-0.061
27.490,-0.044
27.495,-0.079
27.500,-0.041
27.505,0.013
27.510,-0.017
27.515,-0.016
27.520,0.036
27.525,0.017
27.530,-0.019
27.535,0.026
27.540,0.040
27.545,-0.004
27.550,0.015
27.555,0.050
27.560,0.007
27.565,-0.005
27.570,0.043
27.575,0.021
27.580,-0.022
27.585,0.018
27.590,0.030
27.595,-0.015
27.600,0.026
27.605,0.101
27.610,0.077
27.615,0.005
27.620,-0.151
27.625,-0.526
27.630,-0.915
27.635,-1.065
27.640,-0.973
27.645,-0.567
27.650,0.024
27.655,0.352
27.660,0.305
27.665,0.220
27.670,0.230
27.675,0.195
27.680,0.155
27.685,0.190
27.690,0.191
27.695,0.138
27.700,0.152
27.705,0.184
27.710,0.133
27.715,0.112
27.720,0.154
27.725,0.128
27.730,0.084
27.735,0.121
27.740,0.127
27.745,0.067
27.750,0.080
27.755,0.112
27.760,0.063
27.765,0.049
27.770,0.093
27.775,0.066
27.780,0.023
27.785,0.059
27.790,0.065
27.795,0.015
27.800,0.032
27.805,0.063
27.810,0.013
27.815,-0.005
27.820,0.038
27.825,0.015
27.830,-0.026
27.835,0.009
27.840,0.009
27.845,-0.049
27.850,-0.034
27.855,-0.007
27.860,-0.059
27.865,-0.073
27.870,-0.034
27.875,-0.066
27.880,-0.114
27.885,-0.084
27.890,-0.088
27.895,-0.148
27.900,-0.132
27.905,-0.102
27.910,-0.148
27.915,-0.155
27.920,-0.105
27.925,-0.120
27.930,-0.145
27.935,-0.091
27.940,-0.064
27.945,-0.088
27.950,-0.040
27.955,0.028
27.960,0.014
27.965,0.033
27.970,0.108
27.975,0.108
27.980,0.087
27.985,0.140
27.990,0.160
27.995,0.122
28.000,0.147
28.005,0.180
28.010,0.132
28.015,0.121
28.020,0.167
28.025,0.141
28.030,0.099
28.035,0.136
28.040,0.141
28.045,0.088
28.050,0.103
28.055,0.130
28.060,0.081
28.065,0.068
28.070,0.112
28.075,0.084
28.080,0.044
28.085,0.085
28.090,0.087
28.095,0.031
28.100,0.048
28.105,0.079
28.110,0.030
28.115,0.014
28.120,0.057
28.125,0.031
28.130,-0.008
28.135,0.031
28.140,0.032
28.145,-0.020
28.150,0.002
28.155,0.031
28.160,-0.023
28.165,-0.034
28.170,0.014
28.175,-0.010
28.180,-0.044
28.185,-0.007
28.190,-0.001
28.195,-0.047
28.200,-0.023
28.205,0.010
28.210,-0.038
28.215,-0.044
28.220,0.008
28.225,-0.016
28.230,-0.053
28.235,-0.007
28.240,0.002
28.245,-0.048
28.250,-0.027
28.255,0.006
28.260,-0.039
28.265,-0.047
28.270,0.002
28.275,-0.016
28.280,-0.049
28.285,-0.009
28.290,-0.004
28.295,-0.052
28.300,-0.025
28.305,0.009
28.310,-0.040
28.315,-0.047
28.320,0.002
28.325,-0.021
28.330,-0.051
28.335,-0.008
28.340,-0.006
28.345,-0.053
28.350,-0.027
28.355,0.004
28.360,-0.044
28.365,-0.049
28.370,0.002
28.375,-0.025
28.380,-0.059
28.385,-0.009
28.390,-0.002
28.395,-0.056
28.400,-0.038
28.405,-0.008
28.410,-0.057
28.415,-0.062
28.420,-0.012
28.425,-0.044
28.430,-0.083
28.435,-0.032
28.440,-0.028
28.445,-0.088
28.450,-0.074
28.455,-0.041
28.460,-0.073
28.465,-0.057
28.470,0.006
28.475,-0.009
28.480,-0.029
28.485,0.022
28.490,0.027
28.495,-0.016
28.500,0.011
28.505,0.043
28.510,0.001
28.515,-0.001
28.520,0.048
28.525,0.024
28.530,-0.011
28.535,0.033
28.540,0.036
28.545,-0.014
28.550,0.011
28.555,0.038
28.560,-0.007
28.565,0.008
28.570,0.087
28.575,0.075
28.580,-0.011
28.585,-0.154
28.590,-0.490
28.595,-0.868
28.600,-1.006
28.605,-0.891
28.610,-0.520
28.615,0.016
28.620,0.358
28.625,0.330
28.630,0.214
28.635,0.217
28.640,0.201
28.645,0.144
28.650,0.165
28.655,0.193
28.660,0.143
28.665,0.132
28.670,0.172
28.675,0.139
28.680,0.100
28.685,0.141
28.690,0.139
28.695,0.082
28.700,0.102
28.705,0.127
28.710,0.073
28.715,0.067
28.720,0.109
28.725,0.075
28.730,0.039
28.735,0.082
28.740,0.077
28.745,0.025
28.750,0.048
28.755,0.072
28.760,0.021
28.765,0.019
28.770,0.062
28.775,0.026
28.780,-0.012
28.785,0.026
28.790,0.023
28.795,-0.026
28.800,-0.007
28.805,0.014
28.810,-0.037
28.815,-0.041
28.820,0.000
28.825,-0.041
28.830,-0.085
28.835,-0.045
28.840,-0.051
28.845,-0.107
28.850,-0.089
28.855,-0.065
28.860,-0.118
28.865,-0.130
28.870,-0.089
28.875,-0.117
28.880,-0.149
28.885,-0.102
28.890,-0.096
28.895,-0.131
28.900,-0.086
28.905,-0.044
28.910,-0.072
28.915,-0.042
28.920,0.030
28.925,0.025
28.930,0.023
28.935,0.094
28.940,0.110
28.945,0.076
28.950,0.118
28.955,0.157
28.960,0.118
28.965,0.122
28.970,0.166
28.975,0.135
28.980,0.105
28.985,0.146
28.990,0.141
28.995,0.091
29.000,0.116
29.005,0.141
29.010,0.089
29.015,0.083
29.020,0.123
29.025,0.091
29.030,0.062
29.035,0.103
29.040,0.093
29.045,0.043
29.050,0.067
29.055,0.089
29.060,0.038
29.065,0.033
29.070,0.072
29.075,0.034
29.080,0.003
29.085,0.045
29.090,0.035
29.095,-0.012
29.100,0.012
29.105,0.025
29.110,-0.024
29.115,-0.017
29.120,0.025
29.125,-0.013
29.130,-0.041
29.135,0.003
29.140,-0.003
29.145,-0.048
29.150,-0.015
29.155,0.014
29.160,-0.034
29.165,-0.034
29.170,0.011
29.175,-0.020
29.180,-0.045
29.185,0.006
29.190,0.004
29.195,-0.043
29.200,-0.012
29.205,0.013
29.210,-0.034
29.215,-0.027
29.220,0.019
29.225,-0.015
29.230,-0.042
29.235,0.006
29.240,-0.001
29.245,-0.047
29.250,-0.011
29.255,0.012
29.260,-0.040
29.265,-0.035
29.270,0.011
29.275,-0.023
29.280,-0.046
29.285,0.004
29.290,0.001
29.295,-0.045
29.300,-0.017
29.305,0.005
29.310,-0.042
29.315,-0.039
29.320,-0.001
29.325,-0.034
29.330,-0.062
29.335,-0.017
29.340,-0.019
29.345,-0.067
29.350,-0.039
29.355,-0.014
29.360,-0.067
29.365,-0.070
29.370,-0.033
29.375,-0.068
29.380,-0.086
29.385,-0.019
29.390,-0.006
29.395,-0.043
29.400,-0.002
29.405,0.031
29.410,-0.012
29.415,-0.005
29.420,0.037
29.425,0.003
29.430,-0.016
29.435,0.034
29.440,0.025
29.445,-0.018
29.450,0.019
29.455,0.040
29.460,-0.011
29.465,-0.007
29.470,0.034
29.475,0.000
29.480,-0.023
29.485,0.034
29.490,0.052
29.495,0.027
29.500,0.041
29.505,-0.054
29.510,-0.378
29.515,-0.710
29.520,-0.894
29.525,-0.956
29.530,-0.714
29.535,-0.169
29.540,0.230
29.545,0.292
29.550,0.253
29.555,0.222
29.560,0.155
29.565,0.148
29.570,0.195
29.575,0.156
29.580,0.123
29.585,0.164
29.590,0.150
29.595,0.104
29.600,0.136
29.605,0.148
29.610,0.088
29.615,0.090
29.620,0.130
29.625,0.088
29.630,0.060
29.635,0.102
29.640,0.090
29.645,0.043
29.650,0.069
29.655,0.086
29.660,0.037
29.665,0.039
29.670,0.077
29.675,0.037
29.680,0.010
29.685,0.053
29.690,0.039
29.695,-0.008
29.700,0.025
29.705,0.042
29.710,-0.013
29.715,-0.011
29.720,0.027
29.725,-0.016
29.730,-0.046
29.735,-0.003
29.740,-0.015
29.745,-0.064
29.750,-0.041
29.755,-0.030
29.760,-0.088
29.765,-0.091
29.770,-0.060
29.775,-0.105
29.780,-0.134
29.785,-0.094
29.790,-0.111
29.795,-0.159
29.800,-0.125
29.805,-0.099
29.810,-0.140
29.815,-0.125
29.820,-0.074
29.825,-0.097
29.830,-0.101
29.835,-0.022
29.840,0.001
29.845,-0.015
29.850,0.046
29.855,0.090
29.860,0.061
29.865,0.090
29.870,0.148
29.875,0.122
29.880,0.107
29.885,0.161
29.890,0.155
29.895,0.109
29.900,0.140
29.905,0.159
29.910,0.106
29.915,0.112
29.920,0.152
29.925,0.109
29.930,0.077
29.935,0.124
29.940,0.113
29.945,0.064
29.950,0.096
29.955,0.112
29.960,0.057
29.965,0.065
29.970,0.104
29.975,0.060
29.980,0.031
29.985,0.074
29.990,0.059
29.995,0.010
30.000,0.041
30.005,0.055
30.010,0.001
30.015,0.007
30.020,0.042
30.025,-0.003
30.030,-0.029
30.035,0.018
30.040,0.006
30.045,-0.043
30.050,-0.009
30.055,0.011
30.060,-0.041
30.065,-0.034
30.070,0.008
30.075,-0.029
30.080,-0.050
30.085,0.002
30.090,-0.012
30.095,-0.055
30.100,-0.013
30.105,0.008
30.110,-0.043
30.115,-0.033
30.120,0.011
30.125,-0.025
30.130,-0.045
30.135,0.005
30.140,-0.006
30.145,-0.049
30.150,-0.011
30.155,0.006
30.160,-0.043
30.165,-0.031
30.170,0.012
30.175,-0.025
30.180,-0.046
30.185,0.003
30.190,-0.008
30.195,-0.051
30.200,-0.012
30.205,0.006
30.210,-0.044
30.215,-0.032
30.220,0.008
30.225,-0.027
30.230,-0.042
30.235,0.003
30.240,-0.011
30.245,-0.052
30.250,-0.014
30.255,0.002
30.260,-0.054
30.265,-0.050
30.270,-0.010
30.275,-0.047
30.280,-0.067
30.285,-0.025
30.290,-0.038
30.295,-0.077
30.300,-0.046
30.305,-0.039
30.310,-0.093
30.315,-0.077
30.320,-0.018
30.325,-0.037
30.330,-0.043
30.335,0.019
30.340,0.016
30.345,-0.020
30.350,0.023
30.355,0.043
30.360,-0.007
30.365,0.007
30.370,0.051
30.375,0.016
30.380,-0.004
30.385,0.041
30.390,0.026
30.395,-0.015
30.400,0.024
30.405,0.039
30.410,-0.012
30.415,-0.001
30.420,0.044
30.425,0.034
30.430,0.057
30.435,0.108
30.440,-0.001
30.445,-0.287
30.450,-0.611
30.455,-0.920
30.460,-1.118
30.465,-0.943
30.470,-0.393
30.475,0.103
30.480,0.307
30.485,0.316
30.490,0.238
30.495,0.173
30.500,0.201
30.505,0.216
30.510,0.161
30.515,0.170
30.520,0.206
30.525,0.159
30.530,0.136
30.535,0.176
30.540,0.151
30.545,0.104
30.550,0.136
30.555,0.143
30.560,0.088
30.565,0.098
30.570,0.131
30.575,0.084
30.580,0.062
30.585,0.105
30.590,0.082
30.595,0.038
30.600,0.077
30.605,0.086
30.610,0.029
30.615,0.040
30.620,0.074
30.625,0.026
30.630,0.003
30.635,0.048
30.640,0.031
30.645,-0.015
30.650,0.017
30.655,0.027
30.660,-0.029
30.665,-0.021
30.670,0.017
30.675,-0.031
30.680,-0.059
30.685,-0.019
30.690,-0.045
30.695,-0.095
30.700,-0.064
30.705,-0.062
30.710,-0.123
30.715,-0.113
30.720,-0.083
30.725,-0.137
30.730,-0.155
30.735,-0.108
30.740,-0.129
30.745,-0.164
30.750,-0.116
30.755,-0.094
30.760,-0.130
30.765,-0.094
30.770,-0.031
30.775,-0.045
30.780,-0.030
30.785,0.052
30.790,0.062
30.795,0.045
30.800,0.111
30.805,0.145
30.810,0.104
30.815,0.131
30.820,0.176
30.825,0.136
30.830,0.126
30.835,0.174
30.840,0.152
30.845,0.106
30.850,0.143
30.855,0.153
30.860,0.097
30.865,0.107
30.870,0.139
30.875,0.092
30.880,0.073
30.885,0.117
30.890,0.096
30.895,0.051
30.900,0.088
30.905,0.098
30.910,0.044
30.915,0.056
30.920,0.090
30.925,0.043
30.930,0.023
30.935,0.069
30.940,0.048
30.945,0.004
30.950,0.040
30.955,0.044
30.960,-0.011
30.965,0.004
30.970,0.038
30.975,-0.009
30.980,-0.026
30.985,0.022
30.990,-0.002
30.995,-0.046
31.000,-0.006
31.005,0.004
31.010,-0.048
31.015,-0.031
31.020,0.008
31.025,-0.034
31.030,-0.049
31.035,-0.002
31.040,-0.022
31.045,-0.057
31.050,-0.010
31.055,0.000
31.060,-0.049
31.065,-0.030
31.070,0.004
31.075,-0.036
31.080,-0.046
31.085,0.004
31.090,-0.015
31.095,-0.052
31.100,-0.008
31.105,0.000
31.110,-0.052
31.115,-0.033
31.120,0.002
31.125,-0.040
31.130,-0.049
31.135,0.003
31.140,-0.017
31.145,-0.055
31.150,-0.011
31.155,-0.003
31.160,-0.054
31.165,-0.031
31.170,0.006
31.175,-0.037
31.180,-0.046
31.185,0.002
31.190,-0.019
31.195,-0.057
31.200,-0.013
31.205,-0.004
31.210,-0.055
31.215,-0.031
31.220,0.007
31.225,-0.038
31.230,-0.047
31.235,0.000
31.240,-0.023
31.245,-0.059
31.250,-0.021
31.255,-0.017
31.260,-0.067
31.265,-0.048
31.270,-0.016
31.275,-0.060
31.280,-0.069
31.285,-0.024
31.290,-0.054
31.295,-0.100
31.300,-0.057
31.305,-0.036
31.310,-0.066
31.315,-0.030
31.320,0.018
31.325,-0.006
31.330,-0.005
31.335,0.042
31.340,0.020
31.345,-0.014
31.350,0.034
31.355,0.048
31.360,0.000
31.365,0.021
31.370,0.057
31.375,0.011
31.380,-0.001
31.385,0.046
31.390,0.020
31.395,-0.017
31.400,0.031
31.405,0.041
31.410,0.003
31.415,0.060
31.420,0.123
31.425,0.045
31.430,-0.127
31.435,-0.408
31.440,-0.806
31.445,-1.100
31.450,-1.066
31.455,-0.681
31.460,-0.136
31.465,0.284
31.470,0.381
31.475,0.255
31.480,0.196
31.485,0.226
31.490,0.201
31.495,0.168
31.500,0.200
31.505,0.200
31.510,0.147
31.515,0.160
31.520,0.187
31.525,0.136
31.530,0.122
31.535,0.161
31.540,0.127
31.545,0.086
31.550,0.124
31.555,0.124
31.560,0.068
31.565,0.087
31.570,0.116
31.575,0.064
31.580,0.052
31.585,0.098
31.590,0.070
31.595,0.029
31.600,0.067
31.605,0.068
31.610,0.014
31.615,0.033
31.620,0.062
31.625,0.010
31.630,-0.002
31.635,0.044
31.640,0.011
31.645,-0.032
31.650,0.007
31.655,0.008
31.660,-0.048
31.665,-0.033
31.670,-0.011
31.675,-0.064
31.680,-0.077
31.685,-0.043
31.690,-0.076
31.695,-0.113
31.700,-0.083
31.705,-0.091
31.710,-0.148
31.715,-0.131
31.720,-0.103
31.725,-0.150
31.730,-0.154
31.735,-0.104
31.740,-0.124
31.745,-0.147
31.750,-0.085
31.755,-0.059
31.760,-0.085
31.765,-0.032
31.770,0.033
31.775,0.019
31.780,0.042
31.785,0.111
31.790,0.105
31.795,0.091
31.800,0.148
31.805,0.161
31.810,0.120
31.815,0.147
31.820,0.183
31.825,0.138
31.830,0.128
31.835,0.170
31.840,0.137
31.845,0.098
31.850,0.139
31.855,0.138
31.860,0.084
31.865,0.104
31.870,0.131
31.875,0.079
31.880,0.071
31.885,0.117
31.890,0.083
31.895,0.043
31.900,0.085
31.905,0.084
31.910,0.029
31.915,0.049
31.920,0.078
31.925,0.030
31.930,0.015
31.935,0.054
31.940,0.027
31.945,-0.006
31.950,0.031
31.955,0.027
31.960,-0.024
31.965,-0.003
31.970,0.024
31.975,-0.026
31.980,-0.032
31.985,0.013
31.990,-0.015
31.995,-0.048
32.000,-0.002
32.005,0.000
32.010,-0.050
32.015,-0.023
32.020,0.007
32.025,-0.039
32.030,-0.038
32.035,0.011
32.040,-0.017
32.045,-0.052
32.050,-0.007
32.055,-0.002
32.060,-0.048
32.065,-0.021
32.070,0.010
32.075,-0.037
32.080,-0.039
32.085,0.010
32.090,-0.017
32.095,-0.050
32.100,-0.003
32.105,0.000
32.110,-0.049
32.115,-0.024
32.120,0.006
32.125,-0.039
32.130,-0.042
32.135,0.004
32.140,-0.025
32.145,-0.055
32.150,-0.009
32.155,-0.004
32.160,-0.051
32.165,-0.028
32.170,0.004
32.175,-0.041
32.180,-0.046
32.185,0.001
32.190,-0.022
32.195,-0.052
32.200,-0.011
32.205,-0.008
32.210,-0.053
32.215,-0.026
32.220,0.005
32.225,-0.042
32.230,-0.045
32.235,-0.001
32.240,-0.037
32.245,-0.072
32.250,-0.025
32.255,-0.023
32.260,-0.071
32.265,-0.047
32.270,-0.021
32.275,-0.069
32.280,-0.075
32.285,-0.039
32.290,-0.073
32.295,-0.095
32.300,-0.032
32.305,-0.015
32.310,-0.048
32.315,-0.003
32.320,0.039
32.325,-0.005
32.330,-0.006
32.335,0.042
32.340,0.015
32.345,-0.006
32.350,0.047
32.355,0.042
32.360,-0.009
32.365,0.020
32.370,0.046
32.375,0.000
32.380,0.000
32.385,0.042
32.390,0.011
32.395,-0.014
32.400,0.040
32.405,0.067
32.410,0.056
32.415,0.083
32.420,0.008
32.425,-0.312
32.430,-0.699
32.435,-0.974
32.440,-1.118
32.445,-0.918
32.450,-0.312
32.455,0.210
32.460,0.340
32.465,0.307
32.470,0.267
32.475,0.187
32.480,0.172
32.485,0.221
32.490,0.184
32.495,0.150
32.500,0.194
32.505,0.184
32.510,0.131
32.515,0.153
32.520,0.174
32.525,0.118
32.530,0.108
32.535,0.147
32.540,0.113
32.545,0.076
32.550,0.118
32.555,0.115
32.560,0.060
32.565,0.085
32.570,0.106
32.575,0.052
32.580,0.050
32.585,0.089
32.590,0.053
32.595,0.022
32.600,0.063
32.605,0.055
32.610,0.003
32.615,0.027
32.620,0.046
32.625,-0.005
32.630,-0.005
32.635,0.034
32.640,-0.005
32.645,-0.039
32.650,0.001
32.655,-0.008
32.660,-0.062
32.665,-0.041
32.670,-0.022
32.675,-0.081
32.680,-0.090
32.685,-0.053
32.690,-0.098
32.695,-0.139
32.700,-0.099
32.705,-0.107
32.710,-0.160
32.715,-0.134
32.720,-0.107
32.725,-0.153
32.730,-0.145
32.735,-0.088
32.740,-0.104
32.745,-0.114
32.750,-0.045
32.755,-0.023
32.760,-0.041
32.765,0.023
32.770,0.082
32.775,0.059
32.780,0.082
32.785,0.146
32.790,0.127
32.795,0.112
32.800,0.170
32.805,0.170
32.810,0.123
32.815,0.153
32.820,0.179
32.825,0.127
32.830,0.123
32.835,0.164
32.840,0.127
32.845,0.096
32.850,0.138
32.855,0.129
32.860,0.078
32.865,0.102
32.870,0.123
32.875,0.073
32.880,0.070
32.885,0.105
32.890,0.068
32.895,0.039
32.900,0.081
32.905,0.069
32.910,0.018
32.915,0.043
32.920,0.059
32.925,0.006
32.930,0.007
32.935,0.046
32.940,0.006
32.945,-0.022
32.950,0.023
32.955,0.008
32.960,-0.042
32.965,-0.008
32.970,0.014
32.975,-0.038
32.980,-0.036
32.985,0.007
32.990,-0.024
32.995,-0.047
33.000,-0.002
33.005,-0.007
33.010,-0.052
33.015,-0.020
33.020,0.006
33.025,-0.042
33.030,-0.037
33.035,0.007
33.040,-0.026
33.045,-0.049
33.050,0.001
33.055,-0.006
33.060,-0.053
33.065,-0.016
33.070,0.008
33.075,-0.043
33.080,-0.036
33.085,0.010
33.090,-0.025
33.095,-0.049
33.100,-0.002
33.105,-0.011
33.110,-0.053
33.115,-0.021
33.120,-0.001
33.125,-0.046
33.130,-0.038
33.135,0.004
33.140,-0.032
33.145,-0.056
33.150,-0.006
33.155,-0.012
33.160,-0.058
33.165,-0.025
33.170,-0.001
33.175,-0.049
33.180,-0.042
33.185,0.001
33.190,-0.034
33.195,-0.057
33.200,-0.007
33.205,-0.015
33.210,-0.056
33.215,-0.020
33.220,-0.006
33.225,-0.063
33.230,-0.057
33.235,-0.014
33.240,-0.052
33.245,-0.076
33.250,-0.028
33.255,-0.038
33.260,-0.087
33.265,-0.061
33.270,-0.044
33.275,-0.092
33.280,-0.073
33.285,-0.008
33.290,-0.026
33.295,-0.039
33.300,0.020
33.305,0.023
33.310,-0.015
33.315,0.020
33.320,0.041
33.325,-0.005
33.330,0.008
33.335,0.054
33.340,0.018
33.345,-0.005
33.350,0.042
33.355,0.032
33.360,-0.014
33.365,0.019
33.370,0.039
33.375,-0.010
33.380,0.001
33.385,0.063
33.390,0.065
33.395,0.067
33.400,0.072
33.405,-0.122
33.410,-0.522
33.415,-0.872
33.420,-1.079
33.425,-1.080
33.430,-0.643
33.435,0.006
33.440,0.328
33.445,0.328
33.450,0.291
33.455,0.231
33.460,0.167
33.465,0.200
33.470,0.220
33.475,0.162
33.480,0.165
33.485,0.204
33.490,0.158
33.495,0.129
33.500,0.171
33.505,0.151
33.510,0.098
33.515,0.131
33.520,0.146
33.525,0.086
33.530,0.090
33.535,0.129
33.540,0.085
33.545,0.056
33.550,0.101
33.555,0.085
33.560,0.036
33.565,0.072
33.570,0.087
33.575,0.028
33.580,0.034
33.585,0.074
33.590,0.030
33.595,0.005
33.600,0.052
33.605,0.031
33.610,-0.020
33.615,0.014
33.620,0.027
33.625,-0.031
33.630,-0.027
33.635,0.005
33.640,-0.042
33.645,-0.064
33.650,-0.019
33.655,-0.042
33.660,-0.097
33.665,-0.072
33.670,-0.065
33.675,-0.126
33.680,-0.127
33.685,-0.094
33.690,-0.139
33.695,-0.164
33.700,-0.115
33.705,-0.120
33.710,-0.155
33.715,-0.111
33.720,-0.082
33.725,-0.119
33.730,-0.090
33.735,-0.021
33.740,-0.031
33.745,-0.018
33.750,0.064
33.755,0.077
33.760,0.056
33.765,0.116
33.770,0.150
33.775,0.112
33.780,0.134
33.785,0.181
33.790,0.147
33.795,0.131
33.800,0.175
33.805,0.158
33.810,0.114
33.815,0.148
33.820,0.162
33.825,0.103
33.830,0.110
33.835,0.152
33.840,0.105
33.845,0.078
33.850,0.127
33.855,0.107
33.860,0.058
33.865,0.094
33.870,0.105
33.875,0.044
33.880,0.050
33.885,0.088
33.890,0.045
33.895,0.018
33.900,0.057
33.905,0.041
33.910,-0.003
33.915,0.028
33.920,0.039
33.925,-0.014
33.930,-0.007
33.935,0.028
33.940,-0.014
33.945,-0.036
33.950,0.009
33.955,-0.006
33.960,-0.049
33.965,-0.012
33.970,0.005
33.975,-0.043
33.980,-0.029
33.985,0.010
33.990,-0.029
33.995,-0.048
34.000,0.001
34.005,-0.010
34.010,-0.051
34.015,-0.011
34.020,0.007
34.025,-0.045
34.030,-0.032
34.035,0.010
34.040,-0.029
34.045,-0.044
34.050,0.005
34.055,-0.010
34.060,-0.049
34.065,-0.012
34.070,0.004
34.075,-0.043
34.080,-0.033
34.085,0.006
34.090,-0.032
34.095,-0.048
34.100,0.000
34.105,-0.016
34.110,-0.056
34.115,-0.017
34.120,-0.001
34.125,-0.047
34.130,-0.032
34.135,0.005
34.140,-0.036
34.145,-0.051
34.150,0.001
34.155,-0.014
34.160,-0.056
34.165,-0.015
34.170,0.001
34.175,-0.051
34.180,-0.037
34.185,0.005
34.190,-0.032
34.195,-0.050
34.200,-0.007
34.205,-0.026
34.210,-0.071
34.215,-0.033
34.220,-0.015
34.225,-0.064
34.230,-0.056
34.235,-0.021
34.240,-0.060
34.245,-0.081
34.250,-0.042
34.255,-0.064
34.260,-0.104
34.265,-0.050
34.270,-0.010
34.275,-0.044
34.280,-0.017
34.285,0.036
34.290,0.000
34.295,-0.013
34.300,0.041
34.305,0.024
34.310,-0.014
34.315,0.034
34.320,0.050
34.325,0.000
34.330,0.013
34.335,0.047
34.340,0.005
34.345,-0.010
34.350,0.039
34.355,0.024
34.360,-0.018
34.365,0.026
34.370,0.066
34.375,0.052
34.380,0.079
34.385,0.041
34.390,-0.237
34.395,-0.636
34.400,-0.942
34.405,-1.122
34.410,-1.006
34.415,-0.437
34.420,0.154
34.425,0.341
34.430,0.314
34.435,0.281
34.440,0.201
34.445,0.168
34.450,0.218
34.455,0.197
34.460,0.150
34.465,0.184
34.470,0.190
34.475,0.132
34.480,0.143
34.485,0.177
34.490,0.127
34.495,0.102
34.500,0.146
34.505,0.121
34.510,0.073
34.515,0.106
34.520,0.115
34.525,0.060
34.530,0.072
34.535,0.109
34.540,0.066
34.545,0.044
34.550,0.083
34.555,0.061
34.560,0.018
34.565,0.052
34.570,0.062
34.575,0.008
34.580,0.017
34.585,0.050
34.590,0.006
34.595,-0.014
34.600,0.026
34.605,0.002
34.610,-0.043
34.615,-0.009
34.620,-0.001
34.625,-0.056
34.630,-0.050
34.635,-0.024
34.640,-0.073
34.645,-0.094
34.650,-0.056
34.655,-0.084
34.660,-0.136
34.665,-0.107
34.670,-0.103
34.675,-0.154
34.680,-0.138
34.685,-0.103
34.690,-0.143
34.695,-0.148
34.700,-0.090
34.705,-0.098
34.710,-0.123
34.715,-0.060
34.720,-0.021
34.725,-0.044
34.730,0.001
34.735,0.070
34.740,0.059
34.745,0.070
34.750,0.136
34.755,0.132
34.760,0.107
34.765,0.158
34.770,0.175
34.775,0.128
34.780,0.147
34.785,0.183
34.790,0.136
34.795,0.117
34.800,0.158
34.805,0.136
34.810,0.100
34.815,0.135
34.820,0.136
34.825,0.082
34.830,0.099
34.835,0.129
34.840,0.080
34.845,0.062
34.850,0.103
34.855,0.080
34.860,0.036
34.865,0.070
34.870,0.073
34.875,0.016
34.880,0.032
34.885,0.065
34.890,0.014
34.895,-0.004
34.900,0.038
34.905,0.014
34.910,-0.023
34.915,0.016
34.920,0.017
34.925,-0.035
34.930,-0.016
34.935,0.014
34.940,-0.034
34.945,-0.044
34.950,0.006
34.955,-0.014
34.960,-0.050
34.965,-0.007
34.970,0.003
34.975,-0.046
34.980,-0.025
34.985,0.009
34.990,-0.037
34.995,-0.042
35.000,0.014
35.005,-0.009
35.010,-0.048
35.015,-0.005
35.020,0.003
35.025,-0.046
35.030,-0.024
35.035,0.012
35.040,-0.030
35.045,-0.040
35.050,0.008
35.055,-0.009
35.060,-0.045
35.065,-0.004
35.070,0.003
35.075,-0.049
35.080,-0.029
35.085,0.008
35.090,-0.033
35.095,-0.045
35.100,0.002
35.105,-0.019
35.110,-0.054
35.115,-0.008
35.120,-0.003
35.125,-0.053
35.130,-0.028
35.135,0.006
35.140,-0.040
35.145,-0.047
35.150,0.002
35.155,-0.022
35.160,-0.058
35.165,-0.011
35.170,-0.003
35.175,-0.054
35.180,-0.030
35.185,0.007
35.190,-0.045
35.195,-0.061
35.200,-0.011
35.205,-0.034
35.210,-0.072
35.215,-0.031
35.220,-0.026
35.225,-0.078
35.230,-0.058
35.235,-0.029
35.240,-0.078
35.245,-0.088
35.250,-0.037
35.255,-0.048
35.260,-0.064
35.265,-0.004
35.270,0.017
35.275,-0.018
35.280,0.008
35.285,0.042
35.290,-0.001
35.295,-0.007
35.300,0.046
35.305,0.026
35.310,-0.005
35.315,0.039
35.320,0.045
35.325,-0.006
35.330,0.011
35.335,0.044
35.340,-0.003
35.345,-0.010
35.350,0.040
35.355,0.020
35.360,0.012
35.365,0.095
35.370,0.106
35.375,-0.039
35.380,-0.280
35.385,-0.634
35.390,-1.017
35.395,-1.154
35.400,-0.894
35.405,-0.360
35.410,0.153
35.415,0.394
35.420,0.337
35.425,0.215
35.430,0.209
35.435,0.227
35.440,0.177
35.445,0.166
35.450,0.212
35.455,0.182
35.460,0.135
35.465,0.173
35.470,0.172
35.475,0.115
35.480,0.137
35.485,0.163
35.490,0.105
35.495,0.093
35.500,0.136
35.505,0.105
35.510,0.068
35.515,0.108
35.520,0.105
35.525,0.050
35.530,0.068
35.535,0.096
35.540,0.046
35.545,0.038
35.550,0.078
35.555,0.043
35.560,0.007
35.565,0.050
35.570,0.048
35.575,-0.006
35.580,0.013
35.585,0.038
35.590,-0.014
35.595,-0.021
35.600,0.021
35.605,-0.014
35.610,-0.055
35.615,-0.020
35.620,-0.028
35.625,-0.082
35.630,-0.059
35.635,-0.041
35.640,-0.100
35.645,-0.112
35.650,-0.078
35.655,-0.112
35.660,-0.148
35.665,-0.110
35.670,-0.113
35.675,-0.164
35.680,-0.137
35.685,-0.098
35.690,-0.133
35.695,-0.125
35.700,-0.062
35.705,-0.066
35.710,-0.072
35.715,0.003
35.720,0.036
35.725,0.015
35.730,0.067
35.735,0.122
35.740,0.094
35.745,0.106
35.750,0.166
35.755,0.144
35.760,0.117
35.765,0.167
35.770,0.172
35.775,0.122
35.780,0.142
35.785,0.169
35.790,0.118
35.795,0.109
35.800,0.151
35.805,0.122
35.810,0.088
35.815,0.126
35.820,0.119
35.825,0.064
35.830,0.086
35.835,0.113
35.840,0.061
35.845,0.053
35.850,0.094
35.855,0.059
35.860,0.022
35.865,0.062
35.870,0.059
35.875,0.005
35.880,0.025
35.885,0.052
35.890,-0.001
35.895,-0.009
35.900,0.036
35.905,0.006
35.910,-0.028
35.915,0.013
35.920,0.011
35.925,-0.039
35.930,-0.017
35.935,0.011
35.940,-0.036
35.945,-0.038
35.950,0.010
35.955,-0.019
35.960,-0.050
35.965,-0.001
35.970,0.001
35.975,-0.048
35.980,-0.020
35.985,0.008
35.990,-0.036
35.995,-0.032
36.000,0.013
36.005,-0.020
36.010,-0.050
36.015,-0.006
36.020,-0.008
36.025,-0.046
36.030,-0.013
36.035,0.008
36.040,-0.038
36.045,-0.036
36.050,0.007
36.055,-0.026
36.060,-0.056
36.065,-0.007
36.070,-0.007
36.075,-0.052
36.080,-0.021
36.085,0.002
36.090,-0.044
36.095,-0.038
36.100,0.006
36.105,-0.028
36.110,-0.053
36.115,-0.006
36.120,-0.010
36.125,-0.056
36.130,-0.023
36.135,0.003
36.140,-0.041
36.145,-0.040
36.150,-0.006
36.155,-0.040
36.160,-0.063
36.165,-0.017
36.170,-0.020
36.175,-0.071
36.180,-0.047
36.185,-0.018
36.190,-0.067
36.195,-0.076
36.200,-0.041
36.205,-0.071
36.210,-0.088
36.215,-0.028
36.220,-0.015
36.225,-0.045
36.230,-0.001
36.235,0.035
36.240,-0.015
36.245,-0.012
36.250,0.040
36.255,0.008
36.260,-0.016
36.265,0.034
36.270,0.029
36.275,-0.017
36.280,0.017
36.285,0.042
36.290,-0.013
36.295,-0.011
36.300,0.036
36.305,0.001
36.310,-0.024
36.315,0.036
36.320,0.055
36.325,0.022
36.330,0.027
36.335,-0.077
36.340,-0.417
36.345,-0.751
36.350,-0.907
36.355,-0.923
36.360,-0.643
36.365,-0.086
36.370,0.293
36.375,0.323
36.380,0.270
36.385,0.233
36.390,0.154
36.395,0.141
36.400,0.188
36.405,0.152
36.410,0.117
36.415,0.162
36.420,0.157
36.425,0.105
36.430,0.128
36.435,0.147
36.440,0.090
36.445,0.086
36.450,0.126
36.455,0.088
36.460,0.060
36.465,0.104
36.470,0.093
36.475,0.040
36.480,0.064
36.485,0.088
36.490,0.040
36.495,0.038
36.500,0.076
36.505,0.039
36.510,0.012
36.515,0.056
36.520,0.043
36.525,-0.007
36.530,0.023
36.535,0.041
36.540,-0.013
36.545,-0.011
36.550,0.029
36.555,-0.011
36.560,-0.045
36.565,-0.004
36.570,-0.013
36.575,-0.064
36.580,-0.039
36.585,-0.022
36.590,-0.077
36.595,-0.081
36.600,-0.048
36.605,-0.092
36.610,-0.124
36.615,-0.087
36.620,-0.097
36.625,-0.140
36.630,-0.108
36.635,-0.085
36.640,-0.130
36.645,-0.117
36.650,-0.063
36.655,-0.084
36.660,-0.090
36.665,-0.019
36.670,-0.002
36.675,-0.022
36.680,0.039
36.685,0.087
36.690,0.059
36.695,0.081
36.700,0.139
36.705,0.117
36.710,0.100
36.715,0.152
36.720,0.148
36.725,0.104
36.730,0.136
36.735,0.160
36.740,0.111
36.745,0.110
36.750,0.150
36.755,0.112
36.760,0.081
36.765,0.126
36.770,0.116
36.775,0.066
36.780,0.094
36.785,0.110
36.790,0.055
36.795,0.057
36.800,0.099
36.805,0.060
36.810,0.024
36.815,0.065
36.820,0.055
36.825,0.008
36.830,0.039
36.835,0.053
36.840,-0.004
36.845,0.001
36.850,0.040
36.855,-0.002
36.860,-0.031
36.865,0.013
36.870,0.003
36.875,-0.043
36.880,-0.012
36.885,0.006
36.890,-0.044
36.895,-0.032
36.900,0.014
36.905,-0.024
36.910,-0.047
36.915,0.004
36.920,-0.004
36.925,-0.049
36.930,-0.016
36.935,0.006
36.940,-0.036
36.945,-0.026
36.950,0.015
36.955,-0.019
36.960,-0.040
36.965,0.009
36.970,0.000
36.975,-0.045
36.980,-0.011
36.985,0.013
36.990,-0.037
36.995,-0.029
37.000,0.016
37.005,-0.024
37.010,-0.049
37.015,0.002
37.020,-0.006
37.025,-0.048
37.030,-0.010
37.035,0.010
37.040,-0.039
37.045,-0.031
37.050,0.009
37.055,-0.029
37.060,-0.052
37.065,-0.007
37.070,-0.023
37.075,-0.065
37.080,-0.023
37.085,-0.007
37.090,-0.065
37.095,-0.058
37.100,-0.015
37.105,-0.056
37.110,-0.082
37.115,-0.038
37.120,-0.053
37.125,-0.088
37.130,-0.030
37.135,0.007
37.140,-0.034
37.145,-0.013
37.150,0.038
37.155,-0.001
37.160,-0.021
37.165,0.036
37.170,0.028
37.175,-0.017
37.180,0.019
37.185,0.037
37.190,-0.012
37.195,0.002
37.200,0.042
37.205,0.000
37.210,-0.021
37.215,0.025
37.220,0.011
37.225,-0.028
37.230,0.027
37.235,0.076
37.240,0.037
37.245,-0.002
37.250,-0.127
37.255,-0.481
37.260,-0.825
37.265,-0.952
37.270,-0.912
37.275,-0.588
37.280,-0.031
37.285,0.312
37.290,0.293
37.295,0.220
37.300,0.220
37.305,0.168
37.310,0.139
37.315,0.186
37.320,0.171
37.325,0.125
37.330,0.157
37.335,0.169
37.340,0.113
37.345,0.115
37.350,0.149
37.355,0.106
37.360,0.084
37.365,0.126
37.370,0.105
37.375,0.059
37.380,0.091
37.385,0.101
37.390,0.048
37.395,0.058
37.400,0.092
37.405,0.045
37.410,0.025
37.415,0.073
37.420,0.054
37.425,0.010
37.430,0.043
37.435,0.053
37.440,-0.001
37.445,0.005
37.450,0.044
37.455,0.001
37.460,-0.028
37.465,0.017
37.470,-0.001
37.475,-0.050
37.480,-0.019
37.485,-0.007
37.490,-0.062
37.495,-0.059
37.500,-0.025
37.505,-0.074
37.510,-0.105
37.515,-0.064
37.520,-0.086
37.525,-0.137
37.530,-0.107
37.535,-0.097
37.540,-0.148
37.545,-0.133
37.550,-0.093
37.555,-0.129
37.560,-0.138
37.565,-0.079
37.570,-0.079
37.575,-0.099
37.580,-0.036
37.585,0.008
37.590,-0.013
37.595,0.025
37.600,0.090
37.605,0.076
37.610,0.078
37.615,0.140
37.620,0.134
37.625,0.105
37.630,0.154
37.635,0.171
37.640,0.119
37.645,0.130
37.650,0.170
37.655,0.129
37.660,0.107
37.665,0.150
37.670,0.126
37.675,0.076
37.680,0.113
37.685,0.127
37.690,0.073
37.695,0.080
37.700,0.113
37.705,0.067
37.710,0.051
37.715,0.097
37.720,0.074
37.725,0.031
37.730,0.067
37.735,0.073
37.740,0.018
37.745,0.026
37.750,0.059
37.755,0.016
37.760,-0.001
37.765,0.042
37.770,0.019
37.775,-0.025
37.780,0.010
37.785,0.017
37.790,-0.035
37.795,-0.019
37.800,0.017
37.805,-0.028
37.810,-0.046
37.815,0.003
37.820,-0.011
37.825,-0.049
37.830,-0.010
37.835,0.002
37.840,-0.048
37.845,-0.032
37.850,0.009
37.855,-0.030
37.860,-0.045
37.865,0.004
37.870,-0.010
37.875,-0.048
37.880,-0.009
37.885,0.006
37.890,-0.042
37.895,-0.026
37.900,0.015
37.905,-0.028
37.910,-0.044
37.915,0.010
37.920,-0.006
37.925,-0.048
37.930,-0.009
37.935,0.003
37.940,-0.045
37.945,-0.028
37.950,0.008
37.955,-0.031
37.960,-0.041
37.965,0.005
37.970,-0.014
37.975,-0.051
37.980,-0.011
37.985,0.002
37.990,-0.050
37.995,-0.038
38.000,-0.003
38.005,-0.049
38.010,-0.062
38.015,-0.010
38.020,-0.030
38.025,-0.075
38.030,-0.038
38.035,-0.025
38.040,-0.078
38.045,-0.068
38.050,-0.034
38.055,-0.077
38.060,-0.085
38.065,-0.016
38.070,-0.015
38.075,-0.041
38.080,0.013
38.085,0.033
38.090,-0.012
38.095,0.008
38.100,0.045
38.105,0.003
38.110,-0.005
38.115,0.047
38.120,0.028
38.125,-0.012
38.130,0.030
38.135,0.041
38.140,-0.009
38.145,0.005
38.150,0.040
38.155,-0.003
38.160,-0.014
38.165,0.053
38.170,0.073
38.175,0.062
38.180,0.063
38.185,-0.098
38.190,-0.484
38.195,-0.836
38.200,-1.043
38.205,-1.090
38.210,-0.728
38.215,-0.092
38.220,0.285
38.225,0.308
38.230,0.272
38.235,0.239
38.240,0.175
38.245,0.184
38.250,0.218
38.255,0.173
38.260,0.159
38.265,0.199
38.270,0.168
38.275,0.124
38.280,0.161
38.285,0.163
38.290,0.104
38.295,0.117
38.300,0.148
38.305,0.097
38.310,0.082
38.315,0.128
38.320,0.098
38.325,0.052
38.330,0.090
38.335,0.095
38.340,0.039
38.345,0.053
38.350,0.086
38.355,0.039
38.360,0.022
38.365,0.064
38.370,0.039
38.375,-0.003
38.380,0.033
38.385,0.038
38.390,-0.015
38.395,0.001
38.400,0.028
38.405,-0.021
38.410,-0.035
38.415,0.004
38.420,-0.026
38.425,-0.069
38.430,-0.037
38.435,-0.035
38.440,-0.090
38.445,-0.080
38.450,-0.059
38.455,-0.114
38.460,-0.135
38.465,-0.094
38.470,-0.120
38.475,-0.161
38.480,-0.123
38.485,-0.115
38.490,-0.157
38.495,-0.131
38.500,-0.088
38.505,-0.116
38.510,-0.104
38.515,-0.037
38.520,-0.031
38.525,-0.025
38.530,0.049
38.535,0.077
38.540,0.051
38.545,0.092
38.550,0.147
38.555,0.120
38.560,0.116
38.565,0.168
38.570,0.150
38.575,0.120
38.580,0.163
38.585,0.165
38.590,0.114
38.595,0.129
38.600,0.153
38.605,0.106
38.610,0.097
38.615,0.138
38.620,0.109
38.625,0.068
38.630,0.107
38.635,0.108
38.640,0.054
38.645,0.072
38.650,0.100
38.655,0.052
38.660,0.042
38.665,0.087
38.670,0.058
38.675,0.016
38.680,0.054
38.685,0.057
38.690,0.003
38.695,0.024
38.700,0.053
38.705,0.001
38.710,-0.008
38.715,0.037
38.720,0.008
38.725,-0.029
38.730,0.014
38.735,0.016
38.740,-0.038
38.745,-0.019
38.750,0.012
38.755,-0.032
38.760,-0.038
38.765,0.009
38.770,-0.016
38.775,-0.051
38.780,-0.006
38.785,-0.001
38.790,-0.049
38.795,-0.027
38.800,0.007
38.805,-0.035
38.810,-0.041
38.815,0.007
38.820,-0.018
38.825,-0.052
38.830,-0.005
38.835,-0.001
38.840,-0.049
38.845,-0.022
38.850,0.010
38.855,-0.036
38.860,-0.041
38.865,0.007
38.870,-0.019
38.875,-0.051
38.880,-0.007
38.885,-0.005
38.890,-0.053
38.895,-0.029
38.900,0.005
38.905,-0.038
38.910,-0.042
38.915,0.003
38.920,-0.022
38.925,-0.052
38.930,-0.008
38.935,-0.004
38.940,-0.051
38.945,-0.030
38.950,-0.005
38.955,-0.055
38.960,-0.060
38.965,-0.011
38.970,-0.038
38.975,-0.077
38.980,-0.036
38.985,-0.031
38.990,-0.081
38.995,-0.064
39.000,-0.040
39.005,-0.090
39.010,-0.086
39.015,-0.015
39.020,-0.023
39.025,-0.044
39.030,0.014
39.035,0.026
39.040,-0.020
39.045,0.009
39.050,0.041
39.055,-0.003
39.060,0.000
39.065,0.052
39.070,0.023
39.075,-0.013
39.080,0.031
39.085,0.037
39.090,-0.010
39.095,0.013
39.100,0.040
39.105,-0.010
39.110,-0.011
39.115,0.055
39.120,0.063
39.125,0.057
39.130,0.076
39.135,-0.069
39.140,-0.442
39.145,-0.810
39.150,-1.054
39.155,-1.128
39.160,-0.783
39.165,-0.132
39.170,0.283
39.175,0.332
39.180,0.292
39.185,0.242
39.190,0.174
39.195,0.191
39.200,0.220
39.205,0.168
39.210,0.162
39.215,0.204
39.220,0.165
39.225,0.126
39.230,0.168
39.235,0.163
39.240,0.104
39.245,0.123
39.250,0.148
39.255,0.093
39.260,0.083
39.265,0.125
39.270,0.093
39.275,0.059
39.280,0.099
39.285,0.094
39.290,0.040
39.295,0.063
39.300,0.089
39.305,0.038
39.310,0.029
39.315,0.068
39.320,0.036
39.325,0.001
39.330,0.042
39.335,0.039
39.340,-0.017
39.345,0.003
39.350,0.028
39.355,-0.023
39.360,-0.031
39.365,0.011
39.370,-0.025
39.375,-0.066
39.380,-0.028
39.385,-0.035
39.390,-0.091
39.395,-0.074
39.400,-0.059
39.405,-0.117
39.410,-0.128
39.415,-0.091
39.420,-0.125
39.425,-0.162
39.430,-0.121
39.435,-0.117
39.440,-0.157
39.445,-0.125
39.450,-0.087
39.455,-0.118
39.460,-0.101
39.465,-0.030
39.470,-0.029
39.475,-0.031
39.480,0.042
39.485,0.071
39.490,0.049
39.495,0.099
39.500,0.148
39.505,0.113
39.510,0.121
39.515,0.177
39.520,0.150
39.525,0.122
39.530,0.172
39.535,0.168
39.540,0.115
39.545,0.140
39.550,0.159
39.555,0.104
39.560,0.101
39.565,0.145
39.570,0.110
39.575,0.073
39.580,0.112
39.585,0.108
39.590,0.059
39.595,0.082
39.600,0.102
39.605,0.048
39.610,0.042
39.615,0.085
39.620,0.051
39.625,0.017
39.630,0.057
39.635,0.050
39.640,-0.004
39.645,0.020
39.650,0.045
39.655,-0.003
39.660,-0.008
39.665,0.029
39.670,-0.004
39.675,-0.030
39.680,0.014
39.685,0.006
39.690,-0.045
39.695,-0.018
39.700,0.007
39.705,-0.039
39.710,-0.035
39.715,0.011
39.720,-0.023
39.725,-0.051
39.730,-0.003
39.735,-0.007
39.740,-0.052
39.745,-0.021
39.750,0.007
39.755,-0.036
39.760,-0.034
39.765,0.010
39.770,-0.022
39.775,-0.050
39.780,-0.002
39.785,-0.005
39.790,-0.052
39.795,-0.019
39.800,0.007
39.805,-0.042
39.810,-0.038
39.815,0.006
39.820,-0.026
39.825,-0.050
39.830,-0.002
39.835,-0.008
39.840,-0.056
39.845,-0.022
39.850,0.005
39.855,-0.043
39.860,-0.040
39.865,0.004
39.870,-0.028
39.875,-0.057
39.880,-0.010
39.885,-0.006
39.890,-0.049
39.895,-0.024
39.900,0.000
39.905,-0.053
39.910,-0.057
39.915,-0.012
39.920,-0.044
39.925,-0.072
39.930,-0.025
39.935,-0.034
39.940,-0.083
39.945,-0.049
39.950,-0.030
39.955,-0.090
39.960,-0.091
39.965,-0.037
39.970,-0.050
39.975,-0.057
39.980,0.004
39.985,0.016
39.990,-0.018
39.995,0.015
40.000,0.040
40.005,-0.009
40.010,-0.002
40.015,0.051
40.020,0.019
40.025,-0.009
40.030,0.038
40.035,0.032
40.040,-0.013
40.045,0.021
40.050,0.043
40.055,-0.009
40.060,-0.009
40.065,0.040
40.070,0.024
40.075,0.027
40.080,0.107
40.085,0.085
40.090,-0.107
40.095,-0.398
40.100,-0.772
40.105,-1.102
40.110,-1.131
40.115,-0.742
40.120,-0.170
40.125,0.253
40.130,0.392
40.135,0.303
40.140,0.199
40.145,0.206
40.150,0.217
40.155,0.167
40.160,0.167
40.165,0.209
40.170,0.172
40.175,0.136
40.180,0.175
40.185,0.163
40.190,0.109
40.195,0.133
40.200,0.152
40.205,0.098
40.210,0.095
40.215,0.132
40.220,0.092
40.225,0.062
40.230,0.105
40.235,0.095
40.240,0.044
40.245,0.070
40.250,0.090
40.255,0.034
40.260,0.037
40.265,0.079
40.270,0.037
40.275,0.006
40.280,0.050
40.285,0.040
40.290,-0.013
40.295,0.014
40.300,0.031
40.305,-0.025
40.310,-0.023
40.315,0.015
40.320,-0.027
40.325,-0.057
40.330,-0.016
40.335,-0.033
40.340,-0.090
40.345,-0.065
40.350,-0.048
40.355,-0.106
40.360,-0.112
40.365,-0.083
40.370,-0.128
40.375,-0.155
40.380,-0.113
40.385,-0.123
40.390,-0.163
40.395,-0.122
40.400,-0.093
40.405,-0.133
40.410,-0.112
40.415,-0.051
40.420,-0.064
40.425,-0.058
40.430,0.021
40.435,0.042
40.440,0.025
40.445,0.082
40.450,0.124
40.455,0.096
40.460,0.120
40.465,0.176
40.470,0.145
40.475,0.125
40.480,0.178
40.485,0.166
40.490,0.119
40.495,0.152
40.500,0.167
40.505,0.113
40.510,0.116
40.515,0.153
40.520,0.112
40.525,0.082
40.530,0.126
40.535,0.115
40.540,0.065
40.545,0.092
40.550,0.108
40.555,0.053
40.560,0.057
40.565,0.097
40.570,0.052
40.575,0.020
40.580,0.064
40.585,0.052
40.590,0.003
40.595,0.030
40.600,0.047
40.605,-0.003
40.610,0.000
40.615,0.038
40.620,-0.001
40.625,-0.029
40.630,0.015
40.635,0.004
40.640,-0.042
40.645,-0.009
40.650,0.010
40.655,-0.038
40.660,-0.027
40.665,0.013
40.670,-0.026
40.675,-0.047
40.680,0.002
40.685,-0.007
40.690,-0.050
40.695,-0.012
40.700,0.011
40.705,-0.041
40.710,-0.033
40.715,0.012
40.720,-0.025
40.725,-0.043
40.730,0.008
40.735,-0.004
40.740,-0.049
40.745,-0.014
40.750,0.003
40.755,-0.044
40.760,-0.033
40.765,0.009
40.770,-0.030
40.775,-0.050
40.780,-0.001
40.785,-0.015
40.790,-0.057
40.795,-0.016
40.800,0.006
40.805,-0.043
40.810,-0.034
40.815,0.008
40.820,-0.031
40.825,-0.053
40.830,-0.002
40.835,-0.014
40.840,-0.059
40.845,-0.021
40.850,-0.006
40.855,-0.061
40.860,-0.053
40.865,-0.010
40.870,-0.048
40.875,-0.071
40.880,-0.026
40.885,-0.038
40.890,-0.083
40.895,-0.059
40.900,-0.047
40.905,-0.091
40.910,-0.071
40.915,-0.014
40.920,-0.038
40.925,-0.045
40.930,0.019
40.935,0.015
40.940,-0.023
40.945,0.018
40.950,0.032
40.955,-0.019
40.960,0.001
40.965,0.047
40.970,0.011
40.975,-0.008
40.980,0.035
40.985,0.018
40.990,-0.022
40.995,0.014
41.000,0.027
41.005,-0.021
41.010,-0.003
41.015,0.047
41.020,0.030
41.025,0.033
41.030,0.050
41.035,-0.114
41.040,-0.469
41.045,-0.780
41.050,-0.963
41.055,-0.982
41.060,-0.619
41.065,-0.035
41.070,0.295
41.075,0.330
41.080,0.288
41.085,0.215
41.090,0.148
41.095,0.173
41.100,0.191
41.105,0.135
41.110,0.139
41.115,0.176
41.120,0.133
41.125,0.109
41.130,0.151
41.135,0.128
41.140,0.077
41.145,0.114
41.150,0.131
41.155,0.074
41.160,0.076
41.165,0.112
41.170,0.071
41.175,0.048
41.180,0.093
41.185,0.073
41.190,0.027
41.195,0.064
41.200,0.073
41.205,0.017
41.210,0.029
41.215,0.061
41.220,0.013
41.225,-0.007
41.230,0.039
41.235,0.024
41.240,-0.018
41.245,0.016
41.250,0.021
41.255,-0.037
41.260,-0.025
41.265,0.010
41.270,-0.039
41.275,-0.066
41.280,-0.024
41.285,-0.044
41.290,-0.091
41.295,-0.063
41.300,-0.061
41.305,-0.118
41.310,-0.108
41.315,-0.078
41.320,-0.124
41.325,-0.138
41.330,-0.090
41.335,-0.104
41.340,-0.136
41.345,-0.088
41.350,-0.068
41.355,-0.105
41.360,-0.069
41.365,-0.008
41.370,-0.024
41.375,-0.011
41.380,0.063
41.385,0.068
41.390,0.049
41.395,0.107
41.400,0.136
41.405,0.099
41.410,0.121
41.415,0.164
41.420,0.128
41.425,0.115
41.430,0.163
41.435,0.145
41.440,0.099
41.445,0.133
41.450,0.142
41.455,0.090
41.460,0.106
41.465,0.139
41.470,0.092
41.475,0.071
41.480,0.114
41.485,0.090
41.490,0.046
41.495,0.085
41.500,0.093
41.505,0.036
41.510,0.047
41.515,0.081
41.520,0.034
41.525,0.014
41.530,0.055
41.535,0.031
41.540,-0.012
41.545,0.029
41.550,0.038
41.555,-0.019
41.560,-0.008
41.565,0.026
41.570,-0.019
41.575,-0.034
41.580,0.012
41.585,-0.010
41.590,-0.047
41.595,-0.004
41.600,0.005
41.605,-0.048
41.610,-0.028
41.615,0.013
41.620,-0.030
41.625,-0.042
41.630,0.010
41.635,-0.008
41.640,-0.049
41.645,-0.009
41.650,0.008
41.655,-0.038
41.660,-0.022
41.665,0.014
41.670,-0.026
41.675,-0.035
41.680,0.012
41.685,-0.009
41.690,-0.045
41.695,-0.003
41.700,0.004
41.705,-0.047
41.710,-0.023
41.715,0.012
41.720,-0.032
41.725,-0.039
41.730,0.006
41.735,-0.015
41.740,-0.051
41.745,-0.014
41.750,-0.007
41.755,-0.061
41.760,-0.045
41.765,-0.007
41.770,-0.053
41.775,-0.067
41.780,-0.018
41.785,-0.041
41.790,-0.085
41.795,-0.050
41.800,-0.047
41.805,-0.095
41.810,-0.057
41.815,-0.001
41.820,-0.030
41.825,-0.029
41.830,0.026
41.835,0.009
41.840,-0.021
41.845,0.023
41.850,0.032
41.855,-0.015
41.860,0.007
41.865,0.042
41.870,-0.003
41.875,-0.010
41.880,0.039
41.885,0.015
41.890,-0.024
41.895,0.016
41.900,0.022
41.905,-0.025
41.910,0.006
41.915,0.061
41.920,0.045
41.925,0.035
41.930,-0.008
41.935,-0.269
41.940,-0.660
41.945,-0.916
41.950,-1.018
41.955,-0.891
41.960,-0.381
41.965,0.160
41.970,0.321
41.975,0.269
41.980,0.251
41.985,0.198
41.990,0.144
41.995,0.186
42.000,0.190
42.005,0.136
42.010,0.155
42.015,0.182
42.020,0.131
42.025,0.115
42.030,0.154
42.035,0.126
42.040,0.084
42.045,0.120
42.050,0.125
42.055,0.070
42.060,0.083
42.065,0.111
42.070,0.062
42.075,0.052
42.080,0.096
42.085,0.066
42.090,0.025
42.095,0.065
42.100,0.068
42.105,0.014
42.110,0.033
42.115,0.060
42.120,0.009
42.125,-0.002
42.130,0.041
42.135,0.011
42.140,-0.026
42.145,0.014
42.150,0.014
42.155,-0.041
42.160,-0.025
42.165,-0.003
42.170,-0.054
42.175,-0.062
42.180,-0.021
42.185,-0.057
42.190,-0.104
42.195,-0.069
42.200,-0.072
42.205,-0.131
42.210,-0.119
42.215,-0.091
42.220,-0.137
42.225,-0.149
42.230,-0.101
42.235,-0.119
42.240,-0.150
42.245,-0.098
42.250,-0.080
42.255,-0.112
42.260,-0.062
42.265,0.000
42.270,-0.020
42.275,0.003
42.280,0.078
42.285,0.078
42.290,0.063
42.295,0.122
42.300,0.143
42.305,0.108
42.310,0.140
42.315,0.177
42.320,0.132
42.325,0.126
42.330,0.171
42.335,0.139
42.340,0.101
42.345,0.144
42.350,0.141
42.355,0.087
42.360,0.109
42.365,0.137
42.370,0.087
42.375,0.077
42.380,0.119
42.385,0.087
42.390,0.048
42.395,0.089
42.400,0.089
42.405,0.035
42.410,0.056
42.415,0.083
42.420,0.032
42.425,0.022
42.430,0.064
42.435,0.034
42.440,-0.003
42.445,0.037
42.450,0.034
42.455,-0.020
42.460,0.002
42.465,0.029
42.470,-0.021
42.475,-0.031
42.480,0.012
42.485,-0.013
42.490,-0.045
42.495,-0.002
42.500,0.000
42.505,-0.050
42.510,-0.027
42.515,0.009
42.520,-0.033
42.525,-0.040
42.530,0.008
42.535,-0.019
42.540,-0.049
42.545,-0.002
42.550,0.000
42.555,-0.046
42.560,-0.018
42.565,0.012
42.570,-0.034
42.575,-0.036
42.580,0.009
42.585,-0.017
42.590,-0.048
42.595,-0.001
42.600,0.000
42.605,-0.050
42.610,-0.022
42.615,0.011
42.620,-0.034
42.625,-0.038
42.630,0.009
42.635,-0.018
42.640,-0.050
42.645,-0.005
42.650,-0.003
42.655,-0.049
42.660,-0.024
42.665,0.000
42.670,-0.050
42.675,-0.053
42.680,-0.009
42.685,-0.039
42.690,-0.070
42.695,-0.028
42.700,-0.036
42.705,-0.087
42.710,-0.056
42.715,-0.029
42.720,-0.083
42.725,-0.086
42.730,-0.033
42.735,-0.047
42.740,-0.060
42.745,0.000
42.750,0.012
42.755,-0.024
42.760,0.010
42.765,0.042
42.770,-0.004
42.775,-0.005
42.780,0.046
42.785,0.022
42.790,-0.011
42.795,0.035
42.800,0.034
42.805,-0.014
42.810,0.014
42.815,0.037
42.820,-0.011
42.825,-0.007
42.830,0.038
42.835,0.020
42.840,0.023
42.845,0.102
42.850,0.088
42.855,-0.087
42.860,-0.357
42.865,-0.715
42.870,-1.063
42.875,-1.139
42.880,-0.810
42.885,-0.264
42.890,0.194
42.895,0.373
42.900,0.294
42.905,0.192
42.910,0.208
42.915,0.225
42.920,0.175
42.925,0.171
42.930,0.209
42.935,0.171
42.940,0.135
42.945,0.178
42.950,0.170
42.955,0.111
42.960,0.132
42.965,0.155
42.970,0.104
42.975,0.098
42.980,0.135
42.985,0.098
42.990,0.063
42.995,0.102
43.000,0.095
43.005,0.046
43.010,0.070
43.015,0.090
43.020,0.039
43.025,0.039
43.030,0.077
43.035,0.039
43.040,0.008
43.045,0.049
43.050,0.040
43.055,-0.012
43.060,0.012
43.065,0.034
43.070,-0.020
43.075,-0.022
43.080,0.019
43.085,-0.021
43.090,-0.056
43.095,-0.016
43.100,-0.030
43.105,-0.087
43.110,-0.064
43.115,-0.047
43.120,-0.104
43.125,-0.110
43.130,-0.077
43.135,-0.120
43.140,-0.155
43.145,-0.113
43.150,-0.116
43.155,-0.158
43.160,-0.126
43.165,-0.097
43.170,-0.136
43.175,-0.119
43.180,-0.054
43.185,-0.061
43.190,-0.061
43.195,0.011
43.200,0.037
43.205,0.023
43.210,0.078
43.215,0.123
43.220,0.095
43.225,0.114
43.230,0.167
43.235,0.143
43.240,0.122
43.245,0.171
43.250,0.162
43.255,0.109
43.260,0.141
43.265,0.164
43.270,0.107
43.275,0.104
43.280,0.146
43.285,0.111
43.290,0.076
43.295,0.116
43.300,0.106
43.305,0.056
43.310,0.084
43.315,0.104
43.320,0.053
43.325,0.050
43.330,0.090
43.335,0.054
43.340,0.021
43.345,0.066
43.350,0.058
43.355,0.007
43.360,0.033
43.365,0.056
43.370,0.006
43.375,0.001
43.380,0.041
43.385,0.006
43.390,-0.024
43.395,0.020
43.400,0.011
43.405,-0.039
43.410,-0.009
43.415,0.017
43.420,-0.032
43.425,-0.033
43.430,0.009
43.435,-0.022
43.440,-0.046
43.445,0.000
43.450,-0.007
43.455,-0.050
43.460,-0.020
43.465,0.002
43.470,-0.043
43.475,-0.039
43.480,0.009
43.485,-0.021
43.490,-0.049
43.495,-0.004
43.500,-0.012
43.505,-0.058
43.510,-0.022
43.515,0.003
43.520,-0.044
43.525,-0.035
43.530,0.009
43.535,-0.028
43.540,-0.052
43.545,-0.003
43.550,-0.009
43.555,-0.054
43.560,-0.022
43.565,0.001
43.570,-0.048
43.575,-0.042
43.580,0.001
43.585,-0.038
43.590,-0.064
43.595,-0.015
43.600,-0.020
43.605,-0.069
43.610,-0.044
43.615,-0.022
43.620,-0.067
43.625,-0.065
43.630,-0.034
43.635,-0.076
43.640,-0.098
43.645,-0.040
43.650,-0.033
43.655,-0.064
43.660,-0.016
43.665,0.024
43.670,-0.016
43.675,-0.008
43.680,0.037
43.685,0.002
43.690,-0.020
43.695,0.031
43.700,0.025
43.705,-0.017
43.710,0.015
43.715,0.037
43.720,-0.009
43.725,-0.005
43.730,0.034
43.735,-0.002
43.740,-0.026
43.745,0.022
43.750,0.027
43.755,0.011
43.760,0.069
43.765,0.059
43.770,-0.141
43.775,-0.431
43.780,-0.720
43.785,-0.956
43.790,-0.969
43.795,-0.608
43.800,-0.096
43.805,0.245
43.810,0.352
43.815,0.286
43.820,0.179
43.825,0.165
43.830,0.194
43.835,0.155
43.840,0.127
43.845,0.172
43.850,0.158
43.855,0.108
43.860,0.141
43.865,0.157
43.870,0.098
43.875,0.098
43.880,0.134
43.885,0.092
43.890,0.067
43.895,0.113
43.900,0.097
43.905,0.046
43.910,0.078
43.915,0.093
43.920,0.039
43.925,0.046
43.930,0.085
43.935,0.044
43.940,0.018
43.945,0.061
43.950,0.045
43.955,-0.003
43.960,0.032
43.965,0.046
43.970,-0.010
43.975,-0.004
43.980,0.035
43.985,-0.010
43.990,-0.035
43.995,0.010
44.000,-0.009
44.005,-0.061
44.010,-0.030
44.015,-0.018
44.020,-0.074
44.025,-0.070
44.030,-0.036
44.035,-0.085
44.040,-0.115
44.045,-0.072
44.050,-0.089
44.055,-0.139
44.060,-0.105
44.065,-0.088
44.070,-0.133
44.075,-0.115
44.080,-0.066
44.085,-0.096
44.090,-0.103
44.095,-0.034
44.100,-0.023
44.105,-0.042
44.110,0.021
44.115,0.064
44.120,0.036
44.125,0.067
44.130,0.127
44.135,0.102
44.140,0.094
44.145,0.149
44.150,0.141
44.155,0.102
44.160,0.141
44.165,0.156
44.170,0.105
44.175,0.115
44.180,0.149
44.185,0.104
44.190,0.079
44.195,0.128
44.200,0.116
44.205,0.067
44.210,0.095
44.215,0.109
44.220,0.057
44.225,0.067
44.230,0.100
44.235,0.052
44.240,0.035
44.245,0.083
44.250,0.059
44.255,0.012
44.260,0.049
44.265,0.060
44.270,0.002
44.275,0.008
44.280,0.045
44.285,0.003
44.290,-0.020
44.295,0.025
44.300,0.008
44.305,-0.038
44.310,-0.003
44.315,0.014
44.320,-0.038
44.325,-0.028
44.330,0.012
44.335,-0.029
44.340,-0.046
44.345,0.006
44.350,-0.007
44.355,-0.048
44.360,-0.010
44.365,0.007
44.370,-0.039
44.375,-0.027
44.380,0.012
44.385,-0.028
44.390,-0.043
44.395,0.008
44.400,-0.006
44.405,-0.048
44.410,-0.007
44.415,0.010
44.420,-0.042
44.425,-0.027
44.430,0.013
44.435,-0.028
44.440,-0.041
44.445,0.008
44.450,-0.010
44.455,-0.048
44.460,-0.010
44.465,0.003
44.470,-0.046
44.475,-0.030
44.480,0.008
44.485,-0.039
44.490,-0.059
44.495,-0.011
44.500,-0.025
44.505,-0.063
44.510,-0.029
44.515,-0.023
44.520,-0.074
44.525,-0.060
44.530,-0.025
44.535,-0.071
44.540,-0.089
44.545,-0.033
44.550,-0.033
44.555,-0.052
44.560,0.004
44.565,0.027
44.570,-0.018
44.575,-0.001
44.580,0.037
44.585,-0.003
44.590,-0.016
44.595,0.037
44.600,0.025
44.605,-0.011
44.610,0.027
44.615,0.037
44.620,-0.016
44.625,-0.001
44.630,0.038
44.635,-0.007
44.640,-0.023
44.645,0.029
44.650,0.027
44.655,0.018
44.660,0.080
44.665,0.061
44.670,-0.137
44.675,-0.428
44.680,-0.737
44.685,-0.998
44.690,-1.021
44.695,-0.650
44.700,-0.128
44.705,0.222
44.710,0.341
44.715,0.274
44.720,0.171
44.725,0.172
44.730,0.203
44.735,0.162
44.740,0.142
44.745,0.186
44.750,0.163
44.755,0.119
44.760,0.156
44.765,0.160
44.770,0.100
44.775,0.110
44.780,0.142
44.785,0.094
44.790,0.072
44.795,0.116
44.800,0.094
44.805,0.050
44.810,0.086
44.815,0.095
44.820,0.041
44.825,0.053
44.830,0.084
44.835,0.036
44.840,0.020
44.845,0.066
44.850,0.039
44.855,-0.005
44.860,0.036
44.865,0.041
44.870,-0.013
44.875,0.004
44.880,0.036
44.885,-0.012
44.890,-0.026
44.895,0.018
44.900,-0.010
44.905,-0.059
44.910,-0.033
44.915,-0.034
44.920,-0.087
44.925,-0.075
44.930,-0.046
44.935,-0.096
44.940,-0.121
44.945,-0.080
44.950,-0.104
44.955,-0.147
44.960,-0.107
44.965,-0.096
44.970,-0.149
44.975,-0.131
44.980,-0.081
44.985,-0.107
44.990,-0.107
44.995,-0.041
45.000,-0.030
45.005,-0.037
45.010,0.030
45.015,0.070
45.020,0.053
45.025,0.093
45.030,0.143
45.035,0.117
45.040,0.118
45.045,0.173
45.050,0.159
45.055,0.125
45.060,0.162
45.065,0.167
45.070,0.120
45.075,0.135
45.080,0.159
45.085,0.113
45.090,0.097
45.095,0.141
45.100,0.125
45.105,0.082
45.110,0.114
45.115,0.122
45.120,0.068
45.125,0.080
45.130,0.111
45.135,0.061
45.140,0.043
45.145,0.085
45.150,0.060
45.155,0.019
45.160,0.057
45.165,0.063
45.170,0.008
45.175,0.020
45.180,0.049
45.185,-0.001
45.190,-0.017
45.195,0.028
45.200,0.003
45.205,-0.036
45.210,0.001
45.215,0.007
45.220,-0.044
45.225,-0.031
45.230,0.005
45.235,-0.037
45.240,-0.052
45.245,-0.005
45.250,-0.023
45.255,-0.058
45.260,-0.016
45.265,-0.007
45.270,-0.053
45.275,-0.028
45.280,0.008
45.285,-0.043
45.290,-0.048
45.295,0.009
45.300,-0.019
45.305,-0.058
45.310,-0.010
