'Elapsed time','ECG'
'seconds','mV'
0.000,0.046
0.005,0.013
0.010,0.006
0.015,0.050
0.020,0.025
0.025,-0.023
0.030,0.024
0.035,0.041
0.040,-0.021
0.045,-0.004
0.050,0.036
0.055,-0.013
0.060,-0.020
0.065,0.028
0.070,-0.002
0.075,-0.032
0.080,0.023
0.085,0.026
0.090,-0.038
0.095,-0.010
0.100,0.040
0.105,-0.013
0.110,-0.036
0.115,0.005
0.120,-0.036
0.125,-0.093
0.130,-0.055
0.135,-0.044
0.140,-0.096
0.145,-0.071
0.150,-0.034
0.155,-0.087
0.160,-0.106
0.165,-0.059
0.170,-0.074
0.175,-0.102
0.180,-0.037
0.185,-0.004
0.190,-0.051
0.195,-0.011
0.200,0.052
0.205,0.016
0.210,0.014
0.215,0.077
0.220,0.059
0.225,0.027
0.230,0.087
0.235,0.100
0.240,0.031
0.245,0.044
0.250,0.095
0.255,0.045
0.260,0.021
0.265,0.079
0.270,0.056
0.275,0.010
0.280,0.056
0.285,0.064
0.290,0.017
0.295,0.075
0.300,0.119
0.305,-0.086
0.310,-0.414
0.315,-0.730
0.320,-1.173
0.325,-1.575
0.330,-1.347
0.335,-0.526
0.340,0.139
0.345,0.416
0.350,0.458
0.355,0.349
0.360,0.291
0.365,0.294
0.370,0.236
0.375,0.201
0.380,0.242
0.385,0.237
0.390,0.177
0.395,0.192
0.400,0.225
0.405,0.169
0.410,0.150
0.415,0.190
0.420,0.149
0.425,0.104
0.430,0.156
0.435,0.159
0.440,0.083
0.445,0.096
0.450,0.134
0.455,0.078
0.460,0.059
0.465,0.099
0.470,0.063
0.475,0.014
0.480,0.052
0.485,0.046
0.490,-0.028
0.495,-0.014
0.500,0.014
0.505,-0.052
0.510,-0.076
0.515,-0.039
0.520,-0.081
0.525,-0.137
0.530,-0.103
0.535,-0.106
0.540,-0.175
0.545,-0.164
0.550,-0.137
0.555,-0.188
0.560,-0.188
0.565,-0.132
0.570,-0.149
0.575,-0.159
0.580,-0.065
0.585,-0.011
0.590,-0.027
0.595,0.037
0.600,0.115
0.605,0.094
0.610,0.114
0.615,0.203
0.620,0.204
0.625,0.177
0.630,0.232
0.635,0.247
0.640,0.184
0.645,0.203
0.650,0.255
0.655,0.197
0.660,0.172
0.665,0.219
0.670,0.176
0.675,0.115
0.680,0.164
0.685,0.176
0.690,0.113
0.695,0.133
0.700,0.168
0.705,0.108
0.710,0.083
0.715,0.123
0.720,0.086
0.725,0.035
0.730,0.087
0.735,0.089
0.740,0.004
0.745,0.029
0.750,0.084
0.755,0.028
0.760,0.012
0.765,0.061
0.770,0.021
0.775,-0.032
0.780,0.017
0.785,0.031
0.790,-0.031
0.795,-0.012
0.800,0.034
0.805,-0.018
0.810,-0.036
0.815,0.015
0.820,-0.005
0.825,-0.043
0.830,0.001
0.835,0.014
0.840,-0.040
0.845,-0.021
0.850,0.017
0.855,-0.040
0.860,-0.063
0.865,-0.016
0.870,-0.055
0.875,-0.113
0.880,-0.072
0.885,-0.061
0.890,-0.117
0.895,-0.094
0.900,-0.061
0.905,-0.133
0.910,-0.149
0.915,-0.070
0.920,-0.080
0.925,-0.117
0.930,-0.050
0.935,-0.025
0.940,-0.080
0.945,-0.035
0.950,0.034
0.955,-0.008
0.960,-0.011
0.965,0.055
0.970,0.032
0.975,-0.012
0.980,0.038
0.985,0.050
0.990,-0.009
0.995,0.021
1.000,0.066
1.005,0.006
1.010,-0.011
1.015,0.050
1.020,0.027
1.025,-0.026
1.030,0.023
1.035,0.045
1.040,0.003
1.045,0.020
1.050,-0.097
1.055,-0.475
1.060,-0.867
1.065,-1.232
1.070,-1.602
1.075,-1.434
1.080,-0.547
1.085,0.191
1.090,0.365
1.095,0.368
1.100,0.348
1.105,0.270
1.110,0.232
1.115,0.256
1.120,0.219
1.125,0.171
1.130,0.221
1.135,0.230
1.140,0.161
1.145,0.182
1.150,0.219
1.155,0.152
1.160,0.132
1.165,0.186
1.170,0.152
1.175,0.096
1.180,0.139
1.185,0.141
1.190,0.069
1.195,0.087
1.200,0.122
1.205,0.062
1.210,0.043
1.215,0.088
1.220,0.049
1.225,-0.011
1.230,0.029
1.235,0.037
1.240,-0.040
1.245,-0.035
1.250,-0.004
1.255,-0.073
1.260,-0.103
1.265,-0.060
1.270,-0.103
1.275,-0.165
1.280,-0.128
1.285,-0.129
1.290,-0.198
1.295,-0.176
1.300,-0.136
1.305,-0.191
1.310,-0.196
1.315,-0.119
1.320,-0.114
1.325,-0.116
1.330,-0.017
1.335,0.038
1.340,0.020
1.345,0.090
1.350,0.172
1.355,0.148
1.360,0.162
1.365,0.238
1.370,0.225
1.375,0.187
1.380,0.240
1.385,0.249
1.390,0.184
1.395,0.205
1.400,0.243
1.405,0.182
1.410,0.166
1.415,0.215
1.420,0.173
1.425,0.116
1.430,0.162
1.435,0.169
1.440,0.102
1.445,0.120
1.450,0.158
1.455,0.098
1.460,0.077
1.465,0.126
1.470,0.095
1.475,0.043
1.480,0.087
1.485,0.092
1.490,0.024
1.495,0.041
1.500,0.078
1.505,0.021
1.510,0.002
1.515,0.055
1.520,0.033
1.525,-0.013
1.530,0.030
1.535,0.034
1.540,-0.031
1.545,-0.010
1.550,0.025
1.555,-0.027
1.560,-0.034
1.565,0.022
1.570,-0.006
1.575,-0.052
1.580,-0.009
1.585,-0.001
1.590,-0.054
1.595,-0.027
1.600,0.017
1.605,-0.035
1.610,-0.070
1.615,-0.039
1.620,-0.073
1.625,-0.122
1.630,-0.067
1.635,-0.051
1.640,-0.120
1.645,-0.106
1.650,-0.073
1.655,-0.141
1.660,-0.160
1.665,-0.079
1.670,-0.073
1.675,-0.099
1.680,-0.030
1.685,-0.005
1.690,-0.072
1.695,-0.038
1.700,0.032
1.705,-0.008
1.710,-0.009
1.715,0.061
1.720,0.038
1.725,-0.010
1.730,0.029
1.735,0.034
1.740,-0.018
1.745,0.007
1.750,0.047
1.755,-0.010
1.760,-0.035
1.765,0.022
1.770,0.000
1.775,-0.076
1.780,-0.033
1.785,0.042
1.790,0.045
1.795,0.044
1.800,-0.112
1.805,-0.510
1.810,-0.936
1.815,-1.341
1.820,-1.665
1.825,-1.388
1.830,-0.486
1.835,0.159
1.840,0.280
1.845,0.284
1.850,0.283
1.855,0.227
1.860,0.217
1.865,0.287
1.870,0.271
1.875,0.210
1.880,0.249
1.885,0.270
1.890,0.209
1.895,0.201
1.900,0.222
1.905,0.190
1.910,0.205
1.915,0.261
1.920,0.214
1.925,0.163
1.930,0.215
1.935,0.215
1.940,0.143
1.945,0.167
1.950,0.200
1.955,0.127
1.960,0.103
1.965,0.156
1.970,0.125
1.975,0.065
1.980,0.094
1.985,0.094
1.990,0.031
1.995,0.029
2.000,0.038
2.005,-0.034
2.010,-0.072
2.015,-0.023
2.020,-0.029
2.025,-0.080
2.030,-0.064
2.035,-0.080
2.040,-0.148
2.045,-0.120
2.050,-0.069
2.055,-0.120
2.060,-0.134
2.065,-0.063
2.070,-0.057
2.075,-0.059
2.080,0.033
2.085,0.091
2.090,0.078
2.095,0.121
2.100,0.173
2.105,0.164
2.110,0.218
2.115,0.316
2.120,0.301
2.125,0.261
2.130,0.301
2.135,0.294
2.140,0.233
2.145,0.262
2.150,0.303
2.155,0.240
2.160,0.215
2.165,0.263
2.170,0.223
2.175,0.163
2.180,0.203
2.185,0.217
2.190,0.169
2.195,0.176
2.200,0.183
2.205,0.132
2.210,0.129
2.215,0.183
2.220,0.160
2.225,0.114
2.230,0.114
2.235,0.085
2.240,0.053
2.245,0.089
2.250,0.110
2.255,0.037
2.260,0.027
2.265,0.107
2.270,0.082
2.275,0.019
2.280,0.073
2.285,0.098
2.290,0.037
2.295,0.052
2.300,0.077
2.305,0.023
2.310,0.023
2.315,0.092
2.320,0.078
2.325,0.018
2.330,0.054
2.335,0.069
2.340,0.012
2.345,0.037
2.350,0.081
2.355,0.044
2.360,0.013
2.365,0.015
2.370,-0.029
2.375,-0.085
2.380,-0.052
2.385,-0.027
2.390,-0.063
2.395,-0.033
2.400,-0.011
2.405,-0.099
2.410,-0.120
2.415,-0.035
2.420,-0.037
2.425,-0.076
2.430,-0.018
2.435,0.002
2.440,-0.060
2.445,-0.043
2.450,0.020
2.455,-0.009
2.460,-0.018
2.465,0.050
2.470,0.020
2.475,-0.041
2.480,0.003
2.485,0.018
2.490,-0.032
2.495,-0.003
2.500,0.029
2.505,-0.045
2.510,-0.064
2.515,0.008
2.520,-0.017
2.525,-0.096
2.530,-0.063
2.535,-0.017
2.540,-0.037
2.545,-0.081
2.550,-0.294
2.555,-0.722
2.560,-1.167
2.565,-1.539
2.570,-1.686
2.575,-1.179
2.580,-0.271
2.585,0.185
2.590,0.180
2.595,0.165
2.600,0.199
2.605,0.169
2.610,0.133
2.615,0.146
2.620,0.117
2.625,0.086
2.630,0.126
2.635,0.122
2.640,0.060
2.645,0.084
2.650,0.124
2.655,0.065
2.660,0.043
2.665,0.090
2.670,0.053
2.675,0.001
2.680,0.040
2.685,0.042
2.690,-0.023
2.695,-0.019
2.700,0.036
2.705,-0.013
2.710,-0.093
2.715,-0.063
2.720,-0.059
2.725,-0.105
2.730,-0.068
2.735,-0.050
2.740,-0.123
2.745,-0.149
2.750,-0.129
2.755,-0.191
2.760,-0.227
2.765,-0.163
2.770,-0.188
2.775,-0.274
2.780,-0.247
2.785,-0.226
2.790,-0.286
2.795,-0.270
2.800,-0.230
2.805,-0.274
2.810,-0.271
2.815,-0.189
2.820,-0.176
2.825,-0.179
2.830,-0.093
2.835,-0.043
2.840,-0.045
2.845,0.041
2.850,0.117
2.855,0.076
2.860,0.088
2.865,0.182
2.870,0.130
2.875,-0.003
2.880,0.034
2.885,0.164
2.890,0.209
2.895,0.194
2.900,0.161
2.905,0.102
2.910,0.104
2.915,0.192
2.920,0.213
2.925,0.158
2.930,0.159
2.935,0.146
2.940,0.063
2.945,0.057
2.950,0.089
2.955,0.016
2.960,-0.021
2.965,0.040
2.970,0.021
2.975,-0.031
2.980,0.010
2.985,0.013
2.990,-0.062
2.995,-0.051
3.000,-0.017
3.005,-0.088
3.010,-0.107
3.015,-0.033
3.020,-0.028
3.025,-0.058
3.030,-0.021
3.035,0.005
3.040,-0.025
3.045,-0.025
3.050,-0.009
3.055,-0.070
3.060,-0.100
3.065,-0.038
3.070,-0.042
3.075,-0.090
3.080,-0.048
3.085,-0.034
3.090,-0.097
3.095,-0.108
3.100,-0.102
3.105,-0.143
3.110,-0.105
3.115,-0.007
3.120,-0.073
3.125,-0.215
3.130,-0.188
3.135,-0.109
3.140,-0.124
3.145,-0.112
3.150,-0.073
3.155,-0.108
3.160,-0.113
3.165,-0.058
3.170,-0.079
3.175,-0.124
3.180,-0.064
3.185,-0.024
3.190,-0.058
3.195,-0.023
3.200,0.024
3.205,-0.017
3.210,-0.027
3.215,0.049
3.220,0.055
3.225,-0.002
3.230,0.023
3.235,0.039
3.240,-0.016
3.245,0.011
3.250,0.061
3.255,-0.022
3.260,-0.109
3.265,-0.079
3.270,0.018
3.275,0.121
3.280,0.149
3.285,0.089
3.290,0.043
3.295,0.060
3.300,-0.050
3.305,-0.405
3.310,-0.810
3.315,-1.208
3.320,-1.552
3.325,-1.296
3.330,-0.388
3.335,0.272
3.340,0.395
3.345,0.389
3.350,0.377
3.355,0.318
3.360,0.271
3.365,0.267
3.370,0.220
3.375,0.175
3.380,0.231
3.385,0.251
3.390,0.182
3.395,0.167
3.400,0.147
3.405,0.046
3.410,0.078
3.415,0.260
3.420,0.286
3.425,0.211
3.430,0.257
3.435,0.242
3.440,0.124
3.445,0.122
3.450,0.152
3.455,0.093
3.460,0.071
3.465,0.113
3.470,0.081
3.475,0.025
3.480,0.056
3.485,0.057
3.490,0.001
3.495,0.013
3.500,0.019
3.505,-0.074
3.510,-0.156
3.515,-0.145
3.520,-0.116
3.525,-0.074
3.530,-0.009
3.535,-0.051
3.540,-0.188
3.545,-0.226
3.550,-0.134
3.555,-0.077
3.560,-0.095
3.565,-0.103
3.570,-0.108
3.575,-0.113
3.580,-0.043
3.585,0.040
3.590,0.061
3.595,0.121
3.600,0.183
3.605,0.163
3.610,0.181
3.615,0.261
3.620,0.250
3.625,0.196
3.630,0.234
3.635,0.250
3.640,0.191
3.645,0.200
3.650,0.227
3.655,0.186
3.660,0.184
3.665,0.229
3.670,0.193
3.675,0.125
3.680,0.154
3.685,0.171
3.690,0.122
3.695,0.150
3.700,0.170
3.705,0.082
3.710,0.036
3.715,0.085
3.720,0.093
3.725,0.025
3.730,0.015
3.735,0.052
3.740,0.100
3.745,0.189
3.750,0.191
3.755,0.079
3.760,0.026
3.765,0.061
3.770,0.039
3.775,-0.016
3.780,0.019
3.785,0.035
3.790,-0.006
3.795,0.008
3.800,0.051
3.805,0.026
3.810,-0.003
3.815,0.044
3.820,0.007
3.825,-0.073
3.830,-0.022
3.835,0.005
3.840,-0.041
3.845,-0.023
3.850,0.002
3.855,-0.040
3.860,-0.049
3.865,-0.010
3.870,-0.043
3.875,-0.092
3.880,-0.056
3.885,-0.036
3.890,-0.073
3.895,-0.051
3.900,-0.022
3.905,-0.085
3.910,-0.110
3.915,-0.047
3.920,-0.028
3.925,-0.047
3.930,-0.025
3.935,0.006
3.940,-0.012
3.945,-0.018
3.950,0.041
3.955,0.027
3.960,-0.011
3.965,0.075
3.970,0.081
3.975,0.006
3.980,0.054
3.985,0.087
3.990,0.041
3.995,0.062
4.000,0.090
4.005,0.038
4.010,0.015
4.015,0.056
4.020,0.038
4.025,-0.008
4.030,0.025
4.035,0.035
4.040,0.013
4.045,0.054
4.050,0.053
4.055,-0.151
4.060,-0.490
4.065,-0.843
4.070,-1.296
4.075,-1.646
4.080,-1.317
4.085,-0.450
4.090,0.168
4.095,0.371
4.100,0.359
4.105,0.228
4.110,0.216
4.115,0.304
4.120,0.254
4.125,0.170
4.130,0.224
4.135,0.271
4.140,0.189
4.145,0.143
4.150,0.175
4.155,0.140
4.160,0.133
4.165,0.167
4.170,0.108
4.175,0.074
4.180,0.121
4.185,0.119
4.190,0.065
4.195,0.077
4.200,0.109
4.205,0.051
4.210,0.028
4.215,0.068
4.220,0.034
4.225,-0.011
4.230,-0.011
4.235,-0.003
4.240,-0.001
4.245,-0.006
4.250,-0.017
4.255,-0.064
4.260,-0.090
4.265,-0.050
4.270,-0.058
4.275,-0.107
4.280,-0.109
4.285,-0.142
4.290,-0.190
4.295,-0.162
4.300,-0.153
4.305,-0.208
4.310,-0.210
4.315,-0.163
4.320,-0.161
4.325,-0.138
4.330,-0.056
4.335,-0.028
4.340,-0.026
4.345,0.016
4.350,0.051
4.355,0.088
4.360,0.162
4.365,0.206
4.370,0.190
4.375,0.206
4.380,0.227
4.385,0.176
4.390,0.154
4.395,0.200
4.400,0.225
4.405,0.200
4.410,0.177
4.415,0.204
4.420,0.165
4.425,0.096
4.430,0.147
4.435,0.159
4.440,0.104
4.445,0.136
4.450,0.153
4.455,0.074
4.460,0.028
4.465,0.071
4.470,0.092
4.475,0.049
4.480,0.021
4.485,0.001
4.490,-0.007
4.495,0.074
4.500,0.138
4.505,0.092
4.510,0.073
4.515,0.080
4.520,-0.027
4.525,-0.096
4.530,0.029
4.535,0.117
4.540,0.032
4.545,-0.065
4.550,-0.133
4.555,-0.169
4.560,-0.076
4.565,0.021
4.570,-0.077
4.575,-0.161
4.580,-0.034
4.585,0.047
4.590,0.011
4.595,0.041
4.600,0.078
4.605,0.012
4.610,-0.012
4.615,0.059
4.620,0.036
4.625,-0.049
4.630,-0.043
4.635,-0.023
4.640,-0.081
4.645,-0.122
4.650,-0.101
4.655,-0.141
4.660,-0.226
4.665,-0.289
4.670,-0.386
4.675,-0.318
4.680,0.049
4.685,0.246
4.690,0.108
4.695,0.029
4.700,-0.010
4.705,-0.140
4.710,-0.151
4.715,0.000
4.720,0.069
4.725,0.062
4.730,0.122
4.735,0.102
4.740,0.028
4.745,0.106
4.750,0.222
4.755,0.146
4.760,-0.105
4.765,-0.277
4.770,-0.200
4.775,0.024
4.780,0.233
4.785,0.222
4.790,-0.054
4.795,-0.207
4.800,-0.115
4.805,-0.151
4.810,-0.428
4.815,-0.895
4.820,-1.525
4.825,-1.713
4.830,-0.919
4.835,0.067
4.840,0.390
4.845,0.359
4.850,0.290
4.855,0.133
4.860,0.089
4.865,0.273
4.870,0.353
4.875,0.152
4.880,-0.048
4.885,-0.028
4.890,0.208
4.895,0.490
4.900,0.495
4.905,0.248
4.910,0.143
4.915,0.207
4.920,0.196
4.925,0.169
4.930,0.209
4.935,0.180
4.940,0.102
4.945,0.088
4.950,0.093
4.955,0.072
4.960,0.057
4.965,0.075
4.970,0.069
4.975,0.025
4.980,0.031
4.985,0.038
4.990,-0.014
4.995,-0.014
5.000,0.010
5.005,-0.114
5.010,-0.285
5.015,-0.255
5.020,-0.076
5.025,0.060
5.030,0.100
5.035,-0.012
5.040,-0.223
5.045,-0.302
5.050,-0.251
5.055,-0.218
5.060,-0.099
5.065,0.061
5.070,0.058
5.075,-0.016
5.080,-0.029
5.085,-0.033
5.090,-0.035
5.095,0.062
5.100,0.192
5.105,0.229
5.110,0.243
5.115,0.249
5.120,0.123
5.125,0.005
5.130,0.105
5.135,0.276
5.140,0.348
5.145,0.388
5.150,0.351
5.155,0.176
5.160,0.091
5.165,0.198
5.170,0.273
5.175,0.234
5.180,0.209
5.185,0.192
5.190,0.131
5.195,0.121
5.200,0.157
5.205,0.099
5.210,0.059
5.215,0.118
5.220,0.087
5.225,0.023
5.230,0.065
5.235,0.082
5.240,0.020
5.245,0.025
5.250,0.046
5.255,-0.074
5.260,-0.136
5.265,0.025
5.270,0.114
5.275,0.049
5.280,0.034
5.285,0.049
5.290,-0.003
5.295,-0.053
5.300,-0.026
5.305,-0.023
5.310,-0.054
5.315,-0.045
5.320,-0.100
5.325,-0.145
5.330,-0.010
5.335,0.078
5.340,0.001
5.345,-0.025
5.350,-0.010
5.355,-0.073
5.360,-0.083
5.365,-0.013
5.370,-0.038
5.375,-0.113
5.380,-0.093
5.385,-0.060
5.390,-0.110
5.395,-0.104
5.400,-0.058
5.405,-0.110
5.410,-0.122
5.415,-0.059
5.420,-0.079
5.425,-0.097
5.430,-0.022
5.435,0.004
5.440,-0.038
5.445,-0.010
5.450,0.048
5.455,0.028
5.460,0.019
5.465,0.092
5.470,0.101
5.475,0.033
5.480,0.043
5.485,0.070
5.490,0.032
5.495,0.059
5.500,0.110
5.505,0.055
5.510,0.045
5.515,0.103
5.520,0.059
5.525,0.012
5.530,0.065
5.535,0.077
5.540,0.060
5.545,0.077
5.550,-0.065
5.555,-0.425
5.560,-0.813
5.565,-1.204
5.570,-1.539
5.575,-1.294
5.580,-0.418
5.585,0.246
5.590,0.378
5.595,0.352
5.600,0.352
5.605,0.304
5.610,0.237
5.615,0.252
5.620,0.244
5.625,0.207
5.630,0.255
5.635,0.257
5.640,0.145
5.645,0.139
5.650,0.234
5.655,0.183
5.660,0.082
5.665,0.104
5.670,0.102
5.675,0.055
5.680,0.091
5.685,0.105
5.690,0.042
5.695,0.054
5.700,0.091
5.705,0.020
5.710,-0.004
5.715,0.029
5.720,-0.022
5.725,-0.057
5.730,-0.008
5.735,-0.002
5.740,-0.057
5.745,-0.043
5.750,-0.010
5.755,-0.087
5.760,-0.140
5.765,-0.107
5.770,-0.132
5.775,-0.167
5.780,-0.138
5.785,-0.150
5.790,-0.203
5.795,-0.188
5.800,-0.154
5.805,-0.192
5.810,-0.203
5.815,-0.139
5.820,-0.113
5.825,-0.112
5.830,-0.033
5.835,0.019
5.840,-0.030
5.845,0.022
5.850,0.136
5.855,0.131
5.860,0.139
5.865,0.195
5.870,0.142
5.875,0.085
5.880,0.189
5.885,0.250
5.890,0.151
5.895,0.129
5.900,0.181
5.905,0.152
5.910,0.171
5.915,0.267
5.920,0.240
5.925,0.154
5.930,0.180
5.935,0.179
5.940,0.103
5.945,0.098
5.950,0.094
5.955,-0.014
5.960,-0.062
5.965,0.019
5.970,0.061
5.975,0.098
5.980,0.170
5.985,0.048
5.990,-0.128
5.995,-0.038
6.000,0.076
6.005,0.017
6.010,-0.003
6.015,0.047
6.020,0.011
6.025,-0.129
6.030,-0.169
6.035,-0.042
6.040,0.052
6.045,0.050
6.050,-0.053
6.055,-0.181
6.060,-0.069
6.065,0.123
6.070,0.073
6.075,-0.031
6.080,-0.065
6.085,-0.153
6.090,-0.209
6.095,-0.085
6.100,0.015
6.105,-0.119
6.110,-0.261
6.115,-0.279
6.120,-0.240
6.125,-0.160
6.130,-0.056
6.135,0.007
6.140,-0.029
6.145,-0.034
6.150,-0.014
6.155,-0.084
6.160,-0.140
6.165,-0.135
6.170,-0.107
6.175,-0.057
6.180,-0.047
6.185,-0.122
6.190,-0.148
6.195,-0.005
6.200,0.142
6.205,0.151
6.210,0.107
6.215,0.046
6.220,-0.057
6.225,-0.086
6.230,0.039
6.235,0.115
6.240,-0.031
6.245,-0.182
6.250,-0.122
6.255,0.060
6.260,0.208
6.265,0.219
6.270,0.121
6.275,0.059
6.280,0.055
6.285,-0.087
6.290,-0.409
6.295,-0.724
6.300,-1.094
6.305,-1.561
6.310,-1.539
6.315,-0.777
6.320,-0.033
6.325,0.299
6.330,0.478
6.335,0.513
6.340,0.373
6.345,0.266
6.350,0.262
6.355,0.216
6.360,0.177
6.365,0.205
6.370,0.202
6.375,0.148
6.380,0.079
6.385,0.019
6.390,0.069
6.395,0.277
6.400,0.298
6.405,-0.004
6.410,-0.170
6.415,0.041
6.420,0.295
6.425,0.316
6.430,0.242
6.435,0.176
6.440,0.079
6.445,0.031
6.450,0.045
6.455,0.027
6.460,0.024
6.465,0.042
6.470,-0.006
6.475,-0.049
6.480,-0.018
6.485,-0.018
6.490,-0.073
6.495,-0.082
6.500,-0.053
6.505,-0.083
6.510,-0.133
6.515,-0.154
6.520,-0.200
6.525,-0.187
6.530,-0.101
6.535,-0.139
6.540,-0.259
6.545,-0.273
6.550,-0.207
6.555,-0.122
6.560,0.028
6.565,0.141
6.570,0.104
6.575,0.071
6.580,0.127
6.585,0.150
6.590,0.146
6.595,0.192
6.600,0.223
6.605,0.201
6.610,0.189
6.615,0.224
6.620,0.233
6.625,0.153
6.630,0.038
6.635,0.016
6.640,0.181
6.645,0.374
6.650,0.378
6.655,0.252
6.660,0.190
6.665,0.216
6.670,0.202
6.675,0.143
6.680,0.135
6.685,0.124
6.690,0.076
6.695,0.097
6.700,0.132
6.705,0.076
6.710,0.043
6.715,0.085
6.720,0.072
6.725,0.028
6.730,0.053
6.735,0.061
6.740,0.007
6.745,0.017
6.750,0.064
6.755,0.017
6.760,-0.019
6.765,0.015
6.770,0.001
6.775,-0.031
6.780,-0.018
6.785,-0.047
6.790,-0.108
6.795,-0.021
6.800,0.141
6.805,0.117
6.810,0.029
6.815,0.048
6.820,0.029
6.825,-0.022
6.830,0.008
6.835,0.008
6.840,-0.051
6.845,-0.049
6.850,-0.017
6.855,-0.057
6.860,-0.105
6.865,-0.094
6.870,-0.105
6.875,-0.123
6.880,-0.074
6.885,-0.062
6.890,-0.118
6.895,-0.109
6.900,-0.045
6.905,-0.057
6.910,-0.092
6.915,-0.069
6.920,-0.057
6.925,-0.041
6.930,0.052
6.935,0.112
6.940,0.078
6.945,0.088
6.950,0.104
6.955,0.023
6.960,-0.019
6.965,0.016
6.970,0.014
6.975,-0.006
6.980,0.019
6.985,0.007
6.990,-0.085
6.995,-0.156
7.000,-0.156
7.005,-0.052
7.010,0.134
7.015,0.144
7.020,-0.172
7.025,-0.600
7.030,-1.048
7.035,-1.556
7.040,-1.697
7.045,-1.004
7.050,-0.058
7.055,0.331
7.060,0.316
7.065,0.220
7.070,0.174
7.075,0.263
7.080,0.340
7.085,0.281
7.090,0.163
7.095,0.168
7.100,0.264
7.105,0.246
7.110,0.185
7.115,0.204
7.120,0.191
7.125,0.139
7.130,0.153
7.135,0.163
7.140,0.137
7.145,0.127
7.150,0.081
7.155,0.034
7.160,0.067
7.165,0.122
7.170,0.114
7.175,0.069
7.180,0.068
7.185,0.065
7.190,0.019
7.195,0.025
7.200,0.052
7.205,-0.006
7.210,-0.041
7.215,-0.002
7.220,-0.022
7.225,-0.073
7.230,-0.056
7.235,-0.065
7.240,-0.124
7.245,-0.113
7.250,-0.070
7.255,-0.090
7.260,-0.163
7.265,-0.277
7.270,-0.352
7.275,-0.268
7.280,-0.095
7.285,-0.082
7.290,-0.238
7.295,-0.194
7.300,0.092
7.305,0.233
7.310,0.197
7.315,0.197
7.320,0.213
7.325,0.225
7.330,0.273
7.335,0.271
7.340,0.213
7.345,0.215
7.350,0.233
7.355,0.191
7.360,0.180
7.365,0.200
7.370,0.152
7.375,0.096
7.380,0.105
7.385,0.050
7.390,-0.103
7.395,-0.113
7.400,0.088
7.405,0.266
7.410,0.274
7.415,0.205
7.420,0.133
7.425,0.068
7.430,0.063
7.435,0.062
7.440,0.021
7.445,0.015
7.450,0.020
7.455,-0.003
7.460,0.009
7.465,0.037
7.470,0.010
7.475,-0.031
7.480,0.001
7.485,0.011
7.490,-0.044
7.495,-0.024
7.500,0.017
7.505,-0.009
7.510,-0.028
7.515,-0.012
7.520,-0.020
7.525,-0.043
7.530,-0.018
7.535,-0.017
7.540,-0.056
7.545,-0.038
7.550,-0.023
7.555,-0.130
7.560,-0.230
7.565,-0.142
7.570,-0.037
7.575,-0.058
7.580,-0.058
7.585,0.001
7.590,0.043
7.595,0.058
7.600,0.023
7.605,-0.060
7.610,-0.085
7.615,-0.039
7.620,-0.041
7.625,-0.055
7.630,-0.015
7.635,-0.009
7.640,-0.032
7.645,0.014
7.650,0.063
7.655,0.030
7.660,0.017
7.665,0.043
7.670,0.034
7.675,0.029
7.680,0.046
7.685,0.032
7.690,0.003
7.695,0.006
7.700,0.021
7.705,0.005
7.710,0.006
7.715,0.037
7.720,0.020
7.725,-0.010
7.730,0.034
7.735,0.077
7.740,0.016
7.745,-0.161
7.750,-0.455
7.755,-0.866
7.760,-1.318
7.765,-1.602
7.770,-1.312
7.775,-0.473
7.780,0.189
7.785,0.346
7.790,0.268
7.795,0.231
7.800,0.234
7.805,0.196
7.810,0.207
7.815,0.195
7.820,0.106
7.825,0.147
7.830,0.288
7.835,0.291
7.840,0.209
7.845,0.205
7.850,0.230
7.855,0.181
7.860,0.134
7.865,0.144
7.870,0.131
7.875,0.113
7.880,0.134
7.885,0.116
7.890,0.065
7.895,0.083
7.900,0.102
7.905,0.043
7.910,0.018
7.915,0.045
7.920,0.037
7.925,0.014
7.930,0.017
7.935,0.002
7.940,-0.046
7.945,-0.056
7.950,-0.042
7.955,-0.074
7.960,-0.100
7.965,-0.091
7.970,-0.116
7.975,-0.151
7.980,-0.153
7.985,-0.174
7.990,-0.209
7.995,-0.170
8.000,-0.132
8.005,-0.182
8.010,-0.178
8.015,-0.109
8.020,-0.099
8.025,-0.079
8.030,0.017
8.035,0.064
8.040,0.055
8.045,0.124
8.050,0.181
8.055,0.147
8.060,0.157
8.065,0.227
8.070,0.227
8.075,0.190
8.080,0.207
8.085,0.207
8.090,0.184
8.095,0.203
8.100,0.193
8.105,0.140
8.110,0.139
8.115,0.164
8.120,0.145
8.125,0.115
8.130,0.123
8.135,0.124
8.140,0.085
8.145,0.079
8.150,0.093
8.155,0.059
8.160,0.061
8.165,0.108
8.170,0.070
8.175,-0.028
8.180,-0.028
8.185,0.071
8.190,0.113
8.195,0.077
8.200,0.067
8.205,0.049
8.210,0.036
8.215,0.067
8.220,0.038
8.225,-0.005
8.230,0.038
8.235,0.027
8.240,-0.038
8.245,-0.008
8.250,0.032
8.255,-0.012
8.260,-0.025
8.265,0.007
8.270,-0.022
8.275,-0.052
8.280,-0.014
8.285,0.000
8.290,-0.045
8.295,-0.075
8.300,-0.098
8.305,-0.135
8.310,-0.106
8.315,-0.044
8.320,-0.078
8.325,-0.131
8.330,-0.079
8.335,-0.053
8.340,-0.107
8.345,-0.096
8.350,-0.059
8.355,-0.057
8.360,-0.045
8.365,-0.055
8.370,-0.087
8.375,-0.064
8.380,0.032
8.385,0.046
8.390,-0.046
8.395,-0.079
8.400,-0.046
8.405,0.019
8.410,0.095
8.415,0.100
8.420,0.041
8.425,0.011
8.430,0.020
8.435,0.012
8.440,-0.002
8.445,0.011
8.450,0.003
8.455,-0.022
8.460,0.006
8.465,0.043
8.470,0.017
8.475,-0.066
8.480,-0.232
8.485,-0.534
8.490,-0.957
8.495,-1.391
8.500,-1.531
8.505,-0.996
8.510,-0.123
8.515,0.325
8.520,0.332
8.525,0.274
8.530,0.277
8.535,0.266
8.540,0.217
8.545,0.210
8.550,0.193
8.555,0.132
8.560,0.150
8.565,0.235
8.570,0.230
8.575,0.167
8.580,0.166
8.585,0.170
8.590,0.131
8.595,0.137
8.600,0.153
8.605,0.103
8.610,0.080
8.615,0.095
8.620,0.081
8.625,0.077
8.630,0.087
8.635,0.053
8.640,0.009
8.645,0.028
8.650,0.043
8.655,0.009
8.660,-0.010
8.665,-0.018
8.670,-0.046
8.675,-0.053
8.680,-0.032
8.685,-0.063
8.690,-0.128
8.695,-0.120
8.700,-0.111
8.705,-0.147
8.710,-0.142
8.715,-0.133
8.720,-0.168
8.725,-0.185
8.730,-0.159
8.735,-0.169
8.740,-0.210
8.745,-0.157
8.750,-0.093
8.755,-0.097
8.760,-0.046
8.765,0.026
8.770,0.026
8.775,0.047
8.780,0.136
8.785,0.170
8.790,0.132
8.795,0.166
8.800,0.216
8.805,0.189
8.810,0.203
8.815,0.254
8.820,0.235
8.825,0.201
8.830,0.223
8.835,0.214
8.840,0.152
8.845,0.179
8.850,0.212
8.855,0.150
8.860,0.135
8.865,0.161
8.870,0.144
8.875,0.123
8.880,0.124
8.885,0.112
8.890,0.096
8.895,0.112
8.900,0.106
8.905,0.068
8.910,0.069
8.915,0.086
8.920,0.047
8.925,0.026
8.930,0.075
8.935,0.080
8.940,0.026
8.945,0.028
8.950,0.055
8.955,0.024
8.960,0.014
8.965,0.038
8.970,0.012
8.975,-0.018
8.980,0.002
8.985,0.006
8.990,-0.012
8.995,0.003
9.000,0.012
9.005,-0.017
9.010,-0.033
9.015,-0.052
9.020,-0.088
9.025,-0.104
9.030,-0.066
9.035,-0.039
9.040,-0.063
9.045,-0.050
9.050,-0.059
9.055,-0.117
9.060,-0.115
9.065,-0.076
9.070,-0.067
9.075,-0.072
9.080,-0.032
9.085,-0.022
9.090,-0.047
9.095,0.003
9.100,0.029
9.105,0.001
9.110,0.029
9.115,0.067
9.120,0.031
9.125,0.002
9.130,0.035
9.135,0.042
9.140,0.017
9.145,0.033
9.150,0.036
9.155,-0.010
9.160,-0.013
9.165,0.022
9.170,0.009
9.175,-0.002
9.180,0.028
9.185,0.061
9.190,0.068
9.195,-0.056
9.200,-0.370
9.205,-0.752
9.210,-1.156
9.215,-1.532
9.220,-1.432
9.225,-0.662
9.230,0.120
9.235,0.400
9.240,0.359
9.245,0.318
9.250,0.307
9.255,0.232
9.260,0.192
9.265,0.202
9.270,0.182
9.275,0.186
9.280,0.221
9.285,0.196
9.290,0.149
9.295,0.163
9.300,0.152
9.305,0.101
9.310,0.117
9.315,0.148
9.320,0.120
9.325,0.104
9.330,0.122
9.335,0.099
9.340,0.057
9.345,0.063
9.350,0.076
9.355,0.052
9.360,0.054
9.365,0.074
9.370,0.032
9.375,-0.014
9.380,-0.009
9.385,-0.025
9.390,-0.051
9.395,-0.035
9.400,-0.037
9.405,-0.077
9.410,-0.086
9.415,-0.083
9.420,-0.124
9.425,-0.146
9.430,-0.124
9.435,-0.148
9.440,-0.199
9.445,-0.180
9.450,-0.144
9.455,-0.155
9.460,-0.157
9.465,-0.121
9.470,-0.091
9.475,-0.055
9.480,0.006
9.485,0.033
9.490,0.043
9.495,0.107
9.500,0.158
9.505,0.154
9.510,0.181
9.515,0.234
9.520,0.230
9.525,0.191
9.530,0.189
9.535,0.205
9.540,0.197
9.545,0.197
9.550,0.197
9.555,0.172
9.560,0.169
9.565,0.190
9.570,0.164
9.575,0.126
9.580,0.152
9.585,0.160
9.590,0.126
9.595,0.118
9.600,0.099
9.605,0.056
9.610,0.055
9.615,0.079
9.620,0.060
9.625,0.046
9.630,0.073
9.635,0.060
9.640,0.020
9.645,0.031
9.650,0.031
9.655,-0.010
9.660,-0.011
9.665,0.012
9.670,0.008
9.675,0.005
9.680,0.023
9.685,0.007
9.690,-0.020
9.695,0.006
9.700,0.010
9.705,-0.031
9.710,-0.023
9.715,-0.002
9.720,-0.040
9.725,-0.049
9.730,-0.001
9.735,-0.008
9.740,-0.075
9.745,-0.080
9.750,-0.056
9.755,-0.100
9.760,-0.108
9.765,-0.070
9.770,-0.093
9.775,-0.130
9.780,-0.119
9.785,-0.113
9.790,-0.112
9.795,-0.057
9.800,-0.031
9.805,-0.073
9.810,-0.062
9.815,-0.010
9.820,-0.003
9.825,0.005
9.830,0.040
9.835,0.048
9.840,0.041
9.845,0.052
9.850,0.040
9.855,0.025
9.860,0.049
9.865,0.059
9.870,0.029
9.875,0.017
9.880,0.033
9.885,0.010
9.890,-0.016
9.895,0.015
9.900,0.039
9.905,0.033
9.910,0.062
9.915,0.034
9.920,-0.224
9.925,-0.601
9.930,-0.963
9.935,-1.397
9.940,-1.603
9.945,-1.041
9.950,-0.115
9.955,0.351
9.960,0.412
9.965,0.368
9.970,0.306
9.975,0.273
9.980,0.234
9.985,0.199
9.990,0.195
9.995,0.205
10.000,0.188
10.005,0.179
10.010,0.202
10.015,0.189
10.020,0.145
10.025,0.137
10.030,0.152
10.035,0.120
10.040,0.095
10.045,0.122
10.050,0.128
10.055,0.099
10.060,0.094
10.065,0.110
10.070,0.088
10.075,0.046
10.080,0.052
10.085,0.047
10.090,0.022
10.095,0.050
10.100,0.028
10.105,-0.034
10.110,-0.005
10.115,-0.006
10.120,-0.053
10.125,-0.056
10.130,-0.060
10.135,-0.100
10.140,-0.142
10.145,-0.111
10.150,-0.099
10.155,-0.173
10.160,-0.185
10.165,-0.144
10.170,-0.152
10.175,-0.167
10.180,-0.136
10.185,-0.104
10.190,-0.093
10.195,-0.048
10.200,-0.002
10.205,0.010
10.210,0.055
10.215,0.116
10.220,0.132
10.225,0.155
10.230,0.210
10.235,0.211
10.240,0.193
10.245,0.227
10.250,0.226
10.255,0.184
10.260,0.198
10.265,0.226
10.270,0.184
10.275,0.152
10.280,0.182
10.285,0.178
10.290,0.138
10.295,0.142
10.300,0.143
10.305,0.105
10.310,0.099
10.315,0.122
10.320,0.097
10.325,0.093
10.330,0.135
10.335,0.067
10.340,-0.006
10.345,0.046
10.350,0.044
10.355,-0.010
10.360,0.040
10.365,0.083
10.370,-0.019
10.375,-0.072
10.380,-0.010
10.385,-0.016
10.390,-0.045
10.395,-0.005
10.400,0.007
10.405,-0.026
10.410,-0.008
10.415,0.022
10.420,-0.007
10.425,-0.017
10.430,0.016
10.435,-0.005
10.440,-0.031
10.445,0.004
10.450,-0.016
10.455,-0.096
10.460,-0.093
10.465,-0.045
10.470,-0.067
10.475,-0.088
10.480,-0.063
10.485,-0.083
10.490,-0.129
10.495,-0.098
10.500,-0.062
10.505,-0.076
10.510,-0.035
10.515,0.004
10.520,-0.047
10.525,-0.066
10.530,-0.012
10.535,0.003
10.540,0.004
10.545,0.045
10.550,0.063
10.555,0.023
10.560,-0.001
10.565,0.026
10.570,0.033
10.575,0.033
10.580,0.063
10.585,0.039
10.590,-0.021
10.595,-0.028
10.600,-0.022
10.605,-0.022
10.610,0.024
10.615,0.072
10.620,0.043
10.625,-0.028
10.630,-0.183
10.635,-0.474
10.640,-0.814
10.645,-1.236
10.650,-1.620
10.655,-1.430
10.660,-0.598
10.665,0.127
10.670,0.356
10.675,0.316
10.680,0.232
10.685,0.194
10.690,0.214
10.695,0.281
10.700,0.290
10.705,0.200
10.710,0.153
10.715,0.159
10.720,0.137
10.725,0.172
10.730,0.268
10.735,0.276
10.740,0.191
10.745,0.139
10.750,0.164
10.755,0.172
10.760,0.174
10.765,0.172
10.770,0.063
10.775,-0.046
10.780,-0.058
10.785,-0.017
10.790,0.079
10.795,0.111
10.800,0.013
10.805,-0.077
10.810,-0.066
10.815,0.032
10.820,0.078
10.825,0.014
10.830,-0.059
10.835,-0.121
10.840,-0.136
10.845,-0.124
10.850,-0.178
10.855,-0.211
10.860,-0.158
10.865,-0.099
10.870,-0.112
10.875,-0.215
10.880,-0.286
10.885,-0.225
10.890,-0.101
10.895,-0.066
10.900,-0.170
10.905,-0.261
10.910,-0.196
10.915,-0.020
10.920,0.123
10.925,0.212
10.930,0.272
10.935,0.220
10.940,0.110
10.945,0.098
10.950,0.187
10.955,0.291
10.960,0.336
10.965,0.274
10.970,0.151
10.975,0.121
10.980,0.182
10.985,0.223
10.990,0.212
10.995,0.093
11.000,-0.043
11.005,-0.009
11.010,0.170
11.015,0.312
11.020,0.284
11.025,0.121
11.030,0.011
11.035,0.059
11.040,0.172
11.045,0.195
11.050,0.100
11.055,-0.010
11.060,-0.021
11.065,0.096
11.070,0.186
11.075,0.177
11.080,0.145
11.085,0.077
11.090,0.033
11.095,0.062
11.100,0.064
11.105,0.036
11.110,0.033
11.115,0.019
11.120,-0.004
11.125,-0.004
11.130,-0.001
11.135,0.003
11.140,-0.019
11.145,-0.033
11.150,-0.019
11.155,-0.048
11.160,-0.069
11.165,-0.061
11.170,-0.093
11.175,-0.115
11.180,-0.082
11.185,-0.069
11.190,-0.106
11.195,-0.143
11.200,-0.158
11.205,-0.140
11.210,-0.094
11.215,-0.072
11.220,-0.090
11.225,-0.067
11.230,0.000
11.235,0.037
11.240,0.050
11.245,0.061
11.250,0.056
11.255,0.015
11.260,0.004
11.265,0.044
11.270,0.042
11.275,0.023
11.280,0.048
11.285,0.034
11.290,0.007
11.295,0.037
11.300,0.031
11.305,-0.009
11.310,0.017
11.315,0.042
11.320,-0.003
11.325,-0.005
11.330,0.047
11.335,0.047
11.340,-0.071
11.345,-0.339
11.350,-0.740
11.355,-1.218
11.360,-1.599
11.365,-1.458
11.370,-0.712
11.375,0.006
11.380,0.308
11.385,0.312
11.390,0.270
11.395,0.315
11.400,0.305
11.405,0.263
11.410,0.286
11.415,0.319
11.420,0.306
11.425,0.298
11.430,0.322
11.435,0.305
11.440,0.282
11.445,0.297
11.450,0.302
11.455,0.275
11.460,0.279
11.465,0.286
11.470,0.226
11.475,0.210
11.480,0.237
11.485,0.210
11.490,0.176
11.495,0.167
11.500,0.132
11.505,0.079
11.510,0.070
11.515,0.032
11.520,-0.061
11.525,-0.067
11.530,-0.015
11.535,-0.099
11.540,-0.213
11.545,-0.143
11.550,-0.035
11.555,-0.088
11.560,-0.168
11.565,-0.161
11.570,-0.173
11.575,-0.214
11.580,-0.246
11.585,-0.275
11.590,-0.293
11.595,-0.284
11.600,-0.264
11.605,-0.255
11.610,-0.224
11.615,-0.189
11.620,-0.177
11.625,-0.131
11.630,-0.047
11.635,-0.017
11.640,0.000
11.645,0.072
11.650,0.109
11.655,0.084
11.660,0.079
11.665,0.091
11.670,0.083
11.675,0.121
11.680,0.156
11.685,0.107
11.690,0.101
11.695,0.149
11.700,0.120
11.705,0.071
11.710,0.100
11.715,0.111
11.720,0.078
11.725,0.102
11.730,0.152
11.735,0.093
11.740,0.014
11.745,0.059
11.750,0.090
11.755,0.051
11.760,0.081
11.765,0.095
11.770,0.028
11.775,0.040
11.780,0.072
11.785,0.035
11.790,0.026
11.795,0.057
11.800,0.070
11.805,0.061
11.810,0.059
11.815,0.058
11.820,0.048
11.825,0.040
11.830,0.046
11.835,0.034
11.840,0.026
11.845,0.055
11.850,0.072
11.855,0.040
11.860,0.005
11.865,0.017
11.870,-0.004
11.875,-0.036
11.880,-0.015
11.885,-0.030
11.890,-0.052
11.895,-0.018
11.900,-0.013
11.905,-0.038
11.910,-0.012
11.915,-0.009
11.920,-0.075
11.925,-0.080
11.930,-0.038
11.935,-0.045
11.940,-0.033
11.945,-0.001
11.950,-0.023
11.955,-0.046
11.960,-0.023
11.965,-0.011
11.970,-0.019
11.975,0.013
11.980,0.054
11.985,0.029
11.990,0.005
11.995,0.029
12.000,0.021
12.005,-0.009
12.010,0.011
12.015,0.016
12.020,-0.051
12.025,-0.079
12.030,-0.028
12.035,-0.024
12.040,-0.034
12.045,-0.001
12.050,0.000
12.055,-0.076
12.060,-0.270
12.065,-0.590
12.070,-1.006
12.075,-1.432
12.080,-1.544
12.085,-1.003
12.090,-0.146
12.095,0.343
12.100,0.392
12.105,0.299
12.110,0.273
12.115,0.245
12.120,0.146
12.125,0.126
12.130,0.159
12.135,0.170
12.140,0.175
12.145,0.167
12.150,0.150
12.155,0.126
12.160,0.130
12.165,0.154
12.170,0.139
12.175,0.114
12.180,0.127
12.185,0.128
12.190,0.110
12.195,0.127
12.200,0.141
12.205,0.100
12.210,0.068
12.215,0.070
12.220,0.045
12.225,0.045
12.230,0.082
12.235,0.033
12.240,-0.020
12.245,0.011
12.250,-0.003
12.255,-0.060
12.260,-0.040
12.265,-0.031
12.270,-0.105
12.275,-0.144
12.280,-0.138
12.285,-0.170
12.290,-0.188
12.295,-0.137
12.300,-0.122
12.305,-0.196
12.310,-0.215
12.315,-0.179
12.320,-0.204
12.325,-0.166
12.330,-0.073
12.335,-0.066
12.340,-0.047
12.345,0.043
12.350,0.090
12.355,0.059
12.360,0.093
12.365,0.165
12.370,0.175
12.375,0.231
12.380,0.284
12.385,0.226
12.390,0.174
12.395,0.197
12.400,0.214
12.405,0.213
12.410,0.254
12.415,0.257
12.420,0.183
12.425,0.157
12.430,0.171
12.435,0.136
12.440,0.119
12.445,0.151
12.450,0.142
12.455,0.108
12.460,0.099
12.465,0.090
12.470,0.096
12.475,0.142
12.480,0.096
12.485,-0.028
12.490,-0.013
12.495,0.090
12.500,0.084
12.505,0.037
12.510,0.084
12.515,0.068
12.520,-0.037
12.525,-0.026
12.530,0.018
12.535,0.017
12.540,0.008
12.545,0.000
12.550,0.011
12.555,-0.002
12.560,0.023
12.565,0.037
12.570,-0.059
12.575,-0.074
12.580,0.019
12.585,0.010
12.590,-0.044
12.595,-0.030
12.600,-0.066
12.605,-0.121
12.610,-0.080
12.615,-0.041
12.620,-0.078
12.625,-0.087
12.630,-0.072
12.635,-0.092
12.640,-0.091
12.645,-0.078
12.650,-0.069
12.655,-0.034
12.660,0.026
12.665,0.056
12.670,0.004
12.675,-0.019
12.680,0.048
12.685,0.073
12.690,0.071
12.695,0.098
12.700,0.074
12.705,0.051
12.710,0.078
12.715,0.081
12.720,0.048
12.725,0.039
12.730,0.057
12.735,0.012
12.740,-0.016
12.745,0.048
12.750,0.059
12.755,0.023
12.760,0.045
12.765,0.059
12.770,-0.049
12.775,-0.287
12.780,-0.604
12.785,-1.019
12.790,-1.464
12.795,-1.580
12.800,-1.022
12.805,-0.128
12.810,0.393
12.815,0.433
12.820,0.317
12.825,0.290
12.830,0.306
12.835,0.219
12.840,0.141
12.845,0.175
12.850,0.194
12.855,0.138
12.860,0.115
12.865,0.154
12.870,0.179
12.875,0.203
12.880,0.226
12.885,0.155
12.890,0.090
12.895,0.139
12.900,0.178
12.905,0.157
12.910,0.156
12.915,0.144
12.920,0.098
12.925,0.062
12.930,0.052
12.935,0.048
12.940,0.039
12.945,0.049
12.950,0.029
12.955,-0.036
12.960,-0.025
12.965,0.046
12.970,0.016
12.975,-0.076
12.980,-0.112
12.985,-0.132
12.990,-0.120
12.995,-0.062
13.000,-0.083
13.005,-0.182
13.010,-0.201
13.015,-0.169
13.020,-0.195
13.025,-0.203
13.030,-0.163
13.035,-0.156
13.040,-0.157
13.045,-0.103
13.050,-0.062
13.055,-0.053
13.060,0.023
13.065,0.101
13.070,0.112
13.075,0.153
13.080,0.192
13.085,0.162
13.090,0.156
13.095,0.215
13.100,0.251
13.105,0.228
13.110,0.217
13.115,0.208
13.120,0.166
13.125,0.176
13.130,0.214
13.135,0.176
13.140,0.134
13.145,0.162
13.150,0.168
13.155,0.130
13.160,0.145
13.165,0.156
13.170,0.093
13.175,0.078
13.180,0.111
13.185,0.075
13.190,0.041
13.195,0.066
13.200,0.048
13.205,0.014
13.210,0.048
13.215,0.057
13.220,-0.010
13.225,-0.031
13.230,0.024
13.235,0.046
13.240,0.036
13.245,0.031
13.250,-0.039
13.255,-0.109
13.260,-0.050
13.265,0.024
13.270,0.029
13.275,0.045
13.280,0.030
13.285,-0.069
13.290,-0.115
13.295,-0.068
13.300,-0.066
13.305,-0.095
13.310,-0.048
13.315,-0.013
13.320,-0.077
13.325,-0.104
13.330,-0.085
13.335,-0.117
13.340,-0.126
13.345,-0.068
13.350,-0.040
13.355,-0.075
13.360,-0.067
13.365,-0.044
13.370,-0.050
13.375,-0.011
13.380,0.026
13.385,-0.005
13.390,-0.006
13.395,0.055
13.400,0.048
13.405,0.005
13.410,0.037
13.415,0.043
13.420,-0.010
13.425,0.011
13.430,0.059
13.435,0.004
13.440,-0.044
13.445,0.003
13.450,0.006
13.455,-0.027
13.460,0.030
13.465,0.067
13.470,-0.062
13.475,-0.306
13.480,-0.626
13.485,-1.100
13.490,-1.574
13.495,-1.586
13.500,-0.919
13.505,-0.060
13.510,0.397
13.515,0.439
13.520,0.323
13.525,0.288
13.530,0.302
13.535,0.223
13.540,0.181
13.545,0.228
13.550,0.220
13.555,0.171
13.560,0.195
13.565,0.209
13.570,0.157
13.575,0.154
13.580,0.180
13.585,0.141
13.590,0.109
13.595,0.133
13.600,0.125
13.605,0.082
13.610,0.096
13.615,0.106
13.620,0.049
13.625,0.036
13.630,0.062
13.635,0.030
13.640,0.010
13.645,0.038
13.650,0.019
13.655,-0.039
13.660,-0.038
13.665,-0.023
13.670,-0.073
13.675,-0.078
13.680,-0.038
13.685,-0.098
13.690,-0.161
13.695,-0.121
13.700,-0.132
13.705,-0.180
13.710,-0.155
13.715,-0.161
13.720,-0.217
13.725,-0.209
13.730,-0.170
13.735,-0.183
13.740,-0.164
13.745,-0.070
13.750,-0.019
13.755,-0.025
13.760,0.032
13.765,0.099
13.770,0.088
13.775,0.126
13.780,0.199
13.785,0.187
13.790,0.178
13.795,0.229
13.800,0.226
13.805,0.178
13.810,0.205
13.815,0.230
13.820,0.170
13.825,0.159
13.830,0.197
13.835,0.163
13.840,0.132
13.845,0.164
13.850,0.152
13.855,0.098
13.860,0.119
13.865,0.137
13.870,0.082
13.875,0.079
13.880,0.107
13.885,0.063
13.890,0.032
13.895,0.079
13.900,0.081
13.905,0.022
13.910,0.049
13.915,0.080
13.920,0.013
13.925,0.005
13.930,0.054
13.935,0.023
13.940,-0.004
13.945,0.037
13.950,0.031
13.955,-0.018
13.960,0.011
13.965,0.036
13.970,-0.018
13.975,-0.018
13.980,0.023
13.985,-0.019
13.990,-0.062
13.995,-0.032
14.000,-0.040
14.005,-0.092
14.010,-0.066
14.015,-0.039
14.020,-0.090
14.025,-0.088
14.030,-0.058
14.035,-0.099
14.040,-0.102
14.045,-0.035
14.050,-0.037
14.055,-0.075
14.060,-0.033
14.065,-0.001
14.070,-0.032
14.075,-0.010
14.080,0.046
14.085,0.027
14.090,0.010
14.095,0.057
14.100,0.052
14.105,0.001
14.110,0.030
14.115,0.063
14.120,0.017
14.125,0.013
14.130,0.050
14.135,0.013
14.140,-0.013
14.145,0.039
14.150,0.037
14.155,-0.009
14.160,0.034
14.165,0.090
14.170,0.021
14.175,-0.169
14.180,-0.469
14.185,-0.909
14.190,-1.392
14.195,-1.638
14.200,-1.291
14.205,-0.462
14.210,0.194
14.215,0.378
14.220,0.298
14.225,0.263
14.230,0.302
14.235,0.244
14.240,0.194
14.245,0.243
14.250,0.241
14.255,0.194
14.260,0.223
14.265,0.242
14.270,0.183
14.275,0.176
14.280,0.213
14.285,0.169
14.290,0.130
14.295,0.166
14.300,0.152
14.305,0.093
14.310,0.116
14.315,0.136
14.320,0.076
14.325,0.067
14.330,0.101
14.335,0.061
14.340,0.022
14.345,0.058
14.350,0.044
14.355,-0.017
14.360,0.002
14.365,0.014
14.370,-0.055
14.375,-0.068
14.380,-0.034
14.385,-0.081
14.390,-0.130
14.395,-0.105
14.400,-0.121
14.405,-0.182
14.410,-0.164
14.415,-0.145
14.420,-0.200
14.425,-0.200
14.430,-0.152
14.435,-0.172
14.440,-0.178
14.445,-0.094
14.450,-0.049
14.455,-0.058
14.460,0.014
14.465,0.090
14.470,0.074
14.475,0.104
14.480,0.186
14.485,0.174
14.490,0.152
14.495,0.213
14.500,0.222
14.505,0.171
14.510,0.200
14.515,0.236
14.520,0.180
14.525,0.162
14.530,0.203
14.535,0.164
14.540,0.122
14.545,0.175
14.550,0.172
14.555,0.101
14.560,0.120
14.565,0.147
14.570,0.086
14.575,0.075
14.580,0.124
14.585,0.089
14.590,0.045
14.595,0.089
14.600,0.085
14.605,0.024
14.610,0.049
14.615,0.079
14.620,0.022
14.625,0.017
14.630,0.063
14.635,0.030
14.640,-0.006
14.645,0.039
14.650,0.036
14.655,-0.026
14.660,-0.003
14.665,0.030
14.670,-0.023
14.675,-0.029
14.680,0.022
14.685,-0.007
14.690,-0.047
14.695,-0.005
14.700,-0.014
14.705,-0.092
14.710,-0.080
14.715,-0.050
14.720,-0.104
14.725,-0.104
14.730,-0.049
14.735,-0.079
14.740,-0.128
14.745,-0.099
14.750,-0.086
14.755,-0.113
14.760,-0.072
14.765,-0.030
14.770,-0.071
14.775,-0.069
14.780,-0.004
14.785,-0.006
14.790,-0.022
14.795,0.032
14.800,0.043
14.805,-0.004
14.810,0.029
14.815,0.066
14.820,0.012
14.825,0.006
14.830,0.057
14.835,0.024
14.840,-0.014
14.845,0.034
14.850,0.035
14.855,-0.022
14.860,0.003
14.865,0.039
14.870,-0.008
14.875,-0.003
14.880,0.079
14.885,0.002
14.890,-0.277
14.895,-0.570
14.900,-0.949
14.905,-1.446
14.910,-1.590
14.915,-1.025
14.920,-0.215
14.925,0.240
14.930,0.343
14.935,0.266
14.940,0.208
14.945,0.260
14.950,0.253
14.955,0.185
14.960,0.207
14.965,0.246
14.970,0.192
14.975,0.175
14.980,0.222
14.985,0.193
14.990,0.144
14.995,0.178
15.000,0.175
15.005,0.116
15.010,0.138
15.015,0.163
15.020,0.094
15.025,0.079
15.030,0.135
15.035,0.106
15.040,0.047
15.045,0.076
15.050,0.078
15.055,0.021
15.060,0.036
15.065,0.069
15.070,0.037
15.075,0.052
15.080,0.102
15.085,0.049
15.090,-0.038
15.095,-0.026
15.100,-0.037
15.105,-0.114
15.110,-0.100
15.115,-0.080
15.120,-0.154
15.125,-0.170
15.130,-0.135
15.135,-0.182
15.140,-0.222
15.145,-0.178
15.150,-0.162
15.155,-0.177
15.160,-0.115
15.165,-0.059
15.170,-0.067
15.175,-0.020
15.180,0.071
15.185,0.075
15.190,0.055
15.195,0.131
15.200,0.165
15.205,0.102
15.210,0.125
15.215,0.170
15.220,0.121
15.225,0.148
15.230,0.234
15.235,0.201
15.240,0.151
15.245,0.191
15.250,0.201
15.255,0.136
15.260,0.134
15.265,0.160
15.270,0.114
15.275,0.101
15.280,0.137
15.285,0.108
15.290,0.080
15.295,0.130
15.300,0.135
15.305,0.064
15.310,0.065
15.315,0.093
15.320,0.046
15.325,0.037
15.330,0.075
15.335,0.025
15.340,-0.024
15.345,0.032
15.350,0.041
15.355,-0.019
15.360,0.022
15.365,0.063
15.370,0.003
15.375,0.000
15.380,0.038
15.385,-0.022
15.390,-0.069
15.395,-0.008
15.400,0.006
15.405,-0.043
15.410,-0.012
15.415,0.015
15.420,-0.053
15.425,-0.062
15.430,-0.011
15.435,-0.056
15.440,-0.107
15.445,-0.060
15.450,-0.054
15.455,-0.109
15.460,-0.074
15.465,-0.030
15.470,-0.098
15.475,-0.118
15.480,-0.044
15.485,-0.064
15.490,-0.112
15.495,-0.043
15.500,-0.016
15.505,-0.069
15.510,-0.022
15.515,0.045
15.520,0.000
15.525,0.002
15.530,0.077
15.535,0.056
15.540,0.008
15.545,0.052
15.550,0.060
15.555,-0.004
15.560,0.011
15.565,0.049
15.570,-0.001
15.575,-0.006
15.580,0.045
15.585,0.011
15.590,-0.029
15.595,0.025
15.600,0.037
15.605,-0.012
15.610,0.034
15.615,0.035
15.620,-0.218
15.625,-0.547
15.630,-0.868
15.635,-1.331
15.640,-1.591
15.645,-1.085
15.650,-0.250
15.655,0.180
15.660,0.335
15.665,0.364
15.670,0.260
15.675,0.219
15.680,0.236
15.685,0.195
15.690,0.163
15.695,0.211
15.700,0.210
15.705,0.142
15.710,0.165
15.715,0.198
15.720,0.126
15.725,0.101
15.730,0.153
15.735,0.129
15.740,0.091
15.745,0.142
15.750,0.129
15.755,0.047
15.760,0.075
15.765,0.110
15.770,0.045
15.775,0.039
15.780,0.091
15.785,0.040
15.790,-0.025
15.795,0.018
15.800,0.024
15.805,-0.050
15.810,-0.039
15.815,-0.004
15.820,-0.066
15.825,-0.087
15.830,-0.048
15.835,-0.093
15.840,-0.143
15.845,-0.102
15.850,-0.120
15.855,-0.202
15.860,-0.187
15.865,-0.152
15.870,-0.192
15.875,-0.184
15.880,-0.122
15.885,-0.134
15.890,-0.150
15.895,-0.061
15.900,-0.009
15.905,-0.023
15.910,0.058
15.915,0.145
15.920,0.127
15.925,0.148
15.930,0.228
15.935,0.200
15.940,0.142
15.945,0.206
15.950,0.240
15.955,0.184
15.960,0.203
15.965,0.242
15.970,0.187
15.975,0.156
15.980,0.197
15.985,0.182
15.990,0.141
15.995,0.185
16.000,0.190
16.005,0.118
16.010,0.117
16.015,0.125
16.020,0.067
16.025,0.074
16.030,0.136
16.035,0.095
16.040,0.041
16.045,0.093
16.050,0.106
16.055,0.068
16.060,0.116
16.065,0.154
16.070,0.074
16.075,0.026
16.080,0.064
16.085,0.037
16.090,-0.017
16.095,0.028
16.100,0.038
16.105,-0.034
16.110,-0.023
16.115,0.018
16.120,-0.027
16.125,-0.035
16.130,0.019
16.135,-0.007
16.140,-0.036
16.145,0.017
16.150,0.004
16.155,-0.065
16.160,-0.050
16.165,-0.033
16.170,-0.095
16.175,-0.103
16.180,-0.045
16.185,-0.082
16.190,-0.131
16.195,-0.072
16.200,-0.078
16.205,-0.171
16.210,-0.138
16.215,-0.057
16.220,-0.097
16.225,-0.114
16.230,-0.037
16.235,-0.037
16.240,-0.072
16.245,-0.007
16.250,0.022
16.255,-0.028
16.260,0.022
16.265,0.079
16.270,0.018
16.275,0.005
16.280,0.052
16.285,0.015
16.290,-0.022
16.295,0.030
16.300,0.042
16.305,-0.018
16.310,0.007
16.315,0.061
16.320,0.010
16.325,-0.019
16.330,0.032
16.335,0.028
16.340,0.010
16.345,0.047
16.350,-0.112
16.355,-0.509
16.360,-0.872
16.365,-1.272
16.370,-1.658
16.375,-1.368
16.380,-0.424
16.385,0.233
16.390,0.372
16.395,0.386
16.400,0.343
16.405,0.260
16.410,0.246
16.415,0.255
16.420,0.204
16.425,0.182
16.430,0.231
16.435,0.204
16.440,0.138
16.445,0.189
16.450,0.216
16.455,0.148
16.460,0.155
16.465,0.188
16.470,0.130
16.475,0.098
16.480,0.129
16.485,0.104
16.490,0.063
16.495,0.107
16.500,0.111
16.505,0.041
16.510,0.053
16.515,0.080
16.520,0.012
16.525,-0.012
16.530,0.027
16.535,-0.008
16.540,-0.049
16.545,-0.008
16.550,-0.018
16.555,-0.095
16.560,-0.091
16.565,-0.072
16.570,-0.141
16.575,-0.166
16.580,-0.119
16.585,-0.156
16.590,-0.216
16.595,-0.165
16.600,-0.144
16.605,-0.207
16.610,-0.178
16.615,-0.106
16.620,-0.117
16.625,-0.085
16.630,0.014
16.635,0.031
16.640,0.032
16.645,0.127
16.650,0.175
16.655,0.141
16.660,0.183
16.665,0.240
16.670,0.205
16.675,0.194
16.680,0.252
16.685,0.245
16.690,0.201
16.695,0.239
16.700,0.240
16.705,0.168
16.710,0.182
16.715,0.216
16.720,0.146
16.725,0.114
16.730,0.179
16.735,0.155
16.740,0.086
16.745,0.130
16.750,0.140
16.755,0.064
16.760,0.082
16.765,0.126
16.770,0.068
16.775,0.047
16.780,0.096
16.785,0.061
16.790,0.004
16.795,0.048
16.800,0.060
16.805,-0.013
16.810,-0.004
16.815,0.047
16.820,-0.003
16.825,-0.029
16.830,0.032
16.835,0.017
16.840,-0.037
16.845,0.006
16.850,0.019
16.855,-0.049
16.860,-0.034
16.865,0.016
16.870,-0.030
16.875,-0.046
16.880,0.008
16.885,-0.023
16.890,-0.089
16.895,-0.061
16.900,-0.048
16.905,-0.107
16.910,-0.095
16.915,-0.052
16.920,-0.096
16.925,-0.114
16.930,-0.078
16.935,-0.118
16.940,-0.145
16.945,-0.062
16.950,-0.043
16.955,-0.105
16.960,-0.069
16.965,-0.008
16.970,-0.045
16.975,-0.039
16.980,0.036
16.985,0.018
16.990,-0.021
16.995,0.042
17.000,0.067
17.005,0.009
17.010,0.027
17.015,0.066
17.020,0.010
17.025,-0.008
17.030,0.050
17.035,0.026
17.040,-0.031
17.045,0.016
17.050,0.041
17.055,-0.012
17.060,0.010
17.065,0.072
17.070,0.026
17.075,-0.124
17.080,-0.372
17.085,-0.776
17.090,-1.260
17.095,-1.602
17.100,-1.467
17.105,-0.730
17.110,0.081
17.115,0.419
17.120,0.356
17.125,0.275
17.130,0.316
17.135,0.277
17.140,0.196
17.145,0.237
17.150,0.248
17.155,0.177
17.160,0.192
17.165,0.238
17.170,0.180
17.175,0.147
17.180,0.202
17.185,0.180
17.190,0.117
17.195,0.156
17.200,0.169
17.205,0.098
17.210,0.106
17.215,0.147
17.220,0.087
17.225,0.048
17.230,0.093
17.235,0.072
17.240,0.012
17.245,0.047
17.250,0.059
17.255,0.000
17.260,0.012
17.265,0.036
17.270,-0.032
17.275,-0.064
17.280,-0.017
17.285,-0.056
17.290,-0.140
17.295,-0.114
17.300,-0.103
17.305,-0.183
17.310,-0.183
17.315,-0.132
17.320,-0.181
17.325,-0.218
17.330,-0.167
17.335,-0.170
17.340,-0.192
17.345,-0.104
17.350,-0.041
17.355,-0.063
17.360,-0.002
17.365,0.090
17.370,0.082
17.375,0.099
17.380,0.188
17.385,0.193
17.390,0.160
17.395,0.221
17.400,0.245
17.405,0.187
17.410,0.205
17.415,0.247
17.420,0.192
17.425,0.162
17.430,0.216
17.435,0.193
17.440,0.133
17.445,0.178
17.450,0.185
17.455,0.106
17.460,0.123
17.465,0.169
17.470,0.110
17.475,0.079
17.480,0.131
17.485,0.097
17.490,0.033
17.495,0.084
17.500,0.102
17.505,0.033
17.510,0.040
17.515,0.079
17.520,0.030
17.525,0.005
17.530,0.059
17.535,0.034
17.540,-0.022
17.545,0.029
17.550,0.045
17.555,-0.024
17.560,-0.010
17.565,0.039
17.570,-0.011
17.575,-0.044
17.580,0.015
17.585,0.001
17.590,-0.061
17.595,-0.012
17.600,0.017
17.605,-0.043
17.610,-0.029
17.615,0.009
17.620,-0.052
17.625,-0.090
17.630,-0.045
17.635,-0.072
17.640,-0.127
17.645,-0.070
17.650,-0.041
17.655,-0.113
17.660,-0.126
17.665,-0.095
17.670,-0.122
17.675,-0.112
17.680,-0.042
17.685,-0.060
17.690,-0.107
17.695,-0.048
17.700,0.002
17.705,-0.022
17.710,0.011
17.715,0.066
17.720,0.031
17.725,0.007
17.730,0.048
17.735,0.027
17.740,-0.010
17.745,0.046
17.750,0.064
17.755,0.000
17.760,0.005
17.765,0.046
17.770,0.010
17.775,-0.014
17.780,0.040
17.785,0.027
17.790,-0.029
17.795,0.037
17.800,0.072
17.805,-0.118
17.810,-0.407
17.815,-0.728
17.820,-1.205
17.825,-1.649
17.830,-1.541
17.835,-0.808
17.840,-0.035
17.845,0.371
17.850,0.423
17.855,0.309
17.860,0.287
17.865,0.301
17.870,0.222
17.875,0.195
17.880,0.258
17.885,0.240
17.890,0.179
17.895,0.218
17.900,0.228
17.905,0.157
17.910,0.162
17.915,0.203
17.920,0.148
17.925,0.111
17.930,0.166
17.935,0.149
17.940,0.080
17.945,0.115
17.950,0.134
17.955,0.066
17.960,0.063
17.965,0.099
17.970,0.047
17.975,0.011
17.980,0.057
17.985,0.036
17.990,-0.029
17.995,-0.002
18.000,0.003
18.005,-0.066
18.010,-0.066
18.015,-0.039
18.020,-0.106
18.025,-0.149
18.030,-0.105
18.035,-0.138
18.040,-0.207
18.045,-0.169
18.050,-0.156
18.055,-0.221
18.060,-0.210
18.065,-0.150
18.070,-0.166
18.075,-0.156
18.080,-0.051
18.085,-0.020
18.090,-0.031
18.095,0.064
18.100,0.131
18.105,0.107
18.110,0.148
18.115,0.223
18.120,0.200
18.125,0.183
18.130,0.243
18.135,0.233
18.140,0.181
18.145,0.227
18.150,0.247
18.155,0.178
18.160,0.181
18.165,0.224
18.170,0.173
18.175,0.137
18.180,0.188
18.185,0.168
18.190,0.099
18.195,0.133
18.200,0.152
18.205,0.083
18.210,0.084
18.215,0.133
18.220,0.091
18.225,0.052
18.230,0.096
18.235,0.078
18.240,0.019
18.245,0.060
18.250,0.080
18.255,0.016
18.260,0.025
18.265,0.069
18.270,0.020
18.275,-0.008
18.280,0.050
18.285,0.032
18.290,-0.024
18.295,0.021
18.300,0.039
18.305,-0.028
18.310,-0.026
18.315,0.020
18.320,-0.016
18.325,-0.040
18.330,0.004
18.335,-0.037
18.340,-0.110
18.345,-0.072
18.350,-0.052
18.355,-0.110
18.360,-0.093
18.365,-0.039
18.370,-0.093
18.375,-0.145
18.380,-0.093
18.385,-0.076
18.390,-0.106
18.395,-0.064
18.400,-0.032
18.405,-0.072
18.410,-0.051
18.415,0.013
18.420,-0.010
18.425,-0.024
18.430,0.041
18.435,0.037
18.440,-0.009
18.445,0.030
18.450,0.053
18.455,0.002
18.460,0.012
18.465,0.060
18.470,0.018
18.475,-0.010
18.480,0.047
18.485,0.030
18.490,-0.031
18.495,0.012
18.500,0.041
18.505,-0.003
18.510,0.030
18.515,0.017
18.520,-0.277
18.525,-0.673
18.530,-1.032
18.535,-1.486
18.540,-1.673
18.545,-1.036
18.550,-0.094
18.555,0.334
18.560,0.396
18.565,0.384
18.570,0.291
18.575,0.236
18.580,0.262
18.585,0.231
18.590,0.175
18.595,0.212
18.600,0.230
18.605,0.170
18.610,0.167
18.615,0.206
18.620,0.157
18.625,0.115
18.630,0.170
18.635,0.165
18.640,0.100
18.645,0.130
18.650,0.147
18.655,0.069
18.660,0.061
18.665,0.110
18.670,0.063
18.675,0.023
18.680,0.074
18.685,0.052
18.690,-0.016
18.695,0.019
18.700,0.035
18.705,-0.039
18.710,-0.051
18.715,-0.017
18.720,-0.069
18.725,-0.117
18.730,-0.084
18.735,-0.112
18.740,-0.178
18.745,-0.150
18.750,-0.138
18.755,-0.207
18.760,-0.208
18.765,-0.164
18.770,-0.208
18.775,-0.224
18.780,-0.139
18.785,-0.117
18.790,-0.134
18.795,-0.052
18.800,0.024
18.805,0.017
18.810,0.064
18.815,0.155
18.820,0.152
18.825,0.145
18.830,0.219
18.835,0.225
18.840,0.179
18.845,0.222
18.850,0.249
18.855,0.186
18.860,0.186
18.865,0.235
18.870,0.187
18.875,0.144
18.880,0.193
18.885,0.182
18.890,0.118
18.895,0.143
18.900,0.162
18.905,0.100
18.910,0.093
18.915,0.139
18.920,0.098
18.925,0.059
18.930,0.107
18.935,0.096
18.940,0.038
18.945,0.073
18.950,0.090
18.955,0.021
18.960,0.022
18.965,0.073
18.970,0.035
18.975,0.005
18.980,0.060
18.985,0.045
18.990,-0.016
18.995,0.019
19.000,0.041
19.005,-0.019
19.010,-0.021
19.015,0.013
19.020,-0.048
19.025,-0.095
19.030,-0.045
19.035,-0.055
19.040,-0.108
19.045,-0.063
19.050,-0.031
19.055,-0.097
19.060,-0.117
19.065,-0.069
19.070,-0.080
19.075,-0.095
19.080,-0.036
19.085,-0.032
19.090,-0.072
19.095,-0.026
19.100,0.016
19.105,-0.017
19.110,0.003
19.115,0.056
19.120,0.023
19.125,-0.001
19.130,0.059
19.135,0.057
19.140,0.001
19.145,0.036
19.150,0.065
19.155,0.007
19.160,0.003
19.165,0.048
19.170,0.012
19.175,-0.019
19.180,0.031
19.185,0.026
19.190,-0.008
19.195,0.051
19.200,0.009
19.205,-0.295
19.210,-0.652
19.215,-1.007
19.220,-1.481
19.225,-1.638
19.230,-0.984
19.235,-0.091
19.240,0.319
19.245,0.408
19.250,0.370
19.255,0.266
19.260,0.249
19.265,0.263
19.270,0.200
19.275,0.164
19.280,0.223
19.285,0.218
19.290,0.161
19.295,0.188
19.300,0.203
19.305,0.139
19.310,0.136
19.315,0.182
19.320,0.140
19.325,0.100
19.330,0.146
19.335,0.131
19.340,0.067
19.345,0.091
19.350,0.108
19.355,0.044
19.360,0.038
19.365,0.080
19.370,0.031
19.375,-0.013
19.380,0.031
19.385,0.013
19.390,-0.051
19.395,-0.028
19.400,-0.015
19.405,-0.085
19.410,-0.101
19.415,-0.067
19.420,-0.120
19.425,-0.168
19.430,-0.126
19.435,-0.145
19.440,-0.209
19.445,-0.179
19.450,-0.157
19.455,-0.210
19.460,-0.194
19.465,-0.121
19.470,-0.125
19.475,-0.119
19.480,-0.019
19.485,0.025
19.490,0.016
19.495,0.091
19.500,0.157
19.505,0.133
19.510,0.157
19.515,0.228
19.520,0.205
19.525,0.180
19.530,0.239
19.535,0.232
19.540,0.177
19.545,0.206
19.550,0.230
19.555,0.172
19.560,0.163
19.565,0.205
19.570,0.161
19.575,0.118
19.580,0.163
19.585,0.151
19.590,0.092
19.595,0.120
19.600,0.140
19.605,0.077
19.610,0.071
19.615,0.115
19.620,0.073
19.625,0.040
19.630,0.091
19.635,0.075
19.640,0.019
19.645,0.051
19.650,0.070
19.655,0.011
19.660,0.013
19.665,0.063
19.670,0.022
19.675,-0.020
19.680,0.024
19.685,0.018
19.690,-0.034
19.695,-0.006
19.700,0.019
19.705,-0.033
19.710,-0.033
19.715,0.018
19.720,-0.022
19.725,-0.070
19.730,-0.040
19.735,-0.059
19.740,-0.113
19.745,-0.081
19.750,-0.057
19.755,-0.109
19.760,-0.103
19.765,-0.056
19.770,-0.106
19.775,-0.142
19.780,-0.068
19.785,-0.054
19.790,-0.100
19.795,-0.055
19.800,-0.012
19.805,-0.057
19.810,-0.041
19.815,0.029
19.820,0.008
19.825,-0.014
19.830,0.044
19.835,0.042
19.840,-0.005
19.845,0.029
19.850,0.055
19.855,0.003
19.860,0.003
19.865,0.054
19.870,0.018
19.875,-0.017
19.880,0.032
19.885,0.028
19.890,-0.024
19.895,0.006
19.900,0.046
19.905,0.021
19.910,0.003
19.915,-0.117
19.920,-0.469
19.925,-0.886
19.930,-1.283
19.935,-1.610
19.940,-1.368
19.945,-0.475
19.950,0.210
19.955,0.342
19.960,0.312
19.965,0.311
19.970,0.270
19.975,0.214
19.980,0.236
19.985,0.232
19.990,0.182
19.995,0.211
20.000,0.238
20.005,0.176
20.010,0.157
20.015,0.200
20.020,0.166
20.025,0.125
20.030,0.165
20.035,0.155
20.040,0.098
20.045,0.117
20.050,0.137
20.055,0.079
20.060,0.067
20.065,0.108
20.070,0.068
20.075,0.025
20.080,0.067
20.085,0.057
20.090,-0.008
20.095,0.010
20.100,0.028
20.105,-0.032
20.110,-0.046
20.115,-0.016
20.120,-0.069
20.125,-0.117
20.130,-0.084
20.135,-0.104
20.140,-0.169
20.145,-0.149
20.150,-0.130
20.155,-0.192
20.160,-0.200
20.165,-0.150
20.170,-0.179
20.175,-0.199
20.180,-0.126
20.185,-0.091
20.190,-0.097
20.195,-0.025
20.200,0.049
20.205,0.045
20.210,0.081
20.215,0.165
20.220,0.165
20.225,0.156
20.230,0.222
20.235,0.229
20.240,0.183
20.245,0.214
20.250,0.244
20.255,0.191
20.260,0.179
20.265,0.224
20.270,0.190
20.275,0.149
20.280,0.187
20.285,0.175
20.290,0.115
20.295,0.134
20.300,0.157
20.305,0.103
20.310,0.093
20.315,0.134
20.320,0.091
20.325,0.052
20.330,0.099
20.335,0.091
20.340,0.036
20.345,0.058
20.350,0.083
20.355,0.032
20.360,0.022
20.365,0.067
20.370,0.033
20.375,-0.006
20.380,0.039
20.385,0.035
20.390,-0.019
20.395,0.007
20.400,0.036
20.405,-0.015
20.410,-0.023
20.415,0.023
20.420,-0.007
20.425,-0.040
20.430,0.009
20.435,0.006
20.440,-0.044
20.445,-0.014
20.450,0.015
20.455,-0.039
20.460,-0.047
20.465,0.001
20.470,-0.047
20.475,-0.104
20.480,-0.067
20.485,-0.074
20.490,-0.126
20.495,-0.094
20.500,-0.059
20.505,-0.107
20.510,-0.121
20.515,-0.085
20.520,-0.107
20.525,-0.117
20.530,-0.059
20.535,-0.049
20.540,-0.082
20.545,-0.046
20.550,-0.003
20.555,-0.029
20.560,-0.017
20.565,0.039
20.570,0.017
20.575,-0.006
20.580,0.045
20.585,0.041
20.590,-0.005
20.595,0.026
20.600,0.053
20.605,0.003
20.610,0.000
20.615,0.046
20.620,0.015
20.625,-0.017
20.630,0.026
20.635,0.020
20.640,-0.027
20.645,0.009
20.650,0.064
20.655,0.019
20.660,-0.122
20.665,-0.362
20.670,-0.763
20.675,-1.239
20.680,-1.566
20.685,-1.411
20.690,-0.675
20.695,0.071
20.700,0.338
20.705,0.273
20.710,0.234
20.715,0.297
20.720,0.258
20.725,0.196
20.730,0.237
20.735,0.240
20.740,0.190
20.745,0.210
20.750,0.235
20.755,0.179
20.760,0.162
20.765,0.205
20.770,0.170
20.775,0.130
20.780,0.168
20.785,0.155
20.790,0.097
20.795,0.115
20.800,0.137
20.805,0.081
20.810,0.065
20.815,0.106
20.820,0.071
20.825,0.032
20.830,0.069
20.835,0.058
20.840,0.000
20.845,0.012
20.850,0.024
20.855,-0.036
20.860,-0.056
20.865,-0.027
20.870,-0.073
20.875,-0.121
20.880,-0.090
20.885,-0.102
20.890,-0.164
20.895,-0.150
20.900,-0.129
20.905,-0.185
20.910,-0.197
20.915,-0.147
20.920,-0.167
20.925,-0.182
20.930,-0.103
20.935,-0.063
20.940,-0.067
20.945,0.002
20.950,0.075
20.955,0.071
20.960,0.105
20.965,0.185
20.970,0.180
20.975,0.163
20.980,0.222
20.985,0.233
20.990,0.192
20.995,0.219
21.000,0.245
21.005,0.194
21.010,0.182
21.015,0.223
21.020,0.187
21.025,0.142
21.030,0.179
21.035,0.174
21.040,0.121
21.045,0.137
21.050,0.157
21.055,0.103
21.060,0.091
21.065,0.133
21.070,0.102
21.075,0.065
21.080,0.101
21.085,0.093
21.090,0.042
21.095,0.060
21.100,0.083
21.105,0.036
21.110,0.028
21.115,0.069
21.120,0.036
21.125,0.000
21.130,0.042
21.135,0.036
21.140,-0.015
21.145,0.007
21.150,0.032
21.155,-0.015
21.160,-0.025
21.165,0.014
21.170,-0.015
21.175,-0.044
21.180,0.001
21.185,0.000
21.190,-0.045
21.195,-0.021
21.200,0.009
21.205,-0.036
21.210,-0.044
21.215,0.002
21.220,-0.024
21.225,-0.056
21.230,-0.012
21.235,-0.012
21.240,-0.059
21.245,-0.043
21.250,-0.031
21.255,-0.096
21.260,-0.116
21.265,-0.072
21.270,-0.095
21.275,-0.125
21.280,-0.086
21.285,-0.090
21.290,-0.143
21.295,-0.129
21.300,-0.092
21.305,-0.111
21.310,-0.097
21.315,-0.040
21.320,-0.056
21.325,-0.078
21.330,-0.023
21.335,-0.004
21.340,-0.032
21.345,0.002
21.350,0.042
21.355,0.010
21.360,0.011
21.365,0.054
21.370,0.022
21.375,-0.008
21.380,0.037
21.385,0.037
21.390,-0.010
21.395,0.010
21.400,0.038
21.405,-0.005
21.410,-0.013
21.415,0.028
21.420,-0.004
21.425,-0.035
21.430,0.023
21.435,0.047
21.440,-0.038
21.445,-0.218
21.450,-0.518
21.455,-0.949
21.460,-1.381
21.465,-1.512
21.470,-1.039
21.475,-0.215
21.480,0.314
21.485,0.408
21.490,0.316
21.495,0.280
21.500,0.286
21.505,0.204
21.510,0.171
21.515,0.221
21.520,0.198
21.525,0.159
21.530,0.192
21.535,0.192
21.540,0.147
21.545,0.160
21.550,0.180
21.555,0.129
21.560,0.112
21.565,0.149
21.570,0.115
21.575,0.069
21.580,0.106
21.585,0.109
21.590,0.057
21.595,0.067
21.600,0.089
21.605,0.041
21.610,0.027
21.615,0.059
21.620,0.021
21.625,-0.023
21.630,0.011
21.635,0.006
21.640,-0.048
21.645,-0.037
21.650,-0.029
21.655,-0.093
21.660,-0.114
21.665,-0.086
21.670,-0.127
21.675,-0.170
21.680,-0.137
21.685,-0.142
21.690,-0.199
21.695,-0.184
21.700,-0.152
21.705,-0.182
21.710,-0.160
21.715,-0.079
21.720,-0.064
21.725,-0.049
21.730,0.035
21.735,0.072
21.740,0.064
21.745,0.121
21.750,0.180
21.755,0.162
21.760,0.178
21.765,0.239
21.770,0.222
21.775,0.195
21.780,0.235
21.785,0.237
21.790,0.190
21.795,0.204
21.800,0.232
21.805,0.187
21.810,0.163
21.815,0.183
21.820,0.148
21.825,0.115
21.830,0.149
21.835,0.148
21.840,0.106
21.845,0.122
21.850,0.138
21.855,0.089
21.860,0.076
21.865,0.105
21.870,0.074
21.875,0.039
21.880,0.070
21.885,0.064
21.890,0.015
21.895,0.036
21.900,0.062
21.905,0.013
21.910,0.000
21.915,0.047
21.920,0.031
21.925,-0.013
21.930,0.010
21.935,0.022
21.940,-0.016
21.945,-0.013
21.950,0.005
21.955,-0.033
21.960,-0.032
21.965,0.010
21.970,-0.016
21.975,-0.037
21.980,0.010
21.985,0.008
21.990,-0.040
21.995,-0.019
22.000,0.010
22.005,-0.033
22.010,-0.043
22.015,-0.002
22.020,-0.029
22.025,-0.058
22.030,-0.007
22.035,-0.001
22.040,-0.057
22.045,-0.053
22.050,-0.034
22.055,-0.078
22.060,-0.095
22.065,-0.061
22.070,-0.088
22.075,-0.122
22.080,-0.088
22.085,-0.091
22.090,-0.137
22.095,-0.111
22.100,-0.065
22.105,-0.087
22.110,-0.076
22.115,-0.017
22.120,-0.020
22.125,-0.026
22.130,0.014
22.135,0.012
22.140,-0.014
22.145,0.025
22.150,0.064
22.155,0.041
22.160,0.038
22.165,0.067
22.170,0.037
22.175,0.004
22.180,0.043
22.185,0.052
22.190,0.006
22.195,0.013
22.200,0.037
22.205,0.009
22.210,0.011
22.215,0.051
22.220,0.041
22.225,0.045
22.230,0.042
22.235,-0.177
22.240,-0.563
22.245,-0.928
22.250,-1.337
22.255,-1.615
22.260,-1.180
22.265,-0.272
22.270,0.247
22.275,0.353
22.280,0.374
22.285,0.341
22.290,0.272
22.295,0.231
22.300,0.223
22.305,0.199
22.310,0.199
22.315,0.226
22.320,0.196
22.325,0.167
22.330,0.200
22.335,0.197
22.340,0.146
22.345,0.154
22.350,0.174
22.355,0.120
22.360,0.095
22.365,0.135
22.370,0.120
22.375,0.086
22.380,0.104
22.385,0.089
22.390,0.041
22.395,0.058
22.400,0.076
22.405,0.021
22.410,0.000
22.415,0.031
22.420,0.000
22.425,-0.041
22.430,-0.019
22.435,-0.027
22.440,-0.080
22.445,-0.079
22.450,-0.073
22.455,-0.131
22.460,-0.151
22.465,-0.118
22.470,-0.145
22.475,-0.180
22.480,-0.155
22.485,-0.156
22.490,-0.194
22.495,-0.169
22.500,-0.121
22.505,-0.124
22.510,-0.089
22.515,-0.011
22.520,0.008
22.525,0.026
22.530,0.099
22.535,0.136
22.540,0.126
22.545,0.169
22.550,0.213
22.555,0.189
22.560,0.192
22.565,0.230
22.570,0.206
22.575,0.178
22.580,0.208
22.585,0.204
22.590,0.161
22.595,0.174
22.600,0.191
22.605,0.144
22.610,0.129
22.615,0.159
22.620,0.135
22.625,0.101
22.630,0.123
22.635,0.121
22.640,0.078
22.645,0.081
22.650,0.099
22.655,0.059
22.660,0.047
22.665,0.078
22.670,0.050
22.675,0.014
22.680,0.038
22.685,0.035
22.690,-0.008
22.695,0.013
22.700,0.041
22.705,-0.005
22.710,-0.020
22.715,0.013
22.720,-0.011
22.725,-0.033
22.730,0.007
22.735,0.005
22.740,-0.041
22.745,-0.021
22.750,0.012
22.755,-0.027
22.760,-0.033
22.765,0.007
22.770,-0.018
22.775,-0.046
22.780,-0.009
22.785,-0.006
22.790,-0.047
22.795,-0.027
22.800,0.003
22.805,-0.038
22.810,-0.050
22.815,-0.021
22.820,-0.059
22.825,-0.107
22.830,-0.080
22.835,-0.072
22.840,-0.112
22.845,-0.094
22.850,-0.067
22.855,-0.123
22.860,-0.149
22.865,-0.101
22.870,-0.093
22.875,-0.109
22.880,-0.076
22.885,-0.054
22.890,-0.070
22.895,-0.040
22.900,-0.001
22.905,-0.021
22.910,-0.011
22.915,0.040
22.920,0.029
22.925,0.006
22.930,0.047
22.935,0.056
22.940,0.011
22.945,0.026
22.950,0.058
22.955,0.020
22.960,0.009
22.965,0.045
22.970,0.022
22.975,-0.009
22.980,0.023
22.985,0.026
22.990,-0.011
22.995,0.030
23.000,0.087
23.005,-0.022
23.010,-0.277
23.015,-0.588
23.020,-1.019
23.025,-1.490
23.030,-1.588
23.035,-1.023
23.040,-0.208
23.045,0.279
23.050,0.402
23.055,0.327
23.060,0.285
23.065,0.311
23.070,0.255
23.075,0.204
23.080,0.239
23.085,0.246
23.090,0.197
23.095,0.207
23.100,0.229
23.105,0.177
23.110,0.158
23.115,0.193
23.120,0.170
23.125,0.137
23.130,0.160
23.135,0.152
23.140,0.097
23.145,0.104
23.150,0.130
23.155,0.087
23.160,0.070
23.165,0.099
23.170,0.073
23.175,0.033
23.180,0.053
23.185,0.052
23.190,0.001
23.195,0.005
23.200,0.019
23.205,-0.033
23.210,-0.050
23.215,-0.031
23.220,-0.070
23.225,-0.114
23.230,-0.096
23.235,-0.105
23.240,-0.163
23.245,-0.159
23.250,-0.134
23.255,-0.177
23.260,-0.190
23.265,-0.146
23.270,-0.147
23.275,-0.150
23.280,-0.083
23.285,-0.035
23.290,-0.031
23.295,0.029
23.300,0.096
23.305,0.095
23.310,0.125
23.315,0.191
23.320,0.188
23.325,0.177
23.330,0.228
23.335,0.239
23.340,0.196
23.345,0.215
23.350,0.247
23.355,0.204
23.360,0.189
23.365,0.216
23.370,0.186
23.375,0.151
23.380,0.176
23.385,0.166
23.390,0.115
23.395,0.130
23.400,0.155
23.405,0.107
23.410,0.090
23.415,0.118
23.420,0.088
23.425,0.060
23.430,0.091
23.435,0.086
23.440,0.038
23.445,0.049
23.450,0.072
23.455,0.029
23.460,0.016
23.465,0.048
23.470,0.027
23.475,-0.002
23.480,0.024
23.485,0.018
23.490,-0.026
23.495,-0.002
23.500,0.026
23.505,-0.022
23.510,-0.031
23.515,0.011
23.520,-0.011
23.525,-0.046
23.530,-0.013
23.535,0.001
23.540,-0.035
23.545,-0.022
23.550,0.000
23.555,-0.037
23.560,-0.041
23.565,-0.006
23.570,-0.025
23.575,-0.051
23.580,-0.021
23.585,-0.016
23.590,-0.058
23.595,-0.043
23.600,-0.017
23.605,-0.061
23.610,-0.069
23.615,-0.041
23.620,-0.083
23.625,-0.126
23.630,-0.096
23.635,-0.092
23.640,-0.130
23.645,-0.109
23.650,-0.086
23.655,-0.140
23.660,-0.151
23.665,-0.093
23.670,-0.088
23.675,-0.108
23.680,-0.070
23.685,-0.044
23.690,-0.064
23.695,-0.033
23.700,0.010
23.705,-0.015
23.710,-0.013
23.715,0.040
23.720,0.037
23.725,0.011
23.730,0.041
23.735,0.048
23.740,0.008
23.745,0.024
23.750,0.056
23.755,0.019
23.760,0.005
23.765,0.040
23.770,0.019
23.775,-0.013
23.780,0.023
23.785,0.042
23.790,0.029
23.795,0.050
23.800,-0.059
23.805,-0.402
23.810,-0.793
23.815,-1.200
23.820,-1.609
23.825,-1.508
23.830,-0.694
23.835,0.056
23.840,0.284
23.845,0.302
23.850,0.296
23.855,0.270
23.860,0.256
23.865,0.262
23.870,0.236
23.875,0.207
23.880,0.235
23.885,0.236
23.890,0.191
23.895,0.200
23.900,0.221
23.905,0.177
23.910,0.159
23.915,0.187
23.920,0.159
23.925,0.121
23.930,0.143
23.935,0.138
23.940,0.092
23.945,0.102
23.950,0.117
23.955,0.073
23.960,0.058
23.965,0.085
23.970,0.057
23.975,0.018
23.980,0.038
23.985,0.032
23.990,-0.020
23.995,-0.018
24.000,-0.003
24.005,-0.053
24.010,-0.077
24.015,-0.061
24.020,-0.093
24.025,-0.132
24.030,-0.120
24.035,-0.128
24.040,-0.179
24.045,-0.173
24.050,-0.147
24.055,-0.178
24.060,-0.179
24.065,-0.134
24.070,-0.122
24.075,-0.102
24.080,-0.026
24.085,0.018
24.090,0.018
24.095,0.075
24.100,0.138
24.105,0.137
24.110,0.159
24.115,0.213
24.120,0.212
24.125,0.198
24.130,0.231
24.135,0.236
24.140,0.198
24.145,0.209
24.150,0.228
24.155,0.183
24.160,0.164
24.165,0.190
24.170,0.169
24.175,0.132
24.180,0.150
24.185,0.153
24.190,0.110
24.195,0.115
24.200,0.128
24.205,0.086
24.210,0.083
24.215,0.116
24.220,0.095
24.225,0.064
24.230,0.085
24.235,0.086
24.240,0.048
24.245,0.057
24.250,0.071
24.255,0.030
24.260,0.023
24.265,0.054
24.270,0.031
24.275,-0.001
24.280,0.021
24.285,0.021
24.290,-0.015
24.295,0.002
24.300,0.021
24.305,-0.018
24.310,-0.025
24.315,0.004
24.320,-0.014
24.325,-0.040
24.330,-0.012
24.335,-0.005
24.340,-0.038
24.345,-0.024
24.350,-0.002
24.355,-0.031
24.360,-0.037
24.365,-0.013
24.370,-0.036
24.375,-0.058
24.380,-0.027
24.385,-0.022
24.390,-0.056
24.395,-0.041
24.400,-0.022
24.405,-0.057
24.410,-0.067
24.415,-0.058
24.420,-0.097
24.425,-0.124
24.430,-0.096
24.435,-0.091
24.440,-0.123
24.445,-0.104
24.450,-0.085
24.455,-0.132
24.460,-0.143
24.465,-0.091
24.470,-0.083
24.475,-0.099
24.480,-0.060
24.485,-0.039
24.490,-0.062
24.495,-0.027
24.500,0.016
24.505,-0.006
24.510,-0.003
24.515,0.040
24.520,0.032
24.525,0.010
24.530,0.034
24.535,0.036
24.540,0.002
24.545,0.018
24.550,0.038
24.555,0.006
24.560,0.005
24.565,0.037
24.570,0.020
24.575,-0.003
24.580,0.027
24.585,0.040
24.590,0.035
24.595,0.046
24.600,-0.088
24.605,-0.424
24.610,-0.806
24.615,-1.222
24.620,-1.591
24.625,-1.385
24.630,-0.528
24.635,0.154
24.640,0.316
24.645,0.311
24.650,0.301
24.655,0.277
24.660,0.258
24.665,0.259
24.670,0.239
24.675,0.217
24.680,0.242
24.685,0.241
24.690,0.200
24.695,0.205
24.700,0.215
24.705,0.175
24.710,0.164
24.715,0.185
24.720,0.158
24.725,0.123
24.730,0.142
24.735,0.140
24.740,0.102
24.745,0.111
24.750,0.122
24.755,0.083
24.760,0.072
24.765,0.085
24.770,0.054
24.775,0.025
24.780,0.045
24.785,0.037
24.790,-0.012
24.795,-0.017
24.800,-0.017
24.805,-0.061
24.810,-0.075
24.815,-0.062
24.820,-0.094
24.825,-0.130
24.830,-0.120
24.835,-0.133
24.840,-0.178
24.845,-0.170
24.850,-0.154
24.855,-0.186
24.860,-0.182
24.865,-0.132
24.870,-0.115
24.875,-0.102
24.880,-0.042
24.885,0.004
24.890,0.018
24.895,0.074
24.900,0.130
24.905,0.145
24.910,0.181
24.915,0.222
24.920,0.213
24.925,0.205
24.930,0.239
24.935,0.236
24.940,0.196
24.945,0.214
24.950,0.231
24.955,0.189
24.960,0.179
24.965,0.203
24.970,0.181
24.975,0.150
24.980,0.161
24.985,0.152
24.990,0.109
24.995,0.118
25.000,0.133
25.005,0.094
25.010,0.087
25.015,0.106
25.020,0.077
25.025,0.048
25.030,0.077
25.035,0.083
25.040,0.047
25.045,0.051
25.050,0.060
25.055,0.029
25.060,0.020
25.065,0.034
25.070,0.010
25.075,-0.010
25.080,0.016
25.085,0.016
25.090,-0.017
25.095,-0.005
25.100,0.015
25.105,-0.016
25.110,-0.025
25.115,-0.004
25.120,-0.018
25.125,-0.026
25.130,-0.004
25.135,-0.008
25.140,-0.041
25.145,-0.033
25.150,-0.012
25.155,-0.038
25.160,-0.044
25.165,-0.018
25.170,-0.034
25.175,-0.054
25.180,-0.023
25.185,-0.023
25.190,-0.055
25.195,-0.035
25.200,-0.027
25.205,-0.068
25.210,-0.077
25.215,-0.070
25.220,-0.110
25.225,-0.135
25.230,-0.096
25.235,-0.087
25.240,-0.118
25.245,-0.107
25.250,-0.107
25.255,-0.154
25.260,-0.151
25.265,-0.103
25.270,-0.101
25.275,-0.111
25.280,-0.073
25.285,-0.048
25.290,-0.049
25.295,-0.017
25.300,0.000
25.305,-0.012
25.310,0.013
25.315,0.041
25.320,0.022
25.325,0.017
25.330,0.043
25.335,0.033
25.340,0.006
25.345,0.021
25.350,0.023
25.355,-0.008
25.360,0.006
25.365,0.036
25.370,0.004
25.375,-0.016
25.380,0.018
25.385,0.029
25.390,0.038
25.395,0.053
25.400,-0.105
25.405,-0.446
25.410,-0.812
25.415,-1.231
25.420,-1.589
25.425,-1.335
25.430,-0.469
25.435,0.191
25.440,0.386
25.445,0.399
25.450,0.344
25.455,0.277
25.460,0.242
25.465,0.225
25.470,0.201
25.475,0.192
25.480,0.217
25.485,0.208
25.490,0.174
25.495,0.187
25.500,0.191
25.505,0.157
25.510,0.152
25.515,0.162
25.520,0.136
25.525,0.122
25.530,0.138
25.535,0.111
25.540,0.081
25.545,0.103
25.550,0.097
25.555,0.060
25.560,0.064
25.565,0.073
25.570,0.042
25.575,0.031
25.580,0.047
25.585,0.016
25.590,-0.025
25.595,-0.013
25.600,-0.016
25.605,-0.054
25.610,-0.058
25.615,-0.055
25.620,-0.097
25.625,-0.127
25.630,-0.123
25.635,-0.140
25.640,-0.160
25.645,-0.140
25.650,-0.142
25.655,-0.171
25.660,-0.156
25.665,-0.128
25.670,-0.125
25.675,-0.092
25.680,-0.023
25.685,0.006
25.690,0.017
25.695,0.084
25.700,0.141
25.705,0.147
25.710,0.172
25.715,0.199
25.720,0.189
25.725,0.192
25.730,0.234
25.735,0.237
25.740,0.202
25.745,0.211
25.750,0.220
25.755,0.194
25.760,0.198
25.765,0.212
25.770,0.175
25.775,0.144
25.780,0.155
25.785,0.141
25.790,0.111
25.795,0.134
25.800,0.149
25.805,0.117
25.810,0.106
25.815,0.098
25.820,0.057
25.825,0.051
25.830,0.073
25.835,0.043
25.840,0.017
25.845,0.045
25.850,0.039
25.855,0.005
25.860,0.026
25.865,0.043
25.870,0.003
25.875,-0.015
25.880,0.003
25.885,-0.009
25.890,-0.027
25.895,-0.007
25.900,-0.003
25.905,-0.028
25.910,-0.017
25.915,0.003
25.920,-0.019
25.925,-0.027
25.930,-0.006
25.935,-0.024
25.940,-0.043
25.945,-0.012
25.950,-0.003
25.955,-0.029
25.960,-0.017
25.965,-0.008
25.970,-0.044
25.975,-0.045
25.980,-0.010
25.985,-0.026
25.990,-0.053
25.995,-0.041
26.000,-0.062
26.005,-0.106
26.010,-0.103
26.015,-0.095
26.020,-0.115
26.025,-0.108
26.030,-0.080
26.035,-0.110
26.040,-0.148
26.045,-0.110
26.050,-0.085
26.055,-0.111
26.060,-0.087
26.065,-0.043
26.070,-0.055
26.075,-0.055
26.080,-0.007
26.085,-0.001
26.090,-0.019
26.095,0.018
26.100,0.038
26.105,0.012
26.110,0.025
26.115,0.048
26.120,0.015
26.125,0.001
26.130,0.033
26.135,0.030
26.140,0.009
26.145,0.020
26.150,0.021
26.155,-0.006
26.160,-0.009
26.165,0.016
26.170,0.034
26.175,0.055
26.180,-0.001
26.185,-0.289
26.190,-0.698
26.195,-1.080
26.200,-1.493
26.205,-1.625
26.210,-0.988
26.215,-0.062
26.220,0.364
26.225,0.395
26.230,0.379
26.235,0.339
26.240,0.265
26.245,0.230
26.250,0.225
26.255,0.210
26.260,0.213
26.265,0.223
26.270,0.210
26.275,0.183
26.280,0.177
26.285,0.172
26.290,0.159
26.295,0.169
26.300,0.163
26.305,0.135
26.310,0.136
26.315,0.136
26.320,0.099
26.325,0.080
26.330,0.098
26.335,0.087
26.340,0.061
26.345,0.069
26.350,0.057
26.355,0.011
26.360,0.013
26.365,0.036
26.370,-0.005
26.375,-0.040
26.380,-0.023
26.385,-0.051
26.390,-0.090
26.395,-0.073
26.400,-0.090
26.405,-0.136
26.410,-0.130
26.415,-0.124
26.420,-0.171
26.425,-0.196
26.430,-0.157
26.435,-0.156
26.440,-0.188
26.445,-0.153
26.450,-0.123
26.455,-0.118
26.460,-0.053
26.465,0.015
26.470,0.022
26.475,0.049
26.480,0.126
26.485,0.163
26.490,0.166
26.495,0.210
26.500,0.232
26.505,0.211
26.510,0.218
26.515,0.238
26.520,0.226
26.525,0.215
26.530,0.228
26.535,0.199
26.540,0.165
26.545,0.200
26.550,0.208
26.555,0.155
26.560,0.143
26.565,0.160
26.570,0.132
26.575,0.117
26.580,0.135
26.585,0.107
26.590,0.084
26.595,0.104
26.600,0.079
26.605,0.051
26.610,0.079
26.615,0.083
26.620,0.040
26.625,0.027
26.630,0.047
26.635,0.029
26.640,0.000
26.645,0.027
26.650,0.030
26.655,-0.009
26.660,0.009
26.665,0.022
26.670,-0.021
26.675,-0.026
26.680,0.011
26.685,0.005
26.690,-0.018
26.695,0.001
26.700,-0.006
26.705,-0.039
26.710,-0.017
26.715,-0.002
26.720,-0.036
26.725,-0.035
26.730,0.000
26.735,-0.015
26.740,-0.040
26.745,-0.010
26.750,-0.007
26.755,-0.041
26.760,-0.026
26.765,-0.018
26.770,-0.072
26.775,-0.102
26.780,-0.078
26.785,-0.082
26.790,-0.108
26.795,-0.090
26.800,-0.077
26.805,-0.106
26.810,-0.120
26.815,-0.123
26.820,-0.133
26.825,-0.109
26.830,-0.068
26.835,-0.078
26.840,-0.090
26.845,-0.046
26.850,-0.022
26.855,-0.036
26.860,-0.010
26.865,0.031
26.870,0.016
26.875,0.006
26.880,0.040
26.885,0.029
26.890,0.000
26.895,0.026
26.900,0.032
26.905,-0.003
26.910,0.000
26.915,0.017
26.920,0.001
26.925,0.013
26.930,0.043
26.935,0.010
26.940,-0.014
26.945,0.051
26.950,0.059
26.955,-0.131
26.960,-0.439
26.965,-0.797
26.970,-1.250
26.975,-1.624
26.980,-1.444
26.985,-0.630
26.990,0.133
26.995,0.412
27.000,0.389
27.005,0.312
27.010,0.305
27.015,0.290
27.020,0.223
27.025,0.214
27.030,0.246
27.035,0.221
27.040,0.188
27.045,0.210
27.050,0.212
27.055,0.170
27.060,0.173
27.065,0.196
27.070,0.159
27.075,0.139
27.080,0.158
27.085,0.130
27.090,0.106
27.095,0.133
27.100,0.122
27.105,0.080
27.110,0.083
27.115,0.087
27.120,0.051
27.125,0.038
27.130,0.056
27.135,0.028
27.140,-0.004
27.145,0.013
27.150,0.001
27.155,-0.050
27.160,-0.058
27.165,-0.057
27.170,-0.101
27.175,-0.118
27.180,-0.094
27.185,-0.124
27.190,-0.162
27.195,-0.145
27.200,-0.160
27.205,-0.204
27.210,-0.183
27.215,-0.146
27.220,-0.155
27.225,-0.133
27.230,-0.061
27.235,-0.033
27.240,-0.018
27.245,0.054
27.250,0.106
27.255,0.115
27.260,0.166
27.265,0.212
27.270,0.190
27.275,0.199
27.280,0.245
27.285,0.217
27.290,0.192
27.295,0.241
27.300,0.241
27.305,0.193
27.310,0.203
27.315,0.216
27.320,0.173
27.325,0.161
27.330,0.183
27.335,0.152
27.340,0.120
27.345,0.143
27.350,0.140
27.355,0.105
27.360,0.112
27.365,0.122
27.370,0.079
27.375,0.064
27.380,0.089
27.385,0.057
27.390,0.027
27.395,0.062
27.400,0.062
27.405,0.023
27.410,0.034
27.415,0.048
27.420,0.004
27.425,-0.005
27.430,0.032
27.435,0.008
27.440,-0.020
27.445,0.015
27.450,0.012
27.455,-0.027
27.460,-0.009
27.465,0.014
27.470,-0.024
27.475,-0.032
27.480,0.001
27.485,-0.024
27.490,-0.047
27.495,-0.013
27.500,-0.011
27.505,-0.044
27.510,-0.032
27.515,-0.011
27.520,-0.041
27.525,-0.045
27.530,-0.008
27.535,-0.042
27.540,-0.093
27.545,-0.079
27.550,-0.086
27.555,-0.120
27.560,-0.103
27.565,-0.075
27.570,-0.104
27.575,-0.127
27.580,-0.113
27.585,-0.124
27.590,-0.122
27.595,-0.076
27.600,-0.069
27.605,-0.093
27.610,-0.068
27.615,-0.027
27.620,-0.030
27.625,-0.014
27.630,0.030
27.635,0.023
27.640,0.007
27.645,0.038
27.650,0.044
27.655,0.018
27.660,0.029
27.665,0.042
27.670,0.008
27.675,0.002
27.680,0.031
27.685,0.012
27.690,-0.005
27.695,0.023
27.700,0.019
27.705,-0.010
27.710,0.024
27.715,0.073
27.720,-0.026
27.725,-0.291
27.730,-0.625
27.735,-1.053
27.740,-1.520
27.745,-1.644
27.750,-1.076
27.755,-0.193
27.760,0.329
27.765,0.424
27.770,0.330
27.775,0.281
27.780,0.306
27.785,0.252
27.790,0.206
27.795,0.242
27.800,0.237
27.805,0.198
27.810,0.209
27.815,0.218
27.820,0.177
27.825,0.163
27.830,0.188
27.835,0.170
27.840,0.143
27.845,0.164
27.850,0.154
27.855,0.113
27.860,0.117
27.865,0.125
27.870,0.083
27.875,0.068
27.880,0.097
27.885,0.064
27.890,0.021
27.895,0.045
27.900,0.038
27.905,-0.011
27.910,-0.004
27.915,0.004
27.920,-0.044
27.925,-0.061
27.930,-0.040
27.935,-0.079
27.940,-0.123
27.945,-0.106
27.950,-0.120
27.955,-0.175
27.960,-0.171
27.965,-0.153
27.970,-0.191
27.975,-0.194
27.980,-0.155
27.985,-0.169
27.990,-0.168
27.995,-0.095
28.000,-0.046
28.005,-0.036
28.010,0.022
28.015,0.087
28.020,0.094
28.025,0.129
28.030,0.199
28.035,0.201
28.040,0.192
28.045,0.233
28.050,0.234
28.055,0.199
28.060,0.222
28.065,0.248
28.070,0.203
28.075,0.190
28.080,0.221
28.085,0.190
28.090,0.155
28.095,0.181
28.100,0.174
28.105,0.128
28.110,0.139
28.115,0.157
28.120,0.113
28.125,0.096
28.130,0.122
28.135,0.095
28.140,0.069
28.145,0.100
28.150,0.090
28.155,0.040
28.160,0.051
28.165,0.074
28.170,0.034
28.175,0.024
28.180,0.057
28.185,0.032
28.190,0.002
28.195,0.033
28.200,0.029
28.205,-0.015
28.210,0.002
28.215,0.029
28.220,-0.011
28.225,-0.022
28.230,0.010
28.235,-0.018
28.240,-0.042
28.245,0.000
28.250,0.005
28.255,-0.036
28.260,-0.024
28.265,0.001
28.270,-0.029
28.275,-0.033
28.280,-0.003
28.285,-0.028
28.290,-0.057
28.295,-0.029
28.300,-0.024
28.305,-0.071
28.310,-0.079
28.315,-0.072
28.320,-0.116
28.325,-0.115
28.330,-0.067
28.335,-0.091
28.340,-0.122
28.345,-0.096
28.350,-0.111
28.355,-0.143
28.360,-0.096
28.365,-0.057
28.370,-0.088
28.375,-0.073
28.380,-0.019
28.385,-0.034
28.390,-0.038
28.395,0.020
28.400,0.028
28.405,-0.004
28.410,0.027
28.415,0.060
28.420,0.020
28.425,0.012
28.430,0.050
28.435,0.027
28.440,-0.001
28.445,0.032
28.450,0.030
28.455,-0.011
28.460,0.009
28.465,0.042
28.470,0.006
28.475,0.000
28.480,0.051
28.485,0.051
28.490,-0.013
28.495,-0.186
28.500,-0.530
28.505,-0.971
28.510,-1.402
28.515,-1.635
28.520,-1.269
28.525,-0.382
28.530,0.258
28.535,0.381
28.540,0.324
28.545,0.314
28.550,0.302
28.555,0.236
28.560,0.231
28.565,0.257
28.570,0.219
28.575,0.210
28.580,0.245
28.585,0.210
28.590,0.173
28.595,0.205
28.600,0.199
28.605,0.147
28.610,0.153
28.615,0.173
28.620,0.127
28.625,0.109
28.630,0.143
28.635,0.115
28.640,0.075
28.645,0.103
28.650,0.096
28.655,0.039
28.660,0.048
28.665,0.072
28.670,0.024
28.675,0.005
28.680,0.030
28.685,-0.007
28.690,-0.051
28.695,-0.030
28.700,-0.043
28.705,-0.098
28.710,-0.096
28.715,-0.086
28.720,-0.143
28.725,-0.160
28.730,-0.129
28.735,-0.164
28.740,-0.201
28.745,-0.168
28.750,-0.163
28.755,-0.192
28.760,-0.150
28.765,-0.090
28.770,-0.093
28.775,-0.054
28.780,0.033
28.785,0.052
28.790,0.065
28.795,0.139
28.800,0.175
28.805,0.161
28.810,0.198
28.815,0.241
28.820,0.208
28.825,0.204
28.830,0.246
28.835,0.216
28.840,0.180
28.845,0.212
28.850,0.208
28.855,0.161
28.860,0.173
28.865,0.191
28.870,0.139
28.875,0.125
28.880,0.159
28.885,0.124
28.890,0.086
28.895,0.119
28.900,0.117
28.905,0.071
28.910,0.086
28.915,0.111
28.920,0.065
28.925,0.049
28.930,0.085
28.935,0.056
28.940,0.020
28.945,0.052
28.950,0.048
28.955,0.003
28.960,0.020
28.965,0.041
28.970,-0.004
28.975,-0.014
28.980,0.024
28.985,-0.001
28.990,-0.031
28.995,0.007
29.000,0.006
29.005,-0.040
29.010,-0.019
29.015,0.014
29.020,-0.027
29.025,-0.038
29.030,0.007
29.035,-0.013
29.040,-0.046
29.045,-0.012
29.050,-0.008
29.055,-0.050
29.060,-0.030
29.065,-0.001
29.070,-0.047
29.075,-0.056
29.080,-0.019
29.085,-0.059
29.090,-0.110
29.095,-0.086
29.100,-0.086
29.105,-0.129
29.110,-0.110
29.115,-0.077
29.120,-0.116
29.125,-0.131
29.130,-0.103
29.135,-0.119
29.140,-0.119
29.145,-0.067
29.150,-0.063
29.155,-0.092
29.160,-0.055
29.165,-0.013
29.170,-0.035
29.175,-0.021
29.180,0.031
29.185,0.016
29.190,-0.002
29.195,0.041
29.200,0.044
29.205,0.001
29.210,0.020
29.215,0.049
29.220,0.008
29.225,0.003
29.230,0.046
29.235,0.018
29.240,-0.013
29.245,0.025
29.250,0.025
29.255,-0.014
29.260,0.029
29.265,0.082
29.270,-0.029
29.275,-0.276
29.280,-0.583
29.285,-1.020
29.290,-1.496
29.295,-1.589
29.300,-1.016
29.305,-0.205
29.310,0.253
29.315,0.339
29.320,0.262
29.325,0.241
29.330,0.281
29.335,0.233
29.340,0.193
29.345,0.238
29.350,0.248
29.355,0.204
29.360,0.219
29.365,0.240
29.370,0.194
29.375,0.187
29.380,0.221
29.385,0.189
29.390,0.149
29.395,0.173
29.400,0.166
29.405,0.110
29.410,0.120
29.415,0.143
29.420,0.089
29.425,0.074
29.430,0.113
29.435,0.085
29.440,0.041
29.445,0.061
29.450,0.051
29.455,0.000
29.460,0.017
29.465,0.031
29.470,-0.038
29.475,-0.062
29.480,-0.034
29.485,-0.073
29.490,-0.118
29.495,-0.093
29.500,-0.107
29.505,-0.180
29.510,-0.173
29.515,-0.135
29.520,-0.185
29.525,-0.201
29.530,-0.154
29.535,-0.168
29.540,-0.176
29.545,-0.104
29.550,-0.059
29.555,-0.051
29.560,0.026
29.565,0.099
29.570,0.084
29.575,0.113
29.580,0.197
29.585,0.198
29.590,0.184
29.595,0.241
29.600,0.248
29.605,0.196
29.610,0.221
29.615,0.258
29.620,0.213
29.625,0.198
29.630,0.229
29.635,0.184
29.640,0.133
29.645,0.173
29.650,0.184
29.655,0.124
29.660,0.131
29.665,0.154
29.670,0.095
29.675,0.083
29.680,0.134
29.685,0.109
29.690,0.068
29.695,0.096
29.700,0.089
29.705,0.031
29.710,0.048
29.715,0.084
29.720,0.035
29.725,0.025
29.730,0.062
29.735,0.026
29.740,-0.006
29.745,0.031
29.750,0.029
29.755,-0.014
29.760,0.008
29.765,0.033
29.770,-0.018
29.775,-0.028
29.780,0.018
29.785,-0.003
29.790,-0.043
29.795,-0.012
29.800,-0.011
29.805,-0.058
29.810,-0.035
29.815,-0.005
29.820,-0.050
29.825,-0.049
29.830,0.001
29.835,-0.028
29.840,-0.068
29.845,-0.024
29.850,-0.014
29.855,-0.067
29.860,-0.052
29.865,-0.019
29.870,-0.061
29.875,-0.067
29.880,-0.014
29.885,-0.039
29.890,-0.082
29.895,-0.048
29.900,-0.055
29.905,-0.120
29.910,-0.104
29.915,-0.068
29.920,-0.112
29.925,-0.121
29.930,-0.077
29.935,-0.114
29.940,-0.165
29.945,-0.132
29.950,-0.118
29.955,-0.146
29.960,-0.107
29.965,-0.054
29.970,-0.079
29.975,-0.072
29.980,-0.006
29.985,-0.008
29.990,-0.036
29.995,0.008
30.000,0.030
30.005,-0.006
30.010,0.017
30.015,0.053
30.020,0.008
30.025,0.002
30.030,0.053
30.035,0.024
30.040,-0.015
30.045,0.029
30.050,0.036
30.055,-0.021
30.060,-0.006
30.065,0.036
30.070,0.000
30.075,-0.003
30.080,0.063
30.085,0.046
30.090,-0.115
30.095,-0.364
30.100,-0.715
30.105,-1.186
30.110,-1.556
30.115,-1.418
30.120,-0.707
30.125,0.050
30.130,0.409
30.135,0.398
30.140,0.308
30.145,0.329
30.150,0.299
30.155,0.200
30.160,0.209
30.165,0.247
30.170,0.211
30.175,0.204
30.180,0.225
30.185,0.185
30.190,0.159
30.195,0.208
30.200,0.206
30.205,0.138
30.210,0.152
30.215,0.177
30.220,0.117
30.225,0.101
30.230,0.132
30.235,0.095
30.240,0.074
30.245,0.121
30.250,0.108
30.255,0.039
30.260,0.050
30.265,0.073
30.270,0.018
30.275,0.005
30.280,0.046
30.285,0.013
30.290,-0.034
30.295,-0.010
30.300,-0.026
30.305,-0.098
30.310,-0.093
30.315,-0.071
30.320,-0.129
30.325,-0.157
30.330,-0.123
30.335,-0.151
30.340,-0.200
30.345,-0.169
30.350,-0.154
30.355,-0.180
30.360,-0.125
30.365,-0.062
30.370,-0.078
30.375,-0.046
30.380,0.041
30.385,0.060
30.390,0.067
30.395,0.148
30.400,0.192
30.405,0.149
30.410,0.180
30.415,0.238
30.420,0.190
30.425,0.184
30.430,0.244
30.435,0.207
30.440,0.162
30.445,0.207
30.450,0.200
30.455,0.134
30.460,0.150
30.465,0.179
30.470,0.120
30.475,0.102
30.480,0.142
30.485,0.107
30.490,0.068
30.495,0.115
30.500,0.117
30.505,0.052
30.510,0.064
30.515,0.098
30.520,0.041
30.525,0.018
30.530,0.066
30.535,0.044
30.540,0.001
30.545,0.042
30.550,0.047
30.555,-0.012
30.560,0.013
30.565,0.053
30.570,-0.001
30.575,-0.016
30.580,0.032
30.585,0.005
30.590,-0.038
30.595,0.006
30.600,0.018
30.605,-0.036
30.610,-0.017
30.615,0.019
30.620,-0.035
30.625,-0.050
30.630,0.003
30.635,-0.011
30.640,-0.051
30.645,-0.017
30.650,-0.007
30.655,-0.055
30.660,-0.033
30.665,0.005
30.670,-0.043
30.675,-0.052
30.680,0.004
30.685,-0.015
30.690,-0.064
30.695,-0.044
30.700,-0.055
30.705,-0.119
30.710,-0.100
30.715,-0.063
30.720,-0.110
30.725,-0.117
30.730,-0.068
30.735,-0.108
30.740,-0.156
30.745,-0.091
30.750,-0.056
30.755,-0.102
30.760,-0.071
30.765,-0.018
30.770,-0.052
30.775,-0.043
30.780,0.028
30.785,0.020
30.790,-0.013
30.795,0.040
30.800,0.065
30.805,0.012
30.810,0.028
30.815,0.070
30.820,0.020
30.825,0.008
30.830,0.065
30.835,0.041
30.840,-0.005
30.845,0.037
30.850,0.049
30.855,-0.010
30.860,0.006
30.865,0.048
30.870,0.017
30.875,0.038
30.880,0.033
30.885,-0.234
30.890,-0.633
30.895,-1.008
30.900,-1.455
30.905,-1.686
30.910,-1.119
30.915,-0.171
30.920,0.281
30.925,0.349
30.930,0.356
30.935,0.297
30.940,0.246
30.945,0.265
30.950,0.266
30.955,0.216
30.960,0.239
30.965,0.272
30.970,0.214
30.975,0.194
30.980,0.237
30.985,0.207
30.990,0.159
30.995,0.195
31.000,0.198
31.005,0.133
31.010,0.143
31.015,0.174
31.020,0.115
31.025,0.092
31.030,0.138
31.035,0.110
31.040,0.060
31.045,0.093
31.050,0.092
31.055,0.025
31.060,0.036
31.065,0.065
31.070,0.000
31.075,-0.024
31.080,0.022
31.085,-0.019
31.090,-0.083
31.095,-0.052
31.100,-0.058
31.105,-0.142
31.110,-0.142
31.115,-0.112
31.120,-0.163
31.125,-0.186
31.130,-0.157
31.135,-0.181
31.140,-0.212
31.145,-0.161
31.150,-0.113
31.155,-0.123
31.160,-0.075
31.165,0.009
31.170,0.025
31.175,0.062
31.180,0.154
31.185,0.168
31.190,0.154
31.195,0.222
31.200,0.254
31.205,0.208
31.210,0.232
31.215,0.273
31.220,0.222
31.225,0.207
31.230,0.258
31.235,0.228
31.240,0.170
31.245,0.206
31.250,0.214
31.255,0.147
31.260,0.158
31.265,0.191
31.270,0.129
31.275,0.104
31.280,0.148
31.285,0.121
31.290,0.077
31.295,0.112
31.300,0.117
31.305,0.054
31.310,0.063
31.315,0.098
31.320,0.043
31.325,0.023
31.330,0.074
31.335,0.049
31.340,-0.004
31.345,0.038
31.350,0.050
31.355,-0.017
31.360,0.000
31.365,0.041
31.370,-0.011
31.375,-0.025
31.380,0.027
31.385,0.000
31.390,-0.046
31.395,0.000
31.400,0.013
31.405,-0.047
31.410,-0.029
31.415,0.013
31.420,-0.037
31.425,-0.056
31.430,-0.005
31.435,-0.020
31.440,-0.061
31.445,-0.019
31.450,-0.007
31.455,-0.068
31.460,-0.056
31.465,-0.015
31.470,-0.056
31.475,-0.075
31.480,-0.039
31.485,-0.083
31.490,-0.143
31.495,-0.099
31.500,-0.082
31.505,-0.136
31.510,-0.118
31.515,-0.081
31.520,-0.141
31.525,-0.174
31.530,-0.113
31.535,-0.101
31.540,-0.131
31.545,-0.078
31.550,-0.041
31.555,-0.083
31.560,-0.054
31.565,0.009
31.570,-0.025
31.575,-0.036
31.580,0.029
31.585,0.022
31.590,-0.018
31.595,0.034
31.600,0.053
31.605,-0.008
31.610,0.008
31.615,0.051
31.620,0.004
31.625,-0.014
31.630,0.034
31.635,0.014
31.640,-0.028
31.645,0.021
31.650,0.034
31.655,-0.022
31.660,0.022
31.665,0.056
31.670,-0.160
31.675,-0.495
31.680,-0.817
31.685,-1.270
31.690,-1.640
31.695,-1.311
31.700,-0.435
31.705,0.167
31.710,0.371
31.715,0.383
31.720,0.275
31.725,0.244
31.730,0.274
31.735,0.224
31.740,0.174
31.745,0.220
31.750,0.233
31.755,0.168
31.760,0.182
31.765,0.218
31.770,0.162
31.775,0.140
31.780,0.185
31.785,0.157
31.790,0.103
31.795,0.140
31.800,0.150
31.805,0.082
31.810,0.092
31.815,0.132
31.820,0.077
31.825,0.050
31.830,0.097
31.835,0.071
31.840,0.010
31.845,0.045
31.850,0.055
31.855,-0.019
31.860,-0.015
31.865,0.019
31.870,-0.042
31.875,-0.079
31.880,-0.045
31.885,-0.079
31.890,-0.142
31.895,-0.109
31.900,-0.100
31.905,-0.173
31.910,-0.168
31.915,-0.129
31.920,-0.180
31.925,-0.197
31.930,-0.134
31.935,-0.138
31.940,-0.162
31.945,-0.083
31.950,-0.019
31.955,-0.029
31.960,0.029
31.965,0.112
31.970,0.104
31.975,0.119
31.980,0.202
31.985,0.208
31.990,0.176
31.995,0.229
32.000,0.250
32.005,0.193
32.010,0.212
32.015,0.250
32.020,0.191
32.025,0.168
32.030,0.220
32.035,0.197
32.040,0.140
32.045,0.176
32.050,0.186
32.055,0.118
32.060,0.126
32.065,0.162
32.070,0.105
32.075,0.075
32.080,0.125
32.085,0.101
32.090,0.043
32.095,0.085
32.100,0.101
32.105,0.030
32.110,0.041
32.115,0.085
32.120,0.032
32.125,0.010
32.130,0.058
32.135,0.034
32.140,-0.016
32.145,0.024
32.150,0.038
32.155,-0.024
32.160,-0.006
32.165,0.041
32.170,-0.011
32.175,-0.036
32.180,0.021
32.185,0.009
32.190,-0.043
32.195,-0.003
32.200,0.019
32.205,-0.039
32.210,-0.025
32.215,0.018
32.220,-0.031
32.225,-0.048
32.230,0.007
32.235,-0.012
32.240,-0.063
32.245,-0.018
32.250,-0.001
32.255,-0.068
32.260,-0.055
32.265,-0.021
32.270,-0.091
32.275,-0.119
32.280,-0.069
32.285,-0.090
32.290,-0.138
32.295,-0.090
32.300,-0.069
32.305,-0.141
32.310,-0.143
32.315,-0.087
32.320,-0.107
32.325,-0.114
32.330,-0.049
32.335,-0.049
32.340,-0.088
32.345,-0.028
32.350,0.018
32.355,-0.027
32.360,-0.007
32.365,0.052
32.370,0.018
32.375,0.000
32.380,0.056
32.385,0.042
32.390,-0.009
32.395,0.035
32.400,0.057
32.405,-0.005
32.410,0.008
32.415,0.056
32.420,0.007
32.425,-0.019
32.430,0.039
32.435,0.028
32.440,-0.009
32.445,0.062
32.450,0.028
32.455,-0.266
32.460,-0.594
32.465,-0.945
32.470,-1.428
32.475,-1.603
32.480,-1.004
32.485,-0.163
32.490,0.230
32.495,0.330
32.500,0.306
32.505,0.226
32.510,0.246
32.515,0.268
32.520,0.204
32.525,0.183
32.530,0.240
32.535,0.222
32.540,0.165
32.545,0.203
32.550,0.216
32.555,0.145
32.560,0.152
32.565,0.194
32.570,0.138
32.575,0.106
32.580,0.157
32.585,0.135
32.590,0.073
32.595,0.108
32.600,0.119
32.605,0.050
32.610,0.059
32.615,0.100
32.620,0.043
32.625,0.009
32.630,0.054
32.635,0.029
32.640,-0.031
32.645,0.001
32.650,0.004
32.655,-0.069
32.660,-0.066
32.665,-0.037
32.670,-0.102
32.675,-0.138
32.680,-0.096
32.685,-0.124
32.690,-0.188
32.695,-0.150
32.700,-0.130
32.705,-0.196
32.710,-0.183
32.715,-0.124
32.720,-0.152
32.725,-0.143
32.730,-0.044
32.735,-0.021
32.740,-0.035
32.745,0.054
32.750,0.117
32.755,0.087
32.760,0.134
32.765,0.216
32.770,0.190
32.775,0.180
32.780,0.250
32.785,0.242
32.790,0.182
32.795,0.220
32.800,0.244
32.805,0.176
32.810,0.175
32.815,0.221
32.820,0.177
32.825,0.139
32.830,0.185
32.835,0.166
32.840,0.098
32.845,0.135
32.850,0.152
32.855,0.079
32.860,0.083
32.865,0.128
32.870,0.080
32.875,0.051
32.880,0.101
32.885,0.081
32.890,0.020
32.895,0.057
32.900,0.078
32.905,0.012
32.910,0.019
32.915,0.068
32.920,0.018
32.925,-0.011
32.930,0.045
32.935,0.029
32.940,-0.032
32.945,0.012
32.950,0.041
32.955,-0.025
32.960,-0.021
32.965,0.031
32.970,-0.012
32.975,-0.040
32.980,0.016
32.985,0.005
32.990,-0.051
32.995,-0.010
33.000,0.017
33.005,-0.042
33.010,-0.036
33.015,0.009
33.020,-0.038
33.025,-0.061
33.030,0.003
33.035,-0.009
33.040,-0.067
33.045,-0.024
33.050,0.001
33.055,-0.063
33.060,-0.062
33.065,-0.032
33.070,-0.096
33.075,-0.135
33.080,-0.078
33.085,-0.084
33.090,-0.139
33.095,-0.094
33.100,-0.066
33.105,-0.143
33.110,-0.144
33.115,-0.077
33.120,-0.093
33.125,-0.109
33.130,-0.042
33.135,-0.037
33.140,-0.084
33.145,-0.022
33.150,0.027
33.155,-0.025
33.160,-0.006
33.165,0.058
33.170,0.020
33.175,-0.005
33.180,0.057
33.185,0.045
33.190,-0.014
33.195,0.031
33.200,0.061
33.205,-0.003
33.210,0.003
33.215,0.054
33.220,0.010
33.225,-0.024
33.230,0.033
33.235,0.034
33.240,0.001
33.245,0.056
33.250,-0.018
33.255,-0.344
33.260,-0.687
33.265,-1.051
33.270,-1.486
33.275,-1.460
33.280,-0.688
33.285,0.061
33.290,0.286
33.295,0.320
33.300,0.296
33.305,0.231
33.310,0.240
33.315,0.262
33.320,0.208
33.325,0.182
33.330,0.238
33.335,0.227
33.340,0.163
33.345,0.199
33.350,0.218
33.355,0.141
33.360,0.139
33.365,0.182
33.370,0.130
33.375,0.094
33.380,0.145
33.385,0.129
33.390,0.065
33.395,0.101
33.400,0.123
33.405,0.053
33.410,0.052
33.415,0.095
33.420,0.042
33.425,0.003
33.430,0.055
33.435,0.038
33.440,-0.033
33.445,-0.006
33.450,0.012
33.455,-0.066
33.460,-0.078
33.465,-0.036
33.470,-0.091
33.475,-0.140
33.480,-0.096
33.485,-0.115
33.490,-0.185
33.495,-0.157
33.500,-0.134
33.505,-0.196
33.510,-0.189
33.515,-0.122
33.520,-0.134
33.525,-0.128
33.530,-0.033
33.535,-0.003
33.540,-0.024
33.545,0.058
33.550,0.126
33.555,0.096
33.560,0.134
33.565,0.212
33.570,0.190
33.575,0.169
33.580,0.227
33.585,0.227
33.590,0.180
33.595,0.222
33.600,0.243
33.605,0.177
33.610,0.179
33.615,0.216
33.620,0.169
33.625,0.138
33.630,0.181
33.635,0.160
33.640,0.093
33.645,0.123
33.650,0.147
33.655,0.082
33.660,0.079
33.665,0.129
33.670,0.082
33.675,0.038
33.680,0.098
33.685,0.095
33.690,0.022
33.695,0.051
33.700,0.079
33.705,0.018
33.710,0.014
33.715,0.053
33.720,0.012
33.725,-0.011
33.730,0.045
33.735,0.028
33.740,-0.039
33.745,-0.001
33.750,0.030
33.755,-0.033
33.760,-0.035
33.765,0.016
33.770,-0.018
33.775,-0.036
33.780,0.024
33.785,0.005
33.790,-0.063
33.795,-0.025
33.800,0.011
33.805,-0.044
33.810,-0.046
33.815,0.005
33.820,-0.031
33.825,-0.065
33.830,-0.009
33.835,-0.013
33.840,-0.077
33.845,-0.048
33.850,-0.030
33.855,-0.111
33.860,-0.123
33.865,-0.066
33.870,-0.098
33.875,-0.136
33.880,-0.085
33.885,-0.090
33.890,-0.157
33.895,-0.132
33.900,-0.094
33.905,-0.130
33.910,-0.112
33.915,-0.042
33.920,-0.053
33.925,-0.068
33.930,0.002
33.935,0.016
33.940,-0.040
33.945,-0.002
33.950,0.046
33.955,0.003
33.960,0.016
33.965,0.072
33.970,0.030
33.975,-0.010
33.980,0.039
33.985,0.028
33.990,-0.032
33.995,0.016
34.000,0.050
34.005,-0.009
34.010,-0.003
34.015,0.046
34.020,0.008
34.025,-0.008
34.030,0.072
34.035,-0.007
34.040,-0.315
34.045,-0.617
34.050,-0.978
34.055,-1.447
34.060,-1.455
34.065,-0.735
34.070,-0.009
34.075,0.290
34.080,0.384
34.085,0.338
34.090,0.251
34.095,0.257
34.100,0.243
34.105,0.165
34.110,0.165
34.115,0.219
34.120,0.182
34.125,0.141
34.130,0.179
34.135,0.169
34.140,0.116
34.145,0.148
34.150,0.169
34.155,0.101
34.160,0.096
34.165,0.145
34.170,0.103
34.175,0.060
34.180,0.104
34.185,0.096
34.190,0.032
34.195,0.057
34.200,0.080
34.205,0.017
34.210,0.005
34.215,0.043
34.220,0.002
34.225,-0.036
34.230,0.011
34.235,-0.005
34.240,-0.073
34.245,-0.050
34.250,-0.040
34.255,-0.116
34.260,-0.123
34.265,-0.073
34.270,-0.116
34.275,-0.162
34.280,-0.118
34.285,-0.132
34.290,-0.189
34.295,-0.136
34.300,-0.091
34.305,-0.132
34.310,-0.110
34.315,-0.033
34.320,-0.039
34.325,-0.038
34.330,0.069
34.335,0.114
34.340,0.088
34.345,0.150
34.350,0.204
34.355,0.170
34.360,0.189
34.365,0.249
34.370,0.214
34.375,0.176
34.380,0.226
34.385,0.213
34.390,0.152
34.395,0.193
34.400,0.217
34.405,0.148
34.410,0.137
34.415,0.173
34.420,0.129
34.425,0.093
34.430,0.153
34.435,0.152
34.440,0.077
34.445,0.098
34.450,0.120
34.455,0.048
34.460,0.040
34.465,0.090
34.470,0.047
34.475,0.005
34.480,0.061
34.485,0.059
34.490,-0.005
34.495,0.024
34.500,0.049
34.505,-0.013
34.510,-0.011
34.515,0.045
34.520,0.003
34.525,-0.034
34.530,0.029
34.535,0.026
34.540,-0.040
34.545,-0.010
34.550,0.024
34.555,-0.031
34.560,-0.030
34.565,0.031
34.570,-0.001
34.575,-0.044
34.580,0.010
34.585,0.014
34.590,-0.045
34.595,-0.016
34.600,0.016
34.605,-0.042
34.610,-0.046
34.615,0.012
34.620,-0.023
34.625,-0.069
34.630,-0.017
34.635,-0.021
34.640,-0.097
34.645,-0.084
34.650,-0.062
34.655,-0.122
34.660,-0.116
34.665,-0.052
34.670,-0.088
34.675,-0.141
34.680,-0.108
34.685,-0.112
34.690,-0.148
34.695,-0.093
34.700,-0.057
34.705,-0.098
34.710,-0.074
34.715,-0.004
34.720,-0.012
34.725,-0.024
34.730,0.031
34.735,0.035
34.740,-0.004
34.745,0.030
34.750,0.048
34.755,-0.016
34.760,-0.012
34.765,0.059
34.770,0.033
34.775,-0.007
34.780,0.046
34.785,0.044
34.790,-0.015
34.795,0.016
34.800,0.045
34.805,-0.011
34.810,-0.003
34.815,0.084
34.820,0.062
34.825,-0.115
34.830,-0.369
34.835,-0.739
34.840,-1.223
34.845,-1.577
34.850,-1.408
34.855,-0.668
34.860,0.082
34.865,0.411
34.870,0.379
34.875,0.295
34.880,0.329
34.885,0.297
34.890,0.196
34.895,0.218
34.900,0.255
34.905,0.195
34.910,0.185
34.915,0.233
34.920,0.193
34.925,0.149
34.930,0.194
34.935,0.185
34.940,0.117
34.945,0.140
34.950,0.169
34.955,0.112
34.960,0.100
34.965,0.150
34.970,0.110
34.975,0.056
34.980,0.102
34.985,0.094
34.990,0.022
34.995,0.044
35.000,0.073
35.005,0.012
35.010,-0.005
35.015,0.034
35.020,-0.014
35.025,-0.065
35.030,-0.023
35.035,-0.036
35.040,-0.108
35.045,-0.088
35.050,-0.069
35.055,-0.142
35.060,-0.157
35.065,-0.106
35.070,-0.144
35.075,-0.190
35.080,-0.133
35.085,-0.123
35.090,-0.173
35.095,-0.121
35.100,-0.050
35.105,-0.063
35.110,-0.027
35.115,0.064
35.120,0.073
35.125,0.074
35.130,0.160
35.135,0.189
35.140,0.151
35.145,0.196
35.150,0.242
35.155,0.195
35.160,0.190
35.165,0.240
35.170,0.207
35.175,0.166
35.180,0.214
35.185,0.210
35.190,0.145
35.195,0.166
35.200,0.195
35.205,0.132
35.210,0.111
35.215,0.158
35.220,0.123
35.225,0.075
35.230,0.120
35.235,0.119
35.240,0.056
35.245,0.077
35.250,0.104
35.255,0.041
35.260,0.025
35.265,0.077
35.270,0.048
35.275,-0.001
35.280,0.042
35.285,0.045
35.290,-0.016
35.295,0.006
35.300,0.042
35.305,-0.009
35.310,-0.019
35.315,0.031
35.320,-0.001
35.325,-0.041
35.330,0.013
35.335,0.018
35.340,-0.039
35.345,-0.013
35.350,0.022
35.355,-0.029
35.360,-0.033
35.365,0.021
35.370,-0.013
35.375,-0.058
35.380,-0.006
35.385,-0.002
35.390,-0.059
35.395,-0.025
35.400,0.013
35.405,-0.046
35.410,-0.058
35.415,-0.006
35.420,-0.032
35.425,-0.064
35.430,-0.004
35.435,-0.001
35.440,-0.068
35.445,-0.059
35.450,-0.049
35.455,-0.126
35.460,-0.139
35.465,-0.068
35.470,-0.089
35.475,-0.133
35.480,-0.082
35.485,-0.087
35.490,-0.160
35.495,-0.125
35.500,-0.066
35.505,-0.108
35.510,-0.107
35.515,-0.028
35.520,-0.043
35.525,-0.079
35.530,-0.001
35.535,0.027
35.540,-0.027
35.545,0.010
35.550,0.059
35.555,0.012
35.560,0.003
35.565,0.063
35.570,0.042
35.575,-0.005
35.580,0.040
35.585,0.052
35.590,-0.005
35.595,0.016
35.600,0.048
35.605,-0.001
35.610,-0.008
35.615,0.049
35.620,0.034
35.625,0.016
35.630,0.017
35.635,-0.208
35.640,-0.616
35.645,-0.982
35.650,-1.378
35.655,-1.624
35.660,-1.154
35.665,-0.228
35.670,0.271
35.675,0.343
35.680,0.371
35.685,0.341
35.690,0.264
35.695,0.255
35.700,0.270
35.705,0.215
35.710,0.196
35.715,0.247
35.720,0.215
35.725,0.161
35.730,0.212
35.735,0.220
35.740,0.151
35.745,0.162
35.750,0.187
35.755,0.122
35.760,0.103
35.765,0.158
35.770,0.126
35.775,0.075
35.780,0.124
35.785,0.121
35.790,0.050
35.795,0.070
35.800,0.093
35.805,0.023
35.810,0.006
35.815,0.059
35.820,0.019
35.825,-0.044
35.830,-0.008
35.835,-0.013
35.840,-0.089
35.845,-0.080
35.850,-0.055
35.855,-0.125
35.860,-0.152
35.865,-0.108
35.870,-0.143
35.875,-0.190
35.880,-0.146
35.885,-0.150
35.890,-0.209
35.895,-0.167
35.900,-0.105
35.905,-0.132
35.910,-0.107
35.915,-0.006
35.920,0.012
35.925,0.015
35.930,0.107
35.935,0.144
35.940,0.114
35.945,0.174
35.950,0.236
35.955,0.195
35.960,0.192
35.965,0.258
35.970,0.232
35.975,0.178
35.980,0.220
35.985,0.222
35.990,0.154
35.995,0.174
36.000,0.209
36.005,0.144
36.010,0.120
36.015,0.182
36.020,0.160
36.025,0.099
36.030,0.130
36.035,0.122
36.040,0.049
36.045,0.068
36.050,0.113
36.055,0.072
36.060,0.069
36.065,0.124
36.070,0.083
36.075,0.020
36.080,0.061
36.085,0.070
36.090,0.004
36.095,0.008
36.100,0.039
36.105,0.000
36.110,-0.007
36.115,0.046
36.120,0.019
36.125,-0.034
36.130,0.004
36.135,0.016
36.140,-0.030
36.145,-0.015
36.150,0.014
36.155,-0.028
36.160,-0.040
36.165,0.012
36.170,-0.007
36.175,-0.049
36.180,-0.005
36.185,0.003
36.190,-0.052
36.195,-0.029
36.200,0.008
36.205,-0.040
36.210,-0.051
36.215,0.003
36.220,-0.015
36.225,-0.055
36.230,-0.015
36.235,-0.010
36.240,-0.063
36.245,-0.044
36.250,-0.010
36.255,-0.071
36.260,-0.106
36.265,-0.066
36.270,-0.095
36.275,-0.137
36.280,-0.086
36.285,-0.080
36.290,-0.137
36.295,-0.118
36.300,-0.096
36.305,-0.156
36.310,-0.151
36.315,-0.073
36.320,-0.088
36.325,-0.111
36.330,-0.041
36.335,-0.021
36.340,-0.057
36.345,-0.011
36.350,0.047
36.355,0.000
36.360,-0.015
36.365,0.048
36.370,0.030
36.375,-0.011
36.380,0.038
36.385,0.050
36.390,-0.006
36.395,0.017
36.400,0.055
36.405,-0.007
36.410,-0.022
36.415,0.040
36.420,0.014
36.425,-0.039
36.430,0.018
36.435,0.062
36.440,0.001
36.445,-0.143
36.450,-0.428
36.455,-0.863
36.460,-1.315
36.465,-1.613
36.470,-1.427
36.475,-0.642
36.480,0.128
36.485,0.388
36.490,0.332
36.495,0.302
36.500,0.321
36.505,0.240
36.510,0.192
36.515,0.253
36.520,0.231
36.525,0.178
36.530,0.223
36.535,0.229
36.540,0.168
36.545,0.182
36.550,0.208
36.555,0.148
36.560,0.130
36.565,0.183
36.570,0.150
36.575,0.098
36.580,0.140
36.585,0.143
36.590,0.078
36.595,0.084
36.600,0.116
36.605,0.064
36.610,0.039
36.615,0.085
36.620,0.054
36.625,-0.002
36.630,0.032
36.635,0.034
36.640,-0.033
36.645,-0.033
36.650,-0.009
36.655,-0.068
36.660,-0.099
36.665,-0.063
36.670,-0.098
36.675,-0.154
36.680,-0.116
36.685,-0.115
36.690,-0.179
36.695,-0.161
36.700,-0.124
36.705,-0.162
36.710,-0.155
36.715,-0.080
36.720,-0.071
36.725,-0.071
36.730,0.023
36.735,0.082
36.740,0.068
36.745,0.124
36.750,0.197
36.755,0.178
36.760,0.180
36.765,0.250
36.770,0.246
36.775,0.203
36.780,0.249
36.785,0.265
36.790,0.203
36.795,0.217
36.800,0.255
36.805,0.199
36.810,0.169
36.815,0.214
36.820,0.186
36.825,0.131
36.830,0.164
36.835,0.171
36.840,0.107
36.845,0.110
36.850,0.142
36.855,0.093
36.860,0.074
36.865,0.121
36.870,0.092
36.875,0.040
36.880,0.075
36.885,0.080
36.890,0.019
36.895,0.034
36.900,0.072
36.905,0.024
36.910,0.004
36.915,0.051
36.920,0.025
36.925,-0.027
36.930,0.016
36.935,0.029
36.940,-0.031
36.945,-0.014
36.950,0.026
36.955,-0.021
36.960,-0.040
36.965,0.010
36.970,-0.014
36.975,-0.065
36.980,-0.031
36.985,-0.020
36.990,-0.066
36.995,-0.036
37.000,0.019
37.005,-0.027
37.010,-0.051
37.015,0.011
37.020,0.001
37.025,-0.041
37.030,0.003
37.035,0.017
37.040,-0.040
37.045,-0.034
37.050,-0.001
37.055,-0.060
37.060,-0.099
37.065,-0.057
37.070,-0.081
37.075,-0.128
37.080,-0.084
37.085,-0.064
37.090,-0.122
37.095,-0.128
37.100,-0.100
37.105,-0.126
37.110,-0.119
37.115,-0.055
37.120,-0.063
37.125,-0.092
37.130,-0.032
37.135,-0.001
37.140,-0.036
37.145,-0.008
37.150,0.040
37.155,0.007
37.160,-0.003
37.165,0.057
37.170,0.044
37.175,-0.001
37.180,0.039
37.185,0.051
37.190,-0.005
37.195,0.011
37.200,0.053
37.205,0.003
37.210,-0.021
37.215,0.033
37.220,0.019
37.225,-0.024
37.230,0.038
37.235,0.072
37.240,-0.083
37.245,-0.344
37.250,-0.667
37.255,-1.139
37.260,-1.590
37.265,-1.557
37.270,-0.872
37.275,-0.058
37.280,0.365
37.285,0.405
37.290,0.291
37.295,0.275
37.300,0.303
37.305,0.229
37.310,0.196
37.315,0.248
37.320,0.228
37.325,0.178
37.330,0.212
37.335,0.218
37.340,0.159
37.345,0.168
37.350,0.201
37.355,0.152
37.360,0.125
37.365,0.167
37.370,0.139
37.375,0.083
37.380,0.117
37.385,0.123
37.390,0.061
37.395,0.068
37.400,0.102
37.405,0.050
37.410,0.022
37.415,0.063
37.420,0.036
37.425,-0.019
37.430,0.010
37.435,0.012
37.440,-0.056
37.445,-0.058
37.450,-0.029
37.455,-0.086
37.460,-0.127
37.465,-0.091
37.470,-0.120
37.475,-0.178
37.480,-0.149
37.485,-0.141
37.490,-0.199
37.495,-0.191
37.500,-0.143
37.505,-0.169
37.510,-0.169
37.515,-0.089
37.520,-0.053
37.525,-0.048
37.530,0.027
37.535,0.082
37.540,0.074
37.545,0.129
37.550,0.201
37.555,0.183
37.560,0.180
37.565,0.242
37.570,0.236
37.575,0.197
37.580,0.237
37.585,0.250
37.590,0.188
37.595,0.194
37.600,0.234
37.605,0.183
37.610,0.151
37.615,0.197
37.620,0.173
37.625,0.116
37.630,0.146
37.635,0.157
37.640,0.097
37.645,0.100
37.650,0.134
37.655,0.088
37.660,0.061
37.665,0.105
37.670,0.088
37.675,0.036
37.680,0.065
37.685,0.078
37.690,0.025
37.695,0.030
37.700,0.066
37.705,0.023
37.710,-0.003
37.715,0.046
37.720,0.030
37.725,-0.017
37.730,0.018
37.735,0.031
37.740,-0.023
37.745,-0.014
37.750,0.026
37.755,-0.013
37.760,-0.034
37.765,0.013
37.770,-0.005
37.775,-0.052
37.780,-0.012
37.785,0.010
37.790,-0.040
37.795,-0.033
37.800,0.011
37.805,-0.026
37.810,-0.052
37.815,-0.003
37.820,-0.016
37.825,-0.061
37.830,-0.024
37.835,-0.005
37.840,-0.054
37.845,-0.046
37.850,-0.010
37.855,-0.062
37.860,-0.097
37.865,-0.063
37.870,-0.092
37.875,-0.142
37.880,-0.105
37.885,-0.087
37.890,-0.135
37.895,-0.121
37.900,-0.087
37.905,-0.138
37.910,-0.145
37.915,-0.070
37.920,-0.075
37.925,-0.110
37.930,-0.057
37.935,-0.026
37.940,-0.059
37.945,-0.030
37.950,0.028
37.955,0.001
37.960,-0.009
37.965,0.046
37.970,0.036
37.975,-0.005
37.980,0.029
37.985,0.047
37.990,0.005
37.995,0.012
38.000,0.047
38.005,0.010
38.010,-0.008
38.015,0.038
38.020,0.021
38.025,-0.024
38.030,0.017
38.035,0.057
38.040,0.031
38.045,-0.038
38.050,-0.244
38.055,-0.628
38.060,-1.067
38.065,-1.463
38.070,-1.566
38.075,-0.996
38.080,-0.120
38.085,0.303
38.090,0.297
38.095,0.264
38.100,0.297
38.105,0.261
38.110,0.212
38.115,0.252
38.120,0.244
38.125,0.199
38.130,0.230
38.135,0.243
38.140,0.188
38.145,0.183
38.150,0.212
38.155,0.169
38.160,0.139
38.165,0.178
38.170,0.160
38.175,0.111
38.180,0.136
38.185,0.145
38.190,0.086
38.195,0.082
38.200,0.118
38.205,0.075
38.210,0.038
38.215,0.074
38.220,0.058
38.225,0.004
38.230,0.023
38.235,0.034
38.240,-0.025
38.245,-0.038
38.250,-0.013
38.255,-0.059
38.260,-0.101
38.265,-0.074
38.270,-0.096
38.275,-0.153
38.280,-0.137
38.285,-0.128
38.290,-0.181
38.295,-0.185
38.300,-0.147
38.305,-0.176
38.310,-0.190
38.315,-0.127
38.320,-0.103
38.325,-0.103
38.330,-0.032
38.335,0.028
38.340,0.026
38.345,0.071
38.350,0.152
38.355,0.155
38.360,0.159
38.365,0.221
38.370,0.226
38.375,0.198
38.380,0.233
38.385,0.248
38.390,0.199
38.395,0.199
38.400,0.233
38.405,0.197
38.410,0.169
38.415,0.203
38.420,0.181
38.425,0.133
38.430,0.157
38.435,0.166
38.440,0.111
38.445,0.106
38.450,0.132
38.455,0.092
38.460,0.074
38.465,0.116
38.470,0.095
38.475,0.048
38.480,0.076
38.485,0.090
38.490,0.040
38.495,0.039
38.500,0.071
38.505,0.033
38.510,0.009
38.515,0.052
38.520,0.036
38.525,-0.005
38.530,0.031
38.535,0.046
38.540,-0.007
38.545,-0.008
38.550,0.025
38.555,-0.010
38.560,-0.032
38.565,0.007
38.570,-0.003
38.575,-0.041
38.580,-0.010
38.585,0.014
38.590,-0.031
38.595,-0.032
38.600,0.006
38.605,-0.028
38.610,-0.049
38.615,-0.004
38.620,-0.016
38.625,-0.056
38.630,-0.024
38.635,-0.005
38.640,-0.052
38.645,-0.048
38.650,0.000
38.655,-0.029
38.660,-0.060
38.665,-0.028
38.670,-0.039
38.675,-0.072
38.680,-0.040
38.685,-0.029
38.690,-0.090
38.695,-0.109
38.700,-0.085
38.705,-0.114
38.710,-0.128
38.715,-0.088
38.720,-0.098
38.725,-0.135
38.730,-0.122
38.735,-0.120
38.740,-0.147
38.745,-0.115
38.750,-0.070
38.755,-0.092
38.760,-0.082
38.765,-0.013
38.770,-0.006
38.775,-0.031
38.780,0.000
38.785,0.023
38.790,-0.003
38.795,0.014
38.800,0.058
38.805,0.024
38.810,-0.002
38.815,0.041
38.820,0.038
38.825,-0.004
38.830,0.018
38.835,0.034
38.840,-0.011
38.845,-0.006
38.850,0.028
38.855,-0.006
38.860,-0.017
38.865,0.051
38.870,0.059
38.875,-0.076
38.880,-0.306
38.885,-0.623
38.890,-1.074
38.895,-1.485
38.900,-1.427
38.905,-0.764
38.910,-0.010
38.915,0.372
38.920,0.400
38.925,0.309
38.930,0.303
38.935,0.291
38.940,0.202
38.945,0.192
38.950,0.227
38.955,0.180
38.960,0.148
38.965,0.192
38.970,0.186
38.975,0.144
38.980,0.173
38.985,0.190
38.990,0.135
38.995,0.122
39.000,0.154
39.005,0.121
39.010,0.096
39.015,0.124
39.020,0.099
39.025,0.052
39.030,0.078
39.035,0.093
39.040,0.040
39.045,0.031
39.050,0.069
39.055,0.028
39.060,-0.013
39.065,0.024
39.070,0.009
39.075,-0.050
39.080,-0.040
39.085,-0.037
39.090,-0.092
39.095,-0.101
39.100,-0.080
39.105,-0.125
39.110,-0.157
39.115,-0.120
39.120,-0.131
39.125,-0.173
39.130,-0.148
39.135,-0.135
39.140,-0.177
39.145,-0.148
39.150,-0.077
39.155,-0.078
39.160,-0.051
39.165,0.044
39.170,0.068
39.175,0.051
39.180,0.120
39.185,0.188
39.190,0.168
39.195,0.187
39.200,0.251
39.205,0.227
39.210,0.198
39.215,0.239
39.220,0.235
39.225,0.194
39.230,0.217
39.235,0.229
39.240,0.170
39.245,0.161
39.250,0.199
39.255,0.162
39.260,0.127
39.265,0.168
39.270,0.168
39.275,0.117
39.280,0.125
39.285,0.132
39.290,0.068
39.295,0.055
39.300,0.101
39.305,0.075
39.310,0.045
39.315,0.082
39.320,0.072
39.325,0.018
39.330,0.039
39.335,0.066
39.340,0.020
39.345,0.011
39.350,0.041
39.355,0.010
39.360,-0.015
39.365,0.026
39.370,0.021
39.375,-0.030
39.380,-0.007
39.385,0.020
39.390,-0.022
39.395,-0.020
39.400,0.024
39.405,-0.012
39.410,-0.048
39.415,0.000
39.420,0.009
39.425,-0.034
39.430,-0.012
39.435,0.009
39.440,-0.027
39.445,-0.021
39.450,0.010
39.455,-0.036
39.460,-0.062
39.465,-0.008
39.470,-0.008
39.475,-0.055
39.480,-0.024
39.485,-0.002
39.490,-0.067
39.495,-0.090
39.500,-0.065
39.505,-0.097
39.510,-0.116
39.515,-0.077
39.520,-0.084
39.525,-0.125
39.530,-0.117
39.535,-0.114
39.540,-0.147
39.545,-0.114
39.550,-0.065
39.555,-0.096
39.560,-0.091
39.565,-0.024
39.570,-0.015
39.575,-0.035
39.580,-0.004
39.585,0.015
39.590,-0.006
39.595,0.021
39.600,0.061
39.605,0.023
39.610,-0.002
39.615,0.042
39.620,0.038
39.625,-0.009
39.630,0.021
39.635,0.052
39.640,0.007
39.645,0.001
39.650,0.032
39.655,-0.002
39.660,-0.022
39.665,0.035
39.670,0.061
39.675,0.008
39.680,-0.152
39.685,-0.488
39.690,-0.939
39.695,-1.371
39.700,-1.595
39.705,-1.229
39.710,-0.358
39.715,0.286
39.720,0.420
39.725,0.340
39.730,0.315
39.735,0.313
39.740,0.223
39.745,0.186
39.750,0.226
39.755,0.202
39.760,0.183
39.765,0.225
39.770,0.214
39.775,0.165
39.780,0.166
39.785,0.167
39.790,0.132
39.795,0.143
39.800,0.176
39.805,0.126
39.810,0.081
39.815,0.123
39.820,0.120
39.825,0.060
39.830,0.075
39.835,0.097
39.840,0.050
39.845,0.039
39.850,0.062
39.855,0.022
39.860,-0.016
39.865,0.014
39.870,0.005
39.875,-0.049
39.880,-0.038
39.885,-0.029
39.890,-0.085
39.895,-0.103
39.900,-0.089
39.905,-0.121
39.910,-0.142
39.915,-0.126
39.920,-0.155
39.925,-0.203
39.930,-0.173
39.935,-0.144
39.940,-0.179
39.945,-0.156
39.950,-0.082
39.955,-0.077
39.960,-0.059
39.965,0.028
39.970,0.063
39.975,0.052
39.980,0.115
39.985,0.175
39.990,0.155
39.995,0.176
40.000,0.237
40.005,0.223
40.010,0.202
40.015,0.241
40.020,0.241
40.025,0.198
40.030,0.215
40.035,0.226
40.040,0.167
40.045,0.153
40.050,0.192
40.055,0.170
40.060,0.139
40.065,0.164
40.070,0.150
40.075,0.098
40.080,0.112
40.085,0.133
40.090,0.091
40.095,0.085
40.100,0.110
40.105,0.068
40.110,0.040
40.115,0.078
40.120,0.068
40.125,0.016
40.130,0.035
40.135,0.055
40.140,0.014
40.145,0.015
40.150,0.050
40.155,0.013
40.160,-0.022
40.165,0.018
40.170,0.018
40.175,-0.030
40.180,-0.012
40.185,0.015
40.190,-0.023
40.195,-0.023
40.200,0.013
40.205,-0.019
40.210,-0.042
40.215,-0.001
40.220,-0.005
40.225,-0.051
40.230,-0.024
40.235,0.003
40.240,-0.044
40.245,-0.042
40.250,0.005
40.255,-0.020
40.260,-0.046
40.265,-0.014
40.270,-0.024
40.275,-0.081
40.280,-0.077
40.285,-0.066
40.290,-0.114
40.295,-0.115
40.300,-0.077
40.305,-0.106
40.310,-0.135
40.315,-0.109
40.320,-0.118
40.325,-0.144
40.330,-0.099
40.335,-0.057
40.340,-0.078
40.345,-0.061
40.350,-0.014
40.355,-0.033
40.360,-0.041
40.365,0.015
40.370,0.021
40.375,-0.009
40.380,0.023
40.385,0.047
40.390,0.012
40.395,0.021
40.400,0.061
40.405,0.028
40.410,0.002
40.415,0.046
40.420,0.042
40.425,-0.010
40.430,0.011
40.435,0.036
40.440,-0.004
40.445,0.009
40.450,0.075
40.455,0.043
40.460,-0.131
40.465,-0.400
40.470,-0.777
40.475,-1.248
40.480,-1.601
40.485,-1.441
40.490,-0.690
40.495,0.081
40.500,0.411
40.505,0.389
40.510,0.305
40.515,0.313
40.520,0.288
40.525,0.216
40.530,0.228
40.535,0.252
40.540,0.205
40.545,0.191
40.550,0.219
40.555,0.190
40.560,0.161
40.565,0.191
40.570,0.186
40.575,0.143
40.580,0.154
40.585,0.164
40.590,0.112
40.595,0.102
40.600,0.111
40.605,0.053
40.610,0.040
40.615,0.086
40.620,0.069
40.625,0.019
40.630,0.029
40.635,0.039
40.640,-0.008
40.645,-0.016
40.650,0.009
40.655,-0.026
40.660,-0.061
40.665,-0.043
40.670,-0.065
40.675,-0.126
40.680,-0.119
40.685,-0.108
40.690,-0.159
40.695,-0.166
40.700,-0.138
40.705,-0.171
40.710,-0.198
40.715,-0.163
40.720,-0.160
40.725,-0.186
40.730,-0.137
40.735,-0.075
40.740,-0.073
40.745,-0.023
40.750,0.062
40.755,0.072
40.760,0.085
40.765,0.162
40.770,0.199
40.775,0.183
40.780,0.215
40.785,0.242
40.790,0.206
40.795,0.215
40.800,0.258
40.805,0.230
40.810,0.193
40.815,0.221
40.820,0.216
40.825,0.165
40.830,0.178
40.835,0.194
40.840,0.143
40.845,0.132
40.850,0.164
40.855,0.133
40.860,0.096
40.865,0.119
40.870,0.119
40.875,0.073
40.880,0.076
40.885,0.095
40.890,0.061
40.895,0.053
40.900,0.082
40.905,0.056
40.910,0.028
40.915,0.056
40.920,0.051
40.925,0.004
40.930,0.022
40.935,0.047
40.940,0.001
40.945,-0.004
40.950,0.031
40.955,-0.002
40.960,-0.032
40.965,0.011
40.970,0.019
40.975,-0.022
40.980,-0.007
40.985,0.010
40.990,-0.032
40.995,-0.033
41.000,0.002
41.005,-0.021
41.010,-0.043
41.015,-0.009
41.020,-0.007
41.025,-0.047
41.030,-0.032
41.035,-0.007
41.040,-0.045
41.045,-0.051
41.050,-0.023
41.055,-0.060
41.060,-0.099
41.065,-0.079
41.070,-0.086
41.075,-0.123
41.080,-0.104
41.085,-0.080
41.090,-0.119
41.095,-0.139
41.100,-0.113
41.105,-0.110
41.110,-0.111
41.115,-0.075
41.120,-0.057
41.125,-0.072
41.130,-0.041
41.135,-0.002
41.140,-0.020
41.145,-0.008
41.150,0.033
41.155,0.022
41.160,0.008
41.165,0.042
41.170,0.038
41.175,-0.001
41.180,0.024
41.185,0.053
41.190,0.019
41.195,0.015
41.200,0.045
41.205,0.021
41.210,-0.003
41.215,0.029
41.220,0.029
41.225,-0.001
41.230,0.042
41.235,0.058
41.240,-0.137
41.245,-0.455
41.250,-0.800
41.255,-1.256
41.260,-1.632
41.265,-1.393
41.270,-0.567
41.275,0.107
41.280,0.372
41.285,0.398
41.290,0.303
41.295,0.277
41.300,0.287
41.305,0.235
41.310,0.210
41.315,0.243
41.320,0.238
41.325,0.194
41.330,0.204
41.335,0.218
41.340,0.172
41.345,0.157
41.350,0.185
41.355,0.160
41.360,0.130
41.365,0.153
41.370,0.147
41.375,0.102
41.380,0.107
41.385,0.118
41.390,0.077
41.395,0.070
41.400,0.096
41.405,0.062
41.410,0.026
41.415,0.048
41.420,0.037
41.425,-0.013
41.430,-0.007
41.435,0.003
41.440,-0.047
41.445,-0.069
41.450,-0.055
41.455,-0.090
41.460,-0.124
41.465,-0.108
41.470,-0.129
41.475,-0.179
41.480,-0.163
41.485,-0.149
41.490,-0.194
41.495,-0.196
41.500,-0.153
41.505,-0.157
41.510,-0.151
41.515,-0.081
41.520,-0.043
41.525,-0.037
41.530,0.033
41.535,0.098
41.540,0.096
41.545,0.132
41.550,0.195
41.555,0.191
41.560,0.186
41.565,0.233
41.570,0.238
41.575,0.204
41.580,0.224
41.585,0.238
41.590,0.192
41.595,0.191
41.600,0.219
41.605,0.184
41.610,0.154
41.615,0.177
41.620,0.162
41.625,0.117
41.630,0.131
41.635,0.143
41.640,0.098
41.645,0.095
41.650,0.124
41.655,0.090
41.660,0.060
41.665,0.086
41.670,0.078
41.675,0.035
41.680,0.052
41.685,0.069
41.690,0.027
41.695,0.023
41.700,0.053
41.705,0.027
41.710,0.002
41.715,0.032
41.720,0.027
41.725,-0.015
41.730,0.001
41.735,0.022
41.740,-0.015
41.745,-0.019
41.750,0.014
41.755,-0.009
41.760,-0.033
41.765,-0.003
41.770,-0.004
41.775,-0.040
41.780,-0.020
41.785,-0.001
41.790,-0.035
41.795,-0.033
41.800,-0.003
41.805,-0.030
41.810,-0.052
41.815,-0.020
41.820,-0.023
41.825,-0.062
41.830,-0.051
41.835,-0.052
41.840,-0.108
41.845,-0.113
41.850,-0.081
41.855,-0.106
41.860,-0.129
41.865,-0.094
41.870,-0.097
41.875,-0.148
41.880,-0.133
41.885,-0.088
41.890,-0.102
41.895,-0.098
41.900,-0.052
41.905,-0.055
41.910,-0.066
41.915,-0.018
41.920,0.000
41.925,-0.024
41.930,0.008
41.935,0.043
41.940,0.014
41.945,0.015
41.950,0.050
41.955,0.027
41.960,0.004
41.965,0.037
41.970,0.035
41.975,-0.002
41.980,0.020
41.985,0.039
41.990,-0.001
41.995,-0.002
42.000,0.031
42.005,0.021
42.010,0.029
42.015,0.044
42.020,-0.139
42.025,-0.501
42.030,-0.865
42.035,-1.289
42.040,-1.638
42.045,-1.329
42.050,-0.443
42.055,0.159
42.060,0.305
42.065,0.320
42.070,0.290
42.075,0.258
42.080,0.260
42.085,0.260
42.090,0.223
42.095,0.219
42.100,0.246
42.105,0.221
42.110,0.193
42.115,0.216
42.120,0.205
42.125,0.157
42.130,0.170
42.135,0.184
42.140,0.137
42.145,0.126
42.150,0.149
42.155,0.119
42.160,0.089
42.165,0.111
42.170,0.102
42.175,0.058
42.180,0.069
42.185,0.080
42.190,0.034
42.195,0.026
42.200,0.047
42.205,0.011
42.210,-0.022
42.215,-0.004
42.220,-0.023
42.225,-0.075
42.230,-0.070
42.235,-0.069
42.240,-0.123
42.245,-0.138
42.250,-0.121
42.255,-0.155
42.260,-0.184
42.265,-0.162
42.270,-0.167
42.275,-0.199
42.280,-0.168
42.285,-0.131
42.290,-0.140
42.295,-0.103
42.300,-0.030
42.305,-0.006
42.310,0.017
42.315,0.088
42.320,0.128
42.325,0.130
42.330,0.177
42.335,0.216
42.340,0.196
42.345,0.208
42.350,0.244
42.355,0.222
42.360,0.201
42.365,0.232
42.370,0.226
42.375,0.182
42.380,0.196
42.385,0.207
42.390,0.157
42.395,0.147
42.400,0.174
42.405,0.143
42.410,0.108
42.415,0.129
42.420,0.123
42.425,0.081
42.430,0.095
42.435,0.109
42.440,0.069
42.445,0.064
42.450,0.088
42.455,0.061
42.460,0.036
42.465,0.062
42.470,0.057
42.475,0.016
42.480,0.033
42.485,0.045
42.490,0.004
42.495,0.007
42.500,0.039
42.505,0.014
42.510,-0.012
42.515,0.012
42.520,0.007
42.525,-0.027
42.530,-0.009
42.535,0.008
42.540,-0.024
42.545,-0.025
42.550,0.002
42.555,-0.017
42.560,-0.039
42.565,-0.012
42.570,-0.013
42.575,-0.046
42.580,-0.025
42.585,-0.008
42.590,-0.045
42.595,-0.044
42.600,-0.016
42.605,-0.044
42.610,-0.080
42.615,-0.071
42.620,-0.087
42.625,-0.123
42.630,-0.100
42.635,-0.082
42.640,-0.113
42.645,-0.107
42.650,-0.084
42.655,-0.123
42.660,-0.139
42.665,-0.083
42.670,-0.069
42.675,-0.093
42.680,-0.055
42.685,-0.025
42.690,-0.048
42.695,-0.025
42.700,0.021
42.705,0.005
42.710,-0.003
42.715,0.038
42.720,0.039
42.725,0.003
42.730,0.023
42.735,0.042
42.740,0.012
42.745,0.015
42.750,0.036
42.755,0.010
42.760,-0.005
42.765,0.030
42.770,0.024
42.775,-0.013
42.780,0.012
42.785,0.042
42.790,0.028
42.795,-0.010
42.800,-0.191
42.805,-0.545
42.810,-0.947
42.815,-1.351
42.820,-1.551
42.825,-1.095
42.830,-0.210
42.835,0.290
42.840,0.327
42.845,0.282
42.850,0.281
42.855,0.267
42.860,0.230
42.865,0.239
42.870,0.229
42.875,0.188
42.880,0.204
42.885,0.216
42.890,0.172
42.895,0.165
42.900,0.184
42.905,0.153
42.910,0.132
42.915,0.151
42.920,0.133
42.925,0.103
42.930,0.127
42.935,0.130
42.940,0.087
42.945,0.082
42.950,0.089
42.955,0.048
42.960,0.027
42.965,0.053
42.970,0.039
42.975,0.000
42.980,0.016
42.985,0.018
42.990,-0.026
42.995,-0.028
43.000,-0.018
43.005,-0.060
43.010,-0.094
43.015,-0.084
43.020,-0.109
43.025,-0.157
43.030,-0.151
43.035,-0.146
43.040,-0.180
43.045,-0.179
43.050,-0.159
43.055,-0.180
43.060,-0.179
43.065,-0.135
43.070,-0.123
43.075,-0.114
43.080,-0.044
43.085,0.012
43.090,0.026
43.095,0.073
43.100,0.136
43.105,0.151
43.110,0.167
43.115,0.213
43.120,0.213
43.125,0.189
43.130,0.222
43.135,0.242
43.140,0.206
43.145,0.211
43.150,0.239
43.155,0.205
43.160,0.174
43.165,0.198
43.170,0.189
43.175,0.147
43.180,0.155
43.185,0.161
43.190,0.122
43.195,0.116
43.200,0.137
43.205,0.106
43.210,0.080
43.215,0.105
43.220,0.097
43.225,0.062
43.230,0.067
43.235,0.074
43.240,0.054
43.245,0.061
43.250,0.072
43.255,0.041
43.260,0.018
43.265,0.037
43.270,0.030
43.275,-0.001
43.280,0.020
43.285,0.034
43.290,-0.003
43.295,-0.004
43.300,0.015
43.305,-0.014
43.310,-0.032
43.315,-0.004
43.320,-0.009
43.325,-0.033
43.330,-0.002
43.335,0.009
43.340,-0.034
43.345,-0.030
43.350,-0.003
43.355,-0.025
43.360,-0.041
43.365,-0.016
43.370,-0.026
43.375,-0.056
43.380,-0.024
43.385,-0.005
43.390,-0.048
43.395,-0.057
43.400,-0.050
43.405,-0.091
43.410,-0.112
43.415,-0.088
43.420,-0.103
43.425,-0.127
43.430,-0.087
43.435,-0.077
43.440,-0.135
43.445,-0.141
43.450,-0.098
43.455,-0.101
43.460,-0.094
43.465,-0.037
43.470,-0.027
43.475,-0.046
43.480,-0.004
43.485,0.009
43.490,-0.028
43.495,-0.004
43.500,0.043
43.505,0.033
43.510,0.019
43.515,0.046
43.520,0.041
43.525,0.007
43.530,0.028
43.535,0.039
43.540,0.000
43.545,0.005
43.550,0.034
43.555,0.006
43.560,-0.017
43.565,0.019
43.570,0.035
43.575,0.037
43.580,0.025
43.585,-0.189
43.590,-0.584
43.595,-0.966
43.600,-1.360
43.605,-1.565
43.610,-1.076
43.615,-0.179
43.620,0.316
43.625,0.382
43.630,0.362
43.635,0.323
43.640,0.257
43.645,0.224
43.650,0.226
43.655,0.195
43.660,0.180
43.665,0.206
43.670,0.193
43.675,0.163
43.680,0.177
43.685,0.181
43.690,0.147
43.695,0.143
43.700,0.144
43.705,0.114
43.710,0.111
43.715,0.130
43.720,0.114
43.725,0.087
43.730,0.093
43.735,0.090
43.740,0.055
43.745,0.049
43.750,0.051
43.755,0.026
43.760,0.017
43.765,0.028
43.770,0.007
43.775,-0.034
43.780,-0.033
43.785,-0.036
43.790,-0.079
43.795,-0.071
43.800,0.014
43.805,0.056
43.810,0.038
43.815,0.040
43.820,0.009
43.825,-0.049
43.830,-0.055
43.835,-0.059
43.840,-0.090
43.845,-0.075
43.850,-0.044
43.855,-0.049
43.860,-0.021
43.865,0.054
43.870,0.086
43.875,0.082
43.880,0.115
43.885,0.155
43.890,0.177
43.895,0.207
43.900,0.227
43.905,0.215
43.910,0.217
43.915,0.250
43.920,0.247
43.925,0.209
43.930,0.203
43.935,0.207
43.940,0.173
43.945,0.162
43.950,0.175
43.955,0.143
43.960,0.122
43.965,0.135
43.970,0.114
43.975,0.091
43.980,0.105
43.985,0.094
43.990,0.057
43.995,0.062
44.000,0.073
44.005,0.034
44.010,0.013
44.015,0.025
44.020,0.007
44.025,-0.010
44.030,0.013
44.035,0.007
44.040,-0.033
44.045,-0.030
44.050,-0.007
44.055,-0.029
44.060,-0.050
44.065,-0.042
44.070,-0.054
44.075,-0.061
44.080,-0.036
44.085,-0.042
44.090,-0.077
44.095,-0.066
44.100,-0.037
44.105,-0.058
44.110,-0.076
44.115,-0.040
44.120,-0.038
44.125,-0.070
44.130,-0.046
44.135,-0.038
44.140,-0.082
44.145,-0.075
44.150,-0.046
44.155,-0.071
44.160,-0.076
44.165,-0.045
44.170,-0.057
44.175,-0.081
44.180,-0.073
44.185,-0.093
44.190,-0.133
44.195,-0.129
44.200,-0.108
44.205,-0.115
44.210,-0.120
44.215,-0.104
44.220,-0.134
44.225,-0.183
44.230,-0.156
44.235,-0.118
44.240,-0.135
44.245,-0.121
44.250,-0.068
44.255,-0.069
44.260,-0.079
44.265,-0.033
44.270,-0.019
44.275,-0.037
44.280,-0.008
44.285,0.007
44.290,-0.012
44.295,0.007
44.300,0.032
44.305,0.013
44.310,0.007
44.315,0.035
44.320,0.019
44.325,-0.007
44.330,0.019
44.335,0.017
44.340,-0.014
44.345,0.001
44.350,0.021
44.355,0.013
44.360,0.037
44.365,0.027
44.370,-0.206
44.375,-0.577
44.380,-0.927
44.385,-1.346
44.390,-1.641
44.395,-1.238
44.400,-0.303
44.405,0.299
44.410,0.417
44.415,0.388
44.420,0.332
44.425,0.284
44.430,0.250
44.435,0.223
44.440,0.205
44.445,0.217
44.450,0.225
44.455,0.193
44.460,0.183
44.465,0.204
44.470,0.178
44.475,0.146
44.480,0.166
44.485,0.165
44.490,0.129
44.495,0.132
44.500,0.146
44.505,0.111
44.510,0.092
44.515,0.110
44.520,0.081
44.525,0.049
44.530,0.077
44.535,0.077
44.540,0.031
44.545,0.030
44.550,0.045
44.555,0.008
44.560,-0.011
44.565,0.005
44.570,-0.032
44.575,-0.079
44.580,-0.067
44.585,-0.075
44.590,-0.116
44.595,-0.119
44.600,-0.121
44.605,-0.164
44.610,-0.182
44.615,-0.156
44.620,-0.167
44.625,-0.187
44.630,-0.149
44.635,-0.122
44.640,-0.120
44.645,-0.073
44.650,-0.014
44.655,0.005
44.660,0.048
44.665,0.125
44.670,0.149
44.675,0.148
44.680,0.193
44.685,0.218
44.690,0.210
44.695,0.236
44.700,0.262
44.705,0.235
44.710,0.222
44.715,0.245
44.720,0.220
44.725,0.184
44.730,0.214
44.735,0.216
44.740,0.165
44.745,0.163
44.750,0.177
44.755,0.139
44.760,0.123
44.765,0.148
44.770,0.132
44.775,0.100
44.780,0.111
44.785,0.108
44.790,0.077
44.795,0.091
44.800,0.112
44.805,0.066
44.810,0.039
44.815,0.079
44.820,0.063
44.825,0.007
44.830,0.028
44.835,0.045
44.840,0.003
44.845,0.010
44.850,0.048
44.855,0.017
44.860,-0.009
44.865,0.023
44.870,0.005
44.875,-0.038
44.880,-0.007
44.885,0.016
44.890,-0.024
44.895,-0.024
44.900,0.013
44.905,-0.013
44.910,-0.036
44.915,0.002
44.920,-0.010
44.925,-0.052
44.930,-0.022
44.935,0.003
44.940,-0.034
44.945,-0.035
44.950,-0.013
44.955,-0.063
44.960,-0.100
44.965,-0.072
44.970,-0.091
44.975,-0.124
44.980,-0.085
44.985,-0.068
44.990,-0.110
44.995,-0.121
45.000,-0.101
45.005,-0.113
45.010,-0.111
45.015,-0.068
45.020,-0.065
45.025,-0.082
45.030,-0.047
45.035,-0.017
45.040,-0.028
45.045,-0.007
45.050,0.032
45.055,0.012
45.060,0.002
45.065,0.044
45.070,0.032
45.075,0.000
45.080,0.035
45.085,0.048
45.090,0.006
45.095,0.007
45.100,0.042
45.105,0.020
45.110,0.000
45.115,0.034
45.120,0.023
45.125,-0.007
45.130,0.046
45.135,0.063
45.140,-0.105
45.145,-0.395
45.150,-0.735
45.155,-1.191
45.160,-1.606
45.165,-1.483
45.170,-0.718
45.175,0.052
45.180,0.398
45.185,0.418
45.190,0.312
45.195,0.284
45.200,0.293
45.205,0.231
45.210,0.204
45.215,0.244
45.220,0.228
45.225,0.182
45.230,0.203
45.235,0.209
45.240,0.163
45.245,0.162
45.250,0.184
45.255,0.147
45.260,0.126
45.265,0.158
45.270,0.138
45.275,0.092
45.280,0.107
45.285,0.112
45.290,0.068
45.295,0.064
45.300,0.088
45.305,0.054
45.310,0.025
45.315,0.050
45.320,0.035
45.325,-0.011
45.330,-0.003
45.335,-0.006
45.340,-0.058
45.345,-0.069
45.350,-0.052
45.355,-0.097
45.360,-0.138
45.365,-0.116
45.370,-0.133
45.375,-0.177
45.380,-0.158
45.385,-0.157
45.390,-0.204
45.395,-0.198
45.400,-0.162
45.405,-0.169
45.410,-0.153
45.415,-0.084
45.420,-0.050
45.425,-0.030
45.430,0.037
45.435,0.087
45.440,0.099
45.445,0.142
