'Elapsed time','ECG'
'seconds','mV'
0.000,-0.053
0.005,-0.103
0.010,0.006
0.015,0.058
0.020,-0.064
0.025,-0.066
0.030,0.062
0.035,-0.029
0.040,-0.101
0.045,0.048
0.050,0.038
0.055,-0.098
0.060,-0.001
0.065,0.079
0.070,-0.066
0.075,-0.054
0.080,0.086
0.085,-0.010
0.090,-0.090
0.095,0.055
0.100,0.045
0.105,-0.090
0.110,0.010
0.115,0.088
0.120,-0.054
0.125,-0.041
0.130,0.094
0.135,-0.005
0.140,-0.085
0.145,0.058
0.150,0.049
0.155,-0.086
0.160,0.010
0.165,0.092
0.170,-0.052
0.175,-0.043
0.180,0.097
0.185,0.001
0.190,-0.079
0.195,0.067
0.200,0.059
0.205,-0.076
0.210,0.019
0.215,0.095
0.220,-0.050
0.225,-0.041
0.230,0.098
0.235,0.003
0.240,-0.076
0.245,0.074
0.250,0.063
0.255,-0.086
0.260,0.005
0.265,0.092
0.270,-0.050
0.275,-0.044
0.280,0.096
0.285,0.003
0.290,-0.080
0.295,0.064
0.300,0.058
0.305,-0.081
0.310,0.012
0.315,0.095
0.320,-0.050
0.325,-0.042
0.330,0.098
0.335,0.002
0.340,-0.083
0.345,0.062
0.350,0.058
0.355,-0.080
0.360,0.017
0.365,0.103
0.370,-0.049
0.375,-0.052
0.380,0.091
0.385,0.002
0.390,-0.083
0.395,0.062
0.400,0.061
0.405,-0.078
0.410,0.015
0.415,0.100
0.420,-0.043
0.425,-0.037
0.430,0.103
0.435,0.009
0.440,-0.078
0.445,0.063
0.450,0.058
0.455,-0.084
0.460,0.002
0.465,0.084
0.470,-0.057
0.475,-0.048
0.480,0.094
0.485,0.001
0.490,-0.086
0.495,0.054
0.500,0.053
0.505,-0.084
0.510,0.007
0.515,0.093
0.520,-0.048
0.525,-0.047
0.530,0.091
0.535,-0.002
0.540,-0.097
0.545,0.038
0.550,0.044
0.555,-0.062
0.560,0.099
0.565,0.270
0.570,0.188
0.575,0.237
0.580,0.361
0.585,0.133
0.590,-0.090
0.595,-0.021
0.600,-0.062
0.605,-0.185
0.610,-0.076
0.615,0.004
0.620,-0.135
0.625,-0.130
0.630,0.015
0.635,-0.065
0.640,-0.147
0.645,-0.002
0.650,0.003
0.655,-0.134
0.660,-0.045
0.665,0.048
0.670,-0.089
0.675,-0.089
0.680,0.053
0.685,-0.030
0.690,-0.115
0.695,0.033
0.700,0.040
0.705,-0.107
0.710,-0.022
0.715,0.072
0.720,-0.066
0.725,-0.064
0.730,0.081
0.735,-0.002
0.740,-0.094
0.745,0.042
0.750,0.045
0.755,-0.095
0.760,-0.010
0.765,0.081
0.770,-0.059
0.775,-0.065
0.780,0.077
0.785,-0.008
0.790,-0.098
0.795,0.044
0.800,0.047
0.805,-0.096
0.810,-0.010
0.815,0.082
0.820,-0.055
0.825,-0.054
0.830,0.087
0.835,-0.004
0.840,-0.095
0.845,0.049
0.850,0.054
0.855,-0.089
0.860,-0.004
0.865,0.087
0.870,-0.059
0.875,-0.067
0.880,0.078
0.885,-0.006
0.890,-0.100
0.895,0.040
0.900,0.046
0.905,-0.099
0.910,-0.016
0.915,0.076
0.920,-0.063
0.925,-0.067
0.930,0.081
0.935,0.004
0.940,-0.085
0.945,0.057
0.950,0.063
0.955,-0.088
0.960,-0.012
0.965,0.090
0.970,-0.035
0.975,-0.037
0.980,0.108
0.985,0.027
0.990,-0.068
0.995,0.066
1.000,0.067
1.005,-0.078
1.010,0.004
1.015,0.097
1.020,-0.043
1.025,-0.053
1.030,0.091
1.035,0.012
1.040,-0.084
1.045,0.055
1.050,0.065
1.055,-0.078
1.060,0.005
1.065,0.096
1.070,-0.048
1.075,-0.055
1.080,0.091
1.085,0.010
1.090,-0.086
1.095,0.053
1.100,0.067
1.105,-0.076
1.110,-0.002
1.115,0.089
1.120,-0.047
1.125,-0.052
1.130,0.094
1.135,0.014
1.140,-0.082
1.145,0.056
1.150,0.068
1.155,-0.076
1.160,0.001
1.165,0.097
1.170,-0.040
1.175,-0.052
1.180,0.093
1.185,0.015
1.190,-0.083
1.195,0.052
1.200,0.064
1.205,-0.078
1.210,-0.002
1.215,0.095
1.220,-0.038
1.225,-0.051
1.230,0.093
1.235,0.021
1.240,-0.076
1.245,0.052
1.250,0.060
1.255,-0.079
1.260,0.000
1.265,0.097
1.270,-0.038
1.275,-0.054
1.280,0.092
1.285,0.021
1.290,-0.078
1.295,0.053
1.300,0.065
1.305,-0.079
1.310,-0.004
1.315,0.095
1.320,-0.041
1.325,-0.056
1.330,0.092
1.335,0.019
1.340,-0.082
1.345,0.052
1.350,0.069
1.355,-0.078
1.360,-0.006
1.365,0.095
1.370,-0.040
1.375,-0.062
1.380,0.081
1.385,0.009
1.390,-0.089
1.395,0.048
1.400,0.063
1.405,-0.084
1.410,-0.012
1.415,0.091
1.420,-0.042
1.425,-0.065
1.430,0.076
1.435,0.010
1.440,-0.088
1.445,0.045
1.450,0.063
1.455,-0.086
1.460,-0.017
1.465,0.087
1.470,-0.043
1.475,-0.061
1.480,0.083
1.485,0.010
1.490,-0.093
1.495,0.043
1.500,0.067
1.505,-0.076
1.510,-0.012
1.515,0.081
1.520,-0.056
1.525,-0.076
1.530,0.068
1.535,-0.001
1.540,-0.102
1.545,0.036
1.550,0.061
1.555,-0.087
1.560,-0.024
1.565,0.080
1.570,-0.050
1.575,-0.072
1.580,0.077
1.585,0.010
1.590,-0.094
1.595,0.041
1.600,0.065
1.605,-0.082
1.610,-0.023
1.615,0.068
1.620,-0.063
1.625,-0.055
1.630,0.159
1.635,0.183
1.640,0.153
1.645,0.337
1.650,0.365
1.655,0.100
1.660,0.006
1.665,0.020
1.670,-0.163
1.675,-0.188
1.680,-0.010
1.685,-0.070
1.690,-0.178
1.695,-0.045
1.700,-0.017
1.705,-0.158
1.710,-0.087
1.715,0.025
1.720,-0.101
1.725,-0.123
1.730,0.027
1.735,-0.034
1.740,-0.135
1.745,-0.001
1.750,0.029
1.755,-0.116
1.760,-0.051
1.765,0.060
1.770,-0.068
1.775,-0.090
1.780,0.063
1.785,0.001
1.790,-0.110
1.795,0.022
1.800,0.059
1.805,-0.082
1.810,-0.025
1.815,0.078
1.820,-0.048
1.825,-0.073
1.830,0.074
1.835,0.014
1.840,-0.092
1.845,0.039
1.850,0.070
1.855,-0.079
1.860,-0.022
1.865,0.086
1.870,-0.043
1.875,-0.072
1.880,0.077
1.885,0.020
1.890,-0.085
1.895,0.042
1.900,0.069
1.905,-0.082
1.910,-0.026
1.915,0.086
1.920,-0.037
1.925,-0.071
1.930,0.070
1.935,0.012
1.940,-0.093
1.945,0.030
1.950,0.054
1.955,-0.090
1.960,-0.025
1.965,0.087
1.970,-0.038
1.975,-0.066
1.980,0.083
1.985,0.025
1.990,-0.085
1.995,0.039
2.000,0.071
2.005,-0.072
2.010,-0.010
2.015,0.102
2.020,-0.025
2.025,-0.054
2.030,0.095
2.035,0.034
2.040,-0.080
2.045,0.046
2.050,0.079
2.055,-0.068
2.060,-0.006
2.065,0.112
2.070,-0.019
2.075,-0.066
2.080,0.079
2.085,0.027
2.090,-0.085
2.095,0.037
2.100,0.072
2.105,-0.071
2.110,-0.019
2.115,0.087
2.120,-0.043
2.125,-0.082
2.130,0.065
2.135,0.012
2.140,-0.099
2.145,0.030
2.150,0.074
2.155,-0.066
2.160,-0.011
2.165,0.103
2.170,-0.021
2.175,-0.058
2.180,0.090
2.185,0.036
2.190,-0.078
2.195,0.047
2.200,0.089
2.205,-0.056
2.210,-0.013
2.215,0.093
2.220,-0.026
2.225,-0.062
2.230,0.087
2.235,0.036
2.240,-0.079
2.245,0.043
2.250,0.078
2.255,-0.070
2.260,-0.016
2.265,0.098
2.270,-0.025
2.275,-0.064
2.280,0.080
2.285,0.028
2.290,-0.085
2.295,0.038
2.300,0.075
2.305,-0.074
2.310,-0.024
2.315,0.094
2.320,-0.027
2.325,-0.068
2.330,0.083
2.335,0.036
2.340,-0.089
2.345,0.027
2.350,0.069
2.355,-0.075
2.360,-0.023
2.365,0.093
2.370,-0.030
2.375,-0.074
2.380,0.072
2.385,0.024
2.390,-0.089
2.395,0.034
2.400,0.071
2.405,-0.074
2.410,-0.024
2.415,0.091
2.420,-0.027
2.425,-0.069
2.430,0.076
2.435,0.025
2.440,-0.095
2.445,0.025
2.450,0.072
2.455,-0.071
2.460,-0.022
2.465,0.097
2.470,-0.021
2.475,-0.067
2.480,0.079
2.485,0.030
2.490,-0.097
2.495,0.021
2.500,0.075
2.505,-0.068
2.510,-0.023
2.515,0.095
2.520,-0.022
2.525,-0.064
2.530,0.081
2.535,0.030
2.540,-0.094
2.545,0.020
2.550,0.063
2.555,-0.084
2.560,-0.037
2.565,0.082
2.570,-0.036
2.575,-0.082
2.580,0.066
2.585,0.025
2.590,-0.095
2.595,0.024
2.600,0.074
2.605,-0.068
2.610,-0.027
2.615,0.089
2.620,-0.026
2.625,-0.073
2.630,0.068
2.635,0.024
2.640,-0.102
2.645,0.008
2.650,0.072
2.655,-0.022
2.660,0.100
2.665,0.284
2.670,0.207
2.675,0.178
2.680,0.250
2.685,0.061
2.690,-0.158
2.695,-0.098
2.700,-0.068
2.705,-0.181
2.710,-0.119
2.715,-0.001
2.720,-0.118
2.725,-0.162
2.730,-0.011
2.735,-0.046
2.740,-0.156
2.745,-0.036
2.750,0.019
2.755,-0.120
2.760,-0.079
2.765,0.044
2.770,-0.068
2.775,-0.117
2.780,0.033
2.785,-0.001
2.790,-0.118
2.795,0.001
2.800,0.057
2.805,-0.086
2.810,-0.047
2.815,0.078
2.820,-0.032
2.825,-0.080
2.830,0.068
2.835,0.030
2.840,-0.090
2.845,0.026
2.850,0.080
2.855,-0.062
2.860,-0.020
2.865,0.104
2.870,-0.006
2.875,-0.053
2.880,0.097
2.885,0.061
2.890,-0.065
2.895,0.040
2.900,0.086
2.905,-0.062
2.910,-0.026
2.915,0.092
2.920,-0.025
2.925,-0.075
2.930,0.074
2.935,0.038
2.940,-0.086
2.945,0.029
2.950,0.085
2.955,-0.061
2.960,-0.026
2.965,0.094
2.970,-0.018
2.975,-0.071
2.980,0.064
2.985,0.021
2.990,-0.101
2.995,0.010
3.000,0.064
3.005,-0.079
3.010,-0.044
3.015,0.080
3.020,-0.027
3.025,-0.076
3.030,0.071
3.035,0.037
3.040,-0.088
3.045,0.019
3.050,0.076
3.055,-0.064
3.060,-0.029
3.065,0.096
3.070,-0.015
3.075,-0.071
3.080,0.075
3.085,0.041
3.090,-0.083
3.095,0.026
3.100,0.083
3.105,-0.062
3.110,-0.030
3.115,0.095
3.120,-0.016
3.125,-0.073
3.130,0.073
3.135,0.040
3.140,-0.088
3.145,0.022
3.150,0.084
3.155,-0.059
3.160,-0.028
3.165,0.094
3.170,-0.016
3.175,-0.072
3.180,0.073
3.185,0.036
3.190,-0.090
3.195,0.026
3.200,0.085
3.205,-0.061
3.210,-0.029
3.215,0.094
3.220,-0.019
3.225,-0.077
3.230,0.069
3.235,0.040
3.240,-0.081
3.245,0.026
3.250,0.083
3.255,-0.062
3.260,-0.034
3.265,0.094
3.270,-0.014
3.275,-0.077
3.280,0.069
3.285,0.041
3.290,-0.089
3.295,0.022
3.300,0.088
3.305,-0.062
3.310,-0.038
3.315,0.093
3.320,-0.011
3.325,-0.075
3.330,0.065
3.335,0.037
3.340,-0.089
3.345,0.018
3.350,0.083
3.355,-0.058
3.360,-0.031
3.365,0.095
3.370,-0.013
3.375,-0.079
3.380,0.068
3.385,0.041
3.390,-0.090
3.395,0.016
3.400,0.084
3.405,-0.060
3.410,-0.037
3.415,0.093
3.420,-0.011
3.425,-0.074
3.430,0.071
3.435,0.045
3.440,-0.090
3.445,0.012
3.450,0.081
3.455,-0.059
3.460,-0.035
3.465,0.089
3.470,-0.014
3.475,-0.076
3.480,0.063
3.485,0.036
3.490,-0.091
3.495,0.021
3.500,0.087
3.505,-0.063
3.510,-0.043
3.515,0.089
3.520,-0.012
3.525,-0.077
3.530,0.068
3.535,0.043
3.540,-0.092
3.545,0.008
3.550,0.073
3.555,-0.071
3.560,-0.047
3.565,0.085
3.570,-0.016
3.575,-0.083
3.580,0.064
3.585,0.045
3.590,-0.089
3.595,0.015
3.600,0.088
3.605,-0.058
3.610,-0.043
3.615,0.089
3.620,-0.011
3.625,-0.081
3.630,0.062
3.635,0.033
3.640,-0.106
3.645,0.010
3.650,0.118
3.655,0.042
3.660,0.124
3.665,0.286
3.670,0.206
3.675,0.095
3.680,0.114
3.685,0.007
3.690,-0.169
3.695,-0.094
3.700,-0.001
3.705,-0.125
3.710,-0.104
3.715,0.032
3.720,-0.071
3.725,-0.143
3.730,0.009
3.735,0.002
3.740,-0.125
3.745,-0.029
3.750,0.036
3.755,-0.106
3.760,-0.080
3.765,0.059
3.770,-0.039
3.775,-0.105
3.780,0.040
3.785,0.020
3.790,-0.109
3.795,-0.004
3.800,0.070
3.805,-0.072
3.810,-0.052
3.815,0.084
3.820,-0.014
3.825,-0.087
3.830,0.055
3.835,0.038
3.840,-0.095
3.845,0.007
3.850,0.082
3.855,-0.055
3.860,-0.033
3.865,0.103
3.870,0.006
3.875,-0.065
3.880,0.082
3.885,0.067
3.890,-0.072
3.895,0.020
3.900,0.083
3.905,-0.068
3.910,-0.053
3.915,0.083
3.920,-0.014
3.925,-0.087
3.930,0.061
3.935,0.045
3.940,-0.095
3.945,-0.001
3.950,0.077
3.955,-0.064
3.960,-0.057
3.965,0.075
3.970,-0.021
3.975,-0.099
3.980,0.043
3.985,0.028
3.990,-0.107
3.995,-0.008
4.000,0.069
4.005,-0.075
4.010,-0.062
4.015,0.078
4.020,-0.015
4.025,-0.089
4.030,0.059
4.035,0.047
4.040,-0.087
4.045,0.014
4.050,0.094
4.055,-0.050
4.060,-0.046
4.065,0.086
4.070,-0.007
4.075,-0.080
4.080,0.065
4.085,0.056
4.090,-0.083
4.095,0.007
4.100,0.082
4.105,-0.061
4.110,-0.049
4.115,0.092
4.120,-0.004
4.125,-0.087
4.130,0.054
4.135,0.046
4.140,-0.090
4.145,0.002
4.150,0.083
4.155,-0.058
4.160,-0.050
4.165,0.088
4.170,-0.006
4.175,-0.088
4.180,0.056
4.185,0.049
4.190,-0.084
4.195,0.019
4.200,0.104
4.205,-0.039
4.210,-0.028
4.215,0.111
4.220,0.014
4.225,-0.064
4.230,0.084
4.235,0.071
4.240,-0.073
4.245,0.022
4.250,0.108
4.255,-0.034
4.260,-0.029
4.265,0.107
4.270,0.013
4.275,-0.071
4.280,0.072
4.285,0.066
4.290,-0.071
4.295,0.021
4.300,0.100
4.305,-0.048
4.310,-0.043
4.315,0.098
4.320,0.004
4.325,-0.078
4.330,0.067
4.335,0.058
4.340,-0.085
4.345,0.007
4.350,0.091
4.355,-0.054
4.360,-0.049
4.365,0.093
4.370,0.000
4.375,-0.085
4.380,0.060
4.385,0.060
4.390,-0.081
4.395,0.004
4.400,0.081
4.405,-0.063
4.410,-0.057
4.415,0.085
4.420,-0.003
4.425,-0.085
4.430,0.059
4.435,0.056
4.440,-0.086
4.445,0.002
4.450,0.086
4.455,-0.058
4.460,-0.056
4.465,0.084
4.470,-0.007
4.475,-0.090
4.480,0.054
4.485,0.051
4.490,-0.093
4.495,-0.003
4.500,0.081
4.505,-0.065
4.510,-0.065
4.515,0.077
4.520,-0.014
4.525,-0.103
4.530,0.041
4.535,0.040
4.540,-0.102
4.545,-0.011
4.550,0.076
4.555,-0.064
4.560,-0.059
4.565,0.079
4.570,-0.015
4.575,-0.101
4.580,0.046
4.585,0.047
4.590,-0.094
4.595,-0.008
4.600,0.073
4.605,-0.077
4.610,-0.080
4.615,0.085
4.620,0.056
4.625,0.035
4.630,0.214
4.635,0.248
4.640,0.126
4.645,0.130
4.650,0.098
4.655,-0.103
4.660,-0.139
4.665,0.000
4.670,-0.063
4.675,-0.147
4.680,-0.010
4.685,-0.003
4.690,-0.142
4.695,-0.056
4.700,0.037
4.705,-0.098
4.710,-0.099
4.715,0.050
4.720,-0.029
4.725,-0.120
4.730,0.020
4.735,0.025
4.740,-0.114
4.745,-0.027
4.750,0.066
4.755,-0.071
4.760,-0.071
4.765,0.074
4.770,-0.011
4.775,-0.100
4.780,0.047
4.785,0.055
4.790,-0.088
4.795,-0.003
4.800,0.086
4.805,-0.053
4.810,-0.057
4.815,0.085
4.820,0.003
4.825,-0.090
4.830,0.051
4.835,0.060
4.840,-0.084
4.845,-0.008
4.850,0.081
4.855,-0.053
4.860,-0.055
4.865,0.086
4.870,-0.002
4.875,-0.096
4.880,0.049
4.885,0.060
4.890,-0.081
4.895,0.005
4.900,0.099
4.905,-0.043
4.910,-0.053
4.915,0.091
4.920,0.010
4.925,-0.085
4.930,0.051
4.935,0.058
4.940,-0.086
4.945,-0.006
4.950,0.084
4.955,-0.060
4.960,-0.074
4.965,0.077
4.970,0.011
4.975,-0.080
4.980,0.062
4.985,0.075
4.990,-0.069
4.995,0.011
5.000,0.106
5.005,-0.032
5.010,-0.043
5.015,0.102
5.020,0.024
5.025,-0.075
5.030,0.057
5.035,0.068
5.040,-0.074
5.045,0.003
5.050,0.099
5.055,-0.035
5.060,-0.044
5.065,0.094
5.070,0.006
5.075,-0.093
5.080,0.048
5.085,0.059
5.090,-0.085
5.095,-0.006
5.100,0.089
5.105,-0.049
5.110,-0.061
5.115,0.084
5.120,0.007
5.125,-0.090
5.130,0.048
5.135,0.060
5.140,-0.086
5.145,-0.009
5.150,0.089
5.155,-0.049
5.160,-0.059
5.165,0.086
5.170,0.007
5.175,-0.089
5.180,0.053
5.185,0.068
5.190,-0.081
5.195,-0.011
5.200,0.086
5.205,-0.047
5.210,-0.056
5.215,0.088
5.220,0.009
5.225,-0.089
5.230,0.046
5.235,0.058
5.240,-0.087
5.245,-0.015
5.250,0.084
5.255,-0.049
5.260,-0.059
5.265,0.087
5.270,0.013
5.275,-0.088
5.280,0.045
5.285,0.060
5.290,-0.084
5.295,-0.010
5.300,0.088
5.305,-0.048
5.310,-0.064
5.315,0.080
5.320,0.007
5.325,-0.091
5.330,0.045
5.335,0.062
5.340,-0.087
5.345,-0.020
5.350,0.081
5.355,-0.050
5.360,-0.069
5.365,0.076
5.370,0.005
5.375,-0.096
5.380,0.038
5.385,0.057
5.390,-0.089
5.395,-0.020
5.400,0.081
5.405,-0.052
5.410,-0.069
5.415,0.076
5.420,0.003
5.425,-0.099
5.430,0.036
5.435,0.056
5.440,-0.090
5.445,-0.019
5.450,0.083
5.455,-0.052
5.460,-0.071
5.465,0.078
5.470,0.007
5.475,-0.102
5.480,0.029
5.485,0.049
5.490,-0.097
5.495,-0.024
5.500,0.081
5.505,-0.053
5.510,-0.079
5.515,0.065
5.520,0.001
5.525,-0.099
5.530,0.033
5.535,0.051
5.540,-0.097
5.545,-0.030
5.550,0.074
5.555,-0.057
5.560,-0.079
5.565,0.070
5.570,0.005
5.575,-0.097
5.580,0.038
5.585,0.061
5.590,-0.083
5.595,-0.014
5.600,0.091
5.605,-0.038
5.610,-0.057
5.615,0.092
5.620,0.029
5.625,-0.073
5.630,0.053
5.635,0.060
5.640,-0.096
5.645,-0.016
5.650,0.128
5.655,0.064
5.660,0.104
5.665,0.288
5.670,0.262
5.675,0.138
5.680,0.147
5.685,0.074
5.690,-0.114
5.695,-0.078
5.700,0.033
5.705,-0.086
5.710,-0.114
5.715,0.032
5.720,-0.031
5.725,-0.132
5.730,0.002
5.735,0.031
5.740,-0.114
5.745,-0.049
5.750,0.061
5.755,-0.070
5.760,-0.095
5.765,0.056
5.770,-0.007
5.775,-0.111
5.780,0.025
5.785,0.054
5.790,-0.097
5.795,-0.037
5.800,0.074
5.805,-0.051
5.810,-0.074
5.815,0.075
5.820,0.013
5.825,-0.095
5.830,0.035
5.835,0.065
5.840,-0.079
5.845,-0.016
5.850,0.095
5.855,-0.033
5.860,-0.067
5.865,0.074
5.870,0.011
5.875,-0.097
5.880,0.031
5.885,0.061
5.890,-0.085
5.895,-0.022
5.900,0.089
5.905,-0.039
5.910,-0.068
5.915,0.080
5.920,0.020
5.925,-0.088
5.930,0.040
5.935,0.068
5.940,-0.076
5.945,-0.010
5.950,0.099
5.955,-0.027
5.960,-0.053
5.965,0.090
5.970,0.023
5.975,-0.087
5.980,0.040
5.985,0.071
5.990,-0.074
5.995,-0.014
6.000,0.097
6.005,-0.027
6.010,-0.058
6.015,0.088
6.020,0.030
6.025,-0.078
6.030,0.051
6.035,0.083
6.040,-0.063
6.045,-0.005
6.050,0.106
6.055,-0.018
6.060,-0.047
6.065,0.098
6.070,0.034
6.075,-0.077
6.080,0.050
6.085,0.076
6.090,-0.074
6.095,-0.012
6.100,0.100
6.105,-0.030
6.110,-0.066
6.115,0.080
6.120,0.023
6.125,-0.090
6.130,0.035
6.135,0.068
6.140,-0.080
6.145,-0.023
6.150,0.089
6.155,-0.038
6.160,-0.074
6.165,0.074
6.170,0.018
6.175,-0.094
6.180,0.032
6.185,0.066
6.190,-0.079
6.195,-0.021
6.200,0.090
6.205,-0.039
6.210,-0.078
6.215,0.071
6.220,0.018
6.225,-0.095
6.230,0.030
6.235,0.067
6.240,-0.079
6.245,-0.024
6.250,0.090
6.255,-0.033
6.260,-0.074
6.265,0.069
6.270,0.015
6.275,-0.096
6.280,0.030
6.285,0.067
6.290,-0.081
6.295,-0.024
6.300,0.091
6.305,-0.034
6.310,-0.073
6.315,0.074
6.320,0.021
6.325,-0.094
6.330,0.031
6.335,0.072
6.340,-0.072
6.345,-0.022
6.350,0.086
6.355,-0.039
6.360,-0.073
6.365,0.075
6.370,0.020
6.375,-0.095
6.380,0.029
6.385,0.070
6.390,-0.076
6.395,-0.025
6.400,0.089
6.405,-0.034
6.410,-0.074
6.415,0.073
6.420,0.025
6.425,-0.093
6.430,0.025
6.435,0.066
6.440,-0.079
6.445,-0.029
6.450,0.088
6.455,-0.032
6.460,-0.073
6.465,0.075
6.470,0.028
6.475,-0.090
6.480,0.022
6.485,0.059
6.490,-0.082
6.495,-0.030
6.500,0.088
6.505,-0.029
6.510,-0.073
6.515,0.074
6.520,0.031
6.525,-0.086
6.530,0.029
6.535,0.071
6.540,-0.074
6.545,-0.028
6.550,0.086
6.555,-0.035
6.560,-0.075
6.565,0.076
6.570,0.032
6.575,-0.089
6.580,0.025
6.585,0.071
6.590,-0.073
6.595,-0.029
6.600,0.088
6.605,-0.034
6.610,-0.084
6.615,0.063
6.620,0.022
6.625,-0.096
6.630,0.022
6.635,0.067
6.640,-0.079
6.645,-0.031
6.650,0.089
6.655,-0.031
6.660,-0.077
6.665,0.069
6.670,0.026
6.675,-0.090
6.680,0.028
6.685,0.075
6.690,-0.072
6.695,-0.031
6.700,0.079
6.705,-0.053
6.710,-0.092
6.715,0.092
6.720,0.107
6.725,0.048
6.730,0.213
6.735,0.312
6.740,0.158
6.745,0.078
6.750,0.086
6.755,-0.083
6.760,-0.161
6.765,-0.006
6.770,-0.038
6.775,-0.165
6.780,-0.048
6.785,0.003
6.790,-0.142
6.795,-0.093
6.800,0.033
6.805,-0.079
6.810,-0.122
6.815,0.031
6.820,-0.008
6.825,-0.132
6.830,-0.017
6.835,0.038
6.840,-0.100
6.845,-0.057
6.850,0.061
6.855,-0.053
6.860,-0.098
6.865,0.050
6.870,0.014
6.875,-0.103
6.880,0.014
6.885,0.066
6.890,-0.079
6.895,-0.039
6.900,0.084
6.905,-0.030
6.910,-0.082
6.915,0.067
6.920,0.029
6.925,-0.092
6.930,0.022
6.935,0.070
6.940,-0.078
6.945,-0.040
6.950,0.078
6.955,-0.037
6.960,-0.085
6.965,0.062
6.970,0.025
6.975,-0.097
6.980,0.017
6.985,0.073
6.990,-0.072
6.995,-0.035
7.000,0.089
7.005,-0.024
7.010,-0.078
7.015,0.069
7.020,0.032
7.025,-0.094
7.030,0.020
7.035,0.077
7.040,-0.069
7.045,-0.037
7.050,0.085
7.055,-0.027
7.060,-0.083
7.065,0.061
7.070,0.027
7.075,-0.093
7.080,0.021
7.085,0.076
7.090,-0.068
7.095,-0.029
7.100,0.100
7.105,-0.011
7.110,-0.069
7.115,0.078
7.120,0.042
7.125,-0.082
7.130,0.032
7.135,0.089
7.140,-0.057
7.145,-0.022
7.150,0.105
7.155,-0.007
7.160,-0.068
7.165,0.071
7.170,0.037
7.175,-0.082
7.180,0.028
7.185,0.077
7.190,-0.071
7.195,-0.035
7.200,0.089
7.205,-0.023
7.210,-0.079
7.215,0.069
7.220,0.035
7.225,-0.091
7.230,0.022
7.235,0.080
7.240,-0.068
7.245,-0.036
7.250,0.090
7.255,-0.020
7.260,-0.078
7.265,0.071
7.270,0.040
7.275,-0.092
7.280,0.015
7.285,0.076
7.290,-0.066
7.295,-0.030
7.300,0.093
7.305,-0.027
7.310,-0.087
7.315,0.065
7.320,0.034
7.325,-0.091
7.330,0.021
7.335,0.082
7.340,-0.064
7.345,-0.036
7.350,0.091
7.355,-0.018
7.360,-0.076
7.365,0.073
7.370,0.042
7.375,-0.086
7.380,0.026
7.385,0.086
7.390,-0.065
7.395,-0.033
7.400,0.099
7.405,-0.016
7.410,-0.082
7.415,0.066
7.420,0.038
7.425,-0.093
7.430,0.016
7.435,0.080
7.440,-0.068
7.445,-0.038
7.450,0.095
7.455,-0.011
7.460,-0.076
7.465,0.068
7.470,0.039
7.475,-0.088
7.480,0.019
7.485,0.081
7.490,-0.063
7.495,-0.032
7.500,0.095
7.505,-0.019
7.510,-0.082
7.515,0.069
7.520,0.038
7.525,-0.100
7.530,0.010
7.535,0.079
7.540,-0.067
7.545,-0.043
7.550,0.086
7.555,-0.022
7.560,-0.087
7.565,0.061
7.570,0.039
7.575,-0.089
7.580,0.016
7.585,0.079
7.590,-0.067
7.595,-0.041
7.600,0.092
7.605,-0.014
7.610,-0.080
7.615,0.066
7.620,0.042
7.625,-0.094
7.630,0.005
7.635,0.076
7.640,-0.063
7.645,-0.039
7.650,0.092
7.655,-0.013
7.660,-0.079
7.665,0.071
7.670,0.050
7.675,-0.085
7.680,0.015
7.685,0.081
7.690,-0.064
7.695,-0.046
7.700,0.082
7.705,-0.021
7.710,-0.088
7.715,0.056
7.720,0.037
7.725,-0.088
7.730,0.015
7.735,0.078
7.740,-0.068
7.745,-0.043
7.750,0.091
7.755,-0.015
7.760,-0.084
7.765,0.063
7.770,0.043
7.775,-0.097
7.780,-0.008
7.785,0.059
7.790,-0.065
7.795,0.007
7.800,0.215
7.805,0.174
7.810,0.152
7.815,0.331
7.820,0.235
7.825,-0.047
7.830,-0.033
7.835,-0.004
7.840,-0.160
7.845,-0.120
7.850,0.017
7.855,-0.089
7.860,-0.164
7.865,-0.018
7.870,-0.027
7.875,-0.155
7.880,-0.051
7.885,0.026
7.890,-0.117
7.895,-0.096
7.900,0.044
7.905,-0.055
7.910,-0.126
7.915,0.024
7.920,0.011
7.925,-0.123
7.930,-0.024
7.935,0.051
7.940,-0.089
7.945,-0.068
7.950,0.065
7.955,-0.037
7.960,-0.105
7.965,0.045
7.970,0.032
7.975,-0.100
7.980,0.001
7.985,0.072
7.990,-0.074
7.995,-0.056
8.000,0.080
8.005,-0.022
8.010,-0.095
8.015,0.052
8.020,0.037
8.025,-0.100
8.030,-0.001
8.035,0.073
8.040,-0.073
8.045,-0.060
8.050,0.079
8.055,-0.018
8.060,-0.095
8.065,0.051
8.070,0.041
8.075,-0.093
8.080,0.002
8.085,0.075
8.090,-0.066
8.095,-0.047
8.100,0.089
8.105,-0.016
8.110,-0.096
8.115,0.050
8.120,0.038
8.125,-0.100
8.130,-0.004
8.135,0.072
8.140,-0.074
8.145,-0.062
8.150,0.079
8.155,-0.015
8.160,-0.090
8.165,0.059
8.170,0.049
8.175,-0.089
8.180,0.010
8.185,0.093
8.190,-0.053
8.195,-0.047
8.200,0.094
8.205,0.004
8.210,-0.072
8.215,0.076
8.220,0.065
8.225,-0.081
8.230,0.010
8.235,0.093
8.240,-0.049
8.245,-0.043
8.250,0.093
8.255,0.003
8.260,-0.075
8.265,0.068
8.270,0.058
8.275,-0.080
8.280,0.014
8.285,0.095
8.290,-0.047
8.295,-0.039
8.300,0.098
8.305,0.007
8.310,-0.077
8.315,0.060
8.320,0.051
8.325,-0.085
8.330,0.009
8.335,0.091
8.340,-0.049
8.345,-0.043
8.350,0.090
8.355,-0.005
8.360,-0.083
8.365,0.061
8.370,0.055
8.375,-0.083
8.380,0.009
8.385,0.093
8.390,-0.051
8.395,-0.045
8.400,0.097
8.405,0.006
8.410,-0.079
8.415,0.065
8.420,0.060
8.425,-0.080
8.430,0.013
8.435,0.100
8.440,-0.045
8.445,-0.047
8.450,0.093
8.455,0.007
8.460,-0.077
8.465,0.066
8.470,0.063
8.475,-0.077
8.480,0.020
8.485,0.107
8.490,-0.040
8.495,-0.044
8.500,0.095
8.505,0.010
8.510,-0.076
8.515,0.067
8.520,0.067
8.525,-0.076
8.530,0.014
8.535,0.104
8.540,-0.038
8.545,-0.039
8.550,0.100
8.555,0.012
8.560,-0.074
8.565,0.066
8.570,0.069
8.575,-0.070
8.580,0.014
8.585,0.098
8.590,-0.047
8.595,-0.047
8.600,0.100
8.605,0.015
8.610,-0.076
8.615,0.059
8.620,0.059
8.625,-0.081
8.630,0.007
8.635,0.098
8.640,-0.044
8.645,-0.047
8.650,0.094
8.655,0.009
8.660,-0.079
8.665,0.062
8.670,0.064
8.675,-0.078
8.680,0.009
8.685,0.103
8.690,-0.038
8.695,-0.043
8.700,0.100
8.705,0.014
8.710,-0.075
8.715,0.065
8.720,0.066
8.725,-0.074
8.730,0.011
8.735,0.098
8.740,-0.041
8.745,-0.042
8.750,0.102
8.755,0.014
8.760,-0.079
8.765,0.061
8.770,0.059
8.775,-0.091
8.780,-0.007
8.785,0.086
8.790,-0.054
8.795,-0.054
8.800,0.094
8.805,0.011
8.810,-0.081
8.815,0.061
8.820,0.066
8.825,-0.081
8.830,0.001
8.835,0.094
8.840,-0.047
8.845,-0.053
8.850,0.091
8.855,-0.001
8.860,-0.111
8.865,0.034
8.870,0.082
8.875,0.013
8.880,0.177
8.885,0.326
8.890,0.230
8.895,0.202
8.900,0.214
8.905,0.006
8.910,-0.161
8.915,-0.065
8.920,-0.043
8.925,-0.165
8.930,-0.086
8.935,0.010
8.940,-0.127
8.945,-0.135
8.950,0.015
8.955,-0.063
8.960,-0.164
8.965,-0.018
8.970,0.014
8.975,-0.124
8.980,-0.043
8.985,0.056
8.990,-0.082
8.995,-0.091
9.000,0.060
9.005,-0.016
9.010,-0.114
9.015,0.022
9.020,0.036
9.025,-0.102
9.030,-0.022
9.035,0.072
9.040,-0.064
9.045,-0.067
9.050,0.085
9.055,0.003
9.060,-0.104
9.065,0.034
9.070,0.053
9.075,-0.092
9.080,-0.013
9.085,0.086
9.090,-0.054
9.095,-0.065
9.100,0.083
9.105,0.006
9.110,-0.093
9.115,0.046
9.120,0.060
9.125,-0.086
9.130,-0.010
9.135,0.091
9.140,-0.042
9.145,-0.056
9.150,0.087
9.155,0.015
9.160,-0.080
9.165,0.059
9.170,0.077
9.175,-0.074
9.180,-0.004
9.185,0.098
9.190,-0.035
9.195,-0.051
9.200,0.089
9.205,0.008
9.210,-0.092
9.215,0.046
9.220,0.061
9.225,-0.087
9.230,-0.014
9.235,0.087
9.240,-0.047
9.245,-0.061
9.250,0.087
9.255,0.014
9.260,-0.085
9.265,0.055
9.270,0.075
9.275,-0.074
9.280,-0.003
9.285,0.101
9.290,-0.033
9.295,-0.052
9.300,0.091
9.305,0.018
9.310,-0.086
9.315,0.047
9.320,0.066
9.325,-0.083
9.330,-0.012
9.335,0.094
9.340,-0.038
9.345,-0.063
9.350,0.078
9.355,0.012
9.360,-0.086
9.365,0.047
9.370,0.066
9.375,-0.080
9.380,-0.010
9.385,0.094
9.390,-0.039
9.395,-0.059
9.400,0.089
9.405,0.018
9.410,-0.088
9.415,0.045
9.420,0.067
9.425,-0.081
9.430,-0.010
9.435,0.099
9.440,-0.038
9.445,-0.066
9.450,0.079
9.455,0.010
9.460,-0.094
9.465,0.041
9.470,0.063
9.475,-0.084
9.480,-0.015
9.485,0.093
9.490,-0.037
9.495,-0.061
9.500,0.080
9.505,0.008
9.510,-0.095
9.515,0.042
9.520,0.064
9.525,-0.086
9.530,-0.019
9.535,0.089
9.540,-0.043
9.545,-0.067
9.550,0.082
9.555,0.018
9.560,-0.091
9.565,0.039
9.570,0.065
9.575,-0.081
9.580,-0.012
9.585,0.097
9.590,-0.040
9.595,-0.067
9.600,0.086
9.605,0.024
9.610,-0.085
9.615,0.044
9.620,0.067
9.625,-0.082
9.630,-0.017
9.635,0.092
9.640,-0.039
9.645,-0.064
9.650,0.086
9.655,0.018
9.660,-0.095
9.665,0.037
9.670,0.066
9.675,-0.082
9.680,-0.017
9.685,0.092
9.690,-0.039
9.695,-0.067
9.700,0.079
9.705,0.016
9.710,-0.092
9.715,0.038
9.720,0.069
9.725,-0.078
9.730,-0.019
9.735,0.089
9.740,-0.038
9.745,-0.067
9.750,0.079
9.755,0.018
9.760,-0.089
9.765,0.037
9.770,0.062
9.775,-0.085
9.780,-0.016
9.785,0.099
9.790,-0.035
9.795,-0.069
9.800,0.082
9.805,0.023
9.810,-0.087
9.815,0.041
9.820,0.070
9.825,-0.083
9.830,-0.027
9.835,0.084
9.840,-0.047
9.845,-0.080
9.850,0.076
9.855,0.018
9.860,-0.099
9.865,0.030
9.870,0.063
9.875,-0.083
9.880,-0.018
9.885,0.094
9.890,-0.037
9.895,-0.072
9.900,0.078
9.905,0.022
9.910,-0.094
9.915,0.031
9.920,0.061
9.925,-0.093
9.930,-0.030
9.935,0.108
9.940,0.046
9.945,0.099
9.950,0.311
9.955,0.294
9.960,0.167
9.965,0.170
9.970,0.068
9.975,-0.160
9.980,-0.150
9.985,-0.026
9.990,-0.121
9.995,-0.149
10.000,0.004
10.005,-0.049
10.010,-0.165
10.015,-0.032
10.020,0.013
10.025,-0.135
10.030,-0.077
10.035,0.042
10.040,-0.085
10.045,-0.120
10.050,0.035
10.055,-0.016
10.060,-0.126
10.065,0.005
10.070,0.043
10.075,-0.109
10.080,-0.051
10.085,0.071
10.090,-0.051
10.095,-0.082
10.100,0.072
10.105,0.019
10.110,-0.096
10.115,0.029
10.120,0.068
10.125,-0.079
10.130,-0.024
10.135,0.093
10.140,-0.033
10.145,-0.074
10.150,0.075
10.155,0.020
10.160,-0.098
10.165,0.026
10.170,0.069
10.175,-0.079
10.180,-0.030
10.185,0.087
10.190,-0.035
10.195,-0.072
10.200,0.084
10.205,0.032
10.210,-0.092
10.215,0.032
10.220,0.081
10.225,-0.065
10.230,-0.012
10.235,0.104
10.240,-0.022
10.245,-0.061
10.250,0.087
10.255,0.032
10.260,-0.089
10.265,0.034
10.270,0.073
10.275,-0.079
10.280,-0.031
10.285,0.086
10.290,-0.036
10.295,-0.078
10.300,0.072
10.305,0.022
10.310,-0.094
10.315,0.029
10.320,0.074
10.325,-0.069
10.330,-0.018
10.335,0.096
10.340,-0.030
10.345,-0.069
10.350,0.085
10.355,0.029
10.360,-0.097
10.365,0.031
10.370,0.077
10.375,-0.074
10.380,-0.026
10.385,0.095
10.390,-0.026
10.395,-0.072
10.400,0.075
10.405,0.028
10.410,-0.093
10.415,0.030
10.420,0.079
10.425,-0.068
10.430,-0.023
10.435,0.095
10.440,-0.028
10.445,-0.074
10.450,0.080
10.455,0.035
10.460,-0.091
10.465,0.030
10.470,0.077
10.475,-0.076
10.480,-0.026
10.485,0.099
10.490,-0.025
10.495,-0.068
10.500,0.083
10.505,0.030
10.510,-0.098
10.515,0.028
10.520,0.080
10.525,-0.072
10.530,-0.030
10.535,0.094
10.540,-0.025
10.545,-0.073
10.550,0.080
10.555,0.035
10.560,-0.091
10.565,0.029
10.570,0.079
10.575,-0.071
10.580,-0.028
10.585,0.095
10.590,-0.025
10.595,-0.076
10.600,0.074
10.605,0.032
10.610,-0.089
10.615,0.029
10.620,0.078
10.625,-0.072
10.630,-0.030
10.635,0.091
10.640,-0.028
10.645,-0.076
10.650,0.075
10.655,0.034
10.660,-0.088
10.665,0.033
10.670,0.082
10.675,-0.077
10.680,-0.037
10.685,0.091
10.690,-0.025
10.695,-0.076
10.700,0.078
10.705,0.040
10.710,-0.088
10.715,0.027
10.720,0.080
10.725,-0.070
10.730,-0.029
10.735,0.097
10.740,-0.022
10.745,-0.077
10.750,0.074
10.755,0.035
10.760,-0.089
10.765,0.031
10.770,0.084
10.775,-0.070
10.780,-0.034
10.785,0.092
10.790,-0.025
10.795,-0.077
10.800,0.076
10.805,0.035
10.810,-0.092
10.815,0.031
10.820,0.085
10.825,-0.072
10.830,-0.036
10.835,0.093
10.840,-0.024
10.845,-0.082
10.850,0.065
10.855,0.022
10.860,-0.110
10.865,0.011
10.870,0.073
10.875,-0.076
10.880,-0.039
10.885,0.091
10.890,-0.025
10.895,-0.079
10.900,0.074
10.905,0.039
10.910,-0.089
10.915,0.025
10.920,0.085
10.925,-0.064
10.930,-0.032
10.935,0.089
10.940,-0.034
10.945,-0.092
10.950,0.074
10.955,0.086
10.960,0.035
10.965,0.214
10.970,0.304
10.975,0.161
10.980,0.127
10.985,0.129
10.990,-0.068
10.995,-0.174
11.000,-0.041
11.005,-0.048
11.010,-0.160
11.015,-0.047
11.020,0.015
11.025,-0.131
11.030,-0.095
11.035,0.039
11.040,-0.070
11.045,-0.130
11.050,0.019
11.055,-0.007
11.060,-0.129
11.065,-0.010
11.070,0.053
11.075,-0.099
11.080,-0.070
11.085,0.062
11.090,-0.045
11.095,-0.102
11.100,0.051
11.105,0.022
11.110,-0.104
11.115,0.012
11.120,0.075
11.125,-0.075
11.130,-0.040
11.135,0.094
11.140,-0.021
11.145,-0.087
11.150,0.064
11.155,0.035
11.160,-0.096
11.165,0.017
11.170,0.080
11.175,-0.072
11.180,-0.042
11.185,0.088
11.190,-0.020
11.195,-0.078
11.200,0.071
11.205,0.041
11.210,-0.090
11.215,0.022
11.220,0.089
11.225,-0.058
11.230,-0.030
11.235,0.101
11.240,-0.007
11.245,-0.068
11.250,0.080
11.255,0.043
11.260,-0.095
11.265,0.017
11.270,0.086
11.275,-0.063
11.280,-0.042
11.285,0.082
11.290,-0.030
11.295,-0.094
11.300,0.056
11.305,0.029
11.310,-0.102
11.315,0.010
11.320,0.079
11.325,-0.068
11.330,-0.040
11.335,0.096
11.340,-0.011
11.345,-0.078
11.350,0.074
11.355,0.049
11.360,-0.086
11.365,0.024
11.370,0.091
11.375,-0.060
11.380,-0.037
11.385,0.099
11.390,-0.006
11.395,-0.075
11.400,0.073
11.405,0.049
11.410,-0.084
11.415,0.023
11.420,0.093
11.425,-0.053
11.430,-0.033
11.435,0.097
11.440,-0.010
11.445,-0.081
11.450,0.066
11.455,0.047
11.460,-0.086
11.465,0.021
11.470,0.093
11.475,-0.057
11.480,-0.036
11.485,0.102
11.490,-0.004
11.495,-0.076
11.500,0.073
11.505,0.050
11.510,-0.088
11.515,0.017
11.520,0.090
11.525,-0.060
11.530,-0.040
11.535,0.096
11.540,-0.011
11.545,-0.083
11.550,0.068
11.555,0.047
11.560,-0.091
11.565,0.014
11.570,0.089
11.575,-0.061
11.580,-0.049
11.585,0.085
11.590,-0.015
11.595,-0.087
11.600,0.061
11.605,0.040
11.610,-0.095
11.615,0.011
11.620,0.084
11.625,-0.063
11.630,-0.043
11.635,0.097
11.640,-0.007
11.645,-0.081
11.650,0.068
11.655,0.049
11.660,-0.087
11.665,0.021
11.670,0.097
11.675,-0.057
11.680,-0.047
11.685,0.091
11.690,-0.007
11.695,-0.080
11.700,0.067
11.705,0.052
11.710,-0.085
11.715,0.018
11.720,0.097
11.725,-0.050
11.730,-0.041
11.735,0.091
11.740,-0.007
11.745,-0.080
11.750,0.067
11.755,0.051
11.760,-0.090
11.765,0.008
11.770,0.086
11.775,-0.063
11.780,-0.049
11.785,0.091
11.790,-0.011
11.795,-0.092
11.800,0.052
11.805,0.038
11.810,-0.098
11.815,0.003
11.820,0.081
11.825,-0.068
11.830,-0.057
11.835,0.086
11.840,-0.011
11.845,-0.091
11.850,0.056
11.855,0.043
11.860,-0.102
11.865,-0.007
11.870,0.074
11.875,-0.073
11.880,-0.066
11.885,0.075
11.890,-0.016
11.895,-0.093
11.900,0.057
11.905,0.048
11.910,-0.092
11.915,0.007
11.920,0.087
11.925,-0.059
11.930,-0.047
11.935,0.093
11.940,-0.004
11.945,-0.091
11.950,0.045
11.955,0.034
11.960,-0.086
11.965,0.057
11.970,0.208
11.975,0.118
11.980,0.167
11.985,0.341
11.990,0.181
11.995,-0.040
12.000,0.026
12.005,-0.021
12.010,-0.175
12.015,-0.061
12.020,0.030
12.025,-0.116
12.030,-0.108
12.035,0.026
12.040,-0.070
12.045,-0.145
12.050,0.010
12.055,0.011
12.060,-0.126
12.065,-0.028
12.070,0.059
12.075,-0.085
12.080,-0.075
12.085,0.072
12.090,-0.021
12.095,-0.106
12.100,0.042
12.105,0.041
12.110,-0.097
12.115,0.000
12.120,0.086
12.125,-0.057
12.130,-0.051
12.135,0.095
12.140,0.005
12.145,-0.079
12.150,0.066
12.155,0.062
12.160,-0.082
12.165,0.011
12.170,0.098
12.175,-0.053
12.180,-0.057
12.185,0.087
12.190,-0.002
12.195,-0.092
12.200,0.051
12.205,0.047
12.210,-0.094
12.215,-0.005
12.220,0.076
12.225,-0.070
12.230,-0.064
12.235,0.081
12.240,-0.009
12.245,-0.091
12.250,0.059
12.255,0.058
12.260,-0.086
12.265,0.004
12.270,0.088
12.275,-0.059
12.280,-0.058
12.285,0.087
12.290,-0.004
12.295,-0.094
12.300,0.051
12.305,0.052
12.310,-0.089
12.315,0.002
12.320,0.086
12.325,-0.062
12.330,-0.057
12.335,0.094
12.340,0.009
12.345,-0.079
12.350,0.066
12.355,0.069
12.360,-0.071
12.365,0.020
12.370,0.106
12.375,-0.044
12.380,-0.044
12.385,0.103
12.390,0.015
12.395,-0.075
12.400,0.069
12.405,0.067
12.410,-0.080
12.415,0.006
12.420,0.095
12.425,-0.050
12.430,-0.053
12.435,0.092
12.440,0.003
12.445,-0.089
12.450,0.058
12.455,0.061
12.460,-0.091
12.465,-0.008
12.470,0.085
12.475,-0.056
12.480,-0.063
12.485,0.080
12.490,-0.005
12.495,-0.096
12.500,0.046
12.505,0.050
12.510,-0.093
12.515,-0.007
12.520,0.082
12.525,-0.062
12.530,-0.066
12.535,0.078
12.540,-0.006
12.545,-0.097
12.550,0.046
12.555,0.052
12.560,-0.092
12.565,-0.006
12.570,0.089
12.575,-0.051
12.580,-0.057
12.585,0.088
12.590,0.004
12.595,-0.088
12.600,0.051
12.605,0.052
12.610,-0.093
12.615,-0.004
12.620,0.091
12.625,-0.054
12.630,-0.060
12.635,0.088
12.640,0.004
12.645,-0.092
12.650,0.052
12.655,0.060
12.660,-0.086
12.665,-0.001
12.670,0.092
12.675,-0.054
12.680,-0.060
12.685,0.090
12.690,0.007
12.695,-0.088
12.700,0.053
12.705,0.058
12.710,-0.090
12.715,-0.005
12.720,0.095
12.725,-0.048
12.730,-0.063
12.735,0.080
12.740,0.003
12.745,-0.091
12.750,0.047
12.755,0.054
12.760,-0.092
12.765,-0.011
12.770,0.085
12.775,-0.055
12.780,-0.064
12.785,0.084
12.790,0.007
12.795,-0.089
12.800,0.048
12.805,0.052
12.810,-0.098
12.815,-0.018
12.820,0.081
12.825,-0.058
12.830,-0.066
12.835,0.084
12.840,0.004
12.845,-0.094
12.850,0.050
12.855,0.060
12.860,-0.097
12.865,-0.019
12.870,0.086
12.875,-0.052
12.880,-0.066
12.885,0.083
12.890,0.007
12.895,-0.088
12.900,0.053
12.905,0.060
12.910,-0.093
12.915,-0.017
12.920,0.082
12.925,-0.058
12.930,-0.071
12.935,0.078
12.940,0.000
12.945,-0.103
12.950,0.037
12.955,0.055
12.960,-0.102
12.965,-0.027
12.970,0.093
12.975,-0.036
12.980,-0.052
12.985,0.095
12.990,0.014
12.995,-0.091
13.000,0.047
13.005,0.054
13.010,-0.105
13.015,-0.025
13.020,0.107
13.025,0.032
13.030,0.086
13.035,0.286
13.040,0.260
13.045,0.149
13.050,0.162
13.055,0.060
13.060,-0.143
13.065,-0.107
13.070,-0.005
13.075,-0.128
13.080,-0.146
13.085,0.004
13.090,-0.064
13.095,-0.159
13.100,-0.017
13.105,0.001
13.110,-0.151
13.115,-0.074
13.120,0.035
13.125,-0.097
13.130,-0.112
13.135,0.040
13.140,-0.026
13.145,-0.125
13.150,0.013
13.155,0.035
13.160,-0.112
13.165,-0.039
13.170,0.071
13.175,-0.058
13.180,-0.077
13.185,0.071
13.190,0.001
13.195,-0.100
13.200,0.038
13.205,0.060
13.210,-0.083
13.215,-0.013
13.220,0.086
13.225,-0.051
13.230,-0.068
13.235,0.081
13.240,0.010
13.245,-0.094
13.250,0.042
13.255,0.064
13.260,-0.085
13.265,-0.016
13.270,0.089
13.275,-0.046
13.280,-0.067
13.285,0.085
13.290,0.016
13.295,-0.093
13.300,0.042
13.305,0.068
13.310,-0.079
13.315,-0.008
13.320,0.102
13.325,-0.033
13.330,-0.066
13.335,0.078
13.340,0.015
13.345,-0.090
13.350,0.041
13.355,0.061
13.360,-0.090
13.365,-0.020
13.370,0.090
13.375,-0.044
13.380,-0.068
13.385,0.083
13.390,0.015
13.395,-0.089
13.400,0.051
13.405,0.078
13.410,-0.075
13.415,-0.011
13.420,0.100
13.425,-0.028
13.430,-0.050
13.435,0.098
13.440,0.030
13.445,-0.076
13.450,0.056
13.455,0.076
13.460,-0.076
13.465,-0.007
13.470,0.100
13.475,-0.034
13.480,-0.062
13.485,0.087
13.490,0.022
13.495,-0.090
13.500,0.041
13.505,0.069
13.510,-0.080
13.515,-0.016
13.520,0.094
13.525,-0.040
13.530,-0.069
13.535,0.083
13.540,0.019
13.545,-0.093
13.550,0.041
13.555,0.074
13.560,-0.075
13.565,-0.015
13.570,0.089
13.575,-0.043
13.580,-0.068
13.585,0.085
13.590,0.025
13.595,-0.087
13.600,0.041
13.605,0.064
13.610,-0.088
13.615,-0.023
13.620,0.090
13.625,-0.041
13.630,-0.072
13.635,0.075
13.640,0.013
13.645,-0.099
13.650,0.030
13.655,0.062
13.660,-0.087
13.665,-0.027
13.670,0.084
13.675,-0.047
13.680,-0.081
13.685,0.069
13.690,0.008
13.695,-0.102
13.700,0.033
13.705,0.063
13.710,-0.094
13.715,-0.036
13.720,0.081
13.725,-0.046
13.730,-0.079
13.735,0.069
13.740,0.003
13.745,-0.112
13.750,0.023
13.755,0.058
13.760,-0.095
13.765,-0.035
13.770,0.080
13.775,-0.051
13.780,-0.085
13.785,0.067
13.790,0.009
13.795,-0.105
13.800,0.023
13.805,0.057
13.810,-0.093
13.815,-0.034
13.820,0.082
13.825,-0.047
13.830,-0.085
13.835,0.066
13.840,0.011
13.845,-0.103
13.850,0.026
13.855,0.060
13.860,-0.095
13.865,-0.038
13.870,0.081
13.875,-0.052
13.880,-0.093
13.885,0.062
13.890,0.012
13.895,-0.104
13.900,0.025
13.905,0.063
13.910,-0.093
13.915,-0.041
13.920,0.079
13.925,-0.042
13.930,-0.076
13.935,0.074
13.940,0.018
13.945,-0.096
13.950,0.034
13.955,0.072
13.960,-0.083
13.965,-0.031
13.970,0.088
13.975,-0.038
13.980,-0.079
13.985,0.070
13.990,0.018
13.995,-0.095
14.000,0.030
14.005,0.070
14.010,-0.078
14.015,-0.023
14.020,0.092
14.025,-0.032
14.030,-0.067
14.035,0.086
14.040,0.033
14.045,-0.089
14.050,0.037
14.055,0.078
14.060,-0.085
14.065,-0.044
14.070,0.087
14.075,0.002
14.080,0.033
14.085,0.265
14.090,0.270
14.095,0.196
14.100,0.295
14.105,0.197
14.110,-0.079
14.115,-0.093
14.120,-0.007
14.125,-0.113
14.130,-0.136
14.135,0.011
14.140,-0.040
14.145,-0.156
14.150,-0.031
14.155,0.013
14.160,-0.133
14.165,-0.074
14.170,0.051
14.175,-0.070
14.180,-0.109
14.185,0.046
14.190,-0.002
14.195,-0.119
14.200,0.011
14.205,0.061
14.210,-0.090
14.215,-0.038
14.220,0.089
14.225,-0.033
14.230,-0.077
14.235,0.077
14.240,0.033
14.245,-0.087
14.250,0.035
14.255,0.082
14.260,-0.068
14.265,-0.021
14.270,0.101
14.275,-0.020
14.280,-0.059
14.285,0.094
14.290,0.035
14.295,-0.095
14.300,0.033
14.305,0.085
14.310,-0.066
14.315,-0.020
14.320,0.103
14.325,-0.019
14.330,-0.067
14.335,0.086
14.340,0.042
14.345,-0.081
14.350,0.044
14.355,0.095
14.360,-0.058
14.365,-0.014
14.370,0.112
14.375,-0.009
14.380,-0.058
14.385,0.096
14.390,0.052
14.395,-0.077
14.400,0.040
14.405,0.088
14.410,-0.061
14.415,-0.017
14.420,0.103
14.425,-0.021
14.430,-0.068
14.435,0.087
14.440,0.041
14.445,-0.084
14.450,0.041
14.455,0.096
14.460,-0.054
14.465,-0.011
14.470,0.112
14.475,-0.010
14.480,-0.059
14.485,0.096
14.490,0.053
14.495,-0.074
14.500,0.048
14.505,0.098
14.510,-0.059
14.515,-0.017
14.520,0.110
14.525,-0.011
14.530,-0.066
14.535,0.086
14.540,0.044
14.545,-0.080
14.550,0.044
14.555,0.092
14.560,-0.067
14.565,-0.025
14.570,0.108
14.575,-0.008
14.580,-0.066
14.585,0.082
14.590,0.041
14.595,-0.085
14.600,0.036
14.605,0.092
14.610,-0.061
14.615,-0.024
14.620,0.102
14.625,-0.018
14.630,-0.069
14.635,0.084
14.640,0.041
14.645,-0.089
14.650,0.031
14.655,0.088
14.660,-0.063
14.665,-0.025
14.670,0.102
14.675,-0.020
14.680,-0.080
14.685,0.074
14.690,0.040
14.695,-0.090
14.700,0.028
14.705,0.085
14.710,-0.070
14.715,-0.035
14.720,0.094
14.725,-0.022
14.730,-0.079
14.735,0.074
14.740,0.037
14.745,-0.094
14.750,0.023
14.755,0.083
14.760,-0.068
14.765,-0.032
14.770,0.097
14.775,-0.022
14.780,-0.082
14.785,0.073
14.790,0.038
14.795,-0.094
14.800,0.021
14.805,0.078
14.810,-0.071
14.815,-0.032
14.820,0.091
14.825,-0.029
14.830,-0.082
14.835,0.072
14.840,0.035
14.845,-0.095
14.850,0.024
14.855,0.084
14.860,-0.074
14.865,-0.043
14.870,0.087
14.875,-0.027
14.880,-0.086
14.885,0.067
14.890,0.033
14.895,-0.097
14.900,0.019
14.905,0.079
14.910,-0.075
14.915,-0.043
14.920,0.090
14.925,-0.023
14.930,-0.084
14.935,0.070
14.940,0.038
14.945,-0.094
14.950,0.025
14.955,0.089
14.960,-0.072
14.965,-0.050
14.970,0.084
14.975,-0.024
14.980,-0.084
14.985,0.070
14.990,0.040
14.995,-0.093
15.000,0.018
15.005,0.080
15.010,-0.069
15.015,-0.040
15.020,0.088
15.025,-0.027
15.030,-0.091
15.035,0.060
15.040,0.028
15.045,-0.105
15.050,0.011
15.055,0.078
15.060,-0.073
15.065,-0.043
15.070,0.088
15.075,-0.023
15.080,-0.085
15.085,0.067
15.090,0.039
15.095,-0.094
15.100,0.013
15.105,0.073
15.110,-0.078
15.115,-0.056
15.120,0.069
15.125,-0.035
15.130,-0.059
15.135,0.172
15.140,0.223
15.145,0.140
15.150,0.296
15.155,0.338
15.160,0.045
15.165,-0.055
15.170,0.014
15.175,-0.130
15.180,-0.177
15.185,-0.007
15.190,-0.039
15.195,-0.174
15.200,-0.061
15.205,0.010
15.210,-0.134
15.215,-0.102
15.220,0.035
15.225,-0.070
15.230,-0.130
15.235,0.022
15.240,-0.008
15.245,-0.142
15.250,-0.025
15.255,0.048
15.260,-0.099
15.265,-0.071
15.270,0.069
15.275,-0.035
15.280,-0.101
15.285,0.049
15.290,0.023
15.295,-0.108
15.300,0.003
15.305,0.072
15.310,-0.076
15.315,-0.049
15.320,0.089
15.325,-0.021
15.330,-0.094
15.335,0.058
15.340,0.035
15.345,-0.103
15.350,0.005
15.355,0.077
15.360,-0.075
15.365,-0.052
15.370,0.085
15.375,-0.020
15.380,-0.085
15.385,0.065
15.390,0.035
15.395,-0.104
15.400,0.007
15.405,0.079
15.410,-0.070
15.415,-0.041
15.420,0.098
15.425,-0.015
15.430,-0.089
15.435,0.064
15.440,0.044
15.445,-0.094
15.450,0.011
15.455,0.080
15.460,-0.074
15.465,-0.054
15.470,0.083
15.475,-0.023
15.480,-0.097
15.485,0.054
15.490,0.036
15.495,-0.099
15.500,0.010
15.505,0.084
15.510,-0.068
15.515,-0.044
15.520,0.100
15.525,-0.007
15.530,-0.084
15.535,0.068
15.540,0.051
15.545,-0.084
15.550,0.022
15.555,0.095
15.560,-0.055
15.565,-0.035
15.570,0.104
15.575,-0.006
15.580,-0.084
15.585,0.068
15.590,0.050
15.595,-0.090
15.600,0.015
15.605,0.088
15.610,-0.063
15.615,-0.046
15.620,0.091
15.625,-0.012
15.630,-0.085
15.635,0.066
15.640,0.050
15.645,-0.090
15.650,0.006
15.655,0.080
15.660,-0.066
15.665,-0.049
15.670,0.094
15.675,-0.006
15.680,-0.089
15.685,0.055
15.690,0.042
15.695,-0.093
15.700,0.008
15.705,0.087
15.710,-0.060
15.715,-0.050
15.720,0.085
15.725,-0.016
15.730,-0.092
15.735,0.061
15.740,0.048
15.745,-0.097
15.750,0.003
15.755,0.085
15.760,-0.062
15.765,-0.049
15.770,0.092
15.775,-0.009
15.780,-0.086
15.785,0.065
15.790,0.051
15.795,-0.089
15.800,0.015
15.805,0.092
15.810,-0.058
15.815,-0.043
15.820,0.099
15.825,0.000
15.830,-0.076
15.835,0.076
15.840,0.062
15.845,-0.087
15.850,0.010
15.855,0.095
15.860,-0.053
15.865,-0.046
15.870,0.093
15.875,-0.003
15.880,-0.080
15.885,0.067
15.890,0.058
15.895,-0.082
15.900,0.016
15.905,0.098
15.910,-0.053
15.915,-0.046
15.920,0.094
15.925,-0.003
15.930,-0.082
15.935,0.064
15.940,0.052
15.945,-0.087
15.950,0.010
15.955,0.092
15.960,-0.057
15.965,-0.051
15.970,0.091
15.975,-0.004
15.980,-0.081
15.985,0.074
15.990,0.063
15.995,-0.086
16.000,0.008
16.005,0.087
16.010,-0.062
16.015,-0.048
16.020,0.098
16.025,0.002
16.030,-0.080
16.035,0.068
16.040,0.061
16.045,-0.081
16.050,0.010
16.055,0.089
16.060,-0.059
16.065,-0.053
16.070,0.087
16.075,-0.009
16.080,-0.094
16.085,0.055
16.090,0.054
16.095,-0.087
16.100,0.005
16.105,0.091
16.110,-0.051
16.115,-0.045
16.120,0.100
16.125,0.007
16.130,-0.084
16.135,0.057
16.140,0.056
16.145,-0.082
16.150,0.006
16.155,0.075
16.160,-0.079
16.165,-0.052
16.170,0.153
16.175,0.150
16.180,0.136
16.185,0.326
16.190,0.332
16.195,0.094
16.200,0.040
16.205,0.035
16.210,-0.169
16.215,-0.181
16.220,-0.003
16.225,-0.078
16.230,-0.164
16.235,-0.015
16.240,-0.015
16.245,-0.158
16.250,-0.059
16.255,0.033
16.260,-0.109
16.265,-0.102
16.270,0.046
16.275,-0.041
16.280,-0.122
16.285,0.027
16.290,0.022
16.295,-0.125
16.300,-0.028
16.305,0.065
16.310,-0.077
16.315,-0.071
16.320,0.076
16.325,-0.013
16.330,-0.100
16.335,0.047
16.340,0.050
16.345,-0.092
16.350,-0.004
16.355,0.086
16.360,-0.058
16.365,-0.060
16.370,0.087
16.375,-0.002
16.380,-0.096
16.385,0.047
16.390,0.051
16.395,-0.090
16.400,0.002
16.405,0.093
16.410,-0.054
16.415,-0.055
16.420,0.088
16.425,0.000
16.430,-0.088
16.435,0.058
16.440,0.061
16.445,-0.085
16.450,0.006
16.455,0.099
16.460,-0.045
16.465,-0.046
16.470,0.102
16.475,0.014
16.480,-0.083
16.485,0.058
16.490,0.058
16.495,-0.091
16.500,-0.009
16.505,0.080
16.510,-0.064
16.515,-0.066
16.520,0.082
16.525,-0.002
16.530,-0.093
16.535,0.053
16.540,0.057
16.545,-0.089
16.550,-0.003
16.555,0.087
16.560,-0.059
16.565,-0.059
16.570,0.091
16.575,0.005
16.580,-0.088
16.585,0.056
16.590,0.063
16.595,-0.085
16.600,-0.001
16.605,0.095
16.610,-0.047
16.615,-0.056
16.620,0.089
16.625,0.003
16.630,-0.092
16.635,0.051
16.640,0.056
16.645,-0.092
16.650,-0.006
16.655,0.089
16.660,-0.054
16.665,-0.062
16.670,0.089
16.675,0.010
16.680,-0.091
16.685,0.047
16.690,0.061
16.695,-0.083
16.700,-0.009
16.705,0.083
16.710,-0.056
16.715,-0.062
16.720,0.090
16.725,0.010
16.730,-0.086
16.735,0.058
16.740,0.064
16.745,-0.086
16.750,-0.001
16.755,0.097
16.760,-0.049
16.765,-0.060
16.770,0.087
16.775,0.005
16.780,-0.088
16.785,0.054
16.790,0.062
16.795,-0.084
16.800,-0.002
16.805,0.095
16.810,-0.049
16.815,-0.062
16.820,0.091
16.825,0.015
16.830,-0.094
16.835,0.040
16.840,0.056
16.845,-0.088
16.850,-0.007
16.855,0.089
16.860,-0.051
16.865,-0.060
16.870,0.087
16.875,0.007
16.880,-0.092
16.885,0.049
16.890,0.062
16.895,-0.087
16.900,-0.008
16.905,0.092
16.910,-0.051
16.915,-0.063
16.920,0.087
16.925,0.007
16.930,-0.092
16.935,0.051
16.940,0.065
16.945,-0.084
16.950,-0.003
16.955,0.098
16.960,-0.054
16.965,-0.076
16.970,0.090
16.975,0.021
16.980,-0.086
16.985,0.054
16.990,0.072
16.995,-0.079
17.000,-0.005
17.005,0.091
17.010,-0.052
17.015,-0.065
17.020,0.086
17.025,0.011
17.030,-0.091
17.035,0.047
17.040,0.066
17.045,-0.081
17.050,-0.008
17.055,0.089
17.060,-0.051
17.065,-0.070
17.070,0.080
17.075,0.009
17.080,-0.096
17.085,0.037
17.090,0.057
17.095,-0.088
17.100,-0.012
17.105,0.093
17.110,-0.046
17.115,-0.065
17.120,0.088
17.125,0.017
17.130,-0.086
17.135,0.056
17.140,0.079
17.145,-0.077
17.150,-0.012
17.155,0.087
17.160,-0.056
17.165,-0.066
17.170,0.126
17.175,0.125
17.180,0.084
17.185,0.256
17.190,0.306
17.195,0.119
17.200,0.062
17.205,0.069
17.210,-0.118
17.215,-0.170
17.220,0.001
17.225,-0.047
17.230,-0.154
17.235,-0.016
17.240,0.009
17.245,-0.138
17.250,-0.064
17.255,0.047
17.260,-0.084
17.265,-0.105
17.270,0.046
17.275,-0.021
17.280,-0.128
17.285,0.013
17.290,0.043
17.295,-0.107
17.300,-0.044
17.305,0.065
17.310,-0.061
17.315,-0.080
17.320,0.071
17.325,0.006
17.330,-0.100
17.335,0.036
17.340,0.063
17.345,-0.085
17.350,-0.017
17.355,0.094
17.360,-0.036
17.365,-0.064
17.370,0.081
17.375,0.017
17.380,-0.088
17.385,0.041
17.390,0.061
17.395,-0.090
17.400,-0.024
17.405,0.085
17.410,-0.048
17.415,-0.074
17.420,0.077
17.425,0.012
17.430,-0.099
17.435,0.035
17.440,0.064
17.445,-0.083
17.450,-0.013
17.455,0.100
17.460,-0.035
17.465,-0.067
17.470,0.081
17.475,0.018
17.480,-0.091
17.485,0.041
17.490,0.066
17.495,-0.085
17.500,-0.023
17.505,0.084
17.510,-0.049
17.515,-0.077
17.520,0.075
17.525,0.014
17.530,-0.093
17.535,0.043
17.540,0.076
17.545,-0.072
17.550,-0.008
17.555,0.108
17.560,-0.018
17.565,-0.050
17.570,0.095
17.575,0.033
17.580,-0.074
17.585,0.059
17.590,0.088
17.595,-0.062
17.600,0.001
17.605,0.111
17.610,-0.020
17.615,-0.052
17.620,0.095
17.625,0.032
17.630,-0.080
17.635,0.050
17.640,0.080
17.645,-0.074
17.650,-0.015
17.655,0.097
17.660,-0.033
17.665,-0.066
17.670,0.083
17.675,0.025
17.680,-0.090
17.685,0.039
17.690,0.074
17.695,-0.076
17.700,-0.019
17.705,0.094
17.710,-0.034
17.715,-0.069
17.720,0.080
17.725,0.022
17.730,-0.093
17.735,0.036
17.740,0.072
17.745,-0.078
17.750,-0.018
17.755,0.102
17.760,-0.027
17.765,-0.065
17.770,0.085
17.775,0.029
17.780,-0.083
17.785,0.047
17.790,0.081
17.795,-0.073
17.800,-0.019
17.805,0.100
17.810,-0.025
17.815,-0.064
17.820,0.083
17.825,0.028
17.830,-0.088
17.835,0.038
17.840,0.075
17.845,-0.074
17.850,-0.017
17.855,0.102
17.860,-0.025
17.865,-0.070
17.870,0.076
17.875,0.022
17.880,-0.095
17.885,0.030
17.890,0.067
17.895,-0.082
17.900,-0.025
17.905,0.093
17.910,-0.036
17.915,-0.080
17.920,0.069
17.925,0.018
17.930,-0.099
17.935,0.027
17.940,0.072
17.945,-0.079
17.950,-0.037
17.955,0.075
17.960,-0.046
17.965,-0.083
17.970,0.068
17.975,0.017
17.980,-0.099
17.985,0.027
17.990,0.068
17.995,-0.080
18.000,-0.027
18.005,0.089
18.010,-0.036
18.015,-0.080
18.020,0.067
18.025,0.020
18.030,-0.097
18.035,0.024
18.040,0.068
18.045,-0.082
18.050,-0.032
18.055,0.091
18.060,-0.031
18.065,-0.078
18.070,0.068
18.075,0.017
18.080,-0.103
18.085,0.019
18.090,0.061
18.095,-0.090
18.100,-0.035
18.105,0.092
18.110,-0.031
18.115,-0.082
18.120,0.065
18.125,0.019
18.130,-0.101
18.135,0.022
18.140,0.070
18.145,-0.078
18.150,-0.029
18.155,0.092
18.160,-0.031
18.165,-0.082
18.170,0.054
18.175,0.003
18.180,-0.096
18.185,0.075
18.190,0.194
18.195,0.106
18.200,0.198
18.205,0.350
18.210,0.155
18.215,-0.035
18.220,0.035
18.225,-0.054
18.230,-0.192
18.235,-0.053
18.240,-0.005
18.245,-0.156
18.250,-0.101
18.255,0.024
18.260,-0.095
18.265,-0.141
18.270,0.007
18.275,-0.034
18.280,-0.145
18.285,-0.019
18.290,0.028
18.295,-0.121
18.300,-0.070
18.305,0.057
18.310,-0.060
18.315,-0.106
18.320,0.048
18.325,0.006
18.330,-0.115
18.335,0.007
18.340,0.059
18.345,-0.089
18.350,-0.045
18.355,0.081
18.360,-0.036
18.365,-0.083
18.370,0.068
18.375,0.024
18.380,-0.099
18.385,0.021
18.390,0.070
18.395,-0.080
18.400,-0.036
18.405,0.088
18.410,-0.032
18.415,-0.086
18.420,0.060
18.425,0.020
18.430,-0.102
18.435,0.016
18.440,0.072
18.445,-0.074
18.450,-0.036
18.455,0.081
18.460,-0.039
18.465,-0.085
18.470,0.069
18.475,0.029
18.480,-0.094
18.485,0.025
18.490,0.077
18.495,-0.073
18.500,-0.034
18.505,0.088
18.510,-0.032
18.515,-0.084
18.520,0.065
18.525,0.025
18.530,-0.099
18.535,0.019
18.540,0.073
18.545,-0.073
18.550,-0.028
18.555,0.101
18.560,-0.020
18.565,-0.081
18.570,0.071
18.575,0.041
18.580,-0.081
18.585,0.034
18.590,0.086
18.595,-0.063
18.600,-0.023
18.605,0.103
18.610,-0.015
18.615,-0.068
18.620,0.083
18.625,0.044
18.630,-0.082
18.635,0.034
18.640,0.088
18.645,-0.064
18.650,-0.028
18.655,0.097
18.660,-0.020
18.665,-0.076
18.670,0.073
18.675,0.034
18.680,-0.093
18.685,0.023
18.690,0.082
18.695,-0.065
18.700,-0.031
18.705,0.090
18.710,-0.027
18.715,-0.084
18.720,0.066
18.725,0.033
18.730,-0.090
18.735,0.028
18.740,0.082
18.745,-0.075
18.750,-0.041
18.755,0.092
18.760,-0.023
18.765,-0.082
18.770,0.068
18.775,0.035
18.780,-0.091
18.785,0.023
18.790,0.081
18.795,-0.068
18.800,-0.034
18.805,0.095
18.810,-0.016
18.815,-0.077
18.820,0.074
18.825,0.048
18.830,-0.086
18.835,0.018
18.840,0.079
18.845,-0.068
18.850,-0.037
18.855,0.093
18.860,-0.018
18.865,-0.079
18.870,0.071
18.875,0.037
18.880,-0.090
18.885,0.028
18.890,0.086
18.895,-0.069
18.900,-0.038
18.905,0.094
18.910,-0.017
18.915,-0.077
18.920,0.073
18.925,0.040
18.930,-0.090
18.935,0.023
18.940,0.086
18.945,-0.063
18.950,-0.031
18.955,0.101
18.960,-0.015
18.965,-0.083
18.970,0.066
18.975,0.039
18.980,-0.094
18.985,0.016
18.990,0.081
18.995,-0.068
19.000,-0.036
19.005,0.098
19.010,-0.018
19.015,-0.087
19.020,0.064
19.025,0.038
19.030,-0.092
19.035,0.021
19.040,0.087
19.045,-0.061
19.050,-0.036
19.055,0.091
19.060,-0.019
19.065,-0.082
19.070,0.068
19.075,0.042
19.080,-0.089
19.085,0.020
19.090,0.089
19.095,-0.057
19.100,-0.037
19.105,0.086
19.110,-0.024
19.115,-0.087
19.120,0.061
19.125,0.033
19.130,-0.101
19.135,0.004
19.140,0.072
19.145,-0.074
19.150,-0.045
19.155,0.093
19.160,-0.015
19.165,-0.083
19.170,0.068
19.175,0.045
19.180,-0.088
19.185,0.018
19.190,0.083
19.195,-0.065
19.200,-0.042
19.205,0.084
19.210,-0.036
19.215,-0.106
19.220,0.066
19.225,0.099
19.230,0.043
19.235,0.210
19.240,0.327
19.245,0.212
19.250,0.155
19.255,0.138
19.260,-0.056
19.265,-0.172
19.270,-0.032
19.275,-0.031
19.280,-0.164
19.285,-0.063
19.290,0.010
19.295,-0.137
19.300,-0.114
19.305,0.027
19.310,-0.070
19.315,-0.135
19.320,0.016
19.325,0.000
19.330,-0.133
19.335,-0.027
19.340,0.047
19.345,-0.097
19.350,-0.071
19.355,0.067
19.360,-0.038
19.365,-0.106
19.370,0.051
19.375,0.034
19.380,-0.107
19.385,-0.005
19.390,0.073
19.395,-0.069
19.400,-0.049
19.405,0.088
19.410,-0.015
19.415,-0.088
19.420,0.063
19.425,0.045
19.430,-0.094
19.435,0.009
19.440,0.082
19.445,-0.067
19.450,-0.052
19.455,0.081
19.460,-0.022
19.465,-0.094
19.470,0.054
19.475,0.037
19.480,-0.095
19.485,0.007
19.490,0.078
19.495,-0.069
19.500,-0.053
19.505,0.082
19.510,-0.018
19.515,-0.091
19.520,0.059
19.525,0.043
19.530,-0.095
19.535,0.003
19.540,0.075
19.545,-0.073
19.550,-0.058
19.555,0.076
19.560,-0.027
19.565,-0.102
19.570,0.048
19.575,0.031
19.580,-0.109
19.585,-0.005
19.590,0.074
19.595,-0.072
19.600,-0.052
19.605,0.091
19.610,-0.010
19.615,-0.091
19.620,0.054
19.625,0.044
19.630,-0.093
19.635,0.006
19.640,0.085
19.645,-0.062
19.650,-0.049
19.655,0.091
19.660,-0.008
19.665,-0.085
19.670,0.065
19.675,0.052
19.680,-0.091
19.685,0.009
19.690,0.087
19.695,-0.062
19.700,-0.050
19.705,0.090
19.710,-0.009
19.715,-0.089
19.720,0.060
19.725,0.053
19.730,-0.089
19.735,0.005
19.740,0.085
19.745,-0.063
19.750,-0.056
19.755,0.084
19.760,-0.008
19.765,-0.087
19.770,0.059
19.775,0.049
19.780,-0.091
19.785,0.005
19.790,0.087
19.795,-0.061
19.800,-0.053
19.805,0.091
19.810,-0.002
19.815,-0.081
19.820,0.065
19.825,0.054
19.830,-0.083
19.835,0.015
19.840,0.097
19.845,-0.051
19.850,-0.043
19.855,0.099
19.860,0.003
19.865,-0.079
19.870,0.067
19.875,0.057
19.880,-0.082
19.885,0.012
19.890,0.090
19.895,-0.053
19.900,-0.042
19.905,0.099
19.910,0.003
19.915,-0.081
19.920,0.067
19.925,0.061
19.930,-0.081
19.935,0.014
19.940,0.098
19.945,-0.046
19.950,-0.042
19.955,0.099
19.960,0.007
19.965,-0.077
19.970,0.068
19.975,0.062
19.980,-0.081
19.985,0.012
19.990,0.102
19.995,-0.040
20.000,-0.038
20.005,0.101
20.010,0.010
20.015,-0.072
20.020,0.068
20.025,0.060
20.030,-0.081
20.035,0.012
20.040,0.099
20.045,-0.045
20.050,-0.043
20.055,0.096
20.060,0.003
20.065,-0.081
20.070,0.069
20.075,0.066
20.080,-0.078
20.085,0.014
20.090,0.101
20.095,-0.046
20.100,-0.046
20.105,0.100
20.110,0.013
20.115,-0.074
20.120,0.070
20.125,0.067
20.130,-0.075
20.135,0.021
20.140,0.107
20.145,-0.048
20.150,-0.051
20.155,0.091
20.160,0.002
20.165,-0.087
20.170,0.054
20.175,0.053
20.180,-0.088
20.185,0.002
20.190,0.090
20.195,-0.053
20.200,-0.051
20.205,0.093
20.210,0.005
20.215,-0.081
20.220,0.065
20.225,0.067
20.230,-0.077
20.235,0.011
20.240,0.100
20.245,-0.050
20.250,-0.064
20.255,0.083
20.260,0.021
20.265,-0.014
20.270,0.211
20.275,0.281
20.280,0.186
20.285,0.283
20.290,0.277
20.295,-0.015
20.300,-0.113
20.305,-0.022
20.310,-0.110
20.315,-0.168
20.320,-0.021
20.325,-0.019
20.330,-0.156
20.335,-0.068
20.340,0.028
20.345,-0.109
20.350,-0.109
20.355,0.041
20.360,-0.040
20.365,-0.131
20.370,0.014
20.375,0.022
20.380,-0.122
20.385,-0.031
20.390,0.066
20.395,-0.079
20.400,-0.086
20.405,0.065
20.410,-0.013
20.415,-0.104
20.420,0.042
20.425,0.052
20.430,-0.093
20.435,-0.013
20.440,0.078
20.445,-0.060
20.450,-0.059
20.455,0.088
20.460,0.004
20.465,-0.089
20.470,0.051
20.475,0.055
20.480,-0.093
20.485,-0.009
20.490,0.087
20.495,-0.056
20.500,-0.066
20.505,0.082
20.510,0.001
20.515,-0.093
20.520,0.054
20.525,0.065
20.530,-0.086
20.535,-0.009
20.540,0.092
20.545,-0.042
20.550,-0.050
20.555,0.098
20.560,0.017
20.565,-0.078
20.570,0.063
20.575,0.068
20.580,-0.082
20.585,-0.004
20.590,0.085
20.595,-0.059
20.600,-0.068
20.605,0.079
20.610,-0.002
20.615,-0.098
20.620,0.041
20.625,0.052
20.630,-0.093
20.635,-0.009
20.640,0.094
20.645,-0.047
20.650,-0.061
20.655,0.088
20.660,0.012
20.665,-0.083
20.670,0.058
20.675,0.070
20.680,-0.079
20.685,-0.003
20.690,0.096
20.695,-0.041
20.700,-0.055
20.705,0.092
20.710,0.017
20.715,-0.082
20.720,0.050
20.725,0.055
20.730,-0.093
20.735,-0.012
20.740,0.090
20.745,-0.049
20.750,-0.061
20.755,0.087
20.760,0.010
20.765,-0.089
20.770,0.053
20.775,0.072
20.780,-0.078
20.785,-0.010
20.790,0.089
20.795,-0.046
20.800,-0.058
20.805,0.090
20.810,0.014
20.815,-0.089
20.820,0.050
20.825,0.066
20.830,-0.085
20.835,-0.009
20.840,0.099
20.845,-0.039
20.850,-0.065
20.855,0.078
20.860,0.008
20.865,-0.091
20.870,0.045
20.875,0.061
20.880,-0.085
20.885,-0.008
20.890,0.094
20.895,-0.045
20.900,-0.061
20.905,0.089
20.910,0.017
20.915,-0.085
20.920,0.042
20.925,0.056
20.930,-0.087
20.935,-0.012
20.940,0.088
20.945,-0.052
20.950,-0.067
20.955,0.087
20.960,0.005
20.965,-0.104
20.970,0.051
20.975,0.079
20.980,-0.080
20.985,-0.011
20.990,0.096
20.995,-0.038
21.000,-0.059
21.005,0.089
21.010,0.019
21.015,-0.086
21.020,0.046
21.025,0.063
21.030,-0.086
21.035,-0.015
21.040,0.090
21.045,-0.048
21.050,-0.073
21.055,0.073
21.060,0.006
21.065,-0.099
21.070,0.034
21.075,0.058
21.080,-0.088
21.085,-0.017
21.090,0.090
21.095,-0.045
21.100,-0.068
21.105,0.084
21.110,0.017
21.115,-0.092
21.120,0.035
21.125,0.056
21.130,-0.088
21.135,-0.020
21.140,0.085
21.145,-0.049
21.150,-0.071
21.155,0.084
21.160,0.016
21.165,-0.097
21.170,0.035
21.175,0.064
21.180,-0.083
21.185,-0.026
21.190,0.074
21.195,-0.054
21.200,-0.072
21.205,0.078
21.210,0.013
21.215,-0.092
21.220,0.042
21.225,0.068
21.230,-0.078
21.235,-0.006
21.240,0.105
21.245,-0.034
21.250,-0.067
21.255,0.088
21.260,0.024
21.265,-0.098
21.270,0.022
21.275,0.058
21.280,-0.057
21.285,0.075
21.290,0.255
21.295,0.161
21.300,0.159
21.305,0.284
21.310,0.098
21.315,-0.117
21.320,-0.034
21.325,-0.032
21.330,-0.166
21.335,-0.084
21.340,0.027
21.345,-0.100
21.350,-0.126
21.355,0.027
21.360,-0.030
21.365,-0.137
21.370,-0.003
21.375,0.032
21.380,-0.115
21.385,-0.056
21.390,0.052
21.395,-0.073
21.400,-0.097
21.405,0.056
21.410,-0.006
21.415,-0.118
21.420,0.014
21.425,0.051
21.430,-0.096
21.435,-0.033
21.440,0.082
21.445,-0.044
21.450,-0.073
21.455,0.078
21.460,0.020
21.465,-0.091
21.470,0.037
21.475,0.066
21.480,-0.083
21.485,-0.020
21.490,0.094
21.495,-0.038
21.500,-0.077
21.505,0.070
21.510,0.013
21.515,-0.097
21.520,0.037
21.525,0.071
21.530,-0.086
21.535,-0.030
21.540,0.092
21.545,-0.031
21.550,-0.066
21.555,0.084
21.560,0.023
21.565,-0.090
21.570,0.042
21.575,0.076
21.580,-0.074
21.585,-0.016
21.590,0.098
21.595,-0.031
21.600,-0.072
21.605,0.075
21.610,0.019
21.615,-0.098
21.620,0.027
21.625,0.065
21.630,-0.085
21.635,-0.026
21.640,0.094
21.645,-0.031
21.650,-0.068
21.655,0.083
21.660,0.023
21.665,-0.096
21.670,0.036
21.675,0.080
21.680,-0.070
21.685,-0.015
21.690,0.106
21.695,-0.021
21.700,-0.062
21.705,0.087
21.710,0.032
21.715,-0.086
21.720,0.037
21.725,0.072
21.730,-0.080
21.735,-0.023
21.740,0.098
21.745,-0.029
21.750,-0.071
21.755,0.079
21.760,0.024
21.765,-0.096
21.770,0.032
21.775,0.073
21.780,-0.077
21.785,-0.024
21.790,0.098
21.795,-0.024
21.800,-0.071
21.805,0.075
21.810,0.027
21.815,-0.088
21.820,0.033
21.825,0.070
21.830,-0.078
21.835,-0.023
21.840,0.097
21.845,-0.027
21.850,-0.065
21.855,0.093
21.860,0.040
21.865,-0.088
21.870,0.033
21.875,0.078
21.880,-0.071
21.885,-0.020
21.890,0.099
21.895,-0.026
21.900,-0.068
21.905,0.086
21.910,0.034
21.915,-0.091
21.920,0.032
21.925,0.078
21.930,-0.071
21.935,-0.017
21.940,0.108
21.945,-0.020
21.950,-0.070
21.955,0.083
21.960,0.039
21.965,-0.081
21.970,0.046
21.975,0.093
21.980,-0.061
21.985,-0.016
21.990,0.106
21.995,-0.016
22.000,-0.062
22.005,0.090
22.010,0.043
22.015,-0.082
22.020,0.037
22.025,0.085
22.030,-0.065
22.035,-0.019
22.040,0.103
22.045,-0.018
22.050,-0.064
22.055,0.087
22.060,0.040
22.065,-0.083
22.070,0.037
22.075,0.088
22.080,-0.060
22.085,-0.020
22.090,0.098
22.095,-0.020
22.100,-0.065
22.105,0.084
22.110,0.037
22.115,-0.089
22.120,0.029
22.125,0.077
22.130,-0.073
22.135,-0.025
22.140,0.102
22.145,-0.021
22.150,-0.076
22.155,0.073
22.160,0.030
22.165,-0.096
22.170,0.022
22.175,0.073
22.180,-0.081
22.185,-0.040
22.190,0.086
22.195,-0.034
22.200,-0.086
22.205,0.067
22.210,0.028
22.215,-0.094
22.220,0.026
22.225,0.076
22.230,-0.071
22.235,-0.027
22.240,0.094
22.245,-0.029
22.250,-0.079
22.255,0.076
22.260,0.035
22.265,-0.093
22.270,0.013
22.275,0.054
22.280,-0.089
22.285,-0.016
22.290,0.172
22.295,0.123
22.300,0.119
22.305,0.320
22.310,0.279
22.315,0.031
22.320,0.025
22.325,0.026
22.330,-0.157
22.335,-0.116
22.340,0.022
22.345,-0.097
22.350,-0.150
22.355,0.002
22.360,-0.034
22.365,-0.153
22.370,-0.030
22.375,0.028
22.380,-0.126
22.385,-0.088
22.390,0.046
22.395,-0.065
22.400,-0.120
22.405,0.033
22.410,0.000
22.415,-0.123
22.420,-0.004
22.425,0.055
22.430,-0.093
22.435,-0.053
22.440,0.077
22.445,-0.041
22.450,-0.099
22.455,0.054
22.460,0.020
22.465,-0.108
22.470,0.009
22.475,0.068
22.480,-0.085
22.485,-0.048
22.490,0.081
22.495,-0.036
22.500,-0.096
22.505,0.054
22.510,0.022
22.515,-0.108
22.520,0.006
22.525,0.072
22.530,-0.081
22.535,-0.057
22.540,0.073
22.545,-0.035
22.550,-0.094
22.555,0.056
22.560,0.026
22.565,-0.101
22.570,0.014
22.575,0.077
22.580,-0.070
22.585,-0.038
22.590,0.091
22.595,-0.024
22.600,-0.090
22.605,0.059
22.610,0.030
22.615,-0.102
22.620,0.007
22.625,0.071
22.630,-0.073
22.635,-0.043
22.640,0.083
22.645,-0.027
22.650,-0.085
22.655,0.069
22.660,0.044
22.665,-0.089
22.670,0.016
22.675,0.081
22.680,-0.062
22.685,-0.032
22.690,0.099
22.695,-0.011
22.700,-0.075
22.705,0.075
22.710,0.049
22.715,-0.086
22.720,0.022
22.725,0.086
22.730,-0.063
22.735,-0.037
22.740,0.092
22.745,-0.021
22.750,-0.087
22.755,0.063
22.760,0.037
22.765,-0.097
22.770,0.008
22.775,0.074
22.780,-0.072
22.785,-0.047
22.790,0.086
22.795,-0.017
22.800,-0.085
22.805,0.058
22.810,0.033
22.815,-0.097
22.820,0.011
22.825,0.079
22.830,-0.074
22.835,-0.050
22.840,0.087
22.845,-0.019
22.850,-0.088
22.855,0.060
22.860,0.038
22.865,-0.095
22.870,0.012
22.875,0.083
22.880,-0.065
22.885,-0.043
22.890,0.090
22.895,-0.017
22.900,-0.086
22.905,0.063
22.910,0.041
22.915,-0.094
22.920,0.013
22.925,0.084
22.930,-0.068
22.935,-0.047
22.940,0.091
22.945,-0.015
22.950,-0.087
22.955,0.066
22.960,0.049
22.965,-0.088
22.970,0.008
22.975,0.073
22.980,-0.072
22.985,-0.048
22.990,0.089
22.995,-0.015
23.000,-0.087
23.005,0.063
23.010,0.046
23.015,-0.091
23.020,0.011
23.025,0.084
23.030,-0.065
23.035,-0.049
23.040,0.088
23.045,-0.012
23.050,-0.085
23.055,0.065
23.060,0.049
23.065,-0.091
23.070,0.009
23.075,0.084
23.080,-0.064
23.085,-0.049
23.090,0.092
23.095,-0.006
23.100,-0.083
23.105,0.060
23.110,0.045
23.115,-0.090
23.120,0.006
23.125,0.079
23.130,-0.066
23.135,-0.049
23.140,0.091
23.145,-0.006
23.150,-0.080
23.155,0.068
23.160,0.051
23.165,-0.090
23.170,0.008
23.175,0.086
23.180,-0.059
23.185,-0.044
23.190,0.093
23.195,-0.005
23.200,-0.078
23.205,0.069
23.210,0.050
23.215,-0.090
23.220,0.010
23.225,0.084
23.230,-0.068
23.235,-0.060
23.240,0.080
23.245,-0.010
23.250,-0.085
23.255,0.060
23.260,0.047
23.265,-0.092
23.270,0.009
23.275,0.092
23.280,-0.056
23.285,-0.047
23.290,0.094
23.295,-0.001
23.300,-0.080
23.305,0.065
23.310,0.050
23.315,-0.102
23.320,-0.013
23.325,0.083
23.330,-0.019
23.335,0.060
23.340,0.267
23.345,0.219
23.350,0.180
23.355,0.276
23.360,0.123
23.365,-0.117
23.370,-0.071
23.375,-0.011
23.380,-0.139
23.385,-0.126
23.390,0.004
23.395,-0.095
23.400,-0.179
23.405,-0.028
23.410,-0.030
23.415,-0.167
23.420,-0.066
23.425,0.023
23.430,-0.119
23.435,-0.111
23.440,0.033
23.445,-0.058
23.450,-0.138
23.455,0.013
23.460,0.011
23.465,-0.126
23.470,-0.028
23.475,0.060
23.480,-0.079
23.485,-0.067
23.490,0.076
23.495,-0.022
23.500,-0.105
23.505,0.048
23.510,0.046
23.515,-0.095
23.520,-0.001
23.525,0.087
23.530,-0.055
23.535,-0.052
23.540,0.086
23.545,-0.006
23.550,-0.090
23.555,0.057
23.560,0.052
23.565,-0.094
23.570,-0.002
23.575,0.089
23.580,-0.059
23.585,-0.060
23.590,0.086
23.595,-0.002
23.600,-0.089
23.605,0.057
23.610,0.056
23.615,-0.085
23.620,0.007
23.625,0.098
23.630,-0.045
23.635,-0.050
23.640,0.091
23.645,0.006
23.650,-0.083
23.655,0.058
23.660,0.060
23.665,-0.084
23.670,0.003
23.675,0.096
23.680,-0.046
23.685,-0.050
23.690,0.092
23.695,0.008
23.700,-0.075
23.705,0.071
23.710,0.073
23.715,-0.069
23.720,0.022
23.725,0.113
23.730,-0.034
23.735,-0.037
23.740,0.110
23.745,0.023
23.750,-0.067
23.755,0.081
23.760,0.087
23.765,-0.063
23.770,0.017
23.775,0.107
23.780,-0.037
23.785,-0.040
23.790,0.108
23.795,0.021
23.800,-0.074
23.805,0.067
23.810,0.072
23.815,-0.070
23.820,0.012
23.825,0.098
23.830,-0.045
23.835,-0.047
23.840,0.100
23.845,0.015
23.850,-0.079
23.855,0.064
23.860,0.071
23.865,-0.075
23.870,0.007
23.875,0.099
23.880,-0.044
23.885,-0.051
23.890,0.097
23.895,0.016
23.900,-0.077
23.905,0.060
23.910,0.061
23.915,-0.085
23.920,0.002
23.925,0.097
23.930,-0.046
23.935,-0.053
23.940,0.098
23.945,0.015
23.950,-0.087
23.955,0.051
23.960,0.058
23.965,-0.088
23.970,-0.006
23.975,0.091
23.980,-0.048
23.985,-0.053
23.990,0.093
23.995,0.009
24.000,-0.088
24.005,0.053
24.010,0.060
24.015,-0.086
24.020,-0.001
24.025,0.099
24.030,-0.044
24.035,-0.060
24.040,0.084
24.045,0.007
24.050,-0.088
24.055,0.052
24.060,0.061
24.065,-0.088
24.070,-0.006
24.075,0.095
24.080,-0.048
24.085,-0.064
24.090,0.086
24.095,0.009
24.100,-0.088
24.105,0.051
24.110,0.062
24.115,-0.084
24.120,-0.004
24.125,0.093
24.130,-0.048
24.135,-0.061
24.140,0.086
24.145,0.006
24.150,-0.091
24.155,0.052
24.160,0.061
24.165,-0.094
24.170,-0.019
24.175,0.084
24.180,-0.053
24.185,-0.067
24.190,0.084
24.195,0.008
24.200,-0.090
24.205,0.052
24.210,0.064
24.215,-0.094
24.220,-0.021
24.225,0.085
24.230,-0.050
24.235,-0.066
24.240,0.084
24.245,0.010
24.250,-0.090
24.255,0.050
24.260,0.064
24.265,-0.090
24.270,-0.019
24.275,0.081
24.280,-0.059
24.285,-0.075
24.290,0.076
24.295,-0.003
24.300,-0.109
24.305,0.031
24.310,0.053
24.315,-0.095
24.320,-0.021
24.325,0.084
24.330,-0.049
24.335,-0.062
24.340,0.085
24.345,0.008
24.350,-0.096
24.355,0.044
24.360,0.061
24.365,-0.098
24.370,-0.035
24.375,0.069
24.380,-0.049
24.385,-0.010
24.390,0.224
24.395,0.214
24.400,0.158
24.405,0.321
24.410,0.252
24.415,-0.048
24.420,-0.066
24.425,-0.008
24.430,-0.147
24.435,-0.145
24.440,0.007
24.445,-0.066
24.450,-0.166
24.455,-0.027
24.460,-0.007
24.465,-0.160
24.470,-0.084
24.475,0.031
24.480,-0.100
24.485,-0.118
24.490,0.036
24.495,-0.030
24.500,-0.133
24.505,0.005
24.510,0.032
24.515,-0.115
24.520,-0.043
24.525,0.065
24.530,-0.069
24.535,-0.086
24.540,0.071
24.545,0.000
24.550,-0.110
24.555,0.031
24.560,0.061
24.565,-0.086
24.570,-0.016
24.575,0.089
24.580,-0.050
24.585,-0.073
24.590,0.082
24.595,0.013
24.600,-0.094
24.605,0.041
24.610,0.064
24.615,-0.090
24.620,-0.022
24.625,0.088
24.630,-0.049
24.635,-0.077
24.640,0.077
24.645,0.009
24.650,-0.103
24.655,0.032
24.660,0.065
24.665,-0.081
24.670,-0.018
24.675,0.088
24.680,-0.045
24.685,-0.069
24.690,0.085
24.695,0.020
24.700,-0.096
24.705,0.034
24.710,0.062
24.715,-0.089
24.720,-0.023
24.725,0.088
24.730,-0.046
24.735,-0.075
24.740,0.079
24.745,0.018
24.750,-0.094
24.755,0.042
24.760,0.074
24.765,-0.076
24.770,-0.012
24.775,0.101
24.780,-0.029
24.785,-0.054
24.790,0.102
24.795,0.035
24.800,-0.083
24.805,0.055
24.810,0.090
24.815,-0.067
24.820,-0.008
24.825,0.107
24.830,-0.024
24.835,-0.056
24.840,0.094
24.845,0.031
24.850,-0.085
24.855,0.047
24.860,0.077
24.865,-0.077
24.870,-0.012
24.875,0.104
24.880,-0.030
24.885,-0.060
24.890,0.094
24.895,0.030
24.900,-0.089
24.905,0.044
24.910,0.083
24.915,-0.072
24.920,-0.019
24.925,0.097
24.930,-0.029
24.935,-0.064
24.940,0.084
24.945,0.024
24.950,-0.090
24.955,0.043
24.960,0.072
24.965,-0.089
24.970,-0.021
24.975,0.108
24.980,-0.021
24.985,-0.055
24.990,0.098
24.995,0.035
25.000,-0.084
25.005,0.046
25.010,0.081
25.015,-0.070
25.020,-0.015
25.025,0.099
25.030,-0.030
25.035,-0.067
25.040,0.088
25.045,0.037
25.050,-0.086
25.055,0.033
25.060,0.071
25.065,-0.076
25.070,-0.016
25.075,0.104
25.080,-0.028
25.085,-0.068
25.090,0.087
25.095,0.035
25.100,-0.085
25.105,0.039
25.110,0.079
25.115,-0.071
25.120,-0.015
25.125,0.103
25.130,-0.027
25.135,-0.070
25.140,0.082
25.145,0.029
25.150,-0.087
25.155,0.042
25.160,0.082
25.165,-0.067
25.170,-0.011
25.175,0.103
25.180,-0.031
25.185,-0.075
25.190,0.081
25.195,0.031
25.200,-0.090
25.205,0.037
25.210,0.076
25.215,-0.081
25.220,-0.026
25.225,0.096
25.230,-0.029
25.235,-0.069
25.240,0.084
25.245,0.032
25.250,-0.090
25.255,0.036
25.260,0.080
25.265,-0.077
25.270,-0.025
25.275,0.103
25.280,-0.023
25.285,-0.070
25.290,0.083
25.295,0.032
25.300,-0.093
25.305,0.036
25.310,0.083
25.315,-0.077
25.320,-0.033
25.325,0.088
25.330,-0.039
25.335,-0.085
25.340,0.068
25.345,0.019
25.350,-0.103
25.355,0.026
25.360,0.073
25.365,-0.080
25.370,-0.029
25.375,0.093
25.380,-0.033
25.385,-0.079
25.390,0.076
25.395,0.032
25.400,-0.092
25.405,0.029
25.410,0.072
25.415,-0.088
25.420,-0.050
25.425,0.080
25.430,-0.002
25.435,0.034
25.440,0.272
25.445,0.282
25.450,0.197
25.455,0.273
25.460,0.170
25.465,-0.102
25.470,-0.122
25.475,-0.030
25.480,-0.130
25.485,-0.160
25.490,-0.009
25.495,-0.054
25.500,-0.175
25.505,-0.046
25.510,0.007
25.515,-0.141
25.520,-0.087
25.525,0.040
25.530,-0.086
25.535,-0.134
25.540,0.029
25.545,-0.009
25.550,-0.131
25.555,-0.002
25.560,0.052
25.565,-0.105
25.570,-0.063
25.575,0.072
25.580,-0.045
25.585,-0.096
25.590,0.063
25.595,0.023
25.600,-0.104
25.605,0.019
25.610,0.076
25.615,-0.076
25.620,-0.034
25.625,0.094
25.630,-0.027
25.635,-0.083
25.640,0.070
25.645,0.032
25.650,-0.098
25.655,0.016
25.660,0.068
25.665,-0.082
25.670,-0.038
25.675,0.093
25.680,-0.024
25.685,-0.077
25.690,0.078
25.695,0.038
25.700,-0.096
25.705,0.021
25.710,0.082
25.715,-0.067
25.720,-0.024
25.725,0.107
25.730,-0.012
25.735,-0.068
25.740,0.086
25.745,0.044
25.750,-0.089
25.755,0.028
25.760,0.082
25.765,-0.075
25.770,-0.036
25.775,0.097
25.780,-0.026
25.785,-0.089
25.790,0.067
25.795,0.034
25.800,-0.094
25.805,0.029
25.810,0.092
25.815,-0.061
25.820,-0.031
25.825,0.097
25.830,-0.020
25.835,-0.076
25.840,0.082
25.845,0.045
25.850,-0.088
25.855,0.033
25.860,0.094
25.865,-0.067
25.870,-0.036
25.875,0.096
25.880,-0.023
25.885,-0.085
25.890,0.070
25.895,0.039
25.900,-0.096
25.905,0.016
25.910,0.076
25.915,-0.077
25.920,-0.039
25.925,0.096
25.930,-0.024
25.935,-0.088
25.940,0.073
25.945,0.045
25.950,-0.093
25.955,0.016
25.960,0.080
25.965,-0.071
25.970,-0.042
25.975,0.092
25.980,-0.021
25.985,-0.085
25.990,0.069
25.995,0.038
26.000,-0.096
26.005,0.021
26.010,0.088
26.015,-0.067
26.020,-0.036
26.025,0.102
26.030,-0.012
26.035,-0.083
26.040,0.065
26.045,0.036
26.050,-0.093
26.055,0.022
26.060,0.087
26.065,-0.066
26.070,-0.037
26.075,0.097
26.080,-0.017
26.085,-0.081
26.090,0.074
26.095,0.040
26.100,-0.100
26.105,0.016
26.110,0.085
26.115,-0.070
26.120,-0.042
26.125,0.098
26.130,-0.013
26.135,-0.081
26.140,0.072
26.145,0.044
26.150,-0.091
26.155,0.022
26.160,0.090
26.165,-0.064
26.170,-0.041
26.175,0.091
26.180,-0.018
26.185,-0.083
26.190,0.069
26.195,0.043
26.200,-0.094
26.205,0.017
26.210,0.088
26.215,-0.064
26.220,-0.041
26.225,0.097
26.230,-0.007
26.235,-0.079
26.240,0.064
26.245,0.040
26.250,-0.092
26.255,0.018
26.260,0.086
26.265,-0.065
26.270,-0.036
26.275,0.100
26.280,-0.013
26.285,-0.082
26.290,0.071
26.295,0.044
26.300,-0.091
26.305,0.025
26.310,0.097
26.315,-0.065
26.320,-0.049
26.325,0.095
26.330,-0.008
26.335,-0.080
26.340,0.068
26.345,0.043
26.350,-0.099
26.355,0.004
26.360,0.075
26.365,-0.075
26.370,-0.055
26.375,0.086
26.380,-0.014
26.385,-0.086
26.390,0.058
26.395,0.036
26.400,-0.094
26.405,0.014
26.410,0.085
26.415,-0.066
26.420,-0.046
26.425,0.095
26.430,-0.010
26.435,-0.083
26.440,0.066
26.445,0.036
26.450,-0.112
26.455,0.005
26.460,0.126
26.465,0.054
26.470,0.147
26.475,0.327
26.480,0.248
26.485,0.130
26.490,0.142
26.495,0.011
26.500,-0.187
26.505,-0.113
26.510,-0.013
26.515,-0.140
26.520,-0.122
26.525,0.020
26.530,-0.080
26.535,-0.151
26.540,0.002
26.545,-0.013
26.550,-0.146
26.555,-0.034
26.560,0.042
26.565,-0.112
26.570,-0.092
26.575,0.055
26.580,-0.044
26.585,-0.118
26.590,0.036
26.595,0.023
26.600,-0.116
26.605,-0.009
26.610,0.073
26.615,-0.077
26.620,-0.061
26.625,0.085
26.630,-0.014
26.635,-0.092
26.640,0.060
26.645,0.047
26.650,-0.094
26.655,0.010
26.660,0.086
26.665,-0.070
26.670,-0.059
26.675,0.086
26.680,-0.014
26.685,-0.093
26.690,0.059
26.695,0.047
26.700,-0.093
26.705,0.006
26.710,0.082
26.715,-0.067
26.720,-0.050
26.725,0.095
26.730,-0.004
26.735,-0.083
26.740,0.071
26.745,0.062
26.750,-0.080
26.755,0.020
26.760,0.101
26.765,-0.050
26.770,-0.041
26.775,0.101
26.780,-0.002
26.785,-0.088
26.790,0.063
26.795,0.053
26.800,-0.093
26.805,0.003
26.810,0.084
26.815,-0.066
26.820,-0.055
26.825,0.093
26.830,-0.002
26.835,-0.083
26.840,0.064
26.845,0.052
26.850,-0.087
26.855,0.015
26.860,0.099
26.865,-0.051
26.870,-0.044
26.875,0.100
26.880,0.005
26.885,-0.078
26.890,0.073
26.895,0.064
26.900,-0.082
26.905,0.014
26.910,0.097
26.915,-0.054
26.920,-0.048
26.925,0.096
26.930,0.003
26.935,-0.082
26.940,0.061
26.945,0.053
26.950,-0.088
26.955,0.011
26.960,0.098
26.965,-0.054
26.970,-0.053
26.975,0.093
26.980,0.002
26.985,-0.083
26.990,0.065
26.995,0.059
27.000,-0.086
27.005,0.008
27.010,0.095
27.015,-0.051
27.020,-0.046
27.025,0.096
27.030,-0.001
27.035,-0.089
27.040,0.061
27.045,0.057
27.050,-0.090
27.055,0.005
27.060,0.094
27.065,-0.055
27.070,-0.052
27.075,0.098
27.080,0.003
27.085,-0.092
27.090,0.057
27.095,0.057
27.100,-0.093
27.105,-0.005
27.110,0.086
27.115,-0.058
27.120,-0.056
27.125,0.093
27.130,0.000
27.135,-0.093
27.140,0.058
27.145,0.057
27.150,-0.090
27.155,0.002
27.160,0.089
27.165,-0.060
27.170,-0.058
27.175,0.090
27.180,-0.002
27.185,-0.093
27.190,0.056
27.195,0.058
27.200,-0.089
27.205,0.001
27.210,0.092
27.215,-0.053
27.220,-0.051
27.225,0.096
27.230,0.001
27.235,-0.096
27.240,0.050
27.245,0.056
27.250,-0.089
27.255,0.000
27.260,0.093
27.265,-0.055
27.270,-0.059
27.275,0.088
27.280,0.001
27.285,-0.091
27.290,0.058
27.295,0.061
27.300,-0.088
27.305,0.001
27.310,0.094
27.315,-0.055
27.320,-0.061
27.325,0.086
27.330,-0.001
27.335,-0.092
27.340,0.057
27.345,0.060
27.350,-0.090
27.355,-0.001
27.360,0.101
27.365,-0.041
27.370,-0.052
27.375,0.085
27.380,-0.008
27.385,-0.104
27.390,0.044
27.395,0.049
27.400,-0.101
27.405,-0.013
27.410,0.088
27.415,-0.056
27.420,-0.062
27.425,0.091
27.430,0.004
27.435,-0.094
27.440,0.055
27.445,0.063
27.450,-0.087
27.455,0.001
27.460,0.100
27.465,-0.044
27.470,-0.056
27.475,0.080
27.480,-0.014
27.485,-0.099
27.490,0.088
27.495,0.169
27.500,0.092
27.505,0.221
27.510,0.357
27.515,0.182
27.520,0.035
27.525,0.069
27.530,-0.070
27.535,-0.195
27.540,-0.032
27.545,-0.011
27.550,-0.168
27.555,-0.084
27.560,0.021
27.565,-0.118
27.570,-0.126
27.575,0.029
27.580,-0.050
27.585,-0.147
27.590,0.003
27.595,0.017
27.600,-0.133
27.605,-0.047
27.610,0.059
27.615,-0.081
27.620,-0.092
27.625,0.059
27.630,-0.018
27.635,-0.118
27.640,0.025
27.645,0.043
27.650,-0.103
27.655,-0.022
27.660,0.081
27.665,-0.059
27.670,-0.071
27.675,0.085
27.680,0.008
27.685,-0.097
27.690,0.044
27.695,0.058
27.700,-0.094
27.705,-0.018
27.710,0.084
27.715,-0.056
27.720,-0.070
27.725,0.082
27.730,0.004
27.735,-0.098
27.740,0.041
27.745,0.054
27.750,-0.095
27.755,-0.012
27.760,0.093
27.765,-0.054
27.770,-0.071
27.775,0.088
27.780,0.014
27.785,-0.091
27.790,0.052
27.795,0.070
27.800,-0.084
27.805,-0.011
27.810,0.091
27.815,-0.052
27.820,-0.071
27.825,0.081
27.830,0.006
27.835,-0.099
27.840,0.040
27.845,0.061
27.850,-0.089
27.855,-0.015
27.860,0.094
27.865,-0.040
27.870,-0.059
27.875,0.091
27.880,0.019
27.885,-0.084
27.890,0.056
27.895,0.077
27.900,-0.075
27.905,-0.001
27.910,0.105
27.915,-0.036
27.920,-0.057
27.925,0.098
27.930,0.024
27.935,-0.088
27.940,0.050
27.945,0.072
27.950,-0.082
27.955,-0.011
27.960,0.098
27.965,-0.038
27.970,-0.062
27.975,0.087
27.980,0.014
27.985,-0.094
27.990,0.041
27.995,0.062
28.000,-0.087
28.005,-0.018
28.010,0.091
28.015,-0.043
28.020,-0.067
28.025,0.087
28.030,0.016
28.035,-0.098
28.040,0.039
28.045,0.065
28.050,-0.090
28.055,-0.019
28.060,0.094
28.065,-0.044
28.070,-0.070
28.075,0.088
28.080,0.019
28.085,-0.095
28.090,0.039
28.095,0.066
28.100,-0.083
28.105,-0.012
28.110,0.093
28.115,-0.051
28.120,-0.074
28.125,0.084
28.130,0.017
28.135,-0.095
28.140,0.043
28.145,0.071
28.150,-0.084
28.155,-0.016
28.160,0.100
28.165,-0.036
28.170,-0.067
28.175,0.085
28.180,0.017
28.185,-0.096
28.190,0.041
28.195,0.072
28.200,-0.080
28.205,-0.017
28.210,0.093
28.215,-0.044
28.220,-0.070
28.225,0.089
28.230,0.022
28.235,-0.099
28.240,0.036
28.245,0.070
28.250,-0.085
28.255,-0.019
28.260,0.099
28.265,-0.038
28.270,-0.070
28.275,0.085
28.280,0.020
28.285,-0.093
28.290,0.041
28.295,0.070
28.300,-0.083
28.305,-0.015
28.310,0.097
28.315,-0.046
28.320,-0.077
28.325,0.084
28.330,0.021
28.335,-0.095
28.340,0.040
28.345,0.074
28.350,-0.079
28.355,-0.021
28.360,0.093
28.365,-0.036
28.370,-0.067
28.375,0.086
28.380,0.023
28.385,-0.096
28.390,0.035
28.395,0.074
28.400,-0.076
28.405,-0.018
28.410,0.096
28.415,-0.039
28.420,-0.071
28.425,0.091
28.430,0.028
28.435,-0.101
28.440,0.027
28.445,0.065
28.450,-0.091
28.455,-0.034
28.460,0.087
28.465,-0.041
28.470,-0.078
28.475,0.074
28.480,0.014
28.485,-0.102
28.490,0.032
28.495,0.072
28.500,-0.082
28.505,-0.022
28.510,0.099
28.515,-0.035
28.520,-0.074
28.525,0.084
28.530,0.026
28.535,-0.106
28.540,0.010
28.545,0.050
28.550,-0.073
28.555,0.049
28.560,0.247
28.565,0.175
28.570,0.185
28.575,0.357
28.580,0.196
28.585,-0.076
28.590,-0.028
28.595,-0.029
28.600,-0.181
28.605,-0.103
28.610,0.018
28.615,-0.114
28.620,-0.154
28.625,0.004
28.630,-0.044
28.635,-0.164
28.640,-0.031
28.645,0.019
28.650,-0.129
28.655,-0.072
28.660,0.051
28.665,-0.080
28.670,-0.119
28.675,0.045
28.680,-0.003
28.685,-0.129
28.690,-0.002
28.695,0.048
28.700,-0.100
28.705,-0.046
28.710,0.076
28.715,-0.049
28.720,-0.087
28.725,0.070
28.730,0.020
28.735,-0.102
28.740,0.027
28.745,0.072
28.750,-0.082
28.755,-0.030
28.760,0.093
28.765,-0.035
28.770,-0.079
28.775,0.074
28.780,0.022
28.785,-0.102
28.790,0.029
28.795,0.074
28.800,-0.088
28.805,-0.040
28.810,0.089
28.815,-0.042
28.820,-0.093
28.825,0.064
28.830,0.020
28.835,-0.104
28.840,0.022
28.845,0.071
28.850,-0.084
28.855,-0.034
28.860,0.093
28.865,-0.034
28.870,-0.083
28.875,0.072
28.880,0.022
28.885,-0.108
28.890,0.018
28.895,0.070
28.900,-0.082
28.905,-0.037
28.910,0.089
28.915,-0.034
28.920,-0.084
28.925,0.074
28.930,0.032
28.935,-0.089
28.940,0.039
28.945,0.090
28.950,-0.065
28.955,-0.018
28.960,0.107
28.965,-0.025
28.970,-0.071
28.975,0.100
28.980,0.057
28.985,-0.072
28.990,0.053
28.995,0.102
29.000,-0.056
29.005,-0.014
29.010,0.114
29.015,-0.010
29.020,-0.067
29.025,0.087
29.030,0.046
29.035,-0.085
29.040,0.032
29.045,0.085
29.050,-0.064
29.055,-0.019
29.060,0.110
29.065,-0.016
29.070,-0.071
29.075,0.085
29.080,0.043
29.085,-0.086
29.090,0.037
29.095,0.090
29.100,-0.067
29.105,-0.023
29.110,0.109
29.115,-0.013
29.120,-0.069
29.125,0.081
29.130,0.038
29.135,-0.089
29.140,0.036
29.145,0.094
29.150,-0.061
29.155,-0.025
29.160,0.104
29.165,-0.017
29.170,-0.071
29.175,0.085
29.180,0.044
29.185,-0.086
29.190,0.036
29.195,0.093
29.200,-0.065
29.205,-0.026
29.210,0.106
29.215,-0.014
29.220,-0.072
29.225,0.082
29.230,0.044
29.235,-0.084
29.240,0.036
29.245,0.088
29.250,-0.071
29.255,-0.030
29.260,0.105
29.265,-0.014
29.270,-0.072
29.275,0.081
29.280,0.039
29.285,-0.093
29.290,0.033
29.295,0.091
29.300,-0.068
29.305,-0.029
29.310,0.105
29.315,-0.017
29.320,-0.076
29.325,0.082
29.330,0.045
29.335,-0.090
29.340,0.030
29.345,0.090
29.350,-0.066
29.355,-0.025
29.360,0.106
29.365,-0.025
29.370,-0.088
29.375,0.075
29.380,0.041
29.385,-0.093
29.390,0.026
29.395,0.084
29.400,-0.076
29.405,-0.039
29.410,0.096
29.415,-0.023
29.420,-0.084
29.425,0.076
29.430,0.043
29.435,-0.093
29.440,0.025
29.445,0.086
29.450,-0.074
29.455,-0.040
29.460,0.100
29.465,-0.015
29.470,-0.077
29.475,0.075
29.480,0.040
29.485,-0.087
29.490,0.032
29.495,0.089
29.500,-0.072
29.505,-0.040
29.510,0.091
29.515,-0.034
29.520,-0.103
29.525,0.057
29.530,0.029
29.535,-0.106
29.540,0.012
29.545,0.080
29.550,-0.075
29.555,-0.043
29.560,0.096
29.565,-0.021
29.570,-0.089
29.575,0.066
29.580,0.038
29.585,-0.098
29.590,0.016
29.595,0.078
29.600,-0.089
29.605,-0.065
29.610,0.086
29.615,0.017
29.620,0.031
29.625,0.267
29.630,0.291
29.635,0.191
29.640,0.246
29.645,0.155
29.650,-0.109
29.655,-0.137
29.660,-0.023
29.665,-0.109
29.670,-0.165
29.675,-0.014
29.680,-0.039
29.685,-0.177
29.690,-0.059
29.695,0.017
29.700,-0.135
29.705,-0.104
29.710,0.042
29.715,-0.069
29.720,-0.141
29.725,0.020
29.730,0.001
29.735,-0.136
29.740,-0.019
29.745,0.061
29.750,-0.091
29.755,-0.073
29.760,0.066
29.765,-0.039
29.770,-0.105
29.775,0.053
29.780,0.031
29.785,-0.109
29.790,0.007
29.795,0.084
29.800,-0.071
29.805,-0.047
29.810,0.094
29.815,-0.017
29.820,-0.088
29.825,0.068
29.830,0.043
29.835,-0.096
29.840,0.016
29.845,0.083
29.850,-0.076
29.855,-0.047
29.860,0.097
29.865,-0.016
29.870,-0.089
29.875,0.069
29.880,0.040
29.885,-0.108
29.890,0.006
29.895,0.086
29.900,-0.068
29.905,-0.045
29.910,0.099
29.915,-0.012
29.920,-0.089
29.925,0.066
29.930,0.044
29.935,-0.098
29.940,0.011
29.945,0.084
29.950,-0.079
29.955,-0.060
29.960,0.087
29.965,-0.020
29.970,-0.096
29.975,0.062
29.980,0.047
29.985,-0.090
29.990,0.020
29.995,0.091
30.000,-0.067
30.005,-0.044
30.010,0.102
30.015,-0.002
30.020,-0.078
30.025,0.076
30.030,0.059
30.035,-0.084
30.040,0.021
30.045,0.100
30.050,-0.053
30.055,-0.035
30.060,0.108
30.065,-0.001
30.070,-0.084
30.075,0.067
30.080,0.051
30.085,-0.092
30.090,0.013
30.095,0.092
30.100,-0.058
30.105,-0.038
30.110,0.101
30.115,-0.011
30.120,-0.091
30.125,0.066
30.130,0.051
30.135,-0.092
30.140,0.012
30.145,0.091
30.150,-0.062
30.155,-0.049
30.160,0.095
30.165,-0.009
30.170,-0.089
30.175,0.067
30.180,0.054
30.185,-0.096
30.190,0.001
30.195,0.086
30.200,-0.062
30.205,-0.051
30.210,0.097
30.215,0.001
30.220,-0.083
30.225,0.062
30.230,0.049
30.235,-0.091
30.240,0.011
30.245,0.092
30.250,-0.059
30.255,-0.048
30.260,0.098
30.265,-0.004
30.270,-0.088
30.275,0.065
30.280,0.056
30.285,-0.087
30.290,0.015
30.295,0.098
30.300,-0.058
30.305,-0.053
30.310,0.094
30.315,-0.003
30.320,-0.086
30.325,0.068
30.330,0.061
30.335,-0.088
30.340,0.008
30.345,0.095
30.350,-0.057
30.355,-0.051
30.360,0.096
30.365,-0.002
30.370,-0.088
30.375,0.064
30.380,0.059
30.385,-0.086
30.390,0.011
30.395,0.098
30.400,-0.054
30.405,-0.048
30.410,0.101
30.415,0.004
30.420,-0.090
30.425,0.058
30.430,0.056
30.435,-0.087
30.440,0.012
30.445,0.097
30.450,-0.059
30.455,-0.056
30.460,0.095
30.465,0.000
30.470,-0.091
30.475,0.060
30.480,0.060
30.485,-0.087
30.490,0.008
30.495,0.096
30.500,-0.058
30.505,-0.056
30.510,0.097
30.515,0.009
30.520,-0.084
30.525,0.059
30.530,0.057
30.535,-0.088
30.540,0.008
30.545,0.096
30.550,-0.057
30.555,-0.056
30.560,0.089
30.565,-0.010
30.570,-0.102
30.575,0.047
30.580,0.044
30.585,-0.106
30.590,-0.010
30.595,0.083
30.600,-0.064
30.605,-0.060
30.610,0.091
30.615,-0.001
30.620,-0.091
30.625,0.057
30.630,0.055
30.635,-0.096
30.640,-0.004
30.645,0.089
30.650,-0.068
30.655,-0.079
30.660,0.072
30.665,0.003
30.670,-0.031
30.675,0.210
30.680,0.287
30.685,0.185
30.690,0.286
30.695,0.273
30.700,-0.032
30.705,-0.124
30.710,-0.025
30.715,-0.118
30.720,-0.179
30.725,-0.024
30.730,-0.024
30.735,-0.171
30.740,-0.076
30.745,0.021
30.750,-0.128
30.755,-0.126
30.760,0.031
30.765,-0.055
30.770,-0.144
30.775,0.012
30.780,0.016
30.785,-0.137
30.790,-0.045
30.795,0.060
30.800,-0.083
30.805,-0.090
30.810,0.063
30.815,-0.019
30.820,-0.111
30.825,0.040
30.830,0.048
30.835,-0.102
30.840,-0.012
30.845,0.087
30.850,-0.057
30.855,-0.060
30.860,0.090
30.865,-0.003
30.870,-0.102
30.875,0.049
30.880,0.056
30.885,-0.095
30.890,-0.008
30.895,0.090
30.900,-0.055
30.905,-0.061
30.910,0.086
30.915,-0.003
30.920,-0.099
30.925,0.051
30.930,0.063
30.935,-0.088
30.940,-0.004
30.945,0.094
30.950,-0.052
30.955,-0.058
30.960,0.098
30.965,0.015
30.970,-0.085
30.975,0.061
30.980,0.069
30.985,-0.091
30.990,-0.013
30.995,0.086
31.000,-0.060
31.005,-0.069
31.010,0.085
31.015,0.005
31.020,-0.094
31.025,0.047
31.030,0.054
31.035,-0.098
31.040,-0.012
31.045,0.092
31.050,-0.049
31.055,-0.057
31.060,0.098
31.065,0.016
31.070,-0.086
31.075,0.061
31.080,0.074
31.085,-0.078
31.090,0.005
31.095,0.106
31.100,-0.038
31.105,-0.049
31.110,0.101
31.115,0.015
31.120,-0.088
31.125,0.058
31.130,0.074
31.135,-0.078
31.140,-0.005
31.145,0.092
31.150,-0.049
31.155,-0.060
31.160,0.093
31.165,0.014
31.170,-0.089
31.175,0.053
31.180,0.069
31.185,-0.082
31.190,-0.004
31.195,0.099
31.200,-0.046
31.205,-0.062
31.210,0.096
31.215,0.020
31.220,-0.091
31.225,0.048
31.230,0.067
31.235,-0.085
31.240,-0.007
31.245,0.102
31.250,-0.039
31.255,-0.059
31.260,0.091
31.265,0.012
31.270,-0.093
31.275,0.049
31.280,0.067
31.285,-0.085
31.290,-0.010
31.295,0.096
31.300,-0.044
31.305,-0.060
31.310,0.092
31.315,0.013
31.320,-0.096
31.325,0.049
31.330,0.072
31.335,-0.085
31.340,-0.013
31.345,0.095
31.350,-0.045
31.355,-0.064
31.360,0.095
31.365,0.023
31.370,-0.091
31.375,0.044
31.380,0.068
31.385,-0.085
31.390,-0.011
31.395,0.100
31.400,-0.041
31.405,-0.064
31.410,0.092
31.415,0.019
31.420,-0.090
31.425,0.055
31.430,0.079
31.435,-0.080
31.440,-0.010
31.445,0.098
31.450,-0.046
31.455,-0.068
31.460,0.090
31.465,0.018
31.470,-0.091
31.475,0.050
31.480,0.069
31.485,-0.094
31.490,-0.021
31.495,0.095
31.500,-0.043
31.505,-0.069
31.510,0.084
31.515,0.012
31.520,-0.097
31.525,0.045
31.530,0.072
31.535,-0.081
31.540,-0.009
31.545,0.102
31.550,-0.043
31.555,-0.076
31.560,0.080
31.565,0.016
31.570,-0.092
31.575,0.048
31.580,0.074
31.585,-0.081
31.590,-0.008
31.595,0.107
31.600,-0.040
31.605,-0.080
31.610,0.074
31.615,0.007
31.620,-0.108
31.625,0.029
31.630,0.056
31.635,-0.097
31.640,-0.025
31.645,0.094
31.650,-0.040
31.655,-0.074
31.660,0.075
31.665,0.010
31.670,-0.102
31.675,0.038
31.680,0.069
31.685,-0.086
31.690,-0.019
31.695,0.096
31.700,-0.046
31.705,-0.089
31.710,0.059
31.715,0.006
31.720,-0.070
31.725,0.141
31.730,0.256
31.735,0.159
31.740,0.272
31.745,0.360
31.750,0.071
31.755,-0.095
31.760,-0.006
31.765,-0.104
31.770,-0.201
31.775,-0.043
31.780,-0.012
31.785,-0.167
31.790,-0.098
31.795,0.028
31.800,-0.102
31.805,-0.133
31.810,0.026
31.815,-0.034
31.820,-0.150
31.825,-0.011
31.830,0.030
31.835,-0.119
31.840,-0.055
31.845,0.058
31.850,-0.075
31.855,-0.099
31.860,0.060
31.865,-0.002
31.870,-0.113
31.875,0.029
31.880,0.066
31.885,-0.096
31.890,-0.035
31.895,0.089
31.900,-0.044
31.905,-0.078
31.910,0.081
31.915,0.019
31.920,-0.100
31.925,0.034
31.930,0.069
31.935,-0.087
31.940,-0.025
31.945,0.096
31.950,-0.038
31.955,-0.076
31.960,0.079
31.965,0.020
31.970,-0.095
31.975,0.038
31.980,0.070
31.985,-0.086
31.990,-0.019
31.995,0.107
32.000,-0.027
32.005,-0.070
32.010,0.085
32.015,0.030
32.020,-0.088
32.025,0.047
32.030,0.086
32.035,-0.074
32.040,-0.019
32.045,0.101
32.050,-0.035
32.055,-0.076
32.060,0.080
32.065,0.021
32.070,-0.101
32.075,0.029
32.080,0.070
32.085,-0.084
32.090,-0.026
32.095,0.098
32.100,-0.033
32.105,-0.067
32.110,0.092
32.115,0.030
32.120,-0.091
32.125,0.042
32.130,0.082
32.135,-0.072
32.140,-0.015
32.145,0.108
32.150,-0.022
32.155,-0.066
32.160,0.090
32.165,0.036
32.170,-0.089
32.175,0.042
32.180,0.086
32.185,-0.072
32.190,-0.020
32.195,0.103
32.200,-0.027
32.205,-0.072
32.210,0.086
32.215,0.036
32.220,-0.091
32.225,0.035
32.230,0.080
32.235,-0.075
32.240,-0.019
32.245,0.106
32.250,-0.032
32.255,-0.083
32.260,0.079
32.265,0.030
32.270,-0.097
32.275,0.030
32.280,0.077
32.285,-0.081
32.290,-0.029
32.295,0.099
32.300,-0.030
32.305,-0.079
32.310,0.079
32.315,0.029
32.320,-0.097
32.325,0.031
32.330,0.076
32.335,-0.078
32.340,-0.026
32.345,0.099
32.350,-0.030
32.355,-0.078
32.360,0.078
32.365,0.029
32.370,-0.096
32.375,0.031
32.380,0.078
32.385,-0.082
32.390,-0.035
32.395,0.095
32.400,-0.032
32.405,-0.086
32.410,0.069
32.415,0.027
32.420,-0.096
32.425,0.030
32.430,0.080
32.435,-0.078
32.440,-0.031
32.445,0.099
32.450,-0.027
32.455,-0.081
32.460,0.076
32.465,0.032
32.470,-0.094
32.475,0.033
32.480,0.084
32.485,-0.076
32.490,-0.028
32.495,0.104
32.500,-0.027
32.505,-0.080
32.510,0.084
32.515,0.037
32.520,-0.102
32.525,0.021
32.530,0.077
32.535,-0.078
32.540,-0.032
32.545,0.098
32.550,-0.028
32.555,-0.081
32.560,0.075
32.565,0.032
32.570,-0.093
32.575,0.033
32.580,0.086
32.585,-0.071
32.590,-0.033
32.595,0.096
32.600,-0.023
32.605,-0.076
32.610,0.081
32.615,0.038
32.620,-0.095
32.625,0.031
32.630,0.087
32.635,-0.075
32.640,-0.037
32.645,0.096
32.650,-0.025
32.655,-0.083
32.660,0.067
32.665,0.019
32.670,-0.112
32.675,0.017
32.680,0.076
32.685,-0.078
32.690,-0.035
32.695,0.098
32.700,-0.024
32.705,-0.082
32.710,0.075
32.715,0.037
32.720,-0.092
32.725,0.032
32.730,0.089
32.735,-0.071
32.740,-0.040
32.745,0.082
32.750,-0.040
32.755,-0.071
32.760,0.152
32.765,0.200
32.770,0.128
32.775,0.287
32.780,0.351
32.785,0.091
32.790,-0.019
32.795,0.023
32.800,-0.150
32.805,-0.210
32.810,-0.017
32.815,-0.040
32.820,-0.169
32.825,-0.048
32.830,0.011
32.835,-0.138
32.840,-0.095
32.845,0.038
32.850,-0.079
32.855,-0.131
32.860,0.031
32.865,-0.005
32.870,-0.135
32.875,-0.011
32.880,0.052
32.885,-0.103
32.890,-0.061
32.895,0.081
32.900,-0.038
32.905,-0.101
32.910,0.057
32.915,0.022
32.920,-0.108
32.925,0.018
32.930,0.080
32.935,-0.080
32.940,-0.044
32.945,0.095
32.950,-0.024
32.955,-0.088
32.960,0.067
32.965,0.023
32.970,-0.111
32.975,0.024
32.980,0.092
32.985,-0.066
32.990,-0.033
32.995,0.101
33.000,-0.015
33.005,-0.079
33.010,0.077
33.015,0.043
33.020,-0.094
33.025,0.030
33.030,0.098
33.035,-0.062
33.040,-0.033
33.045,0.104
33.050,-0.015
33.055,-0.081
33.060,0.080
33.065,0.049
33.070,-0.095
33.075,0.014
33.080,0.080
33.085,-0.074
33.090,-0.046
33.095,0.090
33.100,-0.029
33.105,-0.096
33.110,0.062
33.115,0.031
33.120,-0.107
33.125,0.011
33.130,0.078
33.135,-0.077
33.140,-0.043
33.145,0.097
33.150,-0.018
33.155,-0.082
33.160,0.076
33.165,0.049
33.170,-0.092
33.175,0.018
33.180,0.087
33.185,-0.070
33.190,-0.044
33.195,0.099
33.200,-0.008
33.205,-0.080
33.210,0.067
33.215,0.038
33.220,-0.098
33.225,0.019
33.230,0.089
33.235,-0.068
33.240,-0.041
33.245,0.098
33.250,-0.015
33.255,-0.085
33.260,0.070
33.265,0.046
33.270,-0.092
33.275,0.022
33.280,0.090
33.285,-0.067
33.290,-0.040
33.295,0.100
33.300,-0.012
33.305,-0.087
33.310,0.066
33.315,0.044
33.320,-0.092
33.325,0.020
33.330,0.092
33.335,-0.059
33.340,-0.032
33.345,0.101
33.350,-0.016
33.355,-0.085
33.360,0.073
33.365,0.046
33.370,-0.095
33.375,0.018
33.380,0.091
33.385,-0.064
33.390,-0.043
33.395,0.095
33.400,-0.012
33.405,-0.084
33.410,0.071
33.415,0.046
33.420,-0.096
33.425,0.020
33.430,0.096
33.435,-0.061
33.440,-0.040
33.445,0.097
33.450,-0.014
33.455,-0.086
33.460,0.068
33.465,0.048
33.470,-0.093
33.475,0.011
33.480,0.084
33.485,-0.067
33.490,-0.044
33.495,0.096
33.500,-0.015
33.505,-0.088
33.510,0.068
33.515,0.050
33.520,-0.093
33.525,0.016
33.530,0.093
33.535,-0.065
33.540,-0.046
33.545,0.100
33.550,-0.011
33.555,-0.090
33.560,0.066
33.565,0.045
33.570,-0.098
33.575,0.012
33.580,0.089
33.585,-0.066
33.590,-0.044
33.595,0.101
33.600,-0.009
33.605,-0.092
33.610,0.060
33.615,0.044
33.620,-0.097
33.625,0.011
33.630,0.093
33.635,-0.059
33.640,-0.048
33.645,0.091
33.650,-0.014
33.655,-0.094
33.660,0.058
33.665,0.041
33.670,-0.105
33.675,0.001
33.680,0.083
33.685,-0.069
33.690,-0.054
33.695,0.093
33.700,-0.008
33.705,-0.087
33.710,0.067
33.715,0.052
33.720,-0.092
33.725,0.014
33.730,0.095
33.735,-0.060
33.740,-0.044
33.745,0.103
33.750,-0.006
33.755,-0.098
33.760,0.054
33.765,0.060
33.770,-0.029
33.775,0.152
33.780,0.281
33.785,0.152
33.790,0.175
33.795,0.238
33.800,0.003
33.805,-0.149
33.810,-0.031
33.815,-0.050
33.820,-0.164
33.825,-0.046
33.830,0.035
33.835,-0.117
33.840,-0.102
33.845,0.045
33.850,-0.054
33.855,-0.128
33.860,0.032
33.865,0.018
33.870,-0.131
33.875,-0.028
33.880,0.058
33.885,-0.093
33.890,-0.079
33.895,0.069
33.900,-0.033
33.905,-0.110
33.910,0.051
33.915,0.040
33.920,-0.111
33.925,-0.012
33.930,0.076
33.935,-0.070
33.940,-0.056
33.945,0.091
33.950,-0.009
33.955,-0.093
33.960,0.063
33.965,0.054
33.970,-0.095
33.975,0.008
33.980,0.094
33.985,-0.065
33.990,-0.058
33.995,0.092
34.000,-0.005
34.005,-0.089
34.010,0.063
34.015,0.057
34.020,-0.089
34.025,0.012
34.030,0.100
34.035,-0.052
34.040,-0.045
34.045,0.101
34.050,0.002
34.055,-0.079
34.060,0.073
34.065,0.058
34.070,-0.091
34.075,0.011
34.080,0.095
34.085,-0.062
34.090,-0.057
34.095,0.089
34.100,-0.012
34.105,-0.100
34.110,0.053
34.115,0.044
34.120,-0.104
34.125,-0.003
34.130,0.088
34.135,-0.061
34.140,-0.053
34.145,0.094
34.150,-0.004
34.155,-0.089
34.160,0.066
34.165,0.063
34.170,-0.081
34.175,0.016
34.180,0.096
34.185,-0.060
34.190,-0.052
34.195,0.098
34.200,0.000
34.205,-0.089
34.210,0.065
34.215,0.060
34.220,-0.092
34.225,0.000
34.230,0.085
34.235,-0.071
34.240,-0.068
34.245,0.081
34.250,-0.017
34.255,-0.107
34.260,0.045
34.265,0.042
34.270,-0.104
34.275,-0.005
34.280,0.087
34.285,-0.062
34.290,-0.056
34.295,0.099
34.300,0.001
34.305,-0.092
34.310,0.065
34.315,0.065
34.320,-0.093
34.325,0.001
34.330,0.101
34.335,-0.048
34.340,-0.047
34.345,0.103
34.350,0.010
34.355,-0.080
34.360,0.073
34.365,0.073
34.370,-0.079
34.375,0.014
34.380,0.106
34.385,-0.046
34.390,-0.045
34.395,0.104
34.400,0.010
34.405,-0.080
34.410,0.068
34.415,0.063
34.420,-0.090
34.425,0.004
34.430,0.096
34.435,-0.053
34.440,-0.049
34.445,0.100
34.450,-0.001
34.455,-0.098
34.460,0.056
34.465,0.057
34.470,-0.095
34.475,0.000
34.480,0.096
34.485,-0.056
34.490,-0.056
34.495,0.096
34.500,0.004
34.505,-0.091
34.510,0.059
34.515,0.063
34.520,-0.088
34.525,0.005
34.530,0.101
34.535,-0.051
34.540,-0.052
34.545,0.103
34.550,0.010
34.555,-0.086
34.560,0.064
34.565,0.065
34.570,-0.088
34.575,0.005
34.580,0.105
34.585,-0.043
34.590,-0.046
34.595,0.105
34.600,0.012
34.605,-0.084
34.610,0.064
34.615,0.069
34.620,-0.079
34.625,0.007
34.630,0.099
34.635,-0.052
34.640,-0.056
34.645,0.098
34.650,0.012
34.655,-0.086
34.660,0.059
34.665,0.060
34.670,-0.097
34.675,-0.010
34.680,0.088
34.685,-0.064
34.690,-0.072
34.695,0.082
34.700,-0.005
34.705,-0.102
34.710,0.048
34.715,0.054
34.720,-0.097
34.725,-0.004
34.730,0.098
34.735,-0.056
34.740,-0.071
34.745,0.082
34.750,-0.001
34.755,-0.098
34.760,0.044
34.765,0.040
34.770,-0.110
34.775,0.004
34.780,0.162
34.785,0.089
34.790,0.131
34.795,0.324
34.800,0.248
34.805,0.045
34.810,0.062
34.815,0.003
34.820,-0.185
34.825,-0.096
34.830,0.023
34.835,-0.127
34.840,-0.136
34.845,0.023
34.850,-0.059
34.855,-0.155
34.860,0.000
34.865,0.014
34.870,-0.140
34.875,-0.059
34.880,0.044
34.885,-0.097
34.890,-0.101
34.895,0.058
34.900,-0.025
34.905,-0.124
34.910,0.027
34.915,0.039
34.920,-0.113
34.925,-0.028
34.930,0.078
34.935,-0.067
34.940,-0.077
34.945,0.082
34.950,0.001
34.955,-0.101
34.960,0.049
34.965,0.065
34.970,-0.091
34.975,-0.014
34.980,0.087
34.985,-0.057
34.990,-0.068
34.995,0.085
35.000,0.002
35.005,-0.101
35.010,0.046
35.015,0.057
35.020,-0.102
35.025,-0.023
35.030,0.085
35.035,-0.058
35.040,-0.072
35.045,0.082
35.050,0.003
35.055,-0.098
35.060,0.048
35.065,0.062
35.070,-0.091
35.075,-0.008
35.080,0.096
35.085,-0.052
35.090,-0.068
35.095,0.087
35.100,0.005
35.105,-0.100
35.110,0.042
35.115,0.058
35.120,-0.094
35.125,-0.017
35.130,0.091
35.135,-0.049
35.140,-0.065
35.145,0.090
35.150,0.014
35.155,-0.094
35.160,0.048
35.165,0.071
35.170,-0.079
35.175,0.001
35.180,0.108
35.185,-0.038
35.190,-0.055
35.195,0.100
35.200,0.023
35.205,-0.083
35.210,0.060
35.215,0.076
35.220,-0.081
35.225,-0.004
35.230,0.101
35.235,-0.044
35.240,-0.062
35.245,0.091
35.250,0.013
35.255,-0.095
35.260,0.046
35.265,0.064
35.270,-0.090
35.275,-0.012
35.280,0.100
35.285,-0.042
35.290,-0.071
35.295,0.077
35.300,0.006
35.305,-0.098
35.310,0.044
35.315,0.065
35.320,-0.089
35.325,-0.016
35.330,0.090
35.335,-0.052
35.340,-0.072
35.345,0.084
35.350,0.012
35.355,-0.097
35.360,0.042
35.365,0.061
35.370,-0.092
35.375,-0.016
35.380,0.094
35.385,-0.049
35.390,-0.070
35.395,0.086
35.400,0.012
35.405,-0.097
35.410,0.047
35.415,0.068
35.420,-0.089
35.425,-0.014
35.430,0.097
35.435,-0.045
35.440,-0.070
35.445,0.080
35.450,0.008
35.455,-0.095
35.460,0.045
35.465,0.064
35.470,-0.092
35.475,-0.019
35.480,0.091
35.485,-0.049
35.490,-0.071
35.495,0.086
35.500,0.015
35.505,-0.095
35.510,0.045
35.515,0.070
35.520,-0.085
35.525,-0.014
35.530,0.097
35.535,-0.044
35.540,-0.069
35.545,0.087
35.550,0.016
35.555,-0.096
35.560,0.046
35.565,0.074
35.570,-0.086
35.575,-0.021
35.580,0.092
35.585,-0.045
35.590,-0.070
35.595,0.088
35.600,0.019
35.605,-0.094
35.610,0.041
35.615,0.061
35.620,-0.092
35.625,-0.017
35.630,0.098
35.635,-0.041
35.640,-0.069
35.645,0.089
35.650,0.016
35.655,-0.104
35.660,0.037
35.665,0.068
35.670,-0.086
35.675,-0.016
35.680,0.098
35.685,-0.042
35.690,-0.068
35.695,0.091
35.700,0.019
35.705,-0.104
35.710,0.032
35.715,0.064
35.720,-0.094
35.725,-0.028
35.730,0.087
35.735,-0.049
35.740,-0.073
35.745,0.084
35.750,0.016
35.755,-0.096
35.760,0.043
35.765,0.069
35.770,-0.090
35.775,-0.022
35.780,0.096
35.785,-0.040
35.790,-0.069
35.795,0.090
35.800,0.021
35.805,-0.106
35.810,0.022
35.815,0.059
35.820,-0.063
35.825,0.071
35.830,0.257
35.835,0.166
35.840,0.182
35.845,0.333
35.850,0.142
35.855,-0.097
35.860,-0.019
35.865,-0.020
35.870,-0.168
35.875,-0.092
35.880,0.019
35.885,-0.115
35.890,-0.143
35.895,0.016
35.900,-0.047
35.905,-0.160
35.910,-0.016
35.915,0.022
35.920,-0.131
35.925,-0.063
35.930,0.058
35.935,-0.076
35.940,-0.106
35.945,0.057
35.950,-0.002
35.955,-0.121
35.960,0.011
35.965,0.046
35.970,-0.105
35.975,-0.040
35.980,0.081
35.985,-0.053
35.990,-0.084
35.995,0.078
36.000,0.015
36.005,-0.105
36.010,0.032
36.015,0.070
36.020,-0.086
36.025,-0.022
36.030,0.100
36.035,-0.033
36.040,-0.072
36.045,0.079
36.050,0.015
36.055,-0.103
36.060,0.034
36.065,0.073
36.070,-0.082
36.075,-0.018
36.080,0.102
36.085,-0.036
36.090,-0.078
36.095,0.079
36.100,0.025
36.105,-0.092
36.110,0.040
36.115,0.077
36.120,-0.076
36.125,-0.014
36.130,0.105
36.135,-0.032
36.140,-0.072
36.145,0.082
36.150,0.023
36.155,-0.099
36.160,0.031
36.165,0.068
36.170,-0.086
36.175,-0.023
36.180,0.099
36.185,-0.035
36.190,-0.076
36.195,0.084
36.200,0.031
36.205,-0.088
36.210,0.043
36.215,0.079
36.220,-0.079
36.225,-0.017
36.230,0.108
36.235,-0.023
36.240,-0.063
36.245,0.095
36.250,0.040
36.255,-0.084
36.260,0.046
36.265,0.084
36.270,-0.075
36.275,-0.018
36.280,0.107
36.285,-0.026
36.290,-0.071
36.295,0.085
36.300,0.031
36.305,-0.092
36.310,0.039
36.315,0.083
36.320,-0.074
36.325,-0.024
36.330,0.097
36.335,-0.031
36.340,-0.068
36.345,0.085
36.350,0.024
36.355,-0.098
36.360,0.037
36.365,0.079
36.370,-0.079
36.375,-0.023
36.380,0.100
36.385,-0.033
36.390,-0.078
36.395,0.081
36.400,0.028
36.405,-0.098
36.410,0.032
36.415,0.077
36.420,-0.080
36.425,-0.028
36.430,0.098
36.435,-0.030
36.440,-0.075
36.445,0.080
36.450,0.028
36.455,-0.094
36.460,0.032
36.465,0.071
36.470,-0.084
36.475,-0.027
36.480,0.099
36.485,-0.031
36.490,-0.077
36.495,0.080
36.500,0.030
36.505,-0.096
36.510,0.032
36.515,0.078
36.520,-0.078
36.525,-0.023
36.530,0.102
36.535,-0.030
36.540,-0.077
36.545,0.082
36.550,0.033
36.555,-0.095
36.560,0.032
36.565,0.080
36.570,-0.073
36.575,-0.021
36.580,0.101
36.585,-0.027
36.590,-0.074
36.595,0.077
36.600,0.026
36.605,-0.097
36.610,0.032
36.615,0.080
36.620,-0.078
36.625,-0.031
36.630,0.097
36.635,-0.029
36.640,-0.077
36.645,0.081
36.650,0.032
36.655,-0.099
36.660,0.024
36.665,0.074
36.670,-0.082
36.675,-0.034
36.680,0.098
36.685,-0.027
36.690,-0.081
36.695,0.079
36.700,0.037
36.705,-0.093
36.710,0.025
36.715,0.071
36.720,-0.083
36.725,-0.032
36.730,0.100
36.735,-0.025
36.740,-0.078
36.745,0.077
36.750,0.034
36.755,-0.091
36.760,0.035
36.765,0.081
36.770,-0.081
36.775,-0.037
36.780,0.090
36.785,-0.038
36.790,-0.091
36.795,0.070
36.800,0.027
36.805,-0.104
36.810,0.022
36.815,0.075
36.820,-0.086
36.825,-0.042
36.830,0.092
36.835,-0.033
36.840,-0.086
36.845,0.074
36.850,0.030
36.855,-0.102
36.860,0.019
36.865,0.063
36.870,-0.102
36.875,-0.049
36.880,0.117
36.885,0.062
36.890,0.084
36.895,0.302
36.900,0.313
36.905,0.160
36.910,0.144
36.915,0.074
36.920,-0.146
36.925,-0.134
36.930,0.013
36.935,-0.099
36.940,-0.167
36.945,-0.014
36.950,-0.049
36.955,-0.173
36.960,-0.046
36.965,0.008
36.970,-0.146
36.975,-0.087
36.980,0.057
36.985,-0.064
36.990,-0.118
36.995,0.043
37.000,0.006
37.005,-0.121
37.010,0.002
37.015,0.057
37.020,-0.101
37.025,-0.059
37.030,0.078
37.035,-0.039
37.040,-0.092
37.045,0.062
37.050,0.016
37.055,-0.116
37.060,0.015
37.065,0.077
37.070,-0.079
37.075,-0.038
37.080,0.096
37.085,-0.026
37.090,-0.084
37.095,0.074
37.100,0.036
37.105,-0.098
37.110,0.024
37.115,0.084
37.120,-0.073
37.125,-0.036
37.130,0.097
37.135,-0.023
37.140,-0.080
37.145,0.080
37.150,0.045
37.155,-0.090
37.160,0.026
37.165,0.083
37.170,-0.074
37.175,-0.032
37.180,0.105
37.185,-0.016
37.190,-0.079
37.195,0.080
37.200,0.045
37.205,-0.090
37.210,0.028
37.215,0.089
37.220,-0.067
37.225,-0.034
37.230,0.102
37.235,-0.015
37.240,-0.078
37.245,0.079
37.250,0.048
37.255,-0.085
37.260,0.039
37.265,0.106
37.270,-0.055
37.275,-0.028
37.280,0.110
37.285,-0.003
37.290,-0.066
37.295,0.090
37.300,0.057
37.305,-0.080
37.310,0.040
37.315,0.105
37.320,-0.055
37.325,-0.025
37.330,0.110
37.335,-0.008
37.340,-0.073
37.345,0.082
37.350,0.047
37.355,-0.089
37.360,0.030
37.365,0.096
37.370,-0.061
37.375,-0.033
37.380,0.103
37.385,-0.014
37.390,-0.082
37.395,0.071
37.400,0.040
37.405,-0.093
37.410,0.023
37.415,0.088
37.420,-0.066
37.425,-0.036
37.430,0.099
37.435,-0.018
37.440,-0.085
37.445,0.072
37.450,0.039
37.455,-0.100
37.460,0.017
37.465,0.087
37.470,-0.068
37.475,-0.036
37.480,0.096
37.485,-0.023
37.490,-0.086
37.495,0.072
37.500,0.036
37.505,-0.102
37.510,0.017
37.515,0.088
37.520,-0.067
37.525,-0.039
37.530,0.099
37.535,-0.017
37.540,-0.087
37.545,0.069
37.550,0.041
37.555,-0.098
37.560,0.018
37.565,0.089
37.570,-0.069
37.575,-0.040
37.580,0.102
37.585,-0.012
37.590,-0.083
37.595,0.073
37.600,0.043
37.605,-0.099
37.610,0.016
37.615,0.090
37.620,-0.065
37.625,-0.039
37.630,0.102
37.635,-0.010
37.640,-0.082
37.645,0.075
37.650,0.049
37.655,-0.093
37.660,0.019
37.665,0.091
37.670,-0.062
37.675,-0.039
37.680,0.096
37.685,-0.020
37.690,-0.089
37.695,0.076
37.700,0.052
37.705,-0.100
37.710,0.007
37.715,0.084
37.720,-0.071
37.725,-0.047
37.730,0.096
37.735,-0.013
37.740,-0.085
37.745,0.072
37.750,0.050
37.755,-0.092
37.760,0.013
37.765,0.085
37.770,-0.066
37.775,-0.044
37.780,0.093
37.785,-0.017
37.790,-0.089
37.795,0.071
37.800,0.054
37.805,-0.091
37.810,0.010
37.815,0.081
37.820,-0.076
37.825,-0.061
37.830,0.080
37.835,-0.029
37.840,-0.103
37.845,0.055
37.850,0.039
37.855,-0.096
37.860,0.016
37.865,0.089
37.870,-0.070
37.875,-0.054
37.880,0.088
37.885,-0.017
37.890,-0.091
37.895,0.064
37.900,0.043
37.905,-0.101
37.910,0.003
37.915,0.071
37.920,-0.088
37.925,-0.045
37.930,0.167
37.935,0.149
37.940,0.138
37.945,0.345
37.950,0.328
37.955,0.062
37.960,0.025
37.965,0.024
37.970,-0.177
37.975,-0.151
37.980,0.022
37.985,-0.081
37.990,-0.163
37.995,-0.012
38.000,-0.026
38.005,-0.163
38.010,-0.054
38.015,0.030
38.020,-0.120
38.025,-0.101
38.030,0.052
38.035,-0.049
38.040,-0.131
38.045,0.023
38.050,0.012
38.055,-0.126
38.060,-0.019
38.065,0.063
38.070,-0.089
38.075,-0.074
38.080,0.074
38.085,-0.022
38.090,-0.097
38.095,0.056
38.100,0.039
38.105,-0.103
38.110,0.004
38.115,0.086
38.120,-0.068
38.125,-0.053
38.130,0.091
38.135,-0.011
38.140,-0.090
38.145,0.063
38.150,0.044
38.155,-0.104
38.160,0.004
38.165,0.088
38.170,-0.067
38.175,-0.053
38.180,0.095
38.185,-0.010
38.190,-0.094
38.195,0.063
38.200,0.056
38.205,-0.087
38.210,0.012
38.215,0.091
38.220,-0.062
38.225,-0.049
38.230,0.096
38.235,-0.007
38.240,-0.092
38.245,0.058
38.250,0.047
38.255,-0.102
38.260,-0.003
38.265,0.081
38.270,-0.079
38.275,-0.075
38.280,0.078
38.285,-0.015
38.290,-0.100
38.295,0.052
38.300,0.043
38.305,-0.100
38.310,0.003
38.315,0.092
38.320,-0.056
38.325,-0.049
38.330,0.096
38.335,-0.003
38.340,-0.086
38.345,0.071
38.350,0.063
38.355,-0.085
38.360,0.013
38.365,0.100
38.370,-0.049
38.375,-0.042
38.380,0.098
38.385,-0.003
38.390,-0.086
38.395,0.067
38.400,0.061
38.405,-0.086
38.410,0.011
38.415,0.099
38.420,-0.052
38.425,-0.050
38.430,0.093
38.435,-0.003
38.440,-0.087
38.445,0.066
38.450,0.062
38.455,-0.085
38.460,0.011
38.465,0.098
38.470,-0.054
38.475,-0.049
38.480,0.101
38.485,0.006
38.490,-0.087
38.495,0.062
38.500,0.062
38.505,-0.086
38.510,0.005
38.515,0.095
38.520,-0.052
38.525,-0.053
38.530,0.091
38.535,-0.002
38.540,-0.089
38.545,0.063
38.550,0.061
38.555,-0.086
38.560,0.009
38.565,0.099
38.570,-0.051
38.575,-0.048
38.580,0.104
38.585,0.011
38.590,-0.085
38.595,0.063
38.600,0.062
38.605,-0.085
38.610,0.010
38.615,0.101
38.620,-0.054
38.625,-0.058
38.630,0.092
38.635,0.003
38.640,-0.088
38.645,0.061
38.650,0.062
38.655,-0.087
38.660,0.006
38.665,0.100
38.670,-0.051
38.675,-0.052
38.680,0.099
38.685,0.008
38.690,-0.083
38.695,0.070
38.700,0.067
38.705,-0.089
38.710,0.005
38.715,0.102
38.720,-0.047
38.725,-0.053
38.730,0.092
38.735,0.002
38.740,-0.090
38.745,0.059
38.750,0.060
38.755,-0.089
38.760,0.002
38.765,0.093
38.770,-0.055
38.775,-0.054
38.780,0.096
38.785,0.006
38.790,-0.088
38.795,0.063
38.800,0.065
38.805,-0.093
38.810,-0.007
38.815,0.091
38.820,-0.053
38.825,-0.052
38.830,0.096
38.835,0.001
38.840,-0.092
38.845,0.061
38.850,0.063
38.855,-0.093
38.860,-0.009
38.865,0.084
38.870,-0.065
38.875,-0.070
38.880,0.080
38.885,-0.007
38.890,-0.100
38.895,0.050
38.900,0.056
38.905,-0.092
38.910,0.000
38.915,0.096
38.920,-0.059
38.925,-0.063
38.930,0.096
38.935,0.009
38.940,-0.093
38.945,0.055
38.950,0.059
38.955,-0.105
38.960,-0.031
38.965,0.075
38.970,-0.030
38.975,0.042
38.980,0.279
38.985,0.251
38.990,0.200
38.995,0.323
39.000,0.184
39.005,-0.105
39.010,-0.091
39.015,-0.029
39.020,-0.156
39.025,-0.139
39.030,0.011
39.035,-0.074
39.040,-0.173
39.045,-0.026
39.050,-0.016
39.055,-0.164
39.060,-0.073
39.065,0.034
39.070,-0.108
39.075,-0.113
39.080,0.045
39.085,-0.036
39.090,-0.136
39.095,0.009
39.100,0.021
39.105,-0.128
39.110,-0.042
39.115,0.062
39.120,-0.080
39.125,-0.087
39.130,0.068
39.135,-0.016
39.140,-0.113
39.145,0.046
39.150,0.057
39.155,-0.106
39.160,-0.023
39.165,0.085
39.170,-0.061
39.175,-0.075
39.180,0.080
39.185,-0.003
39.190,-0.107
39.195,0.039
39.200,0.052
39.205,-0.100
39.210,-0.017
39.215,0.086
39.220,-0.059
39.225,-0.070
39.230,0.088
39.235,0.007
39.240,-0.094
39.245,0.054
39.250,0.070
39.255,-0.083
39.260,-0.008
39.265,0.092
39.270,-0.044
39.275,-0.053
39.280,0.095
39.285,0.013
39.290,-0.091
39.295,0.046
39.300,0.059
39.305,-0.091
39.310,-0.016
39.315,0.083
39.320,-0.057
39.325,-0.069
39.330,0.084
39.335,0.011
39.340,-0.089
39.345,0.051
39.350,0.072
39.355,-0.073
39.360,-0.008
39.365,0.094
39.370,-0.030
39.375,-0.045
39.380,0.098
39.385,0.024
39.390,-0.077
39.395,0.059
39.400,0.080
39.405,-0.067
39.410,-0.002
39.415,0.097
39.420,-0.032
39.425,-0.051
39.430,0.091
39.435,0.020
39.440,-0.082
39.445,0.051
39.450,0.072
39.455,-0.075
39.460,-0.007
39.465,0.099
39.470,-0.032
39.475,-0.054
39.480,0.087
39.485,0.017
39.490,-0.082
39.495,0.046
39.500,0.064
39.505,-0.078
39.510,-0.010
39.515,0.095
39.520,-0.036
39.525,-0.060
39.530,0.085
39.535,0.018
39.540,-0.087
39.545,0.044
39.550,0.069
39.555,-0.074
39.560,-0.007
39.565,0.096
39.570,-0.033
39.575,-0.055
39.580,0.090
39.585,0.024
39.590,-0.078
39.595,0.053
39.600,0.071
39.605,-0.081
39.610,-0.014
39.615,0.094
39.620,-0.035
39.625,-0.059
39.630,0.088
39.635,0.023
39.640,-0.084
39.645,0.046
39.650,0.068
39.655,-0.080
39.660,-0.013
39.665,0.095
39.670,-0.037
39.675,-0.063
39.680,0.085
39.685,0.021
39.690,-0.085
39.695,0.046
39.700,0.073
39.705,-0.070
39.710,-0.007
39.715,0.090
39.720,-0.048
39.725,-0.073
39.730,0.080
39.735,0.020
39.740,-0.089
39.745,0.040
39.750,0.068
39.755,-0.078
39.760,-0.014
39.765,0.095
39.770,-0.036
39.775,-0.065
39.780,0.082
39.785,0.019
39.790,-0.090
39.795,0.040
39.800,0.069
39.805,-0.079
39.810,-0.017
39.815,0.094
39.820,-0.033
39.825,-0.059
39.830,0.092
39.835,0.025
39.840,-0.100
39.845,0.025
39.850,0.065
39.855,-0.076
39.860,-0.015
39.865,0.095
39.870,-0.035
39.875,-0.064
39.880,0.086
39.885,0.026
39.890,-0.091
39.895,0.033
39.900,0.065
39.905,-0.085
39.910,-0.029
39.915,0.079
39.920,-0.050
39.925,-0.080
39.930,0.068
39.935,0.011
39.940,-0.098
39.945,0.029
39.950,0.065
39.955,-0.075
39.960,-0.021
39.965,0.082
39.970,-0.044
39.975,-0.073
39.980,0.078
39.985,0.021
39.990,-0.098
39.995,0.014
40.000,0.044
40.005,-0.087
40.010,0.015
40.015,0.206
40.020,0.159
40.025,0.180
40.030,0.370
40.035,0.264
40.040,-0.007
40.045,-0.004
40.050,-0.031
40.055,-0.203
40.060,-0.119
40.065,0.013
40.070,-0.113
40.075,-0.148
40.080,-0.003
40.085,-0.052
40.090,-0.155
40.095,-0.026
40.100,0.008
40.105,-0.139
40.110,-0.074
40.115,0.046
40.120,-0.077
40.125,-0.110
40.130,0.042
40.135,-0.009
40.140,-0.124
40.145,-0.001
40.150,0.041
40.155,-0.100
40.160,-0.044
40.165,0.073
40.170,-0.044
40.175,-0.078
40.180,0.073
40.185,0.024
40.190,-0.091
40.195,0.029
40.200,0.066
40.205,-0.080
40.210,-0.027
40.215,0.090
40.220,-0.030
40.225,-0.069
40.230,0.072
40.235,0.018
40.240,-0.096
40.245,0.027
40.250,0.069
40.255,-0.077
40.260,-0.025
40.265,0.093
40.270,-0.030
40.275,-0.070
40.280,0.079
40.285,0.029
40.290,-0.085
40.295,0.039
40.300,0.079
40.305,-0.064
40.310,-0.010
40.315,0.103
40.320,-0.026
40.325,-0.070
40.330,0.077
40.335,0.027
40.340,-0.088
40.345,0.032
40.350,0.065
40.355,-0.088
40.360,-0.036
40.365,0.085
40.370,-0.035
40.375,-0.077
40.380,0.072
40.385,0.030
40.390,-0.086
40.395,0.034
40.400,0.078
40.405,-0.069
40.410,-0.019
40.415,0.101
40.420,-0.019
40.425,-0.061
40.430,0.088
40.435,0.036
40.440,-0.085
40.445,0.037
40.450,0.083
40.455,-0.067
40.460,-0.022
40.465,0.096
40.470,-0.024
40.475,-0.068
40.480,0.081
40.485,0.029
40.490,-0.096
40.495,0.025
40.500,0.076
40.505,-0.070
40.510,-0.028
40.515,0.093
40.520,-0.024
40.525,-0.072
40.530,0.073
40.535,0.030
40.540,-0.088
40.545,0.030
40.550,0.078
40.555,-0.073
40.560,-0.034
40.565,0.087
40.570,-0.027
40.575,-0.073
40.580,0.073
40.585,0.027
40.590,-0.091
40.595,0.030
40.600,0.077
40.605,-0.075
40.610,-0.035
40.615,0.091
40.620,-0.025
40.625,-0.075
40.630,0.077
40.635,0.037
40.640,-0.090
40.645,0.022
40.650,0.075
40.655,-0.067
40.660,-0.027
40.665,0.089
40.670,-0.028
40.675,-0.076
40.680,0.072
40.685,0.031
40.690,-0.090
40.695,0.028
40.700,0.079
40.705,-0.068
40.710,-0.027
40.715,0.096
40.720,-0.025
40.725,-0.079
40.730,0.073
40.735,0.036
40.740,-0.087
40.745,0.032
40.750,0.084
40.755,-0.066
40.760,-0.029
40.765,0.097
40.770,-0.016
40.775,-0.073
40.780,0.070
40.785,0.031
40.790,-0.090
40.795,0.027
40.800,0.080
40.805,-0.069
40.810,-0.032
40.815,0.092
40.820,-0.022
40.825,-0.076
40.830,0.075
40.835,0.041
40.840,-0.087
40.845,0.021
40.850,0.075
40.855,-0.067
40.860,-0.027
40.865,0.098
40.870,-0.016
40.875,-0.072
40.880,0.075
40.885,0.035
40.890,-0.096
40.895,0.018
40.900,0.079
40.905,-0.065
40.910,-0.028
40.915,0.096
40.920,-0.019
40.925,-0.073
40.930,0.074
40.935,0.034
40.940,-0.095
40.945,0.017
40.950,0.070
40.955,-0.076
40.960,-0.038
40.965,0.074
40.970,-0.050
40.975,-0.092
40.980,0.069
40.985,0.036
40.990,-0.086
40.995,0.028
41.000,0.086
41.005,-0.060
41.010,-0.029
41.015,0.089
41.020,-0.028
41.025,-0.082
41.030,0.068
41.035,0.026
41.040,-0.114
41.045,-0.004
41.050,0.077
41.055,-0.013
41.060,0.107
41.065,0.309
41.070,0.247
41.075,0.208
41.080,0.263
41.085,0.074
41.090,-0.149
41.095,-0.092
41.100,-0.043
41.105,-0.161
41.110,-0.122
41.115,0.007
41.120,-0.095
41.125,-0.152
41.130,0.000
41.135,-0.031
41.140,-0.156
41.145,-0.036
41.150,0.031
41.155,-0.112
41.160,-0.079
41.165,0.054
41.170,-0.053
41.175,-0.112
41.180,0.038
41.185,0.011
41.190,-0.115
41.195,-0.004
41.200,0.059
41.205,-0.082
41.210,-0.050
41.215,0.080
41.220,-0.022
41.225,-0.079
41.230,0.061
41.235,0.026
41.240,-0.099
41.245,0.015
41.250,0.083
41.255,-0.065
41.260,-0.043
41.265,0.081
41.270,-0.029
41.275,-0.092
41.280,0.056
41.285,0.029
41.290,-0.098
41.295,0.012
41.300,0.077
41.305,-0.070
41.310,-0.043
41.315,0.088
41.320,-0.018
41.325,-0.079
41.330,0.070
41.335,0.044
41.340,-0.083
41.345,0.031
41.350,0.099
41.355,-0.050
41.360,-0.031
41.365,0.096
41.370,-0.008
41.375,-0.071
41.380,0.075
41.385,0.041
41.390,-0.097
41.395,0.007
41.400,0.075
41.405,-0.069
41.410,-0.045
41.415,0.087
41.420,-0.017
41.425,-0.080
41.430,0.067
41.435,0.044
41.440,-0.086
41.445,0.018
41.450,0.086
41.455,-0.053
41.460,-0.028
41.465,0.101
41.470,-0.002
41.475,-0.071
41.480,0.072
41.485,0.053
41.490,-0.078
41.495,0.018
41.500,0.085
41.505,-0.055
41.510,-0.038
41.515,0.086
41.520,-0.017
41.525,-0.083
41.530,0.065
41.535,0.045
41.540,-0.087
41.545,0.016
41.550,0.082
41.555,-0.064
41.560,-0.042
41.565,0.091
41.570,-0.012
41.575,-0.083
41.580,0.060
41.585,0.039
41.590,-0.093
41.595,0.009
41.600,0.080
41.605,-0.065
41.610,-0.046
41.615,0.089
41.620,-0.010
41.625,-0.081
41.630,0.058
41.635,0.037
41.640,-0.089
41.645,0.013
41.650,0.077
41.655,-0.070
41.660,-0.051
41.665,0.086
41.670,-0.011
41.675,-0.082
41.680,0.062
41.685,0.044
41.690,-0.089
41.695,0.010
41.700,0.080
41.705,-0.066
41.710,-0.049
41.715,0.086
41.720,-0.011
41.725,-0.085
41.730,0.057
41.735,0.040
41.740,-0.093
41.745,0.009
41.750,0.087
41.755,-0.056
41.760,-0.046
41.765,0.086
41.770,-0.009
41.775,-0.081
41.780,0.058
41.785,0.039
41.790,-0.092
41.795,0.010
41.800,0.085
41.805,-0.056
41.810,-0.042
41.815,0.089
41.820,-0.009
41.825,-0.080
41.830,0.065
41.835,0.049
41.840,-0.087
41.845,0.010
41.850,0.087
41.855,-0.053
41.860,-0.038
41.865,0.094
41.870,-0.007
41.875,-0.082
41.880,0.060
41.885,0.044
41.890,-0.086
41.895,0.022
41.900,0.097
41.905,-0.061
41.910,-0.054
41.915,0.083
41.920,-0.017
41.925,-0.091
41.930,0.060
41.935,0.050
41.940,-0.084
41.945,0.013
41.950,0.089
41.955,-0.052
41.960,-0.042
41.965,0.089
41.970,-0.007
41.975,-0.084
41.980,0.056
41.985,0.043
41.990,-0.094
41.995,0.000
42.000,0.079
42.005,-0.062
42.010,-0.051
42.015,0.085
42.020,-0.005
42.025,-0.073
42.030,0.074
42.035,0.057
42.040,-0.092
42.045,0.000
42.050,0.087
42.055,-0.054
42.060,-0.050
42.065,0.084
42.070,-0.017
42.075,-0.100
42.080,0.064
42.085,0.112
42.090,0.057
42.095,0.218
42.100,0.333
42.105,0.201
42.110,0.130
42.115,0.122
42.120,-0.062
42.125,-0.192
42.130,-0.064
42.135,-0.035
42.140,-0.154
42.145,-0.064
42.150,0.019
42.155,-0.120
42.160,-0.107
42.165,0.037
42.170,-0.051
42.175,-0.135
42.180,0.003
42.185,0.003
42.190,-0.126
42.195,-0.032
42.200,0.051
42.205,-0.084
42.210,-0.075
42.215,0.064
42.220,-0.021
42.225,-0.101
42.230,0.038
42.235,0.035
42.240,-0.100
42.245,-0.009
42.250,0.077
42.255,-0.060
42.260,-0.055
42.265,0.083
42.270,-0.004
42.275,-0.086
42.280,0.055
42.285,0.052
42.290,-0.087
42.295,0.002
42.300,0.087
42.305,-0.056
42.310,-0.058
42.315,0.079
42.320,-0.010
42.325,-0.092
42.330,0.052
42.335,0.054
42.340,-0.086
42.345,0.001
42.350,0.090
42.355,-0.047
42.360,-0.047
42.365,0.094
42.370,0.011
42.375,-0.076
42.380,0.060
42.385,0.060
42.390,-0.077
42.395,0.006
42.400,0.087
42.405,-0.054
42.410,-0.059
42.415,0.073
42.420,-0.010
42.425,-0.092
42.430,0.043
42.435,0.042
42.440,-0.096
42.445,-0.010
42.450,0.079
42.455,-0.057
42.460,-0.059
42.465,0.080
42.470,-0.001
42.475,-0.083
42.480,0.055
42.485,0.058
42.490,-0.076
42.495,0.011
42.500,0.095
42.505,-0.046
42.510,-0.048
42.515,0.093
42.520,0.009
42.525,-0.077
42.530,0.059
42.535,0.059
42.540,-0.081
42.545,0.003
42.550,0.095
42.555,-0.043
42.560,-0.051
42.565,0.086
42.570,0.002
42.575,-0.083
42.580,0.061
42.585,0.065
42.590,-0.078
42.595,-0.002
42.600,0.085
42.605,-0.047
42.610,-0.050
42.615,0.089
42.620,0.008
42.625,-0.081
42.630,0.055
42.635,0.060
42.640,-0.079
42.645,-0.001
42.650,0.087
42.655,-0.047
42.660,-0.052
42.665,0.090
42.670,0.010
42.675,-0.083
42.680,0.055
42.685,0.062
42.690,-0.081
42.695,0.000
42.700,0.091
42.705,-0.049
42.710,-0.057
42.715,0.088
42.720,0.011
42.725,-0.081
42.730,0.055
42.735,0.059
42.740,-0.085
42.745,-0.007
42.750,0.084
42.755,-0.050
42.760,-0.057
42.765,0.085
42.770,0.007
42.775,-0.083
42.780,0.053
42.785,0.060
42.790,-0.082
42.795,-0.005
42.800,0.089
42.805,-0.048
42.810,-0.058
42.815,0.085
42.820,0.010
42.825,-0.082
42.830,0.053
42.835,0.063
42.840,-0.079
42.845,-0.002
42.850,0.089
42.855,-0.047
42.860,-0.053
42.865,0.091
42.870,0.013
42.875,-0.084
42.880,0.047
42.885,0.055
42.890,-0.089
42.895,-0.013
42.900,0.084
42.905,-0.050
42.910,-0.063
42.915,0.080
42.920,0.002
42.925,-0.092
42.930,0.048
42.935,0.059
42.940,-0.086
42.945,-0.010
42.950,0.089
42.955,-0.045
42.960,-0.060
42.965,0.080
42.970,0.002
42.975,-0.097
42.980,0.038
42.985,0.054
42.990,-0.090
42.995,-0.018
43.000,0.079
43.005,-0.053
43.010,-0.065
43.015,0.080
43.020,0.006
43.025,-0.092
43.030,0.044
43.035,0.065
43.040,-0.077
43.045,-0.007
43.050,0.088
43.055,-0.042
43.060,-0.057
43.065,0.076
43.070,-0.007
43.075,-0.103
43.080,0.061
43.085,0.139
43.090,0.066
43.095,0.179
43.100,0.303
43.105,0.165
43.110,0.049
43.115,0.077
43.120,-0.050
43.125,-0.184
43.130,-0.048
43.135,-0.002
43.140,-0.141
43.145,-0.071
43.150,0.036
43.155,-0.095
43.160,-0.112
43.165,0.036
43.170,-0.031
43.175,-0.128
43.180,0.007
43.185,0.028
43.190,-0.113
43.195,-0.036
43.200,0.070
43.205,-0.066
43.210,-0.089
43.215,0.060
43.220,-0.003
43.225,-0.103
43.230,0.033
43.235,0.056
43.240,-0.089
43.245,-0.019
43.250,0.088
43.255,-0.040
43.260,-0.061
43.265,0.084
43.270,0.017
43.275,-0.086
43.280,0.046
43.285,0.063
43.290,-0.084
43.295,-0.018
43.300,0.084
43.305,-0.046
43.310,-0.066
43.315,0.079
43.320,0.014
43.325,-0.090
43.330,0.037
43.335,0.057
43.340,-0.086
43.345,-0.016
43.350,0.090
43.355,-0.038
43.360,-0.064
43.365,0.078
43.370,0.015
43.375,-0.087
43.380,0.042
43.385,0.066
43.390,-0.082
43.395,-0.018
43.400,0.086
43.405,-0.050
43.410,-0.078
43.415,0.067
43.420,0.001
43.425,-0.103
43.430,0.028
43.435,0.052
43.440,-0.092
43.445,-0.022
43.450,0.087
43.455,-0.043
43.460,-0.065
43.465,0.083
43.470,0.017
43.475,-0.088
43.480,0.046
43.485,0.072
43.490,-0.075
43.495,-0.010
43.500,0.098
43.505,-0.031
43.510,-0.056
43.515,0.095
43.520,0.032
43.525,-0.083
43.530,0.043
43.535,0.074
43.540,-0.070
43.545,-0.006
43.550,0.100
43.555,-0.030
43.560,-0.054
43.565,0.095
43.570,0.031
43.575,-0.081
43.580,0.046
43.585,0.077
43.590,-0.068
43.595,-0.004
43.600,0.107
43.605,-0.019
43.610,-0.044
43.615,0.101
43.620,0.036
43.625,-0.075
43.630,0.053
43.635,0.085
43.640,-0.060
43.645,0.000
43.650,0.109
43.655,-0.020
43.660,-0.052
43.665,0.094
43.670,0.038
43.675,-0.069
43.680,0.054
43.685,0.075
43.690,-0.071
43.695,-0.005
43.700,0.103
43.705,-0.028
43.710,-0.059
43.715,0.088
43.720,0.028
43.725,-0.083
43.730,0.043
43.735,0.073
43.740,-0.074
43.745,-0.017
43.750,0.093
43.755,-0.035
43.760,-0.068
43.765,0.079
43.770,0.023
43.775,-0.089
43.780,0.036
43.785,0.065
43.790,-0.082
43.795,-0.018
43.800,0.097
43.805,-0.034
43.810,-0.071
43.815,0.078
43.820,0.023
43.825,-0.087
43.830,0.041
43.835,0.073
43.840,-0.082
43.845,-0.026
43.850,0.090
43.855,-0.036
43.860,-0.070
43.865,0.078
43.870,0.021
43.875,-0.090
43.880,0.037
43.885,0.071
43.890,-0.077
43.895,-0.021
43.900,0.094
43.905,-0.030
43.910,-0.066
43.915,0.078
43.920,0.021
43.925,-0.090
43.930,0.038
43.935,0.075
43.940,-0.077
43.945,-0.026
43.950,0.091
43.955,-0.033
43.960,-0.071
43.965,0.078
43.970,0.026
43.975,-0.085
43.980,0.039
43.985,0.069
43.990,-0.083
43.995,-0.033
44.000,0.080
44.005,-0.044
44.010,-0.082
44.015,0.064
44.020,0.008
44.025,-0.105
44.030,0.022
44.035,0.060
44.040,-0.088
44.045,-0.034
44.050,0.084
44.055,-0.039
44.060,-0.077
44.065,0.072
44.070,0.020
44.075,-0.097
44.080,0.025
44.085,0.063
44.090,-0.091
44.095,-0.049
44.100,0.070
44.105,-0.030
44.110,-0.019
44.115,0.200
44.120,0.201
44.125,0.127
44.130,0.274
44.135,0.235
44.140,-0.048
44.145,-0.073
44.150,0.007
44.155,-0.120
44.160,-0.145
44.165,0.004
44.170,-0.046
44.175,-0.157
44.180,-0.032
44.185,0.009
44.190,-0.140
44.195,-0.084
44.200,0.043
44.205,-0.074
44.210,-0.112
44.215,0.039
44.220,-0.007
44.225,-0.124
44.230,-0.003
44.235,0.041
44.240,-0.102
44.245,-0.050
44.250,0.072
44.255,-0.047
44.260,-0.091
44.265,0.061
44.270,0.019
44.275,-0.098
44.280,0.019
44.285,0.062
44.290,-0.084
44.295,-0.036
44.300,0.084
44.305,-0.038
44.310,-0.085
44.315,0.064
44.320,0.021
44.325,-0.098
44.330,0.016
44.335,0.060
44.340,-0.085
44.345,-0.040
44.350,0.077
44.355,-0.043
44.360,-0.088
44.365,0.059
44.370,0.013
44.375,-0.104
44.380,0.021
44.385,0.072
44.390,-0.078
44.395,-0.037
44.400,0.085
44.405,-0.030
44.410,-0.076
44.415,0.070
44.420,0.029
44.425,-0.089
44.430,0.027
44.435,0.069
44.440,-0.083
44.445,-0.037
44.450,0.089
44.455,-0.027
44.460,-0.074
44.465,0.075
44.470,0.032
44.475,-0.087
44.480,0.035
44.485,0.085
44.490,-0.063
44.495,-0.019
44.500,0.104
44.505,-0.013
44.510,-0.060
44.515,0.088
44.520,0.048
44.525,-0.075
44.530,0.038
44.535,0.086
44.540,-0.059
44.545,-0.019
44.550,0.101
44.555,-0.016
44.560,-0.067
44.565,0.078
44.570,0.037
44.575,-0.086
44.580,0.030
44.585,0.083
44.590,-0.066
44.595,-0.031
44.600,0.086
44.605,-0.031
44.610,-0.079
44.615,0.070
44.620,0.032
44.625,-0.091
44.630,0.025
44.635,0.077
44.640,-0.071
44.645,-0.033
44.650,0.093
44.655,-0.021
44.660,-0.074
44.665,0.072
44.670,0.032
44.675,-0.092
44.680,0.022
44.685,0.076
44.690,-0.072
44.695,-0.035
44.700,0.090
44.705,-0.024
44.710,-0.078
44.715,0.070
44.720,0.035
44.725,-0.086
44.730,0.028
44.735,0.078
44.740,-0.073
44.745,-0.035
44.750,0.094
44.755,-0.019
44.760,-0.073
44.765,0.073
44.770,0.032
44.775,-0.095
44.780,0.022
44.785,0.081
44.790,-0.069
44.795,-0.033
44.800,0.095
44.805,-0.020
44.810,-0.078
44.815,0.068
44.820,0.035
44.825,-0.090
44.830,0.021
44.835,0.079
44.840,-0.067
44.845,-0.033
44.850,0.097
44.855,-0.013
44.860,-0.075
44.865,0.066
44.870,0.032
44.875,-0.091
44.880,0.019
44.885,0.078
44.890,-0.063
44.895,-0.031
44.900,0.089
44.905,-0.026
44.910,-0.084
44.915,0.064
44.920,0.033
44.925,-0.093
44.930,0.015
44.935,0.072
44.940,-0.073
44.945,-0.041
44.950,0.088
44.955,-0.022
44.960,-0.083
44.965,0.056
44.970,0.017
44.975,-0.101
44.980,0.025
44.985,0.090
44.990,-0.061
44.995,-0.038
45.000,0.084
45.005,-0.026
45.010,-0.088
45.015,0.059
45.020,0.031
45.025,-0.098
45.030,0.010
45.035,0.076
45.040,-0.065
45.045,-0.033
45.050,0.089
45.055,-0.028
45.060,-0.092
45.065,0.052
45.070,0.022
45.075,-0.106
45.080,0.001
45.085,0.065
45.090,-0.077
45.095,-0.047
45.100,0.084
45.105,-0.024
45.110,-0.087
45.115,0.062
45.120,0.038
45.125,-0.096
45.130,0.006
45.135,0.072
45.140,-0.070
45.145,-0.043
45.150,0.082
