'Elapsed time','ECG'
'seconds','mV'
0.000,-0.011
0.005,-0.045
0.010,-0.062
0.015,-0.016
0.020,-0.005
0.025,-0.033
0.030,-0.008
0.035,0.027
0.040,-0.001
0.045,-0.001
0.050,0.043
0.055,0.031
0.060,0.009
0.065,0.047
0.070,0.054
0.075,0.018
0.080,0.036
0.085,0.060
0.090,0.024
0.095,0.020
0.100,0.056
0.105,0.037
0.110,0.015
0.115,0.047
0.120,0.047
0.125,0.011
0.130,0.030
0.135,0.053
0.140,0.018
0.145,0.010
0.150,0.043
0.155,0.023
0.160,-0.005
0.165,0.031
0.170,0.040
0.175,0.005
0.180,0.022
0.185,0.049
0.190,0.014
0.195,0.006
0.200,0.045
0.205,0.036
0.210,0.011
0.215,0.039
0.220,0.043
0.225,0.008
0.230,0.027
0.235,0.055
0.240,0.022
0.245,0.017
0.250,0.051
0.255,0.033
0.260,0.011
0.265,0.046
0.270,0.051
0.275,0.012
0.280,0.032
0.285,0.070
0.290,0.049
0.295,0.059
0.300,0.121
0.305,0.116
0.310,0.080
0.315,0.107
0.320,0.123
0.325,0.085
0.330,0.075
0.335,0.083
0.340,0.069
0.345,0.088
0.350,0.127
0.355,0.101
0.360,0.062
0.365,0.070
0.370,0.048
0.375,-0.006
0.380,0.007
0.385,0.030
0.390,-0.014
0.395,-0.038
0.400,-0.023
0.405,-0.054
0.410,-0.087
0.415,-0.055
0.420,-0.047
0.425,-0.082
0.430,-0.060
0.435,-0.028
0.440,-0.056
0.445,-0.057
0.450,-0.007
0.455,0.022
0.460,0.100
0.465,0.311
0.470,0.633
0.475,1.075
0.480,1.540
0.485,1.555
0.490,0.801
0.495,-0.153
0.500,-0.633
0.505,-0.670
0.510,-0.520
0.515,-0.352
0.520,-0.270
0.525,-0.253
0.530,-0.221
0.535,-0.202
0.540,-0.238
0.545,-0.235
0.550,-0.186
0.555,-0.194
0.560,-0.213
0.565,-0.172
0.570,-0.157
0.575,-0.183
0.580,-0.153
0.585,-0.119
0.590,-0.149
0.595,-0.147
0.600,-0.100
0.605,-0.110
0.610,-0.132
0.615,-0.088
0.620,-0.068
0.625,-0.098
0.630,-0.075
0.635,-0.038
0.640,-0.062
0.645,-0.058
0.650,-0.012
0.655,-0.021
0.660,-0.041
0.665,0.005
0.670,0.026
0.675,-0.002
0.680,0.023
0.685,0.060
0.690,0.035
0.695,0.039
0.700,0.090
0.705,0.082
0.710,0.063
0.715,0.108
0.720,0.127
0.725,0.100
0.730,0.124
0.735,0.152
0.740,0.117
0.745,0.112
0.750,0.148
0.755,0.126
0.760,0.092
0.765,0.118
0.770,0.112
0.775,0.056
0.780,0.054
0.785,0.060
0.790,0.005
0.795,-0.024
0.800,-0.012
0.805,-0.055
0.810,-0.105
0.815,-0.089
0.820,-0.100
0.825,-0.158
0.830,-0.158
0.835,-0.142
0.840,-0.183
0.845,-0.192
0.850,-0.155
0.855,-0.175
0.860,-0.198
0.865,-0.157
0.870,-0.146
0.875,-0.183
0.880,-0.162
0.885,-0.125
0.890,-0.148
0.895,-0.149
0.900,-0.106
0.905,-0.113
0.910,-0.128
0.915,-0.085
0.920,-0.072
0.925,-0.102
0.930,-0.077
0.935,-0.042
0.940,-0.064
0.945,-0.060
0.950,-0.016
0.955,-0.028
0.960,-0.049
0.965,-0.009
0.970,0.006
0.975,-0.024
0.980,-0.005
0.985,0.024
0.990,-0.005
0.995,-0.008
1.000,0.029
1.005,0.011
1.010,-0.015
1.015,0.022
1.020,0.033
1.025,-0.005
1.030,0.012
1.035,0.039
1.040,0.001
1.045,-0.005
1.050,0.036
1.055,0.019
1.060,-0.010
1.065,0.023
1.070,0.031
1.075,-0.003
1.080,0.016
1.085,0.045
1.090,0.010
1.095,0.002
1.100,0.042
1.105,0.030
1.110,0.001
1.115,0.034
1.120,0.040
1.125,0.000
1.130,0.022
1.135,0.054
1.140,0.024
1.145,0.021
1.150,0.054
1.155,0.032
1.160,0.006
1.165,0.040
1.170,0.044
1.175,0.008
1.180,0.027
1.185,0.058
1.190,0.024
1.195,0.015
1.200,0.053
1.205,0.039
1.210,0.020
1.215,0.068
1.220,0.089
1.225,0.070
1.230,0.099
1.235,0.124
1.240,0.083
1.245,0.084
1.250,0.133
1.255,0.102
1.260,0.046
1.265,0.082
1.270,0.114
1.275,0.084
1.280,0.095
1.285,0.118
1.290,0.065
1.295,0.027
1.300,0.042
1.305,0.021
1.310,-0.007
1.315,0.011
1.320,-0.007
1.325,-0.065
1.330,-0.060
1.335,-0.038
1.340,-0.074
1.345,-0.081
1.350,-0.040
1.355,-0.052
1.360,-0.073
1.365,-0.037
1.370,-0.029
1.375,-0.056
1.380,-0.003
1.385,0.110
1.390,0.221
1.395,0.464
1.400,0.926
1.405,1.395
1.410,1.536
1.415,1.050
1.420,0.102
1.425,-0.604
1.430,-0.724
1.435,-0.550
1.440,-0.415
1.445,-0.317
1.450,-0.210
1.455,-0.204
1.460,-0.236
1.465,-0.199
1.470,-0.184
1.475,-0.211
1.480,-0.184
1.485,-0.152
1.490,-0.179
1.495,-0.168
1.500,-0.117
1.505,-0.135
1.510,-0.159
1.515,-0.117
1.520,-0.106
1.525,-0.135
1.530,-0.105
1.535,-0.071
1.540,-0.100
1.545,-0.096
1.550,-0.053
1.555,-0.066
1.560,-0.078
1.565,-0.032
1.570,-0.023
1.575,-0.047
1.580,-0.013
1.585,0.018
1.590,-0.015
1.595,-0.007
1.600,0.049
1.605,0.038
1.610,0.012
1.615,0.050
1.620,0.067
1.625,0.045
1.630,0.079
1.635,0.114
1.640,0.088
1.645,0.096
1.650,0.145
1.655,0.133
1.660,0.104
1.665,0.135
1.670,0.144
1.675,0.109
1.680,0.125
1.685,0.146
1.690,0.105
1.695,0.091
1.700,0.111
1.705,0.069
1.710,0.019
1.715,0.034
1.720,0.015
1.725,-0.051
1.730,-0.054
1.735,-0.045
1.740,-0.101
1.745,-0.128
1.750,-0.111
1.755,-0.144
1.760,-0.178
1.765,-0.150
1.770,-0.151
1.775,-0.194
1.780,-0.179
1.785,-0.151
1.790,-0.180
1.795,-0.179
1.800,-0.139
1.805,-0.156
1.810,-0.177
1.815,-0.133
1.820,-0.123
1.825,-0.157
1.830,-0.130
1.835,-0.091
1.840,-0.113
1.845,-0.107
1.850,-0.063
1.855,-0.077
1.860,-0.092
1.865,-0.040
1.870,-0.027
1.875,-0.065
1.880,-0.043
1.885,-0.007
1.890,-0.031
1.895,-0.026
1.900,0.016
1.905,0.001
1.910,-0.024
1.915,0.009
1.920,0.020
1.925,-0.010
1.930,0.006
1.935,0.026
1.940,-0.008
1.945,-0.005
1.950,0.038
1.955,0.022
1.960,-0.003
1.965,0.029
1.970,0.027
1.975,-0.017
1.980,-0.002
1.985,0.026
1.990,-0.006
1.995,-0.007
2.000,0.036
2.005,0.022
2.010,-0.010
2.015,0.016
2.020,0.025
2.025,-0.004
2.030,0.014
2.035,0.037
2.040,0.004
2.045,0.004
2.050,0.044
2.055,0.024
2.060,0.000
2.065,0.036
2.070,0.040
2.075,0.008
2.080,0.033
2.085,0.054
2.090,0.012
2.095,0.014
2.100,0.059
2.105,0.035
2.110,0.004
2.115,0.045
2.120,0.054
2.125,0.029
2.130,0.074
2.135,0.122
2.140,0.090
2.145,0.075
2.150,0.109
2.155,0.106
2.160,0.097
2.165,0.118
2.170,0.088
2.175,0.051
2.180,0.106
2.185,0.146
2.190,0.101
2.195,0.075
2.200,0.081
2.205,0.036
2.210,-0.008
2.215,0.023
2.220,0.031
2.225,-0.016
2.230,-0.021
2.235,-0.021
2.240,-0.074
2.245,-0.090
2.250,-0.051
2.255,-0.059
2.260,-0.083
2.265,-0.054
2.270,-0.043
2.275,-0.066
2.280,-0.040
2.285,-0.008
2.290,-0.008
2.295,0.080
2.300,0.256
2.305,0.470
2.310,0.884
2.315,1.417
2.320,1.511
2.325,0.870
2.330,-0.008
2.335,-0.527
2.340,-0.661
2.345,-0.593
2.350,-0.442
2.355,-0.316
2.360,-0.238
2.365,-0.184
2.370,-0.180
2.375,-0.212
2.380,-0.190
2.385,-0.152
2.390,-0.171
2.395,-0.167
2.400,-0.122
2.405,-0.133
2.410,-0.153
2.415,-0.116
2.420,-0.108
2.425,-0.130
2.430,-0.100
2.435,-0.074
2.440,-0.102
2.445,-0.095
2.450,-0.053
2.455,-0.066
2.460,-0.082
2.465,-0.034
2.470,-0.017
2.475,-0.048
2.480,-0.028
2.485,-0.007
2.490,-0.039
2.495,-0.021
2.500,0.034
2.505,0.018
2.510,0.000
2.515,0.050
2.520,0.074
2.525,0.049
2.530,0.058
2.535,0.082
2.540,0.073
2.545,0.090
2.550,0.141
2.555,0.131
2.560,0.106
2.565,0.151
2.570,0.161
2.575,0.109
2.580,0.122
2.585,0.157
2.590,0.122
2.595,0.114
2.600,0.145
2.605,0.114
2.610,0.067
2.615,0.078
2.620,0.070
2.625,0.011
2.630,0.001
2.635,0.012
2.640,-0.041
2.645,-0.079
2.650,-0.078
2.655,-0.126
2.660,-0.167
2.665,-0.140
2.670,-0.142
2.675,-0.183
2.680,-0.166
2.685,-0.157
2.690,-0.208
2.695,-0.198
2.700,-0.147
2.705,-0.168
2.710,-0.192
2.715,-0.147
2.720,-0.135
2.725,-0.167
2.730,-0.137
2.735,-0.099
2.740,-0.129
2.745,-0.134
2.750,-0.087
2.755,-0.090
2.760,-0.106
2.765,-0.062
2.770,-0.051
2.775,-0.081
2.780,-0.048
2.785,-0.010
2.790,-0.041
2.795,-0.045
2.800,0.004
2.805,-0.004
2.810,-0.029
2.815,0.012
2.820,0.021
2.825,-0.025
2.830,-0.005
2.835,0.037
2.840,0.004
2.845,-0.014
2.850,0.026
2.855,0.019
2.860,-0.005
2.865,0.029
2.870,0.026
2.875,-0.024
2.880,-0.012
2.885,0.018
2.890,-0.004
2.895,-0.009
2.900,0.022
2.905,0.008
2.910,-0.011
2.915,0.026
2.920,0.028
2.925,-0.010
2.930,0.012
2.935,0.037
2.940,0.003
2.945,-0.003
2.950,0.039
2.955,0.029
2.960,-0.002
2.965,0.023
2.970,0.026
2.975,-0.003
2.980,0.024
2.985,0.050
2.990,0.017
2.995,0.013
3.000,0.051
3.005,0.036
3.010,0.012
3.015,0.047
3.020,0.061
3.025,0.042
3.030,0.077
3.035,0.109
3.040,0.078
3.045,0.080
3.050,0.128
3.055,0.122
3.060,0.087
3.065,0.092
3.070,0.096
3.075,0.084
3.080,0.110
3.085,0.134
3.090,0.095
3.095,0.067
3.100,0.069
3.105,0.020
3.110,-0.016
3.115,0.025
3.120,0.026
3.125,-0.030
3.130,-0.034
3.135,-0.026
3.140,-0.074
3.145,-0.088
3.150,-0.047
3.155,-0.052
3.160,-0.069
3.165,-0.028
3.170,-0.015
3.175,-0.058
3.180,-0.045
3.185,0.019
3.190,0.082
3.195,0.230
3.200,0.534
3.205,0.986
3.210,1.473
3.215,1.614
3.220,1.023
3.225,0.044
3.230,-0.548
3.235,-0.644
3.240,-0.601
3.245,-0.483
3.250,-0.295
3.255,-0.218
3.260,-0.236
3.265,-0.205
3.270,-0.193
3.275,-0.229
3.280,-0.205
3.285,-0.164
3.290,-0.185
3.295,-0.186
3.300,-0.142
3.305,-0.145
3.310,-0.160
3.315,-0.119
3.320,-0.112
3.325,-0.145
3.330,-0.111
3.335,-0.072
3.340,-0.108
3.345,-0.111
3.350,-0.058
3.355,-0.061
3.360,-0.079
3.365,-0.038
3.370,-0.026
3.375,-0.060
3.380,-0.042
3.385,-0.008
3.390,-0.025
3.395,-0.014
3.400,0.038
3.405,0.030
3.410,0.011
3.415,0.054
3.420,0.064
3.425,0.032
3.430,0.064
3.435,0.107
3.440,0.087
3.445,0.093
3.450,0.136
3.455,0.120
3.460,0.096
3.465,0.137
3.470,0.151
3.475,0.112
3.480,0.123
3.485,0.149
3.490,0.113
3.495,0.096
3.500,0.123
3.505,0.092
3.510,0.045
3.515,0.064
3.520,0.052
3.525,-0.013
3.530,-0.029
3.535,-0.032
3.540,-0.090
3.545,-0.114
3.550,-0.091
3.555,-0.126
3.560,-0.168
3.565,-0.147
3.570,-0.156
3.575,-0.200
3.580,-0.183
3.585,-0.156
3.590,-0.186
3.595,-0.188
3.600,-0.157
3.605,-0.177
3.610,-0.195
3.615,-0.152
3.620,-0.135
3.625,-0.154
3.630,-0.120
3.635,-0.085
3.640,-0.115
3.645,-0.115
3.650,-0.067
3.655,-0.076
3.660,-0.097
3.665,-0.055
3.670,-0.038
3.675,-0.065
3.680,-0.039
3.685,-0.004
3.690,-0.031
3.695,-0.029
3.700,0.016
3.705,0.003
3.710,-0.017
3.715,0.019
3.720,0.021
3.725,-0.020
3.730,0.002
3.735,0.034
3.740,0.002
3.745,-0.002
3.750,0.035
3.755,0.013
3.760,-0.015
3.765,0.018
3.770,0.023
3.775,-0.013
3.780,0.007
3.785,0.037
3.790,0.004
3.795,-0.001
3.800,0.037
3.805,0.019
3.810,-0.006
3.815,0.028
3.820,0.027
3.825,-0.010
3.830,0.011
3.835,0.040
3.840,0.003
3.845,-0.005
3.850,0.037
3.855,0.025
3.860,0.002
3.865,0.037
3.870,0.039
3.875,-0.004
3.880,0.016
3.885,0.045
3.890,0.011
3.895,0.012
3.900,0.055
3.905,0.034
3.910,0.003
3.915,0.038
3.920,0.046
3.925,0.012
3.930,0.038
3.935,0.082
3.940,0.067
3.945,0.077
3.950,0.121
3.955,0.095
3.960,0.066
3.965,0.112
3.970,0.121
3.975,0.061
3.980,0.063
3.985,0.111
3.990,0.102
3.995,0.099
4.000,0.128
4.005,0.090
4.010,0.034
4.015,0.043
4.020,0.033
4.025,-0.006
4.030,0.007
4.035,0.014
4.040,-0.043
4.045,-0.064
4.050,-0.035
4.055,-0.058
4.060,-0.084
4.065,-0.045
4.070,-0.037
4.075,-0.073
4.080,-0.049
4.085,-0.019
4.090,-0.050
4.095,-0.038
4.100,0.058
4.105,0.160
4.110,0.335
4.115,0.729
4.120,1.239
4.125,1.579
4.130,1.396
4.135,0.570
4.140,-0.329
4.145,-0.688
4.150,-0.605
4.155,-0.475
4.160,-0.381
4.165,-0.256
4.170,-0.205
4.175,-0.239
4.180,-0.227
4.185,-0.200
4.190,-0.220
4.195,-0.210
4.200,-0.164
4.205,-0.176
4.210,-0.196
4.215,-0.151
4.220,-0.135
4.225,-0.161
4.230,-0.134
4.235,-0.104
4.240,-0.133
4.245,-0.129
4.250,-0.086
4.255,-0.096
4.260,-0.112
4.265,-0.072
4.270,-0.060
4.275,-0.086
4.280,-0.059
4.285,-0.026
4.290,-0.050
4.295,-0.043
4.300,0.002
4.305,-0.009
4.310,-0.025
4.315,0.022
4.320,0.043
4.325,0.018
4.330,0.039
4.335,0.070
4.340,0.048
4.345,0.056
4.350,0.105
4.355,0.096
4.360,0.076
4.365,0.116
4.370,0.129
4.375,0.100
4.380,0.123
4.385,0.153
4.390,0.117
4.395,0.105
4.400,0.140
4.405,0.121
4.410,0.084
4.415,0.103
4.420,0.089
4.425,0.033
4.430,0.034
4.435,0.036
4.440,-0.025
4.445,-0.056
4.450,-0.042
4.455,-0.081
4.460,-0.126
4.465,-0.109
4.470,-0.120
4.475,-0.171
4.480,-0.163
4.485,-0.147
4.490,-0.186
4.495,-0.192
4.500,-0.151
4.505,-0.167
4.510,-0.192
4.515,-0.154
4.520,-0.142
4.525,-0.171
4.530,-0.146
4.535,-0.110
4.540,-0.137
4.545,-0.136
4.550,-0.090
4.555,-0.100
4.560,-0.116
4.565,-0.072
4.570,-0.058
4.575,-0.086
4.580,-0.056
4.585,-0.018
4.590,-0.044
4.595,-0.044
4.600,0.000
4.605,-0.012
4.610,-0.037
4.615,0.000
4.620,0.012
4.625,-0.018
4.630,0.006
4.635,0.032
4.640,-0.003
4.645,-0.006
4.650,0.036
4.655,0.019
4.660,-0.007
4.665,0.028
4.670,0.031
4.675,-0.008
4.680,0.011
4.685,0.037
4.690,0.002
4.695,-0.002
4.700,0.032
4.705,0.013
4.710,-0.008
4.715,0.026
4.720,0.027
4.725,-0.008
4.730,0.015
4.735,0.043
4.740,0.006
4.745,0.001
4.750,0.042
4.755,0.024
4.760,-0.003
4.765,0.031
4.770,0.036
4.775,0.000
4.780,0.018
4.785,0.044
4.790,0.010
4.795,0.007
4.800,0.048
4.805,0.027
4.810,0.000
4.815,0.042
4.820,0.053
4.825,0.017
4.830,0.031
4.835,0.052
4.840,0.016
4.845,0.015
4.850,0.069
4.855,0.072
4.860,0.066
4.865,0.114
4.870,0.116
4.875,0.069
4.880,0.093
4.885,0.130
4.890,0.082
4.895,0.054
4.900,0.096
4.905,0.099
4.910,0.080
4.915,0.113
4.920,0.112
4.925,0.051
4.930,0.037
4.935,0.043
4.940,-0.001
4.945,-0.010
4.950,0.022
4.955,-0.014
4.960,-0.061
4.965,-0.040
4.970,-0.041
4.975,-0.082
4.980,-0.063
4.985,-0.032
4.990,-0.066
4.995,-0.069
5.000,-0.026
5.005,-0.039
5.010,-0.057
5.015,0.013
5.020,0.109
5.025,0.223
5.030,0.500
5.035,0.955
5.040,1.403
5.045,1.556
5.050,1.059
5.055,0.083
5.060,-0.603
5.065,-0.698
5.070,-0.547
5.075,-0.423
5.080,-0.303
5.085,-0.209
5.090,-0.219
5.095,-0.228
5.100,-0.193
5.105,-0.204
5.110,-0.221
5.115,-0.178
5.120,-0.162
5.125,-0.188
5.130,-0.158
5.135,-0.119
5.140,-0.149
5.145,-0.152
5.150,-0.107
5.155,-0.119
5.160,-0.140
5.165,-0.094
5.170,-0.078
5.175,-0.109
5.180,-0.086
5.185,-0.053
5.190,-0.079
5.195,-0.076
5.200,-0.029
5.205,-0.036
5.210,-0.052
5.215,-0.007
5.220,0.009
5.225,-0.022
5.230,0.001
5.235,0.036
5.240,0.014
5.245,0.018
5.250,0.068
5.255,0.063
5.260,0.044
5.265,0.088
5.270,0.104
5.275,0.076
5.280,0.103
5.285,0.137
5.290,0.110
5.295,0.107
5.300,0.147
5.305,0.132
5.310,0.103
5.315,0.131
5.320,0.131
5.325,0.089
5.330,0.103
5.335,0.117
5.340,0.063
5.345,0.038
5.350,0.053
5.355,0.006
5.360,-0.049
5.365,-0.035
5.370,-0.051
5.375,-0.110
5.380,-0.110
5.385,-0.099
5.390,-0.148
5.395,-0.161
5.400,-0.129
5.405,-0.156
5.410,-0.190
5.415,-0.159
5.420,-0.154
5.425,-0.187
5.430,-0.162
5.435,-0.131
5.440,-0.159
5.445,-0.159
5.450,-0.118
5.455,-0.128
5.460,-0.144
5.465,-0.100
5.470,-0.082
5.475,-0.108
5.480,-0.084
5.485,-0.052
5.490,-0.080
5.495,-0.079
5.500,-0.034
5.505,-0.041
5.510,-0.057
5.515,-0.014
5.520,-0.001
5.525,-0.033
5.530,-0.010
5.535,0.020
5.540,-0.013
5.545,-0.016
5.550,0.028
5.555,0.018
5.560,-0.009
5.565,0.020
5.570,0.024
5.575,-0.014
5.580,0.003
5.585,0.033
5.590,0.001
5.595,-0.003
5.600,0.040
5.605,0.028
5.610,-0.003
5.615,0.020
5.620,0.023
5.625,-0.010
5.630,0.010
5.635,0.033
5.640,-0.006
5.645,-0.008
5.650,0.034
5.655,0.016
5.660,-0.009
5.665,0.028
5.670,0.034
5.675,-0.001
5.680,0.023
5.685,0.050
5.690,0.008
5.695,-0.007
5.700,0.026
5.705,0.012
5.710,-0.010
5.715,0.031
5.720,0.045
5.725,0.011
5.730,0.027
5.735,0.045
5.740,0.000
5.745,-0.007
5.750,0.034
5.755,0.024
5.760,0.008
5.765,0.051
5.770,0.069
5.775,0.057
5.780,0.099
5.785,0.125
5.790,0.074
5.795,0.060
5.800,0.111
5.805,0.105
5.810,0.064
5.815,0.088
5.820,0.113
5.825,0.093
5.830,0.104
5.835,0.119
5.840,0.067
5.845,0.034
5.850,0.050
5.855,0.022
5.860,-0.003
5.865,0.026
5.870,0.010
5.875,-0.052
5.880,-0.051
5.885,-0.032
5.890,-0.070
5.895,-0.088
5.900,-0.062
5.905,-0.081
5.910,-0.100
5.915,-0.053
5.920,-0.035
5.925,-0.064
5.930,-0.028
5.935,0.050
5.940,0.113
5.945,0.260
5.950,0.586
5.955,1.033
5.960,1.436
5.965,1.430
5.970,0.732
5.975,-0.188
5.980,-0.639
5.985,-0.654
5.990,-0.569
5.995,-0.429
6.000,-0.255
6.005,-0.199
6.010,-0.219
6.015,-0.193
6.020,-0.179
6.025,-0.202
6.030,-0.179
6.035,-0.148
6.040,-0.174
6.045,-0.176
6.050,-0.135
6.055,-0.138
6.060,-0.150
6.065,-0.113
6.070,-0.100
6.075,-0.117
6.080,-0.085
6.085,-0.055
6.090,-0.082
6.095,-0.083
6.100,-0.056
6.105,-0.078
6.110,-0.085
6.115,-0.032
6.120,-0.016
6.125,-0.045
6.130,-0.022
6.135,0.016
6.140,-0.005
6.145,-0.006
6.150,0.036
6.155,0.029
6.160,0.009
6.165,0.051
6.170,0.072
6.175,0.054
6.180,0.089
6.185,0.112
6.190,0.071
6.195,0.082
6.200,0.139
6.205,0.133
6.210,0.114
6.215,0.152
6.220,0.159
6.225,0.121
6.230,0.137
6.235,0.161
6.240,0.116
6.245,0.092
6.250,0.115
6.255,0.086
6.260,0.044
6.265,0.061
6.270,0.054
6.275,0.005
6.280,-0.011
6.285,-0.032
6.290,-0.096
6.295,-0.111
6.300,-0.089
6.305,-0.125
6.310,-0.162
6.315,-0.138
6.320,-0.145
6.325,-0.196
6.330,-0.183
6.335,-0.153
6.340,-0.182
6.345,-0.180
6.350,-0.141
6.355,-0.165
6.360,-0.189
6.365,-0.135
6.370,-0.116
6.375,-0.151
6.380,-0.128
6.385,-0.089
6.390,-0.115
6.395,-0.119
6.400,-0.069
6.405,-0.063
6.410,-0.081
6.415,-0.055
6.420,-0.046
6.425,-0.063
6.430,-0.031
6.435,-0.005
6.440,-0.037
6.445,-0.028
6.450,0.016
6.455,-0.005
6.460,-0.028
6.465,0.008
6.470,0.008
6.475,-0.025
6.480,0.009
6.485,0.041
6.490,0.001
6.495,-0.002
6.500,0.043
6.505,0.021
6.510,-0.016
6.515,0.016
6.520,0.028
6.525,-0.006
6.530,0.010
6.535,0.031
6.540,-0.006
6.545,-0.012
6.550,0.020
6.555,-0.001
6.560,-0.024
6.565,0.018
6.570,0.034
6.575,0.004
6.580,0.029
6.585,0.053
6.590,0.004
6.595,-0.010
6.600,0.032
6.605,0.013
6.610,-0.020
6.615,0.014
6.620,0.031
6.625,0.013
6.630,0.043
6.635,0.062
6.640,0.014
6.645,0.005
6.650,0.038
6.655,0.015
6.660,-0.005
6.665,0.051
6.670,0.085
6.675,0.069
6.680,0.098
6.685,0.117
6.690,0.070
6.695,0.078
6.700,0.133
6.705,0.096
6.710,0.044
6.715,0.096
6.720,0.131
6.725,0.094
6.730,0.109
6.735,0.121
6.740,0.053
6.745,0.015
6.750,0.032
6.755,0.013
6.760,-0.011
6.765,0.007
6.770,-0.014
6.775,-0.070
6.780,-0.056
6.785,-0.033
6.790,-0.075
6.795,-0.084
6.800,-0.049
6.805,-0.067
6.810,-0.081
6.815,-0.039
6.820,-0.037
6.825,-0.055
6.830,0.033
6.835,0.171
6.840,0.297
6.845,0.602
6.850,1.144
6.855,1.566
6.860,1.454
6.865,0.733
6.870,-0.147
6.875,-0.628
6.880,-0.643
6.885,-0.523
6.890,-0.435
6.895,-0.310
6.900,-0.200
6.905,-0.198
6.910,-0.219
6.915,-0.191
6.920,-0.191
6.925,-0.222
6.930,-0.193
6.935,-0.156
6.940,-0.180
6.945,-0.172
6.950,-0.118
6.955,-0.122
6.960,-0.141
6.965,-0.101
6.970,-0.092
6.975,-0.130
6.980,-0.103
6.985,-0.066
6.990,-0.096
6.995,-0.087
7.000,-0.035
7.005,-0.051
7.010,-0.069
7.015,-0.026
7.020,-0.015
7.025,-0.040
7.030,-0.010
7.035,0.024
7.040,-0.008
7.045,-0.004
7.050,0.049
7.055,0.038
7.060,0.017
7.065,0.069
7.070,0.096
7.075,0.065
7.080,0.086
7.085,0.123
7.090,0.098
7.095,0.102
7.100,0.157
7.105,0.149
7.110,0.116
7.115,0.143
7.120,0.148
7.125,0.111
7.130,0.122
7.135,0.135
7.140,0.098
7.145,0.094
7.150,0.116
7.155,0.070
7.160,0.020
7.165,0.021
7.170,-0.009
7.175,-0.054
7.180,-0.044
7.185,-0.055
7.190,-0.132
7.195,-0.146
7.200,-0.105
7.205,-0.154
7.210,-0.214
7.215,-0.189
7.220,-0.181
7.225,-0.197
7.230,-0.170
7.235,-0.169
7.240,-0.210
7.245,-0.189
7.250,-0.146
7.255,-0.176
7.260,-0.189
7.265,-0.131
7.270,-0.116
7.275,-0.152
7.280,-0.139
7.285,-0.112
7.290,-0.132
7.295,-0.118
7.300,-0.073
7.305,-0.090
7.310,-0.108
7.315,-0.052
7.320,-0.022
7.325,-0.052
7.330,-0.036
7.335,-0.016
7.340,-0.043
7.345,-0.028
7.350,0.016
7.355,0.006
7.360,-0.020
7.365,0.001
7.370,0.016
7.375,0.005
7.380,0.023
7.385,0.024
7.390,-0.005
7.395,0.012
7.400,0.037
7.405,0.008
7.410,-0.014
7.415,-0.002
7.420,-0.005
7.425,-0.006
7.430,0.024
7.435,0.020
7.440,-0.021
7.445,-0.017
7.450,0.018
7.455,0.008
7.460,-0.002
7.465,0.032
7.470,0.024
7.475,0.006
7.480,0.037
7.485,0.039
7.490,-0.004
7.495,-0.001
7.500,0.040
7.505,0.037
7.510,0.010
7.515,0.026
7.520,0.035
7.525,0.005
7.530,0.033
7.535,0.078
7.540,0.046
7.545,0.046
7.550,0.081
7.555,0.050
7.560,0.024
7.565,0.064
7.570,0.104
7.575,0.109
7.580,0.142
7.585,0.163
7.590,0.110
7.595,0.094
7.600,0.138
7.605,0.114
7.610,0.080
7.615,0.126
7.620,0.144
7.625,0.115
7.630,0.132
7.635,0.144
7.640,0.093
7.645,0.065
7.650,0.060
7.655,0.004
7.660,-0.015
7.665,0.034
7.670,0.030
7.675,-0.036
7.680,-0.038
7.685,-0.003
7.690,-0.038
7.695,-0.069
7.700,-0.034
7.705,-0.032
7.710,-0.042
7.715,-0.010
7.720,-0.011
7.725,-0.040
7.730,0.003
7.735,0.111
7.740,0.230
7.745,0.463
7.750,0.891
7.755,1.357
7.760,1.579
7.765,1.229
7.770,0.323
7.775,-0.477
7.780,-0.683
7.785,-0.563
7.790,-0.465
7.795,-0.350
7.800,-0.217
7.805,-0.213
7.810,-0.243
7.815,-0.185
7.820,-0.167
7.825,-0.222
7.830,-0.213
7.835,-0.171
7.840,-0.191
7.845,-0.195
7.850,-0.157
7.855,-0.167
7.860,-0.167
7.865,-0.112
7.870,-0.118
7.875,-0.156
7.880,-0.134
7.885,-0.103
7.890,-0.111
7.895,-0.090
7.900,-0.056
7.905,-0.082
7.910,-0.096
7.915,-0.064
7.920,-0.053
7.925,-0.076
7.930,-0.056
7.935,-0.006
7.940,-0.012
7.945,-0.020
7.950,0.009
7.955,0.001
7.960,-0.008
7.965,0.044
7.970,0.054
7.975,0.024
7.980,0.069
7.985,0.109
7.990,0.066
7.995,0.068
8.000,0.109
8.005,0.089
8.010,0.076
8.015,0.130
8.020,0.149
8.025,0.095
8.030,0.088
8.035,0.115
8.040,0.082
8.045,0.063
8.050,0.089
8.055,0.075
8.060,0.037
8.065,0.031
8.070,0.003
8.075,-0.062
8.080,-0.070
8.085,-0.058
8.090,-0.102
8.095,-0.121
8.100,-0.107
8.105,-0.159
8.110,-0.202
8.115,-0.166
8.120,-0.169
8.125,-0.218
8.130,-0.187
8.135,-0.135
8.140,-0.172
8.145,-0.193
8.150,-0.155
8.155,-0.161
8.160,-0.176
8.165,-0.142
8.170,-0.134
8.175,-0.160
8.180,-0.114
8.185,-0.057
8.190,-0.089
8.195,-0.110
8.200,-0.067
8.205,-0.059
8.210,-0.074
8.215,-0.047
8.220,-0.042
8.225,-0.058
8.230,-0.024
8.235,0.007
8.240,-0.017
8.245,-0.012
8.250,0.021
8.255,0.001
8.260,-0.011
8.265,0.034
8.270,0.030
8.275,-0.026
8.280,-0.003
8.285,0.051
8.290,0.024
8.295,0.006
8.300,0.047
8.305,0.038
8.310,-0.006
8.315,0.014
8.320,0.030
8.325,-0.003
8.330,0.016
8.335,0.042
8.340,0.005
8.345,0.007
8.350,0.048
8.355,0.025
8.360,-0.008
8.365,0.018
8.370,0.036
8.375,0.014
8.380,0.026
8.385,0.047
8.390,0.011
8.395,0.006
8.400,0.048
8.405,0.035
8.410,0.007
8.415,0.033
8.420,0.034
8.425,-0.003
8.430,0.022
8.435,0.051
8.440,0.007
8.445,0.002
8.450,0.055
8.455,0.043
8.460,0.006
8.465,0.043
8.470,0.058
8.475,0.034
8.480,0.079
8.485,0.124
8.490,0.091
8.495,0.081
8.500,0.124
8.505,0.108
8.510,0.062
8.515,0.084
8.520,0.093
8.525,0.063
8.530,0.089
8.535,0.121
8.540,0.088
8.545,0.064
8.550,0.060
8.555,0.009
8.560,-0.021
8.565,0.020
8.570,0.018
8.575,-0.044
8.580,-0.054
8.585,-0.040
8.590,-0.069
8.595,-0.067
8.600,-0.030
8.605,-0.056
8.610,-0.083
8.615,-0.038
8.620,-0.024
8.625,-0.052
8.630,-0.016
8.635,0.056
8.640,0.136
8.645,0.330
8.650,0.711
8.655,1.173
8.660,1.522
8.665,1.419
8.670,0.642
8.675,-0.276
8.680,-0.654
8.685,-0.589
8.690,-0.483
8.695,-0.374
8.700,-0.245
8.705,-0.224
8.710,-0.237
8.715,-0.191
8.720,-0.192
8.725,-0.232
8.730,-0.207
8.735,-0.170
8.740,-0.195
8.745,-0.195
8.750,-0.132
8.755,-0.113
8.760,-0.134
8.765,-0.116
8.770,-0.102
8.775,-0.122
8.780,-0.103
8.785,-0.078
8.790,-0.115
8.795,-0.115
8.800,-0.051
8.805,-0.047
8.810,-0.072
8.815,-0.024
8.820,-0.004
8.825,-0.048
8.830,-0.022
8.835,0.023
8.840,-0.007
8.845,-0.012
8.850,0.028
8.855,0.015
8.860,-0.009
8.865,0.041
8.870,0.075
8.875,0.054
8.880,0.091
8.885,0.135
8.890,0.100
8.895,0.095
8.900,0.138
8.905,0.118
8.910,0.088
8.915,0.129
8.920,0.146
8.925,0.127
8.930,0.147
8.935,0.153
8.940,0.110
8.945,0.104
8.950,0.133
8.955,0.091
8.960,0.037
8.965,0.054
8.970,0.041
8.975,-0.017
8.980,-0.020
8.985,-0.024
8.990,-0.078
8.995,-0.088
9.000,-0.072
9.005,-0.121
9.010,-0.172
9.015,-0.155
9.020,-0.151
9.025,-0.182
9.030,-0.158
9.035,-0.130
9.040,-0.172
9.045,-0.184
9.050,-0.143
9.055,-0.148
9.060,-0.156
9.065,-0.109
9.070,-0.092
9.075,-0.125
9.080,-0.109
9.085,-0.080
9.090,-0.099
9.095,-0.079
9.100,-0.025
9.105,-0.056
9.110,-0.096
9.115,-0.051
9.120,-0.025
9.125,-0.046
9.130,-0.017
9.135,0.018
9.140,-0.008
9.145,-0.005
9.150,0.045
9.155,0.042
9.160,0.018
9.165,0.034
9.170,0.018
9.175,-0.018
9.180,0.016
9.185,0.051
9.190,0.019
9.195,0.008
9.200,0.037
9.205,0.013
9.210,-0.019
9.215,0.009
9.220,0.005
9.225,-0.047
9.230,-0.030
9.235,-0.007
9.240,-0.048
9.245,-0.050
9.250,-0.021
9.255,-0.053
9.260,-0.076
9.265,-0.037
9.270,-0.032
9.275,-0.075
9.280,-0.065
9.285,-0.031
9.290,-0.055
9.295,-0.056
9.300,-0.017
9.305,-0.039
9.310,-0.070
9.315,-0.041
9.320,-0.039
9.325,-0.075
9.330,-0.059
9.335,-0.035
9.340,-0.054
9.345,-0.040
9.350,-0.004
9.355,-0.021
9.360,-0.032
9.365,0.001
9.370,0.004
9.375,-0.004
9.380,0.051
9.385,0.083
9.390,0.043
9.395,0.053
9.400,0.109
9.405,0.100
9.410,0.080
9.415,0.103
9.420,0.102
9.425,0.083
9.430,0.120
9.435,0.146
9.440,0.116
9.445,0.112
9.450,0.121
9.455,0.054
9.460,-0.012
9.465,0.019
9.470,0.032
9.475,-0.006
9.480,0.006
9.485,0.003
9.490,-0.071
9.495,-0.096
9.500,-0.054
9.505,-0.053
9.510,-0.068
9.515,-0.030
9.520,-0.024
9.525,-0.062
9.530,-0.035
9.535,0.008
9.540,0.000
9.545,0.070
9.550,0.258
9.555,0.511
9.560,0.919
9.565,1.427
9.570,1.570
9.575,1.005
9.580,0.109
9.585,-0.481
9.590,-0.630
9.595,-0.541
9.600,-0.385
9.605,-0.280
9.610,-0.229
9.615,-0.177
9.620,-0.162
9.625,-0.193
9.630,-0.189
9.635,-0.172
9.640,-0.202
9.645,-0.186
9.650,-0.119
9.655,-0.133
9.660,-0.168
9.665,-0.128
9.670,-0.105
9.675,-0.125
9.680,-0.097
9.685,-0.068
9.690,-0.101
9.695,-0.100
9.700,-0.053
9.705,-0.051
9.710,-0.067
9.715,-0.045
9.720,-0.042
9.725,-0.069
9.730,-0.043
9.735,-0.008
9.740,-0.026
9.745,-0.006
9.750,0.038
9.755,0.016
9.760,0.015
9.765,0.079
9.770,0.076
9.775,0.021
9.780,0.053
9.785,0.107
9.790,0.088
9.795,0.091
9.800,0.133
9.805,0.121
9.810,0.106
9.815,0.144
9.820,0.147
9.825,0.119
9.830,0.145
9.835,0.163
9.840,0.119
9.845,0.115
9.850,0.147
9.855,0.115
9.860,0.087
9.865,0.121
9.870,0.103
9.875,0.019
9.880,-0.004
9.885,0.005
9.890,-0.044
9.895,-0.081
9.900,-0.071
9.905,-0.099
9.910,-0.140
9.915,-0.133
9.920,-0.149
9.925,-0.195
9.930,-0.178
9.935,-0.152
9.940,-0.193
9.945,-0.206
9.950,-0.162
9.955,-0.165
9.960,-0.180
9.965,-0.138
9.970,-0.131
9.975,-0.163
9.980,-0.136
9.985,-0.109
9.990,-0.143
9.995,-0.136
10.000,-0.069
10.005,-0.063
10.010,-0.096
10.015,-0.072
10.020,-0.055
10.025,-0.070
10.030,-0.043
10.035,-0.018
10.040,-0.049
10.045,-0.041
10.050,0.009
10.055,-0.009
10.060,-0.034
10.065,0.018
10.070,0.037
10.075,-0.002
10.080,0.005
10.085,0.031
10.090,0.007
10.095,0.008
10.100,0.039
10.105,0.016
10.110,-0.011
10.115,0.019
10.120,0.022
10.125,-0.014
10.130,0.007
10.135,0.036
10.140,0.001
10.145,-0.005
10.150,0.035
10.155,0.014
10.160,-0.018
10.165,0.015
10.170,0.027
10.175,-0.005
10.180,0.013
10.185,0.032
10.190,-0.011
10.195,-0.015
10.200,0.032
10.205,0.022
10.210,-0.003
10.215,0.029
10.220,0.037
10.225,0.007
10.230,0.028
10.235,0.056
10.240,0.021
10.245,0.009
10.250,0.043
10.255,0.029
10.260,0.007
10.265,0.043
10.270,0.059
10.275,0.042
10.280,0.079
10.285,0.118
10.290,0.085
10.295,0.078
10.300,0.123
10.305,0.111
10.310,0.070
10.315,0.078
10.320,0.082
10.325,0.076
10.330,0.118
10.335,0.139
10.340,0.084
10.345,0.052
10.350,0.062
10.355,0.028
10.360,-0.007
10.365,0.019
10.370,0.028
10.375,-0.025
10.380,-0.039
10.385,-0.033
10.390,-0.082
10.395,-0.090
10.400,-0.046
10.405,-0.068
10.410,-0.091
10.415,-0.037
10.420,-0.022
10.425,-0.065
10.430,-0.039
10.435,0.018
10.440,0.065
10.445,0.234
10.450,0.554
10.455,0.979
10.460,1.457
10.465,1.644
10.470,1.108
10.475,0.129
10.480,-0.513
10.485,-0.650
10.490,-0.599
10.495,-0.475
10.500,-0.324
10.505,-0.242
10.510,-0.241
10.515,-0.238
10.520,-0.219
10.525,-0.241
10.530,-0.229
10.535,-0.193
10.540,-0.233
10.545,-0.226
10.550,-0.162
10.555,-0.178
10.560,-0.191
10.565,-0.138
10.570,-0.134
10.575,-0.165
10.580,-0.129
10.585,-0.100
10.590,-0.144
10.595,-0.132
10.600,-0.061
10.605,-0.070
10.610,-0.106
10.615,-0.074
10.620,-0.046
10.625,-0.057
10.630,-0.036
10.635,-0.027
10.640,-0.058
10.645,-0.022
10.650,0.040
10.655,0.011
10.660,-0.001
10.665,0.060
10.670,0.060
10.675,0.025
10.680,0.077
10.685,0.119
10.690,0.071
10.695,0.076
10.700,0.135
10.705,0.129
10.710,0.121
10.715,0.145
10.720,0.126
10.725,0.103
10.730,0.142
10.735,0.170
10.740,0.128
10.745,0.089
10.750,0.115
10.755,0.114
10.760,0.065
10.765,0.075
10.770,0.058
10.775,-0.009
10.780,-0.005
10.785,0.000
10.790,-0.068
10.795,-0.103
10.800,-0.085
10.805,-0.105
10.810,-0.148
10.815,-0.158
10.820,-0.169
10.825,-0.180
10.830,-0.134
10.835,-0.124
10.840,-0.197
10.845,-0.216
10.850,-0.170
10.855,-0.141
10.860,-0.156
10.865,-0.163
10.870,-0.113
10.875,-0.101
10.880,-0.130
10.885,-0.125
10.890,-0.116
10.895,-0.090
10.900,-0.052
10.905,-0.078
10.910,-0.099
10.915,-0.051
10.920,-0.032
10.925,-0.052
10.930,-0.009
10.935,0.015
10.940,-0.064
10.945,-0.060
10.950,0.025
10.955,0.007
10.960,-0.031
10.965,-0.010
10.970,-0.005
10.975,-0.007
10.980,0.012
10.985,0.030
10.990,-0.001
10.995,-0.041
11.000,0.032
11.005,0.079
11.010,0.026
11.015,0.033
11.020,0.024
11.025,-0.037
11.030,0.014
11.035,0.077
11.040,0.031
11.045,0.005
11.050,0.030
11.055,0.003
11.060,-0.026
11.065,0.033
11.070,0.045
11.075,-0.008
11.080,0.019
11.085,0.026
11.090,-0.029
11.095,0.005
11.100,0.072
11.105,0.038
11.110,-0.014
11.115,0.020
11.120,0.053
11.125,0.024
11.130,0.027
11.135,0.049
11.140,0.022
11.145,0.019
11.150,0.042
11.155,0.016
11.160,0.007
11.165,0.052
11.170,0.047
11.175,0.011
11.180,0.044
11.185,0.086
11.190,0.049
11.195,0.064
11.200,0.147
11.205,0.109
11.210,0.059
11.215,0.119
11.220,0.117
11.225,0.044
11.230,0.063
11.235,0.111
11.240,0.082
11.245,0.085
11.250,0.120
11.255,0.074
11.260,0.020
11.265,0.038
11.270,0.036
11.275,-0.003
11.280,0.003
11.285,-0.006
11.290,-0.058
11.295,-0.041
11.300,-0.011
11.305,-0.069
11.310,-0.114
11.315,-0.079
11.320,-0.054
11.325,-0.071
11.330,-0.059
11.335,-0.038
11.340,-0.060
11.345,-0.023
11.350,0.102
11.355,0.222
11.360,0.469
11.365,0.967
11.370,1.490
11.375,1.650
11.380,1.143
11.385,0.171
11.390,-0.567
11.395,-0.708
11.400,-0.521
11.405,-0.386
11.410,-0.324
11.415,-0.233
11.420,-0.204
11.425,-0.240
11.430,-0.227
11.435,-0.203
11.440,-0.229
11.445,-0.221
11.450,-0.176
11.455,-0.188
11.460,-0.198
11.465,-0.140
11.470,-0.111
11.475,-0.141
11.480,-0.135
11.485,-0.113
11.490,-0.142
11.495,-0.137
11.500,-0.098
11.505,-0.110
11.510,-0.116
11.515,-0.072
11.520,-0.066
11.525,-0.085
11.530,-0.051
11.535,-0.033
11.540,-0.057
11.545,-0.038
11.550,0.008
11.555,-0.003
11.560,-0.028
11.565,-0.002
11.570,0.019
11.575,0.017
11.580,0.044
11.585,0.059
11.590,0.028
11.595,0.061
11.600,0.140
11.605,0.137
11.610,0.112
11.615,0.124
11.620,0.107
11.625,0.080
11.630,0.133
11.635,0.177
11.640,0.122
11.645,0.100
11.650,0.134
11.655,0.092
11.660,0.052
11.665,0.102
11.670,0.101
11.675,0.024
11.680,0.023
11.685,0.044
11.690,-0.027
11.695,-0.066
11.700,-0.052
11.705,-0.091
11.710,-0.134
11.715,-0.121
11.720,-0.128
11.725,-0.179
11.730,-0.175
11.735,-0.143
11.740,-0.174
11.745,-0.189
11.750,-0.157
11.755,-0.174
11.760,-0.207
11.765,-0.156
11.770,-0.121
11.775,-0.174
11.780,-0.151
11.785,-0.099
11.790,-0.122
11.795,-0.108
11.800,-0.064
11.805,-0.084
11.810,-0.120
11.815,-0.088
11.820,-0.047
11.825,-0.071
11.830,-0.073
11.835,-0.013
11.840,-0.016
11.845,-0.043
11.850,-0.006
11.855,-0.019
11.860,-0.048
11.865,-0.015
11.870,-0.022
11.875,-0.025
11.880,0.060
11.885,0.067
11.890,-0.033
11.895,-0.026
11.900,0.072
11.905,0.069
11.910,0.012
11.915,0.016
11.920,0.004
11.925,-0.025
11.930,0.015
11.935,0.046
11.940,-0.006
11.945,-0.022
11.950,0.025
11.955,0.029
11.960,0.014
11.965,0.022
11.970,0.004
11.975,-0.009
11.980,0.045
11.985,0.062
11.990,0.020
11.995,0.020
12.000,0.042
12.005,0.008
12.010,-0.021
12.015,0.034
12.020,0.062
12.025,0.016
12.030,0.017
12.035,0.053
12.040,0.038
12.045,0.031
12.050,0.042
12.055,0.017
12.060,0.014
12.065,0.061
12.070,0.061
12.075,0.015
12.080,0.035
12.085,0.065
12.090,0.036
12.095,0.037
12.100,0.080
12.105,0.097
12.110,0.105
12.115,0.125
12.120,0.107
12.125,0.075
12.130,0.098
12.135,0.132
12.140,0.096
12.145,0.057
12.150,0.086
12.155,0.089
12.160,0.086
12.165,0.123
12.170,0.085
12.175,0.019
12.180,0.032
12.185,0.036
12.190,-0.002
12.195,-0.014
12.200,0.016
12.205,-0.002
12.210,-0.056
12.215,-0.042
12.220,-0.048
12.225,-0.094
12.230,-0.069
12.235,-0.039
12.240,-0.071
12.245,-0.068
12.250,-0.031
12.255,-0.048
12.260,-0.041
12.265,0.050
12.270,0.150
12.275,0.299
12.280,0.651
12.285,1.162
12.290,1.522
12.295,1.381
12.300,0.631
12.305,-0.266
12.310,-0.698
12.315,-0.662
12.320,-0.532
12.325,-0.418
12.330,-0.272
12.335,-0.189
12.340,-0.210
12.345,-0.225
12.350,-0.193
12.355,-0.186
12.360,-0.201
12.365,-0.182
12.370,-0.171
12.375,-0.185
12.380,-0.160
12.385,-0.128
12.390,-0.146
12.395,-0.136
12.400,-0.088
12.405,-0.106
12.410,-0.153
12.415,-0.123
12.420,-0.094
12.425,-0.107
12.430,-0.074
12.435,-0.039
12.440,-0.065
12.445,-0.077
12.450,-0.037
12.455,-0.031
12.460,-0.048
12.465,-0.012
12.470,-0.001
12.475,-0.034
12.480,-0.001
12.485,0.048
12.490,0.023
12.495,0.023
12.500,0.075
12.505,0.064
12.510,0.040
12.515,0.091
12.520,0.114
12.525,0.079
12.530,0.104
12.535,0.131
12.540,0.108
12.545,0.142
12.550,0.176
12.555,0.120
12.560,0.092
12.565,0.141
12.570,0.131
12.575,0.069
12.580,0.087
12.585,0.108
12.590,0.047
12.595,0.016
12.600,0.031
12.605,-0.020
12.610,-0.066
12.615,-0.039
12.620,-0.059
12.625,-0.118
12.630,-0.122
12.635,-0.108
12.640,-0.135
12.645,-0.169
12.650,-0.162
12.655,-0.167
12.660,-0.177
12.665,-0.149
12.670,-0.165
12.675,-0.199
12.680,-0.159
12.685,-0.129
12.690,-0.156
12.695,-0.155
12.700,-0.124
12.705,-0.125
12.710,-0.126
12.715,-0.088
12.720,-0.087
12.725,-0.125
12.730,-0.090
12.735,-0.043
12.740,-0.082
12.745,-0.075
12.750,-0.015
12.755,-0.035
12.760,-0.047
12.765,0.005
12.770,0.001
12.775,-0.049
12.780,-0.024
12.785,0.020
12.790,-0.006
12.795,-0.006
12.800,0.034
12.805,0.013
12.810,-0.016
12.815,0.015
12.820,0.024
12.825,0.000
12.830,0.020
12.835,0.039
12.840,-0.007
12.845,-0.015
12.850,0.031
12.855,0.014
12.860,0.007
12.865,0.054
12.870,0.035
12.875,-0.016
12.880,0.001
12.885,0.027
12.890,0.000
12.895,0.005
12.900,0.038
12.905,0.009
12.910,-0.011
12.915,0.030
12.920,0.033
12.925,-0.004
12.930,0.018
12.935,0.048
12.940,0.016
12.945,0.009
12.950,0.043
12.955,0.027
12.960,0.009
12.965,0.044
12.970,0.041
12.975,-0.007
12.980,0.031
12.985,0.075
12.990,0.010
12.995,-0.008
13.000,0.044
13.005,0.026
13.010,-0.008
13.015,0.038
13.020,0.079
13.025,0.074
13.030,0.105
13.035,0.134
13.040,0.082
13.045,0.064
13.050,0.128
13.055,0.122
13.060,0.056
13.065,0.075
13.070,0.120
13.075,0.109
13.080,0.107
13.085,0.109
13.090,0.063
13.095,0.036
13.100,0.044
13.105,0.013
13.110,-0.015
13.115,0.010
13.120,0.002
13.125,-0.058
13.130,-0.057
13.135,-0.031
13.140,-0.073
13.145,-0.086
13.150,-0.044
13.155,-0.055
13.160,-0.075
13.165,-0.033
13.170,-0.025
13.175,-0.057
13.180,-0.017
13.185,0.066
13.190,0.151
13.195,0.343
13.200,0.724
13.205,1.201
13.210,1.552
13.215,1.391
13.220,0.551
13.225,-0.349
13.230,-0.686
13.235,-0.615
13.240,-0.501
13.245,-0.384
13.250,-0.235
13.255,-0.205
13.260,-0.237
13.265,-0.190
13.270,-0.176
13.275,-0.210
13.280,-0.184
13.285,-0.161
13.290,-0.190
13.295,-0.179
13.300,-0.119
13.305,-0.121
13.310,-0.149
13.315,-0.118
13.320,-0.109
13.325,-0.128
13.330,-0.091
13.335,-0.071
13.340,-0.108
13.345,-0.090
13.350,-0.034
13.355,-0.056
13.360,-0.078
13.365,-0.033
13.370,-0.025
13.375,-0.060
13.380,-0.033
13.385,0.008
13.390,-0.021
13.395,-0.027
13.400,0.031
13.405,0.026
13.410,-0.016
13.415,0.023
13.420,0.057
13.425,0.037
13.430,0.065
13.435,0.101
13.440,0.072
13.445,0.067
13.450,0.111
13.455,0.115
13.460,0.106
13.465,0.132
13.470,0.132
13.475,0.100
13.480,0.114
13.485,0.129
13.490,0.085
13.495,0.074
13.500,0.122
13.505,0.096
13.510,0.028
13.515,0.030
13.520,0.023
13.525,-0.037
13.530,-0.054
13.535,-0.049
13.540,-0.099
13.545,-0.127
13.550,-0.109
13.555,-0.135
13.560,-0.158
13.565,-0.137
13.570,-0.162
13.575,-0.208
13.580,-0.180
13.585,-0.157
13.590,-0.197
13.595,-0.191
13.600,-0.138
13.605,-0.146
13.610,-0.168
13.615,-0.121
13.620,-0.104
13.625,-0.154
13.630,-0.134
13.635,-0.085
13.640,-0.112
13.645,-0.102
13.650,-0.043
13.655,-0.062
13.660,-0.095
13.665,-0.054
13.670,-0.052
13.675,-0.086
13.680,-0.033
13.685,0.023
13.690,-0.022
13.695,-0.049
13.700,0.001
13.705,0.014
13.710,-0.002
13.715,0.014
13.720,0.007
13.725,-0.012
13.730,0.012
13.735,0.032
13.740,0.006
13.745,0.016
13.750,0.056
13.755,0.019
13.760,-0.018
13.765,0.020
13.770,0.022
13.775,-0.011
13.780,0.023
13.785,0.049
13.790,0.005
13.795,-0.007
13.800,0.035
13.805,0.025
13.810,-0.001
13.815,0.035
13.820,0.045
13.825,0.003
13.830,-0.001
13.835,0.009
13.840,-0.010
13.845,0.012
13.850,0.055
13.855,0.030
13.860,0.009
13.865,0.051
13.870,0.030
13.875,-0.043
13.880,-0.015
13.885,0.053
13.890,0.037
13.895,0.021
13.900,0.041
13.905,0.015
13.910,0.001
13.915,0.047
13.920,0.042
13.925,0.004
13.930,0.056
13.935,0.114
13.940,0.093
13.945,0.086
13.950,0.103
13.955,0.079
13.960,0.071
13.965,0.117
13.970,0.111
13.975,0.060
13.980,0.093
13.985,0.139
13.990,0.100
13.995,0.082
14.000,0.111
14.005,0.074
14.010,0.019
14.015,0.030
14.020,0.025
14.025,-0.020
14.030,-0.013
14.035,-0.008
14.040,-0.068
14.045,-0.078
14.050,-0.045
14.055,-0.073
14.060,-0.098
14.065,-0.061
14.070,-0.045
14.075,-0.062
14.080,-0.047
14.085,-0.036
14.090,-0.059
14.095,0.001
14.100,0.156
14.105,0.294
14.110,0.555
14.115,1.083
14.120,1.540
14.125,1.432
14.130,0.704
14.135,-0.151
14.140,-0.609
14.145,-0.630
14.150,-0.510
14.155,-0.417
14.160,-0.307
14.165,-0.202
14.170,-0.193
14.175,-0.232
14.180,-0.206
14.185,-0.167
14.190,-0.199
14.195,-0.202
14.200,-0.156
14.205,-0.163
14.210,-0.174
14.215,-0.130
14.220,-0.122
14.225,-0.152
14.230,-0.114
14.235,-0.074
14.240,-0.106
14.245,-0.105
14.250,-0.067
14.255,-0.090
14.260,-0.104
14.265,-0.052
14.270,-0.042
14.275,-0.071
14.280,-0.045
14.285,-0.009
14.290,-0.023
14.295,-0.017
14.300,0.012
14.305,-0.004
14.310,-0.009
14.315,0.034
14.320,0.043
14.325,0.014
14.330,0.036
14.335,0.079
14.340,0.073
14.345,0.078
14.350,0.116
14.355,0.112
14.360,0.116
14.365,0.172
14.370,0.166
14.375,0.103
14.380,0.119
14.385,0.155
14.390,0.117
14.395,0.106
14.400,0.151
14.405,0.132
14.410,0.088
14.415,0.103
14.420,0.084
14.425,0.023
14.430,0.020
14.435,0.012
14.440,-0.042
14.445,-0.052
14.450,-0.050
14.455,-0.102
14.460,-0.123
14.465,-0.086
14.470,-0.119
14.475,-0.204
14.480,-0.209
14.485,-0.186
14.490,-0.201
14.495,-0.186
14.500,-0.162
14.505,-0.177
14.510,-0.156
14.515,-0.096
14.520,-0.128
14.525,-0.208
14.530,-0.161
14.535,-0.092
14.540,-0.139
14.545,-0.144
14.550,-0.090
14.555,-0.098
14.560,-0.083
14.565,-0.022
14.570,-0.039
14.575,-0.076
14.580,-0.025
14.585,0.010
14.590,-0.027
14.595,-0.022
14.600,0.015
14.605,-0.011
14.610,-0.028
14.615,0.026
14.620,0.037
14.625,-0.015
14.630,-0.002
14.635,0.040
14.640,0.006
14.645,-0.016
14.650,0.018
14.655,0.015
14.660,-0.005
14.665,0.026
14.670,0.033
14.675,-0.015
14.680,-0.011
14.685,0.021
14.690,-0.002
14.695,-0.003
14.700,0.032
14.705,0.009
14.710,-0.020
14.715,0.011
14.720,0.014
14.725,-0.014
14.730,0.014
14.735,0.069
14.740,0.064
14.745,0.009
14.750,-0.025
14.755,-0.010
14.760,0.045
14.765,0.059
14.770,-0.036
14.775,-0.072
14.780,0.019
14.785,0.055
14.790,0.050
14.795,0.041
14.800,0.041
14.805,0.032
14.810,-0.004
14.815,0.042
14.820,0.037
14.825,-0.043
14.830,0.015
14.835,0.113
14.840,0.095
14.845,0.107
14.850,0.162
14.855,0.094
14.860,0.043
14.865,0.126
14.870,0.143
14.875,0.050
14.880,0.090
14.885,0.173
14.890,0.058
14.895,0.029
14.900,0.164
14.905,0.111
14.910,-0.006
14.915,0.017
14.920,0.006
14.925,-0.045
14.930,0.008
14.935,0.062
14.940,-0.050
14.945,-0.111
14.950,0.044
14.955,0.035
14.960,-0.084
14.965,-0.066
14.970,-0.093
14.975,-0.076
14.980,0.000
14.985,-0.002
14.990,-0.041
14.995,-0.066
15.000,0.032
15.005,0.219
15.010,0.343
15.015,0.580
15.020,1.169
15.025,1.727
15.030,1.643
15.035,0.888
15.040,-0.050
15.045,-0.607
15.050,-0.652
15.055,-0.580
15.060,-0.448
15.065,-0.213
15.070,-0.188
15.075,-0.304
15.080,-0.227
15.085,-0.138
15.090,-0.235
15.095,-0.237
15.100,-0.161
15.105,-0.235
15.110,-0.237
15.115,-0.143
15.120,-0.175
15.125,-0.204
15.130,-0.160
15.135,-0.116
15.140,-0.189
15.145,-0.263
15.150,-0.107
15.155,-0.003
15.160,-0.092
15.165,-0.184
15.170,-0.164
15.175,-0.045
15.180,-0.010
15.185,-0.056
15.190,-0.082
15.195,-0.106
15.200,-0.070
15.205,0.013
15.210,0.008
15.215,-0.048
15.220,-0.044
15.225,-0.028
15.230,0.011
15.235,0.054
15.240,0.022
15.245,0.023
15.250,0.092
15.255,0.100
15.260,0.056
15.265,0.058
15.270,0.086
15.275,0.102
15.280,0.116
15.285,0.137
15.290,0.167
15.295,0.163
15.300,0.111
15.305,0.048
15.310,0.026
15.315,0.067
15.320,0.032
15.325,-0.056
15.330,0.041
15.335,0.070
15.340,-0.137
15.345,-0.165
15.350,-0.097
15.355,-0.196
15.360,-0.232
15.365,-0.147
15.370,-0.176
15.375,-0.323
15.380,-0.350
15.385,-0.266
15.390,-0.265
15.395,-0.282
15.400,-0.265
15.405,-0.329
15.410,-0.369
15.415,-0.272
15.420,-0.237
15.425,-0.291
15.430,-0.236
15.435,-0.181
15.440,-0.215
15.445,-0.235
15.450,-0.216
15.455,-0.161
15.460,-0.132
15.465,-0.132
15.470,-0.136
15.475,-0.191
15.480,-0.148
15.485,-0.024
15.490,-0.072
15.495,-0.114
15.500,-0.029
15.505,0.001
15.510,-0.065
15.515,-0.091
15.520,-0.071
15.525,-0.108
15.530,-0.091
15.535,-0.042
15.540,-0.049
15.545,-0.005
15.550,0.037
15.555,-0.030
15.560,-0.049
15.565,0.029
15.570,-0.011
15.575,-0.072
15.580,0.010
15.585,0.051
15.590,-0.006
15.595,-0.017
15.600,-0.006
15.605,-0.004
15.610,0.030
15.615,0.037
15.620,0.007
15.625,0.040
15.630,0.130
15.635,0.085
15.640,-0.046
15.645,-0.045
15.650,0.035
15.655,0.112
15.660,0.139
15.665,0.086
15.670,0.037
15.675,0.062
15.680,0.114
15.685,0.102
15.690,0.055
15.695,0.028
15.700,0.052
15.705,0.079
15.710,0.080
15.715,0.118
15.720,0.141
15.725,0.099
15.730,0.081
15.735,0.100
15.740,0.110
15.745,0.166
15.750,0.252
15.755,0.208
15.760,0.109
15.765,0.164
15.770,0.188
15.775,0.126
15.780,0.190
15.785,0.248
15.790,0.210
15.795,0.168
15.800,0.167
15.805,0.186
15.810,0.135
15.815,0.088
15.820,0.058
15.825,0.030
15.830,0.096
15.835,0.182
15.840,0.141
15.845,-0.004
15.850,-0.046
15.855,-0.021
15.860,-0.039
15.865,0.039
15.870,0.082
15.875,0.024
15.880,0.024
15.885,-0.012
15.890,-0.083
15.895,-0.046
15.900,0.056
15.905,0.128
15.910,0.254
15.915,0.567
15.920,1.059
15.925,1.579
15.930,1.744
15.935,1.208
15.940,0.257
15.945,-0.396
15.950,-0.554
15.955,-0.515
15.960,-0.373
15.965,-0.200
15.970,-0.205
15.975,-0.282
15.980,-0.224
15.985,-0.151
15.990,-0.167
15.995,-0.183
16.000,-0.151
16.005,-0.100
16.010,-0.104
16.015,-0.150
16.020,-0.182
16.025,-0.185
16.030,-0.120
16.035,-0.117
16.040,-0.163
16.045,-0.100
16.050,-0.044
16.055,-0.072
16.060,-0.127
16.065,-0.129
16.070,-0.110
16.075,-0.082
16.080,0.001
16.085,-0.001
16.090,-0.092
16.095,-0.069
16.100,0.007
16.105,-0.004
16.110,0.000
16.115,0.061
16.120,0.032
16.125,-0.040
16.130,0.010
16.135,0.088
16.140,0.129
16.145,0.158
16.150,0.157
16.155,0.080
16.160,0.013
16.165,0.096
16.170,0.151
16.175,0.123
16.180,0.129
16.185,0.146
16.190,0.146
16.195,0.166
16.200,0.200
16.205,0.150
16.210,0.136
16.215,0.186
16.220,0.156
16.225,0.075
16.230,0.006
16.235,-0.006
16.240,-0.017
16.245,-0.010
16.250,0.009
16.255,-0.089
16.260,-0.151
16.265,-0.102
16.270,-0.097
16.275,-0.136
16.280,-0.183
16.285,-0.213
16.290,-0.206
16.295,-0.168
16.300,-0.149
16.305,-0.189
16.310,-0.200
16.315,-0.172
16.320,-0.169
16.325,-0.202
16.330,-0.180
16.335,-0.136
16.340,-0.166
16.345,-0.128
16.350,0.023
16.355,-0.033
16.360,-0.227
16.365,-0.175
16.370,-0.086
16.375,-0.090
16.380,-0.053
16.385,-0.051
16.390,-0.093
16.395,-0.086
16.400,-0.032
16.405,-0.029
16.410,-0.032
16.415,0.008
16.420,0.012
16.425,-0.030
16.430,-0.023
16.435,0.026
16.440,0.024
16.445,0.025
16.450,0.035
16.455,-0.008
16.460,-0.015
16.465,0.054
16.470,0.067
16.475,-0.013
16.480,-0.016
16.485,0.035
16.490,0.025
16.495,0.043
16.500,0.053
16.505,-0.014
16.510,-0.026
16.515,0.028
16.520,0.023
16.525,-0.005
16.530,0.044
16.535,0.069
16.540,-0.017
16.545,-0.023
16.550,0.078
16.555,0.061
16.560,-0.030
16.565,0.012
16.570,0.081
16.575,0.015
16.580,-0.032
16.585,0.019
16.590,0.031
16.595,0.022
16.600,0.027
16.605,0.022
16.610,0.045
16.615,0.019
16.620,-0.038
16.625,-0.022
16.630,0.043
16.635,0.057
16.640,-0.012
16.645,-0.001
16.650,0.105
16.655,0.092
16.660,0.055
16.665,0.138
16.670,0.153
16.675,0.082
16.680,0.036
16.685,0.044
16.690,0.092
16.695,0.096
16.700,0.061
16.705,0.067
16.710,0.145
16.715,0.147
16.720,0.033
16.725,0.021
16.730,0.105
16.735,0.114
16.740,0.013
16.745,-0.049
16.750,-0.006
16.755,-0.006
16.760,-0.019
16.765,-0.003
16.770,-0.049
16.775,-0.114
16.780,-0.088
16.785,-0.032
16.790,-0.053
16.795,-0.024
16.800,0.037
16.805,-0.059
16.810,-0.139
16.815,-0.052
16.820,0.024
16.825,0.104
16.830,0.392
16.835,0.787
16.840,1.145
16.845,1.536
16.850,1.527
16.855,0.740
16.860,-0.185
16.865,-0.587
16.870,-0.551
16.875,-0.426
16.880,-0.308
16.885,-0.235
16.890,-0.279
16.895,-0.300
16.900,-0.214
16.905,-0.222
16.910,-0.275
16.915,-0.207
16.920,-0.219
16.925,-0.279
16.930,-0.215
16.935,-0.139
16.940,-0.118
16.945,-0.165
16.950,-0.207
16.955,-0.167
16.960,-0.126
16.965,-0.069
16.970,-0.065
16.975,-0.174
16.980,-0.133
16.985,-0.041
16.990,-0.129
16.995,-0.131
17.000,-0.027
17.005,-0.066
17.010,-0.103
17.015,-0.024
17.020,-0.033
17.025,-0.051
17.030,0.009
17.035,0.017
17.040,0.001
17.045,0.011
17.050,0.037
17.055,0.017
17.060,0.037
17.065,0.152
17.070,0.102
17.075,-0.009
17.080,0.096
17.085,0.144
17.090,0.033
17.095,0.055
17.100,0.170
17.105,0.172
17.110,0.113
17.115,0.111
17.120,0.109
17.125,0.090
17.130,0.126
17.135,0.133
17.140,0.070
17.145,0.038
17.150,0.021
17.155,-0.016
17.160,-0.034
17.165,-0.017
17.170,-0.043
17.175,-0.125
17.180,-0.136
17.185,-0.106
17.190,-0.140
17.195,-0.145
17.200,-0.127
17.205,-0.178
17.210,-0.201
17.215,-0.164
17.220,-0.153
17.225,-0.164
17.230,-0.104
17.235,-0.031
17.240,-0.112
17.245,-0.210
17.250,-0.190
17.255,-0.178
17.260,-0.157
17.265,-0.098
17.270,-0.098
17.275,-0.119
17.280,-0.079
17.285,-0.072
17.290,-0.127
17.295,-0.114
17.300,-0.056
17.305,-0.054
17.310,-0.056
17.315,-0.016
17.320,-0.004
17.325,-0.030
17.330,-0.008
17.335,0.022
17.340,0.001
17.345,0.025
17.350,0.055
17.355,-0.016
17.360,-0.035
17.365,0.033
17.370,-0.004
17.375,-0.045
17.380,-0.005
17.385,0.015
17.390,0.023
17.395,0.040
17.400,0.053
17.405,0.033
17.410,-0.004
17.415,0.020
17.420,0.044
17.425,0.020
17.430,0.008
17.435,-0.017
17.440,-0.016
17.445,0.042
17.450,0.077
17.455,0.025
17.460,-0.027
17.465,-0.009
17.470,-0.002
17.475,-0.016
17.480,-0.003
17.485,0.029
17.490,0.008
17.495,-0.002
17.500,0.042
17.505,0.036
17.510,0.016
17.515,0.035
17.520,0.032
17.525,0.018
17.530,0.031
17.535,0.036
17.540,0.042
17.545,0.035
17.550,0.016
17.555,0.026
17.560,0.039
17.565,0.058
17.570,0.056
17.575,0.050
17.580,0.086
17.585,0.117
17.590,0.094
17.595,0.107
17.600,0.136
17.605,0.056
17.610,0.022
17.615,0.114
17.620,0.142
17.625,0.091
17.630,0.093
17.635,0.096
17.640,0.025
17.645,0.006
17.650,0.061
17.655,0.038
17.660,-0.024
17.665,-0.025
17.670,-0.037
17.675,-0.061
17.680,-0.057
17.685,-0.046
17.690,-0.050
17.695,-0.090
17.700,-0.096
17.705,-0.084
17.710,-0.081
17.715,-0.021
17.720,-0.010
17.725,-0.046
17.730,0.031
17.735,0.175
17.740,0.373
17.745,0.784
17.750,1.333
17.755,1.588
17.760,1.166
17.765,0.264
17.770,-0.447
17.775,-0.653
17.780,-0.561
17.785,-0.437
17.790,-0.332
17.795,-0.240
17.800,-0.218
17.805,-0.236
17.810,-0.234
17.815,-0.208
17.820,-0.204
17.825,-0.191
17.830,-0.155
17.835,-0.173
17.840,-0.204
17.845,-0.188
17.850,-0.150
17.855,-0.135
17.860,-0.152
17.865,-0.130
17.870,-0.108
17.875,-0.134
17.880,-0.113
17.885,-0.074
17.890,-0.096
17.895,-0.096
17.900,-0.058
17.905,-0.067
17.910,-0.080
17.915,-0.042
17.920,-0.022
17.925,-0.036
17.930,-0.010
17.935,0.041
17.940,0.038
17.945,0.001
17.950,0.002
17.955,-0.005
17.960,-0.002
17.965,0.078
17.970,0.116
17.975,0.066
17.980,0.057
17.985,0.101
17.990,0.109
17.995,0.101
18.000,0.147
18.005,0.127
18.010,0.073
18.015,0.139
18.020,0.166
18.025,0.112
18.030,0.137
18.035,0.174
18.040,0.113
18.045,0.081
18.050,0.104
18.055,0.060
18.060,0.010
18.065,0.022
18.070,0.003
18.075,-0.066
18.080,-0.071
18.085,-0.052
18.090,-0.109
18.095,-0.141
18.100,-0.091
18.105,-0.126
18.110,-0.217
18.115,-0.189
18.120,-0.158
18.125,-0.194
18.130,-0.168
18.135,-0.140
18.140,-0.187
18.145,-0.181
18.150,-0.135
18.155,-0.154
18.160,-0.172
18.165,-0.129
18.170,-0.109
18.175,-0.134
18.180,-0.122
18.185,-0.086
18.190,-0.095
18.195,-0.092
18.200,-0.057
18.205,-0.069
18.210,-0.070
18.215,-0.022
18.220,-0.017
18.225,-0.046
18.230,-0.027
18.235,-0.004
18.240,-0.033
18.245,-0.021
18.250,0.033
18.255,0.008
18.260,-0.012
18.265,0.065
18.270,0.068
18.275,-0.024
18.280,-0.024
18.285,0.024
18.290,0.002
18.295,-0.002
18.300,0.038
18.305,0.022
18.310,0.002
18.315,0.042
18.320,0.043
18.325,-0.003
18.330,0.004
18.335,0.035
18.340,-0.001
18.345,-0.016
18.350,0.023
18.355,0.006
18.360,-0.009
18.365,0.024
18.370,0.018
18.375,-0.009
18.380,0.020
18.385,0.029
18.390,-0.014
18.395,-0.005
18.400,0.046
18.405,0.032
18.410,-0.004
18.415,0.030
18.420,0.038
18.425,-0.003
18.430,0.019
18.435,0.050
18.440,0.005
18.445,0.001
18.450,0.068
18.455,0.048
18.460,0.006
18.465,0.061
18.470,0.099
18.475,0.080
18.480,0.099
18.485,0.129
18.490,0.104
18.495,0.098
18.500,0.143
18.505,0.112
18.510,0.042
18.515,0.074
18.520,0.114
18.525,0.085
18.530,0.097
18.535,0.132
18.540,0.076
18.545,0.034
18.550,0.047
18.555,0.009
18.560,-0.012
18.565,0.021
18.570,0.009
18.575,-0.054
18.580,-0.065
18.585,-0.054
18.590,-0.095
18.595,-0.094
18.600,-0.044
18.605,-0.070
18.610,-0.107
18.615,-0.064
18.620,-0.043
18.625,-0.076
18.630,-0.032
18.635,0.082
18.640,0.169
18.645,0.367
18.650,0.803
18.655,1.297
18.660,1.550
18.665,1.199
18.670,0.285
18.675,-0.477
18.680,-0.667
18.685,-0.554
18.690,-0.439
18.695,-0.332
18.700,-0.228
18.705,-0.219
18.710,-0.229
18.715,-0.206
18.720,-0.220
18.725,-0.237
18.730,-0.179
18.735,-0.133
18.740,-0.196
18.745,-0.209
18.750,-0.150
18.755,-0.162
18.760,-0.175
18.765,-0.129
18.770,-0.103
18.775,-0.105
18.780,-0.085
18.785,-0.052
18.790,-0.077
18.795,-0.084
18.800,-0.019
18.805,-0.022
18.810,-0.057
18.815,-0.022
18.820,-0.011
18.825,-0.042
18.830,-0.019
18.835,0.016
18.840,-0.014
18.845,-0.015
18.850,0.039
18.855,0.040
18.860,0.029
18.865,0.079
18.870,0.105
18.875,0.070
18.880,0.070
18.885,0.103
18.890,0.100
18.895,0.109
18.900,0.141
18.905,0.126
18.910,0.116
18.915,0.172
18.920,0.193
18.925,0.147
18.930,0.151
18.935,0.180
18.940,0.152
18.945,0.148
18.950,0.180
18.955,0.136
18.960,0.074
18.965,0.093
18.970,0.087
18.975,0.017
18.980,0.005
18.985,0.013
18.990,-0.031
18.995,-0.046
19.000,-0.040
19.005,-0.097
19.010,-0.142
19.015,-0.110
19.020,-0.118
19.025,-0.181
19.030,-0.164
19.035,-0.118
19.040,-0.146
19.045,-0.154
19.050,-0.125
19.055,-0.155
19.060,-0.183
19.065,-0.134
19.070,-0.107
19.075,-0.122
19.080,-0.097
19.085,-0.095
19.090,-0.138
19.095,-0.114
19.100,-0.067
19.105,-0.089
19.110,-0.093
19.115,-0.032
19.120,-0.017
19.125,-0.058
19.130,-0.050
19.135,-0.019
19.140,-0.034
19.145,-0.017
19.150,0.032
19.155,-0.011
19.160,-0.072
19.165,-0.032
19.170,-0.007
19.175,-0.058
19.180,-0.060
19.185,-0.024
19.190,-0.048
19.195,-0.058
19.200,-0.026
19.205,-0.059
19.210,-0.093
19.215,-0.048
19.220,-0.028
19.225,-0.063
19.230,-0.072
19.235,-0.070
19.240,-0.087
19.245,-0.054
19.250,0.002
19.255,-0.033
19.260,-0.080
19.265,-0.043
19.270,-0.028
19.275,-0.066
19.280,-0.043
19.285,-0.003
19.290,-0.028
19.295,-0.031
19.300,0.008
19.305,-0.009
19.310,-0.041
19.315,-0.016
19.320,0.001
19.325,-0.007
19.330,0.020
19.335,0.037
19.340,0.000
19.345,0.006
19.350,0.037
19.355,-0.008
19.360,-0.030
19.365,0.045
19.370,0.089
19.375,0.064
19.380,0.086
19.385,0.109
19.390,0.074
19.395,0.086
19.400,0.125
19.405,0.085
19.410,0.051
19.415,0.096
19.420,0.115
19.425,0.095
19.430,0.099
19.435,0.085
19.440,0.023
19.445,-0.003
19.450,0.037
19.455,0.026
19.460,-0.026
19.465,-0.012
19.470,-0.013
19.475,-0.057
19.480,-0.061
19.485,-0.069
19.490,-0.098
19.495,-0.068
19.500,-0.022
19.505,-0.054
19.510,-0.070
19.515,-0.014
19.520,-0.010
19.525,-0.025
19.530,0.082
19.535,0.269
19.540,0.533
19.545,1.030
19.550,1.590
19.555,1.613
19.560,0.897
19.565,0.003
19.570,-0.514
19.575,-0.634
19.580,-0.551
19.585,-0.409
19.590,-0.300
19.595,-0.233
19.600,-0.198
19.605,-0.210
19.610,-0.228
19.615,-0.198
19.620,-0.186
19.625,-0.208
19.630,-0.166
19.635,-0.127
19.640,-0.159
19.645,-0.155
19.650,-0.109
19.655,-0.118
19.660,-0.143
19.665,-0.107
19.670,-0.093
19.675,-0.124
19.680,-0.090
19.685,-0.041
19.690,-0.074
19.695,-0.088
19.700,-0.044
19.705,-0.048
19.710,-0.060
19.715,-0.007
19.720,0.007
19.725,-0.038
19.730,-0.016
19.735,0.029
19.740,0.002
19.745,0.000
19.750,0.043
19.755,0.045
19.760,0.045
19.765,0.091
19.770,0.109
19.775,0.081
19.780,0.097
19.785,0.135
19.790,0.121
19.795,0.129
19.800,0.172
19.805,0.155
19.810,0.128
19.815,0.166
19.820,0.186
19.825,0.146
19.830,0.142
19.835,0.160
19.840,0.122
19.845,0.099
19.850,0.113
19.855,0.066
19.860,0.010
19.865,0.024
19.870,0.009
19.875,-0.065
19.880,-0.086
19.885,-0.089
19.890,-0.146
19.895,-0.161
19.900,-0.133
19.905,-0.170
19.910,-0.206
19.915,-0.175
19.920,-0.173
19.925,-0.206
19.930,-0.181
19.935,-0.158
19.940,-0.197
19.945,-0.200
19.950,-0.151
19.955,-0.152
19.960,-0.169
19.965,-0.130
19.970,-0.109
19.975,-0.107
19.980,-0.054
19.985,-0.026
19.990,-0.055
19.995,-0.051
20.000,-0.008
20.005,-0.015
20.010,-0.038
20.015,0.003
20.020,0.018
20.025,-0.016
20.030,0.005
20.035,0.037
20.040,0.007
20.045,0.008
20.050,0.049
20.055,0.029
20.060,0.002
20.065,0.044
20.070,0.048
20.075,0.000
20.080,0.017
20.085,0.050
20.090,0.010
20.095,-0.008
20.100,0.029
20.105,0.018
20.110,-0.010
20.115,0.020
20.120,0.028
20.125,-0.010
20.130,-0.001
20.135,0.022
20.140,-0.014
20.145,-0.021
20.150,0.027
20.155,0.015
20.160,-0.020
20.165,0.008
20.170,0.017
20.175,-0.019
20.180,-0.005
20.185,0.018
20.190,-0.017
20.195,-0.019
20.200,0.030
20.205,0.018
20.210,-0.013
20.215,0.019
20.220,0.029
20.225,-0.006
20.230,0.016
20.235,0.061
20.240,0.053
20.245,0.060
20.250,0.099
20.255,0.079
20.260,0.052
20.265,0.094
20.270,0.101
20.275,0.043
20.280,0.038
20.285,0.078
20.290,0.072
20.295,0.070
20.300,0.106
20.305,0.078
20.310,0.020
20.315,0.024
20.320,0.016
20.325,-0.021
20.330,-0.007
20.335,0.005
20.340,-0.054
20.345,-0.085
20.350,-0.056
20.355,-0.074
20.360,-0.099
20.365,-0.057
20.370,-0.048
20.375,-0.090
20.380,-0.069
20.385,-0.032
20.390,-0.058
20.395,-0.050
20.400,0.043
20.405,0.148
20.410,0.329
20.415,0.741
20.420,1.279
20.425,1.629
20.430,1.451
20.435,0.640
20.440,-0.264
20.445,-0.646
20.450,-0.590
20.455,-0.490
20.460,-0.403
20.465,-0.270
20.470,-0.223
20.475,-0.265
20.480,-0.256
20.485,-0.227
20.490,-0.248
20.495,-0.241
20.500,-0.191
20.505,-0.195
20.510,-0.212
20.515,-0.168
20.520,-0.153
20.525,-0.185
20.530,-0.162
20.535,-0.122
20.540,-0.143
20.545,-0.142
20.550,-0.093
20.555,-0.101
20.560,-0.126
20.565,-0.085
20.570,-0.068
20.575,-0.097
20.580,-0.071
20.585,-0.029
20.590,-0.055
20.595,-0.055
20.600,-0.005
20.605,-0.008
20.610,-0.023
20.615,0.020
20.620,0.040
20.625,0.015
20.630,0.040
20.635,0.082
20.640,0.060
20.645,0.058
20.650,0.107
20.655,0.108
20.660,0.093
20.665,0.137
20.670,0.150
20.675,0.116
20.680,0.138
20.685,0.170
20.690,0.137
20.695,0.127
20.700,0.164
20.705,0.146
20.710,0.109
20.715,0.125
20.720,0.111
20.725,0.050
20.730,0.038
20.735,0.039
20.740,-0.023
20.745,-0.061
20.750,-0.048
20.755,-0.088
20.760,-0.142
20.765,-0.129
20.770,-0.136
20.775,-0.187
20.780,-0.184
20.785,-0.163
20.790,-0.195
20.795,-0.202
20.800,-0.164
20.805,-0.174
20.810,-0.197
20.815,-0.159
20.820,-0.145
20.825,-0.172
20.830,-0.149
20.835,-0.114
20.840,-0.139
20.845,-0.139
20.850,-0.093
20.855,-0.097
20.860,-0.118
20.865,-0.078
20.870,-0.058
20.875,-0.084
20.880,-0.059
20.885,-0.020
20.890,-0.043
20.895,-0.044
20.900,0.004
20.905,-0.004
20.910,-0.029
20.915,0.007
20.920,0.021
20.925,-0.013
20.930,0.006
20.935,0.040
20.940,0.012
20.945,0.007
20.950,0.046
20.955,0.032
20.960,0.004
20.965,0.037
20.970,0.043
20.975,0.004
20.980,0.019
20.985,0.049
20.990,0.018
20.995,0.009
21.000,0.046
21.005,0.029
21.010,0.000
21.015,0.037
21.020,0.047
21.025,0.003
21.030,0.016
21.035,0.049
21.040,0.018
21.045,0.010
21.050,0.045
21.055,0.026
21.060,-0.001
21.065,0.034
21.070,0.044
21.075,0.010
21.080,0.027
21.085,0.057
21.090,0.025
21.095,0.015
21.100,0.053
21.105,0.038
21.110,0.007
21.115,0.040
21.120,0.050
21.125,0.016
21.130,0.039
21.135,0.091
21.140,0.088
21.145,0.092
21.150,0.127
21.155,0.109
21.160,0.083
21.165,0.124
21.170,0.128
21.175,0.064
21.180,0.061
21.185,0.103
21.190,0.089
21.195,0.084
21.200,0.123
21.205,0.100
21.210,0.044
21.215,0.047
21.220,0.040
21.225,0.000
21.230,0.010
21.235,0.021
21.240,-0.036
21.245,-0.065
21.250,-0.036
21.255,-0.058
21.260,-0.095
21.265,-0.057
21.270,-0.038
21.275,-0.070
21.280,-0.051
21.285,-0.016
21.290,-0.043
21.295,-0.040
21.300,0.047
21.305,0.147
21.310,0.308
21.315,0.671
21.320,1.175
21.325,1.576
21.330,1.515
21.335,0.757
21.340,-0.214
21.345,-0.682
21.350,-0.629
21.355,-0.464
21.360,-0.368
21.365,-0.267
21.370,-0.212
21.375,-0.241
21.380,-0.235
21.385,-0.208
21.390,-0.231
21.395,-0.228
21.400,-0.179
21.405,-0.183
21.410,-0.203
21.415,-0.161
21.420,-0.141
21.425,-0.170
21.430,-0.149
21.435,-0.113
21.440,-0.136
21.445,-0.132
21.450,-0.085
21.455,-0.096
21.460,-0.118
21.465,-0.077
21.470,-0.061
21.475,-0.091
21.480,-0.069
21.485,-0.030
21.490,-0.052
21.495,-0.053
21.500,-0.006
21.505,-0.010
21.510,-0.028
21.515,0.015
21.520,0.034
21.525,0.005
21.530,0.030
21.535,0.070
21.540,0.045
21.545,0.044
21.550,0.097
21.555,0.100
21.560,0.081
21.565,0.125
21.570,0.146
21.575,0.112
21.580,0.127
21.585,0.156
21.590,0.126
21.595,0.116
21.600,0.148
21.605,0.128
21.610,0.090
21.615,0.110
21.620,0.102
21.625,0.043
21.630,0.032
21.635,0.035
21.640,-0.021
21.645,-0.056
21.650,-0.043
21.655,-0.079
21.660,-0.131
21.665,-0.123
21.670,-0.134
21.675,-0.184
21.680,-0.174
21.685,-0.147
21.690,-0.185
21.695,-0.201
21.700,-0.161
21.705,-0.168
21.710,-0.192
21.715,-0.154
21.720,-0.139
21.725,-0.172
21.730,-0.150
21.735,-0.110
21.740,-0.131
21.745,-0.132
21.750,-0.088
21.755,-0.092
21.760,-0.111
21.765,-0.072
21.770,-0.055
21.775,-0.087
21.780,-0.065
21.785,-0.028
21.790,-0.053
21.795,-0.053
21.800,-0.006
21.805,-0.012
21.810,-0.036
21.815,-0.002
21.820,0.009
21.825,-0.025
21.830,-0.004
21.835,0.033
21.840,0.007
21.845,0.002
21.850,0.042
21.855,0.026
21.860,-0.003
21.865,0.034
21.870,0.043
21.875,0.003
21.880,0.017
21.885,0.045
21.890,0.014
21.895,0.009
21.900,0.048
21.905,0.032
21.910,-0.005
21.915,0.021
21.920,0.031
21.925,-0.006
21.930,0.009
21.935,0.035
21.940,-0.004
21.945,-0.006
21.950,0.045
21.955,0.033
21.960,-0.001
21.965,0.030
21.970,0.040
21.975,-0.002
21.980,0.007
21.985,0.034
21.990,0.010
21.995,0.012
22.000,0.051
22.005,0.026
22.010,-0.013
22.015,0.027
22.020,0.046
22.025,0.002
22.030,0.010
22.035,0.049
22.040,0.029
22.045,0.020
22.050,0.056
22.055,0.052
22.060,0.044
22.065,0.098
22.070,0.119
22.075,0.080
22.080,0.094
22.085,0.134
22.090,0.098
22.095,0.059
22.100,0.074
22.105,0.078
22.110,0.081
22.115,0.122
22.120,0.123
22.125,0.070
22.130,0.059
22.135,0.055
22.140,-0.008
22.145,-0.028
22.150,0.017
22.155,0.009
22.160,-0.042
22.165,-0.044
22.170,-0.049
22.175,-0.098
22.180,-0.083
22.185,-0.035
22.190,-0.050
22.195,-0.059
22.200,-0.042
22.205,-0.066
22.210,-0.077
22.215,-0.016
22.220,0.042
22.225,0.099
22.230,0.268
22.235,0.588
22.240,1.019
22.245,1.467
22.250,1.535
22.255,0.854
22.260,-0.121
22.265,-0.639
22.270,-0.678
22.275,-0.570
22.280,-0.414
22.285,-0.271
22.290,-0.239
22.295,-0.232
22.300,-0.187
22.305,-0.191
22.310,-0.207
22.315,-0.169
22.320,-0.171
22.325,-0.214
22.330,-0.184
22.335,-0.135
22.340,-0.151
22.345,-0.143
22.350,-0.090
22.355,-0.097
22.360,-0.125
22.365,-0.101
22.370,-0.100
22.375,-0.129
22.380,-0.095
22.385,-0.052
22.390,-0.072
22.395,-0.071
22.400,-0.028
22.405,-0.042
22.410,-0.067
22.415,-0.020
22.420,0.000
22.425,-0.027
22.430,0.013
22.435,0.053
22.440,0.014
22.445,0.003
22.450,0.052
22.455,0.062
22.460,0.052
22.465,0.090
22.470,0.108
22.475,0.088
22.480,0.124
22.485,0.164
22.490,0.120
22.495,0.103
22.500,0.150
22.505,0.143
22.510,0.114
22.515,0.153
22.520,0.161
22.525,0.110
22.530,0.122
22.535,0.153
22.540,0.104
22.545,0.064
22.550,0.076
22.555,0.037
22.560,-0.010
22.565,0.005
22.570,-0.033
22.575,-0.123
22.580,-0.130
22.585,-0.107
22.590,-0.152
22.595,-0.170
22.600,-0.139
22.605,-0.176
22.610,-0.216
22.615,-0.173
22.620,-0.157
22.625,-0.197
22.630,-0.186
22.635,-0.159
22.640,-0.184
22.645,-0.178
22.650,-0.134
22.655,-0.148
22.660,-0.172
22.665,-0.129
22.670,-0.099
22.675,-0.115
22.680,-0.091
22.685,-0.067
22.690,-0.096
22.695,-0.090
22.700,-0.053
22.705,-0.062
22.710,-0.070
22.715,-0.033
22.720,-0.029
22.725,-0.055
22.730,-0.022
22.735,0.016
22.740,-0.019
22.745,-0.033
22.750,0.025
22.755,0.037
22.760,0.000
22.765,0.010
22.770,0.024
22.775,0.005
22.780,0.020
22.785,0.031
22.790,-0.005
22.795,-0.001
22.800,0.046
22.805,0.031
22.810,-0.001
22.815,0.034
22.820,0.050
22.825,0.017
22.830,0.008
22.835,0.009
22.840,-0.014
22.845,-0.008
22.850,0.034
22.855,0.026
22.860,-0.003
22.865,0.034
22.870,0.053
22.875,0.006
22.880,0.002
22.885,0.035
22.890,0.006
22.895,-0.014
22.900,0.032
22.905,0.041
22.910,0.027
22.915,0.046
22.920,0.034
22.925,0.000
22.930,0.021
22.935,0.046
22.940,0.017
22.945,0.014
22.950,0.057
22.955,0.051
22.960,0.041
22.965,0.097
22.970,0.119
22.975,0.079
22.980,0.078
22.985,0.109
22.990,0.102
22.995,0.096
23.000,0.106
23.005,0.075
23.010,0.066
23.015,0.126
23.020,0.137
23.025,0.087
23.030,0.076
23.035,0.067
23.040,0.015
23.045,0.007
23.050,0.041
23.055,0.011
23.060,-0.041
23.065,-0.027
23.070,-0.032
23.075,-0.087
23.080,-0.075
23.085,-0.049
23.090,-0.090
23.095,-0.073
23.100,-0.006
23.105,-0.032
23.110,-0.073
23.115,-0.026
23.120,0.014
23.125,0.042
23.130,0.191
23.135,0.450
23.140,0.839
23.145,1.390
23.150,1.688
23.155,1.231
23.160,0.291
23.165,-0.395
23.170,-0.627
23.175,-0.646
23.180,-0.534
23.185,-0.346
23.190,-0.248
23.195,-0.230
23.200,-0.197
23.205,-0.208
23.210,-0.240
23.215,-0.200
23.220,-0.180
23.225,-0.207
23.230,-0.174
23.235,-0.129
23.240,-0.149
23.245,-0.157
23.250,-0.134
23.255,-0.148
23.260,-0.143
23.265,-0.089
23.270,-0.089
23.275,-0.126
23.280,-0.101
23.285,-0.059
23.290,-0.071
23.295,-0.080
23.300,-0.050
23.305,-0.053
23.310,-0.066
23.315,-0.024
23.320,-0.008
23.325,-0.037
23.330,-0.018
23.335,0.017
23.340,0.005
23.345,0.020
23.350,0.067
23.355,0.064
23.360,0.051
23.365,0.094
23.370,0.107
23.375,0.060
23.380,0.090
23.385,0.155
23.390,0.124
23.395,0.113
23.400,0.166
23.405,0.164
23.410,0.149
23.415,0.184
23.420,0.179
23.425,0.115
23.430,0.115
23.435,0.146
23.440,0.100
23.445,0.070
23.450,0.092
23.455,0.041
23.460,-0.023
23.465,-0.001
23.470,-0.017
23.475,-0.098
23.480,-0.113
23.485,-0.105
23.490,-0.165
23.495,-0.203
23.500,-0.173
23.505,-0.183
23.510,-0.208
23.515,-0.184
23.520,-0.194
23.525,-0.232
23.530,-0.207
23.535,-0.178
23.540,-0.204
23.545,-0.194
23.550,-0.144
23.555,-0.151
23.560,-0.173
23.565,-0.135
23.570,-0.117
23.575,-0.147
23.580,-0.121
23.585,-0.075
23.590,-0.099
23.595,-0.104
23.600,-0.052
23.605,-0.053
23.610,-0.079
23.615,-0.035
23.620,-0.007
23.625,-0.036
23.630,-0.023
23.635,0.012
23.640,-0.007
23.645,-0.013
23.650,0.022
23.655,0.010
23.660,-0.013
23.665,0.030
23.670,0.045
23.675,0.001
23.680,0.012
23.685,0.047
23.690,0.015
23.695,-0.001
23.700,0.034
23.705,0.016
23.710,-0.014
23.715,0.028
23.720,0.042
23.725,-0.003
23.730,0.007
23.735,0.041
23.740,0.009
23.745,-0.004
23.750,0.036
23.755,0.029
23.760,0.000
23.765,0.020
23.770,0.023
23.775,-0.006
23.780,0.018
23.785,0.046
23.790,0.013
23.795,0.008
23.800,0.052
23.805,0.043
23.810,0.006
23.815,0.020
23.820,0.031
23.825,0.009
23.830,0.027
23.835,0.055
23.840,0.026
23.845,0.022
23.850,0.080
23.855,0.101
23.860,0.086
23.865,0.112
23.870,0.116
23.875,0.070
23.880,0.087
23.885,0.131
23.890,0.084
23.895,0.039
23.900,0.088
23.905,0.115
23.910,0.095
23.915,0.124
23.920,0.125
23.925,0.054
23.930,0.026
23.935,0.029
23.940,0.001
23.945,0.009
23.950,0.044
23.955,0.001
23.960,-0.063
23.965,-0.051
23.970,-0.045
23.975,-0.081
23.980,-0.059
23.985,-0.023
23.990,-0.062
23.995,-0.078
24.000,-0.030
24.005,-0.030
24.010,-0.044
24.015,0.031
24.020,0.145
24.025,0.293
24.030,0.651
24.035,1.213
24.040,1.649
24.045,1.581
24.050,0.858
24.055,-0.104
24.060,-0.644
24.065,-0.657
24.070,-0.529
24.075,-0.439
24.080,-0.316
24.085,-0.225
24.090,-0.241
24.095,-0.250
24.100,-0.214
24.105,-0.224
24.110,-0.246
24.115,-0.201
24.120,-0.174
24.125,-0.201
24.130,-0.183
24.135,-0.145
24.140,-0.167
24.145,-0.171
24.150,-0.125
24.155,-0.126
24.160,-0.143
24.165,-0.102
24.170,-0.091
24.175,-0.124
24.180,-0.099
24.185,-0.054
24.190,-0.068
24.195,-0.073
24.200,-0.039
24.205,-0.044
24.210,-0.061
24.215,-0.022
24.220,0.002
24.225,-0.023
24.230,-0.002
24.235,0.037
24.240,0.015
24.245,0.016
24.250,0.068
24.255,0.067
24.260,0.050
24.265,0.093
24.270,0.113
24.275,0.083
24.280,0.106
24.285,0.151
24.290,0.127
24.295,0.116
24.300,0.157
24.305,0.148
24.310,0.117
24.315,0.149
24.320,0.158
24.325,0.109
24.330,0.105
24.335,0.117
24.340,0.062
24.345,0.029
24.350,0.040
24.355,-0.006
24.360,-0.063
24.365,-0.054
24.370,-0.071
24.375,-0.136
24.380,-0.144
24.385,-0.129
24.390,-0.177
24.395,-0.196
24.400,-0.159
24.405,-0.176
24.410,-0.215
24.415,-0.188
24.420,-0.173
24.425,-0.205
24.430,-0.190
24.435,-0.153
24.440,-0.175
24.445,-0.177
24.450,-0.126
24.455,-0.128
24.460,-0.152
24.465,-0.112
24.470,-0.091
24.475,-0.122
24.480,-0.102
24.485,-0.061
24.490,-0.081
24.495,-0.083
24.500,-0.032
24.505,-0.033
24.510,-0.059
24.515,-0.023
24.520,-0.003
24.525,-0.033
24.530,-0.015
24.535,0.020
24.540,-0.006
24.545,-0.008
24.550,0.038
24.555,0.026
24.560,-0.008
24.565,0.023
24.570,0.033
24.575,-0.005
24.580,0.013
24.585,0.047
24.590,0.013
24.595,-0.002
24.600,0.033
24.605,0.020
24.610,-0.008
24.615,0.026
24.620,0.038
24.625,-0.004
24.630,0.007
24.635,0.040
24.640,0.010
24.645,0.001
24.650,0.045
24.655,0.032
24.660,-0.002
24.665,0.029
24.670,0.040
24.675,0.004
24.680,0.019
24.685,0.050
24.690,0.019
24.695,0.008
24.700,0.048
24.705,0.036
24.710,0.005
24.715,0.036
24.720,0.049
24.725,0.013
24.730,0.026
24.735,0.057
24.740,0.027
24.745,0.017
24.750,0.056
24.755,0.043
24.760,0.019
24.765,0.072
24.770,0.112
24.775,0.088
24.780,0.097
24.785,0.117
24.790,0.087
24.795,0.091
24.800,0.126
24.805,0.082
24.810,0.041
24.815,0.096
24.820,0.126
24.825,0.087
24.830,0.095
24.835,0.108
24.840,0.049
24.845,0.012
24.850,0.034
24.855,0.020
24.860,-0.018
24.865,-0.006
24.870,-0.013
24.875,-0.064
24.880,-0.064
24.885,-0.041
24.890,-0.070
24.895,-0.079
24.900,-0.040
24.905,-0.049
24.910,-0.075
24.915,-0.037
24.920,-0.015
24.925,-0.034
24.930,0.047
24.935,0.212
24.940,0.407
24.945,0.786
24.950,1.336
24.955,1.653
24.960,1.325
24.965,0.446
24.970,-0.364
24.975,-0.685
24.980,-0.592
24.985,-0.406
24.990,-0.331
24.995,-0.276
25.000,-0.210
25.005,-0.226
25.010,-0.259
25.015,-0.223
25.020,-0.204
25.025,-0.235
25.030,-0.214
25.035,-0.172
25.040,-0.190
25.045,-0.187
25.050,-0.137
25.055,-0.145
25.060,-0.170
25.065,-0.129
25.070,-0.108
25.075,-0.137
25.080,-0.119
25.085,-0.083
25.090,-0.105
25.095,-0.108
25.100,-0.058
25.105,-0.059
25.110,-0.080
25.115,-0.036
25.120,-0.015
25.125,-0.045
25.130,-0.027
25.135,0.008
25.140,-0.016
25.145,-0.016
25.150,0.034
25.155,0.033
25.160,0.014
25.165,0.059
25.170,0.085
25.175,0.058
25.180,0.081
25.185,0.124
25.190,0.103
25.195,0.096
25.200,0.139
25.205,0.132
25.210,0.106
25.215,0.143
25.220,0.159
25.225,0.119
25.230,0.126
25.235,0.149
25.240,0.107
25.245,0.080
25.250,0.101
25.255,0.068
25.260,0.014
25.265,0.020
25.270,0.003
25.275,-0.062
25.280,-0.073
25.285,-0.069
25.290,-0.123
25.295,-0.150
25.300,-0.129
25.305,-0.157
25.310,-0.197
25.315,-0.173
25.320,-0.165
25.325,-0.204
25.330,-0.191
25.335,-0.155
25.340,-0.179
25.345,-0.187
25.350,-0.145
25.355,-0.145
25.360,-0.169
25.365,-0.136
25.370,-0.116
25.375,-0.140
25.380,-0.115
25.385,-0.080
25.390,-0.105
25.395,-0.106
25.400,-0.056
25.405,-0.057
25.410,-0.081
25.415,-0.043
25.420,-0.020
25.425,-0.053
25.430,-0.036
25.435,0.003
25.440,-0.022
25.445,-0.027
25.450,0.020
25.455,0.014
25.460,-0.015
25.465,0.018
25.470,0.033
25.475,-0.006
25.480,0.010
25.485,0.048
25.490,0.016
25.495,-0.002
25.500,0.035
25.505,0.021
25.510,-0.010
25.515,0.023
25.520,0.035
25.525,-0.003
25.530,0.011
25.535,0.042
25.540,0.011
25.545,-0.003
25.550,0.032
25.555,0.021
25.560,-0.009
25.565,0.025
25.570,0.039
25.575,0.000
25.580,0.013
25.585,0.046
25.590,0.017
25.595,0.008
25.600,0.044
25.605,0.032
25.610,0.002
25.615,0.038
25.620,0.055
25.625,0.014
25.630,0.023
25.635,0.058
25.640,0.028
25.645,0.014
25.650,0.051
25.655,0.039
25.660,0.008
25.665,0.038
25.670,0.053
25.675,0.022
25.680,0.039
25.685,0.081
25.690,0.073
25.695,0.085
25.700,0.134
25.705,0.115
25.710,0.077
25.715,0.117
25.720,0.122
25.725,0.057
25.730,0.059
25.735,0.113
25.740,0.099
25.745,0.078
25.750,0.106
25.755,0.083
25.760,0.026
25.765,0.029
25.770,0.025
25.775,-0.006
25.780,0.009
25.785,0.021
25.790,-0.043
25.795,-0.086
25.800,-0.055
25.805,-0.058
25.810,-0.088
25.815,-0.056
25.820,-0.036
25.825,-0.070
25.830,-0.062
25.835,-0.029
25.840,-0.049
25.845,-0.045
25.850,0.049
25.855,0.169
25.860,0.357
25.865,0.757
25.870,1.272
25.875,1.600
25.880,1.384
25.885,0.522
25.890,-0.394
25.895,-0.748
25.900,-0.626
25.905,-0.452
25.910,-0.364
25.915,-0.253
25.920,-0.190
25.925,-0.228
25.930,-0.232
25.935,-0.204
25.940,-0.231
25.945,-0.231
25.950,-0.173
25.955,-0.173
25.960,-0.201
25.965,-0.160
25.970,-0.138
25.975,-0.173
25.980,-0.149
25.985,-0.097
25.990,-0.121
25.995,-0.133
26.000,-0.088
26.005,-0.092
26.010,-0.122
26.015,-0.089
26.020,-0.066
26.025,-0.093
26.030,-0.070
26.035,-0.024
26.040,-0.038
26.045,-0.039
26.050,0.000
26.055,-0.012
26.060,-0.034
26.065,0.013
26.070,0.044
26.075,0.020
26.080,0.038
26.085,0.067
26.090,0.042
26.095,0.047
26.100,0.094
26.105,0.090
26.110,0.081
26.115,0.134
26.120,0.152
26.125,0.109
26.130,0.117
26.135,0.150
26.140,0.127
26.145,0.118
26.150,0.155
26.155,0.137
26.160,0.096
26.165,0.114
26.170,0.109
26.175,0.046
26.180,0.027
26.185,0.037
26.190,-0.008
26.195,-0.041
26.200,-0.032
26.205,-0.078
26.210,-0.138
26.215,-0.123
26.220,-0.126
26.225,-0.177
26.230,-0.170
26.235,-0.136
26.240,-0.169
26.245,-0.196
26.250,-0.167
26.255,-0.178
26.260,-0.207
26.265,-0.166
26.270,-0.136
26.275,-0.161
26.280,-0.135
26.285,-0.094
26.290,-0.131
26.295,-0.150
26.300,-0.106
26.305,-0.105
26.310,-0.123
26.315,-0.079
26.320,-0.056
26.325,-0.083
26.330,-0.061
26.335,-0.027
26.340,-0.059
26.345,-0.064
26.350,-0.016
26.355,-0.025
26.360,-0.050
26.365,-0.004
26.370,0.023
26.375,-0.015
26.380,-0.004
26.385,0.042
26.390,0.016
26.395,-0.011
26.400,0.027
26.405,0.022
26.410,-0.013
26.415,0.021
26.420,0.037
26.425,-0.013
26.430,-0.003
26.435,0.042
26.440,0.017
26.445,0.005
26.450,0.041
26.455,0.018
26.460,-0.014
26.465,0.036
26.470,0.064
26.475,0.016
26.480,0.007
26.485,0.035
26.490,0.012
26.495,0.013
26.500,0.059
26.505,0.033
26.510,-0.017
26.515,0.014
26.520,0.035
26.525,0.009
26.530,0.035
26.535,0.072
26.540,0.035
26.545,0.006
26.550,0.039
26.555,0.044
26.560,0.021
26.565,0.047
26.570,0.053
26.575,0.009
26.580,0.021
26.585,0.065
26.590,0.057
26.595,0.069
26.600,0.120
26.605,0.099
26.610,0.052
26.615,0.081
26.620,0.111
26.625,0.095
26.630,0.103
26.635,0.111
26.640,0.084
26.645,0.093
26.650,0.130
26.655,0.113
26.660,0.071
26.665,0.078
26.670,0.062
26.675,-0.010
26.680,-0.017
26.685,0.017
26.690,-0.009
26.695,-0.031
26.700,-0.016
26.705,-0.046
26.710,-0.095
26.715,-0.066
26.720,-0.043
26.725,-0.086
26.730,-0.080
26.735,-0.035
26.740,-0.047
26.745,-0.044
26.750,0.010
26.755,0.044
26.760,0.114
26.765,0.309
26.770,0.628
26.775,1.087
26.780,1.533
26.785,1.474
26.790,0.704
26.795,-0.168
26.800,-0.566
26.805,-0.619
26.810,-0.563
26.815,-0.412
26.820,-0.274
26.825,-0.252
26.830,-0.235
26.835,-0.198
26.840,-0.219
26.845,-0.226
26.850,-0.173
26.855,-0.160
26.860,-0.187
26.865,-0.167
26.870,-0.147
26.875,-0.169
26.880,-0.152
26.885,-0.108
26.890,-0.122
26.895,-0.134
26.900,-0.100
26.905,-0.102
26.910,-0.113
26.915,-0.067
26.920,-0.047
26.925,-0.086
26.930,-0.076
26.935,-0.026
26.940,-0.038
26.945,-0.049
26.950,-0.013
26.955,-0.028
26.960,-0.054
26.965,0.005
26.970,0.046
26.975,0.013
26.980,0.018
26.985,0.062
26.990,0.053
26.995,0.044
27.000,0.084
27.005,0.099
27.010,0.091
27.015,0.127
27.020,0.136
27.025,0.101
27.030,0.130
27.035,0.170
27.040,0.139
27.045,0.121
27.050,0.153
27.055,0.143
27.060,0.102
27.065,0.123
27.070,0.140
27.075,0.080
27.080,0.048
27.085,0.064
27.090,0.026
27.095,-0.018
27.100,-0.017
27.105,-0.055
27.110,-0.105
27.115,-0.099
27.120,-0.112
27.125,-0.168
27.130,-0.167
27.135,-0.154
27.140,-0.202
27.145,-0.215
27.150,-0.174
27.155,-0.186
27.160,-0.213
27.165,-0.180
27.170,-0.160
27.175,-0.185
27.180,-0.170
27.185,-0.139
27.190,-0.159
27.195,-0.159
27.200,-0.112
27.205,-0.111
27.210,-0.134
27.215,-0.101
27.220,-0.082
27.225,-0.101
27.230,-0.066
27.235,-0.029
27.240,-0.062
27.245,-0.065
27.250,-0.006
27.255,-0.007
27.260,-0.040
27.265,-0.006
27.270,0.013
27.275,-0.023
27.280,-0.001
27.285,0.041
27.290,0.011
27.295,-0.002
27.300,0.034
27.305,0.018
27.310,-0.010
27.315,0.025
27.320,0.032
27.325,-0.008
27.330,0.003
27.335,0.037
27.340,0.016
27.345,0.001
27.350,0.032
27.355,0.019
27.360,-0.018
27.365,0.014
27.370,0.040
27.375,0.004
27.380,0.006
27.385,0.041
27.390,0.016
27.395,-0.005
27.400,0.029
27.405,0.026
27.410,-0.002
27.415,0.023
27.420,0.042
27.425,0.014
27.430,0.024
27.435,0.056
27.440,0.028
27.445,0.014
27.450,0.048
27.455,0.035
27.460,0.006
27.465,0.043
27.470,0.056
27.475,0.007
27.480,0.021
27.485,0.073
27.490,0.064
27.495,0.070
27.500,0.121
27.505,0.108
27.510,0.074
27.515,0.109
27.520,0.128
27.525,0.081
27.530,0.068
27.535,0.099
27.540,0.091
27.545,0.087
27.550,0.125
27.555,0.115
27.560,0.066
27.565,0.067
27.570,0.047
27.575,-0.011
27.580,0.006
27.585,0.040
27.590,-0.003
27.595,-0.045
27.600,-0.042
27.605,-0.067
27.610,-0.099
27.615,-0.066
27.620,-0.040
27.625,-0.073
27.630,-0.059
27.635,-0.019
27.640,-0.045
27.645,-0.050
27.650,0.023
27.655,0.104
27.660,0.226
27.665,0.531
27.670,1.030
27.675,1.521
27.680,1.652
27.685,1.095
27.690,0.107
27.695,-0.554
27.700,-0.657
27.705,-0.578
27.710,-0.485
27.715,-0.320
27.720,-0.218
27.725,-0.242
27.730,-0.235
27.735,-0.209
27.740,-0.241
27.745,-0.240
27.750,-0.187
27.755,-0.184
27.760,-0.202
27.765,-0.160
27.770,-0.140
27.775,-0.172
27.780,-0.152
27.785,-0.111
27.790,-0.132
27.795,-0.139
27.800,-0.094
27.805,-0.095
27.810,-0.117
27.815,-0.075
27.820,-0.055
27.825,-0.088
27.830,-0.072
27.835,-0.031
27.840,-0.044
27.845,-0.049
27.850,-0.015
27.855,-0.016
27.860,-0.028
27.865,0.009
27.870,0.029
27.875,0.002
27.880,0.022
27.885,0.064
27.890,0.043
27.895,0.036
27.900,0.087
27.905,0.100
27.910,0.080
27.915,0.114
27.920,0.139
27.925,0.108
27.930,0.121
27.935,0.161
27.940,0.138
27.945,0.126
27.950,0.163
27.955,0.142
27.960,0.096
27.965,0.117
27.970,0.120
27.975,0.061
27.980,0.041
27.985,0.049
27.990,-0.003
27.995,-0.044
28.000,-0.035
28.005,-0.074
28.010,-0.135
28.015,-0.126
28.020,-0.126
28.025,-0.179
28.030,-0.182
28.035,-0.155
28.040,-0.187
28.045,-0.208
28.050,-0.176
28.055,-0.184
28.060,-0.212
28.065,-0.177
28.070,-0.156
28.075,-0.190
28.080,-0.173
28.085,-0.126
28.090,-0.147
28.095,-0.158
28.100,-0.107
28.105,-0.100
28.110,-0.127
28.115,-0.090
28.120,-0.067
28.125,-0.102
28.130,-0.083
28.135,-0.037
28.140,-0.056
28.145,-0.061
28.150,-0.015
28.155,-0.017
28.160,-0.040
28.165,-0.001
28.170,0.023
28.175,-0.011
28.180,-0.004
28.185,0.030
28.190,0.006
28.195,-0.007
28.200,0.032
28.205,0.026
28.210,-0.005
28.215,0.021
28.220,0.034
28.225,0.000
28.230,0.012
28.235,0.042
28.240,0.008
28.245,-0.009
28.250,0.028
28.255,0.024
28.260,-0.001
28.265,0.027
28.270,0.038
28.275,-0.002
28.280,0.005
28.285,0.041
28.290,0.016
28.295,0.000
28.300,0.037
28.305,0.029
28.310,-0.002
28.315,0.029
28.320,0.046
28.325,0.009
28.330,0.018
28.335,0.051
28.340,0.021
28.345,0.005
28.350,0.044
28.355,0.038
28.360,0.007
28.365,0.035
28.370,0.053
28.375,0.018
28.380,0.023
28.385,0.058
28.390,0.040
28.395,0.039
28.400,0.098
28.405,0.106
28.410,0.074
28.415,0.089
28.420,0.104
28.425,0.088
28.430,0.102
28.435,0.106
28.440,0.064
28.445,0.073
28.450,0.128
28.455,0.113
28.460,0.076
28.465,0.094
28.470,0.080
28.475,0.014
28.480,0.008
28.485,0.035
28.490,0.001
28.495,-0.028
28.500,-0.011
28.505,-0.037
28.510,-0.081
28.515,-0.062
28.520,-0.051
28.525,-0.084
28.530,-0.071
28.535,-0.033
28.540,-0.052
28.545,-0.061
28.550,-0.016
28.555,0.004
28.560,0.044
28.565,0.205
28.570,0.452
28.575,0.816
28.580,1.330
28.585,1.649
28.590,1.274
28.595,0.342
28.600,-0.402
28.605,-0.646
28.610,-0.591
28.615,-0.422
28.620,-0.298
28.625,-0.268
28.630,-0.235
28.635,-0.208
28.640,-0.243
28.645,-0.255
28.650,-0.205
28.655,-0.202
28.660,-0.223
28.665,-0.184
28.670,-0.160
28.675,-0.185
28.680,-0.170
28.685,-0.134
28.690,-0.151
28.695,-0.155
28.700,-0.110
28.705,-0.105
28.710,-0.127
28.715,-0.096
28.720,-0.075
28.725,-0.103
28.730,-0.085
28.735,-0.044
28.740,-0.062
28.745,-0.068
28.750,-0.026
28.755,-0.021
28.760,-0.039
28.765,-0.004
28.770,0.017
28.775,-0.014
28.780,0.002
28.785,0.047
28.790,0.033
28.795,0.031
28.800,0.085
28.805,0.090
28.810,0.063
28.815,0.099
28.820,0.123
28.825,0.093
28.830,0.115
28.835,0.158
28.840,0.132
28.845,0.119
28.850,0.154
28.855,0.144
28.860,0.108
28.865,0.127
28.870,0.132
28.875,0.081
28.880,0.068
28.885,0.080
28.890,0.033
28.895,-0.008
28.900,0.003
28.905,-0.031
28.910,-0.094
28.915,-0.092
28.920,-0.096
28.925,-0.152
28.930,-0.160
28.935,-0.137
28.940,-0.174
28.945,-0.195
28.950,-0.161
28.955,-0.172
28.960,-0.204
28.965,-0.173
28.970,-0.155
28.975,-0.188
28.980,-0.169
28.985,-0.127
28.990,-0.153
28.995,-0.162
29.000,-0.111
29.005,-0.107
29.010,-0.130
29.015,-0.094
29.020,-0.070
29.025,-0.100
29.030,-0.088
29.035,-0.045
29.040,-0.061
29.045,-0.070
29.050,-0.022
29.055,-0.020
29.060,-0.045
29.065,-0.009
29.070,0.014
29.075,-0.019
29.080,-0.005
29.085,0.033
29.090,0.006
29.095,-0.010
29.100,0.029
29.105,0.027
29.110,-0.001
29.115,0.025
29.120,0.037
29.125,-0.001
29.130,0.010
29.135,0.046
29.140,0.016
29.145,0.000
29.150,0.036
29.155,0.026
29.160,-0.006
29.165,0.020
29.170,0.038
29.175,0.005
29.180,0.012
29.185,0.045
29.190,0.015
29.195,-0.001
29.200,0.041
29.205,0.035
29.210,0.000
29.215,0.027
29.220,0.044
29.225,0.006
29.230,0.010
29.235,0.045
29.240,0.021
29.245,0.003
29.250,0.038
29.255,0.033
29.260,0.003
29.265,0.034
29.270,0.052
29.275,0.012
29.280,0.023
29.285,0.063
29.290,0.031
29.295,0.010
29.300,0.048
29.305,0.047
29.310,0.030
29.315,0.086
29.320,0.130
29.325,0.099
29.330,0.094
29.335,0.119
29.340,0.099
29.345,0.085
29.350,0.097
29.355,0.067
29.360,0.050
29.365,0.103
29.370,0.121
29.375,0.078
29.380,0.078
29.385,0.094
29.390,0.039
29.395,-0.002
29.400,0.027
29.405,0.014
29.410,-0.033
29.415,-0.026
29.420,-0.028
29.425,-0.070
29.430,-0.067
29.435,-0.039
29.440,-0.063
29.445,-0.072
29.450,-0.025
29.455,-0.022
29.460,-0.054
29.465,-0.026
29.470,-0.002
29.475,0.000
29.480,0.116
29.485,0.334
29.490,0.617
29.495,1.072
29.500,1.562
29.505,1.549
29.510,0.780
29.515,-0.157
29.520,-0.651
29.525,-0.697
29.530,-0.502
29.535,-0.329
29.540,-0.285
29.545,-0.251
29.550,-0.203
29.555,-0.218
29.560,-0.249
29.565,-0.208
29.570,-0.170
29.575,-0.191
29.580,-0.181
29.585,-0.148
29.590,-0.177
29.595,-0.193
29.600,-0.142
29.605,-0.132
29.610,-0.151
29.615,-0.114
29.620,-0.094
29.625,-0.132
29.630,-0.125
29.635,-0.085
29.640,-0.102
29.645,-0.109
29.650,-0.054
29.655,-0.039
29.660,-0.060
29.665,-0.029
29.670,-0.013
29.675,-0.049
29.680,-0.031
29.685,0.013
29.690,-0.003
29.695,-0.002
29.700,0.047
29.705,0.040
29.710,0.009
29.715,0.054
29.720,0.091
29.725,0.065
29.730,0.080
29.735,0.123
29.740,0.106
29.745,0.102
29.750,0.147
29.755,0.141
29.760,0.104
29.765,0.129
29.770,0.152
29.775,0.119
29.780,0.121
29.785,0.142
29.790,0.096
29.795,0.052
29.800,0.068
29.805,0.051
29.810,0.002
29.815,0.005
29.820,-0.008
29.825,-0.068
29.830,-0.086
29.835,-0.083
29.840,-0.137
29.845,-0.172
29.850,-0.137
29.855,-0.145
29.860,-0.184
29.865,-0.167
29.870,-0.164
29.875,-0.209
29.880,-0.201
29.885,-0.160
29.890,-0.173
29.895,-0.178
29.900,-0.136
29.905,-0.137
29.910,-0.165
29.915,-0.135
29.920,-0.114
29.925,-0.139
29.930,-0.119
29.935,-0.078
29.940,-0.096
29.945,-0.102
29.950,-0.057
29.955,-0.060
29.960,-0.090
29.965,-0.051
29.970,-0.022
29.975,-0.054
29.980,-0.045
29.985,-0.009
29.990,-0.026
29.995,-0.031
30.000,0.018
30.005,0.021
30.010,-0.008
30.015,0.011
30.020,0.016
30.025,-0.022
30.030,-0.006
30.035,0.044
30.040,0.031
30.045,0.009
30.050,0.032
30.055,0.016
30.060,-0.021
30.065,0.008
30.070,0.036
30.075,0.004
30.080,0.003
30.085,0.032
30.090,0.013
30.095,-0.005
30.100,0.019
30.105,0.011
30.110,-0.006
30.115,0.034
30.120,0.045
30.125,-0.002
30.130,0.010
30.135,0.052
30.140,0.021
30.145,0.001
30.150,0.038
30.155,0.027
30.160,-0.004
30.165,0.034
30.170,0.053
30.175,0.013
30.180,0.027
30.185,0.061
30.190,0.027
30.195,0.011
30.200,0.057
30.205,0.055
30.210,0.037
30.215,0.094
30.220,0.125
30.225,0.078
30.230,0.073
30.235,0.117
30.240,0.108
30.245,0.085
30.250,0.096
30.255,0.086
30.260,0.083
30.265,0.131
30.270,0.140
30.275,0.087
30.280,0.063
30.285,0.053
30.290,-0.002
30.295,-0.020
30.300,0.029
30.305,0.024
30.310,-0.029
30.315,-0.031
30.320,-0.032
30.325,-0.082
30.330,-0.079
30.335,-0.031
30.340,-0.045
30.345,-0.060
30.350,-0.030
30.355,-0.045
30.360,-0.071
30.365,-0.031
30.370,0.015
30.375,0.072
30.380,0.231
30.385,0.503
30.390,0.907
30.395,1.390
30.400,1.563
30.405,1.016
30.410,0.081
30.415,-0.498
30.420,-0.608
30.425,-0.573
30.430,-0.458
30.435,-0.286
30.440,-0.221
30.445,-0.227
30.450,-0.191
30.455,-0.191
30.460,-0.222
30.465,-0.180
30.470,-0.144
30.475,-0.178
30.480,-0.185
30.485,-0.150
30.490,-0.156
30.495,-0.155
30.500,-0.114
30.505,-0.118
30.510,-0.131
30.515,-0.085
30.520,-0.065
30.525,-0.102
30.530,-0.095
30.535,-0.061
30.540,-0.078
30.545,-0.084
30.550,-0.032
30.555,-0.013
30.560,-0.032
30.565,-0.014
30.570,-0.002
30.575,-0.034
30.580,-0.022
30.585,0.027
30.590,0.020
30.595,0.012
30.600,0.061
30.605,0.068
30.610,0.037
30.615,0.080
30.620,0.119
30.625,0.087
30.630,0.096
30.635,0.149
30.640,0.142
30.645,0.125
30.650,0.156
30.655,0.151
30.660,0.115
30.665,0.141
30.670,0.158
30.675,0.116
30.680,0.121
30.685,0.150
30.690,0.100
30.695,0.049
30.700,0.064
30.705,0.043
30.710,-0.014
30.715,-0.017
30.720,-0.030
30.725,-0.096
30.730,-0.121
30.735,-0.111
30.740,-0.141
30.745,-0.155
30.750,-0.127
30.755,-0.161
30.760,-0.213
30.765,-0.182
30.770,-0.161
30.775,-0.194
30.780,-0.186
30.785,-0.158
30.790,-0.178
30.795,-0.181
30.800,-0.132
30.805,-0.133
30.810,-0.171
30.815,-0.137
30.820,-0.099
30.825,-0.129
30.830,-0.123
30.835,-0.072
30.840,-0.079
30.845,-0.094
30.850,-0.055
30.855,-0.041
30.860,-0.059
30.865,-0.028
30.870,0.000
30.875,-0.034
30.880,-0.028
30.885,0.017
30.890,-0.005
30.895,-0.022
30.900,0.026
30.905,0.033
30.910,-0.001
30.915,0.017
30.920,0.036
30.925,-0.008
30.930,-0.012
30.935,0.037
30.940,0.024
30.945,-0.001
30.950,0.025
30.955,0.010
30.960,-0.021
30.965,0.018
30.970,0.041
30.975,0.008
30.980,0.012
30.985,0.033
30.990,0.002
30.995,-0.011
31.000,0.029
31.005,0.025
31.010,0.002
31.015,0.032
31.020,0.033
31.025,-0.013
31.030,0.000
31.035,0.041
31.040,0.017
31.045,-0.004
31.050,0.033
31.055,0.035
31.060,0.003
31.065,0.022
31.070,0.039
31.075,0.012
31.080,0.026
31.085,0.055
31.090,0.018
31.095,0.006
31.100,0.062
31.105,0.081
31.110,0.068
31.115,0.105
31.120,0.124
31.125,0.082
31.130,0.087
31.135,0.126
31.140,0.090
31.145,0.056
31.150,0.100
31.155,0.115
31.160,0.083
31.165,0.102
31.170,0.113
31.175,0.056
31.180,0.033
31.185,0.040
31.190,0.000
31.195,-0.013
31.200,0.026
31.205,0.001
31.210,-0.064
31.215,-0.054
31.220,-0.040
31.225,-0.079
31.230,-0.070
31.235,-0.031
31.240,-0.059
31.245,-0.077
31.250,-0.035
31.255,-0.032
31.260,-0.052
31.265,0.015
31.270,0.127
31.275,0.245
31.280,0.534
31.285,1.062
31.290,1.545
31.295,1.581
31.300,0.971
31.305,0.037
31.310,-0.569
31.315,-0.653
31.320,-0.558
31.325,-0.469
31.330,-0.320
31.335,-0.203
31.340,-0.221
31.345,-0.246
31.350,-0.211
31.355,-0.211
31.360,-0.231
31.365,-0.191
31.370,-0.170
31.375,-0.203
31.380,-0.183
31.385,-0.131
31.390,-0.146
31.395,-0.153
31.400,-0.104
31.405,-0.105
31.410,-0.137
31.415,-0.106
31.420,-0.077
31.425,-0.105
31.430,-0.092
31.435,-0.048
31.440,-0.065
31.445,-0.077
31.450,-0.030
31.455,-0.024
31.460,-0.048
31.465,-0.009
31.470,0.017
31.475,-0.018
31.480,-0.010
31.485,0.039
31.490,0.029
31.495,0.019
31.500,0.067
31.505,0.073
31.510,0.048
31.515,0.087
31.520,0.122
31.525,0.097
31.530,0.109
31.535,0.150
31.540,0.126
31.545,0.105
31.550,0.150
31.555,0.157
31.560,0.122
31.565,0.142
31.570,0.152
31.575,0.099
31.580,0.089
31.585,0.112
31.590,0.066
31.595,0.019
31.600,0.028
31.605,0.005
31.610,-0.047
31.615,-0.046
31.620,-0.054
31.625,-0.118
31.630,-0.139
31.635,-0.122
31.640,-0.163
31.645,-0.200
31.650,-0.169
31.655,-0.176
31.660,-0.216
31.665,-0.191
31.670,-0.168
31.675,-0.201
31.680,-0.190
31.685,-0.146
31.690,-0.166
31.695,-0.184
31.700,-0.139
31.705,-0.129
31.710,-0.153
31.715,-0.118
31.720,-0.089
31.725,-0.118
31.730,-0.107
31.735,-0.064
31.740,-0.079
31.745,-0.092
31.750,-0.045
31.755,-0.034
31.760,-0.056
31.765,-0.027
31.770,-0.001
31.775,-0.027
31.780,-0.015
31.785,0.024
31.790,0.004
31.795,-0.012
31.800,0.028
31.805,0.027
31.810,-0.008
31.815,0.020
31.820,0.040
31.825,-0.003
31.830,0.002
31.835,0.043
31.840,0.017
31.845,-0.006
31.850,0.032
31.855,0.029
31.860,-0.007
31.865,0.016
31.870,0.037
31.875,0.002
31.880,0.006
31.885,0.038
31.890,0.011
31.895,-0.004
31.900,0.037
31.905,0.033
31.910,-0.003
31.915,0.022
31.920,0.040
31.925,0.002
31.930,0.006
31.935,0.041
31.940,0.019
31.945,0.003
31.950,0.040
31.955,0.038
31.960,0.006
31.965,0.029
31.970,0.050
31.975,0.015
31.980,0.018
31.985,0.052
31.990,0.025
31.995,0.007
32.000,0.055
32.005,0.074
32.010,0.061
32.015,0.101
32.020,0.127
32.025,0.082
32.030,0.084
32.035,0.130
32.040,0.097
32.045,0.051
32.050,0.081
32.055,0.100
32.060,0.081
32.065,0.102
32.070,0.120
32.075,0.068
32.080,0.036
32.085,0.047
32.090,0.014
32.095,-0.007
32.100,0.021
32.105,-0.001
32.110,-0.059
32.115,-0.054
32.120,-0.043
32.125,-0.083
32.130,-0.077
32.135,-0.030
32.140,-0.046
32.145,-0.064
32.150,-0.025
32.155,-0.027
32.160,-0.059
32.165,-0.011
32.170,0.086
32.175,0.188
32.180,0.421
32.185,0.859
32.190,1.348
32.195,1.612
32.200,1.282
32.205,0.352
32.210,-0.458
32.215,-0.669
32.220,-0.557
32.225,-0.447
32.230,-0.333
32.235,-0.224
32.240,-0.220
32.245,-0.243
32.250,-0.212
32.255,-0.213
32.260,-0.239
32.265,-0.205
32.270,-0.173
32.275,-0.197
32.280,-0.186
32.285,-0.142
32.290,-0.156
32.295,-0.167
32.300,-0.123
32.305,-0.119
32.310,-0.146
32.315,-0.116
32.320,-0.087
32.325,-0.110
32.330,-0.098
32.335,-0.054
32.340,-0.073
32.345,-0.090
32.350,-0.043
32.355,-0.034
32.360,-0.062
32.365,-0.028
32.370,0.004
32.375,-0.024
32.380,-0.012
32.385,0.035
32.390,0.016
32.395,0.001
32.400,0.051
32.405,0.063
32.410,0.040
32.415,0.078
32.420,0.110
32.425,0.085
32.430,0.099
32.435,0.143
32.440,0.124
32.445,0.104
32.450,0.142
32.455,0.141
32.460,0.107
32.465,0.132
32.470,0.152
32.475,0.110
32.480,0.103
32.485,0.128
32.490,0.085
32.495,0.034
32.500,0.045
32.505,0.024
32.510,-0.032
32.515,-0.034
32.520,-0.040
32.525,-0.098
32.530,-0.118
32.535,-0.106
32.540,-0.145
32.545,-0.177
32.550,-0.154
32.555,-0.167
32.560,-0.212
32.565,-0.194
32.570,-0.175
32.575,-0.207
32.580,-0.188
32.585,-0.139
32.590,-0.167
32.595,-0.193
32.600,-0.149
32.605,-0.138
32.610,-0.163
32.615,-0.123
32.620,-0.086
32.625,-0.118
32.630,-0.119
32.635,-0.081
32.640,-0.092
32.645,-0.101
32.650,-0.055
32.655,-0.046
32.660,-0.074
32.665,-0.044
32.670,-0.016
32.675,-0.036
32.680,-0.021
32.685,0.022
32.690,0.005
32.695,-0.018
32.700,0.013
32.705,0.015
32.710,-0.013
32.715,0.020
32.720,0.054
32.725,0.020
32.730,0.007
32.735,0.026
32.740,-0.003
32.745,-0.012
32.750,0.039
32.755,0.039
32.760,-0.003
32.765,0.018
32.770,0.040
32.775,0.006
32.780,0.003
32.785,0.033
32.790,0.014
32.795,-0.004
32.800,0.028
32.805,0.029
32.810,0.006
32.815,0.031
32.820,0.045
32.825,0.011
32.830,0.012
32.835,0.031
32.840,0.002
32.845,0.000
32.850,0.053
32.855,0.051
32.860,0.008
32.865,0.023
32.870,0.046
32.875,0.017
32.880,0.019
32.885,0.050
32.890,0.030
32.895,0.016
32.900,0.056
32.905,0.054
32.910,0.021
32.915,0.059
32.920,0.100
32.925,0.085
32.930,0.099
32.935,0.125
32.940,0.097
32.945,0.091
32.950,0.122
32.955,0.086
32.960,0.036
32.965,0.097
32.970,0.156
32.975,0.110
32.980,0.092
32.985,0.114
32.990,0.064
32.995,0.010
33.000,0.022
33.005,0.012
33.010,-0.025
33.015,-0.011
33.020,-0.009
33.025,-0.060
33.030,-0.068
33.035,-0.041
33.040,-0.064
33.045,-0.081
33.050,-0.039
33.055,-0.035
33.060,-0.072
33.065,-0.044
33.070,-0.011
33.075,-0.032
33.080,0.022
33.085,0.174
33.090,0.341
33.095,0.674
33.100,1.223
33.105,1.591
33.110,1.346
33.115,0.543
33.120,-0.266
33.125,-0.652
33.130,-0.638
33.135,-0.497
33.140,-0.387
33.145,-0.275
33.150,-0.194
33.155,-0.206
33.160,-0.238
33.165,-0.205
33.170,-0.181
33.175,-0.205
33.180,-0.187
33.185,-0.141
33.190,-0.154
33.195,-0.174
33.200,-0.134
33.205,-0.120
33.210,-0.149
33.215,-0.130
33.220,-0.109
33.225,-0.134
33.230,-0.114
33.235,-0.060
33.240,-0.078
33.245,-0.100
33.250,-0.054
33.255,-0.040
33.260,-0.063
33.265,-0.031
33.270,-0.004
33.275,-0.040
33.280,-0.039
33.285,0.008
33.290,-0.004
33.295,-0.016
33.300,0.038
33.305,0.050
33.310,0.016
33.315,0.047
33.320,0.087
33.325,0.070
33.330,0.082
33.335,0.125
33.340,0.116
33.345,0.102
33.350,0.136
33.355,0.149
33.360,0.123
33.365,0.138
33.370,0.166
33.375,0.141
33.380,0.125
33.385,0.134
33.390,0.102
33.395,0.089
33.400,0.114
33.405,0.076
33.410,0.016
33.415,0.033
33.420,0.032
33.425,-0.048
33.430,-0.084
33.435,-0.061
33.440,-0.099
33.445,-0.153
33.450,-0.137
33.455,-0.145
33.460,-0.195
33.465,-0.178
33.470,-0.153
33.475,-0.190
33.480,-0.190
33.485,-0.149
33.490,-0.166
33.495,-0.189
33.500,-0.153
33.505,-0.153
33.510,-0.189
33.515,-0.151
33.520,-0.103
33.525,-0.125
33.530,-0.130
33.535,-0.095
33.540,-0.105
33.545,-0.116
33.550,-0.065
33.555,-0.044
33.560,-0.069
33.565,-0.046
33.570,-0.026
33.575,-0.065
33.580,-0.057
33.585,0.005
33.590,0.005
33.595,-0.016
33.600,0.018
33.605,0.021
33.610,-0.011
33.615,0.018
33.620,0.032
33.625,-0.016
33.630,-0.009
33.635,0.036
33.640,0.019
33.645,-0.001
33.650,0.032
33.655,0.027
33.660,-0.007
33.665,0.017
33.670,0.024
33.675,-0.017
33.680,0.000
33.685,0.045
33.690,0.024
33.695,0.003
33.700,0.030
33.705,0.015
33.710,-0.022
33.715,0.009
33.720,0.040
33.725,0.004
33.730,-0.002
33.735,0.032
33.740,0.009
33.745,-0.005
33.750,0.044
33.755,0.043
33.760,-0.001
33.765,0.028
33.770,0.064
33.775,0.020
33.780,0.002
33.785,0.038
33.790,0.025
33.795,0.008
33.800,0.049
33.805,0.055
33.810,0.035
33.815,0.078
33.820,0.114
33.825,0.079
33.830,0.072
33.835,0.111
33.840,0.104
33.845,0.077
33.850,0.087
33.855,0.085
33.860,0.079
33.865,0.119
33.870,0.139
33.875,0.096
33.880,0.072
33.885,0.069
33.890,0.018
33.895,-0.008
33.900,0.030
33.905,0.025
33.910,-0.022
33.915,-0.026
33.920,-0.029
33.925,-0.071
33.930,-0.076
33.935,-0.045
33.940,-0.061
33.945,-0.072
33.950,-0.028
33.955,-0.024
33.960,-0.058
33.965,-0.030
33.970,0.026
33.975,0.069
33.980,0.196
33.985,0.475
33.990,0.901
33.995,1.419
34.000,1.688
34.005,1.238
34.010,0.273
34.015,-0.428
34.020,-0.619
34.025,-0.609
34.030,-0.510
34.035,-0.342
34.040,-0.262
34.045,-0.259
34.050,-0.217
34.055,-0.207
34.060,-0.240
34.065,-0.213
34.070,-0.181
34.075,-0.202
34.080,-0.189
34.085,-0.144
34.090,-0.162
34.095,-0.183
34.100,-0.136
34.105,-0.116
34.110,-0.142
34.115,-0.118
34.120,-0.091
34.125,-0.123
34.130,-0.119
34.135,-0.072
34.140,-0.078
34.145,-0.086
34.150,-0.037
34.155,-0.030
34.160,-0.062
34.165,-0.031
34.170,-0.003
34.175,-0.038
34.180,-0.031
34.185,0.019
34.190,0.010
34.195,0.000
34.200,0.052
34.205,0.068
34.210,0.040
34.215,0.065
34.220,0.100
34.225,0.078
34.230,0.086
34.235,0.129
34.240,0.119
34.245,0.107
34.250,0.148
34.255,0.156
34.260,0.125
34.265,0.146
34.270,0.166
34.275,0.117
34.280,0.097
34.285,0.123
34.290,0.093
34.295,0.056
34.300,0.070
34.305,0.046
34.310,-0.016
34.315,-0.021
34.320,-0.021
34.325,-0.082
34.330,-0.109
34.335,-0.099
34.340,-0.149
34.345,-0.194
34.350,-0.164
34.355,-0.160
34.360,-0.198
34.365,-0.182
34.370,-0.162
34.375,-0.198
34.380,-0.200
34.385,-0.158
34.390,-0.171
34.395,-0.192
34.400,-0.150
34.405,-0.137
34.410,-0.164
34.415,-0.136
34.420,-0.099
34.425,-0.124
34.430,-0.121
34.435,-0.075
34.440,-0.086
34.445,-0.101
34.450,-0.053
34.455,-0.041
34.460,-0.070
34.465,-0.043
34.470,-0.011
34.475,-0.036
34.480,-0.033
34.485,0.003
34.490,-0.005
34.495,-0.016
34.500,0.024
34.505,0.026
34.510,-0.011
34.515,0.016
34.520,0.044
34.525,0.008
34.530,0.005
34.535,0.039
34.540,0.018
34.545,-0.007
34.550,0.031
34.555,0.035
34.560,-0.003
34.565,0.017
34.570,0.042
34.575,0.002
34.580,-0.006
34.585,0.033
34.590,0.016
34.595,-0.011
34.600,0.025
34.605,0.030
34.610,-0.007
34.615,0.014
34.620,0.042
34.625,0.006
34.630,0.003
34.635,0.041
34.640,0.021
34.645,0.001
34.650,0.040
34.655,0.040
34.660,0.004
34.665,0.028
34.670,0.048
34.675,0.002
34.680,0.000
34.685,0.049
34.690,0.035
34.695,0.009
34.700,0.047
34.705,0.060
34.710,0.041
34.715,0.084
34.720,0.122
34.725,0.085
34.730,0.078
34.735,0.126
34.740,0.111
34.745,0.060
34.750,0.075
34.755,0.095
34.760,0.080
34.765,0.099
34.770,0.121
34.775,0.080
34.780,0.055
34.785,0.066
34.790,0.026
34.795,-0.007
34.800,0.027
34.805,0.016
34.810,-0.048
34.815,-0.050
34.820,-0.029
34.825,-0.067
34.830,-0.074
34.835,-0.038
34.840,-0.055
34.845,-0.071
34.850,-0.030
34.855,-0.029
34.860,-0.066
34.865,-0.032
34.870,0.046
34.875,0.122
34.880,0.298
34.885,0.663
34.890,1.147
34.895,1.571
34.900,1.555
34.905,0.811
34.910,-0.153
34.915,-0.617
34.920,-0.619
34.925,-0.519
34.930,-0.395
34.935,-0.261
34.940,-0.229
34.945,-0.247
34.950,-0.216
34.955,-0.214
34.960,-0.243
34.965,-0.210
34.970,-0.180
34.975,-0.208
34.980,-0.200
34.985,-0.150
34.990,-0.157
34.995,-0.171
35.000,-0.124
35.005,-0.111
35.010,-0.148
35.015,-0.129
35.020,-0.096
35.025,-0.118
35.030,-0.111
35.035,-0.065
35.040,-0.074
35.045,-0.092
35.050,-0.047
35.055,-0.030
35.060,-0.058
35.065,-0.028
35.070,0.009
35.075,-0.016
35.080,-0.019
35.085,0.023
35.090,0.017
35.095,0.000
35.100,0.045
35.105,0.059
35.110,0.032
35.115,0.065
35.120,0.104
35.125,0.079
35.130,0.084
35.135,0.128
35.140,0.118
35.145,0.100
35.150,0.136
35.155,0.143
35.160,0.111
35.165,0.130
35.170,0.147
35.175,0.104
35.180,0.096
35.185,0.123
35.190,0.086
35.195,0.039
35.200,0.050
35.205,0.029
35.210,-0.032
35.215,-0.038
35.220,-0.035
35.225,-0.090
35.230,-0.118
35.235,-0.103
35.240,-0.141
35.245,-0.181
35.250,-0.152
35.255,-0.154
35.260,-0.199
35.265,-0.184
35.270,-0.159
35.275,-0.192
35.280,-0.192
35.285,-0.152
35.290,-0.163
35.295,-0.178
35.300,-0.133
35.305,-0.122
35.310,-0.158
35.315,-0.129
35.320,-0.086
35.325,-0.112
35.330,-0.113
35.335,-0.068
35.340,-0.077
35.345,-0.095
35.350,-0.052
35.355,-0.035
35.360,-0.062
35.365,-0.040
35.370,-0.010
35.375,-0.034
35.380,-0.024
35.385,0.025
35.390,0.011
35.395,-0.012
35.400,0.022
35.405,0.023
35.410,-0.009
35.415,0.016
35.420,0.042
35.425,0.004
35.430,-0.001
35.435,0.041
35.440,0.023
35.445,-0.006
35.450,0.029
35.455,0.033
35.460,-0.006
35.465,0.012
35.470,0.037
35.475,0.002
35.480,-0.003
35.485,0.037
35.490,0.020
35.495,-0.011
35.500,0.025
35.505,0.034
35.510,-0.003
35.515,0.016
35.520,0.045
35.525,0.011
35.530,0.006
35.535,0.043
35.540,0.022
35.545,-0.004
35.550,0.032
35.555,0.037
35.560,-0.002
35.565,0.017
35.570,0.048
35.575,0.014
35.580,0.012
35.585,0.053
35.590,0.032
35.595,0.005
35.600,0.042
35.605,0.043
35.610,0.005
35.615,0.035
35.620,0.081
35.625,0.070
35.630,0.086
35.635,0.131
35.640,0.106
35.645,0.072
35.650,0.112
35.655,0.124
35.660,0.066
35.665,0.057
35.670,0.092
35.675,0.084
35.680,0.083
35.685,0.114
35.690,0.088
35.695,0.045
35.700,0.057
35.705,0.042
35.710,-0.002
35.715,0.010
35.720,0.020
35.725,-0.035
35.730,-0.058
35.735,-0.033
35.740,-0.059
35.745,-0.090
35.750,-0.051
35.755,-0.037
35.760,-0.071
35.765,-0.050
35.770,-0.019
35.775,-0.048
35.780,-0.045
35.785,0.033
35.790,0.113
35.795,0.254
35.800,0.588
35.805,1.069
35.810,1.513
35.815,1.587
35.820,0.939
35.825,-0.076
35.830,-0.660
35.835,-0.671
35.840,-0.508
35.845,-0.388
35.850,-0.276
35.855,-0.218
35.860,-0.243
35.865,-0.230
35.870,-0.199
35.875,-0.226
35.880,-0.221
35.885,-0.175
35.890,-0.187
35.895,-0.202
35.900,-0.157
35.905,-0.143
35.910,-0.170
35.915,-0.145
35.920,-0.113
35.925,-0.136
35.930,-0.131
35.935,-0.088
35.940,-0.098
35.945,-0.117
35.950,-0.078
35.955,-0.066
35.960,-0.091
35.965,-0.061
35.970,-0.028
35.975,-0.052
35.980,-0.048
35.985,-0.003
35.990,-0.015
35.995,-0.032
36.000,0.019
36.005,0.037
36.010,0.006
36.015,0.031
36.020,0.068
36.025,0.046
36.030,0.051
36.035,0.101
36.040,0.096
36.045,0.079
36.050,0.120
36.055,0.133
36.060,0.101
36.065,0.120
36.070,0.150
36.075,0.118
36.080,0.111
36.085,0.146
36.090,0.125
36.095,0.089
36.100,0.108
36.105,0.097
36.110,0.039
36.115,0.034
36.120,0.039
36.125,-0.016
36.130,-0.049
36.135,-0.037
36.140,-0.075
36.145,-0.121
36.150,-0.107
36.155,-0.119
36.160,-0.170
36.165,-0.160
36.170,-0.136
36.175,-0.175
36.180,-0.187
36.185,-0.149
36.190,-0.164
36.195,-0.191
36.200,-0.155
36.205,-0.142
36.210,-0.174
36.215,-0.148
36.220,-0.113
36.225,-0.142
36.230,-0.141
36.235,-0.096
36.240,-0.103
36.245,-0.117
36.250,-0.073
36.255,-0.058
36.260,-0.088
36.265,-0.059
36.270,-0.020
36.275,-0.046
36.280,-0.043
36.285,0.005
36.290,-0.002
36.295,-0.023
36.300,0.021
36.305,0.039
36.310,0.008
36.315,0.031
36.320,0.068
36.325,0.041
36.330,0.029
36.335,0.059
36.340,0.036
36.345,0.000
36.350,0.021
36.355,0.022
36.360,-0.018
36.365,-0.006
36.370,0.033
36.375,0.006
36.380,-0.016
36.385,0.021
36.390,0.008
36.395,-0.026
36.400,0.006
36.405,0.006
36.410,-0.048
36.415,-0.042
36.420,-0.019
36.425,-0.060
36.430,-0.073
36.435,-0.028
36.440,-0.025
36.445,-0.031
36.450,0.020
36.455,0.028
36.460,-0.026
36.465,-0.018
36.470,0.019
36.475,-0.002
36.480,-0.005
36.485,0.042
36.490,0.033
36.495,0.000
36.500,0.033
36.505,0.047
36.510,0.012
36.515,0.030
36.520,0.068
36.525,0.061
36.530,0.086
36.535,0.142
36.540,0.127
36.545,0.091
36.550,0.124
36.555,0.146
36.560,0.103
36.565,0.091
36.570,0.118
36.575,0.109
36.580,0.107
36.585,0.142
36.590,0.119
36.595,0.064
36.600,0.060
36.605,0.039
36.610,-0.012
36.615,0.005
36.620,0.030
36.625,-0.019
36.630,-0.052
36.635,-0.034
36.640,-0.057
36.645,-0.088
36.650,-0.055
36.655,-0.042
36.660,-0.075
36.665,-0.057
36.670,-0.023
36.675,-0.052
36.680,-0.048
36.685,0.030
36.690,0.100
36.695,0.212
36.700,0.502
36.705,0.957
36.710,1.398
36.715,1.517
36.720,0.990
36.725,0.061
36.730,-0.537
36.735,-0.625
36.740,-0.573
36.745,-0.484
36.750,-0.302
36.755,-0.198
36.760,-0.222
36.765,-0.207
36.770,-0.173
36.775,-0.202
36.780,-0.203
36.785,-0.153
36.790,-0.155
36.795,-0.174
36.800,-0.135
36.805,-0.119
36.810,-0.146
36.815,-0.124
36.820,-0.088
36.825,-0.110
36.830,-0.111
36.835,-0.071
36.840,-0.078
36.845,-0.097
36.850,-0.057
36.855,-0.039
36.860,-0.068
36.865,-0.046
36.870,-0.007
36.875,-0.031
36.880,-0.032
36.885,0.019
36.890,0.015
36.895,-0.009
36.900,0.028
36.905,0.046
36.910,0.018
36.915,0.046
36.920,0.088
36.925,0.062
36.930,0.059
36.935,0.108
36.940,0.106
36.945,0.085
36.950,0.127
36.955,0.150
36.960,0.120
36.965,0.133
36.970,0.162
36.975,0.127
36.980,0.109
36.985,0.142
36.990,0.126
36.995,0.089
37.000,0.111
37.005,0.105
37.010,0.047
37.015,0.036
37.020,0.040
37.025,-0.012
37.030,-0.042
37.035,-0.028
37.040,-0.068
37.045,-0.119
37.050,-0.107
37.055,-0.114
37.060,-0.159
37.065,-0.152
37.070,-0.134
37.075,-0.183
37.080,-0.205
37.085,-0.167
37.090,-0.177
37.095,-0.207
37.100,-0.172
37.105,-0.151
37.110,-0.179
37.115,-0.162
37.120,-0.126
37.125,-0.147
37.130,-0.147
37.135,-0.097
37.140,-0.100
37.145,-0.123
37.150,-0.086
37.155,-0.068
37.160,-0.096
37.165,-0.070
37.170,-0.029
37.175,-0.049
37.180,-0.048
37.185,0.000
37.190,-0.005
37.195,-0.030
37.200,0.003
37.205,0.016
37.210,-0.015
37.215,0.000
37.220,0.029
37.225,-0.001
37.230,-0.007
37.235,0.033
37.240,0.021
37.245,-0.007
37.250,0.021
37.255,0.024
37.260,-0.016
37.265,-0.002
37.270,0.027
37.275,-0.007
37.280,-0.018
37.285,0.022
37.290,0.010
37.295,-0.019
37.300,0.013
37.305,0.023
37.310,-0.015
37.315,-0.001
37.320,0.031
37.325,-0.001
37.330,-0.012
37.335,0.026
37.340,0.012
37.345,-0.014
37.350,0.021
37.355,0.031
37.360,-0.008
37.365,0.008
37.370,0.050
37.375,0.041
37.380,0.056
37.385,0.113
37.390,0.105
37.395,0.066
37.400,0.090
37.405,0.113
37.410,0.081
37.415,0.070
37.420,0.082
37.425,0.068
37.430,0.078
37.435,0.116
37.440,0.102
37.445,0.064
37.450,0.068
37.455,0.047
37.460,-0.012
37.465,-0.001
37.470,0.030
37.475,-0.012
37.480,-0.045
37.485,-0.028
37.490,-0.049
37.495,-0.085
37.500,-0.060
37.505,-0.048
37.510,-0.081
37.515,-0.065
37.520,-0.030
37.525,-0.055
37.530,-0.058
37.535,-0.003
37.540,0.035
37.545,0.110
37.550,0.317
37.555,0.643
37.560,1.079
37.565,1.517
37.570,1.493
37.575,0.717
37.580,-0.212
37.585,-0.635
37.590,-0.646
37.595,-0.516
37.600,-0.351
37.605,-0.247
37.610,-0.224
37.615,-0.195
37.620,-0.166
37.625,-0.195
37.630,-0.205
37.635,-0.164
37.640,-0.167
37.645,-0.181
37.650,-0.136
37.655,-0.123
37.660,-0.167
37.665,-0.153
37.670,-0.105
37.675,-0.122
37.680,-0.135
37.685,-0.092
37.690,-0.088
37.695,-0.109
37.700,-0.078
37.705,-0.064
37.710,-0.094
37.715,-0.074
37.720,-0.031
37.725,-0.047
37.730,-0.045
37.735,0.007
37.740,-0.003
37.745,-0.040
37.750,0.002
37.755,0.037
37.760,0.012
37.765,0.028
37.770,0.068
37.775,0.054
37.780,0.055
37.785,0.107
37.790,0.111
37.795,0.085
37.800,0.117
37.805,0.138
37.810,0.111
37.815,0.124
37.820,0.149
37.825,0.118
37.830,0.113
37.835,0.154
37.840,0.137
37.845,0.100
37.850,0.127
37.855,0.130
37.860,0.072
37.865,0.059
37.870,0.064
37.875,0.004
37.880,-0.036
37.885,-0.019
37.890,-0.044
37.895,-0.101
37.900,-0.103
37.905,-0.107
37.910,-0.156
37.915,-0.158
37.920,-0.139
37.925,-0.176
37.930,-0.190
37.935,-0.157
37.940,-0.171
37.945,-0.193
37.950,-0.152
37.955,-0.136
37.960,-0.170
37.965,-0.156
37.970,-0.119
37.975,-0.131
37.980,-0.131
37.985,-0.097
37.990,-0.108
37.995,-0.128
38.000,-0.084
38.005,-0.060
38.010,-0.090
38.015,-0.066
38.020,-0.022
38.025,-0.049
38.030,-0.058
38.035,-0.013
38.040,-0.013
38.045,-0.036
38.050,-0.008
38.055,-0.003
38.060,-0.033
38.065,-0.004
38.070,0.037
38.075,0.000
38.080,-0.018
38.085,0.030
38.090,0.032
38.095,-0.003
38.100,0.014
38.105,0.028
38.110,0.004
38.115,0.022
38.120,0.041
38.125,-0.003
38.130,-0.007
38.135,0.047
38.140,0.031
38.145,-0.013
38.150,0.026
38.155,0.048
38.160,-0.002
38.165,-0.003
38.170,0.037
38.175,0.014
38.180,-0.002
38.185,0.035
38.190,0.023
38.195,-0.005
38.200,0.033
38.205,0.043
38.210,0.016
38.215,0.062
38.220,0.116
38.225,0.086
38.230,0.070
38.235,0.109
38.240,0.105
38.245,0.071
38.250,0.080
38.255,0.080
38.260,0.056
38.265,0.087
38.270,0.131
38.275,0.108
38.280,0.081
38.285,0.088
38.290,0.044
38.295,-0.017
38.300,-0.002
38.305,0.019
38.310,-0.023
38.315,-0.054
38.320,-0.052
38.325,-0.078
38.330,-0.092
38.335,-0.053
38.340,-0.057
38.345,-0.091
38.350,-0.048
38.355,-0.019
38.360,-0.069
38.365,-0.063
38.370,-0.002
38.375,0.020
38.380,0.099
38.385,0.304
38.390,0.617
38.395,1.087
38.400,1.546
38.405,1.476
38.410,0.688
38.415,-0.179
38.420,-0.563
38.425,-0.615
38.430,-0.551
38.435,-0.388
38.440,-0.255
38.445,-0.225
38.450,-0.196
38.455,-0.184
38.460,-0.221
38.465,-0.213
38.470,-0.171
38.475,-0.185
38.480,-0.188
38.485,-0.139
38.490,-0.135
38.495,-0.157
38.500,-0.131
38.505,-0.112
38.510,-0.134
38.515,-0.109
38.520,-0.062
38.525,-0.086
38.530,-0.098
38.535,-0.044
38.540,-0.056
38.545,-0.105
38.550,-0.068
38.555,-0.032
38.560,-0.053
38.565,-0.028
38.570,0.012
38.575,-0.016
38.580,-0.027
38.585,0.023
38.590,0.031
38.595,0.019
38.600,0.060
38.605,0.071
38.610,0.037
38.615,0.065
38.620,0.110
38.625,0.092
38.630,0.094
38.635,0.141
38.640,0.137
38.645,0.113
38.650,0.154
38.655,0.173
38.660,0.131
38.665,0.136
38.670,0.170
38.675,0.140
38.680,0.114
38.685,0.138
38.690,0.119
38.695,0.064
38.700,0.063
38.705,0.059
38.710,0.009
38.715,0.004
38.720,0.014
38.725,-0.053
38.730,-0.106
38.735,-0.091
38.740,-0.113
38.745,-0.157
38.750,-0.141
38.755,-0.145
38.760,-0.199
38.765,-0.194
38.770,-0.159
38.775,-0.184
38.780,-0.194
38.785,-0.150
38.790,-0.154
38.795,-0.179
38.800,-0.141
38.805,-0.124
38.810,-0.158
38.815,-0.136
38.820,-0.092
38.825,-0.112
38.830,-0.116
38.835,-0.067
38.840,-0.067
38.845,-0.092
38.850,-0.053
38.855,-0.027
38.860,-0.059
38.865,-0.044
38.870,0.003
38.875,-0.017
38.880,-0.033
38.885,0.007
38.890,0.006
38.895,-0.019
38.900,0.015
38.905,0.033
38.910,-0.005
38.915,-0.001
38.920,0.031
38.925,0.004
38.930,-0.010
38.935,0.032
38.940,0.024
38.945,-0.016
38.950,0.005
38.955,0.019
38.960,-0.016
38.965,-0.004
38.970,0.038
38.975,0.012
38.980,-0.011
38.985,0.023
38.990,0.018
38.995,-0.012
39.000,0.016
39.005,0.030
39.010,-0.008
39.015,0.005
39.020,0.041
39.025,0.008
39.030,-0.012
39.035,0.027
39.040,0.023
39.045,-0.004
39.050,0.035
39.055,0.070
39.060,0.062
39.065,0.087
39.070,0.118
39.075,0.082
39.080,0.063
39.085,0.108
39.090,0.106
39.095,0.058
39.100,0.065
39.105,0.095
39.110,0.084
39.115,0.098
39.120,0.136
39.125,0.094
39.130,0.039
39.135,0.043
39.140,0.016
39.145,-0.021
39.150,0.008
39.155,0.021
39.160,-0.037
39.165,-0.059
39.170,-0.039
39.175,-0.071
39.180,-0.085
39.185,-0.038
39.190,-0.043
39.195,-0.075
39.200,-0.043
39.205,-0.023
39.210,-0.055
39.215,-0.030
39.220,0.063
39.225,0.156
39.230,0.340
39.235,0.750
39.240,1.261
39.245,1.592
39.250,1.401
39.255,0.568
39.260,-0.323
39.265,-0.665
39.270,-0.601
39.275,-0.501
39.280,-0.391
39.285,-0.244
39.290,-0.204
39.295,-0.237
39.300,-0.210
39.305,-0.189
39.310,-0.221
39.315,-0.207
39.320,-0.163
39.325,-0.181
39.330,-0.190
39.335,-0.142
39.340,-0.138
39.345,-0.163
39.350,-0.128
39.355,-0.104
39.360,-0.130
39.365,-0.115
39.370,-0.075
39.375,-0.094
39.380,-0.102
39.385,-0.055
39.390,-0.052
39.395,-0.074
39.400,-0.035
39.405,-0.012
39.410,-0.048
39.415,-0.035
39.420,0.011
39.425,-0.005
39.430,-0.016
39.435,0.033
39.440,0.039
39.445,0.015
39.450,0.051
39.455,0.080
39.460,0.052
39.465,0.065
39.470,0.108
39.475,0.092
39.480,0.084
39.485,0.130
39.490,0.131
39.495,0.098
39.500,0.128
39.505,0.148
39.510,0.108
39.515,0.109
39.520,0.144
39.525,0.117
39.530,0.088
39.535,0.105
39.540,0.080
39.545,0.029
39.550,0.036
39.555,0.031
39.560,-0.030
39.565,-0.047
39.570,-0.035
39.575,-0.084
39.580,-0.122
39.585,-0.104
39.590,-0.125
39.595,-0.174
39.600,-0.158
39.605,-0.143
39.610,-0.182
39.615,-0.177
39.620,-0.140
39.625,-0.167
39.630,-0.179
39.635,-0.133
39.640,-0.132
39.645,-0.161
39.650,-0.127
39.655,-0.097
39.660,-0.123
39.665,-0.113
39.670,-0.072
39.675,-0.090
39.680,-0.104
39.685,-0.058
39.690,-0.052
39.695,-0.075
39.700,-0.038
39.705,-0.010
39.710,-0.041
39.715,-0.032
39.720,0.011
39.725,-0.009
39.730,-0.026
39.735,0.016
39.740,0.014
39.745,-0.021
39.750,0.007
39.755,0.028
39.760,-0.008
39.765,-0.003
39.770,0.034
39.775,0.011
39.780,-0.011
39.785,0.022
39.790,0.017
39.795,-0.016
39.800,0.013
39.805,0.034
39.810,-0.005
39.815,-0.007
39.820,0.022
39.825,-0.001
39.830,-0.017
39.835,0.021
39.840,0.018
39.845,-0.017
39.850,0.008
39.855,0.024
39.860,-0.015
39.865,-0.006
39.870,0.035
39.875,0.009
39.880,-0.011
39.885,0.031
39.890,0.032
39.895,-0.002
39.900,0.024
39.905,0.046
39.910,0.018
39.915,0.047
39.920,0.109
39.925,0.092
39.930,0.070
39.935,0.101
39.940,0.098
39.945,0.072
39.950,0.090
39.955,0.085
39.960,0.043
39.965,0.069
39.970,0.116
39.975,0.088
39.980,0.065
39.985,0.085
39.990,0.049
39.995,-0.009
40.000,0.014
40.005,0.037
40.010,-0.016
40.015,-0.037
40.020,-0.020
40.025,-0.058
40.030,-0.084
40.035,-0.049
40.040,-0.052
40.045,-0.083
40.050,-0.057
40.055,-0.034
40.060,-0.063
40.065,-0.055
40.070,-0.014
40.075,-0.016
40.080,0.035
40.085,0.206
40.090,0.432
40.095,0.785
40.100,1.308
40.105,1.640
40.110,1.285
40.115,0.353
40.120,-0.449
40.125,-0.748
40.130,-0.651
40.135,-0.415
40.140,-0.299
40.145,-0.268
40.150,-0.204
40.155,-0.182
40.160,-0.222
40.165,-0.215
40.170,-0.173
40.175,-0.192
40.180,-0.207
40.185,-0.157
40.190,-0.146
40.195,-0.176
40.200,-0.142
40.205,-0.106
40.210,-0.134
40.215,-0.125
40.220,-0.081
40.225,-0.098
40.230,-0.110
40.235,-0.064
40.240,-0.058
40.245,-0.086
40.250,-0.055
40.255,-0.028
40.260,-0.055
40.265,-0.044
40.270,-0.002
40.275,-0.017
40.280,-0.028
40.285,0.017
40.290,0.020
40.295,-0.006
40.300,0.030
40.305,0.062
40.310,0.036
40.315,0.045
40.320,0.089
40.325,0.076
40.330,0.065
40.335,0.113
40.340,0.124
40.345,0.099
40.350,0.127
40.355,0.149
40.360,0.111
40.365,0.111
40.370,0.144
40.375,0.119
40.380,0.095
40.385,0.122
40.390,0.108
40.395,0.062
40.400,0.071
40.405,0.070
40.410,0.012
40.415,-0.009
40.420,0.001
40.425,-0.045
40.430,-0.085
40.435,-0.069
40.440,-0.091
40.445,-0.141
40.450,-0.130
40.455,-0.126
40.460,-0.175
40.465,-0.175
40.470,-0.140
40.475,-0.168
40.480,-0.185
40.485,-0.140
40.490,-0.135
40.495,-0.165
40.500,-0.134
40.505,-0.106
40.510,-0.139
40.515,-0.132
40.520,-0.087
40.525,-0.104
40.530,-0.117
40.535,-0.070
40.540,-0.063
40.545,-0.091
40.550,-0.061
40.555,-0.032
40.560,-0.061
40.565,-0.054
40.570,-0.010
40.575,-0.026
40.580,-0.041
40.585,0.001
40.590,0.004
40.595,-0.027
40.600,0.000
40.605,0.024
40.610,-0.011
40.615,-0.009
40.620,0.030
40.625,0.009
40.630,-0.012
40.635,0.025
40.640,0.024
40.645,-0.013
40.650,0.008
40.655,0.030
40.660,-0.005
40.665,-0.008
40.670,0.027
40.675,0.010
40.680,-0.007
40.685,0.027
40.690,0.021
40.695,-0.016
40.700,0.014
40.705,0.039
40.710,0.000
40.715,0.001
40.720,0.041
40.725,0.019
40.730,-0.006
40.735,0.032
40.740,0.034
40.745,0.000
40.750,0.022
40.755,0.041
40.760,0.004
40.765,0.009
40.770,0.051
40.775,0.033
40.780,0.018
40.785,0.076
40.790,0.104
40.795,0.081
40.800,0.103
40.805,0.118
40.810,0.083
40.815,0.098
40.820,0.130
40.825,0.080
40.830,0.043
40.835,0.093
40.840,0.109
40.845,0.074
40.850,0.095
40.855,0.104
40.860,0.035
40.865,0.006
40.870,0.034
40.875,0.020
40.880,-0.011
40.885,0.002
40.890,-0.021
40.895,-0.078
40.900,-0.062
40.905,-0.038
40.910,-0.075
40.915,-0.072
40.920,-0.032
40.925,-0.051
40.930,-0.066
40.935,-0.025
40.940,-0.020
40.945,-0.044
40.950,0.027
40.955,0.154
40.960,0.295
40.965,0.609
40.970,1.119
40.975,1.523
40.980,1.427
40.985,0.675
40.990,-0.265
40.995,-0.757
41.000,-0.706
41.005,-0.475
41.010,-0.361
41.015,-0.280
41.020,-0.180
41.025,-0.185
41.030,-0.215
41.035,-0.177
41.040,-0.171
41.045,-0.204
41.050,-0.174
41.055,-0.134
41.060,-0.155
41.065,-0.147
41.070,-0.100
41.075,-0.117
41.080,-0.139
41.085,-0.097
41.090,-0.089
41.095,-0.121
41.100,-0.094
41.105,-0.064
41.110,-0.091
41.115,-0.082
41.120,-0.035
41.125,-0.044
41.130,-0.061
41.135,-0.021
41.140,-0.013
41.145,-0.042
41.150,-0.009
41.155,0.027
41.160,-0.001
41.165,0.005
41.170,0.048
41.175,0.035
41.180,0.024
41.185,0.073
41.190,0.084
41.195,0.048
41.200,0.076
41.205,0.116
41.210,0.092
41.215,0.097
41.220,0.139
41.225,0.117
41.230,0.094
41.235,0.137
41.240,0.144
41.245,0.104
41.250,0.118
41.255,0.134
41.260,0.086
41.265,0.069
41.270,0.093
41.275,0.061
41.280,0.019
41.285,0.030
41.290,0.005
41.295,-0.057
41.300,-0.057
41.305,-0.053
41.310,-0.103
41.315,-0.118
41.320,-0.096
41.325,-0.131
41.330,-0.166
41.335,-0.139
41.340,-0.145
41.345,-0.183
41.350,-0.157
41.355,-0.128
41.360,-0.162
41.365,-0.163
41.370,-0.124
41.375,-0.138
41.380,-0.153
41.385,-0.105
41.390,-0.092
41.395,-0.126
41.400,-0.102
41.405,-0.069
41.410,-0.098
41.415,-0.097
41.420,-0.044
41.425,-0.040
41.430,-0.060
41.435,-0.033
41.440,-0.027
41.445,-0.047
41.450,-0.021
41.455,-0.002
41.460,-0.031
41.465,-0.020
41.470,0.020
41.475,-0.009
41.480,-0.035
41.485,0.014
41.490,0.024
41.495,-0.012
41.500,0.014
41.505,0.038
41.510,-0.003
41.515,-0.012
41.520,0.021
41.525,0.005
41.530,-0.019
41.535,0.012
41.540,0.016
41.545,-0.014
41.550,0.012
41.555,0.042
41.560,0.003
41.565,-0.013
41.570,0.021
41.575,0.011
41.580,-0.010
41.585,0.030
41.590,0.041
41.595,-0.002
41.600,0.005
41.605,0.026
41.610,-0.004
41.615,0.000
41.620,0.043
41.625,0.024
41.630,-0.009
41.635,0.025
41.640,0.033
41.645,0.003
41.650,0.042
41.655,0.092
41.660,0.075
41.665,0.083
41.670,0.110
41.675,0.076
41.680,0.054
41.685,0.098
41.690,0.101
41.695,0.062
41.700,0.091
41.705,0.129
41.710,0.101
41.715,0.092
41.720,0.102
41.725,0.049
41.730,0.002
41.735,0.022
41.740,0.015
41.745,-0.033
41.750,-0.024
41.755,-0.013
41.760,-0.070
41.765,-0.087
41.770,-0.049
41.775,-0.057
41.780,-0.082
41.785,-0.061
41.790,-0.058
41.795,-0.091
41.800,-0.066
41.805,-0.028
41.810,-0.053
41.815,-0.023
41.820,0.108
41.825,0.232
41.830,0.454
41.835,0.937
41.840,1.436
41.845,1.473
41.850,0.857
41.855,-0.028
41.860,-0.595
41.865,-0.686
41.870,-0.556
41.875,-0.432
41.880,-0.313
41.885,-0.190
41.890,-0.157
41.895,-0.196
41.900,-0.191
41.905,-0.168
41.910,-0.194
41.915,-0.190
41.920,-0.127
41.925,-0.120
41.930,-0.151
41.935,-0.133
41.940,-0.128
41.945,-0.150
41.950,-0.117
41.955,-0.072
41.960,-0.088
41.965,-0.083
41.970,-0.039
41.975,-0.063
41.980,-0.096
41.985,-0.053
41.990,-0.035
41.995,-0.060
42.000,-0.031
42.005,0.006
42.010,-0.013
42.015,-0.013
42.020,0.024
42.025,0.010
42.030,-0.018
42.035,0.027
42.040,0.062
42.045,0.042
42.050,0.067
42.055,0.104
42.060,0.075
42.065,0.072
42.070,0.114
42.075,0.104
42.080,0.098
42.085,0.148
42.090,0.145
42.095,0.099
42.100,0.128
42.105,0.173
42.110,0.134
42.115,0.105
42.120,0.136
42.125,0.118
42.130,0.073
42.135,0.089
42.140,0.091
42.145,0.039
42.150,0.018
42.155,0.016
42.160,-0.030
42.165,-0.055
42.170,-0.034
42.175,-0.071
42.180,-0.137
42.185,-0.133
42.190,-0.131
42.195,-0.172
42.200,-0.156
42.205,-0.133
42.210,-0.180
42.215,-0.189
42.220,-0.139
42.225,-0.145
42.230,-0.165
42.235,-0.138
42.240,-0.138
42.245,-0.158
42.250,-0.129
42.255,-0.108
42.260,-0.135
42.265,-0.119
42.270,-0.064
42.275,-0.075
42.280,-0.100
42.285,-0.047
42.290,-0.020
42.295,-0.056
42.300,-0.042
42.305,-0.007
42.310,-0.039
42.315,-0.045
42.320,0.012
42.325,0.010
42.330,-0.032
42.335,0.001
42.340,0.032
42.345,-0.004
42.350,0.003
42.355,0.041
42.360,0.005
42.365,-0.021
42.370,0.013
42.375,0.003
42.380,-0.023
42.385,0.011
42.390,0.015
42.395,-0.026
42.400,0.000
42.405,0.034
42.410,0.001
42.415,0.000
42.420,0.039
42.425,0.016
42.430,-0.025
42.435,0.005
42.440,0.017
42.445,-0.020
42.450,-0.001
42.455,0.034
42.460,0.007
42.465,0.003
42.470,0.041
42.475,0.027
42.480,-0.007
42.485,0.013
42.490,0.020
42.495,-0.001
42.500,0.034
42.505,0.061
42.510,0.019
42.515,0.036
42.520,0.109
42.525,0.097
42.530,0.056
42.535,0.084
42.540,0.103
42.545,0.082
42.550,0.090
42.555,0.092
42.560,0.055
42.565,0.076
42.570,0.136
42.575,0.122
42.580,0.087
42.585,0.088
42.590,0.057
42.595,-0.002
42.600,0.000
42.605,0.028
42.610,-0.003
42.615,-0.030
42.620,-0.022
42.625,-0.056
42.630,-0.090
42.635,-0.056
42.640,-0.043
42.645,-0.078
42.650,-0.067
42.655,-0.040
42.660,-0.064
42.665,-0.061
42.670,-0.014
42.675,-0.007
42.680,0.024
42.685,0.163
42.690,0.376
42.695,0.737
42.700,1.298
42.705,1.679
42.710,1.357
42.715,0.444
42.720,-0.347
42.725,-0.659
42.730,-0.655
42.735,-0.516
42.740,-0.367
42.745,-0.281
42.750,-0.223
42.755,-0.191
42.760,-0.224
42.765,-0.231
42.770,-0.182
42.775,-0.185
42.780,-0.203
42.785,-0.160
42.790,-0.144
42.795,-0.175
42.800,-0.152
42.805,-0.113
42.810,-0.139
42.815,-0.139
42.820,-0.088
42.825,-0.088
42.830,-0.106
42.835,-0.068
42.840,-0.058
42.845,-0.092
42.850,-0.068
42.855,-0.024
42.860,-0.046
42.865,-0.051
42.870,-0.003
42.875,-0.002
42.880,-0.023
42.885,0.007
42.890,0.018
42.895,-0.006
42.900,0.024
42.905,0.062
42.910,0.038
42.915,0.041
42.920,0.090
42.925,0.087
42.930,0.075
42.935,0.120
42.940,0.133
42.945,0.097
42.950,0.115
42.955,0.148
42.960,0.117
42.965,0.111
42.970,0.150
42.975,0.131
42.980,0.100
42.985,0.129
42.990,0.126
42.995,0.072
43.000,0.071
43.005,0.075
43.010,0.015
43.015,-0.017
43.020,-0.001
43.025,-0.036
43.030,-0.086
43.035,-0.074
43.040,-0.080
43.045,-0.133
43.050,-0.140
43.055,-0.131
43.060,-0.171
43.065,-0.179
43.070,-0.142
43.075,-0.159
43.080,-0.191
43.085,-0.161
43.090,-0.148
43.095,-0.178
43.100,-0.153
43.105,-0.113
43.110,-0.138
43.115,-0.138
43.120,-0.091
43.125,-0.095
43.130,-0.112
43.135,-0.068
43.140,-0.052
43.145,-0.086
43.150,-0.067
43.155,-0.034
43.160,-0.057
43.165,-0.052
43.170,-0.003
43.175,-0.011
43.180,-0.036
43.185,-0.002
43.190,0.010
43.195,-0.024
43.200,-0.003
43.205,0.030
43.210,0.001
43.215,-0.002
43.220,0.035
43.225,0.015
43.230,-0.016
43.235,0.017
43.240,0.024
43.245,-0.016
43.250,-0.003
43.255,0.027
43.260,-0.007
43.265,-0.017
43.270,0.026
43.275,0.016
43.280,-0.016
43.285,0.015
43.290,0.029
43.295,-0.009
43.300,0.004
43.305,0.036
43.310,0.003
43.315,-0.009
43.320,0.027
43.325,0.014
43.330,-0.014
43.335,0.023
43.340,0.038
43.345,-0.001
43.350,0.012
43.355,0.043
43.360,0.013
43.365,0.004
43.370,0.040
43.375,0.023
43.380,-0.009
43.385,0.023
43.390,0.039
43.395,0.016
43.400,0.056
43.405,0.110
43.410,0.086
43.415,0.076
43.420,0.114
43.425,0.105
43.430,0.086
43.435,0.107
43.440,0.087
43.445,0.044
43.450,0.084
43.455,0.129
43.460,0.092
43.465,0.073
43.470,0.093
43.475,0.055
43.480,-0.001
43.485,0.020
43.490,0.037
43.495,-0.006
43.500,-0.017
43.505,-0.012
43.510,-0.064
43.515,-0.085
43.520,-0.051
43.525,-0.063
43.530,-0.086
43.535,-0.049
43.540,-0.037
43.545,-0.072
43.550,-0.052
43.555,-0.012
43.560,-0.029
43.565,0.013
43.570,0.169
43.575,0.351
43.580,0.666
43.585,1.190
43.590,1.588
43.595,1.396
43.600,0.586
43.605,-0.272
43.610,-0.684
43.615,-0.654
43.620,-0.456
43.625,-0.337
43.630,-0.282
43.635,-0.211
43.640,-0.197
43.645,-0.237
43.650,-0.224
43.655,-0.184
43.660,-0.204
43.665,-0.207
43.670,-0.163
43.675,-0.168
43.680,-0.187
43.685,-0.140
43.690,-0.116
43.695,-0.148
43.700,-0.130
43.705,-0.092
43.710,-0.114
43.715,-0.116
43.720,-0.070
43.725,-0.074
43.730,-0.097
43.735,-0.059
43.740,-0.040
43.745,-0.071
43.750,-0.051
43.755,-0.009
43.760,-0.031
43.765,-0.035
43.770,0.014
43.775,0.013
43.780,-0.009
43.785,0.032
43.790,0.054
43.795,0.023
43.800,0.043
43.805,0.085
43.810,0.065
43.815,0.064
43.820,0.116
43.825,0.115
43.830,0.085
43.835,0.119
43.840,0.139
43.845,0.105
43.850,0.118
43.855,0.148
43.860,0.113
43.865,0.097
43.870,0.129
43.875,0.106
43.880,0.059
43.885,0.073
43.890,0.071
43.895,0.012
43.900,-0.002
43.905,0.010
43.910,-0.040
43.915,-0.073
43.920,-0.055
43.925,-0.089
43.930,-0.138
43.935,-0.120
43.940,-0.121
43.945,-0.171
43.950,-0.167
43.955,-0.141
43.960,-0.170
43.965,-0.180
43.970,-0.141
43.975,-0.150
43.980,-0.178
43.985,-0.138
43.990,-0.117
43.995,-0.152
44.000,-0.133
44.005,-0.092
44.010,-0.112
44.015,-0.113
44.020,-0.067
44.025,-0.071
44.030,-0.092
44.035,-0.051
44.040,-0.028
44.045,-0.058
44.050,-0.043
44.055,-0.008
44.060,-0.032
44.065,-0.040
44.070,0.004
44.075,0.001
44.080,-0.024
44.085,0.013
44.090,0.030
44.095,-0.010
44.100,0.000
44.105,0.034
44.110,0.007
44.115,-0.006
44.120,0.031
44.125,0.020
44.130,-0.015
44.135,0.015
44.140,0.032
44.145,-0.006
44.150,0.000
44.155,0.028
44.160,-0.002
44.165,-0.014
44.170,0.025
44.175,0.013
44.180,-0.019
44.185,0.014
44.190,0.032
44.195,-0.006
44.200,0.002
44.205,0.031
44.210,-0.001
44.215,-0.013
44.220,0.029
44.225,0.024
44.230,-0.004
44.235,0.028
44.240,0.043
44.245,0.004
44.250,0.013
44.255,0.044
44.260,0.013
44.265,-0.001
44.270,0.038
44.275,0.029
44.280,0.000
44.285,0.033
44.290,0.047
44.295,0.008
44.300,0.019
44.305,0.054
44.310,0.030
44.315,0.035
44.320,0.103
44.325,0.110
44.330,0.080
44.335,0.109
44.340,0.117
44.345,0.082
44.350,0.099
44.355,0.112
44.360,0.054
44.365,0.044
44.370,0.108
44.375,0.108
44.380,0.073
44.385,0.091
44.390,0.080
44.395,0.015
44.400,0.006
44.405,0.035
44.410,0.006
44.415,-0.025
44.420,-0.015
44.425,-0.046
44.430,-0.086
44.435,-0.065
44.440,-0.057
44.445,-0.090
44.450,-0.069
44.455,-0.031
44.460,-0.059
44.465,-0.071
44.470,-0.028
44.475,-0.030
44.480,-0.038
44.485,0.064
44.490,0.212
44.495,0.402
44.500,0.807
44.505,1.342
44.510,1.593
44.515,1.201
44.520,0.288
44.525,-0.507
44.530,-0.762
44.535,-0.602
44.540,-0.403
44.545,-0.336
44.550,-0.261
44.555,-0.189
44.560,-0.215
44.565,-0.230
44.570,-0.185
44.575,-0.185
44.580,-0.209
44.585,-0.174
44.590,-0.150
44.595,-0.178
44.600,-0.161
44.605,-0.120
44.610,-0.138
44.615,-0.143
44.620,-0.096
44.625,-0.097
44.630,-0.123
44.635,-0.087
44.640,-0.064
44.645,-0.098
44.650,-0.083
44.655,-0.038
44.660,-0.056
44.665,-0.064
44.670,-0.018
44.675,-0.016
44.680,-0.042
44.685,-0.005
44.690,0.021
44.695,-0.010
44.700,0.003
44.705,0.047
44.710,0.032
44.715,0.029
44.720,0.078
44.725,0.081
44.730,0.059
44.735,0.096
44.740,0.119
44.745,0.085
44.750,0.099
44.755,0.142
44.760,0.119
44.765,0.103
44.770,0.140
44.775,0.129
44.780,0.091
44.785,0.116
44.790,0.127
44.795,0.077
44.800,0.071
44.805,0.090
44.810,0.042
44.815,0.003
44.820,0.019
44.825,-0.006
44.830,-0.059
44.835,-0.055
44.840,-0.059
44.845,-0.114
44.850,-0.125
44.855,-0.108
44.860,-0.148
44.865,-0.171
44.870,-0.137
44.875,-0.146
44.880,-0.180
44.885,-0.152
44.890,-0.134
44.895,-0.168
44.900,-0.152
44.905,-0.110
44.910,-0.134
44.915,-0.145
44.920,-0.101
44.925,-0.104
44.930,-0.128
44.935,-0.088
44.940,-0.065
44.945,-0.095
44.950,-0.077
44.955,-0.034
44.960,-0.054
44.965,-0.066
44.970,-0.023
44.975,-0.025
44.980,-0.053
44.985,-0.018
44.990,0.006
44.995,-0.026
45.000,-0.013
45.005,0.024
45.010,-0.004
45.015,-0.019
45.020,0.025
45.025,0.024
45.030,-0.010
45.035,0.013
45.040,0.025
45.045,-0.015
45.050,-0.008
45.055,0.029
45.060,0.004
45.065,-0.012
45.070,0.026
45.075,0.021
45.080,-0.013
45.085,0.011
45.090,0.023
45.095,-0.017
45.100,-0.004
45.105,0.038
