'Elapsed time','ECG'
'seconds','mV'
0.000,0.133
0.005,0.135
0.010,0.164
0.015,0.055
0.020,0.088
0.025,0.170
0.030,0.061
0.035,0.045
0.040,0.155
0.045,0.091
0.050,0.010
0.055,0.116
0.060,0.126
0.065,0.009
0.070,0.062
0.075,0.139
0.080,0.032
0.085,0.018
0.090,0.130
0.095,0.067
0.100,-0.011
0.105,0.092
0.110,0.095
0.115,-0.023
0.120,0.032
0.125,0.104
0.130,-0.001
0.135,-0.009
0.140,0.101
0.145,0.034
0.150,-0.046
0.155,0.061
0.160,0.072
0.165,-0.043
0.170,0.010
0.175,0.084
0.180,-0.020
0.185,-0.029
0.190,0.078
0.195,0.013
0.200,-0.066
0.205,0.036
0.210,0.042
0.215,-0.072
0.220,-0.012
0.225,0.063
0.230,-0.046
0.235,-0.059
0.240,0.044
0.245,-0.030
0.250,-0.113
0.255,-0.011
0.260,-0.006
0.265,-0.115
0.270,-0.043
0.275,0.045
0.280,-0.057
0.285,-0.070
0.290,0.041
0.295,-0.023
0.300,-0.108
0.305,-0.007
0.310,0.002
0.315,-0.111
0.320,-0.041
0.325,0.046
0.330,-0.050
0.335,-0.043
0.340,0.084
0.345,0.027
0.350,-0.048
0.355,0.057
0.360,0.060
0.365,-0.059
0.370,0.003
0.375,0.090
0.380,-0.053
0.385,-0.197
0.390,-0.286
0.395,-0.567
0.400,-0.757
0.405,-0.429
0.410,0.004
0.415,0.120
0.420,0.258
0.425,0.430
0.430,0.396
0.435,0.412
0.440,0.509
0.445,0.405
0.450,0.268
0.455,0.275
0.460,0.155
0.465,-0.048
0.470,-0.023
0.475,0.044
0.480,-0.067
0.485,-0.079
0.490,0.032
0.495,-0.038
0.500,-0.118
0.505,-0.006
0.510,0.004
0.515,-0.112
0.520,-0.054
0.525,0.018
0.530,-0.086
0.535,-0.092
0.540,0.015
0.545,-0.050
0.550,-0.124
0.555,-0.020
0.560,-0.012
0.565,-0.123
0.570,-0.065
0.575,0.008
0.580,-0.101
0.585,-0.113
0.590,-0.004
0.595,-0.069
0.600,-0.147
0.605,-0.046
0.610,-0.046
0.615,-0.164
0.620,-0.111
0.625,-0.049
0.630,-0.166
0.635,-0.180
0.640,-0.077
0.645,-0.149
0.650,-0.235
0.655,-0.139
0.660,-0.136
0.665,-0.250
0.670,-0.194
0.675,-0.123
0.680,-0.232
0.685,-0.238
0.690,-0.120
0.695,-0.171
0.700,-0.230
0.705,-0.101
0.710,-0.068
0.715,-0.147
0.720,-0.054
0.725,0.047
0.730,-0.026
0.735,-0.002
0.740,0.131
0.745,0.092
0.750,0.041
0.755,0.165
0.760,0.186
0.765,0.080
0.770,0.143
0.775,0.222
0.780,0.119
0.785,0.110
0.790,0.216
0.795,0.147
0.800,0.071
0.805,0.176
0.810,0.177
0.815,0.060
0.820,0.119
0.825,0.188
0.830,0.077
0.835,0.066
0.840,0.169
0.845,0.096
0.850,0.015
0.855,0.119
0.860,0.122
0.865,0.003
0.870,0.060
0.875,0.133
0.880,0.025
0.885,0.011
0.890,0.116
0.895,0.049
0.900,-0.025
0.905,0.083
0.910,0.088
0.915,-0.025
0.920,0.035
0.925,0.108
0.930,0.001
0.935,-0.008
0.940,0.098
0.945,0.034
0.950,-0.037
0.955,0.068
0.960,0.071
0.965,-0.044
0.970,0.017
0.975,0.089
0.980,-0.025
0.985,-0.030
0.990,0.084
0.995,0.017
1.000,-0.056
1.005,0.052
1.010,0.055
1.015,-0.058
1.020,0.004
1.025,0.075
1.030,-0.035
1.035,-0.042
1.040,0.070
1.045,0.006
1.050,-0.068
1.055,0.040
1.060,0.047
1.065,-0.069
1.070,-0.009
1.075,0.065
1.080,-0.044
1.085,-0.052
1.090,0.058
1.095,-0.009
1.100,-0.081
1.105,0.025
1.110,0.032
1.115,-0.080
1.120,-0.023
1.125,0.050
1.130,-0.055
1.135,-0.063
1.140,0.048
1.145,-0.014
1.150,-0.089
1.155,0.007
1.160,0.006
1.165,-0.111
1.170,-0.059
1.175,0.011
1.180,-0.094
1.185,-0.095
1.190,0.031
1.195,-0.019
1.200,-0.088
1.205,0.018
1.210,0.023
1.215,-0.094
1.220,-0.036
1.225,0.032
1.230,-0.080
1.235,-0.079
1.240,0.049
1.245,-0.003
1.250,-0.065
1.255,0.057
1.260,0.071
1.265,-0.037
1.270,0.021
1.275,0.083
1.280,-0.033
1.285,-0.037
1.290,0.091
1.295,0.023
1.300,-0.134
1.305,-0.202
1.310,-0.423
1.315,-0.732
1.320,-0.628
1.325,-0.185
1.330,0.057
1.335,0.180
1.340,0.381
1.345,0.404
1.350,0.367
1.355,0.484
1.360,0.467
1.365,0.315
1.370,0.314
1.375,0.275
1.380,0.052
1.385,-0.028
1.390,0.055
1.395,-0.013
1.400,-0.093
1.405,0.008
1.410,0.016
1.415,-0.094
1.420,-0.036
1.425,0.031
1.430,-0.081
1.435,-0.086
1.440,0.027
1.445,-0.038
1.450,-0.110
1.455,-0.005
1.460,-0.002
1.465,-0.113
1.470,-0.049
1.475,0.019
1.480,-0.091
1.485,-0.097
1.490,0.011
1.495,-0.055
1.500,-0.128
1.505,-0.024
1.510,-0.025
1.515,-0.139
1.520,-0.079
1.525,-0.016
1.530,-0.130
1.535,-0.142
1.540,-0.041
1.545,-0.113
1.550,-0.192
1.555,-0.096
1.560,-0.103
1.565,-0.220
1.570,-0.166
1.575,-0.110
1.580,-0.224
1.585,-0.229
1.590,-0.121
1.595,-0.186
1.600,-0.254
1.605,-0.141
1.610,-0.127
1.615,-0.225
1.620,-0.146
1.625,-0.055
1.630,-0.136
1.635,-0.106
1.640,0.041
1.645,0.008
1.650,-0.034
1.655,0.105
1.660,0.135
1.665,0.046
1.670,0.125
1.675,0.204
1.680,0.106
1.685,0.110
1.690,0.225
1.695,0.162
1.700,0.089
1.705,0.196
1.710,0.194
1.715,0.081
1.720,0.146
1.725,0.209
1.730,0.092
1.735,0.082
1.740,0.183
1.745,0.111
1.750,0.036
1.755,0.140
1.760,0.141
1.765,0.026
1.770,0.086
1.775,0.156
1.780,0.043
1.785,0.029
1.790,0.133
1.795,0.063
1.800,-0.008
1.805,0.098
1.810,0.096
1.815,-0.016
1.820,0.048
1.825,0.114
1.830,0.004
1.835,0.001
1.840,0.104
1.845,0.033
1.850,-0.033
1.855,0.074
1.860,0.072
1.865,-0.036
1.870,0.035
1.875,0.098
1.880,-0.018
1.885,-0.020
1.890,0.092
1.895,0.026
1.900,-0.045
1.905,0.058
1.910,0.061
1.915,-0.048
1.920,0.016
1.925,0.086
1.930,-0.025
1.935,-0.033
1.940,0.076
1.945,0.010
1.950,-0.063
1.955,0.042
1.960,0.044
1.965,-0.069
1.970,-0.007
1.975,0.059
1.980,-0.046
1.985,-0.045
1.990,0.063
1.995,-0.005
2.000,-0.076
2.005,0.033
2.010,0.036
2.015,-0.074
2.020,-0.010
2.025,0.058
2.030,-0.049
2.035,-0.052
2.040,0.050
2.045,-0.024
2.050,-0.092
2.055,0.023
2.060,0.024
2.065,-0.092
2.070,-0.031
2.075,0.029
2.080,-0.093
2.085,-0.097
2.090,0.015
2.095,-0.052
2.100,-0.117
2.105,0.006
2.110,0.017
2.115,-0.099
2.120,-0.033
2.125,0.038
2.130,-0.077
2.135,-0.081
2.140,0.030
2.145,-0.040
2.150,-0.101
2.155,0.026
2.160,0.036
2.165,-0.066
2.170,0.018
2.175,0.095
2.180,-0.016
2.185,-0.019
2.190,0.088
2.195,0.015
2.200,-0.053
2.205,0.062
2.210,0.069
2.215,-0.087
2.220,-0.163
2.225,-0.311
2.230,-0.650
2.235,-0.729
2.240,-0.351
2.245,-0.016
2.250,0.113
2.255,0.310
2.260,0.407
2.265,0.356
2.270,0.450
2.275,0.514
2.280,0.367
2.285,0.310
2.290,0.331
2.295,0.151
2.300,-0.013
2.305,0.046
2.310,0.033
2.315,-0.083
2.320,-0.020
2.325,0.042
2.330,-0.073
2.335,-0.072
2.340,0.039
2.345,-0.030
2.350,-0.099
2.355,0.010
2.360,0.004
2.365,-0.108
2.370,-0.039
2.375,0.033
2.380,-0.074
2.385,-0.079
2.390,0.023
2.395,-0.047
2.400,-0.112
2.405,-0.003
2.410,-0.006
2.415,-0.116
2.420,-0.050
2.425,0.007
2.430,-0.112
2.435,-0.118
2.440,-0.022
2.445,-0.107
2.450,-0.179
2.455,-0.070
2.460,-0.073
2.465,-0.190
2.470,-0.133
2.475,-0.074
2.480,-0.193
2.485,-0.203
2.490,-0.103
2.495,-0.176
2.500,-0.246
2.505,-0.138
2.510,-0.143
2.515,-0.253
2.520,-0.182
2.525,-0.114
2.530,-0.215
2.535,-0.199
2.540,-0.067
2.545,-0.106
2.550,-0.141
2.555,0.001
2.560,0.033
2.565,-0.043
2.570,0.049
2.575,0.136
2.580,0.054
2.585,0.080
2.590,0.197
2.595,0.130
2.600,0.076
2.605,0.197
2.610,0.200
2.615,0.093
2.620,0.160
2.625,0.221
2.630,0.104
2.635,0.098
2.640,0.202
2.645,0.131
2.650,0.062
2.655,0.166
2.660,0.159
2.665,0.044
2.670,0.102
2.675,0.158
2.680,0.045
2.685,0.046
2.690,0.148
2.695,0.071
2.700,0.004
2.705,0.105
2.710,0.093
2.715,-0.018
2.720,0.051
2.725,0.113
2.730,-0.001
2.735,0.001
2.740,0.106
2.745,0.029
2.750,-0.035
2.755,0.076
2.760,0.065
2.765,-0.048
2.770,0.024
2.775,0.086
2.780,-0.022
2.785,-0.014
2.790,0.094
2.795,0.022
2.800,-0.043
2.805,0.067
2.810,0.058
2.815,-0.050
2.820,0.023
2.825,0.081
2.830,-0.035
2.835,-0.033
2.840,0.072
2.845,-0.001
2.850,-0.065
2.855,0.046
2.860,0.041
2.865,-0.065
2.870,0.007
2.875,0.067
2.880,-0.046
2.885,-0.037
2.890,0.069
2.895,-0.011
2.900,-0.077
2.905,0.033
2.910,0.023
2.915,-0.084
2.920,-0.008
2.925,0.054
2.930,-0.058
2.935,-0.051
2.940,0.051
2.945,-0.024
2.950,-0.083
2.955,0.030
2.960,0.021
2.965,-0.092
2.970,-0.021
2.975,0.045
2.980,-0.070
2.985,-0.078
2.990,0.017
2.995,-0.062
3.000,-0.125
3.005,-0.014
3.010,-0.027
3.015,-0.126
3.020,-0.030
3.025,0.039
3.030,-0.083
3.035,-0.079
3.040,0.034
3.045,-0.042
3.050,-0.112
3.055,-0.007
3.060,-0.019
3.065,-0.120
3.070,-0.028
3.075,0.046
3.080,-0.052
3.085,-0.030
3.090,0.083
3.095,0.011
3.100,-0.052
3.105,0.054
3.110,0.046
3.115,-0.062
3.120,0.018
3.125,0.084
3.130,-0.091
3.135,-0.246
3.140,-0.360
3.145,-0.651
3.150,-0.751
3.155,-0.333
3.160,0.048
3.165,0.111
3.170,0.270
3.175,0.436
3.180,0.389
3.185,0.423
3.190,0.521
3.195,0.407
3.200,0.280
3.205,0.281
3.210,0.147
3.215,-0.044
3.220,-0.001
3.225,0.056
3.230,-0.057
3.235,-0.051
3.240,0.055
3.245,-0.026
3.250,-0.098
3.255,0.009
3.260,0.002
3.265,-0.103
3.270,-0.029
3.275,0.035
3.280,-0.077
3.285,-0.071
3.290,0.037
3.295,-0.038
3.300,-0.104
3.305,0.000
3.310,-0.011
3.315,-0.117
3.320,-0.045
3.325,0.011
3.330,-0.102
3.335,-0.094
3.340,0.012
3.345,-0.066
3.350,-0.135
3.355,-0.034
3.360,-0.051
3.365,-0.164
3.370,-0.098
3.375,-0.040
3.380,-0.160
3.385,-0.167
3.390,-0.068
3.395,-0.150
3.400,-0.227
3.405,-0.131
3.410,-0.142
3.415,-0.246
3.420,-0.176
3.425,-0.118
3.430,-0.227
3.435,-0.216
3.440,-0.109
3.445,-0.169
3.450,-0.208
3.455,-0.076
3.460,-0.060
3.465,-0.133
3.470,-0.027
3.475,0.065
3.480,-0.014
3.485,0.024
3.490,0.157
3.495,0.098
3.500,0.050
3.505,0.178
3.510,0.179
3.515,0.078
3.520,0.160
3.525,0.227
3.530,0.113
3.535,0.115
3.540,0.219
3.545,0.141
3.550,0.082
3.555,0.192
3.560,0.173
3.565,0.057
3.570,0.124
3.575,0.175
3.580,0.057
3.585,0.063
3.590,0.164
3.595,0.082
3.600,0.017
3.605,0.125
3.610,0.111
3.615,-0.004
3.620,0.069
3.625,0.128
3.630,0.007
3.635,0.010
3.640,0.120
3.645,0.049
3.650,-0.015
3.655,0.094
3.660,0.087
3.665,-0.021
3.670,0.048
3.675,0.107
3.680,-0.002
3.685,0.006
3.690,0.107
3.695,0.024
3.700,-0.039
3.705,0.071
3.710,0.058
3.715,-0.049
3.720,0.027
3.725,0.087
3.730,-0.028
3.735,-0.019
3.740,0.088
3.745,0.014
3.750,-0.046
3.755,0.067
3.760,0.057
3.765,-0.056
3.770,0.015
3.775,0.077
3.780,-0.035
3.785,-0.028
3.790,0.076
3.795,0.000
3.800,-0.057
3.805,0.055
3.810,0.040
3.815,-0.069
3.820,0.009
3.825,0.069
3.830,-0.049
3.835,-0.044
3.840,0.061
3.845,-0.013
3.850,-0.073
3.855,0.036
3.860,0.021
3.865,-0.085
3.870,-0.008
3.875,0.052
3.880,-0.061
3.885,-0.054
3.890,0.052
3.895,-0.025
3.900,-0.089
3.905,0.014
3.910,-0.008
3.915,-0.122
3.920,-0.048
3.925,0.009
3.930,-0.100
3.935,-0.079
3.940,0.037
3.945,-0.035
3.950,-0.093
3.955,0.020
3.960,0.003
3.965,-0.112
3.970,-0.037
3.975,0.020
3.980,-0.092
3.985,-0.072
3.990,0.046
3.995,-0.022
4.000,-0.064
4.005,0.064
4.010,0.056
4.015,-0.046
4.020,0.028
4.025,0.079
4.030,-0.038
4.035,-0.024
4.040,0.092
4.045,-0.006
4.050,-0.173
4.055,-0.256
4.060,-0.496
4.065,-0.763
4.070,-0.559
4.075,-0.096
4.080,0.089
4.085,0.208
4.090,0.408
4.095,0.411
4.100,0.389
4.105,0.502
4.110,0.457
4.115,0.303
4.120,0.298
4.125,0.228
4.130,0.004
4.135,-0.036
4.140,0.055
4.145,-0.025
4.150,-0.081
4.155,0.029
4.160,0.012
4.165,-0.097
4.170,-0.026
4.175,0.028
4.180,-0.082
4.185,-0.068
4.190,0.035
4.195,-0.045
4.200,-0.102
4.205,0.011
4.210,-0.006
4.215,-0.112
4.220,-0.038
4.225,0.011
4.230,-0.103
4.235,-0.088
4.240,0.015
4.245,-0.064
4.250,-0.123
4.255,-0.016
4.260,-0.037
4.265,-0.147
4.270,-0.071
4.275,-0.018
4.280,-0.136
4.285,-0.128
4.290,-0.033
4.295,-0.122
4.300,-0.189
4.305,-0.087
4.310,-0.113
4.315,-0.227
4.320,-0.158
4.325,-0.110
4.330,-0.227
4.335,-0.218
4.340,-0.117
4.345,-0.193
4.350,-0.247
4.355,-0.131
4.360,-0.136
4.365,-0.229
4.370,-0.131
4.375,-0.050
4.380,-0.133
4.385,-0.084
4.390,0.052
4.395,0.004
4.400,-0.022
4.405,0.115
4.410,0.119
4.415,0.037
4.420,0.133
4.425,0.197
4.430,0.093
4.435,0.116
4.440,0.222
4.445,0.143
4.450,0.088
4.455,0.195
4.460,0.175
4.465,0.072
4.470,0.145
4.475,0.189
4.480,0.073
4.485,0.084
4.490,0.182
4.495,0.098
4.500,0.042
4.505,0.149
4.510,0.124
4.515,0.016
4.520,0.093
4.525,0.141
4.530,0.023
4.535,0.037
4.540,0.134
4.545,0.045
4.550,-0.009
4.555,0.105
4.560,0.084
4.565,-0.023
4.570,0.055
4.575,0.103
4.580,-0.013
4.585,0.006
4.590,0.107
4.595,0.025
4.600,-0.026
4.605,0.085
4.610,0.063
4.615,-0.035
4.620,0.048
4.625,0.095
4.630,-0.023
4.635,-0.010
4.640,0.088
4.645,0.005
4.650,-0.042
4.655,0.076
4.660,0.055
4.665,-0.049
4.670,0.034
4.675,0.080
4.680,-0.039
4.685,-0.021
4.690,0.078
4.695,-0.009
4.700,-0.061
4.705,0.052
4.710,0.029
4.715,-0.072
4.720,0.011
4.725,0.058
4.730,-0.055
4.735,-0.035
4.740,0.063
4.745,-0.021
4.750,-0.071
4.755,0.045
4.760,0.027
4.765,-0.079
4.770,0.000
4.775,0.048
4.780,-0.067
4.785,-0.044
4.790,0.059
4.795,-0.026
4.800,-0.077
4.805,0.032
4.810,0.011
4.815,-0.089
4.820,-0.017
4.825,0.013
4.830,-0.109
4.835,-0.083
4.840,0.018
4.845,-0.069
4.850,-0.108
4.855,0.023
4.860,0.004
4.865,-0.099
4.870,-0.013
4.875,0.038
4.880,-0.081
4.885,-0.067
4.890,0.027
4.895,-0.056
4.900,-0.096
4.905,0.027
4.910,0.014
4.915,-0.068
4.920,0.031
4.925,0.085
4.930,-0.027
4.935,-0.011
4.940,0.081
4.945,-0.003
4.950,-0.045
4.955,0.082
4.960,0.033
4.965,-0.187
4.970,-0.300
4.975,-0.485
4.980,-0.760
4.985,-0.593
4.990,-0.086
4.995,0.116
5.000,0.183
5.005,0.398
5.010,0.448
5.015,0.378
5.020,0.461
5.025,0.472
5.030,0.312
5.035,0.266
5.040,0.243
5.045,0.045
5.050,-0.055
5.055,0.047
5.060,0.019
5.065,-0.089
5.070,-0.006
5.075,0.040
5.080,-0.079
5.085,-0.058
5.090,0.040
5.095,-0.046
5.100,-0.093
5.105,0.016
5.110,-0.014
5.115,-0.111
5.120,-0.026
5.125,0.020
5.130,-0.090
5.135,-0.063
5.140,0.035
5.145,-0.053
5.150,-0.103
5.155,0.006
5.160,-0.020
5.165,-0.119
5.170,-0.040
5.175,-0.006
5.180,-0.125
5.185,-0.106
5.190,-0.013
5.195,-0.105
5.200,-0.163
5.205,-0.058
5.210,-0.092
5.215,-0.201
5.220,-0.126
5.225,-0.091
5.230,-0.215
5.235,-0.201
5.240,-0.112
5.245,-0.200
5.250,-0.249
5.255,-0.135
5.260,-0.155
5.265,-0.250
5.270,-0.161
5.275,-0.107
5.280,-0.208
5.285,-0.165
5.290,-0.041
5.295,-0.101
5.300,-0.117
5.305,0.030
5.310,0.040
5.315,-0.033
5.320,0.074
5.325,0.147
5.330,0.060
5.335,0.102
5.340,0.214
5.345,0.136
5.350,0.095
5.355,0.212
5.360,0.185
5.365,0.086
5.370,0.173
5.375,0.209
5.380,0.084
5.385,0.103
5.390,0.196
5.395,0.107
5.400,0.052
5.405,0.154
5.410,0.127
5.415,0.029
5.420,0.113
5.425,0.152
5.430,0.034
5.435,0.057
5.440,0.150
5.445,0.060
5.450,0.011
5.455,0.120
5.460,0.087
5.465,-0.021
5.470,0.063
5.475,0.108
5.480,-0.011
5.485,0.015
5.490,0.112
5.495,0.020
5.500,-0.024
5.505,0.092
5.510,0.064
5.515,-0.034
5.520,0.054
5.525,0.095
5.530,-0.025
5.535,0.000
5.540,0.097
5.545,0.010
5.550,-0.038
5.555,0.074
5.560,0.047
5.565,-0.052
5.570,0.035
5.575,0.076
5.580,-0.041
5.585,-0.014
5.590,0.081
5.595,-0.008
5.600,-0.049
5.605,0.065
5.610,0.034
5.615,-0.063
5.620,0.019
5.625,0.055
5.630,-0.055
5.635,-0.024
5.640,0.070
5.645,-0.023
5.650,-0.069
5.655,0.045
5.660,0.017
5.665,-0.080
5.670,0.006
5.675,0.050
5.680,-0.066
5.685,-0.040
5.690,0.061
5.695,-0.029
5.700,-0.078
5.705,0.035
5.710,0.008
5.715,-0.089
5.720,-0.002
5.725,0.031
5.730,-0.088
5.735,-0.063
5.740,0.021
5.745,-0.074
5.750,-0.116
5.755,-0.004
5.760,-0.030
5.765,-0.113
5.770,-0.012
5.775,0.028
5.780,-0.087
5.785,-0.056
5.790,0.034
5.795,-0.058
5.800,-0.102
5.805,0.002
5.810,-0.027
5.815,-0.109
5.820,-0.005
5.825,0.050
5.830,-0.048
5.835,-0.007
5.840,0.089
5.845,-0.001
5.850,-0.045
5.855,0.066
5.860,0.039
5.865,-0.055
5.870,0.038
5.875,0.033
5.880,-0.220
5.885,-0.397
5.890,-0.536
5.895,-0.741
5.900,-0.555
5.905,-0.027
5.910,0.178
5.915,0.183
5.920,0.377
5.925,0.486
5.930,0.402
5.935,0.433
5.940,0.498
5.945,0.349
5.950,0.217
5.955,0.217
5.960,0.088
5.965,-0.058
5.970,0.018
5.975,0.051
5.980,-0.071
5.985,-0.048
5.990,0.043
5.995,-0.046
6.000,-0.085
6.005,0.030
6.010,-0.006
6.015,-0.107
6.020,-0.020
6.025,0.015
6.030,-0.099
6.035,-0.065
6.040,0.030
6.045,-0.063
6.050,-0.101
6.055,0.013
6.060,-0.026
6.065,-0.124
6.070,-0.035
6.075,0.000
6.080,-0.116
6.085,-0.090
6.090,-0.002
6.095,-0.096
6.100,-0.139
6.105,-0.029
6.110,-0.068
6.115,-0.171
6.120,-0.090
6.125,-0.063
6.130,-0.186
6.135,-0.163
6.140,-0.082
6.145,-0.188
6.150,-0.236
6.155,-0.127
6.160,-0.163
6.165,-0.258
6.170,-0.165
6.175,-0.125
6.180,-0.240
6.185,-0.203
6.190,-0.098
6.195,-0.176
6.200,-0.191
6.205,-0.053
6.210,-0.060
6.215,-0.114
6.220,0.014
6.225,0.079
6.230,-0.011
6.235,0.049
6.240,0.167
6.245,0.094
6.250,0.074
6.255,0.200
6.260,0.172
6.265,0.085
6.270,0.181
6.275,0.217
6.280,0.099
6.285,0.130
6.290,0.219
6.295,0.121
6.300,0.077
6.305,0.185
6.310,0.145
6.315,0.046
6.320,0.131
6.325,0.164
6.330,0.048
6.335,0.077
6.340,0.159
6.345,0.061
6.350,0.019
6.355,0.126
6.360,0.091
6.365,-0.002
6.370,0.083
6.375,0.112
6.380,-0.004
6.385,0.032
6.390,0.123
6.395,0.025
6.400,-0.015
6.405,0.095
6.410,0.056
6.415,-0.035
6.420,0.058
6.425,0.089
6.430,-0.028
6.435,0.009
6.440,0.101
6.445,0.006
6.450,-0.031
6.455,0.079
6.460,0.039
6.465,-0.047
6.470,0.049
6.475,0.080
6.480,-0.035
6.485,0.001
6.490,0.087
6.495,-0.012
6.500,-0.043
6.505,0.072
6.510,0.029
6.515,-0.064
6.520,0.030
6.525,0.058
6.530,-0.056
6.535,-0.020
6.540,0.072
6.545,-0.021
6.550,-0.059
6.555,0.057
6.560,0.024
6.565,-0.067
6.570,0.027
6.575,0.058
6.580,-0.061
6.585,-0.024
6.590,0.064
6.595,-0.034
6.600,-0.066
6.605,0.048
6.610,0.004
6.615,-0.090
6.620,0.007
6.625,0.042
6.630,-0.073
6.635,-0.035
6.640,0.054
6.645,-0.046
6.650,-0.085
6.655,0.019
6.660,-0.029
6.665,-0.123
6.670,-0.027
6.675,0.003
6.680,-0.105
6.685,-0.050
6.690,0.047
6.695,-0.051
6.700,-0.079
6.705,0.034
6.710,-0.018
6.715,-0.110
6.720,-0.017
6.725,0.008
6.730,-0.096
6.735,-0.043
6.740,0.057
6.745,-0.019
6.750,-0.031
6.755,0.089
6.760,0.045
6.765,-0.049
6.770,0.041
6.775,0.067
6.780,-0.047
6.785,0.004
6.790,0.083
6.795,-0.101
6.800,-0.310
6.805,-0.429
6.810,-0.667
6.815,-0.704
6.820,-0.241
6.825,0.133
6.830,0.165
6.835,0.310
6.840,0.483
6.845,0.420
6.850,0.400
6.855,0.489
6.860,0.401
6.865,0.241
6.870,0.219
6.875,0.128
6.880,-0.062
6.885,-0.046
6.890,0.049
6.895,-0.042
6.900,-0.070
6.905,0.044
6.910,-0.002
6.915,-0.093
6.920,0.005
6.925,0.034
6.930,-0.082
6.935,-0.043
6.940,0.043
6.945,-0.054
6.950,-0.080
6.955,0.035
6.960,-0.012
6.965,-0.106
6.970,-0.017
6.975,0.007
6.980,-0.110
6.985,-0.071
6.990,0.011
6.995,-0.087
7.000,-0.113
7.005,0.003
7.010,-0.042
7.015,-0.136
7.020,-0.046
7.025,-0.024
7.030,-0.145
7.035,-0.114
7.040,-0.039
7.045,-0.145
7.050,-0.183
7.055,-0.080
7.060,-0.134
7.065,-0.231
7.070,-0.142
7.075,-0.122
7.080,-0.240
7.085,-0.203
7.090,-0.119
7.095,-0.212
7.100,-0.235
7.105,-0.117
7.110,-0.145
7.115,-0.209
7.120,-0.091
7.125,-0.039
7.130,-0.123
7.135,-0.047
7.140,0.074
7.145,0.005
7.150,0.004
7.155,0.143
7.160,0.120
7.165,0.054
7.170,0.167
7.175,0.204
7.180,0.097
7.185,0.142
7.190,0.227
7.195,0.124
7.200,0.097
7.205,0.213
7.210,0.163
7.215,0.071
7.220,0.163
7.225,0.182
7.230,0.062
7.235,0.101
7.240,0.179
7.245,0.073
7.250,0.043
7.255,0.154
7.260,0.102
7.265,0.007
7.270,0.099
7.275,0.119
7.280,0.002
7.285,0.043
7.290,0.122
7.295,0.021
7.300,-0.003
7.305,0.107
7.310,0.058
7.315,-0.028
7.320,0.069
7.325,0.093
7.330,-0.024
7.335,0.022
7.340,0.105
7.345,-0.001
7.350,-0.027
7.355,0.086
7.360,0.036
7.365,-0.051
7.370,0.049
7.375,0.075
7.380,-0.039
7.385,0.004
7.390,0.084
7.395,-0.016
7.400,-0.038
7.405,0.075
7.410,0.027
7.415,-0.060
7.420,0.035
7.425,0.057
7.430,-0.054
7.435,-0.008
7.440,0.074
7.445,-0.022
7.450,-0.043
7.455,0.067
7.460,0.017
7.465,-0.069
7.470,0.029
7.475,0.050
7.480,-0.065
7.485,-0.020
7.490,0.062
7.495,-0.037
7.500,-0.060
7.505,0.049
7.510,-0.002
7.515,-0.088
7.520,0.014
7.525,0.038
7.530,-0.075
7.535,-0.028
7.540,0.055
7.545,-0.045
7.550,-0.071
7.555,0.039
7.560,-0.009
7.565,-0.099
7.570,-0.011
7.575,0.000
7.580,-0.114
7.585,-0.066
7.590,0.012
7.595,-0.084
7.600,-0.085
7.605,0.044
7.610,-0.006
7.615,-0.092
7.620,0.009
7.625,0.025
7.630,-0.096
7.635,-0.053
7.640,0.022
7.645,-0.074
7.650,-0.080
7.655,0.048
7.660,0.015
7.665,-0.049
7.670,0.057
7.675,0.075
7.680,-0.040
7.685,0.004
7.690,0.084
7.695,-0.016
7.700,-0.027
7.705,0.078
7.710,-0.057
7.715,-0.313
7.720,-0.434
7.725,-0.623
7.730,-0.714
7.735,-0.301
7.740,0.142
7.745,0.186
7.750,0.268
7.755,0.477
7.760,0.465
7.765,0.390
7.770,0.468
7.775,0.442
7.780,0.255
7.785,0.188
7.790,0.151
7.795,-0.023
7.800,-0.063
7.805,0.047
7.810,-0.008
7.815,-0.090
7.820,0.009
7.825,0.024
7.830,-0.088
7.835,-0.037
7.840,0.041
7.845,-0.060
7.850,-0.078
7.855,0.035
7.860,-0.017
7.865,-0.104
7.870,-0.005
7.875,0.013
7.880,-0.104
7.885,-0.059
7.890,0.016
7.895,-0.094
7.900,-0.117
7.905,-0.003
7.910,-0.057
7.915,-0.139
7.920,-0.037
7.925,-0.020
7.930,-0.136
7.935,-0.087
7.940,-0.013
7.945,-0.122
7.950,-0.145
7.955,-0.042
7.960,-0.104
7.965,-0.194
7.970,-0.106
7.975,-0.103
7.980,-0.230
7.985,-0.189
7.990,-0.110
7.995,-0.215
8.000,-0.239
8.005,-0.126
8.010,-0.178
8.015,-0.251
8.020,-0.135
8.025,-0.110
8.030,-0.207
8.035,-0.126
8.040,-0.016
8.045,-0.085
8.050,-0.068
8.055,0.070
8.060,0.038
8.065,-0.007
8.070,0.129
8.075,0.163
8.080,0.065
8.085,0.127
8.090,0.212
8.095,0.116
8.100,0.106
8.105,0.223
8.110,0.165
8.115,0.081
8.120,0.182
8.125,0.188
8.130,0.068
8.135,0.121
8.140,0.194
8.145,0.084
8.150,0.066
8.155,0.176
8.160,0.117
8.165,0.033
8.170,0.128
8.175,0.136
8.180,0.018
8.185,0.071
8.190,0.145
8.195,0.034
8.200,0.019
8.205,0.125
8.210,0.059
8.215,-0.019
8.220,0.088
8.225,0.098
8.230,-0.018
8.235,0.036
8.240,0.111
8.245,0.000
8.250,-0.017
8.255,0.096
8.260,0.040
8.265,-0.037
8.270,0.066
8.275,0.080
8.280,-0.032
8.285,0.020
8.290,0.094
8.295,-0.012
8.300,-0.025
8.305,0.087
8.310,0.029
8.315,-0.049
8.320,0.051
8.325,0.057
8.330,-0.058
8.335,0.000
8.340,0.077
8.345,-0.028
8.350,-0.045
8.355,0.063
8.360,0.006
8.365,-0.070
8.370,0.032
8.375,0.045
8.380,-0.065
8.385,-0.008
8.390,0.069
8.395,-0.037
8.400,-0.056
8.405,0.051
8.410,-0.006
8.415,-0.081
8.420,0.025
8.425,0.039
8.430,-0.073
8.435,-0.015
8.440,0.060
8.445,-0.051
8.450,-0.067
8.455,0.040
8.460,-0.017
8.465,-0.088
8.470,0.019
8.475,0.022
8.480,-0.095
8.485,-0.043
8.490,0.016
8.495,-0.099
8.500,-0.108
8.505,0.000
8.510,-0.062
8.515,-0.131
8.520,-0.010
8.525,0.012
8.530,-0.098
8.535,-0.038
8.540,0.038
8.545,-0.076
8.550,-0.091
8.555,0.016
8.560,-0.045
8.565,-0.110
8.570,0.008
8.575,0.025
8.580,-0.067
8.585,0.013
8.590,0.092
8.595,-0.017
8.600,-0.029
8.605,0.078
8.610,0.015
8.615,-0.055
8.620,0.061
8.625,0.052
8.630,-0.156
8.635,-0.280
8.640,-0.440
8.645,-0.734
8.650,-0.663
8.655,-0.165
8.660,0.106
8.665,0.165
8.670,0.369
8.675,0.461
8.680,0.386
8.685,0.450
8.690,0.493
8.695,0.345
8.700,0.269
8.705,0.266
8.710,0.094
8.715,-0.048
8.720,0.038
8.725,0.046
8.730,-0.072
8.735,-0.018
8.740,0.053
8.745,-0.056
8.750,-0.067
8.755,0.038
8.760,-0.024
8.765,-0.099
8.770,0.001
8.775,0.005
8.780,-0.104
8.785,-0.040
8.790,0.035
8.795,-0.072
8.800,-0.076
8.805,0.034
8.810,-0.035
8.815,-0.109
8.820,-0.004
8.825,-0.003
8.830,-0.113
8.835,-0.055
8.840,0.004
8.845,-0.108
8.850,-0.115
8.855,-0.016
8.860,-0.093
8.865,-0.170
8.870,-0.067
8.875,-0.074
8.880,-0.193
8.885,-0.140
8.890,-0.079
8.895,-0.192
8.900,-0.203
8.905,-0.100
8.910,-0.172
8.915,-0.247
8.920,-0.142
8.925,-0.141
8.930,-0.249
8.935,-0.180
8.940,-0.105
8.945,-0.201
8.950,-0.182
8.955,-0.048
8.960,-0.088
8.965,-0.126
8.970,0.019
8.975,0.056
8.980,-0.027
8.985,0.060
8.990,0.154
8.995,0.069
9.000,0.081
9.005,0.203
9.010,0.153
9.015,0.093
9.020,0.202
9.025,0.207
9.030,0.093
9.035,0.152
9.040,0.218
9.045,0.105
9.050,0.097
9.055,0.198
9.060,0.128
9.065,0.055
9.070,0.152
9.075,0.142
9.080,0.029
9.085,0.095
9.090,0.159
9.095,0.043
9.100,0.038
9.105,0.145
9.110,0.076
9.115,0.003
9.120,0.103
9.125,0.092
9.130,-0.022
9.135,0.043
9.140,0.109
9.145,-0.004
9.150,-0.007
9.155,0.102
9.160,0.032
9.165,-0.038
9.170,0.070
9.175,0.073
9.180,-0.031
9.185,0.036
9.190,0.101
9.195,-0.009
9.200,-0.010
9.205,0.097
9.210,0.028
9.215,-0.040
9.220,0.063
9.225,0.056
9.230,-0.050
9.235,0.024
9.240,0.089
9.245,-0.026
9.250,-0.029
9.255,0.078
9.260,0.011
9.265,-0.057
9.270,0.050
9.275,0.045
9.280,-0.067
9.285,0.002
9.290,0.066
9.295,-0.044
9.300,-0.041
9.305,0.064
9.310,-0.006
9.315,-0.069
9.320,0.038
9.325,0.034
9.330,-0.071
9.335,0.000
9.340,0.061
9.345,-0.052
9.350,-0.047
9.355,0.065
9.360,-0.008
9.365,-0.078
9.370,0.025
9.375,0.013
9.380,-0.085
9.385,-0.005
9.390,0.045
9.395,-0.077
9.400,-0.079
9.405,0.017
9.410,-0.060
9.415,-0.123
9.420,-0.010
9.425,-0.007
9.430,-0.100
9.435,-0.018
9.440,0.048
9.445,-0.060
9.450,-0.049
9.455,0.059
9.460,-0.021
9.465,-0.090
9.470,0.014
9.475,-0.005
9.480,-0.107
9.485,-0.014
9.490,0.063
9.495,-0.036
9.500,-0.022
9.505,0.083
9.510,0.009
9.515,-0.057
9.520,0.048
9.525,0.043
9.530,-0.057
9.535,0.020
9.540,0.037
9.545,-0.216
9.550,-0.426
9.555,-0.554
9.560,-0.740
9.565,-0.582
9.570,-0.061
9.575,0.168
9.580,0.162
9.585,0.342
9.590,0.479
9.595,0.407
9.600,0.419
9.605,0.500
9.610,0.377
9.615,0.222
9.620,0.217
9.625,0.110
9.630,-0.059
9.635,-0.004
9.640,0.052
9.645,-0.071
9.650,-0.070
9.655,0.039
9.660,-0.031
9.665,-0.093
9.670,0.015
9.675,0.001
9.680,-0.112
9.685,-0.042
9.690,0.018
9.695,-0.095
9.700,-0.088
9.705,0.021
9.710,-0.050
9.715,-0.113
9.720,-0.004
9.725,-0.011
9.730,-0.123
9.735,-0.057
9.740,0.000
9.745,-0.116
9.750,-0.111
9.755,-0.008
9.760,-0.088
9.765,-0.149
9.770,-0.046
9.775,-0.067
9.780,-0.181
9.785,-0.117
9.790,-0.065
9.795,-0.182
9.800,-0.185
9.805,-0.091
9.810,-0.172
9.815,-0.245
9.820,-0.147
9.825,-0.164
9.830,-0.278
9.835,-0.205
9.840,-0.135
9.845,-0.238
9.850,-0.220
9.855,-0.103
9.860,-0.164
9.865,-0.201
9.870,-0.062
9.875,-0.042
9.880,-0.114
9.885,-0.009
9.890,0.081
9.895,0.001
9.900,0.039
9.905,0.166
9.910,0.104
9.915,0.055
9.920,0.175
9.925,0.171
9.930,0.073
9.935,0.155
9.940,0.213
9.945,0.097
9.950,0.109
9.955,0.220
9.960,0.140
9.965,0.073
9.970,0.179
9.975,0.167
9.980,0.063
9.985,0.130
9.990,0.173
9.995,0.052
10.000,0.061
10.005,0.165
10.010,0.084
10.015,0.018
10.020,0.124
10.025,0.111
10.030,0.004
10.035,0.081
10.040,0.138
10.045,0.028
10.050,0.039
10.055,0.126
10.060,0.029
10.065,-0.030
10.070,0.083
10.075,0.069
10.080,-0.035
10.085,0.042
10.090,0.097
10.095,-0.017
10.100,-0.002
10.105,0.103
10.110,0.024
10.115,-0.033
10.120,0.079
10.125,0.065
10.130,-0.042
10.135,0.036
10.140,0.091
10.145,-0.030
10.150,-0.015
10.155,0.091
10.160,0.012
10.165,-0.040
10.170,0.074
10.175,0.058
10.180,-0.047
10.185,0.028
10.190,0.082
10.195,-0.032
10.200,-0.021
10.205,0.079
10.210,-0.006
10.215,-0.064
10.220,0.048
10.225,0.029
10.230,-0.078
10.235,-0.001
10.240,0.048
10.245,-0.066
10.250,-0.050
10.255,0.050
10.260,-0.038
10.265,-0.097
10.270,0.014
10.275,-0.002
10.280,-0.101
10.285,-0.018
10.290,0.038
10.295,-0.074
10.300,-0.057
10.305,0.045
10.310,-0.045
10.315,-0.108
10.320,0.002
10.325,-0.015
10.330,-0.117
10.335,-0.034
10.340,0.029
10.345,-0.071
10.350,-0.048
10.355,0.054
10.360,-0.026
10.365,-0.083
10.370,0.016
10.375,-0.009
10.380,-0.120
10.385,-0.042
10.390,0.026
10.395,-0.068
10.400,-0.034
10.405,0.084
10.410,0.017
10.415,-0.025
10.420,0.091
10.425,0.066
10.430,-0.038
10.435,0.048
10.440,0.102
10.445,-0.007
10.450,-0.025
10.455,-0.060
10.460,-0.357
10.465,-0.642
10.470,-0.653
10.475,-0.464
10.480,-0.151
10.485,0.170
10.490,0.315
10.495,0.303
10.500,0.395
10.505,0.528
10.510,0.444
10.515,0.362
10.520,0.423
10.525,0.318
10.530,0.100
10.535,0.078
10.540,0.067
10.545,-0.060
10.550,-0.039
10.555,0.056
10.560,-0.031
10.565,-0.081
10.570,0.030
10.575,0.008
10.580,-0.093
10.585,-0.011
10.590,0.033
10.595,-0.085
10.600,-0.063
10.605,0.037
10.610,-0.051
10.615,-0.101
10.620,0.013
10.625,-0.014
10.630,-0.117
10.635,-0.033
10.640,0.010
10.645,-0.109
10.650,-0.088
10.655,0.011
10.660,-0.077
10.665,-0.126
10.670,-0.014
10.675,-0.045
10.680,-0.150
10.685,-0.072
10.690,-0.034
10.695,-0.155
10.700,-0.138
10.705,-0.050
10.710,-0.148
10.715,-0.206
10.720,-0.104
10.725,-0.137
10.730,-0.244
10.735,-0.166
10.740,-0.129
10.745,-0.245
10.750,-0.217
10.755,-0.118
10.760,-0.201
10.765,-0.237
10.770,-0.109
10.775,-0.116
10.780,-0.189
10.785,-0.072
10.790,0.006
10.795,-0.073
10.800,-0.016
10.805,0.110
10.810,0.049
10.815,0.028
10.820,0.162
10.825,0.150
10.830,0.063
10.835,0.160
10.840,0.210
10.845,0.100
10.850,0.127
10.855,0.220
10.860,0.130
10.865,0.081
10.870,0.185
10.875,0.150
10.880,0.052
10.885,0.137
10.890,0.173
10.895,0.056
10.900,0.081
10.905,0.169
10.910,0.077
10.915,0.035
10.920,0.144
10.925,0.108
10.930,0.006
10.935,0.087
10.940,0.123
10.945,0.004
10.950,0.028
10.955,0.120
10.960,0.027
10.965,-0.015
10.970,0.098
10.975,0.063
10.980,-0.037
10.985,0.049
10.990,0.088
10.995,-0.026
11.000,0.007
11.005,0.104
11.010,0.012
11.015,-0.028
11.020,0.087
11.025,0.052
11.030,-0.047
11.035,0.042
11.040,0.078
11.045,-0.038
11.050,-0.005
11.055,0.090
11.060,-0.001
11.065,-0.041
11.070,0.072
11.075,0.039
11.080,-0.058
11.085,0.029
11.090,0.067
11.095,-0.046
11.100,-0.015
11.105,0.077
11.110,-0.015
11.115,-0.056
11.120,0.056
11.125,0.023
11.130,-0.067
11.135,0.024
11.140,0.057
11.145,-0.062
11.150,-0.031
11.155,0.058
11.160,-0.035
11.165,-0.068
11.170,0.047
11.175,0.010
11.180,-0.082
11.185,0.009
11.190,0.040
11.195,-0.072
11.200,-0.037
11.205,0.052
11.210,-0.041
11.215,-0.089
11.220,0.005
11.225,-0.036
11.230,-0.124
11.235,-0.032
11.240,0.000
11.245,-0.110
11.250,-0.062
11.255,0.041
11.260,-0.052
11.265,-0.089
11.270,0.028
11.275,-0.015
11.280,-0.117
11.285,-0.027
11.290,0.009
11.295,-0.095
11.300,-0.045
11.305,0.062
11.310,-0.015
11.315,-0.040
11.320,0.080
11.325,0.046
11.330,-0.052
11.335,0.035
11.340,0.068
11.345,-0.041
11.350,0.010
11.355,0.076
11.360,-0.134
11.365,-0.370
11.370,-0.496
11.375,-0.694
11.380,-0.634
11.385,-0.125
11.390,0.195
11.395,0.186
11.400,0.322
11.405,0.486
11.410,0.424
11.415,0.398
11.420,0.485
11.425,0.400
11.430,0.230
11.435,0.207
11.440,0.131
11.445,-0.051
11.450,-0.035
11.455,0.056
11.460,-0.040
11.465,-0.077
11.470,0.034
11.475,-0.004
11.480,-0.098
11.485,-0.008
11.490,0.028
11.495,-0.081
11.500,-0.046
11.505,0.040
11.510,-0.055
11.515,-0.089
11.520,0.022
11.525,-0.017
11.530,-0.102
11.535,-0.001
11.540,0.028
11.545,-0.093
11.550,-0.056
11.555,0.032
11.560,-0.070
11.565,-0.104
11.570,0.008
11.575,-0.036
11.580,-0.130
11.585,-0.049
11.590,-0.033
11.595,-0.154
11.600,-0.119
11.605,-0.036
11.610,-0.141
11.615,-0.184
11.620,-0.083
11.625,-0.141
11.630,-0.241
11.635,-0.149
11.640,-0.127
11.645,-0.248
11.650,-0.206
11.655,-0.117
11.660,-0.216
11.665,-0.239
11.670,-0.114
11.675,-0.139
11.680,-0.203
11.685,-0.078
11.690,-0.017
11.695,-0.101
11.700,-0.028
11.705,0.089
11.710,0.017
11.715,0.017
11.720,0.155
11.725,0.132
11.730,0.059
11.735,0.167
11.740,0.202
11.745,0.093
11.750,0.138
11.755,0.224
11.760,0.125
11.765,0.095
11.770,0.205
11.775,0.160
11.780,0.071
11.785,0.164
11.790,0.184
11.795,0.064
11.800,0.103
11.805,0.183
11.810,0.076
11.815,0.043
11.820,0.152
11.825,0.100
11.830,0.007
11.835,0.099
11.840,0.118
11.845,0.001
11.850,0.044
11.855,0.127
11.860,0.022
11.865,-0.006
11.870,0.107
11.875,0.058
11.880,-0.029
11.885,0.068
11.890,0.087
11.895,-0.030
11.900,0.012
11.905,0.094
11.910,-0.004
11.915,-0.026
11.920,0.089
11.925,0.041
11.930,-0.044
11.935,0.054
11.940,0.074
11.945,-0.040
11.950,0.009
11.955,0.089
11.960,-0.013
11.965,-0.031
11.970,0.081
11.975,0.027
11.980,-0.060
11.985,0.039
11.990,0.059
11.995,-0.056
12.000,-0.008
12.005,0.074
12.010,-0.030
12.015,-0.052
12.020,0.059
12.025,0.010
12.030,-0.071
12.035,0.027
12.040,0.044
12.045,-0.070
12.050,-0.021
12.055,0.064
12.060,-0.037
12.065,-0.062
12.070,0.052
12.075,0.004
12.080,-0.081
12.085,0.014
12.090,0.031
12.095,-0.082
12.100,-0.031
12.105,0.047
12.110,-0.060
12.115,-0.083
12.120,0.019
12.125,-0.047
12.130,-0.134
12.135,-0.030
12.140,-0.010
12.145,-0.119
12.150,-0.055
12.155,0.038
12.160,-0.063
12.165,-0.079
12.170,0.038
12.175,-0.016
12.180,-0.106
12.185,-0.015
12.190,0.002
12.195,-0.103
12.200,-0.040
12.205,0.053
12.210,-0.036
12.215,-0.040
12.220,0.084
12.225,0.035
12.230,-0.048
12.235,0.051
12.240,0.063
12.245,-0.054
12.250,0.011
12.255,0.085
12.260,-0.103
12.265,-0.294
12.270,-0.408
12.275,-0.676
12.280,-0.752
12.285,-0.301
12.290,0.091
12.295,0.127
12.300,0.269
12.305,0.446
12.310,0.391
12.315,0.397
12.320,0.500
12.325,0.404
12.330,0.261
12.335,0.263
12.340,0.162
12.345,-0.040
12.350,-0.020
12.355,0.059
12.360,-0.050
12.365,-0.073
12.370,0.036
12.375,-0.022
12.380,-0.100
12.385,0.006
12.390,0.019
12.395,-0.098
12.400,-0.046
12.405,0.029
12.410,-0.080
12.415,-0.095
12.420,0.019
12.425,-0.038
12.430,-0.117
12.435,-0.014
12.440,-0.004
12.445,-0.117
12.450,-0.060
12.455,0.013
12.460,-0.098
12.465,-0.111
12.470,0.001
12.475,-0.061
12.480,-0.143
12.485,-0.043
12.490,-0.039
12.495,-0.158
12.500,-0.109
12.505,-0.048
12.510,-0.165
12.515,-0.183
12.520,-0.081
12.525,-0.150
12.530,-0.233
12.535,-0.138
12.540,-0.140
12.545,-0.255
12.550,-0.194
12.555,-0.118
12.560,-0.223
12.565,-0.228
12.570,-0.106
12.575,-0.150
12.580,-0.208
12.585,-0.084
12.590,-0.047
12.595,-0.125
12.600,-0.036
12.605,0.067
12.610,-0.009
12.615,0.011
12.620,0.147
12.625,0.109
12.630,0.056
12.635,0.176
12.640,0.192
12.645,0.084
12.650,0.149
12.655,0.229
12.660,0.122
12.665,0.107
12.670,0.216
12.675,0.152
12.680,0.075
12.685,0.180
12.690,0.183
12.695,0.067
12.700,0.120
12.705,0.182
12.710,0.071
12.715,0.059
12.720,0.163
12.725,0.097
12.730,0.019
12.735,0.118
12.740,0.121
12.745,0.006
12.750,0.064
12.755,0.132
12.760,0.022
12.765,0.014
12.770,0.119
12.775,0.051
12.780,-0.024
12.785,0.082
12.790,0.086
12.795,-0.030
12.800,0.030
12.805,0.100
12.810,-0.009
12.815,-0.014
12.820,0.098
12.825,0.029
12.830,-0.048
12.835,0.063
12.840,0.069
12.845,-0.043
12.850,0.021
12.855,0.093
12.860,-0.016
12.865,-0.023
12.870,0.085
12.875,0.018
12.880,-0.057
12.885,0.051
12.890,0.056
12.895,-0.056
12.900,0.005
12.905,0.075
12.910,-0.029
12.915,-0.034
12.920,0.069
12.925,0.002
12.930,-0.068
12.935,0.036
12.940,0.035
12.945,-0.072
12.950,-0.003
12.955,0.068
12.960,-0.041
12.965,-0.045
12.970,0.064
12.975,-0.009
12.980,-0.084
12.985,0.023
12.990,0.024
12.995,-0.084
13.000,-0.016
13.005,0.049
13.010,-0.063
13.015,-0.066
13.020,0.038
13.025,-0.040
13.030,-0.117
13.035,-0.010
13.040,-0.010
13.045,-0.125
13.050,-0.058
13.055,0.023
13.060,-0.077
13.065,-0.074
13.070,0.040
13.075,-0.030
13.080,-0.103
13.085,0.004
13.090,0.000
13.095,-0.108
13.100,-0.031
13.105,0.048
13.110,-0.052
13.115,-0.041
13.120,0.079
13.125,0.017
13.130,-0.047
13.135,0.063
13.140,0.058
13.145,-0.057
13.150,0.017
13.155,0.097
13.160,-0.027
13.165,-0.113
13.170,-0.180
13.175,-0.486
13.180,-0.763
13.185,-0.622
13.190,-0.257
13.195,0.000
13.200,0.212
13.205,0.367
13.210,0.350
13.215,0.399
13.220,0.523
13.225,0.442
13.230,0.340
13.235,0.375
13.240,0.251
13.245,0.027
13.250,0.021
13.255,0.058
13.260,-0.057
13.265,-0.061
13.270,0.040
13.275,-0.034
13.280,-0.098
13.285,0.015
13.290,0.011
13.295,-0.099
13.300,-0.028
13.305,0.033
13.310,-0.082
13.315,-0.075
13.320,0.036
13.325,-0.041
13.330,-0.106
13.335,0.011
13.340,0.008
13.345,-0.104
13.350,-0.036
13.355,0.026
13.360,-0.091
13.365,-0.091
13.370,0.013
13.375,-0.061
13.380,-0.128
13.385,-0.026
13.390,-0.039
13.395,-0.152
13.400,-0.090
13.405,-0.042
13.410,-0.168
13.415,-0.170
13.420,-0.067
13.425,-0.148
13.430,-0.214
13.435,-0.108
13.440,-0.126
13.445,-0.237
13.450,-0.169
13.455,-0.116
13.460,-0.228
13.465,-0.220
13.470,-0.116
13.475,-0.184
13.480,-0.229
13.485,-0.100
13.490,-0.089
13.495,-0.164
13.500,-0.051
13.505,0.043
13.510,-0.035
13.515,0.009
13.520,0.140
13.525,0.077
13.530,0.036
13.535,0.172
13.540,0.174
13.545,0.080
13.550,0.166
13.555,0.229
13.560,0.121
13.565,0.131
13.570,0.228
13.575,0.144
13.580,0.084
13.585,0.192
13.590,0.171
13.595,0.059
13.600,0.128
13.605,0.177
13.610,0.062
13.615,0.075
13.620,0.173
13.625,0.089
13.630,0.029
13.635,0.134
13.640,0.109
13.645,-0.002
13.650,0.073
13.655,0.127
13.660,0.006
13.665,0.010
13.670,0.109
13.675,0.029
13.680,-0.027
13.685,0.086
13.690,0.068
13.695,-0.041
13.700,0.040
13.705,0.099
13.710,-0.016
13.715,-0.003
13.720,0.105
13.725,0.024
13.730,-0.037
13.735,0.070
13.740,0.052
13.745,-0.045
13.750,0.036
13.755,0.088
13.760,-0.020
13.765,-0.001
13.770,0.098
13.775,0.011
13.780,-0.050
13.785,0.056
13.790,0.041
13.795,-0.058
13.800,0.021
13.805,0.068
13.810,-0.045
13.815,-0.026
13.820,0.075
13.825,-0.005
13.830,-0.054
13.835,0.056
13.840,0.032
13.845,-0.078
13.850,0.001
13.855,0.059
13.860,-0.056
13.865,-0.047
13.870,0.054
13.875,-0.023
13.880,-0.075
13.885,0.037
13.890,0.020
13.895,-0.078
13.900,0.007
13.905,0.057
13.910,-0.066
13.915,-0.059
13.920,0.036
13.925,-0.053
13.930,-0.115
13.935,-0.008
13.940,-0.029
13.945,-0.130
13.950,-0.043
13.955,0.019
13.960,-0.084
13.965,-0.063
13.970,0.041
13.975,-0.035
13.980,-0.094
13.985,0.005
13.990,-0.021
13.995,-0.125
14.000,-0.039
14.005,0.026
14.010,-0.069
14.015,-0.031
14.020,0.083
14.025,0.005
14.030,-0.041
14.035,0.069
14.040,0.038
14.045,-0.068
14.050,0.015
14.055,0.076
14.060,-0.040
14.065,-0.098
14.070,-0.171
14.075,-0.487
14.080,-0.765
14.085,-0.672
14.090,-0.367
14.095,-0.089
14.100,0.164
14.105,0.318
14.110,0.323
14.115,0.422
14.120,0.559
14.125,0.469
14.130,0.373
14.135,0.408
14.140,0.280
14.145,0.068
14.150,0.061
14.155,0.062
14.160,-0.068
14.165,-0.054
14.170,0.044
14.175,-0.042
14.180,-0.090
14.185,0.023
14.190,-0.007
14.195,-0.109
14.200,-0.029
14.205,0.010
14.210,-0.106
14.215,-0.078
14.220,0.024
14.225,-0.067
14.230,-0.115
14.235,-0.001
14.240,-0.030
14.245,-0.131
14.250,-0.043
14.255,-0.004
14.260,-0.124
14.265,-0.098
14.270,-0.002
14.275,-0.089
14.280,-0.130
14.285,-0.020
14.290,-0.061
14.295,-0.167
14.300,-0.080
14.305,-0.046
14.310,-0.172
14.315,-0.156
14.320,-0.073
14.325,-0.171
14.330,-0.223
14.335,-0.113
14.340,-0.143
14.345,-0.250
14.350,-0.173
14.355,-0.135
14.360,-0.249
14.365,-0.218
14.370,-0.118
14.375,-0.199
14.380,-0.225
14.385,-0.092
14.390,-0.098
14.395,-0.167
14.400,-0.047
14.405,0.027
14.410,-0.054
14.415,0.008
14.420,0.131
14.425,0.064
14.430,0.044
14.435,0.178
14.440,0.162
14.445,0.077
14.450,0.174
14.455,0.218
14.460,0.102
14.465,0.130
14.470,0.222
14.475,0.131
14.480,0.090
14.485,0.198
14.490,0.164
14.495,0.071
14.500,0.159
14.505,0.192
14.510,0.072
14.515,0.097
14.520,0.182
14.525,0.084
14.530,0.042
14.535,0.150
14.540,0.108
14.545,0.005
14.550,0.086
14.555,0.117
14.560,0.002
14.565,0.032
14.570,0.123
14.575,0.031
14.580,-0.006
14.585,0.107
14.590,0.070
14.595,-0.029
14.600,0.059
14.605,0.097
14.610,-0.014
14.615,0.024
14.620,0.112
14.625,0.010
14.630,-0.026
14.635,0.089
14.640,0.050
14.645,-0.043
14.650,0.051
14.655,0.084
14.660,-0.035
14.665,0.003
14.670,0.099
14.675,0.005
14.680,-0.034
14.685,0.077
14.690,0.038
14.695,-0.054
14.700,0.040
14.705,0.072
14.710,-0.046
14.715,-0.011
14.720,0.080
14.725,-0.015
14.730,-0.044
14.735,0.074
14.740,0.032
14.745,-0.066
14.750,0.028
14.755,0.064
14.760,-0.049
14.765,-0.014
14.770,0.070
14.775,-0.030
14.780,-0.066
14.785,0.047
14.790,0.011
14.795,-0.078
14.800,0.019
14.805,0.050
14.810,-0.069
14.815,-0.029
14.820,0.057
14.825,-0.047
14.830,-0.085
14.835,0.019
14.840,-0.027
14.845,-0.119
14.850,-0.022
14.855,0.017
14.860,-0.087
14.865,-0.039
14.870,0.048
14.875,-0.053
14.880,-0.082
14.885,0.030
14.890,-0.018
14.895,-0.112
14.900,-0.018
14.905,0.018
14.910,-0.078
14.915,-0.019
14.920,0.085
14.925,0.004
14.930,-0.020
14.935,0.092
14.940,0.044
14.945,-0.050
14.950,0.041
14.955,0.068
14.960,-0.034
14.965,-0.006
14.970,-0.022
14.975,-0.309
14.980,-0.565
14.985,-0.635
14.990,-0.593
14.995,-0.286
15.000,0.132
15.005,0.271
15.010,0.253
15.015,0.394
15.020,0.526
15.025,0.438
15.030,0.386
15.035,0.444
15.040,0.312
15.045,0.103
15.050,0.091
15.055,0.060
15.060,-0.070
15.065,-0.033
15.070,0.048
15.075,-0.050
15.080,-0.083
15.085,0.025
15.090,-0.019
15.095,-0.104
15.100,-0.007
15.105,0.016
15.110,-0.098
15.115,-0.052
15.120,0.032
15.125,-0.070
15.130,-0.097
15.135,0.018
15.140,-0.030
15.145,-0.120
15.150,-0.022
15.155,0.002
15.160,-0.113
15.165,-0.070
15.170,0.012
15.175,-0.090
15.180,-0.118
15.185,-0.012
15.190,-0.065
15.195,-0.155
15.200,-0.063
15.205,-0.047
15.210,-0.171
15.215,-0.133
15.220,-0.059
15.225,-0.174
15.230,-0.206
15.235,-0.103
15.240,-0.163
15.245,-0.254
15.250,-0.159
15.255,-0.138
15.260,-0.249
15.265,-0.199
15.270,-0.114
15.275,-0.210
15.280,-0.221
15.285,-0.096
15.290,-0.131
15.295,-0.192
15.300,-0.058
15.305,-0.002
15.310,-0.085
15.315,-0.002
15.320,0.112
15.325,0.034
15.330,0.037
15.335,0.167
15.340,0.129
15.345,0.066
15.350,0.178
15.355,0.199
15.360,0.088
15.365,0.136
15.370,0.214
15.375,0.109
15.380,0.084
15.385,0.193
15.390,0.139
15.395,0.055
15.400,0.153
15.405,0.169
15.410,0.050
15.415,0.094
15.420,0.170
15.425,0.061
15.430,0.040
15.435,0.148
15.440,0.089
15.445,0.004
15.450,0.100
15.455,0.106
15.460,-0.012
15.465,0.041
15.470,0.119
15.475,0.013
15.480,-0.008
15.485,0.099
15.490,0.042
15.495,-0.036
15.500,0.068
15.505,0.083
15.510,-0.029
15.515,0.021
15.520,0.098
15.525,-0.004
15.530,-0.018
15.535,0.093
15.540,0.038
15.545,-0.039
15.550,0.064
15.555,0.074
15.560,-0.038
15.565,0.017
15.570,0.088
15.575,-0.019
15.580,-0.033
15.585,0.081
15.590,0.025
15.595,-0.053
15.600,0.050
15.605,0.056
15.610,-0.061
15.615,-0.005
15.620,0.072
15.625,-0.032
15.630,-0.047
15.635,0.065
15.640,0.010
15.645,-0.067
15.650,0.039
15.655,0.050
15.660,-0.069
15.665,-0.016
15.670,0.061
15.675,-0.048
15.680,-0.060
15.685,0.057
15.690,0.000
15.695,-0.073
15.700,0.029
15.705,0.035
15.710,-0.077
15.715,-0.017
15.720,0.055
15.725,-0.057
15.730,-0.077
15.735,0.020
15.740,-0.050
15.745,-0.123
15.750,-0.018
15.755,-0.011
15.760,-0.115
15.765,-0.044
15.770,0.040
15.775,-0.062
15.780,-0.068
15.785,0.042
15.790,-0.030
15.795,-0.112
15.800,-0.007
15.805,0.001
15.810,-0.106
15.815,-0.036
15.820,0.052
15.825,-0.037
15.830,-0.029
15.835,0.089
15.840,0.028
15.845,-0.049
15.850,0.053
15.855,0.058
15.860,-0.056
15.865,0.017
15.870,0.087
15.875,-0.105
15.880,-0.290
15.885,-0.403
15.890,-0.670
15.895,-0.722
15.900,-0.257
15.905,0.117
15.910,0.146
15.915,0.296
15.920,0.469
15.925,0.411
15.930,0.417
15.935,0.504
15.940,0.393
15.945,0.247
15.950,0.237
15.955,0.123
15.960,-0.058
15.965,-0.017
15.970,0.053
15.975,-0.058
15.980,-0.071
15.985,0.035
15.990,-0.029
15.995,-0.101
16.000,0.005
16.005,0.009
16.010,-0.104
16.015,-0.042
16.020,0.032
16.025,-0.072
16.030,-0.076
16.035,0.030
16.040,-0.037
16.045,-0.108
16.050,-0.002
16.055,-0.004
16.060,-0.119
16.065,-0.058
16.070,0.008
16.075,-0.099
16.080,-0.100
16.085,0.005
16.090,-0.064
16.095,-0.135
16.100,-0.035
16.105,-0.040
16.110,-0.155
16.115,-0.099
16.120,-0.043
16.125,-0.161
16.130,-0.172
16.135,-0.074
16.140,-0.150
16.145,-0.229
16.150,-0.132
16.155,-0.138
16.160,-0.249
16.165,-0.181
16.170,-0.112
16.175,-0.220
16.180,-0.216
16.185,-0.103
16.190,-0.160
16.195,-0.206
16.200,-0.072
16.205,-0.046
16.210,-0.124
16.215,-0.023
16.220,0.077
16.225,-0.001
16.230,0.028
16.235,0.160
16.240,0.108
16.245,0.057
16.250,0.182
16.255,0.188
16.260,0.085
16.265,0.158
16.270,0.222
16.275,0.111
16.280,0.115
16.285,0.220
16.290,0.143
16.295,0.074
16.300,0.181
16.305,0.176
16.310,0.062
16.315,0.123
16.320,0.181
16.325,0.066
16.330,0.061
16.335,0.165
16.340,0.089
16.345,0.016
16.350,0.120
16.355,0.113
16.360,0.003
16.365,0.072
16.370,0.131
16.375,0.013
16.380,0.014
16.385,0.118
16.390,0.042
16.395,-0.027
16.400,0.080
16.405,0.074
16.410,-0.032
16.415,0.040
16.420,0.101
16.425,-0.012
16.430,-0.007
16.435,0.100
16.440,0.028
16.445,-0.036
16.450,0.070
16.455,0.061
16.460,-0.044
16.465,0.030
16.470,0.090
16.475,-0.022
16.480,-0.017
16.485,0.084
16.490,0.010
16.495,-0.048
16.500,0.062
16.505,0.050
16.510,-0.058
16.515,0.015
16.520,0.074
16.525,-0.036
16.530,-0.026
16.535,0.075
16.540,-0.005
16.545,-0.066
16.550,0.044
16.555,0.036
16.560,-0.069
16.565,0.001
16.570,0.055
16.575,-0.057
16.580,-0.044
16.585,0.061
16.590,-0.018
16.595,-0.075
16.600,0.035
16.605,0.018
16.610,-0.086
16.615,-0.010
16.620,0.047
16.625,-0.064
16.630,-0.054
16.635,0.049
16.640,-0.039
16.645,-0.111
16.650,-0.005
16.655,-0.019
16.660,-0.127
16.665,-0.053
16.670,0.012
16.675,-0.082
16.680,-0.064
16.685,0.038
16.690,-0.038
16.695,-0.095
16.700,0.011
16.705,-0.008
16.710,-0.116
16.715,-0.040
16.720,0.024
16.725,-0.072
16.730,-0.046
16.735,0.071
16.740,0.010
16.745,-0.040
16.750,0.069
16.755,0.050
16.760,-0.056
16.765,0.021
16.770,0.074
16.775,-0.031
16.780,-0.029
16.785,-0.018
16.790,-0.276
16.795,-0.558
16.800,-0.639
16.805,-0.588
16.810,-0.310
16.815,0.101
16.820,0.279
16.825,0.264
16.830,0.370
16.835,0.512
16.840,0.443
16.845,0.369
16.850,0.434
16.855,0.340
16.860,0.116
16.865,0.078
16.870,0.066
16.875,-0.063
16.880,-0.049
16.885,0.048
16.890,-0.034
16.895,-0.091
16.900,0.017
16.905,-0.003
16.910,-0.108
16.915,-0.027
16.920,0.027
16.925,-0.086
16.930,-0.068
16.935,0.037
16.940,-0.047
16.945,-0.102
16.950,0.011
16.955,-0.008
16.960,-0.114
16.965,-0.039
16.970,0.010
16.975,-0.102
16.980,-0.086
16.985,0.009
16.990,-0.077
16.995,-0.127
17.000,-0.014
17.005,-0.038
17.010,-0.145
17.015,-0.071
17.020,-0.030
17.025,-0.154
17.030,-0.144
17.035,-0.052
17.040,-0.147
17.045,-0.211
17.050,-0.107
17.055,-0.134
17.060,-0.240
17.065,-0.165
17.070,-0.118
17.075,-0.231
17.080,-0.212
17.085,-0.116
17.090,-0.197
17.095,-0.236
17.100,-0.108
17.105,-0.110
17.110,-0.183
17.115,-0.071
17.120,0.004
17.125,-0.076
17.130,-0.017
17.135,0.113
17.140,0.052
17.145,0.030
17.150,0.166
17.155,0.157
17.160,0.070
17.165,0.163
17.170,0.216
17.175,0.104
17.180,0.129
17.185,0.228
17.190,0.139
17.195,0.087
17.200,0.196
17.205,0.167
17.210,0.065
17.215,0.143
17.220,0.183
17.225,0.066
17.230,0.085
17.235,0.177
17.240,0.084
17.245,0.036
17.250,0.146
17.255,0.110
17.260,0.006
17.265,0.088
17.270,0.126
17.275,0.009
17.280,0.032
17.285,0.126
17.290,0.037
17.295,-0.009
17.300,0.102
17.305,0.072
17.310,-0.028
17.315,0.058
17.320,0.099
17.325,-0.017
17.330,0.011
17.335,0.104
17.340,0.013
17.345,-0.023
17.350,0.089
17.355,0.051
17.360,-0.046
17.365,0.043
17.370,0.082
17.375,-0.033
17.380,-0.004
17.385,0.087
17.390,-0.007
17.395,-0.049
17.400,0.067
17.405,0.036
17.410,-0.059
17.415,0.027
17.420,0.064
17.425,-0.052
17.430,-0.024
17.435,0.071
17.440,-0.018
17.445,-0.058
17.450,0.055
17.455,0.020
17.460,-0.076
17.465,0.019
17.470,0.060
17.475,-0.061
17.480,-0.033
17.485,0.059
17.490,-0.034
17.495,-0.072
17.500,0.043
17.505,0.011
17.510,-0.090
17.515,-0.005
17.520,0.037
17.525,-0.075
17.530,-0.047
17.535,0.047
17.540,-0.044
17.545,-0.086
17.550,0.021
17.555,-0.028
17.560,-0.137
17.565,-0.047
17.570,-0.008
17.575,-0.123
17.580,-0.079
17.585,0.029
17.590,-0.059
17.595,-0.096
17.600,0.023
17.605,-0.008
17.610,-0.105
17.615,-0.020
17.620,0.008
17.625,-0.111
17.630,-0.069
17.635,0.038
17.640,-0.041
17.645,-0.061
17.650,0.070
17.655,0.044
17.660,-0.042
17.665,0.050
17.670,0.077
17.675,-0.041
17.680,-0.001
17.685,0.094
17.690,-0.001
17.695,-0.091
17.700,-0.126
17.705,-0.384
17.710,-0.707
17.715,-0.687
17.720,-0.378
17.725,-0.086
17.730,0.152
17.735,0.334
17.740,0.345
17.745,0.377
17.750,0.516
17.755,0.471
17.760,0.345
17.765,0.378
17.770,0.314
17.775,0.083
17.780,0.030
17.785,0.079
17.790,-0.023
17.795,-0.059
17.800,0.047
17.805,0.004
17.810,-0.088
17.815,0.003
17.820,0.034
17.825,-0.082
17.830,-0.050
17.835,0.033
17.840,-0.063
17.845,-0.092
17.850,0.023
17.855,-0.019
17.860,-0.106
17.865,-0.005
17.870,0.026
17.875,-0.094
17.880,-0.055
17.885,0.034
17.890,-0.064
17.895,-0.097
17.900,0.009
17.905,-0.045
17.910,-0.137
17.915,-0.038
17.920,-0.021
17.925,-0.148
17.930,-0.112
17.935,-0.041
17.940,-0.153
17.945,-0.183
17.950,-0.072
17.955,-0.122
17.960,-0.217
17.965,-0.127
17.970,-0.108
17.975,-0.228
17.980,-0.189
17.985,-0.108
17.990,-0.211
17.995,-0.240
18.000,-0.125
18.005,-0.164
18.010,-0.239
18.015,-0.121
18.020,-0.071
18.025,-0.164
18.030,-0.094
18.035,0.025
18.040,-0.038
18.045,-0.024
18.050,0.122
18.055,0.100
18.060,0.033
18.065,0.141
18.070,0.177
18.075,0.076
18.080,0.129
18.085,0.219
18.090,0.123
18.095,0.097
18.100,0.205
18.105,0.152
18.110,0.063
18.115,0.162
18.120,0.184
18.125,0.062
18.130,0.105
18.135,0.187
18.140,0.082
18.145,0.054
18.150,0.161
18.155,0.107
18.160,0.017
18.165,0.110
18.170,0.129
18.175,0.014
18.180,0.057
18.185,0.136
18.190,0.029
18.195,0.000
18.200,0.112
18.205,0.063
18.210,-0.021
18.215,0.079
18.220,0.094
18.225,-0.026
18.230,0.024
18.235,0.110
18.240,0.006
18.245,-0.017
18.250,0.098
18.255,0.048
18.260,-0.038
18.265,0.061
18.270,0.088
18.275,-0.023
18.280,0.019
18.285,0.096
18.290,-0.005
18.295,-0.030
18.300,0.075
18.305,0.021
18.310,-0.060
18.315,0.044
18.320,0.061
18.325,-0.060
18.330,-0.009
18.335,0.072
18.340,-0.038
18.345,-0.064
18.350,0.044
18.355,-0.007
18.360,-0.083
18.365,0.024
18.370,0.048
18.375,-0.065
18.380,-0.019
18.385,0.057
18.390,-0.044
18.395,-0.058
18.400,0.055
18.405,0.000
18.410,-0.083
18.415,0.016
18.420,0.029
18.425,-0.084
18.430,-0.028
18.435,0.052
18.440,-0.053
18.445,-0.074
18.450,0.037
18.455,-0.018
18.460,-0.107
18.465,-0.013
18.470,-0.003
18.475,-0.122
18.480,-0.072
18.485,0.014
18.490,-0.075
18.495,-0.076
18.500,0.038
18.505,-0.027
18.510,-0.101
18.515,0.007
18.520,0.011
18.525,-0.107
18.530,-0.054
18.535,0.020
18.540,-0.076
18.545,-0.074
18.550,0.054
18.555,0.014
18.560,-0.051
18.565,0.058
18.570,0.070
18.575,-0.049
18.580,-0.001
18.585,0.076
18.590,-0.015
18.595,-0.015
18.600,0.053
18.605,-0.149
18.610,-0.455
18.615,-0.597
18.620,-0.703
18.625,-0.601
18.630,-0.137
18.635,0.179
18.640,0.182
18.645,0.291
18.650,0.495
18.655,0.482
18.660,0.412
18.665,0.482
18.670,0.431
18.675,0.224
18.680,0.165
18.685,0.144
18.690,-0.016
18.695,-0.040
18.700,0.061
18.705,-0.013
18.710,-0.088
18.715,0.015
18.720,0.019
18.725,-0.089
18.730,-0.027
18.735,0.045
18.740,-0.064
18.745,-0.074
18.750,0.039
18.755,-0.024
18.760,-0.107
18.765,-0.003
18.770,0.010
18.775,-0.101
18.780,-0.042
18.785,0.031
18.790,-0.078
18.795,-0.090
18.800,0.015
18.805,-0.051
18.810,-0.122
18.815,-0.018
18.820,-0.020
18.825,-0.141
18.830,-0.091
18.835,-0.028
18.840,-0.142
18.845,-0.158
18.850,-0.056
18.855,-0.130
18.860,-0.212
18.865,-0.110
18.870,-0.109
18.875,-0.232
18.880,-0.180
18.885,-0.116
18.890,-0.227
18.895,-0.223
18.900,-0.101
18.905,-0.163
18.910,-0.230
18.915,-0.112
18.920,-0.095
18.925,-0.187
18.930,-0.099
18.935,0.000
18.940,-0.075
18.945,-0.043
18.950,0.100
18.955,0.067
18.960,0.026
18.965,0.154
18.970,0.175
18.975,0.074
18.980,0.143
18.985,0.223
18.990,0.122
18.995,0.121
19.000,0.229
19.005,0.154
19.010,0.082
19.015,0.191
19.020,0.193
19.025,0.081
19.030,0.134
19.035,0.187
19.040,0.074
19.045,0.070
19.050,0.175
19.055,0.108
19.060,0.032
19.065,0.123
19.070,0.119
19.075,0.009
19.080,0.070
19.085,0.134
19.090,0.019
19.095,0.012
19.100,0.114
19.105,0.042
19.110,-0.029
19.115,0.077
19.120,0.080
19.125,-0.026
19.130,0.041
19.135,0.105
19.140,-0.008
19.145,-0.008
19.150,0.099
19.155,0.025
19.160,-0.040
19.165,0.078
19.170,0.080
19.175,-0.035
19.180,0.027
19.185,0.097
19.190,-0.011
19.195,-0.016
19.200,0.093
19.205,0.028
19.210,-0.041
19.215,0.065
19.220,0.061
19.225,-0.046
19.230,0.016
19.235,0.070
19.240,-0.038
19.245,-0.030
19.250,0.071
19.255,-0.008
19.260,-0.077
19.265,0.030
19.270,0.031
19.275,-0.073
19.280,-0.009
19.285,0.053
19.290,-0.055
19.295,-0.053
19.300,0.054
19.305,-0.010
19.310,-0.072
19.315,0.040
19.320,0.039
19.325,-0.071
19.330,-0.002
19.335,0.064
19.340,-0.049
19.345,-0.048
19.350,0.050
19.355,-0.031
19.360,-0.093
19.365,0.018
19.370,-0.003
19.375,-0.125
19.380,-0.053
19.385,0.014
19.390,-0.093
19.395,-0.078
19.400,0.046
19.405,-0.019
19.410,-0.092
19.415,0.012
19.420,0.010
19.425,-0.102
19.430,-0.039
19.435,0.017
19.440,-0.105
19.445,-0.096
19.450,0.027
19.455,-0.026
19.460,-0.066
19.465,0.061
19.470,0.068
19.475,-0.033
19.480,0.029
19.485,0.082
19.490,-0.029
19.495,-0.022
19.500,0.093
19.505,0.003
19.510,-0.162
19.515,-0.244
19.520,-0.491
19.525,-0.799
19.530,-0.683
19.535,-0.271
19.540,-0.043
19.545,0.130
19.550,0.365
19.555,0.419
19.560,0.452
19.565,0.601
19.570,0.556
19.575,0.370
19.580,0.338
19.585,0.266
19.590,0.038
19.595,-0.023
19.600,0.055
19.605,-0.025
19.610,-0.080
19.615,0.032
19.620,0.015
19.625,-0.094
19.630,-0.024
19.635,0.031
19.640,-0.076
19.645,-0.066
19.650,0.033
19.655,-0.051
19.660,-0.113
19.665,0.001
19.670,-0.012
19.675,-0.118
19.680,-0.036
19.685,0.020
19.690,-0.091
19.695,-0.074
19.700,0.029
19.705,-0.059
19.710,-0.124
19.715,-0.012
19.720,-0.027
19.725,-0.141
19.730,-0.072
19.735,-0.018
19.740,-0.135
19.745,-0.131
19.750,-0.033
19.755,-0.120
19.760,-0.184
19.765,-0.077
19.770,-0.102
19.775,-0.214
19.780,-0.141
19.785,-0.100
19.790,-0.222
19.795,-0.207
19.800,-0.106
19.805,-0.188
19.810,-0.240
19.815,-0.117
19.820,-0.117
19.825,-0.212
19.830,-0.122
19.835,-0.043
19.840,-0.125
19.845,-0.077
19.850,0.056
19.855,0.010
19.860,-0.015
19.865,0.114
19.870,0.124
19.875,0.054
19.880,0.152
19.885,0.221
19.890,0.119
19.895,0.137
19.900,0.234
19.905,0.145
19.910,0.091
19.915,0.203
19.920,0.188
19.925,0.088
19.930,0.160
19.935,0.205
19.940,0.084
19.945,0.090
19.950,0.189
19.955,0.105
19.960,0.048
19.965,0.155
19.970,0.122
19.975,0.008
19.980,0.083
19.985,0.128
19.990,0.012
19.995,0.027
20.000,0.118
20.005,0.026
20.010,-0.025
20.015,0.087
20.020,0.060
20.025,-0.042
20.030,0.044
20.035,0.096
20.040,-0.017
20.045,0.001
20.050,0.097
20.055,0.010
20.060,-0.033
20.065,0.083
20.070,0.057
20.075,-0.043
20.080,0.042
20.085,0.089
20.090,-0.031
20.095,-0.016
20.100,0.085
20.105,0.008
20.110,-0.035
20.115,0.077
20.120,0.045
20.125,-0.062
20.130,0.023
20.135,0.069
20.140,-0.046
20.145,-0.018
20.150,0.080
20.155,-0.013
20.160,-0.060
20.165,0.053
20.170,0.026
20.175,-0.068
20.180,0.020
20.185,0.061
20.190,-0.063
20.195,-0.045
20.200,0.054
20.205,-0.030
20.210,-0.072
20.215,0.044
20.220,0.015
20.225,-0.085
20.230,0.004
20.235,0.049
20.240,-0.063
20.245,-0.039
20.250,0.045
20.255,-0.052
20.260,-0.095
20.265,0.024
20.270,-0.002
20.275,-0.105
20.280,-0.030
20.285,0.000
20.290,-0.118
20.295,-0.087
20.300,0.018
20.305,-0.058
20.310,-0.090
20.315,0.024
20.320,-0.007
20.325,-0.101
20.330,-0.014
20.335,0.022
20.340,-0.101
20.345,-0.082
20.350,0.013
20.355,-0.063
20.360,-0.090
20.365,0.039
20.370,0.030
20.375,-0.059
20.380,0.026
20.385,0.067
20.390,-0.054
20.395,-0.032
20.400,0.062
20.405,-0.017
20.410,-0.050
20.415,0.006
20.420,-0.182
20.425,-0.502
20.430,-0.651
20.435,-0.703
20.440,-0.572
20.445,-0.142
20.450,0.182
20.455,0.218
20.460,0.332
20.465,0.564
20.470,0.575
20.475,0.462
20.480,0.483
20.485,0.418
20.490,0.180
20.495,0.089
20.500,0.097
20.505,-0.027
20.510,-0.067
20.515,0.043
20.520,0.001
20.525,-0.102
20.530,-0.017
20.535,0.019
20.540,-0.097
20.545,-0.065
20.550,0.026
20.555,-0.068
20.560,-0.097
20.565,0.025
20.570,-0.011
20.575,-0.111
20.580,-0.022
20.585,0.015
20.590,-0.101
20.595,-0.064
20.600,0.031
20.605,-0.070
20.610,-0.113
20.615,0.007
20.620,-0.030
20.625,-0.133
20.630,-0.042
20.635,-0.011
20.640,-0.137
20.645,-0.112
20.650,-0.029
20.655,-0.130
20.660,-0.168
20.665,-0.056
20.670,-0.104
20.675,-0.212
20.680,-0.128
20.685,-0.102
20.690,-0.229
20.695,-0.200
20.700,-0.111
20.705,-0.203
20.710,-0.233
20.715,-0.124
20.720,-0.164
20.725,-0.248
20.730,-0.143
20.735,-0.088
20.740,-0.172
20.745,-0.100
20.750,0.025
20.755,-0.042
20.760,-0.044
20.765,0.099
20.770,0.088
20.775,0.027
20.780,0.148
20.785,0.199
20.790,0.097
20.795,0.143
20.800,0.238
20.805,0.145
20.810,0.114
20.815,0.227
20.820,0.184
20.825,0.089
20.830,0.180
20.835,0.206
20.840,0.088
20.845,0.127
20.850,0.210
20.855,0.104
20.860,0.066
20.865,0.174
20.870,0.127
20.875,0.032
20.880,0.116
20.885,0.136
20.890,0.021
20.895,0.056
20.900,0.132
20.905,0.031
20.910,0.001
20.915,0.109
20.920,0.066
20.925,-0.017
20.930,0.081
20.935,0.105
20.940,-0.012
20.945,0.030
20.950,0.116
20.955,0.019
20.960,-0.013
20.965,0.098
20.970,0.059
20.975,-0.027
20.980,0.067
20.985,0.091
20.990,-0.027
20.995,0.010
21.000,0.090
21.005,-0.011
21.010,-0.037
21.015,0.077
21.020,0.031
21.025,-0.054
21.030,0.049
21.035,0.077
21.040,-0.041
21.045,0.000
21.050,0.084
21.055,-0.020
21.060,-0.044
21.065,0.074
21.070,0.023
21.075,-0.067
21.080,0.028
21.085,0.052
21.090,-0.060
21.095,-0.015
21.100,0.067
21.105,-0.036
21.110,-0.061
21.115,0.055
21.120,0.004
21.125,-0.082
21.130,0.019
21.135,0.040
21.140,-0.077
21.145,-0.029
21.150,0.057
21.155,-0.048
21.160,-0.077
21.165,0.038
21.170,-0.007
21.175,-0.095
21.180,0.003
21.185,0.027
21.190,-0.090
21.195,-0.053
21.200,0.016
21.205,-0.093
21.210,-0.116
21.215,-0.008
21.220,-0.060
21.225,-0.134
21.230,-0.018
21.235,0.016
21.240,-0.094
21.245,-0.047
21.250,0.035
21.255,-0.074
21.260,-0.106
21.265,0.000
21.270,-0.059
21.275,-0.139
21.280,-0.019
21.285,0.019
21.290,-0.077
21.295,-0.009
21.300,0.081
21.305,-0.019
21.310,-0.039
21.315,0.069
21.320,0.015
21.325,-0.064
21.330,0.042
21.335,0.061
21.340,-0.108
21.345,-0.200
21.350,-0.323
21.355,-0.643
21.360,-0.741
21.365,-0.369
21.370,-0.015
21.375,0.105
21.380,0.297
21.385,0.431
21.390,0.395
21.395,0.470
21.400,0.536
21.405,0.386
21.410,0.293
21.415,0.284
21.420,0.095
21.425,-0.061
21.430,0.021
21.435,0.030
21.440,-0.089
21.445,-0.037
21.450,0.037
21.455,-0.072
21.460,-0.087
21.465,0.025
21.470,-0.031
21.475,-0.110
21.480,-0.005
21.485,0.010
21.490,-0.103
21.495,-0.048
21.500,0.032
21.505,-0.071
21.510,-0.087
21.515,0.024
21.520,-0.031
21.525,-0.107
21.530,-0.007
21.535,-0.001
21.540,-0.115
21.545,-0.061
21.550,0.012
21.555,-0.095
21.560,-0.114
21.565,-0.007
21.570,-0.068
21.575,-0.150
21.580,-0.052
21.585,-0.052
21.590,-0.178
21.595,-0.129
21.600,-0.064
21.605,-0.182
21.610,-0.203
21.615,-0.100
21.620,-0.168
21.625,-0.251
21.630,-0.143
21.635,-0.132
21.640,-0.253
21.645,-0.195
21.650,-0.111
21.655,-0.206
21.660,-0.197
21.665,-0.061
21.670,-0.095
21.675,-0.140
21.680,-0.002
21.685,0.041
21.690,-0.041
21.695,0.047
21.700,0.151
21.705,0.068
21.710,0.075
21.715,0.203
21.720,0.156
21.725,0.086
21.730,0.195
21.735,0.208
21.740,0.096
21.745,0.155
21.750,0.228
21.755,0.115
21.760,0.102
21.765,0.211
21.770,0.144
21.775,0.063
21.780,0.165
21.785,0.169
21.790,0.050
21.795,0.101
21.800,0.167
21.805,0.058
21.810,0.049
21.815,0.154
21.820,0.085
21.825,0.008
21.830,0.109
21.835,0.109
21.840,-0.004
21.845,0.052
21.850,0.120
21.855,0.016
21.860,0.006
21.865,0.110
21.870,0.046
21.875,-0.025
21.880,0.081
21.885,0.085
21.890,-0.027
21.895,0.037
21.900,0.103
21.905,-0.008
21.910,-0.010
21.915,0.099
21.920,0.032
21.925,-0.038
21.930,0.066
21.935,0.068
21.940,-0.041
21.945,0.021
21.950,0.088
21.955,-0.019
21.960,-0.023
21.965,0.083
21.970,0.014
21.975,-0.055
21.980,0.055
21.985,0.055
21.990,-0.058
21.995,0.006
22.000,0.073
22.005,-0.040
22.010,-0.047
22.015,0.061
22.020,-0.002
22.025,-0.072
22.030,0.033
22.035,0.034
22.040,-0.077
22.045,-0.013
22.050,0.056
22.055,-0.053
22.060,-0.058
22.065,0.050
22.070,-0.014
22.075,-0.082
22.080,0.026
22.085,0.025
22.090,-0.085
22.095,-0.020
22.100,0.044
22.105,-0.068
22.110,-0.068
22.115,0.036
22.120,-0.043
22.125,-0.122
22.130,-0.016
22.135,-0.018
22.140,-0.131
22.145,-0.059
22.150,0.026
22.155,-0.069
22.160,-0.068
22.165,0.041
22.170,-0.025
22.175,-0.099
22.180,-0.003
22.185,-0.008
22.190,-0.116
22.195,-0.044
22.200,0.035
22.205,-0.061
22.210,-0.045
22.215,0.080
22.220,0.019
22.225,-0.046
22.230,0.060
22.235,0.052
22.240,-0.058
22.245,0.015
22.250,0.089
22.255,-0.024
22.260,-0.084
22.265,-0.135
22.270,-0.426
22.275,-0.710
22.280,-0.642
22.285,-0.340
22.290,-0.055
22.295,0.195
22.300,0.359
22.305,0.349
22.310,0.399
22.315,0.521
22.320,0.436
22.325,0.331
22.330,0.379
22.335,0.274
22.340,0.047
22.345,0.028
22.350,0.053
22.355,-0.064
22.360,-0.061
22.365,0.044
22.370,-0.033
22.375,-0.100
22.380,0.010
22.385,0.001
22.390,-0.109
22.395,-0.037
22.400,0.027
22.405,-0.083
22.410,-0.074
22.415,0.030
22.420,-0.044
22.425,-0.107
22.430,0.005
22.435,-0.002
22.440,-0.110
22.445,-0.038
22.450,0.019
22.455,-0.100
22.460,-0.092
22.465,0.015
22.470,-0.064
22.475,-0.127
22.480,-0.021
22.485,-0.036
22.490,-0.147
22.495,-0.087
22.500,-0.039
22.505,-0.157
22.510,-0.157
22.515,-0.061
22.520,-0.149
22.525,-0.219
22.530,-0.115
22.535,-0.136
22.540,-0.249
22.545,-0.176
22.550,-0.122
22.555,-0.234
22.560,-0.222
22.565,-0.114
22.570,-0.181
22.575,-0.228
22.580,-0.105
22.585,-0.095
22.590,-0.169
22.595,-0.058
22.600,0.031
22.605,-0.051
22.610,-0.007
22.615,0.129
22.620,0.076
22.625,0.038
22.630,0.169
22.635,0.171
22.640,0.076
22.645,0.161
22.650,0.221
22.655,0.107
22.660,0.116
22.665,0.222
22.670,0.145
22.675,0.084
22.680,0.194
22.685,0.180
22.690,0.072
22.695,0.142
22.700,0.190
22.705,0.071
22.710,0.079
22.715,0.179
22.720,0.095
22.725,0.034
22.730,0.142
22.735,0.119
22.740,0.009
22.745,0.084
22.750,0.136
22.755,0.021
22.760,0.034
22.765,0.134
22.770,0.048
22.775,-0.008
22.780,0.106
22.785,0.087
22.790,-0.018
22.795,0.057
22.800,0.105
22.805,-0.009
22.810,0.009
22.815,0.110
22.820,0.029
22.825,-0.025
22.830,0.084
22.835,0.061
22.840,-0.044
22.845,0.037
22.850,0.088
22.855,-0.030
22.860,-0.014
22.865,0.086
22.870,0.002
22.875,-0.049
22.880,0.065
22.885,0.042
22.890,-0.064
22.895,0.016
22.900,0.067
22.905,-0.045
22.910,-0.025
22.915,0.078
22.920,0.000
22.925,-0.051
22.930,0.056
22.935,0.033
22.940,-0.069
22.945,0.009
22.950,0.053
22.955,-0.063
22.960,-0.044
22.965,0.058
22.970,-0.024
22.975,-0.075
22.980,0.036
22.985,0.014
22.990,-0.088
22.995,-0.001
23.000,0.049
23.005,-0.070
23.010,-0.052
23.015,0.049
23.020,-0.033
23.025,-0.081
23.030,0.028
23.035,-0.006
23.040,-0.123
23.045,-0.045
23.050,0.000
23.055,-0.121
23.060,-0.091
23.065,0.027
23.070,-0.051
23.075,-0.097
23.080,0.021
23.085,-0.004
23.090,-0.109
23.095,-0.029
23.100,0.015
23.105,-0.101
23.110,-0.075
23.115,0.038
23.120,-0.030
23.125,-0.060
23.130,0.069
23.135,0.051
23.140,-0.052
23.145,0.029
23.150,0.072
23.155,-0.047
23.160,-0.026
23.165,0.082
23.170,0.000
23.175,-0.102
23.180,-0.144
23.185,-0.398
23.190,-0.720
23.195,-0.684
23.200,-0.341
23.205,-0.055
23.210,0.153
23.215,0.347
23.220,0.359
23.225,0.360
23.230,0.495
23.235,0.461
23.240,0.328
23.245,0.360
23.250,0.309
23.255,0.080
23.260,0.015
23.265,0.070
23.270,-0.026
23.275,-0.072
23.280,0.038
23.285,0.004
23.290,-0.098
23.295,-0.011
23.300,0.029
23.305,-0.087
23.310,-0.060
23.315,0.034
23.320,-0.059
23.325,-0.101
23.330,0.014
23.335,-0.016
23.340,-0.112
23.345,-0.022
23.350,0.019
23.355,-0.095
23.360,-0.061
23.365,0.033
23.370,-0.068
23.375,-0.116
23.380,-0.004
23.385,-0.038
23.390,-0.139
23.395,-0.055
23.400,-0.021
23.405,-0.144
23.410,-0.122
23.415,-0.029
23.420,-0.126
23.425,-0.181
23.430,-0.077
23.435,-0.112
23.440,-0.213
23.445,-0.134
23.450,-0.107
23.455,-0.230
23.460,-0.203
23.465,-0.114
23.470,-0.205
23.475,-0.237
23.480,-0.116
23.485,-0.146
23.490,-0.231
23.495,-0.121
23.500,-0.065
23.505,-0.160
23.510,-0.099
23.515,0.031
23.520,-0.028
23.525,-0.034
23.530,0.115
23.535,0.109
23.540,0.032
23.545,0.141
23.550,0.195
23.555,0.094
23.560,0.138
23.565,0.236
23.570,0.144
23.575,0.104
23.580,0.211
23.585,0.170
23.590,0.073
23.595,0.159
23.600,0.190
23.605,0.072
23.610,0.103
23.615,0.190
23.620,0.094
23.625,0.049
23.630,0.155
23.635,0.117
23.640,0.023
23.645,0.110
23.650,0.136
23.655,0.016
23.660,0.047
23.665,0.134
23.670,0.043
23.675,0.013
23.680,0.118
23.685,0.069
23.690,-0.024
23.695,0.069
23.700,0.096
23.705,-0.021
23.710,0.019
23.715,0.112
23.720,0.018
23.725,-0.018
23.730,0.092
23.735,0.053
23.740,-0.031
23.745,0.063
23.750,0.090
23.755,-0.024
23.760,0.017
23.765,0.106
23.770,0.005
23.775,-0.028
23.780,0.084
23.785,0.035
23.790,-0.056
23.795,0.035
23.800,0.056
23.805,-0.059
23.810,-0.012
23.815,0.082
23.820,-0.014
23.825,-0.044
23.830,0.069
23.835,0.023
23.840,-0.066
23.845,0.031
23.850,0.056
23.855,-0.062
23.860,-0.024
23.865,0.059
23.870,-0.041
23.875,-0.069
23.880,0.044
23.885,-0.001
23.890,-0.085
23.895,0.014
23.900,0.039
23.905,-0.073
23.910,-0.029
23.915,0.054
23.920,-0.049
23.925,-0.078
23.930,0.037
23.935,-0.006
23.940,-0.094
23.945,0.002
23.950,0.021
23.955,-0.105
23.960,-0.073
23.965,0.004
23.970,-0.094
23.975,-0.113
23.980,0.013
23.985,-0.019
23.990,-0.098
23.995,-0.001
24.000,0.024
24.005,-0.090
24.010,-0.053
24.015,0.026
24.020,-0.077
24.025,-0.106
24.030,0.018
24.035,-0.016
24.040,-0.096
24.045,0.022
24.050,0.069
24.055,-0.039
24.060,0.006
24.065,0.084
24.070,-0.023
24.075,-0.049
24.080,0.069
24.085,0.036
24.090,-0.058
24.095,-0.055
24.100,-0.218
24.105,-0.562
24.110,-0.713
24.115,-0.591
24.120,-0.334
24.125,-0.010
24.130,0.249
24.135,0.303
24.140,0.317
24.145,0.469
24.150,0.511
24.155,0.380
24.160,0.383
24.165,0.390
24.170,0.177
24.175,0.046
24.180,0.082
24.185,0.001
24.190,-0.084
24.195,0.016
24.200,0.031
24.205,-0.088
24.210,-0.039
24.215,0.042
24.220,-0.063
24.225,-0.087
24.230,0.029
24.235,-0.021
24.240,-0.112
24.245,-0.015
24.250,0.008
24.255,-0.105
24.260,-0.056
24.265,0.024
24.270,-0.081
24.275,-0.103
24.280,0.007
24.285,-0.044
24.290,-0.128
24.295,-0.034
24.300,-0.018
24.305,-0.133
24.310,-0.084
24.315,-0.007
24.320,-0.116
24.325,-0.140
24.330,-0.032
24.335,-0.094
24.340,-0.186
24.345,-0.092
24.350,-0.086
24.355,-0.209
24.360,-0.165
24.365,-0.099
24.370,-0.218
24.375,-0.243
24.380,-0.131
24.385,-0.182
24.390,-0.260
24.395,-0.156
24.400,-0.136
24.405,-0.240
24.410,-0.176
24.415,-0.081
24.420,-0.158
24.425,-0.142
24.430,0.003
24.435,-0.019
24.440,-0.064
24.445,0.068
24.450,0.110
24.455,0.021
24.460,0.094
24.465,0.187
24.470,0.097
24.475,0.093
24.480,0.212
24.485,0.160
24.490,0.089
24.495,0.194
24.500,0.200
24.505,0.081
24.510,0.132
24.515,0.203
24.520,0.095
24.525,0.077
24.530,0.188
24.535,0.131
24.540,0.050
24.545,0.145
24.550,0.145
24.555,0.026
24.560,0.081
24.565,0.152
24.570,0.040
24.575,0.022
24.580,0.131
24.585,0.070
24.590,-0.010
24.595,0.088
24.600,0.096
24.605,-0.017
24.610,0.037
24.615,0.112
24.620,0.006
24.625,-0.008
24.630,0.104
24.635,0.043
24.640,-0.034
24.645,0.070
24.650,0.076
24.655,-0.042
24.660,0.018
24.665,0.097
24.670,-0.011
24.675,-0.022
24.680,0.094
24.685,0.035
24.690,-0.043
24.695,0.058
24.700,0.063
24.705,-0.046
24.710,0.016
24.715,0.090
24.720,-0.016
24.725,-0.024
24.730,0.085
24.735,0.022
24.740,-0.057
24.745,0.043
24.750,0.048
24.755,-0.061
24.760,0.008
24.765,0.081
24.770,-0.032
24.775,-0.038
24.780,0.073
24.785,0.004
24.790,-0.074
24.795,0.031
24.800,0.037
24.805,-0.075
24.810,-0.011
24.815,0.060
24.820,-0.049
24.825,-0.053
24.830,0.057
24.835,-0.009
24.840,-0.077
24.845,0.031
24.850,0.030
24.855,-0.081
24.860,-0.017
24.865,0.046
24.870,-0.069
24.875,-0.083
24.880,0.015
24.885,-0.056
24.890,-0.124
24.895,-0.013
24.900,-0.002
24.905,-0.097
24.910,-0.024
24.915,0.042
24.920,-0.067
24.925,-0.067
24.930,0.038
24.935,-0.035
24.940,-0.112
24.945,-0.006
24.950,0.006
24.955,-0.091
24.960,-0.013
24.965,0.071
24.970,-0.020
24.975,-0.012
24.980,0.094
24.985,0.021
24.990,-0.048
24.995,0.060
25.000,0.060
25.005,-0.041
25.010,0.012
25.015,-0.016
25.020,-0.309
25.025,-0.536
25.030,-0.617
25.035,-0.620
25.040,-0.302
25.045,0.153
25.050,0.282
25.055,0.270
25.060,0.430
25.065,0.531
25.070,0.426
25.075,0.399
25.080,0.448
25.085,0.295
25.090,0.111
25.095,0.106
25.100,0.041
25.105,-0.081
25.110,-0.015
25.115,0.046
25.120,-0.067
25.125,-0.069
25.130,0.035
25.135,-0.033
25.140,-0.099
25.145,0.006
25.150,-0.002
25.155,-0.108
25.160,-0.034
25.165,0.031
25.170,-0.081
25.175,-0.077
25.180,0.030
25.185,-0.047
25.190,-0.116
25.195,-0.005
25.200,-0.012
25.205,-0.124
25.210,-0.056
25.215,0.002
25.220,-0.108
25.225,-0.103
25.230,-0.001
25.235,-0.078
25.240,-0.146
25.245,-0.041
25.250,-0.055
25.255,-0.172
25.260,-0.110
25.265,-0.055
25.270,-0.174
25.275,-0.180
25.280,-0.084
25.285,-0.166
25.290,-0.238
25.295,-0.136
25.300,-0.148
25.305,-0.256
25.310,-0.187
25.315,-0.123
25.320,-0.224
25.325,-0.208
25.330,-0.090
25.335,-0.146
25.340,-0.182
25.345,-0.043
25.350,-0.023
25.355,-0.095
25.360,0.013
25.365,0.099
25.370,0.009
25.375,0.045
25.380,0.171
25.385,0.108
25.390,0.065
25.395,0.189
25.400,0.183
25.405,0.083
25.410,0.160
25.415,0.216
25.420,0.101
25.425,0.105
25.430,0.205
25.435,0.128
25.440,0.067
25.445,0.175
25.450,0.158
25.455,0.045
25.460,0.114
25.465,0.169
25.470,0.053
25.475,0.057
25.480,0.154
25.485,0.069
25.490,0.009
25.495,0.116
25.500,0.094
25.505,-0.016
25.510,0.057
25.515,0.114
25.520,0.004
25.525,0.015
25.530,0.115
25.535,0.036
25.540,-0.023
25.545,0.088
25.550,0.074
25.555,-0.032
25.560,0.045
25.565,0.098
25.570,-0.016
25.575,-0.003
25.580,0.100
25.585,0.020
25.590,-0.036
25.595,0.076
25.600,0.060
25.605,-0.045
25.610,0.033
25.615,0.086
25.620,-0.030
25.625,-0.014
25.630,0.089
25.635,0.007
25.640,-0.050
25.645,0.059
25.650,0.043
25.655,-0.058
25.660,0.021
25.665,0.069
25.670,-0.047
25.675,-0.027
25.680,0.075
25.685,-0.009
25.690,-0.063
25.695,0.049
25.700,0.030
25.705,-0.074
25.710,0.007
25.715,0.060
25.720,-0.058
25.725,-0.042
25.730,0.062
25.735,-0.019
25.740,-0.073
25.745,0.040
25.750,0.021
25.755,-0.086
25.760,-0.007
25.765,0.049
25.770,-0.070
25.775,-0.057
25.780,0.049
25.785,-0.033
25.790,-0.092
25.795,0.010
25.800,-0.019
25.805,-0.126
25.810,-0.044
25.815,0.008
25.820,-0.097
25.825,-0.063
25.830,0.045
25.835,-0.038
25.840,-0.088
25.845,0.024
25.850,-0.004
25.855,-0.113
25.860,-0.034
25.865,0.014
25.870,-0.090
25.875,-0.050
25.880,0.068
25.885,-0.005
25.890,-0.042
25.895,0.080
25.900,0.057
25.905,-0.050
25.910,0.029
25.915,0.076
25.920,-0.035
25.925,-0.001
25.930,0.082
25.935,-0.104
25.940,-0.339
25.945,-0.457
25.950,-0.661
25.955,-0.660
25.960,-0.174
25.965,0.195
25.970,0.200
25.975,0.320
25.980,0.503
25.985,0.449
25.990,0.398
25.995,0.478
26.000,0.404
26.005,0.230
26.010,0.200
26.015,0.138
26.020,-0.041
26.025,-0.038
26.030,0.061
26.035,-0.031
26.040,-0.081
26.045,0.035
26.050,0.006
26.055,-0.097
26.060,-0.011
26.065,0.031
26.070,-0.086
26.075,-0.057
26.080,0.042
26.085,-0.048
26.090,-0.092
26.095,0.023
26.100,-0.007
26.105,-0.108
26.110,-0.023
26.115,0.018
26.120,-0.099
26.125,-0.074
26.130,0.022
26.135,-0.072
26.140,-0.122
26.145,-0.008
26.150,-0.038
26.155,-0.141
26.160,-0.061
26.165,-0.025
26.170,-0.147
26.175,-0.130
26.180,-0.044
26.185,-0.139
26.190,-0.191
26.195,-0.091
26.200,-0.128
26.205,-0.232
26.210,-0.155
26.215,-0.120
26.220,-0.238
26.225,-0.212
26.230,-0.118
26.235,-0.203
26.240,-0.238
26.245,-0.116
26.250,-0.134
26.255,-0.211
26.260,-0.100
26.265,-0.033
26.270,-0.116
26.275,-0.055
26.280,0.073
26.285,0.016
26.290,0.004
26.295,0.147
26.300,0.135
26.305,0.053
26.310,0.157
26.315,0.207
26.320,0.100
26.325,0.135
26.330,0.228
26.335,0.135
26.340,0.094
26.345,0.202
26.350,0.162
26.355,0.066
26.360,0.153
26.365,0.184
26.370,0.063
26.375,0.091
26.380,0.179
26.385,0.082
26.390,0.040
26.395,0.150
26.400,0.111
26.405,0.007
26.410,0.094
26.415,0.130
26.420,0.009
26.425,0.035
26.430,0.127
26.435,0.033
26.440,-0.007
26.445,0.107
26.450,0.072
26.455,-0.026
26.460,0.065
26.465,0.099
26.470,-0.018
26.475,0.015
26.480,0.106
26.485,0.008
26.490,-0.032
26.495,0.083
26.500,0.049
26.505,-0.043
26.510,0.046
26.515,0.081
26.520,-0.035
26.525,0.001
26.530,0.095
26.535,-0.002
26.540,-0.041
26.545,0.072
26.550,0.034
26.555,-0.057
26.560,0.035
26.565,0.065
26.570,-0.049
26.575,-0.013
26.580,0.074
26.585,-0.023
26.590,-0.055
26.595,0.059
26.600,0.020
26.605,-0.072
26.610,0.019
26.615,0.046
26.620,-0.075
26.625,-0.036
26.630,0.058
26.635,-0.038
26.640,-0.072
26.645,0.042
26.650,0.006
26.655,-0.087
26.660,0.005
26.665,0.039
26.670,-0.076
26.675,-0.041
26.680,0.050
26.685,-0.045
26.690,-0.079
26.695,0.034
26.700,-0.010
26.705,-0.108
26.710,-0.021
26.715,0.004
26.720,-0.115
26.725,-0.079
26.730,0.012
26.735,-0.072
26.740,-0.089
26.745,0.030
26.750,-0.009
26.755,-0.094
26.760,-0.003
26.765,0.019
26.770,-0.099
26.775,-0.064
26.780,0.028
26.785,-0.055
26.790,-0.073
26.795,0.052
26.800,0.027
26.805,-0.047
26.810,0.058
26.815,0.082
26.820,-0.039
26.825,0.002
26.830,0.085
26.835,-0.010
26.840,-0.024
26.845,0.061
26.850,-0.104
26.855,-0.394
26.860,-0.530
26.865,-0.651
26.870,-0.594
26.875,-0.131
26.880,0.225
26.885,0.230
26.890,0.306
26.895,0.487
26.900,0.463
26.905,0.376
26.910,0.445
26.915,0.422
26.920,0.228
26.925,0.156
26.930,0.137
26.935,-0.020
26.940,-0.065
26.945,0.048
26.950,0.000
26.955,-0.091
26.960,0.005
26.965,0.031
26.970,-0.085
26.975,-0.041
26.980,0.042
26.985,-0.061
26.990,-0.086
26.995,0.028
27.000,-0.019
27.005,-0.106
27.010,-0.009
27.015,0.016
27.020,-0.103
27.025,-0.059
27.030,0.027
27.035,-0.076
27.040,-0.104
27.045,0.007
27.050,-0.045
27.055,-0.137
27.060,-0.041
27.065,-0.020
27.070,-0.139
27.075,-0.096
27.080,-0.020
27.085,-0.131
27.090,-0.164
27.095,-0.060
27.100,-0.116
27.105,-0.210
27.110,-0.121
27.115,-0.108
27.120,-0.232
27.125,-0.194
27.130,-0.117
27.135,-0.221
27.140,-0.244
27.145,-0.131
27.150,-0.178
27.155,-0.256
27.160,-0.144
27.165,-0.109
27.170,-0.204
27.175,-0.132
27.180,-0.020
27.185,-0.087
27.190,-0.076
27.195,0.066
27.200,0.047
27.205,-0.004
27.210,0.119
27.215,0.157
27.220,0.060
27.225,0.120
27.230,0.210
27.235,0.116
27.240,0.097
27.245,0.211
27.250,0.160
27.255,0.074
27.260,0.175
27.265,0.192
27.270,0.072
27.275,0.117
27.280,0.191
27.285,0.081
27.290,0.059
27.295,0.168
27.300,0.110
27.305,0.023
27.310,0.118
27.315,0.129
27.320,0.008
27.325,0.055
27.330,0.135
27.335,0.029
27.340,0.009
27.345,0.121
27.350,0.065
27.355,-0.016
27.360,0.085
27.365,0.098
27.370,-0.016
27.375,0.036
27.380,0.116
27.385,0.008
27.390,-0.015
27.395,0.100
27.400,0.048
27.405,-0.034
27.410,0.068
27.415,0.082
27.420,-0.034
27.425,0.017
27.430,0.094
27.435,-0.012
27.440,-0.026
27.445,0.085
27.450,0.028
27.455,-0.051
27.460,0.050
27.465,0.063
27.470,-0.052
27.475,0.002
27.480,0.082
27.485,-0.021
27.490,-0.041
27.495,0.068
27.500,0.015
27.505,-0.063
27.510,0.038
27.515,0.052
27.520,-0.058
27.525,-0.006
27.530,0.068
27.535,-0.035
27.540,-0.048
27.545,0.061
27.550,0.004
27.555,-0.072
27.560,0.031
27.565,0.043
27.570,-0.071
27.575,-0.021
27.580,0.053
27.585,-0.051
27.590,-0.062
27.595,0.050
27.600,-0.009
27.605,-0.088
27.610,0.010
27.615,0.013
27.620,-0.109
27.625,-0.059
27.630,0.012
27.635,-0.095
27.640,-0.104
27.645,0.017
27.650,-0.031
27.655,-0.100
27.660,0.010
27.665,0.023
27.670,-0.092
27.675,-0.043
27.680,0.024
27.685,-0.084
27.690,-0.095
27.695,0.027
27.700,-0.014
27.705,-0.077
27.710,0.038
27.715,0.061
27.720,-0.041
27.725,0.018
27.730,0.085
27.735,-0.026
27.740,-0.038
27.745,0.075
27.750,0.030
27.755,-0.049
27.760,-0.032
27.765,-0.205
27.770,-0.548
27.775,-0.685
27.780,-0.559
27.785,-0.289
27.790,0.048
27.795,0.287
27.800,0.320
27.805,0.333
27.810,0.472
27.815,0.488
27.820,0.354
27.825,0.373
27.830,0.383
27.835,0.168
27.840,0.046
27.845,0.081
27.850,-0.011
27.855,-0.086
27.860,0.021
27.865,0.026
27.870,-0.089
27.875,-0.032
27.880,0.041
27.885,-0.067
27.890,-0.079
27.895,0.028
27.900,-0.034
27.905,-0.106
27.910,-0.001
27.915,0.002
27.920,-0.110
27.925,-0.045
27.930,0.026
27.935,-0.083
27.940,-0.088
27.945,0.021
27.950,-0.043
27.955,-0.113
27.960,-0.012
27.965,-0.013
27.970,-0.127
27.975,-0.070
27.980,-0.007
27.985,-0.123
27.990,-0.133
27.995,-0.029
28.000,-0.101
28.005,-0.180
28.010,-0.085
28.015,-0.096
28.020,-0.212
28.025,-0.152
28.030,-0.092
28.035,-0.206
28.040,-0.214
28.045,-0.109
28.050,-0.181
28.055,-0.253
28.060,-0.144
28.065,-0.141
28.070,-0.246
28.075,-0.168
28.080,-0.083
28.085,-0.171
28.090,-0.143
28.095,-0.001
28.100,-0.033
28.105,-0.066
28.110,0.071
28.115,0.097
28.120,0.013
28.125,0.103
28.130,0.185
28.135,0.085
28.140,0.094
28.145,0.212
28.150,0.148
28.155,0.084
28.160,0.198
28.165,0.195
28.170,0.082
28.175,0.143
28.180,0.199
28.185,0.083
28.190,0.082
28.195,0.189
28.200,0.119
28.205,0.049
28.210,0.153
28.215,0.144
28.220,0.031
28.225,0.095
28.230,0.152
28.235,0.040
28.240,0.038
28.245,0.136
28.250,0.062
28.255,-0.003
28.260,0.103
28.265,0.096
28.270,-0.016
28.275,0.049
28.280,0.113
28.285,0.000
28.290,-0.005
28.295,0.102
28.300,0.036
28.305,-0.027
28.310,0.084
28.315,0.078
28.320,-0.031
28.325,0.046
28.330,0.109
28.335,-0.007
28.340,-0.004
28.345,0.096
28.350,0.015
28.355,-0.054
28.360,0.056
28.365,0.051
28.370,-0.056
28.375,0.017
28.380,0.080
28.385,-0.033
28.390,-0.032
28.395,0.071
28.400,0.002
28.405,-0.055
28.410,0.055
28.415,0.047
28.420,-0.061
28.425,0.007
28.430,0.064
28.435,-0.047
28.440,-0.035
28.445,0.073
28.450,-0.004
28.455,-0.067
28.460,0.044
28.465,0.034
28.470,-0.075
28.475,-0.005
28.480,0.048
28.485,-0.066
28.490,-0.058
28.495,0.048
28.500,-0.021
28.505,-0.082
28.510,0.024
28.515,0.008
28.520,-0.107
28.525,-0.041
28.530,0.011
28.535,-0.103
28.540,-0.089
28.545,0.018
28.550,-0.050
28.555,-0.099
28.560,0.016
28.565,0.006
28.570,-0.096
28.575,-0.022
28.580,0.025
28.585,-0.094
28.590,-0.085
28.595,0.022
28.600,-0.045
28.605,-0.088
28.610,0.037
28.615,0.035
28.620,-0.057
28.625,0.031
28.630,0.088
28.635,-0.032
28.640,-0.027
28.645,0.076
28.650,0.001
28.655,-0.046
28.660,0.062
28.665,-0.030
28.670,-0.315
28.675,-0.479
28.680,-0.636
28.685,-0.717
28.690,-0.338
28.695,0.114
28.700,0.170
28.705,0.215
28.710,0.428
28.715,0.467
28.720,0.394
28.725,0.463
28.730,0.478
28.735,0.301
28.740,0.207
28.745,0.198
28.750,0.030
28.755,-0.071
28.760,0.034
28.765,0.017
28.770,-0.092
28.775,-0.017
28.780,0.032
28.785,-0.084
28.790,-0.066
28.795,0.039
28.800,-0.042
28.805,-0.099
28.810,0.013
28.815,-0.004
28.820,-0.110
28.825,-0.030
28.830,0.028
28.835,-0.085
28.840,-0.072
28.845,0.029
28.850,-0.059
28.855,-0.118
28.860,-0.006
28.865,-0.028
28.870,-0.134
28.875,-0.057
28.880,-0.011
28.885,-0.132
28.890,-0.126
28.895,-0.033
28.900,-0.120
28.905,-0.175
28.910,-0.066
28.915,-0.092
28.920,-0.200
28.925,-0.126
28.930,-0.090
28.935,-0.215
28.940,-0.206
28.945,-0.115
28.950,-0.204
28.955,-0.251
28.960,-0.134
28.965,-0.152
28.970,-0.246
28.975,-0.159
28.980,-0.105
28.985,-0.204
28.990,-0.160
28.995,-0.033
29.000,-0.087
29.005,-0.098
29.010,0.054
29.015,0.061
29.020,-0.016
29.025,0.094
29.030,0.168
29.035,0.070
29.040,0.103
29.045,0.210
29.050,0.129
29.055,0.085
29.060,0.204
29.065,0.181
29.070,0.079
29.075,0.162
29.080,0.204
29.085,0.084
29.090,0.099
29.095,0.186
29.100,0.094
29.105,0.046
29.110,0.158
29.115,0.132
29.120,0.030
29.125,0.110
29.130,0.152
29.135,0.039
29.140,0.055
29.145,0.139
29.150,0.044
29.155,-0.004
29.160,0.108
29.165,0.080
29.170,-0.016
29.175,0.069
29.180,0.103
29.185,-0.021
29.190,0.007
29.195,0.108
29.200,0.018
29.205,-0.028
29.210,0.088
29.215,0.062
29.220,-0.035
29.225,0.049
29.230,0.090
29.235,-0.021
29.240,0.002
29.245,0.091
29.250,0.008
29.255,-0.032
29.260,0.083
29.265,0.054
29.270,-0.047
29.275,0.036
29.280,0.076
29.285,-0.040
29.290,-0.019
29.295,0.072
29.300,-0.015
29.305,-0.057
29.310,0.058
29.315,0.028
29.320,-0.071
29.325,0.014
29.330,0.056
29.335,-0.056
29.340,-0.028
29.345,0.067
29.350,-0.022
29.355,-0.060
29.360,0.052
29.365,0.016
29.370,-0.083
29.375,0.006
29.380,0.047
29.385,-0.066
29.390,-0.034
29.395,0.059
29.400,-0.033
29.405,-0.070
29.410,0.047
29.415,0.011
29.420,-0.090
29.425,-0.007
29.430,0.022
29.435,-0.100
29.440,-0.073
29.445,0.016
29.450,-0.077
29.455,-0.107
29.460,0.022
29.465,-0.003
29.470,-0.094
29.475,-0.003
29.480,0.035
29.485,-0.085
29.490,-0.064
29.495,0.021
29.500,-0.075
29.505,-0.105
29.510,0.031
29.515,0.021
29.520,-0.062
29.525,0.036
29.530,0.082
29.535,-0.028
29.540,0.004
29.545,0.091
29.550,-0.009
29.555,-0.045
29.560,0.083
29.565,0.035
29.570,-0.154
29.575,-0.256
29.580,-0.469
29.585,-0.784
29.590,-0.683
29.595,-0.212
29.600,0.030
29.605,0.127
29.610,0.346
29.615,0.419
29.620,0.390
29.625,0.510
29.630,0.529
29.635,0.362
29.640,0.312
29.645,0.291
29.650,0.087
29.655,-0.031
29.660,0.045
29.665,0.003
29.670,-0.090
29.675,0.000
29.680,0.032
29.685,-0.089
29.690,-0.055
29.695,0.035
29.700,-0.061
29.705,-0.096
29.710,0.020
29.715,-0.015
29.720,-0.109
29.725,-0.022
29.730,0.010
29.735,-0.108
29.740,-0.075
29.745,0.017
29.750,-0.078
29.755,-0.116
29.760,-0.001
29.765,-0.038
29.770,-0.130
29.775,-0.040
29.780,-0.013
29.785,-0.132
29.790,-0.098
29.795,-0.012
29.800,-0.110
29.805,-0.150
29.810,-0.046
29.815,-0.093
29.820,-0.190
29.825,-0.103
29.830,-0.086
29.835,-0.212
29.840,-0.179
29.845,-0.098
29.850,-0.203
29.855,-0.240
29.860,-0.127
29.865,-0.162
29.870,-0.247
29.875,-0.149
29.880,-0.115
29.885,-0.220
29.890,-0.161
29.895,-0.045
29.900,-0.109
29.905,-0.106
29.910,0.036
29.915,0.025
29.920,-0.033
29.925,0.092
29.930,0.147
29.935,0.056
29.940,0.113
29.945,0.210
29.950,0.122
29.955,0.099
29.960,0.219
29.965,0.182
29.970,0.093
29.975,0.187
29.980,0.213
29.985,0.092
29.990,0.128
29.995,0.210
30.000,0.108
30.005,0.078
30.010,0.187
30.015,0.137
30.020,0.045
30.025,0.135
30.030,0.152
30.035,0.025
30.040,0.062
30.045,0.147
30.050,0.046
30.055,0.016
30.060,0.124
30.065,0.075
30.070,-0.014
30.075,0.082
30.080,0.106
30.085,-0.014
30.090,0.027
30.095,0.117
30.100,0.020
30.105,-0.010
30.110,0.101
30.115,0.052
30.120,-0.035
30.125,0.063
30.130,0.083
30.135,-0.035
30.140,0.015
30.145,0.106
30.150,0.005
30.155,-0.023
30.160,0.091
30.165,0.044
30.170,-0.046
30.175,0.050
30.180,0.075
30.185,-0.043
30.190,0.001
30.195,0.089
30.200,-0.013
30.205,-0.041
30.210,0.071
30.215,0.024
30.220,-0.064
30.225,0.031
30.230,0.053
30.235,-0.060
30.240,-0.013
30.245,0.071
30.250,-0.028
30.255,-0.051
30.260,0.056
30.265,0.003
30.270,-0.082
30.275,0.021
30.280,0.045
30.285,-0.072
30.290,-0.024
30.295,0.060
30.300,-0.046
30.305,-0.071
30.310,0.042
30.315,-0.007
30.320,-0.089
30.325,0.008
30.330,0.028
30.335,-0.087
30.340,-0.044
30.345,0.030
30.350,-0.081
30.355,-0.105
30.360,0.010
30.365,-0.042
30.370,-0.121
30.375,-0.004
30.380,0.027
30.385,-0.089
30.390,-0.039
30.395,0.045
30.400,-0.063
30.405,-0.094
30.410,0.015
30.415,-0.038
30.420,-0.117
30.425,-0.002
30.430,0.032
30.435,-0.065
30.440,0.005
30.445,0.093
30.450,-0.006
30.455,-0.027
30.460,0.077
30.465,0.019
30.470,-0.065
30.475,0.050
30.480,0.067
30.485,-0.126
30.490,-0.246
30.495,-0.394
30.500,-0.703
30.505,-0.710
30.510,-0.250
30.515,0.069
30.520,0.138
30.525,0.330
30.530,0.449
30.535,0.391
30.540,0.462
30.545,0.519
30.550,0.365
30.555,0.276
30.560,0.274
30.565,0.096
30.570,-0.059
30.575,0.022
30.580,0.038
30.585,-0.080
30.590,-0.035
30.595,0.042
30.600,-0.061
30.605,-0.078
30.610,0.029
30.615,-0.028
30.620,-0.105
30.625,-0.002
30.630,0.012
30.635,-0.101
30.640,-0.048
30.645,0.030
30.650,-0.076
30.655,-0.092
30.660,0.019
30.665,-0.041
30.670,-0.120
30.675,-0.015
30.680,-0.006
30.685,-0.122
30.690,-0.065
30.695,0.008
30.700,-0.104
30.705,-0.119
30.710,-0.007
30.715,-0.068
30.720,-0.154
30.725,-0.064
30.730,-0.063
30.735,-0.181
30.740,-0.133
30.745,-0.071
30.750,-0.190
30.755,-0.213
30.760,-0.106
30.765,-0.167
30.770,-0.248
30.775,-0.147
30.780,-0.135
30.785,-0.245
30.790,-0.184
30.795,-0.101
30.800,-0.193
30.805,-0.186
30.810,-0.054
30.815,-0.088
30.820,-0.133
30.825,0.007
30.830,0.048
30.835,-0.035
30.840,0.054
30.845,0.156
30.850,0.066
30.855,0.072
30.860,0.200
30.865,0.149
30.870,0.077
30.875,0.185
30.880,0.198
30.885,0.088
30.890,0.147
30.895,0.220
30.900,0.108
30.905,0.095
30.910,0.201
30.915,0.133
30.920,0.052
30.925,0.155
30.930,0.158
30.935,0.042
30.940,0.102
30.945,0.169
30.950,0.055
30.955,0.043
30.960,0.148
30.965,0.078
30.970,-0.002
30.975,0.096
30.980,0.098
30.985,-0.013
30.990,0.047
30.995,0.117
31.000,0.009
31.005,0.000
31.010,0.108
31.015,0.046
31.020,-0.030
31.025,0.071
31.030,0.078
31.035,-0.031
31.040,0.028
31.045,0.098
31.050,-0.008
31.055,-0.012
31.060,0.099
31.065,0.032
31.070,-0.042
31.075,0.062
31.080,0.064
31.085,-0.047
31.090,0.015
31.095,0.088
31.100,-0.019
31.105,-0.024
31.110,0.084
31.115,0.016
31.120,-0.056
31.125,0.051
31.130,0.052
31.135,-0.058
31.140,0.006
31.145,0.073
31.150,-0.034
31.155,-0.039
31.160,0.067
31.165,0.001
31.170,-0.072
31.175,0.032
31.180,0.036
31.185,-0.073
31.190,-0.012
31.195,0.056
31.200,-0.051
31.205,-0.054
31.210,0.056
31.215,-0.013
31.220,-0.087
31.225,0.021
31.230,0.023
31.235,-0.085
31.240,-0.017
31.245,0.049
31.250,-0.063
31.255,-0.068
31.260,0.033
31.265,-0.046
31.270,-0.124
31.275,-0.017
31.280,-0.017
31.285,-0.128
31.290,-0.054
31.295,0.029
31.300,-0.072
31.305,-0.071
31.310,0.041
31.315,-0.030
31.320,-0.109
31.325,-0.006
31.330,-0.008
31.335,-0.119
31.340,-0.041
31.345,0.043
31.350,-0.055
31.355,-0.040
31.360,0.086
31.365,0.025
31.370,-0.044
31.375,0.059
31.380,0.055
31.385,-0.054
31.390,0.018
31.395,0.096
31.400,-0.037
31.405,-0.143
31.410,-0.224
31.415,-0.528
31.420,-0.777
31.425,-0.563
31.430,-0.162
31.435,0.045
31.440,0.230
31.445,0.395
31.450,0.369
31.455,0.406
31.460,0.521
31.465,0.426
31.470,0.316
31.475,0.347
31.480,0.224
31.485,0.003
31.490,0.006
31.495,0.055
31.500,-0.060
31.505,-0.064
31.510,0.041
31.515,-0.033
31.520,-0.098
31.525,0.009
31.530,-0.001
31.535,-0.109
31.540,-0.036
31.545,0.027
31.550,-0.084
31.555,-0.078
31.560,0.028
31.565,-0.045
31.570,-0.109
31.575,-0.002
31.580,-0.009
31.585,-0.117
31.590,-0.053
31.595,0.007
31.600,-0.103
31.605,-0.099
31.610,0.009
31.615,-0.066
31.620,-0.135
31.625,-0.029
31.630,-0.047
31.635,-0.165
31.640,-0.097
31.645,-0.041
31.650,-0.161
31.655,-0.164
31.660,-0.067
31.665,-0.149
31.670,-0.219
31.675,-0.119
31.680,-0.136
31.685,-0.245
31.690,-0.173
31.695,-0.117
31.700,-0.227
31.705,-0.216
31.710,-0.107
31.715,-0.170
31.720,-0.216
31.725,-0.092
31.730,-0.079
31.735,-0.153
31.740,-0.047
31.745,0.044
31.750,-0.039
31.755,0.000
31.760,0.135
31.765,0.084
31.770,0.045
31.775,0.174
31.780,0.174
31.785,0.076
31.790,0.158
31.795,0.218
31.800,0.107
31.805,0.117
31.810,0.225
31.815,0.147
31.820,0.080
31.825,0.187
31.830,0.171
31.835,0.059
31.840,0.130
31.845,0.184
31.850,0.069
31.855,0.074
31.860,0.171
31.865,0.085
31.870,0.023
31.875,0.128
31.880,0.106
31.885,-0.006
31.890,0.068
31.895,0.124
31.900,0.010
31.905,0.019
31.910,0.123
31.915,0.044
31.920,-0.016
31.925,0.092
31.930,0.075
31.935,-0.029
31.940,0.051
31.945,0.106
31.950,-0.010
31.955,0.002
31.960,0.102
31.965,0.023
31.970,-0.032
31.975,0.079
31.980,0.066
31.985,-0.040
31.990,0.034
31.995,0.089
32.000,-0.025
32.005,-0.016
32.010,0.085
32.015,0.006
32.020,-0.050
32.025,0.063
32.030,0.047
32.035,-0.060
32.040,0.019
32.045,0.074
32.050,-0.044
32.055,-0.030
32.060,0.075
32.065,-0.009
32.070,-0.065
32.075,0.051
32.080,0.033
32.085,-0.071
32.090,0.008
32.095,0.059
32.100,-0.057
32.105,-0.041
32.110,0.062
32.115,-0.020
32.120,-0.076
32.125,0.038
32.130,0.020
32.135,-0.086
32.140,-0.006
32.145,0.050
32.150,-0.062
32.155,-0.048
32.160,0.047
32.165,-0.040
32.170,-0.091
32.175,0.021
32.180,-0.008
32.185,-0.122
32.190,-0.045
32.195,0.005
32.200,-0.108
32.205,-0.083
32.210,0.032
32.215,-0.040
32.220,-0.092
32.225,0.021
32.230,0.003
32.235,-0.106
32.240,-0.031
32.245,0.017
32.250,-0.098
32.255,-0.072
32.260,0.044
32.265,-0.025
32.270,-0.063
32.275,0.066
32.280,0.052
32.285,-0.050
32.290,0.032
32.295,0.078
32.300,-0.040
32.305,-0.021
32.310,0.090
32.315,0.008
32.320,-0.107
32.325,-0.158
32.330,-0.408
32.335,-0.729
32.340,-0.668
32.345,-0.296
32.350,-0.024
32.355,0.165
32.360,0.356
32.365,0.367
32.370,0.368
32.375,0.502
32.380,0.466
32.385,0.325
32.390,0.347
32.395,0.292
32.400,0.062
32.405,0.004
32.410,0.064
32.415,-0.034
32.420,-0.082
32.425,0.029
32.430,-0.003
32.435,-0.104
32.440,-0.016
32.445,0.028
32.450,-0.090
32.455,-0.066
32.460,0.036
32.465,-0.050
32.470,-0.098
32.475,0.013
32.480,-0.016
32.485,-0.117
32.490,-0.030
32.495,0.016
32.500,-0.102
32.505,-0.078
32.510,0.021
32.515,-0.066
32.520,-0.117
32.525,-0.012
32.530,-0.043
32.535,-0.142
32.540,-0.058
32.545,-0.021
32.550,-0.143
32.555,-0.125
32.560,-0.036
32.565,-0.132
32.570,-0.184
32.575,-0.079
32.580,-0.118
32.585,-0.227
32.590,-0.149
32.595,-0.113
32.600,-0.235
32.605,-0.213
32.610,-0.117
32.615,-0.204
32.620,-0.244
32.625,-0.126
32.630,-0.148
32.635,-0.233
32.640,-0.127
32.645,-0.064
32.650,-0.155
32.655,-0.095
32.660,0.037
32.665,-0.018
32.670,-0.031
32.675,0.109
32.680,0.105
32.685,0.032
32.690,0.138
32.695,0.195
32.700,0.094
32.705,0.130
32.710,0.227
32.715,0.139
32.720,0.098
32.725,0.212
32.730,0.179
32.735,0.079
32.740,0.164
32.745,0.198
32.750,0.077
32.755,0.102
32.760,0.194
32.765,0.099
32.770,0.051
32.775,0.157
32.780,0.119
32.785,0.021
32.790,0.108
32.795,0.140
32.800,0.019
32.805,0.045
32.810,0.135
32.815,0.040
32.820,-0.006
32.825,0.106
32.830,0.074
32.835,-0.023
32.840,0.065
32.845,0.100
32.850,-0.014
32.855,0.018
32.860,0.107
32.865,0.016
32.870,-0.022
32.875,0.089
32.880,0.055
32.885,-0.041
32.890,0.049
32.895,0.088
32.900,-0.027
32.905,0.001
32.910,0.091
32.915,0.001
32.920,-0.038
32.925,0.072
32.930,0.040
32.935,-0.051
32.940,0.041
32.945,0.075
32.950,-0.044
32.955,-0.009
32.960,0.085
32.965,-0.011
32.970,-0.048
32.975,0.064
32.980,0.024
32.985,-0.069
32.990,0.024
32.995,0.060
33.000,-0.052
33.005,-0.019
33.010,0.064
33.015,-0.030
33.020,-0.063
33.025,0.050
33.030,0.011
33.035,-0.082
33.040,0.011
33.045,0.044
33.050,-0.070
33.055,-0.034
33.060,0.055
33.065,-0.039
33.070,-0.071
33.075,0.040
33.080,0.002
33.085,-0.088
33.090,0.000
33.095,0.021
33.100,-0.102
33.105,-0.070
33.110,0.016
33.115,-0.079
33.120,-0.110
33.125,0.011
33.130,-0.016
33.135,-0.096
33.140,-0.001
33.145,0.030
33.150,-0.086
33.155,-0.052
33.160,0.032
33.165,-0.066
33.170,-0.101
33.175,0.017
33.180,-0.009
33.185,-0.085
33.190,0.027
33.195,0.070
33.200,-0.038
33.205,0.006
33.210,0.088
33.215,-0.014
33.220,-0.040
33.225,0.074
33.230,0.039
33.235,-0.051
33.240,-0.031
33.245,-0.172
33.250,-0.512
33.255,-0.687
33.260,-0.605
33.265,-0.358
33.270,-0.012
33.275,0.257
33.280,0.314
33.285,0.320
33.290,0.460
33.295,0.510
33.300,0.383
33.305,0.382
33.310,0.406
33.315,0.201
33.320,0.053
33.325,0.085
33.330,0.010
33.335,-0.080
33.340,0.015
33.345,0.038
33.350,-0.080
33.355,-0.043
33.360,0.039
33.365,-0.059
33.370,-0.086
33.375,0.025
33.380,-0.020
33.385,-0.105
33.390,-0.008
33.395,0.017
33.400,-0.095
33.405,-0.053
33.410,0.029
33.415,-0.066
33.420,-0.092
33.425,0.015
33.430,-0.031
33.435,-0.117
33.440,-0.022
33.445,-0.002
33.450,-0.123
33.455,-0.081
33.460,0.001
33.465,-0.106
33.470,-0.139
33.475,-0.031
33.480,-0.087
33.485,-0.184
33.490,-0.095
33.495,-0.084
33.500,-0.207
33.505,-0.168
33.510,-0.092
33.515,-0.203
33.520,-0.233
33.525,-0.121
33.530,-0.170
33.535,-0.258
33.540,-0.159
33.545,-0.130
33.550,-0.235
33.555,-0.176
33.560,-0.072
33.565,-0.149
33.570,-0.146
33.575,0.001
33.580,-0.013
33.585,-0.069
33.590,0.058
33.595,0.109
33.600,0.021
33.605,0.091
33.610,0.193
33.615,0.105
33.620,0.092
33.625,0.211
33.630,0.163
33.635,0.081
33.640,0.181
33.645,0.200
33.650,0.087
33.655,0.133
33.660,0.210
33.665,0.105
33.670,0.077
33.675,0.183
33.680,0.128
33.685,0.042
33.690,0.136
33.695,0.146
33.700,0.029
33.705,0.075
33.710,0.152
33.715,0.045
33.720,0.023
33.725,0.133
33.730,0.073
33.735,-0.013
33.740,0.087
33.745,0.100
33.750,-0.014
33.755,0.038
33.760,0.116
33.765,0.010
33.770,-0.010
33.775,0.102
33.780,0.048
33.785,-0.034
33.790,0.072
33.795,0.087
33.800,-0.034
33.805,0.018
33.810,0.098
33.815,-0.009
33.820,-0.027
33.825,0.086
33.830,0.032
33.835,-0.047
33.840,0.058
33.845,0.069
33.850,-0.050
33.855,0.002
33.860,0.079
33.865,-0.024
33.870,-0.038
33.875,0.073
33.880,0.015
33.885,-0.063
33.890,0.040
33.895,0.049
33.900,-0.065
33.905,-0.009
33.910,0.071
33.915,-0.033
33.920,-0.052
33.925,0.053
33.930,-0.002
33.935,-0.076
33.940,0.028
33.945,0.042
33.950,-0.073
33.955,-0.020
33.960,0.059
33.965,-0.045
33.970,-0.058
33.975,0.051
33.980,-0.007
33.985,-0.084
33.990,0.020
33.995,0.028
34.000,-0.085
34.005,-0.028
34.010,0.044
34.015,-0.068
34.020,-0.090
34.025,0.009
34.030,-0.052
34.035,-0.125
34.040,-0.021
34.045,-0.005
34.050,-0.102
34.055,-0.035
34.060,0.042
34.065,-0.060
34.070,-0.071
34.075,0.034
34.080,-0.033
34.085,-0.114
34.090,-0.009
34.095,0.009
34.100,-0.088
34.105,-0.015
34.110,0.072
34.115,-0.020
34.120,-0.021
34.125,0.093
34.130,0.027
34.135,-0.055
34.140,0.048
34.145,0.056
34.150,-0.046
34.155,0.016
34.160,0.019
34.165,-0.256
34.170,-0.490
34.175,-0.597
34.180,-0.677
34.185,-0.423
34.190,0.067
34.195,0.239
34.200,0.225
34.205,0.384
34.210,0.504
34.215,0.415
34.220,0.395
34.225,0.467
34.230,0.343
34.235,0.164
34.240,0.153
34.245,0.074
34.250,-0.071
34.255,-0.012
34.260,0.056
34.265,-0.056
34.270,-0.065
34.275,0.043
34.280,-0.022
34.285,-0.096
34.290,0.011
34.295,0.018
34.300,-0.093
34.305,-0.032
34.310,0.035
34.315,-0.076
34.320,-0.081
34.325,0.025
34.330,-0.041
34.335,-0.108
34.340,0.000
34.345,-0.002
34.350,-0.119
34.355,-0.056
34.360,0.015
34.365,-0.098
34.370,-0.109
34.375,-0.002
34.380,-0.072
34.385,-0.149
34.390,-0.049
34.395,-0.051
34.400,-0.165
34.405,-0.107
34.410,-0.048
34.415,-0.170
34.420,-0.183
34.425,-0.081
34.430,-0.156
34.435,-0.235
34.440,-0.134
34.445,-0.138
34.450,-0.250
34.455,-0.183
34.460,-0.113
34.465,-0.220
34.470,-0.213
34.475,-0.089
34.480,-0.140
34.485,-0.186
34.490,-0.051
34.495,-0.021
34.500,-0.099
34.505,-0.003
34.510,0.093
34.515,0.013
34.520,0.038
34.525,0.169
34.530,0.120
34.535,0.068
34.540,0.188
34.545,0.191
34.550,0.087
34.555,0.160
34.560,0.226
34.565,0.113
34.570,0.114
34.575,0.218
34.580,0.139
34.585,0.069
34.590,0.176
34.595,0.164
34.600,0.050
34.605,0.117
34.610,0.175
34.615,0.059
34.620,0.062
34.625,0.164
34.630,0.082
34.635,0.011
34.640,0.117
34.645,0.107
34.650,-0.003
34.655,0.066
34.660,0.127
34.665,0.013
34.670,0.014
34.675,0.120
34.680,0.045
34.685,-0.021
34.690,0.087
34.695,0.076
34.700,-0.034
34.705,0.035
34.710,0.095
34.715,-0.015
34.720,-0.010
34.725,0.098
34.730,0.025
34.735,-0.040
34.740,0.068
34.745,0.059
34.750,-0.047
34.755,0.026
34.760,0.086
34.765,-0.030
34.770,-0.024
34.775,0.084
34.780,0.010
34.785,-0.054
34.790,0.055
34.795,0.048
34.800,-0.058
34.805,0.014
34.810,0.072
34.815,-0.044
34.820,-0.036
34.825,0.069
34.830,-0.010
34.835,-0.071
34.840,0.041
34.845,0.031
34.850,-0.075
34.855,-0.003
34.860,0.052
34.865,-0.060
34.870,-0.050
34.875,0.055
34.880,-0.020
34.885,-0.082
34.890,0.028
34.895,0.018
34.900,-0.088
34.905,-0.011
34.910,0.049
34.915,-0.067
34.920,-0.060
34.925,0.047
34.930,-0.028
34.935,-0.089
34.940,0.016
34.945,-0.006
34.950,-0.122
34.955,-0.053
34.960,0.004
34.965,-0.106
34.970,-0.090
34.975,0.026
34.980,-0.041
34.985,-0.097
34.990,0.017
34.995,0.008
35.000,-0.103
35.005,-0.034
35.010,0.018
35.015,-0.100
35.020,-0.087
35.025,0.035
35.030,-0.024
35.035,-0.068
35.040,0.059
35.045,0.056
35.050,-0.046
35.055,0.026
35.060,0.075
35.065,-0.036
35.070,-0.022
35.075,0.083
35.080,0.013
35.085,-0.075
35.090,-0.088
35.095,-0.311
35.100,-0.654
35.105,-0.714
35.110,-0.467
35.115,-0.165
35.120,0.106
35.125,0.316
35.130,0.340
35.135,0.353
35.140,0.492
35.145,0.476
35.150,0.345
35.155,0.373
35.160,0.341
35.165,0.111
35.170,0.028
35.175,0.080
35.180,-0.015
35.185,-0.076
35.190,0.028
35.195,0.009
35.200,-0.097
35.205,-0.020
35.210,0.036
35.215,-0.078
35.220,-0.064
35.225,0.039
35.230,-0.043
35.235,-0.095
35.240,0.020
35.245,0.000
35.250,-0.106
35.255,-0.030
35.260,0.022
35.265,-0.092
35.270,-0.076
35.275,0.025
35.280,-0.059
35.285,-0.115
35.290,-0.004
35.295,-0.025
35.300,-0.132
35.305,-0.058
35.310,-0.014
35.315,-0.133
35.320,-0.121
35.325,-0.028
35.330,-0.117
35.335,-0.174
35.340,-0.073
35.345,-0.105
35.350,-0.216
35.355,-0.142
35.360,-0.103
35.365,-0.226
35.370,-0.209
35.375,-0.111
35.380,-0.197
35.385,-0.247
35.390,-0.131
35.395,-0.148
35.400,-0.241
35.405,-0.144
35.410,-0.074
35.415,-0.162
35.420,-0.109
35.425,0.021
35.430,-0.035
35.435,-0.052
35.440,0.094
35.445,0.099
35.450,0.022
35.455,0.125
35.460,0.186
35.465,0.086
35.470,0.120
35.475,0.225
35.480,0.144
35.485,0.096
35.490,0.206
35.495,0.182
35.500,0.080
35.505,0.157
35.510,0.199
35.515,0.083
35.520,0.102
35.525,0.194
35.530,0.098
35.535,0.047
35.540,0.159
35.545,0.124
35.550,0.019
35.555,0.103
35.560,0.141
35.565,0.023
35.570,0.048
35.575,0.141
35.580,0.044
35.585,-0.003
35.590,0.110
35.595,0.077
35.600,-0.021
35.605,0.062
35.610,0.100
35.615,-0.013
35.620,0.014
35.625,0.110
35.630,0.020
35.635,-0.027
35.640,0.083
35.645,0.053
35.650,-0.045
35.655,0.046
35.660,0.092
35.665,-0.029
35.670,-0.006
35.675,0.093
35.680,0.004
35.685,-0.042
35.690,0.069
35.695,0.039
35.700,-0.056
35.705,0.030
35.710,0.068
35.715,-0.049
35.720,-0.022
35.725,0.074
35.730,-0.017
35.735,-0.061
35.740,0.054
35.745,0.025
35.750,-0.068
35.755,0.024
35.760,0.063
35.765,-0.056
35.770,-0.028
35.775,0.066
35.780,-0.028
35.785,-0.074
35.790,0.039
35.795,0.012
35.800,-0.081
35.805,0.006
35.810,0.035
35.815,-0.090
35.820,-0.056
35.825,0.045
35.830,-0.044
35.835,-0.080
35.840,0.033
35.845,0.000
35.850,-0.086
35.855,0.007
35.860,0.036
35.865,-0.086
35.870,-0.063
35.875,0.018
35.880,-0.080
35.885,-0.114
35.890,0.000
35.895,-0.038
35.900,-0.125
35.905,-0.020
35.910,0.029
35.915,-0.081
35.920,-0.048
35.925,0.045
35.930,-0.050
35.935,-0.093
35.940,0.016
35.945,-0.018
35.950,-0.102
35.955,0.005
35.960,0.057
35.965,-0.044
35.970,0.001
35.975,0.104
35.980,0.013
35.985,-0.033
35.990,0.077
35.995,0.038
36.000,-0.060
36.005,0.043
36.010,0.071
36.015,-0.132
36.020,-0.278
36.025,-0.423
36.030,-0.723
36.035,-0.709
36.040,-0.221
36.045,0.092
36.050,0.140
36.055,0.330
36.060,0.452
36.065,0.373
36.070,0.430
36.075,0.510
36.080,0.377
36.085,0.278
36.090,0.282
36.095,0.133
36.100,-0.033
36.105,0.030
36.110,0.057
36.115,-0.067
36.120,-0.040
36.125,0.046
36.130,-0.049
36.135,-0.085
36.140,0.028
36.145,-0.013
36.150,-0.103
36.155,-0.004
36.160,0.028
36.165,-0.090
36.170,-0.054
36.175,0.036
36.180,-0.056
36.185,-0.085
36.190,0.030
36.195,-0.011
36.200,-0.106
36.205,-0.014
36.210,0.017
36.215,-0.104
36.220,-0.070
36.225,0.013
36.230,-0.095
36.235,-0.133
36.240,-0.021
36.245,-0.069
36.250,-0.169
36.255,-0.079
36.260,-0.056
36.265,-0.180
36.270,-0.149
36.275,-0.068
36.280,-0.178
36.285,-0.212
36.290,-0.097
36.295,-0.152
36.300,-0.251
36.305,-0.153
36.310,-0.128
36.315,-0.241
36.320,-0.187
36.325,-0.092
36.330,-0.183
36.335,-0.195
36.340,-0.058
36.345,-0.074
36.350,-0.132
36.355,-0.001
36.360,0.061
36.365,-0.023
36.370,0.053
36.375,0.166
36.380,0.082
36.385,0.072
36.390,0.201
36.395,0.162
36.400,0.076
36.405,0.175
36.410,0.200
36.415,0.082
36.420,0.129
36.425,0.218
36.430,0.117
36.435,0.086
36.440,0.192
36.445,0.143
36.450,0.053
36.455,0.145
36.460,0.162
36.465,0.041
36.470,0.081
36.475,0.160
36.480,0.060
36.485,0.038
36.490,0.149
36.495,0.093
36.500,-0.008
36.505,0.085
36.510,0.110
36.515,-0.010
36.520,0.031
36.525,0.110
36.530,0.000
36.535,-0.025
36.540,0.093
36.545,0.048
36.550,-0.033
36.555,0.067
36.560,0.085
36.565,-0.031
36.570,0.020
36.575,0.107
36.580,0.005
36.585,-0.018
36.590,0.097
36.595,0.045
36.600,-0.039
36.605,0.062
36.610,0.077
36.615,-0.042
36.620,0.003
36.625,0.082
36.630,-0.022
36.635,-0.046
36.640,0.068
36.645,0.019
36.650,-0.068
36.655,0.033
36.660,0.054
36.665,-0.062
36.670,-0.013
36.675,0.065
36.680,-0.037
36.685,-0.055
36.690,0.053
36.695,0.001
36.700,-0.079
36.705,0.017
36.710,0.034
36.715,-0.078
36.720,-0.028
36.725,0.054
36.730,-0.047
36.735,-0.069
36.740,0.037
36.745,-0.018
36.750,-0.100
36.755,0.000
36.760,0.016
36.765,-0.094
36.770,-0.031
36.775,0.057
36.780,-0.049
36.785,-0.067
36.790,0.049
36.795,-0.013
36.800,-0.113
36.805,-0.026
36.810,-0.018
36.815,-0.134
36.820,-0.072
36.825,0.026
36.830,-0.062
36.835,-0.080
36.840,0.022
36.845,-0.036
36.850,-0.115
36.855,-0.013
36.860,0.003
36.865,-0.109
36.870,-0.053
36.875,0.033
36.880,-0.062
36.885,-0.063
36.890,0.067
36.895,0.027
36.900,-0.036
36.905,0.068
36.910,0.064
36.915,-0.061
36.920,-0.003
36.925,0.080
36.930,-0.019
36.935,-0.073
36.940,-0.096
36.945,-0.370
36.950,-0.688
36.955,-0.707
36.960,-0.491
36.965,-0.197
36.970,0.103
36.975,0.284
36.980,0.294
36.985,0.367
36.990,0.526
36.995,0.488
37.000,0.387
37.005,0.430
37.010,0.346
37.015,0.121
37.020,0.080
37.025,0.094
37.030,-0.036
37.035,-0.057
37.040,0.047
37.045,-0.014
37.050,-0.088
37.055,0.016
37.060,0.025
37.065,-0.085
37.070,-0.024
37.075,0.050
37.080,-0.061
37.085,-0.074
37.090,0.038
37.095,-0.023
37.100,-0.101
37.105,0.003
37.110,0.011
37.115,-0.097
37.120,-0.038
37.125,0.028
37.130,-0.086
37.135,-0.097
37.140,0.013
37.145,-0.055
37.150,-0.138
37.155,-0.039
37.160,-0.038
37.165,-0.148
37.170,-0.086
37.175,-0.024
37.180,-0.144
37.185,-0.157
37.190,-0.056
37.195,-0.127
37.200,-0.204
37.205,-0.112
37.210,-0.122
37.215,-0.240
37.220,-0.184
37.225,-0.118
37.230,-0.225
37.235,-0.232
37.240,-0.122
37.245,-0.174
37.250,-0.232
37.255,-0.108
37.260,-0.080
37.265,-0.166
37.270,-0.078
37.275,0.022
37.280,-0.047
37.285,-0.014
37.290,0.127
37.295,0.091
37.300,0.043
37.305,0.169
37.310,0.187
37.315,0.084
37.320,0.157
37.325,0.234
37.330,0.128
37.335,0.125
37.340,0.232
37.345,0.162
37.350,0.091
37.355,0.196
37.360,0.190
37.365,0.070
37.370,0.132
37.375,0.197
37.380,0.084
37.385,0.081
37.390,0.184
37.395,0.101
37.400,0.019
37.405,0.130
37.410,0.132
37.415,0.013
37.420,0.071
37.425,0.131
37.430,0.012
37.435,0.009
37.440,0.116
37.445,0.041
37.450,-0.033
37.455,0.074
37.460,0.071
37.465,-0.037
37.470,0.043
37.475,0.111
37.480,-0.013
37.485,-0.015
37.490,0.099
37.495,0.030
37.500,-0.035
37.505,0.076
37.510,0.069
37.515,-0.042
37.520,0.027
37.525,0.086
37.530,-0.031
37.535,-0.027
37.540,0.081
37.545,0.006
37.550,-0.057
37.555,0.058
37.560,0.055
37.565,-0.052
37.570,0.018
37.575,0.080
37.580,-0.033
37.585,-0.029
37.590,0.076
37.595,0.001
37.600,-0.067
37.605,0.035
37.610,0.026
37.615,-0.078
37.620,-0.004
37.625,0.058
37.630,-0.052
37.635,-0.042
37.640,0.064
37.645,-0.009
37.650,-0.071
37.655,0.037
37.660,0.025
37.665,-0.085
37.670,-0.014
37.675,0.045
37.680,-0.061
37.685,-0.049
37.690,0.053
37.695,-0.026
37.700,-0.086
37.705,0.026
37.710,0.011
37.715,-0.109
37.720,-0.050
37.725,0.003
37.730,-0.108
37.735,-0.098
37.740,0.019
37.745,-0.042
37.750,-0.097
37.755,0.013
37.760,0.004
37.765,-0.099
37.770,-0.036
37.775,0.006
37.780,-0.110
37.785,-0.099
37.790,0.012
37.795,-0.042
37.800,-0.080
37.805,0.044
37.810,0.045
37.815,-0.053
37.820,0.022
37.825,0.075
37.830,-0.043
37.835,-0.034
37.840,0.073
37.845,0.008
37.850,-0.068
37.855,-0.061
37.860,-0.265
37.865,-0.603
37.870,-0.712
37.875,-0.584
37.880,-0.326
37.885,0.011
37.890,0.247
37.895,0.280
37.900,0.339
37.905,0.521
37.910,0.528
37.915,0.399
37.920,0.418
37.925,0.383
37.930,0.151
37.935,0.055
37.940,0.090
37.945,-0.014
37.950,-0.069
37.955,0.040
37.960,0.018
37.965,-0.088
37.970,-0.011
37.975,0.041
37.980,-0.073
37.985,-0.058
37.990,0.040
37.995,-0.045
38.000,-0.102
38.005,0.012
38.010,0.000
38.015,-0.106
38.020,-0.029
38.025,0.023
38.030,-0.097
38.035,-0.086
38.040,0.011
38.045,-0.071
38.050,-0.118
38.055,-0.005
38.060,-0.022
38.065,-0.125
38.070,-0.055
38.075,-0.015
38.080,-0.138
38.085,-0.121
38.090,-0.022
38.095,-0.113
38.100,-0.174
38.105,-0.071
38.110,-0.101
38.115,-0.211
38.120,-0.137
38.125,-0.097
38.130,-0.225
38.135,-0.212
38.140,-0.113
38.145,-0.198
38.150,-0.252
38.155,-0.136
38.160,-0.144
38.165,-0.237
38.170,-0.147
38.175,-0.081
38.180,-0.172
38.185,-0.116
38.190,0.025
38.195,-0.025
38.200,-0.047
38.205,0.093
38.210,0.095
38.215,0.021
38.220,0.131
38.225,0.195
38.230,0.087
38.235,0.119
38.240,0.227
38.245,0.148
38.250,0.104
38.255,0.217
38.260,0.192
38.265,0.091
38.270,0.173
38.275,0.212
38.280,0.090
38.285,0.111
38.290,0.206
38.295,0.115
38.300,0.065
38.305,0.169
38.310,0.132
38.315,0.026
38.320,0.108
38.325,0.148
38.330,0.027
38.335,0.042
38.340,0.135
38.345,0.043
38.350,-0.007
38.355,0.105
38.360,0.074
38.365,-0.028
38.370,0.058
38.375,0.100
38.380,-0.015
38.385,0.014
38.390,0.111
38.395,0.020
38.400,-0.027
38.405,0.083
38.410,0.057
38.415,-0.036
38.420,0.053
38.425,0.097
38.430,-0.019
38.435,0.004
38.440,0.096
38.445,0.004
38.450,-0.043
38.455,0.071
38.460,0.045
38.465,-0.053
38.470,0.031
38.475,0.071
38.480,-0.044
38.485,-0.017
38.490,0.080
38.495,-0.012
38.500,-0.059
38.505,0.055
38.510,0.022
38.515,-0.080
38.520,0.010
38.525,0.051
38.530,-0.065
38.535,-0.034
38.540,0.060
38.545,-0.031
38.550,-0.073
38.555,0.037
38.560,0.004
38.565,-0.091
38.570,0.001
38.575,0.047
38.580,-0.071
38.585,-0.046
38.590,0.053
38.595,-0.031
38.600,-0.072
38.605,0.039
38.610,0.001
38.615,-0.097
38.620,-0.006
38.625,0.028
38.630,-0.093
38.635,-0.065
38.640,0.022
38.645,-0.082
38.650,-0.122
38.655,-0.002
38.660,-0.031
38.665,-0.118
38.670,-0.011
38.675,0.036
38.680,-0.085
38.685,-0.054
38.690,0.041
38.695,-0.058
38.700,-0.102
38.705,0.010
38.710,-0.030
38.715,-0.118
38.720,-0.008
38.725,0.042
38.730,-0.058
38.735,-0.007
38.740,0.091
38.745,-0.002
38.750,-0.041
38.755,0.071
38.760,0.036
38.765,-0.054
38.770,0.047
38.775,0.060
38.780,-0.162
38.785,-0.314
38.790,-0.454
38.795,-0.739
38.800,-0.691
38.805,-0.189
38.810,0.099
38.815,0.134
38.820,0.337
38.825,0.482
38.830,0.424
38.835,0.471
38.840,0.527
38.845,0.369
38.850,0.250
38.855,0.246
38.860,0.096
38.865,-0.055
38.870,0.019
38.875,0.045
38.880,-0.074
38.885,-0.039
38.890,0.050
38.895,-0.050
38.900,-0.086
38.905,0.028
38.910,-0.010
38.915,-0.101
38.920,-0.008
38.925,0.027
38.930,-0.088
38.935,-0.055
38.940,0.032
38.945,-0.063
38.950,-0.097
38.955,0.015
38.960,-0.024
38.965,-0.116
38.970,-0.020
38.975,0.010
38.980,-0.109
38.985,-0.071
38.990,0.016
38.995,-0.085
39.000,-0.121
39.005,-0.012
39.010,-0.063
39.015,-0.160
39.020,-0.069
39.025,-0.054
39.030,-0.182
39.035,-0.147
39.040,-0.067
39.045,-0.174
39.050,-0.214
39.055,-0.110
39.060,-0.159
39.065,-0.253
39.070,-0.162
39.075,-0.136
39.080,-0.247
39.085,-0.199
39.090,-0.100
39.095,-0.181
39.100,-0.190
39.105,-0.054
39.110,-0.069
39.115,-0.121
39.120,0.008
39.125,0.063
39.130,-0.022
39.135,0.051
39.140,0.161
39.145,0.081
39.150,0.071
39.155,0.198
39.160,0.163
39.165,0.084
39.170,0.186
39.175,0.214
39.180,0.098
39.185,0.138
39.190,0.222
39.195,0.120
39.200,0.089
39.205,0.198
39.210,0.150
39.215,0.062
39.220,0.153
39.225,0.170
39.230,0.049
39.235,0.088
39.240,0.168
39.245,0.059
39.250,0.025
39.255,0.133
39.260,0.081
39.265,-0.007
39.270,0.088
39.275,0.103
39.280,-0.015
39.285,0.035
39.290,0.119
39.295,0.015
39.300,-0.013
39.305,0.097
39.310,0.048
39.315,-0.038
39.320,0.062
39.325,0.085
39.330,-0.028
39.335,0.020
39.340,0.101
39.345,-0.003
39.350,-0.024
39.355,0.087
39.360,0.033
39.365,-0.048
39.370,0.053
39.375,0.070
39.380,-0.044
39.385,0.005
39.390,0.085
39.395,-0.016
39.400,-0.035
39.405,0.073
39.410,0.018
39.415,-0.064
39.420,0.038
39.425,0.059
39.430,-0.058
39.435,-0.010
39.440,0.074
39.445,-0.030
39.450,-0.053
39.455,0.059
39.460,0.006
39.465,-0.078
39.470,0.024
39.475,0.044
39.480,-0.068
39.485,-0.017
39.490,0.063
39.495,-0.042
39.500,-0.063
39.505,0.051
39.510,-0.003
39.515,-0.084
39.520,0.018
39.525,0.033
39.530,-0.080
39.535,-0.027
39.540,0.050
39.545,-0.057
39.550,-0.072
39.555,0.036
39.560,-0.031
39.565,-0.120
39.570,-0.022
39.575,-0.006
39.580,-0.121
39.585,-0.064
39.590,0.027
39.595,-0.063
39.600,-0.073
39.605,0.037
39.610,-0.017
39.615,-0.098
39.620,-0.004
39.625,0.007
39.630,-0.108
39.635,-0.054
39.640,0.039
39.645,-0.048
39.650,-0.047
39.655,0.080
39.660,0.032
39.665,-0.044
39.670,0.057
39.675,0.065
39.680,-0.050
39.685,0.005
39.690,0.090
39.695,-0.010
39.700,-0.076
39.705,-0.110
39.710,-0.383
39.715,-0.693
39.720,-0.682
39.725,-0.411
39.730,-0.099
39.735,0.182
39.740,0.355
39.745,0.357
39.750,0.409
39.755,0.539
39.760,0.464
39.765,0.343
39.770,0.391
39.775,0.302
39.780,0.062
39.785,0.028
39.790,0.064
39.795,-0.046
39.800,-0.058
39.805,0.047
39.810,-0.020
39.815,-0.099
39.820,0.006
39.825,0.015
39.830,-0.094
39.835,-0.033
39.840,0.035
39.845,-0.073
39.850,-0.078
39.855,0.030
39.860,-0.034
39.865,-0.107
39.870,0.001
39.875,0.005
39.880,-0.111
39.885,-0.051
39.890,0.022
39.895,-0.090
39.900,-0.103
39.905,0.006
39.910,-0.060
39.915,-0.136
39.920,-0.030
39.925,-0.030
39.930,-0.151
39.935,-0.097
39.940,-0.032
39.945,-0.150
39.950,-0.165
39.955,-0.063
39.960,-0.133
39.965,-0.215
39.970,-0.118
39.975,-0.121
39.980,-0.241
39.985,-0.186
39.990,-0.119
39.995,-0.229
40.000,-0.231
40.005,-0.118
40.010,-0.176
40.015,-0.233
40.020,-0.109
40.025,-0.084
40.030,-0.169
40.035,-0.077
40.040,0.024
40.045,-0.053
40.050,-0.026
40.055,0.113
40.060,0.073
40.065,0.028
40.070,0.155
40.075,0.172
40.080,0.075
40.085,0.145
40.090,0.215
40.095,0.114
40.100,0.113
40.105,0.219
40.110,0.153
40.115,0.081
40.120,0.184
40.125,0.178
40.130,0.064
40.135,0.127
40.140,0.187
40.145,0.070
40.150,0.064
40.155,0.170
40.160,0.096
40.165,0.018
40.170,0.121
40.175,0.115
40.180,0.000
40.185,0.064
40.190,0.129
40.195,0.013
40.200,0.008
40.205,0.117
40.210,0.047
40.215,-0.023
40.220,0.086
40.225,0.086
40.230,-0.025
40.235,0.040
40.240,0.105
40.245,-0.005
40.250,-0.005
40.255,0.097
40.260,0.023
40.265,-0.040
40.270,0.071
40.275,0.068
40.280,-0.040
40.285,0.031
40.290,0.096
40.295,-0.020
40.300,-0.021
40.305,0.087
40.310,0.014
40.315,-0.055
40.320,0.055
40.325,0.052
40.330,-0.059
40.335,0.012
40.340,0.074
40.345,-0.039
40.350,-0.034
40.355,0.073
40.360,-0.002
40.365,-0.064
40.370,0.048
40.375,0.042
40.380,-0.068
40.385,0.001
40.390,0.062
40.395,-0.048
40.400,-0.042
40.405,0.063
40.410,-0.010
40.415,-0.075
40.420,0.030
40.425,0.023
40.430,-0.080
40.435,-0.007
40.440,0.051
40.445,-0.060
40.450,-0.052
40.455,0.053
40.460,-0.023
40.465,-0.087
40.470,0.020
40.475,0.000
40.480,-0.124
40.485,-0.054
40.490,0.008
40.495,-0.106
40.500,-0.094
40.505,0.025
40.510,-0.038
40.515,-0.094
40.520,0.018
40.525,0.008
40.530,-0.101
40.535,-0.031
40.540,0.023
40.545,-0.094
40.550,-0.078
40.555,0.041
40.560,-0.025
40.565,-0.069
40.570,0.059
40.575,0.058
40.580,-0.046
40.585,0.024
40.590,0.078
40.595,-0.036
40.600,-0.023
40.605,0.089
40.610,0.014
40.615,-0.095
40.620,-0.136
40.625,-0.376
40.630,-0.711
40.635,-0.705
40.640,-0.372
40.645,-0.073
40.650,0.145
40.655,0.352
40.660,0.382
40.665,0.377
40.670,0.504
40.675,0.480
40.680,0.337
40.685,0.355
40.690,0.316
40.695,0.087
40.700,0.009
40.705,0.067
40.710,-0.021
40.715,-0.080
40.720,0.031
40.725,0.015
40.730,-0.089
40.735,-0.015
40.740,0.032
40.745,-0.083
40.750,-0.067
40.755,0.037
40.760,-0.041
40.765,-0.100
40.770,0.011
40.775,-0.003
40.780,-0.104
40.785,-0.027
40.790,0.022
40.795,-0.091
40.800,-0.074
40.805,0.028
40.810,-0.058
40.815,-0.118
40.820,-0.008
40.825,-0.029
40.830,-0.132
40.835,-0.054
40.840,-0.010
40.845,-0.131
40.850,-0.122
40.855,-0.032
40.860,-0.123
40.865,-0.186
40.870,-0.083
40.875,-0.111
40.880,-0.222
40.885,-0.147
40.890,-0.105
40.895,-0.229
40.900,-0.217
40.905,-0.117
40.910,-0.199
40.915,-0.251
40.920,-0.134
40.925,-0.144
40.930,-0.235
40.935,-0.139
40.940,-0.064
40.945,-0.152
40.950,-0.104
40.955,0.034
40.960,-0.015
40.965,-0.031
40.970,0.112
40.975,0.109
40.980,0.030
40.985,0.136
40.990,0.196
40.995,0.092
41.000,0.125
41.005,0.230
41.010,0.144
41.015,0.096
41.020,0.209
41.025,0.183
41.030,0.077
41.035,0.154
41.040,0.198
41.045,0.079
41.050,0.097
41.055,0.193
41.060,0.100
41.065,0.048
41.070,0.159
41.075,0.129
41.080,0.021
41.085,0.100
41.090,0.140
41.095,0.020
41.100,0.041
41.105,0.137
41.110,0.047
41.115,-0.004
41.120,0.106
41.125,0.078
41.130,-0.021
41.135,0.065
41.140,0.107
41.145,-0.013
41.150,0.015
41.155,0.115
41.160,0.021
41.165,-0.024
41.170,0.093
41.175,0.062
41.180,-0.036
41.185,0.051
41.190,0.090
41.195,-0.029
41.200,-0.004
41.205,0.091
41.210,0.000
41.215,-0.045
41.220,0.070
41.225,0.041
41.230,-0.055
41.235,0.032
41.240,0.072
41.245,-0.044
41.250,-0.017
41.255,0.077
41.260,-0.014
41.265,-0.054
41.270,0.061
41.275,0.027
41.280,-0.074
41.285,0.013
41.290,0.056
41.295,-0.060
41.300,-0.034
41.305,0.059
41.310,-0.033
41.315,-0.071
41.320,0.045
41.325,0.011
41.330,-0.085
41.335,0.010
41.340,0.050
41.345,-0.068
41.350,-0.037
41.355,0.058
41.360,-0.034
41.365,-0.076
41.370,0.037
41.375,0.007
41.380,-0.089
41.385,-0.006
41.390,0.020
41.395,-0.108
41.400,-0.081
41.405,0.017
41.410,-0.077
41.415,-0.117
41.420,0.010
41.425,-0.010
41.430,-0.099
41.435,-0.004
41.440,0.033
41.445,-0.089
41.450,-0.063
41.455,0.027
41.460,-0.072
41.465,-0.106
41.470,0.025
41.475,0.002
41.480,-0.083
41.485,0.025
41.490,0.079
41.495,-0.028
41.500,0.003
41.505,0.091
41.510,-0.004
41.515,-0.041
41.520,0.076
41.525,0.048
41.530,-0.074
41.535,-0.101
41.540,-0.269
41.545,-0.620
41.550,-0.738
41.555,-0.486
41.560,-0.168
41.565,0.074
41.570,0.305
41.575,0.379
41.580,0.358
41.585,0.475
41.590,0.509
41.595,0.365
41.600,0.358
41.605,0.368
41.610,0.151
41.615,0.016
41.620,0.071
41.625,0.011
41.630,-0.081
41.635,0.007
41.640,0.032
41.645,-0.085
41.650,-0.047
41.655,0.040
41.660,-0.059
41.665,-0.092
41.670,0.024
41.675,-0.015
41.680,-0.104
41.685,-0.010
41.690,0.016
41.695,-0.105
41.700,-0.065
41.705,0.028
41.710,-0.067
41.715,-0.100
41.720,0.009
41.725,-0.032
41.730,-0.120
41.735,-0.029
41.740,-0.007
41.745,-0.128
41.750,-0.091
41.755,-0.006
41.760,-0.109
41.765,-0.144
41.770,-0.037
41.775,-0.090
41.780,-0.192
41.785,-0.104
41.790,-0.084
41.795,-0.212
41.800,-0.181
41.805,-0.100
41.810,-0.206
41.815,-0.240
41.820,-0.126
41.825,-0.170
41.830,-0.257
41.835,-0.155
41.840,-0.123
41.845,-0.231
41.850,-0.173
41.855,-0.063
41.860,-0.136
41.865,-0.137
41.870,0.009
41.875,-0.001
41.880,-0.061
41.885,0.064
41.890,0.120
41.895,0.029
41.900,0.093
41.905,0.196
41.910,0.108
41.915,0.093
41.920,0.213
41.925,0.168
41.930,0.083
41.935,0.182
41.940,0.203
41.945,0.083
41.950,0.124
41.955,0.206
41.960,0.099
41.965,0.068
41.970,0.181
41.975,0.130
41.980,0.040
41.985,0.131
41.990,0.143
41.995,0.023
42.000,0.067
42.005,0.147
42.010,0.039
42.015,0.009
42.020,0.121
42.025,0.070
42.030,-0.019
42.035,0.079
42.040,0.102
42.045,-0.012
42.050,0.034
42.055,0.116
42.060,0.013
42.065,-0.012
42.070,0.099
42.075,0.049
42.080,-0.034
42.085,0.066
42.090,0.087
42.095,-0.028
42.100,0.019
42.105,0.102
42.110,0.000
42.115,-0.021
42.120,0.091
42.125,0.036
42.130,-0.051
42.135,0.051
42.140,0.073
42.145,-0.041
42.150,0.009
42.155,0.088
42.160,-0.018
42.165,-0.035
42.170,0.078
42.175,0.020
42.180,-0.062
42.185,0.039
42.190,0.055
42.195,-0.056
42.200,-0.003
42.205,0.073
42.210,-0.035
42.215,-0.052
42.220,0.060
42.225,0.007
42.230,-0.075
42.235,0.024
42.240,0.042
42.245,-0.071
42.250,-0.020
42.255,0.061
42.260,-0.042
42.265,-0.061
42.270,0.051
42.275,-0.005
42.280,-0.091
42.285,0.012
42.290,0.031
42.295,-0.085
42.300,-0.034
42.305,0.040
42.310,-0.078
42.315,-0.105
42.320,0.005
42.325,-0.052
42.330,-0.133
42.335,-0.024
42.340,0.005
42.345,-0.097
42.350,-0.039
42.355,0.043
42.360,-0.058
42.365,-0.082
42.370,0.022
42.375,-0.036
42.380,-0.117
42.385,-0.006
42.390,0.024
42.395,-0.074
42.400,-0.006
42.405,0.084
42.410,-0.012
42.415,-0.023
42.420,0.084
42.425,0.018
42.430,-0.059
42.435,0.047
42.440,0.063
42.445,-0.041
42.450,-0.036
42.455,-0.112
42.460,-0.438
42.465,-0.675
42.470,-0.636
42.475,-0.425
42.480,-0.089
42.485,0.223
42.490,0.333
42.495,0.325
42.500,0.435
42.505,0.525
42.510,0.408
42.515,0.362
42.520,0.415
42.525,0.258
42.530,0.060
42.535,0.070
42.540,0.038
42.545,-0.080
42.550,-0.022
42.555,0.048
42.560,-0.062
42.565,-0.073
42.570,0.038
42.575,-0.023
42.580,-0.098
42.585,0.007
42.590,0.012
42.595,-0.104
42.600,-0.044
42.605,0.032
42.610,-0.076
42.615,-0.081
42.620,0.032
42.625,-0.034
42.630,-0.109
42.635,-0.005
42.640,-0.003
42.645,-0.117
42.650,-0.055
42.655,0.011
42.660,-0.103
42.665,-0.110
42.670,-0.005
42.675,-0.078
42.680,-0.154
42.685,-0.052
42.690,-0.059
42.695,-0.181
42.700,-0.126
42.705,-0.066
42.710,-0.183
42.715,-0.194
42.720,-0.091
42.725,-0.166
42.730,-0.244
42.735,-0.139
42.740,-0.140
42.745,-0.255
42.750,-0.189
42.755,-0.116
42.760,-0.219
42.765,-0.209
42.770,-0.078
42.775,-0.124
42.780,-0.169
42.785,-0.026
42.790,0.011
42.795,-0.068
42.800,0.025
42.805,0.118
42.810,0.034
42.815,0.053
42.820,0.180
42.825,0.128
42.830,0.069
42.835,0.188
42.840,0.196
42.845,0.088
42.850,0.153
42.855,0.215
42.860,0.104
42.865,0.102
42.870,0.204
42.875,0.130
42.880,0.059
42.885,0.164
42.890,0.157
42.895,0.042
42.900,0.106
42.905,0.170
42.910,0.055
42.915,0.051
42.920,0.151
42.925,0.073
42.930,0.000
42.935,0.103
42.940,0.096
42.945,-0.016
42.950,0.053
42.955,0.117
42.960,0.004
42.965,0.003
42.970,0.109
42.975,0.036
42.980,-0.032
42.985,0.074
42.990,0.071
42.995,-0.034
43.000,0.040
43.005,0.102
43.010,-0.012
43.015,-0.008
43.020,0.099
43.025,0.022
43.030,-0.047
43.035,0.060
43.040,0.052
43.045,-0.054
43.050,0.022
43.055,0.084
43.060,-0.031
43.065,-0.027
43.070,0.080
43.075,0.007
43.080,-0.055
43.085,0.053
43.090,0.040
43.095,-0.068
43.100,0.008
43.105,0.071
43.110,-0.040
43.115,-0.041
43.120,0.029
43.125,-0.026
43.130,-0.050
43.135,-0.028
43.140,-0.035
43.145,-0.034
43.150,-0.031
43.155,-0.031
43.160,-0.030
43.165,-0.029
43.170,-0.029
43.175,-0.028
43.180,-0.028
43.185,-0.027
43.190,-0.026
43.195,-0.026
43.200,-0.025
43.205,-0.024
43.210,-0.024
43.215,-0.023
43.220,-0.023
43.225,-0.022
43.230,-0.021
43.235,-0.021
43.240,-0.020
43.245,-0.020
43.250,-0.019
43.255,-0.019
43.260,-0.018
43.265,-0.017
43.270,-0.017
43.275,-0.016
43.280,-0.016
43.285,-0.015
43.290,-0.015
43.295,-0.014
43.300,-0.013
43.305,-0.013
43.310,-0.013
43.315,-0.012
43.320,-0.012
43.325,-0.012
43.330,-0.011
43.335,-0.011
43.340,-0.010
43.345,-0.010
43.350,-0.009
43.355,-0.009
43.360,-0.009
43.365,-0.008
43.370,-0.008
43.375,-0.007
43.380,-0.007
43.385,-0.007
43.390,-0.007
43.395,-0.007
43.400,-0.006
43.405,-0.006
43.410,-0.006
43.415,-0.006
43.420,-0.005
43.425,-0.005
43.430,-0.005
43.435,-0.004
43.440,-0.004
43.445,-0.004
43.450,-0.003
43.455,-0.003
43.460,-0.003
43.465,-0.003
43.470,-0.002
43.475,-0.002
43.480,-0.002
43.485,-0.002
43.490,-0.002
43.495,-0.002
43.500,-0.002
43.505,-0.001
43.510,-0.001
43.515,-0.001
43.520,-0.001
43.525,0.000
43.530,0.000
43.535,0.000
43.540,0.000
43.545,0.000
43.550,0.000
43.555,0.000
43.560,0.000
43.565,0.000
43.570,0.001
43.575,0.001
43.580,0.001
43.585,0.000
43.590,0.000
43.595,0.001
43.600,0.001
43.605,0.001
43.610,0.001
43.615,0.001
43.620,0.001
43.625,0.001
43.630,0.001
43.635,0.001
43.640,0.001
43.645,0.001
43.650,0.001
43.655,0.001
43.660,0.002
43.665,0.002
43.670,0.002
43.675,0.002
43.680,0.002
43.685,0.002
43.690,0.002
43.695,0.002
43.700,0.002
43.705,0.002
43.710,0.001
43.715,0.001
43.720,0.002
43.725,0.002
43.730,0.002
43.735,0.002
43.740,0.002
43.745,0.002
43.750,0.002
43.755,0.002
43.760,0.002
43.765,0.002
43.770,0.002
43.775,0.002
43.780,0.002
43.785,0.001
43.790,0.001
43.795,0.001
43.800,0.001
43.805,0.001
43.810,0.001
43.815,0.001
43.820,0.001
43.825,0.001
43.830,0.001
43.835,0.001
43.840,0.002
43.845,0.002
43.850,0.001
43.855,0.001
43.860,0.001
43.865,0.001
43.870,0.001
43.875,0.001
43.880,0.001
43.885,0.001
43.890,0.001
43.895,0.001
43.900,0.001
43.905,0.001
43.910,0.001
43.915,0.001
43.920,0.001
43.925,0.001
43.930,0.001
43.935,0.001
43.940,0.001
43.945,0.001
43.950,0.001
43.955,0.001
43.960,0.001
43.965,0.001
43.970,0.001
43.975,0.001
43.980,0.001
43.985,0.001
43.990,0.001
43.995,0.000
44.000,0.000
44.005,0.000
44.010,0.000
44.015,0.001
44.020,0.000
44.025,0.000
44.030,0.000
44.035,0.000
44.040,0.000
44.045,0.000
44.050,0.000
44.055,0.000
44.060,0.000
44.065,0.001
44.070,0.001
44.075,0.000
44.080,0.001
44.085,0.001
44.090,0.001
44.095,0.000
44.100,0.000
44.105,0.000
44.110,0.000
44.115,0.000
44.120,0.000
44.125,0.000
44.130,0.000
44.135,0.000
44.140,0.000
44.145,0.000
44.150,0.000
44.155,0.000
44.160,0.000
44.165,0.000
44.170,0.000
44.175,0.000
44.180,0.000
44.185,0.000
44.190,0.000
44.195,0.000
44.200,0.000
44.205,0.000
44.210,0.000
44.215,0.000
44.220,0.000
44.225,0.000
44.230,0.000
44.235,0.000
44.240,0.000
44.245,0.000
44.250,0.000
44.255,0.000
44.260,0.000
44.265,0.000
44.270,0.000
44.275,0.000
44.280,0.000
44.285,0.000
44.290,0.000
44.295,0.000
44.300,0.000
44.305,0.000
44.310,0.000
44.315,0.000
44.320,0.000
44.325,0.000
44.330,0.000
44.335,0.000
44.340,0.000
44.345,0.000
44.350,0.000
44.355,0.000
44.360,0.000
44.365,0.000
44.370,0.000
44.375,0.000
44.380,0.000
44.385,0.000
44.390,0.000
44.395,0.000
44.400,0.000
44.405,0.000
44.410,0.000
44.415,0.000
44.420,0.000
44.425,0.000
44.430,0.000
44.435,0.000
44.440,0.000
44.445,0.000
44.450,0.000
44.455,0.000
44.460,0.000
44.465,0.000
44.470,0.000
44.475,0.000
44.480,0.000
44.485,0.000
44.490,0.000
44.495,0.000
44.500,0.000
44.505,0.000
44.510,0.000
44.515,0.000
44.520,0.000
44.525,0.000
44.530,0.000
44.535,0.000
44.540,0.000
44.545,0.000
44.550,0.000
44.555,0.000
44.560,0.000
44.565,0.000
44.570,0.000
44.575,0.000
44.580,0.000
44.585,0.000
44.590,0.000
44.595,0.000
44.600,0.000
44.605,0.000
44.610,0.000
44.615,0.000
44.620,0.000
44.625,0.000
44.630,0.000
44.635,0.000
44.640,0.000
44.645,0.000
44.650,0.000
44.655,0.000
44.660,0.000
44.665,0.000
44.670,0.000
44.675,0.000
44.680,0.000
44.685,0.000
44.690,0.000
44.695,0.000
44.700,0.000
44.705,0.000
44.710,0.000
44.715,0.000
44.720,0.000
44.725,0.000
44.730,0.000
44.735,0.001
44.740,0.000
44.745,0.000
44.750,0.000
44.755,0.000
44.760,0.000
44.765,0.001
44.770,0.000
44.775,0.000
44.780,0.000
44.785,0.000
44.790,0.000
44.795,0.000
44.800,0.000
44.805,0.000
44.810,0.000
44.815,0.000
44.820,0.000
44.825,0.000
44.830,0.000
44.835,0.000
44.840,0.000
44.845,0.000
44.850,0.000
44.855,0.000
44.860,0.000
44.865,0.000
44.870,0.000
44.875,0.000
44.880,0.000
44.885,0.000
44.890,0.000
44.895,0.000
44.900,0.000
44.905,0.000
44.910,0.000
44.915,0.000
44.920,0.000
44.925,0.000
44.930,0.000
44.935,0.000
44.940,0.000
44.945,0.000
44.950,0.000
44.955,0.000
44.960,0.000
44.965,0.000
44.970,0.000
44.975,0.000
44.980,0.000
44.985,0.000
44.990,0.000
44.995,0.000
45.000,0.000
45.005,0.000
45.010,0.000
45.015,0.000
45.020,0.000
45.025,0.000
45.030,0.000
45.035,0.000
45.040,0.000
45.045,0.000
45.050,0.000
45.055,0.000
45.060,0.000
45.065,0.000
45.070,0.000
45.075,0.000
45.080,0.000
45.085,0.000
45.090,0.000
45.095,0.000
45.100,0.000
45.105,0.000
45.110,0.000
45.115,0.000
45.120,0.000
45.125,0.000
45.130,0.000
45.135,0.000
45.140,0.000
45.145,0.000
45.150,0.000
45.155,0.000
45.160,0.000
45.165,0.000
45.170,0.000
45.175,0.000
45.180,0.000
45.185,0.000
45.190,0.000
45.195,0.000
45.200,0.000
45.205,0.000
45.210,0.000
