'Elapsed time','ECG'
'seconds','mV'
0.000,-0.001
0.005,0.043
0.010,0.040
0.015,0.039
0.020,0.045
0.025,0.035
0.030,0.031
0.035,0.024
0.040,0.019
0.045,0.012
0.050,-0.004
0.055,-0.015
0.060,-0.020
0.065,-0.027
0.070,-0.038
0.075,-0.041
0.080,-0.036
0.085,-0.023
0.090,-0.012
0.095,-0.012
0.100,-0.016
0.105,-0.020
0.110,-0.018
0.115,0.004
0.120,0.032
0.125,0.047
0.130,0.051
0.135,0.050
0.140,0.043
0.145,0.040
0.150,0.043
0.155,0.036
0.160,0.028
0.165,0.040
0.170,0.046
0.175,0.044
0.180,0.056
0.185,0.068
0.190,0.067
0.195,0.056
0.200,0.044
0.205,0.037
0.210,0.032
0.215,0.032
0.220,0.035
0.225,0.030
0.230,0.007
0.235,-0.060
0.240,-0.213
0.245,-0.459
0.250,-0.790
0.255,-1.147
0.260,-1.368
0.265,-1.255
0.270,-0.815
0.275,-0.310
0.280,0.114
0.285,0.432
0.290,0.589
0.295,0.579
0.300,0.468
0.305,0.365
0.310,0.313
0.315,0.292
0.320,0.286
0.325,0.282
0.330,0.281
0.335,0.269
0.340,0.253
0.345,0.243
0.350,0.231
0.355,0.218
0.360,0.208
0.365,0.199
0.370,0.187
0.375,0.175
0.380,0.163
0.385,0.153
0.390,0.144
0.395,0.135
0.400,0.128
0.405,0.120
0.410,0.112
0.415,0.107
0.420,0.097
0.425,0.085
0.430,0.079
0.435,0.072
0.440,0.066
0.445,0.062
0.450,0.055
0.455,0.046
0.460,0.036
0.465,0.027
0.470,0.019
0.475,0.012
0.480,0.009
0.485,0.004
0.490,-0.007
0.495,-0.017
0.500,-0.024
0.505,-0.030
0.510,-0.031
0.515,-0.032
0.520,-0.035
0.525,-0.038
0.530,-0.040
0.535,-0.037
0.540,-0.033
0.545,-0.034
0.550,-0.036
0.555,-0.033
0.560,-0.024
0.565,-0.017
0.570,-0.016
0.575,-0.010
0.580,0.001
0.585,0.000
0.590,-0.008
0.595,-0.008
0.600,-0.008
0.605,-0.011
0.610,-0.009
0.615,-0.013
0.620,-0.020
0.625,-0.023
0.630,-0.030
0.635,-0.037
0.640,-0.040
0.645,-0.044
0.650,-0.048
0.655,-0.047
0.660,-0.040
0.665,-0.030
0.670,-0.030
0.675,-0.032
0.680,-0.028
0.685,-0.023
0.690,-0.014
0.695,-0.004
0.700,-0.001
0.705,0.002
0.710,0.007
0.715,0.012
0.720,0.017
0.725,0.020
0.730,0.019
0.735,0.019
0.740,0.016
0.745,0.011
0.750,0.009
0.755,0.006
0.760,0.000
0.765,-0.002
0.770,0.000
0.775,0.002
0.780,0.001
0.785,-0.007
0.790,-0.015
0.795,-0.018
0.800,-0.029
0.805,-0.031
0.810,-0.019
0.815,-0.016
0.820,-0.021
0.825,-0.022
0.830,-0.023
0.835,-0.019
0.840,-0.015
0.845,-0.018
0.850,-0.019
0.855,-0.021
0.860,-0.021
0.865,-0.012
0.870,-0.008
0.875,-0.015
0.880,-0.017
0.885,-0.011
0.890,-0.006
0.895,0.004
0.900,0.009
0.905,0.002
0.910,-0.001
0.915,0.001
0.920,0.000
0.925,0.002
0.930,0.010
0.935,0.011
0.940,0.008
0.945,0.004
0.950,0.007
0.955,0.014
0.960,0.017
0.965,0.018
0.970,0.017
0.975,0.013
0.980,0.013
0.985,0.015
0.990,0.017
0.995,0.019
1.000,0.018
1.005,0.015
1.010,0.011
1.015,0.007
1.020,0.004
1.025,0.004
1.030,0.006
1.035,0.007
1.040,0.002
1.045,0.000
1.050,0.007
1.055,0.010
1.060,0.004
1.065,0.004
1.070,0.008
1.075,0.005
1.080,0.003
1.085,0.002
1.090,0.000
1.095,0.002
1.100,0.007
1.105,0.005
1.110,0.000
1.115,-0.005
1.120,-0.011
1.125,-0.011
1.130,-0.010
1.135,-0.010
1.140,-0.008
1.145,-0.002
1.150,0.000
1.155,-0.008
1.160,-0.012
1.165,-0.010
1.170,-0.008
1.175,-0.006
1.180,-0.006
1.185,-0.009
1.190,-0.011
1.195,-0.007
1.200,-0.004
1.205,-0.010
1.210,-0.014
1.215,-0.014
1.220,-0.014
1.225,-0.012
1.230,-0.010
1.235,-0.013
1.240,-0.014
1.245,-0.011
1.250,-0.010
1.255,-0.011
1.260,-0.010
1.265,-0.007
1.270,-0.009
1.275,-0.014
1.280,-0.015
1.285,-0.016
1.290,-0.014
1.295,-0.010
1.300,-0.011
1.305,-0.016
1.310,-0.018
1.315,-0.016
1.320,-0.017
1.325,-0.019
1.330,-0.014
1.335,-0.012
1.340,-0.011
1.345,-0.008
1.350,-0.007
1.355,-0.009
1.360,-0.007
1.365,-0.005
1.370,-0.009
1.375,-0.013
1.380,-0.011
1.385,-0.011
1.390,-0.015
1.395,-0.014
1.400,-0.008
1.405,-0.006
1.410,-0.006
1.415,-0.007
1.420,-0.010
1.425,-0.011
1.430,-0.013
1.435,-0.021
1.440,-0.036
1.445,-0.048
1.450,-0.054
1.455,-0.063
1.460,-0.070
1.465,-0.068
1.470,-0.065
1.475,-0.054
1.480,-0.038
1.485,-0.028
1.490,-0.022
1.495,-0.024
1.500,-0.035
1.505,-0.030
1.510,0.001
1.515,0.027
1.520,0.030
1.525,0.028
1.530,0.033
1.535,0.035
1.540,0.031
1.545,0.033
1.550,0.031
1.555,0.028
1.560,0.037
1.565,0.048
1.570,0.050
1.575,0.051
1.580,0.057
1.585,0.054
1.590,0.038
1.595,0.033
1.600,0.034
1.605,0.026
1.610,0.026
1.615,0.032
1.620,0.009
1.625,-0.042
1.630,-0.141
1.635,-0.335
1.640,-0.617
1.645,-0.960
1.650,-1.268
1.655,-1.356
1.660,-1.094
1.665,-0.621
1.670,-0.170
1.675,0.221
1.680,0.484
1.685,0.564
1.690,0.516
1.695,0.425
1.700,0.358
1.705,0.319
1.710,0.312
1.715,0.315
1.720,0.303
1.725,0.292
1.730,0.284
1.735,0.276
1.740,0.260
1.745,0.242
1.750,0.232
1.755,0.222
1.760,0.207
1.765,0.192
1.770,0.184
1.775,0.181
1.780,0.176
1.785,0.167
1.790,0.149
1.795,0.127
1.800,0.120
1.805,0.117
1.810,0.111
1.815,0.106
1.820,0.103
1.825,0.102
1.830,0.094
1.835,0.081
1.840,0.067
1.845,0.049
1.850,0.041
1.855,0.044
1.860,0.030
1.865,0.016
1.870,0.019
1.875,0.019
1.880,0.020
1.885,0.021
1.890,0.003
1.895,-0.008
1.900,-0.011
1.905,-0.023
1.910,-0.038
1.915,-0.046
1.920,-0.052
1.925,-0.051
1.930,-0.044
1.935,-0.042
1.940,-0.037
1.945,-0.032
1.950,-0.036
1.955,-0.036
1.960,-0.031
1.965,-0.034
1.970,-0.038
1.975,-0.035
1.980,-0.036
1.985,-0.033
1.990,-0.025
1.995,-0.018
2.000,-0.013
2.005,-0.023
2.010,-0.031
2.015,-0.029
2.020,-0.034
2.025,-0.041
2.030,-0.037
2.035,-0.035
2.040,-0.046
2.045,-0.050
2.050,-0.045
2.055,-0.042
2.060,-0.030
2.065,-0.015
2.070,-0.017
2.075,-0.013
2.080,0.000
2.085,0.005
2.090,0.013
2.095,0.020
2.100,0.020
2.105,0.016
2.110,0.021
2.115,0.034
2.120,0.037
2.125,0.027
2.130,0.030
2.135,0.038
2.140,0.032
2.145,0.025
2.150,0.022
2.155,0.015
2.160,0.011
2.165,0.014
2.170,0.014
2.175,0.008
2.180,0.009
2.185,0.005
2.190,-0.001
2.195,-0.001
2.200,-0.003
2.205,-0.002
2.210,-0.001
2.215,-0.002
2.220,-0.003
2.225,-0.006
2.230,-0.008
2.235,-0.013
2.240,-0.015
2.245,-0.006
2.250,0.004
2.255,0.003
2.260,-0.003
2.265,-0.010
2.270,-0.015
2.275,-0.012
2.280,-0.004
2.285,-0.007
2.290,-0.007
2.295,0.003
2.300,0.000
2.305,-0.001
2.310,0.008
2.315,0.003
2.320,-0.006
2.325,-0.004
2.330,-0.001
2.335,-0.002
2.340,0.000
2.345,0.004
2.350,0.009
2.355,0.014
2.360,0.017
2.365,0.014
2.370,0.003
2.375,-0.003
2.380,-0.009
2.385,-0.013
2.390,-0.010
2.395,-0.007
2.400,-0.008
2.405,-0.007
2.410,-0.001
2.415,-0.002
2.420,-0.007
2.425,-0.007
2.430,-0.003
2.435,0.000
2.440,0.000
2.445,0.003
2.450,-0.002
2.455,-0.011
2.460,-0.009
2.465,-0.006
2.470,-0.008
2.475,-0.007
2.480,-0.002
2.485,-0.009
2.490,-0.022
2.495,-0.018
2.500,-0.009
2.505,-0.007
2.510,-0.007
2.515,-0.006
2.520,-0.007
2.525,-0.008
2.530,-0.007
2.535,-0.009
2.540,-0.013
2.545,-0.010
2.550,-0.011
2.555,-0.015
2.560,-0.015
2.565,-0.016
2.570,-0.015
2.575,-0.012
2.580,-0.014
2.585,-0.019
2.590,-0.019
2.595,-0.016
2.600,-0.014
2.605,-0.013
2.610,-0.012
2.615,-0.011
2.620,-0.011
2.625,-0.011
2.630,-0.008
2.635,-0.011
2.640,-0.016
2.645,-0.016
2.650,-0.017
2.655,-0.017
2.660,-0.016
2.665,-0.014
2.670,-0.018
2.675,-0.025
2.680,-0.021
2.685,-0.013
2.690,-0.009
2.695,-0.003
2.700,-0.003
2.705,-0.007
2.710,-0.006
2.715,-0.008
2.720,-0.016
2.725,-0.021
2.730,-0.015
2.735,-0.005
2.740,-0.003
2.745,-0.006
2.750,-0.014
2.755,-0.025
2.760,-0.035
2.765,-0.046
2.770,-0.056
2.775,-0.061
2.780,-0.063
2.785,-0.064
2.790,-0.064
2.795,-0.059
2.800,-0.049
2.805,-0.039
2.810,-0.028
2.815,-0.026
2.820,-0.037
2.825,-0.043
2.830,-0.021
2.835,0.010
2.840,0.022
2.845,0.024
2.850,0.028
2.855,0.028
2.860,0.028
2.865,0.030
2.870,0.030
2.875,0.031
2.880,0.037
2.885,0.039
2.890,0.040
2.895,0.048
2.900,0.056
2.905,0.052
2.910,0.041
2.915,0.036
2.920,0.034
2.925,0.031
2.930,0.031
2.935,0.028
2.940,0.011
2.945,-0.021
2.950,-0.089
2.955,-0.250
2.960,-0.504
2.965,-0.832
2.970,-1.173
2.975,-1.356
2.980,-1.195
2.985,-0.754
2.990,-0.286
2.995,0.123
3.000,0.434
3.005,0.568
3.010,0.547
3.015,0.444
3.020,0.357
3.025,0.318
3.030,0.307
3.035,0.306
3.040,0.297
3.045,0.288
3.050,0.275
3.055,0.257
3.060,0.242
3.065,0.232
3.070,0.225
3.075,0.219
3.080,0.212
3.085,0.199
3.090,0.182
3.095,0.172
3.100,0.166
3.105,0.156
3.110,0.146
3.115,0.138
3.120,0.128
3.125,0.119
3.130,0.111
3.135,0.101
3.140,0.094
3.145,0.088
3.150,0.080
3.155,0.074
3.160,0.067
3.165,0.057
3.170,0.047
3.175,0.037
3.180,0.031
3.185,0.026
3.190,0.019
3.195,0.010
3.200,0.001
3.205,-0.006
3.210,-0.013
3.215,-0.018
3.220,-0.019
3.225,-0.020
3.230,-0.025
3.235,-0.034
3.240,-0.041
3.245,-0.041
3.250,-0.042
3.255,-0.044
3.260,-0.043
3.265,-0.040
3.270,-0.042
3.275,-0.041
3.280,-0.037
3.285,-0.035
3.290,-0.033
3.295,-0.027
3.300,-0.022
3.305,-0.025
3.310,-0.024
3.315,-0.020
3.320,-0.023
3.325,-0.026
3.330,-0.027
3.335,-0.030
3.340,-0.033
3.345,-0.032
3.350,-0.032
3.355,-0.039
3.360,-0.042
3.365,-0.041
3.370,-0.039
3.375,-0.035
3.380,-0.027
3.385,-0.022
3.390,-0.019
3.395,-0.012
3.400,-0.006
3.405,-0.002
3.410,0.005
3.415,0.011
3.420,0.014
3.425,0.019
3.430,0.026
3.435,0.029
3.440,0.028
3.445,0.029
3.450,0.031
3.455,0.026
3.460,0.020
3.465,0.018
3.470,0.018
3.475,0.017
3.480,0.015
3.485,0.010
3.490,0.005
3.495,0.003
3.500,0.001
3.505,-0.002
3.510,-0.003
3.515,-0.002
3.520,-0.005
3.525,-0.008
3.530,-0.006
3.535,-0.007
3.540,-0.008
3.545,-0.007
3.550,-0.011
3.555,-0.013
3.560,-0.010
3.565,-0.008
3.570,-0.006
3.575,-0.006
3.580,-0.006
3.585,-0.005
3.590,-0.003
3.595,0.001
3.600,0.005
3.605,0.002
3.610,0.000
3.615,0.004
3.620,0.006
3.625,0.006
3.630,0.008
3.635,0.008
3.640,0.007
3.645,0.010
3.650,0.012
3.655,0.010
3.660,0.011
3.665,0.012
3.670,0.010
3.675,0.013
3.680,0.016
3.685,0.015
3.690,0.011
3.695,0.011
3.700,0.013
3.705,0.011
3.710,0.009
3.715,0.009
3.720,0.006
3.725,0.003
3.730,0.006
3.735,0.009
3.740,0.006
3.745,0.006
3.750,0.008
3.755,0.008
3.760,0.006
3.765,0.002
3.770,-0.004
3.775,-0.008
3.780,-0.007
3.785,-0.005
3.790,-0.006
3.795,-0.005
3.800,-0.004
3.805,-0.004
3.810,-0.005
3.815,-0.006
3.820,-0.007
3.825,-0.011
3.830,-0.011
3.835,-0.011
3.840,-0.014
3.845,-0.010
3.850,-0.008
3.855,-0.013
3.860,-0.016
3.865,-0.011
3.870,-0.011
3.875,-0.015
3.880,-0.014
3.885,-0.010
3.890,-0.008
3.895,-0.009
3.900,-0.009
3.905,-0.011
3.910,-0.010
3.915,-0.010
3.920,-0.014
3.925,-0.017
3.930,-0.017
3.935,-0.013
3.940,-0.014
3.945,-0.017
3.950,-0.016
3.955,-0.016
3.960,-0.015
3.965,-0.009
3.970,-0.004
3.975,-0.008
3.980,-0.016
3.985,-0.017
3.990,-0.015
3.995,-0.009
4.000,-0.007
4.005,-0.010
4.010,-0.012
4.015,-0.012
4.020,-0.017
4.025,-0.023
4.030,-0.018
4.035,-0.013
4.040,-0.013
4.045,-0.010
4.050,-0.006
4.055,-0.007
4.060,-0.007
4.065,-0.007
4.070,-0.005
4.075,-0.007
4.080,-0.014
4.085,-0.015
4.090,-0.012
4.095,-0.009
4.100,-0.008
4.105,-0.011
4.110,-0.016
4.115,-0.011
4.120,-0.004
4.125,-0.009
4.130,-0.009
4.135,-0.008
4.140,-0.007
4.145,-0.011
4.150,-0.026
4.155,-0.040
4.160,-0.048
4.165,-0.056
4.170,-0.065
4.175,-0.065
4.180,-0.062
4.185,-0.060
4.190,-0.043
4.195,-0.030
4.200,-0.033
4.205,-0.034
4.210,-0.027
4.215,-0.024
4.220,-0.017
4.225,0.008
4.230,0.028
4.235,0.029
4.240,0.034
4.245,0.045
4.250,0.045
4.255,0.045
4.260,0.041
4.265,0.031
4.270,0.032
4.275,0.036
4.280,0.034
4.285,0.038
4.290,0.046
4.295,0.046
4.300,0.039
4.305,0.036
4.310,0.037
4.315,0.032
4.320,0.026
4.325,0.031
4.330,0.029
4.335,0.001
4.340,-0.054
4.345,-0.170
4.350,-0.384
4.355,-0.678
4.360,-1.020
4.365,-1.285
4.370,-1.264
4.375,-0.911
4.380,-0.447
4.385,-0.038
4.390,0.296
4.395,0.509
4.400,0.563
4.405,0.479
4.410,0.373
4.415,0.321
4.420,0.291
4.425,0.280
4.430,0.289
4.435,0.291
4.440,0.278
4.445,0.259
4.450,0.245
4.455,0.235
4.460,0.230
4.465,0.223
4.470,0.201
4.475,0.183
4.480,0.183
4.485,0.175
4.490,0.159
4.495,0.159
4.500,0.159
4.505,0.140
4.510,0.120
4.515,0.111
4.520,0.101
4.525,0.092
4.530,0.094
4.535,0.093
4.540,0.081
4.545,0.073
4.550,0.068
4.555,0.056
4.560,0.049
4.565,0.048
4.570,0.041
4.575,0.032
4.580,0.021
4.585,0.013
4.590,0.007
4.595,0.001
4.600,-0.004
4.605,-0.014
4.610,-0.024
4.615,-0.032
4.620,-0.034
4.625,-0.036
4.630,-0.041
4.635,-0.037
4.640,-0.035
4.645,-0.031
4.650,-0.023
4.655,-0.031
4.660,-0.034
4.665,-0.029
4.670,-0.037
4.675,-0.045
4.680,-0.034
4.685,-0.017
4.690,-0.007
4.695,-0.001
4.700,-0.010
4.705,-0.023
4.710,-0.021
4.715,-0.018
4.720,-0.024
4.725,-0.025
4.730,-0.024
4.735,-0.027
4.740,-0.034
4.745,-0.038
4.750,-0.039
4.755,-0.042
4.760,-0.041
4.765,-0.037
4.770,-0.036
4.775,-0.028
4.780,-0.011
4.785,0.001
4.790,0.006
4.795,0.008
4.800,0.013
4.805,0.024
4.810,0.032
4.815,0.032
4.820,0.024
4.825,0.016
4.830,0.023
4.835,0.037
4.840,0.035
4.845,0.026
4.850,0.029
4.855,0.026
4.860,0.014
4.865,0.019
4.870,0.028
4.875,0.029
4.880,0.017
4.885,-0.007
4.890,-0.015
4.895,-0.003
4.900,-0.003
4.905,-0.008
4.910,-0.008
4.915,-0.014
4.920,-0.016
4.925,-0.013
4.930,-0.013
4.935,-0.013
4.940,-0.014
4.945,-0.010
4.950,-0.011
4.955,-0.027
4.960,-0.035
4.965,-0.023
4.970,-0.015
4.975,-0.013
4.980,-0.005
4.985,-0.003
4.990,0.000
4.995,0.001
5.000,-0.006
5.005,-0.002
5.010,0.008
5.015,0.001
5.020,-0.009
5.025,-0.004
5.030,-0.002
5.035,0.000
5.040,0.005
5.045,0.008
5.050,0.015
5.055,0.015
5.060,0.010
5.065,0.009
5.070,0.001
5.075,-0.006
5.080,-0.004
5.085,0.002
5.090,0.007
5.095,0.014
5.100,0.011
5.105,-0.001
5.110,-0.008
5.115,-0.004
5.120,0.003
5.125,0.008
5.130,0.015
5.135,0.009
5.140,-0.002
5.145,-0.001
5.150,-0.004
5.155,-0.005
5.160,0.002
5.165,-0.002
5.170,-0.018
5.175,-0.024
5.180,-0.007
5.185,0.008
5.190,0.006
5.195,-0.002
5.200,-0.011
5.205,-0.019
5.210,-0.010
5.215,0.000
5.220,-0.002
5.225,-0.009
5.230,-0.013
5.235,-0.007
5.240,-0.004
5.245,-0.013
5.250,-0.018
5.255,-0.017
5.260,-0.011
5.265,-0.007
5.270,-0.015
5.275,-0.024
5.280,-0.019
5.285,-0.012
5.290,-0.008
5.295,-0.006
5.300,-0.012
5.305,-0.022
5.310,-0.020
5.315,-0.007
5.320,-0.004
5.325,-0.010
5.330,-0.010
5.335,-0.005
5.340,-0.008
5.345,-0.014
5.350,-0.017
5.355,-0.017
5.360,-0.018
5.365,-0.015
5.370,-0.011
5.375,-0.006
5.380,-0.002
5.385,-0.007
5.390,-0.010
5.395,-0.010
5.400,-0.014
5.405,-0.012
5.410,-0.007
5.415,-0.009
5.420,-0.014
5.425,-0.017
5.430,-0.016
5.435,-0.018
5.440,-0.019
5.445,-0.014
5.450,-0.010
5.455,-0.014
5.460,-0.017
5.465,-0.006
5.470,0.001
5.475,-0.007
5.480,-0.009
5.485,-0.010
5.490,-0.013
5.495,-0.016
5.500,-0.015
5.505,-0.011
5.510,-0.007
5.515,-0.006
5.520,-0.009
5.525,-0.012
5.530,-0.009
5.535,-0.008
5.540,-0.013
5.545,-0.018
5.550,-0.027
5.555,-0.043
5.560,-0.058
5.565,-0.069
5.570,-0.074
5.575,-0.071
5.580,-0.060
5.585,-0.042
5.590,-0.037
5.595,-0.036
5.600,-0.030
5.605,-0.034
5.610,-0.032
5.615,-0.007
5.620,0.015
5.625,0.027
5.630,0.031
5.635,0.026
5.640,0.024
5.645,0.027
5.650,0.029
5.655,0.026
5.660,0.029
5.665,0.037
5.670,0.037
5.675,0.039
5.680,0.047
5.685,0.055
5.690,0.052
5.695,0.042
5.700,0.040
5.705,0.039
5.710,0.032
5.715,0.027
5.720,0.029
5.725,0.018
5.730,-0.016
5.735,-0.090
5.740,-0.256
5.745,-0.521
5.750,-0.859
5.755,-1.197
5.760,-1.364
5.765,-1.179
5.770,-0.715
5.775,-0.228
5.780,0.185
5.785,0.481
5.790,0.604
5.795,0.565
5.800,0.443
5.805,0.347
5.810,0.305
5.815,0.290
5.820,0.286
5.825,0.285
5.830,0.280
5.835,0.268
5.840,0.254
5.845,0.241
5.850,0.233
5.855,0.224
5.860,0.211
5.865,0.200
5.870,0.188
5.875,0.177
5.880,0.168
5.885,0.159
5.890,0.149
5.895,0.139
5.900,0.129
5.905,0.122
5.910,0.114
5.915,0.107
5.920,0.098
5.925,0.086
5.930,0.078
5.935,0.074
5.940,0.070
5.945,0.065
5.950,0.057
5.955,0.043
5.960,0.033
5.965,0.030
5.970,0.025
5.975,0.017
5.980,0.012
5.985,0.009
5.990,0.002
5.995,-0.007
6.000,-0.015
6.005,-0.023
6.010,-0.028
6.015,-0.029
6.020,-0.029
6.025,-0.031
6.030,-0.037
6.035,-0.042
6.040,-0.041
6.045,-0.036
6.050,-0.034
6.055,-0.033
6.060,-0.028
6.065,-0.021
6.070,-0.017
6.075,-0.013
6.080,-0.009
6.085,-0.011
6.090,-0.012
6.095,-0.008
6.100,-0.007
6.105,-0.010
6.110,-0.014
6.115,-0.016
6.120,-0.021
6.125,-0.025
6.130,-0.026
6.135,-0.033
6.140,-0.041
6.145,-0.046
6.150,-0.051
6.155,-0.051
6.160,-0.048
6.165,-0.039
6.170,-0.031
6.175,-0.028
6.180,-0.019
6.185,-0.010
6.190,-0.004
6.195,0.004
6.200,0.011
6.205,0.013
6.210,0.017
6.215,0.021
6.220,0.022
6.225,0.024
6.230,0.025
6.235,0.023
6.240,0.020
6.245,0.018
6.250,0.015
6.255,0.010
6.260,0.008
6.265,0.006
6.270,0.005
6.275,0.002
6.280,0.000
6.285,-0.002
6.290,-0.007
6.295,-0.010
6.300,-0.010
6.305,-0.013
6.310,-0.016
6.315,-0.014
6.320,-0.013
6.325,-0.015
6.330,-0.014
6.335,-0.013
6.340,-0.013
6.345,-0.014
6.350,-0.015
6.355,-0.014
6.360,-0.012
6.365,-0.008
6.370,-0.008
6.375,-0.009
6.380,-0.005
6.385,-0.003
6.390,-0.002
6.395,0.002
6.400,0.006
6.405,0.006
6.410,0.009
6.415,0.012
6.420,0.010
6.425,0.009
6.430,0.012
6.435,0.015
6.440,0.016
6.445,0.017
6.450,0.015
6.455,0.011
6.460,0.012
6.465,0.017
6.470,0.017
6.475,0.015
6.480,0.015
6.485,0.013
6.490,0.012
6.495,0.012
6.500,0.011
6.505,0.011
6.510,0.010
6.515,0.007
6.520,0.004
6.525,0.004
6.530,0.007
6.535,0.008
6.540,0.005
6.545,0.006
6.550,0.008
6.555,0.004
6.560,0.001
6.565,0.001
6.570,-0.003
6.575,-0.003
6.580,0.002
6.585,0.000
6.590,-0.002
6.595,-0.001
6.600,-0.001
6.605,-0.005
6.610,-0.006
6.615,-0.006
6.620,-0.007
6.625,-0.009
6.630,-0.010
6.635,-0.011
6.640,-0.012
6.645,-0.012
6.650,-0.011
6.655,-0.014
6.660,-0.017
6.665,-0.015
6.670,-0.012
6.675,-0.011
6.680,-0.010
6.685,-0.013
6.690,-0.014
6.695,-0.012
6.700,-0.012
6.705,-0.012
6.710,-0.012
6.715,-0.011
6.720,-0.011
6.725,-0.013
6.730,-0.013
6.735,-0.011
6.740,-0.011
6.745,-0.012
6.750,-0.012
6.755,-0.011
6.760,-0.010
6.765,-0.011
6.770,-0.015
6.775,-0.019
6.780,-0.017
6.785,-0.015
6.790,-0.015
6.795,-0.015
6.800,-0.013
6.805,-0.013
6.810,-0.013
6.815,-0.009
6.820,-0.011
6.825,-0.014
6.830,-0.010
6.835,-0.008
6.840,-0.011
6.845,-0.013
6.850,-0.010
6.855,-0.009
6.860,-0.009
6.865,-0.007
6.870,-0.007
6.875,-0.007
6.880,-0.006
6.885,-0.008
6.890,-0.011
6.895,-0.010
6.900,-0.008
6.905,-0.010
6.910,-0.010
6.915,-0.008
6.920,-0.011
6.925,-0.013
6.930,-0.009
6.935,-0.008
6.940,-0.008
6.945,-0.005
6.950,-0.008
6.955,-0.014
6.960,-0.016
6.965,-0.022
6.970,-0.038
6.975,-0.050
6.980,-0.054
6.985,-0.062
6.990,-0.068
6.995,-0.060
7.000,-0.053
7.005,-0.046
7.010,-0.035
7.015,-0.025
7.020,-0.022
7.025,-0.030
7.030,-0.036
7.035,-0.027
7.040,-0.004
7.045,0.019
7.050,0.026
7.055,0.026
7.060,0.033
7.065,0.039
7.070,0.035
7.075,0.033
7.080,0.031
7.085,0.031
7.090,0.037
7.095,0.045
7.100,0.048
7.105,0.050
7.110,0.056
7.115,0.056
7.120,0.046
7.125,0.042
7.130,0.039
7.135,0.033
7.140,0.028
7.145,0.028
7.150,0.014
7.155,-0.026
7.160,-0.101
7.165,-0.254
7.170,-0.500
7.175,-0.823
7.180,-1.153
7.185,-1.334
7.190,-1.195
7.195,-0.784
7.200,-0.334
7.205,0.071
7.210,0.377
7.215,0.501
7.220,0.491
7.225,0.423
7.230,0.359
7.235,0.326
7.240,0.319
7.245,0.318
7.250,0.311
7.255,0.301
7.260,0.290
7.265,0.279
7.270,0.268
7.275,0.258
7.280,0.247
7.285,0.235
7.290,0.223
7.295,0.215
7.300,0.207
7.305,0.196
7.310,0.181
7.315,0.168
7.320,0.157
7.325,0.147
7.330,0.140
7.335,0.131
7.340,0.122
7.345,0.117
7.350,0.111
7.355,0.099
7.360,0.087
7.365,0.079
7.370,0.070
7.375,0.062
7.380,0.054
7.385,0.045
7.390,0.040
7.395,0.034
7.400,0.026
7.405,0.018
7.410,0.009
7.415,0.002
7.420,-0.002
7.425,-0.008
7.430,-0.013
7.435,-0.021
7.440,-0.030
7.445,-0.034
7.450,-0.040
7.455,-0.050
7.460,-0.054
7.465,-0.051
7.470,-0.049
7.475,-0.048
7.480,-0.045
7.485,-0.044
7.490,-0.047
7.495,-0.045
7.500,-0.039
7.505,-0.040
7.510,-0.040
7.515,-0.037
7.520,-0.041
7.525,-0.043
7.530,-0.041
7.535,-0.040
7.540,-0.041
7.545,-0.038
7.550,-0.037
7.555,-0.040
7.560,-0.044
7.565,-0.048
7.570,-0.049
7.575,-0.049
7.580,-0.049
7.585,-0.045
7.590,-0.039
7.595,-0.029
7.600,-0.022
7.605,-0.016
7.610,-0.005
7.615,0.004
7.620,0.009
7.625,0.009
7.630,0.012
7.635,0.017
7.640,0.018
7.645,0.025
7.650,0.034
7.655,0.035
7.660,0.029
7.665,0.029
7.670,0.029
7.675,0.026
7.680,0.026
7.685,0.021
7.690,0.016
7.695,0.018
7.700,0.016
7.705,0.012
7.710,0.012
7.715,0.015
7.720,0.015
7.725,0.015
7.730,0.014
7.735,0.010
7.740,0.006
7.745,0.001
7.750,-0.002
7.755,-0.002
7.760,0.001
7.765,0.004
7.770,0.003
7.775,0.002
7.780,0.004
7.785,0.003
7.790,0.000
7.795,0.000
7.800,0.006
7.805,0.010
7.810,0.009
7.815,0.008
7.820,0.003
7.825,-0.003
7.830,0.002
7.835,0.010
7.840,0.008
7.845,0.006
7.850,0.007
7.855,0.008
7.860,0.007
7.865,0.003
7.870,0.000
7.875,0.002
7.880,0.006
7.885,0.006
7.890,0.005
7.895,0.006
7.900,0.004
7.905,0.001
7.910,0.002
7.915,0.003
7.920,-0.001
7.925,-0.003
7.930,0.000
7.935,0.000
7.940,-0.004
7.945,-0.003
7.950,-0.001
7.955,-0.002
7.960,-0.002
7.965,-0.001
7.970,-0.005
7.975,-0.013
7.980,-0.013
7.985,-0.012
7.990,-0.013
7.995,-0.013
8.000,-0.010
8.005,-0.007
8.010,-0.007
8.015,-0.010
8.020,-0.013
8.025,-0.014
8.030,-0.008
8.035,-0.005
8.040,-0.008
8.045,-0.013
8.050,-0.015
8.055,-0.020
8.060,-0.023
8.065,-0.019
8.070,-0.018
8.075,-0.018
8.080,-0.016
8.085,-0.016
8.090,-0.019
8.095,-0.020
8.100,-0.017
8.105,-0.016
8.110,-0.017
8.115,-0.014
8.120,-0.012
8.125,-0.016
8.130,-0.017
8.135,-0.015
8.140,-0.017
8.145,-0.016
8.150,-0.012
8.155,-0.017
8.160,-0.022
8.165,-0.023
8.170,-0.023
8.175,-0.018
8.180,-0.013
8.185,-0.014
8.190,-0.016
8.195,-0.016
8.200,-0.013
8.205,-0.014
8.210,-0.015
8.215,-0.014
8.220,-0.014
8.225,-0.014
8.230,-0.015
8.235,-0.019
8.240,-0.021
8.245,-0.016
8.250,-0.012
8.255,-0.012
8.260,-0.013
8.265,-0.012
8.270,-0.011
8.275,-0.011
8.280,-0.009
8.285,-0.008
8.290,-0.010
8.295,-0.010
8.300,-0.011
8.305,-0.013
8.310,-0.014
8.315,-0.014
8.320,-0.014
8.325,-0.009
8.330,-0.004
8.335,-0.005
8.340,-0.006
8.345,-0.006
8.350,-0.007
8.355,-0.006
8.360,-0.006
8.365,-0.005
8.370,-0.007
8.375,-0.010
8.380,-0.012
8.385,-0.020
8.390,-0.036
8.395,-0.049
8.400,-0.050
8.405,-0.055
8.410,-0.062
8.415,-0.059
8.420,-0.060
8.425,-0.055
8.430,-0.039
8.435,-0.029
8.440,-0.027
8.445,-0.030
8.450,-0.035
8.455,-0.027
8.460,0.003
8.465,0.028
8.470,0.032
8.475,0.030
8.480,0.034
8.485,0.038
8.490,0.036
8.495,0.036
8.500,0.035
8.505,0.037
8.510,0.044
8.515,0.049
8.520,0.051
8.525,0.056
8.530,0.061
8.535,0.055
8.540,0.044
8.545,0.041
8.550,0.041
8.555,0.034
8.560,0.030
8.565,0.030
8.570,0.019
8.575,-0.014
8.580,-0.090
8.585,-0.259
8.590,-0.525
8.595,-0.857
8.600,-1.182
8.605,-1.333
8.610,-1.139
8.615,-0.684
8.620,-0.223
8.625,0.169
8.630,0.455
8.635,0.573
8.640,0.541
8.645,0.435
8.650,0.353
8.655,0.313
8.660,0.299
8.665,0.299
8.670,0.292
8.675,0.280
8.680,0.272
8.685,0.262
8.690,0.249
8.695,0.240
8.700,0.231
8.705,0.217
8.710,0.202
8.715,0.192
8.720,0.182
8.725,0.169
8.730,0.158
8.735,0.150
8.740,0.142
8.745,0.136
8.750,0.131
8.755,0.120
8.760,0.109
8.765,0.101
8.770,0.092
8.775,0.084
8.780,0.077
8.785,0.069
8.790,0.062
8.795,0.056
8.800,0.050
8.805,0.039
8.810,0.031
8.815,0.030
8.820,0.023
8.825,0.012
8.830,0.004
8.835,-0.004
8.840,-0.014
8.845,-0.019
8.850,-0.022
8.855,-0.026
8.860,-0.031
8.865,-0.034
8.870,-0.037
8.875,-0.040
8.880,-0.040
8.885,-0.040
8.890,-0.042
8.895,-0.039
8.900,-0.036
8.905,-0.035
8.910,-0.029
8.915,-0.024
8.920,-0.025
8.925,-0.023
8.930,-0.017
8.935,-0.016
8.940,-0.018
8.945,-0.017
8.950,-0.016
8.955,-0.019
8.960,-0.023
8.965,-0.026
8.970,-0.030
8.975,-0.036
8.980,-0.040
8.985,-0.045
8.990,-0.049
8.995,-0.046
9.000,-0.041
9.005,-0.040
9.010,-0.038
9.015,-0.031
9.020,-0.024
9.025,-0.019
9.030,-0.008
9.035,0.002
9.040,0.007
9.045,0.012
9.050,0.016
9.055,0.018
9.060,0.021
9.065,0.026
9.070,0.024
9.075,0.023
9.080,0.025
9.085,0.024
9.090,0.020
9.095,0.019
9.100,0.018
9.105,0.014
9.110,0.010
9.115,0.008
9.120,0.005
9.125,0.002
9.130,0.002
9.135,0.001
9.140,-0.002
9.145,-0.003
9.150,-0.003
9.155,-0.008
9.160,-0.010
9.165,-0.008
9.170,-0.010
9.175,-0.013
9.180,-0.013
9.185,-0.012
9.190,-0.014
9.195,-0.012
9.200,-0.008
9.205,-0.005
9.210,-0.005
9.215,-0.003
9.220,-0.001
9.225,-0.001
9.230,0.002
9.235,0.004
9.240,0.004
9.245,0.006
9.250,0.008
9.255,0.007
9.260,0.006
9.265,0.008
9.270,0.009
9.275,0.009
9.280,0.009
9.285,0.009
9.290,0.007
9.295,0.009
9.300,0.011
9.305,0.009
9.310,0.007
9.315,0.009
9.320,0.010
9.325,0.010
9.330,0.010
9.335,0.009
9.340,0.008
9.345,0.007
9.350,0.007
9.355,0.003
9.360,0.001
9.365,0.002
9.370,0.000
9.375,-0.002
9.380,-0.001
9.385,-0.003
9.390,-0.005
9.395,-0.003
9.400,0.003
9.405,0.002
9.410,-0.002
9.415,-0.003
9.420,-0.006
9.425,-0.008
9.430,-0.008
9.435,-0.008
9.440,-0.011
9.445,-0.012
9.450,-0.010
9.455,-0.013
9.460,-0.014
9.465,-0.011
9.470,-0.008
9.475,-0.010
9.480,-0.008
9.485,-0.008
9.490,-0.012
9.495,-0.010
9.500,-0.009
9.505,-0.016
9.510,-0.020
9.515,-0.018
9.520,-0.020
9.525,-0.021
9.530,-0.019
9.535,-0.019
9.540,-0.015
9.545,-0.009
9.550,-0.013
9.555,-0.018
9.560,-0.014
9.565,-0.011
9.570,-0.012
9.575,-0.016
9.580,-0.021
9.585,-0.022
9.590,-0.019
9.595,-0.015
9.600,-0.010
9.605,-0.010
9.610,-0.014
9.615,-0.012
9.620,-0.011
9.625,-0.017
9.630,-0.018
9.635,-0.015
9.640,-0.017
9.645,-0.015
9.650,-0.012
9.655,-0.011
9.660,-0.012
9.665,-0.011
9.670,-0.005
9.675,-0.002
9.680,-0.004
9.685,-0.009
9.690,-0.012
9.695,-0.012
9.700,-0.009
9.705,-0.010
9.710,-0.011
9.715,-0.005
9.720,-0.004
9.725,-0.010
9.730,-0.009
9.735,-0.006
9.740,-0.008
9.745,-0.005
9.750,0.002
9.755,-0.003
9.760,-0.008
9.765,-0.002
9.770,0.002
9.775,-0.003
9.780,-0.005
9.785,-0.005
9.790,-0.011
9.795,-0.009
9.800,-0.007
9.805,-0.017
9.810,-0.021
9.815,-0.013
9.820,-0.015
9.825,-0.028
9.830,-0.037
9.835,-0.046
9.840,-0.056
9.845,-0.064
9.850,-0.068
9.855,-0.064
9.860,-0.053
9.865,-0.036
9.870,-0.026
9.875,-0.024
9.880,-0.023
9.885,-0.032
9.890,-0.037
9.895,-0.013
9.900,0.016
9.905,0.031
9.910,0.039
9.915,0.044
9.920,0.041
9.925,0.038
9.930,0.044
9.935,0.038
9.940,0.029
9.945,0.036
9.950,0.051
9.955,0.057
9.960,0.049
9.965,0.049
9.970,0.048
9.975,0.047
9.980,0.050
9.985,0.044
9.990,0.032
9.995,0.029
10.000,0.028
10.005,0.019
10.010,-0.001
10.015,-0.043
10.020,-0.157
10.025,-0.376
10.030,-0.681
10.035,-1.025
10.040,-1.287
10.045,-1.259
10.050,-0.894
10.055,-0.425
10.060,-0.008
10.065,0.335
10.070,0.539
10.075,0.574
10.080,0.474
10.085,0.361
10.090,0.311
10.095,0.294
10.100,0.289
10.105,0.286
10.110,0.273
10.115,0.257
10.120,0.246
10.125,0.236
10.130,0.232
10.135,0.224
10.140,0.206
10.145,0.192
10.150,0.184
10.155,0.177
10.160,0.168
10.165,0.157
10.170,0.150
10.175,0.147
10.180,0.140
10.185,0.128
10.190,0.118
10.195,0.111
10.200,0.099
10.205,0.085
10.210,0.077
10.215,0.073
10.220,0.070
10.225,0.066
10.230,0.068
10.235,0.060
10.240,0.038
10.245,0.025
10.250,0.025
10.255,0.020
10.260,0.010
10.265,0.005
10.270,0.005
10.275,0.008
10.280,0.006
10.285,-0.007
10.290,-0.020
10.295,-0.028
10.300,-0.031
10.305,-0.033
10.310,-0.037
10.315,-0.030
10.320,-0.033
10.325,-0.037
10.330,-0.030
10.335,-0.035
10.340,-0.035
10.345,-0.022
10.350,-0.017
10.355,-0.016
10.360,-0.015
10.365,-0.019
10.370,-0.014
10.375,-0.007
10.380,-0.006
10.385,-0.006
10.390,-0.013
10.395,-0.023
10.400,-0.023
10.405,-0.026
10.410,-0.040
10.415,-0.047
10.420,-0.048
10.425,-0.053
10.430,-0.053
10.435,-0.049
10.440,-0.044
10.445,-0.027
10.450,-0.011
10.455,-0.010
10.460,-0.015
10.465,-0.024
10.470,-0.016
10.475,-0.003
10.480,-0.003
10.485,0.009
10.490,0.018
10.495,0.010
10.500,0.006
10.505,0.018
10.510,0.034
10.515,0.044
10.520,0.044
10.525,0.034
10.530,0.021
10.535,0.004
10.540,-0.002
10.545,0.006
10.550,0.003
10.555,-0.009
10.560,-0.005
10.565,0.006
10.570,0.011
10.575,0.008
10.580,-0.002
10.585,-0.012
10.590,-0.012
10.595,-0.011
10.600,-0.013
10.605,-0.016
10.610,-0.017
10.615,-0.016
10.620,-0.018
10.625,-0.020
10.630,-0.013
10.635,-0.012
10.640,-0.016
10.645,-0.011
10.650,-0.011
10.655,-0.022
10.660,-0.019
10.665,-0.004
10.670,0.005
10.675,0.003
10.680,-0.003
10.685,0.000
10.690,0.003
10.695,0.002
10.700,0.008
10.705,0.012
10.710,0.003
10.715,-0.003
10.720,0.005
10.725,0.015
10.730,0.013
10.735,0.003
10.740,-0.004
10.745,0.005
10.750,0.016
10.755,0.010
10.760,0.002
10.765,0.006
10.770,0.004
10.775,-0.008
10.780,-0.003
10.785,0.008
10.790,0.008
10.795,0.014
10.800,0.014
10.805,0.000
10.810,-0.003
10.815,0.004
10.820,-0.001
10.825,-0.019
10.830,-0.015
10.835,0.005
10.840,0.005
10.845,-0.002
10.850,-0.001
10.855,-0.006
10.860,-0.009
10.865,-0.001
10.870,-0.002
10.875,-0.009
10.880,-0.009
10.885,-0.012
10.890,-0.010
10.895,-0.001
10.900,-0.006
10.905,-0.018
10.910,-0.017
10.915,-0.011
10.920,-0.012
10.925,-0.007
10.930,-0.003
10.935,-0.003
10.940,-0.006
10.945,-0.016
10.950,-0.020
10.955,-0.018
10.960,-0.013
10.965,-0.012
10.970,-0.016
10.975,-0.014
10.980,-0.008
10.985,-0.012
10.990,-0.018
10.995,-0.016
11.000,-0.012
11.005,-0.020
11.010,-0.018
11.015,-0.007
11.020,-0.015
11.025,-0.013
11.030,0.002
11.035,0.001
11.040,-0.016
11.045,-0.031
11.050,-0.031
11.055,-0.020
11.060,-0.014
11.065,-0.009
11.070,-0.004
11.075,-0.005
11.080,0.001
11.085,0.002
11.090,-0.012
11.095,-0.021
11.100,-0.020
11.105,-0.013
11.110,-0.009
11.115,-0.007
11.120,-0.009
11.125,-0.018
11.130,-0.017
11.135,-0.005
11.140,0.002
11.145,0.000
11.150,-0.009
11.155,-0.014
11.160,-0.012
11.165,-0.009
11.170,-0.004
11.175,-0.006
11.180,0.000
11.185,0.004
11.190,-0.011
11.195,-0.018
11.200,-0.011
11.205,-0.002
11.210,-0.004
11.215,-0.020
11.220,-0.033
11.225,-0.034
11.230,-0.029
11.235,-0.033
11.240,-0.057
11.245,-0.066
11.250,-0.060
11.255,-0.061
11.260,-0.043
11.265,-0.023
11.270,-0.030
11.275,-0.038
11.280,-0.040
11.285,-0.042
11.290,-0.027
11.295,-0.001
11.300,0.016
11.305,0.026
11.310,0.032
11.315,0.026
11.320,0.017
11.325,0.011
11.330,0.019
11.335,0.041
11.340,0.056
11.345,0.055
11.350,0.045
11.355,0.045
11.360,0.053
11.365,0.050
11.370,0.044
11.375,0.039
11.380,0.027
11.385,0.028
11.390,0.033
11.395,0.033
11.400,0.039
11.405,0.027
11.410,-0.024
11.415,-0.147
11.420,-0.371
11.425,-0.677
11.430,-1.026
11.435,-1.315
11.440,-1.337
11.445,-0.971
11.450,-0.430
11.455,0.040
11.460,0.390
11.465,0.585
11.470,0.605
11.475,0.494
11.480,0.369
11.485,0.318
11.490,0.310
11.495,0.301
11.500,0.289
11.505,0.278
11.510,0.264
11.515,0.252
11.520,0.243
11.525,0.230
11.530,0.207
11.535,0.185
11.540,0.177
11.545,0.185
11.550,0.189
11.555,0.166
11.560,0.153
11.565,0.162
11.570,0.157
11.575,0.125
11.580,0.088
11.585,0.092
11.590,0.115
11.595,0.111
11.600,0.084
11.605,0.073
11.610,0.085
11.615,0.078
11.620,0.061
11.625,0.058
11.630,0.056
11.635,0.050
11.640,0.034
11.645,0.015
11.650,0.013
11.655,0.014
11.660,0.012
11.665,0.017
11.670,0.006
11.675,-0.020
11.680,-0.019
11.685,-0.008
11.690,-0.021
11.695,-0.029
11.700,-0.019
11.705,-0.020
11.710,-0.031
11.715,-0.030
11.720,-0.022
11.725,-0.012
11.730,0.000
11.735,-0.001
11.740,-0.009
11.745,-0.009
11.750,-0.010
11.755,-0.005
11.760,0.009
11.765,0.011
11.770,0.011
11.775,0.015
11.780,0.008
11.785,0.002
11.790,0.005
11.795,-0.004
11.800,-0.018
11.805,-0.021
11.810,-0.023
11.815,-0.030
11.820,-0.042
11.825,-0.057
11.830,-0.056
11.835,-0.050
11.840,-0.045
11.845,-0.034
11.850,-0.035
11.855,-0.039
11.860,-0.039
11.865,-0.029
11.870,-0.010
11.875,0.000
11.880,-0.005
11.885,-0.009
11.890,-0.011
11.895,-0.007
11.900,0.006
11.905,0.014
11.910,0.013
11.915,0.013
11.920,0.013
11.925,-0.001
11.930,-0.013
11.935,-0.009
11.940,-0.008
11.945,-0.012
11.950,-0.012
11.955,-0.018
11.960,-0.022
11.965,-0.018
11.970,-0.024
11.975,-0.032
11.980,-0.033
11.985,-0.035
11.990,-0.028
11.995,-0.013
12.000,-0.008
12.005,-0.018
12.010,-0.031
12.015,-0.038
12.020,-0.041
12.025,-0.040
12.030,-0.030
12.035,-0.018
12.040,-0.016
12.045,-0.019
12.050,-0.021
12.055,-0.018
12.060,-0.003
12.065,0.005
12.070,0.004
12.075,0.001
12.080,0.000
12.085,-0.005
12.090,-0.002
12.095,0.010
12.100,0.002
12.105,-0.015
12.110,-0.019
12.115,-0.003
12.120,0.020
12.125,0.028
12.130,0.030
12.135,0.024
12.140,0.013
12.145,0.018
12.150,0.026
12.155,0.022
12.160,0.021
12.165,0.017
12.170,0.003
12.175,0.001
12.180,0.009
12.185,0.011
12.190,0.007
12.195,0.002
12.200,0.005
12.205,0.006
12.210,0.006
12.215,0.016
12.220,0.020
12.225,0.017
12.230,0.015
12.235,0.012
12.240,0.004
12.245,-0.006
12.250,-0.004
12.255,0.004
12.260,0.001
12.265,-0.005
12.270,-0.001
12.275,0.004
12.280,0.000
12.285,-0.004
12.290,-0.006
12.295,-0.003
12.300,-0.004
12.305,-0.007
12.310,0.000
12.315,0.002
12.320,-0.008
12.325,-0.012
12.330,-0.009
12.335,-0.004
12.340,0.000
12.345,-0.004
12.350,-0.017
12.355,-0.024
12.360,-0.013
12.365,0.003
12.370,0.000
12.375,-0.016
12.380,-0.013
12.385,-0.002
12.390,-0.009
12.395,-0.019
12.400,-0.014
12.405,-0.004
12.410,-0.005
12.415,-0.012
12.420,-0.014
12.425,-0.015
12.430,-0.010
12.435,-0.005
12.440,-0.008
12.445,-0.010
12.450,-0.014
12.455,-0.019
12.460,-0.013
12.465,-0.010
12.470,-0.018
12.475,-0.017
12.480,-0.012
12.485,-0.013
12.490,-0.011
12.495,-0.014
12.500,-0.015
12.505,-0.007
12.510,-0.011
12.515,-0.015
12.520,-0.007
12.525,-0.009
12.530,-0.014
12.535,-0.017
12.540,-0.015
12.545,-0.009
12.550,-0.008
12.555,-0.014
12.560,-0.014
12.565,-0.002
12.570,0.000
12.575,-0.015
12.580,-0.015
12.585,-0.006
12.590,-0.015
12.595,-0.018
12.600,-0.006
12.605,-0.007
12.610,-0.015
12.615,-0.009
12.620,-0.004
12.625,-0.010
12.630,-0.013
12.635,-0.013
12.640,-0.023
12.645,-0.039
12.650,-0.054
12.655,-0.062
12.660,-0.069
12.665,-0.067
12.670,-0.054
12.675,-0.047
12.680,-0.037
12.685,-0.024
12.690,-0.024
12.695,-0.036
12.700,-0.048
12.705,-0.034
12.710,-0.004
12.715,0.019
12.720,0.030
12.725,0.031
12.730,0.033
12.735,0.033
12.740,0.030
12.745,0.030
12.750,0.034
12.755,0.039
12.760,0.038
12.765,0.036
12.770,0.044
12.775,0.058
12.780,0.060
12.785,0.047
12.790,0.034
12.795,0.025
12.800,0.020
12.805,0.026
12.810,0.040
12.815,0.040
12.820,0.017
12.825,-0.039
12.830,-0.173
12.835,-0.412
12.840,-0.724
12.845,-1.070
12.850,-1.330
12.855,-1.307
12.860,-0.946
12.865,-0.440
12.870,0.030
12.875,0.399
12.880,0.587
12.885,0.590
12.890,0.487
12.895,0.382
12.900,0.335
12.905,0.318
12.910,0.306
12.915,0.297
12.920,0.292
12.925,0.286
12.930,0.272
12.935,0.255
12.940,0.234
12.945,0.218
12.950,0.213
12.955,0.211
12.960,0.205
12.965,0.192
12.970,0.178
12.975,0.167
12.980,0.159
12.985,0.149
12.990,0.132
12.995,0.120
13.000,0.119
13.005,0.114
13.010,0.107
13.015,0.104
13.020,0.099
13.025,0.086
13.030,0.069
13.035,0.057
13.040,0.054
13.045,0.050
13.050,0.039
13.055,0.029
13.060,0.022
13.065,0.015
13.070,0.013
13.075,0.006
13.080,0.002
13.085,0.000
13.090,-0.005
13.095,-0.015
13.100,-0.026
13.105,-0.032
13.110,-0.035
13.115,-0.031
13.120,-0.029
13.125,-0.036
13.130,-0.035
13.135,-0.031
13.140,-0.030
13.145,-0.027
13.150,-0.022
13.155,-0.022
13.160,-0.025
13.165,-0.017
13.170,-0.009
13.175,-0.006
13.180,-0.004
13.185,-0.010
13.190,-0.020
13.195,-0.016
13.200,-0.012
13.205,-0.017
13.210,-0.014
13.215,-0.008
13.220,-0.016
13.225,-0.030
13.230,-0.039
13.235,-0.042
13.240,-0.043
13.245,-0.043
13.250,-0.044
13.255,-0.041
13.260,-0.032
13.265,-0.023
13.270,-0.023
13.275,-0.023
13.280,-0.012
13.285,-0.003
13.290,-0.003
13.295,0.000
13.300,0.007
13.305,0.013
13.310,0.016
13.315,0.020
13.320,0.022
13.325,0.022
13.330,0.024
13.335,0.022
13.340,0.012
13.345,0.013
13.350,0.020
13.355,0.015
13.360,0.008
13.365,0.003
13.370,-0.006
13.375,-0.013
13.380,-0.011
13.385,-0.010
13.390,-0.016
13.395,-0.018
13.400,-0.015
13.405,-0.016
13.410,-0.017
13.415,-0.014
13.420,-0.017
13.425,-0.017
13.430,-0.012
13.435,-0.014
13.440,-0.021
13.445,-0.023
13.450,-0.018
13.455,-0.018
13.460,-0.021
13.465,-0.014
13.470,-0.008
13.475,-0.006
13.480,-0.008
13.485,-0.015
13.490,-0.017
13.495,-0.008
13.500,0.006
13.505,0.011
13.510,0.012
13.515,0.013
13.520,0.006
13.525,0.001
13.530,0.005
13.535,0.010
13.540,0.011
13.545,0.015
13.550,0.019
13.555,0.018
13.560,0.012
13.565,0.012
13.570,0.017
13.575,0.013
13.580,0.010
13.585,0.011
13.590,0.008
13.595,0.007
13.600,0.011
13.605,0.013
13.610,0.010
13.615,0.011
13.620,0.014
13.625,0.009
13.630,0.005
13.635,0.007
13.640,0.005
13.645,0.006
13.650,0.008
13.655,0.005
13.660,0.002
13.665,0.001
13.670,-0.002
13.675,-0.006
13.680,-0.005
13.685,-0.001
13.690,0.002
13.695,0.005
13.700,0.000
13.705,-0.004
13.710,-0.005
13.715,-0.008
13.720,-0.011
13.725,-0.011
13.730,-0.013
13.735,-0.012
13.740,-0.010
13.745,-0.012
13.750,-0.007
13.755,-0.007
13.760,-0.015
13.765,-0.013
13.770,-0.009
13.775,-0.012
13.780,-0.010
13.785,-0.010
13.790,-0.012
13.795,-0.008
13.800,-0.010
13.805,-0.014
13.810,-0.010
13.815,-0.006
13.820,-0.010
13.825,-0.017
13.830,-0.017
13.835,-0.010
13.840,-0.006
13.845,-0.009
13.850,-0.015
13.855,-0.018
13.860,-0.013
13.865,-0.008
13.870,-0.009
13.875,-0.014
13.880,-0.013
13.885,-0.008
13.890,-0.007
13.895,-0.004
13.900,-0.006
13.905,-0.014
13.910,-0.020
13.915,-0.024
13.920,-0.018
13.925,-0.012
13.930,-0.012
13.935,-0.012
13.940,-0.013
13.945,-0.010
13.950,-0.003
13.955,-0.001
13.960,-0.001
13.965,-0.005
13.970,-0.007
13.975,-0.004
13.980,-0.003
13.985,-0.007
13.990,-0.012
13.995,-0.018
14.000,-0.022
14.005,-0.013
14.010,-0.006
14.015,-0.004
14.020,-0.007
14.025,-0.014
14.030,-0.014
14.035,-0.009
14.040,-0.002
14.045,0.002
14.050,-0.004
14.055,-0.014
14.060,-0.017
14.065,-0.014
14.070,-0.020
14.075,-0.034
14.080,-0.044
14.085,-0.049
14.090,-0.060
14.095,-0.068
14.100,-0.062
14.105,-0.053
14.110,-0.041
14.115,-0.029
14.120,-0.027
14.125,-0.034
14.130,-0.043
14.135,-0.043
14.140,-0.026
14.145,-0.002
14.150,0.016
14.155,0.028
14.160,0.037
14.165,0.042
14.170,0.038
14.175,0.032
14.180,0.034
14.185,0.033
14.190,0.031
14.195,0.037
14.200,0.044
14.205,0.049
14.210,0.048
14.215,0.047
14.220,0.046
14.225,0.040
14.230,0.044
14.235,0.046
14.240,0.033
14.245,0.032
14.250,0.032
14.255,0.010
14.260,-0.037
14.265,-0.141
14.270,-0.342
14.275,-0.621
14.280,-0.954
14.285,-1.261
14.290,-1.359
14.295,-1.110
14.300,-0.639
14.305,-0.168
14.310,0.242
14.315,0.516
14.320,0.598
14.325,0.535
14.330,0.425
14.335,0.353
14.340,0.320
14.345,0.312
14.350,0.311
14.355,0.301
14.360,0.292
14.365,0.287
14.370,0.274
14.375,0.260
14.380,0.249
14.385,0.234
14.390,0.220
14.395,0.210
14.400,0.198
14.405,0.185
14.410,0.175
14.415,0.168
14.420,0.162
14.425,0.150
14.430,0.142
14.435,0.134
14.440,0.121
14.445,0.111
14.450,0.103
14.455,0.093
14.460,0.087
14.465,0.079
14.470,0.069
14.475,0.062
14.480,0.058
14.485,0.053
14.490,0.044
14.495,0.036
14.500,0.032
14.505,0.025
14.510,0.012
14.515,0.004
14.520,-0.004
14.525,-0.015
14.530,-0.021
14.535,-0.027
14.540,-0.036
14.545,-0.036
14.550,-0.034
14.555,-0.036
14.560,-0.040
14.565,-0.043
14.570,-0.044
14.575,-0.045
14.580,-0.042
14.585,-0.039
14.590,-0.037
14.595,-0.034
14.600,-0.028
14.605,-0.026
14.610,-0.025
14.615,-0.022
14.620,-0.021
14.625,-0.019
14.630,-0.016
14.635,-0.017
14.640,-0.024
14.645,-0.025
14.650,-0.025
14.655,-0.031
14.660,-0.037
14.665,-0.039
14.670,-0.041
14.675,-0.046
14.680,-0.048
14.685,-0.046
14.690,-0.044
14.695,-0.037
14.700,-0.028
14.705,-0.022
14.710,-0.018
14.715,-0.012
14.720,-0.007
14.725,-0.004
14.730,0.001
14.735,0.006
14.740,0.009
14.745,0.012
14.750,0.016
14.755,0.016
14.760,0.016
14.765,0.016
14.770,0.017
14.775,0.017
14.780,0.016
14.785,0.011
14.790,0.006
14.795,0.002
14.800,0.002
14.805,0.001
14.810,0.000
14.815,0.001
14.820,0.000
14.825,-0.003
14.830,-0.006
14.835,-0.008
14.840,-0.015
14.845,-0.020
14.850,-0.018
14.855,-0.019
14.860,-0.021
14.865,-0.018
14.870,-0.018
14.875,-0.022
14.880,-0.016
14.885,-0.007
14.890,-0.007
14.895,-0.009
14.900,-0.009
14.905,-0.010
14.910,-0.008
14.915,-0.007
14.920,-0.008
14.925,-0.007
14.930,-0.001
14.935,0.004
14.940,0.003
14.945,0.001
14.950,0.001
14.955,0.002
14.960,0.003
14.965,0.007
14.970,0.007
14.975,0.005
14.980,0.009
14.985,0.011
14.990,0.006
14.995,0.002
15.000,0.004
15.005,0.007
15.010,0.008
15.015,0.010
15.020,0.010
15.025,0.007
15.030,0.008
15.035,0.009
15.040,0.008
15.045,0.006
15.050,0.009
15.055,0.011
15.060,0.009
15.065,0.008
15.070,0.006
15.075,0.003
15.080,0.004
15.085,0.003
15.090,-0.001
15.095,-0.002
15.100,0.000
15.105,-0.004
15.110,-0.004
15.115,-0.001
15.120,-0.002
15.125,-0.007
15.130,-0.007
15.135,-0.005
15.140,-0.005
15.145,-0.005
15.150,-0.006
15.155,-0.010
15.160,-0.013
15.165,-0.013
15.170,-0.009
15.175,-0.007
15.180,-0.007
15.185,-0.009
15.190,-0.012
15.195,-0.014
15.200,-0.013
15.205,-0.013
15.210,-0.014
15.215,-0.011
15.220,-0.009
15.225,-0.011
15.230,-0.011
15.235,-0.010
15.240,-0.010
15.245,-0.007
15.250,-0.007
15.255,-0.011
15.260,-0.014
15.265,-0.014
15.270,-0.015
15.275,-0.016
15.280,-0.013
15.285,-0.011
15.290,-0.013
15.295,-0.013
15.300,-0.011
15.305,-0.011
15.310,-0.010
15.315,-0.008
15.320,-0.010
15.325,-0.014
15.330,-0.014
15.335,-0.012
15.340,-0.013
15.345,-0.014
15.350,-0.011
15.355,-0.009
15.360,-0.012
15.365,-0.012
15.370,-0.011
15.375,-0.009
15.380,-0.007
15.385,-0.007
15.390,-0.009
15.395,-0.010
15.400,-0.012
15.405,-0.015
15.410,-0.012
15.415,-0.007
15.420,-0.008
15.425,-0.009
15.430,-0.009
15.435,-0.008
15.440,-0.007
15.445,-0.007
15.450,-0.007
15.455,-0.007
15.460,-0.008
15.465,-0.006
15.470,-0.005
15.475,-0.008
15.480,-0.005
15.485,-0.003
15.490,-0.007
15.495,-0.011
15.500,-0.013
15.505,-0.017
15.510,-0.026
15.515,-0.038
15.520,-0.050
15.525,-0.055
15.530,-0.059
15.535,-0.062
15.540,-0.059
15.545,-0.053
15.550,-0.041
15.555,-0.030
15.560,-0.022
15.565,-0.019
15.570,-0.024
15.575,-0.028
15.580,-0.013
15.585,0.015
15.590,0.029
15.595,0.032
15.600,0.036
15.605,0.035
15.610,0.030
15.615,0.033
15.620,0.035
15.625,0.031
15.630,0.037
15.635,0.046
15.640,0.048
15.645,0.049
15.650,0.056
15.655,0.057
15.660,0.049
15.665,0.043
15.670,0.039
15.675,0.034
15.680,0.033
15.685,0.033
15.690,0.029
15.695,0.007
15.700,-0.037
15.705,-0.131
15.710,-0.320
15.715,-0.598
15.720,-0.934
15.725,-1.243
15.730,-1.348
15.735,-1.119
15.740,-0.681
15.745,-0.234
15.750,0.179
15.755,0.454
15.760,0.528
15.765,0.491
15.770,0.419
15.775,0.359
15.780,0.333
15.785,0.330
15.790,0.325
15.795,0.316
15.800,0.309
15.805,0.295
15.810,0.281
15.815,0.270
15.820,0.261
15.825,0.249
15.830,0.237
15.835,0.225
15.840,0.211
15.845,0.200
15.850,0.191
15.855,0.179
15.860,0.169
15.865,0.163
15.870,0.154
15.875,0.142
15.880,0.134
15.885,0.122
15.890,0.109
15.895,0.105
15.900,0.098
15.905,0.087
15.910,0.082
15.915,0.079
15.920,0.066
15.925,0.054
15.930,0.051
15.935,0.045
15.940,0.034
15.945,0.025
15.950,0.020
15.955,0.013
15.960,0.005
15.965,-0.004
15.970,-0.011
15.975,-0.016
15.980,-0.022
15.985,-0.027
15.990,-0.033
15.995,-0.040
16.000,-0.041
16.005,-0.038
16.010,-0.037
16.015,-0.037
16.020,-0.040
16.025,-0.044
16.030,-0.042
16.035,-0.039
16.040,-0.039
16.045,-0.036
16.050,-0.031
16.055,-0.031
16.060,-0.032
16.065,-0.030
16.070,-0.030
16.075,-0.032
16.080,-0.032
16.085,-0.031
16.090,-0.033
16.095,-0.032
16.100,-0.034
16.105,-0.041
16.110,-0.041
16.115,-0.037
16.120,-0.036
16.125,-0.036
16.130,-0.033
16.135,-0.027
16.140,-0.022
16.145,-0.015
16.150,-0.010
16.155,-0.007
16.160,-0.001
16.165,0.009
16.170,0.014
16.175,0.016
16.180,0.022
16.185,0.028
16.190,0.029
16.195,0.034
16.200,0.032
16.205,0.021
16.210,0.019
16.215,0.024
16.220,0.023
16.225,0.021
16.230,0.023
16.235,0.021
16.240,0.011
16.245,0.008
16.250,0.012
16.255,0.012
16.260,0.011
16.265,0.010
16.270,0.006
16.275,0.002
16.280,0.002
16.285,0.003
16.290,0.000
16.295,-0.004
16.300,-0.004
16.305,-0.002
16.310,-0.002
16.315,-0.001
16.320,0.003
16.325,0.004
16.330,0.001
16.335,-0.001
16.340,-0.002
16.345,0.000
16.350,0.003
16.355,-0.001
16.360,-0.004
16.365,0.000
16.370,0.002
16.375,-0.002
16.380,-0.002
16.385,0.003
16.390,0.000
16.395,-0.004
16.400,-0.002
16.405,0.000
16.410,-0.004
16.415,-0.004
16.420,0.000
16.425,0.000
16.430,0.001
16.435,0.000
16.440,-0.007
16.445,-0.010
16.450,-0.005
16.455,-0.002
16.460,0.001
16.465,0.005
16.470,0.006
16.475,-0.001
16.480,-0.008
16.485,-0.010
16.490,-0.015
16.495,-0.015
16.500,-0.006
16.505,-0.005
16.510,-0.014
16.515,-0.016
16.520,-0.019
16.525,-0.027
16.530,-0.022
16.535,-0.012
16.540,-0.016
16.545,-0.023
16.550,-0.021
16.555,-0.014
16.560,-0.009
16.565,-0.008
16.570,-0.016
16.575,-0.019
16.580,-0.009
16.585,-0.009
16.590,-0.018
16.595,-0.023
16.600,-0.026
16.605,-0.029
16.610,-0.027
16.615,-0.016
16.620,-0.011
16.625,-0.014
16.630,-0.018
16.635,-0.021
16.640,-0.022
16.645,-0.018
16.650,-0.015
16.655,-0.016
16.660,-0.017
16.665,-0.016
16.670,-0.017
16.675,-0.020
16.680,-0.021
16.685,-0.016
16.690,-0.017
16.695,-0.023
16.700,-0.023
16.705,-0.020
16.710,-0.019
16.715,-0.018
16.720,-0.014
16.725,-0.014
16.730,-0.017
16.735,-0.016
16.740,-0.017
16.745,-0.017
16.750,-0.013
16.755,-0.012
16.760,-0.013
16.765,-0.012
16.770,-0.012
16.775,-0.014
16.780,-0.014
16.785,-0.015
16.790,-0.016
16.795,-0.012
16.800,-0.009
16.805,-0.012
16.810,-0.015
16.815,-0.012
16.820,-0.008
16.825,-0.011
16.830,-0.013
16.835,-0.009
16.840,-0.007
16.845,-0.010
16.850,-0.009
16.855,-0.007
16.860,-0.010
16.865,-0.012
16.870,-0.010
16.875,-0.007
16.880,-0.004
16.885,-0.003
16.890,-0.004
16.895,-0.002
16.900,-0.002
16.905,-0.006
16.910,-0.008
16.915,-0.006
16.920,-0.007
16.925,-0.008
16.930,-0.007
16.935,-0.005
16.940,-0.005
16.945,-0.007
16.950,-0.010
16.955,-0.023
16.960,-0.042
16.965,-0.047
16.970,-0.049
16.975,-0.055
16.980,-0.057
16.985,-0.055
16.990,-0.054
16.995,-0.041
17.000,-0.028
17.005,-0.026
17.010,-0.027
17.015,-0.031
17.020,-0.030
17.025,-0.006
17.030,0.025
17.035,0.038
17.040,0.036
17.045,0.036
17.050,0.040
17.055,0.038
17.060,0.036
17.065,0.037
17.070,0.038
17.075,0.039
17.080,0.042
17.085,0.049
17.090,0.056
17.095,0.062
17.100,0.064
17.105,0.053
17.110,0.042
17.115,0.037
17.120,0.030
17.125,0.026
17.130,0.030
17.135,0.025
17.140,-0.005
17.145,-0.068
17.150,-0.214
17.155,-0.462
17.160,-0.786
17.165,-1.129
17.170,-1.346
17.175,-1.230
17.180,-0.794
17.185,-0.298
17.190,0.126
17.195,0.439
17.200,0.584
17.205,0.571
17.210,0.459
17.215,0.360
17.220,0.315
17.225,0.296
17.230,0.292
17.235,0.287
17.240,0.276
17.245,0.269
17.250,0.262
17.255,0.248
17.260,0.233
17.265,0.224
17.270,0.212
17.275,0.197
17.280,0.186
17.285,0.179
17.290,0.169
17.295,0.159
17.300,0.153
17.305,0.144
17.310,0.133
17.315,0.125
17.320,0.114
17.325,0.104
17.330,0.100
17.335,0.094
17.340,0.083
17.345,0.075
17.350,0.071
17.355,0.059
17.360,0.050
17.365,0.047
17.370,0.041
17.375,0.031
17.380,0.025
17.385,0.019
17.390,0.010
17.395,0.003
17.400,0.000
17.405,-0.008
17.410,-0.016
17.415,-0.021
17.420,-0.025
17.425,-0.029
17.430,-0.031
17.435,-0.033
17.440,-0.037
17.445,-0.040
17.450,-0.037
17.455,-0.034
17.460,-0.034
17.465,-0.032
17.470,-0.028
17.475,-0.024
17.480,-0.019
17.485,-0.015
17.490,-0.013
17.495,-0.012
17.500,-0.010
17.505,-0.009
17.510,-0.009
17.515,-0.009
17.520,-0.012
17.525,-0.017
17.530,-0.020
17.535,-0.022
17.540,-0.028
17.545,-0.036
17.550,-0.038
17.555,-0.040
17.560,-0.044
17.565,-0.043
17.570,-0.040
17.575,-0.038
17.580,-0.032
17.585,-0.025
17.590,-0.022
17.595,-0.017
17.600,-0.007
17.605,0.001
17.610,0.006
17.615,0.011
17.620,0.017
17.625,0.019
17.630,0.020
17.635,0.022
17.640,0.021
17.645,0.021
17.650,0.023
17.655,0.021
17.660,0.016
17.665,0.013
17.670,0.012
17.675,0.008
17.680,0.004
17.685,0.004
17.690,0.001
17.695,-0.002
17.700,-0.002
17.705,-0.004
17.710,-0.007
17.715,-0.010
17.720,-0.012
17.725,-0.013
17.730,-0.012
17.735,-0.010
17.740,-0.011
17.745,-0.011
17.750,-0.011
17.755,-0.011
17.760,-0.009
17.765,-0.007
17.770,-0.004
17.775,-0.003
17.780,-0.003
17.785,-0.002
17.790,-0.002
17.795,0.001
17.800,0.005
17.805,0.003
17.810,0.001
17.815,0.004
17.820,0.005
17.825,0.003
17.830,0.005
17.835,0.007
17.840,0.008
17.845,0.012
17.850,0.019
17.855,0.019
17.860,0.012
17.865,0.012
17.870,0.014
17.875,0.007
17.880,0.004
17.885,0.008
17.890,0.010
17.895,0.008
17.900,0.009
17.905,0.014
17.910,0.018
17.915,0.016
17.920,0.010
17.925,0.006
17.930,0.006
17.935,0.005
17.940,-0.004
17.945,-0.012
17.950,-0.010
17.955,-0.006
17.960,-0.002
17.965,-0.001
17.970,-0.002
17.975,0.002
17.980,0.004
17.985,0.001
17.990,-0.007
17.995,-0.014
18.000,-0.014
18.005,-0.012
18.010,-0.010
18.015,-0.008
18.020,-0.009
18.025,-0.011
18.030,-0.008
18.035,-0.006
18.040,-0.013
18.045,-0.016
18.050,-0.015
18.055,-0.019
18.060,-0.018
18.065,-0.012
18.070,-0.012
18.075,-0.016
18.080,-0.016
18.085,-0.018
18.090,-0.025
18.095,-0.031
18.100,-0.027
18.105,-0.021
18.110,-0.020
18.115,-0.019
18.120,-0.014
18.125,-0.012
18.130,-0.016
18.135,-0.014
18.140,-0.014
18.145,-0.021
18.150,-0.021
18.155,-0.021
18.160,-0.028
18.165,-0.022
18.170,-0.012
18.175,-0.014
18.180,-0.020
18.185,-0.021
18.190,-0.018
18.195,-0.018
18.200,-0.018
18.205,-0.021
18.210,-0.022
18.215,-0.018
18.220,-0.016
18.225,-0.017
18.230,-0.018
18.235,-0.017
18.240,-0.010
18.245,-0.004
18.250,-0.008
18.255,-0.016
18.260,-0.020
18.265,-0.021
18.270,-0.022
18.275,-0.022
18.280,-0.021
18.285,-0.015
18.290,-0.008
18.295,-0.008
18.300,-0.011
18.305,-0.014
18.310,-0.015
18.315,-0.007
18.320,-0.003
18.325,-0.004
18.330,-0.002
18.335,-0.004
18.340,-0.015
18.345,-0.020
18.350,-0.016
18.355,-0.012
18.360,-0.009
18.365,-0.007
18.370,-0.008
18.375,-0.010
18.380,-0.007
18.385,-0.009
18.390,-0.010
18.395,-0.005
18.400,-0.009
18.405,-0.028
18.410,-0.044
18.415,-0.046
18.420,-0.047
18.425,-0.056
18.430,-0.060
18.435,-0.056
18.440,-0.056
18.445,-0.052
18.450,-0.038
18.455,-0.025
18.460,-0.022
18.465,-0.026
18.470,-0.030
18.475,-0.012
18.480,0.014
18.485,0.026
18.490,0.029
18.495,0.028
18.500,0.030
18.505,0.034
18.510,0.036
18.515,0.042
18.520,0.044
18.525,0.046
18.530,0.047
18.535,0.045
18.540,0.049
18.545,0.058
18.550,0.057
18.555,0.050
18.560,0.053
18.565,0.051
18.570,0.044
18.575,0.043
18.580,0.040
18.585,0.030
18.590,-0.002
18.595,-0.048
18.600,-0.138
18.605,-0.338
18.610,-0.646
18.615,-1.009
18.620,-1.299
18.625,-1.315
18.630,-0.962
18.635,-0.445
18.640,0.005
18.645,0.348
18.650,0.554
18.655,0.599
18.660,0.512
18.665,0.389
18.670,0.314
18.675,0.288
18.680,0.282
18.685,0.279
18.690,0.271
18.695,0.264
18.700,0.262
18.705,0.248
18.710,0.225
18.715,0.210
18.720,0.208
18.725,0.203
18.730,0.189
18.735,0.175
18.740,0.169
18.745,0.157
18.750,0.141
18.755,0.141
18.760,0.144
18.765,0.132
18.770,0.117
18.775,0.111
18.780,0.096
18.785,0.079
18.790,0.073
18.795,0.075
18.800,0.072
18.805,0.064
18.810,0.062
18.815,0.055
18.820,0.039
18.825,0.033
18.830,0.027
18.835,0.014
18.840,0.004
18.845,0.006
18.850,0.008
18.855,-0.003
18.860,-0.006
18.865,-0.006
18.870,-0.016
18.875,-0.028
18.880,-0.036
18.885,-0.033
18.890,-0.033
18.895,-0.037
18.900,-0.032
18.905,-0.024
18.910,-0.019
18.915,-0.014
18.920,-0.009
18.925,-0.012
18.930,-0.016
18.935,-0.019
18.940,-0.018
18.945,-0.007
18.950,0.004
18.955,0.011
18.960,0.006
18.965,0.001
18.970,0.002
18.975,-0.006
18.980,-0.019
18.985,-0.024
18.990,-0.019
18.995,-0.022
19.000,-0.038
19.005,-0.045
19.010,-0.051
19.015,-0.057
19.020,-0.053
19.025,-0.044
19.030,-0.035
19.035,-0.034
19.040,-0.030
19.045,-0.014
19.050,-0.011
19.055,-0.022
19.060,-0.018
19.065,0.003
19.070,0.017
19.075,0.023
19.080,0.021
19.085,0.012
19.090,0.011
19.095,0.017
19.100,0.019
19.105,0.016
19.110,0.014
19.115,0.016
19.120,0.011
19.125,0.000
19.130,-0.005
19.135,-0.006
19.140,-0.008
19.145,-0.007
19.150,-0.005
19.155,-0.016
19.160,-0.022
19.165,-0.013
19.170,-0.010
19.175,-0.009
19.180,-0.003
19.185,-0.006
19.190,-0.016
19.195,-0.020
19.200,-0.017
19.205,-0.014
19.210,-0.020
19.215,-0.029
19.220,-0.027
19.225,-0.018
19.230,-0.008
19.235,0.003
19.240,-0.002
19.245,-0.012
19.250,0.000
19.255,0.005
19.260,-0.003
19.265,0.000
19.270,-0.001
19.275,-0.004
19.280,0.009
19.285,0.026
19.290,0.028
19.295,0.016
19.300,0.006
19.305,0.004
19.310,0.002
19.315,0.001
19.320,0.012
19.325,0.025
19.330,0.027
19.335,0.030
19.340,0.030
19.345,0.013
19.350,0.004
19.355,0.002
19.360,-0.003
19.365,0.004
19.370,0.005
19.375,0.002
19.380,0.016
19.385,0.027
19.390,0.022
19.395,0.012
19.400,0.001
19.405,-0.013
19.410,-0.022
19.415,-0.012
19.420,0.011
19.425,0.014
19.430,0.000
19.435,0.004
19.440,0.005
19.445,-0.007
19.450,0.002
19.455,0.009
19.460,-0.007
19.465,-0.015
19.470,-0.019
19.475,-0.018
19.480,-0.012
19.485,-0.006
19.490,0.002
19.495,0.004
19.500,-0.001
19.505,-0.008
19.510,-0.008
19.515,-0.013
19.520,-0.022
19.525,-0.021
19.530,-0.022
19.535,-0.017
19.540,-0.003
19.545,0.001
19.550,-0.001
19.555,-0.002
19.560,-0.011
19.565,-0.019
19.570,-0.023
19.575,-0.026
19.580,-0.027
19.585,-0.019
19.590,-0.014
19.595,-0.017
19.600,-0.012
19.605,-0.005
19.610,-0.007
19.615,-0.009
19.620,-0.005
19.625,-0.012
19.630,-0.025
19.635,-0.023
19.640,-0.018
19.645,-0.009
19.650,0.000
19.655,-0.013
19.660,-0.025
19.665,-0.020
19.670,-0.020
19.675,-0.017
19.680,0.001
19.685,0.004
19.690,-0.016
19.695,-0.027
19.700,-0.022
19.705,-0.014
19.710,-0.009
19.715,-0.010
19.720,-0.014
19.725,-0.008
19.730,-0.003
19.735,-0.015
19.740,-0.026
19.745,-0.012
19.750,0.001
19.755,-0.003
19.760,-0.007
19.765,-0.008
19.770,-0.013
19.775,-0.019
19.780,-0.009
19.785,-0.002
19.790,-0.011
19.795,-0.011
19.800,-0.004
19.805,-0.015
19.810,-0.031
19.815,-0.042
19.820,-0.052
19.825,-0.060
19.830,-0.067
19.835,-0.071
19.840,-0.072
19.845,-0.055
19.850,-0.033
19.855,-0.034
19.860,-0.039
19.865,-0.034
19.870,-0.042
19.875,-0.036
19.880,-0.007
19.885,0.007
19.890,0.022
19.895,0.047
19.900,0.041
19.905,0.027
19.910,0.036
19.915,0.043
19.920,0.032
19.925,0.027
19.930,0.038
19.935,0.045
19.940,0.047
19.945,0.063
19.950,0.072
19.955,0.058
19.960,0.044
19.965,0.031
19.970,0.022
19.975,0.033
19.980,0.045
19.985,0.033
19.990,0.017
19.995,-0.016
20.000,-0.152
20.005,-0.396
20.010,-0.689
20.015,-1.033
20.020,-1.332
20.025,-1.335
20.030,-0.939
20.035,-0.388
20.040,0.079
20.045,0.420
20.050,0.589
20.055,0.599
20.060,0.509
20.065,0.399
20.070,0.332
20.075,0.310
20.080,0.303
20.085,0.283
20.090,0.266
20.095,0.250
20.100,0.240
20.105,0.241
20.110,0.222
20.115,0.209
20.120,0.222
20.125,0.218
20.130,0.196
20.135,0.186
20.140,0.176
20.145,0.154
20.150,0.137
20.155,0.121
20.160,0.122
20.165,0.130
20.170,0.115
20.175,0.105
20.180,0.105
20.185,0.092
20.190,0.079
20.195,0.082
20.200,0.077
20.205,0.058
20.210,0.040
20.215,0.037
20.220,0.053
20.225,0.049
20.230,0.026
20.235,0.022
20.240,0.021
20.245,0.015
20.250,0.004
20.255,-0.012
20.260,-0.023
20.265,-0.018
20.270,-0.012
20.275,-0.022
20.280,-0.029
20.285,-0.021
20.290,-0.023
20.295,-0.039
20.300,-0.035
20.305,-0.014
20.310,-0.013
20.315,-0.019
20.320,-0.014
20.325,-0.014
20.330,-0.012
20.335,0.001
20.340,0.008
20.345,0.009
20.350,0.015
20.355,0.004
20.360,-0.010
20.365,0.008
20.370,0.020
20.375,0.002
20.380,-0.010
20.385,-0.006
20.390,-0.012
20.395,-0.029
20.400,-0.041
20.405,-0.039
20.410,-0.032
20.415,-0.042
20.420,-0.052
20.425,-0.052
20.430,-0.047
20.435,-0.036
20.440,-0.028
20.445,-0.025
20.450,-0.017
20.455,-0.009
20.460,-0.006
20.465,-0.005
20.470,0.012
20.475,0.015
20.480,-0.007
20.485,-0.023
20.490,-0.013
20.495,0.012
20.500,0.030
20.505,0.024
20.510,0.007
20.515,-0.005
20.520,-0.013
20.525,-0.010
20.530,-0.003
20.535,-0.010
20.540,-0.023
20.545,-0.025
20.550,-0.023
20.555,-0.019
20.560,-0.019
20.565,-0.024
20.570,-0.021
20.575,-0.023
20.580,-0.026
20.585,-0.017
20.590,-0.024
20.595,-0.045
20.600,-0.046
20.605,-0.035
20.610,-0.029
20.615,-0.028
20.620,-0.023
20.625,-0.021
20.630,-0.025
20.635,-0.031
20.640,-0.032
20.645,-0.022
20.650,-0.008
20.655,-0.005
20.660,-0.016
20.665,-0.009
20.670,0.011
20.675,0.003
20.680,-0.008
20.685,-0.002
20.690,0.008
20.695,0.015
20.700,0.013
20.705,0.004
20.710,0.002
20.715,0.010
20.720,0.019
20.725,0.030
20.730,0.027
20.735,0.012
20.740,0.010
20.745,0.016
20.750,0.023
20.755,0.021
20.760,0.002
20.765,0.002
20.770,0.019
20.775,0.020
20.780,0.020
20.785,0.025
20.790,0.023
20.795,0.012
20.800,-0.001
20.805,0.004
20.810,0.013
20.815,0.004
20.820,-0.007
20.825,-0.005
20.830,0.007
20.835,0.017
20.840,0.016
20.845,0.006
20.850,-0.007
20.855,-0.006
20.860,0.006
20.865,0.013
20.870,0.008
20.875,-0.004
20.880,-0.004
20.885,0.000
20.890,-0.010
20.895,-0.008
20.900,0.003
20.905,-0.005
20.910,-0.019
20.915,-0.022
20.920,-0.007
20.925,0.008
20.930,0.002
20.935,-0.011
20.940,-0.017
20.945,-0.008
20.950,-0.002
20.955,-0.011
20.960,-0.017
20.965,-0.016
20.970,-0.023
20.975,-0.026
20.980,-0.016
20.985,-0.011
20.990,-0.008
20.995,-0.005
21.000,-0.002
21.005,-0.002
21.010,-0.015
21.015,-0.024
21.020,-0.021
21.025,-0.015
21.030,-0.017
21.035,-0.027
21.040,-0.022
21.045,-0.004
21.050,-0.001
21.055,-0.009
21.060,-0.012
21.065,-0.012
21.070,-0.007
21.075,-0.004
21.080,-0.013
21.085,-0.024
21.090,-0.021
21.095,-0.009
21.100,-0.005
21.105,-0.013
21.110,-0.019
21.115,-0.013
21.120,-0.010
21.125,-0.006
21.130,0.002
21.135,-0.006
21.140,-0.025
21.145,-0.026
21.150,-0.008
21.155,0.001
21.160,-0.008
21.165,-0.022
21.170,-0.025
21.175,-0.014
21.180,-0.010
21.185,-0.014
21.190,-0.013
21.195,-0.006
21.200,0.004
21.205,0.008
21.210,0.002
21.215,-0.009
21.220,-0.015
21.225,-0.023
21.230,-0.037
21.235,-0.046
21.240,-0.050
21.245,-0.052
21.250,-0.057
21.255,-0.066
21.260,-0.069
21.265,-0.057
21.270,-0.033
21.275,-0.021
21.280,-0.025
21.285,-0.030
21.290,-0.033
21.295,-0.027
21.300,-0.010
21.305,0.007
21.310,0.017
21.315,0.021
21.320,0.024
21.325,0.030
21.330,0.033
21.335,0.029
21.340,0.027
21.345,0.028
21.350,0.039
21.355,0.050
21.360,0.045
21.365,0.048
21.370,0.055
21.375,0.047
21.380,0.042
21.385,0.046
21.390,0.042
21.395,0.036
21.400,0.036
21.405,0.032
21.410,0.014
21.415,-0.020
21.420,-0.096
21.425,-0.259
21.430,-0.523
21.435,-0.853
21.440,-1.172
21.445,-1.342
21.450,-1.183
21.455,-0.727
21.460,-0.226
21.465,0.195
21.470,0.487
21.475,0.594
21.480,0.554
21.485,0.449
21.490,0.360
21.495,0.319
21.500,0.308
21.505,0.301
21.510,0.294
21.515,0.288
21.520,0.276
21.525,0.255
21.530,0.236
21.535,0.231
21.540,0.221
21.545,0.204
21.550,0.192
21.555,0.185
21.560,0.187
21.565,0.185
21.570,0.165
21.575,0.149
21.580,0.153
21.585,0.151
21.590,0.130
21.595,0.111
21.600,0.101
21.605,0.091
21.610,0.081
21.615,0.079
21.620,0.080
21.625,0.071
21.630,0.061
21.635,0.057
21.640,0.049
21.645,0.039
21.650,0.029
21.655,0.020
21.660,0.021
21.665,0.025
21.670,0.011
21.675,-0.002
21.680,-0.007
21.685,-0.023
21.690,-0.029
21.695,-0.023
21.700,-0.023
21.705,-0.027
21.710,-0.031
21.715,-0.034
21.720,-0.039
21.725,-0.044
21.730,-0.040
21.735,-0.032
21.740,-0.028
21.745,-0.024
21.750,-0.019
21.755,-0.020
21.760,-0.019
21.765,-0.017
21.770,-0.015
21.775,-0.008
21.780,-0.003
21.785,-0.005
21.790,-0.010
21.795,-0.014
21.800,-0.014
21.805,-0.017
21.810,-0.018
21.815,-0.016
21.820,-0.026
21.825,-0.040
21.830,-0.043
21.835,-0.047
21.840,-0.049
21.845,-0.046
21.850,-0.041
21.855,-0.037
21.860,-0.038
21.865,-0.029
21.870,-0.015
21.875,-0.009
21.880,-0.006
21.885,-0.003
21.890,-0.002
21.895,0.006
21.900,0.016
21.905,0.018
21.910,0.014
21.915,0.015
21.920,0.018
21.925,0.014
21.930,0.010
21.935,0.012
21.940,0.014
21.945,0.011
21.950,0.005
21.955,-0.002
21.960,-0.014
21.965,-0.016
21.970,-0.009
21.975,-0.007
21.980,-0.010
21.985,-0.019
21.990,-0.021
21.995,-0.017
22.000,-0.018
22.005,-0.023
22.010,-0.026
22.015,-0.029
22.020,-0.030
22.025,-0.027
22.030,-0.025
22.035,-0.025
22.040,-0.028
22.045,-0.025
22.050,-0.014
22.055,-0.010
22.060,-0.011
22.065,-0.012
22.070,-0.017
22.075,-0.020
22.080,-0.018
22.085,-0.012
22.090,-0.004
22.095,-0.001
22.100,-0.003
22.105,-0.003
22.110,0.000
22.115,0.005
22.120,0.006
22.125,0.007
22.130,0.014
22.135,0.021
22.140,0.023
22.145,0.019
22.150,0.013
22.155,0.011
22.160,0.012
22.165,0.015
22.170,0.013
22.175,0.009
22.180,0.011
22.185,0.017
22.190,0.016
22.195,0.010
22.200,0.009
22.205,0.013
22.210,0.013
22.215,0.012
22.220,0.013
22.225,0.011
22.230,0.007
22.235,0.006
22.240,0.007
22.245,0.005
22.250,0.004
22.255,0.003
22.260,-0.001
22.265,0.000
22.270,0.008
22.275,0.008
22.280,-0.003
22.285,-0.011
22.290,-0.009
22.295,-0.004
22.300,0.001
22.305,0.003
22.310,-0.001
22.315,-0.002
22.320,-0.003
22.325,-0.007
22.330,-0.012
22.335,-0.016
22.340,-0.017
22.345,-0.012
22.350,-0.010
22.355,-0.009
22.360,-0.004
22.365,-0.003
22.370,-0.006
22.375,-0.010
22.380,-0.010
22.385,-0.009
22.390,-0.013
22.395,-0.016
22.400,-0.015
22.405,-0.017
22.410,-0.019
22.415,-0.017
22.420,-0.011
22.425,-0.010
22.430,-0.017
22.435,-0.018
22.440,-0.013
22.445,-0.009
22.450,-0.005
22.455,-0.008
22.460,-0.012
22.465,-0.011
22.470,-0.007
22.475,-0.006
22.480,-0.010
22.485,-0.017
22.490,-0.019
22.495,-0.016
22.500,-0.013
22.505,-0.016
22.510,-0.018
22.515,-0.014
22.520,-0.010
22.525,-0.015
22.530,-0.017
22.535,-0.010
22.540,-0.008
22.545,-0.011
22.550,-0.007
22.555,-0.003
22.560,-0.010
22.565,-0.016
22.570,-0.010
22.575,-0.005
22.580,-0.005
22.585,-0.005
22.590,-0.004
22.595,-0.008
22.600,-0.011
22.605,-0.015
22.610,-0.019
22.615,-0.016
22.620,-0.010
22.625,-0.007
22.630,-0.005
22.635,-0.005
22.640,-0.004
22.645,0.000
22.650,0.001
22.655,-0.004
22.660,-0.008
22.665,-0.009
22.670,-0.010
22.675,-0.019
22.680,-0.030
22.685,-0.038
22.690,-0.047
22.695,-0.052
22.700,-0.054
22.705,-0.062
22.710,-0.064
22.715,-0.056
22.720,-0.040
22.725,-0.029
22.730,-0.025
22.735,-0.022
22.740,-0.030
22.745,-0.033
22.750,-0.010
22.755,0.015
22.760,0.025
22.765,0.033
22.770,0.042
22.775,0.048
22.780,0.044
22.785,0.040
22.790,0.034
22.795,0.029
22.800,0.035
22.805,0.038
22.810,0.039
22.815,0.053
22.820,0.063
22.825,0.059
22.830,0.049
22.835,0.040
22.840,0.039
22.845,0.039
22.850,0.036
22.855,0.034
22.860,0.028
22.865,0.004
22.870,-0.051
22.875,-0.181
22.880,-0.411
22.885,-0.721
22.890,-1.068
22.895,-1.330
22.900,-1.318
22.905,-0.975
22.910,-0.492
22.915,-0.037
22.920,0.341
22.925,0.553
22.930,0.584
22.935,0.504
22.940,0.402
22.945,0.344
22.950,0.322
22.955,0.319
22.960,0.315
22.965,0.301
22.970,0.286
22.975,0.274
22.980,0.269
22.985,0.263
22.990,0.249
22.995,0.232
23.000,0.223
23.005,0.215
23.010,0.203
23.015,0.190
23.020,0.178
23.025,0.169
23.030,0.159
23.035,0.147
23.040,0.133
23.045,0.128
23.050,0.127
23.055,0.119
23.060,0.109
23.065,0.098
23.070,0.085
23.075,0.072
23.080,0.061
23.085,0.060
23.090,0.060
23.095,0.053
23.100,0.048
23.105,0.043
23.110,0.032
23.115,0.023
23.120,0.012
23.125,-0.004
23.130,-0.016
23.135,-0.023
23.140,-0.027
23.145,-0.026
23.150,-0.022
23.155,-0.025
23.160,-0.034
23.165,-0.036
23.170,-0.036
23.175,-0.040
23.180,-0.044
23.185,-0.047
23.190,-0.046
23.195,-0.039
23.200,-0.034
23.205,-0.032
23.210,-0.030
23.215,-0.029
23.220,-0.026
23.225,-0.023
23.230,-0.024
23.235,-0.025
23.240,-0.029
23.245,-0.028
23.250,-0.021
23.255,-0.021
23.260,-0.027
23.265,-0.031
23.270,-0.033
23.275,-0.038
23.280,-0.040
23.285,-0.039
23.290,-0.042
23.295,-0.044
23.300,-0.035
23.305,-0.026
23.310,-0.021
23.315,-0.015
23.320,-0.012
23.325,-0.013
23.330,-0.012
23.335,-0.006
23.340,0.003
23.345,0.009
23.350,0.013
23.355,0.014
23.360,0.016
23.365,0.023
23.370,0.026
23.375,0.024
23.380,0.019
23.385,0.012
23.390,0.009
23.395,0.014
23.400,0.016
23.405,0.008
23.410,-0.004
23.415,-0.007
23.420,-0.003
23.425,-0.005
23.430,-0.009
23.435,-0.008
23.440,-0.006
23.445,-0.007
23.450,-0.005
23.455,-0.007
23.460,-0.013
23.465,-0.015
23.470,-0.013
23.475,-0.011
23.480,-0.008
23.485,-0.004
23.490,-0.007
23.495,-0.010
23.500,-0.009
23.505,-0.009
23.510,-0.005
23.515,0.001
23.520,0.001
23.525,0.000
23.530,-0.002
23.535,-0.001
23.540,0.001
23.545,0.002
23.550,0.004
23.555,0.005
23.560,0.001
23.565,0.001
23.570,0.004
23.575,0.003
23.580,0.002
23.585,0.006
23.590,0.010
23.595,0.011
23.600,0.010
23.605,0.007
23.610,0.005
23.615,0.005
23.620,0.004
23.625,0.001
23.630,0.001
23.635,0.003
23.640,0.004
23.645,0.000
23.650,0.001
23.655,0.001
23.660,-0.001
23.665,0.000
23.670,-0.001
23.675,-0.006
23.680,-0.006
23.685,-0.001
23.690,-0.001
23.695,-0.002
23.700,0.001
23.705,-0.001
23.710,-0.004
23.715,-0.002
23.720,0.001
23.725,-0.002
23.730,-0.006
23.735,-0.005
23.740,-0.007
23.745,-0.013
23.750,-0.015
23.755,-0.016
23.760,-0.013
23.765,-0.011
23.770,-0.011
23.775,-0.012
23.780,-0.012
23.785,-0.011
23.790,-0.012
23.795,-0.013
23.800,-0.010
23.805,-0.011
23.810,-0.016
23.815,-0.016
23.820,-0.013
23.825,-0.014
23.830,-0.013
23.835,-0.010
23.840,-0.013
23.845,-0.018
23.850,-0.018
23.855,-0.015
23.860,-0.014
23.865,-0.015
23.870,-0.016
23.875,-0.016
23.880,-0.014
23.885,-0.011
23.890,-0.012
23.895,-0.014
23.900,-0.014
23.905,-0.014
23.910,-0.015
23.915,-0.015
23.920,-0.017
23.925,-0.019
23.930,-0.016
23.935,-0.012
23.940,-0.011
23.945,-0.010
23.950,-0.005
23.955,-0.005
23.960,-0.011
23.965,-0.015
23.970,-0.017
23.975,-0.018
23.980,-0.015
23.985,-0.011
23.990,-0.009
23.995,-0.007
24.000,-0.006
24.005,-0.011
24.010,-0.015
24.015,-0.012
24.020,-0.011
24.025,-0.012
24.030,-0.010
24.035,-0.007
24.040,-0.011
24.045,-0.014
24.050,-0.012
24.055,-0.009
24.060,-0.006
24.065,-0.004
24.070,-0.006
24.075,-0.007
24.080,-0.005
24.085,-0.004
24.090,-0.006
24.095,-0.005
24.100,-0.003
24.105,-0.004
24.110,-0.008
24.115,-0.009
24.120,-0.010
24.125,-0.017
24.130,-0.029
24.135,-0.042
24.140,-0.053
24.145,-0.060
24.150,-0.064
24.155,-0.062
24.160,-0.059
24.165,-0.049
24.170,-0.031
24.175,-0.024
24.180,-0.021
24.185,-0.023
24.190,-0.034
24.195,-0.034
24.200,-0.006
24.205,0.022
24.210,0.030
24.215,0.031
24.220,0.035
24.225,0.035
24.230,0.037
24.235,0.042
24.240,0.040
24.245,0.039
24.250,0.051
24.255,0.054
24.260,0.049
24.265,0.053
24.270,0.059
24.275,0.054
24.280,0.045
24.285,0.039
24.290,0.035
24.295,0.032
24.300,0.032
24.305,0.032
24.310,0.021
24.315,-0.011
24.320,-0.078
24.325,-0.222
24.330,-0.464
24.335,-0.786
24.340,-1.133
24.345,-1.356
24.350,-1.265
24.355,-0.864
24.360,-0.386
24.365,0.050
24.370,0.392
24.375,0.552
24.380,0.553
24.385,0.470
24.390,0.382
24.395,0.337
24.400,0.325
24.405,0.323
24.410,0.313
24.415,0.303
24.420,0.293
24.425,0.277
24.430,0.265
24.435,0.257
24.440,0.246
24.445,0.233
24.450,0.223
24.455,0.213
24.460,0.201
24.465,0.191
24.470,0.182
24.475,0.170
24.480,0.156
24.485,0.149
24.490,0.144
24.495,0.134
24.500,0.124
24.505,0.114
24.510,0.103
24.515,0.096
24.520,0.088
24.525,0.076
24.530,0.069
24.535,0.069
24.540,0.060
24.545,0.043
24.550,0.037
24.555,0.032
24.560,0.027
24.565,0.027
24.570,0.022
24.575,0.010
24.580,0.000
24.585,-0.011
24.590,-0.023
24.595,-0.031
24.600,-0.034
24.605,-0.037
24.610,-0.036
24.615,-0.032
24.620,-0.038
24.625,-0.047
24.630,-0.047
24.635,-0.038
24.640,-0.035
24.645,-0.036
24.650,-0.034
24.655,-0.035
24.660,-0.036
24.665,-0.030
24.670,-0.028
24.675,-0.032
24.680,-0.033
24.685,-0.028
24.690,-0.023
24.695,-0.021
24.700,-0.019
24.705,-0.019
24.710,-0.026
24.715,-0.034
24.720,-0.038
24.725,-0.047
24.730,-0.050
24.735,-0.042
24.740,-0.033
24.745,-0.031
24.750,-0.032
24.755,-0.034
24.760,-0.034
24.765,-0.023
24.770,-0.012
24.775,-0.010
24.780,-0.007
24.785,0.006
24.790,0.020
24.795,0.026
24.800,0.028
24.805,0.028
24.810,0.025
24.815,0.026
24.820,0.027
24.825,0.023
24.830,0.019
24.835,0.014
24.840,0.010
24.845,0.008
24.850,0.007
24.855,0.007
24.860,0.007
24.865,0.002
24.870,-0.003
24.875,0.002
24.880,0.007
24.885,0.004
24.890,0.000
24.895,-0.005
24.900,-0.008
24.905,-0.007
24.910,-0.009
24.915,-0.008
24.920,-0.004
24.925,-0.008
24.930,-0.013
24.935,-0.011
24.940,-0.008
24.945,-0.007
24.950,-0.007
24.955,-0.004
24.960,0.004
24.965,0.009
24.970,0.008
24.975,0.003
24.980,-0.004
24.985,-0.005
24.990,-0.005
24.995,-0.005
25.000,-0.001
25.005,0.001
25.010,0.000
25.015,-0.005
25.020,-0.003
25.025,0.005
25.030,0.009
25.035,0.011
25.040,0.009
25.045,0.002
25.050,0.000
25.055,0.003
25.060,0.005
25.065,0.003
25.070,-0.003
25.075,-0.005
25.080,0.001
25.085,0.006
25.090,0.005
25.095,0.002
25.100,-0.001
25.105,-0.005
25.110,-0.010
25.115,-0.004
25.120,0.000
25.125,-0.002
25.130,0.000
25.135,-0.001
25.140,-0.007
25.145,-0.009
25.150,-0.008
25.155,-0.006
25.160,-0.009
25.165,-0.009
25.170,-0.007
25.175,-0.011
25.180,-0.014
25.185,-0.011
25.190,-0.011
25.195,-0.014
25.200,-0.015
25.205,-0.016
25.210,-0.016
25.215,-0.012
25.220,-0.006
25.225,-0.005
25.230,-0.011
25.235,-0.018
25.240,-0.021
25.245,-0.018
25.250,-0.014
25.255,-0.014
25.260,-0.019
25.265,-0.022
25.270,-0.018
25.275,-0.015
25.280,-0.017
25.285,-0.019
25.290,-0.020
25.295,-0.018
25.300,-0.015
25.305,-0.012
25.310,-0.012
25.315,-0.013
25.320,-0.013
25.325,-0.016
25.330,-0.017
25.335,-0.014
25.340,-0.016
25.345,-0.018
25.350,-0.015
25.355,-0.015
25.360,-0.019
25.365,-0.017
25.370,-0.013
25.375,-0.012
25.380,-0.011
25.385,-0.011
25.390,-0.014
25.395,-0.015
25.400,-0.013
25.405,-0.011
25.410,-0.012
25.415,-0.014
25.420,-0.014
25.425,-0.014
25.430,-0.010
25.435,-0.006
25.440,-0.010
25.445,-0.012
25.450,-0.010
25.455,-0.011
25.460,-0.014
25.465,-0.013
25.470,-0.012
25.475,-0.013
25.480,-0.013
25.485,-0.009
25.490,-0.006
25.495,-0.008
25.500,-0.009
25.505,-0.009
25.510,-0.011
25.515,-0.009
25.520,-0.007
25.525,-0.007
25.530,-0.005
25.535,-0.003
25.540,-0.004
25.545,-0.009
25.550,-0.010
25.555,-0.007
25.560,-0.007
25.565,-0.011
25.570,-0.013
25.575,-0.017
25.580,-0.023
25.585,-0.029
25.590,-0.038
25.595,-0.046
25.600,-0.054
25.605,-0.061
25.610,-0.066
25.615,-0.064
25.620,-0.048
25.625,-0.030
25.630,-0.021
25.635,-0.015
25.640,-0.025
25.645,-0.037
25.650,-0.019
25.655,0.011
25.660,0.026
25.665,0.035
25.670,0.042
25.675,0.040
25.680,0.037
25.685,0.037
25.690,0.033
25.695,0.031
25.700,0.037
25.705,0.040
25.710,0.039
25.715,0.046
25.720,0.058
25.725,0.057
25.730,0.048
25.735,0.043
25.740,0.038
25.745,0.030
25.750,0.027
25.755,0.029
25.760,0.025
25.765,0.001
25.770,-0.049
25.775,-0.163
25.780,-0.377
25.785,-0.677
25.790,-1.026
25.795,-1.302
25.800,-1.309
25.805,-0.968
25.810,-0.473
25.815,-0.028
25.820,0.329
25.825,0.539
25.830,0.583
25.835,0.505
25.840,0.397
25.845,0.334
25.850,0.310
25.855,0.305
25.860,0.300
25.865,0.291
25.870,0.283
25.875,0.270
25.880,0.258
25.885,0.250
25.890,0.238
25.895,0.223
25.900,0.215
25.905,0.205
25.910,0.192
25.915,0.184
25.920,0.176
25.925,0.163
25.930,0.150
25.935,0.142
25.940,0.133
25.945,0.122
25.950,0.114
25.955,0.107
25.960,0.097
25.965,0.089
25.970,0.084
25.975,0.075
25.980,0.067
25.985,0.062
25.990,0.055
25.995,0.046
26.000,0.041
26.005,0.035
26.010,0.023
26.015,0.017
26.020,0.012
26.025,0.001
26.030,-0.005
26.035,-0.007
26.040,-0.015
26.045,-0.023
26.050,-0.027
26.055,-0.029
26.060,-0.034
26.065,-0.038
26.070,-0.039
26.075,-0.042
26.080,-0.042
26.085,-0.037
26.090,-0.036
26.095,-0.036
26.100,-0.029
26.105,-0.023
26.110,-0.023
26.115,-0.022
26.120,-0.018
26.125,-0.016
26.130,-0.016
26.135,-0.016
26.140,-0.017
26.145,-0.018
26.150,-0.020
26.155,-0.025
26.160,-0.027
26.165,-0.026
26.170,-0.029
26.175,-0.036
26.180,-0.042
26.185,-0.043
26.190,-0.042
26.195,-0.040
26.200,-0.033
26.205,-0.027
26.210,-0.024
26.215,-0.019
26.220,-0.011
26.225,-0.007
26.230,-0.002
26.235,0.009
26.240,0.016
26.245,0.017
26.250,0.022
26.255,0.026
26.260,0.026
26.265,0.027
26.270,0.028
26.275,0.025
26.280,0.020
26.285,0.022
26.290,0.020
26.295,0.016
26.300,0.014
26.305,0.010
26.310,0.006
26.315,0.004
26.320,0.001
26.325,-0.004
26.330,-0.005
26.335,-0.004
26.340,-0.006
26.345,-0.011
26.350,-0.012
26.355,-0.012
26.360,-0.013
26.365,-0.011
26.370,-0.010
26.375,-0.013
26.380,-0.013
26.385,-0.009
26.390,-0.007
26.395,-0.008
26.400,-0.008
26.405,-0.008
26.410,-0.007
26.415,-0.003
26.420,0.002
26.425,0.002
26.430,0.002
26.435,0.002
26.440,0.000
26.445,0.002
26.450,0.007
26.455,0.007
26.460,0.003
26.465,0.005
26.470,0.010
26.475,0.010
26.480,0.008
26.485,0.011
26.490,0.012
26.495,0.010
26.500,0.011
26.505,0.011
26.510,0.009
26.515,0.013
26.520,0.011
26.525,0.007
26.530,0.006
26.535,0.006
26.540,0.007
26.545,0.006
26.550,0.005
26.555,0.005
26.560,0.004
26.565,0.003
26.570,0.006
26.575,0.005
26.580,-0.001
26.585,-0.001
26.590,-0.001
26.595,-0.003
26.600,-0.002
26.605,-0.002
26.610,-0.006
26.615,-0.008
26.620,-0.008
26.625,-0.011
26.630,-0.011
26.635,-0.006
26.640,-0.004
26.645,-0.008
26.650,-0.011
26.655,-0.011
26.660,-0.013
26.665,-0.014
26.670,-0.013
26.675,-0.013
26.680,-0.011
26.685,-0.009
26.690,-0.013
26.695,-0.019
26.700,-0.016
26.705,-0.009
26.710,-0.011
26.715,-0.018
26.720,-0.020
26.725,-0.021
26.730,-0.019
26.735,-0.013
26.740,-0.012
26.745,-0.016
26.750,-0.016
26.755,-0.017
26.760,-0.020
26.765,-0.019
26.770,-0.019
26.775,-0.020
26.780,-0.020
26.785,-0.018
26.790,-0.018
26.795,-0.020
26.800,-0.017
26.805,-0.014
26.810,-0.017
26.815,-0.016
26.820,-0.009
26.825,-0.010
26.830,-0.013
26.835,-0.012
26.840,-0.014
26.845,-0.021
26.850,-0.022
26.855,-0.019
26.860,-0.022
26.865,-0.023
26.870,-0.016
26.875,-0.012
26.880,-0.012
26.885,-0.008
26.890,-0.006
26.895,-0.008
26.900,-0.008
26.905,-0.011
26.910,-0.015
26.915,-0.015
26.920,-0.011
26.925,-0.011
26.930,-0.015
26.935,-0.010
26.940,-0.002
26.945,-0.005
26.950,-0.009
26.955,-0.010
26.960,-0.011
26.965,-0.006
26.970,-0.003
26.975,-0.011
26.980,-0.016
26.985,-0.010
26.990,-0.006
26.995,-0.005
27.000,-0.004
27.005,-0.008
27.010,-0.008
27.015,-0.002
27.020,0.001
27.025,-0.003
27.030,-0.008
27.035,-0.013
27.040,-0.023
27.045,-0.036
27.050,-0.048
27.055,-0.053
27.060,-0.059
27.065,-0.064
27.070,-0.060
27.075,-0.057
27.080,-0.048
27.085,-0.027
27.090,-0.012
27.095,-0.011
27.100,-0.023
27.105,-0.038
27.110,-0.033
27.115,-0.001
27.120,0.026
27.125,0.034
27.130,0.036
27.135,0.038
27.140,0.035
27.145,0.032
27.150,0.033
27.155,0.032
27.160,0.036
27.165,0.044
27.170,0.046
27.175,0.050
27.180,0.058
27.185,0.066
27.190,0.059
27.195,0.045
27.200,0.040
27.205,0.036
27.210,0.030
27.215,0.030
27.220,0.033
27.225,0.021
27.230,-0.008
27.235,-0.062
27.240,-0.204
27.245,-0.449
27.250,-0.767
27.255,-1.114
27.260,-1.335
27.265,-1.221
27.270,-0.795
27.275,-0.317
27.280,0.092
27.285,0.402
27.290,0.548
27.295,0.548
27.300,0.454
27.305,0.360
27.310,0.314
27.315,0.298
27.320,0.297
27.325,0.292
27.330,0.283
27.335,0.275
27.340,0.265
27.345,0.256
27.350,0.246
27.355,0.227
27.360,0.205
27.365,0.194
27.370,0.191
27.375,0.184
27.380,0.174
27.385,0.165
27.390,0.155
27.395,0.143
27.400,0.137
27.405,0.132
27.410,0.123
27.415,0.109
27.420,0.098
27.425,0.089
27.430,0.080
27.435,0.076
27.440,0.073
27.445,0.063
27.450,0.051
27.455,0.044
27.460,0.039
27.465,0.034
27.470,0.029
27.475,0.020
27.480,0.012
27.485,0.007
27.490,-0.003
27.495,-0.010
27.500,-0.013
27.505,-0.017
27.510,-0.023
27.515,-0.028
27.520,-0.033
27.525,-0.039
27.530,-0.042
27.535,-0.042
27.540,-0.044
27.545,-0.046
27.550,-0.043
27.555,-0.037
27.560,-0.036
27.565,-0.035
27.570,-0.029
27.575,-0.027
27.580,-0.027
27.585,-0.020
27.590,-0.016
27.595,-0.019
27.600,-0.022
27.605,-0.026
27.610,-0.031
27.615,-0.029
27.620,-0.027
27.625,-0.032
27.630,-0.034
27.635,-0.034
27.640,-0.039
27.645,-0.044
27.650,-0.044
27.655,-0.043
27.660,-0.042
27.665,-0.038
27.670,-0.032
27.675,-0.027
27.680,-0.018
27.685,-0.010
27.690,-0.005
27.695,0.002
27.700,0.011
27.705,0.018
27.710,0.020
27.715,0.022
27.720,0.027
27.725,0.028
27.730,0.026
27.735,0.028
27.740,0.028
27.745,0.024
27.750,0.021
27.755,0.018
27.760,0.017
27.765,0.016
27.770,0.017
27.775,0.014
27.780,0.009
27.785,0.005
27.790,0.001
27.795,-0.005
27.800,-0.008
27.805,-0.008
27.810,-0.010
27.815,-0.010
27.820,-0.009
27.825,-0.012
27.830,-0.013
27.835,-0.008
27.840,-0.007
27.845,-0.009
27.850,-0.007
27.855,-0.007
27.860,-0.009
27.865,-0.009
27.870,-0.007
27.875,-0.006
27.880,-0.006
27.885,-0.003
27.890,0.001
27.895,0.002
27.900,0.002
27.905,0.002
27.910,0.003
27.915,0.004
27.920,0.005
27.925,0.003
27.930,0.000
27.935,0.003
27.940,0.007
27.945,0.005
27.950,0.007
27.955,0.012
27.960,0.009
27.965,0.007
27.970,0.011
27.975,0.007
27.980,0.002
27.985,0.003
27.990,0.005
27.995,0.005
28.000,0.008
28.005,0.009
28.010,0.006
28.015,0.003
28.020,0.002
28.025,0.000
28.030,-0.001
28.035,0.001
28.040,0.004
28.045,0.002
28.050,0.001
28.055,0.001
28.060,-0.002
28.065,-0.003
28.070,-0.003
28.075,-0.006
28.080,-0.009
28.085,-0.009
28.090,-0.011
28.095,-0.012
28.100,-0.008
28.105,-0.006
28.110,-0.009
28.115,-0.010
28.120,-0.010
28.125,-0.012
28.130,-0.011
28.135,-0.009
28.140,-0.011
28.145,-0.016
28.150,-0.016
28.155,-0.015
28.160,-0.017
28.165,-0.018
28.170,-0.015
28.175,-0.012
28.180,-0.012
28.185,-0.010
28.190,-0.010
28.195,-0.015
28.200,-0.017
28.205,-0.016
28.210,-0.016
28.215,-0.018
28.220,-0.018
28.225,-0.018
28.230,-0.017
28.235,-0.016
28.240,-0.014
28.245,-0.015
28.250,-0.015
28.255,-0.014
28.260,-0.017
28.265,-0.017
28.270,-0.015
28.275,-0.017
28.280,-0.018
28.285,-0.015
28.290,-0.014
28.295,-0.016
28.300,-0.014
28.305,-0.011
28.310,-0.013
28.315,-0.011
28.320,-0.009
28.325,-0.010
28.330,-0.012
28.335,-0.011
28.340,-0.010
28.345,-0.012
28.350,-0.012
28.355,-0.012
28.360,-0.013
28.365,-0.010
28.370,-0.008
28.375,-0.010
28.380,-0.009
28.385,-0.007
28.390,-0.006
28.395,-0.009
28.400,-0.009
28.405,-0.006
28.410,-0.009
28.415,-0.010
28.420,-0.008
28.425,-0.006
28.430,-0.008
28.435,-0.005
28.440,-0.003
28.445,-0.006
28.450,-0.002
28.455,0.000
28.460,-0.002
28.465,-0.003
28.470,-0.003
28.475,-0.005
28.480,-0.008
28.485,-0.009
28.490,-0.011
28.495,-0.014
28.500,-0.022
28.505,-0.035
28.510,-0.046
28.515,-0.053
28.520,-0.058
28.525,-0.062
28.530,-0.063
28.535,-0.056
28.540,-0.042
28.545,-0.030
28.550,-0.020
28.555,-0.014
28.560,-0.023
28.565,-0.031
28.570,-0.013
28.575,0.016
28.580,0.032
28.585,0.038
28.590,0.041
28.595,0.041
28.600,0.040
28.605,0.041
28.610,0.038
28.615,0.035
28.620,0.041
28.625,0.049
28.630,0.051
28.635,0.054
28.640,0.059
28.645,0.059
28.650,0.054
28.655,0.047
28.660,0.040
28.665,0.034
28.670,0.028
28.675,0.025
28.680,0.021
28.685,0.004
28.690,-0.038
28.695,-0.129
28.700,-0.308
28.705,-0.581
28.710,-0.921
28.715,-1.228
28.720,-1.322
28.725,-1.076
28.730,-0.619
28.735,-0.176
28.740,0.203
28.745,0.452
28.750,0.527
28.755,0.489
28.760,0.406
28.765,0.344
28.770,0.318
28.775,0.311
28.780,0.305
28.785,0.300
28.790,0.291
28.795,0.278
28.800,0.267
28.805,0.255
28.810,0.241
28.815,0.229
28.820,0.221
28.825,0.209
28.830,0.196
28.835,0.189
28.840,0.180
28.845,0.166
28.850,0.157
28.855,0.148
28.860,0.137
28.865,0.129
28.870,0.122
28.875,0.110
28.880,0.098
28.885,0.092
28.890,0.085
28.895,0.076
28.900,0.068
28.905,0.062
28.910,0.053
28.915,0.044
28.920,0.038
28.925,0.030
28.930,0.022
28.935,0.017
28.940,0.010
28.945,-0.001
28.950,-0.007
28.955,-0.011
28.960,-0.020
28.965,-0.025
28.970,-0.029
28.975,-0.036
28.980,-0.040
28.985,-0.040
28.990,-0.044
28.995,-0.049
29.000,-0.049
29.005,-0.048
29.010,-0.050
29.015,-0.049
29.020,-0.042
29.025,-0.038
29.030,-0.036
29.035,-0.031
29.040,-0.029
29.045,-0.031
29.050,-0.029
29.055,-0.027
29.060,-0.027
29.065,-0.025
29.070,-0.025
29.075,-0.028
29.080,-0.031
29.085,-0.032
29.090,-0.033
29.095,-0.036
29.100,-0.039
29.105,-0.041
29.110,-0.040
29.115,-0.035
29.120,-0.029
29.125,-0.027
29.130,-0.027
29.135,-0.022
29.140,-0.011
29.145,-0.002
29.150,0.006
29.155,0.015
29.160,0.021
29.165,0.023
29.170,0.024
29.175,0.027
29.180,0.030
29.185,0.033
29.190,0.033
29.195,0.029
29.200,0.029
29.205,0.032
29.210,0.029
29.215,0.023
29.220,0.019
29.225,0.018
29.230,0.018
29.235,0.015
29.240,0.007
29.245,0.005
29.250,0.011
29.255,0.011
29.260,0.004
29.265,-0.001
29.270,-0.003
29.275,0.000
29.280,0.004
29.285,0.005
29.290,-0.003
29.295,-0.009
29.300,0.000
29.305,0.003
29.310,-0.007
29.315,-0.008
29.320,-0.001
29.325,0.001
29.330,0.004
29.335,0.010
29.340,0.005
29.345,-0.004
29.350,0.001
29.355,0.007
29.360,0.005
29.365,0.006
29.370,0.009
29.375,0.013
29.380,0.016
29.385,0.016
29.390,0.011
29.395,0.004
29.400,0.006
29.405,0.016
29.410,0.017
29.415,0.005
29.420,-0.005
29.425,-0.003
29.430,0.005
29.435,0.013
29.440,0.013
29.445,0.009
29.450,0.007
29.455,0.005
29.460,0.004
29.465,0.003
29.470,0.003
29.475,0.001
29.480,-0.004
29.485,-0.008
29.490,-0.008
29.495,-0.004
29.500,0.005
29.505,0.010
29.510,0.004
29.515,-0.003
29.520,-0.004
29.525,-0.010
29.530,-0.016
29.535,-0.015
29.540,-0.018
29.545,-0.019
29.550,-0.013
29.555,-0.010
29.560,-0.010
29.565,-0.009
29.570,-0.008
29.575,-0.011
29.580,-0.013
29.585,-0.017
29.590,-0.020
29.595,-0.019
29.600,-0.012
29.605,-0.007
29.610,-0.014
29.615,-0.021
29.620,-0.021
29.625,-0.017
29.630,-0.012
29.635,-0.011
29.640,-0.013
29.645,-0.020
29.650,-0.025
29.655,-0.026
29.660,-0.023
29.665,-0.016
29.670,-0.015
29.675,-0.016
29.680,-0.018
29.685,-0.016
29.690,-0.014
29.695,-0.018
29.700,-0.019
29.705,-0.016
29.710,-0.017
29.715,-0.019
29.720,-0.019
29.725,-0.023
29.730,-0.028
29.735,-0.025
29.740,-0.017
29.745,-0.012
29.750,-0.013
29.755,-0.017
29.760,-0.014
29.765,-0.008
29.770,-0.009
29.775,-0.011
29.780,-0.012
29.785,-0.013
29.790,-0.014
29.795,-0.017
29.800,-0.019
29.805,-0.019
29.810,-0.013
29.815,-0.006
29.820,-0.011
29.825,-0.023
29.830,-0.017
29.835,-0.004
29.840,-0.002
29.845,0.000
29.850,-0.001
29.855,-0.009
29.860,-0.014
29.865,-0.018
29.870,-0.017
29.875,-0.015
29.880,-0.010
29.885,-0.001
29.890,0.007
29.895,0.008
29.900,0.002
29.905,0.000
29.910,-0.007
29.915,-0.020
29.920,-0.017
29.925,-0.009
29.930,-0.011
29.935,-0.007
29.940,-0.007
29.945,-0.025
29.950,-0.039
29.955,-0.047
29.960,-0.054
29.965,-0.057
29.970,-0.059
29.975,-0.056
29.980,-0.050
29.985,-0.040
29.990,-0.028
29.995,-0.030
30.000,-0.031
30.005,-0.031
30.010,-0.044
30.015,-0.041
30.020,-0.003
30.025,0.024
30.030,0.029
30.035,0.040
30.040,0.042
30.045,0.031
30.050,0.030
30.055,0.029
30.060,0.028
30.065,0.037
30.070,0.045
30.075,0.044
30.080,0.041
30.085,0.054
30.090,0.068
30.095,0.056
30.100,0.039
30.105,0.043
30.110,0.050
30.115,0.038
30.120,0.028
30.125,0.028
30.130,0.014
30.135,-0.005
30.140,-0.075
30.145,-0.267
30.150,-0.558
30.155,-0.907
30.160,-1.232
30.165,-1.338
30.170,-1.061
30.175,-0.552
30.180,-0.091
30.185,0.270
30.190,0.521
30.195,0.610
30.200,0.541
30.205,0.410
30.210,0.320
30.215,0.287
30.220,0.285
30.225,0.283
30.230,0.274
30.235,0.264
30.240,0.255
30.245,0.239
30.250,0.215
30.255,0.200
30.260,0.196
30.265,0.194
30.270,0.191
30.275,0.182
30.280,0.172
30.285,0.161
30.290,0.144
30.295,0.133
30.300,0.128
30.305,0.122
30.310,0.111
30.315,0.099
30.320,0.094
30.325,0.092
30.330,0.087
30.335,0.077
30.340,0.064
30.345,0.057
30.350,0.051
30.355,0.038
30.360,0.026
30.365,0.019
30.370,0.014
30.375,0.018
30.380,0.019
30.385,0.016
30.390,0.011
30.395,0.002
30.400,-0.002
30.405,-0.010
30.410,-0.025
30.415,-0.030
30.420,-0.025
30.425,-0.021
30.430,-0.025
30.435,-0.026
30.440,-0.024
30.445,-0.025
30.450,-0.019
30.455,-0.011
30.460,-0.013
30.465,-0.009
30.470,0.002
30.475,0.002
30.480,-0.001
30.485,-0.001
30.490,0.007
30.495,0.014
30.500,0.007
30.505,0.004
30.510,-0.004
30.515,-0.022
30.520,-0.022
30.525,-0.015
30.530,-0.025
30.535,-0.042
30.540,-0.042
30.545,-0.037
30.550,-0.042
30.555,-0.049
30.560,-0.055
30.565,-0.056
30.570,-0.050
30.575,-0.052
30.580,-0.046
30.585,-0.031
30.590,-0.026
30.595,-0.019
30.600,-0.007
30.605,-0.001
30.610,0.011
30.615,0.021
30.620,0.011
30.625,0.004
30.630,0.004
30.635,0.005
30.640,0.009
30.645,0.008
30.650,-0.001
30.655,-0.005
30.660,-0.007
30.665,-0.005
30.670,0.009
30.675,0.014
30.680,-0.001
30.685,-0.013
30.690,-0.014
30.695,-0.009
30.700,-0.006
30.705,-0.004
30.710,-0.004
30.715,-0.015
30.720,-0.027
30.725,-0.025
30.730,-0.017
30.735,-0.008
30.740,-0.009
30.745,-0.024
30.750,-0.024
30.755,-0.010
30.760,-0.009
30.765,-0.011
30.770,-0.004
30.775,-0.002
30.780,-0.005
30.785,-0.004
30.790,0.003
30.795,0.003
30.800,0.001
30.805,-0.004
30.810,-0.005
30.815,0.007
30.820,0.011
30.825,0.010
30.830,0.014
30.835,0.016
30.840,0.010
30.845,0.001
30.850,0.007
30.855,0.022
30.860,0.031
30.865,0.031
30.870,0.022
30.875,0.007
30.880,-0.005
30.885,0.007
30.890,0.021
30.895,0.008
30.900,-0.004
30.905,-0.002
30.910,0.007
30.915,0.022
30.920,0.030
30.925,0.020
30.930,0.008
30.935,0.009
30.940,0.007
30.945,-0.002
30.950,-0.007
30.955,-0.010
30.960,-0.004
30.965,0.006
30.970,0.004
30.975,-0.001
30.980,0.001
30.985,0.010
30.990,0.013
30.995,-0.002
31.000,-0.018
31.005,-0.023
31.010,-0.011
31.015,0.003
31.020,0.007
31.025,0.005
31.030,-0.008
31.035,-0.009
31.040,-0.007
31.045,-0.019
31.050,-0.014
31.055,-0.004
31.060,-0.010
31.065,-0.014
31.070,-0.011
31.075,-0.004
31.080,-0.011
31.085,-0.018
31.090,-0.014
31.095,-0.017
31.100,-0.023
31.105,-0.015
31.110,-0.008
31.115,-0.012
31.120,-0.003
31.125,-0.001
31.130,-0.013
31.135,-0.009
31.140,-0.006
31.145,-0.013
31.150,-0.013
31.155,-0.019
31.160,-0.020
31.165,-0.014
31.170,-0.017
31.175,-0.027
31.180,-0.033
31.185,-0.017
31.190,0.005
31.195,0.007
31.200,-0.003
31.205,-0.015
31.210,-0.017
31.215,-0.010
31.220,-0.006
31.225,-0.019
31.230,-0.039
31.235,-0.036
31.240,-0.011
31.245,0.005
31.250,-0.008
31.255,-0.022
31.260,-0.014
31.265,-0.006
31.270,-0.007
31.275,-0.012
31.280,-0.021
31.285,-0.010
31.290,0.002
31.295,-0.012
31.300,-0.024
31.305,-0.013
31.310,0.004
31.315,0.007
31.320,-0.008
31.325,-0.025
31.330,-0.022
31.335,-0.004
31.340,-0.002
31.345,-0.016
31.350,-0.016
31.355,-0.009
31.360,-0.017
31.365,-0.035
31.370,-0.040
31.375,-0.034
31.380,-0.043
31.385,-0.056
31.390,-0.064
31.395,-0.071
31.400,-0.057
31.405,-0.032
31.410,-0.031
31.415,-0.038
31.420,-0.047
31.425,-0.049
31.430,-0.020
31.435,0.016
31.440,0.036
31.445,0.038
31.450,0.027
31.455,0.014
31.460,0.017
31.465,0.043
31.470,0.046
31.475,0.020
31.480,0.026
31.485,0.042
31.490,0.037
31.495,0.039
31.500,0.054
31.505,0.065
31.510,0.056
31.515,0.046
31.520,0.040
31.525,0.030
31.530,0.024
31.535,0.019
31.540,0.024
31.545,0.021
31.550,-0.012
31.555,-0.114
31.560,-0.335
31.565,-0.640
31.570,-0.993
31.575,-1.298
31.580,-1.360
31.585,-1.054
31.590,-0.524
31.595,-0.023
31.600,0.357
31.605,0.571
31.610,0.610
31.615,0.520
31.620,0.406
31.625,0.336
31.630,0.289
31.635,0.281
31.640,0.292
31.645,0.283
31.650,0.274
31.655,0.267
31.660,0.242
31.665,0.225
31.670,0.225
31.675,0.210
31.680,0.186
31.685,0.181
31.690,0.189
31.695,0.186
31.700,0.169
31.705,0.158
31.710,0.149
31.715,0.130
31.720,0.118
31.725,0.105
31.730,0.098
31.735,0.104
31.740,0.099
31.745,0.091
31.750,0.090
31.755,0.085
31.760,0.069
31.765,0.050
31.770,0.039
31.775,0.038
31.780,0.038
31.785,0.031
31.790,0.010
31.795,-0.008
31.800,0.010
31.805,0.031
31.810,0.014
31.815,-0.011
31.820,-0.013
31.825,-0.015
31.830,-0.024
31.835,-0.036
31.840,-0.037
31.845,-0.027
31.850,-0.028
31.855,-0.032
31.860,-0.028
31.865,-0.019
31.870,-0.013
31.875,-0.012
31.880,-0.014
31.885,-0.020
31.890,-0.016
31.895,-0.007
31.900,-0.006
31.905,-0.001
31.910,0.002
31.915,-0.003
31.920,-0.001
31.925,0.000
31.930,0.007
31.935,0.011
31.940,-0.018
31.945,-0.041
31.950,-0.033
31.955,-0.030
31.960,-0.034
31.965,-0.039
31.970,-0.049
31.975,-0.047
31.980,-0.045
31.985,-0.044
31.990,-0.030
31.995,-0.023
32.000,-0.026
32.005,-0.017
32.010,-0.007
32.015,0.003
32.020,0.012
32.025,0.006
32.030,-0.006
32.035,0.002
32.040,0.011
32.045,0.009
32.050,0.024
32.055,0.027
32.060,0.015
32.065,0.012
32.070,0.005
32.075,-0.007
32.080,-0.029
32.085,-0.035
32.090,-0.003
32.095,0.016
32.100,0.011
32.105,0.000
32.110,-0.027
32.115,-0.038
32.120,-0.023
32.125,-0.036
32.130,-0.046
32.135,-0.023
32.140,-0.021
32.145,-0.024
32.150,-0.013
32.155,-0.016
32.160,-0.034
32.165,-0.040
32.170,-0.028
32.175,-0.016
32.180,-0.020
32.185,-0.033
32.190,-0.027
32.195,-0.015
32.200,-0.023
32.205,-0.023
32.210,-0.010
32.215,-0.009
32.220,-0.012
32.225,-0.003
32.230,0.009
32.235,0.011
32.240,-0.002
32.245,-0.010
32.250,0.003
32.255,0.009
32.260,-0.002
32.265,-0.006
32.270,0.008
32.275,0.038
32.280,0.041
32.285,0.021
32.290,0.019
32.295,0.013
32.300,-0.002
32.305,0.000
32.310,0.006
32.315,0.012
32.320,0.017
32.325,0.016
32.330,0.011
32.335,0.012
32.340,0.014
32.345,0.008
32.350,0.005
32.355,0.017
32.360,0.018
32.365,0.007
32.370,0.006
32.375,0.003
32.380,-0.002
32.385,0.012
32.390,0.020
32.395,-0.001
32.400,-0.014
32.405,0.001
32.410,0.001
32.415,-0.015
32.420,-0.007
32.425,0.005
32.430,0.001
32.435,0.004
32.440,0.011
32.445,-0.010
32.450,-0.022
32.455,-0.005
32.460,0.002
32.465,-0.007
32.470,-0.004
32.475,0.010
32.480,0.008
32.485,-0.012
32.490,-0.027
32.495,-0.026
32.500,-0.010
32.505,0.000
32.510,-0.002
32.515,-0.003
32.520,-0.003
32.525,-0.008
32.530,-0.016
32.535,-0.024
32.540,-0.009
32.545,0.004
32.550,-0.010
32.555,-0.020
32.560,-0.019
32.565,-0.013
32.570,-0.003
32.575,-0.001
32.580,0.000
32.585,-0.001
32.590,-0.009
32.595,-0.023
32.600,-0.035
32.605,-0.024
32.610,0.001
32.615,0.006
32.620,-0.007
32.625,-0.017
32.630,-0.014
32.635,0.001
32.640,0.000
32.645,-0.008
32.650,-0.008
32.655,-0.011
32.660,-0.019
32.665,-0.023
32.670,-0.016
32.675,-0.007
32.680,-0.006
32.685,-0.007
32.690,-0.004
32.695,-0.006
32.700,-0.008
32.705,-0.008
32.710,-0.016
32.715,-0.024
32.720,-0.021
32.725,-0.001
32.730,0.010
32.735,-0.005
32.740,-0.009
32.745,0.001
32.750,0.000
32.755,-0.011
32.760,-0.017
32.765,-0.009
32.770,0.000
32.775,-0.006
32.780,-0.020
32.785,-0.030
32.790,-0.035
32.795,-0.041
32.800,-0.048
32.805,-0.054
32.810,-0.062
32.815,-0.061
32.820,-0.057
32.825,-0.048
32.830,-0.029
32.835,-0.027
32.840,-0.030
32.845,-0.034
32.850,-0.044
32.855,-0.027
32.860,0.008
32.865,0.021
32.870,0.030
32.875,0.038
32.880,0.027
32.885,0.019
32.890,0.025
32.895,0.021
32.900,0.014
32.905,0.026
32.910,0.042
32.915,0.046
32.920,0.045
32.925,0.052
32.930,0.058
32.935,0.053
32.940,0.046
32.945,0.045
32.950,0.049
32.955,0.042
32.960,0.025
32.965,0.009
32.970,-0.016
32.975,-0.065
32.980,-0.184
32.985,-0.409
32.990,-0.723
32.995,-1.075
33.000,-1.328
33.005,-1.290
33.010,-0.917
33.015,-0.409
33.020,0.056
33.025,0.405
33.030,0.573
33.035,0.583
33.040,0.496
33.045,0.388
33.050,0.328
33.055,0.306
33.060,0.297
33.065,0.295
33.070,0.289
33.075,0.275
33.080,0.263
33.085,0.259
33.090,0.246
33.095,0.224
33.100,0.216
33.105,0.214
33.110,0.205
33.115,0.185
33.120,0.171
33.125,0.172
33.130,0.164
33.135,0.150
33.140,0.141
33.145,0.126
33.150,0.114
33.155,0.111
33.160,0.104
33.165,0.093
33.170,0.089
33.175,0.089
33.180,0.079
33.185,0.069
33.190,0.067
33.195,0.056
33.200,0.041
33.205,0.037
33.210,0.029
33.215,0.015
33.220,0.007
33.225,-0.002
33.230,-0.014
33.235,-0.013
33.240,-0.007
33.245,-0.015
33.250,-0.024
33.255,-0.026
33.260,-0.021
33.265,-0.011
33.270,-0.015
33.275,-0.036
33.280,-0.050
33.285,-0.045
33.290,-0.036
33.295,-0.033
33.300,-0.033
33.305,-0.032
33.310,-0.027
33.315,-0.017
33.320,-0.010
33.325,-0.012
33.330,-0.013
33.335,-0.010
33.340,0.001
33.345,0.008
33.350,0.002
33.355,-0.010
33.360,-0.022
33.365,-0.032
33.370,-0.037
33.375,-0.043
33.380,-0.048
33.385,-0.049
33.390,-0.042
33.395,-0.037
33.400,-0.038
33.405,-0.038
33.410,-0.038
33.415,-0.026
33.420,-0.016
33.425,-0.016
33.430,-0.015
33.435,-0.012
33.440,-0.009
33.445,-0.005
33.450,0.010
33.455,0.017
33.460,0.010
33.465,0.013
33.470,0.019
33.475,0.016
33.480,0.011
33.485,0.013
33.490,0.022
33.495,0.020
33.500,0.010
33.505,0.002
33.510,-0.004
33.515,-0.005
33.520,-0.005
33.525,-0.010
33.530,-0.016
33.535,-0.011
33.540,-0.005
33.545,-0.009
33.550,-0.013
33.555,-0.013
33.560,-0.019
33.565,-0.026
33.570,-0.022
33.575,-0.016
33.580,-0.021
33.585,-0.025
33.590,-0.026
33.595,-0.030
33.600,-0.024
33.605,-0.016
33.610,-0.018
33.615,-0.016
33.620,-0.004
33.625,0.000
33.630,-0.009
33.635,-0.013
33.640,-0.010
33.645,-0.012
33.650,-0.009
33.655,0.002
33.660,0.004
33.665,-0.001
33.670,-0.001
33.675,0.003
33.680,0.007
33.685,0.009
33.690,0.011
33.695,0.011
33.700,0.011
33.705,0.014
33.710,0.012
33.715,0.009
33.720,0.015
33.725,0.019
33.730,0.016
33.735,0.011
33.740,0.011
33.745,0.012
33.750,0.017
33.755,0.017
33.760,0.007
33.765,0.002
33.770,0.006
33.775,0.006
33.780,-0.001
33.785,0.002
33.790,0.005
33.795,0.000
33.800,0.004
33.805,0.012
33.810,0.014
33.815,0.011
33.820,0.007
33.825,-0.001
33.830,-0.008
33.835,-0.003
33.840,0.001
33.845,-0.001
33.850,-0.001
33.855,0.000
33.860,-0.007
33.865,-0.013
33.870,-0.011
33.875,-0.010
33.880,-0.012
33.885,-0.007
33.890,0.000
33.895,-0.006
33.900,-0.015
33.905,-0.015
33.910,-0.009
33.915,-0.004
33.920,-0.002
33.925,-0.001
33.930,-0.002
33.935,-0.003
33.940,-0.008
33.945,-0.019
33.950,-0.023
33.955,-0.019
33.960,-0.017
33.965,-0.018
33.970,-0.019
33.975,-0.018
33.980,-0.012
33.985,-0.005
33.990,-0.007
33.995,-0.017
34.000,-0.019
34.005,-0.014
34.010,-0.013
34.015,-0.013
34.020,-0.015
34.025,-0.019
34.030,-0.017
34.035,-0.014
34.040,-0.012
34.045,-0.016
34.050,-0.018
34.055,-0.008
34.060,-0.010
34.065,-0.017
34.070,-0.015
34.075,-0.013
34.080,-0.010
34.085,-0.007
34.090,-0.007
34.095,-0.010
34.100,-0.010
34.105,-0.009
34.110,-0.009
34.115,-0.010
34.120,-0.011
34.125,-0.010
34.130,-0.008
34.135,-0.005
34.140,-0.006
34.145,-0.014
34.150,-0.019
34.155,-0.017
34.160,-0.010
34.165,-0.008
34.170,-0.009
34.175,-0.006
34.180,-0.003
34.185,-0.005
34.190,-0.005
34.195,-0.007
34.200,-0.004
34.205,0.004
34.210,0.002
34.215,-0.011
34.220,-0.022
34.225,-0.032
34.230,-0.044
34.235,-0.053
34.240,-0.062
34.245,-0.068
34.250,-0.066
34.255,-0.058
34.260,-0.053
34.265,-0.042
34.270,-0.025
34.275,-0.017
34.280,-0.020
34.285,-0.032
34.290,-0.035
34.295,-0.014
34.300,0.013
34.305,0.026
34.310,0.029
34.315,0.036
34.320,0.043
34.325,0.042
34.330,0.036
34.335,0.029
34.340,0.032
34.345,0.040
34.350,0.038
34.355,0.037
34.360,0.045
34.365,0.050
34.370,0.053
34.375,0.048
34.380,0.042
34.385,0.042
34.390,0.036
34.395,0.026
34.400,0.027
34.405,0.024
34.410,-0.007
34.415,-0.081
34.420,-0.230
34.425,-0.472
34.430,-0.795
34.435,-1.134
34.440,-1.343
34.445,-1.249
34.450,-0.855
34.455,-0.378
34.460,0.067
34.465,0.420
34.470,0.583
34.475,0.569
34.480,0.465
34.485,0.381
34.490,0.347
34.495,0.326
34.500,0.316
34.505,0.307
34.510,0.297
34.515,0.284
34.520,0.273
34.525,0.266
34.530,0.255
34.535,0.245
34.540,0.233
34.545,0.217
34.550,0.205
34.555,0.194
34.560,0.179
34.565,0.161
34.570,0.156
34.575,0.158
34.580,0.155
34.585,0.145
34.590,0.129
34.595,0.114
34.600,0.107
34.605,0.104
34.610,0.095
34.615,0.085
34.620,0.083
34.625,0.075
34.630,0.057
34.635,0.043
34.640,0.038
34.645,0.033
34.650,0.030
34.655,0.027
34.660,0.020
34.665,0.012
34.670,0.005
34.675,-0.005
34.680,-0.015
34.685,-0.018
34.690,-0.024
34.695,-0.036
34.700,-0.042
34.705,-0.038
34.710,-0.037
34.715,-0.039
34.720,-0.040
34.725,-0.040
34.730,-0.042
34.735,-0.040
34.740,-0.033
34.745,-0.030
34.750,-0.033
34.755,-0.034
34.760,-0.031
34.765,-0.028
34.770,-0.020
34.775,-0.015
34.780,-0.015
34.785,-0.012
34.790,-0.013
34.795,-0.020
34.800,-0.023
34.805,-0.024
34.810,-0.030
34.815,-0.041
34.820,-0.047
34.825,-0.048
34.830,-0.046
34.835,-0.037
34.840,-0.034
34.845,-0.035
34.850,-0.033
34.855,-0.026
34.860,-0.022
34.865,-0.017
34.870,-0.009
34.875,-0.007
34.880,-0.007
34.885,0.003
34.890,0.012
34.895,0.010
34.900,0.010
34.905,0.015
34.910,0.018
34.915,0.021
34.920,0.023
34.925,0.021
34.930,0.016
34.935,0.013
34.940,0.014
34.945,0.009
34.950,-0.001
34.955,-0.005
34.960,-0.009
34.965,-0.015
34.970,-0.012
34.975,-0.005
34.980,-0.003
34.985,-0.001
34.990,-0.001
34.995,-0.007
35.000,-0.012
35.005,-0.012
35.010,-0.014
35.015,-0.013
35.020,-0.009
35.025,-0.009
35.030,-0.009
35.035,-0.007
35.040,-0.003
35.045,-0.001
35.050,-0.003
35.055,-0.002
35.060,0.000
35.065,0.000
35.070,-0.002
35.075,-0.001
35.080,0.001
35.085,0.005
35.090,0.009
35.095,0.008
35.100,0.008
35.105,0.007
35.110,0.004
35.115,0.004
35.120,0.009
35.125,0.011
35.130,0.006
35.135,0.005
35.140,0.009
35.145,0.009
35.150,0.005
35.155,0.003
35.160,0.005
35.165,0.009
35.170,0.014
35.175,0.014
35.180,0.010
35.185,0.009
35.190,0.008
35.195,0.001
35.200,0.000
35.205,0.003
35.210,-0.001
35.215,-0.003
35.220,0.003
35.225,0.006
35.230,0.003
35.235,-0.002
35.240,-0.006
35.245,-0.007
35.250,-0.003
35.255,0.003
35.260,-0.001
35.265,-0.005
35.270,-0.003
35.275,-0.005
35.280,-0.009
35.285,-0.007
35.290,-0.005
35.295,-0.010
35.300,-0.010
35.305,-0.009
35.310,-0.014
35.315,-0.019
35.320,-0.018
35.325,-0.017
35.330,-0.017
35.335,-0.014
35.340,-0.010
35.345,-0.012
35.350,-0.015
35.355,-0.015
35.360,-0.014
35.365,-0.013
35.370,-0.013
35.375,-0.016
35.380,-0.023
35.385,-0.024
35.390,-0.015
35.395,-0.012
35.400,-0.011
35.405,-0.007
35.410,-0.008
35.415,-0.013
35.420,-0.012
35.425,-0.012
35.430,-0.018
35.435,-0.020
35.440,-0.018
35.445,-0.017
35.450,-0.016
35.455,-0.012
35.460,-0.011
35.465,-0.013
35.470,-0.011
35.475,-0.011
35.480,-0.014
35.485,-0.013
35.490,-0.013
35.495,-0.017
35.500,-0.017
35.505,-0.016
35.510,-0.015
35.515,-0.014
35.520,-0.011
35.525,-0.009
35.530,-0.010
35.535,-0.008
35.540,-0.006
35.545,-0.012
35.550,-0.015
35.555,-0.011
35.560,-0.014
35.565,-0.015
35.570,-0.012
35.575,-0.014
35.580,-0.013
35.585,-0.008
35.590,-0.003
35.595,-0.004
35.600,-0.010
35.605,-0.007
35.610,-0.003
35.615,-0.001
35.620,0.002
35.625,0.001
35.630,-0.005
35.635,-0.010
35.640,-0.014
35.645,-0.018
35.650,-0.017
35.655,-0.017
35.660,-0.028
35.665,-0.044
35.670,-0.050
35.675,-0.054
35.680,-0.061
35.685,-0.061
35.690,-0.060
35.695,-0.055
35.700,-0.044
35.705,-0.033
35.710,-0.027
35.715,-0.028
35.720,-0.032
35.725,-0.022
35.730,0.005
35.735,0.027
35.740,0.037
35.745,0.035
35.750,0.034
35.755,0.037
35.760,0.035
35.765,0.030
35.770,0.030
35.775,0.036
35.780,0.040
35.785,0.044
35.790,0.049
35.795,0.054
35.800,0.060
35.805,0.055
35.810,0.042
35.815,0.035
35.820,0.037
35.825,0.035
35.830,0.030
35.835,0.029
35.840,0.015
35.845,-0.024
35.850,-0.111
35.855,-0.289
35.860,-0.556
35.865,-0.893
35.870,-1.217
35.875,-1.358
35.880,-1.164
35.885,-0.715
35.890,-0.240
35.895,0.174
35.900,0.467
35.905,0.579
35.910,0.542
35.915,0.438
35.920,0.363
35.925,0.328
35.930,0.312
35.935,0.307
35.940,0.299
35.945,0.288
35.950,0.278
35.955,0.270
35.960,0.258
35.965,0.244
35.970,0.233
35.975,0.226
35.980,0.214
35.985,0.202
35.990,0.194
35.995,0.182
36.000,0.172
36.005,0.166
36.010,0.154
36.015,0.141
36.020,0.134
36.025,0.124
36.030,0.113
36.035,0.106
36.040,0.099
36.045,0.090
36.050,0.082
36.055,0.073
36.060,0.063
36.065,0.052
36.070,0.043
36.075,0.037
36.080,0.031
36.085,0.031
36.090,0.027
36.095,0.015
36.100,0.003
36.105,-0.003
36.110,-0.009
36.115,-0.021
36.120,-0.027
36.125,-0.028
36.130,-0.033
36.135,-0.038
36.140,-0.039
36.145,-0.041
36.150,-0.042
36.155,-0.041
36.160,-0.042
36.165,-0.044
36.170,-0.041
36.175,-0.037
36.180,-0.035
36.185,-0.031
36.190,-0.026
36.195,-0.023
36.200,-0.022
36.205,-0.017
36.210,-0.017
36.215,-0.020
36.220,-0.018
36.225,-0.015
36.230,-0.016
36.235,-0.020
36.240,-0.024
36.245,-0.030
36.250,-0.035
36.255,-0.037
36.260,-0.038
36.265,-0.040
36.270,-0.037
36.275,-0.032
36.280,-0.031
36.285,-0.032
36.290,-0.030
36.295,-0.027
36.300,-0.019
36.305,-0.008
36.310,0.001
36.315,0.006
36.320,0.012
36.325,0.019
36.330,0.021
36.335,0.020
36.340,0.021
36.345,0.020
36.350,0.019
36.355,0.019
36.360,0.019
36.365,0.015
36.370,0.013
36.375,0.013
36.380,0.009
36.385,0.007
36.390,0.007
36.395,0.003
36.400,-0.003
36.405,-0.006
36.410,-0.006
36.415,-0.009
36.420,-0.012
36.425,-0.012
36.430,-0.012
36.435,-0.012
36.440,-0.010
36.445,-0.008
36.450,-0.008
36.455,-0.006
36.460,-0.006
36.465,-0.009
36.470,-0.008
36.475,-0.006
36.480,-0.006
36.485,-0.005
36.490,0.000
36.495,0.002
36.500,0.002
36.505,0.004
36.510,0.002
36.515,0.000
36.520,0.005
36.525,0.008
36.530,0.008
36.535,0.008
36.540,0.009
36.545,0.007
36.550,0.007
36.555,0.010
36.560,0.010
36.565,0.007
36.570,0.006
36.575,0.006
36.580,0.007
36.585,0.006
36.590,0.007
36.595,0.007
36.600,0.008
36.605,0.009
36.610,0.007
36.615,0.005
36.620,0.007
36.625,0.006
36.630,0.003
36.635,0.002
36.640,0.003
36.645,0.003
36.650,0.004
36.655,0.006
36.660,0.005
36.665,0.002
36.670,-0.004
36.675,-0.008
36.680,-0.010
36.685,-0.010
36.690,-0.008
36.695,-0.007
36.700,-0.005
36.705,-0.003
36.710,-0.005
36.715,-0.007
36.720,-0.009
36.725,-0.010
36.730,-0.011
36.735,-0.008
36.740,-0.007
36.745,-0.012
36.750,-0.016
36.755,-0.012
36.760,-0.009
36.765,-0.011
36.770,-0.012
36.775,-0.014
36.780,-0.017
36.785,-0.018
36.790,-0.014
36.795,-0.013
36.800,-0.014
36.805,-0.011
36.810,-0.009
36.815,-0.010
36.820,-0.010
36.825,-0.013
36.830,-0.018
36.835,-0.018
36.840,-0.013
36.845,-0.014
36.850,-0.015
36.855,-0.012
36.860,-0.012
36.865,-0.013
36.870,-0.011
36.875,-0.010
36.880,-0.014
36.885,-0.019
36.890,-0.019
36.895,-0.019
36.900,-0.016
36.905,-0.009
36.910,-0.007
36.915,-0.013
36.920,-0.016
36.925,-0.011
36.930,-0.009
36.935,-0.012
36.940,-0.015
36.945,-0.015
36.950,-0.013
36.955,-0.010
36.960,-0.009
36.965,-0.012
36.970,-0.012
36.975,-0.009
36.980,-0.012
36.985,-0.009
36.990,-0.006
36.995,-0.008
37.000,-0.004
37.005,0.001
37.010,-0.007
37.015,-0.016
37.020,-0.016
37.025,-0.011
37.030,-0.012
37.035,-0.013
37.040,-0.010
37.045,-0.006
37.050,-0.006
37.055,-0.006
37.060,-0.008
37.065,-0.012
37.070,-0.011
37.075,-0.008
37.080,-0.012
37.085,-0.022
37.090,-0.029
37.095,-0.044
37.100,-0.057
37.105,-0.062
37.110,-0.067
37.115,-0.066
37.120,-0.055
37.125,-0.043
37.130,-0.034
37.135,-0.027
37.140,-0.021
37.145,-0.023
37.150,-0.033
37.155,-0.025
37.160,0.006
37.165,0.028
37.170,0.033
37.175,0.035
37.180,0.035
37.185,0.031
37.190,0.030
37.195,0.033
37.200,0.035
37.205,0.039
37.210,0.045
37.215,0.044
37.220,0.044
37.225,0.052
37.230,0.056
37.235,0.052
37.240,0.044
37.245,0.038
37.250,0.036
37.255,0.037
37.260,0.038
37.265,0.036
37.270,0.021
37.275,-0.011
37.280,-0.086
37.285,-0.248
37.290,-0.501
37.295,-0.827
37.300,-1.160
37.305,-1.341
37.310,-1.191
37.315,-0.756
37.320,-0.281
37.325,0.134
37.330,0.434
37.335,0.562
37.340,0.544
37.345,0.442
37.350,0.355
37.355,0.316
37.360,0.301
37.365,0.299
37.370,0.298
37.375,0.294
37.380,0.281
37.385,0.266
37.390,0.254
37.395,0.242
37.400,0.234
37.405,0.228
37.410,0.214
37.415,0.197
37.420,0.183
37.425,0.173
37.430,0.164
37.435,0.152
37.440,0.141
37.445,0.136
37.450,0.132
37.455,0.127
37.460,0.120
37.465,0.107
37.470,0.097
37.475,0.093
37.480,0.084
37.485,0.065
37.490,0.057
37.495,0.052
37.500,0.038
37.505,0.032
37.510,0.030
37.515,0.027
37.520,0.025
37.525,0.025
37.530,0.017
37.535,-0.002
37.540,-0.017
37.545,-0.021
37.550,-0.024
37.555,-0.029
37.560,-0.034
37.565,-0.036
37.570,-0.037
37.575,-0.042
37.580,-0.048
37.585,-0.042
37.590,-0.037
37.595,-0.040
37.600,-0.039
37.605,-0.036
37.610,-0.034
37.615,-0.031
37.620,-0.025
37.625,-0.021
37.630,-0.023
37.635,-0.026
37.640,-0.024
37.645,-0.022
37.650,-0.023
37.655,-0.025
37.660,-0.028
37.665,-0.030
37.670,-0.033
37.675,-0.039
37.680,-0.041
37.685,-0.041
37.690,-0.043
37.695,-0.047
37.700,-0.048
37.705,-0.039
37.710,-0.033
37.715,-0.032
37.720,-0.023
37.725,-0.011
37.730,-0.008
37.735,-0.004
37.740,0.003
37.745,0.008
37.750,0.013
37.755,0.020
37.760,0.022
37.765,0.023
37.770,0.027
37.775,0.029
37.780,0.027
37.785,0.025
37.790,0.024
37.795,0.023
37.800,0.021
37.805,0.020
37.810,0.017
37.815,0.014
37.820,0.011
37.825,0.005
37.830,0.003
37.835,0.001
37.840,-0.001
37.845,-0.004
37.850,-0.003
37.855,0.002
37.860,0.000
37.865,-0.005
37.870,-0.004
37.875,-0.002
37.880,-0.006
37.885,-0.008
37.890,-0.006
37.895,-0.005
37.900,-0.004
37.905,-0.001
37.910,0.000
37.915,-0.001
37.920,0.001
37.925,0.003
37.930,0.003
37.935,0.001
37.940,0.004
37.945,0.006
37.950,0.005
37.955,0.008
37.960,0.009
37.965,0.007
37.970,0.007
37.975,0.007
37.980,0.006
37.985,0.007
37.990,0.008
37.995,0.007
38.000,0.003
38.005,0.002
38.010,0.006
38.015,0.007
38.020,0.005
38.025,0.005
38.030,0.005
38.035,0.003
38.040,0.003
38.045,0.001
38.050,-0.001
38.055,0.003
38.060,0.004
38.065,0.001
38.070,0.000
38.075,-0.001
38.080,-0.004
38.085,-0.006
38.090,-0.006
38.095,-0.007
38.100,-0.008
38.105,-0.009
38.110,-0.008
38.115,-0.005
38.120,-0.005
38.125,-0.007
38.130,-0.009
38.135,-0.010
38.140,-0.011
38.145,-0.014
38.150,-0.017
38.155,-0.013
38.160,-0.010
38.165,-0.012
38.170,-0.014
38.175,-0.013
38.180,-0.016
38.185,-0.016
38.190,-0.012
38.195,-0.015
38.200,-0.018
38.205,-0.015
38.210,-0.015
38.215,-0.017
38.220,-0.017
38.225,-0.015
38.230,-0.016
38.235,-0.016
38.240,-0.015
38.245,-0.017
38.250,-0.018
38.255,-0.015
38.260,-0.012
38.265,-0.011
38.270,-0.011
38.275,-0.012
38.280,-0.013
38.285,-0.014
38.290,-0.013
38.295,-0.016
38.300,-0.017
38.305,-0.016
38.310,-0.015
38.315,-0.017
38.320,-0.015
38.325,-0.014
38.330,-0.016
38.335,-0.014
38.340,-0.010
38.345,-0.009
38.350,-0.012
38.355,-0.011
38.360,-0.010
38.365,-0.013
38.370,-0.012
38.375,-0.009
38.380,-0.010
38.385,-0.013
38.390,-0.011
38.395,-0.009
38.400,-0.010
38.405,-0.008
38.410,-0.007
38.415,-0.009
38.420,-0.011
38.425,-0.011
38.430,-0.010
38.435,-0.007
38.440,-0.003
38.445,-0.005
38.450,-0.007
38.455,-0.004
38.460,-0.004
38.465,-0.007
38.470,-0.004
38.475,-0.001
38.480,-0.003
38.485,-0.004
38.490,-0.004
38.495,-0.008
38.500,-0.013
38.505,-0.015
38.510,-0.016
38.515,-0.022
38.520,-0.031
38.525,-0.039
38.530,-0.047
38.535,-0.056
38.540,-0.058
38.545,-0.057
38.550,-0.056
38.555,-0.048
38.560,-0.032
38.565,-0.020
38.570,-0.017
38.575,-0.023
38.580,-0.033
38.585,-0.024
38.590,0.006
38.595,0.027
38.600,0.033
38.605,0.035
38.610,0.038
38.615,0.037
38.620,0.037
38.625,0.037
38.630,0.034
38.635,0.037
38.640,0.047
38.645,0.049
38.650,0.050
38.655,0.060
38.660,0.066
38.665,0.058
38.670,0.046
38.675,0.040
38.680,0.035
38.685,0.032
38.690,0.033
38.695,0.031
38.700,0.013
38.705,-0.022
38.710,-0.095
38.715,-0.256
38.720,-0.509
38.725,-0.835
38.730,-1.166
38.735,-1.336
38.740,-1.172
38.745,-0.739
38.750,-0.280
38.755,0.131
38.760,0.431
38.765,0.538
38.770,0.510
38.775,0.429
38.780,0.354
38.785,0.315
38.790,0.309
38.795,0.308
38.800,0.297
38.805,0.291
38.810,0.282
38.815,0.267
38.820,0.256
38.825,0.245
38.830,0.230
38.835,0.218
38.840,0.210
38.845,0.201
38.850,0.190
38.855,0.180
38.860,0.172
38.865,0.161
38.870,0.150
38.875,0.144
38.880,0.135
38.885,0.124
38.890,0.116
38.895,0.107
38.900,0.097
38.905,0.088
38.910,0.077
38.915,0.066
38.920,0.059
38.925,0.054
38.930,0.046
38.935,0.041
38.940,0.036
38.945,0.025
38.950,0.017
38.955,0.013
38.960,0.004
38.965,-0.005
38.970,-0.010
38.975,-0.014
38.980,-0.021
38.985,-0.026
38.990,-0.028
38.995,-0.032
39.000,-0.040
39.005,-0.044
39.010,-0.044
39.015,-0.046
39.020,-0.048
39.025,-0.045
39.030,-0.043
39.035,-0.042
39.040,-0.039
39.045,-0.037
39.050,-0.037
39.055,-0.032
39.060,-0.029
39.065,-0.029
39.070,-0.026
39.075,-0.023
39.080,-0.024
39.085,-0.024
39.090,-0.023
39.095,-0.027
39.100,-0.033
39.105,-0.035
39.110,-0.039
39.115,-0.046
39.120,-0.047
39.125,-0.041
39.130,-0.041
39.135,-0.040
39.140,-0.032
39.145,-0.028
39.150,-0.025
39.155,-0.017
39.160,-0.010
39.165,-0.002
39.170,0.008
39.175,0.016
39.180,0.018
39.185,0.022
39.190,0.027
39.195,0.027
39.200,0.025
39.205,0.027
39.210,0.029
39.215,0.027
39.220,0.025
39.225,0.023
39.230,0.019
39.235,0.017
39.240,0.015
39.245,0.008
39.250,0.001
39.255,0.004
39.260,0.010
39.265,0.009
39.270,0.006
39.275,0.008
39.280,0.007
39.285,0.005
39.290,0.001
39.295,-0.004
39.300,-0.005
39.305,-0.003
39.310,0.000
39.315,0.000
39.320,-0.002
39.325,-0.002
39.330,0.000
39.335,0.000
39.340,-0.001
39.345,-0.001
39.350,-0.001
39.355,0.001
39.360,0.004
39.365,0.006
39.370,0.005
39.375,0.001
39.380,0.001
39.385,0.006
39.390,0.014
39.395,0.014
39.400,0.008
39.405,0.002
39.410,-0.003
39.415,-0.003
39.420,0.001
39.425,0.004
39.430,0.002
39.435,-0.001
39.440,0.003
39.445,0.005
39.450,0.004
39.455,0.005
39.460,0.004
39.465,-0.002
39.470,-0.006
39.475,-0.007
39.480,-0.006
39.485,-0.005
39.490,-0.003
39.495,-0.001
39.500,-0.001
39.505,0.001
39.510,0.001
39.515,-0.003
39.520,-0.006
39.525,-0.007
39.530,-0.013
39.535,-0.017
39.540,-0.013
39.545,-0.014
39.550,-0.015
39.555,-0.009
39.560,-0.008
39.565,-0.012
39.570,-0.012
39.575,-0.010
39.580,-0.010
39.585,-0.008
39.590,-0.007
39.595,-0.011
39.600,-0.015
39.605,-0.018
39.610,-0.019
39.615,-0.022
39.620,-0.023
39.625,-0.017
39.630,-0.016
39.635,-0.018
39.640,-0.019
39.645,-0.020
39.650,-0.016
39.655,-0.008
39.660,-0.011
39.665,-0.020
39.670,-0.019
39.675,-0.013
39.680,-0.015
39.685,-0.018
39.690,-0.018
39.695,-0.018
39.700,-0.017
39.705,-0.018
39.710,-0.018
39.715,-0.014
39.720,-0.010
39.725,-0.008
39.730,-0.011
39.735,-0.017
39.740,-0.017
39.745,-0.017
39.750,-0.022
39.755,-0.023
39.760,-0.016
39.765,-0.013
39.770,-0.016
39.775,-0.018
39.780,-0.018
39.785,-0.014
39.790,-0.009
39.795,-0.009
39.800,-0.012
39.805,-0.012
39.810,-0.012
39.815,-0.014
39.820,-0.014
39.825,-0.013
39.830,-0.015
39.835,-0.016
39.840,-0.011
39.845,-0.011
39.850,-0.013
39.855,-0.010
39.860,-0.008
39.865,-0.011
39.870,-0.012
39.875,-0.010
39.880,-0.011
39.885,-0.011
39.890,-0.009
39.895,-0.008
39.900,-0.009
39.905,-0.006
39.910,-0.003
39.915,-0.004
39.920,-0.005
39.925,-0.007
39.930,-0.011
39.935,-0.015
39.940,-0.021
39.945,-0.033
39.950,-0.045
39.955,-0.050
39.960,-0.054
39.965,-0.062
39.970,-0.065
39.975,-0.062
39.980,-0.055
39.985,-0.043
39.990,-0.029
39.995,-0.022
40.000,-0.027
40.005,-0.036
40.010,-0.030
40.015,-0.002
40.020,0.025
40.025,0.038
40.030,0.040
40.035,0.039
40.040,0.039
40.045,0.037
40.050,0.035
40.055,0.036
40.060,0.041
40.065,0.048
40.070,0.047
40.075,0.047
40.080,0.050
40.085,0.052
40.090,0.051
40.095,0.045
40.100,0.040
40.105,0.038
40.110,0.034
40.115,0.031
40.120,0.032
40.125,0.023
40.130,-0.010
40.135,-0.088
40.140,-0.259
40.145,-0.533
40.150,-0.873
40.155,-1.191
40.160,-1.330
40.165,-1.117
40.170,-0.636
40.175,-0.164
40.180,0.213
40.185,0.473
40.190,0.575
40.195,0.535
40.200,0.421
40.205,0.337
40.210,0.301
40.215,0.290
40.220,0.288
40.225,0.281
40.230,0.270
40.235,0.260
40.240,0.249
40.245,0.235
40.250,0.221
40.255,0.212
40.260,0.203
40.265,0.191
40.270,0.183
40.275,0.176
40.280,0.163
40.285,0.151
40.290,0.146
40.295,0.138
40.300,0.126
40.305,0.120
40.310,0.114
40.315,0.104
40.320,0.095
40.325,0.089
40.330,0.081
40.335,0.073
40.340,0.068
40.345,0.059
40.350,0.048
40.355,0.041
40.360,0.035
40.365,0.026
40.370,0.020
40.375,0.016
40.380,0.008
40.385,-0.001
40.390,-0.004
40.395,-0.009
40.400,-0.017
40.405,-0.022
40.410,-0.026
40.415,-0.032
40.420,-0.034
40.425,-0.034
40.430,-0.037
40.435,-0.039
40.440,-0.037
40.445,-0.037
40.450,-0.039
40.455,-0.034
40.460,-0.024
40.465,-0.022
40.470,-0.022
40.475,-0.016
40.480,-0.012
40.485,-0.009
40.490,-0.005
40.495,-0.006
40.500,-0.010
40.505,-0.010
40.510,-0.013
40.515,-0.021
40.520,-0.025
40.525,-0.029
40.530,-0.034
40.535,-0.038
40.540,-0.041
40.545,-0.047
40.550,-0.052
40.555,-0.050
40.560,-0.045
40.565,-0.042
40.570,-0.035
40.575,-0.028
40.580,-0.023
40.585,-0.016
40.590,-0.004
40.595,0.005
40.600,0.009
40.605,0.013
40.610,0.018
40.615,0.019
40.620,0.020
40.625,0.023
40.630,0.024
40.635,0.022
40.640,0.021
40.645,0.018
40.650,0.015
40.655,0.014
40.660,0.011
40.665,0.008
40.670,0.007
40.675,0.008
40.680,0.005
40.685,-0.001
40.690,-0.002
40.695,-0.001
40.700,-0.007
40.705,-0.009
40.710,-0.006
40.715,-0.006
40.720,-0.008
40.725,-0.007
40.730,-0.004
40.735,-0.004
40.740,-0.006
40.745,-0.007
40.750,-0.009
40.755,-0.008
40.760,-0.003
40.765,-0.001
40.770,0.001
40.775,0.006
40.780,0.006
40.785,0.003
40.790,0.006
40.795,0.011
40.800,0.012
40.805,0.012
40.810,0.011
40.815,0.008
40.820,0.011
40.825,0.014
40.830,0.013
40.835,0.011
40.840,0.011
40.845,0.012
40.850,0.013
40.855,0.012
40.860,0.014
40.865,0.016
40.870,0.017
40.875,0.018
40.880,0.015
40.885,0.013
40.890,0.013
40.895,0.010
40.900,0.009
40.905,0.007
40.910,0.000
40.915,0.000
40.920,0.007
40.925,0.006
40.930,0.004
40.935,0.003
40.940,0.003
40.945,0.004
40.950,0.003
40.955,0.002
40.960,-0.004
40.965,-0.011
40.970,-0.012
40.975,-0.011
40.980,-0.015
40.985,-0.014
40.990,-0.008
40.995,-0.005
41.000,-0.008
41.005,-0.008
41.010,-0.006
41.015,-0.006
41.020,-0.011
41.025,-0.013
41.030,-0.015
41.035,-0.017
41.040,-0.019
41.045,-0.015
41.050,-0.011
41.055,-0.013
41.060,-0.018
41.065,-0.018
41.070,-0.015
41.075,-0.011
41.080,-0.010
41.085,-0.017
41.090,-0.022
41.095,-0.021
41.100,-0.027
41.105,-0.031
41.110,-0.024
41.115,-0.020
41.120,-0.019
41.125,-0.015
41.130,-0.013
41.135,-0.017
41.140,-0.021
41.145,-0.018
41.150,-0.017
41.155,-0.017
41.160,-0.013
41.165,-0.016
41.170,-0.021
41.175,-0.020
41.180,-0.016
41.185,-0.016
41.190,-0.019
41.195,-0.015
41.200,-0.009
41.205,-0.009
41.210,-0.013
41.215,-0.018
41.220,-0.021
41.225,-0.018
41.230,-0.019
41.235,-0.024
41.240,-0.014
41.245,-0.004
41.250,-0.015
41.255,-0.021
41.260,-0.012
41.265,-0.007
41.270,-0.017
41.275,-0.027
41.280,-0.028
41.285,-0.020
41.290,0.000
41.295,0.013
41.300,0.006
41.305,-0.008
41.310,-0.012
41.315,-0.015
41.320,-0.019
41.325,-0.019
41.330,-0.021
41.335,-0.018
41.340,-0.004
41.345,0.001
41.350,-0.006
41.355,-0.016
41.360,-0.029
41.365,-0.042
41.370,-0.053
41.375,-0.064
41.380,-0.073
41.385,-0.079
41.390,-0.065
41.395,-0.038
41.400,-0.025
41.405,-0.024
41.410,-0.027
41.415,-0.034
41.420,-0.035
41.425,-0.022
41.430,-0.001
41.435,0.019
41.440,0.036
41.445,0.037
41.450,0.029
41.455,0.031
41.460,0.037
41.465,0.032
41.470,0.034
41.475,0.046
41.480,0.049
41.485,0.047
41.490,0.051
41.495,0.056
41.500,0.061
41.505,0.065
41.510,0.058
41.515,0.048
41.520,0.042
41.525,0.033
41.530,0.019
41.535,0.013
41.540,0.021
41.545,0.014
41.550,-0.065
41.555,-0.248
41.560,-0.520
41.565,-0.862
41.570,-1.190
41.575,-1.330
41.580,-1.111
41.585,-0.622
41.590,-0.140
41.595,0.237
41.600,0.495
41.605,0.599
41.610,0.546
41.615,0.418
41.620,0.329
41.625,0.303
41.630,0.288
41.635,0.265
41.640,0.261
41.645,0.261
41.650,0.252
41.655,0.246
41.660,0.237
41.665,0.221
41.670,0.212
41.675,0.202
41.680,0.187
41.685,0.182
41.690,0.174
41.695,0.162
41.700,0.144
41.705,0.130
41.710,0.137
41.715,0.133
41.720,0.119
41.725,0.118
41.730,0.105
41.735,0.085
41.740,0.086
41.745,0.093
41.750,0.085
41.755,0.062
41.760,0.041
41.765,0.036
41.770,0.037
41.775,0.037
41.780,0.030
41.785,0.023
41.790,0.022
41.795,0.017
41.800,0.009
41.805,-0.004
41.810,-0.015
41.815,-0.015
41.820,-0.014
41.825,-0.018
41.830,-0.021
41.835,-0.023
41.840,-0.027
41.845,-0.032
41.850,-0.032
41.855,-0.030
41.860,-0.027
41.865,-0.018
41.870,-0.013
41.875,-0.014
41.880,-0.012
41.885,-0.003
41.890,0.005
41.895,0.005
41.900,-0.004
41.905,-0.009
41.910,-0.004
41.915,-0.009
41.920,-0.012
41.925,0.002
41.930,0.002
41.935,-0.016
41.940,-0.026
41.945,-0.028
41.950,-0.031
41.955,-0.036
41.960,-0.052
41.965,-0.060
41.970,-0.051
41.975,-0.041
41.980,-0.041
41.985,-0.047
41.990,-0.053
41.995,-0.041
42.000,-0.011
42.005,0.004
42.010,0.001
42.015,0.004
42.020,0.014
42.025,0.016
42.030,0.007
42.035,0.006
42.040,0.014
42.045,0.009
42.050,-0.001
42.055,-0.003
42.060,-0.001
42.065,0.005
42.070,0.014
42.075,0.009
42.080,-0.001
42.085,0.004
42.090,0.008
42.095,-0.002
42.100,-0.013
42.105,-0.018
42.110,-0.023
42.115,-0.018
42.120,-0.006
42.125,-0.008
42.130,-0.020
42.135,-0.024
42.140,-0.021
42.145,-0.024
42.150,-0.022
42.155,-0.012
42.160,-0.010
42.165,-0.010
42.170,-0.013
42.175,-0.014
42.180,-0.011
42.185,-0.019
42.190,-0.019
42.195,-0.014
42.200,-0.017
42.205,0.000
42.210,0.015
42.215,0.008
42.220,0.008
42.225,0.009
42.230,0.014
42.235,0.020
42.240,0.018
42.245,0.021
42.250,0.019
42.255,0.010
42.260,0.004
42.265,0.003
42.270,0.000
42.275,0.000
42.280,0.017
42.285,0.029
42.290,0.022
42.295,0.015
42.300,0.011
42.305,0.003
42.310,0.011
42.315,0.022
42.320,0.012
42.325,-0.001
42.330,-0.001
42.335,0.006
42.340,0.004
42.345,-0.002
42.350,0.005
42.355,0.014
42.360,0.011
42.365,0.001
42.370,-0.001
42.375,0.010
42.380,0.005
42.385,-0.006
42.390,-0.005
42.395,-0.009
42.400,-0.012
42.405,-0.010
42.410,-0.009
42.415,-0.002
42.420,0.006
42.425,0.005
42.430,0.004
42.435,0.009
42.440,0.004
42.445,-0.008
42.450,-0.016
42.455,-0.021
42.460,-0.013
42.465,-0.006
42.470,-0.013
42.475,-0.016
42.480,-0.015
42.485,-0.010
42.490,0.001
42.495,0.001
42.500,-0.013
42.505,-0.021
42.510,-0.011
42.515,-0.001
42.520,-0.007
42.525,-0.020
42.530,-0.020
42.535,-0.012
42.540,-0.007
42.545,-0.008
42.550,-0.011
42.555,-0.014
42.560,-0.018
42.565,-0.016
42.570,-0.003
42.575,0.002
42.580,-0.011
42.585,-0.025
42.590,-0.030
42.595,-0.021
42.600,-0.006
42.605,-0.012
42.610,-0.024
42.615,-0.020
42.620,-0.008
42.625,0.000
42.630,-0.011
42.635,-0.018
42.640,-0.006
42.645,-0.005
42.650,-0.016
42.655,-0.025
42.660,-0.037
42.665,-0.027
42.670,-0.004
42.675,-0.006
42.680,-0.014
42.685,-0.014
42.690,-0.012
42.695,-0.007
42.700,-0.003
42.705,0.004
42.710,-0.003
42.715,-0.020
42.720,-0.021
42.725,-0.015
42.730,-0.025
42.735,-0.034
42.740,-0.017
42.745,-0.005
42.750,-0.005
42.755,-0.011
42.760,-0.028
42.765,-0.041
42.770,-0.052
42.775,-0.062
42.780,-0.064
42.785,-0.054
42.790,-0.044
42.795,-0.052
42.800,-0.047
42.805,-0.026
42.810,-0.034
42.815,-0.049
42.820,-0.051
42.825,-0.039
42.830,-0.011
42.835,0.012
42.840,0.022
42.845,0.024
42.850,0.027
42.855,0.034
42.860,0.044
42.865,0.040
42.870,0.019
42.875,0.028
42.880,0.050
42.885,0.045
42.890,0.045
42.895,0.048
42.900,0.040
42.905,0.042
42.910,0.045
42.915,0.036
42.920,0.026
42.925,0.032
42.930,0.044
42.935,0.043
42.940,0.027
42.945,-0.010
42.950,-0.122
42.955,-0.340
42.960,-0.630
42.965,-0.975
42.970,-1.286
42.975,-1.352
42.980,-1.039
42.985,-0.512
42.990,-0.028
42.995,0.347
43.000,0.574
43.005,0.614
43.010,0.524
43.015,0.406
43.020,0.332
43.025,0.297
43.030,0.284
43.035,0.283
43.040,0.276
43.045,0.255
43.050,0.247
43.055,0.252
43.060,0.235
43.065,0.208
43.070,0.197
43.075,0.195
43.080,0.188
43.085,0.179
43.090,0.163
43.095,0.151
43.100,0.154
43.105,0.153
43.110,0.139
43.115,0.111
43.120,0.098
43.125,0.106
43.130,0.099
43.135,0.081
43.140,0.082
43.145,0.090
43.150,0.077
43.155,0.060
43.160,0.050
43.165,0.043
43.170,0.041
43.175,0.041
43.180,0.037
43.185,0.018
43.190,0.004
43.195,0.001
43.200,-0.002
43.205,-0.005
43.210,-0.014
43.215,-0.025
43.220,-0.027
43.225,-0.017
43.230,-0.013
43.235,-0.026
43.240,-0.036
43.245,-0.034
43.250,-0.024
43.255,-0.025
43.260,-0.032
43.265,-0.024
43.270,-0.020
43.275,-0.010
43.280,0.000
43.285,-0.011
43.290,-0.007
43.295,0.015
43.300,0.019
43.305,0.016
43.310,0.012
43.315,-0.002
43.320,-0.012
43.325,-0.007
43.330,-0.004
43.335,-0.006
43.340,-0.011
43.345,-0.026
43.350,-0.045
43.355,-0.047
43.360,-0.039
43.365,-0.037
43.370,-0.049
43.375,-0.058
43.380,-0.047
43.385,-0.034
43.390,-0.029
43.395,-0.023
43.400,-0.023
43.405,-0.021
43.410,-0.010
43.415,-0.005
43.420,-0.011
43.425,-0.007
43.430,0.009
43.435,0.017
43.440,0.018
43.445,0.012
43.450,0.001
43.455,-0.004
43.460,-0.013
43.465,-0.020
43.470,-0.001
43.475,0.016
43.480,0.009
43.485,-0.005
43.490,-0.015
43.495,-0.019
43.500,-0.024
43.505,-0.027
43.510,-0.028
43.515,-0.023
43.520,-0.019
43.525,-0.024
43.530,-0.020
43.535,-0.018
43.540,-0.029
43.545,-0.045
43.550,-0.049
43.555,-0.034
43.560,-0.027
43.565,-0.032
43.570,-0.026
43.575,-0.017
43.580,-0.015
43.585,-0.015
43.590,-0.014
43.595,-0.010
43.600,-0.004
43.605,0.001
43.610,-0.006
43.615,-0.016
43.620,-0.006
43.625,0.004
43.630,-0.003
43.635,-0.004
43.640,-0.005
43.645,-0.004
43.650,0.017
43.655,0.023
43.660,0.018
43.665,0.019
43.670,0.019
43.675,0.035
43.680,0.041
43.685,0.024
43.690,0.013
43.695,0.015
43.700,0.014
43.705,0.005
43.710,0.009
43.715,0.015
43.720,0.019
43.725,0.024
43.730,0.021
43.735,0.021
43.740,0.026
43.745,0.021
43.750,0.013
43.755,0.013
43.760,0.008
43.765,0.003
43.770,0.007
43.775,0.010
43.780,0.006
43.785,0.005
43.790,0.008
43.795,0.004
43.800,0.001
43.805,0.015
43.810,0.022
43.815,0.011
43.820,0.001
43.825,-0.002
43.830,-0.004
43.835,-0.005
43.840,-0.011
43.845,-0.013
43.850,-0.007
43.855,-0.001
43.860,0.007
43.865,0.009
43.870,0.001
43.875,-0.010
43.880,-0.015
43.885,-0.004
43.890,0.005
43.895,-0.004
43.900,-0.015
43.905,-0.020
43.910,-0.018
43.915,-0.019
43.920,-0.018
43.925,0.002
43.930,0.009
43.935,-0.004
43.940,-0.017
43.945,-0.019
43.950,-0.008
43.955,-0.001
43.960,0.000
43.965,-0.002
43.970,-0.015
43.975,-0.027
43.980,-0.018
43.985,-0.004
43.990,-0.009
43.995,-0.012
44.000,-0.007
44.005,-0.006
44.010,-0.004
44.015,-0.005
44.020,-0.009
44.025,-0.005
44.030,-0.005
44.035,-0.017
44.040,-0.023
44.045,-0.013
44.050,-0.006
44.055,-0.005
44.060,-0.005
44.065,-0.010
44.070,-0.014
44.075,-0.013
44.080,-0.013
44.085,-0.013
44.090,-0.004
44.095,-0.001
44.100,-0.011
44.105,-0.015
44.110,-0.017
44.115,-0.018
44.120,0.001
44.125,0.012
44.130,0.002
44.135,-0.009
44.140,-0.013
44.145,-0.011
44.150,-0.010
44.155,-0.011
44.160,-0.016
44.165,-0.022
44.170,-0.031
44.175,-0.039
44.180,-0.043
44.185,-0.043
44.190,-0.048
44.195,-0.058
44.200,-0.061
44.205,-0.053
44.210,-0.038
44.215,-0.025
44.220,-0.027
44.225,-0.041
44.230,-0.056
44.235,-0.049
44.240,-0.017
44.245,0.012
44.250,0.027
44.255,0.039
44.260,0.045
44.265,0.033
44.270,0.022
44.275,0.026
44.280,0.026
44.285,0.021
44.290,0.030
44.295,0.044
44.300,0.050
44.305,0.054
44.310,0.057
44.315,0.053
44.320,0.045
44.325,0.038
44.330,0.034
44.335,0.033
44.340,0.028
44.345,0.025
44.350,0.017
44.355,-0.011
44.360,-0.071
44.365,-0.219
44.370,-0.473
44.375,-0.792
44.380,-1.133
44.385,-1.360
44.390,-1.260
44.395,-0.831
44.400,-0.331
44.405,0.109
44.410,0.445
44.415,0.596
44.420,0.582
44.425,0.475
44.430,0.369
44.435,0.311
44.440,0.291
44.445,0.297
44.450,0.299
44.455,0.288
44.460,0.277
44.465,0.263
44.470,0.250
44.475,0.246
44.480,0.232
44.485,0.215
44.490,0.203
44.495,0.192
44.500,0.180
44.505,0.164
44.510,0.152
44.515,0.147
44.520,0.140
44.525,0.134
44.530,0.123
44.535,0.117
44.540,0.122
44.545,0.120
44.550,0.104
44.555,0.089
44.560,0.077
44.565,0.064
44.570,0.061
44.575,0.058
44.580,0.042
44.585,0.029
44.590,0.025
44.595,0.022
44.600,0.013
44.605,0.009
44.610,0.009
44.615,0.003
44.620,-0.007
44.625,-0.010
44.630,-0.017
44.635,-0.033
44.640,-0.038
44.645,-0.033
44.650,-0.038
44.655,-0.043
44.660,-0.037
44.665,-0.035
44.670,-0.036
44.675,-0.038
44.680,-0.040
44.685,-0.036
44.690,-0.025
44.695,-0.020
44.700,-0.022
44.705,-0.020
44.710,-0.019
44.715,-0.020
44.720,-0.016
44.725,-0.013
44.730,-0.013
44.735,-0.014
44.740,-0.014
44.745,-0.014
44.750,-0.021
44.755,-0.028
44.760,-0.035
44.765,-0.041
44.770,-0.039
44.775,-0.034
44.780,-0.035
44.785,-0.037
44.790,-0.038
44.795,-0.042
44.800,-0.041
44.805,-0.027
44.810,-0.008
44.815,-0.004
44.820,-0.005
44.825,0.000
44.830,0.004
44.835,0.006
44.840,0.016
44.845,0.021
44.850,0.018
44.855,0.020
44.860,0.025
44.865,0.025
44.870,0.019
44.875,0.015
44.880,0.011
44.885,0.005
44.890,0.002
