'Elapsed time','ECG'
'seconds','mV'
0.000,0.005
0.005,0.030
0.010,-0.002
0.015,-0.017
0.020,-0.038
0.025,-0.032
0.030,0.011
0.035,-0.023
0.040,-0.021
0.045,0.025
0.050,-0.007
0.055,-0.020
0.060,0.020
0.065,0.014
0.070,-0.022
0.075,0.011
0.080,0.051
0.085,0.013
0.090,0.003
0.095,0.033
0.100,0.032
0.105,0.019
0.110,0.063
0.115,0.065
0.120,0.017
0.125,0.042
0.130,0.076
0.135,0.052
0.140,0.044
0.145,0.066
0.150,0.041
0.155,0.026
0.160,0.054
0.165,0.042
0.170,0.009
0.175,0.026
0.180,0.060
0.185,0.066
0.190,0.086
0.195,0.131
0.200,0.121
0.205,0.102
0.210,0.142
0.215,0.156
0.220,0.151
0.225,0.175
0.230,0.164
0.235,0.138
0.240,0.138
0.245,0.138
0.250,0.091
0.255,0.048
0.260,0.036
0.265,-0.019
0.270,-0.079
0.275,-0.080
0.280,-0.073
0.285,-0.096
0.290,-0.062
0.295,-0.022
0.300,-0.051
0.305,-0.063
0.310,-0.036
0.315,-0.045
0.320,-0.076
0.325,-0.056
0.330,-0.036
0.335,-0.038
0.340,-0.019
0.345,0.027
0.350,0.088
0.355,0.244
0.360,0.647
0.365,1.214
0.370,1.673
0.375,1.865
0.380,1.734
0.385,1.145
0.390,0.182
0.395,-0.514
0.400,-0.647
0.405,-0.571
0.410,-0.494
0.415,-0.459
0.420,-0.475
0.425,-0.453
0.430,-0.437
0.435,-0.453
0.440,-0.396
0.445,-0.340
0.450,-0.360
0.455,-0.359
0.460,-0.315
0.465,-0.307
0.470,-0.293
0.475,-0.230
0.480,-0.207
0.485,-0.224
0.490,-0.178
0.495,-0.132
0.500,-0.150
0.505,-0.145
0.510,-0.101
0.515,-0.091
0.520,-0.095
0.525,-0.057
0.530,-0.051
0.535,-0.082
0.540,-0.035
0.545,0.039
0.550,0.040
0.555,0.052
0.560,0.113
0.565,0.124
0.570,0.112
0.575,0.157
0.580,0.171
0.585,0.126
0.590,0.141
0.595,0.189
0.600,0.155
0.605,0.123
0.610,0.152
0.615,0.124
0.620,0.059
0.625,0.044
0.630,0.016
0.635,-0.073
0.640,-0.113
0.645,-0.101
0.650,-0.150
0.655,-0.176
0.660,-0.157
0.665,-0.186
0.670,-0.221
0.675,-0.201
0.680,-0.186
0.685,-0.228
0.690,-0.210
0.695,-0.136
0.700,-0.154
0.705,-0.173
0.710,-0.124
0.715,-0.125
0.720,-0.145
0.725,-0.111
0.730,-0.088
0.735,-0.125
0.740,-0.126
0.745,-0.074
0.750,-0.075
0.755,-0.080
0.760,-0.037
0.765,-0.039
0.770,-0.061
0.775,-0.043
0.780,-0.044
0.785,-0.085
0.790,-0.085
0.795,-0.045
0.800,-0.036
0.805,-0.046
0.810,-0.029
0.815,-0.049
0.820,-0.087
0.825,-0.064
0.830,-0.052
0.835,-0.058
0.840,-0.053
0.845,-0.005
0.850,0.013
0.855,0.000
0.860,0.059
0.865,0.081
0.870,0.063
0.875,0.103
0.880,0.119
0.885,0.089
0.890,0.113
0.895,0.170
0.900,0.184
0.905,0.158
0.910,0.159
0.915,0.148
0.920,0.106
0.925,0.101
0.930,0.077
0.935,0.007
0.940,-0.025
0.945,-0.029
0.950,-0.055
0.955,-0.072
0.960,-0.051
0.965,-0.055
0.970,-0.085
0.975,-0.067
0.980,-0.055
0.985,-0.094
0.990,-0.087
0.995,-0.066
1.000,-0.079
1.005,-0.066
1.010,-0.031
1.015,-0.030
1.020,-0.038
1.025,0.080
1.030,0.247
1.035,0.513
1.040,1.072
1.045,1.646
1.050,1.864
1.055,1.798
1.060,1.397
1.065,0.470
1.070,-0.400
1.075,-0.619
1.080,-0.523
1.085,-0.495
1.090,-0.448
1.095,-0.404
1.100,-0.432
1.105,-0.403
1.110,-0.347
1.115,-0.357
1.120,-0.367
1.125,-0.319
1.130,-0.281
1.135,-0.302
1.140,-0.291
1.145,-0.253
1.150,-0.269
1.155,-0.253
1.160,-0.189
1.165,-0.183
1.170,-0.195
1.175,-0.158
1.180,-0.135
1.185,-0.161
1.190,-0.151
1.195,-0.108
1.200,-0.119
1.205,-0.080
1.210,0.011
1.215,0.021
1.220,0.010
1.225,0.054
1.230,0.084
1.235,0.081
1.240,0.116
1.245,0.164
1.250,0.151
1.255,0.152
1.260,0.216
1.265,0.211
1.270,0.174
1.275,0.206
1.280,0.209
1.285,0.167
1.290,0.165
1.295,0.171
1.300,0.107
1.305,0.054
1.310,0.063
1.315,0.005
1.320,-0.079
1.325,-0.089
1.330,-0.115
1.335,-0.182
1.340,-0.201
1.345,-0.181
1.350,-0.215
1.355,-0.247
1.360,-0.206
1.365,-0.199
1.370,-0.232
1.375,-0.203
1.380,-0.185
1.385,-0.203
1.390,-0.157
1.395,-0.109
1.400,-0.120
1.405,-0.127
1.410,-0.081
1.415,-0.061
1.420,-0.087
1.425,-0.058
1.430,-0.035
1.435,-0.068
1.440,-0.053
1.445,-0.028
1.450,-0.060
1.455,-0.074
1.460,-0.039
1.465,-0.024
1.470,-0.055
1.475,-0.040
1.480,-0.018
1.485,-0.052
1.490,-0.045
1.495,-0.021
1.500,-0.046
1.505,-0.058
1.510,-0.029
1.515,-0.016
1.520,-0.043
1.525,-0.026
1.530,-0.008
1.535,-0.039
1.540,-0.031
1.545,-0.008
1.550,-0.038
1.555,-0.043
1.560,0.000
1.565,0.030
1.570,0.061
1.575,0.097
1.580,0.132
1.585,0.108
1.590,0.116
1.595,0.188
1.600,0.180
1.605,0.160
1.610,0.175
1.615,0.160
1.620,0.142
1.625,0.152
1.630,0.128
1.635,0.059
1.640,0.028
1.645,0.023
1.650,-0.032
1.655,-0.064
1.660,-0.044
1.665,-0.062
1.670,-0.072
1.675,-0.037
1.680,-0.028
1.685,-0.055
1.690,-0.048
1.695,-0.016
1.700,-0.045
1.705,-0.056
1.710,-0.012
1.715,-0.022
1.720,-0.038
1.725,0.025
1.730,0.133
1.735,0.319
1.740,0.754
1.745,1.368
1.750,1.768
1.755,1.842
1.760,1.692
1.765,1.010
1.770,-0.021
1.775,-0.563
1.780,-0.570
1.785,-0.520
1.790,-0.467
1.795,-0.394
1.800,-0.406
1.805,-0.420
1.810,-0.378
1.815,-0.377
1.820,-0.385
1.825,-0.328
1.830,-0.297
1.835,-0.310
1.840,-0.283
1.845,-0.244
1.850,-0.250
1.855,-0.246
1.860,-0.194
1.865,-0.184
1.870,-0.212
1.875,-0.166
1.880,-0.134
1.885,-0.158
1.890,-0.131
1.895,-0.089
1.900,-0.100
1.905,-0.100
1.910,-0.054
1.915,-0.047
1.920,-0.064
1.925,0.004
1.930,0.043
1.935,0.016
1.940,0.079
1.945,0.149
1.950,0.135
1.955,0.143
1.960,0.182
1.965,0.175
1.970,0.150
1.975,0.188
1.980,0.207
1.985,0.162
1.990,0.159
1.995,0.174
2.000,0.125
2.005,0.073
2.010,0.056
2.015,0.009
2.020,-0.054
2.025,-0.059
2.030,-0.069
2.035,-0.138
2.040,-0.162
2.045,-0.154
2.050,-0.198
2.055,-0.216
2.060,-0.183
2.065,-0.195
2.070,-0.220
2.075,-0.186
2.080,-0.157
2.085,-0.184
2.090,-0.174
2.095,-0.135
2.100,-0.158
2.105,-0.167
2.110,-0.131
2.115,-0.143
2.120,-0.155
2.125,-0.092
2.130,-0.054
2.135,-0.072
2.140,-0.065
2.145,-0.037
2.150,-0.057
2.155,-0.065
2.160,-0.028
2.165,-0.033
2.170,-0.058
2.175,-0.032
2.180,-0.014
2.185,-0.041
2.190,-0.026
2.195,0.009
2.200,-0.016
2.205,-0.035
2.210,-0.014
2.215,-0.035
2.220,-0.065
2.225,-0.028
2.230,0.002
2.235,-0.017
2.240,0.002
2.245,0.047
2.250,0.044
2.255,0.050
2.260,0.093
2.265,0.089
2.270,0.080
2.275,0.125
2.280,0.155
2.285,0.125
2.290,0.109
2.295,0.112
2.300,0.078
2.305,0.065
2.310,0.069
2.315,0.039
2.320,-0.014
2.325,-0.009
2.330,-0.005
2.335,-0.050
2.340,-0.044
2.345,-0.021
2.350,-0.043
2.355,-0.056
2.360,-0.040
2.365,-0.060
2.370,-0.085
2.375,-0.051
2.380,-0.028
2.385,-0.041
2.390,-0.016
2.395,0.011
2.400,-0.018
2.405,0.005
2.410,0.157
2.415,0.406
2.420,0.866
2.425,1.487
2.430,1.863
2.435,1.872
2.440,1.571
2.445,0.765
2.450,-0.233
2.455,-0.659
2.460,-0.568
2.465,-0.503
2.470,-0.502
2.475,-0.451
2.480,-0.421
2.485,-0.442
2.490,-0.411
2.495,-0.317
2.500,-0.325
2.505,-0.339
2.510,-0.281
2.515,-0.279
2.520,-0.290
2.525,-0.244
2.530,-0.206
2.535,-0.225
2.540,-0.197
2.545,-0.149
2.550,-0.166
2.555,-0.162
2.560,-0.110
2.565,-0.104
2.570,-0.127
2.575,-0.088
2.580,-0.047
2.585,-0.060
2.590,-0.030
2.595,0.025
2.600,0.015
2.605,0.024
2.610,0.086
2.615,0.100
2.620,0.091
2.625,0.128
2.630,0.153
2.635,0.136
2.640,0.160
2.645,0.197
2.650,0.164
2.655,0.135
2.660,0.155
2.665,0.130
2.670,0.086
2.675,0.117
2.680,0.118
2.685,0.060
2.690,0.038
2.695,0.031
2.700,-0.029
2.705,-0.083
2.710,-0.082
2.715,-0.122
2.720,-0.178
2.725,-0.172
2.730,-0.172
2.735,-0.200
2.740,-0.188
2.745,-0.150
2.750,-0.165
2.755,-0.172
2.760,-0.130
2.765,-0.143
2.770,-0.168
2.775,-0.134
2.780,-0.125
2.785,-0.143
2.790,-0.110
2.795,-0.067
2.800,-0.085
2.805,-0.089
2.810,-0.051
2.815,-0.061
2.820,-0.090
2.825,-0.065
2.830,-0.048
2.835,-0.082
2.840,-0.084
2.845,-0.053
2.850,-0.079
2.855,-0.088
2.860,-0.035
2.865,-0.033
2.870,-0.047
2.875,-0.021
2.880,-0.020
2.885,-0.043
2.890,-0.013
2.895,0.022
2.900,0.013
2.905,0.030
2.910,0.078
2.915,0.087
2.920,0.063
2.925,0.089
2.930,0.118
2.935,0.118
2.940,0.166
2.945,0.197
2.950,0.145
2.955,0.121
2.960,0.150
2.965,0.120
2.970,0.057
2.975,0.049
2.980,0.013
2.985,-0.060
2.990,-0.051
2.995,-0.027
3.000,-0.077
3.005,-0.096
3.010,-0.065
3.015,-0.081
3.020,-0.115
3.025,-0.084
3.030,-0.071
3.035,-0.105
3.040,-0.082
3.045,-0.047
3.050,-0.039
3.055,-0.033
3.060,0.006
3.065,0.050
3.070,0.139
3.075,0.412
3.080,0.885
3.085,1.427
3.090,1.812
3.095,1.911
3.100,1.620
3.105,0.849
3.110,-0.090
3.115,-0.590
3.120,-0.597
3.125,-0.492
3.130,-0.440
3.135,-0.442
3.140,-0.423
3.145,-0.374
3.150,-0.389
3.155,-0.395
3.160,-0.347
3.165,-0.343
3.170,-0.345
3.175,-0.292
3.180,-0.265
3.185,-0.285
3.190,-0.264
3.195,-0.207
3.200,-0.216
3.205,-0.222
3.210,-0.175
3.215,-0.171
3.220,-0.191
3.225,-0.156
3.230,-0.094
3.235,-0.107
3.240,-0.091
3.245,-0.029
3.250,-0.026
3.255,-0.008
3.260,0.048
3.265,0.063
3.270,0.055
3.275,0.105
3.280,0.140
3.285,0.131
3.290,0.154
3.295,0.191
3.300,0.192
3.305,0.188
3.310,0.219
3.315,0.213
3.320,0.174
3.325,0.189
3.330,0.184
3.335,0.127
3.340,0.102
3.345,0.092
3.350,0.045
3.355,-0.009
3.360,-0.026
3.365,-0.075
3.370,-0.146
3.375,-0.153
3.380,-0.175
3.385,-0.232
3.390,-0.243
3.395,-0.228
3.400,-0.236
3.405,-0.236
3.410,-0.191
3.415,-0.183
3.420,-0.190
3.425,-0.144
3.430,-0.132
3.435,-0.162
3.440,-0.142
3.445,-0.108
3.450,-0.123
3.455,-0.111
3.460,-0.066
3.465,-0.069
3.470,-0.089
3.475,-0.059
3.480,-0.048
3.485,-0.083
3.490,-0.069
3.495,-0.044
3.500,-0.071
3.505,-0.057
3.510,-0.017
3.515,-0.033
3.520,-0.059
3.525,-0.035
3.530,-0.023
3.535,-0.061
3.540,-0.053
3.545,-0.032
3.550,-0.059
3.555,-0.045
3.560,-0.008
3.565,-0.033
3.570,-0.061
3.575,-0.022
3.580,0.012
3.585,-0.009
3.590,0.020
3.595,0.071
3.600,0.052
3.605,0.085
3.610,0.161
3.615,0.175
3.620,0.161
3.625,0.162
3.630,0.149
3.635,0.114
3.640,0.116
3.645,0.114
3.650,0.052
3.655,0.021
3.660,0.040
3.665,-0.001
3.670,-0.058
3.675,-0.047
3.680,-0.050
3.685,-0.086
3.690,-0.073
3.695,-0.041
3.700,-0.066
3.705,-0.072
3.710,-0.015
3.715,-0.024
3.720,-0.058
3.725,-0.022
3.730,-0.005
3.735,-0.032
3.740,0.003
3.745,0.102
3.750,0.227
3.755,0.555
3.760,1.164
3.765,1.672
3.770,1.829
3.775,1.744
3.780,1.270
3.785,0.351
3.790,-0.428
3.795,-0.606
3.800,-0.537
3.805,-0.498
3.810,-0.409
3.815,-0.394
3.820,-0.433
3.825,-0.390
3.830,-0.351
3.835,-0.369
3.840,-0.348
3.845,-0.304
3.850,-0.314
3.855,-0.312
3.860,-0.254
3.865,-0.229
3.870,-0.237
3.875,-0.197
3.880,-0.176
3.885,-0.201
3.890,-0.171
3.895,-0.130
3.900,-0.147
3.905,-0.153
3.910,-0.104
3.915,-0.070
3.920,-0.080
3.925,-0.053
3.930,-0.022
3.935,-0.043
3.940,-0.012
3.945,0.035
3.950,0.029
3.955,0.036
3.960,0.090
3.965,0.151
3.970,0.144
3.975,0.183
3.980,0.222
3.985,0.177
3.990,0.190
3.995,0.219
4.000,0.186
4.005,0.160
4.010,0.173
4.015,0.153
4.020,0.105
4.025,0.090
4.030,0.057
4.035,-0.028
4.040,-0.066
4.045,-0.082
4.050,-0.152
4.055,-0.186
4.060,-0.165
4.065,-0.184
4.070,-0.204
4.075,-0.188
4.080,-0.191
4.085,-0.222
4.090,-0.212
4.095,-0.184
4.100,-0.205
4.105,-0.210
4.110,-0.178
4.115,-0.181
4.120,-0.169
4.125,-0.131
4.130,-0.127
4.135,-0.149
4.140,-0.136
4.145,-0.092
4.150,-0.102
4.155,-0.088
4.160,-0.039
4.165,-0.061
4.170,-0.075
4.175,-0.047
4.180,-0.044
4.185,-0.062
4.190,-0.047
4.195,-0.019
4.200,-0.045
4.205,-0.056
4.210,-0.024
4.215,-0.038
4.220,-0.049
4.225,-0.013
4.230,-0.011
4.235,-0.043
4.240,-0.027
4.245,0.004
4.250,-0.025
4.255,-0.041
4.260,-0.006
4.265,-0.014
4.270,-0.014
4.275,0.055
4.280,0.078
4.285,0.056
4.290,0.081
4.295,0.109
4.300,0.090
4.305,0.104
4.310,0.165
4.315,0.145
4.320,0.085
4.325,0.121
4.330,0.138
4.335,0.093
4.340,0.107
4.345,0.098
4.350,0.028
4.355,-0.002
4.360,0.014
4.365,-0.024
4.370,-0.080
4.375,-0.038
4.380,-0.019
4.385,-0.059
4.390,-0.038
4.395,-0.014
4.400,-0.050
4.405,-0.055
4.410,-0.013
4.415,-0.025
4.420,-0.051
4.425,0.003
4.430,0.029
4.435,0.011
4.440,0.105
4.445,0.317
4.450,0.695
4.455,1.293
4.460,1.806
4.465,1.930
4.470,1.724
4.475,1.142
4.480,0.168
4.485,-0.547
4.490,-0.619
4.495,-0.510
4.500,-0.508
4.505,-0.484
4.510,-0.433
4.515,-0.432
4.520,-0.409
4.525,-0.367
4.530,-0.329
4.535,-0.328
4.540,-0.310
4.545,-0.263
4.550,-0.275
4.555,-0.257
4.560,-0.202
4.565,-0.204
4.570,-0.228
4.575,-0.181
4.580,-0.133
4.585,-0.162
4.590,-0.143
4.595,-0.093
4.600,-0.114
4.605,-0.113
4.610,-0.069
4.615,-0.065
4.620,-0.075
4.625,-0.028
4.630,0.017
4.635,0.010
4.640,0.038
4.645,0.094
4.650,0.091
4.655,0.101
4.660,0.152
4.665,0.155
4.670,0.131
4.675,0.150
4.680,0.163
4.685,0.153
4.690,0.163
4.695,0.173
4.700,0.157
4.705,0.129
4.710,0.151
4.715,0.112
4.720,0.034
4.725,0.028
4.730,-0.005
4.735,-0.057
4.740,-0.080
4.745,-0.097
4.750,-0.148
4.755,-0.174
4.760,-0.143
4.765,-0.169
4.770,-0.208
4.775,-0.188
4.780,-0.186
4.785,-0.191
4.790,-0.169
4.795,-0.140
4.800,-0.146
4.805,-0.147
4.810,-0.112
4.815,-0.120
4.820,-0.134
4.825,-0.096
4.830,-0.088
4.835,-0.108
4.840,-0.084
4.845,-0.054
4.850,-0.073
4.855,-0.081
4.860,-0.050
4.865,-0.065
4.870,-0.100
4.875,-0.075
4.880,-0.059
4.885,-0.082
4.890,-0.031
4.895,0.016
4.900,-0.030
4.905,-0.043
4.910,-0.005
4.915,-0.011
4.920,-0.040
4.925,-0.013
4.930,-0.003
4.935,-0.025
4.940,0.030
4.945,0.077
4.950,0.055
4.955,0.060
4.960,0.102
4.965,0.117
4.970,0.120
4.975,0.160
4.980,0.141
4.985,0.079
4.990,0.114
4.995,0.134
5.000,0.070
5.005,0.042
5.010,0.043
5.015,-0.005
5.020,-0.060
5.025,-0.054
5.030,-0.074
5.035,-0.127
5.040,-0.092
5.045,-0.054
5.050,-0.094
5.055,-0.102
5.060,-0.066
5.065,-0.076
5.070,-0.082
5.075,-0.017
5.080,-0.006
5.085,-0.047
5.090,-0.023
5.095,0.039
5.100,0.065
5.105,0.171
5.110,0.505
5.115,1.018
5.120,1.560
5.125,1.888
5.130,1.875
5.135,1.451
5.140,0.570
5.145,-0.294
5.150,-0.631
5.155,-0.569
5.160,-0.467
5.165,-0.446
5.170,-0.439
5.175,-0.400
5.180,-0.385
5.185,-0.416
5.190,-0.385
5.195,-0.307
5.200,-0.321
5.205,-0.328
5.210,-0.273
5.215,-0.278
5.220,-0.283
5.225,-0.232
5.230,-0.215
5.235,-0.250
5.240,-0.229
5.245,-0.168
5.250,-0.178
5.255,-0.156
5.260,-0.103
5.265,-0.095
5.270,-0.098
5.275,-0.059
5.280,-0.028
5.285,-0.047
5.290,-0.013
5.295,0.051
5.300,0.060
5.305,0.064
5.310,0.117
5.315,0.137
5.320,0.136
5.325,0.184
5.330,0.191
5.335,0.159
5.340,0.171
5.345,0.194
5.350,0.194
5.355,0.189
5.360,0.205
5.365,0.178
5.370,0.117
5.375,0.107
5.380,0.076
5.385,-0.003
5.390,-0.042
5.395,-0.057
5.400,-0.097
5.405,-0.144
5.410,-0.150
5.415,-0.183
5.420,-0.231
5.425,-0.219
5.430,-0.226
5.435,-0.247
5.440,-0.237
5.445,-0.187
5.450,-0.175
5.455,-0.178
5.460,-0.135
5.465,-0.135
5.470,-0.151
5.475,-0.115
5.480,-0.098
5.485,-0.130
5.490,-0.116
5.495,-0.090
5.500,-0.098
5.505,-0.068
5.510,-0.021
5.515,-0.040
5.520,-0.074
5.525,-0.045
5.530,-0.031
5.535,-0.066
5.540,-0.053
5.545,-0.036
5.550,-0.071
5.555,-0.054
5.560,-0.014
5.565,-0.034
5.570,-0.055
5.575,-0.027
5.580,-0.016
5.585,-0.046
5.590,-0.018
5.595,0.012
5.600,-0.007
5.605,0.025
5.610,0.064
5.615,0.056
5.620,0.060
5.625,0.134
5.630,0.167
5.635,0.113
5.640,0.117
5.645,0.142
5.650,0.099
5.655,0.080
5.660,0.092
5.665,0.042
5.670,-0.011
5.675,0.000
5.680,-0.009
5.685,-0.064
5.690,-0.068
5.695,-0.046
5.700,-0.077
5.705,-0.078
5.710,-0.026
5.715,-0.038
5.720,-0.062
5.725,-0.026
5.730,-0.020
5.735,-0.051
5.740,-0.032
5.745,-0.002
5.750,-0.010
5.755,0.071
5.760,0.321
5.765,0.710
5.770,1.258
5.775,1.762
5.780,1.899
5.785,1.688
5.790,1.098
5.795,0.134
5.800,-0.584
5.805,-0.657
5.810,-0.479
5.815,-0.441
5.820,-0.433
5.825,-0.376
5.830,-0.380
5.835,-0.403
5.840,-0.374
5.845,-0.339
5.850,-0.355
5.855,-0.334
5.860,-0.259
5.865,-0.254
5.870,-0.270
5.875,-0.214
5.880,-0.189
5.885,-0.217
5.890,-0.199
5.895,-0.164
5.900,-0.181
5.905,-0.177
5.910,-0.105
5.915,-0.075
5.920,-0.097
5.925,-0.059
5.930,-0.028
5.935,-0.053
5.940,-0.019
5.945,0.023
5.950,0.001
5.955,0.012
5.960,0.071
5.965,0.098
5.970,0.088
5.975,0.131
5.980,0.156
5.985,0.122
5.990,0.169
5.995,0.197
6.000,0.178
6.005,0.179
6.010,0.193
6.015,0.192
6.020,0.151
6.025,0.147
6.030,0.125
6.035,0.049
6.040,0.022
6.045,-0.004
6.050,-0.087
6.055,-0.126
6.060,-0.115
6.065,-0.146
6.070,-0.186
6.075,-0.168
6.080,-0.165
6.085,-0.203
6.090,-0.191
6.095,-0.166
6.100,-0.195
6.105,-0.196
6.110,-0.159
6.115,-0.165
6.120,-0.170
6.125,-0.127
6.130,-0.117
6.135,-0.145
6.140,-0.124
6.145,-0.083
6.150,-0.110
6.155,-0.119
6.160,-0.089
6.165,-0.106
6.170,-0.093
6.175,-0.057
6.180,-0.029
6.185,-0.047
6.190,-0.059
6.195,-0.025
6.200,-0.051
6.205,-0.060
6.210,-0.018
6.215,-0.032
6.220,-0.049
6.225,-0.022
6.230,-0.022
6.235,-0.046
6.240,-0.026
6.245,-0.001
6.250,-0.035
6.255,-0.030
6.260,0.033
6.265,0.039
6.270,0.043
6.275,0.103
6.280,0.111
6.285,0.074
6.290,0.108
6.295,0.161
6.300,0.143
6.305,0.120
6.310,0.129
6.315,0.108
6.320,0.078
6.325,0.091
6.330,0.062
6.335,-0.012
6.340,-0.035
6.345,-0.045
6.350,-0.090
6.355,-0.114
6.360,-0.069
6.365,-0.058
6.370,-0.088
6.375,-0.043
6.380,-0.028
6.385,-0.068
6.390,-0.047
6.395,-0.017
6.400,-0.042
6.405,-0.049
6.410,-0.012
6.415,-0.009
6.420,-0.022
6.425,0.056
6.430,0.176
6.435,0.376
6.440,0.849
6.445,1.453
6.450,1.801
6.455,1.837
6.460,1.613
6.465,0.895
6.470,-0.089
6.475,-0.577
6.480,-0.566
6.485,-0.521
6.490,-0.465
6.495,-0.414
6.500,-0.447
6.505,-0.452
6.510,-0.408
6.515,-0.409
6.520,-0.414
6.525,-0.362
6.530,-0.330
6.535,-0.350
6.540,-0.306
6.545,-0.232
6.550,-0.248
6.555,-0.238
6.560,-0.189
6.565,-0.196
6.570,-0.193
6.575,-0.146
6.580,-0.117
6.585,-0.134
6.590,-0.106
6.595,-0.062
6.600,-0.082
6.605,-0.072
6.610,-0.024
6.615,-0.021
6.620,-0.016
6.625,0.040
6.630,0.077
6.635,0.072
6.640,0.111
6.645,0.164
6.650,0.148
6.655,0.149
6.660,0.195
6.665,0.187
6.670,0.165
6.675,0.198
6.680,0.208
6.685,0.178
6.690,0.182
6.695,0.179
6.700,0.118
6.705,0.071
6.710,0.058
6.715,-0.009
6.720,-0.078
6.725,-0.057
6.730,-0.085
6.735,-0.136
6.740,-0.137
6.745,-0.147
6.750,-0.185
6.755,-0.201
6.760,-0.166
6.765,-0.184
6.770,-0.211
6.775,-0.164
6.780,-0.150
6.785,-0.167
6.790,-0.135
6.795,-0.097
6.800,-0.119
6.805,-0.137
6.810,-0.088
6.815,-0.096
6.820,-0.124
6.825,-0.074
6.830,-0.062
6.835,-0.083
6.840,-0.061
6.845,-0.045
6.850,-0.072
6.855,-0.080
6.860,-0.043
6.865,-0.054
6.870,-0.082
6.875,-0.047
6.880,-0.042
6.885,-0.082
6.890,-0.061
6.895,-0.045
6.900,-0.081
6.905,-0.065
6.910,-0.031
6.915,-0.023
6.920,-0.033
6.925,-0.004
6.930,0.031
6.935,0.013
6.940,0.041
6.945,0.083
6.950,0.067
6.955,0.073
6.960,0.113
6.965,0.124
6.970,0.139
6.975,0.188
6.980,0.194
6.985,0.143
6.990,0.145
6.995,0.154
7.000,0.100
7.005,0.072
7.010,0.062
7.015,0.011
7.020,-0.042
7.025,-0.041
7.030,-0.044
7.035,-0.092
7.040,-0.079
7.045,-0.039
7.050,-0.068
7.055,-0.085
7.060,-0.060
7.065,-0.078
7.070,-0.102
7.075,-0.071
7.080,-0.050
7.085,-0.067
7.090,-0.049
7.095,0.001
7.100,0.016
7.105,0.088
7.110,0.326
7.115,0.757
7.120,1.343
7.125,1.801
7.130,1.911
7.135,1.682
7.140,1.018
7.145,0.039
7.150,-0.577
7.155,-0.598
7.160,-0.486
7.165,-0.463
7.170,-0.439
7.175,-0.394
7.180,-0.388
7.185,-0.395
7.190,-0.363
7.195,-0.331
7.200,-0.346
7.205,-0.336
7.210,-0.282
7.215,-0.277
7.220,-0.282
7.225,-0.244
7.230,-0.231
7.235,-0.237
7.240,-0.203
7.245,-0.161
7.250,-0.174
7.255,-0.175
7.260,-0.135
7.265,-0.143
7.270,-0.161
7.275,-0.106
7.280,-0.057
7.285,-0.058
7.290,-0.013
7.295,0.039
7.300,0.026
7.305,0.046
7.310,0.106
7.315,0.114
7.320,0.111
7.325,0.160
7.330,0.175
7.335,0.154
7.340,0.184
7.345,0.208
7.350,0.174
7.355,0.178
7.360,0.219
7.365,0.187
7.370,0.132
7.375,0.137
7.380,0.105
7.385,0.035
7.390,0.028
7.395,0.011
7.400,-0.064
7.405,-0.106
7.410,-0.111
7.415,-0.141
7.420,-0.181
7.425,-0.180
7.430,-0.200
7.435,-0.243
7.440,-0.213
7.445,-0.180
7.450,-0.215
7.455,-0.210
7.460,-0.135
7.465,-0.146
7.470,-0.157
7.475,-0.102
7.480,-0.098
7.485,-0.118
7.490,-0.081
7.495,-0.043
7.500,-0.079
7.505,-0.085
7.510,-0.041
7.515,-0.048
7.520,-0.072
7.525,-0.039
7.530,-0.029
7.535,-0.066
7.540,-0.044
7.545,0.004
7.550,-0.025
7.555,-0.045
7.560,-0.015
7.565,-0.033
7.570,-0.064
7.575,-0.034
7.580,-0.023
7.585,-0.051
7.590,-0.020
7.595,0.046
7.600,0.025
7.605,0.014
7.610,0.057
7.615,0.043
7.620,0.038
7.625,0.108
7.630,0.131
7.635,0.081
7.640,0.103
7.645,0.148
7.650,0.129
7.655,0.097
7.660,0.095
7.665,0.056
7.670,0.001
7.675,0.003
7.680,-0.021
7.685,-0.081
7.690,-0.080
7.695,-0.044
7.700,-0.065
7.705,-0.076
7.710,-0.039
7.715,-0.052
7.720,-0.077
7.725,-0.047
7.730,-0.039
7.735,-0.062
7.740,-0.042
7.745,-0.013
7.750,-0.026
7.755,0.007
7.760,0.148
7.765,0.388
7.770,0.853
7.775,1.472
7.780,1.843
7.785,1.863
7.790,1.572
7.795,0.778
7.800,-0.216
7.805,-0.666
7.810,-0.598
7.815,-0.532
7.820,-0.507
7.825,-0.440
7.830,-0.404
7.835,-0.408
7.840,-0.392
7.845,-0.354
7.850,-0.341
7.855,-0.326
7.860,-0.287
7.865,-0.286
7.870,-0.294
7.875,-0.242
7.880,-0.213
7.885,-0.231
7.890,-0.213
7.895,-0.179
7.900,-0.177
7.905,-0.163
7.910,-0.125
7.915,-0.130
7.920,-0.133
7.925,-0.080
7.930,-0.062
7.935,-0.081
7.940,-0.052
7.945,-0.021
7.950,-0.024
7.955,0.011
7.960,0.070
7.965,0.074
7.970,0.071
7.975,0.119
7.980,0.142
7.985,0.125
7.990,0.154
7.995,0.168
8.000,0.139
8.005,0.162
8.010,0.202
8.015,0.195
8.020,0.162
8.025,0.171
8.030,0.161
8.035,0.089
8.040,0.058
8.045,0.023
8.050,-0.052
8.055,-0.074
8.060,-0.080
8.065,-0.137
8.070,-0.177
8.075,-0.160
8.080,-0.161
8.085,-0.199
8.090,-0.181
8.095,-0.160
8.100,-0.199
8.105,-0.187
8.110,-0.136
8.115,-0.144
8.120,-0.157
8.125,-0.119
8.130,-0.105
8.135,-0.127
8.140,-0.103
8.145,-0.077
8.150,-0.112
8.155,-0.113
8.160,-0.057
8.165,-0.070
8.170,-0.094
8.175,-0.063
8.180,-0.062
8.185,-0.098
8.190,-0.085
8.195,-0.020
8.200,-0.044
8.205,-0.046
8.210,0.023
8.215,-0.006
8.220,-0.039
8.225,-0.002
8.230,0.000
8.235,-0.024
8.240,0.012
8.245,0.052
8.250,0.026
8.255,0.037
8.260,0.109
8.265,0.102
8.270,0.086
8.275,0.150
8.280,0.171
8.285,0.128
8.290,0.126
8.295,0.137
8.300,0.100
8.305,0.081
8.310,0.099
8.315,0.062
8.320,0.008
8.325,0.007
8.330,-0.021
8.335,-0.084
8.340,-0.088
8.345,-0.078
8.350,-0.110
8.355,-0.124
8.360,-0.089
8.365,-0.092
8.370,-0.114
8.375,-0.048
8.380,-0.032
8.385,-0.052
8.390,-0.018
8.395,0.000
8.400,-0.019
8.405,-0.009
8.410,0.102
8.415,0.298
8.420,0.668
8.425,1.266
8.430,1.762
8.435,1.881
8.440,1.738
8.445,1.188
8.450,0.179
8.455,-0.543
8.460,-0.614
8.465,-0.518
8.470,-0.489
8.475,-0.434
8.480,-0.412
8.485,-0.441
8.490,-0.411
8.495,-0.360
8.500,-0.364
8.505,-0.383
8.510,-0.357
8.515,-0.326
8.520,-0.317
8.525,-0.277
8.530,-0.254
8.535,-0.272
8.540,-0.242
8.545,-0.211
8.550,-0.239
8.555,-0.217
8.560,-0.166
8.565,-0.146
8.570,-0.114
8.575,-0.071
8.580,-0.057
8.585,-0.066
8.590,-0.031
8.595,0.011
8.600,0.001
8.605,0.022
8.610,0.067
8.615,0.071
8.620,0.102
8.625,0.162
8.630,0.175
8.635,0.162
8.640,0.189
8.645,0.223
8.650,0.198
8.655,0.194
8.660,0.215
8.665,0.191
8.670,0.193
8.675,0.209
8.680,0.171
8.685,0.119
8.690,0.096
8.695,0.071
8.700,-0.006
8.705,-0.062
8.710,-0.080
8.715,-0.149
8.720,-0.201
8.725,-0.184
8.730,-0.209
8.735,-0.252
8.740,-0.220
8.745,-0.175
8.750,-0.174
8.755,-0.166
8.760,-0.130
8.765,-0.153
8.770,-0.181
8.775,-0.127
8.780,-0.117
8.785,-0.147
8.790,-0.110
8.795,-0.072
8.800,-0.101
8.805,-0.106
8.810,-0.062
8.815,-0.081
8.820,-0.108
8.825,-0.044
8.830,-0.035
8.835,-0.076
8.840,-0.052
8.845,-0.033
8.850,-0.069
8.855,-0.079
8.860,-0.046
8.865,-0.066
8.870,-0.093
8.875,-0.036
8.880,-0.027
8.885,-0.066
8.890,-0.045
8.895,-0.027
8.900,-0.067
8.905,-0.074
8.910,-0.042
8.915,-0.061
8.920,-0.080
8.925,-0.018
8.930,0.062
8.935,0.054
8.940,0.084
8.945,0.133
8.950,0.096
8.955,0.107
8.960,0.168
8.965,0.168
8.970,0.135
8.975,0.158
8.980,0.168
8.985,0.126
8.990,0.122
8.995,0.113
9.000,0.045
9.005,0.011
9.010,0.012
9.015,-0.025
9.020,-0.065
9.025,-0.052
9.030,-0.039
9.035,-0.068
9.040,-0.060
9.045,-0.039
9.050,-0.075
9.055,-0.071
9.060,-0.020
9.065,-0.041
9.070,-0.104
9.075,-0.067
9.080,-0.011
9.085,-0.038
9.090,-0.012
9.095,0.089
9.100,0.214
9.105,0.565
9.110,1.208
9.115,1.715
9.120,1.873
9.125,1.779
9.130,1.287
9.135,0.333
9.140,-0.437
9.145,-0.591
9.150,-0.531
9.155,-0.481
9.160,-0.417
9.165,-0.416
9.170,-0.441
9.175,-0.409
9.180,-0.377
9.185,-0.375
9.190,-0.341
9.195,-0.296
9.200,-0.305
9.205,-0.299
9.210,-0.248
9.215,-0.247
9.220,-0.259
9.225,-0.228
9.230,-0.215
9.235,-0.206
9.240,-0.173
9.245,-0.146
9.250,-0.155
9.255,-0.145
9.260,-0.096
9.265,-0.106
9.270,-0.123
9.275,-0.086
9.280,-0.076
9.285,-0.069
9.290,-0.004
9.295,0.048
9.300,0.060
9.305,0.101
9.310,0.162
9.315,0.159
9.320,0.142
9.325,0.173
9.330,0.182
9.335,0.183
9.340,0.221
9.345,0.237
9.350,0.206
9.355,0.201
9.360,0.222
9.365,0.183
9.370,0.124
9.375,0.117
9.380,0.076
9.385,0.009
9.390,0.002
9.395,-0.027
9.400,-0.107
9.405,-0.139
9.410,-0.137
9.415,-0.175
9.420,-0.209
9.425,-0.188
9.430,-0.203
9.435,-0.244
9.440,-0.198
9.445,-0.168
9.450,-0.209
9.455,-0.206
9.460,-0.160
9.465,-0.169
9.470,-0.186
9.475,-0.130
9.480,-0.121
9.485,-0.149
9.490,-0.088
9.495,-0.059
9.500,-0.101
9.505,-0.091
9.510,-0.055
9.515,-0.073
9.520,-0.095
9.525,-0.066
9.530,-0.060
9.535,-0.089
9.540,-0.046
9.545,-0.009
9.550,-0.053
9.555,-0.055
9.560,-0.016
9.565,-0.031
9.570,-0.052
9.575,-0.022
9.580,-0.020
9.585,-0.060
9.590,-0.030
9.595,0.014
9.600,-0.023
9.605,-0.033
9.610,0.006
9.615,-0.016
9.620,-0.040
9.625,-0.003
9.630,0.015
9.635,-0.003
9.640,0.037
9.645,0.089
9.650,0.062
9.655,0.069
9.660,0.123
9.665,0.171
9.670,0.184
9.675,0.181
9.680,0.160
9.685,0.117
9.690,0.136
9.695,0.158
9.700,0.094
9.705,0.056
9.710,0.065
9.715,0.011
9.720,-0.042
9.725,-0.036
9.730,-0.050
9.735,-0.090
9.740,-0.080
9.745,-0.048
9.750,-0.063
9.755,-0.064
9.760,-0.034
9.765,-0.051
9.770,-0.065
9.775,-0.029
9.780,-0.027
9.785,-0.062
9.790,-0.045
9.795,0.012
9.800,0.087
9.805,0.283
9.810,0.736
9.815,1.315
9.820,1.738
9.825,1.877
9.830,1.681
9.835,1.013
9.840,0.028
9.845,-0.553
9.850,-0.598
9.855,-0.528
9.860,-0.451
9.865,-0.420
9.870,-0.427
9.875,-0.393
9.880,-0.386
9.885,-0.410
9.890,-0.369
9.895,-0.327
9.900,-0.328
9.905,-0.312
9.910,-0.266
9.915,-0.257
9.920,-0.264
9.925,-0.221
9.930,-0.209
9.935,-0.232
9.940,-0.191
9.945,-0.149
9.950,-0.157
9.955,-0.136
9.960,-0.091
9.965,-0.100
9.970,-0.116
9.975,-0.078
9.980,-0.063
9.985,-0.077
9.990,-0.033
9.995,0.014
10.000,0.004
10.005,0.024
10.010,0.077
10.015,0.079
10.020,0.074
10.025,0.145
10.030,0.186
10.035,0.158
10.040,0.184
10.045,0.218
10.050,0.181
10.055,0.181
10.060,0.210
10.065,0.169
10.070,0.126
10.075,0.125
10.080,0.098
10.085,0.030
10.090,0.009
10.095,0.000
10.100,-0.072
10.105,-0.101
10.110,-0.096
10.115,-0.142
10.120,-0.172
10.125,-0.155
10.130,-0.167
10.135,-0.208
10.140,-0.192
10.145,-0.159
10.150,-0.179
10.155,-0.173
10.160,-0.131
10.165,-0.143
10.170,-0.159
10.175,-0.123
10.180,-0.119
10.185,-0.145
10.190,-0.127
10.195,-0.098
10.200,-0.113
10.205,-0.100
10.210,-0.034
10.215,-0.039
10.220,-0.058
10.225,-0.018
10.230,-0.020
10.235,-0.050
10.240,-0.032
10.245,-0.010
10.250,-0.031
10.255,-0.033
10.260,0.002
10.265,-0.012
10.270,-0.040
10.275,-0.006
10.280,-0.006
10.285,-0.040
10.290,-0.025
10.295,0.001
10.300,0.010
10.305,0.038
10.310,0.084
10.315,0.081
10.320,0.073
10.325,0.128
10.330,0.152
10.335,0.134
10.340,0.137
10.345,0.130
10.350,0.095
10.355,0.090
10.360,0.098
10.365,0.051
10.370,-0.006
10.375,-0.016
10.380,-0.051
10.385,-0.096
10.390,-0.072
10.395,-0.080
10.400,-0.092
10.405,-0.056
10.410,-0.030
10.415,-0.045
10.420,-0.061
10.425,-0.020
10.430,-0.008
10.435,-0.047
10.440,-0.031
10.445,0.001
10.450,-0.025
10.455,-0.014
10.460,0.053
10.465,0.138
10.470,0.340
10.475,0.812
10.480,1.411
10.485,1.793
10.490,1.891
10.495,1.670
10.500,0.939
10.505,-0.047
10.510,-0.577
10.515,-0.596
10.520,-0.538
10.525,-0.474
10.530,-0.431
10.535,-0.455
10.540,-0.443
10.545,-0.413
10.550,-0.426
10.555,-0.396
10.560,-0.347
10.565,-0.355
10.570,-0.346
10.575,-0.298
10.580,-0.244
10.585,-0.248
10.590,-0.232
10.595,-0.190
10.600,-0.215
10.605,-0.196
10.610,-0.130
10.615,-0.133
10.620,-0.136
10.625,-0.081
10.630,-0.067
10.635,-0.090
10.640,-0.061
10.645,-0.022
10.650,-0.036
10.655,-0.014
10.660,0.064
10.665,0.067
10.670,0.052
10.675,0.106
10.680,0.129
10.685,0.123
10.690,0.161
10.695,0.186
10.700,0.150
10.705,0.148
10.710,0.202
10.715,0.184
10.720,0.147
10.725,0.173
10.730,0.149
10.735,0.081
10.740,0.065
10.745,0.046
10.750,-0.030
10.755,-0.079
10.760,-0.046
10.765,-0.073
10.770,-0.137
10.775,-0.123
10.780,-0.139
10.785,-0.193
10.790,-0.182
10.795,-0.165
10.800,-0.200
10.805,-0.201
10.810,-0.154
10.815,-0.151
10.820,-0.166
10.825,-0.129
10.830,-0.120
10.835,-0.145
10.840,-0.115
10.845,-0.089
10.850,-0.115
10.855,-0.113
10.860,-0.076
10.865,-0.068
10.870,-0.076
10.875,-0.042
10.880,-0.029
10.885,-0.064
10.890,-0.048
10.895,-0.029
10.900,-0.067
10.905,-0.083
10.910,-0.057
10.915,-0.054
10.920,-0.072
10.925,-0.051
10.930,-0.049
10.935,-0.084
10.940,-0.051
10.945,-0.003
10.950,-0.024
10.955,-0.006
10.960,0.046
10.965,0.057
10.970,0.064
10.975,0.096
10.980,0.110
10.985,0.103
10.990,0.142
10.995,0.163
11.000,0.112
11.005,0.098
11.010,0.129
11.015,0.108
11.020,0.077
11.025,0.083
11.030,0.046
11.035,-0.022
11.040,-0.025
11.045,-0.024
11.050,-0.084
11.055,-0.097
11.060,-0.064
11.065,-0.086
11.070,-0.083
11.075,-0.042
11.080,-0.048
11.085,-0.073
11.090,-0.045
11.095,-0.020
11.100,-0.054
11.105,-0.056
11.110,-0.030
11.115,-0.036
11.120,0.034
11.125,0.257
11.130,0.591
11.135,1.127
11.140,1.689
11.145,1.917
11.150,1.799
11.155,1.330
11.160,0.420
11.165,-0.429
11.170,-0.643
11.175,-0.516
11.180,-0.465
11.185,-0.453
11.190,-0.406
11.195,-0.383
11.200,-0.403
11.205,-0.395
11.210,-0.348
11.215,-0.350
11.220,-0.347
11.225,-0.280
11.230,-0.260
11.235,-0.277
11.240,-0.237
11.245,-0.201
11.250,-0.220
11.255,-0.212
11.260,-0.166
11.265,-0.179
11.270,-0.183
11.275,-0.112
11.280,-0.105
11.285,-0.145
11.290,-0.110
11.295,-0.085
11.300,-0.106
11.305,-0.061
11.310,-0.002
11.315,0.009
11.320,0.018
11.325,0.083
11.330,0.118
11.335,0.110
11.340,0.164
11.345,0.198
11.350,0.174
11.355,0.178
11.360,0.208
11.365,0.184
11.370,0.159
11.375,0.212
11.380,0.221
11.385,0.165
11.390,0.162
11.395,0.151
11.400,0.079
11.405,0.040
11.410,0.028
11.415,-0.043
11.420,-0.116
11.425,-0.114
11.430,-0.121
11.435,-0.181
11.440,-0.184
11.445,-0.175
11.450,-0.222
11.455,-0.231
11.460,-0.197
11.465,-0.213
11.470,-0.238
11.475,-0.204
11.480,-0.167
11.485,-0.170
11.490,-0.147
11.495,-0.105
11.500,-0.118
11.505,-0.115
11.510,-0.073
11.515,-0.089
11.520,-0.116
11.525,-0.077
11.530,-0.041
11.535,-0.061
11.540,-0.046
11.545,-0.025
11.550,-0.061
11.555,-0.056
11.560,-0.020
11.565,-0.040
11.570,-0.063
11.575,-0.037
11.580,-0.017
11.585,-0.035
11.590,-0.017
11.595,0.005
11.600,-0.029
11.605,-0.028
11.610,0.009
11.615,-0.014
11.620,-0.032
11.625,0.014
11.630,0.044
11.635,0.055
11.640,0.093
11.645,0.118
11.650,0.091
11.655,0.099
11.660,0.148
11.665,0.127
11.670,0.084
11.675,0.105
11.680,0.135
11.685,0.124
11.690,0.113
11.695,0.093
11.700,0.024
11.705,-0.010
11.710,0.004
11.715,-0.043
11.720,-0.092
11.725,-0.077
11.730,-0.077
11.735,-0.080
11.740,-0.056
11.745,-0.047
11.750,-0.070
11.755,-0.060
11.760,-0.022
11.765,-0.042
11.770,-0.057
11.775,-0.015
11.780,-0.014
11.785,-0.020
11.790,0.065
11.795,0.218
11.800,0.476
11.805,0.984
11.810,1.580
11.815,1.850
11.820,1.779
11.825,1.447
11.830,0.615
11.835,-0.318
11.840,-0.646
11.845,-0.578
11.850,-0.543
11.855,-0.495
11.860,-0.395
11.865,-0.405
11.870,-0.429
11.875,-0.369
11.880,-0.365
11.885,-0.380
11.890,-0.313
11.895,-0.274
11.900,-0.305
11.905,-0.282
11.910,-0.231
11.915,-0.238
11.920,-0.242
11.925,-0.183
11.930,-0.178
11.935,-0.207
11.940,-0.156
11.945,-0.135
11.950,-0.165
11.955,-0.136
11.960,-0.089
11.965,-0.095
11.970,-0.098
11.975,-0.047
11.980,-0.032
11.985,-0.046
11.990,0.014
11.995,0.069
12.000,0.055
12.005,0.080
12.010,0.138
12.015,0.132
12.020,0.104
12.025,0.136
12.030,0.143
12.035,0.114
12.040,0.190
12.045,0.234
12.050,0.191
12.055,0.190
12.060,0.197
12.065,0.144
12.070,0.086
12.075,0.084
12.080,0.050
12.085,-0.037
12.090,-0.064
12.095,-0.054
12.100,-0.126
12.105,-0.165
12.110,-0.142
12.115,-0.180
12.120,-0.213
12.125,-0.191
12.130,-0.190
12.135,-0.216
12.140,-0.188
12.145,-0.131
12.150,-0.150
12.155,-0.153
12.160,-0.109
12.165,-0.129
12.170,-0.147
12.175,-0.113
12.180,-0.118
12.185,-0.153
12.190,-0.125
12.195,-0.077
12.200,-0.100
12.205,-0.110
12.210,-0.081
12.215,-0.106
12.220,-0.108
12.225,-0.055
12.230,-0.035
12.235,-0.057
12.240,-0.054
12.245,-0.028
12.250,-0.029
12.255,-0.024
12.260,-0.003
12.265,-0.028
12.270,-0.043
12.275,-0.002
12.280,-0.005
12.285,-0.034
12.290,-0.005
12.295,0.036
12.300,0.055
12.305,0.071
12.310,0.098
12.315,0.096
12.320,0.095
12.325,0.159
12.330,0.184
12.335,0.146
12.340,0.134
12.345,0.136
12.350,0.116
12.355,0.089
12.360,0.080
12.365,0.035
12.370,-0.020
12.375,-0.021
12.380,-0.048
12.385,-0.102
12.390,-0.111
12.395,-0.108
12.400,-0.109
12.405,-0.096
12.410,-0.059
12.415,-0.032
12.420,-0.051
12.425,-0.039
12.430,-0.030
12.435,-0.051
12.440,-0.023
12.445,-0.013
12.450,-0.041
12.455,0.002
12.460,0.113
12.465,0.286
12.470,0.657
12.475,1.241
12.480,1.736
12.485,1.875
12.490,1.741
12.495,1.159
12.500,0.116
12.505,-0.548
12.510,-0.585
12.515,-0.529
12.520,-0.497
12.525,-0.423
12.530,-0.411
12.535,-0.440
12.540,-0.403
12.545,-0.375
12.550,-0.387
12.555,-0.339
12.560,-0.288
12.565,-0.310
12.570,-0.321
12.575,-0.281
12.580,-0.254
12.585,-0.256
12.590,-0.226
12.595,-0.143
12.600,-0.146
12.605,-0.138
12.610,-0.070
12.615,-0.092
12.620,-0.112
12.625,-0.065
12.630,-0.051
12.635,-0.070
12.640,-0.038
12.645,-0.003
12.650,-0.019
12.655,0.013
12.660,0.096
12.665,0.108
12.670,0.108
12.675,0.153
12.680,0.159
12.685,0.147
12.690,0.178
12.695,0.195
12.700,0.162
12.705,0.170
12.710,0.223
12.715,0.198
12.720,0.172
12.725,0.202
12.730,0.166
12.735,0.087
12.740,0.054
12.745,0.015
12.750,-0.063
12.755,-0.107
12.760,-0.090
12.765,-0.133
12.770,-0.198
12.775,-0.148
12.780,-0.154
12.785,-0.207
12.790,-0.186
12.795,-0.167
12.800,-0.186
12.805,-0.178
12.810,-0.124
12.815,-0.125
12.820,-0.140
12.825,-0.101
12.830,-0.094
12.835,-0.119
12.840,-0.092
12.845,-0.071
12.850,-0.097
12.855,-0.090
12.860,-0.048
12.865,-0.047
12.870,-0.062
12.875,-0.035
12.880,-0.031
12.885,-0.060
12.890,-0.044
12.895,-0.045
12.900,-0.091
12.905,-0.085
12.910,-0.052
12.915,-0.055
12.920,-0.059
12.925,-0.021
12.930,-0.013
12.935,-0.046
12.940,-0.007
12.945,0.031
12.950,0.002
12.955,0.033
12.960,0.104
12.965,0.133
12.970,0.136
12.975,0.150
12.980,0.139
12.985,0.094
12.990,0.108
12.995,0.113
13.000,0.045
13.005,0.003
13.010,-0.005
13.015,-0.041
13.020,-0.068
13.025,-0.052
13.030,-0.064
13.035,-0.109
13.040,-0.104
13.045,-0.086
13.050,-0.112
13.055,-0.105
13.060,-0.084
13.065,-0.104
13.070,-0.097
13.075,-0.055
13.080,-0.055
13.085,-0.077
13.090,-0.056
13.095,-0.008
13.100,0.063
13.105,0.280
13.110,0.739
13.115,1.310
13.120,1.740
13.125,1.891
13.130,1.672
13.135,0.936
13.140,-0.043
13.145,-0.586
13.150,-0.610
13.155,-0.513
13.160,-0.429
13.165,-0.399
13.170,-0.397
13.175,-0.357
13.180,-0.344
13.185,-0.362
13.190,-0.334
13.195,-0.294
13.200,-0.310
13.205,-0.297
13.210,-0.250
13.215,-0.264
13.220,-0.265
13.225,-0.200
13.230,-0.181
13.235,-0.203
13.240,-0.173
13.245,-0.140
13.250,-0.158
13.255,-0.149
13.260,-0.106
13.265,-0.104
13.270,-0.105
13.275,-0.051
13.280,-0.032
13.285,-0.050
13.290,-0.017
13.295,0.022
13.300,0.003
13.305,0.001
13.310,0.057
13.315,0.082
13.320,0.094
13.325,0.146
13.330,0.184
13.335,0.156
13.340,0.167
13.345,0.193
13.350,0.146
13.355,0.122
13.360,0.134
13.365,0.103
13.370,0.061
13.375,0.071
13.380,0.038
13.385,-0.031
13.390,-0.045
13.395,-0.075
13.400,-0.154
13.405,-0.193
13.410,-0.196
13.415,-0.239
13.420,-0.268
13.425,-0.235
13.430,-0.235
13.435,-0.272
13.440,-0.251
13.445,-0.230
13.450,-0.256
13.455,-0.236
13.460,-0.192
13.465,-0.211
13.470,-0.241
13.475,-0.247
13.480,-0.303
13.485,-0.298
13.490,-0.190
13.495,-0.165
13.500,-0.222
13.505,-0.196
13.510,-0.090
13.515,-0.116
13.520,-0.161
13.525,-0.083
13.530,-0.017
13.535,-0.006
13.540,0.001
13.545,-0.013
13.550,-0.073
13.555,-0.059
13.560,0.022
13.565,0.026
13.570,0.013
13.575,0.076
13.580,0.117
13.585,0.109
13.590,0.142
13.595,0.173
13.600,0.148
13.605,0.152
13.610,0.162
13.615,0.114
13.620,0.094
13.625,0.127
13.630,0.115
13.635,0.069
13.640,0.060
13.645,0.040
13.650,-0.023
13.655,-0.043
13.660,-0.028
13.665,-0.061
13.670,-0.080
13.675,-0.031
13.680,-0.018
13.685,-0.039
13.690,0.006
13.695,0.041
13.700,0.028
13.705,0.057
13.710,0.098
13.715,0.078
13.720,0.072
13.725,0.126
13.730,0.147
13.735,0.189
13.740,0.354
13.745,0.681
13.750,1.190
13.755,1.733
13.760,2.009
13.765,1.914
13.770,1.460
13.775,0.589
13.780,-0.264
13.785,-0.534
13.790,-0.421
13.795,-0.342
13.800,-0.333
13.805,-0.314
13.810,-0.289
13.815,-0.304
13.820,-0.300
13.825,-0.229
13.830,-0.199
13.835,-0.215
13.840,-0.183
13.845,-0.156
13.850,-0.176
13.855,-0.158
13.860,-0.116
13.865,-0.136
13.870,-0.135
13.875,-0.062
13.880,-0.035
13.885,-0.044
13.890,-0.008
13.895,0.023
13.900,0.013
13.905,0.032
13.910,0.067
13.915,0.048
13.920,0.038
13.925,0.080
13.930,0.111
13.935,0.108
13.940,0.149
13.945,0.188
13.950,0.173
13.955,0.194
13.960,0.236
13.965,0.228
13.970,0.221
13.975,0.254
13.980,0.256
13.985,0.214
13.990,0.229
13.995,0.241
14.000,0.186
14.005,0.162
14.010,0.164
14.015,0.103
14.020,0.028
14.025,0.001
14.030,-0.042
14.035,-0.119
14.040,-0.139
14.045,-0.166
14.050,-0.235
14.055,-0.224
14.060,-0.193
14.065,-0.193
14.070,-0.209
14.075,-0.200
14.080,-0.187
14.085,-0.198
14.090,-0.164
14.095,-0.138
14.100,-0.162
14.105,-0.162
14.110,-0.139
14.115,-0.161
14.120,-0.171
14.125,-0.141
14.130,-0.139
14.135,-0.141
14.140,-0.117
14.145,-0.108
14.150,-0.129
14.155,-0.120
14.160,-0.092
14.165,-0.102
14.170,-0.119
14.175,-0.126
14.180,-0.131
14.185,-0.127
14.190,-0.103
14.195,-0.085
14.200,-0.095
14.205,-0.073
14.210,-0.023
14.215,-0.037
14.220,-0.052
14.225,-0.018
14.230,-0.005
14.235,0.009
14.240,0.046
14.245,0.074
14.250,0.035
14.255,0.028
14.260,0.055
14.265,0.001
14.270,-0.030
14.275,-0.018
14.280,-0.072
14.285,-0.130
14.290,-0.100
14.295,-0.099
14.300,-0.157
14.305,-0.153
14.310,-0.113
14.315,-0.131
14.320,-0.149
14.325,-0.110
14.330,-0.109
14.335,-0.142
14.340,-0.096
14.345,-0.074
14.350,-0.117
14.355,-0.103
14.360,-0.064
14.365,-0.056
14.370,0.028
14.375,0.275
14.380,0.679
14.385,1.219
14.390,1.693
14.395,1.802
14.400,1.559
14.405,0.939
14.410,-0.002
14.415,-0.631
14.420,-0.683
14.425,-0.534
14.430,-0.480
14.435,-0.474
14.440,-0.411
14.445,-0.385
14.450,-0.414
14.455,-0.392
14.460,-0.346
14.465,-0.355
14.470,-0.355
14.475,-0.302
14.480,-0.292
14.485,-0.311
14.490,-0.259
14.495,-0.208
14.500,-0.227
14.505,-0.211
14.510,-0.162
14.515,-0.171
14.520,-0.175
14.525,-0.130
14.530,-0.114
14.535,-0.134
14.540,-0.101
14.545,-0.046
14.550,-0.061
14.555,-0.045
14.560,0.016
14.565,0.017
14.570,0.023
14.575,0.065
14.580,0.066
14.585,0.051
14.590,0.095
14.595,0.151
14.600,0.133
14.605,0.148
14.610,0.214
14.615,0.204
14.620,0.198
14.625,0.224
14.630,0.200
14.635,0.150
14.640,0.137
14.645,0.133
14.650,0.083
14.655,0.050
14.660,0.039
14.665,-0.023
14.670,-0.076
14.675,-0.076
14.680,-0.116
14.685,-0.176
14.690,-0.174
14.695,-0.164
14.700,-0.185
14.705,-0.177
14.710,-0.148
14.715,-0.164
14.720,-0.169
14.725,-0.128
14.730,-0.114
14.735,-0.137
14.740,-0.137
14.745,-0.113
14.750,-0.111
14.755,-0.102
14.760,-0.075
14.765,-0.089
14.770,-0.105
14.775,-0.071
14.780,-0.084
14.785,-0.112
14.790,-0.067
14.795,-0.062
14.800,-0.055
14.805,-0.029
14.810,-0.021
14.815,-0.041
14.820,-0.060
14.825,-0.026
14.830,-0.033
14.835,-0.060
14.840,-0.029
14.845,-0.015
14.850,-0.033
14.855,-0.017
14.860,0.013
14.865,0.008
14.870,0.015
14.875,0.066
14.880,0.080
14.885,0.059
14.890,0.077
14.895,0.106
14.900,0.125
14.905,0.167
14.910,0.172
14.915,0.116
14.920,0.097
14.925,0.125
14.930,0.088
14.935,0.022
14.940,0.017
14.945,-0.006
14.950,-0.074
14.955,-0.068
14.960,-0.064
14.965,-0.118
14.970,-0.126
14.975,-0.092
14.980,-0.054
14.985,-0.075
14.990,-0.064
14.995,-0.036
15.000,-0.067
15.005,-0.034
15.010,-0.002
15.015,-0.033
15.020,-0.035
15.025,-0.007
15.030,0.006
15.035,0.067
15.040,0.272
15.045,0.673
15.050,1.229
15.055,1.736
15.060,1.931
15.065,1.751
15.070,1.148
15.075,0.181
15.080,-0.529
15.085,-0.636
15.090,-0.523
15.095,-0.476
15.100,-0.472
15.105,-0.427
15.110,-0.380
15.115,-0.409
15.120,-0.416
15.125,-0.359
15.130,-0.342
15.135,-0.349
15.140,-0.310
15.145,-0.286
15.150,-0.324
15.155,-0.310
15.160,-0.197
15.165,-0.176
15.170,-0.194
15.175,-0.132
15.180,-0.125
15.185,-0.141
15.190,-0.094
15.195,-0.065
15.200,-0.095
15.205,-0.075
15.210,0.001
15.215,-0.010
15.220,-0.022
15.225,0.034
15.230,0.045
15.235,0.045
15.240,0.095
15.245,0.122
15.250,0.099
15.255,0.125
15.260,0.191
15.265,0.187
15.270,0.175
15.275,0.211
15.280,0.203
15.285,0.173
15.290,0.191
15.295,0.192
15.300,0.144
15.305,0.121
15.310,0.127
15.315,0.085
15.320,0.027
15.325,0.018
15.330,-0.026
15.335,-0.105
15.340,-0.106
15.345,-0.098
15.350,-0.147
15.355,-0.158
15.360,-0.141
15.365,-0.150
15.370,-0.162
15.375,-0.130
15.380,-0.121
15.385,-0.155
15.390,-0.127
15.395,-0.105
15.400,-0.136
15.405,-0.130
15.410,-0.090
15.415,-0.081
15.420,-0.085
15.425,-0.053
15.430,-0.051
15.435,-0.079
15.440,-0.051
15.445,-0.038
15.450,-0.071
15.455,-0.068
15.460,-0.044
15.465,-0.047
15.470,-0.044
15.475,-0.019
15.480,-0.030
15.485,-0.057
15.490,-0.027
15.495,-0.019
15.500,-0.057
15.505,-0.049
15.510,-0.018
15.515,-0.025
15.520,-0.009
15.525,0.039
15.530,0.038
15.535,0.068
15.540,0.122
15.545,0.143
15.550,0.129
15.555,0.119
15.560,0.121
15.565,0.092
15.570,0.099
15.575,0.104
15.580,0.054
15.585,-0.007
15.590,-0.021
15.595,-0.024
15.600,-0.077
15.605,-0.096
15.610,-0.087
15.615,-0.109
15.620,-0.081
15.625,-0.041
15.630,-0.064
15.635,-0.091
15.640,-0.068
15.645,-0.063
15.650,-0.101
15.655,-0.089
15.660,-0.060
15.665,-0.086
15.670,-0.069
15.675,0.018
15.680,0.118
15.685,0.320
15.690,0.802
15.695,1.398
15.700,1.750
15.705,1.817
15.710,1.574
15.715,0.827
15.720,-0.152
15.725,-0.598
15.730,-0.565
15.735,-0.517
15.740,-0.439
15.745,-0.400
15.750,-0.419
15.755,-0.386
15.760,-0.347
15.765,-0.374
15.770,-0.371
15.775,-0.286
15.780,-0.268
15.785,-0.286
15.790,-0.235
15.795,-0.211
15.800,-0.235
15.805,-0.216
15.810,-0.175
15.815,-0.188
15.820,-0.178
15.825,-0.103
15.830,-0.096
15.835,-0.118
15.840,-0.072
15.845,-0.051
15.850,-0.074
15.855,-0.058
15.860,-0.020
15.865,-0.033
15.870,-0.032
15.875,0.037
15.880,0.063
15.885,0.044
15.890,0.084
15.895,0.138
15.900,0.133
15.905,0.159
15.910,0.201
15.915,0.170
15.920,0.148
15.925,0.192
15.930,0.213
15.935,0.186
15.940,0.192
15.945,0.186
15.950,0.122
15.955,0.095
15.960,0.086
15.965,0.022
15.970,-0.040
15.975,-0.056
15.980,-0.078
15.985,-0.135
15.990,-0.148
15.995,-0.152
16.000,-0.204
16.005,-0.204
16.010,-0.176
16.015,-0.206
16.020,-0.226
16.025,-0.190
16.030,-0.166
16.035,-0.183
16.040,-0.161
16.045,-0.134
16.050,-0.161
16.055,-0.153
16.060,-0.124
16.065,-0.141
16.070,-0.156
16.075,-0.127
16.080,-0.107
16.085,-0.101
16.090,-0.042
16.095,-0.030
16.100,-0.079
16.105,-0.066
16.110,-0.040
16.115,-0.066
16.120,-0.068
16.125,-0.040
16.130,-0.050
16.135,-0.062
16.140,-0.034
16.145,-0.012
16.150,-0.025
16.155,-0.007
16.160,0.042
16.165,0.035
16.170,0.030
16.175,0.075
16.180,0.092
16.185,0.108
16.190,0.140
16.195,0.127
16.200,0.084
16.205,0.090
16.210,0.112
16.215,0.059
16.220,0.012
16.225,0.012
16.230,-0.030
16.235,-0.071
16.240,-0.070
16.245,-0.078
16.250,-0.125
16.255,-0.123
16.260,-0.082
16.265,-0.114
16.270,-0.090
16.275,-0.034
16.280,-0.050
16.285,-0.057
16.290,-0.018
16.295,-0.003
16.300,-0.037
16.305,-0.027
16.310,0.014
16.315,0.037
16.320,0.140
16.325,0.424
16.330,0.886
16.335,1.442
16.340,1.835
16.345,1.872
16.350,1.549
16.355,0.808
16.360,-0.116
16.365,-0.611
16.370,-0.603
16.375,-0.485
16.380,-0.448
16.385,-0.447
16.390,-0.399
16.395,-0.381
16.400,-0.411
16.405,-0.380
16.410,-0.335
16.415,-0.344
16.420,-0.353
16.425,-0.309
16.430,-0.293
16.435,-0.308
16.440,-0.259
16.445,-0.223
16.450,-0.202
16.455,-0.171
16.460,-0.136
16.465,-0.140
16.470,-0.155
16.475,-0.103
16.480,-0.080
16.485,-0.088
16.490,-0.040
16.495,-0.003
16.500,-0.024
16.505,-0.002
16.510,0.045
16.515,0.036
16.520,0.041
16.525,0.094
16.530,0.116
16.535,0.118
16.540,0.167
16.545,0.206
16.550,0.179
16.555,0.184
16.560,0.222
16.565,0.199
16.570,0.181
16.575,0.206
16.580,0.187
16.585,0.149
16.590,0.145
16.595,0.128
16.600,0.060
16.605,0.018
16.610,0.000
16.615,-0.075
16.620,-0.138
16.625,-0.146
16.630,-0.156
16.635,-0.181
16.640,-0.165
16.645,-0.146
16.650,-0.183
16.655,-0.178
16.660,-0.142
16.665,-0.164
16.670,-0.171
16.675,-0.139
16.680,-0.146
16.685,-0.161
16.690,-0.121
16.695,-0.091
16.700,-0.113
16.705,-0.103
16.710,-0.064
16.715,-0.084
16.720,-0.099
16.725,-0.067
16.730,-0.083
16.735,-0.105
16.740,-0.068
16.745,-0.057
16.750,-0.086
16.755,-0.077
16.760,-0.051
16.765,-0.072
16.770,-0.090
16.775,-0.061
16.780,-0.069
16.785,-0.096
16.790,-0.051
16.795,-0.023
16.800,-0.042
16.805,-0.027
16.810,0.019
16.815,0.029
16.820,0.034
16.825,0.107
16.830,0.129
16.835,0.116
16.840,0.167
16.845,0.161
16.850,0.105
16.855,0.112
16.860,0.132
16.865,0.086
16.870,0.041
16.875,0.033
16.880,-0.013
16.885,-0.066
16.890,-0.049
16.895,-0.049
16.900,-0.096
16.905,-0.086
16.910,-0.059
16.915,-0.086
16.920,-0.093
16.925,-0.057
16.930,-0.065
16.935,-0.095
16.940,-0.061
16.945,-0.030
16.950,-0.048
16.955,-0.040
16.960,-0.015
16.965,0.008
16.970,0.128
16.975,0.402
16.980,0.863
16.985,1.412
16.990,1.785
16.995,1.843
17.000,1.537
17.005,0.833
17.010,-0.080
17.015,-0.599
17.020,-0.587
17.025,-0.498
17.030,-0.466
17.035,-0.440
17.040,-0.405
17.045,-0.379
17.050,-0.404
17.055,-0.394
17.060,-0.341
17.065,-0.354
17.070,-0.338
17.075,-0.257
17.080,-0.239
17.085,-0.251
17.090,-0.209
17.095,-0.178
17.100,-0.198
17.105,-0.170
17.110,-0.109
17.115,-0.125
17.120,-0.127
17.125,-0.074
17.130,-0.078
17.135,-0.099
17.140,-0.058
17.145,-0.029
17.150,-0.031
17.155,-0.009
17.160,0.013
17.165,-0.012
17.170,-0.001
17.175,0.060
17.180,0.072
17.185,0.114
17.190,0.170
17.195,0.191
17.200,0.196
17.205,0.205
17.210,0.236
17.215,0.216
17.220,0.195
17.225,0.222
17.230,0.204
17.235,0.155
17.240,0.147
17.245,0.127
17.250,0.080
17.255,0.060
17.260,0.054
17.265,-0.011
17.270,-0.076
17.275,-0.071
17.280,-0.102
17.285,-0.163
17.290,-0.163
17.295,-0.162
17.300,-0.182
17.305,-0.161
17.310,-0.136
17.315,-0.157
17.320,-0.162
17.325,-0.129
17.330,-0.133
17.335,-0.151
17.340,-0.122
17.345,-0.119
17.350,-0.145
17.355,-0.119
17.360,-0.096
17.365,-0.100
17.370,-0.084
17.375,-0.043
17.380,-0.044
17.385,-0.075
17.390,-0.048
17.395,-0.041
17.400,-0.079
17.405,-0.045
17.410,-0.005
17.415,-0.033
17.420,-0.039
17.425,-0.004
17.430,-0.013
17.435,-0.036
17.440,0.005
17.445,0.027
17.450,0.008
17.455,0.050
17.460,0.086
17.465,0.061
17.470,0.075
17.475,0.135
17.480,0.135
17.485,0.090
17.490,0.104
17.495,0.115
17.500,0.071
17.505,0.069
17.510,0.073
17.515,0.002
17.520,-0.054
17.525,-0.046
17.530,-0.068
17.535,-0.114
17.540,-0.108
17.545,-0.102
17.550,-0.149
17.555,-0.138
17.560,-0.069
17.565,-0.083
17.570,-0.101
17.575,-0.066
17.580,-0.071
17.585,-0.088
17.590,-0.060
17.595,-0.041
17.600,-0.066
17.605,-0.026
17.610,0.118
17.615,0.312
17.620,0.734
17.625,1.373
17.630,1.787
17.635,1.851
17.640,1.658
17.645,0.957
17.650,-0.087
17.655,-0.619
17.660,-0.565
17.665,-0.514
17.670,-0.490
17.675,-0.413
17.680,-0.417
17.685,-0.435
17.690,-0.399
17.695,-0.383
17.700,-0.404
17.705,-0.381
17.710,-0.326
17.715,-0.316
17.720,-0.308
17.725,-0.260
17.730,-0.243
17.735,-0.256
17.740,-0.179
17.745,-0.145
17.750,-0.183
17.755,-0.154
17.760,-0.104
17.765,-0.097
17.770,-0.089
17.775,-0.039
17.780,-0.032
17.785,-0.047
17.790,0.003
17.795,0.034
17.800,0.017
17.805,0.040
17.810,0.088
17.815,0.105
17.820,0.116
17.825,0.164
17.830,0.178
17.835,0.158
17.840,0.192
17.845,0.206
17.850,0.172
17.855,0.175
17.860,0.192
17.865,0.179
17.870,0.161
17.875,0.175
17.880,0.148
17.885,0.084
17.890,0.069
17.895,0.038
17.900,-0.045
17.905,-0.083
17.910,-0.095
17.915,-0.139
17.920,-0.125
17.925,-0.113
17.930,-0.144
17.935,-0.161
17.940,-0.149
17.945,-0.140
17.950,-0.173
17.955,-0.165
17.960,-0.137
17.965,-0.150
17.970,-0.139
17.975,-0.099
17.980,-0.105
17.985,-0.120
17.990,-0.090
17.995,-0.075
18.000,-0.104
18.005,-0.089
18.010,-0.061
18.015,-0.088
18.020,-0.076
18.025,-0.040
18.030,-0.061
18.035,-0.086
18.040,-0.065
18.045,-0.053
18.050,-0.080
18.055,-0.068
18.060,-0.050
18.065,-0.083
18.070,-0.065
18.075,-0.013
18.080,-0.019
18.085,-0.031
18.090,-0.002
18.095,0.009
18.100,0.019
18.105,0.080
18.110,0.130
18.115,0.110
18.120,0.094
18.125,0.119
18.130,0.104
18.135,0.065
18.140,0.066
18.145,0.051
18.150,-0.019
18.155,-0.048
18.160,-0.040
18.165,-0.084
18.170,-0.107
18.175,-0.067
18.180,-0.071
18.185,-0.099
18.190,-0.075
18.195,-0.064
18.200,-0.088
18.205,-0.075
18.210,-0.044
18.215,-0.073
18.220,-0.082
18.225,-0.019
18.230,-0.021
18.235,-0.046
18.240,0.041
18.245,0.188
18.250,0.444
18.255,0.956
18.260,1.541
18.265,1.796
18.270,1.749
18.275,1.431
18.280,0.580
18.285,-0.321
18.290,-0.611
18.295,-0.533
18.300,-0.491
18.305,-0.446
18.310,-0.394
18.315,-0.425
18.320,-0.428
18.325,-0.355
18.330,-0.334
18.335,-0.346
18.340,-0.301
18.345,-0.273
18.350,-0.284
18.355,-0.253
18.360,-0.210
18.365,-0.220
18.370,-0.212
18.375,-0.148
18.380,-0.124
18.385,-0.146
18.390,-0.112
18.395,-0.082
18.400,-0.102
18.405,-0.082
18.410,-0.049
18.415,-0.066
18.420,-0.066
18.425,-0.018
18.430,0.017
18.435,0.013
18.440,0.052
18.445,0.083
18.450,0.063
18.455,0.088
18.460,0.129
18.465,0.149
18.470,0.146
18.475,0.193
18.480,0.224
18.485,0.182
18.490,0.196
18.495,0.205
18.500,0.164
18.505,0.168
18.510,0.180
18.515,0.132
18.520,0.086
18.525,0.078
18.530,0.048
18.535,-0.011
18.540,-0.036
18.545,-0.064
18.550,-0.126
18.555,-0.145
18.560,-0.139
18.565,-0.180
18.570,-0.207
18.575,-0.186
18.580,-0.184
18.585,-0.189
18.590,-0.159
18.595,-0.149
18.600,-0.172
18.605,-0.155
18.610,-0.120
18.615,-0.146
18.620,-0.153
18.625,-0.125
18.630,-0.131
18.635,-0.126
18.640,-0.091
18.645,-0.062
18.650,-0.088
18.655,-0.063
18.660,-0.021
18.665,-0.055
18.670,-0.058
18.675,-0.037
18.680,-0.051
18.685,-0.051
18.690,-0.023
18.695,-0.009
18.700,-0.030
18.705,-0.034
18.710,0.005
18.715,0.005
18.720,0.011
18.725,0.060
18.730,0.059
18.735,0.058
18.740,0.120
18.745,0.150
18.750,0.118
18.755,0.110
18.760,0.123
18.765,0.097
18.770,0.072
18.775,0.068
18.780,0.021
18.785,-0.028
18.790,-0.017
18.795,-0.039
18.800,-0.099
18.805,-0.112
18.810,-0.115
18.815,-0.150
18.820,-0.151
18.825,-0.095
18.830,-0.101
18.835,-0.113
18.840,-0.044
18.845,-0.029
18.850,-0.062
18.855,-0.037
18.860,-0.010
18.865,-0.036
18.870,-0.037
18.875,0.038
18.880,0.134
18.885,0.330
18.890,0.822
18.895,1.415
18.900,1.756
18.905,1.816
18.910,1.588
18.915,0.863
18.920,-0.102
18.925,-0.591
18.930,-0.607
18.935,-0.557
18.940,-0.461
18.945,-0.396
18.950,-0.427
18.955,-0.413
18.960,-0.370
18.965,-0.385
18.970,-0.383
18.975,-0.335
18.980,-0.330
18.985,-0.347
18.990,-0.297
18.995,-0.247
19.000,-0.265
19.005,-0.237
19.010,-0.181
19.015,-0.189
19.020,-0.167
19.025,-0.121
19.030,-0.117
19.035,-0.132
19.040,-0.097
19.045,-0.033
19.050,-0.039
19.055,-0.030
19.060,0.018
19.065,0.007
19.070,0.015
19.075,0.070
19.080,0.082
19.085,0.063
19.090,0.113
19.095,0.185
19.100,0.171
19.105,0.179
19.110,0.221
19.115,0.191
19.120,0.179
19.125,0.215
19.130,0.196
19.135,0.156
19.140,0.167
19.145,0.177
19.150,0.132
19.155,0.108
19.160,0.099
19.165,0.034
19.170,-0.022
19.175,-0.033
19.180,-0.095
19.185,-0.165
19.190,-0.162
19.195,-0.173
19.200,-0.172
19.205,-0.161
19.210,-0.160
19.215,-0.176
19.220,-0.187
19.225,-0.145
19.230,-0.152
19.235,-0.172
19.240,-0.139
19.245,-0.131
19.250,-0.135
19.255,-0.111
19.260,-0.085
19.265,-0.096
19.270,-0.105
19.275,-0.065
19.280,-0.073
19.285,-0.099
19.290,-0.075
19.295,-0.065
19.300,-0.067
19.305,-0.053
19.310,-0.039
19.315,-0.060
19.320,-0.074
19.325,-0.043
19.330,-0.055
19.335,-0.077
19.340,-0.052
19.345,-0.051
19.350,-0.066
19.355,-0.030
19.360,0.005
19.365,-0.003
19.370,0.010
19.375,0.051
19.380,0.085
19.385,0.084
19.390,0.127
19.395,0.157
19.400,0.113
19.405,0.128
19.410,0.161
19.415,0.126
19.420,0.085
19.425,0.084
19.430,0.047
19.435,-0.020
19.440,-0.029
19.445,-0.044
19.450,-0.092
19.455,-0.063
19.460,-0.033
19.465,-0.067
19.470,-0.068
19.475,-0.036
19.480,-0.044
19.485,-0.067
19.490,-0.042
19.495,-0.036
19.500,-0.065
19.505,-0.019
19.510,0.015
19.515,-0.029
19.520,-0.016
19.525,0.095
19.530,0.253
19.535,0.608
19.540,1.213
19.545,1.685
19.550,1.797
19.555,1.687
19.560,1.179
19.565,0.180
19.570,-0.528
19.575,-0.585
19.580,-0.525
19.585,-0.513
19.590,-0.440
19.595,-0.410
19.600,-0.442
19.605,-0.409
19.610,-0.346
19.615,-0.354
19.620,-0.350
19.625,-0.296
19.630,-0.291
19.635,-0.297
19.640,-0.253
19.645,-0.230
19.650,-0.248
19.655,-0.221
19.660,-0.159
19.665,-0.169
19.670,-0.170
19.675,-0.116
19.680,-0.120
19.685,-0.137
19.690,-0.099
19.695,-0.079
19.700,-0.106
19.705,-0.080
19.710,-0.006
19.715,-0.009
19.720,-0.013
19.725,0.034
19.730,0.034
19.735,0.027
19.740,0.091
19.745,0.146
19.750,0.121
19.755,0.140
19.760,0.192
19.765,0.174
19.770,0.166
19.775,0.202
19.780,0.191
19.785,0.158
19.790,0.179
19.795,0.171
19.800,0.099
19.805,0.067
19.810,0.066
19.815,0.015
19.820,-0.034
19.825,-0.035
19.830,-0.073
19.835,-0.143
19.840,-0.140
19.845,-0.140
19.850,-0.192
19.855,-0.191
19.860,-0.160
19.865,-0.169
19.870,-0.175
19.875,-0.141
19.880,-0.133
19.885,-0.155
19.890,-0.122
19.895,-0.108
19.900,-0.129
19.905,-0.117
19.910,-0.095
19.915,-0.104
19.920,-0.111
19.925,-0.053
19.930,-0.053
19.935,-0.075
19.940,-0.033
19.945,-0.030
19.950,-0.059
19.955,-0.051
19.960,-0.028
19.965,-0.039
19.970,-0.040
19.975,-0.015
19.980,-0.023
19.985,-0.034
19.990,0.012
19.995,0.042
20.000,0.022
20.005,0.041
20.010,0.075
20.015,0.071
20.020,0.106
20.025,0.159
20.030,0.133
20.035,0.091
20.040,0.112
20.045,0.114
20.050,0.054
20.055,0.034
20.060,0.028
20.065,-0.038
20.070,-0.059
20.075,-0.043
20.080,-0.083
20.085,-0.128
20.090,-0.109
20.095,-0.101
20.100,-0.134
20.105,-0.087
20.110,-0.052
20.115,-0.066
20.120,-0.044
20.125,-0.014
20.130,-0.025
20.135,-0.051
20.140,-0.023
20.145,-0.015
20.150,-0.032
20.155,0.065
20.160,0.279
20.165,0.643
20.170,1.226
20.175,1.747
20.180,1.894
20.185,1.712
20.190,1.128
20.195,0.139
20.200,-0.562
20.205,-0.616
20.210,-0.500
20.215,-0.482
20.220,-0.446
20.225,-0.384
20.230,-0.389
20.235,-0.400
20.240,-0.353
20.245,-0.334
20.250,-0.352
20.255,-0.330
20.260,-0.293
20.265,-0.304
20.270,-0.298
20.275,-0.233
20.280,-0.229
20.285,-0.233
20.290,-0.173
20.295,-0.140
20.300,-0.150
20.305,-0.134
20.310,-0.093
20.315,-0.100
20.320,-0.100
20.325,-0.050
20.330,-0.054
20.335,-0.076
20.340,-0.032
20.345,-0.010
20.350,-0.018
20.355,0.018
20.360,0.068
20.365,0.062
20.370,0.064
20.375,0.128
20.380,0.155
20.385,0.146
20.390,0.189
20.395,0.205
20.400,0.172
20.405,0.175
20.410,0.180
20.415,0.149
20.420,0.134
20.425,0.153
20.430,0.132
20.435,0.071
20.440,0.054
20.445,0.030
20.450,-0.045
20.455,-0.084
20.460,-0.110
20.465,-0.171
20.470,-0.194
20.475,-0.163
20.480,-0.144
20.485,-0.170
20.490,-0.164
20.495,-0.146
20.500,-0.168
20.505,-0.148
20.510,-0.124
20.515,-0.151
20.520,-0.143
20.525,-0.095
20.530,-0.089
20.535,-0.107
20.540,-0.065
20.545,-0.041
20.550,-0.075
20.555,-0.057
20.560,-0.036
20.565,-0.074
20.570,-0.082
20.575,-0.039
20.580,-0.032
20.585,-0.043
20.590,-0.015
20.595,-0.010
20.600,-0.052
20.605,-0.040
20.610,0.000
20.615,-0.019
20.620,-0.022
20.625,0.031
20.630,0.036
20.635,0.023
20.640,0.057
20.645,0.082
20.650,0.075
20.655,0.081
20.660,0.131
20.665,0.101
20.670,0.077
20.675,0.118
20.680,0.079
20.685,0.029
20.690,0.018
20.695,-0.012
20.700,-0.060
20.705,-0.067
20.710,-0.057
20.715,-0.095
20.720,-0.103
20.725,-0.054
20.730,-0.063
20.735,-0.078
20.740,-0.041
20.745,-0.035
20.750,-0.067
20.755,-0.059
20.760,-0.030
20.765,-0.050
20.770,-0.061
20.775,-0.009
20.780,0.048
20.785,0.172
20.790,0.514
20.795,1.047
20.800,1.558
20.805,1.821
20.810,1.772
20.815,1.321
20.820,0.410
20.825,-0.407
20.830,-0.668
20.835,-0.612
20.840,-0.470
20.845,-0.407
20.850,-0.421
20.855,-0.394
20.860,-0.368
20.865,-0.378
20.870,-0.376
20.875,-0.325
20.880,-0.304
20.885,-0.306
20.890,-0.254
20.895,-0.226
20.900,-0.249
20.905,-0.223
20.910,-0.181
20.915,-0.193
20.920,-0.195
20.925,-0.146
20.930,-0.127
20.935,-0.136
20.940,-0.091
20.945,-0.062
20.950,-0.084
20.955,-0.053
20.960,-0.012
20.965,-0.033
20.970,-0.032
20.975,0.019
20.980,0.030
20.985,0.026
20.990,0.078
20.995,0.110
21.000,0.091
21.005,0.118
21.010,0.154
21.015,0.125
21.020,0.144
21.025,0.200
21.030,0.202
21.035,0.189
21.040,0.205
21.045,0.204
21.050,0.155
21.055,0.140
21.060,0.136
21.065,0.067
21.070,0.017
21.075,0.004
21.080,-0.051
21.085,-0.099
21.090,-0.106
21.095,-0.125
21.100,-0.171
21.105,-0.175
21.110,-0.153
21.115,-0.179
21.120,-0.183
21.125,-0.150
21.130,-0.155
21.135,-0.159
21.140,-0.127
21.145,-0.115
21.150,-0.141
21.155,-0.125
21.160,-0.091
21.165,-0.120
21.170,-0.130
21.175,-0.097
21.180,-0.107
21.185,-0.125
21.190,-0.102
21.195,-0.102
21.200,-0.114
21.205,-0.072
21.210,-0.038
21.215,-0.054
21.220,-0.060
21.225,-0.029
21.230,-0.038
21.235,-0.061
21.240,-0.023
21.245,-0.013
21.250,-0.039
21.255,-0.009
21.260,0.034
21.265,0.025
21.270,0.035
21.275,0.080
21.280,0.074
21.285,0.072
21.290,0.144
21.295,0.168
21.300,0.122
21.305,0.119
21.310,0.135
21.315,0.103
21.320,0.071
21.325,0.070
21.330,0.025
21.335,-0.035
21.340,-0.027
21.345,-0.051
21.350,-0.113
21.355,-0.113
21.360,-0.095
21.365,-0.121
21.370,-0.132
21.375,-0.108
21.380,-0.121
21.385,-0.120
21.390,-0.075
21.395,-0.037
21.400,-0.055
21.405,-0.041
21.410,0.005
21.415,-0.019
21.420,-0.006
21.425,0.103
21.430,0.246
21.435,0.537
21.440,1.104
21.445,1.656
21.450,1.846
21.455,1.768
21.460,1.355
21.465,0.425
21.470,-0.403
21.475,-0.589
21.480,-0.514
21.485,-0.483
21.490,-0.421
21.495,-0.389
21.500,-0.421
21.505,-0.390
21.510,-0.333
21.515,-0.349
21.520,-0.350
21.525,-0.310
21.530,-0.307
21.535,-0.334
21.540,-0.295
21.545,-0.242
21.550,-0.262
21.555,-0.249
21.560,-0.203
21.565,-0.199
21.570,-0.185
21.575,-0.113
21.580,-0.110
21.585,-0.142
21.590,-0.098
21.595,-0.063
21.600,-0.072
21.605,-0.047
21.610,0.001
21.615,-0.006
21.620,0.004
21.625,0.061
21.630,0.077
21.635,0.072
21.640,0.116
21.645,0.153
21.650,0.146
21.655,0.162
21.660,0.190
21.665,0.168
21.670,0.167
21.675,0.211
21.680,0.200
21.685,0.163
21.690,0.172
21.695,0.163
21.700,0.122
21.705,0.104
21.710,0.082
21.715,0.012
21.720,-0.031
21.725,-0.037
21.730,-0.098
21.735,-0.169
21.740,-0.177
21.745,-0.179
21.750,-0.212
21.755,-0.195
21.760,-0.161
21.765,-0.189
21.770,-0.196
21.775,-0.154
21.780,-0.159
21.785,-0.178
21.790,-0.145
21.795,-0.135
21.800,-0.145
21.805,-0.106
21.810,-0.077
21.815,-0.102
21.820,-0.106
21.825,-0.071
21.830,-0.079
21.835,-0.101
21.840,-0.074
21.845,-0.072
21.850,-0.096
21.855,-0.061
21.860,-0.033
21.865,-0.064
21.870,-0.067
21.875,-0.040
21.880,-0.057
21.885,-0.083
21.890,-0.056
21.895,-0.050
21.900,-0.076
21.905,-0.026
21.910,0.024
21.915,0.009
21.920,0.013
21.925,0.042
21.930,0.040
21.935,0.058
21.940,0.147
21.945,0.161
21.950,0.112
21.955,0.141
21.960,0.166
21.965,0.114
21.970,0.076
21.975,0.077
21.980,0.031
21.985,-0.027
21.990,-0.019
21.995,-0.030
22.000,-0.087
22.005,-0.072
22.010,-0.034
22.015,-0.061
22.020,-0.067
22.025,-0.030
22.030,-0.039
22.035,-0.064
22.040,-0.038
22.045,-0.031
22.050,-0.065
22.055,-0.043
22.060,0.000
22.065,-0.025
22.070,-0.003
22.075,0.137
22.080,0.352
22.085,0.791
22.090,1.410
22.095,1.803
22.100,1.824
22.105,1.573
22.110,0.856
22.115,-0.156
22.120,-0.617
22.125,-0.541
22.130,-0.479
22.135,-0.455
22.140,-0.403
22.145,-0.380
22.150,-0.405
22.155,-0.380
22.160,-0.318
22.165,-0.325
22.170,-0.324
22.175,-0.269
22.180,-0.265
22.185,-0.271
22.190,-0.226
22.195,-0.204
22.200,-0.229
22.205,-0.211
22.210,-0.163
22.215,-0.167
22.220,-0.153
22.225,-0.097
22.230,-0.100
22.235,-0.118
22.240,-0.080
22.245,-0.065
22.250,-0.090
22.255,-0.067
22.260,-0.022
22.265,-0.015
22.270,0.002
22.275,0.055
22.280,0.060
22.285,0.049
22.290,0.091
22.295,0.113
22.300,0.120
22.305,0.138
22.310,0.187
22.315,0.200
22.320,0.173
22.325,0.195
22.330,0.188
22.335,0.156
22.340,0.168
22.345,0.157
22.350,0.107
22.355,0.091
22.360,0.077
22.365,0.012
22.370,-0.043
22.375,-0.048
22.380,-0.084
22.385,-0.143
22.390,-0.146
22.395,-0.150
22.400,-0.188
22.405,-0.184
22.410,-0.162
22.415,-0.168
22.420,-0.167
22.425,-0.142
22.430,-0.147
22.435,-0.161
22.440,-0.129
22.445,-0.113
22.450,-0.141
22.455,-0.124
22.460,-0.097
22.465,-0.115
22.470,-0.107
22.475,-0.080
22.480,-0.084
22.485,-0.095
22.490,-0.045
22.495,-0.010
22.500,-0.051
22.505,-0.041
22.510,-0.016
22.515,-0.047
22.520,-0.030
22.525,0.002
22.530,-0.026
22.535,-0.042
22.540,-0.003
22.545,0.018
22.550,0.004
22.555,0.032
22.560,0.058
22.565,0.036
22.570,0.072
22.575,0.137
22.580,0.139
22.585,0.112
22.590,0.115
22.595,0.117
22.600,0.078
22.605,0.062
22.610,0.061
22.615,0.003
22.620,-0.031
22.625,-0.016
22.630,-0.050
22.635,-0.096
22.640,-0.088
22.645,-0.091
22.650,-0.124
22.655,-0.122
22.660,-0.106
22.665,-0.132
22.670,-0.113
22.675,-0.028
22.680,-0.027
22.685,-0.050
22.690,-0.018
22.695,-0.009
22.700,-0.029
22.705,-0.003
22.710,0.094
22.715,0.225
22.720,0.566
22.725,1.190
22.730,1.701
22.735,1.870
22.740,1.796
22.745,1.278
22.750,0.265
22.755,-0.490
22.760,-0.598
22.765,-0.543
22.770,-0.502
22.775,-0.401
22.780,-0.393
22.785,-0.422
22.790,-0.374
22.795,-0.354
22.800,-0.371
22.805,-0.346
22.810,-0.310
22.815,-0.328
22.820,-0.327
22.825,-0.266
22.830,-0.249
22.835,-0.264
22.840,-0.217
22.845,-0.186
22.850,-0.208
22.855,-0.150
22.860,-0.113
22.865,-0.141
22.870,-0.133
22.875,-0.088
22.880,-0.062
22.885,-0.068
22.890,-0.029
22.895,0.002
22.900,-0.012
22.905,0.022
22.910,0.066
22.915,0.064
22.920,0.078
22.925,0.129
22.930,0.157
22.935,0.146
22.940,0.176
22.945,0.198
22.950,0.168
22.955,0.181
22.960,0.202
22.965,0.163
22.970,0.133
22.975,0.150
22.980,0.146
22.985,0.090
22.990,0.073
22.995,0.051
23.000,-0.023
23.005,-0.049
23.010,-0.061
23.015,-0.137
23.020,-0.189
23.025,-0.187
23.030,-0.198
23.035,-0.190
23.040,-0.175
23.045,-0.164
23.050,-0.177
23.055,-0.169
23.060,-0.134
23.065,-0.157
23.070,-0.161
23.075,-0.125
23.080,-0.119
23.085,-0.118
23.090,-0.087
23.095,-0.076
23.100,-0.093
23.105,-0.074
23.110,-0.045
23.115,-0.074
23.120,-0.081
23.125,-0.056
23.130,-0.072
23.135,-0.066
23.140,-0.029
23.145,-0.028
23.150,-0.056
23.155,-0.050
23.160,-0.031
23.165,-0.064
23.170,-0.068
23.175,-0.033
23.180,-0.036
23.185,-0.020
23.190,0.022
23.195,0.031
23.200,0.010
23.205,0.023
23.210,0.064
23.215,0.083
23.220,0.102
23.225,0.136
23.230,0.118
23.235,0.098
23.240,0.131
23.245,0.110
23.250,0.045
23.255,0.033
23.260,0.021
23.265,-0.041
23.270,-0.068
23.275,-0.056
23.280,-0.091
23.285,-0.108
23.290,-0.051
23.295,-0.042
23.300,-0.079
23.305,-0.056
23.310,-0.031
23.315,-0.060
23.320,-0.065
23.325,-0.027
23.330,-0.044
23.335,-0.065
23.340,-0.001
23.345,0.026
23.350,0.044
23.355,0.217
23.360,0.559
23.365,1.061
23.370,1.588
23.375,1.852
23.380,1.747
23.385,1.286
23.390,0.437
23.395,-0.384
23.400,-0.654
23.405,-0.545
23.410,-0.438
23.415,-0.424
23.420,-0.419
23.425,-0.385
23.430,-0.395
23.435,-0.409
23.440,-0.343
23.445,-0.302
23.450,-0.323
23.455,-0.292
23.460,-0.247
23.465,-0.259
23.470,-0.251
23.475,-0.208
23.480,-0.211
23.485,-0.227
23.490,-0.172
23.495,-0.130
23.500,-0.156
23.505,-0.132
23.510,-0.086
23.515,-0.101
23.520,-0.093
23.525,-0.048
23.530,-0.047
23.535,-0.063
23.540,-0.024
23.545,0.029
23.550,0.020
23.555,0.046
23.560,0.094
23.565,0.081
23.570,0.092
23.575,0.142
23.580,0.152
23.585,0.126
23.590,0.188
23.595,0.232
23.600,0.189
23.605,0.201
23.610,0.222
23.615,0.183
23.620,0.160
23.625,0.159
23.630,0.110
23.635,0.045
23.640,0.028
23.645,0.013
23.650,-0.045
23.655,-0.079
23.660,-0.091
23.665,-0.143
23.670,-0.168
23.675,-0.148
23.680,-0.176
23.685,-0.209
23.690,-0.183
23.695,-0.166
23.700,-0.173
23.705,-0.152
23.710,-0.131
23.715,-0.152
23.720,-0.153
23.725,-0.114
23.730,-0.126
23.735,-0.144
23.740,-0.119
23.745,-0.108
23.750,-0.111
23.755,-0.094
23.760,-0.081
23.765,-0.109
23.770,-0.076
23.775,-0.031
23.780,-0.051
23.785,-0.062
23.790,-0.050
23.795,-0.048
23.800,-0.047
23.805,-0.028
23.810,-0.013
23.815,-0.035
23.820,-0.045
23.825,-0.004
23.830,0.000
23.835,-0.004
23.840,0.036
23.845,0.053
23.850,0.051
23.855,0.085
23.860,0.121
23.865,0.124
23.870,0.137
23.875,0.154
23.880,0.119
23.885,0.091
23.890,0.112
23.895,0.087
23.900,0.030
23.905,0.036
23.910,0.020
23.915,-0.049
23.920,-0.074
23.925,-0.060
23.930,-0.091
23.935,-0.135
23.940,-0.113
23.945,-0.111
23.950,-0.117
23.955,-0.052
23.960,-0.016
23.965,-0.042
23.970,-0.045
23.975,-0.019
23.980,-0.030
23.985,-0.046
23.990,-0.004
23.995,0.009
24.000,0.018
24.005,0.186
24.010,0.495
24.015,0.963
24.020,1.530
24.025,1.852
24.030,1.809
24.035,1.443
24.040,0.658
24.045,-0.241
24.050,-0.644
24.055,-0.561
24.060,-0.447
24.065,-0.438
24.070,-0.420
24.075,-0.385
24.080,-0.391
24.085,-0.401
24.090,-0.363
24.095,-0.347
24.100,-0.366
24.105,-0.323
24.110,-0.266
24.115,-0.291
24.120,-0.289
24.125,-0.239
24.130,-0.237
24.135,-0.229
24.140,-0.179
24.145,-0.145
24.150,-0.171
24.155,-0.157
24.160,-0.086
24.165,-0.091
24.170,-0.091
24.175,-0.040
24.180,-0.033
24.185,-0.032
24.190,0.004
24.195,0.020
24.200,0.008
24.205,0.045
24.210,0.115
24.215,0.112
24.220,0.118
24.225,0.174
24.230,0.172
24.235,0.155
24.240,0.184
24.245,0.188
24.250,0.153
24.255,0.166
24.260,0.207
24.265,0.178
24.270,0.145
24.275,0.148
24.280,0.110
24.285,0.053
24.290,0.037
24.295,-0.007
24.300,-0.086
24.305,-0.129
24.310,-0.137
24.315,-0.153
24.320,-0.192
24.325,-0.163
24.330,-0.163
24.335,-0.206
24.340,-0.169
24.345,-0.159
24.350,-0.191
24.355,-0.174
24.360,-0.141
24.365,-0.140
24.370,-0.143
24.375,-0.105
24.380,-0.105
24.385,-0.140
24.390,-0.097
24.395,-0.079
24.400,-0.110
24.405,-0.092
24.410,-0.068
24.415,-0.075
24.420,-0.077
24.425,-0.055
24.430,-0.065
24.435,-0.087
24.440,-0.053
24.445,-0.056
24.450,-0.098
24.455,-0.088
24.460,-0.063
24.465,-0.074
24.470,-0.070
24.475,-0.046
24.480,-0.061
24.485,-0.090
24.490,-0.061
24.495,-0.035
24.500,-0.058
24.505,0.006
24.510,0.061
24.515,0.046
24.520,0.076
24.525,0.106
24.530,0.098
24.535,0.108
24.540,0.168
24.545,0.182
24.550,0.125
24.555,0.127
24.560,0.147
24.565,0.097
24.570,0.086
24.575,0.098
24.580,0.034
24.585,-0.029
24.590,-0.020
24.595,-0.029
24.600,-0.090
24.605,-0.088
24.610,-0.057
24.615,-0.091
24.620,-0.086
24.625,-0.045
24.630,-0.051
24.635,-0.059
24.640,-0.034
24.645,-0.037
24.650,-0.071
24.655,-0.055
24.660,-0.031
24.665,-0.069
24.670,-0.048
24.675,0.092
24.680,0.285
24.685,0.717
24.690,1.368
24.695,1.802
24.700,1.874
24.705,1.692
24.710,1.052
24.715,0.026
24.720,-0.574
24.725,-0.558
24.730,-0.491
24.735,-0.474
24.740,-0.404
24.745,-0.383
24.750,-0.408
24.755,-0.390
24.760,-0.358
24.765,-0.360
24.770,-0.337
24.775,-0.269
24.780,-0.268
24.785,-0.290
24.790,-0.242
24.795,-0.215
24.800,-0.232
24.805,-0.208
24.810,-0.169
24.815,-0.185
24.820,-0.186
24.825,-0.125
24.830,-0.120
24.835,-0.137
24.840,-0.094
24.845,-0.074
24.850,-0.095
24.855,-0.074
24.860,-0.038
24.865,-0.029
24.870,0.020
24.875,0.086
24.880,0.098
24.885,0.096
24.890,0.141
24.895,0.164
24.900,0.143
24.905,0.170
24.910,0.200
24.915,0.173
24.920,0.168
24.925,0.203
24.930,0.192
24.935,0.160
24.940,0.178
24.945,0.167
24.950,0.107
24.955,0.094
24.960,0.079
24.965,0.015
24.970,-0.022
24.975,-0.039
24.980,-0.089
24.985,-0.137
24.990,-0.138
24.995,-0.148
25.000,-0.190
25.005,-0.183
25.010,-0.171
25.015,-0.201
25.020,-0.195
25.025,-0.159
25.030,-0.169
25.035,-0.186
25.040,-0.159
25.045,-0.146
25.050,-0.134
25.055,-0.112
25.060,-0.086
25.065,-0.095
25.070,-0.088
25.075,-0.039
25.080,-0.047
25.085,-0.066
25.090,-0.034
25.095,-0.028
25.100,-0.062
25.105,-0.052
25.110,-0.027
25.115,-0.055
25.120,-0.059
25.125,-0.019
25.130,-0.029
25.135,-0.047
25.140,-0.018
25.145,-0.016
25.150,-0.051
25.155,-0.039
25.160,0.000
25.165,-0.012
25.170,-0.004
25.175,0.063
25.180,0.060
25.185,0.037
25.190,0.090
25.195,0.128
25.200,0.114
25.205,0.118
25.210,0.117
25.215,0.075
25.220,0.058
25.225,0.077
25.230,0.063
25.235,0.012
25.240,0.022
25.245,0.006
25.250,-0.059
25.255,-0.058
25.260,-0.048
25.265,-0.083
25.270,-0.091
25.275,-0.044
25.280,-0.048
25.285,-0.070
25.290,-0.035
25.295,-0.030
25.300,-0.060
25.305,-0.036
25.310,-0.008
25.315,-0.035
25.320,-0.044
25.325,0.011
25.330,0.084
25.335,0.220
25.340,0.585
25.345,1.149
25.350,1.642
25.355,1.875
25.360,1.808
25.365,1.286
25.370,0.304
25.375,-0.475
25.380,-0.644
25.385,-0.571
25.390,-0.494
25.395,-0.448
25.400,-0.469
25.405,-0.453
25.410,-0.404
25.415,-0.411
25.420,-0.388
25.425,-0.319
25.430,-0.303
25.435,-0.304
25.440,-0.258
25.445,-0.235
25.450,-0.253
25.455,-0.218
25.460,-0.179
25.465,-0.193
25.470,-0.191
25.475,-0.151
25.480,-0.136
25.485,-0.140
25.490,-0.105
25.495,-0.082
25.500,-0.098
25.505,-0.068
25.510,-0.023
25.515,-0.031
25.520,-0.025
25.525,0.019
25.530,0.033
25.535,0.047
25.540,0.095
25.545,0.119
25.550,0.112
25.555,0.137
25.560,0.166
25.565,0.140
25.570,0.137
25.575,0.163
25.580,0.145
25.585,0.135
25.590,0.159
25.595,0.155
25.600,0.125
25.605,0.138
25.610,0.130
25.615,0.063
25.620,0.025
25.625,0.004
25.630,-0.054
25.635,-0.098
25.640,-0.106
25.645,-0.127
25.650,-0.170
25.655,-0.175
25.660,-0.156
25.665,-0.186
25.670,-0.197
25.675,-0.166
25.680,-0.175
25.685,-0.178
25.690,-0.131
25.695,-0.119
25.700,-0.143
25.705,-0.121
25.710,-0.092
25.715,-0.124
25.720,-0.130
25.725,-0.093
25.730,-0.106
25.735,-0.115
25.740,-0.063
25.745,-0.063
25.750,-0.099
25.755,-0.079
25.760,-0.057
25.765,-0.089
25.770,-0.100
25.775,-0.065
25.780,-0.081
25.785,-0.065
25.790,-0.010
25.795,-0.017
25.800,-0.042
25.805,-0.024
25.810,0.005
25.815,-0.012
25.820,-0.009
25.825,0.040
25.830,0.045
25.835,0.036
25.840,0.091
25.845,0.109
25.850,0.100
25.855,0.151
25.860,0.180
25.865,0.133
25.870,0.112
25.875,0.139
25.880,0.106
25.885,0.048
25.890,0.063
25.895,0.043
25.900,-0.032
25.905,-0.041
25.910,-0.029
25.915,-0.076
25.920,-0.099
25.925,-0.076
25.930,-0.090
25.935,-0.123
25.940,-0.090
25.945,-0.069
25.950,-0.099
25.955,-0.079
25.960,-0.046
25.965,-0.029
25.970,-0.021
25.975,0.004
25.980,0.007
25.985,0.006
25.990,0.131
25.995,0.362
26.000,0.750
26.005,1.345
26.010,1.807
26.015,1.870
26.020,1.659
26.025,1.051
26.030,0.063
26.035,-0.588
26.040,-0.613
26.045,-0.492
26.050,-0.473
26.055,-0.436
26.060,-0.395
26.065,-0.418
26.070,-0.411
26.075,-0.360
26.080,-0.350
26.085,-0.369
26.090,-0.338
26.095,-0.291
26.100,-0.291
26.105,-0.273
26.110,-0.237
26.115,-0.250
26.120,-0.243
26.125,-0.198
26.130,-0.201
26.135,-0.219
26.140,-0.188
26.145,-0.129
26.150,-0.105
26.155,-0.078
26.160,-0.041
26.165,-0.054
26.170,-0.042
26.175,0.012
26.180,0.011
26.185,0.006
26.190,0.052
26.195,0.077
26.200,0.089
26.205,0.130
26.210,0.169
26.215,0.164
26.220,0.165
26.225,0.205
26.230,0.196
26.235,0.170
26.240,0.191
26.245,0.194
26.250,0.177
26.255,0.181
26.260,0.178
26.265,0.127
26.270,0.081
26.275,0.069
26.280,0.011
26.285,-0.058
26.290,-0.078
26.295,-0.117
26.300,-0.169
26.305,-0.177
26.310,-0.184
26.315,-0.228
26.320,-0.249
26.325,-0.209
26.330,-0.188
26.335,-0.204
26.340,-0.166
26.345,-0.152
26.350,-0.175
26.355,-0.133
26.360,-0.101
26.365,-0.126
26.370,-0.127
26.375,-0.092
26.380,-0.098
26.385,-0.112
26.390,-0.074
26.395,-0.069
26.400,-0.101
26.405,-0.063
26.410,-0.033
26.415,-0.068
26.420,-0.069
26.425,-0.035
26.430,-0.044
26.435,-0.069
26.440,-0.044
26.445,-0.044
26.450,-0.080
26.455,-0.045
26.460,-0.016
26.465,-0.053
26.470,-0.057
26.475,-0.024
26.480,-0.040
26.485,-0.067
26.490,-0.045
26.495,-0.039
26.500,-0.060
26.505,-0.009
26.510,0.085
26.515,0.078
26.520,0.085
26.525,0.144
26.530,0.148
26.535,0.151
26.540,0.186
26.545,0.177
26.550,0.118
26.555,0.135
26.560,0.172
26.565,0.118
26.570,0.079
26.575,0.078
26.580,0.017
26.585,-0.034
26.590,-0.021
26.595,-0.035
26.600,-0.094
26.605,-0.085
26.610,-0.029
26.615,-0.051
26.620,-0.072
26.625,-0.037
26.630,-0.049
26.635,-0.070
26.640,-0.042
26.645,-0.034
26.650,-0.071
26.655,-0.056
26.660,-0.006
26.665,-0.013
26.670,0.036
26.675,0.230
26.680,0.550
26.685,1.075
26.690,1.652
26.695,1.857
26.700,1.723
26.705,1.287
26.710,0.408
26.715,-0.415
26.720,-0.640
26.725,-0.522
26.730,-0.476
26.735,-0.459
26.740,-0.398
26.745,-0.387
26.750,-0.414
26.755,-0.390
26.760,-0.342
26.765,-0.330
26.770,-0.318
26.775,-0.274
26.780,-0.266
26.785,-0.273
26.790,-0.229
26.795,-0.211
26.800,-0.231
26.805,-0.206
26.810,-0.173
26.815,-0.170
26.820,-0.163
26.825,-0.124
26.830,-0.117
26.835,-0.133
26.840,-0.093
26.845,-0.074
26.850,-0.102
26.855,-0.087
26.860,-0.051
26.865,-0.038
26.870,-0.007
26.875,0.048
26.880,0.083
26.885,0.097
26.890,0.138
26.895,0.167
26.900,0.159
26.905,0.177
26.910,0.193
26.915,0.184
26.920,0.194
26.925,0.224
26.930,0.210
26.935,0.173
26.940,0.182
26.945,0.172
26.950,0.108
26.955,0.076
26.960,0.047
26.965,-0.016
26.970,-0.042
26.975,-0.054
26.980,-0.106
26.985,-0.151
26.990,-0.147
26.995,-0.157
27.000,-0.202
27.005,-0.197
27.010,-0.181
27.015,-0.209
27.020,-0.187
27.025,-0.148
27.030,-0.166
27.035,-0.185
27.040,-0.160
27.045,-0.153
27.050,-0.173
27.055,-0.142
27.060,-0.108
27.065,-0.107
27.070,-0.080
27.075,-0.054
27.080,-0.072
27.085,-0.083
27.090,-0.051
27.095,-0.044
27.100,-0.081
27.105,-0.070
27.110,-0.054
27.115,-0.093
27.120,-0.074
27.125,-0.022
27.130,-0.041
27.135,-0.061
27.140,-0.029
27.145,-0.021
27.150,-0.046
27.155,-0.036
27.160,-0.019
27.165,-0.049
27.170,-0.043
27.175,0.009
27.180,-0.003
27.185,-0.026
27.190,0.015
27.195,0.033
27.200,0.022
27.205,0.044
27.210,0.079
27.215,0.043
27.220,0.037
27.225,0.125
27.230,0.146
27.235,0.141
27.240,0.173
27.245,0.190
27.250,0.149
27.255,0.138
27.260,0.149
27.265,0.073
27.270,0.032
27.275,0.057
27.280,0.009
27.285,-0.048
27.290,-0.033
27.295,-0.044
27.300,-0.081
27.305,-0.066
27.310,-0.046
27.315,-0.081
27.320,-0.084
27.325,-0.032
27.330,-0.033
27.335,-0.053
27.340,-0.020
27.345,-0.013
27.350,-0.040
27.355,-0.026
27.360,-0.001
27.365,0.013
27.370,0.127
27.375,0.457
27.380,0.991
27.385,1.542
27.390,1.859
27.395,1.845
27.400,1.450
27.405,0.596
27.410,-0.305
27.415,-0.661
27.420,-0.613
27.425,-0.496
27.430,-0.434
27.435,-0.424
27.440,-0.382
27.445,-0.363
27.450,-0.385
27.455,-0.356
27.460,-0.316
27.465,-0.329
27.470,-0.329
27.475,-0.284
27.480,-0.250
27.485,-0.252
27.490,-0.219
27.495,-0.188
27.500,-0.201
27.505,-0.175
27.510,-0.145
27.515,-0.164
27.520,-0.162
27.525,-0.116
27.530,-0.092
27.535,-0.097
27.540,-0.067
27.545,-0.041
27.550,-0.056
27.555,-0.031
27.560,0.009
27.565,-0.004
27.570,0.013
27.575,0.062
27.580,0.075
27.585,0.085
27.590,0.118
27.595,0.128
27.600,0.115
27.605,0.166
27.610,0.209
27.615,0.173
27.620,0.171
27.625,0.187
27.630,0.159
27.635,0.154
27.640,0.166
27.645,0.140
27.650,0.085
27.655,0.052
27.660,0.031
27.665,-0.040
27.670,-0.086
27.675,-0.096
27.680,-0.142
27.685,-0.158
27.690,-0.148
27.695,-0.164
27.700,-0.195
27.705,-0.192
27.710,-0.171
27.715,-0.192
27.720,-0.195
27.725,-0.166
27.730,-0.184
27.735,-0.176
27.740,-0.119
27.745,-0.110
27.750,-0.136
27.755,-0.119
27.760,-0.094
27.765,-0.115
27.770,-0.121
27.775,-0.097
27.780,-0.120
27.785,-0.116
27.790,-0.035
27.795,-0.024
27.800,-0.055
27.805,-0.032
27.810,-0.014
27.815,-0.038
27.820,-0.043
27.825,-0.016
27.830,-0.044
27.835,-0.069
27.840,-0.009
27.845,0.000
27.850,-0.033
27.855,0.012
27.860,0.050
27.865,0.028
27.870,0.026
27.875,0.060
27.880,0.044
27.885,0.042
27.890,0.136
27.895,0.169
27.900,0.123
27.905,0.123
27.910,0.135
27.915,0.110
27.920,0.083
27.925,0.071
27.930,0.016
27.935,-0.047
27.940,-0.035
27.945,-0.035
27.950,-0.092
27.955,-0.098
27.960,-0.087
27.965,-0.116
27.970,-0.096
27.975,-0.064
27.980,-0.057
27.985,-0.064
27.990,-0.038
27.995,-0.010
28.000,-0.041
28.005,-0.027
28.010,0.007
28.015,-0.022
28.020,-0.014
28.025,0.078
28.030,0.204
28.035,0.485
28.040,1.049
28.045,1.636
28.050,1.876
28.055,1.835
28.060,1.442
28.065,0.492
28.070,-0.388
28.075,-0.614
28.080,-0.547
28.085,-0.515
28.090,-0.446
28.095,-0.388
28.100,-0.417
28.105,-0.408
28.110,-0.363
28.115,-0.376
28.120,-0.374
28.125,-0.329
28.130,-0.325
28.135,-0.331
28.140,-0.290
28.145,-0.255
28.150,-0.252
28.155,-0.231
28.160,-0.159
28.165,-0.159
28.170,-0.171
28.175,-0.121
28.180,-0.126
28.185,-0.134
28.190,-0.093
28.195,-0.070
28.200,-0.067
28.205,-0.037
28.210,-0.004
28.215,-0.006
28.220,0.008
28.225,0.062
28.230,0.072
28.235,0.066
28.240,0.107
28.245,0.134
28.250,0.141
28.255,0.169
28.260,0.196
28.265,0.180
28.270,0.170
28.275,0.199
28.280,0.176
28.285,0.146
28.290,0.168
28.295,0.153
28.300,0.109
28.305,0.097
28.310,0.079
28.315,0.013
28.320,-0.042
28.325,-0.060
28.330,-0.114
28.335,-0.176
28.340,-0.152
28.345,-0.147
28.350,-0.196
28.355,-0.186
28.360,-0.162
28.365,-0.183
28.370,-0.183
28.375,-0.148
28.380,-0.155
28.385,-0.176
28.390,-0.143
28.395,-0.127
28.400,-0.148
28.405,-0.122
28.410,-0.087
28.415,-0.101
28.420,-0.099
28.425,-0.063
28.430,-0.067
28.435,-0.091
28.440,-0.063
28.445,-0.053
28.450,-0.087
28.455,-0.060
28.460,-0.031
28.465,-0.064
28.470,-0.057
28.475,-0.010
28.480,-0.023
28.485,-0.065
28.490,-0.051
28.495,-0.054
28.500,-0.101
28.505,-0.080
28.510,-0.048
28.515,-0.073
28.520,-0.042
28.525,0.045
28.530,0.053
28.535,0.035
28.540,0.074
28.545,0.105
28.550,0.108
28.555,0.141
28.560,0.164
28.565,0.120
28.570,0.102
28.575,0.129
28.580,0.104
28.585,0.054
28.590,0.047
28.595,0.019
28.600,-0.042
28.605,-0.050
28.610,-0.035
28.615,-0.078
28.620,-0.093
28.625,-0.051
28.630,-0.060
28.635,-0.085
28.640,-0.060
28.645,-0.052
28.650,-0.071
28.655,-0.055
28.660,-0.019
28.665,-0.038
28.670,-0.046
28.675,-0.010
28.680,-0.003
28.685,0.045
28.690,0.238
28.695,0.597
28.700,1.127
28.705,1.684
28.710,1.915
28.715,1.783
28.720,1.295
28.725,0.392
28.730,-0.410
28.735,-0.632
28.740,-0.517
28.745,-0.446
28.750,-0.433
28.755,-0.395
28.760,-0.367
28.765,-0.382
28.770,-0.376
28.775,-0.333
28.780,-0.331
28.785,-0.340
28.790,-0.299
28.795,-0.275
28.800,-0.286
28.805,-0.257
28.810,-0.217
28.815,-0.216
28.820,-0.199
28.825,-0.158
28.830,-0.154
28.835,-0.163
28.840,-0.121
28.845,-0.102
28.850,-0.123
28.855,-0.090
28.860,-0.049
28.865,-0.065
28.870,-0.058
28.875,-0.014
28.880,-0.004
28.885,0.019
28.890,0.069
28.895,0.106
28.900,0.103
28.905,0.139
28.910,0.191
28.915,0.175
28.920,0.172
28.925,0.194
28.930,0.184
28.935,0.163
28.940,0.189
28.945,0.188
28.950,0.141
28.955,0.148
28.960,0.157
28.965,0.098
28.970,0.057
28.975,0.059
28.980,0.011
28.985,-0.061
28.990,-0.073
28.995,-0.101
29.000,-0.171
29.005,-0.178
29.010,-0.159
29.015,-0.197
29.020,-0.210
29.025,-0.175
29.030,-0.185
29.035,-0.213
29.040,-0.192
29.045,-0.184
29.050,-0.215
29.055,-0.206
29.060,-0.165
29.065,-0.170
29.070,-0.163
29.075,-0.100
29.080,-0.090
29.085,-0.115
29.090,-0.080
29.095,-0.062
29.100,-0.097
29.105,-0.083
29.110,-0.038
29.115,-0.063
29.120,-0.070
29.125,-0.028
29.130,-0.042
29.135,-0.072
29.140,-0.050
29.145,-0.038
29.150,-0.071
29.155,-0.071
29.160,-0.040
29.165,-0.057
29.170,-0.066
29.175,-0.018
29.180,0.003
29.185,0.001
29.190,0.041
29.195,0.072
29.200,0.055
29.205,0.067
29.210,0.113
29.215,0.127
29.220,0.141
29.225,0.173
29.230,0.144
29.235,0.099
29.240,0.119
29.245,0.119
29.250,0.066
29.255,0.049
29.260,0.064
29.265,0.025
29.270,-0.017
29.275,-0.005
29.280,-0.032
29.285,-0.075
29.290,-0.045
29.295,-0.035
29.300,-0.068
29.305,-0.057
29.310,-0.033
29.315,-0.037
29.320,-0.043
29.325,-0.021
29.330,-0.027
29.335,-0.051
29.340,-0.020
29.345,-0.003
29.350,-0.003
29.355,0.101
29.360,0.329
29.365,0.739
29.370,1.322
29.375,1.766
29.380,1.831
29.385,1.596
29.390,0.990
29.395,0.035
29.400,-0.608
29.405,-0.640
29.410,-0.533
29.415,-0.502
29.420,-0.462
29.425,-0.426
29.430,-0.428
29.435,-0.440
29.440,-0.366
29.445,-0.332
29.450,-0.369
29.455,-0.326
29.460,-0.283
29.465,-0.298
29.470,-0.270
29.475,-0.217
29.480,-0.214
29.485,-0.214
29.490,-0.179
29.495,-0.162
29.500,-0.187
29.505,-0.168
29.510,-0.134
29.515,-0.143
29.520,-0.113
29.525,-0.063
29.530,-0.063
29.535,-0.059
29.540,-0.015
29.545,0.007
29.550,-0.011
29.555,0.022
29.560,0.066
29.565,0.058
29.570,0.083
29.575,0.141
29.580,0.140
29.585,0.131
29.590,0.166
29.595,0.177
29.600,0.144
29.605,0.150
29.610,0.173
29.615,0.138
29.620,0.169
29.625,0.210
29.630,0.163
29.635,0.115
29.640,0.098
29.645,0.062
29.650,-0.009
29.655,-0.043
29.660,-0.056
29.665,-0.118
29.670,-0.154
29.675,-0.124
29.680,-0.150
29.685,-0.190
29.690,-0.161
29.695,-0.157
29.700,-0.189
29.705,-0.174
29.710,-0.135
29.715,-0.149
29.720,-0.149
29.725,-0.089
29.730,-0.092
29.735,-0.115
29.740,-0.077
29.745,-0.066
29.750,-0.096
29.755,-0.082
29.760,-0.052
29.765,-0.089
29.770,-0.110
29.775,-0.061
29.780,-0.070
29.785,-0.108
29.790,-0.081
29.795,-0.073
29.800,-0.082
29.805,-0.055
29.810,-0.032
29.815,-0.050
29.820,-0.064
29.825,-0.030
29.830,-0.025
29.835,-0.052
29.840,-0.017
29.845,0.020
29.850,0.006
29.855,0.032
29.860,0.072
29.865,0.055
29.870,0.049
29.875,0.103
29.880,0.152
29.885,0.153
29.890,0.162
29.895,0.151
29.900,0.108
29.905,0.116
29.910,0.119
29.915,0.059
29.920,0.010
29.925,0.004
29.930,-0.016
29.935,-0.060
29.940,-0.061
29.945,-0.074
29.950,-0.121
29.955,-0.103
29.960,-0.074
29.965,-0.110
29.970,-0.127
29.975,-0.096
29.980,-0.076
29.985,-0.067
29.990,-0.039
29.995,-0.020
30.000,-0.042
30.005,-0.030
30.010,0.010
30.015,0.038
30.020,0.161
30.025,0.487
30.030,1.027
30.035,1.587
30.040,1.886
30.045,1.854
30.050,1.421
30.055,0.521
30.060,-0.340
30.065,-0.635
30.070,-0.562
30.075,-0.484
30.080,-0.458
30.085,-0.425
30.090,-0.390
30.095,-0.382
30.100,-0.389
30.105,-0.366
30.110,-0.328
30.115,-0.342
30.120,-0.334
30.125,-0.286
30.130,-0.277
30.135,-0.263
30.140,-0.224
30.145,-0.216
30.150,-0.226
30.155,-0.206
30.160,-0.176
30.165,-0.171
30.170,-0.158
30.175,-0.091
30.180,-0.083
30.185,-0.092
30.190,-0.032
30.195,-0.013
30.200,-0.023
30.205,0.008
30.210,0.045
30.215,0.034
30.220,0.045
30.225,0.094
30.230,0.097
30.235,0.108
30.240,0.175
30.245,0.189
30.250,0.163
30.255,0.193
30.260,0.221
30.265,0.190
30.270,0.174
30.275,0.200
30.280,0.168
30.285,0.122
30.290,0.162
30.295,0.146
30.300,0.061
30.305,0.037
30.310,0.022
30.315,-0.049
30.320,-0.102
30.325,-0.106
30.330,-0.156
30.335,-0.222
30.340,-0.191
30.345,-0.178
30.350,-0.225
30.355,-0.169
30.360,-0.130
30.365,-0.177
30.370,-0.171
30.375,-0.125
30.380,-0.133
30.385,-0.160
30.390,-0.106
30.395,-0.076
30.400,-0.113
30.405,-0.094
30.410,-0.057
30.415,-0.076
30.420,-0.073
30.425,-0.036
30.430,-0.056
30.435,-0.097
30.440,-0.060
30.445,-0.024
30.450,-0.058
30.455,-0.052
30.460,-0.022
30.465,-0.050
30.470,-0.054
30.475,-0.022
30.480,-0.042
30.485,-0.076
30.490,-0.031
30.495,0.024
30.500,-0.003
30.505,0.006
30.510,0.045
30.515,0.010
30.520,0.009
30.525,0.075
30.530,0.093
30.535,0.084
30.540,0.106
30.545,0.129
30.550,0.103
30.555,0.086
30.560,0.086
30.565,0.033
30.570,-0.006
30.575,-0.008
30.580,-0.047
30.585,-0.096
30.590,-0.093
30.595,-0.077
30.600,-0.093
30.605,-0.083
30.610,-0.047
30.615,-0.068
30.620,-0.087
30.625,-0.056
30.630,-0.056
30.635,-0.072
30.640,-0.039
30.645,-0.009
30.650,-0.015
30.655,-0.001
30.660,0.061
30.665,0.150
30.670,0.389
30.675,0.907
30.680,1.478
30.685,1.799
30.690,1.841
30.695,1.524
30.700,0.686
30.705,-0.255
30.710,-0.635
30.715,-0.588
30.720,-0.499
30.725,-0.417
30.730,-0.399
30.735,-0.423
30.740,-0.400
30.745,-0.373
30.750,-0.362
30.755,-0.327
30.760,-0.284
30.765,-0.285
30.770,-0.284
30.775,-0.240
30.780,-0.240
30.785,-0.251
30.790,-0.211
30.795,-0.189
30.800,-0.183
30.805,-0.143
30.810,-0.109
30.815,-0.123
30.820,-0.120
30.825,-0.076
30.830,-0.075
30.835,-0.095
30.840,-0.061
30.845,-0.038
30.850,-0.044
30.855,0.005
30.860,0.051
30.865,0.046
30.870,0.059
30.875,0.108
30.880,0.115
30.885,0.102
30.890,0.135
30.895,0.139
30.900,0.139
30.905,0.186
30.910,0.229
30.915,0.207
30.920,0.189
30.925,0.214
30.930,0.188
30.935,0.135
30.940,0.129
30.945,0.094
30.950,0.019
30.955,0.018
30.960,0.006
30.965,-0.075
30.970,-0.118
30.975,-0.114
30.980,-0.139
30.985,-0.185
30.990,-0.181
30.995,-0.185
31.000,-0.220
31.005,-0.185
31.010,-0.142
31.015,-0.169
31.020,-0.168
31.025,-0.122
31.030,-0.126
31.035,-0.147
31.040,-0.119
31.045,-0.114
31.050,-0.153
31.055,-0.126
31.060,-0.078
31.065,-0.107
31.070,-0.124
31.075,-0.086
31.080,-0.072
31.085,-0.092
31.090,-0.047
31.095,-0.028
31.100,-0.081
31.105,-0.068
31.110,-0.021
31.115,-0.043
31.120,-0.053
31.125,-0.009
31.130,-0.021
31.135,-0.048
31.140,-0.025
31.145,-0.013
31.150,-0.041
31.155,-0.012
31.160,0.069
31.165,0.062
31.170,0.047
31.175,0.091
31.180,0.100
31.185,0.109
31.190,0.151
31.195,0.153
31.200,0.102
31.205,0.091
31.210,0.131
31.215,0.106
31.220,0.056
31.225,0.052
31.230,-0.002
31.235,-0.070
31.240,-0.062
31.245,-0.069
31.250,-0.125
31.255,-0.135
31.260,-0.090
31.265,-0.089
31.270,-0.078
31.275,-0.027
31.280,-0.040
31.285,-0.063
31.290,-0.028
31.295,-0.018
31.300,-0.048
31.305,-0.039
31.310,-0.005
31.315,0.010
31.320,0.046
31.325,0.183
31.330,0.417
31.335,0.839
31.340,1.441
31.345,1.823
31.350,1.826
31.355,1.561
31.360,0.856
31.365,-0.102
31.370,-0.607
31.375,-0.571
31.380,-0.495
31.385,-0.481
31.390,-0.416
31.395,-0.400
31.400,-0.432
31.405,-0.412
31.410,-0.377
31.415,-0.372
31.420,-0.350
31.425,-0.306
31.430,-0.303
31.435,-0.319
31.440,-0.284
31.445,-0.263
31.450,-0.266
31.455,-0.208
31.460,-0.171
31.465,-0.171
31.470,-0.134
31.475,-0.093
31.480,-0.095
31.485,-0.105
31.490,-0.065
31.495,-0.040
31.500,-0.065
31.505,-0.041
31.510,0.000
31.515,-0.014
31.520,0.016
31.525,0.075
31.530,0.080
31.535,0.079
31.540,0.126
31.545,0.160
31.550,0.142
31.555,0.160
31.560,0.191
31.565,0.169
31.570,0.185
31.575,0.221
31.580,0.197
31.585,0.166
31.590,0.181
31.595,0.167
31.600,0.102
31.605,0.075
31.610,0.058
31.615,-0.021
31.620,-0.064
31.625,-0.074
31.630,-0.142
31.635,-0.167
31.640,-0.158
31.645,-0.167
31.650,-0.202
31.655,-0.206
31.660,-0.171
31.665,-0.191
31.670,-0.191
31.675,-0.135
31.680,-0.136
31.685,-0.158
31.690,-0.123
31.695,-0.107
31.700,-0.128
31.705,-0.116
31.710,-0.082
31.715,-0.101
31.720,-0.108
31.725,-0.047
31.730,-0.044
31.735,-0.081
31.740,-0.054
31.745,-0.043
31.750,-0.078
31.755,-0.082
31.760,-0.054
31.765,-0.073
31.770,-0.088
31.775,-0.042
31.780,-0.048
31.785,-0.083
31.790,-0.056
31.795,-0.054
31.800,-0.086
31.805,-0.080
31.810,-0.058
31.815,-0.047
31.820,-0.050
31.825,0.007
31.830,0.022
31.835,-0.021
31.840,0.001
31.845,0.010
31.850,-0.008
31.855,0.022
31.860,0.064
31.865,0.062
31.870,0.073
31.875,0.122
31.880,0.131
31.885,0.120
31.890,0.173
31.895,0.208
31.900,0.162
31.905,0.147
31.910,0.162
31.915,0.132
31.920,0.103
31.925,0.105
31.930,0.081
31.935,0.016
31.940,-0.002
31.945,-0.013
31.950,-0.071
31.955,-0.082
31.960,-0.067
31.965,-0.096
31.970,-0.102
31.975,-0.072
31.980,-0.072
31.985,-0.095
31.990,-0.079
31.995,-0.054
32.000,-0.078
32.005,-0.049
32.010,0.002
32.015,-0.024
32.020,-0.021
32.025,0.060
32.030,0.171
32.035,0.389
32.040,0.869
32.045,1.461
32.050,1.801
32.055,1.846
32.060,1.613
32.065,0.875
32.070,-0.100
32.075,-0.586
32.080,-0.581
32.085,-0.510
32.090,-0.439
32.095,-0.396
32.100,-0.416
32.105,-0.404
32.110,-0.369
32.115,-0.389
32.120,-0.386
32.125,-0.325
32.130,-0.313
32.135,-0.317
32.140,-0.272
32.145,-0.254
32.150,-0.272
32.155,-0.253
32.160,-0.215
32.165,-0.231
32.170,-0.231
32.175,-0.169
32.180,-0.154
32.185,-0.154
32.190,-0.085
32.195,-0.061
32.200,-0.080
32.205,-0.047
32.210,-0.012
32.215,-0.030
32.220,-0.024
32.225,0.038
32.230,0.056
32.235,0.048
32.240,0.096
32.245,0.132
32.250,0.120
32.255,0.142
32.260,0.183
32.265,0.168
32.270,0.159
32.275,0.200
32.280,0.200
32.285,0.173
32.290,0.195
32.295,0.194
32.300,0.141
32.305,0.131
32.310,0.130
32.315,0.065
32.320,0.017
32.325,0.013
32.330,-0.047
32.335,-0.124
32.340,-0.136
32.345,-0.151
32.350,-0.210
32.355,-0.223
32.360,-0.206
32.365,-0.242
32.370,-0.219
32.375,-0.164
32.380,-0.167
32.385,-0.184
32.390,-0.156
32.395,-0.130
32.400,-0.148
32.405,-0.130
32.410,-0.101
32.415,-0.116
32.420,-0.121
32.425,-0.090
32.430,-0.083
32.435,-0.095
32.440,-0.066
32.445,-0.057
32.450,-0.092
32.455,-0.081
32.460,-0.051
32.465,-0.077
32.470,-0.089
32.475,-0.058
32.480,-0.059
32.485,-0.069
32.490,-0.043
32.495,-0.038
32.500,-0.076
32.505,-0.071
32.510,-0.043
32.515,-0.068
32.520,-0.076
32.525,-0.042
32.530,-0.060
32.535,-0.074
32.540,-0.038
32.545,-0.030
32.550,-0.013
32.555,0.014
32.560,0.040
32.565,0.020
32.570,-0.003
32.575,0.027
32.580,0.017
32.585,0.006
32.590,0.036
32.595,0.044
32.600,0.011
32.605,0.009
32.610,0.033
32.615,0.003
32.620,-0.008
32.625,0.042
32.630,0.056
32.635,0.063
32.640,0.117
32.645,0.131
32.650,0.092
32.655,0.106
32.660,0.164
32.665,0.180
32.670,0.169
32.675,0.167
32.680,0.135
32.685,0.114
32.690,0.140
32.695,0.116
32.700,0.045
32.705,0.021
32.710,0.011
32.715,-0.034
32.720,-0.066
32.725,-0.063
32.730,-0.073
32.735,-0.093
32.740,-0.038
32.745,-0.006
32.750,-0.049
32.755,-0.038
32.760,-0.008
32.765,-0.033
32.770,-0.043
32.775,-0.006
32.780,-0.014
32.785,-0.041
32.790,0.004
32.795,0.045
32.800,0.093
32.805,0.300
32.810,0.749
32.815,1.324
32.820,1.758
32.825,1.897
32.830,1.712
32.835,1.084
32.840,0.119
32.845,-0.546
32.850,-0.647
32.855,-0.555
32.860,-0.481
32.865,-0.456
32.870,-0.458
32.875,-0.433
32.880,-0.431
32.885,-0.454
32.890,-0.402
32.895,-0.349
32.900,-0.370
32.905,-0.353
32.910,-0.300
32.915,-0.300
32.920,-0.284
32.925,-0.216
32.930,-0.205
32.935,-0.222
32.940,-0.178
32.945,-0.138
32.950,-0.154
32.955,-0.138
32.960,-0.095
32.965,-0.110
32.970,-0.108
32.975,-0.060
32.980,-0.052
32.985,-0.067
32.990,-0.022
32.995,0.029
33.000,0.018
33.005,0.041
33.010,0.092
33.015,0.084
33.020,0.098
33.025,0.151
33.030,0.153
33.035,0.133
33.040,0.164
33.045,0.189
33.050,0.161
33.055,0.160
33.060,0.185
33.065,0.155
33.070,0.131
33.075,0.140
33.080,0.102
33.085,0.039
33.090,0.025
33.095,0.014
33.100,-0.044
33.105,-0.042
33.110,-0.045
33.115,-0.117
33.120,-0.149
33.125,-0.139
33.130,-0.169
33.135,-0.210
33.140,-0.195
33.145,-0.181
33.150,-0.180
33.155,-0.154
33.160,-0.131
33.165,-0.149
33.170,-0.155
33.175,-0.113
33.180,-0.108
33.185,-0.130
33.190,-0.113
33.195,-0.097
33.200,-0.096
33.205,-0.081
33.210,-0.057
33.215,-0.075
33.220,-0.091
33.225,-0.060
33.230,-0.064
33.235,-0.095
33.240,-0.077
33.245,-0.066
33.250,-0.081
33.255,-0.068
33.260,-0.050
33.265,-0.086
33.270,-0.099
33.275,-0.061
33.280,-0.073
33.285,-0.058
33.290,-0.021
33.295,-0.027
33.300,-0.041
33.305,-0.021
33.310,0.006
33.315,-0.018
33.320,-0.024
33.325,0.008
33.330,0.001
33.335,-0.026
33.340,0.004
33.345,0.014
33.350,-0.019
33.355,0.012
33.360,0.052
33.365,0.047
33.370,0.068
33.375,0.117
33.380,0.118
33.385,0.086
33.390,0.112
33.395,0.141
33.400,0.139
33.405,0.179
33.410,0.187
33.415,0.131
33.420,0.114
33.425,0.137
33.430,0.108
33.435,0.043
33.440,0.026
33.445,-0.010
33.450,-0.083
33.455,-0.084
33.460,-0.066
33.465,-0.081
33.470,-0.072
33.475,-0.032
33.480,-0.038
33.485,-0.071
33.490,-0.041
33.495,-0.029
33.500,-0.070
33.505,-0.047
33.510,0.006
33.515,-0.015
33.520,-0.029
33.525,0.007
33.530,0.031
33.535,0.105
33.540,0.338
33.545,0.782
33.550,1.339
33.555,1.777
33.560,1.928
33.565,1.712
33.570,1.052
33.575,0.081
33.580,-0.569
33.585,-0.633
33.590,-0.528
33.595,-0.475
33.600,-0.471
33.605,-0.458
33.610,-0.405
33.615,-0.414
33.620,-0.430
33.625,-0.380
33.630,-0.372
33.635,-0.390
33.640,-0.348
33.645,-0.305
33.650,-0.303
33.655,-0.271
33.660,-0.195
33.665,-0.192
33.670,-0.202
33.675,-0.148
33.680,-0.146
33.685,-0.165
33.690,-0.125
33.695,-0.097
33.700,-0.117
33.705,-0.103
33.710,-0.050
33.715,-0.035
33.720,-0.028
33.725,0.021
33.730,0.034
33.735,0.019
33.740,0.068
33.745,0.106
33.750,0.089
33.755,0.103
33.760,0.148
33.765,0.172
33.770,0.175
33.775,0.204
33.780,0.196
33.785,0.162
33.790,0.185
33.795,0.190
33.800,0.140
33.805,0.121
33.810,0.121
33.815,0.102
33.820,0.056
33.825,0.023
33.830,-0.004
33.835,-0.069
33.840,-0.067
33.845,-0.080
33.850,-0.159
33.855,-0.180
33.860,-0.175
33.865,-0.194
33.870,-0.199
33.875,-0.176
33.880,-0.186
33.885,-0.207
33.890,-0.172
33.895,-0.153
33.900,-0.185
33.905,-0.174
33.910,-0.136
33.915,-0.139
33.920,-0.129
33.925,-0.095
33.930,-0.095
33.935,-0.110
33.940,-0.081
33.945,-0.061
33.950,-0.095
33.955,-0.088
33.960,-0.067
33.965,-0.093
33.970,-0.079
33.975,-0.041
33.980,-0.055
33.985,-0.078
33.990,-0.064
33.995,-0.055
34.000,-0.096
34.005,-0.093
34.010,-0.050
34.015,-0.073
34.020,-0.037
34.025,0.011
34.030,-0.015
34.035,-0.027
34.040,-0.005
34.045,0.008
34.050,-0.025
34.055,-0.022
34.060,0.000
34.065,-0.028
34.070,-0.012
34.075,0.057
34.080,0.067
34.085,0.055
34.090,0.094
34.095,0.114
34.100,0.080
34.105,0.099
34.110,0.158
34.115,0.156
34.120,0.153
34.125,0.181
34.130,0.150
34.135,0.111
34.140,0.124
34.145,0.101
34.150,0.039
34.155,0.016
34.160,0.014
34.165,-0.044
34.170,-0.087
34.175,-0.058
34.180,-0.085
34.185,-0.124
34.190,-0.086
34.195,-0.073
34.200,-0.072
34.205,-0.046
34.210,-0.026
34.215,-0.047
34.220,-0.050
34.225,0.013
34.230,0.016
34.235,-0.016
34.240,0.026
34.245,0.090
34.250,0.192
34.255,0.479
34.260,1.003
34.265,1.541
34.270,1.831
34.275,1.855
34.280,1.533
34.285,0.711
34.290,-0.205
34.295,-0.610
34.300,-0.601
34.305,-0.523
34.310,-0.454
34.315,-0.451
34.320,-0.467
34.325,-0.419
34.330,-0.392
34.335,-0.407
34.340,-0.371
34.345,-0.335
34.350,-0.351
34.355,-0.329
34.360,-0.296
34.365,-0.315
34.370,-0.318
34.375,-0.270
34.380,-0.219
34.385,-0.194
34.390,-0.160
34.395,-0.134
34.400,-0.154
34.405,-0.137
34.410,-0.096
34.415,-0.103
34.420,-0.102
34.425,-0.050
34.430,-0.004
34.435,-0.013
34.440,0.014
34.445,0.055
34.450,0.043
34.455,0.069
34.460,0.121
34.465,0.114
34.470,0.111
34.475,0.160
34.480,0.191
34.485,0.186
34.490,0.213
34.495,0.227
34.500,0.191
34.505,0.193
34.510,0.219
34.515,0.177
34.520,0.131
34.525,0.123
34.530,0.091
34.535,0.040
34.540,0.019
34.545,-0.022
34.550,-0.096
34.555,-0.128
34.560,-0.144
34.565,-0.170
34.570,-0.202
34.575,-0.200
34.580,-0.207
34.585,-0.219
34.590,-0.185
34.595,-0.171
34.600,-0.194
34.605,-0.182
34.610,-0.139
34.615,-0.156
34.620,-0.164
34.625,-0.130
34.630,-0.136
34.635,-0.133
34.640,-0.099
34.645,-0.091
34.650,-0.111
34.655,-0.096
34.660,-0.061
34.665,-0.086
34.670,-0.106
34.675,-0.074
34.680,-0.083
34.685,-0.100
34.690,-0.058
34.695,-0.038
34.700,-0.069
34.705,-0.064
34.710,-0.039
34.715,-0.074
34.720,-0.096
34.725,-0.073
34.730,-0.084
34.735,-0.103
34.740,-0.067
34.745,-0.013
34.750,-0.033
34.755,-0.025
34.760,0.011
34.765,-0.017
34.770,-0.026
34.775,0.010
34.780,0.002
34.785,-0.012
34.790,0.057
34.795,0.089
34.800,0.063
34.805,0.088
34.810,0.120
34.815,0.111
34.820,0.130
34.825,0.194
34.830,0.187
34.835,0.130
34.840,0.159
34.845,0.177
34.850,0.119
34.855,0.090
34.860,0.079
34.865,0.020
34.870,-0.032
34.875,-0.028
34.880,-0.045
34.885,-0.092
34.890,-0.079
34.895,-0.064
34.900,-0.097
34.905,-0.093
34.910,-0.065
34.915,-0.087
34.920,-0.100
34.925,-0.038
34.930,-0.021
34.935,-0.048
34.940,-0.002
34.945,0.026
34.950,-0.006
34.955,0.053
34.960,0.211
34.965,0.451
34.970,0.949
34.975,1.568
34.980,1.877
34.985,1.840
34.990,1.535
34.995,0.752
35.000,-0.212
35.005,-0.606
35.010,-0.530
35.015,-0.497
35.020,-0.474
35.025,-0.410
35.030,-0.410
35.035,-0.427
35.040,-0.385
35.045,-0.345
35.050,-0.359
35.055,-0.335
35.060,-0.290
35.065,-0.302
35.070,-0.301
35.075,-0.263
35.080,-0.256
35.085,-0.262
35.090,-0.228
35.095,-0.192
35.100,-0.205
35.105,-0.181
35.110,-0.113
35.115,-0.117
35.120,-0.112
35.125,-0.064
35.130,-0.069
35.135,-0.075
35.140,-0.028
35.145,0.002
35.150,0.000
35.155,0.033
35.160,0.083
35.165,0.085
35.170,0.093
35.175,0.146
35.180,0.148
35.185,0.134
35.190,0.182
35.195,0.206
35.200,0.189
35.205,0.205
35.210,0.224
35.215,0.197
35.220,0.182
35.225,0.202
35.230,0.161
35.235,0.104
35.240,0.107
35.245,0.081
35.250,0.015
35.255,-0.015
35.260,-0.040
35.265,-0.103
35.270,-0.155
35.275,-0.159
35.280,-0.201
35.285,-0.254
35.290,-0.209
35.295,-0.193
35.300,-0.207
35.305,-0.177
35.310,-0.155
35.315,-0.170
35.320,-0.178
35.325,-0.138
35.330,-0.140
35.335,-0.170
35.340,-0.134
35.345,-0.098
35.350,-0.123
35.355,-0.113
35.360,-0.071
35.365,-0.077
35.370,-0.088
35.375,-0.062
35.380,-0.067
35.385,-0.099
35.390,-0.076
35.395,-0.051
35.400,-0.085
35.405,-0.074
35.410,-0.041
35.415,-0.068
35.420,-0.074
35.425,-0.044
35.430,-0.058
35.435,-0.085
35.440,-0.064
35.445,-0.045
35.450,-0.072
35.455,-0.053
35.460,-0.014
35.465,-0.026
35.470,0.003
35.475,0.057
35.480,0.082
35.485,0.066
35.490,0.094
35.495,0.156
35.500,0.143
35.505,0.143
35.510,0.164
35.515,0.135
35.520,0.114
35.525,0.122
35.530,0.080
35.535,0.008
35.540,-0.007
35.545,-0.005
35.550,-0.038
35.555,-0.049
35.560,-0.039
35.565,-0.070
35.570,-0.087
35.575,-0.051
35.580,-0.055
35.585,-0.077
35.590,-0.053
35.595,-0.040
35.600,-0.054
35.605,-0.046
35.610,-0.019
35.615,-0.030
35.620,-0.050
35.625,-0.008
35.630,0.050
35.635,0.168
35.640,0.526
35.645,1.109
35.650,1.638
35.655,1.874
35.660,1.841
35.665,1.352
35.670,0.356
35.675,-0.428
35.680,-0.606
35.685,-0.543
35.690,-0.475
35.695,-0.423
35.700,-0.414
35.705,-0.394
35.710,-0.353
35.715,-0.353
35.720,-0.346
35.725,-0.291
35.730,-0.290
35.735,-0.323
35.740,-0.277
35.745,-0.248
35.750,-0.260
35.755,-0.216
35.760,-0.177
35.765,-0.193
35.770,-0.188
35.775,-0.142
35.780,-0.131
35.785,-0.146
35.790,-0.111
35.795,-0.093
35.800,-0.115
35.805,-0.072
35.810,-0.026
35.815,-0.047
35.820,-0.045
35.825,-0.004
35.830,0.008
35.835,0.005
35.840,0.069
35.845,0.131
35.850,0.119
35.855,0.163
35.860,0.215
35.865,0.191
35.870,0.188
35.875,0.220
35.880,0.217
35.885,0.187
35.890,0.203
35.895,0.206
35.900,0.158
35.905,0.151
35.910,0.155
35.915,0.092
35.920,0.041
35.925,0.031
35.930,-0.018
35.935,-0.088
35.940,-0.105
35.945,-0.130
35.950,-0.196
35.955,-0.205
35.960,-0.171
35.965,-0.203
35.970,-0.226
35.975,-0.193
35.980,-0.196
35.985,-0.217
35.990,-0.187
35.995,-0.170
36.000,-0.200
36.005,-0.191
36.010,-0.133
36.015,-0.144
36.020,-0.163
36.025,-0.082
36.030,-0.070
36.035,-0.091
36.040,-0.056
36.045,-0.050
36.050,-0.078
36.055,-0.070
36.060,-0.021
36.065,-0.041
36.070,-0.057
36.075,-0.022
36.080,-0.039
36.085,-0.073
36.090,-0.047
36.095,-0.028
36.100,-0.054
36.105,-0.039
36.110,0.015
36.115,0.013
36.120,0.013
36.125,0.064
36.130,0.068
36.135,0.040
36.140,0.081
36.145,0.121
36.150,0.107
36.155,0.111
36.160,0.131
36.165,0.110
36.170,0.092
36.175,0.104
36.180,0.069
36.185,0.001
36.190,-0.014
36.195,-0.043
36.200,-0.097
36.205,-0.080
36.210,-0.071
36.215,-0.078
36.220,-0.079
36.225,-0.061
36.230,-0.052
36.235,-0.082
36.240,-0.060
36.245,-0.044
36.250,-0.070
36.255,-0.063
36.260,-0.032
36.265,-0.030
36.270,-0.039
36.275,-0.002
36.280,0.044
36.285,0.126
36.290,0.380
36.295,0.846
36.300,1.396
36.305,1.779
36.310,1.859
36.315,1.596
36.320,0.861
36.325,-0.087
36.330,-0.603
36.335,-0.621
36.340,-0.521
36.345,-0.463
36.350,-0.457
36.355,-0.455
36.360,-0.434
36.365,-0.437
36.370,-0.419
36.375,-0.375
36.380,-0.377
36.385,-0.371
36.390,-0.316
36.395,-0.263
36.400,-0.259
36.405,-0.243
36.410,-0.209
36.415,-0.215
36.420,-0.188
36.425,-0.137
36.430,-0.135
36.435,-0.140
36.440,-0.100
36.445,-0.075
36.450,-0.095
36.455,-0.074
36.460,-0.042
36.465,-0.052
36.470,-0.020
36.475,0.033
36.480,0.043
36.485,0.045
36.490,0.087
36.495,0.124
36.500,0.115
36.505,0.139
36.510,0.179
36.515,0.165
36.520,0.182
36.525,0.242
36.530,0.234
36.535,0.197
36.540,0.216
36.545,0.221
36.550,0.170
36.555,0.153
36.560,0.147
36.565,0.080
36.570,0.039
36.575,0.057
36.580,0.034
36.585,-0.042
36.590,-0.074
36.595,-0.100
36.600,-0.163
36.605,-0.175
36.610,-0.158
36.615,-0.204
36.620,-0.228
36.625,-0.169
36.630,-0.172
36.635,-0.207
36.640,-0.168
36.645,-0.144
36.650,-0.170
36.655,-0.156
36.660,-0.114
36.665,-0.132
36.670,-0.140
36.675,-0.076
36.680,-0.077
36.685,-0.114
36.690,-0.082
36.695,-0.069
36.700,-0.104
36.705,-0.094
36.710,-0.060
36.715,-0.089
36.720,-0.111
36.725,-0.061
36.730,-0.060
36.735,-0.096
36.740,-0.077
36.745,-0.063
36.750,-0.089
36.755,-0.081
36.760,-0.011
36.765,-0.025
36.770,-0.056
36.775,-0.002
36.780,0.016
36.785,0.002
36.790,0.040
36.795,0.074
36.800,0.059
36.805,0.075
36.810,0.110
36.815,0.114
36.820,0.123
36.825,0.163
36.830,0.169
36.835,0.125
36.840,0.136
36.845,0.144
36.850,0.079
36.855,0.056
36.860,0.049
36.865,-0.015
36.870,-0.066
36.875,-0.053
36.880,-0.048
36.885,-0.086
36.890,-0.077
36.895,-0.059
36.900,-0.096
36.905,-0.089
36.910,-0.058
36.915,-0.076
36.920,-0.098
36.925,-0.073
36.930,-0.056
36.935,-0.071
36.940,-0.020
36.945,0.010
36.950,0.017
36.955,0.127
36.960,0.332
36.965,0.694
36.970,1.247
36.975,1.732
36.980,1.860
36.985,1.685
36.990,1.153
36.995,0.222
37.000,-0.508
37.005,-0.628
37.010,-0.505
37.015,-0.479
37.020,-0.468
37.025,-0.419
37.030,-0.430
37.035,-0.429
37.040,-0.375
37.045,-0.348
37.050,-0.358
37.055,-0.338
37.060,-0.279
37.065,-0.277
37.070,-0.293
37.075,-0.270
37.080,-0.269
37.085,-0.262
37.090,-0.217
37.095,-0.180
37.100,-0.202
37.105,-0.195
37.110,-0.128
37.115,-0.130
37.120,-0.132
37.125,-0.081
37.130,-0.062
37.135,-0.062
37.140,-0.021
37.145,0.024
37.150,0.022
37.155,0.043
37.160,0.091
37.165,0.093
37.170,0.109
37.175,0.167
37.180,0.180
37.185,0.166
37.190,0.218
37.195,0.257
37.200,0.223
37.205,0.224
37.210,0.263
37.215,0.236
37.220,0.196
37.225,0.202
37.230,0.154
37.235,0.086
37.240,0.096
37.245,0.075
37.250,0.006
37.255,-0.022
37.260,-0.052
37.265,-0.139
37.270,-0.193
37.275,-0.168
37.280,-0.201
37.285,-0.261
37.290,-0.214
37.295,-0.187
37.300,-0.226
37.305,-0.233
37.310,-0.189
37.315,-0.166
37.320,-0.187
37.325,-0.146
37.330,-0.134
37.335,-0.170
37.340,-0.108
37.345,-0.052
37.350,-0.088
37.355,-0.091
37.360,-0.051
37.365,-0.067
37.370,-0.079
37.375,-0.052
37.380,-0.077
37.385,-0.106
37.390,-0.044
37.395,0.002
37.400,-0.047
37.405,-0.056
37.410,-0.016
37.415,-0.036
37.420,-0.048
37.425,-0.016
37.430,-0.028
37.435,-0.071
37.440,-0.048
37.445,-0.008
37.450,-0.038
37.455,-0.033
37.460,0.024
37.465,0.019
37.470,0.017
37.475,0.052
37.480,0.051
37.485,0.032
37.490,0.074
37.495,0.189
37.500,0.193
37.505,0.164
37.510,0.183
37.515,0.147
37.520,0.138
37.525,0.149
37.530,0.103
37.535,0.029
37.540,-0.003
37.545,0.001
37.550,-0.021
37.555,-0.040
37.560,-0.038
37.565,-0.073
37.570,-0.090
37.575,-0.054
37.580,-0.053
37.585,-0.082
37.590,-0.066
37.595,-0.040
37.600,-0.047
37.605,-0.039
37.610,-0.005
37.615,-0.019
37.620,-0.045
37.625,-0.016
37.630,0.015
37.635,0.107
37.640,0.425
37.645,0.981
37.650,1.555
37.655,1.835
37.660,1.824
37.665,1.465
37.670,0.590
37.675,-0.276
37.680,-0.617
37.685,-0.579
37.690,-0.494
37.695,-0.446
37.700,-0.406
37.705,-0.392
37.710,-0.373
37.715,-0.382
37.720,-0.379
37.725,-0.323
37.730,-0.317
37.735,-0.335
37.740,-0.293
37.745,-0.260
37.750,-0.258
37.755,-0.227
37.760,-0.187
37.765,-0.192
37.770,-0.198
37.775,-0.159
37.780,-0.148
37.785,-0.169
37.790,-0.139
37.795,-0.119
37.800,-0.138
37.805,-0.100
37.810,-0.045
37.815,-0.049
37.820,-0.046
37.825,0.004
37.830,0.019
37.835,-0.002
37.840,0.043
37.845,0.080
37.850,0.059
37.855,0.125
37.860,0.192
37.865,0.175
37.870,0.177
37.875,0.212
37.880,0.211
37.885,0.171
37.890,0.197
37.895,0.231
37.900,0.181
37.905,0.160
37.910,0.162
37.915,0.105
37.920,0.052
37.925,0.038
37.930,-0.007
37.935,-0.080
37.940,-0.102
37.945,-0.113
37.950,-0.167
37.955,-0.206
37.960,-0.183
37.965,-0.175
37.970,-0.224
37.975,-0.210
37.980,-0.172
37.985,-0.202
37.990,-0.199
37.995,-0.180
38.000,-0.209
38.005,-0.182
38.010,-0.119
38.015,-0.156
38.020,-0.192
38.025,-0.145
38.030,-0.144
38.035,-0.164
38.040,-0.108
38.045,-0.072
38.050,-0.084
38.055,-0.077
38.060,-0.037
38.065,-0.047
38.070,-0.071
38.075,-0.031
38.080,-0.031
38.085,-0.061
38.090,-0.040
38.095,-0.021
38.100,-0.036
38.105,-0.005
38.110,0.067
38.115,0.070
38.120,0.055
38.125,0.088
38.130,0.089
38.135,0.083
38.140,0.131
38.145,0.154
38.150,0.120
38.155,0.110
38.160,0.129
38.165,0.101
38.170,0.061
38.175,0.063
38.180,0.029
38.185,-0.033
38.190,-0.045
38.195,-0.057
38.200,-0.106
38.205,-0.111
38.210,-0.092
38.215,-0.108
38.220,-0.098
38.225,-0.064
38.230,-0.036
38.235,-0.054
38.240,-0.043
38.245,-0.014
38.250,-0.044
38.255,-0.029
38.260,0.005
38.265,-0.007
38.270,0.004
38.275,0.116
38.280,0.310
38.285,0.705
38.290,1.332
38.295,1.796
38.300,1.886
38.305,1.717
38.310,1.092
38.315,0.055
38.320,-0.585
38.325,-0.570
38.330,-0.485
38.335,-0.485
38.340,-0.423
38.345,-0.391
38.350,-0.426
38.355,-0.411
38.360,-0.367
38.365,-0.362
38.370,-0.354
38.375,-0.306
38.380,-0.290
38.385,-0.304
38.390,-0.272
38.395,-0.242
38.400,-0.255
38.405,-0.232
38.410,-0.142
38.415,-0.133
38.420,-0.140
38.425,-0.085
38.430,-0.090
38.435,-0.107
38.440,-0.069
38.445,-0.038
38.450,-0.054
38.455,-0.034
38.460,0.021
38.465,0.017
38.470,0.013
38.475,0.068
38.480,0.091
38.485,0.086
38.490,0.125
38.495,0.168
38.500,0.156
38.505,0.166
38.510,0.211
38.515,0.198
38.520,0.179
38.525,0.206
38.530,0.195
38.535,0.162
38.540,0.166
38.545,0.157
38.550,0.097
38.555,0.064
38.560,0.067
38.565,0.006
38.570,-0.070
38.575,-0.088
38.580,-0.134
38.585,-0.201
38.590,-0.171
38.595,-0.147
38.600,-0.201
38.605,-0.211
38.610,-0.182
38.615,-0.194
38.620,-0.207
38.625,-0.167
38.630,-0.160
38.635,-0.189
38.640,-0.162
38.645,-0.137
38.650,-0.157
38.655,-0.147
38.660,-0.113
38.665,-0.109
38.670,-0.115
38.675,-0.084
38.680,-0.075
38.685,-0.100
38.690,-0.078
38.695,-0.067
38.700,-0.103
38.705,-0.098
38.710,-0.053
38.715,-0.036
38.720,-0.033
38.725,0.010
38.730,0.023
38.735,-0.005
38.740,0.023
38.745,0.050
38.750,0.029
38.755,0.035
38.760,0.059
38.765,0.038
38.770,0.041
38.775,0.102
38.780,0.082
38.785,0.024
38.790,0.025
38.795,0.002
38.800,-0.060
38.805,-0.078
38.810,-0.066
38.815,-0.094
38.820,-0.105
38.825,-0.073
38.830,-0.077
38.835,-0.104
38.840,-0.080
38.845,-0.058
38.850,-0.087
38.855,-0.080
38.860,-0.048
38.865,-0.066
38.870,-0.056
38.875,-0.013
38.880,0.010
38.885,0.078
38.890,0.274
38.895,0.657
38.900,1.200
38.905,1.699
38.910,1.891
38.915,1.725
38.920,1.174
38.925,0.225
38.930,-0.524
38.935,-0.666
38.940,-0.551
38.945,-0.488
38.950,-0.487
38.955,-0.430
38.960,-0.392
38.965,-0.402
38.970,-0.374
38.975,-0.326
38.980,-0.311
38.985,-0.319
38.990,-0.283
38.995,-0.249
39.000,-0.263
39.005,-0.251
39.010,-0.210
39.015,-0.220
39.020,-0.214
39.025,-0.148
39.030,-0.134
39.035,-0.154
39.040,-0.114
39.045,-0.083
39.050,-0.099
39.055,-0.083
39.060,-0.043
39.065,-0.055
39.070,-0.052
39.075,0.023
39.080,0.049
39.085,0.036
39.090,0.083
39.095,0.112
39.100,0.102
39.105,0.132
39.110,0.179
39.115,0.151
39.120,0.140
39.125,0.201
39.130,0.197
39.135,0.190
39.140,0.217
39.145,0.233
39.150,0.207
39.155,0.178
39.160,0.179
39.165,0.119
39.170,0.056
39.175,0.061
39.180,0.024
39.185,-0.051
39.190,-0.070
39.195,-0.093
39.200,-0.150
39.205,-0.169
39.210,-0.156
39.215,-0.186
39.220,-0.210
39.225,-0.167
39.230,-0.150
39.235,-0.180
39.240,-0.155
39.245,-0.116
39.250,-0.132
39.255,-0.130
39.260,-0.099
39.265,-0.109
39.270,-0.127
39.275,-0.096
39.280,-0.073
39.285,-0.098
39.290,-0.080
39.295,-0.058
39.300,-0.102
39.305,-0.101
39.310,-0.068
39.315,-0.084
39.320,-0.101
39.325,-0.036
39.330,0.026
39.335,0.015
39.340,0.053
39.345,0.087
39.350,0.051
39.355,0.067
39.360,0.120
39.365,0.116
39.370,0.100
39.375,0.109
39.380,0.105
39.385,0.094
39.390,0.112
39.395,0.099
39.400,0.032
39.405,-0.004
39.410,-0.010
39.415,-0.060
39.420,-0.099
39.425,-0.088
39.430,-0.098
39.435,-0.114
39.440,-0.092
39.445,-0.077
39.450,-0.102
39.455,-0.101
39.460,-0.072
39.465,-0.091
39.470,-0.106
39.475,-0.078
39.480,-0.067
39.485,-0.057
39.490,-0.039
39.495,0.008
39.500,0.110
39.505,0.330
39.510,0.803
39.515,1.367
39.520,1.760
39.525,1.868
39.530,1.637
39.535,0.970
39.540,0.026
39.545,-0.548
39.550,-0.599
39.555,-0.506
39.560,-0.431
39.565,-0.430
39.570,-0.445
39.575,-0.413
39.580,-0.412
39.585,-0.412
39.590,-0.359
39.595,-0.322
39.600,-0.327
39.605,-0.302
39.610,-0.253
39.615,-0.257
39.620,-0.260
39.625,-0.212
39.630,-0.209
39.635,-0.221
39.640,-0.171
39.645,-0.148
39.650,-0.173
39.655,-0.152
39.660,-0.116
39.665,-0.129
39.670,-0.135
39.675,-0.079
39.680,-0.073
39.685,-0.098
39.690,0.021
39.695,0.078
39.700,0.046
39.705,0.093
39.710,0.136
39.715,0.141
39.720,0.152
39.725,0.192
39.730,0.190
39.735,0.165
39.740,0.206
39.745,0.230
39.750,0.195
39.755,0.212
39.760,0.255
39.765,0.222
39.770,0.173
39.775,0.177
39.780,0.139
39.785,0.067
39.790,0.067
39.795,0.041
39.800,-0.057
39.805,-0.095
39.810,-0.094
39.815,-0.136
39.820,-0.170
39.825,-0.157
39.830,-0.169
39.835,-0.219
39.840,-0.203
39.845,-0.163
39.850,-0.202
39.855,-0.204
39.860,-0.156
39.865,-0.165
39.870,-0.135
39.875,-0.097
39.880,-0.095
39.885,-0.116
39.890,-0.103
39.895,-0.039
39.900,-0.062
39.905,-0.083
39.910,-0.054
39.915,-0.067
39.920,-0.072
39.925,-0.040
39.930,-0.038
39.935,-0.075
39.940,-0.058
39.945,-0.017
39.950,-0.049
39.955,-0.051
39.960,-0.014
39.965,-0.041
39.970,-0.060
39.975,-0.029
39.980,-0.026
39.985,-0.041
39.990,0.002
39.995,0.049
40.000,0.030
40.005,0.035
40.010,0.076
40.015,0.077
40.020,0.092
40.025,0.137
40.030,0.109
40.035,0.039
40.040,0.028
40.045,0.046
40.050,0.046
40.055,0.029
40.060,0.025
40.065,-0.015
40.070,-0.066
40.075,-0.036
40.080,-0.049
40.085,-0.107
40.090,-0.098
40.095,-0.075
40.100,-0.074
40.105,-0.059
40.110,0.041
40.115,0.068
40.120,-0.094
40.125,-0.062
40.130,0.021
40.135,-0.037
40.140,-0.015
40.145,0.004
40.150,0.018
40.155,0.111
40.160,0.310
40.165,0.657
40.170,1.197
40.175,1.701
40.180,1.850
40.185,1.683
40.190,1.189
40.195,0.289
40.200,-0.481
40.205,-0.639
40.210,-0.533
40.215,-0.513
40.220,-0.486
40.225,-0.428
40.230,-0.433
40.235,-0.457
40.240,-0.405
40.245,-0.340
40.250,-0.348
40.255,-0.311
40.260,-0.269
40.265,-0.309
40.270,-0.289
40.275,-0.221
40.280,-0.212
40.285,-0.229
40.290,-0.193
40.295,-0.175
40.300,-0.197
40.305,-0.140
40.310,-0.094
40.315,-0.124
40.320,-0.116
40.325,-0.069
40.330,-0.052
40.335,-0.055
40.340,-0.020
40.345,-0.003
40.350,-0.018
40.355,0.027
40.360,0.071
40.365,0.067
40.370,0.085
40.375,0.119
40.380,0.129
40.385,0.126
40.390,0.168
40.395,0.179
40.400,0.133
40.405,0.150
40.410,0.202
40.415,0.180
40.420,0.144
40.425,0.200
40.430,0.179
40.435,0.109
40.440,0.120
40.445,0.090
40.450,0.007
40.455,-0.020
40.460,-0.014
40.465,-0.080
40.470,-0.135
40.475,-0.128
40.480,-0.151
40.485,-0.191
40.490,-0.182
40.495,-0.175
40.500,-0.205
40.505,-0.192
40.510,-0.134
40.515,-0.151
40.520,-0.168
40.525,-0.122
40.530,-0.118
40.535,-0.136
40.540,-0.115
40.545,-0.093
40.550,-0.119
40.555,-0.124
40.560,-0.065
40.565,-0.073
40.570,-0.098
40.575,-0.064
40.580,-0.072
40.585,-0.113
40.590,-0.098
40.595,-0.084
40.600,-0.121
40.605,-0.080
40.610,-0.022
40.615,-0.032
40.620,-0.040
40.625,-0.014
40.630,-0.015
40.635,-0.043
40.640,-0.024
40.645,-0.012
40.650,-0.034
40.655,-0.010
40.660,0.055
40.665,0.073
40.670,0.049
40.675,0.078
40.680,0.120
40.685,0.122
40.690,0.153
40.695,0.160
40.700,0.107
40.705,0.095
40.710,0.117
40.715,0.090
40.720,0.041
40.725,0.032
40.730,0.002
40.735,-0.056
40.740,-0.052
40.745,-0.057
40.750,-0.108
40.755,-0.112
40.760,-0.078
40.765,-0.076
40.770,-0.096
40.775,-0.075
40.780,-0.072
40.785,-0.083
40.790,-0.045
40.795,-0.021
40.800,-0.042
40.805,-0.035
40.810,0.003
40.815,0.016
40.820,0.069
40.825,0.236
40.830,0.553
40.835,1.082
40.840,1.646
40.845,1.866
40.850,1.758
40.855,1.357
40.860,0.446
40.865,-0.432
40.870,-0.649
40.875,-0.531
40.880,-0.482
40.885,-0.472
40.890,-0.425
40.895,-0.390
40.900,-0.414
40.905,-0.408
40.910,-0.353
40.915,-0.351
40.920,-0.343
40.925,-0.291
40.930,-0.282
40.935,-0.302
40.940,-0.271
40.945,-0.232
40.950,-0.254
40.955,-0.239
40.960,-0.194
40.965,-0.202
40.970,-0.183
40.975,-0.130
40.980,-0.107
40.985,-0.112
40.990,-0.075
40.995,-0.036
41.000,-0.061
41.005,-0.043
41.010,0.011
41.015,0.005
41.020,0.017
41.025,0.085
41.030,0.102
41.035,0.085
41.040,0.128
41.045,0.164
41.050,0.154
41.055,0.169
41.060,0.200
41.065,0.196
41.070,0.188
41.075,0.216
41.080,0.211
41.085,0.169
41.090,0.171
41.095,0.160
41.100,0.103
41.105,0.075
41.110,0.070
41.115,0.021
41.120,-0.046
41.125,-0.051
41.130,-0.082
41.135,-0.150
41.140,-0.162
41.145,-0.171
41.150,-0.206
41.155,-0.215
41.160,-0.147
41.165,-0.138
41.170,-0.165
41.175,-0.105
41.180,-0.092
41.185,-0.127
41.190,-0.108
41.195,-0.095
41.200,-0.124
41.205,-0.117
41.210,-0.083
41.215,-0.086
41.220,-0.089
41.225,-0.051
41.230,-0.044
41.235,-0.075
41.240,-0.054
41.245,-0.030
41.250,-0.063
41.255,-0.069
41.260,-0.044
41.265,-0.059
41.270,-0.071
41.275,-0.036
41.280,-0.029
41.285,-0.061
41.290,-0.049
41.295,-0.024
41.300,-0.057
41.305,-0.054
41.310,-0.016
41.315,-0.026
41.320,-0.021
41.325,0.033
41.330,0.049
41.335,0.026
41.340,0.098
41.345,0.158
41.350,0.141
41.355,0.147
41.360,0.144
41.365,0.105
41.370,0.093
41.375,0.119
41.380,0.091
41.385,0.027
41.390,0.020
41.395,0.013
41.400,-0.050
41.405,-0.068
41.410,-0.053
41.415,-0.084
41.420,-0.092
41.425,-0.045
41.430,-0.037
41.435,-0.062
41.440,-0.042
41.445,-0.021
41.450,-0.047
41.455,-0.041
41.460,-0.008
41.465,-0.030
41.470,-0.045
41.475,0.012
41.480,0.071
41.485,0.171
41.490,0.489
41.495,1.036
41.500,1.564
41.505,1.806
41.510,1.785
41.515,1.410
41.520,0.522
41.525,-0.323
41.530,-0.604
41.535,-0.556
41.540,-0.468
41.545,-0.429
41.550,-0.461
41.555,-0.460
41.560,-0.415
41.565,-0.420
41.570,-0.419
41.575,-0.348
41.580,-0.324
41.585,-0.340
41.590,-0.296
41.595,-0.259
41.600,-0.272
41.605,-0.262
41.610,-0.219
41.615,-0.217
41.620,-0.212
41.625,-0.138
41.630,-0.109
41.635,-0.131
41.640,-0.100
41.645,-0.073
41.650,-0.092
41.655,-0.074
41.660,-0.025
41.665,-0.035
41.670,-0.062
41.675,-0.037
41.680,-0.020
41.685,-0.035
41.690,0.001
41.695,0.046
41.700,0.051
41.705,0.091
41.710,0.152
41.715,0.184
41.720,0.191
41.725,0.231
41.730,0.259
41.735,0.218
41.740,0.228
41.745,0.246
41.750,0.188
41.755,0.155
41.760,0.158
41.765,0.114
41.770,0.054
41.775,0.037
41.780,0.017
41.785,-0.037
41.790,-0.055
41.795,-0.075
41.800,-0.146
41.805,-0.169
41.810,-0.153
41.815,-0.186
41.820,-0.216
41.825,-0.195
41.830,-0.177
41.835,-0.195
41.840,-0.178
41.845,-0.145
41.850,-0.166
41.855,-0.173
41.860,-0.139
41.865,-0.152
41.870,-0.165
41.875,-0.135
41.880,-0.122
41.885,-0.117
41.890,-0.099
41.895,-0.045
41.900,-0.058
41.905,-0.078
41.910,-0.033
41.915,-0.055
41.920,-0.081
41.925,-0.059
41.930,-0.058
41.935,-0.060
41.940,-0.035
41.945,-0.022
41.950,-0.044
41.955,-0.038
41.960,-0.002
41.965,-0.027
41.970,-0.051
41.975,-0.024
41.980,-0.022
41.985,-0.015
41.990,0.032
41.995,0.064
42.000,0.057
42.005,0.069
42.010,0.107
42.015,0.105
42.020,0.116
42.025,0.163
42.030,0.152
42.035,0.111
42.040,0.130
42.045,0.137
42.050,0.087
42.055,0.055
42.060,0.051
42.065,-0.010
42.070,-0.073
42.075,-0.026
42.080,-0.039
42.085,-0.087
42.090,-0.046
42.095,-0.035
42.100,-0.069
42.105,-0.068
42.110,-0.042
42.115,-0.062
42.120,-0.077
42.125,-0.037
42.130,-0.036
42.135,-0.065
42.140,-0.019
42.145,-0.001
42.150,-0.040
42.155,0.011
42.160,0.171
42.165,0.421
42.170,0.891
42.175,1.505
42.180,1.831
42.185,1.770
42.190,1.500
42.195,0.781
42.200,-0.198
42.205,-0.638
42.210,-0.566
42.215,-0.511
42.220,-0.495
42.225,-0.441
42.230,-0.447
42.235,-0.483
42.240,-0.435
42.245,-0.383
42.250,-0.396
42.255,-0.347
42.260,-0.282
42.265,-0.288
42.270,-0.282
42.275,-0.237
42.280,-0.226
42.285,-0.247
42.290,-0.200
42.295,-0.147
42.300,-0.170
42.305,-0.164
42.310,-0.118
42.315,-0.130
42.320,-0.145
42.325,-0.096
42.330,-0.062
42.335,-0.080
42.340,-0.052
42.345,0.005
42.350,-0.012
42.355,0.000
42.360,0.066
42.365,0.064
42.370,0.062
42.375,0.121
42.380,0.146
42.385,0.123
42.390,0.151
42.395,0.204
42.400,0.185
42.405,0.187
42.410,0.223
42.415,0.184
42.420,0.141
42.425,0.156
42.430,0.145
42.435,0.102
42.440,0.107
42.445,0.132
42.450,0.103
42.455,0.046
42.460,0.021
42.465,-0.030
42.470,-0.090
42.475,-0.094
42.480,-0.123
42.485,-0.181
42.490,-0.185
42.495,-0.166
42.500,-0.183
42.505,-0.184
42.510,-0.149
42.515,-0.154
42.520,-0.155
42.525,-0.110
42.530,-0.114
42.535,-0.136
42.540,-0.111
42.545,-0.087
42.550,-0.086
42.555,-0.086
42.560,-0.062
42.565,-0.068
42.570,-0.088
42.575,-0.053
42.580,-0.054
42.585,-0.088
42.590,-0.081
42.595,-0.065
42.600,-0.074
42.605,-0.083
42.610,-0.069
42.615,-0.075
42.620,-0.086
42.625,-0.065
42.630,-0.035
42.635,-0.056
42.640,-0.057
42.645,-0.032
42.650,-0.046
42.655,-0.034
42.660,-0.003
42.665,-0.013
42.670,-0.029
42.675,-0.001
42.680,0.005
42.685,-0.025
42.690,0.004
42.695,0.046
42.700,0.046
42.705,0.084
42.710,0.125
42.715,0.107
42.720,0.107
42.725,0.161
42.730,0.185
42.735,0.155
42.740,0.153
42.745,0.150
42.750,0.115
42.755,0.123
42.760,0.114
42.765,0.043
42.770,-0.012
42.775,-0.019
42.780,-0.042
42.785,-0.096
42.790,-0.114
42.795,-0.116
42.800,-0.140
42.805,-0.111
42.810,-0.038
42.815,-0.055
42.820,-0.077
42.825,-0.034
42.830,-0.034
42.835,-0.061
42.840,-0.040
42.845,-0.022
42.850,-0.049
42.855,-0.024
42.860,0.058
42.865,0.143
42.870,0.350
42.875,0.838
42.880,1.438
42.885,1.776
42.890,1.815
42.895,1.586
42.900,0.867
42.905,-0.078
42.910,-0.572
42.915,-0.605
42.920,-0.545
42.925,-0.464
42.930,-0.428
42.935,-0.447
42.940,-0.423
42.945,-0.392
42.950,-0.419
42.955,-0.405
42.960,-0.326
42.965,-0.327
42.970,-0.347
42.975,-0.294
42.980,-0.288
42.985,-0.311
42.990,-0.248
42.995,-0.190
43.000,-0.210
43.005,-0.191
43.010,-0.117
43.015,-0.112
43.020,-0.131
43.025,-0.091
43.030,-0.076
43.035,-0.099
43.040,-0.072
43.045,-0.031
43.050,-0.051
43.055,-0.040
43.060,0.038
43.065,0.060
43.070,0.049
43.075,0.096
43.080,0.124
43.085,0.109
43.090,0.142
43.095,0.180
43.100,0.158
43.105,0.152
43.110,0.194
43.115,0.203
43.120,0.187
43.125,0.208
43.130,0.201
43.135,0.145
43.140,0.136
43.145,0.126
43.150,0.056
43.155,0.001
43.160,-0.014
43.165,-0.047
43.170,-0.097
43.175,-0.098
43.180,-0.123
43.185,-0.168
43.190,-0.158
43.195,-0.161
43.200,-0.220
43.205,-0.257
43.210,-0.222
43.215,-0.191
43.220,-0.204
43.225,-0.177
43.230,-0.155
43.235,-0.186
43.240,-0.163
43.245,-0.136
43.250,-0.166
43.255,-0.162
43.260,-0.119
43.265,-0.107
43.270,-0.110
43.275,-0.076
43.280,-0.063
43.285,-0.094
43.290,-0.083
43.295,-0.060
43.300,-0.061
43.305,-0.037
43.310,0.037
43.315,0.027
43.320,0.010
43.325,0.068
43.330,0.061
43.335,0.025
43.340,0.041
43.345,0.042
43.350,-0.012
43.355,-0.004
43.360,0.022
43.365,0.022
43.370,0.028
43.375,0.058
43.380,0.081
43.385,0.067
43.390,0.101
43.395,0.132
43.400,0.098
43.405,0.096
43.410,0.132
43.415,0.134
43.420,0.162
43.425,0.204
43.430,0.182
43.435,0.137
43.440,0.144
43.445,0.151
43.450,0.091
43.455,0.057
43.460,0.059
43.465,-0.001
43.470,-0.044
43.475,-0.017
43.480,-0.040
43.485,-0.094
43.490,-0.078
43.495,-0.057
43.500,-0.087
43.505,-0.096
43.510,-0.069
43.515,-0.080
43.520,-0.096
43.525,-0.071
43.530,-0.068
43.535,-0.089
43.540,-0.075
43.545,-0.032
43.550,-0.034
43.555,0.026
43.560,0.232
43.565,0.582
43.570,1.144
43.575,1.702
43.580,1.895
43.585,1.750
43.590,1.259
43.595,0.296
43.600,-0.521
43.605,-0.673
43.610,-0.555
43.615,-0.522
43.620,-0.499
43.625,-0.435
43.630,-0.425
43.635,-0.440
43.640,-0.403
43.645,-0.373
43.650,-0.376
43.655,-0.360
43.660,-0.321
43.665,-0.315
43.670,-0.307
43.675,-0.261
43.680,-0.247
43.685,-0.254
43.690,-0.218
43.695,-0.192
43.700,-0.217
43.705,-0.210
43.710,-0.166
43.715,-0.181
43.720,-0.197
43.725,-0.124
43.730,-0.082
43.735,-0.093
43.740,-0.047
43.745,-0.003
43.750,-0.019
43.755,-0.006
43.760,0.037
43.765,0.050
43.770,0.070
43.775,0.119
43.780,0.145
43.785,0.135
43.790,0.156
43.795,0.190
43.800,0.168
43.805,0.167
43.810,0.203
43.815,0.186
43.820,0.156
43.825,0.166
43.830,0.149
43.835,0.090
43.840,0.073
43.845,0.059
43.850,-0.013
43.855,-0.054
43.860,-0.067
43.865,-0.121
43.870,-0.160
43.875,-0.159
43.880,-0.171
43.885,-0.215
43.890,-0.229
43.895,-0.209
43.900,-0.227
43.905,-0.211
43.910,-0.159
43.915,-0.172
43.920,-0.164
43.925,-0.115
43.930,-0.104
43.935,-0.116
43.940,-0.091
43.945,-0.063
43.950,-0.083
43.955,-0.089
43.960,-0.063
43.965,-0.082
43.970,-0.096
43.975,-0.041
43.980,-0.028
43.985,-0.054
43.990,-0.032
43.995,-0.016
44.000,-0.035
44.005,-0.029
44.010,0.002
44.015,-0.006
44.020,-0.027
44.025,0.010
44.030,0.013
44.035,-0.022
44.040,0.013
44.045,0.037
44.050,-0.003
44.055,0.010
44.060,0.059
44.065,0.034
44.070,0.010
44.075,0.088
44.080,0.139
44.085,0.121
44.090,0.141
44.095,0.149
44.100,0.136
44.105,0.111
44.110,0.087
44.115,0.046
44.120,-0.003
44.125,0.017
44.130,0.020
44.135,-0.030
44.140,-0.044
44.145,-0.044
44.150,-0.071
44.155,-0.063
44.160,-0.032
44.165,-0.052
44.170,-0.092
44.175,-0.061
44.180,-0.024
44.185,-0.059
44.190,-0.050
44.195,-0.003
44.200,-0.030
44.205,-0.038
44.210,0.035
44.215,0.116
44.220,0.265
44.225,0.696
44.230,1.309
44.235,1.732
44.240,1.866
44.245,1.715
44.250,1.054
44.255,0.042
44.260,-0.585
44.265,-0.639
44.270,-0.558
44.275,-0.493
44.280,-0.397
44.285,-0.395
44.290,-0.400
44.295,-0.364
44.300,-0.385
44.305,-0.363
44.310,-0.304
44.315,-0.314
44.320,-0.329
44.325,-0.292
44.330,-0.265
44.335,-0.256
44.340,-0.217
44.345,-0.175
44.350,-0.187
44.355,-0.188
44.360,-0.151
44.365,-0.164
44.370,-0.177
44.375,-0.135
44.380,-0.117
44.385,-0.103
44.390,-0.057
44.395,-0.022
44.400,-0.033
44.405,-0.023
44.410,0.033
44.415,0.042
44.420,0.035
44.425,0.074
44.430,0.098
44.435,0.112
44.440,0.145
44.445,0.172
44.450,0.156
44.455,0.162
44.460,0.224
44.465,0.210
44.470,0.182
44.475,0.213
44.480,0.190
44.485,0.150
44.490,0.154
44.495,0.143
44.500,0.084
44.505,0.040
44.510,0.030
44.515,-0.026
44.520,-0.090
44.525,-0.101
44.530,-0.143
44.535,-0.194
44.540,-0.169
44.545,-0.154
44.550,-0.194
44.555,-0.204
44.560,-0.179
44.565,-0.186
44.570,-0.201
44.575,-0.167
44.580,-0.163
44.585,-0.193
44.590,-0.143
44.595,-0.111
44.600,-0.150
44.605,-0.143
44.610,-0.105
44.615,-0.111
44.620,-0.128
44.625,-0.100
44.630,-0.098
44.635,-0.134
44.640,-0.090
44.645,-0.052
44.650,-0.081
44.655,-0.056
44.660,-0.018
44.665,-0.036
44.670,-0.047
44.675,-0.021
44.680,-0.016
44.685,-0.039
