'Elapsed time','ECG'
'seconds','mV'
0.000,-0.007
0.005,0.011
0.010,-0.019
0.015,-0.037
0.020,0.031
0.025,0.208
0.030,0.512
0.035,0.902
0.040,1.259
0.045,1.378
0.050,1.115
0.055,0.502
0.060,-0.215
0.065,-0.662
0.070,-0.746
0.075,-0.659
0.080,-0.502
0.085,-0.345
0.090,-0.270
0.095,-0.235
0.100,-0.187
0.105,-0.137
0.110,-0.099
0.115,-0.080
0.120,-0.059
0.125,-0.021
0.130,-0.003
0.135,0.001
0.140,0.018
0.145,0.023
0.150,0.013
0.155,0.013
0.160,0.021
0.165,0.043
0.170,0.056
0.175,0.041
0.180,0.035
0.185,0.045
0.190,0.055
0.195,0.061
0.200,0.062
0.205,0.064
0.210,0.072
0.215,0.076
0.220,0.076
0.225,0.070
0.230,0.075
0.235,0.095
0.240,0.107
0.245,0.110
0.250,0.104
0.255,0.097
0.260,0.110
0.265,0.130
0.270,0.143
0.275,0.159
0.280,0.183
0.285,0.195
0.290,0.193
0.295,0.194
0.300,0.207
0.305,0.233
0.310,0.239
0.315,0.235
0.320,0.245
0.325,0.249
0.330,0.244
0.335,0.234
0.340,0.215
0.345,0.187
0.350,0.153
0.355,0.113
0.360,0.063
0.365,0.012
0.370,-0.036
0.375,-0.098
0.380,-0.162
0.385,-0.205
0.390,-0.234
0.395,-0.260
0.400,-0.283
0.405,-0.299
0.410,-0.312
0.415,-0.323
0.420,-0.322
0.425,-0.315
0.430,-0.307
0.435,-0.297
0.440,-0.283
0.445,-0.271
0.450,-0.262
0.455,-0.250
0.460,-0.235
0.465,-0.221
0.470,-0.205
0.475,-0.188
0.480,-0.171
0.485,-0.156
0.490,-0.143
0.495,-0.134
0.500,-0.125
0.505,-0.115
0.510,-0.108
0.515,-0.100
0.520,-0.087
0.525,-0.073
0.530,-0.060
0.535,-0.052
0.540,-0.052
0.545,-0.056
0.550,-0.055
0.555,-0.044
0.560,-0.033
0.565,-0.027
0.570,-0.026
0.575,-0.025
0.580,-0.016
0.585,-0.010
0.590,-0.011
0.595,-0.011
0.600,-0.013
0.605,-0.015
0.610,-0.014
0.615,-0.005
0.620,0.003
0.625,0.005
0.630,0.005
0.635,0.005
0.640,0.010
0.645,0.016
0.650,0.023
0.655,0.031
0.660,0.028
0.665,0.018
0.670,0.022
0.675,0.033
0.680,0.041
0.685,0.050
0.690,0.061
0.695,0.072
0.700,0.079
0.705,0.085
0.710,0.097
0.715,0.104
0.720,0.104
0.725,0.106
0.730,0.110
0.735,0.115
0.740,0.112
0.745,0.110
0.750,0.104
0.755,0.080
0.760,0.061
0.765,0.061
0.770,0.064
0.775,0.053
0.780,0.035
0.785,0.028
0.790,0.022
0.795,0.009
0.800,-0.006
0.805,-0.016
0.810,-0.017
0.815,-0.009
0.820,0.000
0.825,0.000
0.830,-0.003
0.835,0.002
0.840,0.010
0.845,0.016
0.850,0.022
0.855,0.023
0.860,0.007
0.865,-0.021
0.870,-0.002
0.875,0.114
0.880,0.340
0.885,0.667
0.890,1.048
0.895,1.365
0.900,1.388
0.905,1.003
0.910,0.336
0.915,-0.336
0.920,-0.694
0.925,-0.723
0.930,-0.622
0.935,-0.468
0.940,-0.332
0.945,-0.270
0.950,-0.229
0.955,-0.180
0.960,-0.146
0.965,-0.124
0.970,-0.098
0.975,-0.073
0.980,-0.060
0.985,-0.052
0.990,-0.043
0.995,-0.036
1.000,-0.029
1.005,-0.022
1.010,-0.018
1.015,-0.013
1.020,-0.006
1.025,-0.001
1.030,0.001
1.035,0.004
1.040,0.005
1.045,0.007
1.050,0.011
1.055,0.018
1.060,0.023
1.065,0.028
1.070,0.034
1.075,0.040
1.080,0.045
1.085,0.049
1.090,0.055
1.095,0.058
1.100,0.061
1.105,0.072
1.110,0.082
1.115,0.090
1.120,0.102
1.125,0.114
1.130,0.124
1.135,0.139
1.140,0.157
1.145,0.171
1.150,0.184
1.155,0.202
1.160,0.214
1.165,0.221
1.170,0.229
1.175,0.235
1.180,0.234
1.185,0.228
1.190,0.219
1.195,0.201
1.200,0.175
1.205,0.142
1.210,0.098
1.215,0.047
1.220,-0.006
1.225,-0.062
1.230,-0.118
1.235,-0.169
1.240,-0.212
1.245,-0.250
1.250,-0.282
1.255,-0.304
1.260,-0.321
1.265,-0.332
1.270,-0.336
1.275,-0.332
1.280,-0.325
1.285,-0.318
1.290,-0.308
1.295,-0.295
1.300,-0.283
1.305,-0.269
1.310,-0.257
1.315,-0.246
1.320,-0.231
1.325,-0.216
1.330,-0.205
1.335,-0.194
1.340,-0.178
1.345,-0.166
1.350,-0.157
1.355,-0.146
1.360,-0.136
1.365,-0.127
1.370,-0.119
1.375,-0.111
1.380,-0.102
1.385,-0.092
1.390,-0.083
1.395,-0.076
1.400,-0.069
1.405,-0.064
1.410,-0.061
1.415,-0.056
1.420,-0.050
1.425,-0.044
1.430,-0.039
1.435,-0.034
1.440,-0.028
1.445,-0.026
1.450,-0.024
1.455,-0.020
1.460,-0.017
1.465,-0.015
1.470,-0.011
1.475,-0.006
1.480,-0.003
1.485,0.001
1.490,0.007
1.495,0.008
1.500,0.011
1.505,0.016
1.510,0.017
1.515,0.018
1.520,0.024
1.525,0.030
1.530,0.031
1.535,0.033
1.540,0.040
1.545,0.047
1.550,0.053
1.555,0.063
1.560,0.071
1.565,0.077
1.570,0.088
1.575,0.105
1.580,0.113
1.585,0.112
1.590,0.112
1.595,0.116
1.600,0.120
1.605,0.114
1.610,0.105
1.615,0.103
1.620,0.088
1.625,0.065
1.630,0.057
1.635,0.063
1.640,0.062
1.645,0.045
1.650,0.029
1.655,0.021
1.660,0.016
1.665,0.005
1.670,-0.010
1.675,-0.016
1.680,-0.013
1.685,-0.007
1.690,-0.001
1.695,0.001
1.700,0.003
1.705,0.008
1.710,0.014
1.715,0.017
1.720,0.019
1.725,0.013
1.730,-0.012
1.735,-0.017
1.740,0.060
1.745,0.242
1.750,0.525
1.755,0.881
1.760,1.240
1.765,1.394
1.770,1.153
1.775,0.584
1.780,-0.115
1.785,-0.615
1.790,-0.735
1.795,-0.643
1.800,-0.496
1.805,-0.352
1.810,-0.273
1.815,-0.231
1.820,-0.184
1.825,-0.150
1.830,-0.128
1.835,-0.101
1.840,-0.078
1.845,-0.066
1.850,-0.058
1.855,-0.047
1.860,-0.039
1.865,-0.033
1.870,-0.027
1.875,-0.021
1.880,-0.016
1.885,-0.013
1.890,-0.007
1.895,-0.003
1.900,0.000
1.905,0.006
1.910,0.011
1.915,0.013
1.920,0.018
1.925,0.023
1.930,0.026
1.935,0.031
1.940,0.037
1.945,0.042
1.950,0.045
1.955,0.052
1.960,0.059
1.965,0.064
1.970,0.071
1.975,0.080
1.980,0.087
1.985,0.097
1.990,0.110
1.995,0.122
2.000,0.135
2.005,0.149
2.010,0.163
2.015,0.178
2.020,0.194
2.025,0.207
2.030,0.218
2.035,0.227
2.040,0.234
2.045,0.234
2.050,0.231
2.055,0.225
2.060,0.212
2.065,0.190
2.070,0.163
2.075,0.125
2.080,0.075
2.085,0.020
2.090,-0.036
2.095,-0.095
2.100,-0.149
2.105,-0.194
2.110,-0.235
2.115,-0.269
2.120,-0.292
2.125,-0.308
2.130,-0.322
2.135,-0.329
2.140,-0.329
2.145,-0.326
2.150,-0.317
2.155,-0.305
2.160,-0.295
2.165,-0.286
2.170,-0.271
2.175,-0.253
2.180,-0.246
2.185,-0.239
2.190,-0.222
2.195,-0.210
2.200,-0.201
2.205,-0.185
2.210,-0.170
2.215,-0.164
2.220,-0.158
2.225,-0.144
2.230,-0.135
2.235,-0.127
2.240,-0.116
2.245,-0.110
2.250,-0.100
2.255,-0.087
2.260,-0.081
2.265,-0.075
2.270,-0.066
2.275,-0.059
2.280,-0.053
2.285,-0.051
2.290,-0.049
2.295,-0.047
2.300,-0.042
2.305,-0.034
2.310,-0.028
2.315,-0.024
2.320,-0.019
2.325,-0.014
2.330,-0.007
2.335,0.000
2.340,-0.001
2.345,-0.001
2.350,0.006
2.355,0.013
2.360,0.014
2.365,0.010
2.370,0.014
2.375,0.022
2.380,0.029
2.385,0.033
2.390,0.030
2.395,0.029
2.400,0.035
2.405,0.046
2.410,0.055
2.415,0.061
2.420,0.071
2.425,0.080
2.430,0.080
2.435,0.089
2.440,0.110
2.445,0.118
2.450,0.116
2.455,0.120
2.460,0.125
2.465,0.129
2.470,0.123
2.475,0.115
2.480,0.104
2.485,0.085
2.490,0.067
2.495,0.058
2.500,0.063
2.505,0.054
2.510,0.033
2.515,0.023
2.520,0.020
2.525,0.013
2.530,-0.001
2.535,-0.006
2.540,-0.005
2.545,-0.010
2.550,-0.012
2.555,-0.003
2.560,0.007
2.565,0.009
2.570,0.010
2.575,0.009
2.580,0.008
2.585,0.011
2.590,0.015
2.595,-0.001
2.600,0.002
2.605,0.091
2.610,0.272
2.615,0.552
2.620,0.925
2.625,1.273
2.630,1.354
2.635,1.038
2.640,0.409
2.645,-0.283
2.650,-0.683
2.655,-0.725
2.660,-0.621
2.665,-0.477
2.670,-0.339
2.675,-0.260
2.680,-0.218
2.685,-0.173
2.690,-0.136
2.695,-0.105
2.700,-0.079
2.705,-0.064
2.710,-0.054
2.715,-0.042
2.720,-0.034
2.725,-0.030
2.730,-0.026
2.735,-0.018
2.740,-0.012
2.745,-0.005
2.750,0.004
2.755,0.010
2.760,0.011
2.765,0.016
2.770,0.021
2.775,0.021
2.780,0.015
2.785,0.018
2.790,0.030
2.795,0.024
2.800,0.021
2.805,0.038
2.810,0.047
2.815,0.050
2.820,0.053
2.825,0.064
2.830,0.075
2.835,0.074
2.840,0.080
2.845,0.091
2.850,0.099
2.855,0.114
2.860,0.119
2.865,0.124
2.870,0.149
2.875,0.167
2.880,0.171
2.885,0.185
2.890,0.205
2.895,0.212
2.900,0.214
2.905,0.223
2.910,0.226
2.915,0.217
2.920,0.205
2.925,0.185
2.930,0.159
2.935,0.137
2.940,0.097
2.945,0.041
2.950,-0.015
2.955,-0.067
2.960,-0.114
2.965,-0.163
2.970,-0.213
2.975,-0.255
2.980,-0.285
2.985,-0.304
2.990,-0.317
2.995,-0.326
3.000,-0.333
3.005,-0.332
3.010,-0.327
3.015,-0.322
3.020,-0.309
3.025,-0.294
3.030,-0.284
3.035,-0.266
3.040,-0.250
3.045,-0.242
3.050,-0.234
3.055,-0.220
3.060,-0.199
3.065,-0.188
3.070,-0.181
3.075,-0.166
3.080,-0.153
3.085,-0.144
3.090,-0.136
3.095,-0.132
3.100,-0.122
3.105,-0.099
3.110,-0.082
3.115,-0.083
3.120,-0.074
3.125,-0.060
3.130,-0.057
3.135,-0.056
3.140,-0.052
3.145,-0.047
3.150,-0.043
3.155,-0.045
3.160,-0.043
3.165,-0.031
3.170,-0.023
3.175,-0.021
3.180,-0.021
3.185,-0.020
3.190,-0.019
3.195,-0.016
3.200,-0.005
3.205,-0.001
3.210,-0.004
3.215,-0.001
3.220,0.008
3.225,0.013
3.230,0.015
3.235,0.023
3.240,0.025
3.245,0.019
3.250,0.022
3.255,0.029
3.260,0.030
3.265,0.038
3.270,0.051
3.275,0.071
3.280,0.076
3.285,0.070
3.290,0.093
3.295,0.111
3.300,0.103
3.305,0.102
3.310,0.104
3.315,0.112
3.320,0.124
3.325,0.125
3.330,0.115
3.335,0.093
3.340,0.064
3.345,0.051
3.350,0.065
3.355,0.062
3.360,0.032
3.365,0.021
3.370,0.031
3.375,0.022
3.380,-0.006
3.385,-0.021
3.390,-0.019
3.395,-0.015
3.400,-0.006
3.405,0.008
3.410,0.011
3.415,0.011
3.420,0.013
3.425,0.007
3.430,0.002
3.435,0.009
3.440,0.023
3.445,0.020
3.450,-0.004
3.455,0.017
3.460,0.142
3.465,0.391
3.470,0.758
3.475,1.163
3.480,1.394
3.485,1.261
3.490,0.749
3.495,0.032
3.500,-0.524
3.505,-0.717
3.510,-0.682
3.515,-0.552
3.520,-0.398
3.525,-0.302
3.530,-0.253
3.535,-0.204
3.540,-0.158
3.545,-0.129
3.550,-0.108
3.555,-0.076
3.560,-0.042
3.565,-0.022
3.570,-0.019
3.575,-0.019
3.580,-0.009
3.585,-0.002
3.590,-0.001
3.595,0.008
3.600,0.010
3.605,0.004
3.610,0.010
3.615,0.018
3.620,0.019
3.625,0.024
3.630,0.023
3.635,0.023
3.640,0.039
3.645,0.047
3.650,0.043
3.655,0.044
3.660,0.044
3.665,0.047
3.670,0.058
3.675,0.062
3.680,0.067
3.685,0.077
3.690,0.085
3.695,0.091
3.700,0.100
3.705,0.114
3.710,0.130
3.715,0.142
3.720,0.151
3.725,0.164
3.730,0.176
3.735,0.189
3.740,0.203
3.745,0.213
3.750,0.220
3.755,0.226
3.760,0.228
3.765,0.220
3.770,0.209
3.775,0.196
3.780,0.171
3.785,0.140
3.790,0.108
3.795,0.068
3.800,0.013
3.805,-0.050
3.810,-0.110
3.815,-0.162
3.820,-0.205
3.825,-0.237
3.830,-0.268
3.835,-0.297
3.840,-0.316
3.845,-0.325
3.850,-0.332
3.855,-0.330
3.860,-0.324
3.865,-0.320
3.870,-0.313
3.875,-0.301
3.880,-0.289
3.885,-0.278
3.890,-0.262
3.895,-0.245
3.900,-0.229
3.905,-0.214
3.910,-0.206
3.915,-0.197
3.920,-0.180
3.925,-0.162
3.930,-0.145
3.935,-0.131
3.940,-0.122
3.945,-0.114
3.950,-0.103
3.955,-0.090
3.960,-0.080
3.965,-0.071
3.970,-0.063
3.975,-0.057
3.980,-0.054
3.985,-0.048
3.990,-0.045
3.995,-0.045
4.000,-0.041
4.005,-0.036
4.010,-0.034
4.015,-0.033
4.020,-0.028
4.025,-0.021
4.030,-0.017
4.035,-0.015
4.040,-0.010
4.045,-0.006
4.050,-0.008
4.055,-0.007
4.060,-0.001
4.065,0.004
4.070,0.007
4.075,0.010
4.080,0.013
4.085,0.016
4.090,0.018
4.095,0.017
4.100,0.017
4.105,0.023
4.110,0.027
4.115,0.031
4.120,0.038
4.125,0.048
4.130,0.060
4.135,0.070
4.140,0.077
4.145,0.081
4.150,0.090
4.155,0.102
4.160,0.104
4.165,0.102
4.170,0.105
4.175,0.110
4.180,0.109
4.185,0.105
4.190,0.109
4.195,0.099
4.200,0.069
4.205,0.053
4.210,0.057
4.215,0.056
4.220,0.042
4.225,0.028
4.230,0.019
4.235,0.015
4.240,0.007
4.245,-0.010
4.250,-0.021
4.255,-0.016
4.260,-0.008
4.265,-0.006
4.270,-0.002
4.275,0.003
4.280,0.005
4.285,0.009
4.290,0.014
4.295,0.015
4.300,0.014
4.305,-0.002
4.310,-0.023
4.315,0.007
4.320,0.139
4.325,0.382
4.330,0.722
4.335,1.110
4.340,1.400
4.345,1.356
4.350,0.918
4.355,0.237
4.360,-0.404
4.365,-0.708
4.370,-0.703
4.375,-0.588
4.380,-0.439
4.385,-0.325
4.390,-0.273
4.395,-0.228
4.400,-0.183
4.405,-0.155
4.410,-0.130
4.415,-0.102
4.420,-0.080
4.425,-0.068
4.430,-0.060
4.435,-0.052
4.440,-0.043
4.445,-0.038
4.450,-0.034
4.455,-0.029
4.460,-0.023
4.465,-0.018
4.470,-0.010
4.475,-0.005
4.480,-0.003
4.485,0.001
4.490,0.007
4.495,0.011
4.500,0.014
4.505,0.017
4.510,0.021
4.515,0.025
4.520,0.033
4.525,0.040
4.530,0.044
4.535,0.050
4.540,0.059
4.545,0.064
4.550,0.070
4.555,0.080
4.560,0.091
4.565,0.102
4.570,0.114
4.575,0.127
4.580,0.138
4.585,0.152
4.590,0.170
4.595,0.186
4.600,0.199
4.605,0.214
4.610,0.226
4.615,0.232
4.620,0.236
4.625,0.237
4.630,0.229
4.635,0.218
4.640,0.203
4.645,0.175
4.650,0.135
4.655,0.088
4.660,0.034
4.665,-0.024
4.670,-0.080
4.675,-0.134
4.680,-0.186
4.685,-0.230
4.690,-0.264
4.695,-0.292
4.700,-0.313
4.705,-0.325
4.710,-0.331
4.715,-0.334
4.720,-0.331
4.725,-0.324
4.730,-0.316
4.735,-0.305
4.740,-0.291
4.745,-0.278
4.750,-0.265
4.755,-0.250
4.760,-0.236
4.765,-0.226
4.770,-0.213
4.775,-0.201
4.780,-0.190
4.785,-0.177
4.790,-0.163
4.795,-0.154
4.800,-0.146
4.805,-0.134
4.810,-0.123
4.815,-0.114
4.820,-0.103
4.825,-0.096
4.830,-0.090
4.835,-0.081
4.840,-0.073
4.845,-0.068
4.850,-0.063
4.855,-0.056
4.860,-0.049
4.865,-0.046
4.870,-0.039
4.875,-0.033
4.880,-0.029
4.885,-0.025
4.890,-0.020
4.895,-0.018
4.900,-0.015
4.905,-0.010
4.910,-0.005
4.915,-0.003
4.920,0.000
4.925,0.005
4.930,0.006
4.935,0.009
4.940,0.015
4.945,0.019
4.950,0.021
4.955,0.025
4.960,0.029
4.965,0.029
4.970,0.032
4.975,0.034
4.980,0.035
4.985,0.038
4.990,0.041
4.995,0.043
5.000,0.046
5.005,0.051
5.010,0.058
5.015,0.066
5.020,0.076
5.025,0.086
5.030,0.091
5.035,0.098
5.040,0.113
5.045,0.120
5.050,0.117
5.055,0.118
5.060,0.124
5.065,0.124
5.070,0.114
5.075,0.111
5.080,0.107
5.085,0.087
5.090,0.069
5.095,0.066
5.100,0.069
5.105,0.063
5.110,0.046
5.115,0.030
5.120,0.020
5.125,0.014
5.130,-0.001
5.135,-0.015
5.140,-0.016
5.145,-0.012
5.150,-0.009
5.155,-0.005
5.160,-0.001
5.165,0.002
5.170,0.005
5.175,0.010
5.180,0.013
5.185,0.014
5.190,0.010
5.195,-0.012
5.200,-0.022
5.205,0.043
5.210,0.211
5.215,0.482
5.220,0.830
5.225,1.199
5.230,1.391
5.235,1.201
5.240,0.667
5.245,-0.027
5.250,-0.568
5.255,-0.739
5.260,-0.666
5.265,-0.524
5.270,-0.378
5.275,-0.287
5.280,-0.243
5.285,-0.198
5.290,-0.162
5.295,-0.140
5.300,-0.112
5.305,-0.087
5.310,-0.074
5.315,-0.066
5.320,-0.057
5.325,-0.049
5.330,-0.042
5.335,-0.036
5.340,-0.029
5.345,-0.024
5.350,-0.021
5.355,-0.015
5.360,-0.010
5.365,-0.007
5.370,-0.002
5.375,0.003
5.380,0.006
5.385,0.010
5.390,0.016
5.395,0.019
5.400,0.023
5.405,0.029
5.410,0.034
5.415,0.037
5.420,0.045
5.425,0.053
5.430,0.059
5.435,0.066
5.440,0.074
5.445,0.082
5.450,0.091
5.455,0.105
5.460,0.117
5.465,0.128
5.470,0.142
5.475,0.157
5.480,0.172
5.485,0.187
5.490,0.202
5.495,0.213
5.500,0.220
5.505,0.227
5.510,0.231
5.515,0.228
5.520,0.221
5.525,0.211
5.530,0.191
5.535,0.163
5.540,0.126
5.545,0.080
5.550,0.026
5.555,-0.029
5.560,-0.084
5.565,-0.140
5.570,-0.190
5.575,-0.232
5.580,-0.267
5.585,-0.294
5.590,-0.311
5.595,-0.322
5.600,-0.327
5.605,-0.324
5.610,-0.322
5.615,-0.321
5.620,-0.315
5.625,-0.303
5.630,-0.288
5.635,-0.273
5.640,-0.259
5.645,-0.246
5.650,-0.236
5.655,-0.227
5.660,-0.215
5.665,-0.199
5.670,-0.185
5.675,-0.175
5.680,-0.168
5.685,-0.160
5.690,-0.149
5.695,-0.137
5.700,-0.129
5.705,-0.119
5.710,-0.110
5.715,-0.106
5.720,-0.097
5.725,-0.083
5.730,-0.074
5.735,-0.068
5.740,-0.063
5.745,-0.057
5.750,-0.050
5.755,-0.044
5.760,-0.038
5.765,-0.034
5.770,-0.030
5.775,-0.025
5.780,-0.023
5.785,-0.021
5.790,-0.015
5.795,-0.012
5.800,-0.009
5.805,-0.002
5.810,0.006
5.815,0.009
5.820,0.007
5.825,0.007
5.830,0.012
5.835,0.017
5.840,0.025
5.845,0.034
5.850,0.035
5.855,0.032
5.860,0.033
5.865,0.034
5.870,0.034
5.875,0.037
5.880,0.041
5.885,0.044
5.890,0.047
5.895,0.049
5.900,0.050
5.905,0.053
5.910,0.064
5.915,0.076
5.920,0.086
5.925,0.094
5.930,0.096
5.935,0.102
5.940,0.116
5.945,0.125
5.950,0.127
5.955,0.126
5.960,0.126
5.965,0.129
5.970,0.125
5.975,0.125
5.980,0.112
5.985,0.080
5.990,0.067
5.995,0.069
6.000,0.071
6.005,0.066
6.010,0.046
6.015,0.027
6.020,0.019
6.025,0.010
6.030,0.000
6.035,-0.011
6.040,-0.021
6.045,-0.016
6.050,-0.012
6.055,-0.012
6.060,-0.004
6.065,0.004
6.070,0.007
6.075,0.011
6.080,0.013
6.085,0.016
6.090,0.019
6.095,-0.001
6.100,-0.017
6.105,0.034
6.110,0.180
6.115,0.430
6.120,0.778
6.125,1.154
6.130,1.362
6.135,1.206
6.140,0.690
6.145,-0.016
6.150,-0.563
6.155,-0.736
6.160,-0.676
6.165,-0.539
6.170,-0.386
6.175,-0.292
6.180,-0.251
6.185,-0.209
6.190,-0.169
6.195,-0.140
6.200,-0.113
6.205,-0.086
6.210,-0.068
6.215,-0.057
6.220,-0.043
6.225,-0.026
6.230,-0.016
6.235,-0.020
6.240,-0.022
6.245,-0.015
6.250,-0.010
6.255,-0.005
6.260,0.002
6.265,0.002
6.270,-0.002
6.275,-0.003
6.280,0.003
6.285,0.016
6.290,0.029
6.295,0.037
6.300,0.036
6.305,0.035
6.310,0.038
6.315,0.038
6.320,0.038
6.325,0.045
6.330,0.058
6.335,0.069
6.340,0.075
6.345,0.077
6.350,0.080
6.355,0.098
6.360,0.120
6.365,0.130
6.370,0.135
6.375,0.142
6.380,0.153
6.385,0.177
6.390,0.198
6.395,0.200
6.400,0.196
6.405,0.201
6.410,0.207
6.415,0.211
6.420,0.210
6.425,0.200
6.430,0.175
6.435,0.142
6.440,0.106
6.445,0.059
6.450,0.014
6.455,-0.028
6.460,-0.088
6.465,-0.146
6.470,-0.185
6.475,-0.227
6.480,-0.266
6.485,-0.293
6.490,-0.311
6.495,-0.318
6.500,-0.325
6.505,-0.329
6.510,-0.323
6.515,-0.312
6.520,-0.304
6.525,-0.295
6.530,-0.290
6.535,-0.284
6.540,-0.268
6.545,-0.253
6.550,-0.238
6.555,-0.218
6.560,-0.204
6.565,-0.193
6.570,-0.179
6.575,-0.158
6.580,-0.147
6.585,-0.146
6.590,-0.137
6.595,-0.123
6.600,-0.110
6.605,-0.103
6.610,-0.094
6.615,-0.077
6.620,-0.067
6.625,-0.068
6.630,-0.067
6.635,-0.058
6.640,-0.046
6.645,-0.043
6.650,-0.044
6.655,-0.039
6.660,-0.033
6.665,-0.028
6.670,-0.028
6.675,-0.029
6.680,-0.028
6.685,-0.017
6.690,-0.006
6.695,-0.017
6.700,-0.024
6.705,-0.006
6.710,0.009
6.715,0.006
6.720,0.002
6.725,0.009
6.730,0.015
6.735,0.014
6.740,0.014
6.745,0.016
6.750,0.027
6.755,0.033
6.760,0.026
6.765,0.028
6.770,0.033
6.775,0.037
6.780,0.044
6.785,0.041
6.790,0.035
6.795,0.039
6.800,0.048
6.805,0.057
6.810,0.066
6.815,0.077
6.820,0.095
6.825,0.105
6.830,0.100
6.835,0.106
6.840,0.118
6.845,0.114
6.850,0.109
6.855,0.122
6.860,0.125
6.865,0.112
6.870,0.103
6.875,0.089
6.880,0.074
6.885,0.061
6.890,0.055
6.895,0.053
6.900,0.046
6.905,0.035
6.910,0.016
6.915,-0.004
6.920,-0.015
6.925,-0.011
6.930,-0.009
6.935,-0.020
6.940,-0.018
6.945,-0.001
6.950,-0.002
6.955,-0.007
6.960,0.008
6.965,0.017
6.970,0.017
6.975,0.018
6.980,0.012
6.985,-0.009
6.990,-0.031
6.995,-0.006
7.000,0.110
7.005,0.350
7.010,0.709
7.015,1.114
7.020,1.383
7.025,1.308
7.030,0.845
7.035,0.141
7.040,-0.467
7.045,-0.716
7.050,-0.699
7.055,-0.580
7.060,-0.432
7.065,-0.328
7.070,-0.272
7.075,-0.222
7.080,-0.179
7.085,-0.141
7.090,-0.112
7.095,-0.085
7.100,-0.059
7.105,-0.043
7.110,-0.036
7.115,-0.032
7.120,-0.027
7.125,-0.019
7.130,-0.013
7.135,-0.007
7.140,-0.004
7.145,-0.002
7.150,0.004
7.155,0.009
7.160,0.010
7.165,0.011
7.170,0.017
7.175,0.024
7.180,0.028
7.185,0.032
7.190,0.035
7.195,0.037
7.200,0.038
7.205,0.045
7.210,0.054
7.215,0.060
7.220,0.067
7.225,0.071
7.230,0.073
7.235,0.080
7.240,0.094
7.245,0.104
7.250,0.108
7.255,0.122
7.260,0.141
7.265,0.150
7.270,0.160
7.275,0.176
7.280,0.186
7.285,0.194
7.290,0.206
7.295,0.211
7.300,0.211
7.305,0.213
7.310,0.210
7.315,0.193
7.320,0.172
7.325,0.146
7.330,0.113
7.335,0.072
7.340,0.021
7.345,-0.036
7.350,-0.093
7.355,-0.142
7.360,-0.185
7.365,-0.227
7.370,-0.263
7.375,-0.289
7.380,-0.305
7.385,-0.318
7.390,-0.327
7.395,-0.332
7.400,-0.335
7.405,-0.331
7.410,-0.319
7.415,-0.307
7.420,-0.295
7.425,-0.282
7.430,-0.267
7.435,-0.249
7.440,-0.234
7.445,-0.222
7.450,-0.211
7.455,-0.196
7.460,-0.179
7.465,-0.167
7.470,-0.154
7.475,-0.139
7.480,-0.127
7.485,-0.116
7.490,-0.103
7.495,-0.094
7.500,-0.087
7.505,-0.076
7.510,-0.066
7.515,-0.063
7.520,-0.060
7.525,-0.053
7.530,-0.047
7.535,-0.044
7.540,-0.040
7.545,-0.040
7.550,-0.039
7.555,-0.032
7.560,-0.024
7.565,-0.022
7.570,-0.021
7.575,-0.018
7.580,-0.016
7.585,-0.014
7.590,-0.008
7.595,-0.003
7.600,-0.002
7.605,0.000
7.610,0.005
7.615,0.007
7.620,0.011
7.625,0.014
7.630,0.015
7.635,0.018
7.640,0.023
7.645,0.025
7.650,0.025
7.655,0.029
7.660,0.034
7.665,0.037
7.670,0.040
7.675,0.043
7.680,0.042
7.685,0.044
7.690,0.049
7.695,0.049
7.700,0.047
7.705,0.054
7.710,0.066
7.715,0.075
7.720,0.084
7.725,0.092
7.730,0.100
7.735,0.109
7.740,0.116
7.745,0.115
7.750,0.111
7.755,0.117
7.760,0.120
7.765,0.111
7.770,0.109
7.775,0.105
7.780,0.081
7.785,0.061
7.790,0.063
7.795,0.066
7.800,0.053
7.805,0.035
7.810,0.022
7.815,0.014
7.820,0.007
7.825,-0.006
7.830,-0.018
7.835,-0.019
7.840,-0.012
7.845,-0.008
7.850,-0.008
7.855,-0.003
7.860,0.001
7.865,0.002
7.870,0.007
7.875,0.013
7.880,0.013
7.885,0.004
7.890,-0.017
7.895,-0.022
7.900,0.047
7.905,0.227
7.910,0.514
7.915,0.871
7.920,1.241
7.925,1.424
7.930,1.217
7.935,0.667
7.940,-0.031
7.945,-0.562
7.950,-0.731
7.955,-0.671
7.960,-0.538
7.965,-0.397
7.970,-0.312
7.975,-0.266
7.980,-0.220
7.985,-0.184
7.990,-0.158
7.995,-0.131
8.000,-0.107
8.005,-0.089
8.010,-0.077
8.015,-0.070
8.020,-0.064
8.025,-0.056
8.030,-0.048
8.035,-0.043
8.040,-0.034
8.045,-0.027
8.050,-0.026
8.055,-0.020
8.060,-0.014
8.065,-0.012
8.070,-0.008
8.075,0.000
8.080,0.005
8.085,0.008
8.090,0.015
8.095,0.019
8.100,0.021
8.105,0.029
8.110,0.037
8.115,0.039
8.120,0.044
8.125,0.055
8.130,0.064
8.135,0.071
8.140,0.082
8.145,0.092
8.150,0.099
8.155,0.112
8.160,0.128
8.165,0.141
8.170,0.156
8.175,0.174
8.180,0.188
8.185,0.199
8.190,0.213
8.195,0.224
8.200,0.229
8.205,0.233
8.210,0.233
8.215,0.224
8.220,0.211
8.225,0.195
8.230,0.168
8.235,0.129
8.240,0.084
8.245,0.031
8.250,-0.031
8.255,-0.088
8.260,-0.140
8.265,-0.190
8.270,-0.234
8.275,-0.266
8.280,-0.294
8.285,-0.316
8.290,-0.326
8.295,-0.330
8.300,-0.334
8.305,-0.330
8.310,-0.321
8.315,-0.313
8.320,-0.302
8.325,-0.288
8.330,-0.276
8.335,-0.266
8.340,-0.251
8.345,-0.237
8.350,-0.226
8.355,-0.212
8.360,-0.196
8.365,-0.185
8.370,-0.174
8.375,-0.160
8.380,-0.149
8.385,-0.141
8.390,-0.129
8.395,-0.118
8.400,-0.110
8.405,-0.100
8.410,-0.090
8.415,-0.084
8.420,-0.078
8.425,-0.070
8.430,-0.064
8.435,-0.061
8.440,-0.053
8.445,-0.048
8.450,-0.046
8.455,-0.040
8.460,-0.033
8.465,-0.031
8.470,-0.027
8.475,-0.020
8.480,-0.017
8.485,-0.017
8.490,-0.010
8.495,-0.006
8.500,-0.005
8.505,0.000
8.510,0.007
8.515,0.009
8.520,0.012
8.525,0.017
8.530,0.020
8.535,0.020
8.540,0.025
8.545,0.030
8.550,0.031
8.555,0.033
8.560,0.037
8.565,0.038
8.570,0.039
8.575,0.044
8.580,0.046
8.585,0.046
8.590,0.049
8.595,0.052
8.600,0.052
8.605,0.055
8.610,0.059
8.615,0.058
8.620,0.057
8.625,0.060
8.630,0.060
8.635,0.060
8.640,0.065
8.645,0.067
8.650,0.065
8.655,0.070
8.660,0.081
8.665,0.086
8.670,0.091
8.675,0.097
8.680,0.105
8.685,0.115
8.690,0.123
8.695,0.122
8.700,0.118
8.705,0.123
8.710,0.127
8.715,0.116
8.720,0.109
8.725,0.108
8.730,0.090
8.735,0.066
8.740,0.062
8.745,0.067
8.750,0.059
8.755,0.041
8.760,0.025
8.765,0.014
8.770,0.008
8.775,-0.002
8.780,-0.018
8.785,-0.025
8.790,-0.019
8.795,-0.012
8.800,-0.013
8.805,-0.010
8.810,-0.005
8.815,-0.004
8.820,-0.002
8.825,0.003
8.830,0.006
8.835,0.002
8.840,-0.013
8.845,-0.033
8.850,-0.008
8.855,0.120
8.860,0.356
8.865,0.674
8.870,1.046
8.875,1.345
8.880,1.325
8.885,0.915
8.890,0.266
8.895,-0.368
8.900,-0.699
8.905,-0.713
8.910,-0.597
8.915,-0.450
8.920,-0.336
8.925,-0.280
8.930,-0.237
8.935,-0.196
8.940,-0.169
8.945,-0.141
8.950,-0.115
8.955,-0.097
8.960,-0.085
8.965,-0.079
8.970,-0.072
8.975,-0.063
8.980,-0.056
8.985,-0.051
8.990,-0.043
8.995,-0.037
9.000,-0.035
9.005,-0.029
9.010,-0.021
9.015,-0.017
9.020,-0.014
9.025,-0.007
9.030,-0.004
9.035,-0.003
9.040,0.004
9.045,0.011
9.050,0.013
9.055,0.018
9.060,0.025
9.065,0.030
9.070,0.034
9.075,0.044
9.080,0.050
9.085,0.056
9.090,0.067
9.095,0.076
9.100,0.086
9.105,0.101
9.110,0.114
9.115,0.124
9.120,0.138
9.125,0.155
9.130,0.168
9.135,0.182
9.140,0.197
9.145,0.206
9.150,0.211
9.155,0.217
9.160,0.219
9.165,0.214
9.170,0.208
9.175,0.198
9.180,0.177
9.185,0.147
9.190,0.111
9.195,0.065
9.200,0.010
9.205,-0.043
9.210,-0.097
9.215,-0.151
9.220,-0.194
9.225,-0.232
9.230,-0.266
9.235,-0.294
9.240,-0.315
9.245,-0.328
9.250,-0.332
9.255,-0.328
9.260,-0.323
9.265,-0.320
9.270,-0.310
9.275,-0.294
9.280,-0.279
9.285,-0.268
9.290,-0.259
9.295,-0.248
9.300,-0.234
9.305,-0.218
9.310,-0.206
9.315,-0.194
9.320,-0.178
9.325,-0.166
9.330,-0.161
9.335,-0.151
9.340,-0.140
9.345,-0.132
9.350,-0.120
9.355,-0.104
9.360,-0.093
9.365,-0.089
9.370,-0.087
9.375,-0.082
9.380,-0.076
9.385,-0.065
9.390,-0.054
9.395,-0.052
9.400,-0.052
9.405,-0.047
9.410,-0.042
9.415,-0.036
9.420,-0.028
9.425,-0.023
9.430,-0.019
9.435,-0.013
9.440,-0.011
9.445,-0.013
9.450,-0.009
9.455,0.005
9.460,0.011
9.465,0.009
9.470,0.012
9.475,0.015
9.480,0.013
9.485,0.018
9.490,0.027
9.495,0.025
9.500,0.021
9.505,0.026
9.510,0.036
9.515,0.041
9.520,0.040
9.525,0.043
9.530,0.052
9.535,0.059
9.540,0.058
9.545,0.051
9.550,0.049
9.555,0.055
9.560,0.058
9.565,0.055
9.570,0.055
9.575,0.056
9.580,0.054
9.585,0.060
9.590,0.071
9.595,0.071
9.600,0.066
9.605,0.069
9.610,0.070
9.615,0.068
9.620,0.069
9.625,0.069
9.630,0.061
9.635,0.057
9.640,0.062
9.645,0.076
9.650,0.087
9.655,0.093
9.660,0.097
9.665,0.100
9.670,0.107
9.675,0.118
9.680,0.121
9.685,0.114
9.690,0.114
9.695,0.121
9.700,0.123
9.705,0.125
9.710,0.123
9.715,0.100
9.720,0.070
9.725,0.057
9.730,0.057
9.735,0.058
9.740,0.045
9.745,0.021
9.750,0.006
9.755,0.006
9.760,0.004
9.765,-0.010
9.770,-0.024
9.775,-0.029
9.780,-0.027
9.785,-0.022
9.790,-0.024
9.795,-0.027
9.800,-0.017
9.805,-0.003
9.810,-0.001
9.815,-0.005
9.820,0.000
9.825,0.002
9.830,-0.020
9.835,-0.043
9.840,-0.007
9.845,0.121
9.850,0.352
9.855,0.691
9.860,1.088
9.865,1.358
9.870,1.289
9.875,0.833
9.880,0.124
9.885,-0.492
9.890,-0.737
9.895,-0.713
9.900,-0.594
9.905,-0.445
9.910,-0.341
9.915,-0.291
9.920,-0.245
9.925,-0.203
9.930,-0.171
9.935,-0.142
9.940,-0.111
9.945,-0.091
9.950,-0.085
9.955,-0.074
9.960,-0.060
9.965,-0.056
9.970,-0.050
9.975,-0.039
9.980,-0.036
9.985,-0.034
9.990,-0.021
9.995,-0.015
10.000,-0.018
10.005,-0.012
10.010,-0.008
10.015,-0.010
10.020,-0.005
10.025,0.005
10.030,0.011
10.035,0.010
10.040,0.010
10.045,0.013
10.050,0.024
10.055,0.038
10.060,0.038
10.065,0.034
10.070,0.041
10.075,0.054
10.080,0.063
10.085,0.074
10.090,0.086
10.095,0.093
10.100,0.097
10.105,0.108
10.110,0.133
10.115,0.152
10.120,0.155
10.125,0.160
10.130,0.170
10.135,0.180
10.140,0.196
10.145,0.205
10.150,0.203
10.155,0.190
10.160,0.173
10.165,0.162
10.170,0.146
10.175,0.120
10.180,0.085
10.185,0.037
10.190,-0.013
10.195,-0.062
10.200,-0.107
10.205,-0.151
10.210,-0.196
10.215,-0.233
10.220,-0.260
10.225,-0.281
10.230,-0.294
10.235,-0.302
10.240,-0.314
10.245,-0.324
10.250,-0.326
10.255,-0.319
10.260,-0.308
10.265,-0.296
10.270,-0.274
10.275,-0.247
10.280,-0.242
10.285,-0.240
10.290,-0.222
10.295,-0.208
10.300,-0.200
10.305,-0.182
10.310,-0.163
10.315,-0.151
10.320,-0.145
10.325,-0.135
10.330,-0.124
10.335,-0.117
10.340,-0.103
10.345,-0.090
10.350,-0.085
10.355,-0.077
10.360,-0.068
10.365,-0.062
10.370,-0.055
10.375,-0.048
10.380,-0.040
10.385,-0.039
10.390,-0.039
10.395,-0.035
10.400,-0.032
10.405,-0.031
10.410,-0.027
10.415,-0.028
10.420,-0.028
10.425,-0.021
10.430,-0.019
10.435,-0.013
10.440,-0.001
10.445,0.003
10.450,0.003
10.455,0.002
10.460,0.004
10.465,0.007
10.470,0.006
10.475,0.012
10.480,0.014
10.485,0.009
10.490,0.013
10.495,0.026
10.500,0.039
10.505,0.043
10.510,0.041
10.515,0.035
10.520,0.033
10.525,0.038
10.530,0.038
10.535,0.035
10.540,0.039
10.545,0.047
10.550,0.047
10.555,0.047
10.560,0.059
10.565,0.064
10.570,0.062
10.575,0.071
10.580,0.082
10.585,0.089
10.590,0.089
10.595,0.091
10.600,0.104
10.605,0.112
10.610,0.116
10.615,0.117
10.620,0.117
10.625,0.127
10.630,0.127
10.635,0.118
10.640,0.109
10.645,0.086
10.650,0.068
10.655,0.064
10.660,0.060
10.665,0.053
10.670,0.033
10.675,0.014
10.680,0.011
10.685,0.001
10.690,-0.014
10.695,-0.014
10.700,-0.011
10.705,-0.018
10.710,-0.016
10.715,-0.010
10.720,-0.010
10.725,-0.005
10.730,0.001
10.735,0.004
10.740,0.011
10.745,0.017
10.750,0.010
10.755,-0.014
10.760,-0.029
10.765,0.019
10.770,0.162
10.775,0.420
10.780,0.789
10.785,1.188
10.790,1.418
10.795,1.285
10.800,0.770
10.805,0.052
10.810,-0.516
10.815,-0.725
10.820,-0.695
10.825,-0.568
10.830,-0.419
10.835,-0.324
10.840,-0.274
10.845,-0.229
10.850,-0.187
10.855,-0.153
10.860,-0.130
10.865,-0.105
10.870,-0.079
10.875,-0.065
10.880,-0.057
10.885,-0.048
10.890,-0.040
10.895,-0.032
10.900,-0.026
10.905,-0.019
10.910,-0.012
10.915,-0.010
10.920,-0.006
10.925,0.001
10.930,0.004
10.935,0.009
10.940,0.015
10.945,0.014
10.950,0.014
10.955,0.019
10.960,0.024
10.965,0.028
10.970,0.032
10.975,0.038
10.980,0.044
10.985,0.047
10.990,0.054
10.995,0.063
11.000,0.070
11.005,0.079
11.010,0.091
11.015,0.102
11.020,0.113
11.025,0.127
11.030,0.137
11.035,0.148
11.040,0.163
11.045,0.177
11.050,0.189
11.055,0.200
11.060,0.210
11.065,0.214
11.070,0.212
11.075,0.212
11.080,0.204
11.085,0.189
11.090,0.172
11.095,0.150
11.100,0.118
11.105,0.076
11.110,0.027
11.115,-0.029
11.120,-0.083
11.125,-0.131
11.130,-0.178
11.135,-0.220
11.140,-0.252
11.145,-0.282
11.150,-0.306
11.155,-0.321
11.160,-0.329
11.165,-0.334
11.170,-0.333
11.175,-0.326
11.180,-0.317
11.185,-0.310
11.190,-0.299
11.195,-0.287
11.200,-0.273
11.205,-0.257
11.210,-0.243
11.215,-0.232
11.220,-0.219
11.225,-0.202
11.230,-0.187
11.235,-0.175
11.240,-0.160
11.245,-0.147
11.250,-0.136
11.255,-0.121
11.260,-0.107
11.265,-0.098
11.270,-0.088
11.275,-0.078
11.280,-0.074
11.285,-0.068
11.290,-0.060
11.295,-0.054
11.300,-0.050
11.305,-0.045
11.310,-0.039
11.315,-0.036
11.320,-0.033
11.325,-0.028
11.330,-0.027
11.335,-0.026
11.340,-0.022
11.345,-0.018
11.350,-0.016
11.355,-0.011
11.360,-0.007
11.365,-0.007
11.370,-0.005
11.375,0.001
11.380,0.004
11.385,0.007
11.390,0.012
11.395,0.015
11.400,0.016
11.405,0.019
11.410,0.023
11.415,0.025
11.420,0.025
11.425,0.029
11.430,0.032
11.435,0.034
11.440,0.038
11.445,0.040
11.450,0.040
11.455,0.043
11.460,0.047
11.465,0.048
11.470,0.049
11.475,0.052
11.480,0.052
11.485,0.052
11.490,0.056
11.495,0.057
11.500,0.057
11.505,0.064
11.510,0.073
11.515,0.081
11.520,0.088
11.525,0.096
11.530,0.105
11.535,0.115
11.540,0.119
11.545,0.117
11.550,0.116
11.555,0.124
11.560,0.125
11.565,0.111
11.570,0.108
11.575,0.104
11.580,0.080
11.585,0.061
11.590,0.064
11.595,0.066
11.600,0.053
11.605,0.035
11.610,0.023
11.615,0.015
11.620,0.007
11.625,-0.003
11.630,-0.016
11.635,-0.021
11.640,-0.015
11.645,-0.009
11.650,-0.007
11.655,-0.003
11.660,0.001
11.665,0.002
11.670,0.005
11.675,0.012
11.680,0.011
11.685,-0.001
11.690,-0.024
11.695,-0.019
11.700,0.072
11.705,0.278
11.710,0.586
11.715,0.953
11.720,1.303
11.725,1.418
11.730,1.134
11.735,0.542
11.740,-0.146
11.745,-0.614
11.750,-0.729
11.755,-0.655
11.760,-0.516
11.765,-0.380
11.770,-0.309
11.775,-0.266
11.780,-0.219
11.785,-0.186
11.790,-0.161
11.795,-0.133
11.800,-0.111
11.805,-0.097
11.810,-0.084
11.815,-0.076
11.820,-0.070
11.825,-0.060
11.830,-0.054
11.835,-0.050
11.840,-0.042
11.845,-0.036
11.850,-0.033
11.855,-0.027
11.860,-0.020
11.865,-0.018
11.870,-0.014
11.875,-0.006
11.880,-0.002
11.885,0.002
11.890,0.008
11.895,0.014
11.900,0.016
11.905,0.021
11.910,0.030
11.915,0.034
11.920,0.039
11.925,0.050
11.930,0.058
11.935,0.064
11.940,0.075
11.945,0.085
11.950,0.094
11.955,0.106
11.960,0.122
11.965,0.135
11.970,0.150
11.975,0.168
11.980,0.183
11.985,0.195
11.990,0.209
11.995,0.220
12.000,0.224
12.005,0.227
12.010,0.229
12.015,0.222
12.020,0.209
12.025,0.194
12.030,0.168
12.035,0.130
12.040,0.087
12.045,0.035
12.050,-0.024
12.055,-0.080
12.060,-0.131
12.065,-0.181
12.070,-0.225
12.075,-0.258
12.080,-0.287
12.085,-0.309
12.090,-0.323
12.095,-0.330
12.100,-0.334
12.105,-0.333
12.110,-0.325
12.115,-0.315
12.120,-0.307
12.125,-0.293
12.130,-0.278
12.135,-0.267
12.140,-0.254
12.145,-0.238
12.150,-0.226
12.155,-0.214
12.160,-0.199
12.165,-0.186
12.170,-0.177
12.175,-0.164
12.180,-0.152
12.185,-0.143
12.190,-0.133
12.195,-0.122
12.200,-0.114
12.205,-0.106
12.210,-0.096
12.215,-0.087
12.220,-0.081
12.225,-0.073
12.230,-0.065
12.235,-0.061
12.240,-0.055
12.245,-0.047
12.250,-0.043
12.255,-0.039
12.260,-0.033
12.265,-0.030
12.270,-0.026
12.275,-0.020
12.280,-0.015
12.285,-0.014
12.290,-0.011
12.295,-0.005
12.300,-0.003
12.305,-0.001
12.310,0.005
12.315,0.008
12.320,0.010
12.325,0.014
12.330,0.018
12.335,0.020
12.340,0.023
12.345,0.027
12.350,0.030
12.355,0.032
12.360,0.037
12.365,0.040
12.370,0.040
12.375,0.042
12.380,0.046
12.385,0.046
12.390,0.048
12.395,0.052
12.400,0.053
12.405,0.053
12.410,0.056
12.415,0.057
12.420,0.056
12.425,0.059
12.430,0.062
12.435,0.061
12.440,0.062
12.445,0.065
12.450,0.066
12.455,0.070
12.460,0.080
12.465,0.087
12.470,0.090
12.475,0.095
12.480,0.104
12.485,0.117
12.490,0.122
12.495,0.119
12.500,0.117
12.505,0.121
12.510,0.125
12.515,0.115
12.520,0.109
12.525,0.107
12.530,0.090
12.535,0.070
12.540,0.065
12.545,0.069
12.550,0.060
12.555,0.040
12.560,0.024
12.565,0.015
12.570,0.008
12.575,-0.004
12.580,-0.017
12.585,-0.021
12.590,-0.017
12.595,-0.013
12.600,-0.011
12.605,-0.008
12.610,-0.003
12.615,-0.001
12.620,0.000
12.625,0.004
12.630,0.007
12.635,-0.001
12.640,-0.023
12.645,-0.032
12.650,0.026
12.655,0.191
12.660,0.465
12.665,0.812
12.670,1.177
12.675,1.379
12.680,1.207
12.685,0.685
12.690,0.003
12.695,-0.533
12.700,-0.724
12.705,-0.675
12.710,-0.540
12.715,-0.394
12.720,-0.307
12.725,-0.264
12.730,-0.216
12.735,-0.181
12.740,-0.159
12.745,-0.130
12.750,-0.105
12.755,-0.093
12.760,-0.082
12.765,-0.073
12.770,-0.067
12.775,-0.059
12.780,-0.051
12.785,-0.046
12.790,-0.041
12.795,-0.034
12.800,-0.030
12.805,-0.026
12.810,-0.020
12.815,-0.015
12.820,-0.012
12.825,-0.006
12.830,0.000
12.835,0.003
12.840,0.007
12.845,0.013
12.850,0.018
12.855,0.022
12.860,0.028
12.865,0.034
12.870,0.039
12.875,0.047
12.880,0.056
12.885,0.062
12.890,0.071
12.895,0.081
12.900,0.090
12.905,0.102
12.910,0.116
12.915,0.129
12.920,0.142
12.925,0.157
12.930,0.172
12.935,0.184
12.940,0.196
12.945,0.207
12.950,0.213
12.955,0.214
12.960,0.215
12.965,0.210
12.970,0.199
12.975,0.184
12.980,0.163
12.985,0.132
12.990,0.094
12.995,0.049
13.000,-0.005
13.005,-0.061
13.010,-0.112
13.015,-0.160
13.020,-0.204
13.025,-0.240
13.030,-0.270
13.035,-0.295
13.040,-0.312
13.045,-0.320
13.050,-0.324
13.055,-0.323
13.060,-0.317
13.065,-0.309
13.070,-0.299
13.075,-0.287
13.080,-0.276
13.085,-0.264
13.090,-0.250
13.095,-0.234
13.100,-0.222
13.105,-0.208
13.110,-0.193
13.115,-0.184
13.120,-0.177
13.125,-0.165
13.130,-0.153
13.135,-0.145
13.140,-0.137
13.145,-0.126
13.150,-0.116
13.155,-0.106
13.160,-0.097
13.165,-0.092
13.170,-0.085
13.175,-0.073
13.180,-0.067
13.185,-0.066
13.190,-0.060
13.195,-0.053
13.200,-0.051
13.205,-0.045
13.210,-0.036
13.215,-0.033
13.220,-0.031
13.225,-0.023
13.230,-0.015
13.235,-0.013
13.240,-0.012
13.245,-0.011
13.250,-0.011
13.255,-0.006
13.260,-0.002
13.265,0.003
13.270,0.012
13.275,0.017
13.280,0.018
13.285,0.017
13.290,0.022
13.295,0.029
13.300,0.030
13.305,0.031
13.310,0.037
13.315,0.036
13.320,0.033
13.325,0.040
13.330,0.050
13.335,0.050
13.340,0.047
13.345,0.047
13.350,0.047
13.355,0.050
13.360,0.053
13.365,0.055
13.370,0.057
13.375,0.062
13.380,0.063
13.385,0.060
13.390,0.061
13.395,0.068
13.400,0.067
13.405,0.064
13.410,0.064
13.415,0.067
13.420,0.072
13.425,0.077
13.430,0.079
13.435,0.086
13.440,0.101
13.445,0.109
13.450,0.114
13.455,0.119
13.460,0.122
13.465,0.121
13.470,0.121
13.475,0.129
13.480,0.130
13.485,0.119
13.490,0.111
13.495,0.096
13.500,0.078
13.505,0.068
13.510,0.059
13.515,0.049
13.520,0.037
13.525,0.027
13.530,0.017
13.535,0.006
13.540,-0.007
13.545,-0.021
13.550,-0.026
13.555,-0.021
13.560,-0.017
13.565,-0.020
13.570,-0.024
13.575,-0.019
13.580,-0.008
13.585,-0.002
13.590,0.000
13.595,0.001
13.600,0.005
13.605,0.000
13.610,-0.017
13.615,-0.006
13.620,0.085
13.625,0.288
13.630,0.606
13.635,0.995
13.640,1.313
13.645,1.323
13.650,0.938
13.655,0.271
13.660,-0.387
13.665,-0.707
13.670,-0.716
13.675,-0.615
13.680,-0.473
13.685,-0.359
13.690,-0.307
13.695,-0.257
13.700,-0.198
13.705,-0.161
13.710,-0.139
13.715,-0.112
13.720,-0.087
13.725,-0.073
13.730,-0.060
13.735,-0.051
13.740,-0.044
13.745,-0.037
13.750,-0.037
13.755,-0.039
13.760,-0.031
13.765,-0.026
13.770,-0.023
13.775,-0.013
13.780,-0.009
13.785,-0.010
13.790,-0.004
13.795,0.005
13.800,0.012
13.805,0.017
13.810,0.017
13.815,0.014
13.820,0.019
13.825,0.024
13.830,0.025
13.835,0.032
13.840,0.043
13.845,0.049
13.850,0.055
13.855,0.065
13.860,0.076
13.865,0.085
13.870,0.092
13.875,0.099
13.880,0.109
13.885,0.122
13.890,0.140
13.895,0.158
13.900,0.175
13.905,0.186
13.910,0.187
13.915,0.188
13.920,0.193
13.925,0.194
13.930,0.188
13.935,0.175
13.940,0.167
13.945,0.155
13.950,0.135
13.955,0.103
13.960,0.053
13.965,-0.004
13.970,-0.055
13.975,-0.090
13.980,-0.131
13.985,-0.185
13.990,-0.227
13.995,-0.257
14.000,-0.282
14.005,-0.301
14.010,-0.313
14.015,-0.320
14.020,-0.320
14.025,-0.312
14.030,-0.304
14.035,-0.295
14.040,-0.287
14.045,-0.280
14.050,-0.270
14.055,-0.257
14.060,-0.240
14.065,-0.225
14.070,-0.212
14.075,-0.200
14.080,-0.186
14.085,-0.172
14.090,-0.152
14.095,-0.131
14.100,-0.131
14.105,-0.133
14.110,-0.117
14.115,-0.105
14.120,-0.102
14.125,-0.098
14.130,-0.090
14.135,-0.076
14.140,-0.062
14.145,-0.052
14.150,-0.052
14.155,-0.049
14.160,-0.037
14.165,-0.040
14.170,-0.046
14.175,-0.038
14.180,-0.028
14.185,-0.023
14.190,-0.027
14.195,-0.033
14.200,-0.029
14.205,-0.017
14.210,-0.008
14.215,-0.005
14.220,-0.003
14.225,0.003
14.230,0.010
14.235,0.009
14.240,0.005
14.245,0.004
14.250,0.004
14.255,0.012
14.260,0.016
14.265,0.011
14.270,0.019
14.275,0.041
14.280,0.049
14.285,0.036
14.290,0.035
14.295,0.044
14.300,0.037
14.305,0.028
14.310,0.033
14.315,0.043
14.320,0.052
14.325,0.057
14.330,0.052
14.335,0.051
14.340,0.057
14.345,0.062
14.350,0.070
14.355,0.083
14.360,0.095
14.365,0.092
14.370,0.085
14.375,0.097
14.380,0.111
14.385,0.117
14.390,0.123
14.395,0.125
14.400,0.122
14.405,0.121
14.410,0.121
14.415,0.112
14.420,0.089
14.425,0.073
14.430,0.066
14.435,0.061
14.440,0.052
14.445,0.030
14.450,0.011
14.455,0.007
14.460,0.009
14.465,0.004
14.470,-0.008
14.475,-0.015
14.480,-0.016
14.485,-0.022
14.490,-0.019
14.495,-0.001
14.500,0.004
14.505,-0.002
14.510,0.003
14.515,0.010
14.520,0.013
14.525,0.010
14.530,-0.015
14.535,-0.036
14.540,0.002
14.545,0.116
14.550,0.334
14.555,0.689
14.560,1.110
14.565,1.389
14.570,1.325
14.575,0.899
14.580,0.209
14.585,-0.443
14.590,-0.725
14.595,-0.712
14.600,-0.597
14.605,-0.446
14.610,-0.338
14.615,-0.282
14.620,-0.232
14.625,-0.189
14.630,-0.154
14.635,-0.136
14.640,-0.115
14.645,-0.076
14.650,-0.058
14.655,-0.059
14.660,-0.040
14.665,-0.024
14.670,-0.031
14.675,-0.027
14.680,-0.009
14.685,-0.016
14.690,-0.025
14.695,-0.015
14.700,-0.002
14.705,0.006
14.710,0.005
14.715,0.015
14.720,0.030
14.725,0.026
14.730,0.018
14.735,0.022
14.740,0.040
14.745,0.043
14.750,0.027
14.755,0.025
14.760,0.040
14.765,0.052
14.770,0.066
14.775,0.086
14.780,0.093
14.785,0.079
14.790,0.076
14.795,0.097
14.800,0.118
14.805,0.134
14.810,0.147
14.815,0.153
14.820,0.164
14.825,0.181
14.830,0.196
14.835,0.205
14.840,0.211
14.845,0.211
14.850,0.206
14.855,0.201
14.860,0.193
14.865,0.175
14.870,0.151
14.875,0.124
14.880,0.089
14.885,0.039
14.890,-0.016
14.895,-0.068
14.900,-0.117
14.905,-0.161
14.910,-0.202
14.915,-0.242
14.920,-0.275
14.925,-0.299
14.930,-0.313
14.935,-0.325
14.940,-0.330
14.945,-0.329
14.950,-0.325
14.955,-0.318
14.960,-0.307
14.965,-0.296
14.970,-0.287
14.975,-0.272
14.980,-0.253
14.985,-0.238
14.990,-0.225
14.995,-0.209
15.000,-0.194
15.005,-0.181
15.010,-0.164
15.015,-0.149
15.020,-0.137
15.025,-0.125
15.030,-0.116
15.035,-0.111
15.040,-0.102
15.045,-0.087
15.050,-0.076
15.055,-0.066
15.060,-0.056
15.065,-0.051
15.070,-0.048
15.075,-0.045
15.080,-0.040
15.085,-0.039
15.090,-0.037
15.095,-0.035
15.100,-0.035
15.105,-0.031
15.110,-0.024
15.115,-0.020
15.120,-0.018
15.125,-0.013
15.130,-0.006
15.135,-0.007
15.140,-0.007
15.145,-0.001
15.150,0.001
15.155,0.001
15.160,0.006
15.165,0.009
15.170,0.009
15.175,0.012
15.180,0.018
15.185,0.020
15.190,0.025
15.195,0.032
15.200,0.032
15.205,0.031
15.210,0.032
15.215,0.033
15.220,0.032
15.225,0.034
15.230,0.038
15.235,0.040
15.240,0.045
15.245,0.050
15.250,0.053
15.255,0.059
15.260,0.070
15.265,0.079
15.270,0.082
15.275,0.090
15.280,0.102
15.285,0.109
15.290,0.112
15.295,0.114
15.300,0.114
15.305,0.119
15.310,0.120
15.315,0.113
15.320,0.110
15.325,0.098
15.330,0.074
15.335,0.060
15.340,0.063
15.345,0.064
15.350,0.047
15.355,0.029
15.360,0.020
15.365,0.014
15.370,0.002
15.375,-0.011
15.380,-0.017
15.385,-0.017
15.390,-0.013
15.395,-0.007
15.400,-0.005
15.405,-0.004
15.410,0.000
15.415,0.005
15.420,0.007
15.425,0.011
15.430,0.011
15.435,-0.011
15.440,-0.031
15.445,0.008
15.450,0.143
15.455,0.392
15.460,0.741
15.465,1.129
15.470,1.405
15.475,1.356
15.480,0.924
15.485,0.240
15.490,-0.399
15.495,-0.701
15.500,-0.708
15.505,-0.603
15.510,-0.456
15.515,-0.344
15.520,-0.296
15.525,-0.249
15.530,-0.202
15.535,-0.175
15.540,-0.151
15.545,-0.120
15.550,-0.100
15.555,-0.090
15.560,-0.080
15.565,-0.071
15.570,-0.065
15.575,-0.057
15.580,-0.048
15.585,-0.043
15.590,-0.036
15.595,-0.029
15.600,-0.026
15.605,-0.024
15.610,-0.016
15.615,-0.011
15.620,-0.007
15.625,-0.001
15.630,0.005
15.635,0.008
15.640,0.013
15.645,0.021
15.650,0.026
15.655,0.029
15.660,0.039
15.665,0.046
15.670,0.051
15.675,0.059
15.680,0.069
15.685,0.075
15.690,0.085
15.695,0.098
15.700,0.108
15.705,0.119
15.710,0.134
15.715,0.150
15.720,0.162
15.725,0.177
15.730,0.193
15.735,0.204
15.740,0.214
15.745,0.224
15.750,0.227
15.755,0.226
15.760,0.223
15.765,0.213
15.770,0.197
15.775,0.176
15.780,0.146
15.785,0.105
15.790,0.056
15.795,0.006
15.800,-0.051
15.805,-0.107
15.810,-0.155
15.815,-0.200
15.820,-0.241
15.825,-0.270
15.830,-0.291
15.835,-0.310
15.840,-0.321
15.845,-0.322
15.850,-0.323
15.855,-0.320
15.860,-0.311
15.865,-0.301
15.870,-0.293
15.875,-0.278
15.880,-0.263
15.885,-0.253
15.890,-0.240
15.895,-0.223
15.900,-0.212
15.905,-0.201
15.910,-0.186
15.915,-0.175
15.920,-0.165
15.925,-0.151
15.930,-0.139
15.935,-0.132
15.940,-0.123
15.945,-0.112
15.950,-0.104
15.955,-0.097
15.960,-0.086
15.965,-0.079
15.970,-0.075
15.975,-0.066
15.980,-0.058
15.985,-0.055
15.990,-0.051
15.995,-0.042
16.000,-0.037
16.005,-0.034
16.010,-0.028
16.015,-0.023
16.020,-0.022
16.025,-0.017
16.030,-0.012
16.035,-0.011
16.040,-0.007
16.045,-0.001
16.050,0.000
16.055,0.001
16.060,0.007
16.065,0.010
16.070,0.011
16.075,0.016
16.080,0.021
16.085,0.022
16.090,0.024
16.095,0.030
16.100,0.030
16.105,0.032
16.110,0.037
16.115,0.039
16.120,0.038
16.125,0.042
16.130,0.047
16.135,0.045
16.140,0.047
16.145,0.052
16.150,0.052
16.155,0.052
16.160,0.055
16.165,0.057
16.170,0.057
16.175,0.062
16.180,0.071
16.185,0.077
16.190,0.083
16.195,0.091
16.200,0.097
16.205,0.107
16.210,0.119
16.215,0.120
16.220,0.116
16.225,0.120
16.230,0.128
16.235,0.120
16.240,0.110
16.245,0.112
16.250,0.100
16.255,0.077
16.260,0.067
16.265,0.068
16.270,0.065
16.275,0.052
16.280,0.036
16.285,0.020
16.290,0.012
16.295,0.006
16.300,-0.010
16.305,-0.021
16.310,-0.019
16.315,-0.014
16.320,-0.012
16.325,-0.008
16.330,-0.003
16.335,-0.002
16.340,0.002
16.345,0.008
16.350,0.009
16.355,0.006
16.360,-0.006
16.365,-0.026
16.370,-0.002
16.375,0.123
16.380,0.355
16.385,0.668
16.390,1.034
16.395,1.337
16.400,1.332
16.405,0.936
16.410,0.291
16.415,-0.349
16.420,-0.693
16.425,-0.713
16.430,-0.598
16.435,-0.451
16.440,-0.332
16.445,-0.274
16.450,-0.233
16.455,-0.192
16.460,-0.164
16.465,-0.139
16.470,-0.114
16.475,-0.095
16.480,-0.084
16.485,-0.078
16.490,-0.070
16.495,-0.059
16.500,-0.054
16.505,-0.049
16.510,-0.042
16.515,-0.036
16.520,-0.033
16.525,-0.027
16.530,-0.020
16.535,-0.017
16.540,-0.013
16.545,-0.006
16.550,-0.002
16.555,0.002
16.560,0.008
16.565,0.013
16.570,0.015
16.575,0.020
16.580,0.028
16.585,0.032
16.590,0.038
16.595,0.047
16.600,0.053
16.605,0.059
16.610,0.070
16.615,0.080
16.620,0.087
16.625,0.099
16.630,0.113
16.635,0.123
16.640,0.138
16.645,0.155
16.650,0.169
16.655,0.182
16.660,0.198
16.665,0.209
16.670,0.215
16.675,0.220
16.680,0.223
16.685,0.218
16.690,0.210
16.695,0.200
16.700,0.179
16.705,0.149
16.710,0.113
16.715,0.068
16.720,0.015
16.725,-0.040
16.730,-0.093
16.735,-0.147
16.740,-0.194
16.745,-0.232
16.750,-0.266
16.755,-0.293
16.760,-0.309
16.765,-0.321
16.770,-0.329
16.775,-0.329
16.780,-0.324
16.785,-0.320
16.790,-0.311
16.795,-0.297
16.800,-0.285
16.805,-0.275
16.810,-0.260
16.815,-0.247
16.820,-0.236
16.825,-0.222
16.830,-0.208
16.835,-0.198
16.840,-0.186
16.845,-0.172
16.850,-0.162
16.855,-0.153
16.860,-0.141
16.865,-0.132
16.870,-0.125
16.875,-0.115
16.880,-0.105
16.885,-0.099
16.890,-0.092
16.895,-0.082
16.900,-0.075
16.905,-0.070
16.910,-0.062
16.915,-0.055
16.920,-0.051
16.925,-0.045
16.930,-0.039
16.935,-0.036
16.940,-0.033
16.945,-0.026
16.950,-0.023
16.955,-0.020
16.960,-0.015
16.965,-0.011
16.970,-0.009
16.975,-0.004
16.980,0.001
16.985,0.002
16.990,0.005
16.995,0.013
17.000,0.016
17.005,0.017
17.010,0.022
17.015,0.025
17.020,0.025
17.025,0.029
17.030,0.033
17.035,0.034
17.040,0.036
17.045,0.041
17.050,0.043
17.055,0.044
17.060,0.048
17.065,0.051
17.070,0.050
17.075,0.053
17.080,0.057
17.085,0.057
17.090,0.058
17.095,0.063
17.100,0.068
17.105,0.074
17.110,0.084
17.115,0.092
17.120,0.094
17.125,0.102
17.130,0.118
17.135,0.122
17.140,0.119
17.145,0.121
17.150,0.126
17.155,0.126
17.160,0.119
17.165,0.114
17.170,0.107
17.175,0.088
17.180,0.073
17.185,0.068
17.190,0.071
17.195,0.065
17.200,0.044
17.205,0.026
17.210,0.019
17.215,0.013
17.220,-0.004
17.225,-0.016
17.230,-0.016
17.235,-0.014
17.240,-0.012
17.245,-0.006
17.250,0.000
17.255,0.005
17.260,0.013
17.265,0.018
17.270,0.015
17.275,0.015
17.280,0.009
17.285,-0.017
17.290,-0.030
17.295,0.027
17.300,0.182
17.305,0.442
17.310,0.787
17.315,1.156
17.320,1.359
17.325,1.188
17.330,0.666
17.335,-0.017
17.340,-0.543
17.345,-0.714
17.350,-0.651
17.355,-0.513
17.360,-0.370
17.365,-0.291
17.370,-0.257
17.375,-0.207
17.380,-0.160
17.385,-0.140
17.390,-0.121
17.395,-0.098
17.400,-0.081
17.405,-0.067
17.410,-0.053
17.415,-0.045
17.420,-0.042
17.425,-0.035
17.430,-0.027
17.435,-0.023
17.440,-0.017
17.445,-0.015
17.450,-0.019
17.455,-0.020
17.460,-0.008
17.465,0.001
17.470,0.001
17.475,0.008
17.480,0.017
17.485,0.018
17.490,0.025
17.495,0.030
17.500,0.030
17.505,0.033
17.510,0.043
17.515,0.051
17.520,0.052
17.525,0.056
17.530,0.065
17.535,0.069
17.540,0.080
17.545,0.101
17.550,0.109
17.555,0.117
17.560,0.136
17.565,0.149
17.570,0.155
17.575,0.172
17.580,0.188
17.585,0.193
17.590,0.202
17.595,0.216
17.600,0.217
17.605,0.208
17.610,0.201
17.615,0.193
17.620,0.177
17.625,0.154
17.630,0.125
17.635,0.080
17.640,0.030
17.645,-0.014
17.650,-0.066
17.655,-0.125
17.660,-0.171
17.665,-0.213
17.670,-0.255
17.675,-0.279
17.680,-0.294
17.685,-0.310
17.690,-0.317
17.695,-0.317
17.700,-0.319
17.705,-0.317
17.710,-0.304
17.715,-0.290
17.720,-0.286
17.725,-0.278
17.730,-0.264
17.735,-0.253
17.740,-0.233
17.745,-0.210
17.750,-0.205
17.755,-0.202
17.760,-0.187
17.765,-0.165
17.770,-0.154
17.775,-0.149
17.780,-0.142
17.785,-0.137
17.790,-0.129
17.795,-0.116
17.800,-0.108
17.805,-0.099
17.810,-0.085
17.815,-0.079
17.820,-0.079
17.825,-0.076
17.830,-0.062
17.835,-0.054
17.840,-0.054
17.845,-0.048
17.850,-0.041
17.855,-0.037
17.860,-0.027
17.865,-0.025
17.870,-0.026
17.875,-0.023
17.880,-0.024
17.885,-0.026
17.890,-0.019
17.895,-0.005
17.900,0.002
17.905,0.002
17.910,0.011
17.915,0.019
17.920,0.013
17.925,0.012
17.930,0.024
17.935,0.028
17.940,0.024
17.945,0.029
17.950,0.037
17.955,0.034
17.960,0.030
17.965,0.033
17.970,0.039
17.975,0.045
17.980,0.042
17.985,0.038
17.990,0.043
17.995,0.055
18.000,0.065
18.005,0.073
18.010,0.079
18.015,0.080
18.020,0.080
18.025,0.086
18.030,0.101
18.035,0.111
18.040,0.113
18.045,0.117
18.050,0.123
18.055,0.129
18.060,0.130
18.065,0.132
18.070,0.122
18.075,0.089
18.080,0.064
18.085,0.058
18.090,0.051
18.095,0.036
18.100,0.023
18.105,0.027
18.110,0.032
18.115,0.011
18.120,-0.017
18.125,-0.023
18.130,-0.019
18.135,-0.012
18.140,0.000
18.145,0.004
18.150,-0.002
18.155,-0.003
18.160,0.003
18.165,0.004
18.170,0.006
18.175,0.012
18.180,0.014
18.185,-0.002
18.190,-0.024
18.195,-0.013
18.200,0.074
18.205,0.272
18.210,0.598
18.215,1.004
18.220,1.318
18.225,1.333
18.230,0.978
18.235,0.314
18.240,-0.361
18.245,-0.684
18.250,-0.703
18.255,-0.611
18.260,-0.469
18.265,-0.349
18.270,-0.275
18.275,-0.223
18.280,-0.191
18.285,-0.155
18.290,-0.119
18.295,-0.098
18.300,-0.074
18.305,-0.061
18.310,-0.050
18.315,-0.028
18.320,-0.018
18.325,-0.013
18.330,-0.006
18.335,-0.005
18.340,0.000
18.345,0.002
18.350,-0.004
18.355,-0.005
18.360,0.003
18.365,0.013
18.370,0.021
18.375,0.022
18.380,0.024
18.385,0.036
18.390,0.039
18.395,0.036
18.400,0.035
18.405,0.033
18.410,0.045
18.415,0.062
18.420,0.064
18.425,0.069
18.430,0.077
18.435,0.082
18.440,0.094
18.445,0.106
18.450,0.110
18.455,0.118
18.460,0.121
18.465,0.132
18.470,0.154
18.475,0.164
18.480,0.180
18.485,0.200
18.490,0.202
18.495,0.200
18.500,0.195
18.505,0.196
18.510,0.206
18.515,0.191
18.520,0.159
18.525,0.135
18.530,0.106
18.535,0.073
18.540,0.038
18.545,-0.006
18.550,-0.056
18.555,-0.108
18.560,-0.151
18.565,-0.192
18.570,-0.236
18.575,-0.265
18.580,-0.289
18.585,-0.314
18.590,-0.315
18.595,-0.309
18.600,-0.313
18.605,-0.315
18.610,-0.313
18.615,-0.299
18.620,-0.283
18.625,-0.274
18.630,-0.262
18.635,-0.250
18.640,-0.234
18.645,-0.210
18.650,-0.197
18.655,-0.185
18.660,-0.166
18.665,-0.157
18.670,-0.155
18.675,-0.141
18.680,-0.129
18.685,-0.124
18.690,-0.109
18.695,-0.091
18.700,-0.085
18.705,-0.080
18.710,-0.063
18.715,-0.057
18.720,-0.067
18.725,-0.072
18.730,-0.064
18.735,-0.049
18.740,-0.043
18.745,-0.043
18.750,-0.037
18.755,-0.031
18.760,-0.024
18.765,-0.019
18.770,-0.031
18.775,-0.036
18.780,-0.024
18.785,-0.015
18.790,-0.014
18.795,-0.015
18.800,-0.011
18.805,-0.005
18.810,0.003
18.815,0.012
18.820,0.008
18.825,0.010
18.830,0.021
18.835,0.016
18.840,0.011
18.845,0.023
18.850,0.029
18.855,0.022
18.860,0.024
18.865,0.034
18.870,0.035
18.875,0.034
18.880,0.044
18.885,0.056
18.890,0.060
18.895,0.067
18.900,0.070
18.905,0.074
18.910,0.097
18.915,0.114
18.920,0.108
18.925,0.100
18.930,0.104
18.935,0.112
18.940,0.116
18.945,0.117
18.950,0.118
18.955,0.101
18.960,0.076
18.965,0.065
18.970,0.059
18.975,0.052
18.980,0.046
18.985,0.038
18.990,0.022
18.995,0.009
19.000,0.007
19.005,0.001
19.010,-0.003
19.015,-0.006
19.020,-0.013
19.025,-0.011
19.030,-0.005
19.035,-0.005
19.040,-0.002
19.045,0.007
19.050,0.019
19.055,0.022
19.060,0.018
19.065,0.019
19.070,-0.003
19.075,-0.028
19.080,0.027
19.085,0.188
19.090,0.476
19.095,0.879
19.100,1.265
19.105,1.422
19.110,1.207
19.115,0.629
19.120,-0.102
19.125,-0.601
19.130,-0.735
19.135,-0.677
19.140,-0.545
19.145,-0.397
19.150,-0.305
19.155,-0.254
19.160,-0.207
19.165,-0.172
19.170,-0.144
19.175,-0.113
19.180,-0.079
19.185,-0.057
19.190,-0.050
19.195,-0.045
19.200,-0.039
19.205,-0.031
19.210,-0.020
19.215,-0.012
19.220,-0.008
19.225,-0.002
19.230,0.003
19.235,0.007
19.240,0.011
19.245,0.014
19.250,0.017
19.255,0.020
19.260,0.021
19.265,0.025
19.270,0.030
19.275,0.037
19.280,0.040
19.285,0.042
19.290,0.047
19.295,0.053
19.300,0.058
19.305,0.068
19.310,0.078
19.315,0.084
19.320,0.088
19.325,0.097
19.330,0.107
19.335,0.120
19.340,0.136
19.345,0.153
19.350,0.168
19.355,0.176
19.360,0.184
19.365,0.199
19.370,0.213
19.375,0.220
19.380,0.222
19.385,0.220
19.390,0.214
19.395,0.206
19.400,0.192
19.405,0.167
19.410,0.137
19.415,0.100
19.420,0.053
19.425,0.004
19.430,-0.048
19.435,-0.104
19.440,-0.156
19.445,-0.199
19.450,-0.237
19.455,-0.273
19.460,-0.301
19.465,-0.319
19.470,-0.333
19.475,-0.339
19.480,-0.338
19.485,-0.337
19.490,-0.331
19.495,-0.320
19.500,-0.309
19.505,-0.298
19.510,-0.284
19.515,-0.271
19.520,-0.257
19.525,-0.242
19.530,-0.225
19.535,-0.210
19.540,-0.195
19.545,-0.181
19.550,-0.167
19.555,-0.152
19.560,-0.136
19.565,-0.124
19.570,-0.112
19.575,-0.099
19.580,-0.090
19.585,-0.084
19.590,-0.076
19.595,-0.070
19.600,-0.064
19.605,-0.057
19.610,-0.049
19.615,-0.044
19.620,-0.041
19.625,-0.037
19.630,-0.031
19.635,-0.029
19.640,-0.030
19.645,-0.030
19.650,-0.027
19.655,-0.024
19.660,-0.019
19.665,-0.016
19.670,-0.014
19.675,-0.009
19.680,-0.004
19.685,-0.003
19.690,0.000
19.695,0.005
19.700,0.008
19.705,0.011
19.710,0.015
19.715,0.016
19.720,0.019
19.725,0.024
19.730,0.025
19.735,0.026
19.740,0.031
19.745,0.036
19.750,0.036
19.755,0.042
19.760,0.054
19.765,0.065
19.770,0.074
19.775,0.080
19.780,0.089
19.785,0.103
19.790,0.110
19.795,0.110
19.800,0.110
19.805,0.113
19.810,0.119
19.815,0.114
19.820,0.109
19.825,0.109
19.830,0.091
19.835,0.066
19.840,0.060
19.845,0.065
19.850,0.059
19.855,0.043
19.860,0.030
19.865,0.021
19.870,0.011
19.875,-0.001
19.880,-0.014
19.885,-0.018
19.890,-0.013
19.895,-0.007
19.900,-0.003
19.905,0.000
19.910,0.004
19.915,0.008
19.920,0.011
19.925,0.016
19.930,0.020
19.935,0.015
19.940,-0.006
19.945,-0.018
19.950,0.040
19.955,0.206
19.960,0.481
19.965,0.831
19.970,1.203
19.975,1.426
19.980,1.279
19.985,0.767
19.990,0.071
19.995,-0.506
20.000,-0.727
20.005,-0.686
20.010,-0.555
20.015,-0.404
20.020,-0.304
20.025,-0.258
20.030,-0.211
20.035,-0.173
20.040,-0.151
20.045,-0.124
20.050,-0.099
20.055,-0.083
20.060,-0.071
20.065,-0.062
20.070,-0.055
20.075,-0.047
20.080,-0.040
20.085,-0.035
20.090,-0.029
20.095,-0.022
20.100,-0.016
20.105,-0.012
20.110,-0.007
20.115,-0.003
20.120,0.001
20.125,0.005
20.130,0.010
20.135,0.014
20.140,0.020
20.145,0.025
20.150,0.030
20.155,0.033
20.160,0.040
20.165,0.047
20.170,0.053
20.175,0.059
20.180,0.068
20.185,0.076
20.190,0.085
20.195,0.096
20.200,0.106
20.205,0.118
20.210,0.132
20.215,0.147
20.220,0.162
20.225,0.176
20.230,0.192
20.235,0.206
20.240,0.217
20.245,0.228
20.250,0.235
20.255,0.237
20.260,0.235
20.265,0.229
20.270,0.217
20.275,0.198
20.280,0.172
20.285,0.136
20.290,0.089
20.295,0.037
20.300,-0.020
20.305,-0.079
20.310,-0.134
20.315,-0.182
20.320,-0.226
20.325,-0.261
20.330,-0.288
20.335,-0.309
20.340,-0.324
20.345,-0.331
20.350,-0.332
20.355,-0.331
20.360,-0.324
20.365,-0.315
20.370,-0.305
20.375,-0.292
20.380,-0.277
20.385,-0.264
20.390,-0.251
20.395,-0.236
20.400,-0.224
20.405,-0.213
20.410,-0.200
20.415,-0.186
20.420,-0.175
20.425,-0.163
20.430,-0.151
20.435,-0.141
20.440,-0.132
20.445,-0.122
20.450,-0.113
20.455,-0.106
20.460,-0.097
20.465,-0.089
20.470,-0.083
20.475,-0.076
20.480,-0.068
20.485,-0.063
20.490,-0.059
20.495,-0.052
20.500,-0.047
20.505,-0.043
20.510,-0.037
20.515,-0.032
20.520,-0.029
20.525,-0.025
20.530,-0.020
20.535,-0.016
20.540,-0.012
20.545,-0.007
20.550,-0.004
20.555,-0.002
20.560,0.001
20.565,0.006
20.570,0.009
20.575,0.012
20.580,0.017
20.585,0.020
20.590,0.022
20.595,0.027
20.600,0.030
20.605,0.030
20.610,0.033
20.615,0.036
20.620,0.038
20.625,0.040
20.630,0.044
20.635,0.047
20.640,0.049
20.645,0.058
20.650,0.068
20.655,0.076
20.660,0.082
20.665,0.089
20.670,0.101
20.675,0.114
20.680,0.118
20.685,0.115
20.690,0.116
20.695,0.123
20.700,0.122
20.705,0.112
20.710,0.110
20.715,0.105
20.720,0.083
20.725,0.068
20.730,0.070
20.735,0.071
20.740,0.060
20.745,0.045
20.750,0.031
20.755,0.019
20.760,0.010
20.765,-0.003
20.770,-0.015
20.775,-0.015
20.780,-0.009
20.785,-0.004
20.790,-0.002
20.795,0.002
20.800,0.004
20.805,0.007
20.810,0.012
20.815,0.016
20.820,0.017
20.825,0.008
20.830,-0.014
20.835,-0.014
20.840,0.068
20.845,0.259
20.850,0.549
20.855,0.902
20.860,1.246
20.865,1.368
20.870,1.093
20.875,0.504
20.880,-0.173
20.885,-0.623
20.890,-0.723
20.895,-0.629
20.900,-0.478
20.905,-0.339
20.910,-0.267
20.915,-0.224
20.920,-0.179
20.925,-0.151
20.930,-0.128
20.935,-0.100
20.940,-0.081
20.945,-0.070
20.950,-0.061
20.955,-0.054
20.960,-0.046
20.965,-0.038
20.970,-0.033
20.975,-0.028
20.980,-0.023
20.985,-0.018
20.990,-0.013
20.995,-0.007
21.000,-0.003
21.005,0.000
21.010,0.004
21.015,0.008
21.020,0.011
21.025,0.016
21.030,0.021
21.035,0.026
21.040,0.030
21.045,0.037
21.050,0.042
21.055,0.047
21.060,0.053
21.065,0.060
21.070,0.067
21.075,0.075
21.080,0.085
21.085,0.094
21.090,0.105
21.095,0.117
21.100,0.130
21.105,0.143
21.110,0.158
21.115,0.172
21.120,0.185
21.125,0.197
21.130,0.209
21.135,0.217
21.140,0.221
21.145,0.223
21.150,0.220
21.155,0.211
21.160,0.198
21.165,0.179
21.170,0.151
21.175,0.114
21.180,0.070
21.185,0.017
21.190,-0.039
21.195,-0.093
21.200,-0.144
21.205,-0.190
21.210,-0.229
21.215,-0.263
21.220,-0.289
21.225,-0.306
21.230,-0.316
21.235,-0.323
21.240,-0.324
21.245,-0.320
21.250,-0.313
21.255,-0.303
21.260,-0.292
21.265,-0.279
21.270,-0.265
21.275,-0.257
21.280,-0.245
21.285,-0.229
21.290,-0.217
21.295,-0.207
21.300,-0.194
21.305,-0.183
21.310,-0.171
21.315,-0.157
21.320,-0.149
21.325,-0.143
21.330,-0.131
21.335,-0.118
21.340,-0.110
21.345,-0.101
21.350,-0.093
21.355,-0.088
21.360,-0.080
21.365,-0.073
21.370,-0.072
21.375,-0.066
21.380,-0.055
21.385,-0.049
21.390,-0.046
21.395,-0.042
21.400,-0.039
21.405,-0.036
21.410,-0.029
21.415,-0.020
21.420,-0.014
21.425,-0.015
21.430,-0.014
21.435,-0.005
21.440,-0.001
21.445,0.004
21.450,0.007
21.455,0.010
21.460,0.018
21.465,0.019
21.470,0.009
21.475,0.010
21.480,0.024
21.485,0.032
21.490,0.034
21.495,0.037
21.500,0.036
21.505,0.035
21.510,0.043
21.515,0.051
21.520,0.055
21.525,0.064
21.530,0.079
21.535,0.086
21.540,0.089
21.545,0.101
21.550,0.113
21.555,0.119
21.560,0.117
21.565,0.119
21.570,0.124
21.575,0.125
21.580,0.121
21.585,0.118
21.590,0.112
21.595,0.090
21.600,0.065
21.605,0.063
21.610,0.072
21.615,0.061
21.620,0.037
21.625,0.021
21.630,0.017
21.635,0.011
21.640,-0.006
21.645,-0.017
21.650,-0.012
21.655,-0.007
21.660,-0.003
21.665,-0.006
21.670,-0.006
21.675,0.002
21.680,0.007
21.685,0.009
21.690,0.016
21.695,0.019
21.700,0.008
21.705,-0.011
21.710,-0.018
21.715,0.030
21.720,0.160
21.725,0.399
21.730,0.747
21.735,1.132
21.740,1.362
21.745,1.235
21.750,0.727
21.755,0.008
21.760,-0.557
21.765,-0.743
21.770,-0.684
21.775,-0.546
21.780,-0.393
21.785,-0.298
21.790,-0.253
21.795,-0.202
21.800,-0.161
21.805,-0.134
21.810,-0.106
21.815,-0.078
21.820,-0.057
21.825,-0.045
21.830,-0.042
21.835,-0.034
21.840,-0.018
21.845,-0.013
21.850,-0.015
21.855,-0.005
21.860,0.002
21.865,0.003
21.870,0.006
21.875,0.005
21.880,0.007
21.885,0.015
21.890,0.021
21.895,0.022
21.900,0.022
21.905,0.029
21.910,0.034
21.915,0.029
21.920,0.029
21.925,0.041
21.930,0.058
21.935,0.063
21.940,0.062
21.945,0.065
21.950,0.072
21.955,0.078
21.960,0.086
21.965,0.104
21.970,0.122
21.975,0.132
21.980,0.132
21.985,0.138
21.990,0.154
21.995,0.176
22.000,0.198
22.005,0.208
22.010,0.207
22.015,0.205
22.020,0.204
22.025,0.201
22.030,0.193
22.035,0.181
22.040,0.170
22.045,0.146
22.050,0.109
22.055,0.070
22.060,0.011
22.065,-0.053
22.070,-0.105
22.075,-0.155
22.080,-0.192
22.085,-0.223
22.090,-0.258
22.095,-0.285
22.100,-0.302
22.105,-0.315
22.110,-0.323
22.115,-0.322
22.120,-0.325
22.125,-0.333
22.130,-0.318
22.135,-0.293
22.140,-0.277
22.145,-0.258
22.150,-0.240
22.155,-0.238
22.160,-0.239
22.165,-0.226
22.170,-0.209
22.175,-0.197
22.180,-0.180
22.185,-0.158
22.190,-0.139
22.195,-0.135
22.200,-0.133
22.205,-0.116
22.210,-0.102
22.215,-0.092
22.220,-0.082
22.225,-0.083
22.230,-0.078
22.235,-0.067
22.240,-0.068
22.245,-0.065
22.250,-0.055
22.255,-0.047
22.260,-0.038
22.265,-0.036
22.270,-0.042
22.275,-0.044
22.280,-0.038
22.285,-0.027
22.290,-0.023
22.295,-0.020
22.300,-0.016
22.305,-0.022
22.310,-0.023
22.315,-0.010
22.320,-0.007
22.325,-0.006
22.330,0.008
22.335,0.013
22.340,0.009
22.345,0.006
22.350,0.001
22.355,0.003
22.360,0.021
22.365,0.036
22.370,0.032
22.375,0.032
22.380,0.043
22.385,0.056
22.390,0.069
22.395,0.074
22.400,0.078
22.405,0.087
22.410,0.091
22.415,0.094
22.420,0.106
22.425,0.123
22.430,0.128
22.435,0.111
22.440,0.099
22.445,0.093
22.450,0.070
22.455,0.047
22.460,0.059
22.465,0.076
22.470,0.053
22.475,0.025
22.480,0.016
22.485,0.011
22.490,0.003
22.495,-0.009
22.500,-0.015
22.505,-0.012
22.510,-0.014
22.515,-0.011
22.520,0.003
22.525,0.015
22.530,0.010
22.535,-0.002
22.540,0.012
22.545,0.033
22.550,0.022
22.555,-0.001
22.560,-0.022
22.565,-0.024
22.570,0.025
22.575,0.154
22.580,0.397
22.585,0.758
22.590,1.164
22.595,1.404
22.600,1.275
22.605,0.761
22.610,0.030
22.615,-0.525
22.620,-0.700
22.625,-0.673
22.630,-0.570
22.635,-0.421
22.640,-0.310
22.645,-0.256
22.650,-0.213
22.655,-0.170
22.660,-0.133
22.665,-0.095
22.670,-0.071
22.675,-0.055
22.680,-0.033
22.685,-0.026
22.690,-0.030
22.695,-0.013
22.700,0.007
22.705,0.001
22.710,-0.003
22.715,0.009
22.720,0.010
22.725,0.005
22.730,0.019
22.735,0.024
22.740,0.015
22.745,0.017
22.750,0.036
22.755,0.041
22.760,0.034
22.765,0.041
22.770,0.049
22.775,0.054
22.780,0.059
22.785,0.063
22.790,0.072
22.795,0.075
22.800,0.071
22.805,0.078
22.810,0.087
22.815,0.098
22.820,0.106
22.825,0.113
22.830,0.138
22.835,0.165
22.840,0.178
22.845,0.179
22.850,0.190
22.855,0.212
22.860,0.211
22.865,0.203
22.870,0.209
22.875,0.212
22.880,0.213
22.885,0.209
22.890,0.187
22.895,0.160
22.900,0.140
22.905,0.110
22.910,0.062
22.915,-0.001
22.920,-0.068
22.925,-0.124
22.930,-0.167
22.935,-0.214
22.940,-0.252
22.945,-0.275
22.950,-0.295
22.955,-0.313
22.960,-0.325
22.965,-0.330
22.970,-0.330
22.975,-0.329
22.980,-0.324
22.985,-0.317
22.990,-0.305
22.995,-0.288
23.000,-0.271
23.005,-0.258
23.010,-0.243
23.015,-0.228
23.020,-0.218
23.025,-0.201
23.030,-0.177
23.035,-0.160
23.040,-0.147
23.045,-0.133
23.050,-0.126
23.055,-0.121
23.060,-0.108
23.065,-0.093
23.070,-0.083
23.075,-0.074
23.080,-0.062
23.085,-0.058
23.090,-0.056
23.095,-0.047
23.100,-0.039
23.105,-0.038
23.110,-0.036
23.115,-0.032
23.120,-0.032
23.125,-0.033
23.130,-0.028
23.135,-0.024
23.140,-0.021
23.145,-0.017
23.150,-0.016
23.155,-0.015
23.160,-0.010
23.165,-0.005
23.170,-0.006
23.175,-0.006
23.180,0.000
23.185,0.003
23.190,0.007
23.195,0.013
23.200,0.015
23.205,0.014
23.210,0.017
23.215,0.021
23.220,0.025
23.225,0.029
23.230,0.039
23.235,0.049
23.240,0.057
23.245,0.066
23.250,0.071
23.255,0.079
23.260,0.094
23.265,0.101
23.270,0.101
23.275,0.102
23.280,0.109
23.285,0.114
23.290,0.110
23.295,0.113
23.300,0.110
23.305,0.083
23.310,0.060
23.315,0.060
23.320,0.062
23.325,0.052
23.330,0.036
23.335,0.024
23.340,0.017
23.345,0.012
23.350,0.001
23.355,-0.011
23.360,-0.013
23.365,-0.010
23.370,-0.009
23.375,-0.004
23.380,0.004
23.385,0.006
23.390,0.009
23.395,0.014
23.400,0.018
23.405,0.018
23.410,0.010
23.415,-0.016
23.420,-0.026
23.425,0.045
23.430,0.231
23.435,0.532
23.440,0.908
23.445,1.279
23.450,1.443
23.455,1.218
23.460,0.648
23.465,-0.061
23.470,-0.574
23.475,-0.724
23.480,-0.663
23.485,-0.532
23.490,-0.390
23.495,-0.304
23.500,-0.260
23.505,-0.213
23.510,-0.174
23.515,-0.149
23.520,-0.123
23.525,-0.095
23.530,-0.076
23.535,-0.066
23.540,-0.059
23.545,-0.050
23.550,-0.043
23.555,-0.038
23.560,-0.031
23.565,-0.025
23.570,-0.022
23.575,-0.016
23.580,-0.009
23.585,-0.007
23.590,-0.003
23.595,0.005
23.600,0.008
23.605,0.011
23.610,0.017
23.615,0.022
23.620,0.025
23.625,0.031
23.630,0.038
23.635,0.041
23.640,0.046
23.645,0.054
23.650,0.062
23.655,0.069
23.660,0.079
23.665,0.090
23.670,0.098
23.675,0.109
23.680,0.124
23.685,0.138
23.690,0.152
23.695,0.168
23.700,0.181
23.705,0.194
23.710,0.208
23.715,0.220
23.720,0.228
23.725,0.232
23.730,0.234
23.735,0.230
23.740,0.221
23.745,0.208
23.750,0.186
23.755,0.155
23.760,0.115
23.765,0.065
23.770,0.008
23.775,-0.050
23.780,-0.105
23.785,-0.158
23.790,-0.204
23.795,-0.242
23.800,-0.274
23.805,-0.299
23.810,-0.315
23.815,-0.324
23.820,-0.330
23.825,-0.330
23.830,-0.324
23.835,-0.316
23.840,-0.307
23.845,-0.295
23.850,-0.283
23.855,-0.273
23.860,-0.257
23.865,-0.242
23.870,-0.231
23.875,-0.218
23.880,-0.203
23.885,-0.192
23.890,-0.181
23.895,-0.166
23.900,-0.154
23.905,-0.145
23.910,-0.132
23.915,-0.121
23.920,-0.114
23.925,-0.105
23.930,-0.094
23.935,-0.087
23.940,-0.081
23.945,-0.073
23.950,-0.066
23.955,-0.061
23.960,-0.056
23.965,-0.050
23.970,-0.047
23.975,-0.043
23.980,-0.038
23.985,-0.034
23.990,-0.030
23.995,-0.024
24.000,-0.020
24.005,-0.018
24.010,-0.013
24.015,-0.008
24.020,-0.005
24.025,-0.002
24.030,0.002
24.035,0.004
24.040,0.007
24.045,0.012
24.050,0.016
24.055,0.019
24.060,0.023
24.065,0.028
24.070,0.029
24.075,0.030
24.080,0.034
24.085,0.035
24.090,0.036
24.095,0.040
24.100,0.043
24.105,0.047
24.110,0.056
24.115,0.068
24.120,0.075
24.125,0.081
24.130,0.087
24.135,0.097
24.140,0.110
24.145,0.115
24.150,0.113
24.155,0.114
24.160,0.121
24.165,0.121
24.170,0.109
24.175,0.108
24.180,0.106
24.185,0.083
24.190,0.066
24.195,0.068
24.200,0.072
24.205,0.060
24.210,0.043
24.215,0.030
24.220,0.020
24.225,0.012
24.230,-0.001
24.235,-0.015
24.240,-0.017
24.245,-0.010
24.250,-0.004
24.255,-0.002
24.260,0.001
24.265,0.004
24.270,0.005
24.275,0.009
24.280,0.014
24.285,0.015
24.290,0.006
24.295,-0.017
24.300,-0.016
24.305,0.067
24.310,0.257
24.315,0.546
24.320,0.900
24.325,1.251
24.330,1.388
24.335,1.129
24.340,0.553
24.345,-0.130
24.350,-0.606
24.355,-0.724
24.360,-0.637
24.365,-0.487
24.370,-0.348
24.375,-0.272
24.380,-0.229
24.385,-0.183
24.390,-0.154
24.395,-0.130
24.400,-0.102
24.405,-0.084
24.410,-0.073
24.415,-0.064
24.420,-0.057
24.425,-0.050
24.430,-0.042
24.435,-0.036
24.440,-0.031
24.445,-0.024
24.450,-0.019
24.455,-0.015
24.460,-0.010
24.465,-0.004
24.470,0.000
24.475,0.005
24.480,0.010
24.485,0.013
24.490,0.017
24.495,0.023
24.500,0.027
24.505,0.031
24.510,0.036
24.515,0.042
24.520,0.047
24.525,0.054
24.530,0.062
24.535,0.069
24.540,0.076
24.545,0.085
24.550,0.096
24.555,0.107
24.560,0.120
24.565,0.135
24.570,0.149
24.575,0.164
24.580,0.181
24.585,0.195
24.590,0.207
24.595,0.220
24.600,0.229
24.605,0.232
24.610,0.234
24.615,0.232
24.620,0.224
24.625,0.210
24.630,0.191
24.635,0.160
24.640,0.120
24.645,0.072
24.650,0.017
24.655,-0.042
24.660,-0.098
24.665,-0.151
24.670,-0.201
24.675,-0.242
24.680,-0.273
24.685,-0.299
24.690,-0.318
24.695,-0.328
24.700,-0.333
24.705,-0.334
24.710,-0.329
24.715,-0.321
24.720,-0.313
24.725,-0.302
24.730,-0.286
24.735,-0.274
24.740,-0.263
24.745,-0.249
24.750,-0.237
24.755,-0.225
24.760,-0.212
24.765,-0.200
24.770,-0.190
24.775,-0.178
24.780,-0.166
24.785,-0.156
24.790,-0.147
24.795,-0.136
24.800,-0.127
24.805,-0.118
24.810,-0.110
24.815,-0.101
24.820,-0.093
24.825,-0.086
24.830,-0.078
24.835,-0.070
24.840,-0.065
24.845,-0.058
24.850,-0.052
24.855,-0.047
24.860,-0.042
24.865,-0.036
24.870,-0.032
24.875,-0.028
24.880,-0.022
24.885,-0.019
24.890,-0.016
24.895,-0.011
24.900,-0.007
24.905,-0.004
24.910,0.000
24.915,0.005
24.920,0.009
24.925,0.013
24.930,0.018
24.935,0.021
24.940,0.023
24.945,0.028
24.950,0.033
24.955,0.037
24.960,0.040
24.965,0.043
24.970,0.044
24.975,0.042
24.980,0.045
24.985,0.056
24.990,0.064
24.995,0.068
25.000,0.077
25.005,0.091
25.010,0.107
25.015,0.114
25.020,0.112
25.025,0.108
25.030,0.114
25.035,0.127
25.040,0.123
25.045,0.113
25.050,0.111
25.055,0.097
25.060,0.075
25.065,0.062
25.070,0.063
25.075,0.065
25.080,0.055
25.085,0.039
25.090,0.026
25.095,0.019
25.100,0.007
25.105,-0.007
25.110,-0.012
25.115,-0.011
25.120,-0.005
25.125,0.002
25.130,0.003
25.135,0.005
25.140,0.011
25.145,0.018
25.150,0.025
25.155,0.023
25.160,0.015
25.165,-0.001
25.170,-0.018
25.175,0.026
25.180,0.167
25.185,0.412
25.190,0.753
25.195,1.142
25.200,1.395
25.205,1.277
25.210,0.784
25.215,0.090
25.220,-0.498
25.225,-0.721
25.230,-0.671
25.235,-0.544
25.240,-0.404
25.245,-0.303
25.250,-0.250
25.255,-0.203
25.260,-0.163
25.265,-0.136
25.270,-0.108
25.275,-0.082
25.280,-0.070
25.285,-0.059
25.290,-0.038
25.295,-0.027
25.300,-0.032
25.305,-0.029
25.310,-0.015
25.315,-0.009
25.320,-0.011
25.325,-0.014
25.330,-0.010
25.335,-0.004
25.340,0.000
25.345,0.009
25.350,0.019
25.355,0.020
25.360,0.020
25.365,0.025
25.370,0.031
25.375,0.035
25.380,0.041
25.385,0.045
25.390,0.046
25.395,0.053
25.400,0.066
25.405,0.066
25.410,0.062
25.415,0.074
25.420,0.093
25.425,0.107
25.430,0.121
25.435,0.138
25.440,0.149
25.445,0.164
25.450,0.182
25.455,0.189
25.460,0.190
25.465,0.202
25.470,0.215
25.475,0.225
25.480,0.227
25.485,0.215
25.490,0.204
25.495,0.198
25.500,0.181
25.505,0.150
25.510,0.114
25.515,0.071
25.520,0.020
25.525,-0.039
25.530,-0.099
25.535,-0.154
25.540,-0.203
25.545,-0.241
25.550,-0.268
25.555,-0.294
25.560,-0.317
25.565,-0.335
25.570,-0.342
25.575,-0.330
25.580,-0.314
25.585,-0.307
25.590,-0.305
25.595,-0.295
25.600,-0.280
25.605,-0.277
25.610,-0.271
25.615,-0.253
25.620,-0.229
25.625,-0.209
25.630,-0.204
25.635,-0.198
25.640,-0.188
25.645,-0.183
25.650,-0.169
25.655,-0.144
25.660,-0.123
25.665,-0.113
25.670,-0.114
25.675,-0.113
25.680,-0.108
25.685,-0.099
25.690,-0.082
25.695,-0.068
25.700,-0.062
25.705,-0.061
25.710,-0.061
25.715,-0.059
25.720,-0.056
25.725,-0.048
25.730,-0.042
25.735,-0.031
25.740,-0.018
25.745,-0.017
25.750,-0.024
25.755,-0.023
25.760,-0.011
25.765,-0.006
25.770,-0.008
25.775,-0.008
25.780,-0.009
25.785,0.004
25.790,0.024
25.795,0.017
25.800,0.005
25.805,0.012
25.810,0.014
25.815,0.016
25.820,0.025
25.825,0.035
25.830,0.044
25.835,0.044
25.840,0.048
25.845,0.063
25.850,0.070
25.855,0.068
25.860,0.079
25.865,0.103
25.870,0.114
25.875,0.104
25.880,0.101
25.885,0.113
25.890,0.118
25.895,0.109
25.900,0.101
25.905,0.088
25.910,0.075
25.915,0.073
25.920,0.071
25.925,0.061
25.930,0.048
25.935,0.030
25.940,0.018
25.945,0.012
25.950,-0.002
25.955,-0.019
25.960,-0.023
25.965,-0.006
25.970,0.006
25.975,0.005
25.980,0.008
25.985,0.003
25.990,0.001
25.995,0.015
26.000,0.019
26.005,0.015
26.010,0.021
26.015,0.028
26.020,0.013
26.025,-0.014
26.030,0.013
26.035,0.148
26.040,0.418
26.045,0.808
26.050,1.209
26.055,1.406
26.060,1.230
26.065,0.682
26.070,-0.044
26.075,-0.571
26.080,-0.730
26.085,-0.674
26.090,-0.537
26.095,-0.389
26.100,-0.299
26.105,-0.247
26.110,-0.199
26.115,-0.155
26.120,-0.119
26.125,-0.090
26.130,-0.063
26.135,-0.049
26.140,-0.042
26.145,-0.030
26.150,-0.019
26.155,-0.010
26.160,-0.004
26.165,0.004
26.170,0.007
26.175,0.005
26.180,0.016
26.185,0.027
26.190,0.027
26.195,0.024
26.200,0.018
26.205,0.016
26.210,0.017
26.215,0.027
26.220,0.037
26.225,0.040
26.230,0.055
26.235,0.068
26.240,0.065
26.245,0.061
26.250,0.061
26.255,0.066
26.260,0.078
26.265,0.092
26.270,0.096
26.275,0.099
26.280,0.112
26.285,0.133
26.290,0.150
26.295,0.149
26.300,0.155
26.305,0.181
26.310,0.197
26.315,0.200
26.320,0.210
26.325,0.218
26.330,0.218
26.335,0.227
26.340,0.226
26.345,0.203
26.350,0.177
26.355,0.160
26.360,0.131
26.365,0.081
26.370,0.032
26.375,-0.015
26.380,-0.066
26.385,-0.117
26.390,-0.172
26.395,-0.223
26.400,-0.255
26.405,-0.278
26.410,-0.309
26.415,-0.327
26.420,-0.330
26.425,-0.339
26.430,-0.347
26.435,-0.340
26.440,-0.328
26.445,-0.316
26.450,-0.289
26.455,-0.270
26.460,-0.272
26.465,-0.262
26.470,-0.245
26.475,-0.236
26.480,-0.224
26.485,-0.200
26.490,-0.178
26.495,-0.164
26.500,-0.147
26.505,-0.126
26.510,-0.117
26.515,-0.119
26.520,-0.112
26.525,-0.100
26.530,-0.094
26.535,-0.086
26.540,-0.073
26.545,-0.058
26.550,-0.056
26.555,-0.055
26.560,-0.042
26.565,-0.037
26.570,-0.042
26.575,-0.034
26.580,-0.016
26.585,-0.016
26.590,-0.031
26.595,-0.040
26.600,-0.031
26.605,-0.026
26.610,-0.036
26.615,-0.031
26.620,-0.013
26.625,-0.012
26.630,-0.012
26.635,0.004
26.640,0.015
26.645,0.022
26.650,0.024
26.655,0.014
26.660,0.006
26.665,0.001
26.670,0.002
26.675,0.012
26.680,0.020
26.685,0.021
26.690,0.023
26.695,0.045
26.700,0.068
26.705,0.072
26.710,0.080
26.715,0.085
26.720,0.077
26.725,0.081
26.730,0.092
26.735,0.097
26.740,0.102
26.745,0.102
26.750,0.099
26.755,0.104
26.760,0.109
26.765,0.087
26.770,0.051
26.775,0.042
26.780,0.058
26.785,0.055
26.790,0.036
26.795,0.023
26.800,0.011
26.805,0.003
26.810,-0.006
26.815,-0.016
26.820,-0.016
26.825,-0.009
26.830,0.002
26.835,0.009
26.840,0.010
26.845,0.011
26.850,0.010
26.855,0.011
26.860,0.016
26.865,0.022
26.870,0.017
26.875,-0.008
26.880,-0.015
26.885,0.063
26.890,0.252
26.895,0.558
26.900,0.953
26.905,1.310
26.910,1.417
26.915,1.141
26.920,0.531
26.925,-0.181
26.930,-0.642
26.935,-0.747
26.940,-0.670
26.945,-0.524
26.950,-0.372
26.955,-0.289
26.960,-0.243
26.965,-0.193
26.970,-0.154
26.975,-0.127
26.980,-0.101
26.985,-0.073
26.990,-0.052
26.995,-0.041
27.000,-0.027
27.005,-0.018
27.010,-0.016
27.015,-0.013
27.020,-0.010
27.025,-0.003
27.030,0.003
27.035,0.005
27.040,0.011
27.045,0.017
27.050,0.016
27.055,0.019
27.060,0.026
27.065,0.029
27.070,0.029
27.075,0.032
27.080,0.038
27.085,0.042
27.090,0.050
27.095,0.056
27.100,0.059
27.105,0.065
27.110,0.073
27.115,0.078
27.120,0.091
27.125,0.108
27.130,0.111
27.135,0.114
27.140,0.127
27.145,0.145
27.150,0.160
27.155,0.174
27.160,0.191
27.165,0.203
27.170,0.211
27.175,0.225
27.180,0.239
27.185,0.240
27.190,0.238
27.195,0.233
27.200,0.213
27.205,0.190
27.210,0.169
27.215,0.140
27.220,0.095
27.225,0.041
27.230,-0.013
27.235,-0.069
27.240,-0.128
27.245,-0.181
27.250,-0.221
27.255,-0.253
27.260,-0.284
27.265,-0.310
27.270,-0.325
27.275,-0.332
27.280,-0.336
27.285,-0.337
27.290,-0.329
27.295,-0.315
27.300,-0.306
27.305,-0.297
27.310,-0.286
27.315,-0.276
27.320,-0.262
27.325,-0.245
27.330,-0.232
27.335,-0.224
27.340,-0.212
27.345,-0.194
27.350,-0.175
27.355,-0.163
27.360,-0.156
27.365,-0.149
27.370,-0.133
27.375,-0.113
27.380,-0.101
27.385,-0.096
27.390,-0.090
27.395,-0.082
27.400,-0.075
27.405,-0.069
27.410,-0.061
27.415,-0.053
27.420,-0.049
27.425,-0.047
27.430,-0.042
27.435,-0.037
27.440,-0.032
27.445,-0.027
27.450,-0.026
27.455,-0.025
27.460,-0.023
27.465,-0.021
27.470,-0.017
27.475,-0.010
27.480,-0.005
27.485,-0.002
27.490,0.003
27.495,0.007
27.500,0.011
27.505,0.017
27.510,0.020
27.515,0.019
27.520,0.019
27.525,0.023
27.530,0.026
27.535,0.029
27.540,0.036
27.545,0.047
27.550,0.059
27.555,0.066
27.560,0.071
27.565,0.079
27.570,0.090
27.575,0.093
27.580,0.093
27.585,0.097
27.590,0.107
27.595,0.113
27.600,0.106
27.605,0.105
27.610,0.101
27.615,0.075
27.620,0.054
27.625,0.054
27.630,0.061
27.635,0.056
27.640,0.038
27.645,0.026
27.650,0.020
27.655,0.012
27.660,-0.002
27.665,-0.017
27.670,-0.020
27.675,-0.014
27.680,-0.005
27.685,-0.001
27.690,0.000
27.695,0.005
27.700,0.011
27.705,0.015
27.710,0.020
27.715,0.020
27.720,0.002
27.725,-0.020
27.730,0.006
27.735,0.128
27.740,0.354
27.745,0.668
27.750,1.039
27.755,1.352
27.760,1.369
27.765,0.985
27.770,0.327
27.775,-0.335
27.780,-0.691
27.785,-0.722
27.790,-0.618
27.795,-0.468
27.800,-0.336
27.805,-0.271
27.810,-0.225
27.815,-0.178
27.820,-0.147
27.825,-0.123
27.830,-0.095
27.835,-0.072
27.840,-0.061
27.845,-0.052
27.850,-0.042
27.855,-0.036
27.860,-0.028
27.865,-0.020
27.870,-0.015
27.875,-0.012
27.880,-0.007
27.885,-0.002
27.890,0.000
27.895,0.002
27.900,0.005
27.905,0.007
27.910,0.012
27.915,0.019
27.920,0.024
27.925,0.029
27.930,0.034
27.935,0.038
27.940,0.042
27.945,0.049
27.950,0.053
27.955,0.058
27.960,0.065
27.965,0.073
27.970,0.081
27.975,0.094
27.980,0.107
27.985,0.119
27.990,0.130
27.995,0.146
28.000,0.162
28.005,0.176
28.010,0.191
28.015,0.206
28.020,0.218
28.025,0.230
28.030,0.239
28.035,0.242
28.040,0.239
28.045,0.233
28.050,0.222
28.055,0.204
28.060,0.177
28.065,0.139
28.070,0.088
28.075,0.034
28.080,-0.019
28.085,-0.079
28.090,-0.138
28.095,-0.189
28.100,-0.232
28.105,-0.266
28.110,-0.292
28.115,-0.312
28.120,-0.327
28.125,-0.334
28.130,-0.333
28.135,-0.330
28.140,-0.324
28.145,-0.314
28.150,-0.302
28.155,-0.292
28.160,-0.279
28.165,-0.266
28.170,-0.255
28.175,-0.241
28.180,-0.227
28.185,-0.217
28.190,-0.205
28.195,-0.192
28.200,-0.184
28.205,-0.173
28.210,-0.158
28.215,-0.145
28.220,-0.136
28.225,-0.127
28.230,-0.116
28.235,-0.106
28.240,-0.098
28.245,-0.087
28.250,-0.081
28.255,-0.077
28.260,-0.069
28.265,-0.062
28.270,-0.057
28.275,-0.051
28.280,-0.043
28.285,-0.040
28.290,-0.038
28.295,-0.030
28.300,-0.026
28.305,-0.025
28.310,-0.021
28.315,-0.015
28.320,-0.010
28.325,-0.008
28.330,-0.005
28.335,0.002
28.340,0.008
28.345,0.010
28.350,0.010
28.355,0.012
28.360,0.020
28.365,0.024
28.370,0.027
28.375,0.035
28.380,0.034
28.385,0.027
28.390,0.035
28.395,0.051
28.400,0.061
28.405,0.070
28.410,0.081
28.415,0.091
28.420,0.098
28.425,0.105
28.430,0.111
28.435,0.111
28.440,0.114
28.445,0.121
28.450,0.117
28.455,0.113
28.460,0.116
28.465,0.096
28.470,0.065
28.475,0.054
28.480,0.055
28.485,0.051
28.490,0.043
28.495,0.037
28.500,0.026
28.505,0.014
28.510,0.005
28.515,-0.010
28.520,-0.015
28.525,-0.006
28.530,0.001
28.535,-0.001
28.540,0.004
28.545,0.010
28.550,0.011
28.555,0.017
28.560,0.024
28.565,0.025
28.570,0.022
28.575,0.001
28.580,-0.013
28.585,0.051
28.590,0.218
28.595,0.474
28.600,0.799
28.605,1.162
28.610,1.387
28.615,1.244
28.620,0.731
28.625,0.040
28.630,-0.519
28.635,-0.728
28.640,-0.676
28.645,-0.538
28.650,-0.394
28.655,-0.299
28.660,-0.248
28.665,-0.194
28.670,-0.154
28.675,-0.131
28.680,-0.108
28.685,-0.085
28.690,-0.062
28.695,-0.052
28.700,-0.051
28.705,-0.043
28.710,-0.030
28.715,-0.017
28.720,-0.017
28.725,-0.017
28.730,-0.009
28.735,-0.006
28.740,-0.005
28.745,0.003
28.750,0.013
28.755,0.016
28.760,0.017
28.765,0.020
28.770,0.024
28.775,0.030
28.780,0.034
28.785,0.036
28.790,0.035
28.795,0.040
28.800,0.048
28.805,0.062
28.810,0.074
28.815,0.076
28.820,0.080
28.825,0.093
28.830,0.105
28.835,0.111
28.840,0.121
28.845,0.140
28.850,0.156
28.855,0.167
28.860,0.178
28.865,0.192
28.870,0.208
28.875,0.226
28.880,0.240
28.885,0.244
28.890,0.243
28.895,0.239
28.900,0.231
28.905,0.211
28.910,0.192
28.915,0.166
28.920,0.117
28.925,0.067
28.930,0.022
28.935,-0.045
28.940,-0.120
28.945,-0.173
28.950,-0.211
28.955,-0.247
28.960,-0.272
28.965,-0.289
28.970,-0.311
28.975,-0.327
28.980,-0.330
28.985,-0.329
28.990,-0.322
28.995,-0.311
29.000,-0.306
29.005,-0.296
29.010,-0.279
29.015,-0.272
29.020,-0.271
29.025,-0.261
29.030,-0.237
29.035,-0.217
29.040,-0.210
29.045,-0.197
29.050,-0.176
29.055,-0.168
29.060,-0.170
29.065,-0.166
29.070,-0.152
29.075,-0.137
29.080,-0.128
29.085,-0.117
29.090,-0.104
29.095,-0.095
29.100,-0.085
29.105,-0.078
29.110,-0.074
29.115,-0.069
29.120,-0.062
29.125,-0.051
29.130,-0.043
29.135,-0.040
29.140,-0.027
29.145,-0.025
29.150,-0.041
29.155,-0.035
29.160,-0.008
29.165,0.000
29.170,-0.014
29.175,-0.016
29.180,-0.004
29.185,0.000
29.190,-0.002
29.195,-0.001
29.200,0.008
29.205,0.024
29.210,0.028
29.215,0.020
29.220,0.020
29.225,0.028
29.230,0.026
29.235,0.029
29.240,0.048
29.245,0.059
29.250,0.064
29.255,0.066
29.260,0.070
29.265,0.081
29.270,0.094
29.275,0.104
29.280,0.107
29.285,0.109
29.290,0.113
29.295,0.108
29.300,0.098
29.305,0.099
29.310,0.097
29.315,0.079
29.320,0.061
29.325,0.060
29.330,0.066
29.335,0.055
29.340,0.036
29.345,0.024
29.350,0.016
29.355,0.006
29.360,-0.008
29.365,-0.019
29.370,-0.022
29.375,-0.018
29.380,-0.004
29.385,0.010
29.390,0.010
29.395,0.006
29.400,0.008
29.405,0.017
29.410,0.026
29.415,0.029
29.420,0.019
29.425,-0.009
29.430,-0.009
29.435,0.091
29.440,0.302
29.445,0.613
29.450,1.002
29.455,1.334
29.460,1.378
29.465,1.019
29.470,0.355
29.475,-0.314
29.480,-0.676
29.485,-0.726
29.490,-0.631
29.495,-0.486
29.500,-0.353
29.505,-0.277
29.510,-0.221
29.515,-0.173
29.520,-0.148
29.525,-0.125
29.530,-0.095
29.535,-0.067
29.540,-0.048
29.545,-0.031
29.550,-0.020
29.555,-0.020
29.560,-0.018
29.565,-0.017
29.570,-0.011
29.575,0.003
29.580,0.006
29.585,0.001
29.590,0.005
29.595,0.011
29.600,0.012
29.605,0.018
29.610,0.030
29.615,0.038
29.620,0.027
29.625,0.021
29.630,0.042
29.635,0.055
29.640,0.047
29.645,0.051
29.650,0.066
29.655,0.068
29.660,0.066
29.665,0.074
29.670,0.082
29.675,0.090
29.680,0.104
29.685,0.117
29.690,0.131
29.695,0.154
29.700,0.172
29.705,0.174
29.710,0.181
29.715,0.200
29.720,0.210
29.725,0.221
29.730,0.236
29.735,0.240
29.740,0.229
29.745,0.220
29.750,0.208
29.755,0.180
29.760,0.146
29.765,0.110
29.770,0.067
29.775,0.022
29.780,-0.032
29.785,-0.096
29.790,-0.152
29.795,-0.196
29.800,-0.232
29.805,-0.264
29.810,-0.291
29.815,-0.310
29.820,-0.327
29.825,-0.334
29.830,-0.329
29.835,-0.328
29.840,-0.328
29.845,-0.318
29.850,-0.302
29.855,-0.288
29.860,-0.277
29.865,-0.268
29.870,-0.257
29.875,-0.241
29.880,-0.220
29.885,-0.205
29.890,-0.204
29.895,-0.191
29.900,-0.170
29.905,-0.159
29.910,-0.146
29.915,-0.131
29.920,-0.122
29.925,-0.112
29.930,-0.097
29.935,-0.085
29.940,-0.079
29.945,-0.073
29.950,-0.061
29.955,-0.052
29.960,-0.043
29.965,-0.038
29.970,-0.037
29.975,-0.034
29.980,-0.028
29.985,-0.025
29.990,-0.029
29.995,-0.027
30.000,-0.024
30.005,-0.022
30.010,-0.015
30.015,-0.009
30.020,-0.008
30.025,-0.006
30.030,-0.003
30.035,-0.002
30.040,0.001
30.045,0.008
30.050,0.016
30.055,0.014
30.060,0.013
30.065,0.019
30.070,0.028
30.075,0.032
30.080,0.027
30.085,0.025
30.090,0.030
30.095,0.034
30.100,0.044
30.105,0.053
30.110,0.062
30.115,0.075
30.120,0.081
30.125,0.087
30.130,0.100
30.135,0.105
30.140,0.104
30.145,0.104
30.150,0.108
30.155,0.110
30.160,0.105
30.165,0.106
30.170,0.097
30.175,0.076
30.180,0.062
30.185,0.061
30.190,0.066
30.195,0.062
30.200,0.043
30.205,0.024
30.210,0.018
30.215,0.013
30.220,-0.001
30.225,-0.012
30.230,-0.011
30.235,-0.006
30.240,-0.001
30.245,0.000
30.250,0.001
30.255,0.006
30.260,0.011
30.265,0.015
30.270,0.018
30.275,0.016
30.280,0.001
30.285,-0.019
30.290,0.020
30.295,0.166
30.300,0.416
30.305,0.749
30.310,1.122
30.315,1.379
30.320,1.301
30.325,0.845
30.330,0.161
30.335,-0.446
30.340,-0.712
30.345,-0.701
30.350,-0.586
30.355,-0.433
30.360,-0.315
30.365,-0.260
30.370,-0.215
30.375,-0.171
30.380,-0.143
30.385,-0.117
30.390,-0.090
30.395,-0.070
30.400,-0.059
30.405,-0.051
30.410,-0.042
30.415,-0.031
30.420,-0.025
30.425,-0.021
30.430,-0.009
30.435,-0.005
30.440,-0.006
30.445,-0.004
30.450,-0.003
30.455,0.001
30.460,0.008
30.465,0.014
30.470,0.015
30.475,0.018
30.480,0.025
30.485,0.030
30.490,0.033
30.495,0.040
30.500,0.048
30.505,0.052
30.510,0.054
30.515,0.058
30.520,0.062
30.525,0.071
30.530,0.086
30.535,0.096
30.540,0.101
30.545,0.115
30.550,0.129
30.555,0.140
30.560,0.155
30.565,0.173
30.570,0.189
30.575,0.202
30.580,0.217
30.585,0.230
30.590,0.238
30.595,0.241
30.600,0.236
30.605,0.226
30.610,0.214
30.615,0.193
30.620,0.160
30.625,0.119
30.630,0.070
30.635,0.013
30.640,-0.047
30.645,-0.098
30.650,-0.149
30.655,-0.201
30.660,-0.242
30.665,-0.275
30.670,-0.297
30.675,-0.313
30.680,-0.324
30.685,-0.327
30.690,-0.324
30.695,-0.319
30.700,-0.317
30.705,-0.312
30.710,-0.301
30.715,-0.289
30.720,-0.280
30.725,-0.267
30.730,-0.251
30.735,-0.238
30.740,-0.226
30.745,-0.212
30.750,-0.201
30.755,-0.188
30.760,-0.174
30.765,-0.162
30.770,-0.151
30.775,-0.141
30.780,-0.133
30.785,-0.123
30.790,-0.112
30.795,-0.100
30.800,-0.089
30.805,-0.083
30.810,-0.078
30.815,-0.070
30.820,-0.065
30.825,-0.059
30.830,-0.052
30.835,-0.048
30.840,-0.043
30.845,-0.035
30.850,-0.032
30.855,-0.030
30.860,-0.026
30.865,-0.020
30.870,-0.014
30.875,-0.010
30.880,-0.005
30.885,-0.003
30.890,-0.002
30.895,0.001
30.900,0.005
30.905,0.007
30.910,0.009
30.915,0.013
30.920,0.018
30.925,0.024
30.930,0.028
30.935,0.030
30.940,0.028
30.945,0.029
30.950,0.034
30.955,0.034
30.960,0.035
30.965,0.045
30.970,0.053
30.975,0.061
30.980,0.072
30.985,0.079
30.990,0.086
30.995,0.099
31.000,0.107
31.005,0.105
31.010,0.107
31.015,0.117
31.020,0.119
31.025,0.110
31.030,0.112
31.035,0.107
31.040,0.081
31.045,0.061
31.050,0.057
31.055,0.062
31.060,0.058
31.065,0.041
31.070,0.025
31.075,0.016
31.080,0.013
31.085,0.002
31.090,-0.012
31.095,-0.015
31.100,-0.010
31.105,-0.007
31.110,-0.004
31.115,0.003
31.120,0.008
31.125,0.009
31.130,0.013
31.135,0.018
31.140,0.020
31.145,0.014
31.150,-0.007
31.155,-0.015
31.160,0.059
31.165,0.241
31.170,0.516
31.175,0.855
31.180,1.211
31.185,1.385
31.190,1.177
31.195,0.629
31.200,-0.060
31.205,-0.574
31.210,-0.726
31.215,-0.654
31.220,-0.518
31.225,-0.377
31.230,-0.289
31.235,-0.246
31.240,-0.200
31.245,-0.163
31.250,-0.140
31.255,-0.113
31.260,-0.087
31.265,-0.073
31.270,-0.065
31.275,-0.057
31.280,-0.048
31.285,-0.041
31.290,-0.037
31.295,-0.030
31.300,-0.022
31.305,-0.017
31.310,-0.012
31.315,-0.007
31.320,-0.004
31.325,0.000
31.330,0.007
31.335,0.010
31.340,0.011
31.345,0.016
31.350,0.022
31.355,0.025
31.360,0.029
31.365,0.036
31.370,0.041
31.375,0.044
31.380,0.052
31.385,0.059
31.390,0.065
31.395,0.075
31.400,0.086
31.405,0.096
31.410,0.107
31.415,0.121
31.420,0.135
31.425,0.148
31.430,0.166
31.435,0.182
31.440,0.195
31.445,0.209
31.450,0.223
31.455,0.231
31.460,0.235
31.465,0.239
31.470,0.236
31.475,0.226
31.480,0.212
31.485,0.188
31.490,0.154
31.495,0.113
31.500,0.064
31.505,0.006
31.510,-0.053
31.515,-0.109
31.520,-0.161
31.525,-0.208
31.530,-0.244
31.535,-0.274
31.540,-0.298
31.545,-0.312
31.550,-0.321
31.555,-0.326
31.560,-0.327
31.565,-0.320
31.570,-0.312
31.575,-0.303
31.580,-0.289
31.585,-0.277
31.590,-0.266
31.595,-0.254
31.600,-0.240
31.605,-0.229
31.610,-0.217
31.615,-0.204
31.620,-0.192
31.625,-0.180
31.630,-0.167
31.635,-0.155
31.640,-0.148
31.645,-0.139
31.650,-0.129
31.655,-0.120
31.660,-0.112
31.665,-0.102
31.670,-0.094
31.675,-0.086
31.680,-0.077
31.685,-0.069
31.690,-0.064
31.695,-0.058
31.700,-0.051
31.705,-0.046
31.710,-0.043
31.715,-0.038
31.720,-0.033
31.725,-0.030
31.730,-0.024
31.735,-0.019
31.740,-0.016
31.745,-0.010
31.750,-0.005
31.755,-0.004
31.760,-0.001
31.765,0.005
31.770,0.008
31.775,0.009
31.780,0.014
31.785,0.018
31.790,0.019
31.795,0.022
31.800,0.027
31.805,0.029
31.810,0.030
31.815,0.034
31.820,0.036
31.825,0.038
31.830,0.042
31.835,0.045
31.840,0.044
31.845,0.047
31.850,0.051
31.855,0.052
31.860,0.053
31.865,0.061
31.870,0.070
31.875,0.077
31.880,0.083
31.885,0.089
31.890,0.098
31.895,0.112
31.900,0.119
31.905,0.115
31.910,0.114
31.915,0.121
31.920,0.122
31.925,0.110
31.930,0.109
31.935,0.108
31.940,0.086
31.945,0.067
31.950,0.066
31.955,0.069
31.960,0.061
31.965,0.044
31.970,0.028
31.975,0.019
31.980,0.015
31.985,0.003
31.990,-0.013
31.995,-0.015
32.000,-0.010
32.005,-0.004
32.010,0.000
32.015,0.005
32.020,0.008
32.025,0.010
32.030,0.015
32.035,0.018
32.040,0.021
32.045,0.018
32.050,-0.008
32.055,-0.025
32.060,0.037
32.065,0.206
32.070,0.471
32.075,0.808
32.080,1.174
32.085,1.375
32.090,1.191
32.095,0.659
32.100,-0.019
32.105,-0.539
32.110,-0.713
32.115,-0.656
32.120,-0.522
32.125,-0.378
32.130,-0.283
32.135,-0.236
32.140,-0.193
32.145,-0.162
32.150,-0.141
32.155,-0.116
32.160,-0.098
32.165,-0.082
32.170,-0.066
32.175,-0.054
32.180,-0.049
32.185,-0.043
32.190,-0.035
32.195,-0.031
32.200,-0.029
32.205,-0.027
32.210,-0.022
32.215,-0.018
32.220,-0.016
32.225,-0.013
32.230,-0.005
32.235,0.008
32.240,0.012
32.245,0.008
32.250,0.011
32.255,0.020
32.260,0.028
32.265,0.038
32.270,0.044
32.275,0.046
32.280,0.050
32.285,0.053
32.290,0.056
32.295,0.067
32.300,0.081
32.305,0.086
32.310,0.092
32.315,0.107
32.320,0.127
32.325,0.149
32.330,0.167
32.335,0.178
32.340,0.187
32.345,0.196
32.350,0.208
32.355,0.222
32.360,0.227
32.365,0.223
32.370,0.222
32.375,0.217
32.380,0.210
32.385,0.195
32.390,0.159
32.395,0.115
32.400,0.075
32.405,0.028
32.410,-0.033
32.415,-0.097
32.420,-0.148
32.425,-0.193
32.430,-0.237
32.435,-0.275
32.440,-0.300
32.445,-0.314
32.450,-0.320
32.455,-0.326
32.460,-0.328
32.465,-0.321
32.470,-0.311
32.475,-0.304
32.480,-0.300
32.485,-0.293
32.490,-0.275
32.495,-0.251
32.500,-0.237
32.505,-0.232
32.510,-0.233
32.515,-0.224
32.520,-0.202
32.525,-0.187
32.530,-0.180
32.535,-0.168
32.540,-0.152
32.545,-0.138
32.550,-0.129
32.555,-0.130
32.560,-0.131
32.565,-0.119
32.570,-0.103
32.575,-0.092
32.580,-0.087
32.585,-0.082
32.590,-0.073
32.595,-0.062
32.600,-0.050
32.605,-0.048
32.610,-0.049
32.615,-0.040
32.620,-0.035
32.625,-0.031
32.630,-0.022
32.635,-0.018
32.640,-0.014
32.645,-0.012
32.650,-0.015
32.655,-0.009
32.660,-0.001
32.665,-0.002
32.670,0.004
32.675,0.015
32.680,0.015
32.685,0.011
32.690,0.015
32.695,0.022
32.700,0.026
32.705,0.032
32.710,0.034
32.715,0.030
32.720,0.026
32.725,0.029
32.730,0.042
32.735,0.054
32.740,0.049
32.745,0.045
32.750,0.050
32.755,0.050
32.760,0.052
32.765,0.065
32.770,0.067
32.775,0.063
32.780,0.076
32.785,0.086
32.790,0.082
32.795,0.094
32.800,0.111
32.805,0.111
32.810,0.112
32.815,0.120
32.820,0.129
32.825,0.133
32.830,0.130
32.835,0.132
32.840,0.111
32.845,0.067
32.850,0.052
32.855,0.055
32.860,0.058
32.865,0.056
32.870,0.035
32.875,0.019
32.880,0.024
32.885,0.016
32.890,-0.008
32.895,-0.023
32.900,-0.018
32.905,-0.007
32.910,-0.008
32.915,-0.005
32.920,0.008
32.925,0.011
32.930,0.008
32.935,0.012
32.940,0.014
32.945,0.015
32.950,0.013
32.955,-0.012
32.960,-0.027
32.965,0.025
32.970,0.174
32.975,0.450
32.980,0.838
32.985,1.223
32.990,1.391
32.995,1.183
33.000,0.613
33.005,-0.113
33.010,-0.612
33.015,-0.730
33.020,-0.660
33.025,-0.529
33.030,-0.383
33.035,-0.296
33.040,-0.254
33.045,-0.215
33.050,-0.172
33.055,-0.139
33.060,-0.117
33.065,-0.087
33.070,-0.060
33.075,-0.038
33.080,-0.018
33.085,-0.012
33.090,-0.010
33.095,-0.011
33.100,-0.021
33.105,-0.022
33.110,-0.009
33.115,0.001
33.120,-0.004
33.125,-0.007
33.130,0.008
33.135,0.026
33.140,0.024
33.145,0.012
33.150,0.013
33.155,0.024
33.160,0.030
33.165,0.038
33.170,0.044
33.175,0.050
33.180,0.056
33.185,0.047
33.190,0.045
33.195,0.068
33.200,0.082
33.205,0.083
33.210,0.095
33.215,0.108
33.220,0.117
33.225,0.121
33.230,0.130
33.235,0.147
33.240,0.166
33.245,0.185
33.250,0.193
33.255,0.205
33.260,0.216
33.265,0.203
33.270,0.194
33.275,0.195
33.280,0.190
33.285,0.176
33.290,0.161
33.295,0.136
33.300,0.087
33.305,0.038
33.310,-0.004
33.315,-0.057
33.320,-0.118
33.325,-0.170
33.330,-0.207
33.335,-0.243
33.340,-0.270
33.345,-0.287
33.350,-0.307
33.355,-0.327
33.360,-0.332
33.365,-0.327
33.370,-0.327
33.375,-0.318
33.380,-0.300
33.385,-0.284
33.390,-0.277
33.395,-0.267
33.400,-0.253
33.405,-0.244
33.410,-0.232
33.415,-0.213
33.420,-0.193
33.425,-0.179
33.430,-0.169
33.435,-0.159
33.440,-0.143
33.445,-0.125
33.450,-0.114
33.455,-0.106
33.460,-0.100
33.465,-0.090
33.470,-0.075
33.475,-0.063
33.480,-0.056
33.485,-0.055
33.490,-0.051
33.495,-0.046
33.500,-0.043
33.505,-0.039
33.510,-0.035
33.515,-0.034
33.520,-0.034
33.525,-0.029
33.530,-0.020
33.535,-0.016
33.540,-0.016
33.545,-0.014
33.550,-0.018
33.555,-0.022
33.560,-0.013
33.565,-0.004
33.570,-0.002
33.575,0.002
33.580,0.007
33.585,0.008
33.590,0.009
33.595,0.012
33.600,0.015
33.605,0.019
33.610,0.026
33.615,0.033
33.620,0.032
33.625,0.030
33.630,0.037
33.635,0.039
33.640,0.035
33.645,0.037
33.650,0.042
33.655,0.046
33.660,0.050
33.665,0.052
33.670,0.052
33.675,0.054
33.680,0.064
33.685,0.076
33.690,0.083
33.695,0.087
33.700,0.091
33.705,0.103
33.710,0.115
33.715,0.116
33.720,0.112
33.725,0.113
33.730,0.120
33.735,0.118
33.740,0.114
33.745,0.111
33.750,0.092
33.755,0.067
33.760,0.062
33.765,0.070
33.770,0.060
33.775,0.039
33.780,0.028
33.785,0.023
33.790,0.014
33.795,0.000
33.800,-0.016
33.805,-0.022
33.810,-0.015
33.815,-0.007
33.820,-0.005
33.825,-0.002
33.830,0.003
33.835,0.004
33.840,0.006
33.845,0.012
33.850,0.016
33.855,0.011
33.860,-0.012
33.865,-0.032
33.870,0.013
33.875,0.165
33.880,0.433
33.885,0.794
33.890,1.179
33.895,1.419
33.900,1.300
33.905,0.805
33.910,0.107
33.915,-0.477
33.920,-0.712
33.925,-0.692
33.930,-0.581
33.935,-0.435
33.940,-0.331
33.945,-0.282
33.950,-0.234
33.955,-0.192
33.960,-0.165
33.965,-0.139
33.970,-0.109
33.975,-0.088
33.980,-0.077
33.985,-0.068
33.990,-0.061
33.995,-0.052
34.000,-0.043
34.005,-0.036
34.010,-0.031
34.015,-0.026
34.020,-0.025
34.025,-0.021
34.030,-0.013
34.035,-0.007
34.040,-0.005
34.045,0.001
34.050,0.006
34.055,0.008
34.060,0.010
34.065,0.014
34.070,0.019
34.075,0.026
34.080,0.033
34.085,0.039
34.090,0.043
34.095,0.050
34.100,0.059
34.105,0.064
34.110,0.072
34.115,0.085
34.120,0.097
34.125,0.106
34.130,0.120
34.135,0.136
34.140,0.151
34.145,0.166
34.150,0.179
34.155,0.190
34.160,0.202
34.165,0.212
34.170,0.216
34.175,0.218
34.180,0.220
34.185,0.216
34.190,0.201
34.195,0.182
34.200,0.155
34.205,0.119
34.210,0.075
34.215,0.024
34.220,-0.035
34.225,-0.093
34.230,-0.143
34.235,-0.191
34.240,-0.233
34.245,-0.264
34.250,-0.288
34.255,-0.307
34.260,-0.319
34.265,-0.325
34.270,-0.329
34.275,-0.329
34.280,-0.319
34.285,-0.308
34.290,-0.299
34.295,-0.286
34.300,-0.273
34.305,-0.263
34.310,-0.251
34.315,-0.237
34.320,-0.224
34.325,-0.210
34.330,-0.194
34.335,-0.183
34.340,-0.174
34.345,-0.162
34.350,-0.149
34.355,-0.139
34.360,-0.128
34.365,-0.116
34.370,-0.108
34.375,-0.100
34.380,-0.086
34.385,-0.078
34.390,-0.076
34.395,-0.070
34.400,-0.062
34.405,-0.058
34.410,-0.052
34.415,-0.047
34.420,-0.043
34.425,-0.039
34.430,-0.033
34.435,-0.030
34.440,-0.029
34.445,-0.022
34.450,-0.018
34.455,-0.017
34.460,-0.013
34.465,-0.007
34.470,-0.004
34.475,0.000
34.480,0.006
34.485,0.010
34.490,0.012
34.495,0.015
34.500,0.018
34.505,0.019
34.510,0.023
34.515,0.027
34.520,0.028
34.525,0.030
34.530,0.036
34.535,0.038
34.540,0.038
34.545,0.042
34.550,0.046
34.555,0.047
34.560,0.048
34.565,0.051
34.570,0.052
34.575,0.052
34.580,0.057
34.585,0.058
34.590,0.057
34.595,0.060
34.600,0.063
34.605,0.060
34.610,0.060
34.615,0.065
34.620,0.069
34.625,0.075
34.630,0.083
34.635,0.089
34.640,0.092
34.645,0.104
34.650,0.120
34.655,0.123
34.660,0.122
34.665,0.123
34.670,0.125
34.675,0.124
34.680,0.114
34.685,0.108
34.690,0.104
34.695,0.088
34.700,0.071
34.705,0.067
34.710,0.070
34.715,0.061
34.720,0.040
34.725,0.023
34.730,0.015
34.735,0.008
34.740,-0.004
34.745,-0.015
34.750,-0.020
34.755,-0.022
34.760,-0.018
34.765,-0.012
34.770,-0.010
34.775,-0.007
34.780,-0.001
34.785,0.003
34.790,0.004
34.795,0.008
34.800,0.007
34.805,-0.014
34.810,-0.035
34.815,0.006
34.820,0.149
34.825,0.400
34.830,0.738
34.835,1.115
34.840,1.384
34.845,1.319
34.850,0.878
34.855,0.211
34.860,-0.414
34.865,-0.711
34.870,-0.706
34.875,-0.592
34.880,-0.444
34.885,-0.333
34.890,-0.286
34.895,-0.240
34.900,-0.195
34.905,-0.173
34.910,-0.146
34.915,-0.117
34.920,-0.103
34.925,-0.093
34.930,-0.080
34.935,-0.072
34.940,-0.066
34.945,-0.059
34.950,-0.052
34.955,-0.049
34.960,-0.044
34.965,-0.035
34.970,-0.030
34.975,-0.027
34.980,-0.019
34.985,-0.015
34.990,-0.013
34.995,-0.007
35.000,0.000
35.005,0.004
35.010,0.009
35.015,0.015
35.020,0.019
35.025,0.024
35.030,0.033
35.035,0.039
35.040,0.042
35.045,0.049
35.050,0.060
35.055,0.069
35.060,0.080
35.065,0.094
35.070,0.103
35.075,0.113
35.080,0.129
35.085,0.144
35.090,0.158
35.095,0.175
35.100,0.190
35.105,0.199
35.110,0.209
35.115,0.220
35.120,0.223
35.125,0.221
35.130,0.219
35.135,0.210
35.140,0.192
35.145,0.171
35.150,0.142
35.155,0.098
35.160,0.047
35.165,-0.005
35.170,-0.063
35.175,-0.120
35.180,-0.168
35.185,-0.213
35.190,-0.254
35.195,-0.282
35.200,-0.303
35.205,-0.321
35.210,-0.330
35.215,-0.330
35.220,-0.330
35.225,-0.328
35.230,-0.318
35.235,-0.307
35.240,-0.299
35.245,-0.286
35.250,-0.270
35.255,-0.260
35.260,-0.248
35.265,-0.231
35.270,-0.220
35.275,-0.210
35.280,-0.195
35.285,-0.184
35.290,-0.176
35.295,-0.163
35.300,-0.149
35.305,-0.141
35.310,-0.132
35.315,-0.120
35.320,-0.111
35.325,-0.106
35.330,-0.095
35.335,-0.086
35.340,-0.082
35.345,-0.073
35.350,-0.065
35.355,-0.061
35.360,-0.055
35.365,-0.044
35.370,-0.039
35.375,-0.037
35.380,-0.030
35.385,-0.026
35.390,-0.025
35.395,-0.019
35.400,-0.012
35.405,-0.012
35.410,-0.010
35.415,-0.003
35.420,0.000
35.425,0.001
35.430,0.007
35.435,0.010
35.440,0.011
35.445,0.017
35.450,0.023
35.455,0.023
35.460,0.026
35.465,0.032
35.470,0.033
35.475,0.035
35.480,0.039
35.485,0.041
35.490,0.041
35.495,0.044
35.500,0.048
35.505,0.047
35.510,0.048
35.515,0.053
35.520,0.054
35.525,0.053
35.530,0.057
35.535,0.058
35.540,0.056
35.545,0.059
35.550,0.062
35.555,0.059
35.560,0.060
35.565,0.064
35.570,0.064
35.575,0.063
35.580,0.066
35.585,0.066
35.590,0.065
35.595,0.072
35.600,0.082
35.605,0.085
35.610,0.089
35.615,0.096
35.620,0.103
35.625,0.115
35.630,0.124
35.635,0.122
35.640,0.012
35.645,-0.242
35.650,-0.376
35.655,-0.325
35.660,-0.303
35.665,-0.297
35.670,-0.269
35.675,-0.252
35.680,-0.234
35.685,-0.214
35.690,-0.197
35.695,-0.179
35.700,-0.162
35.705,-0.145
35.710,-0.129
35.715,-0.114
35.720,-0.099
35.725,-0.085
35.730,-0.071
35.735,-0.057
35.740,-0.045
35.745,-0.033
35.750,-0.021
35.755,-0.010
35.760,0.001
35.765,0.011
35.770,0.020
35.775,0.029
35.780,0.038
35.785,0.046
35.790,0.054
35.795,0.061
35.800,0.067
35.805,0.074
35.810,0.080
35.815,0.085
35.820,0.091
35.825,0.095
35.830,0.100
35.835,0.104
35.840,0.107
35.845,0.111
35.850,0.114
35.855,0.117
35.860,0.120
35.865,0.122
35.870,0.124
35.875,0.125
35.880,0.127
35.885,0.128
35.890,0.129
35.895,0.129
35.900,0.130
35.905,0.131
35.910,0.131
35.915,0.131
35.920,0.130
35.925,0.130
35.930,0.129
35.935,0.129
35.940,0.128
35.945,0.127
35.950,0.126
35.955,0.124
35.960,0.123
35.965,0.122
35.970,0.120
35.975,0.118
35.980,0.117
35.985,0.115
35.990,0.113
35.995,0.111
36.000,0.109
36.005,0.107
36.010,0.105
36.015,0.103
36.020,0.100
36.025,0.098
36.030,0.095
36.035,0.093
36.040,0.091
36.045,0.089
36.050,0.086
36.055,0.084
36.060,0.082
36.065,0.079
36.070,0.076
36.075,0.074
36.080,0.071
36.085,0.069
36.090,0.067
36.095,0.064
36.100,0.062
36.105,0.060
36.110,0.057
36.115,0.055
36.120,0.053
36.125,0.050
36.130,0.047
36.135,0.045
36.140,0.043
36.145,0.041
36.150,0.038
36.155,0.037
36.160,0.035
36.165,0.032
36.170,0.031
36.175,0.029
36.180,0.027
36.185,0.025
36.190,0.022
36.195,0.021
36.200,0.019
36.205,0.017
36.210,0.015
36.215,0.013
36.220,0.012
36.225,0.010
36.230,0.009
36.235,0.007
36.240,0.005
36.245,0.004
36.250,0.003
36.255,0.001
36.260,0.000
36.265,-0.001
36.270,-0.003
36.275,-0.004
36.280,-0.005
36.285,-0.007
36.290,-0.008
36.295,-0.009
36.300,-0.010
36.305,-0.011
36.310,-0.012
36.315,-0.013
36.320,-0.013
36.325,-0.014
36.330,-0.015
36.335,-0.016
36.340,-0.017
36.345,-0.017
36.350,-0.018
36.355,-0.019
36.360,-0.020
36.365,-0.020
36.370,-0.021
36.375,-0.021
36.380,-0.022
36.385,-0.022
36.390,-0.023
36.395,-0.023
36.400,-0.024
36.405,-0.024
36.410,-0.024
36.415,-0.025
36.420,-0.025
36.425,-0.025
36.430,-0.025
36.435,-0.025
36.440,-0.025
36.445,-0.026
36.450,-0.026
36.455,-0.026
36.460,-0.026
36.465,-0.026
36.470,-0.026
36.475,-0.026
36.480,-0.026
36.485,-0.026
36.490,-0.026
36.495,-0.026
36.500,-0.026
36.505,-0.026
36.510,-0.026
36.515,-0.026
36.520,-0.026
36.525,-0.026
36.530,-0.026
36.535,-0.025
36.540,-0.025
36.545,-0.025
36.550,-0.025
36.555,-0.025
36.560,-0.025
36.565,-0.025
36.570,-0.024
36.575,-0.024
36.580,-0.024
36.585,-0.023
36.590,-0.023
36.595,-0.023
36.600,-0.023
36.605,-0.022
36.610,-0.022
36.615,-0.022
36.620,-0.022
36.625,-0.022
36.630,-0.022
36.635,-0.021
36.640,-0.021
36.645,-0.021
36.650,-0.020
36.655,-0.020
36.660,-0.019
36.665,-0.019
36.670,-0.019
36.675,-0.019
36.680,-0.019
36.685,-0.018
36.690,-0.018
36.695,-0.018
36.700,-0.018
36.705,-0.018
36.710,-0.017
36.715,-0.017
36.720,-0.017
36.725,-0.016
36.730,-0.016
36.735,-0.015
36.740,-0.015
36.745,-0.015
36.750,-0.015
36.755,-0.014
36.760,-0.014
36.765,-0.014
36.770,-0.014
36.775,-0.013
36.780,-0.013
36.785,-0.013
36.790,-0.013
36.795,-0.013
36.800,-0.012
36.805,-0.012
36.810,-0.012
36.815,-0.012
36.820,-0.011
36.825,-0.011
36.830,-0.011
36.835,-0.011
36.840,-0.010
36.845,-0.010
36.850,-0.010
36.855,-0.010
36.860,-0.009
36.865,-0.009
36.870,-0.009
36.875,-0.008
36.880,-0.008
36.885,-0.008
36.890,-0.008
36.895,-0.008
36.900,-0.008
36.905,-0.008
36.910,-0.007
36.915,-0.007
36.920,-0.007
36.925,-0.007
36.930,-0.007
36.935,-0.007
36.940,-0.006
36.945,-0.006
36.950,-0.006
36.955,-0.006
36.960,-0.006
36.965,-0.006
36.970,-0.006
36.975,-0.006
36.980,-0.005
36.985,-0.005
36.990,-0.005
36.995,-0.005
37.000,-0.005
37.005,-0.005
37.010,-0.004
37.015,-0.004
37.020,-0.004
37.025,-0.004
37.030,-0.004
37.035,-0.004
37.040,-0.004
37.045,-0.004
37.050,-0.004
37.055,-0.004
37.060,-0.004
37.065,-0.004
37.070,-0.004
37.075,-0.003
37.080,-0.003
37.085,-0.003
37.090,-0.003
37.095,-0.003
37.100,-0.003
37.105,-0.002
37.110,-0.003
37.115,-0.003
37.120,-0.003
37.125,-0.003
37.130,-0.002
37.135,-0.002
37.140,-0.002
37.145,-0.002
37.150,-0.002
37.155,-0.002
37.160,-0.002
37.165,-0.002
37.170,-0.002
37.175,-0.002
37.180,-0.002
37.185,-0.002
37.190,-0.002
37.195,-0.002
37.200,-0.001
37.205,-0.001
37.210,-0.001
37.215,-0.001
37.220,-0.001
37.225,-0.002
37.230,-0.002
37.235,-0.001
37.240,-0.002
37.245,-0.002
37.250,-0.002
37.255,-0.002
37.260,-0.001
37.265,-0.001
37.270,-0.001
37.275,-0.001
37.280,-0.001
37.285,-0.001
37.290,-0.001
37.295,-0.001
37.300,-0.001
37.305,-0.001
37.310,-0.001
37.315,-0.001
37.320,-0.001
37.325,-0.001
37.330,-0.001
37.335,-0.001
37.340,-0.001
37.345,0.000
37.350,0.000
37.355,-0.001
37.360,-0.001
37.365,-0.001
37.370,-0.001
37.375,-0.001
37.380,-0.001
37.385,-0.001
37.390,-0.001
37.395,-0.001
37.400,-0.001
37.405,-0.001
37.410,-0.001
37.415,-0.001
37.420,-0.001
37.425,-0.001
37.430,-0.001
37.435,-0.001
37.440,-0.001
37.445,-0.001
37.450,-0.001
37.455,-0.001
37.460,-0.001
37.465,0.000
37.470,-0.001
37.475,-0.001
37.480,-0.001
37.485,-0.001
37.490,0.000
37.495,0.000
37.500,-0.001
37.505,0.000
37.510,0.000
37.515,0.000
37.520,-0.001
37.525,-0.001
37.530,-0.001
37.535,0.000
37.540,0.000
37.545,0.000
37.550,0.000
37.555,0.000
37.560,0.000
37.565,0.000
37.570,-0.001
37.575,0.000
37.580,0.000
37.585,0.000
37.590,-0.001
37.595,0.000
37.600,-0.001
37.605,-0.001
37.610,0.000
37.615,0.000
37.620,0.000
37.625,0.000
37.630,0.000
37.635,0.000
37.640,-0.001
37.645,0.000
37.650,0.000
37.655,0.000
37.660,0.000
37.665,0.000
37.670,-0.001
37.675,-0.001
37.680,-0.001
37.685,0.000
37.690,0.000
37.695,0.000
37.700,0.000
37.705,0.000
37.710,0.000
37.715,0.000
37.720,0.000
37.725,0.000
37.730,0.000
37.735,0.000
37.740,-0.001
37.745,-0.001
37.750,0.000
37.755,0.000
37.760,0.000
37.765,0.000
37.770,0.000
37.775,0.000
37.780,0.000
37.785,0.000
37.790,0.000
37.795,0.000
37.800,0.000
37.805,0.000
37.810,0.000
37.815,0.000
37.820,0.000
37.825,-0.001
37.830,-0.001
37.835,0.000
37.840,0.000
37.845,-0.001
37.850,-0.001
37.855,-0.001
37.860,-0.001
37.865,0.000
37.870,0.000
37.875,0.000
37.880,0.000
37.885,0.000
37.890,0.000
37.895,-0.001
37.900,-0.001
37.905,0.000
37.910,0.000
37.915,0.000
37.920,0.000
37.925,0.000
37.930,0.000
37.935,0.000
37.940,0.000
37.945,0.000
37.950,0.000
37.955,0.000
37.960,0.000
37.965,0.000
37.970,0.000
37.975,0.000
37.980,-0.001
37.985,-0.001
37.990,0.000
37.995,0.000
38.000,0.000
38.005,-0.001
38.010,-0.001
38.015,-0.001
38.020,-0.001
38.025,0.000
38.030,0.000
38.035,0.000
38.040,0.000
38.045,0.000
38.050,-0.001
38.055,-0.001
38.060,0.000
38.065,0.000
38.070,0.000
38.075,0.000
38.080,0.000
38.085,0.000
38.090,0.000
38.095,0.000
38.100,0.000
38.105,0.000
38.110,0.000
38.115,0.000
38.120,0.000
38.125,0.000
38.130,0.000
38.135,0.000
38.140,0.000
38.145,0.000
38.150,0.000
38.155,0.000
38.160,0.000
38.165,0.000
38.170,0.000
38.175,0.000
38.180,0.000
38.185,0.000
38.190,0.000
38.195,0.000
38.200,0.000
38.205,0.000
38.210,0.000
38.215,0.000
38.220,0.000
38.225,0.000
38.230,0.000
38.235,0.000
38.240,0.000
38.245,0.000
38.250,-0.001
38.255,0.000
38.260,0.000
38.265,0.000
38.270,0.000
38.275,0.000
38.280,0.000
38.285,0.000
38.290,0.000
38.295,0.000
38.300,0.000
38.305,0.000
38.310,0.000
38.315,0.000
38.320,0.000
38.325,0.000
38.330,0.000
38.335,0.000
38.340,0.000
38.345,0.000
38.350,0.000
38.355,0.000
38.360,0.000
38.365,0.000
38.370,0.000
38.375,0.000
38.380,0.000
38.385,0.000
38.390,0.000
38.395,0.000
38.400,0.000
38.405,0.000
38.410,0.000
38.415,0.000
38.420,0.000
38.425,0.000
38.430,0.000
38.435,0.000
38.440,0.000
38.445,0.000
38.450,0.000
38.455,0.000
38.460,0.000
38.465,0.000
38.470,0.000
38.475,0.000
38.480,0.000
38.485,0.000
38.490,0.000
38.495,0.000
38.500,0.000
38.505,0.000
38.510,0.000
38.515,0.000
38.520,0.000
38.525,0.000
38.530,-0.001
38.535,0.000
38.540,0.000
38.545,0.000
38.550,0.000
38.555,0.000
38.560,0.000
38.565,0.000
38.570,0.000
38.575,0.000
38.580,0.000
38.585,0.000
38.590,0.000
38.595,0.000
38.600,0.000
38.605,0.000
38.610,0.000
38.615,0.000
38.620,0.000
38.625,0.000
38.630,0.000
38.635,0.000
38.640,0.000
38.645,0.000
38.650,0.000
38.655,0.000
38.660,0.000
38.665,0.000
38.670,0.000
38.675,0.000
38.680,0.000
38.685,0.000
38.690,0.000
38.695,0.000
38.700,0.000
38.705,0.000
38.710,0.000
38.715,0.000
38.720,0.000
38.725,0.000
38.730,0.000
38.735,0.000
38.740,0.000
38.745,0.000
38.750,0.000
38.755,0.000
38.760,0.000
38.765,0.000
38.770,0.000
38.775,0.000
38.780,0.000
38.785,0.000
38.790,0.000
38.795,0.000
38.800,0.000
38.805,0.000
38.810,0.000
38.815,0.000
38.820,0.000
38.825,0.000
38.830,0.000
38.835,0.000
38.840,0.000
38.845,0.000
38.850,0.000
38.855,0.000
38.860,0.000
38.865,0.000
38.870,0.000
38.875,0.000
38.880,0.000
38.885,0.000
38.890,0.000
38.895,0.000
38.900,0.000
38.905,0.000
38.910,0.000
38.915,0.000
38.920,0.000
38.925,0.000
38.930,0.000
38.935,0.000
38.940,0.000
38.945,0.000
38.950,0.000
38.955,0.000
38.960,0.000
38.965,0.000
38.970,0.000
38.975,0.000
38.980,0.000
38.985,0.000
38.990,0.000
38.995,-0.001
39.000,0.000
39.005,0.000
39.010,0.000
39.015,0.000
39.020,0.000
39.025,0.000
39.030,0.000
39.035,0.000
39.040,0.000
39.045,0.000
39.050,0.000
39.055,0.000
39.060,0.000
39.065,0.000
39.070,0.000
39.075,0.000
39.080,0.000
39.085,0.000
39.090,0.000
39.095,0.000
39.100,0.000
39.105,0.000
39.110,0.000
39.115,0.000
39.120,0.000
39.125,0.000
39.130,0.000
39.135,0.000
39.140,0.000
39.145,0.000
39.150,0.000
39.155,0.000
39.160,0.000
39.165,0.000
39.170,0.000
39.175,0.000
39.180,0.000
39.185,0.000
39.190,0.000
39.195,0.000
39.200,0.000
39.205,0.000
39.210,0.000
39.215,0.000
39.220,0.000
39.225,0.000
39.230,0.000
39.235,0.000
39.240,0.000
39.245,0.000
39.250,0.000
39.255,0.000
39.260,0.000
39.265,-0.001
39.270,0.000
39.275,0.000
39.280,0.000
39.285,0.000
39.290,0.000
39.295,0.000
39.300,0.000
39.305,0.000
39.310,0.000
39.315,0.000
39.320,0.000
39.325,0.000
39.330,0.000
39.335,0.000
39.340,0.000
39.345,0.000
39.350,0.000
39.355,0.000
39.360,0.000
39.365,0.000
39.370,0.000
39.375,0.000
39.380,0.000
39.385,0.000
39.390,0.000
39.395,0.000
39.400,0.000
39.405,0.000
39.410,0.000
39.415,0.000
39.420,0.000
39.425,0.000
39.430,0.000
39.435,0.000
39.440,0.000
39.445,0.000
39.450,0.000
39.455,0.000
39.460,0.000
39.465,0.000
39.470,0.000
39.475,0.000
39.480,0.000
39.485,0.000
39.490,0.000
39.495,0.000
39.500,0.000
39.505,0.000
39.510,0.000
39.515,0.000
39.520,0.000
39.525,0.000
39.530,0.000
39.535,0.000
39.540,0.000
39.545,0.000
39.550,0.000
39.555,0.000
39.560,0.000
39.565,0.000
39.570,0.000
39.575,0.000
39.580,0.000
39.585,0.000
39.590,0.000
39.595,0.000
39.600,0.000
39.605,0.000
39.610,0.000
39.615,0.000
39.620,0.000
39.625,0.000
39.630,0.000
39.635,0.000
39.640,0.000
39.645,0.000
39.650,0.000
39.655,0.000
39.660,0.000
39.665,0.000
39.670,0.000
39.675,0.000
39.680,0.000
39.685,0.000
39.690,0.000
39.695,0.000
39.700,0.000
39.705,0.000
39.710,0.000
39.715,0.000
39.720,0.000
39.725,0.000
39.730,0.000
39.735,0.000
39.740,0.000
39.745,0.000
39.750,0.000
39.755,0.000
39.760,0.000
39.765,0.000
39.770,-0.001
39.775,0.000
39.780,0.000
39.785,0.000
39.790,0.000
39.795,0.000
39.800,0.000
39.805,0.000
39.810,0.000
39.815,0.000
39.820,0.000
39.825,0.000
39.830,0.000
39.835,0.000
39.840,0.000
39.845,0.000
39.850,0.000
39.855,0.000
39.860,0.000
39.865,0.000
39.870,0.000
39.875,0.000
39.880,0.000
39.885,0.000
39.890,0.000
39.895,0.000
39.900,0.000
39.905,0.000
39.910,0.000
39.915,0.000
39.920,0.000
39.925,0.000
39.930,0.000
39.935,0.000
39.940,0.000
39.945,0.000
39.950,0.000
39.955,0.000
39.960,0.000
39.965,0.000
39.970,0.000
39.975,0.000
39.980,-0.001
39.985,0.000
39.990,0.000
39.995,0.000
40.000,0.000
40.005,0.000
40.010,-0.001
40.015,0.000
40.020,0.000
40.025,0.000
40.030,0.000
40.035,0.000
40.040,0.000
40.045,0.000
40.050,0.000
40.055,0.000
40.060,0.000
40.065,0.000
40.070,0.000
40.075,0.000
40.080,0.000
40.085,0.000
40.090,0.000
40.095,0.000
40.100,0.000
40.105,0.000
40.110,0.000
40.115,0.000
40.120,0.000
40.125,0.000
40.130,0.000
40.135,0.000
40.140,0.000
40.145,0.000
40.150,0.000
40.155,0.000
40.160,0.000
40.165,0.000
40.170,0.000
40.175,0.000
40.180,0.000
40.185,0.000
40.190,0.000
40.195,0.000
40.200,0.000
40.205,0.000
40.210,0.000
40.215,0.000
40.220,0.000
40.225,0.000
40.230,0.000
40.235,0.000
40.240,0.000
40.245,0.000
40.250,0.000
40.255,0.000
40.260,0.000
40.265,0.000
40.270,0.000
40.275,0.000
40.280,0.000
40.285,0.000
40.290,0.000
40.295,0.000
40.300,0.000
40.305,0.000
40.310,0.000
40.315,0.000
40.320,0.000
40.325,0.000
40.330,0.000
40.335,0.000
40.340,0.000
40.345,0.000
40.350,0.000
40.355,0.000
40.360,0.000
40.365,0.000
40.370,0.000
40.375,0.000
40.380,0.000
40.385,0.000
40.390,0.000
40.395,0.000
40.400,0.000
40.405,0.000
40.410,0.000
40.415,0.000
40.420,0.000
40.425,0.000
40.430,0.000
40.435,0.000
40.440,0.000
40.445,0.000
40.450,0.000
40.455,0.000
40.460,0.000
40.465,0.000
40.470,0.000
40.475,0.000
40.480,0.000
40.485,0.000
40.490,0.000
40.495,0.000
40.500,0.000
40.505,0.000
40.510,0.000
40.515,0.000
40.520,0.000
40.525,0.000
40.530,0.000
40.535,0.000
40.540,0.000
40.545,0.000
40.550,0.000
40.555,0.000
40.560,0.000
40.565,0.000
40.570,0.000
40.575,0.000
40.580,0.000
40.585,0.000
40.590,0.000
40.595,0.000
40.600,0.000
40.605,0.000
40.610,0.000
40.615,0.000
40.620,0.000
40.625,0.000
40.630,0.000
40.635,0.000
40.640,0.000
40.645,0.000
40.650,0.000
40.655,0.000
40.660,0.000
40.665,0.000
40.670,0.000
40.675,0.000
40.680,0.000
40.685,0.000
40.690,0.000
40.695,0.000
40.700,0.000
40.705,0.000
40.710,0.000
40.715,0.000
40.720,0.000
40.725,0.000
40.730,0.000
40.735,0.000
40.740,0.000
40.745,0.000
40.750,0.000
40.755,0.000
40.760,0.000
40.765,0.000
40.770,0.000
40.775,0.000
40.780,0.000
40.785,0.000
40.790,0.000
40.795,0.000
40.800,0.000
40.805,0.000
40.810,0.000
40.815,0.000
40.820,0.000
40.825,0.000
40.830,0.000
40.835,0.000
40.840,0.000
40.845,0.000
40.850,0.000
40.855,0.000
40.860,0.000
40.865,0.000
40.870,0.000
40.875,0.000
40.880,0.000
40.885,0.000
40.890,0.000
40.895,0.000
40.900,0.000
40.905,0.000
40.910,0.000
40.915,0.000
40.920,0.000
40.925,0.000
40.930,0.000
40.935,0.000
40.940,0.000
40.945,0.000
40.950,0.000
40.955,0.000
40.960,0.000
40.965,0.000
40.970,0.000
40.975,0.001
40.980,0.000
40.985,0.000
40.990,0.000
40.995,0.000
41.000,0.000
41.005,0.000
41.010,0.000
41.015,0.000
41.020,0.000
41.025,0.000
41.030,0.000
41.035,0.000
41.040,0.000
41.045,0.000
41.050,0.000
41.055,0.000
41.060,0.000
41.065,0.000
41.070,0.000
41.075,0.000
41.080,0.000
41.085,0.000
41.090,0.000
41.095,0.000
41.100,0.000
41.105,0.000
41.110,0.000
41.115,0.000
41.120,0.000
41.125,0.000
41.130,0.000
41.135,0.000
41.140,0.000
41.145,0.000
41.150,0.000
41.155,0.000
41.160,0.000
41.165,0.000
41.170,0.000
41.175,0.000
41.180,0.000
41.185,0.000
41.190,0.000
41.195,0.000
41.200,0.000
41.205,0.000
41.210,0.000
41.215,0.000
41.220,0.000
41.225,0.000
41.230,0.000
41.235,0.000
41.240,0.000
41.245,0.000
41.250,0.000
41.255,0.000
41.260,0.000
41.265,0.000
41.270,0.000
41.275,0.000
41.280,0.000
41.285,0.000
41.290,0.000
41.295,0.000
41.300,0.000
41.305,0.000
41.310,0.000
41.315,0.000
41.320,0.000
41.325,0.000
41.330,0.000
41.335,0.000
41.340,0.000
41.345,0.000
41.350,0.000
41.355,0.000
41.360,0.000
41.365,0.000
41.370,0.000
41.375,0.000
41.380,0.000
41.385,0.000
41.390,0.000
41.395,0.000
41.400,0.000
41.405,0.000
41.410,0.000
41.415,0.000
41.420,0.000
41.425,0.000
41.430,0.000
41.435,0.000
41.440,0.000
41.445,0.000
41.450,0.000
41.455,0.000
41.460,0.000
41.465,0.000
41.470,0.000
41.475,0.000
41.480,0.000
41.485,0.000
41.490,0.000
41.495,0.000
41.500,0.000
41.505,0.000
41.510,0.000
41.515,0.000
41.520,0.000
41.525,0.000
41.530,0.000
41.535,0.000
41.540,0.000
41.545,0.000
41.550,0.000
41.555,0.000
41.560,0.000
41.565,0.000
41.570,0.000
41.575,0.000
41.580,0.000
41.585,0.000
41.590,0.000
41.595,0.000
41.600,0.000
41.605,0.000
41.610,0.000
41.615,0.000
41.620,0.000
41.625,0.000
41.630,0.000
41.635,0.000
41.640,0.000
41.645,0.000
41.650,0.000
41.655,0.000
41.660,0.000
41.665,0.000
41.670,0.000
41.675,0.000
41.680,0.000
41.685,0.000
41.690,0.000
41.695,0.000
41.700,0.000
41.705,0.000
41.710,0.000
41.715,0.000
41.720,0.000
41.725,0.000
41.730,0.000
41.735,0.000
41.740,0.000
41.745,0.000
41.750,0.000
41.755,0.000
41.760,0.000
41.765,0.000
41.770,0.000
41.775,0.000
41.780,0.000
41.785,0.000
41.790,0.000
41.795,0.000
41.800,0.000
41.805,0.000
41.810,0.000
41.815,0.000
41.820,0.000
41.825,0.000
41.830,0.000
41.835,0.000
41.840,0.000
41.845,0.000
41.850,0.000
41.855,0.000
41.860,0.000
41.865,0.000
41.870,0.000
41.875,0.000
41.880,0.000
41.885,0.000
41.890,0.000
41.895,0.000
41.900,0.000
41.905,0.000
41.910,0.000
41.915,0.000
41.920,0.000
41.925,0.000
41.930,0.000
41.935,0.000
41.940,0.000
41.945,0.000
41.950,0.000
41.955,0.000
41.960,0.000
41.965,0.000
41.970,0.000
41.975,0.000
41.980,0.000
41.985,0.000
41.990,0.000
41.995,0.000
42.000,0.000
42.005,0.000
42.010,0.000
42.015,0.000
42.020,0.000
42.025,0.000
42.030,0.000
42.035,0.000
42.040,0.000
42.045,0.000
42.050,0.000
42.055,0.000
42.060,0.000
42.065,0.000
42.070,0.000
42.075,0.000
42.080,0.000
42.085,0.000
42.090,0.000
42.095,0.000
42.100,0.000
42.105,0.000
42.110,0.000
42.115,0.000
42.120,0.000
42.125,0.000
42.130,0.000
42.135,0.000
42.140,0.000
42.145,0.000
42.150,0.000
42.155,0.000
42.160,0.000
42.165,0.000
42.170,0.000
42.175,0.000
42.180,0.000
42.185,0.000
42.190,0.000
42.195,0.000
42.200,0.000
42.205,0.000
42.210,0.000
42.215,0.000
42.220,0.000
42.225,0.000
42.230,0.000
42.235,0.000
42.240,0.000
42.245,0.000
42.250,0.000
42.255,0.000
42.260,0.000
42.265,0.000
42.270,0.000
42.275,0.000
42.280,0.000
42.285,0.000
42.290,0.000
42.295,0.000
42.300,0.000
42.305,0.000
42.310,0.000
42.315,0.000
42.320,0.000
42.325,0.000
42.330,0.000
42.335,0.000
42.340,0.000
42.345,0.000
42.350,0.000
42.355,0.000
42.360,0.000
42.365,0.000
42.370,0.000
42.375,0.000
42.380,0.000
42.385,0.000
42.390,0.000
42.395,0.000
42.400,0.000
42.405,0.000
42.410,0.000
42.415,0.000
42.420,0.000
42.425,0.000
42.430,0.000
42.435,0.000
42.440,0.000
42.445,0.000
42.450,0.000
42.455,0.000
42.460,0.000
42.465,0.000
42.470,0.000
42.475,0.000
42.480,0.000
42.485,0.000
42.490,0.000
42.495,0.000
42.500,0.000
42.505,0.000
42.510,0.000
42.515,0.000
42.520,0.000
42.525,0.000
42.530,0.000
42.535,0.000
42.540,0.000
42.545,0.000
42.550,0.000
42.555,0.000
42.560,0.000
42.565,0.000
42.570,0.000
42.575,0.000
42.580,0.000
42.585,0.000
42.590,0.000
42.595,0.000
42.600,0.000
42.605,0.000
42.610,0.000
42.615,0.000
42.620,0.000
42.625,0.000
42.630,0.000
42.635,0.000
42.640,0.000
42.645,0.000
42.650,0.000
42.655,0.000
42.660,0.000
42.665,0.000
42.670,0.000
42.675,0.000
42.680,0.000
42.685,0.000
42.690,0.000
42.695,0.000
42.700,0.000
42.705,0.000
42.710,0.000
42.715,0.000
42.720,0.000
42.725,0.000
42.730,0.000
42.735,0.000
42.740,0.000
42.745,0.000
42.750,0.000
42.755,0.000
42.760,0.001
42.765,0.000
42.770,0.000
42.775,0.000
42.780,0.000
42.785,0.001
42.790,0.000
42.795,0.000
42.800,0.000
42.805,0.000
42.810,0.000
42.815,0.000
42.820,0.000
42.825,0.000
42.830,0.000
42.835,0.000
42.840,0.000
42.845,-0.001
42.850,0.000
42.855,0.000
42.860,0.000
42.865,0.000
42.870,0.000
42.875,0.000
42.880,0.000
42.885,0.000
42.890,0.000
42.895,0.000
42.900,0.000
42.905,0.000
42.910,0.000
42.915,0.000
42.920,0.000
42.925,0.000
42.930,0.000
42.935,0.000
42.940,0.000
42.945,0.000
42.950,0.000
42.955,0.000
42.960,0.000
42.965,0.000
42.970,0.000
42.975,0.000
42.980,0.000
42.985,0.000
42.990,0.000
42.995,0.000
43.000,0.000
43.005,0.000
43.010,0.000
43.015,0.000
43.020,0.000
43.025,0.000
43.030,0.000
43.035,0.000
43.040,0.000
43.045,0.000
43.050,0.000
43.055,0.000
43.060,0.000
43.065,0.000
43.070,0.000
43.075,0.000
43.080,0.000
43.085,0.000
43.090,0.000
43.095,0.000
43.100,0.000
43.105,0.000
43.110,0.000
43.115,0.000
43.120,0.000
43.125,0.000
43.130,0.000
43.135,0.000
43.140,0.000
43.145,0.000
43.150,0.000
43.155,0.000
43.160,0.000
43.165,0.000
43.170,0.001
43.175,0.000
43.180,0.000
43.185,0.000
43.190,0.000
43.195,0.000
43.200,0.000
43.205,0.000
43.210,0.000
43.215,0.000
43.220,0.000
43.225,0.000
43.230,0.000
43.235,0.000
43.240,0.000
43.245,0.000
43.250,0.000
43.255,0.000
43.260,0.000
43.265,0.000
43.270,0.000
43.275,0.000
43.280,0.000
43.285,0.000
43.290,0.000
43.295,0.000
43.300,0.000
43.305,0.000
43.310,0.000
43.315,0.000
43.320,0.000
43.325,0.000
43.330,0.000
43.335,0.000
43.340,0.000
43.345,0.000
43.350,0.000
43.355,0.000
43.360,0.000
43.365,0.000
43.370,0.000
43.375,0.000
43.380,0.000
43.385,0.000
43.390,0.000
43.395,0.000
43.400,0.000
43.405,0.000
43.410,0.000
43.415,0.000
43.420,0.000
43.425,0.000
43.430,0.000
43.435,0.000
43.440,0.000
43.445,0.000
43.450,0.000
43.455,0.000
43.460,0.000
43.465,0.000
43.470,0.000
43.475,0.000
43.480,0.000
43.485,0.000
43.490,0.000
43.495,0.000
43.500,0.000
43.505,0.000
43.510,0.000
43.515,0.000
43.520,0.000
43.525,0.000
43.530,0.000
43.535,0.000
43.540,0.000
43.545,0.000
43.550,0.000
43.555,0.000
43.560,0.000
43.565,0.000
43.570,0.000
43.575,0.000
43.580,0.000
43.585,0.000
43.590,0.000
43.595,0.000
43.600,0.000
43.605,0.000
43.610,0.000
43.615,0.000
43.620,0.000
43.625,0.000
43.630,0.000
43.635,0.000
43.640,0.000
43.645,0.000
43.650,0.000
43.655,0.000
43.660,0.000
43.665,0.000
43.670,0.000
43.675,0.000
43.680,0.000
43.685,0.000
43.690,0.000
43.695,0.001
43.700,0.001
43.705,0.000
43.710,0.000
43.715,0.000
43.720,0.000
43.725,0.000
43.730,0.000
43.735,0.000
43.740,0.000
43.745,0.000
43.750,0.000
43.755,0.000
43.760,0.000
43.765,0.000
43.770,0.000
43.775,0.000
43.780,0.000
43.785,0.000
43.790,0.000
43.795,0.000
43.800,0.000
43.805,0.000
43.810,0.000
43.815,0.000
43.820,-0.001
43.825,-0.001
43.830,0.000
43.835,0.000
43.840,0.000
43.845,0.000
43.850,0.000
43.855,0.000
43.860,0.000
43.865,0.000
43.870,0.000
43.875,0.000
43.880,0.000
43.885,0.000
43.890,0.000
43.895,0.000
43.900,0.000
43.905,0.000
43.910,0.000
43.915,0.000
43.920,0.000
43.925,0.000
43.930,0.000
43.935,0.000
43.940,0.000
43.945,0.000
43.950,0.000
43.955,0.000
43.960,0.000
43.965,0.000
43.970,0.000
43.975,0.000
43.980,0.000
43.985,0.000
43.990,0.000
43.995,0.000
44.000,0.000
44.005,0.000
44.010,0.000
44.015,0.000
44.020,0.000
44.025,0.000
44.030,0.000
44.035,0.000
44.040,-0.001
44.045,0.000
44.050,0.000
44.055,0.000
44.060,0.000
44.065,0.000
44.070,0.000
44.075,0.000
44.080,0.000
44.085,0.001
44.090,0.000
44.095,0.000
44.100,0.000
44.105,0.000
44.110,0.000
44.115,0.000
44.120,0.000
44.125,0.000
44.130,0.000
44.135,0.000
44.140,0.000
44.145,0.000
44.150,0.000
44.155,0.000
44.160,0.000
44.165,0.000
44.170,0.000
44.175,0.000
44.180,0.000
44.185,0.001
44.190,0.000
44.195,0.000
44.200,0.000
44.205,0.000
44.210,0.000
44.215,0.000
44.220,0.000
44.225,0.000
44.230,0.000
44.235,0.000
44.240,0.000
44.245,0.000
44.250,0.000
44.255,0.000
44.260,0.000
44.265,0.000
44.270,0.000
44.275,0.000
44.280,0.000
44.285,0.000
44.290,0.000
44.295,0.000
44.300,0.000
44.305,0.000
44.310,0.000
44.315,0.000
44.320,0.000
44.325,0.000
44.330,0.000
44.335,0.000
44.340,0.001
44.345,0.000
44.350,0.000
44.355,0.000
44.360,0.000
44.365,0.000
44.370,0.000
44.375,0.000
44.380,0.000
44.385,0.000
44.390,0.000
44.395,0.000
44.400,0.000
44.405,0.000
44.410,0.000
44.415,0.000
44.420,0.000
44.425,0.000
44.430,0.000
44.435,0.000
44.440,0.000
44.445,0.000
44.450,0.000
44.455,0.000
44.460,0.000
44.465,0.000
44.470,0.000
44.475,0.000
44.480,0.000
44.485,0.000
44.490,0.000
44.495,0.000
44.500,0.000
44.505,0.000
44.510,0.000
44.515,0.000
44.520,0.000
44.525,0.000
44.530,0.000
44.535,0.000
44.540,0.000
44.545,0.000
44.550,0.000
44.555,0.000
44.560,0.000
44.565,0.000
44.570,0.000
44.575,0.000
44.580,0.000
44.585,0.000
44.590,0.000
44.595,0.000
44.600,0.000
44.605,0.000
44.610,0.000
44.615,0.000
44.620,0.000
44.625,0.000
44.630,0.000
44.635,0.000
44.640,0.000
44.645,0.000
44.650,0.000
44.655,0.000
44.660,0.000
44.665,0.000
44.670,0.000
44.675,0.000
44.680,0.000
44.685,0.000
44.690,0.000
44.695,0.000
44.700,0.000
44.705,0.000
44.710,0.000
44.715,0.000
44.720,0.000
44.725,0.500
44.730,1.606
44.735,2.059
44.740,1.767
44.745,1.688
44.750,1.659
44.755,1.538
44.760,1.476
44.765,1.399
44.770,1.321
44.775,1.252
44.780,1.181
44.785,1.112
44.790,1.046
44.795,0.981
44.800,0.918
44.805,0.857
44.810,0.798
44.815,0.741
44.820,0.685
44.825,0.631
44.830,0.579
44.835,0.529
44.840,0.480
44.845,0.433
44.850,0.387
44.855,0.343
44.860,0.301
44.865,0.260
44.870,0.221
44.875,0.183
44.880,0.147
44.885,0.112
44.890,0.078
44.895,0.046
44.900,0.015
44.905,-0.014
44.910,-0.042
44.915,-0.069
44.920,-0.094
44.925,-0.119
44.930,-0.142
44.935,-0.164
44.940,-0.185
44.945,-0.205
44.950,-0.224
44.955,-0.242
44.960,-0.259
44.965,-0.275
44.970,-0.289
44.975,-0.303
44.980,-0.316
44.985,-0.328
44.990,-0.340
44.995,-0.350
45.000,-0.360
45.005,-0.369
45.010,-0.377
45.015,-0.384
45.020,-0.391
45.025,-0.397
45.030,-0.403
45.035,-0.407
45.040,-0.411
45.045,-0.415
45.050,-0.418
45.055,-0.420
45.060,-0.422
45.065,-0.424
45.070,-0.425
45.075,-0.425
45.080,-0.425
45.085,-0.425
45.090,-0.424
45.095,-0.423
45.100,-0.422
45.105,-0.420
45.110,-0.418
45.115,-0.415
45.120,-0.420
45.125,-0.438
45.130,-0.459
45.135,-0.478
45.140,-0.505
45.145,-0.527
45.150,-0.541
45.155,-0.559
45.160,-0.574
45.165,-0.586
45.170,-0.604
45.175,-0.619
45.180,-0.619
45.185,-0.622
45.190,-0.636
45.195,-0.649
45.200,-0.650
45.205,-0.652
45.210,-0.652
45.215,-0.645
45.220,-0.644
45.225,-0.650
45.230,-0.642
45.235,-0.626
45.240,-0.621
45.245,-0.615
45.250,-0.599
45.255,-0.592
45.260,-0.588
45.265,-0.563
45.270,-0.534
45.275,-0.527
45.280,-0.524
45.285,-0.510
45.290,-0.494
45.295,-0.475
45.300,-0.463
45.305,-0.463
45.310,-0.458
45.315,-0.459
45.320,-0.467
45.325,-0.464
45.330,-0.459
45.335,-0.459
45.340,-0.459
45.345,-0.457
45.350,-0.451
45.355,-0.443
45.360,-0.441
45.365,-0.437
45.370,-0.424
45.375,-0.405
45.380,-0.388
45.385,-0.379
45.390,-0.370
45.395,-0.349
45.400,-0.328
45.405,-0.313
45.410,-0.287
45.415,-0.259
45.420,-0.253
45.425,-0.257
45.430,-0.260
45.435,-0.253
45.440,-0.192
45.445,-0.033
45.450,0.259
