'Elapsed time','ECG'
'seconds','mV'
0.000,-0.353
0.005,-0.879
0.010,-0.869
0.015,-0.700
0.020,-0.591
0.025,-0.396
0.030,-0.225
0.035,-0.001
0.040,0.201
0.045,0.299
0.050,0.386
0.055,0.423
0.060,0.363
0.065,0.332
0.070,0.331
0.075,0.279
0.080,0.235
0.085,0.218
0.090,0.163
0.095,0.101
0.100,0.090
0.105,0.059
0.110,-0.008
0.115,-0.013
0.120,0.005
0.125,-0.032
0.130,-0.047
0.135,-0.022
0.140,-0.040
0.145,-0.067
0.150,-0.042
0.155,-0.043
0.160,-0.085
0.165,-0.076
0.170,-0.056
0.175,-0.092
0.180,-0.106
0.185,-0.083
0.190,-0.106
0.195,-0.137
0.200,-0.111
0.205,-0.110
0.210,-0.150
0.215,-0.146
0.220,-0.131
0.225,-0.167
0.230,-0.181
0.235,-0.155
0.240,-0.175
0.245,-0.202
0.250,-0.176
0.255,-0.174
0.260,-0.211
0.265,-0.196
0.270,-0.171
0.275,-0.201
0.280,-0.206
0.285,-0.170
0.290,-0.181
0.295,-0.199
0.300,-0.160
0.305,-0.140
0.310,-0.155
0.315,-0.116
0.320,-0.062
0.325,-0.059
0.330,-0.030
0.335,0.039
0.340,0.059
0.345,0.067
0.350,0.125
0.355,0.155
0.360,0.141
0.365,0.170
0.370,0.207
0.375,0.187
0.380,0.185
0.385,0.221
0.390,0.206
0.395,0.179
0.400,0.205
0.405,0.206
0.410,0.166
0.415,0.173
0.420,0.191
0.425,0.154
0.430,0.138
0.435,0.164
0.440,0.145
0.445,0.114
0.450,0.136
0.455,0.135
0.460,0.095
0.465,0.103
0.470,0.122
0.475,0.087
0.480,0.073
0.485,0.100
0.490,0.081
0.495,0.051
0.500,0.076
0.505,0.078
0.510,0.040
0.515,0.051
0.520,0.075
0.525,0.044
0.530,0.035
0.535,0.066
0.540,0.050
0.545,0.022
0.550,0.048
0.555,0.051
0.560,0.015
0.565,0.026
0.570,0.049
0.575,0.017
0.580,0.007
0.585,0.038
0.590,0.022
0.595,-0.006
0.600,0.020
0.605,0.026
0.610,-0.010
0.615,-0.001
0.620,0.022
0.625,-0.009
0.630,-0.020
0.635,0.011
0.640,-0.004
0.645,-0.032
0.650,-0.005
0.655,0.001
0.660,-0.035
0.665,-0.025
0.670,0.000
0.675,-0.031
0.680,-0.042
0.685,-0.010
0.690,-0.024
0.695,-0.055
0.700,-0.036
0.705,-0.044
0.710,-0.098
0.715,-0.098
0.720,-0.073
0.725,-0.096
0.730,-0.098
0.735,-0.067
0.740,-0.094
0.745,-0.135
0.750,-0.116
0.755,-0.095
0.760,-0.096
0.765,-0.075
0.770,-0.054
0.775,-0.076
0.780,-0.076
0.785,-0.036
0.790,-0.037
0.795,-0.042
0.800,0.008
0.805,0.029
0.810,0.005
0.815,0.022
0.820,0.048
0.825,0.019
0.830,0.011
0.835,0.043
0.840,0.029
0.845,0.000
0.850,0.026
0.855,0.033
0.860,0.004
0.865,0.034
0.870,0.085
0.875,0.045
0.880,-0.052
0.885,-0.151
0.890,-0.306
0.895,-0.510
0.900,-0.667
0.905,-0.773
0.910,-0.814
0.915,-0.722
0.920,-0.546
0.925,-0.365
0.930,-0.173
0.935,0.050
0.940,0.244
0.945,0.360
0.950,0.464
0.955,0.502
0.960,0.432
0.965,0.396
0.970,0.404
0.975,0.348
0.980,0.285
0.985,0.272
0.990,0.224
0.995,0.151
1.000,0.131
1.005,0.101
1.010,0.040
1.015,0.040
1.020,0.060
1.025,0.025
1.030,0.007
1.035,0.034
1.040,0.016
1.045,-0.017
1.050,0.006
1.055,0.009
1.060,-0.031
1.065,-0.027
1.070,-0.008
1.075,-0.044
1.080,-0.062
1.085,-0.036
1.090,-0.055
1.095,-0.090
1.100,-0.072
1.105,-0.072
1.110,-0.115
1.115,-0.115
1.120,-0.098
1.125,-0.135
1.130,-0.154
1.135,-0.130
1.140,-0.150
1.145,-0.184
1.150,-0.163
1.155,-0.156
1.160,-0.192
1.165,-0.183
1.170,-0.156
1.175,-0.181
1.180,-0.189
1.185,-0.153
1.190,-0.159
1.195,-0.177
1.200,-0.139
1.205,-0.113
1.210,-0.125
1.215,-0.089
1.220,-0.032
1.225,-0.026
1.230,-0.003
1.235,0.065
1.240,0.087
1.245,0.091
1.250,0.146
1.255,0.181
1.260,0.169
1.265,0.196
1.270,0.235
1.275,0.215
1.280,0.207
1.285,0.243
1.290,0.232
1.295,0.201
1.300,0.222
1.305,0.226
1.310,0.183
1.315,0.183
1.320,0.200
1.325,0.163
1.330,0.144
1.335,0.168
1.340,0.151
1.345,0.117
1.350,0.136
1.355,0.139
1.360,0.097
1.365,0.101
1.370,0.122
1.375,0.088
1.380,0.071
1.385,0.105
1.390,0.097
1.395,0.068
1.400,0.087
1.405,0.087
1.410,0.046
1.415,0.058
1.420,0.090
1.425,0.058
1.430,0.034
1.435,0.056
1.440,0.047
1.445,0.030
1.450,0.058
1.455,0.062
1.460,0.022
1.465,0.025
1.470,0.049
1.475,0.021
1.480,0.002
1.485,0.026
1.490,0.017
1.495,-0.005
1.500,0.018
1.505,0.022
1.510,-0.016
1.515,-0.010
1.520,0.013
1.525,-0.016
1.530,-0.025
1.535,0.013
1.540,-0.002
1.545,-0.042
1.550,-0.027
1.555,-0.017
1.560,-0.042
1.565,-0.026
1.570,0.000
1.575,-0.039
1.580,-0.063
1.585,-0.025
1.590,-0.023
1.595,-0.053
1.600,-0.052
1.605,-0.075
1.610,-0.119
1.615,-0.094
1.620,-0.056
1.625,-0.092
1.630,-0.114
1.635,-0.085
1.640,-0.098
1.645,-0.139
1.650,-0.111
1.655,-0.084
1.660,-0.114
1.665,-0.089
1.670,-0.036
1.675,-0.054
1.680,-0.060
1.685,-0.021
1.690,-0.019
1.695,-0.030
1.700,0.011
1.705,0.038
1.710,0.012
1.715,0.022
1.720,0.048
1.725,0.016
1.730,0.003
1.735,0.038
1.740,0.030
1.745,0.002
1.750,0.022
1.755,0.026
1.760,0.000
1.765,0.038
1.770,0.071
1.775,-0.038
1.780,-0.186
1.785,-0.286
1.790,-0.455
1.795,-0.653
1.800,-0.721
1.805,-0.701
1.810,-0.664
1.815,-0.536
1.820,-0.337
1.825,-0.184
1.830,0.004
1.835,0.261
1.840,0.392
1.845,0.426
1.850,0.473
1.855,0.445
1.860,0.360
1.865,0.349
1.870,0.366
1.875,0.300
1.880,0.236
1.885,0.227
1.890,0.169
1.895,0.096
1.900,0.090
1.905,0.073
1.910,0.022
1.915,0.024
1.920,0.040
1.925,0.003
1.930,-0.013
1.935,0.015
1.940,-0.001
1.945,-0.027
1.950,0.003
1.955,0.004
1.960,-0.043
1.965,-0.044
1.970,-0.022
1.975,-0.053
1.980,-0.081
1.985,-0.058
1.990,-0.060
1.995,-0.094
2.000,-0.092
2.005,-0.101
2.010,-0.142
2.015,-0.128
2.020,-0.097
2.025,-0.130
2.030,-0.150
2.035,-0.132
2.040,-0.157
2.045,-0.195
2.050,-0.172
2.055,-0.155
2.060,-0.181
2.065,-0.170
2.070,-0.145
2.075,-0.165
2.080,-0.166
2.085,-0.146
2.090,-0.181
2.095,-0.201
2.100,-0.124
2.105,-0.065
2.110,-0.078
2.115,-0.059
2.120,-0.018
2.125,-0.022
2.130,0.004
2.135,0.084
2.140,0.114
2.145,0.112
2.150,0.162
2.155,0.196
2.160,0.173
2.165,0.188
2.170,0.227
2.175,0.216
2.180,0.208
2.185,0.224
2.190,0.205
2.195,0.186
2.200,0.210
2.205,0.213
2.210,0.177
2.215,0.175
2.220,0.184
2.225,0.146
2.230,0.125
2.235,0.153
2.240,0.151
2.245,0.118
2.250,0.118
2.255,0.123
2.260,0.101
2.265,0.102
2.270,0.110
2.275,0.070
2.280,0.057
2.285,0.096
2.290,0.086
2.295,0.057
2.300,0.072
2.305,0.070
2.310,0.043
2.315,0.064
2.320,0.084
2.325,0.040
2.330,0.023
2.335,0.062
2.340,0.047
2.345,0.001
2.350,0.030
2.355,0.066
2.360,0.038
2.365,0.033
2.370,0.047
2.375,0.014
2.380,0.005
2.385,0.041
2.390,0.026
2.395,-0.014
2.400,0.005
2.405,0.024
2.410,-0.001
2.415,0.004
2.420,0.023
2.425,-0.019
2.430,-0.037
2.435,0.005
2.440,-0.004
2.445,-0.038
2.450,-0.013
2.455,0.000
2.460,-0.038
2.465,-0.038
2.470,-0.010
2.475,-0.036
2.480,-0.052
2.485,-0.030
2.490,-0.053
2.495,-0.094
2.500,-0.077
2.505,-0.066
2.510,-0.100
2.515,-0.103
2.520,-0.083
2.525,-0.116
2.530,-0.140
2.535,-0.092
2.540,-0.068
2.545,-0.093
2.550,-0.073
2.555,-0.048
2.560,-0.070
2.565,-0.055
2.570,-0.016
2.575,-0.025
2.580,-0.019
2.585,0.031
2.590,0.036
2.595,0.005
2.600,0.021
2.605,0.031
2.610,-0.002
2.615,0.006
2.620,0.039
2.625,0.016
2.630,-0.002
2.635,0.025
2.640,0.023
2.645,0.010
2.650,0.058
2.655,0.056
2.660,-0.067
2.665,-0.186
2.670,-0.293
2.675,-0.496
2.680,-0.695
2.685,-0.759
2.690,-0.754
2.695,-0.689
2.700,-0.504
2.705,-0.300
2.710,-0.157
2.715,0.055
2.720,0.287
2.725,0.376
2.730,0.420
2.735,0.474
2.740,0.433
2.745,0.359
2.750,0.357
2.755,0.347
2.760,0.270
2.765,0.227
2.770,0.223
2.775,0.163
2.780,0.101
2.785,0.094
2.790,0.062
2.795,0.016
2.800,0.030
2.805,0.040
2.810,0.000
2.815,-0.005
2.820,0.019
2.825,-0.008
2.830,-0.028
2.835,-0.001
2.840,-0.012
2.845,-0.050
2.850,-0.037
2.855,-0.028
2.860,-0.069
2.865,-0.074
2.870,-0.053
2.875,-0.084
2.880,-0.106
2.885,-0.078
2.890,-0.091
2.895,-0.133
2.900,-0.119
2.905,-0.109
2.910,-0.147
2.915,-0.149
2.920,-0.124
2.925,-0.154
2.930,-0.176
2.935,-0.147
2.940,-0.151
2.945,-0.181
2.950,-0.158
2.955,-0.142
2.960,-0.175
2.965,-0.172
2.970,-0.140
2.975,-0.157
2.980,-0.164
2.985,-0.116
2.990,-0.100
2.995,-0.105
3.000,-0.051
3.005,0.000
3.010,0.000
3.015,0.037
3.020,0.100
3.025,0.110
3.030,0.120
3.035,0.177
3.040,0.195
3.045,0.181
3.050,0.213
3.055,0.235
3.060,0.205
3.065,0.209
3.070,0.238
3.075,0.213
3.080,0.190
3.085,0.216
3.090,0.207
3.095,0.171
3.100,0.185
3.105,0.194
3.110,0.155
3.115,0.152
3.120,0.176
3.125,0.146
3.130,0.120
3.135,0.146
3.140,0.136
3.145,0.097
3.150,0.110
3.155,0.120
3.160,0.081
3.165,0.078
3.170,0.103
3.175,0.076
3.180,0.052
3.185,0.080
3.190,0.074
3.195,0.038
3.200,0.055
3.205,0.070
3.210,0.035
3.215,0.036
3.220,0.066
3.225,0.042
3.230,0.017
3.235,0.045
3.240,0.041
3.245,0.006
3.250,0.025
3.255,0.042
3.260,0.006
3.265,0.005
3.270,0.034
3.275,0.010
3.280,-0.011
3.285,0.018
3.290,0.012
3.295,-0.022
3.300,-0.003
3.305,0.013
3.310,-0.022
3.315,-0.023
3.320,0.006
3.325,-0.016
3.330,-0.037
3.335,-0.007
3.340,-0.011
3.345,-0.045
3.350,-0.027
3.355,-0.010
3.360,-0.044
3.365,-0.045
3.370,-0.016
3.375,-0.044
3.380,-0.074
3.385,-0.060
3.390,-0.080
3.395,-0.117
3.400,-0.093
3.405,-0.068
3.410,-0.098
3.415,-0.105
3.420,-0.090
3.425,-0.124
3.430,-0.146
3.435,-0.089
3.440,-0.064
3.445,-0.097
3.450,-0.078
3.455,-0.053
3.460,-0.078
3.465,-0.068
3.470,-0.021
3.475,-0.018
3.480,-0.018
3.485,0.025
3.490,0.032
3.495,0.003
3.500,0.022
3.505,0.042
3.510,0.008
3.515,0.006
3.520,0.035
3.525,0.013
3.530,-0.008
3.535,0.022
3.540,0.031
3.545,0.024
3.550,0.062
3.555,0.041
3.560,-0.103
3.565,-0.238
3.570,-0.362
3.575,-0.572
3.580,-0.758
3.585,-0.797
3.590,-0.766
3.595,-0.691
3.600,-0.485
3.605,-0.248
3.610,-0.092
3.615,0.110
3.620,0.329
3.625,0.420
3.630,0.457
3.635,0.488
3.640,0.437
3.645,0.369
3.650,0.373
3.655,0.354
3.660,0.267
3.665,0.227
3.670,0.220
3.675,0.151
3.680,0.086
3.685,0.082
3.690,0.061
3.695,0.021
3.700,0.034
3.705,0.046
3.710,0.007
3.715,0.000
3.720,0.025
3.725,-0.001
3.730,-0.027
3.735,-0.001
3.740,-0.008
3.745,-0.048
3.750,-0.035
3.755,-0.022
3.760,-0.062
3.765,-0.071
3.770,-0.048
3.775,-0.078
3.780,-0.107
3.785,-0.084
3.790,-0.093
3.795,-0.135
3.800,-0.126
3.805,-0.116
3.810,-0.156
3.815,-0.165
3.820,-0.141
3.825,-0.166
3.830,-0.191
3.835,-0.163
3.840,-0.163
3.845,-0.195
3.850,-0.175
3.855,-0.153
3.860,-0.181
3.865,-0.179
3.870,-0.142
3.875,-0.153
3.880,-0.161
3.885,-0.112
3.890,-0.088
3.895,-0.092
3.900,-0.042
3.905,0.012
3.910,0.015
3.915,0.048
3.920,0.112
3.925,0.123
3.930,0.130
3.935,0.185
3.940,0.206
3.945,0.188
3.950,0.217
3.955,0.245
3.960,0.216
3.965,0.214
3.970,0.244
3.975,0.220
3.980,0.193
3.985,0.218
3.990,0.212
3.995,0.170
4.000,0.180
4.005,0.191
4.010,0.151
4.015,0.141
4.020,0.165
4.025,0.138
4.030,0.111
4.035,0.137
4.040,0.131
4.045,0.091
4.050,0.103
4.055,0.118
4.060,0.080
4.065,0.074
4.070,0.102
4.075,0.079
4.080,0.054
4.085,0.082
4.090,0.080
4.095,0.044
4.100,0.059
4.105,0.077
4.110,0.040
4.115,0.032
4.120,0.060
4.125,0.039
4.130,0.016
4.135,0.046
4.140,0.047
4.145,0.007
4.150,0.016
4.155,0.035
4.160,0.007
4.165,0.005
4.170,0.033
4.175,0.010
4.180,-0.017
4.185,0.014
4.190,0.019
4.195,-0.016
4.200,-0.006
4.205,0.009
4.210,-0.025
4.215,-0.028
4.220,0.006
4.225,-0.012
4.230,-0.036
4.235,-0.010
4.240,-0.015
4.245,-0.051
4.250,-0.034
4.255,-0.011
4.260,-0.039
4.265,-0.043
4.270,-0.025
4.275,-0.062
4.280,-0.098
4.285,-0.072
4.290,-0.068
4.295,-0.106
4.300,-0.093
4.305,-0.069
4.310,-0.105
4.315,-0.131
4.320,-0.127
4.325,-0.139
4.330,-0.110
4.335,-0.049
4.340,-0.055
4.345,-0.095
4.350,-0.075
4.355,-0.044
4.360,-0.061
4.365,-0.046
4.370,0.011
4.375,0.013
4.380,0.002
4.385,0.036
4.390,0.038
4.395,0.005
4.400,0.024
4.405,0.047
4.410,0.002
4.415,-0.019
4.420,0.021
4.425,0.026
4.430,0.017
4.435,0.054
4.440,0.062
4.445,0.020
4.450,-0.020
4.455,-0.104
4.460,-0.265
4.465,-0.435
4.470,-0.577
4.475,-0.699
4.480,-0.742
4.485,-0.678
4.490,-0.585
4.495,-0.435
4.500,-0.204
4.505,0.025
4.510,0.219
4.515,0.357
4.520,0.440
4.525,0.452
4.530,0.416
4.535,0.405
4.540,0.376
4.545,0.321
4.550,0.303
4.555,0.277
4.560,0.202
4.565,0.157
4.570,0.154
4.575,0.102
4.580,0.037
4.585,0.045
4.590,0.049
4.595,0.009
4.600,0.013
4.605,0.029
4.610,-0.011
4.615,-0.020
4.620,0.015
4.625,0.000
4.630,-0.037
4.635,-0.030
4.640,-0.032
4.645,-0.058
4.650,-0.038
4.655,-0.021
4.660,-0.069
4.665,-0.093
4.670,-0.070
4.675,-0.091
4.680,-0.124
4.685,-0.099
4.690,-0.093
4.695,-0.129
4.700,-0.127
4.705,-0.120
4.710,-0.157
4.715,-0.169
4.720,-0.154
4.725,-0.177
4.730,-0.191
4.735,-0.152
4.740,-0.140
4.745,-0.165
4.750,-0.157
4.755,-0.151
4.760,-0.185
4.765,-0.183
4.770,-0.142
4.775,-0.130
4.780,-0.129
4.785,-0.088
4.790,-0.049
4.795,-0.045
4.800,-0.012
4.805,0.033
4.810,0.039
4.815,0.077
4.820,0.146
4.825,0.152
4.830,0.147
4.835,0.201
4.840,0.220
4.845,0.187
4.850,0.201
4.855,0.229
4.860,0.202
4.865,0.198
4.870,0.234
4.875,0.215
4.880,0.182
4.885,0.202
4.890,0.196
4.895,0.144
4.900,0.140
4.905,0.166
4.910,0.146
4.915,0.139
4.920,0.163
4.925,0.134
4.930,0.098
4.935,0.112
4.940,0.107
4.945,0.077
4.950,0.095
4.955,0.116
4.960,0.074
4.965,0.060
4.970,0.099
4.975,0.084
4.980,0.040
4.985,0.052
4.990,0.066
4.995,0.043
5.000,0.059
5.005,0.084
5.010,0.037
5.015,0.014
5.020,0.058
5.025,0.053
5.030,0.013
5.035,0.023
5.040,0.036
5.045,0.021
5.050,0.031
5.055,0.038
5.060,0.005
5.065,-0.001
5.070,0.025
5.075,0.001
5.080,-0.028
5.085,0.005
5.090,0.011
5.095,-0.024
5.100,-0.005
5.105,0.014
5.110,-0.030
5.115,-0.027
5.120,0.021
5.125,-0.007
5.130,-0.047
5.135,-0.017
5.140,-0.008
5.145,-0.043
5.150,-0.039
5.155,-0.019
5.160,-0.057
5.165,-0.082
5.170,-0.059
5.175,-0.073
5.180,-0.092
5.185,-0.059
5.190,-0.067
5.195,-0.122
5.200,-0.117
5.205,-0.101
5.210,-0.133
5.215,-0.110
5.220,-0.050
5.225,-0.056
5.230,-0.073
5.235,-0.045
5.240,-0.037
5.245,-0.057
5.250,-0.025
5.255,0.020
5.260,0.003
5.265,-0.005
5.270,0.033
5.275,0.037
5.280,0.016
5.285,0.027
5.290,0.030
5.295,0.005
5.300,0.012
5.305,0.028
5.310,0.001
5.315,0.000
5.320,0.050
5.325,0.064
5.330,0.025
5.335,-0.033
5.340,-0.145
5.345,-0.313
5.350,-0.478
5.355,-0.636
5.360,-0.773
5.365,-0.779
5.370,-0.646
5.375,-0.498
5.380,-0.344
5.385,-0.142
5.390,0.068
5.395,0.241
5.400,0.368
5.405,0.445
5.410,0.440
5.415,0.400
5.420,0.392
5.425,0.358
5.430,0.308
5.435,0.295
5.440,0.256
5.445,0.188
5.450,0.166
5.455,0.144
5.460,0.068
5.465,0.025
5.470,0.043
5.475,0.026
5.480,-0.002
5.485,0.021
5.490,0.017
5.495,-0.029
5.500,-0.021
5.505,0.005
5.510,-0.027
5.515,-0.042
5.520,-0.020
5.525,-0.044
5.530,-0.081
5.535,-0.057
5.540,-0.048
5.545,-0.088
5.550,-0.084
5.555,-0.063
5.560,-0.102
5.565,-0.123
5.570,-0.095
5.575,-0.112
5.580,-0.150
5.585,-0.135
5.590,-0.131
5.595,-0.164
5.600,-0.155
5.605,-0.132
5.610,-0.163
5.615,-0.178
5.620,-0.151
5.625,-0.164
5.630,-0.188
5.635,-0.158
5.640,-0.145
5.645,-0.180
5.650,-0.172
5.655,-0.141
5.660,-0.153
5.665,-0.138
5.670,-0.076
5.675,-0.055
5.680,-0.048
5.685,0.013
5.690,0.054
5.695,0.052
5.700,0.095
5.705,0.152
5.710,0.146
5.715,0.153
5.720,0.201
5.725,0.201
5.730,0.181
5.735,0.214
5.740,0.226
5.745,0.195
5.750,0.208
5.755,0.232
5.760,0.195
5.765,0.176
5.770,0.204
5.775,0.188
5.780,0.157
5.785,0.177
5.790,0.178
5.795,0.136
5.800,0.140
5.805,0.159
5.810,0.123
5.815,0.103
5.820,0.131
5.825,0.116
5.830,0.082
5.835,0.098
5.840,0.100
5.845,0.061
5.850,0.071
5.855,0.097
5.860,0.064
5.865,0.048
5.870,0.076
5.875,0.060
5.880,0.028
5.885,0.052
5.890,0.063
5.895,0.030
5.900,0.038
5.905,0.062
5.910,0.032
5.915,0.018
5.920,0.048
5.925,0.036
5.930,0.005
5.935,0.028
5.940,0.035
5.945,0.000
5.950,0.007
5.955,0.032
5.960,0.003
5.965,-0.013
5.970,0.017
5.975,0.005
5.980,-0.025
5.985,0.000
5.990,0.012
5.995,-0.022
6.000,-0.014
6.005,0.011
6.010,-0.019
6.015,-0.034
6.020,-0.003
6.025,-0.016
6.030,-0.047
6.035,-0.023
6.040,-0.014
6.045,-0.055
6.050,-0.055
6.055,-0.042
6.060,-0.088
6.065,-0.109
6.070,-0.074
6.075,-0.078
6.080,-0.104
6.085,-0.085
6.090,-0.090
6.095,-0.136
6.100,-0.131
6.105,-0.082
6.110,-0.080
6.115,-0.090
6.120,-0.057
6.125,-0.058
6.130,-0.079
6.135,-0.044
6.140,-0.018
6.145,-0.031
6.150,-0.003
6.155,0.037
6.160,0.019
6.165,0.007
6.170,0.040
6.175,0.031
6.180,0.001
6.185,0.024
6.190,0.035
6.195,-0.001
6.200,0.004
6.205,0.033
6.210,0.016
6.215,0.027
6.220,0.079
6.225,0.030
6.230,-0.109
6.235,-0.218
6.240,-0.362
6.245,-0.587
6.250,-0.747
6.255,-0.788
6.260,-0.782
6.265,-0.689
6.270,-0.470
6.275,-0.258
6.280,-0.101
6.285,0.119
6.290,0.318
6.295,0.398
6.300,0.461
6.305,0.493
6.310,0.420
6.315,0.366
6.320,0.382
6.325,0.340
6.330,0.259
6.335,0.243
6.340,0.219
6.345,0.139
6.350,0.102
6.355,0.094
6.360,0.043
6.365,0.020
6.370,0.047
6.375,0.031
6.380,-0.005
6.385,0.013
6.390,0.021
6.395,-0.018
6.400,-0.017
6.405,0.005
6.410,-0.027
6.415,-0.048
6.420,-0.022
6.425,-0.037
6.430,-0.075
6.435,-0.058
6.440,-0.052
6.445,-0.094
6.450,-0.096
6.455,-0.077
6.460,-0.112
6.465,-0.134
6.470,-0.110
6.475,-0.127
6.480,-0.166
6.485,-0.148
6.490,-0.141
6.495,-0.180
6.500,-0.178
6.505,-0.152
6.510,-0.179
6.515,-0.192
6.520,-0.158
6.525,-0.163
6.530,-0.189
6.535,-0.160
6.540,-0.141
6.545,-0.166
6.550,-0.147
6.555,-0.100
6.560,-0.102
6.565,-0.087
6.570,-0.023
6.575,0.004
6.580,0.010
6.585,0.069
6.590,0.116
6.595,0.112
6.600,0.146
6.605,0.198
6.610,0.191
6.615,0.191
6.620,0.234
6.625,0.234
6.630,0.206
6.635,0.230
6.640,0.241
6.645,0.203
6.650,0.203
6.655,0.225
6.660,0.193
6.665,0.171
6.670,0.196
6.675,0.181
6.680,0.143
6.685,0.159
6.690,0.165
6.695,0.123
6.700,0.123
6.705,0.145
6.710,0.113
6.715,0.091
6.720,0.118
6.725,0.105
6.730,0.069
6.735,0.089
6.740,0.099
6.745,0.061
6.750,0.063
6.755,0.088
6.760,0.060
6.765,0.042
6.770,0.073
6.775,0.064
6.780,0.031
6.785,0.052
6.790,0.063
6.795,0.027
6.800,0.030
6.805,0.058
6.810,0.030
6.815,0.012
6.820,0.043
6.825,0.034
6.830,0.001
6.835,0.022
6.840,0.034
6.845,-0.002
6.850,0.000
6.855,0.026
6.860,-0.001
6.865,-0.019
6.870,0.013
6.875,0.005
6.880,-0.028
6.885,-0.007
6.890,0.006
6.895,-0.030
6.900,-0.028
6.905,-0.001
6.910,-0.028
6.915,-0.046
6.920,-0.015
6.925,-0.022
6.930,-0.054
6.935,-0.034
6.940,-0.027
6.945,-0.077
6.950,-0.092
6.955,-0.075
6.960,-0.099
6.965,-0.109
6.970,-0.069
6.975,-0.076
6.980,-0.123
6.985,-0.116
6.990,-0.109
6.995,-0.127
7.000,-0.090
7.005,-0.052
7.010,-0.081
7.015,-0.090
7.020,-0.048
7.025,-0.046
7.030,-0.066
7.035,-0.022
7.040,0.016
7.045,-0.003
7.050,0.010
7.055,0.042
7.060,0.017
7.065,0.000
7.070,0.032
7.075,0.024
7.080,-0.010
7.085,0.011
7.090,0.024
7.095,-0.010
7.100,0.003
7.105,0.054
7.110,0.055
7.115,0.028
7.120,-0.021
7.125,-0.145
7.130,-0.309
7.135,-0.462
7.140,-0.629
7.145,-0.774
7.150,-0.783
7.155,-0.684
7.160,-0.573
7.165,-0.393
7.170,-0.158
7.175,0.035
7.180,0.216
7.185,0.378
7.190,0.459
7.195,0.459
7.200,0.431
7.205,0.410
7.210,0.363
7.215,0.320
7.220,0.302
7.225,0.253
7.230,0.187
7.235,0.164
7.240,0.136
7.245,0.065
7.250,0.037
7.255,0.053
7.260,0.027
7.265,0.002
7.270,0.024
7.275,0.012
7.280,-0.026
7.285,-0.011
7.290,-0.001
7.295,-0.037
7.300,-0.036
7.305,-0.007
7.310,-0.034
7.315,-0.063
7.320,-0.046
7.325,-0.055
7.330,-0.085
7.335,-0.068
7.340,-0.064
7.345,-0.112
7.350,-0.122
7.355,-0.102
7.360,-0.134
7.365,-0.154
7.370,-0.121
7.375,-0.131
7.380,-0.174
7.385,-0.157
7.390,-0.146
7.395,-0.197
7.400,-0.203
7.405,-0.154
7.410,-0.159
7.415,-0.174
7.420,-0.151
7.425,-0.167
7.430,-0.198
7.435,-0.162
7.440,-0.130
7.445,-0.149
7.450,-0.128
7.455,-0.065
7.460,-0.048
7.465,-0.033
7.470,0.025
7.475,0.048
7.480,0.051
7.485,0.110
7.490,0.150
7.495,0.127
7.500,0.154
7.505,0.219
7.510,0.215
7.515,0.206
7.520,0.247
7.525,0.241
7.530,0.193
7.535,0.204
7.540,0.234
7.545,0.208
7.550,0.197
7.555,0.220
7.560,0.189
7.565,0.149
7.570,0.169
7.575,0.171
7.580,0.137
7.585,0.145
7.590,0.157
7.595,0.125
7.600,0.118
7.605,0.137
7.610,0.110
7.615,0.078
7.620,0.094
7.625,0.096
7.630,0.074
7.635,0.092
7.640,0.106
7.645,0.071
7.650,0.062
7.655,0.079
7.660,0.055
7.665,0.035
7.670,0.066
7.675,0.066
7.680,0.035
7.685,0.053
7.690,0.067
7.695,0.029
7.700,0.030
7.705,0.062
7.710,0.031
7.715,0.010
7.720,0.047
7.725,0.044
7.730,0.006
7.735,0.013
7.740,0.021
7.745,-0.011
7.750,0.000
7.755,0.040
7.760,0.004
7.765,-0.036
7.770,-0.001
7.775,0.018
7.780,-0.005
7.785,0.001
7.790,-0.001
7.795,-0.041
7.800,-0.031
7.805,0.012
7.810,-0.015
7.815,-0.048
7.820,-0.023
7.825,-0.041
7.830,-0.096
7.835,-0.080
7.840,-0.057
7.845,-0.088
7.850,-0.082
7.855,-0.062
7.860,-0.112
7.865,-0.141
7.870,-0.099
7.875,-0.082
7.880,-0.098
7.885,-0.073
7.890,-0.047
7.895,-0.078
7.900,-0.070
7.905,-0.019
7.910,-0.027
7.915,-0.036
7.920,0.004
7.925,0.015
7.930,0.004
7.935,0.034
7.940,0.056
7.945,0.022
7.950,0.009
7.955,0.030
7.960,0.012
7.965,0.003
7.970,0.028
7.975,0.010
7.980,-0.017
7.985,0.039
7.990,0.091
7.995,0.031
8.000,-0.066
8.005,-0.155
8.010,-0.313
8.015,-0.513
8.020,-0.646
8.025,-0.721
8.030,-0.745
8.035,-0.651
8.040,-0.484
8.045,-0.344
8.050,-0.168
8.055,0.093
8.060,0.278
8.065,0.354
8.070,0.436
8.075,0.459
8.080,0.398
8.085,0.374
8.090,0.371
8.095,0.312
8.100,0.271
8.105,0.269
8.110,0.207
8.115,0.125
8.120,0.111
8.125,0.087
8.130,0.023
8.135,0.024
8.140,0.051
8.145,0.017
8.150,-0.002
8.155,0.012
8.160,-0.018
8.165,-0.036
8.170,-0.004
8.175,-0.013
8.180,-0.050
8.185,-0.034
8.190,-0.025
8.195,-0.069
8.200,-0.082
8.205,-0.060
8.210,-0.082
8.215,-0.105
8.220,-0.077
8.225,-0.085
8.230,-0.128
8.235,-0.113
8.240,-0.095
8.245,-0.146
8.250,-0.165
8.255,-0.127
8.260,-0.141
8.265,-0.172
8.270,-0.152
8.275,-0.154
8.280,-0.185
8.285,-0.170
8.290,-0.156
8.295,-0.185
8.300,-0.178
8.305,-0.145
8.310,-0.165
8.315,-0.180
8.320,-0.137
8.325,-0.121
8.330,-0.137
8.335,-0.098
8.340,-0.043
8.345,-0.033
8.350,0.003
8.355,0.068
8.360,0.074
8.365,0.081
8.370,0.146
8.375,0.174
8.380,0.161
8.385,0.194
8.390,0.222
8.395,0.192
8.400,0.196
8.405,0.238
8.410,0.224
8.415,0.199
8.420,0.221
8.425,0.214
8.430,0.176
8.435,0.189
8.440,0.201
8.445,0.159
8.450,0.148
8.455,0.174
8.460,0.148
8.465,0.117
8.470,0.142
8.475,0.139
8.480,0.099
8.485,0.111
8.490,0.128
8.495,0.090
8.500,0.074
8.505,0.093
8.510,0.070
8.515,0.046
8.520,0.074
8.525,0.080
8.530,0.051
8.535,0.059
8.540,0.071
8.545,0.040
8.550,0.036
8.555,0.064
8.560,0.041
8.565,0.015
8.570,0.042
8.575,0.042
8.580,0.008
8.585,0.028
8.590,0.051
8.595,0.014
8.600,0.001
8.605,0.028
8.610,0.013
8.615,-0.004
8.620,0.026
8.625,0.022
8.630,-0.015
8.635,0.002
8.640,0.021
8.645,-0.019
8.650,-0.028
8.655,0.003
8.660,-0.011
8.665,-0.031
8.670,-0.003
8.675,-0.006
8.680,-0.044
8.685,-0.031
8.690,-0.009
8.695,-0.037
8.700,-0.042
8.705,-0.019
8.710,-0.051
8.715,-0.095
8.720,-0.079
8.725,-0.078
8.730,-0.106
8.735,-0.082
8.740,-0.059
8.745,-0.103
8.750,-0.124
8.755,-0.103
8.760,-0.117
8.765,-0.114
8.770,-0.066
8.775,-0.061
8.780,-0.087
8.785,-0.062
8.790,-0.033
8.795,-0.056
8.800,-0.045
8.805,0.009
8.810,0.009
8.815,-0.003
8.820,0.034
8.825,0.040
8.830,0.006
8.835,0.018
8.840,0.038
8.845,0.007
8.850,0.000
8.855,0.033
8.860,0.018
8.865,-0.006
8.870,0.035
8.875,0.066
8.880,0.037
8.885,-0.013
8.890,-0.110
8.895,-0.276
8.900,-0.450
8.905,-0.607
8.910,-0.756
8.915,-0.809
8.920,-0.715
8.925,-0.580
8.930,-0.411
8.935,-0.190
8.940,0.014
8.945,0.189
8.950,0.336
8.955,0.444
8.960,0.469
8.965,0.427
8.970,0.406
8.975,0.380
8.980,0.326
8.985,0.301
8.990,0.273
8.995,0.206
9.000,0.164
9.005,0.154
9.010,0.097
9.015,0.038
9.020,0.047
9.025,0.046
9.030,0.007
9.035,0.014
9.040,0.031
9.045,-0.006
9.050,-0.018
9.055,0.009
9.060,-0.012
9.065,-0.042
9.070,-0.019
9.075,-0.021
9.080,-0.064
9.085,-0.058
9.090,-0.041
9.095,-0.077
9.100,-0.092
9.105,-0.067
9.110,-0.091
9.115,-0.125
9.120,-0.103
9.125,-0.105
9.130,-0.149
9.135,-0.145
9.140,-0.129
9.145,-0.166
9.150,-0.178
9.155,-0.149
9.160,-0.166
9.165,-0.194
9.170,-0.166
9.175,-0.159
9.180,-0.191
9.185,-0.174
9.190,-0.146
9.195,-0.171
9.200,-0.171
9.205,-0.128
9.210,-0.128
9.215,-0.132
9.220,-0.077
9.225,-0.040
9.230,-0.041
9.235,0.007
9.240,0.066
9.245,0.071
9.250,0.096
9.255,0.159
9.260,0.170
9.265,0.166
9.270,0.212
9.275,0.231
9.280,0.205
9.285,0.221
9.290,0.247
9.295,0.216
9.300,0.206
9.305,0.235
9.310,0.214
9.315,0.182
9.320,0.204
9.325,0.203
9.330,0.161
9.335,0.167
9.340,0.182
9.345,0.144
9.350,0.128
9.355,0.153
9.360,0.131
9.365,0.098
9.370,0.120
9.375,0.120
9.380,0.079
9.385,0.086
9.390,0.106
9.395,0.073
9.400,0.060
9.405,0.088
9.410,0.071
9.415,0.043
9.420,0.068
9.425,0.073
9.430,0.037
9.435,0.047
9.440,0.069
9.445,0.038
9.450,0.028
9.455,0.058
9.460,0.042
9.465,0.014
9.470,0.041
9.475,0.046
9.480,0.009
9.485,0.018
9.490,0.040
9.495,0.007
9.500,-0.004
9.505,0.026
9.510,0.011
9.515,-0.018
9.520,0.007
9.525,0.013
9.530,-0.023
9.535,-0.013
9.540,0.010
9.545,-0.020
9.550,-0.031
9.555,0.000
9.560,-0.015
9.565,-0.043
9.570,-0.017
9.575,-0.011
9.580,-0.047
9.585,-0.037
9.590,-0.012
9.595,-0.044
9.600,-0.059
9.605,-0.039
9.610,-0.072
9.615,-0.113
9.620,-0.088
9.625,-0.076
9.630,-0.104
9.635,-0.091
9.640,-0.078
9.645,-0.125
9.650,-0.146
9.655,-0.106
9.660,-0.087
9.665,-0.095
9.670,-0.071
9.675,-0.059
9.680,-0.086
9.685,-0.068
9.690,-0.030
9.695,-0.038
9.700,-0.025
9.705,0.024
9.710,0.023
9.715,0.002
9.720,0.030
9.725,0.039
9.730,0.005
9.735,0.015
9.740,0.040
9.745,0.010
9.750,-0.002
9.755,0.030
9.760,0.020
9.765,0.005
9.770,0.059
9.775,0.078
9.780,-0.015
9.785,-0.125
9.790,-0.236
9.795,-0.428
9.800,-0.624
9.805,-0.730
9.810,-0.780
9.815,-0.753
9.820,-0.605
9.825,-0.402
9.830,-0.230
9.835,-0.039
9.840,0.192
9.845,0.332
9.850,0.412
9.855,0.492
9.860,0.465
9.865,0.386
9.870,0.384
9.875,0.374
9.880,0.293
9.885,0.251
9.890,0.243
9.895,0.175
9.900,0.115
9.905,0.105
9.910,0.063
9.915,0.020
9.920,0.040
9.925,0.042
9.930,0.001
9.935,0.004
9.940,0.025
9.945,-0.008
9.950,-0.025
9.955,0.002
9.960,-0.015
9.965,-0.049
9.970,-0.029
9.975,-0.025
9.980,-0.066
9.985,-0.065
9.990,-0.046
9.995,-0.082
10.000,-0.103
10.005,-0.079
10.010,-0.097
10.015,-0.133
10.020,-0.114
10.025,-0.114
10.030,-0.158
10.035,-0.158
10.040,-0.139
10.045,-0.174
10.050,-0.189
10.055,-0.160
10.060,-0.175
10.065,-0.205
10.070,-0.179
10.075,-0.166
10.080,-0.196
10.085,-0.181
10.090,-0.146
10.095,-0.163
10.100,-0.165
10.105,-0.119
10.110,-0.107
10.115,-0.106
10.120,-0.049
10.125,-0.007
10.130,-0.010
10.135,0.032
10.140,0.094
10.145,0.101
10.150,0.122
10.155,0.186
10.160,0.201
10.165,0.185
10.170,0.213
10.175,0.229
10.180,0.211
10.185,0.236
10.190,0.268
10.195,0.225
10.200,0.190
10.205,0.227
10.210,0.233
10.215,0.201
10.220,0.206
10.225,0.192
10.230,0.146
10.235,0.159
10.240,0.187
10.245,0.150
10.250,0.117
10.255,0.127
10.260,0.112
10.265,0.096
10.270,0.131
10.275,0.138
10.280,0.085
10.285,0.073
10.290,0.099
10.295,0.077
10.300,0.063
10.305,0.093
10.310,0.079
10.315,0.041
10.320,0.061
10.325,0.078
10.330,0.051
10.335,0.054
10.340,0.068
10.345,0.038
10.350,0.024
10.355,0.049
10.360,0.039
10.365,0.021
10.370,0.050
10.375,0.048
10.380,-0.001
10.385,0.007
10.390,0.045
10.395,0.022
10.400,0.001
10.405,0.029
10.410,0.020
10.415,-0.014
10.420,0.001
10.425,0.009
10.430,-0.026
10.435,-0.021
10.440,0.008
10.445,-0.006
10.450,-0.012
10.455,0.011
10.460,-0.016
10.465,-0.056
10.470,-0.027
10.475,-0.007
10.480,-0.033
10.485,-0.030
10.490,-0.021
10.495,-0.071
10.500,-0.098
10.505,-0.064
10.510,-0.074
10.515,-0.107
10.520,-0.073
10.525,-0.062
10.530,-0.118
10.535,-0.140
10.540,-0.129
10.545,-0.123
10.550,-0.087
10.555,-0.039
10.560,-0.048
10.565,-0.080
10.570,-0.050
10.575,-0.026
10.580,-0.055
10.585,-0.033
10.590,0.017
10.595,0.002
10.600,0.000
10.605,0.045
10.610,0.041
10.615,0.019
10.620,0.043
10.625,0.037
10.630,-0.010
10.635,-0.001
10.640,0.034
10.645,0.010
10.650,0.000
10.655,0.045
10.660,0.057
10.665,0.015
10.670,-0.047
10.675,-0.157
10.680,-0.328
10.685,-0.505
10.690,-0.656
10.695,-0.763
10.700,-0.750
10.705,-0.621
10.710,-0.480
10.715,-0.341
10.720,-0.142
10.725,0.095
10.730,0.256
10.735,0.354
10.740,0.451
10.745,0.465
10.750,0.406
10.755,0.384
10.760,0.362
10.765,0.307
10.770,0.281
10.775,0.257
10.780,0.192
10.785,0.152
10.790,0.139
10.795,0.077
10.800,0.029
10.805,0.051
10.810,0.037
10.815,-0.011
10.820,-0.001
10.825,0.004
10.830,-0.024
10.835,-0.001
10.840,0.025
10.845,-0.027
10.850,-0.058
10.855,-0.015
10.860,-0.018
10.865,-0.069
10.870,-0.067
10.875,-0.055
10.880,-0.083
10.885,-0.085
10.890,-0.078
10.895,-0.117
10.900,-0.127
10.905,-0.088
10.910,-0.106
10.915,-0.158
10.920,-0.148
10.925,-0.132
10.930,-0.162
10.935,-0.163
10.940,-0.137
10.945,-0.160
10.950,-0.178
10.955,-0.159
10.960,-0.169
10.965,-0.181
10.970,-0.151
10.975,-0.145
10.980,-0.177
10.985,-0.168
10.990,-0.134
10.995,-0.135
11.000,-0.117
11.005,-0.054
11.010,-0.029
11.015,-0.039
11.020,0.004
11.025,0.060
11.030,0.072
11.035,0.107
11.040,0.160
11.045,0.153
11.050,0.162
11.055,0.224
11.060,0.229
11.065,0.197
11.070,0.222
11.075,0.242
11.080,0.207
11.085,0.196
11.090,0.219
11.095,0.206
11.100,0.187
11.105,0.215
11.110,0.211
11.115,0.164
11.120,0.167
11.125,0.172
11.130,0.131
11.135,0.129
11.140,0.161
11.145,0.134
11.150,0.095
11.155,0.115
11.160,0.118
11.165,0.086
11.170,0.092
11.175,0.097
11.180,0.066
11.185,0.068
11.190,0.094
11.195,0.066
11.200,0.045
11.205,0.080
11.210,0.076
11.215,0.037
11.220,0.051
11.225,0.061
11.230,0.027
11.235,0.032
11.240,0.054
11.245,0.024
11.250,0.011
11.255,0.047
11.260,0.042
11.265,0.005
11.270,0.017
11.275,0.027
11.280,0.002
11.285,0.012
11.290,0.031
11.295,-0.003
11.300,-0.024
11.305,0.007
11.310,0.003
11.315,-0.026
11.320,-0.005
11.325,0.009
11.330,-0.025
11.335,-0.024
11.340,0.004
11.345,-0.022
11.350,-0.044
11.355,-0.018
11.360,-0.027
11.365,-0.059
11.370,-0.033
11.375,-0.015
11.380,-0.059
11.385,-0.077
11.390,-0.067
11.395,-0.097
11.400,-0.111
11.405,-0.068
11.410,-0.067
11.415,-0.112
11.420,-0.108
11.425,-0.102
11.430,-0.140
11.435,-0.117
11.440,-0.058
11.445,-0.076
11.450,-0.096
11.455,-0.061
11.460,-0.054
11.465,-0.070
11.470,-0.032
11.475,0.006
11.480,-0.015
11.485,-0.002
11.490,0.045
11.495,0.027
11.500,0.004
11.505,0.031
11.510,0.022
11.515,-0.010
11.520,0.015
11.525,0.033
11.530,-0.008
11.535,-0.010
11.540,0.035
11.545,0.039
11.550,0.031
11.555,0.012
11.560,-0.100
11.565,-0.257
11.570,-0.392
11.575,-0.561
11.580,-0.744
11.585,-0.793
11.590,-0.711
11.595,-0.610
11.600,-0.443
11.605,-0.219
11.610,-0.045
11.615,0.136
11.620,0.327
11.625,0.426
11.630,0.433
11.635,0.426
11.640,0.415
11.645,0.361
11.650,0.322
11.655,0.323
11.660,0.273
11.665,0.199
11.670,0.186
11.675,0.161
11.680,0.085
11.685,0.049
11.690,0.053
11.695,0.019
11.700,-0.005
11.705,0.021
11.710,0.013
11.715,-0.022
11.720,-0.007
11.725,0.006
11.730,-0.032
11.735,-0.039
11.740,-0.015
11.745,-0.042
11.750,-0.068
11.755,-0.044
11.760,-0.053
11.765,-0.094
11.770,-0.083
11.775,-0.070
11.780,-0.108
11.785,-0.117
11.790,-0.096
11.795,-0.124
11.800,-0.150
11.805,-0.124
11.810,-0.132
11.815,-0.170
11.820,-0.157
11.825,-0.144
11.830,-0.179
11.835,-0.181
11.840,-0.149
11.845,-0.169
11.850,-0.190
11.855,-0.158
11.860,-0.155
11.865,-0.184
11.870,-0.159
11.875,-0.129
11.880,-0.146
11.885,-0.129
11.890,-0.074
11.895,-0.065
11.900,-0.052
11.905,0.013
11.910,0.048
11.915,0.051
11.920,0.103
11.925,0.151
11.930,0.144
11.935,0.164
11.940,0.214
11.945,0.209
11.950,0.197
11.955,0.233
11.960,0.236
11.965,0.202
11.970,0.218
11.975,0.235
11.980,0.198
11.985,0.191
11.990,0.216
11.995,0.190
12.000,0.161
12.005,0.183
12.010,0.176
12.015,0.135
12.020,0.146
12.025,0.160
12.030,0.121
12.035,0.111
12.040,0.135
12.045,0.110
12.050,0.083
12.055,0.108
12.060,0.102
12.065,0.064
12.070,0.078
12.075,0.094
12.080,0.058
12.085,0.052
12.090,0.080
12.095,0.059
12.100,0.034
12.105,0.063
12.110,0.061
12.115,0.025
12.120,0.041
12.125,0.059
12.130,0.024
12.135,0.019
12.140,0.049
12.145,0.028
12.150,0.003
12.155,0.032
12.160,0.031
12.165,-0.003
12.170,0.014
12.175,0.033
12.180,-0.002
12.185,-0.008
12.190,0.021
12.195,-0.001
12.200,-0.026
12.205,0.002
12.210,0.003
12.215,-0.031
12.220,-0.015
12.225,0.005
12.230,-0.028
12.235,-0.033
12.240,-0.001
12.245,-0.020
12.250,-0.044
12.255,-0.015
12.260,-0.015
12.265,-0.050
12.270,-0.036
12.275,-0.023
12.280,-0.069
12.285,-0.092
12.290,-0.076
12.295,-0.097
12.300,-0.112
12.305,-0.073
12.310,-0.071
12.315,-0.117
12.320,-0.116
12.325,-0.108
12.330,-0.134
12.335,-0.107
12.340,-0.057
12.345,-0.079
12.350,-0.099
12.355,-0.059
12.360,-0.049
12.365,-0.072
12.370,-0.036
12.375,0.008
12.380,-0.007
12.385,0.001
12.390,0.040
12.395,0.023
12.400,0.000
12.405,0.031
12.410,0.033
12.415,-0.001
12.420,0.015
12.425,0.035
12.430,0.001
12.435,-0.002
12.440,0.044
12.445,0.053
12.450,0.036
12.455,0.002
12.460,-0.118
12.465,-0.292
12.470,-0.444
12.475,-0.610
12.480,-0.779
12.485,-0.815
12.490,-0.718
12.495,-0.605
12.500,-0.431
12.505,-0.193
12.510,-0.008
12.515,0.161
12.520,0.341
12.525,0.454
12.530,0.470
12.535,0.447
12.540,0.427
12.545,0.384
12.550,0.341
12.555,0.324
12.560,0.277
12.565,0.207
12.570,0.181
12.575,0.157
12.580,0.085
12.585,0.048
12.590,0.064
12.595,0.040
12.600,0.010
12.605,0.033
12.610,0.031
12.615,-0.008
12.620,0.001
12.625,0.018
12.630,-0.019
12.635,-0.031
12.640,-0.005
12.645,-0.028
12.650,-0.060
12.655,-0.036
12.660,-0.039
12.665,-0.082
12.670,-0.075
12.675,-0.061
12.680,-0.101
12.685,-0.115
12.690,-0.092
12.695,-0.118
12.700,-0.151
12.705,-0.131
12.710,-0.135
12.715,-0.177
12.720,-0.170
12.725,-0.153
12.730,-0.187
12.735,-0.195
12.740,-0.163
12.745,-0.177
12.750,-0.199
12.755,-0.166
12.760,-0.157
12.765,-0.186
12.770,-0.163
12.775,-0.129
12.780,-0.145
12.785,-0.130
12.790,-0.070
12.795,-0.055
12.800,-0.046
12.805,0.018
12.810,0.059
12.815,0.059
12.820,0.106
12.825,0.161
12.830,0.158
12.835,0.175
12.840,0.226
12.845,0.224
12.850,0.209
12.855,0.244
12.860,0.251
12.865,0.217
12.870,0.228
12.875,0.248
12.880,0.211
12.885,0.196
12.890,0.221
12.895,0.198
12.900,0.164
12.905,0.184
12.910,0.182
12.915,0.140
12.920,0.145
12.925,0.161
12.930,0.123
12.935,0.108
12.940,0.134
12.945,0.113
12.950,0.082
12.955,0.104
12.960,0.105
12.965,0.068
12.970,0.078
12.975,0.099
12.980,0.065
12.985,0.054
12.990,0.082
12.995,0.063
13.000,0.032
13.005,0.057
13.010,0.064
13.015,0.033
13.020,0.044
13.025,0.064
13.030,0.030
13.035,0.019
13.040,0.050
13.045,0.035
13.050,0.011
13.055,0.039
13.060,0.042
13.065,-0.001
13.070,0.007
13.075,0.032
13.080,0.006
13.085,-0.001
13.090,0.024
13.095,-0.003
13.100,-0.033
13.105,0.001
13.110,0.011
13.115,-0.026
13.120,-0.021
13.125,-0.003
13.130,-0.034
13.135,-0.044
13.140,-0.015
13.145,-0.029
13.150,-0.050
13.155,-0.019
13.160,-0.015
13.165,-0.055
13.170,-0.046
13.175,-0.034
13.180,-0.090
13.185,-0.120
13.190,-0.087
13.195,-0.087
13.200,-0.096
13.205,-0.061
13.210,-0.072
13.215,-0.136
13.220,-0.146
13.225,-0.118
13.230,-0.107
13.235,-0.079
13.240,-0.044
13.245,-0.068
13.250,-0.098
13.255,-0.059
13.260,-0.034
13.265,-0.046
13.270,-0.004
13.275,0.040
13.280,0.011
13.285,-0.004
13.290,0.035
13.295,0.036
13.300,0.013
13.305,0.030
13.310,0.027
13.315,-0.002
13.320,0.021
13.325,0.048
13.330,0.014
13.335,0.005
13.340,0.056
13.345,0.045
13.350,-0.050
13.355,-0.131
13.360,-0.230
13.365,-0.413
13.370,-0.582
13.375,-0.681
13.380,-0.738
13.385,-0.687
13.390,-0.542
13.395,-0.398
13.400,-0.249
13.405,-0.035
13.410,0.200
13.415,0.337
13.420,0.420
13.425,0.477
13.430,0.432
13.435,0.379
13.440,0.380
13.445,0.345
13.450,0.287
13.455,0.272
13.460,0.233
13.465,0.151
13.470,0.124
13.475,0.109
13.480,0.042
13.485,0.020
13.490,0.055
13.495,0.035
13.500,-0.008
13.505,0.004
13.510,0.001
13.515,-0.033
13.520,-0.004
13.525,0.029
13.530,-0.015
13.535,-0.042
13.540,-0.017
13.545,-0.040
13.550,-0.083
13.555,-0.065
13.560,-0.053
13.565,-0.081
13.570,-0.073
13.575,-0.057
13.580,-0.100
13.585,-0.132
13.590,-0.113
13.595,-0.122
13.600,-0.146
13.605,-0.125
13.610,-0.131
13.615,-0.181
13.620,-0.182
13.625,-0.145
13.630,-0.152
13.635,-0.172
13.640,-0.160
13.645,-0.167
13.650,-0.183
13.655,-0.150
13.660,-0.135
13.665,-0.177
13.670,-0.185
13.675,-0.143
13.680,-0.122
13.685,-0.093
13.690,-0.034
13.695,-0.020
13.700,-0.025
13.705,0.034
13.710,0.081
13.715,0.077
13.720,0.113
13.725,0.164
13.730,0.162
13.735,0.180
13.740,0.232
13.745,0.226
13.750,0.197
13.755,0.232
13.760,0.251
13.765,0.205
13.770,0.197
13.775,0.222
13.780,0.203
13.785,0.188
13.790,0.206
13.795,0.185
13.800,0.148
13.805,0.173
13.810,0.175
13.815,0.114
13.820,0.115
13.825,0.151
13.830,0.124
13.835,0.101
13.840,0.120
13.845,0.098
13.850,0.067
13.855,0.096
13.860,0.096
13.865,0.051
13.870,0.065
13.875,0.084
13.880,0.048
13.885,0.046
13.890,0.088
13.895,0.073
13.900,0.031
13.905,0.042
13.910,0.052
13.915,0.026
13.920,0.037
13.925,0.065
13.930,0.038
13.935,0.016
13.940,0.034
13.945,0.021
13.950,0.008
13.955,0.049
13.960,0.051
13.965,-0.006
13.970,-0.006
13.975,0.022
13.980,-0.007
13.985,-0.009
13.990,0.028
13.995,0.004
14.000,-0.029
14.005,0.000
14.010,0.008
14.015,-0.022
14.020,-0.015
14.025,-0.004
14.030,-0.027
14.035,-0.029
14.040,-0.011
14.045,-0.031
14.050,-0.048
14.055,-0.020
14.060,-0.021
14.065,-0.068
14.070,-0.079
14.075,-0.064
14.080,-0.091
14.085,-0.101
14.090,-0.060
14.095,-0.072
14.100,-0.124
14.105,-0.117
14.110,-0.112
14.115,-0.124
14.120,-0.080
14.125,-0.048
14.130,-0.080
14.135,-0.091
14.140,-0.053
14.145,-0.047
14.150,-0.059
14.155,-0.011
14.160,0.019
14.165,-0.009
14.170,0.005
14.175,0.044
14.180,0.026
14.185,0.009
14.190,0.033
14.195,0.024
14.200,-0.001
14.205,0.022
14.210,0.026
14.215,-0.013
14.220,0.001
14.225,0.055
14.230,0.054
14.235,0.016
14.240,-0.044
14.245,-0.170
14.250,-0.341
14.255,-0.508
14.260,-0.682
14.265,-0.802
14.270,-0.764
14.275,-0.622
14.280,-0.475
14.285,-0.307
14.290,-0.104
14.295,0.100
14.300,0.265
14.305,0.387
14.310,0.452
14.315,0.434
14.320,0.399
14.325,0.386
14.330,0.341
14.335,0.300
14.340,0.290
14.345,0.241
14.350,0.178
14.355,0.165
14.360,0.134
14.365,0.057
14.370,0.029
14.375,0.045
14.380,0.019
14.385,-0.002
14.390,0.019
14.395,0.007
14.400,-0.024
14.405,-0.006
14.410,-0.001
14.415,-0.042
14.420,-0.040
14.425,-0.017
14.430,-0.050
14.435,-0.071
14.440,-0.043
14.445,-0.058
14.450,-0.098
14.455,-0.082
14.460,-0.072
14.465,-0.113
14.470,-0.117
14.475,-0.095
14.480,-0.125
14.485,-0.146
14.490,-0.123
14.495,-0.141
14.500,-0.179
14.505,-0.159
14.510,-0.142
14.515,-0.174
14.520,-0.172
14.525,-0.145
14.530,-0.170
14.535,-0.187
14.540,-0.157
14.545,-0.162
14.550,-0.187
14.555,-0.156
14.560,-0.130
14.565,-0.148
14.570,-0.123
14.575,-0.067
14.580,-0.061
14.585,-0.043
14.590,0.023
14.595,0.051
14.600,0.055
14.605,0.112
14.610,0.159
14.615,0.149
14.620,0.170
14.625,0.214
14.630,0.202
14.635,0.192
14.640,0.228
14.645,0.223
14.650,0.190
14.655,0.212
14.660,0.226
14.665,0.188
14.670,0.187
14.675,0.210
14.680,0.179
14.685,0.155
14.690,0.180
14.695,0.169
14.700,0.132
14.705,0.148
14.710,0.159
14.715,0.118
14.720,0.113
14.725,0.135
14.730,0.104
14.735,0.080
14.740,0.106
14.745,0.098
14.750,0.062
14.755,0.081
14.760,0.093
14.765,0.055
14.770,0.055
14.775,0.081
14.780,0.054
14.785,0.037
14.790,0.070
14.795,0.065
14.800,0.031
14.805,0.050
14.810,0.064
14.815,0.028
14.820,0.027
14.825,0.053
14.830,0.028
14.835,0.008
14.840,0.039
14.845,0.035
14.850,0.001
14.855,0.021
14.860,0.035
14.865,-0.002
14.870,-0.002
14.875,0.027
14.880,0.003
14.885,-0.016
14.890,0.015
14.895,0.010
14.900,-0.025
14.905,-0.006
14.910,0.009
14.915,-0.026
14.920,-0.025
14.925,0.004
14.930,-0.020
14.935,-0.040
14.940,-0.011
14.945,-0.016
14.950,-0.050
14.955,-0.035
14.960,-0.030
14.965,-0.083
14.970,-0.098
14.975,-0.071
14.980,-0.089
14.985,-0.101
14.990,-0.068
14.995,-0.081
15.000,-0.129
15.005,-0.120
15.010,-0.100
15.015,-0.104
15.020,-0.082
15.025,-0.055
15.030,-0.076
15.035,-0.085
15.040,-0.046
15.045,-0.038
15.050,-0.053
15.055,-0.011
15.060,0.023
15.065,0.002
15.070,0.010
15.075,0.043
15.080,0.022
15.085,0.003
15.090,0.032
15.095,0.028
15.100,-0.007
15.105,0.010
15.110,0.028
15.115,-0.003
15.120,0.010
15.125,0.068
15.130,0.058
15.135,-0.019
15.140,-0.110
15.145,-0.250
15.150,-0.444
15.155,-0.615
15.160,-0.746
15.165,-0.824
15.170,-0.770
15.175,-0.616
15.180,-0.443
15.185,-0.249
15.190,-0.033
15.195,0.168
15.200,0.309
15.205,0.426
15.210,0.496
15.215,0.453
15.220,0.400
15.225,0.398
15.230,0.358
15.235,0.296
15.240,0.276
15.245,0.240
15.250,0.169
15.255,0.142
15.260,0.119
15.265,0.051
15.270,0.031
15.275,0.054
15.280,0.027
15.285,0.001
15.290,0.026
15.295,0.021
15.300,-0.017
15.305,-0.003
15.310,0.010
15.315,-0.029
15.320,-0.037
15.325,-0.012
15.330,-0.040
15.335,-0.068
15.340,-0.045
15.345,-0.053
15.350,-0.094
15.355,-0.084
15.360,-0.072
15.365,-0.113
15.370,-0.122
15.375,-0.100
15.380,-0.130
15.385,-0.160
15.390,-0.137
15.395,-0.145
15.400,-0.185
15.405,-0.172
15.410,-0.157
15.415,-0.192
15.420,-0.194
15.425,-0.162
15.430,-0.179
15.435,-0.197
15.440,-0.161
15.445,-0.156
15.450,-0.183
15.455,-0.154
15.460,-0.119
15.465,-0.132
15.470,-0.109
15.475,-0.047
15.480,-0.032
15.485,-0.020
15.490,0.047
15.495,0.083
15.500,0.084
15.505,0.133
15.510,0.181
15.515,0.172
15.520,0.189
15.525,0.235
15.530,0.226
15.535,0.211
15.540,0.244
15.545,0.245
15.550,0.208
15.555,0.223
15.560,0.238
15.565,0.199
15.570,0.188
15.575,0.212
15.580,0.184
15.585,0.154
15.590,0.176
15.595,0.168
15.600,0.126
15.605,0.136
15.610,0.150
15.615,0.112
15.620,0.103
15.625,0.129
15.630,0.105
15.635,0.077
15.640,0.103
15.645,0.099
15.650,0.060
15.655,0.073
15.660,0.091
15.665,0.057
15.670,0.051
15.675,0.080
15.680,0.059
15.685,0.035
15.690,0.064
15.695,0.064
15.700,0.028
15.705,0.043
15.710,0.062
15.715,0.028
15.720,0.022
15.725,0.051
15.730,0.030
15.735,0.005
15.740,0.033
15.745,0.033
15.750,-0.003
15.755,0.011
15.760,0.031
15.765,-0.003
15.770,-0.010
15.775,0.020
15.780,-0.001
15.785,-0.025
15.790,0.004
15.795,0.004
15.800,-0.032
15.805,-0.017
15.810,0.002
15.815,-0.031
15.820,-0.037
15.825,-0.006
15.830,-0.025
15.835,-0.050
15.840,-0.021
15.845,-0.020
15.850,-0.059
15.855,-0.053
15.860,-0.049
15.865,-0.099
15.870,-0.111
15.875,-0.077
15.880,-0.088
15.885,-0.106
15.890,-0.084
15.895,-0.099
15.900,-0.148
15.905,-0.141
15.910,-0.098
15.915,-0.098
15.920,-0.098
15.925,-0.066
15.930,-0.074
15.935,-0.086
15.940,-0.042
15.945,-0.021
15.950,-0.034
15.955,-0.005
15.960,0.026
15.965,0.003
15.970,0.003
15.975,0.035
15.980,0.021
15.985,-0.001
15.990,0.023
15.995,0.025
16.000,-0.004
16.005,0.010
16.010,0.033
16.015,0.013
16.020,0.029
16.025,0.079
16.030,0.031
16.035,-0.096
16.040,-0.196
16.045,-0.331
16.050,-0.543
16.055,-0.698
16.060,-0.750
16.065,-0.747
16.070,-0.655
16.075,-0.474
16.080,-0.302
16.085,-0.143
16.090,0.090
16.095,0.302
16.100,0.384
16.105,0.442
16.110,0.467
16.115,0.401
16.120,0.365
16.125,0.382
16.130,0.336
16.135,0.259
16.140,0.239
16.145,0.203
16.150,0.122
16.155,0.095
16.160,0.089
16.165,0.040
16.170,0.024
16.175,0.043
16.180,0.010
16.185,-0.020
16.190,0.013
16.195,0.013
16.200,-0.031
16.205,-0.017
16.210,0.013
16.215,-0.018
16.220,-0.042
16.225,-0.033
16.230,-0.063
16.235,-0.090
16.240,-0.052
16.245,-0.044
16.250,-0.092
16.255,-0.088
16.260,-0.078
16.265,-0.130
16.270,-0.140
16.275,-0.094
16.280,-0.109
16.285,-0.159
16.290,-0.157
16.295,-0.156
16.300,-0.183
16.305,-0.168
16.310,-0.137
16.315,-0.167
16.320,-0.189
16.325,-0.165
16.330,-0.178
16.335,-0.202
16.340,-0.166
16.345,-0.143
16.350,-0.167
16.355,-0.148
16.360,-0.115
16.365,-0.123
16.370,-0.099
16.375,-0.037
16.380,-0.012
16.385,0.005
16.390,0.069
16.395,0.105
16.400,0.085
16.405,0.111
16.410,0.172
16.415,0.187
16.420,0.200
16.425,0.238
16.430,0.233
16.435,0.208
16.440,0.226
16.445,0.230
16.450,0.206
16.455,0.222
16.460,0.239
16.465,0.197
16.470,0.178
16.475,0.204
16.480,0.182
16.485,0.144
16.490,0.160
16.495,0.172
16.500,0.140
16.505,0.139
16.510,0.149
16.515,0.111
16.520,0.102
16.525,0.137
16.530,0.111
16.535,0.066
16.540,0.083
16.545,0.094
16.550,0.077
16.555,0.097
16.560,0.108
16.565,0.060
16.570,0.046
16.575,0.083
16.580,0.071
16.585,0.042
16.590,0.063
16.595,0.070
16.600,0.043
16.605,0.051
16.610,0.057
16.615,0.014
16.620,0.010
16.625,0.049
16.630,0.038
16.635,0.018
16.640,0.038
16.645,0.022
16.650,-0.015
16.655,0.019
16.660,0.050
16.665,0.001
16.670,-0.023
16.675,0.001
16.680,-0.015
16.685,-0.029
16.690,0.018
16.695,0.030
16.700,-0.015
16.705,-0.018
16.710,-0.009
16.715,-0.049
16.720,-0.049
16.725,0.004
16.730,-0.002
16.735,-0.042
16.740,-0.033
16.745,-0.046
16.750,-0.102
16.755,-0.094
16.760,-0.064
16.765,-0.092
16.770,-0.086
16.775,-0.048
16.780,-0.085
16.785,-0.146
16.790,-0.134
16.795,-0.099
16.800,-0.104
16.805,-0.082
16.810,-0.032
16.815,-0.041
16.820,-0.058
16.825,-0.042
16.830,-0.053
16.835,-0.048
16.840,0.018
16.845,0.055
16.850,0.025
16.855,0.017
16.860,0.033
16.865,0.005
16.870,-0.009
16.875,0.027
16.880,0.032
16.885,0.004
16.890,0.013
16.895,0.019
16.900,0.001
16.905,0.048
16.910,0.089
16.915,-0.004
16.920,-0.124
16.925,-0.194
16.930,-0.347
16.935,-0.582
16.940,-0.727
16.945,-0.762
16.950,-0.742
16.955,-0.616
16.960,-0.411
16.965,-0.257
16.970,-0.088
16.975,0.170
16.980,0.328
16.985,0.374
16.990,0.442
16.995,0.452
17.000,0.381
17.005,0.352
17.010,0.355
17.015,0.302
17.020,0.248
17.025,0.243
17.030,0.200
17.035,0.124
17.040,0.104
17.045,0.079
17.050,0.019
17.055,0.017
17.060,0.037
17.065,0.001
17.070,-0.017
17.075,0.009
17.080,-0.007
17.085,-0.038
17.090,-0.015
17.095,-0.010
17.100,-0.052
17.105,-0.050
17.110,-0.027
17.115,-0.059
17.120,-0.078
17.125,-0.054
17.130,-0.074
17.135,-0.112
17.140,-0.093
17.145,-0.088
17.150,-0.130
17.155,-0.128
17.160,-0.109
17.165,-0.139
17.170,-0.152
17.175,-0.127
17.180,-0.145
17.185,-0.181
17.190,-0.160
17.195,-0.149
17.200,-0.184
17.205,-0.174
17.210,-0.142
17.215,-0.168
17.220,-0.186
17.225,-0.156
17.230,-0.159
17.235,-0.178
17.240,-0.142
17.245,-0.115
17.250,-0.129
17.255,-0.091
17.260,-0.026
17.265,-0.015
17.270,0.010
17.275,0.077
17.280,0.099
17.285,0.098
17.290,0.147
17.295,0.180
17.300,0.164
17.305,0.188
17.310,0.228
17.315,0.210
17.320,0.204
17.325,0.238
17.330,0.227
17.335,0.192
17.340,0.211
17.345,0.218
17.350,0.180
17.355,0.184
17.360,0.204
17.365,0.171
17.370,0.150
17.375,0.176
17.380,0.160
17.385,0.121
17.390,0.138
17.395,0.146
17.400,0.106
17.405,0.103
17.410,0.124
17.415,0.096
17.420,0.079
17.425,0.105
17.430,0.086
17.435,0.048
17.440,0.070
17.445,0.084
17.450,0.048
17.455,0.051
17.460,0.075
17.465,0.045
17.470,0.029
17.475,0.062
17.480,0.052
17.485,0.017
17.490,0.038
17.495,0.050
17.500,0.015
17.505,0.018
17.510,0.044
17.515,0.016
17.520,-0.003
17.525,0.026
17.530,0.017
17.535,-0.013
17.540,0.009
17.545,0.021
17.550,-0.015
17.555,-0.011
17.560,0.015
17.565,-0.012
17.570,-0.029
17.575,0.001
17.580,-0.007
17.585,-0.039
17.590,-0.016
17.595,-0.003
17.600,-0.040
17.605,-0.038
17.610,-0.011
17.615,-0.038
17.620,-0.056
17.625,-0.026
17.630,-0.039
17.635,-0.082
17.640,-0.077
17.645,-0.075
17.650,-0.111
17.655,-0.101
17.660,-0.065
17.665,-0.091
17.670,-0.118
17.675,-0.100
17.680,-0.117
17.685,-0.139
17.690,-0.086
17.695,-0.058
17.700,-0.094
17.705,-0.082
17.710,-0.042
17.715,-0.057
17.720,-0.063
17.725,-0.011
17.730,0.005
17.735,-0.009
17.740,0.025
17.745,0.045
17.750,0.011
17.755,0.016
17.760,0.046
17.765,0.021
17.770,0.004
17.775,0.034
17.780,0.027
17.785,-0.005
17.790,0.021
17.795,0.053
17.800,0.047
17.805,0.049
17.810,0.004
17.815,-0.147
17.820,-0.304
17.825,-0.447
17.830,-0.641
17.835,-0.800
17.840,-0.799
17.845,-0.714
17.850,-0.611
17.855,-0.403
17.860,-0.165
17.865,-0.001
17.870,0.187
17.875,0.373
17.880,0.451
17.885,0.461
17.890,0.460
17.895,0.428
17.900,0.367
17.905,0.350
17.910,0.336
17.915,0.262
17.920,0.208
17.925,0.201
17.930,0.152
17.935,0.080
17.940,0.068
17.945,0.066
17.950,0.026
17.955,0.023
17.960,0.044
17.965,0.014
17.970,-0.009
17.975,0.018
17.980,0.007
17.985,-0.031
17.990,-0.015
17.995,-0.004
18.000,-0.045
18.005,-0.050
18.010,-0.026
18.015,-0.057
18.020,-0.083
18.025,-0.060
18.030,-0.071
18.035,-0.112
18.040,-0.099
18.045,-0.092
18.050,-0.134
18.055,-0.142
18.060,-0.120
18.065,-0.150
18.070,-0.176
18.075,-0.150
18.080,-0.158
18.085,-0.195
18.090,-0.177
18.095,-0.160
18.100,-0.193
18.105,-0.190
18.110,-0.157
18.115,-0.175
18.120,-0.189
18.125,-0.150
18.130,-0.141
18.135,-0.157
18.140,-0.115
18.145,-0.071
18.150,-0.074
18.155,-0.041
18.160,0.025
18.165,0.038
18.170,0.053
18.175,0.118
18.180,0.146
18.185,0.141
18.190,0.183
18.195,0.219
18.200,0.199
18.205,0.209
18.210,0.245
18.215,0.226
18.220,0.205
18.225,0.233
18.230,0.227
18.235,0.190
18.240,0.204
18.245,0.214
18.250,0.174
18.255,0.166
18.260,0.188
18.265,0.159
18.270,0.132
18.275,0.155
18.280,0.146
18.285,0.106
18.290,0.120
18.295,0.133
18.300,0.094
18.305,0.089
18.310,0.114
18.315,0.089
18.320,0.065
18.325,0.091
18.330,0.085
18.335,0.049
18.340,0.066
18.345,0.082
18.350,0.046
18.355,0.044
18.360,0.073
18.365,0.049
18.370,0.027
18.375,0.057
18.380,0.053
18.385,0.018
18.390,0.035
18.395,0.053
18.400,0.019
18.405,0.016
18.410,0.044
18.415,0.020
18.420,-0.003
18.425,0.025
18.430,0.022
18.435,-0.013
18.440,0.003
18.445,0.020
18.450,-0.015
18.455,-0.018
18.460,0.012
18.465,-0.011
18.470,-0.033
18.475,-0.003
18.480,-0.005
18.485,-0.039
18.490,-0.022
18.495,-0.003
18.500,-0.036
18.505,-0.038
18.510,-0.009
18.515,-0.030
18.520,-0.055
18.525,-0.033
18.530,-0.049
18.535,-0.102
18.540,-0.094
18.545,-0.073
18.550,-0.101
18.555,-0.097
18.560,-0.068
18.565,-0.104
18.570,-0.141
18.575,-0.118
18.580,-0.101
18.585,-0.103
18.590,-0.077
18.595,-0.060
18.600,-0.086
18.605,-0.077
18.610,-0.036
18.615,-0.043
18.620,-0.043
18.625,0.011
18.630,0.025
18.635,0.002
18.640,0.026
18.645,0.046
18.650,0.014
18.655,0.011
18.660,0.041
18.665,0.021
18.670,-0.001
18.675,0.028
18.680,0.027
18.685,-0.001
18.690,0.036
18.695,0.083
18.700,0.043
18.705,-0.043
18.710,-0.138
18.715,-0.298
18.720,-0.497
18.725,-0.650
18.730,-0.757
18.735,-0.797
18.740,-0.705
18.745,-0.540
18.750,-0.370
18.755,-0.175
18.760,0.051
18.765,0.240
18.770,0.354
18.775,0.454
18.780,0.484
18.785,0.415
18.790,0.385
18.795,0.388
18.800,0.331
18.805,0.277
18.810,0.266
18.815,0.215
18.820,0.149
18.825,0.129
18.830,0.089
18.835,0.031
18.840,0.041
18.845,0.058
18.850,0.017
18.855,0.004
18.860,0.028
18.865,0.003
18.870,-0.025
18.875,0.003
18.880,0.005
18.885,-0.032
18.890,-0.023
18.895,-0.016
18.900,-0.061
18.905,-0.069
18.910,-0.033
18.915,-0.054
18.920,-0.092
18.925,-0.076
18.930,-0.081
18.935,-0.121
18.940,-0.109
18.945,-0.096
18.950,-0.139
18.955,-0.152
18.960,-0.122
18.965,-0.142
18.970,-0.181
18.975,-0.171
18.980,-0.170
18.985,-0.190
18.990,-0.162
18.995,-0.139
19.000,-0.178
19.005,-0.189
19.010,-0.151
19.015,-0.151
19.020,-0.166
19.025,-0.136
19.030,-0.127
19.035,-0.144
19.040,-0.101
19.045,-0.045
19.050,-0.033
19.055,0.007
19.060,0.077
19.065,0.084
19.070,0.079
19.075,0.134
19.080,0.176
19.085,0.183
19.090,0.212
19.095,0.228
19.100,0.198
19.105,0.206
19.110,0.249
19.115,0.231
19.120,0.204
19.125,0.240
19.130,0.237
19.135,0.172
19.140,0.172
19.145,0.210
19.150,0.192
19.155,0.184
19.160,0.205
19.165,0.162
19.170,0.111
19.175,0.138
19.180,0.152
19.185,0.121
19.190,0.132
19.195,0.138
19.200,0.083
19.205,0.069
19.210,0.111
19.215,0.105
19.220,0.076
19.225,0.087
19.230,0.081
19.235,0.044
19.240,0.064
19.245,0.096
19.250,0.063
19.255,0.050
19.260,0.076
19.265,0.051
19.270,0.019
19.275,0.044
19.280,0.050
19.285,0.023
19.290,0.034
19.295,0.042
19.300,0.007
19.305,0.008
19.310,0.041
19.315,0.017
19.320,-0.006
19.325,0.029
19.330,0.028
19.335,-0.015
19.340,-0.013
19.345,0.003
19.350,-0.016
19.355,-0.010
19.360,0.019
19.365,-0.006
19.370,-0.045
19.375,-0.019
19.380,-0.003
19.385,-0.033
19.390,-0.030
19.395,-0.019
19.400,-0.048
19.405,-0.043
19.410,-0.014
19.415,-0.055
19.420,-0.106
19.425,-0.088
19.430,-0.080
19.435,-0.104
19.440,-0.078
19.445,-0.065
19.450,-0.123
19.455,-0.141
19.460,-0.108
19.465,-0.104
19.470,-0.104
19.475,-0.070
19.480,-0.062
19.485,-0.087
19.490,-0.060
19.495,-0.017
19.500,-0.034
19.505,-0.028
19.510,0.020
19.515,0.015
19.520,-0.003
19.525,0.033
19.530,0.040
19.535,0.004
19.540,0.022
19.545,0.050
19.550,0.014
19.555,-0.002
19.560,0.020
19.565,0.010
19.570,0.006
19.575,0.052
19.580,0.066
19.585,0.008
19.590,-0.070
19.595,-0.172
19.600,-0.327
19.605,-0.503
19.610,-0.650
19.615,-0.758
19.620,-0.773
19.625,-0.653
19.630,-0.480
19.635,-0.323
19.640,-0.134
19.645,0.091
19.650,0.251
19.655,0.352
19.660,0.446
19.665,0.461
19.670,0.412
19.675,0.394
19.680,0.360
19.685,0.287
19.690,0.265
19.695,0.261
19.700,0.191
19.705,0.130
19.710,0.124
19.715,0.083
19.720,0.029
19.725,0.042
19.730,0.040
19.735,-0.008
19.740,-0.007
19.745,0.015
19.750,-0.018
19.755,-0.033
19.760,0.004
19.765,-0.004
19.770,-0.035
19.775,-0.023
19.780,-0.040
19.785,-0.096
19.790,-0.083
19.795,-0.050
19.800,-0.081
19.805,-0.089
19.810,-0.058
19.815,-0.093
19.820,-0.139
19.825,-0.110
19.830,-0.110
19.835,-0.161
19.840,-0.144
19.845,-0.114
19.850,-0.152
19.855,-0.169
19.860,-0.135
19.865,-0.151
19.870,-0.193
19.875,-0.173
19.880,-0.157
19.885,-0.183
19.890,-0.173
19.895,-0.149
19.900,-0.178
19.905,-0.183
19.910,-0.131
19.915,-0.122
19.920,-0.133
19.925,-0.081
19.930,-0.037
19.935,-0.043
19.940,-0.006
19.945,0.067
19.950,0.087
19.955,0.103
19.960,0.157
19.965,0.163
19.970,0.155
19.975,0.209
19.980,0.235
19.985,0.198
19.990,0.207
19.995,0.240
20.000,0.216
20.005,0.200
20.010,0.229
20.015,0.219
20.020,0.193
20.025,0.214
20.030,0.209
20.035,0.164
20.040,0.164
20.045,0.174
20.050,0.134
20.055,0.122
20.060,0.155
20.065,0.142
20.070,0.108
20.075,0.122
20.080,0.123
20.085,0.085
20.090,0.085
20.095,0.104
20.100,0.074
20.105,0.060
20.110,0.090
20.115,0.077
20.120,0.046
20.125,0.067
20.130,0.072
20.135,0.037
20.140,0.046
20.145,0.072
20.150,0.042
20.155,0.023
20.160,0.047
20.165,0.032
20.170,0.010
20.175,0.041
20.180,0.050
20.185,0.013
20.190,0.019
20.195,0.041
20.200,0.008
20.205,-0.009
20.210,0.027
20.215,0.020
20.220,-0.015
20.225,0.005
20.230,0.013
20.235,-0.025
20.240,-0.021
20.245,0.004
20.250,-0.019
20.255,-0.024
20.260,0.008
20.265,-0.008
20.270,-0.041
20.275,-0.019
20.280,-0.013
20.285,-0.048
20.290,-0.040
20.295,-0.018
20.300,-0.054
20.305,-0.080
20.310,-0.060
20.315,-0.076
20.320,-0.105
20.325,-0.079
20.330,-0.073
20.335,-0.118
20.340,-0.120
20.345,-0.101
20.350,-0.121
20.355,-0.106
20.360,-0.060
20.365,-0.071
20.370,-0.094
20.375,-0.058
20.380,-0.036
20.385,-0.058
20.390,-0.031
20.395,0.019
20.400,0.008
20.405,0.005
20.410,0.039
20.415,0.030
20.420,0.002
20.425,0.028
20.430,0.040
20.435,0.004
20.440,0.009
20.445,0.035
20.450,0.007
20.455,-0.005
20.460,0.045
20.465,0.065
20.470,0.035
20.475,-0.015
20.480,-0.126
20.485,-0.296
20.490,-0.459
20.495,-0.615
20.500,-0.765
20.505,-0.800
20.510,-0.700
20.515,-0.568
20.520,-0.393
20.525,-0.170
20.530,0.030
20.535,0.207
20.540,0.354
20.545,0.445
20.550,0.456
20.555,0.421
20.560,0.405
20.565,0.368
20.570,0.316
20.575,0.302
20.580,0.267
20.585,0.199
20.590,0.170
20.595,0.154
20.600,0.089
20.605,0.041
20.610,0.054
20.615,0.040
20.620,0.005
20.625,0.022
20.630,0.029
20.635,-0.012
20.640,-0.011
20.645,0.012
20.650,-0.020
20.655,-0.041
20.660,-0.014
20.665,-0.028
20.670,-0.064
20.675,-0.046
20.680,-0.039
20.685,-0.081
20.690,-0.083
20.695,-0.062
20.700,-0.095
20.705,-0.120
20.710,-0.096
20.715,-0.110
20.720,-0.148
20.725,-0.133
20.730,-0.127
20.735,-0.168
20.740,-0.170
20.745,-0.146
20.750,-0.173
20.755,-0.189
20.760,-0.157
20.765,-0.164
20.770,-0.192
20.775,-0.166
20.780,-0.149
20.785,-0.178
20.790,-0.166
20.795,-0.128
20.800,-0.138
20.805,-0.132
20.810,-0.075
20.815,-0.052
20.820,-0.050
20.825,0.007
20.830,0.057
20.835,0.057
20.840,0.094
20.845,0.153
20.850,0.155
20.855,0.161
20.860,0.210
20.865,0.216
20.870,0.194
20.875,0.223
20.880,0.240
20.885,0.205
20.890,0.207
20.895,0.233
20.900,0.203
20.905,0.179
20.910,0.205
20.915,0.193
20.920,0.155
20.925,0.171
20.930,0.178
20.935,0.136
20.940,0.132
20.945,0.154
20.950,0.123
20.955,0.100
20.960,0.127
20.965,0.116
20.970,0.079
20.975,0.096
20.980,0.106
20.985,0.067
20.990,0.066
20.995,0.091
21.000,0.064
21.005,0.045
21.010,0.074
21.015,0.066
21.020,0.032
21.025,0.053
21.030,0.066
21.035,0.031
21.040,0.032
21.045,0.060
21.050,0.034
21.055,0.015
21.060,0.045
21.065,0.039
21.070,0.005
21.075,0.025
21.080,0.038
21.085,0.002
21.090,0.003
21.095,0.032
21.100,0.007
21.105,-0.013
21.110,0.017
21.115,0.011
21.120,-0.023
21.125,-0.005
21.130,0.009
21.135,-0.026
21.140,-0.025
21.145,0.004
21.150,-0.021
21.155,-0.041
21.160,-0.009
21.165,-0.014
21.170,-0.048
21.175,-0.027
21.180,-0.011
21.185,-0.047
21.190,-0.051
21.195,-0.035
21.200,-0.077
21.205,-0.109
21.210,-0.079
21.215,-0.077
21.220,-0.103
21.225,-0.084
21.230,-0.079
21.235,-0.128
21.240,-0.137
21.245,-0.098
21.250,-0.090
21.255,-0.094
21.260,-0.067
21.265,-0.066
21.270,-0.089
21.275,-0.060
21.280,-0.031
21.285,-0.045
21.290,-0.022
21.295,0.025
21.300,0.015
21.305,0.002
21.310,0.035
21.315,0.033
21.320,0.002
21.325,0.022
21.330,0.037
21.335,0.002
21.340,0.001
21.345,0.030
21.350,0.010
21.355,0.005
21.360,0.064
21.365,0.067
21.370,-0.030
21.375,-0.130
21.380,-0.249
21.385,-0.447
21.390,-0.632
21.395,-0.738
21.400,-0.797
21.405,-0.763
21.410,-0.610
21.415,-0.417
21.420,-0.242
21.425,-0.037
21.430,0.190
21.435,0.324
21.440,0.415
21.445,0.492
21.450,0.452
21.455,0.382
21.460,0.388
21.465,0.370
21.470,0.291
21.475,0.261
21.480,0.245
21.485,0.170
21.490,0.121
21.495,0.111
21.500,0.058
21.505,0.020
21.510,0.045
21.515,0.038
21.520,-0.001
21.525,0.013
21.530,0.027
21.535,-0.012
21.540,-0.018
21.545,0.007
21.550,-0.020
21.555,-0.047
21.560,-0.023
21.565,-0.030
21.570,-0.070
21.575,-0.059
21.580,-0.047
21.585,-0.087
21.590,-0.095
21.595,-0.072
21.600,-0.101
21.605,-0.131
21.610,-0.109
21.615,-0.118
21.620,-0.160
21.625,-0.149
21.630,-0.138
21.635,-0.177
21.640,-0.184
21.645,-0.157
21.650,-0.179
21.655,-0.200
21.660,-0.169
21.665,-0.168
21.670,-0.198
21.675,-0.175
21.680,-0.150
21.685,-0.177
21.690,-0.170
21.695,-0.122
21.700,-0.121
21.705,-0.119
21.710,-0.059
21.715,-0.026
21.720,-0.028
21.725,0.023
21.730,0.083
21.735,0.086
21.740,0.115
21.745,0.179
21.750,0.186
21.755,0.179
21.760,0.217
21.765,0.230
21.770,0.215
21.775,0.243
21.780,0.263
21.785,0.222
21.790,0.208
21.795,0.233
21.800,0.212
21.805,0.185
21.810,0.208
21.815,0.200
21.820,0.156
21.825,0.166
21.830,0.183
21.835,0.147
21.840,0.130
21.845,0.147
21.850,0.126
21.855,0.105
21.860,0.130
21.865,0.117
21.870,0.072
21.875,0.093
21.880,0.125
21.885,0.089
21.890,0.070
21.895,0.092
21.900,0.071
21.905,0.048
21.910,0.073
21.915,0.065
21.920,0.031
21.925,0.062
21.930,0.087
21.935,0.044
21.940,0.032
21.945,0.060
21.950,0.040
21.955,0.022
21.960,0.052
21.965,0.040
21.970,-0.005
21.975,0.014
21.980,0.044
21.985,0.023
21.990,0.018
21.995,0.038
22.000,0.010
22.005,-0.018
22.010,0.012
22.015,0.009
22.020,-0.039
22.025,-0.027
22.030,0.009
22.035,-0.009
22.040,-0.016
22.045,0.005
22.050,-0.023
22.055,-0.053
22.060,-0.022
22.065,-0.014
22.070,-0.041
22.075,-0.028
22.080,-0.023
22.085,-0.074
22.090,-0.096
22.095,-0.077
22.100,-0.097
22.105,-0.116
22.110,-0.077
22.115,-0.080
22.120,-0.130
22.125,-0.120
22.130,-0.107
22.135,-0.129
22.140,-0.099
22.145,-0.056
22.150,-0.078
22.155,-0.095
22.160,-0.043
22.165,-0.023
22.170,-0.058
22.175,-0.027
22.180,0.024
22.185,0.005
22.190,0.005
22.195,0.044
22.200,0.025
22.205,0.003
22.210,0.046
22.215,0.051
22.220,0.002
22.225,0.000
22.230,0.012
22.235,-0.010
22.240,0.007
22.245,0.067
22.250,0.075
22.255,0.010
22.260,-0.081
22.265,-0.203
22.270,-0.359
22.275,-0.506
22.280,-0.643
22.285,-0.751
22.290,-0.743
22.295,-0.625
22.300,-0.491
22.305,-0.344
22.310,-0.135
22.315,0.102
22.320,0.275
22.325,0.390
22.330,0.464
22.335,0.443
22.340,0.399
22.345,0.396
22.350,0.356
22.355,0.300
22.360,0.288
22.365,0.255
22.370,0.191
22.375,0.155
22.380,0.118
22.385,0.048
22.390,0.023
22.395,0.057
22.400,0.050
22.405,0.010
22.410,0.003
22.415,-0.015
22.420,-0.033
22.425,0.000
22.430,0.018
22.435,-0.012
22.440,-0.026
22.445,-0.027
22.450,-0.061
22.455,-0.084
22.460,-0.062
22.465,-0.059
22.470,-0.083
22.475,-0.077
22.480,-0.075
22.485,-0.116
22.490,-0.125
22.495,-0.089
22.500,-0.107
22.505,-0.152
22.510,-0.142
22.515,-0.144
22.520,-0.179
22.525,-0.153
22.530,-0.119
22.535,-0.166
22.540,-0.203
22.545,-0.177
22.550,-0.165
22.555,-0.169
22.560,-0.141
22.565,-0.148
22.570,-0.199
22.575,-0.174
22.580,-0.122
22.585,-0.140
22.590,-0.124
22.595,-0.061
22.600,-0.058
22.605,-0.061
22.610,0.005
22.615,0.057
22.620,0.064
22.625,0.103
22.630,0.152
22.635,0.146
22.640,0.152
22.645,0.205
22.650,0.218
22.655,0.203
22.660,0.223
22.665,0.228
22.670,0.192
22.675,0.195
22.680,0.227
22.685,0.212
22.690,0.197
22.695,0.215
22.700,0.194
22.705,0.147
22.710,0.150
22.715,0.156
22.720,0.125
22.725,0.141
22.730,0.174
22.735,0.131
22.740,0.101
22.745,0.129
22.750,0.104
22.755,0.065
22.760,0.101
22.765,0.113
22.770,0.070
22.775,0.074
22.780,0.096
22.785,0.069
22.790,0.051
22.795,0.071
22.800,0.066
22.805,0.043
22.810,0.065
22.815,0.069
22.820,0.027
22.825,0.036
22.830,0.059
22.835,0.025
22.840,0.027
22.845,0.065
22.850,0.031
22.855,-0.008
22.860,0.028
22.865,0.042
22.870,-0.003
22.875,0.000
22.880,0.032
22.885,0.004
22.890,-0.015
22.895,0.019
22.900,0.011
22.905,-0.021
22.910,-0.003
22.915,0.000
22.920,-0.037
22.925,-0.029
22.930,-0.004
22.935,-0.028
22.940,-0.031
22.945,0.003
22.950,-0.019
22.955,-0.055
22.960,-0.031
22.965,-0.029
22.970,-0.081
22.975,-0.084
22.980,-0.060
22.985,-0.090
22.990,-0.099
22.995,-0.061
23.000,-0.081
23.005,-0.124
23.010,-0.112
23.015,-0.110
23.020,-0.121
23.025,-0.088
23.030,-0.062
23.035,-0.083
23.040,-0.080
23.045,-0.042
23.050,-0.047
23.055,-0.057
23.060,-0.005
23.065,0.022
23.070,-0.005
23.075,0.013
23.080,0.045
23.085,0.013
23.090,-0.001
23.095,0.032
23.100,0.020
23.105,-0.013
23.110,0.013
23.115,0.026
23.120,-0.006
23.125,0.014
23.130,0.068
23.135,0.051
23.140,-0.011
23.145,-0.083
23.150,-0.218
23.155,-0.404
23.160,-0.565
23.165,-0.710
23.170,-0.805
23.175,-0.750
23.180,-0.597
23.185,-0.435
23.190,-0.255
23.195,-0.044
23.200,0.160
23.205,0.296
23.210,0.399
23.215,0.457
23.220,0.425
23.225,0.393
23.230,0.383
23.235,0.332
23.240,0.292
23.245,0.283
23.250,0.231
23.255,0.166
23.260,0.151
23.265,0.121
23.270,0.049
23.275,0.028
23.280,0.044
23.285,0.014
23.290,-0.004
23.295,0.022
23.300,0.004
23.305,-0.030
23.310,-0.008
23.315,-0.002
23.320,-0.043
23.325,-0.042
23.330,-0.020
23.335,-0.050
23.340,-0.066
23.345,-0.042
23.350,-0.062
23.355,-0.099
23.360,-0.079
23.365,-0.074
23.370,-0.116
23.375,-0.116
23.380,-0.097
23.385,-0.133
23.390,-0.153
23.395,-0.126
23.400,-0.142
23.405,-0.176
23.410,-0.154
23.415,-0.143
23.420,-0.176
23.425,-0.169
23.430,-0.142
23.435,-0.169
23.440,-0.181
23.445,-0.147
23.450,-0.155
23.455,-0.179
23.460,-0.145
23.465,-0.122
23.470,-0.140
23.475,-0.110
23.480,-0.053
23.485,-0.047
23.490,-0.027
23.495,0.040
23.500,0.066
23.505,0.070
23.510,0.124
23.515,0.164
23.520,0.153
23.525,0.179
23.530,0.222
23.535,0.207
23.540,0.199
23.545,0.234
23.550,0.225
23.555,0.194
23.560,0.216
23.565,0.225
23.570,0.185
23.575,0.186
23.580,0.209
23.585,0.177
23.590,0.156
23.595,0.182
23.600,0.167
23.605,0.130
23.610,0.148
23.615,0.154
23.620,0.112
23.625,0.111
23.630,0.135
23.635,0.103
23.640,0.082
23.645,0.109
23.650,0.097
23.655,0.063
23.660,0.082
23.665,0.091
23.670,0.053
23.675,0.057
23.680,0.084
23.685,0.057
23.690,0.040
23.695,0.070
23.700,0.060
23.705,0.027
23.710,0.049
23.715,0.061
23.720,0.025
23.725,0.028
23.730,0.054
23.735,0.027
23.740,0.009
23.745,0.038
23.750,0.029
23.755,-0.003
23.760,0.018
23.765,0.030
23.770,-0.006
23.775,-0.002
23.780,0.025
23.785,-0.002
23.790,-0.020
23.795,0.011
23.800,0.002
23.805,-0.031
23.810,-0.011
23.815,0.001
23.820,-0.035
23.825,-0.031
23.830,-0.002
23.835,-0.027
23.840,-0.043
23.845,-0.012
23.850,-0.023
23.855,-0.063
23.860,-0.055
23.865,-0.061
23.870,-0.106
23.875,-0.101
23.880,-0.066
23.885,-0.085
23.890,-0.103
23.895,-0.085
23.900,-0.106
23.905,-0.147
23.910,-0.110
23.915,-0.063
23.920,-0.086
23.925,-0.085
23.930,-0.049
23.935,-0.065
23.940,-0.074
23.945,-0.029
23.950,-0.014
23.955,-0.023
23.960,0.015
23.965,0.041
23.970,0.013
23.975,0.017
23.980,0.047
23.985,0.022
23.990,0.004
23.995,0.034
24.000,0.027
24.005,-0.006
24.010,0.015
24.015,0.035
24.020,0.018
24.025,0.049
24.030,0.075
24.035,-0.029
24.040,-0.174
24.045,-0.282
24.050,-0.460
24.055,-0.675
24.060,-0.771
24.065,-0.770
24.070,-0.734
24.075,-0.591
24.080,-0.356
24.085,-0.176
24.090,-0.008
24.095,0.228
24.100,0.373
24.105,0.421
24.110,0.480
24.115,0.466
24.120,0.384
24.125,0.367
24.130,0.374
24.135,0.300
24.140,0.234
24.145,0.232
24.150,0.185
24.155,0.106
24.160,0.087
24.165,0.072
24.170,0.025
24.175,0.023
24.180,0.047
24.185,0.018
24.190,-0.004
24.195,0.022
24.200,0.012
24.205,-0.025
24.210,-0.010
24.215,0.000
24.220,-0.040
24.225,-0.043
24.230,-0.019
24.235,-0.049
24.240,-0.075
24.245,-0.050
24.250,-0.062
24.255,-0.102
24.260,-0.089
24.265,-0.081
24.270,-0.124
24.275,-0.131
24.280,-0.110
24.285,-0.141
24.290,-0.168
24.295,-0.143
24.300,-0.153
24.305,-0.189
24.310,-0.172
24.315,-0.157
24.320,-0.190
24.325,-0.188
24.330,-0.155
24.335,-0.174
24.340,-0.189
24.345,-0.152
24.350,-0.146
24.355,-0.167
24.360,-0.131
24.365,-0.092
24.370,-0.099
24.375,-0.067
24.380,-0.003
24.385,0.010
24.390,0.026
24.395,0.092
24.400,0.121
24.405,0.118
24.410,0.165
24.415,0.206
24.420,0.189
24.425,0.204
24.430,0.244
24.435,0.227
24.440,0.210
24.445,0.242
24.450,0.237
24.455,0.200
24.460,0.214
24.465,0.225
24.470,0.185
24.475,0.176
24.480,0.199
24.485,0.169
24.490,0.141
24.495,0.165
24.500,0.156
24.505,0.116
24.510,0.129
24.515,0.139
24.520,0.099
24.525,0.093
24.530,0.117
24.535,0.086
24.540,0.060
24.545,0.090
24.550,0.090
24.555,0.056
24.560,0.071
24.565,0.086
24.570,0.046
24.575,0.039
24.580,0.070
24.585,0.054
24.590,0.035
24.595,0.062
24.600,0.056
24.605,0.022
24.610,0.041
24.615,0.059
24.620,0.023
24.625,0.016
24.630,0.044
24.635,0.029
24.640,0.011
24.645,0.032
24.650,0.021
24.655,-0.013
24.660,0.007
24.665,0.025
24.670,-0.013
24.675,-0.022
24.680,0.003
24.685,-0.018
24.690,-0.031
24.695,0.013
24.700,0.012
24.705,-0.034
24.710,-0.028
24.715,-0.010
24.720,-0.039
24.725,-0.045
24.730,-0.017
24.735,-0.038
24.740,-0.063
24.745,-0.037
24.750,-0.050
24.755,-0.101
24.760,-0.090
24.765,-0.074
24.770,-0.105
24.775,-0.098
24.780,-0.074
24.785,-0.111
24.790,-0.147
24.795,-0.124
24.800,-0.098
24.805,-0.096
24.810,-0.071
24.815,-0.052
24.820,-0.080
24.825,-0.067
24.830,-0.020
24.835,-0.031
24.840,-0.043
24.845,-0.002
24.850,0.012
24.855,-0.002
24.860,0.024
24.865,0.040
24.870,0.008
24.875,0.014
24.880,0.054
24.885,0.033
24.890,-0.004
24.895,0.010
24.900,0.014
24.905,-0.003
24.910,0.035
24.915,0.068
24.920,0.003
24.925,-0.099
24.930,-0.196
24.935,-0.355
24.940,-0.548
24.945,-0.666
24.950,-0.712
24.955,-0.713
24.960,-0.621
24.965,-0.453
24.970,-0.293
24.975,-0.108
24.980,0.130
24.985,0.288
24.990,0.362
24.995,0.452
25.000,0.469
25.005,0.395
25.010,0.378
25.015,0.380
25.020,0.308
25.025,0.246
25.030,0.242
25.035,0.199
25.040,0.130
25.045,0.111
25.050,0.075
25.055,0.019
25.060,0.029
25.065,0.046
25.070,0.010
25.075,-0.001
25.080,0.015
25.085,-0.020
25.090,-0.042
25.095,0.004
25.100,0.012
25.105,-0.032
25.110,-0.032
25.115,-0.032
25.120,-0.077
25.125,-0.079
25.130,-0.043
25.135,-0.055
25.140,-0.079
25.145,-0.068
25.150,-0.093
25.155,-0.145
25.160,-0.122
25.165,-0.085
25.170,-0.119
25.175,-0.146
25.180,-0.133
25.185,-0.158
25.190,-0.188
25.195,-0.157
25.200,-0.145
25.205,-0.183
25.210,-0.173
25.215,-0.141
25.220,-0.172
25.225,-0.192
25.230,-0.156
25.235,-0.143
25.240,-0.150
25.245,-0.122
25.250,-0.116
25.255,-0.139
25.260,-0.097
25.265,-0.032
25.270,-0.025
25.275,0.000
25.280,0.073
25.285,0.093
25.290,0.085
25.295,0.133
25.300,0.170
25.305,0.164
25.310,0.193
25.315,0.231
25.320,0.221
25.325,0.227
25.330,0.255
25.335,0.221
25.340,0.182
25.345,0.216
25.350,0.225
25.355,0.181
25.360,0.187
25.365,0.209
25.370,0.168
25.375,0.141
25.380,0.155
25.385,0.146
25.390,0.138
25.395,0.164
25.400,0.140
25.405,0.075
25.410,0.093
25.415,0.139
25.420,0.108
25.425,0.083
25.430,0.102
25.435,0.073
25.440,0.042
25.445,0.080
25.450,0.089
25.455,0.053
25.460,0.059
25.465,0.068
25.470,0.030
25.475,0.030
25.480,0.069
25.485,0.056
25.490,0.036
25.495,0.054
25.500,0.033
25.505,-0.010
25.510,0.020
25.515,0.060
25.520,0.035
25.525,0.021
25.530,0.029
25.535,-0.002
25.540,-0.014
25.545,0.024
25.550,0.021
25.555,-0.013
25.560,0.003
25.565,0.012
25.570,-0.029
25.575,-0.031
25.580,0.010
25.585,0.000
25.590,-0.029
25.595,-0.004
25.600,0.011
25.605,-0.025
25.610,-0.029
25.615,-0.020
25.620,-0.054
25.625,-0.056
25.630,-0.033
25.635,-0.066
25.640,-0.092
25.645,-0.065
25.650,-0.070
25.655,-0.108
25.660,-0.096
25.665,-0.078
25.670,-0.119
25.675,-0.136
25.680,-0.085
25.685,-0.072
25.690,-0.099
25.695,-0.076
25.700,-0.059
25.705,-0.082
25.710,-0.062
25.715,-0.023
25.720,-0.024
25.725,-0.009
25.730,0.033
25.735,0.028
25.740,0.005
25.745,0.029
25.750,0.033
25.755,-0.005
25.760,0.005
25.765,0.030
25.770,0.002
25.775,-0.004
25.780,0.032
25.785,0.021
25.790,0.007
25.795,0.054
25.800,0.043
25.805,-0.077
25.810,-0.185
25.815,-0.295
25.820,-0.501
25.825,-0.690
25.830,-0.754
25.835,-0.756
25.840,-0.683
25.845,-0.487
25.850,-0.293
25.855,-0.156
25.860,0.059
25.865,0.284
25.870,0.366
25.875,0.415
25.880,0.466
25.885,0.416
25.890,0.353
25.895,0.362
25.900,0.345
25.905,0.266
25.910,0.227
25.915,0.214
25.920,0.150
25.925,0.101
25.930,0.092
25.935,0.043
25.940,0.001
25.945,0.026
25.950,0.025
25.955,-0.019
25.960,-0.008
25.965,0.020
25.970,-0.013
25.975,-0.030
25.980,-0.007
25.985,-0.033
25.990,-0.067
25.995,-0.040
26.000,-0.032
26.005,-0.070
26.010,-0.070
26.015,-0.057
26.020,-0.092
26.025,-0.109
26.030,-0.089
26.035,-0.108
26.040,-0.137
26.045,-0.117
26.050,-0.117
26.055,-0.153
26.060,-0.148
26.065,-0.128
26.070,-0.157
26.075,-0.171
26.080,-0.147
26.085,-0.163
26.090,-0.186
26.095,-0.156
26.100,-0.148
26.105,-0.183
26.110,-0.169
26.115,-0.137
26.120,-0.161
26.125,-0.165
26.130,-0.118
26.135,-0.107
26.140,-0.108
26.145,-0.052
26.150,-0.010
26.155,-0.007
26.160,0.040
26.165,0.100
26.170,0.103
26.175,0.118
26.180,0.172
26.185,0.181
26.190,0.173
26.195,0.214
26.200,0.231
26.205,0.199
26.210,0.210
26.215,0.237
26.220,0.206
26.225,0.189
26.230,0.216
26.235,0.204
26.240,0.172
26.245,0.193
26.250,0.199
26.255,0.158
26.260,0.159
26.265,0.174
26.270,0.135
26.275,0.118
26.280,0.151
26.285,0.134
26.290,0.094
26.295,0.113
26.300,0.119
26.305,0.078
26.310,0.081
26.315,0.102
26.320,0.069
26.325,0.054
26.330,0.086
26.335,0.074
26.340,0.041
26.345,0.061
26.350,0.069
26.355,0.032
26.360,0.039
26.365,0.066
26.370,0.038
26.375,0.024
26.380,0.055
26.385,0.042
26.390,0.012
26.395,0.035
26.400,0.043
26.405,0.007
26.410,0.013
26.415,0.036
26.420,0.005
26.425,-0.007
26.430,0.028
26.435,0.018
26.440,-0.016
26.445,0.006
26.450,0.015
26.455,-0.020
26.460,-0.014
26.465,0.012
26.470,-0.016
26.475,-0.032
26.480,-0.001
26.485,-0.012
26.490,-0.042
26.495,-0.018
26.500,-0.007
26.505,-0.043
26.510,-0.039
26.515,-0.021
26.520,-0.065
26.525,-0.097
26.530,-0.074
26.535,-0.083
26.540,-0.108
26.545,-0.077
26.550,-0.067
26.555,-0.116
26.560,-0.122
26.565,-0.101
26.570,-0.111
26.575,-0.095
26.580,-0.055
26.585,-0.066
26.590,-0.088
26.595,-0.054
26.600,-0.034
26.605,-0.056
26.610,-0.028
26.615,0.020
26.620,0.007
26.625,0.004
26.630,0.042
26.635,0.035
26.640,0.005
26.645,0.028
26.650,0.039
26.655,0.004
26.660,0.008
26.665,0.034
26.670,0.008
26.675,-0.001
26.680,0.051
26.685,0.068
26.690,0.024
26.695,-0.042
26.700,-0.160
26.705,-0.337
26.710,-0.510
26.715,-0.662
26.720,-0.787
26.725,-0.796
26.730,-0.677
26.735,-0.531
26.740,-0.351
26.745,-0.131
26.750,0.065
26.755,0.228
26.760,0.368
26.765,0.466
26.770,0.469
26.775,0.421
26.780,0.406
26.785,0.379
26.790,0.324
26.795,0.299
26.800,0.265
26.805,0.196
26.810,0.158
26.815,0.140
26.820,0.075
26.825,0.029
26.830,0.048
26.835,0.036
26.840,0.000
26.845,0.017
26.850,0.025
26.855,-0.015
26.860,-0.015
26.865,0.008
26.870,-0.023
26.875,-0.044
26.880,-0.018
26.885,-0.032
26.890,-0.069
26.895,-0.052
26.900,-0.045
26.905,-0.087
26.910,-0.090
26.915,-0.068
26.920,-0.101
26.925,-0.124
26.930,-0.099
26.935,-0.113
26.940,-0.153
26.945,-0.139
26.950,-0.132
26.955,-0.173
26.960,-0.175
26.965,-0.150
26.970,-0.177
26.975,-0.194
26.980,-0.161
26.985,-0.165
26.990,-0.193
26.995,-0.168
27.000,-0.148
27.005,-0.176
27.010,-0.164
27.015,-0.122
27.020,-0.130
27.025,-0.125
27.030,-0.066
27.035,-0.040
27.040,-0.038
27.045,0.018
27.050,0.068
27.055,0.069
27.060,0.105
27.065,0.163
27.070,0.164
27.075,0.168
27.080,0.218
27.085,0.227
27.090,0.204
27.095,0.232
27.100,0.251
27.105,0.217
27.110,0.218
27.115,0.242
27.120,0.212
27.125,0.188
27.130,0.213
27.135,0.200
27.140,0.161
27.145,0.174
27.150,0.182
27.155,0.139
27.160,0.134
27.165,0.157
27.170,0.126
27.175,0.101
27.180,0.127
27.185,0.116
27.190,0.079
27.195,0.096
27.200,0.109
27.205,0.071
27.210,0.069
27.215,0.095
27.220,0.068
27.225,0.047
27.230,0.076
27.235,0.070
27.240,0.037
27.245,0.056
27.250,0.069
27.255,0.032
27.260,0.032
27.265,0.060
27.270,0.035
27.275,0.015
27.280,0.044
27.285,0.037
27.290,0.004
27.295,0.022
27.300,0.034
27.305,-0.006
27.310,-0.008
27.315,0.019
27.320,-0.005
27.325,-0.022
27.330,0.008
27.335,-0.002
27.340,-0.038
27.345,-0.015
27.350,0.003
27.355,-0.034
27.360,-0.029
27.365,0.005
27.370,-0.024
27.375,-0.052
27.380,-0.021
27.385,-0.016
27.390,-0.042
27.395,-0.028
27.400,-0.027
27.405,-0.076
27.410,-0.083
27.415,-0.061
27.420,-0.089
27.425,-0.106
27.430,-0.067
27.435,-0.070
27.440,-0.115
27.445,-0.113
27.450,-0.111
27.455,-0.143
27.460,-0.109
27.465,-0.055
27.470,-0.078
27.475,-0.097
27.480,-0.056
27.485,-0.041
27.490,-0.061
27.495,-0.034
27.500,-0.001
27.505,-0.016
27.510,0.000
27.515,0.045
27.520,0.033
27.525,0.008
27.530,0.026
27.535,0.023
27.540,-0.002
27.545,0.022
27.550,0.034
27.555,-0.004
27.560,0.004
27.565,0.053
27.570,0.048
27.575,0.023
27.580,-0.002
27.585,-0.109
27.590,-0.262
27.595,-0.389
27.600,-0.539
27.605,-0.695
27.610,-0.730
27.615,-0.666
27.620,-0.609
27.625,-0.474
27.630,-0.240
27.635,-0.039
27.640,0.157
27.645,0.352
27.650,0.439
27.655,0.432
27.660,0.421
27.665,0.410
27.670,0.365
27.675,0.343
27.680,0.349
27.685,0.283
27.690,0.190
27.695,0.171
27.700,0.155
27.705,0.090
27.710,0.056
27.715,0.053
27.720,0.013
27.725,-0.016
27.730,0.019
27.735,0.033
27.740,0.000
27.745,-0.002
27.750,0.002
27.755,-0.033
27.760,-0.031
27.765,0.000
27.770,-0.027
27.775,-0.064
27.780,-0.048
27.785,-0.054
27.790,-0.085
27.795,-0.067
27.800,-0.053
27.805,-0.093
27.810,-0.106
27.815,-0.092
27.820,-0.127
27.825,-0.161
27.830,-0.139
27.835,-0.131
27.840,-0.155
27.845,-0.142
27.850,-0.129
27.855,-0.169
27.860,-0.180
27.865,-0.153
27.870,-0.179
27.875,-0.208
27.880,-0.167
27.885,-0.151
27.890,-0.178
27.895,-0.157
27.900,-0.134
27.905,-0.155
27.910,-0.138
27.915,-0.079
27.920,-0.064
27.925,-0.060
27.930,-0.005
27.935,0.030
27.940,0.032
27.945,0.086
27.950,0.149
27.955,0.149
27.960,0.163
27.965,0.205
27.970,0.193
27.975,0.179
27.980,0.226
27.985,0.242
27.990,0.205
27.995,0.219
28.000,0.249
28.005,0.218
28.010,0.202
28.015,0.215
28.020,0.175
28.025,0.142
28.030,0.183
28.035,0.188
28.040,0.141
28.045,0.150
28.050,0.155
28.055,0.104
28.060,0.098
28.065,0.140
28.070,0.123
28.075,0.084
28.080,0.097
28.085,0.102
28.090,0.074
28.095,0.077
28.100,0.085
28.105,0.051
28.110,0.050
28.115,0.085
28.120,0.060
28.125,0.032
28.130,0.066
28.135,0.074
28.140,0.034
28.145,0.046
28.150,0.070
28.155,0.032
28.160,0.012
28.165,0.032
28.170,0.016
28.175,0.008
28.180,0.043
28.185,0.039
28.190,-0.001
28.195,0.015
28.200,0.035
28.205,-0.004
28.210,-0.011
28.215,0.028
28.220,0.003
28.225,-0.041
28.230,-0.014
28.235,-0.001
28.240,-0.026
28.245,0.002
28.250,0.026
28.255,-0.031
28.260,-0.061
28.265,-0.022
28.270,-0.011
28.275,-0.024
28.280,-0.020
28.285,-0.054
28.290,-0.112
28.295,-0.097
28.300,-0.060
28.305,-0.071
28.310,-0.071
28.315,-0.061
28.320,-0.102
28.325,-0.140
28.330,-0.123
28.335,-0.102
28.340,-0.097
28.345,-0.073
28.350,-0.054
28.355,-0.075
28.360,-0.065
28.365,-0.024
28.370,-0.028
28.375,-0.031
28.380,0.015
28.385,0.020
28.390,-0.019
28.395,0.012
28.400,0.063
28.405,0.031
28.410,0.012
28.415,0.036
28.420,0.006
28.425,-0.013
28.430,0.031
28.435,0.028
28.440,-0.015
28.445,0.024
28.450,0.076
28.455,0.016
28.460,-0.085
28.465,-0.170
28.470,-0.329
28.475,-0.542
28.480,-0.681
28.485,-0.751
28.490,-0.753
28.495,-0.628
28.500,-0.449
28.505,-0.312
28.510,-0.146
28.515,0.104
28.520,0.277
28.525,0.351
28.530,0.451
28.535,0.482
28.540,0.407
28.545,0.370
28.550,0.363
28.555,0.302
28.560,0.252
28.565,0.251
28.570,0.214
28.575,0.148
28.580,0.124
28.585,0.087
28.590,0.015
28.595,0.004
28.600,0.025
28.605,-0.002
28.610,-0.003
28.615,0.038
28.620,0.019
28.625,-0.033
28.630,-0.023
28.635,-0.016
28.640,-0.051
28.645,-0.044
28.650,-0.032
28.655,-0.079
28.660,-0.087
28.665,-0.042
28.670,-0.055
28.675,-0.095
28.680,-0.085
28.685,-0.088
28.690,-0.125
28.695,-0.124
28.700,-0.116
28.705,-0.147
28.710,-0.150
28.715,-0.126
28.720,-0.155
28.725,-0.182
28.730,-0.149
28.735,-0.143
28.740,-0.180
28.745,-0.170
28.750,-0.150
28.755,-0.179
28.760,-0.182
28.765,-0.148
28.770,-0.163
28.775,-0.183
28.780,-0.142
28.785,-0.124
28.790,-0.139
28.795,-0.092
28.800,-0.029
28.805,-0.026
28.810,-0.006
28.815,0.056
28.820,0.079
28.825,0.091
28.830,0.145
28.835,0.174
28.840,0.166
28.845,0.194
28.850,0.226
28.855,0.203
28.860,0.200
28.865,0.237
28.870,0.231
28.875,0.206
28.880,0.224
28.885,0.215
28.890,0.173
28.895,0.189
28.900,0.212
28.905,0.167
28.910,0.148
28.915,0.179
28.920,0.162
28.925,0.128
28.930,0.143
28.935,0.141
28.940,0.107
28.945,0.119
28.950,0.134
28.955,0.095
28.960,0.078
28.965,0.105
28.970,0.085
28.975,0.049
28.980,0.070
28.985,0.076
28.990,0.043
28.995,0.054
29.000,0.076
29.005,0.047
29.010,0.039
29.015,0.069
29.020,0.050
29.025,0.017
29.030,0.039
29.035,0.044
29.040,0.004
29.045,0.011
29.050,0.039
29.055,0.016
29.060,0.012
29.065,0.045
29.070,0.026
29.075,-0.010
29.080,0.010
29.085,0.014
29.090,-0.020
29.095,-0.004
29.100,0.022
29.105,-0.010
29.110,-0.023
29.115,0.005
29.120,-0.011
29.125,-0.039
29.130,-0.010
29.135,-0.001
29.140,-0.034
29.145,-0.025
29.150,-0.004
29.155,-0.037
29.160,-0.052
29.165,-0.030
29.170,-0.059
29.175,-0.100
29.180,-0.079
29.185,-0.069
29.190,-0.099
29.195,-0.086
29.200,-0.069
29.205,-0.110
29.210,-0.132
29.215,-0.099
29.220,-0.087
29.225,-0.095
29.230,-0.067
29.235,-0.052
29.240,-0.076
29.245,-0.061
29.250,-0.025
29.255,-0.034
29.260,-0.022
29.265,0.028
29.270,0.028
29.275,0.005
29.280,0.033
29.285,0.043
29.290,0.009
29.295,0.016
29.300,0.040
29.305,0.012
29.310,0.000
29.315,0.032
29.320,0.021
29.325,0.004
29.330,0.056
29.335,0.078
29.340,-0.013
29.345,-0.123
29.350,-0.234
29.355,-0.423
29.360,-0.622
29.365,-0.734
29.370,-0.784
29.375,-0.755
29.380,-0.609
29.385,-0.407
29.390,-0.232
29.395,-0.044
29.400,0.183
29.405,0.325
29.410,0.401
29.415,0.481
29.420,0.464
29.425,0.387
29.430,0.375
29.435,0.367
29.440,0.298
29.445,0.255
29.450,0.242
29.455,0.178
29.460,0.122
29.465,0.114
29.470,0.069
29.475,0.018
29.480,0.036
29.485,0.041
29.490,-0.001
29.495,0.000
29.500,0.021
29.505,-0.011
29.510,-0.028
29.515,0.000
29.520,-0.017
29.525,-0.052
29.530,-0.033
29.535,-0.029
29.540,-0.070
29.545,-0.069
29.550,-0.049
29.555,-0.085
29.560,-0.105
29.565,-0.080
29.570,-0.098
29.575,-0.135
29.580,-0.118
29.585,-0.115
29.590,-0.157
29.595,-0.157
29.600,-0.137
29.605,-0.170
29.610,-0.186
29.615,-0.156
29.620,-0.167
29.625,-0.197
29.630,-0.171
29.635,-0.157
29.640,-0.189
29.645,-0.178
29.650,-0.145
29.655,-0.164
29.660,-0.168
29.665,-0.120
29.670,-0.110
29.675,-0.115
29.680,-0.061
29.685,-0.016
29.690,-0.016
29.695,0.026
29.700,0.090
29.705,0.097
29.710,0.113
29.715,0.173
29.720,0.189
29.725,0.178
29.730,0.218
29.735,0.240
29.740,0.212
29.745,0.221
29.750,0.249
29.755,0.220
29.760,0.202
29.765,0.230
29.770,0.216
29.775,0.178
29.780,0.196
29.785,0.201
29.790,0.159
29.795,0.158
29.800,0.178
29.805,0.143
29.810,0.122
29.815,0.147
29.820,0.132
29.825,0.095
29.830,0.113
29.835,0.119
29.840,0.079
29.845,0.081
29.850,0.105
29.855,0.075
29.860,0.056
29.865,0.086
29.870,0.075
29.875,0.042
29.880,0.065
29.885,0.076
29.890,0.039
29.895,0.043
29.900,0.070
29.905,0.042
29.910,0.025
29.915,0.056
29.920,0.047
29.925,0.015
29.930,0.038
29.935,0.048
29.940,0.011
29.945,0.015
29.950,0.042
29.955,0.013
29.960,-0.004
29.965,0.026
29.970,0.017
29.975,-0.016
29.980,0.006
29.985,0.017
29.990,-0.020
29.995,-0.016
30.000,0.012
30.005,-0.016
30.010,-0.033
30.015,-0.001
30.020,-0.010
30.025,-0.042
30.030,-0.019
30.035,-0.006
30.040,-0.042
30.045,-0.042
30.050,-0.023
30.055,-0.067
30.060,-0.101
30.065,-0.077
30.070,-0.082
30.075,-0.106
30.080,-0.077
30.085,-0.069
30.090,-0.120
30.095,-0.130
30.100,-0.107
30.105,-0.110
30.110,-0.096
30.115,-0.061
30.120,-0.069
30.125,-0.092
30.130,-0.059
30.135,-0.035
30.140,-0.055
30.145,-0.028
30.150,0.022
30.155,0.010
30.160,0.003
30.165,0.040
30.170,0.033
30.175,0.003
30.180,0.026
30.185,0.038
30.190,0.001
30.195,0.003
30.200,0.030
30.205,0.003
30.210,-0.007
30.215,0.046
30.220,0.064
30.225,0.016
30.230,-0.054
30.235,-0.171
30.240,-0.354
30.245,-0.529
30.250,-0.669
30.255,-0.784
30.260,-0.793
30.265,-0.672
30.270,-0.517
30.275,-0.340
30.280,-0.126
30.285,0.077
30.290,0.246
30.295,0.386
30.300,0.485
30.305,0.473
30.310,0.402
30.315,0.392
30.320,0.383
30.325,0.327
30.330,0.294
30.335,0.260
30.340,0.187
30.345,0.147
30.350,0.134
30.355,0.069
30.360,0.024
30.365,0.046
30.370,0.036
30.375,-0.006
30.380,0.009
30.385,0.019
30.390,-0.022
30.395,-0.021
30.400,0.011
30.405,-0.015
30.410,-0.038
30.415,-0.013
30.420,-0.028
30.425,-0.072
30.430,-0.057
30.435,-0.043
30.440,-0.078
30.445,-0.084
30.450,-0.068
30.455,-0.097
30.460,-0.116
30.465,-0.095
30.470,-0.121
30.475,-0.167
30.480,-0.142
30.485,-0.119
30.490,-0.167
30.495,-0.197
30.500,-0.176
30.505,-0.180
30.510,-0.181
30.515,-0.144
30.520,-0.153
30.525,-0.200
30.530,-0.192
30.535,-0.174
30.540,-0.186
30.545,-0.155
30.550,-0.108
30.555,-0.122
30.560,-0.123
30.565,-0.070
30.570,-0.048
30.575,-0.040
30.580,0.018
30.585,0.064
30.590,0.066
30.595,0.111
30.600,0.175
30.605,0.169
30.610,0.164
30.615,0.208
30.620,0.213
30.625,0.195
30.630,0.232
30.635,0.254
30.640,0.218
30.645,0.219
30.650,0.248
30.655,0.222
30.660,0.192
30.665,0.209
30.670,0.196
30.675,0.159
30.680,0.175
30.685,0.185
30.690,0.141
30.695,0.133
30.700,0.158
30.705,0.125
30.710,0.096
30.715,0.126
30.720,0.121
30.725,0.085
30.730,0.101
30.735,0.112
30.740,0.073
30.745,0.083
30.750,0.112
30.755,0.066
30.760,0.029
30.765,0.067
30.770,0.074
30.775,0.036
30.780,0.054
30.785,0.084
30.790,0.062
30.795,0.049
30.800,0.059
30.805,0.027
30.810,-0.001
30.815,0.033
30.820,0.046
30.825,0.027
30.830,0.044
30.835,0.048
30.840,-0.002
30.845,-0.016
30.850,0.018
30.855,0.010
30.860,-0.006
30.865,0.023
30.870,0.013
30.875,-0.033
30.880,-0.016
30.885,0.010
30.890,-0.022
30.895,-0.022
30.900,0.011
30.905,-0.021
30.910,-0.059
30.915,-0.026
30.920,-0.015
30.925,-0.060
30.930,-0.070
30.935,-0.064
30.940,-0.089
30.945,-0.087
30.950,-0.059
30.955,-0.090
30.960,-0.124
30.965,-0.094
30.970,-0.103
30.975,-0.135
30.980,-0.094
30.985,-0.064
30.990,-0.090
30.995,-0.079
31.000,-0.043
31.005,-0.056
31.010,-0.052
31.015,0.005
31.020,0.009
31.025,-0.028
31.030,0.004
31.035,0.047
31.040,0.023
31.045,0.018
31.050,0.052
31.055,0.031
31.060,-0.012
31.065,0.003
31.070,0.011
31.075,-0.011
31.080,0.017
31.085,0.058
31.090,0.039
31.095,0.018
31.100,-0.026
31.105,-0.156
31.110,-0.299
31.115,-0.419
31.120,-0.581
31.125,-0.734
31.130,-0.762
31.135,-0.694
31.140,-0.591
31.145,-0.404
31.150,-0.175
31.155,0.023
31.160,0.213
31.165,0.361
31.170,0.424
31.175,0.428
31.180,0.429
31.185,0.408
31.190,0.333
31.195,0.301
31.200,0.308
31.205,0.260
31.210,0.211
31.215,0.189
31.220,0.123
31.225,0.049
31.230,0.043
31.235,0.051
31.240,0.016
31.245,-0.002
31.250,0.018
31.255,-0.001
31.260,-0.033
31.265,-0.002
31.270,0.006
31.275,-0.041
31.280,-0.036
31.285,-0.019
31.290,-0.057
31.295,-0.061
31.300,-0.035
31.305,-0.072
31.310,-0.094
31.315,-0.058
31.320,-0.072
31.325,-0.120
31.330,-0.108
31.335,-0.100
31.340,-0.149
31.345,-0.150
31.350,-0.112
31.355,-0.144
31.360,-0.174
31.365,-0.142
31.370,-0.148
31.375,-0.182
31.380,-0.158
31.385,-0.146
31.390,-0.191
31.395,-0.187
31.400,-0.144
31.405,-0.172
31.410,-0.201
31.415,-0.156
31.420,-0.136
31.425,-0.153
31.430,-0.123
31.435,-0.087
31.440,-0.087
31.445,-0.048
31.450,0.029
31.455,0.051
31.460,0.053
31.465,0.106
31.470,0.140
31.475,0.136
31.480,0.179
31.485,0.225
31.490,0.208
31.495,0.204
31.500,0.231
31.505,0.215
31.510,0.198
31.515,0.227
31.520,0.228
31.525,0.198
31.530,0.208
31.535,0.217
31.540,0.176
31.545,0.165
31.550,0.191
31.555,0.165
31.560,0.133
31.565,0.152
31.570,0.145
31.575,0.110
31.580,0.125
31.585,0.136
31.590,0.093
31.595,0.081
31.600,0.108
31.605,0.088
31.610,0.064
31.615,0.091
31.620,0.086
31.625,0.044
31.630,0.053
31.635,0.072
31.640,0.039
31.645,0.036
31.650,0.071
31.655,0.050
31.660,0.020
31.665,0.048
31.670,0.055
31.675,0.021
31.680,0.031
31.685,0.049
31.690,0.018
31.695,0.012
31.700,0.039
31.705,0.019
31.710,-0.005
31.715,0.027
31.720,0.032
31.725,-0.007
31.730,-0.004
31.735,0.012
31.740,-0.016
31.745,-0.018
31.750,0.016
31.755,0.000
31.760,-0.026
31.765,-0.003
31.770,-0.004
31.775,-0.038
31.780,-0.026
31.785,-0.009
31.790,-0.038
31.795,-0.039
31.800,-0.013
31.805,-0.051
31.810,-0.097
31.815,-0.075
31.820,-0.069
31.825,-0.098
31.830,-0.077
31.835,-0.063
31.840,-0.113
31.845,-0.131
31.850,-0.106
31.855,-0.106
31.860,-0.103
31.865,-0.069
31.870,-0.060
31.875,-0.078
31.880,-0.050
31.885,-0.022
31.890,-0.047
31.895,-0.034
31.900,0.019
31.905,0.017
31.910,0.000
31.915,0.029
31.920,0.033
31.925,0.002
31.930,0.017
31.935,0.038
31.940,0.008
31.945,0.002
31.950,0.035
31.955,0.019
31.960,0.000
31.965,0.050
31.970,0.072
31.975,0.001
31.980,-0.090
31.985,-0.195
31.990,-0.370
31.995,-0.560
32.000,-0.697
32.005,-0.786
32.010,-0.778
32.015,-0.645
32.020,-0.464
32.025,-0.291
32.030,-0.094
32.035,0.133
32.040,0.293
32.045,0.385
32.050,0.465
32.055,0.461
32.060,0.396
32.065,0.382
32.070,0.367
32.075,0.306
32.080,0.272
32.085,0.251
32.090,0.187
32.095,0.139
32.100,0.128
32.105,0.075
32.110,0.023
32.115,0.040
32.120,0.040
32.125,-0.001
32.130,0.005
32.135,0.022
32.140,-0.015
32.145,-0.026
32.150,0.003
32.155,-0.019
32.160,-0.051
32.165,-0.030
32.170,-0.031
32.175,-0.069
32.180,-0.061
32.185,-0.044
32.190,-0.083
32.195,-0.098
32.200,-0.074
32.205,-0.098
32.210,-0.131
32.215,-0.109
32.220,-0.113
32.225,-0.157
32.230,-0.152
32.235,-0.134
32.240,-0.168
32.245,-0.179
32.250,-0.149
32.255,-0.167
32.260,-0.194
32.265,-0.166
32.270,-0.160
32.275,-0.192
32.280,-0.175
32.285,-0.146
32.290,-0.170
32.295,-0.169
32.300,-0.125
32.305,-0.122
32.310,-0.123
32.315,-0.066
32.320,-0.027
32.325,-0.027
32.330,0.020
32.335,0.079
32.340,0.083
32.345,0.106
32.350,0.167
32.355,0.177
32.360,0.171
32.365,0.215
32.370,0.232
32.375,0.204
32.380,0.221
32.385,0.246
32.390,0.214
32.395,0.202
32.400,0.231
32.405,0.211
32.410,0.178
32.415,0.199
32.420,0.198
32.425,0.156
32.430,0.162
32.435,0.180
32.440,0.141
32.445,0.124
32.450,0.150
32.455,0.129
32.460,0.096
32.465,0.117
32.470,0.118
32.475,0.077
32.480,0.083
32.485,0.104
32.490,0.070
32.495,0.057
32.500,0.087
32.505,0.071
32.510,0.042
32.515,0.067
32.520,0.073
32.525,0.036
32.530,0.045
32.535,0.069
32.540,0.038
32.545,0.027
32.550,0.058
32.555,0.042
32.560,0.013
32.565,0.039
32.570,0.043
32.575,0.006
32.580,0.016
32.585,0.040
32.590,0.009
32.595,-0.003
32.600,0.027
32.605,0.013
32.610,-0.017
32.615,0.008
32.620,0.015
32.625,-0.020
32.630,-0.011
32.635,0.013
32.640,-0.017
32.645,-0.029
32.650,0.002
32.655,-0.011
32.660,-0.040
32.665,-0.014
32.670,-0.007
32.675,-0.045
32.680,-0.044
32.685,-0.036
32.690,-0.084
32.695,-0.103
32.700,-0.069
32.705,-0.076
32.710,-0.097
32.715,-0.077
32.720,-0.086
32.725,-0.135
32.730,-0.129
32.735,-0.083
32.740,-0.083
32.745,-0.090
32.750,-0.059
32.755,-0.063
32.760,-0.083
32.765,-0.047
32.770,-0.024
32.775,-0.037
32.780,-0.008
32.785,0.031
32.790,0.013
32.795,0.007
32.800,0.040
32.805,0.028
32.810,0.001
32.815,0.026
32.820,0.033
32.825,-0.003
32.830,0.005
32.835,0.031
32.840,0.008
32.845,0.017
32.850,0.075
32.855,0.048
32.860,-0.073
32.865,-0.178
32.870,-0.312
32.875,-0.530
32.880,-0.703
32.885,-0.779
32.890,-0.804
32.895,-0.731
32.900,-0.543
32.905,-0.343
32.910,-0.174
32.915,0.043
32.920,0.255
32.925,0.356
32.930,0.438
32.935,0.495
32.940,0.433
32.945,0.375
32.950,0.388
32.955,0.353
32.960,0.276
32.965,0.257
32.970,0.234
32.975,0.156
32.980,0.119
32.985,0.106
32.990,0.049
32.995,0.023
33.000,0.050
33.005,0.032
33.010,-0.003
33.015,0.017
33.020,0.021
33.025,-0.019
33.030,-0.016
33.035,0.005
33.040,-0.029
33.045,-0.049
33.050,-0.024
33.055,-0.043
33.060,-0.081
33.065,-0.062
33.070,-0.058
33.075,-0.099
33.080,-0.099
33.085,-0.080
33.090,-0.117
33.095,-0.136
33.100,-0.108
33.105,-0.126
33.110,-0.169
33.115,-0.155
33.120,-0.147
33.125,-0.181
33.130,-0.178
33.135,-0.158
33.140,-0.191
33.145,-0.204
33.150,-0.163
33.155,-0.166
33.160,-0.196
33.165,-0.170
33.170,-0.153
33.175,-0.175
33.180,-0.151
33.185,-0.106
33.190,-0.114
33.195,-0.099
33.200,-0.027
33.205,0.001
33.210,0.003
33.215,0.058
33.220,0.102
33.225,0.101
33.230,0.140
33.235,0.192
33.240,0.176
33.245,0.179
33.250,0.236
33.255,0.244
33.260,0.219
33.265,0.243
33.270,0.254
33.275,0.216
33.280,0.208
33.285,0.220
33.290,0.191
33.295,0.178
33.300,0.209
33.305,0.193
33.310,0.155
33.315,0.174
33.320,0.168
33.325,0.112
33.330,0.118
33.335,0.151
33.340,0.113
33.345,0.085
33.350,0.122
33.355,0.124
33.360,0.089
33.365,0.094
33.370,0.092
33.375,0.056
33.380,0.056
33.385,0.071
33.390,0.046
33.395,0.047
33.400,0.082
33.405,0.060
33.410,0.029
33.415,0.064
33.420,0.077
33.425,0.042
33.430,0.045
33.435,0.057
33.440,0.019
33.445,0.014
33.450,0.052
33.455,0.029
33.460,-0.011
33.465,0.022
33.470,0.045
33.475,0.008
33.480,0.004
33.485,0.018
33.490,-0.014
33.495,-0.015
33.500,0.030
33.505,0.015
33.510,-0.030
33.515,-0.019
33.520,-0.009
33.525,-0.027
33.530,-0.005
33.535,0.010
33.540,-0.033
33.545,-0.058
33.550,-0.043
33.555,-0.057
33.560,-0.084
33.565,-0.068
33.570,-0.060
33.575,-0.091
33.580,-0.087
33.585,-0.070
33.590,-0.118
33.595,-0.153
33.600,-0.108
33.605,-0.076
33.610,-0.086
33.615,-0.075
33.620,-0.061
33.625,-0.071
33.630,-0.046
33.635,-0.015
33.640,-0.040
33.645,-0.042
33.650,0.011
33.655,0.025
33.660,0.011
33.665,0.037
33.670,0.047
33.675,0.009
33.680,0.017
33.685,0.053
33.690,0.021
33.695,-0.018
33.700,0.000
33.705,0.007
33.710,0.007
33.715,0.061
33.720,0.082
33.725,-0.002
33.730,-0.100
33.735,-0.189
33.740,-0.355
33.745,-0.559
33.750,-0.706
33.755,-0.783
33.760,-0.764
33.765,-0.630
33.770,-0.453
33.775,-0.304
33.780,-0.121
33.785,0.118
33.790,0.281
33.795,0.376
33.800,0.475
33.805,0.480
33.810,0.404
33.815,0.377
33.820,0.359
33.825,0.289
33.830,0.249
33.835,0.250
33.840,0.203
33.845,0.141
33.850,0.128
33.855,0.088
33.860,0.020
33.865,0.020
33.870,0.041
33.875,0.011
33.880,0.009
33.885,0.031
33.890,-0.006
33.895,-0.036
33.900,-0.015
33.905,-0.020
33.910,-0.038
33.915,-0.020
33.920,-0.029
33.925,-0.076
33.930,-0.068
33.935,-0.037
33.940,-0.075
33.945,-0.113
33.950,-0.093
33.955,-0.093
33.960,-0.115
33.965,-0.105
33.970,-0.114
33.975,-0.159
33.980,-0.163
33.985,-0.137
33.990,-0.155
33.995,-0.173
34.000,-0.150
34.005,-0.160
34.010,-0.192
34.015,-0.170
34.020,-0.155
34.025,-0.190
34.030,-0.185
34.035,-0.148
34.040,-0.162
34.045,-0.174
34.050,-0.136
34.055,-0.121
34.060,-0.125
34.065,-0.071
34.070,-0.016
34.075,-0.019
34.080,0.000
34.085,0.059
34.090,0.082
34.095,0.101
34.100,0.157
34.105,0.177
34.110,0.173
34.115,0.216
34.120,0.234
34.125,0.201
34.130,0.218
34.135,0.252
34.140,0.216
34.145,0.187
34.150,0.217
34.155,0.211
34.160,0.172
34.165,0.190
34.170,0.203
34.175,0.166
34.180,0.157
34.185,0.172
34.190,0.148
34.195,0.126
34.200,0.143
34.205,0.125
34.210,0.084
34.215,0.100
34.220,0.113
34.225,0.076
34.230,0.075
34.235,0.105
34.240,0.080
34.245,0.054
34.250,0.081
34.255,0.074
34.260,0.035
34.265,0.049
34.270,0.065
34.275,0.031
34.280,0.029
34.285,0.060
34.290,0.046
34.295,0.033
34.300,0.063
34.305,0.052
34.310,0.012
34.315,0.028
34.320,0.043
34.325,0.008
34.330,0.011
34.335,0.038
34.340,0.012
34.345,-0.006
34.350,0.026
34.355,0.018
34.360,-0.021
34.365,0.000
34.370,0.021
34.375,-0.013
34.380,-0.017
34.385,0.011
34.390,-0.010
34.395,-0.029
34.400,0.000
34.405,-0.005
34.410,-0.039
34.415,-0.023
34.420,-0.014
34.425,-0.060
34.430,-0.081
34.435,-0.070
34.440,-0.088
34.445,-0.092
34.450,-0.056
34.455,-0.066
34.460,-0.111
34.465,-0.103
34.470,-0.099
34.475,-0.127
34.480,-0.097
34.485,-0.051
34.490,-0.075
34.495,-0.089
34.500,-0.051
34.505,-0.044
34.510,-0.061
34.515,-0.023
34.520,0.017
34.525,0.003
34.530,0.012
34.535,0.041
34.540,0.017
34.545,-0.001
34.550,0.033
34.555,0.029
34.560,-0.005
34.565,0.014
34.570,0.030
34.575,-0.004
34.580,0.000
34.585,0.043
34.590,0.045
34.595,0.028
34.600,-0.006
34.605,-0.125
34.610,-0.289
34.615,-0.437
34.620,-0.608
34.625,-0.775
34.630,-0.807
34.635,-0.715
34.640,-0.605
34.645,-0.425
34.650,-0.192
34.655,-0.009
34.660,0.173
34.665,0.343
34.670,0.429
34.675,0.438
34.680,0.429
34.685,0.416
34.690,0.363
34.695,0.322
34.700,0.318
34.705,0.268
34.710,0.198
34.715,0.184
34.720,0.160
34.725,0.086
34.730,0.050
34.735,0.057
34.740,0.029
34.745,0.005
34.750,0.030
34.755,0.023
34.760,-0.014
34.765,-0.001
34.770,0.010
34.775,-0.031
34.780,-0.038
34.785,-0.011
34.790,-0.037
34.795,-0.063
34.800,-0.039
34.805,-0.049
34.810,-0.088
34.815,-0.076
34.820,-0.068
34.825,-0.112
34.830,-0.121
34.835,-0.098
34.840,-0.125
34.845,-0.151
34.850,-0.127
34.855,-0.138
34.860,-0.178
34.865,-0.163
34.870,-0.148
34.875,-0.184
34.880,-0.187
34.885,-0.159
34.890,-0.179
34.895,-0.195
34.900,-0.160
34.905,-0.157
34.910,-0.184
34.915,-0.156
34.920,-0.125
34.925,-0.141
34.930,-0.122
34.935,-0.067
34.940,-0.059
34.945,-0.047
34.950,0.019
34.955,0.053
34.960,0.055
34.965,0.106
34.970,0.156
34.975,0.150
34.980,0.170
34.985,0.218
34.990,0.210
34.995,0.199
35.000,0.235
35.005,0.236
35.010,0.204
35.015,0.219
35.020,0.232
35.025,0.194
35.030,0.188
35.035,0.212
35.040,0.184
35.045,0.156
35.050,0.179
35.055,0.170
35.060,0.131
35.065,0.142
35.070,0.154
35.075,0.114
35.080,0.105
35.085,0.130
35.090,0.104
35.095,0.078
35.100,0.103
35.105,0.096
35.110,0.058
35.115,0.072
35.120,0.087
35.125,0.052
35.130,0.048
35.135,0.076
35.140,0.054
35.145,0.031
35.150,0.060
35.155,0.059
35.160,0.025
35.165,0.042
35.170,0.060
35.175,0.026
35.180,0.022
35.185,0.051
35.190,0.029
35.195,0.006
35.200,0.036
35.205,0.033
35.210,-0.002
35.215,0.014
35.220,0.032
35.225,-0.002
35.230,-0.005
35.235,0.024
35.240,0.002
35.245,-0.021
35.250,0.008
35.255,0.007
35.260,-0.028
35.265,-0.013
35.270,0.006
35.275,-0.027
35.280,-0.031
35.285,-0.001
35.290,-0.022
35.295,-0.045
35.300,-0.017
35.305,-0.024
35.310,-0.071
35.315,-0.074
35.320,-0.068
35.325,-0.101
35.330,-0.098
35.335,-0.061
35.340,-0.082
35.345,-0.117
35.350,-0.101
35.355,-0.110
35.360,-0.134
35.365,-0.086
35.370,-0.051
35.375,-0.087
35.380,-0.086
35.385,-0.045
35.390,-0.057
35.395,-0.067
35.400,-0.016
35.405,0.007
35.410,-0.011
35.415,0.018
35.420,0.044
35.425,0.012
35.430,0.009
35.435,0.041
35.440,0.022
35.445,-0.002
35.450,0.026
35.455,0.026
35.460,-0.008
35.465,0.011
35.470,0.045
35.475,0.040
35.480,0.044
35.485,0.014
35.490,-0.128
35.495,-0.290
35.500,-0.423
35.505,-0.609
35.510,-0.785
35.515,-0.811
35.520,-0.737
35.525,-0.646
35.530,-0.455
35.535,-0.212
35.540,-0.044
35.545,0.140
35.550,0.341
35.555,0.438
35.560,0.456
35.565,0.461
35.570,0.435
35.575,0.376
35.580,0.356
35.585,0.342
35.590,0.270
35.595,0.211
35.600,0.201
35.605,0.155
35.610,0.080
35.615,0.063
35.620,0.067
35.625,0.029
35.630,0.018
35.635,0.042
35.640,0.018
35.645,-0.011
35.650,0.014
35.655,0.011
35.660,-0.028
35.665,-0.019
35.670,-0.003
35.675,-0.040
35.680,-0.051
35.685,-0.027
35.690,-0.052
35.695,-0.083
35.700,-0.061
35.705,-0.067
35.710,-0.109
35.715,-0.102
35.720,-0.090
35.725,-0.131
35.730,-0.146
35.735,-0.124
35.740,-0.148
35.745,-0.179
35.750,-0.158
35.755,-0.162
35.760,-0.201
35.765,-0.190
35.770,-0.168
35.775,-0.197
35.780,-0.200
35.785,-0.166
35.790,-0.178
35.795,-0.197
35.800,-0.165
35.805,-0.152
35.810,-0.166
35.815,-0.124
35.820,-0.074
35.825,-0.073
35.830,-0.044
35.835,0.024
35.840,0.043
35.845,0.055
35.850,0.120
35.855,0.158
35.860,0.146
35.865,0.181
35.870,0.230
35.875,0.220
35.880,0.217
35.885,0.245
35.890,0.232
35.895,0.216
35.900,0.245
35.905,0.240
35.910,0.199
35.915,0.210
35.920,0.230
35.925,0.196
35.930,0.178
35.935,0.189
35.940,0.157
35.945,0.130
35.950,0.164
35.955,0.162
35.960,0.109
35.965,0.108
35.970,0.131
35.975,0.108
35.980,0.103
35.985,0.123
35.990,0.089
35.995,0.055
36.000,0.088
36.005,0.102
36.010,0.063
36.015,0.067
36.020,0.086
36.025,0.050
36.030,0.043
36.035,0.078
36.040,0.053
36.045,0.012
36.050,0.047
36.055,0.074
36.060,0.042
36.065,0.037
36.070,0.046
36.075,0.014
36.080,0.012
36.085,0.054
36.090,0.043
36.095,0.001
36.100,0.010
36.105,0.014
36.110,-0.016
36.115,0.002
36.120,0.031
36.125,0.003
36.130,-0.011
36.135,0.006
36.140,-0.022
36.145,-0.042
36.150,0.004
36.155,0.022
36.160,-0.020
36.165,-0.035
36.170,-0.031
36.175,-0.051
36.180,-0.035
36.185,0.000
36.190,-0.035
36.195,-0.086
36.200,-0.075
36.205,-0.073
36.210,-0.099
36.215,-0.079
36.220,-0.066
36.225,-0.112
36.230,-0.124
36.235,-0.100
36.240,-0.118
36.245,-0.114
36.250,-0.063
36.255,-0.063
36.260,-0.091
36.265,-0.062
36.270,-0.033
36.275,-0.055
36.280,-0.045
36.285,0.006
36.290,0.005
36.295,-0.015
36.300,0.020
36.305,0.043
36.310,0.020
36.315,0.028
36.320,0.045
36.325,0.008
36.330,-0.011
36.335,0.026
36.340,0.024
36.345,-0.004
36.350,0.029
36.355,0.061
36.360,0.033
36.365,-0.005
36.370,-0.082
36.375,-0.230
36.380,-0.375
36.385,-0.511
36.390,-0.677
36.395,-0.771
36.400,-0.723
36.405,-0.631
36.410,-0.499
36.415,-0.286
36.420,-0.077
36.425,0.102
36.430,0.286
36.435,0.424
36.440,0.457
36.445,0.428
36.450,0.419
36.455,0.395
36.460,0.336
36.465,0.317
36.470,0.294
36.475,0.221
36.480,0.181
36.485,0.169
36.490,0.108
36.495,0.050
36.500,0.054
36.505,0.051
36.510,0.009
36.515,0.009
36.520,0.024
36.525,-0.010
36.530,-0.018
36.535,0.024
36.540,0.007
36.545,-0.044
36.550,-0.034
36.555,-0.021
36.560,-0.051
36.565,-0.051
36.570,-0.043
36.575,-0.082
36.580,-0.095
36.585,-0.063
36.590,-0.078
36.595,-0.113
36.600,-0.094
36.605,-0.091
36.610,-0.147
36.615,-0.156
36.620,-0.134
36.625,-0.159
36.630,-0.160
36.635,-0.129
36.640,-0.158
36.645,-0.201
36.650,-0.182
36.655,-0.159
36.660,-0.177
36.665,-0.168
36.670,-0.143
36.675,-0.163
36.680,-0.173
36.685,-0.153
36.690,-0.156
36.695,-0.139
36.700,-0.074
36.705,-0.053
36.710,-0.072
36.715,-0.021
36.720,0.053
36.725,0.057
36.730,0.073
36.735,0.136
36.740,0.153
36.745,0.145
36.750,0.183
36.755,0.212
36.760,0.205
36.765,0.222
36.770,0.242
36.775,0.214
36.780,0.204
36.785,0.235
36.790,0.218
36.795,0.180
36.800,0.208
36.805,0.216
36.810,0.166
36.815,0.169
36.820,0.186
36.825,0.146
36.830,0.135
36.835,0.165
36.840,0.143
36.845,0.105
36.850,0.121
36.855,0.124
36.860,0.087
36.865,0.085
36.870,0.098
36.875,0.071
36.880,0.067
36.885,0.095
36.890,0.078
36.895,0.047
36.900,0.064
36.905,0.066
36.910,0.031
36.915,0.051
36.920,0.083
36.925,0.050
36.930,0.032
36.935,0.053
36.940,0.035
36.945,0.015
36.950,0.046
36.955,0.044
36.960,-0.006
36.965,0.010
36.970,0.057
36.975,0.028
36.980,0.003
36.985,0.027
36.990,0.013
36.995,-0.011
37.000,0.016
37.005,0.019
37.010,-0.024
37.015,-0.018
37.020,0.010
37.025,-0.016
37.030,-0.032
37.035,-0.001
37.040,-0.009
37.045,-0.034
37.050,-0.012
37.055,-0.009
37.060,-0.042
37.065,-0.029
37.070,-0.009
37.075,-0.051
37.080,-0.080
37.085,-0.064
37.090,-0.084
37.095,-0.113
37.100,-0.079
37.105,-0.058
37.110,-0.100
37.115,-0.109
37.120,-0.096
37.125,-0.132
37.130,-0.127
37.135,-0.067
37.140,-0.073
37.145,-0.095
37.150,-0.056
37.155,-0.042
37.160,-0.072
37.165,-0.052
37.170,-0.003
37.175,-0.005
37.180,-0.003
37.185,0.034
37.190,0.027
37.195,0.000
37.200,0.024
37.205,0.028
37.210,-0.010
37.215,0.000
37.220,0.029
37.225,0.003
37.230,-0.008
37.235,0.030
37.240,0.040
37.245,0.035
37.250,0.033
37.255,-0.061
37.260,-0.226
37.265,-0.361
37.270,-0.517
37.275,-0.716
37.280,-0.813
37.285,-0.760
37.290,-0.664
37.295,-0.513
37.300,-0.285
37.305,-0.098
37.310,0.069
37.315,0.272
37.320,0.402
37.325,0.427
37.330,0.433
37.335,0.428
37.340,0.374
37.345,0.324
37.350,0.324
37.355,0.288
37.360,0.210
37.365,0.187
37.370,0.175
37.375,0.106
37.380,0.057
37.385,0.058
37.390,0.031
37.395,-0.003
37.400,0.018
37.405,0.025
37.410,-0.014
37.415,-0.010
37.420,0.012
37.425,-0.020
37.430,-0.039
37.435,-0.014
37.440,-0.031
37.445,-0.065
37.450,-0.045
37.455,-0.041
37.460,-0.085
37.465,-0.086
37.470,-0.065
37.475,-0.097
37.480,-0.116
37.485,-0.093
37.490,-0.111
37.495,-0.144
37.500,-0.126
37.505,-0.124
37.510,-0.165
37.515,-0.164
37.520,-0.145
37.525,-0.175
37.530,-0.187
37.535,-0.152
37.540,-0.160
37.545,-0.188
37.550,-0.161
37.555,-0.145
37.560,-0.176
37.565,-0.166
37.570,-0.133
37.575,-0.148
37.580,-0.144
37.585,-0.088
37.590,-0.068
37.595,-0.065
37.600,-0.006
37.605,0.041
37.610,0.042
37.615,0.082
37.620,0.140
37.625,0.141
37.630,0.153
37.635,0.207
37.640,0.215
37.645,0.198
37.650,0.229
37.655,0.242
37.660,0.209
37.665,0.215
37.670,0.240
37.675,0.210
37.680,0.191
37.685,0.217
37.690,0.200
37.695,0.163
37.700,0.180
37.705,0.183
37.710,0.141
37.715,0.142
37.720,0.163
37.725,0.132
37.730,0.111
37.735,0.136
37.740,0.121
37.745,0.085
37.750,0.103
37.755,0.109
37.760,0.070
37.765,0.073
37.770,0.097
37.775,0.068
37.780,0.050
37.785,0.079
37.790,0.067
37.795,0.036
37.800,0.058
37.805,0.069
37.810,0.032
37.815,0.036
37.820,0.062
37.825,0.036
37.830,0.021
37.835,0.051
37.840,0.041
37.845,0.010
37.850,0.031
37.855,0.040
37.860,0.004
37.865,0.010
37.870,0.036
37.875,0.009
37.880,-0.008
37.885,0.022
37.890,0.012
37.895,-0.019
37.900,0.003
37.905,0.013
37.910,-0.023
37.915,-0.018
37.920,0.008
37.925,-0.020
37.930,-0.036
37.935,-0.004
37.940,-0.013
37.945,-0.044
37.950,-0.021
37.955,-0.008
37.960,-0.043
37.965,-0.037
37.970,-0.012
37.975,-0.044
37.980,-0.071
37.985,-0.058
37.990,-0.082
37.995,-0.115
38.000,-0.086
38.005,-0.066
38.010,-0.098
38.015,-0.103
38.020,-0.092
38.025,-0.128
38.030,-0.138
38.035,-0.076
38.040,-0.062
38.045,-0.095
38.050,-0.070
38.055,-0.048
38.060,-0.075
38.065,-0.060
38.070,-0.012
38.075,-0.014
38.080,-0.010
38.085,0.034
38.090,0.034
38.095,0.006
38.100,0.030
38.105,0.043
38.110,0.008
38.115,0.013
38.120,0.040
38.125,0.014
38.130,-0.003
38.135,0.031
38.140,0.036
38.145,0.031
38.150,0.066
38.155,0.027
38.160,-0.126
38.165,-0.256
38.170,-0.384
38.175,-0.596
38.180,-0.764
38.185,-0.786
38.190,-0.751
38.195,-0.670
38.200,-0.458
38.205,-0.229
38.210,-0.077
38.215,0.132
38.220,0.341
38.225,0.420
38.230,0.459
38.235,0.487
38.240,0.432
38.245,0.370
38.250,0.377
38.255,0.348
38.260,0.260
38.265,0.229
38.270,0.218
38.275,0.146
38.280,0.088
38.285,0.085
38.290,0.059
38.295,0.023
38.300,0.040
38.305,0.046
38.310,0.006
38.315,0.005
38.320,0.027
38.325,-0.003
38.330,-0.024
38.335,0.003
38.340,-0.011
38.345,-0.048
38.350,-0.031
38.355,-0.025
38.360,-0.065
38.365,-0.068
38.370,-0.048
38.375,-0.081
38.380,-0.106
38.385,-0.083
38.390,-0.098
38.395,-0.137
38.400,-0.124
38.405,-0.119
38.410,-0.162
38.415,-0.166
38.420,-0.145
38.425,-0.175
38.430,-0.194
38.435,-0.166
38.440,-0.173
38.445,-0.202
38.450,-0.178
38.455,-0.161
38.460,-0.190
38.465,-0.181
38.470,-0.146
38.475,-0.160
38.480,-0.160
38.485,-0.108
38.490,-0.088
38.495,-0.090
38.500,-0.035
38.505,0.014
38.510,0.016
38.515,0.056
38.520,0.119
38.525,0.126
38.530,0.138
38.535,0.194
38.540,0.208
38.545,0.195
38.550,0.229
38.555,0.250
38.560,0.220
38.565,0.226
38.570,0.253
38.575,0.225
38.580,0.203
38.585,0.228
38.590,0.214
38.595,0.174
38.600,0.188
38.605,0.194
38.610,0.152
38.615,0.148
38.620,0.169
38.625,0.138
38.630,0.114
38.635,0.139
38.640,0.126
38.645,0.089
38.650,0.105
38.655,0.113
38.660,0.075
38.665,0.075
38.670,0.100
38.675,0.069
38.680,0.047
38.685,0.077
38.690,0.072
38.695,0.038
38.700,0.058
38.705,0.072
38.710,0.034
38.715,0.032
38.720,0.065
38.725,0.045
38.730,0.024
38.735,0.050
38.740,0.045
38.745,0.016
38.750,0.038
38.755,0.049
38.760,0.006
38.765,0.002
38.770,0.032
38.775,0.012
38.780,-0.007
38.785,0.017
38.790,0.006
38.795,-0.026
38.800,-0.002
38.805,0.014
38.810,-0.026
38.815,-0.033
38.820,-0.004
38.825,-0.018
38.830,-0.034
38.835,-0.010
38.840,-0.024
38.845,-0.064
38.850,-0.045
38.855,-0.013
38.860,-0.030
38.865,-0.033
38.870,-0.013
38.875,-0.036
38.880,-0.061
38.885,-0.060
38.890,-0.100
38.895,-0.140
38.900,-0.101
38.905,-0.063
38.910,-0.084
38.915,-0.100
38.920,-0.107
38.925,-0.145
38.930,-0.154
38.935,-0.089
38.940,-0.063
38.945,-0.095
38.950,-0.076
38.955,-0.051
38.960,-0.073
38.965,-0.063
38.970,-0.029
38.975,-0.033
38.980,-0.025
38.985,0.027
38.990,0.043
38.995,0.019
39.000,0.029
39.005,0.037
39.010,0.002
39.015,-0.001
39.020,0.026
39.025,0.012
39.030,0.004
39.035,0.033
39.040,0.032
39.045,0.017
39.050,0.052
39.055,0.040
39.060,-0.091
39.065,-0.214
39.070,-0.319
39.075,-0.513
39.080,-0.688
39.085,-0.728
39.090,-0.709
39.095,-0.653
39.100,-0.476
39.105,-0.264
39.110,-0.120
39.115,0.079
39.120,0.304
39.125,0.393
39.130,0.428
39.135,0.471
39.140,0.425
39.145,0.349
39.150,0.356
39.155,0.348
39.160,0.260
39.165,0.213
39.170,0.213
39.175,0.149
39.180,0.086
39.185,0.081
39.190,0.050
39.195,0.007
39.200,0.025
39.205,0.035
39.210,-0.010
39.215,-0.015
39.220,0.026
39.225,0.005
39.230,-0.029
39.235,-0.008
39.240,-0.021
39.245,-0.060
39.250,-0.038
39.255,-0.030
39.260,-0.072
39.265,-0.074
39.270,-0.048
39.275,-0.076
39.280,-0.109
39.285,-0.094
39.290,-0.105
39.295,-0.138
39.300,-0.111
39.305,-0.090
39.310,-0.138
39.315,-0.168
39.320,-0.160
39.325,-0.181
39.330,-0.184
39.335,-0.137
39.340,-0.145
39.345,-0.191
39.350,-0.168
39.355,-0.145
39.360,-0.186
39.365,-0.189
39.370,-0.151
39.375,-0.157
39.380,-0.151
39.385,-0.098
39.390,-0.085
39.395,-0.092
39.400,-0.046
39.405,-0.018
39.410,-0.024
39.415,0.028
39.420,0.103
39.425,0.117
39.430,0.125
39.435,0.175
39.440,0.192
39.445,0.171
39.450,0.205
39.455,0.249
39.460,0.224
39.465,0.206
39.470,0.226
39.475,0.213
39.480,0.203
39.485,0.236
39.490,0.222
39.495,0.169
39.500,0.173
39.505,0.187
39.510,0.152
39.515,0.139
39.520,0.161
39.525,0.147
39.530,0.132
39.535,0.148
39.540,0.123
39.545,0.079
39.550,0.098
39.555,0.117
39.560,0.078
39.565,0.067
39.570,0.097
39.575,0.079
39.580,0.057
39.585,0.082
39.590,0.071
39.595,0.032
39.600,0.056
39.605,0.086
39.610,0.048
39.615,0.035
39.620,0.061
39.625,0.041
39.630,0.027
39.635,0.057
39.640,0.038
39.645,0.000
39.650,0.035
39.655,0.064
39.660,0.014
39.665,-0.009
39.670,0.024
39.675,0.013
39.680,0.001
39.685,0.036
39.690,0.030
39.695,-0.013
39.700,-0.002
39.705,0.014
39.710,-0.027
39.715,-0.035
39.720,0.012
39.725,0.013
39.730,-0.012
39.735,0.002
39.740,-0.010
39.745,-0.049
39.750,-0.029
39.755,-0.002
39.760,-0.031
39.765,-0.032
39.770,-0.006
39.775,-0.037
39.780,-0.076
39.785,-0.068
39.790,-0.083
39.795,-0.113
39.800,-0.087
39.805,-0.066
39.810,-0.104
39.815,-0.113
39.820,-0.096
39.825,-0.130
39.830,-0.131
39.835,-0.069
39.840,-0.065
39.845,-0.099
39.850,-0.075
39.855,-0.042
39.860,-0.057
39.865,-0.048
39.870,0.001
39.875,0.007
39.880,0.000
39.885,0.035
39.890,0.038
39.895,0.005
39.900,0.020
39.905,0.034
39.910,-0.001
39.915,0.002
39.920,0.038
39.925,0.020
39.930,-0.001
39.935,0.036
39.940,0.057
39.945,0.043
39.950,0.032
39.955,-0.040
39.960,-0.183
39.965,-0.319
39.970,-0.478
39.975,-0.680
39.980,-0.787
39.985,-0.735
39.990,-0.635
39.995,-0.505
40.000,-0.302
40.005,-0.102
40.010,0.081
40.015,0.275
40.020,0.407
40.025,0.438
40.030,0.435
40.035,0.431
40.040,0.390
40.045,0.336
40.050,0.328
40.055,0.304
40.060,0.226
40.065,0.190
40.070,0.183
40.075,0.119
40.080,0.056
40.085,0.055
40.090,0.043
40.095,0.010
40.100,0.023
40.105,0.035
40.110,-0.004
40.115,-0.015
40.120,0.009
40.125,-0.011
40.130,-0.037
40.135,-0.015
40.140,-0.021
40.145,-0.059
40.150,-0.050
40.155,-0.039
40.160,-0.080
40.165,-0.090
40.170,-0.062
40.175,-0.087
40.180,-0.115
40.185,-0.092
40.190,-0.099
40.195,-0.142
40.200,-0.134
40.205,-0.118
40.210,-0.154
40.215,-0.161
40.220,-0.134
40.225,-0.157
40.230,-0.181
40.235,-0.152
40.240,-0.152
40.245,-0.185
40.250,-0.168
40.255,-0.149
40.260,-0.180
40.265,-0.179
40.270,-0.138
40.275,-0.147
40.280,-0.156
40.285,-0.104
40.290,-0.077
40.295,-0.082
40.300,-0.033
40.305,0.021
40.310,0.024
40.315,0.055
40.320,0.118
40.325,0.128
40.330,0.131
40.335,0.182
40.340,0.200
40.345,0.181
40.350,0.207
40.355,0.230
40.360,0.198
40.365,0.194
40.370,0.224
40.375,0.203
40.380,0.177
40.385,0.202
40.390,0.198
40.395,0.159
40.400,0.170
40.405,0.182
40.410,0.143
40.415,0.133
40.420,0.158
40.425,0.132
40.430,0.105
40.435,0.129
40.440,0.125
40.445,0.086
40.450,0.096
40.455,0.110
40.460,0.073
40.465,0.064
40.470,0.093
40.475,0.072
40.480,0.047
40.485,0.074
40.490,0.074
40.495,0.038
40.500,0.051
40.505,0.069
40.510,0.035
40.515,0.028
40.520,0.057
40.525,0.039
40.530,0.016
40.535,0.045
40.540,0.045
40.545,0.009
40.550,0.022
40.555,0.041
40.560,0.006
40.565,0.000
40.570,0.029
40.575,0.009
40.580,-0.013
40.585,0.016
40.590,0.015
40.595,-0.021
40.600,-0.006
40.605,0.013
40.610,-0.020
40.615,-0.025
40.620,0.005
40.625,-0.015
40.630,-0.038
40.635,-0.009
40.640,-0.009
40.645,-0.043
40.650,-0.028
40.655,-0.009
40.660,-0.041
40.665,-0.046
40.670,-0.014
40.675,-0.033
40.680,-0.060
40.685,-0.041
40.690,-0.056
40.695,-0.106
40.700,-0.098
40.705,-0.073
40.710,-0.098
40.715,-0.096
40.720,-0.071
40.725,-0.104
40.730,-0.139
40.735,-0.115
40.740,-0.090
40.745,-0.094
40.750,-0.076
40.755,-0.056
40.760,-0.079
40.765,-0.075
40.770,-0.035
40.775,-0.039
40.780,-0.037
40.785,0.014
40.790,0.030
40.795,0.006
40.800,0.026
40.805,0.046
40.810,0.015
40.815,0.011
40.820,0.042
40.825,0.024
40.830,0.000
40.835,0.027
40.840,0.030
40.845,0.005
40.850,0.043
40.855,0.086
40.860,0.025
40.865,-0.085
40.870,-0.187
40.875,-0.352
40.880,-0.558
40.885,-0.698
40.890,-0.773
40.895,-0.783
40.900,-0.673
40.905,-0.479
40.910,-0.296
40.915,-0.112
40.920,0.113
40.925,0.287
40.930,0.381
40.935,0.474
40.940,0.492
40.945,0.415
40.950,0.389
40.955,0.395
40.960,0.333
40.965,0.275
40.970,0.266
40.975,0.214
40.980,0.144
40.985,0.127
40.990,0.092
40.995,0.034
41.000,0.039
41.005,0.055
41.010,0.018
41.015,0.006
41.020,0.032
41.025,0.009
41.030,-0.020
41.035,0.004
41.040,0.001
41.045,-0.039
41.050,-0.031
41.055,-0.016
41.060,-0.053
41.065,-0.065
41.070,-0.041
41.075,-0.064
41.080,-0.096
41.085,-0.074
41.090,-0.078
41.095,-0.121
41.100,-0.115
41.105,-0.101
41.110,-0.139
41.115,-0.153
41.120,-0.128
41.125,-0.152
41.130,-0.183
41.135,-0.158
41.140,-0.158
41.145,-0.192
41.150,-0.177
41.155,-0.154
41.160,-0.182
41.165,-0.184
41.170,-0.148
41.175,-0.158
41.180,-0.174
41.185,-0.133
41.190,-0.113
41.195,-0.125
41.200,-0.083
41.205,-0.030
41.210,-0.027
41.215,0.001
41.220,0.068
41.225,0.087
41.230,0.095
41.235,0.153
41.240,0.183
41.245,0.170
41.250,0.201
41.255,0.236
41.260,0.214
41.265,0.213
41.270,0.247
41.275,0.229
41.280,0.201
41.285,0.225
41.290,0.224
41.295,0.183
41.300,0.190
41.305,0.205
41.310,0.168
41.315,0.154
41.320,0.178
41.325,0.155
41.330,0.124
41.335,0.146
41.340,0.143
41.345,0.103
41.350,0.111
41.355,0.128
41.360,0.093
41.365,0.083
41.370,0.110
41.375,0.091
41.380,0.063
41.385,0.088
41.390,0.090
41.395,0.053
41.400,0.065
41.405,0.085
41.410,0.052
41.415,0.042
41.420,0.072
41.425,0.055
41.430,0.028
41.435,0.054
41.440,0.057
41.445,0.021
41.450,0.032
41.455,0.052
41.460,0.019
41.465,0.009
41.470,0.039
41.475,0.022
41.480,-0.006
41.485,0.020
41.490,0.023
41.495,-0.013
41.500,-0.003
41.505,0.017
41.510,-0.016
41.515,-0.026
41.520,0.004
41.525,-0.014
41.530,-0.043
41.535,-0.020
41.540,-0.015
41.545,-0.047
41.550,-0.036
41.555,-0.018
41.560,-0.049
41.565,-0.053
41.570,-0.016
41.575,-0.032
41.580,-0.064
41.585,-0.036
41.590,-0.032
41.595,-0.080
41.600,-0.088
41.605,-0.080
41.610,-0.116
41.615,-0.119
41.620,-0.077
41.625,-0.091
41.630,-0.134
41.635,-0.127
41.640,-0.126
41.645,-0.144
41.650,-0.098
41.655,-0.060
41.660,-0.091
41.665,-0.089
41.670,-0.049
41.675,-0.059
41.680,-0.077
41.685,-0.028
41.690,0.007
41.695,-0.014
41.700,-0.007
41.705,0.014
41.710,-0.002
41.715,0.013
41.720,0.054
41.725,0.032
41.730,0.001
41.735,0.027
41.740,0.027
41.745,-0.013
41.750,-0.002
41.755,0.032
41.760,0.033
41.765,0.042
41.770,0.020
41.775,-0.113
41.780,-0.271
41.785,-0.398
41.790,-0.565
41.795,-0.723
41.800,-0.742
41.805,-0.679
41.810,-0.614
41.815,-0.445
41.820,-0.205
41.825,-0.031
41.830,0.157
41.835,0.351
41.840,0.433
41.845,0.437
41.850,0.441
41.855,0.421
41.860,0.358
41.865,0.328
41.870,0.321
41.875,0.257
41.880,0.196
41.885,0.192
41.890,0.157
41.895,0.080
41.900,0.054
41.905,0.053
41.910,0.010
41.915,-0.002
41.920,0.040
41.925,0.025
41.930,-0.021
41.935,-0.004
41.940,0.011
41.945,-0.020
41.950,-0.017
41.955,-0.006
41.960,-0.049
41.965,-0.064
41.970,-0.033
41.975,-0.047
41.980,-0.073
41.985,-0.056
41.990,-0.066
41.995,-0.118
42.000,-0.122
42.005,-0.094
42.010,-0.109
42.015,-0.118
42.020,-0.095
42.025,-0.123
42.030,-0.171
42.035,-0.160
42.040,-0.152
42.045,-0.178
42.050,-0.167
42.055,-0.149
42.060,-0.177
42.065,-0.176
42.070,-0.135
42.075,-0.155
42.080,-0.194
42.085,-0.161
42.090,-0.134
42.095,-0.153
42.100,-0.127
42.105,-0.072
42.110,-0.068
42.115,-0.052
42.120,0.008
42.125,0.020
42.130,0.014
42.135,0.073
42.140,0.121
42.145,0.130
42.150,0.175
42.155,0.221
42.160,0.207
42.165,0.198
42.170,0.219
42.175,0.206
42.180,0.193
42.185,0.240
42.190,0.257
42.195,0.209
42.200,0.198
42.205,0.212
42.210,0.179
42.215,0.165
42.220,0.188
42.225,0.167
42.230,0.141
42.235,0.167
42.240,0.161
42.245,0.117
42.250,0.130
42.255,0.147
42.260,0.102
42.265,0.082
42.270,0.112
42.275,0.104
42.280,0.079
42.285,0.097
42.290,0.098
42.295,0.064
42.300,0.072
42.305,0.087
42.310,0.050
42.315,0.040
42.320,0.083
42.325,0.081
42.330,0.049
42.335,0.061
42.340,0.058
42.345,0.017
42.350,0.029
42.355,0.066
42.360,0.038
42.365,0.015
42.370,0.039
42.375,0.030
42.380,0.005
42.385,0.022
42.390,0.022
42.395,-0.007
42.400,0.020
42.405,0.048
42.410,0.000
42.415,-0.033
42.420,-0.010
42.425,-0.012
42.430,-0.023
42.435,0.012
42.440,0.014
42.445,-0.022
42.450,-0.013
42.455,0.000
42.460,-0.034
42.465,-0.046
42.470,-0.014
42.475,-0.017
42.480,-0.042
42.485,-0.017
42.490,-0.020
42.495,-0.085
42.500,-0.101
42.505,-0.073
42.510,-0.085
42.515,-0.080
42.520,-0.039
42.525,-0.069
42.530,-0.130
42.535,-0.127
42.540,-0.122
42.545,-0.121
42.550,-0.069
42.555,-0.037
42.560,-0.075
42.565,-0.086
42.570,-0.039
42.575,-0.029
42.580,-0.049
42.585,-0.012
42.590,0.022
42.595,0.007
42.600,0.026
42.605,0.055
42.610,0.022
42.615,0.010
42.620,0.050
42.625,0.037
42.630,-0.002
42.635,0.019
42.640,0.030
42.645,-0.003
42.650,0.015
42.655,0.062
42.660,0.049
42.665,0.001
42.670,-0.059
42.675,-0.181
42.680,-0.349
42.685,-0.511
42.690,-0.671
42.695,-0.780
42.700,-0.739
42.705,-0.605
42.710,-0.466
42.715,-0.304
42.720,-0.096
42.725,0.118
42.730,0.275
42.735,0.390
42.740,0.452
42.745,0.429
42.750,0.399
42.755,0.387
42.760,0.339
42.765,0.302
42.770,0.290
42.775,0.233
42.780,0.168
42.785,0.153
42.790,0.121
42.795,0.049
42.800,0.030
42.805,0.045
42.810,0.014
42.815,-0.005
42.820,0.020
42.825,0.003
42.830,-0.032
42.835,-0.012
42.840,-0.006
42.845,-0.046
42.850,-0.044
42.855,-0.025
42.860,-0.060
42.865,-0.078
42.870,-0.049
42.875,-0.063
42.880,-0.098
42.885,-0.079
42.890,-0.075
42.895,-0.115
42.900,-0.113
42.905,-0.095
42.910,-0.130
42.915,-0.147
42.920,-0.121
42.925,-0.137
42.930,-0.173
42.935,-0.154
42.940,-0.146
42.945,-0.180
42.950,-0.171
42.955,-0.145
42.960,-0.174
42.965,-0.188
42.970,-0.156
42.975,-0.162
42.980,-0.188
42.985,-0.162
42.990,-0.141
42.995,-0.158
43.000,-0.131
43.005,-0.079
43.010,-0.075
43.015,-0.053
43.020,0.016
43.025,0.043
43.030,0.051
43.035,0.108
43.040,0.147
43.045,0.137
43.050,0.163
43.055,0.206
43.060,0.193
43.065,0.190
43.070,0.231
43.075,0.225
43.080,0.196
43.085,0.217
43.090,0.224
43.095,0.185
43.100,0.189
43.105,0.214
43.110,0.184
43.115,0.164
43.120,0.189
43.125,0.172
43.130,0.136
43.135,0.155
43.140,0.159
43.145,0.117
43.150,0.117
43.155,0.138
43.160,0.106
43.165,0.086
43.170,0.113
43.175,0.100
43.180,0.066
43.185,0.086
43.190,0.094
43.195,0.055
43.200,0.057
43.205,0.082
43.210,0.056
43.215,0.042
43.220,0.073
43.225,0.061
43.230,0.029
43.235,0.051
43.240,0.061
43.245,0.025
43.250,0.030
43.255,0.056
43.260,0.028
43.265,0.011
43.270,0.039
43.275,0.028
43.280,-0.004
43.285,0.018
43.290,0.028
43.295,-0.009
43.300,-0.005
43.305,0.021
43.310,-0.006
43.315,-0.021
43.320,0.010
43.325,0.000
43.330,-0.031
43.335,-0.008
43.340,0.003
43.345,-0.033
43.350,-0.028
43.355,-0.001
43.360,-0.028
43.365,-0.044
43.370,-0.013
43.375,-0.022
43.380,-0.052
43.385,-0.028
43.390,-0.017
43.395,-0.058
43.400,-0.064
43.405,-0.055
43.410,-0.098
43.415,-0.116
43.420,-0.079
43.425,-0.080
43.430,-0.107
43.435,-0.093
43.440,-0.096
43.445,-0.140
43.450,-0.131
43.455,-0.075
43.460,-0.077
43.465,-0.093
43.470,-0.059
43.475,-0.058
43.480,-0.079
43.485,-0.046
43.490,-0.018
43.495,-0.028
43.500,-0.003
43.505,0.037
43.510,0.018
43.515,0.007
43.520,0.040
43.525,0.033
43.530,0.002
43.535,0.025
43.540,0.036
43.545,0.000
43.550,0.005
43.555,0.035
43.560,0.021
43.565,0.033
43.570,0.078
43.575,0.019
43.580,-0.129
43.585,-0.242
43.590,-0.387
43.595,-0.608
43.600,-0.751
43.605,-0.767
43.610,-0.739
43.615,-0.639
43.620,-0.422
43.625,-0.220
43.630,-0.068
43.635,0.153
43.640,0.339
43.645,0.404
43.650,0.463
43.655,0.485
43.660,0.411
43.665,0.362
43.670,0.377
43.675,0.332
43.680,0.250
43.685,0.236
43.690,0.211
43.695,0.131
43.700,0.093
43.705,0.086
43.710,0.041
43.715,0.018
43.720,0.044
43.725,0.031
43.730,-0.005
43.735,0.013
43.740,0.021
43.745,-0.019
43.750,-0.020
43.755,0.003
43.760,-0.028
43.765,-0.050
43.770,-0.024
43.775,-0.037
43.780,-0.074
43.785,-0.059
43.790,-0.053
43.795,-0.094
43.800,-0.098
43.805,-0.077
43.810,-0.111
43.815,-0.135
43.820,-0.111
43.825,-0.126
43.830,-0.164
43.835,-0.148
43.840,-0.139
43.845,-0.178
43.850,-0.177
43.855,-0.150
43.860,-0.175
43.865,-0.190
43.870,-0.156
43.875,-0.160
43.880,-0.187
43.885,-0.161
43.890,-0.141
43.895,-0.166
43.900,-0.151
43.905,-0.105
43.910,-0.105
43.915,-0.094
43.920,-0.031
43.925,-0.004
43.930,0.000
43.935,0.057
43.940,0.105
43.945,0.104
43.950,0.137
43.955,0.192
43.960,0.188
43.965,0.187
43.970,0.231
43.975,0.234
43.980,0.208
43.985,0.231
43.990,0.245
43.995,0.208
44.000,0.207
44.005,0.231
44.010,0.200
44.015,0.176
44.020,0.200
44.025,0.188
44.030,0.149
44.035,0.163
44.040,0.170
44.045,0.129
44.050,0.126
44.055,0.148
44.060,0.119
44.065,0.097
44.070,0.123
44.075,0.112
44.080,0.077
44.085,0.094
44.090,0.104
44.095,0.067
44.100,0.067
44.105,0.093
44.110,0.066
44.115,0.046
44.120,0.076
44.125,0.068
44.130,0.035
44.135,0.055
44.140,0.068
44.145,0.032
44.150,0.033
44.155,0.060
44.160,0.034
44.165,0.014
44.170,0.043
44.175,0.036
44.180,0.003
44.185,0.023
44.190,0.035
44.195,-0.001
44.200,-0.001
44.205,0.026
44.210,0.001
44.215,-0.019
44.220,0.010
44.225,0.002
44.230,-0.031
44.235,-0.010
44.240,0.004
44.245,-0.032
44.250,-0.030
44.255,-0.001
44.260,-0.028
44.265,-0.048
44.270,-0.017
44.275,-0.022
44.280,-0.055
44.285,-0.035
44.290,-0.021
44.295,-0.057
44.300,-0.057
44.305,-0.038
44.310,-0.082
44.315,-0.118
44.320,-0.091
44.325,-0.090
44.330,-0.113
44.335,-0.089
44.340,-0.083
44.345,-0.128
44.350,-0.134
44.355,-0.111
44.360,-0.113
44.365,-0.095
44.370,-0.057
44.375,-0.069
44.380,-0.098
44.385,-0.068
44.390,-0.039
44.395,-0.059
44.400,-0.037
44.405,0.012
44.410,0.005
44.415,0.002
44.420,0.044
44.425,0.042
44.430,0.005
44.435,0.014
44.440,0.025
44.445,0.003
44.450,0.018
44.455,0.041
44.460,-0.003
44.465,-0.022
44.470,0.044
44.475,0.079
44.480,0.033
44.485,-0.051
44.490,-0.176
44.495,-0.345
44.500,-0.502
44.505,-0.632
44.510,-0.742
44.515,-0.746
44.520,-0.628
44.525,-0.492
44.530,-0.339
44.535,-0.134
44.540,0.082
44.545,0.259
44.550,0.385
44.555,0.469
44.560,0.464
44.565,0.406
44.570,0.387
44.575,0.357
44.580,0.299
44.585,0.283
44.590,0.273
44.595,0.210
44.600,0.152
44.605,0.116
44.610,0.051
44.615,0.022
44.620,0.061
44.625,0.048
44.630,-0.013
44.635,-0.007
44.640,0.023
44.645,0.006
44.650,0.006
44.655,0.011
44.660,-0.038
44.665,-0.059
44.670,-0.012
44.675,-0.006
44.680,-0.047
44.685,-0.049
44.690,-0.049
44.695,-0.082
44.700,-0.080
44.705,-0.059
44.710,-0.094
44.715,-0.121
44.720,-0.102
44.725,-0.117
44.730,-0.146
44.735,-0.119
44.740,-0.102
44.745,-0.149
44.750,-0.177
44.755,-0.161
44.760,-0.175
44.765,-0.180
44.770,-0.141
44.775,-0.148
44.780,-0.194
44.785,-0.180
44.790,-0.151
44.795,-0.165
44.800,-0.155
44.805,-0.124
44.810,-0.141
44.815,-0.151
44.820,-0.099
44.825,-0.062
44.830,-0.043
44.835,0.020
44.840,0.060
44.845,0.041
44.850,0.061
44.855,0.131
44.860,0.158
44.865,0.168
44.870,0.213
44.875,0.216
44.880,0.185
44.885,0.213
44.890,0.238
44.895,0.208
44.900,0.215
44.905,0.244
44.910,0.208
44.915,0.175
44.920,0.201
44.925,0.202
44.930,0.170
44.935,0.173
44.940,0.167
44.945,0.122
44.950,0.127
44.955,0.171
44.960,0.154
44.965,0.117
44.970,0.120
44.975,0.105
44.980,0.072
44.985,0.090
44.990,0.108
44.995,0.080
45.000,0.077
45.005,0.092
45.010,0.057
45.015,0.048
45.020,0.094
45.025,0.084
45.030,0.032
45.035,0.043
45.040,0.066
45.045,0.044
45.050,0.043
45.055,0.061
45.060,0.037
45.065,0.020
45.070,0.056
45.075,0.055
45.080,0.011
45.085,0.014
45.090,0.021
45.095,-0.007
45.100,0.005
45.105,0.046
45.110,0.026
45.115,-0.007
45.120,0.007
45.125,0.005
45.130,-0.024
45.135,-0.009
45.140,0.004
45.145,-0.036
45.150,-0.034
45.155,0.012
45.160,-0.002
45.165,-0.035
45.170,-0.024
45.175,-0.031
45.180,-0.052
45.185,-0.023
45.190,0.000
45.195,-0.041
45.200,-0.065
45.205,-0.057
45.210,-0.092
45.215,-0.120
45.220,-0.078
45.225,-0.050
45.230,-0.074
45.235,-0.089
45.240,-0.112
45.245,-0.161
45.250,-0.136
45.255,-0.058
