'Elapsed time','ECG'
'seconds','mV'
0.000,-0.045
0.005,0.237
0.010,0.210
0.015,0.158
0.020,0.195
0.025,0.163
0.030,0.207
0.035,0.257
0.040,0.167
0.045,0.088
0.050,0.162
0.055,0.207
0.060,0.181
0.065,0.163
0.070,0.145
0.075,0.152
0.080,0.180
0.085,0.169
0.090,0.197
0.095,0.289
0.100,0.320
0.105,0.304
0.110,0.312
0.115,0.283
0.120,0.184
0.125,0.124
0.130,0.136
0.135,0.136
0.140,0.110
0.145,0.023
0.150,-0.096
0.155,-0.107
0.160,-0.076
0.165,-0.111
0.170,-0.136
0.175,-0.111
0.180,-0.082
0.185,-0.045
0.190,-0.026
0.195,-0.039
0.200,-0.067
0.205,-0.102
0.210,-0.087
0.215,-0.079
0.220,-0.084
0.225,-0.026
0.230,0.004
0.235,0.003
0.240,0.136
0.245,0.422
0.250,0.784
0.255,1.172
0.260,1.507
0.265,1.552
0.270,0.973
0.275,-0.004
0.280,-0.685
0.285,-0.887
0.290,-0.853
0.295,-0.707
0.300,-0.541
0.305,-0.453
0.310,-0.409
0.315,-0.288
0.320,-0.131
0.325,-0.096
0.330,-0.118
0.335,-0.078
0.340,-0.052
0.345,-0.077
0.350,-0.077
0.355,-0.066
0.360,-0.078
0.365,-0.071
0.370,-0.044
0.375,-0.017
0.380,-0.033
0.385,-0.086
0.390,-0.055
0.395,-0.022
0.400,-0.057
0.405,-0.046
0.410,-0.033
0.415,0.039
0.420,0.145
0.425,0.129
0.430,0.132
0.435,0.240
0.440,0.274
0.445,0.190
0.450,0.149
0.455,0.171
0.460,0.205
0.465,0.232
0.470,0.282
0.475,0.306
0.480,0.237
0.485,0.219
0.490,0.232
0.495,0.230
0.500,0.267
0.505,0.311
0.510,0.358
0.515,0.335
0.520,0.237
0.525,0.122
0.530,0.043
0.535,0.049
0.540,0.029
0.545,-0.074
0.550,-0.196
0.555,-0.284
0.560,-0.334
0.565,-0.397
0.570,-0.450
0.575,-0.464
0.580,-0.459
0.585,-0.461
0.590,-0.509
0.595,-0.558
0.600,-0.560
0.605,-0.537
0.610,-0.495
0.615,-0.450
0.620,-0.422
0.625,-0.401
0.630,-0.402
0.635,-0.430
0.640,-0.464
0.645,-0.436
0.650,-0.339
0.655,-0.234
0.660,-0.173
0.665,-0.214
0.670,-0.276
0.675,-0.252
0.680,-0.214
0.685,-0.216
0.690,-0.220
0.695,-0.228
0.700,-0.198
0.705,-0.168
0.710,-0.171
0.715,-0.164
0.720,-0.179
0.725,-0.140
0.730,-0.081
0.735,-0.099
0.740,-0.028
0.745,0.062
0.750,0.000
0.755,-0.053
0.760,-0.026
0.765,0.010
0.770,0.024
0.775,0.019
0.780,0.061
0.785,0.081
0.790,0.047
0.795,0.082
0.800,0.117
0.805,0.119
0.810,0.171
0.815,0.208
0.820,0.161
0.825,0.079
0.830,0.025
0.835,-0.006
0.840,-0.034
0.845,-0.041
0.850,-0.025
0.855,0.009
0.860,-0.008
0.865,-0.112
0.870,-0.122
0.875,0.020
0.880,0.126
0.885,0.039
0.890,-0.122
0.895,-0.129
0.900,-0.059
0.905,-0.053
0.910,-0.084
0.915,-0.125
0.920,-0.138
0.925,-0.116
0.930,-0.069
0.935,0.029
0.940,0.212
0.945,0.489
0.950,0.790
0.955,1.100
0.960,1.426
0.965,1.614
0.970,1.319
0.975,0.466
0.980,-0.359
0.985,-0.685
0.990,-0.775
0.995,-0.763
1.000,-0.531
1.005,-0.298
1.010,-0.180
1.015,-0.134
1.020,-0.180
1.025,-0.220
1.030,-0.195
1.035,-0.143
1.040,-0.058
1.045,-0.014
1.050,-0.069
1.055,-0.124
1.060,-0.188
1.065,-0.237
1.070,-0.178
1.075,-0.057
1.080,-0.005
1.085,0.002
1.090,0.064
1.095,0.082
1.100,0.064
1.105,0.079
1.110,0.086
1.115,0.094
1.120,0.182
1.125,0.302
1.130,0.270
1.135,0.186
1.140,0.209
1.145,0.287
1.150,0.385
1.155,0.410
1.160,0.311
1.165,0.227
1.170,0.233
1.175,0.256
1.180,0.294
1.185,0.336
1.190,0.341
1.195,0.314
1.200,0.307
1.205,0.380
1.210,0.407
1.215,0.356
1.220,0.349
1.225,0.276
1.230,0.172
1.235,0.216
1.240,0.176
1.245,0.007
1.250,-0.127
1.255,-0.280
1.260,-0.305
1.265,-0.250
1.270,-0.330
1.275,-0.457
1.280,-0.503
1.285,-0.461
1.290,-0.432
1.295,-0.506
1.300,-0.596
1.305,-0.546
1.310,-0.368
1.315,-0.283
1.320,-0.303
1.325,-0.277
1.330,-0.331
1.335,-0.466
1.340,-0.434
1.345,-0.227
1.350,-0.090
1.355,-0.239
1.360,-0.486
1.365,-0.495
1.370,-0.379
1.375,-0.311
1.380,-0.266
1.385,-0.221
1.390,-0.213
1.395,-0.252
1.400,-0.177
1.405,-0.062
1.410,0.003
1.415,0.108
1.420,0.086
1.425,-0.068
1.430,-0.156
1.435,-0.167
1.440,-0.135
1.445,-0.109
1.450,-0.121
1.455,-0.186
1.460,-0.169
1.465,0.013
1.470,0.109
1.475,0.082
1.480,0.007
1.485,-0.069
1.490,0.012
1.495,0.200
1.500,0.259
1.505,0.076
1.510,-0.110
1.515,0.000
1.520,0.222
1.525,0.206
1.530,0.061
1.535,-0.030
1.540,-0.057
1.545,0.008
1.550,0.038
1.555,-0.081
1.560,-0.201
1.565,-0.135
1.570,-0.014
1.575,-0.033
1.580,-0.118
1.585,-0.248
1.590,-0.229
1.595,-0.013
1.600,0.053
1.605,0.009
1.610,0.054
1.615,-0.012
1.620,-0.153
1.625,-0.122
1.630,-0.017
1.635,0.063
1.640,0.122
1.645,0.205
1.650,0.383
1.655,0.708
1.660,1.114
1.665,1.418
1.670,1.358
1.675,0.713
1.680,-0.121
1.685,-0.625
1.690,-0.731
1.695,-0.675
1.700,-0.657
1.705,-0.532
1.710,-0.322
1.715,-0.098
1.720,0.090
1.725,0.083
1.730,-0.058
1.735,-0.150
1.740,-0.076
1.745,0.034
1.750,-0.005
1.755,-0.067
1.760,-0.021
1.765,0.080
1.770,0.165
1.775,0.066
1.780,-0.176
1.785,-0.198
1.790,-0.049
1.795,-0.002
1.800,0.016
1.805,-0.002
1.810,-0.037
1.815,0.003
1.820,0.026
1.825,-0.013
1.830,-0.038
1.835,0.059
1.840,0.101
1.845,0.021
1.850,0.018
1.855,0.016
1.860,0.029
1.865,0.087
1.870,0.114
1.875,0.057
1.880,0.039
1.885,0.230
1.890,0.257
1.895,0.132
1.900,0.205
1.905,0.165
1.910,0.006
1.915,0.031
1.920,0.105
1.925,0.189
1.930,0.205
1.935,0.063
1.940,-0.037
1.945,-0.075
1.950,-0.234
1.955,-0.354
1.960,-0.359
1.965,-0.532
1.970,-0.679
1.975,-0.688
1.980,-0.820
1.985,-0.985
1.990,-1.090
1.995,-1.130
2.000,-1.032
2.005,-0.931
2.010,-0.962
2.015,-1.061
2.020,-1.102
2.025,-1.083
2.030,-1.059
2.035,-0.923
2.040,-0.835
2.045,-0.863
2.050,-0.828
2.055,-0.798
2.060,-0.752
2.065,-0.686
2.070,-0.642
2.075,-0.591
2.080,-0.542
2.085,-0.497
2.090,-0.451
2.095,-0.408
2.100,-0.366
2.105,-0.325
2.110,-0.286
2.115,-0.249
2.120,-0.212
2.125,-0.177
2.130,-0.144
2.135,-0.112
2.140,-0.081
2.145,-0.051
2.150,-0.022
2.155,0.005
2.160,0.031
2.165,0.056
2.170,0.079
2.175,0.102
2.180,0.124
2.185,0.144
2.190,0.164
2.195,0.182
2.200,0.200
2.205,0.216
2.210,0.232
2.215,0.246
2.220,0.260
2.225,0.273
2.230,0.285
2.235,0.297
2.240,0.307
2.245,0.317
2.250,0.326
2.255,0.334
2.260,0.342
2.265,0.349
2.270,0.355
2.275,0.361
2.280,0.366
2.285,0.370
2.290,0.374
2.295,0.378
2.300,0.381
2.305,0.383
2.310,0.385
2.315,0.387
2.320,0.388
2.325,0.388
2.330,0.388
2.335,0.388
2.340,0.388
2.345,0.387
2.350,0.385
2.355,0.384
2.360,0.408
2.365,0.577
2.370,0.965
2.375,1.399
2.380,1.664
2.385,1.436
2.390,0.673
2.395,0.146
2.400,0.134
2.405,0.169
2.410,0.148
2.415,0.155
2.420,0.156
2.425,0.154
2.430,0.156
2.435,0.156
2.440,0.161
2.445,0.160
2.450,0.162
2.455,0.166
2.460,0.209
2.465,0.326
2.470,0.411
2.475,0.300
2.480,0.110
2.485,0.142
2.490,0.328
2.495,0.513
2.500,0.530
2.505,0.336
2.510,0.262
2.515,0.355
2.520,0.430
2.525,0.485
2.530,0.459
2.535,0.367
2.540,0.447
2.545,0.530
2.550,0.457
2.555,0.431
2.560,0.492
2.565,0.539
2.570,0.500
2.575,0.373
2.580,0.382
2.585,0.632
2.590,0.743
2.595,0.565
2.600,0.430
2.605,0.630
2.610,0.854
2.615,0.767
2.620,0.679
2.625,0.684
2.630,0.614
2.635,0.575
2.640,0.602
2.645,0.486
2.650,0.387
2.655,0.475
2.660,0.362
2.665,0.218
2.670,0.248
2.675,0.092
2.680,-0.085
2.685,-0.099
2.690,-0.043
2.695,-0.044
2.700,-0.105
2.705,-0.110
2.710,-0.210
2.715,-0.306
2.720,-0.217
2.725,-0.117
2.730,-0.138
2.735,-0.255
2.740,-0.259
2.745,-0.142
2.750,-0.101
2.755,-0.124
2.760,-0.162
2.765,-0.176
2.770,-0.124
2.775,-0.062
2.780,-0.081
2.785,-0.116
2.790,-0.047
2.795,0.019
2.800,-0.065
2.805,-0.121
2.810,-0.012
2.815,0.030
2.820,-0.113
2.825,-0.158
2.830,-0.003
2.835,0.134
2.840,0.061
2.845,-0.100
2.850,-0.041
2.855,0.070
2.860,0.090
2.865,0.053
2.870,-0.033
2.875,-0.020
2.880,0.017
2.885,0.054
2.890,0.107
2.895,0.088
2.900,0.062
2.905,0.031
2.910,0.005
2.915,0.068
2.920,0.124
2.925,0.106
2.930,0.103
2.935,0.092
2.940,0.111
2.945,0.176
2.950,0.150
2.955,0.107
2.960,0.096
2.965,0.062
2.970,-0.033
2.975,-0.093
2.980,-0.039
2.985,-0.087
2.990,-0.168
2.995,-0.169
3.000,-0.134
3.005,-0.036
3.010,-0.028
3.015,-0.164
3.020,-0.210
3.025,-0.093
3.030,0.012
3.035,-0.047
3.040,-0.160
3.045,-0.225
3.050,-0.231
3.055,-0.123
3.060,-0.097
3.065,-0.018
3.070,0.051
3.075,0.074
3.080,0.399
3.085,0.738
3.090,1.071
3.095,1.324
3.100,1.141
3.105,0.558
3.110,-0.311
3.115,-0.895
3.120,-0.934
3.125,-0.834
3.130,-0.626
3.135,-0.384
3.140,-0.360
3.145,-0.306
3.150,-0.147
3.155,-0.105
3.160,-0.116
3.165,-0.106
3.170,-0.099
3.175,-0.132
3.180,-0.152
3.185,-0.109
3.190,-0.017
3.195,0.045
3.200,-0.013
3.205,-0.054
3.210,-0.050
3.215,-0.097
3.220,-0.058
3.225,-0.032
3.230,-0.041
3.235,0.021
3.240,0.015
3.245,0.045
3.250,0.052
3.255,-0.062
3.260,0.001
3.265,0.213
3.270,0.224
3.275,0.084
3.280,0.040
3.285,0.136
3.290,0.195
3.295,0.106
3.300,0.090
3.305,0.202
3.310,0.140
3.315,0.089
3.320,0.260
3.325,0.329
3.330,0.356
3.335,0.291
3.340,0.144
3.345,0.201
3.350,0.271
3.355,0.247
3.360,0.217
3.365,0.146
3.370,0.035
3.375,-0.056
3.380,-0.099
3.385,-0.171
3.390,-0.267
3.395,-0.272
3.400,-0.266
3.405,-0.314
3.410,-0.297
3.415,-0.316
3.420,-0.475
3.425,-0.550
3.430,-0.435
3.435,-0.424
3.440,-0.503
3.445,-0.373
3.450,-0.246
3.455,-0.369
3.460,-0.489
3.465,-0.469
3.470,-0.460
3.475,-0.441
3.480,-0.345
3.485,-0.286
3.490,-0.269
3.495,-0.231
3.500,-0.322
3.505,-0.381
3.510,-0.270
3.515,-0.199
3.520,-0.256
3.525,-0.341
3.530,-0.205
3.535,-0.057
3.540,-0.149
3.545,-0.282
3.550,-0.246
3.555,-0.124
3.560,-0.132
3.565,-0.136
3.570,-0.077
3.575,-0.134
3.580,-0.115
3.585,-0.070
3.590,-0.145
3.595,-0.113
3.600,-0.070
3.605,-0.153
3.610,-0.147
3.615,-0.008
3.620,0.023
3.625,-0.034
3.630,0.011
3.635,0.046
3.640,0.049
3.645,0.151
3.650,0.153
3.655,0.058
3.660,0.098
3.665,0.137
3.670,0.093
3.675,0.033
3.680,-0.035
3.685,-0.058
3.690,-0.053
3.695,-0.036
3.700,-0.027
3.705,-0.091
3.710,-0.172
3.715,-0.167
3.720,-0.105
3.725,-0.077
3.730,-0.062
3.735,-0.001
3.740,-0.053
3.745,-0.130
3.750,-0.088
3.755,-0.118
3.760,-0.134
3.765,-0.046
3.770,-0.015
3.775,-0.017
3.780,0.033
3.785,0.089
3.790,0.188
3.795,0.424
3.800,0.745
3.805,1.056
3.810,1.334
3.815,1.258
3.820,0.622
3.825,-0.176
3.830,-0.603
3.835,-0.552
3.840,-0.409
3.845,-0.391
3.850,-0.445
3.855,-0.462
3.860,-0.366
3.865,-0.240
3.870,-0.159
3.875,-0.100
3.880,-0.021
3.885,-0.024
3.890,-0.049
3.895,0.033
3.900,0.095
3.905,0.081
3.910,0.058
3.915,0.056
3.920,0.035
3.925,0.051
3.930,0.132
3.935,0.149
3.940,0.094
3.945,0.105
3.950,0.206
3.955,0.294
3.960,0.388
3.965,0.512
3.970,0.491
3.975,0.346
3.980,0.264
3.985,0.198
3.990,0.165
3.995,0.226
4.000,0.255
4.005,0.254
4.010,0.329
4.015,0.407
4.020,0.413
4.025,0.425
4.030,0.422
4.035,0.375
4.040,0.392
4.045,0.402
4.050,0.362
4.055,0.364
4.060,0.370
4.065,0.377
4.070,0.354
4.075,0.283
4.080,0.243
4.085,0.217
4.090,0.108
4.095,-0.048
4.100,-0.098
4.105,-0.055
4.110,-0.025
4.115,-0.058
4.120,-0.165
4.125,-0.265
4.130,-0.330
4.135,-0.374
4.140,-0.350
4.145,-0.314
4.150,-0.323
4.155,-0.342
4.160,-0.350
4.165,-0.366
4.170,-0.401
4.175,-0.416
4.180,-0.417
4.185,-0.348
4.190,-0.189
4.195,-0.160
4.200,-0.258
4.205,-0.277
4.210,-0.236
4.215,-0.202
4.220,-0.168
4.225,-0.149
4.230,-0.162
4.235,-0.180
4.240,-0.184
4.245,-0.182
4.250,-0.173
4.255,-0.206
4.260,-0.250
4.265,-0.218
4.270,-0.203
4.275,-0.237
4.280,-0.259
4.285,-0.310
4.290,-0.375
4.295,-0.337
4.300,-0.218
4.305,-0.162
4.310,-0.164
4.315,-0.216
4.320,-0.283
4.325,-0.223
4.330,-0.136
4.335,-0.080
4.340,0.026
4.345,0.069
4.350,0.042
4.355,0.031
4.360,0.041
4.365,0.074
4.370,0.075
4.375,0.069
4.380,0.086
4.385,0.056
4.390,0.011
4.395,-0.004
4.400,-0.047
4.405,-0.086
4.410,-0.077
4.415,-0.096
4.420,-0.122
4.425,-0.098
4.430,-0.081
4.435,-0.081
4.440,-0.074
4.445,-0.060
4.450,-0.075
4.455,-0.071
4.460,-0.012
4.465,-0.050
4.470,-0.167
4.475,-0.195
4.480,-0.179
4.485,-0.215
4.490,-0.232
4.495,-0.154
4.500,-0.029
4.505,0.144
4.510,0.500
4.515,0.937
4.520,1.119
4.525,1.045
4.530,0.698
4.535,-0.098
4.540,-0.840
4.545,-1.093
4.550,-1.113
4.555,-0.994
4.560,-0.761
4.565,-0.601
4.570,-0.514
4.575,-0.416
4.580,-0.371
4.585,-0.426
4.590,-0.448
4.595,-0.386
4.600,-0.342
4.605,-0.385
4.610,-0.439
4.615,-0.403
4.620,-0.339
4.625,-0.341
4.630,-0.385
4.635,-0.432
4.640,-0.450
4.645,-0.422
4.650,-0.420
4.655,-0.424
4.660,-0.314
4.665,-0.196
4.670,-0.178
4.675,-0.134
4.680,-0.090
4.685,-0.107
4.690,-0.157
4.695,-0.201
4.700,-0.198
4.705,-0.176
4.710,-0.079
4.715,0.056
4.720,0.068
4.725,0.027
4.730,0.041
4.735,0.053
4.740,0.023
4.745,0.076
4.750,0.197
4.755,0.236
4.760,0.300
4.765,0.410
4.770,0.409
4.775,0.336
4.780,0.293
4.785,0.238
4.790,0.161
4.795,0.127
4.800,0.103
4.805,0.050
4.810,0.024
4.815,-0.002
4.820,-0.112
4.825,-0.209
4.830,-0.165
4.835,-0.102
4.840,-0.202
4.845,-0.411
4.850,-0.512
4.855,-0.408
4.860,-0.268
4.865,-0.264
4.870,-0.256
4.875,-0.064
4.880,0.074
4.885,0.018
4.890,-0.078
4.895,-0.174
4.900,-0.276
4.905,-0.376
4.910,-0.376
4.915,-0.255
4.920,-0.165
4.925,-0.131
4.930,-0.065
4.935,-0.017
4.940,-0.122
4.945,-0.237
4.950,-0.231
4.955,-0.194
4.960,-0.128
4.965,-0.011
4.970,0.122
4.975,0.227
4.980,0.284
4.985,0.234
4.990,0.052
4.995,-0.102
5.000,-0.156
5.005,-0.150
5.010,-0.164
5.015,-0.235
5.020,-0.198
5.025,-0.015
5.030,0.124
5.035,0.144
5.040,0.111
5.045,0.102
5.050,0.090
5.055,0.020
5.060,0.019
5.065,0.160
5.070,0.264
5.075,0.333
5.080,0.462
5.085,0.433
5.090,0.282
5.095,0.227
5.100,0.241
5.105,0.226
5.110,0.117
5.115,0.108
5.120,0.245
5.125,0.262
5.130,0.161
5.135,0.097
5.140,0.075
5.145,0.124
5.150,0.180
5.155,0.133
5.160,0.094
5.165,0.107
5.170,0.160
5.175,0.232
5.180,0.208
5.185,0.129
5.190,0.080
5.195,0.157
5.200,0.375
5.205,0.522
5.210,0.559
5.215,0.563
5.220,0.560
5.225,0.632
5.230,0.865
5.235,1.241
5.240,1.588
5.245,1.841
5.250,2.083
5.255,2.043
5.260,1.420
5.265,0.570
5.270,0.005
5.275,-0.211
5.280,-0.229
5.285,-0.135
5.290,-0.001
5.295,0.142
5.300,0.193
5.305,0.092
5.310,0.006
5.315,-0.037
5.320,-0.160
5.325,-0.232
5.330,0.001
5.335,0.190
5.340,-0.084
5.345,-0.333
5.350,-0.218
5.355,-0.118
5.360,-0.098
5.365,-0.054
5.370,-0.116
5.375,-0.190
5.380,-0.160
5.385,-0.083
5.390,-0.010
5.395,0.031
5.400,0.025
5.405,-0.062
5.410,-0.128
5.415,-0.082
5.420,-0.055
5.425,-0.040
5.430,0.099
5.435,0.256
5.440,0.212
5.445,0.035
5.450,-0.047
5.455,-0.052
5.460,-0.073
5.465,-0.016
5.470,0.110
5.475,0.156
5.480,0.105
5.485,0.055
5.490,0.071
5.495,0.104
5.500,0.135
5.505,0.197
5.510,0.308
5.515,0.340
5.520,0.047
5.525,-0.319
5.530,-0.387
5.535,-0.358
5.540,-0.344
5.545,-0.268
5.550,-0.312
5.555,-0.509
5.560,-0.532
5.565,-0.419
5.570,-0.528
5.575,-0.666
5.580,-0.628
5.585,-0.631
5.590,-0.685
5.595,-0.614
5.600,-0.507
5.605,-0.557
5.610,-0.591
5.615,-0.428
5.620,-0.359
5.625,-0.475
5.630,-0.515
5.635,-0.436
5.640,-0.310
5.645,-0.267
5.650,-0.346
5.655,-0.406
5.660,-0.422
5.665,-0.410
5.670,-0.363
5.675,-0.334
5.680,-0.324
5.685,-0.313
5.690,-0.311
5.695,-0.264
5.700,-0.236
5.705,-0.258
5.710,-0.201
5.715,-0.127
5.720,-0.140
5.725,-0.111
5.730,0.000
5.735,-0.025
5.740,-0.179
5.745,-0.191
5.750,-0.101
5.755,-0.054
5.760,0.047
5.765,0.098
5.770,-0.035
5.775,-0.078
5.780,0.034
5.785,0.031
5.790,-0.030
5.795,-0.006
5.800,0.043
5.805,0.079
5.810,0.156
5.815,0.270
5.820,0.318
5.825,0.255
5.830,0.157
5.835,0.122
5.840,0.133
5.845,0.169
5.850,0.239
5.855,0.342
5.860,0.382
5.865,0.116
5.870,-0.145
5.875,-0.019
5.880,0.107
5.885,0.076
5.890,0.038
5.895,-0.001
5.900,0.051
5.905,0.139
5.910,0.200
5.915,0.222
5.920,0.181
5.925,0.181
5.930,0.188
5.935,0.122
5.940,0.023
5.945,0.034
5.950,0.298
5.955,0.652
5.960,0.945
5.965,1.312
5.970,1.728
5.975,1.740
5.980,1.037
5.985,0.125
5.990,-0.357
5.995,-0.498
6.000,-0.544
6.005,-0.425
6.010,-0.236
6.015,-0.158
6.020,-0.095
6.025,-0.006
6.030,0.053
6.035,0.127
6.040,0.170
6.045,0.104
6.050,0.074
6.055,0.100
6.060,0.025
6.065,-0.015
6.070,0.072
6.075,0.151
6.080,0.191
6.085,0.148
6.090,0.097
6.095,0.179
6.100,0.279
6.105,0.235
6.110,0.040
6.115,-0.029
6.120,0.144
6.125,0.222
6.130,0.147
6.135,0.135
6.140,0.184
6.145,0.243
6.150,0.267
6.155,0.249
6.160,0.265
6.165,0.313
6.170,0.341
6.175,0.345
6.180,0.379
6.185,0.436
6.190,0.434
6.195,0.397
6.200,0.424
6.205,0.428
6.210,0.280
6.215,0.211
6.220,0.309
6.225,0.320
6.230,0.266
6.235,0.268
6.240,0.254
6.245,0.186
6.250,0.107
6.255,0.058
6.260,-0.001
6.265,-0.112
6.270,-0.213
6.275,-0.275
6.280,-0.293
6.285,-0.309
6.290,-0.362
6.295,-0.385
6.300,-0.354
6.305,-0.293
6.310,-0.234
6.315,-0.276
6.320,-0.405
6.325,-0.462
6.330,-0.428
6.335,-0.424
6.340,-0.421
6.345,-0.361
6.350,-0.327
6.355,-0.289
6.360,-0.158
6.365,-0.120
6.370,-0.266
6.375,-0.328
6.380,-0.255
6.385,-0.215
6.390,-0.182
6.395,-0.174
6.400,-0.272
6.405,-0.310
6.410,-0.225
6.415,-0.144
6.420,-0.101
6.425,-0.134
6.430,-0.177
6.435,-0.151
6.440,-0.120
6.445,-0.096
6.450,-0.077
6.455,-0.053
6.460,-0.025
6.465,-0.028
6.470,-0.025
6.475,-0.009
6.480,0.007
6.485,-0.005
6.490,-0.055
6.495,-0.052
6.500,0.035
6.505,0.136
6.510,0.167
6.515,0.151
6.520,0.120
6.525,0.087
6.530,0.088
6.535,0.053
6.540,-0.003
6.545,0.016
6.550,0.032
6.555,0.007
6.560,0.000
6.565,-0.003
6.570,-0.012
6.575,-0.005
6.580,-0.022
6.585,-0.100
6.590,-0.147
6.595,-0.114
6.600,-0.068
6.605,-0.039
6.610,-0.034
6.615,-0.042
6.620,-0.053
6.625,-0.046
6.630,-0.029
6.635,-0.108
6.640,-0.180
6.645,-0.080
6.650,0.086
6.655,0.277
6.660,0.559
6.665,0.936
6.670,1.341
6.675,1.593
6.680,1.353
6.685,0.518
6.690,-0.320
6.695,-0.673
6.700,-0.731
6.705,-0.712
6.710,-0.577
6.715,-0.368
6.720,-0.221
6.725,-0.177
6.730,-0.134
6.735,-0.101
6.740,-0.139
6.745,-0.129
6.750,-0.067
6.755,-0.066
6.760,-0.053
6.765,0.007
6.770,-0.009
6.775,-0.047
6.780,0.000
6.785,0.029
6.790,0.018
6.795,0.065
6.800,0.094
6.805,0.013
6.810,-0.018
6.815,0.057
6.820,0.080
6.825,0.061
6.830,0.093
6.835,0.125
6.840,0.128
6.845,0.140
6.850,0.158
6.855,0.177
6.860,0.198
6.865,0.228
6.870,0.271
6.875,0.295
6.880,0.290
6.885,0.268
6.890,0.209
6.895,0.195
6.900,0.289
6.905,0.355
6.910,0.339
6.915,0.321
6.920,0.312
6.925,0.315
6.930,0.348
6.935,0.358
6.940,0.292
6.945,0.218
6.950,0.156
6.955,0.043
6.960,-0.053
6.965,-0.041
6.970,-0.039
6.975,-0.198
6.980,-0.330
6.985,-0.317
6.990,-0.323
6.995,-0.348
7.000,-0.379
7.005,-0.436
7.010,-0.443
7.015,-0.399
7.020,-0.339
7.025,-0.310
7.030,-0.320
7.035,-0.338
7.040,-0.320
7.045,-0.251
7.050,-0.215
7.055,-0.239
7.060,-0.259
7.065,-0.233
7.070,-0.227
7.075,-0.240
7.080,-0.159
7.085,-0.123
7.090,-0.235
7.095,-0.256
7.100,-0.157
7.105,-0.122
7.110,-0.102
7.115,-0.079
7.120,-0.111
7.125,-0.054
7.130,0.044
7.135,-0.042
7.140,-0.135
7.145,-0.042
7.150,0.004
7.155,-0.083
7.160,-0.069
7.165,0.035
7.170,0.029
7.175,-0.026
7.180,-0.024
7.185,-0.028
7.190,-0.043
7.195,0.009
7.200,0.090
7.205,0.149
7.210,0.184
7.215,0.185
7.220,0.166
7.225,0.118
7.230,0.156
7.235,0.269
7.240,0.228
7.245,0.148
7.250,0.117
7.255,-0.021
7.260,-0.118
7.265,-0.070
7.270,-0.036
7.275,-0.039
7.280,-0.056
7.285,-0.099
7.290,-0.064
7.295,0.039
7.300,0.049
7.305,-0.007
7.310,-0.004
7.315,-0.014
7.320,-0.074
7.325,-0.076
7.330,-0.066
7.335,-0.076
7.340,-0.057
7.345,-0.004
7.350,0.077
7.355,0.186
7.360,0.375
7.365,0.677
7.370,1.079
7.375,1.481
7.380,1.585
7.385,1.096
7.390,0.198
7.395,-0.489
7.400,-0.697
7.405,-0.713
7.410,-0.657
7.415,-0.421
7.420,-0.233
7.425,-0.237
7.430,-0.188
7.435,-0.091
7.440,-0.074
7.445,-0.074
7.450,-0.060
7.455,-0.017
7.460,0.002
7.465,-0.040
7.470,-0.076
7.475,-0.072
7.480,-0.032
7.485,0.006
7.490,0.028
7.495,0.028
7.500,-0.003
7.505,0.016
7.510,0.119
7.515,0.138
7.520,0.010
7.525,-0.048
7.530,0.018
7.535,0.069
7.540,0.088
7.545,0.112
7.550,0.127
7.555,0.134
7.560,0.158
7.565,0.191
7.570,0.183
7.575,0.157
7.580,0.217
7.585,0.284
7.590,0.264
7.595,0.273
7.600,0.350
7.605,0.356
7.610,0.262
7.615,0.228
7.620,0.280
7.625,0.321
7.630,0.327
7.635,0.301
7.640,0.266
7.645,0.238
7.650,0.166
7.655,0.058
7.660,0.002
7.665,-0.051
7.670,-0.166
7.675,-0.239
7.680,-0.219
7.685,-0.228
7.690,-0.309
7.695,-0.363
7.700,-0.363
7.705,-0.363
7.710,-0.357
7.715,-0.332
7.720,-0.294
7.725,-0.291
7.730,-0.400
7.735,-0.477
7.740,-0.438
7.745,-0.440
7.750,-0.439
7.755,-0.373
7.760,-0.328
7.765,-0.291
7.770,-0.252
7.775,-0.225
7.780,-0.218
7.785,-0.249
7.790,-0.237
7.795,-0.141
7.800,-0.015
7.805,-0.010
7.810,-0.241
7.815,-0.412
7.820,-0.279
7.825,-0.124
7.830,-0.135
7.835,-0.149
7.840,-0.108
7.845,-0.087
7.850,-0.065
7.855,-0.022
7.860,-0.053
7.865,-0.106
7.870,-0.105
7.875,-0.108
7.880,-0.068
7.885,-0.023
7.890,-0.036
7.895,-0.037
7.900,0.007
7.905,0.027
7.910,-0.003
7.915,0.087
7.920,0.200
7.925,0.118
7.930,0.052
7.935,0.099
7.940,0.133
7.945,0.182
7.950,0.150
7.955,0.063
7.960,0.046
7.965,-0.022
7.970,-0.121
7.975,-0.123
7.980,-0.062
7.985,-0.068
7.990,-0.098
7.995,-0.035
8.000,-0.039
8.005,-0.131
8.010,-0.115
8.015,-0.045
8.020,-0.014
8.025,-0.025
8.030,-0.113
8.035,-0.182
8.040,-0.144
8.045,-0.111
8.050,-0.101
8.055,-0.110
8.060,-0.110
8.065,0.030
8.070,0.218
8.075,0.402
8.080,0.692
8.085,1.069
8.090,1.336
8.095,1.307
8.100,0.841
8.105,0.016
8.110,-0.522
8.115,-0.593
8.120,-0.684
8.125,-0.779
8.130,-0.646
8.135,-0.419
8.140,-0.278
8.145,-0.192
8.150,-0.103
8.155,-0.083
8.160,-0.067
8.165,0.025
8.170,0.031
8.175,0.000
8.180,0.014
8.185,-0.048
8.190,-0.087
8.195,-0.013
8.200,0.063
8.205,0.051
8.210,-0.042
8.215,-0.052
8.220,0.005
8.225,0.008
8.230,0.071
8.235,0.096
8.240,0.011
8.245,0.084
8.250,0.148
8.255,0.066
8.260,0.175
8.265,0.268
8.270,0.143
8.275,0.078
8.280,0.062
8.285,0.074
8.290,0.167
8.295,0.210
8.300,0.246
8.305,0.396
8.310,0.447
8.315,0.257
8.320,0.113
8.325,0.196
8.330,0.284
8.335,0.273
8.340,0.305
8.345,0.408
8.350,0.428
8.355,0.275
8.360,0.128
8.365,0.123
8.370,0.062
8.375,-0.092
8.380,-0.142
8.385,-0.173
8.390,-0.251
8.395,-0.278
8.400,-0.289
8.405,-0.367
8.410,-0.460
8.415,-0.459
8.420,-0.417
8.425,-0.440
8.430,-0.476
8.435,-0.459
8.440,-0.427
8.445,-0.393
8.450,-0.358
8.455,-0.338
8.460,-0.328
8.465,-0.314
8.470,-0.303
8.475,-0.279
8.480,-0.243
8.485,-0.215
8.490,-0.186
8.495,-0.201
8.500,-0.256
8.505,-0.277
8.510,-0.219
8.515,-0.142
8.520,-0.120
8.525,-0.112
8.530,-0.105
8.535,-0.129
8.540,-0.158
8.545,-0.078
8.550,0.068
8.555,0.071
8.560,-0.093
8.565,-0.173
8.570,-0.076
8.575,-0.018
8.580,-0.008
8.585,0.005
8.590,0.001
8.595,0.022
8.600,-0.001
8.605,-0.048
8.610,-0.019
8.615,0.052
8.620,0.072
8.625,0.062
8.630,0.104
8.635,0.179
8.640,0.230
8.645,0.190
8.650,0.128
8.655,0.162
8.660,0.204
8.665,0.165
8.670,0.098
8.675,0.066
8.680,0.042
8.685,-0.007
8.690,-0.060
8.695,-0.072
8.700,-0.015
8.705,-0.010
8.710,-0.033
8.715,0.026
8.720,0.069
8.725,0.059
8.730,-0.025
8.735,-0.201
8.740,-0.270
8.745,-0.125
8.750,0.020
8.755,0.050
8.760,0.071
8.765,0.088
8.770,-0.009
8.775,-0.097
8.780,0.053
8.785,0.331
8.790,0.622
8.795,1.014
8.800,1.391
8.805,1.490
8.810,1.241
8.815,0.599
8.820,-0.174
8.825,-0.585
8.830,-0.717
8.835,-0.728
8.840,-0.557
8.845,-0.380
8.850,-0.280
8.855,-0.156
8.860,-0.040
8.865,0.002
8.870,-0.051
8.875,-0.171
8.880,-0.197
8.885,-0.096
8.890,-0.037
8.895,-0.049
8.900,-0.041
8.905,0.001
8.910,0.029
8.915,0.061
8.920,0.069
8.925,0.022
8.930,0.011
8.935,0.064
8.940,0.107
8.945,0.103
8.950,0.077
8.955,0.045
8.960,0.062
8.965,0.120
8.970,0.130
8.975,0.122
8.980,0.140
8.985,0.148
8.990,0.167
8.995,0.218
9.000,0.247
9.005,0.224
9.010,0.213
9.015,0.265
9.020,0.317
9.025,0.341
9.030,0.380
9.035,0.387
9.040,0.335
9.045,0.303
9.050,0.318
9.055,0.321
9.060,0.303
9.065,0.290
9.070,0.250
9.075,0.194
9.080,0.135
9.085,0.027
9.090,-0.079
9.095,-0.154
9.100,-0.208
9.105,-0.226
9.110,-0.275
9.115,-0.349
9.120,-0.380
9.125,-0.384
9.130,-0.390
9.135,-0.412
9.140,-0.438
9.145,-0.420
9.150,-0.378
9.155,-0.378
9.160,-0.400
9.165,-0.399
9.170,-0.381
9.175,-0.340
9.180,-0.278
9.185,-0.282
9.190,-0.323
9.195,-0.305
9.200,-0.287
9.205,-0.266
9.210,-0.190
9.215,-0.136
9.220,-0.180
9.225,-0.250
9.230,-0.240
9.235,-0.194
9.240,-0.166
9.245,-0.128
9.250,-0.091
9.255,-0.094
9.260,-0.091
9.265,-0.050
9.270,-0.041
9.275,-0.039
9.280,0.039
9.285,0.080
9.290,-0.014
9.295,-0.100
9.300,-0.075
9.305,0.028
9.310,0.141
9.315,0.180
9.320,0.108
9.325,0.037
9.330,0.090
9.335,0.179
9.340,0.158
9.345,0.072
9.350,0.038
9.355,0.030
9.360,0.029
9.365,0.059
9.370,0.087
9.375,0.117
9.380,0.141
9.385,0.114
9.390,0.044
9.395,-0.034
9.400,-0.108
9.405,-0.177
9.410,-0.153
9.415,0.020
9.420,0.195
9.425,0.167
9.430,-0.038
9.435,-0.227
9.440,-0.280
9.445,-0.156
9.450,0.008
9.455,0.020
9.460,-0.051
9.465,-0.048
9.470,0.019
9.475,0.122
9.480,0.327
9.485,0.689
9.490,1.150
9.495,1.477
9.500,1.507
9.505,1.273
9.510,0.651
9.515,-0.212
9.520,-0.706
9.525,-0.796
9.530,-0.763
9.535,-0.602
9.540,-0.388
9.545,-0.235
9.550,-0.163
9.555,-0.141
9.560,-0.119
9.565,-0.091
9.570,-0.081
9.575,-0.074
9.580,-0.054
9.585,-0.053
9.590,-0.051
9.595,-0.021
9.600,0.002
9.605,-0.030
9.610,-0.045
9.615,0.014
9.620,0.048
9.625,0.039
9.630,0.045
9.635,0.057
9.640,0.040
9.645,0.021
9.650,0.061
9.655,0.103
9.660,0.082
9.665,0.050
9.670,0.073
9.675,0.117
9.680,0.153
9.685,0.193
9.690,0.214
9.695,0.226
9.700,0.255
9.705,0.288
9.710,0.311
9.715,0.321
9.720,0.324
9.725,0.336
9.730,0.331
9.735,0.298
9.740,0.284
9.745,0.300
9.750,0.313
9.755,0.295
9.760,0.269
9.765,0.249
9.770,0.209
9.775,0.137
9.780,0.054
9.785,-0.043
9.790,-0.140
9.795,-0.208
9.800,-0.245
9.805,-0.257
9.810,-0.311
9.815,-0.383
9.820,-0.390
9.825,-0.396
9.830,-0.422
9.835,-0.422
9.840,-0.456
9.845,-0.462
9.850,-0.401
9.855,-0.398
9.860,-0.393
9.865,-0.328
9.870,-0.320
9.875,-0.336
9.880,-0.272
9.885,-0.254
9.890,-0.333
9.895,-0.318
9.900,-0.231
9.905,-0.225
9.910,-0.242
9.915,-0.190
9.920,-0.134
9.925,-0.152
9.930,-0.190
9.935,-0.190
9.940,-0.165
9.945,-0.115
9.950,-0.067
9.955,-0.084
9.960,-0.100
9.965,-0.065
9.970,-0.073
9.975,-0.118
9.980,-0.134
9.985,-0.092
9.990,-0.039
9.995,-0.045
10.000,-0.062
10.005,-0.076
10.010,-0.084
10.015,-0.018
10.020,0.036
10.025,0.000
10.030,-0.026
10.035,-0.029
10.040,-0.036
10.045,0.008
10.050,0.076
10.055,0.090
10.060,0.109
10.065,0.145
10.070,0.071
10.075,-0.037
10.080,-0.016
10.085,0.045
10.090,0.061
10.095,0.011
10.100,-0.064
10.105,-0.121
10.110,-0.206
10.115,-0.210
10.120,-0.140
10.125,-0.131
10.130,-0.143
10.135,-0.142
10.140,-0.116
10.145,-0.070
10.150,0.002
10.155,0.071
10.160,0.047
10.165,-0.015
10.170,-0.074
10.175,-0.124
10.180,-0.069
10.185,0.064
10.190,0.198
10.195,0.393
10.200,0.676
10.205,0.996
10.210,1.389
10.215,1.672
10.220,1.342
10.225,0.435
10.230,-0.362
10.235,-0.725
10.240,-0.847
10.245,-0.783
10.250,-0.513
10.255,-0.263
10.260,-0.172
10.265,-0.172
10.270,-0.153
10.275,-0.095
10.280,-0.046
10.285,-0.027
10.290,-0.051
10.295,-0.019
10.300,0.055
10.305,0.044
10.310,-0.018
10.315,-0.045
10.320,-0.021
10.325,0.047
10.330,0.181
10.335,0.233
10.340,0.145
10.345,0.079
10.350,0.034
10.355,0.004
10.360,0.040
10.365,0.083
10.370,0.145
10.375,0.220
10.380,0.252
10.385,0.303
10.390,0.329
10.395,0.254
10.400,0.180
10.405,0.161
10.410,0.183
10.415,0.284
10.420,0.332
10.425,0.283
10.430,0.367
10.435,0.449
10.440,0.405
10.445,0.410
10.450,0.475
10.455,0.495
10.460,0.407
10.465,0.333
10.470,0.379
10.475,0.351
10.480,0.225
10.485,0.116
10.490,0.004
10.495,0.000
10.500,0.037
10.505,-0.106
10.510,-0.238
10.515,-0.207
10.520,-0.235
10.525,-0.325
10.530,-0.372
10.535,-0.390
10.540,-0.412
10.545,-0.462
10.550,-0.452
10.555,-0.366
10.560,-0.262
10.565,-0.251
10.570,-0.307
10.575,-0.301
10.580,-0.353
10.585,-0.497
10.590,-0.515
10.595,-0.382
10.600,-0.298
10.605,-0.286
10.610,-0.208
10.615,-0.108
10.620,-0.139
10.625,-0.178
10.630,-0.117
10.635,-0.144
10.640,-0.197
10.645,-0.099
10.650,0.005
10.655,-0.066
10.660,-0.231
10.665,-0.267
10.670,-0.143
10.675,-0.054
10.680,-0.099
10.685,-0.094
10.690,0.024
10.695,0.110
10.700,0.139
10.705,0.117
10.710,0.059
10.715,0.014
10.720,-0.029
10.725,-0.037
10.730,-0.007
10.735,0.006
10.740,-0.023
10.745,-0.044
10.750,-0.021
10.755,-0.053
10.760,-0.070
10.765,0.009
10.770,0.084
10.775,0.180
10.780,0.267
10.785,0.274
10.790,0.251
10.795,0.228
10.800,0.172
10.805,0.106
10.810,0.099
10.815,0.069
10.820,-0.028
10.825,-0.065
10.830,-0.045
10.835,-0.037
10.840,-0.055
10.845,-0.091
10.850,-0.089
10.855,-0.034
10.860,0.024
10.865,-0.008
10.870,-0.123
10.875,-0.164
10.880,-0.078
10.885,0.022
10.890,0.019
10.895,-0.068
10.900,-0.114
10.905,-0.139
10.910,-0.147
10.915,-0.027
10.920,0.099
10.925,0.182
10.930,0.413
10.935,0.788
10.940,1.205
10.945,1.603
10.950,1.716
10.955,1.185
10.960,0.180
10.965,-0.578
10.970,-0.811
10.975,-0.811
10.980,-0.683
10.985,-0.490
10.990,-0.366
10.995,-0.244
11.000,-0.129
11.005,-0.102
11.010,-0.140
11.015,-0.157
11.020,-0.111
11.025,-0.062
11.030,-0.036
11.035,-0.038
11.040,-0.038
11.045,0.004
11.050,0.021
11.055,-0.055
11.060,-0.132
11.065,-0.067
11.070,0.065
11.075,0.106
11.080,0.105
11.085,0.128
11.090,0.134
11.095,0.117
11.100,0.115
11.105,0.150
11.110,0.186
11.115,0.174
11.120,0.126
11.125,0.076
11.130,0.081
11.135,0.165
11.140,0.256
11.145,0.292
11.150,0.270
11.155,0.265
11.160,0.344
11.165,0.523
11.170,0.639
11.175,0.490
11.180,0.250
11.185,0.241
11.190,0.436
11.195,0.507
11.200,0.362
11.205,0.201
11.210,0.205
11.215,0.340
11.220,0.405
11.225,0.327
11.230,0.179
11.235,0.039
11.240,-0.050
11.245,-0.086
11.250,-0.147
11.255,-0.261
11.260,-0.333
11.265,-0.316
11.270,-0.282
11.275,-0.289
11.280,-0.293
11.285,-0.287
11.290,-0.302
11.295,-0.303
11.300,-0.293
11.305,-0.305
11.310,-0.309
11.315,-0.298
11.320,-0.306
11.325,-0.319
11.330,-0.310
11.335,-0.285
11.340,-0.270
11.345,-0.257
11.350,-0.230
11.355,-0.216
11.360,-0.193
11.365,-0.138
11.370,-0.167
11.375,-0.288
11.380,-0.318
11.385,-0.267
11.390,-0.256
11.395,-0.215
11.400,-0.143
11.405,-0.184
11.410,-0.255
11.415,-0.218
11.420,-0.185
11.425,-0.226
11.430,-0.207
11.435,-0.128
11.440,-0.108
11.445,-0.084
11.450,-0.038
11.455,-0.095
11.460,-0.190
11.465,-0.175
11.470,-0.052
11.475,0.046
11.480,0.013
11.485,-0.085
11.490,-0.098
11.495,-0.023
11.500,0.001
11.505,-0.044
11.510,-0.050
11.515,-0.007
11.520,0.018
11.525,0.004
11.530,-0.036
11.535,-0.105
11.540,-0.191
11.545,-0.220
11.550,-0.206
11.555,-0.189
11.560,-0.162
11.565,-0.151
11.570,-0.139
11.575,-0.173
11.580,-0.258
11.585,-0.277
11.590,-0.243
11.595,-0.209
11.600,-0.149
11.605,-0.113
11.610,-0.110
11.615,-0.087
11.620,-0.082
11.625,-0.106
11.630,-0.083
11.635,0.017
11.640,0.155
11.645,0.376
11.650,0.785
11.655,1.300
11.660,1.708
11.665,1.805
11.670,1.280
11.675,0.277
11.680,-0.485
11.685,-0.738
11.690,-0.753
11.695,-0.626
11.700,-0.385
11.705,-0.194
11.710,-0.122
11.715,-0.128
11.720,-0.134
11.725,-0.084
11.730,-0.034
11.735,-0.024
11.740,-0.036
11.745,-0.045
11.750,-0.028
11.755,-0.012
11.760,-0.001
11.765,0.040
11.770,0.076
11.775,0.075
11.780,0.119
11.785,0.197
11.790,0.146
11.795,0.042
11.800,0.035
11.805,0.058
11.810,0.103
11.815,0.170
11.820,0.179
11.825,0.148
11.830,0.179
11.835,0.305
11.840,0.352
11.845,0.232
11.850,0.159
11.855,0.189
11.860,0.225
11.865,0.281
11.870,0.318
11.875,0.325
11.880,0.381
11.885,0.453
11.890,0.425
11.895,0.358
11.900,0.392
11.905,0.489
11.910,0.482
11.915,0.381
11.920,0.348
11.925,0.331
11.930,0.273
11.935,0.213
11.940,0.105
11.945,0.009
11.950,-0.033
11.955,-0.100
11.960,-0.182
11.965,-0.227
11.970,-0.266
11.975,-0.336
11.980,-0.386
11.985,-0.419
11.990,-0.449
11.995,-0.454
12.000,-0.449
12.005,-0.380
12.010,-0.276
12.015,-0.248
12.020,-0.257
12.025,-0.257
12.030,-0.290
12.035,-0.343
12.040,-0.383
12.045,-0.395
12.050,-0.347
12.055,-0.282
12.060,-0.250
12.065,-0.213
12.070,-0.185
12.075,-0.201
12.080,-0.205
12.085,-0.184
12.090,-0.180
12.095,-0.177
12.100,-0.135
12.105,-0.098
12.110,-0.103
12.115,-0.092
12.120,-0.068
12.125,-0.076
12.130,-0.068
12.135,-0.047
12.140,-0.055
12.145,-0.057
12.150,-0.032
12.155,-0.006
12.160,-0.005
12.165,-0.015
12.170,-0.028
12.175,-0.053
12.180,-0.038
12.185,-0.009
12.190,-0.031
12.195,-0.027
12.200,0.006
12.205,0.012
12.210,0.034
12.215,0.073
12.220,0.082
12.225,0.080
12.230,0.112
12.235,0.147
12.240,0.138
12.245,0.121
12.250,0.115
12.255,0.086
12.260,0.076
12.265,0.075
12.270,0.010
12.275,-0.059
12.280,-0.063
12.285,-0.046
12.290,-0.069
12.295,-0.104
12.300,-0.106
12.305,-0.105
12.310,-0.122
12.315,-0.154
12.320,-0.189
12.325,-0.189
12.330,-0.131
12.335,-0.091
12.340,-0.126
12.345,-0.133
12.350,-0.079
12.355,-0.051
12.360,-0.053
12.365,-0.047
12.370,-0.005
12.375,0.067
12.380,0.212
12.385,0.516
12.390,0.954
12.395,1.431
12.400,1.762
12.405,1.557
12.410,0.674
12.415,-0.325
12.420,-0.869
12.425,-0.944
12.430,-0.768
12.435,-0.523
12.440,-0.327
12.445,-0.205
12.450,-0.131
12.455,-0.104
12.460,-0.113
12.465,-0.103
12.470,-0.064
12.475,-0.085
12.480,-0.116
12.485,-0.066
12.490,-0.038
12.495,-0.051
12.500,-0.024
12.505,0.008
12.510,0.016
12.515,0.020
12.520,0.018
12.525,-0.002
12.530,-0.006
12.535,0.043
12.540,0.053
12.545,0.019
12.550,0.043
12.555,0.072
12.560,0.064
12.565,0.054
12.570,0.078
12.575,0.136
12.580,0.182
12.585,0.193
12.590,0.206
12.595,0.263
12.600,0.310
12.605,0.273
12.610,0.211
12.615,0.230
12.620,0.263
12.625,0.265
12.630,0.309
12.635,0.336
12.640,0.301
12.645,0.292
12.650,0.310
12.655,0.294
12.660,0.259
12.665,0.234
12.670,0.191
12.675,0.127
12.680,0.063
12.685,-0.016
12.690,-0.118
12.695,-0.196
12.700,-0.247
12.705,-0.319
12.710,-0.373
12.715,-0.382
12.720,-0.411
12.725,-0.446
12.730,-0.448
12.735,-0.456
12.740,-0.476
12.745,-0.460
12.750,-0.418
12.755,-0.400
12.760,-0.399
12.765,-0.405
12.770,-0.407
12.775,-0.387
12.780,-0.345
12.785,-0.311
12.790,-0.310
12.795,-0.297
12.800,-0.268
12.805,-0.263
12.810,-0.251
12.815,-0.219
12.820,-0.217
12.825,-0.219
12.830,-0.187
12.835,-0.178
12.840,-0.195
12.845,-0.178
12.850,-0.157
12.855,-0.160
12.860,-0.139
12.865,-0.108
12.870,-0.112
12.875,-0.117
12.880,-0.098
12.885,-0.099
12.890,-0.096
12.895,-0.037
12.900,0.010
12.905,-0.019
12.910,-0.061
12.915,-0.039
12.920,-0.009
12.925,-0.018
12.930,-0.019
12.935,0.003
12.940,0.048
12.945,0.111
12.950,0.132
12.955,0.112
12.960,0.123
12.965,0.155
12.970,0.172
12.975,0.189
12.980,0.224
12.985,0.252
12.990,0.274
12.995,0.312
13.000,0.330
13.005,0.301
13.010,0.298
13.015,0.348
13.020,0.356
13.025,0.319
13.030,0.297
13.035,0.256
13.040,0.172
13.045,0.112
13.050,0.133
13.055,0.142
13.060,0.085
13.065,0.051
13.070,0.053
13.075,0.018
13.080,-0.005
13.085,0.012
13.090,0.015
13.095,0.030
13.100,0.049
13.105,0.027
13.110,0.019
13.115,0.039
13.120,0.038
13.125,0.040
13.130,0.037
13.135,0.032
13.140,0.136
13.145,0.383
13.150,0.717
13.155,1.140
13.160,1.600
13.165,1.777
13.170,1.287
13.175,0.346
13.180,-0.384
13.185,-0.691
13.190,-0.729
13.195,-0.625
13.200,-0.429
13.205,-0.230
13.210,-0.161
13.215,-0.160
13.220,-0.130
13.225,-0.059
13.230,-0.020
13.235,-0.082
13.240,-0.113
13.245,-0.052
13.250,-0.025
13.255,-0.023
13.260,0.018
13.265,0.043
13.270,0.019
13.275,-0.021
13.280,-0.017
13.285,0.027
13.290,0.040
13.295,0.044
13.300,0.067
13.305,0.077
13.310,0.121
13.315,0.170
13.320,0.142
13.325,0.139
13.330,0.146
13.335,0.109
13.340,0.148
13.345,0.208
13.350,0.201
13.355,0.195
13.360,0.225
13.365,0.292
13.370,0.317
13.375,0.258
13.380,0.253
13.385,0.313
13.390,0.325
13.395,0.305
13.400,0.313
13.405,0.336
13.410,0.348
13.415,0.332
13.420,0.298
13.425,0.239
13.430,0.198
13.435,0.211
13.440,0.148
13.445,-0.017
13.450,-0.101
13.455,-0.101
13.460,-0.180
13.465,-0.280
13.470,-0.342
13.475,-0.375
13.480,-0.379
13.485,-0.419
13.490,-0.474
13.495,-0.497
13.500,-0.487
13.505,-0.469
13.510,-0.449
13.515,-0.404
13.520,-0.391
13.525,-0.425
13.530,-0.416
13.535,-0.351
13.540,-0.332
13.545,-0.369
13.550,-0.361
13.555,-0.335
13.560,-0.300
13.565,-0.280
13.570,-0.298
13.575,-0.242
13.580,-0.227
13.585,-0.280
13.590,-0.237
13.595,-0.196
13.600,-0.199
13.605,-0.156
13.610,-0.115
13.615,-0.108
13.620,-0.128
13.625,-0.148
13.630,-0.135
13.635,-0.124
13.640,-0.122
13.645,-0.107
13.650,-0.075
13.655,-0.024
13.660,-0.046
13.665,-0.109
13.670,-0.091
13.675,-0.039
13.680,-0.027
13.685,-0.040
13.690,-0.055
13.695,-0.029
13.700,0.029
13.705,0.022
13.710,-0.040
13.715,-0.020
13.720,0.046
13.725,-0.006
13.730,-0.005
13.735,0.083
13.740,0.046
13.745,0.063
13.750,0.172
13.755,0.180
13.760,0.184
13.765,0.277
13.770,0.315
13.775,0.243
13.780,0.183
13.785,0.142
13.790,0.084
13.795,0.090
13.800,0.094
13.805,-0.002
13.810,-0.070
13.815,-0.034
13.820,-0.029
13.825,-0.053
13.830,-0.003
13.835,0.045
13.840,-0.012
13.845,-0.054
13.850,0.101
13.855,0.199
13.860,0.046
13.865,-0.049
13.870,-0.021
13.875,-0.003
13.880,0.055
13.885,0.035
13.890,-0.108
13.895,-0.130
13.900,-0.024
13.905,0.099
13.910,0.442
13.915,0.934
13.920,1.345
13.925,1.689
13.930,1.689
13.935,1.022
13.940,0.058
13.945,-0.472
13.950,-0.598
13.955,-0.717
13.960,-0.744
13.965,-0.552
13.970,-0.349
13.975,-0.236
13.980,-0.067
13.985,-0.018
13.990,-0.142
13.995,-0.108
14.000,-0.005
14.005,-0.013
14.010,0.025
14.015,0.060
14.020,-0.018
14.025,-0.093
14.030,-0.067
14.035,0.006
14.040,0.032
14.045,0.037
14.050,0.039
14.055,0.042
14.060,0.106
14.065,0.146
14.070,0.097
14.075,0.077
14.080,0.089
14.085,0.098
14.090,0.116
14.095,0.139
14.100,0.145
14.105,0.104
14.110,0.135
14.115,0.226
14.120,0.219
14.125,0.152
14.130,0.200
14.135,0.302
14.140,0.257
14.145,0.200
14.150,0.336
14.155,0.450
14.160,0.371
14.165,0.339
14.170,0.392
14.175,0.313
14.180,0.238
14.185,0.268
14.190,0.239
14.195,0.189
14.200,0.196
14.205,0.147
14.210,-0.017
14.215,-0.164
14.220,-0.179
14.225,-0.186
14.230,-0.246
14.235,-0.305
14.240,-0.401
14.245,-0.439
14.250,-0.436
14.255,-0.507
14.260,-0.535
14.265,-0.491
14.270,-0.442
14.275,-0.420
14.280,-0.404
14.285,-0.392
14.290,-0.423
14.295,-0.404
14.300,-0.353
14.305,-0.341
14.310,-0.391
14.315,-0.429
14.320,-0.306
14.325,-0.223
14.330,-0.293
14.335,-0.287
14.340,-0.243
14.345,-0.294
14.350,-0.263
14.355,-0.160
14.360,-0.175
14.365,-0.153
14.370,-0.067
14.375,-0.148
14.380,-0.221
14.385,-0.117
14.390,-0.047
14.395,-0.100
14.400,-0.136
14.405,-0.112
14.410,-0.075
14.415,-0.056
14.420,-0.124
14.425,-0.125
14.430,-0.006
14.435,-0.025
14.440,-0.096
14.445,-0.055
14.450,-0.024
14.455,-0.018
14.460,-0.015
14.465,-0.075
14.470,-0.095
14.475,-0.025
14.480,0.032
14.485,0.079
14.490,0.049
14.495,-0.006
14.500,0.024
14.505,0.053
14.510,0.079
14.515,0.102
14.520,0.111
14.525,0.140
14.530,0.143
14.535,0.133
14.540,0.166
14.545,0.167
14.550,0.149
14.555,0.145
14.560,0.100
14.565,0.034
14.570,0.024
14.575,-0.014
14.580,-0.063
14.585,-0.021
14.590,-0.047
14.595,-0.077
14.600,-0.028
14.605,-0.072
14.610,-0.084
14.615,-0.002
14.620,0.007
14.625,-0.004
14.630,-0.026
14.635,-0.091
14.640,-0.102
14.645,-0.026
14.650,0.038
14.655,-0.009
14.660,0.025
14.665,0.257
14.670,0.467
14.675,0.694
14.680,1.127
14.685,1.599
14.690,1.717
14.695,1.145
14.700,0.202
14.705,-0.432
14.710,-0.701
14.715,-0.780
14.720,-0.704
14.725,-0.562
14.730,-0.386
14.735,-0.231
14.740,-0.154
14.745,-0.124
14.750,-0.121
14.755,-0.109
14.760,-0.062
14.765,-0.033
14.770,-0.033
14.775,-0.021
14.780,-0.033
14.785,-0.040
14.790,0.010
14.795,0.039
14.800,0.023
14.805,0.039
14.810,0.073
14.815,0.066
14.820,0.051
14.825,0.048
14.830,0.056
14.835,0.078
14.840,0.081
14.845,0.092
14.850,0.157
14.855,0.190
14.860,0.131
14.865,0.119
14.870,0.172
14.875,0.198
14.880,0.223
14.885,0.245
14.890,0.270
14.895,0.336
14.900,0.396
14.905,0.377
14.910,0.349
14.915,0.349
14.920,0.343
14.925,0.370
14.930,0.396
14.935,0.377
14.940,0.314
14.945,0.262
14.950,0.294
14.955,0.290
14.960,0.187
14.965,0.107
14.970,0.021
14.975,-0.085
14.980,-0.141
14.985,-0.208
14.990,-0.305
14.995,-0.351
15.000,-0.352
15.005,-0.387
15.010,-0.434
15.015,-0.408
15.020,-0.362
15.025,-0.418
15.030,-0.480
15.035,-0.446
15.040,-0.407
15.045,-0.383
15.050,-0.387
15.055,-0.395
15.060,-0.319
15.065,-0.263
15.070,-0.311
15.075,-0.346
15.080,-0.334
15.085,-0.304
15.090,-0.264
15.095,-0.264
15.100,-0.255
15.105,-0.182
15.110,-0.150
15.115,-0.185
15.120,-0.211
15.125,-0.202
15.130,-0.144
15.135,-0.106
15.140,-0.124
15.145,-0.112
15.150,-0.056
15.155,-0.022
15.160,-0.037
15.165,-0.061
15.170,-0.091
15.175,-0.099
15.180,-0.044
15.185,0.021
15.190,0.000
15.195,-0.037
15.200,0.038
15.205,0.059
15.210,-0.033
15.215,-0.031
15.220,0.007
15.225,-0.005
15.230,0.067
15.235,0.165
15.240,0.102
15.245,0.021
15.250,0.061
15.255,0.108
15.260,0.150
15.265,0.190
15.270,0.189
15.275,0.149
15.280,0.141
15.285,0.166
15.290,0.106
15.295,0.049
15.300,0.073
15.305,0.051
15.310,-0.003
15.315,-0.020
15.320,-0.063
15.325,-0.083
15.330,-0.030
15.335,-0.008
15.340,-0.057
15.345,-0.078
15.350,-0.033
15.355,0.026
15.360,0.016
15.365,-0.045
15.370,-0.017
15.375,0.043
15.380,-0.012
15.385,-0.016
15.390,0.068
15.395,0.013
15.400,0.059
15.405,0.384
15.410,0.709
15.415,1.047
15.420,1.490
15.425,1.753
15.430,1.378
15.435,0.467
15.440,-0.307
15.445,-0.698
15.450,-0.817
15.455,-0.730
15.460,-0.591
15.465,-0.466
15.470,-0.270
15.475,-0.128
15.480,-0.148
15.485,-0.143
15.490,-0.048
15.495,-0.028
15.500,-0.088
15.505,-0.133
15.510,-0.146
15.515,-0.081
15.520,0.005
15.525,0.005
15.530,-0.003
15.535,0.011
15.540,-0.009
15.545,0.013
15.550,0.046
15.555,-0.010
15.560,-0.019
15.565,0.051
15.570,0.095
15.575,0.094
15.580,0.090
15.585,0.142
15.590,0.116
15.595,0.036
15.600,0.077
15.605,0.139
15.610,0.202
15.615,0.278
15.620,0.300
15.625,0.286
15.630,0.248
15.635,0.218
15.640,0.221
15.645,0.294
15.650,0.409
15.655,0.402
15.660,0.354
15.665,0.401
15.670,0.366
15.675,0.206
15.680,0.213
15.685,0.329
15.690,0.264
15.695,0.141
15.700,0.102
15.705,0.040
15.710,-0.111
15.715,-0.243
15.720,-0.272
15.725,-0.245
15.730,-0.264
15.735,-0.393
15.740,-0.464
15.745,-0.422
15.750,-0.407
15.755,-0.439
15.760,-0.433
15.765,-0.397
15.770,-0.429
15.775,-0.495
15.780,-0.414
15.785,-0.299
15.790,-0.355
15.795,-0.369
15.800,-0.328
15.805,-0.364
15.810,-0.321
15.815,-0.240
15.820,-0.244
15.825,-0.286
15.830,-0.259
15.835,-0.132
15.840,-0.168
15.845,-0.302
15.850,-0.242
15.855,-0.140
15.860,-0.122
15.865,-0.136
15.870,-0.101
15.875,-0.044
15.880,-0.045
15.885,-0.066
15.890,-0.166
15.895,-0.169
15.900,-0.013
15.905,-0.017
15.910,-0.125
15.915,-0.043
15.920,0.081
15.925,-0.018
15.930,-0.054
15.935,0.062
15.940,0.112
15.945,0.020
15.950,-0.118
15.955,-0.038
15.960,0.067
15.965,0.067
15.970,0.125
15.975,0.197
15.980,0.161
15.985,0.072
15.990,0.078
15.995,0.153
16.000,0.265
16.005,0.229
16.010,0.043
16.015,0.046
16.020,0.096
16.025,0.029
16.030,0.051
16.035,0.088
16.040,0.004
16.045,-0.091
16.050,-0.116
16.055,-0.092
16.060,-0.037
16.065,-0.022
16.070,-0.044
16.075,-0.062
16.080,-0.074
16.085,-0.047
16.090,-0.080
16.095,-0.083
16.100,0.066
16.105,0.087
16.110,-0.010
16.115,-0.016
16.120,0.012
16.125,0.115
16.130,0.413
16.135,0.779
16.140,1.119
16.145,1.533
16.150,1.705
16.155,1.120
16.160,0.151
16.165,-0.430
16.170,-0.736
16.175,-0.938
16.180,-0.769
16.185,-0.449
16.190,-0.330
16.195,-0.269
16.200,-0.124
16.205,-0.049
16.210,-0.072
16.215,-0.099
16.220,-0.072
16.225,-0.048
16.230,-0.055
16.235,-0.013
16.240,0.012
16.245,0.042
16.250,0.049
16.255,-0.025
16.260,-0.038
16.265,0.019
16.270,0.045
16.275,0.064
16.280,0.090
16.285,0.087
16.290,0.052
16.295,0.069
16.300,0.139
16.305,0.140
16.310,0.179
16.315,0.206
16.320,0.050
16.325,0.036
16.330,0.219
16.335,0.251
16.340,0.189
16.345,0.255
16.350,0.331
16.355,0.260
16.360,0.229
16.365,0.290
16.370,0.321
16.375,0.390
16.380,0.407
16.385,0.301
16.390,0.281
16.395,0.321
16.400,0.269
16.405,0.265
16.410,0.276
16.415,0.185
16.420,0.103
16.425,0.008
16.430,-0.094
16.435,-0.125
16.440,-0.178
16.445,-0.276
16.450,-0.302
16.455,-0.297
16.460,-0.378
16.465,-0.472
16.470,-0.500
16.475,-0.491
16.480,-0.442
16.485,-0.428
16.490,-0.440
16.495,-0.355
16.500,-0.332
16.505,-0.405
16.510,-0.410
16.515,-0.391
16.520,-0.361
16.525,-0.332
16.530,-0.325
16.535,-0.271
16.540,-0.251
16.545,-0.292
16.550,-0.268
16.555,-0.180
16.560,-0.160
16.565,-0.233
16.570,-0.270
16.575,-0.194
16.580,-0.120
16.585,-0.123
16.590,-0.124
16.595,-0.110
16.600,-0.079
16.605,-0.056
16.610,-0.057
16.615,-0.004
16.620,0.019
16.625,0.002
16.630,-0.008
16.635,-0.083
16.640,-0.117
16.645,-0.046
16.650,0.021
16.655,0.041
16.660,0.032
16.665,0.041
16.670,0.097
16.675,0.123
16.680,0.086
16.685,0.087
16.690,0.134
16.695,0.148
16.700,0.133
16.705,0.121
16.710,0.101
16.715,0.106
16.720,0.155
16.725,0.123
16.730,0.013
16.735,-0.068
16.740,-0.064
16.745,-0.036
16.750,-0.071
16.755,-0.095
16.760,-0.083
16.765,-0.047
16.770,-0.055
16.775,-0.122
16.780,-0.102
16.785,-0.020
16.790,0.021
16.795,0.025
16.800,0.005
16.805,-0.039
16.810,-0.080
16.815,-0.054
16.820,0.043
16.825,0.114
16.830,0.279
16.835,0.643
16.840,1.008
16.845,1.382
16.850,1.728
16.855,1.529
16.860,0.632
16.865,-0.279
16.870,-0.683
16.875,-0.809
16.880,-0.813
16.885,-0.604
16.890,-0.395
16.895,-0.259
16.900,-0.149
16.905,-0.129
16.910,-0.094
16.915,-0.035
16.920,-0.062
16.925,-0.113
16.930,-0.102
16.935,-0.046
16.940,-0.029
16.945,-0.038
16.950,0.018
16.955,0.030
16.960,-0.006
16.965,0.024
16.970,0.053
16.975,0.052
16.980,0.044
16.985,0.049
16.990,0.093
16.995,0.130
17.000,0.136
17.005,0.106
17.010,0.088
17.015,0.122
17.020,0.151
17.025,0.178
17.030,0.196
17.035,0.206
17.040,0.259
17.045,0.299
17.050,0.274
17.055,0.236
17.060,0.252
17.065,0.322
17.070,0.378
17.075,0.387
17.080,0.378
17.085,0.362
17.090,0.356
17.095,0.372
17.100,0.386
17.105,0.369
17.110,0.290
17.115,0.199
17.120,0.143
17.125,0.100
17.130,0.043
17.135,-0.070
17.140,-0.205
17.145,-0.262
17.150,-0.272
17.155,-0.313
17.160,-0.372
17.165,-0.411
17.170,-0.415
17.175,-0.415
17.180,-0.435
17.185,-0.451
17.190,-0.422
17.195,-0.386
17.200,-0.392
17.205,-0.387
17.210,-0.357
17.215,-0.331
17.220,-0.318
17.225,-0.331
17.230,-0.334
17.235,-0.312
17.240,-0.282
17.245,-0.259
17.250,-0.232
17.255,-0.222
17.260,-0.224
17.265,-0.190
17.270,-0.156
17.275,-0.141
17.280,-0.149
17.285,-0.153
17.290,-0.117
17.295,-0.086
17.300,-0.106
17.305,-0.135
17.310,-0.092
17.315,-0.038
17.320,-0.061
17.325,-0.073
17.330,-0.028
17.335,0.001
17.340,0.012
17.345,0.038
17.350,0.050
17.355,0.049
17.360,0.070
17.365,0.110
17.370,0.130
17.375,0.114
17.380,0.121
17.385,0.167
17.390,0.168
17.395,0.107
17.400,0.076
17.405,0.075
17.410,0.047
17.415,0.027
17.420,0.021
17.425,-0.008
17.430,-0.020
17.435,0.005
17.440,-0.017
17.445,-0.090
17.450,-0.132
17.455,-0.124
17.460,-0.082
17.465,-0.065
17.470,-0.071
17.475,-0.047
17.480,0.015
17.485,0.014
17.490,-0.066
17.495,-0.046
17.500,0.006
17.505,0.013
17.510,0.092
17.515,0.276
17.520,0.509
17.525,0.790
17.530,1.225
17.535,1.691
17.540,1.719
17.545,1.031
17.550,0.044
17.555,-0.589
17.560,-0.765
17.565,-0.741
17.570,-0.638
17.575,-0.483
17.580,-0.310
17.585,-0.137
17.590,-0.057
17.595,-0.106
17.600,-0.127
17.605,-0.073
17.610,-0.044
17.615,-0.031
17.620,-0.037
17.625,-0.073
17.630,-0.051
17.635,-0.007
17.640,-0.016
17.645,-0.001
17.650,0.038
17.655,0.039
17.660,0.040
17.665,0.071
17.670,0.085
17.675,0.061
17.680,0.056
17.685,0.086
17.690,0.093
17.695,0.088
17.700,0.125
17.705,0.160
17.710,0.179
17.715,0.208
17.720,0.208
17.725,0.237
17.730,0.284
17.735,0.257
17.740,0.254
17.745,0.313
17.750,0.320
17.755,0.299
17.760,0.327
17.765,0.375
17.770,0.376
17.775,0.358
17.780,0.393
17.785,0.405
17.790,0.330
17.795,0.270
17.800,0.247
17.805,0.180
17.810,0.075
17.815,-0.020
17.820,-0.069
17.825,-0.137
17.830,-0.223
17.835,-0.255
17.840,-0.299
17.845,-0.379
17.850,-0.431
17.855,-0.450
17.860,-0.436
17.865,-0.411
17.870,-0.426
17.875,-0.461
17.880,-0.454
17.885,-0.420
17.890,-0.399
17.895,-0.382
17.900,-0.371
17.905,-0.351
17.910,-0.323
17.915,-0.302
17.920,-0.269
17.925,-0.255
17.930,-0.287
17.935,-0.303
17.940,-0.286
17.945,-0.253
17.950,-0.211
17.955,-0.198
17.960,-0.191
17.965,-0.150
17.970,-0.130
17.975,-0.125
17.980,-0.109
17.985,-0.125
17.990,-0.159
17.995,-0.156
18.000,-0.127
18.005,-0.117
18.010,-0.099
18.015,-0.045
18.020,-0.010
18.025,-0.036
18.030,-0.046
18.035,0.020
18.040,0.048
18.045,0.015
18.050,0.021
18.055,0.053
18.060,0.073
18.065,0.122
18.070,0.183
18.075,0.161
18.080,0.089
18.085,0.079
18.090,0.109
18.095,0.112
18.100,0.077
18.105,0.028
18.110,-0.017
18.115,-0.028
18.120,-0.028
18.125,-0.050
18.130,-0.054
18.135,-0.048
18.140,-0.055
18.145,-0.060
18.150,-0.077
18.155,-0.093
18.160,-0.083
18.165,-0.057
18.170,-0.024
18.175,-0.012
18.180,-0.016
18.185,-0.001
18.190,-0.005
18.195,-0.021
18.200,0.034
18.205,0.164
18.210,0.361
18.215,0.653
18.220,1.061
18.225,1.524
18.230,1.800
18.235,1.485
18.240,0.554
18.245,-0.329
18.250,-0.714
18.255,-0.784
18.260,-0.726
18.265,-0.532
18.270,-0.323
18.275,-0.232
18.280,-0.198
18.285,-0.157
18.290,-0.114
18.295,-0.102
18.300,-0.099
18.305,-0.068
18.310,-0.041
18.315,-0.032
18.320,-0.046
18.325,-0.056
18.330,-0.032
18.335,-0.007
18.340,-0.004
18.345,0.002
18.350,0.028
18.355,0.050
18.360,0.061
18.365,0.085
18.370,0.099
18.375,0.081
18.380,0.061
18.385,0.075
18.390,0.103
18.395,0.133
18.400,0.178
18.405,0.190
18.410,0.183
18.415,0.220
18.420,0.248
18.425,0.235
18.430,0.245
18.435,0.291
18.440,0.317
18.445,0.326
18.450,0.342
18.455,0.346
18.460,0.344
18.465,0.359
18.470,0.375
18.475,0.363
18.480,0.342
18.485,0.331
18.490,0.306
18.495,0.239
18.500,0.144
18.505,0.054
18.510,-0.027
18.515,-0.100
18.520,-0.172
18.525,-0.238
18.530,-0.288
18.535,-0.325
18.540,-0.367
18.545,-0.404
18.550,-0.405
18.555,-0.404
18.560,-0.432
18.565,-0.436
18.570,-0.412
18.575,-0.415
18.580,-0.422
18.585,-0.407
18.590,-0.393
18.595,-0.365
18.600,-0.317
18.605,-0.301
18.610,-0.304
18.615,-0.280
18.620,-0.253
18.625,-0.254
18.630,-0.254
18.635,-0.227
18.640,-0.207
18.645,-0.190
18.650,-0.164
18.655,-0.168
18.660,-0.179
18.665,-0.164
18.670,-0.143
18.675,-0.128
18.680,-0.111
18.685,-0.089
18.690,-0.076
18.695,-0.062
18.700,-0.042
18.705,-0.060
18.710,-0.084
18.715,-0.059
18.720,-0.015
18.725,0.012
18.730,0.026
18.735,0.040
18.740,0.051
18.745,0.080
18.750,0.124
18.755,0.136
18.760,0.136
18.765,0.154
18.770,0.153
18.775,0.106
18.780,0.070
18.785,0.066
18.790,0.055
18.795,0.027
18.800,-0.010
18.805,-0.044
18.810,-0.058
18.815,-0.053
18.820,-0.054
18.825,-0.076
18.830,-0.091
18.835,-0.095
18.840,-0.092
18.845,-0.077
18.850,-0.064
18.855,-0.057
18.860,-0.046
18.865,-0.027
18.870,-0.018
18.875,-0.028
18.880,-0.039
18.885,-0.022
18.890,0.034
18.895,0.177
18.900,0.448
18.905,0.809
18.910,1.245
18.915,1.678
18.920,1.778
18.925,1.206
18.930,0.228
18.935,-0.495
18.940,-0.771
18.945,-0.792
18.950,-0.674
18.955,-0.493
18.960,-0.320
18.965,-0.194
18.970,-0.135
18.975,-0.128
18.980,-0.129
18.985,-0.109
18.990,-0.087
18.995,-0.069
19.000,-0.047
19.005,-0.039
19.010,-0.034
19.015,-0.026
19.020,-0.029
19.025,-0.025
19.030,0.000
19.035,0.014
19.040,0.013
19.045,0.019
19.050,0.040
19.055,0.053
19.060,0.049
19.065,0.065
19.070,0.101
19.075,0.116
19.080,0.116
19.085,0.135
19.090,0.163
19.095,0.170
19.100,0.180
19.105,0.209
19.110,0.229
19.115,0.245
19.120,0.268
19.125,0.280
19.130,0.296
19.135,0.326
19.140,0.346
19.145,0.358
19.150,0.372
19.155,0.379
19.160,0.370
19.165,0.350
19.170,0.320
19.175,0.286
19.180,0.252
19.185,0.193
19.190,0.102
19.195,0.018
19.200,-0.047
19.205,-0.114
19.210,-0.193
19.215,-0.255
19.220,-0.291
19.225,-0.346
19.230,-0.405
19.235,-0.424
19.240,-0.434
19.245,-0.436
19.250,-0.423
19.255,-0.425
19.260,-0.431
19.265,-0.409
19.270,-0.378
19.275,-0.369
19.280,-0.364
19.285,-0.344
19.290,-0.325
19.295,-0.304
19.300,-0.270
19.305,-0.261
19.310,-0.274
19.315,-0.254
19.320,-0.221
19.325,-0.211
19.330,-0.192
19.335,-0.170
19.340,-0.174
19.345,-0.174
19.350,-0.150
19.355,-0.127
19.360,-0.119
19.365,-0.103
19.370,-0.090
19.375,-0.092
19.380,-0.083
19.385,-0.057
19.390,-0.046
19.395,-0.041
19.400,-0.029
19.405,-0.030
19.410,-0.026
19.415,0.007
19.420,0.033
19.425,0.040
19.430,0.065
19.435,0.096
19.440,0.114
19.445,0.136
19.450,0.151
19.455,0.133
19.460,0.109
19.465,0.112
19.470,0.114
19.475,0.092
19.480,0.066
19.485,0.040
19.490,-0.001
19.495,-0.028
19.500,-0.033
19.505,-0.053
19.510,-0.077
19.515,-0.082
19.520,-0.084
19.525,-0.088
19.530,-0.075
19.535,-0.058
19.540,-0.051
19.545,-0.045
19.550,-0.032
19.555,-0.021
19.560,-0.013
19.565,-0.006
19.570,-0.007
19.575,-0.017
19.580,0.017
19.585,0.145
19.590,0.368
19.595,0.699
19.600,1.153
19.605,1.613
19.610,1.819
19.615,1.435
19.620,0.505
19.625,-0.356
19.630,-0.737
19.635,-0.779
19.640,-0.692
19.645,-0.524
19.650,-0.335
19.655,-0.208
19.660,-0.148
19.665,-0.115
19.670,-0.099
19.675,-0.099
19.680,-0.090
19.685,-0.081
19.690,-0.082
19.695,-0.073
19.700,-0.048
19.705,-0.033
19.710,-0.034
19.715,-0.019
19.720,-0.001
19.725,-0.004
19.730,0.008
19.735,0.039
19.740,0.051
19.745,0.055
19.750,0.068
19.755,0.076
19.760,0.078
19.765,0.095
19.770,0.116
19.775,0.117
19.780,0.137
19.785,0.174
19.790,0.178
19.795,0.186
19.800,0.222
19.805,0.245
19.810,0.255
19.815,0.281
19.820,0.316
19.825,0.323
19.830,0.330
19.835,0.359
19.840,0.370
19.845,0.365
19.850,0.360
19.855,0.336
19.860,0.307
19.865,0.296
19.870,0.264
19.875,0.193
19.880,0.121
19.885,0.056
19.890,-0.031
19.895,-0.117
19.900,-0.179
19.905,-0.240
19.910,-0.295
19.915,-0.331
19.920,-0.372
19.925,-0.411
19.930,-0.428
19.935,-0.430
19.940,-0.439
19.945,-0.442
19.950,-0.423
19.955,-0.397
19.960,-0.391
19.965,-0.383
19.970,-0.360
19.975,-0.361
19.980,-0.362
19.985,-0.340
19.990,-0.322
19.995,-0.305
20.000,-0.287
20.005,-0.265
20.010,-0.248
20.015,-0.238
20.020,-0.221
20.025,-0.208
20.030,-0.190
20.035,-0.162
20.040,-0.146
20.045,-0.137
20.050,-0.116
20.055,-0.101
20.060,-0.111
20.065,-0.107
20.070,-0.083
20.075,-0.083
20.080,-0.082
20.085,-0.067
20.090,-0.070
20.095,-0.067
20.100,-0.041
20.105,-0.029
20.110,-0.029
20.115,-0.006
20.120,0.023
20.125,0.032
20.130,0.047
20.135,0.069
20.140,0.075
20.145,0.082
20.150,0.108
20.155,0.125
20.160,0.131
20.165,0.149
20.170,0.149
20.175,0.134
20.180,0.125
20.185,0.110
20.190,0.073
20.195,0.027
20.200,0.005
20.205,-0.006
20.210,-0.031
20.215,-0.044
20.220,-0.056
20.225,-0.084
20.230,-0.089
20.235,-0.068
20.240,-0.060
20.245,-0.064
20.250,-0.055
20.255,-0.046
20.260,-0.036
20.265,-0.007
20.270,0.011
20.275,-0.005
20.280,-0.018
20.285,-0.015
20.290,-0.003
20.295,0.042
20.300,0.175
20.305,0.419
20.310,0.768
20.315,1.240
20.320,1.712
20.325,1.854
20.330,1.352
20.335,0.373
20.340,-0.425
20.345,-0.733
20.350,-0.752
20.355,-0.646
20.360,-0.464
20.365,-0.282
20.370,-0.173
20.375,-0.136
20.380,-0.103
20.385,-0.063
20.390,-0.073
20.395,-0.104
20.400,-0.085
20.405,-0.053
20.410,-0.042
20.415,-0.028
20.420,-0.014
20.425,-0.016
20.430,0.003
20.435,0.028
20.440,0.020
20.445,0.024
20.450,0.042
20.455,0.055
20.460,0.068
20.465,0.077
20.470,0.082
20.475,0.098
20.480,0.118
20.485,0.128
20.490,0.140
20.495,0.147
20.500,0.164
20.505,0.202
20.510,0.220
20.515,0.241
20.520,0.274
20.525,0.288
20.530,0.295
20.535,0.312
20.540,0.326
20.545,0.332
20.550,0.350
20.555,0.378
20.560,0.383
20.565,0.376
20.570,0.366
20.575,0.328
20.580,0.290
20.585,0.265
20.590,0.196
20.595,0.120
20.600,0.052
20.605,-0.035
20.610,-0.114
20.615,-0.179
20.620,-0.239
20.625,-0.311
20.630,-0.378
20.635,-0.397
20.640,-0.423
20.645,-0.452
20.650,-0.451
20.655,-0.447
20.660,-0.433
20.665,-0.430
20.670,-0.444
20.675,-0.441
20.680,-0.412
20.685,-0.384
20.690,-0.394
20.695,-0.392
20.700,-0.352
20.705,-0.324
20.710,-0.308
20.715,-0.296
20.720,-0.290
20.725,-0.277
20.730,-0.246
20.735,-0.205
20.740,-0.186
20.745,-0.186
20.750,-0.184
20.755,-0.187
20.760,-0.202
20.765,-0.184
20.770,-0.146
20.775,-0.142
20.780,-0.147
20.785,-0.126
20.790,-0.094
20.795,-0.098
20.800,-0.125
20.805,-0.108
20.810,-0.062
20.815,-0.035
20.820,-0.029
20.825,-0.040
20.830,-0.050
20.835,-0.047
20.840,-0.045
20.845,-0.038
20.850,-0.011
20.855,0.011
20.860,0.028
20.865,0.066
20.870,0.115
20.875,0.141
20.880,0.137
20.885,0.144
20.890,0.152
20.895,0.136
20.900,0.127
20.905,0.110
20.910,0.079
20.915,0.064
20.920,0.029
20.925,-0.009
20.930,-0.009
20.935,-0.025
20.940,-0.055
20.945,-0.053
20.950,-0.045
20.955,-0.075
20.960,-0.122
20.965,-0.110
20.970,-0.068
20.975,-0.071
20.980,-0.082
20.985,-0.036
20.990,0.013
20.995,-0.007
21.000,-0.044
21.005,-0.049
21.010,-0.039
21.015,0.014
21.020,0.117
21.025,0.287
21.030,0.555
21.035,0.938
21.040,1.420
21.045,1.786
21.050,1.713
21.055,1.008
21.060,0.003
21.065,-0.624
21.070,-0.768
21.075,-0.726
21.080,-0.569
21.085,-0.355
21.090,-0.206
21.095,-0.131
21.100,-0.071
21.105,-0.059
21.110,-0.111
21.115,-0.103
21.120,-0.051
21.125,-0.039
21.130,-0.026
21.135,-0.010
21.140,-0.031
21.145,-0.048
21.150,-0.009
21.155,0.024
21.160,0.019
21.165,0.025
21.170,0.034
21.175,0.034
21.180,0.041
21.185,0.060
21.190,0.069
21.195,0.074
21.200,0.101
21.205,0.127
21.210,0.129
21.215,0.138
21.220,0.175
21.225,0.208
21.230,0.235
21.235,0.289
21.240,0.323
21.245,0.275
21.250,0.246
21.255,0.291
21.260,0.321
21.265,0.341
21.270,0.362
21.275,0.364
21.280,0.385
21.285,0.402
21.290,0.372
21.295,0.334
21.300,0.316
21.305,0.297
21.310,0.258
21.315,0.207
21.320,0.142
21.325,0.042
21.330,-0.052
21.335,-0.119
21.340,-0.189
21.345,-0.253
21.350,-0.300
21.355,-0.347
21.360,-0.391
21.365,-0.398
21.370,-0.381
21.375,-0.403
21.380,-0.445
21.385,-0.455
21.390,-0.440
21.395,-0.416
21.400,-0.386
21.405,-0.374
21.410,-0.372
21.415,-0.338
21.420,-0.299
21.425,-0.299
21.430,-0.299
21.435,-0.266
21.440,-0.243
21.445,-0.250
21.450,-0.244
21.455,-0.220
21.460,-0.179
21.465,-0.084
21.470,-0.022
21.475,-0.078
21.480,-0.137
21.485,-0.159
21.490,-0.206
21.495,-0.211
21.500,-0.124
21.505,-0.050
21.510,-0.050
21.515,-0.071
21.520,-0.080
21.525,-0.068
21.530,-0.024
21.535,0.023
21.540,0.039
21.545,0.016
21.550,0.002
21.555,-0.041
21.560,-0.152
21.565,-0.177
21.570,-0.104
21.575,-0.045
21.580,-0.001
21.585,0.027
21.590,0.027
21.595,0.030
21.600,0.068
21.605,0.103
21.610,0.108
21.615,0.122
21.620,0.137
21.625,0.116
21.630,0.097
21.635,0.101
21.640,0.091
21.645,0.049
21.650,0.014
21.655,0.004
21.660,-0.037
21.665,-0.081
21.670,-0.086
21.675,-0.116
21.680,-0.151
21.685,-0.119
21.690,-0.084
21.695,-0.102
21.700,-0.128
21.705,-0.126
21.710,-0.108
21.715,-0.085
21.720,-0.057
21.725,-0.048
21.730,-0.054
21.735,-0.047
21.740,-0.034
21.745,-0.002
21.750,0.105
21.755,0.308
21.760,0.626
21.765,1.079
21.770,1.557
21.775,1.816
21.780,1.527
21.785,0.642
21.790,-0.312
21.795,-0.806
21.800,-0.853
21.805,-0.732
21.810,-0.555
21.815,-0.352
21.820,-0.220
21.825,-0.182
21.830,-0.161
21.835,-0.140
21.840,-0.135
21.845,-0.118
21.850,-0.090
21.855,-0.052
21.860,-0.036
21.865,-0.049
21.870,-0.039
21.875,-0.015
21.880,0.010
21.885,0.054
21.890,0.059
21.895,0.033
21.900,0.048
21.905,0.093
21.910,0.105
21.915,0.093
21.920,0.117
21.925,0.139
21.930,0.142
21.935,0.167
21.940,0.170
21.945,0.151
21.950,0.191
21.955,0.251
21.960,0.268
21.965,0.280
21.970,0.304
21.975,0.304
21.980,0.299
21.985,0.344
21.990,0.388
21.995,0.393
22.000,0.419
22.005,0.434
22.010,0.395
22.015,0.387
22.020,0.410
22.025,0.378
22.030,0.324
22.035,0.300
22.040,0.263
22.045,0.187
22.050,0.118
22.055,0.054
22.060,-0.039
22.065,-0.125
22.070,-0.197
22.075,-0.281
22.080,-0.329
22.085,-0.347
22.090,-0.385
22.095,-0.411
22.100,-0.409
22.105,-0.415
22.110,-0.433
22.115,-0.429
22.120,-0.397
22.125,-0.380
22.130,-0.372
22.135,-0.358
22.140,-0.328
22.145,-0.297
22.150,-0.306
22.155,-0.300
22.160,-0.285
22.165,-0.283
22.170,-0.263
22.175,-0.247
22.180,-0.228
22.185,-0.191
22.190,-0.163
22.195,-0.163
22.200,-0.152
22.205,-0.108
22.210,-0.111
22.215,-0.174
22.220,-0.187
22.225,-0.158
22.230,-0.167
22.235,-0.166
22.240,-0.122
22.245,-0.093
22.250,-0.073
22.255,-0.068
22.260,-0.088
22.265,-0.085
22.270,-0.078
22.275,-0.081
22.280,-0.051
22.285,-0.012
22.290,-0.007
22.295,-0.015
22.300,-0.002
22.305,0.012
22.310,0.019
22.315,0.044
22.320,0.043
22.325,0.015
22.330,0.022
22.335,0.067
22.340,0.098
22.345,0.095
22.350,0.117
22.355,0.156
22.360,0.149
22.365,0.144
22.370,0.169
22.375,0.169
22.380,0.162
22.385,0.171
22.390,0.152
22.395,0.097
22.400,0.060
22.405,0.044
22.410,0.007
22.415,0.015
22.420,0.038
22.425,-0.028
22.430,-0.075
22.435,-0.051
22.440,-0.050
22.445,-0.084
22.450,-0.066
22.455,-0.016
22.460,-0.049
22.465,-0.077
22.470,-0.062
22.475,-0.068
22.480,-0.059
22.485,-0.057
22.490,-0.107
22.495,-0.136
22.500,-0.082
22.505,0.018
22.510,0.192
22.515,0.519
22.520,0.988
22.525,1.441
22.530,1.611
22.535,1.175
22.540,0.223
22.545,-0.630
22.550,-0.995
22.555,-0.970
22.560,-0.835
22.565,-0.655
22.570,-0.440
22.575,-0.336
22.580,-0.306
22.585,-0.260
22.590,-0.227
22.595,-0.231
22.600,-0.215
22.605,-0.167
22.610,-0.180
22.615,-0.199
22.620,-0.144
22.625,-0.100
22.630,-0.094
22.635,-0.096
22.640,-0.091
22.645,-0.068
22.650,-0.045
22.655,-0.018
22.660,-0.001
22.665,0.005
22.670,0.028
22.675,0.015
22.680,0.007
22.685,0.072
22.690,0.110
22.695,0.089
22.700,0.102
22.705,0.138
22.710,0.145
22.715,0.172
22.720,0.236
22.725,0.252
22.730,0.234
22.735,0.283
22.740,0.334
22.745,0.322
22.750,0.347
22.755,0.408
22.760,0.394
22.765,0.359
22.770,0.395
22.775,0.418
22.780,0.388
22.785,0.366
22.790,0.322
22.795,0.246
22.800,0.195
22.805,0.137
22.810,0.034
22.815,-0.034
22.820,-0.050
22.825,-0.120
22.830,-0.218
22.835,-0.262
22.840,-0.303
22.845,-0.347
22.850,-0.338
22.855,-0.332
22.860,-0.366
22.865,-0.377
22.870,-0.345
22.875,-0.332
22.880,-0.336
22.885,-0.288
22.890,-0.262
22.895,-0.292
22.900,-0.272
22.905,-0.233
22.910,-0.240
22.915,-0.230
22.920,-0.177
22.925,-0.158
22.930,-0.183
22.935,-0.190
22.940,-0.172
22.945,-0.164
22.950,-0.164
22.955,-0.111
22.960,-0.051
22.965,-0.050
22.970,-0.061
22.975,-0.081
22.980,-0.091
22.985,-0.060
22.990,-0.039
22.995,-0.053
23.000,-0.040
23.005,0.009
23.010,0.007
23.015,-0.033
23.020,-0.031
23.025,-0.037
23.030,-0.051
23.035,-0.013
23.040,0.015
23.045,-0.006
23.050,0.005
23.055,0.057
23.060,0.038
23.065,-0.019
23.070,0.003
23.075,0.028
23.080,0.026
23.085,0.039
23.090,0.053
23.095,0.065
23.100,0.061
23.105,0.083
23.110,0.105
23.115,0.115
23.120,0.179
23.125,0.198
23.130,0.184
23.135,0.224
23.140,0.234
23.145,0.202
23.150,0.200
23.155,0.209
23.160,0.191
23.165,0.159
23.170,0.128
23.175,0.071
23.180,0.026
23.185,0.033
23.190,0.019
23.195,-0.040
23.200,-0.064
23.205,-0.031
23.210,-0.025
23.215,-0.032
23.220,-0.011
23.225,-0.021
23.230,-0.025
23.235,0.002
23.240,0.009
23.245,-0.004
23.250,0.013
23.255,0.047
23.260,0.024
23.265,0.016
23.270,0.108
23.275,0.270
23.280,0.510
23.285,0.907
23.290,1.402
23.295,1.764
23.300,1.711
23.305,1.010
23.310,0.008
23.315,-0.617
23.320,-0.782
23.325,-0.749
23.330,-0.625
23.335,-0.433
23.340,-0.244
23.345,-0.180
23.350,-0.158
23.355,-0.114
23.360,-0.119
23.365,-0.116
23.370,-0.086
23.375,-0.081
23.380,-0.077
23.385,-0.044
23.390,-0.022
23.395,-0.046
23.400,-0.065
23.405,-0.046
23.410,-0.026
23.415,-0.016
23.420,0.003
23.425,0.023
23.430,0.031
23.435,0.044
23.440,0.055
23.445,0.045
23.450,0.043
23.455,0.088
23.460,0.108
23.465,0.106
23.470,0.145
23.475,0.162
23.480,0.139
23.485,0.147
23.490,0.189
23.495,0.208
23.500,0.223
23.505,0.265
23.510,0.270
23.515,0.257
23.520,0.294
23.525,0.338
23.530,0.366
23.535,0.392
23.540,0.370
23.545,0.309
23.550,0.281
23.555,0.266
23.560,0.197
23.565,0.120
23.570,0.061
23.575,-0.001
23.580,-0.046
23.585,-0.071
23.590,-0.130
23.595,-0.259
23.600,-0.366
23.605,-0.407
23.610,-0.445
23.615,-0.467
23.620,-0.466
23.625,-0.473
23.630,-0.476
23.635,-0.448
23.640,-0.445
23.645,-0.486
23.650,-0.486
23.655,-0.449
23.660,-0.438
23.665,-0.423
23.670,-0.364
23.675,-0.325
23.680,-0.326
23.685,-0.294
23.690,-0.263
23.695,-0.300
23.700,-0.295
23.705,-0.243
23.710,-0.251
23.715,-0.261
23.720,-0.235
23.725,-0.214
23.730,-0.195
23.735,-0.163
23.740,-0.142
23.745,-0.145
23.750,-0.138
23.755,-0.136
23.760,-0.145
23.765,-0.134
23.770,-0.114
23.775,-0.105
23.780,-0.106
23.785,-0.071
23.790,-0.034
23.795,-0.057
23.800,-0.067
23.805,-0.040
23.810,-0.023
23.815,-0.030
23.820,-0.036
23.825,-0.036
23.830,-0.038
23.835,0.002
23.840,0.028
23.845,-0.011
23.850,-0.011
23.855,0.042
23.860,0.037
23.865,0.005
23.870,0.055
23.875,0.106
23.880,0.102
23.885,0.121
23.890,0.152
23.895,0.150
23.900,0.168
23.905,0.228
23.910,0.233
23.915,0.195
23.920,0.224
23.925,0.243
23.930,0.194
23.935,0.182
23.940,0.162
23.945,0.099
23.950,0.078
23.955,0.065
23.960,0.034
23.965,0.003
23.970,0.014
23.975,0.037
23.980,-0.029
23.985,-0.040
23.990,0.013
23.995,-0.012
24.000,-0.014
24.005,0.044
24.010,0.036
24.015,-0.016
24.020,0.010
24.025,0.046
24.030,0.021
24.035,0.034
24.040,0.072
24.045,0.083
24.050,0.182
24.055,0.423
24.060,0.755
24.065,1.208
24.070,1.696
24.075,1.858
24.080,1.340
24.085,0.328
24.090,-0.502
24.095,-0.828
24.100,-0.826
24.105,-0.673
24.110,-0.467
24.115,-0.285
24.120,-0.174
24.125,-0.148
24.130,-0.131
24.135,-0.076
24.140,-0.051
24.145,-0.073
24.150,-0.077
24.155,-0.046
24.160,-0.052
24.165,-0.042
24.170,0.021
24.175,0.021
24.180,-0.006
24.185,0.014
24.190,0.024
24.195,0.009
24.200,0.021
24.205,0.059
24.210,0.046
24.215,0.002
24.220,0.018
24.225,0.090
24.230,0.147
24.235,0.143
24.240,0.120
24.245,0.113
24.250,0.136
24.255,0.191
24.260,0.205
24.265,0.198
24.270,0.235
24.275,0.248
24.280,0.249
24.285,0.313
24.290,0.365
24.295,0.345
24.300,0.334
24.305,0.358
24.310,0.344
24.315,0.317
24.320,0.328
24.325,0.328
24.330,0.266
24.335,0.222
24.340,0.223
24.345,0.156
24.350,0.074
24.355,0.042
24.360,-0.044
24.365,-0.172
24.370,-0.231
24.375,-0.259
24.380,-0.364
24.385,-0.439
24.390,-0.427
24.395,-0.429
24.400,-0.426
24.405,-0.427
24.410,-0.476
24.415,-0.506
24.420,-0.472
24.425,-0.434
24.430,-0.443
24.435,-0.431
24.440,-0.397
24.445,-0.402
24.450,-0.385
24.455,-0.322
24.460,-0.312
24.465,-0.315
24.470,-0.268
24.475,-0.268
24.480,-0.302
24.485,-0.269
24.490,-0.217
24.495,-0.215
24.500,-0.215
24.505,-0.161
24.510,-0.125
24.515,-0.133
24.520,-0.143
24.525,-0.166
24.530,-0.176
24.535,-0.142
24.540,-0.123
24.545,-0.152
24.550,-0.153
24.555,-0.098
24.560,-0.052
24.565,-0.053
24.570,-0.061
24.575,-0.077
24.580,-0.107
24.585,-0.105
24.590,-0.079
24.595,-0.053
24.600,-0.024
24.605,0.004
24.610,0.000
24.615,-0.038
24.620,-0.055
24.625,-0.051
24.630,-0.041
24.635,-0.015
24.640,0.001
24.645,0.003
24.650,0.021
24.655,0.042
24.660,0.020
24.665,-0.008
24.670,0.010
24.675,0.022
24.680,0.026
24.685,0.062
24.690,0.093
24.695,0.073
24.700,0.084
24.705,0.145
24.710,0.186
24.715,0.219
24.720,0.236
24.725,0.220
24.730,0.182
24.735,0.170
24.740,0.180
24.745,0.137
24.750,0.092
24.755,0.094
24.760,0.068
24.765,0.016
24.770,-0.009
24.775,-0.031
24.780,-0.063
24.785,-0.075
24.790,-0.072
24.795,-0.094
24.800,-0.105
24.805,-0.060
24.810,-0.039
24.815,-0.062
24.820,-0.032
24.825,-0.002
24.830,-0.029
24.835,-0.021
24.840,0.011
24.845,-0.014
24.850,-0.013
24.855,0.117
24.860,0.333
24.865,0.624
24.870,1.043
24.875,1.515
24.880,1.783
24.885,1.507
24.890,0.626
24.895,-0.338
24.900,-0.827
24.905,-0.869
24.910,-0.754
24.915,-0.536
24.920,-0.287
24.925,-0.182
24.930,-0.181
24.935,-0.156
24.940,-0.125
24.945,-0.148
24.950,-0.138
24.955,-0.074
24.960,-0.071
24.965,-0.086
24.970,-0.064
24.975,-0.066
24.980,-0.075
24.985,-0.042
24.990,-0.034
24.995,-0.063
25.000,-0.034
25.005,0.023
25.010,0.020
25.015,0.005
25.020,0.047
25.025,0.071
25.030,0.033
25.035,0.038
25.040,0.088
25.045,0.104
25.050,0.117
25.055,0.147
25.060,0.152
25.065,0.150
25.070,0.206
25.075,0.252
25.080,0.247
25.085,0.265
25.090,0.282
25.095,0.259
25.100,0.302
25.105,0.380
25.110,0.361
25.115,0.334
25.120,0.379
25.125,0.409
25.130,0.373
25.135,0.344
25.140,0.324
25.145,0.274
25.150,0.254
25.155,0.227
25.160,0.128
25.165,0.027
25.170,-0.021
25.175,-0.080
25.180,-0.174
25.185,-0.236
25.190,-0.278
25.195,-0.343
25.200,-0.364
25.205,-0.336
25.210,-0.351
25.215,-0.379
25.220,-0.384
25.225,-0.404
25.230,-0.418
25.235,-0.384
25.240,-0.339
25.245,-0.309
25.250,-0.252
25.255,-0.222
25.260,-0.280
25.265,-0.319
25.270,-0.253
25.275,-0.206
25.280,-0.247
25.285,-0.261
25.290,-0.240
25.295,-0.241
25.300,-0.217
25.305,-0.151
25.310,-0.136
25.315,-0.175
25.320,-0.169
25.325,-0.137
25.330,-0.132
25.335,-0.112
25.340,-0.095
25.345,-0.118
25.350,-0.116
25.355,-0.090
25.360,-0.104
25.365,-0.117
25.370,-0.067
25.375,-0.038
25.380,-0.066
25.385,-0.058
25.390,-0.033
25.395,-0.051
25.400,-0.050
25.405,-0.027
25.410,-0.036
25.415,-0.039
25.420,-0.036
25.425,-0.033
25.430,-0.023
25.435,0.000
25.440,0.023
25.445,-0.002
25.450,-0.004
25.455,0.026
25.460,0.016
25.465,0.013
25.470,0.045
25.475,0.063
25.480,0.050
25.485,0.066
25.490,0.103
25.495,0.096
25.500,0.076
25.505,0.099
25.510,0.126
25.515,0.141
25.520,0.181
25.525,0.205
25.530,0.197
25.535,0.202
25.540,0.206
25.545,0.164
25.550,0.131
25.555,0.133
25.560,0.084
25.565,0.026
25.570,0.035
25.575,0.046
25.580,0.008
25.585,-0.033
25.590,-0.061
25.595,-0.103
25.600,-0.087
25.605,-0.036
25.610,-0.040
25.615,-0.031
25.620,-0.005
25.625,-0.014
25.630,-0.034
25.635,-0.027
25.640,0.004
25.645,0.003
25.650,0.007
25.655,0.063
25.660,0.128
25.665,0.269
25.670,0.559
25.675,0.984
25.680,1.482
25.685,1.795
25.690,1.573
25.695,0.731
25.700,-0.242
25.705,-0.770
25.710,-0.879
25.715,-0.784
25.720,-0.533
25.725,-0.275
25.730,-0.180
25.735,-0.133
25.740,-0.087
25.745,-0.152
25.750,-0.161
25.755,-0.089
25.760,-0.108
25.765,-0.110
25.770,-0.082
25.775,-0.089
25.780,-0.060
25.785,-0.019
25.790,-0.029
25.795,-0.037
25.800,-0.005
25.805,0.008
25.810,0.013
25.815,0.010
25.820,-0.019
25.825,-0.009
25.830,0.008
25.835,0.000
25.840,0.006
25.845,-0.007
25.850,-0.009
25.855,0.049
25.860,0.106
25.865,0.114
25.870,0.100
25.875,0.109
25.880,0.105
25.885,0.127
25.890,0.152
25.895,0.139
25.900,0.179
25.905,0.225
25.910,0.229
25.915,0.267
25.920,0.325
25.925,0.320
25.930,0.286
25.935,0.307
25.940,0.350
25.945,0.295
25.950,0.199
25.955,0.193
25.960,0.156
25.965,0.069
25.970,0.008
25.975,-0.107
25.980,-0.219
25.985,-0.251
25.990,-0.291
25.995,-0.370
26.000,-0.406
26.005,-0.413
26.010,-0.464
26.015,-0.489
26.020,-0.445
26.025,-0.427
26.030,-0.445
26.035,-0.429
26.040,-0.438
26.045,-0.457
26.050,-0.377
26.055,-0.331
26.060,-0.366
26.065,-0.358
26.070,-0.314
26.075,-0.273
26.080,-0.270
26.085,-0.266
26.090,-0.234
26.095,-0.239
26.100,-0.229
26.105,-0.181
26.110,-0.177
26.115,-0.187
26.120,-0.173
26.125,-0.142
26.130,-0.113
26.135,-0.106
26.140,-0.112
26.145,-0.114
26.150,-0.093
26.155,-0.083
26.160,-0.081
26.165,-0.062
26.170,-0.050
26.175,-0.038
26.180,-0.034
26.185,-0.036
26.190,-0.021
26.195,-0.026
26.200,-0.033
26.205,0.003
26.210,0.019
26.215,0.007
26.220,0.024
26.225,0.037
26.230,0.015
26.235,0.007
26.240,0.019
26.245,0.009
26.250,0.013
26.255,0.052
26.260,0.067
26.265,0.059
26.270,0.059
26.275,0.083
26.280,0.103
26.285,0.105
26.290,0.118
26.295,0.108
26.300,0.101
26.305,0.140
26.310,0.155
26.315,0.160
26.320,0.199
26.325,0.207
26.330,0.195
26.335,0.229
26.340,0.267
26.345,0.269
26.350,0.255
26.355,0.240
26.360,0.205
26.365,0.164
26.370,0.153
26.375,0.114
26.380,0.039
26.385,0.022
26.390,0.036
26.395,0.002
26.400,-0.040
26.405,-0.039
26.410,-0.046
26.415,-0.077
26.420,-0.057
26.425,-0.027
26.430,-0.031
26.435,0.004
26.440,0.033
26.445,0.001
26.450,-0.014
26.455,0.003
26.460,-0.022
26.465,-0.039
26.470,0.070
26.475,0.271
26.480,0.521
26.485,0.899
26.490,1.371
26.495,1.717
26.500,1.645
26.505,0.954
26.510,-0.031
26.515,-0.654
26.520,-0.794
26.525,-0.746
26.530,-0.584
26.535,-0.334
26.540,-0.156
26.545,-0.132
26.550,-0.133
26.555,-0.103
26.560,-0.111
26.565,-0.085
26.570,-0.040
26.575,-0.043
26.580,-0.055
26.585,-0.052
26.590,-0.032
26.595,-0.023
26.600,-0.013
26.605,0.007
26.610,-0.004
26.615,-0.005
26.620,0.037
26.625,0.051
26.630,0.036
26.635,0.069
26.640,0.111
26.645,0.124
26.650,0.153
26.655,0.192
26.660,0.206
26.665,0.201
26.670,0.184
26.675,0.165
26.680,0.162
26.685,0.193
26.690,0.250
26.695,0.271
26.700,0.249
26.705,0.241
26.710,0.236
26.715,0.231
26.720,0.270
26.725,0.308
26.730,0.298
26.735,0.295
26.740,0.300
26.745,0.288
26.750,0.296
26.755,0.300
26.760,0.214
26.765,0.111
26.770,0.065
26.775,-0.006
26.780,-0.098
26.785,-0.153
26.790,-0.207
26.795,-0.287
26.800,-0.358
26.805,-0.405
26.810,-0.436
26.815,-0.466
26.820,-0.492
26.825,-0.511
26.830,-0.540
26.835,-0.535
26.840,-0.502
26.845,-0.528
26.850,-0.552
26.855,-0.516
26.860,-0.503
26.865,-0.541
26.870,-0.535
26.875,-0.480
26.880,-0.455
26.885,-0.437
26.890,-0.405
26.895,-0.390
26.900,-0.372
26.905,-0.332
26.910,-0.314
26.915,-0.329
26.920,-0.311
26.925,-0.261
26.930,-0.251
26.935,-0.250
26.940,-0.215
26.945,-0.208
26.950,-0.229
26.955,-0.212
26.960,-0.185
26.965,-0.180
26.970,-0.162
26.975,-0.136
26.980,-0.107
26.985,-0.059
26.990,-0.051
26.995,-0.098
27.000,-0.107
27.005,-0.060
27.010,-0.035
27.015,-0.040
27.020,-0.024
27.025,-0.024
27.030,-0.048
27.035,-0.025
27.040,-0.004
27.045,-0.036
27.050,-0.041
27.055,0.017
27.060,0.038
27.065,0.012
27.070,0.015
27.075,0.042
27.080,0.056
27.085,0.048
27.090,0.050
27.095,0.037
27.100,0.035
27.105,0.093
27.110,0.125
27.115,0.120
27.120,0.155
27.125,0.188
27.130,0.157
27.135,0.158
27.140,0.220
27.145,0.257
27.150,0.278
27.155,0.285
27.160,0.252
27.165,0.194
27.170,0.175
27.175,0.199
27.180,0.179
27.185,0.133
27.190,0.113
27.195,0.097
27.200,0.071
27.205,0.032
27.210,-0.020
27.215,-0.058
27.220,-0.026
27.225,0.008
27.230,-0.026
27.235,-0.020
27.240,0.024
27.245,-0.001
27.250,-0.036
27.255,0.010
27.260,0.041
27.265,-0.012
27.270,-0.016
27.275,0.048
27.280,0.094
27.285,0.209
27.290,0.478
27.295,0.827
27.300,1.226
27.305,1.653
27.310,1.751
27.315,1.108
27.320,0.108
27.325,-0.547
27.330,-0.775
27.335,-0.764
27.340,-0.624
27.345,-0.438
27.350,-0.262
27.355,-0.139
27.360,-0.099
27.365,-0.115
27.370,-0.123
27.375,-0.096
27.380,-0.070
27.385,-0.047
27.390,-0.016
27.395,-0.038
27.400,-0.054
27.405,-0.025
27.410,-0.040
27.415,-0.053
27.420,-0.001
27.425,0.032
27.430,0.015
27.435,0.013
27.440,0.047
27.445,0.042
27.450,0.052
27.455,0.113
27.460,0.083
27.465,0.034
27.470,0.068
27.475,0.085
27.480,0.075
27.485,0.120
27.490,0.171
27.495,0.134
27.500,0.121
27.505,0.183
27.510,0.196
27.515,0.194
27.520,0.247
27.525,0.286
27.530,0.275
27.535,0.286
27.540,0.340
27.545,0.354
27.550,0.331
27.555,0.350
27.560,0.352
27.565,0.303
27.570,0.277
27.575,0.248
27.580,0.191
27.585,0.141
27.590,0.097
27.595,0.024
27.600,-0.076
27.605,-0.131
27.610,-0.169
27.615,-0.237
27.620,-0.304
27.625,-0.376
27.630,-0.436
27.635,-0.404
27.640,-0.360
27.645,-0.404
27.650,-0.415
27.655,-0.353
27.660,-0.321
27.665,-0.342
27.670,-0.338
27.675,-0.298
27.680,-0.281
27.685,-0.273
27.690,-0.267
27.695,-0.274
27.700,-0.275
27.705,-0.264
27.710,-0.239
27.715,-0.204
27.720,-0.152
27.725,-0.116
27.730,-0.135
27.735,-0.167
27.740,-0.170
27.745,-0.163
27.750,-0.116
27.755,-0.055
27.760,-0.059
27.765,-0.093
27.770,-0.089
27.775,-0.074
27.780,-0.093
27.785,-0.073
27.790,-0.063
27.795,-0.142
27.800,-0.134
27.805,-0.056
27.810,-0.045
27.815,-0.058
27.820,-0.053
27.825,-0.048
27.830,-0.063
27.835,-0.049
27.840,-0.026
27.845,-0.040
27.850,-0.034
27.855,-0.008
27.860,0.023
27.865,0.044
27.870,0.042
27.875,0.052
27.880,0.041
27.885,0.028
27.890,-0.005
27.895,-0.029
27.900,0.021
27.905,0.055
27.910,0.062
27.915,0.040
27.920,0.021
27.925,0.036
27.930,0.053
27.935,0.089
27.940,0.115
27.945,0.100
27.950,0.100
27.955,0.131
27.960,0.137
27.965,0.140
27.970,0.167
27.975,0.167
27.980,0.128
27.985,0.093
27.990,0.073
27.995,0.045
28.000,0.021
28.005,0.008
28.010,-0.019
28.015,-0.036
28.020,-0.015
28.025,-0.018
28.030,-0.048
28.035,-0.018
28.040,0.013
28.045,-0.020
28.050,-0.025
28.055,0.016
28.060,0.032
28.065,0.018
28.070,0.035
28.075,0.065
28.080,0.081
28.085,0.208
28.090,0.459
28.095,0.789
28.100,1.232
28.105,1.664
28.110,1.804
28.115,1.326
28.120,0.390
28.125,-0.359
28.130,-0.689
28.135,-0.736
28.140,-0.626
28.145,-0.459
28.150,-0.265
28.155,-0.110
28.160,-0.107
28.165,-0.160
28.170,-0.126
28.175,-0.084
28.180,-0.084
28.185,-0.047
28.190,-0.017
28.195,-0.061
28.200,-0.065
28.205,-0.011
28.210,-0.010
28.215,-0.010
28.220,0.041
28.225,0.055
28.230,0.021
28.235,0.025
28.240,0.066
28.245,0.071
28.250,0.068
28.255,0.083
28.260,0.074
28.265,0.083
28.270,0.130
28.275,0.149
28.280,0.134
28.285,0.129
28.290,0.130
28.295,0.144
28.300,0.175
28.305,0.206
28.310,0.217
28.315,0.204
28.320,0.222
28.325,0.255
28.330,0.262
28.335,0.292
28.340,0.331
28.345,0.321
28.350,0.297
28.355,0.286
28.360,0.246
28.365,0.211
28.370,0.220
28.375,0.206
28.380,0.132
28.385,0.053
28.390,-0.001
28.395,-0.069
28.400,-0.146
28.405,-0.195
28.410,-0.264
28.415,-0.354
28.420,-0.390
28.425,-0.402
28.430,-0.455
28.435,-0.481
28.440,-0.453
28.445,-0.483
28.450,-0.522
28.455,-0.490
28.460,-0.467
28.465,-0.457
28.470,-0.416
28.475,-0.395
28.480,-0.420
28.485,-0.397
28.490,-0.343
28.495,-0.357
28.500,-0.376
28.505,-0.324
28.510,-0.297
28.515,-0.329
28.520,-0.302
28.525,-0.229
28.530,-0.219
28.535,-0.246
28.540,-0.226
28.545,-0.199
28.550,-0.208
28.555,-0.195
28.560,-0.179
28.565,-0.187
28.570,-0.159
28.575,-0.093
28.580,-0.077
28.585,-0.103
28.590,-0.101
28.595,-0.110
28.600,-0.133
28.605,-0.103
28.610,-0.068
28.615,-0.068
28.620,-0.064
28.625,-0.048
28.630,-0.047
28.635,-0.067
28.640,-0.065
28.645,-0.038
28.650,-0.034
28.655,-0.029
28.660,-0.014
28.665,-0.023
28.670,-0.030
28.675,-0.003
28.680,0.027
28.685,0.049
28.690,0.071
28.695,0.076
28.700,0.089
28.705,0.134
28.710,0.177
28.715,0.173
28.720,0.165
28.725,0.177
28.730,0.155
28.735,0.170
28.740,0.207
28.745,0.105
28.750,-0.023
28.755,-0.020
28.760,0.021
28.765,-0.003
28.770,-0.051
28.775,-0.066
28.780,-0.084
28.785,-0.086
28.790,-0.075
28.795,-0.091
28.800,-0.090
28.805,-0.065
28.810,-0.023
28.815,0.010
28.820,-0.022
28.825,-0.054
28.830,-0.040
28.835,-0.019
28.840,0.009
28.845,0.045
28.850,0.127
28.855,0.356
28.860,0.720
28.865,1.153
28.870,1.590
28.875,1.727
28.880,1.171
28.885,0.160
28.890,-0.562
28.895,-0.788
28.900,-0.802
28.905,-0.673
28.910,-0.435
28.915,-0.247
28.920,-0.143
28.925,-0.107
28.930,-0.106
28.935,-0.081
28.940,-0.055
28.945,-0.064
28.950,-0.075
28.955,-0.034
28.960,-0.004
28.965,-0.048
28.970,-0.053
28.975,-0.009
28.980,-0.027
28.985,-0.045
28.990,0.012
28.995,0.041
29.000,0.016
29.005,0.025
29.010,0.042
29.015,0.064
29.020,0.105
29.025,0.086
29.030,0.050
29.035,0.068
29.040,0.111
29.045,0.137
29.050,0.148
29.055,0.167
29.060,0.170
29.065,0.188
29.070,0.233
29.075,0.290
29.080,0.304
29.085,0.252
29.090,0.262
29.095,0.274
29.100,0.265
29.105,0.377
29.110,0.451
29.115,0.362
29.120,0.282
29.125,0.278
29.130,0.272
29.135,0.266
29.140,0.257
29.145,0.200
29.150,0.104
29.155,0.030
29.160,-0.036
29.165,-0.149
29.170,-0.228
29.175,-0.237
29.180,-0.269
29.185,-0.298
29.190,-0.247
29.195,-0.215
29.200,-0.279
29.205,-0.348
29.210,-0.382
29.215,-0.438
29.220,-0.435
29.225,-0.328
29.230,-0.308
29.235,-0.348
29.240,-0.328
29.245,-0.315
29.250,-0.317
29.255,-0.300
29.260,-0.259
29.265,-0.222
29.270,-0.203
29.275,-0.194
29.280,-0.192
29.285,-0.159
29.290,-0.110
29.295,-0.123
29.300,-0.121
29.305,-0.039
29.310,-0.025
29.315,-0.095
29.320,-0.099
29.325,-0.020
29.330,0.013
29.335,-0.062
29.340,-0.141
29.345,-0.177
29.350,-0.219
29.355,-0.167
29.360,-0.033
29.365,0.032
29.370,0.008
29.375,-0.038
29.380,-0.058
29.385,-0.085
29.390,-0.097
29.395,-0.058
29.400,-0.005
29.405,0.026
29.410,0.007
29.415,-0.030
29.420,-0.034
29.425,-0.014
29.430,-0.010
29.435,0.021
29.440,0.114
29.445,0.168
29.450,0.134
29.455,0.080
29.460,0.091
29.465,0.214
29.470,0.331
29.475,0.300
29.480,0.188
29.485,0.174
29.490,0.231
29.495,0.206
29.500,0.186
29.505,0.227
29.510,0.174
29.515,0.046
29.520,-0.069
29.525,-0.128
29.530,-0.120
29.535,-0.125
29.540,-0.165
29.545,-0.162
29.550,-0.129
29.555,-0.064
29.560,0.020
29.565,0.006
29.570,-0.024
29.575,0.011
29.580,0.027
29.585,0.012
29.590,-0.031
29.595,-0.099
29.600,-0.112
29.605,0.008
29.610,0.238
29.615,0.533
29.620,0.908
29.625,1.294
29.630,1.510
29.635,1.241
29.640,0.415
29.645,-0.370
29.650,-0.719
29.655,-0.820
29.660,-0.829
29.665,-0.753
29.670,-0.636
29.675,-0.427
29.680,-0.232
29.685,-0.215
29.690,-0.221
29.695,-0.224
29.700,-0.241
29.705,-0.178
29.710,-0.113
29.715,-0.164
29.720,-0.215
29.725,-0.172
29.730,-0.120
29.735,-0.086
29.740,-0.061
29.745,-0.064
29.750,-0.086
29.755,-0.085
29.760,-0.020
29.765,0.049
29.770,0.072
29.775,0.095
29.780,0.097
29.785,0.104
29.790,0.164
29.795,0.140
29.800,0.056
29.805,0.114
29.810,0.156
29.815,0.150
29.820,0.247
29.825,0.273
29.830,0.216
29.835,0.205
29.840,0.226
29.845,0.293
29.850,0.375
29.855,0.346
29.860,0.268
29.865,0.257
29.870,0.291
29.875,0.358
29.880,0.397
29.885,0.355
29.890,0.305
29.895,0.248
29.900,0.167
29.905,0.147
29.910,0.116
29.915,-0.011
29.920,-0.097
29.925,-0.133
29.930,-0.205
29.935,-0.247
29.940,-0.293
29.945,-0.372
29.950,-0.389
29.955,-0.331
29.960,-0.274
29.965,-0.304
29.970,-0.359
29.975,-0.375
29.980,-0.377
29.985,-0.355
29.990,-0.261
29.995,-0.213
30.000,-0.274
30.005,-0.254
30.010,-0.211
30.015,-0.236
30.020,-0.218
30.025,-0.197
30.030,-0.206
30.035,-0.178
30.040,-0.107
30.045,-0.073
30.050,-0.110
30.055,-0.107
30.060,-0.070
30.065,-0.070
30.070,-0.059
30.075,-0.049
30.080,-0.126
30.085,-0.140
30.090,0.014
30.095,0.053
30.100,-0.016
30.105,-0.011
30.110,0.005
30.115,0.001
30.120,0.011
30.125,0.018
30.130,0.013
30.135,0.036
30.140,0.055
30.145,0.036
30.150,0.035
30.155,0.064
30.160,0.088
30.165,0.102
30.170,0.106
30.175,0.113
30.180,0.115
30.185,0.122
30.190,0.172
30.195,0.195
30.200,0.186
30.205,0.217
30.210,0.241
30.215,0.244
30.220,0.254
30.225,0.281
30.230,0.308
30.235,0.304
30.240,0.293
30.245,0.265
30.250,0.235
30.255,0.228
30.260,0.202
30.265,0.165
30.270,0.148
30.275,0.098
30.280,0.021
30.285,0.005
30.290,-0.001
30.295,-0.024
30.300,-0.023
30.305,-0.029
30.310,-0.034
30.315,-0.040
30.320,-0.032
30.325,0.009
30.330,0.020
30.335,-0.007
30.340,-0.013
30.345,-0.016
30.350,-0.010
30.355,0.050
30.360,0.105
30.365,0.213
30.370,0.484
30.375,0.861
30.380,1.258
30.385,1.598
30.390,1.594
30.395,0.906
30.400,-0.037
30.405,-0.525
30.410,-0.650
30.415,-0.701
30.420,-0.632
30.425,-0.450
30.430,-0.272
30.435,-0.149
30.440,-0.092
30.445,-0.095
30.450,-0.093
30.455,-0.071
30.460,-0.068
30.465,-0.070
30.470,-0.067
30.475,-0.049
30.480,-0.020
30.485,-0.025
30.490,-0.014
30.495,0.016
30.500,0.005
30.505,-0.004
30.510,-0.015
30.515,-0.024
30.520,-0.002
30.525,0.048
30.530,0.086
30.535,0.080
30.540,0.072
30.545,0.079
30.550,0.110
30.555,0.141
30.560,0.117
30.565,0.107
30.570,0.152
30.575,0.182
30.580,0.186
30.585,0.208
30.590,0.235
30.595,0.234
30.600,0.233
30.605,0.279
30.610,0.331
30.615,0.328
30.620,0.328
30.625,0.342
30.630,0.340
30.635,0.338
30.640,0.304
30.645,0.234
30.650,0.196
30.655,0.191
30.660,0.132
30.665,0.032
30.670,-0.034
30.675,-0.082
30.680,-0.170
30.685,-0.242
30.690,-0.259
30.695,-0.322
30.700,-0.415
30.705,-0.425
30.710,-0.426
30.715,-0.464
30.720,-0.461
30.725,-0.445
30.730,-0.444
30.735,-0.408
30.740,-0.383
30.745,-0.402
30.750,-0.397
30.755,-0.364
30.760,-0.349
30.765,-0.354
30.770,-0.333
30.775,-0.300
30.780,-0.300
30.785,-0.273
30.790,-0.224
30.795,-0.257
30.800,-0.278
30.805,-0.225
30.810,-0.242
30.815,-0.280
30.820,-0.208
30.825,-0.119
30.830,-0.137
30.835,-0.179
30.840,-0.167
30.845,-0.197
30.850,-0.201
30.855,-0.115
30.860,-0.089
30.865,-0.139
30.870,-0.168
30.875,-0.151
30.880,-0.149
30.885,-0.122
30.890,-0.055
30.895,-0.058
30.900,-0.102
30.905,-0.092
30.910,-0.064
30.915,-0.067
30.920,-0.064
30.925,-0.039
30.930,-0.027
30.935,-0.077
30.940,-0.105
30.945,-0.055
30.950,-0.021
30.955,0.032
30.960,0.084
30.965,0.046
30.970,0.010
30.975,0.039
30.980,0.081
30.985,0.114
30.990,0.148
30.995,0.165
31.000,0.173
31.005,0.193
31.010,0.155
31.015,0.088
31.020,0.057
31.025,0.013
31.030,-0.018
31.035,-0.046
31.040,-0.087
31.045,-0.073
31.050,-0.073
31.055,-0.119
31.060,-0.109
31.065,-0.092
31.070,-0.126
31.075,-0.112
31.080,-0.075
31.085,-0.088
31.090,-0.060
31.095,-0.004
31.100,-0.025
31.105,-0.059
31.110,-0.052
31.115,-0.079
31.120,-0.068
31.125,0.087
31.130,0.294
31.135,0.543
31.140,0.917
31.145,1.340
31.150,1.626
31.155,1.390
31.160,0.519
31.165,-0.312
31.170,-0.663
31.175,-0.746
31.180,-0.713
31.185,-0.611
31.190,-0.476
31.195,-0.320
31.200,-0.201
31.205,-0.171
31.210,-0.203
31.215,-0.190
31.220,-0.065
31.225,-0.003
31.230,-0.117
31.235,-0.178
31.240,-0.105
31.245,-0.071
31.250,-0.053
31.255,-0.018
31.260,0.004
31.265,0.010
31.270,-0.046
31.275,-0.023
31.280,0.063
31.285,0.065
31.290,0.079
31.295,0.074
31.300,0.057
31.305,0.091
31.310,0.069
31.315,0.051
31.320,0.136
31.325,0.212
31.330,0.187
31.335,0.179
31.340,0.199
31.345,0.176
31.350,0.227
31.355,0.321
31.360,0.293
31.365,0.245
31.370,0.320
31.375,0.393
31.380,0.345
31.385,0.296
31.390,0.342
31.395,0.379
31.400,0.385
31.405,0.411
31.410,0.331
31.415,0.164
31.420,0.149
31.425,0.209
31.430,0.120
31.435,-0.078
31.440,-0.199
31.445,-0.204
31.450,-0.155
31.455,-0.148
31.460,-0.292
31.465,-0.403
31.470,-0.385
31.475,-0.383
31.480,-0.371
31.485,-0.379
31.490,-0.386
31.495,-0.330
31.500,-0.316
31.505,-0.314
31.510,-0.350
31.515,-0.412
31.520,-0.309
31.525,-0.205
31.530,-0.244
31.535,-0.248
31.540,-0.224
31.545,-0.239
31.550,-0.260
31.555,-0.243
31.560,-0.149
31.565,-0.138
31.570,-0.235
31.575,-0.216
31.580,-0.155
31.585,-0.215
31.590,-0.208
31.595,-0.105
31.600,-0.077
31.605,-0.105
31.610,-0.135
31.615,-0.125
31.620,-0.093
31.625,-0.104
31.630,-0.079
31.635,-0.014
31.640,-0.060
31.645,-0.133
31.650,-0.094
31.655,-0.056
31.660,-0.067
31.665,-0.062
31.670,-0.005
31.675,0.003
31.680,-0.048
31.685,0.015
31.690,0.067
31.695,-0.020
31.700,-0.030
31.705,0.052
31.710,0.063
31.715,0.049
31.720,0.082
31.725,0.106
31.730,0.075
31.735,0.104
31.740,0.176
31.745,0.157
31.750,0.162
31.755,0.220
31.760,0.225
31.765,0.187
31.770,0.156
31.775,0.179
31.780,0.160
31.785,0.080
31.790,0.068
31.795,0.046
31.800,0.004
31.805,0.006
31.810,-0.041
31.815,-0.063
31.820,-0.036
31.825,-0.046
31.830,-0.026
31.835,0.023
31.840,0.046
31.845,0.015
31.850,-0.059
31.855,-0.057
31.860,0.007
31.865,0.038
31.870,0.052
31.875,0.044
31.880,0.028
31.885,0.117
31.890,0.353
31.895,0.632
31.900,0.959
31.905,1.386
31.910,1.691
31.915,1.480
31.920,0.682
31.925,-0.145
31.930,-0.559
31.935,-0.701
31.940,-0.705
31.945,-0.600
31.950,-0.454
31.955,-0.274
31.960,-0.171
31.965,-0.156
31.970,-0.094
31.975,-0.051
31.980,-0.054
31.985,-0.025
31.990,-0.024
31.995,-0.078
32.000,-0.071
32.005,0.003
32.010,0.048
32.015,0.030
32.020,-0.008
32.025,-0.011
32.030,0.002
32.035,0.029
32.040,0.077
32.045,0.079
32.050,0.058
32.055,0.072
32.060,0.073
32.065,0.064
32.070,0.097
32.075,0.149
32.080,0.168
32.085,0.149
32.090,0.138
32.095,0.157
32.100,0.196
32.105,0.234
32.110,0.247
32.115,0.250
32.120,0.266
32.125,0.287
32.130,0.292
32.135,0.303
32.140,0.339
32.145,0.357
32.150,0.344
32.155,0.337
32.160,0.333
32.165,0.300
32.170,0.261
32.175,0.222
32.180,0.160
32.185,0.095
32.190,0.012
32.195,-0.092
32.200,-0.166
32.205,-0.204
32.210,-0.258
32.215,-0.336
32.220,-0.378
32.225,-0.389
32.230,-0.413
32.235,-0.430
32.240,-0.427
32.245,-0.444
32.250,-0.446
32.255,-0.408
32.260,-0.398
32.265,-0.408
32.270,-0.370
32.275,-0.323
32.280,-0.327
32.285,-0.357
32.290,-0.355
32.295,-0.322
32.300,-0.285
32.305,-0.248
32.310,-0.227
32.315,-0.238
32.320,-0.247
32.325,-0.235
32.330,-0.208
32.335,-0.172
32.340,-0.156
32.345,-0.174
32.350,-0.176
32.355,-0.138
32.360,-0.113
32.365,-0.111
32.370,-0.090
32.375,-0.063
32.380,-0.059
32.385,-0.052
32.390,-0.043
32.395,-0.057
32.400,-0.066
32.405,-0.042
32.410,-0.023
32.415,-0.024
32.420,-0.015
32.425,-0.007
32.430,-0.012
32.435,-0.005
32.440,0.016
32.445,0.025
32.450,0.024
32.455,0.032
32.460,0.045
32.465,0.052
32.470,0.078
32.475,0.112
32.480,0.114
32.485,0.121
32.490,0.157
32.495,0.171
32.500,0.161
32.505,0.166
32.510,0.170
32.515,0.143
32.520,0.124
32.525,0.118
32.530,0.075
32.535,0.023
32.540,0.004
32.545,-0.016
32.550,-0.049
32.555,-0.066
32.560,-0.075
32.565,-0.087
32.570,-0.082
32.575,-0.069
32.580,-0.071
32.585,-0.065
32.590,-0.046
32.595,-0.045
32.600,-0.040
32.605,-0.006
32.610,0.015
32.615,0.002
32.620,-0.014
32.625,-0.010
32.630,0.036
32.635,0.175
32.640,0.422
32.645,0.743
32.650,1.145
32.655,1.577
32.660,1.697
32.665,1.137
32.670,0.196
32.675,-0.462
32.680,-0.702
32.685,-0.742
32.690,-0.658
32.695,-0.503
32.700,-0.344
32.705,-0.215
32.710,-0.159
32.715,-0.153
32.720,-0.143
32.725,-0.128
32.730,-0.118
32.735,-0.102
32.740,-0.077
32.745,-0.071
32.750,-0.077
32.755,-0.062
32.760,-0.049
32.765,-0.047
32.770,-0.025
32.775,-0.003
32.780,-0.005
32.785,0.004
32.790,0.033
32.795,0.036
32.800,0.033
32.805,0.057
32.810,0.077
32.815,0.091
32.820,0.124
32.825,0.140
32.830,0.126
32.835,0.134
32.840,0.166
32.845,0.185
32.850,0.201
32.855,0.236
32.860,0.265
32.865,0.277
32.870,0.303
32.875,0.326
32.880,0.315
32.885,0.315
32.890,0.341
32.895,0.342
32.900,0.333
32.905,0.342
32.910,0.335
32.915,0.295
32.920,0.251
32.925,0.207
32.930,0.132
32.935,0.043
32.940,-0.026
32.945,-0.094
32.950,-0.170
32.955,-0.231
32.960,-0.291
32.965,-0.350
32.970,-0.374
32.975,-0.385
32.980,-0.416
32.985,-0.431
32.990,-0.422
32.995,-0.420
33.000,-0.413
33.005,-0.386
33.010,-0.373
33.015,-0.373
33.020,-0.349
33.025,-0.316
33.030,-0.314
33.035,-0.314
33.040,-0.290
33.045,-0.279
33.050,-0.276
33.055,-0.243
33.060,-0.210
33.065,-0.211
33.070,-0.204
33.075,-0.181
33.080,-0.181
33.085,-0.178
33.090,-0.153
33.095,-0.146
33.100,-0.142
33.105,-0.108
33.110,-0.072
33.115,-0.069
33.120,-0.064
33.125,-0.053
33.130,-0.063
33.135,-0.065
33.140,-0.046
33.145,-0.036
33.150,-0.029
33.155,-0.010
33.160,-0.004
33.165,-0.020
33.170,-0.020
33.175,-0.010
33.180,-0.008
33.185,0.020
33.190,0.058
33.195,0.054
33.200,0.030
33.205,0.039
33.210,0.057
33.215,0.072
33.220,0.108
33.225,0.141
33.230,0.148
33.235,0.160
33.240,0.186
33.245,0.187
33.250,0.177
33.255,0.194
33.260,0.175
33.265,0.103
33.270,0.074
33.275,0.064
33.280,0.016
33.285,-0.007
33.290,0.003
33.295,-0.013
33.300,-0.053
33.305,-0.072
33.310,-0.064
33.315,-0.065
33.320,-0.073
33.325,-0.067
33.330,-0.062
33.335,-0.048
33.340,-0.026
33.345,-0.022
33.350,-0.013
33.355,0.025
33.360,0.035
33.365,-0.002
33.370,-0.013
33.375,0.045
33.380,0.176
33.385,0.387
33.390,0.696
33.395,1.110
33.400,1.548
33.405,1.709
33.410,1.209
33.415,0.251
33.420,-0.455
33.425,-0.696
33.430,-0.723
33.435,-0.618
33.440,-0.436
33.445,-0.319
33.450,-0.242
33.455,-0.156
33.460,-0.103
33.465,-0.097
33.470,-0.091
33.475,-0.079
33.480,-0.099
33.485,-0.090
33.490,-0.027
33.495,-0.003
33.500,-0.021
33.505,-0.012
33.510,0.000
33.515,-0.008
33.520,0.019
33.525,0.051
33.530,0.034
33.535,0.023
33.540,0.040
33.545,0.049
33.550,0.058
33.555,0.080
33.560,0.099
33.565,0.107
33.570,0.132
33.575,0.166
33.580,0.173
33.585,0.165
33.590,0.169
33.595,0.187
33.600,0.222
33.605,0.258
33.610,0.276
33.615,0.290
33.620,0.305
33.625,0.316
33.630,0.325
33.635,0.336
33.640,0.357
33.645,0.356
33.650,0.323
33.655,0.323
33.660,0.333
33.665,0.278
33.670,0.192
33.675,0.118
33.680,0.040
33.685,-0.041
33.690,-0.093
33.695,-0.144
33.700,-0.209
33.705,-0.253
33.710,-0.308
33.715,-0.384
33.720,-0.416
33.725,-0.417
33.730,-0.430
33.735,-0.413
33.740,-0.365
33.745,-0.383
33.750,-0.428
33.755,-0.414
33.760,-0.398
33.765,-0.372
33.770,-0.306
33.775,-0.284
33.780,-0.314
33.785,-0.317
33.790,-0.308
33.795,-0.297
33.800,-0.255
33.805,-0.206
33.810,-0.191
33.815,-0.224
33.820,-0.228
33.825,-0.181
33.830,-0.174
33.835,-0.154
33.840,-0.102
33.845,-0.138
33.850,-0.165
33.855,-0.110
33.860,-0.095
33.865,-0.103
33.870,-0.103
33.875,-0.099
33.880,-0.071
33.885,-0.065
33.890,-0.070
33.895,-0.043
33.900,-0.021
33.905,-0.027
33.910,-0.055
33.915,-0.079
33.920,-0.052
33.925,-0.003
33.930,-0.002
33.935,-0.027
33.940,-0.033
33.945,-0.020
33.950,0.003
33.955,0.015
33.960,0.017
33.965,0.036
33.970,0.070
33.975,0.089
33.980,0.077
33.985,0.072
33.990,0.098
33.995,0.131
34.000,0.155
34.005,0.171
34.010,0.194
34.015,0.189
34.020,0.141
34.025,0.107
34.030,0.079
34.035,0.064
34.040,0.084
34.045,0.055
34.050,-0.023
34.055,-0.069
34.060,-0.053
34.065,-0.021
34.070,-0.049
34.075,-0.103
34.080,-0.107
34.085,-0.069
34.090,-0.033
34.095,-0.020
34.100,-0.003
34.105,0.025
34.110,-0.029
34.115,-0.096
34.120,-0.042
34.125,0.013
34.130,0.002
34.135,0.007
34.140,0.081
34.145,0.264
34.150,0.539
34.155,0.876
34.160,1.264
34.165,1.590
34.170,1.518
34.175,0.810
34.180,-0.077
34.185,-0.551
34.190,-0.686
34.195,-0.695
34.200,-0.583
34.205,-0.477
34.210,-0.405
34.215,-0.287
34.220,-0.141
34.225,-0.058
34.230,-0.116
34.235,-0.119
34.240,-0.022
34.245,-0.044
34.250,-0.073
34.255,-0.039
34.260,-0.042
34.265,0.003
34.270,0.020
34.275,-0.086
34.280,-0.105
34.285,-0.016
34.290,0.053
34.295,0.080
34.300,0.034
34.305,0.010
34.310,0.060
34.315,0.101
34.320,0.123
34.325,0.120
34.330,0.091
34.335,0.103
34.340,0.144
34.345,0.168
34.350,0.182
34.355,0.217
34.360,0.264
34.365,0.257
34.370,0.244
34.375,0.254
34.380,0.254
34.385,0.315
34.390,0.377
34.395,0.328
34.400,0.299
34.405,0.378
34.410,0.396
34.415,0.323
34.420,0.307
34.425,0.309
34.430,0.240
34.435,0.195
34.440,0.178
34.445,0.036
34.450,-0.120
34.455,-0.125
34.460,-0.165
34.465,-0.286
34.470,-0.328
34.475,-0.367
34.480,-0.441
34.485,-0.447
34.490,-0.403
34.495,-0.376
34.500,-0.352
34.505,-0.388
34.510,-0.501
34.515,-0.479
34.520,-0.353
34.525,-0.339
34.530,-0.329
34.535,-0.277
34.540,-0.323
34.545,-0.365
34.550,-0.352
34.555,-0.298
34.560,-0.201
34.565,-0.205
34.570,-0.244
34.575,-0.268
34.580,-0.302
34.585,-0.245
34.590,-0.149
34.595,-0.083
34.600,-0.076
34.605,-0.138
34.610,-0.172
34.615,-0.145
34.620,-0.093
34.625,-0.053
34.630,-0.060
34.635,-0.081
34.640,-0.030
34.645,-0.011
34.650,-0.089
34.655,-0.059
34.660,0.011
34.665,-0.029
34.670,-0.053
34.675,-0.021
34.680,0.022
34.685,0.049
34.690,0.023
34.695,-0.024
34.700,-0.015
34.705,0.000
34.710,0.006
34.715,0.041
34.720,0.052
34.725,0.033
34.730,0.056
34.735,0.096
34.740,0.103
34.745,0.096
34.750,0.091
34.755,0.104
34.760,0.149
34.765,0.187
34.770,0.193
34.775,0.211
34.780,0.215
34.785,0.181
34.790,0.161
34.795,0.140
34.800,0.089
34.805,0.047
34.810,0.021
34.815,0.008
34.820,0.002
34.825,-0.041
34.830,-0.070
34.835,-0.045
34.840,-0.024
34.845,-0.033
34.850,-0.072
34.855,-0.075
34.860,-0.021
34.865,0.000
34.870,-0.015
34.875,-0.005
34.880,0.015
34.885,0.005
34.890,-0.011
34.895,-0.016
34.900,0.002
34.905,0.095
34.910,0.305
34.915,0.628
34.920,0.989
34.925,1.371
34.930,1.681
34.935,1.486
34.940,0.643
34.945,-0.239
34.950,-0.661
34.955,-0.742
34.960,-0.714
34.965,-0.618
34.970,-0.452
34.975,-0.276
34.980,-0.186
34.985,-0.155
34.990,-0.098
34.995,-0.077
35.000,-0.087
35.005,-0.067
35.010,-0.070
35.015,-0.092
35.020,-0.066
35.025,-0.028
35.030,-0.038
35.035,-0.034
35.040,0.016
35.045,0.027
35.050,0.006
35.055,0.019
35.060,0.039
35.065,0.054
35.070,0.087
35.075,0.098
35.080,0.080
35.085,0.080
35.090,0.105
35.095,0.099
35.100,0.076
35.105,0.119
35.110,0.180
35.115,0.190
35.120,0.194
35.125,0.226
35.130,0.266
35.135,0.271
35.140,0.288
35.145,0.321
35.150,0.298
35.155,0.298
35.160,0.352
35.165,0.375
35.170,0.374
35.175,0.360
35.180,0.347
35.185,0.326
35.190,0.264
35.195,0.197
35.200,0.136
35.205,0.067
35.210,0.016
35.215,-0.046
35.220,-0.149
35.225,-0.249
35.230,-0.305
35.235,-0.347
35.240,-0.379
35.245,-0.403
35.250,-0.428
35.255,-0.429
35.260,-0.413
35.265,-0.426
35.270,-0.456
35.275,-0.450
35.280,-0.421
35.285,-0.384
35.290,-0.358
35.295,-0.360
35.300,-0.329
35.305,-0.271
35.310,-0.291
35.315,-0.352
35.320,-0.335
35.325,-0.289
35.330,-0.277
35.335,-0.254
35.340,-0.217
35.345,-0.199
35.350,-0.192
35.355,-0.176
35.360,-0.159
35.365,-0.150
35.370,-0.137
35.375,-0.113
35.380,-0.113
35.385,-0.111
35.390,-0.089
35.395,-0.086
35.400,-0.084
35.405,-0.056
35.410,-0.034
35.415,-0.036
35.420,-0.040
35.425,-0.035
35.430,-0.035
35.435,-0.034
35.440,-0.022
35.445,-0.019
35.450,-0.010
35.455,0.013
35.460,0.012
35.465,-0.004
35.470,0.009
35.475,0.038
35.480,0.047
35.485,0.050
35.490,0.071
35.495,0.097
35.500,0.107
35.505,0.118
35.510,0.139
35.515,0.156
35.520,0.167
35.525,0.171
35.530,0.164
35.535,0.155
35.540,0.143
35.545,0.114
35.550,0.074
35.555,0.044
35.560,0.022
35.565,-0.005
35.570,-0.023
35.575,-0.035
35.580,-0.061
35.585,-0.073
35.590,-0.052
35.595,-0.046
35.600,-0.063
35.605,-0.058
35.610,-0.040
35.615,-0.036
35.620,-0.024
35.625,-0.004
35.630,-0.011
35.635,-0.024
35.640,-0.016
35.645,-0.009
35.650,-0.001
35.655,0.066
35.660,0.235
35.665,0.497
35.670,0.860
35.675,1.321
35.680,1.723
35.685,1.720
35.690,1.066
35.695,0.087
35.700,-0.586
35.705,-0.787
35.710,-0.763
35.715,-0.647
35.720,-0.465
35.725,-0.287
35.730,-0.188
35.735,-0.153
35.740,-0.123
35.745,-0.111
35.750,-0.115
35.755,-0.102
35.760,-0.092
35.765,-0.091
35.770,-0.070
35.775,-0.038
35.780,-0.033
35.785,-0.038
35.790,-0.013
35.795,0.004
35.800,-0.009
35.805,0.001
35.810,0.019
35.815,0.014
35.820,0.025
35.825,0.051
35.830,0.057
35.835,0.072
35.840,0.109
35.845,0.124
35.850,0.121
35.855,0.142
35.860,0.168
35.865,0.171
35.870,0.193
35.875,0.234
35.880,0.251
35.885,0.261
35.890,0.288
35.895,0.308
35.900,0.313
35.905,0.331
35.910,0.353
35.915,0.356
35.920,0.359
35.925,0.364
35.930,0.346
35.935,0.315
35.940,0.284
35.945,0.227
35.950,0.155
35.955,0.094
35.960,0.023
35.965,-0.067
35.970,-0.142
35.975,-0.205
35.980,-0.280
35.985,-0.343
35.990,-0.374
35.995,-0.409
36.000,-0.442
36.005,-0.447
36.010,-0.449
36.015,-0.462
36.020,-0.455
36.025,-0.430
36.030,-0.420
36.035,-0.413
36.040,-0.389
36.045,-0.371
36.050,-0.368
36.055,-0.353
36.060,-0.328
36.065,-0.319
36.070,-0.302
36.075,-0.270
36.080,-0.260
36.085,-0.262
36.090,-0.239
36.095,-0.221
36.100,-0.216
36.105,-0.190
36.110,-0.165
36.115,-0.164
36.120,-0.151
36.125,-0.127
36.130,-0.120
36.135,-0.113
36.140,-0.094
36.145,-0.083
36.150,-0.076
36.155,-0.051
36.160,-0.029
36.165,-0.036
36.170,-0.042
36.175,-0.030
36.180,-0.029
36.185,-0.029
36.190,-0.008
36.195,-0.008
36.200,-0.023
36.205,-0.002
36.210,0.030
36.215,0.031
36.220,0.027
36.225,0.046
36.230,0.068
36.235,0.090
36.240,0.121
36.245,0.130
36.250,0.131
36.255,0.149
36.260,0.166
36.265,0.170
36.270,0.172
36.275,0.169
36.280,0.147
36.285,0.123
36.290,0.115
36.295,0.083
36.300,0.034
36.305,0.024
36.310,0.019
36.315,-0.030
36.320,-0.072
36.325,-0.077
36.330,-0.072
36.335,-0.050
36.340,-0.026
36.345,-0.043
36.350,-0.062
36.355,-0.045
36.360,-0.033
36.365,-0.028
36.370,-0.006
36.375,0.005
36.380,-0.010
36.385,-0.017
36.390,-0.002
36.395,0.034
36.400,0.137
36.405,0.351
36.410,0.639
36.415,1.006
36.420,1.470
36.425,1.773
36.430,1.473
36.435,0.601
36.440,-0.250
36.445,-0.700
36.450,-0.808
36.455,-0.708
36.460,-0.514
36.465,-0.339
36.470,-0.212
36.475,-0.132
36.480,-0.122
36.485,-0.118
36.490,-0.084
36.495,-0.063
36.500,-0.065
36.505,-0.050
36.510,-0.036
36.515,-0.049
36.520,-0.047
36.525,-0.020
36.530,-0.016
36.535,-0.020
36.540,0.009
36.545,0.034
36.550,0.037
36.555,0.050
36.560,0.051
36.565,0.014
36.570,0.015
36.575,0.077
36.580,0.116
36.585,0.119
36.590,0.136
36.595,0.151
36.600,0.145
36.605,0.160
36.610,0.192
36.615,0.195
36.620,0.205
36.625,0.255
36.630,0.269
36.635,0.256
36.640,0.295
36.645,0.340
36.650,0.348
36.655,0.352
36.660,0.342
36.665,0.317
36.670,0.319
36.675,0.326
36.680,0.293
36.685,0.250
36.690,0.225
36.695,0.181
36.700,0.098
36.705,0.002
36.710,-0.086
36.715,-0.162
36.720,-0.227
36.725,-0.278
36.730,-0.318
36.735,-0.378
36.740,-0.426
36.745,-0.439
36.750,-0.445
36.755,-0.433
36.760,-0.427
36.765,-0.430
36.770,-0.420
36.775,-0.420
36.780,-0.421
36.785,-0.381
36.790,-0.330
36.795,-0.352
36.800,-0.381
36.805,-0.334
36.810,-0.295
36.815,-0.282
36.820,-0.246
36.825,-0.211
36.830,-0.205
36.835,-0.214
36.840,-0.208
36.845,-0.185
36.850,-0.169
36.855,-0.151
36.860,-0.127
36.865,-0.133
36.870,-0.139
36.875,-0.118
36.880,-0.115
36.885,-0.105
36.890,-0.058
36.895,-0.034
36.900,-0.065
36.905,-0.087
36.910,-0.074
36.915,-0.053
36.920,-0.020
36.925,0.006
36.930,-0.021
36.935,-0.045
36.940,-0.019
36.945,-0.018
36.950,-0.041
36.955,-0.028
36.960,-0.003
36.965,0.028
36.970,0.040
36.975,0.011
36.980,-0.005
36.985,0.000
36.990,0.031
36.995,0.071
37.000,0.065
37.005,0.057
37.010,0.078
37.015,0.098
37.020,0.096
37.025,0.087
37.030,0.115
37.035,0.151
37.040,0.186
37.045,0.214
37.050,0.207
37.055,0.228
37.060,0.235
37.065,0.135
37.070,0.080
37.075,0.115
37.080,0.073
37.085,0.007
37.090,0.014
37.095,-0.002
37.100,-0.051
37.105,-0.043
37.110,-0.036
37.115,-0.065
37.120,-0.061
37.125,-0.042
37.130,-0.045
37.135,-0.051
37.140,-0.032
37.145,-0.004
37.150,0.007
37.155,0.003
37.160,-0.018
37.165,-0.017
37.170,0.014
37.175,0.043
37.180,0.091
37.185,0.247
37.190,0.543
37.195,0.907
37.200,1.300
37.205,1.628
37.210,1.512
37.215,0.734
37.220,-0.150
37.225,-0.595
37.230,-0.734
37.235,-0.743
37.240,-0.616
37.245,-0.443
37.250,-0.308
37.255,-0.214
37.260,-0.157
37.265,-0.128
37.270,-0.095
37.275,-0.060
37.280,-0.054
37.285,-0.051
37.290,-0.028
37.295,-0.021
37.300,-0.025
37.305,0.000
37.310,0.029
37.315,0.010
37.320,-0.025
37.325,-0.019
37.330,-0.003
37.335,0.023
37.340,0.068
37.345,0.066
37.350,0.043
37.355,0.072
37.360,0.114
37.365,0.117
37.370,0.117
37.375,0.132
37.380,0.139
37.385,0.144
37.390,0.166
37.395,0.198
37.400,0.222
37.405,0.243
37.410,0.260
37.415,0.261
37.420,0.279
37.425,0.327
37.430,0.350
37.435,0.335
37.440,0.342
37.445,0.352
37.450,0.336
37.455,0.344
37.460,0.328
37.465,0.252
37.470,0.209
37.475,0.187
37.480,0.108
37.485,0.018
37.490,-0.027
37.495,-0.102
37.500,-0.216
37.505,-0.281
37.510,-0.298
37.515,-0.318
37.520,-0.352
37.525,-0.405
37.530,-0.450
37.535,-0.448
37.540,-0.430
37.545,-0.437
37.550,-0.445
37.555,-0.408
37.560,-0.360
37.565,-0.357
37.570,-0.363
37.575,-0.339
37.580,-0.319
37.585,-0.313
37.590,-0.297
37.595,-0.282
37.600,-0.271
37.605,-0.232
37.610,-0.197
37.615,-0.204
37.620,-0.211
37.625,-0.190
37.630,-0.181
37.635,-0.180
37.640,-0.156
37.645,-0.147
37.650,-0.147
37.655,-0.111
37.660,-0.074
37.665,-0.068
37.670,-0.067
37.675,-0.060
37.680,-0.060
37.685,-0.053
37.690,-0.038
37.695,-0.038
37.700,-0.043
37.705,-0.027
37.710,-0.014
37.715,-0.017
37.720,-0.009
37.725,0.003
37.730,-0.008
37.735,-0.015
37.740,0.007
37.745,0.018
37.750,0.003
37.755,0.002
37.760,0.011
37.765,0.009
37.770,0.023
37.775,0.052
37.780,0.061
37.785,0.062
37.790,0.082
37.795,0.098
37.800,0.100
37.805,0.129
37.810,0.169
37.815,0.180
37.820,0.188
37.825,0.200
37.830,0.191
37.835,0.160
37.840,0.133
37.845,0.109
37.850,0.073
37.855,0.043
37.860,0.023
37.865,-0.006
37.870,-0.028
37.875,-0.034
37.880,-0.052
37.885,-0.071
37.890,-0.064
37.895,-0.058
37.900,-0.065
37.905,-0.054
37.910,-0.040
37.915,-0.048
37.920,-0.044
37.925,-0.020
37.930,-0.013
37.935,-0.014
37.940,-0.003
37.945,-0.001
37.950,0.010
37.955,0.097
37.960,0.287
37.965,0.567
37.970,0.947
37.975,1.405
37.980,1.734
37.985,1.538
37.990,0.733
37.995,-0.151
38.000,-0.631
38.005,-0.744
38.010,-0.708
38.015,-0.598
38.020,-0.430
38.025,-0.268
38.030,-0.186
38.035,-0.155
38.040,-0.120
38.045,-0.110
38.050,-0.115
38.055,-0.099
38.060,-0.078
38.065,-0.076
38.070,-0.068
38.075,-0.049
38.080,-0.042
38.085,-0.039
38.090,-0.018
38.095,-0.005
38.100,-0.010
38.105,0.004
38.110,0.027
38.115,0.026
38.120,0.032
38.125,0.057
38.130,0.065
38.135,0.066
38.140,0.093
38.145,0.111
38.150,0.113
38.155,0.137
38.160,0.162
38.165,0.171
38.170,0.193
38.175,0.225
38.180,0.235
38.185,0.244
38.190,0.278
38.195,0.304
38.200,0.311
38.205,0.329
38.210,0.347
38.215,0.343
38.220,0.339
38.225,0.341
38.230,0.321
38.235,0.286
38.240,0.264
38.245,0.226
38.250,0.155
38.255,0.088
38.260,0.020
38.265,-0.071
38.270,-0.156
38.275,-0.214
38.280,-0.278
38.285,-0.343
38.290,-0.374
38.295,-0.399
38.300,-0.428
38.305,-0.437
38.310,-0.438
38.315,-0.446
38.320,-0.443
38.325,-0.425
38.330,-0.416
38.335,-0.408
38.340,-0.385
38.345,-0.369
38.350,-0.363
38.355,-0.343
38.360,-0.318
38.365,-0.310
38.370,-0.296
38.375,-0.266
38.380,-0.254
38.385,-0.253
38.390,-0.226
38.395,-0.205
38.400,-0.205
38.405,-0.184
38.410,-0.160
38.415,-0.160
38.420,-0.152
38.425,-0.127
38.430,-0.117
38.435,-0.117
38.440,-0.096
38.445,-0.080
38.450,-0.082
38.455,-0.068
38.460,-0.051
38.465,-0.053
38.470,-0.048
38.475,-0.031
38.480,-0.029
38.485,-0.032
38.490,-0.019
38.495,-0.012
38.500,-0.019
38.505,-0.007
38.510,0.008
38.515,0.001
38.520,-0.001
38.525,0.015
38.530,0.017
38.535,0.016
38.540,0.039
38.545,0.055
38.550,0.060
38.555,0.082
38.560,0.102
38.565,0.107
38.570,0.133
38.575,0.176
38.580,0.192
38.585,0.191
38.590,0.190
38.595,0.180
38.600,0.164
38.605,0.153
38.610,0.139
38.615,0.103
38.620,0.058
38.625,0.034
38.630,0.013
38.635,-0.017
38.640,-0.028
38.645,-0.040
38.650,-0.065
38.655,-0.060
38.660,-0.042
38.665,-0.048
38.670,-0.051
38.675,-0.037
38.680,-0.034
38.685,-0.029
38.690,-0.013
38.695,-0.010
38.700,-0.015
38.705,-0.004
38.710,0.001
38.715,0.015
38.720,0.104
38.725,0.289
38.730,0.557
38.735,0.944
38.740,1.415
38.745,1.718
38.750,1.517
38.755,0.740
38.760,-0.187
38.765,-0.738
38.770,-0.844
38.775,-0.735
38.780,-0.539
38.785,-0.330
38.790,-0.185
38.795,-0.124
38.800,-0.110
38.805,-0.097
38.810,-0.089
38.815,-0.103
38.820,-0.105
38.825,-0.086
38.830,-0.079
38.835,-0.066
38.840,-0.038
38.845,-0.020
38.850,-0.015
38.855,0.001
38.860,0.011
38.865,0.004
38.870,0.023
38.875,0.048
38.880,0.030
38.885,0.021
38.890,0.054
38.895,0.072
38.900,0.063
38.905,0.080
38.910,0.114
38.915,0.123
38.920,0.128
38.925,0.151
38.930,0.174
38.935,0.182
38.940,0.208
38.945,0.246
38.950,0.248
38.955,0.252
38.960,0.289
38.965,0.311
38.970,0.315
38.975,0.326
38.980,0.327
38.985,0.313
38.990,0.326
38.995,0.335
39.000,0.301
39.005,0.273
39.010,0.236
39.015,0.154
39.020,0.080
39.025,0.027
39.030,-0.056
39.035,-0.146
39.040,-0.203
39.045,-0.261
39.050,-0.327
39.055,-0.375
39.060,-0.412
39.065,-0.438
39.070,-0.426
39.075,-0.409
39.080,-0.428
39.085,-0.449
39.090,-0.440
39.095,-0.427
39.100,-0.422
39.105,-0.384
39.110,-0.329
39.115,-0.327
39.120,-0.341
39.125,-0.325
39.130,-0.303
39.135,-0.288
39.140,-0.266
39.145,-0.247
39.150,-0.257
39.155,-0.251
39.160,-0.214
39.165,-0.192
39.170,-0.169
39.175,-0.156
39.180,-0.177
39.185,-0.163
39.190,-0.113
39.195,-0.098
39.200,-0.118
39.205,-0.113
39.210,-0.083
39.215,-0.075
39.220,-0.058
39.225,-0.007
39.230,-0.028
39.235,-0.092
39.240,-0.081
39.245,-0.059
39.250,-0.060
39.255,-0.032
39.260,-0.011
39.265,-0.029
39.270,-0.017
39.275,0.006
39.280,-0.011
39.285,-0.010
39.290,0.020
39.295,0.026
39.300,0.018
39.305,0.018
39.310,0.019
39.315,0.017
39.320,0.016
39.325,0.047
39.330,0.067
39.335,0.039
39.340,0.034
39.345,0.067
39.350,0.108
39.355,0.122
39.360,0.111
39.365,0.105
39.370,0.114
39.375,0.168
39.380,0.224
39.385,0.220
39.390,0.193
39.395,0.198
39.400,0.200
39.405,0.178
39.410,0.147
39.415,0.104
39.420,0.068
39.425,0.055
39.430,0.049
39.435,0.031
39.440,0.005
39.445,-0.052
39.450,-0.087
39.455,-0.055
39.460,-0.044
39.465,-0.066
39.470,-0.059
39.475,-0.006
39.480,0.015
39.485,-0.027
39.490,-0.028
39.495,0.030
39.500,0.055
39.505,0.005
39.510,-0.059
39.515,-0.030
39.520,0.109
39.525,0.281
39.530,0.560
39.535,0.969
39.540,1.347
39.545,1.608
39.550,1.407
39.555,0.571
39.560,-0.231
39.565,-0.585
39.570,-0.736
39.575,-0.753
39.580,-0.609
39.585,-0.452
39.590,-0.312
39.595,-0.189
39.600,-0.115
39.605,-0.068
39.610,-0.073
39.615,-0.092
39.620,-0.085
39.625,-0.088
39.630,-0.090
39.635,-0.074
39.640,-0.068
39.645,-0.070
39.650,-0.037
39.655,0.024
39.660,0.017
39.665,-0.040
39.670,-0.027
39.675,0.031
39.680,0.065
39.685,0.048
39.690,0.025
39.695,0.044
39.700,0.071
39.705,0.097
39.710,0.101
39.715,0.083
39.720,0.108
39.725,0.144
39.730,0.157
39.735,0.173
39.740,0.209
39.745,0.264
39.750,0.296
39.755,0.298
39.760,0.313
39.765,0.314
39.770,0.306
39.775,0.337
39.780,0.359
39.785,0.347
39.790,0.349
39.795,0.350
39.800,0.323
39.805,0.305
39.810,0.289
39.815,0.221
39.820,0.123
39.825,0.043
39.830,-0.031
39.835,-0.110
39.840,-0.179
39.845,-0.237
39.850,-0.286
39.855,-0.339
39.860,-0.382
39.865,-0.402
39.870,-0.403
39.875,-0.393
39.880,-0.397
39.885,-0.403
39.890,-0.384
39.895,-0.373
39.900,-0.382
39.905,-0.366
39.910,-0.326
39.915,-0.314
39.920,-0.307
39.925,-0.282
39.930,-0.272
39.935,-0.267
39.940,-0.233
39.945,-0.210
39.950,-0.225
39.955,-0.225
39.960,-0.186
39.965,-0.163
39.970,-0.167
39.975,-0.156
39.980,-0.144
39.985,-0.137
39.990,-0.116
39.995,-0.104
40.000,-0.100
40.005,-0.082
40.010,-0.064
40.015,-0.065
40.020,-0.067
40.025,-0.054
40.030,-0.044
40.035,-0.043
40.040,-0.027
40.045,-0.012
40.050,-0.021
40.055,-0.017
40.060,0.002
40.065,-0.002
40.070,-0.014
40.075,-0.007
40.080,-0.004
40.085,-0.010
40.090,0.003
40.095,0.017
40.100,0.016
40.105,0.030
40.110,0.051
40.115,0.050
40.120,0.053
40.125,0.076
40.130,0.092
40.135,0.104
40.140,0.141
40.145,0.177
40.150,0.180
40.155,0.177
40.160,0.187
40.165,0.176
40.170,0.149
40.175,0.136
40.180,0.118
40.185,0.080
40.190,0.045
40.195,0.017
40.200,-0.013
40.205,-0.031
40.210,-0.041
40.215,-0.065
40.220,-0.078
40.225,-0.065
40.230,-0.063
40.235,-0.069
40.240,-0.049
40.245,-0.031
40.250,-0.038
40.255,-0.034
40.260,-0.016
40.265,-0.015
40.270,-0.014
40.275,-0.002
40.280,-0.002
40.285,0.027
40.290,0.151
40.295,0.376
40.300,0.684
40.305,1.090
40.310,1.538
40.315,1.730
40.320,1.291
40.325,0.378
40.330,-0.380
40.335,-0.700
40.340,-0.743
40.345,-0.674
40.350,-0.540
40.355,-0.373
40.360,-0.230
40.365,-0.169
40.370,-0.146
40.375,-0.114
40.380,-0.108
40.385,-0.113
40.390,-0.093
40.395,-0.073
40.400,-0.071
40.405,-0.061
40.410,-0.044
40.415,-0.042
40.420,-0.038
40.425,-0.017
40.430,-0.005
40.435,-0.002
40.440,0.013
40.445,0.028
40.450,0.027
40.455,0.040
40.460,0.068
40.465,0.076
40.470,0.081
40.475,0.102
40.480,0.113
40.485,0.121
40.490,0.147
40.495,0.169
40.500,0.176
40.505,0.197
40.510,0.233
40.515,0.248
40.520,0.258
40.525,0.290
40.530,0.312
40.535,0.315
40.540,0.333
40.545,0.349
40.550,0.344
40.555,0.340
40.560,0.342
40.565,0.322
40.570,0.288
40.575,0.258
40.580,0.203
40.585,0.126
40.590,0.061
40.595,-0.012
40.600,-0.107
40.605,-0.184
40.610,-0.242
40.615,-0.307
40.620,-0.357
40.625,-0.382
40.630,-0.412
40.635,-0.446
40.640,-0.451
40.645,-0.449
40.650,-0.457
40.655,-0.444
40.660,-0.417
40.665,-0.411
40.670,-0.402
40.675,-0.374
40.680,-0.360
40.685,-0.356
40.690,-0.332
40.695,-0.309
40.700,-0.306
40.705,-0.291
40.710,-0.264
40.715,-0.252
40.720,-0.238
40.725,-0.213
40.730,-0.201
40.735,-0.200
40.740,-0.179
40.745,-0.154
40.750,-0.154
40.755,-0.142
40.760,-0.116
40.765,-0.113
40.770,-0.112
40.775,-0.090
40.780,-0.080
40.785,-0.081
40.790,-0.065
40.795,-0.048
40.800,-0.051
40.805,-0.047
40.810,-0.030
40.815,-0.028
40.820,-0.027
40.825,-0.010
40.830,-0.007
40.835,-0.012
40.840,-0.001
40.845,0.009
40.850,0.001
40.855,0.005
40.860,0.025
40.865,0.025
40.870,0.028
40.875,0.052
40.880,0.067
40.885,0.079
40.890,0.101
40.895,0.115
40.900,0.123
40.905,0.158
40.910,0.196
40.915,0.197
40.920,0.186
40.925,0.188
40.930,0.179
40.935,0.160
40.940,0.148
40.945,0.134
40.950,0.092
40.955,0.046
40.960,0.025
40.965,0.002
40.970,-0.023
40.975,-0.031
40.980,-0.046
40.985,-0.062
40.990,-0.055
40.995,-0.048
41.000,-0.054
41.005,-0.045
41.010,-0.025
41.015,-0.025
41.020,-0.027
41.025,-0.009
41.030,-0.001
41.035,-0.010
41.040,-0.007
41.045,0.014
41.050,0.064
41.055,0.214
41.060,0.480
41.065,0.843
41.070,1.302
41.075,1.688
41.080,1.643
41.085,0.964
41.090,0.003
41.095,-0.640
41.100,-0.829
41.105,-0.770
41.110,-0.578
41.115,-0.360
41.120,-0.213
41.125,-0.135
41.130,-0.109
41.135,-0.106
41.140,-0.093
41.145,-0.079
41.150,-0.082
41.155,-0.071
41.160,-0.049
41.165,-0.046
41.170,-0.042
41.175,-0.022
41.180,-0.014
41.185,-0.022
41.190,-0.005
41.195,0.018
41.200,0.015
41.205,0.021
41.210,0.043
41.215,0.047
41.220,0.052
41.225,0.075
41.230,0.088
41.235,0.089
41.240,0.110
41.245,0.132
41.250,0.139
41.255,0.158
41.260,0.186
41.265,0.199
41.270,0.214
41.275,0.250
41.280,0.273
41.285,0.280
41.290,0.300
41.295,0.323
41.300,0.331
41.305,0.340
41.310,0.356
41.315,0.356
41.320,0.348
41.325,0.345
41.330,0.321
41.335,0.273
41.340,0.231
41.345,0.185
41.350,0.118
41.355,0.046
41.360,-0.036
41.365,-0.141
41.370,-0.231
41.375,-0.283
41.380,-0.325
41.385,-0.369
41.390,-0.402
41.395,-0.433
41.400,-0.461
41.405,-0.465
41.410,-0.458
41.415,-0.467
41.420,-0.464
41.425,-0.432
41.430,-0.412
41.435,-0.414
41.440,-0.399
41.445,-0.376
41.450,-0.367
41.455,-0.341
41.460,-0.298
41.465,-0.281
41.470,-0.283
41.475,-0.273
41.480,-0.257
41.485,-0.247
41.490,-0.232
41.495,-0.209
41.500,-0.190
41.505,-0.172
41.510,-0.153
41.515,-0.146
41.520,-0.136
41.525,-0.117
41.530,-0.114
41.535,-0.124
41.540,-0.126
41.545,-0.122
41.550,-0.109
41.555,-0.089
41.560,-0.066
41.565,-0.052
41.570,-0.045
41.575,-0.042
41.580,-0.055
41.585,-0.067
41.590,-0.043
41.595,0.001
41.600,0.001
41.605,-0.033
41.610,-0.037
41.615,-0.028
41.620,-0.026
41.625,-0.003
41.630,0.032
41.635,0.054
41.640,0.063
41.645,0.041
41.650,0.003
41.655,0.021
41.660,0.064
41.665,0.071
41.670,0.067
41.675,0.099
41.680,0.152
41.685,0.178
41.690,0.193
41.695,0.208
41.700,0.193
41.705,0.173
41.710,0.172
41.715,0.154
41.720,0.116
41.725,0.102
41.730,0.080
41.735,0.026
41.740,0.006
41.745,-0.002
41.750,-0.045
41.755,-0.056
41.760,-0.037
41.765,-0.055
41.770,-0.064
41.775,-0.032
41.780,-0.010
41.785,-0.002
41.790,0.013
41.795,0.006
41.800,-0.025
41.805,-0.027
41.810,-0.006
41.815,-0.015
41.820,-0.005
41.825,0.086
41.830,0.231
41.835,0.449
41.840,0.788
41.845,1.185
41.850,1.502
41.855,1.486
41.860,0.878
41.865,-0.016
41.870,-0.565
41.875,-0.706
41.880,-0.698
41.885,-0.592
41.890,-0.416
41.895,-0.254
41.900,-0.172
41.905,-0.132
41.910,-0.090
41.915,-0.091
41.920,-0.088
41.925,-0.045
41.930,-0.026
41.935,-0.033
41.940,-0.027
41.945,-0.008
41.950,-0.015
41.955,-0.035
41.960,-0.021
41.965,0.009
41.970,0.051
41.975,0.071
41.980,0.056
41.985,0.062
41.990,0.076
41.995,0.064
42.000,0.048
42.005,0.072
42.010,0.097
42.015,0.097
42.020,0.113
42.025,0.133
42.030,0.139
42.035,0.148
42.040,0.170
42.045,0.209
42.050,0.232
42.055,0.250
42.060,0.286
42.065,0.302
42.070,0.306
42.075,0.338
42.080,0.362
42.085,0.370
42.090,0.382
42.095,0.350
42.100,0.286
42.105,0.283
42.110,0.302
42.115,0.262
42.120,0.197
42.125,0.143
42.130,0.065
42.135,-0.037
42.140,-0.117
42.145,-0.179
42.150,-0.251
42.155,-0.315
42.160,-0.337
42.165,-0.369
42.170,-0.432
42.175,-0.440
42.180,-0.418
42.185,-0.426
42.190,-0.424
42.195,-0.418
42.200,-0.427
42.205,-0.412
42.210,-0.385
42.215,-0.379
42.220,-0.366
42.225,-0.328
42.230,-0.297
42.235,-0.283
42.240,-0.263
42.245,-0.246
42.250,-0.260
42.255,-0.258
42.260,-0.217
42.265,-0.189
42.270,-0.181
42.275,-0.170
42.280,-0.165
42.285,-0.162
42.290,-0.137
42.295,-0.114
42.300,-0.123
42.305,-0.124
42.310,-0.095
42.315,-0.085
42.320,-0.091
42.325,-0.067
42.330,-0.045
42.335,-0.050
42.340,-0.046
42.345,-0.033
42.350,-0.037
42.355,-0.031
42.360,-0.005
42.365,0.001
42.370,-0.010
42.375,0.003
42.380,0.018
42.385,-0.001
42.390,-0.009
42.395,0.009
42.400,0.008
42.405,0.006
42.410,0.031
42.415,0.040
42.420,0.047
42.425,0.079
42.430,0.092
42.435,0.077
42.440,0.087
42.445,0.116
42.450,0.130
42.455,0.152
42.460,0.188
42.465,0.207
42.470,0.212
42.475,0.223
42.480,0.215
42.485,0.167
42.490,0.134
42.495,0.125
42.500,0.083
42.505,0.038
42.510,0.030
42.515,0.014
42.520,-0.012
42.525,-0.021
42.530,-0.035
42.535,-0.059
42.540,-0.055
42.545,-0.042
42.550,-0.053
42.555,-0.050
42.560,-0.023
42.565,-0.019
42.570,-0.029
42.575,-0.017
42.580,-0.009
42.585,-0.018
42.590,-0.015
42.595,0.006
42.600,0.045
42.605,0.166
42.610,0.405
42.615,0.729
42.620,1.119
42.625,1.525
42.630,1.655
42.635,1.121
42.640,0.192
42.645,-0.455
42.650,-0.687
42.655,-0.721
42.660,-0.643
42.665,-0.506
42.670,-0.354
42.675,-0.210
42.680,-0.139
42.685,-0.128
42.690,-0.103
42.695,-0.080
42.700,-0.082
42.705,-0.077
42.710,-0.055
42.715,-0.050
42.720,-0.049
42.725,-0.032
42.730,-0.025
42.735,-0.024
42.740,-0.004
42.745,0.015
42.750,0.012
42.755,0.013
42.760,0.030
42.765,0.038
42.770,0.046
42.775,0.067
42.780,0.081
42.785,0.083
42.790,0.099
42.795,0.120
42.800,0.127
42.805,0.138
42.810,0.162
42.815,0.175
42.820,0.188
42.825,0.223
42.830,0.250
42.835,0.260
42.840,0.281
42.845,0.303
42.850,0.306
42.855,0.318
42.860,0.346
42.865,0.351
42.870,0.340
42.875,0.337
42.880,0.319
42.885,0.282
42.890,0.247
42.895,0.203
42.900,0.130
42.905,0.050
42.910,-0.014
42.915,-0.092
42.920,-0.174
42.925,-0.234
42.930,-0.296
42.935,-0.354
42.940,-0.383
42.945,-0.400
42.950,-0.427
42.955,-0.441
42.960,-0.434
42.965,-0.435
42.970,-0.437
42.975,-0.416
42.980,-0.398
42.985,-0.393
42.990,-0.372
42.995,-0.347
43.000,-0.344
43.005,-0.332
43.010,-0.302
43.015,-0.287
43.020,-0.281
43.025,-0.260
43.030,-0.244
43.035,-0.240
43.040,-0.216
43.045,-0.192
43.050,-0.190
43.055,-0.181
43.060,-0.160
43.065,-0.151
43.070,-0.149
43.075,-0.127
43.080,-0.107
43.085,-0.111
43.090,-0.101
43.095,-0.076
43.100,-0.075
43.105,-0.071
43.110,-0.054
43.115,-0.049
43.120,-0.049
43.125,-0.038
43.130,-0.028
43.135,-0.030
43.140,-0.025
43.145,-0.012
43.150,-0.014
43.155,-0.010
43.160,0.008
43.165,0.005
43.170,-0.001
43.175,0.013
43.180,0.023
43.185,0.025
43.190,0.042
43.195,0.070
43.200,0.082
43.205,0.089
43.210,0.112
43.215,0.131
43.220,0.150
43.225,0.180
43.230,0.190
43.235,0.176
43.240,0.172
43.245,0.177
43.250,0.156
43.255,0.130
43.260,0.125
43.265,0.093
43.270,0.038
43.275,0.012
43.280,-0.002
43.285,-0.032
43.290,-0.049
43.295,-0.055
43.300,-0.068
43.305,-0.070
43.310,-0.057
43.315,-0.057
43.320,-0.059
43.325,-0.041
43.330,-0.025
43.335,-0.028
43.340,-0.022
43.345,-0.006
43.350,-0.007
43.355,-0.012
43.360,0.001
43.365,0.042
43.370,0.159
43.375,0.393
43.380,0.726
43.385,1.150
43.390,1.579
43.395,1.691
43.400,1.142
43.405,0.174
43.410,-0.548
43.415,-0.813
43.420,-0.815
43.425,-0.674
43.430,-0.462
43.435,-0.284
43.440,-0.186
43.445,-0.141
43.450,-0.128
43.455,-0.120
43.460,-0.101
43.465,-0.092
43.470,-0.089
43.475,-0.068
43.480,-0.052
43.485,-0.053
43.490,-0.041
43.495,-0.023
43.500,-0.019
43.505,-0.010
43.510,0.011
43.515,0.019
43.520,0.022
43.525,0.040
43.530,0.057
43.535,0.056
43.540,0.069
43.545,0.093
43.550,0.099
43.555,0.111
43.560,0.138
43.565,0.151
43.570,0.158
43.575,0.182
43.580,0.208
43.585,0.219
43.590,0.243
43.595,0.275
43.600,0.288
43.605,0.306
43.610,0.335
43.615,0.345
43.620,0.344
43.625,0.362
43.630,0.372
43.635,0.359
43.640,0.348
43.645,0.338
43.650,0.301
43.655,0.255
43.660,0.212
43.665,0.143
43.670,0.056
43.675,-0.013
43.680,-0.084
43.685,-0.170
43.690,-0.237
43.695,-0.290
43.700,-0.351
43.705,-0.393
43.710,-0.407
43.715,-0.426
43.720,-0.443
43.725,-0.435
43.730,-0.432
43.735,-0.443
43.740,-0.427
43.745,-0.399
43.750,-0.387
43.755,-0.368
43.760,-0.333
43.765,-0.318
43.770,-0.320
43.775,-0.304
43.780,-0.286
43.785,-0.283
43.790,-0.269
43.795,-0.245
43.800,-0.229
43.805,-0.204
43.810,-0.173
43.815,-0.165
43.820,-0.165
43.825,-0.152
43.830,-0.142
43.835,-0.142
43.840,-0.135
43.845,-0.124
43.850,-0.122
43.855,-0.110
43.860,-0.085
43.865,-0.073
43.870,-0.065
43.875,-0.054
43.880,-0.053
43.885,-0.058
43.890,-0.046
43.895,-0.026
43.900,-0.030
43.905,-0.039
43.910,-0.030
43.915,-0.023
43.920,-0.012
43.925,0.007
43.930,0.005
43.935,-0.010
43.940,-0.005
43.945,0.012
43.950,0.009
43.955,0.006
43.960,0.033
43.965,0.058
43.970,0.067
43.975,0.082
43.980,0.088
43.985,0.075
43.990,0.083
43.995,0.112
44.000,0.140
44.005,0.171
44.010,0.203
44.015,0.202
44.020,0.179
44.025,0.186
44.030,0.198
44.035,0.166
44.040,0.126
44.045,0.093
44.050,0.037
44.055,-0.002
44.060,0.002
44.065,-0.004
44.070,-0.031
44.075,-0.061
44.080,-0.077
44.085,-0.075
44.090,-0.069
44.095,-0.046
44.100,-0.029
44.105,-0.032
44.110,-0.031
44.115,-0.029
44.120,-0.021
44.125,0.000
44.130,-0.001
44.135,-0.025
44.140,-0.002
44.145,0.087
44.150,0.234
44.155,0.477
44.160,0.839
44.165,1.248
44.170,1.529
44.175,1.416
44.180,0.757
44.185,-0.094
44.190,-0.605
44.195,-0.742
44.200,-0.718
44.205,-0.589
44.210,-0.405
44.215,-0.234
44.220,-0.134
44.225,-0.105
44.230,-0.081
44.235,-0.068
44.240,-0.067
44.245,-0.050
44.250,-0.054
44.255,-0.065
44.260,-0.031
44.265,-0.029
44.270,-0.075
44.275,-0.060
44.280,0.004
44.285,0.044
44.290,0.051
44.295,0.037
44.300,0.016
44.305,0.012
44.310,0.038
44.315,0.053
44.320,0.045
44.325,0.056
44.330,0.083
44.335,0.105
44.340,0.141
44.345,0.179
44.350,0.161
44.355,0.150
44.360,0.228
44.365,0.252
44.370,0.188
44.375,0.210
44.380,0.281
44.385,0.290
44.390,0.286
44.395,0.305
44.400,0.325
44.405,0.345
44.410,0.370
44.415,0.354
44.420,0.310
44.425,0.309
44.430,0.295
44.435,0.230
44.440,0.185
44.445,0.154
44.450,0.074
44.455,-0.026
44.460,-0.116
44.465,-0.220
44.470,-0.278
44.475,-0.281
44.480,-0.344
44.485,-0.432
44.490,-0.446
44.495,-0.423
44.500,-0.420
44.505,-0.416
44.510,-0.394
44.515,-0.391
44.520,-0.413
44.525,-0.413
44.530,-0.388
44.535,-0.368
44.540,-0.339
44.545,-0.313
44.550,-0.319
44.555,-0.314
44.560,-0.283
44.565,-0.271
44.570,-0.261
44.575,-0.218
44.580,-0.183
44.585,-0.190
44.590,-0.201
44.595,-0.194
44.600,-0.182
44.605,-0.171
44.610,-0.161
44.615,-0.158
44.620,-0.145
44.625,-0.110
44.630,-0.093
44.635,-0.102
44.640,-0.093
44.645,-0.069
44.650,-0.061
44.655,-0.054
44.660,-0.046
44.665,-0.046
44.670,-0.041
44.675,-0.017
44.680,0.003
44.685,-0.002
44.690,-0.007
44.695,-0.011
44.700,-0.026
44.705,-0.023
44.710,0.003
44.715,0.019
44.720,0.022
44.725,0.030
44.730,0.033
44.735,0.019
44.740,0.021
44.745,0.043
44.750,0.057
44.755,0.079
44.760,0.110
44.765,0.108
44.770,0.096
44.775,0.117
44.780,0.152
44.785,0.175
44.790,0.204
44.795,0.226
44.800,0.221
44.805,0.211
44.810,0.193
44.815,0.151
44.820,0.122
44.825,0.109
44.830,0.083
44.835,0.046
44.840,0.018
44.845,-0.013
44.850,-0.046
44.855,-0.059
44.860,-0.050
44.865,-0.048
44.870,-0.056
44.875,-0.046
44.880,-0.032
44.885,-0.038
44.890,-0.030
44.895,-0.002
44.900,0.004
44.905,0.002
44.910,0.013
44.915,0.004
44.920,-0.017
44.925,0.020
44.930,0.126
44.935,0.303
44.940,0.594
44.945,0.977
44.950,1.374
44.955,1.610
44.960,1.293
44.965,0.415
44.970,-0.340
44.975,-0.623
44.980,-0.687
44.985,-0.672
44.990,-0.554
44.995,-0.390
45.000,-0.245
45.005,-0.159
