'Elapsed time','ECG'
'seconds','mV'
0.000,0.047
0.005,0.029
0.010,0.026
0.015,0.030
0.020,0.034
0.025,0.030
0.030,0.023
0.035,0.024
0.040,0.025
0.045,0.020
0.050,0.018
0.055,0.022
0.060,0.014
0.065,0.008
0.070,0.010
0.075,0.001
0.080,-0.019
0.085,-0.033
0.090,-0.045
0.095,-0.062
0.100,-0.069
0.105,-0.072
0.110,-0.076
0.115,-0.066
0.120,-0.053
0.125,-0.073
0.130,-0.101
0.135,-0.085
0.140,-0.052
0.145,-0.039
0.150,-0.027
0.155,-0.023
0.160,-0.030
0.165,-0.012
0.170,0.011
0.175,0.011
0.180,0.030
0.185,0.062
0.190,0.070
0.195,0.067
0.200,0.072
0.205,0.083
0.210,0.086
0.215,0.078
0.220,0.071
0.225,0.068
0.230,0.063
0.235,0.062
0.240,0.060
0.245,0.055
0.250,0.062
0.255,0.069
0.260,0.011
0.265,-0.141
0.270,-0.366
0.275,-0.644
0.280,-0.969
0.285,-1.243
0.290,-1.122
0.295,-0.614
0.300,-0.158
0.305,0.215
0.310,0.504
0.315,0.558
0.320,0.501
0.325,0.435
0.330,0.346
0.335,0.274
0.340,0.237
0.345,0.215
0.350,0.206
0.355,0.201
0.360,0.185
0.365,0.175
0.370,0.172
0.375,0.161
0.380,0.153
0.385,0.150
0.390,0.140
0.395,0.126
0.400,0.121
0.405,0.117
0.410,0.103
0.415,0.092
0.420,0.087
0.425,0.079
0.430,0.073
0.435,0.070
0.440,0.063
0.445,0.049
0.450,0.041
0.455,0.038
0.460,0.022
0.465,0.009
0.470,0.006
0.475,-0.005
0.480,-0.015
0.485,-0.020
0.490,-0.032
0.495,-0.050
0.500,-0.061
0.505,-0.069
0.510,-0.084
0.515,-0.097
0.520,-0.106
0.525,-0.121
0.530,-0.135
0.535,-0.141
0.540,-0.147
0.545,-0.157
0.550,-0.164
0.555,-0.171
0.560,-0.180
0.565,-0.178
0.570,-0.170
0.575,-0.170
0.580,-0.163
0.585,-0.142
0.590,-0.120
0.595,-0.097
0.600,-0.070
0.605,-0.036
0.610,-0.004
0.615,0.024
0.620,0.055
0.625,0.086
0.630,0.108
0.635,0.125
0.640,0.138
0.645,0.148
0.650,0.161
0.655,0.169
0.660,0.164
0.665,0.160
0.670,0.158
0.675,0.150
0.680,0.142
0.685,0.140
0.690,0.135
0.695,0.125
0.700,0.121
0.705,0.118
0.710,0.112
0.715,0.104
0.720,0.098
0.725,0.089
0.730,0.084
0.735,0.081
0.740,0.075
0.745,0.067
0.750,0.063
0.755,0.060
0.760,0.054
0.765,0.049
0.770,0.047
0.775,0.043
0.780,0.039
0.785,0.037
0.790,0.036
0.795,0.034
0.800,0.035
0.805,0.033
0.810,0.028
0.815,0.027
0.820,0.030
0.825,0.030
0.830,0.025
0.835,0.022
0.840,0.026
0.845,0.024
0.850,0.024
0.855,0.027
0.860,0.023
0.865,0.020
0.870,0.021
0.875,0.016
0.880,0.015
0.885,0.018
0.890,0.016
0.895,0.012
0.900,0.011
0.905,0.008
0.910,0.003
0.915,0.001
0.920,0.003
0.925,0.000
0.930,-0.006
0.935,-0.003
0.940,-0.004
0.945,-0.010
0.950,-0.010
0.955,-0.010
0.960,-0.016
0.965,-0.017
0.970,-0.016
0.975,-0.019
0.980,-0.026
0.985,-0.028
0.990,-0.028
0.995,-0.032
1.000,-0.031
1.005,-0.025
1.010,-0.030
1.015,-0.035
1.020,-0.033
1.025,-0.033
1.030,-0.035
1.035,-0.032
1.040,-0.033
1.045,-0.040
1.050,-0.041
1.055,-0.035
1.060,-0.035
1.065,-0.037
1.070,-0.039
1.075,-0.042
1.080,-0.039
1.085,-0.035
1.090,-0.038
1.095,-0.044
1.100,-0.041
1.105,-0.037
1.110,-0.041
1.115,-0.043
1.120,-0.038
1.125,-0.038
1.130,-0.045
1.135,-0.038
1.140,-0.033
1.145,-0.042
1.150,-0.045
1.155,-0.049
1.160,-0.063
1.165,-0.078
1.170,-0.086
1.175,-0.098
1.180,-0.112
1.185,-0.118
1.190,-0.125
1.195,-0.117
1.200,-0.093
1.205,-0.101
1.210,-0.133
1.215,-0.125
1.220,-0.087
1.225,-0.067
1.230,-0.056
1.235,-0.053
1.240,-0.063
1.245,-0.051
1.250,-0.009
1.255,0.002
1.260,-0.017
1.265,0.017
1.270,0.088
1.275,0.090
1.280,0.046
1.285,0.052
1.290,0.073
1.295,0.072
1.300,0.051
1.305,0.010
1.310,0.014
1.315,0.049
1.320,0.052
1.325,0.043
1.330,0.066
1.335,0.094
1.340,0.056
1.345,-0.090
1.350,-0.303
1.355,-0.540
1.360,-0.858
1.365,-1.166
1.370,-1.111
1.375,-0.651
1.380,-0.153
1.385,0.217
1.390,0.471
1.395,0.533
1.400,0.463
1.405,0.411
1.410,0.335
1.415,0.250
1.420,0.225
1.425,0.196
1.430,0.202
1.435,0.235
1.440,0.206
1.445,0.205
1.450,0.251
1.455,0.231
1.460,0.150
1.465,0.089
1.470,0.085
1.475,0.119
1.480,0.125
1.485,0.091
1.490,0.080
1.495,0.115
1.500,0.110
1.505,0.053
1.510,0.060
1.515,0.074
1.520,0.058
1.525,0.049
1.530,0.037
1.535,0.064
1.540,0.068
1.545,0.018
1.550,0.001
1.555,0.006
1.560,0.002
1.565,-0.022
1.570,-0.054
1.575,-0.064
1.580,-0.060
1.585,-0.051
1.590,-0.057
1.595,-0.088
1.600,-0.108
1.605,-0.120
1.610,-0.154
1.615,-0.174
1.620,-0.171
1.625,-0.175
1.630,-0.163
1.635,-0.156
1.640,-0.185
1.645,-0.192
1.650,-0.170
1.655,-0.156
1.660,-0.139
1.665,-0.131
1.670,-0.126
1.675,-0.118
1.680,-0.110
1.685,-0.074
1.690,-0.025
1.695,0.012
1.700,0.037
1.705,0.066
1.710,0.103
1.715,0.115
1.720,0.124
1.725,0.149
1.730,0.163
1.735,0.160
1.740,0.152
1.745,0.163
1.750,0.162
1.755,0.152
1.760,0.161
1.765,0.163
1.770,0.154
1.775,0.138
1.780,0.127
1.785,0.124
1.790,0.113
1.795,0.108
1.800,0.105
1.805,0.099
1.810,0.104
1.815,0.107
1.820,0.107
1.825,0.094
1.830,0.069
1.835,0.063
1.840,0.058
1.845,0.040
1.850,0.030
1.855,0.034
1.860,0.043
1.865,0.049
1.870,0.053
1.875,0.053
1.880,0.045
1.885,0.037
1.890,0.035
1.895,0.041
1.900,0.048
1.905,0.055
1.910,0.047
1.915,0.025
1.920,0.011
1.925,-0.006
1.930,-0.017
1.935,-0.004
1.940,0.008
1.945,0.009
1.950,0.011
1.955,0.023
1.960,0.033
1.965,0.021
1.970,0.001
1.975,-0.002
1.980,-0.002
1.985,-0.003
1.990,0.004
1.995,0.000
2.000,-0.012
2.005,-0.008
2.010,-0.006
2.015,-0.012
2.020,-0.012
2.025,-0.015
2.030,-0.022
2.035,-0.019
2.040,-0.013
2.045,-0.023
2.050,-0.026
2.055,-0.023
2.060,-0.033
2.065,-0.033
2.070,-0.034
2.075,-0.043
2.080,-0.038
2.085,-0.031
2.090,-0.033
2.095,-0.039
2.100,-0.041
2.105,-0.033
2.110,-0.039
2.115,-0.056
2.120,-0.057
2.125,-0.062
2.130,-0.065
2.135,-0.050
2.140,-0.037
2.145,-0.049
2.150,-0.063
2.155,-0.055
2.160,-0.057
2.165,-0.056
2.170,-0.050
2.175,-0.055
2.180,-0.051
2.185,-0.056
2.190,-0.072
2.195,-0.071
2.200,-0.076
2.205,-0.092
2.210,-0.097
2.215,-0.096
2.220,-0.099
2.225,-0.113
2.230,-0.129
2.235,-0.125
2.240,-0.116
2.245,-0.136
2.250,-0.161
2.255,-0.143
2.260,-0.117
2.265,-0.101
2.270,-0.075
2.275,-0.067
2.280,-0.065
2.285,-0.036
2.290,0.000
2.295,0.017
2.300,0.008
2.305,0.006
2.310,0.024
2.315,0.040
2.320,0.059
2.325,0.072
2.330,0.069
2.335,0.068
2.340,0.066
2.345,0.057
2.350,0.054
2.355,0.064
2.360,0.060
2.365,0.044
2.370,0.043
2.375,0.053
2.380,0.031
2.385,-0.072
2.390,-0.261
2.395,-0.515
2.400,-0.824
2.405,-1.150
2.410,-1.155
2.415,-0.674
2.420,-0.181
2.425,0.137
2.430,0.392
2.435,0.505
2.440,0.509
2.445,0.466
2.450,0.382
2.455,0.299
2.460,0.226
2.465,0.202
2.470,0.212
2.475,0.189
2.480,0.172
2.485,0.183
2.490,0.172
2.495,0.155
2.500,0.162
2.505,0.155
2.510,0.138
2.515,0.123
2.520,0.114
2.525,0.107
2.530,0.096
2.535,0.095
2.540,0.092
2.545,0.083
2.550,0.074
2.555,0.073
2.560,0.072
2.565,0.060
2.570,0.061
2.575,0.057
2.580,0.033
2.585,0.019
2.590,0.016
2.595,0.011
2.600,0.005
2.605,-0.009
2.610,-0.032
2.615,-0.033
2.620,-0.020
2.625,-0.041
2.630,-0.069
2.635,-0.068
2.640,-0.071
2.645,-0.089
2.650,-0.102
2.655,-0.115
2.660,-0.128
2.665,-0.136
2.670,-0.138
2.675,-0.140
2.680,-0.149
2.685,-0.155
2.690,-0.164
2.695,-0.162
2.700,-0.140
2.705,-0.132
2.710,-0.132
2.715,-0.115
2.720,-0.085
2.725,-0.062
2.730,-0.045
2.735,-0.002
2.740,0.053
2.745,0.073
2.750,0.087
2.755,0.109
2.760,0.108
2.765,0.115
2.770,0.136
2.775,0.141
2.780,0.146
2.785,0.154
2.790,0.153
2.795,0.154
2.800,0.153
2.805,0.135
2.810,0.114
2.815,0.112
2.820,0.115
2.825,0.107
2.830,0.104
2.835,0.110
2.840,0.102
2.845,0.090
2.850,0.084
2.855,0.082
2.860,0.079
2.865,0.062
2.870,0.053
2.875,0.055
2.880,0.049
2.885,0.058
2.890,0.056
2.895,0.039
2.900,0.052
2.905,0.057
2.910,0.036
2.915,0.022
2.920,0.019
2.925,0.024
2.930,0.038
2.935,0.055
2.940,0.058
2.945,0.040
2.950,0.023
2.955,0.036
2.960,0.038
2.965,0.021
2.970,0.023
2.975,0.022
2.980,0.017
2.985,0.029
2.990,0.038
2.995,0.031
3.000,0.019
3.005,0.014
3.010,0.013
3.015,0.018
3.020,0.025
3.025,0.024
3.030,0.015
3.035,0.002
3.040,0.006
3.045,0.009
3.050,-0.004
3.055,0.000
3.060,0.002
3.065,-0.001
3.070,-0.003
3.075,-0.018
3.080,-0.023
3.085,-0.019
3.090,-0.015
3.095,-0.006
3.100,-0.004
3.105,-0.019
3.110,-0.033
3.115,-0.022
3.120,-0.009
3.125,-0.021
3.130,-0.037
3.135,-0.038
3.140,-0.032
3.145,-0.029
3.150,-0.026
3.155,-0.023
3.160,-0.027
3.165,-0.038
3.170,-0.039
3.175,-0.036
3.180,-0.036
3.185,-0.034
3.190,-0.032
3.195,-0.039
3.200,-0.047
3.205,-0.048
3.210,-0.055
3.215,-0.063
3.220,-0.071
3.225,-0.103
3.230,-0.119
3.235,-0.113
3.240,-0.119
3.245,-0.114
3.250,-0.096
3.255,-0.099
3.260,-0.132
3.265,-0.152
3.270,-0.129
3.275,-0.106
3.280,-0.086
3.285,-0.052
3.290,-0.049
3.295,-0.060
3.300,-0.036
3.305,-0.010
3.310,-0.001
3.315,0.019
3.320,0.038
3.325,0.041
3.330,0.038
3.335,0.044
3.340,0.055
3.345,0.058
3.350,0.058
3.355,0.051
3.360,0.044
3.365,0.052
3.370,0.052
3.375,0.044
3.380,0.047
3.385,0.053
3.390,0.032
3.395,-0.072
3.400,-0.277
3.405,-0.538
3.410,-0.827
3.415,-1.158
3.420,-1.274
3.425,-0.875
3.430,-0.312
3.435,0.071
3.440,0.359
3.445,0.503
3.450,0.509
3.455,0.483
3.460,0.413
3.465,0.311
3.470,0.246
3.475,0.229
3.480,0.216
3.485,0.199
3.490,0.187
3.495,0.185
3.500,0.183
3.505,0.163
3.510,0.146
3.515,0.148
3.520,0.143
3.525,0.132
3.530,0.122
3.535,0.115
3.540,0.109
3.545,0.098
3.550,0.096
3.555,0.087
3.560,0.066
3.565,0.065
3.570,0.067
3.575,0.058
3.580,0.055
3.585,0.054
3.590,0.039
3.595,0.017
3.600,0.009
3.605,0.014
3.610,0.010
3.615,0.000
3.620,-0.011
3.625,-0.034
3.630,-0.048
3.635,-0.047
3.640,-0.056
3.645,-0.070
3.650,-0.080
3.655,-0.093
3.660,-0.101
3.665,-0.107
3.670,-0.118
3.675,-0.129
3.680,-0.138
3.685,-0.146
3.690,-0.148
3.695,-0.150
3.700,-0.149
3.705,-0.148
3.710,-0.150
3.715,-0.145
3.720,-0.131
3.725,-0.108
3.730,-0.084
3.735,-0.052
3.740,-0.018
3.745,0.007
3.750,0.036
3.755,0.065
3.760,0.080
3.765,0.101
3.770,0.125
3.775,0.128
3.780,0.126
3.785,0.140
3.790,0.151
3.795,0.146
3.800,0.138
3.805,0.133
3.810,0.123
3.815,0.121
3.820,0.128
3.825,0.118
3.830,0.104
3.835,0.102
3.840,0.093
3.845,0.086
3.850,0.090
3.855,0.082
3.860,0.063
3.865,0.065
3.870,0.066
3.875,0.058
3.880,0.056
3.885,0.059
3.890,0.055
3.895,0.040
3.900,0.041
3.905,0.044
3.910,0.034
3.915,0.034
3.920,0.032
3.925,0.024
3.930,0.023
3.935,0.028
3.940,0.036
3.945,0.036
3.950,0.032
3.955,0.028
3.960,0.022
3.965,0.019
3.970,0.024
3.975,0.034
3.980,0.031
3.985,0.022
3.990,0.021
3.995,0.015
4.000,0.017
4.005,0.024
4.010,0.016
4.015,0.010
4.020,0.019
4.025,0.017
4.030,0.005
4.035,0.007
4.040,0.006
4.045,-0.002
4.050,0.003
4.055,0.009
4.060,0.002
4.065,0.000
4.070,-0.003
4.075,-0.012
4.080,-0.014
4.085,-0.009
4.090,-0.009
4.095,-0.008
4.100,-0.010
4.105,-0.022
4.110,-0.032
4.115,-0.028
4.120,-0.018
4.125,-0.019
4.130,-0.025
4.135,-0.023
4.140,-0.020
4.145,-0.021
4.150,-0.024
4.155,-0.024
4.160,-0.025
4.165,-0.025
4.170,-0.021
4.175,-0.031
4.180,-0.046
4.185,-0.039
4.190,-0.024
4.195,-0.027
4.200,-0.031
4.205,-0.031
4.210,-0.032
4.215,-0.028
4.220,-0.026
4.225,-0.032
4.230,-0.040
4.235,-0.049
4.240,-0.066
4.245,-0.084
4.250,-0.095
4.255,-0.106
4.260,-0.114
4.265,-0.117
4.270,-0.115
4.275,-0.101
4.280,-0.096
4.285,-0.120
4.290,-0.137
4.295,-0.119
4.300,-0.083
4.305,-0.061
4.310,-0.053
4.315,-0.050
4.320,-0.048
4.325,-0.035
4.330,-0.025
4.335,-0.018
4.340,0.007
4.345,0.036
4.350,0.049
4.355,0.052
4.360,0.047
4.365,0.053
4.370,0.062
4.375,0.055
4.380,0.051
4.385,0.055
4.390,0.052
4.395,0.046
4.400,0.042
4.405,0.046
4.410,0.054
4.415,0.036
4.420,-0.053
4.425,-0.248
4.430,-0.516
4.435,-0.817
4.440,-1.157
4.445,-1.300
4.450,-0.948
4.455,-0.421
4.460,-0.026
4.465,0.347
4.470,0.554
4.475,0.530
4.480,0.464
4.485,0.391
4.490,0.304
4.495,0.250
4.500,0.235
4.505,0.224
4.510,0.212
4.515,0.206
4.520,0.200
4.525,0.185
4.530,0.175
4.535,0.172
4.540,0.163
4.545,0.153
4.550,0.146
4.555,0.139
4.560,0.128
4.565,0.119
4.570,0.112
4.575,0.105
4.580,0.096
4.585,0.089
4.590,0.077
4.595,0.065
4.600,0.063
4.605,0.060
4.610,0.046
4.615,0.036
4.620,0.033
4.625,0.020
4.630,0.005
4.635,-0.002
4.640,-0.011
4.645,-0.021
4.650,-0.028
4.655,-0.040
4.660,-0.057
4.665,-0.070
4.670,-0.081
4.675,-0.094
4.680,-0.104
4.685,-0.112
4.690,-0.125
4.695,-0.136
4.700,-0.139
4.705,-0.147
4.710,-0.161
4.715,-0.165
4.720,-0.164
4.725,-0.172
4.730,-0.171
4.735,-0.157
4.740,-0.147
4.745,-0.134
4.750,-0.110
4.755,-0.084
4.760,-0.060
4.765,-0.027
4.770,0.010
4.775,0.037
4.780,0.067
4.785,0.094
4.790,0.111
4.795,0.132
4.800,0.147
4.805,0.152
4.810,0.156
4.815,0.162
4.820,0.162
4.825,0.153
4.830,0.150
4.835,0.147
4.840,0.139
4.845,0.136
4.850,0.133
4.855,0.127
4.860,0.118
4.865,0.110
4.870,0.106
4.875,0.099
4.880,0.091
4.885,0.085
4.890,0.076
4.895,0.073
4.900,0.072
4.905,0.065
4.910,0.058
4.915,0.055
4.920,0.052
4.925,0.047
4.930,0.045
4.935,0.049
4.940,0.045
4.945,0.037
4.950,0.037
4.955,0.036
4.960,0.033
4.965,0.036
4.970,0.038
4.975,0.034
4.980,0.029
4.985,0.029
4.990,0.031
4.995,0.030
5.000,0.028
5.005,0.026
5.010,0.028
5.015,0.028
5.020,0.026
5.025,0.021
5.030,0.019
5.035,0.021
5.040,0.018
5.045,0.010
5.050,0.011
5.055,0.013
5.060,0.007
5.065,0.001
5.070,0.002
5.075,0.004
5.080,0.003
5.085,-0.003
5.090,-0.010
5.095,-0.009
5.100,-0.002
5.105,-0.007
5.110,-0.016
5.115,-0.018
5.120,-0.021
5.125,-0.025
5.130,-0.023
5.135,-0.021
5.140,-0.025
5.145,-0.026
5.150,-0.025
5.155,-0.028
5.160,-0.034
5.165,-0.032
5.170,-0.030
5.175,-0.037
5.180,-0.035
5.185,-0.026
5.190,-0.033
5.195,-0.042
5.200,-0.039
5.205,-0.039
5.210,-0.045
5.215,-0.041
5.220,-0.036
5.225,-0.042
5.230,-0.044
5.235,-0.040
5.240,-0.040
5.245,-0.037
5.250,-0.035
5.255,-0.045
5.260,-0.050
5.265,-0.044
5.270,-0.040
5.275,-0.043
5.280,-0.045
5.285,-0.049
5.290,-0.059
5.295,-0.072
5.300,-0.079
5.305,-0.091
5.310,-0.111
5.315,-0.120
5.320,-0.118
5.325,-0.119
5.330,-0.106
5.335,-0.090
5.340,-0.107
5.345,-0.134
5.350,-0.121
5.355,-0.088
5.360,-0.072
5.365,-0.055
5.370,-0.046
5.375,-0.055
5.380,-0.046
5.385,-0.025
5.390,-0.023
5.395,-0.004
5.400,0.035
5.405,0.044
5.410,0.042
5.415,0.052
5.420,0.060
5.425,0.057
5.430,0.052
5.435,0.051
5.440,0.044
5.445,0.044
5.450,0.049
5.455,0.042
5.460,0.036
5.465,0.051
5.470,0.058
5.475,0.001
5.480,-0.141
5.485,-0.351
5.490,-0.617
5.495,-0.931
5.500,-1.184
5.505,-1.043
5.510,-0.562
5.515,-0.153
5.520,0.197
5.525,0.478
5.530,0.534
5.535,0.481
5.540,0.409
5.545,0.319
5.550,0.250
5.555,0.218
5.560,0.201
5.565,0.194
5.570,0.193
5.575,0.182
5.580,0.171
5.585,0.168
5.590,0.161
5.595,0.153
5.600,0.143
5.605,0.131
5.610,0.122
5.615,0.118
5.620,0.110
5.625,0.100
5.630,0.096
5.635,0.095
5.640,0.084
5.645,0.072
5.650,0.067
5.655,0.056
5.660,0.044
5.665,0.040
5.670,0.033
5.675,0.022
5.680,0.015
5.685,0.009
5.690,-0.005
5.695,-0.019
5.700,-0.023
5.705,-0.028
5.710,-0.041
5.715,-0.051
5.720,-0.062
5.725,-0.078
5.730,-0.090
5.735,-0.098
5.740,-0.113
5.745,-0.128
5.750,-0.128
5.755,-0.135
5.760,-0.151
5.765,-0.154
5.770,-0.158
5.775,-0.169
5.780,-0.169
5.785,-0.165
5.790,-0.162
5.795,-0.155
5.800,-0.140
5.805,-0.123
5.810,-0.105
5.815,-0.075
5.820,-0.040
5.825,-0.014
5.830,0.014
5.835,0.053
5.840,0.081
5.845,0.099
5.850,0.123
5.855,0.145
5.860,0.154
5.865,0.162
5.870,0.169
5.875,0.164
5.880,0.160
5.885,0.163
5.890,0.156
5.895,0.146
5.900,0.145
5.905,0.143
5.910,0.134
5.915,0.129
5.920,0.119
5.925,0.111
5.930,0.111
5.935,0.106
5.940,0.096
5.945,0.091
5.950,0.090
5.955,0.083
5.960,0.074
5.965,0.072
5.970,0.067
5.975,0.057
5.980,0.057
5.985,0.057
5.990,0.051
5.995,0.046
6.000,0.047
6.005,0.046
6.010,0.043
6.015,0.044
6.020,0.041
6.025,0.034
6.030,0.033
6.035,0.035
6.040,0.036
6.045,0.038
6.050,0.037
6.055,0.032
6.060,0.026
6.065,0.026
6.070,0.026
6.075,0.020
6.080,0.019
6.085,0.023
6.090,0.022
6.095,0.018
6.100,0.017
6.105,0.013
6.110,0.007
6.115,0.010
6.120,0.012
6.125,0.009
6.130,0.008
6.135,0.006
6.140,0.000
6.145,-0.004
6.150,-0.006
6.155,-0.009
6.160,-0.013
6.165,-0.014
6.170,-0.015
6.175,-0.023
6.180,-0.021
6.185,-0.017
6.190,-0.026
6.195,-0.029
6.200,-0.022
6.205,-0.022
6.210,-0.033
6.215,-0.039
6.220,-0.034
6.225,-0.032
6.230,-0.032
6.235,-0.033
6.240,-0.033
6.245,-0.033
6.250,-0.035
6.255,-0.036
6.260,-0.039
6.265,-0.042
6.270,-0.042
6.275,-0.044
6.280,-0.038
6.285,-0.030
6.290,-0.038
6.295,-0.043
6.300,-0.038
6.305,-0.037
6.310,-0.042
6.315,-0.044
6.320,-0.040
6.325,-0.042
6.330,-0.043
6.335,-0.036
6.340,-0.037
6.345,-0.045
6.350,-0.053
6.355,-0.066
6.360,-0.080
6.365,-0.087
6.370,-0.094
6.375,-0.113
6.380,-0.125
6.385,-0.119
6.390,-0.108
6.395,-0.098
6.400,-0.112
6.405,-0.143
6.410,-0.134
6.415,-0.097
6.420,-0.079
6.425,-0.067
6.430,-0.059
6.435,-0.062
6.440,-0.039
6.445,-0.009
6.450,0.005
6.455,0.017
6.460,0.028
6.465,0.042
6.470,0.053
6.475,0.051
6.480,0.051
6.485,0.060
6.490,0.058
6.495,0.051
6.500,0.051
6.505,0.049
6.510,0.049
6.515,0.054
6.520,0.049
6.525,0.046
6.530,0.050
6.535,0.008
6.540,-0.125
6.545,-0.324
6.550,-0.555
6.555,-0.836
6.560,-1.103
6.565,-0.993
6.570,-0.490
6.575,-0.075
6.580,0.208
6.585,0.434
6.590,0.480
6.595,0.438
6.600,0.396
6.605,0.318
6.610,0.236
6.615,0.201
6.620,0.185
6.625,0.163
6.630,0.160
6.635,0.161
6.640,0.140
6.645,0.131
6.650,0.136
6.655,0.132
6.660,0.123
6.665,0.116
6.670,0.111
6.675,0.099
6.680,0.088
6.685,0.088
6.690,0.083
6.695,0.074
6.700,0.073
6.705,0.066
6.710,0.056
6.715,0.053
6.720,0.040
6.725,0.025
6.730,0.027
6.735,0.023
6.740,0.009
6.745,0.005
6.750,0.003
6.755,-0.006
6.760,-0.014
6.765,-0.023
6.770,-0.038
6.775,-0.047
6.780,-0.051
6.785,-0.066
6.790,-0.089
6.795,-0.100
6.800,-0.098
6.805,-0.110
6.810,-0.122
6.815,-0.124
6.820,-0.130
6.825,-0.141
6.830,-0.143
6.835,-0.148
6.840,-0.162
6.845,-0.165
6.850,-0.155
6.855,-0.152
6.860,-0.148
6.865,-0.130
6.870,-0.108
6.875,-0.084
6.880,-0.051
6.885,-0.030
6.890,-0.020
6.895,0.017
6.900,0.064
6.905,0.085
6.910,0.096
6.915,0.110
6.920,0.126
6.925,0.142
6.930,0.153
6.935,0.152
6.940,0.144
6.945,0.145
6.950,0.145
6.955,0.133
6.960,0.125
6.965,0.121
6.970,0.116
6.975,0.119
6.980,0.118
6.985,0.112
6.990,0.105
6.995,0.095
7.000,0.090
7.005,0.076
7.010,0.066
7.015,0.081
7.020,0.087
7.025,0.066
7.030,0.063
7.035,0.070
7.040,0.066
7.045,0.062
7.050,0.054
7.055,0.039
7.060,0.034
7.065,0.040
7.070,0.047
7.075,0.049
7.080,0.047
7.085,0.046
7.090,0.040
7.095,0.037
7.100,0.049
7.105,0.046
7.110,0.035
7.115,0.040
7.120,0.041
7.125,0.025
7.130,0.025
7.135,0.040
7.140,0.031
7.145,0.017
7.150,0.028
7.155,0.036
7.160,0.022
7.165,0.016
7.170,0.025
7.175,0.026
7.180,0.017
7.185,0.005
7.190,0.001
7.195,0.008
7.200,0.006
7.205,-0.011
7.210,-0.011
7.215,0.008
7.220,0.006
7.225,-0.012
7.230,-0.016
7.235,-0.010
7.240,-0.014
7.245,-0.018
7.250,-0.021
7.255,-0.023
7.260,-0.019
7.265,-0.027
7.270,-0.035
7.275,-0.023
7.280,-0.006
7.285,-0.005
7.290,-0.019
7.295,-0.034
7.300,-0.042
7.305,-0.047
7.310,-0.041
7.315,-0.028
7.320,-0.034
7.325,-0.043
7.330,-0.031
7.335,-0.025
7.340,-0.038
7.345,-0.034
7.350,-0.028
7.355,-0.037
7.360,-0.042
7.365,-0.045
7.370,-0.040
7.375,-0.040
7.380,-0.054
7.385,-0.064
7.390,-0.072
7.395,-0.088
7.400,-0.092
7.405,-0.087
7.410,-0.102
7.415,-0.120
7.420,-0.118
7.425,-0.101
7.430,-0.105
7.435,-0.141
7.440,-0.153
7.445,-0.132
7.450,-0.104
7.455,-0.081
7.460,-0.065
7.465,-0.055
7.470,-0.038
7.475,-0.017
7.480,-0.007
7.485,0.005
7.490,0.020
7.495,0.034
7.500,0.050
7.505,0.053
7.510,0.050
7.515,0.062
7.520,0.062
7.525,0.051
7.530,0.060
7.535,0.062
7.540,0.047
7.545,0.044
7.550,0.047
7.555,0.040
7.560,0.042
7.565,0.045
7.570,-0.039
7.575,-0.231
7.580,-0.471
7.585,-0.758
7.590,-1.100
7.595,-1.245
7.600,-0.878
7.605,-0.326
7.610,0.043
7.615,0.326
7.620,0.476
7.625,0.474
7.630,0.453
7.635,0.399
7.640,0.300
7.645,0.243
7.650,0.233
7.655,0.223
7.660,0.209
7.665,0.186
7.670,0.167
7.675,0.163
7.680,0.162
7.685,0.155
7.690,0.145
7.695,0.137
7.700,0.127
7.705,0.127
7.710,0.131
7.715,0.128
7.720,0.108
7.725,0.087
7.730,0.083
7.735,0.082
7.740,0.061
7.745,0.047
7.750,0.055
7.755,0.052
7.760,0.054
7.765,0.056
7.770,0.030
7.775,0.010
7.780,0.014
7.785,0.018
7.790,0.009
7.795,-0.011
7.800,-0.025
7.805,-0.032
7.810,-0.050
7.815,-0.064
7.820,-0.059
7.825,-0.061
7.830,-0.077
7.835,-0.093
7.840,-0.106
7.845,-0.114
7.850,-0.121
7.855,-0.133
7.860,-0.137
7.865,-0.133
7.870,-0.137
7.875,-0.153
7.880,-0.164
7.885,-0.161
7.890,-0.148
7.895,-0.128
7.900,-0.106
7.905,-0.091
7.910,-0.074
7.915,-0.047
7.920,-0.021
7.925,0.009
7.930,0.041
7.935,0.065
7.940,0.079
7.945,0.098
7.950,0.119
7.955,0.128
7.960,0.131
7.965,0.134
7.970,0.130
7.975,0.122
7.980,0.118
7.985,0.117
7.990,0.121
7.995,0.123
8.000,0.116
8.005,0.107
8.010,0.091
8.015,0.082
8.020,0.084
8.025,0.081
8.030,0.072
8.035,0.072
8.040,0.072
8.045,0.060
8.050,0.051
8.055,0.050
8.060,0.051
8.065,0.056
8.070,0.058
8.075,0.049
8.080,0.037
8.085,0.033
8.090,0.035
8.095,0.042
8.100,0.042
8.105,0.035
8.110,0.031
8.115,0.035
8.120,0.039
8.125,0.034
8.130,0.030
8.135,0.035
8.140,0.026
8.145,0.020
8.150,0.040
8.155,0.043
8.160,0.028
8.165,0.031
8.170,0.035
8.175,0.023
8.180,0.021
8.185,0.029
8.190,0.023
8.195,0.012
8.200,0.013
8.205,0.014
8.210,0.013
8.215,0.015
8.220,0.014
8.225,0.010
8.230,0.003
8.235,-0.003
8.240,-0.010
8.245,-0.010
8.250,-0.002
8.255,-0.002
8.260,-0.010
8.265,-0.006
8.270,-0.006
8.275,-0.012
8.280,-0.011
8.285,-0.012
8.290,-0.018
8.295,-0.022
8.300,-0.018
8.305,-0.021
8.310,-0.029
8.315,-0.026
8.320,-0.022
8.325,-0.029
8.330,-0.031
8.335,-0.022
8.340,-0.024
8.345,-0.035
8.350,-0.038
8.355,-0.032
8.360,-0.029
8.365,-0.029
8.370,-0.030
8.375,-0.036
8.380,-0.033
8.385,-0.028
8.390,-0.035
8.395,-0.042
8.400,-0.042
8.405,-0.049
8.410,-0.060
8.415,-0.065
8.420,-0.082
8.425,-0.103
8.430,-0.108
8.435,-0.110
8.440,-0.119
8.445,-0.115
8.450,-0.092
8.455,-0.099
8.460,-0.137
8.465,-0.136
8.470,-0.103
8.475,-0.085
8.480,-0.062
8.485,-0.044
8.490,-0.054
8.495,-0.051
8.500,-0.025
8.505,-0.015
8.510,-0.004
8.515,0.028
8.520,0.045
8.525,0.041
8.530,0.048
8.535,0.063
8.540,0.067
8.545,0.061
8.550,0.055
8.555,0.049
8.560,0.048
8.565,0.053
8.570,0.049
8.575,0.042
8.580,0.050
8.585,0.059
8.590,0.024
8.595,-0.089
8.600,-0.289
8.605,-0.563
8.610,-0.881
8.615,-1.203
8.620,-1.258
8.625,-0.834
8.630,-0.304
8.635,0.097
8.640,0.429
8.645,0.561
8.650,0.530
8.655,0.474
8.660,0.391
8.665,0.300
8.670,0.247
8.675,0.230
8.680,0.220
8.685,0.206
8.690,0.192
8.695,0.184
8.700,0.180
8.705,0.168
8.710,0.153
8.715,0.148
8.720,0.144
8.725,0.133
8.730,0.125
8.735,0.121
8.740,0.111
8.745,0.103
8.750,0.100
8.755,0.089
8.760,0.076
8.765,0.074
8.770,0.067
8.775,0.054
8.780,0.047
8.785,0.045
8.790,0.036
8.795,0.021
8.800,0.013
8.805,0.007
8.810,-0.005
8.815,-0.008
8.820,-0.017
8.825,-0.036
8.830,-0.046
8.835,-0.056
8.840,-0.072
8.845,-0.085
8.850,-0.095
8.855,-0.106
8.860,-0.116
8.865,-0.125
8.870,-0.134
8.875,-0.144
8.880,-0.150
8.885,-0.155
8.890,-0.163
8.895,-0.167
8.900,-0.165
8.905,-0.162
8.910,-0.156
8.915,-0.141
8.920,-0.126
8.925,-0.113
8.930,-0.083
8.935,-0.048
8.940,-0.020
8.945,0.011
8.950,0.047
8.955,0.071
8.960,0.087
8.965,0.110
8.970,0.132
8.975,0.141
8.980,0.147
8.985,0.153
8.990,0.153
8.995,0.150
9.000,0.151
9.005,0.143
9.010,0.134
9.015,0.133
9.020,0.129
9.025,0.120
9.030,0.115
9.035,0.114
9.040,0.107
9.045,0.098
9.050,0.093
9.055,0.085
9.060,0.081
9.065,0.082
9.070,0.076
9.075,0.067
9.080,0.064
9.085,0.060
9.090,0.053
9.095,0.051
9.100,0.050
9.105,0.045
9.110,0.039
9.115,0.039
9.120,0.038
9.125,0.034
9.130,0.036
9.135,0.037
9.140,0.030
9.145,0.028
9.150,0.028
9.155,0.027
9.160,0.028
9.165,0.032
9.170,0.029
9.175,0.022
9.180,0.023
9.185,0.021
9.190,0.015
9.195,0.022
9.200,0.026
9.205,0.019
9.210,0.015
9.215,0.016
9.220,0.014
9.225,0.007
9.230,0.004
9.235,0.005
9.240,0.003
9.245,0.001
9.250,0.001
9.255,-0.002
9.260,-0.007
9.265,-0.007
9.270,-0.013
9.275,-0.017
9.280,-0.009
9.285,-0.009
9.290,-0.018
9.295,-0.020
9.300,-0.015
9.305,-0.018
9.310,-0.024
9.315,-0.023
9.320,-0.027
9.325,-0.035
9.330,-0.031
9.335,-0.027
9.340,-0.034
9.345,-0.036
9.350,-0.031
9.355,-0.035
9.360,-0.039
9.365,-0.035
9.370,-0.037
9.375,-0.042
9.380,-0.038
9.385,-0.034
9.390,-0.035
9.395,-0.039
9.400,-0.040
9.405,-0.042
9.410,-0.044
9.415,-0.042
9.420,-0.041
9.425,-0.041
9.430,-0.037
9.435,-0.038
9.440,-0.043
9.445,-0.041
9.450,-0.038
9.455,-0.043
9.460,-0.043
9.465,-0.037
9.470,-0.046
9.475,-0.062
9.480,-0.068
9.485,-0.078
9.490,-0.098
9.495,-0.111
9.500,-0.114
9.505,-0.116
9.510,-0.114
9.515,-0.097
9.520,-0.087
9.525,-0.109
9.530,-0.129
9.535,-0.109
9.540,-0.076
9.545,-0.056
9.550,-0.043
9.555,-0.048
9.560,-0.053
9.565,-0.028
9.570,-0.009
9.575,-0.013
9.580,0.010
9.585,0.045
9.590,0.051
9.595,0.050
9.600,0.054
9.605,0.059
9.610,0.063
9.615,0.063
9.620,0.058
9.625,0.052
9.630,0.052
9.635,0.049
9.640,0.040
9.645,0.041
9.650,0.056
9.655,0.057
9.660,-0.006
9.665,-0.159
9.670,-0.388
9.675,-0.663
9.680,-0.976
9.685,-1.207
9.690,-1.021
9.695,-0.519
9.700,-0.107
9.705,0.254
9.710,0.519
9.715,0.548
9.720,0.478
9.725,0.404
9.730,0.322
9.735,0.251
9.740,0.215
9.745,0.207
9.750,0.204
9.755,0.191
9.760,0.177
9.765,0.171
9.770,0.164
9.775,0.156
9.780,0.153
9.785,0.144
9.790,0.133
9.795,0.126
9.800,0.121
9.805,0.114
9.810,0.106
9.815,0.101
9.820,0.090
9.825,0.076
9.830,0.073
9.835,0.067
9.840,0.055
9.845,0.050
9.850,0.048
9.855,0.036
9.860,0.023
9.865,0.022
9.870,0.015
9.875,0.000
9.880,-0.007
9.885,-0.017
9.890,-0.033
9.895,-0.046
9.900,-0.054
9.905,-0.063
9.910,-0.077
9.915,-0.089
9.920,-0.101
9.925,-0.114
9.930,-0.121
9.935,-0.128
9.940,-0.142
9.945,-0.153
9.950,-0.156
9.955,-0.164
9.960,-0.171
9.965,-0.168
9.970,-0.165
9.975,-0.164
9.980,-0.154
9.985,-0.140
9.990,-0.124
9.995,-0.099
10.000,-0.067
10.005,-0.039
10.010,-0.011
10.015,0.024
10.020,0.057
10.025,0.084
10.030,0.108
10.035,0.129
10.040,0.145
10.045,0.153
10.050,0.162
10.055,0.167
10.060,0.163
10.065,0.163
10.070,0.163
10.075,0.157
10.080,0.155
10.085,0.149
10.090,0.137
10.095,0.134
10.100,0.131
10.105,0.120
10.110,0.110
10.115,0.110
10.120,0.106
10.125,0.095
10.130,0.093
10.135,0.092
10.140,0.082
10.145,0.077
10.150,0.074
10.155,0.067
10.160,0.060
10.165,0.059
10.170,0.056
10.175,0.048
10.180,0.047
10.185,0.048
10.190,0.040
10.195,0.037
10.200,0.038
10.205,0.033
10.210,0.036
10.215,0.039
10.220,0.032
10.225,0.029
10.230,0.033
10.235,0.031
10.240,0.026
10.245,0.030
10.250,0.033
10.255,0.028
10.260,0.022
10.265,0.023
10.270,0.020
10.275,0.016
10.280,0.021
10.285,0.023
10.290,0.014
10.295,0.011
10.300,0.013
10.305,0.007
10.310,0.002
10.315,0.005
10.320,0.005
10.325,-0.001
10.330,-0.005
10.335,-0.007
10.340,-0.008
10.345,-0.008
10.350,-0.011
10.355,-0.018
10.360,-0.021
10.365,-0.018
10.370,-0.017
10.375,-0.022
10.380,-0.025
10.385,-0.023
10.390,-0.026
10.395,-0.027
10.400,-0.027
10.405,-0.034
10.410,-0.037
10.415,-0.033
10.420,-0.031
10.425,-0.034
10.430,-0.032
10.435,-0.036
10.440,-0.045
10.445,-0.042
10.450,-0.036
10.455,-0.039
10.460,-0.042
10.465,-0.041
10.470,-0.041
10.475,-0.043
10.480,-0.042
10.485,-0.041
10.490,-0.044
10.495,-0.043
10.500,-0.038
10.505,-0.042
10.510,-0.043
10.515,-0.038
10.520,-0.040
10.525,-0.045
10.530,-0.042
10.535,-0.041
10.540,-0.046
10.545,-0.044
10.550,-0.040
10.555,-0.050
10.560,-0.061
10.565,-0.068
10.570,-0.084
10.575,-0.100
10.580,-0.107
10.585,-0.112
10.590,-0.119
10.595,-0.116
10.600,-0.098
10.605,-0.094
10.610,-0.119
10.615,-0.130
10.620,-0.108
10.625,-0.078
10.630,-0.053
10.635,-0.046
10.640,-0.056
10.645,-0.049
10.650,-0.027
10.655,-0.014
10.660,-0.002
10.665,0.025
10.670,0.041
10.675,0.045
10.680,0.056
10.685,0.062
10.690,0.059
10.695,0.060
10.700,0.063
10.705,0.060
10.710,0.052
10.715,0.051
10.720,0.049
10.725,0.042
10.730,0.045
10.735,0.055
10.740,0.050
10.745,-0.002
10.750,-0.143
10.755,-0.365
10.760,-0.622
10.765,-0.921
10.770,-1.149
10.775,-0.951
10.780,-0.445
10.785,-0.056
10.790,0.263
10.795,0.499
10.800,0.521
10.805,0.456
10.810,0.391
10.815,0.307
10.820,0.226
10.825,0.191
10.830,0.191
10.835,0.185
10.840,0.170
10.845,0.162
10.850,0.157
10.855,0.148
10.860,0.138
10.865,0.134
10.870,0.128
10.875,0.117
10.880,0.115
10.885,0.110
10.890,0.097
10.895,0.093
10.900,0.089
10.905,0.074
10.910,0.068
10.915,0.069
10.920,0.060
10.925,0.049
10.930,0.044
10.935,0.039
10.940,0.027
10.945,0.019
10.950,0.017
10.955,0.006
10.960,-0.005
10.965,-0.009
10.970,-0.020
10.975,-0.032
10.980,-0.039
10.985,-0.050
10.990,-0.066
10.995,-0.081
11.000,-0.088
11.005,-0.098
11.010,-0.112
11.015,-0.120
11.020,-0.131
11.025,-0.143
11.030,-0.149
11.035,-0.154
11.040,-0.162
11.045,-0.166
11.050,-0.164
11.055,-0.164
11.060,-0.161
11.065,-0.148
11.070,-0.139
11.075,-0.127
11.080,-0.102
11.085,-0.074
11.090,-0.048
11.095,-0.016
11.100,0.017
11.105,0.043
11.110,0.070
11.115,0.100
11.120,0.119
11.125,0.133
11.130,0.150
11.135,0.155
11.140,0.153
11.145,0.156
11.150,0.157
11.155,0.149
11.160,0.150
11.165,0.151
11.170,0.141
11.175,0.137
11.180,0.134
11.185,0.126
11.190,0.116
11.195,0.111
11.200,0.106
11.205,0.101
11.210,0.097
11.215,0.095
11.220,0.089
11.225,0.082
11.230,0.077
11.235,0.073
11.240,0.065
11.245,0.060
11.250,0.059
11.255,0.049
11.260,0.043
11.265,0.049
11.270,0.048
11.275,0.042
11.280,0.045
11.285,0.046
11.290,0.036
11.295,0.035
11.300,0.041
11.305,0.035
11.310,0.029
11.315,0.033
11.320,0.030
11.325,0.027
11.330,0.039
11.335,0.036
11.340,0.020
11.345,0.024
11.350,0.034
11.355,0.024
11.360,0.015
11.365,0.019
11.370,0.015
11.375,0.009
11.380,0.017
11.385,0.015
11.390,0.001
11.395,0.003
11.400,0.014
11.405,0.005
11.410,-0.007
11.415,-0.006
11.420,-0.006
11.425,-0.010
11.430,-0.013
11.435,-0.012
11.440,-0.017
11.445,-0.021
11.450,-0.020
11.455,-0.024
11.460,-0.018
11.465,-0.013
11.470,-0.023
11.475,-0.025
11.480,-0.019
11.485,-0.026
11.490,-0.034
11.495,-0.031
11.500,-0.032
11.505,-0.039
11.510,-0.041
11.515,-0.041
11.520,-0.039
11.525,-0.032
11.530,-0.023
11.535,-0.031
11.540,-0.041
11.545,-0.035
11.550,-0.031
11.555,-0.037
11.560,-0.040
11.565,-0.044
11.570,-0.052
11.575,-0.053
11.580,-0.043
11.585,-0.037
11.590,-0.041
11.595,-0.037
11.600,-0.032
11.605,-0.039
11.610,-0.040
11.615,-0.036
11.620,-0.043
11.625,-0.049
11.630,-0.048
11.635,-0.053
11.640,-0.072
11.645,-0.081
11.650,-0.078
11.655,-0.099
11.660,-0.116
11.665,-0.112
11.670,-0.111
11.675,-0.109
11.680,-0.099
11.685,-0.111
11.690,-0.144
11.695,-0.144
11.700,-0.109
11.705,-0.091
11.710,-0.074
11.715,-0.054
11.720,-0.054
11.725,-0.036
11.730,0.002
11.735,0.014
11.740,0.006
11.745,0.018
11.750,0.049
11.755,0.059
11.760,0.056
11.765,0.063
11.770,0.066
11.775,0.063
11.780,0.067
11.785,0.062
11.790,0.050
11.795,0.052
11.800,0.053
11.805,0.040
11.810,0.044
11.815,0.072
11.820,0.057
11.825,-0.054
11.830,-0.244
11.835,-0.478
11.840,-0.760
11.845,-1.068
11.850,-1.119
11.855,-0.712
11.860,-0.227
11.865,0.087
11.870,0.320
11.875,0.441
11.880,0.470
11.885,0.435
11.890,0.348
11.895,0.278
11.900,0.232
11.905,0.204
11.910,0.199
11.915,0.194
11.920,0.172
11.925,0.158
11.930,0.156
11.935,0.148
11.940,0.144
11.945,0.149
11.950,0.140
11.955,0.123
11.960,0.115
11.965,0.114
11.970,0.109
11.975,0.095
11.980,0.088
11.985,0.090
11.990,0.077
11.995,0.064
12.000,0.069
12.005,0.065
12.010,0.057
12.015,0.054
12.020,0.045
12.025,0.030
12.030,0.016
12.035,0.002
12.040,-0.002
12.045,0.004
12.050,-0.003
12.055,-0.020
12.060,-0.030
12.065,-0.035
12.070,-0.042
12.075,-0.051
12.080,-0.057
12.085,-0.069
12.090,-0.090
12.095,-0.102
12.100,-0.106
12.105,-0.118
12.110,-0.125
12.115,-0.125
12.120,-0.138
12.125,-0.152
12.130,-0.147
12.135,-0.141
12.140,-0.144
12.145,-0.136
12.150,-0.123
12.155,-0.118
12.160,-0.104
12.165,-0.079
12.170,-0.058
12.175,-0.025
12.180,0.015
12.185,0.035
12.190,0.050
12.195,0.081
12.200,0.103
12.205,0.101
12.210,0.116
12.215,0.133
12.220,0.121
12.225,0.114
12.230,0.128
12.235,0.130
12.240,0.118
12.245,0.117
12.250,0.116
12.255,0.107
12.260,0.103
12.265,0.102
12.270,0.095
12.275,0.081
12.280,0.086
12.285,0.089
12.290,0.064
12.295,0.063
12.300,0.073
12.305,0.068
12.310,0.067
12.315,0.057
12.320,0.042
12.325,0.040
12.330,0.043
12.335,0.052
12.340,0.053
12.345,0.038
12.350,0.035
12.355,0.035
12.360,0.034
12.365,0.040
12.370,0.039
12.375,0.041
12.380,0.049
12.385,0.046
12.390,0.036
12.395,0.034
12.400,0.043
12.405,0.041
12.410,0.029
12.415,0.020
12.420,0.026
12.425,0.037
12.430,0.028
12.435,0.031
12.440,0.035
12.445,0.022
12.450,0.026
12.455,0.025
12.460,0.014
12.465,0.019
12.470,0.020
12.475,0.007
12.480,0.002
12.485,0.000
12.490,-0.007
12.495,-0.004
12.500,0.000
12.505,-0.007
12.510,-0.009
12.515,-0.005
12.520,-0.011
12.525,-0.008
12.530,-0.001
12.535,-0.015
12.540,-0.018
12.545,-0.009
12.550,-0.019
12.555,-0.036
12.560,-0.032
12.565,-0.023
12.570,-0.027
12.575,-0.025
12.580,-0.021
12.585,-0.033
12.590,-0.033
12.595,-0.019
12.600,-0.027
12.605,-0.039
12.610,-0.040
12.615,-0.033
12.620,-0.024
12.625,-0.031
12.630,-0.038
12.635,-0.032
12.640,-0.029
12.645,-0.034
12.650,-0.037
12.655,-0.037
12.660,-0.038
12.665,-0.039
12.670,-0.044
12.675,-0.040
12.680,-0.022
12.685,-0.028
12.690,-0.043
12.695,-0.041
12.700,-0.056
12.705,-0.086
12.710,-0.096
12.715,-0.098
12.720,-0.117
12.725,-0.129
12.730,-0.117
12.735,-0.103
12.740,-0.106
12.745,-0.122
12.750,-0.138
12.755,-0.128
12.760,-0.096
12.765,-0.077
12.770,-0.060
12.775,-0.046
12.780,-0.047
12.785,-0.042
12.790,-0.024
12.795,-0.004
12.800,0.019
12.805,0.039
12.810,0.051
12.815,0.056
12.820,0.055
12.825,0.063
12.830,0.069
12.835,0.059
12.840,0.049
12.845,0.053
12.850,0.061
12.855,0.046
12.860,0.030
12.865,0.046
12.870,0.071
12.875,0.077
12.880,0.021
12.885,-0.136
12.890,-0.374
12.895,-0.661
12.900,-0.990
12.905,-1.271
12.910,-1.132
12.915,-0.568
12.920,-0.084
12.925,0.232
12.930,0.449
12.935,0.510
12.940,0.497
12.945,0.446
12.950,0.356
12.955,0.272
12.960,0.233
12.965,0.227
12.970,0.218
12.975,0.203
12.980,0.191
12.985,0.179
12.990,0.173
12.995,0.171
13.000,0.163
13.005,0.148
13.010,0.131
13.015,0.119
13.020,0.118
13.025,0.125
13.030,0.122
13.035,0.101
13.040,0.082
13.045,0.085
13.050,0.087
13.055,0.076
13.060,0.072
13.065,0.072
13.070,0.051
13.075,0.032
13.080,0.035
13.085,0.029
13.090,0.017
13.095,0.006
13.100,-0.003
13.105,-0.006
13.110,-0.018
13.115,-0.031
13.120,-0.043
13.125,-0.054
13.130,-0.057
13.135,-0.070
13.140,-0.084
13.145,-0.086
13.150,-0.093
13.155,-0.109
13.160,-0.117
13.165,-0.122
13.170,-0.132
13.175,-0.139
13.180,-0.139
13.185,-0.148
13.190,-0.165
13.195,-0.163
13.200,-0.146
13.205,-0.130
13.210,-0.111
13.215,-0.091
13.220,-0.075
13.225,-0.053
13.230,-0.022
13.235,0.004
13.240,0.035
13.245,0.066
13.250,0.080
13.255,0.099
13.260,0.121
13.265,0.134
13.270,0.138
13.275,0.131
13.280,0.131
13.285,0.132
13.290,0.128
13.295,0.129
13.300,0.133
13.305,0.126
13.310,0.110
13.315,0.096
13.320,0.101
13.325,0.106
13.330,0.095
13.335,0.083
13.340,0.074
13.345,0.071
13.350,0.067
13.355,0.063
13.360,0.063
13.365,0.055
13.370,0.047
13.375,0.047
13.380,0.050
13.385,0.049
13.390,0.043
13.395,0.037
13.400,0.033
13.405,0.032
13.410,0.030
13.415,0.028
13.420,0.022
13.425,0.020
13.430,0.025
13.435,0.026
13.440,0.027
13.445,0.031
13.450,0.026
13.455,0.016
13.460,0.021
13.465,0.031
13.470,0.029
13.475,0.027
13.480,0.029
13.485,0.026
13.490,0.021
13.495,0.023
13.500,0.017
13.505,0.005
13.510,0.005
13.515,0.013
13.520,0.017
13.525,0.014
13.530,0.008
13.535,0.002
13.540,-0.003
13.545,-0.004
13.550,-0.005
13.555,-0.012
13.560,-0.007
13.565,0.003
13.570,-0.008
13.575,-0.017
13.580,-0.012
13.585,-0.010
13.590,-0.017
13.595,-0.023
13.600,-0.027
13.605,-0.030
13.610,-0.026
13.615,-0.020
13.620,-0.021
13.625,-0.027
13.630,-0.028
13.635,-0.028
13.640,-0.029
13.645,-0.028
13.650,-0.029
13.655,-0.031
13.660,-0.032
13.665,-0.034
13.670,-0.037
13.675,-0.035
13.680,-0.030
13.685,-0.032
13.690,-0.036
13.695,-0.037
13.700,-0.039
13.705,-0.044
13.710,-0.040
13.715,-0.036
13.720,-0.040
13.725,-0.037
13.730,-0.036
13.735,-0.045
13.740,-0.046
13.745,-0.047
13.750,-0.060
13.755,-0.080
13.760,-0.094
13.765,-0.104
13.770,-0.115
13.775,-0.121
13.780,-0.115
13.785,-0.100
13.790,-0.101
13.795,-0.126
13.800,-0.134
13.805,-0.110
13.810,-0.086
13.815,-0.062
13.820,-0.046
13.825,-0.053
13.830,-0.050
13.835,-0.030
13.840,-0.022
13.845,-0.006
13.850,0.028
13.855,0.046
13.860,0.050
13.865,0.055
13.870,0.056
13.875,0.064
13.880,0.070
13.885,0.064
13.890,0.056
13.895,0.056
13.900,0.054
13.905,0.048
13.910,0.048
13.915,0.054
13.920,0.058
13.925,0.039
13.930,-0.053
13.935,-0.252
13.940,-0.521
13.945,-0.825
13.950,-1.166
13.955,-1.320
13.960,-0.968
13.965,-0.401
13.970,0.028
13.975,0.391
13.980,0.580
13.985,0.560
13.990,0.497
13.995,0.420
14.000,0.329
14.005,0.265
14.010,0.241
14.015,0.231
14.020,0.215
14.025,0.200
14.030,0.189
14.035,0.181
14.040,0.174
14.045,0.168
14.050,0.159
14.055,0.147
14.060,0.141
14.065,0.136
14.070,0.125
14.075,0.115
14.080,0.110
14.085,0.098
14.090,0.088
14.095,0.085
14.100,0.078
14.105,0.064
14.110,0.058
14.115,0.055
14.120,0.047
14.125,0.036
14.130,0.027
14.135,0.017
14.140,0.004
14.145,-0.003
14.150,-0.012
14.155,-0.024
14.160,-0.035
14.165,-0.045
14.170,-0.059
14.175,-0.072
14.180,-0.082
14.185,-0.097
14.190,-0.108
14.195,-0.111
14.200,-0.121
14.205,-0.135
14.210,-0.147
14.215,-0.152
14.220,-0.160
14.225,-0.165
14.230,-0.160
14.235,-0.161
14.240,-0.167
14.245,-0.160
14.250,-0.148
14.255,-0.131
14.260,-0.102
14.265,-0.076
14.270,-0.055
14.275,-0.022
14.280,0.019
14.285,0.051
14.290,0.076
14.295,0.106
14.300,0.125
14.305,0.135
14.310,0.151
14.315,0.163
14.320,0.165
14.325,0.164
14.330,0.164
14.335,0.161
14.340,0.155
14.345,0.148
14.350,0.143
14.355,0.138
14.360,0.136
14.365,0.130
14.370,0.117
14.375,0.109
14.380,0.109
14.385,0.101
14.390,0.091
14.395,0.090
14.400,0.085
14.405,0.075
14.410,0.072
14.415,0.074
14.420,0.064
14.425,0.051
14.430,0.048
14.435,0.049
14.440,0.047
14.445,0.046
14.450,0.045
14.455,0.037
14.460,0.035
14.465,0.038
14.470,0.031
14.475,0.026
14.480,0.028
14.485,0.026
14.490,0.023
14.495,0.024
14.500,0.024
14.505,0.023
14.510,0.023
14.515,0.023
14.520,0.021
14.525,0.016
14.530,0.019
14.535,0.020
14.540,0.015
14.545,0.014
14.550,0.012
14.555,0.009
14.560,0.011
14.565,0.011
14.570,0.004
14.575,0.003
14.580,0.006
14.585,0.000
14.590,-0.009
14.595,-0.010
14.600,-0.011
14.605,-0.012
14.610,-0.010
14.615,-0.012
14.620,-0.019
14.625,-0.021
14.630,-0.017
14.635,-0.021
14.640,-0.026
14.645,-0.025
14.650,-0.028
14.655,-0.032
14.660,-0.030
14.665,-0.032
14.670,-0.036
14.675,-0.034
14.680,-0.030
14.685,-0.032
14.690,-0.037
14.695,-0.037
14.700,-0.038
14.705,-0.042
14.710,-0.041
14.715,-0.040
14.720,-0.046
14.725,-0.045
14.730,-0.037
14.735,-0.042
14.740,-0.047
14.745,-0.039
14.750,-0.037
14.755,-0.045
14.760,-0.044
14.765,-0.039
14.770,-0.042
14.775,-0.044
14.780,-0.041
14.785,-0.044
14.790,-0.046
14.795,-0.040
14.800,-0.041
14.805,-0.046
14.810,-0.044
14.815,-0.045
14.820,-0.059
14.825,-0.073
14.830,-0.079
14.835,-0.093
14.840,-0.108
14.845,-0.113
14.850,-0.120
14.855,-0.123
14.860,-0.105
14.865,-0.088
14.870,-0.105
14.875,-0.132
14.880,-0.114
14.885,-0.076
14.890,-0.057
14.895,-0.045
14.900,-0.045
14.905,-0.053
14.910,-0.037
14.915,-0.016
14.920,-0.014
14.925,0.004
14.930,0.038
14.935,0.049
14.940,0.050
14.945,0.056
14.950,0.058
14.955,0.061
14.960,0.064
14.965,0.060
14.970,0.051
14.975,0.050
14.980,0.049
14.985,0.043
14.990,0.045
14.995,0.057
15.000,0.054
15.005,-0.007
15.010,-0.154
15.015,-0.382
15.020,-0.664
15.025,-0.988
15.030,-1.252
15.035,-1.102
15.040,-0.575
15.045,-0.112
15.050,0.269
15.055,0.551
15.060,0.584
15.065,0.511
15.070,0.438
15.075,0.345
15.080,0.265
15.085,0.227
15.090,0.209
15.095,0.200
15.100,0.194
15.105,0.184
15.110,0.177
15.115,0.170
15.120,0.159
15.125,0.148
15.130,0.141
15.135,0.133
15.140,0.126
15.145,0.123
15.150,0.113
15.155,0.099
15.160,0.096
15.165,0.093
15.170,0.079
15.175,0.072
15.180,0.074
15.185,0.066
15.190,0.052
15.195,0.045
15.200,0.036
15.205,0.024
15.210,0.017
15.215,0.010
15.220,-0.003
15.225,-0.010
15.230,-0.015
15.235,-0.030
15.240,-0.044
15.245,-0.054
15.250,-0.068
15.255,-0.083
15.260,-0.093
15.265,-0.104
15.270,-0.120
15.275,-0.131
15.280,-0.135
15.285,-0.144
15.290,-0.156
15.295,-0.160
15.300,-0.168
15.305,-0.179
15.310,-0.180
15.315,-0.176
15.320,-0.172
15.325,-0.158
15.330,-0.136
15.335,-0.120
15.340,-0.099
15.345,-0.067
15.350,-0.039
15.355,-0.011
15.360,0.026
15.365,0.062
15.370,0.089
15.375,0.114
15.380,0.137
15.385,0.152
15.390,0.162
15.395,0.171
15.400,0.173
15.405,0.169
15.410,0.173
15.415,0.176
15.420,0.165
15.425,0.159
15.430,0.161
15.435,0.149
15.440,0.136
15.445,0.137
15.450,0.131
15.455,0.117
15.460,0.113
15.465,0.111
15.470,0.103
15.475,0.097
15.480,0.094
15.485,0.087
15.490,0.081
15.495,0.079
15.500,0.072
15.505,0.063
15.510,0.058
15.515,0.056
15.520,0.052
15.525,0.048
15.530,0.048
15.535,0.041
15.540,0.036
15.545,0.039
15.550,0.037
15.555,0.032
15.560,0.033
15.565,0.034
15.570,0.033
15.575,0.031
15.580,0.030
15.585,0.026
15.590,0.024
15.595,0.028
15.600,0.025
15.605,0.019
15.610,0.023
15.615,0.024
15.620,0.017
15.625,0.016
15.630,0.019
15.635,0.013
15.640,0.009
15.645,0.009
15.650,0.006
15.655,0.002
15.660,0.003
15.665,0.004
15.670,-0.003
15.675,-0.009
15.680,-0.008
15.685,-0.010
15.690,-0.008
15.695,-0.007
15.700,-0.017
15.705,-0.022
15.710,-0.018
15.715,-0.019
15.720,-0.021
15.725,-0.021
15.730,-0.024
15.735,-0.029
15.740,-0.029
15.745,-0.028
15.750,-0.032
15.755,-0.035
15.760,-0.033
15.765,-0.035
15.770,-0.040
15.775,-0.036
15.780,-0.033
15.785,-0.039
15.790,-0.042
15.795,-0.037
15.800,-0.037
15.805,-0.042
15.810,-0.042
15.815,-0.040
15.820,-0.042
15.825,-0.043
15.830,-0.041
15.835,-0.043
15.840,-0.043
15.845,-0.041
15.850,-0.042
15.855,-0.039
15.860,-0.036
15.865,-0.041
15.870,-0.047
15.875,-0.042
15.880,-0.037
15.885,-0.042
15.890,-0.044
15.895,-0.043
15.900,-0.047
15.905,-0.060
15.910,-0.071
15.915,-0.077
15.920,-0.093
15.925,-0.107
15.930,-0.110
15.935,-0.115
15.940,-0.115
15.945,-0.099
15.950,-0.095
15.955,-0.121
15.960,-0.132
15.965,-0.107
15.970,-0.078
15.975,-0.059
15.980,-0.045
15.985,-0.049
15.990,-0.052
15.995,-0.028
16.000,-0.012
16.005,-0.008
16.010,0.016
16.015,0.041
16.020,0.048
16.025,0.049
16.030,0.054
16.035,0.061
16.040,0.061
16.045,0.059
16.050,0.059
16.055,0.053
16.060,0.049
16.065,0.049
16.070,0.045
16.075,0.047
16.080,0.058
16.085,0.052
16.090,-0.011
16.095,-0.157
16.100,-0.378
16.105,-0.643
16.110,-0.946
16.115,-1.168
16.120,-0.964
16.125,-0.446
16.130,-0.039
16.135,0.292
16.140,0.525
16.145,0.541
16.150,0.474
16.155,0.400
16.160,0.307
16.165,0.233
16.170,0.201
16.175,0.188
16.180,0.179
16.185,0.170
16.190,0.160
16.195,0.152
16.200,0.143
16.205,0.133
16.210,0.131
16.215,0.127
16.220,0.114
16.225,0.108
16.230,0.107
16.235,0.096
16.240,0.084
16.245,0.081
16.250,0.074
16.255,0.065
16.260,0.063
16.265,0.059
16.270,0.046
16.275,0.037
16.280,0.034
16.285,0.029
16.290,0.020
16.295,0.013
16.300,0.002
16.305,-0.009
16.310,-0.013
16.315,-0.021
16.320,-0.037
16.325,-0.048
16.330,-0.052
16.335,-0.067
16.340,-0.083
16.345,-0.089
16.350,-0.102
16.355,-0.121
16.360,-0.128
16.365,-0.129
16.370,-0.141
16.375,-0.154
16.380,-0.158
16.385,-0.168
16.390,-0.173
16.395,-0.168
16.400,-0.168
16.405,-0.166
16.410,-0.151
16.415,-0.139
16.420,-0.128
16.425,-0.103
16.430,-0.067
16.435,-0.038
16.440,-0.009
16.445,0.028
16.450,0.059
16.455,0.078
16.460,0.104
16.465,0.128
16.470,0.141
16.475,0.156
16.480,0.165
16.485,0.163
16.490,0.162
16.495,0.164
16.500,0.159
16.505,0.153
16.510,0.156
16.515,0.152
16.520,0.140
16.525,0.136
16.530,0.132
16.535,0.120
16.540,0.112
16.545,0.111
16.550,0.107
16.555,0.099
16.560,0.092
16.565,0.091
16.570,0.085
16.575,0.077
16.580,0.076
16.585,0.073
16.590,0.062
16.595,0.059
16.600,0.054
16.605,0.044
16.610,0.043
16.615,0.045
16.620,0.042
16.625,0.042
16.630,0.041
16.635,0.033
16.640,0.029
16.645,0.033
16.650,0.035
16.655,0.035
16.660,0.033
16.665,0.032
16.670,0.028
16.675,0.027
16.680,0.030
16.685,0.027
16.690,0.023
16.695,0.025
16.700,0.022
16.705,0.018
16.710,0.019
16.715,0.019
16.720,0.014
16.725,0.012
16.730,0.013
16.735,0.008
16.740,0.001
16.745,0.000
16.750,0.000
16.755,-0.004
16.760,-0.004
16.765,-0.005
16.770,-0.013
16.775,-0.016
16.780,-0.012
16.785,-0.015
16.790,-0.017
16.795,-0.016
16.800,-0.017
16.805,-0.023
16.810,-0.026
16.815,-0.025
16.820,-0.029
16.825,-0.028
16.830,-0.028
16.835,-0.036
16.840,-0.033
16.845,-0.026
16.850,-0.031
16.855,-0.038
16.860,-0.035
16.865,-0.036
16.870,-0.039
16.875,-0.034
16.880,-0.035
16.885,-0.040
16.890,-0.038
16.895,-0.037
16.900,-0.037
16.905,-0.038
16.910,-0.036
16.915,-0.036
16.920,-0.045
16.925,-0.046
16.930,-0.041
16.935,-0.042
16.940,-0.043
16.945,-0.040
16.950,-0.044
16.955,-0.049
16.960,-0.042
16.965,-0.035
16.970,-0.043
16.975,-0.050
16.980,-0.055
16.985,-0.067
16.990,-0.073
16.995,-0.082
17.000,-0.098
17.005,-0.107
17.010,-0.109
17.015,-0.113
17.020,-0.111
17.025,-0.104
17.030,-0.120
17.035,-0.144
17.040,-0.127
17.045,-0.090
17.050,-0.070
17.055,-0.058
17.060,-0.055
17.065,-0.056
17.070,-0.035
17.075,-0.007
17.080,0.006
17.085,0.015
17.090,0.029
17.095,0.047
17.100,0.050
17.105,0.050
17.110,0.065
17.115,0.066
17.120,0.056
17.125,0.056
17.130,0.057
17.135,0.052
17.140,0.051
17.145,0.052
17.150,0.047
17.155,0.051
17.160,0.057
17.165,0.014
17.170,-0.120
17.175,-0.325
17.180,-0.572
17.185,-0.865
17.190,-1.117
17.195,-0.975
17.200,-0.451
17.205,-0.041
17.210,0.218
17.215,0.417
17.220,0.465
17.225,0.444
17.230,0.400
17.235,0.316
17.240,0.239
17.245,0.203
17.250,0.188
17.255,0.176
17.260,0.162
17.265,0.149
17.270,0.141
17.275,0.142
17.280,0.138
17.285,0.122
17.290,0.118
17.295,0.124
17.300,0.111
17.305,0.096
17.310,0.100
17.315,0.097
17.320,0.079
17.325,0.072
17.330,0.073
17.335,0.062
17.340,0.051
17.345,0.050
17.350,0.045
17.355,0.032
17.360,0.032
17.365,0.031
17.370,0.019
17.375,0.017
17.380,0.008
17.385,-0.012
17.390,-0.011
17.395,-0.011
17.400,-0.034
17.405,-0.052
17.410,-0.059
17.415,-0.067
17.420,-0.078
17.425,-0.084
17.430,-0.086
17.435,-0.103
17.440,-0.116
17.445,-0.115
17.450,-0.130
17.455,-0.151
17.460,-0.151
17.465,-0.147
17.470,-0.159
17.475,-0.157
17.480,-0.142
17.485,-0.142
17.490,-0.142
17.495,-0.126
17.500,-0.105
17.505,-0.085
17.510,-0.060
17.515,-0.032
17.520,-0.005
17.525,0.027
17.530,0.061
17.535,0.084
17.540,0.098
17.545,0.107
17.550,0.113
17.555,0.123
17.560,0.139
17.565,0.155
17.570,0.153
17.575,0.144
17.580,0.144
17.585,0.142
17.590,0.138
17.595,0.131
17.600,0.116
17.605,0.106
17.610,0.105
17.615,0.104
17.620,0.089
17.625,0.079
17.630,0.080
17.635,0.076
17.640,0.077
17.645,0.083
17.650,0.071
17.655,0.064
17.660,0.074
17.665,0.068
17.670,0.051
17.675,0.042
17.680,0.042
17.685,0.041
17.690,0.038
17.695,0.038
17.700,0.030
17.705,0.021
17.710,0.029
17.715,0.041
17.720,0.041
17.725,0.041
17.730,0.043
17.735,0.044
17.740,0.038
17.745,0.032
17.750,0.031
17.755,0.033
17.760,0.035
17.765,0.027
17.770,0.020
17.775,0.030
17.780,0.030
17.785,0.020
17.790,0.028
17.795,0.027
17.800,0.014
17.805,0.019
17.810,0.021
17.815,0.007
17.820,0.006
17.825,0.013
17.830,0.008
17.835,-0.006
17.840,-0.005
17.845,0.006
17.850,-0.002
17.855,-0.011
17.860,0.000
17.865,0.000
17.870,-0.015
17.875,-0.014
17.880,-0.012
17.885,-0.016
17.890,-0.013
17.895,-0.014
17.900,-0.024
17.905,-0.033
17.910,-0.032
17.915,-0.031
17.920,-0.030
17.925,-0.023
17.930,-0.017
17.935,-0.027
17.940,-0.031
17.945,-0.025
17.950,-0.034
17.955,-0.040
17.960,-0.033
17.965,-0.031
17.970,-0.034
17.975,-0.035
17.980,-0.033
17.985,-0.038
17.990,-0.040
17.995,-0.035
18.000,-0.046
18.005,-0.050
18.010,-0.026
18.015,-0.020
18.020,-0.043
18.025,-0.050
18.030,-0.050
18.035,-0.065
18.040,-0.074
18.045,-0.082
18.050,-0.099
18.055,-0.113
18.060,-0.117
18.065,-0.115
18.070,-0.105
18.075,-0.100
18.080,-0.129
18.085,-0.148
18.090,-0.121
18.095,-0.093
18.100,-0.084
18.105,-0.066
18.110,-0.053
18.115,-0.050
18.120,-0.025
18.125,0.010
18.130,0.028
18.135,0.027
18.140,0.034
18.145,0.049
18.150,0.048
18.155,0.046
18.160,0.059
18.165,0.059
18.170,0.055
18.175,0.061
18.180,0.056
18.185,0.047
18.190,0.049
18.195,0.054
18.200,0.048
18.205,0.051
18.210,0.067
18.215,0.012
18.220,-0.156
18.225,-0.395
18.230,-0.681
18.235,-1.010
18.240,-1.253
18.245,-1.046
18.250,-0.481
18.255,-0.045
18.260,0.254
18.265,0.449
18.270,0.489
18.275,0.474
18.280,0.424
18.285,0.336
18.290,0.259
18.295,0.223
18.300,0.212
18.305,0.204
18.310,0.192
18.315,0.177
18.320,0.167
18.325,0.159
18.330,0.158
18.335,0.157
18.340,0.148
18.345,0.138
18.350,0.125
18.355,0.120
18.360,0.120
18.365,0.109
18.370,0.099
18.375,0.090
18.380,0.080
18.385,0.075
18.390,0.074
18.395,0.073
18.400,0.057
18.405,0.036
18.410,0.034
18.415,0.037
18.420,0.030
18.425,0.022
18.430,0.009
18.435,-0.004
18.440,-0.014
18.445,-0.025
18.450,-0.029
18.455,-0.039
18.460,-0.047
18.465,-0.053
18.470,-0.073
18.475,-0.084
18.480,-0.090
18.485,-0.095
18.490,-0.101
18.495,-0.118
18.500,-0.138
18.505,-0.148
18.510,-0.148
18.515,-0.153
18.520,-0.155
18.525,-0.149
18.530,-0.145
18.535,-0.137
18.540,-0.124
18.545,-0.114
18.550,-0.108
18.555,-0.093
18.560,-0.060
18.565,-0.021
18.570,0.007
18.575,0.029
18.580,0.052
18.585,0.072
18.590,0.097
18.595,0.127
18.600,0.132
18.605,0.120
18.610,0.131
18.615,0.148
18.620,0.147
18.625,0.140
18.630,0.127
18.635,0.112
18.640,0.108
18.645,0.113
18.650,0.114
18.655,0.100
18.660,0.085
18.665,0.085
18.670,0.084
18.675,0.069
18.680,0.066
18.685,0.072
18.690,0.067
18.695,0.066
18.700,0.062
18.705,0.061
18.710,0.071
18.715,0.060
18.720,0.034
18.725,0.033
18.730,0.040
18.735,0.032
18.740,0.033
18.745,0.038
18.750,0.026
18.755,0.020
18.760,0.025
18.765,0.030
18.770,0.034
18.775,0.039
18.780,0.040
18.785,0.035
18.790,0.027
18.795,0.027
18.800,0.035
18.805,0.024
18.810,0.014
18.815,0.027
18.820,0.031
18.825,0.026
18.830,0.029
18.835,0.021
18.840,0.015
18.845,0.025
18.850,0.019
18.855,0.004
18.860,0.010
18.865,0.009
18.870,0.001
18.875,0.009
18.880,0.010
18.885,0.002
18.890,-0.006
18.895,-0.005
18.900,-0.008
18.905,-0.014
18.910,-0.016
18.915,-0.019
18.920,-0.018
18.925,-0.016
18.930,-0.011
18.935,-0.013
18.940,-0.010
18.945,-0.014
18.950,-0.028
18.955,-0.024
18.960,-0.018
18.965,-0.038
18.970,-0.052
18.975,-0.033
18.980,-0.019
18.985,-0.031
18.990,-0.031
18.995,-0.018
19.000,-0.028
19.005,-0.034
19.010,-0.027
19.015,-0.030
19.020,-0.042
19.025,-0.046
19.030,-0.037
19.035,-0.037
19.040,-0.050
19.045,-0.046
19.050,-0.030
19.055,-0.026
19.060,-0.030
19.065,-0.035
19.070,-0.035
19.075,-0.032
19.080,-0.040
19.085,-0.067
19.090,-0.084
19.095,-0.082
19.100,-0.088
19.105,-0.100
19.110,-0.106
19.115,-0.115
19.120,-0.125
19.125,-0.113
19.130,-0.097
19.135,-0.124
19.140,-0.146
19.145,-0.119
19.150,-0.097
19.155,-0.074
19.160,-0.045
19.165,-0.052
19.170,-0.057
19.175,-0.026
19.180,-0.002
19.185,0.008
19.190,0.019
19.195,0.030
19.200,0.044
19.205,0.049
19.210,0.053
19.215,0.065
19.220,0.069
19.225,0.067
19.230,0.063
19.235,0.051
19.240,0.044
19.245,0.047
19.250,0.045
19.255,0.047
19.260,0.067
19.265,0.055
19.270,-0.040
19.275,-0.226
19.280,-0.486
19.285,-0.794
19.290,-1.128
19.295,-1.311
19.300,-1.004
19.305,-0.398
19.310,0.040
19.315,0.342
19.320,0.521
19.325,0.537
19.330,0.498
19.335,0.424
19.340,0.337
19.345,0.271
19.350,0.232
19.355,0.218
19.360,0.221
19.365,0.214
19.370,0.190
19.375,0.172
19.380,0.168
19.385,0.159
19.390,0.152
19.395,0.160
19.400,0.148
19.405,0.134
19.410,0.137
19.415,0.119
19.420,0.091
19.425,0.092
19.430,0.100
19.435,0.091
19.440,0.076
19.445,0.070
19.450,0.058
19.455,0.047
19.460,0.049
19.465,0.046
19.470,0.038
19.475,0.034
19.480,0.013
19.485,-0.004
19.490,-0.004
19.495,-0.014
19.500,-0.028
19.505,-0.036
19.510,-0.050
19.515,-0.072
19.520,-0.085
19.525,-0.082
19.530,-0.095
19.535,-0.111
19.540,-0.105
19.545,-0.108
19.550,-0.138
19.555,-0.155
19.560,-0.148
19.565,-0.148
19.570,-0.156
19.575,-0.157
19.580,-0.155
19.585,-0.163
19.590,-0.156
19.595,-0.131
19.600,-0.110
19.605,-0.082
19.610,-0.052
19.615,-0.031
19.620,0.001
19.625,0.047
19.630,0.079
19.635,0.091
19.640,0.105
19.645,0.123
19.650,0.132
19.655,0.142
19.660,0.158
19.665,0.158
19.670,0.149
19.675,0.154
19.680,0.154
19.685,0.133
19.690,0.131
19.695,0.141
19.700,0.128
19.705,0.117
19.710,0.120
19.715,0.111
19.720,0.094
19.725,0.089
19.730,0.087
19.735,0.079
19.740,0.082
19.745,0.082
19.750,0.064
19.755,0.053
19.760,0.059
19.765,0.052
19.770,0.035
19.775,0.036
19.780,0.044
19.785,0.039
19.790,0.031
19.795,0.033
19.800,0.033
19.805,0.026
19.810,0.022
19.815,0.024
19.820,0.027
19.825,0.028
19.830,0.024
19.835,0.018
19.840,0.023
19.845,0.025
19.850,0.014
19.855,0.010
19.860,0.020
19.865,0.026
19.870,0.017
19.875,0.009
19.880,0.012
19.885,0.014
19.890,0.016
19.895,0.017
19.900,0.011
19.905,0.011
19.910,0.020
19.915,0.018
19.920,0.003
19.925,0.000
19.930,0.011
19.935,0.002
19.940,-0.010
19.945,-0.008
19.950,-0.013
19.955,-0.020
19.960,-0.012
19.965,-0.005
19.970,-0.013
19.975,-0.020
19.980,-0.019
19.985,-0.020
19.990,-0.020
19.995,-0.021
20.000,-0.026
20.005,-0.026
20.010,-0.022
20.015,-0.020
20.020,-0.025
20.025,-0.028
20.030,-0.028
20.035,-0.030
20.040,-0.028
20.045,-0.026
20.050,-0.032
20.055,-0.035
20.060,-0.032
20.065,-0.037
20.070,-0.043
20.075,-0.036
20.080,-0.032
20.085,-0.037
20.090,-0.039
20.095,-0.037
20.100,-0.038
20.105,-0.037
20.110,-0.031
20.115,-0.033
20.120,-0.039
20.125,-0.035
20.130,-0.036
20.135,-0.048
20.140,-0.058
20.145,-0.065
20.150,-0.077
20.155,-0.088
20.160,-0.096
20.165,-0.109
20.170,-0.122
20.175,-0.121
20.180,-0.109
20.185,-0.098
20.190,-0.109
20.195,-0.135
20.200,-0.133
20.205,-0.100
20.210,-0.074
20.215,-0.056
20.220,-0.047
20.225,-0.050
20.230,-0.041
20.235,-0.026
20.240,-0.022
20.245,-0.003
20.250,0.028
20.255,0.046
20.260,0.059
20.265,0.058
20.270,0.050
20.275,0.062
20.280,0.069
20.285,0.061
20.290,0.056
20.295,0.058
20.300,0.054
20.305,0.048
20.310,0.050
20.315,0.054
20.320,0.055
20.325,0.029
20.330,-0.082
20.335,-0.300
20.340,-0.576
20.345,-0.890
20.350,-1.231
20.355,-1.307
20.360,-0.876
20.365,-0.324
20.370,0.090
20.375,0.452
20.380,0.603
20.385,0.550
20.390,0.486
20.395,0.411
20.400,0.318
20.405,0.258
20.410,0.240
20.415,0.228
20.420,0.214
20.425,0.207
20.430,0.196
20.435,0.179
20.440,0.172
20.445,0.166
20.450,0.151
20.455,0.142
20.460,0.140
20.465,0.129
20.470,0.115
20.475,0.113
20.480,0.109
20.485,0.097
20.490,0.090
20.495,0.083
20.500,0.072
20.505,0.064
20.510,0.061
20.515,0.053
20.520,0.041
20.525,0.034
20.530,0.025
20.535,0.009
20.540,0.001
20.545,-0.001
20.550,-0.015
20.555,-0.029
20.560,-0.035
20.565,-0.051
20.570,-0.070
20.575,-0.080
20.580,-0.089
20.585,-0.104
20.590,-0.117
20.595,-0.126
20.600,-0.137
20.605,-0.145
20.610,-0.147
20.615,-0.159
20.620,-0.174
20.625,-0.175
20.630,-0.177
20.635,-0.178
20.640,-0.167
20.645,-0.154
20.650,-0.146
20.655,-0.132
20.660,-0.104
20.665,-0.077
20.670,-0.051
20.675,-0.015
20.680,0.022
20.685,0.050
20.690,0.082
20.695,0.111
20.700,0.130
20.705,0.146
20.710,0.160
20.715,0.168
20.720,0.168
20.725,0.172
20.730,0.174
20.735,0.165
20.740,0.159
20.745,0.157
20.750,0.149
20.755,0.143
20.760,0.140
20.765,0.130
20.770,0.119
20.775,0.118
20.780,0.115
20.785,0.106
20.790,0.102
20.795,0.100
20.800,0.087
20.805,0.076
20.810,0.080
20.815,0.075
20.820,0.063
20.825,0.064
20.830,0.060
20.835,0.047
20.840,0.042
20.845,0.040
20.850,0.037
20.855,0.036
20.860,0.040
20.865,0.039
20.870,0.030
20.875,0.029
20.880,0.030
20.885,0.023
20.890,0.022
20.895,0.030
20.900,0.026
20.905,0.024
20.910,0.032
20.915,0.028
20.920,0.022
20.925,0.027
20.930,0.025
20.935,0.016
20.940,0.016
20.945,0.021
20.950,0.016
20.955,0.008
20.960,0.010
20.965,0.010
20.970,0.004
20.975,0.004
20.980,0.005
20.985,-0.002
20.990,-0.002
20.995,0.002
21.000,-0.006
21.005,-0.011
21.010,-0.006
21.015,-0.011
21.020,-0.021
21.025,-0.019
21.030,-0.018
21.035,-0.025
21.040,-0.024
21.045,-0.019
21.050,-0.022
21.055,-0.029
21.060,-0.028
21.065,-0.027
21.070,-0.033
21.075,-0.034
21.080,-0.031
21.085,-0.037
21.090,-0.037
21.095,-0.032
21.100,-0.039
21.105,-0.042
21.110,-0.029
21.115,-0.029
21.120,-0.040
21.125,-0.039
21.130,-0.038
21.135,-0.047
21.140,-0.047
21.145,-0.038
21.150,-0.040
21.155,-0.046
21.160,-0.039
21.165,-0.036
21.170,-0.044
21.175,-0.044
21.180,-0.042
21.185,-0.047
21.190,-0.043
21.195,-0.035
21.200,-0.040
21.205,-0.042
21.210,-0.035
21.215,-0.039
21.220,-0.047
21.225,-0.043
21.230,-0.047
21.235,-0.062
21.240,-0.067
21.245,-0.071
21.250,-0.088
21.255,-0.107
21.260,-0.110
21.265,-0.112
21.270,-0.118
21.275,-0.105
21.280,-0.092
21.285,-0.110
21.290,-0.135
21.295,-0.121
21.300,-0.084
21.305,-0.064
21.310,-0.051
21.315,-0.045
21.320,-0.051
21.325,-0.036
21.330,-0.017
21.335,-0.023
21.340,-0.006
21.345,0.036
21.350,0.050
21.355,0.050
21.360,0.056
21.365,0.059
21.370,0.060
21.375,0.063
21.380,0.061
21.385,0.051
21.390,0.050
21.395,0.057
21.400,0.050
21.405,0.040
21.410,0.047
21.415,0.053
21.420,0.016
21.425,-0.097
21.430,-0.302
21.435,-0.574
21.440,-0.881
21.445,-1.189
21.450,-1.203
21.455,-0.753
21.460,-0.241
21.465,0.139
21.470,0.463
21.475,0.589
21.480,0.536
21.485,0.462
21.490,0.381
21.495,0.296
21.500,0.242
21.505,0.217
21.510,0.210
21.515,0.202
21.520,0.188
21.525,0.182
21.530,0.179
21.535,0.162
21.540,0.150
21.545,0.152
21.550,0.146
21.555,0.130
21.560,0.124
21.565,0.116
21.570,0.107
21.575,0.105
21.580,0.099
21.585,0.085
21.590,0.077
21.595,0.073
21.600,0.062
21.605,0.052
21.610,0.048
21.615,0.040
21.620,0.026
21.625,0.022
21.630,0.017
21.635,0.002
21.640,-0.008
21.645,-0.012
21.650,-0.026
21.655,-0.044
21.660,-0.051
21.665,-0.059
21.670,-0.076
21.675,-0.091
21.680,-0.103
21.685,-0.116
21.690,-0.124
21.695,-0.127
21.700,-0.143
21.705,-0.158
21.710,-0.158
21.715,-0.165
21.720,-0.175
21.725,-0.174
21.730,-0.169
21.735,-0.170
21.740,-0.163
21.745,-0.146
21.750,-0.132
21.755,-0.111
21.760,-0.078
21.765,-0.050
21.770,-0.024
21.775,0.016
21.780,0.053
21.785,0.076
21.790,0.103
21.795,0.130
21.800,0.141
21.805,0.151
21.810,0.165
21.815,0.171
21.820,0.174
21.825,0.179
21.830,0.175
21.835,0.162
21.840,0.156
21.845,0.155
21.850,0.146
21.855,0.141
21.860,0.141
21.865,0.132
21.870,0.121
21.875,0.120
21.880,0.113
21.885,0.099
21.890,0.095
21.895,0.095
21.900,0.084
21.905,0.077
21.910,0.082
21.915,0.074
21.920,0.059
21.925,0.058
21.930,0.056
21.935,0.044
21.940,0.042
21.945,0.046
21.950,0.042
21.955,0.036
21.960,0.039
21.965,0.036
21.970,0.028
21.975,0.029
21.980,0.030
21.985,0.028
21.990,0.031
21.995,0.033
22.000,0.028
22.005,0.027
22.010,0.031
22.015,0.024
22.020,0.016
22.025,0.021
22.030,0.025
22.035,0.019
22.040,0.017
22.045,0.021
22.050,0.017
22.055,0.009
22.060,0.011
22.065,0.010
22.070,0.002
22.075,0.002
22.080,0.002
22.085,-0.005
22.090,-0.006
22.095,-0.003
22.100,-0.006
22.105,-0.014
22.110,-0.017
22.115,-0.019
22.120,-0.021
22.125,-0.018
22.130,-0.018
22.135,-0.022
22.140,-0.021
22.145,-0.020
22.150,-0.028
22.155,-0.032
22.160,-0.029
22.165,-0.033
22.170,-0.038
22.175,-0.032
22.180,-0.031
22.185,-0.038
22.190,-0.037
22.195,-0.033
22.200,-0.038
22.205,-0.045
22.210,-0.041
22.215,-0.039
22.220,-0.044
22.225,-0.042
22.230,-0.041
22.235,-0.045
22.240,-0.041
22.245,-0.032
22.250,-0.038
22.255,-0.045
22.260,-0.040
22.265,-0.040
22.270,-0.046
22.275,-0.041
22.280,-0.036
22.285,-0.040
22.290,-0.042
22.295,-0.038
22.300,-0.041
22.305,-0.045
22.310,-0.039
22.315,-0.038
22.320,-0.044
22.325,-0.047
22.330,-0.053
22.335,-0.067
22.340,-0.081
22.345,-0.092
22.350,-0.104
22.355,-0.112
22.360,-0.111
22.365,-0.109
22.370,-0.102
22.375,-0.093
22.380,-0.112
22.385,-0.129
22.390,-0.106
22.395,-0.074
22.400,-0.059
22.405,-0.049
22.410,-0.042
22.415,-0.046
22.420,-0.035
22.425,-0.016
22.430,-0.006
22.435,0.015
22.440,0.043
22.445,0.056
22.450,0.053
22.455,0.048
22.460,0.062
22.465,0.072
22.470,0.060
22.475,0.056
22.480,0.059
22.485,0.055
22.490,0.050
22.495,0.050
22.500,0.047
22.505,0.049
22.510,0.050
22.515,-0.009
22.520,-0.161
22.525,-0.375
22.530,-0.630
22.535,-0.941
22.540,-1.167
22.545,-0.951
22.550,-0.443
22.555,-0.063
22.560,0.266
22.565,0.510
22.570,0.529
22.575,0.469
22.580,0.403
22.585,0.310
22.590,0.239
22.595,0.211
22.600,0.196
22.605,0.183
22.610,0.179
22.615,0.172
22.620,0.159
22.625,0.153
22.630,0.148
22.635,0.136
22.640,0.129
22.645,0.130
22.650,0.119
22.655,0.102
22.660,0.100
22.665,0.094
22.670,0.082
22.675,0.080
22.680,0.076
22.685,0.066
22.690,0.060
22.695,0.056
22.700,0.043
22.705,0.031
22.710,0.029
22.715,0.022
22.720,0.011
22.725,0.006
22.730,-0.001
22.735,-0.012
22.740,-0.022
22.745,-0.030
22.750,-0.044
22.755,-0.060
22.760,-0.067
22.765,-0.076
22.770,-0.091
22.775,-0.098
22.780,-0.106
22.785,-0.123
22.790,-0.136
22.795,-0.140
22.800,-0.149
22.805,-0.162
22.810,-0.165
22.815,-0.169
22.820,-0.172
22.825,-0.166
22.830,-0.161
22.835,-0.158
22.840,-0.145
22.845,-0.119
22.850,-0.095
22.855,-0.073
22.860,-0.041
22.865,-0.012
22.870,0.014
22.875,0.050
22.880,0.085
22.885,0.107
22.890,0.125
22.895,0.143
22.900,0.152
22.905,0.159
22.910,0.169
22.915,0.166
22.920,0.158
22.925,0.160
22.930,0.158
22.935,0.151
22.940,0.149
22.945,0.145
22.950,0.133
22.955,0.121
22.960,0.120
22.965,0.120
22.970,0.112
22.975,0.102
22.980,0.097
22.985,0.090
22.990,0.084
22.995,0.084
23.000,0.075
23.005,0.068
23.010,0.072
23.015,0.067
23.020,0.055
23.025,0.050
23.030,0.049
23.035,0.044
23.040,0.039
23.045,0.041
23.050,0.040
23.055,0.034
23.060,0.037
23.065,0.037
23.070,0.034
23.075,0.036
23.080,0.034
23.085,0.030
23.090,0.032
23.095,0.034
23.100,0.027
23.105,0.021
23.110,0.028
23.115,0.029
23.120,0.022
23.125,0.023
23.130,0.027
23.135,0.020
23.140,0.018
23.145,0.021
23.150,0.016
23.155,0.012
23.160,0.016
23.165,0.015
23.170,0.004
23.175,-0.001
23.180,-0.004
23.185,-0.009
23.190,-0.006
23.195,-0.002
23.200,-0.007
23.205,-0.015
23.210,-0.017
23.215,-0.017
23.220,-0.020
23.225,-0.023
23.230,-0.022
23.235,-0.021
23.240,-0.020
23.245,-0.018
23.250,-0.025
23.255,-0.033
23.260,-0.031
23.265,-0.033
23.270,-0.035
23.275,-0.032
23.280,-0.030
23.285,-0.036
23.290,-0.040
23.295,-0.032
23.300,-0.030
23.305,-0.037
23.310,-0.041
23.315,-0.041
23.320,-0.038
23.325,-0.033
23.330,-0.035
23.335,-0.039
23.340,-0.036
23.345,-0.038
23.350,-0.044
23.355,-0.038
23.360,-0.033
23.365,-0.040
23.370,-0.045
23.375,-0.041
23.380,-0.037
23.385,-0.036
23.390,-0.035
23.395,-0.037
23.400,-0.045
23.405,-0.053
23.410,-0.056
23.415,-0.062
23.420,-0.073
23.425,-0.084
23.430,-0.098
23.435,-0.112
23.440,-0.120
23.445,-0.120
23.450,-0.112
23.455,-0.102
23.460,-0.110
23.465,-0.134
23.470,-0.130
23.475,-0.101
23.480,-0.080
23.485,-0.065
23.490,-0.052
23.495,-0.054
23.500,-0.045
23.505,-0.014
23.510,0.005
23.515,0.015
23.520,0.032
23.525,0.047
23.530,0.050
23.535,0.048
23.540,0.054
23.545,0.060
23.550,0.061
23.555,0.065
23.560,0.064
23.565,0.054
23.570,0.043
23.575,0.044
23.580,0.046
23.585,0.051
23.590,0.060
23.595,0.033
23.600,-0.076
23.605,-0.269
23.610,-0.502
23.615,-0.763
23.620,-1.047
23.625,-1.046
23.630,-0.607
23.635,-0.167
23.640,0.117
23.645,0.363
23.650,0.463
23.655,0.442
23.660,0.403
23.665,0.334
23.670,0.255
23.675,0.213
23.680,0.196
23.685,0.182
23.690,0.166
23.695,0.160
23.700,0.158
23.705,0.146
23.710,0.133
23.715,0.132
23.720,0.134
23.725,0.125
23.730,0.115
23.735,0.103
23.740,0.098
23.745,0.097
23.750,0.085
23.755,0.076
23.760,0.078
23.765,0.068
23.770,0.058
23.775,0.060
23.780,0.054
23.785,0.042
23.790,0.035
23.795,0.026
23.800,0.013
23.805,0.010
23.810,0.011
23.815,0.004
23.820,-0.005
23.825,-0.018
23.830,-0.030
23.835,-0.037
23.840,-0.045
23.845,-0.058
23.850,-0.072
23.855,-0.081
23.860,-0.094
23.865,-0.108
23.870,-0.116
23.875,-0.118
23.880,-0.125
23.885,-0.135
23.890,-0.146
23.895,-0.155
23.900,-0.156
23.905,-0.158
23.910,-0.157
23.915,-0.148
23.920,-0.136
23.925,-0.126
23.930,-0.108
23.935,-0.090
23.940,-0.077
23.945,-0.052
23.950,-0.017
23.955,0.017
23.960,0.049
23.965,0.071
23.970,0.083
23.975,0.093
23.980,0.111
23.985,0.127
23.990,0.139
23.995,0.145
24.000,0.134
24.005,0.128
24.010,0.136
24.015,0.136
24.020,0.129
24.025,0.123
24.030,0.117
24.035,0.105
24.040,0.100
24.045,0.106
24.050,0.111
24.055,0.101
24.060,0.085
24.065,0.081
24.070,0.076
24.075,0.069
24.080,0.064
24.085,0.061
24.090,0.062
24.095,0.053
24.100,0.039
24.105,0.043
24.110,0.052
24.115,0.049
24.120,0.041
24.125,0.037
24.130,0.035
24.135,0.029
24.140,0.035
24.145,0.045
24.150,0.037
24.155,0.031
24.160,0.034
24.165,0.030
24.170,0.029
24.175,0.035
24.180,0.035
24.185,0.036
24.190,0.037
24.195,0.035
24.200,0.026
24.205,0.020
24.210,0.028
24.215,0.029
24.220,0.020
24.225,0.019
24.230,0.021
24.235,0.019
24.240,0.016
24.245,0.011
24.250,0.008
24.255,0.005
24.260,-0.003
24.265,-0.002
24.270,0.003
24.275,0.001
24.280,0.002
24.285,0.003
24.290,-0.001
24.295,-0.010
24.300,-0.017
24.305,-0.013
24.310,-0.008
24.315,-0.016
24.320,-0.021
24.325,-0.017
24.330,-0.021
24.335,-0.021
24.340,-0.013
24.345,-0.015
24.350,-0.027
24.355,-0.030
24.360,-0.027
24.365,-0.032
24.370,-0.029
24.375,-0.030
24.380,-0.037
24.385,-0.032
24.390,-0.023
24.395,-0.024
24.400,-0.034
24.405,-0.031
24.410,-0.028
24.415,-0.038
24.420,-0.037
24.425,-0.028
24.430,-0.031
24.435,-0.043
24.440,-0.042
24.445,-0.032
24.450,-0.032
24.455,-0.041
24.460,-0.051
24.465,-0.068
24.470,-0.082
24.475,-0.087
24.480,-0.097
24.485,-0.110
24.490,-0.111
24.495,-0.104
24.500,-0.100
24.505,-0.109
24.510,-0.137
24.515,-0.153
24.520,-0.124
24.525,-0.087
24.530,-0.069
24.535,-0.054
24.540,-0.059
24.545,-0.063
24.550,-0.026
24.555,0.008
24.560,0.016
24.565,0.024
24.570,0.044
24.575,0.061
24.580,0.055
24.585,0.049
24.590,0.058
24.595,0.057
24.600,0.056
24.605,0.058
24.610,0.055
24.615,0.048
24.620,0.042
24.625,0.050
24.630,0.057
24.635,0.063
24.640,0.065
24.645,0.001
24.650,-0.172
24.655,-0.411
24.660,-0.685
24.665,-1.003
24.670,-1.228
24.675,-1.005
24.680,-0.480
24.685,-0.086
24.690,0.225
24.695,0.435
24.700,0.474
24.705,0.459
24.710,0.413
24.715,0.326
24.720,0.259
24.725,0.236
24.730,0.221
24.735,0.209
24.740,0.202
24.745,0.191
24.750,0.174
24.755,0.164
24.760,0.164
24.765,0.159
24.770,0.150
24.775,0.144
24.780,0.133
24.785,0.128
24.790,0.126
24.795,0.110
24.800,0.097
24.805,0.094
24.810,0.089
24.815,0.086
24.820,0.077
24.825,0.064
24.830,0.058
24.835,0.055
24.840,0.049
24.845,0.035
24.850,0.015
24.855,0.009
24.860,0.017
24.865,0.009
24.870,-0.010
24.875,-0.017
24.880,-0.024
24.885,-0.037
24.890,-0.045
24.895,-0.058
24.900,-0.075
24.905,-0.070
24.910,-0.066
24.915,-0.088
24.920,-0.113
24.925,-0.127
24.930,-0.135
24.935,-0.134
24.940,-0.131
24.945,-0.136
24.950,-0.150
24.955,-0.160
24.960,-0.155
24.965,-0.147
24.970,-0.134
24.975,-0.114
24.980,-0.103
24.985,-0.090
24.990,-0.060
24.995,-0.020
25.000,0.014
25.005,0.034
25.010,0.055
25.015,0.074
25.020,0.093
25.025,0.110
25.030,0.109
25.035,0.112
25.040,0.127
25.045,0.137
25.050,0.132
25.055,0.125
25.060,0.121
25.065,0.106
25.070,0.097
25.075,0.107
25.080,0.105
25.085,0.091
25.090,0.086
25.095,0.079
25.100,0.075
25.105,0.081
25.110,0.078
25.115,0.068
25.120,0.063
25.125,0.057
25.130,0.054
25.135,0.056
25.140,0.053
25.145,0.040
25.150,0.030
25.155,0.035
25.160,0.040
25.165,0.040
25.170,0.037
25.175,0.035
25.180,0.032
25.185,0.023
25.190,0.023
25.195,0.027
25.200,0.030
25.205,0.029
25.210,0.027
25.215,0.033
25.220,0.045
25.225,0.048
25.230,0.032
25.235,0.011
25.240,0.015
25.245,0.034
25.250,0.031
25.255,0.028
25.260,0.034
25.265,0.024
25.270,0.015
25.275,0.018
25.280,0.011
25.285,0.002
25.290,0.008
25.295,0.010
25.300,0.002
25.305,0.005
25.310,0.009
25.315,0.004
25.320,-0.006
25.325,-0.007
25.330,-0.006
25.335,-0.015
25.340,-0.014
25.345,-0.007
25.350,-0.009
25.355,-0.012
25.360,-0.015
25.365,-0.013
25.370,-0.017
25.375,-0.026
25.380,-0.027
25.385,-0.024
25.390,-0.022
25.395,-0.026
25.400,-0.029
25.405,-0.029
25.410,-0.033
25.415,-0.037
25.420,-0.030
25.425,-0.021
25.430,-0.026
25.435,-0.034
25.440,-0.035
25.445,-0.031
25.450,-0.027
25.455,-0.028
25.460,-0.033
25.465,-0.043
25.470,-0.052
25.475,-0.049
25.480,-0.033
25.485,-0.026
25.490,-0.039
25.495,-0.052
25.500,-0.061
25.505,-0.070
25.510,-0.085
25.515,-0.111
25.520,-0.116
25.525,-0.119
25.530,-0.123
25.535,-0.099
25.540,-0.095
25.545,-0.131
25.550,-0.146
25.555,-0.123
25.560,-0.102
25.565,-0.087
25.570,-0.066
25.575,-0.052
25.580,-0.044
25.585,-0.025
25.590,-0.004
25.595,0.003
25.600,0.015
25.605,0.044
25.610,0.057
25.615,0.043
25.620,0.043
25.625,0.063
25.630,0.063
25.635,0.054
25.640,0.053
25.645,0.051
25.650,0.049
25.655,0.050
25.660,0.044
25.665,0.037
25.670,0.047
25.675,0.046
25.680,-0.037
25.685,-0.223
25.690,-0.476
25.695,-0.770
25.700,-1.116
25.705,-1.308
25.710,-0.997
25.715,-0.437
25.720,-0.021
25.725,0.311
25.730,0.495
25.735,0.512
25.740,0.490
25.745,0.421
25.750,0.324
25.755,0.264
25.760,0.242
25.765,0.220
25.770,0.207
25.775,0.205
25.780,0.197
25.785,0.182
25.790,0.174
25.795,0.168
25.800,0.156
25.805,0.154
25.810,0.148
25.815,0.128
25.820,0.120
25.825,0.121
25.830,0.113
25.835,0.101
25.840,0.092
25.845,0.084
25.850,0.081
25.855,0.078
25.860,0.066
25.865,0.051
25.870,0.045
25.875,0.043
25.880,0.036
25.885,0.029
25.890,0.021
25.895,0.003
25.900,-0.014
25.905,-0.020
25.910,-0.025
25.915,-0.038
25.920,-0.050
25.925,-0.057
25.930,-0.070
25.935,-0.090
25.940,-0.100
25.945,-0.102
25.950,-0.110
25.955,-0.117
25.960,-0.121
25.965,-0.130
25.970,-0.141
25.975,-0.147
25.980,-0.152
25.985,-0.159
25.990,-0.160
25.995,-0.153
26.000,-0.142
26.005,-0.126
26.010,-0.107
26.015,-0.091
26.020,-0.067
26.025,-0.035
26.030,-0.009
26.035,0.023
26.040,0.065
26.045,0.096
26.050,0.110
26.055,0.125
26.060,0.141
26.065,0.144
26.070,0.145
26.075,0.153
26.080,0.151
26.085,0.142
26.090,0.146
26.095,0.146
26.100,0.131
26.105,0.124
26.110,0.126
26.115,0.118
26.120,0.108
26.125,0.105
26.130,0.099
26.135,0.089
26.140,0.084
26.145,0.078
26.150,0.072
26.155,0.071
26.160,0.067
26.165,0.056
26.170,0.048
26.175,0.051
26.180,0.048
26.185,0.039
26.190,0.042
26.195,0.040
26.200,0.032
26.205,0.035
26.210,0.038
26.215,0.032
26.220,0.029
26.225,0.030
26.230,0.025
26.235,0.025
26.240,0.029
26.245,0.027
26.250,0.024
26.255,0.030
26.260,0.030
26.265,0.021
26.270,0.021
26.275,0.025
26.280,0.021
26.285,0.021
26.290,0.025
26.295,0.022
26.300,0.017
26.305,0.016
26.310,0.014
26.315,0.006
26.320,0.004
26.325,0.007
26.330,0.004
26.335,0.000
26.340,0.001
26.345,-0.002
26.350,-0.008
26.355,-0.004
26.360,0.003
26.365,-0.001
26.370,-0.007
26.375,-0.009
26.380,-0.016
26.385,-0.019
26.390,-0.016
26.395,-0.018
26.400,-0.025
26.405,-0.024
26.410,-0.025
26.415,-0.030
26.420,-0.026
26.425,-0.021
26.430,-0.027
26.435,-0.031
26.440,-0.028
26.445,-0.031
26.450,-0.033
26.455,-0.027
26.460,-0.026
26.465,-0.034
26.470,-0.039
26.475,-0.035
26.480,-0.032
26.485,-0.033
26.490,-0.035
26.495,-0.040
26.500,-0.041
26.505,-0.037
26.510,-0.036
26.515,-0.039
26.520,-0.037
26.525,-0.031
26.530,-0.038
26.535,-0.047
26.540,-0.047
26.545,-0.060
26.550,-0.079
26.555,-0.086
26.560,-0.093
26.565,-0.109
26.570,-0.117
26.575,-0.114
26.580,-0.113
26.585,-0.105
26.590,-0.100
26.595,-0.120
26.600,-0.130
26.605,-0.101
26.610,-0.070
26.615,-0.057
26.620,-0.047
26.625,-0.044
26.630,-0.044
26.635,-0.032
26.640,-0.023
26.645,-0.016
26.650,0.017
26.655,0.048
26.660,0.052
26.665,0.048
26.670,0.053
26.675,0.066
26.680,0.066
26.685,0.062
26.690,0.062
26.695,0.053
26.700,0.043
26.705,0.047
26.710,0.051
26.715,0.050
26.720,0.058
26.725,0.046
26.730,-0.043
26.735,-0.230
26.740,-0.480
26.745,-0.779
26.750,-1.125
26.755,-1.297
26.760,-0.986
26.765,-0.451
26.770,-0.029
26.775,0.354
26.780,0.567
26.785,0.547
26.790,0.493
26.795,0.421
26.800,0.320
26.805,0.261
26.810,0.240
26.815,0.220
26.820,0.212
26.825,0.208
26.830,0.191
26.835,0.178
26.840,0.174
26.845,0.164
26.850,0.151
26.855,0.146
26.860,0.142
26.865,0.132
26.870,0.125
26.875,0.118
26.880,0.106
26.885,0.099
26.890,0.095
26.895,0.084
26.900,0.071
26.905,0.069
26.910,0.068
26.915,0.058
26.920,0.047
26.925,0.037
26.930,0.026
26.935,0.014
26.940,0.005
26.945,-0.003
26.950,-0.013
26.955,-0.020
26.960,-0.028
26.965,-0.046
26.970,-0.063
26.975,-0.072
26.980,-0.086
26.985,-0.100
26.990,-0.104
26.995,-0.116
27.000,-0.135
27.005,-0.145
27.010,-0.155
27.015,-0.165
27.020,-0.168
27.025,-0.167
27.030,-0.172
27.035,-0.178
27.040,-0.173
27.045,-0.165
27.050,-0.153
27.055,-0.133
27.060,-0.110
27.065,-0.087
27.070,-0.057
27.075,-0.023
27.080,0.006
27.085,0.037
27.090,0.072
27.095,0.098
27.100,0.115
27.105,0.136
27.110,0.155
27.115,0.165
27.120,0.167
27.125,0.169
27.130,0.167
27.135,0.164
27.140,0.168
27.145,0.164
27.150,0.152
27.155,0.147
27.160,0.141
27.165,0.130
27.170,0.124
27.175,0.120
27.180,0.112
27.185,0.105
27.190,0.102
27.195,0.096
27.200,0.088
27.205,0.083
27.210,0.077
27.215,0.069
27.220,0.065
27.225,0.065
27.230,0.060
27.235,0.052
27.240,0.054
27.245,0.048
27.250,0.034
27.255,0.037
27.260,0.041
27.265,0.036
27.270,0.032
27.275,0.032
27.280,0.030
27.285,0.027
27.290,0.029
27.295,0.029
27.300,0.024
27.305,0.021
27.310,0.024
27.315,0.023
27.320,0.021
27.325,0.023
27.330,0.018
27.335,0.014
27.340,0.018
27.345,0.014
27.350,0.010
27.355,0.013
27.360,0.012
27.365,0.005
27.370,0.004
27.375,0.006
27.380,0.000
27.385,-0.006
27.390,-0.003
27.395,-0.005
27.400,-0.011
27.405,-0.009
27.410,-0.008
27.415,-0.014
27.420,-0.013
27.425,-0.014
27.430,-0.025
27.435,-0.028
27.440,-0.023
27.445,-0.024
27.450,-0.029
27.455,-0.025
27.460,-0.023
27.465,-0.029
27.470,-0.030
27.475,-0.030
27.480,-0.040
27.485,-0.042
27.490,-0.035
27.495,-0.036
27.500,-0.040
27.505,-0.036
27.510,-0.035
27.515,-0.039
27.520,-0.040
27.525,-0.040
27.530,-0.046
27.535,-0.045
27.540,-0.036
27.545,-0.037
27.550,-0.043
27.555,-0.040
27.560,-0.040
27.565,-0.045
27.570,-0.044
27.575,-0.041
27.580,-0.043
27.585,-0.042
27.590,-0.039
27.595,-0.043
27.600,-0.045
27.605,-0.040
27.610,-0.040
27.615,-0.046
27.620,-0.050
27.625,-0.057
27.630,-0.074
27.635,-0.087
27.640,-0.094
27.645,-0.109
27.650,-0.119
27.655,-0.118
27.660,-0.111
27.665,-0.100
27.670,-0.097
27.675,-0.119
27.680,-0.133
27.685,-0.107
27.690,-0.071
27.695,-0.054
27.700,-0.052
27.705,-0.052
27.710,-0.047
27.715,-0.032
27.720,-0.019
27.725,-0.007
27.730,0.022
27.735,0.045
27.740,0.053
27.745,0.053
27.750,0.049
27.755,0.058
27.760,0.064
27.765,0.057
27.770,0.054
27.775,0.057
27.780,0.053
27.785,0.049
27.790,0.048
27.795,0.049
27.800,0.054
27.805,0.047
27.810,-0.034
27.815,-0.215
27.820,-0.449
27.825,-0.717
27.830,-1.038
27.835,-1.193
27.840,-0.881
27.845,-0.385
27.850,-0.020
27.855,0.337
27.860,0.550
27.865,0.524
27.870,0.458
27.875,0.389
27.880,0.295
27.885,0.232
27.890,0.210
27.895,0.201
27.900,0.195
27.905,0.188
27.910,0.177
27.915,0.167
27.920,0.160
27.925,0.154
27.930,0.145
27.935,0.137
27.940,0.132
27.945,0.121
27.950,0.108
27.955,0.107
27.960,0.104
27.965,0.089
27.970,0.083
27.975,0.081
27.980,0.068
27.985,0.058
27.990,0.055
27.995,0.044
28.000,0.032
28.005,0.029
28.010,0.024
28.015,0.011
28.020,0.003
28.025,-0.005
28.030,-0.020
28.035,-0.031
28.040,-0.037
28.045,-0.048
28.050,-0.061
28.055,-0.070
28.060,-0.083
28.065,-0.102
28.070,-0.111
28.075,-0.118
28.080,-0.132
28.085,-0.140
28.090,-0.144
28.095,-0.154
28.100,-0.164
28.105,-0.167
28.110,-0.170
28.115,-0.175
28.120,-0.171
28.125,-0.161
28.130,-0.154
28.135,-0.141
28.140,-0.116
28.145,-0.093
28.150,-0.069
28.155,-0.036
28.160,-0.003
28.165,0.024
28.170,0.055
28.175,0.087
28.180,0.111
28.185,0.129
28.190,0.148
28.195,0.161
28.200,0.163
28.205,0.168
28.210,0.169
28.215,0.162
28.220,0.161
28.225,0.160
28.230,0.149
28.235,0.144
28.240,0.145
28.245,0.134
28.250,0.124
28.255,0.126
28.260,0.120
28.265,0.108
28.270,0.107
28.275,0.105
28.280,0.094
28.285,0.087
28.290,0.088
28.295,0.080
28.300,0.067
28.305,0.069
28.310,0.068
28.315,0.057
28.320,0.056
28.325,0.057
28.330,0.050
28.335,0.049
28.340,0.052
28.345,0.046
28.350,0.037
28.355,0.038
28.360,0.040
28.365,0.035
28.370,0.036
28.375,0.040
28.380,0.036
28.385,0.035
28.390,0.037
28.395,0.031
28.400,0.027
28.405,0.030
28.410,0.030
28.415,0.021
28.420,0.022
28.425,0.029
28.430,0.025
28.435,0.018
28.440,0.020
28.445,0.017
28.450,0.009
28.455,0.012
28.460,0.013
28.465,0.004
28.470,0.003
28.475,0.007
28.480,0.002
28.485,-0.003
28.490,-0.002
28.495,-0.007
28.500,-0.011
28.505,-0.011
28.510,-0.013
28.515,-0.016
28.520,-0.015
28.525,-0.014
28.530,-0.020
28.535,-0.023
28.540,-0.021
28.545,-0.023
28.550,-0.026
28.555,-0.024
28.560,-0.024
28.565,-0.032
28.570,-0.036
28.575,-0.033
28.580,-0.035
28.585,-0.036
28.590,-0.032
28.595,-0.037
28.600,-0.039
28.605,-0.036
28.610,-0.036
28.615,-0.040
28.620,-0.040
28.625,-0.037
28.630,-0.040
28.635,-0.039
28.640,-0.036
28.645,-0.041
28.650,-0.043
28.655,-0.039
28.660,-0.039
28.665,-0.042
28.670,-0.039
28.675,-0.036
28.680,-0.040
28.685,-0.039
28.690,-0.035
28.695,-0.040
28.700,-0.045
28.705,-0.045
28.710,-0.054
28.715,-0.067
28.720,-0.076
28.725,-0.087
28.730,-0.104
28.735,-0.114
28.740,-0.115
28.745,-0.118
28.750,-0.110
28.755,-0.093
28.760,-0.107
28.765,-0.134
28.770,-0.118
28.775,-0.082
28.780,-0.066
28.785,-0.054
28.790,-0.049
28.795,-0.056
28.800,-0.037
28.805,-0.010
28.810,-0.003
28.815,0.010
28.820,0.033
28.825,0.048
28.830,0.051
28.835,0.053
28.840,0.060
28.845,0.062
28.850,0.062
28.855,0.062
28.860,0.053
28.865,0.046
28.870,0.049
28.875,0.049
28.880,0.045
28.885,0.053
28.890,0.056
28.895,0.008
28.900,-0.122
28.905,-0.319
28.910,-0.560
28.915,-0.849
28.920,-1.102
28.925,-0.982
28.930,-0.515
28.935,-0.123
28.940,0.191
28.945,0.450
28.950,0.507
28.955,0.457
28.960,0.395
28.965,0.307
28.970,0.234
28.975,0.202
28.980,0.184
28.985,0.177
28.990,0.174
28.995,0.160
29.000,0.149
29.005,0.149
29.010,0.140
29.015,0.131
29.020,0.132
29.025,0.124
29.030,0.111
29.035,0.106
29.040,0.102
29.045,0.090
29.050,0.083
29.055,0.079
29.060,0.070
29.065,0.064
29.070,0.059
29.075,0.052
29.080,0.040
29.085,0.031
29.090,0.030
29.095,0.023
29.100,0.012
29.105,0.005
29.110,-0.004
29.115,-0.014
29.120,-0.021
29.125,-0.030
29.130,-0.045
29.135,-0.053
29.140,-0.058
29.145,-0.074
29.150,-0.091
29.155,-0.099
29.160,-0.108
29.165,-0.119
29.170,-0.123
29.175,-0.131
29.180,-0.144
29.185,-0.151
29.190,-0.155
29.195,-0.163
29.200,-0.167
29.205,-0.165
29.210,-0.159
29.215,-0.157
29.220,-0.144
29.225,-0.124
29.230,-0.110
29.235,-0.088
29.240,-0.054
29.245,-0.027
29.250,0.000
29.255,0.034
29.260,0.062
29.265,0.083
29.270,0.107
29.275,0.123
29.280,0.132
29.285,0.146
29.290,0.157
29.295,0.156
29.300,0.151
29.305,0.150
29.310,0.150
29.315,0.141
29.320,0.136
29.325,0.136
29.330,0.125
29.335,0.119
29.340,0.119
29.345,0.110
29.350,0.104
29.355,0.101
29.360,0.095
29.365,0.091
29.370,0.087
29.375,0.079
29.380,0.069
29.385,0.066
29.390,0.069
29.395,0.065
29.400,0.059
29.405,0.060
29.410,0.054
29.415,0.044
29.420,0.047
29.425,0.049
29.430,0.040
29.435,0.041
29.440,0.046
29.445,0.041
29.450,0.036
29.455,0.038
29.460,0.036
29.465,0.032
29.470,0.037
29.475,0.038
29.480,0.030
29.485,0.032
29.490,0.035
29.495,0.027
29.500,0.024
29.505,0.029
29.510,0.028
29.515,0.023
29.520,0.022
29.525,0.023
29.530,0.015
29.535,0.011
29.540,0.014
29.545,0.011
29.550,0.004
29.555,0.004
29.560,0.002
29.565,-0.004
29.570,-0.003
29.575,-0.005
29.580,-0.012
29.585,-0.010
29.590,-0.008
29.595,-0.014
29.600,-0.018
29.605,-0.017
29.610,-0.020
29.615,-0.024
29.620,-0.021
29.625,-0.022
29.630,-0.028
29.635,-0.028
29.640,-0.025
29.645,-0.028
29.650,-0.033
29.655,-0.031
29.660,-0.033
29.665,-0.039
29.670,-0.035
29.675,-0.033
29.680,-0.038
29.685,-0.039
29.690,-0.036
29.695,-0.037
29.700,-0.038
29.705,-0.035
29.710,-0.035
29.715,-0.039
29.720,-0.038
29.725,-0.039
29.730,-0.046
29.735,-0.044
29.740,-0.037
29.745,-0.040
29.750,-0.045
29.755,-0.043
29.760,-0.044
29.765,-0.048
29.770,-0.042
29.775,-0.037
29.780,-0.043
29.785,-0.039
29.790,-0.033
29.795,-0.041
29.800,-0.042
29.805,-0.038
29.810,-0.045
29.815,-0.052
29.820,-0.055
29.825,-0.072
29.830,-0.096
29.835,-0.105
29.840,-0.108
29.845,-0.121
29.850,-0.121
29.855,-0.098
29.860,-0.088
29.865,-0.116
29.870,-0.141
29.875,-0.123
29.880,-0.094
29.885,-0.074
29.890,-0.053
29.895,-0.049
29.900,-0.057
29.905,-0.032
29.910,0.001
29.915,0.011
29.920,0.022
29.925,0.041
29.930,0.054
29.935,0.059
29.940,0.057
29.945,0.058
29.950,0.070
29.955,0.076
29.960,0.062
29.965,0.054
29.970,0.063
29.975,0.063
29.980,0.052
29.985,0.046
29.990,0.057
29.995,0.064
30.000,0.028
30.005,-0.081
30.010,-0.271
30.015,-0.506
30.020,-0.767
30.025,-1.039
30.030,-1.022
30.035,-0.577
30.040,-0.136
30.045,0.157
30.050,0.402
30.055,0.482
30.060,0.442
30.065,0.388
30.070,0.314
30.075,0.238
30.080,0.198
30.085,0.189
30.090,0.179
30.095,0.162
30.100,0.155
30.105,0.154
30.110,0.149
30.115,0.141
30.120,0.132
30.125,0.125
30.130,0.114
30.135,0.103
30.140,0.101
30.145,0.099
30.150,0.094
30.155,0.092
30.160,0.088
30.165,0.077
30.170,0.071
30.175,0.071
30.180,0.065
30.185,0.054
30.190,0.046
30.195,0.037
30.200,0.030
30.205,0.026
30.210,0.015
30.215,-0.001
30.220,-0.010
30.225,-0.014
30.230,-0.020
30.235,-0.025
30.240,-0.030
30.245,-0.043
30.250,-0.059
30.255,-0.063
30.260,-0.076
30.265,-0.091
30.270,-0.091
30.275,-0.098
30.280,-0.119
30.285,-0.130
30.290,-0.132
30.295,-0.142
30.300,-0.152
30.305,-0.152
30.310,-0.155
30.315,-0.155
30.320,-0.145
30.325,-0.136
30.330,-0.132
30.335,-0.113
30.340,-0.092
30.345,-0.080
30.350,-0.048
30.355,-0.009
30.360,0.013
30.365,0.034
30.370,0.062
30.375,0.088
30.380,0.106
30.385,0.121
30.390,0.133
30.395,0.136
30.400,0.137
30.405,0.143
30.410,0.143
30.415,0.135
30.420,0.133
30.425,0.130
30.430,0.120
30.435,0.116
30.440,0.115
30.445,0.106
30.450,0.097
30.455,0.095
30.460,0.090
30.465,0.083
30.470,0.088
30.475,0.091
30.480,0.076
30.485,0.065
30.490,0.061
30.495,0.051
30.500,0.043
30.505,0.043
30.510,0.042
30.515,0.042
30.520,0.048
30.525,0.049
30.530,0.043
30.535,0.039
30.540,0.035
30.545,0.037
30.550,0.045
30.555,0.043
30.560,0.030
30.565,0.027
30.570,0.042
30.575,0.048
30.580,0.039
30.585,0.036
30.590,0.029
30.595,0.024
30.600,0.026
30.605,0.024
30.610,0.018
30.615,0.014
30.620,0.020
30.625,0.025
30.630,0.020
30.635,0.018
30.640,0.017
30.645,0.005
30.650,0.000
30.655,0.011
30.660,0.010
30.665,0.000
30.670,0.001
30.675,0.002
30.680,-0.005
30.685,-0.004
30.690,-0.002
30.695,-0.007
30.700,-0.009
30.705,-0.007
30.710,-0.011
30.715,-0.018
30.720,-0.016
30.725,-0.014
30.730,-0.022
30.735,-0.023
30.740,-0.016
30.745,-0.020
30.750,-0.028
30.755,-0.025
30.760,-0.024
30.765,-0.027
30.770,-0.026
30.775,-0.027
30.780,-0.037
30.785,-0.035
30.790,-0.029
30.795,-0.036
30.800,-0.042
30.805,-0.037
30.810,-0.034
30.815,-0.033
30.820,-0.027
30.825,-0.032
30.830,-0.041
30.835,-0.036
30.840,-0.033
30.845,-0.039
30.850,-0.037
30.855,-0.032
30.860,-0.041
30.865,-0.052
30.870,-0.045
30.875,-0.047
30.880,-0.059
30.885,-0.058
30.890,-0.059
30.895,-0.071
30.900,-0.090
30.905,-0.108
30.910,-0.117
30.915,-0.121
30.920,-0.113
30.925,-0.097
30.930,-0.094
30.935,-0.110
30.940,-0.122
30.945,-0.111
30.950,-0.084
30.955,-0.055
30.960,-0.039
30.965,-0.043
30.970,-0.042
30.975,-0.021
30.980,-0.002
30.985,0.016
30.990,0.033
30.995,0.042
31.000,0.055
31.005,0.066
31.010,0.063
31.015,0.065
31.020,0.078
31.025,0.077
31.030,0.063
31.035,0.060
31.040,0.062
31.045,0.053
31.050,0.047
31.055,0.054
31.060,0.064
31.065,0.062
31.070,0.011
31.075,-0.137
31.080,-0.360
31.085,-0.609
31.090,-0.911
31.095,-1.175
31.100,-1.022
31.105,-0.502
31.110,-0.090
31.115,0.215
31.120,0.444
31.125,0.483
31.130,0.443
31.135,0.396
31.140,0.320
31.145,0.242
31.150,0.201
31.155,0.198
31.160,0.200
31.165,0.187
31.170,0.177
31.175,0.174
31.180,0.160
31.185,0.150
31.190,0.150
31.195,0.144
31.200,0.138
31.205,0.135
31.210,0.121
31.215,0.105
31.220,0.102
31.225,0.099
31.230,0.090
31.235,0.081
31.240,0.076
31.245,0.071
31.250,0.062
31.255,0.058
31.260,0.048
31.265,0.034
31.270,0.034
31.275,0.030
31.280,0.015
31.285,0.005
31.290,-0.002
31.295,-0.016
31.300,-0.029
31.305,-0.030
31.310,-0.035
31.315,-0.053
31.320,-0.062
31.325,-0.072
31.330,-0.091
31.335,-0.103
31.340,-0.104
31.345,-0.112
31.350,-0.127
31.355,-0.134
31.360,-0.139
31.365,-0.143
31.370,-0.145
31.375,-0.150
31.380,-0.157
31.385,-0.155
31.390,-0.143
31.395,-0.135
31.400,-0.127
31.405,-0.103
31.410,-0.079
31.415,-0.062
31.420,-0.031
31.425,0.001
31.430,0.024
31.435,0.048
31.440,0.073
31.445,0.094
31.450,0.108
31.455,0.125
31.460,0.134
31.465,0.129
31.470,0.133
31.475,0.140
31.480,0.131
31.485,0.125
31.490,0.127
31.495,0.119
31.500,0.112
31.505,0.111
31.510,0.104
31.515,0.098
31.520,0.096
31.525,0.092
31.530,0.082
31.535,0.074
31.540,0.075
31.545,0.072
31.550,0.060
31.555,0.056
31.560,0.052
31.565,0.045
31.570,0.049
31.575,0.050
31.580,0.041
31.585,0.040
31.590,0.042
31.595,0.036
31.600,0.034
31.605,0.038
31.610,0.035
31.615,0.030
31.620,0.034
31.625,0.038
31.630,0.034
31.635,0.030
31.640,0.033
31.645,0.031
31.650,0.029
31.655,0.031
31.660,0.024
31.665,0.021
31.670,0.030
31.675,0.028
31.680,0.020
31.685,0.026
31.690,0.026
31.695,0.012
31.700,0.011
31.705,0.015
31.710,0.009
31.715,0.006
31.720,0.010
31.725,0.011
31.730,0.004
31.735,-0.001
31.740,-0.001
31.745,-0.007
31.750,-0.010
31.755,-0.005
31.760,-0.006
31.765,-0.014
31.770,-0.014
31.775,-0.013
31.780,-0.018
31.785,-0.020
31.790,-0.020
31.795,-0.022
31.800,-0.023
31.805,-0.021
31.810,-0.023
31.815,-0.029
31.820,-0.031
31.825,-0.029
31.830,-0.031
31.835,-0.027
31.840,-0.024
31.845,-0.028
31.850,-0.030
31.855,-0.031
31.860,-0.035
31.865,-0.034
31.870,-0.029
31.875,-0.029
31.880,-0.037
31.885,-0.038
31.890,-0.033
31.895,-0.036
31.900,-0.039
31.905,-0.035
31.910,-0.033
31.915,-0.036
31.920,-0.038
31.925,-0.045
31.930,-0.054
31.935,-0.066
31.940,-0.078
31.945,-0.088
31.950,-0.101
31.955,-0.112
31.960,-0.118
31.965,-0.120
31.970,-0.107
31.975,-0.099
31.980,-0.122
31.985,-0.143
31.990,-0.123
31.995,-0.093
32.000,-0.074
32.005,-0.053
32.010,-0.054
32.015,-0.062
32.020,-0.036
32.025,-0.007
32.030,-0.001
32.035,0.014
32.040,0.038
32.045,0.049
32.050,0.053
32.055,0.058
32.060,0.065
32.065,0.069
32.070,0.067
32.075,0.059
32.080,0.049
32.085,0.049
32.090,0.055
32.095,0.052
32.100,0.047
32.105,0.060
32.110,0.067
32.115,0.010
32.120,-0.121
32.125,-0.320
32.130,-0.572
32.135,-0.867
32.140,-1.133
32.145,-1.032
32.150,-0.554
32.155,-0.138
32.160,0.176
32.165,0.432
32.170,0.499
32.175,0.456
32.180,0.398
32.185,0.318
32.190,0.242
32.195,0.200
32.200,0.191
32.205,0.191
32.210,0.180
32.215,0.165
32.220,0.161
32.225,0.155
32.230,0.138
32.235,0.128
32.240,0.132
32.245,0.126
32.250,0.116
32.255,0.113
32.260,0.105
32.265,0.091
32.270,0.086
32.275,0.083
32.280,0.075
32.285,0.068
32.290,0.063
32.295,0.054
32.300,0.043
32.305,0.038
32.310,0.036
32.315,0.028
32.320,0.020
32.325,0.011
32.330,-0.003
32.335,-0.007
32.340,-0.009
32.345,-0.024
32.350,-0.037
32.355,-0.044
32.360,-0.059
32.365,-0.072
32.370,-0.077
32.375,-0.090
32.380,-0.105
32.385,-0.115
32.390,-0.122
32.395,-0.132
32.400,-0.140
32.405,-0.142
32.410,-0.151
32.415,-0.165
32.420,-0.164
32.425,-0.160
32.430,-0.160
32.435,-0.152
32.440,-0.136
32.445,-0.125
32.450,-0.109
32.455,-0.082
32.460,-0.054
32.465,-0.026
32.470,0.009
32.475,0.036
32.480,0.058
32.485,0.085
32.490,0.109
32.495,0.125
32.500,0.132
32.505,0.137
32.510,0.142
32.515,0.144
32.520,0.148
32.525,0.148
32.530,0.139
32.535,0.135
32.540,0.135
32.545,0.128
32.550,0.120
32.555,0.116
32.560,0.107
32.565,0.098
32.570,0.099
32.575,0.096
32.580,0.088
32.585,0.082
32.590,0.076
32.595,0.069
32.600,0.067
32.605,0.067
32.610,0.060
32.615,0.051
32.620,0.053
32.625,0.056
32.630,0.046
32.635,0.042
32.640,0.044
32.645,0.040
32.650,0.038
32.655,0.042
32.660,0.039
32.665,0.033
32.670,0.035
32.675,0.037
32.680,0.030
32.685,0.028
32.690,0.034
32.695,0.033
32.700,0.032
32.705,0.035
32.710,0.030
32.715,0.023
32.720,0.027
32.725,0.028
32.730,0.017
32.735,0.014
32.740,0.017
32.745,0.012
32.750,0.008
32.755,0.012
32.760,0.006
32.765,0.000
32.770,0.002
32.775,0.002
32.780,0.000
32.785,0.002
32.790,0.001
32.795,-0.008
32.800,-0.014
32.805,-0.012
32.810,-0.012
32.815,-0.016
32.820,-0.012
32.825,-0.012
32.830,-0.022
32.835,-0.024
32.840,-0.023
32.845,-0.025
32.850,-0.025
32.855,-0.024
32.860,-0.024
32.865,-0.026
32.870,-0.029
32.875,-0.031
32.880,-0.033
32.885,-0.034
32.890,-0.031
32.895,-0.031
32.900,-0.032
32.905,-0.032
32.910,-0.036
32.915,-0.040
32.920,-0.036
32.925,-0.032
32.930,-0.036
32.935,-0.034
32.940,-0.027
32.945,-0.035
32.950,-0.045
32.955,-0.038
32.960,-0.036
32.965,-0.040
32.970,-0.039
32.975,-0.041
32.980,-0.047
32.985,-0.053
32.990,-0.056
32.995,-0.066
33.000,-0.085
33.005,-0.093
33.010,-0.099
33.015,-0.113
33.020,-0.121
33.025,-0.118
33.030,-0.107
33.035,-0.107
33.040,-0.134
33.045,-0.147
33.050,-0.115
33.055,-0.079
33.060,-0.064
33.065,-0.057
33.070,-0.056
33.075,-0.044
33.080,-0.020
33.085,0.005
33.090,0.020
33.095,0.020
33.100,0.033
33.105,0.055
33.110,0.055
33.115,0.058
33.120,0.074
33.125,0.072
33.130,0.063
33.135,0.061
33.140,0.057
33.145,0.054
33.150,0.051
33.155,0.044
33.160,0.048
33.165,0.063
33.170,0.050
33.175,-0.048
33.180,-0.234
33.185,-0.457
33.190,-0.720
33.195,-1.035
33.200,-1.115
33.205,-0.718
33.210,-0.234
33.215,0.075
33.220,0.345
33.225,0.476
33.230,0.455
33.235,0.415
33.240,0.348
33.245,0.261
33.250,0.205
33.255,0.187
33.260,0.184
33.265,0.176
33.270,0.167
33.275,0.161
33.280,0.151
33.285,0.144
33.290,0.139
33.295,0.128
33.300,0.118
33.305,0.113
33.310,0.107
33.315,0.100
33.320,0.093
33.325,0.087
33.330,0.081
33.335,0.076
33.340,0.068
33.345,0.057
33.350,0.051
33.355,0.050
33.360,0.045
33.365,0.039
33.370,0.038
33.375,0.028
33.380,0.009
33.385,0.002
33.390,0.004
33.395,-0.007
33.400,-0.024
33.405,-0.029
33.410,-0.039
33.415,-0.055
33.420,-0.062
33.425,-0.064
33.430,-0.074
33.435,-0.089
33.440,-0.100
33.445,-0.109
33.450,-0.118
33.455,-0.127
33.460,-0.138
33.465,-0.145
33.470,-0.146
33.475,-0.152
33.480,-0.162
33.485,-0.160
33.490,-0.149
33.495,-0.141
33.500,-0.135
33.505,-0.121
33.510,-0.099
33.515,-0.077
33.520,-0.047
33.525,-0.012
33.530,0.015
33.535,0.042
33.540,0.070
33.545,0.087
33.550,0.099
33.555,0.112
33.560,0.131
33.565,0.145
33.570,0.147
33.575,0.144
33.580,0.140
33.585,0.136
33.590,0.130
33.595,0.121
33.600,0.116
33.605,0.119
33.610,0.122
33.615,0.113
33.620,0.105
33.625,0.096
33.630,0.082
33.635,0.085
33.640,0.091
33.645,0.081
33.650,0.071
33.655,0.070
33.660,0.062
33.665,0.052
33.670,0.055
33.675,0.059
33.680,0.049
33.685,0.038
33.690,0.037
33.695,0.027
33.700,0.026
33.705,0.040
33.710,0.039
33.715,0.035
33.720,0.042
33.725,0.037
33.730,0.025
33.735,0.029
33.740,0.037
33.745,0.033
33.750,0.032
33.755,0.039
33.760,0.037
33.765,0.039
33.770,0.038
33.775,0.029
33.780,0.029
33.785,0.027
33.790,0.024
33.795,0.023
33.800,0.018
33.805,0.020
33.810,0.025
33.815,0.019
33.820,0.015
33.825,0.016
33.830,0.018
33.835,0.021
33.840,0.017
33.845,0.011
33.850,0.008
33.855,0.002
33.860,-0.001
33.865,-0.001
33.870,-0.007
33.875,-0.010
33.880,-0.002
33.885,-0.004
33.890,-0.011
33.895,-0.013
33.900,-0.015
33.905,-0.014
33.910,-0.015
33.915,-0.019
33.920,-0.017
33.925,-0.014
33.930,-0.019
33.935,-0.015
33.940,-0.013
33.945,-0.021
33.950,-0.024
33.955,-0.028
33.960,-0.030
33.965,-0.025
33.970,-0.028
33.975,-0.031
33.980,-0.023
33.985,-0.017
33.990,-0.025
33.995,-0.030
34.000,-0.023
34.005,-0.029
34.010,-0.038
34.015,-0.038
34.020,-0.031
34.025,-0.028
34.030,-0.042
34.035,-0.045
34.040,-0.043
34.045,-0.059
34.050,-0.068
34.055,-0.076
34.060,-0.100
34.065,-0.108
34.070,-0.106
34.075,-0.109
34.080,-0.103
34.085,-0.102
34.090,-0.128
34.095,-0.149
34.100,-0.133
34.105,-0.100
34.110,-0.078
34.115,-0.064
34.120,-0.053
34.125,-0.044
34.130,-0.023
34.135,0.000
34.140,0.013
34.145,0.022
34.150,0.037
34.155,0.048
34.160,0.043
34.165,0.051
34.170,0.072
34.175,0.075
34.180,0.067
34.185,0.057
34.190,0.057
34.195,0.054
34.200,0.047
34.205,0.045
34.210,0.041
34.215,0.055
34.220,0.069
34.225,-0.004
34.230,-0.175
34.235,-0.405
34.240,-0.685
34.245,-1.016
34.250,-1.250
34.255,-1.015
34.260,-0.461
34.265,-0.047
34.270,0.254
34.275,0.447
34.280,0.483
34.285,0.466
34.290,0.413
34.295,0.328
34.300,0.264
34.305,0.232
34.310,0.209
34.315,0.198
34.320,0.193
34.325,0.180
34.330,0.172
34.335,0.171
34.340,0.161
34.345,0.144
34.350,0.133
34.355,0.131
34.360,0.125
34.365,0.119
34.370,0.120
34.375,0.113
34.380,0.095
34.385,0.088
34.390,0.090
34.395,0.078
34.400,0.059
34.405,0.056
34.410,0.052
34.415,0.048
34.420,0.050
34.425,0.037
34.430,0.016
34.435,0.011
34.440,0.008
34.445,-0.007
34.450,-0.015
34.455,-0.015
34.460,-0.025
34.465,-0.042
34.470,-0.055
34.475,-0.064
34.480,-0.076
34.485,-0.085
34.490,-0.091
34.495,-0.096
34.500,-0.102
34.505,-0.116
34.510,-0.134
34.515,-0.144
34.520,-0.142
34.525,-0.145
34.530,-0.157
34.535,-0.168
34.540,-0.161
34.545,-0.143
34.550,-0.139
34.555,-0.130
34.560,-0.108
34.565,-0.088
34.570,-0.058
34.575,-0.024
34.580,0.001
34.585,0.026
34.590,0.052
34.595,0.077
34.600,0.095
34.605,0.102
34.610,0.114
34.615,0.134
34.620,0.143
34.625,0.137
34.630,0.128
34.635,0.125
34.640,0.124
34.645,0.124
34.650,0.123
34.655,0.114
34.660,0.104
34.665,0.098
34.670,0.098
34.675,0.091
34.680,0.072
34.685,0.068
34.690,0.074
34.695,0.072
34.700,0.070
34.705,0.065
34.710,0.055
34.715,0.051
34.720,0.053
34.725,0.049
34.730,0.039
34.735,0.038
34.740,0.044
34.745,0.039
34.750,0.035
34.755,0.041
34.760,0.044
34.765,0.038
34.770,0.034
34.775,0.035
34.780,0.033
34.785,0.032
34.790,0.035
34.795,0.031
34.800,0.029
34.805,0.031
34.810,0.031
34.815,0.032
34.820,0.032
34.825,0.028
34.830,0.024
34.835,0.025
34.840,0.027
34.845,0.023
34.850,0.022
34.855,0.025
34.860,0.017
34.865,0.008
34.870,0.003
34.875,0.004
34.880,0.006
34.885,0.010
34.890,0.008
34.895,-0.005
34.900,-0.006
34.905,-0.005
34.910,-0.012
34.915,-0.015
34.920,-0.011
34.925,-0.011
34.930,-0.017
34.935,-0.013
34.940,-0.008
34.945,-0.019
34.950,-0.026
34.955,-0.019
34.960,-0.018
34.965,-0.025
34.970,-0.029
34.975,-0.029
34.980,-0.036
34.985,-0.034
34.990,-0.022
34.995,-0.028
35.000,-0.034
35.005,-0.026
35.010,-0.028
35.015,-0.032
35.020,-0.032
35.025,-0.038
35.030,-0.039
35.035,-0.033
35.040,-0.031
35.045,-0.038
35.050,-0.040
35.055,-0.035
35.060,-0.039
35.065,-0.044
35.070,-0.036
35.075,-0.033
35.080,-0.043
35.085,-0.046
35.090,-0.051
35.095,-0.061
35.100,-0.068
35.105,-0.087
35.110,-0.107
35.115,-0.112
35.120,-0.117
35.125,-0.124
35.130,-0.109
35.135,-0.093
35.140,-0.113
35.145,-0.144
35.150,-0.138
35.155,-0.102
35.160,-0.085
35.165,-0.071
35.170,-0.058
35.175,-0.061
35.180,-0.046
35.185,-0.016
35.190,-0.006
35.195,0.005
35.200,0.035
35.205,0.051
35.210,0.042
35.215,0.043
35.220,0.066
35.225,0.075
35.230,0.069
35.235,0.064
35.240,0.056
35.245,0.049
35.250,0.048
35.255,0.052
35.260,0.052
35.265,0.052
35.270,0.062
35.275,0.037
35.280,-0.089
35.285,-0.307
35.290,-0.570
35.295,-0.880
35.300,-1.215
35.305,-1.255
35.310,-0.801
35.315,-0.266
35.320,0.115
35.325,0.414
35.330,0.528
35.335,0.507
35.340,0.463
35.345,0.382
35.350,0.302
35.355,0.262
35.360,0.236
35.365,0.221
35.370,0.214
35.375,0.200
35.380,0.188
35.385,0.181
35.390,0.171
35.395,0.162
35.400,0.156
35.405,0.150
35.410,0.142
35.415,0.134
35.420,0.126
35.425,0.115
35.430,0.106
35.435,0.108
35.440,0.099
35.445,0.078
35.450,0.070
35.455,0.073
35.460,0.065
35.465,0.054
35.470,0.049
35.475,0.046
35.480,0.033
35.485,0.020
35.490,0.015
35.495,0.003
35.500,-0.010
35.505,-0.020
35.510,-0.032
35.515,-0.042
35.520,-0.050
35.525,-0.064
35.530,-0.077
35.535,-0.091
35.540,-0.104
35.545,-0.114
35.550,-0.120
35.555,-0.129
35.560,-0.144
35.565,-0.153
35.570,-0.155
35.575,-0.163
35.580,-0.175
35.585,-0.176
35.590,-0.166
35.595,-0.157
35.600,-0.146
35.605,-0.135
35.610,-0.123
35.615,-0.094
35.620,-0.058
35.625,-0.031
35.630,-0.004
35.635,0.039
35.640,0.070
35.645,0.084
35.650,0.107
35.655,0.132
35.660,0.141
35.665,0.144
35.670,0.151
35.675,0.150
35.680,0.148
35.685,0.151
35.690,0.148
35.695,0.137
35.700,0.129
35.705,0.126
35.710,0.120
35.715,0.111
35.720,0.110
35.725,0.106
35.730,0.095
35.735,0.091
35.740,0.085
35.745,0.070
35.750,0.068
35.755,0.073
35.760,0.067
35.765,0.058
35.770,0.056
35.775,0.051
35.780,0.040
35.785,0.041
35.790,0.042
35.795,0.033
35.800,0.033
35.805,0.033
35.810,0.022
35.815,0.016
35.820,0.022
35.825,0.034
35.830,0.033
35.835,0.026
35.840,0.028
35.845,0.026
35.850,0.023
35.855,0.030
35.860,0.027
35.865,0.017
35.870,0.019
35.875,0.020
35.880,0.016
35.885,0.018
35.890,0.019
35.895,0.015
35.900,0.015
35.905,0.013
35.910,0.006
35.915,0.010
35.920,0.020
35.925,0.012
35.930,-0.007
35.935,-0.009
35.940,0.004
35.945,0.004
35.950,0.001
35.955,-0.001
35.960,-0.012
35.965,-0.019
35.970,-0.017
35.975,-0.015
35.980,-0.020
35.985,-0.019
35.990,-0.016
35.995,-0.020
36.000,-0.022
36.005,-0.021
36.010,-0.027
36.015,-0.035
36.020,-0.029
36.025,-0.020
36.030,-0.022
36.035,-0.028
36.040,-0.036
36.045,-0.043
36.050,-0.038
36.055,-0.031
36.060,-0.037
36.065,-0.038
36.070,-0.033
36.075,-0.032
36.080,-0.035
36.085,-0.036
36.090,-0.037
36.095,-0.041
36.100,-0.042
36.105,-0.037
36.110,-0.033
36.115,-0.036
36.120,-0.039
36.125,-0.036
36.130,-0.033
36.135,-0.035
36.140,-0.037
36.145,-0.038
36.150,-0.034
36.155,-0.029
36.160,-0.036
36.165,-0.040
36.170,-0.035
36.175,-0.038
36.180,-0.048
36.185,-0.056
36.190,-0.072
36.195,-0.092
36.200,-0.096
36.205,-0.099
36.210,-0.111
36.215,-0.112
36.220,-0.098
36.225,-0.094
36.230,-0.123
36.235,-0.147
36.240,-0.123
36.245,-0.091
36.250,-0.076
36.255,-0.059
36.260,-0.050
36.265,-0.053
36.270,-0.031
36.275,-0.006
36.280,0.000
36.285,0.022
36.290,0.049
36.295,0.050
36.300,0.049
36.305,0.061
36.310,0.069
36.315,0.072
36.320,0.071
36.325,0.067
36.330,0.064
36.335,0.063
36.340,0.061
36.345,0.059
36.350,0.055
36.355,0.055
36.360,0.061
36.365,0.017
36.370,-0.128
36.375,-0.356
36.380,-0.631
36.385,-0.954
36.390,-1.248
36.395,-1.153
36.400,-0.620
36.405,-0.137
36.410,0.211
36.415,0.490
36.420,0.556
36.425,0.500
36.430,0.438
36.435,0.364
36.440,0.296
36.445,0.251
36.450,0.232
36.455,0.221
36.460,0.202
36.465,0.195
36.470,0.196
36.475,0.184
36.480,0.168
36.485,0.164
36.490,0.156
36.495,0.135
36.500,0.128
36.505,0.134
36.510,0.122
36.515,0.104
36.520,0.105
36.525,0.106
36.530,0.094
36.535,0.084
36.540,0.078
36.545,0.072
36.550,0.064
36.555,0.056
36.560,0.047
36.565,0.037
36.570,0.030
36.575,0.015
36.580,-0.004
36.585,-0.005
36.590,-0.008
36.595,-0.028
36.600,-0.036
36.605,-0.036
36.610,-0.055
36.615,-0.073
36.620,-0.088
36.625,-0.097
36.630,-0.100
36.635,-0.115
36.640,-0.138
36.645,-0.153
36.650,-0.151
36.655,-0.154
36.660,-0.172
36.665,-0.172
36.670,-0.169
36.675,-0.170
36.680,-0.167
36.685,-0.164
36.690,-0.153
36.695,-0.133
36.700,-0.108
36.705,-0.081
36.710,-0.062
36.715,-0.034
36.720,0.004
36.725,0.029
36.730,0.056
36.735,0.099
36.740,0.133
36.745,0.142
36.750,0.142
36.755,0.142
36.760,0.144
36.765,0.155
36.770,0.165
36.775,0.160
36.780,0.147
36.785,0.147
36.790,0.144
36.795,0.122
36.800,0.121
36.805,0.128
36.810,0.113
36.815,0.100
36.820,0.098
36.825,0.096
36.830,0.090
36.835,0.081
36.840,0.078
36.845,0.080
36.850,0.079
36.855,0.069
36.860,0.049
36.865,0.037
36.870,0.049
36.875,0.054
36.880,0.042
36.885,0.039
36.890,0.034
36.895,0.028
36.900,0.032
36.905,0.036
36.910,0.041
36.915,0.036
36.920,0.028
36.925,0.019
36.930,0.008
36.935,0.016
36.940,0.028
36.945,0.015
36.950,0.012
36.955,0.033
36.960,0.041
36.965,0.035
36.970,0.023
36.975,0.007
36.980,0.011
36.985,0.024
36.990,0.020
36.995,0.011
37.000,-0.001
37.005,-0.004
37.010,0.005
37.015,0.004
37.020,-0.001
37.025,0.001
37.030,-0.005
37.035,-0.015
37.040,-0.008
37.045,-0.001
37.050,0.000
37.055,-0.002
37.060,-0.018
37.065,-0.029
37.070,-0.027
37.075,-0.027
37.080,-0.026
37.085,-0.016
37.090,-0.012
37.095,-0.016
37.100,-0.023
37.105,-0.034
37.110,-0.034
37.115,-0.030
37.120,-0.032
37.125,-0.030
37.130,-0.029
37.135,-0.029
37.140,-0.030
37.145,-0.035
37.150,-0.037
37.155,-0.033
37.160,-0.030
37.165,-0.033
37.170,-0.038
37.175,-0.038
37.180,-0.038
37.185,-0.035
37.190,-0.032
37.195,-0.039
37.200,-0.042
37.205,-0.041
37.210,-0.044
37.215,-0.039
37.220,-0.032
37.225,-0.039
37.230,-0.045
37.235,-0.040
37.240,-0.040
37.245,-0.044
37.250,-0.043
37.255,-0.039
37.260,-0.043
37.265,-0.054
37.270,-0.057
37.275,-0.059
37.280,-0.075
37.285,-0.090
37.290,-0.100
37.295,-0.108
37.300,-0.110
37.305,-0.109
37.310,-0.101
37.315,-0.102
37.320,-0.128
37.325,-0.142
37.330,-0.124
37.335,-0.097
37.340,-0.069
37.345,-0.046
37.350,-0.039
37.355,-0.042
37.360,-0.031
37.365,-0.011
37.370,0.008
37.375,0.028
37.380,0.046
37.385,0.055
37.390,0.052
37.395,0.057
37.400,0.070
37.405,0.072
37.410,0.063
37.415,0.058
37.420,0.062
37.425,0.061
37.430,0.052
37.435,0.052
37.440,0.058
37.445,0.064
37.450,0.066
37.455,0.002
37.460,-0.162
37.465,-0.399
37.470,-0.690
37.475,-1.037
37.480,-1.303
37.485,-1.115
37.490,-0.569
37.495,-0.123
37.500,0.241
37.505,0.498
37.510,0.539
37.515,0.505
37.520,0.451
37.525,0.367
37.530,0.295
37.535,0.263
37.540,0.246
37.545,0.229
37.550,0.218
37.555,0.209
37.560,0.201
37.565,0.190
37.570,0.187
37.575,0.187
37.580,0.170
37.585,0.157
37.590,0.146
37.595,0.134
37.600,0.127
37.605,0.117
37.610,0.107
37.615,0.109
37.620,0.109
37.625,0.094
37.630,0.082
37.635,0.077
37.640,0.067
37.645,0.055
37.650,0.041
37.655,0.031
37.660,0.027
37.665,0.022
37.670,0.013
37.675,-0.001
37.680,-0.013
37.685,-0.019
37.690,-0.031
37.695,-0.043
37.700,-0.051
37.705,-0.063
37.710,-0.081
37.715,-0.095
37.720,-0.102
37.725,-0.114
37.730,-0.127
37.735,-0.131
37.740,-0.137
37.745,-0.150
37.750,-0.158
37.755,-0.165
37.760,-0.169
37.765,-0.164
37.770,-0.158
37.775,-0.150
37.780,-0.140
37.785,-0.123
37.790,-0.105
37.795,-0.084
37.800,-0.049
37.805,-0.010
37.810,0.018
37.815,0.044
37.820,0.073
37.825,0.098
37.830,0.118
37.835,0.136
37.840,0.146
37.845,0.148
37.850,0.155
37.855,0.159
37.860,0.157
37.865,0.154
37.870,0.148
37.875,0.136
37.880,0.129
37.885,0.130
37.890,0.125
37.895,0.116
37.900,0.108
37.905,0.098
37.910,0.091
37.915,0.093
37.920,0.094
37.925,0.082
37.930,0.075
37.935,0.077
37.940,0.070
37.945,0.053
37.950,0.046
37.955,0.052
37.960,0.047
37.965,0.040
37.970,0.043
37.975,0.044
37.980,0.038
37.985,0.030
37.990,0.027
37.995,0.031
38.000,0.034
38.005,0.030
38.010,0.021
38.015,0.023
38.020,0.029
38.025,0.025
38.030,0.021
38.035,0.020
38.040,0.020
38.045,0.024
38.050,0.024
38.055,0.016
38.060,0.011
38.065,0.015
38.070,0.021
38.075,0.016
38.080,0.010
38.085,0.009
38.090,0.002
38.095,-0.003
38.100,0.000
38.105,0.004
38.110,0.001
38.115,-0.005
38.120,-0.005
38.125,-0.010
38.130,-0.016
38.135,-0.010
38.140,-0.009
38.145,-0.017
38.150,-0.020
38.155,-0.021
38.160,-0.026
38.165,-0.028
38.170,-0.021
38.175,-0.018
38.180,-0.022
38.185,-0.022
38.190,-0.027
38.195,-0.035
38.200,-0.026
38.205,-0.020
38.210,-0.030
38.215,-0.034
38.220,-0.032
38.225,-0.033
38.230,-0.032
38.235,-0.032
38.240,-0.034
38.245,-0.029
38.250,-0.025
38.255,-0.033
38.260,-0.042
38.265,-0.040
38.270,-0.034
38.275,-0.039
38.280,-0.034
38.285,-0.022
38.290,-0.032
38.295,-0.045
38.300,-0.042
38.305,-0.036
38.310,-0.037
38.315,-0.035
38.320,-0.028
38.325,-0.034
38.330,-0.041
38.335,-0.039
38.340,-0.052
38.345,-0.070
38.350,-0.078
38.355,-0.091
38.360,-0.110
38.365,-0.117
38.370,-0.115
38.375,-0.111
38.380,-0.098
38.385,-0.092
38.390,-0.119
38.395,-0.134
38.400,-0.108
38.405,-0.080
38.410,-0.059
38.415,-0.039
38.420,-0.047
38.425,-0.059
38.430,-0.037
38.435,-0.018
38.440,-0.015
38.445,0.014
38.450,0.047
38.455,0.049
38.460,0.044
38.465,0.052
38.470,0.063
38.475,0.061
38.480,0.055
38.485,0.058
38.490,0.053
38.495,0.045
38.500,0.048
38.505,0.053
38.510,0.050
38.515,0.054
38.520,0.047
38.525,-0.039
38.530,-0.225
38.535,-0.485
38.540,-0.797
38.545,-1.136
38.550,-1.286
38.555,-0.960
38.560,-0.414
38.565,0.015
38.570,0.396
38.575,0.600
38.580,0.563
38.585,0.492
38.590,0.418
38.595,0.318
38.600,0.249
38.605,0.227
38.610,0.215
38.615,0.203
38.620,0.197
38.625,0.188
38.630,0.179
38.635,0.173
38.640,0.162
38.645,0.148
38.650,0.143
38.655,0.139
38.660,0.132
38.665,0.123
38.670,0.108
38.675,0.096
38.680,0.091
38.685,0.089
38.690,0.084
38.695,0.071
38.700,0.066
38.705,0.067
38.710,0.058
38.715,0.040
38.720,0.027
38.725,0.022
38.730,0.017
38.735,0.010
38.740,0.001
38.745,-0.012
38.750,-0.020
38.755,-0.032
38.760,-0.049
38.765,-0.059
38.770,-0.067
38.775,-0.087
38.780,-0.107
38.785,-0.113
38.790,-0.123
38.795,-0.140
38.800,-0.147
38.805,-0.149
38.810,-0.156
38.815,-0.170
38.820,-0.177
38.825,-0.183
38.830,-0.185
38.835,-0.171
38.840,-0.159
38.845,-0.155
38.850,-0.137
38.855,-0.114
38.860,-0.101
38.865,-0.073
38.870,-0.029
38.875,0.001
38.880,0.031
38.885,0.073
38.890,0.101
38.895,0.119
38.900,0.142
38.905,0.161
38.910,0.164
38.915,0.164
38.920,0.177
38.925,0.185
38.930,0.178
38.935,0.174
38.940,0.164
38.945,0.152
38.950,0.152
38.955,0.152
38.960,0.145
38.965,0.136
38.970,0.129
38.975,0.122
38.980,0.113
38.985,0.108
38.990,0.107
38.995,0.099
39.000,0.089
39.005,0.085
39.010,0.080
39.015,0.077
39.020,0.070
39.025,0.060
39.030,0.054
39.035,0.052
39.040,0.046
39.045,0.042
39.050,0.045
39.055,0.043
39.060,0.035
39.065,0.032
39.070,0.036
39.075,0.036
39.080,0.028
39.085,0.025
39.090,0.026
39.095,0.026
39.100,0.028
39.105,0.026
39.110,0.024
39.115,0.025
39.120,0.022
39.125,0.014
39.130,0.013
39.135,0.019
39.140,0.020
39.145,0.016
39.150,0.009
39.155,0.001
39.160,-0.003
39.165,-0.003
39.170,-0.002
39.175,-0.006
39.180,-0.009
39.185,-0.010
39.190,-0.017
39.195,-0.014
39.200,-0.004
39.205,-0.007
39.210,-0.016
39.215,-0.016
39.220,-0.014
39.225,-0.019
39.230,-0.027
39.235,-0.024
39.240,-0.023
39.245,-0.024
39.250,-0.018
39.255,-0.026
39.260,-0.036
39.265,-0.027
39.270,-0.022
39.275,-0.032
39.280,-0.033
39.285,-0.028
39.290,-0.036
39.295,-0.040
39.300,-0.035
39.305,-0.035
39.310,-0.035
39.315,-0.032
39.320,-0.034
39.325,-0.040
39.330,-0.040
39.335,-0.039
39.340,-0.040
39.345,-0.034
39.350,-0.033
39.355,-0.043
39.360,-0.046
39.365,-0.038
39.370,-0.035
39.375,-0.040
39.380,-0.044
39.385,-0.042
39.390,-0.041
39.395,-0.042
39.400,-0.045
39.405,-0.055
39.410,-0.071
39.415,-0.079
39.420,-0.084
39.425,-0.098
39.430,-0.108
39.435,-0.110
39.440,-0.117
39.445,-0.114
39.450,-0.097
39.455,-0.103
39.460,-0.133
39.465,-0.132
39.470,-0.099
39.475,-0.077
39.480,-0.058
39.485,-0.046
39.490,-0.051
39.495,-0.040
39.500,-0.019
39.505,-0.012
39.510,0.004
39.515,0.032
39.520,0.051
39.525,0.054
39.530,0.047
39.535,0.050
39.540,0.060
39.545,0.060
39.550,0.060
39.555,0.056
39.560,0.047
39.565,0.050
39.570,0.051
39.575,0.042
39.580,0.052
39.585,0.066
39.590,0.022
39.595,-0.111
39.600,-0.322
39.605,-0.584
39.610,-0.888
39.615,-1.168
39.620,-1.089
39.625,-0.598
39.630,-0.142
39.635,0.196
39.640,0.466
39.645,0.527
39.650,0.468
39.655,0.414
39.660,0.339
39.665,0.261
39.670,0.223
39.675,0.203
39.680,0.189
39.685,0.182
39.690,0.172
39.695,0.164
39.700,0.157
39.705,0.147
39.710,0.138
39.715,0.134
39.720,0.133
39.725,0.128
39.730,0.115
39.735,0.105
39.740,0.095
39.745,0.083
39.750,0.080
39.755,0.077
39.760,0.069
39.765,0.065
39.770,0.063
39.775,0.052
39.780,0.042
39.785,0.037
39.790,0.023
39.795,0.013
39.800,0.013
39.805,0.005
39.810,-0.008
39.815,-0.012
39.820,-0.017
39.825,-0.038
39.830,-0.052
39.835,-0.057
39.840,-0.073
39.845,-0.086
39.850,-0.091
39.855,-0.104
39.860,-0.119
39.865,-0.126
39.870,-0.134
39.875,-0.146
39.880,-0.150
39.885,-0.148
39.890,-0.157
39.895,-0.170
39.900,-0.170
39.905,-0.165
39.910,-0.160
39.915,-0.147
39.920,-0.128
39.925,-0.113
39.930,-0.089
39.935,-0.056
39.940,-0.030
39.945,0.000
39.950,0.037
39.955,0.067
39.960,0.089
39.965,0.111
39.970,0.131
39.975,0.141
39.980,0.148
39.985,0.157
39.990,0.158
39.995,0.154
40.000,0.157
40.005,0.159
40.010,0.145
40.015,0.138
40.020,0.138
40.025,0.126
40.030,0.117
40.035,0.119
40.040,0.112
40.045,0.104
40.050,0.106
40.055,0.100
40.060,0.081
40.065,0.076
40.070,0.081
40.075,0.074
40.080,0.068
40.085,0.069
40.090,0.062
40.095,0.060
40.100,0.061
40.105,0.050
40.110,0.040
40.115,0.040
40.120,0.039
40.125,0.035
40.130,0.032
40.135,0.037
40.140,0.039
40.145,0.037
40.150,0.039
40.155,0.038
40.160,0.028
40.165,0.027
40.170,0.033
40.175,0.031
40.180,0.026
40.185,0.028
40.190,0.029
40.195,0.027
40.200,0.028
40.205,0.023
40.210,0.014
40.215,0.015
40.220,0.019
40.225,0.014
40.230,0.011
40.235,0.014
40.240,0.012
40.245,0.008
40.250,0.007
40.255,0.002
40.260,-0.005
40.265,-0.002
40.270,-0.001
40.275,-0.011
40.280,-0.012
40.285,-0.006
40.290,-0.012
40.295,-0.020
40.300,-0.019
40.305,-0.019
40.310,-0.024
40.315,-0.026
40.320,-0.024
40.325,-0.022
40.330,-0.025
40.335,-0.027
40.340,-0.033
40.345,-0.039
40.350,-0.030
40.355,-0.024
40.360,-0.031
40.365,-0.038
40.370,-0.039
40.375,-0.037
40.380,-0.033
40.385,-0.033
40.390,-0.042
40.395,-0.044
40.400,-0.036
40.405,-0.034
40.410,-0.040
40.415,-0.042
40.420,-0.038
40.425,-0.042
40.430,-0.045
40.435,-0.039
40.440,-0.039
40.445,-0.039
40.450,-0.035
40.455,-0.045
40.460,-0.060
40.465,-0.063
40.470,-0.066
40.475,-0.079
40.480,-0.092
40.485,-0.098
40.490,-0.112
40.495,-0.129
40.500,-0.116
40.505,-0.094
40.510,-0.099
40.515,-0.125
40.520,-0.143
40.525,-0.132
40.530,-0.100
40.535,-0.067
40.540,-0.050
40.545,-0.053
40.550,-0.056
40.555,-0.033
40.560,-0.006
40.565,0.008
40.570,0.021
40.575,0.031
40.580,0.044
40.585,0.060
40.590,0.064
40.595,0.070
40.600,0.066
40.605,0.051
40.610,0.047
40.615,0.046
40.620,0.043
40.625,0.042
40.630,0.050
40.635,0.058
40.640,0.059
40.645,0.055
40.650,-0.002
40.655,-0.159
40.660,-0.385
40.665,-0.642
40.670,-0.943
40.675,-1.157
40.680,-0.930
40.685,-0.405
40.690,-0.030
40.695,0.251
40.700,0.457
40.705,0.488
40.710,0.445
40.715,0.387
40.720,0.305
40.725,0.227
40.730,0.188
40.735,0.189
40.740,0.191
40.745,0.178
40.750,0.164
40.755,0.153
40.760,0.144
40.765,0.141
40.770,0.135
40.775,0.126
40.780,0.123
40.785,0.121
40.790,0.112
40.795,0.103
40.800,0.100
40.805,0.093
40.810,0.077
40.815,0.072
40.820,0.071
40.825,0.059
40.830,0.050
40.835,0.048
40.840,0.041
40.845,0.033
40.850,0.026
40.855,0.017
40.860,0.008
40.865,0.006
40.870,0.005
40.875,-0.007
40.880,-0.016
40.885,-0.022
40.890,-0.044
40.895,-0.061
40.900,-0.062
40.905,-0.078
40.910,-0.104
40.915,-0.112
40.920,-0.117
40.925,-0.128
40.930,-0.135
40.935,-0.133
40.940,-0.143
40.945,-0.161
40.950,-0.159
40.955,-0.156
40.960,-0.156
40.965,-0.149
40.970,-0.145
40.975,-0.147
40.980,-0.143
40.985,-0.123
40.990,-0.095
40.995,-0.070
41.000,-0.035
41.005,0.003
41.010,0.030
41.015,0.057
41.020,0.081
41.025,0.096
41.030,0.113
41.035,0.133
41.040,0.144
41.045,0.149
41.050,0.150
41.055,0.147
41.060,0.140
41.065,0.138
41.070,0.139
41.075,0.130
41.080,0.122
41.085,0.119
41.090,0.113
41.095,0.106
41.100,0.102
41.105,0.095
41.110,0.083
41.115,0.083
41.120,0.087
41.125,0.074
41.130,0.065
41.135,0.071
41.140,0.065
41.145,0.052
41.150,0.051
41.155,0.050
41.160,0.041
41.165,0.043
41.170,0.048
41.175,0.040
41.180,0.033
41.185,0.038
41.190,0.037
41.195,0.031
41.200,0.034
41.205,0.036
41.210,0.029
41.215,0.030
41.220,0.035
41.225,0.030
41.230,0.028
41.235,0.031
41.240,0.030
41.245,0.025
41.250,0.027
41.255,0.031
41.260,0.024
41.265,0.021
41.270,0.021
41.275,0.015
41.280,0.011
41.285,0.014
41.290,0.015
41.295,0.013
41.300,0.016
41.305,0.016
41.310,0.005
41.315,0.002
41.320,0.003
41.325,-0.001
41.330,-0.002
41.335,0.000
41.340,-0.004
41.345,-0.011
41.350,-0.008
41.355,-0.004
41.360,-0.015
41.365,-0.022
41.370,-0.019
41.375,-0.023
41.380,-0.026
41.385,-0.020
41.390,-0.022
41.395,-0.027
41.400,-0.025
41.405,-0.025
41.410,-0.031
41.415,-0.034
41.420,-0.030
41.425,-0.030
41.430,-0.025
41.435,-0.020
41.440,-0.031
41.445,-0.038
41.450,-0.030
41.455,-0.029
41.460,-0.032
41.465,-0.029
41.470,-0.027
41.475,-0.032
41.480,-0.032
41.485,-0.029
41.490,-0.030
41.495,-0.031
41.500,-0.032
41.505,-0.036
41.510,-0.042
41.515,-0.045
41.520,-0.051
41.525,-0.072
41.530,-0.090
41.535,-0.091
41.540,-0.102
41.545,-0.119
41.550,-0.119
41.555,-0.102
41.560,-0.083
41.565,-0.096
41.570,-0.127
41.575,-0.128
41.580,-0.097
41.585,-0.068
41.590,-0.051
41.595,-0.056
41.600,-0.063
41.605,-0.046
41.610,-0.032
41.615,-0.023
41.620,0.003
41.625,0.026
41.630,0.035
41.635,0.045
41.640,0.054
41.645,0.063
41.650,0.066
41.655,0.056
41.660,0.049
41.665,0.053
41.670,0.055
41.675,0.052
41.680,0.060
41.685,0.068
41.690,0.054
41.695,0.043
41.700,0.008
41.705,-0.123
41.710,-0.328
41.715,-0.562
41.720,-0.844
41.725,-1.130
41.730,-1.075
41.735,-0.612
41.740,-0.181
41.745,0.153
41.750,0.451
41.755,0.539
41.760,0.480
41.765,0.413
41.770,0.331
41.775,0.248
41.780,0.210
41.785,0.201
41.790,0.195
41.795,0.188
41.800,0.178
41.805,0.169
41.810,0.159
41.815,0.148
41.820,0.148
41.825,0.141
41.830,0.124
41.835,0.121
41.840,0.122
41.845,0.113
41.850,0.105
41.855,0.100
41.860,0.089
41.865,0.082
41.870,0.077
41.875,0.057
41.880,0.045
41.885,0.056
41.890,0.047
41.895,0.024
41.900,0.031
41.905,0.029
41.910,0.011
41.915,0.008
41.920,-0.004
41.925,-0.026
41.930,-0.036
41.935,-0.038
41.940,-0.042
41.945,-0.051
41.950,-0.064
41.955,-0.072
41.960,-0.080
41.965,-0.094
41.970,-0.102
41.975,-0.110
41.980,-0.126
41.985,-0.138
41.990,-0.145
41.995,-0.155
42.000,-0.156
42.005,-0.159
42.010,-0.171
42.015,-0.167
42.020,-0.153
42.025,-0.145
42.030,-0.131
42.035,-0.105
42.040,-0.082
42.045,-0.060
42.050,-0.027
42.055,0.009
42.060,0.038
42.065,0.068
42.070,0.096
42.075,0.114
42.080,0.131
42.085,0.148
42.090,0.152
42.095,0.155
42.100,0.164
42.105,0.163
42.110,0.151
42.115,0.152
42.120,0.163
42.125,0.156
42.130,0.144
42.135,0.140
42.140,0.130
42.145,0.123
42.150,0.122
42.155,0.113
42.160,0.102
42.165,0.097
42.170,0.093
42.175,0.086
42.180,0.080
42.185,0.076
42.190,0.067
42.195,0.065
42.200,0.067
42.205,0.062
42.210,0.053
42.215,0.045
42.220,0.038
42.225,0.035
42.230,0.035
42.235,0.034
42.240,0.027
42.245,0.026
42.250,0.032
42.255,0.028
42.260,0.020
42.265,0.023
42.270,0.024
42.275,0.021
42.280,0.022
42.285,0.025
42.290,0.018
42.295,0.013
42.300,0.016
42.305,0.014
42.310,0.011
42.315,0.016
42.320,0.016
42.325,0.009
42.330,0.003
42.335,0.006
42.340,0.008
42.345,0.004
42.350,0.001
42.355,-0.002
42.360,-0.007
42.365,-0.008
42.370,-0.008
42.375,-0.012
42.380,-0.014
42.385,-0.010
42.390,-0.016
42.395,-0.022
42.400,-0.014
42.405,-0.013
42.410,-0.020
42.415,-0.021
42.420,-0.022
42.425,-0.029
42.430,-0.034
42.435,-0.026
42.440,-0.028
42.445,-0.036
42.450,-0.031
42.455,-0.030
42.460,-0.035
42.465,-0.035
42.470,-0.034
42.475,-0.039
42.480,-0.038
42.485,-0.033
42.490,-0.038
42.495,-0.039
42.500,-0.035
42.505,-0.040
42.510,-0.049
42.515,-0.049
42.520,-0.041
42.525,-0.036
42.530,-0.034
42.535,-0.031
42.540,-0.038
42.545,-0.051
42.550,-0.058
42.555,-0.066
42.560,-0.080
42.565,-0.092
42.570,-0.104
42.575,-0.115
42.580,-0.115
42.585,-0.115
42.590,-0.112
42.595,-0.103
42.600,-0.111
42.605,-0.138
42.610,-0.139
42.615,-0.105
42.620,-0.079
42.625,-0.067
42.630,-0.058
42.635,-0.055
42.640,-0.047
42.645,-0.023
42.650,-0.003
42.655,0.009
42.660,0.022
42.665,0.043
42.670,0.052
42.675,0.044
42.680,0.050
42.685,0.068
42.690,0.069
42.695,0.058
42.700,0.058
42.705,0.055
42.710,0.046
42.715,0.042
42.720,0.043
42.725,0.049
42.730,0.059
42.735,0.029
42.740,-0.091
42.745,-0.287
42.750,-0.511
42.755,-0.777
42.760,-1.061
42.765,-1.012
42.770,-0.558
42.775,-0.166
42.780,0.113
42.785,0.384
42.790,0.472
42.795,0.430
42.800,0.381
42.805,0.309
42.810,0.232
42.815,0.197
42.820,0.187
42.825,0.172
42.830,0.161
42.835,0.159
42.840,0.154
42.845,0.145
42.850,0.140
42.855,0.137
42.860,0.126
42.865,0.111
42.870,0.106
42.875,0.105
42.880,0.103
42.885,0.100
42.890,0.094
42.895,0.085
42.900,0.071
42.905,0.060
42.910,0.056
42.915,0.054
42.920,0.047
42.925,0.031
42.930,0.030
42.935,0.033
42.940,0.016
42.945,0.000
42.950,0.001
42.955,-0.002
42.960,-0.015
42.965,-0.023
42.970,-0.024
42.975,-0.036
42.980,-0.056
42.985,-0.066
42.990,-0.071
42.995,-0.083
43.000,-0.097
43.005,-0.106
43.010,-0.109
43.015,-0.116
43.020,-0.131
43.025,-0.149
43.030,-0.166
43.035,-0.172
43.040,-0.163
43.045,-0.156
43.050,-0.160
43.055,-0.158
43.060,-0.145
43.065,-0.129
43.070,-0.113
43.075,-0.097
43.080,-0.067
43.085,-0.030
43.090,-0.007
43.095,0.013
43.100,0.051
43.105,0.076
43.110,0.084
43.115,0.110
43.120,0.135
43.125,0.133
43.130,0.135
43.135,0.150
43.140,0.152
43.145,0.144
43.150,0.141
43.155,0.134
43.160,0.128
43.165,0.133
43.170,0.132
43.175,0.117
43.180,0.107
43.185,0.102
43.190,0.090
43.195,0.085
43.200,0.091
43.205,0.082
43.210,0.066
43.215,0.069
43.220,0.077
43.225,0.071
43.230,0.064
43.235,0.060
43.240,0.050
43.245,0.044
43.250,0.046
43.255,0.045
43.260,0.041
43.265,0.037
43.270,0.038
43.275,0.036
43.280,0.035
43.285,0.034
43.290,0.026
43.295,0.020
43.300,0.027
43.305,0.035
43.310,0.037
43.315,0.038
43.320,0.036
43.325,0.028
43.330,0.024
43.335,0.024
43.340,0.022
43.345,0.017
43.350,0.020
43.355,0.023
43.360,0.015
43.365,0.018
43.370,0.024
43.375,0.010
43.380,0.002
43.385,0.009
43.390,0.009
43.395,0.003
43.400,0.001
43.405,-0.004
43.410,-0.005
43.415,0.003
43.420,0.000
43.425,-0.010
43.430,-0.017
43.435,-0.015
43.440,-0.007
43.445,-0.014
43.450,-0.024
43.455,-0.015
43.460,-0.006
43.465,-0.022
43.470,-0.043
43.475,-0.032
43.480,-0.007
43.485,-0.009
43.490,-0.028
43.495,-0.034
43.500,-0.028
43.505,-0.028
43.510,-0.029
43.515,-0.030
43.520,-0.031
43.525,-0.031
43.530,-0.030
43.535,-0.025
43.540,-0.029
43.545,-0.042
43.550,-0.047
43.555,-0.038
43.560,-0.035
43.565,-0.040
43.570,-0.048
43.575,-0.064
43.580,-0.078
43.585,-0.086
43.590,-0.085
43.595,-0.088
43.600,-0.102
43.605,-0.114
43.610,-0.112
43.615,-0.100
43.620,-0.113
43.625,-0.147
43.630,-0.148
43.635,-0.124
43.640,-0.108
43.645,-0.078
43.650,-0.053
43.655,-0.056
43.660,-0.039
43.665,-0.007
43.670,0.010
43.675,0.021
43.680,0.031
43.685,0.048
43.690,0.055
43.695,0.046
43.700,0.052
43.705,0.062
43.710,0.060
43.715,0.059
43.720,0.054
43.725,0.052
43.730,0.057
43.735,0.054
43.740,0.043
43.745,0.047
43.750,0.069
43.755,0.044
43.760,-0.083
43.765,-0.282
43.770,-0.528
43.775,-0.831
43.780,-1.139
43.785,-1.125
43.790,-0.672
43.795,-0.223
43.800,0.087
43.805,0.341
43.810,0.450
43.815,0.464
43.820,0.425
43.825,0.341
43.830,0.272
43.835,0.237
43.840,0.219
43.845,0.203
43.850,0.193
43.855,0.191
43.860,0.183
43.865,0.171
43.870,0.160
43.875,0.150
43.880,0.144
43.885,0.142
43.890,0.139
43.895,0.124
43.900,0.106
43.905,0.101
43.910,0.104
43.915,0.094
43.920,0.081
43.925,0.082
43.930,0.076
43.935,0.069
43.940,0.062
43.945,0.051
43.950,0.048
43.955,0.049
43.960,0.041
43.965,0.026
43.970,0.012
43.975,0.003
43.980,-0.003
43.985,-0.007
43.990,-0.019
43.995,-0.031
44.000,-0.035
44.005,-0.042
44.010,-0.060
44.015,-0.070
44.020,-0.072
44.025,-0.087
44.030,-0.100
44.035,-0.106
44.040,-0.118
44.045,-0.122
44.050,-0.124
44.055,-0.139
44.060,-0.155
44.065,-0.154
44.070,-0.143
44.075,-0.148
44.080,-0.148
44.085,-0.128
44.090,-0.112
44.095,-0.103
44.100,-0.085
44.105,-0.060
44.110,-0.030
44.115,0.006
44.120,0.038
44.125,0.061
44.130,0.078
44.135,0.089
44.140,0.096
44.145,0.112
44.150,0.125
44.155,0.123
44.160,0.118
44.165,0.122
44.170,0.123
44.175,0.115
44.180,0.107
44.185,0.101
44.190,0.100
44.195,0.095
44.200,0.090
44.205,0.082
44.210,0.066
44.215,0.073
44.220,0.084
44.225,0.074
44.230,0.066
44.235,0.063
44.240,0.050
44.245,0.044
44.250,0.060
44.255,0.056
44.260,0.036
44.265,0.037
44.270,0.036
44.275,0.035
44.280,0.049
44.285,0.053
44.290,0.041
44.295,0.029
44.300,0.041
44.305,0.050
44.310,0.039
44.315,0.038
44.320,0.038
44.325,0.030
44.330,0.030
44.335,0.043
44.340,0.044
44.345,0.035
44.350,0.037
44.355,0.032
44.360,0.022
44.365,0.028
44.370,0.028
44.375,0.016
44.380,0.016
44.385,0.018
44.390,0.011
44.395,0.000
44.400,0.003
44.405,0.012
44.410,0.009
44.415,0.007
44.420,0.004
44.425,-0.003
44.430,-0.004
44.435,-0.002
44.440,-0.009
44.445,-0.012
44.450,-0.005
44.455,-0.005
44.460,-0.014
44.465,-0.018
44.470,-0.015
44.475,-0.015
44.480,-0.019
44.485,-0.025
44.490,-0.032
44.495,-0.032
44.500,-0.026
44.505,-0.021
44.510,-0.022
44.515,-0.029
44.520,-0.027
44.525,-0.022
44.530,-0.032
44.535,-0.037
44.540,-0.031
44.545,-0.031
44.550,-0.036
44.555,-0.036
44.560,-0.037
44.565,-0.035
44.570,-0.035
44.575,-0.043
44.580,-0.047
44.585,-0.049
44.590,-0.063
44.595,-0.083
44.600,-0.087
44.605,-0.094
44.610,-0.110
44.615,-0.115
44.620,-0.116
44.625,-0.115
44.630,-0.110
44.635,-0.129
44.640,-0.154
44.645,-0.144
44.650,-0.112
44.655,-0.081
44.660,-0.057
44.665,-0.052
44.670,-0.058
44.675,-0.044
44.680,-0.011
44.685,0.010
44.690,0.016
44.695,0.028
44.700,0.047
44.705,0.050
44.710,0.046
44.715,0.057
44.720,0.070
44.725,0.068
44.730,0.059
44.735,0.054
44.740,0.045
44.745,0.036
44.750,0.040
44.755,0.049
44.760,0.056
44.765,0.057
44.770,-0.006
44.775,-0.181
44.780,-0.424
44.785,-0.702
44.790,-1.038
44.795,-1.281
44.800,-1.053
44.805,-0.513
44.810,-0.097
44.815,0.242
44.820,0.467
44.825,0.502
44.830,0.478
44.835,0.423
44.840,0.332
44.845,0.257
44.850,0.229
44.855,0.229
44.860,0.223
44.865,0.209
44.870,0.201
44.875,0.186
44.880,0.174
44.885,0.171
44.890,0.160
44.895,0.147
44.900,0.141
44.905,0.132
44.910,0.128
44.915,0.125
44.920,0.112
44.925,0.098
44.930,0.091
44.935,0.088
44.940,0.080
44.945,0.072
44.950,0.074
44.955,0.062
44.960,0.042
44.965,0.034
44.970,0.025
44.975,0.016
44.980,0.014
44.985,0.014
44.990,0.004
44.995,-0.010
45.000,-0.020
45.005,-0.033
45.010,-0.047
45.015,-0.053
45.020,-0.060
45.025,-0.072
45.030,-0.083
45.035,-0.094
45.040,-0.108
45.045,-0.121
45.050,-0.123
45.055,-0.127
45.060,-0.143
45.065,-0.146
45.070,-0.145
45.075,-0.157
45.080,-0.161
45.085,-0.153
45.090,-0.148
45.095,-0.136
45.100,-0.111
45.105,-0.092
45.110,-0.074
45.115,-0.045
45.120,-0.013
45.125,0.010
45.130,0.033
45.135,0.063
45.140,0.090
45.145,0.112
45.150,0.132
45.155,0.141
45.160,0.140
45.165,0.143
45.170,0.142
45.175,0.134
45.180,0.133
45.185,0.135
45.190,0.130
45.195,0.122
45.200,0.117
45.205,0.110
45.210,0.104
45.215,0.099
45.220,0.091
45.225,0.088
45.230,0.087
45.235,0.083
45.240,0.076
45.245,0.067
45.250,0.061
45.255,0.056
45.260,0.048
45.265,0.045
45.270,0.048
45.275,0.043
45.280,0.038
45.285,0.041
45.290,0.036
45.295,0.032
45.300,0.034
45.305,0.028
45.310,0.019
