'Elapsed time','ECG'
'seconds','mV'
0.000,-0.042
0.005,0.008
0.010,0.218
0.015,0.412
0.020,0.038
0.025,-0.037
0.030,0.436
0.035,0.167
0.040,-0.161
0.045,0.296
0.050,0.314
0.055,-0.175
0.060,0.084
0.065,0.391
0.070,-0.077
0.075,-0.113
0.080,0.355
0.085,0.072
0.090,-0.254
0.095,0.202
0.100,0.223
0.105,-0.266
0.110,-0.002
0.115,0.302
0.120,-0.170
0.125,-0.205
0.130,0.265
0.135,-0.009
0.140,-0.325
0.145,0.132
0.150,0.158
0.155,-0.324
0.160,-0.057
0.165,0.256
0.170,-0.207
0.175,-0.235
0.180,0.242
0.185,-0.026
0.190,-0.331
0.195,0.145
0.200,0.186
0.205,-0.279
0.210,0.013
0.215,0.346
0.220,-0.099
0.225,-0.106
0.230,0.381
0.235,0.120
0.240,-0.176
0.245,0.293
0.250,0.318
0.255,-0.156
0.260,0.115
0.265,0.422
0.270,-0.046
0.275,-0.073
0.280,0.399
0.285,0.118
0.290,-0.194
0.295,0.269
0.300,0.281
0.305,-0.205
0.310,0.069
0.315,0.371
0.320,-0.108
0.325,-0.143
0.330,0.329
0.335,0.053
0.340,-0.265
0.345,0.193
0.350,0.211
0.355,-0.269
0.360,0.006
0.365,0.307
0.370,-0.166
0.375,-0.185
0.380,0.290
0.385,0.012
0.390,-0.281
0.395,0.189
0.400,0.194
0.405,-0.279
0.410,0.005
0.415,0.294
0.420,-0.175
0.425,-0.181
0.430,0.295
0.435,0.018
0.440,-0.280
0.445,0.183
0.450,0.186
0.455,-0.290
0.460,-0.002
0.465,0.300
0.470,-0.174
0.475,-0.185
0.480,0.292
0.485,0.003
0.490,-0.296
0.495,0.181
0.500,0.190
0.505,-0.289
0.510,-0.002
0.515,0.292
0.520,-0.184
0.525,-0.181
0.530,0.295
0.535,-0.002
0.540,-0.296
0.545,0.168
0.550,0.168
0.555,-0.301
0.560,-0.013
0.565,0.287
0.570,-0.183
0.575,-0.192
0.580,0.283
0.585,-0.009
0.590,-0.315
0.595,0.158
0.600,0.171
0.605,-0.308
0.610,-0.032
0.615,0.264
0.620,-0.200
0.625,-0.190
0.630,0.293
0.635,-0.009
0.640,-0.315
0.645,0.169
0.650,0.182
0.655,-0.301
0.660,-0.023
0.665,0.248
0.670,-0.260
0.675,-0.285
0.680,0.177
0.685,-0.126
0.690,-0.432
0.695,0.041
0.700,0.080
0.705,-0.354
0.710,-0.061
0.715,0.234
0.720,-0.219
0.725,-0.188
0.730,0.323
0.735,0.055
0.740,-0.238
0.745,0.239
0.750,0.252
0.755,-0.224
0.760,0.064
0.765,0.358
0.770,-0.122
0.775,-0.128
0.780,0.345
0.785,0.053
0.790,-0.244
0.795,0.224
0.800,0.222
0.805,-0.258
0.810,0.039
0.815,0.366
0.820,-0.119
0.825,-0.232
0.830,0.018
0.835,-0.634
0.840,-1.251
0.845,-0.791
0.850,-0.413
0.855,-0.310
0.860,0.369
0.865,0.700
0.870,0.108
0.875,0.014
0.880,0.447
0.885,0.153
0.890,-0.130
0.895,0.336
0.900,0.328
0.905,-0.141
0.910,0.145
0.915,0.414
0.920,-0.070
0.925,-0.068
0.930,0.393
0.935,0.087
0.940,-0.200
0.945,0.272
0.950,0.253
0.955,-0.228
0.960,0.066
0.965,0.349
0.970,-0.126
0.975,-0.115
0.980,0.349
0.985,0.041
0.990,-0.244
0.995,0.229
1.000,0.209
1.005,-0.271
1.010,0.022
1.015,0.301
1.020,-0.176
1.025,-0.164
1.030,0.295
1.035,-0.012
1.040,-0.295
1.045,0.172
1.050,0.152
1.055,-0.314
1.060,-0.008
1.065,0.259
1.070,-0.228
1.075,-0.210
1.080,0.252
1.085,-0.066
1.090,-0.348
1.095,0.127
1.100,0.099
1.105,-0.385
1.110,-0.088
1.115,0.197
1.120,-0.283
1.125,-0.276
1.130,0.187
1.135,-0.119
1.140,-0.397
1.145,0.081
1.150,0.066
1.155,-0.400
1.160,-0.094
1.165,0.184
1.170,-0.287
1.175,-0.259
1.180,0.212
1.185,-0.085
1.190,-0.343
1.195,0.162
1.200,0.168
1.205,-0.280
1.210,0.047
1.215,0.340
1.220,-0.127
1.225,-0.090
1.230,0.387
1.235,0.079
1.240,-0.196
1.245,0.289
1.250,0.269
1.255,-0.198
1.260,0.118
1.265,0.389
1.270,-0.103
1.275,-0.091
1.280,0.369
1.285,0.060
1.290,-0.215
1.295,0.258
1.300,0.230
1.305,-0.246
1.310,0.051
1.315,0.318
1.320,-0.166
1.325,-0.148
1.330,0.315
1.335,-0.002
1.340,-0.277
1.345,0.206
1.350,0.176
1.355,-0.299
1.360,0.017
1.365,0.297
1.370,-0.192
1.375,-0.174
1.380,0.297
1.385,-0.016
1.390,-0.294
1.395,0.192
1.400,0.173
1.405,-0.299
1.410,0.010
1.415,0.286
1.420,-0.198
1.425,-0.175
1.430,0.297
1.435,-0.013
1.440,-0.285
1.445,0.199
1.450,0.182
1.455,-0.279
1.460,0.030
1.465,0.296
1.470,-0.191
1.475,-0.163
1.480,0.305
1.485,-0.010
1.490,-0.281
1.495,0.202
1.500,0.173
1.505,-0.298
1.510,0.021
1.515,0.299
1.520,-0.184
1.525,-0.161
1.530,0.300
1.535,-0.017
1.540,-0.285
1.545,0.200
1.550,0.168
1.555,-0.299
1.560,0.019
1.565,0.283
1.570,-0.199
1.575,-0.163
1.580,0.299
1.585,-0.022
1.590,-0.286
1.595,0.198
1.600,0.158
1.605,-0.305
1.610,0.016
1.615,0.274
1.620,-0.211
1.625,-0.172
1.630,0.291
1.635,-0.041
1.640,-0.330
1.645,0.118
1.650,0.055
1.655,-0.407
1.660,-0.085
1.665,0.158
1.670,-0.335
1.675,-0.265
1.680,0.229
1.685,-0.088
1.690,-0.335
1.695,0.173
1.700,0.161
1.705,-0.253
1.710,0.095
1.715,0.345
1.720,-0.141
1.725,-0.090
1.730,0.374
1.735,0.042
1.740,-0.218
1.745,0.271
1.750,0.221
1.755,-0.242
1.760,0.086
1.765,0.334
1.770,-0.162
1.775,-0.121
1.780,0.336
1.785,0.013
1.790,-0.221
1.795,0.259
1.800,0.121
1.805,-0.539
1.810,-0.549
1.815,-0.647
1.820,-1.232
1.825,-0.883
1.830,0.156
1.835,0.305
1.840,0.173
1.845,0.540
1.850,0.364
1.855,-0.136
1.860,0.198
1.865,0.446
1.870,-0.051
1.875,-0.004
1.880,0.452
1.885,0.114
1.890,-0.151
1.895,0.329
1.900,0.276
1.905,-0.195
1.910,0.127
1.915,0.377
1.920,-0.120
1.925,-0.077
1.930,0.379
1.935,0.035
1.940,-0.230
1.945,0.256
1.950,0.206
1.955,-0.258
1.960,0.072
1.965,0.321
1.970,-0.176
1.975,-0.130
1.980,0.326
1.985,-0.014
1.990,-0.274
1.995,0.215
2.000,0.165
2.005,-0.298
2.010,0.030
2.015,0.278
2.020,-0.219
2.025,-0.175
2.030,0.275
2.035,-0.067
2.040,-0.323
2.045,0.161
2.050,0.103
2.055,-0.358
2.060,-0.029
2.065,0.211
2.070,-0.283
2.075,-0.235
2.080,0.213
2.085,-0.129
2.090,-0.380
2.095,0.105
2.100,0.042
2.105,-0.413
2.110,-0.071
2.115,0.175
2.120,-0.316
2.125,-0.255
2.130,0.201
2.135,-0.137
2.140,-0.369
2.145,0.120
2.150,0.052
2.155,-0.380
2.160,-0.011
2.165,0.235
2.170,-0.238
2.175,-0.138
2.180,0.329
2.185,-0.003
2.190,-0.210
2.195,0.298
2.200,0.228
2.205,-0.205
2.210,0.160
2.215,0.393
2.220,-0.096
2.225,-0.022
2.230,0.413
2.235,0.061
2.240,-0.165
2.245,0.314
2.250,0.227
2.255,-0.218
2.260,0.128
2.265,0.342
2.270,-0.149
2.275,-0.068
2.280,0.360
2.285,-0.003
2.290,-0.228
2.295,0.259
2.300,0.172
2.305,-0.270
2.310,0.084
2.315,0.291
2.320,-0.206
2.325,-0.119
2.330,0.312
2.335,-0.048
2.340,-0.267
2.345,0.217
2.350,0.128
2.355,-0.308
2.360,0.051
2.365,0.271
2.370,-0.219
2.375,-0.132
2.380,0.299
2.385,-0.061
2.390,-0.267
2.395,0.228
2.400,0.134
2.405,-0.304
2.410,0.058
2.415,0.277
2.420,-0.212
2.425,-0.122
2.430,0.308
2.435,-0.057
2.440,-0.267
2.445,0.225
2.450,0.132
2.455,-0.299
2.460,0.062
2.465,0.271
2.470,-0.221
2.475,-0.129
2.480,0.298
2.485,-0.062
2.490,-0.262
2.495,0.228
2.500,0.126
2.505,-0.302
2.510,0.061
2.515,0.261
2.520,-0.231
2.525,-0.132
2.530,0.293
2.535,-0.069
2.540,-0.270
2.545,0.216
2.550,0.114
2.555,-0.309
2.560,0.059
2.565,0.259
2.570,-0.235
2.575,-0.133
2.580,0.297
2.585,-0.066
2.590,-0.266
2.595,0.223
2.600,0.120
2.605,-0.311
2.610,0.057
2.615,0.258
2.620,-0.235
2.625,-0.129
2.630,0.297
2.635,-0.070
2.640,-0.272
2.645,0.216
2.650,0.119
2.655,-0.306
2.660,0.053
2.665,0.235
2.670,-0.293
2.675,-0.221
2.680,0.200
2.685,-0.170
2.690,-0.383
2.695,0.094
2.700,0.006
2.705,-0.376
2.710,0.013
2.715,0.212
2.720,-0.262
2.725,-0.126
2.730,0.338
2.735,-0.004
2.740,-0.200
2.745,0.295
2.750,0.197
2.755,-0.229
2.760,0.136
2.765,0.341
2.770,-0.148
2.775,-0.053
2.780,0.369
2.785,0.007
2.790,-0.184
2.795,0.298
2.800,0.172
2.805,-0.256
2.810,0.117
2.815,0.320
2.820,-0.152
2.825,-0.075
2.830,0.220
2.835,-0.400
2.840,-0.971
2.845,-0.778
2.850,-0.836
2.855,-0.819
2.860,0.134
2.865,0.682
2.870,0.195
2.875,0.166
2.880,0.495
2.885,0.091
2.890,-0.099
2.895,0.402
2.900,0.293
2.905,-0.141
2.910,0.222
2.915,0.415
2.920,-0.087
2.925,0.010
2.930,0.433
2.935,0.053
2.940,-0.153
2.945,0.335
2.950,0.218
2.955,-0.219
2.960,0.146
2.965,0.336
2.970,-0.164
2.975,-0.062
2.980,0.356
2.985,-0.020
2.990,-0.218
2.995,0.267
3.000,0.151
3.005,-0.282
3.010,0.087
3.015,0.278
3.020,-0.222
3.025,-0.120
3.030,0.298
3.035,-0.080
3.040,-0.283
3.045,0.204
3.050,0.087
3.055,-0.347
3.060,0.027
3.065,0.220
3.070,-0.281
3.075,-0.176
3.080,0.245
3.085,-0.136
3.090,-0.343
3.095,0.136
3.100,0.020
3.105,-0.393
3.110,-0.027
3.115,0.141
3.120,-0.354
3.125,-0.238
3.130,0.179
3.135,-0.199
3.140,-0.394
3.145,0.103
3.150,-0.004
3.155,-0.433
3.160,-0.055
3.165,0.145
3.170,-0.349
3.175,-0.236
3.180,0.192
3.185,-0.174
3.190,-0.354
3.195,0.154
3.200,0.062
3.205,-0.333
3.210,0.068
3.215,0.277
3.220,-0.194
3.225,-0.057
3.230,0.369
3.235,-0.005
3.240,-0.177
3.245,0.324
3.250,0.207
3.255,-0.200
3.260,0.176
3.265,0.342
3.270,-0.146
3.275,-0.011
3.280,0.392
3.285,-0.002
3.290,-0.177
3.295,0.311
3.300,0.176
3.305,-0.237
3.310,0.138
3.315,0.302
3.320,-0.188
3.325,-0.059
3.330,0.342
3.335,-0.050
3.340,-0.223
3.345,0.264
3.350,0.121
3.355,-0.291
3.360,0.099
3.365,0.270
3.370,-0.224
3.375,-0.095
3.380,0.317
3.385,-0.062
3.390,-0.228
3.395,0.263
3.400,0.122
3.405,-0.288
3.410,0.098
3.415,0.265
3.420,-0.218
3.425,-0.079
3.430,0.324
3.435,-0.060
3.440,-0.214
3.445,0.276
3.450,0.133
3.455,-0.266
3.460,0.125
3.465,0.278
3.470,-0.210
3.475,-0.059
3.480,0.336
3.485,-0.059
3.490,-0.212
3.495,0.274
3.500,0.123
3.505,-0.282
3.510,0.105
3.515,0.265
3.520,-0.220
3.525,-0.079
3.530,0.316
3.535,-0.076
3.540,-0.230
3.545,0.260
3.550,0.111
3.555,-0.294
3.560,0.100
3.565,0.257
3.570,-0.243
3.575,-0.098
3.580,0.302
3.585,-0.094
3.590,-0.247
3.595,0.245
3.600,0.094
3.605,-0.307
3.610,0.087
3.615,0.243
3.620,-0.243
3.625,-0.090
3.630,0.299
3.635,-0.099
3.640,-0.247
3.645,0.234
3.650,0.075
3.655,-0.312
3.660,0.087
3.665,0.232
3.670,-0.254
3.675,-0.096
3.680,0.295
3.685,-0.106
3.690,-0.251
3.695,0.238
3.700,0.078
3.705,-0.314
3.710,0.087
3.715,0.231
3.720,-0.258
3.725,-0.100
3.730,0.282
3.735,-0.138
3.740,-0.305
3.745,0.162
3.750,-0.022
3.755,-0.433
3.760,-0.031
3.765,0.124
3.770,-0.339
3.775,-0.148
3.780,0.251
3.785,-0.143
3.790,-0.258
3.795,0.266
3.800,0.134
3.805,-0.247
3.810,0.154
3.815,0.297
3.820,-0.187
3.825,-0.014
3.830,0.381
3.835,-0.036
3.840,-0.187
3.845,0.301
3.850,0.130
3.855,-0.267
3.860,0.141
3.865,0.282
3.870,-0.220
3.875,-0.060
3.880,0.343
3.885,-0.052
3.890,-0.224
3.895,0.138
3.900,-0.296
3.905,-1.054
3.910,-0.908
3.915,-0.693
3.920,-0.723
3.925,0.034
3.930,0.739
3.935,0.295
3.940,0.024
3.945,0.438
3.950,0.236
3.955,-0.153
3.960,0.263
3.965,0.392
3.970,-0.109
3.975,0.059
3.980,0.445
3.985,0.025
3.990,-0.115
3.995,0.377
4.000,0.187
4.005,-0.220
4.010,0.191
4.015,0.326
4.020,-0.178
4.025,-0.009
4.030,0.380
4.035,-0.045
4.040,-0.190
4.045,0.301
4.050,0.125
4.055,-0.264
4.060,0.148
4.065,0.270
4.070,-0.232
4.075,-0.055
4.080,0.333
4.085,-0.095
4.090,-0.235
4.095,0.265
4.100,0.081
4.105,-0.327
4.110,0.096
4.115,0.237
4.120,-0.274
4.125,-0.107
4.130,0.286
4.135,-0.140
4.140,-0.285
4.145,0.209
4.150,0.028
4.155,-0.382
4.160,0.028
4.165,0.169
4.170,-0.342
4.175,-0.176
4.180,0.215
4.185,-0.216
4.190,-0.356
4.195,0.156
4.200,-0.020
4.205,-0.426
4.210,-0.002
4.215,0.142
4.220,-0.371
4.225,-0.191
4.230,0.223
4.235,-0.202
4.240,-0.345
4.245,0.175
4.250,0.013
4.255,-0.377
4.260,0.072
4.265,0.233
4.270,-0.269
4.275,-0.070
4.280,0.362
4.285,-0.049
4.290,-0.174
4.295,0.355
4.300,0.181
4.305,-0.219
4.310,0.223
4.315,0.367
4.320,-0.155
4.325,0.025
4.330,0.427
4.335,-0.014
4.340,-0.154
4.345,0.360
4.350,0.167
4.355,-0.241
4.360,0.193
4.365,0.326
4.370,-0.199
4.375,-0.019
4.380,0.381
4.385,-0.061
4.390,-0.203
4.395,0.310
4.400,0.121
4.405,-0.286
4.410,0.146
4.415,0.266
4.420,-0.261
4.425,-0.068
4.430,0.337
4.435,-0.105
4.440,-0.245
4.445,0.274
4.450,0.090
4.455,-0.316
4.460,0.121
4.465,0.259
4.470,-0.261
4.475,-0.069
4.480,0.332
4.485,-0.111
4.490,-0.232
4.495,0.292
4.500,0.090
4.505,-0.320
4.510,0.123
4.515,0.254
4.520,-0.267
4.525,-0.069
4.530,0.337
4.535,-0.102
4.540,-0.228
4.545,0.288
4.550,0.091
4.555,-0.307
4.560,0.140
4.565,0.264
4.570,-0.264
4.575,-0.069
4.580,0.330
4.585,-0.118
4.590,-0.246
4.595,0.278
4.600,0.081
4.605,-0.328
4.610,0.113
4.615,0.244
4.620,-0.281
4.625,-0.080
4.630,0.324
4.635,-0.125
4.640,-0.245
4.645,0.271
4.650,0.059
4.655,-0.333
4.660,0.119
4.665,0.234
4.670,-0.286
4.675,-0.089
4.680,0.299
4.685,-0.148
4.690,-0.277
4.695,0.250
4.700,0.068
4.705,-0.333
4.710,0.110
4.715,0.230
4.720,-0.294
4.725,-0.093
4.730,0.290
4.735,-0.173
4.740,-0.311
4.745,0.180
4.750,-0.045
4.755,-0.443
4.760,0.002
4.765,0.125
4.770,-0.363
4.775,-0.134
4.780,0.259
4.785,-0.179
4.790,-0.251
4.795,0.317
4.800,0.122
4.805,-0.266
4.810,0.192
4.815,0.298
4.820,-0.218
4.825,0.003
4.830,0.378
4.835,-0.081
4.840,-0.174
4.845,0.339
4.850,0.106
4.855,-0.281
4.860,0.170
4.865,0.264
4.870,-0.252
4.875,-0.018
4.880,0.381
4.885,-0.088
4.890,-0.275
4.895,0.027
4.900,-0.557
4.905,-1.274
4.910,-0.876
4.915,-0.441
4.920,-0.364
4.925,0.301
4.930,0.752
4.935,0.175
4.940,-0.024
4.945,0.442
4.950,0.201
4.955,-0.163
4.960,0.298
4.965,0.380
4.970,-0.132
4.975,0.096
4.980,0.448
4.985,-0.026
4.990,-0.120
4.995,0.386
5.000,0.151
5.005,-0.221
5.010,0.232
5.015,0.297
5.020,-0.220
5.025,0.023
5.030,0.385
5.035,-0.082
5.040,-0.164
5.045,0.338
5.050,0.092
5.055,-0.275
5.060,0.186
5.065,0.253
5.070,-0.268
5.075,-0.032
5.080,0.327
5.085,-0.143
5.090,-0.222
5.095,0.283
5.100,0.034
5.105,-0.334
5.110,0.125
5.115,0.194
5.120,-0.322
5.125,-0.084
5.130,0.276
5.135,-0.194
5.140,-0.276
5.145,0.230
5.150,-0.013
5.155,-0.383
5.160,0.073
5.165,0.142
5.170,-0.378
5.175,-0.143
5.180,0.217
5.185,-0.256
5.190,-0.333
5.195,0.181
5.200,-0.063
5.205,-0.426
5.210,0.041
5.215,0.113
5.220,-0.395
5.225,-0.145
5.230,0.216
5.235,-0.246
5.240,-0.311
5.245,0.204
5.250,-0.025
5.255,-0.357
5.260,0.127
5.265,0.208
5.270,-0.274
5.275,0.005
5.280,0.371
5.285,-0.089
5.290,-0.134
5.295,0.385
5.300,0.138
5.305,-0.213
5.310,0.261
5.315,0.329
5.320,-0.185
5.325,0.063
5.330,0.416
5.335,-0.057
5.340,-0.129
5.345,0.372
5.350,0.115
5.355,-0.243
5.360,0.223
5.365,0.279
5.370,-0.240
5.375,0.004
5.380,0.350
5.385,-0.128
5.390,-0.197
5.395,0.305
5.400,0.047
5.405,-0.305
5.410,0.166
5.415,0.218
5.420,-0.296
5.425,-0.041
5.430,0.312
5.435,-0.159
5.440,-0.217
5.445,0.289
5.450,0.032
5.455,-0.321
5.460,0.150
5.465,0.209
5.470,-0.301
5.475,-0.043
5.480,0.310
5.485,-0.167
5.490,-0.232
5.495,0.280
5.500,0.033
5.505,-0.324
5.510,0.147
5.515,0.219
5.520,-0.293
5.525,-0.041
5.530,0.324
5.535,-0.144
5.540,-0.215
5.545,0.293
5.550,0.043
5.555,-0.317
5.560,0.155
5.565,0.227
5.570,-0.284
5.575,-0.034
5.580,0.320
5.585,-0.150
5.590,-0.213
5.595,0.297
5.600,0.042
5.605,-0.311
5.610,0.164
5.615,0.226
5.620,-0.286
5.625,-0.031
5.630,0.322
5.635,-0.151
5.640,-0.209
5.645,0.301
5.650,0.042
5.655,-0.306
5.660,0.169
5.665,0.223
5.670,-0.288
5.675,-0.028
5.680,0.318
5.685,-0.159
5.690,-0.210
5.695,0.300
5.700,0.034
5.705,-0.315
5.710,0.167
5.715,0.226
5.720,-0.284
5.725,-0.023
5.730,0.321
5.735,-0.163
5.740,-0.230
5.745,0.262
5.750,-0.022
5.755,-0.398
5.760,0.056
5.765,0.100
5.770,-0.409
5.775,-0.128
5.780,0.250
5.785,-0.215
5.790,-0.267
5.795,0.261
5.800,0.036
5.805,-0.273
5.810,0.224
5.815,0.279
5.820,-0.229
5.825,0.035
5.830,0.384
5.835,-0.093
5.840,-0.147
5.845,0.360
5.850,0.094
5.855,-0.255
5.860,0.220
5.865,0.267
5.870,-0.246
5.875,0.014
5.880,0.352
5.885,-0.121
5.890,-0.150
5.895,0.347
5.900,-0.007
5.905,-0.545
5.910,-0.411
5.915,-0.718
5.920,-1.323
5.925,-0.754
5.930,0.187
5.935,0.190
5.940,0.244
5.945,0.629
5.950,0.249
5.955,-0.144
5.960,0.323
5.965,0.378
5.970,-0.125
5.975,0.136
5.980,0.465
5.985,-0.021
5.990,-0.065
5.995,0.435
6.000,0.157
6.005,-0.191
6.010,0.279
6.015,0.316
6.020,-0.195
6.025,0.066
6.030,0.397
6.035,-0.091
6.040,-0.141
6.045,0.359
6.050,0.081
6.055,-0.264
6.060,0.215
6.065,0.250
6.070,-0.265
6.075,0.003
6.080,0.340
6.085,-0.142
6.090,-0.185
6.095,0.313
6.100,0.035
6.105,-0.303
6.110,0.172
6.115,0.204
6.120,-0.299
6.125,-0.027
6.130,0.290
6.135,-0.203
6.140,-0.236
6.145,0.262
6.150,-0.023
6.155,-0.351
6.160,0.126
6.165,0.143
6.170,-0.369
6.175,-0.093
6.180,0.227
6.185,-0.263
6.190,-0.289
6.195,0.205
6.200,-0.089
6.205,-0.413
6.210,0.073
6.215,0.095
6.220,-0.403
6.225,-0.117
6.230,0.203
6.235,-0.282
6.240,-0.301
6.245,0.202
6.250,-0.079
6.255,-0.389
6.260,0.110
6.265,0.144
6.270,-0.334
6.275,-0.028
6.280,0.311
6.285,-0.150
6.290,-0.149
6.295,0.365
6.300,0.091
6.305,-0.218
6.310,0.277
6.315,0.296
6.320,-0.202
6.325,0.087
6.330,0.403
6.335,-0.081
6.340,-0.099
6.345,0.391
6.350,0.094
6.355,-0.226
6.360,0.255
6.365,0.261
6.370,-0.242
6.375,0.045
6.380,0.353
6.385,-0.139
6.390,-0.153
6.395,0.336
6.400,0.040
6.405,-0.277
6.410,0.200
6.415,0.207
6.420,-0.288
6.425,0.003
6.430,0.310
6.435,-0.182
6.440,-0.198
6.445,0.297
6.450,0.005
6.455,-0.309
6.460,0.179
6.465,0.191
6.470,-0.305
6.475,-0.010
6.480,0.302
6.485,-0.186
6.490,-0.195
6.495,0.298
6.500,0.002
6.505,-0.305
6.510,0.184
6.515,0.192
6.520,-0.303
6.525,-0.001
6.530,0.311
6.535,-0.183
6.540,-0.186
6.545,0.306
6.550,0.000
6.555,-0.302
6.560,0.190
6.565,0.189
6.570,-0.301
6.575,0.003
6.580,0.305
6.585,-0.183
6.590,-0.181
6.595,0.309
6.600,0.004
6.605,-0.299
6.610,0.189
6.615,0.185
6.620,-0.304
6.625,0.002
6.630,0.298
6.635,-0.194
6.640,-0.186
6.645,0.303
6.650,-0.005
6.655,-0.302
6.660,0.191
6.665,0.180
6.670,-0.312
6.675,-0.003
6.680,0.300
6.685,-0.194
6.690,-0.195
6.695,0.295
6.700,-0.011
6.705,-0.313
6.710,0.177
6.715,0.171
6.720,-0.322
6.725,-0.018
6.730,0.288
6.735,-0.204
6.740,-0.202
6.745,0.292
6.750,-0.014
6.755,-0.319
6.760,0.173
6.765,0.174
6.770,-0.318
6.775,-0.011
6.780,0.294
6.785,-0.199
6.790,-0.195
6.795,0.299
6.800,-0.010
6.805,-0.326
6.810,0.166
6.815,0.180
6.820,-0.316
6.825,-0.019
6.830,0.294
6.835,-0.209
6.840,-0.238
6.845,0.233
6.850,-0.089
6.855,-0.410
6.860,0.090
6.865,0.111
6.870,-0.387
6.875,-0.080
6.880,0.252
6.885,-0.224
6.890,-0.201
6.895,0.339
6.900,0.053
6.905,-0.274
6.910,0.225
6.915,0.247
6.920,-0.264
6.925,0.031
6.930,0.359
6.935,-0.132
6.940,-0.145
6.945,0.350
6.950,0.044
6.955,-0.268
6.960,0.223
6.965,0.225
6.970,-0.261
6.975,0.063
6.980,0.346
6.985,-0.269
6.990,-0.508
6.995,-0.376
7.000,-0.988
7.005,-1.288
7.010,-0.390
7.015,0.213
7.020,0.098
7.025,0.421
7.030,0.598
7.035,0.009
7.040,-0.026
7.045,0.468
7.050,0.168
7.055,-0.135
7.060,0.360
7.065,0.352
7.070,-0.154
7.075,0.146
7.080,0.445
7.085,-0.055
7.090,-0.058
7.095,0.426
7.100,0.107
7.105,-0.198
7.110,0.294
7.115,0.277
7.120,-0.223
7.125,0.084
7.130,0.376
7.135,-0.130
7.140,-0.131
7.145,0.359
7.150,0.046
7.155,-0.261
7.160,0.230
7.165,0.223
7.170,-0.278
7.175,0.025
7.180,0.327
7.185,-0.176
7.190,-0.179
7.195,0.314
7.200,-0.001
7.205,-0.309
7.210,0.188
7.215,0.175
7.220,-0.333
7.225,-0.027
7.230,0.269
7.235,-0.243
7.240,-0.250
7.245,0.246
7.250,-0.062
7.255,-0.375
7.260,0.119
7.265,0.114
7.270,-0.384
7.275,-0.073
7.280,0.219
7.285,-0.288
7.290,-0.282
7.295,0.210
7.300,-0.101
7.305,-0.400
7.310,0.100
7.315,0.095
7.320,-0.403
7.325,-0.090
7.330,0.212
7.335,-0.284
7.340,-0.263
7.345,0.244
7.350,-0.058
7.355,-0.335
7.360,0.186
7.365,0.193
7.370,-0.279
7.375,0.058
7.380,0.372
7.385,-0.111
7.390,-0.083
7.395,0.411
7.400,0.092
7.405,-0.192
7.410,0.312
7.415,0.287
7.420,-0.205
7.425,0.114
7.430,0.392
7.435,-0.112
7.440,-0.087
7.445,0.394
7.450,0.064
7.455,-0.226
7.460,0.268
7.465,0.236
7.470,-0.269
7.475,0.041
7.480,0.341
7.485,-0.162
7.490,-0.166
7.495,0.325
7.500,0.014
7.505,-0.298
7.510,0.199
7.515,0.200
7.520,-0.298
7.525,0.013
7.530,0.314
7.535,-0.194
7.540,-0.192
7.545,0.306
7.550,0.002
7.555,-0.285
7.560,0.208
7.565,0.179
7.570,-0.306
7.575,0.026
7.580,0.311
7.585,-0.194
7.590,-0.171
7.595,0.317
7.600,-0.010
7.605,-0.307
7.610,0.199
7.615,0.191
7.620,-0.311
7.625,0.001
7.630,0.308
7.635,-0.198
7.640,-0.194
7.645,0.314
7.650,0.005
7.655,-0.309
7.660,0.192
7.665,0.192
7.670,-0.314
7.675,-0.005
7.680,0.309
7.685,-0.189
7.690,-0.188
7.695,0.313
7.700,-0.001
7.705,-0.317
7.710,0.191
7.715,0.199
7.720,-0.313
7.725,-0.007
7.730,0.306
7.735,-0.200
7.740,-0.199
7.745,0.307
7.750,-0.005
7.755,-0.311
7.760,0.194
7.765,0.185
7.770,-0.320
7.775,-0.001
7.780,0.306
7.785,-0.204
7.790,-0.199
7.795,0.302
7.800,-0.019
7.805,-0.323
7.810,0.185
7.815,0.172
7.820,-0.328
7.825,0.001
7.830,0.301
7.835,-0.213
7.840,-0.204
7.845,0.296
7.850,-0.023
7.855,-0.323
7.860,0.189
7.865,0.176
7.870,-0.330
7.875,-0.010
7.880,0.281
7.885,-0.247
7.890,-0.249
7.895,0.233
7.900,-0.106
7.905,-0.405
7.910,0.114
7.915,0.106
7.920,-0.388
7.925,-0.055
7.930,0.258
7.935,-0.216
7.940,-0.160
7.945,0.351
7.950,0.028
7.955,-0.269
7.960,0.238
7.965,0.225
7.970,-0.269
7.975,0.057
7.980,0.349
7.985,-0.162
7.990,-0.143
7.995,0.351
8.000,0.019
8.005,-0.278
8.010,0.233
8.015,0.215
8.020,-0.264
8.025,0.070
8.030,0.297
8.035,-0.380
8.040,-0.662
8.045,-0.531
8.050,-1.035
8.055,-1.126
8.060,-0.089
8.065,0.423
8.070,0.136
8.075,0.380
8.080,0.544
8.085,-0.031
8.090,-0.024
8.095,0.474
8.100,0.145
8.105,-0.148
8.110,0.355
8.115,0.321
8.120,-0.183
8.125,0.142
8.130,0.423
8.135,-0.097
8.140,-0.078
8.145,0.411
8.150,0.073
8.155,-0.225
8.160,0.279
8.165,0.252
8.170,-0.246
8.175,0.079
8.180,0.362
8.185,-0.154
8.190,-0.129
8.195,0.359
8.200,0.019
8.205,-0.271
8.210,0.235
8.215,0.200
8.220,-0.295
8.225,0.038
8.230,0.320
8.235,-0.199
8.240,-0.175
8.245,0.312
8.250,-0.026
8.255,-0.313
8.260,0.193
8.265,0.154
8.270,-0.345
8.275,-0.012
8.280,0.267
8.285,-0.256
8.290,-0.233
8.295,0.253
8.300,-0.088
8.305,-0.380
8.310,0.128
8.315,0.092
8.320,-0.411
8.325,-0.074
8.330,0.215
8.335,-0.301
8.340,-0.269
8.345,0.221
8.350,-0.121
8.355,-0.401
8.360,0.118
8.365,0.083
8.370,-0.415
8.375,-0.076
8.380,0.213
8.385,-0.296
8.390,-0.253
8.395,0.256
8.400,-0.062
8.405,-0.321
8.410,0.215
8.415,0.199
8.420,-0.272
8.425,0.092
8.430,0.388
8.435,-0.117
8.440,-0.069
8.445,0.427
8.450,0.090
8.455,-0.187
8.460,0.321
8.465,0.280
8.470,-0.197
8.475,0.147
8.480,0.404
8.485,-0.120
8.490,-0.086
8.495,0.387
8.500,0.042
8.505,-0.232
8.510,0.280
8.515,0.234
8.520,-0.250
8.525,0.092
8.530,0.343
8.535,-0.180
8.540,-0.126
8.545,0.348
8.550,-0.012
8.555,-0.275
8.560,0.238
8.565,0.179
8.570,-0.302
8.575,0.049
8.580,0.302
8.585,-0.214
8.590,-0.152
8.595,0.319
8.600,-0.043
8.605,-0.296
8.610,0.226
8.615,0.164
8.620,-0.313
8.625,0.049
8.630,0.305
8.635,-0.217
8.640,-0.157
8.645,0.320
8.650,-0.033
8.655,-0.285
8.660,0.226
8.665,0.160
8.670,-0.316
8.675,0.045
8.680,0.301
8.685,-0.214
8.690,-0.150
8.695,0.323
8.700,-0.039
8.705,-0.290
8.710,0.226
8.715,0.156
8.720,-0.318
8.725,0.047
8.730,0.302
8.735,-0.219
8.740,-0.158
8.745,0.318
8.750,-0.041
8.755,-0.291
8.760,0.218
8.765,0.141
8.770,-0.321
8.775,0.054
8.780,0.293
8.785,-0.228
8.790,-0.149
8.795,0.313
8.800,-0.058
8.805,-0.295
8.810,0.219
8.815,0.133
8.820,-0.329
8.825,0.048
8.830,0.279
8.835,-0.237
8.840,-0.146
8.845,0.312
8.850,-0.070
8.855,-0.312
8.860,0.204
8.865,0.126
8.870,-0.328
8.875,0.048
8.880,0.271
8.885,-0.249
8.890,-0.154
8.895,0.305
8.900,-0.075
8.905,-0.297
8.910,0.214
8.915,0.103
8.920,-0.366
8.925,-0.002
8.930,0.192
8.935,-0.338
8.940,-0.229
8.945,0.232
8.950,-0.155
8.955,-0.367
8.960,0.164
8.965,0.084
8.970,-0.329
8.975,0.081
8.980,0.306
8.985,-0.205
8.990,-0.101
8.995,0.353
9.000,-0.027
9.005,-0.243
9.010,0.274
9.015,0.169
9.020,-0.291
9.025,0.085
9.030,0.304
9.035,-0.211
9.040,-0.114
9.045,0.336
9.050,-0.042
9.055,-0.243
9.060,0.257
9.065,0.054
9.070,-0.607
9.075,-0.574
9.080,-0.690
9.085,-1.243
9.090,-0.784
9.095,0.254
9.100,0.302
9.105,0.151
9.110,0.542
9.115,0.332
9.120,-0.165
9.125,0.213
9.130,0.435
9.135,-0.082
9.140,0.019
9.145,0.462
9.150,0.067
9.155,-0.153
9.160,0.359
9.165,0.245
9.170,-0.211
9.175,0.170
9.180,0.373
9.185,-0.153
9.190,-0.050
9.195,0.395
9.200,0.001
9.205,-0.219
9.210,0.294
9.215,0.184
9.220,-0.270
9.225,0.113
9.230,0.320
9.235,-0.207
9.240,-0.105
9.245,0.348
9.250,-0.045
9.255,-0.269
9.260,0.250
9.265,0.146
9.270,-0.309
9.275,0.074
9.280,0.278
9.285,-0.248
9.290,-0.143
9.295,0.301
9.300,-0.095
9.305,-0.316
9.310,0.194
9.315,0.081
9.320,-0.371
9.325,0.015
9.330,0.217
9.335,-0.310
9.340,-0.202
9.345,0.240
9.350,-0.161
9.355,-0.373
9.360,0.146
9.365,0.028
9.370,-0.424
9.375,-0.029
9.380,0.180
9.385,-0.344
9.390,-0.231
9.395,0.223
9.400,-0.165
9.405,-0.374
9.410,0.148
9.415,0.042
9.420,-0.403
9.425,0.001
9.430,0.234
9.435,-0.268
9.440,-0.136
9.445,0.339
9.450,-0.032
9.455,-0.225
9.460,0.313
9.465,0.215
9.470,-0.226
9.475,0.174
9.480,0.386
9.485,-0.134
9.490,-0.018
9.495,0.432
9.500,0.036
9.505,-0.175
9.510,0.343
9.515,0.226
9.520,-0.230
9.525,0.161
9.530,0.363
9.535,-0.165
9.540,-0.052
9.545,0.392
9.550,-0.014
9.555,-0.227
9.560,0.289
9.565,0.165
9.570,-0.287
9.575,0.104
9.580,0.301
9.585,-0.224
9.590,-0.108
9.595,0.338
9.600,-0.059
9.605,-0.268
9.610,0.248
9.615,0.129
9.620,-0.317
9.625,0.085
9.630,0.285
9.635,-0.241
9.640,-0.114
9.645,0.335
9.650,-0.065
9.655,-0.261
9.660,0.257
9.665,0.123
9.670,-0.315
9.675,0.093
9.680,0.285
9.685,-0.239
9.690,-0.107
9.695,0.340
9.700,-0.066
9.705,-0.266
9.710,0.257
9.715,0.130
9.720,-0.311
9.725,0.093
9.730,0.282
9.735,-0.247
9.740,-0.115
9.745,0.325
9.750,-0.082
9.755,-0.270
9.760,0.253
9.765,0.120
9.770,-0.320
9.775,0.086
9.780,0.278
9.785,-0.245
9.790,-0.114
9.795,0.324
9.800,-0.084
9.805,-0.274
9.810,0.247
9.815,0.114
9.820,-0.324
9.825,0.077
9.830,0.264
9.835,-0.260
9.840,-0.129
9.845,0.312
9.850,-0.090
9.855,-0.280
9.860,0.241
9.865,0.108
9.870,-0.332
9.875,0.073
9.880,0.261
9.885,-0.262
9.890,-0.124
9.895,0.313
9.900,-0.095
9.905,-0.279
9.910,0.239
9.915,0.099
9.920,-0.334
9.925,0.077
9.930,0.259
9.935,-0.266
9.940,-0.125
9.945,0.309
9.950,-0.101
9.955,-0.276
9.960,0.243
9.965,0.085
9.970,-0.363
9.975,0.033
9.980,0.190
9.985,-0.349
9.990,-0.201
9.995,0.241
10.000,-0.171
10.005,-0.341
10.010,0.192
10.015,0.056
10.020,-0.335
10.025,0.125
10.030,0.310
10.035,-0.217
10.040,-0.067
10.045,0.363
10.050,-0.049
10.055,-0.222
10.060,0.298
10.065,0.149
10.070,-0.283
10.075,0.124
10.080,0.294
10.085,-0.227
10.090,-0.075
10.095,0.354
10.100,-0.064
10.105,-0.223
10.110,0.308
10.115,0.100
10.120,-0.485
10.125,-0.359
10.130,-0.556
10.135,-1.287
10.140,-0.975
10.145,-0.025
10.150,0.119
10.155,0.186
10.160,0.636
10.165,0.351
10.170,-0.143
10.175,0.254
10.180,0.425
10.185,-0.090
10.190,0.064
10.195,0.479
10.200,0.050
10.205,-0.124
10.210,0.390
10.215,0.227
10.220,-0.208
10.225,0.204
10.230,0.366
10.235,-0.161
10.240,-0.009
10.245,0.409
10.250,-0.021
10.255,-0.191
10.260,0.330
10.265,0.170
10.270,-0.258
10.275,0.153
10.280,0.305
10.285,-0.219
10.290,-0.057
10.295,0.361
10.300,-0.067
10.305,-0.231
10.310,0.284
10.315,0.114
10.320,-0.311
10.325,0.108
10.330,0.261
10.335,-0.264
10.340,-0.107
10.345,0.308
10.350,-0.118
10.355,-0.285
10.360,0.226
10.365,0.058
10.370,-0.367
10.375,0.045
10.380,0.198
10.385,-0.326
10.390,-0.167
10.395,0.247
10.400,-0.187
10.405,-0.355
10.410,0.163
10.415,-0.004
10.420,-0.428
10.425,-0.005
10.430,0.153
10.435,-0.366
10.440,-0.197
10.445,0.222
10.450,-0.200
10.455,-0.350
10.460,0.171
10.465,0.004
10.470,-0.406
10.475,0.031
10.480,0.198
10.485,-0.300
10.490,-0.106
10.495,0.329
10.500,-0.080
10.505,-0.207
10.510,0.330
10.515,0.167
10.520,-0.234
10.525,0.206
10.530,0.360
10.535,-0.160
10.540,0.013
10.545,0.430
10.550,0.001
10.555,-0.153
10.560,0.363
10.565,0.187
10.570,-0.231
10.575,0.193
10.580,0.340
10.585,-0.191
10.590,-0.032
10.595,0.376
10.600,-0.054
10.605,-0.201
10.610,0.312
10.615,0.126
10.620,-0.287
10.625,0.144
10.630,0.279
10.635,-0.247
10.640,-0.067
10.645,0.336
10.650,-0.105
10.655,-0.246
10.660,0.274
10.665,0.088
10.670,-0.320
10.675,0.118
10.680,0.255
10.685,-0.265
10.690,-0.079
10.695,0.326
10.700,-0.111
10.705,-0.247
10.710,0.272
10.715,0.085
10.720,-0.315
10.725,0.124
10.730,0.258
10.735,-0.263
10.740,-0.080
10.745,0.326
10.750,-0.111
10.755,-0.253
10.760,0.268
10.765,0.086
10.770,-0.321
10.775,0.115
10.780,0.252
10.785,-0.268
10.790,-0.081
10.795,0.326
10.800,-0.115
10.805,-0.252
10.810,0.272
10.815,0.086
10.820,-0.325
10.825,0.112
10.830,0.251
10.835,-0.267
10.840,-0.080
10.845,0.321
10.850,-0.120
10.855,-0.251
10.860,0.272
10.865,0.080
10.870,-0.325
10.875,0.113
10.880,0.246
10.885,-0.278
10.890,-0.090
10.895,0.316
10.900,-0.121
10.905,-0.258
10.910,0.258
10.915,0.071
10.920,-0.332
10.925,0.108
10.930,0.240
10.935,-0.284
10.940,-0.095
10.945,0.308
10.950,-0.133
10.955,-0.262
10.960,0.260
10.965,0.064
10.970,-0.336
10.975,0.107
10.980,0.230
10.985,-0.285
10.990,-0.086
10.995,0.306
11.000,-0.139
11.005,-0.265
11.010,0.258
11.015,0.065
11.020,-0.338
11.025,0.100
11.030,0.215
11.035,-0.317
11.040,-0.137
11.045,0.236
11.050,-0.227
11.055,-0.348
11.060,0.188
11.065,-0.002
11.070,-0.398
11.075,0.058
11.080,0.198
11.085,-0.285
11.090,-0.040
11.095,0.367
11.100,-0.084
11.105,-0.206
11.110,0.316
11.115,0.124
11.120,-0.270
11.125,0.171
11.130,0.293
11.135,-0.228
11.140,-0.032
11.145,0.362
11.150,-0.086
11.155,-0.206
11.160,0.311
11.165,0.104
11.170,-0.278
11.175,0.187
11.180,0.265
11.185,-0.391
11.190,-0.453
11.195,-0.433
11.200,-1.135
11.205,-1.160
11.210,-0.177
11.215,0.200
11.220,0.112
11.225,0.526
11.230,0.509
11.235,-0.093
11.240,0.088
11.245,0.484
11.250,0.040
11.255,-0.075
11.260,0.440
11.265,0.222
11.270,-0.178
11.275,0.265
11.280,0.367
11.285,-0.160
11.290,0.046
11.295,0.428
11.300,-0.036
11.305,-0.158
11.310,0.358
11.315,0.146
11.320,-0.246
11.325,0.200
11.330,0.305
11.335,-0.221
11.340,-0.014
11.345,0.371
11.350,-0.084
11.355,-0.198
11.360,0.313
11.365,0.095
11.370,-0.296
11.375,0.151
11.380,0.253
11.385,-0.266
11.390,-0.056
11.395,0.323
11.400,-0.132
11.405,-0.242
11.410,0.269
11.415,0.051
11.420,-0.341
11.425,0.106
11.430,0.205
11.435,-0.324
11.440,-0.116
11.445,0.262
11.450,-0.196
11.455,-0.304
11.460,0.205
11.465,-0.018
11.470,-0.404
11.475,0.048
11.480,0.144
11.485,-0.377
11.490,-0.159
11.495,0.220
11.500,-0.238
11.505,-0.335
11.510,0.186
11.515,-0.034
11.520,-0.420
11.525,0.040
11.530,0.147
11.535,-0.369
11.540,-0.137
11.545,0.264
11.550,-0.177
11.555,-0.257
11.560,0.284
11.565,0.085
11.570,-0.275
11.575,0.198
11.580,0.309
11.585,-0.196
11.590,0.037
11.595,0.427
11.600,-0.026
11.605,-0.122
11.610,0.395
11.615,0.168
11.620,-0.212
11.625,0.248
11.630,0.336
11.635,-0.185
11.640,0.044
11.645,0.413
11.650,-0.058
11.655,-0.160
11.660,0.350
11.665,0.118
11.670,-0.266
11.675,0.188
11.680,0.279
11.685,-0.239
11.690,-0.019
11.695,0.352
11.700,-0.112
11.705,-0.211
11.710,0.300
11.715,0.071
11.720,-0.312
11.725,0.142
11.730,0.234
11.735,-0.280
11.740,-0.050
11.745,0.323
11.750,-0.140
11.755,-0.227
11.760,0.290
11.765,0.057
11.770,-0.315
11.775,0.150
11.780,0.237
11.785,-0.282
11.790,-0.051
11.795,0.318
11.800,-0.145
11.805,-0.227
11.810,0.289
11.815,0.054
11.820,-0.313
11.825,0.152
11.830,0.232
11.835,-0.285
11.840,-0.049
11.845,0.320
11.850,-0.143
11.855,-0.223
11.860,0.287
11.865,0.046
11.870,-0.322
11.875,0.142
11.880,0.224
11.885,-0.291
11.890,-0.055
11.895,0.314
11.900,-0.152
11.905,-0.234
11.910,0.285
11.915,0.049
11.920,-0.321
11.925,0.143
11.930,0.219
11.935,-0.296
11.940,-0.055
11.945,0.312
11.950,-0.151
11.955,-0.227
11.960,0.280
11.965,0.034
11.970,-0.327
11.975,0.142
11.980,0.214
11.985,-0.302
11.990,-0.058
11.995,0.304
12.000,-0.168
12.005,-0.241
12.010,0.274
12.015,0.029
12.020,-0.334
12.025,0.136
12.030,0.209
12.035,-0.306
12.040,-0.062
12.045,0.301
12.050,-0.167
12.055,-0.241
12.060,0.271
12.065,0.030
12.070,-0.328
12.075,0.134
12.080,0.199
12.085,-0.312
12.090,-0.066
12.095,0.283
12.100,-0.200
12.105,-0.286
12.110,0.205
12.115,-0.053
12.120,-0.407
12.125,0.073
12.130,0.142
12.135,-0.362
12.140,-0.102
12.145,0.261
12.150,-0.170
12.155,-0.191
12.160,0.325
12.165,0.071
12.170,-0.278
12.175,0.196
12.180,0.259
12.185,-0.248
12.190,0.009
12.195,0.360
12.200,-0.120
12.205,-0.186
12.210,0.321
12.215,0.067
12.220,-0.289
12.225,0.177
12.230,0.241
12.235,-0.249
12.240,0.012
12.245,0.300
12.250,-0.339
12.255,-0.701
12.260,-0.555
12.265,-0.974
12.270,-1.107
12.275,-0.105
12.280,0.470
12.285,0.153
12.290,0.324
12.295,0.552
12.300,0.009
12.305,-0.079
12.310,0.433
12.315,0.186
12.320,-0.168
12.325,0.301
12.330,0.354
12.335,-0.166
12.340,0.085
12.345,0.428
12.350,-0.056
12.355,-0.120
12.360,0.380
12.365,0.115
12.370,-0.240
12.375,0.224
12.380,0.271
12.385,-0.238
12.390,0.023
12.395,0.366
12.400,-0.115
12.405,-0.171
12.410,0.337
12.415,0.071
12.420,-0.285
12.425,0.186
12.430,0.234
12.435,-0.280
12.440,-0.017
12.445,0.331
12.450,-0.148
12.455,-0.206
12.460,0.300
12.465,0.034
12.470,-0.324
12.475,0.141
12.480,0.188
12.485,-0.325
12.490,-0.063
12.495,0.279
12.500,-0.204
12.505,-0.260
12.510,0.240
12.515,-0.033
12.520,-0.388
12.525,0.083
12.530,0.128
12.535,-0.386
12.540,-0.121
12.545,0.216
12.550,-0.272
12.555,-0.316
12.560,0.196
12.565,-0.071
12.570,-0.411
12.575,0.068
12.580,0.115
12.585,-0.389
12.590,-0.115
12.595,0.231
12.600,-0.242
12.605,-0.275
12.610,0.244
12.615,-0.011
12.620,-0.326
12.625,0.182
12.630,0.248
12.635,-0.243
12.640,0.042
12.645,0.398
12.650,-0.071
12.655,-0.105
12.660,0.409
12.665,0.141
12.670,-0.195
12.675,0.288
12.680,0.324
12.685,-0.189
12.690,0.080
12.695,0.417
12.700,-0.064
12.705,-0.111
12.710,0.385
12.715,0.103
12.720,-0.247
12.725,0.226
12.730,0.266
12.735,-0.252
12.740,0.011
12.745,0.354
12.750,-0.129
12.755,-0.180
12.760,0.322
12.765,0.043
12.770,-0.305
12.775,0.180
12.780,0.223
12.785,-0.290
12.790,-0.015
12.795,0.323
12.800,-0.168
12.805,-0.211
12.810,0.298
12.815,0.023
12.820,-0.312
12.825,0.174
12.830,0.212
12.835,-0.291
12.840,-0.011
12.845,0.317
12.850,-0.173
12.855,-0.200
12.860,0.309
12.865,0.027
12.870,-0.304
12.875,0.181
12.880,0.210
12.885,-0.296
12.890,-0.014
12.895,0.318
12.900,-0.167
12.905,-0.195
12.910,0.310
12.915,0.027
12.920,-0.306
12.925,0.178
12.930,0.207
12.935,-0.299
12.940,-0.017
12.945,0.309
12.950,-0.185
12.955,-0.213
12.960,0.303
12.965,0.027
12.970,-0.305
12.975,0.176
12.980,0.197
12.985,-0.319
12.990,-0.041
12.995,0.286
13.000,-0.208
13.005,-0.245
13.010,0.249
13.015,-0.039
13.020,-0.357
13.025,0.128
13.030,0.135
13.035,-0.378
13.040,-0.095
13.045,0.242
13.050,-0.231
13.055,-0.253
13.060,0.249
13.065,-0.035
13.070,-0.353
13.075,0.136
13.080,0.160
13.085,-0.317
13.090,-0.009
13.095,0.315
13.100,-0.159
13.105,-0.166
13.110,0.326
13.115,0.024
13.120,-0.300
13.125,0.199
13.130,0.224
13.135,-0.286
13.140,-0.001
13.145,0.326
13.150,-0.161
13.155,-0.176
13.160,0.332
13.165,0.012
13.170,-0.355
13.175,0.121
13.180,0.151
13.185,-0.331
13.190,-0.028
13.195,0.296
13.200,-0.191
13.205,-0.200
13.210,0.329
13.215,0.060
13.220,-0.255
13.225,0.248
13.230,0.273
13.235,-0.231
13.240,0.060
13.245,0.375
13.250,-0.114
13.255,-0.131
13.260,0.360
13.265,0.054
13.270,-0.274
13.275,0.221
13.280,0.238
13.285,-0.265
13.290,0.026
13.295,0.350
13.300,-0.126
13.305,-0.191
13.310,0.142
13.315,-0.462
13.320,-1.158
13.325,-0.847
13.330,-0.608
13.335,-0.552
13.340,0.247
13.345,0.727
13.350,0.171
13.355,0.056
13.360,0.479
13.365,0.156
13.370,-0.136
13.375,0.368
13.380,0.358
13.385,-0.156
13.390,0.149
13.395,0.470
13.400,-0.033
13.405,-0.053
13.410,0.436
13.415,0.120
13.420,-0.213
13.425,0.260
13.430,0.241
13.435,-0.270
13.440,0.040
13.445,0.359
13.450,-0.135
13.455,-0.137
13.460,0.364
13.465,0.053
13.470,-0.272
13.475,0.212
13.480,0.209
13.485,-0.291
13.490,0.016
13.495,0.329
13.500,-0.170
13.505,-0.186
13.510,0.314
13.515,0.021
13.520,-0.290
13.525,0.198
13.530,0.181
13.535,-0.340
13.540,-0.030
13.545,0.298
13.550,-0.211
13.555,-0.255
13.560,0.218
13.565,-0.083
13.570,-0.391
13.575,0.100
13.580,0.101
13.585,-0.405
13.590,-0.103
13.595,0.232
13.600,-0.260
13.605,-0.301
13.610,0.175
13.615,-0.111
13.620,-0.411
13.625,0.089
13.630,0.090
13.635,-0.444
13.640,-0.159
13.645,0.179
13.650,-0.286
13.655,-0.283
13.660,0.209
13.665,-0.093
13.670,-0.380
13.675,0.155
13.680,0.179
13.685,-0.321
13.690,-0.002
13.695,0.352
13.700,-0.108
13.705,-0.097
13.710,0.412
13.715,0.116
13.720,-0.183
13.725,0.317
13.730,0.298
13.735,-0.200
13.740,0.116
13.745,0.400
13.750,-0.102
13.755,-0.090
13.760,0.410
13.765,0.107
13.770,-0.197
13.775,0.285
13.780,0.257
13.785,-0.253
13.790,0.063
13.795,0.379
13.800,-0.142
13.805,-0.174
13.810,0.329
13.815,0.022
13.820,-0.301
13.825,0.205
13.830,0.210
13.835,-0.305
13.840,0.001
13.845,0.315
13.850,-0.201
13.855,-0.203
13.860,0.309
13.865,0.001
13.870,-0.312
13.875,0.175
13.880,0.172
13.885,-0.329
13.890,-0.021
13.895,0.301
13.900,-0.192
13.905,-0.196
13.910,0.302
13.915,0.002
13.920,-0.295
13.925,0.204
13.930,0.187
13.935,-0.332
13.940,-0.016
13.945,0.319
13.950,-0.167
13.955,-0.183
13.960,0.299
13.965,-0.011
13.970,-0.316
13.975,0.194
13.980,0.198
13.985,-0.313
13.990,-0.012
13.995,0.308
14.000,-0.178
14.005,-0.170
14.010,0.328
14.015,0.004
14.020,-0.313
14.025,0.179
14.030,0.177
14.035,-0.321
14.040,-0.001
14.045,0.337
14.050,-0.170
14.055,-0.209
14.060,0.275
14.065,-0.033
14.070,-0.336
14.075,0.182
14.080,0.178
14.085,-0.345
14.090,-0.023
14.095,0.309
14.100,-0.200
14.105,-0.209
14.110,0.287
14.115,-0.032
14.120,-0.329
14.125,0.188
14.130,0.178
14.135,-0.333
14.140,-0.013
14.145,0.300
14.150,-0.233
14.155,-0.277
14.160,0.196
14.165,-0.110
14.170,-0.398
14.175,0.109
14.180,0.098
14.185,-0.393
14.190,-0.058
14.195,0.258
14.200,-0.234
14.205,-0.205
14.210,0.330
14.215,0.042
14.220,-0.252
14.225,0.258
14.230,0.248
14.235,-0.257
14.240,0.053
14.245,0.350
14.250,-0.148
14.255,-0.133
14.260,0.359
14.265,0.039
14.270,-0.255
14.275,0.243
14.280,0.216
14.285,-0.274
14.290,0.061
14.295,0.366
14.300,-0.159
14.305,-0.211
14.310,0.135
14.315,-0.498
14.320,-1.189
14.325,-0.876
14.330,-0.670
14.335,-0.600
14.340,0.254
14.345,0.738
14.350,0.152
14.355,0.055
14.360,0.497
14.365,0.160
14.370,-0.133
14.375,0.372
14.380,0.343
14.385,-0.171
14.390,0.150
14.395,0.452
14.400,-0.065
14.405,-0.060
14.410,0.433
14.415,0.112
14.420,-0.179
14.425,0.313
14.430,0.267
14.435,-0.244
14.440,0.083
14.445,0.378
14.450,-0.141
14.455,-0.130
14.460,0.360
14.465,0.024
14.470,-0.267
14.475,0.259
14.480,0.234
14.485,-0.271
14.490,0.056
14.495,0.324
14.500,-0.208
14.505,-0.179
14.510,0.330
14.515,0.008
14.520,-0.297
14.525,0.188
14.530,0.164
14.535,-0.326
14.540,-0.002
14.545,0.278
14.550,-0.240
14.555,-0.210
14.560,0.282
14.565,-0.065
14.570,-0.362
14.575,0.138
14.580,0.105
14.585,-0.379
14.590,-0.054
14.595,0.216
14.600,-0.306
14.605,-0.283
14.610,0.214
14.615,-0.116
14.620,-0.398
14.625,0.111
14.630,0.079
14.635,-0.418
14.640,-0.103
14.645,0.181
14.650,-0.317
14.655,-0.273
14.660,0.237
14.665,-0.073
14.670,-0.335
14.675,0.180
14.680,0.155
14.685,-0.299
14.690,0.078
14.695,0.374
14.700,-0.134
14.705,-0.093
14.710,0.402
14.715,0.072
14.720,-0.186
14.725,0.336
14.730,0.288
14.735,-0.197
14.740,0.151
14.745,0.407
14.750,-0.115
14.755,-0.060
14.760,0.425
14.765,0.082
14.770,-0.192
14.775,0.303
14.780,0.243
14.785,-0.250
14.790,0.102
14.795,0.364
14.800,-0.173
14.805,-0.127
14.810,0.351
14.815,-0.010
14.820,-0.276
14.825,0.236
14.830,0.174
14.835,-0.311
14.840,0.043
14.845,0.316
14.850,-0.201
14.855,-0.161
14.860,0.307
14.865,-0.059
14.870,-0.321
14.875,0.211
14.880,0.163
14.885,-0.315
14.890,0.043
14.895,0.311
14.900,-0.213
14.905,-0.176
14.910,0.306
14.915,-0.029
14.920,-0.292
14.925,0.215
14.930,0.163
14.935,-0.318
14.940,0.031
14.945,0.295
14.950,-0.223
14.955,-0.171
14.960,0.310
14.965,-0.047
14.970,-0.316
14.975,0.206
14.980,0.162
14.985,-0.320
14.990,0.034
14.995,0.298
15.000,-0.228
15.005,-0.176
15.010,0.309
15.015,-0.051
15.020,-0.314
15.025,0.216
15.030,0.167
15.035,-0.325
15.040,0.028
15.045,0.301
15.050,-0.223
15.055,-0.179
15.060,0.309
15.065,-0.030
15.070,-0.303
15.075,0.201
15.080,0.153
15.085,-0.318
15.090,0.038
15.095,0.283
15.100,-0.232
15.105,-0.145
15.110,0.327
15.115,-0.057
15.120,-0.308
15.125,0.221
15.130,0.153
15.135,-0.335
15.140,0.002
15.145,0.216
15.150,-0.325
15.155,-0.261
15.160,0.205
15.165,-0.170
15.170,-0.424
15.175,0.117
15.180,0.089
15.185,-0.364
15.190,-0.004
15.195,0.253
15.200,-0.217
15.205,-0.110
15.210,0.354
15.215,-0.010
15.220,-0.230
15.225,0.301
15.230,0.226
15.235,-0.248
15.240,0.118
15.245,0.361
15.250,-0.169
15.255,-0.100
15.260,0.366
15.265,-0.006
15.270,-0.249
15.275,0.262
15.280,0.180
15.285,-0.288
15.290,0.094
15.295,0.319
15.300,-0.321
15.305,-0.498
15.310,-0.392
15.315,-1.061
15.320,-1.303
15.325,-0.374
15.330,0.164
15.335,0.076
15.340,0.462
15.345,0.580
15.350,-0.028
15.355,0.015
15.360,0.486
15.365,0.127
15.370,-0.123
15.375,0.384
15.380,0.300
15.385,-0.172
15.390,0.195
15.395,0.434
15.400,-0.095
15.405,-0.027
15.410,0.436
15.415,0.065
15.420,-0.178
15.425,0.330
15.430,0.233
15.435,-0.246
15.440,0.119
15.445,0.353
15.450,-0.173
15.455,-0.105
15.460,0.355
15.465,-0.014
15.470,-0.262
15.475,0.250
15.480,0.172
15.485,-0.307
15.490,0.057
15.495,0.300
15.500,-0.226
15.505,-0.148
15.510,0.331
15.515,-0.042
15.520,-0.298
15.525,0.214
15.530,0.127
15.535,-0.357
15.540,0.016
15.545,0.259
15.550,-0.277
15.555,-0.208
15.560,0.265
15.565,-0.110
15.570,-0.362
15.575,0.149
15.580,0.060
15.585,-0.422
15.590,-0.056
15.595,0.181
15.600,-0.349
15.605,-0.269
15.610,0.205
15.615,-0.165
15.620,-0.406
15.625,0.111
15.630,0.027
15.635,-0.441
15.640,-0.060
15.645,0.184
15.650,-0.332
15.655,-0.233
15.660,0.252
15.665,-0.106
15.670,-0.325
15.675,0.226
15.680,0.172
15.685,-0.282
15.690,0.112
15.695,0.370
15.700,-0.138
15.705,-0.037
15.710,0.438
15.715,0.058
15.720,-0.178
15.725,0.349
15.730,0.259
15.735,-0.212
15.740,0.169
15.745,0.406
15.750,-0.123
15.755,-0.049
15.760,0.413
15.765,0.036
15.770,-0.203
15.775,0.308
15.780,0.208
15.785,-0.260
15.790,0.120
15.795,0.345
15.800,-0.186
15.805,-0.093
15.810,0.366
15.815,-0.025
15.820,-0.259
15.825,0.261
15.830,0.163
15.835,-0.310
15.840,0.066
15.845,0.295
15.850,-0.230
15.855,-0.137
15.860,0.324
15.865,-0.060
15.870,-0.281
15.875,0.244
15.880,0.139
15.885,-0.330
15.890,0.056
15.895,0.289
15.900,-0.233
15.905,-0.138
15.910,0.326
15.915,-0.057
15.920,-0.281
15.925,0.248
15.930,0.151
15.935,-0.309
15.940,0.085
15.945,0.305
15.950,-0.231
15.955,-0.131
15.960,0.327
15.965,-0.066
15.970,-0.271
15.975,0.273
15.980,0.161
15.985,-0.290
15.990,0.108
15.995,0.298
16.000,-0.232
16.005,-0.105
16.010,0.328
16.015,-0.083
16.020,-0.275
16.025,0.249
16.030,0.120
16.035,-0.320
16.040,0.084
16.045,0.266
16.050,-0.258
16.055,-0.116
16.060,0.323
16.065,-0.083
16.070,-0.268
16.075,0.249
16.080,0.108
16.085,-0.328
16.090,0.083
16.095,0.264
16.100,-0.259
16.105,-0.123
16.110,0.306
16.115,-0.099
16.120,-0.283
16.125,0.229
16.130,0.092
16.135,-0.353
16.140,0.042
16.145,0.227
16.150,-0.329
16.155,-0.237
16.160,0.200
16.165,-0.209
16.170,-0.425
16.175,0.097
16.180,0.006
16.185,-0.408
16.190,-0.001
16.195,0.204
16.200,-0.298
16.205,-0.138
16.210,0.358
16.215,-0.020
16.220,-0.226
16.225,0.304
16.230,0.191
16.235,-0.260
16.240,0.131
16.245,0.331
16.250,-0.186
16.255,-0.063
16.260,0.378
16.265,-0.027
16.270,-0.238
16.275,0.289
16.280,0.175
16.285,-0.282
16.290,0.117
16.295,0.339
16.300,-0.213
16.305,-0.212
16.310,0.003
16.315,-0.752
16.320,-1.264
16.325,-0.732
16.330,-0.419
16.335,-0.271
16.340,0.471
16.345,0.689
16.350,0.048
16.355,0.073
16.360,0.479
16.365,0.081
16.370,-0.114
16.375,0.408
16.380,0.285
16.385,-0.170
16.390,0.223
16.395,0.421
16.400,-0.106
16.405,0.010
16.410,0.438
16.415,0.024
16.420,-0.177
16.425,0.335
16.430,0.202
16.435,-0.245
16.440,0.148
16.445,0.336
16.450,-0.191
16.455,-0.071
16.460,0.369
16.465,-0.040
16.470,-0.258
16.475,0.269
16.480,0.161
16.485,-0.313
16.490,0.068
16.495,0.287
16.500,-0.240
16.505,-0.131
16.510,0.323
16.515,-0.083
16.520,-0.302
16.525,0.228
16.530,0.110
16.535,-0.358
16.540,0.035
16.545,0.245
16.550,-0.291
16.555,-0.186
16.560,0.268
16.565,-0.134
16.570,-0.359
16.575,0.163
16.580,0.048
16.585,-0.416
16.590,-0.028
16.595,0.170
16.600,-0.382
16.605,-0.288
16.610,0.146
16.615,-0.272
16.620,-0.489
16.625,0.054
16.630,-0.036
16.635,-0.483
16.640,-0.080
16.645,0.141
16.650,-0.371
16.655,-0.236
16.660,0.243
16.665,-0.130
16.670,-0.318
16.675,0.233
16.680,0.143
16.685,-0.289
16.690,0.134
16.695,0.370
16.700,-0.146
16.705,-0.019
16.710,0.451
16.715,0.059
16.720,-0.148
16.725,0.384
16.730,0.271
16.735,-0.181
16.740,0.221
16.745,0.420
16.750,-0.118
16.755,0.005
16.760,0.454
16.765,0.042
16.770,-0.164
16.775,0.358
16.780,0.224
16.785,-0.235
16.790,0.163
16.795,0.362
16.800,-0.172
16.805,-0.054
16.810,0.394
16.815,-0.018
16.820,-0.223
16.825,0.305
16.830,0.168
16.835,-0.288
16.840,0.117
16.845,0.306
16.850,-0.230
16.855,-0.101
16.860,0.349
16.865,-0.059
16.870,-0.266
16.875,0.269
16.880,0.155
16.885,-0.311
16.890,0.086
16.895,0.297
16.900,-0.235
16.905,-0.109
16.910,0.345
16.915,-0.065
16.920,-0.267
16.925,0.260
16.930,0.130
16.935,-0.312
16.940,0.100
16.945,0.296
16.950,-0.238
16.955,-0.109
16.960,0.340
16.965,-0.071
16.970,-0.267
16.975,0.266
16.980,0.131
16.985,-0.322
16.990,0.091
16.995,0.292
17.000,-0.245
17.005,-0.122
17.010,0.326
17.015,-0.083
17.020,-0.281
17.025,0.249
17.030,0.117
17.035,-0.331
17.040,0.078
17.045,0.271
17.050,-0.258
17.055,-0.120
17.060,0.322
17.065,-0.101
17.070,-0.294
17.075,0.243
17.080,0.109
17.085,-0.335
17.090,0.071
17.095,0.253
17.100,-0.271
17.105,-0.128
17.110,0.311
17.115,-0.110
17.120,-0.301
17.125,0.238
17.130,0.104
17.135,-0.349
17.140,0.045
17.145,0.202
17.150,-0.357
17.155,-0.225
17.160,0.220
17.165,-0.208
17.170,-0.416
17.175,0.127
17.180,0.031
17.185,-0.393
17.190,0.022
17.195,0.232
17.200,-0.267
17.205,-0.095
17.210,0.377
17.215,-0.025
17.220,-0.213
17.225,0.313
17.230,0.172
17.235,-0.269
17.240,0.144
17.245,0.325
17.250,-0.212
17.255,-0.074
17.260,0.372
17.265,-0.043
17.270,-0.231
17.275,0.299
17.280,0.152
17.285,-0.283
17.290,0.148
17.295,0.308
17.300,-0.330
17.305,-0.407
17.310,-0.326
17.315,-1.061
17.320,-1.261
17.325,-0.365
17.330,0.082
17.335,0.055
17.340,0.508
17.345,0.556
17.350,-0.072
17.355,0.039
17.360,0.471
17.365,0.063
17.370,-0.103
17.375,0.420
17.380,0.251
17.385,-0.201
17.390,0.214
17.395,0.392
17.400,-0.144
17.405,0.002
17.410,0.431
17.415,-0.007
17.420,-0.194
17.425,0.334
17.430,0.179
17.435,-0.266
17.440,0.147
17.445,0.319
17.450,-0.219
17.455,-0.072
17.460,0.364
17.465,-0.063
17.470,-0.246
17.475,0.279
17.480,0.122
17.485,-0.316
17.490,0.106
17.495,0.277
17.500,-0.259
17.505,-0.113
17.510,0.313
17.515,-0.117
17.520,-0.291
17.525,0.241
17.530,0.077
17.535,-0.364
17.540,0.062
17.545,0.222
17.550,-0.320
17.555,-0.163
17.560,0.263
17.565,-0.171
17.570,-0.348
17.575,0.176
17.580,0.012
17.585,-0.433
17.590,-0.017
17.595,0.155
17.600,-0.373
17.605,-0.212
17.610,0.221
17.615,-0.216
17.620,-0.393
17.625,0.146
17.630,-0.006
17.635,-0.439
17.640,-0.012
17.645,0.156
17.650,-0.364
17.655,-0.186
17.660,0.258
17.665,-0.145
17.670,-0.277
17.675,0.276
17.680,0.131
17.685,-0.279
17.690,0.165
17.695,0.340
17.700,-0.175
17.705,0.004
17.710,0.437
17.715,0.006
17.720,-0.156
17.725,0.375
17.730,0.209
17.735,-0.223
17.740,0.205
17.745,0.368
17.750,-0.167
17.755,-0.010
17.760,0.410
17.765,-0.025
17.770,-0.191
17.775,0.330
17.780,0.156
17.785,-0.272
17.790,0.155
17.795,0.307
17.800,-0.226
17.805,-0.060
17.810,0.358
17.815,-0.080
17.820,-0.243
17.825,0.282
17.830,0.108
17.835,-0.317
17.840,0.113
17.845,0.265
17.850,-0.263
17.855,-0.086
17.860,0.335
17.865,-0.105
17.870,-0.261
17.875,0.270
17.880,0.097
17.885,-0.323
17.890,0.114
17.895,0.264
17.900,-0.264
17.905,-0.084
17.910,0.332
17.915,-0.107
17.920,-0.255
17.925,0.272
17.930,0.096
17.935,-0.321
17.940,0.117
17.945,0.267
17.950,-0.263
17.955,-0.087
17.960,0.329
17.965,-0.110
17.970,-0.258
17.975,0.272
17.980,0.094
17.985,-0.326
17.990,0.111
17.995,0.259
18.000,-0.272
18.005,-0.091
18.010,0.322
18.015,-0.119
18.020,-0.257
18.025,0.272
18.030,0.084
18.035,-0.329
18.040,0.113
18.045,0.249
18.050,-0.284
18.055,-0.095
18.060,0.322
18.065,-0.122
18.070,-0.265
18.075,0.267
18.080,0.077
18.085,-0.358
18.090,0.051
18.095,0.162
18.100,-0.384
18.105,-0.200
18.110,0.209
18.115,-0.248
18.120,-0.388
18.125,0.179
18.130,0.028
18.135,-0.381
18.140,0.067
18.145,0.233
18.150,-0.259
18.155,-0.030
18.160,0.400
18.165,-0.047
18.170,-0.184
18.175,0.347
18.180,0.156
18.185,-0.256
18.190,0.186
18.195,0.323
18.200,-0.208
18.205,-0.023
18.210,0.383
18.215,-0.066
18.220,-0.208
18.225,0.313
18.230,0.127
18.235,-0.264
18.240,0.180
18.245,0.239
18.250,-0.461
18.255,-0.575
18.260,-0.531
18.265,-1.136
18.270,-1.042
18.275,0.030
18.280,0.356
18.285,0.131
18.290,0.480
18.295,0.479
18.300,-0.114
18.305,0.065
18.310,0.484
18.315,0.041
18.320,-0.098
18.325,0.424
18.330,0.221
18.335,-0.195
18.340,0.245
18.345,0.366
18.350,-0.165
18.355,0.027
18.360,0.415
18.365,-0.043
18.370,-0.169
18.375,0.353
18.380,0.148
18.385,-0.259
18.390,0.183
18.395,0.298
18.400,-0.236
18.405,-0.041
18.410,0.356
18.415,-0.096
18.420,-0.223
18.425,0.296
18.430,0.089
18.435,-0.319
18.440,0.122
18.445,0.238
18.450,-0.291
18.455,-0.089
18.460,0.308
18.465,-0.146
18.470,-0.270
18.475,0.251
18.480,0.044
18.485,-0.364
18.490,0.079
18.495,0.194
18.500,-0.341
18.505,-0.149
18.510,0.247
18.515,-0.207
18.520,-0.339
18.525,0.181
18.530,-0.028
18.535,-0.439
18.540,0.008
18.545,0.129
18.550,-0.401
18.555,-0.198
18.560,0.201
18.565,-0.248
18.570,-0.361
18.575,0.167
18.580,-0.040
18.585,-0.435
18.590,0.023
18.595,0.144
18.600,-0.366
18.605,-0.133
18.610,0.278
18.615,-0.160
18.620,-0.247
18.625,0.304
18.630,0.114
18.635,-0.268
18.640,0.203
18.645,0.340
18.650,-0.172
18.655,0.043
18.660,0.442
18.665,-0.012
18.670,-0.125
18.675,0.400
18.680,0.189
18.685,-0.212
18.690,0.237
18.695,0.350
18.700,-0.179
18.705,0.024
18.710,0.413
18.715,-0.041
18.720,-0.151
18.725,0.366
18.730,0.141
18.735,-0.264
18.740,0.187
18.745,0.299
18.750,-0.237
18.755,-0.032
18.760,0.365
18.765,-0.095
18.770,-0.215
18.775,0.308
18.780,0.094
18.785,-0.307
18.790,0.146
18.795,0.259
18.800,-0.271
18.805,-0.057
18.810,0.337
18.815,-0.120
18.820,-0.228
18.825,0.295
18.830,0.080
18.835,-0.306
18.840,0.147
18.845,0.249
18.850,-0.272
18.855,-0.054
18.860,0.327
18.865,-0.136
18.870,-0.232
18.875,0.302
18.880,0.083
18.885,-0.306
18.890,0.159
18.895,0.255
18.900,-0.279
18.905,-0.051
18.910,0.339
18.915,-0.131
18.920,-0.237
18.925,0.288
18.930,0.069
18.935,-0.314
18.940,0.146
18.945,0.241
18.950,-0.289
18.955,-0.069
18.960,0.319
18.965,-0.138
18.970,-0.234
18.975,0.289
18.980,0.058
18.985,-0.328
18.990,0.138
18.995,0.231
19.000,-0.295
19.005,-0.062
19.010,0.320
19.015,-0.142
19.020,-0.232
19.025,0.284
19.030,0.046
19.035,-0.335
19.040,0.130
19.045,0.219
19.050,-0.320
19.055,-0.121
19.060,0.230
19.065,-0.253
19.070,-0.355
19.075,0.161
19.080,-0.075
19.085,-0.433
19.090,0.077
19.095,0.181
19.100,-0.348
19.105,-0.094
19.110,0.326
19.115,-0.106
19.120,-0.179
19.125,0.347
19.130,0.123
19.135,-0.241
19.140,0.229
19.145,0.309
19.150,-0.222
19.155,0.008
19.160,0.385
19.165,-0.081
19.170,-0.173
19.175,0.339
19.180,0.097
19.185,-0.281
19.190,0.185
19.195,0.277
19.200,-0.226
19.205,-0.016
19.210,0.244
19.215,-0.449
19.220,-0.891
19.225,-0.671
19.230,-0.888
19.235,-0.869
19.240,0.172
19.245,0.636
19.250,0.138
19.255,0.245
19.260,0.517
19.265,0.000
19.270,-0.087
19.275,0.442
19.280,0.202
19.285,-0.173
19.290,0.288
19.295,0.365
19.300,-0.164
19.305,0.061
19.310,0.431
19.315,-0.039
19.320,-0.133
19.325,0.379
19.330,0.131
19.335,-0.255
19.340,0.213
19.345,0.298
19.350,-0.232
19.355,-0.007
19.360,0.362
19.365,-0.110
19.370,-0.199
19.375,0.317
19.380,0.071
19.385,-0.304
19.390,0.169
19.395,0.244
19.400,-0.288
19.405,-0.053
19.410,0.316
19.415,-0.157
19.420,-0.235
19.425,0.280
19.430,0.029
19.435,-0.343
19.440,0.122
19.445,0.187
19.450,-0.340
19.455,-0.102
19.460,0.264
19.465,-0.214
19.470,-0.301
19.475,0.220
19.480,-0.025
19.485,-0.408
19.490,0.055
19.495,0.128
19.500,-0.396
19.505,-0.156
19.510,0.204
19.515,-0.268
19.520,-0.336
19.525,0.178
19.530,-0.075
19.535,-0.441
19.540,0.036
19.545,0.111
19.550,-0.407
19.555,-0.147
19.560,0.230
19.565,-0.241
19.570,-0.298
19.575,0.248
19.580,0.022
19.585,-0.327
19.590,0.173
19.595,0.269
19.600,-0.235
19.605,0.033
19.610,0.410
19.615,-0.055
19.620,-0.111
19.625,0.406
19.630,0.146
19.635,-0.216
19.640,0.266
19.645,0.337
19.650,-0.190
19.655,0.050
19.660,0.411
19.665,-0.066
19.670,-0.138
19.675,0.376
19.680,0.117
19.685,-0.255
19.690,0.214
19.695,0.276
19.700,-0.248
19.705,0.000
19.710,0.359
19.715,-0.130
19.720,-0.208
19.725,0.317
19.730,0.063
19.735,-0.309
19.740,0.164
19.745,0.228
19.750,-0.295
19.755,-0.042
19.760,0.323
19.765,-0.155
19.770,-0.227
19.775,0.289
19.780,0.036
19.785,-0.323
19.790,0.157
19.795,0.221
19.800,-0.304
19.805,-0.050
19.810,0.321
19.815,-0.154
19.820,-0.224
19.825,0.300
19.830,0.048
19.835,-0.320
19.840,0.157
19.845,0.231
19.850,-0.289
19.855,-0.039
19.860,0.323
19.865,-0.149
19.870,-0.212
19.875,0.300
19.880,0.039
19.885,-0.318
19.890,0.163
19.895,0.225
19.900,-0.296
19.905,-0.040
19.910,0.320
19.915,-0.163
19.920,-0.227
19.925,0.294
19.930,0.034
19.935,-0.332
19.940,0.146
19.945,0.214
19.950,-0.300
19.955,-0.040
19.960,0.315
19.965,-0.167
19.970,-0.230
19.975,0.288
19.980,0.032
19.985,-0.326
19.990,0.155
19.995,0.212
20.000,-0.311
20.005,-0.047
20.010,0.313
20.015,-0.186
20.020,-0.282
20.025,0.205
20.030,-0.067
20.035,-0.428
20.040,0.043
20.045,0.087
20.050,-0.431
20.055,-0.131
20.060,0.260
20.065,-0.219
20.070,-0.270
20.075,0.275
20.080,0.056
20.085,-0.268
20.090,0.224
20.095,0.287
20.100,-0.229
20.105,0.032
20.110,0.388
20.115,-0.093
20.120,-0.152
20.125,0.364
20.130,0.097
20.135,-0.269
20.140,0.212
20.145,0.272
20.150,-0.259
20.155,-0.006
20.160,0.356
20.165,-0.117
20.170,-0.166
20.175,0.327
20.180,-0.058
20.185,-0.668
20.190,-0.551
20.195,-0.768
20.200,-1.233
20.205,-0.544
20.210,0.399
20.215,0.274
20.220,0.215
20.225,0.592
20.230,0.232
20.235,-0.157
20.240,0.323
20.245,0.378
20.250,-0.141
20.255,0.124
20.260,0.470
20.265,-0.028
20.270,-0.091
20.275,0.425
20.280,0.151
20.285,-0.214
20.290,0.262
20.295,0.309
20.300,-0.213
20.305,0.045
20.310,0.388
20.315,-0.100
20.320,-0.159
20.325,0.350
20.330,0.076
20.335,-0.278
20.340,0.205
20.345,0.251
20.350,-0.268
20.355,-0.003
20.360,0.340
20.365,-0.153
20.370,-0.205
20.375,0.307
20.380,0.032
20.385,-0.317
20.390,0.166
20.395,0.203
20.400,-0.314
20.405,-0.045
20.410,0.289
20.415,-0.203
20.420,-0.249
20.425,0.254
20.430,-0.026
20.435,-0.371
20.440,0.107
20.445,0.136
20.450,-0.388
20.455,-0.120
20.460,0.221
20.465,-0.271
20.470,-0.321
20.475,0.188
20.480,-0.090
20.485,-0.435
20.490,0.052
20.495,0.100
20.500,-0.416
20.505,-0.150
20.510,0.199
20.515,-0.281
20.520,-0.327
20.525,0.194
20.530,-0.066
20.535,-0.404
20.540,0.102
20.545,0.176
20.550,-0.318
20.555,-0.022
20.560,0.355
20.565,-0.113
20.570,-0.151
20.575,0.383
20.580,0.128
20.585,-0.220
20.590,0.274
20.595,0.338
20.600,-0.183
20.605,0.080
20.610,0.437
20.615,-0.052
20.620,-0.113
20.625,0.402
20.630,0.127
20.635,-0.233
20.640,0.251
20.645,0.300
20.650,-0.228
20.655,0.033
20.660,0.383
20.665,-0.113
20.670,-0.171
20.675,0.352
20.680,0.078
20.685,-0.288
20.690,0.192
20.695,0.240
20.700,-0.281
20.705,-0.015
20.710,0.335
20.715,-0.157
20.720,-0.214
20.725,0.310
20.730,0.043
20.735,-0.318
20.740,0.169
20.745,0.222
20.750,-0.304
20.755,-0.036
20.760,0.321
20.765,-0.168
20.770,-0.217
20.775,0.306
20.780,0.037
20.785,-0.315
20.790,0.175
20.795,0.227
20.800,-0.299
20.805,-0.027
20.810,0.333
20.815,-0.157
20.820,-0.212
20.825,0.311
20.830,0.044
20.835,-0.313
20.840,0.175
20.845,0.226
20.850,-0.297
20.855,-0.028
20.860,0.326
20.865,-0.163
20.870,-0.214
20.875,0.308
20.880,0.040
20.885,-0.312
20.890,0.173
20.895,0.218
20.900,-0.301
20.905,-0.021
20.910,0.323
20.915,-0.177
20.920,-0.221
20.925,0.301
20.930,0.023
20.935,-0.327
20.940,0.166
20.945,0.212
20.950,-0.308
20.955,-0.032
20.960,0.317
20.965,-0.176
20.970,-0.224
20.975,0.297
20.980,0.024
20.985,-0.327
20.990,0.162
20.995,0.206
21.000,-0.316
21.005,-0.044
21.010,0.303
21.015,-0.189
21.020,-0.230
21.025,0.292
21.030,0.019
21.035,-0.328
21.040,0.151
21.045,0.165
21.050,-0.390
21.055,-0.131
21.060,0.211
21.065,-0.292
21.070,-0.346
21.075,0.168
21.080,-0.082
21.085,-0.385
21.090,0.120
21.095,0.162
21.100,-0.332
21.105,-0.018
21.110,0.357
21.115,-0.112
21.120,-0.139
21.125,0.383
21.130,0.102
21.135,-0.245
21.140,0.249
21.145,0.287
21.150,-0.236
21.155,0.040
21.160,0.385
21.165,-0.109
21.170,-0.156
21.175,0.358
21.180,0.077
21.185,-0.276
21.190,0.213
21.195,0.266
21.200,-0.243
21.205,-0.010
21.210,0.186
21.215,-0.589
21.220,-0.997
21.225,-0.719
21.230,-0.869
21.235,-0.704
21.240,0.362
21.245,0.668
21.250,0.086
21.255,0.227
21.260,0.495
21.265,-0.024
21.270,-0.053
21.275,0.472
21.280,0.184
21.285,-0.161
21.290,0.328
21.295,0.354
21.300,-0.171
21.305,0.105
21.310,0.436
21.315,-0.068
21.320,-0.109
21.325,0.398
21.330,0.102
21.335,-0.244
21.340,0.244
21.345,0.270
21.350,-0.250
21.355,0.032
21.360,0.366
21.365,-0.137
21.370,-0.175
21.375,0.337
21.380,0.045
21.385,-0.299
21.390,0.196
21.395,0.226
21.400,-0.299
21.405,-0.021
21.410,0.312
21.415,-0.185
21.420,-0.219
21.425,0.291
21.430,-0.003
21.435,-0.344
21.440,0.153
21.445,0.174
21.450,-0.353
21.455,-0.068
21.460,0.260
21.465,-0.246
21.470,-0.279
21.475,0.228
21.480,-0.068
21.485,-0.405
21.490,0.086
21.495,0.103
21.500,-0.417
21.505,-0.130
21.510,0.202
21.515,-0.295
21.520,-0.320
21.525,0.195
21.530,-0.099
21.535,-0.434
21.540,0.071
21.545,0.100
21.550,-0.411
21.555,-0.115
21.560,0.221
21.565,-0.254
21.570,-0.241
21.575,0.277
21.580,-0.016
21.585,-0.316
21.590,0.212
21.595,0.252
21.600,-0.243
21.605,0.067
21.610,0.406
21.615,-0.084
21.620,-0.095
21.625,0.417
21.630,0.120
21.635,-0.202
21.640,0.299
21.645,0.312
21.650,-0.207
21.655,0.089
21.660,0.414
21.665,-0.095
21.670,-0.123
21.675,0.382
21.680,0.082
21.685,-0.249
21.690,0.248
21.695,0.260
21.700,-0.260
21.705,0.033
21.710,0.354
21.715,-0.153
21.720,-0.170
21.725,0.341
21.730,0.033
21.735,-0.298
21.740,0.206
21.745,0.216
21.750,-0.301
21.755,0.001
21.760,0.322
21.765,-0.184
21.770,-0.192
21.775,0.318
21.780,0.013
21.785,-0.304
21.790,0.198
21.795,0.206
21.800,-0.303
21.805,0.000
21.810,0.318
21.815,-0.183
21.820,-0.187
21.825,0.319
21.830,0.011
21.835,-0.301
21.840,0.204
21.845,0.206
21.850,-0.303
21.855,0.005
21.860,0.322
21.865,-0.185
21.870,-0.193
21.875,0.322
21.880,0.018
21.885,-0.305
21.890,0.198
21.895,0.210
21.900,-0.297
21.905,0.009
21.910,0.323
21.915,-0.185
21.920,-0.188
21.925,0.323
21.930,0.012
21.935,-0.308
21.940,0.200
21.945,0.209
21.950,-0.304
21.955,0.001
21.960,0.320
21.965,-0.188
21.970,-0.200
21.975,0.308
21.980,0.003
21.985,-0.316
21.990,0.187
21.995,0.191
22.000,-0.320
22.005,-0.011
22.010,0.307
22.015,-0.197
22.020,-0.201
22.025,0.305
22.030,-0.006
22.035,-0.322
22.040,0.186
22.045,0.189
22.050,-0.322
22.055,-0.011
22.060,0.305
22.065,-0.206
22.070,-0.210
22.075,0.296
22.080,-0.017
22.085,-0.329
22.090,0.178
22.095,0.176
22.100,-0.329
22.105,-0.015
22.110,0.295
22.115,-0.210
22.120,-0.206
22.125,0.295
22.130,-0.020
22.135,-0.330
22.140,0.177
22.145,0.175
22.150,-0.334
22.155,-0.020
22.160,0.294
22.165,-0.213
22.170,-0.207
22.175,0.301
22.180,-0.014
22.185,-0.323
22.190,0.183
22.195,0.174
22.200,-0.344
22.205,-0.043
22.210,0.242
22.215,-0.293
22.220,-0.294
22.225,0.222
22.230,-0.083
22.235,-0.383
22.240,0.134
22.245,0.140
22.250,-0.346
22.255,0.017
22.260,0.354
22.265,-0.159
22.270,-0.152
22.275,0.355
22.280,0.040
22.285,-0.260
22.290,0.248
22.295,0.236
22.300,-0.268
22.305,0.051
22.310,0.350
22.315,-0.163
22.320,-0.155
22.325,0.346
22.330,0.024
22.335,-0.282
22.340,0.240
22.345,0.245
22.350,-0.302
22.355,-0.117
22.360,-0.071
22.365,-0.948
22.370,-1.204
22.375,-0.623
22.380,-0.474
22.385,-0.192
22.390,0.622
22.395,0.580
22.400,-0.048
22.405,0.195
22.410,0.463
22.415,-0.045
22.420,-0.020
22.425,0.479
22.430,0.146
22.435,-0.162
22.440,0.342
22.445,0.319
22.450,-0.191
22.455,0.128
22.460,0.422
22.465,-0.096
22.470,-0.087
22.475,0.406
22.480,0.073
22.485,-0.231
22.490,0.273
22.495,0.249
22.500,-0.255
22.505,0.067
22.510,0.357
22.515,-0.158
22.520,-0.140
22.525,0.354
22.530,0.018
22.535,-0.281
22.540,0.231
22.545,0.201
22.550,-0.303
22.555,0.026
22.560,0.311
22.565,-0.204
22.570,-0.177
22.575,0.313
22.580,-0.028
22.585,-0.324
22.590,0.179
22.595,0.143
22.600,-0.356
22.605,-0.025
22.610,0.256
22.615,-0.268
22.620,-0.247
22.625,0.242
22.630,-0.102
22.635,-0.397
22.640,0.114
22.645,0.080
22.650,-0.418
22.655,-0.080
22.660,0.200
22.665,-0.318
22.670,-0.280
22.675,0.212
22.680,-0.129
22.685,-0.409
22.690,0.107
22.695,0.073
22.700,-0.416
22.705,-0.069
22.710,0.223
22.715,-0.280
22.720,-0.229
22.725,0.283
22.730,-0.036
22.735,-0.296
22.740,0.241
22.745,0.225
22.750,-0.251
22.755,0.107
22.760,0.399
22.765,-0.113
22.770,-0.064
22.775,0.432
22.780,0.085
22.785,-0.198
22.790,0.317
22.795,0.281
22.800,-0.217
22.805,0.117
22.810,0.398
22.815,-0.123
22.820,-0.097
22.825,0.387
22.830,0.039
22.835,-0.243
22.840,0.271
22.845,0.226
22.850,-0.270
22.855,0.069
22.860,0.338
22.865,-0.184
22.870,-0.144
22.875,0.343
22.880,-0.008
22.885,-0.286
22.890,0.227
22.895,0.176
22.900,-0.311
22.905,0.041
22.910,0.315
22.915,-0.208
22.920,-0.168
22.925,0.322
22.930,-0.019
22.935,-0.288
22.940,0.229
22.945,0.181
22.950,-0.304
22.955,0.044
22.960,0.308
22.965,-0.204
22.970,-0.146
22.975,0.333
22.980,-0.023
22.985,-0.283
22.990,0.235
22.995,0.176
23.000,-0.307
23.005,0.046
23.010,0.307
23.015,-0.210
23.020,-0.154
23.025,0.325
23.030,-0.027
23.035,-0.289
23.040,0.225
23.045,0.167
23.050,-0.314
23.055,0.042
23.060,0.301
23.065,-0.219
23.070,-0.160
23.075,0.315
23.080,-0.048
23.085,-0.307
23.090,0.213
23.095,0.156
23.100,-0.322
23.105,0.034
23.110,0.290
23.115,-0.228
23.120,-0.163
23.125,0.313
23.130,-0.048
23.135,-0.306
23.140,0.210
23.145,0.147
23.150,-0.336
23.155,0.019
23.160,0.281
23.165,-0.230
23.170,-0.173
23.175,0.301
23.180,-0.052
23.185,-0.313
23.190,0.198
23.195,0.140
23.200,-0.330
23.205,0.031
23.210,0.284
23.215,-0.234
23.220,-0.166
23.225,0.308
23.230,-0.062
23.235,-0.322
23.240,0.201
23.245,0.140
23.250,-0.340
23.255,0.019
23.260,0.277
23.265,-0.245
23.270,-0.188
23.275,0.296
23.280,-0.059
23.285,-0.322
23.290,0.197
23.295,0.140
23.300,-0.344
23.305,0.014
23.310,0.281
23.315,-0.234
23.320,-0.175
23.325,0.307
23.330,-0.055
23.335,-0.330
23.340,0.172
23.345,0.087
23.350,-0.418
23.355,-0.063
23.360,0.209
23.365,-0.292
23.370,-0.221
23.375,0.262
23.380,-0.091
23.385,-0.319
23.390,0.246
23.395,0.204
23.400,-0.270
23.405,0.095
23.410,0.344
23.415,-0.173
23.420,-0.098
23.425,0.371
23.430,0.002
23.435,-0.242
23.440,0.273
23.445,0.190
23.450,-0.281
23.455,0.080
23.460,0.313
23.465,-0.204
23.470,-0.125
23.475,0.364
23.480,0.009
23.485,-0.299
23.490,0.074
23.495,-0.269
23.500,-1.124
23.505,-0.994
23.510,-0.591
23.515,-0.600
23.520,0.021
23.525,0.754
23.530,0.342
23.535,-0.031
23.540,0.410
23.545,0.307
23.550,-0.155
23.555,0.219
23.560,0.452
23.565,-0.072
23.570,0.004
23.575,0.467
23.580,0.088
23.585,-0.159
23.590,0.352
23.595,0.262
23.600,-0.218
23.605,0.142
23.610,0.383
23.615,-0.136
23.620,-0.061
23.625,0.403
23.630,0.022
23.635,-0.221
23.640,0.296
23.645,0.205
23.650,-0.266
23.655,0.104
23.660,0.332
23.665,-0.194
23.670,-0.118
23.675,0.344
23.680,-0.033
23.685,-0.284
23.690,0.228
23.695,0.149
23.700,-0.319
23.705,0.053
23.710,0.287
23.715,-0.246
23.720,-0.174
23.725,0.294
23.730,-0.080
23.735,-0.325
23.740,0.189
23.745,0.100
23.750,-0.373
23.755,-0.002
23.760,0.226
23.765,-0.304
23.770,-0.226
23.775,0.233
23.780,-0.150
23.785,-0.400
23.790,0.118
23.795,0.041
23.800,-0.420
23.805,-0.041
23.810,0.189
23.815,-0.332
23.820,-0.237
23.825,0.225
23.830,-0.154
23.835,-0.383
23.840,0.140
23.845,0.057
23.850,-0.392
23.855,0.007
23.860,0.258
23.865,-0.241
23.870,-0.125
23.875,0.361
23.880,0.002
23.885,-0.207
23.890,0.327
23.895,0.240
23.900,-0.215
23.905,0.175
23.910,0.408
23.915,-0.112
23.920,-0.019
23.925,0.440
23.930,0.055
23.935,-0.181
23.940,0.335
23.945,0.241
23.950,-0.226
23.955,0.150
23.960,0.369
23.965,-0.161
23.970,-0.068
23.975,0.387
23.980,-0.005
23.985,-0.241
23.990,0.274
23.995,0.175
24.000,-0.295
24.005,0.082
24.010,0.310
24.015,-0.216
24.020,-0.129
24.025,0.331
24.030,-0.050
24.035,-0.279
24.040,0.245
24.045,0.150
24.050,-0.322
24.055,0.055
24.060,0.288
24.065,-0.233
24.070,-0.135
24.075,0.332
24.080,-0.054
24.085,-0.281
24.090,0.241
24.095,0.138
24.100,-0.324
24.105,0.065
24.110,0.288
24.115,-0.233
24.120,-0.128
24.125,0.332
24.130,-0.054
24.135,-0.272
24.140,0.250
24.145,0.142
24.150,-0.316
24.155,0.074
24.160,0.288
24.165,-0.234
24.170,-0.119
24.175,0.331
24.180,-0.066
24.185,-0.278
24.190,0.246
24.195,0.134
24.200,-0.325
24.205,0.067
24.210,0.282
24.215,-0.244
24.220,-0.134
24.225,0.321
24.230,-0.072
24.235,-0.287
24.240,0.233
24.245,0.121
24.250,-0.335
24.255,0.057
24.260,0.273
24.265,-0.248
24.270,-0.138
24.275,0.312
24.280,-0.082
24.285,-0.293
24.290,0.228
24.295,0.115
24.300,-0.340
24.305,0.052
24.310,0.270
24.315,-0.253
24.320,-0.150
24.325,0.303
24.330,-0.085
24.335,-0.300
24.340,0.220
24.345,0.112
24.350,-0.346
24.355,0.048
24.360,0.270
24.365,-0.252
24.370,-0.144
24.375,0.309
24.380,-0.086
24.385,-0.299
24.390,0.227
24.395,0.115
24.400,-0.339
24.405,0.056
24.410,0.264
24.415,-0.260
24.420,-0.144
24.425,0.302
24.430,-0.110
24.435,-0.339
24.440,0.164
24.445,0.028
24.450,-0.434
24.455,-0.027
24.460,0.200
24.465,-0.323
24.470,-0.201
24.475,0.272
24.480,-0.098
24.485,-0.271
24.490,0.276
24.495,0.167
24.500,-0.283
24.505,0.115
24.510,0.325
24.515,-0.197
24.520,-0.073
24.525,0.375
24.530,-0.029
24.535,-0.231
24.540,0.291
24.545,0.166
24.550,-0.286
24.555,0.103
24.560,0.298
24.565,-0.214
24.570,-0.061
24.575,0.382
24.580,-0.102
24.585,-0.474
24.590,-0.276
24.595,-0.772
24.600,-1.356
24.605,-0.708
24.610,0.050
24.615,0.038
24.620,0.316
24.625,0.665
24.630,0.148
24.635,-0.116
24.640,0.397
24.645,0.291
24.650,-0.156
24.655,0.241
24.660,0.436
24.665,-0.095
24.670,0.023
24.675,0.460
24.680,0.051
24.685,-0.156
24.690,0.358
24.695,0.226
24.700,-0.223
24.705,0.172
24.710,0.358
24.715,-0.171
24.720,-0.044
24.725,0.392
24.730,-0.020
24.735,-0.219
24.740,0.298
24.745,0.166
24.750,-0.280
24.755,0.118
24.760,0.304
24.765,-0.225
24.770,-0.096
24.775,0.345
24.780,-0.063
24.785,-0.261
24.790,0.254
24.795,0.114
24.800,-0.331
24.805,0.073
24.810,0.257
24.815,-0.278
24.820,-0.152
24.825,0.286
24.830,-0.129
24.835,-0.334
24.840,0.186
24.845,0.057
24.850,-0.389
24.855,0.014
24.860,0.196
24.865,-0.339
24.870,-0.207
24.875,0.226
24.880,-0.188
24.885,-0.382
24.890,0.136
24.895,0.007
24.900,-0.428
24.905,-0.022
24.910,0.164
24.915,-0.364
24.920,-0.230
24.925,0.220
24.930,-0.179
24.935,-0.364
24.940,0.173
24.945,0.052
24.950,-0.373
24.955,0.060
24.960,0.275
24.965,-0.230
24.970,-0.077
24.975,0.384
24.980,-0.004
24.985,-0.173
24.990,0.361
24.995,0.229
25.000,-0.205
25.005,0.206
25.010,0.390
25.015,-0.130
25.020,0.010
25.025,0.436
25.030,0.015
25.035,-0.171
25.040,0.352
25.045,0.206
25.050,-0.238
25.055,0.165
25.060,0.339
25.065,-0.188
25.070,-0.048
25.075,0.380
25.080,-0.039
25.085,-0.228
25.090,0.294
25.095,0.152
25.100,-0.286
25.105,0.120
25.110,0.290
25.115,-0.239
25.120,-0.095
25.125,0.337
25.130,-0.079
25.135,-0.253
25.140,0.274
25.145,0.120
25.150,-0.316
25.155,0.103
25.160,0.271
25.165,-0.254
25.170,-0.098
25.175,0.331
25.180,-0.089
25.185,-0.259
25.190,0.266
25.195,0.112
25.200,-0.318
25.205,0.100
25.210,0.268
25.215,-0.252
25.220,-0.097
25.225,0.328
25.230,-0.090
25.235,-0.260
25.240,0.260
25.245,0.104
25.250,-0.326
25.255,0.093
25.260,0.262
25.265,-0.259
25.270,-0.100
25.275,0.323
25.280,-0.102
25.285,-0.264
25.290,0.259
25.295,0.099
25.300,-0.327
25.305,0.091
25.310,0.257
25.315,-0.262
25.320,-0.105
25.325,0.316
25.330,-0.106
25.335,-0.273
25.340,0.249
25.345,0.096
25.350,-0.331
25.355,0.090
25.360,0.259
25.365,-0.267
25.370,-0.115
25.375,0.312
25.380,-0.105
25.385,-0.275
25.390,0.243
25.395,0.087
25.400,-0.338
25.405,0.083
25.410,0.250
25.415,-0.271
25.420,-0.114
25.425,0.309
25.430,-0.115
25.435,-0.282
25.440,0.243
25.445,0.082
25.450,-0.343
25.455,0.083
25.460,0.247
25.465,-0.275
25.470,-0.115
25.475,0.307
25.480,-0.120
25.485,-0.282
25.490,0.243
25.495,0.083
25.500,-0.342
25.505,0.079
25.510,0.242
25.515,-0.282
25.520,-0.114
25.525,0.313
25.530,-0.115
25.535,-0.270
25.540,0.252
25.545,0.068
25.550,-0.359
25.555,0.056
25.560,0.173
25.565,-0.372
25.570,-0.193
25.575,0.239
25.580,-0.183
25.585,-0.327
25.590,0.209
25.595,0.051
25.600,-0.334
25.605,0.135
25.610,0.298
25.615,-0.222
25.620,-0.043
25.625,0.373
25.630,-0.055
25.635,-0.200
25.640,0.320
25.645,0.141
25.650,-0.278
25.655,0.146
25.660,0.290
25.665,-0.234
25.670,-0.061
25.675,0.348
25.680,-0.085
25.685,-0.221
25.690,0.320
25.695,0.115
25.700,-0.419
25.705,-0.241
25.710,-0.467
25.715,-1.272
25.720,-1.053
25.725,-0.208
25.730,-0.043
25.735,0.155
25.740,0.669
25.745,0.365
25.750,-0.134
25.755,0.269
25.760,0.423
25.765,-0.094
25.770,0.076
25.775,0.486
25.780,0.049
25.785,-0.107
25.790,0.411
25.795,0.230
25.800,-0.195
25.805,0.227
25.810,0.363
25.815,-0.171
25.820,0.003
25.825,0.414
25.830,-0.025
25.835,-0.177
25.840,0.340
25.845,0.156
25.850,-0.267
25.855,0.161
25.860,0.305
25.865,-0.226
25.870,-0.054
25.875,0.359
25.880,-0.077
25.885,-0.227
25.890,0.294
25.895,0.113
25.900,-0.306
25.905,0.123
25.910,0.265
25.915,-0.264
25.920,-0.089
25.925,0.320
25.930,-0.123
25.935,-0.278
25.940,0.242
25.945,0.060
25.950,-0.360
25.955,0.068
25.960,0.201
25.965,-0.336
25.970,-0.158
25.975,0.261
25.980,-0.181
25.985,-0.340
25.990,0.177
25.995,-0.009
26.000,-0.426
26.005,0.010
26.010,0.151
26.015,-0.377
26.020,-0.195
26.025,0.221
26.030,-0.212
26.035,-0.357
26.040,0.159
26.045,-0.020
26.050,-0.421
26.055,0.024
26.060,0.181
26.065,-0.327
26.070,-0.127
26.075,0.306
26.080,-0.108
26.085,-0.222
26.090,0.323
26.095,0.159
26.100,-0.233
26.105,0.217
26.110,0.364
26.115,-0.154
26.120,0.035
26.125,0.445
26.130,0.004
26.135,-0.140
26.140,0.378
26.145,0.190
26.150,-0.226
26.155,0.207
26.160,0.343
26.165,-0.182
26.170,0.000
26.175,0.397
26.180,-0.055
26.185,-0.195
26.190,0.331
26.195,0.141
26.200,-0.275
26.205,0.157
26.210,0.285
26.215,-0.244
26.220,-0.057
26.225,0.349
26.230,-0.094
26.235,-0.233
26.240,0.288
26.245,0.099
26.250,-0.311
26.255,0.124
26.260,0.256
26.265,-0.265
26.270,-0.078
26.275,0.324
26.280,-0.117
26.285,-0.252
26.290,0.276
26.295,0.090
26.300,-0.322
26.305,0.118
26.310,0.253
26.315,-0.269
26.320,-0.078
26.325,0.326
26.330,-0.112
26.335,-0.241
26.340,0.280
26.345,0.086
26.350,-0.321
26.355,0.119
26.360,0.247
26.365,-0.275
26.370,-0.079
26.375,0.323
26.380,-0.120
26.385,-0.248
26.390,0.271
26.395,0.074
26.400,-0.325
26.405,0.120
26.410,0.243
26.415,-0.281
26.420,-0.083
26.425,0.323
26.430,-0.120
26.435,-0.250
26.440,0.273
26.445,0.078
26.450,-0.321
26.455,0.121
26.460,0.243
26.465,-0.279
26.470,-0.085
26.475,0.310
26.480,-0.130
26.485,-0.252
26.490,0.265
26.495,0.063
26.500,-0.340
26.505,0.103
26.510,0.235
26.515,-0.285
26.520,-0.091
26.525,0.310
26.530,-0.134
26.535,-0.261
26.540,0.259
26.545,0.059
26.550,-0.340
26.555,0.104
26.560,0.229
26.565,-0.289
26.570,-0.088
26.575,0.307
26.580,-0.143
26.585,-0.260
26.590,0.265
26.595,0.063
26.600,-0.336
26.605,0.110
26.610,0.231
26.615,-0.289
26.620,-0.088
26.625,0.303
26.630,-0.143
26.635,-0.257
26.640,0.262
26.645,0.053
26.650,-0.357
26.655,0.075
26.660,0.177
26.665,-0.369
26.670,-0.174
26.675,0.237
26.680,-0.199
26.685,-0.324
26.690,0.201
26.695,0.018
26.700,-0.354
26.705,0.132
26.710,0.280
26.715,-0.236
26.720,-0.035
26.725,0.358
26.730,-0.086
26.735,-0.196
26.740,0.327
26.745,0.119
26.750,-0.278
26.755,0.168
26.760,0.279
26.765,-0.247
26.770,-0.048
26.775,0.342
26.780,-0.105
26.785,-0.215
26.790,0.324
26.795,0.100
26.800,-0.409
26.805,-0.190
26.810,-0.425
26.815,-1.249
26.820,-1.038
26.825,-0.249
26.830,-0.115
26.835,0.152
26.840,0.708
26.845,0.378
26.850,-0.118
26.855,0.283
26.860,0.389
26.865,-0.122
26.870,0.086
26.875,0.474
26.880,0.016
26.885,-0.108
26.890,0.411
26.895,0.196
26.900,-0.210
26.905,0.236
26.910,0.347
26.915,-0.185
26.920,0.016
26.925,0.409
26.930,-0.050
26.935,-0.174
26.940,0.345
26.945,0.126
26.950,-0.273
26.955,0.183
26.960,0.294
26.965,-0.236
26.970,-0.035
26.975,0.355
26.980,-0.098
26.985,-0.218
26.990,0.300
26.995,0.093
27.000,-0.306
27.005,0.132
27.010,0.239
27.015,-0.282
27.020,-0.070
27.025,0.319
27.030,-0.143
27.035,-0.263
27.040,0.258
27.045,0.044
27.050,-0.361
27.055,0.081
27.060,0.189
27.065,-0.337
27.070,-0.134
27.075,0.252
27.080,-0.209
27.085,-0.330
27.090,0.187
27.095,-0.030
27.100,-0.434
27.105,0.016
27.110,0.136
27.115,-0.385
27.120,-0.176
27.125,0.220
27.130,-0.232
27.135,-0.346
27.140,0.172
27.145,-0.040
27.150,-0.420
27.155,0.045
27.160,0.167
27.165,-0.345
27.170,-0.117
27.175,0.309
27.180,-0.108
27.185,-0.201
27.190,0.332
27.195,0.136
27.200,-0.234
27.205,0.237
27.210,0.357
27.215,-0.155
27.220,0.063
27.225,0.444
27.230,-0.010
27.235,-0.108
27.240,0.409
27.245,0.182
27.250,-0.211
27.255,0.242
27.260,0.341
27.265,-0.183
27.270,0.026
27.275,0.402
27.280,-0.065
27.285,-0.179
27.290,0.340
27.295,0.126
27.300,-0.264
27.305,0.184
27.310,0.284
27.315,-0.247
27.320,-0.041
27.325,0.345
27.330,-0.113
27.335,-0.220
27.340,0.298
27.345,0.072
27.350,-0.319
27.355,0.135
27.360,0.236
27.365,-0.277
27.370,-0.053
27.375,0.329
27.380,-0.135
27.385,-0.245
27.390,0.277
27.395,0.067
27.400,-0.321
27.405,0.128
27.410,0.235
27.415,-0.285
27.420,-0.068
27.425,0.321
27.430,-0.136
27.435,-0.237
27.440,0.289
27.445,0.067
27.450,-0.322
27.455,0.137
27.460,0.237
27.465,-0.280
27.470,-0.051
27.475,0.320
27.480,-0.142
27.485,-0.224
27.490,0.292
27.495,0.054
27.500,-0.326
27.505,0.137
27.510,0.232
27.515,-0.293
27.520,-0.073
27.525,0.310
27.530,-0.147
27.535,-0.241
27.540,0.277
27.545,0.046
27.550,-0.336
27.555,0.123
27.560,0.216
27.565,-0.301
27.570,-0.071
27.575,0.308
27.580,-0.159
27.585,-0.252
27.590,0.274
27.595,0.046
27.600,-0.340
27.605,0.122
27.610,0.219
27.615,-0.299
27.620,-0.070
27.625,0.304
27.630,-0.162
27.635,-0.249
27.640,0.268
27.645,0.036
27.650,-0.336
27.655,0.129
27.660,0.215
27.665,-0.309
27.670,-0.078
27.675,0.300
27.680,-0.160
27.685,-0.244
27.690,0.270
27.695,0.025
27.700,-0.364
27.705,0.084
27.710,0.153
27.715,-0.387
27.720,-0.160
27.725,0.226
27.730,-0.231
27.735,-0.310
27.740,0.220
27.745,-0.008
27.750,-0.352
27.755,0.164
27.760,0.267
27.765,-0.258
27.770,-0.020
27.775,0.360
27.780,-0.107
27.785,-0.201
27.790,0.318
27.795,0.092
27.800,-0.283
27.805,0.177
27.810,0.261
27.815,-0.260
27.820,-0.028
27.825,0.346
27.830,-0.122
27.835,-0.192
27.840,0.333
27.845,0.019
27.850,-0.541
27.855,-0.396
27.860,-0.671
27.865,-1.326
27.870,-0.834
27.875,0.106
27.880,0.152
27.885,0.223
27.890,0.637
27.895,0.278
27.900,-0.156
27.905,0.297
27.910,0.391
27.915,-0.127
27.920,0.102
27.925,0.471
27.930,0.004
27.935,-0.088
27.940,0.418
27.945,0.172
27.950,-0.209
27.955,0.248
27.960,0.327
27.965,-0.193
27.970,0.042
27.975,0.408
27.980,-0.069
27.985,-0.157
27.990,0.356
27.995,0.110
28.000,-0.264
28.005,0.199
28.010,0.273
28.015,-0.248
28.020,-0.009
28.025,0.353
28.030,-0.127
28.035,-0.208
28.040,0.309
28.045,0.064
28.050,-0.304
28.055,0.162
28.060,0.232
28.065,-0.293
28.070,-0.057
28.075,0.308
28.080,-0.167
28.085,-0.255
28.090,0.257
28.095,0.011
28.100,-0.366
28.105,0.096
28.110,0.167
28.115,-0.359
28.120,-0.118
28.125,0.248
28.130,-0.232
28.135,-0.320
28.140,0.191
28.145,-0.059
28.150,-0.428
28.155,0.045
28.160,0.116
28.165,-0.402
28.170,-0.149
28.175,0.219
28.180,-0.255
28.185,-0.327
28.190,0.194
28.195,-0.049
28.200,-0.411
28.205,0.073
28.210,0.168
28.215,-0.328
28.220,-0.059
28.225,0.331
28.230,-0.122
28.235,-0.177
28.240,0.361
28.245,0.135
28.250,-0.217
28.255,0.263
28.260,0.341
28.265,-0.174
28.270,0.076
28.275,0.438
28.280,-0.037
28.285,-0.106
28.290,0.408
28.295,0.154
28.300,-0.212
28.305,0.257
28.310,0.318
28.315,-0.205
28.320,0.041
28.325,0.395
28.330,-0.093
28.335,-0.165
28.340,0.354
28.345,0.098
28.350,-0.279
28.355,0.183
28.360,0.254
28.365,-0.265
28.370,-0.025
28.375,0.334
28.380,-0.139
28.385,-0.210
28.390,0.306
28.395,0.055
28.400,-0.312
28.405,0.157
28.410,0.230
28.415,-0.286
28.420,-0.039
28.425,0.320
28.430,-0.153
28.435,-0.220
28.440,0.296
28.445,0.045
28.450,-0.318
28.455,0.157
28.460,0.228
28.465,-0.289
28.470,-0.039
28.475,0.321
28.480,-0.154
28.485,-0.222
28.490,0.298
28.495,0.048
28.500,-0.312
28.505,0.163
28.510,0.224
28.515,-0.296
28.520,-0.040
28.525,0.320
28.530,-0.155
28.535,-0.224
28.540,0.293
28.545,0.046
28.550,-0.319
28.555,0.155
28.560,0.227
28.565,-0.299
28.570,-0.053
28.575,0.314
28.580,-0.158
28.585,-0.230
28.590,0.291
28.595,0.044
28.600,-0.327
28.605,0.142
28.610,0.217
28.615,-0.300
28.620,-0.050
28.625,0.316
28.630,-0.160
28.635,-0.229
28.640,0.291
28.645,0.038
28.650,-0.330
28.655,0.145
28.660,0.217
28.665,-0.301
28.670,-0.051
28.675,0.310
28.680,-0.167
28.685,-0.234
28.690,0.286
28.695,0.033
28.700,-0.332
28.705,0.142
28.710,0.209
28.715,-0.305
28.720,-0.052
28.725,0.307
28.730,-0.167
28.735,-0.229
28.740,0.284
28.745,0.016
28.750,-0.359
28.755,0.099
28.760,0.137
28.765,-0.394
28.770,-0.130
28.775,0.239
28.780,-0.237
28.785,-0.290
28.790,0.239
28.795,-0.006
28.800,-0.327
28.805,0.189
28.810,0.260
28.815,-0.256
28.820,0.003
28.825,0.360
28.830,-0.117
28.835,-0.175
28.840,0.343
28.845,0.085
28.850,-0.279
28.855,0.191
28.860,0.251
28.865,-0.265
28.870,-0.012
28.875,0.339
28.880,-0.139
28.885,-0.182
28.890,0.326
28.895,-0.033
28.900,-0.611
28.905,-0.483
28.910,-0.748
28.915,-1.320
28.920,-0.712
28.925,0.256
28.930,0.220
28.935,0.227
28.940,0.613
28.945,0.239
28.950,-0.156
28.955,0.323
28.960,0.383
28.965,-0.127
28.970,0.136
28.975,0.477
28.980,-0.012
28.985,-0.071
28.990,0.431
28.995,0.154
29.000,-0.196
29.005,0.278
29.010,0.313
29.015,-0.198
29.020,0.072
29.025,0.400
29.030,-0.094
29.035,-0.140
29.040,0.366
29.045,0.091
29.050,-0.261
29.055,0.212
29.060,0.252
29.065,-0.263
29.070,0.007
29.075,0.345
29.080,-0.142
29.085,-0.183
29.090,0.323
29.095,0.041
29.100,-0.306
29.105,0.174
29.110,0.209
29.115,-0.308
29.120,-0.042
29.125,0.295
29.130,-0.189
29.135,-0.240
29.140,0.261
29.145,-0.021
29.150,-0.381
29.155,0.099
29.160,0.151
29.165,-0.373
29.170,-0.113
29.175,0.237
29.180,-0.250
29.185,-0.306
29.190,0.204
29.195,-0.065
29.200,-0.409
29.205,0.070
29.210,0.105
29.215,-0.402
29.220,-0.121
29.225,0.211
29.230,-0.274
29.235,-0.302
29.240,0.207
29.245,-0.070
29.250,-0.397
29.255,0.101
29.260,0.150
29.265,-0.333
29.270,-0.028
29.275,0.323
29.280,-0.145
29.285,-0.154
29.290,0.371
29.295,0.103
29.300,-0.216
29.305,0.282
29.310,0.317
29.315,-0.190
29.320,0.094
29.325,0.427
29.330,-0.060
29.335,-0.093
29.340,0.406
29.345,0.118
29.350,-0.215
29.355,0.268
29.360,0.288
29.365,-0.224
29.370,0.058
29.375,0.384
29.380,-0.111
29.385,-0.150
29.390,0.349
29.395,0.064
29.400,-0.270
29.405,0.211
29.410,0.233
29.415,-0.278
29.420,-0.002
29.425,0.322
29.430,-0.162
29.435,-0.190
29.440,0.310
29.445,0.028
29.450,-0.296
29.455,0.187
29.460,0.204
29.465,-0.298
29.470,-0.004
29.475,0.315
29.480,-0.175
29.485,-0.188
29.490,0.312
29.495,0.018
29.500,-0.301
29.505,0.189
29.510,0.203
29.515,-0.297
29.520,-0.002
29.525,0.313
29.530,-0.179
29.535,-0.190
29.540,0.308
29.545,0.010
29.550,-0.304
29.555,0.188
29.560,0.197
29.565,-0.304
29.570,-0.007
29.575,0.308
29.580,-0.184
29.585,-0.194
29.590,0.304
29.595,0.006
29.600,-0.307
29.605,0.184
29.610,0.191
29.615,-0.308
29.620,-0.012
29.625,0.301
29.630,-0.189
29.635,-0.198
29.640,0.299
29.645,0.001
29.650,-0.314
29.655,0.179
29.660,0.186
29.665,-0.313
29.670,-0.015
29.675,0.295
29.680,-0.197
29.685,-0.203
29.690,0.292
29.695,-0.008
29.700,-0.315
29.705,0.175
29.710,0.180
29.715,-0.315
29.720,-0.019
29.725,0.288
29.730,-0.204
29.735,-0.208
29.740,0.288
29.745,-0.019
29.750,-0.329
29.755,0.175
29.760,0.184
29.765,-0.320
29.770,-0.021
29.775,0.293
29.780,-0.203
29.785,-0.215
29.790,0.288
29.795,-0.004
29.800,-0.321
29.805,0.171
29.810,0.175
29.815,-0.339
29.820,-0.058
29.825,0.231
29.830,-0.285
29.835,-0.296
29.840,0.214
29.845,-0.075
29.850,-0.386
29.855,0.114
29.860,0.133
29.865,-0.343
29.870,0.006
29.875,0.343
29.880,-0.155
29.885,-0.157
29.890,0.350
29.895,0.049
29.900,-0.263
29.905,0.232
29.910,0.236
29.915,-0.264
29.920,0.035
29.925,0.339
29.930,-0.158
29.935,-0.161
29.940,0.334
29.945,0.027
29.950,-0.271
29.955,0.241
29.960,0.204
29.965,-0.428
29.970,-0.383
29.975,-0.446
29.980,-1.210
29.985,-1.137
29.990,-0.180
29.995,0.105
30.000,0.113
30.005,0.586
30.010,0.465
30.015,-0.116
30.020,0.153
30.025,0.462
30.030,-0.026
30.035,-0.026
30.040,0.469
30.045,0.157
30.050,-0.162
30.055,0.324
30.060,0.317
30.065,-0.187
30.070,0.113
30.075,0.412
30.080,-0.092
30.085,-0.100
30.090,0.389
30.095,0.076
30.100,-0.245
30.105,0.243
30.110,0.245
30.115,-0.259
30.120,0.040
30.125,0.351
30.130,-0.152
30.135,-0.163
30.140,0.335
30.145,0.031
30.150,-0.286
30.155,0.203
30.160,0.203
30.165,-0.304
30.170,-0.005
30.175,0.310
30.180,-0.192
30.185,-0.203
30.190,0.297
30.195,-0.012
30.200,-0.331
30.205,0.158
30.210,0.154
30.215,-0.350
30.220,-0.046
30.225,0.256
30.230,-0.254
30.235,-0.263
30.240,0.232
30.245,-0.080
30.250,-0.395
30.255,0.101
30.260,0.101
30.265,-0.403
30.270,-0.103
30.275,0.207
30.280,-0.291
30.285,-0.292
30.290,0.208
30.295,-0.098
30.300,-0.407
30.305,0.095
30.310,0.101
30.315,-0.394
30.320,-0.079
30.325,0.245
30.330,-0.235
30.335,-0.215
30.340,0.305
30.345,0.020
30.350,-0.266
30.355,0.253
30.360,0.277
30.365,-0.207
30.370,0.102
30.375,0.415
30.380,-0.076
30.385,-0.068
30.390,0.441
30.395,0.133
30.400,-0.182
30.405,0.311
30.410,0.307
30.415,-0.196
30.420,0.107
30.425,0.408
30.430,-0.096
30.435,-0.102
30.440,0.387
30.445,0.070
30.450,-0.240
30.455,0.259
30.460,0.257
30.465,-0.251
30.470,0.048
30.475,0.346
30.480,-0.158
30.485,-0.159
30.490,0.334
30.495,0.018
30.500,-0.292
30.505,0.210
30.510,0.209
30.515,-0.296
30.520,0.013
30.525,0.318
30.530,-0.188
30.535,-0.188
30.540,0.311
30.545,-0.001
30.550,-0.308
30.555,0.192
30.560,0.183
30.565,-0.334
30.570,-0.050
30.575,0.226
30.580,-0.299
30.585,-0.302
30.590,0.205
30.595,-0.100
30.600,-0.406
30.605,0.101
30.610,0.113
30.615,-0.376
30.620,-0.041
30.625,0.304
30.630,-0.175
30.635,-0.154
30.640,0.364
30.645,0.062
30.650,-0.229
30.655,0.288
30.660,0.286
30.665,-0.211
30.670,0.101
30.675,0.400
30.680,-0.103
30.685,-0.095
30.690,0.399
30.695,0.085
30.700,-0.213
30.705,0.276
30.710,0.252
30.715,-0.244
30.720,0.068
30.725,0.362
30.730,-0.121
30.735,-0.105
30.740,0.307
30.745,-0.197
30.750,-0.819
30.755,-0.687
30.760,-0.823
30.765,-1.027
30.770,-0.145
30.775,0.624
30.780,0.253
30.785,0.162
30.790,0.537
30.795,0.154
30.800,-0.164
30.805,0.343
30.810,0.331
30.815,-0.165
30.820,0.148
30.825,0.436
30.830,-0.075
30.835,-0.068
30.840,0.414
30.845,0.081
30.850,-0.216
30.855,0.281
30.860,0.248
30.865,-0.249
30.870,0.068
30.875,0.345
30.880,-0.163
30.885,-0.143
30.890,0.340
30.895,0.009
30.900,-0.289
30.905,0.211
30.910,0.188
30.915,-0.309
30.920,0.006
30.925,0.286
30.930,-0.216
30.935,-0.190
30.940,0.293
30.945,-0.043
30.950,-0.339
30.955,0.166
30.960,0.144
30.965,-0.361
30.970,-0.049
30.975,0.241
30.980,-0.266
30.985,-0.255
30.990,0.234
30.995,-0.096
31.000,-0.403
31.005,0.092
31.010,0.073
31.015,-0.426
31.020,-0.111
31.025,0.177
31.030,-0.335
31.035,-0.321
31.040,0.173
31.045,-0.154
31.050,-0.457
31.055,0.050
31.060,0.042
31.065,-0.445
31.070,-0.121
31.075,0.169
31.080,-0.334
31.085,-0.308
31.090,0.195
31.095,-0.112
31.100,-0.383
31.105,0.153
31.110,0.170
31.115,-0.295
31.120,0.054
31.125,0.366
31.130,-0.123
31.135,-0.089
31.140,0.408
31.145,0.093
31.150,-0.185
31.155,0.320
31.160,0.295
31.165,-0.197
31.170,0.123
31.175,0.408
31.180,-0.096
31.185,-0.069
31.190,0.417
31.195,0.077
31.200,-0.215
31.205,0.290
31.210,0.254
31.215,-0.237
31.220,0.098
31.225,0.369
31.230,-0.155
31.235,-0.128
31.240,0.356
31.245,0.014
31.250,-0.267
31.255,0.247
31.260,0.210
31.265,-0.288
31.270,0.044
31.275,0.324
31.280,-0.190
31.285,-0.162
31.290,0.324
31.295,-0.007
31.300,-0.289
31.305,0.213
31.310,0.180
31.315,-0.309
31.320,0.023
31.325,0.308
31.330,-0.197
31.335,-0.163
31.340,0.323
31.345,-0.014
31.350,-0.296
31.355,0.212
31.360,0.178
31.365,-0.308
31.370,0.033
31.375,0.312
31.380,-0.205
31.385,-0.174
31.390,0.314
31.395,-0.021
31.400,-0.302
31.405,0.201
31.410,0.169
31.415,-0.307
31.420,0.029
31.425,0.302
31.430,-0.208
31.435,-0.171
31.440,0.315
31.445,-0.024
31.450,-0.302
31.455,0.206
31.460,0.168
31.465,-0.323
31.470,0.015
31.475,0.295
31.480,-0.220
31.485,-0.188
31.490,0.299
31.495,-0.040
31.500,-0.314
31.505,0.199
31.510,0.160
31.515,-0.326
31.520,0.016
31.525,0.291
31.530,-0.226
31.535,-0.190
31.540,0.303
31.545,-0.032
31.550,-0.310
31.555,0.199
31.560,0.157
31.565,-0.329
31.570,0.007
31.575,0.281
31.580,-0.229
31.585,-0.196
31.590,0.292
31.595,-0.040
31.600,-0.317
31.605,0.197
31.610,0.161
31.615,-0.326
31.620,0.011
31.625,0.282
31.630,-0.227
31.635,-0.183
31.640,0.303
31.645,-0.038
31.650,-0.315
31.655,0.198
31.660,0.157
31.665,-0.329
31.670,0.017
31.675,0.290
31.680,-0.223
31.685,-0.177
31.690,0.305
31.695,-0.045
31.700,-0.317
31.705,0.193
31.710,0.148
31.715,-0.330
31.720,0.016
31.725,0.280
31.730,-0.236
31.735,-0.187
31.740,0.302
31.745,-0.038
31.750,-0.306
31.755,0.206
31.760,0.154
31.765,-0.324
31.770,0.033
31.775,0.291
31.780,-0.226
31.785,-0.166
31.790,0.310
31.795,-0.049
31.800,-0.318
31.805,0.174
31.810,0.089
31.815,-0.408
31.820,-0.062
31.825,0.197
31.830,-0.320
31.835,-0.279
31.840,0.193
31.845,-0.136
31.850,-0.357
31.855,0.180
31.860,0.118
31.865,-0.359
31.870,0.027
31.875,0.329
31.880,-0.159
31.885,-0.092
31.890,0.384
31.895,0.035
31.900,-0.217
31.905,0.296
31.910,0.235
31.915,-0.244
31.920,0.104
31.925,0.355
31.930,-0.159
31.935,-0.103
31.940,0.373
31.945,0.020
31.950,-0.252
31.955,0.256
31.960,0.221
31.965,-0.241
31.970,0.058
31.975,0.167
31.980,-0.627
31.985,-0.939
31.990,-0.688
31.995,-0.894
32.000,-0.636
32.005,0.437
32.010,0.618
32.015,0.077
32.020,0.307
32.025,0.485
32.030,-0.060
32.035,0.008
32.040,0.488
32.045,0.132
32.050,-0.124
32.055,0.377
32.060,0.300
32.065,-0.184
32.070,0.166
32.075,0.418
32.080,-0.099
32.085,-0.049
32.090,0.411
32.095,0.049
32.100,-0.209
32.105,0.298
32.110,0.229
32.115,-0.251
32.120,0.098
32.125,0.345
32.130,-0.172
32.135,-0.112
32.140,0.350
32.145,-0.015
32.150,-0.265
32.155,0.243
32.160,0.169
32.165,-0.299
32.170,0.059
32.175,0.298
32.180,-0.224
32.185,-0.163
32.190,0.295
32.195,-0.070
32.200,-0.312
32.205,0.200
32.210,0.119
32.215,-0.358
32.220,0.000
32.225,0.238
32.230,-0.284
32.235,-0.215
32.240,0.248
32.245,-0.124
32.250,-0.376
32.255,0.131
32.260,0.052
32.265,-0.422
32.270,-0.059
32.275,0.188
32.280,-0.328
32.285,-0.258
32.290,0.208
32.295,-0.158
32.300,-0.407
32.305,0.112
32.310,0.049
32.315,-0.424
32.320,-0.063
32.325,0.195
32.330,-0.312
32.335,-0.234
32.340,0.252
32.345,-0.090
32.350,-0.315
32.355,0.223
32.360,0.170
32.365,-0.284
32.370,0.099
32.375,0.367
32.380,-0.133
32.385,-0.059
32.390,0.412
32.395,0.058
32.400,-0.183
32.405,0.333
32.410,0.263
32.415,-0.212
32.420,0.151
32.425,0.394
32.430,-0.130
32.435,-0.062
32.440,0.405
32.445,0.036
32.450,-0.215
32.455,0.299
32.460,0.221
32.465,-0.259
32.470,0.101
32.475,0.345
32.480,-0.181
32.485,-0.115
32.490,0.353
32.495,-0.017
32.500,-0.267
32.505,0.247
32.510,0.169
32.515,-0.300
32.520,0.068
32.525,0.309
32.530,-0.212
32.535,-0.137
32.540,0.329
32.545,-0.039
32.550,-0.279
32.555,0.240
32.560,0.165
32.565,-0.307
32.570,0.060
32.575,0.306
32.580,-0.212
32.585,-0.135
32.590,0.336
32.595,-0.032
32.600,-0.274
32.605,0.245
32.610,0.170
32.615,-0.297
32.620,0.071
32.625,0.313
32.630,-0.205
32.635,-0.130
32.640,0.335
32.645,-0.035
32.650,-0.275
32.655,0.242
32.660,0.162
32.665,-0.309
32.670,0.060
32.675,0.300
32.680,-0.222
32.685,-0.147
32.690,0.325
32.695,-0.041
32.700,-0.284
32.705,0.230
32.710,0.148
32.715,-0.318
32.720,0.055
32.725,0.293
32.730,-0.227
32.735,-0.144
32.740,0.323
32.745,-0.050
32.750,-0.292
32.755,0.228
32.760,0.147
32.765,-0.322
32.770,0.048
32.775,0.284
32.780,-0.240
32.785,-0.159
32.790,0.311
32.795,-0.064
32.800,-0.301
32.805,0.225
32.810,0.139
32.815,-0.333
32.820,0.043
32.825,0.279
32.830,-0.244
32.835,-0.158
32.840,0.309
32.845,-0.066
32.850,-0.301
32.855,0.219
32.860,0.133
32.865,-0.331
32.870,0.048
32.875,0.281
32.880,-0.252
32.885,-0.178
32.890,0.271
32.895,-0.129
32.900,-0.389
32.905,0.112
32.910,0.021
32.915,-0.444
32.920,-0.050
32.925,0.219
32.930,-0.293
32.935,-0.209
32.940,0.283
32.945,-0.055
32.950,-0.254
32.955,0.291
32.960,0.204
32.965,-0.263
32.970,0.120
32.975,0.353
32.980,-0.170
32.985,-0.079
32.990,0.384
32.995,-0.002
33.000,-0.240
33.005,0.278
33.010,0.183
33.015,-0.281
33.020,0.098
33.025,0.323
33.030,-0.197
33.035,-0.086
33.040,0.370
33.045,-0.100
33.050,-0.527
33.055,-0.340
33.060,-0.776
33.065,-1.333
33.070,-0.656
33.075,0.155
33.080,0.109
33.085,0.308
33.090,0.648
33.095,0.154
33.100,-0.118
33.105,0.390
33.110,0.294
33.115,-0.162
33.120,0.220
33.125,0.434
33.130,-0.094
33.135,-0.004
33.140,0.443
33.145,0.055
33.150,-0.173
33.155,0.337
33.160,0.229
33.165,-0.236
33.170,0.141
33.175,0.354
33.180,-0.174
33.185,-0.076
33.190,0.374
33.195,-0.018
33.200,-0.240
33.205,0.280
33.210,0.172
33.215,-0.289
33.220,0.093
33.225,0.301
33.230,-0.224
33.235,-0.119
33.240,0.329
33.245,-0.067
33.250,-0.284
33.255,0.237
33.260,0.122
33.265,-0.341
33.270,0.048
33.275,0.256
33.280,-0.278
33.285,-0.171
33.290,0.276
33.295,-0.125
33.300,-0.341
33.305,0.178
33.310,0.063
33.315,-0.400
33.320,-0.014
33.325,0.192
33.330,-0.333
33.335,-0.223
33.340,0.221
33.345,-0.179
33.350,-0.388
33.355,0.133
33.360,0.018
33.365,-0.431
33.370,-0.032
33.375,0.175
33.380,-0.347
33.385,-0.227
33.390,0.227
33.395,-0.162
33.400,-0.359
33.405,0.175
33.410,0.076
33.415,-0.356
33.420,0.064
33.425,0.296
33.430,-0.207
33.435,-0.071
33.440,0.397
33.445,0.014
33.450,-0.181
33.455,0.348
33.460,0.234
33.465,-0.210
33.470,0.191
33.475,0.395
33.480,-0.134
33.485,-0.015
33.490,0.434
33.495,0.031
33.500,-0.174
33.505,0.342
33.510,0.209
33.515,-0.243
33.520,0.155
33.525,0.353
33.530,-0.173
33.535,-0.059
33.540,0.375
33.545,-0.030
33.550,-0.235
33.555,0.279
33.560,0.153
33.565,-0.296
33.570,0.101
33.575,0.295
33.580,-0.233
33.585,-0.113
33.590,0.325
33.595,-0.077
33.600,-0.273
33.605,0.250
33.610,0.126
33.615,-0.321
33.620,0.078
33.625,0.277
33.630,-0.252
33.635,-0.130
33.640,0.319
33.645,-0.079
33.650,-0.281
33.655,0.240
33.660,0.116
33.665,-0.328
33.670,0.081
33.675,0.282
33.680,-0.243
33.685,-0.117
33.690,0.327
33.695,-0.078
33.700,-0.276
33.705,0.248
33.710,0.123
33.715,-0.319
33.720,0.085
33.725,0.280
33.730,-0.249
33.735,-0.124
33.740,0.323
33.745,-0.081
33.750,-0.278
33.755,0.251
33.760,0.124
33.765,-0.328
33.770,0.077
33.775,0.277
33.780,-0.256
33.785,-0.132
33.790,0.324
33.795,-0.080
33.800,-0.285
33.805,0.242
33.810,0.116
33.815,-0.334
33.820,0.071
33.825,0.269
33.830,-0.263
33.835,-0.134
33.840,0.321
33.845,-0.082
33.850,-0.283
33.855,0.241
33.860,0.113
33.865,-0.334
33.870,0.067
33.875,0.264
33.880,-0.260
33.885,-0.131
33.890,0.316
33.895,-0.093
33.900,-0.294
33.905,0.235
33.910,0.109
33.915,-0.343
33.920,0.059
33.925,0.262
33.930,-0.262
33.935,-0.137
33.940,0.309
33.945,-0.094
33.950,-0.286
33.955,0.237
33.960,0.084
33.965,-0.399
33.970,-0.020
33.975,0.167
33.980,-0.367
33.985,-0.247
33.990,0.191
33.995,-0.201
34.000,-0.354
34.005,0.195
34.010,0.061
34.015,-0.365
34.020,0.080
34.025,0.308
34.030,-0.194
34.035,-0.053
34.040,0.395
34.045,-0.011
34.050,-0.204
34.055,0.324
34.060,0.192
34.065,-0.257
34.070,0.149
34.075,0.341
34.080,-0.189
34.085,-0.057
34.090,0.382
34.095,-0.034
34.100,-0.230
34.105,0.292
34.110,0.167
34.115,-0.249
34.120,0.122
34.125,0.152
34.130,-0.646
34.135,-0.867
34.140,-0.678
34.145,-0.966
34.150,-0.648
34.155,0.435
34.160,0.557
34.165,0.069
34.170,0.350
34.175,0.454
34.180,-0.102
34.185,0.045
34.190,0.489
34.195,0.071
34.200,-0.115
34.205,0.403
34.210,0.251
34.215,-0.187
34.220,0.218
34.225,0.383
34.230,-0.150
34.235,-0.006
34.240,0.421
34.245,-0.007
34.250,-0.190
34.255,0.331
34.260,0.172
34.265,-0.269
34.270,0.147
34.275,0.319
34.280,-0.213
34.285,-0.068
34.290,0.363
34.295,-0.065
34.300,-0.248
34.305,0.280
34.310,0.121
34.315,-0.318
34.320,0.099
34.325,0.264
34.330,-0.268
34.335,-0.120
34.340,0.308
34.345,-0.113
34.350,-0.290
34.355,0.229
34.360,0.071
34.365,-0.365
34.370,0.049
34.375,0.211
34.380,-0.321
34.385,-0.166
34.390,0.256
34.395,-0.175
34.400,-0.350
34.405,0.167
34.410,0.003
34.415,-0.431
34.420,-0.012
34.425,0.154
34.430,-0.376
34.435,-0.218
34.440,0.210
34.445,-0.213
34.450,-0.378
34.455,0.154
34.460,-0.003
34.465,-0.434
34.470,-0.001
34.475,0.176
34.480,-0.340
34.485,-0.161
34.490,0.286
34.495,-0.117
34.500,-0.255
34.505,0.293
34.510,0.150
34.515,-0.257
34.520,0.186
34.525,0.361
34.530,-0.156
34.535,0.017
34.540,0.449
34.545,0.025
34.550,-0.138
34.555,0.385
34.560,0.218
34.565,-0.211
34.570,0.213
34.575,0.373
34.580,-0.159
34.585,-0.001
34.590,0.417
34.595,-0.023
34.600,-0.194
34.605,0.333
34.610,0.167
34.615,-0.266
34.620,0.154
34.625,0.312
34.630,-0.221
34.635,-0.063
34.640,0.359
34.645,-0.071
34.650,-0.239
34.655,0.281
34.660,0.113
34.665,-0.314
34.670,0.113
34.675,0.269
34.680,-0.263
34.685,-0.097
34.690,0.327
34.695,-0.099
34.700,-0.254
34.705,0.274
34.710,0.103
34.715,-0.324
34.720,0.107
34.725,0.269
34.730,-0.263
34.735,-0.099
34.740,0.328
34.745,-0.103
34.750,-0.265
34.755,0.265
34.760,0.099
34.765,-0.325
34.770,0.107
34.775,0.266
34.780,-0.268
34.785,-0.099
34.790,0.330
34.795,-0.101
34.800,-0.262
34.805,0.265
34.810,0.093
34.815,-0.330
34.820,0.104
34.825,0.257
34.830,-0.277
34.835,-0.101
34.840,0.327
34.845,-0.107
34.850,-0.265
34.855,0.264
34.860,0.093
34.865,-0.332
34.870,0.099
34.875,0.253
34.880,-0.279
34.885,-0.105
34.890,0.320
34.895,-0.117
34.900,-0.278
34.905,0.252
34.910,0.087
34.915,-0.335
34.920,0.096
34.925,0.250
34.930,-0.277
34.935,-0.104
34.940,0.314
34.945,-0.119
34.950,-0.268
34.955,0.259
34.960,0.078
34.965,-0.345
34.970,0.091
34.975,0.240
34.980,-0.287
34.985,-0.109
34.990,0.312
34.995,-0.126
35.000,-0.278
35.005,0.251
35.010,0.076
35.015,-0.339
35.020,0.098
35.025,0.241
35.030,-0.290
35.035,-0.108
35.040,0.310
35.045,-0.123
35.050,-0.270
35.055,0.240
35.060,0.034
35.065,-0.412
35.070,0.004
35.075,0.139
35.080,-0.399
35.085,-0.223
35.090,0.194
35.095,-0.223
35.100,-0.334
35.105,0.206
35.110,0.030
35.115,-0.365
35.120,0.113
35.125,0.298
35.130,-0.214
35.135,-0.025
35.140,0.402
35.145,-0.036
35.150,-0.184
35.155,0.346
35.160,0.159
35.165,-0.261
35.170,0.180
35.175,0.320
35.180,-0.213
35.185,-0.033
35.190,0.380
35.195,-0.062
35.200,-0.211
35.205,0.313
35.210,0.145
35.215,-0.256
35.220,0.128
35.225,0.112
35.230,-0.706
35.235,-0.885
35.240,-0.662
35.245,-0.914
35.250,-0.537
35.255,0.519
35.260,0.550
35.265,0.062
35.270,0.374
35.275,0.438
35.280,-0.118
35.285,0.075
35.290,0.495
35.295,0.043
35.300,-0.105
35.305,0.419
35.310,0.221
35.315,-0.200
35.320,0.243
35.325,0.373
35.330,-0.167
35.335,0.019
35.340,0.420
35.345,-0.037
35.350,-0.177
35.355,0.344
35.360,0.144
35.365,-0.271
35.370,0.168
35.375,0.295
35.380,-0.237
35.385,-0.046
35.390,0.357
35.395,-0.096
35.400,-0.232
35.405,0.293
35.410,0.099
35.415,-0.311
35.420,0.129
35.425,0.254
35.430,-0.282
35.435,-0.092
35.440,0.317
35.445,-0.137
35.450,-0.277
35.455,0.246
35.460,0.045
35.465,-0.368
35.470,0.076
35.475,0.200
35.480,-0.341
35.485,-0.153
35.490,0.252
35.495,-0.202
35.500,-0.342
35.505,0.179
35.510,-0.026
35.515,-0.442
35.520,-0.002
35.525,0.125
35.530,-0.400
35.535,-0.199
35.540,0.209
35.545,-0.237
35.550,-0.364
35.555,0.161
35.560,-0.042
35.565,-0.443
35.570,0.016
35.575,0.150
35.580,-0.366
35.585,-0.145
35.590,0.285
35.595,-0.140
35.600,-0.247
35.605,0.302
35.610,0.122
35.615,-0.264
35.620,0.205
35.625,0.345
35.630,-0.176
35.635,0.040
35.640,0.453
35.645,0.001
35.650,-0.125
35.655,0.401
35.660,0.197
35.665,-0.207
35.670,0.239
35.675,0.352
35.680,-0.177
35.685,0.033
35.690,0.430
35.695,-0.035
35.700,-0.167
35.705,0.351
35.710,0.137
35.715,-0.267
35.720,0.180
35.725,0.290
35.730,-0.244
35.735,-0.043
35.740,0.355
35.745,-0.101
35.750,-0.226
35.755,0.298
35.760,0.089
35.765,-0.316
35.770,0.134
35.775,0.247
35.780,-0.281
35.785,-0.066
35.790,0.330
35.795,-0.133
35.800,-0.247
35.805,0.284
35.810,0.074
35.815,-0.322
35.820,0.132
35.825,0.239
35.830,-0.290
35.835,-0.068
35.840,0.332
35.845,-0.133
35.850,-0.250
35.855,0.284
35.860,0.078
35.865,-0.328
35.870,0.125
35.875,0.250
35.880,-0.284
35.885,-0.078
35.890,0.334
35.895,-0.120
35.900,-0.249
35.905,0.282
35.910,0.082
35.915,-0.323
35.920,0.125
35.925,0.239
35.930,-0.290
35.935,-0.077
35.940,0.323
35.945,-0.136
35.950,-0.255
35.955,0.274
35.960,0.068
35.965,-0.328
35.970,0.128
35.975,0.243
35.980,-0.285
35.985,-0.074
35.990,0.319
35.995,-0.139
36.000,-0.246
36.005,0.280
36.010,0.060
36.015,-0.333
36.020,0.132
36.025,0.235
36.030,-0.300
36.035,-0.077
36.040,0.321
36.045,-0.144
36.050,-0.256
36.055,0.271
36.060,0.056
36.065,-0.339
36.070,0.119
36.075,0.226
36.080,-0.304
36.085,-0.083
36.090,0.311
36.095,-0.147
36.100,-0.252
36.105,0.276
36.110,0.055
36.115,-0.353
36.120,0.077
36.125,0.149
36.130,-0.393
36.135,-0.172
36.140,0.208
36.145,-0.268
36.150,-0.370
36.155,0.183
36.160,-0.002
36.165,-0.378
36.170,0.087
36.175,0.206
36.180,-0.282
36.185,-0.020
36.190,0.384
36.195,-0.070
36.200,-0.167
36.205,0.355
36.210,0.130
36.215,-0.257
36.220,0.206
36.225,0.305
36.230,-0.224
36.235,-0.002
36.240,0.379
36.245,-0.091
36.250,-0.190
36.255,0.331
36.260,0.097
36.265,-0.283
36.270,0.201
36.275,0.292
36.280,-0.319
36.285,-0.279
36.290,-0.218
36.295,-1.028
36.300,-1.229
36.305,-0.421
36.310,-0.076
36.315,0.018
36.320,0.594
36.325,0.570
36.330,-0.070
36.335,0.103
36.340,0.470
36.345,0.017
36.350,-0.075
36.355,0.440
36.360,0.204
36.365,-0.183
36.370,0.272
36.375,0.349
36.380,-0.183
36.385,0.044
36.390,0.417
36.395,-0.053
36.400,-0.148
36.405,0.371
36.410,0.133
36.415,-0.256
36.420,0.207
36.425,0.290
36.430,-0.245
36.435,-0.016
36.440,0.362
36.445,-0.111
36.450,-0.206
36.455,0.316
36.460,0.079
36.465,-0.307
36.470,0.155
36.475,0.239
36.480,-0.288
36.485,-0.054
36.490,0.317
36.495,-0.161
36.500,-0.251
36.505,0.270
36.510,0.025
36.515,-0.361
36.520,0.105
36.525,0.183
36.530,-0.349
36.535,-0.112
36.540,0.261
36.545,-0.220
36.550,-0.312
36.555,0.206
36.560,-0.041
36.565,-0.422
36.570,0.043
36.575,0.115
36.580,-0.419
36.585,-0.179
36.590,0.202
36.595,-0.268
36.600,-0.349
36.605,0.178
36.610,-0.065
36.615,-0.443
36.620,0.033
36.625,0.117
36.630,-0.399
36.635,-0.146
36.640,0.240
36.645,-0.217
36.650,-0.276
36.655,0.280
36.660,0.071
36.665,-0.278
36.670,0.213
36.675,0.304
36.680,-0.198
36.685,0.066
36.690,0.438
36.695,-0.034
36.700,-0.101
36.705,0.420
36.710,0.169
36.715,-0.195
36.720,0.278
36.725,0.339
36.730,-0.188
36.735,0.062
36.740,0.423
36.745,-0.066
36.750,-0.145
36.755,0.377
36.760,0.122
36.765,-0.254
36.770,0.221
36.775,0.289
36.780,-0.239
36.785,0.004
36.790,0.362
36.795,-0.121
36.800,-0.201
36.805,0.317
36.810,0.064
36.815,-0.313
36.820,0.160
36.825,0.232
36.830,-0.295
36.835,-0.046
36.840,0.323
36.845,-0.161
36.850,-0.239
36.855,0.288
36.860,0.038
36.865,-0.331
36.870,0.153
36.875,0.227
36.880,-0.293
36.885,-0.037
36.890,0.319
36.895,-0.162
36.900,-0.219
36.905,0.302
36.910,0.040
36.915,-0.319
36.920,0.162
36.925,0.222
36.930,-0.294
36.935,-0.033
36.940,0.323
36.945,-0.158
36.950,-0.218
36.955,0.295
36.960,0.033
36.965,-0.318
36.970,0.164
36.975,0.219
36.980,-0.299
36.985,-0.037
36.990,0.316
36.995,-0.166
37.000,-0.218
37.005,0.297
37.010,0.026
37.015,-0.326
37.020,0.162
37.025,0.214
37.030,-0.304
37.035,-0.036
37.040,0.312
37.045,-0.177
37.050,-0.227
37.055,0.291
37.060,0.024
37.065,-0.323
37.070,0.162
37.075,0.207
37.080,-0.312
37.085,-0.042
37.090,0.306
37.095,-0.179
37.100,-0.227
37.105,0.290
37.110,0.022
37.115,-0.328
37.120,0.156
37.125,0.201
37.130,-0.314
37.135,-0.041
37.140,0.307
37.145,-0.179
37.150,-0.223
37.155,0.291
37.160,0.016
37.165,-0.332
37.170,0.154
37.175,0.199
37.180,-0.319
37.185,-0.045
37.190,0.303
37.195,-0.197
37.200,-0.271
37.205,0.209
37.210,-0.080
37.215,-0.427
37.220,0.049
37.225,0.080
37.230,-0.432
37.235,-0.130
37.240,0.244
37.245,-0.236
37.250,-0.267
37.255,0.277
37.260,0.039
37.265,-0.270
37.270,0.237
37.275,0.280
37.280,-0.235
37.285,0.045
37.290,0.391
37.295,-0.099
37.300,-0.140
37.305,0.372
37.310,0.094
37.315,-0.252
37.320,0.231
37.325,0.267
37.330,-0.252
37.335,0.018
37.340,0.356
37.345,-0.124
37.350,-0.142
37.355,0.357
37.360,-0.027
37.365,-0.592
37.370,-0.452
37.375,-0.733
37.380,-1.296
37.385,-0.668
37.390,0.280
37.395,0.218
37.400,0.227
37.405,0.621
37.410,0.243
37.415,-0.152
37.420,0.332
37.425,0.388
37.430,-0.134
37.435,0.133
37.440,0.475
37.445,-0.023
37.450,-0.076
37.455,0.428
37.460,0.144
37.465,-0.205
37.470,0.279
37.475,0.311
37.480,-0.213
37.485,0.063
37.490,0.397
37.495,-0.105
37.500,-0.145
37.505,0.368
37.510,0.080
37.515,-0.267
37.520,0.221
37.525,0.252
37.530,-0.264
37.535,0.017
37.540,0.342
37.545,-0.160
37.550,-0.192
37.555,0.312
37.560,0.021
37.565,-0.310
37.570,0.181
37.575,0.198
37.580,-0.316
37.585,-0.030
37.590,0.291
37.595,-0.211
37.600,-0.237
37.605,0.268
37.610,-0.031
37.615,-0.369
37.620,0.118
37.625,0.135
37.630,-0.382
37.635,-0.101
37.640,0.220
37.645,-0.280
37.650,-0.307
37.655,0.194
37.660,-0.105
37.665,-0.429
37.670,0.070
37.675,0.087
37.680,-0.427
37.685,-0.132
37.690,0.201
37.695,-0.296
37.700,-0.320
37.705,0.195
37.710,-0.088
37.715,-0.407
37.720,0.105
37.725,0.147
37.730,-0.344
37.735,-0.030
37.740,0.322
37.745,-0.150
37.750,-0.148
37.755,0.380
37.760,0.104
37.765,-0.204
37.770,0.298
37.775,0.313
37.780,-0.186
37.785,0.117
37.790,0.436
37.795,-0.061
37.800,-0.072
37.805,0.430
37.810,0.122
37.815,-0.201
37.820,0.292
37.825,0.289
37.830,-0.221
37.835,0.081
37.840,0.390
37.845,-0.128
37.850,-0.158
37.855,0.352
37.860,0.060
37.865,-0.273
37.870,0.222
37.875,0.238
37.880,-0.281
37.885,0.011
37.890,0.333
37.895,-0.176
37.900,-0.201
37.905,0.312
37.910,0.018
37.915,-0.310
37.920,0.188
37.925,0.206
37.930,-0.304
37.935,-0.007
37.940,0.318
37.945,-0.183
37.950,-0.201
37.955,0.309
37.960,0.012
37.965,-0.312
37.970,0.189
37.975,0.204
37.980,-0.305
37.985,0.000
37.990,0.326
37.995,-0.176
38.000,-0.194
38.005,0.313
38.010,0.015
38.015,-0.305
38.020,0.193
38.025,0.201
38.030,-0.307
38.035,-0.005
38.040,0.312
38.045,-0.189
38.050,-0.194
38.055,0.311
38.060,0.005
38.065,-0.311
38.070,0.192
38.075,0.196
38.080,-0.318
38.085,-0.018
38.090,0.303
38.095,-0.199
38.100,-0.210
38.105,0.300
38.110,-0.001
38.115,-0.321
38.120,0.180
38.125,0.189
38.130,-0.322
38.135,-0.019
38.140,0.300
38.145,-0.203
38.150,-0.212
38.155,0.295
38.160,-0.009
38.165,-0.327
38.170,0.177
38.175,0.185
38.180,-0.344
38.185,-0.050
38.190,0.294
38.195,-0.202
38.200,-0.231
38.205,0.286
38.210,-0.006
38.215,-0.345
38.220,0.160
38.225,0.191
38.230,-0.331
38.235,-0.034
38.240,0.306
38.245,-0.194
38.250,-0.204
38.255,0.306
38.260,-0.006
38.265,-0.322
38.270,0.185
38.275,0.187
38.280,-0.324
38.285,-0.012
38.290,0.301
38.295,-0.205
38.300,-0.204
38.305,0.305
38.310,-0.005
38.315,-0.321
38.320,0.183
38.325,0.184
38.330,-0.328
38.335,-0.018
38.340,0.301
38.345,-0.208
38.350,-0.222
38.355,0.274
38.360,-0.050
38.365,-0.385
38.370,0.103
38.375,0.105
38.380,-0.392
38.385,-0.073
38.390,0.248
38.395,-0.246
38.400,-0.230
38.405,0.311
38.410,0.035
38.415,-0.262
38.420,0.247
38.425,0.244
38.430,-0.261
38.435,0.058
38.440,0.366
38.445,-0.145
38.450,-0.143
38.455,0.358
38.460,0.038
38.465,-0.271
38.470,0.233
38.475,0.220
38.480,-0.289
38.485,0.034
38.490,0.362
38.495,-0.143
38.500,-0.214
38.505,0.107
38.510,-0.528
38.515,-1.188
38.520,-0.813
38.525,-0.556
38.530,-0.495
38.535,0.319
38.540,0.773
38.545,0.160
38.550,0.048
38.555,0.491
38.560,0.156
38.565,-0.138
38.570,0.368
38.575,0.344
38.580,-0.159
38.585,0.161
38.590,0.452
38.595,-0.067
38.600,-0.060
38.605,0.433
38.610,0.103
38.615,-0.206
38.620,0.297
38.625,0.277
38.630,-0.232
38.635,0.082
38.640,0.379
38.645,-0.131
38.650,-0.117
38.655,0.375
38.660,0.040
38.665,-0.264
38.670,0.241
38.675,0.219
38.680,-0.283
38.685,0.039
38.690,0.335
38.695,-0.179
38.700,-0.165
38.705,0.329
38.710,-0.006
38.715,-0.309
38.720,0.200
38.725,0.176
38.730,-0.332
38.735,-0.006
38.740,0.287
38.745,-0.236
38.750,-0.224
38.755,0.270
38.760,-0.064
38.765,-0.367
38.770,0.134
38.775,0.106
38.780,-0.400
38.785,-0.075
38.790,0.216
38.795,-0.301
38.800,-0.279
38.805,0.210
38.810,-0.131
38.815,-0.422
38.820,0.095
38.825,0.070
38.830,-0.425
38.835,-0.090
38.840,0.201
38.845,-0.310
38.850,-0.279
38.855,0.220
38.860,-0.105
38.865,-0.374
38.870,0.164
38.875,0.160
38.880,-0.311
38.885,0.049
38.890,0.358
38.895,-0.137
38.900,-0.096
38.905,0.410
38.910,0.088
38.915,-0.191
38.920,0.330
38.925,0.308
38.930,-0.189
38.935,0.144
38.940,0.430
38.945,-0.090
38.950,-0.067
38.955,0.432
38.960,0.094
38.965,-0.204
38.970,0.304
38.975,0.269
38.980,-0.234
38.985,0.095
38.990,0.372
38.995,-0.149
39.000,-0.120
39.005,0.369
39.010,0.016
39.015,-0.274
39.020,0.248
39.025,0.206
39.030,-0.296
39.035,0.046
39.040,0.323
39.045,-0.198
39.050,-0.157
39.055,0.330
39.060,-0.018
39.065,-0.295
39.070,0.220
39.075,0.175
39.080,-0.322
39.085,0.022
39.090,0.301
39.095,-0.219
39.100,-0.177
39.105,0.317
39.110,-0.024
39.115,-0.300
39.120,0.214
39.125,0.171
39.130,-0.317
39.135,0.031
39.140,0.307
39.145,-0.207
39.150,-0.161
39.155,0.321
39.160,-0.031
39.165,-0.302
39.170,0.216
39.175,0.169
39.180,-0.317
39.185,0.033
39.190,0.302
39.195,-0.211
39.200,-0.159
39.205,0.316
39.210,-0.042
39.215,-0.310
39.220,0.208
39.225,0.156
39.230,-0.329
39.235,0.026
39.240,0.296
39.245,-0.222
39.250,-0.170
39.255,0.311
39.260,-0.044
39.265,-0.316
39.270,0.204
39.275,0.160
39.280,-0.334
39.285,0.014
39.290,0.292
39.295,-0.227
39.300,-0.184
39.305,0.303
39.310,-0.049
39.315,-0.324
39.320,0.196
39.325,0.155
39.330,-0.333
39.335,0.014
39.340,0.284
39.345,-0.233
39.350,-0.177
39.355,0.301
39.360,-0.060
39.365,-0.314
39.370,0.212
39.375,0.148
39.380,-0.331
39.385,0.033
39.390,0.283
39.395,-0.242
39.400,-0.173
39.405,0.312
39.410,-0.059
39.415,-0.340
39.420,0.163
39.425,0.080
39.430,-0.422
39.435,-0.058
39.440,0.219
39.445,-0.301
39.450,-0.238
39.455,0.254
39.460,-0.092
39.465,-0.306
39.470,0.259
39.475,0.200
39.480,-0.284
39.485,0.084
39.490,0.340
39.495,-0.185
39.500,-0.119
39.505,0.359
39.510,-0.009
39.515,-0.265
39.520,0.260
39.525,0.194
39.530,-0.290
39.535,0.069
39.540,0.319
39.545,-0.203
39.550,-0.120
39.555,0.364
39.560,-0.065
39.565,-0.481
39.570,-0.258
39.575,-0.686
39.580,-1.336
39.585,-0.772
39.590,0.022
39.595,0.037
39.600,0.295
39.605,0.680
39.610,0.189
39.615,-0.131
39.620,0.365
39.625,0.301
39.630,-0.163
39.635,0.205
39.640,0.444
39.645,-0.091
39.650,-0.023
39.655,0.450
39.660,0.069
39.665,-0.190
39.670,0.327
39.675,0.246
39.680,-0.237
39.685,0.126
39.690,0.367
39.695,-0.162
39.700,-0.089
39.705,0.385
39.710,0.010
39.715,-0.247
39.720,0.269
39.725,0.188
39.730,-0.287
39.735,0.089
39.740,0.330
39.745,-0.209
39.750,-0.137
39.755,0.346
39.760,-0.029
39.765,-0.294
39.770,0.228
39.775,0.156
39.780,-0.337
39.785,0.024
39.790,0.279
39.795,-0.250
39.800,-0.181
39.805,0.296
39.810,-0.085
39.815,-0.343
39.820,0.178
39.825,0.092
39.830,-0.399
39.835,-0.035
39.840,0.206
39.845,-0.324
39.850,-0.249
39.855,0.224
39.860,-0.160
39.865,-0.417
39.870,0.112
39.875,0.036
39.880,-0.448
39.885,-0.075
39.890,0.177
39.895,-0.351
39.900,-0.272
39.905,0.216
39.910,-0.153
39.915,-0.396
39.920,0.147
39.925,0.089
39.930,-0.373
39.935,0.025
39.940,0.305
39.945,-0.201
39.950,-0.104
39.955,0.400
39.960,0.044
39.965,-0.191
39.970,0.347
39.975,0.276
39.980,-0.199
39.985,0.175
39.990,0.421
39.995,-0.106
40.000,-0.026
40.005,0.450
40.010,0.068
40.015,-0.181
40.020,0.342
40.025,0.253
40.030,-0.231
40.035,0.144
40.040,0.382
40.045,-0.155
40.050,-0.076
40.055,0.390
40.060,0.002
40.065,-0.243
40.070,0.281
40.075,0.189
40.080,-0.293
40.085,0.081
40.090,0.318
40.095,-0.214
40.100,-0.128
40.105,0.342
40.110,-0.048
40.115,-0.292
40.120,0.236
40.125,0.149
40.130,-0.320
40.135,0.064
40.140,0.297
40.145,-0.239
40.150,-0.150
40.155,0.322
40.160,-0.065
40.165,-0.296
40.170,0.240
40.175,0.151
40.180,-0.321
40.185,0.064
40.190,0.295
40.195,-0.237
40.200,-0.144
40.205,0.329
40.210,-0.056
40.215,-0.289
40.220,0.238
40.225,0.142
40.230,-0.325
40.235,0.066
40.240,0.295
40.245,-0.239
40.250,-0.142
40.255,0.330
40.260,-0.057
40.265,-0.276
40.270,0.256
40.275,0.141
40.280,-0.330
40.285,0.063
40.290,0.286
40.295,-0.248
40.300,-0.145
40.305,0.323
40.310,-0.067
40.315,-0.293
40.320,0.235
40.325,0.129
40.330,-0.341
40.335,0.048
40.340,0.275
40.345,-0.250
40.350,-0.145
40.355,0.317
40.360,-0.080
40.365,-0.304
40.370,0.223
40.375,0.117
40.380,-0.343
40.385,0.049
40.390,0.268
40.395,-0.258
40.400,-0.149
40.405,0.314
40.410,-0.084
40.415,-0.307
40.420,0.223
40.425,0.117
40.430,-0.349
40.435,0.043
40.440,0.261
40.445,-0.265
40.450,-0.152
40.455,0.311
40.460,-0.084
40.465,-0.302
40.470,0.232
40.475,0.122
40.480,-0.348
40.485,0.039
40.490,0.242
40.495,-0.311
40.500,-0.218
40.505,0.231
40.510,-0.163
40.515,-0.370
40.520,0.162
40.525,0.055
40.530,-0.393
40.535,0.025
40.540,0.285
40.545,-0.220
40.550,-0.109
40.555,0.360
40.560,-0.016
40.565,-0.288
40.570,-0.036
40.575,-0.360
40.580,-0.751
40.585,-0.303
40.590,-0.089
40.595,-0.583
40.600,-0.444
40.605,0.035
40.610,-0.344
40.615,-0.535
40.620,0.027
40.625,-0.050
40.630,-0.502
40.635,-0.179
40.640,-0.155
40.645,-1.007
40.650,-1.210
40.655,-0.800
40.660,-0.837
40.665,-0.434
40.670,0.551
40.675,0.523
40.680,-0.042
40.685,0.266
40.690,0.439
40.695,-0.090
40.700,0.053
40.705,0.516
40.710,0.116
40.715,-0.082
40.720,0.448
40.725,0.323
40.730,-0.124
40.735,0.285
40.740,0.481
40.745,-0.057
40.750,0.068
40.755,0.524
40.760,0.120
40.765,-0.088
40.770,0.439
40.775,0.316
40.780,-0.132
40.785,0.275
40.790,0.464
40.795,-0.074
40.800,0.059
40.805,0.502
40.810,0.083
40.815,-0.111
40.820,0.420
40.825,0.284
40.830,-0.160
40.835,0.249
40.840,0.433
40.845,-0.106
40.850,0.023
40.855,0.468
40.860,0.052
40.865,-0.155
40.870,0.368
40.875,0.228
40.880,-0.232
40.885,0.176
40.890,0.371
40.895,-0.174
40.900,-0.050
40.905,0.397
40.910,-0.027
40.915,-0.238
40.920,0.287
40.925,0.149
40.930,-0.313
40.935,0.091
40.940,0.287
40.945,-0.245
40.950,-0.110
40.955,0.329
40.960,-0.098
40.965,-0.288
40.970,0.247
40.975,0.105
40.980,-0.344
40.985,0.073
40.990,0.272
40.995,-0.250
41.000,-0.097
41.005,0.372
41.010,-0.020
41.015,-0.191
41.020,0.361
41.025,0.242
41.030,-0.190
41.035,0.239
41.040,0.441
41.045,-0.085
41.050,0.061
41.055,0.511
41.060,0.090
41.065,-0.102
41.070,0.426
41.075,0.279
41.080,-0.175
41.085,0.233
41.090,0.416
41.095,-0.120
41.100,0.015
41.105,0.451
41.110,0.032
41.115,-0.151
41.120,0.361
41.125,0.192
41.130,-0.251
41.135,0.164
41.140,0.331
41.145,-0.212
41.150,-0.068
41.155,0.374
41.160,-0.055
41.165,-0.247
41.170,0.282
41.175,0.127
41.180,-0.322
41.185,0.097
41.190,0.278
41.195,-0.261
41.200,-0.115
41.205,0.330
41.210,-0.094
41.215,-0.281
41.220,0.249
41.225,0.098
41.230,-0.345
41.235,0.080
41.240,0.262
41.245,-0.268
41.250,-0.119
41.255,0.309
41.260,-0.118
41.265,-0.295
41.270,0.240
41.275,0.093
41.280,-0.350
41.285,0.069
41.290,0.249
41.295,-0.288
41.300,-0.140
41.305,0.306
41.310,-0.117
41.315,-0.298
41.320,0.234
41.325,0.080
41.330,-0.361
41.335,0.063
41.340,0.239
41.345,-0.298
41.350,-0.143
41.355,0.299
41.360,-0.127
41.365,-0.307
41.370,0.227
41.375,0.078
41.380,-0.351
41.385,0.075
41.390,0.239
41.395,-0.298
41.400,-0.134
41.405,0.299
41.410,-0.132
41.415,-0.285
41.420,0.254
41.425,0.077
41.430,-0.361
41.435,0.067
41.440,0.230
41.445,-0.305
41.450,-0.144
41.455,0.296
41.460,-0.131
41.465,-0.305
41.470,0.225
41.475,0.062
41.480,-0.366
41.485,0.070
41.490,0.230
41.495,-0.309
41.500,-0.139
41.505,0.295
41.510,-0.135
41.515,-0.302
41.520,0.227
41.525,0.067
41.530,-0.349
41.535,0.086
41.540,0.236
41.545,-0.301
41.550,-0.136
41.555,0.298
41.560,-0.128
41.565,-0.309
41.570,0.207
41.575,0.032
41.580,-0.427
41.585,-0.016
41.590,0.156
41.595,-0.367
41.600,-0.200
41.605,0.238
41.610,-0.183
41.615,-0.337
41.620,0.231
41.625,0.113
41.630,-0.308
41.635,0.123
41.640,0.296
41.645,-0.238
41.650,-0.071
41.655,0.368
41.660,-0.066
41.665,-0.235
41.670,0.299
41.675,0.128
41.680,-0.311
41.685,0.122
41.690,0.284
41.695,-0.257
41.700,-0.093
41.705,0.348
41.710,-0.072
41.715,-0.275
41.720,0.129
41.725,-0.293
41.730,-1.100
41.735,-0.943
41.740,-0.691
41.745,-0.749
41.750,0.001
41.755,0.743
41.760,0.285
41.765,-0.014
41.770,0.437
41.775,0.247
41.780,-0.180
41.785,0.260
41.790,0.419
41.795,-0.123
41.800,0.037
41.805,0.463
41.810,0.021
41.815,-0.151
41.820,0.381
41.825,0.210
41.830,-0.236
41.835,0.193
41.840,0.352
41.845,-0.194
41.850,-0.031
41.855,0.395
41.860,-0.050
41.865,-0.215
41.870,0.319
41.875,0.145
41.880,-0.293
41.885,0.141
41.890,0.302
41.895,-0.240
41.900,-0.074
41.905,0.352
41.910,-0.093
41.915,-0.253
41.920,0.279
41.925,0.099
41.930,-0.327
41.935,0.109
41.940,0.254
41.945,-0.281
41.950,-0.104
41.955,0.307
41.960,-0.143
41.965,-0.296
41.970,0.231
41.975,0.040
41.980,-0.386
41.985,0.051
41.990,0.190
41.995,-0.350
42.000,-0.177
42.005,0.232
42.010,-0.215
42.015,-0.363
42.020,0.163
42.025,-0.033
42.030,-0.454
42.035,-0.006
42.040,0.144
42.045,-0.386
42.050,-0.206
42.055,0.204
42.060,-0.236
42.065,-0.368
42.070,0.172
42.075,0.000
42.080,-0.402
42.085,0.056
42.090,0.223
42.095,-0.283
42.100,-0.072
42.105,0.366
42.110,-0.050
42.115,-0.151
42.120,0.390
42.125,0.192
42.130,-0.215
42.135,0.237
42.140,0.381
42.145,-0.145
42.150,0.041
42.155,0.448
42.160,-0.001
42.165,-0.142
42.170,0.384
42.175,0.188
42.180,-0.225
42.185,0.220
42.190,0.344
42.195,-0.196
42.200,-0.007
42.205,0.401
42.210,-0.048
42.215,-0.188
42.220,0.335
42.225,0.135
42.230,-0.285
42.235,0.154
42.240,0.285
42.245,-0.250
42.250,-0.059
42.255,0.352
42.260,-0.097
42.265,-0.237
42.270,0.284
42.275,0.087
42.280,-0.322
42.285,0.126
42.290,0.255
42.295,-0.279
42.300,-0.085
42.305,0.325
42.310,-0.121
42.315,-0.253
42.320,0.279
42.325,0.086
42.330,-0.325
42.335,0.126
42.340,0.256
42.345,-0.278
42.350,-0.080
42.355,0.328
42.360,-0.123
42.365,-0.249
42.370,0.283
42.375,0.083
42.380,-0.325
42.385,0.124
42.390,0.250
42.395,-0.281
42.400,-0.080
42.405,0.328
42.410,-0.122
42.415,-0.253
42.420,0.277
42.425,0.082
42.430,-0.318
42.435,0.134
42.440,0.244
42.445,-0.289
42.450,-0.082
42.455,0.321
42.460,-0.135
42.465,-0.267
42.470,0.262
42.475,0.065
42.480,-0.333
42.485,0.119
42.490,0.239
42.495,-0.292
42.500,-0.093
42.505,0.314
42.510,-0.136
42.515,-0.270
42.520,0.257
42.525,0.057
42.530,-0.353
42.535,0.100
42.540,0.235
42.545,-0.297
42.550,-0.098
42.555,0.309
42.560,-0.145
42.565,-0.269
42.570,0.266
42.575,0.063
42.580,-0.348
42.585,0.104
42.590,0.232
42.595,-0.298
42.600,-0.096
42.605,0.307
42.610,-0.141
42.615,-0.253
42.620,0.275
42.625,0.057
42.630,-0.343
42.635,0.115
42.640,0.232
42.645,-0.311
42.650,-0.116
42.655,0.284
42.660,-0.196
42.665,-0.351
42.670,0.176
42.675,-0.014
42.680,-0.406
42.685,0.054
42.690,0.184
42.695,-0.338
42.700,-0.111
42.705,0.332
42.710,-0.102
42.715,-0.217
42.720,0.320
42.725,0.112
42.730,-0.290
42.735,0.171
42.740,0.291
42.745,-0.242
42.750,-0.032
42.755,0.369
42.760,-0.089
42.765,-0.207
42.770,0.314
42.775,0.092
42.780,-0.311
42.785,0.156
42.790,0.296
42.795,-0.245
42.800,-0.128
42.805,0.068
42.810,-0.738
42.815,-1.187
42.820,-0.711
42.825,-0.574
42.830,-0.362
42.835,0.533
42.840,0.695
42.845,0.032
42.850,0.135
42.855,0.487
42.860,0.021
42.865,-0.087
42.870,0.444
42.875,0.221
42.880,-0.185
42.885,0.271
42.890,0.375
42.895,-0.165
42.900,0.044
42.905,0.435
42.910,-0.031
42.915,-0.146
42.920,0.379
42.925,0.155
42.930,-0.249
42.935,0.204
42.940,0.307
42.945,-0.227
42.950,-0.009
42.955,0.382
42.960,-0.092
42.965,-0.214
42.970,0.313
42.975,0.099
42.980,-0.297
42.985,0.160
42.990,0.263
42.995,-0.272
43.000,-0.057
43.005,0.333
43.010,-0.125
43.015,-0.225
43.020,0.288
43.025,0.049
43.030,-0.346
43.035,0.111
43.040,0.212
43.045,-0.315
43.050,-0.102
43.055,0.277
43.060,-0.192
43.065,-0.300
43.070,0.219
43.075,-0.014
43.080,-0.413
43.085,0.044
43.090,0.142
43.095,-0.391
43.100,-0.171
43.105,0.211
43.110,-0.255
43.115,-0.352
43.120,0.174
43.125,-0.051
43.130,-0.442
43.135,0.016
43.140,0.122
43.145,-0.391
43.150,-0.152
43.155,0.237
43.160,-0.222
43.165,-0.302
43.170,0.246
43.175,0.046
43.180,-0.313
43.185,0.176
43.190,0.294
43.195,-0.217
43.200,0.031
43.205,0.433
43.210,-0.024
43.215,-0.114
43.220,0.416
43.225,0.184
43.230,-0.202
43.235,0.267
43.240,0.356
43.245,-0.178
43.250,0.053
43.255,0.433
43.260,-0.036
43.265,-0.123
43.270,0.391
43.275,0.142
43.280,-0.252
43.285,0.211
43.290,0.302
43.295,-0.226
43.300,0.003
43.305,0.371
43.310,-0.111
43.315,-0.205
43.320,0.321
43.325,0.080
43.330,-0.314
43.335,0.154
43.340,0.245
43.345,-0.287
43.350,-0.053
43.355,0.333
43.360,-0.140
43.365,-0.234
43.370,0.291
43.375,0.058
43.380,-0.319
43.385,0.147
43.390,0.230
43.395,-0.281
43.400,-0.028
43.405,0.327
43.410,-0.154
43.415,-0.215
43.420,0.301
43.425,0.040
43.430,-0.332
43.435,0.144
43.440,0.231
43.445,-0.287
43.450,-0.041
43.455,0.334
43.460,-0.143
43.465,-0.223
43.470,0.300
43.475,0.052
43.480,-0.317
43.485,0.156
43.490,0.229
43.495,-0.302
43.500,-0.065
43.505,0.316
43.510,-0.150
43.515,-0.236
43.520,0.288
43.525,0.048
43.530,-0.337
43.535,0.131
43.540,0.222
43.545,-0.298
43.550,-0.058
43.555,0.312
43.560,-0.158
43.565,-0.221
43.570,0.296
43.575,0.036
43.580,-0.328
43.585,0.148
43.590,0.215
43.595,-0.309
43.600,-0.059
43.605,0.312
43.610,-0.160
43.615,-0.231
43.620,0.286
43.625,0.031
43.630,-0.331
43.635,0.147
43.640,0.211
43.645,-0.312
43.650,-0.057
43.655,0.310
43.660,-0.170
43.665,-0.233
43.670,0.287
43.675,0.026
43.680,-0.334
43.685,0.144
43.690,0.206
43.695,-0.306
43.700,-0.044
43.705,0.300
43.710,-0.184
43.715,-0.244
43.720,0.256
43.725,-0.021
43.730,-0.403
43.735,0.057
43.740,0.125
43.745,-0.339
43.750,-0.202
43.755,-0.141
43.760,-0.664
43.765,-0.626
43.770,-0.063
43.775,-0.261
43.780,-0.593
43.785,-0.100
43.790,-0.008
43.795,-0.503
43.800,-0.226
43.805,0.160
43.810,-0.299
43.815,-0.353
43.820,0.183
43.825,-0.056
43.830,-0.405
43.835,0.089
43.840,0.167
43.845,-0.342
43.850,-0.074
43.855,0.317
43.860,-0.148
43.865,-0.284
43.870,0.054
43.875,-0.513
43.880,-1.219
43.885,-0.863
43.890,-0.517
43.895,-0.443
43.900,0.316
43.905,0.810
43.910,0.229
43.915,0.060
43.920,0.523
43.925,0.253
43.930,-0.089
43.935,0.399
43.940,0.459
43.945,-0.059
43.950,0.197
43.955,0.545
43.960,0.061
43.965,0.004
43.970,0.515
43.975,0.239
43.980,-0.135
43.985,0.347
43.990,0.419
43.995,-0.111
44.000,0.140
44.005,0.500
44.010,0.008
44.015,-0.048
44.020,0.471
44.025,0.198
44.030,-0.172
44.035,0.304
44.040,0.367
44.045,-0.159
44.050,0.098
44.055,0.456
44.060,-0.038
44.065,-0.103
44.070,0.417
44.075,0.152
44.080,-0.213
44.085,0.259
44.090,0.312
44.095,-0.211
44.100,0.044
44.105,0.388
44.110,-0.113
44.115,-0.183
44.120,0.338
44.125,0.078
44.130,-0.280
44.135,0.198
44.140,0.238
44.145,-0.297
44.150,-0.043
44.155,0.300
44.160,-0.194
44.165,-0.253
44.170,0.265
44.175,-0.005
44.180,-0.362
44.185,0.124
44.190,0.178
44.195,-0.343
44.200,-0.077
44.205,0.276
44.210,-0.206
44.215,-0.254
44.220,0.264
44.225,0.009
44.230,-0.314
44.235,0.184
44.240,0.241
44.245,-0.247
44.250,0.052
44.255,0.413
44.260,-0.061
44.265,-0.089
44.270,0.438
44.275,0.171
44.280,-0.161
44.285,0.333
44.290,0.370
44.295,-0.146
44.300,0.130
44.305,0.466
44.310,-0.029
44.315,-0.076
44.320,0.430
44.325,0.150
44.330,-0.202
44.335,0.277
44.340,0.314
44.345,-0.204
44.350,0.063
44.355,0.395
44.360,-0.099
44.365,-0.143
44.370,0.362
44.375,0.073
44.380,-0.272
44.385,0.211
44.390,0.238
44.395,-0.283
44.400,-0.006
44.405,0.333
44.410,-0.163
44.415,-0.207
44.420,0.302
44.425,0.021
44.430,-0.323
44.435,0.165
44.440,0.202
44.445,-0.315
44.450,-0.037
44.455,0.302
44.460,-0.190
44.465,-0.229
44.470,0.288
44.475,0.007
44.480,-0.335
44.485,0.158
44.490,0.191
44.495,-0.321
44.500,-0.032
44.505,0.304
44.510,-0.193
44.515,-0.232
44.520,0.279
44.525,0.000
44.530,-0.333
44.535,0.158
44.540,0.185
44.545,-0.331
44.550,-0.044
44.555,0.294
44.560,-0.203
44.565,-0.240
44.570,0.274
44.575,-0.005
44.580,-0.343
44.585,0.149
44.590,0.183
44.595,-0.331
44.600,-0.049
44.605,0.284
44.610,-0.216
44.615,-0.257
44.620,0.265
44.625,-0.009
44.630,-0.350
44.635,0.144
44.640,0.174
44.645,-0.346
44.650,-0.060
44.655,0.281
44.660,-0.211
44.665,-0.243
44.670,0.269
44.675,-0.014
44.680,-0.345
44.685,0.147
44.690,0.174
44.695,-0.342
44.700,-0.055
44.705,0.283
44.710,-0.209
44.715,-0.239
44.720,0.269
44.725,-0.018
44.730,-0.347
44.735,0.143
44.740,0.167
44.745,-0.347
44.750,-0.058
44.755,0.280
44.760,-0.210
44.765,-0.238
44.770,0.272
44.775,-0.021
44.780,-0.367
44.785,0.107
44.790,0.103
44.795,-0.424
44.800,-0.123
44.805,0.214
44.810,-0.282
44.815,-0.295
44.820,0.234
44.825,-0.044
44.830,-0.337
44.835,0.202
44.840,0.230
44.845,-0.284
44.850,0.018
44.855,0.348
44.860,-0.147
44.865,-0.163
44.870,0.343
44.875,0.042
44.880,-0.285
44.885,0.214
44.890,0.228
44.895,-0.286
44.900,0.010
44.905,0.330
44.910,-0.170
44.915,-0.171
44.920,0.344
44.925,-0.010
44.930,-0.488
44.935,-0.280
44.940,-0.637
44.945,-1.367
44.950,-0.915
44.955,-0.065
44.960,0.006
44.965,0.236
44.970,0.683
44.975,0.257
44.980,-0.139
44.985,0.335
44.990,0.353
44.995,-0.146
45.000,0.153
45.005,0.466
45.010,-0.041
45.015,-0.058
45.020,0.440
45.025,0.130
45.030,-0.193
45.035,0.302
45.040,0.299
45.045,-0.216
45.050,0.085
45.055,0.394
45.060,-0.113
45.065,-0.124
45.070,0.376
45.075,0.065
45.080,-0.266
45.085,0.225
45.090,0.237
45.095,-0.270
45.100,0.027
45.105,0.338
45.110,-0.168
45.115,-0.177
45.120,0.327
45.125,0.017
45.130,-0.303
45.135,0.194
45.140,0.192
45.145,-0.316
45.150,-0.012
45.155,0.295
45.160,-0.212
45.165,-0.218
45.170,0.278
45.175,-0.035
45.180,-0.351
45.185,0.142
45.190,0.135
