'Elapsed time','ECG'
'seconds','mV'
0.000,0.035
0.005,-0.074
0.010,-0.025
0.015,-0.014
0.020,-0.107
0.025,-0.076
0.030,-0.028
0.035,-0.070
0.040,-0.040
0.045,0.048
0.050,0.023
0.055,-0.041
0.060,-0.025
0.065,-0.051
0.070,-0.125
0.075,-0.070
0.080,0.016
0.085,-0.041
0.090,-0.069
0.095,-0.008
0.100,-0.055
0.105,-0.121
0.110,-0.072
0.115,-0.073
0.120,-0.143
0.125,-0.085
0.130,-0.016
0.135,-0.098
0.140,-0.119
0.145,-0.035
0.150,-0.066
0.155,-0.097
0.160,0.000
0.165,0.021
0.170,-0.046
0.175,-0.021
0.180,0.034
0.185,-0.006
0.190,-0.024
0.195,0.039
0.200,0.036
0.205,0.010
0.210,0.083
0.215,0.093
0.220,0.005
0.225,0.023
0.230,0.072
0.235,0.014
0.240,0.008
0.245,0.064
0.250,0.017
0.255,-0.013
0.260,0.098
0.265,0.132
0.270,0.025
0.275,-0.014
0.280,-0.051
0.285,-0.344
0.290,-0.803
0.295,-1.140
0.300,-1.177
0.305,-0.848
0.310,-0.392
0.315,-0.134
0.320,-0.056
0.325,0.084
0.330,0.294
0.335,0.357
0.340,0.350
0.345,0.393
0.350,0.347
0.355,0.279
0.360,0.319
0.365,0.311
0.370,0.220
0.375,0.237
0.380,0.293
0.385,0.226
0.390,0.187
0.395,0.231
0.400,0.190
0.405,0.144
0.410,0.214
0.415,0.218
0.420,0.119
0.425,0.128
0.430,0.176
0.435,0.103
0.440,0.073
0.445,0.142
0.450,0.117
0.455,0.042
0.460,0.076
0.465,0.098
0.470,0.041
0.475,0.061
0.480,0.109
0.485,0.049
0.490,0.026
0.495,0.090
0.500,0.064
0.505,0.016
0.510,0.086
0.515,0.115
0.520,0.046
0.525,0.060
0.530,0.094
0.535,0.008
0.540,-0.046
0.545,-0.009
0.550,-0.060
0.555,-0.139
0.560,-0.097
0.565,-0.084
0.570,-0.152
0.575,-0.129
0.580,-0.080
0.585,-0.139
0.590,-0.149
0.595,-0.062
0.600,-0.081
0.605,-0.136
0.610,-0.070
0.615,-0.045
0.620,-0.116
0.625,-0.096
0.630,-0.036
0.635,-0.083
0.640,-0.095
0.645,-0.017
0.650,-0.026
0.655,-0.080
0.660,-0.032
0.665,-0.013
0.670,-0.080
0.675,-0.059
0.680,-0.004
0.685,-0.058
0.690,-0.078
0.695,-0.010
0.700,-0.025
0.705,-0.072
0.710,-0.009
0.715,0.018
0.720,-0.047
0.725,-0.019
0.730,0.032
0.735,-0.041
0.740,-0.073
0.745,-0.015
0.750,-0.045
0.755,-0.105
0.760,-0.048
0.765,-0.021
0.770,-0.085
0.775,-0.065
0.780,-0.023
0.785,-0.088
0.790,-0.101
0.795,-0.018
0.800,-0.021
0.805,-0.056
0.810,0.003
0.815,0.022
0.820,-0.029
0.825,0.015
0.830,0.083
0.835,0.032
0.840,0.013
0.845,0.088
0.850,0.075
0.855,0.033
0.860,0.098
0.865,0.110
0.870,0.031
0.875,0.051
0.880,0.095
0.885,0.026
0.890,0.009
0.895,0.087
0.900,0.066
0.905,0.012
0.910,0.078
0.915,0.114
0.920,0.034
0.925,0.001
0.930,-0.022
0.935,-0.244
0.940,-0.615
0.945,-0.992
0.950,-1.204
0.955,-0.964
0.960,-0.439
0.965,-0.140
0.970,-0.062
0.975,0.084
0.980,0.259
0.985,0.314
0.990,0.337
0.995,0.389
1.000,0.344
1.005,0.278
1.010,0.325
1.015,0.331
1.020,0.250
1.025,0.260
1.030,0.301
1.035,0.231
1.040,0.197
1.045,0.256
1.050,0.222
1.055,0.154
1.060,0.203
1.065,0.211
1.070,0.123
1.075,0.136
1.080,0.183
1.085,0.112
1.090,0.083
1.095,0.144
1.100,0.109
1.105,0.042
1.110,0.091
1.115,0.102
1.120,0.028
1.125,0.047
1.130,0.097
1.135,0.038
1.140,0.025
1.145,0.103
1.150,0.086
1.155,0.035
1.160,0.096
1.165,0.113
1.170,0.036
1.175,0.051
1.180,0.092
1.185,0.014
1.190,-0.024
1.195,0.023
1.200,-0.029
1.205,-0.114
1.210,-0.083
1.215,-0.085
1.220,-0.167
1.225,-0.150
1.230,-0.095
1.235,-0.146
1.240,-0.157
1.245,-0.079
1.250,-0.097
1.255,-0.146
1.260,-0.082
1.265,-0.058
1.270,-0.123
1.275,-0.093
1.280,-0.034
1.285,-0.096
1.290,-0.117
1.295,-0.039
1.300,-0.059
1.305,-0.113
1.310,-0.051
1.315,-0.027
1.320,-0.096
1.325,-0.070
1.330,-0.010
1.335,-0.069
1.340,-0.091
1.345,-0.013
1.350,-0.030
1.355,-0.085
1.360,-0.022
1.365,0.001
1.370,-0.070
1.375,-0.040
1.380,0.025
1.385,-0.037
1.390,-0.067
1.395,-0.002
1.400,-0.035
1.405,-0.103
1.410,-0.051
1.415,-0.035
1.420,-0.111
1.425,-0.089
1.430,-0.032
1.435,-0.093
1.440,-0.124
1.445,-0.056
1.450,-0.065
1.455,-0.098
1.460,-0.015
1.465,0.017
1.470,-0.051
1.475,-0.012
1.480,0.062
1.485,0.008
1.490,-0.008
1.495,0.073
1.500,0.044
1.505,-0.019
1.510,0.048
1.515,0.084
1.520,0.024
1.525,0.041
1.530,0.084
1.535,0.026
1.540,0.013
1.545,0.086
1.550,0.063
1.555,0.003
1.560,0.061
1.565,0.081
1.570,0.014
1.575,0.047
1.580,0.078
1.585,-0.048
1.590,-0.198
1.595,-0.422
1.600,-0.899
1.605,-1.244
1.610,-0.981
1.615,-0.447
1.620,-0.159
1.625,-0.005
1.630,0.138
1.635,0.169
1.640,0.256
1.645,0.403
1.650,0.371
1.655,0.278
1.660,0.320
1.665,0.359
1.670,0.309
1.675,0.319
1.680,0.339
1.685,0.252
1.690,0.220
1.695,0.291
1.700,0.266
1.705,0.195
1.710,0.225
1.715,0.219
1.720,0.124
1.725,0.137
1.730,0.205
1.735,0.141
1.740,0.100
1.745,0.169
1.750,0.155
1.755,0.097
1.760,0.122
1.765,0.100
1.770,0.029
1.775,0.075
1.780,0.120
1.785,0.037
1.790,0.018
1.795,0.110
1.800,0.110
1.805,0.060
1.810,0.096
1.815,0.084
1.820,0.007
1.825,0.052
1.830,0.115
1.835,0.035
1.840,-0.015
1.845,0.029
1.850,-0.006
1.855,-0.069
1.860,-0.044
1.865,-0.067
1.870,-0.168
1.875,-0.150
1.880,-0.089
1.885,-0.147
1.890,-0.156
1.895,-0.061
1.900,-0.088
1.905,-0.159
1.910,-0.086
1.915,-0.056
1.920,-0.130
1.925,-0.095
1.930,-0.024
1.935,-0.074
1.940,-0.083
1.945,-0.026
1.950,-0.086
1.955,-0.142
1.960,-0.039
1.965,0.012
1.970,-0.056
1.975,-0.040
1.980,-0.001
1.985,-0.051
1.990,-0.049
1.995,0.006
2.000,-0.049
2.005,-0.111
2.010,-0.039
2.015,0.000
2.020,-0.052
2.025,-0.022
2.030,0.028
2.035,-0.032
2.040,-0.048
2.045,0.024
2.050,0.005
2.055,-0.051
2.060,-0.018
2.065,-0.020
2.070,-0.066
2.075,-0.033
2.080,-0.021
2.085,-0.101
2.090,-0.102
2.095,-0.016
2.100,-0.042
2.105,-0.111
2.110,-0.063
2.115,-0.045
2.120,-0.118
2.125,-0.083
2.130,0.003
2.135,-0.036
2.140,-0.056
2.145,0.032
2.150,0.038
2.155,-0.017
2.160,0.025
2.165,0.048
2.170,-0.012
2.175,0.015
2.180,0.088
2.185,0.060
2.190,0.056
2.195,0.113
2.200,0.065
2.205,-0.005
2.210,0.067
2.215,0.122
2.220,0.050
2.225,0.031
2.230,0.063
2.235,0.024
2.240,0.045
2.245,0.125
2.250,0.067
2.255,-0.041
2.260,-0.063
2.265,-0.236
2.270,-0.671
2.275,-1.035
2.280,-1.085
2.285,-0.837
2.290,-0.441
2.295,-0.141
2.300,-0.032
2.305,0.041
2.310,0.231
2.315,0.370
2.320,0.353
2.325,0.363
2.330,0.375
2.335,0.296
2.340,0.284
2.345,0.359
2.350,0.311
2.355,0.223
2.360,0.270
2.365,0.290
2.370,0.213
2.375,0.211
2.380,0.247
2.385,0.188
2.390,0.162
2.395,0.215
2.400,0.174
2.405,0.105
2.410,0.164
2.415,0.195
2.420,0.106
2.425,0.078
2.430,0.123
2.435,0.085
2.440,0.061
2.445,0.126
2.450,0.092
2.455,0.026
2.460,0.097
2.465,0.102
2.470,0.001
2.475,0.037
2.480,0.105
2.485,0.044
2.490,0.034
2.495,0.113
2.500,0.086
2.505,0.005
2.510,0.027
2.515,0.036
2.520,-0.029
2.525,-0.016
2.530,0.001
2.535,-0.111
2.540,-0.168
2.545,-0.093
2.550,-0.111
2.555,-0.184
2.560,-0.134
2.565,-0.095
2.570,-0.122
2.575,-0.081
2.580,-0.038
2.585,-0.090
2.590,-0.129
2.595,-0.084
2.600,-0.063
2.605,-0.072
2.610,-0.031
2.615,-0.041
2.620,-0.107
2.625,-0.071
2.630,-0.005
2.635,-0.061
2.640,-0.104
2.645,-0.029
2.650,-0.020
2.655,-0.068
2.660,-0.022
2.665,-0.018
2.670,-0.094
2.675,-0.056
2.680,0.009
2.685,-0.059
2.690,-0.096
2.695,-0.010
2.700,0.015
2.705,-0.032
2.710,0.003
2.715,0.014
2.720,-0.060
2.725,-0.037
2.730,0.018
2.735,-0.038
2.740,-0.058
2.745,0.003
2.750,-0.027
2.755,-0.089
2.760,-0.036
2.765,-0.023
2.770,-0.114
2.775,-0.100
2.780,-0.028
2.785,-0.076
2.790,-0.090
2.795,-0.012
2.800,-0.032
2.805,-0.081
2.810,-0.017
2.815,0.020
2.820,-0.026
2.825,0.004
2.830,0.063
2.835,0.014
2.840,-0.006
2.845,0.057
2.850,0.044
2.855,0.003
2.860,0.059
2.865,0.080
2.870,0.017
2.875,0.041
2.880,0.091
2.885,0.020
2.890,-0.006
2.895,0.077
2.900,0.068
2.905,0.011
2.910,0.066
2.915,0.101
2.920,0.023
2.925,-0.001
2.930,-0.043
2.935,-0.358
2.940,-0.836
2.945,-1.147
2.950,-1.106
2.955,-0.751
2.960,-0.347
2.965,-0.123
2.970,-0.035
2.975,0.122
2.980,0.321
2.985,0.366
2.990,0.365
2.995,0.419
3.000,0.377
3.005,0.310
3.010,0.355
3.015,0.346
3.020,0.247
3.025,0.266
3.030,0.326
3.035,0.258
3.040,0.228
3.045,0.288
3.050,0.247
3.055,0.176
3.060,0.215
3.065,0.214
3.070,0.130
3.075,0.142
3.080,0.184
3.085,0.114
3.090,0.086
3.095,0.149
3.100,0.118
3.105,0.060
3.110,0.119
3.115,0.132
3.120,0.049
3.125,0.063
3.130,0.114
3.135,0.051
3.140,0.033
3.145,0.111
3.150,0.089
3.155,0.029
3.160,0.085
3.165,0.103
3.170,0.030
3.175,0.047
3.180,0.084
3.185,0.002
3.190,-0.039
3.195,0.006
3.200,-0.053
3.205,-0.142
3.210,-0.107
3.215,-0.105
3.220,-0.187
3.225,-0.163
3.230,-0.097
3.235,-0.147
3.240,-0.163
3.245,-0.086
3.250,-0.096
3.255,-0.140
3.260,-0.081
3.265,-0.060
3.270,-0.123
3.275,-0.092
3.280,-0.032
3.285,-0.089
3.290,-0.110
3.295,-0.037
3.300,-0.058
3.305,-0.107
3.310,-0.042
3.315,-0.021
3.320,-0.091
3.325,-0.062
3.330,-0.001
3.335,-0.057
3.340,-0.076
3.345,-0.007
3.350,-0.027
3.355,-0.075
3.360,-0.018
3.365,0.004
3.370,-0.057
3.375,-0.027
3.380,0.029
3.385,-0.032
3.390,-0.054
3.395,0.009
3.400,-0.021
3.405,-0.081
3.410,-0.031
3.415,-0.020
3.420,-0.101
3.425,-0.085
3.430,-0.030
3.435,-0.088
3.440,-0.113
3.445,-0.052
3.450,-0.074
3.455,-0.107
3.460,-0.024
3.465,0.010
3.470,-0.052
3.475,-0.024
3.480,0.044
3.485,0.004
3.490,-0.013
3.495,0.060
3.500,0.046
3.505,-0.005
3.510,0.059
3.515,0.089
3.520,0.028
3.525,0.058
3.530,0.109
3.535,0.040
3.540,0.017
3.545,0.090
3.550,0.062
3.555,0.002
3.560,0.058
3.565,0.076
3.570,0.010
3.575,0.047
3.580,0.105
3.585,0.016
3.590,-0.058
3.595,-0.093
3.600,-0.376
3.605,-0.865
3.610,-1.154
3.615,-1.027
3.620,-0.633
3.625,-0.238
3.630,-0.016
3.635,0.028
3.640,0.112
3.645,0.309
3.650,0.370
3.655,0.315
3.660,0.352
3.665,0.360
3.670,0.280
3.675,0.291
3.680,0.334
3.685,0.264
3.690,0.230
3.695,0.284
3.700,0.247
3.705,0.180
3.710,0.229
3.715,0.238
3.720,0.147
3.725,0.153
3.730,0.199
3.735,0.129
3.740,0.100
3.745,0.164
3.750,0.127
3.755,0.061
3.760,0.112
3.765,0.120
3.770,0.041
3.775,0.063
3.780,0.114
3.785,0.047
3.790,0.024
3.795,0.096
3.800,0.075
3.805,0.022
3.810,0.081
3.815,0.105
3.820,0.043
3.825,0.071
3.830,0.127
3.835,0.064
3.840,0.035
3.845,0.093
3.850,0.049
3.855,-0.031
3.860,0.000
3.865,-0.011
3.870,-0.111
3.875,-0.107
3.880,-0.066
3.885,-0.137
3.890,-0.163
3.895,-0.091
3.900,-0.108
3.905,-0.153
3.910,-0.085
3.915,-0.057
3.920,-0.117
3.925,-0.086
3.930,-0.028
3.935,-0.084
3.940,-0.101
3.945,-0.028
3.950,-0.051
3.955,-0.104
3.960,-0.041
3.965,-0.018
3.970,-0.087
3.975,-0.060
3.980,-0.002
3.985,-0.059
3.990,-0.079
3.995,-0.007
4.000,-0.029
4.005,-0.078
4.010,-0.010
4.015,0.013
4.020,-0.057
4.025,-0.033
4.030,0.021
4.035,-0.036
4.040,-0.055
4.045,0.016
4.050,-0.008
4.055,-0.066
4.060,-0.018
4.065,-0.008
4.070,-0.080
4.075,-0.060
4.080,-0.012
4.085,-0.080
4.090,-0.112
4.095,-0.043
4.100,-0.065
4.105,-0.126
4.110,-0.074
4.115,-0.055
4.120,-0.104
4.125,-0.043
4.130,0.041
4.135,-0.009
4.140,-0.033
4.145,0.045
4.150,0.035
4.155,-0.020
4.160,0.040
4.165,0.075
4.170,0.013
4.175,0.033
4.180,0.096
4.185,0.060
4.190,0.056
4.195,0.123
4.200,0.092
4.205,0.028
4.210,0.069
4.215,0.084
4.220,0.021
4.225,0.038
4.230,0.084
4.235,0.028
4.240,0.023
4.245,0.100
4.250,0.047
4.255,-0.065
4.260,-0.114
4.265,-0.351
4.270,-0.852
4.275,-1.176
4.280,-1.019
4.285,-0.606
4.290,-0.233
4.295,0.005
4.300,0.079
4.305,0.112
4.310,0.275
4.315,0.385
4.320,0.327
4.325,0.322
4.330,0.355
4.335,0.283
4.340,0.256
4.345,0.320
4.350,0.282
4.355,0.207
4.360,0.250
4.365,0.257
4.370,0.175
4.375,0.193
4.380,0.242
4.385,0.166
4.390,0.129
4.395,0.186
4.400,0.147
4.405,0.078
4.410,0.131
4.415,0.143
4.420,0.065
4.425,0.083
4.430,0.130
4.435,0.066
4.440,0.040
4.445,0.101
4.450,0.071
4.455,0.007
4.460,0.057
4.465,0.071
4.470,0.001
4.475,0.036
4.480,0.100
4.485,0.041
4.490,0.027
4.495,0.102
4.500,0.073
4.505,0.006
4.510,0.049
4.515,0.042
4.520,-0.064
4.525,-0.073
4.530,-0.052
4.535,-0.148
4.540,-0.186
4.545,-0.110
4.550,-0.125
4.555,-0.174
4.560,-0.114
4.565,-0.095
4.570,-0.160
4.575,-0.111
4.580,-0.021
4.585,-0.074
4.590,-0.104
4.595,-0.029
4.600,-0.041
4.605,-0.097
4.610,-0.051
4.615,-0.026
4.620,-0.070
4.625,-0.024
4.630,0.024
4.635,-0.072
4.640,-0.112
4.645,-0.007
4.650,0.021
4.655,-0.026
4.660,0.001
4.665,-0.007
4.670,-0.074
4.675,-0.024
4.680,0.042
4.685,-0.023
4.690,-0.042
4.695,0.027
4.700,-0.005
4.705,-0.060
4.710,0.008
4.715,0.035
4.720,-0.035
4.725,-0.017
4.730,0.032
4.735,-0.041
4.740,-0.065
4.745,0.015
4.750,-0.027
4.755,-0.118
4.760,-0.061
4.765,-0.013
4.770,-0.071
4.775,-0.082
4.780,-0.068
4.785,-0.116
4.790,-0.096
4.795,0.005
4.800,-0.003
4.805,-0.072
4.810,-0.031
4.815,0.001
4.820,-0.040
4.825,0.010
4.830,0.081
4.835,0.030
4.840,0.023
4.845,0.093
4.850,0.056
4.855,0.010
4.860,0.080
4.865,0.093
4.870,0.012
4.875,0.030
4.880,0.099
4.885,0.058
4.890,0.029
4.895,0.078
4.900,0.053
4.905,-0.006
4.910,0.031
4.915,0.069
4.920,0.033
4.925,0.029
4.930,0.039
4.935,-0.081
4.940,-0.322
4.945,-0.674
4.950,-1.072
4.955,-1.096
4.960,-0.636
4.965,-0.264
4.970,-0.176
4.975,-0.032
4.980,0.146
4.985,0.205
4.990,0.281
4.995,0.390
5.000,0.365
5.005,0.295
5.010,0.341
5.015,0.340
5.020,0.231
5.025,0.222
5.030,0.269
5.035,0.221
5.040,0.213
5.045,0.280
5.050,0.237
5.055,0.158
5.060,0.186
5.065,0.184
5.070,0.127
5.075,0.157
5.080,0.186
5.085,0.100
5.090,0.064
5.095,0.134
5.100,0.113
5.105,0.060
5.110,0.128
5.115,0.139
5.120,0.051
5.125,0.065
5.130,0.101
5.135,0.012
5.140,-0.025
5.145,0.048
5.150,0.032
5.155,-0.014
5.160,0.057
5.165,0.085
5.170,0.011
5.175,0.023
5.180,0.061
5.185,-0.030
5.190,-0.067
5.195,0.001
5.200,-0.037
5.205,-0.113
5.210,-0.068
5.215,-0.054
5.220,-0.138
5.225,-0.143
5.230,-0.096
5.235,-0.132
5.240,-0.143
5.245,-0.068
5.250,-0.064
5.255,-0.103
5.260,-0.048
5.265,-0.013
5.270,-0.074
5.275,-0.069
5.280,-0.018
5.285,-0.066
5.290,-0.090
5.295,-0.018
5.300,-0.031
5.305,-0.077
5.310,-0.012
5.315,0.010
5.320,-0.067
5.325,-0.055
5.330,-0.002
5.335,-0.064
5.340,-0.097
5.345,-0.026
5.350,-0.030
5.355,-0.069
5.360,0.005
5.365,0.024
5.370,-0.063
5.375,-0.042
5.380,0.018
5.385,-0.028
5.390,-0.017
5.395,0.059
5.400,0.003
5.405,-0.068
5.410,0.000
5.415,0.001
5.420,-0.111
5.425,-0.102
5.430,-0.051
5.435,-0.105
5.440,-0.093
5.445,-0.011
5.450,-0.054
5.455,-0.109
5.460,-0.040
5.465,-0.015
5.470,-0.068
5.475,-0.030
5.480,0.019
5.485,-0.037
5.490,-0.024
5.495,0.068
5.500,0.038
5.505,-0.020
5.510,0.051
5.515,0.080
5.520,0.015
5.525,0.062
5.530,0.129
5.535,0.044
5.540,0.006
5.545,0.087
5.550,0.068
5.555,0.007
5.560,0.073
5.565,0.082
5.570,-0.019
5.575,0.014
5.580,0.115
5.585,0.074
5.590,0.032
5.595,0.053
5.600,-0.069
5.605,-0.356
5.610,-0.729
5.615,-1.092
5.620,-1.138
5.625,-0.763
5.630,-0.359
5.635,-0.177
5.640,-0.043
5.645,0.145
5.650,0.271
5.655,0.311
5.660,0.351
5.665,0.331
5.670,0.276
5.675,0.339
5.680,0.392
5.685,0.318
5.690,0.286
5.695,0.327
5.700,0.275
5.705,0.200
5.710,0.248
5.715,0.262
5.720,0.195
5.725,0.212
5.730,0.235
5.735,0.135
5.740,0.103
5.745,0.200
5.750,0.193
5.755,0.118
5.760,0.136
5.765,0.117
5.770,0.042
5.775,0.099
5.780,0.163
5.785,0.062
5.790,0.006
5.795,0.083
5.800,0.078
5.805,0.027
5.810,0.081
5.815,0.094
5.820,0.020
5.825,0.058
5.830,0.126
5.835,0.058
5.840,0.022
5.845,0.083
5.850,0.045
5.855,-0.029
5.860,0.005
5.865,-0.005
5.870,-0.107
5.875,-0.110
5.880,-0.069
5.885,-0.135
5.890,-0.162
5.895,-0.098
5.900,-0.120
5.905,-0.164
5.910,-0.095
5.915,-0.080
5.920,-0.154
5.925,-0.110
5.930,-0.042
5.935,-0.099
5.940,-0.103
5.945,-0.018
5.950,-0.043
5.955,-0.110
5.960,-0.068
5.965,-0.044
5.970,-0.082
5.975,-0.043
5.980,-0.002
5.985,-0.072
5.990,-0.087
5.995,-0.002
6.000,-0.015
6.005,-0.071
6.010,-0.022
6.015,-0.004
6.020,-0.072
6.025,-0.055
6.030,-0.002
6.035,-0.058
6.040,-0.067
6.045,0.023
6.050,-0.005
6.055,-0.080
6.060,-0.033
6.065,-0.026
6.070,-0.112
6.075,-0.096
6.080,-0.041
6.085,-0.107
6.090,-0.145
6.095,-0.077
6.100,-0.076
6.105,-0.099
6.110,-0.011
6.115,0.029
6.120,-0.033
6.125,0.007
6.130,0.077
6.135,0.016
6.140,-0.007
6.145,0.066
6.150,0.038
6.155,-0.014
6.160,0.069
6.165,0.106
6.170,0.033
6.175,0.047
6.180,0.099
6.185,0.040
6.190,0.012
6.195,0.090
6.200,0.073
6.205,0.012
6.210,0.077
6.215,0.115
6.220,0.059
6.225,0.072
6.230,0.091
6.235,-0.024
6.240,-0.174
6.245,-0.413
6.250,-0.895
6.255,-1.245
6.260,-1.026
6.265,-0.602
6.270,-0.378
6.275,-0.160
6.280,0.056
6.285,0.158
6.290,0.304
6.295,0.448
6.300,0.413
6.305,0.333
6.310,0.369
6.315,0.362
6.320,0.277
6.325,0.299
6.330,0.345
6.335,0.273
6.340,0.248
6.345,0.306
6.350,0.261
6.355,0.189
6.360,0.227
6.365,0.225
6.370,0.138
6.375,0.153
6.380,0.200
6.385,0.120
6.390,0.089
6.395,0.156
6.400,0.122
6.405,0.061
6.410,0.116
6.415,0.115
6.420,0.023
6.425,0.044
6.430,0.106
6.435,0.050
6.440,0.037
6.445,0.114
6.450,0.094
6.455,0.038
6.460,0.091
6.465,0.113
6.470,0.046
6.475,0.062
6.480,0.107
6.485,0.035
6.490,-0.007
6.495,0.038
6.500,-0.012
6.505,-0.091
6.510,-0.059
6.515,-0.072
6.520,-0.167
6.525,-0.161
6.530,-0.109
6.535,-0.160
6.540,-0.177
6.545,-0.096
6.550,-0.106
6.555,-0.151
6.560,-0.086
6.565,-0.065
6.570,-0.127
6.575,-0.098
6.580,-0.048
6.585,-0.114
6.590,-0.138
6.595,-0.058
6.600,-0.063
6.605,-0.110
6.610,-0.049
6.615,-0.027
6.620,-0.110
6.625,-0.087
6.630,-0.020
6.635,-0.073
6.640,-0.074
6.645,0.007
6.650,-0.032
6.655,-0.089
6.660,-0.017
6.665,0.001
6.670,-0.081
6.675,-0.070
6.680,-0.023
6.685,-0.084
6.690,-0.104
6.695,-0.040
6.700,-0.064
6.705,-0.114
6.710,-0.062
6.715,-0.054
6.720,-0.130
6.725,-0.083
6.730,0.007
6.735,-0.047
6.740,-0.057
6.745,0.042
6.750,0.036
6.755,-0.017
6.760,0.038
6.765,0.059
6.770,-0.017
6.775,0.000
6.780,0.057
6.785,0.020
6.790,0.027
6.795,0.096
6.800,0.073
6.805,0.033
6.810,0.090
6.815,0.104
6.820,0.030
6.825,0.037
6.830,0.077
6.835,0.012
6.840,-0.006
6.845,0.084
6.850,0.076
6.855,-0.001
6.860,0.006
6.865,-0.088
6.870,-0.433
6.875,-0.859
6.880,-1.142
6.885,-1.082
6.890,-0.693
6.895,-0.314
6.900,-0.140
6.905,-0.024
6.910,0.176
6.915,0.344
6.920,0.363
6.925,0.378
6.930,0.402
6.935,0.315
6.940,0.270
6.945,0.337
6.950,0.320
6.955,0.249
6.960,0.288
6.965,0.292
6.970,0.204
6.975,0.231
6.980,0.316
6.985,0.250
6.990,0.165
6.995,0.187
7.000,0.159
7.005,0.094
7.010,0.130
7.015,0.144
7.020,0.087
7.025,0.115
7.030,0.152
7.035,0.079
7.040,0.063
7.045,0.122
7.050,0.090
7.055,0.048
7.060,0.089
7.065,0.076
7.070,-0.005
7.075,0.020
7.080,0.084
7.085,0.056
7.090,0.062
7.095,0.113
7.100,0.065
7.105,0.008
7.110,0.057
7.115,0.072
7.120,-0.001
7.125,-0.018
7.130,-0.019
7.135,-0.115
7.140,-0.159
7.145,-0.093
7.150,-0.125
7.155,-0.190
7.160,-0.121
7.165,-0.096
7.170,-0.168
7.175,-0.124
7.180,-0.054
7.185,-0.118
7.190,-0.126
7.195,-0.047
7.200,-0.093
7.205,-0.158
7.210,-0.083
7.215,-0.051
7.220,-0.113
7.225,-0.076
7.230,-0.006
7.235,-0.062
7.240,-0.082
7.245,-0.014
7.250,-0.057
7.255,-0.124
7.260,-0.055
7.265,-0.023
7.270,-0.078
7.275,-0.041
7.280,0.021
7.285,-0.046
7.290,-0.084
7.295,-0.014
7.300,-0.023
7.305,-0.072
7.310,-0.029
7.315,-0.017
7.320,-0.075
7.325,-0.051
7.330,-0.013
7.335,-0.103
7.340,-0.124
7.345,-0.016
7.350,-0.018
7.355,-0.066
7.360,0.007
7.365,0.058
7.370,0.017
7.375,0.043
7.380,0.106
7.385,0.060
7.390,0.035
7.395,0.105
7.400,0.100
7.405,0.068
7.410,0.125
7.415,0.130
7.420,0.060
7.425,0.103
7.430,0.184
7.435,0.109
7.440,0.035
7.445,0.069
7.450,0.052
7.455,0.018
7.460,0.090
7.465,0.128
7.470,0.049
7.475,0.023
7.480,0.022
7.485,-0.199
7.490,-0.605
7.495,-0.989
7.500,-1.157
7.505,-0.911
7.510,-0.458
7.515,-0.174
7.520,-0.040
7.525,0.131
7.530,0.325
7.535,0.388
7.540,0.388
7.545,0.420
7.550,0.360
7.555,0.304
7.560,0.382
7.565,0.372
7.570,0.240
7.575,0.241
7.580,0.314
7.585,0.271
7.590,0.248
7.595,0.288
7.600,0.217
7.605,0.120
7.610,0.178
7.615,0.221
7.620,0.147
7.625,0.153
7.630,0.194
7.635,0.113
7.640,0.080
7.645,0.155
7.650,0.130
7.655,0.063
7.660,0.099
7.665,0.098
7.670,0.025
7.675,0.052
7.680,0.106
7.685,0.043
7.690,0.022
7.695,0.097
7.700,0.063
7.705,-0.010
7.710,0.048
7.715,0.062
7.720,-0.019
7.725,0.000
7.730,0.053
7.735,-0.006
7.740,-0.039
7.745,0.003
7.750,-0.039
7.755,-0.112
7.760,-0.080
7.765,-0.090
7.770,-0.192
7.775,-0.156
7.780,-0.058
7.785,-0.114
7.790,-0.141
7.795,-0.046
7.800,-0.062
7.805,-0.129
7.810,-0.077
7.815,-0.061
7.820,-0.117
7.825,-0.073
7.830,-0.016
7.835,-0.073
7.840,-0.092
7.845,-0.037
7.850,-0.073
7.855,-0.133
7.860,-0.066
7.865,-0.024
7.870,-0.077
7.875,-0.044
7.880,0.009
7.885,-0.067
7.890,-0.109
7.895,-0.047
7.900,-0.068
7.905,-0.127
7.910,-0.077
7.915,-0.063
7.920,-0.143
7.925,-0.126
7.930,-0.070
7.935,-0.126
7.940,-0.153
7.945,-0.095
7.950,-0.102
7.955,-0.121
7.960,-0.052
7.965,-0.014
7.970,-0.059
7.975,-0.039
7.980,0.025
7.985,-0.019
7.990,-0.036
7.995,0.048
8.000,0.031
8.005,-0.034
8.010,0.029
8.015,0.072
8.020,0.023
8.025,0.064
8.030,0.116
8.035,0.030
8.040,-0.004
8.045,0.068
8.050,0.047
8.055,-0.013
8.060,0.034
8.065,0.058
8.070,0.006
8.075,0.051
8.080,0.106
8.085,0.010
8.090,-0.078
8.095,-0.168
8.100,-0.549
8.105,-1.058
8.110,-1.178
8.115,-0.895
8.120,-0.601
8.125,-0.339
8.130,-0.068
8.135,0.049
8.140,0.189
8.145,0.396
8.150,0.411
8.155,0.337
8.160,0.365
8.165,0.371
8.170,0.292
8.175,0.302
8.180,0.355
8.185,0.290
8.190,0.255
8.195,0.305
8.200,0.255
8.205,0.171
8.210,0.227
8.215,0.251
8.220,0.163
8.225,0.180
8.230,0.224
8.235,0.137
8.240,0.096
8.245,0.152
8.250,0.125
8.255,0.077
8.260,0.130
8.265,0.125
8.270,0.030
8.275,0.053
8.280,0.118
8.285,0.060
8.290,0.041
8.295,0.111
8.300,0.078
8.305,0.002
8.310,0.047
8.315,0.079
8.320,0.027
8.325,0.056
8.330,0.114
8.335,0.047
8.340,-0.002
8.345,0.057
8.350,0.034
8.355,-0.044
8.360,-0.016
8.365,-0.023
8.370,-0.120
8.375,-0.104
8.380,-0.047
8.385,-0.116
8.390,-0.145
8.395,-0.060
8.400,-0.073
8.405,-0.138
8.410,-0.070
8.415,-0.019
8.420,-0.084
8.425,-0.066
8.430,0.000
8.435,-0.063
8.440,-0.102
8.445,-0.031
8.450,-0.025
8.455,-0.083
8.460,-0.056
8.465,-0.033
8.470,-0.096
8.475,-0.062
8.480,0.025
8.485,-0.020
8.490,-0.050
8.495,0.001
8.500,-0.015
8.505,-0.040
8.510,-0.004
8.515,-0.031
8.520,-0.122
8.525,-0.117
8.530,-0.065
8.535,-0.090
8.540,-0.079
8.545,-0.007
8.550,-0.062
8.555,-0.156
8.560,-0.074
8.565,0.003
8.570,-0.035
8.575,-0.024
8.580,0.008
8.585,-0.035
8.590,-0.033
8.595,0.043
8.600,0.026
8.605,0.001
8.610,0.076
8.615,0.063
8.620,-0.025
8.625,0.026
8.630,0.126
8.635,0.067
8.640,-0.012
8.645,0.024
8.650,-0.017
8.655,-0.071
8.660,0.042
8.665,0.108
8.670,0.035
8.675,0.042
8.680,0.084
8.685,-0.008
8.690,-0.068
8.695,-0.018
8.700,-0.124
8.705,-0.477
8.710,-0.893
8.715,-1.186
8.720,-1.079
8.725,-0.548
8.730,-0.187
8.735,-0.200
8.740,-0.086
8.745,0.186
8.750,0.275
8.755,0.282
8.760,0.390
8.765,0.426
8.770,0.275
8.775,0.164
8.780,0.195
8.785,0.240
8.790,0.323
8.795,0.408
8.800,0.299
8.805,0.128
8.810,0.114
8.815,0.145
8.820,0.184
8.825,0.256
8.830,0.259
8.835,0.127
8.840,0.014
8.845,0.136
8.850,0.274
8.855,0.205
8.860,0.091
8.865,0.044
8.870,-0.023
8.875,-0.002
8.880,0.141
8.885,0.153
8.890,0.048
8.895,0.002
8.900,0.014
8.905,0.075
8.910,0.144
8.915,0.056
8.920,-0.068
8.925,0.071
8.930,0.157
8.935,0.006
8.940,0.068
8.945,0.215
8.950,0.059
8.955,-0.111
8.960,-0.003
8.965,0.082
8.970,-0.037
8.975,-0.134
8.980,-0.153
8.985,-0.204
8.990,-0.193
8.995,-0.012
9.000,0.078
9.005,0.004
9.010,-0.113
9.015,-0.274
9.020,-0.239
9.025,-0.009
9.030,0.067
9.035,-0.057
9.040,-0.071
9.045,-0.002
9.050,-0.163
9.055,-0.262
9.060,-0.040
9.065,0.057
9.070,-0.086
9.075,-0.073
9.080,-0.006
9.085,-0.128
9.090,-0.105
9.095,0.110
9.100,0.078
9.105,-0.085
9.110,-0.083
9.115,-0.077
9.120,-0.098
9.125,-0.039
9.130,-0.077
9.135,-0.164
9.140,-0.074
9.145,-0.072
9.150,-0.237
9.155,-0.161
9.160,0.116
9.165,0.166
9.170,-0.026
9.175,-0.196
9.180,-0.201
9.185,-0.037
9.190,0.081
9.195,-0.039
9.200,-0.172
9.205,-0.045
9.210,0.121
9.215,0.008
9.220,-0.157
9.225,-0.065
9.230,0.091
9.235,0.077
9.240,0.040
9.245,0.096
9.250,0.076
9.255,0.011
9.260,0.078
9.265,0.132
9.270,0.086
9.275,0.083
9.280,-0.006
9.285,-0.156
9.290,0.024
9.295,0.239
9.300,-0.011
9.305,-0.365
9.310,-0.694
9.315,-1.197
9.320,-1.354
9.325,-0.872
9.330,-0.348
9.335,-0.180
9.340,-0.116
9.345,0.046
9.350,0.222
9.355,0.421
9.360,0.533
9.365,0.331
9.370,0.250
9.375,0.502
9.380,0.479
9.385,0.210
9.390,0.189
9.395,0.320
9.400,0.425
9.405,0.347
9.410,0.168
9.415,0.194
9.420,0.250
9.425,0.240
9.430,0.248
9.435,0.146
9.440,0.075
9.445,0.266
9.450,0.285
9.455,0.018
9.460,0.052
9.465,0.204
9.470,0.137
9.475,0.208
9.480,0.259
9.485,-0.003
9.490,-0.104
9.495,0.034
9.500,0.079
9.505,0.147
9.510,0.197
9.515,0.107
9.520,0.053
9.525,0.125
9.530,0.182
9.535,0.044
9.540,-0.059
9.545,0.119
9.550,0.254
9.555,0.127
9.560,-0.011
9.565,-0.034
9.570,-0.091
9.575,-0.141
9.580,-0.128
9.585,-0.161
9.590,-0.110
9.595,-0.024
9.600,-0.099
9.605,-0.123
9.610,-0.031
9.615,-0.007
9.620,-0.129
9.625,-0.248
9.630,-0.224
9.635,-0.174
9.640,0.032
9.645,0.211
9.650,-0.083
9.655,-0.287
9.660,0.002
9.665,0.132
9.670,-0.011
9.675,-0.092
9.680,-0.147
9.685,-0.119
9.690,0.011
9.695,-0.008
9.700,-0.135
9.705,-0.059
9.710,0.095
9.715,0.029
9.720,-0.113
9.725,-0.070
9.730,0.028
9.735,0.054
9.740,-0.027
9.745,-0.174
9.750,-0.198
9.755,-0.181
9.760,-0.086
9.765,0.094
9.770,0.055
9.775,-0.015
9.780,0.064
9.785,0.023
9.790,-0.010
9.795,0.078
9.800,0.023
9.805,-0.031
9.810,0.137
9.815,0.096
9.820,-0.188
9.825,-0.140
9.830,0.114
9.835,0.187
9.840,0.095
9.845,-0.021
9.850,-0.061
9.855,0.041
9.860,0.253
9.865,0.210
9.870,-0.052
9.875,-0.028
9.880,0.144
9.885,0.145
9.890,0.121
9.895,0.087
9.900,-0.071
9.905,-0.249
9.910,-0.465
9.915,-0.925
9.920,-1.284
9.925,-1.000
9.930,-0.531
9.935,-0.414
9.940,-0.302
9.945,0.011
9.950,0.245
9.955,0.376
9.960,0.517
9.965,0.424
9.970,0.212
9.975,0.311
9.980,0.478
9.985,0.425
9.990,0.301
9.995,0.235
10.000,0.240
10.005,0.264
10.010,0.294
10.015,0.275
10.020,0.165
10.025,0.160
10.030,0.278
10.035,0.240
10.040,0.180
10.045,0.251
10.050,0.167
10.055,0.022
10.060,0.108
10.065,0.158
10.070,0.055
10.075,0.123
10.080,0.220
10.085,0.086
10.090,-0.025
10.095,0.057
10.100,0.106
10.105,0.080
10.110,0.155
10.115,0.204
10.120,0.116
10.125,0.058
10.130,0.074
10.135,0.047
10.140,0.015
10.145,0.057
10.150,0.015
10.155,-0.037
10.160,0.013
10.165,-0.078
10.170,-0.222
10.175,-0.155
10.180,-0.037
10.185,-0.075
10.190,-0.146
10.195,-0.107
10.200,-0.092
10.205,-0.138
10.210,-0.095
10.215,-0.107
10.220,-0.220
10.225,-0.165
10.230,-0.031
10.235,-0.051
10.240,-0.071
10.245,-0.025
10.250,-0.083
10.255,-0.151
10.260,-0.051
10.265,0.025
10.270,-0.080
10.275,-0.084
10.280,0.062
10.285,0.051
10.290,-0.084
10.295,-0.110
10.300,-0.090
10.305,-0.058
10.310,0.072
10.315,0.078
10.320,-0.105
10.325,-0.153
10.330,-0.075
10.335,-0.092
10.340,-0.096
10.345,-0.031
10.350,-0.058
10.355,-0.123
10.360,-0.073
10.365,-0.001
10.370,-0.050
10.375,-0.067
10.380,0.046
10.385,0.029
10.390,-0.059
10.395,-0.008
10.400,-0.031
10.405,-0.107
10.410,0.016
10.415,0.119
10.420,0.010
10.425,-0.025
10.430,0.047
10.435,0.025
10.440,0.033
10.445,0.127
10.450,0.090
10.455,-0.008
10.460,0.022
10.465,0.041
10.470,-0.030
10.475,-0.001
10.480,0.138
10.485,0.139
10.490,0.055
10.495,0.091
10.500,0.041
10.505,-0.200
10.510,-0.528
10.515,-0.959
10.520,-1.214
10.525,-0.956
10.530,-0.515
10.535,-0.312
10.540,-0.197
10.545,0.033
10.550,0.218
10.555,0.326
10.560,0.418
10.565,0.372
10.570,0.312
10.575,0.356
10.580,0.331
10.585,0.228
10.590,0.248
10.595,0.345
10.600,0.294
10.605,0.195
10.610,0.241
10.615,0.267
10.620,0.192
10.625,0.202
10.630,0.272
10.635,0.211
10.640,0.106
10.645,0.129
10.650,0.121
10.655,0.135
10.660,0.259
10.665,0.178
10.670,-0.020
10.675,0.037
10.680,0.149
10.685,0.056
10.690,0.033
10.695,0.134
10.700,0.110
10.705,0.088
10.710,0.137
10.715,0.087
10.720,-0.019
10.725,-0.020
10.730,0.046
10.735,0.020
10.740,0.024
10.745,0.116
10.750,0.045
10.755,-0.093
10.760,-0.070
10.765,-0.064
10.770,-0.139
10.775,-0.118
10.780,-0.090
10.785,-0.179
10.790,-0.208
10.795,-0.145
10.800,-0.152
10.805,-0.155
10.810,-0.028
10.815,0.026
10.820,-0.093
10.825,-0.169
10.830,-0.162
10.835,-0.140
10.840,-0.097
10.845,-0.028
10.850,0.016
10.855,0.014
10.860,0.016
10.865,-0.020
10.870,-0.083
10.875,-0.032
10.880,0.040
10.885,-0.021
10.890,-0.053
10.895,0.018
10.900,0.004
10.905,-0.076
10.910,-0.041
10.915,0.008
10.920,-0.034
10.925,-0.023
10.930,0.008
10.935,-0.056
10.940,-0.078
10.945,-0.063
10.950,-0.105
10.955,-0.153
10.960,-0.132
10.965,-0.056
10.970,-0.016
10.975,0.051
10.980,0.081
10.985,-0.024
10.990,-0.025
10.995,0.093
11.000,0.051
11.005,-0.044
11.010,0.001
11.015,-0.001
11.020,-0.055
11.025,0.035
11.030,0.106
11.035,0.032
11.040,0.045
11.045,0.125
11.050,0.072
11.055,0.044
11.060,0.135
11.065,0.103
11.070,-0.045
11.075,-0.010
11.080,0.109
11.085,0.054
11.090,0.031
11.095,0.100
11.100,-0.016
11.105,-0.299
11.110,-0.649
11.115,-1.026
11.120,-1.098
11.125,-0.731
11.130,-0.379
11.135,-0.262
11.140,-0.097
11.145,0.138
11.150,0.225
11.155,0.273
11.160,0.376
11.165,0.390
11.170,0.355
11.175,0.372
11.180,0.337
11.185,0.217
11.190,0.200
11.195,0.306
11.200,0.301
11.205,0.224
11.210,0.267
11.215,0.262
11.220,0.145
11.225,0.145
11.230,0.205
11.235,0.158
11.240,0.112
11.245,0.152
11.250,0.137
11.255,0.063
11.260,0.088
11.265,0.114
11.270,0.064
11.275,0.066
11.280,0.076
11.285,0.009
11.290,-0.010
11.295,0.051
11.300,0.027
11.305,-0.015
11.310,0.061
11.315,0.087
11.320,-0.003
11.325,0.018
11.330,0.088
11.335,-0.019
11.340,-0.095
11.345,-0.019
11.350,-0.044
11.355,-0.134
11.360,-0.096
11.365,-0.087
11.370,-0.186
11.375,-0.184
11.380,-0.125
11.385,-0.168
11.390,-0.190
11.395,-0.123
11.400,-0.104
11.405,-0.123
11.410,-0.083
11.415,-0.082
11.420,-0.147
11.425,-0.112
11.430,-0.030
11.435,-0.058
11.440,-0.075
11.445,-0.012
11.450,-0.038
11.455,-0.093
11.460,-0.013
11.465,0.051
11.470,-0.016
11.475,-0.019
11.480,0.038
11.485,-0.015
11.490,-0.022
11.495,0.056
11.500,-0.014
11.505,-0.092
11.510,0.001
11.515,0.032
11.520,-0.047
11.525,-0.039
11.530,-0.004
11.535,-0.054
11.540,-0.056
11.545,0.016
11.550,-0.027
11.555,-0.106
11.560,-0.042
11.565,0.001
11.570,-0.044
11.575,-0.011
11.580,0.027
11.585,-0.025
11.590,-0.019
11.595,0.063
11.600,0.036
11.605,-0.035
11.610,0.031
11.615,0.076
11.620,0.011
11.625,0.040
11.630,0.103
11.635,0.029
11.640,-0.001
11.645,0.093
11.650,0.109
11.655,0.060
11.660,0.074
11.665,0.070
11.670,0.005
11.675,0.045
11.680,0.130
11.685,0.084
11.690,0.034
11.695,0.019
11.700,-0.195
11.705,-0.646
11.710,-1.039
11.715,-1.111
11.720,-0.834
11.725,-0.419
11.730,-0.156
11.735,-0.060
11.740,0.090
11.745,0.322
11.750,0.391
11.755,0.346
11.760,0.409
11.765,0.425
11.770,0.338
11.775,0.359
11.780,0.392
11.785,0.282
11.790,0.230
11.795,0.287
11.800,0.256
11.805,0.194
11.810,0.241
11.815,0.236
11.820,0.131
11.825,0.135
11.830,0.198
11.835,0.148
11.840,0.119
11.845,0.186
11.850,0.151
11.855,0.060
11.860,0.116
11.865,0.139
11.870,0.020
11.875,0.020
11.880,0.102
11.885,0.033
11.890,-0.024
11.895,0.053
11.900,0.054
11.905,0.002
11.910,0.046
11.915,0.047
11.920,-0.040
11.925,-0.015
11.930,0.070
11.935,0.044
11.940,0.011
11.945,0.023
11.950,-0.061
11.955,-0.168
11.960,-0.149
11.965,-0.138
11.970,-0.206
11.975,-0.187
11.980,-0.120
11.985,-0.164
11.990,-0.181
11.995,-0.092
12.000,-0.088
12.005,-0.117
12.010,-0.017
12.015,0.035
12.020,-0.043
12.025,-0.038
12.030,0.024
12.035,-0.040
12.040,-0.073
12.045,0.032
12.050,0.031
12.055,-0.048
12.060,0.011
12.065,0.043
12.070,-0.037
12.075,-0.004
12.080,0.062
12.085,-0.024
12.090,-0.060
12.095,0.011
12.100,-0.042
12.105,-0.124
12.110,-0.055
12.115,0.003
12.120,-0.046
12.125,-0.051
12.130,-0.034
12.135,-0.108
12.140,-0.126
12.145,-0.044
12.150,-0.057
12.155,-0.109
12.160,-0.041
12.165,0.015
12.170,-0.053
12.175,-0.071
12.180,-0.009
12.185,-0.021
12.190,-0.018
12.195,0.060
12.200,0.035
12.205,-0.057
12.210,0.006
12.215,0.086
12.220,0.048
12.225,0.065
12.230,0.089
12.235,0.000
12.240,-0.018
12.245,0.067
12.250,0.058
12.255,0.021
12.260,0.080
12.265,0.084
12.270,0.016
12.275,0.069
12.280,0.131
12.285,0.006
12.290,-0.153
12.295,-0.355
12.300,-0.792
12.305,-1.158
12.310,-1.051
12.315,-0.732
12.320,-0.545
12.325,-0.344
12.330,-0.115
12.335,-0.014
12.340,0.122
12.345,0.324
12.350,0.357
12.355,0.310
12.360,0.363
12.365,0.365
12.370,0.305
12.375,0.365
12.380,0.419
12.385,0.327
12.390,0.268
12.395,0.256
12.400,0.149
12.405,0.075
12.410,0.141
12.415,0.188
12.420,0.152
12.425,0.171
12.430,0.187
12.435,0.084
12.440,0.039
12.445,0.123
12.450,0.134
12.455,0.068
12.460,0.077
12.465,0.081
12.470,0.021
12.475,0.051
12.480,0.092
12.485,0.015
12.490,0.018
12.495,0.120
12.500,0.084
12.505,0.006
12.510,0.060
12.515,0.068
12.520,-0.026
12.525,-0.015
12.530,0.038
12.535,-0.029
12.540,-0.080
12.545,-0.068
12.550,-0.125
12.555,-0.170
12.560,-0.104
12.565,-0.100
12.570,-0.175
12.575,-0.116
12.580,-0.015
12.585,-0.066
12.590,-0.110
12.595,-0.020
12.600,0.016
12.605,-0.025
12.610,0.001
12.615,-0.010
12.620,-0.078
12.625,-0.033
12.630,0.037
12.635,-0.004
12.640,-0.017
12.645,0.025
12.650,-0.024
12.655,-0.054
12.660,0.050
12.665,0.083
12.670,-0.029
12.675,-0.036
12.680,0.050
12.685,0.008
12.690,-0.036
12.695,0.016
12.700,-0.017
12.705,-0.077
12.710,-0.015
12.715,-0.003
12.720,-0.096
12.725,-0.085
12.730,-0.027
12.735,-0.084
12.740,-0.121
12.745,-0.041
12.750,-0.029
12.755,-0.070
12.760,-0.020
12.765,-0.017
12.770,-0.050
12.775,0.022
12.780,0.068
12.785,-0.005
12.790,-0.042
12.795,0.016
12.800,0.026
12.805,0.002
12.810,0.054
12.815,0.066
12.820,-0.004
12.825,0.007
12.830,0.052
12.835,-0.001
12.840,-0.020
12.845,0.075
12.850,0.081
12.855,0.013
12.860,0.060
12.865,0.085
12.870,0.008
12.875,0.007
12.880,-0.007
12.885,-0.263
12.890,-0.671
12.895,-1.005
12.900,-1.093
12.905,-0.870
12.910,-0.526
12.915,-0.282
12.920,-0.152
12.925,0.018
12.930,0.244
12.935,0.331
12.940,0.337
12.945,0.390
12.950,0.357
12.955,0.270
12.960,0.307
12.965,0.344
12.970,0.274
12.975,0.298
12.980,0.355
12.985,0.261
12.990,0.202
12.995,0.254
13.000,0.226
13.005,0.181
13.010,0.244
13.015,0.251
13.020,0.146
13.025,0.133
13.030,0.184
13.035,0.120
13.040,0.068
13.045,0.143
13.050,0.154
13.055,0.105
13.060,0.154
13.065,0.156
13.070,0.052
13.075,0.043
13.080,0.081
13.085,0.037
13.090,0.049
13.095,0.121
13.100,0.070
13.105,0.013
13.110,0.056
13.115,0.018
13.120,-0.074
13.125,-0.055
13.130,-0.001
13.135,-0.039
13.140,-0.103
13.145,-0.103
13.150,-0.141
13.155,-0.193
13.160,-0.122
13.165,-0.097
13.170,-0.174
13.175,-0.138
13.180,-0.061
13.185,-0.118
13.190,-0.130
13.195,-0.015
13.200,0.008
13.205,-0.048
13.210,-0.029
13.215,-0.033
13.220,-0.106
13.225,-0.077
13.230,0.002
13.235,-0.043
13.240,-0.051
13.245,0.043
13.250,0.008
13.255,-0.057
13.260,0.022
13.265,0.034
13.270,-0.085
13.275,-0.087
13.280,-0.020
13.285,-0.068
13.290,-0.087
13.295,-0.037
13.300,-0.064
13.305,-0.107
13.310,-0.067
13.315,-0.056
13.320,-0.094
13.325,-0.064
13.330,-0.042
13.335,-0.075
13.340,-0.049
13.345,-0.010
13.350,-0.054
13.355,-0.064
13.360,0.027
13.365,0.039
13.370,-0.027
13.375,0.026
13.380,0.103
13.385,0.056
13.390,0.034
13.395,0.092
13.400,0.073
13.405,0.014
13.410,0.066
13.415,0.110
13.420,0.034
13.425,0.003
13.430,0.056
13.435,0.028
13.440,0.019
13.445,0.124
13.450,0.131
13.455,0.054
13.460,0.059
13.465,-0.030
13.470,-0.347
13.475,-0.739
13.480,-1.083
13.485,-1.178
13.490,-0.898
13.495,-0.486
13.500,-0.217
13.505,-0.101
13.510,0.085
13.515,0.319
13.520,0.369
13.525,0.358
13.530,0.390
13.535,0.350
13.540,0.314
13.545,0.371
13.550,0.354
13.555,0.281
13.560,0.323
13.565,0.344
13.570,0.266
13.575,0.262
13.580,0.299
13.585,0.236
13.590,0.196
13.595,0.230
13.600,0.198
13.605,0.166
13.610,0.228
13.615,0.225
13.620,0.130
13.625,0.130
13.630,0.162
13.635,0.083
13.640,0.060
13.645,0.148
13.650,0.128
13.655,0.053
13.660,0.096
13.665,0.118
13.670,0.057
13.675,0.086
13.680,0.153
13.685,0.103
13.690,0.075
13.695,0.123
13.700,0.075
13.705,0.015
13.710,0.059
13.715,0.044
13.720,-0.062
13.725,-0.094
13.730,-0.106
13.735,-0.205
13.740,-0.226
13.745,-0.137
13.750,-0.146
13.755,-0.208
13.760,-0.161
13.765,-0.122
13.770,-0.159
13.775,-0.125
13.780,-0.062
13.785,-0.110
13.790,-0.142
13.795,-0.081
13.800,-0.086
13.805,-0.124
13.810,-0.059
13.815,-0.030
13.820,-0.088
13.825,-0.059
13.830,-0.004
13.835,-0.066
13.840,-0.099
13.845,-0.043
13.850,-0.062
13.855,-0.131
13.860,-0.097
13.865,-0.069
13.870,-0.130
13.875,-0.105
13.880,-0.033
13.885,-0.084
13.890,-0.116
13.895,-0.059
13.900,-0.083
13.905,-0.119
13.910,-0.041
13.915,-0.012
13.920,-0.090
13.925,-0.076
13.930,-0.007
13.935,-0.047
13.940,-0.059
13.945,0.033
13.950,0.045
13.955,0.004
13.960,0.051
13.965,0.065
13.970,0.004
13.975,0.039
13.980,0.090
13.985,0.011
13.990,-0.028
13.995,0.033
14.000,0.019
14.005,-0.026
14.010,0.021
14.015,0.051
14.020,0.022
14.025,0.085
14.030,0.164
14.035,0.083
14.040,0.006
14.045,-0.052
14.050,-0.387
14.055,-0.915
14.060,-1.227
14.065,-1.143
14.070,-0.861
14.075,-0.553
14.080,-0.242
14.085,-0.060
14.090,0.098
14.095,0.321
14.100,0.388
14.105,0.354
14.110,0.390
14.115,0.383
14.120,0.309
14.125,0.325
14.130,0.365
14.135,0.298
14.140,0.266
14.145,0.314
14.150,0.261
14.155,0.187
14.160,0.234
14.165,0.245
14.170,0.174
14.175,0.190
14.180,0.228
14.185,0.150
14.190,0.106
14.195,0.160
14.200,0.140
14.205,0.083
14.210,0.117
14.215,0.110
14.220,0.032
14.225,0.073
14.230,0.148
14.235,0.099
14.240,0.069
14.245,0.126
14.250,0.116
14.255,0.077
14.260,0.129
14.265,0.140
14.270,0.069
14.275,0.094
14.280,0.143
14.285,0.075
14.290,0.044
14.295,0.099
14.300,0.057
14.305,-0.041
14.310,-0.055
14.315,-0.079
14.320,-0.131
14.325,-0.088
14.330,-0.069
14.335,-0.183
14.340,-0.201
14.345,-0.094
14.350,-0.098
14.355,-0.147
14.360,-0.107
14.365,-0.101
14.370,-0.133
14.375,-0.073
14.380,-0.026
14.385,-0.110
14.390,-0.129
14.395,-0.019
14.400,-0.025
14.405,-0.114
14.410,-0.066
14.415,-0.027
14.420,-0.098
14.425,-0.073
14.430,-0.013
14.435,-0.087
14.440,-0.123
14.445,-0.053
14.450,-0.081
14.455,-0.160
14.460,-0.100
14.465,-0.048
14.470,-0.129
14.475,-0.144
14.480,-0.074
14.485,-0.069
14.490,-0.044
14.495,0.030
14.500,-0.009
14.505,-0.094
14.510,-0.023
14.515,0.064
14.520,0.020
14.525,0.014
14.530,0.058
14.535,0.022
14.540,0.020
14.545,0.104
14.550,0.107
14.555,0.050
14.560,0.068
14.565,0.073
14.570,0.025
14.575,0.032
14.580,0.044
14.585,-0.002
14.590,0.016
14.595,0.105
14.600,0.105
14.605,0.051
14.610,0.059
14.615,0.023
14.620,-0.173
14.625,-0.504
14.630,-0.941
14.635,-1.260
14.640,-1.092
14.645,-0.644
14.650,-0.384
14.655,-0.208
14.660,0.028
14.665,0.211
14.670,0.315
14.675,0.396
14.680,0.412
14.685,0.327
14.690,0.305
14.695,0.368
14.700,0.344
14.705,0.279
14.710,0.287
14.715,0.288
14.720,0.245
14.725,0.263
14.730,0.294
14.735,0.216
14.740,0.183
14.745,0.261
14.750,0.219
14.755,0.130
14.760,0.186
14.765,0.193
14.770,0.083
14.775,0.093
14.780,0.159
14.785,0.098
14.790,0.077
14.795,0.141
14.800,0.117
14.805,0.068
14.810,0.104
14.815,0.095
14.820,0.012
14.825,0.041
14.830,0.131
14.835,0.090
14.840,0.042
14.845,0.088
14.850,0.072
14.855,0.043
14.860,0.098
14.865,0.076
14.870,-0.033
14.875,-0.046
14.880,0.000
14.885,-0.028
14.890,-0.038
14.895,-0.008
14.900,-0.092
14.905,-0.188
14.910,-0.139
14.915,-0.111
14.920,-0.154
14.925,-0.081
14.930,-0.007
14.935,-0.085
14.940,-0.129
14.945,-0.089
14.950,-0.114
14.955,-0.155
14.960,-0.079
14.965,-0.010
14.970,-0.055
14.975,-0.021
14.980,0.023
14.985,-0.074
14.990,-0.108
14.995,-0.033
15.000,-0.035
15.005,-0.070
15.010,-0.012
15.015,-0.006
15.020,-0.093
15.025,-0.086
15.030,-0.057
15.035,-0.106
15.040,-0.115
15.045,-0.070
15.050,-0.099
15.055,-0.133
15.060,-0.058
15.065,-0.006
15.070,-0.032
15.075,0.001
15.080,0.061
15.085,0.000
15.090,-0.077
15.095,-0.019
15.100,0.031
15.105,0.003
15.110,0.036
15.115,0.076
15.120,0.049
15.125,0.073
15.130,0.088
15.135,0.007
15.140,0.015
15.145,0.099
15.150,0.060
15.155,-0.010
15.160,0.060
15.165,0.126
15.170,0.063
15.175,0.056
15.180,0.088
15.185,-0.028
15.190,-0.195
15.195,-0.364
15.200,-0.761
15.205,-1.214
15.210,-1.171
15.215,-0.755
15.220,-0.448
15.225,-0.213
15.230,-0.008
15.235,0.092
15.240,0.258
15.245,0.451
15.250,0.443
15.255,0.340
15.260,0.354
15.265,0.368
15.270,0.289
15.275,0.300
15.280,0.355
15.285,0.285
15.290,0.245
15.295,0.297
15.300,0.259
15.305,0.197
15.310,0.249
15.315,0.243
15.320,0.139
15.325,0.147
15.330,0.193
15.335,0.137
15.340,0.123
15.345,0.174
15.350,0.127
15.355,0.056
15.360,0.086
15.365,0.102
15.370,0.071
15.375,0.096
15.380,0.112
15.385,0.049
15.390,0.049
15.395,0.119
15.400,0.091
15.405,0.034
15.410,0.084
15.415,0.106
15.420,0.040
15.425,0.055
15.430,0.098
15.435,0.023
15.440,-0.022
15.445,0.023
15.450,-0.025
15.455,-0.118
15.460,-0.106
15.465,-0.103
15.470,-0.165
15.475,-0.140
15.480,-0.081
15.485,-0.141
15.490,-0.179
15.495,-0.089
15.500,-0.065
15.505,-0.123
15.510,-0.095
15.515,-0.056
15.520,-0.087
15.525,-0.069
15.530,-0.030
15.535,-0.089
15.540,-0.112
15.545,-0.040
15.550,-0.051
15.555,-0.083
15.560,-0.018
15.565,-0.007
15.570,-0.097
15.575,-0.106
15.580,-0.061
15.585,-0.108
15.590,-0.130
15.595,-0.070
15.600,-0.091
15.605,-0.143
15.610,-0.088
15.615,-0.068
15.620,-0.126
15.625,-0.087
15.630,-0.027
15.635,-0.077
15.640,-0.088
15.645,-0.003
15.650,0.008
15.655,-0.019
15.660,0.043
15.665,0.073
15.670,0.014
15.675,0.022
15.680,0.070
15.685,0.030
15.690,0.028
15.695,0.098
15.700,0.063
15.705,0.004
15.710,0.063
15.715,0.087
15.720,0.029
15.725,0.056
15.730,0.110
15.735,0.064
15.740,0.062
15.745,0.115
15.750,0.034
15.755,-0.070
15.760,-0.096
15.765,-0.327
15.770,-0.860
15.775,-1.247
15.780,-1.134
15.785,-0.761
15.790,-0.411
15.795,-0.099
15.800,0.049
15.805,0.114
15.810,0.304
15.815,0.415
15.820,0.358
15.825,0.367
15.830,0.414
15.835,0.349
15.840,0.304
15.845,0.340
15.850,0.300
15.855,0.239
15.860,0.289
15.865,0.301
15.870,0.208
15.875,0.195
15.880,0.233
15.885,0.172
15.890,0.143
15.895,0.210
15.900,0.200
15.905,0.146
15.910,0.174
15.915,0.163
15.920,0.082
15.925,0.100
15.930,0.149
15.935,0.081
15.940,0.044
15.945,0.106
15.950,0.090
15.955,0.038
15.960,0.091
15.965,0.118
15.970,0.055
15.975,0.065
15.980,0.110
15.985,0.061
15.990,0.046
15.995,0.113
16.000,0.095
16.005,0.031
16.010,0.049
16.015,0.036
16.020,-0.061
16.025,-0.085
16.030,-0.058
16.035,-0.109
16.040,-0.138
16.045,-0.084
16.050,-0.111
16.055,-0.173
16.060,-0.114
16.065,-0.080
16.070,-0.135
16.075,-0.100
16.080,-0.037
16.085,-0.099
16.090,-0.142
16.095,-0.080
16.100,-0.069
16.105,-0.092
16.110,-0.033
16.115,-0.019
16.120,-0.092
16.125,-0.072
16.130,-0.022
16.135,-0.086
16.140,-0.105
16.145,-0.033
16.150,-0.061
16.155,-0.123
16.160,-0.069
16.165,-0.056
16.170,-0.140
16.175,-0.131
16.180,-0.078
16.185,-0.133
16.190,-0.151
16.195,-0.060
16.200,-0.036
16.205,-0.054
16.210,0.010
16.215,0.027
16.220,-0.037
16.225,-0.004
16.230,0.053
16.235,-0.013
16.240,-0.045
16.245,0.034
16.250,0.046
16.255,0.017
16.260,0.091
16.265,0.131
16.270,0.062
16.275,0.064
16.280,0.106
16.285,0.038
16.290,0.003
16.295,0.071
16.300,0.059
16.305,0.007
16.310,0.071
16.315,0.100
16.320,0.003
16.325,-0.044
16.330,-0.102
16.335,-0.404
16.340,-0.856
16.345,-1.167
16.350,-1.132
16.355,-0.765
16.360,-0.324
16.365,-0.060
16.370,0.029
16.375,0.158
16.380,0.336
16.385,0.369
16.390,0.349
16.395,0.389
16.400,0.361
16.405,0.300
16.410,0.339
16.415,0.340
16.420,0.250
16.425,0.258
16.430,0.305
16.435,0.235
16.440,0.190
16.445,0.238
16.450,0.216
16.455,0.164
16.460,0.210
16.465,0.222
16.470,0.137
16.475,0.126
16.480,0.167
16.485,0.103
16.490,0.068
16.495,0.140
16.500,0.124
16.505,0.060
16.510,0.102
16.515,0.106
16.520,0.031
16.525,0.056
16.530,0.116
16.535,0.069
16.540,0.052
16.545,0.115
16.550,0.091
16.555,0.035
16.560,0.091
16.565,0.122
16.570,0.050
16.575,0.043
16.580,0.074
16.585,-0.001
16.590,-0.061
16.595,-0.031
16.600,-0.072
16.605,-0.151
16.610,-0.118
16.615,-0.100
16.620,-0.162
16.625,-0.134
16.630,-0.071
16.635,-0.124
16.640,-0.154
16.645,-0.082
16.650,-0.082
16.655,-0.123
16.660,-0.067
16.665,-0.050
16.670,-0.122
16.675,-0.105
16.680,-0.044
16.685,-0.096
16.690,-0.130
16.695,-0.047
16.700,-0.032
16.705,-0.072
16.710,-0.026
16.715,-0.021
16.720,-0.103
16.725,-0.092
16.730,-0.045
16.735,-0.111
16.740,-0.143
16.745,-0.075
16.750,-0.089
16.755,-0.155
16.760,-0.114
16.765,-0.082
16.770,-0.120
16.775,-0.065
16.780,0.018
16.785,-0.025
16.790,-0.041
16.795,0.035
16.800,0.022
16.805,-0.033
16.810,0.029
16.815,0.062
16.820,-0.002
16.825,0.030
16.830,0.108
16.835,0.063
16.840,0.037
16.845,0.104
16.850,0.082
16.855,0.015
16.860,0.061
16.865,0.088
16.870,0.018
16.875,0.026
16.880,0.084
16.885,0.031
16.890,-0.013
16.895,0.016
16.900,-0.081
16.905,-0.324
16.910,-0.640
16.915,-1.075
16.920,-1.312
16.925,-0.957
16.930,-0.426
16.935,-0.200
16.940,-0.039
16.945,0.189
16.950,0.292
16.955,0.306
16.960,0.375
16.965,0.413
16.970,0.347
16.975,0.336
16.980,0.374
16.985,0.319
16.990,0.286
16.995,0.339
17.000,0.294
17.005,0.208
17.010,0.252
17.015,0.268
17.020,0.183
17.025,0.180
17.030,0.222
17.035,0.174
17.040,0.162
17.045,0.226
17.050,0.188
17.055,0.111
17.060,0.155
17.065,0.169
17.070,0.068
17.075,0.069
17.080,0.149
17.085,0.113
17.090,0.082
17.095,0.118
17.100,0.065
17.105,0.012
17.110,0.103
17.115,0.160
17.120,0.077
17.125,0.055
17.130,0.119
17.135,0.108
17.140,0.077
17.145,0.084
17.150,0.035
17.155,-0.014
17.160,0.003
17.165,-0.053
17.170,-0.158
17.175,-0.115
17.180,-0.040
17.185,-0.126
17.190,-0.190
17.195,-0.115
17.200,-0.105
17.205,-0.149
17.210,-0.102
17.215,-0.092
17.220,-0.153
17.225,-0.102
17.230,-0.016
17.235,-0.074
17.240,-0.123
17.245,-0.060
17.250,-0.051
17.255,-0.080
17.260,-0.031
17.265,-0.046
17.270,-0.134
17.275,-0.102
17.280,-0.019
17.285,-0.031
17.290,-0.041
17.295,-0.006
17.300,-0.062
17.305,-0.146
17.310,-0.122
17.315,-0.122
17.320,-0.164
17.325,-0.076
17.330,0.015
17.335,-0.072
17.340,-0.143
17.345,-0.096
17.350,-0.087
17.355,-0.091
17.360,-0.012
17.365,0.010
17.370,-0.066
17.375,-0.035
17.380,0.062
17.385,0.043
17.390,0.017
17.395,0.057
17.400,0.025
17.405,-0.010
17.410,0.067
17.415,0.088
17.420,0.012
17.425,0.021
17.430,0.076
17.435,0.028
17.440,0.004
17.445,0.070
17.450,0.049
17.455,-0.003
17.460,0.062
17.465,0.081
17.470,0.005
17.475,0.014
17.480,-0.017
17.485,-0.321
17.490,-0.773
17.495,-1.117
17.500,-1.150
17.505,-0.805
17.510,-0.365
17.515,-0.119
17.520,-0.007
17.525,0.142
17.530,0.316
17.535,0.355
17.540,0.326
17.545,0.354
17.550,0.340
17.555,0.304
17.560,0.348
17.565,0.335
17.570,0.244
17.575,0.271
17.580,0.322
17.585,0.229
17.590,0.165
17.595,0.220
17.600,0.226
17.605,0.191
17.610,0.205
17.615,0.178
17.620,0.101
17.625,0.109
17.630,0.166
17.635,0.138
17.640,0.113
17.645,0.159
17.650,0.112
17.655,0.031
17.660,0.107
17.665,0.163
17.670,0.059
17.675,0.014
17.680,0.073
17.685,0.067
17.690,0.048
17.695,0.086
17.700,0.058
17.705,0.015
17.710,0.074
17.715,0.094
17.720,0.021
17.725,0.030
17.730,0.073
17.735,-0.005
17.740,-0.057
17.745,-0.014
17.750,-0.080
17.755,-0.176
17.760,-0.119
17.765,-0.085
17.770,-0.150
17.775,-0.123
17.780,-0.052
17.785,-0.097
17.790,-0.143
17.795,-0.077
17.800,-0.029
17.805,-0.050
17.810,-0.049
17.815,-0.086
17.820,-0.131
17.825,-0.044
17.830,0.029
17.835,-0.053
17.840,-0.092
17.845,-0.022
17.850,-0.034
17.855,-0.079
17.860,-0.030
17.865,-0.020
17.870,-0.085
17.875,-0.059
17.880,-0.007
17.885,-0.092
17.890,-0.140
17.895,-0.058
17.900,-0.060
17.905,-0.103
17.910,-0.051
17.915,-0.057
17.920,-0.140
17.925,-0.123
17.930,-0.070
17.935,-0.097
17.940,-0.044
17.945,0.066
17.950,-0.003
17.955,-0.069
17.960,0.036
17.965,0.044
17.970,-0.049
17.975,0.015
17.980,0.086
17.985,0.011
17.990,0.033
17.995,0.137
18.000,0.082
18.005,0.017
18.010,0.075
18.015,0.081
18.020,0.034
18.025,0.059
18.030,0.086
18.035,0.024
18.040,-0.020
18.045,0.058
18.050,0.098
18.055,0.027
18.060,0.020
18.065,-0.027
18.070,-0.310
18.075,-0.708
18.080,-1.096
18.085,-1.249
18.090,-0.895
18.095,-0.405
18.100,-0.213
18.105,-0.115
18.110,0.090
18.115,0.281
18.120,0.319
18.125,0.344
18.130,0.395
18.135,0.344
18.140,0.338
18.145,0.402
18.150,0.361
18.155,0.278
18.160,0.309
18.165,0.306
18.170,0.198
18.175,0.213
18.180,0.274
18.185,0.210
18.190,0.197
18.195,0.262
18.200,0.204
18.205,0.129
18.210,0.167
18.215,0.160
18.220,0.076
18.225,0.081
18.230,0.148
18.235,0.132
18.240,0.106
18.245,0.136
18.250,0.105
18.255,0.035
18.260,0.082
18.265,0.136
18.270,0.057
18.275,0.006
18.280,0.035
18.285,0.045
18.290,0.082
18.295,0.134
18.300,0.069
18.305,-0.033
18.310,-0.004
18.315,0.016
18.320,-0.035
18.325,-0.015
18.330,-0.010
18.335,-0.088
18.340,-0.102
18.345,-0.073
18.350,-0.130
18.355,-0.181
18.360,-0.131
18.365,-0.116
18.370,-0.146
18.375,-0.063
18.380,0.011
18.385,-0.082
18.390,-0.130
18.395,-0.038
18.400,-0.038
18.405,-0.128
18.410,-0.080
18.415,-0.025
18.420,-0.089
18.425,-0.045
18.430,0.011
18.435,-0.081
18.440,-0.082
18.445,0.015
18.450,-0.017
18.455,-0.103
18.460,-0.066
18.465,0.018
18.470,-0.007
18.475,-0.057
18.480,-0.053
18.485,-0.100
18.490,-0.103
18.495,-0.010
18.500,-0.027
18.505,-0.106
18.510,-0.080
18.515,-0.079
18.520,-0.141
18.525,-0.095
18.530,-0.001
18.535,-0.062
18.540,-0.100
18.545,0.036
18.550,0.049
18.555,-0.008
18.560,0.070
18.565,0.077
18.570,0.017
18.575,0.041
18.580,0.046
18.585,0.011
18.590,0.050
18.595,0.125
18.600,0.105
18.605,0.042
18.610,0.061
18.615,0.072
18.620,0.005
18.625,0.011
18.630,0.072
18.635,0.037
18.640,0.029
18.645,0.088
18.650,-0.012
18.655,-0.233
18.660,-0.490
18.665,-0.906
18.670,-1.273
18.675,-1.115
18.680,-0.566
18.685,-0.223
18.690,-0.075
18.695,0.113
18.700,0.226
18.705,0.318
18.710,0.445
18.715,0.420
18.720,0.293
18.725,0.297
18.730,0.357
18.735,0.313
18.740,0.282
18.745,0.310
18.750,0.262
18.755,0.202
18.760,0.241
18.765,0.259
18.770,0.200
18.775,0.187
18.780,0.201
18.785,0.156
18.790,0.137
18.795,0.164
18.800,0.125
18.805,0.085
18.810,0.140
18.815,0.143
18.820,0.067
18.825,0.092
18.830,0.138
18.835,0.068
18.840,0.037
18.845,0.094
18.850,0.072
18.855,0.020
18.860,0.077
18.865,0.114
18.870,0.035
18.875,0.023
18.880,0.082
18.885,0.053
18.890,0.034
18.895,0.079
18.900,0.040
18.905,-0.039
18.910,-0.018
18.915,-0.027
18.920,-0.150
18.925,-0.161
18.930,-0.074
18.935,-0.112
18.940,-0.160
18.945,-0.105
18.950,-0.116
18.955,-0.167
18.960,-0.100
18.965,-0.065
18.970,-0.142
18.975,-0.101
18.980,-0.010
18.985,-0.057
18.990,-0.092
18.995,-0.039
19.000,-0.044
19.005,-0.084
19.010,-0.040
19.015,-0.032
19.020,-0.118
19.025,-0.110
19.030,-0.036
19.035,-0.068
19.040,-0.082
19.045,-0.007
19.050,-0.022
19.055,-0.082
19.060,-0.041
19.065,-0.038
19.070,-0.120
19.075,-0.097
19.080,-0.034
19.085,-0.100
19.090,-0.140
19.095,-0.062
19.100,-0.070
19.105,-0.152
19.110,-0.111
19.115,-0.048
19.120,-0.066
19.125,-0.011
19.130,0.065
19.135,0.014
19.140,-0.020
19.145,0.039
19.150,0.028
19.155,-0.004
19.160,0.065
19.165,0.090
19.170,0.024
19.175,0.049
19.180,0.110
19.185,0.052
19.190,0.013
19.195,0.075
19.200,0.075
19.205,0.032
19.210,0.062
19.215,0.059
19.220,0.002
19.225,0.039
19.230,0.086
19.235,0.026
19.240,-0.011
19.245,-0.033
19.250,-0.286
19.255,-0.771
19.260,-1.153
19.265,-1.163
19.270,-0.818
19.275,-0.384
19.280,-0.099
19.285,0.002
19.290,0.101
19.295,0.301
19.300,0.384
19.305,0.335
19.310,0.367
19.315,0.381
19.320,0.309
19.325,0.322
19.330,0.361
19.335,0.296
19.340,0.269
19.345,0.323
19.350,0.288
19.355,0.210
19.360,0.236
19.365,0.242
19.370,0.164
19.375,0.174
19.380,0.220
19.385,0.146
19.390,0.107
19.395,0.173
19.400,0.155
19.405,0.092
19.410,0.130
19.415,0.144
19.420,0.061
19.425,0.065
19.430,0.129
19.435,0.082
19.440,0.050
19.445,0.108
19.450,0.089
19.455,0.039
19.460,0.093
19.465,0.120
19.470,0.055
19.475,0.059
19.480,0.108
19.485,0.049
19.490,0.002
19.495,0.051
19.500,0.014
19.505,-0.076
19.510,-0.044
19.515,-0.041
19.520,-0.131
19.525,-0.119
19.530,-0.064
19.535,-0.119
19.540,-0.144
19.545,-0.078
19.550,-0.094
19.555,-0.148
19.560,-0.087
19.565,-0.051
19.570,-0.112
19.575,-0.088
19.580,-0.026
19.585,-0.074
19.590,-0.095
19.595,-0.033
19.600,-0.047
19.605,-0.100
19.610,-0.056
19.615,-0.026
19.620,-0.082
19.625,-0.068
19.630,-0.012
19.635,-0.058
19.640,-0.083
19.645,-0.011
19.650,-0.018
19.655,-0.072
19.660,-0.033
19.665,-0.020
19.670,-0.088
19.675,-0.076
19.680,-0.024
19.685,-0.079
19.690,-0.107
19.695,-0.038
19.700,-0.049
19.705,-0.112
19.710,-0.077
19.715,-0.054
19.720,-0.095
19.725,-0.049
19.730,0.019
19.735,-0.033
19.740,-0.052
19.745,0.030
19.750,0.028
19.755,-0.023
19.760,0.029
19.765,0.056
19.770,-0.010
19.775,0.000
19.780,0.062
19.785,0.032
19.790,0.026
19.795,0.105
19.800,0.093
19.805,0.036
19.810,0.086
19.815,0.101
19.820,0.024
19.825,0.033
19.830,0.092
19.835,0.055
19.840,0.015
19.845,0.021
19.850,-0.077
19.855,-0.292
19.860,-0.582
19.865,-1.002
19.870,-1.264
19.875,-0.945
19.880,-0.387
19.885,-0.125
19.890,0.011
19.895,0.178
19.900,0.242
19.905,0.284
19.910,0.381
19.915,0.389
19.920,0.299
19.925,0.301
19.930,0.345
19.935,0.279
19.940,0.238
19.945,0.281
19.950,0.250
19.955,0.192
19.960,0.240
19.965,0.254
19.970,0.178
19.975,0.178
19.980,0.210
19.985,0.145
19.990,0.112
19.995,0.164
20.000,0.137
20.005,0.074
20.010,0.114
20.015,0.129
20.020,0.052
20.025,0.058
20.030,0.106
20.035,0.045
20.040,0.016
20.045,0.084
20.050,0.066
20.055,0.013
20.060,0.076
20.065,0.107
20.070,0.041
20.075,0.051
20.080,0.100
20.085,0.047
20.090,0.014
20.095,0.069
20.100,0.040
20.105,-0.034
20.110,0.001
20.115,0.003
20.120,-0.101
20.125,-0.111
20.130,-0.063
20.135,-0.120
20.140,-0.148
20.145,-0.080
20.150,-0.087
20.155,-0.138
20.160,-0.085
20.165,-0.059
20.170,-0.123
20.175,-0.098
20.180,-0.034
20.185,-0.079
20.190,-0.092
20.195,-0.018
20.200,-0.042
20.205,-0.106
20.210,-0.056
20.215,-0.033
20.220,-0.099
20.225,-0.075
20.230,-0.005
20.235,-0.045
20.240,-0.061
20.245,0.005
20.250,-0.031
20.255,-0.097
20.260,-0.031
20.265,0.003
20.270,-0.059
20.275,-0.031
20.280,0.012
20.285,-0.060
20.290,-0.083
20.295,-0.021
20.300,-0.055
20.305,-0.116
20.310,-0.067
20.315,-0.048
20.320,-0.118
20.325,-0.107
20.330,-0.033
20.335,-0.045
20.340,-0.039
20.345,0.036
20.350,0.004
20.355,-0.062
20.360,0.022
20.365,0.084
20.370,0.018
20.375,0.027
20.380,0.080
20.385,0.012
20.390,-0.012
20.395,0.088
20.400,0.103
20.405,0.060
20.410,0.110
20.415,0.118
20.420,0.031
20.425,0.033
20.430,0.084
20.435,0.028
20.440,-0.010
20.445,0.064
20.450,0.064
20.455,-0.005
20.460,-0.005
20.465,-0.088
20.470,-0.364
20.475,-0.713
20.480,-1.048
20.485,-1.155
20.490,-0.784
20.495,-0.247
20.500,-0.017
20.505,0.040
20.510,0.180
20.515,0.297
20.520,0.322
20.525,0.364
20.530,0.385
20.535,0.296
20.540,0.260
20.545,0.334
20.550,0.321
20.555,0.260
20.560,0.301
20.565,0.294
20.570,0.184
20.575,0.186
20.580,0.262
20.585,0.218
20.590,0.173
20.595,0.217
20.600,0.170
20.605,0.094
20.610,0.158
20.615,0.186
20.620,0.097
20.625,0.084
20.630,0.121
20.635,0.062
20.640,0.031
20.645,0.101
20.650,0.098
20.655,0.042
20.660,0.080
20.665,0.092
20.670,0.018
20.675,0.036
20.680,0.087
20.685,0.026
20.690,0.011
20.695,0.087
20.700,0.068
20.705,0.008
20.710,0.052
20.715,0.062
20.720,-0.024
20.725,-0.044
20.730,-0.032
20.735,-0.104
20.740,-0.155
20.745,-0.117
20.750,-0.120
20.755,-0.151
20.760,-0.094
20.765,-0.066
20.770,-0.129
20.775,-0.101
20.780,-0.022
20.785,-0.052
20.790,-0.082
20.795,-0.047
20.800,-0.084
20.805,-0.130
20.810,-0.050
20.815,-0.010
20.820,-0.090
20.825,-0.083
20.830,-0.029
20.835,-0.070
20.840,-0.068
20.845,-0.011
20.850,-0.057
20.855,-0.096
20.860,0.003
20.865,0.046
20.870,-0.045
20.875,-0.046
20.880,0.017
20.885,-0.036
20.890,-0.070
20.895,-0.013
20.900,-0.040
20.905,-0.088
20.910,-0.033
20.915,-0.027
20.920,-0.104
20.925,-0.081
20.930,-0.009
20.935,-0.067
20.940,-0.099
20.945,-0.044
20.950,-0.100
20.955,-0.149
20.960,-0.050
20.965,0.011
20.970,-0.030
20.975,-0.015
20.980,0.034
20.985,-0.003
20.990,-0.021
20.995,0.037
21.000,0.018
21.005,-0.012
21.010,0.068
21.015,0.079
21.020,0.009
21.025,0.070
21.030,0.137
21.035,0.059
21.040,0.015
21.045,0.052
21.050,0.028
21.055,-0.007
21.060,0.045
21.065,0.076
21.070,0.047
21.075,0.070
21.080,0.075
21.085,-0.050
21.090,-0.156
21.095,-0.252
21.100,-0.624
21.105,-1.106
21.110,-1.151
21.115,-0.752
21.120,-0.377
21.125,-0.140
21.130,0.056
21.135,0.122
21.140,0.202
21.145,0.376
21.150,0.402
21.155,0.323
21.160,0.332
21.165,0.334
21.170,0.267
21.175,0.275
21.180,0.307
21.185,0.220
21.190,0.169
21.195,0.263
21.200,0.277
21.205,0.191
21.210,0.216
21.215,0.241
21.220,0.158
21.225,0.164
21.230,0.208
21.235,0.125
21.240,0.079
21.245,0.141
21.250,0.140
21.255,0.093
21.260,0.117
21.265,0.127
21.270,0.060
21.275,0.053
21.280,0.095
21.285,0.059
21.290,0.039
21.295,0.080
21.300,0.055
21.305,0.010
21.310,0.064
21.315,0.081
21.320,0.014
21.325,0.037
21.330,0.089
21.335,0.020
21.340,-0.030
21.345,0.019
21.350,-0.020
21.355,-0.096
21.360,-0.035
21.365,-0.023
21.370,-0.125
21.375,-0.112
21.380,-0.050
21.385,-0.110
21.390,-0.127
21.395,-0.044
21.400,-0.062
21.405,-0.124
21.410,-0.064
21.415,-0.031
21.420,-0.103
21.425,-0.103
21.430,-0.056
21.435,-0.072
21.440,-0.066
21.445,-0.005
21.450,-0.013
21.455,-0.061
21.460,-0.032
21.465,-0.021
21.470,-0.077
21.475,-0.065
21.480,-0.017
21.485,-0.048
21.490,-0.053
21.495,0.007
21.500,-0.022
21.505,-0.071
21.510,-0.008
21.515,0.011
21.520,-0.071
21.525,-0.056
21.530,0.004
21.535,-0.066
21.540,-0.118
21.545,-0.058
21.550,-0.068
21.555,-0.118
21.560,-0.063
21.565,-0.039
21.570,-0.108
21.575,-0.105
21.580,-0.062
21.585,-0.107
21.590,-0.114
21.595,-0.018
21.600,-0.006
21.605,-0.058
21.610,-0.005
21.615,0.036
21.620,-0.012
21.625,0.013
21.630,0.074
21.635,0.022
21.640,-0.005
21.645,0.071
21.650,0.068
21.655,0.014
21.660,0.064
21.665,0.093
21.670,0.032
21.675,0.041
21.680,0.083
21.685,0.030
21.690,0.012
21.695,0.077
21.700,0.069
21.705,0.030
21.710,0.073
21.715,0.053
21.720,-0.087
21.725,-0.185
21.730,-0.382
21.735,-0.858
21.740,-1.205
21.745,-0.999
21.750,-0.547
21.755,-0.249
21.760,-0.025
21.765,0.116
21.770,0.153
21.775,0.290
21.780,0.417
21.785,0.356
21.790,0.299
21.795,0.350
21.800,0.327
21.805,0.254
21.810,0.292
21.815,0.314
21.820,0.237
21.825,0.240
21.830,0.282
21.835,0.208
21.840,0.168
21.845,0.229
21.850,0.196
21.855,0.123
21.860,0.164
21.865,0.176
21.870,0.102
21.875,0.115
21.880,0.167
21.885,0.107
21.890,0.067
21.895,0.121
21.900,0.102
21.905,0.044
21.910,0.084
21.915,0.099
21.920,0.028
21.925,0.039
21.930,0.089
21.935,0.044
21.940,0.033
21.945,0.107
21.950,0.086
21.955,0.020
21.960,0.068
21.965,0.086
21.970,-0.002
21.975,-0.002
21.980,0.049
21.985,-0.020
21.990,-0.078
21.995,-0.035
22.000,-0.067
22.005,-0.138
22.010,-0.096
22.015,-0.075
22.020,-0.141
22.025,-0.123
22.030,-0.064
22.035,-0.109
22.040,-0.129
22.045,-0.053
22.050,-0.059
22.055,-0.117
22.060,-0.059
22.065,-0.025
22.070,-0.092
22.075,-0.075
22.080,-0.016
22.085,-0.073
22.090,-0.099
22.095,-0.019
22.100,-0.030
22.105,-0.092
22.110,-0.034
22.115,-0.001
22.120,-0.069
22.125,-0.055
22.130,0.002
22.135,-0.051
22.140,-0.074
22.145,0.003
22.150,-0.005
22.155,-0.062
22.160,-0.014
22.165,0.006
22.170,-0.071
22.175,-0.062
22.180,-0.012
22.185,-0.076
22.190,-0.116
22.195,-0.051
22.200,-0.063
22.205,-0.123
22.210,-0.073
22.215,-0.047
22.220,-0.114
22.225,-0.080
22.230,0.006
22.235,-0.025
22.240,-0.045
22.245,0.021
22.250,0.015
22.255,-0.027
22.260,0.033
22.265,0.068
22.270,0.013
22.275,0.029
22.280,0.083
22.285,0.039
22.290,0.023
22.295,0.097
22.300,0.079
22.305,0.016
22.310,0.066
22.315,0.090
22.320,0.017
22.325,0.028
22.330,0.084
22.335,0.035
22.340,0.016
22.345,0.087
22.350,0.038
22.355,-0.083
22.360,-0.130
22.365,-0.330
22.370,-0.798
22.375,-1.147
22.380,-1.036
22.385,-0.623
22.390,-0.216
22.395,0.047
22.400,0.120
22.405,0.138
22.410,0.279
22.415,0.373
22.420,0.304
22.425,0.295
22.430,0.342
22.435,0.283
22.440,0.250
22.445,0.301
22.450,0.264
22.455,0.198
22.460,0.245
22.465,0.260
22.470,0.177
22.475,0.176
22.480,0.218
22.485,0.152
22.490,0.111
22.495,0.168
22.500,0.145
22.505,0.074
22.510,0.110
22.515,0.133
22.520,0.062
22.525,0.061
22.530,0.106
22.535,0.054
22.540,0.025
22.545,0.088
22.550,0.067
22.555,0.000
22.560,0.055
22.565,0.093
22.570,0.025
22.575,0.045
22.580,0.116
22.585,0.057
22.590,0.021
22.595,0.089
22.600,0.076
22.605,0.011
22.610,0.042
22.615,0.045
22.620,-0.042
22.625,-0.045
22.630,-0.010
22.635,-0.084
22.640,-0.138
22.645,-0.089
22.650,-0.095
22.655,-0.134
22.660,-0.083
22.665,-0.061
22.670,-0.127
22.675,-0.105
22.680,-0.031
22.685,-0.083
22.690,-0.123
22.695,-0.044
22.700,-0.039
22.705,-0.090
22.710,-0.030
22.715,0.006
22.720,-0.065
22.725,-0.059
22.730,-0.003
22.735,-0.045
22.740,-0.069
22.745,-0.003
22.750,-0.007
22.755,-0.055
22.760,-0.006
22.765,0.014
22.770,-0.049
22.775,-0.030
22.780,0.017
22.785,-0.029
22.790,-0.040
22.795,0.020
22.800,-0.013
22.805,-0.073
22.810,0.011
22.815,0.066
22.820,-0.014
22.825,-0.018
22.830,0.012
22.835,-0.075
22.840,-0.105
22.845,-0.022
22.850,-0.035
22.855,-0.106
22.860,-0.068
22.865,-0.038
22.870,-0.102
22.875,-0.094
22.880,-0.025
22.885,-0.042
22.890,-0.044
22.895,0.028
22.900,0.020
22.905,-0.031
22.910,0.013
22.915,0.035
22.920,-0.005
22.925,0.039
22.930,0.089
22.935,0.030
22.940,0.019
22.945,0.108
22.950,0.103
22.955,0.027
22.960,0.047
22.965,0.077
22.970,0.040
22.975,0.053
22.980,0.067
22.985,-0.009
22.990,-0.012
22.995,0.099
23.000,0.096
23.005,-0.009
23.010,-0.049
23.015,-0.163
23.020,-0.491
23.025,-0.870
23.030,-1.096
23.035,-0.996
23.040,-0.560
23.045,-0.135
23.050,0.011
23.055,0.059
23.060,0.201
23.065,0.318
23.070,0.300
23.075,0.307
23.080,0.365
23.085,0.320
23.090,0.270
23.095,0.302
23.100,0.267
23.105,0.210
23.110,0.261
23.115,0.268
23.120,0.179
23.125,0.191
23.130,0.243
23.135,0.172
23.140,0.137
23.145,0.195
23.150,0.160
23.155,0.081
23.160,0.125
23.165,0.158
23.170,0.091
23.175,0.082
23.180,0.110
23.185,0.059
23.190,0.053
23.195,0.118
23.200,0.067
23.205,-0.011
23.210,0.059
23.215,0.100
23.220,0.023
23.225,0.043
23.230,0.116
23.235,0.043
23.240,-0.024
23.245,0.044
23.250,0.054
23.255,-0.005
23.260,0.029
23.265,0.048
23.270,-0.038
23.275,-0.054
23.280,-0.012
23.285,-0.069
23.290,-0.122
23.295,-0.075
23.300,-0.089
23.305,-0.149
23.310,-0.088
23.315,-0.050
23.320,-0.125
23.325,-0.104
23.330,-0.029
23.335,-0.081
23.340,-0.091
23.345,-0.004
23.350,-0.040
23.355,-0.118
23.360,-0.054
23.365,-0.018
23.370,-0.094
23.375,-0.078
23.380,-0.008
23.385,-0.051
23.390,-0.063
23.395,0.012
23.400,-0.012
23.405,-0.084
23.410,-0.026
23.415,0.027
23.420,-0.031
23.425,-0.027
23.430,-0.001
23.435,-0.090
23.440,-0.112
23.445,0.007
23.450,0.042
23.455,-0.005
23.460,0.026
23.465,0.024
23.470,-0.063
23.475,-0.051
23.480,0.018
23.485,-0.033
23.490,-0.062
23.495,0.020
23.500,0.003
23.505,-0.072
23.510,-0.047
23.515,-0.042
23.520,-0.088
23.525,-0.059
23.530,-0.039
23.535,-0.128
23.540,-0.136
23.545,-0.013
23.550,-0.006
23.555,-0.079
23.560,-0.044
23.565,-0.016
23.570,-0.041
23.575,0.024
23.580,0.087
23.585,0.010
23.590,-0.026
23.595,0.064
23.600,0.068
23.605,0.007
23.610,0.047
23.615,0.098
23.620,0.058
23.625,0.046
23.630,0.078
23.635,0.012
23.640,-0.016
23.645,0.087
23.650,0.089
23.655,0.003
23.660,0.046
23.665,0.113
23.670,0.030
23.675,-0.040
23.680,-0.058
23.685,-0.314
23.690,-0.773
23.695,-1.091
23.700,-1.085
23.705,-0.743
23.710,-0.325
23.715,-0.095
23.720,-0.001
23.725,0.128
23.730,0.312
23.735,0.376
23.740,0.340
23.745,0.359
23.750,0.354
23.755,0.291
23.760,0.291
23.765,0.312
23.770,0.272
23.775,0.274
23.780,0.308
23.785,0.246
23.790,0.211
23.795,0.260
23.800,0.202
23.805,0.112
23.810,0.163
23.815,0.201
23.820,0.138
23.825,0.140
23.830,0.184
23.835,0.112
23.840,0.058
23.845,0.126
23.850,0.112
23.855,0.030
23.860,0.093
23.865,0.135
23.870,0.039
23.875,0.022
23.880,0.071
23.885,0.042
23.890,0.028
23.895,0.064
23.900,0.055
23.905,0.051
23.910,0.105
23.915,0.106
23.920,0.019
23.925,0.000
23.930,0.038
23.935,0.002
23.940,-0.030
23.945,-0.011
23.950,-0.062
23.955,-0.142
23.960,-0.114
23.965,-0.083
23.970,-0.140
23.975,-0.125
23.980,-0.075
23.985,-0.138
23.990,-0.160
23.995,-0.087
24.000,-0.100
24.005,-0.118
24.010,-0.034
24.015,-0.024
24.020,-0.086
24.025,-0.064
24.030,-0.033
24.035,-0.074
24.040,-0.067
24.045,0.004
24.050,-0.010
24.055,-0.085
24.060,-0.057
24.065,-0.023
24.070,-0.087
24.075,-0.069
24.080,0.025
24.085,-0.020
24.090,-0.074
24.095,-0.002
24.100,-0.005
24.105,-0.068
24.110,-0.010
24.115,0.027
24.120,-0.040
24.125,-0.024
24.130,0.029
24.135,-0.043
24.140,-0.090
24.145,-0.026
24.150,-0.037
24.155,-0.102
24.160,-0.057
24.165,-0.040
24.170,-0.124
24.175,-0.104
24.180,-0.022
24.185,-0.070
24.190,-0.130
24.195,-0.084
24.200,-0.084
24.205,-0.104
24.210,-0.004
24.215,0.043
24.220,-0.035
24.225,-0.013
24.230,0.065
24.235,0.002
24.240,-0.043
24.245,0.044
24.250,0.059
24.255,0.005
24.260,0.058
24.265,0.108
24.270,0.049
24.275,0.044
24.280,0.109
24.285,0.074
24.290,0.027
24.295,0.075
24.300,0.054
24.305,-0.012
24.310,0.050
24.315,0.112
24.320,0.046
24.325,0.019
24.330,0.033
24.335,-0.114
24.340,-0.420
24.345,-0.818
24.350,-1.187
24.355,-1.140
24.360,-0.649
24.365,-0.249
24.370,-0.105
24.375,0.043
24.380,0.224
24.385,0.312
24.390,0.350
24.395,0.400
24.400,0.361
24.405,0.279
24.410,0.309
24.415,0.331
24.420,0.260
24.425,0.279
24.430,0.348
24.435,0.278
24.440,0.213
24.445,0.263
24.450,0.246
24.455,0.179
24.460,0.214
24.465,0.228
24.470,0.151
24.475,0.142
24.480,0.178
24.485,0.121
24.490,0.080
24.495,0.141
24.500,0.135
24.505,0.066
24.510,0.106
24.515,0.144
24.520,0.070
24.525,0.062
24.530,0.115
24.535,0.065
24.540,0.032
24.545,0.101
24.550,0.090
24.555,0.031
24.560,0.084
24.565,0.116
24.570,0.045
24.575,0.037
24.580,0.077
24.585,0.022
24.590,-0.027
24.595,0.014
24.600,-0.015
24.605,-0.106
24.610,-0.092
24.615,-0.073
24.620,-0.147
24.625,-0.150
24.630,-0.084
24.635,-0.122
24.640,-0.153
24.645,-0.079
24.650,-0.082
24.655,-0.139
24.660,-0.088
24.665,-0.047
24.670,-0.101
24.675,-0.090
24.680,-0.032
24.685,-0.079
24.690,-0.116
24.695,-0.044
24.700,-0.032
24.705,-0.082
24.710,-0.036
24.715,-0.011
24.720,-0.080
24.725,-0.066
24.730,-0.001
24.735,-0.048
24.740,-0.085
24.745,-0.014
24.750,-0.013
24.755,-0.068
24.760,-0.020
24.765,0.009
24.770,-0.061
24.775,-0.054
24.780,0.016
24.785,-0.019
24.790,-0.051
24.795,0.011
24.800,0.005
24.805,-0.051
24.810,-0.008
24.815,0.018
24.820,-0.055
24.825,-0.058
24.830,-0.004
24.835,-0.063
24.840,-0.117
24.845,-0.062
24.850,-0.058
24.855,-0.111
24.860,-0.081
24.865,-0.060
24.870,-0.113
24.875,-0.078
24.880,0.012
24.885,-0.019
24.890,-0.048
24.895,0.027
24.900,0.034
24.905,-0.023
24.910,0.020
24.915,0.058
24.920,0.000
24.925,0.014
24.930,0.082
24.935,0.047
24.940,0.025
24.945,0.095
24.950,0.082
24.955,0.014
24.960,0.057
24.965,0.087
24.970,0.017
24.975,0.024
24.980,0.085
24.985,0.040
24.990,0.012
24.995,0.060
25.000,0.001
25.005,-0.128
25.010,-0.245
25.015,-0.569
25.020,-1.065
25.025,-1.200
25.030,-0.797
25.035,-0.350
25.040,-0.110
25.045,0.074
25.050,0.164
25.055,0.199
25.060,0.332
25.065,0.396
25.070,0.313
25.075,0.300
25.080,0.347
25.085,0.290
25.090,0.243
25.095,0.296
25.100,0.279
25.105,0.203
25.110,0.233
25.115,0.255
25.120,0.177
25.125,0.170
25.130,0.215
25.135,0.157
25.140,0.114
25.145,0.171
25.150,0.156
25.155,0.082
25.160,0.115
25.165,0.141
25.170,0.064
25.175,0.057
25.180,0.111
25.185,0.068
25.190,0.031
25.195,0.084
25.200,0.074
25.205,0.013
25.210,0.057
25.215,0.093
25.220,0.033
25.225,0.041
25.230,0.103
25.235,0.066
25.240,0.039
25.245,0.105
25.250,0.092
25.255,0.017
25.260,0.046
25.265,0.060
25.270,-0.033
25.275,-0.054
25.280,-0.020
25.285,-0.089
25.290,-0.139
25.295,-0.081
25.300,-0.091
25.305,-0.155
25.310,-0.113
25.315,-0.071
25.320,-0.123
25.325,-0.107
25.330,-0.037
25.335,-0.076
25.340,-0.109
25.345,-0.038
25.350,-0.040
25.355,-0.101
25.360,-0.054
25.365,-0.016
25.370,-0.082
25.375,-0.072
25.380,-0.001
25.385,-0.047
25.390,-0.084
25.395,-0.010
25.400,-0.014
25.405,-0.080
25.410,-0.031
25.415,0.010
25.420,-0.054
25.425,-0.049
25.430,0.015
25.435,-0.024
25.440,-0.053
25.445,0.014
25.450,0.007
25.455,-0.055
25.460,-0.009
25.465,0.029
25.470,-0.036
25.475,-0.029
25.480,0.037
25.485,-0.017
25.490,-0.069
25.495,-0.008
25.500,-0.019
25.505,-0.094
25.510,-0.064
25.515,-0.037
25.520,-0.100
25.525,-0.089
25.530,-0.037
25.535,-0.097
25.540,-0.117
25.545,-0.018
25.550,-0.002
25.555,-0.054
25.560,-0.004
25.565,0.044
25.570,-0.008
25.575,-0.003
25.580,0.066
25.585,0.037
25.590,0.004
25.595,0.071
25.600,0.077
25.605,0.024
25.610,0.069
25.615,0.101
25.620,0.033
25.625,0.038
25.630,0.096
25.635,0.046
25.640,0.001
25.645,0.057
25.650,0.047
25.655,-0.007
25.660,0.056
25.665,0.086
25.670,-0.028
25.675,-0.113
25.680,-0.251
25.685,-0.683
25.690,-1.133
25.695,-1.110
25.700,-0.696
25.705,-0.286
25.710,-0.011
25.715,0.115
25.720,0.122
25.725,0.213
25.730,0.360
25.735,0.342
25.740,0.292
25.745,0.345
25.750,0.330
25.755,0.256
25.760,0.275
25.765,0.290
25.770,0.218
25.775,0.210
25.780,0.264
25.785,0.225
25.790,0.186
25.795,0.226
25.800,0.188
25.805,0.113
25.810,0.156
25.815,0.178
25.820,0.112
25.825,0.128
25.830,0.171
25.835,0.091
25.840,0.042
25.845,0.121
25.850,0.126
25.855,0.057
25.860,0.091
25.865,0.111
25.870,0.033
25.875,0.053
25.880,0.128
25.885,0.064
25.890,0.015
25.895,0.102
25.900,0.129
25.905,0.066
25.910,0.078
25.915,0.087
25.920,0.025
25.925,0.039
25.930,0.079
25.935,-0.023
25.940,-0.103
25.945,-0.032
25.950,-0.029
25.955,-0.127
25.960,-0.115
25.965,-0.077
25.970,-0.136
25.975,-0.123
25.980,-0.060
25.985,-0.120
25.990,-0.153
25.995,-0.061
26.000,-0.050
26.005,-0.120
26.010,-0.098
26.015,-0.071
26.020,-0.108
26.025,-0.072
26.030,0.001
26.035,-0.045
26.040,-0.094
26.045,-0.041
26.050,-0.049
26.055,-0.100
26.060,-0.040
26.065,0.004
26.070,-0.063
26.075,-0.062
26.080,0.007
26.085,-0.042
26.090,-0.088
26.095,-0.010
26.100,-0.003
26.105,-0.072
26.110,-0.019
26.115,0.050
26.120,-0.014
26.125,-0.053
26.130,-0.016
26.135,-0.046
26.140,-0.049
26.145,0.047
26.150,0.036
26.155,-0.051
26.160,-0.016
26.165,0.019
26.170,-0.051
26.175,-0.058
26.180,-0.013
26.185,-0.061
26.190,-0.090
26.195,-0.028
26.200,-0.039
26.205,-0.096
26.210,-0.043
26.215,-0.004
26.220,-0.096
26.225,-0.133
26.230,-0.067
26.235,-0.064
26.240,-0.076
26.245,-0.013
26.250,-0.011
26.255,-0.040
26.260,0.036
26.265,0.070
26.270,-0.005
26.275,-0.007
26.280,0.048
26.285,0.020
26.290,0.006
26.295,0.072
26.300,0.064
26.305,0.007
26.310,0.063
26.315,0.106
26.320,0.015
26.325,-0.005
26.330,0.090
26.335,0.068
26.340,0.014
26.345,0.082
26.350,0.079
26.355,-0.016
26.360,0.008
26.365,0.005
26.370,-0.247
26.375,-0.632
26.380,-1.002
26.385,-1.151
26.390,-0.831
26.395,-0.307
26.400,-0.074
26.405,-0.046
26.410,0.099
26.415,0.276
26.420,0.304
26.425,0.316
26.430,0.379
26.435,0.333
26.440,0.277
26.445,0.346
26.450,0.351
26.455,0.269
26.460,0.279
26.465,0.291
26.470,0.205
26.475,0.184
26.480,0.222
26.485,0.184
26.490,0.156
26.495,0.194
26.500,0.167
26.505,0.106
26.510,0.151
26.515,0.179
26.520,0.094
26.525,0.084
26.530,0.147
26.535,0.106
26.540,0.056
26.545,0.112
26.550,0.104
26.555,0.016
26.560,0.055
26.565,0.105
26.570,0.023
26.575,0.012
26.580,0.094
26.585,0.063
26.590,0.019
26.595,0.086
26.600,0.093
26.605,0.023
26.610,0.039
26.615,0.054
26.620,-0.038
26.625,-0.069
26.630,-0.002
26.635,-0.034
26.640,-0.102
26.645,-0.069
26.650,-0.079
26.655,-0.150
26.660,-0.130
26.665,-0.082
26.670,-0.123
26.675,-0.135
26.680,-0.063
26.685,-0.078
26.690,-0.126
26.695,-0.054
26.700,-0.039
26.705,-0.098
26.710,-0.037
26.715,0.004
26.720,-0.089
26.725,-0.092
26.730,-0.011
26.735,-0.051
26.740,-0.088
26.745,-0.017
26.750,-0.022
26.755,-0.079
26.760,-0.027
26.765,0.010
26.770,-0.058
26.775,-0.063
26.780,0.000
26.785,-0.032
26.790,-0.071
26.795,-0.020
26.800,-0.008
26.805,-0.051
26.810,-0.023
26.815,0.012
26.820,-0.026
26.825,-0.003
26.830,0.067
26.835,0.008
26.840,-0.063
26.845,-0.013
26.850,-0.014
26.855,-0.069
26.860,-0.013
26.865,0.028
26.870,-0.048
26.875,-0.062
26.880,-0.010
26.885,-0.057
26.890,-0.114
26.895,-0.075
26.900,-0.088
26.905,-0.124
26.910,-0.044
26.915,0.010
26.920,-0.056
26.925,-0.058
26.930,0.007
26.935,-0.034
26.940,-0.064
26.945,0.032
26.950,0.055
26.955,-0.010
26.960,0.031
26.965,0.080
26.970,0.029
26.975,0.040
26.980,0.103
26.985,0.057
26.990,0.024
26.995,0.088
27.000,0.066
27.005,-0.012
27.010,0.041
27.015,0.100
27.020,0.034
27.025,0.024
27.030,0.100
27.035,0.062
27.040,-0.019
27.045,0.008
27.050,-0.018
27.055,-0.255
27.060,-0.630
27.065,-1.036
27.070,-1.193
27.075,-0.845
27.080,-0.363
27.085,-0.173
27.090,-0.077
27.095,0.106
27.100,0.240
27.105,0.299
27.110,0.388
27.115,0.416
27.120,0.320
27.125,0.297
27.130,0.348
27.135,0.301
27.140,0.256
27.145,0.305
27.150,0.283
27.155,0.202
27.160,0.227
27.165,0.256
27.170,0.183
27.175,0.169
27.180,0.218
27.185,0.157
27.190,0.104
27.195,0.168
27.200,0.162
27.205,0.087
27.210,0.118
27.215,0.148
27.220,0.071
27.225,0.060
27.230,0.119
27.235,0.074
27.240,0.028
27.245,0.089
27.250,0.085
27.255,0.014
27.260,0.050
27.265,0.098
27.270,0.037
27.275,0.028
27.280,0.094
27.285,0.057
27.290,0.004
27.295,0.065
27.300,0.074
27.305,0.010
27.310,0.029
27.315,0.035
27.320,-0.067
27.325,-0.105
27.330,-0.071
27.335,-0.129
27.340,-0.175
27.345,-0.109
27.350,-0.107
27.355,-0.178
27.360,-0.135
27.365,-0.068
27.370,-0.107
27.375,-0.101
27.380,-0.036
27.385,-0.071
27.390,-0.109
27.395,-0.050
27.400,-0.051
27.405,-0.115
27.410,-0.079
27.415,-0.033
27.420,-0.087
27.425,-0.084
27.430,-0.012
27.435,-0.046
27.440,-0.089
27.445,-0.026
27.450,-0.026
27.455,-0.091
27.460,-0.041
27.465,0.009
27.470,-0.052
27.475,-0.047
27.480,0.024
27.485,-0.016
27.490,-0.058
27.495,0.008
27.500,0.009
27.505,-0.054
27.510,-0.012
27.515,0.031
27.520,-0.028
27.525,-0.029
27.530,0.028
27.535,-0.014
27.540,-0.063
27.545,-0.012
27.550,-0.019
27.555,-0.093
27.560,-0.065
27.565,-0.027
27.570,-0.090
27.575,-0.093
27.580,-0.042
27.585,-0.095
27.590,-0.123
27.595,-0.029
27.600,-0.007
27.605,-0.059
27.610,-0.013
27.615,0.039
27.620,-0.007
27.625,-0.005
27.630,0.062
27.635,0.035
27.640,-0.001
27.645,0.067
27.650,0.084
27.655,0.029
27.660,0.068
27.665,0.108
27.670,0.038
27.675,0.031
27.680,0.091
27.685,0.049
27.690,0.009
27.695,0.072
27.700,0.071
27.705,0.012
27.710,0.068
27.715,0.100
27.720,-0.014
27.725,-0.087
27.730,-0.178
27.735,-0.562
27.740,-1.044
27.745,-1.153
27.750,-0.833
27.755,-0.416
27.760,-0.104
27.765,0.064
27.770,0.098
27.775,0.196
27.780,0.362
27.785,0.361
27.790,0.299
27.795,0.347
27.800,0.345
27.805,0.265
27.810,0.285
27.815,0.316
27.820,0.239
27.825,0.222
27.830,0.271
27.835,0.216
27.840,0.164
27.845,0.224
27.850,0.218
27.855,0.131
27.860,0.150
27.865,0.183
27.870,0.107
27.875,0.090
27.880,0.154
27.885,0.108
27.890,0.049
27.895,0.103
27.900,0.104
27.905,0.033
27.910,0.061
27.915,0.096
27.920,0.031
27.925,0.027
27.930,0.090
27.935,0.051
27.940,0.013
27.945,0.086
27.950,0.096
27.955,0.035
27.960,0.080
27.965,0.122
27.970,0.047
27.975,0.032
27.980,0.088
27.985,0.033
27.990,-0.036
27.995,-0.003
28.000,-0.030
28.005,-0.120
28.010,-0.100
28.015,-0.071
28.020,-0.142
28.025,-0.149
28.030,-0.083
28.035,-0.106
28.040,-0.136
28.045,-0.072
28.050,-0.069
28.055,-0.123
28.060,-0.072
28.065,-0.023
28.070,-0.084
28.075,-0.086
28.080,-0.016
28.085,-0.048
28.090,-0.090
28.095,-0.028
28.100,-0.023
28.105,-0.088
28.110,-0.053
28.115,-0.010
28.120,-0.066
28.125,-0.060
28.130,0.010
28.135,-0.024
28.140,-0.067
28.145,-0.005
28.150,0.005
28.155,-0.057
28.160,-0.024
28.165,0.021
28.170,-0.037
28.175,-0.037
28.180,0.029
28.185,-0.009
28.190,-0.050
28.195,0.016
28.200,0.020
28.205,-0.040
28.210,0.003
28.215,0.044
28.220,-0.028
28.225,-0.042
28.230,0.009
28.235,-0.042
28.240,-0.090
28.245,-0.032
28.250,-0.038
28.255,-0.112
28.260,-0.077
28.265,-0.035
28.270,-0.109
28.275,-0.121
28.280,-0.036
28.285,-0.038
28.290,-0.061
28.295,0.005
28.300,0.012
28.305,-0.043
28.310,0.008
28.315,0.055
28.320,-0.005
28.325,0.004
28.330,0.080
28.335,0.047
28.340,0.008
28.345,0.080
28.350,0.090
28.355,0.025
28.360,0.059
28.365,0.096
28.370,0.029
28.375,0.020
28.380,0.080
28.385,0.043
28.390,0.003
28.395,0.075
28.400,0.087
28.405,-0.002
28.410,-0.013
28.415,-0.052
28.420,-0.334
28.425,-0.745
28.430,-1.071
28.435,-1.107
28.440,-0.720
28.445,-0.213
28.450,0.000
28.455,0.028
28.460,0.153
28.465,0.299
28.470,0.315
28.475,0.322
28.480,0.369
28.485,0.323
28.490,0.267
28.495,0.313
28.500,0.306
28.505,0.225
28.510,0.247
28.515,0.280
28.520,0.201
28.525,0.180
28.530,0.235
28.535,0.185
28.540,0.128
28.545,0.184
28.550,0.180
28.555,0.099
28.560,0.123
28.565,0.156
28.570,0.080
28.575,0.070
28.580,0.132
28.585,0.086
28.590,0.033
28.595,0.085
28.600,0.080
28.605,0.009
28.610,0.041
28.615,0.087
28.620,0.034
28.625,0.039
28.630,0.113
28.635,0.079
28.640,0.033
28.645,0.097
28.650,0.102
28.655,0.033
28.660,0.070
28.665,0.111
28.670,0.029
28.675,0.000
28.680,0.037
28.685,-0.038
28.690,-0.116
28.695,-0.076
28.700,-0.089
28.705,-0.177
28.710,-0.158
28.715,-0.115
28.720,-0.161
28.725,-0.146
28.730,-0.074
28.735,-0.107
28.740,-0.142
28.745,-0.069
28.750,-0.050
28.755,-0.108
28.760,-0.080
28.765,-0.038
28.770,-0.091
28.775,-0.091
28.780,-0.025
28.785,-0.062
28.790,-0.100
28.795,-0.024
28.800,-0.006
28.805,-0.068
28.810,-0.036
28.815,0.004
28.820,-0.055
28.825,-0.047
28.830,0.035
28.835,0.000
28.840,-0.065
28.845,-0.022
28.850,-0.018
28.855,-0.077
28.860,-0.027
28.865,0.037
28.870,-0.011
28.875,-0.012
28.880,0.049
28.885,-0.002
28.890,-0.056
28.895,0.026
28.900,0.053
28.905,-0.023
28.910,-0.007
28.915,0.025
28.920,-0.047
28.925,-0.056
28.930,0.010
28.935,-0.035
28.940,-0.098
28.945,-0.049
28.950,-0.058
28.955,-0.130
28.960,-0.089
28.965,-0.043
28.970,-0.094
28.975,-0.073
28.980,0.015
28.985,-0.010
28.990,-0.052
28.995,0.022
29.000,0.043
29.005,-0.021
29.010,0.017
29.015,0.069
29.020,0.009
29.025,0.003
29.030,0.078
29.035,0.055
29.040,0.025
29.045,0.097
29.050,0.092
29.055,0.015
29.060,0.048
29.065,0.080
29.070,0.003
29.075,0.000
29.080,0.089
29.085,0.082
29.090,0.041
29.095,0.076
29.100,0.045
29.105,-0.064
29.110,-0.189
29.115,-0.526
29.120,-1.035
29.125,-1.193
29.130,-0.823
29.135,-0.396
29.140,-0.162
29.145,0.038
29.150,0.148
29.155,0.172
29.160,0.294
29.165,0.374
29.170,0.294
29.175,0.282
29.180,0.355
29.185,0.314
29.190,0.255
29.195,0.305
29.200,0.297
29.205,0.212
29.210,0.230
29.215,0.263
29.220,0.192
29.225,0.163
29.230,0.199
29.235,0.161
29.240,0.132
29.245,0.196
29.250,0.185
29.255,0.094
29.260,0.107
29.265,0.145
29.270,0.079
29.275,0.067
29.280,0.124
29.285,0.067
29.290,0.005
29.295,0.070
29.300,0.080
29.305,0.014
29.310,0.056
29.315,0.112
29.320,0.052
29.325,0.036
29.330,0.095
29.335,0.066
29.340,0.025
29.345,0.080
29.350,0.081
29.355,0.007
29.360,0.020
29.365,0.039
29.370,-0.054
29.375,-0.090
29.380,-0.039
29.385,-0.094
29.390,-0.164
29.395,-0.112
29.400,-0.108
29.405,-0.173
29.410,-0.128
29.415,-0.072
29.420,-0.128
29.425,-0.130
29.430,-0.053
29.435,-0.079
29.440,-0.122
29.445,-0.057
29.450,-0.045
29.455,-0.104
29.460,-0.066
29.465,-0.020
29.470,-0.080
29.475,-0.086
29.480,-0.020
29.485,-0.051
29.490,-0.091
29.495,-0.025
29.500,-0.020
29.505,-0.084
29.510,-0.039
29.515,0.014
29.520,-0.047
29.525,-0.054
29.530,0.014
29.535,-0.018
29.540,-0.064
29.545,-0.001
29.550,0.016
29.555,-0.043
29.560,-0.012
29.565,0.031
29.570,-0.028
29.575,-0.037
29.580,0.027
29.585,-0.004
29.590,-0.046
29.595,0.016
29.600,0.019
29.605,-0.060
29.610,-0.039
29.615,-0.001
29.620,-0.071
29.625,-0.090
29.630,-0.027
29.635,-0.059
29.640,-0.105
29.645,-0.053
29.650,-0.056
29.655,-0.111
29.660,-0.051
29.665,0.015
29.670,-0.042
29.675,-0.053
29.680,0.032
29.685,0.028
29.690,-0.013
29.695,0.049
29.700,0.064
29.705,-0.004
29.710,0.036
29.715,0.103
29.720,0.051
29.725,0.041
29.730,0.101
29.735,0.064
29.740,0.018
29.745,0.077
29.750,0.084
29.755,0.020
29.760,0.052
29.765,0.095
29.770,0.039
29.775,0.041
29.780,0.095
29.785,0.023
29.790,-0.088
29.795,-0.199
29.800,-0.550
29.805,-1.030
29.810,-1.105
29.815,-0.713
29.820,-0.346
29.825,-0.130
29.830,0.054
29.835,0.120
29.840,0.188
29.845,0.348
29.850,0.381
29.855,0.299
29.860,0.315
29.865,0.345
29.870,0.271
29.875,0.250
29.880,0.306
29.885,0.264
29.890,0.200
29.895,0.243
29.900,0.239
29.905,0.162
29.910,0.191
29.915,0.227
29.920,0.140
29.925,0.119
29.930,0.179
29.935,0.128
29.940,0.064
29.945,0.123
29.950,0.129
29.955,0.047
29.960,0.069
29.965,0.110
29.970,0.037
29.975,0.021
29.980,0.086
29.985,0.053
29.990,0.001
29.995,0.064
30.000,0.083
30.005,0.022
30.010,0.053
30.015,0.102
30.020,0.047
30.025,0.044
30.030,0.113
30.035,0.070
30.040,0.001
30.045,0.047
30.050,0.042
30.055,-0.044
30.060,-0.038
30.065,-0.025
30.070,-0.111
30.075,-0.142
30.080,-0.094
30.085,-0.126
30.090,-0.170
30.095,-0.103
30.100,-0.085
30.105,-0.150
30.110,-0.116
30.115,-0.062
30.120,-0.110
30.125,-0.107
30.130,-0.035
30.135,-0.062
30.140,-0.102
30.145,-0.037
30.150,-0.028
30.155,-0.095
30.160,-0.064
30.165,-0.008
30.170,-0.057
30.175,-0.070
30.180,-0.005
30.185,-0.028
30.190,-0.080
30.195,-0.026
30.200,-0.004
30.205,-0.057
30.210,-0.025
30.215,0.018
30.220,-0.043
30.225,-0.046
30.230,0.029
30.235,0.001
30.240,-0.047
30.245,0.009
30.250,0.014
30.255,-0.054
30.260,-0.021
30.265,0.022
30.270,-0.056
30.275,-0.088
30.280,-0.021
30.285,-0.051
30.290,-0.112
30.295,-0.061
30.300,-0.055
30.305,-0.133
30.310,-0.102
30.315,-0.022
30.320,-0.048
30.325,-0.045
30.330,0.029
30.335,0.004
30.340,-0.040
30.345,0.027
30.350,0.048
30.355,-0.004
30.360,0.034
30.365,0.081
30.370,0.022
30.375,0.022
30.380,0.104
30.385,0.077
30.390,0.016
30.395,0.060
30.400,0.076
30.405,0.024
30.410,0.050
30.415,0.090
30.420,0.025
30.425,0.004
30.430,0.086
30.435,0.078
30.440,0.005
30.445,0.015
30.450,-0.060
30.455,-0.361
30.460,-0.750
30.465,-1.063
30.470,-1.063
30.475,-0.650
30.480,-0.212
30.485,-0.070
30.490,-0.017
30.495,0.148
30.500,0.282
30.505,0.306
30.510,0.342
30.515,0.360
30.520,0.288
30.525,0.276
30.530,0.339
30.535,0.296
30.540,0.223
30.545,0.266
30.550,0.273
30.555,0.192
30.560,0.204
30.565,0.241
30.570,0.167
30.575,0.149
30.580,0.209
30.585,0.161
30.590,0.097
30.595,0.147
30.600,0.146
30.605,0.078
30.610,0.109
30.615,0.139
30.620,0.051
30.625,0.028
30.630,0.099
30.635,0.065
30.640,0.010
30.645,0.073
30.650,0.090
30.655,0.022
30.660,0.044
30.665,0.099
30.670,0.056
30.675,0.048
30.680,0.117
30.685,0.092
30.690,0.040
30.695,0.088
30.700,0.081
30.705,-0.010
30.710,-0.008
30.715,0.016
30.720,-0.072
30.725,-0.113
30.730,-0.067
30.735,-0.114
30.740,-0.180
30.745,-0.123
30.750,-0.104
30.755,-0.165
30.760,-0.130
30.765,-0.071
30.770,-0.121
30.775,-0.124
30.780,-0.049
30.785,-0.071
30.790,-0.113
30.795,-0.054
30.800,-0.044
30.805,-0.107
30.810,-0.074
30.815,-0.022
30.820,-0.077
30.825,-0.082
30.830,-0.011
30.835,-0.043
30.840,-0.089
30.845,-0.019
30.850,0.007
30.855,-0.061
30.860,-0.040
30.865,0.010
30.870,-0.047
30.875,-0.060
30.880,0.009
30.885,-0.011
30.890,-0.053
30.895,0.005
30.900,0.020
30.905,-0.050
30.910,-0.038
30.915,0.000
30.920,-0.069
30.925,-0.089
30.930,-0.027
30.935,-0.066
30.940,-0.122
30.945,-0.059
30.950,-0.049
30.955,-0.130
30.960,-0.087
30.965,-0.002
30.970,-0.049
30.975,-0.060
30.980,0.013
30.985,-0.002
30.990,-0.026
30.995,0.044
31.000,0.056
31.005,-0.005
31.010,0.026
31.015,0.079
31.020,0.034
31.025,0.038
31.030,0.109
31.035,0.077
31.040,0.024
31.045,0.081
31.050,0.095
31.055,0.024
31.060,0.042
31.065,0.086
31.070,0.028
31.075,0.024
31.080,0.110
31.085,0.083
31.090,0.001
31.095,0.007
31.100,-0.111
31.105,-0.497
31.110,-0.920
31.115,-1.107
31.120,-0.925
31.125,-0.512
31.130,-0.176
31.135,-0.046
31.140,0.038
31.145,0.211
31.150,0.332
31.155,0.324
31.160,0.343
31.165,0.376
31.170,0.310
31.175,0.282
31.180,0.340
31.185,0.307
31.190,0.247
31.195,0.291
31.200,0.285
31.205,0.199
31.210,0.214
31.215,0.253
31.220,0.181
31.225,0.150
31.230,0.205
31.235,0.169
31.240,0.103
31.245,0.147
31.250,0.157
31.255,0.089
31.260,0.100
31.265,0.128
31.270,0.064
31.275,0.052
31.280,0.111
31.285,0.072
31.290,0.019
31.295,0.082
31.300,0.105
31.305,0.046
31.310,0.077
31.315,0.130
31.320,0.076
31.325,0.065
31.330,0.127
31.335,0.096
31.340,0.039
31.345,0.075
31.350,0.067
31.355,-0.013
31.360,-0.011
31.365,-0.003
31.370,-0.096
31.375,-0.133
31.380,-0.086
31.385,-0.128
31.390,-0.186
31.395,-0.126
31.400,-0.104
31.405,-0.160
31.410,-0.121
31.415,-0.060
31.420,-0.119
31.425,-0.141
31.430,-0.059
31.435,-0.068
31.440,-0.121
31.445,-0.063
31.450,-0.041
31.455,-0.097
31.460,-0.068
31.465,-0.023
31.470,-0.075
31.475,-0.082
31.480,-0.016
31.485,-0.038
31.490,-0.076
31.495,-0.016
31.500,0.000
31.505,-0.059
31.510,-0.034
31.515,0.012
31.520,-0.040
31.525,-0.047
31.530,0.017
31.535,-0.015
31.540,-0.061
31.545,0.003
31.550,0.017
31.555,-0.060
31.560,-0.036
31.565,0.012
31.570,-0.070
31.575,-0.110
31.580,-0.052
31.585,-0.075
31.590,-0.121
31.595,-0.077
31.600,-0.073
31.605,-0.119
31.610,-0.059
31.615,0.016
31.620,-0.025
31.625,-0.029
31.630,0.038
31.635,0.012
31.640,-0.031
31.645,0.038
31.650,0.063
31.655,-0.001
31.660,0.040
31.665,0.115
31.670,0.056
31.675,0.025
31.680,0.089
31.685,0.063
31.690,0.004
31.695,0.058
31.700,0.074
31.705,0.001
31.710,0.019
31.715,0.081
31.720,0.052
31.725,0.043
31.730,0.085
31.735,0.020
31.740,-0.109
31.745,-0.254
31.750,-0.630
31.755,-1.112
31.760,-1.126
31.765,-0.706
31.770,-0.392
31.775,-0.202
31.780,0.000
31.785,0.099
31.790,0.183
31.795,0.347
31.800,0.388
31.805,0.297
31.810,0.314
31.815,0.371
31.820,0.298
31.825,0.251
31.830,0.305
31.835,0.275
31.840,0.206
31.845,0.247
31.850,0.251
31.855,0.176
31.860,0.200
31.865,0.236
31.870,0.150
31.875,0.115
31.880,0.176
31.885,0.142
31.890,0.077
31.895,0.128
31.900,0.143
31.905,0.060
31.910,0.066
31.915,0.109
31.920,0.051
31.925,0.035
31.930,0.101
31.935,0.077
31.940,0.026
31.945,0.077
31.950,0.090
31.955,0.025
31.960,0.063
31.965,0.134
31.970,0.075
31.975,0.046
31.980,0.110
31.985,0.079
31.990,0.007
31.995,0.037
32.000,0.019
32.005,-0.085
32.010,-0.090
32.015,-0.061
32.020,-0.143
32.025,-0.179
32.030,-0.109
32.035,-0.124
32.040,-0.178
32.045,-0.120
32.050,-0.090
32.055,-0.152
32.060,-0.126
32.065,-0.061
32.070,-0.101
32.075,-0.110
32.080,-0.048
32.085,-0.081
32.090,-0.128
32.095,-0.056
32.100,-0.027
32.105,-0.089
32.110,-0.063
32.115,-0.008
32.120,-0.064
32.125,-0.083
32.130,-0.014
32.135,-0.033
32.140,-0.077
32.145,-0.017
32.150,-0.002
32.155,-0.071
32.160,-0.050
32.165,0.008
32.170,-0.040
32.175,-0.055
32.180,0.011
32.185,-0.024
32.190,-0.092
32.195,-0.040
32.200,-0.028
32.205,-0.109
32.210,-0.096
32.215,-0.045
32.220,-0.101
32.225,-0.121
32.230,-0.060
32.235,-0.088
32.240,-0.128
32.245,-0.044
32.250,-0.004
32.255,-0.058
32.260,-0.025
32.265,0.040
32.270,0.001
32.275,-0.010
32.280,0.064
32.285,0.051
32.290,0.001
32.295,0.060
32.300,0.085
32.305,0.024
32.310,0.048
32.315,0.104
32.320,0.054
32.325,0.029
32.330,0.087
32.335,0.068
32.340,0.011
32.345,0.045
32.350,0.067
32.355,0.038
32.360,0.080
32.365,0.112
32.370,0.021
32.375,-0.076
32.380,-0.215
32.385,-0.627
32.390,-1.094
32.395,-1.101
32.400,-0.736
32.405,-0.437
32.410,-0.196
32.415,0.025
32.420,0.110
32.425,0.217
32.430,0.383
32.435,0.391
32.440,0.323
32.445,0.369
32.450,0.379
32.455,0.294
32.460,0.300
32.465,0.336
32.470,0.264
32.475,0.238
32.480,0.305
32.485,0.270
32.490,0.189
32.495,0.219
32.500,0.229
32.505,0.154
32.510,0.164
32.515,0.204
32.520,0.139
32.525,0.114
32.530,0.174
32.535,0.142
32.540,0.075
32.545,0.116
32.550,0.123
32.555,0.044
32.560,0.063
32.565,0.119
32.570,0.057
32.575,0.037
32.580,0.113
32.585,0.082
32.590,0.024
32.595,0.091
32.600,0.115
32.605,0.049
32.610,0.071
32.615,0.123
32.620,0.066
32.625,0.021
32.630,0.043
32.635,-0.009
32.640,-0.087
32.645,-0.066
32.650,-0.079
32.655,-0.168
32.660,-0.152
32.665,-0.099
32.670,-0.155
32.675,-0.173
32.680,-0.104
32.685,-0.120
32.690,-0.158
32.695,-0.082
32.700,-0.047
32.705,-0.110
32.710,-0.093
32.715,-0.040
32.720,-0.083
32.725,-0.096
32.730,-0.036
32.735,-0.061
32.740,-0.108
32.745,-0.043
32.750,-0.015
32.755,-0.084
32.760,-0.062
32.765,-0.003
32.770,-0.056
32.775,-0.067
32.780,0.006
32.785,-0.025
32.790,-0.082
32.795,-0.015
32.800,0.014
32.805,-0.051
32.810,-0.033
32.815,0.013
32.820,-0.049
32.825,-0.077
32.830,-0.024
32.835,-0.051
32.840,-0.110
32.845,-0.070
32.850,-0.057
32.855,-0.121
32.860,-0.102
32.865,-0.046
32.870,-0.080
32.875,-0.075
32.880,0.007
32.885,-0.007
32.890,-0.053
32.895,0.021
32.900,0.057
32.905,-0.014
32.910,0.007
32.915,0.069
32.920,0.017
32.925,0.005
32.930,0.090
32.935,0.075
32.940,0.017
32.945,0.069
32.950,0.089
32.955,0.013
32.960,0.024
32.965,0.081
32.970,0.025
32.975,-0.002
32.980,0.077
32.985,0.077
32.990,0.028
32.995,0.067
33.000,0.051
33.005,-0.143
33.010,-0.424
33.015,-0.810
33.020,-1.160
33.025,-1.030
33.030,-0.566
33.035,-0.304
33.040,-0.170
33.045,0.037
33.050,0.191
33.055,0.251
33.060,0.335
33.065,0.387
33.070,0.314
33.075,0.290
33.080,0.348
33.085,0.307
33.090,0.238
33.095,0.281
33.100,0.290
33.105,0.212
33.110,0.221
33.115,0.257
33.120,0.184
33.125,0.156
33.130,0.220
33.135,0.188
33.140,0.118
33.145,0.158
33.150,0.169
33.155,0.096
33.160,0.107
33.165,0.144
33.170,0.074
33.175,0.044
33.180,0.107
33.185,0.086
33.190,0.034
33.195,0.090
33.200,0.114
33.205,0.053
33.210,0.071
33.215,0.112
33.220,0.051
33.225,0.037
33.230,0.113
33.235,0.093
33.240,0.030
33.245,0.075
33.250,0.085
33.255,-0.004
33.260,-0.008
33.265,0.016
33.270,-0.086
33.275,-0.152
33.280,-0.109
33.285,-0.139
33.290,-0.195
33.295,-0.136
33.300,-0.106
33.305,-0.168
33.310,-0.141
33.315,-0.074
33.320,-0.116
33.325,-0.125
33.330,-0.045
33.335,-0.062
33.340,-0.120
33.345,-0.066
33.350,-0.036
33.355,-0.089
33.360,-0.060
33.365,0.007
33.370,-0.039
33.375,-0.066
33.380,-0.001
33.385,-0.028
33.390,-0.088
33.395,-0.015
33.400,0.030
33.405,-0.043
33.410,-0.042
33.415,0.024
33.420,-0.009
33.425,-0.042
33.430,-0.008
33.435,-0.042
33.440,-0.077
33.445,0.004
33.450,0.033
33.455,-0.045
33.460,-0.055
33.465,-0.041
33.470,-0.115
33.475,-0.119
33.480,-0.030
33.485,-0.061
33.490,-0.142
33.495,-0.082
33.500,-0.028
33.505,-0.065
33.510,-0.015
33.515,0.058
33.520,-0.006
33.525,-0.039
33.530,0.050
33.535,0.066
33.540,0.024
33.545,0.067
33.550,0.079
33.555,0.017
33.560,0.039
33.565,0.089
33.570,0.029
33.575,-0.008
33.580,0.035
33.585,0.013
33.590,-0.013
33.595,0.061
33.600,0.080
33.605,0.001
33.610,0.021
33.615,0.091
33.620,0.043
33.625,0.005
33.630,-0.024
33.635,-0.326
33.640,-0.826
33.645,-1.100
33.650,-0.983
33.655,-0.690
33.660,-0.372
33.665,-0.096
33.670,0.016
33.675,0.117
33.680,0.310
33.685,0.365
33.690,0.308
33.695,0.349
33.700,0.379
33.705,0.292
33.710,0.282
33.715,0.340
33.720,0.283
33.725,0.250
33.730,0.325
33.735,0.287
33.740,0.167
33.745,0.171
33.750,0.198
33.755,0.157
33.760,0.185
33.765,0.225
33.770,0.149
33.775,0.122
33.780,0.195
33.785,0.164
33.790,0.081
33.795,0.117
33.800,0.150
33.805,0.089
33.810,0.086
33.815,0.111
33.820,0.041
33.825,0.023
33.830,0.106
33.835,0.091
33.840,0.030
33.845,0.080
33.850,0.105
33.855,0.039
33.860,0.066
33.865,0.117
33.870,0.021
33.875,-0.030
33.880,0.028
33.885,-0.017
33.890,-0.084
33.895,-0.026
33.900,-0.025
33.905,-0.140
33.910,-0.155
33.915,-0.096
33.920,-0.138
33.925,-0.170
33.930,-0.095
33.935,-0.086
33.940,-0.137
33.945,-0.078
33.950,-0.037
33.955,-0.101
33.960,-0.083
33.965,-0.016
33.970,-0.070
33.975,-0.098
33.980,-0.014
33.985,-0.023
33.990,-0.093
33.995,-0.038
34.000,0.000
34.005,-0.068
34.010,-0.062
34.015,-0.012
34.020,-0.051
34.025,-0.057
34.030,0.001
34.035,-0.020
34.040,-0.046
34.045,0.021
34.050,0.032
34.055,-0.051
34.060,-0.056
34.065,-0.009
34.070,-0.048
34.075,-0.075
34.080,-0.029
34.085,-0.062
34.090,-0.118
34.095,-0.062
34.100,-0.063
34.105,-0.161
34.110,-0.121
34.115,-0.020
34.120,-0.050
34.125,-0.059
34.130,0.019
34.135,0.007
34.140,-0.039
34.145,0.035
34.150,0.072
34.155,-0.010
34.160,-0.004
34.165,0.070
34.170,0.033
34.175,-0.006
34.180,0.055
34.185,0.060
34.190,0.019
34.195,0.076
34.200,0.110
34.205,0.042
34.210,0.043
34.215,0.085
34.220,0.036
34.225,0.033
34.230,0.130
34.235,0.121
34.240,0.024
34.245,0.006
34.250,-0.073
34.255,-0.390
34.260,-0.810
34.265,-1.116
34.270,-1.122
34.275,-0.808
34.280,-0.437
34.285,-0.205
34.290,-0.069
34.295,0.132
34.300,0.325
34.305,0.349
34.310,0.363
34.315,0.405
34.320,0.342
34.325,0.297
34.330,0.343
34.335,0.319
34.340,0.250
34.345,0.285
34.350,0.299
34.355,0.214
34.360,0.214
34.365,0.270
34.370,0.214
34.375,0.173
34.380,0.223
34.385,0.185
34.390,0.100
34.395,0.145
34.400,0.188
34.405,0.129
34.410,0.125
34.415,0.157
34.420,0.088
34.425,0.059
34.430,0.141
34.435,0.136
34.440,0.069
34.445,0.104
34.450,0.132
34.455,0.062
34.460,0.061
34.465,0.117
34.470,0.067
34.475,0.029
34.480,0.092
34.485,0.068
34.490,-0.017
34.495,0.012
34.500,0.029
34.505,-0.055
34.510,-0.071
34.515,-0.038
34.520,-0.107
34.525,-0.151
34.530,-0.096
34.535,-0.117
34.540,-0.182
34.545,-0.136
34.550,-0.103
34.555,-0.155
34.560,-0.129
34.565,-0.066
34.570,-0.116
34.575,-0.139
34.580,-0.057
34.585,-0.059
34.590,-0.118
34.595,-0.063
34.600,-0.031
34.605,-0.093
34.610,-0.068
34.615,-0.001
34.620,-0.049
34.625,-0.076
34.630,-0.007
34.635,-0.019
34.640,-0.075
34.645,-0.021
34.650,0.009
34.655,-0.061
34.660,-0.048
34.665,0.013
34.670,-0.039
34.675,-0.074
34.680,-0.018
34.685,-0.044
34.690,-0.109
34.695,-0.057
34.700,-0.031
34.705,-0.103
34.710,-0.085
34.715,-0.030
34.720,-0.097
34.725,-0.119
34.730,-0.023
34.735,-0.021
34.740,-0.074
34.745,-0.013
34.750,0.033
34.755,-0.016
34.760,0.001
34.765,0.065
34.770,0.030
34.775,0.009
34.780,0.069
34.785,0.055
34.790,0.006
34.795,0.064
34.800,0.098
34.805,0.034
34.810,0.045
34.815,0.103
34.820,0.052
34.825,0.020
34.830,0.084
34.835,0.067
34.840,0.012
34.845,0.081
34.850,0.117
34.855,0.013
34.860,-0.037
34.865,-0.084
34.870,-0.382
34.875,-0.838
34.880,-1.124
34.885,-1.055
34.890,-0.719
34.895,-0.354
34.900,-0.119
34.905,-0.019
34.910,0.132
34.915,0.338
34.920,0.366
34.925,0.328
34.930,0.375
34.935,0.349
34.940,0.281
34.945,0.321
34.950,0.338
34.955,0.258
34.960,0.257
34.965,0.300
34.970,0.236
34.975,0.194
34.980,0.246
34.985,0.220
34.990,0.151
34.995,0.182
35.000,0.192
35.005,0.114
35.010,0.114
35.015,0.163
35.020,0.107
35.025,0.071
35.030,0.129
35.035,0.103
35.040,0.034
35.045,0.081
35.050,0.105
35.055,0.034
35.060,0.047
35.065,0.106
35.070,0.057
35.075,0.033
35.080,0.104
35.085,0.094
35.090,0.037
35.095,0.086
35.100,0.112
35.105,0.038
35.110,0.039
35.115,0.086
35.120,0.014
35.125,-0.045
35.130,-0.004
35.135,-0.046
35.140,-0.131
35.145,-0.100
35.150,-0.088
35.155,-0.165
35.160,-0.148
35.165,-0.081
35.170,-0.124
35.175,-0.144
35.180,-0.074
35.185,-0.090
35.190,-0.145
35.195,-0.081
35.200,-0.035
35.205,-0.096
35.210,-0.083
35.215,-0.027
35.220,-0.078
35.225,-0.102
35.230,-0.028
35.235,-0.040
35.240,-0.101
35.245,-0.048
35.250,-0.014
35.255,-0.077
35.260,-0.058
35.265,0.006
35.270,-0.047
35.275,-0.084
35.280,-0.027
35.285,-0.049
35.290,-0.108
35.295,-0.049
35.300,-0.017
35.305,-0.097
35.310,-0.101
35.315,-0.046
35.320,-0.096
35.325,-0.130
35.330,-0.063
35.335,-0.057
35.340,-0.086
35.345,-0.012
35.350,0.029
35.355,-0.042
35.360,-0.034
35.365,0.041
35.370,0.010
35.375,-0.015
35.380,0.057
35.385,0.062
35.390,0.016
35.395,0.071
35.400,0.123
35.405,0.075
35.410,0.070
35.415,0.097
35.420,0.022
35.425,-0.009
35.430,0.094
35.435,0.116
35.440,0.052
35.445,0.069
35.450,0.070
35.455,0.008
35.460,0.044
35.465,0.097
35.470,0.002
35.475,-0.137
35.480,-0.347
35.485,-0.807
35.490,-1.208
35.495,-1.059
35.500,-0.620
35.505,-0.367
35.510,-0.167
35.515,0.063
35.520,0.163
35.525,0.264
35.530,0.413
35.535,0.396
35.540,0.300
35.545,0.339
35.550,0.366
35.555,0.281
35.560,0.282
35.565,0.334
35.570,0.266
35.575,0.227
35.580,0.297
35.585,0.273
35.590,0.192
35.595,0.221
35.600,0.222
35.605,0.117
35.610,0.107
35.615,0.185
35.620,0.152
35.625,0.105
35.630,0.155
35.635,0.130
35.640,0.047
35.645,0.091
35.650,0.134
35.655,0.069
35.660,0.071
35.665,0.120
35.670,0.055
35.675,-0.001
35.680,0.054
35.685,0.056
35.690,0.011
35.695,0.072
35.700,0.104
35.705,0.018
35.710,0.025
35.715,0.094
35.720,0.030
35.725,-0.019
35.730,0.037
35.735,-0.005
35.740,-0.098
35.745,-0.066
35.750,-0.049
35.755,-0.132
35.760,-0.127
35.765,-0.065
35.770,-0.131
35.775,-0.181
35.780,-0.108
35.785,-0.094
35.790,-0.123
35.795,-0.064
35.800,-0.044
35.805,-0.124
35.810,-0.108
35.815,-0.024
35.820,-0.055
35.825,-0.082
35.830,-0.028
35.835,-0.061
35.840,-0.114
35.845,-0.065
35.850,-0.051
35.855,-0.085
35.860,-0.037
35.865,0.005
35.870,-0.062
35.875,-0.104
35.880,-0.037
35.885,-0.004
35.890,-0.037
35.895,-0.009
35.900,0.006
35.905,-0.073
35.910,-0.076
35.915,-0.025
35.920,-0.082
35.925,-0.122
35.930,-0.061
35.935,-0.068
35.940,-0.123
35.945,-0.077
35.950,-0.052
35.955,-0.126
35.960,-0.097
35.965,-0.002
35.970,-0.043
35.975,-0.082
35.980,-0.010
35.985,-0.003
35.990,-0.044
35.995,0.032
36.000,0.086
36.005,0.027
36.010,0.037
36.015,0.092
36.020,0.045
36.025,0.022
36.030,0.089
36.035,0.086
36.040,0.038
36.045,0.088
36.050,0.107
36.055,0.014
36.060,0.012
36.065,0.083
36.070,0.042
36.075,0.027
36.080,0.123
36.085,0.107
36.090,-0.007
36.095,-0.042
36.100,-0.198
36.105,-0.657
36.110,-1.110
36.115,-1.210
36.120,-0.969
36.125,-0.614
36.130,-0.291
36.135,-0.087
36.140,0.019
36.145,0.225
36.150,0.396
36.155,0.359
36.160,0.341
36.165,0.390
36.170,0.343
36.175,0.299
36.180,0.348
36.185,0.321
36.190,0.242
36.195,0.279
36.200,0.305
36.205,0.229
36.210,0.224
36.215,0.273
36.220,0.211
36.225,0.160
36.230,0.219
36.235,0.212
36.240,0.143
36.245,0.169
36.250,0.182
36.255,0.104
36.260,0.105
36.265,0.159
36.270,0.105
36.275,0.064
36.280,0.117
36.285,0.096
36.290,0.034
36.295,0.085
36.300,0.121
36.305,0.056
36.310,0.067
36.315,0.133
36.320,0.083
36.325,0.046
36.330,0.107
36.335,0.086
36.340,0.017
36.345,0.052
36.350,0.062
36.355,-0.028
36.360,-0.045
36.365,-0.014
36.370,-0.086
36.375,-0.141
36.380,-0.096
36.385,-0.115
36.390,-0.173
36.395,-0.126
36.400,-0.091
36.405,-0.146
36.410,-0.126
36.415,-0.052
36.420,-0.092
36.425,-0.124
36.430,-0.050
36.435,-0.050
36.440,-0.108
36.445,-0.062
36.450,-0.033
36.455,-0.099
36.460,-0.085
36.465,-0.019
36.470,-0.062
36.475,-0.089
36.480,-0.018
36.485,-0.027
36.490,-0.085
36.495,-0.037
36.500,-0.003
36.505,-0.063
36.510,-0.051
36.515,0.015
36.520,-0.030
36.525,-0.063
36.530,0.004
36.535,-0.006
36.540,-0.075
36.545,-0.038
36.550,-0.012
36.555,-0.085
36.560,-0.084
36.565,-0.030
36.570,-0.080
36.575,-0.108
36.580,-0.043
36.585,-0.067
36.590,-0.134
36.595,-0.063
36.600,-0.002
36.605,-0.055
36.610,-0.035
36.615,0.036
36.620,0.000
36.625,-0.021
36.630,0.051
36.635,0.051
36.640,0.003
36.645,0.051
36.650,0.085
36.655,0.028
36.660,0.046
36.665,0.110
36.670,0.060
36.675,0.023
36.680,0.086
36.685,0.077
36.690,0.016
36.695,0.057
36.700,0.087
36.705,0.020
36.710,0.033
36.715,0.105
36.720,0.046
36.725,-0.036
36.730,-0.039
36.735,-0.212
36.740,-0.627
36.745,-1.009
36.750,-1.130
36.755,-0.888
36.760,-0.437
36.765,-0.120
36.770,-0.027
36.775,0.060
36.780,0.255
36.785,0.356
36.790,0.323
36.795,0.350
36.800,0.369
36.805,0.293
36.810,0.287
36.815,0.332
36.820,0.273
36.825,0.228
36.830,0.279
36.835,0.254
36.840,0.180
36.845,0.216
36.850,0.232
36.855,0.148
36.860,0.143
36.865,0.195
36.870,0.144
36.875,0.101
36.880,0.153
36.885,0.131
36.890,0.059
36.895,0.097
36.900,0.123
36.905,0.046
36.910,0.043
36.915,0.100
36.920,0.052
36.925,0.017
36.930,0.087
36.935,0.082
36.940,0.019
36.945,0.071
36.950,0.110
36.955,0.041
36.960,0.051
36.965,0.123
36.970,0.074
36.975,0.032
36.980,0.092
36.985,0.065
36.990,-0.022
36.995,-0.003
37.000,0.001
37.005,-0.096
37.010,-0.114
37.015,-0.071
37.020,-0.126
37.025,-0.164
37.030,-0.097
37.035,-0.098
37.040,-0.156
37.045,-0.108
37.050,-0.066
37.055,-0.123
37.060,-0.104
37.065,-0.033
37.070,-0.078
37.075,-0.112
37.080,-0.042
37.085,-0.045
37.090,-0.106
37.095,-0.066
37.100,-0.032
37.105,-0.088
37.110,-0.078
37.115,-0.017
37.120,-0.056
37.125,-0.086
37.130,-0.025
37.135,-0.034
37.140,-0.092
37.145,-0.044
37.150,-0.012
37.155,-0.076
37.160,-0.051
37.165,0.029
37.170,-0.011
37.175,-0.047
37.180,0.017
37.185,-0.003
37.190,-0.091
37.195,-0.059
37.200,-0.013
37.205,-0.075
37.210,-0.088
37.215,-0.040
37.220,-0.071
37.225,-0.091
37.230,-0.037
37.235,-0.059
37.240,-0.114
37.245,-0.048
37.250,0.002
37.255,-0.049
37.260,-0.033
37.265,0.030
37.270,0.000
37.275,-0.006
37.280,0.077
37.285,0.072
37.290,0.010
37.295,0.066
37.300,0.120
37.305,0.057
37.310,0.057
37.315,0.132
37.320,0.099
37.325,0.051
37.330,0.098
37.335,0.080
37.340,0.002
37.345,0.026
37.350,0.055
37.355,-0.001
37.360,0.025
37.365,0.105
37.370,0.043
37.375,-0.042
37.380,-0.104
37.385,-0.419
37.390,-0.929
37.395,-1.170
37.400,-0.964
37.405,-0.571
37.410,-0.230
37.415,-0.006
37.420,0.080
37.425,0.158
37.430,0.334
37.435,0.392
37.440,0.315
37.445,0.340
37.450,0.372
37.455,0.295
37.460,0.280
37.465,0.318
37.470,0.257
37.475,0.218
37.480,0.279
37.485,0.258
37.490,0.179
37.495,0.220
37.500,0.259
37.505,0.174
37.510,0.145
37.515,0.181
37.520,0.122
37.525,0.100
37.530,0.183
37.535,0.156
37.540,0.053
37.545,0.073
37.550,0.114
37.555,0.069
37.560,0.074
37.565,0.118
37.570,0.064
37.575,0.023
37.580,0.076
37.585,0.053
37.590,-0.018
37.595,0.043
37.600,0.114
37.605,0.044
37.610,0.006
37.615,0.064
37.620,0.044
37.625,0.014
37.630,0.060
37.635,0.016
37.640,-0.073
37.645,-0.041
37.650,-0.022
37.655,-0.109
37.660,-0.132
37.665,-0.097
37.670,-0.148
37.675,-0.165
37.680,-0.083
37.685,-0.086
37.690,-0.135
37.695,-0.079
37.700,-0.046
37.705,-0.109
37.710,-0.104
37.715,-0.050
37.720,-0.088
37.725,-0.102
37.730,-0.019
37.735,-0.031
37.740,-0.116
37.745,-0.069
37.750,-0.002
37.755,-0.045
37.760,-0.036
37.765,0.014
37.770,-0.060
37.775,-0.116
37.780,-0.032
37.785,-0.006
37.790,-0.054
37.795,-0.016
37.800,0.015
37.805,-0.036
37.810,-0.026
37.815,0.020
37.820,-0.035
37.825,-0.073
37.830,0.012
37.835,0.041
37.840,-0.023
37.845,-0.013
37.850,0.003
37.855,-0.064
37.860,-0.074
37.865,-0.030
37.870,-0.059
37.875,-0.080
37.880,-0.031
37.885,-0.034
37.890,-0.096
37.895,-0.075
37.900,-0.046
37.905,-0.110
37.910,-0.099
37.915,-0.019
37.920,-0.039
37.925,-0.048
37.930,0.036
37.935,0.038
37.940,-0.033
37.945,0.004
37.950,0.057
37.955,0.015
37.960,0.040
37.965,0.096
37.970,0.026
37.975,0.005
37.980,0.108
37.985,0.100
37.990,0.021
37.995,0.065
38.000,0.098
38.005,0.028
38.010,0.029
38.015,0.106
38.020,0.053
38.025,-0.009
38.030,0.093
38.035,0.118
38.040,0.013
38.045,0.003
38.050,-0.044
38.055,-0.358
38.060,-0.779
38.065,-1.070
38.070,-1.087
38.075,-0.764
38.080,-0.363
38.085,-0.174
38.090,-0.073
38.095,0.140
38.100,0.336
38.105,0.349
38.110,0.343
38.115,0.396
38.120,0.353
38.125,0.297
38.130,0.328
38.135,0.307
38.140,0.264
38.145,0.311
38.150,0.313
38.155,0.234
38.160,0.239
38.165,0.277
38.170,0.206
38.175,0.144
38.180,0.184
38.185,0.181
38.190,0.131
38.195,0.167
38.200,0.186
38.205,0.098
38.210,0.087
38.215,0.157
38.220,0.119
38.225,0.062
38.230,0.097
38.235,0.081
38.240,0.028
38.245,0.082
38.250,0.107
38.255,0.022
38.260,0.034
38.265,0.125
38.270,0.096
38.275,0.056
38.280,0.110
38.285,0.084
38.290,-0.008
38.295,0.020
38.300,0.057
38.305,-0.017
38.310,-0.041
38.315,-0.015
38.320,-0.087
38.325,-0.145
38.330,-0.099
38.335,-0.119
38.340,-0.193
38.345,-0.147
38.350,-0.100
38.355,-0.163
38.360,-0.153
38.365,-0.073
38.370,-0.107
38.375,-0.140
38.380,-0.066
38.385,-0.066
38.390,-0.129
38.395,-0.083
38.400,-0.038
38.405,-0.094
38.410,-0.087
38.415,-0.022
38.420,-0.067
38.425,-0.111
38.430,-0.047
38.435,-0.046
38.440,-0.102
38.445,-0.051
38.450,-0.007
38.455,-0.068
38.460,-0.060
38.465,0.008
38.470,-0.033
38.475,-0.066
38.480,0.007
38.485,0.004
38.490,-0.066
38.495,-0.017
38.500,0.028
38.505,-0.039
38.510,-0.040
38.515,0.022
38.520,-0.017
38.525,-0.058
38.530,-0.002
38.535,-0.014
38.540,-0.090
38.545,-0.056
38.550,-0.015
38.555,-0.079
38.560,-0.085
38.565,-0.031
38.570,-0.082
38.575,-0.123
38.580,-0.046
38.585,-0.026
38.590,-0.070
38.595,-0.013
38.600,0.031
38.605,-0.026
38.610,-0.007
38.615,0.068
38.620,0.031
38.625,0.002
38.630,0.073
38.635,0.071
38.640,0.018
38.645,0.073
38.650,0.115
38.655,0.046
38.660,0.045
38.665,0.107
38.670,0.056
38.675,0.012
38.680,0.083
38.685,0.082
38.690,0.011
38.695,0.057
38.700,0.115
38.705,0.049
38.710,0.007
38.715,0.013
38.720,-0.128
38.725,-0.422
38.730,-0.784
38.735,-1.116
38.740,-1.074
38.745,-0.594
38.750,-0.198
38.755,-0.089
38.760,0.020
38.765,0.193
38.770,0.282
38.775,0.325
38.780,0.390
38.785,0.360
38.790,0.277
38.795,0.309
38.800,0.337
38.805,0.257
38.810,0.242
38.815,0.292
38.820,0.237
38.825,0.182
38.830,0.236
38.835,0.225
38.840,0.149
38.845,0.173
38.850,0.197
38.855,0.123
38.860,0.114
38.865,0.167
38.870,0.116
38.875,0.065
38.880,0.120
38.885,0.112
38.890,0.039
38.895,0.071
38.900,0.107
38.905,0.035
38.910,0.029
38.915,0.091
38.920,0.046
38.925,0.007
38.930,0.079
38.935,0.082
38.940,0.019
38.945,0.066
38.950,0.110
38.955,0.046
38.960,0.044
38.965,0.098
38.970,0.046
38.975,-0.007
38.980,0.034
38.985,0.004
38.990,-0.089
38.995,-0.070
39.000,-0.049
39.005,-0.134
39.010,-0.144
39.015,-0.077
39.020,-0.115
39.025,-0.153
39.030,-0.079
39.035,-0.070
39.040,-0.130
39.045,-0.080
39.050,-0.032
39.055,-0.095
39.060,-0.093
39.065,-0.024
39.070,-0.057
39.075,-0.092
39.080,-0.030
39.085,-0.032
39.090,-0.091
39.095,-0.051
39.100,-0.011
39.105,-0.071
39.110,-0.068
39.115,-0.001
39.120,-0.041
39.125,-0.081
39.130,-0.010
39.135,-0.004
39.140,-0.069
39.145,-0.029
39.150,0.017
39.155,-0.045
39.160,-0.043
39.165,0.026
39.170,-0.009
39.175,-0.048
39.180,0.016
39.185,0.019
39.190,-0.044
39.195,-0.007
39.200,0.026
39.205,-0.046
39.210,-0.050
39.215,0.008
39.220,-0.044
39.225,-0.100
39.230,-0.048
39.235,-0.046
39.240,-0.105
39.245,-0.070
39.250,-0.036
39.255,-0.105
39.260,-0.108
39.265,-0.031
39.270,-0.046
39.275,-0.063
39.280,0.013
39.285,0.015
39.290,-0.038
39.295,0.016
39.300,0.060
39.305,0.004
39.310,0.014
39.315,0.076
39.320,0.036
39.325,0.014
39.330,0.096
39.335,0.091
39.340,0.013
39.345,0.049
39.350,0.086
39.355,0.017
39.360,0.020
39.365,0.089
39.370,0.044
39.375,-0.003
39.380,0.065
39.385,0.069
39.390,-0.014
39.395,-0.017
39.400,-0.042
39.405,-0.269
39.410,-0.620
39.415,-0.979
39.420,-1.153
39.425,-0.859
39.430,-0.318
39.435,-0.047
39.440,-0.003
39.445,0.133
39.450,0.275
39.455,0.300
39.460,0.333
39.465,0.373
39.470,0.308
39.475,0.261
39.480,0.321
39.485,0.311
39.490,0.232
39.495,0.250
39.500,0.271
39.505,0.201
39.510,0.206
39.515,0.264
39.520,0.200
39.525,0.144
39.530,0.203
39.535,0.194
39.540,0.103
39.545,0.101
39.550,0.128
39.555,0.092
39.560,0.111
39.565,0.162
39.570,0.095
39.575,0.041
39.580,0.119
39.585,0.122
39.590,0.038
39.595,0.065
39.600,0.098
39.605,0.035
39.610,0.043
39.615,0.094
39.620,0.036
39.625,0.009
39.630,0.105
39.635,0.120
39.640,0.047
39.645,0.058
39.650,0.070
39.655,-0.002
39.660,-0.009
39.665,0.036
39.670,-0.035
39.675,-0.111
39.680,-0.074
39.685,-0.090
39.690,-0.156
39.695,-0.106
39.700,-0.063
39.705,-0.133
39.710,-0.141
39.715,-0.086
39.720,-0.115
39.725,-0.119
39.730,-0.037
39.735,-0.055
39.740,-0.137
39.745,-0.077
39.750,-0.001
39.755,-0.070
39.760,-0.093
39.765,-0.033
39.770,-0.067
39.775,-0.083
39.780,-0.003
39.785,-0.031
39.790,-0.115
39.795,-0.057
39.800,0.010
39.805,-0.037
39.810,-0.047
39.815,0.002
39.820,-0.035
39.825,-0.073
39.830,-0.011
39.835,-0.010
39.840,-0.079
39.845,-0.039
39.850,0.026
39.855,-0.022
39.860,-0.045
39.865,0.008
39.870,-0.006
39.875,-0.026
39.880,0.034
39.885,0.018
39.890,-0.057
39.895,-0.012
39.900,0.040
39.905,-0.036
39.910,-0.068
39.915,-0.017
39.920,-0.060
39.925,-0.110
39.930,-0.058
39.935,-0.056
39.940,-0.102
39.945,-0.052
39.950,-0.032
39.955,-0.142
39.960,-0.132
39.965,-0.005
39.970,-0.020
39.975,-0.054
39.980,0.028
39.985,0.027
39.990,-0.047
39.995,0.018
40.000,0.093
40.005,0.027
40.010,0.021
40.015,0.101
40.020,0.078
40.025,0.032
40.030,0.061
40.035,0.045
40.040,-0.002
40.045,0.041
40.050,0.094
40.055,0.060
40.060,0.040
40.065,0.074
40.070,0.066
40.075,0.072
40.080,0.123
40.085,0.036
40.090,-0.111
40.095,-0.106
40.100,-0.181
40.105,-0.556
40.110,-0.972
40.115,-1.116
40.120,-0.913
40.125,-0.503
40.130,-0.152
40.135,-0.017
40.140,0.021
40.145,0.205
40.150,0.403
40.155,0.364
40.160,0.296
40.165,0.343
40.170,0.336
40.175,0.299
40.180,0.327
40.185,0.318
40.190,0.276
40.195,0.306
40.200,0.296
40.205,0.199
40.210,0.214
40.215,0.297
40.220,0.232
40.225,0.162
40.230,0.213
40.235,0.191
40.240,0.092
40.245,0.093
40.250,0.128
40.255,0.103
40.260,0.128
40.265,0.179
40.270,0.118
40.275,0.053
40.280,0.081
40.285,0.048
40.290,-0.029
40.295,0.012
40.300,0.048
40.305,-0.026
40.310,-0.021
40.315,0.066
40.320,0.033
40.325,0.009
40.330,0.087
40.335,0.053
40.340,-0.027
40.345,0.054
40.350,0.099
40.355,-0.012
40.360,-0.055
40.365,-0.008
40.370,-0.063
40.375,-0.126
40.380,-0.073
40.385,-0.068
40.390,-0.125
40.395,-0.085
40.400,-0.061
40.405,-0.131
40.410,-0.107
40.415,-0.020
40.420,-0.060
40.425,-0.115
40.430,-0.053
40.435,-0.028
40.440,-0.074
40.445,-0.039
40.450,-0.007
40.455,-0.072
40.460,-0.063
40.465,0.009
40.470,-0.032
40.475,-0.079
40.480,-0.018
40.485,-0.019
40.490,-0.087
40.495,-0.049
40.500,-0.011
40.505,-0.075
40.510,-0.073
40.515,-0.004
40.520,-0.041
40.525,-0.083
40.530,-0.018
40.535,-0.009
40.540,-0.072
40.545,-0.037
40.550,0.004
40.555,-0.059
40.560,-0.057
40.565,0.018
40.570,-0.014
40.575,-0.053
40.580,0.007
40.585,0.000
40.590,-0.073
40.595,-0.040
40.600,-0.009
40.605,-0.084
40.610,-0.087
40.615,-0.020
40.620,-0.061
40.625,-0.109
40.630,-0.054
40.635,-0.056
40.640,-0.121
40.645,-0.073
40.650,-0.009
40.655,-0.051
40.660,-0.045
40.665,0.021
40.670,-0.005
40.675,-0.032
40.680,0.041
40.685,0.052
40.690,-0.002
40.695,0.036
40.700,0.079
40.705,0.029
40.710,0.040
40.715,0.110
40.720,0.068
40.725,0.019
40.730,0.084
40.735,0.086
40.740,0.016
40.745,0.053
40.750,0.094
40.755,0.033
40.760,0.036
40.765,0.115
40.770,0.087
40.775,0.014
40.780,0.014
40.785,-0.086
40.790,-0.397
40.795,-0.788
40.800,-1.103
40.805,-1.091
40.810,-0.659
40.815,-0.219
40.820,-0.072
40.825,0.002
40.830,0.177
40.835,0.313
40.840,0.331
40.845,0.369
40.850,0.392
40.855,0.310
40.860,0.295
40.865,0.352
40.870,0.302
40.875,0.245
40.880,0.291
40.885,0.278
40.890,0.200
40.895,0.224
40.900,0.253
40.905,0.179
40.910,0.165
40.915,0.216
40.920,0.160
40.925,0.106
40.930,0.163
40.935,0.155
40.940,0.080
40.945,0.111
40.950,0.141
40.955,0.065
40.960,0.054
40.965,0.114
40.970,0.070
40.975,0.021
40.980,0.079
40.985,0.079
40.990,0.017
40.995,0.055
41.000,0.099
41.005,0.043
41.010,0.044
41.015,0.109
41.020,0.071
41.025,0.027
41.030,0.085
41.035,0.080
41.040,0.000
41.045,0.016
41.050,0.035
41.055,-0.055
41.060,-0.085
41.065,-0.044
41.070,-0.103
41.075,-0.157
41.080,-0.094
41.085,-0.091
41.090,-0.155
41.095,-0.111
41.100,-0.062
41.105,-0.116
41.110,-0.109
41.115,-0.038
41.120,-0.074
41.125,-0.112
41.130,-0.045
41.135,-0.038
41.140,-0.100
41.145,-0.063
41.150,-0.021
41.155,-0.084
41.160,-0.084
41.165,-0.014
41.170,-0.051
41.175,-0.091
41.180,-0.022
41.185,-0.016
41.190,-0.083
41.195,-0.044
41.200,0.003
41.205,-0.058
41.210,-0.059
41.215,0.009
41.220,-0.029
41.225,-0.067
41.230,0.001
41.235,0.005
41.240,-0.056
41.245,-0.017
41.250,0.024
41.255,-0.037
41.260,-0.038
41.265,0.025
41.270,-0.019
41.275,-0.066
41.280,-0.007
41.285,-0.020
41.290,-0.103
41.295,-0.070
41.300,-0.026
41.305,-0.092
41.310,-0.103
41.315,-0.042
41.320,-0.079
41.325,-0.123
41.330,-0.048
41.335,-0.016
41.340,-0.058
41.345,-0.018
41.350,0.027
41.355,-0.022
41.360,-0.010
41.365,0.061
41.370,0.027
41.375,-0.007
41.380,0.067
41.385,0.074
41.390,0.009
41.395,0.056
41.400,0.106
41.405,0.037
41.410,0.030
41.415,0.098
41.420,0.056
41.425,0.008
41.430,0.070
41.435,0.068
41.440,-0.003
41.445,0.039
41.450,0.091
41.455,0.018
41.460,-0.029
41.465,-0.029
41.470,-0.203
41.475,-0.560
41.480,-0.928
41.485,-1.131
41.490,-0.922
41.495,-0.394
41.500,-0.052
41.505,-0.009
41.510,0.080
41.515,0.248
41.520,0.306
41.525,0.306
41.530,0.353
41.535,0.336
41.540,0.260
41.545,0.287
41.550,0.316
41.555,0.239
41.560,0.223
41.565,0.279
41.570,0.229
41.575,0.170
41.580,0.220
41.585,0.212
41.590,0.133
41.595,0.156
41.600,0.186
41.605,0.111
41.610,0.101
41.615,0.159
41.620,0.109
41.625,0.056
41.630,0.111
41.635,0.104
41.640,0.033
41.645,0.069
41.650,0.107
41.655,0.035
41.660,0.026
41.665,0.090
41.670,0.051
41.675,0.008
41.680,0.080
41.685,0.091
41.690,0.025
41.695,0.066
41.700,0.109
41.705,0.039
41.710,0.033
41.715,0.099
41.720,0.052
41.725,-0.012
41.730,0.024
41.735,0.000
41.740,-0.094
41.745,-0.081
41.750,-0.056
41.755,-0.138
41.760,-0.155
41.765,-0.090
41.770,-0.124
41.775,-0.162
41.780,-0.087
41.785,-0.075
41.790,-0.134
41.795,-0.084
41.800,-0.032
41.805,-0.095
41.810,-0.096
41.815,-0.020
41.820,-0.055
41.825,-0.106
41.830,-0.042
41.835,-0.025
41.840,-0.093
41.845,-0.070
41.850,-0.023
41.855,-0.069
41.860,-0.063
41.865,0.006
41.870,-0.027
41.875,-0.066
41.880,0.001
41.885,0.009
41.890,-0.049
41.895,-0.012
41.900,0.022
41.905,-0.038
41.910,-0.029
41.915,0.044
41.920,-0.006
41.925,-0.074
41.930,-0.003
41.935,0.034
41.940,-0.012
41.945,0.011
41.950,0.020
41.955,-0.065
41.960,-0.052
41.965,0.036
41.970,-0.014
41.975,-0.091
41.980,-0.055
41.985,-0.046
41.990,-0.083
41.995,-0.043
42.000,-0.028
42.005,-0.121
42.010,-0.126
42.015,-0.029
42.020,-0.041
42.025,-0.070
42.030,0.008
42.035,0.019
42.040,-0.034
42.045,0.021
42.050,0.063
42.055,-0.005
42.060,-0.007
42.065,0.067
42.070,0.045
42.075,0.011
42.080,0.080
42.085,0.098
42.090,0.035
42.095,0.052
42.100,0.070
42.105,-0.009
42.110,-0.005
42.115,0.098
42.120,0.083
42.125,0.025
42.130,0.061
42.135,0.043
42.140,-0.009
42.145,0.051
42.150,0.052
42.155,-0.149
42.160,-0.421
42.165,-0.759
42.170,-1.124
42.175,-1.091
42.180,-0.588
42.185,-0.211
42.190,-0.117
42.195,0.039
42.200,0.205
42.205,0.259
42.210,0.344
42.215,0.414
42.220,0.344
42.225,0.280
42.230,0.324
42.235,0.300
42.240,0.207
42.245,0.239
42.250,0.296
42.255,0.227
42.260,0.191
42.265,0.231
42.270,0.196
42.275,0.169
42.280,0.236
42.285,0.225
42.290,0.137
42.295,0.152
42.300,0.166
42.305,0.062
42.310,0.032
42.315,0.089
42.320,0.050
42.325,0.018
42.330,0.098
42.335,0.103
42.340,0.013
42.345,0.025
42.350,0.076
42.355,0.038
42.360,0.042
42.365,0.112
42.370,0.083
42.375,0.029
42.380,0.069
42.385,0.066
42.390,0.007
42.395,0.039
42.400,0.055
42.405,-0.030
42.410,-0.038
42.415,0.021
42.420,-0.018
42.425,-0.069
42.430,-0.017
42.435,-0.010
42.440,-0.080
42.445,-0.073
42.450,-0.056
42.455,-0.117
42.460,-0.104
42.465,-0.018
42.470,-0.048
42.475,-0.104
42.480,-0.055
42.485,-0.057
42.490,-0.108
42.495,-0.039
42.500,0.020
42.505,-0.054
42.510,-0.082
42.515,-0.034
42.520,-0.059
42.525,-0.067
42.530,0.024
42.535,0.041
42.540,-0.028
42.545,-0.004
42.550,0.027
42.555,-0.065
42.560,-0.085
42.565,-0.002
42.570,-0.033
42.575,-0.101
42.580,-0.054
42.585,-0.028
42.590,-0.053
42.595,0.003
42.600,0.041
42.605,-0.031
42.610,-0.037
42.615,0.046
42.620,0.031
42.625,-0.036
42.630,-0.011
42.635,0.000
42.640,-0.039
42.645,-0.006
42.650,0.014
42.655,-0.077
42.660,-0.103
42.665,-0.034
42.670,-0.059
42.675,-0.100
42.680,-0.043
42.685,-0.048
42.690,-0.111
42.695,-0.066
42.700,-0.020
42.705,-0.075
42.710,-0.068
42.715,0.005
42.720,-0.018
42.725,-0.034
42.730,0.045
42.735,0.027
42.740,-0.056
42.745,0.000
42.750,0.072
42.755,0.023
42.760,0.023
42.765,0.099
42.770,0.075
42.775,0.042
42.780,0.107
42.785,0.080
42.790,-0.020
42.795,0.027
42.800,0.102
42.805,0.051
42.810,0.036
42.815,0.089
42.820,0.046
42.825,0.016
42.830,0.090
42.835,0.064
42.840,-0.055
42.845,-0.139
42.850,-0.398
42.855,-0.908
42.860,-1.189
42.865,-0.945
42.870,-0.585
42.875,-0.368
42.880,-0.133
42.885,0.023
42.890,0.099
42.895,0.291
42.900,0.422
42.905,0.363
42.910,0.342
42.915,0.402
42.920,0.352
42.925,0.289
42.930,0.336
42.935,0.321
42.940,0.233
42.945,0.250
42.950,0.287
42.955,0.220
42.960,0.202
42.965,0.251
42.970,0.203
42.975,0.147
42.980,0.196
42.985,0.183
42.990,0.099
42.995,0.128
43.000,0.165
43.005,0.087
43.010,0.070
43.015,0.129
43.020,0.084
43.025,0.030
43.030,0.080
43.035,0.075
43.040,0.007
43.045,0.037
43.050,0.078
43.055,0.023
43.060,0.021
43.065,0.083
43.070,0.049
43.075,0.010
43.080,0.075
43.085,0.074
43.090,-0.009
43.095,0.012
43.100,0.045
43.105,-0.036
43.110,-0.060
43.115,-0.011
43.120,-0.070
43.125,-0.137
43.130,-0.086
43.135,-0.088
43.140,-0.159
43.145,-0.126
43.150,-0.078
43.155,-0.130
43.160,-0.130
43.165,-0.060
43.170,-0.085
43.175,-0.120
43.180,-0.054
43.185,-0.045
43.190,-0.110
43.195,-0.072
43.200,-0.023
43.205,-0.084
43.210,-0.084
43.215,-0.012
43.220,-0.049
43.225,-0.097
43.230,-0.031
43.235,-0.020
43.240,-0.083
43.245,-0.048
43.250,0.000
43.255,-0.056
43.260,-0.059
43.265,0.009
43.270,-0.017
43.275,-0.059
43.280,-0.004
43.285,0.004
43.290,-0.054
43.295,-0.017
43.300,0.031
43.305,-0.027
43.310,-0.031
43.315,0.031
43.320,-0.016
43.325,-0.067
43.330,-0.010
43.335,-0.013
43.340,-0.095
43.345,-0.066
43.350,-0.012
43.355,-0.077
43.360,-0.093
43.365,-0.029
43.370,-0.072
43.375,-0.120
43.380,-0.038
43.385,-0.005
43.390,-0.057
43.395,-0.018
43.400,0.032
43.405,-0.017
43.410,-0.011
43.415,0.063
43.420,0.039
43.425,0.000
43.430,0.064
43.435,0.075
43.440,0.021
43.445,0.066
43.450,0.112
43.455,0.044
43.460,0.031
43.465,0.093
43.470,0.057
43.475,0.011
43.480,0.071
43.485,0.080
43.490,0.013
43.495,0.053
43.500,0.112
43.505,0.034
43.510,-0.023
43.515,-0.016
43.520,-0.193
43.525,-0.568
43.530,-0.934
43.535,-1.113
43.540,-0.902
43.545,-0.417
43.550,-0.104
43.555,-0.040
43.560,0.056
43.565,0.241
43.570,0.330
43.575,0.326
43.580,0.361
43.585,0.350
43.590,0.278
43.595,0.298
43.600,0.330
43.605,0.255
43.610,0.231
43.615,0.286
43.620,0.237
43.625,0.175
43.630,0.224
43.635,0.219
43.640,0.136
43.645,0.158
43.650,0.194
43.655,0.119
43.660,0.099
43.665,0.155
43.670,0.110
43.675,0.054
43.680,0.106
43.685,0.106
43.690,0.036
43.695,0.060
43.700,0.097
43.705,0.027
43.710,0.015
43.715,0.080
43.720,0.045
43.725,0.000
43.730,0.064
43.735,0.075
43.740,0.011
43.745,0.052
43.750,0.103
43.755,0.038
43.760,0.030
43.765,0.091
43.770,0.043
43.775,-0.020
43.780,0.018
43.785,0.000
43.790,-0.092
43.795,-0.086
43.800,-0.062
43.805,-0.137
43.810,-0.155
43.815,-0.092
43.820,-0.124
43.825,-0.168
43.830,-0.101
43.835,-0.087
43.840,-0.147
43.845,-0.103
43.850,-0.047
43.855,-0.106
43.860,-0.108
43.865,-0.035
43.870,-0.073
43.875,-0.124
43.880,-0.059
43.885,-0.049
43.890,-0.115
43.895,-0.079
43.900,-0.032
43.905,-0.092
43.910,-0.096
43.915,-0.020
43.920,-0.042
43.925,-0.090
43.930,-0.025
43.935,-0.010
43.940,-0.073
43.945,-0.039
43.950,0.006
43.955,-0.049
43.960,-0.048
43.965,0.023
43.970,-0.007
43.975,-0.059
43.980,-0.011
43.985,-0.009
43.990,-0.070
43.995,-0.047
44.000,-0.025
44.005,-0.090
44.010,-0.091
44.015,-0.018
44.020,-0.057
44.025,-0.127
44.030,-0.078
44.035,-0.057
44.040,-0.094
44.045,-0.032
44.050,0.021
44.055,-0.042
44.060,-0.040
44.065,0.042
44.070,0.018
44.075,-0.016
44.080,0.064
44.085,0.088
44.090,0.021
44.095,0.040
44.100,0.096
44.105,0.068
44.110,0.069
44.115,0.112
44.120,0.061
44.125,0.026
44.130,0.103
44.135,0.115
44.140,0.037
44.145,0.043
44.150,0.081
44.155,0.045
44.160,0.056
44.165,0.105
44.170,0.028
44.175,-0.057
44.180,-0.050
44.185,-0.225
44.190,-0.679
44.195,-1.066
44.200,-1.092
44.205,-0.770
44.210,-0.329
44.215,-0.038
44.220,0.037
44.225,0.097
44.230,0.265
44.235,0.372
44.240,0.341
44.245,0.348
44.250,0.372
44.255,0.313
44.260,0.305
44.265,0.355
44.270,0.295
44.275,0.221
44.280,0.270
44.285,0.276
44.290,0.210
44.295,0.238
44.300,0.271
44.305,0.195
44.310,0.168
44.315,0.212
44.320,0.163
44.325,0.097
44.330,0.123
44.335,0.089
44.340,0.011
44.345,0.072
44.350,0.146
44.355,0.086
44.360,0.056
44.365,0.097
44.370,0.060
44.375,0.020
44.380,0.055
44.385,0.015
44.390,-0.067
44.395,0.009
44.400,0.113
44.405,0.084
44.410,0.075
44.415,0.102
44.420,0.022
44.425,-0.035
44.430,0.047
44.435,0.064
44.440,-0.035
44.445,-0.045
44.450,-0.014
44.455,-0.083
44.460,-0.123
44.465,-0.102
44.470,-0.133
44.475,-0.134
44.480,-0.052
44.485,-0.035
44.490,-0.088
44.495,-0.062
44.500,-0.016
44.505,-0.056
44.510,-0.066
44.515,-0.036
44.520,-0.096
44.525,-0.118
44.530,-0.015
44.535,-0.006
44.540,-0.082
44.545,-0.039
44.550,0.017
44.555,-0.040
44.560,-0.057
44.565,0.001
44.570,-0.022
44.575,-0.054
44.580,0.005
44.585,-0.002
44.590,-0.080
44.595,-0.027
44.600,0.043
44.605,-0.028
44.610,-0.049
44.615,0.030
44.620,0.014
44.625,-0.034
44.630,0.005
44.635,-0.009
44.640,-0.089
44.645,-0.059
44.650,-0.011
44.655,-0.073
44.660,-0.078
44.665,-0.019
44.670,-0.068
44.675,-0.119
44.680,-0.047
44.685,-0.030
44.690,-0.107
44.695,-0.072
44.700,0.004
44.705,-0.047
44.710,-0.078
44.715,-0.020
44.720,-0.024
44.725,-0.038
44.730,0.035
44.735,0.053
44.740,0.012
44.745,0.060
44.750,0.088
44.755,0.011
44.760,0.025
44.765,0.112
44.770,0.066
44.775,-0.006
44.780,0.055
44.785,0.081
44.790,0.009
44.795,0.029
44.800,0.069
44.805,0.002
44.810,-0.001
44.815,0.086
44.820,0.076
44.825,0.025
44.830,0.043
44.835,-0.002
44.840,-0.185
44.845,-0.448
44.850,-0.846
44.855,-1.192
44.860,-1.048
44.865,-0.598
44.870,-0.342
44.875,-0.193
44.880,0.024
44.885,0.182
44.890,0.271
44.895,0.384
44.900,0.423
44.905,0.334
44.910,0.312
44.915,0.369
44.920,0.319
44.925,0.256
44.930,0.306
44.935,0.298
44.940,0.210
44.945,0.232
44.950,0.270
44.955,0.195
44.960,0.174
44.965,0.229
44.970,0.182
44.975,0.119
44.980,0.168
44.985,0.170
44.990,0.094
44.995,0.113
45.000,0.149
45.005,0.083
45.010,0.066
45.015,0.122
45.020,0.080
45.025,0.024
45.030,0.078
45.035,0.079
45.040,0.007
45.045,0.041
45.050,0.087
45.055,0.020
45.060,0.010
45.065,0.085
45.070,0.058
45.075,0.010
45.080,0.064
45.085,0.064
45.090,-0.008
45.095,0.011
45.100,0.034
45.105,-0.048
45.110,-0.079
45.115,-0.037
45.120,-0.087
45.125,-0.148
45.130,-0.094
45.135,-0.087
45.140,-0.154
45.145,-0.116
45.150,-0.062
45.155,-0.113
45.160,-0.112
45.165,-0.040
45.170,-0.070
45.175,-0.111
45.180,-0.044
45.185,-0.032
45.190,-0.099
45.195,-0.064
45.200,-0.016
45.205,-0.080
45.210,-0.087
45.215,-0.015
45.220,-0.047
45.225,-0.091
45.230,-0.028
45.235,-0.021
45.240,-0.083
45.245,-0.042
45.250,0.009
