'Elapsed time','ECG'
'seconds','mV'
0.000,-0.076
0.005,-0.098
0.010,-0.099
0.015,-0.115
0.020,-0.105
0.025,-0.092
0.030,-0.103
0.035,-0.094
0.040,-0.068
0.045,-0.061
0.050,-0.050
0.055,-0.018
0.060,0.002
0.065,0.010
0.070,0.035
0.075,0.059
0.080,0.063
0.085,0.075
0.090,0.096
0.095,0.091
0.100,0.079
0.105,0.086
0.110,0.086
0.115,0.071
0.120,0.072
0.125,0.080
0.130,0.066
0.135,0.060
0.140,0.070
0.145,0.064
0.150,0.058
0.155,0.068
0.160,0.063
0.165,0.044
0.170,0.046
0.175,0.052
0.180,0.040
0.185,0.040
0.190,0.054
0.195,0.041
0.200,0.024
0.205,0.031
0.210,0.029
0.215,0.013
0.220,0.020
0.225,0.030
0.230,0.013
0.235,0.008
0.240,0.019
0.245,0.013
0.250,0.009
0.255,0.023
0.260,0.026
0.265,0.013
0.270,0.016
0.275,0.024
0.280,0.010
0.285,0.001
0.290,0.010
0.295,0.005
0.300,-0.005
0.305,0.008
0.310,0.018
0.315,0.006
0.320,0.005
0.325,0.009
0.330,-0.004
0.335,-0.006
0.340,0.009
0.345,0.003
0.350,-0.014
0.355,-0.006
0.360,-0.001
0.365,-0.010
0.370,-0.006
0.375,-0.004
0.380,-0.020
0.385,-0.021
0.390,-0.007
0.395,-0.010
0.400,-0.016
0.405,-0.014
0.410,-0.013
0.415,-0.016
0.420,-0.013
0.425,-0.007
0.430,-0.016
0.435,-0.017
0.440,-0.005
0.445,-0.011
0.450,-0.023
0.455,-0.014
0.460,-0.012
0.465,-0.024
0.470,-0.018
0.475,-0.008
0.480,-0.022
0.485,-0.031
0.490,-0.018
0.495,-0.016
0.500,-0.022
0.505,-0.010
0.510,-0.008
0.515,-0.030
0.520,-0.032
0.525,-0.018
0.530,-0.024
0.535,-0.021
0.540,-0.009
0.545,-0.023
0.550,-0.038
0.555,-0.028
0.560,-0.031
0.565,-0.046
0.570,-0.044
0.575,-0.038
0.580,-0.048
0.585,-0.048
0.590,-0.048
0.595,-0.072
0.600,-0.090
0.605,-0.066
0.610,-0.044
0.615,-0.055
0.620,-0.044
0.625,-0.015
0.630,-0.019
0.635,-0.022
0.640,-0.003
0.645,0.006
0.650,0.015
0.655,0.038
0.660,0.042
0.665,0.026
0.670,0.022
0.675,0.023
0.680,0.014
0.685,0.017
0.690,0.037
0.695,0.034
0.700,0.014
0.705,0.015
0.710,0.023
0.715,0.016
0.720,0.012
0.725,0.012
0.730,0.006
0.735,0.009
0.740,0.004
0.745,-0.069
0.750,-0.185
0.755,-0.329
0.760,-0.585
0.765,-0.960
0.770,-1.208
0.775,-1.031
0.780,-0.611
0.785,-0.238
0.790,0.106
0.795,0.287
0.800,0.281
0.805,0.288
0.810,0.309
0.815,0.293
0.820,0.288
0.825,0.295
0.830,0.283
0.835,0.276
0.840,0.283
0.845,0.276
0.850,0.266
0.855,0.259
0.860,0.237
0.865,0.212
0.870,0.211
0.875,0.211
0.880,0.194
0.885,0.188
0.890,0.193
0.895,0.180
0.900,0.164
0.905,0.164
0.910,0.157
0.915,0.133
0.920,0.121
0.925,0.119
0.930,0.101
0.935,0.090
0.940,0.101
0.945,0.086
0.950,0.064
0.955,0.072
0.960,0.070
0.965,0.049
0.970,0.043
0.975,0.040
0.980,0.029
0.985,0.021
0.990,0.010
0.995,-0.008
1.000,-0.016
1.005,-0.018
1.010,-0.028
1.015,-0.046
1.020,-0.054
1.025,-0.053
1.030,-0.067
1.035,-0.077
1.040,-0.080
1.045,-0.114
1.050,-0.146
1.055,-0.132
1.060,-0.120
1.065,-0.132
1.070,-0.129
1.075,-0.119
1.080,-0.126
1.085,-0.118
1.090,-0.091
1.095,-0.086
1.100,-0.083
1.105,-0.051
1.110,-0.021
1.115,-0.010
1.120,0.006
1.125,0.030
1.130,0.034
1.135,0.038
1.140,0.058
1.145,0.052
1.150,0.042
1.155,0.055
1.160,0.056
1.165,0.045
1.170,0.048
1.175,0.050
1.180,0.034
1.185,0.032
1.190,0.042
1.195,0.029
1.200,0.014
1.205,0.028
1.210,0.040
1.215,0.022
1.220,0.011
1.225,0.015
1.230,0.007
1.235,0.004
1.240,0.019
1.245,0.007
1.250,-0.013
1.255,0.002
1.260,0.013
1.265,0.001
1.270,-0.001
1.275,0.004
1.280,0.002
1.285,0.007
1.290,0.009
1.295,-0.016
1.300,-0.029
1.305,-0.003
1.310,0.023
1.315,0.023
1.320,0.014
1.325,0.015
1.330,0.011
1.335,0.001
1.340,0.002
1.345,-0.005
1.350,-0.014
1.355,-0.004
1.360,0.006
1.365,0.003
1.370,0.008
1.375,0.016
1.380,0.002
1.385,-0.009
1.390,-0.005
1.395,-0.009
1.400,-0.021
1.405,-0.014
1.410,-0.004
1.415,-0.013
1.420,-0.005
1.425,0.014
1.430,0.005
1.435,-0.001
1.440,0.007
1.445,-0.013
1.450,-0.037
1.455,-0.025
1.460,-0.015
1.465,-0.024
1.470,-0.013
1.475,0.007
1.480,-0.001
1.485,-0.017
1.490,-0.015
1.495,-0.020
1.500,-0.029
1.505,-0.015
1.510,-0.004
1.515,-0.014
1.520,-0.008
1.525,0.008
1.530,-0.004
1.535,-0.019
1.540,-0.010
1.545,-0.018
1.550,-0.036
1.555,-0.025
1.560,-0.014
1.565,-0.021
1.570,-0.017
1.575,-0.009
1.580,-0.013
1.585,-0.021
1.590,-0.029
1.595,-0.044
1.600,-0.052
1.605,-0.045
1.610,-0.043
1.615,-0.052
1.620,-0.050
1.625,-0.050
1.630,-0.070
1.635,-0.066
1.640,-0.035
1.645,-0.035
1.650,-0.039
1.655,-0.017
1.660,-0.020
1.665,-0.038
1.670,-0.021
1.675,0.010
1.680,0.027
1.685,0.041
1.690,0.049
1.695,0.037
1.700,0.019
1.705,0.024
1.710,0.029
1.715,0.012
1.720,0.014
1.725,0.029
1.730,0.019
1.735,0.012
1.740,0.026
1.745,0.023
1.750,0.003
1.755,0.005
1.760,0.016
1.765,0.007
1.770,-0.046
1.775,-0.148
1.780,-0.284
1.785,-0.481
1.790,-0.786
1.795,-1.126
1.800,-1.165
1.805,-0.783
1.810,-0.357
1.815,-0.030
1.820,0.232
1.825,0.310
1.830,0.286
1.835,0.288
1.840,0.294
1.845,0.286
1.850,0.281
1.855,0.291
1.860,0.291
1.865,0.273
1.870,0.273
1.875,0.278
1.880,0.258
1.885,0.241
1.890,0.236
1.895,0.217
1.900,0.200
1.905,0.207
1.910,0.202
1.915,0.174
1.920,0.163
1.925,0.170
1.930,0.158
1.935,0.143
1.940,0.147
1.945,0.135
1.950,0.114
1.955,0.114
1.960,0.113
1.965,0.098
1.970,0.095
1.975,0.092
1.980,0.068
1.985,0.054
1.990,0.063
1.995,0.053
2.000,0.028
2.005,0.029
2.010,0.028
2.015,0.006
2.020,-0.002
2.025,0.000
2.030,-0.021
2.035,-0.035
2.040,-0.031
2.045,-0.042
2.050,-0.061
2.055,-0.066
2.060,-0.075
2.065,-0.094
2.070,-0.097
2.075,-0.095
2.080,-0.115
2.085,-0.133
2.090,-0.129
2.095,-0.133
2.100,-0.144
2.105,-0.132
2.110,-0.117
2.115,-0.116
2.120,-0.097
2.125,-0.061
2.130,-0.044
2.135,-0.034
2.140,-0.007
2.145,0.004
2.150,0.003
2.155,0.021
2.160,0.037
2.165,0.035
2.170,0.043
2.175,0.059
2.180,0.055
2.185,0.046
2.190,0.054
2.195,0.053
2.200,0.040
2.205,0.049
2.210,0.054
2.215,0.034
2.220,0.030
2.225,0.039
2.230,0.029
2.235,0.020
2.240,0.026
2.245,0.020
2.250,0.005
2.255,0.004
2.260,0.005
2.265,0.001
2.270,0.013
2.275,0.028
2.280,0.012
2.285,-0.009
2.290,-0.001
2.295,-0.003
2.300,-0.019
2.305,-0.008
2.310,0.005
2.315,-0.007
2.320,-0.005
2.325,0.013
2.330,0.005
2.335,-0.004
2.340,0.009
2.345,0.005
2.350,-0.011
2.355,-0.002
2.360,0.009
2.365,-0.002
2.370,-0.005
2.375,0.005
2.380,-0.002
2.385,-0.010
2.390,0.004
2.395,0.008
2.400,-0.008
2.405,-0.007
2.410,0.002
2.415,-0.008
2.420,-0.007
2.425,0.011
2.430,0.006
2.435,-0.006
2.440,0.002
2.445,-0.007
2.450,-0.028
2.455,-0.015
2.460,0.000
2.465,-0.012
2.470,-0.008
2.475,0.007
2.480,-0.006
2.485,-0.018
2.490,-0.009
2.495,-0.009
2.500,-0.015
2.505,-0.007
2.510,-0.005
2.515,-0.018
2.520,-0.017
2.525,-0.002
2.530,-0.011
2.535,-0.023
2.540,-0.010
2.545,-0.010
2.550,-0.025
2.555,-0.014
2.560,-0.002
2.565,-0.016
2.570,-0.018
2.575,-0.012
2.580,-0.023
2.585,-0.026
2.590,-0.005
2.595,-0.003
2.600,-0.021
2.605,-0.019
2.610,-0.009
2.615,-0.019
2.620,-0.021
2.625,-0.011
2.630,-0.021
2.635,-0.029
2.640,-0.017
2.645,-0.021
2.650,-0.046
2.655,-0.049
2.660,-0.039
2.665,-0.048
2.670,-0.051
2.675,-0.047
2.680,-0.071
2.685,-0.089
2.690,-0.061
2.695,-0.040
2.700,-0.046
2.705,-0.027
2.710,-0.003
2.715,-0.014
2.720,-0.020
2.725,-0.004
2.730,0.001
2.735,0.012
2.740,0.041
2.745,0.050
2.750,0.034
2.755,0.034
2.760,0.036
2.765,0.022
2.770,0.022
2.775,0.032
2.780,0.024
2.785,0.014
2.790,0.027
2.795,0.031
2.800,0.017
2.805,0.018
2.810,0.021
2.815,0.009
2.820,-0.006
2.825,-0.066
2.830,-0.196
2.835,-0.358
2.840,-0.565
2.845,-0.877
2.850,-1.175
2.855,-1.105
2.860,-0.691
2.865,-0.301
2.870,0.045
2.875,0.280
2.880,0.296
2.885,0.284
2.890,0.309
2.895,0.308
2.900,0.295
2.905,0.305
2.910,0.315
2.915,0.299
2.920,0.290
2.925,0.287
2.930,0.267
2.935,0.256
2.940,0.261
2.945,0.246
2.950,0.218
2.955,0.214
2.960,0.212
2.965,0.190
2.970,0.182
2.975,0.184
2.980,0.167
2.985,0.151
2.990,0.157
2.995,0.152
3.000,0.130
3.005,0.125
3.010,0.124
3.015,0.105
3.020,0.090
3.025,0.095
3.030,0.086
3.035,0.067
3.040,0.070
3.045,0.065
3.050,0.037
3.055,0.031
3.060,0.034
3.065,0.017
3.070,0.009
3.075,0.008
3.080,-0.013
3.085,-0.029
3.090,-0.026
3.095,-0.035
3.100,-0.062
3.105,-0.070
3.110,-0.071
3.115,-0.094
3.120,-0.107
3.125,-0.105
3.130,-0.119
3.135,-0.130
3.140,-0.123
3.145,-0.131
3.150,-0.148
3.155,-0.139
3.160,-0.123
3.165,-0.125
3.170,-0.116
3.175,-0.089
3.180,-0.073
3.185,-0.057
3.190,-0.024
3.195,0.001
3.200,0.006
3.205,0.020
3.210,0.040
3.215,0.044
3.220,0.051
3.225,0.066
3.230,0.059
3.235,0.051
3.240,0.067
3.245,0.069
3.250,0.049
3.255,0.049
3.260,0.054
3.265,0.040
3.270,0.039
3.275,0.050
3.280,0.042
3.285,0.030
3.290,0.038
3.295,0.037
3.300,0.023
3.305,0.024
3.310,0.028
3.315,0.011
3.320,0.006
3.325,0.023
3.330,0.017
3.335,0.001
3.340,0.011
3.345,0.014
3.350,0.000
3.355,0.005
3.360,0.012
3.365,-0.002
3.370,-0.007
3.375,0.005
3.380,0.000
3.385,-0.006
3.390,0.009
3.395,0.009
3.400,-0.013
3.405,-0.010
3.410,0.007
3.415,0.000
3.420,-0.005
3.425,0.005
3.430,0.000
3.435,-0.008
3.440,0.003
3.445,0.004
3.450,-0.009
3.455,-0.002
3.460,0.009
3.465,-0.006
3.470,-0.015
3.475,-0.003
3.480,-0.005
3.485,-0.015
3.490,-0.008
3.495,-0.002
3.500,-0.014
3.505,-0.017
3.510,-0.010
3.515,-0.019
3.520,-0.020
3.525,-0.006
3.530,-0.009
3.535,-0.021
3.540,-0.012
3.545,-0.007
3.550,-0.021
3.555,-0.019
3.560,-0.011
3.565,-0.020
3.570,-0.018
3.575,-0.004
3.580,-0.011
3.585,-0.023
3.590,-0.014
3.595,-0.012
3.600,-0.023
3.605,-0.016
3.610,-0.007
3.615,-0.021
3.620,-0.027
3.625,-0.015
3.630,-0.020
3.635,-0.028
3.640,-0.014
3.645,-0.013
3.650,-0.030
3.655,-0.021
3.660,-0.005
3.665,-0.016
3.670,-0.022
3.675,-0.010
3.680,-0.013
3.685,-0.023
3.690,-0.014
3.695,-0.011
3.700,-0.024
3.705,-0.021
3.710,-0.012
3.715,-0.028
3.720,-0.038
3.725,-0.030
3.730,-0.038
3.735,-0.055
3.740,-0.054
3.745,-0.044
3.750,-0.044
3.755,-0.046
3.760,-0.054
3.765,-0.067
3.770,-0.056
3.775,-0.031
3.780,-0.035
3.785,-0.041
3.790,-0.017
3.795,-0.010
3.800,-0.024
3.805,-0.014
3.810,0.013
3.815,0.024
3.820,0.031
3.825,0.047
3.830,0.044
3.835,0.029
3.840,0.031
3.845,0.034
3.850,0.027
3.855,0.031
3.860,0.035
3.865,0.023
3.870,0.021
3.875,0.031
3.880,0.023
3.885,0.014
3.890,0.020
3.895,0.017
3.900,-0.018
3.905,-0.091
3.910,-0.203
3.915,-0.374
3.920,-0.612
3.925,-0.910
3.930,-1.170
3.935,-1.074
3.940,-0.659
3.945,-0.281
3.950,0.041
3.955,0.249
3.960,0.286
3.965,0.286
3.970,0.294
3.975,0.311
3.980,0.319
3.985,0.314
3.990,0.319
3.995,0.317
4.000,0.300
4.005,0.294
4.010,0.293
4.015,0.269
4.020,0.252
4.025,0.254
4.030,0.240
4.035,0.219
4.040,0.219
4.045,0.204
4.050,0.177
4.055,0.182
4.060,0.188
4.065,0.166
4.070,0.154
4.075,0.159
4.080,0.145
4.085,0.126
4.090,0.132
4.095,0.129
4.100,0.105
4.105,0.097
4.110,0.097
4.115,0.077
4.120,0.061
4.125,0.065
4.130,0.054
4.135,0.031
4.140,0.031
4.145,0.028
4.150,0.009
4.155,0.004
4.160,0.000
4.165,-0.023
4.170,-0.040
4.175,-0.040
4.180,-0.049
4.185,-0.071
4.190,-0.082
4.195,-0.092
4.200,-0.112
4.205,-0.119
4.210,-0.114
4.215,-0.128
4.220,-0.145
4.225,-0.139
4.230,-0.137
4.235,-0.142
4.240,-0.129
4.245,-0.118
4.250,-0.120
4.255,-0.101
4.260,-0.069
4.265,-0.051
4.270,-0.029
4.275,0.000
4.280,0.010
4.285,0.014
4.290,0.035
4.295,0.053
4.300,0.048
4.305,0.051
4.310,0.061
4.315,0.053
4.320,0.053
4.325,0.065
4.330,0.053
4.335,0.036
4.340,0.049
4.345,0.054
4.350,0.033
4.355,0.029
4.360,0.036
4.365,0.027
4.370,0.021
4.375,0.035
4.380,0.034
4.385,0.024
4.390,0.029
4.395,0.032
4.400,0.019
4.405,0.013
4.410,0.015
4.415,-0.002
4.420,-0.008
4.425,0.009
4.430,0.008
4.435,-0.004
4.440,0.006
4.445,0.012
4.450,0.000
4.455,0.003
4.460,0.012
4.465,-0.002
4.470,-0.019
4.475,-0.012
4.480,-0.008
4.485,-0.014
4.490,-0.003
4.495,0.009
4.500,-0.001
4.505,-0.002
4.510,0.010
4.515,0.001
4.520,-0.005
4.525,0.004
4.530,-0.003
4.535,-0.018
4.540,-0.010
4.545,-0.002
4.550,-0.016
4.555,-0.016
4.560,-0.002
4.565,-0.012
4.570,-0.020
4.575,-0.006
4.580,-0.006
4.585,-0.015
4.590,-0.008
4.595,-0.004
4.600,-0.019
4.605,-0.026
4.610,-0.018
4.615,-0.022
4.620,-0.024
4.625,-0.010
4.630,-0.011
4.635,-0.022
4.640,-0.013
4.645,-0.006
4.650,-0.020
4.655,-0.027
4.660,-0.018
4.665,-0.020
4.670,-0.026
4.675,-0.016
4.680,-0.012
4.685,-0.018
4.690,-0.006
4.695,-0.003
4.700,-0.021
4.705,-0.018
4.710,-0.008
4.715,-0.023
4.720,-0.032
4.725,-0.020
4.730,-0.023
4.735,-0.032
4.740,-0.019
4.745,-0.013
4.750,-0.024
4.755,-0.016
4.760,0.002
4.765,-0.004
4.770,-0.012
4.775,-0.010
4.780,-0.020
4.785,-0.034
4.790,-0.031
4.795,-0.032
4.800,-0.043
4.805,-0.039
4.810,-0.032
4.815,-0.047
4.820,-0.061
4.825,-0.050
4.830,-0.049
4.835,-0.065
4.840,-0.059
4.845,-0.039
4.850,-0.043
4.855,-0.037
4.860,-0.010
4.865,-0.017
4.870,-0.035
4.875,-0.020
4.880,-0.004
4.885,0.012
4.890,0.039
4.895,0.052
4.900,0.044
4.905,0.040
4.910,0.041
4.915,0.028
4.920,0.019
4.925,0.030
4.930,0.027
4.935,0.015
4.940,0.028
4.945,0.036
4.950,0.017
4.955,0.009
4.960,0.019
4.965,0.012
4.970,0.012
4.975,0.032
4.980,0.013
4.985,-0.076
4.990,-0.180
4.995,-0.312
5.000,-0.573
5.005,-0.940
5.010,-1.193
5.015,-1.051
5.020,-0.641
5.025,-0.253
5.030,0.089
5.035,0.277
5.040,0.295
5.045,0.297
5.050,0.296
5.055,0.298
5.060,0.315
5.065,0.304
5.070,0.285
5.075,0.287
5.080,0.278
5.085,0.265
5.090,0.272
5.095,0.267
5.100,0.234
5.105,0.221
5.110,0.232
5.115,0.217
5.120,0.194
5.125,0.196
5.130,0.187
5.135,0.166
5.140,0.168
5.145,0.167
5.150,0.143
5.155,0.136
5.160,0.139
5.165,0.112
5.170,0.094
5.175,0.107
5.180,0.106
5.185,0.092
5.190,0.098
5.195,0.091
5.200,0.057
5.205,0.045
5.210,0.046
5.215,0.026
5.220,0.011
5.225,0.019
5.230,0.021
5.235,0.010
5.240,0.003
5.245,-0.010
5.250,-0.034
5.255,-0.047
5.260,-0.057
5.265,-0.077
5.270,-0.086
5.275,-0.078
5.280,-0.082
5.285,-0.108
5.290,-0.119
5.295,-0.121
5.300,-0.138
5.305,-0.139
5.310,-0.123
5.315,-0.121
5.320,-0.121
5.325,-0.108
5.330,-0.104
5.335,-0.099
5.340,-0.060
5.345,-0.027
5.350,-0.030
5.355,-0.022
5.360,0.001
5.365,0.006
5.370,0.018
5.375,0.049
5.380,0.060
5.385,0.052
5.390,0.063
5.395,0.062
5.400,0.035
5.405,0.036
5.410,0.053
5.415,0.045
5.420,0.035
5.425,0.040
5.430,0.040
5.435,0.026
5.440,0.028
5.445,0.032
5.450,0.014
5.455,0.007
5.460,0.020
5.465,0.015
5.470,0.000
5.475,0.013
5.480,0.017
5.485,-0.002
5.490,0.006
5.495,0.013
5.500,-0.008
5.505,-0.009
5.510,0.003
5.515,-0.011
5.520,-0.015
5.525,0.014
5.530,0.025
5.535,0.006
5.540,0.004
5.545,0.012
5.550,-0.006
5.555,-0.016
5.560,-0.002
5.565,-0.001
5.570,-0.006
5.575,0.009
5.580,0.016
5.585,0.003
5.590,0.005
5.595,0.009
5.600,-0.003
5.605,-0.007
5.610,0.002
5.615,-0.003
5.620,-0.009
5.625,0.001
5.630,-0.005
5.635,-0.019
5.640,-0.005
5.645,0.010
5.650,-0.008
5.655,-0.016
5.660,-0.001
5.665,-0.011
5.670,-0.027
5.675,-0.017
5.680,-0.012
5.685,-0.018
5.690,-0.006
5.695,0.002
5.700,-0.012
5.705,-0.018
5.710,-0.012
5.715,-0.022
5.720,-0.029
5.725,-0.007
5.730,0.008
5.735,-0.012
5.740,-0.022
5.745,-0.020
5.750,-0.034
5.755,-0.032
5.760,-0.011
5.765,-0.010
5.770,-0.018
5.775,-0.009
5.780,-0.010
5.785,-0.022
5.790,-0.018
5.795,-0.014
5.800,-0.023
5.805,-0.017
5.810,-0.002
5.815,-0.014
5.820,-0.031
5.825,-0.029
5.830,-0.031
5.835,-0.040
5.840,-0.034
5.845,-0.033
5.850,-0.047
5.855,-0.045
5.860,-0.030
5.865,-0.050
5.870,-0.081
5.875,-0.074
5.880,-0.055
5.885,-0.052
5.890,-0.046
5.895,-0.026
5.900,-0.014
5.905,-0.015
5.910,-0.012
5.915,-0.014
5.920,-0.005
5.925,0.025
5.930,0.030
5.935,0.018
5.940,0.026
5.945,0.036
5.950,0.026
5.955,0.025
5.960,0.033
5.965,0.021
5.970,0.011
5.975,0.023
5.980,0.026
5.985,0.017
5.990,0.023
5.995,0.027
6.000,0.012
6.005,0.007
6.010,0.017
6.015,0.002
6.020,-0.066
6.025,-0.165
6.030,-0.309
6.035,-0.547
6.040,-0.863
6.045,-1.153
6.050,-1.136
6.055,-0.749
6.060,-0.327
6.065,0.020
6.070,0.257
6.075,0.304
6.080,0.293
6.085,0.291
6.090,0.284
6.095,0.293
6.100,0.299
6.105,0.298
6.110,0.301
6.115,0.287
6.120,0.268
6.125,0.271
6.130,0.267
6.135,0.244
6.140,0.235
6.145,0.232
6.150,0.212
6.155,0.201
6.160,0.204
6.165,0.189
6.170,0.168
6.175,0.165
6.180,0.162
6.185,0.143
6.190,0.135
6.195,0.139
6.200,0.126
6.205,0.112
6.210,0.119
6.215,0.107
6.220,0.083
6.225,0.087
6.230,0.089
6.235,0.064
6.240,0.053
6.245,0.055
6.250,0.035
6.255,0.021
6.260,0.025
6.265,0.014
6.270,-0.003
6.275,-0.003
6.280,-0.007
6.285,-0.027
6.290,-0.037
6.295,-0.039
6.300,-0.062
6.305,-0.083
6.310,-0.084
6.315,-0.094
6.320,-0.110
6.325,-0.107
6.330,-0.113
6.335,-0.135
6.340,-0.138
6.345,-0.135
6.350,-0.148
6.355,-0.142
6.360,-0.109
6.365,-0.094
6.370,-0.086
6.375,-0.063
6.380,-0.045
6.385,-0.035
6.390,-0.007
6.395,0.020
6.400,0.024
6.405,0.034
6.410,0.056
6.415,0.055
6.420,0.045
6.425,0.060
6.430,0.066
6.435,0.049
6.440,0.052
6.445,0.061
6.450,0.046
6.455,0.042
6.460,0.055
6.465,0.044
6.470,0.028
6.475,0.040
6.480,0.042
6.485,0.028
6.490,0.028
6.495,0.030
6.500,0.019
6.505,0.015
6.510,0.020
6.515,0.012
6.520,0.001
6.525,0.008
6.530,0.010
6.535,-0.004
6.540,0.000
6.545,0.009
6.550,-0.005
6.555,-0.012
6.560,0.003
6.565,0.003
6.570,-0.009
6.575,-0.003
6.580,0.002
6.585,-0.002
6.590,0.005
6.595,0.013
6.600,-0.001
6.605,-0.009
6.610,0.004
6.615,0.003
6.620,-0.008
6.625,-0.002
6.630,0.003
6.635,-0.009
6.640,-0.006
6.645,0.004
6.650,-0.007
6.655,-0.011
6.660,0.002
6.665,-0.005
6.670,-0.018
6.675,-0.003
6.680,0.006
6.685,-0.009
6.690,-0.008
6.695,0.001
6.700,-0.010
6.705,-0.016
6.710,-0.005
6.715,-0.010
6.720,-0.022
6.725,-0.011
6.730,-0.006
6.735,-0.020
6.740,-0.017
6.745,-0.005
6.750,-0.013
6.755,-0.019
6.760,-0.007
6.765,-0.008
6.770,-0.024
6.775,-0.022
6.780,-0.016
6.785,-0.020
6.790,-0.013
6.795,0.000
6.800,-0.012
6.805,-0.021
6.810,-0.011
6.815,-0.015
6.820,-0.026
6.825,-0.016
6.830,-0.011
6.835,-0.023
6.840,-0.018
6.845,-0.009
6.850,-0.019
6.855,-0.023
6.860,-0.010
6.865,-0.010
6.870,-0.018
6.875,-0.018
6.880,-0.024
6.885,-0.034
6.890,-0.029
6.895,-0.024
6.900,-0.040
6.905,-0.055
6.910,-0.046
6.915,-0.042
6.920,-0.052
6.925,-0.052
6.930,-0.060
6.935,-0.073
6.940,-0.055
6.945,-0.033
6.950,-0.039
6.955,-0.033
6.960,-0.009
6.965,-0.012
6.970,-0.024
6.975,-0.006
6.980,0.017
6.985,0.021
6.990,0.035
6.995,0.051
7.000,0.039
7.005,0.027
7.010,0.036
7.015,0.031
7.020,0.018
7.025,0.027
7.030,0.033
7.035,0.017
7.040,0.015
7.045,0.025
7.050,0.015
7.055,0.007
7.060,0.019
7.065,0.018
7.070,-0.003
7.075,-0.049
7.080,-0.153
7.085,-0.312
7.090,-0.512
7.095,-0.792
7.100,-1.120
7.105,-1.174
7.110,-0.818
7.115,-0.411
7.120,-0.068
7.125,0.219
7.130,0.298
7.135,0.278
7.140,0.295
7.145,0.312
7.150,0.307
7.155,0.306
7.160,0.315
7.165,0.307
7.170,0.291
7.175,0.294
7.180,0.291
7.185,0.267
7.190,0.252
7.195,0.248
7.200,0.234
7.205,0.223
7.210,0.223
7.215,0.208
7.220,0.186
7.225,0.186
7.230,0.185
7.235,0.163
7.240,0.156
7.245,0.161
7.250,0.142
7.255,0.126
7.260,0.130
7.265,0.117
7.270,0.095
7.275,0.099
7.280,0.100
7.285,0.080
7.290,0.070
7.295,0.067
7.300,0.052
7.305,0.043
7.310,0.042
7.315,0.027
7.320,0.005
7.325,0.004
7.330,-0.001
7.335,-0.026
7.340,-0.034
7.345,-0.029
7.350,-0.049
7.355,-0.069
7.360,-0.070
7.365,-0.087
7.370,-0.112
7.375,-0.110
7.380,-0.108
7.385,-0.126
7.390,-0.131
7.395,-0.126
7.400,-0.140
7.405,-0.150
7.410,-0.134
7.415,-0.123
7.420,-0.119
7.425,-0.098
7.430,-0.076
7.435,-0.067
7.440,-0.040
7.445,-0.004
7.450,0.008
7.455,0.015
7.460,0.039
7.465,0.046
7.470,0.039
7.475,0.050
7.480,0.064
7.485,0.061
7.490,0.062
7.495,0.069
7.500,0.060
7.505,0.049
7.510,0.053
7.515,0.048
7.520,0.038
7.525,0.043
7.530,0.046
7.535,0.033
7.540,0.030
7.545,0.036
7.550,0.027
7.555,0.021
7.560,0.031
7.565,0.024
7.570,0.010
7.575,0.015
7.580,0.013
7.585,-0.004
7.590,-0.001
7.595,0.013
7.600,0.007
7.605,0.001
7.610,0.013
7.615,0.015
7.620,0.004
7.625,0.008
7.630,0.011
7.635,-0.005
7.640,-0.010
7.645,0.000
7.650,-0.004
7.655,-0.009
7.660,0.005
7.665,0.004
7.670,-0.007
7.675,0.002
7.680,0.010
7.685,-0.003
7.690,-0.006
7.695,0.001
7.700,-0.009
7.705,-0.016
7.710,-0.003
7.715,-0.001
7.720,-0.012
7.725,-0.006
7.730,-0.002
7.735,-0.021
7.740,-0.022
7.745,-0.006
7.750,-0.010
7.755,-0.016
7.760,-0.005
7.765,-0.012
7.770,-0.026
7.775,-0.009
7.780,0.000
7.785,-0.017
7.790,-0.021
7.795,-0.013
7.800,-0.020
7.805,-0.027
7.810,-0.017
7.815,-0.018
7.820,-0.029
7.825,-0.021
7.830,-0.012
7.835,-0.025
7.840,-0.024
7.845,-0.006
7.850,-0.011
7.855,-0.017
7.860,-0.006
7.865,-0.015
7.870,-0.031
7.875,-0.020
7.880,-0.010
7.885,-0.024
7.890,-0.029
7.895,-0.019
7.900,-0.020
7.905,-0.019
7.910,-0.007
7.915,-0.007
7.920,-0.020
7.925,-0.017
7.930,-0.013
7.935,-0.029
7.940,-0.031
7.945,-0.015
7.950,-0.017
7.955,-0.018
7.960,-0.004
7.965,-0.005
7.970,-0.023
7.975,-0.025
7.980,-0.033
7.985,-0.056
7.990,-0.049
7.995,-0.020
8.000,-0.025
8.005,-0.050
8.010,-0.045
8.015,-0.037
8.020,-0.055
8.025,-0.069
8.030,-0.072
8.035,-0.064
8.040,-0.044
8.045,-0.031
8.050,-0.029
8.055,-0.021
8.060,-0.006
8.065,-0.007
8.070,-0.012
8.075,0.007
8.080,0.031
8.085,0.030
8.090,0.034
8.095,0.044
8.100,0.030
8.105,0.021
8.110,0.035
8.115,0.037
8.120,0.024
8.125,0.020
8.130,0.023
8.135,0.025
8.140,0.033
8.145,0.036
8.150,0.019
8.155,0.005
8.160,0.018
8.165,0.017
8.170,-0.040
8.175,-0.136
8.180,-0.258
8.185,-0.458
8.190,-0.752
8.195,-1.078
8.200,-1.158
8.205,-0.836
8.210,-0.424
8.215,-0.075
8.220,0.206
8.225,0.294
8.230,0.286
8.235,0.293
8.240,0.295
8.245,0.305
8.250,0.300
8.255,0.285
8.260,0.299
8.265,0.305
8.270,0.280
8.275,0.271
8.280,0.270
8.285,0.250
8.290,0.240
8.295,0.236
8.300,0.218
8.305,0.207
8.310,0.209
8.315,0.196
8.320,0.172
8.325,0.168
8.330,0.169
8.335,0.147
8.340,0.138
8.345,0.141
8.350,0.122
8.355,0.106
8.360,0.109
8.365,0.099
8.370,0.084
8.375,0.088
8.380,0.086
8.385,0.064
8.390,0.055
8.395,0.062
8.400,0.048
8.405,0.022
8.410,0.025
8.415,0.028
8.420,0.011
8.425,0.003
8.430,-0.008
8.435,-0.038
8.440,-0.052
8.445,-0.048
8.450,-0.058
8.455,-0.073
8.460,-0.073
8.465,-0.086
8.470,-0.113
8.475,-0.120
8.480,-0.124
8.485,-0.144
8.490,-0.151
8.495,-0.137
8.500,-0.138
8.505,-0.139
8.510,-0.118
8.515,-0.108
8.520,-0.104
8.525,-0.080
8.530,-0.056
8.535,-0.050
8.540,-0.026
8.545,0.012
8.550,0.026
8.555,0.038
8.560,0.061
8.565,0.059
8.570,0.045
8.575,0.055
8.580,0.065
8.585,0.050
8.590,0.048
8.595,0.066
8.600,0.060
8.605,0.047
8.610,0.053
8.615,0.049
8.620,0.037
8.625,0.039
8.630,0.041
8.635,0.029
8.640,0.025
8.645,0.033
8.650,0.021
8.655,0.008
8.660,0.021
8.665,0.020
8.670,0.010
8.675,0.021
8.680,0.023
8.685,-0.004
8.690,-0.007
8.695,0.011
8.700,0.002
8.705,-0.013
8.710,-0.006
8.715,-0.004
8.720,-0.007
8.725,0.004
8.730,0.010
8.735,-0.004
8.740,-0.006
8.745,0.013
8.750,0.002
8.755,-0.017
8.760,-0.001
8.765,0.007
8.770,-0.003
8.775,0.002
8.780,0.006
8.785,-0.002
8.790,0.002
8.795,0.012
8.800,-0.005
8.805,-0.017
8.810,0.005
8.815,0.011
8.820,-0.009
8.825,-0.007
8.830,0.000
8.835,-0.020
8.840,-0.025
8.845,-0.006
8.850,-0.011
8.855,-0.019
8.860,-0.002
8.865,0.003
8.870,-0.009
8.875,-0.003
8.880,-0.005
8.885,-0.022
8.890,-0.016
8.895,-0.001
8.900,-0.011
8.905,-0.018
8.910,-0.007
8.915,-0.013
8.920,-0.025
8.925,-0.013
8.930,-0.007
8.935,-0.021
8.940,-0.024
8.945,-0.012
8.950,-0.011
8.955,-0.015
8.960,0.000
8.965,0.004
8.970,-0.021
8.975,-0.026
8.980,-0.013
8.985,-0.021
8.990,-0.024
8.995,-0.005
9.000,-0.009
9.005,-0.026
9.010,-0.025
9.015,-0.036
9.020,-0.049
9.025,-0.032
9.030,-0.014
9.035,-0.030
9.040,-0.054
9.045,-0.053
9.050,-0.067
9.055,-0.086
9.060,-0.063
9.065,-0.043
9.070,-0.061
9.075,-0.059
9.080,-0.021
9.085,-0.009
9.090,-0.021
9.095,-0.010
9.100,0.000
9.105,0.001
9.110,0.020
9.115,0.034
9.120,0.023
9.125,0.028
9.130,0.043
9.135,0.024
9.140,0.013
9.145,0.023
9.150,0.013
9.155,0.007
9.160,0.025
9.165,0.030
9.170,0.016
9.175,0.012
9.180,0.009
9.185,0.003
9.190,0.016
9.195,0.018
9.200,-0.032
9.205,-0.119
9.210,-0.231
9.215,-0.432
9.220,-0.765
9.225,-1.112
9.230,-1.171
9.235,-0.845
9.240,-0.432
9.245,-0.061
9.250,0.228
9.255,0.303
9.260,0.290
9.265,0.298
9.270,0.283
9.275,0.282
9.280,0.299
9.285,0.295
9.290,0.284
9.295,0.283
9.300,0.279
9.305,0.266
9.310,0.258
9.315,0.240
9.320,0.215
9.325,0.221
9.330,0.230
9.335,0.207
9.340,0.185
9.345,0.189
9.350,0.181
9.355,0.162
9.360,0.158
9.365,0.151
9.370,0.133
9.375,0.127
9.380,0.121
9.385,0.101
9.390,0.094
9.395,0.103
9.400,0.096
9.405,0.078
9.410,0.078
9.415,0.074
9.420,0.050
9.425,0.044
9.430,0.056
9.435,0.031
9.440,0.007
9.445,0.017
9.450,0.012
9.455,-0.005
9.460,-0.006
9.465,-0.016
9.470,-0.043
9.475,-0.054
9.480,-0.052
9.485,-0.064
9.490,-0.090
9.495,-0.105
9.500,-0.110
9.505,-0.111
9.510,-0.100
9.515,-0.108
9.520,-0.136
9.525,-0.134
9.530,-0.113
9.535,-0.115
9.540,-0.119
9.545,-0.107
9.550,-0.102
9.555,-0.090
9.560,-0.050
9.565,-0.022
9.570,-0.017
9.575,0.002
9.580,0.024
9.585,0.026
9.590,0.033
9.595,0.048
9.600,0.045
9.605,0.035
9.610,0.042
9.615,0.048
9.620,0.051
9.625,0.061
9.630,0.064
9.635,0.046
9.640,0.030
9.645,0.039
9.650,0.040
9.655,0.024
9.660,0.026
9.665,0.025
9.670,0.009
9.675,0.010
9.680,0.018
9.685,0.006
9.690,0.002
9.695,0.015
9.700,0.012
9.705,0.000
9.710,0.006
9.715,0.004
9.720,-0.011
9.725,-0.008
9.730,-0.003
9.735,-0.020
9.740,-0.020
9.745,0.000
9.750,-0.003
9.755,-0.006
9.760,0.011
9.765,0.007
9.770,-0.009
9.775,-0.001
9.780,0.011
9.785,-0.003
9.790,-0.012
9.795,-0.001
9.800,0.000
9.805,-0.004
9.810,0.009
9.815,0.011
9.820,-0.005
9.825,-0.004
9.830,0.002
9.835,-0.008
9.840,-0.008
9.845,0.005
9.850,-0.001
9.855,-0.015
9.860,-0.008
9.865,-0.004
9.870,-0.017
9.875,-0.017
9.880,-0.009
9.885,-0.011
9.890,-0.005
9.895,0.006
9.900,-0.003
9.905,-0.016
9.910,-0.005
9.915,-0.003
9.920,-0.018
9.925,-0.013
9.930,-0.007
9.935,-0.020
9.940,-0.018
9.945,-0.006
9.950,-0.020
9.955,-0.030
9.960,-0.008
9.965,0.006
9.970,-0.010
9.975,-0.016
9.980,-0.010
9.985,-0.025
9.990,-0.029
9.995,-0.009
10.000,-0.008
10.005,-0.016
10.010,-0.003
10.015,0.000
10.020,-0.022
10.025,-0.026
10.030,-0.019
10.035,-0.034
10.040,-0.036
10.045,-0.017
10.050,-0.022
10.055,-0.036
10.060,-0.031
10.065,-0.042
10.070,-0.058
10.075,-0.050
10.080,-0.049
10.085,-0.073
10.090,-0.085
10.095,-0.064
10.100,-0.047
10.105,-0.043
10.110,-0.022
10.115,-0.008
10.120,-0.018
10.125,-0.018
10.130,-0.003
10.135,0.007
10.140,0.021
10.145,0.039
10.150,0.037
10.155,0.024
10.160,0.030
10.165,0.032
10.170,0.020
10.175,0.030
10.180,0.042
10.185,0.029
10.190,0.022
10.195,0.026
10.200,0.015
10.205,0.001
10.210,0.013
10.215,0.024
10.220,0.014
10.225,-0.004
10.230,-0.070
10.235,-0.204
10.240,-0.365
10.245,-0.585
10.250,-0.908
10.255,-1.182
10.260,-1.071
10.265,-0.650
10.270,-0.280
10.275,0.054
10.280,0.281
10.285,0.295
10.290,0.286
10.295,0.308
10.300,0.302
10.305,0.290
10.310,0.297
10.315,0.305
10.320,0.296
10.325,0.288
10.330,0.284
10.335,0.266
10.340,0.251
10.345,0.254
10.350,0.240
10.355,0.212
10.360,0.207
10.365,0.201
10.370,0.179
10.375,0.174
10.380,0.180
10.385,0.164
10.390,0.148
10.395,0.160
10.400,0.163
10.405,0.138
10.410,0.130
10.415,0.125
10.420,0.099
10.425,0.090
10.430,0.091
10.435,0.074
10.440,0.060
10.445,0.062
10.450,0.055
10.455,0.041
10.460,0.041
10.465,0.037
10.470,0.024
10.475,0.026
10.480,0.023
10.485,-0.004
10.490,-0.024
10.495,-0.025
10.500,-0.039
10.505,-0.064
10.510,-0.066
10.515,-0.066
10.520,-0.089
10.525,-0.107
10.530,-0.111
10.535,-0.127
10.540,-0.139
10.545,-0.132
10.550,-0.133
10.555,-0.148
10.560,-0.146
10.565,-0.128
10.570,-0.118
10.575,-0.098
10.580,-0.071
10.585,-0.066
10.590,-0.055
10.595,-0.020
10.600,-0.001
10.605,0.003
10.610,0.027
10.615,0.047
10.620,0.045
10.625,0.053
10.630,0.072
10.635,0.072
10.640,0.060
10.645,0.062
10.650,0.059
10.655,0.044
10.660,0.050
10.665,0.056
10.670,0.031
10.675,0.024
10.680,0.043
10.685,0.036
10.690,0.023
10.695,0.038
10.700,0.037
10.705,0.019
10.710,0.022
10.715,0.028
10.720,0.017
10.725,0.015
10.730,0.019
10.735,0.009
10.740,0.004
10.745,0.014
10.750,0.008
10.755,-0.012
10.760,-0.001
10.765,0.010
10.770,-0.005
10.775,-0.004
10.780,0.004
10.785,-0.005
10.790,-0.004
10.795,0.010
10.800,0.006
10.805,-0.006
10.810,0.007
10.815,0.014
10.820,-0.006
10.825,-0.017
10.830,-0.009
10.835,-0.006
10.840,-0.004
10.845,0.011
10.850,0.012
10.855,-0.005
10.860,-0.001
10.865,0.005
10.870,-0.007
10.875,-0.008
10.880,-0.002
10.885,-0.014
10.890,-0.017
10.895,-0.003
10.900,-0.010
10.905,-0.024
10.910,-0.015
10.915,-0.009
10.920,-0.014
10.925,-0.008
10.930,-0.001
10.935,-0.012
10.940,-0.023
10.945,-0.013
10.950,-0.011
10.955,-0.020
10.960,-0.010
10.965,-0.001
10.970,-0.019
10.975,-0.028
10.980,-0.021
10.985,-0.026
10.990,-0.024
10.995,-0.009
11.000,-0.012
11.005,-0.022
11.010,-0.010
11.015,-0.002
11.020,-0.018
11.025,-0.020
11.030,-0.009
11.035,-0.014
11.040,-0.020
11.045,-0.008
11.050,-0.010
11.055,-0.028
11.060,-0.023
11.065,-0.010
11.070,-0.017
11.075,-0.021
11.080,-0.019
11.085,-0.037
11.090,-0.049
11.095,-0.030
11.100,-0.026
11.105,-0.047
11.110,-0.045
11.115,-0.041
11.120,-0.066
11.125,-0.082
11.130,-0.075
11.135,-0.066
11.140,-0.051
11.145,-0.032
11.150,-0.029
11.155,-0.030
11.160,-0.016
11.165,-0.009
11.170,-0.021
11.175,-0.011
11.180,0.019
11.185,0.029
11.190,0.031
11.195,0.043
11.200,0.040
11.205,0.028
11.210,0.033
11.215,0.038
11.220,0.025
11.225,0.021
11.230,0.029
11.235,0.021
11.240,0.014
11.245,0.029
11.250,0.024
11.255,-0.001
11.260,0.005
11.265,0.020
11.270,-0.007
11.275,-0.079
11.280,-0.188
11.285,-0.353
11.290,-0.595
11.295,-0.902
11.300,-1.175
11.305,-1.105
11.310,-0.679
11.315,-0.264
11.320,0.066
11.325,0.279
11.330,0.312
11.335,0.299
11.340,0.295
11.345,0.308
11.350,0.319
11.355,0.307
11.360,0.306
11.365,0.304
11.370,0.284
11.375,0.277
11.380,0.283
11.385,0.267
11.390,0.243
11.395,0.241
11.400,0.236
11.405,0.212
11.410,0.206
11.415,0.208
11.420,0.186
11.425,0.171
11.430,0.172
11.435,0.160
11.440,0.150
11.445,0.155
11.450,0.144
11.455,0.122
11.460,0.118
11.465,0.118
11.470,0.100
11.475,0.088
11.480,0.090
11.485,0.075
11.490,0.053
11.495,0.052
11.500,0.050
11.505,0.033
11.510,0.031
11.515,0.027
11.520,0.000
11.525,-0.009
11.530,0.002
11.535,-0.013
11.540,-0.037
11.545,-0.038
11.550,-0.045
11.555,-0.071
11.560,-0.085
11.565,-0.095
11.570,-0.117
11.575,-0.122
11.580,-0.113
11.585,-0.125
11.590,-0.142
11.595,-0.137
11.600,-0.135
11.605,-0.145
11.610,-0.138
11.615,-0.119
11.620,-0.108
11.625,-0.090
11.630,-0.059
11.635,-0.046
11.640,-0.041
11.645,-0.014
11.650,0.012
11.655,0.022
11.660,0.042
11.665,0.063
11.670,0.062
11.675,0.064
11.680,0.074
11.685,0.064
11.690,0.051
11.695,0.058
11.700,0.056
11.705,0.042
11.710,0.046
11.715,0.054
11.720,0.043
11.725,0.038
11.730,0.044
11.735,0.032
11.740,0.025
11.745,0.036
11.750,0.035
11.755,0.022
11.760,0.022
11.765,0.025
11.770,0.014
11.775,0.012
11.780,0.022
11.785,0.016
11.790,0.004
11.795,0.010
11.800,0.012
11.805,-0.002
11.810,-0.002
11.815,0.005
11.820,-0.007
11.825,-0.015
11.830,-0.007
11.835,-0.009
11.840,-0.010
11.845,0.007
11.850,0.007
11.855,-0.010
11.860,-0.004
11.865,0.010
11.870,0.003
11.875,0.003
11.880,0.013
11.885,-0.004
11.890,-0.018
11.895,-0.002
11.900,0.005
11.905,-0.005
11.910,0.000
11.915,0.003
11.920,-0.016
11.925,-0.021
11.930,-0.003
11.935,-0.005
11.940,-0.014
11.945,-0.003
11.950,-0.005
11.955,-0.027
11.960,-0.028
11.965,-0.017
11.970,-0.022
11.975,-0.021
11.980,-0.008
11.985,-0.014
11.990,-0.021
11.995,-0.007
12.000,-0.003
12.005,-0.021
12.010,-0.021
12.015,-0.011
12.020,-0.022
12.025,-0.024
12.030,-0.007
12.035,-0.009
12.040,-0.022
12.045,-0.017
12.050,-0.015
12.055,-0.027
12.060,-0.019
12.065,-0.007
12.070,-0.018
12.075,-0.024
12.080,-0.017
12.085,-0.024
12.090,-0.025
12.095,-0.011
12.100,-0.009
12.105,-0.023
12.110,-0.026
12.115,-0.017
12.120,-0.020
12.125,-0.022
12.130,-0.008
12.135,-0.013
12.140,-0.031
12.145,-0.023
12.150,-0.018
12.155,-0.038
12.160,-0.037
12.165,-0.027
12.170,-0.042
12.175,-0.054
12.180,-0.042
12.185,-0.049
12.190,-0.071
12.195,-0.070
12.200,-0.060
12.205,-0.057
12.210,-0.045
12.215,-0.029
12.220,-0.023
12.225,-0.020
12.230,-0.014
12.235,-0.013
12.240,-0.009
12.245,0.019
12.250,0.042
12.255,0.035
12.260,0.037
12.265,0.049
12.270,0.038
12.275,0.025
12.280,0.026
12.285,0.018
12.290,0.014
12.295,0.026
12.300,0.030
12.305,0.020
12.310,0.023
12.315,0.033
12.320,0.025
12.325,0.011
12.330,0.014
12.335,0.015
12.340,-0.008
12.345,-0.070
12.350,-0.183
12.355,-0.352
12.360,-0.592
12.365,-0.917
12.370,-1.196
12.375,-1.089
12.380,-0.648
12.385,-0.259
12.390,0.071
12.395,0.296
12.400,0.316
12.405,0.287
12.410,0.292
12.415,0.305
12.420,0.305
12.425,0.302
12.430,0.308
12.435,0.296
12.440,0.271
12.445,0.275
12.450,0.277
12.455,0.252
12.460,0.243
12.465,0.248
12.470,0.225
12.475,0.204
12.480,0.210
12.485,0.202
12.490,0.181
12.495,0.185
12.500,0.181
12.505,0.151
12.510,0.140
12.515,0.143
12.520,0.129
12.525,0.127
12.530,0.131
12.535,0.105
12.540,0.080
12.545,0.087
12.550,0.085
12.555,0.059
12.560,0.055
12.565,0.063
12.570,0.046
12.575,0.035
12.580,0.045
12.585,0.027
12.590,-0.002
12.595,0.001
12.600,0.000
12.605,-0.024
12.610,-0.035
12.615,-0.033
12.620,-0.049
12.625,-0.069
12.630,-0.077
12.635,-0.094
12.640,-0.116
12.645,-0.114
12.650,-0.107
12.655,-0.130
12.660,-0.149
12.665,-0.145
12.670,-0.150
12.675,-0.145
12.680,-0.125
12.685,-0.119
12.690,-0.108
12.695,-0.074
12.700,-0.051
12.705,-0.049
12.710,-0.035
12.715,-0.009
12.720,0.006
12.725,0.023
12.730,0.049
12.735,0.054
12.740,0.049
12.745,0.065
12.750,0.071
12.755,0.050
12.760,0.045
12.765,0.054
12.770,0.043
12.775,0.036
12.780,0.050
12.785,0.048
12.790,0.037
12.795,0.044
12.800,0.051
12.805,0.036
12.810,0.024
12.815,0.028
12.820,0.020
12.825,0.011
12.830,0.018
12.835,0.017
12.840,0.009
12.845,0.013
12.850,0.010
12.855,-0.001
12.860,0.007
12.865,0.013
12.870,-0.005
12.875,-0.014
12.880,0.007
12.885,0.011
12.890,-0.004
12.895,0.001
12.900,-0.008
12.905,-0.028
12.910,-0.008
12.915,0.014
12.920,-0.001
12.925,-0.012
12.930,0.010
12.935,0.018
12.940,-0.004
12.945,0.000
12.950,0.017
12.955,0.000
12.960,-0.010
12.965,0.002
12.970,-0.001
12.975,-0.003
12.980,0.004
12.985,-0.007
12.990,-0.016
12.995,-0.001
13.000,0.007
13.005,-0.006
13.010,-0.007
13.015,-0.001
13.020,-0.011
13.025,-0.022
13.030,-0.011
13.035,-0.010
13.040,-0.025
13.045,-0.010
13.050,0.004
13.055,-0.012
13.060,-0.023
13.065,-0.018
13.070,-0.018
13.075,-0.015
13.080,-0.006
13.085,-0.009
13.090,-0.021
13.095,-0.018
13.100,-0.007
13.105,-0.011
13.110,-0.018
13.115,-0.006
13.120,-0.008
13.125,-0.019
13.130,-0.005
13.135,-0.011
13.140,-0.038
13.145,-0.027
13.150,-0.007
13.155,-0.016
13.160,-0.019
13.165,-0.009
13.170,-0.020
13.175,-0.032
13.180,-0.024
13.185,-0.035
13.190,-0.059
13.195,-0.045
13.200,-0.036
13.205,-0.062
13.210,-0.072
13.215,-0.070
13.220,-0.065
13.225,-0.048
13.230,-0.039
13.235,-0.049
13.240,-0.046
13.245,-0.020
13.250,-0.013
13.255,-0.020
13.260,-0.001
13.265,0.018
13.270,0.019
13.275,0.030
13.280,0.046
13.285,0.041
13.290,0.031
13.295,0.026
13.300,0.019
13.305,0.014
13.310,0.013
13.315,0.016
13.320,0.013
13.325,0.012
13.330,0.023
13.335,0.022
13.340,0.006
13.345,0.007
13.350,0.006
13.355,-0.009
13.360,0.005
13.365,-0.019
13.370,-0.135
13.375,-0.272
13.380,-0.456
13.385,-0.768
13.390,-1.127
13.395,-1.187
13.400,-0.809
13.405,-0.379
13.410,-0.053
13.415,0.227
13.420,0.321
13.425,0.295
13.430,0.296
13.435,0.289
13.440,0.275
13.445,0.288
13.450,0.298
13.455,0.285
13.460,0.286
13.465,0.289
13.470,0.266
13.475,0.251
13.480,0.255
13.485,0.243
13.490,0.223
13.495,0.214
13.500,0.193
13.505,0.173
13.510,0.175
13.515,0.175
13.520,0.161
13.525,0.150
13.530,0.159
13.535,0.149
13.540,0.119
13.545,0.118
13.550,0.121
13.555,0.104
13.560,0.095
13.565,0.090
13.570,0.068
13.575,0.057
13.580,0.071
13.585,0.069
13.590,0.044
13.595,0.039
13.600,0.040
13.605,0.012
13.610,-0.003
13.615,0.014
13.620,0.015
13.625,-0.016
13.630,-0.034
13.635,-0.042
13.640,-0.065
13.645,-0.070
13.650,-0.070
13.655,-0.095
13.660,-0.099
13.665,-0.095
13.670,-0.120
13.675,-0.126
13.680,-0.120
13.685,-0.143
13.690,-0.159
13.695,-0.142
13.700,-0.126
13.705,-0.115
13.710,-0.082
13.715,-0.067
13.720,-0.083
13.725,-0.067
13.730,-0.015
13.735,0.000
13.740,-0.019
13.745,0.003
13.750,0.045
13.755,0.049
13.760,0.057
13.765,0.064
13.770,0.037
13.775,0.040
13.780,0.065
13.785,0.062
13.790,0.051
13.795,0.048
13.800,0.046
13.805,0.039
13.810,0.036
13.815,0.040
13.820,0.037
13.825,0.033
13.830,0.039
13.835,0.025
13.840,0.010
13.845,0.025
13.850,0.029
13.855,0.013
13.860,0.010
13.865,0.008
13.870,-0.004
13.875,-0.005
13.880,0.005
13.885,0.001
13.890,-0.015
13.895,-0.004
13.900,0.008
13.905,-0.011
13.910,-0.014
13.915,-0.006
13.920,-0.013
13.925,-0.005
13.930,0.015
13.935,0.000
13.940,-0.029
13.945,-0.009
13.950,0.018
13.955,0.007
13.960,-0.005
13.965,-0.004
13.970,0.003
13.975,0.000
13.980,-0.005
13.985,-0.004
13.990,-0.003
13.995,0.005
14.000,0.002
14.005,-0.015
14.010,-0.013
14.015,0.003
14.020,-0.002
14.025,-0.013
14.030,0.001
14.035,0.006
14.040,-0.009
14.045,-0.011
14.050,-0.015
14.055,-0.031
14.060,-0.027
14.065,-0.009
14.070,-0.023
14.075,-0.027
14.080,0.004
14.085,0.009
14.090,-0.002
14.095,0.000
14.100,-0.008
14.105,-0.032
14.110,-0.032
14.115,-0.010
14.120,-0.014
14.125,-0.022
14.130,-0.007
14.135,-0.002
14.140,-0.017
14.145,-0.011
14.150,-0.008
14.155,-0.027
14.160,-0.026
14.165,-0.009
14.170,-0.015
14.175,-0.022
14.180,-0.009
14.185,-0.010
14.190,-0.030
14.195,-0.032
14.200,-0.030
14.205,-0.042
14.210,-0.042
14.215,-0.034
14.220,-0.046
14.225,-0.051
14.230,-0.036
14.235,-0.041
14.240,-0.073
14.245,-0.077
14.250,-0.050
14.255,-0.041
14.260,-0.035
14.265,-0.025
14.270,-0.028
14.275,-0.023
14.280,-0.005
14.285,0.000
14.290,0.004
14.295,0.021
14.300,0.034
14.305,0.030
14.310,0.030
14.315,0.044
14.320,0.039
14.325,0.025
14.330,0.031
14.335,0.035
14.340,0.020
14.345,0.014
14.350,0.016
14.355,0.008
14.360,0.014
14.365,0.030
14.370,0.016
14.375,-0.004
14.380,0.009
14.385,0.006
14.390,-0.087
14.395,-0.228
14.400,-0.393
14.405,-0.648
14.410,-0.976
14.415,-1.186
14.420,-1.006
14.425,-0.556
14.430,-0.155
14.435,0.160
14.440,0.310
14.445,0.309
14.450,0.302
14.455,0.285
14.460,0.286
14.465,0.307
14.470,0.299
14.475,0.290
14.480,0.303
14.485,0.289
14.490,0.258
14.495,0.259
14.500,0.258
14.505,0.230
14.510,0.219
14.515,0.220
14.520,0.203
14.525,0.188
14.530,0.194
14.535,0.182
14.540,0.161
14.545,0.170
14.550,0.170
14.555,0.143
14.560,0.134
14.565,0.138
14.570,0.118
14.575,0.095
14.580,0.097
14.585,0.098
14.590,0.079
14.595,0.075
14.600,0.079
14.605,0.059
14.610,0.047
14.615,0.058
14.620,0.045
14.625,0.016
14.630,0.013
14.635,0.009
14.640,-0.008
14.645,-0.003
14.650,-0.001
14.655,-0.033
14.660,-0.058
14.665,-0.048
14.670,-0.058
14.675,-0.089
14.680,-0.098
14.685,-0.109
14.690,-0.126
14.695,-0.121
14.700,-0.114
14.705,-0.129
14.710,-0.138
14.715,-0.123
14.720,-0.129
14.725,-0.146
14.730,-0.127
14.735,-0.101
14.740,-0.085
14.745,-0.053
14.750,-0.027
14.755,-0.023
14.760,0.005
14.765,0.036
14.770,0.026
14.775,0.020
14.780,0.045
14.785,0.061
14.790,0.056
14.795,0.058
14.800,0.064
14.805,0.050
14.810,0.040
14.815,0.050
14.820,0.045
14.825,0.033
14.830,0.036
14.835,0.033
14.840,0.023
14.845,0.028
14.850,0.029
14.855,0.010
14.860,0.008
14.865,0.029
14.870,0.030
14.875,0.018
14.880,0.025
14.885,0.026
14.890,0.009
14.895,0.004
14.900,0.005
14.905,-0.004
14.910,-0.009
14.915,-0.002
14.920,0.003
14.925,-0.001
14.930,0.002
14.935,0.001
14.940,-0.017
14.945,-0.016
14.950,-0.005
14.955,-0.013
14.960,-0.013
14.965,0.005
14.970,0.003
14.975,-0.007
14.980,0.005
14.985,0.013
14.990,0.000
14.995,-0.002
15.000,0.005
15.005,-0.004
15.010,-0.014
15.015,-0.005
15.020,-0.001
15.025,-0.009
15.030,-0.011
15.035,-0.013
15.040,-0.015
15.045,-0.006
15.050,0.001
15.055,-0.006
15.060,-0.005
15.065,0.001
15.070,-0.007
15.075,-0.011
15.080,0.000
15.085,-0.008
15.090,-0.032
15.095,-0.027
15.100,-0.004
15.105,-0.006
15.110,-0.012
15.115,0.000
15.120,-0.003
15.125,-0.017
15.130,-0.012
15.135,-0.011
15.140,-0.022
15.145,-0.014
15.150,-0.004
15.155,-0.016
15.160,-0.018
15.165,-0.004
15.170,-0.008
15.175,-0.017
15.180,-0.012
15.185,-0.019
15.190,-0.033
15.195,-0.026
15.200,-0.012
15.205,-0.009
15.210,-0.004
15.215,-0.001
15.220,-0.016
15.225,-0.031
15.230,-0.017
15.235,-0.009
15.240,-0.027
15.245,-0.031
15.250,-0.031
15.255,-0.056
15.260,-0.062
15.265,-0.043
15.270,-0.052
15.275,-0.072
15.280,-0.064
15.285,-0.055
15.290,-0.055
15.295,-0.044
15.300,-0.027
15.305,-0.026
15.310,-0.027
15.315,-0.013
15.320,-0.012
15.325,-0.005
15.330,0.027
15.335,0.045
15.340,0.040
15.345,0.043
15.350,0.048
15.355,0.030
15.360,0.024
15.365,0.042
15.370,0.031
15.375,0.000
15.380,0.004
15.385,0.022
15.390,0.022
15.395,0.025
15.400,0.027
15.405,0.008
15.410,0.003
15.415,0.019
15.420,0.001
15.425,-0.073
15.430,-0.184
15.435,-0.340
15.440,-0.567
15.445,-0.850
15.450,-1.125
15.455,-1.116
15.460,-0.713
15.465,-0.277
15.470,0.045
15.475,0.260
15.480,0.304
15.485,0.290
15.490,0.288
15.495,0.293
15.500,0.309
15.505,0.307
15.510,0.294
15.515,0.288
15.520,0.284
15.525,0.280
15.530,0.276
15.535,0.261
15.540,0.235
15.545,0.228
15.550,0.226
15.555,0.199
15.560,0.189
15.565,0.204
15.570,0.192
15.575,0.167
15.580,0.164
15.585,0.163
15.590,0.147
15.595,0.143
15.600,0.145
15.605,0.124
15.610,0.105
15.615,0.109
15.620,0.104
15.625,0.081
15.630,0.071
15.635,0.067
15.640,0.058
15.645,0.062
15.650,0.066
15.655,0.046
15.660,0.028
15.665,0.026
15.670,0.018
15.675,0.006
15.680,-0.003
15.685,-0.025
15.690,-0.048
15.695,-0.044
15.700,-0.040
15.705,-0.062
15.710,-0.084
15.715,-0.091
15.720,-0.108
15.725,-0.119
15.730,-0.109
15.735,-0.114
15.740,-0.140
15.745,-0.148
15.750,-0.137
15.755,-0.145
15.760,-0.152
15.765,-0.129
15.770,-0.109
15.775,-0.091
15.780,-0.059
15.785,-0.042
15.790,-0.041
15.795,-0.009
15.800,0.031
15.805,0.029
15.810,0.026
15.815,0.049
15.820,0.050
15.825,0.040
15.830,0.057
15.835,0.071
15.840,0.057
15.845,0.054
15.850,0.072
15.855,0.064
15.860,0.040
15.865,0.040
15.870,0.036
15.875,0.027
15.880,0.044
15.885,0.049
15.890,0.030
15.895,0.030
15.900,0.036
15.905,0.022
15.910,0.017
15.915,0.024
15.920,0.018
15.925,0.007
15.930,0.008
15.935,0.008
15.940,0.000
15.945,0.006
15.950,0.012
15.955,-0.009
15.960,-0.016
15.965,0.003
15.970,0.003
15.975,-0.002
15.980,0.007
15.985,0.000
15.990,-0.013
15.995,-0.005
16.000,0.004
16.005,0.000
16.010,0.000
16.015,0.005
16.020,-0.002
16.025,-0.011
16.030,-0.004
16.035,0.008
16.040,-0.002
16.045,-0.012
16.050,-0.002
16.055,0.000
16.060,-0.004
16.065,0.001
16.070,-0.006
16.075,-0.019
16.080,-0.007
16.085,0.003
16.090,-0.010
16.095,-0.015
16.100,-0.011
16.105,-0.015
16.110,-0.017
16.115,-0.007
16.120,-0.010
16.125,-0.029
16.130,-0.026
16.135,-0.008
16.140,-0.014
16.145,-0.022
16.150,-0.011
16.155,-0.015
16.160,-0.021
16.165,-0.013
16.170,-0.019
16.175,-0.024
16.180,-0.006
16.185,0.002
16.190,-0.013
16.195,-0.023
16.200,-0.017
16.205,-0.020
16.210,-0.022
16.215,-0.013
16.220,-0.010
16.225,-0.013
16.230,-0.006
16.235,-0.007
16.240,-0.028
16.245,-0.029
16.250,-0.011
16.255,-0.019
16.260,-0.028
16.265,-0.014
16.270,-0.011
16.275,-0.023
16.280,-0.016
16.285,-0.008
16.290,-0.018
16.295,-0.021
16.300,-0.017
16.305,-0.029
16.310,-0.036
16.315,-0.023
16.320,-0.032
16.325,-0.057
16.330,-0.047
16.335,-0.034
16.340,-0.050
16.345,-0.058
16.350,-0.060
16.355,-0.077
16.360,-0.071
16.365,-0.038
16.370,-0.033
16.375,-0.031
16.380,-0.002
16.385,-0.010
16.390,-0.038
16.395,-0.019
16.400,0.016
16.405,0.026
16.410,0.034
16.415,0.049
16.420,0.042
16.425,0.024
16.430,0.028
16.435,0.037
16.440,0.030
16.445,0.031
16.450,0.036
16.455,0.018
16.460,0.007
16.465,0.023
16.470,0.017
16.475,0.000
16.480,0.017
16.485,0.031
16.490,0.016
16.495,-0.019
16.500,-0.101
16.505,-0.237
16.510,-0.408
16.515,-0.638
16.520,-0.949
16.525,-1.182
16.530,-0.999
16.535,-0.533
16.540,-0.161
16.545,0.152
16.550,0.326
16.555,0.299
16.560,0.274
16.565,0.290
16.570,0.294
16.575,0.298
16.580,0.317
16.585,0.319
16.590,0.289
16.595,0.270
16.600,0.269
16.605,0.262
16.610,0.252
16.615,0.251
16.620,0.238
16.625,0.213
16.630,0.212
16.635,0.212
16.640,0.192
16.645,0.187
16.650,0.186
16.655,0.164
16.660,0.150
16.665,0.155
16.670,0.139
16.675,0.117
16.680,0.121
16.685,0.117
16.690,0.091
16.695,0.085
16.700,0.095
16.705,0.079
16.710,0.061
16.715,0.062
16.720,0.052
16.725,0.040
16.730,0.046
16.735,0.041
16.740,0.013
16.745,0.001
16.750,0.010
16.755,0.003
16.760,-0.019
16.765,-0.033
16.770,-0.055
16.775,-0.077
16.780,-0.071
16.785,-0.076
16.790,-0.115
16.795,-0.130
16.800,-0.116
16.805,-0.130
16.810,-0.146
16.815,-0.133
16.820,-0.132
16.825,-0.147
16.830,-0.141
16.835,-0.125
16.840,-0.122
16.845,-0.108
16.850,-0.083
16.855,-0.079
16.860,-0.066
16.865,-0.025
16.870,-0.002
16.875,0.000
16.880,0.026
16.885,0.060
16.890,0.065
16.895,0.059
16.900,0.060
16.905,0.053
16.910,0.049
16.915,0.059
16.920,0.058
16.925,0.045
16.930,0.046
16.935,0.051
16.940,0.042
16.945,0.043
16.950,0.054
16.955,0.046
16.960,0.038
16.965,0.046
16.970,0.038
16.975,0.023
16.980,0.026
16.985,0.027
16.990,0.013
16.995,0.009
17.000,0.018
17.005,0.017
17.010,0.013
17.015,0.017
17.020,0.013
17.025,0.001
17.030,0.003
17.035,0.010
17.040,0.003
17.045,-0.002
17.050,0.000
17.055,-0.008
17.060,-0.009
17.065,0.006
17.070,0.007
17.075,-0.003
17.080,0.008
17.085,0.015
17.090,-0.004
17.095,-0.010
17.100,0.002
17.105,-0.003
17.110,-0.011
17.115,0.002
17.120,0.003
17.125,-0.010
17.130,-0.003
17.135,0.002
17.140,-0.013
17.145,-0.014
17.150,0.004
17.155,0.002
17.160,-0.008
17.165,0.000
17.170,-0.001
17.175,-0.016
17.180,-0.011
17.185,-0.006
17.190,-0.022
17.195,-0.020
17.200,-0.005
17.205,-0.014
17.210,-0.023
17.215,-0.007
17.220,-0.007
17.225,-0.025
17.230,-0.016
17.235,-0.003
17.240,-0.015
17.245,-0.016
17.250,-0.003
17.255,-0.014
17.260,-0.026
17.265,-0.014
17.270,-0.011
17.275,-0.021
17.280,-0.016
17.285,-0.012
17.290,-0.016
17.295,-0.008
17.300,0.000
17.305,-0.014
17.310,-0.026
17.315,-0.012
17.320,-0.001
17.325,-0.014
17.330,-0.025
17.335,-0.024
17.340,-0.025
17.345,-0.018
17.350,-0.004
17.355,-0.012
17.360,-0.030
17.365,-0.030
17.370,-0.039
17.375,-0.059
17.380,-0.059
17.385,-0.049
17.390,-0.043
17.395,-0.038
17.400,-0.043
17.405,-0.062
17.410,-0.070
17.415,-0.051
17.420,-0.050
17.425,-0.062
17.430,-0.037
17.435,-0.005
17.440,-0.015
17.445,-0.024
17.450,0.001
17.455,0.022
17.460,0.022
17.465,0.028
17.470,0.031
17.475,0.029
17.480,0.046
17.485,0.052
17.490,0.031
17.495,0.023
17.500,0.029
17.505,0.020
17.510,0.010
17.515,0.020
17.520,0.024
17.525,0.017
17.530,0.019
17.535,0.022
17.540,0.005
17.545,-0.023
17.550,-0.093
17.555,-0.223
17.560,-0.384
17.565,-0.595
17.570,-0.901
17.575,-1.168
17.580,-1.035
17.585,-0.581
17.590,-0.202
17.595,0.114
17.600,0.307
17.605,0.295
17.610,0.275
17.615,0.296
17.620,0.298
17.625,0.289
17.630,0.294
17.635,0.294
17.640,0.272
17.645,0.265
17.650,0.272
17.655,0.257
17.660,0.236
17.665,0.239
17.670,0.239
17.675,0.219
17.680,0.208
17.685,0.201
17.690,0.181
17.695,0.172
17.700,0.177
17.705,0.164
17.710,0.143
17.715,0.145
17.720,0.143
17.725,0.124
17.730,0.119
17.735,0.116
17.740,0.095
17.745,0.084
17.750,0.088
17.755,0.082
17.760,0.067
17.765,0.064
17.770,0.056
17.775,0.036
17.780,0.032
17.785,0.033
17.790,0.018
17.795,0.009
17.800,0.015
17.805,0.002
17.810,-0.021
17.815,-0.027
17.820,-0.041
17.825,-0.066
17.830,-0.070
17.835,-0.072
17.840,-0.097
17.845,-0.109
17.850,-0.104
17.855,-0.120
17.860,-0.139
17.865,-0.128
17.870,-0.124
17.875,-0.140
17.880,-0.133
17.885,-0.117
17.890,-0.122
17.895,-0.114
17.900,-0.080
17.905,-0.062
17.910,-0.050
17.915,-0.024
17.920,-0.008
17.925,-0.001
17.930,0.022
17.935,0.044
17.940,0.051
17.945,0.061
17.950,0.075
17.955,0.068
17.960,0.055
17.965,0.057
17.970,0.057
17.975,0.053
17.980,0.062
17.985,0.063
17.990,0.041
17.995,0.034
18.000,0.048
18.005,0.047
18.010,0.034
18.015,0.033
18.020,0.033
18.025,0.023
18.030,0.026
18.035,0.029
18.040,0.014
18.045,0.006
18.050,0.015
18.055,0.013
18.060,0.006
18.065,0.013
18.070,0.011
18.075,-0.002
18.080,0.005
18.085,0.005
18.090,-0.016
18.095,-0.009
18.100,0.016
18.105,0.010
18.110,-0.001
18.115,0.007
18.120,0.005
18.125,-0.008
18.130,-0.003
18.135,0.007
18.140,-0.002
18.145,-0.004
18.150,0.008
18.155,0.001
18.160,-0.014
18.165,-0.001
18.170,0.008
18.175,-0.010
18.180,-0.010
18.185,0.000
18.190,-0.008
18.195,-0.010
18.200,-0.003
18.205,-0.014
18.210,-0.018
18.215,-0.001
18.220,-0.001
18.225,-0.015
18.230,-0.013
18.235,-0.006
18.240,-0.011
18.245,-0.014
18.250,-0.005
18.255,-0.013
18.260,-0.029
18.265,-0.020
18.270,-0.004
18.275,-0.010
18.280,-0.012
18.285,-0.012
18.290,-0.026
18.295,-0.029
18.300,-0.014
18.305,-0.016
18.310,-0.030
18.315,-0.019
18.320,-0.006
18.325,-0.023
18.330,-0.031
18.335,-0.015
18.340,-0.013
18.345,-0.020
18.350,-0.015
18.355,-0.019
18.360,-0.023
18.365,-0.007
18.370,-0.005
18.375,-0.028
18.380,-0.031
18.385,-0.025
18.390,-0.041
18.395,-0.050
18.400,-0.041
18.405,-0.046
18.410,-0.051
18.415,-0.042
18.420,-0.048
18.425,-0.071
18.430,-0.074
18.435,-0.057
18.440,-0.056
18.445,-0.058
18.450,-0.038
18.455,-0.030
18.460,-0.031
18.465,-0.009
18.470,0.005
18.475,0.004
18.480,0.024
18.485,0.041
18.490,0.033
18.495,0.030
18.500,0.038
18.505,0.030
18.510,0.014
18.515,0.024
18.520,0.034
18.525,0.021
18.530,0.018
18.535,0.022
18.540,0.008
18.545,0.003
18.550,0.020
18.555,0.024
18.560,0.021
18.565,0.019
18.570,-0.049
18.575,-0.175
18.580,-0.314
18.585,-0.526
18.590,-0.857
18.595,-1.161
18.600,-1.099
18.605,-0.696
18.610,-0.308
18.615,0.038
18.620,0.277
18.625,0.297
18.630,0.283
18.635,0.303
18.640,0.293
18.645,0.289
18.650,0.301
18.655,0.301
18.660,0.290
18.665,0.286
18.670,0.273
18.675,0.251
18.680,0.252
18.685,0.251
18.690,0.221
18.695,0.201
18.700,0.200
18.705,0.187
18.710,0.182
18.715,0.202
18.720,0.203
18.725,0.167
18.730,0.145
18.735,0.148
18.740,0.131
18.745,0.111
18.750,0.116
18.755,0.112
18.760,0.099
18.765,0.103
18.770,0.095
18.775,0.072
18.780,0.067
18.785,0.070
18.790,0.054
18.795,0.035
18.800,0.040
18.805,0.041
18.810,0.019
18.815,0.012
18.820,0.009
18.825,-0.016
18.830,-0.028
18.835,-0.020
18.840,-0.028
18.845,-0.040
18.850,-0.043
18.855,-0.069
18.860,-0.104
18.865,-0.111
18.870,-0.112
18.875,-0.125
18.880,-0.132
18.885,-0.134
18.890,-0.142
18.895,-0.140
18.900,-0.119
18.905,-0.113
18.910,-0.119
18.915,-0.104
18.920,-0.091
18.925,-0.090
18.930,-0.065
18.935,-0.022
18.940,-0.007
18.945,0.001
18.950,0.027
18.955,0.037
18.960,0.042
18.965,0.060
18.970,0.057
18.975,0.045
18.980,0.057
18.985,0.067
18.990,0.050
18.995,0.035
19.000,0.042
19.005,0.044
19.010,0.037
19.015,0.040
19.020,0.040
19.025,0.034
19.030,0.037
19.035,0.042
19.040,0.024
19.045,0.001
19.050,0.009
19.055,0.022
19.060,0.016
19.065,0.016
19.070,0.013
19.075,-0.003
19.080,-0.003
19.085,0.004
19.090,-0.005
19.095,-0.006
19.100,0.008
19.105,0.009
19.110,0.001
19.115,0.006
19.120,0.007
19.125,-0.004
19.130,0.000
19.135,0.010
19.140,-0.005
19.145,-0.017
19.150,0.004
19.155,0.009
19.160,-0.005
19.165,0.011
19.170,0.022
19.175,0.004
19.180,0.000
19.185,0.003
19.190,-0.014
19.195,-0.017
19.200,-0.003
19.205,-0.007
19.210,-0.012
19.215,0.007
19.220,0.010
19.225,-0.014
19.230,-0.008
19.235,0.011
19.240,-0.008
19.245,-0.027
19.250,-0.016
19.255,-0.012
19.260,-0.019
19.265,-0.007
19.270,-0.004
19.275,-0.020
19.280,-0.009
19.285,0.006
19.290,-0.014
19.295,-0.025
19.300,-0.006
19.305,0.000
19.310,-0.007
19.315,-0.004
19.320,-0.009
19.325,-0.025
19.330,-0.018
19.335,-0.004
19.340,-0.018
19.345,-0.031
19.350,-0.013
19.355,0.000
19.360,-0.001
19.365,0.000
19.370,-0.017
19.375,-0.040
19.380,-0.037
19.385,-0.028
19.390,-0.035
19.395,-0.032
19.400,-0.025
19.405,-0.043
19.410,-0.050
19.415,-0.033
19.420,-0.034
19.425,-0.062
19.430,-0.075
19.435,-0.063
19.440,-0.061
19.445,-0.061
19.450,-0.038
19.455,-0.024
19.460,-0.024
19.465,-0.011
19.470,-0.007
19.475,-0.012
19.480,0.010
19.485,0.033
19.490,0.029
19.495,0.022
19.500,0.025
19.505,0.021
19.510,0.015
19.515,0.031
19.520,0.039
19.525,0.016
19.530,0.013
19.535,0.030
19.540,0.019
19.545,0.006
19.550,0.021
19.555,0.021
19.560,0.003
19.565,0.006
19.570,-0.019
19.575,-0.115
19.580,-0.227
19.585,-0.383
19.590,-0.662
19.595,-1.005
19.600,-1.180
19.605,-0.947
19.610,-0.505
19.615,-0.143
19.620,0.160
19.625,0.298
19.630,0.282
19.635,0.288
19.640,0.288
19.645,0.271
19.650,0.287
19.655,0.295
19.660,0.280
19.665,0.278
19.670,0.276
19.675,0.262
19.680,0.255
19.685,0.254
19.690,0.235
19.695,0.216
19.700,0.216
19.705,0.204
19.710,0.181
19.715,0.175
19.720,0.170
19.725,0.154
19.730,0.150
19.735,0.158
19.740,0.146
19.745,0.125
19.750,0.128
19.755,0.125
19.760,0.100
19.765,0.100
19.770,0.103
19.775,0.072
19.780,0.061
19.785,0.072
19.790,0.057
19.795,0.041
19.800,0.048
19.805,0.035
19.810,0.014
19.815,0.020
19.820,0.016
19.825,-0.008
19.830,-0.016
19.835,-0.016
19.840,-0.036
19.845,-0.050
19.850,-0.040
19.855,-0.055
19.860,-0.098
19.865,-0.109
19.870,-0.102
19.875,-0.114
19.880,-0.122
19.885,-0.121
19.890,-0.131
19.895,-0.134
19.900,-0.118
19.905,-0.115
19.910,-0.122
19.915,-0.105
19.920,-0.087
19.925,-0.090
19.930,-0.079
19.935,-0.052
19.940,-0.029
19.945,0.000
19.950,0.029
19.955,0.029
19.960,0.020
19.965,0.043
19.970,0.060
19.975,0.046
19.980,0.050
19.985,0.067
19.990,0.050
19.995,0.033
20.000,0.052
20.005,0.059
20.010,0.041
20.015,0.037
20.020,0.037
20.025,0.023
20.030,0.021
20.035,0.032
20.040,0.028
20.045,0.027
20.050,0.039
20.055,0.024
20.060,-0.004
20.065,-0.001
20.070,0.006
20.075,-0.004
20.080,-0.004
20.085,0.009
20.090,0.006
20.095,-0.005
20.100,0.000
20.105,0.003
20.110,-0.001
20.115,0.007
20.120,0.013
20.125,-0.003
20.130,-0.013
20.135,-0.008
20.140,-0.006
20.145,-0.002
20.150,0.009
20.155,0.007
20.160,-0.005
20.165,0.000
20.170,0.009
20.175,0.003
20.180,0.007
20.185,0.014
20.190,-0.005
20.195,-0.016
20.200,0.002
20.205,0.007
20.210,-0.006
20.215,-0.001
20.220,0.002
20.225,-0.018
20.230,-0.022
20.235,-0.005
20.240,-0.004
20.245,-0.011
20.250,0.000
20.255,0.000
20.260,-0.017
20.265,-0.011
20.270,-0.001
20.275,-0.014
20.280,-0.014
20.285,0.002
20.290,-0.010
20.295,-0.024
20.300,-0.007
20.305,-0.004
20.310,-0.027
20.315,-0.023
20.320,0.003
20.325,0.001
20.330,-0.011
20.335,-0.006
20.340,-0.015
20.345,-0.030
20.350,-0.018
20.355,-0.009
20.360,-0.021
20.365,-0.014
20.370,-0.007
20.375,-0.021
20.380,-0.021
20.385,-0.005
20.390,-0.005
20.395,-0.013
20.400,-0.005
20.405,-0.007
20.410,-0.025
20.415,-0.029
20.420,-0.026
20.425,-0.032
20.430,-0.035
20.435,-0.035
20.440,-0.046
20.445,-0.054
20.450,-0.040
20.455,-0.043
20.460,-0.076
20.465,-0.084
20.470,-0.060
20.475,-0.048
20.480,-0.041
20.485,-0.020
20.490,-0.010
20.495,-0.017
20.500,-0.012
20.505,-0.004
20.510,0.002
20.515,0.025
20.520,0.040
20.525,0.029
20.530,0.027
20.535,0.040
20.540,0.036
20.545,0.024
20.550,0.034
20.555,0.038
20.560,0.018
20.565,0.014
20.570,0.025
20.575,0.020
20.580,0.021
20.585,0.028
20.590,0.015
20.595,0.009
20.600,0.007
20.605,-0.063
20.610,-0.194
20.615,-0.334
20.620,-0.541
20.625,-0.859
20.630,-1.152
20.635,-1.091
20.640,-0.683
20.645,-0.291
20.650,0.049
20.655,0.280
20.660,0.290
20.665,0.274
20.670,0.291
20.675,0.281
20.680,0.291
20.685,0.318
20.690,0.315
20.695,0.293
20.700,0.283
20.705,0.268
20.710,0.253
20.715,0.256
20.720,0.250
20.725,0.227
20.730,0.217
20.735,0.222
20.740,0.211
20.745,0.192
20.750,0.190
20.755,0.184
20.760,0.161
20.765,0.156
20.770,0.160
20.775,0.142
20.780,0.126
20.785,0.127
20.790,0.109
20.795,0.085
20.800,0.087
20.805,0.092
20.810,0.084
20.815,0.079
20.820,0.071
20.825,0.049
20.830,0.041
20.835,0.046
20.840,0.037
20.845,0.020
20.850,0.018
20.855,0.017
20.860,-0.003
20.865,-0.016
20.870,-0.025
20.875,-0.053
20.880,-0.073
20.885,-0.070
20.890,-0.086
20.895,-0.110
20.900,-0.100
20.905,-0.095
20.910,-0.118
20.915,-0.123
20.920,-0.121
20.925,-0.137
20.930,-0.144
20.935,-0.138
20.940,-0.140
20.945,-0.137
20.950,-0.111
20.955,-0.094
20.960,-0.092
20.965,-0.060
20.970,-0.016
20.975,-0.004
20.980,0.006
20.985,0.030
20.990,0.038
20.995,0.039
21.000,0.055
21.005,0.060
21.010,0.050
21.015,0.053
21.020,0.064
21.025,0.060
21.030,0.056
21.035,0.058
21.040,0.044
21.045,0.028
21.050,0.036
21.055,0.046
21.060,0.038
21.065,0.036
21.070,0.040
21.075,0.025
21.080,0.019
21.085,0.031
21.090,0.026
21.095,0.013
21.100,0.021
21.105,0.019
21.110,0.002
21.115,0.005
21.120,0.013
21.125,0.002
21.130,-0.004
21.135,0.005
21.140,-0.002
21.145,-0.010
21.150,0.010
21.155,0.018
21.160,0.000
21.165,-0.003
21.170,0.005
21.175,-0.002
21.180,-0.004
21.185,0.008
21.190,0.002
21.195,-0.008
21.200,-0.001
21.205,0.001
21.210,-0.010
21.215,-0.003
21.220,0.008
21.225,-0.002
21.230,-0.006
21.235,0.002
21.240,-0.006
21.245,-0.013
21.250,0.005
21.255,0.009
21.260,-0.010
21.265,-0.010
21.270,-0.002
21.275,-0.015
21.280,-0.020
21.285,-0.007
21.290,-0.010
21.295,-0.019
21.300,-0.007
21.305,-0.004
21.310,-0.019
21.315,-0.017
21.320,-0.009
21.325,-0.022
21.330,-0.029
21.335,-0.010
21.340,-0.005
21.345,-0.016
21.350,-0.008
21.355,-0.006
21.360,-0.019
21.365,-0.012
21.370,-0.006
21.375,-0.022
21.380,-0.021
21.385,-0.005
21.390,-0.013
21.395,-0.027
21.400,-0.019
21.405,-0.015
21.410,-0.027
21.415,-0.027
21.420,-0.016
21.425,-0.020
21.430,-0.023
21.435,-0.011
21.440,-0.012
21.445,-0.023
21.450,-0.016
21.455,-0.012
21.460,-0.027
21.465,-0.025
21.470,-0.012
21.475,-0.023
21.480,-0.034
21.485,-0.031
21.490,-0.046
21.495,-0.061
21.500,-0.048
21.505,-0.048
21.510,-0.072
21.515,-0.076
21.520,-0.064
21.525,-0.057
21.530,-0.045
21.535,-0.031
21.540,-0.030
21.545,-0.028
21.550,-0.017
21.555,-0.017
21.560,-0.021
21.565,0.006
21.570,0.040
21.575,0.037
21.580,0.031
21.585,0.041
21.590,0.033
21.595,0.021
21.600,0.030
21.605,0.035
21.610,0.019
21.615,0.016
21.620,0.029
21.625,0.026
21.630,0.018
21.635,0.023
21.640,0.014
21.645,-0.001
21.650,0.009
21.655,0.015
21.660,-0.030
21.665,-0.116
21.670,-0.231
21.675,-0.413
21.680,-0.672
21.685,-0.977
21.690,-1.175
21.695,-0.978
21.700,-0.528
21.705,-0.156
21.710,0.137
21.715,0.286
21.720,0.290
21.725,0.288
21.730,0.293
21.735,0.307
21.740,0.310
21.745,0.296
21.750,0.299
21.755,0.298
21.760,0.275
21.765,0.268
21.770,0.269
21.775,0.251
21.780,0.239
21.785,0.242
21.790,0.227
21.795,0.206
21.800,0.205
21.805,0.195
21.810,0.173
21.815,0.175
21.820,0.178
21.825,0.157
21.830,0.144
21.835,0.149
21.840,0.137
21.845,0.117
21.850,0.117
21.855,0.113
21.860,0.091
21.865,0.082
21.870,0.083
21.875,0.065
21.880,0.053
21.885,0.060
21.890,0.047
21.895,0.024
21.900,0.029
21.905,0.032
21.910,0.013
21.915,0.007
21.920,0.006
21.925,-0.021
21.930,-0.044
21.935,-0.048
21.940,-0.063
21.945,-0.081
21.950,-0.082
21.955,-0.092
21.960,-0.118
21.965,-0.125
21.970,-0.115
21.975,-0.125
21.980,-0.138
21.985,-0.129
21.990,-0.126
21.995,-0.135
22.000,-0.125
22.005,-0.114
22.010,-0.116
22.015,-0.094
22.020,-0.060
22.025,-0.047
22.030,-0.034
22.035,-0.003
22.040,0.016
22.045,0.020
22.050,0.039
22.055,0.056
22.060,0.056
22.065,0.062
22.070,0.068
22.075,0.054
22.080,0.054
22.085,0.071
22.090,0.061
22.095,0.044
22.100,0.051
22.105,0.054
22.110,0.042
22.115,0.042
22.120,0.044
22.125,0.027
22.130,0.018
22.135,0.030
22.140,0.030
22.145,0.019
22.150,0.025
22.155,0.034
22.160,0.017
22.165,0.009
22.170,0.021
22.175,0.015
22.180,0.006
22.185,0.008
22.190,0.003
22.195,-0.002
22.200,0.007
22.205,0.008
22.210,-0.001
22.215,0.005
22.220,0.013
22.225,0.000
22.230,-0.007
22.235,0.008
22.240,0.009
22.245,-0.007
22.250,-0.007
22.255,-0.001
22.260,-0.008
22.265,0.000
22.270,0.014
22.275,-0.002
22.280,-0.012
22.285,0.001
22.290,-0.003
22.295,-0.017
22.300,-0.008
22.305,0.000
22.310,-0.009
22.315,-0.001
22.320,0.004
22.325,-0.015
22.330,-0.016
22.335,0.001
22.340,-0.008
22.345,-0.026
22.350,-0.018
22.355,-0.009
22.360,-0.019
22.365,-0.019
22.370,-0.008
22.375,-0.018
22.380,-0.024
22.385,-0.008
22.390,-0.009
22.395,-0.018
22.400,-0.009
22.405,-0.011
22.410,-0.031
22.415,-0.027
22.420,-0.008
22.425,-0.017
22.430,-0.032
22.435,-0.018
22.440,-0.008
22.445,-0.016
22.450,-0.007
22.455,-0.007
22.460,-0.027
22.465,-0.023
22.470,-0.006
22.475,-0.019
22.480,-0.030
22.485,-0.017
22.490,-0.014
22.495,-0.021
22.500,-0.011
22.505,-0.005
22.510,-0.017
22.515,-0.021
22.520,-0.013
22.525,-0.019
22.530,-0.024
22.535,-0.009
22.540,-0.014
22.545,-0.039
22.550,-0.036
22.555,-0.028
22.560,-0.042
22.565,-0.048
22.570,-0.038
22.575,-0.042
22.580,-0.053
22.585,-0.051
22.590,-0.061
22.595,-0.070
22.600,-0.050
22.605,-0.036
22.610,-0.049
22.615,-0.036
22.620,-0.009
22.625,-0.014
22.630,-0.019
22.635,-0.002
22.640,0.010
22.645,0.018
22.650,0.036
22.655,0.042
22.660,0.026
22.665,0.025
22.670,0.041
22.675,0.034
22.680,0.022
22.685,0.030
22.690,0.031
22.695,0.020
22.700,0.026
22.705,0.030
22.710,0.011
22.715,0.009
22.720,0.024
22.725,0.018
22.730,0.004
22.735,-0.031
22.740,-0.133
22.745,-0.273
22.750,-0.451
22.755,-0.743
22.760,-1.094
22.765,-1.165
22.770,-0.808
22.775,-0.391
22.780,-0.052
22.785,0.231
22.790,0.299
22.795,0.266
22.800,0.290
22.805,0.304
22.810,0.293
22.815,0.304
22.820,0.317
22.825,0.299
22.830,0.281
22.835,0.280
22.840,0.266
22.845,0.244
22.850,0.246
22.855,0.247
22.860,0.221
22.865,0.204
22.870,0.205
22.875,0.193
22.880,0.188
22.885,0.195
22.890,0.180
22.895,0.151
22.900,0.140
22.905,0.135
22.910,0.121
22.915,0.119
22.920,0.126
22.925,0.115
22.930,0.102
22.935,0.100
22.940,0.088
22.945,0.068
22.950,0.064
22.955,0.060
22.960,0.044
22.965,0.039
22.970,0.039
22.975,0.025
22.980,0.012
22.985,0.014
22.990,0.003
22.995,-0.017
23.000,-0.019
23.005,-0.032
23.010,-0.060
23.015,-0.066
23.020,-0.063
23.025,-0.082
23.030,-0.100
23.035,-0.105
23.040,-0.118
23.045,-0.130
23.050,-0.124
23.055,-0.121
23.060,-0.133
23.065,-0.138
23.070,-0.126
23.075,-0.124
23.080,-0.119
23.085,-0.090
23.090,-0.069
23.095,-0.066
23.100,-0.046
23.105,-0.020
23.110,-0.003
23.115,0.023
23.120,0.046
23.125,0.039
23.130,0.029
23.135,0.046
23.140,0.057
23.145,0.052
23.150,0.061
23.155,0.068
23.160,0.054
23.165,0.056
23.170,0.067
23.175,0.046
23.180,0.024
23.185,0.029
23.190,0.032
23.195,0.033
23.200,0.040
23.205,0.037
23.210,0.019
23.215,0.010
23.220,0.020
23.225,0.017
23.230,0.007
23.235,0.014
23.240,0.017
23.245,0.008
23.250,0.012
23.255,0.010
23.260,-0.008
23.265,-0.007
23.270,0.005
23.275,-0.003
23.280,-0.011
23.285,-0.004
23.290,0.008
23.295,0.011
23.300,0.014
23.305,0.008
23.310,-0.015
23.315,-0.011
23.320,0.013
23.325,-0.001
23.330,-0.013
23.335,0.010
23.340,0.012
23.345,-0.009
23.350,-0.007
23.355,0.001
23.360,-0.008
23.365,0.001
23.370,0.015
23.375,0.000
23.380,-0.007
23.385,0.005
23.390,-0.001
23.395,-0.018
23.400,-0.012
23.405,-0.003
23.410,-0.012
23.415,-0.014
23.420,-0.004
23.425,-0.007
23.430,-0.013
23.435,-0.004
23.440,-0.009
23.445,-0.028
23.450,-0.023
23.455,-0.007
23.460,-0.017
23.465,-0.022
23.470,-0.008
23.475,-0.011
23.480,-0.018
23.485,-0.008
23.490,-0.011
23.495,-0.022
23.500,-0.016
23.505,-0.010
23.510,-0.018
23.515,-0.020
23.520,-0.015
23.525,-0.024
23.530,-0.027
23.535,-0.005
23.540,-0.004
23.545,-0.024
23.550,-0.016
23.555,-0.003
23.560,-0.014
23.565,-0.026
23.570,-0.032
23.575,-0.045
23.580,-0.043
23.585,-0.023
23.590,-0.030
23.595,-0.058
23.600,-0.058
23.605,-0.052
23.610,-0.065
23.615,-0.074
23.620,-0.069
23.625,-0.056
23.630,-0.044
23.635,-0.036
23.640,-0.030
23.645,-0.031
23.650,-0.027
23.655,-0.014
23.660,-0.016
23.665,-0.003
23.670,0.029
23.675,0.033
23.680,0.030
23.685,0.044
23.690,0.041
23.695,0.021
23.700,0.017
23.705,0.018
23.710,0.005
23.715,0.006
23.720,0.021
23.725,0.014
23.730,0.010
23.735,0.026
23.740,0.021
23.745,0.002
23.750,0.010
23.755,0.022
23.760,-0.027
23.765,-0.128
23.770,-0.243
23.775,-0.423
23.780,-0.710
23.785,-1.046
23.790,-1.190
23.795,-0.915
23.800,-0.457
23.805,-0.085
23.810,0.196
23.815,0.301
23.820,0.284
23.825,0.277
23.830,0.278
23.835,0.288
23.840,0.289
23.845,0.277
23.850,0.286
23.855,0.293
23.860,0.270
23.865,0.253
23.870,0.257
23.875,0.245
23.880,0.224
23.885,0.224
23.890,0.222
23.895,0.205
23.900,0.191
23.905,0.181
23.910,0.167
23.915,0.164
23.920,0.171
23.925,0.157
23.930,0.141
23.935,0.140
23.940,0.125
23.945,0.097
23.950,0.094
23.955,0.100
23.960,0.086
23.965,0.077
23.970,0.077
23.975,0.063
23.980,0.050
23.985,0.055
23.990,0.043
23.995,0.021
24.000,0.026
24.005,0.035
24.010,0.014
24.015,-0.007
24.020,-0.010
24.025,-0.026
24.030,-0.046
24.035,-0.041
24.040,-0.049
24.045,-0.075
24.050,-0.085
24.055,-0.094
24.060,-0.114
24.065,-0.115
24.070,-0.108
24.075,-0.122
24.080,-0.132
24.085,-0.128
24.090,-0.133
24.095,-0.140
24.100,-0.122
24.105,-0.102
24.110,-0.101
24.115,-0.091
24.120,-0.063
24.125,-0.039
24.130,-0.017
24.135,0.011
24.140,0.023
24.145,0.022
24.150,0.035
24.155,0.053
24.160,0.049
24.165,0.044
24.170,0.053
24.175,0.047
24.180,0.037
24.185,0.050
24.190,0.054
24.195,0.044
24.200,0.051
24.205,0.053
24.210,0.040
24.215,0.038
24.220,0.041
24.225,0.026
24.230,0.011
24.235,0.021
24.240,0.026
24.245,0.012
24.250,0.012
24.255,0.021
24.260,0.007
24.265,-0.005
24.270,0.006
24.275,0.008
24.280,0.005
24.285,0.011
24.290,-0.004
24.295,-0.024
24.300,-0.006
24.305,0.019
24.310,0.008
24.315,0.000
24.320,0.013
24.325,0.009
24.330,-0.004
24.335,0.006
24.340,0.011
24.345,-0.002
24.350,0.003
24.355,0.011
24.360,0.000
24.365,0.001
24.370,0.008
24.375,-0.009
24.380,-0.015
24.385,0.009
24.390,0.012
24.395,-0.004
24.400,0.002
24.405,0.005
24.410,-0.014
24.415,-0.022
24.420,-0.010
24.425,-0.009
24.430,-0.014
24.435,0.000
24.440,0.004
24.445,-0.010
24.450,-0.012
24.455,-0.010
24.460,-0.023
24.465,-0.017
24.470,0.005
24.475,-0.003
24.480,-0.019
24.485,-0.011
24.490,-0.010
24.495,-0.018
24.500,-0.007
24.505,-0.001
24.510,-0.014
24.515,-0.018
24.520,-0.008
24.525,-0.013
24.530,-0.022
24.535,-0.014
24.540,-0.009
24.545,-0.019
24.550,-0.019
24.555,-0.009
24.560,-0.014
24.565,-0.011
24.570,0.003
24.575,-0.012
24.580,-0.039
24.585,-0.030
24.590,-0.013
24.595,-0.016
24.600,-0.009
24.605,0.002
24.610,-0.011
24.615,-0.023
24.620,-0.022
24.625,-0.035
24.630,-0.051
24.635,-0.049
24.640,-0.044
24.645,-0.045
24.650,-0.040
24.655,-0.043
24.660,-0.069
24.665,-0.082
24.670,-0.057
24.675,-0.043
24.680,-0.043
24.685,-0.022
24.690,-0.008
24.695,-0.017
24.700,-0.010
24.705,0.011
24.710,0.014
24.715,0.022
24.720,0.043
24.725,0.042
24.730,0.026
24.735,0.026
24.740,0.030
24.745,0.023
24.750,0.025
24.755,0.027
24.760,0.019
24.765,0.021
24.770,0.034
24.775,0.028
24.780,0.018
24.785,0.028
24.790,0.027
24.795,0.012
24.800,0.013
24.805,-0.019
24.810,-0.135
24.815,-0.271
24.820,-0.430
24.825,-0.701
24.830,-1.042
24.835,-1.201
24.840,-0.949
24.845,-0.513
24.850,-0.137
24.855,0.185
24.860,0.311
24.865,0.290
24.870,0.300
24.875,0.298
24.880,0.285
24.885,0.307
24.890,0.320
24.895,0.305
24.900,0.299
24.905,0.297
24.910,0.274
24.915,0.257
24.920,0.255
24.925,0.243
24.930,0.225
24.935,0.224
24.940,0.216
24.945,0.193
24.950,0.189
24.955,0.194
24.960,0.173
24.965,0.159
24.970,0.168
24.975,0.161
24.980,0.139
24.985,0.128
24.990,0.117
24.995,0.098
25.000,0.098
25.005,0.101
25.010,0.081
25.015,0.069
25.020,0.078
25.025,0.070
25.030,0.046
25.035,0.041
25.040,0.042
25.045,0.024
25.050,0.013
25.055,0.013
25.060,0.003
25.065,-0.005
25.070,-0.007
25.075,-0.031
25.080,-0.060
25.085,-0.062
25.090,-0.067
25.095,-0.090
25.100,-0.098
25.105,-0.102
25.110,-0.126
25.115,-0.136
25.120,-0.128
25.125,-0.137
25.130,-0.151
25.135,-0.147
25.140,-0.141
25.145,-0.134
25.150,-0.110
25.155,-0.087
25.160,-0.082
25.165,-0.068
25.170,-0.037
25.175,-0.022
25.180,-0.013
25.185,0.017
25.190,0.037
25.195,0.034
25.200,0.046
25.205,0.063
25.210,0.058
25.215,0.054
25.220,0.063
25.225,0.056
25.230,0.047
25.235,0.065
25.240,0.071
25.245,0.047
25.250,0.037
25.255,0.044
25.260,0.033
25.265,0.029
25.270,0.041
25.275,0.032
25.280,0.018
25.285,0.030
25.290,0.033
25.295,0.016
25.300,0.012
25.305,0.017
25.310,0.008
25.315,0.007
25.320,0.019
25.325,0.016
25.330,0.007
25.335,0.014
25.340,0.011
25.345,-0.011
25.350,-0.010
25.355,0.005
25.360,-0.002
25.365,-0.010
25.370,0.002
25.375,0.001
25.380,-0.010
25.385,0.003
25.390,0.010
25.395,-0.007
25.400,-0.005
25.405,0.006
25.410,-0.003
25.415,-0.007
25.420,0.007
25.425,0.007
25.430,-0.001
25.435,0.008
25.440,0.010
25.445,-0.010
25.450,-0.018
25.455,-0.012
25.460,-0.014
25.465,-0.015
25.470,-0.002
25.475,-0.005
25.480,-0.018
25.485,-0.007
25.490,0.001
25.495,-0.011
25.500,-0.009
25.505,0.001
25.510,-0.011
25.515,-0.017
25.520,-0.005
25.525,-0.007
25.530,-0.018
25.535,-0.011
25.540,-0.008
25.545,-0.021
25.550,-0.018
25.555,-0.005
25.560,-0.017
25.565,-0.029
25.570,-0.017
25.575,-0.013
25.580,-0.021
25.585,-0.013
25.590,-0.007
25.595,-0.017
25.600,-0.014
25.605,-0.002
25.610,-0.012
25.615,-0.023
25.620,-0.017
25.625,-0.018
25.630,-0.026
25.635,-0.016
25.640,-0.008
25.645,-0.021
25.650,-0.019
25.655,-0.004
25.660,-0.017
25.665,-0.029
25.670,-0.016
25.675,-0.018
25.680,-0.031
25.685,-0.026
25.690,-0.026
25.695,-0.044
25.700,-0.052
25.705,-0.044
25.710,-0.046
25.715,-0.053
25.720,-0.054
25.725,-0.070
25.730,-0.082
25.735,-0.060
25.740,-0.043
25.745,-0.047
25.750,-0.029
25.755,-0.008
25.760,-0.019
25.765,-0.023
25.770,0.000
25.775,0.018
25.780,0.022
25.785,0.040
25.790,0.051
25.795,0.033
25.800,0.027
25.805,0.037
25.810,0.029
25.815,0.022
25.820,0.031
25.825,0.028
25.830,0.022
25.835,0.033
25.840,0.033
25.845,0.017
25.850,0.016
25.855,0.024
25.860,0.013
25.865,-0.004
25.870,-0.039
25.875,-0.145
25.880,-0.296
25.885,-0.483
25.890,-0.764
25.895,-1.096
25.900,-1.177
25.905,-0.843
25.910,-0.416
25.915,-0.058
25.920,0.237
25.925,0.314
25.930,0.280
25.935,0.300
25.940,0.314
25.945,0.299
25.950,0.303
25.955,0.316
25.960,0.302
25.965,0.284
25.970,0.286
25.975,0.276
25.980,0.254
25.985,0.251
25.990,0.246
25.995,0.220
26.000,0.207
26.005,0.212
26.010,0.201
26.015,0.187
26.020,0.186
26.025,0.174
26.030,0.154
26.035,0.149
26.040,0.147
26.045,0.136
26.050,0.132
26.055,0.134
26.060,0.114
26.065,0.095
26.070,0.098
26.075,0.088
26.080,0.068
26.085,0.069
26.090,0.065
26.095,0.039
26.100,0.031
26.105,0.038
26.110,0.020
26.115,0.003
26.120,0.007
26.125,-0.001
26.130,-0.022
26.135,-0.029
26.140,-0.040
26.145,-0.063
26.150,-0.066
26.155,-0.064
26.160,-0.087
26.165,-0.106
26.170,-0.102
26.175,-0.111
26.180,-0.134
26.185,-0.135
26.190,-0.133
26.195,-0.152
26.200,-0.156
26.205,-0.141
26.210,-0.139
26.215,-0.129
26.220,-0.099
26.225,-0.083
26.230,-0.073
26.235,-0.041
26.240,-0.013
26.245,-0.006
26.250,0.011
26.255,0.036
26.260,0.040
26.265,0.042
26.270,0.059
26.275,0.061
26.280,0.053
26.285,0.062
26.290,0.064
26.295,0.048
26.300,0.053
26.305,0.069
26.310,0.056
26.315,0.040
26.320,0.046
26.325,0.042
26.330,0.030
26.335,0.035
26.340,0.039
26.345,0.024
26.350,0.020
26.355,0.029
26.360,0.015
26.365,0.001
26.370,0.015
26.375,0.019
26.380,0.011
26.385,0.020
26.390,0.025
26.395,0.007
26.400,-0.006
26.405,-0.001
26.410,-0.006
26.415,-0.012
26.420,0.003
26.425,0.008
26.430,-0.005
26.435,0.002
26.440,0.016
26.445,0.007
26.450,0.003
26.455,0.010
26.460,-0.001
26.465,-0.008
26.470,0.005
26.475,0.003
26.480,-0.010
26.485,-0.002
26.490,0.005
26.495,-0.006
26.500,-0.007
26.505,0.006
26.510,-0.001
26.515,-0.017
26.520,-0.010
26.525,-0.004
26.530,-0.016
26.535,-0.013
26.540,-0.004
26.545,-0.011
26.550,-0.010
26.555,-0.004
26.560,-0.018
26.565,-0.025
26.570,-0.011
26.575,-0.007
26.580,-0.015
26.585,-0.011
26.590,-0.008
26.595,-0.020
26.600,-0.016
26.605,-0.004
26.610,-0.017
26.615,-0.027
26.620,-0.012
26.625,-0.010
26.630,-0.022
26.635,-0.017
26.640,-0.016
26.645,-0.029
26.650,-0.018
26.655,-0.004
26.660,-0.020
26.665,-0.030
26.670,-0.013
26.675,-0.009
26.680,-0.019
26.685,-0.013
26.690,-0.007
26.695,-0.022
26.700,-0.023
26.705,-0.009
26.710,-0.017
26.715,-0.027
26.720,-0.015
26.725,-0.010
26.730,-0.017
26.735,-0.010
26.740,-0.007
26.745,-0.024
26.750,-0.031
26.755,-0.025
26.760,-0.038
26.765,-0.050
26.770,-0.041
26.775,-0.043
26.780,-0.054
26.785,-0.040
26.790,-0.038
26.795,-0.071
26.800,-0.082
26.805,-0.057
26.810,-0.049
26.815,-0.049
26.820,-0.021
26.825,-0.005
26.830,-0.014
26.835,-0.007
26.840,0.006
26.845,0.010
26.850,0.025
26.855,0.046
26.860,0.039
26.865,0.028
26.870,0.043
26.875,0.044
26.880,0.018
26.885,0.018
26.890,0.034
26.895,0.027
26.900,0.025
26.905,0.030
26.910,0.013
26.915,0.002
26.920,0.016
26.925,0.016
26.930,0.007
26.935,0.012
26.940,-0.030
26.945,-0.147
26.950,-0.298
26.955,-0.516
26.960,-0.850
26.965,-1.167
26.970,-1.124
26.975,-0.728
26.980,-0.331
26.985,0.035
26.990,0.291
26.995,0.304
27.000,0.278
27.005,0.305
27.010,0.299
27.015,0.286
27.020,0.301
27.025,0.304
27.030,0.290
27.035,0.288
27.040,0.281
27.045,0.257
27.050,0.247
27.055,0.252
27.060,0.234
27.065,0.214
27.070,0.221
27.075,0.217
27.080,0.192
27.085,0.182
27.090,0.177
27.095,0.156
27.100,0.149
27.105,0.155
27.110,0.137
27.115,0.119
27.120,0.128
27.125,0.125
27.130,0.101
27.135,0.097
27.140,0.097
27.145,0.078
27.150,0.067
27.155,0.069
27.160,0.063
27.165,0.052
27.170,0.045
27.175,0.030
27.180,0.016
27.185,0.016
27.190,0.011
27.195,-0.015
27.200,-0.030
27.205,-0.027
27.210,-0.043
27.215,-0.063
27.220,-0.060
27.225,-0.068
27.230,-0.090
27.235,-0.089
27.240,-0.094
27.245,-0.123
27.250,-0.129
27.255,-0.121
27.260,-0.137
27.265,-0.147
27.270,-0.134
27.275,-0.128
27.280,-0.128
27.285,-0.112
27.290,-0.090
27.295,-0.077
27.300,-0.061
27.305,-0.030
27.310,-0.011
27.315,-0.004
27.320,0.022
27.325,0.042
27.330,0.038
27.335,0.049
27.340,0.064
27.345,0.056
27.350,0.054
27.355,0.067
27.360,0.056
27.365,0.037
27.370,0.057
27.375,0.067
27.380,0.042
27.385,0.039
27.390,0.047
27.395,0.033
27.400,0.026
27.405,0.029
27.410,0.022
27.415,0.015
27.420,0.026
27.425,0.032
27.430,0.015
27.435,0.011
27.440,0.020
27.445,0.007
27.450,-0.002
27.455,0.007
27.460,0.000
27.465,-0.004
27.470,0.012
27.475,0.008
27.480,-0.014
27.485,-0.007
27.490,0.006
27.495,-0.007
27.500,-0.003
27.505,0.017
27.510,0.006
27.515,-0.005
27.520,0.011
27.525,0.006
27.530,-0.017
27.535,-0.002
27.540,0.024
27.545,0.006
27.550,-0.013
27.555,0.001
27.560,0.000
27.565,-0.012
27.570,-0.002
27.575,0.005
27.580,-0.006
27.585,-0.006
27.590,0.002
27.595,-0.007
27.600,-0.013
27.605,-0.003
27.610,-0.012
27.615,-0.026
27.620,-0.011
27.625,-0.001
27.630,-0.010
27.635,-0.004
27.640,-0.003
27.645,-0.025
27.650,-0.025
27.655,-0.001
27.660,0.003
27.665,-0.012
27.670,-0.011
27.675,-0.010
27.680,-0.022
27.685,-0.022
27.690,-0.018
27.695,-0.017
27.700,-0.006
27.705,0.001
27.710,-0.015
27.715,-0.032
27.720,-0.017
27.725,-0.004
27.730,-0.011
27.735,-0.017
27.740,-0.018
27.745,-0.024
27.750,-0.018
27.755,-0.003
27.760,-0.014
27.765,-0.030
27.770,-0.025
27.775,-0.022
27.780,-0.031
27.785,-0.034
27.790,-0.039
27.795,-0.051
27.800,-0.050
27.805,-0.039
27.810,-0.060
27.815,-0.086
27.820,-0.068
27.825,-0.046
27.830,-0.050
27.835,-0.044
27.840,-0.018
27.845,-0.020
27.850,-0.034
27.855,-0.020
27.860,-0.009
27.865,0.001
27.870,0.031
27.875,0.047
27.880,0.043
27.885,0.046
27.890,0.039
27.895,0.013
27.900,0.008
27.905,0.023
27.910,0.016
27.915,0.008
27.920,0.030
27.925,0.038
27.930,0.007
27.935,-0.001
27.940,0.013
27.945,0.005
27.950,0.005
27.955,0.000
27.960,-0.098
27.965,-0.251
27.970,-0.420
27.975,-0.692
27.980,-1.057
27.985,-1.221
27.990,-0.928
27.995,-0.461
28.000,-0.093
28.005,0.204
28.010,0.313
28.015,0.283
28.020,0.293
28.025,0.296
28.030,0.268
28.035,0.277
28.040,0.294
28.045,0.280
28.050,0.275
28.055,0.289
28.060,0.284
28.065,0.256
28.070,0.235
28.075,0.214
28.080,0.197
28.085,0.216
28.090,0.231
28.095,0.197
28.100,0.166
28.105,0.167
28.110,0.157
28.115,0.142
28.120,0.149
28.125,0.151
28.130,0.133
28.135,0.125
28.140,0.132
28.145,0.111
28.150,0.078
28.155,0.080
28.160,0.083
28.165,0.069
28.170,0.069
28.175,0.065
28.180,0.046
28.185,0.039
28.190,0.036
28.195,0.019
28.200,0.009
28.205,0.010
28.210,-0.004
28.215,-0.020
28.220,-0.026
28.225,-0.033
28.230,-0.045
28.235,-0.057
28.240,-0.072
28.245,-0.088
28.250,-0.096
28.255,-0.097
28.260,-0.117
28.265,-0.132
28.270,-0.127
28.275,-0.130
28.280,-0.144
28.285,-0.127
28.290,-0.100
28.295,-0.120
28.300,-0.132
28.305,-0.094
28.310,-0.073
28.315,-0.069
28.320,-0.038
28.325,-0.016
28.330,-0.009
28.335,0.015
28.340,0.047
28.345,0.053
28.350,0.039
28.355,0.042
28.360,0.046
28.365,0.042
28.370,0.054
28.375,0.066
28.380,0.060
28.385,0.058
28.390,0.058
28.395,0.038
28.400,0.027
28.405,0.037
28.410,0.030
28.415,0.026
28.420,0.035
28.425,0.025
28.430,0.016
28.435,0.031
28.440,0.035
28.445,0.006
28.450,-0.007
28.455,0.004
28.460,0.009
28.465,0.010
28.470,0.011
28.475,0.003
28.480,-0.011
28.485,-0.007
28.490,0.017
28.495,0.009
28.500,-0.012
28.505,-0.006
28.510,-0.004
28.515,-0.008
28.520,0.009
28.525,0.016
28.530,0.000
28.535,-0.004
28.540,0.001
28.545,-0.002
28.550,0.002
28.555,0.010
28.560,0.000
28.565,-0.013
28.570,0.002
28.575,0.014
28.580,0.005
28.585,-0.001
28.590,-0.007
28.595,-0.026
28.600,-0.022
28.605,0.012
28.610,0.008
28.615,-0.010
28.620,0.001
28.625,-0.004
28.630,-0.025
28.635,-0.019
28.640,-0.008
28.645,-0.013
28.650,-0.010
28.655,0.005
28.660,0.001
28.665,-0.020
28.670,-0.020
28.675,-0.014
28.680,-0.023
28.685,-0.013
28.690,-0.002
28.695,-0.023
28.700,-0.020
28.705,0.006
28.710,-0.007
28.715,-0.031
28.720,-0.014
28.725,-0.007
28.730,-0.032
28.735,-0.032
28.740,-0.007
28.745,-0.002
28.750,-0.010
28.755,-0.011
28.760,-0.020
28.765,-0.030
28.770,-0.014
28.775,-0.012
28.780,-0.043
28.785,-0.049
28.790,-0.031
28.795,-0.045
28.800,-0.059
28.805,-0.043
28.810,-0.040
28.815,-0.053
28.820,-0.058
28.825,-0.072
28.830,-0.074
28.835,-0.044
28.840,-0.025
28.845,-0.033
28.850,-0.030
28.855,-0.014
28.860,-0.016
28.865,-0.008
28.870,0.025
28.875,0.035
28.880,0.027
28.885,0.030
28.890,0.033
28.895,0.029
28.900,0.025
28.905,0.027
28.910,0.019
28.915,0.013
28.920,0.031
28.925,0.040
28.930,0.024
28.935,0.016
28.940,0.018
28.945,0.003
28.950,-0.002
28.955,0.012
28.960,-0.039
28.965,-0.166
28.970,-0.297
28.975,-0.484
28.980,-0.779
28.985,-1.085
28.990,-1.127
28.995,-0.782
29.000,-0.353
29.005,0.005
29.010,0.256
29.015,0.294
29.020,0.282
29.025,0.304
29.030,0.286
29.035,0.279
29.040,0.300
29.045,0.301
29.050,0.294
29.055,0.292
29.060,0.273
29.065,0.251
29.070,0.249
29.075,0.248
29.080,0.222
29.085,0.206
29.090,0.213
29.095,0.195
29.100,0.180
29.105,0.196
29.110,0.182
29.115,0.154
29.120,0.160
29.125,0.162
29.130,0.136
29.135,0.118
29.140,0.121
29.145,0.113
29.150,0.098
29.155,0.094
29.160,0.091
29.165,0.082
29.170,0.075
29.175,0.066
29.180,0.050
29.185,0.048
29.190,0.054
29.195,0.034
29.200,0.011
29.205,0.012
29.210,0.002
29.215,-0.022
29.220,-0.027
29.225,-0.021
29.230,-0.029
29.235,-0.042
29.240,-0.053
29.245,-0.069
29.250,-0.083
29.255,-0.094
29.260,-0.111
29.265,-0.128
29.270,-0.125
29.275,-0.118
29.280,-0.129
29.285,-0.130
29.290,-0.120
29.295,-0.133
29.300,-0.130
29.305,-0.094
29.310,-0.083
29.315,-0.087
29.320,-0.053
29.325,-0.028
29.330,-0.028
29.335,-0.009
29.340,0.016
29.345,0.028
29.350,0.044
29.355,0.058
29.360,0.054
29.365,0.046
29.370,0.058
29.375,0.065
29.380,0.048
29.385,0.048
29.390,0.054
29.395,0.038
29.400,0.032
29.405,0.050
29.410,0.041
29.415,0.014
29.420,0.020
29.425,0.025
29.430,0.011
29.435,0.019
29.440,0.030
29.445,0.017
29.450,0.007
29.455,0.018
29.460,0.018
29.465,0.011
29.470,0.013
29.475,0.002
29.480,-0.017
29.485,-0.010
29.490,0.004
29.495,-0.005
29.500,-0.012
29.505,-0.002
29.510,-0.002
29.515,-0.009
29.520,-0.001
29.525,0.011
29.530,0.009
29.535,0.002
29.540,0.006
29.545,0.008
29.550,-0.004
29.555,-0.009
29.560,-0.008
29.565,-0.018
29.570,-0.009
29.575,0.003
29.580,-0.008
29.585,-0.002
29.590,0.018
29.595,0.009
29.600,-0.008
29.605,-0.001
29.610,0.002
29.615,-0.009
29.620,-0.003
29.625,-0.008
29.630,-0.028
29.635,-0.016
29.640,0.006
29.645,-0.005
29.650,-0.020
29.655,-0.004
29.660,0.008
29.665,-0.002
29.670,-0.002
29.675,-0.006
29.680,-0.026
29.685,-0.022
29.690,0.001
29.695,-0.005
29.700,-0.021
29.705,-0.011
29.710,-0.007
29.715,-0.018
29.720,-0.013
29.725,-0.005
29.730,-0.013
29.735,-0.015
29.740,-0.014
29.745,-0.020
29.750,-0.018
29.755,-0.011
29.760,-0.015
29.765,-0.019
29.770,-0.009
29.775,0.000
29.780,-0.014
29.785,-0.016
29.790,-0.001
29.795,-0.016
29.800,-0.039
29.805,-0.032
29.810,-0.025
29.815,-0.028
29.820,-0.033
29.825,-0.041
29.830,-0.050
29.835,-0.043
29.840,-0.029
29.845,-0.043
29.850,-0.069
29.855,-0.072
29.860,-0.065
29.865,-0.053
29.870,-0.038
29.875,-0.031
29.880,-0.033
29.885,-0.023
29.890,-0.001
29.895,-0.006
29.900,-0.012
29.905,0.020
29.910,0.038
29.915,0.028
29.920,0.034
29.925,0.040
29.930,0.033
29.935,0.033
29.940,0.032
29.945,0.020
29.950,0.010
29.955,0.025
29.960,0.027
29.965,0.006
29.970,0.012
29.975,0.027
29.980,0.014
29.985,0.010
29.990,0.021
29.995,-0.012
30.000,-0.100
30.005,-0.216
30.010,-0.390
30.015,-0.646
30.020,-0.944
30.025,-1.159
30.030,-1.003
30.035,-0.552
30.040,-0.167
30.045,0.133
30.050,0.291
30.055,0.291
30.060,0.289
30.065,0.289
30.070,0.290
30.075,0.303
30.080,0.303
30.085,0.302
30.090,0.294
30.095,0.272
30.100,0.250
30.105,0.250
30.110,0.250
30.115,0.232
30.120,0.225
30.125,0.220
30.130,0.198
30.135,0.200
30.140,0.208
30.145,0.186
30.150,0.165
30.155,0.164
30.160,0.154
30.165,0.138
30.170,0.146
30.175,0.145
30.180,0.110
30.185,0.098
30.190,0.115
30.195,0.108
30.200,0.090
30.205,0.088
30.210,0.072
30.215,0.051
30.220,0.057
30.225,0.061
30.230,0.039
30.235,0.025
30.240,0.023
30.245,0.009
30.250,-0.001
30.255,0.005
30.260,-0.014
30.265,-0.056
30.270,-0.065
30.275,-0.044
30.280,-0.054
30.285,-0.081
30.290,-0.085
30.295,-0.098
30.300,-0.119
30.305,-0.119
30.310,-0.120
30.315,-0.136
30.320,-0.136
30.325,-0.128
30.330,-0.138
30.335,-0.135
30.340,-0.111
30.345,-0.103
30.350,-0.097
30.355,-0.068
30.360,-0.044
30.365,-0.036
30.370,-0.011
30.375,0.020
30.380,0.017
30.385,0.020
30.390,0.047
30.395,0.048
30.400,0.044
30.405,0.070
30.410,0.078
30.415,0.059
30.420,0.055
30.425,0.061
30.430,0.049
30.435,0.047
30.440,0.058
30.445,0.045
30.450,0.023
30.455,0.028
30.460,0.028
30.465,0.007
30.470,0.016
30.475,0.035
30.480,0.020
30.485,0.013
30.490,0.027
30.495,0.022
30.500,0.012
30.505,0.016
30.510,0.008
30.515,-0.013
30.520,-0.016
30.525,-0.005
30.530,-0.005
30.535,-0.005
30.540,0.003
30.545,-0.002
30.550,-0.007
30.555,0.007
30.560,0.013
30.565,0.004
30.570,0.004
30.575,0.002
30.580,-0.017
30.585,-0.016
30.590,0.008
30.595,0.005
30.600,-0.016
30.605,-0.010
30.610,0.003
30.615,0.002
30.620,0.008
30.625,0.009
30.630,-0.015
30.635,-0.018
30.640,0.000
30.645,-0.004
30.650,-0.013
30.655,-0.001
30.660,0.003
30.665,-0.013
30.670,-0.019
30.675,-0.009
30.680,-0.009
30.685,-0.009
30.690,0.007
30.695,0.000
30.700,-0.015
30.705,-0.004
30.710,-0.003
30.715,-0.018
30.720,-0.016
30.725,-0.011
30.730,-0.025
30.735,-0.025
30.740,-0.011
30.745,-0.017
30.750,-0.021
30.755,-0.008
30.760,-0.007
30.765,-0.021
30.770,-0.020
30.775,-0.005
30.780,-0.010
30.785,-0.016
30.790,-0.005
30.795,-0.012
30.800,-0.028
30.805,-0.022
30.810,-0.019
30.815,-0.032
30.820,-0.027
30.825,-0.010
30.830,-0.018
30.835,-0.026
30.840,-0.012
30.845,-0.009
30.850,-0.013
30.855,-0.008
30.860,-0.012
30.865,-0.025
30.870,-0.023
30.875,-0.022
30.880,-0.044
30.885,-0.052
30.890,-0.042
30.895,-0.052
30.900,-0.061
30.905,-0.047
30.910,-0.048
30.915,-0.070
30.920,-0.073
30.925,-0.051
30.930,-0.041
30.935,-0.042
30.940,-0.025
30.945,-0.016
30.950,-0.027
30.955,-0.022
30.960,-0.007
30.965,0.003
30.970,0.030
30.975,0.046
30.980,0.025
30.985,0.019
30.990,0.042
30.995,0.044
31.000,0.027
31.005,0.029
31.010,0.032
31.015,0.022
31.020,0.027
31.025,0.036
31.030,0.020
31.035,0.013
31.040,0.030
31.045,0.025
31.050,0.008
31.055,0.015
31.060,0.011
31.065,-0.050
31.070,-0.149
31.075,-0.281
31.080,-0.481
31.085,-0.748
31.090,-1.045
31.095,-1.148
31.100,-0.832
31.105,-0.374
31.110,-0.030
31.115,0.227
31.120,0.315
31.125,0.292
31.130,0.282
31.135,0.288
31.140,0.307
31.145,0.306
31.150,0.289
31.155,0.290
31.160,0.291
31.165,0.275
31.170,0.271
31.175,0.271
31.180,0.237
31.185,0.212
31.190,0.223
31.195,0.224
31.200,0.208
31.205,0.206
31.210,0.199
31.215,0.172
31.220,0.167
31.225,0.171
31.230,0.152
31.235,0.135
31.240,0.131
31.245,0.115
31.250,0.096
31.255,0.102
31.260,0.101
31.265,0.068
31.270,0.060
31.275,0.081
31.280,0.069
31.285,0.050
31.290,0.055
31.295,0.045
31.300,0.026
31.305,0.027
31.310,0.023
31.315,0.002
31.320,-0.006
31.325,-0.010
31.330,-0.031
31.335,-0.042
31.340,-0.037
31.345,-0.054
31.350,-0.084
31.355,-0.093
31.360,-0.098
31.365,-0.119
31.370,-0.130
31.375,-0.129
31.380,-0.136
31.385,-0.135
31.390,-0.127
31.395,-0.140
31.400,-0.149
31.405,-0.130
31.410,-0.118
31.415,-0.115
31.420,-0.087
31.425,-0.050
31.430,-0.039
31.435,-0.031
31.440,-0.001
31.445,0.017
31.450,0.025
31.455,0.052
31.460,0.062
31.465,0.051
31.470,0.061
31.475,0.076
31.480,0.060
31.485,0.054
31.490,0.070
31.495,0.067
31.500,0.051
31.505,0.049
31.510,0.050
31.515,0.043
31.520,0.046
31.525,0.053
31.530,0.038
31.535,0.020
31.540,0.031
31.545,0.035
31.550,0.020
31.555,0.022
31.560,0.021
31.565,0.005
31.570,0.003
31.575,0.010
31.580,0.002
31.585,-0.003
31.590,0.007
31.595,0.000
31.600,-0.011
31.605,0.002
31.610,0.006
31.615,-0.009
31.620,-0.005
31.625,0.008
31.630,0.003
31.635,-0.009
31.640,-0.005
31.645,-0.002
31.650,-0.009
31.655,0.002
31.660,0.012
31.665,0.001
31.670,0.000
31.675,0.008
31.680,-0.004
31.685,-0.013
31.690,-0.001
31.695,-0.001
31.700,-0.007
31.705,0.004
31.710,0.007
31.715,-0.005
31.720,-0.002
31.725,0.007
31.730,-0.005
31.735,-0.016
31.740,-0.010
31.745,-0.011
31.750,-0.018
31.755,-0.011
31.760,-0.007
31.765,-0.023
31.770,-0.025
31.775,-0.006
31.780,-0.006
31.785,-0.008
31.790,0.004
31.795,-0.006
31.800,-0.025
31.805,-0.020
31.810,-0.017
31.815,-0.028
31.820,-0.019
31.825,-0.005
31.830,-0.013
31.835,-0.014
31.840,0.005
31.845,0.005
31.850,-0.016
31.855,-0.016
31.860,-0.014
31.865,-0.027
31.870,-0.020
31.875,-0.004
31.880,-0.015
31.885,-0.028
31.890,-0.019
31.895,-0.018
31.900,-0.025
31.905,-0.013
31.910,-0.012
31.915,-0.029
31.920,-0.024
31.925,-0.004
31.930,-0.007
31.935,-0.014
31.940,-0.009
31.945,-0.023
31.950,-0.041
31.955,-0.029
31.960,-0.022
31.965,-0.039
31.970,-0.042
31.975,-0.036
31.980,-0.045
31.985,-0.052
31.990,-0.053
31.995,-0.072
32.000,-0.084
32.005,-0.057
32.010,-0.036
32.015,-0.038
32.020,-0.019
32.025,0.000
32.030,-0.018
32.035,-0.033
32.040,-0.016
32.045,0.013
32.050,0.033
32.055,0.048
32.060,0.051
32.065,0.032
32.070,0.029
32.075,0.041
32.080,0.030
32.085,0.020
32.090,0.032
32.095,0.031
32.100,0.020
32.105,0.026
32.110,0.025
32.115,0.009
32.120,0.010
32.125,0.020
32.130,0.008
32.135,0.003
32.140,-0.008
32.145,-0.097
32.150,-0.241
32.155,-0.395
32.160,-0.621
32.165,-0.941
32.170,-1.164
32.175,-0.977
32.180,-0.535
32.185,-0.172
32.190,0.147
32.195,0.307
32.200,0.281
32.205,0.281
32.210,0.291
32.215,0.271
32.220,0.278
32.225,0.303
32.230,0.296
32.235,0.278
32.240,0.283
32.245,0.277
32.250,0.252
32.255,0.243
32.260,0.237
32.265,0.215
32.270,0.208
32.275,0.218
32.280,0.205
32.285,0.184
32.290,0.181
32.295,0.170
32.300,0.153
32.305,0.157
32.310,0.157
32.315,0.134
32.320,0.118
32.325,0.111
32.330,0.098
32.335,0.093
32.340,0.100
32.345,0.095
32.350,0.074
32.355,0.068
32.360,0.068
32.365,0.051
32.370,0.041
32.375,0.040
32.380,0.020
32.385,0.001
32.390,0.003
32.395,-0.002
32.400,-0.016
32.405,-0.012
32.410,-0.018
32.415,-0.052
32.420,-0.066
32.425,-0.062
32.430,-0.082
32.435,-0.103
32.440,-0.101
32.445,-0.106
32.450,-0.122
32.455,-0.119
32.460,-0.120
32.465,-0.142
32.470,-0.146
32.475,-0.133
32.480,-0.139
32.485,-0.139
32.490,-0.114
32.495,-0.097
32.500,-0.088
32.505,-0.060
32.510,-0.027
32.515,-0.012
32.520,0.004
32.525,0.030
32.530,0.036
32.535,0.039
32.540,0.058
32.545,0.062
32.550,0.057
32.555,0.067
32.560,0.071
32.565,0.056
32.570,0.051
32.575,0.058
32.580,0.046
32.585,0.036
32.590,0.051
32.595,0.056
32.600,0.041
32.605,0.038
32.610,0.043
32.615,0.031
32.620,0.024
32.625,0.029
32.630,0.019
32.635,0.014
32.640,0.027
32.645,0.023
32.650,0.004
32.655,0.005
32.660,0.009
32.665,-0.001
32.670,0.004
32.675,0.018
32.680,0.008
32.685,-0.001
32.690,0.010
32.695,0.012
32.700,0.003
32.705,0.005
32.710,0.010
32.715,0.000
32.720,0.003
32.725,0.015
32.730,0.002
32.735,-0.011
32.740,-0.001
32.745,0.009
32.750,0.004
32.755,0.003
32.760,0.008
32.765,-0.003
32.770,-0.007
32.775,0.004
32.780,-0.007
32.785,-0.017
32.790,-0.002
32.795,0.004
32.800,-0.007
32.805,-0.005
32.810,0.000
32.815,-0.008
32.820,-0.006
32.825,-0.003
32.830,-0.016
32.835,-0.019
32.840,-0.002
32.845,-0.004
32.850,-0.021
32.855,-0.015
32.860,-0.009
32.865,-0.024
32.870,-0.022
32.875,-0.009
32.880,-0.013
32.885,-0.014
32.890,-0.004
32.895,-0.008
32.900,-0.020
32.905,-0.016
32.910,-0.010
32.915,-0.021
32.920,-0.030
32.925,-0.022
32.930,-0.015
32.935,-0.013
32.940,-0.003
32.945,-0.006
32.950,-0.020
32.955,-0.016
32.960,-0.013
32.965,-0.025
32.970,-0.024
32.975,-0.015
32.980,-0.027
32.985,-0.037
32.990,-0.016
32.995,-0.008
33.000,-0.024
33.005,-0.024
33.010,-0.025
33.015,-0.046
33.020,-0.050
33.025,-0.038
33.030,-0.046
33.035,-0.056
33.040,-0.051
33.045,-0.063
33.050,-0.086
33.055,-0.070
33.060,-0.046
33.065,-0.052
33.070,-0.040
33.075,-0.008
33.080,-0.011
33.085,-0.020
33.090,0.000
33.095,0.016
33.100,0.020
33.105,0.032
33.110,0.033
33.115,0.012
33.120,0.016
33.125,0.039
33.130,0.032
33.135,0.022
33.140,0.034
33.145,0.030
33.150,0.013
33.155,0.022
33.160,0.030
33.165,0.011
33.170,0.001
33.175,0.009
33.180,0.007
33.185,0.008
33.190,-0.006
33.195,-0.094
33.200,-0.233
33.205,-0.408
33.210,-0.680
33.215,-1.030
33.220,-1.181
33.225,-0.899
33.230,-0.467
33.235,-0.113
33.240,0.199
33.245,0.314
33.250,0.275
33.255,0.278
33.260,0.285
33.265,0.269
33.270,0.282
33.275,0.312
33.280,0.304
33.285,0.284
33.290,0.279
33.295,0.261
33.300,0.242
33.305,0.243
33.310,0.239
33.315,0.217
33.320,0.207
33.325,0.215
33.330,0.201
33.335,0.171
33.340,0.166
33.345,0.168
33.350,0.153
33.355,0.148
33.360,0.150
33.365,0.136
33.370,0.124
33.375,0.121
33.380,0.102
33.385,0.080
33.390,0.083
33.395,0.082
33.400,0.066
33.405,0.069
33.410,0.079
33.415,0.058
33.420,0.037
33.425,0.034
33.430,0.020
33.435,0.009
33.440,0.014
33.445,0.005
33.450,-0.011
33.455,-0.011
33.460,-0.018
33.465,-0.045
33.470,-0.064
33.475,-0.069
33.480,-0.082
33.485,-0.087
33.490,-0.076
33.495,-0.084
33.500,-0.105
33.505,-0.106
33.510,-0.121
33.515,-0.159
33.520,-0.162
33.525,-0.132
33.530,-0.115
33.535,-0.109
33.540,-0.094
33.545,-0.085
33.550,-0.085
33.555,-0.068
33.560,-0.041
33.565,-0.020
33.570,0.004
33.575,0.028
33.580,0.038
33.585,0.044
33.590,0.059
33.595,0.062
33.600,0.041
33.605,0.037
33.610,0.050
33.615,0.047
33.620,0.050
33.625,0.046
33.630,0.024
33.635,0.031
33.640,0.047
33.645,0.038
33.650,0.022
33.655,0.024
33.660,0.036
33.665,0.019
33.670,0.011
33.675,0.029
33.680,0.021
33.685,0.009
33.690,0.015
33.695,0.012
33.700,0.008
33.705,0.011
33.710,0.009
33.715,0.006
33.720,0.010
33.725,0.015
33.730,0.004
33.735,-0.017
33.740,-0.012
33.745,0.003
33.750,-0.008
33.755,-0.001
33.760,0.020
33.765,0.012
33.770,0.001
33.775,0.004
33.780,0.000
33.785,0.012
33.790,0.035
33.795,0.027
33.800,0.001
33.805,-0.013
33.810,-0.010
33.815,-0.008
33.820,0.005
33.825,0.030
33.830,0.016
33.835,-0.008
33.840,0.002
33.845,-0.003
33.850,-0.023
33.855,-0.022
33.860,-0.016
33.865,-0.017
33.870,-0.010
33.875,0.002
33.880,-0.004
33.885,-0.027
33.890,-0.031
33.895,-0.027
33.900,-0.037
33.905,-0.023
33.910,0.002
33.915,-0.004
33.920,-0.010
33.925,0.003
33.930,-0.001
33.935,-0.010
33.940,-0.002
33.945,-0.008
33.950,-0.032
33.955,-0.038
33.960,-0.023
33.965,-0.021
33.970,-0.020
33.975,-0.013
33.980,-0.018
33.985,-0.013
33.990,-0.001
33.995,-0.012
34.000,-0.029
34.005,-0.023
34.010,-0.018
34.015,-0.034
34.020,-0.035
34.025,-0.022
34.030,-0.036
34.035,-0.058
34.040,-0.043
34.045,-0.027
34.050,-0.036
34.055,-0.038
34.060,-0.051
34.065,-0.080
34.070,-0.076
34.075,-0.047
34.080,-0.041
34.085,-0.043
34.090,-0.026
34.095,-0.015
34.100,-0.008
34.105,0.000
34.110,0.003
34.115,0.014
34.120,0.036
34.125,0.053
34.130,0.038
34.135,0.023
34.140,0.037
34.145,0.031
34.150,0.001
34.155,-0.001
34.160,0.017
34.165,0.008
34.170,0.006
34.175,0.029
34.180,0.021
34.185,0.011
34.190,0.032
34.195,0.028
34.200,-0.003
34.205,-0.046
34.210,-0.147
34.215,-0.315
34.220,-0.526
34.225,-0.829
34.230,-1.128
34.235,-1.037
34.240,-0.606
34.245,-0.265
34.250,0.026
34.255,0.268
34.260,0.291
34.265,0.253
34.270,0.279
34.275,0.306
34.280,0.298
34.285,0.287
34.290,0.291
34.295,0.288
34.300,0.282
34.305,0.289
34.310,0.267
34.315,0.221
34.320,0.218
34.325,0.237
34.330,0.223
34.335,0.209
34.340,0.214
34.345,0.190
34.350,0.163
34.355,0.179
34.360,0.190
34.365,0.178
34.370,0.165
34.375,0.133
34.380,0.086
34.385,0.072
34.390,0.092
34.395,0.084
34.400,0.062
34.405,0.070
34.410,0.070
34.415,0.054
34.420,0.067
34.425,0.079
34.430,0.046
34.435,0.024
34.440,0.030
34.445,0.006
34.450,-0.021
34.455,-0.012
34.460,-0.018
34.465,-0.046
34.470,-0.045
34.475,-0.041
34.480,-0.067
34.485,-0.073
34.490,-0.065
34.495,-0.095
34.500,-0.124
34.505,-0.115
34.510,-0.116
34.515,-0.132
34.520,-0.139
34.525,-0.151
34.530,-0.156
34.535,-0.145
34.540,-0.122
34.545,-0.111
34.550,-0.113
34.555,-0.093
34.560,-0.061
34.565,-0.054
34.570,-0.044
34.575,-0.012
34.580,-0.010
34.585,-0.008
34.590,0.038
34.595,0.050
34.600,0.039
34.605,0.061
34.610,0.051
34.615,0.018
34.620,0.027
34.625,0.040
34.630,0.026
34.635,0.028
34.640,0.056
34.645,0.050
34.650,0.021
34.655,0.033
34.660,0.051
34.665,0.036
34.670,0.030
34.675,0.027
34.680,-0.006
34.685,-0.016
34.690,0.020
34.695,0.028
34.700,0.006
34.705,0.018
34.710,0.028
34.715,0.002
34.720,-0.005
34.725,0.009
34.730,-0.002
34.735,-0.011
34.740,0.009
34.745,0.011
34.750,-0.010
34.755,-0.011
34.760,-0.007
34.765,-0.014
34.770,-0.003
34.775,0.011
34.780,-0.001
34.785,-0.003
34.790,0.021
34.795,0.031
34.800,0.025
34.805,0.029
34.810,0.030
34.815,0.012
34.820,0.006
34.825,0.016
34.830,-0.001
34.835,-0.012
34.840,0.009
34.845,0.008
34.850,-0.017
34.855,-0.018
34.860,-0.004
34.865,-0.009
34.870,-0.004
34.875,0.012
34.880,0.000
34.885,-0.010
34.890,0.000
34.895,-0.012
34.900,-0.026
34.905,0.000
34.910,0.017
34.915,0.007
34.920,0.020
34.925,0.037
34.930,0.014
34.935,0.002
34.940,0.021
34.945,0.015
34.950,-0.007
34.955,0.001
34.960,0.011
34.965,-0.004
34.970,-0.005
34.975,-0.001
34.980,-0.024
34.985,-0.036
34.990,-0.026
34.995,-0.029
35.000,-0.034
35.005,-0.021
35.010,-0.024
35.015,-0.047
35.020,-0.040
35.025,-0.023
35.030,-0.037
35.035,-0.053
35.040,-0.050
35.045,-0.050
35.050,-0.052
35.055,-0.038
35.060,-0.033
35.065,-0.051
35.070,-0.046
35.075,-0.035
35.080,-0.056
35.085,-0.065
35.090,-0.050
35.095,-0.066
35.100,-0.087
35.105,-0.056
35.110,-0.041
35.115,-0.069
35.120,-0.050
35.125,-0.004
35.130,-0.006
35.135,-0.012
35.140,0.009
35.145,0.009
35.150,0.010
35.155,0.039
35.160,0.047
35.165,0.032
35.170,0.039
35.175,0.051
35.180,0.033
35.185,0.027
35.190,0.054
35.195,0.047
35.200,0.029
35.205,0.051
35.210,0.067
35.215,0.052
35.220,0.049
35.225,0.058
35.230,0.030
35.235,-0.032
35.240,-0.117
35.245,-0.253
35.250,-0.450
35.255,-0.693
35.260,-0.999
35.265,-1.139
35.270,-0.848
35.275,-0.415
35.280,-0.099
35.285,0.161
35.290,0.283
35.295,0.271
35.300,0.245
35.305,0.258
35.310,0.275
35.315,0.265
35.320,0.279
35.325,0.293
35.330,0.265
35.335,0.246
35.340,0.258
35.345,0.245
35.350,0.215
35.355,0.224
35.360,0.231
35.365,0.202
35.370,0.195
35.375,0.201
35.380,0.171
35.385,0.146
35.390,0.158
35.395,0.150
35.400,0.120
35.405,0.122
35.410,0.127
35.415,0.096
35.420,0.086
35.425,0.099
35.430,0.076
35.435,0.055
35.440,0.072
35.445,0.069
35.450,0.047
35.455,0.054
35.460,0.058
35.465,0.031
35.470,0.023
35.475,0.035
35.480,0.011
35.485,-0.010
35.490,0.014
35.495,0.017
35.500,-0.008
35.505,-0.009
35.510,-0.010
35.515,-0.033
35.520,-0.042
35.525,-0.053
35.530,-0.094
35.535,-0.110
35.540,-0.092
35.545,-0.100
35.550,-0.126
35.555,-0.123
35.560,-0.116
35.565,-0.137
35.570,-0.139
35.575,-0.114
35.580,-0.107
35.585,-0.102
35.590,-0.076
35.595,-0.060
35.600,-0.048
35.605,-0.013
35.610,0.016
35.615,0.016
35.620,0.024
35.625,0.047
35.630,0.046
35.635,0.036
35.640,0.050
35.645,0.056
35.650,0.042
35.655,0.049
35.660,0.060
35.665,0.038
35.670,0.032
35.675,0.048
35.680,0.033
35.685,0.019
35.690,0.034
35.695,0.034
35.700,0.017
35.705,0.027
35.710,0.037
35.715,0.018
35.720,0.015
35.725,0.032
35.730,0.030
35.735,0.030
35.740,0.045
35.745,0.034
35.750,0.012
35.755,0.026
35.760,0.041
35.765,0.022
35.770,0.020
35.775,0.038
35.780,0.026
35.785,0.016
35.790,0.033
35.795,0.032
35.800,0.015
35.805,0.023
35.810,0.033
35.815,0.018
35.820,0.015
35.825,0.025
35.830,0.004
35.835,-0.013
35.840,0.012
35.845,0.019
35.850,-0.002
35.855,0.002
35.860,0.003
35.865,-0.014
35.870,-0.007
35.875,0.009
35.880,-0.009
35.885,-0.024
35.890,-0.009
35.895,-0.017
35.900,-0.038
35.905,-0.017
35.910,0.000
35.915,-0.018
35.920,-0.019
35.925,-0.009
35.930,-0.029
35.935,-0.042
35.940,-0.020
35.945,-0.014
35.950,-0.026
35.955,-0.014
35.960,-0.004
35.965,-0.021
35.970,-0.022
35.975,-0.007
35.980,-0.008
35.985,-0.011
35.990,-0.007
35.995,-0.026
36.000,-0.047
36.005,-0.027
36.010,-0.012
36.015,-0.029
36.020,-0.023
36.025,0.000
36.030,-0.013
36.035,-0.026
36.040,-0.007
36.045,-0.014
36.050,-0.039
36.055,-0.027
36.060,-0.010
36.065,-0.025
36.070,-0.026
36.075,-0.011
36.080,-0.030
36.085,-0.049
36.090,-0.036
36.095,-0.042
36.100,-0.073
36.105,-0.076
36.110,-0.074
36.115,-0.085
36.120,-0.057
36.125,-0.027
36.130,-0.039
36.135,-0.037
36.140,-0.010
36.145,-0.009
36.150,-0.019
36.155,0.007
36.160,0.046
36.165,0.046
36.170,0.043
36.175,0.056
36.180,0.043
36.185,0.022
36.190,0.031
36.195,0.033
36.200,0.019
36.205,0.025
36.210,0.038
36.215,0.031
36.220,0.028
36.225,0.026
36.230,0.010
36.235,0.016
36.240,0.027
36.245,-0.021
36.250,-0.130
36.255,-0.236
36.260,-0.372
36.265,-0.638
36.270,-0.982
36.275,-1.133
36.280,-0.896
36.285,-0.488
36.290,-0.116
36.295,0.186
36.300,0.286
36.305,0.275
36.310,0.303
36.315,0.326
36.320,0.342
36.325,0.353
36.330,0.333
36.335,0.293
36.340,0.270
36.345,0.247
36.350,0.208
36.355,0.223
36.360,0.249
36.365,0.212
36.370,0.188
36.375,0.197
36.380,0.179
36.385,0.155
36.390,0.154
36.395,0.149
36.400,0.127
36.405,0.125
36.410,0.139
36.415,0.129
36.420,0.120
36.425,0.125
36.430,0.110
36.435,0.100
36.440,0.124
36.445,0.125
36.450,0.095
36.455,0.091
36.460,0.082
36.465,0.044
36.470,0.026
36.475,0.028
36.480,0.022
36.485,0.020
36.490,0.028
36.495,0.001
36.500,-0.041
36.505,-0.043
36.510,-0.029
36.515,-0.041
36.520,-0.062
36.525,-0.070
36.530,-0.091
36.535,-0.112
36.540,-0.114
36.545,-0.136
36.550,-0.163
36.555,-0.158
36.560,-0.150
36.565,-0.156
36.570,-0.144
36.575,-0.117
36.580,-0.109
36.585,-0.121
36.590,-0.122
36.595,-0.124
36.600,-0.121
36.605,-0.084
36.610,-0.041
36.615,-0.016
36.620,-0.003
36.625,0.024
36.630,0.037
36.635,0.000
36.640,-0.010
36.645,0.030
36.650,0.065
36.655,0.098
36.660,0.108
36.665,0.063
36.670,0.034
36.675,0.048
36.680,0.052
36.685,0.054
36.690,0.064
36.695,0.062
36.700,0.045
36.705,0.019
36.710,0.005
36.715,0.001
36.720,0.009
36.725,0.028
36.730,0.024
36.735,0.022
36.740,0.029
36.745,0.014
36.750,0.005
36.755,0.009
36.760,0.007
36.765,0.005
36.770,0.000
36.775,-0.009
36.780,-0.014
36.785,-0.016
36.790,-0.004
36.795,0.007
36.800,0.000
36.805,0.007
36.810,0.015
36.815,-0.005
36.820,-0.017
36.825,0.005
36.830,0.041
36.835,0.047
36.840,0.016
36.845,-0.006
36.850,-0.002
36.855,0.014
36.860,0.038
36.865,0.035
36.870,0.006
36.875,0.011
36.880,0.021
36.885,-0.016
36.890,-0.029
36.895,-0.013
36.900,-0.024
36.905,-0.023
36.910,0.007
36.915,0.021
36.920,0.014
36.925,0.013
36.930,0.005
36.935,-0.027
36.940,-0.038
36.945,-0.008
36.950,0.001
36.955,-0.001
36.960,0.022
36.965,0.018
36.970,0.001
36.975,0.007
36.980,-0.001
36.985,-0.013
36.990,-0.002
36.995,0.008
37.000,0.005
37.005,0.025
37.010,0.033
37.015,-0.009
37.020,-0.026
37.025,-0.003
37.030,-0.006
37.035,-0.032
37.040,-0.023
37.045,-0.003
37.050,-0.017
37.055,-0.050
37.060,-0.061
37.065,-0.016
37.070,0.039
37.075,0.019
37.080,-0.077
37.085,-0.172
37.090,-0.178
37.095,-0.119
37.100,-0.073
37.105,-0.040
37.110,-0.029
37.115,-0.065
37.120,-0.090
37.125,-0.047
37.130,0.005
37.135,0.022
37.140,0.017
37.145,-0.003
37.150,-0.022
37.155,-0.015
37.160,0.016
37.165,0.036
37.170,0.017
37.175,-0.019
37.180,-0.034
37.185,-0.035
37.190,-0.020
37.195,0.010
37.200,0.015
37.205,0.006
37.210,-0.010
37.215,-0.080
37.220,-0.179
37.225,-0.321
37.230,-0.614
37.235,-1.010
37.240,-1.217
37.245,-0.984
37.250,-0.530
37.255,-0.144
37.260,0.152
37.265,0.259
37.270,0.231
37.275,0.256
37.280,0.286
37.285,0.257
37.290,0.248
37.295,0.269
37.300,0.274
37.305,0.291
37.310,0.312
37.315,0.276
37.320,0.200
37.325,0.185
37.330,0.228
37.335,0.218
37.340,0.174
37.345,0.161
37.350,0.160
37.355,0.171
37.360,0.187
37.365,0.176
37.370,0.154
37.375,0.151
37.380,0.118
37.385,0.065
37.390,0.076
37.395,0.118
37.400,0.124
37.405,0.105
37.410,0.078
37.415,0.065
37.420,0.079
37.425,0.096
37.430,0.086
37.435,0.038
37.440,0.002
37.445,0.014
37.450,0.009
37.455,-0.010
37.460,0.006
37.465,-0.001
37.470,-0.035
37.475,-0.033
37.480,-0.034
37.485,-0.058
37.490,-0.061
37.495,-0.053
37.500,-0.063
37.505,-0.076
37.510,-0.074
37.515,-0.072
37.520,-0.075
37.525,-0.067
37.530,-0.069
37.535,-0.097
37.540,-0.110
37.545,-0.099
37.550,-0.106
37.555,-0.104
37.560,-0.068
37.565,-0.054
37.570,-0.055
37.575,-0.030
37.580,-0.007
37.585,0.004
37.590,0.029
37.595,0.062
37.600,0.068
37.605,0.055
37.610,0.059
37.615,0.067
37.620,0.077
37.625,0.091
37.630,0.076
37.635,0.061
37.640,0.081
37.645,0.096
37.650,0.074
37.655,0.053
37.660,0.059
37.665,0.058
37.670,0.050
37.675,0.056
37.680,0.043
37.685,0.012
37.690,0.022
37.695,0.038
37.700,0.027
37.705,0.032
37.710,0.055
37.715,0.057
37.720,0.049
37.725,0.055
37.730,0.055
37.735,0.049
37.740,0.052
37.745,0.041
37.750,0.011
37.755,-0.015
37.760,-0.023
37.765,-0.034
37.770,-0.046
37.775,-0.029
37.780,-0.008
37.785,-0.009
37.790,-0.013
37.795,-0.016
37.800,-0.034
37.805,-0.038
37.810,-0.016
37.815,-0.011
37.820,-0.021
37.825,-0.016
37.830,-0.007
37.835,-0.001
37.840,0.030
37.845,0.063
37.850,0.050
37.855,0.020
37.860,0.005
37.865,-0.002
37.870,-0.001
37.875,0.012
37.880,0.024
37.885,0.016
37.890,0.025
37.895,0.037
37.900,0.012
37.905,-0.001
37.910,0.022
37.915,0.037
37.920,0.031
37.925,0.030
37.930,0.028
37.935,0.016
37.940,0.019
37.945,0.023
37.950,-0.007
37.955,-0.020
37.960,0.008
37.965,0.008
37.970,-0.006
37.975,0.007
37.980,0.007
37.985,-0.006
37.990,-0.007
37.995,-0.015
38.000,-0.037
38.005,-0.036
38.010,-0.016
38.015,-0.015
38.020,-0.026
38.025,-0.022
38.030,-0.022
38.035,-0.026
38.040,-0.022
38.045,-0.040
38.050,-0.078
38.055,-0.072
38.060,-0.037
38.065,-0.044
38.070,-0.064
38.075,-0.045
38.080,-0.037
38.085,-0.050
38.090,-0.041
38.095,-0.036
38.100,-0.035
38.105,-0.015
38.110,-0.006
38.115,-0.026
38.120,-0.036
38.125,-0.025
38.130,-0.024
38.135,-0.036
38.140,-0.035
38.145,-0.022
38.150,-0.035
38.155,-0.052
38.160,-0.034
38.165,-0.020
38.170,-0.023
38.175,-0.021
38.180,-0.061
38.185,-0.173
38.190,-0.302
38.195,-0.470
38.200,-0.757
38.205,-1.094
38.210,-1.198
38.215,-0.921
38.220,-0.523
38.225,-0.151
38.230,0.160
38.235,0.244
38.240,0.227
38.245,0.268
38.250,0.277
38.255,0.244
38.260,0.245
38.265,0.262
38.270,0.263
38.275,0.272
38.280,0.272
38.285,0.241
38.290,0.215
38.295,0.209
38.300,0.202
38.305,0.196
38.310,0.199
38.315,0.189
38.320,0.164
38.325,0.170
38.330,0.191
38.335,0.182
38.340,0.174
38.345,0.176
38.350,0.163
38.355,0.164
38.360,0.190
38.365,0.209
38.370,0.217
38.375,0.234
38.380,0.230
38.385,0.174
38.390,0.120
38.395,0.087
38.400,0.064
38.405,0.072
38.410,0.089
38.415,0.076
38.420,0.052
38.425,0.051
38.430,0.031
38.435,-0.009
38.440,-0.022
38.445,-0.032
38.450,-0.059
38.455,-0.076
38.460,-0.078
38.465,-0.102
38.470,-0.144
38.475,-0.164
38.480,-0.185
38.485,-0.215
38.490,-0.220
38.495,-0.212
38.500,-0.213
38.505,-0.196
38.510,-0.156
38.515,-0.140
38.520,-0.139
38.525,-0.111
38.530,-0.083
38.535,-0.069
38.540,-0.036
38.545,0.000
38.550,0.009
38.555,0.023
38.560,0.054
38.565,0.061
38.570,0.058
38.575,0.078
38.580,0.081
38.585,0.066
38.590,0.073
38.595,0.072
38.600,0.040
38.605,0.031
38.610,0.041
38.615,0.021
38.620,-0.004
38.625,-0.003
38.630,-0.002
38.635,-0.015
38.640,-0.010
38.645,0.006
38.650,0.002
38.655,0.003
38.660,0.014
38.665,0.001
38.670,-0.008
38.675,0.008
38.680,0.009
38.685,-0.003
38.690,0.013
38.695,0.031
38.700,0.014
38.705,0.006
38.710,0.021
38.715,0.012
38.720,0.000
38.725,0.008
38.730,0.002
38.735,-0.019
38.740,-0.012
38.745,-0.002
38.750,-0.014
38.755,-0.015
38.760,-0.005
38.765,-0.015
38.770,-0.023
38.775,-0.007
38.780,-0.002
38.785,-0.010
38.790,0.002
38.795,0.015
38.800,0.008
38.805,0.010
38.810,0.031
38.815,0.034
38.820,0.025
38.825,0.035
38.830,0.039
38.835,0.026
38.840,0.035
38.845,0.054
38.850,0.053
38.855,0.052
38.860,0.065
38.865,0.064
38.870,0.048
38.875,0.044
38.880,0.040
38.885,0.021
38.890,0.017
38.895,0.026
38.900,0.015
38.905,0.001
38.910,0.004
38.915,-0.003
38.920,-0.017
38.925,-0.004
38.930,0.007
38.935,-0.011
38.940,-0.015
38.945,0.007
38.950,0.007
38.955,-0.007
38.960,-0.007
38.965,-0.016
38.970,-0.032
38.975,-0.028
38.980,-0.026
38.985,-0.041
38.990,-0.041
38.995,-0.037
39.000,-0.065
39.005,-0.080
39.010,-0.052
39.015,-0.047
39.020,-0.064
39.025,-0.045
39.030,-0.023
39.035,-0.032
39.040,-0.034
39.045,-0.016
39.050,0.000
39.055,0.014
39.060,0.031
39.065,0.027
39.070,0.019
39.075,0.032
39.080,0.031
39.085,0.007
39.090,0.003
39.095,0.014
39.100,0.011
39.105,0.011
39.110,0.023
39.115,0.012
39.120,0.000
39.125,0.014
39.130,-0.001
39.135,-0.087
39.140,-0.196
39.145,-0.328
39.150,-0.559
39.155,-0.883
39.160,-1.158
39.165,-1.098
39.170,-0.709
39.175,-0.306
39.180,0.042
39.185,0.245
39.190,0.272
39.195,0.282
39.200,0.282
39.205,0.276
39.210,0.297
39.215,0.296
39.220,0.290
39.225,0.302
39.230,0.293
39.235,0.268
39.240,0.265
39.245,0.265
39.250,0.243
39.255,0.227
39.260,0.229
39.265,0.217
39.270,0.199
39.275,0.197
39.280,0.184
39.285,0.157
39.290,0.157
39.295,0.161
39.300,0.137
39.305,0.122
39.310,0.125
39.315,0.111
39.320,0.094
39.325,0.103
39.330,0.105
39.335,0.083
39.340,0.075
39.345,0.073
39.350,0.053
39.355,0.041
39.360,0.050
39.365,0.040
39.370,0.016
39.375,0.012
39.380,0.012
39.385,-0.008
39.390,-0.018
39.395,-0.016
39.400,-0.036
39.405,-0.055
39.410,-0.053
39.415,-0.065
39.420,-0.093
39.425,-0.102
39.430,-0.105
39.435,-0.125
39.440,-0.136
39.445,-0.133
39.450,-0.147
39.455,-0.166
39.460,-0.161
39.465,-0.157
39.470,-0.169
39.475,-0.155
39.480,-0.127
39.485,-0.121
39.490,-0.112
39.495,-0.084
39.500,-0.072
39.505,-0.061
39.510,-0.025
39.515,-0.001
39.520,0.001
39.525,0.015
39.530,0.027
39.535,0.023
39.540,0.034
39.545,0.055
39.550,0.056
39.555,0.049
39.560,0.059
39.565,0.063
39.570,0.054
39.575,0.060
39.580,0.065
39.585,0.050
39.590,0.051
39.595,0.067
39.600,0.065
39.605,0.055
39.610,0.064
39.615,0.070
39.620,0.059
39.625,0.056
39.630,0.054
39.635,0.037
39.640,0.045
39.645,0.064
39.650,0.056
39.655,0.056
39.660,0.073
39.665,0.070
39.670,0.058
39.675,0.067
39.680,0.076
39.685,0.058
39.690,0.048
39.695,0.053
39.700,0.042
39.705,0.029
39.710,0.030
39.715,0.022
39.720,0.011
39.725,0.024
39.730,0.027
39.735,0.006
39.740,0.007
39.745,0.015
39.750,-0.002
39.755,-0.015
39.760,-0.004
39.765,-0.003
39.770,-0.016
39.775,-0.015
39.780,-0.010
39.785,-0.019
39.790,-0.017
39.795,-0.008
39.800,-0.025
39.805,-0.037
39.810,-0.027
39.815,-0.033
39.820,-0.046
39.825,-0.038
39.830,-0.038
39.835,-0.062
39.840,-0.062
39.845,-0.043
39.850,-0.050
39.855,-0.061
39.860,-0.049
39.865,-0.045
39.870,-0.058
39.875,-0.052
39.880,-0.035
39.885,-0.039
39.890,-0.040
39.895,-0.029
39.900,-0.036
39.905,-0.043
39.910,-0.033
39.915,-0.029
39.920,-0.030
39.925,-0.021
39.930,-0.025
39.935,-0.039
39.940,-0.026
39.945,-0.013
39.950,-0.035
39.955,-0.059
39.960,-0.048
39.965,-0.021
39.970,-0.017
39.975,-0.012
39.980,0.006
39.985,0.002
39.990,0.000
39.995,0.017
40.000,0.012
40.005,0.011
40.010,0.034
40.015,0.041
40.020,0.031
40.025,0.035
40.030,0.042
40.035,0.024
40.040,0.013
40.045,0.021
40.050,0.016
40.055,0.010
40.060,0.021
40.065,0.012
40.070,-0.008
40.075,0.008
40.080,0.023
40.085,-0.025
40.090,-0.118
40.095,-0.233
40.100,-0.429
40.105,-0.734
40.110,-1.065
40.115,-1.182
40.120,-0.905
40.125,-0.477
40.130,-0.115
40.135,0.167
40.140,0.269
40.145,0.258
40.150,0.253
40.155,0.254
40.160,0.276
40.165,0.284
40.170,0.260
40.175,0.257
40.180,0.272
40.185,0.260
40.190,0.241
40.195,0.241
40.200,0.233
40.205,0.219
40.210,0.221
40.215,0.210
40.220,0.191
40.225,0.189
40.230,0.178
40.235,0.156
40.240,0.151
40.245,0.156
40.250,0.137
40.255,0.120
40.260,0.126
40.265,0.114
40.270,0.095
40.275,0.103
40.280,0.108
40.285,0.090
40.290,0.081
40.295,0.085
40.300,0.074
40.305,0.064
40.310,0.073
40.315,0.071
40.320,0.050
40.325,0.039
40.330,0.038
40.335,0.021
40.340,0.018
40.345,0.028
40.350,-0.001
40.355,-0.033
40.360,-0.022
40.365,-0.026
40.370,-0.063
40.375,-0.074
40.380,-0.072
40.385,-0.096
40.390,-0.111
40.395,-0.108
40.400,-0.123
40.405,-0.132
40.410,-0.119
40.415,-0.118
40.420,-0.127
40.425,-0.122
40.430,-0.108
40.435,-0.095
40.440,-0.077
40.445,-0.055
40.450,-0.044
40.455,-0.034
40.460,-0.007
40.465,0.014
40.470,0.012
40.475,0.026
40.480,0.048
40.485,0.040
40.490,0.046
40.495,0.062
40.500,0.048
40.505,0.039
40.510,0.048
40.515,0.039
40.520,0.020
40.525,0.026
40.530,0.036
40.535,0.025
40.540,0.008
40.545,0.012
40.550,0.026
40.555,0.035
40.560,0.035
40.565,0.016
40.570,-0.004
40.575,0.002
40.580,0.006
40.585,-0.005
40.590,0.006
40.595,0.023
40.600,0.006
40.605,-0.004
40.610,0.013
40.615,0.012
40.620,-0.004
40.625,-0.006
40.630,-0.001
40.635,-0.007
40.640,-0.005
40.645,0.011
40.650,0.006
40.655,-0.016
40.660,-0.020
40.665,-0.014
40.670,-0.025
40.675,-0.028
40.680,-0.013
40.685,-0.017
40.690,-0.012
40.695,0.006
40.700,-0.006
40.705,-0.021
40.710,-0.012
40.715,-0.008
40.720,-0.016
40.725,-0.008
40.730,-0.007
40.735,-0.020
40.740,-0.013
40.745,-0.001
40.750,0.001
40.755,0.007
40.760,0.013
40.765,0.004
40.770,-0.011
40.775,-0.005
40.780,0.001
40.785,-0.015
40.790,-0.021
40.795,-0.009
40.800,-0.014
40.805,-0.023
40.810,-0.008
40.815,-0.002
40.820,-0.021
40.825,-0.022
40.830,-0.014
40.835,-0.029
40.840,-0.038
40.845,-0.036
40.850,-0.051
40.855,-0.056
40.860,-0.045
40.865,-0.050
40.870,-0.067
40.875,-0.071
40.880,-0.065
40.885,-0.053
40.890,-0.031
40.895,-0.023
40.900,-0.035
40.905,-0.037
40.910,-0.022
40.915,-0.013
40.920,-0.011
40.925,0.014
40.930,0.040
40.935,0.036
40.940,0.031
40.945,0.040
40.950,0.038
40.955,0.028
40.960,0.030
40.965,0.027
40.970,0.015
40.975,0.022
40.980,0.029
40.985,0.011
40.990,0.002
40.995,0.023
41.000,0.038
41.005,0.002
41.010,-0.088
41.015,-0.217
41.020,-0.401
41.025,-0.671
41.030,-1.013
41.035,-1.174
41.040,-0.901
41.045,-0.452
41.050,-0.102
41.055,0.173
41.060,0.288
41.065,0.272
41.070,0.269
41.075,0.280
41.080,0.283
41.085,0.282
41.090,0.285
41.095,0.286
41.100,0.269
41.105,0.258
41.110,0.267
41.115,0.256
41.120,0.230
41.125,0.228
41.130,0.229
41.135,0.205
41.140,0.187
41.145,0.188
41.150,0.179
41.155,0.163
41.160,0.162
41.165,0.151
41.170,0.124
41.175,0.121
41.180,0.124
41.185,0.104
41.190,0.089
41.195,0.095
41.200,0.088
41.205,0.071
41.210,0.070
41.215,0.064
41.220,0.044
41.225,0.042
41.230,0.048
41.235,0.032
41.240,0.022
41.245,0.031
41.250,0.020
41.255,-0.007
41.260,-0.006
41.265,-0.004
41.270,-0.033
41.275,-0.050
41.280,-0.046
41.285,-0.060
41.290,-0.073
41.295,-0.070
41.300,-0.085
41.305,-0.109
41.310,-0.106
41.315,-0.108
41.320,-0.135
41.325,-0.138
41.330,-0.122
41.335,-0.128
41.340,-0.133
41.345,-0.120
41.350,-0.116
41.355,-0.115
41.360,-0.094
41.365,-0.066
41.370,-0.051
41.375,-0.031
41.380,-0.007
41.385,0.002
41.390,0.014
41.395,0.032
41.400,0.036
41.405,0.034
41.410,0.047
41.415,0.048
41.420,0.033
41.425,0.034
41.430,0.042
41.435,0.032
41.440,0.026
41.445,0.039
41.450,0.041
41.455,0.025
41.460,0.021
41.465,0.020
41.470,0.013
41.475,0.017
41.480,0.022
41.485,0.012
41.490,0.008
41.495,0.018
41.500,0.008
41.505,-0.002
41.510,0.019
41.515,0.029
41.520,0.006
41.525,0.002
41.530,0.016
41.535,0.010
41.540,0.010
41.545,0.028
41.550,0.021
41.555,0.004
41.560,0.018
41.565,0.028
41.570,0.014
41.575,0.016
41.580,0.033
41.585,0.029
41.590,0.020
41.595,0.024
41.600,0.017
41.605,0.004
41.610,0.010
41.615,0.008
41.620,-0.001
41.625,0.012
41.630,0.019
41.635,0.001
41.640,-0.006
41.645,0.007
41.650,0.008
41.655,0.000
41.660,0.004
41.665,0.010
41.670,0.000
41.675,-0.005
41.680,0.001
41.685,-0.005
41.690,-0.005
41.695,0.006
41.700,-0.003
41.705,-0.016
41.710,-0.004
41.715,0.004
41.720,-0.008
41.725,-0.008
41.730,-0.007
41.735,-0.028
41.740,-0.034
41.745,-0.017
41.750,-0.024
41.755,-0.047
41.760,-0.046
41.765,-0.043
41.770,-0.054
41.775,-0.054
41.780,-0.058
41.785,-0.084
41.790,-0.082
41.795,-0.052
41.800,-0.047
41.805,-0.046
41.810,-0.022
41.815,-0.017
41.820,-0.033
41.825,-0.022
41.830,0.006
41.835,0.020
41.840,0.025
41.845,0.032
41.850,0.025
41.855,0.012
41.860,0.019
41.865,0.022
41.870,0.003
41.875,0.002
41.880,0.017
41.885,0.011
41.890,0.004
41.895,0.014
41.900,0.014
41.905,0.005
41.910,-0.031
41.915,-0.133
41.920,-0.284
41.925,-0.481
41.930,-0.767
41.935,-1.099
41.940,-1.170
41.945,-0.818
41.950,-0.393
41.955,-0.058
41.960,0.216
41.965,0.287
41.970,0.250
41.975,0.273
41.980,0.296
41.985,0.283
41.990,0.280
41.995,0.292
42.000,0.285
42.005,0.265
42.010,0.268
42.015,0.271
42.020,0.249
42.025,0.238
42.030,0.239
42.035,0.223
42.040,0.212
42.045,0.214
42.050,0.199
42.055,0.181
42.060,0.183
42.065,0.178
42.070,0.152
42.075,0.143
42.080,0.145
42.085,0.121
42.090,0.104
42.095,0.111
42.100,0.101
42.105,0.084
42.110,0.087
42.115,0.080
42.120,0.059
42.125,0.058
42.130,0.063
42.135,0.043
42.140,0.028
42.145,0.035
42.150,0.031
42.155,0.015
42.160,0.015
42.165,0.009
42.170,-0.017
42.175,-0.028
42.180,-0.026
42.185,-0.044
42.190,-0.060
42.195,-0.056
42.200,-0.066
42.205,-0.089
42.210,-0.090
42.215,-0.092
42.220,-0.110
42.225,-0.115
42.230,-0.111
42.235,-0.120
42.240,-0.124
42.245,-0.113
42.250,-0.113
42.255,-0.116
42.260,-0.096
42.265,-0.073
42.270,-0.059
42.275,-0.040
42.280,-0.015
42.285,-0.004
42.290,0.008
42.295,0.031
42.300,0.036
42.305,0.033
42.310,0.049
42.315,0.057
42.320,0.046
42.325,0.049
42.330,0.058
42.335,0.042
42.340,0.031
42.345,0.039
42.350,0.038
42.355,0.030
42.360,0.036
42.365,0.036
42.370,0.019
42.375,0.019
42.380,0.035
42.385,0.025
42.390,0.010
42.395,0.018
42.400,0.018
42.405,0.006
42.410,0.011
42.415,0.016
42.420,0.004
42.425,0.006
42.430,0.016
42.435,0.004
42.440,-0.004
42.445,0.008
42.450,0.008
42.455,-0.003
42.460,0.003
42.465,0.011
42.470,0.002
42.475,0.002
42.480,0.013
42.485,0.006
42.490,-0.004
42.495,0.003
42.500,-0.001
42.505,-0.012
42.510,-0.001
42.515,0.006
42.520,-0.006
42.525,-0.004
42.530,0.011
42.535,0.003
42.540,-0.006
42.545,0.005
42.550,0.005
42.555,-0.006
42.560,0.003
42.565,0.006
42.570,-0.010
42.575,-0.008
42.580,0.002
42.585,-0.008
42.590,-0.014
42.595,-0.002
42.600,-0.009
42.605,-0.021
42.610,-0.009
42.615,-0.003
42.620,-0.015
42.625,-0.012
42.630,-0.001
42.635,-0.013
42.640,-0.023
42.645,-0.017
42.650,-0.023
42.655,-0.037
42.660,-0.034
42.665,-0.036
42.670,-0.052
42.675,-0.049
42.680,-0.041
42.685,-0.060
42.690,-0.076
42.695,-0.061
42.700,-0.047
42.705,-0.052
42.710,-0.043
42.715,-0.023
42.720,-0.026
42.725,-0.026
42.730,-0.012
42.735,-0.008
42.740,0.004
42.745,0.031
42.750,0.033
42.755,0.019
42.760,0.025
42.765,0.030
42.770,0.017
42.775,0.018
42.780,0.027
42.785,0.014
42.790,0.004
42.795,0.016
42.800,0.013
42.805,0.001
42.810,0.012
42.815,-0.002
42.820,-0.091
42.825,-0.211
42.830,-0.358
42.835,-0.599
42.840,-0.916
42.845,-1.158
42.850,-1.051
42.855,-0.641
42.860,-0.250
42.865,0.081
42.870,0.263
42.875,0.271
42.880,0.280
42.885,0.287
42.890,0.280
42.895,0.297
42.900,0.299
42.905,0.284
42.910,0.287
42.915,0.289
42.920,0.266
42.925,0.255
42.930,0.256
42.935,0.237
42.940,0.220
42.945,0.223
42.950,0.212
42.955,0.191
42.960,0.189
42.965,0.187
42.970,0.167
42.975,0.159
42.980,0.162
42.985,0.145
42.990,0.128
42.995,0.132
43.000,0.123
43.005,0.100
43.010,0.099
43.015,0.098
43.020,0.078
43.025,0.072
43.030,0.079
43.035,0.065
43.040,0.047
43.045,0.048
43.050,0.037
43.055,0.016
43.060,0.014
43.065,0.013
43.070,-0.010
43.075,-0.020
43.080,-0.017
43.085,-0.033
43.090,-0.050
43.095,-0.049
43.100,-0.061
43.105,-0.083
43.110,-0.088
43.115,-0.091
43.120,-0.108
43.125,-0.112
43.130,-0.108
43.135,-0.123
43.140,-0.135
43.145,-0.124
43.150,-0.124
43.155,-0.135
43.160,-0.120
43.165,-0.098
43.170,-0.091
43.175,-0.073
43.180,-0.043
43.185,-0.035
43.190,-0.027
43.195,0.002
43.200,0.020
43.205,0.020
43.210,0.035
43.215,0.048
43.220,0.039
43.225,0.044
43.230,0.059
43.235,0.050
43.240,0.042
43.245,0.055
43.250,0.055
43.255,0.038
43.260,0.037
43.265,0.040
43.270,0.028
43.275,0.024
43.280,0.033
43.285,0.025
43.290,0.017
43.295,0.025
43.300,0.022
43.305,0.014
43.310,0.025
43.315,0.030
43.320,0.013
43.325,0.005
43.330,0.012
43.335,0.004
43.340,0.000
43.345,0.016
43.350,0.018
43.355,0.007
43.360,0.015
43.365,0.021
43.370,0.004
43.375,-0.001
43.380,0.013
43.385,0.009
43.390,0.008
43.395,0.021
43.400,0.010
43.405,-0.009
43.410,0.003
43.415,0.014
43.420,0.003
43.425,0.001
43.430,0.007
43.435,-0.004
43.440,-0.015
43.445,0.000
43.450,0.010
43.455,-0.001
43.460,-0.001
43.465,0.003
43.470,-0.007
43.475,-0.007
43.480,-0.003
43.485,-0.015
43.490,-0.021
43.495,-0.003
43.500,0.002
43.505,-0.014
43.510,-0.014
43.515,-0.009
43.520,-0.021
43.525,-0.019
43.530,-0.005
43.535,-0.013
43.540,-0.023
43.545,-0.014
43.550,-0.015
43.555,-0.028
43.560,-0.020
43.565,-0.011
43.570,-0.036
43.575,-0.057
43.580,-0.047
43.585,-0.041
43.590,-0.044
43.595,-0.038
43.600,-0.041
43.605,-0.056
43.610,-0.057
43.615,-0.067
43.620,-0.085
43.625,-0.066
43.630,-0.044
43.635,-0.047
43.640,-0.034
43.645,-0.009
43.650,-0.013
43.655,-0.027
43.660,-0.011
43.665,0.013
43.670,0.013
43.675,0.018
43.680,0.038
43.685,0.034
43.690,0.021
43.695,0.022
43.700,0.022
43.705,0.017
43.710,0.025
43.715,0.029
43.720,0.014
43.725,0.005
43.730,0.015
43.735,0.021
43.740,0.009
43.745,-0.046
43.750,-0.160
43.755,-0.315
43.760,-0.527
43.765,-0.840
43.770,-1.153
43.775,-1.109
43.780,-0.696
43.785,-0.300
43.790,0.028
43.795,0.258
43.800,0.284
43.805,0.268
43.810,0.292
43.815,0.299
43.820,0.291
43.825,0.291
43.830,0.294
43.835,0.280
43.840,0.266
43.845,0.267
43.850,0.257
43.855,0.237
43.860,0.233
43.865,0.231
43.870,0.216
43.875,0.203
43.880,0.204
43.885,0.195
43.890,0.172
43.895,0.167
43.900,0.159
43.905,0.140
43.910,0.143
43.915,0.143
43.920,0.117
43.925,0.100
43.930,0.104
43.935,0.096
43.940,0.091
43.945,0.097
43.950,0.076
43.955,0.047
43.960,0.046
43.965,0.051
43.970,0.041
43.975,0.036
43.980,0.037
43.985,0.019
43.990,0.005
43.995,0.015
44.000,0.006
44.005,-0.029
44.010,-0.039
44.015,-0.037
44.020,-0.061
44.025,-0.078
44.030,-0.075
44.035,-0.085
44.040,-0.096
44.045,-0.091
44.050,-0.101
44.055,-0.126
44.060,-0.127
44.065,-0.117
44.070,-0.133
44.075,-0.137
44.080,-0.116
44.085,-0.123
44.090,-0.124
44.095,-0.083
44.100,-0.057
44.105,-0.053
44.110,-0.033
44.115,-0.004
44.120,0.001
44.125,0.001
44.130,0.024
44.135,0.033
44.140,0.036
44.145,0.051
44.150,0.050
44.155,0.041
44.160,0.048
44.165,0.051
44.170,0.037
44.175,0.034
44.180,0.047
44.185,0.041
44.190,0.031
44.195,0.038
44.200,0.032
44.205,0.017
44.210,0.027
44.215,0.036
44.220,0.014
44.225,0.006
44.230,0.022
44.235,0.018
44.240,0.001
44.245,0.005
44.250,0.005
44.255,-0.005
44.260,0.009
44.265,0.025
44.270,0.011
44.275,0.000
44.280,0.008
44.285,0.008
44.290,-0.001
44.295,0.009
44.300,0.015
44.305,0.003
44.310,0.013
44.315,0.025
44.320,0.004
44.325,-0.005
44.330,0.002
44.335,0.001
44.340,0.008
44.345,0.022
44.350,0.018
44.355,0.004
44.360,0.008
44.365,0.011
44.370,-0.008
44.375,-0.011
44.380,0.011
44.385,0.004
44.390,-0.010
44.395,0.006
44.400,0.005
44.405,-0.015
44.410,-0.012
44.415,0.002
44.420,-0.007
44.425,-0.014
44.430,-0.001
44.435,-0.002
44.440,-0.018
44.445,-0.015
44.450,-0.009
44.455,-0.013
44.460,-0.005
44.465,-0.001
44.470,-0.024
44.475,-0.030
44.480,-0.012
44.485,-0.020
44.490,-0.035
44.495,-0.027
44.500,-0.033
44.505,-0.056
44.510,-0.051
44.515,-0.040
44.520,-0.064
44.525,-0.083
44.530,-0.062
44.535,-0.043
44.540,-0.047
44.545,-0.044
44.550,-0.031
44.555,-0.029
44.560,-0.022
44.565,0.000
44.570,0.008
44.575,0.018
44.580,0.035
44.585,0.024
44.590,0.006
44.595,0.019
44.600,0.024
44.605,0.013
44.610,0.019
44.615,0.020
44.620,0.007
44.625,0.010
44.630,0.024
44.635,0.022
44.640,0.013
44.645,0.014
44.650,-0.023
44.655,-0.120
44.660,-0.234
44.665,-0.399
44.670,-0.690
44.675,-1.040
44.680,-1.165
44.685,-0.875
44.690,-0.452
44.695,-0.106
44.700,0.174
44.705,0.267
44.710,0.259
44.715,0.278
44.720,0.270
44.725,0.268
44.730,0.289
44.735,0.284
44.740,0.268
44.745,0.273
44.750,0.271
44.755,0.250
44.760,0.243
44.765,0.241
44.770,0.220
44.775,0.201
44.780,0.201
44.785,0.190
44.790,0.172
44.795,0.171
44.800,0.163
44.805,0.142
44.810,0.145
44.815,0.153
44.820,0.129
44.825,0.113
44.830,0.119
44.835,0.107
44.840,0.090
44.845,0.093
44.850,0.089
44.855,0.069
44.860,0.060
44.865,0.056
44.870,0.041
44.875,0.038
44.880,0.046
44.885,0.035
44.890,0.018
44.895,0.016
44.900,0.011
44.905,-0.009
44.910,-0.020
44.915,-0.027
44.920,-0.050
44.925,-0.059
44.930,-0.049
44.935,-0.063
44.940,-0.081
44.945,-0.076
44.950,-0.087
44.955,-0.115
44.960,-0.120
44.965,-0.116
44.970,-0.129
44.975,-0.129
44.980,-0.119
44.985,-0.128
44.990,-0.127
44.995,-0.093
45.000,-0.071
45.005,-0.077
45.010,-0.062
45.015,-0.036
45.020,-0.030
45.025,-0.014
45.030,0.013
45.035,0.021
45.040,0.026
45.045,0.046
45.050,0.051
45.055,0.038
45.060,0.033
45.065,0.034
45.070,0.029
45.075,0.036
45.080,0.051
45.085,0.038
45.090,0.020
45.095,0.032
45.100,0.037
45.105,0.024
45.110,0.028
45.115,0.034
45.120,0.011
45.125,0.000
45.130,0.013
45.135,0.009
45.140,-0.002
45.145,0.008
45.150,0.014
45.155,0.004
45.160,0.010
45.165,0.023
45.170,0.014
45.175,0.005
45.180,0.013
45.185,0.010
45.190,-0.004
45.195,0.004
45.200,0.013
45.205,-0.001
45.210,-0.002
45.215,0.007
45.220,-0.006
