'Elapsed time','ECG'
'seconds','mV'
0.000,0.252
0.005,0.351
0.010,0.312
0.015,0.290
0.020,0.303
0.025,0.278
0.030,0.266
0.035,0.264
0.040,0.248
0.045,0.235
0.050,0.237
0.055,0.227
0.060,0.209
0.065,0.200
0.070,0.188
0.075,0.174
0.080,0.170
0.085,0.169
0.090,0.154
0.095,0.141
0.100,0.139
0.105,0.132
0.110,0.116
0.115,0.094
0.120,0.053
0.125,0.012
0.130,-0.008
0.135,-0.049
0.140,-0.106
0.145,-0.106
0.150,-0.072
0.155,-0.062
0.160,-0.044
0.165,-0.013
0.170,0.012
0.175,0.044
0.180,0.070
0.185,0.076
0.190,0.071
0.195,0.084
0.200,0.120
0.205,0.132
0.210,0.115
0.215,0.110
0.220,0.112
0.225,0.100
0.230,0.085
0.235,0.084
0.240,0.079
0.245,0.065
0.250,0.065
0.255,0.079
0.260,0.094
0.265,0.072
0.270,-0.016
0.275,-0.197
0.280,-0.513
0.285,-0.932
0.290,-1.270
0.295,-1.190
0.300,-0.663
0.305,-0.036
0.310,0.453
0.315,0.622
0.320,0.485
0.325,0.291
0.330,0.149
0.335,0.084
0.340,0.080
0.345,0.085
0.350,0.087
0.355,0.083
0.360,0.070
0.365,0.066
0.370,0.059
0.375,0.045
0.380,0.045
0.385,0.042
0.390,0.028
0.395,0.016
0.400,0.009
0.405,0.004
0.410,-0.003
0.415,-0.007
0.420,-0.016
0.425,-0.028
0.430,-0.031
0.435,-0.035
0.440,-0.046
0.445,-0.050
0.450,-0.051
0.455,-0.063
0.460,-0.074
0.465,-0.075
0.470,-0.082
0.475,-0.090
0.480,-0.095
0.485,-0.102
0.490,-0.117
0.495,-0.134
0.500,-0.139
0.505,-0.152
0.510,-0.170
0.515,-0.174
0.520,-0.184
0.525,-0.202
0.530,-0.208
0.535,-0.207
0.540,-0.214
0.545,-0.224
0.550,-0.215
0.555,-0.197
0.560,-0.170
0.565,-0.121
0.570,-0.068
0.575,-0.017
0.580,0.048
0.585,0.115
0.590,0.163
0.595,0.206
0.600,0.249
0.605,0.278
0.610,0.297
0.615,0.311
0.620,0.313
0.625,0.308
0.630,0.308
0.635,0.304
0.640,0.294
0.645,0.279
0.650,0.271
0.655,0.259
0.660,0.242
0.665,0.232
0.670,0.218
0.675,0.195
0.680,0.180
0.685,0.171
0.690,0.154
0.695,0.140
0.700,0.136
0.705,0.123
0.710,0.103
0.715,0.097
0.720,0.094
0.725,0.074
0.730,0.063
0.735,0.070
0.740,0.061
0.745,0.046
0.750,0.048
0.755,0.043
0.760,0.027
0.765,0.025
0.770,0.026
0.775,0.017
0.780,0.016
0.785,0.021
0.790,0.011
0.795,0.010
0.800,0.014
0.805,-0.003
0.810,-0.014
0.815,0.000
0.820,0.007
0.825,-0.007
0.830,-0.012
0.835,-0.009
0.840,-0.019
0.845,-0.024
0.850,-0.016
0.855,-0.016
0.860,-0.022
0.865,-0.023
0.870,-0.030
0.875,-0.041
0.880,-0.041
0.885,-0.034
0.890,-0.037
0.895,-0.040
0.900,-0.035
0.905,-0.040
0.910,-0.047
0.915,-0.043
0.920,-0.050
0.925,-0.064
0.930,-0.057
0.935,-0.044
0.940,-0.052
0.945,-0.060
0.950,-0.056
0.955,-0.054
0.960,-0.059
0.965,-0.057
0.970,-0.057
0.975,-0.063
0.980,-0.061
0.985,-0.056
0.990,-0.059
0.995,-0.061
1.000,-0.058
1.005,-0.072
1.010,-0.107
1.015,-0.147
1.020,-0.167
1.025,-0.188
1.030,-0.236
1.035,-0.252
1.040,-0.225
1.045,-0.202
1.050,-0.173
1.055,-0.135
1.060,-0.106
1.065,-0.060
1.070,-0.018
1.075,-0.013
1.080,-0.006
1.085,0.017
1.090,0.041
1.095,0.063
1.100,0.068
1.105,0.054
1.110,0.044
1.115,0.050
1.120,0.048
1.125,0.035
1.130,0.035
1.135,0.035
1.140,0.023
1.145,0.027
1.150,0.059
1.155,0.060
1.160,0.000
1.165,-0.110
1.170,-0.345
1.175,-0.727
1.180,-1.131
1.185,-1.279
1.190,-0.947
1.195,-0.344
1.200,0.216
1.205,0.542
1.210,0.539
1.215,0.368
1.220,0.203
1.225,0.104
1.230,0.088
1.235,0.103
1.240,0.101
1.245,0.095
1.250,0.103
1.255,0.105
1.260,0.094
1.265,0.089
1.270,0.084
1.275,0.067
1.280,0.061
1.285,0.062
1.290,0.050
1.295,0.034
1.300,0.031
1.305,0.024
1.310,0.014
1.315,0.017
1.320,0.013
1.325,-0.006
1.330,-0.002
1.335,0.008
1.340,-0.010
1.345,-0.023
1.350,-0.027
1.355,-0.041
1.360,-0.047
1.365,-0.044
1.370,-0.053
1.375,-0.073
1.380,-0.081
1.385,-0.085
1.390,-0.097
1.395,-0.109
1.400,-0.117
1.405,-0.130
1.410,-0.148
1.415,-0.159
1.420,-0.166
1.425,-0.178
1.430,-0.184
1.435,-0.180
1.440,-0.182
1.445,-0.176
1.450,-0.147
1.455,-0.111
1.460,-0.073
1.465,-0.013
1.470,0.053
1.475,0.106
1.480,0.161
1.485,0.215
1.490,0.254
1.495,0.285
1.500,0.312
1.505,0.323
1.510,0.327
1.515,0.336
1.520,0.332
1.525,0.321
1.530,0.318
1.535,0.313
1.540,0.294
1.545,0.274
1.550,0.264
1.555,0.246
1.560,0.225
1.565,0.218
1.570,0.209
1.575,0.193
1.580,0.179
1.585,0.165
1.590,0.148
1.595,0.134
1.600,0.134
1.605,0.126
1.610,0.104
1.615,0.099
1.620,0.101
1.625,0.087
1.630,0.073
1.635,0.064
1.640,0.052
1.645,0.047
1.650,0.050
1.655,0.042
1.660,0.031
1.665,0.036
1.670,0.040
1.675,0.031
1.680,0.028
1.685,0.032
1.690,0.024
1.695,0.019
1.700,0.021
1.705,0.008
1.710,-0.004
1.715,0.004
1.720,0.007
1.725,-0.002
1.730,-0.003
1.735,0.000
1.740,-0.012
1.745,-0.023
1.750,-0.014
1.755,-0.017
1.760,-0.032
1.765,-0.032
1.770,-0.029
1.775,-0.035
1.780,-0.034
1.785,-0.028
1.790,-0.038
1.795,-0.047
1.800,-0.041
1.805,-0.042
1.810,-0.051
1.815,-0.048
1.820,-0.043
1.825,-0.052
1.830,-0.053
1.835,-0.051
1.840,-0.058
1.845,-0.059
1.850,-0.053
1.855,-0.055
1.860,-0.063
1.865,-0.063
1.870,-0.058
1.875,-0.058
1.880,-0.059
1.885,-0.063
1.890,-0.073
1.895,-0.086
1.900,-0.113
1.905,-0.155
1.910,-0.182
1.915,-0.207
1.920,-0.244
1.925,-0.244
1.930,-0.217
1.935,-0.198
1.940,-0.170
1.945,-0.132
1.950,-0.089
1.955,-0.048
1.960,-0.031
1.965,-0.022
1.970,0.000
1.975,0.023
1.980,0.043
1.985,0.053
1.990,0.044
1.995,0.041
2.000,0.043
2.005,0.042
2.010,0.043
2.015,0.043
2.020,0.034
2.025,0.016
2.030,0.013
2.035,0.040
2.040,0.063
2.045,0.046
2.050,-0.026
2.055,-0.192
2.060,-0.492
2.065,-0.895
2.070,-1.237
2.075,-1.189
2.080,-0.698
2.085,-0.096
2.090,0.377
2.095,0.558
2.100,0.478
2.105,0.320
2.110,0.164
2.115,0.084
2.120,0.076
2.125,0.081
2.130,0.097
2.135,0.112
2.140,0.098
2.145,0.081
2.150,0.086
2.155,0.080
2.160,0.059
2.165,0.058
2.170,0.059
2.175,0.044
2.180,0.032
2.185,0.035
2.190,0.030
2.195,0.013
2.200,0.010
2.205,0.007
2.210,-0.010
2.215,-0.008
2.220,-0.003
2.225,-0.023
2.230,-0.028
2.235,-0.018
2.240,-0.027
2.245,-0.041
2.250,-0.040
2.255,-0.049
2.260,-0.069
2.265,-0.073
2.270,-0.081
2.275,-0.103
2.280,-0.108
2.285,-0.105
2.290,-0.124
2.295,-0.144
2.300,-0.149
2.305,-0.161
2.310,-0.179
2.315,-0.187
2.320,-0.189
2.325,-0.191
2.330,-0.181
2.335,-0.156
2.340,-0.136
2.345,-0.102
2.350,-0.046
2.355,0.007
2.360,0.064
2.365,0.130
2.370,0.185
2.375,0.221
2.380,0.261
2.385,0.302
2.390,0.314
2.395,0.319
2.400,0.336
2.405,0.331
2.410,0.320
2.415,0.325
2.420,0.317
2.425,0.295
2.430,0.280
2.435,0.273
2.440,0.255
2.445,0.237
2.450,0.232
2.455,0.216
2.460,0.198
2.465,0.190
2.470,0.173
2.475,0.152
2.480,0.145
2.485,0.142
2.490,0.133
2.495,0.119
2.500,0.106
2.505,0.093
2.510,0.083
2.515,0.079
2.520,0.073
2.525,0.066
2.530,0.062
2.535,0.053
2.540,0.040
2.545,0.036
2.550,0.044
2.555,0.042
2.560,0.029
2.565,0.028
2.570,0.036
2.575,0.027
2.580,0.014
2.585,0.020
2.590,0.015
2.595,0.002
2.600,0.008
2.605,0.010
2.610,-0.001
2.615,0.000
2.620,-0.001
2.625,-0.012
2.630,-0.014
2.635,-0.012
2.640,-0.023
2.645,-0.030
2.650,-0.021
2.655,-0.024
2.660,-0.037
2.665,-0.036
2.670,-0.032
2.675,-0.037
2.680,-0.038
2.685,-0.040
2.690,-0.048
2.695,-0.046
2.700,-0.040
2.705,-0.044
2.710,-0.052
2.715,-0.049
2.720,-0.049
2.725,-0.061
2.730,-0.060
2.735,-0.050
2.740,-0.059
2.745,-0.071
2.750,-0.064
2.755,-0.058
2.760,-0.067
2.765,-0.087
2.770,-0.130
2.775,-0.170
2.780,-0.186
2.785,-0.221
2.790,-0.252
2.795,-0.231
2.800,-0.203
2.805,-0.184
2.810,-0.156
2.815,-0.119
2.820,-0.070
2.825,-0.033
2.830,-0.023
2.835,-0.015
2.840,-0.001
2.845,0.030
2.850,0.058
2.855,0.051
2.860,0.039
2.865,0.048
2.870,0.049
2.875,0.035
2.880,0.028
2.885,0.030
2.890,0.021
2.895,0.012
2.900,0.026
2.905,0.049
2.910,0.048
2.915,0.005
2.920,-0.106
2.925,-0.343
2.930,-0.716
2.935,-1.123
2.940,-1.285
2.945,-0.962
2.950,-0.364
2.955,0.195
2.960,0.534
2.965,0.550
2.970,0.388
2.975,0.213
2.980,0.103
2.985,0.082
2.990,0.085
2.995,0.082
3.000,0.088
3.005,0.088
3.010,0.082
3.015,0.082
3.020,0.079
3.025,0.065
3.030,0.051
3.035,0.045
3.040,0.044
3.045,0.042
3.050,0.038
3.055,0.027
3.060,0.014
3.065,0.012
3.070,0.006
3.075,-0.008
3.080,-0.007
3.085,-0.003
3.090,-0.014
3.095,-0.023
3.100,-0.025
3.105,-0.037
3.110,-0.048
3.115,-0.051
3.120,-0.057
3.125,-0.067
3.130,-0.069
3.135,-0.074
3.140,-0.096
3.145,-0.111
3.150,-0.117
3.155,-0.132
3.160,-0.150
3.165,-0.155
3.170,-0.157
3.175,-0.173
3.180,-0.187
3.185,-0.187
3.190,-0.187
3.195,-0.187
3.200,-0.175
3.205,-0.152
3.210,-0.122
3.215,-0.076
3.220,-0.017
3.225,0.043
3.230,0.108
3.235,0.170
3.240,0.209
3.245,0.244
3.250,0.284
3.255,0.309
3.260,0.321
3.265,0.332
3.270,0.336
3.275,0.327
3.280,0.317
3.285,0.314
3.290,0.304
3.295,0.286
3.300,0.274
3.305,0.259
3.310,0.241
3.315,0.236
3.320,0.227
3.325,0.203
3.330,0.191
3.335,0.187
3.340,0.164
3.345,0.146
3.350,0.146
3.355,0.129
3.360,0.111
3.365,0.110
3.370,0.102
3.375,0.085
3.380,0.080
3.385,0.078
3.390,0.069
3.395,0.059
3.400,0.055
3.405,0.047
3.410,0.034
3.415,0.039
3.420,0.043
3.425,0.028
3.430,0.021
3.435,0.027
3.440,0.019
3.445,0.010
3.450,0.018
3.455,0.016
3.460,0.003
3.465,0.005
3.470,0.013
3.475,0.005
3.480,0.002
3.485,0.005
3.490,-0.007
3.495,-0.018
3.500,-0.017
3.505,-0.021
3.510,-0.029
3.515,-0.030
3.520,-0.029
3.525,-0.036
3.530,-0.039
3.535,-0.034
3.540,-0.040
3.545,-0.047
3.550,-0.040
3.555,-0.041
3.560,-0.052
3.565,-0.054
3.570,-0.052
3.575,-0.055
3.580,-0.054
3.585,-0.048
3.590,-0.055
3.595,-0.061
3.600,-0.052
3.605,-0.053
3.610,-0.060
3.615,-0.059
3.620,-0.063
3.625,-0.084
3.630,-0.121
3.635,-0.153
3.640,-0.167
3.645,-0.204
3.650,-0.244
3.655,-0.232
3.660,-0.209
3.665,-0.193
3.670,-0.155
3.675,-0.125
3.680,-0.093
3.685,-0.042
3.690,-0.024
3.695,-0.027
3.700,-0.006
3.705,0.022
3.710,0.041
3.715,0.054
3.720,0.052
3.725,0.039
3.730,0.037
3.735,0.042
3.740,0.035
3.745,0.027
3.750,0.028
3.755,0.025
3.760,0.016
3.765,0.031
3.770,0.055
3.775,0.022
3.780,-0.060
3.785,-0.214
3.790,-0.522
3.795,-0.941
3.800,-1.257
3.805,-1.172
3.810,-0.676
3.815,-0.079
3.820,0.386
3.825,0.552
3.830,0.446
3.835,0.277
3.840,0.143
3.845,0.084
3.850,0.092
3.855,0.102
3.860,0.094
3.865,0.093
3.870,0.094
3.875,0.087
3.880,0.083
3.885,0.082
3.890,0.069
3.895,0.056
3.900,0.055
3.905,0.047
3.910,0.033
3.915,0.032
3.920,0.032
3.925,0.017
3.930,0.013
3.935,0.021
3.940,0.009
3.945,-0.005
3.950,-0.006
3.955,-0.014
3.960,-0.026
3.965,-0.031
3.970,-0.037
3.975,-0.050
3.980,-0.054
3.985,-0.054
3.990,-0.067
3.995,-0.080
4.000,-0.085
4.005,-0.102
4.010,-0.120
4.015,-0.124
4.020,-0.131
4.025,-0.150
4.030,-0.162
4.035,-0.166
4.040,-0.179
4.045,-0.193
4.050,-0.192
4.055,-0.186
4.060,-0.183
4.065,-0.166
4.070,-0.132
4.075,-0.097
4.080,-0.041
4.085,0.028
4.090,0.079
4.095,0.132
4.100,0.192
4.105,0.236
4.110,0.267
4.115,0.296
4.120,0.317
4.125,0.322
4.130,0.328
4.135,0.331
4.140,0.313
4.145,0.300
4.150,0.305
4.155,0.300
4.160,0.284
4.165,0.274
4.170,0.263
4.175,0.243
4.180,0.224
4.185,0.215
4.190,0.200
4.195,0.184
4.200,0.178
4.205,0.165
4.210,0.148
4.215,0.140
4.220,0.128
4.225,0.114
4.230,0.107
4.235,0.100
4.240,0.087
4.245,0.073
4.250,0.073
4.255,0.071
4.260,0.054
4.265,0.052
4.270,0.057
4.275,0.044
4.280,0.041
4.285,0.047
4.290,0.030
4.295,0.014
4.300,0.020
4.305,0.016
4.310,0.007
4.315,0.013
4.320,0.016
4.325,0.005
4.330,-0.003
4.335,0.000
4.340,-0.007
4.345,-0.013
4.350,-0.005
4.355,-0.008
4.360,-0.022
4.365,-0.020
4.370,-0.020
4.375,-0.033
4.380,-0.035
4.385,-0.027
4.390,-0.034
4.395,-0.038
4.400,-0.031
4.405,-0.038
4.410,-0.053
4.415,-0.048
4.420,-0.039
4.425,-0.050
4.430,-0.057
4.435,-0.044
4.440,-0.043
4.445,-0.054
4.450,-0.049
4.455,-0.048
4.460,-0.059
4.465,-0.056
4.470,-0.050
4.475,-0.061
4.480,-0.068
4.485,-0.072
4.490,-0.104
4.495,-0.153
4.500,-0.166
4.505,-0.179
4.510,-0.233
4.515,-0.248
4.520,-0.214
4.525,-0.201
4.530,-0.176
4.535,-0.128
4.540,-0.104
4.545,-0.071
4.550,-0.025
4.555,-0.012
4.560,-0.013
4.565,0.007
4.570,0.040
4.575,0.058
4.580,0.048
4.585,0.040
4.590,0.037
4.595,0.035
4.600,0.038
4.605,0.031
4.610,0.021
4.615,0.026
4.620,0.026
4.625,0.028
4.630,0.055
4.635,0.058
4.640,-0.007
4.645,-0.129
4.650,-0.362
4.655,-0.739
4.660,-1.137
4.665,-1.251
4.670,-0.897
4.675,-0.320
4.680,0.200
4.685,0.498
4.690,0.492
4.695,0.333
4.700,0.186
4.705,0.104
4.710,0.083
4.715,0.088
4.720,0.096
4.725,0.090
4.730,0.086
4.735,0.092
4.740,0.089
4.745,0.079
4.750,0.074
4.755,0.067
4.760,0.055
4.765,0.048
4.770,0.045
4.775,0.031
4.780,0.020
4.785,0.016
4.790,0.010
4.795,0.001
4.800,-0.001
4.805,-0.008
4.810,-0.017
4.815,-0.015
4.820,-0.020
4.825,-0.033
4.830,-0.036
4.835,-0.035
4.840,-0.044
4.845,-0.054
4.850,-0.059
4.855,-0.074
4.860,-0.091
4.865,-0.093
4.870,-0.093
4.875,-0.112
4.880,-0.132
4.885,-0.140
4.890,-0.155
4.895,-0.175
4.900,-0.175
4.905,-0.176
4.910,-0.191
4.915,-0.189
4.920,-0.178
4.925,-0.177
4.930,-0.153
4.935,-0.105
4.940,-0.058
4.945,-0.006
4.950,0.060
4.955,0.118
4.960,0.164
4.965,0.219
4.970,0.266
4.975,0.290
4.980,0.305
4.985,0.319
4.990,0.325
4.995,0.323
5.000,0.327
5.005,0.327
5.010,0.313
5.015,0.302
5.020,0.291
5.025,0.268
5.030,0.255
5.035,0.250
5.040,0.233
5.045,0.215
5.050,0.202
5.055,0.186
5.060,0.173
5.065,0.170
5.070,0.164
5.075,0.142
5.080,0.122
5.085,0.114
5.090,0.102
5.095,0.094
5.100,0.101
5.105,0.091
5.110,0.069
5.115,0.064
5.120,0.067
5.125,0.058
5.130,0.047
5.135,0.050
5.140,0.046
5.145,0.038
5.150,0.038
5.155,0.030
5.160,0.019
5.165,0.020
5.170,0.025
5.175,0.021
5.180,0.016
5.185,0.014
5.190,0.005
5.195,-0.002
5.200,0.005
5.205,0.006
5.210,-0.005
5.215,-0.009
5.220,-0.010
5.225,-0.017
5.230,-0.022
5.235,-0.023
5.240,-0.035
5.245,-0.037
5.250,-0.025
5.255,-0.026
5.260,-0.038
5.265,-0.040
5.270,-0.036
5.275,-0.043
5.280,-0.046
5.285,-0.041
5.290,-0.046
5.295,-0.048
5.300,-0.043
5.305,-0.046
5.310,-0.054
5.315,-0.054
5.320,-0.052
5.325,-0.057
5.330,-0.059
5.335,-0.058
5.340,-0.067
5.345,-0.080
5.350,-0.080
5.355,-0.106
5.360,-0.162
5.365,-0.189
5.370,-0.214
5.375,-0.255
5.380,-0.239
5.385,-0.198
5.390,-0.190
5.395,-0.169
5.400,-0.125
5.405,-0.087
5.410,-0.048
5.415,-0.025
5.420,-0.025
5.425,-0.015
5.430,0.017
5.435,0.050
5.440,0.055
5.445,0.038
5.450,0.039
5.455,0.043
5.460,0.023
5.465,0.011
5.470,0.016
5.475,0.020
5.480,0.023
5.485,0.020
5.490,0.024
5.495,0.048
5.500,0.050
5.505,-0.014
5.510,-0.154
5.515,-0.408
5.520,-0.790
5.525,-1.182
5.530,-1.249
5.535,-0.839
5.540,-0.252
5.545,0.261
5.550,0.527
5.555,0.485
5.560,0.327
5.565,0.182
5.570,0.099
5.575,0.083
5.580,0.091
5.585,0.095
5.590,0.086
5.595,0.087
5.600,0.098
5.605,0.092
5.610,0.080
5.615,0.077
5.620,0.067
5.625,0.052
5.630,0.044
5.635,0.036
5.640,0.025
5.645,0.023
5.650,0.026
5.655,0.025
5.660,0.014
5.665,-0.001
5.670,-0.007
5.675,-0.010
5.680,-0.005
5.685,-0.003
5.690,-0.018
5.695,-0.029
5.700,-0.030
5.705,-0.032
5.710,-0.026
5.715,-0.034
5.720,-0.067
5.725,-0.087
5.730,-0.099
5.735,-0.119
5.740,-0.138
5.745,-0.147
5.750,-0.139
5.755,-0.132
5.760,-0.142
5.765,-0.156
5.770,-0.171
5.775,-0.177
5.780,-0.182
5.785,-0.191
5.790,-0.175
5.795,-0.145
5.800,-0.103
5.805,-0.051
5.810,0.005
5.815,0.067
5.820,0.126
5.825,0.172
5.830,0.211
5.835,0.249
5.840,0.279
5.845,0.304
5.850,0.327
5.855,0.339
5.860,0.334
5.865,0.325
5.870,0.319
5.875,0.303
5.880,0.290
5.885,0.286
5.890,0.272
5.895,0.259
5.900,0.254
5.905,0.238
5.910,0.210
5.915,0.197
5.920,0.189
5.925,0.167
5.930,0.145
5.935,0.135
5.940,0.129
5.945,0.125
5.950,0.122
5.955,0.107
5.960,0.093
5.965,0.095
5.970,0.087
5.975,0.065
5.980,0.069
5.985,0.078
5.990,0.053
5.995,0.045
6.000,0.059
6.005,0.053
6.010,0.032
6.015,0.021
6.020,0.023
6.025,0.021
6.030,0.031
6.035,0.033
6.040,0.007
6.045,-0.005
6.050,0.005
6.055,0.010
6.060,-0.005
6.065,-0.016
6.070,-0.018
6.075,-0.027
6.080,-0.017
6.085,0.004
6.090,-0.005
6.095,-0.018
6.100,-0.015
6.105,-0.014
6.110,-0.024
6.115,-0.038
6.120,-0.049
6.125,-0.049
6.130,-0.032
6.135,-0.025
6.140,-0.033
6.145,-0.044
6.150,-0.044
6.155,-0.040
6.160,-0.049
6.165,-0.055
6.170,-0.054
6.175,-0.061
6.180,-0.062
6.185,-0.047
6.190,-0.048
6.195,-0.065
6.200,-0.066
6.205,-0.063
6.210,-0.072
6.215,-0.095
6.220,-0.133
6.225,-0.164
6.230,-0.172
6.235,-0.199
6.240,-0.243
6.245,-0.245
6.250,-0.208
6.255,-0.174
6.260,-0.153
6.265,-0.123
6.270,-0.076
6.275,-0.040
6.280,-0.030
6.285,-0.021
6.290,-0.009
6.295,0.017
6.300,0.057
6.305,0.062
6.310,0.044
6.315,0.049
6.320,0.057
6.325,0.046
6.330,0.035
6.335,0.032
6.340,0.022
6.345,0.004
6.350,0.009
6.355,0.031
6.360,0.037
6.365,0.010
6.370,-0.072
6.375,-0.256
6.380,-0.576
6.385,-0.984
6.390,-1.263
6.395,-1.105
6.400,-0.578
6.405,-0.003
6.410,0.416
6.415,0.543
6.420,0.429
6.425,0.247
6.430,0.121
6.435,0.084
6.440,0.086
6.445,0.095
6.450,0.105
6.455,0.105
6.460,0.093
6.465,0.093
6.470,0.095
6.475,0.079
6.480,0.066
6.485,0.055
6.490,0.042
6.495,0.052
6.500,0.063
6.505,0.047
6.510,0.030
6.515,0.029
6.520,0.022
6.525,0.003
6.530,-0.012
6.535,-0.015
6.540,-0.022
6.545,-0.025
6.550,-0.020
6.555,-0.025
6.560,-0.036
6.565,-0.045
6.570,-0.052
6.575,-0.055
6.580,-0.063
6.585,-0.080
6.590,-0.106
6.595,-0.119
6.600,-0.117
6.605,-0.122
6.610,-0.133
6.615,-0.143
6.620,-0.160
6.625,-0.176
6.630,-0.183
6.635,-0.190
6.640,-0.203
6.645,-0.213
6.650,-0.199
6.655,-0.168
6.660,-0.131
6.665,-0.087
6.670,-0.037
6.675,0.021
6.680,0.086
6.685,0.150
6.690,0.202
6.695,0.245
6.700,0.274
6.705,0.293
6.710,0.311
6.715,0.326
6.720,0.334
6.725,0.329
6.730,0.321
6.735,0.321
6.740,0.304
6.745,0.276
6.750,0.267
6.755,0.260
6.760,0.245
6.765,0.236
6.770,0.234
6.775,0.227
6.780,0.210
6.785,0.192
6.790,0.169
6.795,0.156
6.800,0.153
6.805,0.139
6.810,0.125
6.815,0.116
6.820,0.105
6.825,0.091
6.830,0.081
6.835,0.076
6.840,0.071
6.845,0.064
6.850,0.062
6.855,0.054
6.860,0.031
6.865,0.026
6.870,0.035
6.875,0.032
6.880,0.023
6.885,0.022
6.890,0.012
6.895,0.003
6.900,0.016
6.905,0.023
6.910,0.016
6.915,0.013
6.920,0.015
6.925,0.001
6.930,-0.016
6.935,-0.030
6.940,-0.039
6.945,-0.030
6.950,-0.014
6.955,-0.011
6.960,-0.021
6.965,-0.029
6.970,-0.038
6.975,-0.048
6.980,-0.028
6.985,-0.006
6.990,-0.015
6.995,-0.035
7.000,-0.042
7.005,-0.045
7.010,-0.053
7.015,-0.050
7.020,-0.044
7.025,-0.053
7.030,-0.057
7.035,-0.046
7.040,-0.056
7.045,-0.070
7.050,-0.061
7.055,-0.059
7.060,-0.070
7.065,-0.089
7.070,-0.130
7.075,-0.166
7.080,-0.168
7.085,-0.202
7.090,-0.261
7.095,-0.248
7.100,-0.201
7.105,-0.180
7.110,-0.161
7.115,-0.128
7.120,-0.084
7.125,-0.045
7.130,-0.023
7.135,-0.015
7.140,-0.016
7.145,0.007
7.150,0.047
7.155,0.048
7.160,0.027
7.165,0.029
7.170,0.040
7.175,0.033
7.180,0.027
7.185,0.035
7.190,0.030
7.195,0.018
7.200,0.014
7.205,0.026
7.210,0.044
7.215,0.026
7.220,-0.038
7.225,-0.193
7.230,-0.490
7.235,-0.887
7.240,-1.238
7.245,-1.228
7.250,-0.760
7.255,-0.160
7.260,0.321
7.265,0.548
7.270,0.468
7.275,0.264
7.280,0.128
7.285,0.082
7.290,0.077
7.295,0.089
7.300,0.105
7.305,0.102
7.310,0.091
7.315,0.086
7.320,0.085
7.325,0.079
7.330,0.069
7.335,0.069
7.340,0.062
7.345,0.050
7.350,0.046
7.355,0.035
7.360,0.020
7.365,0.019
7.370,0.020
7.375,0.012
7.380,0.002
7.385,-0.001
7.390,-0.008
7.395,-0.022
7.400,-0.025
7.405,-0.025
7.410,-0.034
7.415,-0.044
7.420,-0.049
7.425,-0.060
7.430,-0.067
7.435,-0.068
7.440,-0.083
7.445,-0.102
7.450,-0.108
7.455,-0.118
7.460,-0.140
7.465,-0.153
7.470,-0.162
7.475,-0.177
7.480,-0.180
7.485,-0.177
7.490,-0.188
7.495,-0.193
7.500,-0.179
7.505,-0.161
7.510,-0.141
7.515,-0.100
7.520,-0.036
7.525,0.021
7.530,0.076
7.535,0.144
7.540,0.194
7.545,0.229
7.550,0.269
7.555,0.294
7.560,0.309
7.565,0.326
7.570,0.330
7.575,0.325
7.580,0.321
7.585,0.313
7.590,0.297
7.595,0.286
7.600,0.289
7.605,0.285
7.610,0.260
7.615,0.241
7.620,0.233
7.625,0.216
7.630,0.198
7.635,0.195
7.640,0.182
7.645,0.156
7.650,0.145
7.655,0.139
7.660,0.116
7.665,0.103
7.670,0.106
7.675,0.095
7.680,0.088
7.685,0.097
7.690,0.091
7.695,0.077
7.700,0.075
7.705,0.066
7.710,0.045
7.715,0.038
7.720,0.044
7.725,0.040
7.730,0.030
7.735,0.027
7.740,0.025
7.745,0.019
7.750,0.020
7.755,0.022
7.760,0.009
7.765,0.007
7.770,0.013
7.775,0.004
7.780,-0.003
7.785,0.003
7.790,-0.001
7.795,-0.015
7.800,-0.015
7.805,-0.012
7.810,-0.018
7.815,-0.020
7.820,-0.019
7.825,-0.028
7.830,-0.031
7.835,-0.027
7.840,-0.029
7.845,-0.035
7.850,-0.033
7.855,-0.038
7.860,-0.049
7.865,-0.047
7.870,-0.041
7.875,-0.048
7.880,-0.050
7.885,-0.044
7.890,-0.054
7.895,-0.060
7.900,-0.048
7.905,-0.051
7.910,-0.082
7.915,-0.123
7.920,-0.156
7.925,-0.175
7.930,-0.211
7.935,-0.246
7.940,-0.236
7.945,-0.210
7.950,-0.181
7.955,-0.144
7.960,-0.122
7.965,-0.085
7.970,-0.036
7.975,-0.023
7.980,-0.023
7.985,-0.004
7.990,0.017
7.995,0.043
8.000,0.064
8.005,0.057
8.010,0.051
8.015,0.054
8.020,0.048
8.025,0.038
8.030,0.037
8.035,0.035
8.040,0.021
8.045,0.014
8.050,0.039
8.055,0.060
8.060,0.028
8.065,-0.042
8.070,-0.204
8.075,-0.526
8.080,-0.931
8.085,-1.210
8.090,-1.084
8.095,-0.589
8.100,-0.033
8.105,0.381
8.110,0.509
8.115,0.418
8.120,0.275
8.125,0.139
8.130,0.076
8.135,0.085
8.140,0.089
8.145,0.084
8.150,0.090
8.155,0.087
8.160,0.071
8.165,0.065
8.170,0.066
8.175,0.059
8.180,0.049
8.185,0.039
8.190,0.031
8.195,0.028
8.200,0.027
8.205,0.021
8.210,0.012
8.215,0.012
8.220,0.007
8.225,-0.006
8.230,-0.010
8.235,-0.014
8.240,-0.025
8.245,-0.031
8.250,-0.030
8.255,-0.038
8.260,-0.059
8.265,-0.061
8.270,-0.056
8.275,-0.072
8.280,-0.083
8.285,-0.083
8.290,-0.097
8.295,-0.115
8.300,-0.128
8.305,-0.146
8.310,-0.162
8.315,-0.166
8.320,-0.172
8.325,-0.189
8.330,-0.194
8.335,-0.187
8.340,-0.190
8.345,-0.191
8.350,-0.170
8.355,-0.134
8.360,-0.094
8.365,-0.032
8.370,0.041
8.375,0.093
8.380,0.144
8.385,0.196
8.390,0.227
8.395,0.259
8.400,0.299
8.405,0.320
8.410,0.319
8.415,0.319
8.420,0.321
8.425,0.311
8.430,0.302
8.435,0.300
8.440,0.287
8.445,0.268
8.450,0.261
8.455,0.250
8.460,0.226
8.465,0.211
8.470,0.205
8.475,0.192
8.480,0.174
8.485,0.166
8.490,0.150
8.495,0.131
8.500,0.133
8.505,0.130
8.510,0.105
8.515,0.089
8.520,0.082
8.525,0.070
8.530,0.071
8.535,0.073
8.540,0.055
8.545,0.042
8.550,0.045
8.555,0.044
8.560,0.037
8.565,0.040
8.570,0.044
8.575,0.031
8.580,0.021
8.585,0.028
8.590,0.020
8.595,0.008
8.600,0.020
8.605,0.023
8.610,0.001
8.615,-0.004
8.620,0.005
8.625,-0.002
8.630,-0.003
8.635,0.003
8.640,-0.005
8.645,-0.017
8.650,-0.018
8.655,-0.018
8.660,-0.028
8.665,-0.036
8.670,-0.033
8.675,-0.038
8.680,-0.041
8.685,-0.034
8.690,-0.039
8.695,-0.039
8.700,-0.037
8.705,-0.047
8.710,-0.057
8.715,-0.057
8.720,-0.057
8.725,-0.070
8.730,-0.065
8.735,-0.048
8.740,-0.059
8.745,-0.077
8.750,-0.080
8.755,-0.112
8.760,-0.163
8.765,-0.181
8.770,-0.205
8.775,-0.253
8.780,-0.245
8.785,-0.205
8.790,-0.199
8.795,-0.183
8.800,-0.139
8.805,-0.096
8.810,-0.058
8.815,-0.034
8.820,-0.023
8.825,-0.015
8.830,0.006
8.835,0.039
8.840,0.046
8.845,0.037
8.850,0.040
8.855,0.042
8.860,0.030
8.865,0.023
8.870,0.030
8.875,0.025
8.880,0.013
8.885,0.023
8.890,0.044
8.895,0.056
8.900,0.039
8.905,-0.036
8.910,-0.211
8.915,-0.513
8.920,-0.915
8.925,-1.240
8.930,-1.129
8.935,-0.597
8.940,-0.008
8.945,0.441
8.950,0.577
8.955,0.453
8.960,0.291
8.965,0.147
8.970,0.074
8.975,0.062
8.980,0.063
8.985,0.074
8.990,0.070
8.995,0.060
9.000,0.064
9.005,0.060
9.010,0.049
9.015,0.050
9.020,0.047
9.025,0.028
9.030,0.020
9.035,0.027
9.040,0.023
9.045,0.011
9.050,0.006
9.055,0.000
9.060,-0.011
9.065,-0.017
9.070,-0.017
9.075,-0.024
9.080,-0.032
9.085,-0.033
9.090,-0.045
9.095,-0.057
9.100,-0.050
9.105,-0.049
9.110,-0.066
9.115,-0.081
9.120,-0.084
9.125,-0.092
9.130,-0.105
9.135,-0.113
9.140,-0.126
9.145,-0.144
9.150,-0.146
9.155,-0.152
9.160,-0.169
9.165,-0.173
9.170,-0.175
9.175,-0.188
9.180,-0.193
9.185,-0.179
9.190,-0.162
9.195,-0.140
9.200,-0.090
9.205,-0.031
9.210,0.021
9.215,0.085
9.220,0.149
9.225,0.198
9.230,0.243
9.235,0.281
9.240,0.299
9.245,0.309
9.250,0.323
9.255,0.332
9.260,0.326
9.265,0.323
9.270,0.320
9.275,0.304
9.280,0.294
9.285,0.288
9.290,0.268
9.295,0.249
9.300,0.244
9.305,0.232
9.310,0.209
9.315,0.196
9.320,0.186
9.325,0.165
9.330,0.155
9.335,0.152
9.340,0.134
9.345,0.118
9.350,0.115
9.355,0.103
9.360,0.088
9.365,0.084
9.370,0.078
9.375,0.065
9.380,0.062
9.385,0.062
9.390,0.051
9.395,0.039
9.400,0.042
9.405,0.045
9.410,0.032
9.415,0.024
9.420,0.029
9.425,0.025
9.430,0.022
9.435,0.029
9.440,0.024
9.445,0.013
9.450,0.012
9.455,0.009
9.460,-0.002
9.465,0.005
9.470,0.016
9.475,0.002
9.480,-0.009
9.485,-0.007
9.490,-0.012
9.495,-0.020
9.500,-0.016
9.505,-0.014
9.510,-0.022
9.515,-0.027
9.520,-0.025
9.525,-0.030
9.530,-0.036
9.535,-0.033
9.540,-0.036
9.545,-0.043
9.550,-0.041
9.555,-0.043
9.560,-0.055
9.565,-0.059
9.570,-0.051
9.575,-0.055
9.580,-0.061
9.585,-0.055
9.590,-0.061
9.595,-0.080
9.600,-0.096
9.605,-0.126
9.610,-0.158
9.615,-0.172
9.620,-0.205
9.625,-0.245
9.630,-0.233
9.635,-0.201
9.640,-0.190
9.645,-0.167
9.650,-0.127
9.655,-0.082
9.660,-0.041
9.665,-0.025
9.670,-0.021
9.675,-0.010
9.680,0.015
9.685,0.049
9.690,0.054
9.695,0.041
9.700,0.044
9.705,0.048
9.710,0.035
9.715,0.028
9.720,0.032
9.725,0.025
9.730,0.014
9.735,0.021
9.740,0.042
9.745,0.054
9.750,0.029
9.755,-0.056
9.760,-0.245
9.765,-0.567
9.770,-0.977
9.775,-1.278
9.780,-1.140
9.785,-0.598
9.790,-0.006
9.795,0.434
9.800,0.572
9.805,0.444
9.810,0.258
9.815,0.125
9.820,0.076
9.825,0.072
9.830,0.074
9.835,0.082
9.840,0.083
9.845,0.075
9.850,0.079
9.855,0.079
9.860,0.065
9.865,0.060
9.870,0.058
9.875,0.044
9.880,0.034
9.885,0.033
9.890,0.025
9.895,0.016
9.900,0.017
9.905,0.010
9.910,-0.009
9.915,-0.014
9.920,-0.009
9.925,-0.013
9.930,-0.022
9.935,-0.029
9.940,-0.037
9.945,-0.043
9.950,-0.043
9.955,-0.052
9.960,-0.067
9.965,-0.073
9.970,-0.077
9.975,-0.089
9.980,-0.099
9.985,-0.103
9.990,-0.120
9.995,-0.142
10.000,-0.148
10.005,-0.155
10.010,-0.172
10.015,-0.182
10.020,-0.184
10.025,-0.192
10.030,-0.196
10.035,-0.186
10.040,-0.169
10.045,-0.143
10.050,-0.095
10.055,-0.037
10.060,0.016
10.065,0.073
10.070,0.130
10.075,0.179
10.080,0.223
10.085,0.263
10.090,0.284
10.095,0.299
10.100,0.320
10.105,0.327
10.110,0.314
10.115,0.308
10.120,0.311
10.125,0.301
10.130,0.286
10.135,0.279
10.140,0.267
10.145,0.250
10.150,0.241
10.155,0.225
10.160,0.203
10.165,0.196
10.170,0.182
10.175,0.156
10.180,0.142
10.185,0.142
10.190,0.138
10.195,0.116
10.200,0.103
10.205,0.100
10.210,0.087
10.215,0.084
10.220,0.083
10.225,0.071
10.230,0.068
10.235,0.069
10.240,0.054
10.245,0.040
10.250,0.044
10.255,0.039
10.260,0.023
10.265,0.022
10.270,0.028
10.275,0.026
10.280,0.023
10.285,0.023
10.290,0.016
10.295,0.009
10.300,0.011
10.305,0.010
10.310,0.003
10.315,0.006
10.320,0.012
10.325,0.000
10.330,-0.009
10.335,-0.006
10.340,-0.017
10.345,-0.030
10.350,-0.023
10.355,-0.020
10.360,-0.031
10.365,-0.029
10.370,-0.023
10.375,-0.029
10.380,-0.035
10.385,-0.033
10.390,-0.040
10.395,-0.046
10.400,-0.036
10.405,-0.037
10.410,-0.052
10.415,-0.050
10.420,-0.041
10.425,-0.045
10.430,-0.050
10.435,-0.047
10.440,-0.056
10.445,-0.069
10.450,-0.061
10.455,-0.053
10.460,-0.060
10.465,-0.062
10.470,-0.063
10.475,-0.094
10.480,-0.143
10.485,-0.161
10.490,-0.169
10.495,-0.221
10.500,-0.254
10.505,-0.225
10.510,-0.202
10.515,-0.182
10.520,-0.142
10.525,-0.119
10.530,-0.086
10.535,-0.036
10.540,-0.021
10.545,-0.022
10.550,0.002
10.555,0.033
10.560,0.048
10.565,0.050
10.570,0.058
10.575,0.059
10.580,0.046
10.585,0.045
10.590,0.045
10.595,0.034
10.600,0.035
10.605,0.031
10.610,0.020
10.615,0.049
10.620,0.076
10.625,0.033
10.630,-0.064
10.635,-0.259
10.640,-0.611
10.645,-1.042
10.650,-1.288
10.655,-1.061
10.660,-0.500
10.665,0.080
10.670,0.490
10.675,0.561
10.680,0.415
10.685,0.259
10.690,0.133
10.695,0.079
10.700,0.082
10.705,0.081
10.710,0.081
10.715,0.089
10.720,0.093
10.725,0.086
10.730,0.074
10.735,0.073
10.740,0.063
10.745,0.052
10.750,0.052
10.755,0.044
10.760,0.030
10.765,0.026
10.770,0.026
10.775,0.014
10.780,0.000
10.785,-0.004
10.790,-0.005
10.795,-0.011
10.800,-0.014
10.805,-0.016
10.810,-0.027
10.815,-0.032
10.820,-0.032
10.825,-0.044
10.830,-0.052
10.835,-0.052
10.840,-0.064
10.845,-0.082
10.850,-0.085
10.855,-0.085
10.860,-0.107
10.865,-0.125
10.870,-0.122
10.875,-0.134
10.880,-0.154
10.885,-0.157
10.890,-0.167
10.895,-0.187
10.900,-0.184
10.905,-0.172
10.910,-0.172
10.915,-0.154
10.920,-0.114
10.925,-0.082
10.930,-0.041
10.935,0.021
10.940,0.078
10.945,0.131
10.950,0.186
10.955,0.232
10.960,0.261
10.965,0.289
10.970,0.313
10.975,0.317
10.980,0.315
10.985,0.318
10.990,0.311
10.995,0.295
11.000,0.295
11.005,0.306
11.010,0.289
11.015,0.258
11.020,0.248
11.025,0.240
11.030,0.223
11.035,0.210
11.040,0.193
11.045,0.171
11.050,0.159
11.055,0.155
11.060,0.141
11.065,0.133
11.070,0.130
11.075,0.111
11.080,0.101
11.085,0.100
11.090,0.085
11.095,0.068
11.100,0.064
11.105,0.063
11.110,0.054
11.115,0.048
11.120,0.049
11.125,0.045
11.130,0.042
11.135,0.043
11.140,0.036
11.145,0.024
11.150,0.018
11.155,0.017
11.160,0.014
11.165,0.020
11.170,0.027
11.175,0.015
11.180,0.004
11.185,0.007
11.190,0.003
11.195,-0.010
11.200,-0.009
11.205,-0.001
11.210,-0.008
11.215,-0.017
11.220,-0.010
11.225,-0.013
11.230,-0.027
11.235,-0.029
11.240,-0.029
11.245,-0.036
11.250,-0.037
11.255,-0.034
11.260,-0.041
11.265,-0.047
11.270,-0.040
11.275,-0.042
11.280,-0.054
11.285,-0.052
11.290,-0.050
11.295,-0.056
11.300,-0.053
11.305,-0.055
11.310,-0.065
11.315,-0.062
11.320,-0.054
11.325,-0.062
11.330,-0.065
11.335,-0.058
11.340,-0.068
11.345,-0.094
11.350,-0.126
11.355,-0.157
11.360,-0.179
11.365,-0.209
11.370,-0.239
11.375,-0.235
11.380,-0.214
11.385,-0.196
11.390,-0.172
11.395,-0.141
11.400,-0.102
11.405,-0.063
11.410,-0.044
11.415,-0.036
11.420,-0.010
11.425,0.020
11.430,0.041
11.435,0.058
11.440,0.051
11.445,0.037
11.450,0.045
11.455,0.048
11.460,0.034
11.465,0.028
11.470,0.031
11.475,0.024
11.480,0.018
11.485,0.034
11.490,0.053
11.495,0.042
11.500,-0.014
11.505,-0.148
11.510,-0.429
11.515,-0.832
11.520,-1.213
11.525,-1.283
11.530,-0.876
11.535,-0.249
11.540,0.294
11.545,0.568
11.550,0.514
11.555,0.330
11.560,0.174
11.565,0.097
11.570,0.095
11.575,0.101
11.580,0.105
11.585,0.117
11.590,0.109
11.595,0.095
11.600,0.096
11.605,0.095
11.610,0.080
11.615,0.072
11.620,0.078
11.625,0.069
11.630,0.053
11.635,0.047
11.640,0.038
11.645,0.028
11.650,0.031
11.655,0.031
11.660,0.014
11.665,0.003
11.670,0.004
11.675,-0.003
11.680,-0.017
11.685,-0.017
11.690,-0.019
11.695,-0.037
11.700,-0.043
11.705,-0.042
11.710,-0.053
11.715,-0.061
11.720,-0.066
11.725,-0.082
11.730,-0.099
11.735,-0.103
11.740,-0.114
11.745,-0.138
11.750,-0.153
11.755,-0.161
11.760,-0.173
11.765,-0.178
11.770,-0.174
11.775,-0.184
11.780,-0.193
11.785,-0.168
11.790,-0.134
11.795,-0.111
11.800,-0.064
11.805,0.001
11.810,0.046
11.815,0.094
11.820,0.159
11.825,0.208
11.830,0.240
11.835,0.276
11.840,0.304
11.845,0.316
11.850,0.329
11.855,0.334
11.860,0.322
11.865,0.317
11.870,0.317
11.875,0.301
11.880,0.293
11.885,0.291
11.890,0.271
11.895,0.251
11.900,0.244
11.905,0.232
11.910,0.208
11.915,0.189
11.920,0.182
11.925,0.169
11.930,0.151
11.935,0.139
11.940,0.125
11.945,0.110
11.950,0.107
11.955,0.105
11.960,0.091
11.965,0.080
11.970,0.076
11.975,0.066
11.980,0.057
11.985,0.058
11.990,0.053
11.995,0.045
12.000,0.044
12.005,0.039
12.010,0.028
12.015,0.027
12.020,0.027
12.025,0.015
12.030,0.011
12.035,0.015
12.040,0.008
12.045,0.003
12.050,0.008
12.055,0.004
12.060,-0.006
12.065,-0.008
12.070,-0.010
12.075,-0.022
12.080,-0.024
12.085,-0.013
12.090,-0.015
12.095,-0.026
12.100,-0.027
12.105,-0.026
12.110,-0.037
12.115,-0.043
12.120,-0.037
12.125,-0.042
12.130,-0.046
12.135,-0.043
12.140,-0.047
12.145,-0.052
12.150,-0.050
12.155,-0.051
12.160,-0.057
12.165,-0.053
12.170,-0.048
12.175,-0.056
12.180,-0.057
12.185,-0.054
12.190,-0.063
12.195,-0.074
12.200,-0.078
12.205,-0.097
12.210,-0.142
12.215,-0.167
12.220,-0.177
12.225,-0.222
12.230,-0.254
12.235,-0.228
12.240,-0.203
12.245,-0.190
12.250,-0.158
12.255,-0.126
12.260,-0.091
12.265,-0.045
12.270,-0.023
12.275,-0.023
12.280,-0.009
12.285,0.027
12.290,0.050
12.295,0.045
12.300,0.048
12.305,0.055
12.310,0.040
12.315,0.029
12.320,0.031
12.325,0.027
12.330,0.018
12.335,0.015
12.340,0.020
12.345,0.038
12.350,0.057
12.355,0.026
12.360,-0.068
12.365,-0.254
12.370,-0.577
12.375,-0.987
12.380,-1.259
12.385,-1.087
12.390,-0.566
12.395,-0.011
12.400,0.405
12.405,0.525
12.410,0.402
12.415,0.242
12.420,0.129
12.425,0.082
12.430,0.085
12.435,0.097
12.440,0.095
12.445,0.084
12.450,0.085
12.455,0.092
12.460,0.084
12.465,0.073
12.470,0.074
12.475,0.065
12.480,0.047
12.485,0.045
12.490,0.039
12.495,0.022
12.500,0.021
12.505,0.024
12.510,0.016
12.515,0.011
12.520,0.009
12.525,-0.006
12.530,-0.018
12.535,-0.017
12.540,-0.024
12.545,-0.039
12.550,-0.035
12.555,-0.027
12.560,-0.044
12.565,-0.061
12.570,-0.065
12.575,-0.080
12.580,-0.100
12.585,-0.104
12.590,-0.113
12.595,-0.128
12.600,-0.134
12.605,-0.145
12.610,-0.165
12.615,-0.170
12.620,-0.168
12.625,-0.179
12.630,-0.188
12.635,-0.182
12.640,-0.174
12.645,-0.164
12.650,-0.127
12.655,-0.077
12.660,-0.038
12.665,0.017
12.670,0.085
12.675,0.131
12.680,0.172
12.685,0.227
12.690,0.267
12.695,0.285
12.700,0.302
12.705,0.316
12.710,0.321
12.715,0.324
12.720,0.326
12.725,0.314
12.730,0.294
12.735,0.289
12.740,0.280
12.745,0.256
12.750,0.241
12.755,0.232
12.760,0.213
12.765,0.200
12.770,0.199
12.775,0.181
12.780,0.161
12.785,0.153
12.790,0.138
12.795,0.119
12.800,0.112
12.805,0.109
12.810,0.095
12.815,0.083
12.820,0.084
12.825,0.078
12.830,0.066
12.835,0.060
12.840,0.053
12.845,0.047
12.850,0.050
12.855,0.052
12.860,0.042
12.865,0.029
12.870,0.024
12.875,0.020
12.880,0.021
12.885,0.028
12.890,0.021
12.895,0.008
12.900,0.012
12.905,0.016
12.910,0.001
12.915,-0.009
12.920,-0.004
12.925,-0.006
12.930,-0.010
12.935,-0.009
12.940,-0.017
12.945,-0.021
12.950,-0.011
12.955,-0.011
12.960,-0.028
12.965,-0.034
12.970,-0.024
12.975,-0.030
12.980,-0.040
12.985,-0.033
12.990,-0.038
12.995,-0.052
13.000,-0.046
13.005,-0.040
13.010,-0.049
13.015,-0.049
13.020,-0.044
13.025,-0.059
13.030,-0.064
13.035,-0.047
13.040,-0.047
13.045,-0.061
13.050,-0.057
13.055,-0.053
13.060,-0.064
13.065,-0.063
13.070,-0.051
13.075,-0.059
13.080,-0.078
13.085,-0.105
13.090,-0.146
13.095,-0.164
13.100,-0.177
13.105,-0.221
13.110,-0.240
13.115,-0.219
13.120,-0.193
13.125,-0.164
13.130,-0.140
13.135,-0.109
13.140,-0.057
13.145,-0.025
13.150,-0.011
13.155,0.003
13.160,0.015
13.165,0.042
13.170,0.066
13.175,0.053
13.180,0.043
13.185,0.052
13.190,0.048
13.195,0.036
13.200,0.036
13.205,0.043
13.210,0.029
13.215,0.015
13.220,0.033
13.225,0.062
13.230,0.057
13.235,0.007
13.240,-0.119
13.245,-0.380
13.250,-0.763
13.255,-1.149
13.260,-1.224
13.265,-0.826
13.270,-0.234
13.275,0.278
13.280,0.522
13.285,0.484
13.290,0.352
13.295,0.200
13.300,0.098
13.305,0.083
13.310,0.084
13.315,0.086
13.320,0.095
13.325,0.090
13.330,0.074
13.335,0.075
13.340,0.077
13.345,0.069
13.350,0.062
13.355,0.054
13.360,0.042
13.365,0.036
13.370,0.037
13.375,0.027
13.380,0.010
13.385,0.010
13.390,0.009
13.395,-0.006
13.400,-0.012
13.405,-0.011
13.410,-0.021
13.415,-0.026
13.420,-0.021
13.425,-0.029
13.430,-0.039
13.435,-0.039
13.440,-0.052
13.445,-0.072
13.450,-0.072
13.455,-0.070
13.460,-0.091
13.465,-0.105
13.470,-0.106
13.475,-0.122
13.480,-0.141
13.485,-0.144
13.490,-0.149
13.495,-0.166
13.500,-0.177
13.505,-0.175
13.510,-0.177
13.515,-0.181
13.520,-0.168
13.525,-0.146
13.530,-0.118
13.535,-0.071
13.540,-0.016
13.545,0.037
13.550,0.097
13.555,0.157
13.560,0.200
13.565,0.238
13.570,0.276
13.575,0.297
13.580,0.303
13.585,0.314
13.590,0.318
13.595,0.314
13.600,0.319
13.605,0.314
13.610,0.287
13.615,0.272
13.620,0.269
13.625,0.254
13.630,0.238
13.635,0.232
13.640,0.217
13.645,0.193
13.650,0.181
13.655,0.173
13.660,0.153
13.665,0.140
13.670,0.134
13.675,0.118
13.680,0.105
13.685,0.101
13.690,0.090
13.695,0.076
13.700,0.076
13.705,0.076
13.710,0.060
13.715,0.048
13.720,0.050
13.725,0.048
13.730,0.044
13.735,0.042
13.740,0.037
13.745,0.032
13.750,0.034
13.755,0.033
13.760,0.022
13.765,0.016
13.770,0.017
13.775,0.012
13.780,0.003
13.785,0.003
13.790,0.003
13.795,-0.006
13.800,-0.006
13.805,0.001
13.810,-0.010
13.815,-0.018
13.820,-0.009
13.825,-0.011
13.830,-0.021
13.835,-0.021
13.840,-0.023
13.845,-0.034
13.850,-0.034
13.855,-0.028
13.860,-0.035
13.865,-0.038
13.870,-0.034
13.875,-0.043
13.880,-0.048
13.885,-0.043
13.890,-0.044
13.895,-0.049
13.900,-0.045
13.905,-0.044
13.910,-0.055
13.915,-0.058
13.920,-0.051
13.925,-0.061
13.930,-0.092
13.935,-0.129
13.940,-0.155
13.945,-0.180
13.950,-0.220
13.955,-0.241
13.960,-0.222
13.965,-0.204
13.970,-0.184
13.975,-0.152
13.980,-0.125
13.985,-0.081
13.990,-0.041
13.995,-0.031
14.000,-0.022
14.005,-0.004
14.010,0.018
14.015,0.045
14.020,0.054
14.025,0.045
14.030,0.038
14.035,0.038
14.040,0.038
14.045,0.030
14.050,0.023
14.055,0.023
14.060,0.016
14.065,0.015
14.070,0.043
14.075,0.057
14.080,0.014
14.085,-0.078
14.090,-0.277
14.095,-0.627
14.100,-1.044
14.105,-1.284
14.110,-1.062
14.115,-0.497
14.120,0.084
14.125,0.482
14.130,0.559
14.135,0.421
14.140,0.251
14.145,0.122
14.150,0.078
14.155,0.082
14.160,0.081
14.165,0.084
14.170,0.093
14.175,0.084
14.180,0.071
14.185,0.072
14.190,0.067
14.195,0.054
14.200,0.050
14.205,0.050
14.210,0.038
14.215,0.029
14.220,0.028
14.225,0.018
14.230,0.005
14.235,0.005
14.240,0.006
14.245,-0.004
14.250,-0.013
14.255,-0.017
14.260,-0.026
14.265,-0.034
14.270,-0.033
14.275,-0.039
14.280,-0.049
14.285,-0.053
14.290,-0.061
14.295,-0.072
14.300,-0.078
14.305,-0.085
14.310,-0.104
14.315,-0.123
14.320,-0.134
14.325,-0.146
14.330,-0.157
14.335,-0.163
14.340,-0.170
14.345,-0.183
14.350,-0.190
14.355,-0.186
14.360,-0.189
14.365,-0.186
14.370,-0.163
14.375,-0.131
14.380,-0.093
14.385,-0.035
14.390,0.031
14.395,0.087
14.400,0.142
14.405,0.193
14.410,0.230
14.415,0.266
14.420,0.299
14.425,0.311
14.430,0.316
14.435,0.324
14.440,0.321
14.445,0.310
14.450,0.310
14.455,0.304
14.460,0.284
14.465,0.275
14.470,0.276
14.475,0.255
14.480,0.232
14.485,0.224
14.490,0.210
14.495,0.189
14.500,0.177
14.505,0.171
14.510,0.153
14.515,0.138
14.520,0.138
14.525,0.127
14.530,0.110
14.535,0.106
14.540,0.096
14.545,0.080
14.550,0.079
14.555,0.077
14.560,0.065
14.565,0.059
14.570,0.058
14.575,0.050
14.580,0.043
14.585,0.043
14.590,0.039
14.595,0.027
14.600,0.022
14.605,0.025
14.610,0.021
14.615,0.020
14.620,0.027
14.625,0.025
14.630,0.015
14.635,0.014
14.640,0.013
14.645,0.006
14.650,0.007
14.655,0.007
14.660,-0.006
14.665,-0.014
14.670,-0.006
14.675,-0.009
14.680,-0.020
14.685,-0.013
14.690,-0.014
14.695,-0.030
14.700,-0.034
14.705,-0.028
14.710,-0.033
14.715,-0.040
14.720,-0.035
14.725,-0.039
14.730,-0.048
14.735,-0.046
14.740,-0.047
14.745,-0.053
14.750,-0.049
14.755,-0.044
14.760,-0.049
14.765,-0.050
14.770,-0.048
14.775,-0.059
14.780,-0.062
14.785,-0.059
14.790,-0.078
14.795,-0.124
14.800,-0.159
14.805,-0.166
14.810,-0.193
14.815,-0.238
14.820,-0.233
14.825,-0.206
14.830,-0.197
14.835,-0.165
14.840,-0.126
14.845,-0.096
14.850,-0.055
14.855,-0.027
14.860,-0.028
14.865,-0.019
14.870,0.010
14.875,0.040
14.880,0.055
14.885,0.054
14.890,0.050
14.895,0.045
14.900,0.042
14.905,0.041
14.910,0.030
14.915,0.026
14.920,0.029
14.925,0.020
14.930,0.025
14.935,0.055
14.940,0.050
14.945,-0.020
14.950,-0.162
14.955,-0.439
14.960,-0.847
14.965,-1.222
14.970,-1.239
14.975,-0.803
14.980,-0.207
14.985,0.312
14.990,0.562
14.995,0.481
15.000,0.300
15.005,0.166
15.010,0.093
15.015,0.089
15.020,0.110
15.025,0.107
15.030,0.095
15.035,0.097
15.040,0.095
15.045,0.080
15.050,0.076
15.055,0.078
15.060,0.064
15.065,0.053
15.070,0.055
15.075,0.050
15.080,0.040
15.085,0.035
15.090,0.026
15.095,0.008
15.100,0.004
15.105,0.006
15.110,-0.004
15.115,-0.007
15.120,-0.003
15.125,-0.017
15.130,-0.035
15.135,-0.033
15.140,-0.036
15.145,-0.048
15.150,-0.052
15.155,-0.058
15.160,-0.075
15.165,-0.087
15.170,-0.085
15.175,-0.097
15.180,-0.117
15.185,-0.123
15.190,-0.136
15.195,-0.156
15.200,-0.159
15.205,-0.165
15.210,-0.182
15.215,-0.183
15.220,-0.170
15.225,-0.169
15.230,-0.168
15.235,-0.139
15.240,-0.104
15.245,-0.074
15.250,-0.016
15.255,0.054
15.260,0.106
15.265,0.157
15.270,0.212
15.275,0.247
15.280,0.267
15.285,0.295
15.290,0.318
15.295,0.319
15.300,0.320
15.305,0.325
15.310,0.314
15.315,0.301
15.320,0.300
15.325,0.285
15.330,0.260
15.335,0.246
15.340,0.235
15.345,0.220
15.350,0.211
15.355,0.206
15.360,0.186
15.365,0.170
15.370,0.167
15.375,0.152
15.380,0.131
15.385,0.122
15.390,0.117
15.395,0.106
15.400,0.095
15.405,0.089
15.410,0.078
15.415,0.067
15.420,0.069
15.425,0.064
15.430,0.050
15.435,0.049
15.440,0.044
15.445,0.033
15.450,0.032
15.455,0.035
15.460,0.029
15.465,0.025
15.470,0.028
15.475,0.023
15.480,0.013
15.485,0.008
15.490,0.006
15.495,0.004
15.500,0.001
15.505,-0.003
15.510,-0.007
15.515,-0.009
15.520,-0.007
15.525,-0.014
15.530,-0.023
15.535,-0.020
15.540,-0.025
15.545,-0.035
15.550,-0.025
15.555,-0.018
15.560,-0.031
15.565,-0.039
15.570,-0.035
15.575,-0.040
15.580,-0.048
15.585,-0.048
15.590,-0.050
15.595,-0.052
15.600,-0.047
15.605,-0.047
15.610,-0.057
15.615,-0.061
15.620,-0.057
15.625,-0.065
15.630,-0.075
15.635,-0.065
15.640,-0.058
15.645,-0.070
15.650,-0.077
15.655,-0.087
15.660,-0.135
15.665,-0.173
15.670,-0.181
15.675,-0.221
15.680,-0.257
15.685,-0.231
15.690,-0.202
15.695,-0.195
15.700,-0.159
15.705,-0.120
15.710,-0.096
15.715,-0.055
15.720,-0.024
15.725,-0.021
15.730,-0.013
15.735,0.014
15.740,0.039
15.745,0.042
15.750,0.038
15.755,0.042
15.760,0.034
15.765,0.029
15.770,0.033
15.775,0.025
15.780,0.015
15.785,0.020
15.790,0.023
15.795,0.034
15.800,0.058
15.805,0.033
15.810,-0.059
15.815,-0.239
15.820,-0.559
15.825,-0.973
15.830,-1.266
15.835,-1.121
15.840,-0.596
15.845,-0.025
15.850,0.406
15.855,0.541
15.860,0.409
15.865,0.232
15.870,0.126
15.875,0.088
15.880,0.084
15.885,0.092
15.890,0.095
15.895,0.088
15.900,0.094
15.905,0.099
15.910,0.084
15.915,0.076
15.920,0.080
15.925,0.071
15.930,0.057
15.935,0.056
15.940,0.053
15.945,0.039
15.950,0.029
15.955,0.025
15.960,0.016
15.965,0.009
15.970,0.011
15.975,0.006
15.980,-0.009
15.985,-0.011
15.990,-0.009
15.995,-0.019
16.000,-0.024
16.005,-0.028
16.010,-0.043
16.015,-0.057
16.020,-0.057
16.025,-0.062
16.030,-0.079
16.035,-0.092
16.040,-0.106
16.045,-0.120
16.050,-0.126
16.055,-0.136
16.060,-0.155
16.065,-0.169
16.070,-0.169
16.075,-0.171
16.080,-0.180
16.085,-0.178
16.090,-0.169
16.095,-0.162
16.100,-0.133
16.105,-0.084
16.110,-0.039
16.115,0.008
16.120,0.069
16.125,0.122
16.130,0.167
16.135,0.222
16.140,0.260
16.145,0.277
16.150,0.300
16.155,0.317
16.160,0.311
16.165,0.307
16.170,0.316
16.175,0.308
16.180,0.290
16.185,0.290
16.190,0.285
16.195,0.266
16.200,0.255
16.205,0.244
16.210,0.220
16.215,0.204
16.220,0.200
16.225,0.185
16.230,0.166
16.235,0.159
16.240,0.149
16.245,0.130
16.250,0.120
16.255,0.115
16.260,0.104
16.265,0.095
16.270,0.091
16.275,0.082
16.280,0.072
16.285,0.074
16.290,0.064
16.295,0.048
16.300,0.052
16.305,0.056
16.310,0.043
16.315,0.032
16.320,0.033
16.325,0.030
16.330,0.023
16.335,0.026
16.340,0.024
16.345,0.012
16.350,0.009
16.355,0.011
16.360,0.004
16.365,0.000
16.370,0.003
16.375,-0.005
16.380,-0.016
16.385,-0.013
16.390,-0.008
16.395,-0.016
16.400,-0.024
16.405,-0.022
16.410,-0.024
16.415,-0.031
16.420,-0.030
16.425,-0.027
16.430,-0.033
16.435,-0.035
16.440,-0.035
16.445,-0.046
16.450,-0.047
16.455,-0.036
16.460,-0.040
16.465,-0.048
16.470,-0.043
16.475,-0.047
16.480,-0.056
16.485,-0.051
16.490,-0.052
16.495,-0.061
16.500,-0.062
16.505,-0.058
16.510,-0.068
16.515,-0.086
16.520,-0.110
16.525,-0.149
16.530,-0.172
16.535,-0.196
16.540,-0.237
16.545,-0.247
16.550,-0.220
16.555,-0.188
16.560,-0.162
16.565,-0.135
16.570,-0.093
16.575,-0.049
16.580,-0.032
16.585,-0.023
16.590,-0.003
16.595,0.015
16.600,0.047
16.605,0.067
16.610,0.050
16.615,0.043
16.620,0.056
16.625,0.049
16.630,0.029
16.635,0.028
16.640,0.032
16.645,0.019
16.650,0.015
16.655,0.032
16.660,0.045
16.665,0.033
16.670,-0.015
16.675,-0.144
16.680,-0.416
16.685,-0.804
16.690,-1.165
16.695,-1.193
16.700,-0.776
16.705,-0.202
16.710,0.275
16.715,0.500
16.720,0.460
16.725,0.312
16.730,0.163
16.735,0.087
16.740,0.080
16.745,0.079
16.750,0.081
16.755,0.089
16.760,0.087
16.765,0.082
16.770,0.083
16.775,0.077
16.780,0.059
16.785,0.048
16.790,0.043
16.795,0.035
16.800,0.034
16.805,0.033
16.810,0.019
16.815,0.009
16.820,0.013
16.825,0.007
16.830,-0.007
16.835,-0.008
16.840,-0.013
16.845,-0.021
16.850,-0.025
16.855,-0.030
16.860,-0.044
16.865,-0.053
16.870,-0.049
16.875,-0.061
16.880,-0.079
16.885,-0.076
16.890,-0.078
16.895,-0.095
16.900,-0.107
16.905,-0.119
16.910,-0.139
16.915,-0.150
16.920,-0.150
16.925,-0.160
16.930,-0.177
16.935,-0.182
16.940,-0.181
16.945,-0.189
16.950,-0.187
16.955,-0.167
16.960,-0.149
16.965,-0.123
16.970,-0.071
16.975,-0.011
16.980,0.046
16.985,0.107
16.990,0.163
16.995,0.206
17.000,0.246
17.005,0.284
17.010,0.304
17.015,0.314
17.020,0.322
17.025,0.319
17.030,0.312
17.035,0.314
17.040,0.308
17.045,0.291
17.050,0.284
17.055,0.276
17.060,0.252
17.065,0.238
17.070,0.233
17.075,0.210
17.080,0.186
17.085,0.183
17.090,0.176
17.095,0.158
17.100,0.148
17.105,0.138
17.110,0.123
17.115,0.114
17.120,0.108
17.125,0.091
17.130,0.078
17.135,0.080
17.140,0.077
17.145,0.071
17.150,0.073
17.155,0.069
17.160,0.053
17.165,0.046
17.170,0.053
17.175,0.051
17.180,0.036
17.185,0.031
17.190,0.027
17.195,0.016
17.200,0.014
17.205,0.019
17.210,0.019
17.215,0.018
17.220,0.020
17.225,0.013
17.230,0.004
17.235,0.003
17.240,0.000
17.245,-0.006
17.250,-0.002
17.255,0.000
17.260,-0.015
17.265,-0.029
17.270,-0.030
17.275,-0.033
17.280,-0.033
17.285,-0.023
17.290,-0.028
17.295,-0.044
17.300,-0.043
17.305,-0.036
17.310,-0.039
17.315,-0.036
17.320,-0.027
17.325,-0.033
17.330,-0.049
17.335,-0.055
17.340,-0.053
17.345,-0.061
17.350,-0.080
17.355,-0.113
17.360,-0.150
17.365,-0.172
17.370,-0.200
17.375,-0.235
17.380,-0.234
17.385,-0.209
17.390,-0.190
17.395,-0.164
17.400,-0.134
17.405,-0.098
17.410,-0.053
17.415,-0.032
17.420,-0.024
17.425,-0.013
17.430,0.013
17.435,0.048
17.440,0.052
17.445,0.039
17.450,0.036
17.455,0.036
17.460,0.029
17.465,0.030
17.470,0.034
17.475,0.026
17.480,0.014
17.485,0.017
17.490,0.031
17.495,0.049
17.500,0.043
17.505,-0.022
17.510,-0.175
17.515,-0.460
17.520,-0.860
17.525,-1.216
17.530,-1.177
17.535,-0.683
17.540,-0.092
17.545,0.376
17.550,0.558
17.555,0.468
17.560,0.315
17.565,0.161
17.570,0.069
17.575,0.060
17.580,0.064
17.585,0.068
17.590,0.067
17.595,0.059
17.600,0.058
17.605,0.064
17.610,0.057
17.615,0.043
17.620,0.044
17.625,0.040
17.630,0.026
17.635,0.015
17.640,0.007
17.645,0.000
17.650,-0.003
17.655,-0.003
17.660,-0.016
17.665,-0.026
17.670,-0.022
17.675,-0.030
17.680,-0.042
17.685,-0.038
17.690,-0.037
17.695,-0.053
17.700,-0.061
17.705,-0.061
17.710,-0.071
17.715,-0.082
17.720,-0.082
17.725,-0.087
17.730,-0.108
17.735,-0.125
17.740,-0.134
17.745,-0.146
17.750,-0.153
17.755,-0.159
17.760,-0.176
17.765,-0.183
17.770,-0.184
17.775,-0.194
17.780,-0.200
17.785,-0.182
17.790,-0.160
17.795,-0.146
17.800,-0.110
17.805,-0.052
17.810,0.004
17.815,0.066
17.820,0.131
17.825,0.181
17.830,0.221
17.835,0.261
17.840,0.287
17.845,0.297
17.850,0.310
17.855,0.323
17.860,0.319
17.865,0.313
17.870,0.316
17.875,0.308
17.880,0.294
17.885,0.290
17.890,0.280
17.895,0.259
17.900,0.244
17.905,0.232
17.910,0.212
17.915,0.197
17.920,0.189
17.925,0.174
17.930,0.153
17.935,0.146
17.940,0.138
17.945,0.123
17.950,0.114
17.955,0.104
17.960,0.093
17.965,0.088
17.970,0.084
17.975,0.075
17.980,0.060
17.985,0.057
17.990,0.054
17.995,0.043
18.000,0.037
18.005,0.035
18.010,0.026
18.015,0.028
18.020,0.041
18.025,0.035
18.030,0.020
18.035,0.021
18.040,0.022
18.045,0.014
18.050,0.009
18.055,0.011
18.060,0.003
18.065,-0.005
18.070,0.002
18.075,0.001
18.080,-0.008
18.085,-0.003
18.090,-0.002
18.095,-0.017
18.100,-0.023
18.105,-0.023
18.110,-0.032
18.115,-0.033
18.120,-0.027
18.125,-0.031
18.130,-0.045
18.135,-0.043
18.140,-0.037
18.145,-0.045
18.150,-0.047
18.155,-0.042
18.160,-0.049
18.165,-0.056
18.170,-0.049
18.175,-0.050
18.180,-0.059
18.185,-0.053
18.190,-0.049
18.195,-0.062
18.200,-0.073
18.205,-0.081
18.210,-0.118
18.215,-0.157
18.220,-0.159
18.225,-0.184
18.230,-0.235
18.235,-0.230
18.240,-0.197
18.245,-0.189
18.250,-0.164
18.255,-0.123
18.260,-0.097
18.265,-0.058
18.270,-0.020
18.275,-0.016
18.280,-0.018
18.285,0.008
18.290,0.044
18.295,0.055
18.300,0.050
18.305,0.051
18.310,0.043
18.315,0.037
18.320,0.042
18.325,0.038
18.330,0.026
18.335,0.025
18.340,0.026
18.345,0.031
18.350,0.055
18.355,0.053
18.360,-0.015
18.365,-0.159
18.370,-0.427
18.375,-0.827
18.380,-1.208
18.385,-1.248
18.390,-0.832
18.395,-0.242
18.400,0.280
18.405,0.550
18.410,0.498
18.415,0.318
18.420,0.171
18.425,0.096
18.430,0.086
18.435,0.098
18.440,0.101
18.445,0.091
18.450,0.084
18.455,0.085
18.460,0.081
18.465,0.080
18.470,0.083
18.475,0.073
18.480,0.056
18.485,0.052
18.490,0.046
18.495,0.032
18.500,0.027
18.505,0.029
18.510,0.020
18.515,0.008
18.520,0.007
18.525,0.002
18.530,-0.006
18.535,-0.005
18.540,-0.012
18.545,-0.026
18.550,-0.031
18.555,-0.034
18.560,-0.048
18.565,-0.061
18.570,-0.061
18.575,-0.062
18.580,-0.079
18.585,-0.091
18.590,-0.100
18.595,-0.121
18.600,-0.131
18.605,-0.132
18.610,-0.150
18.615,-0.167
18.620,-0.171
18.625,-0.181
18.630,-0.192
18.635,-0.186
18.640,-0.178
18.645,-0.173
18.650,-0.148
18.655,-0.106
18.660,-0.065
18.665,-0.013
18.670,0.053
18.675,0.111
18.680,0.155
18.685,0.203
18.690,0.248
18.695,0.273
18.700,0.296
18.705,0.318
18.710,0.321
18.715,0.316
18.720,0.322
18.725,0.319
18.730,0.301
18.735,0.295
18.740,0.292
18.745,0.270
18.750,0.256
18.755,0.250
18.760,0.230
18.765,0.209
18.770,0.203
18.775,0.195
18.780,0.174
18.785,0.163
18.790,0.158
18.795,0.137
18.800,0.122
18.805,0.120
18.810,0.108
18.815,0.095
18.820,0.090
18.825,0.084
18.830,0.076
18.835,0.068
18.840,0.063
18.845,0.054
18.850,0.048
18.855,0.045
18.860,0.038
18.865,0.036
18.870,0.037
18.875,0.030
18.880,0.023
18.885,0.026
18.890,0.025
18.895,0.012
18.900,0.008
18.905,0.014
18.910,0.009
18.915,0.002
18.920,0.002
18.925,-0.004
18.930,-0.013
18.935,-0.011
18.940,-0.010
18.945,-0.023
18.950,-0.026
18.955,-0.016
18.960,-0.022
18.965,-0.028
18.970,-0.024
18.975,-0.029
18.980,-0.040
18.985,-0.039
18.990,-0.036
18.995,-0.047
19.000,-0.051
19.005,-0.043
19.010,-0.048
19.015,-0.056
19.020,-0.046
19.025,-0.046
19.030,-0.058
19.035,-0.056
19.040,-0.056
19.045,-0.064
19.050,-0.063
19.055,-0.066
19.060,-0.097
19.065,-0.139
19.070,-0.158
19.075,-0.167
19.080,-0.212
19.085,-0.251
19.090,-0.229
19.095,-0.202
19.100,-0.187
19.105,-0.151
19.110,-0.121
19.115,-0.090
19.120,-0.040
19.125,-0.018
19.130,-0.021
19.135,-0.006
19.140,0.022
19.145,0.043
19.150,0.052
19.155,0.051
19.160,0.045
19.165,0.037
19.170,0.038
19.175,0.037
19.180,0.030
19.185,0.033
19.190,0.030
19.195,0.015
19.200,0.024
19.205,0.053
19.210,0.042
19.215,-0.029
19.220,-0.170
19.225,-0.444
19.230,-0.843
19.235,-1.185
19.240,-1.177
19.245,-0.767
19.250,-0.216
19.255,0.266
19.260,0.499
19.265,0.444
19.270,0.293
19.275,0.158
19.280,0.083
19.285,0.079
19.290,0.098
19.295,0.099
19.300,0.096
19.305,0.098
19.310,0.089
19.315,0.082
19.320,0.089
19.325,0.082
19.330,0.067
19.335,0.061
19.340,0.055
19.345,0.044
19.350,0.041
19.355,0.040
19.360,0.028
19.365,0.012
19.370,0.009
19.375,0.010
19.380,-0.001
19.385,-0.008
19.390,-0.010
19.395,-0.021
19.400,-0.027
19.405,-0.028
19.410,-0.037
19.415,-0.046
19.420,-0.053
19.425,-0.066
19.430,-0.078
19.435,-0.079
19.440,-0.084
19.445,-0.107
19.450,-0.122
19.455,-0.125
19.460,-0.141
19.465,-0.155
19.470,-0.159
19.475,-0.172
19.480,-0.186
19.485,-0.190
19.490,-0.195
19.495,-0.200
19.500,-0.181
19.505,-0.142
19.510,-0.106
19.515,-0.064
19.520,-0.005
19.525,0.058
19.530,0.111
19.535,0.163
19.540,0.214
19.545,0.249
19.550,0.280
19.555,0.310
19.560,0.317
19.565,0.313
19.570,0.322
19.575,0.322
19.580,0.309
19.585,0.300
19.590,0.292
19.595,0.276
19.600,0.260
19.605,0.249
19.610,0.239
19.615,0.231
19.620,0.224
19.625,0.206
19.630,0.179
19.635,0.161
19.640,0.154
19.645,0.149
19.650,0.139
19.655,0.130
19.660,0.116
19.665,0.098
19.670,0.095
19.675,0.092
19.680,0.072
19.685,0.062
19.690,0.059
19.695,0.047
19.700,0.046
19.705,0.051
19.710,0.039
19.715,0.027
19.720,0.032
19.725,0.036
19.730,0.031
19.735,0.028
19.740,0.021
19.745,0.012
19.750,0.015
19.755,0.016
19.760,0.010
19.765,0.006
19.770,0.005
19.775,0.004
19.780,0.001
19.785,-0.006
19.790,-0.015
19.795,-0.026
19.800,-0.028
19.805,-0.016
19.810,-0.020
19.815,-0.031
19.820,-0.024
19.825,-0.025
19.830,-0.040
19.835,-0.039
19.840,-0.036
19.845,-0.046
19.850,-0.048
19.855,-0.038
19.860,-0.044
19.865,-0.053
19.870,-0.050
19.875,-0.052
19.880,-0.055
19.885,-0.043
19.890,-0.042
19.895,-0.058
19.900,-0.072
19.905,-0.097
19.910,-0.141
19.915,-0.157
19.920,-0.164
19.925,-0.216
19.930,-0.242
19.935,-0.210
19.940,-0.187
19.945,-0.176
19.950,-0.149
19.955,-0.110
19.960,-0.064
19.965,-0.029
19.970,-0.014
19.975,-0.007
19.980,0.009
19.985,0.039
19.990,0.053
19.995,0.038
20.000,0.035
20.005,0.042
20.010,0.034
20.015,0.033
20.020,0.043
20.025,0.033
20.030,0.013
20.035,0.014
20.040,0.031
20.045,0.053
20.050,0.060
20.055,0.014
20.060,-0.098
20.065,-0.319
20.070,-0.674
20.075,-1.069
20.080,-1.214
20.085,-0.899
20.090,-0.358
20.095,0.136
20.100,0.441
20.105,0.484
20.110,0.375
20.115,0.220
20.120,0.107
20.125,0.075
20.130,0.073
20.135,0.082
20.140,0.094
20.145,0.088
20.150,0.077
20.155,0.076
20.160,0.058
20.165,0.037
20.170,0.047
20.175,0.056
20.180,0.036
20.185,0.023
20.190,0.023
20.195,0.018
20.200,0.011
20.205,0.014
20.210,0.012
20.215,-0.004
20.220,-0.006
20.225,-0.011
20.230,-0.029
20.235,-0.027
20.240,-0.020
20.245,-0.026
20.250,-0.027
20.255,-0.031
20.260,-0.043
20.265,-0.050
20.270,-0.057
20.275,-0.078
20.280,-0.116
20.285,-0.130
20.290,-0.125
20.295,-0.139
20.300,-0.154
20.305,-0.155
20.310,-0.167
20.315,-0.182
20.320,-0.181
20.325,-0.182
20.330,-0.190
20.335,-0.186
20.340,-0.171
20.345,-0.155
20.350,-0.125
20.355,-0.072
20.360,-0.014
20.365,0.041
20.370,0.111
20.375,0.167
20.380,0.196
20.385,0.240
20.390,0.285
20.395,0.301
20.400,0.312
20.405,0.326
20.410,0.325
20.415,0.325
20.420,0.329
20.425,0.317
20.430,0.299
20.435,0.295
20.440,0.284
20.445,0.255
20.450,0.232
20.455,0.220
20.460,0.210
20.465,0.203
20.470,0.197
20.475,0.187
20.480,0.176
20.485,0.159
20.490,0.141
20.495,0.128
20.500,0.117
20.505,0.117
20.510,0.106
20.515,0.087
20.520,0.086
20.525,0.077
20.530,0.056
20.535,0.054
20.540,0.055
20.545,0.045
20.550,0.044
20.555,0.050
20.560,0.040
20.565,0.029
20.570,0.033
20.575,0.028
20.580,0.017
20.585,0.019
20.590,0.018
20.595,0.009
20.600,0.008
20.605,0.008
20.610,0.000
20.615,0.001
20.620,0.007
20.625,-0.007
20.630,-0.019
20.635,-0.013
20.640,-0.013
20.645,-0.024
20.650,-0.031
20.655,-0.027
20.660,-0.030
20.665,-0.038
20.670,-0.032
20.675,-0.031
20.680,-0.037
20.685,-0.037
20.690,-0.042
20.695,-0.058
20.700,-0.057
20.705,-0.056
20.710,-0.099
20.715,-0.140
20.720,-0.154
20.725,-0.200
20.730,-0.251
20.735,-0.234
20.740,-0.197
20.745,-0.189
20.750,-0.165
20.755,-0.126
20.760,-0.092
20.765,-0.055
20.770,-0.028
20.775,-0.023
20.780,-0.019
20.785,0.007
20.790,0.036
20.795,0.039
20.800,0.037
20.805,0.049
20.810,0.045
20.815,0.029
20.820,0.025
20.825,0.024
20.830,0.014
20.835,0.015
20.840,0.024
20.845,0.034
20.850,0.047
20.855,0.027
20.860,-0.057
20.865,-0.236
20.870,-0.548
20.875,-0.965
20.880,-1.289
20.885,-1.179
20.890,-0.663
20.895,-0.086
20.900,0.367
20.905,0.543
20.910,0.444
20.915,0.270
20.920,0.139
20.925,0.077
20.930,0.060
20.935,0.069
20.940,0.088
20.945,0.088
20.950,0.078
20.955,0.075
20.960,0.063
20.965,0.049
20.970,0.047
20.975,0.041
20.980,0.035
20.985,0.035
20.990,0.032
20.995,0.017
21.000,0.003
21.005,0.004
21.010,-0.004
21.015,-0.017
21.020,-0.015
21.025,-0.019
21.030,-0.031
21.035,-0.033
21.040,-0.035
21.045,-0.049
21.050,-0.058
21.055,-0.063
21.060,-0.075
21.065,-0.080
21.070,-0.071
21.075,-0.081
21.080,-0.111
21.085,-0.124
21.090,-0.122
21.095,-0.131
21.100,-0.150
21.105,-0.163
21.110,-0.180
21.115,-0.196
21.120,-0.193
21.125,-0.196
21.130,-0.206
21.135,-0.200
21.140,-0.186
21.145,-0.174
21.150,-0.146
21.155,-0.088
21.160,-0.034
21.165,0.013
21.170,0.079
21.175,0.144
21.180,0.193
21.185,0.240
21.190,0.281
21.195,0.303
21.200,0.319
21.205,0.331
21.210,0.332
21.215,0.325
21.220,0.323
21.225,0.322
21.230,0.307
21.235,0.295
21.240,0.288
21.245,0.268
21.250,0.254
21.255,0.253
21.260,0.234
21.265,0.207
21.270,0.201
21.275,0.196
21.280,0.176
21.285,0.163
21.290,0.158
21.295,0.139
21.300,0.118
21.305,0.109
21.310,0.101
21.315,0.094
21.320,0.094
21.325,0.082
21.330,0.072
21.335,0.073
21.340,0.063
21.345,0.041
21.350,0.034
21.355,0.041
21.360,0.041
21.365,0.030
21.370,0.024
21.375,0.024
21.380,0.019
21.385,0.017
21.390,0.014
21.395,0.003
21.400,0.002
21.405,0.006
21.410,-0.008
21.415,-0.015
21.420,-0.005
21.425,-0.006
21.430,-0.012
21.435,-0.007
21.440,-0.011
21.445,-0.024
21.450,-0.023
21.455,-0.010
21.460,-0.009
21.465,-0.022
21.470,-0.029
21.475,-0.038
21.480,-0.052
21.485,-0.055
21.490,-0.056
21.495,-0.083
21.500,-0.123
21.505,-0.145
21.510,-0.149
21.515,-0.151
21.520,-0.182
21.525,-0.233
21.530,-0.239
21.535,-0.212
21.540,-0.196
21.545,-0.162
21.550,-0.109
21.555,-0.063
21.560,-0.030
21.565,-0.015
21.570,-0.010
21.575,0.001
21.580,0.019
21.585,0.043
21.590,0.057
21.595,0.044
21.600,0.039
21.605,0.049
21.610,0.043
21.615,0.032
21.620,0.034
21.625,0.030
21.630,0.017
21.635,0.013
21.640,0.027
21.645,0.046
21.650,0.030
21.655,-0.035
21.660,-0.184
21.665,-0.473
21.670,-0.860
21.675,-1.190
21.680,-1.179
21.685,-0.762
21.690,-0.209
21.695,0.272
21.700,0.514
21.705,0.454
21.710,0.274
21.715,0.136
21.720,0.078
21.725,0.072
21.730,0.074
21.735,0.082
21.740,0.090
21.745,0.087
21.750,0.086
21.755,0.079
21.760,0.059
21.765,0.053
21.770,0.058
21.775,0.051
21.780,0.034
21.785,0.026
21.790,0.025
21.795,0.016
21.800,0.009
21.805,0.008
21.810,-0.012
21.815,-0.029
21.820,-0.022
21.825,-0.025
21.830,-0.037
21.835,-0.043
21.840,-0.047
21.845,-0.056
21.850,-0.059
21.855,-0.054
21.860,-0.060
21.865,-0.082
21.870,-0.100
21.875,-0.112
21.880,-0.122
21.885,-0.128
21.890,-0.131
21.895,-0.146
21.900,-0.167
21.905,-0.179
21.910,-0.192
21.915,-0.203
21.920,-0.203
21.925,-0.201
21.930,-0.206
21.935,-0.199
21.940,-0.180
21.945,-0.157
21.950,-0.103
21.955,-0.027
21.960,0.026
21.965,0.068
21.970,0.128
21.975,0.187
21.980,0.233
21.985,0.273
21.990,0.304
21.995,0.315
22.000,0.319
22.005,0.328
22.010,0.324
22.015,0.307
22.020,0.303
22.025,0.302
22.030,0.289
22.035,0.276
22.040,0.266
22.045,0.250
22.050,0.235
22.055,0.226
22.060,0.208
22.065,0.185
22.070,0.179
22.075,0.170
22.080,0.149
22.085,0.144
22.090,0.140
22.095,0.112
22.100,0.102
22.105,0.117
22.110,0.112
22.115,0.092
22.120,0.083
22.125,0.070
22.130,0.055
22.135,0.059
22.140,0.061
22.145,0.047
22.150,0.037
22.155,0.037
22.160,0.032
22.165,0.024
22.170,0.026
22.175,0.026
22.180,0.015
22.185,0.013
22.190,0.017
22.195,0.011
22.200,0.010
22.205,0.010
22.210,-0.001
22.215,-0.008
22.220,-0.002
22.225,-0.003
22.230,-0.011
22.235,-0.004
22.240,-0.003
22.245,-0.017
22.250,-0.020
22.255,-0.020
22.260,-0.024
22.265,-0.024
22.270,-0.024
22.275,-0.037
22.280,-0.067
22.285,-0.096
22.290,-0.116
22.295,-0.133
22.300,-0.142
22.305,-0.131
22.310,-0.127
22.315,-0.160
22.320,-0.223
22.325,-0.257
22.330,-0.234
22.335,-0.178
22.340,-0.126
22.345,-0.097
22.350,-0.072
22.355,-0.040
22.360,-0.016
22.365,-0.008
22.370,0.004
22.375,0.029
22.380,0.058
22.385,0.078
22.390,0.082
22.395,0.070
22.400,0.059
22.405,0.059
22.410,0.052
22.415,0.037
22.420,0.041
22.425,0.047
22.430,0.035
22.435,0.030
22.440,0.047
22.445,0.066
22.450,0.038
22.455,-0.041
22.460,-0.203
22.465,-0.500
22.470,-0.892
22.475,-1.199
22.480,-1.120
22.485,-0.668
22.490,-0.130
22.495,0.311
22.500,0.495
22.505,0.436
22.510,0.295
22.515,0.156
22.520,0.089
22.525,0.085
22.530,0.088
22.535,0.094
22.540,0.093
22.545,0.081
22.550,0.075
22.555,0.077
22.560,0.066
22.565,0.049
22.570,0.048
22.575,0.046
22.580,0.033
22.585,0.026
22.590,0.015
22.595,0.002
22.600,0.000
22.605,-0.003
22.610,-0.012
22.615,-0.021
22.620,-0.029
22.625,-0.033
22.630,-0.044
22.635,-0.054
22.640,-0.050
22.645,-0.058
22.650,-0.072
22.655,-0.067
22.660,-0.068
22.665,-0.085
22.670,-0.095
22.675,-0.103
22.680,-0.117
22.685,-0.127
22.690,-0.142
22.695,-0.166
22.700,-0.179
22.705,-0.181
22.710,-0.189
22.715,-0.198
22.720,-0.202
22.725,-0.212
22.730,-0.222
22.735,-0.207
22.740,-0.177
22.745,-0.146
22.750,-0.096
22.755,-0.034
22.760,0.018
22.765,0.081
22.770,0.151
22.775,0.193
22.780,0.225
22.785,0.269
22.790,0.306
22.795,0.319
22.800,0.323
22.805,0.329
22.810,0.324
22.815,0.314
22.820,0.312
22.825,0.299
22.830,0.284
22.835,0.277
22.840,0.257
22.845,0.234
22.850,0.226
22.855,0.208
22.860,0.179
22.865,0.180
22.870,0.191
22.875,0.173
22.880,0.153
22.885,0.146
22.890,0.137
22.895,0.123
22.900,0.119
22.905,0.115
22.910,0.091
22.915,0.068
22.920,0.060
22.925,0.056
22.930,0.048
22.935,0.051
22.940,0.056
22.945,0.042
22.950,0.029
22.955,0.031
22.960,0.031
22.965,0.030
22.970,0.033
22.975,0.024
22.980,0.005
22.985,0.001
22.990,0.014
22.995,0.010
23.000,0.005
23.005,0.012
23.010,0.005
23.015,-0.007
23.020,-0.012
23.025,-0.016
23.030,-0.011
23.035,-0.006
23.040,-0.012
23.045,-0.019
23.050,-0.024
23.055,-0.025
23.060,-0.035
23.065,-0.076
23.070,-0.107
23.075,-0.112
23.080,-0.116
23.085,-0.108
23.090,-0.103
23.095,-0.124
23.100,-0.160
23.105,-0.205
23.110,-0.245
23.115,-0.249
23.120,-0.197
23.125,-0.141
23.130,-0.123
23.135,-0.094
23.140,-0.051
23.145,-0.029
23.150,-0.002
23.155,0.018
23.160,0.023
23.165,0.053
23.170,0.082
23.175,0.075
23.180,0.068
23.185,0.071
23.190,0.064
23.195,0.054
23.200,0.051
23.205,0.053
23.210,0.047
23.215,0.036
23.220,0.038
23.225,0.050
23.230,0.064
23.235,0.053
23.240,-0.013
23.245,-0.156
23.250,-0.428
23.255,-0.825
23.260,-1.199
23.265,-1.229
23.270,-0.813
23.275,-0.249
23.280,0.250
23.285,0.526
23.290,0.509
23.295,0.357
23.300,0.197
23.305,0.104
23.310,0.082
23.315,0.080
23.320,0.081
23.325,0.082
23.330,0.075
23.335,0.074
23.340,0.070
23.345,0.050
23.350,0.039
23.355,0.038
23.360,0.027
23.365,0.017
23.370,0.023
23.375,0.020
23.380,-0.006
23.385,-0.018
23.390,-0.014
23.395,-0.020
23.400,-0.029
23.405,-0.032
23.410,-0.040
23.415,-0.046
23.420,-0.048
23.425,-0.054
23.430,-0.060
23.435,-0.077
23.440,-0.094
23.445,-0.095
23.450,-0.091
23.455,-0.091
23.460,-0.102
23.465,-0.120
23.470,-0.133
23.475,-0.150
23.480,-0.174
23.485,-0.184
23.490,-0.186
23.495,-0.199
23.500,-0.210
23.505,-0.211
23.510,-0.221
23.515,-0.226
23.520,-0.207
23.525,-0.182
23.530,-0.155
23.535,-0.115
23.540,-0.066
23.545,-0.015
23.550,0.050
23.555,0.120
23.560,0.182
23.565,0.226
23.570,0.257
23.575,0.280
23.580,0.294
23.585,0.315
23.590,0.336
23.595,0.327
23.600,0.311
23.605,0.310
23.610,0.298
23.615,0.282
23.620,0.282
23.625,0.283
23.630,0.259
23.635,0.229
23.640,0.215
23.645,0.201
23.650,0.183
23.655,0.177
23.660,0.165
23.665,0.152
23.670,0.152
23.675,0.146
23.680,0.133
23.685,0.122
23.690,0.103
23.695,0.082
23.700,0.079
23.705,0.084
23.710,0.071
23.715,0.053
23.720,0.052
23.725,0.055
23.730,0.042
23.735,0.031
23.740,0.033
23.745,0.020
23.750,0.012
23.755,0.025
23.760,0.018
23.765,0.002
23.770,0.010
23.775,0.019
23.780,0.019
23.785,0.022
23.790,0.024
23.795,0.014
23.800,0.004
23.805,0.002
23.810,-0.007
23.815,-0.017
23.820,-0.012
23.825,-0.010
23.830,-0.024
23.835,-0.034
23.840,-0.034
23.845,-0.059
23.850,-0.099
23.855,-0.114
23.860,-0.119
23.865,-0.118
23.870,-0.109
23.875,-0.125
23.880,-0.179
23.885,-0.217
23.890,-0.217
23.895,-0.215
23.900,-0.186
23.905,-0.124
23.910,-0.093
23.915,-0.072
23.920,-0.036
23.925,-0.014
23.930,-0.008
23.935,0.015
23.940,0.055
23.945,0.071
23.950,0.078
23.955,0.091
23.960,0.087
23.965,0.072
23.970,0.068
23.975,0.069
23.980,0.057
23.985,0.054
23.990,0.056
23.995,0.043
24.000,0.033
24.005,0.049
24.010,0.064
24.015,0.038
24.020,-0.040
24.025,-0.214
24.030,-0.524
24.035,-0.940
24.040,-1.256
24.045,-1.150
24.050,-0.664
24.055,-0.090
24.060,0.387
24.065,0.571
24.070,0.457
24.075,0.264
24.080,0.126
24.085,0.076
24.090,0.080
24.095,0.088
24.100,0.094
24.105,0.088
24.110,0.074
24.115,0.070
24.120,0.070
24.125,0.066
24.130,0.052
24.135,0.042
24.140,0.039
24.145,0.028
24.150,0.020
24.155,0.020
24.160,0.007
24.165,-0.005
24.170,-0.002
24.175,-0.008
24.180,-0.023
24.185,-0.025
24.190,-0.024
24.195,-0.040
24.200,-0.048
24.205,-0.039
24.210,-0.052
24.215,-0.075
24.220,-0.075
24.225,-0.074
24.230,-0.088
24.235,-0.101
24.240,-0.107
24.245,-0.122
24.250,-0.138
24.255,-0.148
24.260,-0.172
24.265,-0.193
24.270,-0.191
24.275,-0.193
24.280,-0.212
24.285,-0.216
24.290,-0.208
24.295,-0.215
24.300,-0.210
24.305,-0.179
24.310,-0.145
24.315,-0.104
24.320,-0.039
24.325,0.028
24.330,0.079
24.335,0.137
24.340,0.202
24.345,0.238
24.350,0.266
24.355,0.301
24.360,0.314
24.365,0.312
24.370,0.318
24.375,0.316
24.380,0.304
24.385,0.303
24.390,0.302
24.395,0.284
24.400,0.269
24.405,0.267
24.410,0.258
24.415,0.231
24.420,0.215
24.425,0.210
24.430,0.195
24.435,0.183
24.440,0.176
24.445,0.155
24.450,0.134
24.455,0.130
24.460,0.122
24.465,0.110
24.470,0.108
24.475,0.102
24.480,0.084
24.485,0.074
24.490,0.076
24.495,0.063
24.500,0.048
24.505,0.050
24.510,0.044
24.515,0.034
24.520,0.040
24.525,0.045
24.530,0.036
24.535,0.029
24.540,0.029
24.545,0.018
24.550,0.011
24.555,0.023
24.560,0.021
24.565,0.007
24.570,0.007
24.575,0.001
24.580,-0.006
24.585,0.000
24.590,-0.005
24.595,-0.021
24.600,-0.022
24.605,-0.015
24.610,-0.021
24.615,-0.034
24.620,-0.030
24.625,-0.039
24.630,-0.094
24.635,-0.130
24.640,-0.128
24.645,-0.137
24.650,-0.137
24.655,-0.124
24.660,-0.145
24.665,-0.202
24.670,-0.250
24.675,-0.257
24.680,-0.240
24.685,-0.191
24.690,-0.131
24.695,-0.105
24.700,-0.082
24.705,-0.052
24.710,-0.032
24.715,-0.018
24.720,0.007
24.725,0.045
24.730,0.069
24.735,0.082
24.740,0.085
24.745,0.070
24.750,0.063
24.755,0.069
24.760,0.062
24.765,0.049
24.770,0.048
24.775,0.043
24.780,0.026
24.785,0.031
24.790,0.055
24.795,0.066
24.800,0.034
24.805,-0.049
24.810,-0.246
24.815,-0.589
24.820,-0.996
24.825,-1.272
24.830,-1.125
24.835,-0.602
24.840,-0.015
24.845,0.434
24.850,0.574
24.855,0.457
24.860,0.283
24.865,0.138
24.870,0.074
24.875,0.079
24.880,0.088
24.885,0.084
24.890,0.078
24.895,0.066
24.900,0.060
24.905,0.068
24.910,0.063
24.915,0.047
24.920,0.044
24.925,0.039
24.930,0.019
24.935,0.005
24.940,0.000
24.945,-0.015
24.950,-0.021
24.955,-0.012
24.960,-0.021
24.965,-0.036
24.970,-0.036
24.975,-0.042
24.980,-0.056
24.985,-0.056
24.990,-0.054
24.995,-0.069
25.000,-0.080
25.005,-0.082
25.010,-0.094
25.015,-0.113
25.020,-0.111
25.025,-0.103
25.030,-0.124
25.035,-0.147
25.040,-0.154
25.045,-0.173
25.050,-0.186
25.055,-0.187
25.060,-0.203
25.065,-0.220
25.070,-0.217
25.075,-0.213
25.080,-0.218
25.085,-0.211
25.090,-0.181
25.095,-0.140
25.100,-0.087
25.105,-0.022
25.110,0.028
25.115,0.079
25.120,0.153
25.125,0.207
25.130,0.237
25.135,0.280
25.140,0.310
25.145,0.317
25.150,0.325
25.155,0.333
25.160,0.328
25.165,0.321
25.170,0.321
25.175,0.315
25.180,0.294
25.185,0.277
25.190,0.269
25.195,0.247
25.200,0.222
25.205,0.218
25.210,0.208
25.215,0.182
25.220,0.169
25.225,0.160
25.230,0.150
25.235,0.146
25.240,0.135
25.245,0.113
25.250,0.100
25.255,0.096
25.260,0.087
25.265,0.078
25.270,0.076
25.275,0.071
25.280,0.058
25.285,0.050
25.290,0.052
25.295,0.048
25.300,0.042
25.305,0.044
25.310,0.033
25.315,0.024
25.320,0.027
25.325,0.028
25.330,0.021
25.335,0.021
25.340,0.033
25.345,0.026
25.350,0.011
25.355,0.010
25.360,0.007
25.365,0.000
25.370,0.000
25.375,0.002
25.380,-0.005
25.385,-0.005
25.390,-0.004
25.395,-0.013
25.400,-0.016
25.405,-0.012
25.410,-0.021
25.415,-0.039
25.420,-0.062
25.425,-0.093
25.430,-0.123
25.435,-0.125
25.440,-0.108
25.445,-0.104
25.450,-0.122
25.455,-0.158
25.460,-0.217
25.465,-0.260
25.470,-0.249
25.475,-0.204
25.480,-0.153
25.485,-0.111
25.490,-0.076
25.495,-0.050
25.500,-0.033
25.505,-0.012
25.510,0.004
25.515,0.031
25.520,0.069
25.525,0.084
25.530,0.074
25.535,0.067
25.540,0.067
25.545,0.067
25.550,0.066
25.555,0.062
25.560,0.050
25.565,0.034
25.570,0.030
25.575,0.033
25.580,0.039
25.585,0.069
25.590,0.075
25.595,-0.004
25.600,-0.165
25.605,-0.437
25.610,-0.844
25.615,-1.253
25.620,-1.301
25.625,-0.856
25.630,-0.233
25.635,0.330
25.640,0.627
25.645,0.561
25.650,0.368
25.655,0.203
25.660,0.091
25.665,0.063
25.670,0.079
25.675,0.078
25.680,0.066
25.685,0.070
25.690,0.074
25.695,0.060
25.700,0.043
25.705,0.037
25.710,0.031
25.715,0.021
25.720,0.019
25.725,0.014
25.730,0.000
25.735,-0.002
25.740,-0.005
25.745,-0.022
25.750,-0.027
25.755,-0.019
25.760,-0.029
25.765,-0.048
25.770,-0.051
25.775,-0.055
25.780,-0.064
25.785,-0.063
25.790,-0.064
25.795,-0.077
25.800,-0.085
25.805,-0.091
25.810,-0.105
25.815,-0.117
25.820,-0.122
25.825,-0.128
25.830,-0.145
25.835,-0.158
25.840,-0.165
25.845,-0.179
25.850,-0.193
25.855,-0.202
25.860,-0.213
25.865,-0.223
25.870,-0.218
25.875,-0.203
25.880,-0.193
25.885,-0.164
25.890,-0.113
25.895,-0.065
25.900,-0.003
25.905,0.070
25.910,0.127
25.915,0.180
25.920,0.237
25.925,0.274
25.930,0.287
25.935,0.302
25.940,0.318
25.945,0.326
25.950,0.326
25.955,0.321
25.960,0.311
25.965,0.304
25.970,0.299
25.975,0.285
25.980,0.264
25.985,0.247
25.990,0.237
25.995,0.225
26.000,0.208
26.005,0.200
26.010,0.188
26.015,0.170
26.020,0.168
26.025,0.159
26.030,0.130
26.035,0.116
26.040,0.116
26.045,0.103
26.050,0.090
26.055,0.087
26.060,0.080
26.065,0.073
26.070,0.069
26.075,0.063
26.080,0.053
26.085,0.052
26.090,0.053
26.095,0.042
26.100,0.034
26.105,0.039
26.110,0.035
26.115,0.027
26.120,0.032
26.125,0.030
26.130,0.020
26.135,0.020
26.140,0.018
26.145,0.010
26.150,0.012
26.155,0.017
26.160,0.003
26.165,-0.009
26.170,-0.005
26.175,-0.008
26.180,-0.022
26.185,-0.025
26.190,-0.016
26.195,-0.021
26.200,-0.030
26.205,-0.028
26.210,-0.033
26.215,-0.040
26.220,-0.035
26.225,-0.038
26.230,-0.061
26.235,-0.095
26.240,-0.123
26.245,-0.141
26.250,-0.146
26.255,-0.131
26.260,-0.127
26.265,-0.151
26.270,-0.194
26.275,-0.242
26.280,-0.259
26.285,-0.234
26.290,-0.186
26.295,-0.137
26.300,-0.108
26.305,-0.078
26.310,-0.055
26.315,-0.039
26.320,-0.008
26.325,0.016
26.330,0.035
26.335,0.064
26.340,0.081
26.345,0.070
26.350,0.062
26.355,0.068
26.360,0.060
26.365,0.054
26.370,0.064
26.375,0.059
26.380,0.039
26.385,0.034
26.390,0.040
26.395,0.050
26.400,0.065
26.405,0.037
26.410,-0.055
26.415,-0.252
26.420,-0.590
26.425,-1.014
26.430,-1.316
26.435,-1.163
26.440,-0.609
26.445,0.000
26.450,0.476
26.455,0.637
26.460,0.484
26.465,0.271
26.470,0.140
26.475,0.084
26.480,0.076
26.485,0.089
26.490,0.094
26.495,0.081
26.500,0.073
26.505,0.076
26.510,0.068
26.515,0.056
26.520,0.050
26.525,0.044
26.530,0.033
26.535,0.024
26.540,0.024
26.545,0.014
26.550,0.001
26.555,0.001
26.560,-0.009
26.565,-0.023
26.570,-0.016
26.575,-0.013
26.580,-0.030
26.585,-0.039
26.590,-0.040
26.595,-0.051
26.600,-0.058
26.605,-0.058
26.610,-0.070
26.615,-0.084
26.620,-0.087
26.625,-0.095
26.630,-0.112
26.635,-0.124
26.640,-0.132
26.645,-0.143
26.650,-0.151
26.655,-0.160
26.660,-0.177
26.665,-0.192
26.670,-0.200
26.675,-0.204
26.680,-0.214
26.685,-0.214
26.690,-0.196
26.695,-0.177
26.700,-0.152
26.705,-0.104
26.710,-0.049
26.715,0.011
26.720,0.079
26.725,0.135
26.730,0.177
26.735,0.227
26.740,0.273
26.745,0.296
26.750,0.311
26.755,0.326
26.760,0.321
26.765,0.317
26.770,0.328
26.775,0.324
26.780,0.303
26.785,0.291
26.790,0.286
26.795,0.267
26.800,0.241
26.805,0.234
26.810,0.224
26.815,0.204
26.820,0.198
26.825,0.187
26.830,0.168
26.835,0.158
26.840,0.145
26.845,0.127
26.850,0.120
26.855,0.122
26.860,0.111
26.865,0.088
26.870,0.088
26.875,0.089
26.880,0.077
26.885,0.070
26.890,0.068
26.895,0.059
26.900,0.052
26.905,0.056
26.910,0.055
26.915,0.039
26.920,0.036
26.925,0.041
26.930,0.029
26.935,0.022
26.940,0.028
26.945,0.022
26.950,0.014
26.955,0.021
26.960,0.017
26.965,0.002
26.970,0.002
26.975,-0.002
26.980,-0.010
26.985,-0.006
26.990,-0.005
26.995,-0.018
27.000,-0.026
27.005,-0.021
27.010,-0.029
27.015,-0.039
27.020,-0.030
27.025,-0.023
27.030,-0.031
27.035,-0.035
27.040,-0.037
27.045,-0.046
27.050,-0.045
27.055,-0.037
27.060,-0.045
27.065,-0.064
27.070,-0.093
27.075,-0.126
27.080,-0.148
27.085,-0.155
27.090,-0.152
27.095,-0.149
27.100,-0.156
27.105,-0.190
27.110,-0.241
27.115,-0.264
27.120,-0.242
27.125,-0.197
27.130,-0.150
27.135,-0.114
27.140,-0.077
27.145,-0.053
27.150,-0.035
27.155,-0.008
27.160,0.013
27.165,0.038
27.170,0.069
27.175,0.082
27.180,0.077
27.185,0.070
27.190,0.071
27.195,0.068
27.200,0.060
27.205,0.057
27.210,0.052
27.215,0.045
27.220,0.044
27.225,0.045
27.230,0.053
27.235,0.069
27.240,0.051
27.245,-0.031
27.250,-0.196
27.255,-0.488
27.260,-0.895
27.265,-1.244
27.270,-1.211
27.275,-0.740
27.280,-0.138
27.285,0.367
27.290,0.594
27.295,0.499
27.300,0.304
27.305,0.159
27.310,0.082
27.315,0.073
27.320,0.094
27.325,0.100
27.330,0.085
27.335,0.074
27.340,0.074
27.345,0.070
27.350,0.062
27.355,0.057
27.360,0.049
27.365,0.034
27.370,0.028
27.375,0.029
27.380,0.015
27.385,0.007
27.390,0.007
27.395,-0.010
27.400,-0.026
27.405,-0.021
27.410,-0.022
27.415,-0.030
27.420,-0.030
27.425,-0.035
27.430,-0.047
27.435,-0.054
27.440,-0.056
27.445,-0.066
27.450,-0.080
27.455,-0.080
27.460,-0.085
27.465,-0.103
27.470,-0.117
27.475,-0.128
27.480,-0.144
27.485,-0.154
27.490,-0.158
27.495,-0.169
27.500,-0.177
27.505,-0.185
27.510,-0.198
27.515,-0.201
27.520,-0.199
27.525,-0.199
27.530,-0.189
27.535,-0.154
27.540,-0.110
27.545,-0.064
27.550,-0.002
27.555,0.061
27.560,0.106
27.565,0.154
27.570,0.213
27.575,0.254
27.580,0.279
27.585,0.302
27.590,0.314
27.595,0.315
27.600,0.320
27.605,0.326
27.610,0.313
27.615,0.295
27.620,0.290
27.625,0.282
27.630,0.259
27.635,0.247
27.640,0.241
27.645,0.217
27.650,0.194
27.655,0.189
27.660,0.179
27.665,0.160
27.670,0.155
27.675,0.160
27.680,0.147
27.685,0.130
27.690,0.123
27.695,0.111
27.700,0.098
27.705,0.092
27.710,0.078
27.715,0.071
27.720,0.073
27.725,0.067
27.730,0.060
27.735,0.060
27.740,0.058
27.745,0.055
27.750,0.052
27.755,0.047
27.760,0.042
27.765,0.034
27.770,0.020
27.775,0.005
27.780,-0.012
27.785,-0.022
27.790,-0.018
27.795,-0.005
27.800,0.014
27.805,0.022
27.810,0.003
27.815,-0.021
27.820,-0.008
27.825,0.025
27.830,0.035
27.835,0.025
27.840,0.015
27.845,0.006
27.850,-0.008
27.855,-0.021
27.860,-0.032
27.865,-0.046
27.870,-0.050
27.875,-0.055
27.880,-0.075
27.885,-0.087
27.890,-0.088
27.895,-0.094
27.900,-0.095
27.905,-0.096
27.910,-0.117
27.915,-0.136
27.920,-0.129
27.925,-0.117
27.930,-0.146
27.935,-0.230
27.940,-0.290
27.945,-0.263
27.950,-0.198
27.955,-0.143
27.960,-0.112
27.965,-0.100
27.970,-0.079
27.975,-0.044
27.980,-0.021
27.985,-0.007
27.990,0.026
27.995,0.058
28.000,0.055
28.005,0.057
28.010,0.066
28.015,0.053
28.020,0.055
28.025,0.067
28.030,0.062
28.035,0.055
28.040,0.053
28.045,0.053
28.050,0.053
28.055,0.058
28.060,0.077
28.065,0.080
28.070,0.034
28.075,-0.078
28.080,-0.319
28.085,-0.698
28.090,-1.118
28.095,-1.299
28.100,-0.979
28.105,-0.376
28.110,0.190
28.115,0.540
28.120,0.564
28.125,0.412
28.130,0.239
28.135,0.108
28.140,0.075
28.145,0.085
28.150,0.083
28.155,0.086
28.160,0.087
28.165,0.069
28.170,0.063
28.175,0.068
28.180,0.054
28.185,0.033
28.190,0.026
28.195,0.019
28.200,0.015
28.205,0.021
28.210,0.017
28.215,0.001
28.220,-0.001
28.225,0.002
28.230,-0.012
28.235,-0.021
28.240,-0.024
28.245,-0.036
28.250,-0.047
28.255,-0.044
28.260,-0.049
28.265,-0.067
28.270,-0.072
28.275,-0.075
28.280,-0.094
28.285,-0.100
28.290,-0.089
28.295,-0.098
28.300,-0.119
28.305,-0.126
28.310,-0.140
28.315,-0.162
28.320,-0.169
28.325,-0.176
28.330,-0.187
28.335,-0.195
28.340,-0.201
28.345,-0.208
28.350,-0.201
28.355,-0.179
28.360,-0.164
28.365,-0.136
28.370,-0.074
28.375,-0.013
28.380,0.033
28.385,0.089
28.390,0.149
28.395,0.190
28.400,0.225
28.405,0.265
28.410,0.296
28.415,0.309
28.420,0.321
28.425,0.331
28.430,0.321
28.435,0.309
28.440,0.305
28.445,0.287
28.450,0.272
28.455,0.272
28.460,0.257
28.465,0.229
28.470,0.211
28.475,0.201
28.480,0.191
28.485,0.183
28.490,0.173
28.495,0.155
28.500,0.146
28.505,0.146
28.510,0.132
28.515,0.112
28.520,0.095
28.525,0.074
28.530,0.051
28.535,0.048
28.540,0.068
28.545,0.084
28.550,0.085
28.555,0.079
28.560,0.076
28.565,0.069
28.570,0.068
28.575,0.060
28.580,0.037
28.585,0.032
28.590,0.039
28.595,0.035
28.600,0.023
28.605,0.022
28.610,0.024
28.615,0.015
28.620,0.004
28.625,-0.002
28.630,-0.007
28.635,-0.003
28.640,0.003
28.645,-0.002
28.650,-0.006
28.655,-0.007
28.660,-0.007
28.665,-0.002
28.670,-0.002
28.675,-0.010
28.680,-0.018
28.685,-0.026
28.690,-0.026
28.695,-0.030
28.700,-0.045
28.705,-0.067
28.710,-0.105
28.715,-0.137
28.720,-0.143
28.725,-0.137
28.730,-0.129
28.735,-0.129
28.740,-0.160
28.745,-0.222
28.750,-0.260
28.755,-0.242
28.760,-0.211
28.765,-0.167
28.770,-0.115
28.775,-0.083
28.780,-0.067
28.785,-0.044
28.790,-0.016
28.795,0.000
28.800,0.029
28.805,0.073
28.810,0.085
28.815,0.075
28.820,0.076
28.825,0.081
28.830,0.074
28.835,0.066
28.840,0.063
28.845,0.051
28.850,0.041
28.855,0.044
28.860,0.042
28.865,0.047
28.870,0.078
28.875,0.070
28.880,-0.023
28.885,-0.189
28.890,-0.465
28.895,-0.867
28.900,-1.239
28.905,-1.245
28.910,-0.787
28.915,-0.163
28.920,0.378
28.925,0.629
28.930,0.536
28.935,0.338
28.940,0.183
28.945,0.094
28.950,0.076
28.955,0.090
28.960,0.094
28.965,0.087
28.970,0.084
28.975,0.076
28.980,0.059
28.985,0.053
28.990,0.055
28.995,0.043
29.000,0.025
29.005,0.022
29.010,0.017
29.015,0.002
29.020,0.001
29.025,0.003
29.030,-0.014
29.035,-0.024
29.040,-0.023
29.045,-0.029
29.050,-0.032
29.055,-0.034
29.060,-0.047
29.065,-0.053
29.070,-0.054
29.075,-0.060
29.080,-0.075
29.085,-0.088
29.090,-0.086
29.095,-0.094
29.100,-0.116
29.105,-0.119
29.110,-0.124
29.115,-0.151
29.120,-0.161
29.125,-0.162
29.130,-0.178
29.135,-0.184
29.140,-0.182
29.145,-0.197
29.150,-0.210
29.155,-0.206
29.160,-0.199
29.165,-0.191
29.170,-0.159
29.175,-0.110
29.180,-0.065
29.185,-0.006
29.190,0.063
29.195,0.117
29.200,0.169
29.205,0.220
29.210,0.251
29.215,0.275
29.220,0.305
29.225,0.324
29.230,0.326
29.235,0.327
29.240,0.325
29.245,0.304
29.250,0.286
29.255,0.285
29.260,0.276
29.265,0.260
29.270,0.253
29.275,0.244
29.280,0.226
29.285,0.208
29.290,0.198
29.295,0.186
29.300,0.173
29.305,0.167
29.310,0.150
29.315,0.127
29.320,0.124
29.325,0.120
29.330,0.105
29.335,0.099
29.340,0.094
29.345,0.080
29.350,0.072
29.355,0.075
29.360,0.066
29.365,0.050
29.370,0.050
29.375,0.047
29.380,0.035
29.385,0.036
29.390,0.044
29.395,0.033
29.400,0.027
29.405,0.035
29.410,0.027
29.415,0.014
29.420,0.016
29.425,0.015
29.430,0.007
29.435,0.012
29.440,0.015
29.445,-0.001
29.450,-0.010
29.455,-0.003
29.460,-0.005
29.465,-0.016
29.470,-0.013
29.475,-0.018
29.480,-0.035
29.485,-0.028
29.490,-0.023
29.495,-0.040
29.500,-0.055
29.505,-0.075
29.510,-0.109
29.515,-0.132
29.520,-0.135
29.525,-0.136
29.530,-0.141
29.535,-0.147
29.540,-0.170
29.545,-0.228
29.550,-0.259
29.555,-0.235
29.560,-0.198
29.565,-0.152
29.570,-0.108
29.575,-0.079
29.580,-0.058
29.585,-0.032
29.590,-0.002
29.595,0.003
29.600,0.024
29.605,0.069
29.610,0.081
29.615,0.069
29.620,0.068
29.625,0.063
29.630,0.053
29.635,0.055
29.640,0.060
29.645,0.052
29.650,0.040
29.655,0.036
29.660,0.038
29.665,0.049
29.670,0.066
29.675,0.045
29.680,-0.042
29.685,-0.215
29.690,-0.523
29.695,-0.945
29.700,-1.280
29.705,-1.192
29.710,-0.680
29.715,-0.075
29.720,0.413
29.725,0.598
29.730,0.464
29.735,0.265
29.740,0.139
29.745,0.077
29.750,0.068
29.755,0.084
29.760,0.088
29.765,0.083
29.770,0.079
29.775,0.069
29.780,0.056
29.785,0.053
29.790,0.048
29.795,0.032
29.800,0.025
29.805,0.026
29.810,0.016
29.815,0.000
29.820,-0.006
29.825,-0.006
29.830,-0.014
29.835,-0.024
29.840,-0.024
29.845,-0.033
29.850,-0.047
29.855,-0.045
29.860,-0.047
29.865,-0.060
29.870,-0.065
29.875,-0.065
29.880,-0.078
29.885,-0.084
29.890,-0.087
29.895,-0.106
29.900,-0.117
29.905,-0.117
29.910,-0.130
29.915,-0.152
29.920,-0.161
29.925,-0.170
29.930,-0.189
29.935,-0.198
29.940,-0.199
29.945,-0.207
29.950,-0.214
29.955,-0.207
29.960,-0.201
29.965,-0.191
29.970,-0.151
29.975,-0.094
29.980,-0.043
29.985,0.013
29.990,0.079
29.995,0.137
30.000,0.189
30.005,0.236
30.010,0.263
30.015,0.284
30.020,0.310
30.025,0.324
30.030,0.320
30.035,0.317
30.040,0.318
30.045,0.305
30.050,0.294
30.055,0.292
30.060,0.276
30.065,0.255
30.070,0.247
30.075,0.242
30.080,0.223
30.085,0.206
30.090,0.197
30.095,0.179
30.100,0.160
30.105,0.150
30.110,0.142
30.115,0.135
30.120,0.128
30.125,0.116
30.130,0.106
30.135,0.103
30.140,0.099
30.145,0.084
30.150,0.075
30.155,0.076
30.160,0.067
30.165,0.053
30.170,0.053
30.175,0.052
30.180,0.040
30.185,0.037
30.190,0.040
30.195,0.030
30.200,0.027
30.205,0.035
30.210,0.031
30.215,0.017
30.220,0.019
30.225,0.019
30.230,0.003
30.235,0.000
30.240,0.005
30.245,-0.008
30.250,-0.019
30.255,-0.003
30.260,0.005
30.265,-0.016
30.270,-0.026
30.275,-0.020
30.280,-0.023
30.285,-0.027
30.290,-0.025
30.295,-0.026
30.300,-0.030
30.305,-0.041
30.310,-0.081
30.315,-0.122
30.320,-0.132
30.325,-0.138
30.330,-0.149
30.335,-0.144
30.340,-0.144
30.345,-0.191
30.350,-0.251
30.355,-0.257
30.360,-0.236
30.365,-0.200
30.370,-0.144
30.375,-0.107
30.380,-0.077
30.385,-0.045
30.390,-0.016
30.395,0.002
30.400,0.013
30.405,0.044
30.410,0.070
30.415,0.074
30.420,0.078
30.425,0.081
30.430,0.073
30.435,0.066
30.440,0.067
30.445,0.059
30.450,0.043
30.455,0.037
30.460,0.036
30.465,0.041
30.470,0.065
30.475,0.078
30.480,0.030
30.485,-0.056
30.490,-0.226
30.495,-0.563
30.500,-0.986
30.505,-1.260
30.510,-1.101
30.515,-0.573
30.520,0.002
30.525,0.422
30.530,0.547
30.535,0.435
30.540,0.267
30.545,0.128
30.550,0.067
30.555,0.069
30.560,0.081
30.565,0.085
30.570,0.090
30.575,0.085
30.580,0.064
30.585,0.056
30.590,0.051
30.595,0.035
30.600,0.033
30.605,0.042
30.610,0.031
30.615,0.012
30.620,0.008
30.625,0.001
30.630,-0.009
30.635,-0.008
30.640,-0.011
30.645,-0.029
30.650,-0.040
30.655,-0.038
30.660,-0.046
30.665,-0.055
30.670,-0.055
30.675,-0.060
30.680,-0.075
30.685,-0.086
30.690,-0.086
30.695,-0.089
30.700,-0.097
30.705,-0.102
30.710,-0.111
30.715,-0.129
30.720,-0.144
30.725,-0.153
30.730,-0.170
30.735,-0.181
30.740,-0.184
30.745,-0.199
30.750,-0.214
30.755,-0.209
30.760,-0.203
30.765,-0.200
30.770,-0.177
30.775,-0.133
30.780,-0.085
30.785,-0.035
30.790,0.027
30.795,0.095
30.800,0.145
30.805,0.193
30.810,0.240
30.815,0.267
30.820,0.295
30.825,0.315
30.830,0.316
30.835,0.319
30.840,0.325
30.845,0.309
30.850,0.291
30.855,0.294
30.860,0.283
30.865,0.253
30.870,0.245
30.875,0.243
30.880,0.225
30.885,0.211
30.890,0.203
30.895,0.188
30.900,0.170
30.905,0.163
30.910,0.150
30.915,0.128
30.920,0.124
30.925,0.123
30.930,0.099
30.935,0.090
30.940,0.102
30.945,0.093
30.950,0.069
30.955,0.062
30.960,0.064
30.965,0.063
30.970,0.063
30.975,0.055
30.980,0.049
30.985,0.051
30.990,0.048
30.995,0.035
31.000,0.021
31.005,0.024
31.010,0.028
31.015,0.025
31.020,0.024
31.025,0.022
31.030,0.014
31.035,0.007
31.040,0.011
31.045,0.010
31.050,0.002
31.055,0.007
31.060,0.005
31.065,-0.011
31.070,-0.013
31.075,-0.012
31.080,-0.023
31.085,-0.025
31.090,-0.021
31.095,-0.045
31.100,-0.088
31.105,-0.109
31.110,-0.120
31.115,-0.132
31.120,-0.125
31.125,-0.112
31.130,-0.124
31.135,-0.170
31.140,-0.231
31.145,-0.262
31.150,-0.246
31.155,-0.200
31.160,-0.148
31.165,-0.115
31.170,-0.082
31.175,-0.048
31.180,-0.029
31.185,-0.009
31.190,0.017
31.195,0.039
31.200,0.056
31.205,0.074
31.210,0.077
31.215,0.064
31.220,0.069
31.225,0.074
31.230,0.056
31.235,0.040
31.240,0.043
31.245,0.039
31.250,0.030
31.255,0.036
31.260,0.053
31.265,0.064
31.270,0.050
31.275,-0.023
31.280,-0.201
31.285,-0.512
31.290,-0.927
31.295,-1.263
31.300,-1.165
31.305,-0.636
31.310,-0.035
31.315,0.434
31.320,0.592
31.325,0.467
31.330,0.292
31.335,0.138
31.340,0.066
31.345,0.066
31.350,0.068
31.355,0.071
31.360,0.057
31.365,0.040
31.370,0.048
31.375,0.058
31.380,0.046
31.385,0.028
31.390,0.026
31.395,0.023
31.400,0.010
31.405,0.006
31.410,-0.002
31.415,-0.017
31.420,-0.018
31.425,-0.015
31.430,-0.029
31.435,-0.042
31.440,-0.045
31.445,-0.053
31.450,-0.057
31.455,-0.055
31.460,-0.061
31.465,-0.080
31.470,-0.087
31.475,-0.081
31.480,-0.090
31.485,-0.103
31.490,-0.106
31.495,-0.123
31.500,-0.144
31.505,-0.142
31.510,-0.141
31.515,-0.158
31.520,-0.167
31.525,-0.171
31.530,-0.192
31.535,-0.209
31.540,-0.208
31.545,-0.211
31.550,-0.214
31.555,-0.199
31.560,-0.177
31.565,-0.148
31.570,-0.096
31.575,-0.034
31.580,0.022
31.585,0.084
31.590,0.149
31.595,0.194
31.600,0.233
31.605,0.274
31.610,0.300
31.615,0.316
31.620,0.330
31.625,0.330
31.630,0.321
31.635,0.310
31.640,0.305
31.645,0.301
31.650,0.291
31.655,0.280
31.660,0.268
31.665,0.249
31.670,0.237
31.675,0.228
31.680,0.205
31.685,0.193
31.690,0.192
31.695,0.171
31.700,0.152
31.705,0.153
31.710,0.143
31.715,0.120
31.720,0.110
31.725,0.104
31.730,0.089
31.735,0.082
31.740,0.082
31.745,0.071
31.750,0.063
31.755,0.068
31.760,0.064
31.765,0.052
31.770,0.048
31.775,0.047
31.780,0.038
31.785,0.032
31.790,0.037
31.795,0.030
31.800,0.019
31.805,0.022
31.810,0.023
31.815,0.015
31.820,0.008
31.825,0.007
31.830,0.004
31.835,0.006
31.840,0.006
31.845,-0.010
31.850,-0.018
31.855,-0.008
31.860,-0.007
31.865,-0.014
31.870,-0.013
31.875,-0.019
31.880,-0.032
31.885,-0.029
31.890,-0.025
31.895,-0.035
31.900,-0.058
31.905,-0.091
31.910,-0.124
31.915,-0.138
31.920,-0.131
31.925,-0.124
31.930,-0.131
31.935,-0.150
31.940,-0.193
31.945,-0.245
31.950,-0.259
31.955,-0.231
31.960,-0.184
31.965,-0.139
31.970,-0.099
31.975,-0.064
31.980,-0.048
31.985,-0.030
31.990,0.001
31.995,0.025
32.000,0.049
32.005,0.075
32.010,0.080
32.015,0.071
32.020,0.072
32.025,0.071
32.030,0.054
32.035,0.050
32.040,0.063
32.045,0.053
32.050,0.036
32.055,0.038
32.060,0.044
32.065,0.058
32.070,0.066
32.075,0.024
32.080,-0.084
32.085,-0.301
32.090,-0.657
32.095,-1.077
32.100,-1.298
32.105,-1.037
32.110,-0.455
32.115,0.123
32.120,0.512
32.125,0.569
32.130,0.392
32.135,0.208
32.140,0.105
32.145,0.073
32.150,0.081
32.155,0.100
32.160,0.097
32.165,0.081
32.170,0.077
32.175,0.075
32.180,0.065
32.185,0.055
32.190,0.048
32.195,0.037
32.200,0.031
32.205,0.029
32.210,0.017
32.215,0.003
32.220,-0.001
32.225,-0.004
32.230,-0.015
32.235,-0.021
32.240,-0.020
32.245,-0.031
32.250,-0.043
32.255,-0.047
32.260,-0.054
32.265,-0.064
32.270,-0.067
32.275,-0.065
32.280,-0.080
32.285,-0.092
32.290,-0.087
32.295,-0.098
32.300,-0.116
32.305,-0.119
32.310,-0.127
32.315,-0.149
32.320,-0.165
32.325,-0.176
32.330,-0.192
32.335,-0.198
32.340,-0.195
32.345,-0.207
32.350,-0.218
32.355,-0.205
32.360,-0.188
32.365,-0.171
32.370,-0.134
32.375,-0.079
32.380,-0.019
32.385,0.047
32.390,0.113
32.395,0.162
32.400,0.207
32.405,0.252
32.410,0.279
32.415,0.290
32.420,0.309
32.425,0.324
32.430,0.319
32.435,0.315
32.440,0.314
32.445,0.299
32.450,0.288
32.455,0.288
32.460,0.275
32.465,0.250
32.470,0.240
32.475,0.230
32.480,0.209
32.485,0.195
32.490,0.189
32.495,0.171
32.500,0.155
32.505,0.153
32.510,0.142
32.515,0.123
32.520,0.117
32.525,0.111
32.530,0.094
32.535,0.085
32.540,0.089
32.545,0.080
32.550,0.063
32.555,0.059
32.560,0.061
32.565,0.057
32.570,0.048
32.575,0.046
32.580,0.040
32.585,0.035
32.590,0.036
32.595,0.029
32.600,0.022
32.605,0.023
32.610,0.018
32.615,0.014
32.620,0.016
32.625,0.012
32.630,0.002
32.635,-0.001
32.640,0.004
32.645,-0.004
32.650,-0.009
32.655,-0.005
32.660,-0.015
32.665,-0.028
32.670,-0.026
32.675,-0.022
32.680,-0.029
32.685,-0.031
32.690,-0.024
32.695,-0.032
32.700,-0.042
32.705,-0.035
32.710,-0.034
32.715,-0.044
32.720,-0.057
32.725,-0.081
32.730,-0.117
32.735,-0.141
32.740,-0.150
32.745,-0.156
32.750,-0.149
32.755,-0.145
32.760,-0.179
32.765,-0.237
32.770,-0.257
32.775,-0.237
32.780,-0.203
32.785,-0.148
32.790,-0.102
32.795,-0.078
32.800,-0.055
32.805,-0.028
32.810,-0.008
32.815,0.001
32.820,0.029
32.825,0.063
32.830,0.071
32.835,0.072
32.840,0.078
32.845,0.072
32.850,0.063
32.855,0.065
32.860,0.060
32.865,0.049
32.870,0.047
32.875,0.045
32.880,0.032
32.885,0.043
32.890,0.070
32.895,0.047
32.900,-0.027
32.905,-0.171
32.910,-0.462
32.915,-0.870
32.920,-1.199
32.925,-1.157
32.930,-0.711
32.935,-0.130
32.940,0.351
32.945,0.547
32.950,0.453
32.955,0.271
32.960,0.135
32.965,0.076
32.970,0.085
32.975,0.100
32.980,0.095
32.985,0.090
32.990,0.086
32.995,0.076
33.000,0.071
33.005,0.071
33.010,0.063
33.015,0.054
33.020,0.051
33.025,0.041
33.030,0.023
33.035,0.015
33.040,0.014
33.045,-0.002
33.050,-0.016
33.055,-0.015
33.060,-0.015
33.065,-0.023
33.070,-0.028
33.075,-0.032
33.080,-0.039
33.085,-0.046
33.090,-0.051
33.095,-0.061
33.100,-0.073
33.105,-0.079
33.110,-0.082
33.115,-0.084
33.120,-0.096
33.125,-0.116
33.130,-0.129
33.135,-0.138
33.140,-0.147
33.145,-0.159
33.150,-0.174
33.155,-0.180
33.160,-0.184
33.165,-0.200
33.170,-0.201
33.175,-0.191
33.180,-0.194
33.185,-0.183
33.190,-0.143
33.195,-0.099
33.200,-0.048
33.205,0.020
33.210,0.091
33.215,0.147
33.220,0.195
33.225,0.238
33.230,0.266
33.235,0.290
33.240,0.311
33.245,0.317
33.250,0.322
33.255,0.326
33.260,0.316
33.265,0.295
33.270,0.285
33.275,0.281
33.280,0.274
33.285,0.271
33.290,0.262
33.295,0.235
33.300,0.215
33.305,0.218
33.310,0.204
33.315,0.177
33.320,0.171
33.325,0.164
33.330,0.141
33.335,0.133
33.340,0.135
33.345,0.112
33.350,0.088
33.355,0.093
33.360,0.092
33.365,0.078
33.370,0.077
33.375,0.076
33.380,0.060
33.385,0.054
33.390,0.061
33.395,0.057
33.400,0.046
33.405,0.041
33.410,0.033
33.415,0.032
33.420,0.039
33.425,0.037
33.430,0.019
33.435,0.010
33.440,0.016
33.445,0.010
33.450,0.001
33.455,0.008
33.460,0.007
33.465,-0.009
33.470,-0.004
33.475,0.004
33.480,-0.012
33.485,-0.017
33.490,-0.013
33.495,-0.016
33.500,-0.023
33.505,-0.026
33.510,-0.026
33.515,-0.031
33.520,-0.032
33.525,-0.029
33.530,-0.039
33.535,-0.050
33.540,-0.064
33.545,-0.101
33.550,-0.130
33.555,-0.135
33.560,-0.134
33.565,-0.128
33.570,-0.121
33.575,-0.145
33.580,-0.208
33.585,-0.262
33.590,-0.264
33.595,-0.238
33.600,-0.197
33.605,-0.137
33.610,-0.098
33.615,-0.079
33.620,-0.048
33.625,-0.021
33.630,-0.010
33.635,0.017
33.640,0.058
33.645,0.073
33.650,0.077
33.655,0.086
33.660,0.077
33.665,0.055
33.670,0.049
33.675,0.055
33.680,0.047
33.685,0.038
33.690,0.040
33.695,0.041
33.700,0.047
33.705,0.068
33.710,0.076
33.715,0.029
33.720,-0.067
33.725,-0.268
33.730,-0.626
33.735,-1.039
33.740,-1.241
33.745,-0.982
33.750,-0.426
33.755,0.126
33.760,0.486
33.765,0.527
33.770,0.398
33.775,0.244
33.780,0.102
33.785,0.052
33.790,0.067
33.795,0.070
33.800,0.068
33.805,0.075
33.810,0.071
33.815,0.054
33.820,0.044
33.825,0.040
33.830,0.026
33.835,0.016
33.840,0.023
33.845,0.021
33.850,0.005
33.855,0.001
33.860,0.000
33.865,-0.012
33.870,-0.022
33.875,-0.028
33.880,-0.036
33.885,-0.038
33.890,-0.039
33.895,-0.052
33.900,-0.065
33.905,-0.064
33.910,-0.062
33.915,-0.072
33.920,-0.084
33.925,-0.092
33.930,-0.105
33.935,-0.113
33.940,-0.119
33.945,-0.132
33.950,-0.142
33.955,-0.150
33.960,-0.164
33.965,-0.182
33.970,-0.194
33.975,-0.205
33.980,-0.219
33.985,-0.220
33.990,-0.211
33.995,-0.203
34.000,-0.190
34.005,-0.168
34.010,-0.132
34.015,-0.085
34.020,-0.021
34.025,0.048
34.030,0.102
34.035,0.157
34.040,0.211
34.045,0.250
34.050,0.281
34.055,0.308
34.060,0.319
34.065,0.311
34.070,0.316
34.075,0.327
34.080,0.320
34.085,0.307
34.090,0.303
34.095,0.288
34.100,0.268
34.105,0.265
34.110,0.248
34.115,0.214
34.120,0.204
34.125,0.200
34.130,0.182
34.135,0.174
34.140,0.170
34.145,0.148
34.150,0.126
34.155,0.121
34.160,0.118
34.165,0.103
34.170,0.094
34.175,0.097
34.180,0.088
34.185,0.073
34.190,0.069
34.195,0.063
34.200,0.055
34.205,0.053
34.210,0.050
34.215,0.043
34.220,0.036
34.225,0.028
34.230,0.019
34.235,0.024
34.240,0.032
34.245,0.022
34.250,0.014
34.255,0.019
34.260,0.012
34.265,-0.003
34.270,0.002
34.275,0.005
34.280,-0.005
34.285,-0.004
34.290,0.000
34.295,-0.012
34.300,-0.020
34.305,-0.015
34.310,-0.015
34.315,-0.023
34.320,-0.023
34.325,-0.020
34.330,-0.028
34.335,-0.027
34.340,-0.019
34.345,-0.030
34.350,-0.053
34.355,-0.068
34.360,-0.092
34.365,-0.125
34.370,-0.138
34.375,-0.137
34.380,-0.133
34.385,-0.129
34.390,-0.145
34.395,-0.203
34.400,-0.256
34.405,-0.253
34.410,-0.220
34.415,-0.176
34.420,-0.129
34.425,-0.090
34.430,-0.066
34.435,-0.048
34.440,-0.017
34.445,-0.002
34.450,0.010
34.455,0.057
34.460,0.090
34.465,0.085
34.470,0.074
34.475,0.070
34.480,0.065
34.485,0.062
34.490,0.063
34.495,0.052
34.500,0.041
34.505,0.046
34.510,0.045
34.515,0.037
34.520,0.062
34.525,0.078
34.530,0.016
34.535,-0.108
34.540,-0.339
34.545,-0.714
34.550,-1.123
34.555,-1.275
34.560,-0.948
34.565,-0.355
34.570,0.211
34.575,0.556
34.580,0.556
34.585,0.378
34.590,0.212
34.595,0.101
34.600,0.068
34.605,0.089
34.610,0.099
34.615,0.086
34.620,0.081
34.625,0.078
34.630,0.068
34.635,0.064
34.640,0.066
34.645,0.057
34.650,0.042
34.655,0.038
34.660,0.032
34.665,0.015
34.670,0.006
34.675,0.003
34.680,-0.008
34.685,-0.017
34.690,-0.017
34.695,-0.025
34.700,-0.035
34.705,-0.030
34.710,-0.033
34.715,-0.053
34.720,-0.059
34.725,-0.058
34.730,-0.070
34.735,-0.078
34.740,-0.079
34.745,-0.088
34.750,-0.104
34.755,-0.112
34.760,-0.122
34.765,-0.143
34.770,-0.157
34.775,-0.165
34.780,-0.180
34.785,-0.188
34.790,-0.191
34.795,-0.202
34.800,-0.207
34.805,-0.202
34.810,-0.198
34.815,-0.191
34.820,-0.161
34.825,-0.113
34.830,-0.066
34.835,-0.008
34.840,0.065
34.845,0.126
34.850,0.173
34.855,0.224
34.860,0.264
34.865,0.283
34.870,0.305
34.875,0.322
34.880,0.321
34.885,0.319
34.890,0.318
34.895,0.306
34.900,0.300
34.905,0.300
34.910,0.285
34.915,0.267
34.920,0.258
34.925,0.245
34.930,0.223
34.935,0.203
34.940,0.199
34.945,0.189
34.950,0.170
34.955,0.165
34.960,0.157
34.965,0.136
34.970,0.129
34.975,0.125
34.980,0.106
34.985,0.092
34.990,0.095
34.995,0.087
35.000,0.071
35.005,0.067
35.010,0.064
35.015,0.047
35.020,0.044
35.025,0.050
35.030,0.036
35.035,0.030
35.040,0.038
35.045,0.036
35.050,0.028
35.055,0.031
35.060,0.029
35.065,0.017
35.070,0.014
35.075,0.013
35.080,-0.001
35.085,-0.009
35.090,0.001
35.095,0.001
35.100,-0.003
35.105,0.001
35.110,-0.010
35.115,-0.022
35.120,-0.021
35.125,-0.023
35.130,-0.031
35.135,-0.028
35.140,-0.020
35.145,-0.026
35.150,-0.035
35.155,-0.037
35.160,-0.041
35.165,-0.047
35.170,-0.045
35.175,-0.041
35.180,-0.049
35.185,-0.056
35.190,-0.048
35.195,-0.051
35.200,-0.061
35.205,-0.062
35.210,-0.092
35.215,-0.137
35.220,-0.153
35.225,-0.162
35.230,-0.161
35.235,-0.143
35.240,-0.145
35.245,-0.192
35.250,-0.248
35.255,-0.258
35.260,-0.238
35.265,-0.207
35.270,-0.149
35.275,-0.104
35.280,-0.080
35.285,-0.050
35.290,-0.020
35.295,-0.001
35.300,0.012
35.305,0.038
35.310,0.067
35.315,0.074
35.320,0.079
35.325,0.081
35.330,0.068
35.335,0.066
35.340,0.074
35.345,0.063
35.350,0.048
35.355,0.046
35.360,0.043
35.365,0.034
35.370,0.054
35.375,0.081
35.380,0.046
35.385,-0.034
35.390,-0.198
35.395,-0.525
35.400,-0.940
35.405,-1.231
35.410,-1.125
35.415,-0.636
35.420,-0.061
35.425,0.383
35.430,0.547
35.435,0.432
35.440,0.247
35.445,0.128
35.450,0.081
35.455,0.085
35.460,0.096
35.465,0.095
35.470,0.094
35.475,0.096
35.480,0.084
35.485,0.073
35.490,0.072
35.495,0.061
35.500,0.056
35.505,0.058
35.510,0.044
35.515,0.027
35.520,0.020
35.525,0.012
35.530,0.001
35.535,0.000
35.540,0.005
35.545,-0.010
35.550,-0.025
35.555,-0.020
35.560,-0.024
35.565,-0.041
35.570,-0.043
35.575,-0.043
35.580,-0.055
35.585,-0.062
35.590,-0.067
35.595,-0.080
35.600,-0.088
35.605,-0.093
35.610,-0.107
35.615,-0.123
35.620,-0.133
35.625,-0.151
35.630,-0.172
35.635,-0.179
35.640,-0.183
35.645,-0.193
35.650,-0.197
35.655,-0.196
35.660,-0.198
35.665,-0.197
35.670,-0.177
35.675,-0.137
35.680,-0.092
35.685,-0.038
35.690,0.031
35.695,0.087
35.700,0.136
35.705,0.195
35.710,0.242
35.715,0.270
35.720,0.293
35.725,0.311
35.730,0.316
35.735,0.321
35.740,0.329
35.745,0.324
35.750,0.308
35.755,0.301
35.760,0.291
35.765,0.268
35.770,0.256
35.775,0.252
35.780,0.232
35.785,0.219
35.790,0.217
35.795,0.197
35.800,0.175
35.805,0.170
35.810,0.155
35.815,0.133
35.820,0.130
35.825,0.125
35.830,0.111
35.835,0.102
35.840,0.097
35.845,0.088
35.850,0.071
35.855,0.063
35.860,0.062
35.865,0.057
35.870,0.055
35.875,0.054
35.880,0.044
35.885,0.041
35.890,0.046
35.895,0.034
35.900,0.016
35.905,0.018
35.910,0.023
35.915,0.016
35.920,0.017
35.925,0.020
35.930,0.010
35.935,0.004
35.940,0.004
35.945,-0.004
35.950,-0.015
35.955,-0.015
35.960,-0.013
35.965,-0.014
35.970,-0.010
35.975,-0.008
35.980,-0.020
35.985,-0.022
35.990,-0.015
35.995,-0.025
36.000,-0.038
36.005,-0.038
36.010,-0.036
36.015,-0.047
36.020,-0.047
36.025,-0.043
36.030,-0.055
36.035,-0.055
36.040,-0.045
36.045,-0.055
36.050,-0.063
36.055,-0.051
36.060,-0.048
36.065,-0.065
36.070,-0.073
36.075,-0.089
36.080,-0.128
36.085,-0.147
36.090,-0.144
36.095,-0.149
36.100,-0.149
36.105,-0.146
36.110,-0.181
36.115,-0.246
36.120,-0.277
36.125,-0.253
36.130,-0.211
36.135,-0.153
36.140,-0.098
36.145,-0.069
36.150,-0.050
36.155,-0.022
36.160,0.001
36.165,0.004
36.170,0.027
36.175,0.066
36.180,0.073
36.185,0.072
36.190,0.081
36.195,0.076
36.200,0.062
36.205,0.059
36.210,0.055
36.215,0.042
36.220,0.036
36.225,0.037
36.230,0.033
36.235,0.052
36.240,0.078
36.245,0.056
36.250,-0.013
36.255,-0.146
36.260,-0.425
36.265,-0.843
36.270,-1.194
36.275,-1.168
36.280,-0.731
36.285,-0.159
36.290,0.322
36.295,0.527
36.300,0.459
36.305,0.308
36.310,0.163
36.315,0.087
36.320,0.091
36.325,0.105
36.330,0.101
36.335,0.104
36.340,0.112
36.345,0.096
36.350,0.077
36.355,0.076
36.360,0.068
36.365,0.053
36.370,0.055
36.375,0.056
36.380,0.037
36.385,0.020
36.390,0.016
36.395,0.013
36.400,0.006
36.405,0.002
36.410,-0.002
36.415,-0.012
36.420,-0.020
36.425,-0.021
36.430,-0.028
36.435,-0.034
36.440,-0.036
36.445,-0.052
36.450,-0.065
36.455,-0.057
36.460,-0.060
36.465,-0.082
36.470,-0.092
36.475,-0.099
36.480,-0.118
36.485,-0.132
36.490,-0.146
36.495,-0.160
36.500,-0.168
36.505,-0.177
36.510,-0.188
36.515,-0.195
36.520,-0.196
36.525,-0.197
36.530,-0.200
36.535,-0.185
36.540,-0.143
36.545,-0.095
36.550,-0.043
36.555,0.023
36.560,0.081
36.565,0.130
36.570,0.181
36.575,0.224
36.580,0.257
36.585,0.285
36.590,0.311
36.595,0.324
36.600,0.325
36.605,0.324
36.610,0.319
36.615,0.308
36.620,0.300
36.625,0.294
36.630,0.281
36.635,0.269
36.640,0.264
36.645,0.241
36.650,0.211
36.655,0.206
36.660,0.199
36.665,0.173
36.670,0.163
36.675,0.163
36.680,0.144
36.685,0.123
36.690,0.120
36.695,0.113
36.700,0.100
36.705,0.095
36.710,0.089
36.715,0.078
36.720,0.076
36.725,0.073
36.730,0.057
36.735,0.045
36.740,0.048
36.745,0.049
36.750,0.044
36.755,0.041
36.760,0.033
36.765,0.022
36.770,0.026
36.775,0.033
36.780,0.029
36.785,0.024
36.790,0.019
36.795,0.011
36.800,0.011
36.805,0.009
36.810,0.004
36.815,0.001
36.820,0.004
36.825,-0.001
36.830,-0.015
36.835,-0.015
36.840,-0.010
36.845,-0.020
36.850,-0.027
36.855,-0.022
36.860,-0.022
36.865,-0.030
36.870,-0.033
36.875,-0.034
36.880,-0.039
36.885,-0.044
36.890,-0.048
36.895,-0.052
36.900,-0.051
36.905,-0.048
36.910,-0.057
36.915,-0.086
36.920,-0.115
36.925,-0.135
36.930,-0.147
36.935,-0.148
36.940,-0.139
36.945,-0.147
36.950,-0.196
36.955,-0.256
36.960,-0.263
36.965,-0.224
36.970,-0.181
36.975,-0.142
36.980,-0.116
36.985,-0.085
36.990,-0.040
36.995,-0.019
37.000,-0.018
37.005,0.000
37.010,0.035
37.015,0.065
37.020,0.073
37.025,0.067
37.030,0.053
37.035,0.044
37.040,0.048
37.045,0.047
37.050,0.039
37.055,0.036
37.060,0.032
37.065,0.024
37.070,0.033
37.075,0.059
37.080,0.063
37.085,0.015
37.090,-0.094
37.095,-0.323
37.100,-0.687
37.105,-1.079
37.110,-1.238
37.115,-0.945
37.120,-0.372
37.125,0.181
37.130,0.502
37.135,0.520
37.140,0.389
37.145,0.223
37.150,0.101
37.155,0.072
37.160,0.076
37.165,0.068
37.170,0.070
37.175,0.082
37.180,0.077
37.185,0.070
37.190,0.068
37.195,0.051
37.200,0.039
37.205,0.044
37.210,0.035
37.215,0.018
37.220,0.014
37.225,0.008
37.230,-0.009
37.235,-0.015
37.240,-0.012
37.245,-0.013
37.250,-0.022
37.255,-0.031
37.260,-0.033
37.265,-0.037
37.270,-0.044
37.275,-0.051
37.280,-0.059
37.285,-0.065
37.290,-0.067
37.295,-0.075
37.300,-0.086
37.305,-0.092
37.310,-0.105
37.315,-0.122
37.320,-0.124
37.325,-0.130
37.330,-0.152
37.335,-0.170
37.340,-0.176
37.345,-0.187
37.350,-0.197
37.355,-0.199
37.360,-0.206
37.365,-0.204
37.370,-0.175
37.375,-0.143
37.380,-0.116
37.385,-0.069
37.390,-0.003
37.395,0.054
37.400,0.108
37.405,0.170
37.410,0.220
37.415,0.254
37.420,0.288
37.425,0.316
37.430,0.322
37.435,0.323
37.440,0.328
37.445,0.322
37.450,0.312
37.455,0.309
37.460,0.296
37.465,0.282
37.470,0.276
37.475,0.260
37.480,0.243
37.485,0.235
37.490,0.220
37.495,0.207
37.500,0.199
37.505,0.184
37.510,0.162
37.515,0.145
37.520,0.144
37.525,0.143
37.530,0.124
37.535,0.106
37.540,0.100
37.545,0.090
37.550,0.078
37.555,0.075
37.560,0.069
37.565,0.055
37.570,0.051
37.575,0.052
37.580,0.040
37.585,0.033
37.590,0.043
37.595,0.038
37.600,0.022
37.605,0.021
37.610,0.022
37.615,0.017
37.620,0.017
37.625,0.017
37.630,0.009
37.635,0.005
37.640,0.009
37.645,0.008
37.650,-0.004
37.655,-0.009
37.660,-0.004
37.665,-0.012
37.670,-0.019
37.675,-0.012
37.680,-0.018
37.685,-0.026
37.690,-0.021
37.695,-0.032
37.700,-0.043
37.705,-0.030
37.710,-0.029
37.715,-0.042
37.720,-0.042
37.725,-0.041
37.730,-0.051
37.735,-0.054
37.740,-0.047
37.745,-0.051
37.750,-0.058
37.755,-0.052
37.760,-0.049
37.765,-0.055
37.770,-0.061
37.775,-0.083
37.780,-0.127
37.785,-0.159
37.790,-0.162
37.795,-0.167
37.800,-0.205
37.805,-0.238
37.810,-0.228
37.815,-0.212
37.820,-0.201
37.825,-0.159
37.830,-0.116
37.835,-0.079
37.840,-0.031
37.845,-0.014
37.850,-0.016
37.855,0.006
37.860,0.033
37.865,0.049
37.870,0.060
37.875,0.059
37.880,0.048
37.885,0.047
37.890,0.051
37.895,0.042
37.900,0.037
37.905,0.041
37.910,0.035
37.915,0.023
37.920,0.034
37.925,0.056
37.930,0.038
37.935,-0.023
37.940,-0.166
37.945,-0.468
37.950,-0.881
37.955,-1.217
37.960,-1.192
37.965,-0.750
37.970,-0.170
37.975,0.307
37.980,0.520
37.985,0.447
37.990,0.278
37.995,0.146
38.000,0.086
38.005,0.092
38.010,0.098
38.015,0.093
38.020,0.101
38.025,0.102
38.030,0.084
38.035,0.076
38.040,0.081
38.045,0.072
38.050,0.063
38.055,0.061
38.060,0.042
38.065,0.022
38.070,0.025
38.075,0.029
38.080,0.021
38.085,0.015
38.090,0.011
38.095,-0.004
38.100,-0.016
38.105,-0.009
38.110,-0.012
38.115,-0.029
38.120,-0.037
38.125,-0.042
38.130,-0.057
38.135,-0.062
38.140,-0.052
38.145,-0.062
38.150,-0.082
38.155,-0.089
38.160,-0.097
38.165,-0.119
38.170,-0.135
38.175,-0.138
38.180,-0.152
38.185,-0.170
38.190,-0.179
38.195,-0.187
38.200,-0.194
38.205,-0.193
38.210,-0.192
38.215,-0.193
38.220,-0.177
38.225,-0.140
38.230,-0.095
38.235,-0.043
38.240,0.018
38.245,0.078
38.250,0.132
38.255,0.189
38.260,0.235
38.265,0.255
38.270,0.284
38.275,0.320
38.280,0.327
38.285,0.322
38.290,0.325
38.295,0.318
38.300,0.307
38.305,0.303
38.310,0.295
38.315,0.278
38.320,0.269
38.325,0.259
38.330,0.238
38.335,0.224
38.340,0.213
38.345,0.192
38.350,0.177
38.355,0.170
38.360,0.158
38.365,0.144
38.370,0.140
38.375,0.132
38.380,0.112
38.385,0.097
38.390,0.096
38.395,0.095
38.400,0.087
38.405,0.083
38.410,0.071
38.415,0.052
38.420,0.052
38.425,0.053
38.430,0.043
38.435,0.037
38.440,0.036
38.445,0.031
38.450,0.018
38.455,0.023
38.460,0.029
38.465,0.011
38.470,0.008
38.475,0.018
38.480,0.010
38.485,0.006
38.490,0.009
38.495,0.000
38.500,-0.008
38.505,-0.008
38.510,-0.015
38.515,-0.018
38.520,-0.018
38.525,-0.018
38.530,-0.024
38.535,-0.027
38.540,-0.021
38.545,-0.031
38.550,-0.044
38.555,-0.034
38.560,-0.034
38.565,-0.044
38.570,-0.038
38.575,-0.037
38.580,-0.049
38.585,-0.052
38.590,-0.043
38.595,-0.041
38.600,-0.052
38.605,-0.054
38.610,-0.051
38.615,-0.056
38.620,-0.054
38.625,-0.052
38.630,-0.067
38.635,-0.083
38.640,-0.122
38.645,-0.165
38.650,-0.172
38.655,-0.193
38.660,-0.240
38.665,-0.241
38.670,-0.208
38.675,-0.185
38.680,-0.160
38.685,-0.129
38.690,-0.082
38.695,-0.035
38.700,-0.023
38.705,-0.020
38.710,-0.010
38.715,0.004
38.720,0.040
38.725,0.071
38.730,0.064
38.735,0.053
38.740,0.053
38.745,0.040
38.750,0.030
38.755,0.043
38.760,0.043
38.765,0.019
38.770,0.010
38.775,0.025
38.780,0.047
38.785,0.038
38.790,-0.020
38.795,-0.139
38.800,-0.386
38.805,-0.769
38.810,-1.144
38.815,-1.213
38.820,-0.841
38.825,-0.288
38.830,0.193
38.835,0.466
38.840,0.464
38.845,0.308
38.850,0.159
38.855,0.097
38.860,0.094
38.865,0.098
38.870,0.104
38.875,0.100
38.880,0.089
38.885,0.085
38.890,0.091
38.895,0.086
38.900,0.069
38.905,0.062
38.910,0.061
38.915,0.051
38.920,0.047
38.925,0.046
38.930,0.037
38.935,0.026
38.940,0.024
38.945,0.010
38.950,-0.009
38.955,-0.004
38.960,-0.003
38.965,-0.024
38.970,-0.033
38.975,-0.025
38.980,-0.033
38.985,-0.046
38.990,-0.046
38.995,-0.054
39.000,-0.064
39.005,-0.062
39.010,-0.070
39.015,-0.090
39.020,-0.104
39.025,-0.116
39.030,-0.139
39.035,-0.157
39.040,-0.158
39.045,-0.167
39.050,-0.182
39.055,-0.187
39.060,-0.196
39.065,-0.204
39.070,-0.190
39.075,-0.166
39.080,-0.144
39.085,-0.105
39.090,-0.047
39.095,0.013
39.100,0.071
39.105,0.129
39.110,0.178
39.115,0.221
39.120,0.260
39.125,0.284
39.130,0.296
39.135,0.309
39.140,0.326
39.145,0.331
39.150,0.321
39.155,0.315
39.160,0.307
39.165,0.294
39.170,0.291
39.175,0.284
39.180,0.256
39.185,0.229
39.190,0.221
39.195,0.210
39.200,0.191
39.205,0.185
39.210,0.177
39.215,0.152
39.220,0.143
39.225,0.146
39.230,0.126
39.235,0.104
39.240,0.098
39.245,0.089
39.250,0.083
39.255,0.085
39.260,0.080
39.265,0.061
39.270,0.051
39.275,0.054
39.280,0.048
39.285,0.044
39.290,0.048
39.295,0.044
39.300,0.036
39.305,0.030
39.310,0.023
39.315,0.015
39.320,0.011
39.325,0.015
39.330,0.012
39.335,0.004
39.340,0.007
39.345,0.004
39.350,-0.007
39.355,-0.006
39.360,-0.002
39.365,-0.010
39.370,-0.012
39.375,-0.014
39.380,-0.027
39.385,-0.031
39.390,-0.020
39.395,-0.018
39.400,-0.028
39.405,-0.030
39.410,-0.029
39.415,-0.041
39.420,-0.044
39.425,-0.039
39.430,-0.048
39.435,-0.052
39.440,-0.045
39.445,-0.051
39.450,-0.059
39.455,-0.051
39.460,-0.051
39.465,-0.066
39.470,-0.087
39.475,-0.123
39.480,-0.163
39.485,-0.177
39.490,-0.200
39.495,-0.247
39.500,-0.246
39.505,-0.213
39.510,-0.189
39.515,-0.160
39.520,-0.126
39.525,-0.076
39.530,-0.032
39.535,-0.021
39.540,-0.013
39.545,-0.001
39.550,0.018
39.555,0.046
39.560,0.050
39.565,0.035
39.570,0.035
39.575,0.040
39.580,0.033
39.585,0.027
39.590,0.025
39.595,0.018
39.600,0.003
39.605,0.006
39.610,0.035
39.615,0.054
39.620,0.029
39.625,-0.046
39.630,-0.226
39.635,-0.551
39.640,-0.960
39.645,-1.253
39.650,-1.120
39.655,-0.598
39.660,-0.032
39.665,0.381
39.670,0.516
39.675,0.424
39.680,0.269
39.685,0.133
39.690,0.075
39.695,0.072
39.700,0.076
39.705,0.079
39.710,0.080
39.715,0.076
39.720,0.072
39.725,0.072
39.730,0.064
39.735,0.055
39.740,0.053
39.745,0.045
39.750,0.034
39.755,0.035
39.760,0.030
39.765,0.013
39.770,0.008
39.775,0.008
39.780,-0.008
39.785,-0.022
39.790,-0.017
39.795,-0.019
39.800,-0.031
39.805,-0.033
39.810,-0.033
39.815,-0.043
39.820,-0.049
39.825,-0.056
39.830,-0.072
39.835,-0.078
39.840,-0.079
39.845,-0.090
39.850,-0.103
39.855,-0.115
39.860,-0.127
39.865,-0.146
39.870,-0.163
39.875,-0.166
39.880,-0.174
39.885,-0.185
39.890,-0.191
39.895,-0.199
39.900,-0.192
39.905,-0.173
39.910,-0.151
39.915,-0.118
39.920,-0.074
39.925,-0.024
39.930,0.032
39.935,0.096
39.940,0.163
39.945,0.216
39.950,0.251
39.955,0.283
39.960,0.309
39.965,0.321
39.970,0.326
39.975,0.331
39.980,0.329
39.985,0.321
39.990,0.319
39.995,0.310
40.000,0.290
40.005,0.281
40.010,0.276
40.015,0.253
40.020,0.235
40.025,0.229
40.030,0.211
40.035,0.195
40.040,0.190
40.045,0.173
40.050,0.150
40.055,0.141
40.060,0.131
40.065,0.116
40.070,0.114
40.075,0.112
40.080,0.095
40.085,0.084
40.090,0.081
40.095,0.063
40.100,0.045
40.105,0.052
40.110,0.056
40.115,0.043
40.120,0.036
40.125,0.038
40.130,0.032
40.135,0.024
40.140,0.028
40.145,0.023
40.150,0.012
40.155,0.019
40.160,0.021
40.165,0.007
40.170,-0.002
40.175,-0.002
40.180,-0.004
40.185,-0.009
40.190,-0.002
40.195,-0.003
40.200,-0.018
40.205,-0.021
40.210,-0.014
40.215,-0.025
40.220,-0.033
40.225,-0.026
40.230,-0.032
40.235,-0.037
40.240,-0.030
40.245,-0.036
40.250,-0.050
40.255,-0.041
40.260,-0.033
40.265,-0.045
40.270,-0.051
40.275,-0.049
40.280,-0.053
40.285,-0.056
40.290,-0.048
40.295,-0.053
40.300,-0.082
40.305,-0.119
40.310,-0.154
40.315,-0.175
40.320,-0.195
40.325,-0.234
40.330,-0.246
40.335,-0.221
40.340,-0.201
40.345,-0.180
40.350,-0.153
40.355,-0.115
40.360,-0.064
40.365,-0.035
40.370,-0.026
40.375,-0.017
40.380,-0.001
40.385,0.034
40.390,0.059
40.395,0.043
40.400,0.031
40.405,0.040
40.410,0.041
40.415,0.032
40.420,0.028
40.425,0.024
40.430,0.012
40.435,0.009
40.440,0.027
40.445,0.045
40.450,0.035
40.455,-0.017
40.460,-0.132
40.465,-0.382
40.470,-0.765
40.475,-1.145
40.480,-1.259
40.485,-0.917
40.490,-0.331
40.495,0.189
40.500,0.479
40.505,0.489
40.510,0.339
40.515,0.181
40.520,0.101
40.525,0.094
40.530,0.095
40.535,0.095
40.540,0.106
40.545,0.102
40.550,0.086
40.555,0.087
40.560,0.091
40.565,0.077
40.570,0.068
40.575,0.071
40.580,0.060
40.585,0.041
40.590,0.037
40.595,0.034
40.600,0.022
40.605,0.022
40.610,0.021
40.615,0.006
40.620,-0.002
40.625,0.000
40.630,-0.007
40.635,-0.020
40.640,-0.025
40.645,-0.031
40.650,-0.039
40.655,-0.040
40.660,-0.046
40.665,-0.063
40.670,-0.078
40.675,-0.087
40.680,-0.095
40.685,-0.103
40.690,-0.112
40.695,-0.129
40.700,-0.144
40.705,-0.151
40.710,-0.164
40.715,-0.181
40.720,-0.188
40.725,-0.190
40.730,-0.193
40.735,-0.188
40.740,-0.166
40.745,-0.142
40.750,-0.106
40.755,-0.042
40.760,0.022
40.765,0.073
40.770,0.134
40.775,0.196
40.780,0.234
40.785,0.265
40.790,0.299
40.795,0.312
40.800,0.316
40.805,0.330
40.810,0.334
40.815,0.326
40.820,0.322
40.825,0.313
40.830,0.297
40.835,0.282
40.840,0.269
40.845,0.255
40.850,0.239
40.855,0.230
40.860,0.218
40.865,0.193
40.870,0.183
40.875,0.180
40.880,0.160
40.885,0.144
40.890,0.134
40.895,0.116
40.900,0.102
40.905,0.100
40.910,0.099
40.915,0.080
40.920,0.070
40.925,0.073
40.930,0.060
40.935,0.055
40.940,0.058
40.945,0.045
40.950,0.031
40.955,0.034
40.960,0.032
40.965,0.020
40.970,0.020
40.975,0.027
40.980,0.015
40.985,0.006
40.990,0.014
40.995,0.009
41.000,0.001
41.005,0.001
41.010,-0.002
41.015,-0.006
41.020,-0.006
41.025,-0.007
41.030,-0.019
41.035,-0.025
41.040,-0.013
41.045,-0.013
41.050,-0.026
41.055,-0.023
41.060,-0.026
41.065,-0.038
41.070,-0.036
41.075,-0.029
41.080,-0.039
41.085,-0.049
41.090,-0.047
41.095,-0.046
41.100,-0.048
41.105,-0.048
41.110,-0.052
41.115,-0.056
41.120,-0.056
41.125,-0.054
41.130,-0.056
41.135,-0.062
41.140,-0.066
41.145,-0.084
41.150,-0.121
41.155,-0.152
41.160,-0.165
41.165,-0.200
41.170,-0.243
41.175,-0.233
41.180,-0.212
41.185,-0.204
41.190,-0.171
41.195,-0.138
41.200,-0.113
41.205,-0.060
41.210,-0.024
41.215,-0.025
41.220,-0.015
41.225,0.005
41.230,0.026
41.235,0.046
41.240,0.045
41.245,0.034
41.250,0.033
41.255,0.037
41.260,0.032
41.265,0.019
41.270,0.015
41.275,0.020
41.280,0.016
41.285,0.021
41.290,0.048
41.295,0.039
41.300,-0.027
41.305,-0.140
41.310,-0.375
41.315,-0.744
41.320,-1.109
41.325,-1.207
41.330,-0.886
41.335,-0.350
41.340,0.153
41.345,0.450
41.350,0.457
41.355,0.311
41.360,0.168
41.365,0.092
41.370,0.086
41.375,0.101
41.380,0.100
41.385,0.094
41.390,0.100
41.395,0.101
41.400,0.087
41.405,0.080
41.410,0.076
41.415,0.059
41.420,0.049
41.425,0.058
41.430,0.054
41.435,0.042
41.440,0.032
41.445,0.015
41.450,0.012
41.455,0.019
41.460,0.008
41.465,-0.010
41.470,-0.012
41.475,-0.007
41.480,-0.017
41.485,-0.026
41.490,-0.031
41.495,-0.047
41.500,-0.057
41.505,-0.053
41.510,-0.063
41.515,-0.087
41.520,-0.092
41.525,-0.085
41.530,-0.101
41.535,-0.122
41.540,-0.124
41.545,-0.142
41.550,-0.173
41.555,-0.181
41.560,-0.183
41.565,-0.195
41.570,-0.196
41.575,-0.189
41.580,-0.191
41.585,-0.182
41.590,-0.148
41.595,-0.104
41.600,-0.052
41.605,0.006
41.610,0.065
41.615,0.119
41.620,0.174
41.625,0.223
41.630,0.251
41.635,0.274
41.640,0.301
41.645,0.312
41.650,0.313
41.655,0.317
41.660,0.323
41.665,0.317
41.670,0.294
41.675,0.287
41.680,0.289
41.685,0.272
41.690,0.255
41.695,0.236
41.700,0.215
41.705,0.213
41.710,0.205
41.715,0.182
41.720,0.172
41.725,0.164
41.730,0.143
41.735,0.134
41.740,0.133
41.745,0.116
41.750,0.095
41.755,0.092
41.760,0.094
41.765,0.084
41.770,0.071
41.775,0.064
41.780,0.053
41.785,0.045
41.790,0.045
41.795,0.044
41.800,0.042
41.805,0.041
41.810,0.034
41.815,0.023
41.820,0.020
41.825,0.021
41.830,0.014
41.835,0.010
41.840,0.015
41.845,0.010
41.850,-0.001
41.855,0.004
41.860,0.007
41.865,-0.007
41.870,-0.010
41.875,-0.003
41.880,-0.014
41.885,-0.019
41.890,-0.013
41.895,-0.024
41.900,-0.031
41.905,-0.020
41.910,-0.019
41.915,-0.036
41.920,-0.047
41.925,-0.039
41.930,-0.039
41.935,-0.045
41.940,-0.042
41.945,-0.047
41.950,-0.060
41.955,-0.059
41.960,-0.056
41.965,-0.062
41.970,-0.059
41.975,-0.057
41.980,-0.082
41.985,-0.123
41.990,-0.150
41.995,-0.179
42.000,-0.234
42.005,-0.253
42.010,-0.221
42.015,-0.204
42.020,-0.190
42.025,-0.154
42.030,-0.126
42.035,-0.088
42.040,-0.037
42.045,-0.021
42.050,-0.017
42.055,0.013
42.060,0.042
42.065,0.052
42.070,0.051
42.075,0.052
42.080,0.046
42.085,0.038
42.090,0.038
42.095,0.028
42.100,0.019
42.105,0.024
42.110,0.017
42.115,0.010
42.120,0.042
42.125,0.072
42.130,0.032
42.135,-0.064
42.140,-0.244
42.145,-0.569
42.150,-0.983
42.155,-1.229
42.160,-1.029
42.165,-0.514
42.170,0.016
42.175,0.396
42.180,0.492
42.185,0.389
42.190,0.247
42.195,0.119
42.200,0.066
42.205,0.080
42.210,0.086
42.215,0.075
42.220,0.077
42.225,0.078
42.230,0.068
42.235,0.068
42.240,0.071
42.245,0.060
42.250,0.052
42.255,0.051
42.260,0.042
42.265,0.025
42.270,0.016
42.275,0.017
42.280,0.009
42.285,0.006
42.290,0.010
42.295,-0.001
42.300,-0.018
42.305,-0.022
42.310,-0.025
42.315,-0.035
42.320,-0.039
42.325,-0.037
42.330,-0.047
42.335,-0.059
42.340,-0.064
42.345,-0.073
42.350,-0.082
42.355,-0.085
42.360,-0.098
42.365,-0.124
42.370,-0.141
42.375,-0.145
42.380,-0.154
42.385,-0.166
42.390,-0.174
42.395,-0.182
42.400,-0.198
42.405,-0.201
42.410,-0.193
42.415,-0.187
42.420,-0.163
42.425,-0.122
42.430,-0.077
42.435,-0.017
42.440,0.058
42.445,0.123
42.450,0.168
42.455,0.213
42.460,0.256
42.465,0.279
42.470,0.301
42.475,0.323
42.480,0.330
42.485,0.330
42.490,0.331
42.495,0.320
42.500,0.301
42.505,0.294
42.510,0.287
42.515,0.269
42.520,0.255
42.525,0.252
42.530,0.238
42.535,0.216
42.540,0.213
42.545,0.211
42.550,0.192
42.555,0.172
42.560,0.158
42.565,0.143
42.570,0.131
42.575,0.120
42.580,0.109
42.585,0.108
42.590,0.108
42.595,0.087
42.600,0.068
42.605,0.068
42.610,0.066
42.615,0.057
42.620,0.050
42.625,0.050
42.630,0.046
42.635,0.038
42.640,0.039
42.645,0.038
42.650,0.024
42.655,0.017
42.660,0.021
42.665,0.024
42.670,0.025
42.675,0.020
42.680,0.009
42.685,0.003
42.690,0.005
42.695,0.000
42.700,-0.009
42.705,-0.008
42.710,-0.007
42.715,-0.019
42.720,-0.028
42.725,-0.029
42.730,-0.035
42.735,-0.032
42.740,-0.019
42.745,-0.019
42.750,-0.030
42.755,-0.035
42.760,-0.042
42.765,-0.052
42.770,-0.049
42.775,-0.040
42.780,-0.048
42.785,-0.056
42.790,-0.048
42.795,-0.049
42.800,-0.065
42.805,-0.078
42.810,-0.113
42.815,-0.162
42.820,-0.171
42.825,-0.192
42.830,-0.245
42.835,-0.243
42.840,-0.205
42.845,-0.196
42.850,-0.175
42.855,-0.135
42.860,-0.092
42.865,-0.048
42.870,-0.033
42.875,-0.035
42.880,-0.026
42.885,-0.001
42.890,0.039
42.895,0.055
42.900,0.044
42.905,0.043
42.910,0.042
42.915,0.029
42.920,0.023
42.925,0.026
42.930,0.023
42.935,0.014
42.940,0.013
42.945,0.023
42.950,0.038
42.955,0.032
42.960,-0.030
42.965,-0.166
42.970,-0.424
42.975,-0.815
42.980,-1.193
42.985,-1.239
42.990,-0.831
42.995,-0.259
43.000,0.228
43.005,0.485
43.010,0.458
43.015,0.295
43.020,0.154
43.025,0.089
43.030,0.073
43.035,0.076
43.040,0.089
43.045,0.094
43.050,0.090
43.055,0.084
43.060,0.080
43.065,0.070
43.070,0.062
43.075,0.064
43.080,0.054
43.085,0.039
43.090,0.037
43.095,0.032
43.100,0.019
43.105,0.014
43.110,0.010
43.115,-0.001
43.120,-0.008
43.125,-0.007
43.130,-0.015
43.135,-0.024
43.140,-0.024
43.145,-0.029
43.150,-0.041
43.155,-0.041
43.160,-0.050
43.165,-0.071
43.170,-0.077
43.175,-0.077
43.180,-0.087
43.185,-0.106
43.190,-0.122
43.195,-0.132
43.200,-0.145
43.205,-0.152
43.210,-0.154
43.215,-0.169
43.220,-0.187
43.225,-0.190
43.230,-0.193
43.235,-0.198
43.240,-0.190
43.245,-0.176
43.250,-0.147
43.255,-0.095
43.260,-0.040
43.265,0.015
43.270,0.079
43.275,0.140
43.280,0.189
43.285,0.227
43.290,0.267
43.295,0.295
43.300,0.306
43.305,0.324
43.310,0.341
43.315,0.335
43.320,0.321
43.325,0.311
43.330,0.306
43.335,0.299
43.340,0.288
43.345,0.271
43.350,0.251
43.355,0.242
43.360,0.233
43.365,0.213
43.370,0.198
43.375,0.192
43.380,0.179
43.385,0.156
43.390,0.145
43.395,0.141
43.400,0.122
43.405,0.111
43.410,0.109
43.415,0.098
43.420,0.087
43.425,0.081
43.430,0.070
43.435,0.060
43.440,0.058
43.445,0.053
43.450,0.044
43.455,0.043
43.460,0.044
43.465,0.036
43.470,0.031
43.475,0.030
43.480,0.018
43.485,0.014
43.490,0.022
43.495,0.018
43.500,0.011
43.505,0.018
43.510,0.014
43.515,-0.005
43.520,-0.007
43.525,0.001
43.530,-0.005
43.535,-0.012
43.540,-0.005
43.545,-0.010
43.550,-0.023
43.555,-0.020
43.560,-0.024
43.565,-0.036
43.570,-0.038
43.575,-0.029
43.580,-0.029
43.585,-0.041
43.590,-0.042
43.595,-0.038
43.600,-0.044
43.605,-0.047
43.610,-0.047
43.615,-0.054
43.620,-0.057
43.625,-0.053
43.630,-0.052
43.635,-0.064
43.640,-0.085
43.645,-0.115
43.650,-0.153
43.655,-0.167
43.660,-0.191
43.665,-0.245
43.670,-0.249
43.675,-0.207
43.680,-0.185
43.685,-0.160
43.690,-0.126
43.695,-0.096
43.700,-0.059
43.705,-0.024
43.710,-0.015
43.715,-0.010
43.720,0.015
43.725,0.044
43.730,0.053
43.735,0.040
43.740,0.043
43.745,0.050
43.750,0.036
43.755,0.029
43.760,0.029
43.765,0.016
43.770,0.011
43.775,0.022
43.780,0.028
43.785,0.039
43.790,0.043
43.795,-0.001
43.800,-0.120
43.805,-0.359
43.810,-0.741
43.815,-1.134
43.820,-1.239
43.825,-0.895
43.830,-0.342
43.835,0.158
43.840,0.465
43.845,0.476
43.850,0.302
43.855,0.152
43.860,0.096
43.865,0.086
43.870,0.096
43.875,0.109
43.880,0.102
43.885,0.088
43.890,0.090
43.895,0.098
43.900,0.087
43.905,0.071
43.910,0.066
43.915,0.059
43.920,0.058
43.925,0.058
43.930,0.039
43.935,0.021
43.940,0.024
43.945,0.021
43.950,0.004
43.955,0.004
43.960,0.008
43.965,-0.007
43.970,-0.017
43.975,-0.013
43.980,-0.016
43.985,-0.026
43.990,-0.034
43.995,-0.045
44.000,-0.059
44.005,-0.063
44.010,-0.064
44.015,-0.081
44.020,-0.096
44.025,-0.099
44.030,-0.118
44.035,-0.142
44.040,-0.150
44.045,-0.164
44.050,-0.182
44.055,-0.183
44.060,-0.185
44.065,-0.196
44.070,-0.197
44.075,-0.184
44.080,-0.167
44.085,-0.140
44.090,-0.097
44.095,-0.048
44.100,0.009
44.105,0.074
44.110,0.130
44.115,0.176
44.120,0.223
44.125,0.261
44.130,0.289
44.135,0.309
44.140,0.319
44.145,0.326
44.150,0.324
44.155,0.319
44.160,0.318
44.165,0.301
44.170,0.290
44.175,0.291
44.180,0.268
44.185,0.250
44.190,0.249
44.195,0.230
44.200,0.205
44.205,0.192
44.210,0.183
44.215,0.170
44.220,0.157
44.225,0.146
44.230,0.132
44.235,0.121
44.240,0.119
44.245,0.110
44.250,0.095
44.255,0.092
44.260,0.083
44.265,0.067
44.270,0.063
44.275,0.060
44.280,0.050
44.285,0.047
44.290,0.051
44.295,0.043
44.300,0.029
44.305,0.025
44.310,0.031
44.315,0.027
44.320,0.022
44.325,0.020
44.330,0.011
44.335,0.002
44.340,0.007
44.345,0.010
44.350,-0.005
44.355,-0.008
44.360,0.003
44.365,-0.008
44.370,-0.025
44.375,-0.020
44.380,-0.017
44.385,-0.022
44.390,-0.018
44.395,-0.020
44.400,-0.035
44.405,-0.033
44.410,-0.023
44.415,-0.035
44.420,-0.043
44.425,-0.037
44.430,-0.042
44.435,-0.043
44.440,-0.038
44.445,-0.046
44.450,-0.057
44.455,-0.061
44.460,-0.059
44.465,-0.061
44.470,-0.070
44.475,-0.083
44.480,-0.130
44.485,-0.169
44.490,-0.169
44.495,-0.206
44.500,-0.249
44.505,-0.224
44.510,-0.196
44.515,-0.191
44.520,-0.165
44.525,-0.133
44.530,-0.096
44.535,-0.049
44.540,-0.021
44.545,-0.010
44.550,-0.004
44.555,0.016
44.560,0.041
44.565,0.042
44.570,0.039
44.575,0.048
44.580,0.044
44.585,0.032
44.590,0.025
44.595,0.020
44.600,0.017
44.605,0.016
44.610,0.018
44.615,0.035
44.620,0.055
44.625,0.027
44.630,-0.052
44.635,-0.198
44.640,-0.476
44.645,-0.873
44.650,-1.191
44.655,-1.126
44.660,-0.685
44.665,-0.157
44.670,0.273
44.675,0.464
44.680,0.407
44.685,0.260
44.690,0.137
44.695,0.080
44.700,0.070
44.705,0.081
44.710,0.096
44.715,0.094
44.720,0.086
44.725,0.085
44.730,0.076
44.735,0.066
44.740,0.067
44.745,0.063
44.750,0.042
44.755,0.031
44.760,0.037
44.765,0.027
44.770,0.014
44.775,0.020
44.780,0.014
44.785,-0.001
44.790,-0.002
44.795,-0.008
44.800,-0.024
44.805,-0.031
44.810,-0.026
44.815,-0.032
44.820,-0.040
44.825,-0.039
44.830,-0.051
44.835,-0.071
44.840,-0.079
44.845,-0.082
44.850,-0.090
44.855,-0.096
44.860,-0.105
44.865,-0.130
44.870,-0.148
44.875,-0.154
44.880,-0.168
44.885,-0.181
44.890,-0.184
44.895,-0.190
44.900,-0.194
44.905,-0.189
44.910,-0.179
44.915,-0.169
44.920,-0.138
44.925,-0.078
44.930,-0.024
44.935,0.025
44.940,0.091
44.945,0.150
44.950,0.192
44.955,0.238
44.960,0.277
44.965,0.289
44.970,0.298
44.975,0.317
44.980,0.322
44.985,0.318
44.990,0.319
44.995,0.316
45.000,0.301
45.005,0.290
45.010,0.281
45.015,0.260
45.020,0.241
45.025,0.237
45.030,0.222
45.035,0.204
45.040,0.193
45.045,0.175
45.050,0.161
45.055,0.155
45.060,0.139
45.065,0.115
45.070,0.107
45.075,0.105
45.080,0.088
45.085,0.076
45.090,0.084
45.095,0.082
45.100,0.063
45.105,0.064
45.110,0.063
45.115,0.040
45.120,0.037
45.125,0.049
45.130,0.038
45.135,0.024
45.140,0.032
45.145,0.033
45.150,0.020
45.155,0.022
45.160,0.027
45.165,0.018
45.170,0.012
45.175,0.015
45.180,0.006
45.185,-0.006
45.190,0.000
45.195,0.001
45.200,-0.010
45.205,-0.015
45.210,-0.016
45.215,-0.022
45.220,-0.023
45.225,-0.015
45.230,-0.021
45.235,-0.033
45.240,-0.032
45.245,-0.031
45.250,-0.039
45.255,-0.044
45.260,-0.038
45.265,-0.039
45.270,-0.040
45.275,-0.039
45.280,-0.045
45.285,-0.050
45.290,-0.045
45.295,-0.048
45.300,-0.068
45.305,-0.087
45.310,-0.116
