'Elapsed time','ECG'
'seconds','mV'
0.000,-0.046
0.005,-0.140
0.010,-0.109
0.015,-0.082
0.020,-0.077
0.025,-0.030
0.030,0.007
0.035,0.012
0.040,0.018
0.045,0.044
0.050,0.071
0.055,0.093
0.060,0.104
0.065,0.096
0.070,0.080
0.075,0.066
0.080,0.054
0.085,0.048
0.090,0.043
0.095,0.038
0.100,0.042
0.105,0.046
0.110,0.046
0.115,0.037
0.120,0.033
0.125,0.024
0.130,-0.053
0.135,-0.207
0.140,-0.442
0.145,-0.746
0.150,-1.032
0.155,-1.241
0.160,-1.331
0.165,-1.289
0.170,-1.015
0.175,-0.430
0.180,0.180
0.185,0.504
0.190,0.572
0.195,0.526
0.200,0.462
0.205,0.445
0.210,0.439
0.215,0.415
0.220,0.394
0.225,0.369
0.230,0.351
0.235,0.341
0.240,0.319
0.245,0.304
0.250,0.288
0.255,0.267
0.260,0.243
0.265,0.222
0.270,0.220
0.275,0.218
0.280,0.198
0.285,0.177
0.290,0.170
0.295,0.161
0.300,0.145
0.305,0.138
0.310,0.119
0.315,0.077
0.320,0.059
0.325,0.066
0.330,0.070
0.335,0.068
0.340,0.046
0.345,0.002
0.350,-0.023
0.355,-0.040
0.360,-0.051
0.365,-0.039
0.370,-0.048
0.375,-0.080
0.380,-0.105
0.385,-0.114
0.390,-0.116
0.395,-0.125
0.400,-0.127
0.405,-0.121
0.410,-0.120
0.415,-0.113
0.420,-0.104
0.425,-0.097
0.430,-0.089
0.435,-0.068
0.440,-0.034
0.445,-0.004
0.450,0.010
0.455,0.007
0.460,0.016
0.465,0.029
0.470,0.026
0.475,0.016
0.480,0.022
0.485,0.047
0.490,0.043
0.495,0.026
0.500,0.037
0.505,0.038
0.510,0.025
0.515,0.022
0.520,0.027
0.525,0.027
0.530,0.021
0.535,0.020
0.540,0.019
0.545,0.014
0.550,0.017
0.555,0.018
0.560,0.010
0.565,-0.002
0.570,-0.018
0.575,-0.041
0.580,-0.062
0.585,-0.074
0.590,-0.089
0.595,-0.091
0.600,-0.079
0.605,-0.092
0.610,-0.118
0.615,-0.131
0.620,-0.143
0.625,-0.131
0.630,-0.106
0.635,-0.091
0.640,-0.075
0.645,-0.063
0.650,-0.041
0.655,0.001
0.660,0.024
0.665,0.029
0.670,0.046
0.675,0.066
0.680,0.083
0.685,0.101
0.690,0.111
0.695,0.105
0.700,0.097
0.705,0.084
0.710,0.064
0.715,0.052
0.720,0.050
0.725,0.048
0.730,0.047
0.735,0.045
0.740,0.036
0.745,0.042
0.750,0.058
0.755,-0.006
0.760,-0.181
0.765,-0.405
0.770,-0.680
0.775,-0.973
0.780,-1.197
0.785,-1.276
0.790,-1.231
0.795,-1.031
0.800,-0.531
0.805,0.102
0.810,0.493
0.815,0.580
0.820,0.544
0.825,0.478
0.830,0.440
0.835,0.437
0.840,0.415
0.845,0.381
0.850,0.359
0.855,0.348
0.860,0.339
0.865,0.326
0.870,0.308
0.875,0.292
0.880,0.279
0.885,0.261
0.890,0.239
0.895,0.218
0.900,0.199
0.905,0.186
0.910,0.173
0.915,0.163
0.920,0.157
0.925,0.141
0.930,0.121
0.935,0.111
0.940,0.101
0.945,0.085
0.950,0.075
0.955,0.063
0.960,0.040
0.965,0.022
0.970,0.008
0.975,-0.011
0.980,-0.029
0.985,-0.040
0.990,-0.049
0.995,-0.068
1.000,-0.084
1.005,-0.090
1.010,-0.099
1.015,-0.116
1.020,-0.129
1.025,-0.139
1.030,-0.143
1.035,-0.132
1.040,-0.119
1.045,-0.107
1.050,-0.093
1.055,-0.075
1.060,-0.057
1.065,-0.035
1.070,-0.013
1.075,0.000
1.080,0.007
1.085,0.015
1.090,0.022
1.095,0.026
1.100,0.029
1.105,0.034
1.110,0.037
1.115,0.035
1.120,0.035
1.125,0.037
1.130,0.035
1.135,0.034
1.140,0.036
1.145,0.032
1.150,0.030
1.155,0.032
1.160,0.028
1.165,0.025
1.170,0.029
1.175,0.026
1.180,0.019
1.185,0.018
1.190,0.012
1.195,-0.007
1.200,-0.033
1.205,-0.052
1.210,-0.063
1.215,-0.069
1.220,-0.069
1.225,-0.076
1.230,-0.097
1.235,-0.112
1.240,-0.118
1.245,-0.119
1.250,-0.106
1.255,-0.084
1.260,-0.063
1.265,-0.054
1.270,-0.047
1.275,-0.021
1.280,0.011
1.285,0.031
1.290,0.041
1.295,0.053
1.300,0.075
1.305,0.099
1.310,0.107
1.315,0.104
1.320,0.102
1.325,0.094
1.330,0.079
1.335,0.071
1.340,0.070
1.345,0.066
1.350,0.057
1.355,0.048
1.360,0.040
1.365,0.046
1.370,0.071
1.375,0.061
1.380,-0.050
1.385,-0.223
1.390,-0.442
1.395,-0.724
1.400,-0.997
1.405,-1.181
1.410,-1.239
1.415,-1.199
1.420,-0.985
1.425,-0.454
1.430,0.164
1.435,0.504
1.440,0.564
1.445,0.528
1.450,0.476
1.455,0.448
1.460,0.437
1.465,0.413
1.470,0.397
1.475,0.381
1.480,0.360
1.485,0.344
1.490,0.328
1.495,0.306
1.500,0.287
1.505,0.269
1.510,0.248
1.515,0.235
1.520,0.223
1.525,0.202
1.530,0.191
1.535,0.189
1.540,0.176
1.545,0.155
1.550,0.140
1.555,0.132
1.560,0.119
1.565,0.102
1.570,0.088
1.575,0.074
1.580,0.051
1.585,0.031
1.590,0.020
1.595,0.003
1.600,-0.017
1.605,-0.031
1.610,-0.045
1.615,-0.063
1.620,-0.076
1.625,-0.087
1.630,-0.106
1.635,-0.123
1.640,-0.131
1.645,-0.140
1.650,-0.148
1.655,-0.146
1.660,-0.139
1.665,-0.129
1.670,-0.112
1.675,-0.094
1.680,-0.073
1.685,-0.047
1.690,-0.029
1.695,-0.017
1.700,0.000
1.705,0.014
1.710,0.019
1.715,0.024
1.720,0.032
1.725,0.037
1.730,0.037
1.735,0.037
1.740,0.032
1.745,0.026
1.750,0.029
1.755,0.032
1.760,0.030
1.765,0.028
1.770,0.029
1.775,0.028
1.780,0.026
1.785,0.029
1.790,0.030
1.795,0.025
1.800,0.023
1.805,0.026
1.810,0.020
1.815,0.011
1.820,0.004
1.825,-0.019
1.830,-0.046
1.835,-0.059
1.840,-0.067
1.845,-0.074
1.850,-0.077
1.855,-0.087
1.860,-0.102
1.865,-0.118
1.870,-0.125
1.875,-0.114
1.880,-0.095
1.885,-0.076
1.890,-0.057
1.895,-0.046
1.900,-0.024
1.905,0.013
1.910,0.026
1.915,0.024
1.920,0.041
1.925,0.062
1.930,0.079
1.935,0.096
1.940,0.099
1.945,0.092
1.950,0.088
1.955,0.082
1.960,0.071
1.965,0.064
1.970,0.060
1.975,0.051
1.980,0.043
1.985,0.042
1.990,0.041
1.995,0.040
2.000,0.038
2.005,-0.024
2.010,-0.179
2.015,-0.399
2.020,-0.666
2.025,-0.933
2.030,-1.141
2.035,-1.246
2.040,-1.249
2.045,-1.114
2.050,-0.686
2.055,-0.052
2.060,0.382
2.065,0.498
2.070,0.514
2.075,0.498
2.080,0.465
2.085,0.454
2.090,0.438
2.095,0.418
2.100,0.402
2.105,0.386
2.110,0.367
2.115,0.348
2.120,0.335
2.125,0.314
2.130,0.293
2.135,0.279
2.140,0.262
2.145,0.242
2.150,0.229
2.155,0.217
2.160,0.201
2.165,0.186
2.170,0.173
2.175,0.157
2.180,0.143
2.185,0.131
2.190,0.116
2.195,0.098
2.200,0.084
2.205,0.073
2.210,0.054
2.215,0.035
2.220,0.025
2.225,0.007
2.230,-0.013
2.235,-0.025
2.240,-0.040
2.245,-0.061
2.250,-0.079
2.255,-0.090
2.260,-0.107
2.265,-0.122
2.270,-0.129
2.275,-0.142
2.280,-0.152
2.285,-0.147
2.290,-0.135
2.295,-0.118
2.300,-0.097
2.305,-0.076
2.310,-0.059
2.315,-0.043
2.320,-0.021
2.325,-0.004
2.330,0.004
2.335,0.014
2.340,0.023
2.345,0.026
2.350,0.030
2.355,0.030
2.360,0.026
2.365,0.028
2.370,0.033
2.375,0.035
2.380,0.033
2.385,0.032
2.390,0.036
2.395,0.036
2.400,0.034
2.405,0.033
2.410,0.031
2.415,0.032
2.420,0.035
2.425,0.035
2.430,0.030
2.435,0.025
2.440,0.017
2.445,0.000
2.450,-0.017
2.455,-0.033
2.460,-0.048
2.465,-0.055
2.470,-0.058
2.475,-0.067
2.480,-0.084
2.485,-0.102
2.490,-0.118
2.495,-0.129
2.500,-0.116
2.505,-0.095
2.510,-0.083
2.515,-0.066
2.520,-0.047
2.525,-0.029
2.530,-0.001
2.535,0.025
2.540,0.038
2.545,0.049
2.550,0.064
2.555,0.082
2.560,0.092
2.565,0.092
2.570,0.090
2.575,0.082
2.580,0.070
2.585,0.064
2.590,0.057
2.595,0.047
2.600,0.043
2.605,0.044
2.610,0.035
2.615,0.026
2.620,0.035
2.625,0.040
2.630,-0.024
2.635,-0.184
2.640,-0.412
2.645,-0.702
2.650,-0.985
2.655,-1.175
2.660,-1.258
2.665,-1.253
2.670,-1.104
2.675,-0.650
2.680,-0.004
2.685,0.418
2.690,0.516
2.695,0.517
2.700,0.486
2.705,0.450
2.710,0.444
2.715,0.430
2.720,0.418
2.725,0.401
2.730,0.372
2.735,0.354
2.740,0.341
2.745,0.320
2.750,0.307
2.755,0.295
2.760,0.272
2.765,0.254
2.770,0.248
2.775,0.229
2.780,0.204
2.785,0.194
2.790,0.189
2.795,0.173
2.800,0.156
2.805,0.138
2.810,0.126
2.815,0.116
2.820,0.095
2.825,0.073
2.830,0.058
2.835,0.046
2.840,0.028
2.845,0.007
2.850,-0.008
2.855,-0.020
2.860,-0.040
2.865,-0.057
2.870,-0.071
2.875,-0.089
2.880,-0.102
2.885,-0.108
2.890,-0.122
2.895,-0.146
2.900,-0.157
2.905,-0.151
2.910,-0.143
2.915,-0.132
2.920,-0.111
2.925,-0.089
2.930,-0.068
2.935,-0.043
2.940,-0.020
2.945,-0.009
2.950,0.004
2.955,0.027
2.960,0.043
2.965,0.050
2.970,0.061
2.975,0.057
2.980,0.044
2.985,0.044
2.990,0.049
2.995,0.051
3.000,0.049
3.005,0.049
3.010,0.049
3.015,0.051
3.020,0.056
3.025,0.046
3.030,0.039
3.035,0.045
3.040,0.041
3.045,0.041
3.050,0.051
3.055,0.049
3.060,0.031
3.065,0.019
3.070,0.006
3.075,-0.024
3.080,-0.051
3.085,-0.058
3.090,-0.072
3.095,-0.089
3.100,-0.080
3.105,-0.084
3.110,-0.118
3.115,-0.137
3.120,-0.131
3.125,-0.129
3.130,-0.129
3.135,-0.104
3.140,-0.076
3.145,-0.059
3.150,-0.025
3.155,0.016
3.160,0.024
3.165,0.022
3.170,0.048
3.175,0.076
3.180,0.082
3.185,0.092
3.190,0.103
3.195,0.098
3.200,0.088
3.205,0.074
3.210,0.065
3.215,0.064
3.220,0.060
3.225,0.053
3.230,0.046
3.235,0.043
3.240,0.041
3.245,0.045
3.250,0.065
3.255,0.024
3.260,-0.142
3.265,-0.381
3.270,-0.657
3.275,-0.932
3.280,-1.152
3.285,-1.280
3.290,-1.315
3.295,-1.154
3.300,-0.647
3.305,0.016
3.310,0.439
3.315,0.555
3.320,0.545
3.325,0.487
3.330,0.449
3.335,0.448
3.340,0.428
3.345,0.404
3.350,0.393
3.355,0.378
3.360,0.356
3.365,0.337
3.370,0.324
3.375,0.306
3.380,0.287
3.385,0.272
3.390,0.258
3.395,0.237
3.400,0.210
3.405,0.196
3.410,0.187
3.415,0.177
3.420,0.171
3.425,0.156
3.430,0.133
3.435,0.118
3.440,0.106
3.445,0.089
3.450,0.075
3.455,0.063
3.460,0.046
3.465,0.031
3.470,0.018
3.475,-0.002
3.480,-0.020
3.485,-0.035
3.490,-0.057
3.495,-0.079
3.500,-0.088
3.505,-0.092
3.510,-0.110
3.515,-0.127
3.520,-0.128
3.525,-0.137
3.530,-0.150
3.535,-0.145
3.540,-0.130
3.545,-0.117
3.550,-0.093
3.555,-0.073
3.560,-0.068
3.565,-0.045
3.570,-0.020
3.575,-0.012
3.580,-0.001
3.585,0.034
3.590,0.073
3.595,0.039
3.600,-0.015
3.605,0.003
3.610,0.017
3.615,0.017
3.620,0.034
3.625,0.033
3.630,0.026
3.635,0.030
3.640,0.030
3.645,0.024
3.650,0.022
3.655,0.019
3.660,0.015
3.665,0.013
3.670,0.021
3.675,0.026
3.680,0.023
3.685,0.025
3.690,0.023
3.695,0.009
3.700,-0.016
3.705,-0.049
3.710,-0.068
3.715,-0.069
3.720,-0.067
3.725,-0.073
3.730,-0.092
3.735,-0.104
3.740,-0.112
3.745,-0.137
3.750,-0.141
3.755,-0.119
3.760,-0.098
3.765,-0.077
3.770,-0.068
3.775,-0.055
3.780,-0.008
3.785,0.030
3.790,0.032
3.795,0.044
3.800,0.076
3.805,0.095
3.810,0.098
3.815,0.108
3.820,0.108
3.825,0.097
3.830,0.091
3.835,0.086
3.840,0.089
3.845,0.087
3.850,0.073
3.855,0.054
3.860,0.043
3.865,0.048
3.870,0.053
3.875,0.062
3.880,0.045
3.885,-0.061
3.890,-0.255
3.895,-0.522
3.900,-0.816
3.905,-1.061
3.910,-1.221
3.915,-1.267
3.920,-1.194
3.925,-0.881
3.930,-0.259
3.935,0.311
3.940,0.534
3.945,0.552
3.950,0.511
3.955,0.453
3.960,0.431
3.965,0.425
3.970,0.417
3.975,0.402
3.980,0.376
3.985,0.364
3.990,0.351
3.995,0.331
4.000,0.314
4.005,0.294
4.010,0.279
4.015,0.268
4.020,0.246
4.025,0.228
4.030,0.215
4.035,0.204
4.040,0.201
4.045,0.175
4.050,0.135
4.055,0.128
4.060,0.123
4.065,0.108
4.070,0.097
4.075,0.079
4.080,0.077
4.085,0.067
4.090,0.025
4.095,0.000
4.100,-0.006
4.105,-0.020
4.110,-0.038
4.115,-0.053
4.120,-0.075
4.125,-0.096
4.130,-0.102
4.135,-0.108
4.140,-0.126
4.145,-0.144
4.150,-0.150
4.155,-0.150
4.160,-0.153
4.165,-0.154
4.170,-0.146
4.175,-0.124
4.180,-0.094
4.185,-0.065
4.190,-0.041
4.195,-0.026
4.200,-0.013
4.205,0.001
4.210,0.009
4.215,0.019
4.220,0.029
4.225,0.030
4.230,0.027
4.235,0.030
4.240,0.032
4.245,0.031
4.250,0.034
4.255,0.032
4.260,0.027
4.265,0.027
4.270,0.034
4.275,0.043
4.280,0.040
4.285,0.026
4.290,0.020
4.295,0.027
4.300,0.035
4.305,0.030
4.310,0.016
4.315,0.002
4.320,-0.014
4.325,-0.037
4.330,-0.057
4.335,-0.063
4.340,-0.073
4.345,-0.084
4.350,-0.090
4.355,-0.109
4.360,-0.131
4.365,-0.136
4.370,-0.120
4.375,-0.105
4.380,-0.089
4.385,-0.059
4.390,-0.040
4.395,-0.030
4.400,-0.005
4.405,0.019
4.410,0.028
4.415,0.048
4.420,0.073
4.425,0.081
4.430,0.090
4.435,0.102
4.440,0.103
4.445,0.095
4.450,0.091
4.455,0.095
4.460,0.096
4.465,0.081
4.470,0.066
4.475,0.062
4.480,0.043
4.485,0.034
4.490,0.047
4.495,0.057
4.500,0.031
4.505,-0.093
4.510,-0.309
4.515,-0.580
4.520,-0.864
4.525,-1.109
4.530,-1.261
4.535,-1.292
4.540,-1.185
4.545,-0.790
4.550,-0.132
4.555,0.377
4.560,0.540
4.565,0.554
4.570,0.516
4.575,0.455
4.580,0.433
4.585,0.433
4.590,0.418
4.595,0.388
4.600,0.367
4.605,0.359
4.610,0.341
4.615,0.317
4.620,0.308
4.625,0.293
4.630,0.262
4.635,0.238
4.640,0.225
4.645,0.217
4.650,0.212
4.655,0.200
4.660,0.180
4.665,0.166
4.670,0.149
4.675,0.137
4.680,0.131
4.685,0.117
4.690,0.097
4.695,0.069
4.700,0.044
4.705,0.050
4.710,0.052
4.715,0.023
4.720,-0.003
4.725,-0.027
4.730,-0.052
4.735,-0.056
4.740,-0.066
4.745,-0.090
4.750,-0.095
4.755,-0.093
4.760,-0.102
4.765,-0.116
4.770,-0.134
4.775,-0.151
4.780,-0.152
4.785,-0.132
4.790,-0.109
4.795,-0.089
4.800,-0.072
4.805,-0.060
4.810,-0.059
4.815,-0.048
4.820,-0.021
4.825,-0.001
4.830,0.018
4.835,0.030
4.840,0.023
4.845,0.016
4.850,0.024
4.855,0.036
4.860,0.039
4.865,0.039
4.870,0.042
4.875,0.048
4.880,0.040
4.885,0.035
4.890,0.037
4.895,0.025
4.900,0.027
4.905,0.037
4.910,0.033
4.915,0.027
4.920,0.021
4.925,0.008
4.930,0.003
4.935,0.012
4.940,0.004
4.945,-0.030
4.950,-0.058
4.955,-0.062
4.960,-0.070
4.965,-0.084
4.970,-0.087
4.975,-0.095
4.980,-0.111
4.985,-0.126
4.990,-0.133
4.995,-0.124
5.000,-0.104
5.005,-0.082
5.010,-0.068
5.015,-0.054
5.020,-0.023
5.025,0.006
5.030,0.020
5.035,0.036
5.040,0.056
5.045,0.074
5.050,0.091
5.055,0.099
5.060,0.096
5.065,0.098
5.070,0.100
5.075,0.082
5.080,0.068
5.085,0.079
5.090,0.071
5.095,0.040
5.100,0.035
5.105,0.037
5.110,0.038
5.115,0.056
5.120,0.058
5.125,-0.029
5.130,-0.200
5.135,-0.413
5.140,-0.692
5.145,-0.990
5.150,-1.200
5.155,-1.275
5.160,-1.255
5.165,-1.057
5.170,-0.529
5.175,0.099
5.180,0.450
5.185,0.536
5.190,0.521
5.195,0.461
5.200,0.441
5.205,0.452
5.210,0.430
5.215,0.402
5.220,0.387
5.225,0.369
5.230,0.350
5.235,0.347
5.240,0.335
5.245,0.301
5.250,0.282
5.255,0.288
5.260,0.279
5.265,0.238
5.270,0.209
5.275,0.202
5.280,0.187
5.285,0.170
5.290,0.163
5.295,0.146
5.300,0.133
5.305,0.127
5.310,0.107
5.315,0.091
5.320,0.085
5.325,0.066
5.330,0.047
5.335,0.038
5.340,0.016
5.345,-0.005
5.350,-0.006
5.355,-0.023
5.360,-0.061
5.365,-0.076
5.370,-0.079
5.375,-0.092
5.380,-0.105
5.385,-0.114
5.390,-0.128
5.395,-0.142
5.400,-0.141
5.405,-0.135
5.410,-0.133
5.415,-0.117
5.420,-0.095
5.425,-0.082
5.430,-0.068
5.435,-0.048
5.440,-0.031
5.445,-0.019
5.450,-0.003
5.455,0.006
5.460,0.006
5.465,0.013
5.470,0.024
5.475,0.025
5.480,0.022
5.485,0.024
5.490,0.024
5.495,0.020
5.500,0.023
5.505,0.025
5.510,0.020
5.515,0.022
5.520,0.026
5.525,0.021
5.530,0.020
5.535,0.023
5.540,0.021
5.545,0.017
5.550,0.015
5.555,0.009
5.560,-0.008
5.565,-0.028
5.570,-0.042
5.575,-0.056
5.580,-0.073
5.585,-0.080
5.590,-0.084
5.595,-0.101
5.600,-0.111
5.605,-0.119
5.610,-0.138
5.615,-0.134
5.620,-0.108
5.625,-0.086
5.630,-0.062
5.635,-0.039
5.640,-0.017
5.645,0.017
5.650,0.038
5.655,0.046
5.660,0.065
5.665,0.081
5.670,0.096
5.675,0.109
5.680,0.112
5.685,0.114
5.690,0.111
5.695,0.095
5.700,0.081
5.705,0.075
5.710,0.070
5.715,0.063
5.720,0.058
5.725,0.053
5.730,0.047
5.735,0.051
5.740,0.060
5.745,0.004
5.750,-0.143
5.755,-0.348
5.760,-0.621
5.765,-0.895
5.770,-1.101
5.775,-1.220
5.780,-1.255
5.785,-1.137
5.790,-0.717
5.795,-0.098
5.800,0.341
5.805,0.468
5.810,0.486
5.815,0.477
5.820,0.454
5.825,0.444
5.830,0.428
5.835,0.413
5.840,0.401
5.845,0.385
5.850,0.367
5.855,0.349
5.860,0.328
5.865,0.303
5.870,0.285
5.875,0.268
5.880,0.251
5.885,0.239
5.890,0.224
5.895,0.211
5.900,0.204
5.905,0.192
5.910,0.177
5.915,0.163
5.920,0.146
5.925,0.129
5.930,0.113
5.935,0.100
5.940,0.083
5.945,0.063
5.950,0.051
5.955,0.041
5.960,0.021
5.965,-0.005
5.970,-0.025
5.975,-0.043
5.980,-0.058
5.985,-0.063
5.990,-0.075
5.995,-0.099
6.000,-0.113
6.005,-0.125
6.010,-0.139
6.015,-0.148
6.020,-0.148
6.025,-0.143
6.030,-0.136
6.035,-0.118
6.040,-0.094
6.045,-0.074
6.050,-0.053
6.055,-0.037
6.060,-0.029
6.065,-0.014
6.070,0.007
6.075,0.021
6.080,0.026
6.085,0.032
6.090,0.035
6.095,0.036
6.100,0.042
6.105,0.048
6.110,0.046
6.115,0.040
6.120,0.038
6.125,0.033
6.130,0.023
6.135,0.032
6.140,0.048
6.145,0.049
6.150,0.044
6.155,0.040
6.160,0.044
6.165,0.041
6.170,0.031
6.175,0.022
6.180,0.002
6.185,-0.018
6.190,-0.034
6.195,-0.050
6.200,-0.058
6.205,-0.065
6.210,-0.079
6.215,-0.093
6.220,-0.105
6.225,-0.121
6.230,-0.130
6.235,-0.122
6.240,-0.102
6.245,-0.078
6.250,-0.057
6.255,-0.037
6.260,-0.014
6.265,0.011
6.270,0.031
6.275,0.046
6.280,0.064
6.285,0.083
6.290,0.097
6.295,0.100
6.300,0.100
6.305,0.106
6.310,0.107
6.315,0.096
6.320,0.081
6.325,0.065
6.330,0.057
6.335,0.055
6.340,0.048
6.345,0.045
6.350,0.049
6.355,0.050
6.360,0.054
6.365,0.001
6.370,-0.148
6.375,-0.376
6.380,-0.680
6.385,-0.975
6.390,-1.183
6.395,-1.281
6.400,-1.276
6.405,-1.083
6.410,-0.560
6.415,0.086
6.420,0.472
6.425,0.562
6.430,0.541
6.435,0.490
6.440,0.457
6.445,0.440
6.450,0.425
6.455,0.416
6.460,0.394
6.465,0.370
6.470,0.352
6.475,0.330
6.480,0.314
6.485,0.307
6.490,0.291
6.495,0.262
6.500,0.239
6.505,0.225
6.510,0.208
6.515,0.196
6.520,0.188
6.525,0.170
6.530,0.156
6.535,0.153
6.540,0.136
6.545,0.109
6.550,0.096
6.555,0.083
6.560,0.066
6.565,0.058
6.570,0.050
6.575,0.026
6.580,0.002
6.585,-0.012
6.590,-0.024
6.595,-0.036
6.600,-0.040
6.605,-0.051
6.610,-0.078
6.615,-0.097
6.620,-0.106
6.625,-0.124
6.630,-0.141
6.635,-0.143
6.640,-0.140
6.645,-0.138
6.650,-0.124
6.655,-0.104
6.660,-0.093
6.665,-0.082
6.670,-0.066
6.675,-0.042
6.680,-0.016
6.685,-0.003
6.690,-0.001
6.695,0.010
6.700,0.027
6.705,0.033
6.710,0.027
6.715,0.030
6.720,0.036
6.725,0.030
6.730,0.027
6.735,0.031
6.740,0.030
6.745,0.025
6.750,0.021
6.755,0.021
6.760,0.024
6.765,0.029
6.770,0.025
6.775,0.015
6.780,0.020
6.785,0.031
6.790,0.020
6.795,-0.006
6.800,-0.020
6.805,-0.032
6.810,-0.049
6.815,-0.057
6.820,-0.059
6.825,-0.072
6.830,-0.087
6.835,-0.102
6.840,-0.122
6.845,-0.131
6.850,-0.128
6.855,-0.117
6.860,-0.098
6.865,-0.081
6.870,-0.067
6.875,-0.045
6.880,-0.019
6.885,0.008
6.890,0.028
6.895,0.043
6.900,0.067
6.905,0.086
6.910,0.094
6.915,0.102
6.920,0.108
6.925,0.110
6.930,0.105
6.935,0.087
6.940,0.072
6.945,0.065
6.950,0.068
6.955,0.070
6.960,0.056
6.965,0.046
6.970,0.048
6.975,0.058
6.980,0.075
6.985,0.031
6.990,-0.122
6.995,-0.351
7.000,-0.633
7.005,-0.925
7.010,-1.178
7.015,-1.309
7.020,-1.293
7.025,-1.124
7.030,-0.663
7.035,-0.011
7.040,0.453
7.045,0.606
7.050,0.585
7.055,0.499
7.060,0.450
7.065,0.446
7.070,0.432
7.075,0.408
7.080,0.384
7.085,0.366
7.090,0.347
7.095,0.322
7.100,0.306
7.105,0.293
7.110,0.264
7.115,0.248
7.120,0.250
7.125,0.230
7.130,0.196
7.135,0.185
7.140,0.178
7.145,0.168
7.150,0.160
7.155,0.145
7.160,0.137
7.165,0.124
7.170,0.099
7.175,0.085
7.180,0.079
7.185,0.065
7.190,0.046
7.195,0.024
7.200,0.004
7.205,-0.010
7.210,-0.025
7.215,-0.037
7.220,-0.043
7.225,-0.055
7.230,-0.070
7.235,-0.087
7.240,-0.111
7.245,-0.122
7.250,-0.111
7.255,-0.114
7.260,-0.134
7.265,-0.135
7.270,-0.129
7.275,-0.123
7.280,-0.107
7.285,-0.080
7.290,-0.053
7.295,-0.042
7.300,-0.038
7.305,-0.027
7.310,-0.011
7.315,0.012
7.320,0.029
7.325,0.028
7.330,0.022
7.335,0.025
7.340,0.030
7.345,0.028
7.350,0.032
7.355,0.035
7.360,0.026
7.365,0.029
7.370,0.038
7.375,0.030
7.380,0.022
7.385,0.027
7.390,0.028
7.395,0.020
7.400,0.007
7.405,-0.006
7.410,-0.009
7.415,-0.002
7.420,0.003
7.425,-0.004
7.430,-0.029
7.435,-0.062
7.440,-0.084
7.445,-0.089
7.450,-0.075
7.455,-0.064
7.460,-0.090
7.465,-0.126
7.470,-0.139
7.475,-0.140
7.480,-0.131
7.485,-0.118
7.490,-0.092
7.495,-0.056
7.500,-0.038
7.505,-0.024
7.510,-0.001
7.515,0.015
7.520,0.031
7.525,0.054
7.530,0.076
7.535,0.104
7.540,0.118
7.545,0.102
7.550,0.082
7.555,0.071
7.560,0.073
7.565,0.086
7.570,0.075
7.575,0.055
7.580,0.054
7.585,0.046
7.590,0.039
7.595,0.034
7.600,0.034
7.605,0.042
7.610,-0.031
7.615,-0.203
7.620,-0.436
7.625,-0.735
7.630,-1.020
7.635,-1.207
7.640,-1.264
7.645,-1.209
7.650,-0.984
7.655,-0.464
7.660,0.164
7.665,0.536
7.670,0.600
7.675,0.542
7.680,0.474
7.685,0.443
7.690,0.428
7.695,0.403
7.700,0.389
7.705,0.378
7.710,0.361
7.715,0.345
7.720,0.327
7.725,0.309
7.730,0.290
7.735,0.266
7.740,0.243
7.745,0.228
7.750,0.219
7.755,0.210
7.760,0.191
7.765,0.174
7.770,0.169
7.775,0.161
7.780,0.144
7.785,0.130
7.790,0.117
7.795,0.100
7.800,0.094
7.805,0.087
7.810,0.063
7.815,0.042
7.820,0.027
7.825,0.011
7.830,-0.004
7.835,-0.016
7.840,-0.038
7.845,-0.059
7.850,-0.070
7.855,-0.084
7.860,-0.093
7.865,-0.099
7.870,-0.117
7.875,-0.138
7.880,-0.146
7.885,-0.141
7.890,-0.137
7.895,-0.130
7.900,-0.114
7.905,-0.096
7.910,-0.077
7.915,-0.052
7.920,-0.032
7.925,-0.025
7.930,-0.005
7.935,0.023
7.940,0.028
7.945,0.023
7.950,0.025
7.955,0.033
7.960,0.039
7.965,0.039
7.970,0.038
7.975,0.036
7.980,0.029
7.985,0.023
7.990,0.021
7.995,0.027
8.000,0.038
8.005,0.041
8.010,0.033
8.015,0.025
8.020,0.027
8.025,0.023
8.030,0.016
8.035,0.019
8.040,0.013
8.045,0.000
8.050,-0.006
8.055,-0.026
8.060,-0.051
8.065,-0.062
8.070,-0.069
8.075,-0.076
8.080,-0.080
8.085,-0.096
8.090,-0.118
8.095,-0.134
8.100,-0.135
8.105,-0.120
8.110,-0.102
8.115,-0.082
8.120,-0.062
8.125,-0.045
8.130,-0.011
8.135,0.021
8.140,0.026
8.145,0.032
8.150,0.057
8.155,0.082
8.160,0.094
8.165,0.102
8.170,0.109
8.175,0.104
8.180,0.091
8.185,0.082
8.190,0.074
8.195,0.065
8.200,0.062
8.205,0.057
8.210,0.045
8.215,0.040
8.220,0.043
8.225,0.050
8.230,0.041
8.235,-0.049
8.240,-0.228
8.245,-0.477
8.250,-0.771
8.255,-1.025
8.260,-1.190
8.265,-1.240
8.270,-1.189
8.275,-0.969
8.280,-0.444
8.285,0.178
8.290,0.520
8.295,0.573
8.300,0.541
8.305,0.490
8.310,0.449
8.315,0.435
8.320,0.419
8.325,0.400
8.330,0.380
8.335,0.362
8.340,0.340
8.345,0.318
8.350,0.305
8.355,0.289
8.360,0.273
8.365,0.262
8.370,0.243
8.375,0.220
8.380,0.204
8.385,0.191
8.390,0.171
8.395,0.156
8.400,0.153
8.405,0.143
8.410,0.124
8.415,0.113
8.420,0.102
8.425,0.083
8.430,0.067
8.435,0.060
8.440,0.045
8.445,0.021
8.450,-0.002
8.455,-0.021
8.460,-0.038
8.465,-0.054
8.470,-0.068
8.475,-0.081
8.480,-0.097
8.485,-0.111
8.490,-0.125
8.495,-0.142
8.500,-0.154
8.505,-0.161
8.510,-0.165
8.515,-0.157
8.520,-0.141
8.525,-0.123
8.530,-0.097
8.535,-0.068
8.540,-0.045
8.545,-0.026
8.550,-0.007
8.555,0.010
8.560,0.019
8.565,0.029
8.570,0.037
8.575,0.036
8.580,0.036
8.585,0.037
8.590,0.035
8.595,0.038
8.600,0.046
8.605,0.052
8.610,0.048
8.615,0.045
8.620,0.048
8.625,0.043
8.630,0.043
8.635,0.047
8.640,0.041
8.645,0.030
8.650,0.030
8.655,0.032
8.660,0.028
8.665,0.027
8.670,0.026
8.675,0.009
8.680,-0.014
8.685,-0.032
8.690,-0.048
8.695,-0.058
8.700,-0.058
8.705,-0.068
8.710,-0.094
8.715,-0.112
8.720,-0.122
8.725,-0.130
8.730,-0.124
8.735,-0.106
8.740,-0.089
8.745,-0.071
8.750,-0.054
8.755,-0.032
8.760,-0.001
8.765,0.028
8.770,0.043
8.775,0.051
8.780,0.069
8.785,0.094
8.790,0.105
8.795,0.101
8.800,0.098
8.805,0.092
8.810,0.085
8.815,0.085
8.820,0.083
8.825,0.071
8.830,0.060
8.835,0.052
8.840,0.040
8.845,0.033
8.850,0.039
8.855,0.037
8.860,-0.028
8.865,-0.175
8.870,-0.389
8.875,-0.666
8.880,-0.934
8.885,-1.118
8.890,-1.208
8.895,-1.218
8.900,-1.096
8.905,-0.671
8.910,-0.021
8.915,0.426
8.920,0.529
8.925,0.518
8.930,0.484
8.935,0.443
8.940,0.430
8.945,0.414
8.950,0.403
8.955,0.391
8.960,0.362
8.965,0.338
8.970,0.322
8.975,0.301
8.980,0.281
8.985,0.271
8.990,0.256
8.995,0.236
9.000,0.223
9.005,0.210
9.010,0.194
9.015,0.182
9.020,0.172
9.025,0.160
9.030,0.146
9.035,0.131
9.040,0.110
9.045,0.089
9.050,0.079
9.055,0.069
9.060,0.051
9.065,0.037
9.070,0.024
9.075,0.005
9.080,-0.013
9.085,-0.028
9.090,-0.050
9.095,-0.064
9.100,-0.070
9.105,-0.088
9.110,-0.117
9.115,-0.132
9.120,-0.138
9.125,-0.152
9.130,-0.158
9.135,-0.150
9.140,-0.143
9.145,-0.130
9.150,-0.111
9.155,-0.096
9.160,-0.075
9.165,-0.050
9.170,-0.030
9.175,-0.014
9.180,-0.002
9.185,0.015
9.190,0.032
9.195,0.037
9.200,0.038
9.205,0.042
9.210,0.042
9.215,0.044
9.220,0.045
9.225,0.036
9.230,0.037
9.235,0.049
9.240,0.051
9.245,0.047
9.250,0.046
9.255,0.046
9.260,0.043
9.265,0.042
9.270,0.038
9.275,0.036
9.280,0.039
9.285,0.038
9.290,0.028
9.295,0.028
9.300,0.032
9.305,0.008
9.310,-0.025
9.315,-0.041
9.320,-0.056
9.325,-0.072
9.330,-0.080
9.335,-0.084
9.340,-0.093
9.345,-0.102
9.350,-0.110
9.355,-0.119
9.360,-0.113
9.365,-0.092
9.370,-0.075
9.375,-0.066
9.380,-0.049
9.385,-0.012
9.390,0.024
9.395,0.040
9.400,0.051
9.405,0.068
9.410,0.080
9.415,0.091
9.420,0.104
9.425,0.103
9.430,0.099
9.435,0.096
9.440,0.085
9.445,0.075
9.450,0.072
9.455,0.066
9.460,0.052
9.465,0.048
9.470,0.048
9.475,0.040
9.480,0.043
9.485,0.039
9.490,-0.048
9.495,-0.222
9.500,-0.448
9.505,-0.716
9.510,-0.970
9.515,-1.149
9.520,-1.220
9.525,-1.212
9.530,-1.032
9.535,-0.523
9.540,0.096
9.545,0.434
9.550,0.503
9.555,0.513
9.560,0.486
9.565,0.455
9.570,0.449
9.575,0.431
9.580,0.414
9.585,0.398
9.590,0.376
9.595,0.353
9.600,0.337
9.605,0.320
9.610,0.302
9.615,0.288
9.620,0.273
9.625,0.253
9.630,0.235
9.635,0.220
9.640,0.204
9.645,0.187
9.650,0.174
9.655,0.161
9.660,0.144
9.665,0.134
9.670,0.129
9.675,0.111
9.680,0.086
9.685,0.078
9.690,0.067
9.695,0.046
9.700,0.031
9.705,0.014
9.710,-0.008
9.715,-0.021
9.720,-0.030
9.725,-0.046
9.730,-0.062
9.735,-0.080
9.740,-0.098
9.745,-0.113
9.750,-0.126
9.755,-0.141
9.760,-0.149
9.765,-0.147
9.770,-0.141
9.775,-0.136
9.780,-0.128
9.785,-0.110
9.790,-0.087
9.795,-0.065
9.800,-0.044
9.805,-0.025
9.810,-0.016
9.815,-0.003
9.820,0.010
9.825,0.009
9.830,0.015
9.835,0.023
9.840,0.023
9.845,0.020
9.850,0.025
9.855,0.034
9.860,0.028
9.865,0.023
9.870,0.035
9.875,0.029
9.880,0.019
9.885,0.023
9.890,0.022
9.895,0.024
9.900,0.030
9.905,0.028
9.910,0.023
9.915,0.024
9.920,0.028
9.925,0.023
9.930,0.013
9.935,0.000
9.940,-0.028
9.945,-0.056
9.950,-0.058
9.955,-0.060
9.960,-0.069
9.965,-0.080
9.970,-0.106
9.975,-0.125
9.980,-0.130
9.985,-0.132
9.990,-0.124
9.995,-0.110
10.000,-0.094
10.005,-0.076
10.010,-0.060
10.015,-0.029
10.020,0.008
10.025,0.023
10.030,0.036
10.035,0.059
10.040,0.066
10.045,0.082
10.050,0.115
10.055,0.118
10.060,0.099
10.065,0.096
10.070,0.094
10.075,0.076
10.080,0.065
10.085,0.063
10.090,0.061
10.095,0.057
10.100,0.051
10.105,0.049
10.110,0.046
10.115,0.042
10.120,-0.013
10.125,-0.166
10.130,-0.380
10.135,-0.656
10.140,-0.947
10.145,-1.154
10.150,-1.233
10.155,-1.228
10.160,-1.102
10.165,-0.657
10.170,0.007
10.175,0.432
10.180,0.521
10.185,0.524
10.190,0.495
10.195,0.452
10.200,0.447
10.205,0.443
10.210,0.426
10.215,0.400
10.220,0.374
10.225,0.355
10.230,0.339
10.235,0.328
10.240,0.310
10.245,0.287
10.250,0.272
10.255,0.259
10.260,0.243
10.265,0.227
10.270,0.216
10.275,0.196
10.280,0.179
10.285,0.178
10.290,0.165
10.295,0.139
10.300,0.123
10.305,0.115
10.310,0.097
10.315,0.072
10.320,0.060
10.325,0.048
10.330,0.029
10.335,0.031
10.340,0.019
10.345,-0.028
10.350,-0.051
10.355,-0.058
10.360,-0.080
10.365,-0.105
10.370,-0.108
10.375,-0.108
10.380,-0.123
10.385,-0.140
10.390,-0.147
10.395,-0.151
10.400,-0.156
10.405,-0.144
10.410,-0.127
10.415,-0.115
10.420,-0.100
10.425,-0.082
10.430,-0.051
10.435,-0.025
10.440,-0.014
10.445,0.005
10.450,0.019
10.455,0.022
10.460,0.035
10.465,0.041
10.470,0.034
10.475,0.034
10.480,0.041
10.485,0.048
10.490,0.049
10.495,0.047
10.500,0.045
10.505,0.043
10.510,0.039
10.515,0.024
10.520,0.020
10.525,0.042
10.530,0.062
10.535,0.063
10.540,0.049
10.545,0.031
10.550,0.016
10.555,0.004
10.560,0.004
10.565,0.001
10.570,-0.025
10.575,-0.054
10.580,-0.064
10.585,-0.071
10.590,-0.080
10.595,-0.088
10.600,-0.108
10.605,-0.117
10.610,-0.109
10.615,-0.119
10.620,-0.131
10.625,-0.130
10.630,-0.111
10.635,-0.070
10.640,-0.039
10.645,-0.015
10.650,0.016
10.655,0.024
10.660,0.027
10.665,0.051
10.670,0.081
10.675,0.100
10.680,0.100
10.685,0.106
10.690,0.116
10.695,0.113
10.700,0.100
10.705,0.082
10.710,0.062
10.715,0.051
10.720,0.058
10.725,0.060
10.730,0.051
10.735,0.045
10.740,0.052
10.745,0.070
10.750,0.038
10.755,-0.105
10.760,-0.331
10.765,-0.611
10.770,-0.909
10.775,-1.161
10.780,-1.296
10.785,-1.303
10.790,-1.148
10.795,-0.682
10.800,-0.015
10.805,0.451
10.810,0.587
10.815,0.562
10.820,0.501
10.825,0.468
10.830,0.450
10.835,0.425
10.840,0.404
10.845,0.379
10.850,0.366
10.855,0.351
10.860,0.321
10.865,0.296
10.870,0.279
10.875,0.268
10.880,0.266
10.885,0.254
10.890,0.221
10.895,0.200
10.900,0.189
10.905,0.172
10.910,0.165
10.915,0.165
10.920,0.150
10.925,0.132
10.930,0.114
10.935,0.102
10.940,0.095
10.945,0.077
10.950,0.059
10.955,0.043
10.960,0.024
10.965,0.008
10.970,0.000
10.975,-0.012
10.980,-0.032
10.985,-0.049
10.990,-0.068
10.995,-0.078
11.000,-0.066
11.005,-0.077
11.010,-0.110
11.015,-0.115
11.020,-0.116
11.025,-0.136
11.030,-0.145
11.035,-0.129
11.040,-0.114
11.045,-0.096
11.050,-0.079
11.055,-0.070
11.060,-0.050
11.065,-0.034
11.070,-0.023
11.075,-0.009
11.080,0.005
11.085,0.017
11.090,0.015
11.095,0.015
11.100,0.033
11.105,0.044
11.110,0.040
11.115,0.037
11.120,0.037
11.125,0.032
11.130,0.033
11.135,0.039
11.140,0.032
11.145,0.020
11.150,0.019
11.155,0.013
11.160,0.002
11.165,-0.003
11.170,-0.001
11.175,-0.006
11.180,-0.008
11.185,-0.002
11.190,-0.010
11.195,-0.024
11.200,-0.044
11.205,-0.073
11.210,-0.086
11.215,-0.073
11.220,-0.062
11.225,-0.075
11.230,-0.086
11.235,-0.091
11.240,-0.109
11.245,-0.127
11.250,-0.122
11.255,-0.105
11.260,-0.089
11.265,-0.068
11.270,-0.062
11.275,-0.045
11.280,-0.004
11.285,0.020
11.290,0.027
11.295,0.049
11.300,0.082
11.305,0.102
11.310,0.105
11.315,0.107
11.320,0.115
11.325,0.110
11.330,0.095
11.335,0.085
11.340,0.062
11.345,0.051
11.350,0.065
11.355,0.072
11.360,0.058
11.365,0.048
11.370,0.052
11.375,0.057
11.380,0.012
11.385,-0.127
11.390,-0.345
11.395,-0.628
11.400,-0.918
11.405,-1.152
11.410,-1.272
11.415,-1.254
11.420,-1.087
11.425,-0.640
11.430,0.009
11.435,0.472
11.440,0.598
11.445,0.563
11.450,0.494
11.455,0.443
11.460,0.428
11.465,0.419
11.470,0.412
11.475,0.397
11.480,0.372
11.485,0.350
11.490,0.329
11.495,0.311
11.500,0.293
11.505,0.267
11.510,0.241
11.515,0.230
11.520,0.219
11.525,0.205
11.530,0.194
11.535,0.180
11.540,0.170
11.545,0.158
11.550,0.142
11.555,0.131
11.560,0.110
11.565,0.088
11.570,0.081
11.575,0.071
11.580,0.058
11.585,0.045
11.590,0.025
11.595,0.009
11.600,-0.006
11.605,-0.023
11.610,-0.035
11.615,-0.041
11.620,-0.055
11.625,-0.079
11.630,-0.097
11.635,-0.105
11.640,-0.113
11.645,-0.124
11.650,-0.128
11.655,-0.133
11.660,-0.143
11.665,-0.136
11.670,-0.117
11.675,-0.100
11.680,-0.083
11.685,-0.059
11.690,-0.038
11.695,-0.026
11.700,-0.015
11.705,-0.010
11.710,-0.004
11.715,0.011
11.720,0.025
11.725,0.033
11.730,0.040
11.735,0.037
11.740,0.026
11.745,0.018
11.750,0.017
11.755,0.024
11.760,0.026
11.765,0.028
11.770,0.033
11.775,0.023
11.780,0.017
11.785,0.026
11.790,0.026
11.795,0.019
11.800,0.014
11.805,0.006
11.810,0.004
11.815,0.007
11.820,-0.006
11.825,-0.025
11.830,-0.035
11.835,-0.049
11.840,-0.067
11.845,-0.078
11.850,-0.088
11.855,-0.091
11.860,-0.088
11.865,-0.096
11.870,-0.121
11.875,-0.137
11.880,-0.121
11.885,-0.098
11.890,-0.081
11.895,-0.061
11.900,-0.046
11.905,-0.028
11.910,0.003
11.915,0.022
11.920,0.027
11.925,0.044
11.930,0.068
11.935,0.088
11.940,0.102
11.945,0.100
11.950,0.104
11.955,0.096
11.960,0.062
11.965,0.061
11.970,0.076
11.975,0.066
11.980,0.061
11.985,0.062
11.990,0.049
11.995,0.037
12.000,0.038
12.005,0.043
12.010,-0.010
12.015,-0.158
12.020,-0.385
12.025,-0.672
12.030,-0.951
12.035,-1.158
12.040,-1.246
12.045,-1.224
12.050,-1.062
12.055,-0.614
12.060,0.026
12.065,0.464
12.070,0.572
12.075,0.549
12.080,0.496
12.085,0.447
12.090,0.428
12.095,0.420
12.100,0.409
12.105,0.383
12.110,0.361
12.115,0.349
12.120,0.334
12.125,0.309
12.130,0.286
12.135,0.271
12.140,0.248
12.145,0.225
12.150,0.216
12.155,0.209
12.160,0.196
12.165,0.184
12.170,0.172
12.175,0.153
12.180,0.143
12.185,0.132
12.190,0.112
12.195,0.096
12.200,0.087
12.205,0.073
12.210,0.055
12.215,0.041
12.220,0.030
12.225,0.007
12.230,-0.015
12.235,-0.022
12.240,-0.035
12.245,-0.055
12.250,-0.065
12.255,-0.077
12.260,-0.096
12.265,-0.109
12.270,-0.121
12.275,-0.136
12.280,-0.145
12.285,-0.144
12.290,-0.141
12.295,-0.133
12.300,-0.118
12.305,-0.097
12.310,-0.079
12.315,-0.059
12.320,-0.035
12.325,-0.017
12.330,-0.001
12.335,0.010
12.340,0.021
12.345,0.032
12.350,0.038
12.355,0.040
12.360,0.042
12.365,0.045
12.370,0.049
12.375,0.040
12.380,0.034
12.385,0.038
12.390,0.030
12.395,0.029
12.400,0.042
12.405,0.045
12.410,0.036
12.415,0.030
12.420,0.031
12.425,0.035
12.430,0.038
12.435,0.037
12.440,0.034
12.445,0.028
12.450,0.015
12.455,0.003
12.460,-0.011
12.465,-0.030
12.470,-0.050
12.475,-0.061
12.480,-0.065
12.485,-0.070
12.490,-0.084
12.495,-0.101
12.500,-0.106
12.505,-0.118
12.510,-0.130
12.515,-0.110
12.520,-0.083
12.525,-0.072
12.530,-0.056
12.535,-0.030
12.540,-0.004
12.545,0.020
12.550,0.036
12.555,0.048
12.560,0.062
12.565,0.078
12.570,0.097
12.575,0.101
12.580,0.094
12.585,0.093
12.590,0.085
12.595,0.076
12.600,0.074
12.605,0.067
12.610,0.054
12.615,0.050
12.620,0.049
12.625,0.039
12.630,0.038
12.635,0.048
12.640,0.031
12.645,-0.071
12.650,-0.253
12.655,-0.503
12.660,-0.795
12.665,-1.032
12.670,-1.180
12.675,-1.227
12.680,-1.177
12.685,-0.935
12.690,-0.373
12.695,0.227
12.700,0.502
12.705,0.534
12.710,0.514
12.715,0.477
12.720,0.443
12.725,0.421
12.730,0.410
12.735,0.399
12.740,0.374
12.745,0.354
12.750,0.341
12.755,0.326
12.760,0.311
12.765,0.292
12.770,0.276
12.775,0.259
12.780,0.241
12.785,0.230
12.790,0.220
12.795,0.199
12.800,0.182
12.805,0.176
12.810,0.161
12.815,0.143
12.820,0.130
12.825,0.115
12.830,0.105
12.835,0.089
12.840,0.067
12.845,0.057
12.850,0.047
12.855,0.029
12.860,0.011
12.865,-0.004
12.870,-0.020
12.875,-0.042
12.880,-0.057
12.885,-0.065
12.890,-0.083
12.895,-0.101
12.900,-0.112
12.905,-0.126
12.910,-0.139
12.915,-0.144
12.920,-0.143
12.925,-0.142
12.930,-0.129
12.935,-0.110
12.940,-0.099
12.945,-0.080
12.950,-0.052
12.955,-0.033
12.960,-0.021
12.965,-0.004
12.970,0.011
12.975,0.016
12.980,0.022
12.985,0.029
12.990,0.030
12.995,0.030
13.000,0.033
13.005,0.034
13.010,0.032
13.015,0.032
13.020,0.032
13.025,0.033
13.030,0.035
13.035,0.036
13.040,0.033
13.045,0.028
13.050,0.031
13.055,0.036
13.060,0.030
13.065,0.026
13.070,0.031
13.075,0.028
13.080,0.022
13.085,0.015
13.090,-0.009
13.095,-0.035
13.100,-0.049
13.105,-0.063
13.110,-0.079
13.115,-0.080
13.120,-0.081
13.125,-0.102
13.130,-0.117
13.135,-0.119
13.140,-0.122
13.145,-0.112
13.150,-0.088
13.155,-0.068
13.160,-0.055
13.165,-0.039
13.170,-0.012
13.175,0.014
13.180,0.027
13.185,0.043
13.190,0.060
13.195,0.069
13.200,0.086
13.205,0.096
13.210,0.090
13.215,0.089
13.220,0.086
13.225,0.071
13.230,0.061
13.235,0.065
13.240,0.062
13.245,0.055
13.250,0.052
13.255,0.046
13.260,0.040
13.265,0.046
13.270,0.032
13.275,-0.071
13.280,-0.247
13.285,-0.473
13.290,-0.749
13.295,-0.995
13.300,-1.158
13.305,-1.219
13.310,-1.186
13.315,-0.960
13.320,-0.420
13.325,0.169
13.330,0.455
13.335,0.506
13.340,0.505
13.345,0.469
13.350,0.447
13.355,0.439
13.360,0.413
13.365,0.400
13.370,0.389
13.375,0.367
13.380,0.346
13.385,0.330
13.390,0.312
13.395,0.292
13.400,0.276
13.405,0.262
13.410,0.250
13.415,0.232
13.420,0.215
13.425,0.198
13.430,0.179
13.435,0.165
13.440,0.152
13.445,0.142
13.450,0.132
13.455,0.112
13.460,0.099
13.465,0.090
13.470,0.071
13.475,0.052
13.480,0.040
13.485,0.021
13.490,-0.003
13.495,-0.018
13.500,-0.029
13.505,-0.047
13.510,-0.064
13.515,-0.075
13.520,-0.090
13.525,-0.112
13.530,-0.126
13.535,-0.131
13.540,-0.141
13.545,-0.152
13.550,-0.154
13.555,-0.150
13.560,-0.140
13.565,-0.120
13.570,-0.098
13.575,-0.079
13.580,-0.058
13.585,-0.037
13.590,-0.022
13.595,-0.006
13.600,0.012
13.605,0.020
13.610,0.020
13.615,0.026
13.620,0.030
13.625,0.031
13.630,0.036
13.635,0.039
13.640,0.032
13.645,0.024
13.650,0.025
13.655,0.033
13.660,0.033
13.665,0.034
13.670,0.040
13.675,0.041
13.680,0.044
13.685,0.045
13.690,0.042
13.695,0.041
13.700,0.041
13.705,0.036
13.710,0.034
13.715,0.030
13.720,0.016
13.725,-0.004
13.730,-0.027
13.735,-0.049
13.740,-0.072
13.745,-0.087
13.750,-0.084
13.755,-0.082
13.760,-0.097
13.765,-0.114
13.770,-0.126
13.775,-0.140
13.780,-0.129
13.785,-0.100
13.790,-0.088
13.795,-0.074
13.800,-0.048
13.805,-0.026
13.810,0.000
13.815,0.029
13.820,0.049
13.825,0.067
13.830,0.083
13.835,0.093
13.840,0.100
13.845,0.103
13.850,0.102
13.855,0.089
13.860,0.078
13.865,0.075
13.870,0.068
13.875,0.057
13.880,0.046
13.885,0.044
13.890,0.045
13.895,0.041
13.900,0.043
13.905,0.035
13.910,-0.050
13.915,-0.213
13.920,-0.440
13.925,-0.737
13.930,-1.013
13.935,-1.188
13.940,-1.244
13.945,-1.209
13.950,-1.013
13.955,-0.501
13.960,0.127
13.965,0.475
13.970,0.530
13.975,0.508
13.980,0.473
13.985,0.446
13.990,0.438
13.995,0.420
14.000,0.404
14.005,0.387
14.010,0.363
14.015,0.352
14.020,0.343
14.025,0.322
14.030,0.301
14.035,0.286
14.040,0.263
14.045,0.244
14.050,0.236
14.055,0.224
14.060,0.206
14.065,0.189
14.070,0.175
14.075,0.160
14.080,0.150
14.085,0.141
14.090,0.116
14.095,0.097
14.100,0.092
14.105,0.078
14.110,0.057
14.115,0.045
14.120,0.027
14.125,0.001
14.130,-0.017
14.135,-0.027
14.140,-0.040
14.145,-0.052
14.150,-0.068
14.155,-0.094
14.160,-0.117
14.165,-0.127
14.170,-0.134
14.175,-0.139
14.180,-0.147
14.185,-0.152
14.190,-0.139
14.195,-0.125
14.200,-0.116
14.205,-0.095
14.210,-0.074
14.215,-0.051
14.220,-0.022
14.225,-0.002
14.230,0.020
14.235,0.034
14.240,0.022
14.245,0.023
14.250,0.045
14.255,0.050
14.260,0.052
14.265,0.059
14.270,0.056
14.275,0.048
14.280,0.044
14.285,0.047
14.290,0.052
14.295,0.060
14.300,0.065
14.305,0.054
14.310,0.039
14.315,0.035
14.320,0.039
14.325,0.044
14.330,0.048
14.335,0.043
14.340,0.035
14.345,0.032
14.350,0.016
14.355,-0.015
14.360,-0.035
14.365,-0.041
14.370,-0.050
14.375,-0.063
14.380,-0.077
14.385,-0.087
14.390,-0.096
14.395,-0.109
14.400,-0.125
14.405,-0.140
14.410,-0.131
14.415,-0.096
14.420,-0.077
14.425,-0.070
14.430,-0.049
14.435,-0.012
14.440,0.020
14.445,0.032
14.450,0.045
14.455,0.066
14.460,0.075
14.465,0.083
14.470,0.102
14.475,0.111
14.480,0.104
14.485,0.087
14.490,0.069
14.495,0.069
14.500,0.073
14.505,0.067
14.510,0.061
14.515,0.049
14.520,0.038
14.525,0.035
14.530,0.039
14.535,0.049
14.540,-0.010
14.545,-0.177
14.550,-0.417
14.555,-0.716
14.560,-1.016
14.565,-1.213
14.570,-1.272
14.575,-1.249
14.580,-1.017
14.585,-0.439
14.590,0.186
14.595,0.516
14.600,0.581
14.605,0.531
14.610,0.459
14.615,0.423
14.620,0.403
14.625,0.393
14.630,0.395
14.635,0.370
14.640,0.341
14.645,0.333
14.650,0.320
14.655,0.291
14.660,0.271
14.665,0.259
14.670,0.241
14.675,0.229
14.680,0.217
14.685,0.199
14.690,0.188
14.695,0.176
14.700,0.158
14.705,0.141
14.710,0.127
14.715,0.118
14.720,0.104
14.725,0.092
14.730,0.076
14.735,0.053
14.740,0.043
14.745,0.041
14.750,0.025
14.755,-0.004
14.760,-0.019
14.765,-0.022
14.770,-0.038
14.775,-0.064
14.780,-0.081
14.785,-0.091
14.790,-0.098
14.795,-0.095
14.800,-0.103
14.805,-0.126
14.810,-0.136
14.815,-0.133
14.820,-0.133
14.825,-0.132
14.830,-0.123
14.835,-0.105
14.840,-0.080
14.845,-0.045
14.850,-0.018
14.855,-0.014
14.860,-0.013
14.865,-0.006
14.870,0.000
14.875,0.011
14.880,0.036
14.885,0.054
14.890,0.046
14.895,0.037
14.900,0.040
14.905,0.035
14.910,0.026
14.915,0.034
14.920,0.036
14.925,0.018
14.930,0.014
14.935,0.029
14.940,0.034
14.945,0.026
14.950,0.019
14.955,0.015
14.960,0.009
14.965,0.003
14.970,0.000
14.975,-0.004
14.980,-0.005
14.985,-0.011
14.990,-0.041
14.995,-0.070
15.000,-0.072
15.005,-0.070
15.010,-0.068
15.015,-0.068
15.020,-0.087
15.025,-0.110
15.030,-0.127
15.035,-0.137
15.040,-0.123
15.045,-0.093
15.050,-0.062
15.055,-0.049
15.060,-0.046
15.065,-0.017
15.070,0.017
15.075,0.027
15.080,0.039
15.085,0.059
15.090,0.075
15.095,0.088
15.100,0.100
15.105,0.110
15.110,0.109
15.115,0.098
15.120,0.085
15.125,0.072
15.130,0.065
15.135,0.059
15.140,0.043
15.145,0.035
15.150,0.041
15.155,0.039
15.160,0.049
15.165,0.058
15.170,-0.042
15.175,-0.235
15.180,-0.468
15.185,-0.763
15.190,-1.036
15.195,-1.216
15.200,-1.272
15.205,-1.201
15.210,-0.931
15.215,-0.362
15.220,0.253
15.225,0.564
15.230,0.599
15.235,0.533
15.240,0.452
15.245,0.421
15.250,0.425
15.255,0.408
15.260,0.385
15.265,0.371
15.270,0.352
15.275,0.334
15.280,0.318
15.285,0.301
15.290,0.279
15.295,0.262
15.300,0.252
15.305,0.229
15.310,0.205
15.315,0.190
15.320,0.179
15.325,0.176
15.330,0.166
15.335,0.152
15.340,0.140
15.345,0.121
15.350,0.108
15.355,0.094
15.360,0.073
15.365,0.066
15.370,0.058
15.375,0.040
15.380,0.025
15.385,0.009
15.390,-0.010
15.395,-0.025
15.400,-0.040
15.405,-0.050
15.410,-0.061
15.415,-0.076
15.420,-0.095
15.425,-0.111
15.430,-0.112
15.435,-0.114
15.440,-0.125
15.445,-0.137
15.450,-0.140
15.455,-0.135
15.460,-0.121
15.465,-0.093
15.470,-0.067
15.475,-0.049
15.480,-0.033
15.485,-0.020
15.490,-0.008
15.495,0.007
15.500,0.027
15.505,0.040
15.510,0.035
15.515,0.035
15.520,0.040
15.525,0.029
15.530,0.020
15.535,0.019
15.540,0.024
15.545,0.038
15.550,0.045
15.555,0.034
15.560,0.024
15.565,0.027
15.570,0.028
15.575,0.019
15.580,0.015
15.585,0.014
15.590,0.011
15.595,0.009
15.600,0.007
15.605,0.002
15.610,-0.005
15.615,-0.014
15.620,-0.033
15.625,-0.054
15.630,-0.069
15.635,-0.086
15.640,-0.089
15.645,-0.080
15.650,-0.093
15.655,-0.115
15.660,-0.125
15.665,-0.122
15.670,-0.117
15.675,-0.115
15.680,-0.084
15.685,-0.050
15.690,-0.041
15.695,-0.014
15.700,0.022
15.705,0.028
15.710,0.029
15.715,0.049
15.720,0.074
15.725,0.092
15.730,0.108
15.735,0.113
15.740,0.096
15.745,0.082
15.750,0.083
15.755,0.074
15.760,0.062
15.765,0.069
15.770,0.067
15.775,0.052
15.780,0.042
15.785,0.038
15.790,0.052
15.795,0.045
15.800,-0.057
15.805,-0.244
15.810,-0.493
15.815,-0.787
15.820,-1.044
15.825,-1.204
15.830,-1.233
15.835,-1.156
15.840,-0.892
15.845,-0.325
15.850,0.269
15.855,0.552
15.860,0.571
15.865,0.517
15.870,0.464
15.875,0.436
15.880,0.429
15.885,0.416
15.890,0.389
15.895,0.365
15.900,0.352
15.905,0.340
15.910,0.320
15.915,0.302
15.920,0.287
15.925,0.265
15.930,0.245
15.935,0.231
15.940,0.206
15.945,0.184
15.950,0.179
15.955,0.176
15.960,0.161
15.965,0.147
15.970,0.131
15.975,0.115
15.980,0.107
15.985,0.092
15.990,0.072
15.995,0.059
16.000,0.051
16.005,0.033
16.010,0.007
16.015,-0.011
16.020,-0.020
16.025,-0.031
16.030,-0.046
16.035,-0.063
16.040,-0.079
16.045,-0.092
16.050,-0.107
16.055,-0.125
16.060,-0.139
16.065,-0.146
16.070,-0.150
16.075,-0.150
16.080,-0.138
16.085,-0.114
16.090,-0.099
16.095,-0.087
16.100,-0.070
16.105,-0.057
16.110,-0.041
16.115,-0.013
16.120,0.011
16.125,0.017
16.130,0.023
16.135,0.030
16.140,0.030
16.145,0.037
16.150,0.045
16.155,0.040
16.160,0.034
16.165,0.034
16.170,0.032
16.175,0.032
16.180,0.037
16.185,0.040
16.190,0.041
16.195,0.044
16.200,0.044
16.205,0.037
16.210,0.028
16.215,0.027
16.220,0.026
16.225,0.017
16.230,0.015
16.235,0.012
16.240,-0.009
16.245,-0.036
16.250,-0.048
16.255,-0.056
16.260,-0.067
16.265,-0.071
16.270,-0.080
16.275,-0.099
16.280,-0.107
16.285,-0.114
16.290,-0.119
16.295,-0.101
16.300,-0.078
16.305,-0.067
16.310,-0.059
16.315,-0.039
16.320,-0.002
16.325,0.023
16.330,0.035
16.335,0.052
16.340,0.067
16.345,0.085
16.350,0.104
16.355,0.106
16.360,0.102
16.365,0.099
16.370,0.090
16.375,0.078
16.380,0.068
16.385,0.060
16.390,0.051
16.395,0.047
16.400,0.045
16.405,0.039
16.410,0.040
16.415,0.053
16.420,0.030
16.425,-0.094
16.430,-0.296
16.435,-0.556
16.440,-0.842
16.445,-1.073
16.450,-1.201
16.455,-1.218
16.460,-1.129
16.465,-0.804
16.470,-0.190
16.475,0.344
16.480,0.539
16.485,0.547
16.490,0.504
16.495,0.454
16.500,0.439
16.505,0.426
16.510,0.399
16.515,0.380
16.520,0.363
16.525,0.342
16.530,0.327
16.535,0.315
16.540,0.296
16.545,0.277
16.550,0.268
16.555,0.252
16.560,0.226
16.565,0.209
16.570,0.197
16.575,0.179
16.580,0.170
16.585,0.164
16.590,0.147
16.595,0.133
16.600,0.125
16.605,0.108
16.610,0.093
16.615,0.083
16.620,0.067
16.625,0.048
16.630,0.033
16.635,0.017
16.640,-0.007
16.645,-0.027
16.650,-0.039
16.655,-0.055
16.660,-0.076
16.665,-0.090
16.670,-0.103
16.675,-0.118
16.680,-0.124
16.685,-0.131
16.690,-0.148
16.695,-0.158
16.700,-0.157
16.705,-0.150
16.710,-0.133
16.715,-0.110
16.720,-0.089
16.725,-0.069
16.730,-0.043
16.735,-0.017
16.740,-0.005
16.745,0.004
16.750,0.018
16.755,0.025
16.760,0.029
16.765,0.039
16.770,0.040
16.775,0.035
16.780,0.035
16.785,0.037
16.790,0.035
16.795,0.034
16.800,0.036
16.805,0.036
16.810,0.033
16.815,0.036
16.820,0.035
16.825,0.031
16.830,0.034
16.835,0.034
16.840,0.030
16.845,0.031
16.850,0.035
16.855,0.030
16.860,0.018
16.865,0.005
16.870,-0.019
16.875,-0.044
16.880,-0.056
16.885,-0.062
16.890,-0.068
16.895,-0.075
16.900,-0.089
16.905,-0.105
16.910,-0.119
16.915,-0.117
16.920,-0.101
16.925,-0.088
16.930,-0.072
16.935,-0.055
16.940,-0.040
16.945,-0.010
16.950,0.024
16.955,0.031
16.960,0.037
16.965,0.061
16.970,0.080
16.975,0.099
16.980,0.111
16.985,0.107
16.990,0.099
16.995,0.093
17.000,0.084
17.005,0.073
17.010,0.064
17.015,0.060
17.020,0.057
17.025,0.049
17.030,0.045
17.035,0.048
17.040,0.052
17.045,0.036
17.050,-0.057
17.055,-0.238
17.060,-0.484
17.065,-0.763
17.070,-1.010
17.075,-1.180
17.080,-1.232
17.085,-1.185
17.090,-0.954
17.095,-0.405
17.100,0.195
17.105,0.480
17.110,0.521
17.115,0.509
17.120,0.466
17.125,0.435
17.130,0.430
17.135,0.419
17.140,0.401
17.145,0.381
17.150,0.364
17.155,0.345
17.160,0.321
17.165,0.302
17.170,0.283
17.175,0.262
17.180,0.248
17.185,0.236
17.190,0.223
17.195,0.211
17.200,0.198
17.205,0.177
17.210,0.155
17.215,0.142
17.220,0.132
17.225,0.112
17.230,0.096
17.235,0.084
17.240,0.069
17.245,0.058
17.250,0.050
17.255,0.031
17.260,0.009
17.265,0.002
17.270,-0.013
17.275,-0.042
17.280,-0.059
17.285,-0.071
17.290,-0.090
17.295,-0.106
17.300,-0.120
17.305,-0.137
17.310,-0.145
17.315,-0.140
17.320,-0.142
17.325,-0.149
17.330,-0.148
17.335,-0.137
17.340,-0.123
17.345,-0.100
17.350,-0.064
17.355,-0.043
17.360,-0.033
17.365,-0.014
17.370,-0.001
17.375,0.010
17.380,0.030
17.385,0.041
17.390,0.040
17.395,0.042
17.400,0.046
17.405,0.044
17.410,0.041
17.415,0.042
17.420,0.044
17.425,0.038
17.430,0.041
17.435,0.048
17.440,0.043
17.445,0.041
17.450,0.044
17.455,0.040
17.460,0.036
17.465,0.040
17.470,0.044
17.475,0.039
17.480,0.033
17.485,0.025
17.490,0.002
17.495,-0.024
17.500,-0.037
17.505,-0.048
17.510,-0.059
17.515,-0.062
17.520,-0.073
17.525,-0.094
17.530,-0.107
17.535,-0.119
17.540,-0.124
17.545,-0.107
17.550,-0.083
17.555,-0.068
17.560,-0.054
17.565,-0.029
17.570,0.002
17.575,0.021
17.580,0.026
17.585,0.035
17.590,0.046
17.595,0.066
17.600,0.089
17.605,0.093
17.610,0.090
17.615,0.091
17.620,0.085
17.625,0.074
17.630,0.068
17.635,0.062
17.640,0.050
17.645,0.044
17.650,0.046
17.655,0.040
17.660,0.033
17.665,0.043
17.670,0.021
17.675,-0.095
17.680,-0.274
17.685,-0.513
17.690,-0.805
17.695,-1.054
17.700,-1.204
17.705,-1.251
17.710,-1.198
17.715,-0.904
17.720,-0.294
17.725,0.279
17.730,0.509
17.735,0.533
17.740,0.506
17.745,0.456
17.750,0.436
17.755,0.429
17.760,0.410
17.765,0.398
17.770,0.380
17.775,0.355
17.780,0.337
17.785,0.325
17.790,0.309
17.795,0.288
17.800,0.270
17.805,0.256
17.810,0.240
17.815,0.224
17.820,0.209
17.825,0.195
17.830,0.182
17.835,0.168
17.840,0.153
17.845,0.141
17.850,0.128
17.855,0.112
17.860,0.096
17.865,0.084
17.870,0.067
17.875,0.044
17.880,0.027
17.885,0.015
17.890,-0.002
17.895,-0.017
17.900,-0.028
17.905,-0.049
17.910,-0.074
17.915,-0.091
17.920,-0.103
17.925,-0.113
17.930,-0.126
17.935,-0.144
17.940,-0.160
17.945,-0.160
17.950,-0.151
17.955,-0.143
17.960,-0.131
17.965,-0.110
17.970,-0.090
17.975,-0.068
17.980,-0.041
17.985,-0.014
17.990,0.002
17.995,0.015
18.000,0.030
18.005,0.039
18.010,0.043
18.015,0.045
18.020,0.041
18.025,0.038
18.030,0.041
18.035,0.043
18.040,0.042
18.045,0.046
18.050,0.045
18.055,0.037
18.060,0.043
18.065,0.054
18.070,0.047
18.075,0.036
18.080,0.040
18.085,0.044
18.090,0.041
18.095,0.034
18.100,0.021
18.105,0.012
18.110,0.003
18.115,-0.016
18.120,-0.038
18.125,-0.054
18.130,-0.055
18.135,-0.056
18.140,-0.070
18.145,-0.095
18.150,-0.117
18.155,-0.138
18.160,-0.137
18.165,-0.106
18.170,-0.089
18.175,-0.080
18.180,-0.048
18.185,-0.008
18.190,0.022
18.195,0.038
18.200,0.036
18.205,0.040
18.210,0.059
18.215,0.082
18.220,0.100
18.225,0.102
18.230,0.102
18.235,0.100
18.240,0.093
18.245,0.081
18.250,0.063
18.255,0.049
18.260,0.047
18.265,0.052
18.270,0.055
18.275,0.051
18.280,0.051
18.285,0.062
18.290,0.037
18.295,-0.080
18.300,-0.282
18.305,-0.552
18.310,-0.848
18.315,-1.094
18.320,-1.242
18.325,-1.285
18.330,-1.200
18.335,-0.839
18.340,-0.194
18.345,0.354
18.350,0.557
18.355,0.559
18.360,0.506
18.365,0.466
18.370,0.446
18.375,0.419
18.380,0.402
18.385,0.388
18.390,0.361
18.395,0.335
18.400,0.323
18.405,0.318
18.410,0.307
18.415,0.287
18.420,0.265
18.425,0.243
18.430,0.219
18.435,0.203
18.440,0.202
18.445,0.199
18.450,0.181
18.455,0.158
18.460,0.143
18.465,0.135
18.470,0.127
18.475,0.116
18.480,0.101
18.485,0.081
18.490,0.057
18.495,0.039
18.500,0.024
18.505,0.005
18.510,-0.012
18.515,-0.015
18.520,-0.021
18.525,-0.042
18.530,-0.062
18.535,-0.078
18.540,-0.095
18.545,-0.106
18.550,-0.114
18.555,-0.129
18.560,-0.139
18.565,-0.141
18.570,-0.143
18.575,-0.141
18.580,-0.123
18.585,-0.098
18.590,-0.080
18.595,-0.066
18.600,-0.046
18.605,-0.029
18.610,-0.017
18.615,0.002
18.620,0.023
18.625,0.025
18.630,0.020
18.635,0.029
18.640,0.037
18.645,0.034
18.650,0.028
18.655,0.029
18.660,0.042
18.665,0.054
18.670,0.043
18.675,0.023
18.680,0.023
18.685,0.029
18.690,0.026
18.695,0.025
18.700,0.031
18.705,0.031
18.710,0.024
18.715,0.019
18.720,0.016
18.725,0.009
18.730,-0.007
18.735,-0.034
18.740,-0.053
18.745,-0.061
18.750,-0.070
18.755,-0.071
18.760,-0.064
18.765,-0.080
18.770,-0.115
18.775,-0.137
18.780,-0.154
18.785,-0.148
18.790,-0.112
18.795,-0.075
18.800,-0.055
18.805,-0.056
18.810,-0.034
18.815,0.017
18.820,0.043
18.825,0.042
18.830,0.051
18.835,0.070
18.840,0.092
18.845,0.108
18.850,0.107
18.855,0.102
18.860,0.103
18.865,0.096
18.870,0.076
18.875,0.059
18.880,0.061
18.885,0.063
18.890,0.055
18.895,0.045
18.900,0.041
18.905,0.048
18.910,0.062
18.915,0.017
18.920,-0.138
18.925,-0.373
18.930,-0.660
18.935,-0.950
18.940,-1.179
18.945,-1.291
18.950,-1.284
18.955,-1.128
18.960,-0.673
18.965,-0.020
18.970,0.444
18.975,0.582
18.980,0.564
18.985,0.500
18.990,0.452
18.995,0.441
19.000,0.427
19.005,0.400
19.010,0.376
19.015,0.366
19.020,0.352
19.025,0.330
19.030,0.310
19.035,0.292
19.040,0.274
19.045,0.255
19.050,0.240
19.055,0.232
19.060,0.221
19.065,0.211
19.070,0.200
19.075,0.177
19.080,0.151
19.085,0.137
19.090,0.132
19.095,0.123
19.100,0.109
19.105,0.091
19.110,0.077
19.115,0.071
19.120,0.055
19.125,0.030
19.130,0.012
19.135,-0.005
19.140,-0.024
19.145,-0.033
19.150,-0.039
19.155,-0.054
19.160,-0.070
19.165,-0.084
19.170,-0.100
19.175,-0.123
19.180,-0.135
19.185,-0.137
19.190,-0.144
19.195,-0.143
19.200,-0.130
19.205,-0.116
19.210,-0.098
19.215,-0.080
19.220,-0.072
19.225,-0.054
19.230,-0.020
19.235,-0.001
19.240,0.001
19.245,0.012
19.250,0.022
19.255,0.021
19.260,0.018
19.265,0.022
19.270,0.033
19.275,0.033
19.280,0.027
19.285,0.032
19.290,0.039
19.295,0.037
19.300,0.032
19.305,0.030
19.310,0.029
19.315,0.032
19.320,0.026
19.325,0.013
19.330,0.013
19.335,0.016
19.340,0.010
19.345,0.008
19.350,-0.002
19.355,-0.021
19.360,-0.033
19.365,-0.043
19.370,-0.065
19.375,-0.084
19.380,-0.085
19.385,-0.084
19.390,-0.100
19.395,-0.118
19.400,-0.123
19.405,-0.130
19.410,-0.126
19.415,-0.106
19.420,-0.084
19.425,-0.067
19.430,-0.051
19.435,-0.029
19.440,-0.004
19.445,0.022
19.450,0.040
19.455,0.056
19.460,0.072
19.465,0.093
19.470,0.103
19.475,0.092
19.480,0.093
19.485,0.106
19.490,0.100
19.495,0.087
19.500,0.080
19.505,0.061
19.510,0.039
19.515,0.042
19.520,0.051
19.525,0.054
19.530,0.057
19.535,0.060
19.540,0.016
19.545,-0.120
19.550,-0.330
19.555,-0.612
19.560,-0.914
19.565,-1.147
19.570,-1.266
19.575,-1.257
19.580,-1.122
19.585,-0.738
19.590,-0.105
19.595,0.400
19.600,0.571
19.605,0.572
19.610,0.521
19.615,0.472
19.620,0.453
19.625,0.435
19.630,0.423
19.635,0.413
19.640,0.391
19.645,0.371
19.650,0.353
19.655,0.324
19.660,0.303
19.665,0.293
19.670,0.272
19.675,0.245
19.680,0.232
19.685,0.225
19.690,0.212
19.695,0.197
19.700,0.179
19.705,0.162
19.710,0.151
19.715,0.143
19.720,0.133
19.725,0.115
19.730,0.096
19.735,0.080
19.740,0.057
19.745,0.040
19.750,0.031
19.755,0.017
19.760,0.001
19.765,-0.016
19.770,-0.041
19.775,-0.058
19.780,-0.065
19.785,-0.078
19.790,-0.101
19.795,-0.120
19.800,-0.128
19.805,-0.137
19.810,-0.153
19.815,-0.165
19.820,-0.164
19.825,-0.153
19.830,-0.133
19.835,-0.109
19.840,-0.085
19.845,-0.061
19.850,-0.040
19.855,-0.028
19.860,-0.015
19.865,0.007
19.870,0.023
19.875,0.025
19.880,0.027
19.885,0.034
19.890,0.031
19.895,0.024
19.900,0.025
19.905,0.025
19.910,0.026
19.915,0.030
19.920,0.032
19.925,0.031
19.930,0.026
19.935,0.025
19.940,0.030
19.945,0.036
19.950,0.036
19.955,0.030
19.960,0.029
19.965,0.027
19.970,0.018
19.975,0.010
19.980,0.004
19.985,-0.011
19.990,-0.034
19.995,-0.051
20.000,-0.064
20.005,-0.074
20.010,-0.075
20.015,-0.082
20.020,-0.100
20.025,-0.115
20.030,-0.121
20.035,-0.123
20.040,-0.118
20.045,-0.099
20.050,-0.072
20.055,-0.052
20.060,-0.038
20.065,-0.009
20.070,0.018
20.075,0.021
20.080,0.034
20.085,0.065
20.090,0.085
20.095,0.099
20.100,0.108
20.105,0.100
20.110,0.087
20.115,0.082
20.120,0.079
20.125,0.074
20.130,0.071
20.135,0.063
20.140,0.050
20.145,0.043
20.150,0.038
20.155,0.038
20.160,0.042
20.165,0.022
20.170,-0.082
20.175,-0.266
20.180,-0.516
20.185,-0.804
20.190,-1.048
20.195,-1.203
20.200,-1.247
20.205,-1.199
20.210,-0.957
20.215,-0.389
20.220,0.216
20.225,0.504
20.230,0.551
20.235,0.536
20.240,0.485
20.245,0.454
20.250,0.450
20.255,0.432
20.260,0.414
20.265,0.399
20.270,0.373
20.275,0.346
20.280,0.330
20.285,0.313
20.290,0.289
20.295,0.269
20.300,0.258
20.305,0.250
20.310,0.241
20.315,0.229
20.320,0.207
20.325,0.187
20.330,0.178
20.335,0.164
20.340,0.146
20.345,0.131
20.350,0.118
20.355,0.103
20.360,0.090
20.365,0.081
20.370,0.067
20.375,0.045
20.380,0.026
20.385,0.006
20.390,-0.018
20.395,-0.037
20.400,-0.050
20.405,-0.067
20.410,-0.084
20.415,-0.098
20.420,-0.115
20.425,-0.129
20.430,-0.139
20.435,-0.149
20.440,-0.159
20.445,-0.161
20.450,-0.155
20.455,-0.146
20.460,-0.127
20.465,-0.095
20.470,-0.070
20.475,-0.048
20.480,-0.022
20.485,-0.005
20.490,0.001
20.495,0.012
20.500,0.029
20.505,0.038
20.510,0.041
20.515,0.042
20.520,0.037
20.525,0.030
20.530,0.032
20.535,0.039
20.540,0.038
20.545,0.039
20.550,0.046
20.555,0.043
20.560,0.036
20.565,0.036
20.570,0.034
20.575,0.028
20.580,0.032
20.585,0.036
20.590,0.031
20.595,0.034
20.600,0.034
20.605,0.017
20.610,-0.006
20.615,-0.030
20.620,-0.053
20.625,-0.069
20.630,-0.077
20.635,-0.082
20.640,-0.096
20.645,-0.111
20.650,-0.119
20.655,-0.128
20.660,-0.127
20.665,-0.106
20.670,-0.089
20.675,-0.070
20.680,-0.051
20.685,-0.035
20.690,-0.007
20.695,0.017
20.700,0.027
20.705,0.041
20.710,0.059
20.715,0.083
20.720,0.104
20.725,0.106
20.730,0.101
20.735,0.095
20.740,0.086
20.745,0.080
20.750,0.074
20.755,0.062
20.760,0.055
20.765,0.050
20.770,0.039
20.775,0.032
20.780,0.037
20.785,0.048
20.790,0.019
20.795,-0.100
20.800,-0.294
20.805,-0.555
20.810,-0.844
20.815,-1.074
20.820,-1.207
20.825,-1.243
20.830,-1.175
20.835,-0.862
20.840,-0.248
20.845,0.303
20.850,0.501
20.855,0.517
20.860,0.503
20.865,0.468
20.870,0.451
20.875,0.432
20.880,0.414
20.885,0.412
20.890,0.392
20.895,0.370
20.900,0.354
20.905,0.330
20.910,0.314
20.915,0.305
20.920,0.286
20.925,0.262
20.930,0.245
20.935,0.230
20.940,0.212
20.945,0.200
20.950,0.189
20.955,0.169
20.960,0.151
20.965,0.138
20.970,0.120
20.975,0.104
20.980,0.092
20.985,0.075
20.990,0.056
20.995,0.039
21.000,0.032
21.005,0.021
21.010,-0.005
21.015,-0.019
21.020,-0.034
21.025,-0.059
21.030,-0.067
21.035,-0.082
21.040,-0.105
21.045,-0.112
21.050,-0.120
21.055,-0.136
21.060,-0.146
21.065,-0.153
21.070,-0.157
21.075,-0.150
21.080,-0.132
21.085,-0.110
21.090,-0.088
21.095,-0.061
21.100,-0.033
21.105,-0.013
21.110,0.004
21.115,0.024
21.120,0.033
21.125,0.035
21.130,0.040
21.135,0.042
21.140,0.043
21.145,0.046
21.150,0.047
21.155,0.042
21.160,0.036
21.165,0.037
21.170,0.037
21.175,0.037
21.180,0.044
21.185,0.045
21.190,0.034
21.195,0.032
21.200,0.037
21.205,0.034
21.210,0.037
21.215,0.041
21.220,0.036
21.225,0.027
21.230,0.016
21.235,-0.001
21.240,-0.021
21.245,-0.034
21.250,-0.046
21.255,-0.062
21.260,-0.068
21.265,-0.078
21.270,-0.100
21.275,-0.118
21.280,-0.128
21.285,-0.124
21.290,-0.113
21.295,-0.094
21.300,-0.072
21.305,-0.063
21.310,-0.046
21.315,-0.007
21.320,0.015
21.325,0.015
21.330,0.033
21.335,0.062
21.340,0.080
21.345,0.094
21.350,0.094
21.355,0.080
21.360,0.068
21.365,0.067
21.370,0.072
21.375,0.075
21.380,0.072
21.385,0.065
21.390,0.057
21.395,0.045
21.400,0.038
21.405,0.039
21.410,0.048
21.415,0.031
21.420,-0.076
21.425,-0.270
21.430,-0.529
21.435,-0.829
21.440,-1.093
21.445,-1.246
21.450,-1.281
21.455,-1.212
21.460,-0.888
21.465,-0.256
21.470,0.311
21.475,0.532
21.480,0.546
21.485,0.499
21.490,0.448
21.495,0.438
21.500,0.427
21.505,0.404
21.510,0.392
21.515,0.379
21.520,0.360
21.525,0.342
21.530,0.328
21.535,0.315
21.540,0.291
21.545,0.263
21.550,0.251
21.555,0.238
21.560,0.214
21.565,0.202
21.570,0.193
21.575,0.175
21.580,0.161
21.585,0.152
21.590,0.139
21.595,0.127
21.600,0.111
21.605,0.080
21.610,0.057
21.615,0.063
21.620,0.056
21.625,0.027
21.630,0.010
21.635,-0.002
21.640,-0.026
21.645,-0.041
21.650,-0.043
21.655,-0.053
21.660,-0.064
21.665,-0.077
21.670,-0.095
21.675,-0.106
21.680,-0.122
21.685,-0.138
21.690,-0.142
21.695,-0.139
21.700,-0.133
21.705,-0.122
21.710,-0.109
21.715,-0.095
21.720,-0.073
21.725,-0.048
21.730,-0.025
21.735,-0.009
21.740,-0.002
21.745,0.008
21.750,0.016
21.755,0.016
21.760,0.020
21.765,0.026
21.770,0.029
21.775,0.036
21.780,0.041
21.785,0.042
21.790,0.038
21.795,0.033
21.800,0.031
21.805,0.028
21.810,0.031
21.815,0.036
21.820,0.034
21.825,0.032
21.830,0.032
21.835,0.031
21.840,0.029
21.845,0.024
21.850,0.018
21.855,0.005
21.860,-0.021
21.865,-0.044
21.870,-0.056
21.875,-0.071
21.880,-0.079
21.885,-0.076
21.890,-0.088
21.895,-0.106
21.900,-0.118
21.905,-0.132
21.910,-0.130
21.915,-0.107
21.920,-0.086
21.925,-0.072
21.930,-0.059
21.935,-0.036
21.940,0.000
21.945,0.028
21.950,0.034
21.955,0.045
21.960,0.071
21.965,0.092
21.970,0.098
21.975,0.096
21.980,0.099
21.985,0.097
21.990,0.086
21.995,0.078
22.000,0.075
22.005,0.068
22.010,0.061
22.015,0.061
22.020,0.056
22.025,0.051
22.030,0.056
22.035,0.068
22.040,0.030
22.045,-0.103
22.050,-0.305
22.055,-0.579
22.060,-0.878
22.065,-1.117
22.070,-1.257
22.075,-1.288
22.080,-1.185
22.085,-0.798
22.090,-0.148
22.095,0.373
22.100,0.543
22.105,0.544
22.110,0.507
22.115,0.470
22.120,0.453
22.125,0.435
22.130,0.421
22.135,0.404
22.140,0.382
22.145,0.366
22.150,0.350
22.155,0.330
22.160,0.308
22.165,0.289
22.170,0.273
22.175,0.256
22.180,0.242
22.185,0.230
22.190,0.215
22.195,0.201
22.200,0.194
22.205,0.176
22.210,0.151
22.215,0.136
22.220,0.125
22.225,0.114
22.230,0.100
22.235,0.085
22.240,0.069
22.245,0.052
22.250,0.038
22.255,0.020
22.260,0.000
22.265,-0.014
22.270,-0.029
22.275,-0.047
22.280,-0.058
22.285,-0.074
22.290,-0.095
22.295,-0.105
22.300,-0.113
22.305,-0.129
22.310,-0.141
22.315,-0.146
22.320,-0.145
22.325,-0.136
22.330,-0.123
22.335,-0.108
22.340,-0.094
22.345,-0.078
22.350,-0.057
22.355,-0.034
22.360,-0.010
22.365,0.005
22.370,0.006
22.375,0.011
22.380,0.024
22.385,0.026
22.390,0.023
22.395,0.027
22.400,0.033
22.405,0.034
22.410,0.025
22.415,0.023
22.420,0.027
22.425,0.025
22.430,0.026
22.435,0.030
22.440,0.028
22.445,0.024
22.450,0.029
22.455,0.031
22.460,0.026
22.465,0.024
22.470,0.022
22.475,0.012
22.480,0.004
22.485,-0.007
22.490,-0.032
22.495,-0.056
22.500,-0.070
22.505,-0.077
22.510,-0.081
22.515,-0.087
22.520,-0.106
22.525,-0.128
22.530,-0.140
22.535,-0.144
22.540,-0.136
22.545,-0.114
22.550,-0.079
22.555,-0.056
22.560,-0.045
22.565,-0.017
22.570,0.006
22.575,0.009
22.580,0.024
22.585,0.052
22.590,0.075
22.595,0.092
22.600,0.095
22.605,0.096
22.610,0.100
22.615,0.095
22.620,0.088
22.625,0.079
22.630,0.072
22.635,0.061
22.640,0.049
22.645,0.051
22.650,0.055
22.655,0.047
22.660,0.052
22.665,0.050
22.670,-0.040
22.675,-0.220
22.680,-0.466
22.685,-0.756
22.690,-1.020
22.695,-1.199
22.700,-1.258
22.705,-1.219
22.710,-0.973
22.715,-0.391
22.720,0.224
22.725,0.519
22.730,0.564
22.735,0.528
22.740,0.470
22.745,0.444
22.750,0.435
22.755,0.412
22.760,0.398
22.765,0.385
22.770,0.363
22.775,0.346
22.780,0.331
22.785,0.313
22.790,0.294
22.795,0.279
22.800,0.263
22.805,0.243
22.810,0.226
22.815,0.217
22.820,0.203
22.825,0.184
22.830,0.169
22.835,0.156
22.840,0.139
22.845,0.127
22.850,0.119
22.855,0.104
22.860,0.083
22.865,0.066
22.870,0.052
22.875,0.034
22.880,0.019
22.885,0.004
22.890,-0.015
22.895,-0.029
22.900,-0.045
22.905,-0.062
22.910,-0.076
22.915,-0.092
22.920,-0.107
22.925,-0.119
22.930,-0.129
22.935,-0.136
22.940,-0.144
22.945,-0.145
22.950,-0.136
22.955,-0.127
22.960,-0.109
22.965,-0.082
22.970,-0.064
22.975,-0.046
22.980,-0.021
22.985,0.001
22.990,0.013
22.995,0.024
23.000,0.033
23.005,0.032
23.010,0.035
23.015,0.044
23.020,0.039
23.025,0.035
23.030,0.039
23.035,0.037
23.040,0.034
23.045,0.036
23.050,0.040
23.055,0.037
23.060,0.033
23.065,0.033
23.070,0.035
23.075,0.033
23.080,0.036
23.085,0.037
23.090,0.028
23.095,0.024
23.100,0.022
23.105,0.008
23.110,-0.014
23.115,-0.031
23.120,-0.048
23.125,-0.062
23.130,-0.065
23.135,-0.070
23.140,-0.090
23.145,-0.110
23.150,-0.118
23.155,-0.128
23.160,-0.128
23.165,-0.107
23.170,-0.087
23.175,-0.073
23.180,-0.059
23.185,-0.040
23.190,-0.008
23.195,0.021
23.200,0.032
23.205,0.045
23.210,0.066
23.215,0.084
23.220,0.092
23.225,0.094
23.230,0.101
23.235,0.100
23.240,0.085
23.245,0.074
23.250,0.070
23.255,0.060
23.260,0.052
23.265,0.051
23.270,0.046
23.275,0.038
23.280,0.041
23.285,0.055
23.290,0.038
23.295,-0.063
23.300,-0.243
23.305,-0.485
23.310,-0.769
23.315,-1.032
23.320,-1.212
23.325,-1.283
23.330,-1.247
23.335,-0.984
23.340,-0.406
23.345,0.175
23.350,0.438
23.355,0.494
23.360,0.498
23.365,0.463
23.370,0.442
23.375,0.440
23.380,0.433
23.385,0.421
23.390,0.395
23.395,0.373
23.400,0.356
23.405,0.335
23.410,0.318
23.415,0.304
23.420,0.282
23.425,0.261
23.430,0.250
23.435,0.236
23.440,0.219
23.445,0.205
23.450,0.189
23.455,0.171
23.460,0.158
23.465,0.150
23.470,0.134
23.475,0.113
23.480,0.102
23.485,0.092
23.490,0.073
23.495,0.057
23.500,0.044
23.505,0.025
23.510,0.008
23.515,-0.003
23.520,-0.020
23.525,-0.039
23.530,-0.050
23.535,-0.065
23.540,-0.084
23.545,-0.095
23.550,-0.103
23.555,-0.117
23.560,-0.129
23.565,-0.132
23.570,-0.135
23.575,-0.133
23.580,-0.122
23.585,-0.112
23.590,-0.100
23.595,-0.081
23.600,-0.059
23.605,-0.041
23.610,-0.024
23.615,-0.009
23.620,-0.003
23.625,0.002
23.630,0.010
23.635,0.015
23.640,0.019
23.645,0.026
23.650,0.026
23.655,0.021
23.660,0.025
23.665,0.029
23.670,0.023
23.675,0.022
23.680,0.027
23.685,0.025
23.690,0.022
23.695,0.021
23.700,0.023
23.705,0.024
23.710,0.025
23.715,0.021
23.720,0.017
23.725,0.013
23.730,0.007
23.735,-0.009
23.740,-0.034
23.745,-0.051
23.750,-0.064
23.755,-0.079
23.760,-0.090
23.765,-0.087
23.770,-0.094
23.775,-0.114
23.780,-0.122
23.785,-0.122
23.790,-0.111
23.795,-0.087
23.800,-0.069
23.805,-0.057
23.810,-0.041
23.815,-0.016
23.820,0.011
23.825,0.025
23.830,0.043
23.835,0.070
23.840,0.077
23.845,0.087
23.850,0.105
23.855,0.105
23.860,0.104
23.865,0.100
23.870,0.086
23.875,0.076
23.880,0.070
23.885,0.064
23.890,0.060
23.895,0.058
23.900,0.045
23.905,0.034
23.910,0.044
23.915,0.059
23.920,0.000
23.925,-0.166
23.930,-0.390
23.935,-0.680
23.940,-0.987
23.945,-1.192
23.950,-1.267
23.955,-1.265
23.960,-1.108
23.965,-0.631
23.970,0.019
23.975,0.429
23.980,0.512
23.985,0.511
23.990,0.485
23.995,0.452
24.000,0.455
24.005,0.436
24.010,0.407
24.015,0.396
24.020,0.382
24.025,0.354
24.030,0.334
24.035,0.326
24.040,0.309
24.045,0.289
24.050,0.276
24.055,0.260
24.060,0.242
24.065,0.226
24.070,0.205
24.075,0.190
24.080,0.180
24.085,0.162
24.090,0.148
24.095,0.137
24.100,0.116
24.105,0.099
24.110,0.088
24.115,0.074
24.120,0.056
24.125,0.042
24.130,0.034
24.135,0.009
24.140,-0.019
24.145,-0.032
24.150,-0.042
24.155,-0.057
24.160,-0.069
24.165,-0.081
24.170,-0.097
24.175,-0.109
24.180,-0.123
24.185,-0.143
24.190,-0.146
24.195,-0.131
24.200,-0.126
24.205,-0.128
24.210,-0.115
24.215,-0.091
24.220,-0.077
24.225,-0.057
24.230,-0.022
24.235,-0.004
24.240,0.003
24.245,0.020
24.250,0.028
24.255,0.032
24.260,0.050
24.265,0.058
24.270,0.049
24.275,0.044
24.280,0.045
24.285,0.055
24.290,0.059
24.295,0.047
24.300,0.041
24.305,0.037
24.310,0.048
24.315,0.068
24.320,0.056
24.325,0.037
24.330,0.036
24.335,0.042
24.340,0.044
24.345,0.029
24.350,0.018
24.355,0.007
24.360,-0.008
24.365,-0.023
24.370,-0.049
24.375,-0.077
24.380,-0.081
24.385,-0.072
24.390,-0.080
24.395,-0.107
24.400,-0.133
24.405,-0.148
24.410,-0.139
24.415,-0.111
24.420,-0.096
24.425,-0.090
24.430,-0.071
24.435,-0.036
24.440,0.008
24.445,0.034
24.450,0.034
24.455,0.044
24.460,0.072
24.465,0.089
24.470,0.097
24.475,0.106
24.480,0.106
24.485,0.090
24.490,0.076
24.495,0.082
24.500,0.088
24.505,0.075
24.510,0.058
24.515,0.047
24.520,0.047
24.525,0.048
24.530,0.046
24.535,0.054
24.540,0.049
24.545,-0.036
24.550,-0.213
24.555,-0.449
24.560,-0.728
24.565,-1.012
24.570,-1.232
24.575,-1.326
24.580,-1.284
24.585,-0.992
24.590,-0.374
24.595,0.243
24.600,0.544
24.605,0.588
24.610,0.527
24.615,0.469
24.620,0.440
24.625,0.413
24.630,0.397
24.635,0.382
24.640,0.359
24.645,0.349
24.650,0.340
24.655,0.318
24.660,0.294
24.665,0.273
24.670,0.257
24.675,0.251
24.680,0.235
24.685,0.216
24.690,0.209
24.695,0.201
24.700,0.179
24.705,0.155
24.710,0.139
24.715,0.132
24.720,0.122
24.725,0.109
24.730,0.098
24.735,0.087
24.740,0.076
24.745,0.060
24.750,0.030
24.755,0.001
24.760,-0.009
24.765,-0.005
24.770,-0.011
24.775,-0.030
24.780,-0.052
24.785,-0.076
24.790,-0.087
24.795,-0.091
24.800,-0.099
24.805,-0.106
24.810,-0.114
24.815,-0.119
24.820,-0.124
24.825,-0.128
24.830,-0.119
24.835,-0.099
24.840,-0.085
24.845,-0.075
24.850,-0.046
24.855,-0.014
24.860,-0.005
24.865,-0.001
24.870,0.007
24.875,0.014
24.880,0.025
24.885,0.039
24.890,0.040
24.895,0.034
24.900,0.037
24.905,0.037
24.910,0.029
24.915,0.038
24.920,0.047
24.925,0.040
24.930,0.035
24.935,0.030
24.940,0.023
24.945,0.026
24.950,0.025
24.955,0.014
24.960,0.008
24.965,0.006
24.970,0.004
24.975,-0.007
24.980,-0.011
24.985,-0.012
24.990,-0.037
24.995,-0.058
25.000,-0.070
25.005,-0.085
25.010,-0.084
25.015,-0.073
25.020,-0.092
25.025,-0.122
25.030,-0.133
25.035,-0.144
25.040,-0.130
25.045,-0.104
25.050,-0.092
25.055,-0.078
25.060,-0.059
25.065,-0.031
25.070,0.001
25.075,0.012
25.080,0.021
25.085,0.052
25.090,0.083
25.095,0.095
25.100,0.104
25.105,0.111
25.110,0.108
25.115,0.096
25.120,0.068
25.125,0.050
25.130,0.060
25.135,0.073
25.140,0.074
25.145,0.062
25.150,0.052
25.155,0.051
25.160,0.054
25.165,0.065
25.170,0.018
25.175,-0.134
25.180,-0.348
25.185,-0.619
25.190,-0.921
25.195,-1.160
25.200,-1.268
25.205,-1.255
25.210,-1.099
25.215,-0.674
25.220,-0.039
25.225,0.450
25.230,0.614
25.235,0.587
25.240,0.503
25.245,0.451
25.250,0.441
25.255,0.422
25.260,0.401
25.265,0.390
25.270,0.374
25.275,0.358
25.280,0.338
25.285,0.311
25.290,0.290
25.295,0.272
25.300,0.261
25.305,0.246
25.310,0.227
25.315,0.217
25.320,0.206
25.325,0.190
25.330,0.174
25.335,0.165
25.340,0.151
25.345,0.123
25.350,0.102
25.355,0.092
25.360,0.092
25.365,0.089
25.370,0.065
25.375,0.045
25.380,0.027
25.385,0.010
25.390,0.009
25.395,0.003
25.400,-0.024
25.405,-0.047
25.410,-0.065
25.415,-0.084
25.420,-0.087
25.425,-0.092
25.430,-0.111
25.435,-0.133
25.440,-0.147
25.445,-0.143
25.450,-0.132
25.455,-0.127
25.460,-0.114
25.465,-0.089
25.470,-0.073
25.475,-0.068
25.480,-0.052
25.485,-0.030
25.490,-0.017
25.495,0.001
25.500,0.020
25.505,0.017
25.510,0.012
25.515,0.020
25.520,0.023
25.525,0.020
25.530,0.025
25.535,0.029
25.540,0.026
25.545,0.016
25.550,0.009
25.555,0.023
25.560,0.033
25.565,0.022
25.570,0.013
25.575,0.015
25.580,0.016
25.585,0.009
25.590,0.000
25.595,0.005
25.600,0.007
25.605,-0.006
25.610,-0.012
25.615,-0.017
25.620,-0.049
25.625,-0.075
25.630,-0.076
25.635,-0.081
25.640,-0.084
25.645,-0.085
25.650,-0.109
25.655,-0.129
25.660,-0.133
25.665,-0.135
25.670,-0.120
25.675,-0.095
25.680,-0.080
25.685,-0.068
25.690,-0.047
25.695,-0.007
25.700,0.027
25.705,0.037
25.710,0.044
25.715,0.055
25.720,0.078
25.725,0.102
25.730,0.100
25.735,0.092
25.740,0.097
25.745,0.100
25.750,0.089
25.755,0.071
25.760,0.057
25.765,0.053
25.770,0.053
25.775,0.046
25.780,0.038
25.785,0.043
25.790,0.058
25.795,0.042
25.800,-0.072
25.805,-0.272
25.810,-0.526
25.815,-0.814
25.820,-1.074
25.825,-1.237
25.830,-1.256
25.835,-1.147
25.840,-0.831
25.845,-0.237
25.850,0.325
25.855,0.558
25.860,0.565
25.865,0.513
25.870,0.458
25.875,0.435
25.880,0.422
25.885,0.398
25.890,0.379
25.895,0.361
25.900,0.346
25.905,0.334
25.910,0.319
25.915,0.306
25.920,0.285
25.925,0.260
25.930,0.243
25.935,0.226
25.940,0.212
25.945,0.210
25.950,0.201
25.955,0.175
25.960,0.166
25.965,0.163
25.970,0.138
25.975,0.109
25.980,0.097
25.985,0.096
25.990,0.086
25.995,0.067
26.000,0.047
26.005,0.035
26.010,0.025
26.015,0.008
26.020,-0.012
26.025,-0.029
26.030,-0.047
26.035,-0.065
26.040,-0.081
26.045,-0.094
26.050,-0.111
26.055,-0.124
26.060,-0.123
26.065,-0.125
26.070,-0.135
26.075,-0.142
26.080,-0.141
26.085,-0.129
26.090,-0.106
26.095,-0.085
26.100,-0.066
26.105,-0.050
26.110,-0.030
26.115,-0.001
26.120,0.014
26.125,0.014
26.130,0.018
26.135,0.028
26.140,0.035
26.145,0.034
26.150,0.030
26.155,0.028
26.160,0.035
26.165,0.041
26.170,0.037
26.175,0.033
26.180,0.036
26.185,0.036
26.190,0.028
26.195,0.026
26.200,0.031
26.205,0.031
26.210,0.026
26.215,0.022
26.220,0.018
26.225,0.014
26.230,0.014
26.235,0.012
26.240,-0.004
26.245,-0.024
26.250,-0.041
26.255,-0.061
26.260,-0.075
26.265,-0.080
26.270,-0.089
26.275,-0.102
26.280,-0.108
26.285,-0.119
26.290,-0.129
26.295,-0.113
26.300,-0.091
26.305,-0.077
26.310,-0.060
26.315,-0.038
26.320,-0.011
26.325,0.011
26.330,0.024
26.335,0.039
26.340,0.059
26.345,0.081
26.350,0.096
26.355,0.101
26.360,0.100
26.365,0.101
26.370,0.097
26.375,0.085
26.380,0.076
26.385,0.064
26.390,0.050
26.395,0.049
26.400,0.049
26.405,0.038
26.410,0.033
26.415,0.042
26.420,0.030
26.425,-0.060
26.430,-0.227
26.435,-0.461
26.440,-0.750
26.445,-1.003
26.450,-1.169
26.455,-1.226
26.460,-1.183
26.465,-0.962
26.470,-0.436
26.475,0.172
26.480,0.498
26.485,0.550
26.490,0.526
26.495,0.482
26.500,0.443
26.505,0.427
26.510,0.418
26.515,0.403
26.520,0.377
26.525,0.357
26.530,0.348
26.535,0.330
26.540,0.307
26.545,0.288
26.550,0.273
26.555,0.259
26.560,0.245
26.565,0.232
26.570,0.214
26.575,0.195
26.580,0.182
26.585,0.168
26.590,0.156
26.595,0.151
26.600,0.141
26.605,0.121
26.610,0.109
26.615,0.098
26.620,0.076
26.625,0.055
26.630,0.042
26.635,0.022
26.640,-0.004
26.645,-0.017
26.650,-0.026
26.655,-0.048
26.660,-0.069
26.665,-0.083
26.670,-0.099
26.675,-0.110
26.680,-0.117
26.685,-0.129
26.690,-0.144
26.695,-0.149
26.700,-0.147
26.705,-0.145
26.710,-0.131
26.715,-0.111
26.720,-0.095
26.725,-0.075
26.730,-0.051
26.735,-0.028
26.740,-0.012
26.745,0.002
26.750,0.013
26.755,0.020
26.760,0.031
26.765,0.043
26.770,0.042
26.775,0.041
26.780,0.043
26.785,0.042
26.790,0.041
26.795,0.040
26.800,0.038
26.805,0.034
26.810,0.031
26.815,0.033
26.820,0.035
26.825,0.039
26.830,0.040
26.835,0.036
26.840,0.036
26.845,0.037
26.850,0.037
26.855,0.032
26.860,0.026
26.865,0.016
26.870,-0.003
26.875,-0.024
26.880,-0.040
26.885,-0.053
26.890,-0.061
26.895,-0.064
26.900,-0.075
26.905,-0.095
26.910,-0.108
26.915,-0.118
26.920,-0.122
26.925,-0.104
26.930,-0.085
26.935,-0.075
26.940,-0.059
26.945,-0.037
26.950,-0.007
26.955,0.021
26.960,0.033
26.965,0.044
26.970,0.062
26.975,0.077
26.980,0.092
26.985,0.101
26.990,0.099
26.995,0.096
27.000,0.091
27.005,0.079
27.010,0.070
27.015,0.068
27.020,0.056
27.025,0.048
27.030,0.049
27.035,0.043
27.040,0.039
27.045,0.045
27.050,0.029
27.055,-0.071
27.060,-0.247
27.065,-0.479
27.070,-0.755
27.075,-1.002
27.080,-1.172
27.085,-1.238
27.090,-1.217
27.095,-1.010
27.100,-0.482
27.105,0.125
27.110,0.446
27.115,0.514
27.120,0.513
27.125,0.476
27.130,0.447
27.135,0.439
27.140,0.423
27.145,0.410
27.150,0.392
27.155,0.368
27.160,0.348
27.165,0.328
27.170,0.312
27.175,0.298
27.180,0.282
27.185,0.266
27.190,0.248
27.195,0.229
27.200,0.218
27.205,0.204
27.210,0.188
27.215,0.179
27.220,0.161
27.225,0.141
27.230,0.133
27.235,0.118
27.240,0.099
27.245,0.087
27.250,0.075
27.255,0.058
27.260,0.042
27.265,0.027
27.270,0.010
27.275,-0.006
27.280,-0.020
27.285,-0.037
27.290,-0.052
27.295,-0.065
27.300,-0.082
27.305,-0.100
27.310,-0.112
27.315,-0.124
27.320,-0.135
27.325,-0.141
27.330,-0.145
27.335,-0.145
27.340,-0.137
27.345,-0.123
27.350,-0.103
27.355,-0.083
27.360,-0.064
27.365,-0.042
27.370,-0.025
27.375,-0.013
27.380,0.002
27.385,0.010
27.390,0.015
27.395,0.022
27.400,0.024
27.405,0.025
27.410,0.026
27.415,0.028
27.420,0.026
27.425,0.024
27.430,0.028
27.435,0.025
27.440,0.022
27.445,0.027
27.450,0.029
27.455,0.025
27.460,0.027
27.465,0.031
27.470,0.028
27.475,0.025
27.480,0.024
27.485,0.018
27.490,0.016
27.495,0.018
27.500,0.004
27.505,-0.021
27.510,-0.045
27.515,-0.061
27.520,-0.071
27.525,-0.074
27.530,-0.074
27.535,-0.087
27.540,-0.104
27.545,-0.115
27.550,-0.128
27.555,-0.127
27.560,-0.104
27.565,-0.085
27.570,-0.076
27.575,-0.062
27.580,-0.034
27.585,0.001
27.590,0.021
27.595,0.030
27.600,0.048
27.605,0.064
27.610,0.078
27.615,0.092
27.620,0.096
27.625,0.096
27.630,0.097
27.635,0.089
27.640,0.075
27.645,0.065
27.650,0.061
27.655,0.056
27.660,0.051
27.665,0.044
27.670,0.035
27.675,0.035
27.680,0.044
27.685,0.009
27.690,-0.120
27.695,-0.325
27.700,-0.588
27.705,-0.871
27.710,-1.100
27.715,-1.227
27.720,-1.248
27.725,-1.177
27.730,-0.870
27.735,-0.262
27.740,0.269
27.745,0.452
27.750,0.491
27.755,0.510
27.760,0.485
27.765,0.476
27.770,0.467
27.775,0.440
27.780,0.425
27.785,0.406
27.790,0.374
27.795,0.354
27.800,0.347
27.805,0.329
27.810,0.314
27.815,0.301
27.820,0.274
27.825,0.257
27.830,0.256
27.835,0.245
27.840,0.224
27.845,0.208
27.850,0.191
27.855,0.166
27.860,0.146
27.865,0.132
27.870,0.115
27.875,0.101
27.880,0.091
27.885,0.076
27.890,0.058
27.895,0.042
27.900,0.026
27.905,0.006
27.910,-0.011
27.915,-0.028
27.920,-0.055
27.925,-0.079
27.930,-0.092
27.935,-0.104
27.940,-0.111
27.945,-0.116
27.950,-0.130
27.955,-0.145
27.960,-0.153
27.965,-0.150
27.970,-0.144
27.975,-0.134
27.980,-0.111
27.985,-0.083
27.990,-0.062
27.995,-0.042
28.000,-0.022
28.005,-0.003
28.010,0.017
28.015,0.029
28.020,0.032
28.025,0.033
28.030,0.037
28.035,0.040
28.040,0.043
28.045,0.046
28.050,0.041
28.055,0.030
28.060,0.039
28.065,0.052
28.070,0.040
28.075,0.034
28.080,0.055
28.085,0.063
28.090,0.050
28.095,0.045
28.100,0.048
28.105,0.043
28.110,0.040
28.115,0.039
28.120,0.024
28.125,0.017
28.130,0.015
28.135,-0.009
28.140,-0.041
28.145,-0.061
28.150,-0.069
28.155,-0.071
28.160,-0.071
28.165,-0.088
28.170,-0.117
28.175,-0.135
28.180,-0.145
28.185,-0.142
28.190,-0.118
28.195,-0.089
28.200,-0.074
28.205,-0.066
28.210,-0.044
28.215,-0.015
28.220,0.011
28.225,0.031
28.230,0.043
28.235,0.058
28.240,0.076
28.245,0.102
28.250,0.121
28.255,0.110
28.260,0.083
28.265,0.067
28.270,0.067
28.275,0.075
28.280,0.076
28.285,0.061
28.290,0.042
28.295,0.038
28.300,0.044
28.305,0.045
28.310,0.058
28.315,0.064
28.320,-0.018
28.325,-0.193
28.330,-0.424
28.335,-0.715
28.340,-1.006
28.345,-1.213
28.350,-1.285
28.355,-1.250
28.360,-1.012
28.365,-0.432
28.370,0.202
28.375,0.523
28.380,0.574
28.385,0.528
28.390,0.474
28.395,0.454
28.400,0.436
28.405,0.410
28.410,0.395
28.415,0.378
28.420,0.353
28.425,0.332
28.430,0.329
28.435,0.314
28.440,0.275
28.445,0.259
28.450,0.257
28.455,0.236
28.460,0.214
28.465,0.197
28.470,0.186
28.475,0.185
28.480,0.174
28.485,0.152
28.490,0.133
28.495,0.119
28.500,0.113
28.505,0.103
28.510,0.086
28.515,0.072
28.520,0.060
28.525,0.044
28.530,0.019
28.535,-0.014
28.540,-0.034
28.545,-0.031
28.550,-0.032
28.555,-0.051
28.560,-0.064
28.565,-0.076
28.570,-0.098
28.575,-0.108
28.580,-0.113
28.585,-0.127
28.590,-0.131
28.595,-0.122
28.600,-0.124
28.605,-0.129
28.610,-0.121
28.615,-0.091
28.620,-0.062
28.625,-0.045
28.630,-0.028
28.635,-0.022
28.640,-0.018
28.645,-0.003
28.650,0.006
28.655,0.016
28.660,0.035
28.665,0.047
28.670,0.040
28.675,0.028
28.680,0.022
28.685,0.026
28.690,0.033
28.695,0.035
28.700,0.035
28.705,0.030
28.710,0.030
28.715,0.029
28.720,0.016
28.725,0.011
28.730,0.019
28.735,0.025
28.740,0.017
28.745,0.002
28.750,-0.007
28.755,-0.014
28.760,-0.007
28.765,0.001
28.770,-0.009
28.775,-0.026
28.780,-0.049
28.785,-0.066
28.790,-0.072
28.795,-0.074
28.800,-0.082
28.805,-0.099
28.810,-0.108
28.815,-0.131
28.820,-0.160
28.825,-0.135
28.830,-0.096
28.835,-0.078
28.840,-0.057
28.845,-0.048
28.850,-0.027
28.855,0.010
28.860,0.019
28.865,0.024
28.870,0.044
28.875,0.072
28.880,0.096
28.885,0.104
28.890,0.100
28.895,0.092
28.900,0.084
28.905,0.082
28.910,0.075
28.915,0.062
28.920,0.054
28.925,0.050
28.930,0.041
28.935,0.033
28.940,0.046
28.945,0.066
28.950,0.068
28.955,0.000
28.960,-0.172
28.965,-0.418
28.970,-0.702
28.975,-0.973
28.980,-1.192
28.985,-1.300
28.990,-1.267
28.995,-1.044
29.000,-0.535
29.005,0.102
29.010,0.509
29.015,0.592
29.020,0.546
29.025,0.488
29.030,0.452
29.035,0.437
29.040,0.418
29.045,0.397
29.050,0.372
29.055,0.354
29.060,0.344
29.065,0.328
29.070,0.316
29.075,0.303
29.080,0.272
29.085,0.248
29.090,0.245
29.095,0.232
29.100,0.209
29.105,0.199
29.110,0.190
29.115,0.173
29.120,0.153
29.125,0.135
29.130,0.128
29.135,0.118
29.140,0.100
29.145,0.089
29.150,0.080
29.155,0.065
29.160,0.047
29.165,0.033
29.170,0.016
29.175,-0.009
29.180,-0.023
29.185,-0.038
29.190,-0.053
29.195,-0.051
29.200,-0.065
29.205,-0.092
29.210,-0.102
29.215,-0.106
29.220,-0.117
29.225,-0.125
29.230,-0.127
29.235,-0.125
29.240,-0.122
29.245,-0.114
29.250,-0.102
29.255,-0.083
29.260,-0.051
29.265,-0.029
29.270,-0.023
29.275,-0.016
29.280,0.003
29.285,0.015
29.290,0.018
29.295,0.026
29.300,0.021
29.305,0.016
29.310,0.028
29.315,0.030
29.320,0.027
29.325,0.034
29.330,0.034
29.335,0.026
29.340,0.023
29.345,0.022
29.350,0.016
29.355,0.008
29.360,0.007
29.365,0.012
29.370,0.016
29.375,0.013
29.380,0.004
29.385,-0.001
29.390,-0.003
29.395,-0.004
29.400,-0.008
29.405,-0.021
29.410,-0.043
29.415,-0.065
29.420,-0.075
29.425,-0.076
29.430,-0.073
29.435,-0.079
29.440,-0.103
29.445,-0.113
29.450,-0.112
29.455,-0.129
29.460,-0.125
29.465,-0.092
29.470,-0.070
29.475,-0.056
29.480,-0.041
29.485,-0.020
29.490,0.005
29.495,0.024
29.500,0.040
29.505,0.061
29.510,0.080
29.515,0.100
29.520,0.110
29.525,0.111
29.530,0.110
29.535,0.103
29.540,0.090
29.545,0.081
29.550,0.070
29.555,0.058
29.560,0.059
29.565,0.062
29.570,0.051
29.575,0.040
29.580,0.047
29.585,0.060
29.590,0.000
29.595,-0.157
29.600,-0.381
29.605,-0.669
29.610,-0.952
29.615,-1.158
29.620,-1.243
29.625,-1.214
29.630,-1.027
29.635,-0.554
29.640,0.068
29.645,0.473
29.650,0.565
29.655,0.536
29.660,0.484
29.665,0.447
29.670,0.433
29.675,0.414
29.680,0.394
29.685,0.372
29.690,0.358
29.695,0.353
29.700,0.337
29.705,0.311
29.710,0.287
29.715,0.273
29.720,0.261
29.725,0.246
29.730,0.233
29.735,0.220
29.740,0.199
29.745,0.184
29.750,0.172
29.755,0.154
29.760,0.141
29.765,0.128
29.770,0.112
29.775,0.104
29.780,0.097
29.785,0.076
29.790,0.054
29.795,0.039
29.800,0.021
29.805,-0.001
29.810,-0.015
29.815,-0.028
29.820,-0.047
29.825,-0.064
29.830,-0.079
29.835,-0.093
29.840,-0.102
29.845,-0.108
29.850,-0.121
29.855,-0.133
29.860,-0.141
29.865,-0.146
29.870,-0.146
29.875,-0.137
29.880,-0.118
29.885,-0.101
29.890,-0.085
29.895,-0.055
29.900,-0.028
29.905,-0.013
29.910,-0.003
29.915,0.008
29.920,0.020
29.925,0.030
29.930,0.038
29.935,0.037
29.940,0.030
29.945,0.034
29.950,0.041
29.955,0.033
29.960,0.034
29.965,0.039
29.970,0.034
29.975,0.035
29.980,0.041
29.985,0.038
29.990,0.033
29.995,0.034
30.000,0.031
30.005,0.027
30.010,0.028
30.015,0.025
30.020,0.018
30.025,0.016
30.030,0.013
30.035,0.001
30.040,-0.015
30.045,-0.029
30.050,-0.048
30.055,-0.069
30.060,-0.075
30.065,-0.076
30.070,-0.086
30.075,-0.099
30.080,-0.107
30.085,-0.117
30.090,-0.128
30.095,-0.122
30.100,-0.106
30.105,-0.085
30.110,-0.064
30.115,-0.049
30.120,-0.023
30.125,0.015
30.130,0.031
30.135,0.033
30.140,0.051
30.145,0.076
30.150,0.094
30.155,0.102
30.160,0.102
30.165,0.099
30.170,0.090
30.175,0.082
30.180,0.076
30.185,0.060
30.190,0.052
30.195,0.052
30.200,0.044
30.205,0.034
30.210,0.030
30.215,0.037
30.220,0.042
30.225,-0.012
30.230,-0.158
30.235,-0.385
30.240,-0.666
30.245,-0.929
30.250,-1.128
30.255,-1.225
30.260,-1.216
30.265,-1.076
30.270,-0.648
30.275,-0.011
30.280,0.427
30.285,0.530
30.290,0.517
30.295,0.484
30.300,0.448
30.305,0.436
30.310,0.420
30.315,0.402
30.320,0.388
30.325,0.368
30.330,0.346
30.335,0.328
30.340,0.313
30.345,0.295
30.350,0.278
30.355,0.260
30.360,0.247
30.365,0.236
30.370,0.215
30.375,0.197
30.380,0.187
30.385,0.172
30.390,0.156
30.395,0.148
30.400,0.136
30.405,0.114
30.410,0.100
30.415,0.090
30.420,0.069
30.425,0.052
30.430,0.045
30.435,0.031
30.440,0.011
30.445,-0.004
30.450,-0.020
30.455,-0.038
30.460,-0.049
30.465,-0.063
30.470,-0.082
30.475,-0.095
30.480,-0.110
30.485,-0.126
30.490,-0.139
30.495,-0.144
30.500,-0.146
30.505,-0.149
30.510,-0.139
30.515,-0.120
30.520,-0.107
30.525,-0.087
30.530,-0.058
30.535,-0.039
30.540,-0.023
30.545,-0.004
30.550,0.010
30.555,0.019
30.560,0.030
30.565,0.038
30.570,0.035
30.575,0.031
30.580,0.034
30.585,0.035
30.590,0.035
30.595,0.038
30.600,0.036
30.605,0.032
30.610,0.037
30.615,0.037
30.620,0.033
30.625,0.035
30.630,0.040
30.635,0.034
30.640,0.027
30.645,0.032
30.650,0.032
30.655,0.027
30.660,0.028
30.665,0.027
30.670,0.016
30.675,0.002
30.680,-0.012
30.685,-0.037
30.690,-0.062
30.695,-0.070
30.700,-0.073
30.705,-0.079
30.710,-0.090
30.715,-0.104
30.720,-0.120
30.725,-0.129
30.730,-0.119
30.735,-0.102
30.740,-0.087
30.745,-0.067
30.750,-0.052
30.755,-0.034
30.760,0.004
30.765,0.028
30.770,0.031
30.775,0.049
30.780,0.068
30.785,0.079
30.790,0.093
30.795,0.099
30.800,0.097
30.805,0.093
30.810,0.090
30.815,0.084
30.820,0.071
30.825,0.061
30.830,0.057
30.835,0.051
30.840,0.044
30.845,0.041
30.850,0.043
30.855,0.046
30.860,0.011
30.865,-0.114
30.870,-0.312
30.875,-0.571
30.880,-0.849
30.885,-1.074
30.890,-1.213
30.895,-1.243
30.900,-1.171
30.905,-0.869
30.910,-0.272
30.915,0.260
30.920,0.461
30.925,0.497
30.930,0.499
30.935,0.466
30.940,0.448
30.945,0.445
30.950,0.427
30.955,0.403
30.960,0.387
30.965,0.376
30.970,0.354
30.975,0.331
30.980,0.314
30.985,0.300
30.990,0.284
30.995,0.268
31.000,0.252
31.005,0.231
31.010,0.215
31.015,0.205
31.020,0.191
31.025,0.175
31.030,0.161
31.035,0.145
31.040,0.130
31.045,0.121
31.050,0.106
31.055,0.090
31.060,0.081
31.065,0.065
31.070,0.042
31.075,0.027
31.080,0.013
31.085,-0.007
31.090,-0.026
31.095,-0.036
31.100,-0.048
31.105,-0.066
31.110,-0.077
31.115,-0.089
31.120,-0.104
31.125,-0.115
31.130,-0.127
31.135,-0.136
31.140,-0.139
31.145,-0.134
31.150,-0.126
31.155,-0.115
31.160,-0.096
31.165,-0.075
31.170,-0.058
31.175,-0.038
31.180,-0.018
31.185,-0.005
31.190,0.004
31.195,0.016
31.200,0.023
31.205,0.022
31.210,0.025
31.215,0.028
31.220,0.026
31.225,0.030
31.230,0.035
31.235,0.029
31.240,0.024
31.245,0.026
31.250,0.027
31.255,0.024
31.260,0.029
31.265,0.036
31.270,0.031
31.275,0.027
31.280,0.028
31.285,0.023
31.290,0.018
31.295,0.021
31.300,0.020
31.305,0.015
31.310,0.011
31.315,0.002
31.320,-0.021
31.325,-0.045
31.330,-0.057
31.335,-0.068
31.340,-0.082
31.345,-0.088
31.350,-0.095
31.355,-0.111
31.360,-0.123
31.365,-0.131
31.370,-0.125
31.375,-0.104
31.380,-0.084
31.385,-0.072
31.390,-0.059
31.395,-0.031
31.400,0.005
31.405,0.025
31.410,0.033
31.415,0.050
31.420,0.065
31.425,0.073
31.430,0.085
31.435,0.096
31.440,0.098
31.445,0.094
31.450,0.086
31.455,0.075
31.460,0.071
31.465,0.068
31.470,0.057
31.475,0.043
31.480,0.032
31.485,0.024
31.490,0.025
31.495,0.038
31.500,0.011
31.505,-0.110
31.510,-0.301
31.515,-0.559
31.520,-0.853
31.525,-1.093
31.530,-1.233
31.535,-1.264
31.540,-1.199
31.545,-0.908
31.550,-0.312
31.555,0.239
31.560,0.444
31.565,0.484
31.570,0.504
31.575,0.478
31.580,0.459
31.585,0.450
31.590,0.432
31.595,0.421
31.600,0.401
31.605,0.375
31.610,0.359
31.615,0.346
31.620,0.328
31.625,0.317
31.630,0.310
31.635,0.292
31.640,0.267
31.645,0.247
31.650,0.228
31.655,0.210
31.660,0.200
31.665,0.183
31.670,0.166
31.675,0.160
31.680,0.148
31.685,0.123
31.690,0.102
31.695,0.090
31.700,0.069
31.705,0.049
31.710,0.034
31.715,0.015
31.720,-0.001
31.725,-0.015
31.730,-0.035
31.735,-0.055
31.740,-0.075
31.745,-0.085
31.750,-0.085
31.755,-0.096
31.760,-0.111
31.765,-0.122
31.770,-0.137
31.775,-0.143
31.780,-0.146
31.785,-0.145
31.790,-0.133
31.795,-0.109
31.800,-0.084
31.805,-0.067
31.810,-0.045
31.815,-0.023
31.820,-0.007
31.825,0.010
31.830,0.024
31.835,0.029
31.840,0.036
31.845,0.048
31.850,0.045
31.855,0.029
31.860,0.026
31.865,0.037
31.870,0.046
31.875,0.052
31.880,0.056
31.885,0.052
31.890,0.049
31.895,0.050
31.900,0.046
31.905,0.039
31.910,0.041
31.915,0.043
31.920,0.040
31.925,0.031
31.930,0.029
31.935,0.036
31.940,0.030
31.945,0.015
31.950,-0.003
31.955,-0.017
31.960,-0.030
31.965,-0.050
31.970,-0.074
31.975,-0.090
31.980,-0.086
31.985,-0.079
31.990,-0.088
31.995,-0.099
32.000,-0.121
32.005,-0.145
32.010,-0.133
32.015,-0.105
32.020,-0.087
32.025,-0.066
32.030,-0.041
32.035,-0.018
32.040,0.006
32.045,0.029
32.050,0.050
32.055,0.073
32.060,0.088
32.065,0.096
32.070,0.107
32.075,0.116
32.080,0.107
32.085,0.091
32.090,0.081
32.095,0.076
32.100,0.062
32.105,0.048
32.110,0.048
32.115,0.057
32.120,0.053
32.125,0.034
32.130,0.040
32.135,0.060
32.140,0.013
32.145,-0.131
32.150,-0.362
32.155,-0.651
32.160,-0.938
32.165,-1.172
32.170,-1.290
32.175,-1.290
32.180,-1.083
32.185,-0.539
32.190,0.106
32.195,0.480
32.200,0.556
32.205,0.512
32.210,0.457
32.215,0.435
32.220,0.424
32.225,0.402
32.230,0.388
32.235,0.372
32.240,0.351
32.245,0.332
32.250,0.317
32.255,0.293
32.260,0.272
32.265,0.268
32.270,0.257
32.275,0.235
32.280,0.216
32.285,0.197
32.290,0.184
32.295,0.174
32.300,0.163
32.305,0.148
32.310,0.135
32.315,0.124
32.320,0.110
32.325,0.096
32.330,0.082
32.335,0.066
32.340,0.050
32.345,0.042
32.350,0.027
32.355,-0.003
32.360,-0.022
32.365,-0.026
32.370,-0.035
32.375,-0.047
32.380,-0.065
32.385,-0.077
32.390,-0.083
32.395,-0.098
32.400,-0.111
32.405,-0.115
32.410,-0.120
32.415,-0.124
32.420,-0.123
32.425,-0.114
32.430,-0.099
32.435,-0.091
32.440,-0.083
32.445,-0.056
32.450,-0.032
32.455,-0.014
32.460,0.004
32.465,0.007
32.470,0.013
32.475,0.018
32.480,0.022
32.485,0.034
32.490,0.040
32.495,0.036
32.500,0.032
32.505,0.029
32.510,0.032
32.515,0.039
32.520,0.037
32.525,0.032
32.530,0.030
32.535,0.028
32.540,0.026
32.545,0.020
32.550,0.005
32.555,-0.007
32.560,-0.002
32.565,0.010
32.570,0.006
32.575,-0.008
32.580,-0.007
32.585,-0.008
32.590,-0.024
32.595,-0.037
32.600,-0.053
32.605,-0.074
32.610,-0.086
32.615,-0.085
32.620,-0.078
32.625,-0.083
32.630,-0.095
32.635,-0.108
32.640,-0.129
32.645,-0.135
32.650,-0.122
32.655,-0.097
32.660,-0.068
32.665,-0.049
32.670,-0.033
32.675,-0.004
32.680,0.029
32.685,0.039
32.690,0.049
32.695,0.076
32.700,0.092
32.705,0.091
32.710,0.095
32.715,0.099
32.720,0.085
32.725,0.070
32.730,0.064
32.735,0.061
32.740,0.060
32.745,0.060
32.750,0.055
32.755,0.043
32.760,0.041
32.765,0.050
32.770,0.060
32.775,0.032
32.780,-0.095
32.785,-0.306
32.790,-0.572
32.795,-0.865
32.800,-1.130
32.805,-1.288
32.810,-1.305
32.815,-1.186
32.820,-0.800
32.825,-0.152
32.830,0.380
32.835,0.577
32.840,0.575
32.845,0.512
32.850,0.468
32.855,0.454
32.860,0.438
32.865,0.418
32.870,0.394
32.875,0.383
32.880,0.371
32.885,0.347
32.890,0.326
32.895,0.312
32.900,0.295
32.905,0.276
32.910,0.256
32.915,0.239
32.920,0.232
32.925,0.226
32.930,0.211
32.935,0.187
32.940,0.170
32.945,0.162
32.950,0.146
32.955,0.123
32.960,0.109
32.965,0.100
32.970,0.083
32.975,0.067
32.980,0.055
32.985,0.036
32.990,0.018
32.995,0.006
33.000,-0.001
33.005,-0.012
33.010,-0.027
33.015,-0.041
33.020,-0.057
33.025,-0.076
33.030,-0.093
33.035,-0.106
33.040,-0.117
33.045,-0.123
33.050,-0.127
33.055,-0.128
33.060,-0.120
33.065,-0.112
33.070,-0.105
33.075,-0.093
33.080,-0.080
33.085,-0.068
33.090,-0.048
33.095,-0.022
33.100,-0.009
33.105,-0.006
33.110,0.004
33.115,0.018
33.120,0.021
33.125,0.018
33.130,0.018
33.135,0.015
33.140,0.020
33.145,0.032
33.150,0.031
33.155,0.021
33.160,0.025
33.165,0.030
33.170,0.019
33.175,0.013
33.180,0.016
33.185,0.016
33.190,0.011
33.195,0.004
33.200,0.001
33.205,-0.003
33.210,-0.002
33.215,-0.005
33.220,-0.017
33.225,-0.025
33.230,-0.037
33.235,-0.059
33.240,-0.075
33.245,-0.079
33.250,-0.081
33.255,-0.080
33.260,-0.088
33.265,-0.105
33.270,-0.119
33.275,-0.132
33.280,-0.132
33.285,-0.118
33.290,-0.094
33.295,-0.066
33.300,-0.051
33.305,-0.034
33.310,0.004
33.315,0.032
33.320,0.031
33.325,0.038
33.330,0.059
33.335,0.081
33.340,0.105
33.345,0.119
33.350,0.116
33.355,0.108
33.360,0.100
33.365,0.086
33.370,0.070
33.375,0.066
33.380,0.070
33.385,0.064
33.390,0.052
33.395,0.053
33.400,0.056
33.405,0.060
33.410,0.047
33.415,-0.052
33.420,-0.243
33.425,-0.496
33.430,-0.786
33.435,-1.049
33.440,-1.220
33.445,-1.263
33.450,-1.206
33.455,-0.927
33.460,-0.324
33.465,0.262
33.470,0.521
33.475,0.558
33.480,0.522
33.485,0.473
33.490,0.453
33.495,0.445
33.500,0.426
33.505,0.404
33.510,0.386
33.515,0.368
33.520,0.345
33.525,0.326
33.530,0.310
33.535,0.292
33.540,0.274
33.545,0.257
33.550,0.242
33.555,0.226
33.560,0.214
33.565,0.199
33.570,0.179
33.575,0.166
33.580,0.154
33.585,0.139
33.590,0.126
33.595,0.113
33.600,0.096
33.605,0.083
33.610,0.068
33.615,0.050
33.620,0.033
33.625,0.019
33.630,0.003
33.635,-0.013
33.640,-0.025
33.645,-0.041
33.650,-0.058
33.655,-0.073
33.660,-0.085
33.665,-0.099
33.670,-0.118
33.675,-0.128
33.680,-0.129
33.685,-0.138
33.690,-0.147
33.695,-0.139
33.700,-0.125
33.705,-0.115
33.710,-0.100
33.715,-0.079
33.720,-0.059
33.725,-0.039
33.730,-0.022
33.735,-0.010
33.740,0.002
33.745,0.016
33.750,0.021
33.755,0.021
33.760,0.028
33.765,0.033
33.770,0.034
33.775,0.034
33.780,0.030
33.785,0.025
33.790,0.023
33.795,0.027
33.800,0.029
33.805,0.029
33.810,0.034
33.815,0.034
33.820,0.025
33.825,0.025
33.830,0.025
33.835,0.022
33.840,0.022
33.845,0.020
33.850,0.017
33.855,0.011
33.860,0.002
33.865,-0.014
33.870,-0.039
33.875,-0.056
33.880,-0.068
33.885,-0.082
33.890,-0.090
33.895,-0.088
33.900,-0.097
33.905,-0.115
33.910,-0.123
33.915,-0.129
33.920,-0.121
33.925,-0.097
33.930,-0.079
33.935,-0.065
33.940,-0.048
33.945,-0.018
33.950,0.013
33.955,0.029
33.960,0.044
33.965,0.065
33.970,0.079
33.975,0.092
33.980,0.106
33.985,0.107
33.990,0.103
33.995,0.101
34.000,0.089
34.005,0.079
34.010,0.077
34.015,0.065
34.020,0.053
34.025,0.053
34.030,0.053
34.035,0.045
34.040,0.047
34.045,0.055
34.050,-0.002
34.055,-0.152
34.060,-0.365
34.065,-0.636
34.070,-0.916
34.075,-1.127
34.080,-1.241
34.085,-1.262
34.090,-1.147
34.095,-0.749
34.100,-0.127
34.105,0.334
34.110,0.483
34.115,0.519
34.120,0.507
34.125,0.470
34.130,0.467
34.135,0.454
34.140,0.433
34.145,0.422
34.150,0.399
34.155,0.374
34.160,0.360
34.165,0.345
34.170,0.326
34.175,0.308
34.180,0.293
34.185,0.274
34.190,0.257
34.195,0.244
34.200,0.228
34.205,0.211
34.210,0.198
34.215,0.185
34.220,0.168
34.225,0.152
34.230,0.138
34.235,0.122
34.240,0.107
34.245,0.098
34.250,0.082
34.255,0.063
34.260,0.051
34.265,0.034
34.270,0.011
34.275,-0.005
34.280,-0.020
34.285,-0.039
34.290,-0.057
34.295,-0.068
34.300,-0.083
34.305,-0.104
34.310,-0.117
34.315,-0.122
34.320,-0.138
34.325,-0.149
34.330,-0.141
34.335,-0.134
34.340,-0.130
34.345,-0.112
34.350,-0.095
34.355,-0.078
34.360,-0.052
34.365,-0.030
34.370,-0.020
34.375,-0.007
34.380,0.007
34.385,0.010
34.390,0.014
34.395,0.021
34.400,0.019
34.405,0.015
34.410,0.020
34.415,0.022
34.420,0.018
34.425,0.021
34.430,0.022
34.435,0.019
34.440,0.022
34.445,0.026
34.450,0.023
34.455,0.023
34.460,0.026
34.465,0.025
34.470,0.023
34.475,0.028
34.480,0.020
34.485,0.010
34.490,0.013
34.495,0.013
34.500,0.000
34.505,-0.024
34.510,-0.044
34.515,-0.059
34.520,-0.075
34.525,-0.081
34.530,-0.079
34.535,-0.090
34.540,-0.104
34.545,-0.111
34.550,-0.125
34.555,-0.128
34.560,-0.108
34.565,-0.090
34.570,-0.078
34.575,-0.059
34.580,-0.029
34.585,0.003
34.590,0.022
34.595,0.030
34.600,0.048
34.605,0.065
34.610,0.073
34.615,0.086
34.620,0.091
34.625,0.090
34.630,0.086
34.635,0.077
34.640,0.068
34.645,0.063
34.650,0.059
34.655,0.054
34.660,0.052
34.665,0.045
34.670,0.037
34.675,0.039
34.680,0.047
34.685,0.008
34.690,-0.122
34.695,-0.321
34.700,-0.577
34.705,-0.855
34.710,-1.088
34.715,-1.235
34.720,-1.282
34.725,-1.218
34.730,-0.908
34.735,-0.320
34.740,0.198
34.745,0.403
34.750,0.475
34.755,0.507
34.760,0.483
34.765,0.477
34.770,0.472
34.775,0.453
34.780,0.439
34.785,0.418
34.790,0.398
34.795,0.381
34.800,0.359
34.805,0.339
34.810,0.323
34.815,0.305
34.820,0.285
34.825,0.270
34.830,0.258
34.835,0.239
34.840,0.221
34.845,0.210
34.850,0.189
34.855,0.170
34.860,0.162
34.865,0.146
34.870,0.128
34.875,0.115
34.880,0.100
34.885,0.080
34.890,0.064
34.895,0.052
34.900,0.033
34.905,0.012
34.910,-0.003
34.915,-0.018
34.920,-0.038
34.925,-0.054
34.930,-0.065
34.935,-0.085
34.940,-0.105
34.945,-0.114
34.950,-0.120
34.955,-0.135
34.960,-0.139
34.965,-0.134
34.970,-0.136
34.975,-0.127
34.980,-0.107
34.985,-0.094
34.990,-0.074
34.995,-0.045
35.000,-0.028
35.005,-0.016
35.010,-0.003
35.015,0.007
35.020,0.015
35.025,0.027
35.030,0.028
35.035,0.021
35.040,0.025
35.045,0.029
35.050,0.028
35.055,0.031
35.060,0.035
35.065,0.034
35.070,0.032
35.075,0.034
35.080,0.038
35.085,0.038
35.090,0.033
35.095,0.032
35.100,0.027
35.105,0.022
35.110,0.026
35.115,0.026
35.120,0.018
35.125,0.016
35.130,0.016
35.135,0.008
35.140,0.003
35.145,-0.004
35.150,-0.029
35.155,-0.058
35.160,-0.076
35.165,-0.085
35.170,-0.091
35.175,-0.092
35.180,-0.104
35.185,-0.125
35.190,-0.136
35.195,-0.142
35.200,-0.135
35.205,-0.119
35.210,-0.101
35.215,-0.081
35.220,-0.060
35.225,-0.030
35.230,0.006
35.235,0.025
35.240,0.043
35.245,0.068
35.250,0.077
35.255,0.082
35.260,0.097
35.265,0.099
35.270,0.088
35.275,0.080
35.280,0.075
35.285,0.074
35.290,0.076
35.295,0.068
35.300,0.054
35.305,0.047
35.310,0.047
35.315,0.048
35.320,0.051
35.325,0.062
35.330,0.014
35.335,-0.135
35.340,-0.354
35.345,-0.647
35.350,-0.958
35.355,-1.178
35.360,-1.264
35.365,-1.257
35.370,-1.116
35.375,-0.660
35.380,-0.004
35.385,0.419
35.390,0.508
35.395,0.504
35.400,0.476
35.405,0.441
35.410,0.442
35.415,0.429
35.420,0.405
35.425,0.394
35.430,0.383
35.435,0.359
35.440,0.336
35.445,0.327
35.450,0.311
35.455,0.290
35.460,0.275
35.465,0.255
35.470,0.232
35.475,0.220
35.480,0.215
35.485,0.198
35.490,0.175
35.495,0.157
35.500,0.142
35.505,0.128
35.510,0.118
35.515,0.109
35.520,0.100
35.525,0.088
35.530,0.068
35.535,0.046
35.540,0.031
35.545,0.017
35.550,-0.010
35.555,-0.036
35.560,-0.049
35.565,-0.061
35.570,-0.071
35.575,-0.075
35.580,-0.086
35.585,-0.106
35.590,-0.114
35.595,-0.113
35.600,-0.126
35.605,-0.145
35.610,-0.151
35.615,-0.141
35.620,-0.118
35.625,-0.087
35.630,-0.069
35.635,-0.065
35.640,-0.051
35.645,-0.021
35.650,0.003
35.655,0.007
35.660,0.015
35.665,0.027
35.670,0.038
35.675,0.045
35.680,0.049
35.685,0.048
35.690,0.045
35.695,0.051
35.700,0.056
35.705,0.054
35.710,0.047
35.715,0.032
35.720,0.028
35.725,0.047
35.730,0.054
35.735,0.033
35.740,0.027
35.745,0.039
35.750,0.036
35.755,0.026
35.760,0.018
35.765,0.007
35.770,0.001
35.775,-0.005
35.780,-0.020
35.785,-0.043
35.790,-0.063
35.795,-0.074
35.800,-0.080
35.805,-0.086
35.810,-0.090
35.815,-0.097
35.820,-0.110
35.825,-0.125
35.830,-0.135
35.835,-0.134
35.840,-0.118
35.845,-0.086
35.850,-0.062
35.855,-0.045
35.860,-0.012
35.865,0.017
35.870,0.034
35.875,0.051
35.880,0.069
35.885,0.081
35.890,0.093
35.895,0.110
35.900,0.117
35.905,0.112
35.910,0.101
35.915,0.081
35.920,0.070
35.925,0.074
35.930,0.074
35.935,0.073
35.940,0.067
35.945,0.054
35.950,0.045
35.955,0.050
35.960,0.072
35.965,0.034
35.970,-0.106
35.975,-0.322
35.980,-0.613
35.985,-0.925
35.990,-1.172
35.995,-1.289
36.000,-1.293
36.005,-1.106
36.010,-0.579
36.015,0.064
36.020,0.459
36.025,0.574
36.030,0.545
36.035,0.475
36.040,0.449
36.045,0.439
36.050,0.413
36.055,0.391
36.060,0.373
36.065,0.354
36.070,0.328
36.075,0.312
36.080,0.300
36.085,0.278
36.090,0.266
36.095,0.252
36.100,0.221
36.105,0.203
36.110,0.200
36.115,0.191
36.120,0.172
36.125,0.157
36.130,0.144
36.135,0.120
36.140,0.110
36.145,0.111
36.150,0.094
36.155,0.076
36.160,0.068
36.165,0.053
36.170,0.035
36.175,0.021
36.180,0.001
36.185,-0.026
36.190,-0.031
36.195,-0.019
36.200,-0.026
36.205,-0.053
36.210,-0.084
36.215,-0.107
36.220,-0.113
36.225,-0.107
36.230,-0.101
36.235,-0.108
36.240,-0.127
36.245,-0.136
36.250,-0.132
36.255,-0.125
36.260,-0.109
36.265,-0.078
36.270,-0.052
36.275,-0.035
36.280,-0.019
36.285,-0.007
36.290,0.008
36.295,0.022
36.300,0.022
36.305,0.023
36.310,0.028
36.315,0.032
36.320,0.039
36.325,0.037
36.330,0.024
36.335,0.025
36.340,0.036
36.345,0.032
36.350,0.022
36.355,0.015
36.360,0.011
36.365,0.013
36.370,0.019
36.375,0.019
36.380,0.010
36.385,-0.003
36.390,-0.012
36.395,-0.011
36.400,-0.009
36.405,-0.011
36.410,-0.005
36.415,-0.009
36.420,-0.031
36.425,-0.051
36.430,-0.070
36.435,-0.081
36.440,-0.076
36.445,-0.078
36.450,-0.097
36.455,-0.120
36.460,-0.129
36.465,-0.130
36.470,-0.127
36.475,-0.110
36.480,-0.088
36.485,-0.070
36.490,-0.061
36.495,-0.041
36.500,0.002
36.505,0.027
36.510,0.029
36.515,0.046
36.520,0.073
36.525,0.095
36.530,0.111
36.535,0.106
36.540,0.096
36.545,0.089
36.550,0.081
36.555,0.076
36.560,0.071
36.565,0.065
36.570,0.060
36.575,0.057
36.580,0.046
36.585,0.035
36.590,0.037
36.595,0.052
36.600,0.025
36.605,-0.098
36.610,-0.297
36.615,-0.565
36.620,-0.861
36.625,-1.102
36.630,-1.245
36.635,-1.272
36.640,-1.144
36.645,-0.745
36.650,-0.112
36.655,0.403
36.660,0.587
36.665,0.570
36.670,0.501
36.675,0.453
36.680,0.439
36.685,0.420
36.690,0.397
36.695,0.387
36.700,0.372
36.705,0.348
36.710,0.327
36.715,0.309
36.720,0.295
36.725,0.281
36.730,0.263
36.735,0.241
36.740,0.226
36.745,0.219
36.750,0.205
36.755,0.182
36.760,0.167
36.765,0.161
36.770,0.145
36.775,0.131
36.780,0.126
36.785,0.117
36.790,0.099
36.795,0.076
36.800,0.066
36.805,0.059
36.810,0.037
36.815,0.012
36.820,-0.009
36.825,-0.022
36.830,-0.031
36.835,-0.042
36.840,-0.056
36.845,-0.071
36.850,-0.085
36.855,-0.096
36.860,-0.102
36.865,-0.114
36.870,-0.132
36.875,-0.143
36.880,-0.149
36.885,-0.150
36.890,-0.133
36.895,-0.107
36.900,-0.090
36.905,-0.077
36.910,-0.057
36.915,-0.038
36.920,-0.024
36.925,-0.006
36.930,0.013
36.935,0.024
36.940,0.029
36.945,0.030
36.950,0.028
36.955,0.026
36.960,0.026
36.965,0.030
36.970,0.032
36.975,0.026
36.980,0.023
36.985,0.026
36.990,0.028
36.995,0.034
37.000,0.033
37.005,0.027
37.010,0.025
37.015,0.020
37.020,0.018
37.025,0.020
37.030,0.015
37.035,0.010
37.040,0.005
37.045,-0.008
37.050,-0.030
37.055,-0.050
37.060,-0.057
37.065,-0.069
37.070,-0.085
37.075,-0.075
37.080,-0.074
37.085,-0.098
37.090,-0.109
37.095,-0.115
37.100,-0.117
37.105,-0.092
37.110,-0.072
37.115,-0.068
37.120,-0.057
37.125,-0.035
37.130,-0.001
37.135,0.024
37.140,0.030
37.145,0.051
37.150,0.079
37.155,0.100
37.160,0.123
37.165,0.126
37.170,0.108
37.175,0.094
37.180,0.082
37.185,0.076
37.190,0.079
37.195,0.077
37.200,0.064
37.205,0.059
37.210,0.050
37.215,0.036
37.220,0.036
37.225,0.052
37.230,0.036
37.235,-0.087
37.240,-0.294
37.245,-0.561
37.250,-0.859
37.255,-1.100
37.260,-1.235
37.265,-1.243
37.270,-1.145
37.275,-0.817
37.280,-0.192
37.285,0.362
37.290,0.569
37.295,0.570
37.300,0.528
37.305,0.484
37.310,0.455
37.315,0.432
37.320,0.419
37.325,0.407
37.330,0.389
37.335,0.368
37.340,0.347
37.345,0.332
37.350,0.311
37.355,0.292
37.360,0.280
37.365,0.254
37.370,0.221
37.375,0.206
37.380,0.201
37.385,0.191
37.390,0.181
37.395,0.174
37.400,0.152
37.405,0.130
37.410,0.124
37.415,0.110
37.420,0.084
37.425,0.075
37.430,0.068
37.435,0.051
37.440,0.033
37.445,0.007
37.450,-0.023
37.455,-0.041
37.460,-0.048
37.465,-0.061
37.470,-0.079
37.475,-0.084
37.480,-0.094
37.485,-0.123
37.490,-0.138
37.495,-0.137
37.500,-0.145
37.505,-0.157
37.510,-0.155
37.515,-0.145
37.520,-0.138
37.525,-0.122
37.530,-0.097
37.535,-0.074
37.540,-0.051
37.545,-0.033
37.550,-0.016
37.555,0.002
37.560,0.018
37.565,0.025
37.570,0.026
37.575,0.032
37.580,0.041
37.585,0.044
37.590,0.043
37.595,0.035
37.600,0.031
37.605,0.035
37.610,0.038
37.615,0.039
37.620,0.037
37.625,0.035
37.630,0.036
37.635,0.037
37.640,0.034
37.645,0.033
37.650,0.037
37.655,0.035
37.660,0.028
37.665,0.020
37.670,0.009
37.675,-0.005
37.680,-0.026
37.685,-0.048
37.690,-0.052
37.695,-0.053
37.700,-0.063
37.705,-0.085
37.710,-0.108
37.715,-0.113
37.720,-0.123
37.725,-0.121
37.730,-0.096
37.735,-0.080
37.740,-0.064
37.745,-0.045
37.750,-0.037
37.755,-0.010
37.760,0.024
37.765,0.028
37.770,0.039
37.775,0.070
37.780,0.089
37.785,0.098
37.790,0.105
37.795,0.101
37.800,0.095
37.805,0.092
37.810,0.084
37.815,0.075
37.820,0.062
37.825,0.048
37.830,0.044
37.835,0.038
37.840,0.031
37.845,0.034
37.850,0.045
37.855,0.016
37.860,-0.106
37.865,-0.310
37.870,-0.583
37.875,-0.876
37.880,-1.111
37.885,-1.239
37.890,-1.239
37.895,-1.131
37.900,-0.781
37.905,-0.148
37.910,0.375
37.915,0.537
37.920,0.529
37.925,0.493
37.930,0.443
37.935,0.423
37.940,0.419
37.945,0.403
37.950,0.382
37.955,0.364
37.960,0.350
37.965,0.329
37.970,0.305
37.975,0.286
37.980,0.274
37.985,0.262
37.990,0.245
37.995,0.230
38.000,0.215
38.005,0.195
38.010,0.186
38.015,0.180
38.020,0.165
38.025,0.151
38.030,0.134
38.035,0.117
38.040,0.105
38.045,0.088
38.050,0.068
38.055,0.055
38.060,0.043
38.065,0.029
38.070,0.014
38.075,-0.002
38.080,-0.020
38.085,-0.040
38.090,-0.056
38.095,-0.069
38.100,-0.087
38.105,-0.102
38.110,-0.113
38.115,-0.121
38.120,-0.133
38.125,-0.142
38.130,-0.145
38.135,-0.145
38.140,-0.139
38.145,-0.127
38.150,-0.111
38.155,-0.093
38.160,-0.073
38.165,-0.052
38.170,-0.035
38.175,-0.015
38.180,0.000
38.185,0.007
38.190,0.015
38.195,0.023
38.200,0.027
38.205,0.029
38.210,0.035
38.215,0.045
38.220,0.046
38.225,0.042
38.230,0.039
38.235,0.035
38.240,0.037
38.245,0.036
38.250,0.032
38.255,0.034
38.260,0.036
38.265,0.037
38.270,0.036
38.275,0.028
38.280,0.026
38.285,0.027
38.290,0.019
38.295,0.007
38.300,-0.004
38.305,-0.015
38.310,-0.027
38.315,-0.043
38.320,-0.056
38.325,-0.063
38.330,-0.080
38.335,-0.102
38.340,-0.112
38.345,-0.122
38.350,-0.121
38.355,-0.100
38.360,-0.082
38.365,-0.067
38.370,-0.055
38.375,-0.039
38.380,-0.007
38.385,0.013
38.390,0.021
38.395,0.039
38.400,0.061
38.405,0.084
38.410,0.107
38.415,0.106
38.420,0.094
38.425,0.097
38.430,0.096
38.435,0.087
38.440,0.078
38.445,0.067
38.450,0.057
38.455,0.052
38.460,0.049
38.465,0.043
38.470,0.045
38.475,0.061
38.480,0.025
38.485,-0.114
38.490,-0.320
38.495,-0.587
38.500,-0.880
38.505,-1.111
38.510,-1.225
38.515,-1.224
38.520,-1.104
38.525,-0.735
38.530,-0.112
38.535,0.384
38.540,0.531
38.545,0.520
38.550,0.478
38.555,0.434
38.560,0.426
38.565,0.420
38.570,0.396
38.575,0.377
38.580,0.364
38.585,0.347
38.590,0.333
38.595,0.316
38.600,0.294
38.605,0.278
38.610,0.267
38.615,0.250
38.620,0.230
38.625,0.213
38.630,0.198
38.635,0.182
38.640,0.164
38.645,0.149
38.650,0.135
38.655,0.120
38.660,0.112
38.665,0.099
38.670,0.081
38.675,0.073
38.680,0.063
38.685,0.039
38.690,0.023
38.695,0.013
38.700,-0.008
38.705,-0.028
38.710,-0.042
38.715,-0.062
38.720,-0.085
38.725,-0.098
38.730,-0.104
38.735,-0.118
38.740,-0.133
38.745,-0.141
38.750,-0.153
38.755,-0.163
38.760,-0.157
38.765,-0.140
38.770,-0.120
38.775,-0.103
38.780,-0.086
38.785,-0.068
38.790,-0.047
38.795,-0.020
38.800,0.001
38.805,0.014
38.810,0.025
38.815,0.033
38.820,0.040
38.825,0.056
38.830,0.063
38.835,0.045
38.840,0.034
38.845,0.037
38.850,0.038
38.855,0.034
38.860,0.037
38.865,0.036
38.870,0.028
38.875,0.032
38.880,0.036
38.885,0.032
38.890,0.034
38.895,0.037
38.900,0.036
38.905,0.035
38.910,0.037
38.915,0.027
38.920,0.009
38.925,-0.009
38.930,-0.031
38.935,-0.049
38.940,-0.057
38.945,-0.059
38.950,-0.063
38.955,-0.081
38.960,-0.097
38.965,-0.109
38.970,-0.123
38.975,-0.113
38.980,-0.090
38.985,-0.077
38.990,-0.058
38.995,-0.042
39.000,-0.025
39.005,0.006
39.010,0.028
39.015,0.031
39.020,0.044
39.025,0.068
39.030,0.088
39.035,0.098
39.040,0.102
39.045,0.103
39.050,0.094
39.055,0.082
39.060,0.076
39.065,0.069
39.070,0.057
39.075,0.049
39.080,0.042
39.085,0.032
39.090,0.031
39.095,0.041
39.100,0.048
39.105,-0.007
39.110,-0.146
39.115,-0.354
39.120,-0.631
39.125,-0.911
39.130,-1.118
39.135,-1.224
39.140,-1.229
39.145,-1.089
39.150,-0.650
39.155,-0.004
39.160,0.432
39.165,0.526
39.170,0.506
39.175,0.471
39.180,0.444
39.185,0.441
39.190,0.427
39.195,0.410
39.200,0.394
39.205,0.373
39.210,0.353
39.215,0.334
39.220,0.314
39.225,0.296
39.230,0.280
39.235,0.262
39.240,0.246
39.245,0.231
39.250,0.216
39.255,0.200
39.260,0.185
39.265,0.166
39.270,0.150
39.275,0.140
39.280,0.132
39.285,0.116
39.290,0.099
39.295,0.086
39.300,0.070
39.305,0.056
39.310,0.042
39.315,0.020
39.320,0.002
39.325,-0.009
39.330,-0.022
39.335,-0.040
39.340,-0.056
39.345,-0.067
39.350,-0.080
39.355,-0.096
39.360,-0.113
39.365,-0.127
39.370,-0.132
39.375,-0.135
39.380,-0.142
39.385,-0.145
39.390,-0.136
39.395,-0.122
39.400,-0.106
39.405,-0.086
39.410,-0.066
39.415,-0.050
39.420,-0.031
39.425,-0.010
39.430,0.005
39.435,0.012
39.440,0.017
39.445,0.023
39.450,0.024
39.455,0.027
39.460,0.035
39.465,0.034
39.470,0.029
39.475,0.031
39.480,0.033
39.485,0.031
39.490,0.029
39.495,0.030
39.500,0.030
39.505,0.025
39.510,0.023
39.515,0.024
39.520,0.024
39.525,0.025
39.530,0.023
39.535,0.013
39.540,0.007
39.545,-0.003
39.550,-0.029
39.555,-0.052
39.560,-0.063
39.565,-0.074
39.570,-0.081
39.575,-0.081
39.580,-0.090
39.585,-0.110
39.590,-0.124
39.595,-0.126
39.600,-0.115
39.605,-0.095
39.610,-0.076
39.615,-0.064
39.620,-0.049
39.625,-0.018
39.630,0.015
39.635,0.027
39.640,0.036
39.645,0.060
39.650,0.076
39.655,0.086
39.660,0.100
39.665,0.102
39.670,0.093
39.675,0.088
39.680,0.081
39.685,0.071
39.690,0.065
39.695,0.061
39.700,0.052
39.705,0.046
39.710,0.045
39.715,0.039
39.720,0.044
39.725,0.054
39.730,-0.012
39.735,-0.175
39.740,-0.396
39.745,-0.673
39.750,-0.948
39.755,-1.144
39.760,-1.232
39.765,-1.233
39.770,-1.053
39.775,-0.549
39.780,0.075
39.785,0.439
39.790,0.511
39.795,0.500
39.800,0.465
39.805,0.435
39.810,0.434
39.815,0.420
39.820,0.400
39.825,0.384
39.830,0.364
39.835,0.344
39.840,0.327
39.845,0.311
39.850,0.292
39.855,0.275
39.860,0.264
39.865,0.248
39.870,0.232
39.875,0.221
39.880,0.206
39.885,0.185
39.890,0.172
39.895,0.164
39.900,0.148
39.905,0.135
39.910,0.123
39.915,0.101
39.920,0.081
39.925,0.070
39.930,0.061
39.935,0.048
39.940,0.035
39.945,0.020
39.950,0.002
39.955,-0.013
39.960,-0.025
39.965,-0.044
39.970,-0.063
39.975,-0.074
39.980,-0.087
39.985,-0.106
39.990,-0.120
39.995,-0.123
40.000,-0.130
40.005,-0.132
40.010,-0.127
40.015,-0.125
40.020,-0.117
40.025,-0.098
40.030,-0.079
40.035,-0.062
40.040,-0.041
40.045,-0.022
40.050,-0.013
40.055,0.003
40.060,0.020
40.065,0.022
40.070,0.017
40.075,0.023
40.080,0.033
40.085,0.035
40.090,0.036
40.095,0.036
40.100,0.036
40.105,0.038
40.110,0.040
40.115,0.035
40.120,0.024
40.125,0.027
40.130,0.037
40.135,0.037
40.140,0.037
40.145,0.037
40.150,0.031
40.155,0.031
40.160,0.030
40.165,0.013
40.170,-0.009
40.175,-0.031
40.180,-0.049
40.185,-0.060
40.190,-0.063
40.195,-0.058
40.200,-0.067
40.205,-0.086
40.210,-0.099
40.215,-0.114
40.220,-0.130
40.225,-0.119
40.230,-0.095
40.235,-0.084
40.240,-0.064
40.245,-0.039
40.250,-0.011
40.255,0.020
40.260,0.032
40.265,0.042
40.270,0.067
40.275,0.087
40.280,0.098
40.285,0.101
40.290,0.100
40.295,0.103
40.300,0.093
40.305,0.080
40.310,0.073
40.315,0.061
40.320,0.055
40.325,0.061
40.330,0.062
40.335,0.047
40.340,0.041
40.345,0.052
40.350,0.062
40.355,0.015
40.360,-0.126
40.365,-0.348
40.370,-0.636
40.375,-0.928
40.380,-1.147
40.385,-1.252
40.390,-1.251
40.395,-1.081
40.400,-0.590
40.405,0.065
40.410,0.472
40.415,0.544
40.420,0.501
40.425,0.442
40.430,0.411
40.435,0.406
40.440,0.393
40.445,0.378
40.450,0.359
40.455,0.341
40.460,0.328
40.465,0.309
40.470,0.292
40.475,0.276
40.480,0.255
40.485,0.241
40.490,0.233
40.495,0.217
40.500,0.197
40.505,0.186
40.510,0.179
40.515,0.164
40.520,0.145
40.525,0.136
40.530,0.132
40.535,0.119
40.540,0.101
40.545,0.088
40.550,0.070
40.555,0.054
40.560,0.049
40.565,0.029
40.570,0.004
40.575,-0.009
40.580,-0.028
40.585,-0.049
40.590,-0.059
40.595,-0.069
40.600,-0.081
40.605,-0.090
40.610,-0.100
40.615,-0.117
40.620,-0.127
40.625,-0.125
40.630,-0.126
40.635,-0.134
40.640,-0.134
40.645,-0.118
40.650,-0.098
40.655,-0.075
40.660,-0.050
40.665,-0.032
40.670,-0.017
40.675,-0.002
40.680,0.010
40.685,0.017
40.690,0.024
40.695,0.032
40.700,0.032
40.705,0.029
40.710,0.027
40.715,0.026
40.720,0.031
40.725,0.038
40.730,0.040
40.735,0.034
40.740,0.030
40.745,0.035
40.750,0.031
40.755,0.029
40.760,0.031
40.765,0.024
40.770,0.016
40.775,0.011
40.780,0.011
40.785,0.010
40.790,0.010
40.795,0.002
40.800,-0.024
40.805,-0.050
40.810,-0.064
40.815,-0.075
40.820,-0.084
40.825,-0.082
40.830,-0.089
40.835,-0.108
40.840,-0.122
40.845,-0.135
40.850,-0.135
40.855,-0.117
40.860,-0.097
40.865,-0.084
40.870,-0.072
40.875,-0.050
40.880,-0.014
40.885,0.018
40.890,0.040
40.895,0.056
40.900,0.070
40.905,0.091
40.910,0.106
40.915,0.104
40.920,0.101
40.925,0.100
40.930,0.092
40.935,0.083
40.940,0.078
40.945,0.071
40.950,0.063
40.955,0.064
40.960,0.065
40.965,0.057
40.970,0.055
40.975,0.073
40.980,0.083
40.985,0.012
40.990,-0.161
40.995,-0.406
41.000,-0.701
41.005,-0.993
41.010,-1.201
41.015,-1.279
41.020,-1.251
41.025,-1.002
41.030,-0.419
41.035,0.202
41.040,0.521
41.045,0.575
41.050,0.525
41.055,0.466
41.060,0.450
41.065,0.440
41.070,0.412
41.075,0.392
41.080,0.376
41.085,0.357
41.090,0.341
41.095,0.324
41.100,0.305
41.105,0.288
41.110,0.272
41.115,0.252
41.120,0.234
41.125,0.223
41.130,0.208
41.135,0.190
41.140,0.181
41.145,0.169
41.150,0.150
41.155,0.132
41.160,0.120
41.165,0.103
41.170,0.088
41.175,0.082
41.180,0.070
41.185,0.051
41.190,0.034
41.195,0.018
41.200,0.003
41.205,-0.009
41.210,-0.025
41.215,-0.047
41.220,-0.065
41.225,-0.079
41.230,-0.093
41.235,-0.101
41.240,-0.108
41.245,-0.120
41.250,-0.129
41.255,-0.135
41.260,-0.136
41.265,-0.134
41.270,-0.128
41.275,-0.118
41.280,-0.103
41.285,-0.088
41.290,-0.064
41.295,-0.040
41.300,-0.026
41.305,-0.006
41.310,0.015
41.315,0.021
41.320,0.021
41.325,0.025
41.330,0.027
41.335,0.027
41.340,0.033
41.345,0.034
41.350,0.024
41.355,0.022
41.360,0.026
41.365,0.028
41.370,0.035
41.375,0.039
41.380,0.034
41.385,0.028
41.390,0.026
41.395,0.024
41.400,0.021
41.405,0.016
41.410,0.011
41.415,0.004
41.420,-0.003
41.425,-0.013
41.430,-0.035
41.435,-0.059
41.440,-0.073
41.445,-0.079
41.450,-0.081
41.455,-0.079
41.460,-0.089
41.465,-0.106
41.470,-0.121
41.475,-0.124
41.480,-0.111
41.485,-0.098
41.490,-0.080
41.495,-0.059
41.500,-0.044
41.505,-0.013
41.510,0.026
41.515,0.039
41.520,0.049
41.525,0.075
41.530,0.098
41.535,0.111
41.540,0.115
41.545,0.112
41.550,0.103
41.555,0.098
41.560,0.096
41.565,0.083
41.570,0.071
41.575,0.069
41.580,0.063
41.585,0.055
41.590,0.055
41.595,0.057
41.600,0.059
41.605,0.063
41.610,0.008
41.615,-0.148
41.620,-0.370
41.625,-0.644
41.630,-0.927
41.635,-1.147
41.640,-1.246
41.645,-1.243
41.650,-1.070
41.655,-0.568
41.660,0.089
41.665,0.483
41.670,0.553
41.675,0.527
41.680,0.472
41.685,0.427
41.690,0.423
41.695,0.405
41.700,0.380
41.705,0.370
41.710,0.359
41.715,0.339
41.720,0.323
41.725,0.307
41.730,0.291
41.735,0.275
41.740,0.256
41.745,0.240
41.750,0.230
41.755,0.221
41.760,0.206
41.765,0.186
41.770,0.173
41.775,0.163
41.780,0.149
41.785,0.134
41.790,0.115
41.795,0.099
41.800,0.087
41.805,0.074
41.810,0.062
41.815,0.042
41.820,0.017
41.825,0.002
41.830,-0.013
41.835,-0.035
41.840,-0.049
41.845,-0.058
41.850,-0.073
41.855,-0.096
41.860,-0.114
41.865,-0.131
41.870,-0.146
41.875,-0.146
41.880,-0.150
41.885,-0.156
41.890,-0.148
41.895,-0.134
41.900,-0.121
41.905,-0.103
41.910,-0.080
41.915,-0.056
41.920,-0.035
41.925,-0.012
41.930,0.008
41.935,0.013
41.940,0.014
41.945,0.024
41.950,0.034
41.955,0.042
41.960,0.040
41.965,0.031
41.970,0.029
41.975,0.030
41.980,0.027
41.985,0.026
41.990,0.035
41.995,0.046
42.000,0.051
42.005,0.052
42.010,0.053
42.015,0.047
42.020,0.039
42.025,0.039
42.030,0.032
42.035,0.019
42.040,0.015
42.045,0.004
42.050,-0.028
42.055,-0.051
42.060,-0.055
42.065,-0.062
42.070,-0.075
42.075,-0.082
42.080,-0.099
42.085,-0.123
42.090,-0.132
42.095,-0.134
42.100,-0.129
42.105,-0.112
42.110,-0.086
42.115,-0.067
42.120,-0.059
42.125,-0.031
42.130,0.005
42.135,0.021
42.140,0.026
42.145,0.045
42.150,0.070
42.155,0.086
42.160,0.099
42.165,0.101
42.170,0.092
42.175,0.088
42.180,0.087
42.185,0.079
42.190,0.065
42.195,0.058
42.200,0.052
42.205,0.044
42.210,0.041
42.215,0.045
42.220,0.049
42.225,0.058
42.230,0.020
42.235,-0.117
42.240,-0.328
42.245,-0.602
42.250,-0.899
42.255,-1.134
42.260,-1.245
42.265,-1.258
42.270,-1.136
42.275,-0.703
42.280,-0.049
42.285,0.419
42.290,0.553
42.295,0.546
42.300,0.497
42.305,0.449
42.310,0.437
42.315,0.423
42.320,0.404
42.325,0.385
42.330,0.358
42.335,0.337
42.340,0.326
42.345,0.315
42.350,0.296
42.355,0.276
42.360,0.262
42.365,0.243
42.370,0.222
42.375,0.211
42.380,0.197
42.385,0.186
42.390,0.182
42.395,0.168
42.400,0.147
42.405,0.131
42.410,0.121
42.415,0.107
42.420,0.089
42.425,0.075
42.430,0.060
42.435,0.043
42.440,0.025
42.445,0.010
42.450,-0.006
42.455,-0.023
42.460,-0.038
42.465,-0.059
42.470,-0.070
42.475,-0.074
42.480,-0.090
42.485,-0.110
42.490,-0.122
42.495,-0.130
42.500,-0.144
42.505,-0.148
42.510,-0.141
42.515,-0.134
42.520,-0.120
42.525,-0.100
42.530,-0.083
42.535,-0.068
42.540,-0.049
42.545,-0.030
42.550,-0.012
42.555,0.006
42.560,0.020
42.565,0.027
42.570,0.028
42.575,0.032
42.580,0.032
42.585,0.025
42.590,0.027
42.595,0.034
42.600,0.035
42.605,0.039
42.610,0.041
42.615,0.038
42.620,0.032
42.625,0.023
42.630,0.016
42.635,0.017
42.640,0.023
42.645,0.025
42.650,0.023
42.655,0.025
42.660,0.024
42.665,0.014
42.670,-0.003
42.675,-0.024
42.680,-0.044
42.685,-0.058
42.690,-0.065
42.695,-0.072
42.700,-0.083
42.705,-0.096
42.710,-0.109
42.715,-0.124
42.720,-0.137
42.725,-0.130
42.730,-0.111
42.735,-0.094
42.740,-0.070
42.745,-0.057
42.750,-0.042
42.755,-0.001
42.760,0.027
42.765,0.033
42.770,0.048
42.775,0.071
42.780,0.088
42.785,0.101
42.790,0.106
42.795,0.106
42.800,0.100
42.805,0.092
42.810,0.087
42.815,0.082
42.820,0.077
42.825,0.070
42.830,0.054
42.835,0.043
42.840,0.043
42.845,0.042
42.850,0.047
42.855,0.022
42.860,-0.098
42.865,-0.297
42.870,-0.557
42.875,-0.847
42.880,-1.086
42.885,-1.225
42.890,-1.252
42.895,-1.155
42.900,-0.795
42.905,-0.154
42.910,0.375
42.915,0.542
42.920,0.536
42.925,0.500
42.930,0.454
42.935,0.434
42.940,0.427
42.945,0.412
42.950,0.389
42.955,0.371
42.960,0.358
42.965,0.334
42.970,0.312
42.975,0.300
42.980,0.279
42.985,0.256
42.990,0.244
42.995,0.231
43.000,0.216
43.005,0.203
43.010,0.186
43.015,0.171
43.020,0.159
43.025,0.147
43.030,0.132
43.035,0.119
43.040,0.110
43.045,0.097
43.050,0.078
43.055,0.060
43.060,0.044
43.065,0.026
43.070,0.006
43.075,-0.007
43.080,-0.020
43.085,-0.042
43.090,-0.060
43.095,-0.068
43.100,-0.082
43.105,-0.095
43.110,-0.103
43.115,-0.120
43.120,-0.137
43.125,-0.143
43.130,-0.146
43.135,-0.145
43.140,-0.133
43.145,-0.120
43.150,-0.108
43.155,-0.086
43.160,-0.061
43.165,-0.043
43.170,-0.027
43.175,-0.012
43.180,-0.001
43.185,0.011
43.190,0.026
43.195,0.035
43.200,0.033
43.205,0.034
43.210,0.037
43.215,0.036
43.220,0.038
43.225,0.042
43.230,0.039
43.235,0.034
43.240,0.034
43.245,0.035
43.250,0.030
43.255,0.030
43.260,0.032
43.265,0.031
43.270,0.034
43.275,0.037
43.280,0.028
43.285,0.014
43.290,0.006
43.295,-0.008
43.300,-0.035
43.305,-0.055
43.310,-0.063
43.315,-0.073
43.320,-0.081
43.325,-0.088
43.330,-0.104
43.335,-0.122
43.340,-0.130
43.345,-0.118
43.350,-0.101
43.355,-0.087
43.360,-0.071
43.365,-0.060
43.370,-0.035
43.375,0.008
43.380,0.030
43.385,0.030
43.390,0.045
43.395,0.061
43.400,0.068
43.405,0.084
43.410,0.098
43.415,0.095
43.420,0.090
43.425,0.088
43.430,0.080
43.435,0.068
43.440,0.060
43.445,0.054
43.450,0.043
43.455,0.037
43.460,0.041
43.465,0.044
43.470,0.050
43.475,0.028
43.480,-0.084
43.485,-0.277
43.490,-0.531
43.495,-0.825
43.500,-1.085
43.505,-1.242
43.510,-1.285
43.515,-1.210
43.520,-0.869
43.525,-0.236
43.530,0.304
43.535,0.495
43.540,0.517
43.545,0.502
43.550,0.462
43.555,0.444
43.560,0.432
43.565,0.410
43.570,0.397
43.575,0.387
43.580,0.370
43.585,0.348
43.590,0.328
43.595,0.308
43.600,0.285
43.605,0.272
43.610,0.263
43.615,0.247
43.620,0.231
43.625,0.209
43.630,0.188
43.635,0.180
43.640,0.170
43.645,0.155
43.650,0.140
43.655,0.135
43.660,0.131
43.665,0.107
43.670,0.079
43.675,0.061
43.680,0.041
43.685,0.025
43.690,0.021
43.695,0.010
43.700,-0.020
43.705,-0.046
43.710,-0.054
43.715,-0.061
43.720,-0.076
43.725,-0.095
43.730,-0.108
43.735,-0.109
43.740,-0.117
43.745,-0.140
43.750,-0.157
43.755,-0.155
43.760,-0.136
43.765,-0.119
43.770,-0.107
43.775,-0.086
43.780,-0.063
43.785,-0.047
43.790,-0.032
43.795,-0.012
43.800,0.006
43.805,0.021
43.810,0.033
43.815,0.035
43.820,0.033
43.825,0.036
43.830,0.039
43.835,0.038
43.840,0.032
43.845,0.026
43.850,0.025
43.855,0.033
43.860,0.036
43.865,0.029
43.870,0.028
43.875,0.037
43.880,0.041
43.885,0.032
43.890,0.022
43.895,0.027
43.900,0.032
43.905,0.026
43.910,0.017
43.915,0.004
43.920,-0.017
43.925,-0.039
43.930,-0.053
43.935,-0.063
43.940,-0.067
43.945,-0.068
43.950,-0.087
43.955,-0.110
43.960,-0.123
43.965,-0.133
43.970,-0.116
43.975,-0.092
43.980,-0.086
43.985,-0.077
43.990,-0.054
43.995,-0.023
44.000,0.016
44.005,0.044
44.010,0.053
44.015,0.067
44.020,0.084
44.025,0.098
44.030,0.103
44.035,0.097
44.040,0.102
44.045,0.107
44.050,0.088
44.055,0.072
44.060,0.071
44.065,0.066
44.070,0.061
44.075,0.063
44.080,0.057
44.085,0.046
44.090,0.048
44.095,0.061
44.100,0.024
44.105,-0.109
44.110,-0.325
44.115,-0.614
44.120,-0.916
44.125,-1.151
44.130,-1.277
44.135,-1.298
44.140,-1.153
44.145,-0.701
44.150,-0.043
44.155,0.434
44.160,0.578
44.165,0.554
44.170,0.486
44.175,0.451
44.180,0.448
44.185,0.429
44.190,0.410
44.195,0.396
44.200,0.377
44.205,0.352
44.210,0.337
44.215,0.319
44.220,0.295
44.225,0.283
44.230,0.269
44.235,0.245
44.240,0.228
44.245,0.215
44.250,0.198
44.255,0.192
44.260,0.191
44.265,0.178
44.270,0.151
44.275,0.122
44.280,0.109
44.285,0.101
44.290,0.090
44.295,0.080
44.300,0.066
44.305,0.047
44.310,0.027
44.315,0.014
44.320,0.007
44.325,-0.006
44.330,-0.029
44.335,-0.053
44.340,-0.071
44.345,-0.076
44.350,-0.077
44.355,-0.089
44.360,-0.105
44.365,-0.115
44.370,-0.127
44.375,-0.133
44.380,-0.128
44.385,-0.129
44.390,-0.127
44.395,-0.113
44.400,-0.090
44.405,-0.060
44.410,-0.047
44.415,-0.030
44.420,0.002
44.425,0.019
44.430,0.015
44.435,0.007
44.440,0.006
44.445,0.018
44.450,0.031
44.455,0.038
44.460,0.040
44.465,0.031
44.470,0.020
44.475,0.023
44.480,0.025
44.485,0.021
44.490,0.023
44.495,0.029
44.500,0.027
44.505,0.023
44.510,0.027
44.515,0.028
44.520,0.021
44.525,0.017
44.530,0.004
44.535,-0.007
44.540,-0.004
44.545,-0.022
44.550,-0.057
44.555,-0.075
44.560,-0.073
44.565,-0.074
44.570,-0.081
44.575,-0.090
44.580,-0.106
44.585,-0.131
44.590,-0.146
44.595,-0.131
44.600,-0.111
44.605,-0.095
44.610,-0.066
44.615,-0.047
44.620,-0.034
44.625,-0.006
44.630,0.016
44.635,0.021
44.640,0.046
44.645,0.081
44.650,0.095
44.655,0.113
44.660,0.120
44.665,0.097
44.670,0.088
44.675,0.097
44.680,0.092
44.685,0.072
44.690,0.054
44.695,0.048
44.700,0.057
44.705,0.069
44.710,0.064
44.715,0.046
44.720,0.046
44.725,0.024
44.730,-0.099
44.735,-0.314
44.740,-0.586
44.745,-0.883
44.750,-1.143
44.755,-1.288
44.760,-1.289
44.765,-1.145
44.770,-0.744
44.775,-0.102
44.780,0.414
44.785,0.592
44.790,0.577
44.795,0.513
44.800,0.465
44.805,0.447
44.810,0.430
44.815,0.406
44.820,0.386
44.825,0.364
44.830,0.346
44.835,0.334
44.840,0.322
44.845,0.305
44.850,0.277
44.855,0.257
44.860,0.255
44.865,0.243
44.870,0.216
44.875,0.191
44.880,0.180
44.885,0.177
44.890,0.165
44.895,0.152
44.900,0.132
44.905,0.109
44.910,0.094
44.915,0.080
44.920,0.064
44.925,0.060
44.930,0.058
44.935,0.033
44.940,0.011
44.945,0.006
44.950,-0.003
44.955,-0.021
44.960,-0.041
44.965,-0.055
44.970,-0.063
44.975,-0.075
44.980,-0.089
44.985,-0.105
44.990,-0.126
44.995,-0.144
45.000,-0.146
45.005,-0.136
45.010,-0.136
45.015,-0.128
45.020,-0.104
45.025,-0.089
45.030,-0.074
45.035,-0.039
45.040,-0.010
45.045,-0.003
45.050,-0.010
45.055,-0.008
45.060,0.012
45.065,0.019
45.070,0.019
45.075,0.037
45.080,0.041
45.085,0.019
45.090,0.030
45.095,0.052
45.100,0.028
45.105,0.003
45.110,0.009
45.115,0.021
45.120,0.033
45.125,0.038
45.130,0.026
45.135,0.010
45.140,0.006
45.145,0.005
45.150,0.005
45.155,0.008
45.160,0.010
45.165,0.003
45.170,-0.008
45.175,-0.024
45.180,-0.061
45.185,-0.083
45.190,-0.075
45.195,-0.076
45.200,-0.087
45.205,-0.104
45.210,-0.125
45.215,-0.136
45.220,-0.128
45.225,-0.106
45.230,-0.082
45.235,-0.070
45.240,-0.074
45.245,-0.074
45.250,-0.027
45.255,0.030
45.260,0.039
45.265,0.045
45.270,0.061
45.275,0.075
45.280,0.094
45.285,0.104
45.290,0.100
45.295,0.098
45.300,0.098
45.305,0.085
45.310,0.068
45.315,0.066
45.320,0.070
45.325,0.072
45.330,0.056
45.335,0.024
45.340,0.019
45.345,0.045
45.350,0.040
45.355,-0.065
45.360,-0.262
45.365,-0.544
45.370,-0.856
45.375,-1.094
45.380,-1.234
45.385,-1.242
45.390,-1.125
45.395,-0.814
45.400,-0.218
45.405,0.353
45.410,0.585
45.415,0.575
45.420,0.506
45.425,0.446
45.430,0.424
45.435,0.427
45.440,0.416
45.445,0.387
45.450,0.360
45.455,0.340
45.460,0.324
45.465,0.310
45.470,0.292
45.475,0.272
45.480,0.250
45.485,0.230
45.490,0.222
45.495,0.228
45.500,0.220
45.505,0.193
45.510,0.175
45.515,0.165
45.520,0.150
45.525,0.135
45.530,0.130
45.535,0.117
45.540,0.098
45.545,0.075
45.550,0.059
45.555,0.059
45.560,0.045
