'Elapsed time','ECG'
'seconds','mV'
0.000,0.305
0.005,0.250
0.010,0.192
0.015,0.192
0.020,0.221
0.025,0.237
0.030,0.267
0.035,0.298
0.040,0.286
0.045,0.276
0.050,0.288
0.055,0.283
0.060,0.271
0.065,0.278
0.070,0.286
0.075,0.269
0.080,0.248
0.085,0.238
0.090,0.217
0.095,0.198
0.100,0.202
0.105,0.197
0.110,0.171
0.115,0.151
0.120,0.144
0.125,0.132
0.130,0.128
0.135,0.132
0.140,0.115
0.145,0.089
0.150,0.085
0.155,0.086
0.160,0.075
0.165,0.077
0.170,0.059
0.175,-0.055
0.180,-0.270
0.185,-0.566
0.190,-0.896
0.195,-1.157
0.200,-1.279
0.205,-1.223
0.210,-0.883
0.215,-0.218
0.220,0.538
0.225,0.919
0.230,0.811
0.235,0.593
0.240,0.449
0.245,0.338
0.250,0.285
0.255,0.256
0.260,0.216
0.265,0.196
0.270,0.182
0.275,0.150
0.280,0.134
0.285,0.140
0.290,0.121
0.295,0.095
0.300,0.096
0.305,0.090
0.310,0.067
0.315,0.063
0.320,0.065
0.325,0.048
0.330,0.035
0.335,0.039
0.340,0.024
0.345,0.003
0.350,0.012
0.355,0.006
0.360,-0.020
0.365,-0.015
0.370,-0.016
0.375,-0.042
0.380,-0.048
0.385,-0.046
0.390,-0.068
0.395,-0.088
0.400,-0.089
0.405,-0.099
0.410,-0.122
0.415,-0.133
0.420,-0.140
0.425,-0.168
0.430,-0.194
0.435,-0.198
0.440,-0.217
0.445,-0.244
0.450,-0.253
0.455,-0.274
0.460,-0.310
0.465,-0.317
0.470,-0.316
0.475,-0.342
0.480,-0.352
0.485,-0.330
0.490,-0.324
0.495,-0.324
0.500,-0.295
0.505,-0.263
0.510,-0.242
0.515,-0.192
0.520,-0.122
0.525,-0.073
0.530,-0.016
0.535,0.063
0.540,0.125
0.545,0.173
0.550,0.234
0.555,0.283
0.560,0.305
0.565,0.338
0.570,0.372
0.575,0.373
0.580,0.376
0.585,0.389
0.590,0.374
0.595,0.359
0.600,0.369
0.605,0.357
0.610,0.329
0.615,0.325
0.620,0.318
0.625,0.289
0.630,0.270
0.635,0.263
0.640,0.241
0.645,0.218
0.650,0.212
0.655,0.198
0.660,0.177
0.665,0.171
0.670,0.168
0.675,0.143
0.680,0.123
0.685,0.120
0.690,0.106
0.695,0.088
0.700,0.085
0.705,0.073
0.710,0.054
0.715,0.058
0.720,0.061
0.725,0.039
0.730,0.027
0.735,0.031
0.740,0.018
0.745,0.004
0.750,0.011
0.755,0.008
0.760,-0.009
0.765,-0.005
0.770,0.004
0.775,-0.014
0.780,-0.024
0.785,-0.015
0.790,-0.023
0.795,-0.034
0.800,-0.028
0.805,-0.033
0.810,-0.048
0.815,-0.044
0.820,-0.040
0.825,-0.051
0.830,-0.054
0.835,-0.052
0.840,-0.064
0.845,-0.068
0.850,-0.054
0.855,-0.058
0.860,-0.078
0.865,-0.076
0.870,-0.065
0.875,-0.080
0.880,-0.085
0.885,-0.068
0.890,-0.070
0.895,-0.082
0.900,-0.074
0.905,-0.074
0.910,-0.093
0.915,-0.091
0.920,-0.078
0.925,-0.084
0.930,-0.086
0.935,-0.075
0.940,-0.084
0.945,-0.096
0.950,-0.078
0.955,-0.070
0.960,-0.087
0.965,-0.085
0.970,-0.077
0.975,-0.088
0.980,-0.088
0.985,-0.074
0.990,-0.080
0.995,-0.091
1.000,-0.080
1.005,-0.077
1.010,-0.089
1.015,-0.081
1.020,-0.069
1.025,-0.079
1.030,-0.083
1.035,-0.066
1.040,-0.067
1.045,-0.075
1.050,-0.064
1.055,-0.063
1.060,-0.077
1.065,-0.073
1.070,-0.067
1.075,-0.085
1.080,-0.099
1.085,-0.096
1.090,-0.111
1.095,-0.133
1.100,-0.127
1.105,-0.116
1.110,-0.131
1.115,-0.154
1.120,-0.156
1.125,-0.140
1.130,-0.112
1.135,-0.072
1.140,-0.046
1.145,-0.036
1.150,-0.016
1.155,0.005
1.160,0.012
1.165,0.025
1.170,0.043
1.175,0.038
1.180,0.040
1.185,0.054
1.190,0.047
1.195,0.037
1.200,0.044
1.205,0.041
1.210,0.026
1.215,0.029
1.220,0.034
1.225,0.021
1.230,0.017
1.235,0.027
1.240,0.018
1.245,0.008
1.250,0.016
1.255,0.014
1.260,-0.003
1.265,0.002
1.270,0.014
1.275,-0.001
1.280,-0.036
1.285,-0.125
1.290,-0.326
1.295,-0.619
1.300,-0.895
1.305,-1.081
1.310,-1.199
1.315,-1.172
1.320,-0.844
1.325,-0.212
1.330,0.499
1.335,0.854
1.340,0.718
1.345,0.507
1.350,0.425
1.355,0.347
1.360,0.271
1.365,0.244
1.370,0.232
1.375,0.204
1.380,0.186
1.385,0.185
1.390,0.167
1.395,0.148
1.400,0.152
1.405,0.147
1.410,0.123
1.415,0.120
1.420,0.123
1.425,0.103
1.430,0.091
1.435,0.097
1.440,0.084
1.445,0.067
1.450,0.073
1.455,0.071
1.460,0.047
1.465,0.042
1.470,0.043
1.475,0.024
1.480,0.013
1.485,0.019
1.490,0.005
1.495,-0.017
1.500,-0.017
1.505,-0.027
1.510,-0.056
1.515,-0.062
1.520,-0.063
1.525,-0.089
1.530,-0.108
1.535,-0.112
1.540,-0.134
1.545,-0.163
1.550,-0.170
1.555,-0.185
1.560,-0.216
1.565,-0.230
1.570,-0.238
1.575,-0.266
1.580,-0.283
1.585,-0.280
1.590,-0.289
1.595,-0.301
1.600,-0.287
1.605,-0.271
1.610,-0.263
1.615,-0.230
1.620,-0.184
1.625,-0.151
1.630,-0.101
1.635,-0.031
1.640,0.024
1.645,0.071
1.650,0.140
1.655,0.207
1.660,0.252
1.665,0.303
1.670,0.353
1.675,0.372
1.680,0.379
1.685,0.400
1.690,0.406
1.695,0.398
1.700,0.405
1.705,0.401
1.710,0.376
1.715,0.366
1.720,0.364
1.725,0.343
1.730,0.328
1.735,0.324
1.740,0.298
1.745,0.268
1.750,0.263
1.755,0.254
1.760,0.231
1.765,0.224
1.770,0.219
1.775,0.191
1.780,0.169
1.785,0.168
1.790,0.153
1.795,0.130
1.800,0.129
1.805,0.121
1.810,0.096
1.815,0.092
1.820,0.097
1.825,0.077
1.830,0.061
1.835,0.065
1.840,0.055
1.845,0.036
1.850,0.038
1.855,0.035
1.860,0.015
1.865,0.013
1.870,0.020
1.875,0.006
1.880,-0.003
1.885,0.007
1.890,0.000
1.895,-0.014
1.900,-0.008
1.905,-0.009
1.910,-0.026
1.915,-0.025
1.920,-0.018
1.925,-0.032
1.930,-0.042
1.935,-0.032
1.940,-0.036
1.945,-0.048
1.950,-0.042
1.955,-0.043
1.960,-0.058
1.965,-0.055
1.970,-0.050
1.975,-0.067
1.980,-0.075
1.985,-0.065
1.990,-0.067
1.995,-0.080
2.000,-0.075
2.005,-0.073
2.010,-0.085
2.015,-0.080
2.020,-0.068
2.025,-0.080
2.030,-0.088
2.035,-0.076
2.040,-0.078
2.045,-0.088
2.050,-0.079
2.055,-0.076
2.060,-0.089
2.065,-0.084
2.070,-0.073
2.075,-0.084
2.080,-0.089
2.085,-0.076
2.090,-0.078
2.095,-0.087
2.100,-0.079
2.105,-0.080
2.110,-0.091
2.115,-0.083
2.120,-0.070
2.125,-0.080
2.130,-0.082
2.135,-0.068
2.140,-0.074
2.145,-0.084
2.150,-0.072
2.155,-0.067
2.160,-0.077
2.165,-0.069
2.170,-0.060
2.175,-0.072
2.180,-0.074
2.185,-0.062
2.190,-0.067
2.195,-0.079
2.200,-0.075
2.205,-0.081
2.210,-0.105
2.215,-0.112
2.220,-0.108
2.225,-0.126
2.230,-0.127
2.235,-0.111
2.240,-0.137
2.245,-0.169
2.250,-0.142
2.255,-0.107
2.260,-0.094
2.265,-0.056
2.270,-0.017
2.275,-0.019
2.280,-0.009
2.285,0.023
2.290,0.026
2.295,0.019
2.300,0.036
2.305,0.046
2.310,0.035
2.315,0.038
2.320,0.046
2.325,0.035
2.330,0.033
2.335,0.044
2.340,0.034
2.345,0.022
2.350,0.030
2.355,0.031
2.360,0.017
2.365,0.018
2.370,0.023
2.375,0.007
2.380,-0.001
2.385,0.013
2.390,0.003
2.395,-0.020
2.400,-0.014
2.405,-0.021
2.410,-0.111
2.415,-0.286
2.420,-0.548
2.425,-0.841
2.430,-1.034
2.435,-1.134
2.440,-1.153
2.445,-0.912
2.450,-0.324
2.455,0.392
2.460,0.798
2.465,0.732
2.470,0.534
2.475,0.422
2.480,0.342
2.485,0.294
2.490,0.254
2.495,0.221
2.500,0.217
2.505,0.204
2.510,0.175
2.515,0.167
2.520,0.167
2.525,0.147
2.530,0.134
2.535,0.138
2.540,0.125
2.545,0.108
2.550,0.112
2.555,0.108
2.560,0.088
2.565,0.085
2.570,0.088
2.575,0.070
2.580,0.059
2.585,0.065
2.590,0.054
2.595,0.035
2.600,0.035
2.605,0.032
2.610,0.010
2.615,0.003
2.620,0.004
2.625,-0.016
2.630,-0.031
2.635,-0.029
2.640,-0.047
2.645,-0.074
2.650,-0.078
2.655,-0.090
2.660,-0.118
2.665,-0.128
2.670,-0.132
2.675,-0.160
2.680,-0.185
2.685,-0.192
2.690,-0.213
2.695,-0.242
2.700,-0.248
2.705,-0.257
2.710,-0.280
2.715,-0.280
2.720,-0.269
2.725,-0.276
2.730,-0.270
2.735,-0.239
2.740,-0.219
2.745,-0.197
2.750,-0.142
2.755,-0.086
2.760,-0.045
2.765,0.012
2.770,0.082
2.775,0.131
2.780,0.182
2.785,0.249
2.790,0.294
2.795,0.322
2.800,0.358
2.805,0.382
2.810,0.385
2.815,0.396
2.820,0.408
2.825,0.394
2.830,0.384
2.835,0.390
2.840,0.376
2.845,0.349
2.850,0.343
2.855,0.333
2.860,0.304
2.865,0.290
2.870,0.289
2.875,0.266
2.880,0.245
2.885,0.244
2.890,0.227
2.895,0.200
2.900,0.194
2.905,0.183
2.910,0.157
2.915,0.148
2.920,0.148
2.925,0.125
2.930,0.109
2.935,0.114
2.940,0.101
2.945,0.079
2.950,0.084
2.955,0.082
2.960,0.059
2.965,0.054
2.970,0.058
2.975,0.041
2.980,0.030
2.985,0.037
2.990,0.029
2.995,0.013
3.000,0.016
3.005,0.014
3.010,-0.006
3.015,-0.007
3.020,0.002
3.025,-0.012
3.030,-0.022
3.035,-0.014
3.040,-0.021
3.045,-0.034
3.050,-0.026
3.055,-0.026
3.060,-0.043
3.065,-0.045
3.070,-0.036
3.075,-0.047
3.080,-0.055
3.085,-0.048
3.090,-0.056
3.095,-0.069
3.100,-0.059
3.105,-0.058
3.110,-0.076
3.115,-0.073
3.120,-0.061
3.125,-0.072
3.130,-0.080
3.135,-0.068
3.140,-0.072
3.145,-0.085
3.150,-0.078
3.155,-0.077
3.160,-0.091
3.165,-0.086
3.170,-0.074
3.175,-0.083
3.180,-0.087
3.185,-0.077
3.190,-0.080
3.195,-0.090
3.200,-0.078
3.205,-0.076
3.210,-0.093
3.215,-0.089
3.220,-0.081
3.225,-0.094
3.230,-0.093
3.235,-0.073
3.240,-0.074
3.245,-0.087
3.250,-0.079
3.255,-0.071
3.260,-0.082
3.265,-0.081
3.270,-0.070
3.275,-0.075
3.280,-0.073
3.285,-0.060
3.290,-0.063
3.295,-0.072
3.300,-0.065
3.305,-0.062
3.310,-0.076
3.315,-0.074
3.320,-0.062
3.325,-0.079
3.330,-0.093
3.335,-0.088
3.340,-0.102
3.345,-0.123
3.350,-0.123
3.355,-0.117
3.360,-0.127
3.365,-0.144
3.370,-0.148
3.375,-0.141
3.380,-0.115
3.385,-0.068
3.390,-0.036
3.395,-0.026
3.400,-0.008
3.405,0.016
3.410,0.020
3.415,0.028
3.420,0.046
3.425,0.045
3.430,0.043
3.435,0.052
3.440,0.047
3.445,0.038
3.450,0.042
3.455,0.037
3.460,0.020
3.465,0.024
3.470,0.038
3.475,0.027
3.480,0.015
3.485,0.023
3.490,0.025
3.495,0.017
3.500,0.016
3.505,0.015
3.510,0.002
3.515,-0.003
3.520,0.007
3.525,0.001
3.530,-0.034
3.535,-0.120
3.540,-0.314
3.545,-0.601
3.550,-0.855
3.555,-1.030
3.560,-1.145
3.565,-1.085
3.570,-0.716
3.575,-0.069
3.580,0.580
3.585,0.833
3.590,0.674
3.595,0.475
3.600,0.386
3.605,0.317
3.610,0.250
3.615,0.218
3.620,0.205
3.625,0.179
3.630,0.163
3.635,0.164
3.640,0.151
3.645,0.130
3.650,0.129
3.655,0.125
3.660,0.104
3.665,0.095
3.670,0.095
3.675,0.083
3.680,0.076
3.685,0.078
3.690,0.070
3.695,0.053
3.700,0.055
3.705,0.056
3.710,0.036
3.715,0.030
3.720,0.035
3.725,0.019
3.730,0.008
3.735,0.012
3.740,-0.005
3.745,-0.030
3.750,-0.029
3.755,-0.035
3.760,-0.059
3.765,-0.065
3.770,-0.065
3.775,-0.088
3.780,-0.108
3.785,-0.117
3.790,-0.141
3.795,-0.163
3.800,-0.169
3.805,-0.185
3.810,-0.218
3.815,-0.236
3.820,-0.239
3.825,-0.256
3.830,-0.269
3.835,-0.268
3.840,-0.282
3.845,-0.297
3.850,-0.285
3.855,-0.262
3.860,-0.251
3.865,-0.227
3.870,-0.178
3.875,-0.138
3.880,-0.096
3.885,-0.032
3.890,0.027
3.895,0.076
3.900,0.143
3.905,0.207
3.910,0.247
3.915,0.297
3.920,0.344
3.925,0.357
3.930,0.368
3.935,0.390
3.940,0.389
3.945,0.383
3.950,0.397
3.955,0.397
3.960,0.375
3.965,0.368
3.970,0.364
3.975,0.340
3.980,0.315
3.985,0.305
3.990,0.290
3.995,0.262
4.000,0.252
4.005,0.247
4.010,0.225
4.015,0.219
4.020,0.220
4.025,0.190
4.030,0.166
4.035,0.163
4.040,0.150
4.045,0.133
4.050,0.128
4.055,0.118
4.060,0.096
4.065,0.090
4.070,0.087
4.075,0.063
4.080,0.052
4.085,0.066
4.090,0.062
4.095,0.042
4.100,0.039
4.105,0.035
4.110,0.013
4.115,0.006
4.120,0.022
4.125,0.019
4.130,0.006
4.135,0.006
4.140,-0.010
4.145,-0.028
4.150,-0.012
4.155,-0.006
4.160,-0.023
4.165,-0.023
4.170,-0.019
4.175,-0.034
4.180,-0.044
4.185,-0.039
4.190,-0.044
4.195,-0.057
4.200,-0.053
4.205,-0.051
4.210,-0.068
4.215,-0.062
4.220,-0.042
4.225,-0.052
4.230,-0.067
4.235,-0.064
4.240,-0.070
4.245,-0.083
4.250,-0.071
4.255,-0.061
4.260,-0.076
4.265,-0.080
4.270,-0.073
4.275,-0.083
4.280,-0.088
4.285,-0.071
4.290,-0.068
4.295,-0.090
4.300,-0.093
4.305,-0.075
4.310,-0.072
4.315,-0.074
4.320,-0.067
4.325,-0.083
4.330,-0.103
4.335,-0.094
4.340,-0.081
4.345,-0.080
4.350,-0.073
4.355,-0.070
4.360,-0.087
4.365,-0.088
4.370,-0.065
4.375,-0.067
4.380,-0.084
4.385,-0.071
4.390,-0.066
4.395,-0.084
4.400,-0.074
4.405,-0.064
4.410,-0.080
4.415,-0.073
4.420,-0.052
4.425,-0.068
4.430,-0.085
4.435,-0.074
4.440,-0.082
4.445,-0.104
4.450,-0.100
4.455,-0.101
4.460,-0.124
4.465,-0.133
4.470,-0.119
4.475,-0.131
4.480,-0.158
4.485,-0.151
4.490,-0.129
4.495,-0.111
4.500,-0.067
4.505,-0.025
4.510,-0.019
4.515,0.004
4.520,0.035
4.525,0.020
4.530,0.015
4.535,0.052
4.540,0.062
4.545,0.044
4.550,0.047
4.555,0.048
4.560,0.020
4.565,0.018
4.570,0.041
4.575,0.032
4.580,0.015
4.585,0.024
4.590,0.022
4.595,0.009
4.600,0.022
4.605,0.026
4.610,0.003
4.615,0.001
4.620,0.013
4.625,0.000
4.630,-0.011
4.635,-0.004
4.640,-0.018
4.645,-0.085
4.650,-0.231
4.655,-0.489
4.660,-0.824
4.665,-1.114
4.670,-1.292
4.675,-1.322
4.680,-1.060
4.685,-0.442
4.690,0.346
4.695,0.859
4.700,0.856
4.705,0.640
4.710,0.473
4.715,0.374
4.720,0.325
4.725,0.278
4.730,0.236
4.735,0.216
4.740,0.196
4.745,0.178
4.750,0.176
4.755,0.169
4.760,0.145
4.765,0.133
4.770,0.134
4.775,0.118
4.780,0.104
4.785,0.112
4.790,0.110
4.795,0.099
4.800,0.094
4.805,0.084
4.810,0.065
4.815,0.053
4.820,0.056
4.825,0.054
4.830,0.040
4.835,0.035
4.840,0.028
4.845,0.004
4.850,-0.003
4.855,0.002
4.860,-0.014
4.865,-0.026
4.870,-0.030
4.875,-0.050
4.880,-0.068
4.885,-0.070
4.890,-0.092
4.895,-0.127
4.900,-0.136
4.905,-0.148
4.910,-0.177
4.915,-0.190
4.920,-0.201
4.925,-0.235
4.930,-0.257
4.935,-0.256
4.940,-0.269
4.945,-0.297
4.950,-0.303
4.955,-0.298
4.960,-0.300
4.965,-0.286
4.970,-0.260
4.975,-0.246
4.980,-0.219
4.985,-0.166
4.990,-0.117
4.995,-0.068
5.000,0.011
5.005,0.088
5.010,0.138
5.015,0.197
5.020,0.264
5.025,0.305
5.030,0.338
5.035,0.376
5.040,0.399
5.045,0.401
5.050,0.413
5.055,0.424
5.060,0.410
5.065,0.406
5.070,0.405
5.075,0.381
5.080,0.367
5.085,0.369
5.090,0.349
5.095,0.319
5.100,0.309
5.105,0.293
5.110,0.266
5.115,0.259
5.120,0.255
5.125,0.224
5.130,0.198
5.135,0.191
5.140,0.170
5.145,0.149
5.150,0.150
5.155,0.144
5.160,0.133
5.165,0.133
5.170,0.116
5.175,0.098
5.180,0.093
5.185,0.086
5.190,0.075
5.195,0.063
5.200,0.067
5.205,0.056
5.210,0.027
5.215,0.031
5.220,0.052
5.225,0.042
5.230,0.015
5.235,0.007
5.240,-0.006
5.245,-0.007
5.250,0.018
5.255,0.011
5.260,-0.023
5.265,-0.026
5.270,-0.012
5.275,-0.026
5.280,-0.039
5.285,-0.032
5.290,-0.034
5.295,-0.049
5.300,-0.057
5.305,-0.055
5.310,-0.058
5.315,-0.057
5.320,-0.049
5.325,-0.059
5.330,-0.068
5.335,-0.055
5.340,-0.066
5.345,-0.096
5.350,-0.092
5.355,-0.074
5.360,-0.074
5.365,-0.074
5.370,-0.068
5.375,-0.073
5.380,-0.079
5.385,-0.078
5.390,-0.083
5.395,-0.091
5.400,-0.088
5.405,-0.085
5.410,-0.101
5.415,-0.095
5.420,-0.066
5.425,-0.083
5.430,-0.104
5.435,-0.082
5.440,-0.076
5.445,-0.090
5.450,-0.088
5.455,-0.086
5.460,-0.100
5.465,-0.099
5.470,-0.071
5.475,-0.070
5.480,-0.088
5.485,-0.073
5.490,-0.064
5.495,-0.081
5.500,-0.077
5.505,-0.066
5.510,-0.077
5.515,-0.088
5.520,-0.076
5.525,-0.068
5.530,-0.076
5.535,-0.066
5.540,-0.066
5.545,-0.088
5.550,-0.079
5.555,-0.076
5.560,-0.103
5.565,-0.106
5.570,-0.101
5.575,-0.117
5.580,-0.131
5.585,-0.119
5.590,-0.133
5.595,-0.171
5.600,-0.162
5.605,-0.126
5.610,-0.106
5.615,-0.078
5.620,-0.033
5.625,-0.016
5.630,-0.006
5.635,0.017
5.640,0.025
5.645,0.034
5.650,0.049
5.655,0.049
5.660,0.038
5.665,0.049
5.670,0.056
5.675,0.025
5.680,0.027
5.685,0.060
5.690,0.034
5.695,0.000
5.700,0.025
5.705,0.042
5.710,0.010
5.715,-0.005
5.720,0.011
5.725,0.013
5.730,0.008
5.735,0.008
5.740,0.004
5.745,-0.001
5.750,0.015
5.755,0.017
5.760,-0.065
5.765,-0.238
5.770,-0.509
5.775,-0.861
5.780,-1.167
5.785,-1.347
5.790,-1.386
5.795,-1.164
5.800,-0.586
5.805,0.226
5.810,0.849
5.815,0.925
5.820,0.693
5.825,0.512
5.830,0.407
5.835,0.346
5.840,0.301
5.845,0.257
5.850,0.247
5.855,0.231
5.860,0.195
5.865,0.191
5.870,0.196
5.875,0.173
5.880,0.157
5.885,0.158
5.890,0.153
5.895,0.130
5.900,0.118
5.905,0.125
5.910,0.116
5.915,0.107
5.920,0.110
5.925,0.090
5.930,0.068
5.935,0.070
5.940,0.065
5.945,0.046
5.950,0.038
5.955,0.034
5.960,0.016
5.965,0.017
5.970,0.023
5.975,-0.005
5.980,-0.026
5.985,-0.022
5.990,-0.037
5.995,-0.068
6.000,-0.079
6.005,-0.083
6.010,-0.110
6.015,-0.135
6.020,-0.144
6.025,-0.171
6.030,-0.197
6.035,-0.201
6.040,-0.223
6.045,-0.258
6.050,-0.267
6.055,-0.268
6.060,-0.289
6.065,-0.301
6.070,-0.294
6.075,-0.302
6.080,-0.301
6.085,-0.272
6.090,-0.242
6.095,-0.214
6.100,-0.169
6.105,-0.117
6.110,-0.071
6.115,-0.011
6.120,0.067
6.125,0.135
6.130,0.191
6.135,0.251
6.140,0.306
6.145,0.348
6.150,0.384
6.155,0.409
6.160,0.416
6.165,0.431
6.170,0.443
6.175,0.426
6.180,0.416
6.185,0.424
6.190,0.410
6.195,0.382
6.200,0.375
6.205,0.366
6.210,0.326
6.215,0.303
6.220,0.310
6.225,0.295
6.230,0.267
6.235,0.255
6.240,0.238
6.245,0.217
6.250,0.211
6.255,0.202
6.260,0.172
6.265,0.154
6.270,0.155
6.275,0.141
6.280,0.119
6.285,0.110
6.290,0.093
6.295,0.078
6.300,0.081
6.305,0.073
6.310,0.049
6.315,0.047
6.320,0.055
6.325,0.035
6.330,0.019
6.335,0.023
6.340,0.019
6.345,0.008
6.350,0.006
6.355,0.003
6.360,-0.008
6.365,-0.005
6.370,0.003
6.375,-0.012
6.380,-0.025
6.385,-0.022
6.390,-0.030
6.395,-0.044
6.400,-0.036
6.405,-0.029
6.410,-0.046
6.415,-0.056
6.420,-0.050
6.425,-0.060
6.430,-0.066
6.435,-0.052
6.440,-0.055
6.445,-0.070
6.450,-0.068
6.455,-0.068
6.460,-0.078
6.465,-0.074
6.470,-0.066
6.475,-0.077
6.480,-0.088
6.485,-0.079
6.490,-0.076
6.495,-0.087
6.500,-0.081
6.505,-0.075
6.510,-0.092
6.515,-0.093
6.520,-0.082
6.525,-0.090
6.530,-0.095
6.535,-0.080
6.540,-0.082
6.545,-0.098
6.550,-0.088
6.555,-0.080
6.560,-0.096
6.565,-0.094
6.570,-0.078
6.575,-0.087
6.580,-0.091
6.585,-0.078
6.590,-0.082
6.595,-0.094
6.600,-0.085
6.605,-0.078
6.610,-0.089
6.615,-0.085
6.620,-0.072
6.625,-0.082
6.630,-0.089
6.635,-0.075
6.640,-0.072
6.645,-0.081
6.650,-0.074
6.655,-0.065
6.660,-0.073
6.665,-0.075
6.670,-0.068
6.675,-0.082
6.680,-0.100
6.685,-0.102
6.690,-0.116
6.695,-0.137
6.700,-0.131
6.705,-0.118
6.710,-0.126
6.715,-0.143
6.720,-0.153
6.725,-0.152
6.730,-0.127
6.735,-0.083
6.740,-0.050
6.745,-0.035
6.750,-0.017
6.755,0.005
6.760,0.010
6.765,0.019
6.770,0.040
6.775,0.038
6.780,0.034
6.785,0.048
6.790,0.048
6.795,0.032
6.800,0.035
6.805,0.039
6.810,0.024
6.815,0.021
6.820,0.031
6.825,0.021
6.830,0.011
6.835,0.027
6.840,0.029
6.845,0.011
6.850,0.012
6.855,0.016
6.860,0.000
6.865,-0.004
6.870,0.007
6.875,0.000
6.880,-0.028
6.885,-0.094
6.890,-0.262
6.895,-0.541
6.900,-0.838
6.905,-1.063
6.910,-1.208
6.915,-1.237
6.920,-1.005
6.925,-0.454
6.930,0.289
6.935,0.822
6.940,0.810
6.945,0.569
6.950,0.457
6.955,0.384
6.960,0.299
6.965,0.263
6.970,0.249
6.975,0.221
6.980,0.195
6.985,0.191
6.990,0.181
6.995,0.161
7.000,0.161
7.005,0.155
7.010,0.130
7.015,0.124
7.020,0.134
7.025,0.122
7.030,0.103
7.035,0.107
7.040,0.101
7.045,0.079
7.050,0.077
7.055,0.077
7.060,0.057
7.065,0.046
7.070,0.049
7.075,0.034
7.080,0.019
7.085,0.023
7.090,0.014
7.095,-0.009
7.100,-0.014
7.105,-0.017
7.110,-0.042
7.115,-0.056
7.120,-0.058
7.125,-0.080
7.130,-0.103
7.135,-0.104
7.140,-0.122
7.145,-0.155
7.150,-0.164
7.155,-0.174
7.160,-0.204
7.165,-0.222
7.170,-0.226
7.175,-0.252
7.180,-0.277
7.185,-0.275
7.190,-0.281
7.195,-0.296
7.200,-0.285
7.205,-0.269
7.210,-0.262
7.215,-0.237
7.220,-0.194
7.225,-0.160
7.230,-0.122
7.235,-0.057
7.240,0.004
7.245,0.054
7.250,0.123
7.255,0.189
7.260,0.230
7.265,0.277
7.270,0.331
7.275,0.356
7.280,0.373
7.285,0.403
7.290,0.411
7.295,0.400
7.300,0.406
7.305,0.410
7.310,0.389
7.315,0.376
7.320,0.375
7.325,0.353
7.330,0.331
7.335,0.328
7.340,0.314
7.345,0.285
7.350,0.273
7.355,0.267
7.360,0.241
7.365,0.225
7.370,0.222
7.375,0.200
7.380,0.178
7.385,0.175
7.390,0.162
7.395,0.136
7.400,0.130
7.405,0.127
7.410,0.107
7.415,0.095
7.420,0.098
7.425,0.082
7.430,0.064
7.435,0.066
7.440,0.060
7.445,0.043
7.450,0.045
7.455,0.045
7.460,0.026
7.465,0.020
7.470,0.026
7.475,0.014
7.480,0.001
7.485,0.008
7.490,0.006
7.495,-0.011
7.500,-0.008
7.505,-0.005
7.510,-0.023
7.515,-0.028
7.520,-0.020
7.525,-0.030
7.530,-0.041
7.535,-0.031
7.540,-0.033
7.545,-0.049
7.550,-0.046
7.555,-0.043
7.560,-0.059
7.565,-0.061
7.570,-0.051
7.575,-0.061
7.580,-0.072
7.585,-0.062
7.590,-0.062
7.595,-0.074
7.600,-0.069
7.605,-0.064
7.610,-0.077
7.615,-0.081
7.620,-0.071
7.625,-0.080
7.630,-0.089
7.635,-0.077
7.640,-0.078
7.645,-0.093
7.650,-0.085
7.655,-0.075
7.660,-0.087
7.665,-0.089
7.670,-0.077
7.675,-0.084
7.680,-0.091
7.685,-0.079
7.690,-0.079
7.695,-0.090
7.700,-0.083
7.705,-0.075
7.710,-0.086
7.715,-0.086
7.720,-0.071
7.725,-0.078
7.730,-0.088
7.735,-0.074
7.740,-0.070
7.745,-0.082
7.750,-0.075
7.755,-0.067
7.760,-0.079
7.765,-0.080
7.770,-0.065
7.775,-0.070
7.780,-0.076
7.785,-0.062
7.790,-0.062
7.795,-0.075
7.800,-0.070
7.805,-0.066
7.810,-0.082
7.815,-0.089
7.820,-0.086
7.825,-0.102
7.830,-0.122
7.835,-0.120
7.840,-0.118
7.845,-0.124
7.850,-0.133
7.855,-0.153
7.860,-0.162
7.865,-0.129
7.870,-0.085
7.875,-0.061
7.880,-0.040
7.885,-0.020
7.890,-0.007
7.895,0.004
7.900,0.021
7.905,0.034
7.910,0.031
7.915,0.036
7.920,0.051
7.925,0.046
7.930,0.037
7.935,0.047
7.940,0.043
7.945,0.028
7.950,0.032
7.955,0.036
7.960,0.022
7.965,0.019
7.970,0.027
7.975,0.018
7.980,0.008
7.985,0.021
7.990,0.020
7.995,0.001
8.000,0.005
8.005,0.011
8.010,-0.004
8.015,-0.009
8.020,-0.037
8.025,-0.169
8.030,-0.400
8.035,-0.680
8.040,-0.936
8.045,-1.101
8.050,-1.174
8.055,-1.084
8.060,-0.697
8.065,-0.021
8.070,0.624
8.075,0.812
8.080,0.629
8.085,0.476
8.090,0.396
8.095,0.307
8.100,0.265
8.105,0.245
8.110,0.214
8.115,0.196
8.120,0.196
8.125,0.178
8.130,0.158
8.135,0.162
8.140,0.155
8.145,0.132
8.150,0.130
8.155,0.129
8.160,0.108
8.165,0.103
8.170,0.110
8.175,0.094
8.180,0.076
8.185,0.082
8.190,0.077
8.195,0.054
8.200,0.049
8.205,0.052
8.210,0.034
8.215,0.024
8.220,0.027
8.225,0.011
8.230,-0.006
8.235,-0.006
8.240,-0.017
8.245,-0.040
8.250,-0.047
8.255,-0.053
8.260,-0.077
8.265,-0.092
8.270,-0.096
8.275,-0.119
8.280,-0.143
8.285,-0.148
8.290,-0.165
8.295,-0.198
8.300,-0.210
8.305,-0.219
8.310,-0.248
8.315,-0.264
8.320,-0.263
8.325,-0.278
8.330,-0.291
8.335,-0.279
8.340,-0.270
8.345,-0.269
8.350,-0.242
8.355,-0.206
8.360,-0.182
8.365,-0.138
8.370,-0.074
8.375,-0.025
8.380,0.026
8.385,0.099
8.390,0.159
8.395,0.202
8.400,0.259
8.405,0.311
8.410,0.334
8.415,0.358
8.420,0.388
8.425,0.395
8.430,0.392
8.435,0.403
8.440,0.401
8.445,0.378
8.450,0.375
8.455,0.375
8.460,0.350
8.465,0.334
8.470,0.331
8.475,0.308
8.480,0.284
8.485,0.281
8.490,0.266
8.495,0.239
8.500,0.232
8.505,0.226
8.510,0.200
8.515,0.186
8.520,0.185
8.525,0.164
8.530,0.144
8.535,0.145
8.540,0.134
8.545,0.110
8.550,0.105
8.555,0.102
8.560,0.079
8.565,0.068
8.570,0.075
8.575,0.060
8.580,0.043
8.585,0.050
8.590,0.045
8.595,0.025
8.600,0.027
8.605,0.031
8.610,0.013
8.615,0.004
8.620,0.012
8.625,0.005
8.630,-0.008
8.635,0.000
8.640,-0.004
8.645,-0.024
8.650,-0.021
8.655,-0.015
8.660,-0.031
8.665,-0.034
8.670,-0.026
8.675,-0.038
8.680,-0.051
8.685,-0.040
8.690,-0.041
8.695,-0.059
8.700,-0.057
8.705,-0.052
8.710,-0.067
8.715,-0.068
8.720,-0.055
8.725,-0.064
8.730,-0.074
8.735,-0.063
8.740,-0.064
8.745,-0.078
8.750,-0.074
8.755,-0.068
8.760,-0.082
8.765,-0.081
8.770,-0.067
8.775,-0.075
8.780,-0.086
8.785,-0.075
8.790,-0.074
8.795,-0.087
8.800,-0.082
8.805,-0.074
8.810,-0.086
8.815,-0.087
8.820,-0.074
8.825,-0.081
8.830,-0.088
8.835,-0.075
8.840,-0.074
8.845,-0.086
8.850,-0.078
8.855,-0.070
8.860,-0.083
8.865,-0.085
8.870,-0.069
8.875,-0.074
8.880,-0.081
8.885,-0.066
8.890,-0.063
8.895,-0.076
8.900,-0.070
8.905,-0.059
8.910,-0.070
8.915,-0.070
8.920,-0.056
8.925,-0.062
8.930,-0.072
8.935,-0.060
8.940,-0.057
8.945,-0.071
8.950,-0.068
8.955,-0.063
8.960,-0.084
8.965,-0.096
8.970,-0.094
8.975,-0.110
8.980,-0.128
8.985,-0.115
8.990,-0.105
8.995,-0.135
9.000,-0.156
9.005,-0.143
9.010,-0.126
9.015,-0.096
9.020,-0.050
9.025,-0.026
9.030,-0.023
9.035,0.003
9.040,0.028
9.045,0.026
9.050,0.032
9.055,0.046
9.060,0.043
9.065,0.045
9.070,0.057
9.075,0.049
9.080,0.040
9.085,0.048
9.090,0.044
9.095,0.028
9.100,0.032
9.105,0.039
9.110,0.024
9.115,0.018
9.120,0.029
9.125,0.021
9.130,0.010
9.135,0.017
9.140,0.016
9.145,0.002
9.150,0.008
9.155,0.017
9.160,0.000
9.165,-0.044
9.170,-0.149
9.175,-0.359
9.180,-0.645
9.185,-0.890
9.190,-1.056
9.195,-1.160
9.200,-1.075
9.205,-0.678
9.210,-0.022
9.215,0.602
9.220,0.808
9.225,0.634
9.230,0.460
9.235,0.387
9.240,0.318
9.245,0.254
9.250,0.231
9.255,0.220
9.260,0.188
9.265,0.172
9.270,0.173
9.275,0.156
9.280,0.138
9.285,0.140
9.290,0.134
9.295,0.115
9.300,0.113
9.305,0.114
9.310,0.094
9.315,0.085
9.320,0.090
9.325,0.077
9.330,0.063
9.335,0.068
9.340,0.061
9.345,0.040
9.350,0.038
9.355,0.040
9.360,0.021
9.365,0.009
9.370,0.012
9.375,-0.004
9.380,-0.023
9.385,-0.021
9.390,-0.030
9.395,-0.054
9.400,-0.059
9.405,-0.065
9.410,-0.095
9.415,-0.113
9.420,-0.114
9.425,-0.136
9.430,-0.163
9.435,-0.170
9.440,-0.187
9.445,-0.218
9.450,-0.229
9.455,-0.237
9.460,-0.264
9.465,-0.274
9.470,-0.270
9.475,-0.283
9.480,-0.291
9.485,-0.271
9.490,-0.256
9.495,-0.248
9.500,-0.214
9.505,-0.171
9.510,-0.142
9.515,-0.094
9.520,-0.026
9.525,0.026
9.530,0.078
9.535,0.149
9.540,0.205
9.545,0.241
9.550,0.290
9.555,0.333
9.560,0.348
9.565,0.365
9.570,0.387
9.575,0.386
9.580,0.378
9.585,0.386
9.590,0.383
9.595,0.362
9.600,0.356
9.605,0.352
9.610,0.325
9.615,0.307
9.620,0.305
9.625,0.285
9.630,0.262
9.635,0.257
9.640,0.244
9.645,0.218
9.650,0.209
9.655,0.205
9.660,0.182
9.665,0.166
9.670,0.164
9.675,0.146
9.680,0.127
9.685,0.128
9.690,0.118
9.695,0.094
9.700,0.093
9.705,0.092
9.710,0.070
9.715,0.061
9.720,0.067
9.725,0.053
9.730,0.038
9.735,0.044
9.740,0.041
9.745,0.024
9.750,0.024
9.755,0.027
9.760,0.011
9.765,0.004
9.770,0.011
9.775,0.002
9.780,-0.011
9.785,-0.005
9.790,-0.007
9.795,-0.021
9.800,-0.016
9.805,-0.013
9.810,-0.030
9.815,-0.037
9.820,-0.027
9.825,-0.036
9.830,-0.048
9.835,-0.039
9.840,-0.040
9.845,-0.058
9.850,-0.055
9.855,-0.048
9.860,-0.063
9.865,-0.067
9.870,-0.056
9.875,-0.064
9.880,-0.075
9.885,-0.064
9.890,-0.064
9.895,-0.080
9.900,-0.076
9.905,-0.069
9.910,-0.081
9.915,-0.081
9.920,-0.068
9.925,-0.076
9.930,-0.088
9.935,-0.074
9.940,-0.072
9.945,-0.087
9.950,-0.081
9.955,-0.071
9.960,-0.082
9.965,-0.084
9.970,-0.071
9.975,-0.077
9.980,-0.086
9.985,-0.073
9.990,-0.071
9.995,-0.083
10.000,-0.076
10.005,-0.067
10.010,-0.077
10.015,-0.076
10.020,-0.064
10.025,-0.071
10.030,-0.078
10.035,-0.067
10.040,-0.067
10.045,-0.076
10.050,-0.065
10.055,-0.056
10.060,-0.068
10.065,-0.068
10.070,-0.055
10.075,-0.061
10.080,-0.065
10.085,-0.050
10.090,-0.051
10.095,-0.067
10.100,-0.062
10.105,-0.059
10.110,-0.082
10.115,-0.093
10.120,-0.089
10.125,-0.107
10.130,-0.121
10.135,-0.107
10.140,-0.103
10.145,-0.133
10.150,-0.151
10.155,-0.135
10.160,-0.117
10.165,-0.087
10.170,-0.040
10.175,-0.017
10.180,-0.016
10.185,0.010
10.190,0.032
10.195,0.027
10.200,0.036
10.205,0.052
10.210,0.048
10.215,0.048
10.220,0.057
10.225,0.050
10.230,0.042
10.235,0.049
10.240,0.045
10.245,0.030
10.250,0.033
10.255,0.038
10.260,0.024
10.265,0.019
10.270,0.029
10.275,0.021
10.280,0.010
10.285,0.018
10.290,0.015
10.295,-0.003
10.300,0.002
10.305,0.014
10.310,0.000
10.315,-0.048
10.320,-0.160
10.325,-0.385
10.330,-0.678
10.335,-0.916
10.340,-1.078
10.345,-1.167
10.350,-1.025
10.355,-0.560
10.360,0.119
10.365,0.678
10.370,0.784
10.375,0.588
10.380,0.438
10.385,0.369
10.390,0.303
10.395,0.245
10.400,0.221
10.405,0.208
10.410,0.179
10.415,0.162
10.420,0.165
10.425,0.153
10.430,0.135
10.435,0.135
10.440,0.127
10.445,0.105
10.450,0.105
10.455,0.109
10.460,0.091
10.465,0.082
10.470,0.088
10.475,0.074
10.480,0.055
10.485,0.059
10.490,0.053
10.495,0.032
10.500,0.032
10.505,0.032
10.510,0.012
10.515,0.005
10.520,0.010
10.525,-0.006
10.530,-0.025
10.535,-0.024
10.540,-0.035
10.545,-0.059
10.550,-0.064
10.555,-0.070
10.560,-0.098
10.565,-0.112
10.570,-0.114
10.575,-0.138
10.580,-0.164
10.585,-0.169
10.590,-0.187
10.595,-0.217
10.600,-0.226
10.605,-0.233
10.610,-0.261
10.615,-0.275
10.620,-0.270
10.625,-0.277
10.630,-0.283
10.635,-0.265
10.640,-0.252
10.645,-0.243
10.650,-0.206
10.655,-0.160
10.660,-0.127
10.665,-0.078
10.670,-0.008
10.675,0.044
10.680,0.091
10.685,0.159
10.690,0.212
10.695,0.245
10.700,0.291
10.705,0.333
10.710,0.347
10.715,0.364
10.720,0.387
10.725,0.386
10.730,0.379
10.735,0.386
10.740,0.379
10.745,0.358
10.750,0.352
10.755,0.347
10.760,0.322
10.765,0.306
10.770,0.304
10.775,0.284
10.780,0.259
10.785,0.254
10.790,0.240
10.795,0.212
10.800,0.205
10.805,0.203
10.810,0.179
10.815,0.163
10.820,0.163
10.825,0.146
10.830,0.125
10.835,0.125
10.840,0.116
10.845,0.093
10.850,0.090
10.855,0.092
10.860,0.073
10.865,0.061
10.870,0.066
10.875,0.053
10.880,0.038
10.885,0.044
10.890,0.041
10.895,0.024
10.900,0.027
10.905,0.030
10.910,0.012
10.915,0.007
10.920,0.015
10.925,0.003
10.930,-0.012
10.935,-0.006
10.940,-0.007
10.945,-0.023
10.950,-0.024
10.955,-0.017
10.960,-0.028
10.965,-0.033
10.970,-0.025
10.975,-0.035
10.980,-0.047
10.985,-0.041
10.990,-0.044
10.995,-0.058
11.000,-0.052
11.005,-0.045
11.010,-0.060
11.015,-0.066
11.020,-0.057
11.025,-0.065
11.030,-0.076
11.035,-0.068
11.040,-0.068
11.045,-0.079
11.050,-0.075
11.055,-0.069
11.060,-0.082
11.065,-0.082
11.070,-0.069
11.075,-0.077
11.080,-0.086
11.085,-0.075
11.090,-0.074
11.095,-0.085
11.100,-0.078
11.105,-0.070
11.110,-0.081
11.115,-0.085
11.120,-0.074
11.125,-0.079
11.130,-0.088
11.135,-0.076
11.140,-0.074
11.145,-0.086
11.150,-0.078
11.155,-0.068
11.160,-0.080
11.165,-0.081
11.170,-0.069
11.175,-0.074
11.180,-0.082
11.185,-0.071
11.190,-0.067
11.195,-0.076
11.200,-0.071
11.205,-0.061
11.210,-0.069
11.215,-0.070
11.220,-0.057
11.225,-0.061
11.230,-0.069
11.235,-0.056
11.240,-0.056
11.245,-0.072
11.250,-0.069
11.255,-0.067
11.260,-0.089
11.265,-0.104
11.270,-0.101
11.275,-0.115
11.280,-0.125
11.285,-0.105
11.290,-0.112
11.295,-0.153
11.300,-0.155
11.305,-0.121
11.310,-0.101
11.315,-0.070
11.320,-0.022
11.325,-0.011
11.330,-0.011
11.335,0.023
11.340,0.037
11.345,0.023
11.350,0.036
11.355,0.054
11.360,0.047
11.365,0.045
11.370,0.056
11.375,0.048
11.380,0.036
11.385,0.044
11.390,0.042
11.395,0.025
11.400,0.029
11.405,0.034
11.410,0.018
11.415,0.015
11.420,0.025
11.425,0.015
11.430,0.006
11.435,0.016
11.440,0.014
11.445,-0.002
11.450,0.005
11.455,0.012
11.460,-0.032
11.465,-0.137
11.470,-0.322
11.475,-0.606
11.480,-0.876
11.485,-1.045
11.490,-1.146
11.495,-1.082
11.500,-0.690
11.505,-0.017
11.510,0.596
11.515,0.791
11.520,0.641
11.525,0.470
11.530,0.374
11.535,0.315
11.540,0.268
11.545,0.224
11.550,0.209
11.555,0.201
11.560,0.175
11.565,0.159
11.570,0.161
11.575,0.147
11.580,0.130
11.585,0.134
11.590,0.126
11.595,0.105
11.600,0.104
11.605,0.105
11.610,0.086
11.615,0.077
11.620,0.084
11.625,0.071
11.630,0.054
11.635,0.061
11.640,0.056
11.645,0.035
11.650,0.033
11.655,0.032
11.660,0.012
11.665,0.002
11.670,0.008
11.675,-0.007
11.680,-0.028
11.685,-0.027
11.690,-0.035
11.695,-0.061
11.700,-0.070
11.705,-0.078
11.710,-0.105
11.715,-0.122
11.720,-0.125
11.725,-0.147
11.730,-0.175
11.735,-0.181
11.740,-0.196
11.745,-0.224
11.750,-0.233
11.755,-0.241
11.760,-0.266
11.765,-0.275
11.770,-0.264
11.775,-0.270
11.780,-0.273
11.785,-0.248
11.790,-0.227
11.795,-0.214
11.800,-0.172
11.805,-0.121
11.810,-0.085
11.815,-0.034
11.820,0.035
11.825,0.087
11.830,0.134
11.835,0.199
11.840,0.247
11.845,0.274
11.850,0.315
11.855,0.352
11.860,0.361
11.865,0.371
11.870,0.390
11.875,0.385
11.880,0.375
11.885,0.381
11.890,0.370
11.895,0.347
11.900,0.342
11.905,0.335
11.910,0.307
11.915,0.291
11.920,0.288
11.925,0.265
11.930,0.244
11.935,0.243
11.940,0.227
11.945,0.198
11.950,0.191
11.955,0.187
11.960,0.163
11.965,0.147
11.970,0.148
11.975,0.132
11.980,0.113
11.985,0.116
11.990,0.107
11.995,0.084
12.000,0.081
12.005,0.082
12.010,0.062
12.015,0.051
12.020,0.055
12.025,0.042
12.030,0.029
12.035,0.035
12.040,0.030
12.045,0.010
12.050,0.013
12.055,0.024
12.060,0.007
12.065,-0.004
12.070,0.005
12.075,-0.004
12.080,-0.019
12.085,-0.009
12.090,-0.009
12.095,-0.026
12.100,-0.023
12.105,-0.017
12.110,-0.036
12.115,-0.041
12.120,-0.032
12.125,-0.044
12.130,-0.054
12.135,-0.044
12.140,-0.045
12.145,-0.060
12.150,-0.058
12.155,-0.054
12.160,-0.067
12.165,-0.068
12.170,-0.057
12.175,-0.065
12.180,-0.078
12.185,-0.069
12.190,-0.065
12.195,-0.080
12.200,-0.079
12.205,-0.070
12.210,-0.082
12.215,-0.085
12.220,-0.072
12.225,-0.077
12.230,-0.088
12.235,-0.076
12.240,-0.073
12.245,-0.087
12.250,-0.080
12.255,-0.072
12.260,-0.087
12.265,-0.088
12.270,-0.071
12.275,-0.076
12.280,-0.085
12.285,-0.078
12.290,-0.074
12.295,-0.082
12.300,-0.077
12.305,-0.070
12.310,-0.082
12.315,-0.080
12.320,-0.064
12.325,-0.072
12.330,-0.078
12.335,-0.063
12.340,-0.064
12.345,-0.077
12.350,-0.070
12.355,-0.059
12.360,-0.070
12.365,-0.069
12.370,-0.055
12.375,-0.066
12.380,-0.075
12.385,-0.066
12.390,-0.076
12.395,-0.100
12.400,-0.102
12.405,-0.102
12.410,-0.122
12.415,-0.122
12.420,-0.104
12.425,-0.131
12.430,-0.166
12.435,-0.148
12.440,-0.115
12.445,-0.095
12.450,-0.055
12.455,-0.015
12.460,-0.016
12.465,-0.004
12.470,0.035
12.475,0.035
12.480,0.023
12.485,0.051
12.490,0.058
12.495,0.038
12.500,0.045
12.505,0.054
12.510,0.036
12.515,0.028
12.520,0.037
12.525,0.027
12.530,0.015
12.535,0.022
12.540,0.023
12.545,0.020
12.550,0.029
12.555,0.031
12.560,0.014
12.565,0.006
12.570,0.013
12.575,0.002
12.580,-0.007
12.585,0.012
12.590,0.006
12.595,-0.060
12.600,-0.186
12.605,-0.405
12.610,-0.701
12.615,-0.946
12.620,-1.100
12.625,-1.157
12.630,-0.964
12.635,-0.434
12.640,0.265
12.645,0.742
12.650,0.765
12.655,0.576
12.660,0.434
12.665,0.349
12.670,0.298
12.675,0.248
12.680,0.203
12.685,0.192
12.690,0.182
12.695,0.158
12.700,0.154
12.705,0.155
12.710,0.133
12.715,0.120
12.720,0.121
12.725,0.105
12.730,0.084
12.735,0.087
12.740,0.095
12.745,0.082
12.750,0.078
12.755,0.079
12.760,0.063
12.765,0.054
12.770,0.055
12.775,0.036
12.780,0.020
12.785,0.025
12.790,0.019
12.795,-0.001
12.800,-0.006
12.805,-0.005
12.810,-0.020
12.815,-0.031
12.820,-0.031
12.825,-0.045
12.830,-0.066
12.835,-0.073
12.840,-0.087
12.845,-0.114
12.850,-0.122
12.855,-0.129
12.860,-0.159
12.865,-0.177
12.870,-0.180
12.875,-0.209
12.880,-0.238
12.885,-0.240
12.890,-0.253
12.895,-0.277
12.900,-0.269
12.905,-0.258
12.910,-0.278
12.915,-0.278
12.920,-0.244
12.925,-0.223
12.930,-0.206
12.935,-0.158
12.940,-0.109
12.945,-0.073
12.950,-0.012
12.955,0.055
12.960,0.097
12.965,0.151
12.970,0.218
12.975,0.261
12.980,0.291
12.985,0.329
12.990,0.356
12.995,0.362
13.000,0.379
13.005,0.392
13.010,0.377
13.015,0.376
13.020,0.384
13.025,0.363
13.030,0.342
13.035,0.345
13.040,0.331
13.045,0.298
13.050,0.287
13.055,0.283
13.060,0.260
13.065,0.242
13.070,0.237
13.075,0.214
13.080,0.189
13.085,0.191
13.090,0.186
13.095,0.162
13.100,0.156
13.105,0.150
13.110,0.118
13.115,0.105
13.120,0.114
13.125,0.100
13.130,0.076
13.135,0.072
13.140,0.067
13.145,0.060
13.150,0.065
13.155,0.061
13.160,0.040
13.165,0.028
13.170,0.031
13.175,0.028
13.180,0.021
13.185,0.022
13.190,0.017
13.195,0.003
13.200,-0.001
13.205,0.002
13.210,-0.008
13.215,-0.009
13.220,0.001
13.225,-0.013
13.230,-0.032
13.235,-0.030
13.240,-0.026
13.245,-0.035
13.250,-0.035
13.255,-0.035
13.260,-0.053
13.265,-0.055
13.270,-0.044
13.275,-0.054
13.280,-0.067
13.285,-0.060
13.290,-0.052
13.295,-0.062
13.300,-0.067
13.305,-0.064
13.310,-0.078
13.315,-0.083
13.320,-0.062
13.325,-0.067
13.330,-0.087
13.335,-0.072
13.340,-0.064
13.345,-0.079
13.350,-0.073
13.355,-0.065
13.360,-0.085
13.365,-0.090
13.370,-0.073
13.375,-0.081
13.380,-0.093
13.385,-0.074
13.390,-0.063
13.395,-0.076
13.400,-0.072
13.405,-0.066
13.410,-0.078
13.415,-0.080
13.420,-0.073
13.425,-0.080
13.430,-0.085
13.435,-0.073
13.440,-0.072
13.445,-0.082
13.450,-0.070
13.455,-0.061
13.460,-0.072
13.465,-0.070
13.470,-0.050
13.475,-0.055
13.480,-0.071
13.485,-0.057
13.490,-0.052
13.495,-0.070
13.500,-0.064
13.505,-0.052
13.510,-0.072
13.515,-0.092
13.520,-0.096
13.525,-0.110
13.530,-0.119
13.535,-0.111
13.540,-0.106
13.545,-0.117
13.550,-0.135
13.555,-0.148
13.560,-0.147
13.565,-0.113
13.570,-0.063
13.575,-0.035
13.580,-0.025
13.585,0.001
13.590,0.025
13.595,0.021
13.600,0.028
13.605,0.047
13.610,0.040
13.615,0.037
13.620,0.055
13.625,0.052
13.630,0.033
13.635,0.032
13.640,0.032
13.645,0.021
13.650,0.024
13.655,0.024
13.660,0.011
13.665,0.013
13.670,0.022
13.675,0.017
13.680,0.012
13.685,0.012
13.690,0.002
13.695,-0.009
13.700,0.002
13.705,0.014
13.710,-0.001
13.715,-0.034
13.720,-0.131
13.725,-0.360
13.730,-0.673
13.735,-0.959
13.740,-1.185
13.745,-1.313
13.750,-1.196
13.755,-0.755
13.760,-0.052
13.765,0.631
13.770,0.874
13.775,0.707
13.780,0.521
13.785,0.419
13.790,0.331
13.795,0.277
13.800,0.254
13.805,0.225
13.810,0.191
13.815,0.182
13.820,0.186
13.825,0.168
13.830,0.147
13.835,0.145
13.840,0.135
13.845,0.121
13.850,0.122
13.855,0.114
13.860,0.097
13.865,0.096
13.870,0.097
13.875,0.080
13.880,0.067
13.885,0.075
13.890,0.067
13.895,0.037
13.900,0.030
13.905,0.036
13.910,0.024
13.915,0.013
13.920,0.011
13.925,0.000
13.930,-0.016
13.935,-0.015
13.940,-0.022
13.945,-0.045
13.950,-0.056
13.955,-0.065
13.960,-0.094
13.965,-0.114
13.970,-0.118
13.975,-0.139
13.980,-0.164
13.985,-0.168
13.990,-0.186
13.995,-0.223
14.000,-0.233
14.005,-0.237
14.010,-0.271
14.015,-0.285
14.020,-0.281
14.025,-0.294
14.030,-0.295
14.035,-0.273
14.040,-0.260
14.045,-0.259
14.050,-0.231
14.055,-0.182
14.060,-0.146
14.065,-0.094
14.070,-0.023
14.075,0.033
14.080,0.089
14.085,0.161
14.090,0.216
14.095,0.255
14.100,0.309
14.105,0.351
14.110,0.357
14.115,0.378
14.120,0.411
14.125,0.410
14.130,0.404
14.135,0.412
14.140,0.402
14.145,0.378
14.150,0.375
14.155,0.373
14.160,0.344
14.165,0.323
14.170,0.319
14.175,0.300
14.180,0.277
14.185,0.266
14.190,0.243
14.195,0.221
14.200,0.222
14.205,0.216
14.210,0.187
14.215,0.170
14.220,0.167
14.225,0.148
14.230,0.132
14.235,0.131
14.240,0.115
14.245,0.094
14.250,0.095
14.255,0.090
14.260,0.059
14.265,0.049
14.270,0.065
14.275,0.055
14.280,0.034
14.285,0.041
14.290,0.038
14.295,0.018
14.300,0.016
14.305,0.020
14.310,0.012
14.315,0.008
14.320,0.011
14.325,-0.002
14.330,-0.015
14.335,-0.009
14.340,-0.015
14.345,-0.035
14.350,-0.037
14.355,-0.033
14.360,-0.042
14.365,-0.045
14.370,-0.035
14.375,-0.041
14.380,-0.058
14.385,-0.055
14.390,-0.055
14.395,-0.062
14.400,-0.058
14.405,-0.056
14.410,-0.071
14.415,-0.079
14.420,-0.064
14.425,-0.065
14.430,-0.079
14.435,-0.073
14.440,-0.069
14.445,-0.083
14.450,-0.084
14.455,-0.077
14.460,-0.084
14.465,-0.083
14.470,-0.068
14.475,-0.082
14.480,-0.102
14.485,-0.088
14.490,-0.084
14.495,-0.096
14.500,-0.084
14.505,-0.076
14.510,-0.089
14.515,-0.086
14.520,-0.073
14.525,-0.083
14.530,-0.091
14.535,-0.078
14.540,-0.078
14.545,-0.087
14.550,-0.077
14.555,-0.075
14.560,-0.092
14.565,-0.087
14.570,-0.067
14.575,-0.070
14.580,-0.079
14.585,-0.070
14.590,-0.070
14.595,-0.083
14.600,-0.074
14.605,-0.065
14.610,-0.079
14.615,-0.079
14.620,-0.066
14.625,-0.080
14.630,-0.103
14.635,-0.103
14.640,-0.112
14.645,-0.134
14.650,-0.128
14.655,-0.111
14.660,-0.130
14.665,-0.160
14.670,-0.155
14.675,-0.137
14.680,-0.115
14.685,-0.067
14.690,-0.032
14.695,-0.034
14.700,-0.015
14.705,0.022
14.710,0.024
14.715,0.023
14.720,0.041
14.725,0.039
14.730,0.031
14.735,0.046
14.740,0.051
14.745,0.034
14.750,0.035
14.755,0.042
14.760,0.030
14.765,0.025
14.770,0.032
14.775,0.022
14.780,0.011
14.785,0.020
14.790,0.021
14.795,0.008
14.800,0.011
14.805,0.016
14.810,0.002
14.815,-0.002
14.820,0.007
14.825,-0.002
14.830,-0.051
14.835,-0.169
14.840,-0.400
14.845,-0.721
14.850,-1.000
14.855,-1.180
14.860,-1.272
14.865,-1.138
14.870,-0.668
14.875,0.052
14.880,0.684
14.885,0.848
14.890,0.657
14.895,0.484
14.900,0.398
14.905,0.332
14.910,0.276
14.915,0.242
14.920,0.232
14.925,0.210
14.930,0.187
14.935,0.187
14.940,0.176
14.945,0.151
14.950,0.148
14.955,0.151
14.960,0.130
14.965,0.119
14.970,0.125
14.975,0.110
14.980,0.093
14.985,0.098
14.990,0.093
14.995,0.071
15.000,0.067
15.005,0.069
15.010,0.053
15.015,0.044
15.020,0.045
15.025,0.030
15.030,0.015
15.035,0.016
15.040,0.009
15.045,-0.013
15.050,-0.020
15.055,-0.024
15.060,-0.049
15.065,-0.066
15.070,-0.066
15.075,-0.087
15.080,-0.113
15.085,-0.117
15.090,-0.133
15.095,-0.164
15.100,-0.176
15.105,-0.186
15.110,-0.213
15.115,-0.234
15.120,-0.240
15.125,-0.259
15.130,-0.279
15.135,-0.274
15.140,-0.276
15.145,-0.291
15.150,-0.279
15.155,-0.255
15.160,-0.245
15.165,-0.218
15.170,-0.169
15.175,-0.130
15.180,-0.089
15.185,-0.022
15.190,0.041
15.195,0.090
15.200,0.156
15.205,0.223
15.210,0.260
15.215,0.300
15.220,0.348
15.225,0.365
15.230,0.374
15.235,0.400
15.240,0.408
15.245,0.397
15.250,0.400
15.255,0.398
15.260,0.376
15.265,0.365
15.270,0.363
15.275,0.340
15.280,0.317
15.285,0.314
15.290,0.297
15.295,0.266
15.300,0.257
15.305,0.252
15.310,0.227
15.315,0.211
15.320,0.208
15.325,0.188
15.330,0.168
15.335,0.165
15.340,0.151
15.345,0.124
15.350,0.119
15.355,0.120
15.360,0.098
15.365,0.085
15.370,0.089
15.375,0.073
15.380,0.055
15.385,0.057
15.390,0.048
15.395,0.029
15.400,0.033
15.405,0.038
15.410,0.021
15.415,0.015
15.420,0.024
15.425,0.012
15.430,-0.004
15.435,0.003
15.440,0.002
15.445,-0.014
15.450,-0.013
15.455,-0.009
15.460,-0.023
15.465,-0.028
15.470,-0.018
15.475,-0.026
15.480,-0.042
15.485,-0.038
15.490,-0.037
15.495,-0.050
15.500,-0.048
15.505,-0.044
15.510,-0.058
15.515,-0.062
15.520,-0.052
15.525,-0.061
15.530,-0.069
15.535,-0.060
15.540,-0.064
15.545,-0.078
15.550,-0.073
15.555,-0.067
15.560,-0.079
15.565,-0.082
15.570,-0.072
15.575,-0.079
15.580,-0.088
15.585,-0.074
15.590,-0.073
15.595,-0.087
15.600,-0.082
15.605,-0.073
15.610,-0.087
15.615,-0.089
15.620,-0.076
15.625,-0.083
15.630,-0.091
15.635,-0.079
15.640,-0.076
15.645,-0.089
15.650,-0.082
15.655,-0.070
15.660,-0.081
15.665,-0.082
15.670,-0.068
15.675,-0.075
15.680,-0.087
15.685,-0.073
15.690,-0.066
15.695,-0.077
15.700,-0.071
15.705,-0.063
15.710,-0.074
15.715,-0.074
15.720,-0.060
15.725,-0.064
15.730,-0.071
15.735,-0.061
15.740,-0.061
15.745,-0.077
15.750,-0.072
15.755,-0.068
15.760,-0.090
15.765,-0.100
15.770,-0.093
15.775,-0.111
15.780,-0.130
15.785,-0.117
15.790,-0.110
15.795,-0.139
15.800,-0.158
15.805,-0.141
15.810,-0.122
15.815,-0.095
15.820,-0.046
15.825,-0.022
15.830,-0.026
15.835,-0.007
15.840,0.020
15.845,0.018
15.850,0.030
15.855,0.049
15.860,0.044
15.865,0.042
15.870,0.051
15.875,0.043
15.880,0.033
15.885,0.043
15.890,0.042
15.895,0.027
15.900,0.031
15.905,0.036
15.910,0.022
15.915,0.020
15.920,0.030
15.925,0.018
15.930,0.004
15.935,0.011
15.940,0.009
15.945,-0.002
15.950,0.006
15.955,0.014
15.960,-0.008
15.965,-0.065
15.970,-0.194
15.975,-0.435
15.980,-0.730
15.985,-0.952
15.990,-1.097
15.995,-1.182
16.000,-1.042
16.005,-0.575
16.010,0.107
16.015,0.676
16.020,0.789
16.025,0.590
16.030,0.441
16.035,0.376
16.040,0.307
16.045,0.254
16.050,0.236
16.055,0.222
16.060,0.192
16.065,0.177
16.070,0.180
16.075,0.162
16.080,0.143
16.085,0.148
16.090,0.142
16.095,0.120
16.100,0.117
16.105,0.116
16.110,0.097
16.115,0.090
16.120,0.094
16.125,0.080
16.130,0.064
16.135,0.067
16.140,0.060
16.145,0.040
16.150,0.039
16.155,0.040
16.160,0.020
16.165,0.009
16.170,0.013
16.175,-0.004
16.180,-0.023
16.185,-0.022
16.190,-0.034
16.195,-0.059
16.200,-0.065
16.205,-0.070
16.210,-0.096
16.215,-0.114
16.220,-0.117
16.225,-0.142
16.230,-0.170
16.235,-0.175
16.240,-0.190
16.245,-0.222
16.250,-0.235
16.255,-0.242
16.260,-0.269
16.265,-0.283
16.270,-0.279
16.275,-0.289
16.280,-0.296
16.285,-0.274
16.290,-0.257
16.295,-0.249
16.300,-0.215
16.305,-0.168
16.310,-0.132
16.315,-0.080
16.320,-0.011
16.325,0.043
16.330,0.093
16.335,0.161
16.340,0.217
16.345,0.253
16.350,0.299
16.355,0.344
16.360,0.359
16.365,0.375
16.370,0.400
16.375,0.399
16.380,0.391
16.385,0.400
16.390,0.392
16.395,0.370
16.400,0.366
16.405,0.361
16.410,0.334
16.415,0.318
16.420,0.316
16.425,0.293
16.430,0.269
16.435,0.266
16.440,0.249
16.445,0.222
16.450,0.216
16.455,0.211
16.460,0.185
16.465,0.169
16.470,0.171
16.475,0.154
16.480,0.133
16.485,0.132
16.490,0.121
16.495,0.100
16.500,0.097
16.505,0.094
16.510,0.072
16.515,0.063
16.520,0.066
16.525,0.055
16.530,0.041
16.535,0.043
16.540,0.038
16.545,0.021
16.550,0.022
16.555,0.025
16.560,0.010
16.565,0.004
16.570,0.010
16.575,-0.002
16.580,-0.015
16.585,-0.006
16.590,-0.007
16.595,-0.024
16.600,-0.020
16.605,-0.013
16.610,-0.030
16.615,-0.036
16.620,-0.029
16.625,-0.040
16.630,-0.051
16.635,-0.041
16.640,-0.042
16.645,-0.056
16.650,-0.052
16.655,-0.048
16.660,-0.064
16.665,-0.068
16.670,-0.056
16.675,-0.063
16.680,-0.074
16.685,-0.064
16.690,-0.067
16.695,-0.082
16.700,-0.075
16.705,-0.068
16.710,-0.081
16.715,-0.082
16.720,-0.069
16.725,-0.078
16.730,-0.088
16.735,-0.074
16.740,-0.072
16.745,-0.087
16.750,-0.083
16.755,-0.073
16.760,-0.084
16.765,-0.087
16.770,-0.075
16.775,-0.080
16.780,-0.088
16.785,-0.075
16.790,-0.070
16.795,-0.083
16.800,-0.078
16.805,-0.069
16.810,-0.077
16.815,-0.077
16.820,-0.064
16.825,-0.071
16.830,-0.079
16.835,-0.066
16.840,-0.065
16.845,-0.076
16.850,-0.067
16.855,-0.058
16.860,-0.070
16.865,-0.069
16.870,-0.054
16.875,-0.061
16.880,-0.074
16.885,-0.065
16.890,-0.067
16.895,-0.089
16.900,-0.092
16.905,-0.094
16.910,-0.115
16.915,-0.124
16.920,-0.109
16.925,-0.111
16.930,-0.138
16.935,-0.150
16.940,-0.142
16.945,-0.123
16.950,-0.085
16.955,-0.044
16.960,-0.030
16.965,-0.023
16.970,0.004
16.975,0.021
16.980,0.018
16.985,0.033
16.990,0.045
16.995,0.038
17.000,0.045
17.005,0.054
17.010,0.042
17.015,0.037
17.020,0.045
17.025,0.035
17.030,0.022
17.035,0.031
17.040,0.032
17.045,0.018
17.050,0.022
17.055,0.028
17.060,0.013
17.065,0.007
17.070,0.017
17.075,0.007
17.080,-0.005
17.085,0.006
17.090,0.011
17.095,-0.009
17.100,-0.056
17.105,-0.186
17.110,-0.429
17.115,-0.709
17.120,-0.928
17.125,-1.082
17.130,-1.153
17.135,-0.994
17.140,-0.524
17.145,0.153
17.150,0.696
17.155,0.771
17.160,0.565
17.165,0.429
17.170,0.364
17.175,0.290
17.180,0.240
17.185,0.225
17.190,0.206
17.195,0.177
17.200,0.170
17.205,0.168
17.210,0.145
17.215,0.133
17.220,0.137
17.225,0.122
17.230,0.106
17.235,0.112
17.240,0.107
17.245,0.088
17.250,0.088
17.255,0.089
17.260,0.068
17.265,0.059
17.270,0.068
17.275,0.055
17.280,0.037
17.285,0.041
17.290,0.036
17.295,0.016
17.300,0.013
17.305,0.011
17.310,-0.009
17.315,-0.020
17.320,-0.018
17.325,-0.037
17.330,-0.057
17.335,-0.057
17.340,-0.072
17.345,-0.101
17.350,-0.109
17.355,-0.117
17.360,-0.145
17.365,-0.165
17.370,-0.172
17.375,-0.195
17.380,-0.221
17.385,-0.227
17.390,-0.241
17.395,-0.268
17.400,-0.274
17.405,-0.272
17.410,-0.288
17.415,-0.288
17.420,-0.267
17.425,-0.259
17.430,-0.246
17.435,-0.202
17.440,-0.163
17.445,-0.132
17.450,-0.072
17.455,-0.008
17.460,0.037
17.465,0.099
17.470,0.172
17.475,0.219
17.480,0.256
17.485,0.308
17.490,0.341
17.495,0.351
17.500,0.376
17.505,0.398
17.510,0.391
17.515,0.389
17.520,0.398
17.525,0.384
17.530,0.365
17.535,0.363
17.540,0.353
17.545,0.324
17.550,0.312
17.555,0.306
17.560,0.279
17.565,0.263
17.570,0.262
17.575,0.239
17.580,0.213
17.585,0.210
17.590,0.199
17.595,0.174
17.600,0.166
17.605,0.164
17.610,0.142
17.615,0.129
17.620,0.130
17.625,0.111
17.630,0.091
17.635,0.095
17.640,0.087
17.645,0.068
17.650,0.065
17.655,0.065
17.660,0.047
17.665,0.041
17.670,0.049
17.675,0.036
17.680,0.019
17.685,0.028
17.690,0.030
17.695,0.015
17.700,0.012
17.705,0.008
17.710,-0.008
17.715,-0.012
17.720,-0.003
17.725,-0.013
17.730,-0.027
17.735,-0.021
17.740,-0.023
17.745,-0.037
17.750,-0.033
17.755,-0.031
17.760,-0.045
17.765,-0.041
17.770,-0.034
17.775,-0.050
17.780,-0.064
17.785,-0.058
17.790,-0.058
17.795,-0.072
17.800,-0.068
17.805,-0.060
17.810,-0.070
17.815,-0.068
17.820,-0.055
17.825,-0.066
17.830,-0.081
17.835,-0.074
17.840,-0.076
17.845,-0.089
17.850,-0.082
17.855,-0.074
17.860,-0.088
17.865,-0.091
17.870,-0.076
17.875,-0.079
17.880,-0.085
17.885,-0.070
17.890,-0.070
17.895,-0.086
17.900,-0.083
17.905,-0.081
17.910,-0.093
17.915,-0.089
17.920,-0.074
17.925,-0.079
17.930,-0.087
17.935,-0.076
17.940,-0.069
17.945,-0.057
17.950,-0.055
17.955,-0.085
17.960,-0.099
17.965,-0.087
17.970,-0.074
17.975,-0.074
17.980,-0.077
17.985,-0.068
17.990,-0.067
17.995,-0.068
18.000,-0.058
18.005,-0.060
18.010,-0.076
18.015,-0.075
18.020,-0.063
18.025,-0.071
18.030,-0.079
18.035,-0.068
18.040,-0.071
18.045,-0.110
18.050,-0.136
18.055,-0.121
18.060,-0.117
18.065,-0.132
18.070,-0.140
18.075,-0.144
18.080,-0.135
18.085,-0.102
18.090,-0.064
18.095,-0.037
18.100,-0.014
18.105,0.004
18.110,0.008
18.115,0.015
18.120,0.035
18.125,0.038
18.130,0.037
18.135,0.053
18.140,0.052
18.145,0.038
18.150,0.045
18.155,0.049
18.160,0.030
18.165,0.029
18.170,0.042
18.175,0.033
18.180,0.023
18.185,0.033
18.190,0.030
18.195,0.012
18.200,0.015
18.205,0.023
18.210,0.008
18.215,0.004
18.220,0.016
18.225,0.008
18.230,-0.004
18.235,-0.030
18.240,-0.142
18.245,-0.364
18.250,-0.643
18.255,-0.892
18.260,-1.073
18.265,-1.167
18.270,-1.069
18.275,-0.670
18.280,0.004
18.285,0.634
18.290,0.801
18.295,0.609
18.300,0.458
18.305,0.385
18.310,0.304
18.315,0.254
18.320,0.237
18.325,0.211
18.330,0.184
18.335,0.181
18.340,0.172
18.345,0.148
18.350,0.146
18.355,0.148
18.360,0.126
18.365,0.114
18.370,0.119
18.375,0.106
18.380,0.091
18.385,0.094
18.390,0.084
18.395,0.065
18.400,0.067
18.405,0.069
18.410,0.052
18.415,0.045
18.420,0.049
18.425,0.033
18.430,0.015
18.435,0.018
18.440,0.010
18.445,-0.012
18.450,-0.015
18.455,-0.018
18.460,-0.039
18.465,-0.050
18.470,-0.051
18.475,-0.072
18.480,-0.096
18.485,-0.100
18.490,-0.115
18.495,-0.145
18.500,-0.155
18.505,-0.164
18.510,-0.193
18.515,-0.211
18.520,-0.215
18.525,-0.239
18.530,-0.265
18.535,-0.266
18.540,-0.272
18.545,-0.289
18.550,-0.281
18.555,-0.263
18.560,-0.264
18.565,-0.247
18.570,-0.205
18.575,-0.176
18.580,-0.140
18.585,-0.077
18.590,-0.021
18.595,0.025
18.600,0.089
18.605,0.156
18.610,0.201
18.615,0.250
18.620,0.305
18.625,0.333
18.630,0.350
18.635,0.381
18.640,0.394
18.645,0.387
18.650,0.394
18.655,0.398
18.660,0.380
18.665,0.372
18.670,0.375
18.675,0.354
18.680,0.329
18.685,0.324
18.690,0.309
18.695,0.283
18.700,0.275
18.705,0.268
18.710,0.240
18.715,0.222
18.720,0.221
18.725,0.202
18.730,0.179
18.735,0.175
18.740,0.163
18.745,0.141
18.750,0.136
18.755,0.134
18.760,0.111
18.765,0.099
18.770,0.099
18.775,0.082
18.780,0.064
18.785,0.066
18.790,0.059
18.795,0.038
18.800,0.041
18.805,0.047
18.810,0.028
18.815,0.020
18.820,0.024
18.825,0.013
18.830,0.002
18.835,0.009
18.840,0.006
18.845,-0.011
18.850,-0.010
18.855,-0.006
18.860,-0.021
18.865,-0.026
18.870,-0.018
18.875,-0.028
18.880,-0.040
18.885,-0.032
18.890,-0.034
18.895,-0.051
18.900,-0.047
18.905,-0.040
18.910,-0.057
18.915,-0.064
18.920,-0.056
18.925,-0.062
18.930,-0.067
18.935,-0.056
18.940,-0.060
18.945,-0.076
18.950,-0.073
18.955,-0.067
18.960,-0.077
18.965,-0.079
18.970,-0.069
18.975,-0.077
18.980,-0.087
18.985,-0.076
18.990,-0.076
18.995,-0.093
19.000,-0.087
19.005,-0.078
19.010,-0.089
19.015,-0.090
19.020,-0.075
19.025,-0.077
19.030,-0.087
19.035,-0.078
19.040,-0.079
19.045,-0.093
19.050,-0.085
19.055,-0.078
19.060,-0.091
19.065,-0.085
19.070,-0.069
19.075,-0.078
19.080,-0.086
19.085,-0.074
19.090,-0.072
19.095,-0.082
19.100,-0.073
19.105,-0.062
19.110,-0.073
19.115,-0.074
19.120,-0.058
19.125,-0.064
19.130,-0.073
19.135,-0.061
19.140,-0.061
19.145,-0.076
19.150,-0.071
19.155,-0.072
19.160,-0.094
19.165,-0.100
19.170,-0.094
19.175,-0.112
19.180,-0.128
19.185,-0.108
19.190,-0.104
19.195,-0.145
19.200,-0.157
19.205,-0.130
19.210,-0.110
19.215,-0.077
19.220,-0.027
19.225,-0.015
19.230,-0.022
19.235,0.011
19.240,0.038
19.245,0.027
19.250,0.037
19.255,0.055
19.260,0.044
19.265,0.043
19.270,0.058
19.275,0.048
19.280,0.032
19.285,0.039
19.290,0.036
19.295,0.019
19.300,0.025
19.305,0.039
19.310,0.031
19.315,0.025
19.320,0.031
19.325,0.018
19.330,0.003
19.335,0.014
19.340,0.017
19.345,-0.003
19.350,-0.001
19.355,0.011
19.360,-0.022
19.365,-0.109
19.370,-0.269
19.375,-0.536
19.380,-0.819
19.385,-1.011
19.390,-1.131
19.395,-1.102
19.400,-0.751
19.405,-0.104
19.410,0.538
19.415,0.800
19.420,0.675
19.425,0.485
19.430,0.378
19.435,0.312
19.440,0.257
19.445,0.212
19.450,0.196
19.455,0.184
19.460,0.157
19.465,0.144
19.470,0.143
19.475,0.123
19.480,0.106
19.485,0.113
19.490,0.111
19.495,0.095
19.500,0.098
19.505,0.097
19.510,0.074
19.515,0.068
19.520,0.074
19.525,0.057
19.530,0.043
19.535,0.050
19.540,0.040
19.545,0.022
19.550,0.029
19.555,0.024
19.560,-0.001
19.565,-0.001
19.570,0.007
19.575,-0.014
19.580,-0.037
19.585,-0.034
19.590,-0.042
19.595,-0.068
19.600,-0.079
19.605,-0.081
19.610,-0.099
19.615,-0.115
19.620,-0.125
19.625,-0.152
19.630,-0.177
19.635,-0.183
19.640,-0.200
19.645,-0.230
19.650,-0.237
19.655,-0.240
19.660,-0.266
19.665,-0.281
19.670,-0.274
19.675,-0.281
19.680,-0.289
19.685,-0.270
19.690,-0.249
19.695,-0.232
19.700,-0.192
19.705,-0.142
19.710,-0.101
19.715,-0.043
19.720,0.026
19.725,0.074
19.730,0.125
19.735,0.194
19.740,0.243
19.745,0.273
19.750,0.322
19.755,0.362
19.760,0.366
19.765,0.373
19.770,0.394
19.775,0.392
19.780,0.385
19.785,0.393
19.790,0.382
19.795,0.353
19.800,0.341
19.805,0.335
19.810,0.314
19.815,0.301
19.820,0.297
19.825,0.275
19.830,0.253
19.835,0.252
19.840,0.237
19.845,0.204
19.850,0.197
19.855,0.201
19.860,0.179
19.865,0.155
19.870,0.154
19.875,0.142
19.880,0.120
19.885,0.115
19.890,0.104
19.895,0.088
19.900,0.089
19.905,0.084
19.910,0.058
19.915,0.055
19.920,0.068
19.925,0.048
19.930,0.028
19.935,0.035
19.940,0.034
19.945,0.017
19.950,0.018
19.955,0.025
19.960,0.010
19.965,0.001
19.970,0.010
19.975,0.002
19.980,-0.013
19.985,-0.007
19.990,-0.010
19.995,-0.026
20.000,-0.022
20.005,-0.024
20.010,-0.047
20.015,-0.049
20.020,-0.031
20.025,-0.037
20.030,-0.050
20.035,-0.043
20.040,-0.048
20.045,-0.060
20.050,-0.051
20.055,-0.049
20.060,-0.072
20.065,-0.073
20.070,-0.059
20.075,-0.074
20.080,-0.084
20.085,-0.063
20.090,-0.061
20.095,-0.079
20.100,-0.071
20.105,-0.063
20.110,-0.082
20.115,-0.085
20.120,-0.069
20.125,-0.074
20.130,-0.082
20.135,-0.069
20.140,-0.072
20.145,-0.092
20.150,-0.088
20.155,-0.075
20.160,-0.081
20.165,-0.076
20.170,-0.062
20.175,-0.073
20.180,-0.086
20.185,-0.072
20.190,-0.068
20.195,-0.080
20.200,-0.077
20.205,-0.068
20.210,-0.078
20.215,-0.077
20.220,-0.059
20.225,-0.064
20.230,-0.079
20.235,-0.071
20.240,-0.067
20.245,-0.075
20.250,-0.068
20.255,-0.060
20.260,-0.071
20.265,-0.077
20.270,-0.075
20.275,-0.093
20.280,-0.115
20.285,-0.112
20.290,-0.118
20.295,-0.131
20.300,-0.119
20.305,-0.125
20.310,-0.159
20.315,-0.156
20.320,-0.119
20.325,-0.095
20.330,-0.073
20.335,-0.035
20.340,-0.033
20.345,-0.047
20.350,-0.016
20.355,0.007
20.360,-0.006
20.365,0.000
20.370,0.018
20.375,0.016
20.380,0.014
20.385,0.026
20.390,0.021
20.395,0.007
20.400,0.015
20.405,0.021
20.410,0.007
20.415,0.002
20.420,0.010
20.425,0.002
20.430,-0.006
20.435,0.008
20.440,0.016
20.445,0.002
20.450,0.005
20.455,0.008
20.460,-0.008
20.465,-0.004
20.470,0.004
20.475,-0.056
20.480,-0.208
20.485,-0.452
20.490,-0.757
20.495,-1.035
20.500,-1.216
20.505,-1.263
20.510,-1.058
20.515,-0.507
20.520,0.261
20.525,0.798
20.530,0.820
20.535,0.628
20.540,0.487
20.545,0.379
20.550,0.320
20.555,0.288
20.560,0.243
20.565,0.216
20.570,0.210
20.575,0.192
20.580,0.173
20.585,0.174
20.590,0.165
20.595,0.143
20.600,0.143
20.605,0.140
20.610,0.114
20.615,0.105
20.620,0.114
20.625,0.104
20.630,0.093
20.635,0.098
20.640,0.087
20.645,0.067
20.650,0.068
20.655,0.067
20.660,0.046
20.665,0.039
20.670,0.043
20.675,0.028
20.680,0.012
20.685,0.015
20.690,0.007
20.695,-0.019
20.700,-0.026
20.705,-0.033
20.710,-0.059
20.715,-0.073
20.720,-0.075
20.725,-0.096
20.730,-0.119
20.735,-0.123
20.740,-0.142
20.745,-0.178
20.750,-0.191
20.755,-0.200
20.760,-0.229
20.765,-0.245
20.770,-0.244
20.775,-0.262
20.780,-0.278
20.785,-0.270
20.790,-0.272
20.795,-0.278
20.800,-0.253
20.805,-0.222
20.810,-0.206
20.815,-0.170
20.820,-0.110
20.825,-0.063
20.830,-0.015
20.835,0.055
20.840,0.117
20.845,0.164
20.850,0.225
20.855,0.279
20.860,0.308
20.865,0.339
20.870,0.373
20.875,0.381
20.880,0.383
20.885,0.403
20.890,0.403
20.895,0.385
20.900,0.385
20.905,0.384
20.910,0.358
20.915,0.342
20.920,0.335
20.925,0.309
20.930,0.290
20.935,0.292
20.940,0.272
20.945,0.243
20.950,0.239
20.955,0.231
20.960,0.200
20.965,0.184
20.970,0.184
20.975,0.164
20.980,0.143
20.985,0.141
20.990,0.129
20.995,0.109
21.000,0.107
21.005,0.103
21.010,0.081
21.015,0.071
21.020,0.074
21.025,0.061
21.030,0.046
21.035,0.052
21.040,0.047
21.045,0.029
21.050,0.030
21.055,0.032
21.060,0.013
21.065,0.005
21.070,0.017
21.075,0.010
21.080,-0.005
21.085,0.000
21.090,-0.003
21.095,-0.020
21.100,-0.017
21.105,-0.015
21.110,-0.034
21.115,-0.036
21.120,-0.027
21.125,-0.037
21.130,-0.046
21.135,-0.037
21.140,-0.042
21.145,-0.057
21.150,-0.052
21.155,-0.049
21.160,-0.065
21.165,-0.071
21.170,-0.060
21.175,-0.065
21.180,-0.077
21.185,-0.066
21.190,-0.067
21.195,-0.081
21.200,-0.074
21.205,-0.069
21.210,-0.085
21.215,-0.085
21.220,-0.073
21.225,-0.077
21.230,-0.084
21.235,-0.076
21.240,-0.075
21.245,-0.087
21.250,-0.081
21.255,-0.073
21.260,-0.085
21.265,-0.086
21.270,-0.073
21.275,-0.079
21.280,-0.086
21.285,-0.075
21.290,-0.078
21.295,-0.093
21.300,-0.082
21.305,-0.070
21.310,-0.082
21.315,-0.082
21.320,-0.069
21.325,-0.075
21.330,-0.082
21.335,-0.073
21.340,-0.074
21.345,-0.085
21.350,-0.075
21.355,-0.063
21.360,-0.074
21.365,-0.074
21.370,-0.058
21.375,-0.063
21.380,-0.072
21.385,-0.063
21.390,-0.063
21.395,-0.076
21.400,-0.074
21.405,-0.074
21.410,-0.096
21.415,-0.109
21.420,-0.107
21.425,-0.124
21.430,-0.133
21.435,-0.111
21.440,-0.123
21.445,-0.160
21.450,-0.147
21.455,-0.110
21.460,-0.092
21.465,-0.061
21.470,-0.022
21.475,-0.020
21.480,-0.013
21.485,0.021
21.490,0.031
21.495,0.023
21.500,0.039
21.505,0.053
21.510,0.040
21.515,0.037
21.520,0.048
21.525,0.041
21.530,0.031
21.535,0.039
21.540,0.037
21.545,0.022
21.550,0.024
21.555,0.027
21.560,0.014
21.565,0.012
21.570,0.022
21.575,0.016
21.580,0.006
21.585,0.012
21.590,0.007
21.595,-0.007
21.600,0.004
21.605,0.003
21.610,-0.069
21.615,-0.215
21.620,-0.444
21.625,-0.743
21.630,-0.984
21.635,-1.113
21.640,-1.170
21.645,-1.022
21.650,-0.523
21.655,0.194
21.660,0.719
21.665,0.773
21.670,0.587
21.675,0.448
21.680,0.360
21.685,0.304
21.690,0.263
21.695,0.224
21.700,0.215
21.705,0.206
21.710,0.176
21.715,0.164
21.720,0.167
21.725,0.150
21.730,0.134
21.735,0.135
21.740,0.128
21.745,0.109
21.750,0.108
21.755,0.110
21.760,0.089
21.765,0.081
21.770,0.087
21.775,0.072
21.780,0.055
21.785,0.058
21.790,0.051
21.795,0.031
21.800,0.031
21.805,0.029
21.810,0.007
21.815,0.000
21.820,0.003
21.825,-0.016
21.830,-0.035
21.835,-0.036
21.840,-0.046
21.845,-0.069
21.850,-0.077
21.855,-0.085
21.860,-0.114
21.865,-0.131
21.870,-0.136
21.875,-0.161
21.880,-0.186
21.885,-0.191
21.890,-0.209
21.895,-0.242
21.900,-0.251
21.905,-0.257
21.910,-0.283
21.915,-0.292
21.920,-0.284
21.925,-0.290
21.930,-0.289
21.935,-0.261
21.940,-0.238
21.945,-0.220
21.950,-0.177
21.955,-0.124
21.960,-0.081
21.965,-0.023
21.970,0.049
21.975,0.101
21.980,0.150
21.985,0.216
21.990,0.265
21.995,0.294
22.000,0.332
22.005,0.364
22.010,0.373
22.015,0.386
22.020,0.405
22.025,0.399
22.030,0.388
22.035,0.393
22.040,0.381
22.045,0.356
22.050,0.350
22.055,0.344
22.060,0.317
22.065,0.301
22.070,0.298
22.075,0.276
22.080,0.253
22.085,0.249
22.090,0.232
22.095,0.205
22.100,0.203
22.105,0.198
22.110,0.172
22.115,0.159
22.120,0.158
22.125,0.139
22.130,0.119
22.135,0.119
22.140,0.108
22.145,0.085
22.150,0.084
22.155,0.085
22.160,0.064
22.165,0.056
22.170,0.059
22.175,0.042
22.180,0.029
22.185,0.035
22.190,0.030
22.195,0.013
22.200,0.015
22.205,0.019
22.210,0.004
22.215,0.001
22.220,0.007
22.225,-0.005
22.230,-0.017
22.235,-0.008
22.240,-0.013
22.245,-0.031
22.250,-0.027
22.255,-0.022
22.260,-0.037
22.265,-0.038
22.270,-0.029
22.275,-0.041
22.280,-0.052
22.285,-0.042
22.290,-0.045
22.295,-0.062
22.300,-0.056
22.305,-0.047
22.310,-0.063
22.315,-0.068
22.320,-0.057
22.325,-0.067
22.330,-0.079
22.335,-0.067
22.340,-0.065
22.345,-0.078
22.350,-0.074
22.355,-0.069
22.360,-0.083
22.365,-0.080
22.370,-0.066
22.375,-0.074
22.380,-0.083
22.385,-0.072
22.390,-0.073
22.395,-0.087
22.400,-0.080
22.405,-0.073
22.410,-0.086
22.415,-0.085
22.420,-0.072
22.425,-0.079
22.430,-0.087
22.435,-0.073
22.440,-0.072
22.445,-0.084
22.450,-0.075
22.455,-0.066
22.460,-0.079
22.465,-0.078
22.470,-0.065
22.475,-0.071
22.480,-0.078
22.485,-0.063
22.490,-0.061
22.495,-0.073
22.500,-0.065
22.505,-0.056
22.510,-0.066
22.515,-0.064
22.520,-0.051
22.525,-0.059
22.530,-0.069
22.535,-0.060
22.540,-0.062
22.545,-0.084
22.550,-0.089
22.555,-0.090
22.560,-0.111
22.565,-0.121
22.570,-0.108
22.575,-0.107
22.580,-0.128
22.585,-0.144
22.590,-0.144
22.595,-0.129
22.600,-0.092
22.605,-0.052
22.610,-0.031
22.615,-0.017
22.620,0.004
22.625,0.019
22.630,0.023
22.635,0.036
22.640,0.041
22.645,0.036
22.650,0.048
22.655,0.057
22.660,0.044
22.665,0.040
22.670,0.049
22.675,0.039
22.680,0.029
22.685,0.037
22.690,0.034
22.695,0.019
22.700,0.024
22.705,0.031
22.710,0.018
22.715,0.015
22.720,0.022
22.725,0.012
22.730,0.004
22.735,0.012
22.740,0.013
22.745,0.000
22.750,-0.027
22.755,-0.126
22.760,-0.336
22.765,-0.610
22.770,-0.860
22.775,-1.042
22.780,-1.148
22.785,-1.071
22.790,-0.699
22.795,-0.053
22.800,0.588
22.805,0.810
22.810,0.636
22.815,0.465
22.820,0.393
22.825,0.315
22.830,0.258
22.835,0.239
22.840,0.217
22.845,0.186
22.850,0.177
22.855,0.173
22.860,0.153
22.865,0.142
22.870,0.146
22.875,0.132
22.880,0.115
22.885,0.119
22.890,0.111
22.895,0.090
22.900,0.093
22.905,0.095
22.910,0.075
22.915,0.068
22.920,0.074
22.925,0.058
22.930,0.042
22.935,0.049
22.940,0.042
22.945,0.020
22.950,0.017
22.955,0.015
22.960,-0.006
22.965,-0.017
22.970,-0.016
22.975,-0.036
22.980,-0.055
22.985,-0.051
22.990,-0.063
22.995,-0.092
23.000,-0.100
23.005,-0.108
23.010,-0.138
23.015,-0.159
23.020,-0.166
23.025,-0.190
23.030,-0.216
23.035,-0.221
23.040,-0.239
23.045,-0.268
23.050,-0.274
23.055,-0.274
23.060,-0.290
23.065,-0.290
23.070,-0.274
23.075,-0.271
23.080,-0.256
23.085,-0.217
23.090,-0.185
23.095,-0.156
23.100,-0.099
23.105,-0.035
23.110,0.010
23.115,0.067
23.120,0.140
23.125,0.188
23.130,0.230
23.135,0.286
23.140,0.320
23.145,0.335
23.150,0.361
23.155,0.382
23.160,0.378
23.165,0.378
23.170,0.389
23.175,0.377
23.180,0.360
23.185,0.363
23.190,0.351
23.195,0.325
23.200,0.318
23.205,0.307
23.210,0.278
23.215,0.266
23.220,0.264
23.225,0.241
23.230,0.217
23.235,0.213
23.240,0.199
23.245,0.174
23.250,0.166
23.255,0.161
23.260,0.139
23.265,0.127
23.270,0.126
23.275,0.108
23.280,0.090
23.285,0.092
23.290,0.084
23.295,0.065
23.300,0.064
23.305,0.062
23.310,0.041
23.315,0.035
23.320,0.040
23.325,0.028
23.330,0.016
23.335,0.023
23.340,0.016
23.345,-0.002
23.350,0.003
23.355,0.007
23.360,-0.010
23.365,-0.012
23.370,-0.002
23.375,-0.015
23.380,-0.027
23.385,-0.021
23.390,-0.027
23.395,-0.040
23.400,-0.036
23.405,-0.031
23.410,-0.043
23.415,-0.049
23.420,-0.041
23.425,-0.051
23.430,-0.062
23.435,-0.054
23.440,-0.056
23.445,-0.070
23.450,-0.067
23.455,-0.064
23.460,-0.077
23.465,-0.076
23.470,-0.064
23.475,-0.075
23.480,-0.083
23.485,-0.071
23.490,-0.072
23.495,-0.084
23.500,-0.078
23.505,-0.072
23.510,-0.084
23.515,-0.084
23.520,-0.072
23.525,-0.081
23.530,-0.089
23.535,-0.078
23.540,-0.077
23.545,-0.089
23.550,-0.081
23.555,-0.075
23.560,-0.089
23.565,-0.087
23.570,-0.072
23.575,-0.081
23.580,-0.089
23.585,-0.075
23.590,-0.076
23.595,-0.090
23.600,-0.080
23.605,-0.069
23.610,-0.081
23.615,-0.081
23.620,-0.068
23.625,-0.072
23.630,-0.077
23.635,-0.064
23.640,-0.064
23.645,-0.078
23.650,-0.070
23.655,-0.060
23.660,-0.072
23.665,-0.071
23.670,-0.056
23.675,-0.063
23.680,-0.071
23.685,-0.060
23.690,-0.062
23.695,-0.081
23.700,-0.085
23.705,-0.087
23.710,-0.109
23.715,-0.118
23.720,-0.109
23.725,-0.112
23.730,-0.120
23.735,-0.133
23.740,-0.150
23.745,-0.143
23.750,-0.104
23.755,-0.068
23.760,-0.045
23.765,-0.022
23.770,-0.002
23.775,0.008
23.780,0.018
23.785,0.034
23.790,0.040
23.795,0.038
23.800,0.051
23.805,0.058
23.810,0.045
23.815,0.043
23.820,0.051
23.825,0.039
23.830,0.030
23.835,0.042
23.840,0.037
23.845,0.022
23.850,0.028
23.855,0.032
23.860,0.017
23.865,0.016
23.870,0.024
23.875,0.011
23.880,0.001
23.885,0.012
23.890,0.010
23.895,0.000
23.900,-0.006
23.905,-0.066
23.910,-0.230
23.915,-0.470
23.920,-0.734
23.925,-0.957
23.930,-1.103
23.935,-1.127
23.940,-0.909
23.945,-0.376
23.950,0.330
23.955,0.775
23.960,0.728
23.965,0.528
23.970,0.425
23.975,0.340
23.980,0.271
23.985,0.248
23.990,0.220
23.995,0.187
24.000,0.178
24.005,0.171
24.010,0.149
24.015,0.142
24.020,0.146
24.025,0.131
24.030,0.115
24.035,0.118
24.040,0.109
24.045,0.087
24.050,0.092
24.055,0.095
24.060,0.075
24.065,0.068
24.070,0.073
24.075,0.059
24.080,0.044
24.085,0.049
24.090,0.040
24.095,0.019
24.100,0.020
24.105,0.019
24.110,-0.002
24.115,-0.009
24.120,-0.004
24.125,-0.022
24.130,-0.043
24.135,-0.044
24.140,-0.057
24.145,-0.081
24.150,-0.087
24.155,-0.097
24.160,-0.125
24.165,-0.142
24.170,-0.147
24.175,-0.172
24.180,-0.198
24.185,-0.203
24.190,-0.218
24.195,-0.246
24.200,-0.254
24.205,-0.262
24.210,-0.282
24.215,-0.284
24.220,-0.269
24.225,-0.270
24.230,-0.263
24.235,-0.226
24.240,-0.196
24.245,-0.172
24.250,-0.120
24.255,-0.062
24.260,-0.019
24.265,0.040
24.270,0.110
24.275,0.159
24.280,0.204
24.285,0.265
24.290,0.304
24.295,0.322
24.300,0.352
24.305,0.376
24.310,0.375
24.315,0.381
24.320,0.397
24.325,0.387
24.330,0.370
24.335,0.373
24.340,0.361
24.345,0.335
24.350,0.328
24.355,0.320
24.360,0.294
24.365,0.279
24.370,0.277
24.375,0.254
24.380,0.232
24.385,0.230
24.390,0.216
24.395,0.191
24.400,0.187
24.405,0.180
24.410,0.156
24.415,0.143
24.420,0.140
24.425,0.122
24.430,0.107
24.435,0.111
24.440,0.100
24.445,0.077
24.450,0.078
24.455,0.078
24.460,0.056
24.465,0.048
24.470,0.055
24.475,0.042
24.480,0.026
24.485,0.032
24.490,0.028
24.495,0.010
24.500,0.013
24.505,0.016
24.510,0.000
24.515,-0.002
24.520,0.010
24.525,-0.003
24.530,-0.016
24.535,-0.008
24.540,-0.014
24.545,-0.032
24.550,-0.026
24.555,-0.019
24.560,-0.033
24.565,-0.037
24.570,-0.031
24.575,-0.043
24.580,-0.054
24.585,-0.043
24.590,-0.045
24.595,-0.060
24.600,-0.057
24.605,-0.051
24.610,-0.063
24.615,-0.067
24.620,-0.058
24.625,-0.065
24.630,-0.075
24.635,-0.065
24.640,-0.066
24.645,-0.081
24.650,-0.073
24.655,-0.063
24.660,-0.078
24.665,-0.079
24.670,-0.067
24.675,-0.076
24.680,-0.083
24.685,-0.071
24.690,-0.072
24.695,-0.084
24.700,-0.074
24.705,-0.066
24.710,-0.079
24.715,-0.077
24.720,-0.064
24.725,-0.072
24.730,-0.080
24.735,-0.068
24.740,-0.070
24.745,-0.082
24.750,-0.073
24.755,-0.063
24.760,-0.074
24.765,-0.074
24.770,-0.059
24.775,-0.066
24.780,-0.074
24.785,-0.060
24.790,-0.057
24.795,-0.067
24.800,-0.061
24.805,-0.056
24.810,-0.067
24.815,-0.063
24.820,-0.048
24.825,-0.058
24.830,-0.069
24.835,-0.060
24.840,-0.068
24.845,-0.090
24.850,-0.092
24.855,-0.095
24.860,-0.116
24.865,-0.121
24.870,-0.103
24.875,-0.111
24.880,-0.143
24.885,-0.146
24.890,-0.127
24.895,-0.109
24.900,-0.072
24.905,-0.031
24.910,-0.021
24.915,-0.011
24.920,0.023
24.925,0.033
24.930,0.024
24.935,0.039
24.940,0.049
24.945,0.043
24.950,0.052
24.955,0.059
24.960,0.045
24.965,0.040
24.970,0.047
24.975,0.036
24.980,0.026
24.985,0.036
24.990,0.032
24.995,0.018
25.000,0.025
25.005,0.031
25.010,0.015
25.015,0.010
25.020,0.018
25.025,0.012
25.030,0.002
25.035,0.009
25.040,0.011
25.045,-0.017
25.050,-0.081
25.055,-0.233
25.060,-0.497
25.065,-0.773
25.070,-0.967
25.075,-1.104
25.080,-1.127
25.085,-0.859
25.090,-0.282
25.095,0.394
25.100,0.785
25.105,0.717
25.110,0.505
25.115,0.398
25.120,0.336
25.125,0.270
25.130,0.227
25.135,0.213
25.140,0.190
25.145,0.162
25.150,0.160
25.155,0.157
25.160,0.132
25.165,0.125
25.170,0.133
25.175,0.115
25.180,0.099
25.185,0.104
25.190,0.097
25.195,0.078
25.200,0.080
25.205,0.081
25.210,0.063
25.215,0.057
25.220,0.059
25.225,0.042
25.230,0.031
25.235,0.034
25.240,0.025
25.245,0.007
25.250,0.008
25.255,0.006
25.260,-0.020
25.265,-0.031
25.270,-0.026
25.275,-0.045
25.280,-0.065
25.285,-0.064
25.290,-0.076
25.295,-0.103
25.300,-0.113
25.305,-0.121
25.310,-0.151
25.315,-0.169
25.320,-0.174
25.325,-0.200
25.330,-0.222
25.335,-0.227
25.340,-0.245
25.345,-0.269
25.350,-0.271
25.355,-0.272
25.360,-0.289
25.365,-0.285
25.370,-0.261
25.375,-0.251
25.380,-0.234
25.385,-0.190
25.390,-0.155
25.395,-0.123
25.400,-0.059
25.405,0.006
25.410,0.053
25.415,0.113
25.420,0.178
25.425,0.218
25.430,0.257
25.435,0.312
25.440,0.338
25.445,0.344
25.450,0.375
25.455,0.397
25.460,0.382
25.465,0.377
25.470,0.388
25.475,0.372
25.480,0.353
25.485,0.357
25.490,0.344
25.495,0.315
25.500,0.306
25.505,0.300
25.510,0.280
25.515,0.269
25.520,0.263
25.525,0.237
25.530,0.210
25.535,0.206
25.540,0.193
25.545,0.167
25.550,0.165
25.555,0.162
25.560,0.134
25.565,0.120
25.570,0.119
25.575,0.099
25.580,0.086
25.585,0.094
25.590,0.085
25.595,0.065
25.600,0.064
25.605,0.063
25.610,0.046
25.615,0.036
25.620,0.037
25.625,0.024
25.630,0.016
25.635,0.029
25.640,0.025
25.645,0.004
25.650,0.009
25.655,0.017
25.660,-0.004
25.665,-0.013
25.670,-0.006
25.675,-0.020
25.680,-0.033
25.685,-0.023
25.690,-0.022
25.695,-0.036
25.700,-0.037
25.705,-0.036
25.710,-0.051
25.715,-0.050
25.720,-0.036
25.725,-0.050
25.730,-0.064
25.735,-0.050
25.740,-0.050
25.745,-0.066
25.750,-0.063
25.755,-0.059
25.760,-0.072
25.765,-0.075
25.770,-0.068
25.775,-0.076
25.780,-0.079
25.785,-0.066
25.790,-0.070
25.795,-0.082
25.800,-0.075
25.805,-0.070
25.810,-0.081
25.815,-0.084
25.820,-0.076
25.825,-0.083
25.830,-0.085
25.835,-0.071
25.840,-0.076
25.845,-0.089
25.850,-0.081
25.855,-0.077
25.860,-0.088
25.865,-0.081
25.870,-0.066
25.875,-0.075
25.880,-0.084
25.885,-0.069
25.890,-0.067
25.895,-0.083
25.900,-0.077
25.905,-0.070
25.910,-0.080
25.915,-0.076
25.920,-0.062
25.925,-0.064
25.930,-0.067
25.935,-0.061
25.940,-0.065
25.945,-0.073
25.950,-0.061
25.955,-0.052
25.960,-0.066
25.965,-0.070
25.970,-0.060
25.975,-0.068
25.980,-0.075
25.985,-0.068
25.990,-0.079
25.995,-0.081
26.000,-0.050
26.005,-0.018
26.010,-0.018
26.015,-0.040
26.020,-0.062
26.025,-0.085
26.030,-0.084
26.035,-0.044
26.040,-0.015
26.045,-0.018
26.050,-0.014
26.055,-0.004
26.060,-0.014
26.065,-0.019
26.070,-0.008
26.075,-0.015
26.080,-0.024
26.085,-0.011
26.090,-0.007
26.095,-0.016
26.100,-0.015
26.105,-0.013
26.110,-0.022
26.115,-0.016
26.120,-0.005
26.125,-0.056
26.130,-0.181
26.135,-0.378
26.140,-0.656
26.145,-0.916
26.150,-1.085
26.155,-1.170
26.160,-1.052
26.165,-0.605
26.170,0.089
26.175,0.660
26.180,0.782
26.185,0.617
26.190,0.459
26.195,0.352
26.200,0.290
26.205,0.253
26.210,0.204
26.215,0.177
26.220,0.173
26.225,0.152
26.230,0.132
26.235,0.129
26.240,0.118
26.245,0.102
26.250,0.105
26.255,0.104
26.260,0.085
26.265,0.079
26.270,0.084
26.275,0.069
26.280,0.058
26.285,0.066
26.290,0.061
26.295,0.046
26.300,0.047
26.305,0.044
26.310,0.024
26.315,0.017
26.320,0.024
26.325,0.016
26.330,0.003
26.335,0.004
26.340,-0.006
26.345,-0.026
26.350,-0.031
26.355,-0.036
26.360,-0.056
26.365,-0.065
26.370,-0.070
26.375,-0.096
26.380,-0.112
26.385,-0.118
26.390,-0.145
26.395,-0.169
26.400,-0.170
26.405,-0.180
26.410,-0.211
26.415,-0.227
26.420,-0.230
26.425,-0.254
26.430,-0.272
26.435,-0.263
26.440,-0.266
26.445,-0.280
26.450,-0.259
26.455,-0.227
26.460,-0.217
26.465,-0.183
26.470,-0.123
26.475,-0.077
26.480,-0.027
26.485,0.045
26.490,0.106
26.495,0.151
26.500,0.209
26.505,0.272
26.510,0.310
26.515,0.344
26.520,0.375
26.525,0.382
26.530,0.390
26.535,0.410
26.540,0.407
26.545,0.391
26.550,0.392
26.555,0.389
26.560,0.363
26.565,0.344
26.570,0.341
26.575,0.327
26.580,0.310
26.585,0.298
26.590,0.278
26.595,0.252
26.600,0.244
26.605,0.241
26.610,0.218
26.615,0.201
26.620,0.201
26.625,0.181
26.630,0.158
26.635,0.153
26.640,0.136
26.645,0.119
26.650,0.120
26.655,0.112
26.660,0.091
26.665,0.075
26.670,0.074
26.675,0.065
26.680,0.056
26.685,0.062
26.690,0.056
26.695,0.042
26.700,0.041
26.705,0.039
26.710,0.022
26.715,0.017
26.720,0.022
26.725,0.007
26.730,-0.006
26.735,0.005
26.740,-0.001
26.745,-0.016
26.750,-0.012
26.755,-0.013
26.760,-0.026
26.765,-0.027
26.770,-0.024
26.775,-0.038
26.780,-0.044
26.785,-0.034
26.790,-0.043
26.795,-0.061
26.800,-0.053
26.805,-0.048
26.810,-0.065
26.815,-0.068
26.820,-0.055
26.825,-0.060
26.830,-0.069
26.835,-0.059
26.840,-0.062
26.845,-0.075
26.850,-0.069
26.855,-0.066
26.860,-0.084
26.865,-0.088
26.870,-0.073
26.875,-0.076
26.880,-0.085
26.885,-0.075
26.890,-0.079
26.895,-0.090
26.900,-0.078
26.905,-0.069
26.910,-0.083
26.915,-0.084
26.920,-0.077
26.925,-0.086
26.930,-0.088
26.935,-0.072
26.940,-0.074
26.945,-0.088
26.950,-0.078
26.955,-0.069
26.960,-0.082
26.965,-0.083
26.970,-0.068
26.975,-0.078
26.980,-0.085
26.985,-0.069
26.990,-0.067
26.995,-0.077
27.000,-0.071
27.005,-0.067
27.010,-0.077
27.015,-0.073
27.020,-0.062
27.025,-0.069
27.030,-0.072
27.035,-0.057
27.040,-0.059
27.045,-0.070
27.050,-0.059
27.055,-0.052
27.060,-0.062
27.065,-0.063
27.070,-0.053
27.075,-0.059
27.080,-0.061
27.085,-0.048
27.090,-0.047
27.095,-0.055
27.100,-0.045
27.105,-0.039
27.110,-0.049
27.115,-0.046
27.120,-0.040
27.125,-0.061
27.130,-0.078
27.135,-0.072
27.140,-0.083
27.145,-0.106
27.150,-0.100
27.155,-0.085
27.160,-0.104
27.165,-0.132
27.170,-0.131
27.175,-0.118
27.180,-0.093
27.185,-0.044
27.190,-0.011
27.195,-0.011
27.200,0.005
27.205,0.036
27.210,0.039
27.215,0.044
27.220,0.063
27.225,0.061
27.230,0.056
27.235,0.070
27.240,0.069
27.245,0.050
27.250,0.053
27.255,0.059
27.260,0.043
27.265,0.042
27.270,0.049
27.275,0.036
27.280,0.027
27.285,0.037
27.290,0.034
27.295,0.020
27.300,0.026
27.305,0.028
27.310,0.010
27.315,0.009
27.320,0.023
27.325,0.009
27.330,-0.042
27.335,-0.157
27.340,-0.391
27.345,-0.711
27.350,-0.987
27.355,-1.170
27.360,-1.266
27.365,-1.137
27.370,-0.679
27.375,0.033
27.380,0.682
27.385,0.866
27.390,0.673
27.395,0.497
27.400,0.417
27.405,0.348
27.410,0.285
27.415,0.255
27.420,0.247
27.425,0.220
27.430,0.197
27.435,0.198
27.440,0.184
27.445,0.161
27.450,0.160
27.455,0.157
27.460,0.135
27.465,0.129
27.470,0.133
27.475,0.116
27.480,0.103
27.485,0.107
27.490,0.096
27.495,0.076
27.500,0.079
27.505,0.078
27.510,0.056
27.515,0.048
27.520,0.049
27.525,0.030
27.530,0.016
27.535,0.022
27.540,0.011
27.545,-0.013
27.550,-0.015
27.555,-0.020
27.560,-0.045
27.565,-0.058
27.570,-0.062
27.575,-0.085
27.580,-0.106
27.585,-0.110
27.590,-0.128
27.595,-0.158
27.600,-0.169
27.605,-0.182
27.610,-0.212
27.615,-0.227
27.620,-0.233
27.625,-0.256
27.630,-0.272
27.635,-0.269
27.640,-0.277
27.645,-0.288
27.650,-0.272
27.655,-0.255
27.660,-0.250
27.665,-0.222
27.670,-0.175
27.675,-0.142
27.680,-0.101
27.685,-0.034
27.690,0.024
27.695,0.072
27.700,0.141
27.705,0.201
27.710,0.236
27.715,0.280
27.720,0.325
27.725,0.346
27.730,0.362
27.735,0.387
27.740,0.393
27.745,0.384
27.750,0.390
27.755,0.390
27.760,0.367
27.765,0.357
27.770,0.357
27.775,0.332
27.780,0.311
27.785,0.309
27.790,0.289
27.795,0.259
27.800,0.254
27.805,0.245
27.810,0.220
27.815,0.208
27.820,0.206
27.825,0.183
27.830,0.164
27.835,0.164
27.840,0.149
27.845,0.126
27.850,0.124
27.855,0.118
27.860,0.094
27.865,0.085
27.870,0.087
27.875,0.070
27.880,0.056
27.885,0.062
27.890,0.053
27.895,0.033
27.900,0.036
27.905,0.037
27.910,0.019
27.915,0.016
27.920,0.025
27.925,0.011
27.930,-0.002
27.935,0.006
27.940,0.000
27.945,-0.015
27.950,-0.009
27.955,-0.007
27.960,-0.026
27.965,-0.028
27.970,-0.018
27.975,-0.029
27.980,-0.038
27.985,-0.028
27.990,-0.035
27.995,-0.052
28.000,-0.044
28.005,-0.040
28.010,-0.057
28.015,-0.060
28.020,-0.052
28.025,-0.065
28.030,-0.074
28.035,-0.061
28.040,-0.066
28.045,-0.077
28.050,-0.067
28.055,-0.064
28.060,-0.078
28.065,-0.076
28.070,-0.067
28.075,-0.081
28.080,-0.090
28.085,-0.077
28.090,-0.080
28.095,-0.090
28.100,-0.081
28.105,-0.077
28.110,-0.090
28.115,-0.087
28.120,-0.075
28.125,-0.082
28.130,-0.089
28.135,-0.077
28.140,-0.078
28.145,-0.092
28.150,-0.083
28.155,-0.075
28.160,-0.089
28.165,-0.087
28.170,-0.072
28.175,-0.081
28.180,-0.088
28.185,-0.075
28.190,-0.075
28.195,-0.083
28.200,-0.072
28.205,-0.065
28.210,-0.076
28.215,-0.074
28.220,-0.063
28.225,-0.069
28.230,-0.073
28.235,-0.061
28.240,-0.064
28.245,-0.074
28.250,-0.063
28.255,-0.056
28.260,-0.072
28.265,-0.072
28.270,-0.065
28.275,-0.083
28.280,-0.099
28.285,-0.096
28.290,-0.107
28.295,-0.126
28.300,-0.116
28.305,-0.103
28.310,-0.130
28.315,-0.154
28.320,-0.136
28.325,-0.114
28.330,-0.094
28.335,-0.050
28.340,-0.020
28.345,-0.019
28.350,0.001
28.355,0.028
28.360,0.025
28.365,0.030
28.370,0.049
28.375,0.047
28.380,0.044
28.385,0.056
28.390,0.054
28.395,0.040
28.400,0.044
28.405,0.047
28.410,0.030
28.415,0.026
28.420,0.035
28.425,0.024
28.430,0.018
28.435,0.032
28.440,0.027
28.445,0.010
28.450,0.014
28.455,0.016
28.460,-0.001
28.465,0.001
28.470,0.015
28.475,-0.007
28.480,-0.072
28.485,-0.202
28.490,-0.443
28.495,-0.745
28.500,-0.967
28.505,-1.099
28.510,-1.169
28.515,-1.013
28.520,-0.520
28.525,0.171
28.530,0.703
28.535,0.775
28.540,0.572
28.545,0.430
28.550,0.366
28.555,0.306
28.560,0.251
28.565,0.228
28.570,0.221
28.575,0.195
28.580,0.173
28.585,0.174
28.590,0.163
28.595,0.143
28.600,0.146
28.605,0.142
28.610,0.118
28.615,0.118
28.620,0.126
28.625,0.106
28.630,0.092
28.635,0.095
28.640,0.085
28.645,0.069
28.650,0.071
28.655,0.071
28.660,0.052
28.665,0.042
28.670,0.045
28.675,0.028
28.680,0.012
28.685,0.014
28.690,-0.001
28.695,-0.021
28.700,-0.021
28.705,-0.030
28.710,-0.055
28.715,-0.061
28.720,-0.060
28.725,-0.087
28.730,-0.111
28.735,-0.114
28.740,-0.134
28.745,-0.164
28.750,-0.171
28.755,-0.183
28.760,-0.217
28.765,-0.234
28.770,-0.238
28.775,-0.262
28.780,-0.281
28.785,-0.276
28.790,-0.285
28.795,-0.298
28.800,-0.279
28.805,-0.260
28.810,-0.248
28.815,-0.210
28.820,-0.167
28.825,-0.141
28.830,-0.094
28.835,-0.021
28.840,0.040
28.845,0.092
28.850,0.159
28.855,0.214
28.860,0.251
28.865,0.296
28.870,0.337
28.875,0.355
28.880,0.371
28.885,0.398
28.890,0.403
28.895,0.391
28.900,0.400
28.905,0.398
28.910,0.368
28.915,0.358
28.920,0.360
28.925,0.332
28.930,0.307
28.935,0.304
28.940,0.290
28.945,0.267
28.950,0.263
28.955,0.252
28.960,0.225
28.965,0.212
28.970,0.208
28.975,0.187
28.980,0.169
28.985,0.166
28.990,0.149
28.995,0.126
29.000,0.128
29.005,0.122
29.010,0.096
29.015,0.087
29.020,0.085
29.025,0.062
29.030,0.054
29.035,0.067
29.040,0.052
29.045,0.031
29.050,0.036
29.055,0.034
29.060,0.011
29.065,0.012
29.070,0.026
29.075,0.007
29.080,-0.006
29.085,0.006
29.090,-0.004
29.095,-0.023
29.100,-0.021
29.105,-0.021
29.110,-0.033
29.115,-0.032
29.120,-0.020
29.125,-0.030
29.130,-0.041
29.135,-0.030
29.140,-0.037
29.145,-0.056
29.150,-0.052
29.155,-0.050
29.160,-0.061
29.165,-0.059
29.170,-0.053
29.175,-0.066
29.180,-0.076
29.185,-0.067
29.190,-0.072
29.195,-0.082
29.200,-0.070
29.205,-0.063
29.210,-0.078
29.215,-0.079
29.220,-0.074
29.225,-0.086
29.230,-0.089
29.235,-0.075
29.240,-0.076
29.245,-0.085
29.250,-0.075
29.255,-0.070
29.260,-0.083
29.265,-0.082
29.270,-0.072
29.275,-0.084
29.280,-0.086
29.285,-0.071
29.290,-0.074
29.295,-0.082
29.300,-0.072
29.305,-0.070
29.310,-0.084
29.315,-0.085
29.320,-0.071
29.325,-0.072
29.330,-0.081
29.335,-0.071
29.340,-0.071
29.345,-0.080
29.350,-0.065
29.355,-0.058
29.360,-0.071
29.365,-0.062
29.370,-0.048
29.375,-0.058
29.380,-0.064
29.385,-0.053
29.390,-0.060
29.395,-0.076
29.400,-0.069
29.405,-0.072
29.410,-0.097
29.415,-0.102
29.420,-0.095
29.425,-0.117
29.430,-0.129
29.435,-0.107
29.440,-0.116
29.445,-0.147
29.450,-0.133
29.455,-0.105
29.460,-0.096
29.465,-0.065
29.470,-0.019
29.475,-0.016
29.480,-0.013
29.485,0.024
29.490,0.034
29.495,0.025
29.500,0.043
29.505,0.050
29.510,0.031
29.515,0.037
29.520,0.054
29.525,0.041
29.530,0.031
29.535,0.046
29.540,0.040
29.545,0.019
29.550,0.021
29.555,0.022
29.560,0.011
29.565,0.017
29.570,0.021
29.575,0.002
29.580,-0.005
29.585,0.010
29.590,0.013
29.595,0.003
29.600,0.011
29.605,0.006
29.610,-0.063
29.615,-0.208
29.620,-0.448
29.625,-0.753
29.630,-1.002
29.635,-1.159
29.640,-1.213
29.645,-1.009
29.650,-0.457
29.655,0.275
29.660,0.769
29.665,0.784
29.670,0.594
29.675,0.456
29.680,0.360
29.685,0.304
29.690,0.260
29.695,0.220
29.700,0.211
29.705,0.194
29.710,0.161
29.715,0.154
29.720,0.155
29.725,0.141
29.730,0.132
29.735,0.131
29.740,0.116
29.745,0.104
29.750,0.111
29.755,0.107
29.760,0.085
29.765,0.078
29.770,0.079
29.775,0.062
29.780,0.052
29.785,0.062
29.790,0.051
29.795,0.032
29.800,0.037
29.805,0.027
29.810,0.001
29.815,0.000
29.820,0.008
29.825,-0.012
29.830,-0.025
29.835,-0.022
29.840,-0.046
29.845,-0.073
29.850,-0.076
29.855,-0.086
29.860,-0.114
29.865,-0.123
29.870,-0.121
29.875,-0.153
29.880,-0.181
29.885,-0.185
29.890,-0.213
29.895,-0.245
29.900,-0.251
29.905,-0.262
29.910,-0.285
29.915,-0.289
29.920,-0.281
29.925,-0.290
29.930,-0.292
29.935,-0.266
29.940,-0.243
29.945,-0.224
29.950,-0.177
29.955,-0.131
29.960,-0.095
29.965,-0.031
29.970,0.041
29.975,0.098
29.980,0.155
29.985,0.217
29.990,0.266
29.995,0.301
30.000,0.340
30.005,0.369
30.010,0.377
30.015,0.396
30.020,0.413
30.025,0.396
30.030,0.383
30.035,0.392
30.040,0.383
30.045,0.363
30.050,0.362
30.055,0.347
30.060,0.312
30.065,0.298
30.070,0.298
30.075,0.279
30.080,0.255
30.085,0.252
30.090,0.237
30.095,0.207
30.100,0.203
30.105,0.197
30.110,0.165
30.115,0.155
30.120,0.158
30.125,0.132
30.130,0.111
30.135,0.116
30.140,0.104
30.145,0.079
30.150,0.080
30.155,0.078
30.160,0.058
30.165,0.057
30.170,0.066
30.175,0.048
30.180,0.026
30.185,0.028
30.190,0.031
30.195,0.019
30.200,0.015
30.205,0.015
30.210,0.001
30.215,0.000
30.220,0.005
30.225,-0.010
30.230,-0.019
30.235,-0.009
30.240,-0.017
30.245,-0.035
30.250,-0.028
30.255,-0.025
30.260,-0.044
30.265,-0.047
30.270,-0.047
30.275,-0.064
30.280,-0.059
30.285,-0.038
30.290,-0.047
30.295,-0.060
30.300,-0.050
30.305,-0.048
30.310,-0.065
30.315,-0.072
30.320,-0.064
30.325,-0.072
30.330,-0.081
30.335,-0.069
30.340,-0.073
30.345,-0.089
30.350,-0.080
30.355,-0.076
30.360,-0.093
30.365,-0.091
30.370,-0.070
30.375,-0.083
30.380,-0.087
30.385,-0.067
30.390,-0.080
30.395,-0.093
30.400,-0.077
30.405,-0.071
30.410,-0.086
30.415,-0.093
30.420,-0.080
30.425,-0.083
30.430,-0.085
30.435,-0.066
30.440,-0.072
30.445,-0.090
30.450,-0.081
30.455,-0.070
30.460,-0.076
30.465,-0.077
30.470,-0.069
30.475,-0.077
30.480,-0.080
30.485,-0.065
30.490,-0.075
30.495,-0.091
30.500,-0.075
30.505,-0.059
30.510,-0.065
30.515,-0.067
30.520,-0.066
30.525,-0.085
30.530,-0.102
30.535,-0.108
30.540,-0.125
30.545,-0.130
30.550,-0.107
30.555,-0.097
30.560,-0.124
30.565,-0.143
30.570,-0.134
30.575,-0.125
30.580,-0.100
30.585,-0.048
30.590,-0.015
30.595,-0.011
30.600,0.009
30.605,0.028
30.610,0.017
30.615,0.020
30.620,0.040
30.625,0.035
30.630,0.033
30.635,0.050
30.640,0.044
30.645,0.027
30.650,0.028
30.655,0.026
30.660,0.013
30.665,0.013
30.670,0.020
30.675,0.008
30.680,0.002
30.685,0.013
30.690,0.010
30.695,0.001
30.700,0.005
30.705,0.004
30.710,-0.007
30.715,0.001
30.720,0.006
30.725,-0.037
30.730,-0.145
30.735,-0.354
30.740,-0.678
30.745,-1.009
30.750,-1.236
30.755,-1.341
30.760,-1.253
30.765,-0.844
30.770,-0.122
30.775,0.605
30.780,0.894
30.785,0.750
30.790,0.556
30.795,0.439
30.800,0.358
30.805,0.308
30.810,0.260
30.815,0.230
30.820,0.220
30.825,0.199
30.830,0.182
30.835,0.182
30.840,0.169
30.845,0.150
30.850,0.155
30.855,0.147
30.860,0.118
30.865,0.117
30.870,0.124
30.875,0.103
30.880,0.089
30.885,0.093
30.890,0.082
30.895,0.068
30.900,0.074
30.905,0.071
30.910,0.047
30.915,0.039
30.920,0.038
30.925,0.018
30.930,0.013
30.935,0.021
30.940,-0.001
30.945,-0.031
30.950,-0.032
30.955,-0.034
30.960,-0.055
30.965,-0.066
30.970,-0.070
30.975,-0.094
30.980,-0.118
30.985,-0.128
30.990,-0.151
30.995,-0.181
31.000,-0.193
31.005,-0.205
31.010,-0.232
31.015,-0.251
31.020,-0.260
31.025,-0.278
31.030,-0.291
31.035,-0.286
31.040,-0.294
31.045,-0.301
31.050,-0.276
31.055,-0.256
31.060,-0.247
31.065,-0.207
31.070,-0.151
31.075,-0.109
31.080,-0.059
31.085,0.011
31.090,0.074
31.095,0.132
31.100,0.203
31.105,0.261
31.110,0.292
31.115,0.332
31.120,0.371
31.125,0.383
31.130,0.396
31.135,0.419
31.140,0.417
31.145,0.400
31.150,0.404
31.155,0.402
31.160,0.377
31.165,0.366
31.170,0.361
31.175,0.337
31.180,0.317
31.185,0.308
31.190,0.285
31.195,0.262
31.200,0.260
31.205,0.251
31.210,0.223
31.215,0.209
31.220,0.202
31.225,0.177
31.230,0.160
31.235,0.161
31.240,0.143
31.245,0.121
31.250,0.121
31.255,0.116
31.260,0.094
31.265,0.085
31.270,0.087
31.275,0.067
31.280,0.051
31.285,0.054
31.290,0.044
31.295,0.030
31.300,0.035
31.305,0.035
31.310,0.017
31.315,0.013
31.320,0.019
31.325,0.005
31.330,-0.002
31.335,0.010
31.340,0.003
31.345,-0.014
31.350,-0.008
31.355,-0.011
31.360,-0.030
31.365,-0.030
31.370,-0.022
31.375,-0.034
31.380,-0.039
31.385,-0.030
31.390,-0.040
31.395,-0.055
31.400,-0.046
31.405,-0.043
31.410,-0.061
31.415,-0.063
31.420,-0.054
31.425,-0.068
31.430,-0.074
31.435,-0.057
31.440,-0.062
31.445,-0.079
31.450,-0.072
31.455,-0.066
31.460,-0.079
31.465,-0.078
31.470,-0.070
31.475,-0.082
31.480,-0.086
31.485,-0.070
31.490,-0.076
31.495,-0.089
31.500,-0.078
31.505,-0.074
31.510,-0.089
31.515,-0.087
31.520,-0.076
31.525,-0.086
31.530,-0.089
31.535,-0.075
31.540,-0.081
31.545,-0.091
31.550,-0.079
31.555,-0.077
31.560,-0.090
31.565,-0.082
31.570,-0.068
31.575,-0.079
31.580,-0.082
31.585,-0.067
31.590,-0.072
31.595,-0.085
31.600,-0.074
31.605,-0.069
31.610,-0.076
31.615,-0.068
31.620,-0.055
31.625,-0.065
31.630,-0.069
31.635,-0.059
31.640,-0.069
31.645,-0.082
31.650,-0.077
31.655,-0.084
31.660,-0.108
31.665,-0.114
31.670,-0.114
31.675,-0.129
31.680,-0.119
31.685,-0.105
31.690,-0.134
31.695,-0.153
31.700,-0.122
31.705,-0.089
31.710,-0.069
31.715,-0.032
31.720,-0.005
31.725,-0.006
31.730,0.010
31.735,0.034
31.740,0.032
31.745,0.030
31.750,0.044
31.755,0.046
31.760,0.033
31.765,0.040
31.770,0.049
31.775,0.035
31.780,0.027
31.785,0.037
31.790,0.030
31.795,0.015
31.800,0.021
31.805,0.026
31.810,0.013
31.815,0.016
31.820,0.025
31.825,0.010
31.830,0.002
31.835,0.012
31.840,0.006
31.845,-0.005
31.850,-0.007
31.855,-0.074
31.860,-0.251
31.865,-0.505
31.870,-0.793
31.875,-1.033
31.880,-1.169
31.885,-1.197
31.890,-1.007
31.895,-0.492
31.900,0.241
31.905,0.767
31.910,0.773
31.915,0.568
31.920,0.459
31.925,0.368
31.930,0.293
31.935,0.270
31.940,0.243
31.945,0.216
31.950,0.212
31.955,0.200
31.960,0.175
31.965,0.168
31.970,0.166
31.975,0.145
31.980,0.137
31.985,0.144
31.990,0.132
31.995,0.113
32.000,0.115
32.005,0.110
32.010,0.088
32.015,0.085
32.020,0.088
32.025,0.069
32.030,0.059
32.035,0.066
32.040,0.053
32.045,0.031
32.050,0.030
32.055,0.024
32.060,0.003
32.065,-0.001
32.070,-0.002
32.075,-0.025
32.080,-0.041
32.085,-0.040
32.090,-0.058
32.095,-0.081
32.100,-0.086
32.105,-0.100
32.110,-0.132
32.115,-0.146
32.120,-0.156
32.125,-0.185
32.130,-0.206
32.135,-0.213
32.140,-0.237
32.145,-0.266
32.150,-0.270
32.155,-0.277
32.160,-0.299
32.165,-0.304
32.170,-0.293
32.175,-0.296
32.180,-0.285
32.185,-0.251
32.190,-0.224
32.195,-0.191
32.200,-0.130
32.205,-0.076
32.210,-0.034
32.215,0.033
32.220,0.107
32.225,0.157
32.230,0.210
32.235,0.274
32.240,0.313
32.245,0.337
32.250,0.373
32.255,0.396
32.260,0.394
32.265,0.401
32.270,0.413
32.275,0.401
32.280,0.387
32.285,0.389
32.290,0.374
32.295,0.348
32.300,0.343
32.305,0.334
32.310,0.306
32.315,0.294
32.320,0.287
32.325,0.259
32.330,0.239
32.335,0.236
32.340,0.217
32.345,0.194
32.350,0.193
32.355,0.182
32.360,0.152
32.365,0.144
32.370,0.143
32.375,0.118
32.380,0.103
32.385,0.108
32.390,0.095
32.395,0.074
32.400,0.073
32.405,0.066
32.410,0.046
32.415,0.045
32.420,0.047
32.425,0.028
32.430,0.017
32.435,0.024
32.440,0.014
32.445,0.000
32.450,0.006
32.455,0.002
32.460,-0.016
32.465,-0.015
32.470,-0.008
32.475,-0.023
32.480,-0.028
32.485,-0.016
32.490,-0.025
32.495,-0.042
32.500,-0.034
32.505,-0.033
32.510,-0.047
32.515,-0.047
32.520,-0.042
32.525,-0.054
32.530,-0.059
32.535,-0.049
32.540,-0.057
32.545,-0.070
32.550,-0.061
32.555,-0.059
32.560,-0.076
32.565,-0.076
32.570,-0.066
32.575,-0.076
32.580,-0.082
32.585,-0.070
32.590,-0.075
32.595,-0.086
32.600,-0.076
32.605,-0.073
32.610,-0.087
32.615,-0.084
32.620,-0.075
32.625,-0.086
32.630,-0.089
32.635,-0.073
32.640,-0.078
32.645,-0.092
32.650,-0.081
32.655,-0.078
32.660,-0.092
32.665,-0.087
32.670,-0.073
32.675,-0.083
32.680,-0.087
32.685,-0.072
32.690,-0.078
32.695,-0.089
32.700,-0.074
32.705,-0.068
32.710,-0.083
32.715,-0.079
32.720,-0.067
32.725,-0.076
32.730,-0.079
32.735,-0.064
32.740,-0.068
32.745,-0.078
32.750,-0.064
32.755,-0.060
32.760,-0.072
32.765,-0.061
32.770,-0.048
32.775,-0.062
32.780,-0.068
32.785,-0.057
32.790,-0.063
32.795,-0.080
32.800,-0.080
32.805,-0.086
32.810,-0.111
32.815,-0.114
32.820,-0.109
32.825,-0.115
32.830,-0.111
32.835,-0.121
32.840,-0.149
32.845,-0.147
32.850,-0.105
32.855,-0.071
32.860,-0.050
32.865,-0.019
32.870,-0.001
32.875,0.002
32.880,0.021
32.885,0.038
32.890,0.036
32.895,0.039
32.900,0.056
32.905,0.058
32.910,0.046
32.915,0.049
32.920,0.053
32.925,0.040
32.930,0.035
32.935,0.041
32.940,0.031
32.945,0.022
32.950,0.035
32.955,0.038
32.960,0.020
32.965,0.018
32.970,0.024
32.975,0.011
32.980,0.005
32.985,0.016
32.990,0.010
32.995,0.000
33.000,0.005
33.005,-0.044
33.010,-0.190
33.015,-0.406
33.020,-0.679
33.025,-0.937
33.030,-1.090
33.035,-1.140
33.040,-1.014
33.045,-0.578
33.050,0.114
33.055,0.686
33.060,0.783
33.065,0.593
33.070,0.462
33.075,0.379
33.080,0.307
33.085,0.272
33.090,0.231
33.095,0.197
33.100,0.192
33.105,0.178
33.110,0.153
33.115,0.156
33.120,0.163
33.125,0.140
33.130,0.124
33.135,0.130
33.140,0.118
33.145,0.102
33.150,0.107
33.155,0.102
33.160,0.079
33.165,0.074
33.170,0.080
33.175,0.065
33.180,0.054
33.185,0.060
33.190,0.045
33.195,0.019
33.200,0.025
33.205,0.026
33.210,0.007
33.215,0.002
33.220,-0.004
33.225,-0.029
33.230,-0.044
33.235,-0.044
33.240,-0.060
33.245,-0.081
33.250,-0.084
33.255,-0.096
33.260,-0.129
33.265,-0.144
33.270,-0.148
33.275,-0.176
33.280,-0.203
33.285,-0.212
33.290,-0.233
33.295,-0.258
33.300,-0.262
33.305,-0.270
33.310,-0.295
33.315,-0.299
33.320,-0.293
33.325,-0.299
33.330,-0.285
33.335,-0.252
33.340,-0.229
33.345,-0.199
33.350,-0.146
33.355,-0.093
33.360,-0.045
33.365,0.025
33.370,0.097
33.375,0.141
33.380,0.194
33.385,0.262
33.390,0.297
33.395,0.317
33.400,0.354
33.405,0.379
33.410,0.385
33.415,0.405
33.420,0.416
33.425,0.397
33.430,0.390
33.435,0.393
33.440,0.375
33.445,0.352
33.450,0.345
33.455,0.328
33.460,0.295
33.465,0.290
33.470,0.294
33.475,0.266
33.480,0.246
33.485,0.248
33.490,0.227
33.495,0.201
33.500,0.201
33.505,0.188
33.510,0.159
33.515,0.152
33.520,0.152
33.525,0.131
33.530,0.115
33.535,0.112
33.540,0.095
33.545,0.079
33.550,0.080
33.555,0.070
33.560,0.052
33.565,0.055
33.570,0.055
33.575,0.038
33.580,0.030
33.585,0.031
33.590,0.022
33.595,0.010
33.600,0.012
33.605,0.009
33.610,-0.006
33.615,-0.002
33.620,0.005
33.625,-0.014
33.630,-0.020
33.635,-0.008
33.640,-0.020
33.645,-0.038
33.650,-0.033
33.655,-0.034
33.660,-0.046
33.665,-0.037
33.670,-0.032
33.675,-0.056
33.680,-0.061
33.685,-0.044
33.690,-0.051
33.695,-0.066
33.700,-0.062
33.705,-0.061
33.710,-0.074
33.715,-0.071
33.720,-0.060
33.725,-0.074
33.730,-0.081
33.735,-0.070
33.740,-0.074
33.745,-0.078
33.750,-0.069
33.755,-0.074
33.760,-0.092
33.765,-0.084
33.770,-0.066
33.775,-0.073
33.780,-0.079
33.785,-0.071
33.790,-0.081
33.795,-0.093
33.800,-0.081
33.805,-0.072
33.810,-0.080
33.815,-0.081
33.820,-0.075
33.825,-0.086
33.830,-0.090
33.835,-0.077
33.840,-0.077
33.845,-0.076
33.850,-0.064
33.855,-0.070
33.860,-0.083
33.865,-0.077
33.870,-0.069
33.875,-0.075
33.880,-0.071
33.885,-0.056
33.890,-0.061
33.895,-0.073
33.900,-0.062
33.905,-0.060
33.910,-0.068
33.915,-0.059
33.920,-0.055
33.925,-0.070
33.930,-0.071
33.935,-0.068
33.940,-0.090
33.945,-0.110
33.950,-0.099
33.955,-0.098
33.960,-0.121
33.965,-0.119
33.970,-0.110
33.975,-0.143
33.980,-0.159
33.985,-0.126
33.990,-0.107
33.995,-0.092
34.000,-0.042
34.005,-0.010
34.010,-0.018
34.015,0.001
34.020,0.033
34.025,0.026
34.030,0.023
34.035,0.040
34.040,0.035
34.045,0.032
34.050,0.055
34.055,0.059
34.060,0.036
34.065,0.034
34.070,0.040
34.075,0.021
34.080,0.012
34.085,0.025
34.090,0.020
34.095,0.006
34.100,0.016
34.105,0.019
34.110,0.000
34.115,0.002
34.120,0.014
34.125,0.007
34.130,0.003
34.135,0.010
34.140,-0.007
34.145,-0.067
34.150,-0.196
34.155,-0.448
34.160,-0.779
34.165,-1.048
34.170,-1.221
34.175,-1.287
34.180,-1.088
34.185,-0.548
34.190,0.198
34.195,0.775
34.200,0.854
34.205,0.645
34.210,0.477
34.215,0.378
34.220,0.313
34.225,0.260
34.230,0.238
34.235,0.241
34.240,0.210
34.245,0.178
34.250,0.176
34.255,0.167
34.260,0.146
34.265,0.142
34.270,0.143
34.275,0.125
34.280,0.114
34.285,0.117
34.290,0.099
34.295,0.081
34.300,0.087
34.305,0.085
34.310,0.067
34.315,0.069
34.320,0.073
34.325,0.049
34.330,0.037
34.335,0.043
34.340,0.021
34.345,0.003
34.350,0.011
34.355,0.003
34.360,-0.014
34.365,-0.016
34.370,-0.020
34.375,-0.041
34.380,-0.059
34.385,-0.060
34.390,-0.080
34.395,-0.113
34.400,-0.122
34.405,-0.134
34.410,-0.169
34.415,-0.184
34.420,-0.193
34.425,-0.227
34.430,-0.249
34.435,-0.249
34.440,-0.271
34.445,-0.299
34.450,-0.298
34.455,-0.299
34.460,-0.313
34.465,-0.303
34.470,-0.281
34.475,-0.269
34.480,-0.243
34.485,-0.185
34.490,-0.137
34.495,-0.099
34.500,-0.030
34.505,0.040
34.510,0.086
34.515,0.150
34.520,0.227
34.525,0.278
34.530,0.318
34.535,0.363
34.540,0.382
34.545,0.390
34.550,0.423
34.555,0.435
34.560,0.414
34.565,0.419
34.570,0.423
34.575,0.391
34.580,0.372
34.585,0.371
34.590,0.349
34.595,0.331
34.600,0.331
34.605,0.312
34.610,0.287
34.615,0.281
34.620,0.263
34.625,0.229
34.630,0.217
34.635,0.215
34.640,0.195
34.645,0.172
34.650,0.168
34.655,0.159
34.660,0.137
34.665,0.129
34.670,0.124
34.675,0.102
34.680,0.085
34.685,0.082
34.690,0.072
34.695,0.062
34.700,0.068
34.705,0.065
34.710,0.040
34.715,0.030
34.720,0.029
34.725,0.017
34.730,0.019
34.735,0.020
34.740,0.005
34.745,0.004
34.750,0.009
34.755,0.001
34.760,-0.015
34.765,-0.021
34.770,-0.017
34.775,-0.030
34.780,-0.031
34.785,-0.023
34.790,-0.034
34.795,-0.037
34.800,-0.037
34.805,-0.046
34.810,-0.059
34.815,-0.059
34.820,-0.048
34.825,-0.059
34.830,-0.058
34.835,-0.044
34.840,-0.060
34.845,-0.078
34.850,-0.070
34.855,-0.069
34.860,-0.084
34.865,-0.083
34.870,-0.077
34.875,-0.091
34.880,-0.083
34.885,-0.060
34.890,-0.071
34.895,-0.088
34.900,-0.081
34.905,-0.078
34.910,-0.085
34.915,-0.079
34.920,-0.073
34.925,-0.084
34.930,-0.091
34.935,-0.087
34.940,-0.091
34.945,-0.093
34.950,-0.077
34.955,-0.069
34.960,-0.080
34.965,-0.080
34.970,-0.074
34.975,-0.089
34.980,-0.093
34.985,-0.072
34.990,-0.080
34.995,-0.094
35.000,-0.066
35.005,-0.050
35.010,-0.066
35.015,-0.071
35.020,-0.065
35.025,-0.074
35.030,-0.089
35.035,-0.080
35.040,-0.068
35.045,-0.068
35.050,-0.059
35.055,-0.055
35.060,-0.074
35.065,-0.087
35.070,-0.089
35.075,-0.107
35.080,-0.121
35.085,-0.113
35.090,-0.118
35.095,-0.127
35.100,-0.122
35.105,-0.148
35.110,-0.177
35.115,-0.146
35.120,-0.099
35.125,-0.078
35.130,-0.043
35.135,-0.009
35.140,-0.009
35.145,0.002
35.150,0.025
35.155,0.024
35.160,0.021
35.165,0.039
35.170,0.048
35.175,0.040
35.180,0.044
35.185,0.046
35.190,0.043
35.195,0.046
35.200,0.041
35.205,0.029
35.210,0.020
35.215,0.020
35.220,0.018
35.225,0.008
35.230,0.012
35.235,0.017
35.240,0.006
35.245,-0.003
35.250,0.001
35.255,0.004
35.260,0.000
35.265,0.009
35.270,-0.011
35.275,-0.132
35.280,-0.348
35.285,-0.664
35.290,-1.023
35.295,-1.281
35.300,-1.380
35.305,-1.286
35.310,-0.915
35.315,-0.219
35.320,0.569
35.325,0.948
35.330,0.817
35.335,0.584
35.340,0.448
35.345,0.368
35.350,0.336
35.355,0.291
35.360,0.239
35.365,0.238
35.370,0.236
35.375,0.196
35.380,0.172
35.385,0.172
35.390,0.160
35.395,0.155
35.400,0.169
35.405,0.149
35.410,0.119
35.415,0.131
35.420,0.130
35.425,0.098
35.430,0.088
35.435,0.095
35.440,0.090
35.445,0.076
35.450,0.078
35.455,0.071
35.460,0.038
35.465,0.023
35.470,0.028
35.475,0.020
35.480,0.007
35.485,0.003
35.490,-0.014
35.495,-0.034
35.500,-0.027
35.505,-0.033
35.510,-0.070
35.515,-0.096
35.520,-0.105
35.525,-0.124
35.530,-0.139
35.535,-0.148
35.540,-0.175
35.545,-0.207
35.550,-0.222
35.555,-0.241
35.560,-0.276
35.565,-0.288
35.570,-0.290
35.575,-0.319
35.580,-0.331
35.585,-0.318
35.590,-0.323
35.595,-0.319
35.600,-0.283
35.605,-0.263
35.610,-0.243
35.615,-0.175
35.620,-0.104
35.625,-0.063
35.630,-0.003
35.635,0.085
35.640,0.151
35.645,0.198
35.650,0.273
35.655,0.339
35.660,0.366
35.665,0.404
35.670,0.440
35.675,0.441
35.680,0.439
35.685,0.460
35.690,0.465
35.695,0.436
35.700,0.429
35.705,0.428
35.710,0.391
35.715,0.381
35.720,0.385
35.725,0.351
35.730,0.334
35.735,0.332
35.740,0.297
35.745,0.270
35.750,0.275
35.755,0.249
35.760,0.212
35.765,0.206
35.770,0.199
35.775,0.183
35.780,0.172
35.785,0.171
35.790,0.151
35.795,0.124
35.800,0.124
35.805,0.118
35.810,0.090
35.815,0.080
35.820,0.083
35.825,0.060
35.830,0.042
35.835,0.050
35.840,0.040
35.845,0.025
35.850,0.030
35.855,0.019
35.860,-0.006
35.865,-0.004
35.870,0.012
35.875,0.001
35.880,-0.006
35.885,-0.003
35.890,-0.025
35.895,-0.038
35.900,-0.027
35.905,-0.019
35.910,-0.027
35.915,-0.041
35.920,-0.045
35.925,-0.054
35.930,-0.051
35.935,-0.039
35.940,-0.059
35.945,-0.073
35.950,-0.043
35.955,-0.046
35.960,-0.082
35.965,-0.076
35.970,-0.071
35.975,-0.095
35.980,-0.090
35.985,-0.065
35.990,-0.081
35.995,-0.116
36.000,-0.100
36.005,-0.073
36.010,-0.085
36.015,-0.093
36.020,-0.085
36.025,-0.111
36.030,-0.110
36.035,-0.064
36.040,-0.077
36.045,-0.106
36.050,-0.086
36.055,-0.078
36.060,-0.096
36.065,-0.108
36.070,-0.101
36.075,-0.089
36.080,-0.086
36.085,-0.087
36.090,-0.104
36.095,-0.111
36.100,-0.093
36.105,-0.088
36.110,-0.094
36.115,-0.094
36.120,-0.082
36.125,-0.076
36.130,-0.079
36.135,-0.084
36.140,-0.097
36.145,-0.093
36.150,-0.069
36.155,-0.067
36.160,-0.079
36.165,-0.068
36.170,-0.060
36.175,-0.083
36.180,-0.090
36.185,-0.070
36.190,-0.075
36.195,-0.097
36.200,-0.078
36.205,-0.069
36.210,-0.107
36.215,-0.133
36.220,-0.137
36.225,-0.140
36.230,-0.124
36.235,-0.113
36.240,-0.152
36.245,-0.178
36.250,-0.144
36.255,-0.095
36.260,-0.064
36.265,-0.041
36.270,-0.034
36.275,-0.031
36.280,0.004
36.285,0.035
36.290,0.031
36.295,0.034
36.300,0.052
36.305,0.055
36.310,0.040
36.315,0.045
36.320,0.060
36.325,0.042
36.330,0.026
36.335,0.031
36.340,0.020
36.345,0.008
36.350,0.032
36.355,0.037
36.360,0.009
36.365,0.010
36.370,0.019
36.375,0.005
36.380,0.007
36.385,0.020
36.390,-0.002
36.395,-0.022
36.400,-0.014
36.405,-0.050
36.410,-0.160
36.415,-0.369
36.420,-0.711
36.425,-1.066
36.430,-1.290
36.435,-1.385
36.440,-1.309
36.445,-0.910
36.450,-0.183
36.455,0.581
36.460,0.954
36.465,0.838
36.470,0.599
36.475,0.458
36.480,0.369
36.485,0.320
36.490,0.287
36.495,0.257
36.500,0.249
36.505,0.236
36.510,0.208
36.515,0.202
36.520,0.199
36.525,0.177
36.530,0.169
36.535,0.172
36.540,0.150
36.545,0.132
36.550,0.134
36.555,0.124
36.560,0.109
36.565,0.116
36.570,0.114
36.575,0.084
36.580,0.078
36.585,0.086
36.590,0.061
36.595,0.037
36.600,0.051
36.605,0.059
36.610,0.024
36.615,0.007
36.620,0.013
36.625,-0.003
36.630,-0.019
36.635,-0.030
36.640,-0.058
36.645,-0.080
36.650,-0.079
36.655,-0.090
36.660,-0.123
36.665,-0.141
36.670,-0.146
36.675,-0.175
36.680,-0.209
36.685,-0.222
36.690,-0.241
36.695,-0.267
36.700,-0.282
36.705,-0.301
36.710,-0.326
36.715,-0.319
36.720,-0.304
36.725,-0.325
36.730,-0.320
36.735,-0.274
36.740,-0.252
36.745,-0.233
36.750,-0.174
36.755,-0.109
36.760,-0.062
36.765,0.005
36.770,0.085
36.775,0.144
36.780,0.211
36.785,0.285
36.790,0.322
36.795,0.352
36.800,0.410
36.805,0.442
36.810,0.438
36.815,0.453
36.820,0.465
36.825,0.450
36.830,0.446
36.835,0.443
36.840,0.417
36.845,0.395
36.850,0.393
36.855,0.375
36.860,0.348
36.865,0.339
36.870,0.325
36.875,0.291
36.880,0.268
36.885,0.262
36.890,0.241
36.895,0.226
36.900,0.231
36.905,0.207
36.910,0.174
36.915,0.169
36.920,0.166
36.925,0.142
36.930,0.124
36.935,0.122
36.940,0.104
36.945,0.084
36.950,0.087
36.955,0.079
36.960,0.053
36.965,0.044
36.970,0.040
36.975,0.034
36.980,0.033
36.985,0.029
36.990,0.009
36.995,-0.007
37.000,0.000
37.005,0.000
37.010,-0.019
37.015,-0.014
37.020,-0.001
37.025,-0.028
37.030,-0.044
37.035,-0.025
37.040,-0.029
37.045,-0.050
37.050,-0.049
37.055,-0.048
37.060,-0.056
37.065,-0.053
37.070,-0.048
37.075,-0.057
37.080,-0.069
37.085,-0.068
37.090,-0.070
37.095,-0.078
37.100,-0.068
37.105,-0.066
37.110,-0.085
37.115,-0.090
37.120,-0.090
37.125,-0.102
37.130,-0.099
37.135,-0.082
37.140,-0.086
37.145,-0.094
37.150,-0.081
37.155,-0.079
37.160,-0.096
37.165,-0.095
37.170,-0.091
37.175,-0.102
37.180,-0.103
37.185,-0.089
37.190,-0.091
37.195,-0.101
37.200,-0.093
37.205,-0.091
37.210,-0.098
37.215,-0.087
37.220,-0.083
37.225,-0.098
37.230,-0.100
37.235,-0.088
37.240,-0.092
37.245,-0.099
37.250,-0.086
37.255,-0.079
37.260,-0.094
37.265,-0.095
37.270,-0.080
37.275,-0.080
37.280,-0.080
37.285,-0.070
37.290,-0.076
37.295,-0.085
37.300,-0.076
37.305,-0.075
37.310,-0.086
37.315,-0.084
37.320,-0.090
37.325,-0.119
37.330,-0.126
37.335,-0.120
37.340,-0.143
37.345,-0.148
37.350,-0.126
37.355,-0.142
37.360,-0.172
37.365,-0.150
37.370,-0.107
37.375,-0.085
37.380,-0.054
37.385,-0.021
37.390,-0.027
37.395,-0.019
37.400,0.020
37.405,0.030
37.410,0.021
37.415,0.033
37.420,0.047
37.425,0.040
37.430,0.036
37.435,0.045
37.440,0.036
37.445,0.026
37.450,0.036
37.455,0.031
37.460,0.014
37.465,0.020
37.470,0.030
37.475,0.013
37.480,0.007
37.485,0.017
37.490,0.007
37.495,-0.001
37.500,0.009
37.505,0.005
37.510,-0.007
37.515,0.000
37.520,-0.005
37.525,-0.081
37.530,-0.243
37.535,-0.491
37.540,-0.807
37.545,-1.068
37.550,-1.205
37.555,-1.250
37.560,-1.088
37.565,-0.580
37.570,0.168
37.575,0.767
37.580,0.862
37.585,0.644
37.590,0.478
37.595,0.389
37.600,0.326
37.605,0.276
37.610,0.240
37.615,0.233
37.620,0.222
37.625,0.193
37.630,0.178
37.635,0.180
37.640,0.166
37.645,0.147
37.650,0.150
37.655,0.143
37.660,0.118
37.665,0.117
37.670,0.123
37.675,0.104
37.680,0.093
37.685,0.099
37.690,0.088
37.695,0.072
37.700,0.075
37.705,0.068
37.710,0.043
37.715,0.040
37.720,0.043
37.725,0.020
37.730,0.007
37.735,0.010
37.740,-0.005
37.745,-0.023
37.750,-0.025
37.755,-0.040
37.760,-0.070
37.765,-0.077
37.770,-0.081
37.775,-0.110
37.780,-0.126
37.785,-0.127
37.790,-0.155
37.795,-0.185
37.800,-0.190
37.805,-0.207
37.810,-0.242
37.815,-0.255
37.820,-0.262
37.825,-0.286
37.830,-0.294
37.835,-0.287
37.840,-0.294
37.845,-0.297
37.850,-0.272
37.855,-0.249
37.860,-0.233
37.865,-0.190
37.870,-0.142
37.875,-0.106
37.880,-0.049
37.885,0.027
37.890,0.084
37.895,0.140
37.900,0.214
37.905,0.267
37.910,0.297
37.915,0.340
37.920,0.379
37.925,0.392
37.930,0.405
37.935,0.423
37.940,0.416
37.945,0.403
37.950,0.411
37.955,0.405
37.960,0.377
37.965,0.365
37.970,0.358
37.975,0.334
37.980,0.320
37.985,0.311
37.990,0.284
37.995,0.262
38.000,0.260
38.005,0.245
38.010,0.218
38.015,0.212
38.020,0.207
38.025,0.181
38.030,0.165
38.035,0.164
38.040,0.147
38.045,0.126
38.050,0.125
38.055,0.113
38.060,0.090
38.065,0.089
38.070,0.089
38.075,0.067
38.080,0.059
38.085,0.066
38.090,0.050
38.095,0.032
38.100,0.037
38.105,0.031
38.110,0.013
38.115,0.016
38.120,0.019
38.125,0.001
38.130,-0.004
38.135,0.002
38.140,-0.009
38.145,-0.019
38.150,-0.009
38.155,-0.014
38.160,-0.035
38.165,-0.032
38.170,-0.027
38.175,-0.042
38.180,-0.045
38.185,-0.037
38.190,-0.048
38.195,-0.058
38.200,-0.047
38.205,-0.050
38.210,-0.069
38.215,-0.065
38.220,-0.057
38.225,-0.071
38.230,-0.075
38.235,-0.066
38.240,-0.076
38.245,-0.086
38.250,-0.075
38.255,-0.075
38.260,-0.088
38.265,-0.080
38.270,-0.073
38.275,-0.087
38.280,-0.089
38.285,-0.077
38.290,-0.083
38.295,-0.091
38.300,-0.080
38.305,-0.081
38.310,-0.093
38.315,-0.084
38.320,-0.076
38.325,-0.089
38.330,-0.091
38.335,-0.079
38.340,-0.088
38.345,-0.095
38.350,-0.078
38.355,-0.076
38.360,-0.087
38.365,-0.077
38.370,-0.067
38.375,-0.078
38.380,-0.078
38.385,-0.064
38.390,-0.071
38.395,-0.079
38.400,-0.066
38.405,-0.066
38.410,-0.078
38.415,-0.068
38.420,-0.058
38.425,-0.067
38.430,-0.066
38.435,-0.054
38.440,-0.059
38.445,-0.067
38.450,-0.055
38.455,-0.054
38.460,-0.066
38.465,-0.056
38.470,-0.047
38.475,-0.060
38.480,-0.063
38.485,-0.059
38.490,-0.077
38.495,-0.097
38.500,-0.095
38.505,-0.102
38.510,-0.115
38.515,-0.103
38.520,-0.106
38.525,-0.146
38.530,-0.145
38.535,-0.102
38.540,-0.082
38.545,-0.062
38.550,-0.017
38.555,-0.002
38.560,-0.006
38.565,0.022
38.570,0.044
38.575,0.034
38.580,0.040
38.585,0.060
38.590,0.054
38.595,0.048
38.600,0.063
38.605,0.060
38.610,0.041
38.615,0.045
38.620,0.049
38.625,0.034
38.630,0.031
38.635,0.041
38.640,0.030
38.645,0.019
38.650,0.030
38.655,0.029
38.660,0.012
38.665,0.015
38.670,0.023
38.675,0.007
38.680,0.004
38.685,0.014
38.690,-0.030
38.695,-0.148
38.700,-0.331
38.705,-0.608
38.710,-0.890
38.715,-1.048
38.720,-1.134
38.725,-1.112
38.730,-0.784
38.735,-0.146
38.740,0.511
38.745,0.801
38.750,0.679
38.755,0.495
38.760,0.397
38.765,0.328
38.770,0.283
38.775,0.244
38.780,0.220
38.785,0.212
38.790,0.191
38.795,0.173
38.800,0.178
38.805,0.169
38.810,0.145
38.815,0.142
38.820,0.143
38.825,0.121
38.830,0.111
38.835,0.117
38.840,0.103
38.845,0.085
38.850,0.091
38.855,0.087
38.860,0.067
38.865,0.063
38.870,0.059
38.875,0.040
38.880,0.037
38.885,0.044
38.890,0.029
38.895,0.014
38.900,0.014
38.905,0.002
38.910,-0.021
38.915,-0.024
38.920,-0.028
38.925,-0.054
38.930,-0.070
38.935,-0.075
38.940,-0.100
38.945,-0.121
38.950,-0.124
38.955,-0.141
38.960,-0.171
38.965,-0.184
38.970,-0.196
38.975,-0.226
38.980,-0.242
38.985,-0.246
38.990,-0.268
38.995,-0.287
39.000,-0.284
39.005,-0.287
39.010,-0.295
39.015,-0.277
39.020,-0.251
39.025,-0.238
39.030,-0.207
39.035,-0.156
39.040,-0.118
39.045,-0.076
39.050,-0.006
39.055,0.055
39.060,0.102
39.065,0.165
39.070,0.226
39.075,0.260
39.080,0.298
39.085,0.342
39.090,0.359
39.095,0.367
39.100,0.388
39.105,0.394
39.110,0.383
39.115,0.385
39.120,0.383
39.125,0.359
39.130,0.348
39.135,0.350
39.140,0.328
39.145,0.304
39.150,0.302
39.155,0.287
39.160,0.256
39.165,0.251
39.170,0.248
39.175,0.220
39.180,0.204
39.185,0.202
39.190,0.179
39.195,0.159
39.200,0.161
39.205,0.148
39.210,0.122
39.215,0.121
39.220,0.120
39.225,0.095
39.230,0.084
39.235,0.087
39.240,0.069
39.245,0.055
39.250,0.059
39.255,0.052
39.260,0.032
39.265,0.032
39.270,0.034
39.275,0.017
39.280,0.012
39.285,0.020
39.290,0.010
39.295,-0.003
39.300,0.002
39.305,-0.002
39.310,-0.015
39.315,-0.011
39.320,-0.010
39.325,-0.025
39.330,-0.029
39.335,-0.022
39.340,-0.034
39.345,-0.045
39.350,-0.037
39.355,-0.041
39.360,-0.055
39.365,-0.049
39.370,-0.045
39.375,-0.060
39.380,-0.062
39.385,-0.051
39.390,-0.062
39.395,-0.072
39.400,-0.063
39.405,-0.068
39.410,-0.081
39.415,-0.073
39.420,-0.069
39.425,-0.083
39.430,-0.081
39.435,-0.071
39.440,-0.082
39.445,-0.088
39.450,-0.077
39.455,-0.079
39.460,-0.089
39.465,-0.078
39.470,-0.069
39.475,-0.085
39.480,-0.087
39.485,-0.071
39.490,-0.080
39.495,-0.089
39.500,-0.077
39.505,-0.077
39.510,-0.091
39.515,-0.084
39.520,-0.074
39.525,-0.082
39.530,-0.082
39.535,-0.071
39.540,-0.079
39.545,-0.088
39.550,-0.074
39.555,-0.069
39.560,-0.078
39.565,-0.073
39.570,-0.064
39.575,-0.074
39.580,-0.075
39.585,-0.062
39.590,-0.065
39.595,-0.073
39.600,-0.059
39.605,-0.055
39.610,-0.065
39.615,-0.057
39.620,-0.051
39.625,-0.066
39.630,-0.067
39.635,-0.052
39.640,-0.052
39.645,-0.054
39.650,-0.042
39.655,-0.038
39.660,-0.049
39.665,-0.047
39.670,-0.042
39.675,-0.060
39.680,-0.074
39.685,-0.076
39.690,-0.094
39.695,-0.107
39.700,-0.086
39.705,-0.083
39.710,-0.124
39.715,-0.137
39.720,-0.111
39.725,-0.093
39.730,-0.061
39.735,-0.015
39.740,-0.003
39.745,-0.004
39.750,0.025
39.755,0.045
39.760,0.037
39.765,0.048
39.770,0.069
39.775,0.063
39.780,0.059
39.785,0.069
39.790,0.057
39.795,0.040
39.800,0.048
39.805,0.055
39.810,0.041
39.815,0.031
39.820,0.031
39.825,0.021
39.830,0.023
39.835,0.033
39.840,0.016
39.845,0.007
39.850,0.020
39.855,0.015
39.860,-0.006
39.865,-0.008
39.870,-0.002
39.875,-0.022
39.880,-0.082
39.885,-0.214
39.890,-0.456
39.895,-0.740
39.900,-0.948
39.905,-1.078
39.910,-1.119
39.915,-0.923
39.920,-0.416
39.925,0.266
39.930,0.749
39.935,0.767
39.940,0.558
39.945,0.421
39.950,0.349
39.955,0.282
39.960,0.230
39.965,0.213
39.970,0.201
39.975,0.172
39.980,0.159
39.985,0.164
39.990,0.147
39.995,0.129
40.000,0.133
40.005,0.125
40.010,0.104
40.015,0.103
40.020,0.101
40.025,0.085
40.030,0.079
40.035,0.083
40.040,0.072
40.045,0.060
40.050,0.059
40.055,0.050
40.060,0.032
40.065,0.028
40.070,0.024
40.075,0.006
40.080,0.006
40.085,0.013
40.090,-0.007
40.095,-0.027
40.100,-0.022
40.105,-0.031
40.110,-0.056
40.115,-0.062
40.120,-0.067
40.125,-0.095
40.130,-0.109
40.135,-0.110
40.140,-0.135
40.145,-0.160
40.150,-0.164
40.155,-0.183
40.160,-0.214
40.165,-0.219
40.170,-0.224
40.175,-0.250
40.180,-0.261
40.185,-0.256
40.190,-0.269
40.195,-0.277
40.200,-0.254
40.205,-0.238
40.210,-0.234
40.215,-0.202
40.220,-0.160
40.225,-0.129
40.230,-0.078
40.235,-0.014
40.240,0.029
40.245,0.075
40.250,0.146
40.255,0.206
40.260,0.238
40.265,0.280
40.270,0.323
40.275,0.340
40.280,0.358
40.285,0.387
40.290,0.389
40.295,0.379
40.300,0.385
40.305,0.381
40.310,0.361
40.315,0.357
40.320,0.357
40.325,0.335
40.330,0.322
40.335,0.320
40.340,0.296
40.345,0.275
40.350,0.269
40.355,0.249
40.360,0.223
40.365,0.216
40.370,0.209
40.375,0.187
40.380,0.174
40.385,0.171
40.390,0.151
40.395,0.134
40.400,0.136
40.405,0.125
40.410,0.102
40.415,0.098
40.420,0.097
40.425,0.077
40.430,0.068
40.435,0.071
40.440,0.054
40.445,0.043
40.450,0.054
40.455,0.047
40.460,0.028
40.465,0.031
40.470,0.033
40.475,0.015
40.480,0.010
40.485,0.019
40.490,0.006
40.495,-0.007
40.500,0.002
40.505,-0.003
40.510,-0.018
40.515,-0.015
40.520,-0.016
40.525,-0.033
40.530,-0.037
40.535,-0.031
40.540,-0.043
40.545,-0.053
40.550,-0.045
40.555,-0.048
40.560,-0.064
40.565,-0.057
40.570,-0.048
40.575,-0.063
40.580,-0.067
40.585,-0.057
40.590,-0.067
40.595,-0.076
40.600,-0.068
40.605,-0.073
40.610,-0.086
40.615,-0.083
40.620,-0.079
40.625,-0.089
40.630,-0.087
40.635,-0.075
40.640,-0.083
40.645,-0.090
40.650,-0.076
40.655,-0.077
40.660,-0.091
40.665,-0.082
40.670,-0.075
40.675,-0.086
40.680,-0.080
40.685,-0.070
40.690,-0.085
40.695,-0.090
40.700,-0.073
40.705,-0.074
40.710,-0.088
40.715,-0.085
40.720,-0.076
40.725,-0.082
40.730,-0.079
40.735,-0.067
40.740,-0.072
40.745,-0.079
40.750,-0.065
40.755,-0.063
40.760,-0.075
40.765,-0.068
40.770,-0.060
40.775,-0.071
40.780,-0.069
40.785,-0.059
40.790,-0.070
40.795,-0.073
40.800,-0.055
40.805,-0.059
40.810,-0.071
40.815,-0.059
40.820,-0.060
40.825,-0.081
40.830,-0.087
40.835,-0.083
40.840,-0.101
40.845,-0.118
40.850,-0.104
40.855,-0.097
40.860,-0.126
40.865,-0.148
40.870,-0.144
40.875,-0.130
40.880,-0.096
40.885,-0.048
40.890,-0.027
40.895,-0.022
40.900,0.007
40.905,0.032
40.910,0.034
40.915,0.044
40.920,0.048
40.925,0.036
40.930,0.045
40.935,0.063
40.940,0.052
40.945,0.035
40.950,0.041
40.955,0.039
40.960,0.023
40.965,0.028
40.970,0.035
40.975,0.024
40.980,0.021
40.985,0.022
40.990,0.009
40.995,0.007
41.000,0.021
41.005,0.014
41.010,-0.005
41.015,0.007
41.020,0.014
41.025,-0.011
41.030,-0.053
41.035,-0.163
41.040,-0.403
41.045,-0.702
41.050,-0.936
41.055,-1.094
41.060,-1.161
41.065,-0.981
41.070,-0.484
41.075,0.198
41.080,0.727
41.085,0.799
41.090,0.592
41.095,0.436
41.100,0.359
41.105,0.290
41.110,0.234
41.115,0.212
41.120,0.199
41.125,0.166
41.130,0.150
41.135,0.152
41.140,0.132
41.145,0.115
41.150,0.122
41.155,0.114
41.160,0.096
41.165,0.099
41.170,0.099
41.175,0.084
41.180,0.079
41.185,0.078
41.190,0.062
41.195,0.049
41.200,0.054
41.205,0.045
41.210,0.028
41.215,0.030
41.220,0.025
41.225,0.005
41.230,0.000
41.235,0.001
41.240,-0.015
41.245,-0.025
41.250,-0.019
41.255,-0.028
41.260,-0.054
41.265,-0.064
41.270,-0.071
41.275,-0.095
41.280,-0.108
41.285,-0.111
41.290,-0.139
41.295,-0.167
41.300,-0.172
41.305,-0.190
41.310,-0.218
41.315,-0.223
41.320,-0.234
41.325,-0.263
41.330,-0.271
41.335,-0.266
41.340,-0.280
41.345,-0.291
41.350,-0.276
41.355,-0.261
41.360,-0.254
41.365,-0.225
41.370,-0.183
41.375,-0.153
41.380,-0.106
41.385,-0.040
41.390,0.011
41.395,0.068
41.400,0.144
41.405,0.196
41.410,0.233
41.415,0.288
41.420,0.329
41.425,0.345
41.430,0.372
41.435,0.394
41.440,0.389
41.445,0.383
41.450,0.395
41.455,0.391
41.460,0.366
41.465,0.358
41.470,0.354
41.475,0.331
41.480,0.319
41.485,0.314
41.490,0.288
41.495,0.268
41.500,0.269
41.505,0.250
41.510,0.220
41.515,0.218
41.520,0.213
41.525,0.186
41.530,0.170
41.535,0.163
41.540,0.140
41.545,0.128
41.550,0.133
41.555,0.118
41.560,0.091
41.565,0.095
41.570,0.101
41.575,0.076
41.580,0.062
41.585,0.067
41.590,0.052
41.595,0.042
41.600,0.054
41.605,0.041
41.610,0.019
41.615,0.024
41.620,0.025
41.625,0.008
41.630,0.005
41.635,0.010
41.640,-0.007
41.645,-0.018
41.650,0.000
41.655,-0.005
41.660,-0.024
41.665,-0.018
41.670,-0.021
41.675,-0.044
41.680,-0.045
41.685,-0.027
41.690,-0.034
41.695,-0.051
41.700,-0.046
41.705,-0.051
41.710,-0.062
41.715,-0.052
41.720,-0.049
41.725,-0.066
41.730,-0.070
41.735,-0.058
41.740,-0.069
41.745,-0.080
41.750,-0.067
41.755,-0.069
41.760,-0.085
41.765,-0.077
41.770,-0.068
41.775,-0.076
41.780,-0.074
41.785,-0.065
41.790,-0.079
41.795,-0.087
41.800,-0.074
41.805,-0.077
41.810,-0.090
41.815,-0.083
41.820,-0.075
41.825,-0.085
41.830,-0.085
41.835,-0.071
41.840,-0.076
41.845,-0.083
41.850,-0.076
41.855,-0.079
41.860,-0.083
41.865,-0.068
41.870,-0.063
41.875,-0.081
41.880,-0.083
41.885,-0.068
41.890,-0.074
41.895,-0.080
41.900,-0.065
41.905,-0.067
41.910,-0.081
41.915,-0.070
41.920,-0.061
41.925,-0.076
41.930,-0.075
41.935,-0.057
41.940,-0.062
41.945,-0.071
41.950,-0.061
41.955,-0.068
41.960,-0.092
41.965,-0.097
41.970,-0.100
41.975,-0.121
41.980,-0.129
41.985,-0.115
41.990,-0.112
41.995,-0.127
42.000,-0.140
42.005,-0.142
42.010,-0.129
42.015,-0.090
42.020,-0.047
42.025,-0.029
42.030,-0.018
42.035,0.011
42.040,0.027
42.045,0.025
42.050,0.041
42.055,0.048
42.060,0.038
42.065,0.050
42.070,0.057
42.075,0.043
42.080,0.043
42.085,0.048
42.090,0.032
42.095,0.027
42.100,0.041
42.105,0.033
42.110,0.016
42.115,0.028
42.120,0.034
42.125,0.014
42.130,0.012
42.135,0.022
42.140,0.009
42.145,-0.002
42.150,0.012
42.155,0.012
42.160,-0.012
42.165,-0.061
42.170,-0.202
42.175,-0.463
42.180,-0.761
42.185,-1.008
42.190,-1.192
42.195,-1.247
42.200,-1.028
42.205,-0.495
42.210,0.242
42.215,0.795
42.220,0.829
42.225,0.606
42.230,0.467
42.235,0.387
42.240,0.309
42.245,0.260
42.250,0.241
42.255,0.215
42.260,0.182
42.265,0.176
42.270,0.175
42.275,0.155
42.280,0.147
42.285,0.149
42.290,0.132
42.295,0.117
42.300,0.121
42.305,0.111
42.310,0.090
42.315,0.091
42.320,0.094
42.325,0.077
42.330,0.069
42.335,0.072
42.340,0.059
42.345,0.047
42.350,0.052
42.355,0.042
42.360,0.018
42.365,0.019
42.370,0.019
42.375,-0.003
42.380,-0.014
42.385,-0.013
42.390,-0.034
42.395,-0.057
42.400,-0.055
42.405,-0.066
42.410,-0.092
42.415,-0.102
42.420,-0.113
42.425,-0.138
42.430,-0.152
42.435,-0.161
42.440,-0.190
42.445,-0.211
42.450,-0.218
42.455,-0.239
42.460,-0.265
42.465,-0.266
42.470,-0.268
42.475,-0.286
42.480,-0.285
42.485,-0.269
42.490,-0.267
42.495,-0.250
42.500,-0.209
42.505,-0.178
42.510,-0.151
42.515,-0.092
42.520,-0.030
42.525,0.018
42.530,0.087
42.535,0.160
42.540,0.203
42.545,0.245
42.550,0.298
42.555,0.330
42.560,0.348
42.565,0.381
42.570,0.401
42.575,0.394
42.580,0.395
42.585,0.398
42.590,0.382
42.595,0.371
42.600,0.373
42.605,0.356
42.610,0.327
42.615,0.320
42.620,0.315
42.625,0.290
42.630,0.275
42.635,0.272
42.640,0.248
42.645,0.225
42.650,0.222
42.655,0.205
42.660,0.180
42.665,0.178
42.670,0.171
42.675,0.143
42.680,0.131
42.685,0.132
42.690,0.112
42.695,0.094
42.700,0.095
42.705,0.081
42.710,0.060
42.715,0.067
42.720,0.069
42.725,0.048
42.730,0.043
42.735,0.048
42.740,0.034
42.745,0.020
42.750,0.024
42.755,0.016
42.760,0.001
42.765,0.009
42.770,0.014
42.775,-0.004
42.780,-0.008
42.785,-0.003
42.790,-0.018
42.795,-0.028
42.800,-0.019
42.805,-0.024
42.810,-0.038
42.815,-0.032
42.820,-0.030
42.825,-0.048
42.830,-0.053
42.835,-0.042
42.840,-0.052
42.845,-0.060
42.850,-0.051
42.855,-0.057
42.860,-0.072
42.865,-0.064
42.870,-0.058
42.875,-0.073
42.880,-0.074
42.885,-0.064
42.890,-0.076
42.895,-0.086
42.900,-0.075
42.905,-0.074
42.910,-0.084
42.915,-0.078
42.920,-0.074
42.925,-0.087
42.930,-0.085
42.935,-0.073
42.940,-0.081
42.945,-0.087
42.950,-0.076
42.955,-0.082
42.960,-0.093
42.965,-0.080
42.970,-0.069
42.975,-0.083
42.980,-0.085
42.985,-0.072
42.990,-0.078
42.995,-0.086
43.000,-0.074
43.005,-0.077
43.010,-0.089
43.015,-0.077
43.020,-0.066
43.025,-0.077
43.030,-0.074
43.035,-0.061
43.040,-0.070
43.045,-0.075
43.050,-0.058
43.055,-0.061
43.060,-0.075
43.065,-0.064
43.070,-0.057
43.075,-0.069
43.080,-0.064
43.085,-0.051
43.090,-0.062
43.095,-0.073
43.100,-0.063
43.105,-0.069
43.110,-0.091
43.115,-0.090
43.120,-0.096
43.125,-0.120
43.130,-0.120
43.135,-0.102
43.140,-0.114
43.145,-0.146
43.150,-0.148
43.155,-0.131
43.160,-0.113
43.165,-0.074
43.170,-0.033
43.175,-0.024
43.180,-0.012
43.185,0.020
43.190,0.024
43.195,0.019
43.200,0.039
43.205,0.046
43.210,0.038
43.215,0.048
43.220,0.052
43.225,0.037
43.230,0.036
43.235,0.042
43.240,0.027
43.245,0.018
43.250,0.032
43.255,0.032
43.260,0.020
43.265,0.024
43.270,0.026
43.275,0.009
43.280,0.008
43.285,0.019
43.290,0.005
43.295,-0.005
43.300,0.009
43.305,0.006
43.310,-0.030
43.315,-0.115
43.320,-0.296
43.325,-0.582
43.330,-0.859
43.335,-1.036
43.340,-1.150
43.345,-1.119
43.350,-0.778
43.355,-0.150
43.360,0.515
43.365,0.827
43.370,0.701
43.375,0.495
43.380,0.399
43.385,0.332
43.390,0.269
43.395,0.231
43.400,0.219
43.405,0.198
43.410,0.168
43.415,0.161
43.420,0.158
43.425,0.135
43.430,0.127
43.435,0.128
43.440,0.113
43.445,0.105
43.450,0.112
43.455,0.101
43.460,0.084
43.465,0.086
43.470,0.084
43.475,0.065
43.480,0.059
43.485,0.062
43.490,0.046
43.495,0.035
43.500,0.042
43.505,0.031
43.510,0.011
43.515,0.013
43.520,0.008
43.525,-0.017
43.530,-0.023
43.535,-0.023
43.540,-0.045
43.545,-0.060
43.550,-0.058
43.555,-0.075
43.560,-0.104
43.565,-0.111
43.570,-0.119
43.575,-0.148
43.580,-0.165
43.585,-0.171
43.590,-0.199
43.595,-0.220
43.600,-0.225
43.605,-0.246
43.610,-0.273
43.615,-0.274
43.620,-0.276
43.625,-0.290
43.630,-0.284
43.635,-0.264
43.640,-0.258
43.645,-0.242
43.650,-0.199
43.655,-0.162
43.660,-0.129
43.665,-0.068
43.670,-0.002
43.675,0.047
43.680,0.107
43.685,0.174
43.690,0.214
43.695,0.255
43.700,0.309
43.705,0.336
43.710,0.352
43.715,0.384
43.720,0.400
43.725,0.389
43.730,0.391
43.735,0.399
43.740,0.382
43.745,0.366
43.750,0.367
43.755,0.350
43.760,0.323
43.765,0.318
43.770,0.308
43.775,0.278
43.780,0.266
43.785,0.265
43.790,0.239
43.795,0.215
43.800,0.215
43.805,0.202
43.810,0.176
43.815,0.170
43.820,0.163
43.825,0.136
43.830,0.126
43.835,0.126
43.840,0.105
43.845,0.090
43.850,0.092
43.855,0.079
43.860,0.062
43.865,0.065
43.870,0.061
43.875,0.039
43.880,0.033
43.885,0.040
43.890,0.026
43.895,0.015
43.900,0.025
43.905,0.021
43.910,0.004
43.915,0.007
43.920,0.009
43.925,-0.007
43.930,-0.008
43.935,-0.002
43.940,-0.017
43.945,-0.028
43.950,-0.018
43.955,-0.022
43.960,-0.040
43.965,-0.037
43.970,-0.033
43.975,-0.045
43.980,-0.044
43.985,-0.038
43.990,-0.050
43.995,-0.059
44.000,-0.049
44.005,-0.053
44.010,-0.067
44.015,-0.060
44.020,-0.057
44.025,-0.070
44.030,-0.067
44.035,-0.059
44.040,-0.069
44.045,-0.073
44.050,-0.063
44.055,-0.069
44.060,-0.085
44.065,-0.081
44.070,-0.077
44.075,-0.087
44.080,-0.084
44.085,-0.075
44.090,-0.084
44.095,-0.086
44.100,-0.073
44.105,-0.077
44.110,-0.089
44.115,-0.082
44.120,-0.075
44.125,-0.081
44.130,-0.076
44.135,-0.067
44.140,-0.078
44.145,-0.085
44.150,-0.074
44.155,-0.078
44.160,-0.090
44.165,-0.079
44.170,-0.073
44.175,-0.085
44.180,-0.079
44.185,-0.060
44.190,-0.064
44.195,-0.070
44.200,-0.060
44.205,-0.062
44.210,-0.074
44.215,-0.065
44.220,-0.056
44.225,-0.066
44.230,-0.062
44.235,-0.051
44.240,-0.062
44.245,-0.071
44.250,-0.063
44.255,-0.070
44.260,-0.091
44.265,-0.095
44.270,-0.098
44.275,-0.119
44.280,-0.121
44.285,-0.104
44.290,-0.117
44.295,-0.138
44.300,-0.131
44.305,-0.115
44.310,-0.100
44.315,-0.062
44.320,-0.021
44.325,-0.017
44.330,-0.001
44.335,0.037
44.340,0.032
44.345,0.024
44.350,0.048
44.355,0.048
44.360,0.034
44.365,0.045
44.370,0.056
44.375,0.041
44.380,0.035
44.385,0.041
44.390,0.030
44.395,0.027
44.400,0.035
44.405,0.023
44.410,0.010
44.415,0.017
44.420,0.018
44.425,0.010
44.430,0.009
44.435,0.012
44.440,0.010
44.445,0.009
44.450,0.019
44.455,0.008
44.460,-0.039
44.465,-0.138
44.470,-0.343
44.475,-0.640
44.480,-0.900
44.485,-1.079
44.490,-1.189
44.495,-1.087
44.500,-0.653
44.505,0.028
44.510,0.653
44.515,0.851
44.520,0.669
44.525,0.479
44.530,0.387
44.535,0.320
44.540,0.263
44.545,0.228
44.550,0.215
44.555,0.190
44.560,0.159
44.565,0.156
44.570,0.157
44.575,0.136
44.580,0.126
44.585,0.130
44.590,0.116
44.595,0.106
44.600,0.109
44.605,0.098
44.610,0.086
44.615,0.086
44.620,0.075
44.625,0.052
44.630,0.050
44.635,0.059
44.640,0.040
44.645,0.027
44.650,0.032
44.655,0.018
44.660,0.007
44.665,0.018
44.670,0.011
44.675,-0.014
44.680,-0.019
44.685,-0.018
44.690,-0.041
44.695,-0.064
44.700,-0.065
44.705,-0.082
44.710,-0.109
44.715,-0.111
44.720,-0.117
44.725,-0.146
44.730,-0.163
44.735,-0.176
44.740,-0.208
44.745,-0.222
44.750,-0.223
44.755,-0.252
44.760,-0.281
44.765,-0.284
44.770,-0.284
44.775,-0.289
44.780,-0.284
44.785,-0.270
44.790,-0.261
44.795,-0.238
44.800,-0.194
44.805,-0.155
44.810,-0.116
44.815,-0.051
44.820,0.011
44.825,0.058
44.830,0.116
44.835,0.177
44.840,0.230
44.845,0.283
44.850,0.330
44.855,0.359
44.860,0.375
44.865,0.397
44.870,0.410
44.875,0.402
44.880,0.402
44.885,0.401
44.890,0.388
44.895,0.383
44.900,0.384
44.905,0.364
44.910,0.336
44.915,0.330
44.920,0.318
44.925,0.286
44.930,0.274
44.935,0.273
44.940,0.245
44.945,0.224
44.950,0.222
44.955,0.202
44.960,0.174
44.965,0.171
44.970,0.160
44.975,0.132
44.980,0.125
44.985,0.123
44.990,0.100
44.995,0.086
45.000,0.091
45.005,0.079
45.010,0.059
45.015,0.059
45.020,0.054
45.025,0.034
45.030,0.032
45.035,0.036
45.040,0.022
45.045,0.014
45.050,0.023
45.055,0.012
45.060,-0.009
45.065,-0.006
45.070,-0.006
45.075,-0.020
