'Elapsed time','ECG'
'seconds','mV'
0.000,0.030
0.005,0.065
0.010,0.076
0.015,0.076
0.020,0.082
0.025,0.086
0.030,0.083
0.035,0.077
0.040,0.077
0.045,0.074
0.050,0.067
0.055,0.062
0.060,0.057
0.065,0.050
0.070,0.052
0.075,0.069
0.080,0.054
0.085,-0.025
0.090,-0.121
0.095,-0.218
0.100,-0.378
0.105,-0.628
0.110,-0.842
0.115,-0.874
0.120,-0.711
0.125,-0.401
0.130,-0.055
0.135,0.196
0.140,0.317
0.145,0.305
0.150,0.239
0.155,0.222
0.160,0.221
0.165,0.215
0.170,0.223
0.175,0.216
0.180,0.203
0.185,0.202
0.190,0.194
0.195,0.180
0.200,0.174
0.205,0.167
0.210,0.155
0.215,0.144
0.220,0.137
0.225,0.127
0.230,0.117
0.235,0.111
0.240,0.102
0.245,0.094
0.250,0.088
0.255,0.080
0.260,0.072
0.265,0.067
0.270,0.061
0.275,0.055
0.280,0.050
0.285,0.044
0.290,0.037
0.295,0.031
0.300,0.025
0.305,0.021
0.310,0.016
0.315,0.010
0.320,0.004
0.325,-0.001
0.330,-0.005
0.335,-0.010
0.340,-0.014
0.345,-0.019
0.350,-0.024
0.355,-0.029
0.360,-0.033
0.365,-0.038
0.370,-0.044
0.375,-0.048
0.380,-0.051
0.385,-0.054
0.390,-0.056
0.395,-0.058
0.400,-0.061
0.405,-0.062
0.410,-0.062
0.415,-0.062
0.420,-0.063
0.425,-0.064
0.430,-0.066
0.435,-0.069
0.440,-0.074
0.445,-0.079
0.450,-0.083
0.455,-0.085
0.460,-0.088
0.465,-0.090
0.470,-0.089
0.475,-0.085
0.480,-0.077
0.485,-0.067
0.490,-0.056
0.495,-0.045
0.500,-0.036
0.505,-0.027
0.510,-0.018
0.515,-0.012
0.520,-0.007
0.525,-0.001
0.530,0.004
0.535,0.006
0.540,0.008
0.545,0.009
0.550,0.009
0.555,0.010
0.560,0.011
0.565,0.012
0.570,0.011
0.575,0.010
0.580,0.009
0.585,0.009
0.590,0.008
0.595,0.008
0.600,0.007
0.605,0.006
0.610,0.005
0.615,0.005
0.620,0.004
0.625,0.003
0.630,0.003
0.635,0.002
0.640,0.001
0.645,0.000
0.650,0.000
0.655,0.001
0.660,0.001
0.665,0.000
0.670,0.000
0.675,0.001
0.680,0.002
0.685,0.002
0.690,0.004
0.695,0.005
0.700,0.006
0.705,0.007
0.710,0.007
0.715,0.009
0.720,0.011
0.725,0.012
0.730,0.013
0.735,0.014
0.740,0.015
0.745,0.015
0.750,0.015
0.755,0.015
0.760,0.016
0.765,0.017
0.770,0.018
0.775,0.019
0.780,0.020
0.785,0.019
0.790,0.018
0.795,0.018
0.800,0.017
0.805,0.015
0.810,0.014
0.815,0.014
0.820,0.014
0.825,0.014
0.830,0.013
0.835,0.013
0.840,0.013
0.845,0.012
0.850,0.012
0.855,0.010
0.860,0.009
0.865,0.007
0.870,0.007
0.875,0.007
0.880,0.006
0.885,0.003
0.890,0.003
0.895,0.003
0.900,0.003
0.905,0.003
0.910,0.001
0.915,-0.002
0.920,-0.003
0.925,-0.003
0.930,-0.003
0.935,-0.004
0.940,-0.004
0.945,-0.005
0.950,-0.005
0.955,-0.006
0.960,-0.006
0.965,-0.006
0.970,-0.006
0.975,-0.006
0.980,-0.006
0.985,-0.007
0.990,-0.007
0.995,-0.006
1.000,-0.007
1.005,-0.008
1.010,-0.007
1.015,-0.006
1.020,-0.008
1.025,-0.008
1.030,-0.008
1.035,-0.009
1.040,-0.013
1.045,-0.019
1.050,-0.028
1.055,-0.038
1.060,-0.044
1.065,-0.054
1.070,-0.070
1.075,-0.081
1.080,-0.087
1.085,-0.098
1.090,-0.115
1.095,-0.128
1.100,-0.120
1.105,-0.091
1.110,-0.064
1.115,-0.040
1.120,-0.012
1.125,0.012
1.130,0.031
1.135,0.048
1.140,0.055
1.145,0.055
1.150,0.058
1.155,0.067
1.160,0.079
1.165,0.084
1.170,0.081
1.175,0.079
1.180,0.078
1.185,0.075
1.190,0.072
1.195,0.069
1.200,0.064
1.205,0.059
1.210,0.054
1.215,0.060
1.220,0.074
1.225,0.051
1.230,-0.029
1.235,-0.120
1.240,-0.216
1.245,-0.383
1.250,-0.637
1.255,-0.834
1.260,-0.843
1.265,-0.664
1.270,-0.351
1.275,-0.022
1.280,0.218
1.285,0.328
1.290,0.304
1.295,0.241
1.300,0.226
1.305,0.224
1.310,0.223
1.315,0.229
1.320,0.217
1.325,0.207
1.330,0.207
1.335,0.197
1.340,0.184
1.345,0.179
1.350,0.172
1.355,0.160
1.360,0.152
1.365,0.146
1.370,0.135
1.375,0.127
1.380,0.120
1.385,0.111
1.390,0.102
1.395,0.096
1.400,0.089
1.405,0.081
1.410,0.076
1.415,0.070
1.420,0.063
1.425,0.056
1.430,0.049
1.435,0.044
1.440,0.037
1.445,0.030
1.450,0.025
1.455,0.021
1.460,0.015
1.465,0.010
1.470,0.004
1.475,0.000
1.480,-0.005
1.485,-0.011
1.490,-0.015
1.495,-0.019
1.500,-0.025
1.505,-0.032
1.510,-0.034
1.515,-0.035
1.520,-0.040
1.525,-0.043
1.530,-0.045
1.535,-0.046
1.540,-0.048
1.545,-0.051
1.550,-0.053
1.555,-0.054
1.560,-0.056
1.565,-0.057
1.570,-0.058
1.575,-0.060
1.580,-0.063
1.585,-0.067
1.590,-0.072
1.595,-0.079
1.600,-0.085
1.605,-0.089
1.610,-0.089
1.615,-0.086
1.620,-0.082
1.625,-0.074
1.630,-0.065
1.635,-0.055
1.640,-0.044
1.645,-0.033
1.650,-0.023
1.655,-0.017
1.660,-0.013
1.665,-0.007
1.670,-0.003
1.675,0.002
1.680,0.006
1.685,0.009
1.690,0.012
1.695,0.013
1.700,0.013
1.705,0.013
1.710,0.012
1.715,0.010
1.720,0.008
1.725,0.008
1.730,0.007
1.735,0.011
1.740,0.014
1.745,0.012
1.750,0.007
1.755,-0.002
1.760,-0.005
1.765,0.001
1.770,0.009
1.775,0.010
1.780,0.005
1.785,-0.001
1.790,-0.001
1.795,0.001
1.800,0.002
1.805,0.002
1.810,0.002
1.815,0.002
1.820,0.000
1.825,-0.002
1.830,-0.001
1.835,0.001
1.840,0.005
1.845,0.007
1.850,0.006
1.855,0.006
1.860,0.008
1.865,0.009
1.870,0.009
1.875,0.009
1.880,0.012
1.885,0.014
1.890,0.016
1.895,0.018
1.900,0.017
1.905,0.015
1.910,0.016
1.915,0.018
1.920,0.019
1.925,0.015
1.930,0.011
1.935,0.009
1.940,0.010
1.945,0.016
1.950,0.023
1.955,0.024
1.960,0.018
1.965,0.008
1.970,0.006
1.975,0.012
1.980,0.014
1.985,0.012
1.990,0.009
1.995,0.007
2.000,0.005
2.005,0.001
2.010,0.001
2.015,0.007
2.020,0.012
2.025,0.010
2.030,0.006
2.035,0.002
2.040,0.001
2.045,0.004
2.050,0.010
2.055,0.012
2.060,0.010
2.065,0.007
2.070,0.004
2.075,0.002
2.080,-0.002
2.085,-0.004
2.090,-0.005
2.095,-0.005
2.100,-0.001
2.105,0.002
2.110,0.003
2.115,-0.001
2.120,-0.006
2.125,-0.006
2.130,-0.007
2.135,-0.009
2.140,-0.006
2.145,-0.001
2.150,0.001
2.155,-0.001
2.160,-0.004
2.165,-0.004
2.170,-0.002
2.175,0.000
2.180,-0.002
2.185,-0.007
2.190,-0.015
2.195,-0.028
2.200,-0.031
2.205,-0.024
2.210,-0.022
2.215,-0.031
2.220,-0.051
2.225,-0.070
2.230,-0.079
2.235,-0.089
2.240,-0.109
2.245,-0.130
2.250,-0.138
2.255,-0.122
2.260,-0.090
2.265,-0.057
2.270,-0.023
2.275,0.007
2.280,0.022
2.285,0.031
2.290,0.042
2.295,0.048
2.300,0.053
2.305,0.060
2.310,0.073
2.315,0.082
2.320,0.078
2.325,0.072
2.330,0.071
2.335,0.069
2.340,0.070
2.345,0.073
2.350,0.069
2.355,0.062
2.360,0.054
2.365,0.050
2.370,0.058
2.375,0.060
2.380,0.019
2.385,-0.057
2.390,-0.134
2.395,-0.250
2.400,-0.468
2.405,-0.738
2.410,-0.895
2.415,-0.840
2.420,-0.595
2.425,-0.259
2.430,0.053
2.435,0.265
2.440,0.329
2.445,0.278
2.450,0.227
2.455,0.219
2.460,0.225
2.465,0.231
2.470,0.230
2.475,0.217
2.480,0.207
2.485,0.202
2.490,0.197
2.495,0.193
2.500,0.183
2.505,0.169
2.510,0.159
2.515,0.154
2.520,0.153
2.525,0.153
2.530,0.151
2.535,0.137
2.540,0.112
2.545,0.102
2.550,0.101
2.555,0.098
2.560,0.100
2.565,0.097
2.570,0.080
2.575,0.067
2.580,0.060
2.585,0.054
2.590,0.051
2.595,0.048
2.600,0.042
2.605,0.033
2.610,0.028
2.615,0.029
2.620,0.031
2.625,0.024
2.630,0.011
2.635,0.005
2.640,-0.001
2.645,-0.015
2.650,-0.019
2.655,-0.011
2.660,-0.011
2.665,-0.021
2.670,-0.035
2.675,-0.043
2.680,-0.039
2.685,-0.037
2.690,-0.044
2.695,-0.047
2.700,-0.050
2.705,-0.049
2.710,-0.044
2.715,-0.045
2.720,-0.053
2.725,-0.061
2.730,-0.066
2.735,-0.067
2.740,-0.069
2.745,-0.073
2.750,-0.080
2.755,-0.089
2.760,-0.094
2.765,-0.097
2.770,-0.092
2.775,-0.081
2.780,-0.072
2.785,-0.059
2.790,-0.044
2.795,-0.038
2.800,-0.036
2.805,-0.031
2.810,-0.021
2.815,-0.016
2.820,-0.016
2.825,-0.012
2.830,-0.007
2.835,-0.003
2.840,0.001
2.845,0.004
2.850,0.004
2.855,-0.001
2.860,-0.001
2.865,0.005
2.870,0.008
2.875,0.005
2.880,0.001
2.885,-0.006
2.890,-0.018
2.895,-0.018
2.900,-0.006
2.905,-0.001
2.910,-0.011
2.915,-0.023
2.920,-0.012
2.925,0.003
2.930,0.000
2.935,-0.005
2.940,-0.002
2.945,0.004
2.950,-0.002
2.955,-0.012
2.960,-0.014
2.965,-0.010
2.970,-0.008
2.975,-0.009
2.980,-0.004
2.985,-0.002
2.990,-0.012
2.995,-0.020
3.000,-0.009
3.005,0.009
3.010,0.015
3.015,0.010
3.020,0.002
3.025,0.003
3.030,0.011
3.035,0.012
3.040,0.014
3.045,0.016
3.050,0.003
3.055,-0.006
3.060,0.005
3.065,0.018
3.070,0.022
3.075,0.026
3.080,0.031
3.085,0.029
3.090,0.014
3.095,-0.007
3.100,-0.009
3.105,0.000
3.110,0.008
3.115,0.014
3.120,0.020
3.125,0.016
3.130,0.008
3.135,0.008
3.140,0.002
3.145,-0.004
3.150,0.003
3.155,0.004
3.160,0.007
3.165,0.018
3.170,0.023
3.175,0.016
3.180,-0.005
3.185,-0.013
3.190,0.010
3.195,0.022
3.200,0.011
3.205,-0.001
3.210,-0.001
3.215,0.007
3.220,0.003
3.225,0.004
3.230,0.012
3.235,0.006
3.240,0.002
3.245,-0.007
3.250,-0.022
3.255,-0.008
3.260,0.020
3.265,0.029
3.270,0.019
3.275,0.005
3.280,0.005
3.285,0.009
3.290,0.003
3.295,-0.001
3.300,0.000
3.305,-0.005
3.310,-0.009
3.315,0.001
3.320,0.012
3.325,0.004
3.330,-0.012
3.335,-0.019
3.340,-0.020
3.345,-0.030
3.350,-0.054
3.355,-0.059
3.360,-0.041
3.365,-0.033
3.370,-0.040
3.375,-0.061
3.380,-0.097
3.385,-0.122
3.390,-0.131
3.395,-0.119
3.400,-0.084
3.405,-0.056
3.410,-0.035
3.415,-0.007
3.420,0.019
3.425,0.038
3.430,0.053
3.435,0.055
3.440,0.048
3.445,0.057
3.450,0.082
3.455,0.094
3.460,0.091
3.465,0.083
3.470,0.074
3.475,0.074
3.480,0.072
3.485,0.061
3.490,0.058
3.495,0.056
3.500,0.049
3.505,0.049
3.510,0.069
3.515,0.083
3.520,0.040
3.525,-0.055
3.530,-0.153
3.535,-0.268
3.540,-0.471
3.545,-0.743
3.550,-0.924
3.555,-0.892
3.560,-0.651
3.565,-0.291
3.570,0.043
3.575,0.262
3.580,0.333
3.585,0.296
3.590,0.250
3.595,0.236
3.600,0.236
3.605,0.235
3.610,0.234
3.615,0.232
3.620,0.232
3.625,0.226
3.630,0.212
3.635,0.198
3.640,0.192
3.645,0.184
3.650,0.175
3.655,0.170
3.660,0.162
3.665,0.148
3.670,0.138
3.675,0.131
3.680,0.123
3.685,0.114
3.690,0.105
3.695,0.094
3.700,0.088
3.705,0.085
3.710,0.080
3.715,0.073
3.720,0.065
3.725,0.057
3.730,0.048
3.735,0.047
3.740,0.049
3.745,0.046
3.750,0.035
3.755,0.023
3.760,0.017
3.765,0.013
3.770,0.004
3.775,-0.003
3.780,-0.011
3.785,-0.021
3.790,-0.025
3.795,-0.023
3.800,-0.018
3.805,-0.021
3.810,-0.029
3.815,-0.034
3.820,-0.033
3.825,-0.035
3.830,-0.042
3.835,-0.046
3.840,-0.046
3.845,-0.043
3.850,-0.042
3.855,-0.045
3.860,-0.050
3.865,-0.053
3.870,-0.051
3.875,-0.052
3.880,-0.059
3.885,-0.069
3.890,-0.076
3.895,-0.080
3.900,-0.083
3.905,-0.089
3.910,-0.091
3.915,-0.087
3.920,-0.082
3.925,-0.072
3.930,-0.057
3.935,-0.043
3.940,-0.031
3.945,-0.023
3.950,-0.019
3.955,-0.013
3.960,-0.007
3.965,-0.004
3.970,-0.003
3.975,-0.003
3.980,-0.002
3.985,0.004
3.990,0.010
3.995,0.010
4.000,0.008
4.005,0.009
4.010,0.011
4.015,0.012
4.020,0.010
4.025,0.007
4.030,0.008
4.035,0.006
4.040,0.005
4.045,0.007
4.050,0.005
4.055,0.002
4.060,0.002
4.065,0.003
4.070,0.002
4.075,0.001
4.080,-0.001
4.085,-0.002
4.090,0.000
4.095,0.004
4.100,0.006
4.105,0.004
4.110,0.003
4.115,0.004
4.120,0.006
4.125,0.008
4.130,0.008
4.135,0.009
4.140,0.011
4.145,0.013
4.150,0.015
4.155,0.015
4.160,0.015
4.165,0.015
4.170,0.014
4.175,0.014
4.180,0.015
4.185,0.017
4.190,0.020
4.195,0.023
4.200,0.025
4.205,0.025
4.210,0.022
4.215,0.019
4.220,0.018
4.225,0.019
4.230,0.018
4.235,0.016
4.240,0.015
4.245,0.014
4.250,0.015
4.255,0.015
4.260,0.015
4.265,0.015
4.270,0.014
4.275,0.014
4.280,0.014
4.285,0.013
4.290,0.011
4.295,0.011
4.300,0.010
4.305,0.008
4.310,0.008
4.315,0.008
4.320,0.006
4.325,0.006
4.330,0.006
4.335,0.006
4.340,0.005
4.345,0.003
4.350,0.000
4.355,-0.001
4.360,-0.003
4.365,-0.003
4.370,-0.001
4.375,0.000
4.380,-0.002
4.385,-0.003
4.390,-0.004
4.395,-0.006
4.400,-0.006
4.405,-0.006
4.410,-0.008
4.415,-0.008
4.420,-0.006
4.425,-0.006
4.430,-0.005
4.435,-0.008
4.440,-0.009
4.445,-0.008
4.450,-0.008
4.455,-0.011
4.460,-0.014
4.465,-0.021
4.470,-0.029
4.475,-0.038
4.480,-0.046
4.485,-0.054
4.490,-0.068
4.495,-0.083
4.500,-0.089
4.505,-0.094
4.510,-0.103
4.515,-0.116
4.520,-0.119
4.525,-0.096
4.530,-0.070
4.535,-0.053
4.540,-0.026
4.545,0.002
4.550,0.021
4.555,0.037
4.560,0.045
4.565,0.048
4.570,0.056
4.575,0.061
4.580,0.071
4.585,0.081
4.590,0.079
4.595,0.078
4.600,0.079
4.605,0.078
4.610,0.074
4.615,0.067
4.620,0.063
4.625,0.058
4.630,0.052
4.635,0.053
4.640,0.067
4.645,0.059
4.650,-0.010
4.655,-0.109
4.660,-0.208
4.665,-0.359
4.670,-0.605
4.675,-0.836
4.680,-0.891
4.685,-0.746
4.690,-0.441
4.695,-0.078
4.700,0.189
4.705,0.323
4.710,0.324
4.715,0.259
4.720,0.238
4.725,0.237
4.730,0.230
4.735,0.237
4.740,0.231
4.745,0.215
4.750,0.213
4.755,0.206
4.760,0.191
4.765,0.184
4.770,0.179
4.775,0.169
4.780,0.161
4.785,0.155
4.790,0.146
4.795,0.135
4.800,0.126
4.805,0.118
4.810,0.110
4.815,0.103
4.820,0.097
4.825,0.089
4.830,0.082
4.835,0.075
4.840,0.068
4.845,0.061
4.850,0.055
4.855,0.050
4.860,0.044
4.865,0.039
4.870,0.032
4.875,0.025
4.880,0.017
4.885,0.012
4.890,0.006
4.895,0.000
4.900,-0.005
4.905,-0.009
4.910,-0.014
4.915,-0.022
4.920,-0.028
4.925,-0.033
4.930,-0.037
4.935,-0.042
4.940,-0.046
4.945,-0.049
4.950,-0.052
4.955,-0.056
4.960,-0.058
4.965,-0.058
4.970,-0.060
4.975,-0.062
4.980,-0.063
4.985,-0.064
4.990,-0.066
4.995,-0.067
5.000,-0.070
5.005,-0.073
5.010,-0.076
5.015,-0.080
5.020,-0.084
5.025,-0.087
5.030,-0.088
5.035,-0.086
5.040,-0.082
5.045,-0.073
5.050,-0.064
5.055,-0.055
5.060,-0.044
5.065,-0.033
5.070,-0.023
5.075,-0.014
5.080,-0.008
5.085,-0.002
5.090,0.004
5.095,0.009
5.100,0.011
5.105,0.013
5.110,0.014
5.115,0.014
5.120,0.014
5.125,0.015
5.130,0.018
5.135,0.017
5.140,0.014
5.145,0.012
5.150,0.011
5.155,0.010
5.160,0.009
5.165,0.007
5.170,0.006
5.175,0.005
5.180,0.004
5.185,0.002
5.190,0.001
5.195,-0.001
5.200,-0.002
5.205,-0.003
5.210,-0.004
5.215,-0.003
5.220,-0.004
5.225,-0.003
5.230,-0.002
5.235,-0.002
5.240,-0.003
5.245,-0.003
5.250,-0.003
5.255,-0.001
5.260,0.002
5.265,0.003
5.270,0.003
5.275,0.003
5.280,0.008
5.285,0.011
5.290,0.011
5.295,0.010
5.300,0.011
5.305,0.011
5.310,0.012
5.315,0.012
5.320,0.013
5.325,0.016
5.330,0.017
5.335,0.016
5.340,0.016
5.345,0.017
5.350,0.017
5.355,0.017
5.360,0.018
5.365,0.017
5.370,0.017
5.375,0.017
5.380,0.014
5.385,0.013
5.390,0.012
5.395,0.012
5.400,0.011
5.405,0.008
5.410,0.008
5.415,0.007
5.420,0.006
5.425,0.005
5.430,0.003
5.435,0.002
5.440,0.001
5.445,0.002
5.450,0.003
5.455,0.003
5.460,0.001
5.465,-0.001
5.470,-0.002
5.475,-0.002
5.480,-0.003
5.485,-0.003
5.490,-0.003
5.495,-0.003
5.500,-0.004
5.505,-0.005
5.510,-0.004
5.515,-0.005
5.520,-0.010
5.525,-0.010
5.530,-0.006
5.535,-0.006
5.540,-0.009
5.545,-0.011
5.550,-0.010
5.555,-0.009
5.560,-0.009
5.565,-0.009
5.570,-0.009
5.575,-0.008
5.580,-0.008
5.585,-0.009
5.590,-0.010
5.595,-0.011
5.600,-0.014
5.605,-0.019
5.610,-0.026
5.615,-0.035
5.620,-0.044
5.625,-0.048
5.630,-0.057
5.635,-0.073
5.640,-0.083
5.645,-0.087
5.650,-0.095
5.655,-0.110
5.660,-0.123
5.665,-0.112
5.670,-0.082
5.675,-0.060
5.680,-0.040
5.685,-0.010
5.690,0.012
5.695,0.030
5.700,0.044
5.705,0.048
5.710,0.054
5.715,0.059
5.720,0.067
5.725,0.081
5.730,0.085
5.735,0.079
5.740,0.075
5.745,0.075
5.750,0.073
5.755,0.068
5.760,0.064
5.765,0.062
5.770,0.058
5.775,0.051
5.780,0.056
5.785,0.070
5.790,0.042
5.795,-0.043
5.800,-0.140
5.805,-0.248
5.810,-0.429
5.815,-0.683
5.820,-0.858
5.825,-0.834
5.830,-0.627
5.835,-0.294
5.840,0.033
5.845,0.252
5.850,0.340
5.855,0.300
5.860,0.240
5.865,0.230
5.870,0.225
5.875,0.222
5.880,0.228
5.885,0.217
5.890,0.208
5.895,0.207
5.900,0.196
5.905,0.183
5.910,0.178
5.915,0.170
5.920,0.158
5.925,0.150
5.930,0.144
5.935,0.134
5.940,0.125
5.945,0.117
5.950,0.108
5.955,0.100
5.960,0.095
5.965,0.088
5.970,0.080
5.975,0.073
5.980,0.067
5.985,0.061
5.990,0.055
5.995,0.050
6.000,0.044
6.005,0.039
6.010,0.032
6.015,0.025
6.020,0.020
6.025,0.015
6.030,0.009
6.035,0.002
6.040,-0.005
6.045,-0.009
6.050,-0.013
6.055,-0.019
6.060,-0.024
6.065,-0.030
6.070,-0.033
6.075,-0.035
6.080,-0.039
6.085,-0.044
6.090,-0.047
6.095,-0.048
6.100,-0.051
6.105,-0.054
6.110,-0.055
6.115,-0.056
6.120,-0.058
6.125,-0.060
6.130,-0.061
6.135,-0.062
6.140,-0.065
6.145,-0.066
6.150,-0.068
6.155,-0.073
6.160,-0.079
6.165,-0.083
6.170,-0.086
6.175,-0.086
6.180,-0.083
6.185,-0.078
6.190,-0.070
6.195,-0.060
6.200,-0.051
6.205,-0.040
6.210,-0.030
6.215,-0.019
6.220,-0.009
6.225,-0.003
6.230,0.002
6.235,0.005
6.240,0.008
6.245,0.012
6.250,0.016
6.255,0.018
6.260,0.018
6.265,0.018
6.270,0.019
6.275,0.018
6.280,0.015
6.285,0.012
6.290,0.010
6.295,0.008
6.300,0.007
6.305,0.006
6.310,0.006
6.315,0.005
6.320,0.003
6.325,0.001
6.330,-0.001
6.335,0.000
6.340,0.001
6.345,0.003
6.350,0.004
6.355,0.001
6.360,-0.001
6.365,-0.003
6.370,-0.005
6.375,-0.006
6.380,-0.005
6.385,-0.002
6.390,0.002
6.395,0.002
6.400,0.000
6.405,0.000
6.410,0.002
6.415,0.004
6.420,0.005
6.425,0.006
6.430,0.009
6.435,0.008
6.440,0.007
6.445,0.008
6.450,0.010
6.455,0.012
6.460,0.013
6.465,0.015
6.470,0.014
6.475,0.014
6.480,0.018
6.485,0.021
6.490,0.021
6.495,0.018
6.500,0.014
6.505,0.015
6.510,0.019
6.515,0.018
6.520,0.016
6.525,0.017
6.530,0.019
6.535,0.019
6.540,0.016
6.545,0.012
6.550,0.010
6.555,0.010
6.560,0.009
6.565,0.010
6.570,0.012
6.575,0.015
6.580,0.016
6.585,0.012
6.590,0.008
6.595,0.005
6.600,0.005
6.605,0.007
6.610,0.005
6.615,0.004
6.620,0.004
6.625,0.003
6.630,0.001
6.635,-0.003
6.640,-0.004
6.645,0.002
6.650,0.005
6.655,0.004
6.660,0.000
6.665,-0.005
6.670,-0.010
6.675,-0.009
6.680,0.000
6.685,0.003
6.690,-0.001
6.695,-0.007
6.700,-0.010
6.705,-0.004
6.710,0.000
6.715,-0.001
6.720,-0.004
6.725,-0.005
6.730,-0.005
6.735,-0.008
6.740,-0.012
6.745,-0.018
6.750,-0.028
6.755,-0.037
6.760,-0.040
6.765,-0.042
6.770,-0.054
6.775,-0.073
6.780,-0.090
6.785,-0.105
6.790,-0.119
6.795,-0.127
6.800,-0.122
6.805,-0.105
6.810,-0.085
6.815,-0.062
6.820,-0.026
6.825,0.015
6.830,0.041
6.835,0.054
6.840,0.060
6.845,0.058
6.850,0.056
6.855,0.062
6.860,0.072
6.865,0.081
6.870,0.083
6.875,0.080
6.880,0.078
6.885,0.075
6.890,0.071
6.895,0.066
6.900,0.061
6.905,0.054
6.910,0.048
6.915,0.048
6.920,0.061
6.925,0.058
6.930,0.004
6.935,-0.076
6.940,-0.151
6.945,-0.278
6.950,-0.512
6.955,-0.774
6.960,-0.893
6.965,-0.794
6.970,-0.521
6.975,-0.176
6.980,0.116
6.985,0.291
6.990,0.323
6.995,0.268
7.000,0.224
7.005,0.218
7.010,0.229
7.015,0.241
7.020,0.236
7.025,0.216
7.030,0.201
7.035,0.192
7.040,0.186
7.045,0.185
7.050,0.182
7.055,0.171
7.060,0.161
7.065,0.154
7.070,0.144
7.075,0.135
7.080,0.132
7.085,0.129
7.090,0.119
7.095,0.109
7.100,0.103
7.105,0.088
7.110,0.075
7.115,0.073
7.120,0.072
7.125,0.064
7.130,0.052
7.135,0.044
7.140,0.043
7.145,0.039
7.150,0.029
7.155,0.024
7.160,0.021
7.165,0.013
7.170,0.006
7.175,0.009
7.180,0.012
7.185,0.004
7.190,-0.012
7.195,-0.028
7.200,-0.031
7.205,-0.026
7.210,-0.027
7.215,-0.033
7.220,-0.041
7.225,-0.049
7.230,-0.047
7.235,-0.043
7.240,-0.045
7.245,-0.043
7.250,-0.042
7.255,-0.047
7.260,-0.051
7.265,-0.051
7.270,-0.048
7.275,-0.049
7.280,-0.059
7.285,-0.073
7.290,-0.083
7.295,-0.087
7.300,-0.087
7.305,-0.088
7.310,-0.089
7.315,-0.092
7.320,-0.093
7.325,-0.085
7.330,-0.078
7.335,-0.066
7.340,-0.042
7.345,-0.027
7.350,-0.026
7.355,-0.027
7.360,-0.026
7.365,-0.014
7.370,-0.002
7.375,-0.005
7.380,-0.003
7.385,0.008
7.390,0.013
7.395,0.010
7.400,0.005
7.405,-0.002
7.410,-0.004
7.415,-0.001
7.420,0.003
7.425,0.012
7.430,0.020
7.435,0.017
7.440,0.006
7.445,-0.006
7.450,-0.007
7.455,0.003
7.460,0.011
7.465,0.008
7.470,-0.005
7.475,-0.011
7.480,-0.004
7.485,0.005
7.490,0.006
7.495,-0.001
7.500,-0.007
7.505,-0.005
7.510,-0.006
7.515,-0.015
7.520,-0.022
7.525,-0.013
7.530,0.001
7.535,0.005
7.540,0.007
7.545,0.008
7.550,0.005
7.555,0.002
7.560,0.003
7.565,0.011
7.570,0.018
7.575,0.013
7.580,0.006
7.585,0.009
7.590,0.019
7.595,0.021
7.600,0.017
7.605,0.013
7.610,0.006
7.615,0.008
7.620,0.018
7.625,0.016
7.630,0.013
7.635,0.011
7.640,0.010
7.645,0.023
7.650,0.033
7.655,0.034
7.660,0.029
7.665,0.019
7.670,0.013
7.675,0.012
7.680,0.009
7.685,0.005
7.690,0.006
7.695,0.013
7.700,0.018
7.705,0.016
7.710,0.014
7.715,0.016
7.720,0.014
7.725,0.013
7.730,0.014
7.735,0.010
7.740,0.006
7.745,0.002
7.750,-0.007
7.755,-0.012
7.760,-0.009
7.765,0.000
7.770,0.009
7.775,0.005
7.780,-0.002
7.785,0.001
7.790,0.010
7.795,0.010
7.800,-0.004
7.805,-0.022
7.810,-0.022
7.815,-0.002
7.820,0.012
7.825,0.009
7.830,0.003
7.835,0.005
7.840,0.005
7.845,0.000
7.850,-0.010
7.855,-0.012
7.860,-0.007
7.865,-0.014
7.870,-0.021
7.875,-0.023
7.880,-0.026
7.885,-0.027
7.890,-0.035
7.895,-0.049
7.900,-0.058
7.905,-0.064
7.910,-0.081
7.915,-0.110
7.920,-0.134
7.925,-0.131
7.930,-0.106
7.935,-0.078
7.940,-0.053
7.945,-0.021
7.950,0.006
7.955,0.022
7.960,0.038
7.965,0.048
7.970,0.047
7.975,0.052
7.980,0.065
7.985,0.079
7.990,0.087
7.995,0.080
8.000,0.070
8.005,0.070
8.010,0.070
8.015,0.067
8.020,0.067
8.025,0.062
8.030,0.055
8.035,0.050
8.040,0.054
8.045,0.065
8.050,0.043
8.055,-0.033
8.060,-0.119
8.065,-0.213
8.070,-0.389
8.075,-0.653
8.080,-0.879
8.085,-0.919
8.090,-0.732
8.095,-0.396
8.100,-0.050
8.105,0.204
8.110,0.321
8.115,0.309
8.120,0.258
8.125,0.234
8.130,0.229
8.135,0.231
8.140,0.236
8.145,0.233
8.150,0.224
8.155,0.217
8.160,0.205
8.165,0.190
8.170,0.186
8.175,0.181
8.180,0.168
8.185,0.159
8.190,0.154
8.195,0.146
8.200,0.136
8.205,0.126
8.210,0.116
8.215,0.111
8.220,0.108
8.225,0.101
8.230,0.092
8.235,0.084
8.240,0.077
8.245,0.071
8.250,0.064
8.255,0.056
8.260,0.050
8.265,0.047
8.270,0.043
8.275,0.034
8.280,0.026
8.285,0.022
8.290,0.020
8.295,0.017
8.300,0.010
8.305,0.002
8.310,-0.004
8.315,-0.011
8.320,-0.017
8.325,-0.020
8.330,-0.024
8.335,-0.030
8.340,-0.035
8.345,-0.035
8.350,-0.033
8.355,-0.035
8.360,-0.041
8.365,-0.045
8.370,-0.047
8.375,-0.046
8.380,-0.048
8.385,-0.050
8.390,-0.050
8.395,-0.049
8.400,-0.051
8.405,-0.055
8.410,-0.064
8.415,-0.071
8.420,-0.075
8.425,-0.080
8.430,-0.086
8.435,-0.089
8.440,-0.090
8.445,-0.086
8.450,-0.081
8.455,-0.072
8.460,-0.063
8.465,-0.055
8.470,-0.050
8.475,-0.042
8.480,-0.032
8.485,-0.023
8.490,-0.017
8.495,-0.009
8.500,-0.001
8.505,0.003
8.510,0.003
8.515,0.003
8.520,0.002
8.525,-0.001
8.530,-0.001
8.535,0.002
8.540,0.003
8.545,0.003
8.550,0.002
8.555,0.001
8.560,0.001
8.565,0.000
8.570,-0.001
8.575,-0.001
8.580,-0.001
8.585,-0.002
8.590,-0.004
8.595,-0.006
8.600,-0.008
8.605,-0.006
8.610,-0.005
8.615,-0.005
8.620,-0.004
8.625,-0.002
8.630,0.000
8.635,0.000
8.640,-0.002
8.645,-0.003
8.650,-0.004
8.655,-0.004
8.660,0.000
8.665,0.004
8.670,0.006
8.675,0.008
8.680,0.008
8.685,0.008
8.690,0.007
8.695,0.010
8.700,0.013
8.705,0.017
8.710,0.018
8.715,0.017
8.720,0.015
8.725,0.015
8.730,0.017
8.735,0.018
8.740,0.018
8.745,0.018
8.750,0.017
8.755,0.015
8.760,0.017
8.765,0.020
8.770,0.021
8.775,0.018
8.780,0.014
8.785,0.014
8.790,0.014
8.795,0.013
8.800,0.011
8.805,0.011
8.810,0.012
8.815,0.011
8.820,0.010
8.825,0.011
8.830,0.013
8.835,0.012
8.840,0.009
8.845,0.007
8.850,0.007
8.855,0.008
8.860,0.008
8.865,0.009
8.870,0.007
8.875,0.003
8.880,0.002
8.885,0.002
8.890,0.004
8.895,0.005
8.900,0.004
8.905,0.002
8.910,0.001
8.915,0.000
8.920,0.001
8.925,0.002
8.930,0.002
8.935,0.002
8.940,0.002
8.945,0.001
8.950,0.001
8.955,-0.001
8.960,-0.002
8.965,0.000
8.970,0.002
8.975,0.001
8.980,0.000
8.985,-0.004
8.990,-0.007
8.995,-0.013
9.000,-0.019
9.005,-0.028
9.010,-0.036
9.015,-0.040
9.020,-0.052
9.025,-0.069
9.030,-0.079
9.035,-0.085
9.040,-0.095
9.045,-0.107
9.050,-0.117
9.055,-0.107
9.060,-0.079
9.065,-0.058
9.070,-0.034
9.075,-0.002
9.080,0.018
9.085,0.032
9.090,0.044
9.095,0.048
9.100,0.057
9.105,0.065
9.110,0.071
9.115,0.081
9.120,0.086
9.125,0.085
9.130,0.084
9.135,0.081
9.140,0.076
9.145,0.074
9.150,0.070
9.155,0.063
9.160,0.056
9.165,0.051
9.170,0.062
9.175,0.072
9.180,0.029
9.185,-0.064
9.190,-0.160
9.195,-0.277
9.200,-0.480
9.205,-0.737
9.210,-0.877
9.215,-0.816
9.220,-0.577
9.225,-0.225
9.230,0.088
9.235,0.283
9.240,0.342
9.245,0.285
9.250,0.236
9.255,0.232
9.260,0.225
9.265,0.227
9.270,0.231
9.275,0.217
9.280,0.212
9.285,0.209
9.290,0.195
9.295,0.186
9.300,0.181
9.305,0.170
9.310,0.158
9.315,0.151
9.320,0.143
9.325,0.134
9.330,0.128
9.335,0.123
9.340,0.115
9.345,0.106
9.350,0.098
9.355,0.090
9.360,0.082
9.365,0.078
9.370,0.073
9.375,0.067
9.380,0.062
9.385,0.056
9.390,0.050
9.395,0.044
9.400,0.038
9.405,0.031
9.410,0.024
9.415,0.018
9.420,0.013
9.425,0.008
9.430,0.003
9.435,-0.004
9.440,-0.009
9.445,-0.014
9.450,-0.020
9.455,-0.025
9.460,-0.028
9.465,-0.033
9.470,-0.038
9.475,-0.043
9.480,-0.046
9.485,-0.047
9.490,-0.050
9.495,-0.054
9.500,-0.055
9.505,-0.055
9.510,-0.056
9.515,-0.059
9.520,-0.062
9.525,-0.062
9.530,-0.064
9.535,-0.067
9.540,-0.071
9.545,-0.076
9.550,-0.081
9.555,-0.087
9.560,-0.088
9.565,-0.086
9.570,-0.082
9.575,-0.076
9.580,-0.068
9.585,-0.059
9.590,-0.048
9.595,-0.036
9.600,-0.025
9.605,-0.016
9.610,-0.011
9.615,-0.006
9.620,-0.001
9.625,0.003
9.630,0.006
9.635,0.008
9.640,0.009
9.645,0.011
9.650,0.013
9.655,0.015
9.660,0.017
9.665,0.018
9.670,0.015
9.675,0.011
9.680,0.009
9.685,0.008
9.690,0.008
9.695,0.007
9.700,0.004
9.705,0.002
9.710,0.000
9.715,0.000
9.720,0.001
9.725,0.002
9.730,0.001
9.735,-0.002
9.740,-0.007
9.745,-0.009
9.750,-0.007
9.755,-0.007
9.760,-0.005
9.765,-0.005
9.770,-0.006
9.775,-0.005
9.780,-0.004
9.785,-0.002
9.790,0.001
9.795,0.003
9.800,0.005
9.805,0.006
9.810,0.005
9.815,0.005
9.820,0.005
9.825,0.006
9.830,0.007
9.835,0.006
9.840,0.007
9.845,0.008
9.850,0.007
9.855,0.006
9.860,0.004
9.865,0.005
9.870,0.006
9.875,0.004
9.880,0.005
9.885,0.007
9.890,0.009
9.895,0.013
9.900,0.015
9.905,0.014
9.910,0.015
9.915,0.016
9.920,0.016
9.925,0.015
9.930,0.013
9.935,0.011
9.940,0.009
9.945,0.009
9.950,0.009
9.955,0.009
9.960,0.011
9.965,0.013
9.970,0.014
9.975,0.011
9.980,0.005
9.985,0.001
9.990,0.002
9.995,0.006
10.000,0.007
10.005,0.006
10.010,0.003
10.015,-0.001
10.020,-0.003
10.025,-0.001
10.030,0.002
10.035,0.006
10.040,0.006
10.045,0.003
10.050,0.000
10.055,0.001
10.060,0.003
10.065,0.003
10.070,0.002
10.075,0.001
10.080,0.001
10.085,-0.001
10.090,-0.004
10.095,-0.005
10.100,-0.003
10.105,0.000
10.110,0.000
10.115,-0.003
10.120,-0.007
10.125,-0.005
10.130,-0.004
10.135,-0.012
10.140,-0.025
10.145,-0.031
10.150,-0.031
10.155,-0.032
10.160,-0.042
10.165,-0.059
10.170,-0.072
10.175,-0.080
10.180,-0.093
10.185,-0.112
10.190,-0.129
10.195,-0.129
10.200,-0.106
10.205,-0.078
10.210,-0.055
10.215,-0.024
10.220,0.006
10.225,0.030
10.230,0.051
10.235,0.057
10.240,0.054
10.245,0.053
10.250,0.054
10.255,0.062
10.260,0.073
10.265,0.079
10.270,0.082
10.275,0.083
10.280,0.077
10.285,0.074
10.290,0.073
10.295,0.069
10.300,0.063
10.305,0.059
10.310,0.057
10.315,0.067
10.320,0.067
10.325,0.012
10.330,-0.081
10.335,-0.170
10.340,-0.302
10.345,-0.530
10.350,-0.776
10.355,-0.877
10.360,-0.777
10.365,-0.516
10.370,-0.181
10.375,0.110
10.380,0.298
10.385,0.341
10.390,0.276
10.395,0.229
10.400,0.218
10.405,0.211
10.410,0.213
10.415,0.211
10.420,0.201
10.425,0.207
10.430,0.208
10.435,0.193
10.440,0.185
10.445,0.176
10.450,0.160
10.455,0.155
10.460,0.152
10.465,0.138
10.470,0.120
10.475,0.112
10.480,0.116
10.485,0.113
10.490,0.103
10.495,0.099
10.500,0.093
10.505,0.082
10.510,0.071
10.515,0.064
10.520,0.059
10.525,0.052
10.530,0.048
10.535,0.044
10.540,0.040
10.545,0.038
10.550,0.029
10.555,0.014
10.560,0.007
10.565,0.014
10.570,0.021
10.575,0.014
10.580,-0.006
10.585,-0.021
10.590,-0.026
10.595,-0.033
10.600,-0.038
10.605,-0.033
10.610,-0.034
10.615,-0.038
10.620,-0.040
10.625,-0.043
10.630,-0.043
10.635,-0.043
10.640,-0.047
10.645,-0.048
10.650,-0.048
10.655,-0.056
10.660,-0.062
10.665,-0.063
10.670,-0.061
10.675,-0.060
10.680,-0.065
10.685,-0.075
10.690,-0.082
10.695,-0.089
10.700,-0.099
10.705,-0.101
10.710,-0.088
10.715,-0.069
10.720,-0.058
10.725,-0.056
10.730,-0.056
10.735,-0.054
10.740,-0.044
10.745,-0.027
10.750,-0.014
10.755,-0.008
10.760,-0.007
10.765,-0.010
10.770,-0.004
10.775,0.013
10.780,0.023
10.785,0.019
10.790,0.009
10.795,0.003
10.800,0.013
10.805,0.024
10.810,0.019
10.815,0.014
10.820,0.010
10.825,0.008
10.830,0.009
10.835,0.012
10.840,0.016
10.845,0.015
10.850,0.007
10.855,-0.005
10.860,-0.012
10.865,-0.004
10.870,0.006
10.875,0.012
10.880,0.015
10.885,0.009
10.890,0.003
10.895,0.005
10.900,0.008
10.905,0.012
10.910,0.010
10.915,0.002
10.920,0.004
10.925,0.009
10.930,0.004
10.935,-0.010
10.940,-0.013
10.945,0.001
10.950,0.012
10.955,0.012
10.960,0.010
10.965,0.010
10.970,0.016
10.975,0.020
10.980,0.019
10.985,0.019
10.990,0.018
10.995,0.020
11.000,0.028
11.005,0.031
11.010,0.022
11.015,0.016
11.020,0.021
11.025,0.022
11.030,0.018
11.035,0.022
11.040,0.027
11.045,0.029
11.050,0.023
11.055,0.017
11.060,0.010
11.065,0.011
11.070,0.018
11.075,0.023
11.080,0.026
11.085,0.018
11.090,0.006
11.095,0.008
11.100,0.008
11.105,0.007
11.110,0.009
11.115,0.013
11.120,0.021
11.125,0.027
11.130,0.017
11.135,-0.002
11.140,-0.005
11.145,0.005
11.150,0.008
11.155,0.006
11.160,0.009
11.165,0.012
11.170,0.015
11.175,0.010
11.180,-0.003
11.185,-0.004
11.190,0.001
11.195,0.005
11.200,0.005
11.205,-0.003
11.210,-0.006
11.215,-0.018
11.220,-0.026
11.225,-0.004
11.230,0.015
11.235,0.011
11.240,-0.007
11.245,-0.019
11.250,-0.004
11.255,0.006
11.260,-0.003
11.265,-0.006
11.270,-0.003
11.275,-0.007
11.280,-0.023
11.285,-0.048
11.290,-0.054
11.295,-0.042
11.300,-0.039
11.305,-0.054
11.310,-0.070
11.315,-0.074
11.320,-0.087
11.325,-0.126
11.330,-0.150
11.335,-0.133
11.340,-0.092
11.345,-0.061
11.350,-0.055
11.355,-0.036
11.360,-0.005
11.365,0.014
11.370,0.026
11.375,0.034
11.380,0.037
11.385,0.046
11.390,0.060
11.395,0.068
11.400,0.069
11.405,0.066
11.410,0.065
11.415,0.063
11.420,0.059
11.425,0.058
11.430,0.065
11.435,0.070
11.440,0.059
11.445,0.042
11.450,0.045
11.455,0.069
11.460,0.059
11.465,-0.021
11.470,-0.119
11.475,-0.210
11.480,-0.370
11.485,-0.630
11.490,-0.870
11.495,-0.930
11.500,-0.746
11.505,-0.413
11.510,-0.081
11.515,0.175
11.520,0.302
11.525,0.299
11.530,0.266
11.535,0.249
11.540,0.238
11.545,0.240
11.550,0.227
11.555,0.212
11.560,0.215
11.565,0.220
11.570,0.216
11.575,0.202
11.580,0.188
11.585,0.179
11.590,0.166
11.595,0.154
11.600,0.147
11.605,0.141
11.610,0.138
11.615,0.131
11.620,0.115
11.625,0.092
11.630,0.077
11.635,0.085
11.640,0.093
11.645,0.086
11.650,0.073
11.655,0.060
11.660,0.064
11.665,0.071
11.670,0.061
11.675,0.048
11.680,0.035
11.685,0.021
11.690,0.019
11.695,0.023
11.700,0.018
11.705,0.006
11.710,-0.007
11.715,-0.004
11.720,0.007
11.725,0.000
11.730,-0.015
11.735,-0.023
11.740,-0.033
11.745,-0.047
11.750,-0.055
11.755,-0.049
11.760,-0.034
11.765,-0.028
11.770,-0.033
11.775,-0.034
11.780,-0.037
11.785,-0.046
11.790,-0.056
11.795,-0.072
11.800,-0.085
11.805,-0.071
11.810,-0.046
11.815,-0.035
11.820,-0.052
11.825,-0.085
11.830,-0.097
11.835,-0.091
11.840,-0.098
11.845,-0.106
11.850,-0.097
11.855,-0.092
11.860,-0.089
11.865,-0.076
11.870,-0.060
11.875,-0.046
11.880,-0.041
11.885,-0.049
11.890,-0.044
11.895,-0.023
11.900,-0.011
11.905,-0.005
11.910,0.001
11.915,0.000
11.920,0.005
11.925,0.012
11.930,0.008
11.935,0.001
11.940,-0.009
11.945,-0.009
11.950,0.009
11.955,0.016
11.960,0.014
11.965,0.017
11.970,0.015
11.975,0.001
11.980,-0.017
11.985,-0.016
11.990,0.008
11.995,0.020
12.000,0.011
12.005,0.002
12.010,0.002
12.015,0.005
12.020,-0.001
12.025,-0.006
12.030,-0.001
12.035,-0.003
12.040,-0.007
12.045,0.002
12.050,0.004
12.055,-0.004
12.060,-0.014
12.065,-0.014
12.070,0.002
12.075,0.010
12.080,0.004
12.085,0.009
12.090,0.019
12.095,0.012
12.100,0.004
12.105,0.014
12.110,0.028
12.115,0.029
12.120,0.018
12.125,0.007
12.130,0.023
12.135,0.041
12.140,0.029
12.145,0.009
12.150,0.006
12.155,0.016
12.160,0.034
12.165,0.032
12.170,0.027
12.175,0.029
12.180,0.018
12.185,0.007
12.190,-0.007
12.195,-0.003
12.200,0.017
12.205,0.022
12.210,0.025
12.215,0.015
12.220,0.006
12.225,0.021
12.230,0.009
12.235,-0.011
12.240,-0.004
12.245,0.009
12.250,0.018
12.255,0.007
12.260,0.006
12.265,0.019
12.270,0.014
12.275,0.013
12.280,0.003
12.285,-0.006
12.290,0.012
12.295,0.025
12.300,0.017
12.305,-0.001
12.310,-0.006
12.315,0.011
12.320,0.018
12.325,0.006
12.330,0.006
12.335,0.014
12.340,0.010
12.345,-0.007
12.350,-0.019
12.355,-0.005
12.360,0.007
12.365,-0.011
12.370,-0.033
12.375,-0.024
12.380,0.007
12.385,0.020
12.390,0.004
12.395,-0.012
12.400,-0.005
12.405,-0.010
12.410,-0.022
12.415,-0.018
12.420,-0.021
12.425,-0.034
12.430,-0.047
12.435,-0.049
12.440,-0.056
12.445,-0.086
12.450,-0.106
12.455,-0.120
12.460,-0.132
12.465,-0.110
12.470,-0.088
12.475,-0.079
12.480,-0.044
12.485,-0.009
12.490,0.006
12.495,0.022
12.500,0.037
12.505,0.049
12.510,0.047
12.515,0.052
12.520,0.082
12.525,0.098
12.530,0.086
12.535,0.060
12.540,0.064
12.545,0.092
12.550,0.076
12.555,0.060
12.560,0.073
12.565,0.058
12.570,0.047
12.575,0.053
12.580,0.056
12.585,0.060
12.590,0.017
12.595,-0.088
12.600,-0.197
12.605,-0.321
12.610,-0.538
12.615,-0.808
12.620,-0.943
12.625,-0.848
12.630,-0.569
12.635,-0.204
12.640,0.107
12.645,0.299
12.650,0.359
12.655,0.303
12.660,0.242
12.665,0.240
12.670,0.246
12.675,0.246
12.680,0.251
12.685,0.236
12.690,0.215
12.695,0.204
12.700,0.206
12.705,0.216
12.710,0.206
12.715,0.178
12.720,0.161
12.725,0.163
12.730,0.165
12.735,0.149
12.740,0.128
12.745,0.130
12.750,0.136
12.755,0.118
12.760,0.101
12.765,0.095
12.770,0.086
12.775,0.076
12.780,0.072
12.785,0.071
12.790,0.072
12.795,0.062
12.800,0.041
12.805,0.024
12.810,0.016
12.815,0.020
12.820,0.027
12.825,0.026
12.830,0.015
12.835,0.006
12.840,0.003
12.845,0.000
12.850,-0.005
12.855,-0.016
12.860,-0.022
12.865,-0.024
12.870,-0.026
12.875,-0.014
12.880,-0.027
12.885,-0.053
12.890,-0.043
12.895,-0.037
12.900,-0.047
12.905,-0.048
12.910,-0.046
12.915,-0.034
12.920,-0.042
12.925,-0.070
12.930,-0.079
12.935,-0.059
12.940,-0.039
12.945,-0.046
12.950,-0.062
12.955,-0.077
12.960,-0.088
12.965,-0.088
12.970,-0.082
12.975,-0.080
12.980,-0.079
12.985,-0.069
12.990,-0.071
12.995,-0.072
13.000,-0.058
13.005,-0.044
13.010,-0.035
13.015,-0.026
13.020,-0.022
13.025,-0.017
13.030,-0.001
13.035,0.006
13.040,0.007
13.045,0.007
13.050,-0.005
13.055,-0.005
13.060,0.011
13.065,0.013
13.070,0.009
13.075,0.011
13.080,0.009
13.085,0.001
13.090,0.000
13.095,0.007
13.100,0.012
13.105,0.003
13.110,-0.010
13.115,-0.003
13.120,0.010
13.125,0.008
13.130,-0.004
13.135,-0.014
13.140,-0.011
13.145,-0.004
13.150,0.000
13.155,-0.004
13.160,-0.016
13.165,-0.022
13.170,-0.013
13.175,-0.004
13.180,-0.005
13.185,-0.001
13.190,0.006
13.195,0.005
13.200,0.002
13.205,-0.005
13.210,-0.004
13.215,0.007
13.220,0.010
13.225,0.010
13.230,0.012
13.235,0.011
13.240,0.016
13.245,0.019
13.250,0.015
13.255,0.014
13.260,0.015
13.265,0.016
13.270,0.017
13.275,0.017
13.280,0.020
13.285,0.020
13.290,0.012
13.295,0.011
13.300,0.016
13.305,0.022
13.310,0.028
13.315,0.028
13.320,0.024
13.325,0.018
13.330,0.012
13.335,0.009
13.340,0.010
13.345,0.008
13.350,0.008
13.355,0.008
13.360,0.011
13.365,0.015
13.370,0.015
13.375,0.011
13.380,0.007
13.385,0.005
13.390,0.003
13.395,0.003
13.400,0.003
13.405,0.001
13.410,0.004
13.415,0.008
13.420,0.009
13.425,0.006
13.430,0.003
13.435,0.004
13.440,0.006
13.445,0.004
13.450,-0.001
13.455,-0.008
13.460,-0.009
13.465,-0.004
13.470,0.000
13.475,0.000
13.480,-0.005
13.485,-0.009
13.490,-0.011
13.495,-0.012
13.500,-0.011
13.505,-0.010
13.510,-0.013
13.515,-0.014
13.520,-0.013
13.525,-0.012
13.530,-0.018
13.535,-0.031
13.540,-0.041
13.545,-0.049
13.550,-0.063
13.555,-0.078
13.560,-0.087
13.565,-0.098
13.570,-0.109
13.575,-0.123
13.580,-0.118
13.585,-0.086
13.590,-0.061
13.595,-0.049
13.600,-0.025
13.605,0.000
13.610,0.019
13.615,0.034
13.620,0.039
13.625,0.049
13.630,0.058
13.635,0.061
13.640,0.074
13.645,0.084
13.650,0.079
13.655,0.071
13.660,0.073
13.665,0.076
13.670,0.070
13.675,0.066
13.680,0.063
13.685,0.055
13.690,0.046
13.695,0.051
13.700,0.064
13.705,0.039
13.710,-0.049
13.715,-0.151
13.720,-0.260
13.725,-0.444
13.730,-0.710
13.735,-0.909
13.740,-0.902
13.745,-0.684
13.750,-0.319
13.755,0.039
13.760,0.264
13.765,0.349
13.770,0.318
13.775,0.264
13.780,0.253
13.785,0.244
13.790,0.238
13.795,0.244
13.800,0.233
13.805,0.219
13.810,0.216
13.815,0.206
13.820,0.193
13.825,0.190
13.830,0.181
13.835,0.167
13.840,0.159
13.845,0.155
13.850,0.147
13.855,0.136
13.860,0.128
13.865,0.117
13.870,0.105
13.875,0.100
13.880,0.095
13.885,0.090
13.890,0.084
13.895,0.077
13.900,0.067
13.905,0.057
13.910,0.049
13.915,0.043
13.920,0.038
13.925,0.032
13.930,0.026
13.935,0.020
13.940,0.015
13.945,0.011
13.950,0.004
13.955,-0.005
13.960,-0.011
13.965,-0.016
13.970,-0.022
13.975,-0.027
13.980,-0.030
13.985,-0.032
13.990,-0.035
13.995,-0.040
14.000,-0.045
14.005,-0.048
14.010,-0.053
14.015,-0.059
14.020,-0.064
14.025,-0.065
14.030,-0.062
14.035,-0.060
14.040,-0.060
14.045,-0.060
14.050,-0.061
14.055,-0.063
14.060,-0.067
14.065,-0.072
14.070,-0.077
14.075,-0.083
14.080,-0.085
14.085,-0.083
14.090,-0.082
14.095,-0.080
14.100,-0.075
14.105,-0.066
14.110,-0.053
14.115,-0.041
14.120,-0.030
14.125,-0.021
14.130,-0.015
14.135,-0.009
14.140,-0.003
14.145,0.004
14.150,0.009
14.155,0.010
14.160,0.013
14.165,0.015
14.170,0.015
14.175,0.017
14.180,0.017
14.185,0.018
14.190,0.018
14.195,0.018
14.200,0.017
14.205,0.016
14.210,0.015
14.215,0.015
14.220,0.012
14.225,0.007
14.230,0.004
14.235,0.004
14.240,0.005
14.245,0.005
14.250,0.007
14.255,0.007
14.260,0.004
14.265,0.000
14.270,-0.001
14.275,0.001
14.280,0.002
14.285,0.000
14.290,-0.001
14.295,-0.001
14.300,-0.001
14.305,-0.002
14.310,-0.001
14.315,0.000
14.320,0.000
14.325,-0.001
14.330,0.003
14.335,0.004
14.340,0.005
14.345,0.006
14.350,0.006
14.355,0.006
14.360,0.006
14.365,0.009
14.370,0.013
14.375,0.014
14.380,0.013
14.385,0.012
14.390,0.013
14.395,0.015
14.400,0.014
14.405,0.012
14.410,0.014
14.415,0.015
14.420,0.015
14.425,0.016
14.430,0.016
14.435,0.016
14.440,0.015
14.445,0.014
14.450,0.013
14.455,0.012
14.460,0.011
14.465,0.010
14.470,0.010
14.475,0.007
14.480,0.004
14.485,0.003
14.490,0.005
14.495,0.007
14.500,0.007
14.505,0.006
14.510,0.006
14.515,0.006
14.520,0.005
14.525,0.005
14.530,0.005
14.535,0.005
14.540,0.003
14.545,0.002
14.550,0.001
14.555,-0.001
14.560,-0.003
14.565,-0.003
14.570,-0.002
14.575,-0.002
14.580,-0.004
14.585,-0.005
14.590,-0.006
14.595,-0.007
14.600,-0.008
14.605,-0.009
14.610,-0.009
14.615,-0.011
14.620,-0.012
14.625,-0.011
14.630,-0.011
14.635,-0.011
14.640,-0.010
14.645,-0.007
14.650,-0.007
14.655,-0.011
14.660,-0.018
14.665,-0.025
14.670,-0.035
14.675,-0.044
14.680,-0.051
14.685,-0.062
14.690,-0.073
14.695,-0.080
14.700,-0.086
14.705,-0.094
14.710,-0.107
14.715,-0.112
14.720,-0.092
14.725,-0.067
14.730,-0.048
14.735,-0.019
14.740,0.009
14.745,0.026
14.750,0.040
14.755,0.045
14.760,0.049
14.765,0.059
14.770,0.067
14.775,0.078
14.780,0.089
14.785,0.088
14.790,0.083
14.795,0.080
14.800,0.075
14.805,0.070
14.810,0.068
14.815,0.065
14.820,0.059
14.825,0.053
14.830,0.052
14.835,0.066
14.840,0.060
14.845,-0.006
14.850,-0.107
14.855,-0.211
14.860,-0.359
14.865,-0.598
14.870,-0.829
14.875,-0.884
14.880,-0.738
14.885,-0.434
14.890,-0.070
14.895,0.194
14.900,0.330
14.905,0.333
14.910,0.260
14.915,0.237
14.920,0.235
14.925,0.225
14.930,0.233
14.935,0.228
14.940,0.211
14.945,0.209
14.950,0.203
14.955,0.187
14.960,0.179
14.965,0.176
14.970,0.166
14.975,0.156
14.980,0.149
14.985,0.139
14.990,0.129
14.995,0.122
15.000,0.116
15.005,0.108
15.010,0.101
15.015,0.093
15.020,0.085
15.025,0.077
15.030,0.071
15.035,0.064
15.040,0.056
15.045,0.051
15.050,0.047
15.055,0.041
15.060,0.034
15.065,0.028
15.070,0.021
15.075,0.016
15.080,0.011
15.085,0.006
15.090,0.002
15.095,-0.002
15.100,-0.008
15.105,-0.015
15.110,-0.021
15.115,-0.026
15.120,-0.030
15.125,-0.033
15.130,-0.037
15.135,-0.041
15.140,-0.045
15.145,-0.049
15.150,-0.053
15.155,-0.057
15.160,-0.059
15.165,-0.061
15.170,-0.064
15.175,-0.066
15.180,-0.068
15.185,-0.069
15.190,-0.070
15.195,-0.073
15.200,-0.076
15.205,-0.079
15.210,-0.084
15.215,-0.088
15.220,-0.093
15.225,-0.093
15.230,-0.091
15.235,-0.087
15.240,-0.081
15.245,-0.073
15.250,-0.062
15.255,-0.049
15.260,-0.037
15.265,-0.027
15.270,-0.019
15.275,-0.011
15.280,-0.003
15.285,0.003
15.290,0.007
15.295,0.011
15.300,0.012
15.305,0.012
15.310,0.012
15.315,0.011
15.320,0.012
15.325,0.013
15.330,0.013
15.335,0.014
15.340,0.013
15.345,0.012
15.350,0.012
15.355,0.009
15.360,0.008
15.365,0.009
15.370,0.007
15.375,0.004
15.380,0.003
15.385,0.002
15.390,0.001
15.395,0.001
15.400,0.002
15.405,0.002
15.410,0.002
15.415,0.000
15.420,-0.002
15.425,-0.001
15.430,-0.002
15.435,-0.003
15.440,-0.001
15.445,0.000
15.450,0.000
15.455,0.001
15.460,0.002
15.465,0.002
15.470,0.004
15.475,0.005
15.480,0.007
15.485,0.008
15.490,0.009
15.495,0.010
15.500,0.012
15.505,0.012
15.510,0.011
15.515,0.012
15.520,0.014
15.525,0.014
15.530,0.014
15.535,0.014
15.540,0.014
15.545,0.014
15.550,0.014
15.555,0.014
15.560,0.014
15.565,0.014
15.570,0.013
15.575,0.013
15.580,0.013
15.585,0.011
15.590,0.009
15.595,0.009
15.600,0.009
15.605,0.008
15.610,0.008
15.615,0.008
15.620,0.008
15.625,0.008
15.630,0.006
15.635,0.005
15.640,0.005
15.645,0.004
15.650,0.005
15.655,0.006
15.660,0.006
15.665,0.005
15.670,0.004
15.675,0.003
15.680,0.003
15.685,0.002
15.690,0.003
15.695,0.004
15.700,0.004
15.705,0.003
15.710,0.004
15.715,0.003
15.720,0.001
15.725,0.001
15.730,0.000
15.735,0.000
15.740,0.000
15.745,-0.001
15.750,-0.001
15.755,-0.002
15.760,-0.001
15.765,0.000
15.770,0.000
15.775,0.000
15.780,0.000
15.785,-0.002
15.790,-0.003
15.795,-0.007
15.800,-0.013
15.805,-0.022
15.810,-0.034
15.815,-0.042
15.820,-0.052
15.825,-0.066
15.830,-0.076
15.835,-0.083
15.840,-0.094
15.845,-0.109
15.850,-0.120
15.855,-0.111
15.860,-0.082
15.865,-0.056
15.870,-0.033
15.875,-0.004
15.880,0.022
15.885,0.041
15.890,0.056
15.895,0.063
15.900,0.064
15.905,0.067
15.910,0.074
15.915,0.085
15.920,0.092
15.925,0.091
15.930,0.087
15.935,0.086
15.940,0.083
15.945,0.080
15.950,0.079
15.955,0.074
15.960,0.066
15.965,0.061
15.970,0.066
15.975,0.081
15.980,0.062
15.985,-0.018
15.990,-0.115
15.995,-0.215
16.000,-0.378
16.005,-0.627
16.010,-0.827
16.015,-0.836
16.020,-0.657
16.025,-0.340
16.030,-0.002
16.035,0.233
16.040,0.339
16.045,0.315
16.050,0.248
16.055,0.232
16.060,0.230
16.065,0.223
16.070,0.228
16.075,0.218
16.080,0.205
16.085,0.205
16.090,0.196
16.095,0.181
16.100,0.174
16.105,0.167
16.110,0.155
16.115,0.147
16.120,0.141
16.125,0.132
16.130,0.123
16.135,0.115
16.140,0.107
16.145,0.098
16.150,0.091
16.155,0.083
16.160,0.075
16.165,0.067
16.170,0.061
16.175,0.054
16.180,0.048
16.185,0.043
16.190,0.038
16.195,0.031
16.200,0.025
16.205,0.020
16.210,0.015
16.215,0.009
16.220,0.004
16.225,-0.002
16.230,-0.008
16.235,-0.015
16.240,-0.022
16.245,-0.026
16.250,-0.028
16.255,-0.031
16.260,-0.033
16.265,-0.035
16.270,-0.040
16.275,-0.045
16.280,-0.048
16.285,-0.052
16.290,-0.056
16.295,-0.058
16.300,-0.060
16.305,-0.061
16.310,-0.061
16.315,-0.063
16.320,-0.066
16.325,-0.069
16.330,-0.071
16.335,-0.073
16.340,-0.074
16.345,-0.076
16.350,-0.081
16.355,-0.087
16.360,-0.092
16.365,-0.093
16.370,-0.091
16.375,-0.088
16.380,-0.083
16.385,-0.072
16.390,-0.059
16.395,-0.048
16.400,-0.040
16.405,-0.031
16.410,-0.021
16.415,-0.012
16.420,-0.009
16.425,-0.005
16.430,0.001
16.435,0.006
16.440,0.008
16.445,0.010
16.450,0.009
16.455,0.009
16.460,0.010
16.465,0.014
16.470,0.014
16.475,0.010
16.480,0.007
16.485,0.006
16.490,0.007
16.495,0.007
16.500,0.006
16.505,0.005
16.510,0.004
16.515,0.003
16.520,0.001
16.525,0.000
16.530,0.000
16.535,0.001
16.540,0.000
16.545,-0.002
16.550,-0.001
16.555,0.000
16.560,0.000
16.565,0.001
16.570,0.000
16.575,0.002
16.580,0.004
16.585,0.001
16.590,0.000
16.595,0.002
16.600,0.002
16.605,0.000
16.610,0.004
16.615,0.011
16.620,0.016
16.625,0.017
16.630,0.015
16.635,0.014
16.640,0.016
16.645,0.017
16.650,0.016
16.655,0.015
16.660,0.012
16.665,0.011
16.670,0.013
16.675,0.016
16.680,0.016
16.685,0.015
16.690,0.015
16.695,0.018
16.700,0.020
16.705,0.019
16.710,0.017
16.715,0.018
16.720,0.019
16.725,0.019
16.730,0.016
16.735,0.013
16.740,0.009
16.745,0.007
16.750,0.011
16.755,0.016
16.760,0.016
16.765,0.012
16.770,0.012
16.775,0.012
16.780,0.009
16.785,0.005
16.790,0.003
16.795,0.004
16.800,0.006
16.805,0.008
16.810,0.012
16.815,0.016
16.820,0.016
16.825,0.010
16.830,-0.001
16.835,-0.010
16.840,-0.004
16.845,0.011
16.850,0.016
16.855,0.011
16.860,0.001
16.865,-0.006
16.870,-0.008
16.875,-0.006
16.880,-0.005
16.885,-0.007
16.890,-0.010
16.895,-0.009
16.900,-0.003
16.905,-0.001
16.910,-0.006
16.915,-0.010
16.920,-0.010
16.925,-0.007
16.930,-0.005
16.935,-0.009
16.940,-0.021
16.945,-0.031
16.950,-0.035
16.955,-0.037
16.960,-0.047
16.965,-0.063
16.970,-0.080
16.975,-0.095
16.980,-0.112
16.985,-0.128
16.990,-0.129
16.995,-0.108
17.000,-0.077
17.005,-0.052
17.010,-0.025
17.015,0.005
17.020,0.026
17.025,0.044
17.030,0.061
17.035,0.066
17.040,0.066
17.045,0.066
17.050,0.072
17.055,0.083
17.060,0.082
17.065,0.073
17.070,0.076
17.075,0.084
17.080,0.086
17.085,0.087
17.090,0.084
17.095,0.073
17.100,0.058
17.105,0.049
17.110,0.062
17.115,0.074
17.120,0.028
17.125,-0.061
17.130,-0.143
17.135,-0.259
17.140,-0.474
17.145,-0.729
17.150,-0.866
17.155,-0.801
17.160,-0.549
17.165,-0.202
17.170,0.103
17.175,0.290
17.180,0.332
17.185,0.277
17.190,0.233
17.195,0.224
17.200,0.223
17.205,0.228
17.210,0.228
17.215,0.216
17.220,0.211
17.225,0.205
17.230,0.189
17.235,0.179
17.240,0.175
17.245,0.164
17.250,0.152
17.255,0.148
17.260,0.143
17.265,0.128
17.270,0.121
17.275,0.119
17.280,0.115
17.285,0.110
17.290,0.098
17.295,0.085
17.300,0.076
17.305,0.071
17.310,0.072
17.315,0.068
17.320,0.057
17.325,0.049
17.330,0.049
17.335,0.046
17.340,0.041
17.345,0.037
17.350,0.029
17.355,0.020
17.360,0.011
17.365,0.003
17.370,-0.002
17.375,-0.009
17.380,-0.016
17.385,-0.018
17.390,-0.017
17.395,-0.019
17.400,-0.025
17.405,-0.031
17.410,-0.038
17.415,-0.041
17.420,-0.040
17.425,-0.042
17.430,-0.046
17.435,-0.052
17.440,-0.055
17.445,-0.055
17.450,-0.057
17.455,-0.063
17.460,-0.068
17.465,-0.072
17.470,-0.075
17.475,-0.078
17.480,-0.084
17.485,-0.089
17.490,-0.093
17.495,-0.095
17.500,-0.097
17.505,-0.097
17.510,-0.094
17.515,-0.091
17.520,-0.086
17.525,-0.078
17.530,-0.064
17.535,-0.053
17.540,-0.046
17.545,-0.037
17.550,-0.026
17.555,-0.014
17.560,-0.006
17.565,-0.003
17.570,0.000
17.575,0.003
17.580,0.003
17.585,0.002
17.590,0.001
17.595,0.001
17.600,0.002
17.605,0.004
17.610,0.008
17.615,0.006
17.620,0.001
17.625,-0.001
17.630,0.001
17.635,0.003
17.640,0.002
17.645,0.000
17.650,-0.002
17.655,-0.002
17.660,-0.001
17.665,0.003
17.670,0.004
17.675,0.000
17.680,-0.004
17.685,-0.004
17.690,0.000
17.695,0.002
17.700,0.002
17.705,0.001
17.710,0.001
17.715,0.002
17.720,0.003
17.725,0.002
17.730,0.003
17.735,0.004
17.740,0.007
17.745,0.010
17.750,0.010
17.755,0.009
17.760,0.010
17.765,0.013
17.770,0.016
17.775,0.019
17.780,0.022
17.785,0.021
17.790,0.018
17.795,0.016
17.800,0.017
17.805,0.016
17.810,0.017
17.815,0.022
17.820,0.025
17.825,0.024
17.830,0.018
17.835,0.011
17.840,0.008
17.845,0.008
17.850,0.011
17.855,0.015
17.860,0.017
17.865,0.015
17.870,0.013
17.875,0.010
17.880,0.009
17.885,0.008
17.890,0.008
17.895,0.011
17.900,0.013
17.905,0.012
17.910,0.010
17.915,0.005
17.920,0.005
17.925,0.009
17.930,0.009
17.935,0.006
17.940,0.005
17.945,0.002
17.950,-0.001
17.955,-0.003
17.960,-0.004
17.965,0.000
17.970,0.004
17.975,0.006
17.980,0.006
17.985,0.003
17.990,-0.002
17.995,-0.003
18.000,-0.002
18.005,-0.002
18.010,-0.002
18.015,0.000
18.020,0.001
18.025,0.001
18.030,0.001
18.035,-0.003
18.040,-0.009
18.045,-0.010
18.050,-0.005
18.055,0.000
18.060,0.001
18.065,-0.002
18.070,-0.010
18.075,-0.019
18.080,-0.028
18.085,-0.035
18.090,-0.041
18.095,-0.054
18.100,-0.070
18.105,-0.079
18.110,-0.086
18.115,-0.102
18.120,-0.124
18.125,-0.135
18.130,-0.119
18.135,-0.084
18.140,-0.055
18.145,-0.027
18.150,0.000
18.155,0.018
18.160,0.039
18.165,0.055
18.170,0.058
18.175,0.058
18.180,0.064
18.185,0.076
18.190,0.089
18.195,0.092
18.200,0.085
18.205,0.080
18.210,0.074
18.215,0.068
18.220,0.066
18.225,0.064
18.230,0.063
18.235,0.061
18.240,0.059
18.245,0.070
18.250,0.077
18.255,0.030
18.260,-0.060
18.265,-0.144
18.270,-0.257
18.275,-0.466
18.280,-0.725
18.285,-0.873
18.290,-0.815
18.295,-0.571
18.300,-0.225
18.305,0.085
18.310,0.281
18.315,0.334
18.320,0.282
18.325,0.237
18.330,0.228
18.335,0.226
18.340,0.229
18.345,0.228
18.350,0.214
18.355,0.208
18.360,0.206
18.365,0.196
18.370,0.187
18.375,0.180
18.380,0.168
18.385,0.154
18.390,0.146
18.395,0.140
18.400,0.132
18.405,0.124
18.410,0.117
18.415,0.106
18.420,0.096
18.425,0.091
18.430,0.087
18.435,0.082
18.440,0.078
18.445,0.070
18.450,0.062
18.455,0.055
18.460,0.049
18.465,0.043
18.470,0.039
18.475,0.032
18.480,0.027
18.485,0.021
18.490,0.013
18.495,0.009
18.500,0.005
18.505,0.001
18.510,-0.003
18.515,-0.009
18.520,-0.014
18.525,-0.019
18.530,-0.023
18.535,-0.028
18.540,-0.033
18.545,-0.037
18.550,-0.041
18.555,-0.044
18.560,-0.045
18.565,-0.048
18.570,-0.050
18.575,-0.051
18.580,-0.052
18.585,-0.054
18.590,-0.057
18.595,-0.058
18.600,-0.058
18.605,-0.059
18.610,-0.063
18.615,-0.068
18.620,-0.073
18.625,-0.078
18.630,-0.084
18.635,-0.090
18.640,-0.094
18.645,-0.092
18.650,-0.088
18.655,-0.084
18.660,-0.076
18.665,-0.066
18.670,-0.056
18.675,-0.046
18.680,-0.037
18.685,-0.029
18.690,-0.022
18.695,-0.018
18.700,-0.016
18.705,-0.014
18.710,-0.012
18.715,-0.009
18.720,-0.003
18.725,0.001
18.730,0.001
18.735,0.000
18.740,-0.002
18.745,-0.003
18.750,-0.004
18.755,-0.005
18.760,-0.005
18.765,-0.006
18.770,-0.009
18.775,-0.011
18.780,-0.010
18.785,-0.009
18.790,-0.010
18.795,-0.012
18.800,-0.014
18.805,-0.015
18.810,-0.014
18.815,-0.013
18.820,-0.011
18.825,-0.008
18.830,-0.006
18.835,-0.006
18.840,-0.006
18.845,-0.007
18.850,-0.006
18.855,-0.004
18.860,-0.002
18.865,0.001
18.870,0.002
18.875,0.002
18.880,0.003
18.885,0.007
18.890,0.010
18.895,0.011
18.900,0.011
18.905,0.012
18.910,0.014
18.915,0.015
18.920,0.014
18.925,0.013
18.930,0.013
18.935,0.013
18.940,0.014
18.945,0.014
18.950,0.014
18.955,0.013
18.960,0.013
18.965,0.014
18.970,0.013
18.975,0.012
18.980,0.012
18.985,0.012
18.990,0.012
18.995,0.013
19.000,0.015
19.005,0.017
19.010,0.017
19.015,0.016
19.020,0.014
19.025,0.013
19.030,0.012
19.035,0.010
19.040,0.007
19.045,0.008
19.050,0.012
19.055,0.014
19.060,0.014
19.065,0.013
19.070,0.011
19.075,0.009
19.080,0.008
19.085,0.006
19.090,0.005
19.095,0.005
19.100,0.004
19.105,0.004
19.110,0.002
19.115,0.000
19.120,0.001
19.125,0.002
19.130,0.004
19.135,0.003
19.140,0.001
19.145,0.002
19.150,0.002
19.155,0.001
19.160,-0.002
19.165,-0.004
19.170,-0.005
19.175,-0.006
19.180,-0.006
19.185,-0.007
19.190,-0.009
19.195,-0.010
19.200,-0.009
19.205,-0.011
19.210,-0.018
19.215,-0.029
19.220,-0.033
19.225,-0.039
19.230,-0.053
19.235,-0.071
19.240,-0.083
19.245,-0.094
19.250,-0.112
19.255,-0.128
19.260,-0.129
19.265,-0.107
19.270,-0.078
19.275,-0.053
19.280,-0.023
19.285,0.008
19.290,0.029
19.295,0.046
19.300,0.056
19.305,0.056
19.310,0.057
19.315,0.063
19.320,0.072
19.325,0.083
19.330,0.087
19.335,0.084
19.340,0.082
19.345,0.081
19.350,0.077
19.355,0.074
19.360,0.071
19.365,0.066
19.370,0.060
19.375,0.058
19.380,0.071
19.385,0.071
19.390,0.012
19.395,-0.078
19.400,-0.157
19.405,-0.275
19.410,-0.496
19.415,-0.744
19.420,-0.856
19.425,-0.768
19.430,-0.506
19.435,-0.159
19.440,0.134
19.445,0.302
19.450,0.327
19.455,0.262
19.460,0.225
19.465,0.224
19.470,0.225
19.475,0.233
19.480,0.233
19.485,0.218
19.490,0.209
19.495,0.202
19.500,0.186
19.505,0.175
19.510,0.171
19.515,0.162
19.520,0.153
19.525,0.150
19.530,0.144
19.535,0.133
19.540,0.121
19.545,0.110
19.550,0.100
19.555,0.096
19.560,0.092
19.565,0.086
19.570,0.083
19.575,0.078
19.580,0.070
19.585,0.064
19.590,0.057
19.595,0.050
19.600,0.042
19.605,0.034
19.610,0.027
19.615,0.018
19.620,0.009
19.625,0.006
19.630,0.005
19.635,0.004
19.640,0.000
19.645,-0.003
19.650,-0.005
19.655,-0.015
19.660,-0.027
19.665,-0.037
19.670,-0.043
19.675,-0.042
19.680,-0.041
19.685,-0.040
19.690,-0.040
19.695,-0.042
19.700,-0.044
19.705,-0.047
19.710,-0.052
19.715,-0.057
19.720,-0.061
19.725,-0.061
19.730,-0.056
19.735,-0.056
19.740,-0.062
19.745,-0.068
19.750,-0.076
19.755,-0.087
19.760,-0.088
19.765,-0.083
19.770,-0.080
19.775,-0.083
19.780,-0.088
19.785,-0.091
19.790,-0.086
19.795,-0.074
19.800,-0.056
19.805,-0.040
19.810,-0.033
19.815,-0.029
19.820,-0.022
19.825,-0.014
19.830,-0.007
19.835,-0.005
19.840,-0.006
19.845,-0.004
19.850,0.002
19.855,0.008
19.860,0.010
19.865,0.009
19.870,0.010
19.875,0.010
19.880,0.012
19.885,0.011
19.890,0.006
19.895,0.001
19.900,-0.002
19.905,0.002
19.910,0.011
19.915,0.014
19.920,0.008
19.925,-0.002
19.930,-0.008
19.935,-0.006
19.940,-0.004
19.945,-0.004
19.950,-0.001
19.955,0.006
19.960,0.007
19.965,0.001
19.970,-0.005
19.975,-0.003
19.980,0.007
19.985,0.011
19.990,0.005
19.995,0.000
20.000,-0.005
20.005,-0.006
20.010,0.002
20.015,0.013
20.020,0.020
20.025,0.020
20.030,0.013
20.035,0.008
20.040,0.006
20.045,0.004
20.050,0.010
20.055,0.018
20.060,0.021
20.065,0.018
20.070,0.012
20.075,0.008
20.080,0.011
20.085,0.013
20.090,0.012
20.095,0.014
20.100,0.018
20.105,0.022
20.110,0.018
20.115,0.011
20.120,0.010
20.125,0.016
20.130,0.020
20.135,0.023
20.140,0.020
20.145,0.012
20.150,0.008
20.155,0.012
20.160,0.018
20.165,0.018
20.170,0.012
20.175,0.008
20.180,0.007
20.185,0.007
20.190,0.008
20.195,0.012
20.200,0.009
20.205,0.004
20.210,0.002
20.215,0.002
20.220,0.003
20.225,0.004
20.230,0.006
20.235,0.008
20.240,0.008
20.245,0.008
20.250,0.008
20.255,0.007
20.260,0.003
20.265,-0.002
20.270,-0.002
20.275,0.001
20.280,0.000
20.285,-0.002
20.290,0.001
20.295,0.001
20.300,-0.005
20.305,-0.007
20.310,0.002
20.315,0.006
20.320,-0.002
20.325,-0.011
20.330,-0.017
20.335,-0.023
20.340,-0.028
20.345,-0.036
20.350,-0.045
20.355,-0.057
20.360,-0.074
20.365,-0.091
20.370,-0.111
20.375,-0.131
20.380,-0.129
20.385,-0.106
20.390,-0.082
20.395,-0.061
20.400,-0.030
20.405,0.004
20.410,0.030
20.415,0.050
20.420,0.051
20.425,0.047
20.430,0.057
20.435,0.073
20.440,0.083
20.445,0.083
20.450,0.075
20.455,0.074
20.460,0.080
20.465,0.081
20.470,0.076
20.475,0.072
20.480,0.065
20.485,0.056
20.490,0.052
20.495,0.062
20.500,0.076
20.505,0.052
20.510,-0.025
20.515,-0.111
20.520,-0.207
20.525,-0.383
20.530,-0.643
20.535,-0.853
20.540,-0.877
20.545,-0.688
20.550,-0.356
20.555,-0.020
20.560,0.219
20.565,0.320
20.570,0.297
20.575,0.249
20.580,0.233
20.585,0.238
20.590,0.246
20.595,0.245
20.600,0.231
20.605,0.219
20.610,0.217
20.615,0.207
20.620,0.187
20.625,0.171
20.630,0.164
20.635,0.156
20.640,0.147
20.645,0.142
20.650,0.138
20.655,0.134
20.660,0.125
20.665,0.109
20.670,0.098
20.675,0.099
20.680,0.097
20.685,0.089
20.690,0.087
20.695,0.079
20.700,0.070
20.705,0.064
20.710,0.051
20.715,0.041
20.720,0.042
20.725,0.037
20.730,0.027
20.735,0.013
20.740,-0.001
20.745,0.007
20.750,0.023
20.755,0.021
20.760,0.004
20.765,-0.011
20.770,-0.020
20.775,-0.022
20.780,-0.021
20.785,-0.023
20.790,-0.027
20.795,-0.033
20.800,-0.041
20.805,-0.042
20.810,-0.038
20.815,-0.038
20.820,-0.045
20.825,-0.053
20.830,-0.061
20.835,-0.069
20.840,-0.063
20.845,-0.047
20.850,-0.042
20.855,-0.053
20.860,-0.068
20.865,-0.077
20.870,-0.075
20.875,-0.072
20.880,-0.076
20.885,-0.088
20.890,-0.103
20.895,-0.106
20.900,-0.092
20.905,-0.073
20.910,-0.065
20.915,-0.065
20.920,-0.062
20.925,-0.055
20.930,-0.050
20.935,-0.039
20.940,-0.024
20.945,-0.016
20.950,-0.013
20.955,-0.011
20.960,-0.010
20.965,-0.004
20.970,0.002
20.975,0.003
20.980,0.001
20.985,0.000
20.990,0.000
20.995,0.000
21.000,-0.003
21.005,-0.006
21.010,-0.004
21.015,0.001
21.020,0.003
21.025,0.002
21.030,0.001
21.035,-0.004
21.040,-0.008
21.045,-0.008
21.050,-0.008
21.055,-0.009
21.060,-0.010
21.065,-0.011
21.070,-0.010
21.075,-0.011
21.080,-0.013
21.085,-0.014
21.090,-0.015
21.095,-0.012
21.100,-0.003
21.105,0.003
21.110,0.003
21.115,0.001
21.120,0.000
21.125,0.002
21.130,0.005
21.135,0.007
21.140,0.011
21.145,0.014
21.150,0.016
21.155,0.015
21.160,0.016
21.165,0.017
21.170,0.017
21.175,0.016
21.180,0.015
21.185,0.015
21.190,0.015
21.195,0.013
21.200,0.010
21.205,0.010
21.210,0.012
21.215,0.014
21.220,0.015
21.225,0.017
21.230,0.017
21.235,0.012
21.240,0.015
21.245,0.023
21.250,0.023
21.255,0.017
21.260,0.013
21.265,0.017
21.270,0.021
21.275,0.020
21.280,0.018
21.285,0.015
21.290,0.010
21.295,0.009
21.300,0.010
21.305,0.008
21.310,0.005
21.315,0.004
21.320,0.007
21.325,0.010
21.330,0.008
21.335,0.004
21.340,-0.001
21.345,-0.005
21.350,-0.004
21.355,-0.002
21.360,0.000
21.365,-0.001
21.370,0.001
21.375,0.003
21.380,0.000
21.385,-0.005
21.390,-0.006
21.395,-0.005
21.400,-0.003
21.405,-0.002
21.410,-0.002
21.415,-0.004
21.420,-0.007
21.425,-0.009
21.430,-0.011
21.435,-0.014
21.440,-0.022
21.445,-0.033
21.450,-0.038
21.455,-0.050
21.460,-0.064
21.465,-0.072
21.470,-0.082
21.475,-0.098
21.480,-0.116
21.485,-0.126
21.490,-0.109
21.495,-0.077
21.500,-0.052
21.505,-0.025
21.510,0.004
21.515,0.022
21.520,0.036
21.525,0.047
21.530,0.053
21.535,0.060
21.540,0.068
21.545,0.080
21.550,0.091
21.555,0.091
21.560,0.084
21.565,0.080
21.570,0.080
21.575,0.078
21.580,0.074
21.585,0.068
21.590,0.061
21.595,0.056
21.600,0.059
21.605,0.075
21.610,0.075
21.615,0.016
21.620,-0.079
21.625,-0.169
21.630,-0.302
21.635,-0.533
21.640,-0.786
21.645,-0.893
21.650,-0.788
21.655,-0.506
21.660,-0.145
21.665,0.150
21.670,0.315
21.675,0.336
21.680,0.274
21.685,0.240
21.690,0.236
21.695,0.233
21.700,0.237
21.705,0.234
21.710,0.219
21.715,0.216
21.720,0.212
21.725,0.197
21.730,0.186
21.735,0.181
21.740,0.172
21.745,0.162
21.750,0.156
21.755,0.147
21.760,0.136
21.765,0.129
21.770,0.121
21.775,0.111
21.780,0.104
21.785,0.098
21.790,0.091
21.795,0.085
21.800,0.079
21.805,0.075
21.810,0.071
21.815,0.066
21.820,0.058
21.825,0.051
21.830,0.044
21.835,0.034
21.840,0.025
21.845,0.020
21.850,0.018
21.855,0.014
21.860,0.008
21.865,0.001
21.870,-0.007
21.875,-0.016
21.880,-0.022
21.885,-0.026
21.890,-0.028
21.895,-0.029
21.900,-0.033
21.905,-0.038
21.910,-0.042
21.915,-0.047
21.920,-0.049
21.925,-0.053
21.930,-0.054
21.935,-0.054
21.940,-0.056
21.945,-0.056
21.950,-0.056
21.955,-0.058
21.960,-0.060
21.965,-0.062
21.970,-0.064
21.975,-0.069
21.980,-0.076
21.985,-0.082
21.990,-0.088
21.995,-0.093
22.000,-0.095
22.005,-0.092
22.010,-0.085
22.015,-0.076
22.020,-0.068
22.025,-0.058
22.030,-0.047
22.035,-0.038
22.040,-0.031
22.045,-0.025
22.050,-0.017
22.055,-0.010
22.060,-0.006
22.065,-0.005
22.070,-0.004
22.075,-0.002
22.080,0.001
22.085,0.001
22.090,0.000
22.095,-0.001
22.100,-0.001
22.105,0.001
22.110,0.002
22.115,0.002
22.120,0.001
22.125,-0.001
22.130,-0.004
22.135,-0.004
22.140,-0.002
22.145,0.000
22.150,-0.001
22.155,-0.003
22.160,-0.005
22.165,-0.005
22.170,-0.006
22.175,-0.005
22.180,-0.004
22.185,-0.003
22.190,-0.003
22.195,-0.001
22.200,0.000
22.205,0.001
22.210,0.001
22.215,0.002
22.220,0.005
22.225,0.006
22.230,0.007
22.235,0.008
22.240,0.010
22.245,0.012
22.250,0.012
22.255,0.012
22.260,0.014
22.265,0.015
22.270,0.015
22.275,0.014
22.280,0.015
22.285,0.016
22.290,0.018
22.295,0.020
22.300,0.020
22.305,0.019
22.310,0.018
22.315,0.017
22.320,0.017
22.325,0.017
22.330,0.017
22.335,0.018
22.340,0.018
22.345,0.017
22.350,0.017
22.355,0.016
22.360,0.016
22.365,0.016
22.370,0.014
22.375,0.013
22.380,0.013
22.385,0.014
22.390,0.012
22.395,0.011
22.400,0.011
22.405,0.009
22.410,0.005
22.415,0.004
22.420,0.003
22.425,0.004
22.430,0.003
22.435,0.001
22.440,0.002
22.445,0.002
22.450,0.002
22.455,0.002
22.460,0.002
22.465,0.002
22.470,0.001
22.475,0.001
22.480,0.001
22.485,0.001
22.490,0.001
22.495,0.002
22.500,0.003
22.505,0.003
22.510,0.003
22.515,0.002
22.520,0.000
22.525,-0.003
22.530,-0.005
22.535,-0.008
22.540,-0.013
22.545,-0.020
22.550,-0.029
22.555,-0.038
22.560,-0.042
22.565,-0.051
22.570,-0.068
22.575,-0.079
22.580,-0.086
22.585,-0.094
22.590,-0.106
22.595,-0.118
22.600,-0.108
22.605,-0.080
22.610,-0.058
22.615,-0.035
22.620,-0.004
22.625,0.016
22.630,0.031
22.635,0.044
22.640,0.050
22.645,0.056
22.650,0.061
22.655,0.069
22.660,0.081
22.665,0.086
22.670,0.081
22.675,0.078
22.680,0.077
22.685,0.074
22.690,0.070
22.695,0.066
22.700,0.060
22.705,0.053
22.710,0.050
22.715,0.061
22.720,0.070
22.725,0.025
22.730,-0.065
22.735,-0.152
22.740,-0.266
22.745,-0.472
22.750,-0.729
22.755,-0.868
22.760,-0.803
22.765,-0.563
22.770,-0.221
22.775,0.084
22.780,0.277
22.785,0.332
22.790,0.275
22.795,0.228
22.800,0.226
22.805,0.223
22.810,0.226
22.815,0.228
22.820,0.214
22.825,0.208
22.830,0.205
22.835,0.191
22.840,0.180
22.845,0.174
22.850,0.163
22.855,0.151
22.860,0.143
22.865,0.136
22.870,0.126
22.875,0.119
22.880,0.113
22.885,0.104
22.890,0.096
22.895,0.090
22.900,0.081
22.905,0.073
22.910,0.067
22.915,0.062
22.920,0.058
22.925,0.052
22.930,0.046
22.935,0.040
22.940,0.033
22.945,0.027
22.950,0.022
22.955,0.018
22.960,0.013
22.965,0.007
22.970,0.000
22.975,-0.005
22.980,-0.010
22.985,-0.015
22.990,-0.019
22.995,-0.020
23.000,-0.021
23.005,-0.025
23.010,-0.030
23.015,-0.035
23.020,-0.039
23.025,-0.043
23.030,-0.048
23.035,-0.051
23.040,-0.052
23.045,-0.052
23.050,-0.054
23.055,-0.056
23.060,-0.058
23.065,-0.060
23.070,-0.062
23.075,-0.064
23.080,-0.066
23.085,-0.069
23.090,-0.075
23.095,-0.080
23.100,-0.085
23.105,-0.091
23.110,-0.093
23.115,-0.093
23.120,-0.091
23.125,-0.087
23.130,-0.080
23.135,-0.068
23.140,-0.056
23.145,-0.046
23.150,-0.033
23.155,-0.022
23.160,-0.015
23.165,-0.007
23.170,-0.001
23.175,0.002
23.180,0.005
23.185,0.007
23.190,0.011
23.195,0.016
23.200,0.019
23.205,0.019
23.210,0.017
23.215,0.012
23.220,0.010
23.225,0.010
23.230,0.008
23.235,0.008
23.240,0.007
23.245,0.005
23.250,0.002
23.255,-0.001
23.260,-0.003
23.265,-0.003
23.270,-0.003
23.275,-0.002
23.280,-0.001
23.285,0.000
23.290,0.000
23.295,-0.001
23.300,-0.003
23.305,-0.005
23.310,-0.004
23.315,0.000
23.320,0.003
23.325,0.005
23.330,0.006
23.335,0.004
23.340,0.003
23.345,0.004
23.350,0.005
23.355,0.010
23.360,0.017
23.365,0.017
23.370,0.014
23.375,0.011
23.380,0.008
23.385,0.010
23.390,0.013
23.395,0.016
23.400,0.020
23.405,0.020
23.410,0.019
23.415,0.021
23.420,0.025
23.425,0.025
23.430,0.021
23.435,0.017
23.440,0.015
23.445,0.018
23.450,0.019
23.455,0.018
23.460,0.018
23.465,0.017
23.470,0.013
23.475,0.012
23.480,0.015
23.485,0.018
23.490,0.017
23.495,0.014
23.500,0.014
23.505,0.012
23.510,0.010
23.515,0.009
23.520,0.010
23.525,0.009
23.530,0.006
23.535,0.002
23.540,0.002
23.545,0.006
23.550,0.009
23.555,0.008
23.560,0.002
23.565,-0.003
23.570,-0.001
23.575,0.004
23.580,0.003
23.585,0.001
23.590,0.000
23.595,0.001
23.600,0.003
23.605,0.002
23.610,0.001
23.615,0.001
23.620,-0.001
23.625,-0.003
23.630,-0.005
23.635,-0.008
23.640,-0.007
23.645,-0.006
23.650,-0.009
23.655,-0.014
23.660,-0.022
23.665,-0.030
23.670,-0.037
23.675,-0.049
23.680,-0.066
23.685,-0.078
23.690,-0.089
23.695,-0.102
23.700,-0.117
23.705,-0.127
23.710,-0.116
23.715,-0.087
23.720,-0.062
23.725,-0.039
23.730,-0.014
23.735,0.008
23.740,0.029
23.745,0.045
23.750,0.050
23.755,0.048
23.760,0.056
23.765,0.074
23.770,0.088
23.775,0.089
23.780,0.079
23.785,0.071
23.790,0.066
23.795,0.065
23.800,0.068
23.805,0.072
23.810,0.075
23.815,0.067
23.820,0.055
23.825,0.064
23.830,0.078
23.835,0.044
23.840,-0.038
23.845,-0.122
23.850,-0.230
23.855,-0.435
23.860,-0.702
23.865,-0.866
23.870,-0.829
23.875,-0.609
23.880,-0.278
23.885,0.036
23.890,0.248
23.895,0.324
23.900,0.286
23.905,0.238
23.910,0.225
23.915,0.222
23.920,0.227
23.925,0.231
23.930,0.214
23.935,0.201
23.940,0.199
23.945,0.193
23.950,0.187
23.955,0.181
23.960,0.166
23.965,0.153
23.970,0.151
23.975,0.149
23.980,0.140
23.985,0.127
23.990,0.111
23.995,0.098
24.000,0.097
24.005,0.096
24.010,0.088
24.015,0.077
24.020,0.072
24.025,0.074
24.030,0.070
24.035,0.059
24.040,0.054
24.045,0.052
24.050,0.044
24.055,0.033
24.060,0.027
24.065,0.025
24.070,0.020
24.075,0.012
24.080,0.006
24.085,0.002
24.090,-0.006
24.095,-0.009
24.100,-0.009
24.105,-0.013
24.110,-0.019
24.115,-0.026
24.120,-0.030
24.125,-0.028
24.130,-0.029
24.135,-0.032
24.140,-0.033
24.145,-0.038
24.150,-0.046
24.155,-0.052
24.160,-0.052
24.165,-0.045
24.170,-0.044
24.175,-0.053
24.180,-0.063
24.185,-0.066
24.190,-0.062
24.195,-0.064
24.200,-0.073
24.205,-0.084
24.210,-0.089
24.215,-0.089
24.220,-0.090
24.225,-0.089
24.230,-0.083
24.235,-0.077
24.240,-0.070
24.245,-0.061
24.250,-0.053
24.255,-0.046
24.260,-0.039
24.265,-0.030
24.270,-0.018
24.275,-0.012
24.280,-0.014
24.285,-0.012
24.290,0.001
24.295,0.016
24.300,0.017
24.305,0.013
24.310,0.011
24.315,0.010
24.320,0.011
24.325,0.006
24.330,-0.001
24.335,0.000
24.340,0.004
24.345,0.006
24.350,0.008
24.355,0.008
24.360,0.005
24.365,0.006
24.370,0.003
24.375,-0.003
24.380,0.000
24.385,0.002
24.390,-0.002
24.395,-0.003
24.400,-0.002
24.405,-0.003
24.410,-0.005
24.415,-0.006
24.420,-0.007
24.425,-0.007
24.430,-0.004
24.435,0.002
24.440,0.008
24.445,0.009
24.450,0.006
24.455,0.003
24.460,0.002
24.465,0.006
24.470,0.012
24.475,0.015
24.480,0.015
24.485,0.013
24.490,0.010
24.495,0.010
24.500,0.010
24.505,0.010
24.510,0.013
24.515,0.020
24.520,0.021
24.525,0.021
24.530,0.022
24.535,0.021
24.540,0.021
24.545,0.018
24.550,0.012
24.555,0.011
24.560,0.015
24.565,0.017
24.570,0.016
24.575,0.014
24.580,0.014
24.585,0.013
24.590,0.011
24.595,0.009
24.600,0.011
24.605,0.017
24.610,0.019
24.615,0.018
24.620,0.014
24.625,0.010
24.630,0.006
24.635,0.004
24.640,0.004
24.645,0.006
24.650,0.007
24.655,0.007
24.660,0.007
24.665,0.009
24.670,0.008
24.675,0.006
24.680,0.003
24.685,0.002
24.690,0.002
24.695,0.001
24.700,0.000
24.705,-0.002
24.710,-0.006
24.715,-0.007
24.720,-0.008
24.725,-0.009
24.730,-0.008
24.735,-0.007
24.740,-0.007
24.745,-0.009
24.750,-0.015
24.755,-0.020
24.760,-0.024
24.765,-0.033
24.770,-0.042
24.775,-0.045
24.780,-0.052
24.785,-0.064
24.790,-0.074
24.795,-0.084
24.800,-0.097
24.805,-0.115
24.810,-0.125
24.815,-0.108
24.820,-0.078
24.825,-0.057
24.830,-0.035
24.835,-0.008
24.840,0.014
24.845,0.034
24.850,0.046
24.855,0.049
24.860,0.052
24.865,0.057
24.870,0.069
24.875,0.084
24.880,0.088
24.885,0.083
24.890,0.080
24.895,0.078
24.900,0.073
24.905,0.070
24.910,0.069
24.915,0.063
24.920,0.055
24.925,0.052
24.930,0.066
24.935,0.068
24.940,0.011
24.945,-0.080
24.950,-0.162
24.955,-0.293
24.960,-0.523
24.965,-0.777
24.970,-0.896
24.975,-0.804
24.980,-0.533
24.985,-0.181
24.990,0.118
24.995,0.292
25.000,0.321
25.005,0.266
25.010,0.230
25.015,0.224
25.020,0.220
25.025,0.222
25.030,0.221
25.035,0.210
25.040,0.208
25.045,0.203
25.050,0.187
25.055,0.179
25.060,0.175
25.065,0.165
25.070,0.156
25.075,0.149
25.080,0.140
25.085,0.131
25.090,0.124
25.095,0.117
25.100,0.107
25.105,0.099
25.110,0.092
25.115,0.084
25.120,0.077
25.125,0.072
25.130,0.069
25.135,0.064
25.140,0.058
25.145,0.052
25.150,0.046
25.155,0.039
25.160,0.032
25.165,0.024
25.170,0.016
25.175,0.010
25.180,0.005
25.185,0.001
25.190,-0.004
25.195,-0.011
25.200,-0.015
25.205,-0.020
25.210,-0.024
25.215,-0.029
25.220,-0.033
25.225,-0.036
25.230,-0.039
25.235,-0.042
25.240,-0.043
25.245,-0.043
25.250,-0.044
25.255,-0.046
25.260,-0.048
25.265,-0.049
25.270,-0.052
25.275,-0.054
25.280,-0.055
25.285,-0.058
25.290,-0.060
25.295,-0.062
25.300,-0.066
25.305,-0.070
25.310,-0.076
25.315,-0.082
25.320,-0.087
25.325,-0.089
25.330,-0.087
25.335,-0.082
25.340,-0.076
25.345,-0.070
25.350,-0.060
25.355,-0.049
25.360,-0.039
25.365,-0.031
25.370,-0.024
25.375,-0.018
25.380,-0.012
25.385,-0.007
25.390,-0.004
25.395,-0.002
25.400,-0.002
25.405,-0.003
25.410,-0.004
25.415,-0.002
25.420,-0.001
25.425,-0.001
25.430,0.000
25.435,-0.001
25.440,-0.003
25.445,-0.004
25.450,-0.004
25.455,-0.002
25.460,-0.001
25.465,-0.002
25.470,-0.003
25.475,-0.005
25.480,-0.006
25.485,-0.008
25.490,-0.009
25.495,-0.009
25.500,-0.008
25.505,-0.006
25.510,-0.004
25.515,-0.004
25.520,-0.004
25.525,-0.004
25.530,-0.002
25.535,-0.001
25.540,0.000
25.545,0.003
25.550,0.005
25.555,0.006
25.560,0.006
25.565,0.007
25.570,0.010
25.575,0.013
25.580,0.016
25.585,0.016
25.590,0.016
25.595,0.015
25.600,0.014
25.605,0.015
25.610,0.017
25.615,0.020
25.620,0.021
25.625,0.020
25.630,0.020
25.635,0.019
25.640,0.017
25.645,0.015
25.650,0.014
25.655,0.014
25.660,0.014
25.665,0.013
25.670,0.013
25.675,0.014
25.680,0.013
25.685,0.012
25.690,0.011
25.695,0.009
25.700,0.009
25.705,0.008
25.710,0.008
25.715,0.007
25.720,0.007
25.725,0.009
25.730,0.010
25.735,0.010
25.740,0.008
25.745,0.006
25.750,0.006
25.755,0.005
25.760,0.004
25.765,0.005
25.770,0.005
25.775,0.005
25.780,0.005
25.785,0.004
25.790,0.003
25.795,0.001
25.800,0.000
25.805,0.000
25.810,0.000
25.815,0.000
25.820,0.000
25.825,-0.001
25.830,-0.003
25.835,-0.003
25.840,-0.002
25.845,-0.006
25.850,-0.013
25.855,-0.022
25.860,-0.033
25.865,-0.039
25.870,-0.045
25.875,-0.061
25.880,-0.074
25.885,-0.080
25.890,-0.086
25.895,-0.097
25.900,-0.112
25.905,-0.118
25.910,-0.099
25.915,-0.073
25.920,-0.050
25.925,-0.020
25.930,0.006
25.935,0.024
25.940,0.041
25.945,0.050
25.950,0.056
25.955,0.062
25.960,0.067
25.965,0.078
25.970,0.088
25.975,0.088
25.980,0.084
25.985,0.083
25.990,0.080
25.995,0.077
26.000,0.075
26.005,0.070
26.010,0.064
26.015,0.058
26.020,0.058
26.025,0.074
26.030,0.068
26.035,0.002
26.040,-0.089
26.045,-0.174
26.050,-0.315
26.055,-0.556
26.060,-0.792
26.065,-0.864
26.070,-0.737
26.075,-0.456
26.080,-0.114
26.085,0.156
26.090,0.306
26.095,0.317
26.100,0.252
26.105,0.224
26.110,0.224
26.115,0.221
26.120,0.228
26.125,0.222
26.130,0.208
26.135,0.206
26.140,0.200
26.145,0.186
26.150,0.180
26.155,0.175
26.160,0.164
26.165,0.155
26.170,0.149
26.175,0.140
26.180,0.131
26.185,0.124
26.190,0.117
26.195,0.108
26.200,0.101
26.205,0.094
26.210,0.086
26.215,0.079
26.220,0.073
26.225,0.067
26.230,0.060
26.235,0.054
26.240,0.049
26.245,0.044
26.250,0.038
26.255,0.030
26.260,0.025
26.265,0.020
26.270,0.015
26.275,0.007
26.280,0.000
26.285,-0.003
26.290,-0.007
26.295,-0.013
26.300,-0.017
26.305,-0.021
26.310,-0.024
26.315,-0.029
26.320,-0.034
26.325,-0.036
26.330,-0.038
26.335,-0.040
26.340,-0.043
26.345,-0.045
26.350,-0.046
26.355,-0.048
26.360,-0.050
26.365,-0.050
26.370,-0.050
26.375,-0.052
26.380,-0.053
26.385,-0.056
26.390,-0.061
26.395,-0.067
26.400,-0.074
26.405,-0.079
26.410,-0.083
26.415,-0.086
26.420,-0.086
26.425,-0.083
26.430,-0.075
26.435,-0.067
26.440,-0.058
26.445,-0.049
26.450,-0.040
26.455,-0.031
26.460,-0.022
26.465,-0.013
26.470,-0.007
26.475,-0.004
26.480,0.002
26.485,0.004
26.490,0.005
26.495,0.006
26.500,0.007
26.505,0.008
26.510,0.007
26.515,0.005
26.520,0.005
26.525,0.004
26.530,0.003
26.535,0.002
26.540,0.003
26.545,0.002
26.550,0.000
26.555,-0.003
26.560,-0.005
26.565,-0.006
26.570,-0.006
26.575,-0.006
26.580,-0.006
26.585,-0.005
26.590,-0.005
26.595,-0.005
26.600,-0.002
26.605,-0.003
26.610,-0.005
26.615,-0.005
26.620,-0.003
26.625,-0.002
26.630,-0.002
26.635,-0.001
26.640,0.001
26.645,0.003
26.650,0.004
26.655,0.003
26.660,0.004
26.665,0.006
26.670,0.009
26.675,0.010
26.680,0.010
26.685,0.009
26.690,0.011
26.695,0.014
26.700,0.016
26.705,0.017
26.710,0.018
26.715,0.017
26.720,0.018
26.725,0.018
26.730,0.017
26.735,0.017
26.740,0.018
26.745,0.020
26.750,0.020
26.755,0.019
26.760,0.019
26.765,0.018
26.770,0.017
26.775,0.016
26.780,0.015
26.785,0.014
26.790,0.012
26.795,0.010
26.800,0.009
26.805,0.008
26.810,0.006
26.815,0.005
26.820,0.004
26.825,0.003
26.830,0.003
26.835,0.001
26.840,0.000
26.845,0.001
26.850,0.003
26.855,0.003
26.860,0.002
26.865,0.000
26.870,-0.001
26.875,-0.002
26.880,-0.004
26.885,-0.005
26.890,-0.004
26.895,-0.003
26.900,-0.002
26.905,-0.002
26.910,-0.002
26.915,-0.001
26.920,-0.001
26.925,0.000
26.930,0.003
26.935,0.004
26.940,0.003
26.945,0.003
26.950,0.002
26.955,0.000
26.960,-0.005
26.965,-0.014
26.970,-0.025
26.975,-0.033
26.980,-0.041
26.985,-0.057
26.990,-0.073
26.995,-0.080
27.000,-0.088
27.005,-0.107
27.010,-0.126
27.015,-0.130
27.020,-0.111
27.025,-0.082
27.030,-0.057
27.035,-0.029
27.040,0.001
27.045,0.023
27.050,0.045
27.055,0.064
27.060,0.067
27.065,0.062
27.070,0.066
27.075,0.077
27.080,0.087
27.085,0.089
27.090,0.085
27.095,0.081
27.100,0.077
27.105,0.071
27.110,0.067
27.115,0.062
27.120,0.055
27.125,0.046
27.130,0.046
27.135,0.064
27.140,0.068
27.145,0.009
27.150,-0.078
27.155,-0.156
27.160,-0.283
27.165,-0.512
27.170,-0.759
27.175,-0.858
27.180,-0.754
27.185,-0.492
27.190,-0.160
27.195,0.120
27.200,0.287
27.205,0.317
27.210,0.260
27.215,0.228
27.220,0.225
27.225,0.221
27.230,0.227
27.235,0.229
27.240,0.217
27.245,0.214
27.250,0.209
27.255,0.195
27.260,0.185
27.265,0.176
27.270,0.162
27.275,0.153
27.280,0.151
27.285,0.146
27.290,0.137
27.295,0.126
27.300,0.112
27.305,0.101
27.310,0.096
27.315,0.093
27.320,0.087
27.325,0.078
27.330,0.070
27.335,0.065
27.340,0.061
27.345,0.053
27.350,0.038
27.355,0.029
27.360,0.030
27.365,0.035
27.370,0.031
27.375,0.019
27.380,0.010
27.385,0.007
27.390,0.006
27.395,0.002
27.400,-0.004
27.405,-0.010
27.410,-0.017
27.415,-0.026
27.420,-0.029
27.425,-0.026
27.430,-0.023
27.435,-0.028
27.440,-0.040
27.445,-0.046
27.450,-0.048
27.455,-0.051
27.460,-0.052
27.465,-0.047
27.470,-0.045
27.475,-0.051
27.480,-0.058
27.485,-0.060
27.490,-0.056
27.495,-0.050
27.500,-0.054
27.505,-0.063
27.510,-0.073
27.515,-0.082
27.520,-0.082
27.525,-0.082
27.530,-0.084
27.535,-0.082
27.540,-0.080
27.545,-0.075
27.550,-0.064
27.555,-0.052
27.560,-0.043
27.565,-0.037
27.570,-0.034
27.575,-0.033
27.580,-0.029
27.585,-0.021
27.590,-0.009
27.595,0.004
27.600,0.010
27.605,0.009
27.610,0.007
27.615,0.004
27.620,-0.001
27.625,-0.003
27.630,0.005
27.635,0.013
27.640,0.012
27.645,0.001
27.650,-0.009
27.655,-0.009
27.660,-0.003
27.665,0.000
27.670,0.000
27.675,-0.003
27.680,-0.006
27.685,-0.006
27.690,-0.004
27.695,0.000
27.700,0.001
27.705,0.000
27.710,0.001
27.715,0.001
27.720,-0.004
27.725,-0.010
27.730,-0.010
27.735,-0.005
27.740,0.001
27.745,0.004
27.750,0.006
27.755,0.006
27.760,0.009
27.765,0.015
27.770,0.016
27.775,0.015
27.780,0.013
27.785,0.011
27.790,0.011
27.795,0.010
27.800,0.012
27.805,0.012
27.810,0.006
27.815,0.007
27.820,0.015
27.825,0.019
27.830,0.020
27.835,0.024
27.840,0.028
27.845,0.025
27.850,0.013
27.855,0.001
27.860,-0.003
27.865,0.004
27.870,0.012
27.875,0.021
27.880,0.029
27.885,0.030
27.890,0.024
27.895,0.014
27.900,0.004
27.905,-0.002
27.910,-0.007
27.915,-0.004
27.920,0.004
27.925,0.010
27.930,0.012
27.935,0.008
27.940,0.009
27.945,0.013
27.950,0.011
27.955,0.003
27.960,-0.004
27.965,-0.005
27.970,-0.003
27.975,0.003
27.980,0.010
27.985,0.008
27.990,-0.002
27.995,-0.006
28.000,0.003
28.005,0.012
28.010,0.004
28.015,-0.009
28.020,-0.009
28.025,-0.001
28.030,0.006
28.035,0.007
28.040,0.002
28.045,-0.005
28.050,-0.010
28.055,-0.006
28.060,-0.002
28.065,-0.012
28.070,-0.023
28.075,-0.018
28.080,0.000
28.085,0.004
28.090,-0.013
28.095,-0.034
28.100,-0.048
28.105,-0.060
28.110,-0.069
28.115,-0.072
28.120,-0.082
28.125,-0.103
28.130,-0.123
28.135,-0.123
28.140,-0.098
28.145,-0.068
28.150,-0.041
28.155,-0.008
28.160,0.015
28.165,0.026
28.170,0.042
28.175,0.052
28.180,0.049
28.185,0.049
28.190,0.059
28.195,0.079
28.200,0.090
28.205,0.079
28.210,0.072
28.215,0.082
28.220,0.082
28.225,0.074
28.230,0.071
28.235,0.068
28.240,0.060
28.245,0.048
28.250,0.052
28.255,0.075
28.260,0.056
28.265,-0.023
28.270,-0.104
28.275,-0.189
28.280,-0.365
28.285,-0.636
28.290,-0.864
28.295,-0.900
28.300,-0.707
28.305,-0.373
28.310,-0.036
28.315,0.214
28.320,0.327
28.325,0.319
28.330,0.272
28.335,0.240
28.340,0.225
28.345,0.226
28.350,0.236
28.355,0.235
28.360,0.227
28.365,0.224
28.370,0.212
28.375,0.198
28.380,0.187
28.385,0.169
28.390,0.158
28.395,0.156
28.400,0.154
28.405,0.151
28.410,0.141
28.415,0.131
28.420,0.125
28.425,0.114
28.430,0.107
28.435,0.095
28.440,0.077
28.445,0.069
28.450,0.061
28.455,0.059
28.460,0.061
28.465,0.058
28.470,0.057
28.475,0.051
28.480,0.041
28.485,0.034
28.490,0.023
28.495,0.018
28.500,0.017
28.505,0.009
28.510,-0.003
28.515,-0.011
28.520,-0.017
28.525,-0.020
28.530,-0.025
28.535,-0.033
28.540,-0.038
28.545,-0.039
28.550,-0.041
28.555,-0.044
28.560,-0.048
28.565,-0.052
28.570,-0.052
28.575,-0.046
28.580,-0.038
28.585,-0.037
28.590,-0.041
28.595,-0.043
28.600,-0.047
28.605,-0.058
28.610,-0.064
28.615,-0.065
28.620,-0.062
28.625,-0.063
28.630,-0.077
28.635,-0.089
28.640,-0.094
28.645,-0.105
28.650,-0.110
28.655,-0.094
28.660,-0.080
28.665,-0.077
28.670,-0.079
28.675,-0.075
28.680,-0.054
28.685,-0.037
28.690,-0.042
28.695,-0.036
28.700,-0.019
28.705,-0.007
28.710,0.002
28.715,0.005
28.720,-0.002
28.725,-0.010
28.730,-0.013
28.735,-0.008
28.740,-0.007
28.745,-0.012
28.750,-0.007
28.755,0.005
28.760,0.007
28.765,-0.001
28.770,-0.007
28.775,-0.009
28.780,-0.010
28.785,-0.014
28.790,-0.012
28.795,-0.003
28.800,0.000
28.805,-0.003
28.810,-0.005
28.815,-0.001
28.820,0.002
28.825,0.001
28.830,-0.003
28.835,-0.007
28.840,-0.012
28.845,-0.013
28.850,-0.010
28.855,-0.006
28.860,-0.003
28.865,-0.003
28.870,-0.002
28.875,0.002
28.880,0.006
28.885,0.006
28.890,0.003
28.895,0.002
28.900,0.006
28.905,0.011
28.910,0.013
28.915,0.013
28.920,0.011
28.925,0.011
28.930,0.013
28.935,0.015
28.940,0.016
28.945,0.013
28.950,0.011
28.955,0.011
28.960,0.011
28.965,0.010
28.970,0.009
28.975,0.008
28.980,0.010
28.985,0.012
28.990,0.013
28.995,0.013
29.000,0.012
29.005,0.013
29.010,0.016
29.015,0.018
29.020,0.017
29.025,0.015
29.030,0.013
29.035,0.014
29.040,0.014
29.045,0.010
29.050,0.006
29.055,0.005
29.060,0.008
29.065,0.011
29.070,0.009
29.075,0.006
29.080,0.003
29.085,0.001
29.090,-0.001
29.095,-0.002
29.100,-0.001
29.105,0.000
29.110,-0.003
29.115,-0.006
29.120,-0.003
29.125,0.001
29.130,0.003
29.135,0.003
29.140,0.004
29.145,0.006
29.150,0.004
29.155,-0.001
29.160,-0.004
29.165,-0.001
29.170,0.000
29.175,-0.001
29.180,-0.001
29.185,-0.004
29.190,-0.010
29.195,-0.016
29.200,-0.022
29.205,-0.030
29.210,-0.037
29.215,-0.042
29.220,-0.054
29.225,-0.071
29.230,-0.081
29.235,-0.089
29.240,-0.102
29.245,-0.119
29.250,-0.127
29.255,-0.108
29.260,-0.076
29.265,-0.056
29.270,-0.035
29.275,-0.009
29.280,0.013
29.285,0.034
29.290,0.045
29.295,0.048
29.300,0.055
29.305,0.064
29.310,0.079
29.315,0.093
29.320,0.095
29.325,0.089
29.330,0.085
29.335,0.082
29.340,0.077
29.345,0.072
29.350,0.068
29.355,0.063
29.360,0.059
29.365,0.060
29.370,0.076
29.375,0.072
29.380,0.006
29.385,-0.088
29.390,-0.175
29.395,-0.312
29.400,-0.549
29.405,-0.798
29.410,-0.893
29.415,-0.777
29.420,-0.493
29.425,-0.138
29.430,0.150
29.435,0.311
29.440,0.329
29.445,0.267
29.450,0.235
29.455,0.232
29.460,0.230
29.465,0.237
29.470,0.232
29.475,0.216
29.480,0.213
29.485,0.210
29.490,0.194
29.495,0.184
29.500,0.180
29.505,0.170
29.510,0.160
29.515,0.153
29.520,0.144
29.525,0.135
29.530,0.127
29.535,0.119
29.540,0.111
29.545,0.104
29.550,0.096
29.555,0.089
29.560,0.083
29.565,0.077
29.570,0.070
29.575,0.063
29.580,0.059
29.585,0.053
29.590,0.045
29.595,0.038
29.600,0.033
29.605,0.029
29.610,0.023
29.615,0.017
29.620,0.011
29.625,0.005
29.630,-0.001
29.635,-0.005
29.640,-0.010
29.645,-0.014
29.650,-0.018
29.655,-0.023
29.660,-0.029
29.665,-0.033
29.670,-0.038
29.675,-0.043
29.680,-0.045
29.685,-0.048
29.690,-0.049
29.695,-0.050
29.700,-0.053
29.705,-0.055
29.710,-0.055
29.715,-0.055
29.720,-0.056
29.725,-0.057
29.730,-0.060
29.735,-0.063
29.740,-0.068
29.745,-0.073
29.750,-0.078
29.755,-0.084
29.760,-0.086
29.765,-0.086
29.770,-0.082
29.775,-0.076
29.780,-0.068
29.785,-0.058
29.790,-0.049
29.795,-0.041
29.800,-0.032
29.805,-0.023
29.810,-0.015
29.815,-0.008
29.820,-0.004
29.825,-0.001
29.830,0.003
29.835,0.006
29.840,0.006
29.845,0.006
29.850,0.007
29.855,0.008
29.860,0.008
29.865,0.008
29.870,0.008
29.875,0.008
29.880,0.008
29.885,0.006
29.890,0.004
29.895,0.004
29.900,0.004
29.905,0.003
29.910,0.000
29.915,-0.001
29.920,-0.002
29.925,-0.003
29.930,-0.004
29.935,-0.005
29.940,-0.005
29.945,-0.006
29.950,-0.005
29.955,-0.005
29.960,-0.004
29.965,-0.001
29.970,0.002
29.975,0.003
29.980,0.005
29.985,0.005
29.990,0.006
29.995,0.008
30.000,0.010
30.005,0.012
30.010,0.014
30.015,0.016
30.020,0.019
30.025,0.021
30.030,0.021
30.035,0.021
30.040,0.021
30.045,0.021
30.050,0.021
30.055,0.021
30.060,0.020
30.065,0.020
30.070,0.020
30.075,0.021
30.080,0.021
30.085,0.020
30.090,0.019
30.095,0.019
30.100,0.019
30.105,0.018
30.110,0.017
30.115,0.015
30.120,0.013
30.125,0.013
30.130,0.012
30.135,0.012
30.140,0.012
30.145,0.010
30.150,0.008
30.155,0.008
30.160,0.008
30.165,0.008
30.170,0.007
30.175,0.006
30.180,0.005
30.185,0.003
30.190,0.001
30.195,0.002
30.200,0.004
30.205,0.004
30.210,0.002
30.215,0.002
30.220,0.002
30.225,0.001
30.230,0.001
30.235,0.000
30.240,0.002
30.245,0.004
30.250,0.003
30.255,0.002
30.260,0.001
30.265,0.001
30.270,-0.001
30.275,-0.003
30.280,-0.002
30.285,-0.001
30.290,0.000
30.295,-0.001
30.300,-0.003
30.305,-0.003
30.310,-0.003
30.315,-0.005
30.320,-0.011
30.325,-0.019
30.330,-0.027
30.335,-0.036
30.340,-0.041
30.345,-0.048
30.350,-0.063
30.355,-0.078
30.360,-0.087
30.365,-0.095
30.370,-0.106
30.375,-0.122
30.380,-0.123
30.385,-0.100
30.390,-0.074
30.395,-0.054
30.400,-0.024
30.405,0.002
30.410,0.022
30.415,0.039
30.420,0.044
30.425,0.049
30.430,0.056
30.435,0.064
30.440,0.076
30.445,0.083
30.450,0.081
30.455,0.077
30.460,0.076
30.465,0.074
30.470,0.071
30.475,0.068
30.480,0.064
30.485,0.058
30.490,0.052
30.495,0.056
30.500,0.070
30.505,0.050
30.510,-0.031
30.515,-0.123
30.520,-0.218
30.525,-0.387
30.530,-0.642
30.535,-0.843
30.540,-0.853
30.545,-0.672
30.550,-0.355
30.555,-0.021
30.560,0.218
30.565,0.326
30.570,0.302
30.575,0.237
30.580,0.224
30.585,0.223
30.590,0.220
30.595,0.225
30.600,0.215
30.605,0.203
30.610,0.201
30.615,0.192
30.620,0.180
30.625,0.175
30.630,0.168
30.635,0.157
30.640,0.149
30.645,0.140
30.650,0.129
30.655,0.119
30.660,0.111
30.665,0.104
30.670,0.097
30.675,0.092
30.680,0.087
30.685,0.079
30.690,0.071
30.695,0.066
30.700,0.061
30.705,0.054
30.710,0.050
30.715,0.046
30.720,0.039
30.725,0.031
30.730,0.024
30.735,0.018
30.740,0.013
30.745,0.009
30.750,0.005
30.755,0.002
30.760,-0.001
30.765,-0.007
30.770,-0.013
30.775,-0.018
30.780,-0.023
30.785,-0.028
30.790,-0.034
30.795,-0.038
30.800,-0.040
30.805,-0.044
30.810,-0.048
30.815,-0.051
30.820,-0.052
30.825,-0.053
30.830,-0.054
30.835,-0.055
30.840,-0.055
30.845,-0.056
30.850,-0.057
30.855,-0.058
30.860,-0.061
30.865,-0.065
30.870,-0.069
30.875,-0.076
30.880,-0.082
30.885,-0.086
30.890,-0.088
30.895,-0.087
30.900,-0.082
30.905,-0.076
30.910,-0.067
30.915,-0.058
30.920,-0.047
30.925,-0.036
30.930,-0.026
30.935,-0.018
30.940,-0.012
30.945,-0.005
30.950,0.000
30.955,0.004
30.960,0.008
30.965,0.011
30.970,0.012
30.975,0.013
30.980,0.013
30.985,0.012
30.990,0.011
30.995,0.011
31.000,0.011
31.005,0.011
31.010,0.009
31.015,0.008
31.020,0.007
31.025,0.007
31.030,0.006
31.035,0.004
31.040,0.003
31.045,0.002
31.050,0.001
31.055,0.000
31.060,-0.002
31.065,-0.002
31.070,-0.004
31.075,-0.005
31.080,-0.005
31.085,-0.005
31.090,-0.004
31.095,-0.005
31.100,-0.004
31.105,-0.003
31.110,-0.001
31.115,0.001
31.120,0.002
31.125,0.004
31.130,0.007
31.135,0.009
31.140,0.010
31.145,0.011
31.150,0.012
31.155,0.012
31.160,0.014
31.165,0.017
31.170,0.018
31.175,0.020
31.180,0.021
31.185,0.020
31.190,0.018
31.195,0.017
31.200,0.017
31.205,0.016
31.210,0.015
31.215,0.014
31.220,0.014
31.225,0.014
31.230,0.013
31.235,0.012
31.240,0.012
31.245,0.011
31.250,0.010
31.255,0.009
31.260,0.009
31.265,0.008
31.270,0.008
31.275,0.009
31.280,0.008
31.285,0.007
31.290,0.006
31.295,0.005
31.300,0.005
31.305,0.004
31.310,0.002
31.315,0.001
31.320,0.000
31.325,-0.001
31.330,-0.001
31.335,-0.001
31.340,-0.001
31.345,-0.001
31.350,-0.001
31.355,0.001
31.360,0.001
31.365,0.003
31.370,0.004
31.375,0.005
31.380,0.006
31.385,0.006
31.390,0.005
31.395,0.005
31.400,0.004
31.405,0.003
31.410,0.001
31.415,0.001
31.420,0.001
31.425,-0.001
31.430,-0.002
31.435,-0.003
31.440,-0.004
31.445,-0.002
31.450,-0.002
31.455,-0.004
31.460,-0.008
31.465,-0.014
31.470,-0.021
31.475,-0.031
31.480,-0.039
31.485,-0.049
31.490,-0.064
31.495,-0.076
31.500,-0.082
31.505,-0.093
31.510,-0.113
31.515,-0.130
31.520,-0.129
31.525,-0.104
31.530,-0.071
31.535,-0.045
31.540,-0.019
31.545,0.006
31.550,0.025
31.555,0.043
31.560,0.053
31.565,0.055
31.570,0.058
31.575,0.067
31.580,0.079
31.585,0.087
31.590,0.086
31.595,0.083
31.600,0.085
31.605,0.084
31.610,0.079
31.615,0.075
31.620,0.070
31.625,0.064
31.630,0.059
31.635,0.065
31.640,0.082
31.645,0.066
31.650,-0.009
31.655,-0.096
31.660,-0.182
31.665,-0.340
31.670,-0.596
31.675,-0.817
31.680,-0.854
31.685,-0.693
31.690,-0.389
31.695,-0.058
31.700,0.191
31.705,0.318
31.710,0.308
31.715,0.245
31.720,0.223
31.725,0.220
31.730,0.219
31.735,0.226
31.740,0.219
31.745,0.207
31.750,0.205
31.755,0.194
31.760,0.179
31.765,0.173
31.770,0.166
31.775,0.154
31.780,0.146
31.785,0.140
31.790,0.130
31.795,0.122
31.800,0.115
31.805,0.106
31.810,0.099
31.815,0.094
31.820,0.088
31.825,0.079
31.830,0.072
31.835,0.068
31.840,0.062
31.845,0.055
31.850,0.051
31.855,0.048
31.860,0.043
31.865,0.038
31.870,0.032
31.875,0.027
31.880,0.021
31.885,0.012
31.890,0.003
31.895,-0.004
31.900,-0.009
31.905,-0.014
31.910,-0.018
31.915,-0.025
31.920,-0.032
31.925,-0.036
31.930,-0.039
31.935,-0.042
31.940,-0.045
31.945,-0.050
31.950,-0.053
31.955,-0.056
31.960,-0.056
31.965,-0.054
31.970,-0.054
31.975,-0.055
31.980,-0.055
31.985,-0.056
31.990,-0.058
31.995,-0.060
32.000,-0.064
32.005,-0.067
32.010,-0.069
32.015,-0.073
32.020,-0.080
32.025,-0.088
32.030,-0.092
32.035,-0.089
32.040,-0.084
32.045,-0.076
32.050,-0.068
32.055,-0.058
32.060,-0.047
32.065,-0.035
32.070,-0.023
32.075,-0.014
32.080,-0.008
32.085,-0.003
32.090,0.000
32.095,0.000
32.100,0.000
32.105,0.000
32.110,-0.001
32.115,0.000
32.120,0.001
32.125,0.000
32.130,-0.001
32.135,-0.001
32.140,0.002
32.145,0.004
32.150,0.006
32.155,0.005
32.160,0.002
32.165,0.000
32.170,-0.002
32.175,-0.005
32.180,-0.007
32.185,-0.008
32.190,-0.005
32.195,-0.001
32.200,0.001
32.205,0.003
32.210,0.000
32.215,-0.002
32.220,0.000
32.225,0.000
32.230,0.000
32.235,0.000
32.240,0.001
32.245,0.002
32.250,0.007
32.255,0.012
32.260,0.014
32.265,0.014
32.270,0.012
32.275,0.013
32.280,0.016
32.285,0.017
32.290,0.016
32.295,0.020
32.300,0.023
32.305,0.022
32.310,0.021
32.315,0.020
32.320,0.019
32.325,0.019
32.330,0.018
32.335,0.018
32.340,0.021
32.345,0.021
32.350,0.020
32.355,0.018
32.360,0.014
32.365,0.012
32.370,0.012
32.375,0.009
32.380,0.010
32.385,0.010
32.390,0.011
32.395,0.013
32.400,0.015
32.405,0.017
32.410,0.014
32.415,0.007
32.420,0.003
32.425,0.004
32.430,0.011
32.435,0.016
32.440,0.017
32.445,0.013
32.450,0.010
32.455,0.008
32.460,0.010
32.465,0.013
32.470,0.012
32.475,0.008
32.480,0.005
32.485,0.004
32.490,0.003
32.495,0.000
32.500,-0.003
32.505,-0.006
32.510,-0.012
32.515,-0.018
32.520,-0.018
32.525,-0.013
32.530,-0.010
32.535,-0.009
32.540,-0.012
32.545,-0.022
32.550,-0.028
32.555,-0.017
32.560,-0.003
32.565,0.007
32.570,0.004
32.575,-0.002
32.580,0.000
32.585,0.001
32.590,-0.001
32.595,-0.002
32.600,0.002
32.605,0.006
32.610,0.007
32.615,0.004
32.620,-0.001
32.625,-0.010
32.630,-0.019
32.635,-0.030
32.640,-0.045
32.645,-0.057
32.650,-0.064
32.655,-0.079
32.660,-0.105
32.665,-0.127
32.670,-0.128
32.675,-0.103
32.680,-0.069
32.685,-0.043
32.690,-0.017
32.695,0.009
32.700,0.031
32.705,0.051
32.710,0.058
32.715,0.054
32.720,0.053
32.725,0.061
32.730,0.074
32.735,0.082
32.740,0.079
32.745,0.076
32.750,0.076
32.755,0.075
32.760,0.074
32.765,0.073
32.770,0.067
32.775,0.060
32.780,0.057
32.785,0.064
32.790,0.082
32.795,0.068
32.800,-0.002
32.805,-0.085
32.810,-0.168
32.815,-0.321
32.820,-0.576
32.825,-0.815
32.830,-0.885
32.835,-0.742
32.840,-0.441
32.845,-0.104
32.850,0.164
32.855,0.304
32.860,0.306
32.865,0.250
32.870,0.222
32.875,0.226
32.880,0.242
32.885,0.256
32.890,0.247
32.895,0.218
32.900,0.186
32.905,0.188
32.910,0.211
32.915,0.187
32.920,0.153
32.925,0.123
32.930,0.103
32.935,0.129
32.940,0.146
32.945,0.123
32.950,0.108
32.955,0.101
32.960,0.098
32.965,0.108
32.970,0.084
32.975,0.051
32.980,0.064
32.985,0.070
32.990,0.055
32.995,0.061
33.000,0.064
33.005,0.047
33.010,0.030
33.015,0.020
33.020,0.018
33.025,0.014
33.030,0.003
33.035,-0.001
33.040,-0.003
33.045,-0.010
33.050,-0.014
33.055,-0.017
33.060,-0.022
33.065,-0.018
33.070,-0.019
33.075,-0.041
33.080,-0.059
33.085,-0.066
33.090,-0.069
33.095,-0.069
33.100,-0.066
33.105,-0.051
33.110,-0.032
33.115,-0.029
33.120,-0.043
33.125,-0.048
33.130,-0.041
33.135,-0.031
33.140,-0.014
33.145,-0.008
33.150,-0.021
33.155,-0.036
33.160,-0.055
33.165,-0.064
33.170,-0.063
33.175,-0.066
33.180,-0.075
33.185,-0.086
33.190,-0.082
33.195,-0.069
33.200,-0.057
33.205,-0.059
33.210,-0.063
33.215,-0.045
33.220,-0.035
33.225,-0.034
33.230,-0.031
33.235,-0.030
33.240,-0.018
33.245,-0.008
33.250,-0.010
33.255,-0.008
33.260,-0.012
33.265,-0.016
33.270,-0.009
33.275,0.006
33.280,0.021
33.285,0.028
33.290,0.029
33.295,0.023
33.300,0.015
33.305,0.007
33.310,0.005
33.315,0.006
33.320,0.006
33.325,0.005
33.330,0.003
33.335,0.005
33.340,0.002
33.345,-0.009
33.350,-0.014
33.355,-0.019
33.360,-0.030
33.365,-0.047
33.370,-0.045
33.375,-0.035
33.380,-0.028
33.385,0.001
33.390,0.022
33.395,0.022
33.400,0.013
33.405,0.007
33.410,0.013
33.415,0.019
33.420,0.028
33.425,0.046
33.430,0.052
33.435,0.044
33.440,0.035
33.445,0.032
33.450,0.031
33.455,0.030
33.460,0.038
33.465,0.049
33.470,0.043
33.475,0.026
33.480,0.019
33.485,0.020
33.490,0.017
33.495,0.014
33.500,0.006
33.505,-0.001
33.510,0.002
33.515,0.013
33.520,0.019
33.525,0.022
33.530,0.024
33.535,0.013
33.540,0.007
33.545,0.011
33.550,0.016
33.555,0.028
33.560,0.034
33.565,0.032
33.570,0.033
33.575,0.023
33.580,0.004
33.585,0.004
33.590,0.014
33.595,0.019
33.600,0.026
33.605,0.021
33.610,0.017
33.615,0.021
33.620,0.010
33.625,-0.004
33.630,0.004
33.635,0.024
33.640,0.031
33.645,0.020
33.650,0.002
33.655,-0.003
33.660,0.000
33.665,-0.001
33.670,-0.005
33.675,-0.003
33.680,0.006
33.685,0.003
33.690,-0.009
33.695,-0.004
33.700,0.006
33.705,0.027
33.710,0.039
33.715,0.020
33.720,0.019
33.725,0.017
33.730,-0.012
33.735,-0.032
33.740,-0.031
33.745,-0.033
33.750,-0.044
33.755,-0.036
33.760,-0.017
33.765,-0.014
33.770,-0.036
33.775,-0.061
33.780,-0.055
33.785,-0.050
33.790,-0.075
33.795,-0.084
33.800,-0.087
33.805,-0.116
33.810,-0.135
33.815,-0.135
33.820,-0.115
33.825,-0.082
33.830,-0.067
33.835,-0.038
33.840,0.001
33.845,0.009
33.850,0.020
33.855,0.037
33.860,0.042
33.865,0.054
33.870,0.065
33.875,0.071
33.880,0.081
33.885,0.085
33.890,0.083
33.895,0.086
33.900,0.085
33.905,0.072
33.910,0.066
33.915,0.065
33.920,0.054
33.925,0.044
33.930,0.053
33.935,0.077
33.940,0.075
33.945,0.010
33.950,-0.077
33.955,-0.151
33.960,-0.280
33.965,-0.526
33.970,-0.789
33.975,-0.901
33.980,-0.804
33.985,-0.524
33.990,-0.168
33.995,0.127
34.000,0.300
34.005,0.329
34.010,0.274
34.015,0.234
34.020,0.225
34.025,0.224
34.030,0.234
34.035,0.238
34.040,0.219
34.045,0.207
34.050,0.197
34.055,0.179
34.060,0.177
34.065,0.177
34.070,0.164
34.075,0.152
34.080,0.145
34.085,0.142
34.090,0.136
34.095,0.123
34.100,0.111
34.105,0.102
34.110,0.097
34.115,0.095
34.120,0.085
34.125,0.075
34.130,0.070
34.135,0.060
34.140,0.049
34.145,0.039
34.150,0.028
34.155,0.032
34.160,0.045
34.165,0.046
34.170,0.039
34.175,0.032
34.180,0.023
34.185,0.015
34.190,0.007
34.195,0.003
34.200,0.006
34.205,0.001
34.210,-0.010
34.215,-0.019
34.220,-0.026
34.225,-0.027
34.230,-0.027
34.235,-0.026
34.240,-0.028
34.245,-0.034
34.250,-0.036
34.255,-0.039
34.260,-0.043
34.265,-0.045
34.270,-0.047
34.275,-0.050
34.280,-0.051
34.285,-0.051
34.290,-0.053
34.295,-0.056
34.300,-0.060
34.305,-0.064
34.310,-0.072
34.315,-0.082
34.320,-0.090
34.325,-0.095
34.330,-0.098
34.335,-0.098
34.340,-0.094
34.345,-0.088
34.350,-0.080
34.355,-0.070
34.360,-0.059
34.365,-0.047
34.370,-0.036
34.375,-0.031
34.380,-0.027
34.385,-0.025
34.390,-0.022
34.395,-0.016
34.400,-0.014
34.405,-0.016
34.410,-0.017
34.415,-0.012
34.420,-0.008
34.425,-0.007
34.430,-0.007
34.435,-0.006
34.440,-0.006
34.445,-0.007
34.450,-0.007
34.455,-0.007
34.460,-0.008
34.465,-0.007
34.470,-0.007
34.475,-0.007
34.480,-0.007
34.485,-0.008
34.490,-0.009
34.495,-0.009
34.500,-0.007
34.505,-0.005
34.510,-0.005
34.515,-0.006
34.520,-0.005
34.525,-0.005
34.530,-0.005
34.535,-0.003
34.540,-0.002
34.545,-0.001
34.550,-0.001
34.555,0.001
34.560,0.003
34.565,0.005
34.570,0.006
34.575,0.006
34.580,0.007
34.585,0.009
34.590,0.011
34.595,0.012
34.600,0.012
34.605,0.011
34.610,0.013
34.615,0.014
34.620,0.017
34.625,0.017
34.630,0.017
34.635,0.019
34.640,0.021
34.645,0.023
34.650,0.022
34.655,0.018
34.660,0.015
34.665,0.016
34.670,0.015
34.675,0.015
34.680,0.016
34.685,0.016
34.690,0.014
34.695,0.012
34.700,0.011
34.705,0.012
34.710,0.013
34.715,0.015
34.720,0.014
34.725,0.007
34.730,0.005
34.735,0.005
34.740,0.006
34.745,0.009
34.750,0.008
34.755,0.007
34.760,0.009
34.765,0.012
34.770,0.013
34.775,0.012
34.780,0.007
34.785,0.005
34.790,0.005
34.795,0.002
34.800,-0.002
34.805,-0.002
34.810,-0.001
34.815,0.001
34.820,0.002
34.825,0.001
34.830,-0.001
34.835,0.000
34.840,0.003
34.845,0.003
34.850,0.001
34.855,-0.001
34.860,-0.003
34.865,-0.001
34.870,0.001
34.875,0.002
34.880,0.005
34.885,0.005
34.890,0.001
34.895,-0.007
34.900,-0.016
34.905,-0.025
34.910,-0.032
34.915,-0.040
34.920,-0.056
34.925,-0.070
34.930,-0.073
34.935,-0.078
34.940,-0.092
34.945,-0.113
34.950,-0.121
34.955,-0.102
34.960,-0.068
34.965,-0.039
34.970,-0.012
34.975,0.012
34.980,0.030
34.985,0.046
34.990,0.057
34.995,0.057
35.000,0.056
35.005,0.061
35.010,0.073
35.015,0.087
35.020,0.087
35.025,0.077
35.030,0.075
35.035,0.079
35.040,0.080
35.045,0.075
35.050,0.065
35.055,0.056
35.060,0.044
35.065,0.037
35.070,0.051
35.075,0.065
35.080,0.023
35.085,-0.063
35.090,-0.149
35.095,-0.276
35.100,-0.500
35.105,-0.756
35.110,-0.876
35.115,-0.790
35.120,-0.536
35.125,-0.192
35.130,0.101
35.135,0.283
35.140,0.330
35.145,0.273
35.150,0.239
35.155,0.241
35.160,0.240
35.165,0.245
35.170,0.240
35.175,0.219
35.180,0.212
35.185,0.209
35.190,0.201
35.195,0.197
35.200,0.191
35.205,0.174
35.210,0.159
35.215,0.151
35.220,0.138
35.225,0.125
35.230,0.121
35.235,0.120
35.240,0.115
35.245,0.108
35.250,0.102
35.255,0.094
35.260,0.085
35.265,0.080
35.270,0.077
35.275,0.069
35.280,0.054
35.285,0.045
35.290,0.041
35.295,0.037
35.300,0.033
35.305,0.027
35.310,0.018
35.315,0.009
35.320,-0.003
35.325,-0.012
35.330,-0.012
35.335,-0.015
35.340,-0.018
35.345,-0.018
35.350,-0.022
35.355,-0.024
35.360,-0.025
35.365,-0.027
35.370,-0.032
35.375,-0.040
35.380,-0.050
35.385,-0.053
35.390,-0.051
35.395,-0.053
35.400,-0.059
35.405,-0.063
35.410,-0.063
35.415,-0.062
35.420,-0.061
35.425,-0.063
35.430,-0.068
35.435,-0.074
35.440,-0.077
35.445,-0.076
35.450,-0.076
35.455,-0.082
35.460,-0.089
35.465,-0.091
35.470,-0.089
35.475,-0.082
35.480,-0.071
35.485,-0.059
35.490,-0.055
35.495,-0.055
35.500,-0.045
35.505,-0.031
35.510,-0.022
35.515,-0.014
35.520,-0.007
35.525,-0.004
35.530,0.003
35.535,0.009
35.540,0.006
35.545,0.003
35.550,0.006
35.555,0.012
35.560,0.015
35.565,0.015
35.570,0.014
35.575,0.016
35.580,0.017
35.585,0.006
35.590,-0.005
35.595,-0.005
35.600,-0.001
35.605,0.001
35.610,-0.008
35.615,-0.019
35.620,-0.023
35.625,-0.014
35.630,-0.002
35.635,0.005
35.640,0.006
35.645,0.000
35.650,-0.011
35.655,-0.019
35.660,-0.019
35.665,-0.012
35.670,0.001
35.675,0.011
35.680,0.007
35.685,0.002
35.690,0.002
35.695,0.001
35.700,0.003
35.705,0.012
35.710,0.018
35.715,0.018
35.720,0.011
35.725,0.006
35.730,0.011
35.735,0.014
35.740,0.014
35.745,0.015
35.750,0.019
35.755,0.022
35.760,0.019
35.765,0.017
35.770,0.019
35.775,0.021
35.780,0.024
35.785,0.022
35.790,0.017
35.795,0.016
35.800,0.017
35.805,0.017
35.810,0.017
35.815,0.016
35.820,0.016
35.825,0.019
35.830,0.017
35.835,0.009
35.840,0.000
35.845,0.001
35.850,0.012
35.855,0.021
35.860,0.017
35.865,0.007
35.870,0.006
35.875,0.010
35.880,0.004
35.885,-0.006
35.890,-0.002
35.895,0.010
35.900,0.012
35.905,0.007
35.910,0.005
35.915,0.007
35.920,0.010
35.925,0.004
35.930,-0.002
35.935,-0.008
35.940,-0.014
35.945,-0.010
35.950,0.008
35.955,0.020
35.960,0.017
35.965,0.008
35.970,-0.005
35.975,-0.010
35.980,-0.008
35.985,-0.001
35.990,0.008
35.995,0.003
36.000,-0.012
36.005,-0.016
36.010,-0.004
36.015,0.002
36.020,-0.001
36.025,-0.005
36.030,-0.013
36.035,-0.018
36.040,-0.024
36.045,-0.034
36.050,-0.039
36.055,-0.050
36.060,-0.068
36.065,-0.076
36.070,-0.084
36.075,-0.104
36.080,-0.124
36.085,-0.129
36.090,-0.114
36.095,-0.086
36.100,-0.060
36.105,-0.029
36.110,0.000
36.115,0.017
36.120,0.031
36.125,0.043
36.130,0.051
36.135,0.053
36.140,0.055
36.145,0.071
36.150,0.085
36.155,0.080
36.160,0.072
36.165,0.073
36.170,0.076
36.175,0.070
36.180,0.058
36.185,0.054
36.190,0.059
36.195,0.064
36.200,0.069
36.205,0.075
36.210,0.045
36.215,-0.028
36.220,-0.106
36.225,-0.195
36.230,-0.361
36.235,-0.615
36.240,-0.845
36.245,-0.902
36.250,-0.736
36.255,-0.415
36.260,-0.072
36.265,0.184
36.270,0.306
36.275,0.308
36.280,0.262
36.285,0.238
36.290,0.239
36.295,0.242
36.300,0.236
36.305,0.213
36.310,0.196
36.315,0.209
36.320,0.213
36.325,0.198
36.330,0.192
36.335,0.188
36.340,0.180
36.345,0.169
36.350,0.151
36.355,0.139
36.360,0.136
36.365,0.134
36.370,0.132
36.375,0.125
36.380,0.115
36.385,0.108
36.390,0.098
36.395,0.084
36.400,0.073
36.405,0.065
36.410,0.056
36.415,0.050
36.420,0.049
36.425,0.052
36.430,0.051
36.435,0.046
36.440,0.037
36.445,0.024
36.450,0.014
36.455,0.007
36.460,0.004
36.465,-0.002
36.470,-0.011
36.475,-0.017
36.480,-0.023
36.485,-0.028
36.490,-0.032
36.495,-0.036
36.500,-0.037
36.505,-0.040
36.510,-0.044
36.515,-0.045
36.520,-0.049
36.525,-0.052
36.530,-0.052
36.535,-0.056
36.540,-0.061
36.545,-0.059
36.550,-0.054
36.555,-0.052
36.560,-0.059
36.565,-0.063
36.570,-0.065
36.575,-0.073
36.580,-0.085
36.585,-0.091
36.590,-0.093
36.595,-0.098
36.600,-0.105
36.605,-0.099
36.610,-0.084
36.615,-0.075
36.620,-0.068
36.625,-0.059
36.630,-0.050
36.635,-0.046
36.640,-0.041
36.645,-0.029
36.650,-0.018
36.655,-0.011
36.660,-0.003
36.665,0.002
36.670,0.005
36.675,0.005
36.680,0.004
36.685,0.003
36.690,-0.004
36.695,-0.009
36.700,-0.005
36.705,0.001
36.710,0.005
36.715,0.005
36.720,0.003
36.725,0.001
36.730,0.000
36.735,0.000
36.740,-0.002
36.745,-0.006
36.750,-0.008
36.755,-0.006
36.760,-0.002
36.765,-0.001
36.770,-0.001
36.775,-0.001
36.780,-0.003
36.785,-0.003
36.790,0.002
36.795,0.002
36.800,0.002
36.805,0.002
36.810,0.000
36.815,0.007
36.820,0.010
36.825,0.009
36.830,0.011
36.835,0.016
36.840,0.020
36.845,0.021
36.850,0.020
36.855,0.018
36.860,0.016
36.865,0.019
36.870,0.023
36.875,0.022
36.880,0.021
36.885,0.021
36.890,0.023
36.895,0.024
36.900,0.019
36.905,0.014
36.910,0.012
36.915,0.014
36.920,0.019
36.925,0.022
36.930,0.019
36.935,0.016
36.940,0.016
36.945,0.018
36.950,0.018
36.955,0.016
36.960,0.015
36.965,0.012
36.970,0.008
36.975,0.008
36.980,0.013
36.985,0.015
36.990,0.016
36.995,0.016
37.000,0.013
37.005,0.011
37.010,0.010
37.015,0.010
37.020,0.011
37.025,0.007
37.030,0.003
37.035,0.004
37.040,0.007
37.045,0.013
37.050,0.018
37.055,0.014
37.060,0.006
37.065,0.000
37.070,0.002
37.075,0.003
37.080,0.002
37.085,0.001
37.090,0.002
37.095,0.005
37.100,0.007
37.105,0.005
37.110,0.002
37.115,0.000
37.120,-0.003
37.125,-0.006
37.130,-0.008
37.135,-0.008
37.140,-0.009
37.145,-0.011
37.150,-0.013
37.155,-0.011
37.160,-0.008
37.165,-0.013
37.170,-0.024
37.175,-0.036
37.180,-0.046
37.185,-0.058
37.190,-0.072
37.195,-0.081
37.200,-0.091
37.205,-0.109
37.210,-0.130
37.215,-0.136
37.220,-0.114
37.225,-0.077
37.230,-0.056
37.235,-0.038
37.240,-0.010
37.245,0.012
37.250,0.029
37.255,0.043
37.260,0.044
37.265,0.046
37.270,0.055
37.275,0.065
37.280,0.077
37.285,0.081
37.290,0.075
37.295,0.075
37.300,0.076
37.305,0.071
37.310,0.068
37.315,0.067
37.320,0.057
37.325,0.046
37.330,0.048
37.335,0.069
37.340,0.075
37.345,0.018
37.350,-0.076
37.355,-0.165
37.360,-0.298
37.365,-0.531
37.370,-0.789
37.375,-0.908
37.380,-0.818
37.385,-0.547
37.390,-0.183
37.395,0.122
37.400,0.297
37.405,0.330
37.410,0.273
37.415,0.239
37.420,0.235
37.425,0.230
37.430,0.234
37.435,0.234
37.440,0.220
37.445,0.216
37.450,0.213
37.455,0.199
37.460,0.190
37.465,0.186
37.470,0.173
37.475,0.159
37.480,0.152
37.485,0.146
37.490,0.140
37.495,0.135
37.500,0.126
37.505,0.115
37.510,0.105
37.515,0.099
37.520,0.093
37.525,0.086
37.530,0.078
37.535,0.072
37.540,0.069
37.545,0.065
37.550,0.058
37.555,0.048
37.560,0.041
37.565,0.037
37.570,0.031
37.575,0.025
37.580,0.018
37.585,0.011
37.590,0.004
37.595,-0.002
37.600,-0.006
37.605,-0.009
37.610,-0.014
37.615,-0.020
37.620,-0.024
37.625,-0.027
37.630,-0.031
37.635,-0.037
37.640,-0.042
37.645,-0.045
37.650,-0.045
37.655,-0.044
37.660,-0.047
37.665,-0.051
37.670,-0.054
37.675,-0.054
37.680,-0.054
37.685,-0.055
37.690,-0.058
37.695,-0.062
37.700,-0.066
37.705,-0.070
37.710,-0.076
37.715,-0.081
37.720,-0.083
37.725,-0.082
37.730,-0.083
37.735,-0.082
37.740,-0.079
37.745,-0.072
37.750,-0.063
37.755,-0.057
37.760,-0.049
37.765,-0.038
37.770,-0.030
37.775,-0.023
37.780,-0.012
37.785,-0.002
37.790,0.002
37.795,0.004
37.800,0.004
37.805,0.006
37.810,0.010
37.815,0.008
37.820,0.006
37.825,0.004
37.830,0.003
37.835,0.003
37.840,0.004
37.845,0.005
37.850,0.003
37.855,0.001
37.860,0.002
37.865,0.003
37.870,0.004
37.875,0.001
37.880,-0.001
37.885,0.001
37.890,0.002
37.895,0.000
37.900,-0.002
37.905,-0.003
37.910,-0.003
37.915,-0.003
37.920,-0.004
37.925,-0.005
37.930,-0.005
37.935,-0.003
37.940,-0.002
37.945,-0.003
37.950,-0.002
37.955,-0.001
37.960,0.001
37.965,0.001
37.970,0.002
37.975,0.006
37.980,0.008
37.985,0.010
37.990,0.009
37.995,0.006
38.000,0.008
38.005,0.010
38.010,0.010
38.015,0.008
38.020,0.009
38.025,0.013
38.030,0.019
38.035,0.023
38.040,0.023
38.045,0.020
38.050,0.017
38.055,0.015
38.060,0.014
38.065,0.016
38.070,0.016
38.075,0.014
38.080,0.014
38.085,0.014
38.090,0.015
38.095,0.016
38.100,0.015
38.105,0.012
38.110,0.011
38.115,0.009
38.120,0.007
38.125,0.007
38.130,0.006
38.135,0.005
38.140,0.003
38.145,0.003
38.150,0.002
38.155,0.000
38.160,0.001
38.165,0.003
38.170,0.005
38.175,0.002
38.180,-0.003
38.185,-0.004
38.190,-0.002
38.195,-0.003
38.200,-0.002
38.205,0.002
38.210,0.001
38.215,-0.002
38.220,-0.004
38.225,0.001
38.230,0.009
38.235,0.011
38.240,0.009
38.245,0.007
38.250,0.006
38.255,0.006
38.260,0.005
38.265,0.004
38.270,0.004
38.275,0.003
38.280,0.001
38.285,-0.002
38.290,-0.008
38.295,-0.015
38.300,-0.024
38.305,-0.032
38.310,-0.038
38.315,-0.050
38.320,-0.066
38.325,-0.075
38.330,-0.084
38.335,-0.099
38.340,-0.120
38.345,-0.134
38.350,-0.125
38.355,-0.100
38.360,-0.079
38.365,-0.054
38.370,-0.018
38.375,0.014
38.380,0.035
38.385,0.049
38.390,0.055
38.395,0.056
38.400,0.061
38.405,0.071
38.410,0.085
38.415,0.095
38.420,0.094
38.425,0.088
38.430,0.083
38.435,0.076
38.440,0.070
38.445,0.066
38.450,0.062
38.455,0.057
38.460,0.055
38.465,0.067
38.470,0.082
38.475,0.044
38.480,-0.044
38.485,-0.131
38.490,-0.243
38.495,-0.449
38.500,-0.714
38.505,-0.875
38.510,-0.831
38.515,-0.605
38.520,-0.265
38.525,0.052
38.530,0.260
38.535,0.331
38.540,0.286
38.545,0.239
38.550,0.236
38.555,0.233
38.560,0.233
38.565,0.232
38.570,0.217
38.575,0.211
38.580,0.213
38.585,0.205
38.590,0.194
38.595,0.185
38.600,0.173
38.605,0.162
38.610,0.157
38.615,0.147
38.620,0.132
38.625,0.123
38.630,0.120
38.635,0.114
38.640,0.108
38.645,0.106
38.650,0.100
38.655,0.088
38.660,0.076
38.665,0.066
38.670,0.062
38.675,0.060
38.680,0.053
38.685,0.043
38.690,0.035
38.695,0.031
38.700,0.026
38.705,0.018
38.710,0.012
38.715,0.006
38.720,0.001
38.725,-0.004
38.730,-0.012
38.735,-0.018
38.740,-0.023
38.745,-0.025
38.750,-0.028
38.755,-0.036
38.760,-0.040
38.765,-0.037
38.770,-0.035
38.775,-0.043
38.780,-0.056
38.785,-0.063
38.790,-0.061
38.795,-0.056
38.800,-0.052
38.805,-0.050
38.810,-0.054
38.815,-0.061
38.820,-0.064
38.825,-0.062
38.830,-0.059
38.835,-0.062
38.840,-0.071
38.845,-0.080
38.850,-0.089
38.855,-0.097
38.860,-0.101
38.865,-0.095
38.870,-0.082
38.875,-0.068
38.880,-0.061
38.885,-0.059
38.890,-0.049
38.895,-0.032
38.900,-0.022
38.905,-0.020
38.910,-0.016
38.915,-0.006
38.920,0.005
38.925,0.008
38.930,0.005
38.935,0.000
38.940,0.000
38.945,0.002
38.950,0.005
38.955,0.006
38.960,0.004
38.965,0.007
38.970,0.012
38.975,0.011
38.980,0.004
38.985,0.001
38.990,0.000
38.995,-0.002
39.000,-0.002
39.005,0.002
39.010,0.002
39.015,0.001
39.020,0.001
39.025,0.000
39.030,-0.003
39.035,-0.005
39.040,-0.007
39.045,-0.010
39.050,-0.008
39.055,-0.002
39.060,0.003
39.065,0.005
39.070,0.005
39.075,0.007
39.080,0.004
39.085,0.001
39.090,0.006
39.095,0.008
39.100,0.006
39.105,0.004
39.110,0.002
39.115,0.003
39.120,0.011
39.125,0.021
39.130,0.026
39.135,0.021
39.140,0.010
39.145,0.007
39.150,0.016
39.155,0.025
39.160,0.026
39.165,0.023
39.170,0.018
39.175,0.020
39.180,0.025
39.185,0.022
39.190,0.010
39.195,-0.001
39.200,-0.004
39.205,-0.003
39.210,0.005
39.215,0.013
39.220,0.015
39.225,0.018
39.230,0.022
39.235,0.022
39.240,0.018
39.245,0.008
39.250,0.002
39.255,0.003
39.260,0.006
39.265,0.008
39.270,0.012
39.275,0.013
39.280,0.004
39.285,-0.004
39.290,-0.004
39.295,-0.003
39.300,-0.003
39.305,-0.002
39.310,-0.002
39.315,0.003
39.320,0.007
39.325,0.000
39.330,-0.007
39.335,-0.005
39.340,-0.001
39.345,0.002
39.350,0.001
39.355,-0.003
39.360,-0.002
39.365,-0.001
39.370,-0.004
39.375,-0.003
39.380,0.000
39.385,0.002
39.390,0.001
39.395,-0.002
39.400,-0.007
39.405,-0.011
39.410,-0.008
39.415,-0.001
39.420,-0.002
39.425,-0.013
39.430,-0.028
39.435,-0.034
39.440,-0.035
39.445,-0.032
39.450,-0.024
39.455,-0.032
39.460,-0.048
39.465,-0.066
39.470,-0.091
39.475,-0.114
39.480,-0.130
39.485,-0.131
39.490,-0.112
39.495,-0.090
39.500,-0.069
39.505,-0.035
39.510,-0.002
39.515,0.016
39.520,0.030
39.525,0.043
39.530,0.048
39.535,0.059
39.540,0.069
39.545,0.076
39.550,0.085
39.555,0.081
39.560,0.071
39.565,0.064
39.570,0.062
39.575,0.063
39.580,0.063
39.585,0.064
39.590,0.068
39.595,0.072
39.600,0.072
39.605,0.073
39.610,0.053
39.615,-0.015
39.620,-0.093
39.625,-0.168
39.630,-0.317
39.635,-0.577
39.640,-0.836
39.645,-0.927
39.650,-0.787
39.655,-0.478
39.660,-0.125
39.665,0.157
39.670,0.310
39.675,0.322
39.680,0.271
39.685,0.245
39.690,0.245
39.695,0.248
39.700,0.241
39.705,0.221
39.710,0.212
39.715,0.221
39.720,0.218
39.725,0.201
39.730,0.190
39.735,0.183
39.740,0.167
39.745,0.153
39.750,0.152
39.755,0.150
39.760,0.141
39.765,0.133
39.770,0.123
39.775,0.113
39.780,0.102
39.785,0.093
39.790,0.092
39.795,0.090
39.800,0.081
39.805,0.070
39.810,0.056
39.815,0.048
39.820,0.048
39.825,0.053
39.830,0.059
39.835,0.051
39.840,0.029
39.845,0.013
39.850,0.004
39.855,0.004
39.860,0.010
39.865,0.010
39.870,0.007
39.875,0.001
39.880,-0.007
39.885,-0.008
39.890,-0.010
39.895,-0.018
39.900,-0.031
39.905,-0.042
39.910,-0.044
39.915,-0.043
39.920,-0.042
39.925,-0.047
39.930,-0.057
39.935,-0.062
39.940,-0.063
39.945,-0.059
39.950,-0.052
39.955,-0.049
39.960,-0.054
39.965,-0.062
39.970,-0.071
39.975,-0.079
39.980,-0.086
39.985,-0.092
39.990,-0.094
39.995,-0.096
40.000,-0.099
40.005,-0.097
40.010,-0.091
40.015,-0.079
40.020,-0.067
40.025,-0.060
40.030,-0.051
40.035,-0.041
40.040,-0.035
40.045,-0.026
40.050,-0.019
40.055,-0.017
40.060,-0.014
40.065,-0.006
40.070,0.002
40.075,0.008
40.080,0.010
40.085,0.008
40.090,0.007
40.095,0.005
40.100,0.001
40.105,0.000
40.110,0.001
40.115,0.002
40.120,-0.001
40.125,-0.006
40.130,-0.006
40.135,-0.001
40.140,0.002
40.145,-0.001
40.150,-0.006
40.155,-0.010
40.160,-0.008
40.165,-0.007
40.170,-0.005
40.175,0.000
40.180,0.004
40.185,0.004
40.190,-0.004
40.195,-0.011
40.200,-0.007
40.205,0.000
40.210,0.004
40.215,0.007
40.220,0.007
40.225,0.007
40.230,0.007
40.235,0.009
40.240,0.013
40.245,0.015
40.250,0.014
40.255,0.015
40.260,0.019
40.265,0.018
40.270,0.014
40.275,0.012
40.280,0.013
40.285,0.013
40.290,0.010
40.295,0.006
40.300,0.012
40.305,0.020
40.310,0.024
40.315,0.030
40.320,0.030
40.325,0.025
40.330,0.019
40.335,0.012
40.340,0.016
40.345,0.021
40.350,0.021
40.355,0.022
40.360,0.022
40.365,0.018
40.370,0.016
40.375,0.017
40.380,0.018
40.385,0.015
40.390,0.012
40.395,0.011
40.400,0.012
40.405,0.011
40.410,0.007
40.415,0.003
40.420,0.002
40.425,0.004
40.430,0.004
40.435,0.005
40.440,0.007
40.445,0.006
40.450,0.003
40.455,-0.001
40.460,-0.003
40.465,-0.002
40.470,0.000
40.475,0.000
40.480,0.000
40.485,0.000
40.490,-0.003
40.495,0.000
40.500,0.006
40.505,0.003
40.510,-0.001
40.515,-0.001
40.520,0.002
40.525,0.005
40.530,0.002
40.535,-0.003
40.540,-0.004
40.545,-0.011
40.550,-0.017
40.555,-0.022
40.560,-0.029
40.565,-0.033
40.570,-0.042
40.575,-0.057
40.580,-0.070
40.585,-0.080
40.590,-0.093
40.595,-0.110
40.600,-0.119
40.605,-0.117
40.610,-0.100
40.615,-0.076
40.620,-0.052
40.625,-0.017
40.630,0.014
40.635,0.031
40.640,0.045
40.645,0.053
40.650,0.052
40.655,0.056
40.660,0.066
40.665,0.077
40.670,0.081
40.675,0.082
40.680,0.082
40.685,0.085
40.690,0.082
40.695,0.072
40.700,0.067
40.705,0.061
40.710,0.050
40.715,0.046
40.720,0.061
40.725,0.076
40.730,0.044
40.735,-0.041
40.740,-0.131
40.745,-0.235
40.750,-0.425
40.755,-0.689
40.760,-0.883
40.765,-0.886
40.770,-0.685
40.775,-0.341
40.780,0.007
40.785,0.244
40.790,0.330
40.795,0.298
40.800,0.248
40.805,0.237
40.810,0.234
40.815,0.230
40.820,0.235
40.825,0.229
40.830,0.217
40.835,0.215
40.840,0.209
40.845,0.199
40.850,0.194
40.855,0.186
40.860,0.175
40.865,0.166
40.870,0.155
40.875,0.139
40.880,0.127
40.885,0.123
40.890,0.119
40.895,0.115
40.900,0.111
40.905,0.102
40.910,0.091
40.915,0.083
40.920,0.076
40.925,0.069
40.930,0.067
40.935,0.065
40.940,0.058
40.945,0.051
40.950,0.044
40.955,0.036
40.960,0.026
40.965,0.018
40.970,0.012
40.975,0.005
40.980,0.000
40.985,-0.007
40.990,-0.013
40.995,-0.019
41.000,-0.027
41.005,-0.029
41.010,-0.030
41.015,-0.033
41.020,-0.036
41.025,-0.041
41.030,-0.045
41.035,-0.051
41.040,-0.058
41.045,-0.058
41.050,-0.055
41.055,-0.052
41.060,-0.052
41.065,-0.056
41.070,-0.062
41.075,-0.067
41.080,-0.067
41.085,-0.064
41.090,-0.066
41.095,-0.075
41.100,-0.084
41.105,-0.088
41.110,-0.089
41.115,-0.089
41.120,-0.084
41.125,-0.079
41.130,-0.073
41.135,-0.066
41.140,-0.059
41.145,-0.050
41.150,-0.036
41.155,-0.025
41.160,-0.017
41.165,-0.013
41.170,-0.010
41.175,-0.003
41.180,0.005
41.185,0.010
41.190,0.012
41.195,0.010
41.200,0.006
41.205,0.003
41.210,0.001
41.215,0.000
41.220,0.003
41.225,0.005
41.230,0.002
41.235,0.003
41.240,0.010
41.245,0.017
41.250,0.023
41.255,0.022
41.260,0.013
41.265,0.007
41.270,0.005
41.275,0.005
41.280,0.007
41.285,-0.001
41.290,-0.008
41.295,-0.004
41.300,0.000
41.305,0.004
41.310,0.006
41.315,0.000
41.320,-0.005
41.325,-0.003
41.330,-0.001
41.335,0.003
41.340,0.003
41.345,0.002
41.350,0.004
41.355,0.001
41.360,0.000
41.365,0.001
41.370,0.003
41.375,0.003
41.380,0.006
41.385,0.011
41.390,0.010
41.395,0.011
41.400,0.012
41.405,0.013
41.410,0.014
41.415,0.013
41.420,0.011
41.425,0.008
41.430,0.012
41.435,0.018
41.440,0.020
41.445,0.018
41.450,0.017
41.455,0.021
41.460,0.019
41.465,0.011
41.470,0.010
41.475,0.011
41.480,0.017
41.485,0.018
41.490,0.011
41.495,0.008
41.500,0.008
41.505,0.012
41.510,0.012
41.515,0.007
41.520,0.012
41.525,0.014
41.530,0.010
41.535,0.007
41.540,0.009
41.545,0.013
41.550,0.008
41.555,-0.002
41.560,-0.004
41.565,0.000
41.570,0.004
41.575,0.001
41.580,-0.001
41.585,0.002
41.590,0.002
41.595,0.002
41.600,-0.002
41.605,-0.007
41.610,-0.003
41.615,-0.004
41.620,-0.009
41.625,-0.013
41.630,-0.014
41.635,-0.015
41.640,-0.022
41.645,-0.028
41.650,-0.036
41.655,-0.041
41.660,-0.044
41.665,-0.055
41.670,-0.072
41.675,-0.087
41.680,-0.098
41.685,-0.110
41.690,-0.123
41.695,-0.130
41.700,-0.110
41.705,-0.081
41.710,-0.064
41.715,-0.039
41.720,-0.010
41.725,0.010
41.730,0.016
41.735,0.025
41.740,0.046
41.745,0.061
41.750,0.067
41.755,0.078
41.760,0.094
41.765,0.101
41.770,0.093
41.775,0.078
41.780,0.069
41.785,0.073
41.790,0.081
41.795,0.082
41.800,0.076
41.805,0.066
41.810,0.068
41.815,0.083
41.820,0.063
41.825,-0.016
41.830,-0.110
41.835,-0.217
41.840,-0.399
41.845,-0.662
41.850,-0.871
41.855,-0.892
41.860,-0.711
41.865,-0.381
41.870,-0.029
41.875,0.220
41.880,0.332
41.885,0.309
41.890,0.242
41.895,0.231
41.900,0.236
41.905,0.235
41.910,0.238
41.915,0.226
41.920,0.219
41.925,0.223
41.930,0.208
41.935,0.189
41.940,0.185
41.945,0.186
41.950,0.178
41.955,0.161
41.960,0.146
41.965,0.134
41.970,0.130
41.975,0.128
41.980,0.118
41.985,0.107
41.990,0.102
41.995,0.094
42.000,0.087
42.005,0.085
42.010,0.081
42.015,0.066
42.020,0.053
42.025,0.050
42.030,0.043
42.035,0.033
42.040,0.026
42.045,0.024
42.050,0.026
42.055,0.019
42.060,0.007
42.065,0.004
42.070,0.000
42.075,-0.009
42.080,-0.016
42.085,-0.018
42.090,-0.021
42.095,-0.031
42.100,-0.038
42.105,-0.038
42.110,-0.040
42.115,-0.042
42.120,-0.049
42.125,-0.057
42.130,-0.058
42.135,-0.060
42.140,-0.062
42.145,-0.061
42.150,-0.067
42.155,-0.075
42.160,-0.073
42.165,-0.070
42.170,-0.070
42.175,-0.066
42.180,-0.066
42.185,-0.073
42.190,-0.076
42.195,-0.082
42.200,-0.091
42.205,-0.090
42.210,-0.090
42.215,-0.087
42.220,-0.075
42.225,-0.065
42.230,-0.051
42.235,-0.040
42.240,-0.036
42.245,-0.026
42.250,-0.017
42.255,-0.007
42.260,-0.002
42.265,0.000
42.270,0.004
42.275,0.003
42.280,0.006
42.285,0.012
42.290,0.013
42.295,0.012
42.300,0.012
42.305,0.010
42.310,0.005
42.315,0.007
42.320,0.012
42.325,0.015
42.330,0.011
42.335,0.000
42.340,-0.002
42.345,0.004
42.350,0.009
42.355,0.013
42.360,0.010
42.365,0.007
42.370,0.009
42.375,0.006
42.380,0.000
42.385,-0.001
42.390,-0.004
42.395,-0.008
42.400,-0.008
42.405,-0.003
42.410,0.002
42.415,0.005
42.420,0.007
42.425,0.007
42.430,0.009
42.435,0.011
42.440,0.009
42.445,0.004
42.450,-0.001
42.455,-0.002
42.460,0.004
42.465,0.009
42.470,0.017
42.475,0.026
42.480,0.029
42.485,0.028
42.490,0.025
42.495,0.024
42.500,0.024
42.505,0.022
42.510,0.019
42.515,0.016
42.520,0.017
42.525,0.019
42.530,0.022
42.535,0.023
42.540,0.020
42.545,0.017
42.550,0.018
42.555,0.019
42.560,0.017
42.565,0.014
42.570,0.013
42.575,0.013
42.580,0.011
42.585,0.010
42.590,0.010
42.595,0.008
42.600,0.007
42.605,0.005
42.610,0.003
42.615,0.000
42.620,-0.002
42.625,-0.001
42.630,0.003
42.635,0.003
42.640,0.001
42.645,-0.003
42.650,-0.004
42.655,-0.001
42.660,0.001
42.665,0.001
42.670,-0.002
42.675,-0.008
42.680,-0.015
42.685,-0.024
42.690,-0.032
42.695,-0.037
42.700,-0.040
42.705,-0.051
42.710,-0.070
42.715,-0.079
42.720,-0.088
42.725,-0.099
42.730,-0.109
42.735,-0.118
42.740,-0.108
42.745,-0.084
42.750,-0.063
42.755,-0.037
42.760,-0.008
42.765,0.014
42.770,0.032
42.775,0.046
42.780,0.053
42.785,0.056
42.790,0.058
42.795,0.065
42.800,0.077
42.805,0.082
42.810,0.077
42.815,0.073
42.820,0.071
42.825,0.064
42.830,0.056
42.835,0.056
42.840,0.053
42.845,0.041
42.850,0.037
42.855,0.057
42.860,0.069
42.865,0.022
42.870,-0.068
42.875,-0.146
42.880,-0.258
42.885,-0.476
42.890,-0.743
42.895,-0.882
42.900,-0.814
42.905,-0.572
42.910,-0.231
42.915,0.072
42.920,0.268
42.925,0.328
42.930,0.279
42.935,0.238
42.940,0.232
42.945,0.224
42.950,0.222
42.955,0.219
42.960,0.207
42.965,0.207
42.970,0.210
42.975,0.200
42.980,0.191
42.985,0.186
42.990,0.176
42.995,0.161
43.000,0.152
43.005,0.139
43.010,0.124
43.015,0.119
43.020,0.121
43.025,0.120
43.030,0.113
43.035,0.098
43.040,0.082
43.045,0.073
43.050,0.072
43.055,0.071
43.060,0.065
43.065,0.059
43.070,0.054
43.075,0.052
43.080,0.051
43.085,0.037
43.090,0.020
43.095,0.017
43.100,0.023
43.105,0.025
43.110,0.013
43.115,-0.007
43.120,-0.017
43.125,-0.015
43.130,-0.007
43.135,-0.007
43.140,-0.020
43.145,-0.032
43.150,-0.034
43.155,-0.028
43.160,-0.029
43.165,-0.035
43.170,-0.045
43.175,-0.056
43.180,-0.054
43.185,-0.050
43.190,-0.056
43.195,-0.069
43.200,-0.076
43.205,-0.062
43.210,-0.048
43.215,-0.052
43.220,-0.062
43.225,-0.076
43.230,-0.088
43.235,-0.095
43.240,-0.098
43.245,-0.091
43.250,-0.078
43.255,-0.068
43.260,-0.067
43.265,-0.068
43.270,-0.066
43.275,-0.055
43.280,-0.038
43.285,-0.028
43.290,-0.026
43.295,-0.025
43.300,-0.016
43.305,-0.009
43.310,-0.006
43.315,0.004
43.320,0.012
43.325,0.011
43.330,0.012
43.335,0.013
43.340,0.011
43.345,0.012
43.350,0.013
43.355,0.015
43.360,0.006
43.365,-0.015
43.370,-0.011
43.375,0.016
43.380,0.023
43.385,0.008
43.390,-0.003
43.395,0.003
43.400,0.002
43.405,-0.010
43.410,-0.014
43.415,-0.009
43.420,0.000
43.425,0.002
43.430,-0.002
43.435,0.000
43.440,-0.002
43.445,-0.010
43.450,-0.011
43.455,-0.003
43.460,-0.001
43.465,0.000
43.470,0.009
43.475,0.009
43.480,-0.007
43.485,-0.021
43.490,-0.016
43.495,0.009
43.500,0.025
43.505,0.023
43.510,0.014
43.515,0.011
43.520,0.007
43.525,-0.002
43.530,0.006
43.535,0.022
43.540,0.026
43.545,0.018
43.550,0.008
43.555,0.010
43.560,0.016
43.565,0.012
43.570,0.009
43.575,0.010
43.580,0.008
43.585,0.006
43.590,0.012
43.595,0.018
43.600,0.012
43.605,0.006
43.610,0.017
43.615,0.026
43.620,0.010
43.625,-0.012
43.630,-0.007
43.635,0.013
43.640,0.019
43.645,0.014
43.650,0.003
43.655,0.000
43.660,0.004
43.665,0.005
43.670,0.006
43.675,0.001
43.680,0.007
43.685,0.008
43.690,-0.007
43.695,-0.015
43.700,-0.007
43.705,0.004
43.710,0.004
43.715,0.001
43.720,0.005
43.725,-0.001
43.730,-0.010
43.735,0.001
43.740,0.011
43.745,0.002
43.750,-0.011
43.755,-0.021
43.760,-0.019
43.765,-0.021
43.770,-0.049
43.775,-0.078
43.780,-0.083
43.785,-0.079
43.790,-0.085
43.795,-0.110
43.800,-0.131
43.805,-0.113
43.810,-0.081
43.815,-0.064
43.820,-0.045
43.825,-0.016
43.830,0.022
43.835,0.050
43.840,0.065
43.845,0.061
43.850,0.047
43.855,0.049
43.860,0.065
43.865,0.082
43.870,0.085
43.875,0.076
43.880,0.070
43.885,0.065
43.890,0.058
43.895,0.055
43.900,0.056
43.905,0.060
43.910,0.062
43.915,0.063
43.920,0.072
43.925,0.052
43.930,-0.020
43.935,-0.099
43.940,-0.196
43.945,-0.371
43.950,-0.633
43.955,-0.863
43.960,-0.914
43.965,-0.744
43.970,-0.415
43.975,-0.073
43.980,0.178
43.985,0.303
43.990,0.298
43.995,0.247
44.000,0.226
44.005,0.227
44.010,0.229
44.015,0.231
44.020,0.226
44.025,0.223
44.030,0.217
44.035,0.212
44.040,0.213
44.045,0.206
44.050,0.195
44.055,0.181
44.060,0.167
44.065,0.162
44.070,0.152
44.075,0.142
44.080,0.147
44.085,0.146
44.090,0.132
44.095,0.124
44.100,0.103
44.105,0.082
44.110,0.075
44.115,0.066
44.120,0.070
44.125,0.085
44.130,0.082
44.135,0.070
44.140,0.054
44.145,0.045
44.150,0.040
44.155,0.034
44.160,0.033
44.165,0.025
44.170,0.004
44.175,-0.012
44.180,-0.009
44.185,0.000
44.190,0.003
44.195,0.000
44.200,-0.012
44.205,-0.024
44.210,-0.041
44.215,-0.053
44.220,-0.048
44.225,-0.039
44.230,-0.033
44.235,-0.029
44.240,-0.024
44.245,-0.027
44.250,-0.039
44.255,-0.053
44.260,-0.055
44.265,-0.044
44.270,-0.034
44.275,-0.037
44.280,-0.047
44.285,-0.054
44.290,-0.063
44.295,-0.082
44.300,-0.104
44.305,-0.108
44.310,-0.095
44.315,-0.081
44.320,-0.077
44.325,-0.082
44.330,-0.080
44.335,-0.069
44.340,-0.054
44.345,-0.038
44.350,-0.032
44.355,-0.037
44.360,-0.036
44.365,-0.023
44.370,-0.007
44.375,-0.003
44.380,-0.009
44.385,-0.008
44.390,0.000
44.395,0.003
44.400,0.002
44.405,-0.001
44.410,-0.003
44.415,0.001
44.420,0.003
44.425,0.001
44.430,-0.001
44.435,-0.002
44.440,-0.003
44.445,-0.003
44.450,-0.005
44.455,-0.006
44.460,-0.005
44.465,-0.004
44.470,-0.007
44.475,-0.010
44.480,-0.012
44.485,-0.010
44.490,-0.005
44.495,-0.005
44.500,-0.005
44.505,-0.004
44.510,-0.002
44.515,-0.003
44.520,-0.005
44.525,-0.005
44.530,-0.004
44.535,-0.003
44.540,0.002
44.545,0.009
44.550,0.013
44.555,0.012
44.560,0.011
44.565,0.010
44.570,0.011
44.575,0.013
44.580,0.011
44.585,0.011
44.590,0.016
44.595,0.023
44.600,0.028
44.605,0.028
44.610,0.023
44.615,0.019
44.620,0.018
44.625,0.020
44.630,0.022
44.635,0.021
44.640,0.016
44.645,0.011
44.650,0.013
44.655,0.016
44.660,0.015
44.665,0.015
44.670,0.014
44.675,0.012
44.680,0.012
44.685,0.012
44.690,0.012
44.695,0.010
44.700,0.010
44.705,0.013
44.710,0.018
44.715,0.018
44.720,0.012
44.725,0.007
44.730,0.008
44.735,0.015
44.740,0.017
44.745,0.012
44.750,0.007
44.755,0.004
44.760,0.005
44.765,0.003
44.770,0.001
44.775,0.002
44.780,0.003
44.785,0.001
44.790,-0.001
44.795,-0.001
44.800,-0.001
44.805,-0.004
44.810,-0.008
44.815,-0.014
44.820,-0.023
44.825,-0.033
44.830,-0.039
44.835,-0.045
44.840,-0.059
44.845,-0.068
44.850,-0.073
44.855,-0.087
44.860,-0.110
44.865,-0.127
44.870,-0.122
44.875,-0.094
44.880,-0.070
44.885,-0.052
44.890,-0.021
44.895,0.008
44.900,0.025
44.905,0.042
44.910,0.051
44.915,0.052
44.920,0.055
44.925,0.063
44.930,0.078
44.935,0.091
44.940,0.091
44.945,0.087
44.950,0.087
44.955,0.084
44.960,0.077
44.965,0.072
44.970,0.067
44.975,0.058
44.980,0.049
44.985,0.053
44.990,0.066
44.995,0.047
45.000,-0.031
45.005,-0.124
45.010,-0.226
45.015,-0.399
45.020,-0.663
45.025,-0.882
45.030,-0.908
45.035,-0.725
45.040,-0.390
45.045,-0.032
45.050,0.218
45.055,0.329
45.060,0.311
45.065,0.251
45.070,0.237
45.075,0.235
45.080,0.231
45.085,0.238
45.090,0.231
45.095,0.217
45.100,0.215
45.105,0.207
45.110,0.194
45.115,0.186
45.120,0.178
45.125,0.164
45.130,0.157
45.135,0.152
45.140,0.142
45.145,0.133
45.150,0.127
45.155,0.116
45.160,0.104
45.165,0.096
45.170,0.089
45.175,0.083
45.180,0.078
45.185,0.074
45.190,0.069
45.195,0.064
45.200,0.058
45.205,0.050
45.210,0.042
45.215,0.039
45.220,0.034
45.225,0.028
45.230,0.019
45.235,0.011
45.240,0.008
45.245,0.004
45.250,-0.002
45.255,-0.009
45.260,-0.015
45.265,-0.019
45.270,-0.023
45.275,-0.029
45.280,-0.033
45.285,-0.037
45.290,-0.040
45.295,-0.043
45.300,-0.045
45.305,-0.048
45.310,-0.050
45.315,-0.052
45.320,-0.054
45.325,-0.055
45.330,-0.057
45.335,-0.060
45.340,-0.063
45.345,-0.066
45.350,-0.069
45.355,-0.072
45.360,-0.077
45.365,-0.082
45.370,-0.083
45.375,-0.086
45.380,-0.088
45.385,-0.086
45.390,-0.083
45.395,-0.078
45.400,-0.068
45.405,-0.056
45.410,-0.047
45.415,-0.042
45.420,-0.036
45.425,-0.026
45.430,-0.018
45.435,-0.011
45.440,-0.007
45.445,-0.002
45.450,0.002
45.455,0.003
45.460,0.003
45.465,0.003
45.470,0.004
45.475,0.005
45.480,0.003
45.485,0.002
