'Elapsed time','ECG'
'seconds','mV'
0.000,0.030
0.005,0.130
0.010,0.090
0.015,0.037
0.020,0.088
0.025,0.118
0.030,0.062
0.035,0.059
0.040,0.101
0.045,0.068
0.050,0.041
0.055,0.086
0.060,0.059
0.065,-0.012
0.070,0.007
0.075,0.005
0.080,-0.071
0.085,-0.066
0.090,-0.025
0.095,-0.072
0.100,-0.088
0.105,-0.022
0.110,-0.037
0.115,-0.085
0.120,-0.027
0.125,0.006
0.130,-0.053
0.135,-0.040
0.140,0.013
0.145,-0.033
0.150,-0.047
0.155,0.040
0.160,0.093
0.165,0.212
0.170,0.548
0.175,0.931
0.180,1.237
0.185,1.589
0.190,1.733
0.195,1.192
0.200,0.263
0.205,-0.335
0.210,-0.523
0.215,-0.556
0.220,-0.477
0.225,-0.418
0.230,-0.457
0.235,-0.417
0.240,-0.340
0.245,-0.376
0.250,-0.391
0.255,-0.319
0.260,-0.319
0.265,-0.349
0.270,-0.281
0.275,-0.251
0.280,-0.303
0.285,-0.268
0.290,-0.206
0.295,-0.245
0.300,-0.248
0.305,-0.172
0.310,-0.172
0.315,-0.213
0.320,-0.156
0.325,-0.120
0.330,-0.172
0.335,-0.150
0.340,-0.088
0.345,-0.121
0.350,-0.126
0.355,-0.058
0.360,-0.074
0.365,-0.107
0.370,-0.039
0.375,-0.011
0.380,-0.065
0.385,-0.031
0.390,0.035
0.395,0.003
0.400,-0.003
0.405,0.065
0.410,0.063
0.415,0.041
0.420,0.100
0.425,0.133
0.430,0.101
0.435,0.132
0.440,0.194
0.445,0.160
0.450,0.155
0.455,0.234
0.460,0.221
0.465,0.167
0.470,0.220
0.475,0.244
0.480,0.173
0.485,0.152
0.490,0.157
0.495,0.073
0.500,0.010
0.505,0.022
0.510,-0.034
0.515,-0.116
0.520,-0.102
0.525,-0.106
0.530,-0.175
0.535,-0.169
0.540,-0.124
0.545,-0.159
0.550,-0.174
0.555,-0.118
0.560,-0.131
0.565,-0.172
0.570,-0.124
0.575,-0.101
0.580,-0.151
0.585,-0.125
0.590,-0.066
0.595,-0.110
0.600,-0.120
0.605,-0.048
0.610,-0.063
0.615,-0.109
0.620,-0.062
0.625,-0.041
0.630,-0.086
0.635,-0.061
0.640,-0.018
0.645,-0.063
0.650,-0.068
0.655,0.002
0.660,-0.012
0.665,-0.058
0.670,-0.006
0.675,0.013
0.680,-0.040
0.685,-0.017
0.690,0.031
0.695,-0.015
0.700,-0.023
0.705,0.043
0.710,0.022
0.715,-0.021
0.720,0.033
0.725,0.056
0.730,0.004
0.735,0.025
0.740,0.073
0.745,0.019
0.750,-0.004
0.755,0.058
0.760,0.041
0.765,-0.003
0.770,0.043
0.775,0.054
0.780,-0.004
0.785,0.019
0.790,0.064
0.795,0.019
0.800,0.008
0.805,0.060
0.810,0.035
0.815,-0.006
0.820,0.036
0.825,0.045
0.830,-0.007
0.835,0.020
0.840,0.068
0.845,0.018
0.850,-0.002
0.855,0.060
0.860,0.043
0.865,-0.011
0.870,0.037
0.875,0.055
0.880,-0.008
0.885,0.014
0.890,0.065
0.895,0.023
0.900,0.007
0.905,0.060
0.910,0.040
0.915,-0.006
0.920,0.046
0.925,0.063
0.930,0.000
0.935,0.019
0.940,0.059
0.945,0.012
0.950,0.010
0.955,0.061
0.960,0.034
0.965,-0.010
0.970,0.027
0.975,0.041
0.980,-0.026
0.985,-0.057
0.990,0.039
0.995,0.127
1.000,0.038
1.005,-0.008
1.010,0.094
1.015,0.178
1.020,0.226
1.025,0.132
1.030,-0.026
1.035,0.008
1.040,0.088
1.045,0.053
1.050,0.072
1.055,0.147
1.060,0.103
1.065,0.038
1.070,0.091
1.075,0.106
1.080,0.023
1.085,0.044
1.090,0.113
1.095,0.042
1.100,-0.030
1.105,-0.011
1.110,-0.061
1.115,-0.140
1.120,-0.084
1.125,-0.058
1.130,-0.076
1.135,0.026
1.140,0.008
1.145,-0.084
1.150,-0.012
1.155,-0.017
1.160,-0.148
1.165,-0.139
1.170,-0.016
1.175,-0.016
1.180,-0.093
1.185,-0.020
1.190,0.138
1.195,0.315
1.200,0.665
1.205,1.067
1.210,1.366
1.215,1.618
1.220,1.501
1.225,0.682
1.230,-0.288
1.235,-0.660
1.240,-0.621
1.245,-0.609
1.250,-0.560
1.255,-0.444
1.260,-0.390
1.265,-0.411
1.270,-0.400
1.275,-0.388
1.280,-0.440
1.285,-0.404
1.290,-0.309
1.295,-0.327
1.300,-0.319
1.305,-0.236
1.310,-0.263
1.315,-0.317
1.320,-0.251
1.325,-0.218
1.330,-0.280
1.335,-0.247
1.340,-0.158
1.345,-0.186
1.350,-0.206
1.355,-0.129
1.360,-0.072
1.365,-0.081
1.370,-0.108
1.375,-0.125
1.380,-0.175
1.385,-0.203
1.390,-0.167
1.395,-0.175
1.400,-0.138
1.405,-0.042
1.410,-0.072
1.415,-0.113
1.420,-0.044
1.425,-0.012
1.430,-0.042
1.435,-0.017
1.440,0.038
1.445,0.039
1.450,0.067
1.455,0.138
1.460,0.114
1.465,0.089
1.470,0.162
1.475,0.176
1.480,0.138
1.485,0.197
1.490,0.257
1.495,0.198
1.500,0.161
1.505,0.211
1.510,0.184
1.515,0.106
1.520,0.141
1.525,0.128
1.530,0.012
1.535,0.017
1.540,0.049
1.545,-0.061
1.550,-0.138
1.555,-0.117
1.560,-0.138
1.565,-0.156
1.570,-0.110
1.575,-0.103
1.580,-0.152
1.585,-0.122
1.590,-0.075
1.595,-0.111
1.600,-0.101
1.605,-0.037
1.610,-0.055
1.615,-0.088
1.620,-0.034
1.625,-0.026
1.630,-0.084
1.635,-0.048
1.640,0.010
1.645,-0.030
1.650,-0.040
1.655,0.021
1.660,0.005
1.665,-0.034
1.670,0.019
1.675,0.035
1.680,-0.028
1.685,-0.021
1.690,0.014
1.695,-0.019
1.700,-0.007
1.705,0.054
1.710,0.041
1.715,0.004
1.720,0.049
1.725,0.072
1.730,0.011
1.735,0.031
1.740,0.099
1.745,0.050
1.750,0.040
1.755,0.103
1.760,0.057
1.765,0.030
1.770,0.091
1.775,0.068
1.780,0.007
1.785,0.054
1.790,0.089
1.795,0.024
1.800,0.032
1.805,0.101
1.810,0.062
1.815,0.010
1.820,0.061
1.825,0.101
1.830,0.053
1.835,0.040
1.840,0.079
1.845,0.035
1.850,0.002
1.855,0.051
1.860,0.027
1.865,-0.022
1.870,0.043
1.875,0.075
1.880,0.017
1.885,0.028
1.890,0.059
1.895,0.018
1.900,0.024
1.905,0.081
1.910,0.047
1.915,0.004
1.920,0.062
1.925,0.073
1.930,0.008
1.935,0.025
1.940,0.069
1.945,0.037
1.950,0.047
1.955,0.090
1.960,0.026
1.965,0.018
1.970,0.103
1.975,0.070
1.980,0.012
1.985,0.047
1.990,0.085
1.995,0.064
2.000,0.070
2.005,0.128
2.010,0.104
2.015,0.063
2.020,0.114
2.025,0.124
2.030,0.072
2.035,0.104
2.040,0.145
2.045,0.085
2.050,0.075
2.055,0.127
2.060,0.071
2.065,0.016
2.070,0.060
2.075,0.035
2.080,-0.041
2.085,-0.023
2.090,-0.011
2.095,-0.089
2.100,-0.107
2.105,-0.054
2.110,-0.085
2.115,-0.116
2.120,-0.050
2.125,-0.050
2.130,-0.115
2.135,-0.071
2.140,-0.012
2.145,-0.060
2.150,-0.061
2.155,0.009
2.160,-0.012
2.165,0.001
2.170,0.239
2.175,0.545
2.180,0.841
2.185,1.236
2.190,1.624
2.195,1.674
2.200,1.132
2.205,0.234
2.210,-0.432
2.215,-0.617
2.220,-0.543
2.225,-0.489
2.230,-0.492
2.235,-0.440
2.240,-0.381
2.245,-0.417
2.250,-0.422
2.255,-0.348
2.260,-0.352
2.265,-0.373
2.270,-0.305
2.275,-0.303
2.280,-0.349
2.285,-0.269
2.290,-0.223
2.295,-0.302
2.300,-0.277
2.305,-0.187
2.310,-0.220
2.315,-0.243
2.320,-0.151
2.325,-0.138
2.330,-0.201
2.335,-0.158
2.340,-0.112
2.345,-0.160
2.350,-0.146
2.355,-0.065
2.360,-0.084
2.365,-0.125
2.370,-0.062
2.375,-0.034
2.380,-0.076
2.385,-0.035
2.390,0.017
2.395,-0.037
2.400,-0.031
2.405,0.047
2.410,0.031
2.415,0.011
2.420,0.078
2.425,0.092
2.430,0.054
2.435,0.112
2.440,0.187
2.445,0.154
2.450,0.147
2.455,0.232
2.460,0.249
2.465,0.191
2.470,0.192
2.475,0.211
2.480,0.189
2.485,0.183
2.490,0.167
2.495,0.091
2.500,0.061
2.505,0.056
2.510,-0.042
2.515,-0.118
2.520,-0.098
2.525,-0.099
2.530,-0.167
2.535,-0.180
2.540,-0.140
2.545,-0.179
2.550,-0.192
2.555,-0.126
2.560,-0.137
2.565,-0.163
2.570,-0.109
2.575,-0.096
2.580,-0.138
2.585,-0.119
2.590,-0.084
2.595,-0.105
2.600,-0.106
2.605,-0.062
2.610,-0.068
2.615,-0.098
2.620,-0.048
2.625,-0.029
2.630,-0.096
2.635,-0.075
2.640,-0.017
2.645,-0.043
2.650,-0.044
2.655,-0.016
2.660,-0.050
2.665,-0.062
2.670,-0.005
2.675,-0.008
2.680,-0.053
2.685,-0.009
2.690,0.035
2.695,-0.008
2.700,-0.010
2.705,0.039
2.710,0.034
2.715,-0.001
2.720,0.010
2.725,0.024
2.730,-0.011
2.735,0.015
2.740,0.062
2.745,0.007
2.750,-0.009
2.755,0.047
2.760,0.029
2.765,-0.008
2.770,0.044
2.775,0.058
2.780,0.001
2.785,0.036
2.790,0.072
2.795,0.015
2.800,0.032
2.805,0.089
2.810,0.039
2.815,-0.007
2.820,0.048
2.825,0.069
2.830,0.013
2.835,0.055
2.840,0.106
2.845,0.012
2.850,-0.029
2.855,0.028
2.860,0.017
2.865,-0.016
2.870,0.037
2.875,0.056
2.880,-0.002
2.885,0.020
2.890,0.056
2.895,0.000
2.900,-0.007
2.905,0.054
2.910,0.019
2.915,-0.020
2.920,0.055
2.925,0.059
2.930,-0.007
2.935,0.024
2.940,0.058
2.945,0.007
2.950,0.008
2.955,0.070
2.960,0.049
2.965,-0.010
2.970,0.027
2.975,0.046
2.980,-0.014
2.985,0.025
2.990,0.076
2.995,-0.001
3.000,0.009
3.005,0.109
3.010,0.087
3.015,0.044
3.020,0.100
3.025,0.128
3.030,0.077
3.035,0.065
3.040,0.103
3.045,0.073
3.050,0.055
3.055,0.114
3.060,0.097
3.065,0.041
3.070,0.068
3.075,0.073
3.080,-0.012
3.085,-0.027
3.090,0.015
3.095,-0.041
3.100,-0.099
3.105,-0.075
3.110,-0.095
3.115,-0.115
3.120,-0.054
3.125,-0.052
3.130,-0.097
3.135,-0.080
3.140,-0.072
3.145,-0.104
3.150,-0.079
3.155,-0.015
3.160,-0.046
3.165,-0.068
3.170,0.012
3.175,0.070
3.180,0.196
3.185,0.536
3.190,0.917
3.195,1.223
3.200,1.574
3.205,1.688
3.210,1.058
3.215,0.068
3.220,-0.464
3.225,-0.556
3.230,-0.585
3.235,-0.521
3.240,-0.431
3.245,-0.463
3.250,-0.454
3.255,-0.367
3.260,-0.382
3.265,-0.424
3.270,-0.358
3.275,-0.324
3.280,-0.357
3.285,-0.310
3.290,-0.272
3.295,-0.322
3.300,-0.299
3.305,-0.225
3.310,-0.245
3.315,-0.263
3.320,-0.203
3.325,-0.193
3.330,-0.235
3.335,-0.198
3.340,-0.147
3.345,-0.175
3.350,-0.173
3.355,-0.123
3.360,-0.147
3.365,-0.152
3.370,-0.060
3.375,-0.048
3.380,-0.104
3.385,-0.075
3.390,-0.041
3.395,-0.080
3.400,-0.068
3.405,0.003
3.410,0.012
3.415,-0.014
3.420,0.013
3.425,0.043
3.430,0.043
3.435,0.106
3.440,0.154
3.445,0.090
3.450,0.085
3.455,0.173
3.460,0.181
3.465,0.159
3.470,0.210
3.475,0.226
3.480,0.195
3.485,0.225
3.490,0.242
3.495,0.174
3.500,0.139
3.505,0.154
3.510,0.100
3.515,0.024
3.520,0.024
3.525,0.012
3.530,-0.074
3.535,-0.103
3.540,-0.079
3.545,-0.124
3.550,-0.153
3.555,-0.108
3.560,-0.114
3.565,-0.156
3.570,-0.134
3.575,-0.152
3.580,-0.198
3.585,-0.131
3.590,-0.082
3.595,-0.131
3.600,-0.123
3.605,-0.065
3.610,-0.083
3.615,-0.105
3.620,-0.056
3.625,-0.045
3.630,-0.075
3.635,-0.031
3.640,-0.009
3.645,-0.080
3.650,-0.063
3.655,0.003
3.660,-0.037
3.665,-0.062
3.670,0.014
3.675,0.023
3.680,-0.047
3.685,-0.033
3.690,-0.007
3.695,-0.045
3.700,-0.020
3.705,0.045
3.710,0.017
3.715,-0.010
3.720,0.038
3.725,0.038
3.730,-0.009
3.735,0.018
3.740,0.058
3.745,0.009
3.750,0.005
3.755,0.078
3.760,0.055
3.765,0.011
3.770,0.065
3.775,0.070
3.780,0.007
3.785,0.027
3.790,0.062
3.795,0.017
3.800,0.028
3.805,0.076
3.810,0.026
3.815,-0.003
3.820,0.057
3.825,0.052
3.830,-0.007
3.835,0.034
3.840,0.072
3.845,0.017
3.850,0.035
3.855,0.098
3.860,0.041
3.865,-0.008
3.870,0.056
3.875,0.056
3.880,-0.004
3.885,0.060
3.890,0.111
3.895,0.025
3.900,0.027
3.905,0.093
3.910,0.014
3.915,-0.035
3.920,0.048
3.925,0.039
3.930,-0.029
3.935,0.024
3.940,0.073
3.945,0.015
3.950,0.008
3.955,0.058
3.960,0.026
3.965,0.021
3.970,0.104
3.975,0.109
3.980,0.061
3.985,0.103
3.990,0.137
3.995,0.080
4.000,0.093
4.005,0.152
4.010,0.103
4.015,0.098
4.020,0.163
4.025,0.108
4.030,0.034
4.035,0.085
4.040,0.109
4.045,0.039
4.050,0.017
4.055,0.033
4.060,-0.020
4.065,-0.071
4.070,-0.053
4.075,-0.079
4.080,-0.138
4.085,-0.077
4.090,-0.027
4.095,-0.086
4.100,-0.077
4.105,-0.022
4.110,-0.058
4.115,-0.076
4.120,-0.016
4.125,-0.016
4.130,-0.063
4.135,-0.033
4.140,0.004
4.145,0.022
4.150,0.226
4.155,0.588
4.160,0.899
4.165,1.237
4.170,1.671
4.175,1.764
4.180,1.135
4.185,0.187
4.190,-0.429
4.195,-0.620
4.200,-0.564
4.205,-0.442
4.210,-0.450
4.215,-0.475
4.220,-0.387
4.225,-0.355
4.230,-0.397
4.235,-0.352
4.240,-0.313
4.245,-0.364
4.250,-0.334
4.255,-0.261
4.260,-0.277
4.265,-0.270
4.270,-0.199
4.275,-0.226
4.280,-0.308
4.285,-0.257
4.290,-0.198
4.295,-0.227
4.300,-0.206
4.305,-0.164
4.310,-0.182
4.315,-0.174
4.320,-0.126
4.325,-0.137
4.330,-0.171
4.335,-0.106
4.340,-0.054
4.345,-0.112
4.350,-0.111
4.355,-0.036
4.360,-0.043
4.365,-0.058
4.370,0.011
4.375,0.007
4.380,-0.049
4.385,0.001
4.390,0.054
4.395,0.019
4.400,0.036
4.405,0.112
4.410,0.102
4.415,0.091
4.420,0.163
4.425,0.165
4.430,0.120
4.435,0.179
4.440,0.224
4.445,0.181
4.450,0.213
4.455,0.266
4.460,0.200
4.465,0.136
4.470,0.177
4.475,0.167
4.480,0.044
4.485,0.010
4.490,0.017
4.495,-0.067
4.500,-0.097
4.505,-0.072
4.510,-0.124
4.515,-0.160
4.520,-0.112
4.525,-0.118
4.530,-0.170
4.535,-0.136
4.540,-0.100
4.545,-0.156
4.550,-0.171
4.555,-0.105
4.560,-0.110
4.565,-0.146
4.570,-0.084
4.575,-0.079
4.580,-0.132
4.585,-0.062
4.590,-0.011
4.595,-0.086
4.600,-0.094
4.605,-0.040
4.610,-0.077
4.615,-0.098
4.620,-0.036
4.625,-0.046
4.630,-0.090
4.635,-0.036
4.640,-0.005
4.645,-0.064
4.650,-0.050
4.655,0.023
4.660,-0.003
4.665,-0.043
4.670,0.014
4.675,0.031
4.680,-0.021
4.685,0.008
4.690,0.045
4.695,-0.009
4.700,-0.007
4.705,0.061
4.710,0.027
4.715,-0.013
4.720,0.044
4.725,0.055
4.730,0.025
4.735,0.053
4.740,0.049
4.745,-0.013
4.750,0.003
4.755,0.066
4.760,0.040
4.765,0.016
4.770,0.043
4.775,0.027
4.780,-0.004
4.785,0.028
4.790,0.064
4.795,-0.008
4.800,-0.022
4.805,0.057
4.810,0.007
4.815,-0.036
4.820,0.047
4.825,0.039
4.830,-0.017
4.835,0.046
4.840,0.081
4.845,0.013
4.850,0.017
4.855,0.074
4.860,0.032
4.865,0.012
4.870,0.082
4.875,0.066
4.880,0.008
4.885,0.079
4.890,0.111
4.895,0.009
4.900,0.008
4.905,0.073
4.910,0.043
4.915,0.041
4.920,0.079
4.925,0.037
4.930,-0.001
4.935,0.045
4.940,0.063
4.945,-0.003
4.950,0.016
4.955,0.113
4.960,0.095
4.965,0.076
4.970,0.144
4.975,0.123
4.980,0.063
4.985,0.117
4.990,0.142
4.995,0.073
5.000,0.078
5.005,0.119
5.010,0.074
5.015,0.059
5.020,0.101
5.025,0.071
5.030,0.020
5.035,0.059
5.040,0.049
5.045,-0.070
5.050,-0.082
5.055,-0.028
5.060,-0.092
5.065,-0.127
5.070,-0.063
5.075,-0.079
5.080,-0.126
5.085,-0.079
5.090,-0.049
5.095,-0.094
5.100,-0.088
5.105,-0.036
5.110,-0.073
5.115,-0.111
5.120,-0.046
5.125,-0.018
5.130,-0.013
5.135,0.155
5.140,0.439
5.145,0.728
5.150,1.087
5.155,1.500
5.160,1.709
5.165,1.409
5.170,0.637
5.175,-0.167
5.180,-0.552
5.185,-0.523
5.190,-0.480
5.195,-0.535
5.200,-0.498
5.205,-0.414
5.210,-0.427
5.215,-0.416
5.220,-0.330
5.225,-0.348
5.230,-0.431
5.235,-0.386
5.240,-0.308
5.245,-0.339
5.250,-0.336
5.255,-0.260
5.260,-0.268
5.265,-0.282
5.270,-0.221
5.275,-0.216
5.280,-0.248
5.285,-0.197
5.290,-0.155
5.295,-0.200
5.300,-0.194
5.305,-0.117
5.310,-0.127
5.315,-0.158
5.320,-0.097
5.325,-0.080
5.330,-0.127
5.335,-0.084
5.340,-0.042
5.345,-0.091
5.350,-0.042
5.355,0.034
5.360,-0.042
5.365,-0.054
5.370,0.051
5.375,0.029
5.380,-0.032
5.385,0.049
5.390,0.112
5.395,0.074
5.400,0.102
5.405,0.164
5.410,0.138
5.415,0.135
5.420,0.201
5.425,0.200
5.430,0.158
5.435,0.216
5.440,0.266
5.445,0.199
5.450,0.179
5.455,0.217
5.460,0.150
5.465,0.068
5.470,0.083
5.475,0.041
5.480,-0.072
5.485,-0.080
5.490,-0.069
5.495,-0.147
5.500,-0.157
5.505,-0.105
5.510,-0.151
5.515,-0.187
5.520,-0.118
5.525,-0.121
5.530,-0.184
5.535,-0.133
5.540,-0.101
5.545,-0.169
5.550,-0.157
5.555,-0.087
5.560,-0.100
5.565,-0.121
5.570,-0.085
5.575,-0.098
5.580,-0.118
5.585,-0.057
5.590,-0.028
5.595,-0.072
5.600,-0.076
5.605,-0.035
5.610,-0.066
5.615,-0.091
5.620,-0.032
5.625,-0.030
5.630,-0.080
5.635,-0.046
5.640,-0.021
5.645,-0.081
5.650,-0.067
5.655,-0.004
5.660,-0.040
5.665,-0.061
5.670,0.005
5.675,-0.008
5.680,-0.057
5.685,0.007
5.690,0.026
5.695,-0.049
5.700,-0.031
5.705,0.039
5.710,0.009
5.715,-0.029
5.720,0.028
5.725,0.033
5.730,-0.028
5.735,0.007
5.740,0.049
5.745,0.000
5.750,0.002
5.755,0.054
5.760,0.010
5.765,-0.018
5.770,0.052
5.775,0.040
5.780,-0.014
5.785,0.037
5.790,0.072
5.795,0.012
5.800,0.004
5.805,0.069
5.810,0.039
5.815,-0.018
5.820,0.040
5.825,0.058
5.830,0.013
5.835,0.055
5.840,0.082
5.845,0.010
5.850,0.011
5.855,0.064
5.860,0.023
5.865,0.001
5.870,0.052
5.875,0.038
5.880,0.011
5.885,0.065
5.890,0.070
5.895,0.008
5.900,0.021
5.905,0.058
5.910,0.020
5.915,0.023
5.920,0.090
5.925,0.059
5.930,-0.002
5.935,0.053
5.940,0.107
5.945,0.084
5.950,0.094
5.955,0.126
5.960,0.093
5.965,0.088
5.970,0.161
5.975,0.146
5.980,0.075
5.985,0.140
5.990,0.178
5.995,0.094
6.000,0.110
6.005,0.167
6.010,0.091
6.015,0.021
6.020,0.058
6.025,0.031
6.030,-0.041
6.035,-0.013
6.040,-0.024
6.045,-0.109
6.050,-0.086
6.055,-0.030
6.060,-0.082
6.065,-0.098
6.070,-0.036
6.075,-0.049
6.080,-0.086
6.085,-0.032
6.090,-0.004
6.095,-0.063
6.100,-0.045
6.105,0.016
6.110,-0.025
6.115,-0.025
6.120,0.131
6.125,0.338
6.130,0.618
6.135,1.040
6.140,1.439
6.145,1.689
6.150,1.630
6.155,0.929
6.160,-0.096
6.165,-0.581
6.170,-0.533
6.175,-0.514
6.180,-0.511
6.185,-0.423
6.190,-0.394
6.195,-0.433
6.200,-0.394
6.205,-0.325
6.210,-0.355
6.215,-0.373
6.220,-0.305
6.225,-0.282
6.230,-0.307
6.235,-0.263
6.240,-0.230
6.245,-0.271
6.250,-0.254
6.255,-0.199
6.260,-0.223
6.265,-0.239
6.270,-0.185
6.275,-0.168
6.280,-0.177
6.285,-0.130
6.290,-0.119
6.295,-0.171
6.300,-0.148
6.305,-0.066
6.310,-0.075
6.315,-0.108
6.320,-0.060
6.325,-0.071
6.330,-0.129
6.335,-0.067
6.340,0.005
6.345,-0.029
6.350,-0.022
6.355,0.035
6.360,0.004
6.365,-0.011
6.370,0.078
6.375,0.099
6.380,0.051
6.385,0.095
6.390,0.143
6.395,0.116
6.400,0.145
6.405,0.215
6.410,0.184
6.415,0.163
6.420,0.241
6.425,0.236
6.430,0.186
6.435,0.234
6.440,0.234
6.445,0.133
6.450,0.098
6.455,0.104
6.460,0.015
6.465,-0.054
6.470,-0.039
6.475,-0.058
6.480,-0.082
6.485,-0.081
6.490,-0.120
6.495,-0.176
6.500,-0.160
6.505,-0.102
6.510,-0.129
6.515,-0.173
6.520,-0.134
6.525,-0.126
6.530,-0.157
6.535,-0.105
6.540,-0.077
6.545,-0.131
6.550,-0.104
6.555,-0.045
6.560,-0.093
6.565,-0.118
6.570,-0.044
6.575,-0.038
6.580,-0.089
6.585,-0.041
6.590,0.004
6.595,-0.059
6.600,-0.069
6.605,-0.007
6.610,-0.031
6.615,-0.057
6.620,0.002
6.625,-0.011
6.630,-0.057
6.635,0.001
6.640,0.041
6.645,0.015
6.650,0.033
6.655,0.061
6.660,0.022
6.665,0.018
6.670,0.062
6.675,0.021
6.680,-0.007
6.685,0.063
6.690,0.082
6.695,0.021
6.700,0.032
6.705,0.083
6.710,0.042
6.715,0.022
6.720,0.083
6.725,0.069
6.730,0.014
6.735,0.055
6.740,0.083
6.745,0.025
6.750,0.034
6.755,0.083
6.760,0.027
6.765,0.008
6.770,0.072
6.775,0.047
6.780,-0.009
6.785,0.033
6.790,0.068
6.795,0.016
6.800,0.006
6.805,0.062
6.810,0.063
6.815,0.015
6.820,-0.011
6.825,-0.028
6.830,-0.033
6.835,0.018
6.840,0.036
6.845,-0.013
6.850,0.010
6.855,0.054
6.860,0.003
6.865,-0.015
6.870,0.043
6.875,0.024
6.880,-0.015
6.885,0.037
6.890,0.045
6.895,-0.017
6.900,-0.002
6.905,0.042
6.910,0.000
6.915,-0.009
6.920,0.080
6.925,0.100
6.930,0.059
6.935,0.087
6.940,0.110
6.945,0.083
6.950,0.097
6.955,0.108
6.960,0.046
6.965,0.045
6.970,0.110
6.975,0.076
6.980,0.022
6.985,0.065
6.990,0.075
6.995,0.031
7.000,0.039
7.005,0.023
7.010,-0.055
7.015,-0.085
7.020,-0.053
7.025,-0.088
7.030,-0.153
7.035,-0.105
7.040,-0.066
7.045,-0.114
7.050,-0.103
7.055,-0.051
7.060,-0.084
7.065,-0.100
7.070,-0.034
7.075,-0.047
7.080,-0.100
7.085,-0.035
7.090,-0.002
7.095,-0.055
7.100,0.048
7.105,0.301
7.110,0.551
7.115,0.883
7.120,1.310
7.125,1.642
7.130,1.638
7.135,1.099
7.140,0.205
7.145,-0.458
7.150,-0.609
7.155,-0.517
7.160,-0.501
7.165,-0.528
7.170,-0.441
7.175,-0.408
7.180,-0.449
7.185,-0.378
7.190,-0.336
7.195,-0.395
7.200,-0.371
7.205,-0.294
7.210,-0.320
7.215,-0.333
7.220,-0.263
7.225,-0.263
7.230,-0.287
7.235,-0.222
7.240,-0.197
7.245,-0.247
7.250,-0.219
7.255,-0.161
7.260,-0.190
7.265,-0.201
7.270,-0.137
7.275,-0.128
7.280,-0.170
7.285,-0.124
7.290,-0.072
7.295,-0.119
7.300,-0.110
7.305,-0.030
7.310,-0.054
7.315,-0.084
7.320,-0.014
7.325,-0.008
7.330,-0.048
7.335,0.023
7.340,0.063
7.345,0.000
7.350,0.033
7.355,0.106
7.360,0.074
7.365,0.074
7.370,0.155
7.375,0.161
7.380,0.129
7.385,0.195
7.390,0.236
7.395,0.192
7.400,0.215
7.405,0.271
7.410,0.227
7.415,0.199
7.420,0.254
7.425,0.197
7.430,0.074
7.435,0.082
7.440,0.071
7.445,-0.040
7.450,-0.064
7.455,-0.034
7.460,-0.094
7.465,-0.144
7.470,-0.121
7.475,-0.156
7.480,-0.193
7.485,-0.133
7.490,-0.101
7.495,-0.157
7.500,-0.146
7.505,-0.083
7.510,-0.125
7.515,-0.143
7.520,-0.078
7.525,-0.113
7.530,-0.159
7.535,-0.076
7.540,-0.049
7.545,-0.122
7.550,-0.089
7.555,-0.023
7.560,-0.063
7.565,-0.076
7.570,-0.023
7.575,-0.038
7.580,-0.076
7.585,-0.031
7.590,-0.005
7.595,-0.057
7.600,-0.045
7.605,0.008
7.610,-0.027
7.615,-0.039
7.620,0.011
7.625,-0.006
7.630,-0.041
7.635,0.008
7.640,0.037
7.645,-0.011
7.650,-0.006
7.655,0.045
7.660,0.024
7.665,-0.005
7.670,0.037
7.675,0.026
7.680,-0.019
7.685,0.034
7.690,0.052
7.695,-0.011
7.700,0.006
7.705,0.059
7.710,0.021
7.715,0.010
7.720,0.066
7.725,0.040
7.730,0.000
7.735,0.053
7.740,0.052
7.745,0.000
7.750,0.035
7.755,0.073
7.760,0.027
7.765,-0.003
7.770,0.057
7.775,0.066
7.780,0.012
7.785,0.040
7.790,0.043
7.795,-0.018
7.800,0.009
7.805,0.043
7.810,-0.019
7.815,-0.029
7.820,0.043
7.825,0.037
7.830,-0.002
7.835,0.047
7.840,0.053
7.845,-0.005
7.850,0.019
7.855,0.058
7.860,0.015
7.865,0.002
7.870,0.053
7.875,0.031
7.880,-0.015
7.885,0.041
7.890,0.066
7.895,0.007
7.900,0.022
7.905,0.066
7.910,0.023
7.915,0.024
7.920,0.112
7.925,0.101
7.930,0.047
7.935,0.105
7.940,0.111
7.945,0.055
7.950,0.102
7.955,0.130
7.960,0.075
7.965,0.055
7.970,0.082
7.975,0.073
7.980,0.031
7.985,0.047
7.990,0.044
7.995,-0.034
8.000,-0.041
8.005,-0.019
8.010,-0.088
8.015,-0.121
8.020,-0.072
8.025,-0.098
8.030,-0.147
8.035,-0.087
8.040,-0.063
8.045,-0.127
8.050,-0.100
8.055,-0.045
8.060,-0.098
8.065,-0.113
8.070,-0.044
8.075,-0.041
8.080,-0.074
8.085,-0.038
8.090,0.010
8.095,0.075
8.100,0.323
8.105,0.705
8.110,1.013
8.115,1.338
8.120,1.702
8.125,1.556
8.130,0.707
8.135,-0.155
8.140,-0.545
8.145,-0.630
8.150,-0.555
8.155,-0.429
8.160,-0.443
8.165,-0.454
8.170,-0.375
8.175,-0.374
8.180,-0.399
8.185,-0.336
8.190,-0.301
8.195,-0.345
8.200,-0.308
8.205,-0.250
8.210,-0.286
8.215,-0.284
8.220,-0.199
8.225,-0.191
8.230,-0.226
8.235,-0.173
8.240,-0.180
8.245,-0.253
8.250,-0.199
8.255,-0.131
8.260,-0.180
8.265,-0.163
8.270,-0.086
8.275,-0.115
8.280,-0.143
8.285,-0.077
8.290,-0.055
8.295,-0.102
8.300,-0.065
8.305,-0.004
8.310,-0.046
8.315,-0.051
8.320,0.026
8.325,0.018
8.330,-0.017
8.335,0.049
8.340,0.078
8.345,0.035
8.350,0.079
8.355,0.143
8.360,0.115
8.365,0.123
8.370,0.201
8.375,0.203
8.380,0.168
8.385,0.217
8.390,0.250
8.395,0.223
8.400,0.253
8.405,0.289
8.410,0.234
8.415,0.200
8.420,0.202
8.425,0.106
8.430,0.021
8.435,0.038
8.440,0.000
8.445,-0.091
8.450,-0.081
8.455,-0.044
8.460,-0.113
8.465,-0.152
8.470,-0.092
8.475,-0.112
8.480,-0.165
8.485,-0.113
8.490,-0.096
8.495,-0.155
8.500,-0.125
8.505,-0.056
8.510,-0.091
8.515,-0.105
8.520,-0.038
8.525,-0.043
8.530,-0.076
8.535,-0.027
8.540,-0.008
8.545,-0.056
8.550,-0.041
8.555,0.013
8.560,-0.019
8.565,-0.033
8.570,0.016
8.575,-0.011
8.580,-0.024
8.585,0.034
8.590,0.013
8.595,-0.045
8.600,-0.011
8.605,0.032
8.610,-0.003
8.615,0.002
8.620,0.064
8.625,0.034
8.630,-0.016
8.635,0.048
8.640,0.074
8.645,0.015
8.650,0.044
8.655,0.096
8.660,0.043
8.665,0.021
8.670,0.079
8.675,0.061
8.680,0.018
8.685,0.063
8.690,0.064
8.695,0.011
8.700,0.065
8.705,0.112
8.710,0.024
8.715,0.002
8.720,0.087
8.725,0.059
8.730,-0.010
8.735,0.041
8.740,0.050
8.745,-0.012
8.750,0.026
8.755,0.060
8.760,-0.002
8.765,0.001
8.770,0.032
8.775,-0.015
8.780,-0.029
8.785,0.021
8.790,0.026
8.795,-0.019
8.800,0.002
8.805,0.040
8.810,-0.011
8.815,-0.024
8.820,0.046
8.825,0.032
8.830,-0.023
8.835,0.016
8.840,0.023
8.845,-0.032
8.850,0.006
8.855,0.050
8.860,-0.012
8.865,-0.026
8.870,0.031
8.875,0.024
8.880,-0.015
8.885,0.024
8.890,0.067
8.895,0.041
8.900,0.061
8.905,0.087
8.910,0.031
8.915,0.041
8.920,0.114
8.925,0.074
8.930,0.025
8.935,0.084
8.940,0.102
8.945,0.048
8.950,0.062
8.955,0.080
8.960,0.014
8.965,0.013
8.970,0.061
8.975,-0.005
8.980,-0.068
8.985,-0.035
8.990,-0.047
8.995,-0.119
9.000,-0.117
9.005,-0.078
9.010,-0.114
9.015,-0.118
9.020,-0.057
9.025,-0.080
9.030,-0.117
9.035,-0.046
9.040,-0.034
9.045,-0.095
9.050,-0.061
9.055,-0.013
9.060,-0.022
9.065,-0.006
9.070,0.075
9.075,0.241
9.080,0.530
9.085,0.924
9.090,1.292
9.095,1.578
9.100,1.633
9.105,1.086
9.110,0.133
9.115,-0.455
9.120,-0.531
9.125,-0.548
9.130,-0.553
9.135,-0.445
9.140,-0.406
9.145,-0.452
9.150,-0.419
9.155,-0.371
9.160,-0.404
9.165,-0.390
9.170,-0.317
9.175,-0.329
9.180,-0.366
9.185,-0.286
9.190,-0.224
9.195,-0.285
9.200,-0.284
9.205,-0.228
9.210,-0.250
9.215,-0.235
9.220,-0.156
9.225,-0.165
9.230,-0.219
9.235,-0.171
9.240,-0.135
9.245,-0.178
9.250,-0.136
9.255,-0.076
9.260,-0.125
9.265,-0.133
9.270,-0.065
9.275,-0.070
9.280,-0.091
9.285,-0.024
9.290,-0.007
9.295,-0.063
9.300,-0.018
9.305,0.044
9.310,0.008
9.315,0.011
9.320,0.064
9.325,0.057
9.330,0.070
9.335,0.139
9.340,0.149
9.345,0.120
9.350,0.164
9.355,0.215
9.360,0.184
9.365,0.188
9.370,0.246
9.375,0.228
9.380,0.192
9.385,0.244
9.390,0.245
9.395,0.139
9.400,0.113
9.405,0.125
9.410,0.032
9.415,-0.041
9.420,-0.046
9.425,-0.103
9.430,-0.155
9.435,-0.124
9.440,-0.133
9.445,-0.194
9.450,-0.161
9.455,-0.102
9.460,-0.161
9.465,-0.178
9.470,-0.102
9.475,-0.119
9.480,-0.158
9.485,-0.099
9.490,-0.089
9.495,-0.139
9.500,-0.098
9.505,-0.051
9.510,-0.101
9.515,-0.103
9.520,-0.035
9.525,-0.053
9.530,-0.098
9.535,-0.039
9.540,-0.010
9.545,-0.072
9.550,-0.052
9.555,-0.002
9.560,-0.061
9.565,-0.069
9.570,0.010
9.575,-0.019
9.580,-0.063
9.585,0.016
9.590,0.029
9.595,-0.042
9.600,-0.010
9.605,0.034
9.610,-0.016
9.615,-0.023
9.620,0.050
9.625,0.048
9.630,0.021
9.635,0.061
9.640,0.040
9.645,-0.019
9.650,0.027
9.655,0.071
9.660,0.021
9.665,0.013
9.670,0.067
9.675,0.047
9.680,0.004
9.685,0.040
9.690,0.046
9.695,0.000
9.700,0.034
9.705,0.075
9.710,0.041
9.715,0.025
9.720,0.045
9.725,0.043
9.730,0.014
9.735,0.029
9.740,0.059
9.745,0.015
9.750,0.026
9.755,0.068
9.760,0.008
9.765,-0.008
9.770,0.054
9.775,0.023
9.780,-0.018
9.785,0.040
9.790,0.049
9.795,-0.001
9.800,0.024
9.805,0.056
9.810,0.009
9.815,0.005
9.820,0.058
9.825,0.024
9.830,-0.018
9.835,0.043
9.840,0.061
9.845,-0.005
9.850,0.014
9.855,0.068
9.860,0.027
9.865,0.004
9.870,0.042
9.875,0.030
9.880,0.016
9.885,0.064
9.890,0.056
9.895,-0.002
9.900,0.055
9.905,0.137
9.910,0.102
9.915,0.078
9.920,0.124
9.925,0.102
9.930,0.047
9.935,0.094
9.940,0.120
9.945,0.075
9.950,0.099
9.955,0.131
9.960,0.081
9.965,0.054
9.970,0.087
9.975,0.053
9.980,-0.014
9.985,0.001
9.990,-0.015
9.995,-0.098
10.000,-0.080
10.005,-0.041
10.010,-0.100
10.015,-0.105
10.020,-0.055
10.025,-0.087
10.030,-0.115
10.035,-0.049
10.040,-0.026
10.045,-0.074
10.050,-0.036
10.055,0.005
10.060,-0.057
10.065,-0.053
10.070,0.023
10.075,0.048
10.080,0.162
10.085,0.485
10.090,0.846
10.095,1.158
10.100,1.537
10.105,1.717
10.110,1.189
10.115,0.235
10.120,-0.390
10.125,-0.606
10.130,-0.627
10.135,-0.492
10.140,-0.413
10.145,-0.458
10.150,-0.404
10.155,-0.339
10.160,-0.388
10.165,-0.390
10.170,-0.333
10.175,-0.344
10.180,-0.352
10.185,-0.289
10.190,-0.276
10.195,-0.312
10.200,-0.277
10.205,-0.237
10.210,-0.262
10.215,-0.246
10.220,-0.191
10.225,-0.233
10.230,-0.276
10.235,-0.196
10.240,-0.173
10.245,-0.229
10.250,-0.169
10.255,-0.109
10.260,-0.164
10.265,-0.156
10.270,-0.077
10.275,-0.089
10.280,-0.118
10.285,-0.058
10.290,-0.038
10.295,-0.088
10.300,-0.049
10.305,0.019
10.310,-0.017
10.315,-0.026
10.320,0.043
10.325,0.045
10.330,0.032
10.335,0.097
10.340,0.120
10.345,0.078
10.350,0.136
10.355,0.203
10.360,0.141
10.365,0.152
10.370,0.242
10.375,0.205
10.380,0.164
10.385,0.234
10.390,0.247
10.395,0.181
10.400,0.185
10.405,0.180
10.410,0.070
10.415,0.021
10.420,0.035
10.425,-0.034
10.430,-0.094
10.435,-0.076
10.440,-0.102
10.445,-0.139
10.450,-0.100
10.455,-0.088
10.460,-0.144
10.465,-0.136
10.470,-0.063
10.475,-0.088
10.480,-0.130
10.485,-0.066
10.490,-0.050
10.495,-0.112
10.500,-0.082
10.505,-0.026
10.510,-0.075
10.515,-0.073
10.520,0.001
10.525,-0.041
10.530,-0.081
10.535,0.002
10.540,0.009
10.545,-0.053
10.550,-0.010
10.555,0.020
10.560,-0.019
10.565,-0.016
10.570,0.011
10.575,0.003
10.580,-0.007
10.585,0.038
10.590,0.042
10.595,-0.016
10.600,0.015
10.605,0.062
10.610,0.010
10.615,0.015
10.620,0.089
10.625,0.064
10.630,0.025
10.635,0.079
10.640,0.083
10.645,0.038
10.650,0.059
10.655,0.062
10.660,0.010
10.665,0.025
10.670,0.096
10.675,0.070
10.680,0.000
10.685,0.042
10.690,0.060
10.695,0.013
10.700,0.035
10.705,0.061
10.710,0.030
10.715,0.021
10.720,0.051
10.725,0.035
10.730,0.004
10.735,0.051
10.740,0.051
10.745,-0.016
10.750,0.012
10.755,0.043
10.760,-0.009
10.765,-0.005
10.770,0.039
10.775,0.006
10.780,-0.012
10.785,0.043
10.790,0.032
10.795,-0.026
10.800,0.014
10.805,0.050
10.810,-0.008
10.815,-0.009
10.820,0.039
10.825,0.005
10.830,-0.019
10.835,0.034
10.840,0.042
10.845,-0.010
10.850,0.009
10.855,0.047
10.860,-0.004
10.865,-0.001
10.870,0.085
10.875,0.074
10.880,0.032
10.885,0.107
10.890,0.130
10.895,0.054
10.900,0.079
10.905,0.115
10.910,0.047
10.915,0.061
10.920,0.126
10.925,0.083
10.930,0.042
10.935,0.083
10.940,0.070
10.945,0.004
10.950,0.016
10.955,0.038
10.960,-0.028
10.965,-0.066
10.970,-0.042
10.975,-0.084
10.980,-0.122
10.985,-0.072
10.990,-0.078
10.995,-0.130
11.000,-0.082
11.005,-0.044
11.010,-0.105
11.015,-0.102
11.020,-0.037
11.025,-0.072
11.030,-0.111
11.035,-0.040
11.040,-0.021
11.045,-0.064
11.050,0.019
11.055,0.206
11.060,0.416
11.065,0.746
11.070,1.141
11.075,1.463
11.080,1.667
11.085,1.407
11.090,0.545
11.095,-0.286
11.100,-0.552
11.105,-0.526
11.110,-0.539
11.115,-0.495
11.120,-0.422
11.125,-0.434
11.130,-0.435
11.135,-0.371
11.140,-0.361
11.145,-0.408
11.150,-0.359
11.155,-0.294
11.160,-0.334
11.165,-0.333
11.170,-0.262
11.175,-0.252
11.180,-0.259
11.185,-0.230
11.190,-0.234
11.195,-0.253
11.200,-0.210
11.205,-0.171
11.210,-0.191
11.215,-0.189
11.220,-0.155
11.225,-0.169
11.230,-0.175
11.235,-0.112
11.240,-0.109
11.245,-0.147
11.250,-0.083
11.255,-0.037
11.260,-0.089
11.265,-0.078
11.270,-0.007
11.275,-0.026
11.280,-0.054
11.285,0.009
11.290,0.024
11.295,-0.008
11.300,0.047
11.305,0.100
11.310,0.071
11.315,0.088
11.320,0.146
11.325,0.124
11.330,0.128
11.335,0.206
11.340,0.209
11.345,0.163
11.350,0.211
11.355,0.247
11.360,0.183
11.365,0.187
11.370,0.234
11.375,0.175
11.380,0.111
11.385,0.125
11.390,0.067
11.395,-0.047
11.400,-0.045
11.405,-0.039
11.410,-0.127
11.415,-0.148
11.420,-0.099
11.425,-0.140
11.430,-0.186
11.435,-0.135
11.440,-0.127
11.445,-0.175
11.450,-0.134
11.455,-0.095
11.460,-0.150
11.465,-0.141
11.470,-0.075
11.475,-0.105
11.480,-0.129
11.485,-0.058
11.490,-0.060
11.495,-0.121
11.500,-0.073
11.505,-0.049
11.510,-0.124
11.515,-0.105
11.520,-0.018
11.525,-0.039
11.530,-0.082
11.535,-0.033
11.540,-0.030
11.545,-0.089
11.550,-0.042
11.555,0.009
11.560,-0.037
11.565,-0.037
11.570,0.021
11.575,0.013
11.580,-0.007
11.585,0.028
11.590,0.026
11.595,0.002
11.600,0.045
11.605,0.057
11.610,-0.011
11.615,-0.004
11.620,0.051
11.625,0.010
11.630,-0.008
11.635,0.067
11.640,0.048
11.645,-0.016
11.650,0.040
11.655,0.075
11.660,0.015
11.665,0.015
11.670,0.077
11.675,0.044
11.680,-0.003
11.685,0.051
11.690,0.056
11.695,-0.003
11.700,0.018
11.705,0.070
11.710,0.023
11.715,0.007
11.720,0.084
11.725,0.047
11.730,-0.021
11.735,0.054
11.740,0.065
11.745,0.000
11.750,0.029
11.755,0.033
11.760,-0.009
11.765,0.032
11.770,0.073
11.775,0.019
11.780,-0.007
11.785,0.027
11.790,0.017
11.795,-0.006
11.800,0.036
11.805,0.067
11.810,0.012
11.815,0.006
11.820,0.059
11.825,0.031
11.830,0.002
11.835,0.056
11.840,0.075
11.845,0.022
11.850,0.015
11.855,0.030
11.860,0.009
11.865,0.028
11.870,0.060
11.875,0.047
11.880,0.078
11.885,0.146
11.890,0.118
11.895,0.053
11.900,0.087
11.905,0.132
11.910,0.086
11.915,0.077
11.920,0.134
11.925,0.102
11.930,0.068
11.935,0.122
11.940,0.095
11.945,0.020
11.950,0.065
11.955,0.085
11.960,-0.012
11.965,-0.039
11.970,-0.010
11.975,-0.078
11.980,-0.121
11.985,-0.058
11.990,-0.067
11.995,-0.130
12.000,-0.089
12.005,-0.046
12.010,-0.079
12.015,-0.066
12.020,-0.022
12.025,-0.059
12.030,-0.075
12.035,-0.010
12.040,-0.035
12.045,-0.107
12.050,-0.025
12.055,0.126
12.060,0.276
12.065,0.599
12.070,1.021
12.075,1.338
12.080,1.619
12.085,1.613
12.090,0.883
12.095,-0.105
12.100,-0.535
12.105,-0.549
12.110,-0.584
12.115,-0.509
12.120,-0.391
12.125,-0.431
12.130,-0.437
12.135,-0.349
12.140,-0.352
12.145,-0.402
12.150,-0.347
12.155,-0.297
12.160,-0.317
12.165,-0.290
12.170,-0.248
12.175,-0.273
12.180,-0.270
12.185,-0.214
12.190,-0.223
12.195,-0.277
12.200,-0.239
12.205,-0.187
12.210,-0.221
12.215,-0.195
12.220,-0.130
12.225,-0.167
12.230,-0.178
12.235,-0.111
12.240,-0.117
12.245,-0.165
12.250,-0.134
12.255,-0.095
12.260,-0.117
12.265,-0.098
12.270,-0.033
12.275,-0.049
12.280,-0.069
12.285,0.007
12.290,0.018
12.295,-0.025
12.300,0.023
12.305,0.062
12.310,0.037
12.315,0.078
12.320,0.145
12.325,0.092
12.330,0.065
12.335,0.161
12.340,0.179
12.345,0.137
12.350,0.189
12.355,0.233
12.360,0.187
12.365,0.190
12.370,0.237
12.375,0.189
12.380,0.130
12.385,0.136
12.390,0.087
12.395,0.007
12.400,0.002
12.405,-0.018
12.410,-0.105
12.415,-0.124
12.420,-0.094
12.425,-0.144
12.430,-0.168
12.435,-0.108
12.440,-0.104
12.445,-0.162
12.450,-0.154
12.455,-0.100
12.460,-0.118
12.465,-0.134
12.470,-0.095
12.475,-0.101
12.480,-0.110
12.485,-0.072
12.490,-0.085
12.495,-0.129
12.500,-0.067
12.505,-0.020
12.510,-0.079
12.515,-0.065
12.520,-0.013
12.525,-0.069
12.530,-0.094
12.535,-0.005
12.540,0.000
12.545,-0.064
12.550,-0.025
12.555,0.011
12.560,-0.036
12.565,-0.014
12.570,0.057
12.575,0.009
12.580,-0.028
12.585,0.053
12.590,0.058
12.595,-0.018
12.600,0.015
12.605,0.063
12.610,0.015
12.615,0.037
12.620,0.094
12.625,0.041
12.630,0.006
12.635,0.047
12.640,0.040
12.645,0.017
12.650,0.068
12.655,0.080
12.660,0.015
12.665,0.023
12.670,0.073
12.675,0.034
12.680,0.006
12.685,0.077
12.690,0.072
12.695,-0.008
12.700,0.034
12.705,0.073
12.710,0.016
12.715,0.024
12.720,0.067
12.725,0.015
12.730,-0.016
12.735,0.043
12.740,0.051
12.745,0.015
12.750,0.035
12.755,0.062
12.760,0.026
12.765,0.010
12.770,0.044
12.775,0.021
12.780,0.001
12.785,0.056
12.790,0.044
12.795,-0.010
12.800,0.037
12.805,0.063
12.810,0.006
12.815,0.022
12.820,0.069
12.825,0.025
12.830,-0.002
12.835,0.058
12.840,0.081
12.845,0.062
12.850,0.108
12.855,0.129
12.860,0.066
12.865,0.086
12.870,0.147
12.875,0.103
12.880,0.080
12.885,0.130
12.890,0.113
12.895,0.098
12.900,0.157
12.905,0.126
12.910,0.034
12.915,0.045
12.920,0.070
12.925,0.002
12.930,-0.031
12.935,-0.016
12.940,-0.066
12.945,-0.118
12.950,-0.085
12.955,-0.060
12.960,-0.097
12.965,-0.086
12.970,-0.031
12.975,-0.047
12.980,-0.075
12.985,-0.029
12.990,-0.039
12.995,-0.085
13.000,-0.023
13.005,0.012
13.010,-0.035
13.015,-0.004
13.020,0.120
13.025,0.297
13.030,0.609
13.035,1.019
13.040,1.356
13.045,1.635
13.050,1.658
13.055,0.990
13.060,-0.011
13.065,-0.500
13.070,-0.519
13.075,-0.550
13.080,-0.519
13.085,-0.400
13.090,-0.402
13.095,-0.439
13.100,-0.369
13.105,-0.327
13.110,-0.377
13.115,-0.361
13.120,-0.299
13.125,-0.330
13.130,-0.343
13.135,-0.261
13.140,-0.252
13.145,-0.294
13.150,-0.241
13.155,-0.200
13.160,-0.246
13.165,-0.216
13.170,-0.132
13.175,-0.172
13.180,-0.225
13.185,-0.163
13.190,-0.144
13.195,-0.185
13.200,-0.136
13.205,-0.101
13.210,-0.145
13.215,-0.114
13.220,-0.045
13.225,-0.076
13.230,-0.083
13.235,-0.010
13.240,-0.015
13.245,-0.044
13.250,0.019
13.255,0.065
13.260,0.023
13.265,0.032
13.270,0.094
13.275,0.080
13.280,0.069
13.285,0.144
13.290,0.154
13.295,0.112
13.300,0.179
13.305,0.225
13.310,0.176
13.315,0.206
13.320,0.274
13.325,0.237
13.330,0.203
13.335,0.249
13.340,0.213
13.345,0.128
13.350,0.140
13.355,0.119
13.360,0.027
13.365,0.022
13.370,0.012
13.375,-0.100
13.380,-0.142
13.385,-0.083
13.390,-0.109
13.395,-0.175
13.400,-0.122
13.405,-0.093
13.410,-0.163
13.415,-0.144
13.420,-0.077
13.425,-0.120
13.430,-0.156
13.435,-0.087
13.440,-0.078
13.445,-0.131
13.450,-0.089
13.455,-0.056
13.460,-0.114
13.465,-0.110
13.470,-0.040
13.475,-0.066
13.480,-0.113
13.485,-0.053
13.490,-0.039
13.495,-0.097
13.500,-0.052
13.505,-0.016
13.510,-0.075
13.515,-0.061
13.520,-0.008
13.525,-0.052
13.530,-0.068
13.535,0.013
13.540,0.006
13.545,-0.062
13.550,-0.013
13.555,0.037
13.560,-0.016
13.565,-0.017
13.570,0.020
13.575,-0.017
13.580,-0.016
13.585,0.046
13.590,0.033
13.595,-0.024
13.600,-0.001
13.605,0.029
13.610,-0.011
13.615,-0.002
13.620,0.038
13.625,-0.012
13.630,-0.026
13.635,0.045
13.640,0.030
13.645,-0.029
13.650,0.008
13.655,0.027
13.660,-0.033
13.665,-0.014
13.670,0.048
13.675,0.008
13.680,-0.020
13.685,0.029
13.690,0.006
13.695,-0.044
13.700,0.012
13.705,0.032
13.710,-0.033
13.715,-0.024
13.720,0.031
13.725,0.007
13.730,-0.026
13.735,0.024
13.740,0.043
13.745,-0.006
13.750,0.007
13.755,0.030
13.760,-0.031
13.765,-0.027
13.770,0.035
13.775,-0.002
13.780,-0.011
13.785,0.051
13.790,0.020
13.795,-0.025
13.800,0.025
13.805,0.043
13.810,-0.022
13.815,-0.007
13.820,0.073
13.825,0.033
13.830,0.000
13.835,0.090
13.840,0.110
13.845,0.059
13.850,0.101
13.855,0.134
13.860,0.066
13.865,0.070
13.870,0.133
13.875,0.099
13.880,0.063
13.885,0.096
13.890,0.084
13.895,0.056
13.900,0.102
13.905,0.094
13.910,0.001
13.915,-0.009
13.920,0.038
13.925,-0.016
13.930,-0.094
13.935,-0.075
13.940,-0.082
13.945,-0.115
13.950,-0.074
13.955,-0.067
13.960,-0.127
13.965,-0.100
13.970,-0.028
13.975,-0.059
13.980,-0.072
13.985,-0.012
13.990,-0.036
13.995,-0.080
14.000,-0.014
14.005,0.016
14.010,0.023
14.015,0.245
14.020,0.609
14.025,0.931
14.030,1.265
14.035,1.626
14.040,1.668
14.045,1.085
14.050,0.221
14.055,-0.349
14.060,-0.551
14.065,-0.559
14.070,-0.476
14.075,-0.460
14.080,-0.465
14.085,-0.396
14.090,-0.397
14.095,-0.440
14.100,-0.390
14.105,-0.345
14.110,-0.370
14.115,-0.339
14.120,-0.271
14.125,-0.298
14.130,-0.307
14.135,-0.233
14.140,-0.244
14.145,-0.290
14.150,-0.230
14.155,-0.195
14.160,-0.242
14.165,-0.209
14.170,-0.147
14.175,-0.186
14.180,-0.188
14.185,-0.122
14.190,-0.139
14.195,-0.163
14.200,-0.090
14.205,-0.066
14.210,-0.114
14.215,-0.080
14.220,-0.028
14.225,-0.068
14.230,-0.083
14.235,-0.010
14.240,0.006
14.245,-0.044
14.250,-0.006
14.255,0.067
14.260,0.051
14.265,0.041
14.270,0.093
14.275,0.085
14.280,0.077
14.285,0.160
14.290,0.184
14.295,0.153
14.300,0.192
14.305,0.215
14.310,0.168
14.315,0.194
14.320,0.263
14.325,0.210
14.330,0.163
14.335,0.197
14.340,0.135
14.345,0.046
14.350,0.049
14.355,0.015
14.360,-0.065
14.365,-0.077
14.370,-0.082
14.375,-0.139
14.380,-0.142
14.385,-0.099
14.390,-0.132
14.395,-0.183
14.400,-0.149
14.405,-0.140
14.410,-0.199
14.415,-0.169
14.420,-0.105
14.425,-0.147
14.430,-0.155
14.435,-0.077
14.440,-0.089
14.445,-0.139
14.450,-0.091
14.455,-0.062
14.460,-0.112
14.465,-0.092
14.470,-0.041
14.475,-0.074
14.480,-0.072
14.485,-0.002
14.490,-0.020
14.495,-0.083
14.500,-0.037
14.505,-0.004
14.510,-0.075
14.515,-0.074
14.520,-0.011
14.525,-0.032
14.530,-0.041
14.535,0.024
14.540,0.019
14.545,-0.033
14.550,0.003
14.555,0.033
14.560,-0.014
14.565,0.004
14.570,0.054
14.575,0.019
14.580,0.008
14.585,0.063
14.590,0.050
14.595,0.002
14.600,0.038
14.605,0.063
14.610,0.013
14.615,0.031
14.620,0.083
14.625,0.026
14.630,0.003
14.635,0.074
14.640,0.059
14.645,0.020
14.650,0.060
14.655,0.057
14.660,0.005
14.665,0.041
14.670,0.087
14.675,0.024
14.680,0.007
14.685,0.067
14.690,0.038
14.695,-0.009
14.700,0.040
14.705,0.070
14.710,0.011
14.715,0.009
14.720,0.066
14.725,0.035
14.730,0.004
14.735,0.060
14.740,0.055
14.745,0.010
14.750,0.063
14.755,0.085
14.760,0.014
14.765,0.025
14.770,0.083
14.775,0.036
14.780,0.004
14.785,0.063
14.790,0.059
14.795,0.013
14.800,0.049
14.805,0.071
14.810,0.040
14.815,0.098
14.820,0.159
14.825,0.101
14.830,0.081
14.835,0.123
14.840,0.083
14.845,0.050
14.850,0.154
14.855,0.190
14.860,0.091
14.865,0.093
14.870,0.146
14.875,0.075
14.880,0.019
14.885,0.074
14.890,0.058
14.895,-0.013
14.900,0.007
14.905,-0.008
14.910,-0.096
14.915,-0.095
14.920,-0.052
14.925,-0.088
14.930,-0.081
14.935,-0.020
14.940,-0.066
14.945,-0.123
14.950,-0.045
14.955,-0.002
14.960,-0.068
14.965,-0.059
14.970,0.001
14.975,-0.035
14.980,-0.060
14.985,0.015
14.990,0.096
14.995,0.283
15.000,0.687
15.005,1.083
15.010,1.393
15.015,1.725
15.020,1.656
15.025,0.827
15.030,-0.131
15.035,-0.548
15.040,-0.597
15.045,-0.562
15.050,-0.442
15.055,-0.389
15.060,-0.438
15.065,-0.407
15.070,-0.350
15.075,-0.375
15.080,-0.384
15.085,-0.328
15.090,-0.309
15.095,-0.331
15.100,-0.283
15.105,-0.238
15.110,-0.278
15.115,-0.274
15.120,-0.220
15.125,-0.240
15.130,-0.244
15.135,-0.167
15.140,-0.159
15.145,-0.209
15.150,-0.177
15.155,-0.152
15.160,-0.189
15.165,-0.152
15.170,-0.087
15.175,-0.132
15.180,-0.153
15.185,-0.075
15.190,-0.054
15.195,-0.082
15.200,-0.063
15.205,-0.038
15.210,-0.054
15.215,-0.030
15.220,0.021
15.225,0.000
15.230,-0.004
15.235,0.063
15.240,0.066
15.245,0.045
15.250,0.107
15.255,0.132
15.260,0.088
15.265,0.131
15.270,0.193
15.275,0.147
15.280,0.144
15.285,0.223
15.290,0.226
15.295,0.189
15.300,0.221
15.305,0.227
15.310,0.158
15.315,0.147
15.320,0.156
15.325,0.065
15.330,0.014
15.335,0.040
15.340,-0.023
15.345,-0.101
15.350,-0.069
15.355,-0.054
15.360,-0.130
15.365,-0.157
15.370,-0.114
15.375,-0.127
15.380,-0.145
15.385,-0.093
15.390,-0.096
15.395,-0.144
15.400,-0.089
15.405,-0.071
15.410,-0.135
15.415,-0.099
15.420,-0.040
15.425,-0.084
15.430,-0.099
15.435,-0.041
15.440,-0.053
15.445,-0.090
15.450,-0.043
15.455,-0.029
15.460,-0.068
15.465,-0.039
15.470,-0.007
15.475,-0.050
15.480,-0.059
15.485,0.011
15.490,0.012
15.495,-0.020
15.500,0.028
15.505,0.015
15.510,-0.057
15.515,-0.024
15.520,0.036
15.525,-0.003
15.530,-0.011
15.535,0.054
15.540,0.032
15.545,-0.016
15.550,0.040
15.555,0.057
15.560,0.001
15.565,0.013
15.570,0.044
15.575,0.024
15.580,0.032
15.585,0.071
15.590,0.047
15.595,0.000
15.600,0.048
15.605,0.061
15.610,-0.025
15.615,-0.009
15.620,0.054
15.625,0.015
15.630,0.004
15.635,0.052
15.640,0.029
15.645,-0.024
15.650,0.011
15.655,0.038
15.660,0.003
15.665,0.027
15.670,0.046
15.675,-0.014
15.680,-0.013
15.685,0.049
15.690,0.025
15.695,-0.024
15.700,0.017
15.705,0.033
15.710,-0.019
15.715,0.005
15.720,0.046
15.725,0.000
15.730,-0.001
15.735,0.061
15.740,0.045
15.745,0.013
15.750,0.058
15.755,0.074
15.760,0.016
15.765,0.017
15.770,0.059
15.775,0.024
15.780,0.031
15.785,0.112
15.790,0.106
15.795,0.066
15.800,0.105
15.805,0.138
15.810,0.103
15.815,0.112
15.820,0.145
15.825,0.081
15.830,0.075
15.835,0.141
15.840,0.098
15.845,0.062
15.850,0.099
15.855,0.080
15.860,0.023
15.865,0.041
15.870,0.060
15.875,-0.036
15.880,-0.086
15.885,-0.044
15.890,-0.080
15.895,-0.128
15.900,-0.074
15.905,-0.061
15.910,-0.115
15.915,-0.097
15.920,-0.057
15.925,-0.082
15.930,-0.086
15.935,-0.028
15.940,-0.044
15.945,-0.094
15.950,-0.037
15.955,0.001
15.960,-0.032
15.965,0.073
15.970,0.338
15.975,0.631
15.980,0.986
15.985,1.391
15.990,1.672
15.995,1.583
16.000,0.976
16.005,0.087
16.010,-0.512
16.015,-0.577
16.020,-0.496
16.025,-0.528
16.030,-0.521
16.035,-0.428
16.040,-0.416
16.045,-0.447
16.050,-0.396
16.055,-0.385
16.060,-0.420
16.065,-0.359
16.070,-0.306
16.075,-0.352
16.080,-0.344
16.085,-0.269
16.090,-0.280
16.095,-0.300
16.100,-0.235
16.105,-0.217
16.110,-0.252
16.115,-0.221
16.120,-0.179
16.125,-0.209
16.130,-0.203
16.135,-0.137
16.140,-0.147
16.145,-0.191
16.150,-0.148
16.155,-0.084
16.160,-0.105
16.165,-0.109
16.170,-0.059
16.175,-0.084
16.180,-0.103
16.185,-0.035
16.190,-0.033
16.195,-0.050
16.200,0.015
16.205,0.027
16.210,0.003
16.215,0.057
16.220,0.099
16.225,0.063
16.230,0.074
16.235,0.146
16.240,0.136
16.245,0.119
16.250,0.189
16.255,0.203
16.260,0.151
16.265,0.190
16.270,0.245
16.275,0.196
16.280,0.180
16.285,0.214
16.290,0.157
16.295,0.088
16.300,0.088
16.305,0.037
16.310,-0.048
16.315,-0.048
16.320,-0.047
16.325,-0.123
16.330,-0.165
16.335,-0.134
16.340,-0.144
16.345,-0.160
16.350,-0.123
16.355,-0.143
16.360,-0.202
16.365,-0.147
16.370,-0.075
16.375,-0.121
16.380,-0.144
16.385,-0.089
16.390,-0.104
16.395,-0.133
16.400,-0.071
16.405,-0.050
16.410,-0.098
16.415,-0.076
16.420,-0.030
16.425,-0.068
16.430,-0.078
16.435,-0.020
16.440,-0.045
16.445,-0.081
16.450,-0.026
16.455,-0.003
16.460,-0.042
16.465,-0.020
16.470,0.017
16.475,-0.041
16.480,-0.035
16.485,0.043
16.490,0.004
16.495,-0.039
16.500,0.013
16.505,0.026
16.510,-0.007
16.515,0.026
16.520,0.043
16.525,-0.018
16.530,-0.005
16.535,0.062
16.540,0.034
16.545,-0.006
16.550,0.049
16.555,0.053
16.560,-0.020
16.565,0.011
16.570,0.060
16.575,0.008
16.580,-0.001
16.585,0.051
16.590,0.028
16.595,-0.006
16.600,0.044
16.605,0.058
16.610,-0.001
16.615,0.018
16.620,0.052
16.625,-0.005
16.630,0.007
16.635,0.074
16.640,0.025
16.645,-0.020
16.650,0.030
16.655,0.034
16.660,-0.016
16.665,0.019
16.670,0.062
16.675,0.007
16.680,0.000
16.685,0.061
16.690,0.033
16.695,-0.013
16.700,0.028
16.705,0.029
16.710,-0.013
16.715,0.049
16.720,0.081
16.725,-0.007
16.730,0.001
16.735,0.082
16.740,0.038
16.745,-0.012
16.750,0.044
16.755,0.043
16.760,-0.016
16.765,0.023
16.770,0.066
16.775,0.010
16.780,0.024
16.785,0.114
16.790,0.098
16.795,0.057
16.800,0.114
16.805,0.134
16.810,0.077
16.815,0.090
16.820,0.129
16.825,0.095
16.830,0.093
16.835,0.140
16.840,0.107
16.845,0.064
16.850,0.095
16.855,0.080
16.860,0.014
16.865,0.021
16.870,0.024
16.875,-0.055
16.880,-0.083
16.885,-0.062
16.890,-0.098
16.895,-0.123
16.900,-0.083
16.905,-0.081
16.910,-0.122
16.915,-0.089
16.920,-0.057
16.925,-0.108
16.930,-0.113
16.935,-0.048
16.940,-0.057
16.945,-0.103
16.950,-0.049
16.955,-0.008
16.960,0.018
16.965,0.227
16.970,0.538
16.975,0.845
16.980,1.215
16.985,1.601
16.990,1.673
16.995,1.103
17.000,0.184
17.005,-0.448
17.010,-0.650
17.015,-0.587
17.020,-0.469
17.025,-0.476
17.030,-0.460
17.035,-0.370
17.040,-0.387
17.045,-0.431
17.050,-0.371
17.055,-0.321
17.060,-0.348
17.065,-0.321
17.070,-0.265
17.075,-0.317
17.080,-0.333
17.085,-0.250
17.090,-0.264
17.095,-0.280
17.100,-0.205
17.105,-0.205
17.110,-0.243
17.115,-0.189
17.120,-0.135
17.125,-0.165
17.130,-0.165
17.135,-0.107
17.140,-0.129
17.145,-0.153
17.150,-0.088
17.155,-0.077
17.160,-0.120
17.165,-0.081
17.170,-0.030
17.175,-0.061
17.180,-0.049
17.185,0.020
17.190,0.013
17.195,-0.012
17.200,0.045
17.205,0.068
17.210,0.025
17.215,0.072
17.220,0.135
17.225,0.096
17.230,0.115
17.235,0.215
17.240,0.202
17.245,0.134
17.250,0.175
17.255,0.214
17.260,0.198
17.265,0.236
17.270,0.259
17.275,0.197
17.280,0.183
17.285,0.228
17.290,0.161
17.295,0.069
17.300,0.090
17.305,0.057
17.310,-0.041
17.315,-0.027
17.320,-0.025
17.325,-0.113
17.330,-0.130
17.335,-0.083
17.340,-0.106
17.345,-0.147
17.350,-0.118
17.355,-0.101
17.360,-0.127
17.365,-0.107
17.370,-0.066
17.375,-0.095
17.380,-0.108
17.385,-0.070
17.390,-0.095
17.395,-0.103
17.400,-0.033
17.405,-0.028
17.410,-0.085
17.415,-0.049
17.420,-0.006
17.425,-0.069
17.430,-0.064
17.435,0.018
17.440,-0.009
17.445,-0.048
17.450,-0.011
17.455,-0.021
17.460,-0.034
17.465,0.026
17.470,0.040
17.475,-0.020
17.480,-0.010
17.485,0.052
17.490,0.020
17.495,-0.021
17.500,0.044
17.505,0.067
17.510,0.000
17.515,0.013
17.520,0.062
17.525,0.026
17.530,0.027
17.535,0.074
17.540,0.045
17.545,0.027
17.550,0.075
17.555,0.066
17.560,0.006
17.565,0.035
17.570,0.072
17.575,0.017
17.580,0.013
17.585,0.061
17.590,0.033
17.595,0.008
17.600,0.055
17.605,0.048
17.610,0.005
17.615,0.042
17.620,0.055
17.625,-0.005
17.630,0.002
17.635,0.045
17.640,0.010
17.645,-0.012
17.650,0.037
17.655,0.037
17.660,0.000
17.665,0.028
17.670,0.055
17.675,0.010
17.680,0.015
17.685,0.073
17.690,0.026
17.695,-0.014
17.700,0.056
17.705,0.049
17.710,-0.023
17.715,0.007
17.720,0.051
17.725,0.016
17.730,0.020
17.735,0.059
17.740,0.024
17.745,0.015
17.750,0.100
17.755,0.110
17.760,0.056
17.765,0.106
17.770,0.149
17.775,0.084
17.780,0.083
17.785,0.149
17.790,0.116
17.795,0.071
17.800,0.131
17.805,0.132
17.810,0.063
17.815,0.083
17.820,0.093
17.825,0.026
17.830,-0.004
17.835,-0.001
17.840,-0.039
17.845,-0.070
17.850,-0.053
17.855,-0.083
17.860,-0.129
17.865,-0.076
17.870,-0.041
17.875,-0.096
17.880,-0.082
17.885,-0.017
17.890,-0.040
17.895,-0.068
17.900,-0.022
17.905,-0.013
17.910,-0.040
17.915,-0.001
17.920,0.030
17.925,0.051
17.930,0.267
17.935,0.647
17.940,0.964
17.945,1.291
17.950,1.667
17.955,1.682
17.960,1.050
17.965,0.166
17.970,-0.385
17.975,-0.565
17.980,-0.562
17.985,-0.470
17.990,-0.448
17.995,-0.454
18.000,-0.383
18.005,-0.359
18.010,-0.411
18.015,-0.384
18.020,-0.326
18.025,-0.354
18.030,-0.340
18.035,-0.269
18.040,-0.291
18.045,-0.319
18.050,-0.250
18.055,-0.236
18.060,-0.277
18.065,-0.227
18.070,-0.174
18.075,-0.216
18.080,-0.212
18.085,-0.153
18.090,-0.181
18.095,-0.199
18.100,-0.134
18.105,-0.137
18.110,-0.177
18.115,-0.128
18.120,-0.094
18.125,-0.128
18.130,-0.095
18.135,-0.025
18.140,-0.062
18.145,-0.099
18.150,-0.037
18.155,-0.017
18.160,-0.063
18.165,-0.025
18.170,0.040
18.175,0.030
18.180,0.054
18.185,0.105
18.190,0.065
18.195,0.045
18.200,0.133
18.205,0.164
18.210,0.116
18.215,0.162
18.220,0.222
18.225,0.159
18.230,0.162
18.235,0.232
18.240,0.179
18.245,0.125
18.250,0.168
18.255,0.120
18.260,0.012
18.265,0.031
18.270,0.043
18.275,-0.066
18.280,-0.112
18.285,-0.086
18.290,-0.139
18.295,-0.181
18.300,-0.127
18.305,-0.135
18.310,-0.200
18.315,-0.156
18.320,-0.116
18.325,-0.175
18.330,-0.162
18.335,-0.101
18.340,-0.129
18.345,-0.146
18.350,-0.093
18.355,-0.100
18.360,-0.147
18.365,-0.088
18.370,-0.041
18.375,-0.103
18.380,-0.100
18.385,-0.027
18.390,-0.043
18.395,-0.090
18.400,-0.049
18.405,-0.048
18.410,-0.095
18.415,-0.037
18.420,-0.003
18.425,-0.062
18.430,-0.040
18.435,0.018
18.440,-0.033
18.445,-0.066
18.450,0.011
18.455,0.021
18.460,-0.023
18.465,0.008
18.470,0.028
18.475,-0.012
18.480,-0.017
18.485,0.035
18.490,0.026
18.495,0.001
18.500,0.051
18.505,0.043
18.510,-0.006
18.515,0.032
18.520,0.055
18.525,-0.003
18.530,-0.002
18.535,0.057
18.540,0.023
18.545,-0.017
18.550,0.044
18.555,0.051
18.560,-0.022
18.565,0.014
18.570,0.069
18.575,0.009
18.580,0.009
18.585,0.070
18.590,0.018
18.595,-0.024
18.600,0.044
18.605,0.041
18.610,-0.025
18.615,0.013
18.620,0.073
18.625,0.030
18.630,0.007
18.635,0.054
18.640,0.027
18.645,-0.010
18.650,0.038
18.655,0.033
18.660,-0.037
18.665,0.000
18.670,0.070
18.675,0.024
18.680,0.008
18.685,0.053
18.690,0.034
18.695,0.021
18.700,0.060
18.705,0.040
18.710,-0.017
18.715,0.018
18.720,0.056
18.725,-0.001
18.730,0.003
18.735,0.067
18.740,0.039
18.745,0.032
18.750,0.115
18.755,0.116
18.760,0.069
18.765,0.116
18.770,0.150
18.775,0.095
18.780,0.078
18.785,0.121
18.790,0.102
18.795,0.076
18.800,0.125
18.805,0.123
18.810,0.068
18.815,0.086
18.820,0.083
18.825,-0.015
18.830,-0.041
18.835,0.002
18.840,-0.055
18.845,-0.110
18.850,-0.065
18.855,-0.078
18.860,-0.136
18.865,-0.105
18.870,-0.074
18.875,-0.108
18.880,-0.092
18.885,-0.045
18.890,-0.075
18.895,-0.087
18.900,-0.028
18.905,-0.033
18.910,-0.077
18.915,-0.027
18.920,0.049
18.925,0.131
18.930,0.407
18.935,0.809
18.940,1.123
18.945,1.454
18.950,1.730
18.955,1.400
18.960,0.472
18.965,-0.288
18.970,-0.566
18.975,-0.618
18.980,-0.557
18.985,-0.449
18.990,-0.443
18.995,-0.435
19.000,-0.370
19.005,-0.398
19.010,-0.432
19.015,-0.346
19.020,-0.310
19.025,-0.370
19.030,-0.337
19.035,-0.285
19.040,-0.330
19.045,-0.307
19.050,-0.225
19.055,-0.241
19.060,-0.278
19.065,-0.216
19.070,-0.167
19.075,-0.212
19.080,-0.208
19.085,-0.159
19.090,-0.180
19.095,-0.178
19.100,-0.117
19.105,-0.120
19.110,-0.144
19.115,-0.097
19.120,-0.066
19.125,-0.090
19.130,-0.093
19.135,-0.068
19.140,-0.066
19.145,-0.053
19.150,0.008
19.155,0.009
19.160,-0.038
19.165,0.024
19.170,0.084
19.175,0.040
19.180,0.065
19.185,0.131
19.190,0.098
19.195,0.086
19.200,0.169
19.205,0.184
19.210,0.138
19.215,0.191
19.220,0.245
19.225,0.199
19.230,0.208
19.235,0.279
19.240,0.243
19.245,0.171
19.250,0.177
19.255,0.133
19.260,0.046
19.265,0.055
19.270,0.038
19.275,-0.069
19.280,-0.094
19.285,-0.069
19.290,-0.116
19.295,-0.136
19.300,-0.093
19.305,-0.103
19.310,-0.158
19.315,-0.123
19.320,-0.086
19.325,-0.152
19.330,-0.142
19.335,-0.059
19.340,-0.079
19.345,-0.111
19.350,-0.057
19.355,-0.053
19.360,-0.101
19.365,-0.055
19.370,-0.025
19.375,-0.094
19.380,-0.081
19.385,-0.003
19.390,-0.021
19.395,-0.060
19.400,-0.010
19.405,-0.013
19.410,-0.074
19.415,-0.033
19.420,0.002
19.425,-0.037
19.430,-0.004
19.435,0.049
19.440,0.001
19.445,-0.028
19.450,0.037
19.455,0.044
19.460,-0.011
19.465,0.026
19.470,0.061
19.475,-0.004
19.480,-0.002
19.485,0.055
19.490,0.014
19.495,-0.005
19.500,0.063
19.505,0.059
19.510,0.008
19.515,0.040
19.520,0.065
19.525,0.016
19.530,0.020
19.535,0.081
19.540,0.053
19.545,0.010
19.550,0.053
19.555,0.045
19.560,-0.013
19.565,0.019
19.570,0.054
19.575,0.017
19.580,0.029
19.585,0.077
19.590,0.040
19.595,0.006
19.600,0.056
19.605,0.040
19.610,-0.021
19.615,0.024
19.620,0.069
19.625,0.011
19.630,0.013
19.635,0.080
19.640,0.022
19.645,-0.026
19.650,0.039
19.655,0.032
19.660,-0.014
19.665,0.039
19.670,0.069
19.675,0.010
19.680,0.024
19.685,0.087
19.690,0.039
19.695,-0.002
19.700,0.047
19.705,0.055
19.710,0.036
19.715,0.096
19.720,0.124
19.725,0.058
19.730,0.079
19.735,0.143
19.740,0.103
19.745,0.085
19.750,0.141
19.755,0.132
19.760,0.078
19.765,0.107
19.770,0.136
19.775,0.086
19.780,0.083
19.785,0.109
19.790,0.030
19.795,-0.037
19.800,-0.001
19.805,-0.022
19.810,-0.097
19.815,-0.073
19.820,-0.023
19.825,-0.077
19.830,-0.104
19.835,-0.042
19.840,-0.075
19.845,-0.103
19.850,-0.029
19.855,-0.044
19.860,-0.100
19.865,-0.044
19.870,-0.010
19.875,-0.074
19.880,-0.049
19.885,0.052
19.890,0.144
19.895,0.370
19.900,0.781
19.905,1.176
19.910,1.501
19.915,1.767
19.920,1.507
19.925,0.576
19.930,-0.269
19.935,-0.550
19.940,-0.566
19.945,-0.527
19.950,-0.430
19.955,-0.418
19.960,-0.436
19.965,-0.359
19.970,-0.357
19.975,-0.433
19.980,-0.393
19.985,-0.310
19.990,-0.330
19.995,-0.343
20.000,-0.268
20.005,-0.263
20.010,-0.315
20.015,-0.254
20.020,-0.198
20.025,-0.256
20.030,-0.249
20.035,-0.169
20.040,-0.190
20.045,-0.223
20.050,-0.150
20.055,-0.137
20.060,-0.185
20.065,-0.123
20.070,-0.072
20.075,-0.131
20.080,-0.121
20.085,-0.055
20.090,-0.079
20.095,-0.098
20.100,-0.043
20.105,-0.052
20.110,-0.093
20.115,-0.026
20.120,0.025
20.125,-0.015
20.130,0.009
20.135,0.070
20.140,0.043
20.145,0.043
20.150,0.111
20.155,0.109
20.160,0.099
20.165,0.157
20.170,0.170
20.175,0.137
20.180,0.181
20.185,0.244
20.190,0.208
20.195,0.186
20.200,0.250
20.205,0.230
20.210,0.150
20.215,0.166
20.220,0.146
20.225,0.024
20.230,-0.005
20.235,0.030
20.240,-0.056
20.245,-0.138
20.250,-0.090
20.255,-0.104
20.260,-0.187
20.265,-0.139
20.270,-0.110
20.275,-0.187
20.280,-0.158
20.285,-0.087
20.290,-0.126
20.295,-0.134
20.300,-0.070
20.305,-0.093
20.310,-0.148
20.315,-0.094
20.320,-0.056
20.325,-0.116
20.330,-0.097
20.335,-0.033
20.340,-0.074
20.345,-0.079
20.350,-0.010
20.355,-0.042
20.360,-0.087
20.365,-0.009
20.370,0.026
20.375,-0.053
20.380,-0.050
20.385,0.004
20.390,-0.030
20.395,-0.030
20.400,0.035
20.405,0.007
20.410,-0.051
20.415,0.009
20.420,0.053
20.425,-0.010
20.430,-0.008
20.435,0.054
20.440,0.030
20.445,0.020
20.450,0.074
20.455,0.053
20.460,0.015
20.465,0.060
20.470,0.076
20.475,0.015
20.480,0.024
20.485,0.084
20.490,0.033
20.495,0.008
20.500,0.078
20.505,0.048
20.510,-0.009
20.515,0.044
20.520,0.054
20.525,-0.015
20.530,0.002
20.535,0.057
20.540,0.014
20.545,-0.018
20.550,0.034
20.555,0.029
20.560,-0.025
20.565,0.006
20.570,0.040
20.575,-0.011
20.580,-0.007
20.585,0.049
20.590,0.002
20.595,-0.047
20.600,0.012
20.605,0.024
20.610,-0.027
20.615,0.003
20.620,0.030
20.625,-0.035
20.630,-0.031
20.635,0.035
20.640,0.000
20.645,-0.026
20.650,0.035
20.655,0.029
20.660,-0.022
20.665,0.014
20.670,0.030
20.675,-0.030
20.680,-0.008
20.685,0.066
20.690,0.059
20.695,0.055
20.700,0.112
20.705,0.098
20.710,0.050
20.715,0.112
20.720,0.126
20.725,0.038
20.730,0.068
20.735,0.137
20.740,0.073
20.745,0.060
20.750,0.123
20.755,0.052
20.760,-0.029
20.765,0.018
20.770,0.011
20.775,-0.073
20.780,-0.072
20.785,-0.054
20.790,-0.130
20.795,-0.142
20.800,-0.051
20.805,-0.075
20.810,-0.150
20.815,-0.102
20.820,-0.056
20.825,-0.105
20.830,-0.106
20.835,-0.048
20.840,-0.061
20.845,-0.082
20.850,-0.033
20.855,-0.038
20.860,-0.052
20.865,0.115
20.870,0.387
20.875,0.687
20.880,1.082
20.885,1.474
20.890,1.688
20.895,1.512
20.900,0.799
20.905,-0.096
20.910,-0.568
20.915,-0.564
20.920,-0.520
20.925,-0.554
20.930,-0.489
20.935,-0.406
20.940,-0.436
20.945,-0.423
20.950,-0.343
20.955,-0.353
20.960,-0.396
20.965,-0.345
20.970,-0.297
20.975,-0.339
20.980,-0.320
20.985,-0.253
20.990,-0.278
20.995,-0.292
21.000,-0.232
21.005,-0.220
21.010,-0.253
21.015,-0.208
21.020,-0.173
21.025,-0.222
21.030,-0.206
21.035,-0.150
21.040,-0.182
21.045,-0.206
21.050,-0.133
21.055,-0.112
21.060,-0.136
21.065,-0.069
21.070,-0.062
21.075,-0.142
21.080,-0.090
21.085,-0.013
21.090,-0.064
21.095,-0.071
21.100,0.015
21.105,0.022
21.110,-0.007
21.115,0.049
21.120,0.080
21.125,0.042
21.130,0.090
21.135,0.179
21.140,0.145
21.145,0.121
21.150,0.210
21.155,0.211
21.160,0.159
21.165,0.228
21.170,0.259
21.175,0.202
21.180,0.221
21.185,0.242
21.190,0.168
21.195,0.116
21.200,0.096
21.205,0.009
21.210,-0.067
21.215,-0.033
21.220,-0.032
21.225,-0.123
21.230,-0.130
21.235,-0.090
21.240,-0.134
21.245,-0.140
21.250,-0.081
21.255,-0.122
21.260,-0.185
21.265,-0.113
21.270,-0.079
21.275,-0.140
21.280,-0.108
21.285,-0.063
21.290,-0.108
21.295,-0.103
21.300,-0.031
21.305,-0.040
21.310,-0.085
21.315,-0.038
21.320,-0.012
21.325,-0.075
21.330,-0.054
21.335,0.015
21.340,-0.037
21.345,-0.082
21.350,-0.014
21.355,0.007
21.360,-0.028
21.365,0.003
21.370,0.014
21.375,-0.039
21.380,-0.013
21.385,0.039
21.390,-0.007
21.395,-0.020
21.400,0.053
21.405,0.039
21.410,-0.021
21.415,0.019
21.420,0.046
21.425,0.003
21.430,0.027
21.435,0.087
21.440,0.030
21.445,-0.008
21.450,0.070
21.455,0.066
21.460,-0.005
21.465,0.058
21.470,0.102
21.475,0.006
21.480,0.019
21.485,0.093
21.490,0.036
21.495,0.000
21.500,0.055
21.505,0.048
21.510,0.012
21.515,0.062
21.520,0.074
21.525,0.014
21.530,0.030
21.535,0.062
21.540,0.003
21.545,0.002
21.550,0.095
21.555,0.073
21.560,0.011
21.565,0.058
21.570,0.073
21.575,0.014
21.580,0.027
21.585,0.061
21.590,0.019
21.595,0.016
21.600,0.052
21.605,0.022
21.610,-0.001
21.615,0.044
21.620,0.048
21.625,-0.010
21.630,0.016
21.635,0.076
21.640,0.036
21.645,0.032
21.650,0.111
21.655,0.112
21.660,0.078
21.665,0.119
21.670,0.133
21.675,0.070
21.680,0.088
21.685,0.142
21.690,0.088
21.695,0.072
21.700,0.156
21.705,0.150
21.710,0.068
21.715,0.077
21.720,0.080
21.725,0.013
21.730,0.016
21.735,0.020
21.740,-0.064
21.745,-0.091
21.750,-0.048
21.755,-0.075
21.760,-0.110
21.765,-0.080
21.770,-0.079
21.775,-0.113
21.780,-0.076
21.785,-0.022
21.790,-0.058
21.795,-0.070
21.800,-0.011
21.805,-0.033
21.810,-0.067
21.815,-0.011
21.820,0.008
21.825,0.035
21.830,0.286
21.835,0.691
21.840,1.039
21.845,1.405
21.850,1.772
21.855,1.667
21.860,0.855
21.865,-0.094
21.870,-0.549
21.875,-0.613
21.880,-0.544
21.885,-0.416
21.890,-0.425
21.895,-0.466
21.900,-0.379
21.905,-0.378
21.910,-0.425
21.915,-0.362
21.920,-0.314
21.925,-0.321
21.930,-0.294
21.935,-0.279
21.940,-0.330
21.945,-0.320
21.950,-0.239
21.955,-0.235
21.960,-0.260
21.965,-0.212
21.970,-0.182
21.975,-0.218
21.980,-0.200
21.985,-0.145
21.990,-0.170
21.995,-0.173
22.000,-0.113
22.005,-0.126
22.010,-0.155
22.015,-0.094
22.020,-0.054
22.025,-0.098
22.030,-0.087
22.035,-0.019
22.040,-0.043
22.045,-0.061
22.050,0.007
22.055,0.004
22.060,-0.032
22.065,0.027
22.070,0.064
22.075,0.031
22.080,0.063
22.085,0.128
22.090,0.115
22.095,0.112
22.100,0.164
22.105,0.148
22.110,0.118
22.115,0.186
22.120,0.219
22.125,0.177
22.130,0.217
22.135,0.276
22.140,0.223
22.145,0.174
22.150,0.189
22.155,0.136
22.160,0.056
22.165,0.058
22.170,0.031
22.175,-0.077
22.180,-0.097
22.185,-0.054
22.190,-0.107
22.195,-0.146
22.200,-0.099
22.205,-0.127
22.210,-0.172
22.215,-0.115
22.220,-0.100
22.225,-0.146
22.230,-0.115
22.235,-0.070
22.240,-0.117
22.245,-0.135
22.250,-0.066
22.255,-0.071
22.260,-0.112
22.265,-0.044
22.270,-0.015
22.275,-0.090
22.280,-0.075
22.285,-0.016
22.290,-0.047
22.295,-0.040
22.300,-0.012
22.305,-0.079
22.310,-0.086
22.315,0.005
22.320,0.000
22.325,-0.069
22.330,-0.025
22.335,0.018
22.340,-0.047
22.345,-0.050
22.350,0.014
22.355,0.015
22.360,0.001
22.365,0.034
22.370,0.030
22.375,-0.006
22.380,0.040
22.385,0.077
22.390,0.020
22.395,0.002
22.400,0.048
22.405,0.044
22.410,0.015
22.415,0.054
22.420,0.074
22.425,0.002
22.430,0.003
22.435,0.058
22.440,0.028
22.445,0.019
22.450,0.063
22.455,0.033
22.460,-0.012
22.465,0.043
22.470,0.068
22.475,0.003
22.480,0.013
22.485,0.062
22.490,0.010
22.495,-0.028
22.500,0.049
22.505,0.058
22.510,-0.018
22.515,0.034
22.520,0.066
22.525,-0.003
22.530,0.014
22.535,0.040
22.540,-0.009
22.545,-0.014
22.550,0.041
22.555,0.026
22.560,-0.021
22.565,0.023
22.570,0.045
22.575,0.001
22.580,0.034
22.585,0.074
22.590,0.006
22.595,-0.006
22.600,0.076
22.605,0.066
22.610,0.019
22.615,0.101
22.620,0.142
22.625,0.063
22.630,0.084
22.635,0.131
22.640,0.079
22.645,0.084
22.650,0.151
22.655,0.112
22.660,0.054
22.665,0.106
22.670,0.113
22.675,0.024
22.680,0.032
22.685,0.079
22.690,0.005
22.695,-0.040
22.700,-0.007
22.705,-0.057
22.710,-0.118
22.715,-0.086
22.720,-0.080
22.725,-0.117
22.730,-0.090
22.735,-0.059
22.740,-0.102
22.745,-0.109
22.750,-0.039
22.755,-0.048
22.760,-0.093
22.765,-0.034
22.770,-0.022
22.775,-0.076
22.780,-0.006
22.785,0.143
22.790,0.317
22.795,0.639
22.800,1.058
22.805,1.386
22.810,1.639
22.815,1.593
22.820,0.870
22.825,-0.087
22.830,-0.538
22.835,-0.571
22.840,-0.575
22.845,-0.530
22.850,-0.436
22.855,-0.450
22.860,-0.475
22.865,-0.380
22.870,-0.349
22.875,-0.411
22.880,-0.368
22.885,-0.299
22.890,-0.337
22.895,-0.342
22.900,-0.268
22.905,-0.278
22.910,-0.305
22.915,-0.228
22.920,-0.202
22.925,-0.259
22.930,-0.232
22.935,-0.185
22.940,-0.221
22.945,-0.213
22.950,-0.146
22.955,-0.165
22.960,-0.187
22.965,-0.103
22.970,-0.076
22.975,-0.133
22.980,-0.112
22.985,-0.079
22.990,-0.124
22.995,-0.094
23.000,-0.006
23.005,-0.020
23.010,-0.057
23.015,-0.017
23.020,0.001
23.025,-0.014
23.030,0.037
23.035,0.082
23.040,0.049
23.045,0.063
23.050,0.135
23.055,0.127
23.060,0.120
23.065,0.199
23.070,0.207
23.075,0.152
23.080,0.191
23.085,0.253
23.090,0.228
23.095,0.210
23.100,0.231
23.105,0.195
23.110,0.124
23.115,0.111
23.120,0.083
23.125,-0.007
23.130,-0.014
23.135,-0.001
23.140,-0.104
23.145,-0.148
23.150,-0.105
23.155,-0.137
23.160,-0.164
23.165,-0.106
23.170,-0.089
23.175,-0.134
23.180,-0.123
23.185,-0.089
23.190,-0.131
23.195,-0.136
23.200,-0.062
23.205,-0.086
23.210,-0.126
23.215,-0.054
23.220,-0.049
23.225,-0.114
23.230,-0.061
23.235,0.012
23.240,-0.045
23.245,-0.066
23.250,0.014
23.255,0.003
23.260,-0.044
23.265,-0.001
23.270,-0.004
23.275,-0.064
23.280,-0.029
23.285,0.020
23.290,-0.028
23.295,-0.029
23.300,0.019
23.305,-0.022
23.310,-0.063
23.315,0.012
23.320,0.034
23.325,-0.046
23.330,-0.024
23.335,0.043
23.340,0.004
23.345,-0.021
23.350,0.013
23.355,0.011
23.360,-0.006
23.365,0.019
23.370,0.022
23.375,-0.027
23.380,0.002
23.385,0.052
23.390,-0.011
23.395,-0.024
23.400,0.037
23.405,0.005
23.410,-0.033
23.415,0.024
23.420,0.036
23.425,-0.030
23.430,-0.001
23.435,0.062
23.440,-0.009
23.445,-0.034
23.450,0.048
23.455,0.025
23.460,-0.025
23.465,0.021
23.470,0.030
23.475,-0.020
23.480,0.008
23.485,0.049
23.490,-0.018
23.495,-0.036
23.500,0.045
23.505,0.036
23.510,-0.013
23.515,0.032
23.520,0.042
23.525,-0.015
23.530,0.009
23.535,0.040
23.540,-0.013
23.545,-0.010
23.550,0.044
23.555,0.019
23.560,-0.004
23.565,0.042
23.570,0.048
23.575,-0.015
23.580,0.006
23.585,0.091
23.590,0.076
23.595,0.072
23.600,0.135
23.605,0.096
23.610,0.046
23.615,0.109
23.620,0.122
23.625,0.095
23.630,0.156
23.635,0.152
23.640,0.052
23.645,0.051
23.650,0.105
23.655,0.059
23.660,0.027
23.665,0.076
23.670,0.033
23.675,-0.062
23.680,-0.050
23.685,-0.033
23.690,-0.095
23.695,-0.108
23.700,-0.062
23.705,-0.076
23.710,-0.098
23.715,-0.049
23.720,-0.045
23.725,-0.099
23.730,-0.061
23.735,-0.009
23.740,-0.080
23.745,-0.095
23.750,0.000
23.755,-0.010
23.760,-0.030
23.765,0.145
23.770,0.409
23.775,0.709
23.780,1.100
23.785,1.485
23.790,1.717
23.795,1.506
23.800,0.710
23.805,-0.201
23.810,-0.611
23.815,-0.553
23.820,-0.485
23.825,-0.486
23.830,-0.428
23.835,-0.367
23.840,-0.392
23.845,-0.399
23.850,-0.336
23.855,-0.350
23.860,-0.384
23.865,-0.317
23.870,-0.284
23.875,-0.319
23.880,-0.294
23.885,-0.250
23.890,-0.273
23.895,-0.284
23.900,-0.212
23.905,-0.196
23.910,-0.234
23.915,-0.187
23.920,-0.163
23.925,-0.199
23.930,-0.145
23.935,-0.102
23.940,-0.167
23.945,-0.154
23.950,-0.064
23.955,-0.081
23.960,-0.118
23.965,-0.066
23.970,-0.057
23.975,-0.103
23.980,-0.063
23.985,0.006
23.990,-0.008
23.995,-0.015
24.000,0.019
24.005,0.004
24.010,0.013
24.015,0.089
24.020,0.098
24.025,0.066
24.030,0.134
24.035,0.181
24.040,0.122
24.045,0.145
24.050,0.237
24.055,0.222
24.060,0.184
24.065,0.246
24.070,0.262
24.075,0.212
24.080,0.235
24.085,0.240
24.090,0.148
24.095,0.099
24.100,0.121
24.105,0.048
24.110,-0.060
24.115,-0.041
24.120,-0.044
24.125,-0.130
24.130,-0.123
24.135,-0.097
24.140,-0.159
24.145,-0.169
24.150,-0.109
24.155,-0.122
24.160,-0.144
24.165,-0.101
24.170,-0.097
24.175,-0.133
24.180,-0.101
24.185,-0.058
24.190,-0.078
24.195,-0.080
24.200,-0.044
24.205,-0.071
24.210,-0.101
24.215,-0.038
24.220,-0.023
24.225,-0.083
24.230,-0.055
24.235,0.001
24.240,-0.041
24.245,-0.049
24.250,0.019
24.255,-0.005
24.260,-0.047
24.265,-0.008
24.270,-0.008
24.275,-0.034
24.280,-0.009
24.285,0.011
24.290,-0.022
24.295,-0.032
24.300,0.034
24.305,0.040
24.310,-0.002
24.315,0.028
24.320,0.037
24.325,0.008
24.330,0.040
24.335,0.066
24.340,0.021
24.345,0.022
24.350,0.078
24.355,0.041
24.360,-0.003
24.365,0.068
24.370,0.079
24.375,0.010
24.380,0.044
24.385,0.076
24.390,0.012
24.395,0.019
24.400,0.078
24.405,0.033
24.410,-0.011
24.415,0.048
24.420,0.060
24.425,0.000
24.430,0.030
24.435,0.084
24.440,0.025
24.445,-0.004
24.450,0.041
24.455,0.005
24.460,-0.025
24.465,0.042
24.470,0.049
24.475,-0.004
24.480,0.026
24.485,0.057
24.490,-0.004
24.495,-0.004
24.500,0.061
24.505,0.028
24.510,-0.024
24.515,0.025
24.520,0.040
24.525,-0.009
24.530,0.028
24.535,0.060
24.540,0.002
24.545,0.031
24.550,0.121
24.555,0.095
24.560,0.050
24.565,0.110
24.570,0.126
24.575,0.067
24.580,0.083
24.585,0.121
24.590,0.093
24.595,0.079
24.600,0.112
24.605,0.102
24.610,0.051
24.615,0.058
24.620,0.050
24.625,-0.024
24.630,-0.020
24.635,0.009
24.640,-0.063
24.645,-0.096
24.650,-0.063
24.655,-0.098
24.660,-0.120
24.665,-0.070
24.670,-0.073
24.675,-0.117
24.680,-0.079
24.685,-0.044
24.690,-0.100
24.695,-0.102
24.700,-0.037
24.705,-0.053
24.710,-0.091
24.715,-0.036
24.720,0.006
24.725,0.081
24.730,0.387
24.735,0.788
24.740,1.073
24.745,1.409
24.750,1.745
24.755,1.519
24.760,0.691
24.765,-0.121
24.770,-0.529
24.775,-0.600
24.780,-0.526
24.785,-0.458
24.790,-0.480
24.795,-0.471
24.800,-0.397
24.805,-0.406
24.810,-0.417
24.815,-0.346
24.820,-0.331
24.825,-0.376
24.830,-0.339
24.835,-0.269
24.840,-0.285
24.845,-0.287
24.850,-0.240
24.855,-0.264
24.860,-0.272
24.865,-0.188
24.870,-0.182
24.875,-0.231
24.880,-0.170
24.885,-0.121
24.890,-0.173
24.895,-0.170
24.900,-0.094
24.905,-0.107
24.910,-0.144
24.915,-0.070
24.920,-0.049
24.925,-0.112
24.930,-0.071
24.935,-0.016
24.940,-0.059
24.945,-0.042
24.950,0.037
24.955,0.018
24.960,0.002
24.965,0.090
24.970,0.092
24.975,0.020
24.980,0.087
24.985,0.155
24.990,0.096
24.995,0.128
25.000,0.225
25.005,0.196
25.010,0.161
25.015,0.234
25.020,0.258
25.025,0.206
25.030,0.224
25.035,0.254
25.040,0.207
25.045,0.197
25.050,0.194
25.055,0.094
25.060,0.015
25.065,0.021
25.070,-0.023
25.075,-0.113
25.080,-0.108
25.085,-0.107
25.090,-0.185
25.095,-0.198
25.100,-0.155
25.105,-0.162
25.110,-0.182
25.115,-0.141
25.120,-0.131
25.125,-0.172
25.130,-0.132
25.135,-0.105
25.140,-0.179
25.145,-0.172
25.150,-0.099
25.155,-0.114
25.160,-0.130
25.165,-0.086
25.170,-0.099
25.175,-0.136
25.180,-0.082
25.185,-0.061
25.190,-0.128
25.195,-0.107
25.200,-0.038
25.205,-0.064
25.210,-0.094
25.215,-0.034
25.220,-0.017
25.225,-0.076
25.230,-0.060
25.235,-0.015
25.240,-0.042
25.245,-0.035
25.250,0.008
25.255,-0.036
25.260,-0.063
25.265,0.012
25.270,0.011
25.275,-0.047
25.280,0.006
25.285,0.039
25.290,-0.026
25.295,-0.014
25.300,0.040
25.305,0.007
25.310,-0.008
25.315,0.053
25.320,0.049
25.325,-0.014
25.330,0.018
25.335,0.056
25.340,0.003
25.345,0.004
25.350,0.055
25.355,0.032
25.360,0.007
25.365,0.053
25.370,0.059
25.375,0.011
25.380,0.031
25.385,0.041
25.390,-0.020
25.395,0.012
25.400,0.082
25.405,0.035
25.410,-0.003
25.415,0.043
25.420,0.046
25.425,0.004
25.430,0.026
25.435,0.042
25.440,-0.005
25.445,0.009
25.450,0.061
25.455,0.042
25.460,0.021
25.465,0.063
25.470,0.065
25.475,0.000
25.480,0.012
25.485,0.068
25.490,0.042
25.495,0.028
25.500,0.055
25.505,0.025
25.510,0.010
25.515,0.086
25.520,0.115
25.525,0.071
25.530,0.089
25.535,0.123
25.540,0.090
25.545,0.092
25.550,0.134
25.555,0.105
25.560,0.089
25.565,0.142
25.570,0.132
25.575,0.079
25.580,0.098
25.585,0.109
25.590,0.050
25.595,0.029
25.600,0.043
25.605,-0.030
25.610,-0.087
25.615,-0.042
25.620,-0.029
25.625,-0.085
25.630,-0.101
25.635,-0.084
25.640,-0.117
25.645,-0.089
25.650,-0.023
25.655,-0.070
25.660,-0.086
25.665,-0.007
25.670,-0.024
25.675,-0.086
25.680,-0.034
25.685,0.013
25.690,0.000
25.695,0.143
25.700,0.481
25.705,0.816
25.710,1.138
25.715,1.546
25.720,1.793
25.725,1.430
25.730,0.563
25.735,-0.235
25.740,-0.626
25.745,-0.602
25.750,-0.464
25.755,-0.466
25.760,-0.480
25.765,-0.404
25.770,-0.377
25.775,-0.417
25.780,-0.369
25.785,-0.325
25.790,-0.379
25.795,-0.336
25.800,-0.251
25.805,-0.315
25.810,-0.345
25.815,-0.254
25.820,-0.244
25.825,-0.276
25.830,-0.206
25.835,-0.169
25.840,-0.212
25.845,-0.200
25.850,-0.166
25.855,-0.181
25.860,-0.172
25.865,-0.112
25.870,-0.113
25.875,-0.159
25.880,-0.108
25.885,-0.067
25.890,-0.129
25.895,-0.119
25.900,-0.041
25.905,-0.053
25.910,-0.069
25.915,-0.012
25.920,-0.014
25.925,-0.051
25.930,0.009
25.935,0.082
25.940,0.058
25.945,0.049
25.950,0.080
25.955,0.075
25.960,0.102
25.965,0.166
25.970,0.159
25.975,0.132
25.980,0.192
25.985,0.233
25.990,0.194
25.995,0.228
26.000,0.305
26.005,0.252
26.010,0.189
26.015,0.231
26.020,0.191
26.025,0.062
26.030,0.035
26.035,0.051
26.040,-0.029
26.045,-0.086
26.050,-0.059
26.055,-0.103
26.060,-0.155
26.065,-0.112
26.070,-0.131
26.075,-0.180
26.080,-0.119
26.085,-0.101
26.090,-0.162
26.095,-0.131
26.100,-0.076
26.105,-0.116
26.110,-0.137
26.115,-0.078
26.120,-0.067
26.125,-0.108
26.130,-0.079
26.135,-0.048
26.140,-0.099
26.145,-0.080
26.150,-0.014
26.155,-0.058
26.160,-0.086
26.165,-0.015
26.170,-0.011
26.175,-0.065
26.180,-0.030
26.185,0.006
26.190,-0.053
26.195,-0.063
26.200,0.000
26.205,-0.013
26.210,-0.040
26.215,0.018
26.220,0.014
26.225,-0.034
26.230,0.036
26.235,0.064
26.240,-0.032
26.245,-0.031
26.250,0.054
26.255,0.034
26.260,-0.004
26.265,0.054
26.270,0.068
26.275,0.010
26.280,0.045
26.285,0.088
26.290,0.027
26.295,0.024
26.300,0.089
26.305,0.053
26.310,0.000
26.315,0.041
26.320,0.042
26.325,-0.006
26.330,0.036
26.335,0.079
26.340,0.030
26.345,0.021
26.350,0.054
26.355,0.016
26.360,0.002
26.365,0.064
26.370,0.052
26.375,-0.006
26.380,0.047
26.385,0.078
26.390,0.001
26.395,0.006
26.400,0.059
26.405,0.016
26.410,-0.018
26.415,0.050
26.420,0.055
26.425,-0.025
26.430,0.015
26.435,0.065
26.440,0.000
26.445,0.019
26.450,0.071
26.455,0.013
26.460,-0.006
26.465,0.048
26.470,0.036
26.475,0.026
26.480,0.104
26.485,0.147
26.490,0.089
26.495,0.095
26.500,0.142
26.505,0.069
26.510,0.056
26.515,0.154
26.520,0.127
26.525,0.048
26.530,0.098
26.535,0.127
26.540,0.049
26.545,0.040
26.550,0.079
26.555,0.008
26.560,-0.057
26.565,-0.013
26.570,-0.040
26.575,-0.128
26.580,-0.082
26.585,-0.036
26.590,-0.108
26.595,-0.108
26.600,-0.042
26.605,-0.071
26.610,-0.097
26.615,-0.041
26.620,-0.051
26.625,-0.091
26.630,-0.039
26.635,-0.023
26.640,-0.058
26.645,-0.015
26.650,0.077
26.655,0.215
26.660,0.512
26.665,0.914
26.670,1.264
26.675,1.570
26.680,1.696
26.685,1.200
26.690,0.229
26.695,-0.416
26.700,-0.550
26.705,-0.576
26.710,-0.548
26.715,-0.440
26.720,-0.418
26.725,-0.453
26.730,-0.403
26.735,-0.360
26.740,-0.398
26.745,-0.380
26.750,-0.325
26.755,-0.351
26.760,-0.351
26.765,-0.274
26.770,-0.267
26.775,-0.290
26.780,-0.244
26.785,-0.228
26.790,-0.272
26.795,-0.246
26.800,-0.153
26.805,-0.172
26.810,-0.232
26.815,-0.173
26.820,-0.156
26.825,-0.195
26.830,-0.138
26.835,-0.110
26.840,-0.154
26.845,-0.115
26.850,-0.060
26.855,-0.101
26.860,-0.109
26.865,-0.025
26.870,-0.007
26.875,-0.055
26.880,-0.022
26.885,0.018
26.890,-0.017
26.895,0.011
26.900,0.084
26.905,0.057
26.910,0.037
26.915,0.122
26.920,0.153
26.925,0.113
26.930,0.158
26.935,0.200
26.940,0.149
26.945,0.175
26.950,0.256
26.955,0.235
26.960,0.203
26.965,0.238
26.970,0.216
26.975,0.136
26.980,0.130
26.985,0.112
26.990,0.000
26.995,-0.038
27.000,-0.027
27.005,-0.106
27.010,-0.143
27.015,-0.097
27.020,-0.123
27.025,-0.180
27.030,-0.144
27.035,-0.108
27.040,-0.147
27.045,-0.146
27.050,-0.109
27.055,-0.138
27.060,-0.150
27.065,-0.089
27.070,-0.088
27.075,-0.127
27.080,-0.086
27.085,-0.062
27.090,-0.098
27.095,-0.071
27.100,-0.032
27.105,-0.077
27.110,-0.104
27.115,-0.046
27.120,-0.030
27.125,-0.073
27.130,-0.047
27.135,-0.021
27.140,-0.070
27.145,-0.045
27.150,0.014
27.155,-0.022
27.160,-0.045
27.165,-0.010
27.170,-0.023
27.175,-0.039
27.180,0.022
27.185,0.033
27.190,-0.023
27.195,0.010
27.200,0.062
27.205,-0.008
27.210,-0.038
27.215,0.053
27.220,0.060
27.225,-0.006
27.230,0.034
27.235,0.060
27.240,-0.013
27.245,0.005
27.250,0.066
27.255,0.029
27.260,0.019
27.265,0.066
27.270,0.035
27.275,-0.014
27.280,0.046
27.285,0.069
27.290,0.000
27.295,0.014
27.300,0.065
27.305,0.025
27.310,0.008
27.315,0.060
27.320,0.038
27.325,-0.009
27.330,0.028
27.335,0.052
27.340,0.020
27.345,0.026
27.350,0.058
27.355,0.009
27.360,-0.021
27.365,0.038
27.370,0.032
27.375,-0.003
27.380,0.047
27.385,0.051
27.390,-0.014
27.395,0.007
27.400,0.063
27.405,0.019
27.410,0.001
27.415,0.064
27.420,0.026
27.425,-0.029
27.430,0.027
27.435,0.039
27.440,-0.014
27.445,0.029
27.450,0.097
27.455,0.044
27.460,0.021
27.465,0.100
27.470,0.111
27.475,0.082
27.480,0.124
27.485,0.126
27.490,0.060
27.495,0.074
27.500,0.136
27.505,0.100
27.510,0.069
27.515,0.129
27.520,0.116
27.525,0.048
27.530,0.069
27.535,0.052
27.540,-0.030
27.545,-0.033
27.550,-0.009
27.555,-0.064
27.560,-0.103
27.565,-0.064
27.570,-0.086
27.575,-0.128
27.580,-0.059
27.585,-0.032
27.590,-0.103
27.595,-0.093
27.600,-0.032
27.605,-0.074
27.610,-0.108
27.615,-0.040
27.620,-0.029
27.625,-0.057
27.630,0.011
27.635,0.117
27.640,0.280
27.645,0.629
27.650,1.049
27.655,1.371
27.660,1.660
27.665,1.663
27.670,0.952
27.675,-0.028
27.680,-0.516
27.685,-0.596
27.690,-0.585
27.695,-0.480
27.700,-0.411
27.705,-0.459
27.710,-0.436
27.715,-0.349
27.720,-0.382
27.725,-0.425
27.730,-0.338
27.735,-0.297
27.740,-0.358
27.745,-0.343
27.750,-0.273
27.755,-0.290
27.760,-0.298
27.765,-0.227
27.770,-0.226
27.775,-0.268
27.780,-0.206
27.785,-0.181
27.790,-0.226
27.795,-0.176
27.800,-0.111
27.805,-0.152
27.810,-0.183
27.815,-0.124
27.820,-0.110
27.825,-0.144
27.830,-0.096
27.835,-0.069
27.840,-0.104
27.845,-0.057
27.850,-0.004
27.855,-0.063
27.860,-0.088
27.865,-0.006
27.870,0.016
27.875,-0.012
27.880,0.043
27.885,0.102
27.890,0.088
27.895,0.085
27.900,0.108
27.905,0.113
27.910,0.139
27.915,0.200
27.920,0.196
27.925,0.159
27.930,0.212
27.935,0.252
27.940,0.212
27.945,0.233
27.950,0.272
27.955,0.197
27.960,0.139
27.965,0.166
27.970,0.104
27.975,-0.001
27.980,0.004
27.985,-0.012
27.990,-0.110
27.995,-0.121
28.000,-0.083
28.005,-0.132
28.010,-0.159
28.015,-0.112
28.020,-0.125
28.025,-0.166
28.030,-0.130
28.035,-0.107
28.040,-0.136
28.045,-0.112
28.050,-0.066
28.055,-0.101
28.060,-0.115
28.065,-0.053
28.070,-0.068
28.075,-0.111
28.080,-0.049
28.085,-0.032
28.090,-0.092
28.095,-0.062
28.100,-0.022
28.105,-0.064
28.110,-0.072
28.115,-0.020
28.120,-0.032
28.125,-0.063
28.130,-0.004
28.135,0.016
28.140,-0.051
28.145,-0.028
28.150,0.033
28.155,-0.022
28.160,-0.032
28.165,0.051
28.170,0.034
28.175,-0.031
28.180,0.018
28.185,0.064
28.190,0.005
28.195,0.009
28.200,0.072
28.205,0.026
28.210,-0.006
28.215,0.074
28.220,0.078
28.225,0.010
28.230,0.049
28.235,0.074
28.240,0.005
28.245,0.028
28.250,0.100
28.255,0.050
28.260,0.005
28.265,0.063
28.270,0.073
28.275,0.039
28.280,0.058
28.285,0.045
28.290,-0.022
28.295,-0.007
28.300,0.056
28.305,0.039
28.310,0.017
28.315,0.052
28.320,0.043
28.325,0.007
28.330,0.047
28.335,0.069
28.340,0.005
28.345,0.013
28.350,0.065
28.355,0.013
28.360,-0.013
28.365,0.052
28.370,0.049
28.375,-0.002
28.380,0.033
28.385,0.072
28.390,0.023
28.395,0.015
28.400,0.073
28.405,0.052
28.410,0.035
28.415,0.113
28.420,0.125
28.425,0.085
28.430,0.126
28.435,0.131
28.440,0.077
28.445,0.109
28.450,0.139
28.455,0.082
28.460,0.072
28.465,0.128
28.470,0.113
28.475,0.054
28.480,0.065
28.485,0.073
28.490,0.004
28.495,-0.023
28.500,-0.004
28.505,-0.060
28.510,-0.097
28.515,-0.042
28.520,-0.070
28.525,-0.134
28.530,-0.074
28.535,-0.038
28.540,-0.093
28.545,-0.096
28.550,-0.053
28.555,-0.081
28.560,-0.098
28.565,-0.020
28.570,-0.018
28.575,-0.080
28.580,-0.026
28.585,0.049
28.590,0.113
28.595,0.393
28.600,0.825
28.605,1.151
28.610,1.464
28.615,1.721
28.620,1.429
28.625,0.584
28.630,-0.195
28.635,-0.558
28.640,-0.615
28.645,-0.528
28.650,-0.440
28.655,-0.472
28.660,-0.484
28.665,-0.396
28.670,-0.388
28.675,-0.420
28.680,-0.353
28.685,-0.325
28.690,-0.376
28.695,-0.335
28.700,-0.268
28.705,-0.318
28.710,-0.328
28.715,-0.235
28.720,-0.230
28.725,-0.258
28.730,-0.192
28.735,-0.189
28.740,-0.261
28.745,-0.207
28.750,-0.127
28.755,-0.173
28.760,-0.174
28.765,-0.104
28.770,-0.125
28.775,-0.165
28.780,-0.120
28.785,-0.100
28.790,-0.139
28.795,-0.103
28.800,-0.050
28.805,-0.085
28.810,-0.064
28.815,0.010
28.820,-0.012
28.825,-0.035
28.830,0.034
28.835,0.066
28.840,0.044
28.845,0.072
28.850,0.110
28.855,0.087
28.860,0.103
28.865,0.181
28.870,0.178
28.875,0.156
28.880,0.221
28.885,0.230
28.890,0.175
28.895,0.197
28.900,0.254
28.905,0.221
28.910,0.159
28.915,0.156
28.920,0.107
28.925,0.024
28.930,0.002
28.935,-0.045
28.940,-0.126
28.945,-0.118
28.950,-0.078
28.955,-0.137
28.960,-0.180
28.965,-0.132
28.970,-0.133
28.975,-0.184
28.980,-0.150
28.985,-0.105
28.990,-0.147
28.995,-0.124
29.000,-0.069
29.005,-0.124
29.010,-0.128
29.015,-0.051
29.020,-0.085
29.025,-0.152
29.030,-0.090
29.035,-0.046
29.040,-0.092
29.045,-0.068
29.050,-0.010
29.055,-0.057
29.060,-0.089
29.065,-0.021
29.070,-0.034
29.075,-0.093
29.080,-0.029
29.085,-0.003
29.090,-0.065
29.095,-0.006
29.100,0.073
29.105,-0.014
29.110,-0.062
29.115,0.008
29.120,-0.024
29.125,-0.075
29.130,0.014
29.135,0.053
29.140,-0.029
29.145,-0.021
29.150,0.036
29.155,-0.001
29.160,0.010
29.165,0.070
29.170,0.019
29.175,-0.018
29.180,0.063
29.185,0.085
29.190,0.016
29.195,0.028
29.200,0.083
29.205,0.035
29.210,0.005
29.215,0.060
29.220,0.030
29.225,-0.019
29.230,0.049
29.235,0.073
29.240,-0.001
29.245,0.017
29.250,0.081
29.255,0.032
29.260,0.001
29.265,0.041
29.270,0.022
29.275,0.021
29.280,0.084
29.285,0.051
29.290,-0.033
29.295,0.004
29.300,0.067
29.305,0.018
29.310,-0.009
29.315,0.056
29.320,0.043
29.325,-0.016
29.330,0.031
29.335,0.058
29.340,-0.012
29.345,0.009
29.350,0.080
29.355,0.033
29.360,0.004
29.365,0.053
29.370,0.028
29.375,-0.016
29.380,0.030
29.385,0.051
29.390,0.011
29.395,0.055
29.400,0.126
29.405,0.084
29.410,0.074
29.415,0.153
29.420,0.124
29.425,0.043
29.430,0.092
29.435,0.149
29.440,0.096
29.445,0.098
29.450,0.151
29.455,0.096
29.460,0.036
29.465,0.056
29.470,0.037
29.475,-0.001
29.480,0.015
29.485,-0.034
29.490,-0.128
29.495,-0.119
29.500,-0.060
29.505,-0.072
29.510,-0.095
29.515,-0.065
29.520,-0.092
29.525,-0.134
29.530,-0.053
29.535,0.000
29.540,-0.095
29.545,-0.095
29.550,-0.016
29.555,-0.060
29.560,-0.060
29.565,0.045
29.570,0.125
29.575,0.307
29.580,0.720
29.585,1.116
29.590,1.399
29.595,1.704
29.600,1.592
29.605,0.741
29.610,-0.175
29.615,-0.558
29.620,-0.621
29.625,-0.574
29.630,-0.428
29.635,-0.398
29.640,-0.460
29.645,-0.400
29.650,-0.328
29.655,-0.387
29.660,-0.401
29.665,-0.319
29.670,-0.321
29.675,-0.361
29.680,-0.304
29.685,-0.267
29.690,-0.315
29.695,-0.267
29.700,-0.191
29.705,-0.223
29.710,-0.227
29.715,-0.179
29.720,-0.183
29.725,-0.177
29.730,-0.125
29.735,-0.138
29.740,-0.202
29.745,-0.155
29.750,-0.081
29.755,-0.113
29.760,-0.128
29.765,-0.081
29.770,-0.084
29.775,-0.096
29.780,-0.034
29.785,-0.020
29.790,-0.073
29.795,-0.025
29.800,0.033
29.805,0.003
29.810,0.048
29.815,0.123
29.820,0.061
29.825,0.017
29.830,0.117
29.835,0.131
29.840,0.040
29.845,0.117
29.850,0.225
29.855,0.173
29.860,0.169
29.865,0.240
29.870,0.222
29.875,0.187
29.880,0.234
29.885,0.236
29.890,0.155
29.895,0.143
29.900,0.157
29.905,0.075
29.910,0.004
29.915,-0.006
29.920,-0.060
29.925,-0.120
29.930,-0.079
29.935,-0.072
29.940,-0.156
29.945,-0.164
29.950,-0.133
29.955,-0.160
29.960,-0.160
29.965,-0.138
29.970,-0.160
29.975,-0.147
29.980,-0.096
29.985,-0.102
29.990,-0.142
29.995,-0.106
30.000,-0.049
30.005,-0.087
30.010,-0.106
30.015,-0.053
30.020,-0.070
30.025,-0.103
30.030,-0.034
30.035,0.007
30.040,-0.046
30.045,-0.060
30.050,-0.041
30.055,-0.082
30.060,-0.082
30.065,-0.013
30.070,-0.035
30.075,-0.057
30.080,0.010
30.085,0.003
30.090,-0.052
30.095,-0.012
30.100,0.038
30.105,-0.010
30.110,-0.025
30.115,0.024
30.120,0.002
30.125,-0.019
30.130,0.059
30.135,0.096
30.140,0.044
30.145,0.029
30.150,0.046
30.155,0.015
30.160,0.007
30.165,0.068
30.170,0.056
30.175,0.004
30.180,0.048
30.185,0.055
30.190,-0.001
30.195,0.031
30.200,0.081
30.205,0.037
30.210,0.015
30.215,0.064
30.220,0.039
30.225,0.000
30.230,0.058
30.235,0.076
30.240,0.012
30.245,0.016
30.250,0.058
30.255,0.034
30.260,0.028
30.265,0.050
30.270,0.019
30.275,-0.003
30.280,0.044
30.285,0.056
30.290,0.015
30.295,0.041
30.300,0.082
30.305,0.031
30.310,0.012
30.315,0.050
30.320,0.014
30.325,0.005
30.330,0.101
30.335,0.108
30.340,0.048
30.345,0.102
30.350,0.146
30.355,0.080
30.360,0.067
30.365,0.138
30.370,0.109
30.375,0.050
30.380,0.119
30.385,0.129
30.390,0.061
30.395,0.099
30.400,0.125
30.405,0.036
30.410,0.013
30.415,0.070
30.420,0.009
30.425,-0.062
30.430,-0.002
30.435,-0.025
30.440,-0.140
30.445,-0.108
30.450,-0.036
30.455,-0.089
30.460,-0.101
30.465,-0.037
30.470,-0.050
30.475,-0.094
30.480,-0.059
30.485,-0.036
30.490,-0.074
30.495,-0.037
30.500,0.010
30.505,-0.033
30.510,0.014
30.515,0.217
30.520,0.461
30.525,0.793
30.530,1.218
30.535,1.571
30.540,1.720
30.545,1.401
30.550,0.537
30.555,-0.289
30.560,-0.579
30.565,-0.546
30.570,-0.522
30.575,-0.494
30.580,-0.421
30.585,-0.403
30.590,-0.438
30.595,-0.378
30.600,-0.320
30.605,-0.376
30.610,-0.368
30.615,-0.292
30.620,-0.289
30.625,-0.304
30.630,-0.255
30.635,-0.236
30.640,-0.283
30.645,-0.248
30.650,-0.187
30.655,-0.225
30.660,-0.211
30.665,-0.143
30.670,-0.178
30.675,-0.213
30.680,-0.147
30.685,-0.112
30.690,-0.157
30.695,-0.137
30.700,-0.087
30.705,-0.113
30.710,-0.104
30.715,-0.053
30.720,-0.083
30.725,-0.093
30.730,-0.016
30.735,0.002
30.740,-0.051
30.745,-0.035
30.750,0.018
30.755,0.012
30.760,0.028
30.765,0.092
30.770,0.082
30.775,0.061
30.780,0.132
30.785,0.146
30.790,0.111
30.795,0.178
30.800,0.225
30.805,0.162
30.810,0.168
30.815,0.258
30.820,0.243
30.825,0.188
30.830,0.233
30.835,0.219
30.840,0.103
30.845,0.049
30.850,0.047
30.855,-0.017
30.860,-0.064
30.865,-0.053
30.870,-0.108
30.875,-0.158
30.880,-0.112
30.885,-0.116
30.890,-0.171
30.895,-0.142
30.900,-0.112
30.905,-0.147
30.910,-0.145
30.915,-0.118
30.920,-0.140
30.925,-0.143
30.930,-0.093
30.935,-0.091
30.940,-0.127
30.945,-0.083
30.950,-0.057
30.955,-0.128
30.960,-0.110
30.965,-0.036
30.970,-0.077
30.975,-0.101
30.980,-0.026
30.985,-0.014
30.990,-0.082
30.995,-0.062
31.000,-0.024
31.005,-0.077
31.010,-0.063
31.015,0.032
31.020,0.010
31.025,-0.078
31.030,-0.039
31.035,-0.006
31.040,-0.068
31.045,-0.038
31.050,0.033
31.055,-0.009
31.060,-0.032
31.065,0.022
31.070,0.008
31.075,-0.017
31.080,0.040
31.085,0.046
31.090,-0.020
31.095,0.013
31.100,0.068
31.105,0.016
31.110,0.006
31.115,0.064
31.120,0.028
31.125,-0.026
31.130,0.039
31.135,0.053
31.140,-0.018
31.145,0.021
31.150,0.054
31.155,-0.008
31.160,0.008
31.165,0.067
31.170,0.006
31.175,-0.047
31.180,0.036
31.185,0.060
31.190,-0.008
31.195,0.013
31.200,0.033
31.205,-0.023
31.210,-0.011
31.215,0.050
31.220,0.030
31.225,-0.006
31.230,0.032
31.235,0.056
31.240,0.013
31.245,0.002
31.250,0.041
31.255,0.006
31.260,-0.024
31.265,0.030
31.270,0.017
31.275,-0.021
31.280,0.038
31.285,0.060
31.290,0.024
31.295,0.075
31.300,0.122
31.305,0.082
31.310,0.091
31.315,0.135
31.320,0.114
31.325,0.092
31.330,0.145
31.335,0.169
31.340,0.082
31.345,0.053
31.350,0.101
31.355,0.061
31.360,0.028
31.365,0.079
31.370,0.046
31.375,-0.027
31.380,-0.008
31.385,-0.025
31.390,-0.091
31.395,-0.056
31.400,-0.039
31.405,-0.120
31.410,-0.106
31.415,-0.028
31.420,-0.065
31.425,-0.105
31.430,-0.041
31.435,-0.032
31.440,-0.088
31.445,-0.046
31.450,0.016
31.455,-0.034
31.460,-0.053
31.465,0.047
31.470,0.141
31.475,0.334
31.480,0.722
31.485,1.061
31.490,1.334
31.495,1.660
31.500,1.607
31.505,0.862
31.510,-0.020
31.515,-0.479
31.520,-0.600
31.525,-0.583
31.530,-0.486
31.535,-0.438
31.540,-0.448
31.545,-0.404
31.550,-0.372
31.555,-0.401
31.560,-0.365
31.565,-0.292
31.570,-0.314
31.575,-0.340
31.580,-0.287
31.585,-0.280
31.590,-0.323
31.595,-0.270
31.600,-0.194
31.605,-0.219
31.610,-0.243
31.615,-0.199
31.620,-0.206
31.625,-0.226
31.630,-0.165
31.635,-0.152
31.640,-0.180
31.645,-0.133
31.650,-0.111
31.655,-0.164
31.660,-0.153
31.665,-0.075
31.670,-0.073
31.675,-0.074
31.680,-0.015
31.685,-0.059
31.690,-0.112
31.695,-0.019
31.700,0.023
31.705,-0.031
31.710,0.006
31.715,0.066
31.720,0.045
31.725,0.053
31.730,0.125
31.735,0.128
31.740,0.092
31.745,0.145
31.750,0.173
31.755,0.125
31.760,0.153
31.765,0.228
31.770,0.221
31.775,0.214
31.780,0.272
31.785,0.249
31.790,0.169
31.795,0.162
31.800,0.128
31.805,0.025
31.810,-0.001
31.815,0.023
31.820,-0.047
31.825,-0.116
31.830,-0.090
31.835,-0.110
31.840,-0.177
31.845,-0.143
31.850,-0.111
31.855,-0.166
31.860,-0.155
31.865,-0.101
31.870,-0.141
31.875,-0.168
31.880,-0.107
31.885,-0.099
31.890,-0.143
31.895,-0.092
31.900,-0.037
31.905,-0.080
31.910,-0.090
31.915,-0.044
31.920,-0.074
31.925,-0.100
31.930,-0.029
31.935,-0.037
31.940,-0.113
31.945,-0.075
31.950,-0.017
31.955,-0.054
31.960,-0.062
31.965,-0.008
31.970,-0.018
31.975,-0.039
31.980,0.009
31.985,-0.007
31.990,-0.061
31.995,-0.009
32.000,0.027
32.005,-0.020
32.010,-0.008
32.015,0.045
32.020,0.014
32.025,-0.015
32.030,0.044
32.035,0.055
32.040,-0.014
32.045,0.006
32.050,0.071
32.055,0.036
32.060,0.028
32.065,0.078
32.070,0.014
32.075,-0.019
32.080,0.069
32.085,0.059
32.090,0.002
32.095,0.050
32.100,0.069
32.105,0.010
32.110,0.012
32.115,0.054
32.120,0.019
32.125,0.003
32.130,0.075
32.135,0.074
32.140,-0.001
32.145,0.020
32.150,0.061
32.155,0.007
32.160,0.009
32.165,0.075
32.170,0.034
32.175,-0.004
32.180,0.060
32.185,0.060
32.190,-0.003
32.195,0.027
32.200,0.080
32.205,0.026
32.210,-0.002
32.215,0.054
32.220,0.033
32.225,-0.010
32.230,0.038
32.235,0.058
32.240,0.029
32.245,0.078
32.250,0.134
32.255,0.080
32.260,0.088
32.265,0.153
32.270,0.107
32.275,0.096
32.280,0.160
32.285,0.135
32.290,0.086
32.295,0.132
32.300,0.162
32.305,0.083
32.310,0.051
32.315,0.093
32.320,0.057
32.325,-0.008
32.330,-0.001
32.335,-0.019
32.340,-0.105
32.345,-0.085
32.350,-0.026
32.355,-0.104
32.360,-0.117
32.365,-0.026
32.370,-0.047
32.375,-0.090
32.380,-0.033
32.385,-0.031
32.390,-0.090
32.395,-0.038
32.400,0.005
32.405,-0.059
32.410,-0.044
32.415,0.031
32.420,0.081
32.425,0.283
32.430,0.676
32.435,1.056
32.440,1.387
32.445,1.715
32.450,1.672
32.455,0.906
32.460,-0.047
32.465,-0.469
32.470,-0.543
32.475,-0.567
32.480,-0.456
32.485,-0.405
32.490,-0.463
32.495,-0.413
32.500,-0.349
32.505,-0.385
32.510,-0.375
32.515,-0.305
32.520,-0.318
32.525,-0.349
32.530,-0.293
32.535,-0.263
32.540,-0.294
32.545,-0.258
32.550,-0.221
32.555,-0.264
32.560,-0.241
32.565,-0.171
32.570,-0.207
32.575,-0.231
32.580,-0.136
32.585,-0.125
32.590,-0.198
32.595,-0.152
32.600,-0.103
32.605,-0.139
32.610,-0.110
32.615,-0.053
32.620,-0.090
32.625,-0.118
32.630,-0.047
32.635,-0.017
32.640,-0.059
32.645,-0.022
32.650,0.013
32.655,-0.035
32.660,-0.002
32.665,0.073
32.670,0.037
32.675,0.019
32.680,0.106
32.685,0.127
32.690,0.089
32.695,0.139
32.700,0.188
32.705,0.153
32.710,0.165
32.715,0.226
32.720,0.213
32.725,0.201
32.730,0.246
32.735,0.226
32.740,0.152
32.745,0.148
32.750,0.148
32.755,0.056
32.760,0.022
32.765,0.039
32.770,-0.071
32.775,-0.135
32.780,-0.070
32.785,-0.092
32.790,-0.159
32.795,-0.136
32.800,-0.122
32.805,-0.156
32.810,-0.120
32.815,-0.080
32.820,-0.141
32.825,-0.155
32.830,-0.078
32.835,-0.090
32.840,-0.157
32.845,-0.111
32.850,-0.073
32.855,-0.123
32.860,-0.096
32.865,-0.033
32.870,-0.064
32.875,-0.094
32.880,-0.050
32.885,-0.034
32.890,-0.076
32.895,-0.051
32.900,-0.016
32.905,-0.082
32.910,-0.069
32.915,0.008
32.920,-0.039
32.925,-0.072
32.930,0.001
32.935,0.014
32.940,-0.037
32.945,-0.005
32.950,0.035
32.955,-0.020
32.960,-0.018
32.965,0.044
32.970,0.013
32.975,-0.024
32.980,0.033
32.985,0.033
32.990,-0.011
32.995,0.052
33.000,0.073
33.005,-0.003
33.010,0.003
33.015,0.054
33.020,0.026
33.025,-0.003
33.030,0.048
33.035,0.035
33.040,-0.028
33.045,0.030
33.050,0.062
33.055,-0.020
33.060,-0.008
33.065,0.067
33.070,0.029
33.075,-0.012
33.080,0.033
33.085,0.035
33.090,-0.024
33.095,0.006
33.100,0.055
33.105,-0.006
33.110,-0.017
33.115,0.043
33.120,0.019
33.125,-0.014
33.130,0.032
33.135,0.036
33.140,-0.006
33.145,0.032
33.150,0.059
33.155,-0.007
33.160,-0.020
33.165,0.039
33.170,0.016
33.175,-0.015
33.180,0.041
33.185,0.049
33.190,0.015
33.195,0.048
33.200,0.090
33.205,0.073
33.210,0.086
33.215,0.134
33.220,0.100
33.225,0.074
33.230,0.124
33.235,0.107
33.240,0.066
33.245,0.109
33.250,0.124
33.255,0.076
33.260,0.079
33.265,0.102
33.270,0.047
33.275,0.012
33.280,0.041
33.285,0.016
33.290,-0.032
33.295,-0.016
33.300,-0.038
33.305,-0.129
33.310,-0.114
33.315,-0.033
33.320,-0.087
33.325,-0.132
33.330,-0.070
33.335,-0.079
33.340,-0.102
33.345,-0.045
33.350,-0.031
33.355,-0.068
33.360,-0.051
33.365,-0.011
33.370,-0.033
33.375,0.009
33.380,0.213
33.385,0.436
33.390,0.708
33.395,1.103
33.400,1.471
33.405,1.679
33.410,1.461
33.415,0.669
33.420,-0.206
33.425,-0.585
33.430,-0.561
33.435,-0.541
33.440,-0.534
33.445,-0.436
33.450,-0.389
33.455,-0.437
33.460,-0.413
33.465,-0.319
33.470,-0.330
33.475,-0.364
33.480,-0.295
33.485,-0.292
33.490,-0.334
33.495,-0.269
33.500,-0.231
33.505,-0.283
33.510,-0.272
33.515,-0.206
33.520,-0.226
33.525,-0.243
33.530,-0.187
33.535,-0.179
33.540,-0.197
33.545,-0.148
33.550,-0.121
33.555,-0.165
33.560,-0.151
33.565,-0.098
33.570,-0.124
33.575,-0.115
33.580,-0.033
33.585,-0.056
33.590,-0.117
33.595,-0.049
33.600,0.003
33.605,-0.047
33.610,-0.042
33.615,0.021
33.620,0.021
33.625,0.025
33.630,0.076
33.635,0.075
33.640,0.056
33.645,0.102
33.650,0.132
33.655,0.109
33.660,0.150
33.665,0.210
33.670,0.163
33.675,0.164
33.680,0.260
33.685,0.238
33.690,0.176
33.695,0.228
33.700,0.223
33.705,0.109
33.710,0.074
33.715,0.078
33.720,-0.008
33.725,-0.053
33.730,-0.015
33.735,-0.062
33.740,-0.143
33.745,-0.115
33.750,-0.099
33.755,-0.158
33.760,-0.142
33.765,-0.106
33.770,-0.164
33.775,-0.173
33.780,-0.103
33.785,-0.110
33.790,-0.130
33.795,-0.077
33.800,-0.089
33.805,-0.157
33.810,-0.110
33.815,-0.034
33.820,-0.084
33.825,-0.111
33.830,-0.045
33.835,-0.055
33.840,-0.087
33.845,-0.031
33.850,-0.023
33.855,-0.084
33.860,-0.061
33.865,-0.012
33.870,-0.037
33.875,-0.026
33.880,0.019
33.885,-0.030
33.890,-0.084
33.895,-0.020
33.900,0.025
33.905,-0.021
33.910,-0.005
33.915,0.041
33.920,0.000
33.925,-0.012
33.930,0.051
33.935,0.043
33.940,0.010
33.945,0.057
33.950,0.057
33.955,-0.009
33.960,0.009
33.965,0.058
33.970,0.028
33.975,0.019
33.980,0.069
33.985,0.042
33.990,-0.011
33.995,0.043
34.000,0.064
34.005,0.004
34.010,0.020
34.015,0.068
34.020,0.032
34.025,0.008
34.030,0.060
34.035,0.051
34.040,-0.006
34.045,0.038
34.050,0.069
34.055,0.012
34.060,0.023
34.065,0.049
34.070,0.004
34.075,0.007
34.080,0.069
34.085,0.070
34.090,0.014
34.095,0.024
34.100,0.054
34.105,0.018
34.110,0.024
34.115,0.070
34.120,0.035
34.125,0.021
34.130,0.073
34.135,0.065
34.140,0.048
34.145,0.102
34.150,0.114
34.155,0.062
34.160,0.079
34.165,0.141
34.170,0.131
34.175,0.115
34.180,0.156
34.185,0.132
34.190,0.070
34.195,0.124
34.200,0.153
34.205,0.063
34.210,0.048
34.215,0.081
34.220,0.018
34.225,-0.023
34.230,0.006
34.235,-0.036
34.240,-0.099
34.245,-0.065
34.250,-0.044
34.255,-0.105
34.260,-0.099
34.265,-0.045
34.270,-0.077
34.275,-0.086
34.280,-0.021
34.285,-0.032
34.290,-0.080
34.295,-0.033
34.300,-0.011
34.305,-0.048
34.310,-0.005
34.315,0.087
34.320,0.221
34.325,0.520
34.330,0.953
34.335,1.323
34.340,1.618
34.345,1.732
34.350,1.189
34.355,0.156
34.360,-0.466
34.365,-0.563
34.370,-0.577
34.375,-0.520
34.380,-0.407
34.385,-0.405
34.390,-0.428
34.395,-0.356
34.400,-0.341
34.405,-0.398
34.410,-0.341
34.415,-0.267
34.420,-0.308
34.425,-0.321
34.430,-0.274
34.435,-0.298
34.440,-0.317
34.445,-0.242
34.450,-0.221
34.455,-0.256
34.460,-0.216
34.465,-0.169
34.470,-0.195
34.475,-0.192
34.480,-0.129
34.485,-0.142
34.490,-0.178
34.495,-0.123
34.500,-0.092
34.505,-0.133
34.510,-0.115
34.515,-0.055
34.520,-0.086
34.525,-0.093
34.530,-0.021
34.535,-0.037
34.540,-0.074
34.545,-0.010
34.550,0.019
34.555,-0.013
34.560,0.023
34.565,0.081
34.570,0.056
34.575,0.036
34.580,0.101
34.585,0.130
34.590,0.120
34.595,0.166
34.600,0.180
34.605,0.133
34.610,0.163
34.615,0.237
34.620,0.215
34.625,0.193
34.630,0.237
34.635,0.204
34.640,0.114
34.645,0.111
34.650,0.096
34.655,0.003
34.660,0.000
34.665,0.019
34.670,-0.084
34.675,-0.138
34.680,-0.079
34.685,-0.101
34.690,-0.167
34.695,-0.121
34.700,-0.109
34.705,-0.175
34.710,-0.139
34.715,-0.078
34.720,-0.121
34.725,-0.144
34.730,-0.093
34.735,-0.095
34.740,-0.124
34.745,-0.077
34.750,-0.057
34.755,-0.094
34.760,-0.071
34.765,-0.037
34.770,-0.072
34.775,-0.083
34.780,-0.032
34.785,-0.046
34.790,-0.090
34.795,-0.030
34.800,-0.004
34.805,-0.065
34.810,-0.034
34.815,0.013
34.820,-0.035
34.825,-0.040
34.830,0.012
34.835,-0.009
34.840,-0.041
34.845,0.003
34.850,0.015
34.855,-0.030
34.860,0.016
34.865,0.075
34.870,-0.002
34.875,-0.039
34.880,0.044
34.885,0.040
34.890,-0.016
34.895,0.031
34.900,0.044
34.905,-0.018
34.910,0.013
34.915,0.078
34.920,0.071
34.925,0.066
34.930,0.098
34.935,0.099
34.940,0.062
34.945,0.065
34.950,0.067
34.955,0.023
34.960,0.041
34.965,0.089
34.970,0.045
34.975,0.013
34.980,0.058
34.985,0.043
34.990,0.005
34.995,0.061
35.000,0.082
35.005,0.013
35.010,0.030
35.015,0.075
35.020,0.011
35.025,-0.007
35.030,0.057
35.035,0.043
35.040,0.004
35.045,0.044
35.050,0.030
35.055,-0.041
35.060,-0.004
35.065,0.050
35.070,-0.001
35.075,-0.005
35.080,0.074
35.085,0.059
35.090,0.009
35.095,0.060
35.100,0.081
35.105,0.045
35.110,0.094
35.115,0.149
35.120,0.096
35.125,0.056
35.130,0.097
35.135,0.089
35.140,0.035
35.145,0.059
35.150,0.091
35.155,0.051
35.160,0.044
35.165,0.070
35.170,0.006
35.175,-0.039
35.180,0.002
35.185,-0.050
35.190,-0.136
35.195,-0.112
35.200,-0.107
35.205,-0.166
35.210,-0.137
35.215,-0.080
35.220,-0.115
35.225,-0.116
35.230,-0.055
35.235,-0.075
35.240,-0.105
35.245,-0.031
35.250,-0.015
35.255,-0.089
35.260,-0.064
35.265,0.022
35.270,0.122
35.275,0.420
35.280,0.854
35.285,1.173
35.290,1.479
35.295,1.731
35.300,1.392
35.305,0.443
35.310,-0.344
35.315,-0.588
35.320,-0.623
35.325,-0.573
35.330,-0.438
35.335,-0.444
35.340,-0.485
35.345,-0.405
35.350,-0.384
35.355,-0.426
35.360,-0.359
35.365,-0.300
35.370,-0.351
35.375,-0.339
35.380,-0.266
35.385,-0.283
35.390,-0.305
35.395,-0.237
35.400,-0.214
35.405,-0.261
35.410,-0.239
35.415,-0.190
35.420,-0.220
35.425,-0.230
35.430,-0.163
35.435,-0.161
35.440,-0.206
35.445,-0.167
35.450,-0.171
35.455,-0.204
35.460,-0.142
35.465,-0.118
35.470,-0.151
35.475,-0.123
35.480,-0.058
35.485,-0.073
35.490,-0.105
35.495,-0.024
35.500,0.017
35.505,-0.032
35.510,0.000
35.515,0.057
35.520,0.023
35.525,0.028
35.530,0.103
35.535,0.098
35.540,0.085
35.545,0.167
35.550,0.187
35.555,0.133
35.560,0.185
35.565,0.249
35.570,0.181
35.575,0.181
35.580,0.269
35.585,0.221
35.590,0.150
35.595,0.174
35.600,0.137
35.605,0.034
35.610,0.009
35.615,0.004
35.620,-0.083
35.625,-0.130
35.630,-0.083
35.635,-0.098
35.640,-0.126
35.645,-0.067
35.650,-0.089
35.655,-0.168
35.660,-0.128
35.665,-0.078
35.670,-0.124
35.675,-0.136
35.680,-0.084
35.685,-0.092
35.690,-0.113
35.695,-0.051
35.700,-0.035
35.705,-0.093
35.710,-0.072
35.715,-0.011
35.720,-0.048
35.725,-0.076
35.730,-0.023
35.735,-0.029
35.740,-0.059
35.745,-0.010
35.750,0.001
35.755,-0.051
35.760,-0.023
35.765,0.039
35.770,0.005
35.775,-0.024
35.780,0.013
35.785,0.006
35.790,-0.001
35.795,0.055
35.800,0.056
35.805,-0.016
35.810,0.002
35.815,0.066
35.820,0.010
35.825,0.001
35.830,0.087
35.835,0.058
35.840,0.013
35.845,0.073
35.850,0.080
35.855,0.027
35.860,0.059
35.865,0.090
35.870,0.030
35.875,0.023
35.880,0.068
35.885,0.047
35.890,0.024
35.895,0.067
35.900,0.076
35.905,0.018
35.910,0.032
35.915,0.078
35.920,0.031
35.925,0.010
35.930,0.066
35.935,0.040
35.940,0.002
35.945,0.069
35.950,0.073
35.955,0.020
35.960,0.048
35.965,0.057
35.970,0.007
35.975,0.028
35.980,0.090
35.985,0.052
35.990,-0.002
35.995,0.057
36.000,0.079
36.005,0.008
36.010,0.036
36.015,0.090
36.020,0.014
36.025,0.019
36.030,0.144
36.035,0.126
36.040,0.058
36.045,0.115
36.050,0.133
36.055,0.066
36.060,0.092
36.065,0.154
36.070,0.124
36.075,0.108
36.080,0.126
36.085,0.099
36.090,0.095
36.095,0.131
36.100,0.103
36.105,0.029
36.110,0.014
36.115,0.018
36.120,-0.039
36.125,-0.061
36.130,-0.012
36.135,-0.069
36.140,-0.139
36.145,-0.076
36.150,-0.075
36.155,-0.123
36.160,-0.069
36.165,-0.031
36.170,-0.076
36.175,-0.076
36.180,-0.029
36.185,-0.051
36.190,-0.070
36.195,-0.008
36.200,0.005
36.205,0.002
36.210,0.180
36.215,0.484
36.220,0.784
36.225,1.141
36.230,1.567
36.235,1.772
36.240,1.386
36.245,0.517
36.250,-0.292
36.255,-0.631
36.260,-0.575
36.265,-0.475
36.270,-0.461
36.275,-0.441
36.280,-0.396
36.285,-0.401
36.290,-0.406
36.295,-0.348
36.300,-0.336
36.305,-0.383
36.310,-0.332
36.315,-0.258
36.320,-0.302
36.325,-0.311
36.330,-0.243
36.335,-0.262
36.340,-0.279
36.345,-0.181
36.350,-0.166
36.355,-0.237
36.360,-0.191
36.365,-0.134
36.370,-0.188
36.375,-0.199
36.380,-0.131
36.385,-0.143
36.390,-0.172
36.395,-0.105
36.400,-0.085
36.405,-0.138
36.410,-0.099
36.415,-0.039
36.420,-0.066
36.425,-0.051
36.430,-0.006
36.435,-0.040
36.440,-0.045
36.445,0.025
36.450,0.035
36.455,0.017
36.460,0.068
36.465,0.097
36.470,0.056
36.475,0.064
36.480,0.130
36.485,0.148
36.490,0.147
36.495,0.197
36.500,0.200
36.505,0.144
36.510,0.186
36.515,0.242
36.520,0.189
36.525,0.169
36.530,0.203
36.535,0.124
36.540,0.017
36.545,0.051
36.550,0.037
36.555,-0.074
36.560,-0.075
36.565,-0.063
36.570,-0.138
36.575,-0.151
36.580,-0.113
36.585,-0.144
36.590,-0.179
36.595,-0.136
36.600,-0.117
36.605,-0.158
36.610,-0.123
36.615,-0.090
36.620,-0.149
36.625,-0.135
36.630,-0.067
36.635,-0.113
36.640,-0.148
36.645,-0.068
36.650,-0.051
36.655,-0.102
36.660,-0.084
36.665,-0.039
36.670,-0.066
36.675,-0.086
36.680,-0.043
36.685,-0.062
36.690,-0.079
36.695,-0.015
36.700,-0.010
36.705,-0.059
36.710,-0.041
36.715,-0.018
36.720,-0.057
36.725,-0.028
36.730,0.034
36.735,-0.002
36.740,-0.020
36.745,0.031
36.750,0.029
36.755,-0.025
36.760,0.017
36.765,0.069
36.770,-0.002
36.775,-0.016
36.780,0.057
36.785,0.040
36.790,0.003
36.795,0.048
36.800,0.052
36.805,-0.005
36.810,0.020
36.815,0.050
36.820,-0.011
36.825,-0.005
36.830,0.059
36.835,0.017
36.840,-0.011
36.845,0.070
36.850,0.061
36.855,-0.007
36.860,0.029
36.865,0.059
36.870,-0.004
36.875,-0.027
36.880,0.034
36.885,0.043
36.890,0.013
36.895,0.049
36.900,0.047
36.905,-0.003
36.910,0.031
36.915,0.049
36.920,-0.016
36.925,-0.004
36.930,0.050
36.935,0.024
36.940,0.001
36.945,0.044
36.950,0.042
36.955,-0.009
36.960,0.027
36.965,0.066
36.970,0.015
36.975,0.018
36.980,0.088
36.985,0.084
36.990,0.070
36.995,0.124
37.000,0.127
37.005,0.086
37.010,0.116
37.015,0.130
37.020,0.073
37.025,0.093
37.030,0.138
37.035,0.077
37.040,0.053
37.045,0.111
37.050,0.084
37.055,0.024
37.060,0.043
37.065,0.041
37.070,-0.016
37.075,-0.034
37.080,-0.038
37.085,-0.101
37.090,-0.132
37.095,-0.067
37.100,-0.053
37.105,-0.090
37.110,-0.063
37.115,-0.051
37.120,-0.099
37.125,-0.084
37.130,-0.017
37.135,-0.071
37.140,-0.112
37.145,0.020
37.150,0.044
37.155,-0.024
37.160,0.144
37.165,0.414
37.170,0.664
37.175,1.040
37.180,1.470
37.185,1.715
37.190,1.502
37.195,0.751
37.200,-0.138
37.205,-0.611
37.210,-0.590
37.215,-0.497
37.220,-0.509
37.225,-0.453
37.230,-0.358
37.235,-0.380
37.240,-0.407
37.245,-0.354
37.250,-0.353
37.255,-0.380
37.260,-0.331
37.265,-0.279
37.270,-0.315
37.275,-0.294
37.280,-0.209
37.285,-0.258
37.290,-0.305
37.295,-0.221
37.300,-0.191
37.305,-0.230
37.310,-0.193
37.315,-0.160
37.320,-0.205
37.325,-0.185
37.330,-0.124
37.335,-0.161
37.340,-0.181
37.345,-0.079
37.350,-0.069
37.355,-0.139
37.360,-0.086
37.365,-0.046
37.370,-0.080
37.375,-0.068
37.380,-0.021
37.385,-0.016
37.390,-0.014
37.395,0.039
37.400,0.036
37.405,-0.002
37.410,0.058
37.415,0.108
37.420,0.059
37.425,0.073
37.430,0.161
37.435,0.144
37.440,0.123
37.445,0.209
37.450,0.215
37.455,0.160
37.460,0.206
37.465,0.247
37.470,0.197
37.475,0.198
37.480,0.234
37.485,0.151
37.490,0.070
37.495,0.090
37.500,0.043
37.505,-0.061
37.510,-0.061
37.515,-0.036
37.520,-0.102
37.525,-0.134
37.530,-0.105
37.535,-0.147
37.540,-0.183
37.545,-0.129
37.550,-0.107
37.555,-0.132
37.560,-0.119
37.565,-0.113
37.570,-0.156
37.575,-0.133
37.580,-0.058
37.585,-0.084
37.590,-0.113
37.595,-0.056
37.600,-0.057
37.605,-0.107
37.610,-0.074
37.615,-0.025
37.620,-0.074
37.625,-0.090
37.630,-0.025
37.635,-0.044
37.640,-0.089
37.645,-0.019
37.650,0.007
37.655,-0.059
37.660,-0.038
37.665,0.001
37.670,-0.040
37.675,-0.017
37.680,0.040
37.685,-0.003
37.690,-0.036
37.695,0.017
37.700,0.023
37.705,-0.020
37.710,0.030
37.715,0.065
37.720,-0.009
37.725,-0.012
37.730,0.049
37.735,0.021
37.740,0.013
37.745,0.068
37.750,0.041
37.755,-0.013
37.760,0.042
37.765,0.083
37.770,0.013
37.775,0.013
37.780,0.063
37.785,0.007
37.790,-0.020
37.795,0.056
37.800,0.061
37.805,-0.013
37.810,0.027
37.815,0.081
37.820,0.019
37.825,0.025
37.830,0.079
37.835,0.030
37.840,-0.002
37.845,0.045
37.850,0.038
37.855,-0.001
37.860,0.040
37.865,0.074
37.870,0.020
37.875,0.016
37.880,0.067
37.885,0.018
37.890,-0.015
37.895,0.057
37.900,0.055
37.905,-0.013
37.910,0.021
37.915,0.071
37.920,0.046
37.925,0.076
37.930,0.129
37.935,0.101
37.940,0.087
37.945,0.130
37.950,0.123
37.955,0.081
37.960,0.133
37.965,0.158
37.970,0.076
37.975,0.080
37.980,0.144
37.985,0.097
37.990,0.050
37.995,0.085
38.000,0.052
38.005,-0.017
38.010,-0.002
38.015,-0.010
38.020,-0.093
38.025,-0.092
38.030,-0.037
38.035,-0.068
38.040,-0.091
38.045,-0.047
38.050,-0.055
38.055,-0.095
38.060,-0.055
38.065,-0.026
38.070,-0.061
38.075,-0.045
38.080,0.000
38.085,-0.044
38.090,-0.054
38.095,0.069
38.100,0.163
38.105,0.347
38.110,0.764
38.115,1.160
38.120,1.459
38.125,1.728
38.130,1.542
38.135,0.639
38.140,-0.274
38.145,-0.562
38.150,-0.548
38.155,-0.538
38.160,-0.429
38.165,-0.381
38.170,-0.433
38.175,-0.378
38.180,-0.334
38.185,-0.407
38.190,-0.402
38.195,-0.316
38.200,-0.309
38.205,-0.319
38.210,-0.261
38.215,-0.233
38.220,-0.295
38.225,-0.297
38.230,-0.214
38.235,-0.226
38.240,-0.263
38.245,-0.193
38.250,-0.155
38.255,-0.199
38.260,-0.174
38.265,-0.132
38.270,-0.172
38.275,-0.153
38.280,-0.084
38.285,-0.114
38.290,-0.125
38.295,-0.056
38.300,-0.061
38.305,-0.097
38.310,-0.044
38.315,-0.022
38.320,-0.081
38.325,-0.051
38.330,0.026
38.335,-0.006
38.340,-0.027
38.345,0.052
38.350,0.066
38.355,0.030
38.360,0.078
38.365,0.116
38.370,0.089
38.375,0.125
38.380,0.186
38.385,0.147
38.390,0.136
38.395,0.227
38.400,0.231
38.405,0.160
38.410,0.191
38.415,0.218
38.420,0.141
38.425,0.114
38.430,0.114
38.435,0.017
38.440,-0.030
38.445,0.004
38.450,-0.063
38.455,-0.153
38.460,-0.131
38.465,-0.121
38.470,-0.173
38.475,-0.162
38.480,-0.117
38.485,-0.156
38.490,-0.177
38.495,-0.118
38.500,-0.123
38.505,-0.159
38.510,-0.105
38.515,-0.086
38.520,-0.137
38.525,-0.103
38.530,-0.048
38.535,-0.100
38.540,-0.124
38.545,-0.051
38.550,-0.052
38.555,-0.097
38.560,-0.053
38.565,-0.023
38.570,-0.071
38.575,-0.062
38.580,-0.014
38.585,-0.043
38.590,-0.071
38.595,-0.024
38.600,-0.013
38.605,-0.048
38.610,-0.008
38.615,0.014
38.620,-0.035
38.625,-0.013
38.630,0.028
38.635,-0.029
38.640,-0.040
38.645,0.041
38.650,0.041
38.655,-0.008
38.660,0.028
38.665,0.052
38.670,0.012
38.675,0.027
38.680,0.066
38.685,0.026
38.690,-0.010
38.695,0.028
38.700,0.030
38.705,-0.010
38.710,0.032
38.715,0.069
38.720,0.003
38.725,0.024
38.730,0.097
38.735,0.026
38.740,-0.007
38.745,0.084
38.750,0.073
38.755,0.001
38.760,0.034
38.765,0.058
38.770,0.016
38.775,0.038
38.780,0.077
38.785,0.034
38.790,0.019
38.795,0.064
38.800,0.044
38.805,0.000
38.810,0.047
38.815,0.080
38.820,0.016
38.825,0.012
38.830,0.072
38.835,0.052
38.840,0.026
38.845,0.068
38.850,0.054
38.855,0.002
38.860,0.044
38.865,0.059
38.870,0.019
38.875,0.072
38.880,0.109
38.885,0.055
38.890,0.050
38.895,0.113
38.900,0.113
38.905,0.062
38.910,0.092
38.915,0.125
38.920,0.068
38.925,0.061
38.930,0.110
38.935,0.076
38.940,0.043
38.945,0.075
38.950,0.048
38.955,-0.012
38.960,0.001
38.965,0.000
38.970,-0.063
38.975,-0.080
38.980,-0.057
38.985,-0.104
38.990,-0.131
38.995,-0.068
39.000,-0.089
39.005,-0.141
39.010,-0.085
39.015,-0.042
39.020,-0.072
39.025,-0.072
39.030,-0.039
39.035,-0.078
39.040,-0.080
39.045,0.018
39.050,0.017
39.055,0.032
39.060,0.297
39.065,0.649
39.070,0.962
39.075,1.345
39.080,1.708
39.085,1.608
39.090,0.855
39.095,-0.043
39.100,-0.532
39.105,-0.623
39.110,-0.536
39.115,-0.452
39.120,-0.480
39.125,-0.460
39.130,-0.371
39.135,-0.395
39.140,-0.419
39.145,-0.353
39.150,-0.342
39.155,-0.373
39.160,-0.331
39.165,-0.300
39.170,-0.313
39.175,-0.236
39.180,-0.178
39.185,-0.271
39.190,-0.294
39.195,-0.206
39.200,-0.214
39.205,-0.240
39.210,-0.158
39.215,-0.132
39.220,-0.206
39.225,-0.188
39.230,-0.116
39.235,-0.134
39.240,-0.135
39.245,-0.080
39.250,-0.094
39.255,-0.120
39.260,-0.052
39.265,-0.017
39.270,-0.076
39.275,-0.054
39.280,0.014
39.285,-0.028
39.290,-0.032
39.295,0.051
39.300,0.057
39.305,0.039
39.310,0.074
39.315,0.097
39.320,0.084
39.325,0.117
39.330,0.169
39.335,0.140
39.340,0.136
39.345,0.215
39.350,0.221
39.355,0.183
39.360,0.238
39.365,0.244
39.370,0.163
39.375,0.169
39.380,0.195
39.385,0.121
39.390,0.069
39.395,0.069
39.400,-0.013
39.405,-0.093
39.410,-0.061
39.415,-0.062
39.420,-0.134
39.425,-0.130
39.430,-0.105
39.435,-0.166
39.440,-0.184
39.445,-0.123
39.450,-0.120
39.455,-0.150
39.460,-0.097
39.465,-0.056
39.470,-0.112
39.475,-0.108
39.480,-0.061
39.485,-0.106
39.490,-0.112
39.495,-0.040
39.500,-0.054
39.505,-0.101
39.510,-0.044
39.515,-0.020
39.520,-0.081
39.525,-0.054
39.530,-0.007
39.535,-0.060
39.540,-0.069
39.545,0.006
39.550,0.007
39.555,-0.026
39.560,0.015
39.565,0.016
39.570,-0.045
39.575,-0.023
39.580,0.040
39.585,0.023
39.590,0.034
39.595,0.086
39.600,0.043
39.605,-0.002
39.610,0.051
39.615,0.075
39.620,0.020
39.625,0.036
39.630,0.097
39.635,0.051
39.640,0.012
39.645,0.070
39.650,0.049
39.655,-0.010
39.660,0.050
39.665,0.081
39.670,0.021
39.675,0.034
39.680,0.075
39.685,0.045
39.690,0.042
39.695,0.066
39.700,0.032
39.705,0.008
39.710,0.053
39.715,0.069
39.720,0.023
39.725,0.042
39.730,0.084
39.735,0.028
39.740,0.004
39.745,0.065
39.750,0.040
39.755,-0.001
39.760,0.061
39.765,0.058
39.770,-0.024
39.775,0.012
39.780,0.074
39.785,0.024
39.790,0.005
39.795,0.059
39.800,0.045
39.805,0.019
39.810,0.097
39.815,0.125
39.820,0.065
39.825,0.097
39.830,0.160
39.835,0.096
39.840,0.053
39.845,0.129
39.850,0.138
39.855,0.095
39.860,0.122
39.865,0.115
39.870,0.055
39.875,0.070
39.880,0.098
39.885,0.044
39.890,0.004
39.895,0.030
39.900,0.002
39.905,-0.081
39.910,-0.067
39.915,-0.052
39.920,-0.117
39.925,-0.070
39.930,-0.011
39.935,-0.087
39.940,-0.091
39.945,-0.022
39.950,-0.055
39.955,-0.096
39.960,-0.029
39.965,-0.016
39.970,-0.072
39.975,-0.032
39.980,0.021
39.985,0.013
39.990,0.151
39.995,0.487
40.000,0.821
40.005,1.154
40.010,1.576
40.015,1.782
40.020,1.325
40.025,0.406
40.030,-0.309
40.035,-0.582
40.040,-0.579
40.045,-0.465
40.050,-0.424
40.055,-0.442
40.060,-0.395
40.065,-0.382
40.070,-0.429
40.075,-0.387
40.080,-0.315
40.085,-0.344
40.090,-0.357
40.095,-0.291
40.100,-0.282
40.105,-0.313
40.110,-0.262
40.115,-0.214
40.120,-0.250
40.125,-0.248
40.130,-0.214
40.135,-0.240
40.140,-0.227
40.145,-0.158
40.150,-0.182
40.155,-0.213
40.160,-0.130
40.165,-0.117
40.170,-0.178
40.175,-0.130
40.180,-0.086
40.185,-0.138
40.190,-0.120
40.195,-0.034
40.200,-0.055
40.205,-0.092
40.210,-0.021
40.215,-0.003
40.220,-0.046
40.225,0.000
40.230,0.051
40.235,0.021
40.240,0.033
40.245,0.103
40.250,0.088
40.255,0.040
40.260,0.099
40.265,0.144
40.270,0.106
40.275,0.142
40.280,0.205
40.285,0.177
40.290,0.175
40.295,0.223
40.300,0.197
40.305,0.158
40.310,0.168
40.315,0.135
40.320,0.061
40.325,0.034
40.330,0.020
40.335,-0.052
40.340,-0.103
40.345,-0.080
40.350,-0.108
40.355,-0.170
40.360,-0.127
40.365,-0.093
40.370,-0.150
40.375,-0.149
40.380,-0.116
40.385,-0.146
40.390,-0.150
40.395,-0.094
40.400,-0.094
40.405,-0.125
40.410,-0.071
40.415,-0.040
40.420,-0.079
40.425,-0.063
40.430,-0.028
40.435,-0.065
40.440,-0.055
40.445,0.003
40.450,-0.048
40.455,-0.099
40.460,-0.032
40.465,-0.001
40.470,-0.056
40.475,-0.040
40.480,0.009
40.485,-0.027
40.490,-0.026
40.495,0.026
40.500,-0.008
40.505,-0.049
40.510,0.016
40.515,0.055
40.520,-0.008
40.525,-0.005
40.530,0.041
40.535,-0.006
40.540,-0.007
40.545,0.064
40.550,0.051
40.555,0.017
40.560,0.051
40.565,0.050
40.570,0.005
40.575,0.027
40.580,0.034
40.585,-0.022
40.590,0.002
40.595,0.068
40.600,0.024
40.605,-0.026
40.610,0.027
40.615,0.038
40.620,-0.012
40.625,0.034
40.630,0.078
40.635,-0.003
40.640,-0.040
40.645,0.026
40.650,0.030
40.655,-0.007
40.660,0.043
40.665,0.065
40.670,-0.008
40.675,-0.005
40.680,0.054
40.685,0.016
40.690,0.000
40.695,0.049
40.700,0.016
40.705,-0.031
40.710,0.015
40.715,0.020
40.720,-0.030
40.725,0.015
40.730,0.055
40.735,-0.003
40.740,-0.014
40.745,0.038
40.750,0.021
40.755,-0.014
40.760,0.037
40.765,0.074
40.770,0.051
40.775,0.084
40.780,0.125
40.785,0.098
40.790,0.101
40.795,0.117
40.800,0.078
40.805,0.043
40.810,0.071
40.815,0.078
40.820,0.055
40.825,0.096
40.830,0.101
40.835,0.035
40.840,0.033
40.845,0.054
40.850,-0.019
40.855,-0.086
40.860,-0.047
40.865,-0.056
40.870,-0.135
40.875,-0.105
40.880,-0.062
40.885,-0.127
40.890,-0.138
40.895,-0.076
40.900,-0.084
40.905,-0.112
40.910,-0.082
40.915,-0.064
40.920,-0.082
40.925,-0.052
40.930,-0.015
40.935,-0.062
40.940,-0.032
40.945,0.200
40.950,0.481
40.955,0.778
40.960,1.176
40.965,1.569
40.970,1.707
40.975,1.289
40.980,0.370
40.985,-0.424
40.990,-0.645
40.995,-0.548
41.000,-0.522
41.005,-0.521
41.010,-0.423
41.015,-0.367
41.020,-0.400
41.025,-0.371
41.030,-0.338
41.035,-0.370
41.040,-0.337
41.045,-0.288
41.050,-0.339
41.055,-0.363
41.060,-0.265
41.065,-0.230
41.070,-0.288
41.075,-0.251
41.080,-0.193
41.085,-0.234
41.090,-0.223
41.095,-0.156
41.100,-0.177
41.105,-0.199
41.110,-0.144
41.115,-0.130
41.120,-0.167
41.125,-0.122
41.130,-0.053
41.135,-0.098
41.140,-0.131
41.145,-0.069
41.150,-0.055
41.155,-0.071
41.160,-0.031
41.165,-0.023
41.170,-0.047
41.175,0.002
41.180,0.053
41.185,0.021
41.190,0.023
41.195,0.092
41.200,0.083
41.205,0.048
41.210,0.109
41.215,0.151
41.220,0.143
41.225,0.187
41.230,0.209
41.235,0.169
41.240,0.210
41.245,0.275
41.250,0.220
41.255,0.175
41.260,0.225
41.265,0.206
41.270,0.115
41.275,0.099
41.280,0.079
41.285,-0.015
41.290,-0.049
41.295,-0.023
41.300,-0.063
41.305,-0.120
41.310,-0.105
41.315,-0.113
41.320,-0.162
41.325,-0.120
41.330,-0.090
41.335,-0.163
41.340,-0.159
41.345,-0.081
41.350,-0.094
41.355,-0.120
41.360,-0.053
41.365,-0.050
41.370,-0.116
41.375,-0.070
41.380,-0.022
41.385,-0.096
41.390,-0.105
41.395,-0.023
41.400,-0.040
41.405,-0.065
41.410,-0.011
41.415,-0.028
41.420,-0.078
41.425,-0.046
41.430,-0.026
41.435,-0.058
41.440,-0.026
41.445,0.040
41.450,-0.007
41.455,-0.043
41.460,0.032
41.465,0.044
41.470,-0.015
41.475,0.007
41.480,0.070
41.485,0.038
41.490,0.004
41.495,0.050
41.500,0.042
41.505,0.005
41.510,0.047
41.515,0.061
41.520,0.007
41.525,0.033
41.530,0.084
41.535,0.011
41.540,-0.001
41.545,0.077
41.550,0.044
41.555,0.008
41.560,0.071
41.565,0.075
41.570,0.011
41.575,0.042
41.580,0.093
41.585,0.025
41.590,0.002
41.595,0.076
41.600,0.053
41.605,0.001
41.610,0.044
41.615,0.050
41.620,0.012
41.625,0.046
41.630,0.065
41.635,0.010
41.640,0.019
41.645,0.083
41.650,0.047
41.655,0.009
41.660,0.074
41.665,0.084
41.670,0.018
41.675,0.021
41.680,0.077
41.685,0.074
41.690,0.063
41.695,0.107
41.700,0.100
41.705,0.081
41.710,0.132
41.715,0.120
41.720,0.060
41.725,0.100
41.730,0.146
41.735,0.094
41.740,0.087
41.745,0.151
41.750,0.118
41.755,0.062
41.760,0.110
41.765,0.097
41.770,0.008
41.775,0.001
41.780,0.005
41.785,-0.059
41.790,-0.071
41.795,-0.025
41.800,-0.068
41.805,-0.112
41.810,-0.026
41.815,-0.015
41.820,-0.111
41.825,-0.077
41.830,-0.026
41.835,-0.086
41.840,-0.056
41.845,0.029
41.850,-0.028
41.855,-0.082
41.860,-0.017
41.865,0.038
41.870,0.126
41.875,0.412
41.880,0.814
41.885,1.149
41.890,1.504
41.895,1.794
41.900,1.452
41.905,0.488
41.910,-0.297
41.915,-0.569
41.920,-0.599
41.925,-0.484
41.930,-0.373
41.935,-0.441
41.940,-0.466
41.945,-0.391
41.950,-0.392
41.955,-0.382
41.960,-0.307
41.965,-0.311
41.970,-0.361
41.975,-0.295
41.980,-0.233
41.985,-0.281
41.990,-0.273
41.995,-0.224
42.000,-0.266
42.005,-0.282
42.010,-0.189
42.015,-0.168
42.020,-0.215
42.025,-0.165
42.030,-0.133
42.035,-0.183
42.040,-0.177
42.045,-0.120
42.050,-0.124
42.055,-0.143
42.060,-0.096
42.065,-0.089
42.070,-0.119
42.075,-0.064
42.080,-0.030
42.085,-0.074
42.090,-0.038
42.095,0.015
42.100,-0.038
42.105,-0.046
42.110,0.039
42.115,0.045
42.120,0.006
42.125,0.067
42.130,0.119
42.135,0.083
42.140,0.107
42.145,0.180
42.150,0.159
42.155,0.136
42.160,0.199
42.165,0.207
42.170,0.157
42.175,0.183
42.180,0.222
42.185,0.174
42.190,0.128
42.195,0.146
42.200,0.095
42.205,-0.007
42.210,0.007
42.215,0.006
42.220,-0.099
42.225,-0.115
42.230,-0.096
42.235,-0.163
42.240,-0.155
42.245,-0.079
42.250,-0.108
42.255,-0.159
42.260,-0.135
42.265,-0.148
42.270,-0.185
42.275,-0.114
42.280,-0.063
42.285,-0.125
42.290,-0.117
42.295,-0.055
42.300,-0.082
42.305,-0.108
42.310,-0.059
42.315,-0.059
42.320,-0.104
42.325,-0.058
42.330,-0.019
42.335,-0.080
42.340,-0.074
42.345,-0.001
42.350,-0.037
42.355,-0.071
42.360,0.004
42.365,0.006
42.370,-0.038
42.375,-0.005
42.380,-0.013
42.385,-0.054
42.390,-0.010
42.395,0.036
42.400,-0.002
42.405,-0.030
42.410,0.023
42.415,0.031
42.420,-0.011
42.425,0.028
42.430,0.052
42.435,0.009
42.440,0.026
42.445,0.063
42.450,0.019
42.455,-0.011
42.460,0.044
42.465,0.050
42.470,-0.001
42.475,0.020
42.480,0.044
42.485,-0.008
42.490,-0.001
42.495,0.074
42.500,0.039
42.505,-0.032
42.510,0.015
42.515,0.032
42.520,-0.033
42.525,0.003
42.530,0.064
42.535,0.026
42.540,0.034
42.545,0.064
42.550,0.019
42.555,-0.017
42.560,0.004
42.565,0.015
42.570,-0.020
42.575,0.020
42.580,0.079
42.585,0.012
42.590,-0.006
42.595,0.069
42.600,0.040
42.605,-0.019
42.610,0.034
42.615,0.051
42.620,-0.016
42.625,0.003
42.630,0.047
42.635,0.008
42.640,0.036
42.645,0.135
42.650,0.134
42.655,0.099
42.660,0.138
42.665,0.137
42.670,0.086
42.675,0.105
42.680,0.121
42.685,0.088
42.690,0.108
42.695,0.150
42.700,0.103
42.705,0.050
42.710,0.098
42.715,0.118
42.720,0.056
42.725,0.044
42.730,0.058
42.735,-0.013
42.740,-0.069
42.745,-0.049
42.750,-0.088
42.755,-0.126
42.760,-0.069
42.765,-0.061
42.770,-0.111
42.775,-0.077
42.780,-0.024
42.785,-0.060
42.790,-0.071
42.795,-0.029
42.800,-0.065
42.805,-0.092
42.810,-0.022
42.815,0.007
42.820,0.049
42.825,0.298
42.830,0.646
42.835,0.965
42.840,1.342
42.845,1.685
42.850,1.605
42.855,0.926
42.860,0.049
42.865,-0.512
42.870,-0.663
42.875,-0.563
42.880,-0.451
42.885,-0.485
42.890,-0.480
42.895,-0.392
42.900,-0.413
42.905,-0.428
42.910,-0.355
42.915,-0.339
42.920,-0.363
42.925,-0.329
42.930,-0.291
42.935,-0.317
42.940,-0.291
42.945,-0.206
42.950,-0.226
42.955,-0.278
42.960,-0.229
42.965,-0.203
42.970,-0.231
42.975,-0.189
42.980,-0.165
42.985,-0.210
42.990,-0.187
42.995,-0.125
43.000,-0.142
43.005,-0.160
43.010,-0.103
43.015,-0.089
43.020,-0.133
43.025,-0.093
43.030,-0.038
43.035,-0.059
43.040,-0.044
43.045,-0.022
43.050,-0.046
43.055,-0.026
43.060,0.033
43.065,0.048
43.070,0.025
43.075,0.062
43.080,0.102
43.085,0.060
43.090,0.080
43.095,0.159
43.100,0.130
43.105,0.119
43.110,0.206
43.115,0.217
43.120,0.174
43.125,0.227
43.130,0.258
43.135,0.169
43.140,0.142
43.145,0.187
43.150,0.120
43.155,0.038
43.160,0.052
43.165,0.009
43.170,-0.064
43.175,-0.041
43.180,-0.054
43.185,-0.155
43.190,-0.164
43.195,-0.092
43.200,-0.125
43.205,-0.170
43.210,-0.114
43.215,-0.117
43.220,-0.174
43.225,-0.137
43.230,-0.085
43.235,-0.108
43.240,-0.104
43.245,-0.067
43.250,-0.094
43.255,-0.117
43.260,-0.050
43.265,-0.041
43.270,-0.107
43.275,-0.052
43.280,-0.015
43.285,-0.086
43.290,-0.064
43.295,-0.001
43.300,-0.035
43.305,-0.065
43.310,-0.016
43.315,-0.012
43.320,-0.075
43.325,-0.044
43.330,0.008
43.335,-0.048
43.340,-0.050
43.345,0.026
43.350,-0.004
43.355,-0.035
43.360,0.043
43.365,0.043
43.370,-0.019
43.375,0.026
43.380,0.067
43.385,0.014
43.390,0.019
43.395,0.083
43.400,0.040
43.405,-0.006
43.410,0.051
43.415,0.055
43.420,-0.004
43.425,0.016
43.430,0.056
43.435,0.016
43.440,0.015
43.445,0.069
43.450,0.032
43.455,-0.005
43.460,0.054
43.465,0.045
43.470,-0.010
43.475,0.038
43.480,0.074
43.485,0.001
43.490,-0.007
43.495,0.070
43.500,0.041
43.505,-0.006
43.510,0.054
43.515,0.071
43.520,0.032
43.525,0.054
43.530,0.055
43.535,0.001
43.540,0.016
43.545,0.056
43.550,0.019
43.555,0.015
43.560,0.064
43.565,0.034
43.570,0.018
43.575,0.106
43.580,0.147
43.585,0.091
43.590,0.087
43.595,0.157
43.600,0.117
43.605,0.059
43.610,0.125
43.615,0.140
43.620,0.089
43.625,0.119
43.630,0.143
43.635,0.080
43.640,0.070
43.645,0.113
43.650,0.060
43.655,-0.009
43.660,0.020
43.665,-0.006
43.670,-0.085
43.675,-0.053
43.680,-0.039
43.685,-0.102
43.690,-0.090
43.695,-0.050
43.700,-0.066
43.705,-0.067
43.710,-0.021
43.715,-0.021
43.720,-0.060
43.725,-0.032
43.730,0.003
43.735,-0.029
43.740,-0.038
43.745,0.023
43.750,0.083
43.755,0.238
43.760,0.599
43.765,0.979
43.770,1.319
43.775,1.683
43.780,1.713
43.785,1.014
43.790,0.036
43.795,-0.473
43.800,-0.578
43.805,-0.562
43.810,-0.443
43.815,-0.401
43.820,-0.433
43.825,-0.363
43.830,-0.326
43.835,-0.399
43.840,-0.378
43.845,-0.292
43.850,-0.320
43.855,-0.339
43.860,-0.271
43.865,-0.258
43.870,-0.284
43.875,-0.251
43.880,-0.229
43.885,-0.247
43.890,-0.203
43.895,-0.167
43.900,-0.214
43.905,-0.214
43.910,-0.143
43.915,-0.144
43.920,-0.184
43.925,-0.126
43.930,-0.078
43.935,-0.133
43.940,-0.132
43.945,-0.072
43.950,-0.092
43.955,-0.102
43.960,-0.034
43.965,-0.032
43.970,-0.092
43.975,-0.022
43.980,0.067
43.985,-0.014
43.990,-0.031
43.995,0.070
44.000,0.054
44.005,0.016
44.010,0.087
44.015,0.106
44.020,0.075
44.025,0.137
44.030,0.180
44.035,0.133
44.040,0.151
44.045,0.205
44.050,0.175
44.055,0.171
44.060,0.234
44.065,0.216
44.070,0.140
44.075,0.145
44.080,0.140
44.085,0.036
44.090,-0.016
44.095,0.019
44.100,-0.034
44.105,-0.123
44.110,-0.096
44.115,-0.101
44.120,-0.176
44.125,-0.145
44.130,-0.102
44.135,-0.161
44.140,-0.158
44.145,-0.106
44.150,-0.143
44.155,-0.158
44.160,-0.088
44.165,-0.092
44.170,-0.145
44.175,-0.094
44.180,-0.053
44.185,-0.094
44.190,-0.076
44.195,-0.051
44.200,-0.095
44.205,-0.087
44.210,-0.031
44.215,-0.066
44.220,-0.113
44.225,-0.037
44.230,-0.001
44.235,-0.064
44.240,-0.058
44.245,-0.011
44.250,-0.037
44.255,-0.051
44.260,0.003
44.265,-0.009
44.270,-0.057
44.275,-0.001
44.280,0.018
44.285,-0.042
44.290,-0.009
44.295,0.060
44.300,0.022
44.305,-0.018
44.310,0.034
44.315,0.029
44.320,-0.021
44.325,0.035
44.330,0.064
44.335,-0.008
44.340,0.000
44.345,0.057
44.350,0.019
44.355,0.007
44.360,0.077
44.365,0.044
44.370,-0.023
44.375,0.014
44.380,0.021
44.385,-0.030
44.390,-0.005
44.395,0.060
44.400,0.018
44.405,0.000
44.410,0.074
44.415,0.034
44.420,-0.039
44.425,0.017
44.430,0.062
44.435,0.013
44.440,0.008
44.445,0.054
44.450,0.008
44.455,-0.041
44.460,0.037
44.465,0.056
44.470,-0.022
44.475,0.022
44.480,0.061
44.485,-0.013
44.490,0.005
44.495,0.065
44.500,0.023
44.505,-0.001
44.510,0.033
44.515,0.019
44.520,0.018
44.525,0.096
44.530,0.101
44.535,0.043
44.540,0.079
44.545,0.129
44.550,0.101
44.555,0.089
44.560,0.123
44.565,0.090
44.570,0.055
44.575,0.110
44.580,0.110
44.585,0.045
44.590,0.075
44.595,0.122
44.600,0.059
44.605,0.013
44.610,0.046
44.615,0.024
44.620,-0.041
44.625,-0.020
44.630,-0.025
44.635,-0.125
44.640,-0.114
44.645,-0.023
44.650,-0.056
44.655,-0.105
44.660,-0.054
44.665,-0.050
44.670,-0.088
44.675,-0.043
44.680,-0.020
44.685,-0.072
44.690,-0.045
44.695,0.010
44.700,-0.004
44.705,0.083
44.710,0.334
44.715,0.621
44.720,0.935
44.725,1.346
44.730,1.707
44.735,1.619
44.740,0.958
44.745,0.098
44.750,-0.476
44.755,-0.594
44.760,-0.503
44.765,-0.476
44.770,-0.495
44.775,-0.430
44.780,-0.378
44.785,-0.419
44.790,-0.410
44.795,-0.339
44.800,-0.336
44.805,-0.345
44.810,-0.279
44.815,-0.291
44.820,-0.331
44.825,-0.245
44.830,-0.226
44.835,-0.290
44.840,-0.238
44.845,-0.174
44.850,-0.229
44.855,-0.235
44.860,-0.156
44.865,-0.161
44.870,-0.197
44.875,-0.149
44.880,-0.107
44.885,-0.147
44.890,-0.141
44.895,-0.091
44.900,-0.132
44.905,-0.138
44.910,-0.057
44.915,-0.065
44.920,-0.089
44.925,-0.028
44.930,-0.014
44.935,-0.035
44.940,0.006
44.945,0.037
44.950,-0.007
44.955,-0.006
44.960,0.077
44.965,0.076
44.970,0.047
44.975,0.117
44.980,0.160
44.985,0.127
44.990,0.159
44.995,0.219
45.000,0.188
45.005,0.169
45.010,0.208
45.015,0.196
45.020,0.164
45.025,0.183
45.030,0.159
45.035,0.072
45.040,0.041
45.045,0.043
45.050,-0.047
45.055,-0.105
45.060,-0.040
45.065,-0.072
45.070,-0.170
45.075,-0.129
45.080,-0.108
45.085,-0.170
45.090,-0.140
45.095,-0.100
45.100,-0.165
45.105,-0.176
