'Elapsed time','ECG'
'seconds','mV'
0.000,0.055
0.005,0.062
0.010,0.067
0.015,0.051
0.020,0.057
0.025,0.059
0.030,0.041
0.035,0.034
0.040,0.039
0.045,0.036
0.050,0.028
0.055,0.024
0.060,0.018
0.065,0.010
0.070,0.008
0.075,0.009
0.080,0.008
0.085,0.005
0.090,0.001
0.095,-0.004
0.100,-0.005
0.105,-0.005
0.110,-0.008
0.115,-0.012
0.120,-0.012
0.125,-0.010
0.130,-0.013
0.135,-0.013
0.140,-0.009
0.145,-0.011
0.150,-0.016
0.155,-0.017
0.160,-0.016
0.165,-0.013
0.170,-0.008
0.175,-0.008
0.180,-0.010
0.185,-0.012
0.190,-0.018
0.195,-0.024
0.200,-0.023
0.205,-0.020
0.210,-0.024
0.215,-0.034
0.220,-0.048
0.225,-0.062
0.230,-0.070
0.235,-0.072
0.240,-0.068
0.245,-0.062
0.250,-0.063
0.255,-0.076
0.260,-0.099
0.265,-0.115
0.270,-0.109
0.275,-0.081
0.280,-0.050
0.285,-0.038
0.290,-0.044
0.295,-0.043
0.300,-0.032
0.305,-0.014
0.310,0.023
0.315,0.055
0.320,0.065
0.325,0.061
0.330,0.047
0.335,0.051
0.340,0.065
0.345,0.056
0.350,0.047
0.355,0.059
0.360,0.066
0.365,0.061
0.370,0.054
0.375,0.052
0.380,0.056
0.385,0.058
0.390,0.087
0.395,0.142
0.400,0.136
0.405,0.018
0.410,-0.239
0.415,-0.639
0.420,-0.988
0.425,-0.995
0.430,-0.600
0.435,-0.019
0.440,0.378
0.445,0.449
0.450,0.426
0.455,0.446
0.460,0.489
0.465,0.491
0.470,0.405
0.475,0.284
0.480,0.196
0.485,0.151
0.490,0.120
0.495,0.099
0.500,0.085
0.505,0.070
0.510,0.057
0.515,0.046
0.520,0.036
0.525,0.026
0.530,0.018
0.535,0.016
0.540,0.022
0.545,0.027
0.550,0.020
0.555,0.009
0.560,0.003
0.565,-0.003
0.570,-0.002
0.575,-0.001
0.580,-0.003
0.585,-0.002
0.590,-0.003
0.595,-0.005
0.600,-0.006
0.605,-0.010
0.610,-0.015
0.615,-0.019
0.620,-0.021
0.625,-0.024
0.630,-0.029
0.635,-0.041
0.640,-0.057
0.645,-0.065
0.650,-0.080
0.655,-0.098
0.660,-0.106
0.665,-0.114
0.670,-0.135
0.675,-0.159
0.680,-0.180
0.685,-0.200
0.690,-0.212
0.695,-0.221
0.700,-0.221
0.705,-0.209
0.710,-0.194
0.715,-0.167
0.720,-0.125
0.725,-0.086
0.730,-0.051
0.735,-0.016
0.740,0.011
0.745,0.031
0.750,0.050
0.755,0.066
0.760,0.079
0.765,0.084
0.770,0.087
0.775,0.091
0.780,0.093
0.785,0.096
0.790,0.108
0.795,0.114
0.800,0.105
0.805,0.094
0.810,0.089
0.815,0.094
0.820,0.101
0.825,0.099
0.830,0.088
0.835,0.086
0.840,0.095
0.845,0.098
0.850,0.089
0.855,0.082
0.860,0.085
0.865,0.090
0.870,0.082
0.875,0.067
0.880,0.065
0.885,0.068
0.890,0.064
0.895,0.059
0.900,0.051
0.905,0.042
0.910,0.033
0.915,0.024
0.920,0.021
0.925,0.018
0.930,0.011
0.935,0.012
0.940,0.014
0.945,0.015
0.950,0.006
0.955,-0.006
0.960,-0.005
0.965,-0.002
0.970,-0.003
0.975,-0.010
0.980,-0.016
0.985,-0.007
0.990,-0.003
0.995,-0.008
1.000,-0.011
1.005,-0.017
1.010,-0.017
1.015,-0.011
1.020,-0.013
1.025,-0.017
1.030,-0.014
1.035,-0.012
1.040,-0.016
1.045,-0.022
1.050,-0.023
1.055,-0.015
1.060,-0.016
1.065,-0.034
1.070,-0.052
1.075,-0.063
1.080,-0.066
1.085,-0.057
1.090,-0.051
1.095,-0.049
1.100,-0.059
1.105,-0.080
1.110,-0.100
1.115,-0.116
1.120,-0.127
1.125,-0.116
1.130,-0.084
1.135,-0.061
1.140,-0.050
1.145,-0.053
1.150,-0.056
1.155,-0.032
1.160,0.001
1.165,0.036
1.170,0.063
1.175,0.054
1.180,0.042
1.185,0.044
1.190,0.048
1.195,0.053
1.200,0.050
1.205,0.051
1.210,0.058
1.215,0.054
1.220,0.048
1.225,0.054
1.230,0.049
1.235,0.034
1.240,0.040
1.245,0.100
1.250,0.179
1.255,0.162
1.260,0.007
1.265,-0.306
1.270,-0.737
1.275,-1.029
1.280,-0.906
1.285,-0.387
1.290,0.196
1.295,0.489
1.300,0.471
1.305,0.399
1.310,0.418
1.315,0.471
1.320,0.461
1.325,0.365
1.330,0.238
1.335,0.154
1.340,0.122
1.345,0.087
1.350,0.052
1.355,0.042
1.360,0.034
1.365,0.020
1.370,0.013
1.375,0.010
1.380,0.005
1.385,-0.005
1.390,-0.016
1.395,-0.019
1.400,-0.013
1.405,-0.012
1.410,-0.014
1.415,-0.017
1.420,-0.020
1.425,-0.023
1.430,-0.028
1.435,-0.028
1.440,-0.033
1.445,-0.037
1.450,-0.034
1.455,-0.031
1.460,-0.027
1.465,-0.030
1.470,-0.032
1.475,-0.026
1.480,-0.027
1.485,-0.040
1.490,-0.055
1.495,-0.067
1.500,-0.083
1.505,-0.106
1.510,-0.117
1.515,-0.115
1.520,-0.123
1.525,-0.142
1.530,-0.168
1.535,-0.180
1.540,-0.182
1.545,-0.196
1.550,-0.212
1.555,-0.217
1.560,-0.207
1.565,-0.177
1.570,-0.146
1.575,-0.112
1.580,-0.077
1.585,-0.046
1.590,-0.017
1.595,-0.001
1.600,0.021
1.605,0.053
1.610,0.074
1.615,0.081
1.620,0.077
1.625,0.076
1.630,0.088
1.635,0.102
1.640,0.097
1.645,0.092
1.650,0.098
1.655,0.096
1.660,0.092
1.665,0.090
1.670,0.093
1.675,0.103
1.680,0.106
1.685,0.098
1.690,0.088
1.695,0.084
1.700,0.082
1.705,0.081
1.710,0.083
1.715,0.078
1.720,0.067
1.725,0.059
1.730,0.054
1.735,0.049
1.740,0.047
1.745,0.041
1.750,0.032
1.755,0.026
1.760,0.017
1.765,0.014
1.770,0.021
1.775,0.019
1.780,0.011
1.785,0.004
1.790,0.004
1.795,0.005
1.800,-0.001
1.805,-0.006
1.810,-0.008
1.815,-0.001
1.820,0.006
1.825,-0.001
1.830,-0.014
1.835,-0.017
1.840,-0.010
1.845,-0.003
1.850,-0.003
1.855,-0.007
1.860,-0.007
1.865,0.000
1.870,0.002
1.875,-0.004
1.880,-0.012
1.885,-0.018
1.890,-0.013
1.895,-0.009
1.900,-0.010
1.905,-0.012
1.910,-0.017
1.915,-0.024
1.920,-0.033
1.925,-0.044
1.930,-0.051
1.935,-0.054
1.940,-0.056
1.945,-0.059
1.950,-0.059
1.955,-0.065
1.960,-0.078
1.965,-0.095
1.970,-0.111
1.975,-0.105
1.980,-0.081
1.985,-0.056
1.990,-0.042
1.995,-0.043
2.000,-0.041
2.005,-0.028
2.010,-0.006
2.015,0.028
2.020,0.056
2.025,0.059
2.030,0.051
2.035,0.047
2.040,0.056
2.045,0.064
2.050,0.060
2.055,0.056
2.060,0.058
2.065,0.057
2.070,0.054
2.075,0.050
2.080,0.045
2.085,0.039
2.090,0.053
2.095,0.117
2.100,0.163
2.105,0.104
2.110,-0.075
2.115,-0.420
2.120,-0.858
2.125,-1.113
2.130,-0.953
2.135,-0.401
2.140,0.200
2.145,0.487
2.150,0.481
2.155,0.433
2.160,0.458
2.165,0.497
2.170,0.464
2.175,0.360
2.180,0.242
2.185,0.169
2.190,0.132
2.195,0.101
2.200,0.082
2.205,0.065
2.210,0.046
2.215,0.039
2.220,0.032
2.225,0.020
2.230,0.016
2.235,0.017
2.240,0.008
2.245,0.001
2.250,-0.003
2.255,-0.006
2.260,-0.005
2.265,-0.006
2.270,-0.008
2.275,-0.009
2.280,-0.014
2.285,-0.017
2.290,-0.018
2.295,-0.020
2.300,-0.023
2.305,-0.024
2.310,-0.020
2.315,-0.017
2.320,-0.022
2.325,-0.031
2.330,-0.039
2.335,-0.043
2.340,-0.049
2.345,-0.064
2.350,-0.075
2.355,-0.085
2.360,-0.097
2.365,-0.113
2.370,-0.134
2.375,-0.152
2.380,-0.169
2.385,-0.183
2.390,-0.189
2.395,-0.197
2.400,-0.207
2.405,-0.212
2.410,-0.202
2.415,-0.177
2.420,-0.146
2.425,-0.111
2.430,-0.075
2.435,-0.038
2.440,-0.006
2.445,0.016
2.450,0.037
2.455,0.056
2.460,0.071
2.465,0.084
2.470,0.094
2.475,0.101
2.480,0.103
2.485,0.101
2.490,0.098
2.495,0.095
2.500,0.093
2.505,0.098
2.510,0.103
2.515,0.103
2.520,0.100
2.525,0.095
2.530,0.090
2.535,0.088
2.540,0.088
2.545,0.093
2.550,0.094
2.555,0.091
2.560,0.087
2.565,0.082
2.570,0.075
2.575,0.067
2.580,0.061
2.585,0.061
2.590,0.061
2.595,0.054
2.600,0.050
2.605,0.042
2.610,0.031
2.615,0.028
2.620,0.028
2.625,0.024
2.630,0.017
2.635,0.008
2.640,0.003
2.645,0.005
2.650,0.005
2.655,0.000
2.660,-0.001
2.665,-0.003
2.670,-0.005
2.675,-0.007
2.680,-0.012
2.685,-0.016
2.690,-0.011
2.695,-0.004
2.700,-0.002
2.705,-0.006
2.710,-0.009
2.715,-0.012
2.720,-0.016
2.725,-0.017
2.730,-0.014
2.735,-0.010
2.740,-0.009
2.745,-0.019
2.750,-0.032
2.755,-0.044
2.760,-0.056
2.765,-0.063
2.770,-0.064
2.775,-0.064
2.780,-0.067
2.785,-0.069
2.790,-0.072
2.795,-0.086
2.800,-0.104
2.805,-0.114
2.810,-0.110
2.815,-0.092
2.820,-0.066
2.825,-0.050
2.830,-0.050
2.835,-0.047
2.840,-0.031
2.845,-0.011
2.850,0.011
2.855,0.029
2.860,0.041
2.865,0.054
2.870,0.059
2.875,0.062
2.880,0.064
2.885,0.057
2.890,0.048
2.895,0.046
2.900,0.045
2.905,0.044
2.910,0.043
2.915,0.041
2.920,0.041
2.925,0.056
2.930,0.109
2.935,0.142
2.940,0.073
2.945,-0.112
2.950,-0.447
2.955,-0.860
2.960,-1.104
2.965,-0.965
2.970,-0.439
2.975,0.156
2.980,0.456
2.985,0.491
2.990,0.476
2.995,0.480
3.000,0.488
3.005,0.446
3.010,0.337
3.015,0.233
3.020,0.170
3.025,0.132
3.030,0.117
3.035,0.101
3.040,0.073
3.045,0.062
3.050,0.057
3.055,0.041
3.060,0.035
3.065,0.037
3.070,0.031
3.075,0.025
3.080,0.020
3.085,0.013
3.090,0.009
3.095,0.008
3.100,0.007
3.105,0.004
3.110,0.003
3.115,0.000
3.120,-0.004
3.125,-0.007
3.130,-0.009
3.135,-0.010
3.140,-0.012
3.145,-0.014
3.150,-0.015
3.155,-0.018
3.160,-0.023
3.165,-0.031
3.170,-0.038
3.175,-0.044
3.180,-0.055
3.185,-0.069
3.190,-0.084
3.195,-0.100
3.200,-0.120
3.205,-0.142
3.210,-0.161
3.215,-0.178
3.220,-0.193
3.225,-0.209
3.230,-0.221
3.235,-0.224
3.240,-0.221
3.245,-0.207
3.250,-0.183
3.255,-0.149
3.260,-0.109
3.265,-0.071
3.270,-0.037
3.275,-0.009
3.280,0.018
3.285,0.044
3.290,0.066
3.295,0.081
3.300,0.089
3.305,0.096
3.310,0.101
3.315,0.101
3.320,0.101
3.325,0.103
3.330,0.101
3.335,0.098
3.340,0.100
3.345,0.099
3.350,0.098
3.355,0.096
3.360,0.098
3.365,0.099
3.370,0.094
3.375,0.088
3.380,0.088
3.385,0.089
3.390,0.091
3.395,0.087
3.400,0.083
3.405,0.083
3.410,0.079
3.415,0.076
3.420,0.073
3.425,0.068
3.430,0.064
3.435,0.059
3.440,0.051
3.445,0.047
3.450,0.043
3.455,0.038
3.460,0.029
3.465,0.021
3.470,0.013
3.475,0.005
3.480,0.006
3.485,0.012
3.490,0.010
3.495,0.003
3.500,-0.001
3.505,-0.002
3.510,-0.003
3.515,-0.006
3.520,-0.008
3.525,-0.010
3.530,-0.013
3.535,-0.014
3.540,-0.015
3.545,-0.017
3.550,-0.017
3.555,-0.016
3.560,-0.015
3.565,-0.019
3.570,-0.020
3.575,-0.020
3.580,-0.021
3.585,-0.025
3.590,-0.037
3.595,-0.052
3.600,-0.062
3.605,-0.064
3.610,-0.066
3.615,-0.071
3.620,-0.076
3.625,-0.077
3.630,-0.080
3.635,-0.093
3.640,-0.113
3.645,-0.126
3.650,-0.117
3.655,-0.090
3.660,-0.063
3.665,-0.056
3.670,-0.061
3.675,-0.055
3.680,-0.039
3.685,-0.018
3.690,0.014
3.695,0.039
3.700,0.049
3.705,0.050
3.710,0.048
3.715,0.052
3.720,0.055
3.725,0.048
3.730,0.048
3.735,0.051
3.740,0.046
3.745,0.041
3.750,0.041
3.755,0.039
3.760,0.035
3.765,0.054
3.770,0.112
3.775,0.131
3.780,0.044
3.785,-0.161
3.790,-0.517
3.795,-0.910
3.800,-1.083
3.805,-0.870
3.810,-0.316
3.815,0.229
3.820,0.451
3.825,0.464
3.830,0.461
3.835,0.477
3.840,0.483
3.845,0.422
3.850,0.308
3.855,0.218
3.860,0.164
3.865,0.126
3.870,0.113
3.875,0.098
3.880,0.076
3.885,0.071
3.890,0.067
3.895,0.053
3.900,0.044
3.905,0.039
3.910,0.031
3.915,0.024
3.920,0.022
3.925,0.018
3.930,0.013
3.935,0.012
3.940,0.012
3.945,0.009
3.950,0.006
3.955,0.001
3.960,-0.003
3.965,-0.005
3.970,-0.006
3.975,-0.006
3.980,-0.007
3.985,-0.011
3.990,-0.015
3.995,-0.019
4.000,-0.020
4.005,-0.024
4.010,-0.035
4.015,-0.048
4.020,-0.058
4.025,-0.069
4.030,-0.086
4.035,-0.101
4.040,-0.119
4.045,-0.141
4.050,-0.165
4.055,-0.183
4.060,-0.196
4.065,-0.210
4.070,-0.223
4.075,-0.227
4.080,-0.221
4.085,-0.204
4.090,-0.177
4.095,-0.144
4.100,-0.106
4.105,-0.070
4.110,-0.037
4.115,-0.003
4.120,0.026
4.125,0.049
4.130,0.068
4.135,0.082
4.140,0.092
4.145,0.096
4.150,0.095
4.155,0.097
4.160,0.102
4.165,0.103
4.170,0.102
4.175,0.101
4.180,0.098
4.185,0.095
4.190,0.095
4.195,0.094
4.200,0.092
4.205,0.089
4.210,0.085
4.215,0.086
4.220,0.086
4.225,0.084
4.230,0.082
4.235,0.083
4.240,0.083
4.245,0.080
4.250,0.075
4.255,0.072
4.260,0.070
4.265,0.066
4.270,0.061
4.275,0.057
4.280,0.052
4.285,0.048
4.290,0.043
4.295,0.033
4.300,0.024
4.305,0.021
4.310,0.018
4.315,0.014
4.320,0.010
4.325,0.008
4.330,0.007
4.335,0.005
4.340,0.000
4.345,-0.005
4.350,-0.007
4.355,-0.010
4.360,-0.012
4.365,-0.013
4.370,-0.014
4.375,-0.013
4.380,-0.014
4.385,-0.016
4.390,-0.015
4.395,-0.014
4.400,-0.015
4.405,-0.017
4.410,-0.021
4.415,-0.022
4.420,-0.019
4.425,-0.017
4.430,-0.020
4.435,-0.032
4.440,-0.048
4.445,-0.062
4.450,-0.070
4.455,-0.072
4.460,-0.071
4.465,-0.071
4.470,-0.077
4.475,-0.086
4.480,-0.095
4.485,-0.109
4.490,-0.121
4.495,-0.117
4.500,-0.094
4.505,-0.067
4.510,-0.055
4.515,-0.061
4.520,-0.061
4.525,-0.046
4.530,-0.025
4.535,0.009
4.540,0.040
4.545,0.052
4.550,0.052
4.555,0.046
4.560,0.046
4.565,0.053
4.570,0.054
4.575,0.048
4.580,0.044
4.585,0.041
4.590,0.044
4.595,0.050
4.600,0.045
4.605,0.034
4.610,0.040
4.615,0.091
4.620,0.140
4.625,0.097
4.630,-0.059
4.635,-0.354
4.640,-0.752
4.645,-1.040
4.650,-0.977
4.655,-0.527
4.660,0.057
4.665,0.410
4.670,0.463
4.675,0.448
4.680,0.460
4.685,0.482
4.690,0.464
4.695,0.359
4.700,0.245
4.705,0.179
4.710,0.142
4.715,0.119
4.720,0.100
4.725,0.072
4.730,0.055
4.735,0.055
4.740,0.054
4.745,0.048
4.750,0.038
4.755,0.024
4.760,0.016
4.765,0.019
4.770,0.021
4.775,0.017
4.780,0.014
4.785,0.014
4.790,0.012
4.795,0.009
4.800,0.006
4.805,-0.005
4.810,-0.014
4.815,-0.014
4.820,-0.012
4.825,-0.017
4.830,-0.015
4.835,-0.005
4.840,-0.005
4.845,-0.016
4.850,-0.028
4.855,-0.037
4.860,-0.043
4.865,-0.057
4.870,-0.070
4.875,-0.079
4.880,-0.098
4.885,-0.126
4.890,-0.141
4.895,-0.147
4.900,-0.164
4.905,-0.187
4.910,-0.215
4.915,-0.235
4.920,-0.233
4.925,-0.221
4.930,-0.205
4.935,-0.183
4.940,-0.156
4.945,-0.120
4.950,-0.078
4.955,-0.043
4.960,-0.017
4.965,0.012
4.970,0.035
4.975,0.049
4.980,0.070
4.985,0.092
4.990,0.107
4.995,0.106
5.000,0.099
5.005,0.098
5.010,0.101
5.015,0.105
5.020,0.102
5.025,0.096
5.030,0.095
5.035,0.099
5.040,0.109
5.045,0.108
5.050,0.093
5.055,0.090
5.060,0.095
5.065,0.095
5.070,0.090
5.075,0.083
5.080,0.087
5.085,0.092
5.090,0.085
5.095,0.083
5.100,0.081
5.105,0.077
5.110,0.071
5.115,0.064
5.120,0.064
5.125,0.062
5.130,0.050
5.135,0.044
5.140,0.046
5.145,0.044
5.150,0.030
5.155,0.013
5.160,0.008
5.165,0.005
5.170,0.004
5.175,0.002
5.180,-0.001
5.185,0.002
5.190,0.005
5.195,0.007
5.200,0.001
5.205,-0.013
5.210,-0.017
5.215,-0.019
5.220,-0.030
5.225,-0.027
5.230,-0.011
5.235,-0.008
5.240,-0.012
5.245,-0.018
5.250,-0.015
5.255,-0.012
5.260,-0.026
5.265,-0.032
5.270,-0.026
5.275,-0.025
5.280,-0.027
5.285,-0.041
5.290,-0.057
5.295,-0.071
5.300,-0.074
5.305,-0.064
5.310,-0.070
5.315,-0.076
5.320,-0.075
5.325,-0.093
5.330,-0.112
5.335,-0.120
5.340,-0.112
5.345,-0.090
5.350,-0.076
5.355,-0.065
5.360,-0.061
5.365,-0.055
5.370,-0.037
5.375,-0.019
5.380,0.012
5.385,0.036
5.390,0.043
5.395,0.048
5.400,0.042
5.405,0.039
5.410,0.044
5.415,0.038
5.420,0.043
5.425,0.050
5.430,0.048
5.435,0.047
5.440,0.044
5.445,0.044
5.450,0.042
5.455,0.038
5.460,0.081
5.465,0.142
5.470,0.126
5.475,0.002
5.480,-0.270
5.485,-0.674
5.490,-0.986
5.495,-0.905
5.500,-0.415
5.505,0.158
5.510,0.454
5.515,0.444
5.520,0.389
5.525,0.417
5.530,0.469
5.535,0.460
5.540,0.376
5.545,0.255
5.550,0.144
5.555,0.092
5.560,0.071
5.565,0.059
5.570,0.046
5.575,0.032
5.580,0.021
5.585,0.008
5.590,0.000
5.595,-0.007
5.600,-0.012
5.605,-0.013
5.610,-0.017
5.615,-0.020
5.620,-0.022
5.625,-0.033
5.630,-0.042
5.635,-0.030
5.640,-0.023
5.645,-0.030
5.650,-0.028
5.655,-0.023
5.660,-0.024
5.665,-0.032
5.670,-0.038
5.675,-0.036
5.680,-0.042
5.685,-0.044
5.690,-0.039
5.695,-0.040
5.700,-0.048
5.705,-0.063
5.710,-0.067
5.715,-0.066
5.720,-0.079
5.725,-0.099
5.730,-0.119
5.735,-0.140
5.740,-0.148
5.745,-0.145
5.750,-0.162
5.755,-0.190
5.760,-0.200
5.765,-0.203
5.770,-0.204
5.775,-0.198
5.780,-0.176
5.785,-0.130
5.790,-0.088
5.795,-0.068
5.800,-0.045
5.805,-0.011
5.810,0.010
5.815,0.030
5.820,0.058
5.825,0.071
5.830,0.080
5.835,0.101
5.840,0.114
5.845,0.103
5.850,0.091
5.855,0.096
5.860,0.110
5.865,0.114
5.870,0.102
5.875,0.101
5.880,0.117
5.885,0.114
5.890,0.098
5.895,0.102
5.900,0.107
5.905,0.094
5.910,0.086
5.915,0.091
5.920,0.093
5.925,0.089
5.930,0.084
5.935,0.081
5.940,0.079
5.945,0.066
5.950,0.054
5.955,0.045
5.960,0.038
5.965,0.038
5.970,0.041
5.975,0.036
5.980,0.021
5.985,0.017
5.990,0.027
5.995,0.028
6.000,0.012
6.005,0.002
6.010,0.003
6.015,0.000
6.020,-0.005
6.025,-0.004
6.030,0.002
6.035,0.010
6.040,0.012
6.045,0.005
6.050,-0.007
6.055,-0.012
6.060,-0.001
6.065,0.006
6.070,-0.003
6.075,-0.019
6.080,-0.022
6.085,0.000
6.090,0.009
6.095,0.002
6.100,-0.003
6.105,-0.009
6.110,-0.014
6.115,-0.017
6.120,-0.018
6.125,-0.024
6.130,-0.032
6.135,-0.041
6.140,-0.046
6.145,-0.046
6.150,-0.047
6.155,-0.049
6.160,-0.057
6.165,-0.067
6.170,-0.080
6.175,-0.100
6.180,-0.113
6.185,-0.108
6.190,-0.088
6.195,-0.059
6.200,-0.037
6.205,-0.037
6.210,-0.040
6.215,-0.029
6.220,-0.009
6.225,0.020
6.230,0.048
6.235,0.053
6.240,0.047
6.245,0.048
6.250,0.054
6.255,0.059
6.260,0.056
6.265,0.047
6.270,0.044
6.275,0.046
6.280,0.041
6.285,0.036
6.290,0.035
6.295,0.037
6.300,0.064
6.305,0.135
6.310,0.172
6.315,0.099
6.320,-0.084
6.325,-0.430
6.330,-0.864
6.335,-1.092
6.340,-0.884
6.345,-0.292
6.350,0.283
6.355,0.501
6.360,0.446
6.365,0.385
6.370,0.431
6.375,0.478
6.380,0.439
6.385,0.344
6.390,0.237
6.395,0.161
6.400,0.114
6.405,0.082
6.410,0.071
6.415,0.060
6.420,0.043
6.425,0.032
6.430,0.023
6.435,0.012
6.440,0.009
6.445,0.007
6.450,-0.001
6.455,-0.004
6.460,-0.004
6.465,-0.009
6.470,-0.011
6.475,-0.007
6.480,-0.004
6.485,-0.004
6.490,-0.010
6.495,-0.017
6.500,-0.021
6.505,-0.025
6.510,-0.023
6.515,-0.021
6.520,-0.024
6.525,-0.033
6.530,-0.038
6.535,-0.031
6.540,-0.029
6.545,-0.037
6.550,-0.047
6.555,-0.064
6.560,-0.072
6.565,-0.076
6.570,-0.090
6.575,-0.108
6.580,-0.127
6.585,-0.145
6.590,-0.161
6.595,-0.175
6.600,-0.188
6.605,-0.198
6.610,-0.204
6.615,-0.200
6.620,-0.184
6.625,-0.161
6.630,-0.129
6.635,-0.098
6.640,-0.068
6.645,-0.031
6.650,0.000
6.655,0.023
6.660,0.042
6.665,0.057
6.670,0.072
6.675,0.085
6.680,0.088
6.685,0.092
6.690,0.095
6.695,0.099
6.700,0.105
6.705,0.106
6.710,0.098
6.715,0.095
6.720,0.101
6.725,0.102
6.730,0.097
6.735,0.095
6.740,0.098
6.745,0.098
6.750,0.092
6.755,0.091
6.760,0.092
6.765,0.089
6.770,0.081
6.775,0.071
6.780,0.067
6.785,0.061
6.790,0.056
6.795,0.053
6.800,0.045
6.805,0.036
6.810,0.030
6.815,0.024
6.820,0.016
6.825,0.014
6.830,0.017
6.835,0.021
6.840,0.019
6.845,0.010
6.850,0.001
6.855,-0.003
6.860,-0.001
6.865,-0.002
6.870,-0.006
6.875,-0.008
6.880,-0.008
6.885,-0.004
6.890,-0.001
6.895,-0.004
6.900,-0.006
6.905,-0.005
6.910,-0.007
6.915,-0.010
6.920,-0.011
6.925,-0.012
6.930,-0.011
6.935,-0.010
6.940,-0.009
6.945,-0.010
6.950,-0.016
6.955,-0.026
6.960,-0.041
6.965,-0.055
6.970,-0.063
6.975,-0.066
6.980,-0.065
6.985,-0.066
6.990,-0.068
6.995,-0.073
7.000,-0.086
7.005,-0.104
7.010,-0.115
7.015,-0.105
7.020,-0.079
7.025,-0.056
7.030,-0.051
7.035,-0.059
7.040,-0.052
7.045,-0.031
7.050,-0.009
7.055,0.017
7.060,0.036
7.065,0.048
7.070,0.055
7.075,0.050
7.080,0.050
7.085,0.052
7.090,0.051
7.095,0.049
7.100,0.047
7.105,0.045
7.110,0.044
7.115,0.043
7.120,0.041
7.125,0.038
7.130,0.063
7.135,0.122
7.140,0.132
7.145,0.038
7.150,-0.175
7.155,-0.547
7.160,-0.955
7.165,-1.120
7.170,-0.867
7.175,-0.271
7.180,0.280
7.185,0.484
7.190,0.476
7.195,0.460
7.200,0.486
7.205,0.500
7.210,0.436
7.215,0.317
7.220,0.215
7.225,0.156
7.230,0.126
7.235,0.112
7.240,0.095
7.245,0.070
7.250,0.058
7.255,0.053
7.260,0.043
7.265,0.034
7.270,0.034
7.275,0.030
7.280,0.020
7.285,0.015
7.290,0.012
7.295,0.007
7.300,0.002
7.305,0.002
7.310,0.002
7.315,0.001
7.320,-0.001
7.325,-0.004
7.330,-0.006
7.335,-0.005
7.340,-0.006
7.345,-0.011
7.350,-0.017
7.355,-0.021
7.360,-0.023
7.365,-0.022
7.370,-0.025
7.375,-0.032
7.380,-0.039
7.385,-0.052
7.390,-0.073
7.395,-0.093
7.400,-0.110
7.405,-0.126
7.410,-0.140
7.415,-0.158
7.420,-0.175
7.425,-0.189
7.430,-0.202
7.435,-0.213
7.440,-0.218
7.445,-0.213
7.450,-0.196
7.455,-0.168
7.460,-0.135
7.465,-0.101
7.470,-0.062
7.475,-0.028
7.480,0.000
7.485,0.026
7.490,0.048
7.495,0.066
7.500,0.081
7.505,0.093
7.510,0.099
7.515,0.099
7.520,0.100
7.525,0.105
7.530,0.108
7.535,0.107
7.540,0.099
7.545,0.092
7.550,0.091
7.555,0.091
7.560,0.091
7.565,0.090
7.570,0.091
7.575,0.091
7.580,0.088
7.585,0.085
7.590,0.086
7.595,0.091
7.600,0.091
7.605,0.085
7.610,0.079
7.615,0.077
7.620,0.073
7.625,0.068
7.630,0.063
7.635,0.061
7.640,0.057
7.645,0.049
7.650,0.045
7.655,0.041
7.660,0.033
7.665,0.025
7.670,0.019
7.675,0.016
7.680,0.012
7.685,0.008
7.690,0.007
7.695,0.004
7.700,-0.001
7.705,-0.003
7.710,-0.007
7.715,-0.012
7.720,-0.013
7.725,-0.010
7.730,-0.009
7.735,-0.012
7.740,-0.016
7.745,-0.016
7.750,-0.015
7.755,-0.018
7.760,-0.021
7.765,-0.021
7.770,-0.020
7.775,-0.020
7.780,-0.024
7.785,-0.029
7.790,-0.040
7.795,-0.053
7.800,-0.062
7.805,-0.067
7.810,-0.070
7.815,-0.073
7.820,-0.076
7.825,-0.076
7.830,-0.084
7.835,-0.102
7.840,-0.119
7.845,-0.124
7.850,-0.105
7.855,-0.076
7.860,-0.057
7.865,-0.056
7.870,-0.061
7.875,-0.052
7.880,-0.031
7.885,-0.001
7.890,0.030
7.895,0.042
7.900,0.044
7.905,0.044
7.910,0.044
7.915,0.049
7.920,0.051
7.925,0.048
7.930,0.050
7.935,0.051
7.940,0.042
7.945,0.034
7.950,0.031
7.955,0.031
7.960,0.040
7.965,0.085
7.970,0.135
7.975,0.101
7.980,-0.041
7.985,-0.314
7.990,-0.715
7.995,-1.048
8.000,-1.044
8.005,-0.631
8.010,-0.023
8.015,0.389
8.020,0.477
8.025,0.469
8.030,0.476
8.035,0.485
8.040,0.464
8.045,0.370
8.050,0.257
8.055,0.183
8.060,0.140
8.065,0.118
8.070,0.106
8.075,0.084
8.080,0.064
8.085,0.055
8.090,0.046
8.095,0.039
8.100,0.038
8.105,0.032
8.110,0.023
8.115,0.022
8.120,0.022
8.125,0.016
8.130,0.012
8.135,0.009
8.140,0.006
8.145,0.002
8.150,0.001
8.155,0.001
8.160,-0.001
8.165,-0.004
8.170,-0.009
8.175,-0.013
8.180,-0.017
8.185,-0.019
8.190,-0.020
8.195,-0.020
8.200,-0.021
8.205,-0.027
8.210,-0.039
8.215,-0.053
8.220,-0.067
8.225,-0.080
8.230,-0.097
8.235,-0.117
8.240,-0.136
8.245,-0.156
8.250,-0.178
8.255,-0.197
8.260,-0.209
8.265,-0.219
8.270,-0.228
8.275,-0.231
8.280,-0.222
8.285,-0.199
8.290,-0.167
8.295,-0.129
8.300,-0.086
8.305,-0.048
8.310,-0.015
8.315,0.013
8.320,0.038
8.325,0.060
8.330,0.076
8.335,0.085
8.340,0.093
8.345,0.099
8.350,0.103
8.355,0.106
8.360,0.103
8.365,0.101
8.370,0.102
8.375,0.100
8.380,0.099
8.385,0.099
8.390,0.096
8.395,0.095
8.400,0.093
8.405,0.091
8.410,0.087
8.415,0.086
8.420,0.085
8.425,0.083
8.430,0.081
8.435,0.081
8.440,0.084
8.445,0.085
8.450,0.078
8.455,0.072
8.460,0.069
8.465,0.066
8.470,0.062
8.475,0.059
8.480,0.055
8.485,0.050
8.490,0.041
8.495,0.032
8.500,0.030
8.505,0.029
8.510,0.023
8.515,0.014
8.520,0.011
8.525,0.009
8.530,0.005
8.535,0.002
8.540,-0.004
8.545,-0.006
8.550,-0.004
8.555,-0.003
8.560,-0.005
8.565,-0.007
8.570,-0.010
8.575,-0.014
8.580,-0.016
8.585,-0.017
8.590,-0.016
8.595,-0.015
8.600,-0.015
8.605,-0.017
8.610,-0.019
8.615,-0.022
8.620,-0.023
8.625,-0.027
8.630,-0.036
8.635,-0.050
8.640,-0.062
8.645,-0.069
8.650,-0.072
8.655,-0.073
8.660,-0.078
8.665,-0.082
8.670,-0.087
8.675,-0.098
8.680,-0.113
8.685,-0.124
8.690,-0.114
8.695,-0.086
8.700,-0.063
8.705,-0.058
8.710,-0.064
8.715,-0.057
8.720,-0.036
8.725,-0.010
8.730,0.021
8.735,0.042
8.740,0.047
8.745,0.045
8.750,0.044
8.755,0.050
8.760,0.056
8.765,0.052
8.770,0.049
8.775,0.049
8.780,0.044
8.785,0.040
8.790,0.040
8.795,0.035
8.800,0.034
8.805,0.058
8.810,0.115
8.815,0.134
8.820,0.049
8.825,-0.154
8.830,-0.510
8.835,-0.901
8.840,-1.071
8.845,-0.864
8.850,-0.327
8.855,0.203
8.860,0.427
8.865,0.450
8.870,0.452
8.875,0.468
8.880,0.478
8.885,0.421
8.890,0.307
8.895,0.215
8.900,0.162
8.905,0.130
8.910,0.117
8.915,0.098
8.920,0.076
8.925,0.071
8.930,0.065
8.935,0.051
8.940,0.043
8.945,0.041
8.950,0.036
8.955,0.030
8.960,0.028
8.965,0.022
8.970,0.015
8.975,0.012
8.980,0.010
8.985,0.007
8.990,0.006
8.995,0.002
9.000,-0.002
9.005,-0.003
9.010,-0.006
9.015,-0.008
9.020,-0.010
9.025,-0.014
9.030,-0.017
9.035,-0.019
9.040,-0.021
9.045,-0.022
9.050,-0.031
9.055,-0.044
9.060,-0.055
9.065,-0.068
9.070,-0.084
9.075,-0.104
9.080,-0.125
9.085,-0.142
9.090,-0.161
9.095,-0.182
9.100,-0.200
9.105,-0.213
9.110,-0.224
9.115,-0.229
9.120,-0.224
9.125,-0.206
9.130,-0.179
9.135,-0.147
9.140,-0.107
9.145,-0.068
9.150,-0.035
9.155,-0.005
9.160,0.023
9.165,0.046
9.170,0.064
9.175,0.076
9.180,0.087
9.185,0.096
9.190,0.099
9.195,0.103
9.200,0.107
9.205,0.108
9.210,0.106
9.215,0.100
9.220,0.095
9.225,0.095
9.230,0.092
9.235,0.091
9.240,0.090
9.245,0.085
9.250,0.087
9.255,0.090
9.260,0.091
9.265,0.091
9.270,0.089
9.275,0.085
9.280,0.084
9.285,0.083
9.290,0.078
9.295,0.069
9.300,0.061
9.305,0.059
9.310,0.060
9.315,0.059
9.320,0.051
9.325,0.041
9.330,0.037
9.335,0.034
9.340,0.030
9.345,0.025
9.350,0.017
9.355,0.012
9.360,0.009
9.365,0.002
9.370,-0.003
9.375,-0.006
9.380,-0.008
9.385,-0.006
9.390,-0.006
9.395,-0.009
9.400,-0.005
9.405,-0.001
9.410,-0.008
9.415,-0.013
9.420,-0.013
9.425,-0.014
9.430,-0.010
9.435,-0.010
9.440,-0.014
9.445,-0.019
9.450,-0.027
9.455,-0.026
9.460,-0.021
9.465,-0.023
9.470,-0.033
9.475,-0.048
9.480,-0.060
9.485,-0.066
9.490,-0.068
9.495,-0.067
9.500,-0.065
9.505,-0.066
9.510,-0.076
9.515,-0.095
9.520,-0.114
9.525,-0.127
9.530,-0.121
9.535,-0.093
9.540,-0.061
9.545,-0.053
9.550,-0.062
9.555,-0.056
9.560,-0.034
9.565,-0.014
9.570,0.008
9.575,0.038
9.580,0.057
9.585,0.057
9.590,0.046
9.595,0.046
9.600,0.057
9.605,0.054
9.610,0.048
9.615,0.054
9.620,0.054
9.625,0.047
9.630,0.041
9.635,0.038
9.640,0.038
9.645,0.055
9.650,0.110
9.655,0.144
9.660,0.083
9.665,-0.095
9.670,-0.430
9.675,-0.827
9.680,-1.022
9.685,-0.821
9.690,-0.288
9.695,0.220
9.700,0.422
9.705,0.414
9.710,0.408
9.715,0.464
9.720,0.499
9.725,0.449
9.730,0.346
9.735,0.230
9.740,0.149
9.745,0.112
9.750,0.091
9.755,0.079
9.760,0.063
9.765,0.045
9.770,0.034
9.775,0.027
9.780,0.017
9.785,0.008
9.790,0.006
9.795,0.009
9.800,0.013
9.805,0.008
9.810,-0.006
9.815,-0.015
9.820,-0.012
9.825,-0.002
9.830,-0.002
9.835,-0.007
9.840,-0.009
9.845,-0.012
9.850,-0.011
9.855,-0.011
9.860,-0.020
9.865,-0.024
9.870,-0.018
9.875,-0.023
9.880,-0.031
9.885,-0.040
9.890,-0.055
9.895,-0.056
9.900,-0.057
9.905,-0.068
9.910,-0.084
9.915,-0.109
9.920,-0.134
9.925,-0.151
9.930,-0.166
9.935,-0.178
9.940,-0.190
9.945,-0.201
9.950,-0.205
9.955,-0.207
9.960,-0.206
9.965,-0.194
9.970,-0.168
9.975,-0.133
9.980,-0.091
9.985,-0.054
9.990,-0.027
9.995,-0.003
10.000,0.019
10.005,0.048
10.010,0.079
10.015,0.092
10.020,0.100
10.025,0.103
10.030,0.100
10.035,0.104
10.040,0.104
10.045,0.099
10.050,0.104
10.055,0.110
10.060,0.105
10.065,0.098
10.070,0.100
10.075,0.103
10.080,0.097
10.085,0.095
10.090,0.095
10.095,0.096
10.100,0.094
10.105,0.087
10.110,0.084
10.115,0.080
10.120,0.077
10.125,0.085
10.130,0.088
10.135,0.075
10.140,0.059
10.145,0.055
10.150,0.052
10.155,0.043
10.160,0.037
10.165,0.034
10.170,0.029
10.175,0.026
10.180,0.018
10.185,0.012
10.190,0.017
10.195,0.014
10.200,0.003
10.205,-0.007
10.210,-0.013
10.215,-0.002
10.220,0.005
10.225,-0.001
10.230,-0.007
10.235,-0.013
10.240,-0.024
10.245,-0.031
10.250,-0.021
10.255,-0.003
10.260,-0.002
10.265,-0.014
10.270,-0.029
10.275,-0.033
10.280,-0.021
10.285,-0.015
10.290,-0.015
10.295,-0.020
10.300,-0.024
10.305,-0.022
10.310,-0.028
10.315,-0.046
10.320,-0.058
10.325,-0.062
10.330,-0.070
10.335,-0.070
10.340,-0.070
10.345,-0.074
10.350,-0.076
10.355,-0.093
10.360,-0.115
10.365,-0.124
10.370,-0.120
10.375,-0.088
10.380,-0.060
10.385,-0.058
10.390,-0.063
10.395,-0.050
10.400,-0.025
10.405,-0.007
10.410,0.011
10.415,0.035
10.420,0.050
10.425,0.049
10.430,0.040
10.435,0.041
10.440,0.053
10.445,0.057
10.450,0.056
10.455,0.051
10.460,0.038
10.465,0.028
10.470,0.031
10.475,0.039
10.480,0.043
10.485,0.065
10.490,0.132
10.495,0.172
10.500,0.102
10.505,-0.105
10.510,-0.480
10.515,-0.894
10.520,-1.058
10.525,-0.788
10.530,-0.189
10.535,0.337
10.540,0.500
10.545,0.436
10.550,0.391
10.555,0.438
10.560,0.478
10.565,0.429
10.570,0.324
10.575,0.212
10.580,0.141
10.585,0.111
10.590,0.090
10.595,0.071
10.600,0.042
10.605,0.020
10.610,0.021
10.615,0.017
10.620,0.008
10.625,0.003
10.630,0.005
10.635,0.008
10.640,0.002
10.645,-0.008
10.650,-0.018
10.655,-0.021
10.660,-0.015
10.665,-0.012
10.670,-0.012
10.675,-0.015
10.680,-0.017
10.685,-0.014
10.690,-0.013
10.695,-0.019
10.700,-0.028
10.705,-0.035
10.710,-0.030
10.715,-0.021
10.720,-0.030
10.725,-0.039
10.730,-0.038
10.735,-0.042
10.740,-0.052
10.745,-0.070
10.750,-0.093
10.755,-0.108
10.760,-0.128
10.765,-0.144
10.770,-0.149
10.775,-0.159
10.780,-0.170
10.785,-0.181
10.790,-0.198
10.795,-0.204
10.800,-0.196
10.805,-0.183
10.810,-0.156
10.815,-0.120
10.820,-0.088
10.825,-0.056
10.830,-0.031
10.835,-0.002
10.840,0.032
10.845,0.055
10.850,0.070
10.855,0.082
10.860,0.086
10.865,0.088
10.870,0.092
10.875,0.097
10.880,0.100
10.885,0.104
10.890,0.108
10.895,0.103
10.900,0.098
10.905,0.093
10.910,0.087
10.915,0.094
10.920,0.103
10.925,0.100
10.930,0.094
10.935,0.089
10.940,0.090
10.945,0.093
10.950,0.087
10.955,0.081
10.960,0.080
10.965,0.076
10.970,0.072
10.975,0.065
10.980,0.056
10.985,0.047
10.990,0.037
10.995,0.031
11.000,0.032
11.005,0.029
11.010,0.023
11.015,0.020
11.020,0.012
11.025,0.004
11.030,0.005
11.035,0.007
11.040,0.006
11.045,0.002
11.050,-0.006
11.055,-0.009
11.060,-0.001
11.065,0.004
11.070,0.004
11.075,-0.003
11.080,-0.013
11.085,-0.015
11.090,-0.012
11.095,-0.009
11.100,-0.002
11.105,-0.002
11.110,-0.010
11.115,-0.015
11.120,-0.013
11.125,-0.010
11.130,-0.013
11.135,-0.018
11.140,-0.016
11.145,-0.016
11.150,-0.023
11.155,-0.032
11.160,-0.047
11.165,-0.059
11.170,-0.064
11.175,-0.064
11.180,-0.064
11.185,-0.071
11.190,-0.083
11.195,-0.098
11.200,-0.112
11.205,-0.114
11.210,-0.098
11.215,-0.066
11.220,-0.043
11.225,-0.048
11.230,-0.059
11.235,-0.052
11.240,-0.031
11.245,-0.006
11.250,0.021
11.255,0.041
11.260,0.049
11.265,0.052
11.270,0.050
11.275,0.052
11.280,0.051
11.285,0.048
11.290,0.053
11.295,0.056
11.300,0.050
11.305,0.043
11.310,0.040
11.315,0.039
11.320,0.042
11.325,0.081
11.330,0.145
11.335,0.138
11.340,0.011
11.345,-0.257
11.350,-0.672
11.355,-1.041
11.360,-1.074
11.365,-0.687
11.370,-0.069
11.375,0.386
11.380,0.487
11.385,0.445
11.390,0.442
11.395,0.491
11.400,0.500
11.405,0.417
11.410,0.298
11.415,0.204
11.420,0.151
11.425,0.112
11.430,0.091
11.435,0.078
11.440,0.063
11.445,0.052
11.450,0.045
11.455,0.039
11.460,0.032
11.465,0.025
11.470,0.015
11.475,0.007
11.480,0.007
11.485,0.012
11.490,0.012
11.495,0.005
11.500,0.001
11.505,-0.002
11.510,-0.005
11.515,-0.008
11.520,-0.012
11.525,-0.012
11.530,-0.013
11.535,-0.015
11.540,-0.017
11.545,-0.022
11.550,-0.026
11.555,-0.029
11.560,-0.031
11.565,-0.032
11.570,-0.039
11.575,-0.050
11.580,-0.063
11.585,-0.078
11.590,-0.096
11.595,-0.112
11.600,-0.129
11.605,-0.146
11.610,-0.163
11.615,-0.181
11.620,-0.193
11.625,-0.205
11.630,-0.216
11.635,-0.214
11.640,-0.207
11.645,-0.191
11.650,-0.158
11.655,-0.117
11.660,-0.080
11.665,-0.047
11.670,-0.016
11.675,0.013
11.680,0.035
11.685,0.054
11.690,0.071
11.695,0.082
11.700,0.092
11.705,0.102
11.710,0.109
11.715,0.111
11.720,0.105
11.725,0.095
11.730,0.089
11.735,0.090
11.740,0.093
11.745,0.096
11.750,0.099
11.755,0.100
11.760,0.097
11.765,0.093
11.770,0.090
11.775,0.089
11.780,0.093
11.785,0.094
11.790,0.094
11.795,0.092
11.800,0.087
11.805,0.080
11.810,0.074
11.815,0.070
11.820,0.065
11.825,0.056
11.830,0.049
11.835,0.046
11.840,0.042
11.845,0.035
11.850,0.027
11.855,0.019
11.860,0.016
11.865,0.015
11.870,0.014
11.875,0.012
11.880,0.007
11.885,0.001
11.890,-0.005
11.895,-0.008
11.900,-0.010
11.905,-0.009
11.910,-0.005
11.915,-0.004
11.920,-0.004
11.925,-0.007
11.930,-0.014
11.935,-0.020
11.940,-0.023
11.945,-0.018
11.950,-0.017
11.955,-0.017
11.960,-0.015
11.965,-0.015
11.970,-0.018
11.975,-0.026
11.980,-0.039
11.985,-0.049
11.990,-0.058
11.995,-0.068
12.000,-0.073
12.005,-0.074
12.010,-0.075
12.015,-0.075
12.020,-0.083
12.025,-0.103
12.030,-0.119
12.035,-0.121
12.040,-0.101
12.045,-0.069
12.050,-0.052
12.055,-0.055
12.060,-0.053
12.065,-0.039
12.070,-0.019
12.075,0.003
12.080,0.028
12.085,0.046
12.090,0.052
12.095,0.049
12.100,0.052
12.105,0.058
12.110,0.057
12.115,0.051
12.120,0.045
12.125,0.043
12.130,0.042
12.135,0.042
12.140,0.042
12.145,0.038
12.150,0.049
12.155,0.103
12.160,0.138
12.165,0.074
12.170,-0.101
12.175,-0.428
12.180,-0.844
12.185,-1.099
12.190,-0.973
12.195,-0.461
12.200,0.132
12.205,0.437
12.210,0.477
12.215,0.476
12.220,0.491
12.225,0.501
12.230,0.455
12.235,0.340
12.240,0.237
12.245,0.170
12.250,0.125
12.255,0.111
12.260,0.098
12.265,0.074
12.270,0.061
12.275,0.054
12.280,0.044
12.285,0.043
12.290,0.044
12.295,0.037
12.300,0.026
12.305,0.022
12.310,0.020
12.315,0.016
12.320,0.012
12.325,0.007
12.330,0.002
12.335,0.001
12.340,0.001
12.345,0.000
12.350,0.000
12.355,-0.004
12.360,-0.009
12.365,-0.009
12.370,-0.008
12.375,-0.012
12.380,-0.020
12.385,-0.027
12.390,-0.030
12.395,-0.030
12.400,-0.037
12.405,-0.051
12.410,-0.066
12.415,-0.081
12.420,-0.098
12.425,-0.119
12.430,-0.142
12.435,-0.165
12.440,-0.186
12.445,-0.203
12.450,-0.215
12.455,-0.224
12.460,-0.230
12.465,-0.229
12.470,-0.214
12.475,-0.190
12.480,-0.155
12.485,-0.111
12.490,-0.069
12.495,-0.035
12.500,-0.005
12.505,0.024
12.510,0.048
12.515,0.065
12.520,0.079
12.525,0.092
12.530,0.101
12.535,0.103
12.540,0.103
12.545,0.101
12.550,0.097
12.555,0.096
12.560,0.099
12.565,0.099
12.570,0.096
12.575,0.093
12.580,0.091
12.585,0.091
12.590,0.091
12.595,0.090
12.600,0.092
12.605,0.090
12.610,0.084
12.615,0.081
12.620,0.082
12.625,0.084
12.630,0.085
12.635,0.081
12.640,0.075
12.645,0.070
12.650,0.067
12.655,0.063
12.660,0.057
12.665,0.053
12.670,0.047
12.675,0.043
12.680,0.039
12.685,0.034
12.690,0.030
12.695,0.024
12.700,0.017
12.705,0.011
12.710,0.007
12.715,0.006
12.720,0.003
12.725,-0.003
12.730,-0.006
12.735,-0.006
12.740,-0.006
12.745,-0.007
12.750,-0.010
12.755,-0.013
12.760,-0.015
12.765,-0.016
12.770,-0.017
12.775,-0.021
12.780,-0.023
12.785,-0.021
12.790,-0.020
12.795,-0.021
12.800,-0.022
12.805,-0.026
12.810,-0.037
12.815,-0.050
12.820,-0.062
12.825,-0.069
12.830,-0.072
12.835,-0.073
12.840,-0.077
12.845,-0.078
12.850,-0.081
12.855,-0.094
12.860,-0.112
12.865,-0.127
12.870,-0.121
12.875,-0.095
12.880,-0.071
12.885,-0.061
12.890,-0.065
12.895,-0.062
12.900,-0.046
12.905,-0.021
12.910,0.011
12.915,0.036
12.920,0.047
12.925,0.052
12.930,0.049
12.935,0.050
12.940,0.054
12.945,0.049
12.950,0.045
12.955,0.047
12.960,0.044
12.965,0.042
12.970,0.040
12.975,0.035
12.980,0.035
12.985,0.061
12.990,0.118
12.995,0.124
13.000,0.026
13.005,-0.184
13.010,-0.546
13.015,-0.934
13.020,-1.082
13.025,-0.843
13.030,-0.279
13.035,0.247
13.040,0.445
13.045,0.461
13.050,0.465
13.055,0.478
13.060,0.484
13.065,0.418
13.070,0.299
13.075,0.213
13.080,0.163
13.085,0.130
13.090,0.118
13.095,0.098
13.100,0.073
13.105,0.066
13.110,0.059
13.115,0.045
13.120,0.039
13.125,0.038
13.130,0.034
13.135,0.030
13.140,0.027
13.145,0.020
13.150,0.014
13.155,0.014
13.160,0.014
13.165,0.009
13.170,0.006
13.175,0.002
13.180,0.002
13.185,-0.001
13.190,-0.007
13.195,-0.009
13.200,-0.007
13.205,-0.008
13.210,-0.013
13.215,-0.018
13.220,-0.019
13.225,-0.023
13.230,-0.034
13.235,-0.045
13.240,-0.057
13.245,-0.075
13.250,-0.094
13.255,-0.112
13.260,-0.130
13.265,-0.148
13.270,-0.169
13.275,-0.191
13.280,-0.208
13.285,-0.221
13.290,-0.230
13.295,-0.232
13.300,-0.224
13.305,-0.206
13.310,-0.177
13.315,-0.137
13.320,-0.096
13.325,-0.058
13.330,-0.022
13.335,0.011
13.340,0.039
13.345,0.058
13.350,0.072
13.355,0.087
13.360,0.099
13.365,0.105
13.370,0.106
13.375,0.106
13.380,0.105
13.385,0.105
13.390,0.106
13.395,0.103
13.400,0.098
13.405,0.098
13.410,0.099
13.415,0.100
13.420,0.102
13.425,0.097
13.430,0.094
13.435,0.094
13.440,0.092
13.445,0.089
13.450,0.084
13.455,0.083
13.460,0.083
13.465,0.081
13.470,0.079
13.475,0.080
13.480,0.081
13.485,0.076
13.490,0.070
13.495,0.063
13.500,0.056
13.505,0.049
13.510,0.044
13.515,0.039
13.520,0.034
13.525,0.028
13.530,0.024
13.535,0.022
13.540,0.018
13.545,0.013
13.550,0.007
13.555,0.002
13.560,-0.001
13.565,-0.003
13.570,-0.006
13.575,-0.009
13.580,-0.010
13.585,-0.009
13.590,-0.012
13.595,-0.016
13.600,-0.016
13.605,-0.018
13.610,-0.020
13.615,-0.024
13.620,-0.024
13.625,-0.022
13.630,-0.022
13.635,-0.021
13.640,-0.021
13.645,-0.026
13.650,-0.037
13.655,-0.053
13.660,-0.067
13.665,-0.072
13.670,-0.074
13.675,-0.076
13.680,-0.079
13.685,-0.081
13.690,-0.084
13.695,-0.096
13.700,-0.115
13.705,-0.128
13.710,-0.122
13.715,-0.097
13.720,-0.070
13.725,-0.061
13.730,-0.066
13.735,-0.061
13.740,-0.043
13.745,-0.020
13.750,0.013
13.755,0.037
13.760,0.046
13.765,0.047
13.770,0.047
13.775,0.049
13.780,0.049
13.785,0.044
13.790,0.043
13.795,0.046
13.800,0.043
13.805,0.039
13.810,0.037
13.815,0.032
13.820,0.029
13.825,0.049
13.830,0.106
13.835,0.132
13.840,0.056
13.845,-0.139
13.850,-0.487
13.855,-0.885
13.860,-1.069
13.865,-0.874
13.870,-0.349
13.875,0.185
13.880,0.420
13.885,0.445
13.890,0.449
13.895,0.469
13.900,0.482
13.905,0.429
13.910,0.313
13.915,0.218
13.920,0.166
13.925,0.134
13.930,0.119
13.935,0.101
13.940,0.079
13.945,0.069
13.950,0.062
13.955,0.050
13.960,0.042
13.965,0.039
13.970,0.034
13.975,0.029
13.980,0.026
13.985,0.023
13.990,0.017
13.995,0.014
14.000,0.011
14.005,0.005
14.010,0.001
14.015,0.000
14.020,-0.002
14.025,-0.005
14.030,-0.006
14.035,-0.005
14.040,-0.005
14.045,-0.010
14.050,-0.014
14.055,-0.019
14.060,-0.024
14.065,-0.027
14.070,-0.033
14.075,-0.044
14.080,-0.058
14.085,-0.074
14.090,-0.090
14.095,-0.108
14.100,-0.127
14.105,-0.148
14.110,-0.170
14.115,-0.189
14.120,-0.206
14.125,-0.218
14.130,-0.225
14.135,-0.227
14.140,-0.221
14.145,-0.203
14.150,-0.177
14.155,-0.143
14.160,-0.102
14.165,-0.063
14.170,-0.028
14.175,0.001
14.180,0.027
14.185,0.053
14.190,0.074
14.195,0.088
14.200,0.099
14.205,0.106
14.210,0.108
14.215,0.105
14.220,0.104
14.225,0.103
14.230,0.101
14.235,0.100
14.240,0.102
14.245,0.101
14.250,0.098
14.255,0.096
14.260,0.097
14.265,0.096
14.270,0.092
14.275,0.090
14.280,0.090
14.285,0.090
14.290,0.088
14.295,0.086
14.300,0.086
14.305,0.085
14.310,0.083
14.315,0.080
14.320,0.074
14.325,0.069
14.330,0.065
14.335,0.060
14.340,0.053
14.345,0.044
14.350,0.038
14.355,0.036
14.360,0.032
14.365,0.025
14.370,0.015
14.375,0.010
14.380,0.011
14.385,0.012
14.390,0.009
14.395,0.003
14.400,-0.002
14.405,-0.004
14.410,-0.004
14.415,-0.009
14.420,-0.018
14.425,-0.022
14.430,-0.018
14.435,-0.013
14.440,-0.013
14.445,-0.016
14.450,-0.014
14.455,-0.013
14.460,-0.022
14.465,-0.029
14.470,-0.027
14.475,-0.024
14.480,-0.023
14.485,-0.022
14.490,-0.030
14.495,-0.039
14.500,-0.045
14.505,-0.058
14.510,-0.067
14.515,-0.071
14.520,-0.076
14.525,-0.076
14.530,-0.076
14.535,-0.083
14.540,-0.098
14.545,-0.117
14.550,-0.128
14.555,-0.118
14.560,-0.095
14.565,-0.071
14.570,-0.056
14.575,-0.056
14.580,-0.056
14.585,-0.047
14.590,-0.023
14.595,0.017
14.600,0.045
14.605,0.050
14.610,0.045
14.615,0.038
14.620,0.046
14.625,0.061
14.630,0.061
14.635,0.054
14.640,0.050
14.645,0.044
14.650,0.039
14.655,0.040
14.660,0.044
14.665,0.046
14.670,0.056
14.675,0.106
14.680,0.140
14.685,0.087
14.690,-0.079
14.695,-0.411
14.700,-0.817
14.705,-1.039
14.710,-0.869
14.715,-0.338
14.720,0.200
14.725,0.426
14.730,0.420
14.735,0.412
14.740,0.460
14.745,0.491
14.750,0.446
14.755,0.336
14.760,0.232
14.765,0.166
14.770,0.128
14.775,0.101
14.780,0.079
14.785,0.055
14.790,0.037
14.795,0.035
14.800,0.031
14.805,0.022
14.810,0.023
14.815,0.024
14.820,0.016
14.825,0.003
14.830,-0.009
14.835,-0.009
14.840,-0.001
14.845,0.003
14.850,0.002
14.855,-0.002
14.860,-0.012
14.865,-0.019
14.870,-0.015
14.875,-0.007
14.880,-0.005
14.885,-0.009
14.890,-0.014
14.895,-0.020
14.900,-0.024
14.905,-0.030
14.910,-0.041
14.915,-0.044
14.920,-0.044
14.925,-0.054
14.930,-0.069
14.935,-0.089
14.940,-0.117
14.945,-0.139
14.950,-0.145
14.955,-0.156
14.960,-0.177
14.965,-0.203
14.970,-0.218
14.975,-0.212
14.980,-0.212
14.985,-0.216
14.990,-0.199
14.995,-0.173
15.000,-0.136
15.005,-0.095
15.010,-0.059
15.015,-0.027
15.020,0.000
15.025,0.019
15.030,0.044
15.035,0.072
15.040,0.090
15.045,0.099
15.050,0.103
15.055,0.107
15.060,0.107
15.065,0.103
15.070,0.106
15.075,0.111
15.080,0.113
15.085,0.104
15.090,0.095
15.095,0.103
15.100,0.105
15.105,0.096
15.110,0.096
15.115,0.100
15.120,0.101
15.125,0.095
15.130,0.086
15.135,0.088
15.140,0.090
15.145,0.086
15.150,0.086
15.155,0.088
15.160,0.082
15.165,0.071
15.170,0.055
15.175,0.050
15.180,0.049
15.185,0.044
15.190,0.047
15.195,0.049
15.200,0.038
15.205,0.022
15.210,0.017
15.215,0.019
15.220,0.011
15.225,0.003
15.230,0.002
15.235,0.002
15.240,0.003
15.245,-0.005
15.250,-0.006
15.255,0.001
15.260,-0.004
15.265,-0.006
15.270,-0.008
15.275,-0.016
15.280,-0.018
15.285,-0.018
15.290,-0.020
15.295,-0.018
15.300,-0.013
15.305,-0.015
15.310,-0.021
15.315,-0.029
15.320,-0.028
15.325,-0.019
15.330,-0.016
15.335,-0.017
15.340,-0.028
15.345,-0.047
15.350,-0.056
15.355,-0.058
15.360,-0.064
15.365,-0.075
15.370,-0.080
15.375,-0.070
15.380,-0.062
15.385,-0.081
15.390,-0.109
15.395,-0.122
15.400,-0.116
15.405,-0.089
15.410,-0.066
15.415,-0.065
15.420,-0.063
15.425,-0.051
15.430,-0.033
15.435,-0.006
15.440,0.016
15.445,0.033
15.450,0.040
15.455,0.033
15.460,0.034
15.465,0.049
15.470,0.057
15.475,0.053
15.480,0.052
15.485,0.052
15.490,0.048
15.495,0.037
15.500,0.026
15.505,0.027
15.510,0.031
15.515,0.053
15.520,0.120
15.525,0.165
15.530,0.121
15.535,-0.040
15.540,-0.383
15.545,-0.830
15.550,-1.086
15.555,-0.900
15.560,-0.325
15.565,0.242
15.570,0.469
15.575,0.438
15.580,0.400
15.585,0.446
15.590,0.485
15.595,0.438
15.600,0.334
15.605,0.227
15.610,0.160
15.615,0.127
15.620,0.095
15.625,0.069
15.630,0.048
15.635,0.028
15.640,0.024
15.645,0.025
15.650,0.013
15.655,0.002
15.660,0.006
15.665,0.011
15.670,-0.003
15.675,-0.017
15.680,-0.016
15.685,-0.012
15.690,-0.014
15.695,-0.020
15.700,-0.022
15.705,-0.012
15.710,-0.006
15.715,-0.016
15.720,-0.019
15.725,-0.018
15.730,-0.024
15.735,-0.033
15.740,-0.034
15.745,-0.032
15.750,-0.035
15.755,-0.037
15.760,-0.040
15.765,-0.044
15.770,-0.053
15.775,-0.070
15.780,-0.086
15.785,-0.102
15.790,-0.124
15.795,-0.141
15.800,-0.150
15.805,-0.164
15.810,-0.188
15.815,-0.208
15.820,-0.212
15.825,-0.208
15.830,-0.202
15.835,-0.186
15.840,-0.165
15.845,-0.132
15.850,-0.091
15.855,-0.056
15.860,-0.026
15.865,-0.002
15.870,0.021
15.875,0.045
15.880,0.066
15.885,0.080
15.890,0.087
15.895,0.092
15.900,0.100
15.905,0.107
15.910,0.108
15.915,0.108
15.920,0.107
15.925,0.106
15.930,0.107
15.935,0.108
15.940,0.105
15.945,0.099
15.950,0.095
15.955,0.090
15.960,0.087
15.965,0.093
15.970,0.099
15.975,0.097
15.980,0.085
15.985,0.076
15.990,0.081
15.995,0.083
16.000,0.077
16.005,0.074
16.010,0.073
16.015,0.063
16.020,0.049
16.025,0.039
16.030,0.037
16.035,0.035
16.040,0.024
16.045,0.012
16.050,0.003
16.055,0.003
16.060,0.004
16.065,-0.003
16.070,-0.002
16.075,0.007
16.080,0.010
16.085,0.005
16.090,-0.009
16.095,-0.021
16.100,-0.018
16.105,-0.008
16.110,-0.005
16.115,-0.009
16.120,-0.015
16.125,-0.016
16.130,-0.015
16.135,-0.010
16.140,-0.008
16.145,-0.009
16.150,-0.008
16.155,-0.009
16.160,-0.011
16.165,-0.011
16.170,-0.013
16.175,-0.016
16.180,-0.019
16.185,-0.024
16.190,-0.034
16.195,-0.044
16.200,-0.050
16.205,-0.055
16.210,-0.057
16.215,-0.061
16.220,-0.069
16.225,-0.081
16.230,-0.094
16.235,-0.104
16.240,-0.106
16.245,-0.087
16.250,-0.060
16.255,-0.044
16.260,-0.044
16.265,-0.048
16.270,-0.035
16.275,-0.010
16.280,0.012
16.285,0.034
16.290,0.048
16.295,0.051
16.300,0.052
16.305,0.054
16.310,0.062
16.315,0.062
16.320,0.051
16.325,0.043
16.330,0.047
16.335,0.050
16.340,0.045
16.345,0.040
16.350,0.040
16.355,0.053
16.360,0.110
16.365,0.158
16.370,0.106
16.375,-0.058
16.380,-0.380
16.385,-0.813
16.390,-1.104
16.395,-1.004
16.400,-0.494
16.405,0.120
16.410,0.449
16.415,0.471
16.420,0.434
16.425,0.458
16.430,0.502
16.435,0.478
16.440,0.374
16.445,0.256
16.450,0.173
16.455,0.128
16.460,0.102
16.465,0.090
16.470,0.079
16.475,0.060
16.480,0.043
16.485,0.034
16.490,0.028
16.495,0.022
16.500,0.021
16.505,0.023
16.510,0.020
16.515,0.017
16.520,0.011
16.525,0.000
16.530,-0.005
16.535,-0.003
16.540,-0.001
16.545,-0.006
16.550,-0.014
16.555,-0.018
16.560,-0.015
16.565,-0.013
16.570,-0.016
16.575,-0.019
16.580,-0.020
16.585,-0.021
16.590,-0.024
16.595,-0.028
16.600,-0.035
16.605,-0.045
16.610,-0.058
16.615,-0.077
16.620,-0.093
16.625,-0.105
16.630,-0.122
16.635,-0.143
16.640,-0.167
16.645,-0.189
16.650,-0.203
16.655,-0.212
16.660,-0.216
16.665,-0.217
16.670,-0.211
16.675,-0.199
16.680,-0.180
16.685,-0.151
16.690,-0.111
16.695,-0.071
16.700,-0.034
16.705,-0.002
16.710,0.025
16.715,0.048
16.720,0.066
16.725,0.078
16.730,0.088
16.735,0.096
16.740,0.095
16.745,0.098
16.750,0.104
16.755,0.106
16.760,0.105
16.765,0.102
16.770,0.103
16.775,0.101
16.780,0.095
16.785,0.093
16.790,0.093
16.795,0.095
16.800,0.095
16.805,0.089
16.810,0.088
16.815,0.092
16.820,0.094
16.825,0.091
16.830,0.088
16.835,0.084
16.840,0.079
16.845,0.072
16.850,0.066
16.855,0.062
16.860,0.058
16.865,0.053
16.870,0.050
16.875,0.047
16.880,0.039
16.885,0.031
16.890,0.028
16.895,0.027
16.900,0.020
16.905,0.014
16.910,0.011
16.915,0.007
16.920,0.001
16.925,-0.004
16.930,-0.003
16.935,-0.001
16.940,-0.004
16.945,-0.008
16.950,-0.007
16.955,-0.007
16.960,-0.009
16.965,-0.013
16.970,-0.015
16.975,-0.015
16.980,-0.017
16.985,-0.014
16.990,-0.012
16.995,-0.016
17.000,-0.017
17.005,-0.018
17.010,-0.021
17.015,-0.031
17.020,-0.048
17.025,-0.060
17.030,-0.063
17.035,-0.063
17.040,-0.064
17.045,-0.070
17.050,-0.080
17.055,-0.087
17.060,-0.095
17.065,-0.107
17.070,-0.117
17.075,-0.113
17.080,-0.095
17.085,-0.067
17.090,-0.050
17.095,-0.055
17.100,-0.060
17.105,-0.047
17.110,-0.026
17.115,0.004
17.120,0.029
17.125,0.039
17.130,0.045
17.135,0.047
17.140,0.048
17.145,0.055
17.150,0.054
17.155,0.049
17.160,0.050
17.165,0.049
17.170,0.042
17.175,0.038
17.180,0.036
17.185,0.037
17.190,0.056
17.195,0.112
17.200,0.137
17.205,0.058
17.210,-0.129
17.215,-0.469
17.220,-0.882
17.225,-1.112
17.230,-0.952
17.235,-0.411
17.240,0.173
17.245,0.450
17.250,0.482
17.255,0.477
17.260,0.486
17.265,0.494
17.270,0.445
17.275,0.331
17.280,0.229
17.285,0.169
17.290,0.133
17.295,0.116
17.300,0.099
17.305,0.078
17.310,0.068
17.315,0.060
17.320,0.044
17.325,0.036
17.330,0.034
17.335,0.028
17.340,0.023
17.345,0.026
17.350,0.025
17.355,0.017
17.360,0.015
17.365,0.013
17.370,0.010
17.375,0.006
17.380,0.002
17.385,0.000
17.390,-0.001
17.395,-0.002
17.400,-0.002
17.405,-0.004
17.410,-0.010
17.415,-0.014
17.420,-0.015
17.425,-0.019
17.430,-0.023
17.435,-0.029
17.440,-0.039
17.445,-0.051
17.450,-0.069
17.455,-0.089
17.460,-0.106
17.465,-0.125
17.470,-0.146
17.475,-0.169
17.480,-0.190
17.485,-0.205
17.490,-0.216
17.495,-0.228
17.500,-0.233
17.505,-0.225
17.510,-0.207
17.515,-0.179
17.520,-0.144
17.525,-0.103
17.530,-0.064
17.535,-0.030
17.540,0.001
17.545,0.028
17.550,0.051
17.555,0.071
17.560,0.084
17.565,0.091
17.570,0.095
17.575,0.096
17.580,0.100
17.585,0.104
17.590,0.103
17.595,0.102
17.600,0.102
17.605,0.100
17.610,0.097
17.615,0.093
17.620,0.093
17.625,0.093
17.630,0.091
17.635,0.088
17.640,0.086
17.645,0.088
17.650,0.088
17.655,0.083
17.660,0.083
17.665,0.085
17.670,0.082
17.675,0.079
17.680,0.076
17.685,0.074
17.690,0.074
17.695,0.069
17.700,0.060
17.705,0.055
17.710,0.050
17.715,0.046
17.720,0.042
17.725,0.032
17.730,0.026
17.735,0.024
17.740,0.018
17.745,0.012
17.750,0.009
17.755,0.008
17.760,0.005
17.765,-0.002
17.770,-0.009
17.775,-0.009
17.780,-0.006
17.785,-0.007
17.790,-0.009
17.795,-0.013
17.800,-0.015
17.805,-0.016
17.810,-0.016
17.815,-0.015
17.820,-0.018
17.825,-0.021
17.830,-0.021
17.835,-0.020
17.840,-0.021
17.845,-0.024
17.850,-0.030
17.855,-0.038
17.860,-0.051
17.865,-0.064
17.870,-0.071
17.875,-0.072
17.880,-0.075
17.885,-0.079
17.890,-0.082
17.895,-0.088
17.900,-0.099
17.905,-0.114
17.910,-0.125
17.915,-0.114
17.920,-0.085
17.925,-0.058
17.930,-0.056
17.935,-0.062
17.940,-0.054
17.945,-0.036
17.950,-0.012
17.955,0.018
17.960,0.039
17.965,0.050
17.970,0.052
17.975,0.049
17.980,0.051
17.985,0.051
17.990,0.044
17.995,0.042
18.000,0.044
18.005,0.044
18.010,0.042
18.015,0.041
18.020,0.036
18.025,0.033
18.030,0.068
18.035,0.125
18.040,0.116
18.045,0.003
18.050,-0.238
18.055,-0.625
18.060,-0.991
18.065,-1.070
18.070,-0.750
18.075,-0.165
18.080,0.303
18.085,0.446
18.090,0.459
18.095,0.470
18.100,0.481
18.105,0.475
18.110,0.392
18.115,0.280
18.120,0.205
18.125,0.157
18.130,0.128
18.135,0.118
18.140,0.097
18.145,0.076
18.150,0.071
18.155,0.061
18.160,0.047
18.165,0.042
18.170,0.038
18.175,0.031
18.180,0.027
18.185,0.024
18.190,0.017
18.195,0.014
18.200,0.016
18.205,0.013
18.210,0.008
18.215,0.004
18.220,0.001
18.225,-0.001
18.230,-0.001
18.235,-0.001
18.240,-0.004
18.245,-0.006
18.250,-0.007
18.255,-0.010
18.260,-0.017
18.265,-0.023
18.270,-0.029
18.275,-0.034
18.280,-0.045
18.285,-0.061
18.290,-0.078
18.295,-0.098
18.300,-0.117
18.305,-0.135
18.310,-0.156
18.315,-0.177
18.320,-0.196
18.325,-0.214
18.330,-0.228
18.335,-0.237
18.340,-0.239
18.345,-0.228
18.350,-0.204
18.355,-0.170
18.360,-0.129
18.365,-0.088
18.370,-0.051
18.375,-0.017
18.380,0.012
18.385,0.035
18.390,0.054
18.395,0.074
18.400,0.090
18.405,0.099
18.410,0.104
18.415,0.105
18.420,0.107
18.425,0.105
18.430,0.100
18.435,0.099
18.440,0.102
18.445,0.103
18.450,0.099
18.455,0.094
18.460,0.091
18.465,0.090
18.470,0.092
18.475,0.090
18.480,0.087
18.485,0.083
18.490,0.079
18.495,0.084
18.500,0.090
18.505,0.088
18.510,0.082
18.515,0.076
18.520,0.071
18.525,0.070
18.530,0.069
18.535,0.065
18.540,0.059
18.545,0.053
18.550,0.048
18.555,0.044
18.560,0.038
18.565,0.031
18.570,0.027
18.575,0.022
18.580,0.014
18.585,0.008
18.590,0.007
18.595,0.006
18.600,0.006
18.605,0.003
18.610,-0.001
18.615,-0.006
18.620,-0.013
18.625,-0.022
18.630,-0.022
18.635,-0.014
18.640,-0.011
18.645,-0.015
18.650,-0.019
18.655,-0.016
18.660,-0.013
18.665,-0.015
18.670,-0.021
18.675,-0.028
18.680,-0.025
18.685,-0.024
18.690,-0.032
18.695,-0.046
18.700,-0.064
18.705,-0.073
18.710,-0.075
18.715,-0.071
18.720,-0.070
18.725,-0.081
18.730,-0.091
18.735,-0.100
18.740,-0.111
18.745,-0.121
18.750,-0.123
18.755,-0.097
18.760,-0.064
18.765,-0.051
18.770,-0.063
18.775,-0.076
18.780,-0.066
18.785,-0.038
18.790,-0.001
18.795,0.035
18.800,0.049
18.805,0.047
18.810,0.043
18.815,0.047
18.820,0.057
18.825,0.054
18.830,0.046
18.835,0.048
18.840,0.049
18.845,0.038
18.850,0.032
18.855,0.034
18.860,0.038
18.865,0.051
18.870,0.091
18.875,0.131
18.880,0.096
18.885,-0.045
18.890,-0.324
18.895,-0.726
18.900,-1.036
18.905,-0.989
18.910,-0.548
18.915,0.026
18.920,0.372
18.925,0.430
18.930,0.433
18.935,0.473
18.940,0.509
18.945,0.478
18.950,0.376
18.955,0.265
18.960,0.182
18.965,0.141
18.970,0.123
18.975,0.104
18.980,0.084
18.985,0.067
18.990,0.055
18.995,0.046
19.000,0.030
19.005,0.021
19.010,0.027
19.015,0.026
19.020,0.023
19.025,0.023
19.030,0.017
19.035,0.010
19.040,0.008
19.045,0.005
19.050,0.006
19.055,0.009
19.060,0.006
19.065,0.001
19.070,-0.002
19.075,-0.005
19.080,-0.010
19.085,-0.018
19.090,-0.022
19.095,-0.019
19.100,-0.013
19.105,-0.013
19.110,-0.022
19.115,-0.039
19.120,-0.057
19.125,-0.067
19.130,-0.087
19.135,-0.115
19.140,-0.132
19.145,-0.140
19.150,-0.154
19.155,-0.175
19.160,-0.196
19.165,-0.210
19.170,-0.215
19.175,-0.218
19.180,-0.216
19.185,-0.198
19.190,-0.178
19.195,-0.153
19.200,-0.114
19.205,-0.081
19.210,-0.045
19.215,-0.006
19.220,0.020
19.225,0.051
19.230,0.082
19.235,0.096
19.240,0.095
19.245,0.091
19.250,0.094
19.255,0.105
19.260,0.109
19.265,0.103
19.270,0.102
19.275,0.102
19.280,0.102
19.285,0.098
19.290,0.091
19.295,0.094
19.300,0.098
19.305,0.095
19.310,0.090
19.315,0.095
19.320,0.097
19.325,0.090
19.330,0.088
19.335,0.090
19.340,0.087
19.345,0.078
19.350,0.068
19.355,0.067
19.360,0.074
19.365,0.074
19.370,0.070
19.375,0.064
19.380,0.053
19.385,0.048
19.390,0.043
19.395,0.029
19.400,0.025
19.405,0.022
19.410,0.018
19.415,0.020
19.420,0.017
19.425,0.006
19.430,-0.001
19.435,0.002
19.440,0.003
19.445,-0.003
19.450,-0.012
19.455,-0.018
19.460,-0.013
19.465,-0.009
19.470,-0.016
19.475,-0.020
19.480,-0.020
19.485,-0.019
19.490,-0.020
19.495,-0.029
19.500,-0.027
19.505,-0.018
19.510,-0.015
19.515,-0.016
19.520,-0.023
19.525,-0.030
19.530,-0.041
19.535,-0.054
19.540,-0.057
19.545,-0.058
19.550,-0.064
19.555,-0.066
19.560,-0.071
19.565,-0.080
19.570,-0.079
19.575,-0.092
19.580,-0.114
19.585,-0.123
19.590,-0.122
19.595,-0.094
19.600,-0.065
19.605,-0.060
19.610,-0.060
19.615,-0.060
19.620,-0.057
19.625,-0.036
19.630,0.002
19.635,0.039
19.640,0.053
19.645,0.046
19.650,0.040
19.655,0.039
19.660,0.046
19.665,0.052
19.670,0.047
19.675,0.042
19.680,0.044
19.685,0.052
19.690,0.053
19.695,0.036
19.700,0.021
19.705,0.039
19.710,0.102
19.715,0.158
19.720,0.130
19.725,-0.007
19.730,-0.305
19.735,-0.736
19.740,-1.059
19.745,-0.976
19.750,-0.466
19.755,0.141
19.760,0.463
19.765,0.454
19.770,0.396
19.775,0.430
19.780,0.482
19.785,0.463
19.790,0.373
19.795,0.263
19.800,0.171
19.805,0.113
19.810,0.083
19.815,0.074
19.820,0.056
19.825,0.026
19.830,0.017
19.835,0.025
19.840,0.033
19.845,0.025
19.850,0.005
19.855,-0.008
19.860,-0.014
19.865,-0.012
19.870,-0.007
19.875,-0.014
19.880,-0.023
19.885,-0.019
19.890,-0.009
19.895,-0.001
19.900,-0.001
19.905,-0.012
19.910,-0.025
19.915,-0.029
19.920,-0.028
19.925,-0.031
19.930,-0.041
19.935,-0.037
19.940,-0.023
19.945,-0.014
19.950,-0.019
19.955,-0.044
19.960,-0.068
19.965,-0.079
19.970,-0.089
19.975,-0.099
19.980,-0.112
19.985,-0.130
19.990,-0.150
19.995,-0.164
20.000,-0.176
20.005,-0.187
20.010,-0.195
20.015,-0.206
20.020,-0.206
20.025,-0.194
20.030,-0.176
20.035,-0.140
20.040,-0.105
20.045,-0.068
20.050,-0.027
20.055,-0.003
20.060,0.023
20.065,0.046
20.070,0.057
20.075,0.074
20.080,0.091
20.085,0.101
20.090,0.102
20.095,0.099
20.100,0.101
20.105,0.105
20.110,0.107
20.115,0.101
20.120,0.097
20.125,0.101
20.130,0.107
20.135,0.106
20.140,0.099
20.145,0.093
20.150,0.093
20.155,0.099
20.160,0.100
20.165,0.093
20.170,0.088
20.175,0.085
20.180,0.079
20.185,0.073
20.190,0.066
20.195,0.061
20.200,0.063
20.205,0.059
20.210,0.049
20.215,0.045
20.220,0.040
20.225,0.032
20.230,0.022
20.235,0.018
20.240,0.018
20.245,0.010
20.250,0.001
20.255,0.000
20.260,0.001
20.265,0.002
20.270,-0.002
20.275,-0.006
20.280,-0.005
20.285,-0.010
20.290,-0.016
20.295,-0.012
20.300,-0.006
20.305,-0.001
20.310,-0.002
20.315,-0.008
20.320,-0.013
20.325,-0.016
20.330,-0.016
20.335,-0.013
20.340,-0.013
20.345,-0.016
20.350,-0.013
20.355,-0.011
20.360,-0.014
20.365,-0.019
20.370,-0.027
20.375,-0.035
20.380,-0.042
20.385,-0.054
20.390,-0.061
20.395,-0.061
20.400,-0.067
20.405,-0.076
20.410,-0.078
20.415,-0.080
20.420,-0.088
20.425,-0.104
20.430,-0.111
20.435,-0.097
20.440,-0.074
20.445,-0.053
20.450,-0.048
20.455,-0.048
20.460,-0.038
20.465,-0.023
20.470,0.005
20.475,0.036
20.480,0.050
20.485,0.056
20.490,0.055
20.495,0.054
20.500,0.059
20.505,0.060
20.510,0.057
20.515,0.055
20.520,0.054
20.525,0.050
20.530,0.045
20.535,0.041
20.540,0.035
20.545,0.045
20.550,0.104
20.555,0.161
20.560,0.124
20.565,-0.027
20.570,-0.322
20.575,-0.748
20.580,-1.092
20.585,-1.069
20.590,-0.605
20.595,0.033
20.600,0.430
20.605,0.486
20.610,0.443
20.615,0.453
20.620,0.500
20.625,0.491
20.630,0.397
20.635,0.279
20.640,0.195
20.645,0.151
20.650,0.120
20.655,0.095
20.660,0.079
20.665,0.068
20.670,0.060
20.675,0.050
20.680,0.036
20.685,0.028
20.690,0.026
20.695,0.021
20.700,0.016
20.705,0.017
20.710,0.018
20.715,0.016
20.720,0.011
20.725,0.004
20.730,0.001
20.735,0.001
20.740,0.001
20.745,0.001
20.750,-0.002
20.755,-0.007
20.760,-0.008
20.765,-0.010
20.770,-0.014
20.775,-0.019
20.780,-0.024
20.785,-0.026
20.790,-0.030
20.795,-0.041
20.800,-0.054
20.805,-0.069
20.810,-0.082
20.815,-0.095
20.820,-0.109
20.825,-0.124
20.830,-0.144
20.835,-0.166
20.840,-0.186
20.845,-0.202
20.850,-0.212
20.855,-0.218
20.860,-0.214
20.865,-0.201
20.870,-0.179
20.875,-0.151
20.880,-0.116
20.885,-0.078
20.890,-0.046
20.895,-0.018
20.900,0.013
20.905,0.042
20.910,0.061
20.915,0.073
20.920,0.086
20.925,0.097
20.930,0.103
20.935,0.102
20.940,0.097
20.945,0.094
20.950,0.092
20.955,0.094
20.960,0.098
20.965,0.096
20.970,0.091
20.975,0.088
20.980,0.087
20.985,0.090
20.990,0.093
20.995,0.093
21.000,0.092
21.005,0.089
21.010,0.085
21.015,0.084
21.020,0.081
21.025,0.077
21.030,0.073
21.035,0.066
21.040,0.064
21.045,0.068
21.050,0.069
21.055,0.062
21.060,0.050
21.065,0.043
21.070,0.040
21.075,0.034
21.080,0.023
21.085,0.015
21.090,0.011
21.095,0.009
21.100,0.008
21.105,0.006
21.110,0.004
21.115,0.002
21.120,-0.002
21.125,-0.007
21.130,-0.011
21.135,-0.012
21.140,-0.011
21.145,-0.012
21.150,-0.015
21.155,-0.020
21.160,-0.022
21.165,-0.020
21.170,-0.019
21.175,-0.016
21.180,-0.016
21.185,-0.020
21.190,-0.021
21.195,-0.024
21.200,-0.037
21.205,-0.054
21.210,-0.067
21.215,-0.073
21.220,-0.073
21.225,-0.074
21.230,-0.079
21.235,-0.082
21.240,-0.085
21.245,-0.092
21.250,-0.104
21.255,-0.116
21.260,-0.114
21.265,-0.090
21.270,-0.062
21.275,-0.051
21.280,-0.058
21.285,-0.057
21.290,-0.042
21.295,-0.021
21.300,0.010
21.305,0.035
21.310,0.045
21.315,0.047
21.320,0.047
21.325,0.050
21.330,0.051
21.335,0.048
21.340,0.046
21.345,0.046
21.350,0.042
21.355,0.036
21.360,0.037
21.365,0.038
21.370,0.038
21.375,0.061
21.380,0.118
21.385,0.128
21.390,0.029
21.395,-0.188
21.400,-0.558
21.405,-0.953
21.410,-1.108
21.415,-0.869
21.420,-0.294
21.425,0.251
21.430,0.462
21.435,0.477
21.440,0.473
21.445,0.481
21.450,0.485
21.455,0.418
21.460,0.297
21.465,0.210
21.470,0.159
21.475,0.124
21.480,0.113
21.485,0.095
21.490,0.071
21.495,0.065
21.500,0.063
21.505,0.050
21.510,0.041
21.515,0.039
21.520,0.034
21.525,0.030
21.530,0.027
21.535,0.020
21.540,0.016
21.545,0.014
21.550,0.012
21.555,0.011
21.560,0.008
21.565,0.004
21.570,0.002
21.575,0.003
21.580,0.002
21.585,-0.006
21.590,-0.013
21.595,-0.014
21.600,-0.016
21.605,-0.019
21.610,-0.020
21.615,-0.024
21.620,-0.031
21.625,-0.040
21.630,-0.054
21.635,-0.073
21.640,-0.093
21.645,-0.111
21.650,-0.127
21.655,-0.145
21.660,-0.168
21.665,-0.189
21.670,-0.207
21.675,-0.223
21.680,-0.231
21.685,-0.231
21.690,-0.223
21.695,-0.204
21.700,-0.172
21.705,-0.136
21.710,-0.096
21.715,-0.058
21.720,-0.025
21.725,0.005
21.730,0.030
21.735,0.054
21.740,0.074
21.745,0.088
21.750,0.095
21.755,0.099
21.760,0.105
21.765,0.106
21.770,0.106
21.775,0.105
21.780,0.103
21.785,0.102
21.790,0.101
21.795,0.096
21.800,0.092
21.805,0.093
21.810,0.092
21.815,0.090
21.820,0.089
21.825,0.089
21.830,0.090
21.835,0.088
21.840,0.083
21.845,0.083
21.850,0.082
21.855,0.081
21.860,0.080
21.865,0.080
21.870,0.075
21.875,0.067
21.880,0.062
21.885,0.060
21.890,0.056
21.895,0.050
21.900,0.046
21.905,0.039
21.910,0.033
21.915,0.030
21.920,0.025
21.925,0.019
21.930,0.013
21.935,0.007
21.940,0.003
21.945,0.001
21.950,0.001
21.955,0.001
21.960,-0.006
21.965,-0.011
21.970,-0.011
21.975,-0.012
21.980,-0.013
21.985,-0.016
21.990,-0.015
21.995,-0.014
22.000,-0.017
22.005,-0.023
22.010,-0.023
22.015,-0.021
22.020,-0.021
22.025,-0.025
22.030,-0.035
22.035,-0.049
22.040,-0.060
22.045,-0.064
22.050,-0.066
22.055,-0.070
22.060,-0.078
22.065,-0.082
22.070,-0.084
22.075,-0.094
22.080,-0.110
22.085,-0.125
22.090,-0.127
22.095,-0.106
22.100,-0.074
22.105,-0.057
22.110,-0.062
22.115,-0.064
22.120,-0.050
22.125,-0.026
22.130,0.004
22.135,0.027
22.140,0.040
22.145,0.044
22.150,0.042
22.155,0.042
22.160,0.047
22.165,0.048
22.170,0.047
22.175,0.048
22.180,0.047
22.185,0.044
22.190,0.041
22.195,0.035
22.200,0.032
22.205,0.049
22.210,0.107
22.215,0.140
22.220,0.070
22.225,-0.113
22.230,-0.445
22.235,-0.850
22.240,-1.086
22.245,-0.954
22.250,-0.452
22.255,0.113
22.260,0.399
22.265,0.445
22.270,0.453
22.275,0.471
22.280,0.484
22.285,0.442
22.290,0.329
22.295,0.228
22.300,0.167
22.305,0.133
22.310,0.124
22.315,0.109
22.320,0.086
22.325,0.078
22.330,0.071
22.335,0.057
22.340,0.047
22.345,0.042
22.350,0.035
22.355,0.029
22.360,0.032
22.365,0.032
22.370,0.022
22.375,0.014
22.380,0.014
22.385,0.018
22.390,0.013
22.395,0.002
22.400,-0.004
22.405,-0.005
22.410,-0.004
22.415,-0.001
22.420,-0.002
22.425,-0.005
22.430,-0.006
22.435,-0.011
22.440,-0.022
22.445,-0.029
22.450,-0.036
22.455,-0.045
22.460,-0.053
22.465,-0.068
22.470,-0.083
22.475,-0.097
22.480,-0.122
22.485,-0.146
22.490,-0.169
22.495,-0.192
22.500,-0.210
22.505,-0.224
22.510,-0.229
22.515,-0.228
22.520,-0.223
22.525,-0.208
22.530,-0.186
22.535,-0.154
22.540,-0.110
22.545,-0.063
22.550,-0.025
22.555,0.005
22.560,0.031
22.565,0.052
22.570,0.065
22.575,0.078
22.580,0.094
22.585,0.104
22.590,0.106
22.595,0.104
22.600,0.102
22.605,0.103
22.610,0.105
22.615,0.103
22.620,0.109
22.625,0.108
22.630,0.093
22.635,0.086
22.640,0.090
22.645,0.097
22.650,0.100
22.655,0.096
22.660,0.095
22.665,0.094
22.670,0.087
22.675,0.084
22.680,0.083
22.685,0.083
22.690,0.087
22.695,0.092
22.700,0.090
22.705,0.077
22.710,0.062
22.715,0.054
22.720,0.051
22.725,0.051
22.730,0.052
22.735,0.054
22.740,0.044
22.745,0.031
22.750,0.030
22.755,0.026
22.760,0.014
22.765,0.002
22.770,-0.007
22.775,-0.006
22.780,-0.002
22.785,-0.003
22.790,-0.002
22.795,-0.003
22.800,-0.002
22.805,-0.003
22.810,-0.012
22.815,-0.023
22.820,-0.026
22.825,-0.019
22.830,-0.013
22.835,-0.015
22.840,-0.018
22.845,-0.020
22.850,-0.021
22.855,-0.024
22.860,-0.019
22.865,-0.010
22.870,-0.020
22.875,-0.042
22.880,-0.056
22.885,-0.057
22.890,-0.058
22.895,-0.066
22.900,-0.074
22.905,-0.072
22.910,-0.069
22.915,-0.080
22.920,-0.099
22.925,-0.113
22.930,-0.119
22.935,-0.112
22.940,-0.093
22.945,-0.072
22.950,-0.058
22.955,-0.058
22.960,-0.055
22.965,-0.036
22.970,-0.006
22.975,0.025
22.980,0.042
22.985,0.046
22.990,0.046
22.995,0.049
23.000,0.059
23.005,0.061
23.010,0.046
23.015,0.033
23.020,0.035
23.025,0.037
23.030,0.035
23.035,0.037
23.040,0.036
23.045,0.040
23.050,0.079
23.055,0.135
23.060,0.138
23.065,0.040
23.070,-0.192
23.075,-0.583
23.080,-0.964
23.085,-1.027
23.090,-0.669
23.095,-0.084
23.100,0.350
23.105,0.443
23.110,0.403
23.115,0.413
23.120,0.470
23.125,0.482
23.130,0.413
23.135,0.297
23.140,0.188
23.145,0.138
23.150,0.109
23.155,0.083
23.160,0.070
23.165,0.050
23.170,0.037
23.175,0.036
23.180,0.020
23.185,0.001
23.190,0.001
23.195,0.008
23.200,0.004
23.205,-0.004
23.210,-0.005
23.215,-0.005
23.220,-0.006
23.225,-0.008
23.230,-0.008
23.235,-0.008
23.240,-0.010
23.245,-0.014
23.250,-0.019
23.255,-0.021
23.260,-0.016
23.265,-0.018
23.270,-0.019
23.275,-0.015
23.280,-0.021
23.285,-0.029
23.290,-0.037
23.295,-0.055
23.300,-0.066
23.305,-0.064
23.310,-0.071
23.315,-0.083
23.320,-0.104
23.325,-0.137
23.330,-0.154
23.335,-0.162
23.340,-0.181
23.345,-0.198
23.350,-0.208
23.355,-0.209
23.360,-0.205
23.365,-0.202
23.370,-0.188
23.375,-0.157
23.380,-0.114
23.385,-0.079
23.390,-0.054
23.395,-0.018
23.400,0.017
23.405,0.039
23.410,0.048
23.415,0.058
23.420,0.083
23.425,0.105
23.430,0.106
23.435,0.095
23.440,0.093
23.445,0.101
23.450,0.107
23.455,0.103
23.460,0.097
23.465,0.098
23.470,0.097
23.475,0.093
23.480,0.097
23.485,0.106
23.490,0.102
23.495,0.093
23.500,0.084
23.505,0.082
23.510,0.088
23.515,0.083
23.520,0.083
23.525,0.088
23.530,0.089
23.535,0.083
23.540,0.067
23.545,0.051
23.550,0.042
23.555,0.044
23.560,0.052
23.565,0.044
23.570,0.031
23.575,0.025
23.580,0.023
23.585,0.023
23.590,0.016
23.595,0.006
23.600,0.004
23.605,0.002
23.610,-0.006
23.615,-0.010
23.620,-0.002
23.625,0.003
23.630,-0.001
23.635,-0.003
23.640,-0.006
23.645,-0.011
23.650,-0.014
23.655,-0.011
23.660,-0.002
23.665,-0.008
23.670,-0.017
23.675,-0.013
23.680,-0.004
23.685,-0.001
23.690,-0.011
23.695,-0.023
23.700,-0.021
23.705,-0.020
23.710,-0.028
23.715,-0.030
23.720,-0.041
23.725,-0.057
23.730,-0.063
23.735,-0.069
23.740,-0.061
23.745,-0.058
23.750,-0.073
23.755,-0.088
23.760,-0.100
23.765,-0.111
23.770,-0.117
23.775,-0.108
23.780,-0.081
23.785,-0.056
23.790,-0.052
23.795,-0.060
23.800,-0.052
23.805,-0.028
23.810,0.001
23.815,0.034
23.820,0.048
23.825,0.044
23.830,0.042
23.835,0.038
23.840,0.042
23.845,0.053
23.850,0.054
23.855,0.050
23.860,0.042
23.865,0.038
23.870,0.038
23.875,0.032
23.880,0.032
23.885,0.047
23.890,0.090
23.895,0.154
23.900,0.154
23.905,0.046
23.910,-0.201
23.915,-0.623
23.920,-1.019
23.925,-1.063
23.930,-0.667
23.935,-0.036
23.940,0.418
23.945,0.496
23.950,0.423
23.955,0.410
23.960,0.470
23.965,0.485
23.970,0.402
23.975,0.283
23.980,0.189
23.985,0.143
23.990,0.105
23.995,0.072
24.000,0.062
24.005,0.053
24.010,0.039
24.015,0.032
24.020,0.023
24.025,0.015
24.030,0.009
24.035,-0.001
24.040,-0.003
24.045,0.003
24.050,0.001
24.055,-0.008
24.060,-0.013
24.065,-0.013
24.070,-0.015
24.075,-0.017
24.080,-0.014
24.085,-0.012
24.090,-0.014
24.095,-0.019
24.100,-0.022
24.105,-0.022
24.110,-0.027
24.115,-0.027
24.120,-0.024
24.125,-0.030
24.130,-0.034
24.135,-0.043
24.140,-0.057
24.145,-0.064
24.150,-0.074
24.155,-0.089
24.160,-0.107
24.165,-0.124
24.170,-0.136
24.175,-0.151
24.180,-0.170
24.185,-0.183
24.190,-0.195
24.195,-0.208
24.200,-0.212
24.205,-0.201
24.210,-0.175
24.215,-0.146
24.220,-0.117
24.225,-0.083
24.230,-0.045
24.235,-0.013
24.240,0.011
24.245,0.033
24.250,0.056
24.255,0.073
24.260,0.085
24.265,0.094
24.270,0.099
24.275,0.102
24.280,0.098
24.285,0.095
24.290,0.098
24.295,0.102
24.300,0.101
24.305,0.098
24.310,0.097
24.315,0.101
24.320,0.102
24.325,0.100
24.330,0.098
24.335,0.095
24.340,0.090
24.345,0.084
24.350,0.081
24.355,0.082
24.360,0.084
24.365,0.081
24.370,0.073
24.375,0.063
24.380,0.052
24.385,0.044
24.390,0.037
24.395,0.033
24.400,0.034
24.405,0.033
24.410,0.028
24.415,0.022
24.420,0.016
24.425,0.011
24.430,0.007
24.435,0.005
24.440,0.000
24.445,-0.003
24.450,-0.005
24.455,-0.010
24.460,-0.014
24.465,-0.013
24.470,-0.010
24.475,-0.011
24.480,-0.016
24.485,-0.014
24.490,-0.010
24.495,-0.012
24.500,-0.012
24.505,-0.012
24.510,-0.010
24.515,-0.009
24.520,-0.014
24.525,-0.017
24.530,-0.013
24.535,-0.010
24.540,-0.010
24.545,-0.015
24.550,-0.028
24.555,-0.041
24.560,-0.052
24.565,-0.061
24.570,-0.067
24.575,-0.068
24.580,-0.067
24.585,-0.070
24.590,-0.075
24.595,-0.083
24.600,-0.097
24.605,-0.111
24.610,-0.113
24.615,-0.095
24.620,-0.063
24.625,-0.044
24.630,-0.051
24.635,-0.055
24.640,-0.041
24.645,-0.024
24.650,0.002
24.655,0.036
24.660,0.055
24.665,0.061
24.670,0.057
24.675,0.052
24.680,0.060
24.685,0.061
24.690,0.051
24.695,0.048
24.700,0.048
24.705,0.042
24.710,0.041
24.715,0.045
24.720,0.044
24.725,0.058
24.730,0.111
24.735,0.146
24.740,0.083
24.745,-0.089
24.750,-0.415
24.755,-0.837
24.760,-1.104
24.765,-0.986
24.770,-0.471
24.775,0.134
24.780,0.451
24.785,0.483
24.790,0.466
24.795,0.483
24.800,0.503
24.805,0.472
24.810,0.369
24.815,0.256
24.820,0.181
24.825,0.138
24.830,0.115
24.835,0.102
24.840,0.086
24.845,0.070
24.850,0.062
24.855,0.049
24.860,0.036
24.865,0.031
24.870,0.026
24.875,0.023
24.880,0.025
24.885,0.022
24.890,0.016
24.895,0.013
24.900,0.011
24.905,0.007
24.910,0.004
24.915,0.004
24.920,0.002
24.925,-0.002
24.930,-0.001
24.935,-0.003
24.940,-0.010
24.945,-0.014
24.950,-0.013
24.955,-0.013
24.960,-0.018
24.965,-0.025
24.970,-0.032
24.975,-0.038
24.980,-0.045
24.985,-0.060
24.990,-0.081
24.995,-0.100
25.000,-0.120
25.005,-0.140
25.010,-0.157
25.015,-0.175
25.020,-0.193
25.025,-0.209
25.030,-0.221
25.035,-0.222
25.040,-0.216
25.045,-0.204
25.050,-0.182
25.055,-0.151
25.060,-0.112
25.065,-0.071
25.070,-0.039
25.075,-0.010
25.080,0.020
25.085,0.045
25.090,0.065
25.095,0.075
25.100,0.082
25.105,0.089
25.110,0.095
25.115,0.099
25.120,0.099
25.125,0.099
25.130,0.102
25.135,0.102
25.140,0.098
25.145,0.091
25.150,0.086
25.155,0.089
25.160,0.093
25.165,0.092
25.170,0.092
25.175,0.090
25.180,0.090
25.185,0.092
25.190,0.090
25.195,0.085
25.200,0.085
25.205,0.083
25.210,0.083
25.215,0.085
25.220,0.084
25.225,0.076
25.230,0.065
25.235,0.056
25.240,0.051
25.245,0.047
25.250,0.040
25.255,0.037
25.260,0.033
25.265,0.028
25.270,0.021
25.275,0.014
25.280,0.010
25.285,0.005
25.290,0.003
25.295,0.004
25.300,-0.002
25.305,-0.007
25.310,-0.008
25.315,-0.011
25.320,-0.012
25.325,-0.014
25.330,-0.014
25.335,-0.015
25.340,-0.020
25.345,-0.022
25.350,-0.017
25.355,-0.013
25.360,-0.015
25.365,-0.021
25.370,-0.025
25.375,-0.029
25.380,-0.037
25.385,-0.042
25.390,-0.050
25.395,-0.058
25.400,-0.061
25.405,-0.067
25.410,-0.076
25.415,-0.085
25.420,-0.090
25.425,-0.090
25.430,-0.094
25.435,-0.107
25.440,-0.119
25.445,-0.113
25.450,-0.089
25.455,-0.064
25.460,-0.055
25.465,-0.061
25.470,-0.059
25.475,-0.044
25.480,-0.022
25.485,0.010
25.490,0.038
25.495,0.051
25.500,0.052
25.505,0.047
25.510,0.049
25.515,0.049
25.520,0.036
25.525,0.034
25.530,0.041
25.535,0.036
25.540,0.031
25.545,0.035
25.550,0.046
25.555,0.059
25.560,0.086
25.565,0.135
25.570,0.132
25.575,0.020
25.580,-0.215
25.585,-0.598
25.590,-0.982
25.595,-1.091
25.600,-0.797
25.605,-0.206
25.610,0.307
25.615,0.479
25.620,0.478
25.625,0.465
25.630,0.466
25.635,0.473
25.640,0.415
25.645,0.305
25.650,0.220
25.655,0.161
25.660,0.120
25.665,0.098
25.670,0.064
25.675,0.030
25.680,0.007
25.685,-0.010
25.690,-0.004
25.695,0.021
25.700,0.017
25.705,-0.002
25.710,0.008
25.715,0.045
25.720,0.061
25.725,0.001
25.730,-0.090
25.735,-0.126
25.740,-0.088
25.745,-0.010
25.750,0.042
25.755,0.054
25.760,0.046
25.765,0.010
25.770,-0.019
25.775,-0.019
25.780,-0.005
25.785,0.006
25.790,-0.017
25.795,-0.046
25.800,-0.032
25.805,0.000
25.810,0.004
25.815,-0.016
25.820,-0.027
25.825,-0.031
25.830,-0.054
25.835,-0.110
25.840,-0.165
25.845,-0.200
25.850,-0.242
25.855,-0.281
25.860,-0.296
25.865,-0.271
25.870,-0.208
25.875,-0.163
25.880,-0.174
25.885,-0.176
25.890,-0.138
25.895,-0.108
25.900,-0.083
25.905,-0.052
25.910,-0.007
25.915,0.040
25.920,0.026
25.925,0.009
25.930,0.080
25.935,0.154
25.940,0.159
25.945,0.143
25.950,0.120
25.955,0.099
25.960,0.120
25.965,0.139
25.970,0.104
25.975,0.060
25.980,0.059
25.985,0.094
25.990,0.104
25.995,0.055
26.000,-0.011
26.005,-0.020
26.010,0.043
26.015,0.094
26.020,0.107
26.025,0.120
26.030,0.120
26.035,0.105
26.040,0.094
26.045,0.058
26.050,0.006
26.055,0.007
26.060,0.063
26.065,0.132
26.070,0.179
26.075,0.144
26.080,0.064
26.085,0.022
26.090,0.016
26.095,0.005
26.100,-0.017
26.105,-0.001
26.110,0.048
26.115,0.091
26.120,0.069
26.125,-0.054
26.130,-0.114
26.135,-0.024
26.140,0.069
26.145,0.095
26.150,0.059
26.155,0.021
26.160,0.017
26.165,0.004
26.170,-0.004
26.175,0.013
26.180,0.028
26.185,-0.004
26.190,-0.071
26.195,-0.119
26.200,-0.058
26.205,0.065
26.210,0.063
26.215,-0.012
26.220,-0.059
26.225,-0.119
26.230,-0.122
26.235,-0.051
26.240,-0.016
26.245,-0.038
26.250,-0.075
26.255,-0.041
26.260,0.049
26.265,0.005
26.270,-0.168
26.275,-0.232
26.280,-0.151
26.285,-0.072
26.290,-0.022
26.295,0.023
26.300,0.007
26.305,-0.066
26.310,-0.054
26.315,0.066
26.320,0.142
26.325,0.140
26.330,0.108
26.335,0.070
26.340,0.053
26.345,0.036
26.350,0.053
26.355,0.099
26.360,0.071
26.365,0.054
26.370,0.082
26.375,0.059
26.380,-0.005
26.385,-0.035
26.390,0.043
26.395,0.175
26.400,0.210
26.405,0.069
26.410,-0.264
26.415,-0.696
26.420,-1.033
26.425,-1.029
26.430,-0.606
26.435,0.002
26.440,0.390
26.445,0.426
26.450,0.388
26.455,0.429
26.460,0.491
26.465,0.506
26.470,0.442
26.475,0.340
26.480,0.241
26.485,0.138
26.490,0.100
26.495,0.149
26.500,0.163
26.505,0.127
26.510,0.077
26.515,0.021
26.520,0.027
26.525,0.080
26.530,0.044
26.535,-0.034
26.540,-0.001
26.545,0.093
26.550,0.114
26.555,0.064
26.560,0.030
26.565,-0.012
26.570,-0.045
26.575,-0.005
26.580,0.027
26.585,0.011
26.590,-0.032
26.595,-0.013
26.600,0.110
26.605,0.136
26.610,0.044
26.615,-0.010
26.620,-0.042
26.625,-0.044
26.630,-0.004
26.635,-0.049
26.640,-0.137
26.645,-0.104
26.650,-0.058
26.655,-0.101
26.660,-0.135
26.665,-0.115
26.670,-0.063
26.675,-0.080
26.680,-0.167
26.685,-0.187
26.690,-0.183
26.695,-0.264
26.700,-0.298
26.705,-0.185
26.710,-0.124
26.715,-0.158
26.720,-0.126
26.725,-0.066
26.730,-0.049
26.735,0.007
26.740,0.089
26.745,0.113
26.750,0.105
26.755,0.089
26.760,0.115
26.765,0.167
26.770,0.117
26.775,0.054
26.780,0.093
26.785,0.124
26.790,0.080
26.795,0.063
26.800,0.122
26.805,0.120
26.810,0.046
26.815,0.064
26.820,0.124
26.825,0.112
26.830,0.071
26.835,0.054
26.840,0.109
26.845,0.133
26.850,0.023
26.855,-0.014
26.860,0.079
26.865,0.067
26.870,0.005
26.875,0.066
26.880,0.103
26.885,0.072
26.890,0.041
26.895,-0.008
26.900,-0.001
26.905,0.043
26.910,0.019
26.915,-0.007
26.920,0.020
26.925,-0.004
26.930,-0.042
26.935,-0.032
26.940,-0.021
26.945,0.024
26.950,-0.004
26.955,-0.116
26.960,-0.122
26.965,-0.059
26.970,-0.016
26.975,0.005
26.980,-0.030
26.985,-0.071
26.990,-0.093
26.995,-0.103
27.000,-0.042
27.005,0.013
27.010,0.000
27.015,-0.022
27.020,-0.066
27.025,-0.143
27.030,-0.138
27.035,-0.044
27.040,-0.044
27.045,-0.111
27.050,-0.126
27.055,-0.108
27.060,-0.053
27.065,-0.045
27.070,-0.092
27.075,-0.088
27.080,-0.136
27.085,-0.221
27.090,-0.178
27.095,-0.117
27.100,-0.114
27.105,-0.102
27.110,-0.086
27.115,-0.046
27.120,-0.035
27.125,-0.066
27.130,-0.028
27.135,0.030
27.140,-0.005
27.145,-0.037
27.150,0.029
27.155,0.106
27.160,0.120
27.165,0.031
27.170,-0.070
27.175,-0.037
27.180,0.034
27.185,0.043
27.190,0.020
27.195,0.015
27.200,0.021
27.205,0.040
27.210,0.124
27.215,0.189
27.220,0.139
27.225,-0.043
27.230,-0.397
27.235,-0.794
27.240,-1.005
27.245,-0.837
27.250,-0.286
27.255,0.244
27.260,0.473
27.265,0.487
27.270,0.415
27.275,0.381
27.280,0.383
27.285,0.381
27.290,0.358
27.295,0.285
27.300,0.187
27.305,0.109
27.310,0.093
27.315,0.087
27.320,0.052
27.325,0.025
27.330,0.011
27.335,0.015
27.340,0.012
27.345,-0.039
27.350,-0.059
27.355,-0.015
27.360,0.014
27.365,0.003
27.370,-0.016
27.375,-0.003
27.380,-0.001
27.385,-0.044
27.390,-0.046
27.395,0.000
27.400,0.002
27.405,-0.034
27.410,-0.048
27.415,-0.039
27.420,-0.039
27.425,-0.040
27.430,-0.021
27.435,0.005
27.440,0.014
27.445,-0.031
27.450,-0.096
27.455,-0.102
27.460,-0.054
27.465,-0.027
27.470,-0.065
27.475,-0.147
27.480,-0.207
27.485,-0.201
27.490,-0.146
27.495,-0.113
27.500,-0.158
27.505,-0.236
27.510,-0.268
27.515,-0.214
27.520,-0.166
27.525,-0.188
27.530,-0.186
27.535,-0.113
27.540,-0.053
27.545,-0.077
27.550,-0.098
27.555,-0.028
27.560,0.048
27.565,0.063
27.570,0.076
27.575,0.099
27.580,0.095
27.585,0.068
27.590,0.066
27.595,0.120
27.600,0.164
27.605,0.149
27.610,0.117
27.615,0.097
27.620,0.085
27.625,0.056
27.630,0.043
27.635,0.082
27.640,0.113
27.645,0.086
27.650,0.056
27.655,0.087
27.660,0.127
27.665,0.125
27.670,0.099
27.675,0.097
27.680,0.111
27.685,0.073
27.690,0.025
27.695,0.003
27.700,0.015
27.705,0.034
27.710,0.006
27.715,0.027
27.720,0.055
27.725,0.027
27.730,0.039
27.735,0.045
27.740,-0.006
27.745,-0.030
27.750,-0.006
27.755,0.028
27.760,0.069
27.765,0.057
27.770,-0.013
27.775,-0.035
27.780,-0.013
27.785,0.003
27.790,-0.011
27.795,-0.069
27.800,-0.084
27.805,-0.050
27.810,-0.039
27.815,-0.019
27.820,0.031
27.825,0.057
27.830,0.029
27.835,-0.027
27.840,-0.041
27.845,-0.020
27.850,-0.011
27.855,-0.003
27.860,-0.003
27.865,-0.032
27.870,-0.069
27.875,-0.083
27.880,-0.110
27.885,-0.158
27.890,-0.128
27.895,-0.024
27.900,-0.009
27.905,-0.123
27.910,-0.171
27.915,-0.070
27.920,0.019
27.925,-0.018
27.930,-0.095
27.935,-0.097
27.940,-0.020
27.945,0.045
27.950,0.085
27.955,0.087
27.960,0.010
27.965,-0.027
27.970,0.038
27.975,0.074
27.980,0.051
27.985,0.070
27.990,0.112
27.995,0.084
28.000,0.008
28.005,-0.011
28.010,0.057
28.015,0.111
28.020,0.068
28.025,0.064
28.030,0.124
28.035,0.085
28.040,-0.054
28.045,-0.362
28.050,-0.804
28.055,-1.049
28.060,-0.915
28.065,-0.423
28.070,0.126
28.075,0.378
28.080,0.443
28.085,0.498
28.090,0.523
28.095,0.524
28.100,0.403
28.105,0.260
28.110,0.272
28.115,0.262
28.120,0.184
28.125,0.139
28.130,0.090
28.135,0.069
28.140,0.068
28.145,0.043
28.150,0.050
28.155,0.046
28.160,0.016
28.165,0.040
28.170,0.055
28.175,0.011
28.180,-0.028
28.185,0.001
28.190,0.071
28.195,0.048
28.200,0.004
28.205,0.026
28.210,0.010
28.215,-0.008
28.220,-0.011
28.225,-0.005
28.230,0.033
28.235,0.004
28.240,-0.059
28.245,-0.026
28.250,0.010
28.255,0.003
28.260,0.022
28.265,0.001
28.270,-0.030
28.275,-0.049
28.280,-0.099
28.285,-0.103
28.290,-0.100
28.295,-0.123
28.300,-0.129
28.305,-0.169
28.310,-0.207
28.315,-0.177
28.320,-0.150
28.325,-0.165
28.330,-0.189
28.335,-0.191
28.340,-0.194
28.345,-0.236
28.350,-0.233
28.355,-0.126
28.360,-0.016
28.365,0.034
28.370,0.023
28.375,-0.014
28.380,0.004
28.385,0.081
28.390,0.117
28.395,0.110
28.400,0.108
28.405,0.108
28.410,0.131
28.415,0.108
28.420,0.072
28.425,0.109
28.430,0.120
28.435,0.079
28.440,0.043
28.445,0.051
28.450,0.105
28.455,0.107
28.460,0.062
28.465,0.071
28.470,0.120
28.475,0.139
28.480,0.066
28.485,-0.010
28.490,0.058
28.495,0.134
28.500,0.096
28.505,0.048
28.510,0.071
28.515,0.097
28.520,0.075
28.525,0.073
28.530,0.083
28.535,0.074
28.540,0.067
28.545,0.048
28.550,0.034
28.555,0.018
28.560,-0.008
28.565,-0.014
28.570,-0.007
28.575,-0.014
28.580,-0.025
28.585,0.007
28.590,0.028
28.595,0.013
28.600,0.005
28.605,-0.033
28.610,-0.032
28.615,0.009
28.620,-0.011
28.625,-0.043
28.630,-0.030
28.635,0.015
28.640,-0.001
28.645,-0.070
28.650,-0.092
28.655,-0.084
28.660,-0.073
28.665,-0.069
28.670,-0.075
28.675,-0.058
28.680,-0.064
28.685,-0.115
28.690,-0.141
28.695,-0.130
28.700,-0.119
28.705,-0.093
28.710,-0.047
28.715,-0.042
28.720,-0.051
28.725,-0.063
28.730,-0.083
28.735,-0.051
28.740,0.011
28.745,0.055
28.750,0.057
28.755,0.022
28.760,0.013
28.765,0.047
28.770,0.056
28.775,0.023
28.780,0.029
28.785,0.020
28.790,-0.064
28.795,-0.059
28.800,0.037
28.805,0.061
28.810,0.044
28.815,0.058
28.820,0.082
28.825,0.114
28.830,0.085
28.835,-0.063
28.840,-0.349
28.845,-0.841
28.850,-1.180
28.855,-0.918
28.860,-0.278
28.865,0.305
28.870,0.522
28.875,0.425
28.880,0.322
28.885,0.346
28.890,0.482
28.895,0.500
28.900,0.353
28.905,0.204
28.910,0.120
28.915,0.124
28.920,0.116
28.925,0.073
28.930,0.077
28.935,0.046
28.940,-0.067
28.945,-0.108
28.950,-0.034
28.955,0.052
28.960,0.071
28.965,-0.011
28.970,-0.069
28.975,-0.013
28.980,0.028
28.985,0.014
28.990,-0.044
28.995,-0.110
29.000,-0.069
29.005,0.023
29.010,0.049
29.015,0.011
29.020,-0.065
29.025,-0.060
29.030,0.017
29.035,-0.027
29.040,-0.088
29.045,-0.097
29.050,-0.095
29.055,-0.001
29.060,0.009
29.065,-0.029
29.070,0.022
29.075,-0.009
29.080,-0.103
29.085,-0.147
29.090,-0.154
29.095,-0.135
29.100,-0.157
29.105,-0.197
29.110,-0.133
29.115,-0.118
29.120,-0.205
29.125,-0.166
29.130,-0.068
29.135,-0.069
29.140,-0.063
29.145,-0.055
29.150,-0.024
29.155,-0.005
29.160,-0.061
29.165,-0.011
29.170,0.088
29.175,0.106
29.180,0.114
29.185,0.116
29.190,0.102
29.195,0.169
29.200,0.234
29.205,0.195
29.210,0.131
29.215,0.109
29.220,0.149
29.225,0.139
29.230,0.065
29.235,0.099
29.240,0.187
29.245,0.187
29.250,0.121
29.255,0.052
29.260,0.036
29.265,0.056
29.270,0.053
29.275,0.064
29.280,0.110
29.285,0.070
29.290,0.023
29.295,0.017
29.300,-0.014
29.305,-0.012
29.310,-0.001
29.315,0.002
29.320,0.001
29.325,-0.028
29.330,-0.047
29.335,-0.011
29.340,-0.013
29.345,-0.030
29.350,0.043
29.355,0.041
29.360,-0.017
29.365,0.002
29.370,0.024
29.375,0.028
29.380,0.014
29.385,-0.013
29.390,-0.014
29.395,-0.016
29.400,-0.050
29.405,-0.067
29.410,-0.047
29.415,-0.018
29.420,-0.006
29.425,-0.043
29.430,-0.076
29.435,-0.057
29.440,-0.024
29.445,-0.030
29.450,-0.060
29.455,-0.057
29.460,-0.060
29.465,-0.089
29.470,-0.098
29.475,-0.069
29.480,-0.051
29.485,-0.068
29.490,-0.024
29.495,0.060
29.500,0.076
29.505,0.033
29.510,0.004
29.515,0.017
29.520,0.051
29.525,0.080
29.530,0.089
29.535,0.044
29.540,-0.030
29.545,0.005
29.550,0.110
29.555,0.112
29.560,0.022
29.565,-0.024
29.570,0.016
29.575,0.089
29.580,0.160
29.585,0.117
29.590,-0.059
29.595,-0.237
29.600,-0.470
29.605,-0.809
29.610,-1.012
29.615,-0.820
29.620,-0.261
29.625,0.271
29.630,0.454
29.635,0.447
29.640,0.447
29.645,0.452
29.650,0.427
29.655,0.389
29.660,0.337
29.665,0.239
29.670,0.146
29.675,0.088
29.680,0.070
29.685,0.092
29.690,0.062
29.695,-0.047
29.700,-0.068
29.705,0.034
29.710,0.085
29.715,0.060
29.720,0.013
29.725,-0.042
29.730,-0.071
29.735,-0.016
29.740,0.051
29.745,0.023
29.750,-0.053
29.755,-0.090
29.760,-0.059
29.765,-0.042
29.770,-0.095
29.775,-0.053
29.780,0.034
29.785,0.002
29.790,-0.024
29.795,-0.033
29.800,-0.035
29.805,-0.020
29.810,-0.060
29.815,-0.084
29.820,-0.079
29.825,-0.076
29.830,-0.074
29.835,-0.134
29.840,-0.199
29.845,-0.157
29.850,-0.066
29.855,-0.052
29.860,-0.124
29.865,-0.191
29.870,-0.193
29.875,-0.186
29.880,-0.222
29.885,-0.222
29.890,-0.144
29.895,-0.060
29.900,-0.042
29.905,-0.083
29.910,-0.110
29.915,-0.065
29.920,0.018
29.925,0.066
29.930,0.113
29.935,0.138
29.940,0.121
29.945,0.126
29.950,0.148
29.955,0.132
29.960,0.104
29.965,0.136
29.970,0.163
29.975,0.154
29.980,0.126
29.985,0.087
29.990,0.088
29.995,0.083
30.000,0.057
30.005,0.100
30.010,0.168
30.015,0.115
30.020,0.008
30.025,-0.006
30.030,-0.002
30.035,0.007
30.040,0.044
30.045,0.052
30.050,0.031
30.055,-0.002
30.060,-0.002
30.065,0.020
30.070,0.013
30.075,-0.017
30.080,-0.026
30.085,-0.021
30.090,-0.031
30.095,-0.015
30.100,0.012
30.105,0.009
30.110,0.001
30.115,-0.025
30.120,-0.042
30.125,-0.018
30.130,0.001
30.135,0.013
30.140,0.012
30.145,-0.014
30.150,-0.043
30.155,-0.050
30.160,-0.045
30.165,-0.006
30.170,0.056
30.175,0.019
30.180,-0.051
30.185,-0.093
30.190,-0.138
30.195,-0.114
30.200,-0.100
30.205,-0.161
30.210,-0.161
30.215,-0.040
30.220,0.068
30.225,0.074
30.230,0.020
30.235,-0.062
30.240,-0.055
30.245,0.056
30.250,0.120
30.255,0.126
30.260,0.056
30.265,-0.018
30.270,0.009
30.275,0.023
30.280,0.004
30.285,0.053
30.290,0.100
30.295,0.060
30.300,0.044
30.305,0.094
30.310,0.094
30.315,0.053
30.320,0.065
30.325,0.085
30.330,0.043
30.335,-0.110
30.340,-0.439
30.345,-0.824
30.350,-1.036
30.355,-0.919
30.360,-0.464
30.365,0.069
30.370,0.368
30.375,0.417
30.380,0.386
30.385,0.366
30.390,0.400
30.395,0.414
30.400,0.369
30.405,0.340
30.410,0.286
30.415,0.187
30.420,0.099
30.425,0.030
30.430,0.040
30.435,0.104
30.440,0.098
30.445,0.023
30.450,-0.072
30.455,-0.041
30.460,0.117
30.465,0.165
30.470,0.092
30.475,0.034
30.480,0.002
30.485,-0.052
30.490,-0.090
30.495,-0.041
30.500,0.071
30.505,0.102
30.510,0.001
30.515,-0.051
30.520,-0.019
30.525,-0.002
30.530,0.003
30.535,-0.014
30.540,-0.067
30.545,-0.111
30.550,-0.086
30.555,-0.047
30.560,-0.035
30.565,-0.011
30.570,-0.001
30.575,-0.009
30.580,-0.070
30.585,-0.178
30.590,-0.194
30.595,-0.161
30.600,-0.184
30.605,-0.185
30.610,-0.182
30.615,-0.262
30.620,-0.300
30.625,-0.201
30.630,-0.099
30.635,-0.056
30.640,-0.062
30.645,-0.106
30.650,-0.103
30.655,-0.044
30.660,0.020
30.665,0.062
30.670,0.062
30.675,0.035
30.680,0.021
30.685,0.020
30.690,0.020
30.695,0.073
30.700,0.167
30.705,0.223
30.710,0.212
30.715,0.176
30.720,0.149
30.725,0.120
30.730,0.114
30.735,0.107
30.740,0.078
30.745,0.062
30.750,0.075
30.755,0.094
30.760,0.075
30.765,0.067
30.770,0.074
30.775,0.055
30.780,0.089
30.785,0.124
30.790,0.075
30.795,0.020
30.800,-0.010
30.805,0.032
30.810,0.111
30.815,0.089
30.820,0.021
30.825,0.000
30.830,-0.005
30.835,0.012
30.840,0.061
30.845,0.070
30.850,0.029
30.855,-0.010
30.860,-0.020
30.865,-0.017
30.870,-0.053
30.875,-0.057
30.880,0.020
30.885,0.059
30.890,0.044
30.895,0.002
30.900,-0.032
30.905,-0.037
30.910,-0.059
30.915,-0.058
30.920,0.002
30.925,0.020
30.930,-0.007
30.935,-0.010
30.940,-0.001
30.945,-0.005
30.950,-0.027
30.955,-0.023
30.960,-0.026
30.965,-0.081
30.970,-0.131
30.975,-0.134
30.980,-0.067
30.985,-0.006
30.990,-0.060
30.995,-0.124
31.000,-0.137
31.005,-0.152
31.010,-0.093
31.015,-0.001
31.020,0.018
31.025,0.003
31.030,-0.035
31.035,-0.069
31.040,-0.037
31.045,0.022
31.050,0.047
31.055,0.032
31.060,0.023
31.065,0.043
31.070,0.059
31.075,0.079
31.080,0.084
31.085,0.065
31.090,0.061
31.095,0.045
31.100,0.038
31.105,0.049
31.110,0.008
31.115,-0.040
31.120,0.027
31.125,0.115
31.130,0.100
31.135,-0.026
31.140,-0.332
31.145,-0.751
31.150,-1.041
31.155,-0.975
31.160,-0.575
31.165,-0.055
31.170,0.310
31.175,0.401
31.180,0.412
31.185,0.439
31.190,0.495
31.195,0.501
31.200,0.406
31.205,0.293
31.210,0.218
31.215,0.168
31.220,0.110
31.225,0.078
31.230,0.057
31.235,0.051
31.240,0.070
31.245,0.069
31.250,0.058
31.255,0.046
31.260,0.040
31.265,0.041
31.270,0.028
31.275,0.025
31.280,0.042
31.285,0.036
31.290,-0.005
31.295,-0.018
31.300,-0.023
31.305,-0.049
31.310,0.001
31.315,0.054
31.320,0.036
31.325,0.011
31.330,-0.017
31.335,-0.030
31.340,-0.035
31.345,-0.036
31.350,-0.012
31.355,0.003
31.360,-0.028
31.365,-0.065
31.370,-0.063
31.375,-0.075
31.380,-0.117
31.385,-0.145
31.390,-0.156
31.395,-0.133
31.400,-0.126
31.405,-0.146
31.410,-0.177
31.415,-0.216
31.420,-0.220
31.425,-0.216
31.430,-0.215
31.435,-0.195
31.440,-0.176
31.445,-0.157
31.450,-0.118
31.455,-0.073
31.460,-0.032
31.465,0.000
31.470,0.019
31.475,0.037
31.480,0.053
31.485,0.073
31.490,0.093
31.495,0.085
31.500,0.052
31.505,0.017
31.510,0.028
31.515,0.100
31.520,0.142
31.525,0.141
31.530,0.163
31.535,0.159
31.540,0.126
31.545,0.102
31.550,0.075
31.555,0.085
31.560,0.100
31.565,0.079
31.570,0.067
31.575,0.060
31.580,0.050
31.585,0.055
31.590,0.065
31.595,0.069
31.600,0.076
31.605,0.080
31.610,0.059
31.615,0.041
31.620,0.049
31.625,0.062
31.630,0.061
31.635,0.046
31.640,0.040
31.645,0.042
31.650,0.031
31.655,0.014
31.660,0.009
31.665,-0.001
31.670,-0.019
31.675,-0.027
31.680,-0.020
31.685,-0.008
31.690,-0.029
31.695,-0.081
31.700,-0.092
31.705,-0.041
31.710,0.030
31.715,0.045
31.720,0.005
31.725,-0.026
31.730,-0.044
31.735,-0.062
31.740,-0.074
31.745,-0.076
31.750,-0.070
31.755,-0.080
31.760,-0.105
31.765,-0.119
31.770,-0.114
31.775,-0.093
31.780,-0.069
31.785,-0.055
31.790,-0.050
31.795,-0.047
31.800,-0.042
31.805,-0.032
31.810,-0.018
31.815,0.014
31.820,0.048
31.825,0.057
31.830,0.058
31.835,0.063
31.840,0.057
31.845,0.037
31.850,0.028
31.855,0.036
31.860,0.048
31.865,0.057
31.870,0.047
31.875,0.032
31.880,0.043
31.885,0.076
31.890,0.133
31.895,0.138
31.900,0.009
31.905,-0.244
31.910,-0.634
31.915,-1.030
31.920,-1.132
31.925,-0.812
31.930,-0.227
31.935,0.238
31.940,0.377
31.945,0.396
31.950,0.438
31.955,0.499
31.960,0.510
31.965,0.426
31.970,0.311
31.975,0.217
31.980,0.163
31.985,0.138
31.990,0.132
31.995,0.126
32.000,0.105
32.005,0.083
32.010,0.073
32.015,0.066
32.020,0.060
32.025,0.059
32.030,0.057
32.035,0.052
32.040,0.041
32.045,0.038
32.050,0.037
32.055,0.028
32.060,0.034
32.065,0.037
32.070,0.028
32.075,0.012
32.080,-0.010
32.085,-0.001
32.090,0.019
32.095,0.012
32.100,0.002
32.105,-0.002
32.110,-0.010
32.115,-0.016
32.120,-0.028
32.125,-0.043
32.130,-0.047
32.135,-0.052
32.140,-0.061
32.145,-0.078
32.150,-0.104
32.155,-0.128
32.160,-0.149
32.165,-0.167
32.170,-0.180
32.175,-0.193
32.180,-0.214
32.185,-0.229
32.190,-0.235
32.195,-0.241
32.200,-0.234
32.205,-0.205
32.210,-0.167
32.215,-0.133
32.220,-0.097
32.225,-0.065
32.230,-0.035
32.235,-0.004
32.240,0.019
32.245,0.040
32.250,0.058
32.255,0.061
32.260,0.050
32.265,0.028
32.270,0.036
32.275,0.087
32.280,0.131
32.285,0.132
32.290,0.097
32.295,0.070
32.300,0.059
32.305,0.046
32.310,0.039
32.315,-0.001
32.320,-0.058
32.325,-0.017
32.330,0.081
32.335,0.122
32.340,0.109
32.345,0.115
32.350,0.182
32.355,0.219
32.360,0.163
32.365,0.094
32.370,0.070
32.375,0.071
32.380,0.064
32.385,0.041
32.390,0.023
32.395,0.044
32.400,0.088
32.405,0.095
32.410,0.055
32.415,0.013
32.420,-0.003
32.425,-0.008
32.430,-0.002
32.435,0.042
32.440,0.083
32.445,0.066
32.450,0.028
32.455,0.014
32.460,0.004
32.465,-0.016
32.470,-0.028
32.475,-0.040
32.480,-0.047
32.485,-0.046
32.490,-0.056
32.495,-0.059
32.500,-0.060
32.505,-0.067
32.510,-0.067
32.515,-0.080
32.520,-0.081
32.525,-0.057
32.530,-0.038
32.535,-0.036
32.540,-0.046
32.545,-0.041
32.550,-0.023
32.555,-0.009
32.560,0.012
32.565,0.040
32.570,0.056
32.575,0.053
32.580,0.059
32.585,0.079
32.590,0.093
32.595,0.097
32.600,0.079
32.605,0.053
32.610,0.059
32.615,0.073
32.620,0.069
32.625,0.064
32.630,0.067
32.635,0.112
32.640,0.165
32.645,0.117
32.650,-0.042
32.655,-0.323
32.660,-0.727
32.665,-1.054
32.670,-1.028
32.675,-0.564
32.680,0.059
32.685,0.420
32.690,0.462
32.695,0.450
32.700,0.487
32.705,0.522
32.710,0.495
32.715,0.392
32.720,0.287
32.725,0.223
32.730,0.188
32.735,0.169
32.740,0.149
32.745,0.122
32.750,0.113
32.755,0.118
32.760,0.106
32.765,0.093
32.770,0.091
32.775,0.084
32.780,0.081
32.785,0.083
32.790,0.079
32.795,0.073
32.800,0.070
32.805,0.070
32.810,0.068
32.815,0.064
32.820,0.063
32.825,0.062
32.830,0.056
32.835,0.045
32.840,0.038
32.845,0.039
32.850,0.037
32.855,0.025
32.860,0.014
32.865,0.012
32.870,0.012
32.875,0.004
32.880,-0.009
32.885,-0.025
32.890,-0.037
32.895,-0.056
32.900,-0.084
32.905,-0.113
32.910,-0.144
32.915,-0.169
32.920,-0.187
32.925,-0.203
32.930,-0.223
32.935,-0.241
32.940,-0.241
32.945,-0.230
32.950,-0.218
32.955,-0.198
32.960,-0.160
32.965,-0.115
32.970,-0.072
32.975,-0.039
32.980,-0.013
32.985,0.012
32.990,0.026
32.995,0.035
33.000,0.043
33.005,0.049
33.010,0.046
33.015,0.042
33.020,0.042
33.025,0.045
33.030,0.046
33.035,0.040
33.040,0.029
33.045,0.030
33.050,0.036
33.055,0.033
33.060,0.034
33.065,0.038
33.070,0.027
33.075,0.015
33.080,0.011
33.085,0.013
33.090,0.017
33.095,0.021
33.100,0.024
33.105,0.027
33.110,0.029
33.115,0.025
33.120,0.024
33.125,0.021
33.130,0.011
33.135,0.006
33.140,0.005
33.145,-0.001
33.150,-0.005
33.155,-0.005
33.160,-0.007
33.165,-0.012
33.170,-0.020
33.175,-0.027
33.180,-0.029
33.185,-0.033
33.190,-0.038
33.195,-0.043
33.200,-0.050
33.205,-0.055
33.210,-0.054
33.215,-0.049
33.220,-0.049
33.225,-0.064
33.230,-0.088
33.235,-0.101
33.240,-0.110
33.245,-0.112
33.250,-0.106
33.255,-0.106
33.260,-0.113
33.265,-0.122
33.270,-0.139
33.275,-0.155
33.280,-0.162
33.285,-0.157
33.290,-0.128
33.295,-0.098
33.300,-0.096
33.305,-0.097
33.310,-0.089
33.315,-0.077
33.320,-0.052
33.325,-0.019
33.330,0.000
33.335,0.007
33.340,0.006
33.345,0.009
33.350,0.020
33.355,0.023
33.360,0.018
33.365,0.016
33.370,0.016
33.375,0.016
33.380,0.015
33.385,0.017
33.390,0.016
33.395,0.022
33.400,0.070
33.405,0.112
33.410,0.060
33.415,-0.112
33.420,-0.429
33.425,-0.833
33.430,-1.089
33.435,-0.966
33.440,-0.447
33.445,0.145
33.450,0.428
33.455,0.431
33.460,0.406
33.465,0.436
33.470,0.466
33.475,0.431
33.480,0.333
33.485,0.231
33.490,0.160
33.495,0.124
33.500,0.112
33.505,0.098
33.510,0.074
33.515,0.065
33.520,0.064
33.525,0.046
33.530,0.029
33.535,0.025
33.540,0.023
33.545,0.023
33.550,0.023
33.555,0.024
33.560,0.022
33.565,0.015
33.570,0.011
33.575,0.010
33.580,0.011
33.585,0.009
33.590,0.003
33.595,0.005
33.600,0.009
33.605,0.006
33.610,-0.002
33.615,-0.009
33.620,-0.007
33.625,-0.007
33.630,-0.017
33.635,-0.026
33.640,-0.032
33.645,-0.035
33.650,-0.043
33.655,-0.061
33.660,-0.080
33.665,-0.100
33.670,-0.124
33.675,-0.150
33.680,-0.175
33.685,-0.182
33.690,-0.181
33.695,-0.197
33.700,-0.210
33.705,-0.214
33.710,-0.208
33.715,-0.181
33.720,-0.151
33.725,-0.118
33.730,-0.081
33.735,-0.049
33.740,-0.015
33.745,0.025
33.750,0.061
33.755,0.082
33.760,0.096
33.765,0.107
33.770,0.111
33.775,0.118
33.780,0.121
33.785,0.116
33.790,0.107
33.795,0.104
33.800,0.109
33.805,0.113
33.810,0.115
33.815,0.114
33.820,0.108
33.825,0.101
33.830,0.099
33.835,0.104
33.840,0.108
33.845,0.104
33.850,0.095
33.855,0.095
33.860,0.101
33.865,0.102
33.870,0.099
33.875,0.099
33.880,0.096
33.885,0.088
33.890,0.080
33.895,0.076
33.900,0.079
33.905,0.074
33.910,0.062
33.915,0.054
33.920,0.053
33.925,0.048
33.930,0.038
33.935,0.032
33.940,0.028
33.945,0.026
33.950,0.023
33.955,0.015
33.960,0.012
33.965,0.008
33.970,-0.002
33.975,-0.008
33.980,-0.007
33.985,-0.008
33.990,-0.015
33.995,-0.025
34.000,-0.031
34.005,-0.039
34.010,-0.049
34.015,-0.062
34.020,-0.074
34.025,-0.078
34.030,-0.075
34.035,-0.074
34.040,-0.087
34.045,-0.109
34.050,-0.121
34.055,-0.105
34.060,-0.072
34.065,-0.050
34.070,-0.052
34.075,-0.057
34.080,-0.048
34.085,-0.030
34.090,0.001
34.095,0.032
34.100,0.041
34.105,0.042
34.110,0.042
34.115,0.044
34.120,0.051
34.125,0.051
34.130,0.046
34.135,0.048
34.140,0.048
34.145,0.042
34.150,0.039
34.155,0.038
34.160,0.038
34.165,0.062
34.170,0.112
34.175,0.109
34.180,-0.005
34.185,-0.246
34.190,-0.629
34.195,-0.990
34.200,-1.052
34.205,-0.699
34.210,-0.083
34.215,0.379
34.220,0.476
34.225,0.436
34.230,0.435
34.235,0.466
34.240,0.462
34.245,0.377
34.250,0.263
34.255,0.180
34.260,0.128
34.265,0.098
34.270,0.099
34.275,0.088
34.280,0.064
34.285,0.057
34.290,0.048
34.295,0.035
34.300,0.033
34.305,0.029
34.310,0.022
34.315,0.021
34.320,0.020
34.325,0.019
34.330,0.017
34.335,0.007
34.340,0.000
34.345,-0.002
34.350,-0.004
34.355,-0.003
34.360,0.000
34.365,-0.001
34.370,-0.006
34.375,-0.012
34.380,-0.012
34.385,-0.011
34.390,-0.012
34.395,-0.017
34.400,-0.024
34.405,-0.032
34.410,-0.041
34.415,-0.049
34.420,-0.062
34.425,-0.086
34.430,-0.110
34.435,-0.129
34.440,-0.146
34.445,-0.161
34.450,-0.188
34.455,-0.243
34.460,-0.303
34.465,-0.330
34.470,-0.318
34.475,-0.288
34.480,-0.246
34.485,-0.180
34.490,-0.095
34.495,-0.016
34.500,0.019
34.505,-0.007
34.510,-0.056
34.515,-0.084
34.520,-0.059
34.525,0.016
34.530,0.111
34.535,0.200
34.540,0.226
34.545,0.184
34.550,0.131
34.555,0.116
34.560,0.151
34.565,0.168
34.570,0.128
34.575,0.106
34.580,0.120
34.585,0.115
34.590,0.084
34.595,0.055
34.600,0.042
34.605,0.042
34.610,0.005
34.615,-0.085
34.620,-0.121
34.625,0.000
34.630,0.204
34.635,0.281
34.640,0.172
34.645,0.037
34.650,0.032
34.655,0.123
34.660,0.149
34.665,0.081
34.670,0.023
34.675,0.010
34.680,0.021
34.685,0.012
34.690,-0.075
34.695,-0.121
34.700,-0.005
34.705,0.121
34.710,0.130
34.715,0.079
34.720,0.034
34.725,0.021
34.730,0.018
34.735,0.018
34.740,0.050
34.745,0.025
34.750,-0.106
34.755,-0.181
34.760,-0.150
34.765,-0.103
34.770,-0.055
34.775,-0.026
34.780,-0.034
34.785,-0.041
34.790,-0.024
34.795,-0.051
34.800,-0.137
34.805,-0.153
34.810,-0.090
34.815,-0.089
34.820,-0.141
34.825,-0.137
34.830,-0.072
34.835,0.014
34.840,0.047
34.845,0.010
34.850,-0.019
34.855,-0.061
34.860,-0.100
34.865,-0.017
34.870,0.106
34.875,0.111
34.880,0.054
34.885,-0.020
34.890,-0.069
34.895,-0.010
34.900,0.058
34.905,0.050
34.910,0.036
34.915,0.049
34.920,0.087
34.925,0.107
34.930,0.058
34.935,0.040
34.940,0.143
34.945,0.271
34.950,0.237
34.955,0.017
34.960,-0.237
34.965,-0.504
34.970,-0.843
34.975,-1.073
34.980,-0.887
34.985,-0.288
34.990,0.337
34.995,0.600
35.000,0.526
35.005,0.413
35.010,0.386
35.015,0.383
35.020,0.383
35.025,0.370
35.030,0.327
35.035,0.270
35.040,0.203
35.045,0.147
35.050,0.079
35.055,0.013
35.060,0.006
35.065,0.040
35.070,0.084
35.075,0.077
35.080,0.008
35.085,-0.037
35.090,-0.094
35.095,-0.129
35.100,0.023
35.105,0.191
35.110,0.183
35.115,0.116
35.120,0.064
35.125,0.023
35.130,-0.016
35.135,-0.100
35.140,-0.089
35.145,0.085
35.150,0.129
35.155,0.010
35.160,-0.072
35.165,-0.065
35.170,0.016
35.175,0.052
35.180,0.024
35.185,0.013
35.190,-0.023
35.195,-0.075
35.200,-0.133
35.205,-0.182
35.210,-0.134
35.215,-0.074
35.220,-0.070
35.225,-0.071
35.230,-0.107
35.235,-0.142
35.240,-0.137
35.245,-0.172
35.250,-0.202
35.255,-0.181
35.260,-0.190
35.265,-0.173
35.270,-0.130
35.275,-0.089
35.280,0.012
35.285,0.026
35.290,-0.052
35.295,-0.037
35.300,0.000
35.305,0.048
35.310,0.158
35.315,0.186
35.320,0.158
35.325,0.147
35.330,0.125
35.335,0.162
35.340,0.165
35.345,0.051
35.350,0.001
35.355,0.050
35.360,0.089
35.365,0.120
35.370,0.131
35.375,0.111
35.380,0.112
35.385,0.112
35.390,0.120
35.395,0.129
35.400,0.058
35.405,0.034
35.410,0.094
35.415,0.011
35.420,-0.093
35.425,0.018
35.430,0.170
35.435,0.219
35.440,0.139
35.445,-0.008
35.450,-0.021
35.455,0.073
35.460,0.077
35.465,0.017
35.470,-0.037
35.475,-0.061
35.480,0.036
35.485,0.116
35.490,0.084
35.495,0.039
35.500,0.003
35.505,-0.013
35.510,-0.068
35.515,-0.127
35.520,-0.050
35.525,0.063
35.530,0.044
35.535,-0.008
35.540,-0.031
35.545,-0.071
35.550,-0.079
35.555,-0.058
35.560,-0.033
35.565,-0.006
35.570,-0.074
35.575,-0.155
35.580,-0.044
35.585,0.045
35.590,-0.062
35.595,-0.149
35.600,-0.153
35.605,-0.116
35.610,-0.078
35.615,-0.120
35.620,-0.138
35.625,-0.073
35.630,-0.024
35.635,-0.023
35.640,-0.075
35.645,-0.119
35.650,-0.047
35.655,0.007
35.660,-0.011
35.665,0.047
35.670,0.037
35.675,-0.011
35.680,0.078
35.685,0.081
35.690,0.013
35.695,0.062
35.700,0.103
35.705,0.090
35.710,0.020
35.715,-0.080
35.720,-0.031
35.725,0.076
35.730,0.052
35.735,0.001
35.740,-0.002
35.745,-0.158
35.750,-0.526
35.755,-0.871
35.760,-1.000
35.765,-0.769
35.770,-0.233
35.775,0.230
35.780,0.382
35.785,0.400
35.790,0.433
35.795,0.449
35.800,0.467
35.805,0.437
35.810,0.296
35.815,0.172
35.820,0.138
35.825,0.125
35.830,0.070
35.835,0.002
35.840,0.030
35.845,0.109
35.850,0.072
35.855,-0.044
35.860,-0.037
35.865,0.049
35.870,0.048
35.875,0.003
35.880,-0.041
35.885,-0.058
35.890,-0.022
35.895,-0.021
35.900,-0.079
35.905,-0.123
35.910,-0.055
35.915,0.058
35.920,0.051
35.925,-0.001
35.930,-0.017
35.935,-0.052
35.940,-0.071
35.945,-0.040
35.950,-0.006
35.955,-0.015
35.960,-0.088
35.965,-0.109
35.970,-0.020
35.975,0.015
35.980,-0.009
35.985,-0.015
35.990,-0.077
35.995,-0.151
36.000,-0.160
36.005,-0.171
36.010,-0.175
36.015,-0.184
36.020,-0.220
36.025,-0.228
36.030,-0.288
36.035,-0.362
36.040,-0.255
36.045,-0.113
36.050,-0.116
36.055,-0.130
36.060,-0.081
36.065,-0.032
36.070,-0.004
36.075,0.011
36.080,0.078
36.085,0.166
36.090,0.116
36.095,0.030
36.100,0.089
36.105,0.149
36.110,0.089
36.115,0.031
36.120,0.018
36.125,0.029
36.130,0.089
36.135,0.164
36.140,0.187
36.145,0.130
36.150,0.034
36.155,-0.003
36.160,0.048
36.165,0.156
36.170,0.226
36.175,0.168
36.180,0.073
36.185,-0.003
36.190,-0.020
36.195,0.073
36.200,0.133
36.205,0.087
36.210,0.023
36.215,0.015
36.220,0.066
36.225,0.100
36.230,0.079
36.235,0.045
36.240,0.061
36.245,0.123
36.250,0.118
36.255,0.065
36.260,0.018
36.265,-0.041
36.270,-0.052
36.275,-0.014
36.280,0.030
36.285,0.048
36.290,0.005
36.295,-0.048
36.300,-0.053
36.305,-0.003
36.310,0.049
36.315,0.009
36.320,-0.067
36.325,-0.047
36.330,0.023
36.335,0.025
36.340,-0.032
36.345,-0.067
36.350,-0.056
36.355,-0.046
36.360,-0.076
36.365,-0.115
36.370,-0.128
36.375,-0.134
36.380,-0.102
36.385,-0.013
36.390,0.008
36.395,-0.096
36.400,-0.168
36.405,-0.122
36.410,-0.050
36.415,-0.043
36.420,-0.094
36.425,-0.118
36.430,-0.068
36.435,0.013
36.440,0.056
36.445,0.046
36.450,0.025
36.455,0.030
36.460,0.054
36.465,0.082
36.470,0.102
36.475,0.097
36.480,0.057
36.485,-0.011
36.490,-0.057
36.495,-0.020
36.500,0.055
36.505,0.081
36.510,0.053
36.515,0.061
36.520,0.121
36.525,0.116
36.530,0.024
36.535,-0.202
36.540,-0.627
36.545,-1.030
36.550,-1.074
36.555,-0.634
36.560,0.051
36.565,0.454
36.570,0.430
36.575,0.353
36.580,0.395
36.585,0.497
36.590,0.535
36.595,0.408
36.600,0.224
36.605,0.131
36.610,0.098
36.615,0.057
36.620,0.057
36.625,0.061
36.630,0.052
36.635,0.074
36.640,0.056
36.645,0.033
36.650,0.048
36.655,0.036
36.660,0.006
36.665,0.011
36.670,0.038
36.675,0.031
36.680,0.019
36.685,0.010
36.690,-0.027
36.695,-0.065
36.700,-0.057
36.705,0.006
36.710,0.081
36.715,0.091
36.720,0.025
36.725,-0.029
36.730,-0.088
36.735,-0.116
36.740,-0.014
36.745,0.052
36.750,-0.022
36.755,-0.076
36.760,-0.063
36.765,-0.058
36.770,-0.071
36.775,-0.107
36.780,-0.137
36.785,-0.129
36.790,-0.136
36.795,-0.146
36.800,-0.121
36.805,-0.127
36.810,-0.205
36.815,-0.275
36.820,-0.270
36.825,-0.219
36.830,-0.177
36.835,-0.161
36.840,-0.160
36.845,-0.131
36.850,-0.073
36.855,-0.011
36.860,0.065
36.865,0.081
36.870,-0.010
36.875,-0.062
36.880,0.059
36.885,0.210
36.890,0.205
36.895,0.108
36.900,0.055
36.905,0.056
36.910,0.078
36.915,0.121
36.920,0.123
36.925,0.082
36.930,0.053
36.935,0.021
36.940,0.058
36.945,0.164
36.950,0.186
36.955,0.140
36.960,0.106
36.965,0.064
36.970,0.050
36.975,0.070
36.980,0.087
36.985,0.090
36.990,0.063
36.995,0.076
37.000,0.139
37.005,0.128
37.010,0.047
37.015,0.012
37.020,0.060
37.025,0.053
37.030,-0.033
37.035,-0.031
37.040,0.045
37.045,0.102
37.050,0.091
37.055,0.055
37.060,0.054
37.065,0.012
37.070,-0.012
37.075,0.018
37.080,0.015
37.085,-0.027
37.090,-0.094
37.095,-0.063
37.100,0.069
37.105,0.098
37.110,0.030
37.115,-0.022
37.120,-0.052
37.125,-0.050
37.130,-0.037
37.135,-0.030
37.140,-0.007
37.145,-0.022
37.150,-0.110
37.155,-0.162
37.160,-0.099
37.165,-0.020
37.170,-0.013
37.175,-0.065
37.180,-0.157
37.185,-0.166
37.190,-0.064
37.195,-0.025
37.200,-0.081
37.205,-0.141
37.210,-0.122
37.215,-0.054
37.220,-0.019
37.225,0.050
37.230,0.110
37.235,0.090
37.240,0.037
37.245,-0.030
37.250,-0.009
37.255,0.065
37.260,0.030
37.265,-0.005
37.270,0.043
37.275,0.061
37.280,0.060
37.285,0.017
37.290,-0.044
37.295,-0.019
37.300,0.052
37.305,0.184
37.310,0.232
37.315,0.035
37.320,-0.305
37.325,-0.692
37.330,-0.957
37.335,-0.961
37.340,-0.634
37.345,-0.037
37.350,0.415
37.355,0.460
37.360,0.372
37.365,0.412
37.370,0.500
37.375,0.463
37.380,0.323
37.385,0.205
37.390,0.146
37.395,0.138
37.400,0.148
37.405,0.131
37.410,0.091
37.415,0.067
37.420,0.069
37.425,0.042
37.430,-0.020
37.435,-0.031
37.440,0.014
37.445,0.036
37.450,0.039
37.455,0.033
37.460,-0.017
37.465,-0.071
37.470,-0.033
37.475,0.046
37.480,0.036
37.485,0.010
37.490,0.024
37.495,0.023
37.500,0.015
37.505,0.004
37.510,0.011
37.515,0.000
37.520,-0.064
37.525,-0.075
37.530,-0.024
37.535,-0.011
37.540,-0.038
37.545,-0.053
37.550,-0.050
37.555,-0.064
37.560,-0.110
37.565,-0.146
37.570,-0.129
37.575,-0.108
37.580,-0.136
37.585,-0.164
37.590,-0.168
37.595,-0.205
37.600,-0.266
37.605,-0.278
37.610,-0.233
37.615,-0.193
37.620,-0.177
37.625,-0.121
37.630,-0.060
37.635,-0.072
37.640,-0.098
37.645,-0.041
37.650,0.084
37.655,0.124
37.660,0.064
37.665,0.045
37.670,0.080
37.675,0.104
37.680,0.090
37.685,0.037
37.690,0.041
37.695,0.140
37.700,0.156
37.705,0.074
37.710,0.088
37.715,0.163
37.720,0.166
37.725,0.120
37.730,0.084
37.735,0.091
37.740,0.100
37.745,0.075
37.750,0.045
37.755,0.061
37.760,0.130
37.765,0.165
37.770,0.135
37.775,0.090
37.780,0.050
37.785,0.051
37.790,0.090
37.795,0.082
37.800,0.047
37.805,0.049
37.810,0.048
37.815,0.050
37.820,0.080
37.825,0.057
37.830,0.002
37.835,0.022
37.840,0.044
37.845,-0.005
37.850,-0.031
37.855,0.008
37.860,0.041
37.865,0.037
37.870,-0.008
37.875,-0.047
37.880,-0.025
37.885,0.005
37.890,0.026
37.895,0.016
37.900,-0.016
37.905,-0.017
37.910,-0.017
37.915,-0.006
37.920,-0.035
37.925,-0.095
37.930,-0.053
37.935,-0.027
37.940,-0.086
37.945,-0.089
37.950,-0.066
37.955,-0.097
37.960,-0.128
37.965,-0.122
37.970,-0.108
37.975,-0.130
37.980,-0.160
37.985,-0.085
37.990,0.042
37.995,0.030
38.000,-0.054
38.005,-0.052
38.010,-0.006
38.015,0.013
38.020,-0.007
38.025,-0.022
38.030,0.031
38.035,0.064
38.040,0.029
38.045,0.039
38.050,0.053
38.055,0.052
38.060,0.095
38.065,0.093
38.070,0.055
38.075,0.040
38.080,0.005
38.085,-0.002
38.090,0.056
38.095,0.119
38.100,0.143
38.105,0.037
38.110,-0.222
38.115,-0.558
38.120,-0.907
38.125,-1.042
38.130,-0.772
38.135,-0.211
38.140,0.311
38.145,0.505
38.150,0.467
38.155,0.428
38.160,0.421
38.165,0.415
38.170,0.409
38.175,0.344
38.180,0.233
38.185,0.123
38.190,0.020
38.195,-0.002
38.200,0.055
38.205,0.118
38.210,0.159
38.215,0.125
38.220,0.059
38.225,0.022
38.230,-0.033
38.235,-0.034
38.240,0.039
38.245,0.063
38.250,0.017
38.255,-0.031
38.260,-0.025
38.265,-0.016
38.270,-0.060
38.275,-0.065
38.280,0.014
38.285,0.090
38.290,0.061
38.295,-0.027
38.300,-0.072
38.305,-0.074
38.310,-0.026
38.315,0.047
38.320,0.045
38.325,-0.042
38.330,-0.109
38.335,-0.095
38.340,-0.039
38.345,-0.013
38.350,-0.056
38.355,-0.106
38.360,-0.149
38.365,-0.219
38.370,-0.207
38.375,-0.113
38.380,-0.096
38.385,-0.163
38.390,-0.246
38.395,-0.271
38.400,-0.221
38.405,-0.204
38.410,-0.199
38.415,-0.155
38.420,-0.100
38.425,-0.054
38.430,-0.036
38.435,-0.023
38.440,-0.038
38.445,0.008
38.450,0.140
38.455,0.184
38.460,0.136
38.465,0.043
38.470,-0.022
38.475,0.009
38.480,0.054
38.485,0.105
38.490,0.170
38.495,0.169
38.500,0.129
38.505,0.113
38.510,0.109
38.515,0.130
38.520,0.121
38.525,0.075
38.530,0.066
38.535,0.035
38.540,0.010
38.545,0.070
38.550,0.147
38.555,0.161
38.560,0.101
38.565,0.065
38.570,0.081
38.575,0.086
38.580,0.066
38.585,0.045
38.590,0.073
38.595,0.074
38.600,0.043
38.605,0.069
38.610,0.070
38.615,0.010
38.620,-0.030
38.625,0.014
38.630,0.063
38.635,0.005
38.640,-0.067
38.645,-0.059
38.650,-0.026
38.655,-0.018
38.660,0.023
38.665,0.079
38.670,0.074
38.675,0.011
38.680,-0.074
38.685,-0.071
38.690,0.013
38.695,0.018
38.700,-0.025
38.705,-0.047
38.710,-0.063
38.715,-0.037
38.720,-0.049
38.725,-0.082
38.730,-0.033
38.735,-0.013
38.740,-0.077
38.745,-0.120
38.750,-0.099
38.755,-0.070
38.760,-0.088
38.765,-0.129
38.770,-0.126
38.775,-0.108
38.780,-0.109
38.785,-0.070
38.790,-0.060
38.795,-0.118
38.800,-0.101
38.805,-0.028
38.810,-0.016
38.815,-0.030
38.820,0.018
38.825,0.104
38.830,0.095
38.835,0.016
38.840,0.019
38.845,0.077
38.850,0.072
38.855,0.050
38.860,0.054
38.865,0.046
38.870,0.022
38.875,-0.013
38.880,-0.017
38.885,0.028
38.890,0.091
38.895,0.157
38.900,0.153
38.905,-0.010
38.910,-0.258
38.915,-0.558
38.920,-0.894
38.925,-0.975
38.930,-0.609
38.935,0.006
38.940,0.449
38.945,0.504
38.950,0.401
38.955,0.393
38.960,0.462
38.965,0.461
38.970,0.393
38.975,0.298
38.980,0.185
38.985,0.102
38.990,0.006
38.995,-0.036
39.000,0.040
39.005,0.097
39.010,0.089
39.015,0.050
39.020,-0.007
39.025,-0.030
39.030,-0.024
39.035,-0.032
39.040,-0.022
39.045,0.026
39.050,0.023
39.055,-0.057
39.060,-0.081
39.065,0.001
39.070,0.055
39.075,-0.011
39.080,-0.084
39.085,-0.039
39.090,0.033
39.095,-0.007
39.100,-0.062
39.105,-0.010
39.110,0.046
39.115,0.007
39.120,-0.069
39.125,-0.099
39.130,-0.097
39.135,-0.076
39.140,-0.014
39.145,0.014
39.150,-0.058
39.155,-0.157
39.160,-0.200
39.165,-0.193
39.170,-0.159
39.175,-0.115
39.180,-0.103
39.185,-0.169
39.190,-0.273
39.195,-0.292
39.200,-0.222
39.205,-0.142
39.210,-0.095
39.215,-0.100
39.220,-0.089
39.225,-0.032
39.230,0.023
39.235,0.021
39.240,-0.006
39.245,0.046
39.250,0.076
39.255,0.048
39.260,0.089
39.265,0.145
39.270,0.159
39.275,0.143
39.280,0.116
39.285,0.138
39.290,0.144
39.295,0.078
39.300,0.031
39.305,0.075
39.310,0.160
39.315,0.179
39.320,0.154
39.325,0.101
39.330,0.051
39.335,0.083
39.340,0.118
39.345,0.138
39.350,0.139
39.355,0.073
39.360,0.037
39.365,0.054
39.370,0.083
39.375,0.083
39.380,0.017
39.385,0.022
39.390,0.088
39.395,0.082
39.400,0.058
39.405,0.031
39.410,0.000
39.415,0.020
39.420,0.042
39.425,0.028
39.430,0.008
39.435,-0.020
39.440,-0.044
39.445,-0.047
39.450,0.000
39.455,0.074
39.460,0.054
39.465,-0.034
39.470,-0.085
39.475,-0.057
39.480,0.026
39.485,0.045
39.490,0.005
39.495,-0.026
39.500,-0.071
39.505,-0.058
39.510,0.025
39.515,0.048
39.520,0.012
39.525,-0.017
39.530,-0.044
39.535,-0.059
39.540,-0.031
39.545,-0.028
39.550,-0.128
39.555,-0.186
39.560,-0.073
39.565,-0.008
39.570,-0.086
39.575,-0.152
39.580,-0.129
39.585,-0.047
39.590,-0.044
39.595,-0.067
39.600,-0.009
39.605,-0.002
39.610,-0.074
39.615,-0.082
39.620,-0.017
39.625,-0.012
39.630,-0.027
39.635,0.045
39.640,0.117
39.645,0.109
39.650,0.046
39.655,0.002
39.660,0.037
39.665,0.056
39.670,0.035
39.675,0.064
39.680,0.102
39.685,0.086
39.690,0.040
39.695,-0.024
39.700,-0.016
39.705,0.135
39.710,0.216
39.715,0.072
39.720,-0.264
39.725,-0.747
39.730,-1.109
39.735,-1.056
39.740,-0.557
39.745,0.134
39.750,0.536
39.755,0.487
39.760,0.317
39.765,0.335
39.770,0.480
39.775,0.484
39.780,0.374
39.785,0.303
39.790,0.228
39.795,0.148
39.800,0.093
39.805,0.035
39.810,0.028
39.815,0.045
39.820,0.033
39.825,0.022
39.830,0.011
39.835,0.027
39.840,0.039
39.845,0.004
39.850,-0.024
39.855,0.012
39.860,0.058
39.865,0.023
39.870,-0.045
39.875,-0.044
39.880,-0.028
39.885,-0.071
39.890,-0.072
39.895,0.007
39.900,0.048
39.905,0.033
39.910,0.017
39.915,0.008
39.920,-0.006
39.925,-0.046
39.930,-0.065
39.935,-0.056
39.940,-0.081
39.945,-0.061
39.950,0.001
39.955,-0.037
39.960,-0.106
39.965,-0.123
39.970,-0.118
39.975,-0.118
39.980,-0.149
39.985,-0.171
39.990,-0.167
39.995,-0.220
40.000,-0.279
40.005,-0.234
40.010,-0.170
40.015,-0.149
40.020,-0.161
40.025,-0.185
40.030,-0.166
40.035,-0.104
40.040,-0.013
40.045,0.081
40.050,0.103
40.055,0.072
40.060,0.067
40.065,0.087
40.070,0.102
40.075,0.072
40.080,0.026
40.085,0.048
40.090,0.097
40.095,0.070
40.100,0.047
40.105,0.140
40.110,0.201
40.115,0.126
40.120,0.056
40.125,0.066
40.130,0.103
40.135,0.125
40.140,0.104
40.145,0.074
40.150,0.087
40.155,0.086
40.160,0.080
40.165,0.119
40.170,0.119
40.175,0.058
40.180,0.036
40.185,0.034
40.190,0.015
40.195,0.056
40.200,0.080
40.205,0.054
40.210,0.098
40.215,0.103
40.220,0.028
40.225,-0.014
40.230,-0.053
40.235,-0.021
40.240,0.083
40.245,0.095
40.250,0.041
40.255,-0.026
40.260,-0.139
40.265,-0.202
40.270,-0.051
40.275,0.134
40.280,0.113
40.285,0.029
40.290,0.000
40.295,0.035
40.300,0.067
40.305,-0.006
40.310,-0.051
40.315,-0.046
40.320,-0.149
40.325,-0.248
40.330,-0.133
40.335,0.059
40.340,0.111
40.345,0.054
40.350,-0.019
40.355,-0.039
40.360,-0.040
40.365,-0.090
40.370,-0.129
40.375,-0.130
40.380,-0.119
40.385,-0.119
40.390,-0.111
40.395,-0.074
40.400,-0.070
40.405,-0.101
40.410,-0.078
40.415,-0.016
40.420,-0.005
40.425,-0.030
40.430,-0.004
40.435,0.062
40.440,0.088
40.445,0.066
40.450,0.031
40.455,0.034
40.460,0.067
40.465,0.053
40.470,-0.016
40.475,-0.049
40.480,0.001
40.485,0.081
40.490,0.116
40.495,0.083
40.500,0.055
40.505,0.089
40.510,0.112
40.515,0.068
40.520,-0.041
40.525,-0.297
40.530,-0.706
40.535,-1.031
40.540,-1.009
40.545,-0.585
40.550,0.029
40.555,0.431
40.560,0.484
40.565,0.442
40.570,0.447
40.575,0.491
40.580,0.492
40.585,0.372
40.590,0.230
40.595,0.121
40.600,0.059
40.605,0.056
40.610,0.068
40.615,0.101
40.620,0.133
40.625,0.139
40.630,0.092
40.635,-0.030
40.640,-0.114
40.645,-0.062
40.650,0.035
40.655,0.099
40.660,0.111
40.665,0.040
40.670,0.004
40.675,0.040
40.680,0.033
40.685,0.001
40.690,-0.004
40.695,-0.008
40.700,-0.052
40.705,-0.167
40.710,-0.256
40.715,-0.137
40.720,0.107
40.725,0.202
40.730,0.136
40.735,0.045
40.740,-0.021
40.745,-0.040
40.750,-0.046
40.755,-0.054
40.760,-0.045
40.765,-0.069
40.770,-0.120
40.775,-0.178
40.780,-0.264
40.785,-0.244
40.790,-0.114
40.795,-0.083
40.800,-0.158
40.805,-0.235
40.810,-0.250
40.815,-0.208
40.820,-0.184
40.825,-0.167
40.830,-0.127
40.835,-0.094
40.840,-0.057
40.845,-0.007
40.850,0.002
40.855,-0.026
40.860,0.013
40.865,0.104
40.870,0.118
40.875,0.049
40.880,0.009
40.885,0.079
40.890,0.148
40.895,0.122
40.900,0.074
40.905,0.090
40.910,0.155
40.915,0.173
40.920,0.114
40.925,0.064
40.930,0.066
40.935,0.088
40.940,0.094
40.945,0.073
40.950,0.033
40.955,0.041
40.960,0.095
40.965,0.129
40.970,0.127
40.975,0.104
40.980,0.102
40.985,0.091
40.990,0.061
40.995,0.053
41.000,0.057
41.005,0.066
41.010,0.077
41.015,0.061
41.020,0.020
41.025,-0.002
41.030,-0.014
41.035,0.006
41.040,0.044
41.045,0.049
41.050,0.060
41.055,0.043
41.060,-0.016
41.065,-0.045
41.070,-0.038
41.075,-0.021
41.080,-0.001
41.085,0.036
41.090,0.049
41.095,0.000
41.100,-0.048
41.105,-0.040
41.110,-0.008
41.115,-0.024
41.120,-0.064
41.125,-0.055
41.130,0.005
41.135,0.037
41.140,0.004
41.145,-0.061
41.150,-0.118
41.155,-0.103
41.160,-0.042
41.165,-0.031
41.170,-0.076
41.175,-0.141
41.180,-0.141
41.185,-0.081
41.190,-0.068
41.195,-0.071
41.200,-0.050
41.205,-0.030
41.210,-0.042
41.215,-0.094
41.220,-0.085
41.225,-0.022
41.230,0.011
41.235,0.019
41.240,0.015
41.245,0.062
41.250,0.103
41.255,0.055
41.260,0.040
41.265,0.057
41.270,0.050
41.275,0.055
41.280,0.024
41.285,-0.019
41.290,0.020
41.295,0.079
41.300,0.052
41.305,0.026
41.310,0.085
41.315,0.144
41.320,0.093
41.325,-0.113
41.330,-0.454
41.335,-0.821
41.340,-1.038
41.345,-0.904
41.350,-0.348
41.355,0.241
41.360,0.426
41.365,0.390
41.370,0.408
41.375,0.454
41.380,0.502
41.385,0.485
41.390,0.363
41.395,0.222
41.400,0.101
41.405,0.082
41.410,0.148
41.415,0.115
41.420,0.031
41.425,0.023
41.430,0.014
41.435,0.005
41.440,0.059
41.445,0.102
41.450,0.072
41.455,0.006
41.460,-0.016
41.465,0.025
41.470,0.025
41.475,-0.025
41.480,-0.007
41.485,0.038
41.490,0.033
41.495,0.014
41.500,-0.041
41.505,-0.093
41.510,-0.046
41.515,0.036
41.520,0.061
41.525,0.037
41.530,-0.003
41.535,-0.059
41.540,-0.127
41.545,-0.113
41.550,0.002
41.555,0.052
41.560,-0.009
41.565,-0.087
41.570,-0.119
41.575,-0.106
41.580,-0.128
41.585,-0.182
41.590,-0.182
41.595,-0.168
41.600,-0.178
41.605,-0.174
41.610,-0.237
41.615,-0.303
41.620,-0.216
41.625,-0.131
41.630,-0.132
41.635,-0.129
41.640,-0.100
41.645,-0.076
41.650,-0.075
41.655,-0.058
41.660,-0.002
41.665,0.084
41.670,0.115
41.675,0.106
41.680,0.146
41.685,0.143
41.690,0.102
41.695,0.087
41.700,0.059
41.705,0.062
41.710,0.086
41.715,0.082
41.720,0.092
41.725,0.104
41.730,0.092
41.735,0.084
41.740,0.090
41.745,0.097
41.750,0.116
41.755,0.123
41.760,0.086
41.765,0.055
41.770,0.056
41.775,0.068
41.780,0.065
41.785,0.083
41.790,0.121
41.795,0.122
41.800,0.088
41.805,0.034
41.810,0.040
41.815,0.082
41.820,0.044
41.825,0.008
41.830,-0.006
41.835,-0.035
41.840,-0.013
41.845,0.004
41.850,-0.013
41.855,0.048
41.860,0.090
41.865,0.037
41.870,-0.033
41.875,-0.083
41.880,-0.010
41.885,0.069
41.890,-0.013
41.895,-0.070
41.900,-0.009
41.905,0.021
41.910,-0.016
41.915,-0.041
41.920,-0.060
41.925,-0.030
41.930,0.053
41.935,0.043
41.940,-0.028
41.945,-0.091
41.950,-0.122
41.955,-0.062
41.960,0.010
41.965,0.015
41.970,-0.020
41.975,-0.079
41.980,-0.146
41.985,-0.145
41.990,-0.081
41.995,-0.056
42.000,-0.108
42.005,-0.152
42.010,-0.115
42.015,-0.064
42.020,-0.018
42.025,0.012
42.030,-0.037
42.035,-0.098
42.040,-0.088
42.045,-0.022
42.050,0.042
42.055,0.058
42.060,0.052
42.065,0.076
42.070,0.079
42.075,0.000
42.080,-0.038
42.085,0.044
42.090,0.095
42.095,0.075
42.100,0.062
42.105,0.042
42.110,0.030
42.115,0.015
42.120,0.019
42.125,0.114
42.130,0.173
42.135,0.080
42.140,-0.084
42.145,-0.347
42.150,-0.722
42.155,-0.966
42.160,-0.921
42.165,-0.541
42.170,0.028
42.175,0.367
42.180,0.398
42.185,0.333
42.190,0.331
42.195,0.483
42.200,0.587
42.205,0.454
42.210,0.225
42.215,0.077
42.220,0.069
42.225,0.142
42.230,0.172
42.235,0.147
42.240,0.086
42.245,0.002
42.250,-0.009
42.255,0.033
42.260,0.026
42.265,0.008
42.270,0.020
42.275,0.057
42.280,0.095
42.285,0.033
42.290,-0.077
42.295,-0.068
42.300,0.034
42.305,0.074
42.310,0.007
42.315,-0.070
42.320,-0.033
42.325,0.051
42.330,0.015
42.335,-0.049
42.340,-0.024
42.345,0.015
42.350,0.012
42.355,-0.029
42.360,-0.070
42.365,-0.084
42.370,-0.072
42.375,-0.050
42.380,-0.064
42.385,-0.115
42.390,-0.096
42.395,-0.019
42.400,-0.049
42.405,-0.162
42.410,-0.216
42.415,-0.199
42.420,-0.211
42.425,-0.269
42.430,-0.261
42.435,-0.193
42.440,-0.144
42.445,-0.120
42.450,-0.111
42.455,-0.092
42.460,-0.055
42.465,-0.012
42.470,0.020
42.475,0.033
42.480,0.047
42.485,0.073
42.490,0.089
42.495,0.088
42.500,0.094
42.505,0.105
42.510,0.104
42.515,0.100
42.520,0.098
42.525,0.097
42.530,0.096
42.535,0.100
42.540,0.100
42.545,0.094
42.550,0.093
42.555,0.094
42.560,0.094
42.565,0.090
42.570,0.086
42.575,0.088
42.580,0.090
42.585,0.093
42.590,0.086
42.595,0.074
42.600,0.069
42.605,0.068
42.610,0.067
42.615,0.062
42.620,0.050
42.625,0.041
42.630,0.045
42.635,0.042
42.640,0.028
42.645,0.019
42.650,0.019
42.655,0.023
42.660,0.015
42.665,0.003
42.670,-0.004
42.675,-0.005
42.680,-0.001
42.685,0.002
42.690,-0.002
42.695,-0.007
42.700,-0.013
42.705,-0.012
42.710,-0.010
42.715,-0.020
42.720,-0.027
42.725,-0.020
42.730,-0.015
42.735,-0.016
42.740,-0.024
42.745,-0.031
42.750,-0.026
42.755,-0.015
42.760,-0.018
42.765,-0.030
42.770,-0.042
42.775,-0.052
42.780,-0.057
42.785,-0.064
42.790,-0.070
42.795,-0.075
42.800,-0.086
42.805,-0.090
42.810,-0.087
42.815,-0.087
42.820,-0.100
42.825,-0.127
42.830,-0.131
42.835,-0.106
42.840,-0.079
42.845,-0.062
42.850,-0.067
42.855,-0.078
42.860,-0.061
42.865,-0.035
42.870,-0.011
42.875,0.017
42.880,0.035
42.885,0.041
42.890,0.032
42.895,0.026
42.900,0.036
42.905,0.039
42.910,0.032
42.915,0.024
42.920,0.032
42.925,0.053
42.930,0.048
42.935,0.025
42.940,0.011
42.945,0.021
42.950,0.074
42.955,0.124
42.960,0.092
42.965,-0.054
42.970,-0.355
42.975,-0.762
42.980,-1.045
42.985,-0.950
42.990,-0.477
42.995,0.085
43.000,0.411
43.005,0.450
43.010,0.419
43.015,0.438
43.020,0.479
43.025,0.467
43.030,0.369
43.035,0.243
43.040,0.160
43.045,0.131
43.050,0.108
43.055,0.084
43.060,0.068
43.065,0.063
43.070,0.056
43.075,0.038
43.080,0.030
43.085,0.038
43.090,0.042
43.095,0.026
43.100,0.008
43.105,0.015
43.110,0.024
43.115,0.014
43.120,0.012
43.125,0.012
43.130,0.010
43.135,0.013
43.140,0.012
43.145,0.017
43.150,0.024
43.155,0.018
43.160,0.014
43.165,0.015
43.170,0.013
43.175,0.007
43.180,0.001
43.185,0.000
43.190,-0.006
43.195,-0.019
43.200,-0.022
43.205,-0.030
43.210,-0.044
43.215,-0.056
43.220,-0.079
43.225,-0.100
43.230,-0.123
43.235,-0.151
43.240,-0.164
43.245,-0.173
43.250,-0.187
43.255,-0.189
43.260,-0.192
43.265,-0.192
43.270,-0.164
43.275,-0.121
43.280,-0.081
43.285,-0.046
43.290,-0.019
43.295,0.011
43.300,0.031
43.305,0.044
43.310,0.066
43.315,0.076
43.320,0.072
43.325,0.083
43.330,0.099
43.335,0.098
43.340,0.099
43.345,0.093
43.350,0.082
43.355,0.086
43.360,0.087
43.365,0.092
43.370,0.102
43.375,0.096
43.380,0.091
43.385,0.093
43.390,0.088
43.395,0.071
43.400,0.058
43.405,0.059
43.410,0.063
43.415,0.072
43.420,0.077
43.425,0.063
43.430,0.058
43.435,0.048
43.440,0.031
43.445,0.034
43.450,0.040
43.455,0.032
43.460,0.018
43.465,0.013
43.470,0.012
43.475,0.014
43.480,0.013
43.485,-0.008
43.490,-0.013
43.495,0.007
43.500,0.010
43.505,0.001
43.510,-0.008
43.515,-0.022
43.520,-0.023
43.525,-0.011
43.530,-0.007
43.535,0.001
43.540,0.000
43.545,-0.023
43.550,-0.032
43.555,-0.029
43.560,-0.022
43.565,-0.008
43.570,-0.005
43.575,-0.013
43.580,-0.022
43.585,-0.029
43.590,-0.037
43.595,-0.042
43.600,-0.049
43.605,-0.066
43.610,-0.074
43.615,-0.070
43.620,-0.072
43.625,-0.082
43.630,-0.097
43.635,-0.104
43.640,-0.102
43.645,-0.120
43.650,-0.135
43.655,-0.109
43.660,-0.068
43.665,-0.055
43.670,-0.071
43.675,-0.081
43.680,-0.068
43.685,-0.033
43.690,0.005
43.695,0.027
43.700,0.035
43.705,0.030
43.710,0.027
43.715,0.042
43.720,0.051
43.725,0.042
43.730,0.038
43.735,0.035
43.740,0.028
43.745,0.030
43.750,0.034
43.755,0.030
43.760,0.029
43.765,0.050
43.770,0.119
43.775,0.172
43.780,0.108
43.785,-0.090
43.790,-0.448
43.795,-0.864
43.800,-1.041
43.805,-0.767
43.810,-0.152
43.815,0.363
43.820,0.494
43.825,0.405
43.830,0.356
43.835,0.422
43.840,0.466
43.845,0.411
43.850,0.312
43.855,0.209
43.860,0.137
43.865,0.096
43.870,0.074
43.875,0.066
43.880,0.052
43.885,0.031
43.890,0.021
43.895,0.013
43.900,0.004
43.905,0.004
43.910,0.005
43.915,0.011
43.920,0.009
43.925,-0.007
43.930,-0.010
43.935,-0.005
43.940,-0.002
43.945,-0.001
43.950,-0.008
43.955,-0.013
43.960,-0.014
43.965,-0.025
43.970,-0.027
43.975,-0.018
43.980,-0.016
43.985,-0.016
43.990,-0.017
43.995,-0.021
44.000,-0.026
44.005,-0.029
44.010,-0.032
44.015,-0.037
44.020,-0.050
44.025,-0.071
44.030,-0.085
44.035,-0.093
44.040,-0.109
44.045,-0.126
44.050,-0.143
44.055,-0.154
44.060,-0.158
44.065,-0.174
44.070,-0.191
44.075,-0.190
44.080,-0.172
44.085,-0.148
44.090,-0.117
44.095,-0.083
44.100,-0.058
44.105,-0.034
44.110,-0.002
44.115,0.024
44.120,0.043
44.125,0.063
44.130,0.080
44.135,0.090
44.140,0.092
44.145,0.098
44.150,0.110
44.155,0.117
44.160,0.116
44.165,0.118
44.170,0.119
44.175,0.116
44.180,0.112
44.185,0.108
44.190,0.108
44.195,0.106
44.200,0.103
44.205,0.107
44.210,0.105
44.215,0.094
44.220,0.087
44.225,0.088
44.230,0.089
44.235,0.081
44.240,0.071
44.245,0.069
44.250,0.067
44.255,0.055
44.260,0.043
44.265,0.038
44.270,0.037
44.275,0.032
44.280,0.022
44.285,0.017
44.290,0.016
44.295,0.011
44.300,0.005
44.305,0.007
44.310,0.009
44.315,0.009
44.320,0.006
44.325,0.005
44.330,0.007
44.335,0.007
44.340,0.002
44.345,0.000
44.350,0.000
44.355,0.000
44.360,0.003
44.365,0.001
44.370,-0.004
44.375,-0.009
44.380,-0.012
44.385,-0.011
44.390,-0.014
44.395,-0.015
44.400,-0.007
44.405,-0.004
44.410,-0.008
44.415,-0.015
44.420,-0.028
44.425,-0.042
44.430,-0.055
44.435,-0.063
44.440,-0.064
44.445,-0.061
44.450,-0.066
44.455,-0.078
44.460,-0.090
44.465,-0.103
44.470,-0.114
44.475,-0.108
44.480,-0.087
44.485,-0.059
44.490,-0.039
44.495,-0.041
44.500,-0.048
44.505,-0.044
44.510,-0.029
44.515,0.001
44.520,0.031
44.525,0.043
44.530,0.041
44.535,0.037
44.540,0.038
44.545,0.044
44.550,0.046
44.555,0.047
44.560,0.048
44.565,0.044
44.570,0.039
44.575,0.042
44.580,0.043
44.585,0.036
44.590,0.054
44.595,0.115
44.600,0.132
44.605,0.043
44.610,-0.157
44.615,-0.518
44.620,-0.931
44.625,-1.114
44.630,-0.885
44.635,-0.295
44.640,0.270
44.645,0.479
44.650,0.462
44.655,0.440
44.660,0.463
44.665,0.482
44.670,0.424
44.675,0.309
44.680,0.213
44.685,0.154
44.690,0.118
44.695,0.104
44.700,0.092
44.705,0.068
44.710,0.053
44.715,0.042
44.720,0.024
44.725,0.022
44.730,0.032
44.735,0.032
44.740,0.023
44.745,0.015
44.750,0.008
44.755,0.001
44.760,-0.004
44.765,-0.004
44.770,0.007
44.775,0.010
44.780,-0.001
44.785,-0.004
44.790,-0.002
44.795,-0.006
44.800,-0.014
44.805,-0.022
44.810,-0.021
44.815,-0.009
44.820,-0.008
44.825,-0.020
44.830,-0.030
44.835,-0.040
44.840,-0.047
44.845,-0.053
44.850,-0.065
44.855,-0.080
44.860,-0.100
44.865,-0.122
44.870,-0.145
44.875,-0.162
44.880,-0.174
44.885,-0.189
44.890,-0.202
44.895,-0.211
44.900,-0.217
44.905,-0.214
44.910,-0.191
44.915,-0.149
44.920,-0.108
44.925,-0.080
44.930,-0.058
44.935,-0.028
44.940,0.004
44.945,0.028
44.950,0.048
44.955,0.068
44.960,0.087
44.965,0.103
44.970,0.108
44.975,0.103
44.980,0.086
44.985,0.076
44.990,0.084
44.995,0.093
45.000,0.097
45.005,0.101
45.010,0.103
45.015,0.102
45.020,0.100
45.025,0.104
45.030,0.105
45.035,0.091
45.040,0.076
45.045,0.080
45.050,0.093
45.055,0.094
45.060,0.088
45.065,0.083
45.070,0.080
45.075,0.073
45.080,0.063
45.085,0.068
45.090,0.068
45.095,0.050
45.100,0.028
45.105,0.020
45.110,0.029
45.115,0.036
45.120,0.036
45.125,0.030
45.130,0.018
45.135,0.007
45.140,-0.001
45.145,0.000
45.150,0.006
45.155,0.004
45.160,-0.002
45.165,-0.004
45.170,-0.006
45.175,-0.010
45.180,-0.015
45.185,-0.019
45.190,-0.022
45.195,-0.020
45.200,-0.018
45.205,-0.016
45.210,-0.011
45.215,-0.014
45.220,-0.017
45.225,-0.012
45.230,-0.016
45.235,-0.030
45.240,-0.045
45.245,-0.054
45.250,-0.055
45.255,-0.061
45.260,-0.068
45.265,-0.073
45.270,-0.075
45.275,-0.074
45.280,-0.081
45.285,-0.095
45.290,-0.109
45.295,-0.116
45.300,-0.102
45.305,-0.071
