'Elapsed time','ECG'
'seconds','mV'
0.000,-0.337
0.005,-1.572
0.010,-1.668
0.015,-1.418
0.020,-1.203
0.025,-1.235
0.030,-1.398
0.035,-1.083
0.040,-1.029
0.045,-1.181
0.050,-0.960
0.055,-0.820
0.060,-0.932
0.065,-0.900
0.070,-0.787
0.075,-0.752
0.080,-0.723
0.085,-0.663
0.090,-0.629
0.095,-0.628
0.100,-0.598
0.105,-0.541
0.110,-0.518
0.115,-0.509
0.120,-0.461
0.125,-0.419
0.130,-0.391
0.135,-0.344
0.140,-0.323
0.145,-0.310
0.150,-0.262
0.155,-0.233
0.160,-0.232
0.165,-0.209
0.170,-0.181
0.175,-0.190
0.180,-0.230
0.185,-0.261
0.190,-0.262
0.195,-0.225
0.200,-0.154
0.205,-0.069
0.210,0.013
0.215,0.064
0.220,0.066
0.225,0.035
0.230,0.008
0.235,0.015
0.240,0.046
0.245,0.079
0.250,0.108
0.255,0.124
0.260,0.125
0.265,0.134
0.270,0.167
0.275,0.209
0.280,0.229
0.285,0.230
0.290,0.232
0.295,0.236
0.300,0.250
0.305,0.276
0.310,0.298
0.315,0.312
0.320,0.304
0.325,0.281
0.330,0.259
0.335,0.250
0.340,0.251
0.345,0.247
0.350,0.249
0.355,0.256
0.360,0.253
0.365,0.256
0.370,0.278
0.375,0.300
0.380,0.293
0.385,0.267
0.390,0.260
0.395,0.265
0.400,0.262
0.405,0.266
0.410,0.282
0.415,0.298
0.420,0.312
0.425,0.332
0.430,0.337
0.435,0.298
0.440,0.223
0.445,0.159
0.450,0.124
0.455,0.083
0.460,0.025
0.465,-0.015
0.470,-0.020
0.475,-0.005
0.480,0.009
0.485,0.021
0.490,0.030
0.495,0.036
0.500,0.036
0.505,0.039
0.510,0.062
0.515,0.091
0.520,0.104
0.525,0.091
0.530,0.069
0.535,0.067
0.540,0.082
0.545,0.091
0.550,0.089
0.555,0.081
0.560,0.063
0.565,0.047
0.570,0.036
0.575,0.026
0.580,0.028
0.585,0.048
0.590,0.072
0.595,0.084
0.600,0.079
0.605,0.070
0.610,0.065
0.615,0.069
0.620,0.076
0.625,0.079
0.630,0.080
0.635,0.092
0.640,0.109
0.645,0.117
0.650,0.117
0.655,0.123
0.660,0.138
0.665,0.155
0.670,0.162
0.675,0.151
0.680,0.135
0.685,0.130
0.690,0.128
0.695,0.136
0.700,0.149
0.705,0.152
0.710,0.143
0.715,0.126
0.720,0.115
0.725,0.107
0.730,0.079
0.735,0.041
0.740,0.024
0.745,0.037
0.750,0.071
0.755,0.091
0.760,0.080
0.765,0.060
0.770,0.045
0.775,0.038
0.780,0.039
0.785,0.041
0.790,0.043
0.795,0.051
0.800,0.064
0.805,0.071
0.810,0.060
0.815,0.042
0.820,0.037
0.825,0.043
0.830,0.054
0.835,0.060
0.840,0.059
0.845,0.059
0.850,0.062
0.855,0.063
0.860,0.041
0.865,-0.001
0.870,-0.032
0.875,-0.045
0.880,-0.048
0.885,-0.034
0.890,-0.008
0.895,0.031
0.900,0.064
0.905,0.055
0.910,0.024
0.915,0.001
0.920,-0.017
0.925,-0.031
0.930,-0.034
0.935,-0.022
0.940,-0.005
0.945,-0.010
0.950,-0.035
0.955,-0.055
0.960,-0.055
0.965,-0.037
0.970,-0.006
0.975,0.024
0.980,0.037
0.985,0.023
0.990,-0.006
0.995,-0.038
1.000,-0.059
1.005,-0.063
1.010,-0.051
1.015,-0.029
1.020,-0.006
1.025,-0.002
1.030,-0.020
1.035,-0.035
1.040,-0.040
1.045,-0.038
1.050,-0.024
1.055,-0.011
1.060,-0.006
1.065,0.000
1.070,0.004
1.075,-0.002
1.080,-0.016
1.085,-0.030
1.090,-0.033
1.095,-0.029
1.100,-0.020
1.105,-0.010
1.110,-0.010
1.115,-0.021
1.120,-0.035
1.125,-0.044
1.130,-0.047
1.135,-0.039
1.140,-0.019
1.145,-0.003
1.150,-0.001
1.155,-0.009
1.160,-0.021
1.165,-0.024
1.170,-0.013
1.175,0.007
1.180,0.023
1.185,0.023
1.190,0.010
1.195,-0.003
1.200,-0.002
1.205,0.012
1.210,0.022
1.215,0.025
1.220,0.031
1.225,0.037
1.230,0.031
1.235,0.014
1.240,0.000
1.245,-0.004
1.250,0.003
1.255,0.007
1.260,-0.002
1.265,-0.013
1.270,-0.015
1.275,-0.012
1.280,-0.006
1.285,0.007
1.290,0.015
1.295,0.012
1.300,0.010
1.305,0.007
1.310,-0.005
1.315,-0.017
1.320,-0.031
1.325,-0.044
1.330,-0.044
1.335,-0.032
1.340,-0.014
1.345,-0.002
1.350,0.001
1.355,-0.002
1.360,-0.004
1.365,-0.002
1.370,-0.002
1.375,-0.003
1.380,-0.001
1.385,0.001
1.390,-0.004
1.395,-0.013
1.400,-0.018
1.405,-0.014
1.410,-0.006
1.415,0.004
1.420,0.016
1.425,0.017
1.430,0.005
1.435,-0.004
1.440,-0.006
1.445,-0.005
1.450,-0.004
1.455,-0.005
1.460,-0.004
1.465,-0.004
1.470,-0.001
1.475,0.000
1.480,-0.004
1.485,0.001
1.490,0.009
1.495,0.011
1.500,0.006
1.505,-0.003
1.510,-0.008
1.515,-0.003
1.520,0.007
1.525,0.014
1.530,0.012
1.535,0.007
1.540,0.011
1.545,0.015
1.550,0.023
1.555,0.039
1.560,0.049
1.565,0.051
1.570,0.042
1.575,0.025
1.580,0.010
1.585,-0.009
1.590,-0.027
1.595,-0.035
1.600,-0.027
1.605,-0.001
1.610,0.018
1.615,0.021
1.620,0.013
1.625,-0.003
1.630,-0.013
1.635,-0.013
1.640,-0.010
1.645,-0.004
1.650,0.004
1.655,0.003
1.660,-0.003
1.665,-0.008
1.670,-0.015
1.675,-0.021
1.680,-0.019
1.685,0.001
1.690,0.017
1.695,0.012
1.700,0.002
1.705,-0.004
1.710,-0.012
1.715,-0.009
1.720,-0.006
1.725,-0.005
1.730,0.004
1.735,-0.001
1.740,0.011
1.745,0.029
1.750,0.016
1.755,0.000
1.760,-0.013
1.765,-0.051
1.770,-0.067
1.775,-0.032
1.780,0.020
1.785,0.046
1.790,0.024
1.795,-0.023
1.800,-0.040
1.805,-0.026
1.810,-0.027
1.815,-0.015
1.820,0.015
1.825,0.012
1.830,-0.005
1.835,-0.011
1.840,-0.003
1.845,0.015
1.850,0.015
1.855,-0.005
1.860,-0.023
1.865,-0.023
1.870,-0.005
1.875,0.013
1.880,0.018
1.885,0.012
1.890,-0.003
1.895,-0.017
1.900,-0.019
1.905,-0.019
1.910,-0.014
1.915,0.002
1.920,0.016
1.925,0.024
1.930,0.024
1.935,0.016
1.940,0.009
1.945,0.001
1.950,0.001
1.955,0.008
1.960,0.013
1.965,0.012
1.970,0.009
1.975,0.000
1.980,-0.014
1.985,-0.013
1.990,-0.008
1.995,-0.012
2.000,-0.010
2.005,-0.018
2.010,-0.031
2.015,-0.012
2.020,0.043
2.025,0.104
2.030,0.129
2.035,0.090
2.040,-0.016
2.045,-0.153
2.050,-0.242
2.055,-0.199
2.060,-0.026
2.065,0.161
2.070,0.237
2.075,0.180
2.080,0.042
2.085,-0.100
2.090,-0.174
2.095,-0.143
2.100,-0.033
2.105,0.081
2.110,0.135
2.115,0.113
2.120,0.037
2.125,-0.041
2.130,-0.077
2.135,-0.048
2.140,0.021
2.145,0.078
2.150,0.091
2.155,0.043
2.160,-0.036
2.165,-0.087
2.170,-0.080
2.175,-0.027
2.180,0.026
2.185,0.059
2.190,0.064
2.195,0.025
2.200,-0.031
2.205,-0.060
2.210,-0.042
2.215,0.003
2.220,0.032
2.225,0.022
2.230,-0.005
2.235,-0.027
2.240,-0.039
2.245,-0.036
2.250,-0.018
2.255,0.009
2.260,0.028
2.265,0.016
2.270,-0.007
2.275,-0.020
2.280,-0.026
2.285,-0.013
2.290,0.010
2.295,0.025
2.300,0.031
2.305,0.019
2.310,-0.013
2.315,-0.038
2.320,-0.036
2.325,-0.014
2.330,0.011
2.335,0.020
2.340,0.011
2.345,-0.007
2.350,-0.020
2.355,-0.023
2.360,-0.015
2.365,-0.001
2.370,0.008
2.375,0.011
2.380,0.011
2.385,0.005
2.390,-0.006
2.395,-0.014
2.400,-0.008
2.405,0.002
2.410,0.003
2.415,0.000
2.420,0.005
2.425,0.009
2.430,0.007
2.435,0.004
2.440,0.000
2.445,0.000
2.450,0.006
2.455,0.010
2.460,0.008
2.465,0.005
2.470,0.006
2.475,0.006
2.480,0.007
2.485,0.009
2.490,0.001
2.495,-0.009
2.500,-0.011
2.505,-0.009
2.510,-0.001
2.515,0.005
2.520,0.002
2.525,0.000
2.530,0.004
2.535,0.011
2.540,0.014
2.545,0.006
2.550,-0.003
2.555,-0.006
2.560,-0.008
2.565,-0.005
2.570,-0.004
2.575,-0.005
2.580,-0.001
2.585,0.004
2.590,0.010
2.595,0.010
2.600,0.003
2.605,0.004
2.610,0.002
2.615,-0.003
2.620,0.004
2.625,0.007
2.630,0.000
2.635,-0.004
2.640,0.001
2.645,0.009
2.650,0.008
2.655,-0.005
2.660,-0.012
2.665,-0.009
2.670,-0.004
2.675,-0.005
2.680,-0.006
2.685,-0.006
2.690,-0.015
2.695,-0.017
2.700,-0.004
2.705,0.006
2.710,0.007
2.715,0.003
2.720,0.003
2.725,0.004
2.730,-0.005
2.735,-0.011
2.740,-0.005
2.745,-0.001
2.750,0.001
2.755,0.004
2.760,-0.001
2.765,-0.003
2.770,0.002
2.775,0.004
2.780,0.005
2.785,0.003
2.790,0.002
2.795,0.002
2.800,0.001
2.805,-0.004
2.810,-0.012
2.815,-0.013
2.820,-0.008
2.825,-0.005
2.830,0.002
2.835,0.008
2.840,0.005
2.845,-0.001
2.850,-0.001
2.855,0.006
2.860,0.010
2.865,0.004
2.870,0.001
2.875,0.000
2.880,-0.002
2.885,0.004
2.890,0.010
2.895,0.011
2.900,0.008
2.905,0.000
2.910,-0.001
2.915,0.010
2.920,0.013
2.925,0.010
2.930,0.008
2.935,0.010
2.940,0.009
2.945,-0.004
2.950,-0.009
2.955,-0.001
2.960,0.005
2.965,0.007
2.970,-0.001
2.975,-0.011
2.980,-0.011
2.985,-0.006
2.990,-0.001
2.995,-0.001
3.000,-0.007
3.005,-0.008
3.010,-0.011
3.015,-0.015
3.020,-0.010
3.025,-0.006
3.030,-0.009
3.035,-0.010
3.040,-0.010
3.045,-0.009
3.050,-0.004
3.055,0.001
3.060,0.004
3.065,0.006
3.070,0.007
3.075,0.003
3.080,-0.006
3.085,-0.013
3.090,-0.012
3.095,-0.009
3.100,-0.004
3.105,-0.003
3.110,-0.012
3.115,-0.017
3.120,-0.010
3.125,-0.002
3.130,0.002
3.135,0.004
3.140,0.008
3.145,0.007
3.150,0.002
3.155,-0.001
3.160,0.003
3.165,0.016
3.170,0.025
3.175,0.024
3.180,0.008
3.185,-0.015
3.190,-0.024
3.195,-0.017
3.200,0.000
3.205,0.017
3.210,0.016
3.215,0.009
3.220,0.003
3.225,-0.005
3.230,-0.005
3.235,-0.001
3.240,0.000
3.245,0.006
3.250,0.009
3.255,0.005
3.260,-0.001
3.265,-0.008
3.270,-0.015
3.275,-0.011
3.280,0.005
3.285,0.029
3.290,0.037
3.295,0.018
3.300,0.004
3.305,0.000
3.310,-0.007
3.315,-0.009
3.320,-0.004
3.325,0.005
3.330,0.005
3.335,-0.002
3.340,-0.007
3.345,-0.010
3.350,-0.007
3.355,-0.001
3.360,0.008
3.365,0.022
3.370,0.022
3.375,0.006
3.380,-0.003
3.385,0.002
3.390,0.015
3.395,0.017
3.400,0.006
3.405,0.000
3.410,0.000
3.415,-0.002
3.420,-0.005
3.425,-0.041
3.430,-0.132
3.435,-0.106
3.440,0.115
3.445,0.270
3.450,0.171
3.455,-0.096
3.460,-0.276
3.465,-0.249
3.470,-0.108
3.475,0.065
3.480,0.213
3.485,0.234
3.490,0.091
3.495,-0.073
3.500,-0.127
3.505,-0.103
3.510,-0.040
3.515,0.049
3.520,0.093
3.525,0.048
3.530,-0.039
3.535,-0.071
3.540,-0.035
3.545,0.009
3.550,0.037
3.555,0.055
3.560,0.057
3.565,0.040
3.570,0.003
3.575,-0.026
3.580,-0.021
3.585,-0.004
3.590,-0.001
3.595,-0.009
3.600,-0.014
3.605,-0.020
3.610,-0.023
3.615,-0.016
3.620,-0.005
3.625,0.008
3.630,0.021
3.635,0.027
3.640,0.016
3.645,-0.008
3.650,-0.021
3.655,-0.013
3.660,0.002
3.665,0.008
3.670,0.001
3.675,-0.019
3.680,-0.030
3.685,-0.021
3.690,-0.001
3.695,0.013
3.700,0.012
3.705,0.030
3.710,0.040
3.715,0.003
3.720,-0.049
3.725,-0.063
3.730,-0.024
3.735,0.024
3.740,0.038
3.745,0.015
3.750,-0.008
3.755,-0.011
3.760,-0.024
3.765,-0.035
3.770,-0.019
3.775,0.004
3.780,0.004
3.785,0.022
3.790,0.035
3.795,-0.019
3.800,-0.012
3.805,0.100
3.810,0.148
3.815,0.087
3.820,-0.006
3.825,-0.099
3.830,-0.120
3.835,-0.069
3.840,-0.001
3.845,0.078
3.850,0.088
3.855,0.016
3.860,-0.044
3.865,-0.060
3.870,-0.046
3.875,-0.008
3.880,0.028
3.885,0.045
3.890,0.041
3.895,0.019
3.900,-0.012
3.905,-0.030
3.910,-0.031
3.915,-0.020
3.920,0.005
3.925,0.026
3.930,0.010
3.935,-0.007
3.940,0.001
3.945,-0.019
3.950,-0.036
3.955,-0.018
3.960,0.013
3.965,0.051
3.970,0.071
3.975,0.065
3.980,0.059
3.985,0.014
3.990,-0.066
3.995,-0.078
4.000,-0.039
4.005,-0.024
4.010,0.002
4.015,0.017
4.020,-0.017
4.025,-0.037
4.030,-0.008
4.035,0.015
4.040,0.006
4.045,-0.005
4.050,-0.008
4.055,-0.012
4.060,-0.020
4.065,-0.025
4.070,-0.014
4.075,0.003
4.080,0.002
4.085,-0.012
4.090,-0.023
4.095,-0.021
4.100,-0.001
4.105,0.015
4.110,0.026
4.115,0.030
4.120,0.014
4.125,-0.008
4.130,-0.026
4.135,-0.030
4.140,-0.011
4.145,0.007
4.150,0.013
4.155,0.006
4.160,-0.007
4.165,-0.008
4.170,-0.005
4.175,-0.002
4.180,0.005
4.185,0.008
4.190,0.009
4.195,-0.002
4.200,-0.019
4.205,-0.024
4.210,-0.018
4.215,-0.002
4.220,0.013
4.225,0.010
4.230,-0.001
4.235,-0.008
4.240,-0.010
4.245,-0.005
4.250,0.002
4.255,0.007
4.260,0.010
4.265,0.004
4.270,-0.005
4.275,-0.011
4.280,-0.010
4.285,-0.003
4.290,0.005
4.295,0.010
4.300,0.009
4.305,0.001
4.310,-0.012
4.315,-0.015
4.320,-0.009
4.325,0.002
4.330,0.008
4.335,0.006
4.340,0.004
4.345,0.005
4.350,0.006
4.355,0.003
4.360,-0.004
4.365,-0.002
4.370,0.007
4.375,0.014
4.380,0.013
4.385,0.008
4.390,0.004
4.395,0.001
4.400,0.005
4.405,0.008
4.410,0.005
4.415,0.005
4.420,0.005
4.425,0.002
4.430,0.005
4.435,0.013
4.440,0.017
4.445,0.013
4.450,0.010
4.455,0.010
4.460,0.007
4.465,0.002
4.470,0.000
4.475,0.003
4.480,0.007
4.485,0.009
4.490,0.009
4.495,0.005
4.500,-0.002
4.505,-0.003
4.510,0.002
4.515,0.007
4.520,0.009
4.525,0.010
4.530,0.009
4.535,0.006
4.540,0.000
4.545,-0.010
4.550,-0.012
4.555,-0.009
4.560,-0.004
4.565,0.003
4.570,0.004
4.575,-0.001
4.580,-0.006
4.585,-0.006
4.590,0.000
4.595,-0.003
4.600,-0.009
4.605,-0.008
4.610,-0.004
4.615,0.002
4.620,0.006
4.625,0.002
4.630,-0.001
4.635,0.001
4.640,0.001
4.645,0.001
4.650,0.006
4.655,0.007
4.660,0.001
4.665,-0.003
4.670,0.000
4.675,0.003
4.680,0.002
4.685,0.000
4.690,-0.008
4.695,-0.019
4.700,-0.019
4.705,-0.011
4.710,-0.005
4.715,0.000
4.720,0.007
4.725,0.015
4.730,0.010
4.735,-0.006
4.740,-0.004
4.745,0.013
4.750,0.013
4.755,-0.011
4.760,-0.028
4.765,-0.010
4.770,0.018
4.775,0.022
4.780,0.014
4.785,0.009
4.790,-0.004
4.795,-0.032
4.800,-0.052
4.805,-0.034
4.810,0.003
4.815,0.031
4.820,0.048
4.825,0.038
4.830,0.013
4.835,-0.010
4.840,-0.027
4.845,-0.025
4.850,-0.005
4.855,0.006
4.860,0.005
4.865,0.004
4.870,0.009
4.875,-0.006
4.880,-0.041
4.885,-0.046
4.890,-0.007
4.895,0.037
4.900,0.051
4.905,0.030
4.910,-0.006
4.915,-0.035
4.920,-0.054
4.925,-0.049
4.930,-0.010
4.935,0.033
4.940,0.043
4.945,0.022
4.950,-0.009
4.955,-0.024
4.960,-0.009
4.965,0.021
4.970,0.032
4.975,0.009
4.980,-0.028
4.985,-0.046
4.990,-0.026
4.995,0.011
5.000,0.038
5.005,0.043
5.010,0.023
5.015,0.005
5.020,0.001
5.025,-0.010
5.030,-0.012
5.035,-0.005
5.040,0.001
5.045,0.007
5.050,0.000
5.055,-0.009
5.060,-0.007
5.065,-0.004
5.070,0.002
5.075,0.003
5.080,-0.004
5.085,-0.006
5.090,0.001
5.095,0.016
5.100,0.031
5.105,0.025
5.110,0.000
5.115,-0.029
5.120,-0.053
5.125,-0.040
5.130,-0.009
5.135,-0.008
5.140,0.003
5.145,0.042
5.150,0.068
5.155,0.057
5.160,-0.006
5.165,-0.071
5.170,-0.075
5.175,-0.044
5.180,-0.002
5.185,0.047
5.190,0.064
5.195,0.031
5.200,-0.015
5.205,-0.043
5.210,-0.050
5.215,-0.028
5.220,0.015
5.225,0.044
5.230,0.045
5.235,0.021
5.240,-0.014
5.245,-0.032
5.250,-0.024
5.255,-0.007
5.260,0.007
5.265,0.011
5.270,0.007
5.275,-0.005
5.280,-0.014
5.285,-0.005
5.290,0.002
5.295,0.003
5.300,0.008
5.305,0.003
5.310,-0.007
5.315,-0.009
5.320,-0.007
5.325,-0.007
5.330,-0.002
5.335,0.007
5.340,0.013
5.345,0.012
5.350,0.003
5.355,0.004
5.360,0.025
5.365,0.028
5.370,-0.072
5.375,-0.324
5.380,-0.653
5.385,-0.814
5.390,-0.516
5.395,0.096
5.400,0.628
5.405,0.919
5.410,0.540
5.415,-0.808
5.420,-1.897
5.425,-1.963
5.430,-1.759
5.435,-1.505
5.440,-1.102
5.445,-0.452
5.450,0.257
5.455,0.615
5.460,0.831
5.465,1.244
5.470,1.880
5.475,2.229
5.480,2.148
5.485,2.108
5.490,1.940
5.495,1.772
5.500,1.615
5.505,1.052
5.510,0.452
5.515,0.010
5.520,-0.229
5.525,-0.279
5.530,-0.546
5.535,-0.788
5.540,-0.666
5.545,-0.664
5.550,-1.031
5.555,-1.348
5.560,-1.357
5.565,-1.160
5.570,-0.897
5.575,-0.558
5.580,-0.159
5.585,0.056
5.590,0.249
5.595,0.380
5.600,0.356
5.605,0.574
5.610,0.949
5.615,1.428
5.620,1.574
5.625,1.157
5.630,0.945
5.635,0.986
5.640,0.882
5.645,0.730
5.650,0.544
5.655,0.184
5.660,-0.171
5.665,-0.260
5.670,-0.251
5.675,-0.335
5.680,-0.400
5.685,-0.613
5.690,-0.973
5.695,-1.130
5.700,-0.922
5.705,-0.447
5.710,-0.269
5.715,-0.441
5.720,-0.400
5.725,-0.099
5.730,0.029
5.735,-0.302
5.740,-0.633
5.745,-0.668
5.750,-0.765
5.755,-0.958
5.760,-0.770
5.765,-0.234
5.770,0.015
5.775,-0.130
5.780,-0.230
5.785,0.111
5.790,0.638
5.795,0.828
5.800,0.620
5.805,0.048
5.810,-0.427
5.815,-0.387
5.820,-0.414
5.825,-0.671
5.830,-0.539
5.835,-0.359
5.840,-0.396
5.845,-0.185
5.850,-0.003
5.855,0.027
5.860,-0.027
5.865,-0.460
5.870,-1.011
5.875,-1.289
5.880,-1.482
5.885,-1.317
5.890,-0.471
5.895,0.182
5.900,0.536
5.905,1.178
5.910,1.631
5.915,1.611
5.920,1.353
5.925,1.013
5.930,0.989
5.935,1.177
5.940,1.094
5.945,0.857
5.950,0.667
5.955,0.561
5.960,0.592
5.965,0.627
5.970,0.529
5.975,0.243
5.980,-0.107
5.985,-0.279
5.990,-0.345
5.995,-0.466
6.000,-0.620
6.005,-0.709
6.010,-0.476
6.015,-0.044
6.020,0.202
6.025,0.349
6.030,0.312
6.035,0.130
6.040,0.006
6.045,-0.142
6.050,-0.218
6.055,-0.492
6.060,-0.861
6.065,-1.049
6.070,-1.427
6.075,-1.862
6.080,-1.922
6.085,-1.191
6.090,-0.143
6.095,0.106
6.100,0.017
6.105,0.620
6.110,1.002
6.115,0.602
6.120,0.166
6.125,-0.443
6.130,-0.364
6.135,0.317
6.140,0.806
6.145,1.677
6.150,1.978
6.155,1.469
6.160,1.146
6.165,0.792
6.170,0.051
6.175,-0.495
6.180,-0.435
6.185,-0.353
6.190,-0.607
6.195,-0.512
6.200,0.085
6.205,0.323
6.210,0.310
6.215,0.170
6.220,-0.443
6.225,-0.523
6.230,0.089
6.235,0.236
6.240,-0.023
6.245,-0.304
6.250,-0.439
6.255,-0.706
6.260,-1.481
6.265,-1.930
6.270,-1.728
6.275,-1.516
6.280,-1.430
6.285,-1.341
6.290,-1.233
6.295,-1.234
6.300,-1.404
6.305,-1.382
6.310,-1.324
6.315,-1.551
6.320,-1.274
6.325,-0.357
6.330,0.340
6.335,0.926
6.340,1.505
6.345,1.312
6.350,0.760
6.355,0.555
6.360,0.535
6.365,0.775
6.370,0.808
6.375,0.425
6.380,0.398
6.385,0.419
6.390,-0.026
6.395,-0.214
6.400,-0.020
6.405,-0.092
6.410,-0.259
6.415,-0.208
6.420,-0.236
6.425,-0.115
6.430,0.239
6.435,0.501
6.440,0.816
6.445,0.818
6.450,0.493
6.455,0.616
6.460,0.916
6.465,1.032
6.470,1.611
6.475,2.219
6.480,2.087
6.485,1.671
6.490,1.291
6.495,0.764
6.500,-0.085
6.505,-0.790
6.510,-1.391
6.515,-1.854
6.520,-1.535
6.525,-0.959
6.530,-0.821
6.535,-1.151
6.540,-1.431
6.545,-1.080
6.550,-0.482
6.555,-0.528
6.560,-0.828
6.565,-0.593
6.570,-0.268
6.575,0.017
6.580,0.470
6.585,0.828
6.590,0.959
6.595,0.816
6.600,0.690
6.605,1.070
6.610,1.716
6.615,2.065
6.620,1.975
6.625,1.524
6.630,0.993
6.635,0.630
6.640,0.409
6.645,0.118
6.650,-0.089
6.655,0.020
6.660,0.073
6.665,-0.006
6.670,-0.184
6.675,-0.415
6.680,-0.269
6.685,0.136
6.690,0.434
6.695,0.658
6.700,0.773
6.705,0.799
6.710,0.818
6.715,0.677
6.720,0.412
6.725,0.168
6.730,0.013
6.735,0.254
6.740,0.841
6.745,0.196
6.750,-1.146
6.755,-0.847
6.760,0.590
6.765,1.798
6.770,1.701
6.775,0.736
6.780,0.485
6.785,0.805
6.790,0.900
6.795,0.890
6.800,0.831
6.805,0.246
6.810,-0.911
6.815,-2.107
6.820,-2.500
6.825,-2.126
6.830,-1.628
6.835,-1.247
6.840,-0.981
6.845,-0.598
6.850,-0.252
6.855,-0.373
6.860,-0.571
6.865,-0.619
6.870,-0.934
6.875,-1.201
6.880,-1.039
6.885,-0.728
6.890,-0.450
6.895,-0.264
6.900,-0.179
6.905,-0.153
6.910,-0.209
6.915,-0.382
6.920,-0.582
6.925,-0.735
6.930,-0.710
6.935,-0.534
6.940,-0.473
6.945,-0.342
6.950,-0.262
6.955,-0.415
6.960,-0.531
6.965,-0.634
6.970,-0.517
6.975,-0.262
6.980,-0.327
6.985,-0.349
6.990,-0.119
6.995,-0.110
7.000,-0.220
7.005,-0.107
7.010,-0.046
7.015,-0.168
7.020,-0.191
7.025,-0.078
7.030,-0.009
7.035,0.150
7.040,0.483
7.045,0.536
7.050,0.384
7.055,0.449
7.060,0.441
7.065,0.207
7.070,0.030
7.075,-0.015
7.080,0.040
7.085,0.043
7.090,-0.118
7.095,-0.238
7.100,-0.237
7.105,-0.204
7.110,-0.165
7.115,-0.146
7.120,-0.140
7.125,-0.047
7.130,0.054
7.135,-0.018
7.140,-0.186
7.145,-0.264
7.150,-0.130
7.155,0.151
7.160,0.437
7.165,0.710
7.170,1.035
7.175,1.235
7.180,0.838
7.185,-0.223
7.190,-1.274
7.195,-1.509
7.200,-1.049
7.205,-0.455
7.210,0.306
7.215,1.215
7.220,2.027
7.225,2.411
7.230,2.413
7.235,2.268
7.240,1.891
7.245,1.416
7.250,0.858
7.255,0.319
7.260,-0.312
7.265,-1.174
7.270,-1.738
7.275,-1.887
7.280,-1.661
7.285,-1.276
7.290,-1.013
7.295,-0.452
7.300,0.276
7.305,0.556
7.310,0.692
7.315,1.166
7.320,1.247
7.325,0.707
7.330,0.423
7.335,0.187
7.340,-0.210
7.345,-0.123
7.350,0.355
7.355,0.637
7.360,0.921
7.365,0.999
7.370,-0.053
7.375,-1.386
7.380,-1.888
7.385,-1.805
7.390,-1.324
7.395,-1.275
7.400,-1.507
7.405,-0.800
7.410,-0.167
7.415,-0.380
7.420,-0.295
7.425,-0.049
7.430,-0.545
7.435,-1.132
7.440,-1.269
7.445,-1.210
7.450,-0.975
7.455,-0.947
7.460,-1.049
7.465,-0.656
7.470,-0.085
7.475,-0.152
7.480,-0.596
7.485,-0.780
7.490,-0.818
7.495,-0.660
7.500,-0.529
7.505,-0.580
7.510,-0.327
7.515,0.241
7.520,1.240
7.525,2.451
7.530,2.786
7.535,2.383
7.540,2.096
7.545,1.841
7.550,1.487
7.555,1.274
7.560,1.464
7.565,2.143
7.570,2.601
7.575,2.479
7.580,2.409
7.585,2.359
7.590,2.134
7.595,2.056
7.600,2.023
7.605,1.855
7.610,1.691
7.615,1.503
7.620,1.406
7.625,1.462
7.630,1.354
7.635,1.024
7.640,0.705
7.645,0.359
7.650,0.050
7.655,0.232
7.660,0.424
7.665,0.258
7.670,0.384
7.675,0.681
7.680,0.753
7.685,0.677
7.690,0.459
7.695,0.457
7.700,0.652
7.705,0.531
7.710,0.392
7.715,0.387
7.720,0.337
7.725,0.261
7.730,0.084
7.735,-0.008
7.740,0.049
7.745,-0.631
7.750,-1.639
7.755,-1.104
7.760,0.076
7.765,0.539
7.770,0.411
7.775,-0.244
7.780,-0.405
7.785,-0.027
7.790,-0.063
7.795,-0.199
7.800,-0.482
7.805,-1.255
7.810,-1.285
7.815,-0.750
7.820,-1.143
7.825,-1.831
7.830,-2.074
7.835,-2.106
7.840,-1.947
7.845,-1.676
7.850,-1.502
7.855,-1.667
7.860,-1.575
7.865,-0.912
7.870,-0.668
7.875,-0.956
7.880,-2.005
7.885,-2.642
7.890,-0.927
7.895,0.805
7.900,1.110
7.905,0.950
7.910,0.166
7.915,-0.663
7.920,-1.391
7.925,-1.774
7.930,-1.503
7.935,-1.866
7.940,-2.582
7.945,-2.490
7.950,-1.762
7.955,-1.439
7.960,-2.145
7.965,-2.488
7.970,-2.137
7.975,-2.154
7.980,-2.105
7.985,-1.827
7.990,-1.683
7.995,-1.573
8.000,-1.419
8.005,-1.230
8.010,-1.281
8.015,-1.364
8.020,-1.277
8.025,-1.257
8.030,-1.120
8.035,-0.987
8.040,-1.003
8.045,-0.845
8.050,-0.679
8.055,-0.717
8.060,-0.697
8.065,-0.604
8.070,-0.547
8.075,-0.481
8.080,-0.344
8.085,-0.259
8.090,-0.186
8.095,0.093
8.100,0.164
8.105,0.003
8.110,0.108
8.115,0.269
8.120,0.259
8.125,0.410
8.130,0.699
8.135,1.146
8.140,1.875
8.145,2.000
8.150,1.646
8.155,1.757
8.160,1.757
8.165,1.440
8.170,1.419
8.175,1.341
8.180,1.062
8.185,1.058
8.190,1.103
8.195,0.907
8.200,0.770
8.205,0.926
8.210,1.127
8.215,1.170
8.220,1.261
8.225,1.473
8.230,1.674
8.235,1.714
8.240,1.403
8.245,0.985
8.250,0.888
8.255,1.124
8.260,1.586
8.265,1.721
8.270,1.437
8.275,1.313
8.280,1.388
8.285,1.371
8.290,0.887
8.295,0.491
8.300,0.795
8.305,1.455
8.310,1.879
8.315,1.573
8.320,1.050
8.325,1.062
8.330,1.638
8.335,2.084
8.340,1.851
8.345,1.665
8.350,1.672
8.355,1.277
8.360,0.994
8.365,1.221
8.370,1.385
8.375,1.281
8.380,0.967
8.385,-0.687
8.390,-1.616
8.395,0.085
8.400,1.235
8.405,1.351
8.410,0.629
8.415,-0.721
8.420,-0.801
8.425,-0.645
8.430,-0.742
8.435,0.018
8.440,0.740
8.445,0.697
8.450,0.648
8.455,0.335
8.460,-0.519
8.465,-1.333
8.470,-1.923
8.475,-2.425
8.480,-2.729
8.485,-2.252
8.490,-1.333
8.495,-1.037
8.500,-1.390
8.505,-1.769
8.510,-1.756
8.515,-1.295
8.520,-0.457
8.525,0.270
8.530,0.535
8.535,0.662
8.540,0.716
8.545,0.574
8.550,0.316
8.555,-0.250
8.560,-1.043
8.565,-1.438
8.570,-1.396
8.575,-1.133
8.580,-0.788
8.585,-0.791
8.590,-0.986
8.595,-0.932
8.600,-0.996
8.605,-1.436
8.610,-1.571
8.615,-1.235
8.620,-1.079
8.625,-0.963
8.630,-0.778
8.635,-0.561
8.640,-0.176
8.645,-0.244
8.650,-0.493
8.655,-0.285
8.660,-0.335
8.665,-0.745
8.670,-0.857
8.675,-0.881
8.680,-0.922
8.685,-0.666
8.690,-0.339
8.695,-0.262
8.700,-0.267
8.705,0.015
8.710,0.541
8.715,1.010
8.720,1.289
8.725,1.353
8.730,1.166
8.735,0.675
8.740,0.265
8.745,0.309
8.750,0.389
8.755,0.185
8.760,0.003
8.765,-0.061
8.770,-0.172
8.775,-0.313
8.780,-0.338
8.785,-0.190
8.790,-0.014
8.795,0.378
8.800,0.788
8.805,0.555
8.810,0.613
8.815,1.265
8.820,1.164
8.825,0.638
8.830,0.395
8.835,0.110
8.840,-0.023
8.845,0.257
8.850,0.394
8.855,0.118
8.860,0.096
8.865,0.331
8.870,0.389
8.875,0.481
8.880,0.552
8.885,0.615
8.890,0.746
8.895,0.577
8.900,0.443
8.905,0.570
8.910,0.460
8.915,0.336
8.920,0.722
8.925,1.277
8.930,1.390
8.935,1.145
8.940,0.991
8.945,0.930
8.950,1.010
8.955,1.192
8.960,1.064
8.965,0.968
8.970,1.014
8.975,0.881
8.980,0.801
8.985,0.809
8.990,0.734
8.995,0.649
9.000,0.630
9.005,0.587
9.010,0.479
9.015,0.328
9.020,0.244
9.025,0.094
9.030,-0.573
9.035,-1.568
9.040,-2.369
9.045,-2.919
9.050,-3.151
9.055,-3.088
9.060,-3.000
9.065,-2.868
9.070,-2.741
9.075,-2.716
9.080,-2.555
9.085,-2.305
9.090,-1.509
9.095,0.047
9.100,1.171
9.105,1.374
9.110,1.003
9.115,0.645
9.120,0.526
9.125,0.145
9.130,-0.090
9.135,0.330
9.140,0.668
9.145,0.381
9.150,-0.250
9.155,-0.788
9.160,-0.987
9.165,-1.181
9.170,-1.365
9.175,-1.189
9.180,-0.975
9.185,-0.958
9.190,-1.056
9.195,-1.264
9.200,-1.531
9.205,-1.641
9.210,-1.627
9.215,-1.639
9.220,-1.610
9.225,-1.589
9.230,-1.472
9.235,-1.174
9.240,-0.620
9.245,0.168
9.250,0.803
9.255,1.099
9.260,1.137
9.265,0.903
9.270,0.663
9.275,0.546
9.280,0.452
9.285,0.530
9.290,0.661
9.295,0.623
9.300,0.594
9.305,0.906
9.310,0.919
9.315,0.291
9.320,-0.420
9.325,-1.122
9.330,-1.356
9.335,-1.146
9.340,-1.126
9.345,-1.046
9.350,-0.942
9.355,-1.062
9.360,-1.048
9.365,-0.833
9.370,-0.793
9.375,-0.844
9.380,-0.707
9.385,-0.611
9.390,-0.637
9.395,-0.568
9.400,-0.468
9.405,-0.457
9.410,-0.424
9.415,-0.287
9.420,0.167
9.425,0.796
9.430,1.066
9.435,1.405
9.440,2.044
9.445,2.450
9.450,2.802
9.455,3.093
9.460,3.119
9.465,3.053
9.470,2.833
9.475,2.681
9.480,2.732
9.485,2.644
9.490,2.375
9.495,2.138
9.500,1.999
9.505,1.980
9.510,1.938
9.515,1.589
9.520,1.020
9.525,0.587
9.530,0.125
9.535,-0.313
9.540,-0.373
9.545,-0.452
9.550,-0.646
9.555,-0.803
9.560,-0.943
9.565,-0.872
9.570,-0.674
9.575,-0.366
9.580,-0.119
9.585,-0.394
9.590,-0.908
9.595,-1.106
9.600,-0.832
9.605,-0.275
9.610,-0.151
9.615,-0.569
9.620,-0.710
9.625,-0.554
9.630,-0.502
9.635,-0.576
9.640,-0.733
9.645,-0.933
9.650,-1.132
9.655,-1.130
9.660,-0.855
9.665,-0.427
9.670,-0.230
9.675,-0.189
9.680,0.118
9.685,0.466
9.690,0.564
9.695,0.274
9.700,-0.074
9.705,-0.128
9.710,-0.215
9.715,-0.345
9.720,-0.188
9.725,0.049
9.730,0.183
9.735,0.200
9.740,-0.033
9.745,-0.249
9.750,-0.326
9.755,-0.319
9.760,-0.039
9.765,0.259
9.770,0.455
9.775,0.712
9.780,0.800
9.785,0.717
9.790,0.569
9.795,0.280
9.800,-0.050
9.805,-0.223
9.810,-0.202
9.815,-0.030
9.820,0.310
9.825,0.483
9.830,0.337
9.835,0.262
9.840,0.257
9.845,0.213
9.850,0.101
9.855,-0.024
9.860,0.164
9.865,0.583
9.870,0.982
9.875,1.258
9.880,1.492
9.885,1.327
9.890,0.789
9.895,1.107
9.900,1.604
9.905,1.348
9.910,1.299
9.915,1.317
9.920,1.118
9.925,0.932
9.930,0.636
9.935,0.447
9.940,0.410
9.945,0.340
9.950,0.324
9.955,0.388
9.960,0.367
9.965,0.101
9.970,-0.348
9.975,-0.504
9.980,-0.268
9.985,0.199
9.990,0.706
9.995,0.730
10.000,0.588
10.005,0.608
10.010,0.466
10.015,0.406
10.020,0.498
10.025,0.451
10.030,0.071
10.035,-0.890
10.040,-2.198
10.045,-3.058
10.050,-2.971
10.055,-1.778
10.060,-0.022
10.065,0.993
10.070,1.039
10.075,0.645
10.080,0.223
10.085,-0.002
10.090,0.010
10.095,0.266
10.100,0.535
10.105,0.592
10.110,-0.013
10.115,-1.033
10.120,-1.713
10.125,-2.231
10.130,-2.663
10.135,-2.579
10.140,-2.227
10.145,-1.976
10.150,-1.772
10.155,-1.736
10.160,-1.536
10.165,-1.090
10.170,-1.258
10.175,-1.584
10.180,-1.325
10.185,-1.024
10.190,-0.727
10.195,-0.502
10.200,-0.498
10.205,-0.433
10.210,-0.505
10.215,-0.710
10.220,-0.810
10.225,-0.827
10.230,-0.772
10.235,-0.701
10.240,-0.603
10.245,-0.588
10.250,-0.562
10.255,-0.345
10.260,-0.246
10.265,-0.263
10.270,-0.183
10.275,-0.066
10.280,0.197
10.285,0.549
10.290,0.866
10.295,1.110
10.300,1.220
10.305,1.317
10.310,1.185
10.315,0.847
10.320,0.614
10.325,0.405
10.330,0.237
10.335,-0.037
10.340,-0.431
10.345,-0.683
10.350,-1.083
10.355,-1.611
10.360,-1.724
10.365,-1.457
10.370,-1.277
10.375,-1.316
10.380,-1.267
10.385,-1.139
10.390,-1.168
10.395,-1.108
10.400,-0.921
10.405,-0.821
10.410,-0.792
10.415,-0.762
10.420,-0.605
10.425,-0.418
10.430,-0.362
10.435,-0.287
10.440,0.058
10.445,0.511
10.450,0.640
10.455,0.521
10.460,0.640
10.465,1.089
10.470,1.315
10.475,1.151
10.480,0.963
10.485,0.824
10.490,0.960
10.495,1.184
10.500,1.111
10.505,1.085
10.510,0.865
10.515,0.402
10.520,0.408
10.525,0.545
10.530,0.564
10.535,0.816
10.540,1.044
10.545,1.263
10.550,1.480
10.555,1.436
10.560,1.411
10.565,1.421
10.570,1.015
10.575,0.474
10.580,0.284
10.585,0.015
10.590,-0.163
10.595,0.230
10.600,0.609
10.605,0.728
10.610,0.662
10.615,0.485
10.620,0.556
10.625,0.570
10.630,0.219
10.635,0.253
10.640,0.643
10.645,0.565
10.650,0.447
10.655,0.646
10.660,0.590
10.665,0.356
10.670,0.351
10.675,0.354
10.680,0.227
10.685,0.223
10.690,0.302
10.695,0.223
10.700,0.128
10.705,0.180
10.710,0.208
10.715,0.194
10.720,0.246
10.725,0.324
10.730,0.398
10.735,0.528
10.740,0.722
10.745,1.010
10.750,1.481
10.755,1.687
10.760,1.596
10.765,1.604
10.770,1.407
10.775,1.286
10.780,1.335
10.785,0.943
10.790,0.388
10.795,0.169
10.800,-0.184
10.805,-0.821
10.810,-0.659
10.815,0.069
10.820,0.156
10.825,0.062
10.830,0.132
10.835,-0.111
10.840,-0.232
10.845,0.168
10.850,0.338
10.855,-0.060
10.860,-0.361
10.865,-0.331
10.870,-0.187
10.875,-0.041
10.880,-0.023
10.885,-0.397
10.890,-0.872
10.895,-1.029
10.900,-1.160
10.905,-1.328
10.910,-1.355
10.915,-1.377
10.920,-1.388
10.925,-1.250
10.930,-0.825
10.935,0.178
10.940,1.170
10.945,1.175
10.950,0.723
10.955,0.461
10.960,0.178
10.965,-0.026
10.970,-0.087
10.975,-0.085
10.980,-0.129
10.985,-0.149
10.990,-0.121
10.995,-0.522
11.000,-1.041
11.005,-1.230
11.010,-1.588
11.015,-1.960
11.020,-1.686
11.025,-1.353
11.030,-1.413
11.035,-1.216
11.040,-0.935
11.045,-0.835
11.050,-0.574
11.055,-0.495
11.060,-0.500
11.065,-0.245
11.070,-0.138
11.075,-0.645
11.080,-1.559
11.085,-1.882
11.090,-1.467
11.095,-0.983
11.100,-0.835
11.105,-1.166
11.110,-1.142
11.115,-0.497
11.120,-0.174
11.125,-0.029
11.130,0.106
11.135,-0.124
11.140,-0.299
11.145,-0.179
11.150,-0.024
11.155,0.165
11.160,0.529
11.165,0.651
11.170,0.173
11.175,0.018
11.180,0.607
11.185,1.181
11.190,1.268
11.195,0.720
11.200,-0.026
11.205,-0.468
11.210,-0.776
11.215,-0.856
11.220,-0.370
11.225,0.086
11.230,-0.053
11.235,-0.094
11.240,0.167
11.245,0.127
11.250,0.107
11.255,0.383
11.260,0.553
11.265,0.635
11.270,0.651
11.275,0.675
11.280,0.947
11.285,1.066
11.290,0.915
11.295,0.871
11.300,0.857
11.305,0.865
11.310,0.795
11.315,0.606
11.320,0.622
11.325,0.720
11.330,0.742
11.335,0.757
11.340,0.634
11.345,0.647
11.350,0.606
11.355,-0.042
11.360,-0.445
11.365,-0.296
11.370,-0.089
11.375,0.147
11.380,0.130
11.385,-0.142
11.390,-0.236
11.395,-0.163
11.400,-0.159
11.405,-0.199
11.410,-0.203
11.415,-0.170
11.420,-0.145
11.425,-0.178
11.430,-0.280
11.435,-0.396
11.440,-0.420
11.445,-0.237
11.450,-0.131
11.455,-0.324
11.460,-0.213
11.465,0.149
11.470,0.051
11.475,-0.276
11.480,-0.504
11.485,-0.387
11.490,0.033
11.495,0.009
11.500,-0.108
11.505,0.174
11.510,0.177
11.515,-0.104
11.520,-0.148
11.525,-0.144
11.530,-0.309
11.535,-0.427
11.540,-0.480
11.545,-0.695
11.550,-0.908
11.555,-0.834
11.560,-0.685
11.565,-0.595
11.570,-0.261
11.575,0.284
11.580,0.653
11.585,0.977
11.590,1.172
11.595,0.913
11.600,0.693
11.605,0.640
11.610,0.397
11.615,0.096
11.620,-0.263
11.625,-0.880
11.630,-1.399
11.635,-1.564
11.640,-1.678
11.645,-1.551
11.650,-1.344
11.655,-1.508
11.660,-1.362
11.665,-1.020
11.670,-0.968
11.675,-0.809
11.680,-0.742
11.685,-0.605
11.690,-0.220
11.695,-0.092
11.700,-0.094
11.705,0.048
11.710,0.327
11.715,0.573
11.720,0.418
11.725,0.339
11.730,0.947
11.735,1.361
11.740,1.221
11.745,1.138
11.750,0.793
11.755,0.246
11.760,0.034
11.765,-0.123
11.770,-0.129
11.775,-0.037
11.780,-0.436
11.785,-0.609
11.790,-0.253
11.795,-0.414
11.800,-0.807
11.805,-0.948
11.810,-0.878
11.815,-0.261
11.820,0.355
11.825,0.557
11.830,0.759
11.835,0.977
11.840,1.079
11.845,1.185
11.850,1.291
11.855,1.432
11.860,1.471
11.865,1.338
11.870,1.383
11.875,1.415
11.880,1.261
11.885,1.191
11.890,1.073
11.895,0.652
11.900,0.279
11.905,0.378
11.910,0.789
11.915,1.134
11.920,1.054
11.925,0.999
11.930,1.244
11.935,1.138
11.940,0.959
11.945,1.037
11.950,0.919
11.955,0.653
11.960,0.446
11.965,0.364
11.970,0.402
11.975,0.195
11.980,-0.149
11.985,-0.233
11.990,-0.043
11.995,0.428
12.000,0.750
12.005,0.549
12.010,0.507
12.015,0.693
12.020,0.473
12.025,0.240
12.030,0.181
12.035,0.188
12.040,0.393
12.045,0.127
12.050,-0.551
12.055,-0.721
12.060,-0.492
12.065,-0.271
12.070,-0.556
12.075,-1.098
12.080,-0.923
12.085,-0.484
12.090,-0.438
12.095,-0.664
12.100,-0.842
12.105,-0.935
12.110,-0.971
12.115,-0.651
12.120,-0.585
12.125,-0.852
12.130,-0.688
12.135,-0.531
12.140,-0.211
12.145,0.521
12.150,0.463
12.155,-0.099
12.160,-0.274
12.165,-0.259
12.170,-0.260
12.175,-0.496
12.180,-0.937
12.185,-1.148
12.190,-0.826
12.195,-0.342
12.200,-0.169
12.205,-0.168
12.210,0.019
12.215,0.302
12.220,0.384
12.225,0.322
12.230,0.299
12.235,0.262
12.240,0.169
12.245,0.182
12.250,0.247
12.255,0.165
12.260,0.025
12.265,-0.038
12.270,-0.013
12.275,0.053
12.280,0.024
12.285,-0.042
12.290,0.045
12.295,0.150
12.300,0.123
12.305,0.143
12.310,0.084
12.315,-0.006
12.320,0.213
12.325,0.497
12.330,0.494
12.335,0.554
12.340,0.466
12.345,-0.238
12.350,-0.252
12.355,0.179
12.360,0.212
12.365,0.297
12.370,-0.130
12.375,-0.495
12.380,-0.314
12.385,-0.352
12.390,-0.425
12.395,-0.430
12.400,-0.277
12.405,0.163
12.410,0.304
12.415,0.295
12.420,0.578
12.425,0.750
12.430,0.617
12.435,0.273
12.440,-0.078
12.445,-0.018
12.450,0.350
12.455,0.645
12.460,0.676
12.465,0.127
12.470,-0.953
12.475,-1.461
12.480,-1.259
12.485,-0.884
12.490,-0.437
12.495,-0.354
12.500,-0.239
12.505,-0.085
12.510,-0.460
12.515,-0.728
12.520,-0.552
12.525,-0.365
12.530,-0.178
12.535,-0.190
12.540,-0.428
12.545,-0.382
12.550,-0.453
12.555,-0.785
12.560,-0.657
12.565,-0.464
12.570,-0.432
12.575,-0.419
12.580,-1.005
12.585,-1.148
12.590,-0.478
12.595,-0.376
12.600,-0.097
12.605,0.696
12.610,0.894
12.615,0.907
12.620,1.141
12.625,1.139
12.630,1.017
12.635,0.951
12.640,0.790
12.645,0.670
12.650,0.707
12.655,0.728
12.660,0.658
12.665,0.534
12.670,0.350
12.675,0.149
12.680,-0.040
12.685,-0.230
12.690,-0.361
12.695,-0.397
12.700,-0.397
12.705,-0.425
12.710,-0.357
12.715,-0.269
12.720,-0.447
12.725,-0.575
12.730,-0.462
12.735,-0.531
12.740,-0.508
12.745,-0.057
12.750,-0.165
12.755,-0.879
12.760,-0.841
12.765,-0.345
12.770,-0.020
12.775,0.321
12.780,0.428
12.785,0.694
12.790,0.832
12.795,0.081
12.800,-0.587
12.805,-0.775
12.810,-1.277
12.815,-1.836
12.820,-2.002
12.825,-2.133
12.830,-2.126
12.835,-1.939
12.840,-1.939
12.845,-1.860
12.850,-1.665
12.855,-1.648
12.860,-1.614
12.865,-1.459
12.870,-1.374
12.875,-1.347
12.880,-1.233
12.885,-1.119
12.890,-1.122
12.895,-1.046
12.900,-0.932
12.905,-0.950
12.910,-0.867
12.915,-0.726
12.920,-0.721
12.925,-0.676
12.930,-0.561
12.935,-0.519
12.940,-0.491
12.945,-0.409
12.950,-0.204
12.955,0.285
12.960,0.393
12.965,-0.075
12.970,-0.169
12.975,-0.025
12.980,0.170
12.985,0.715
12.990,1.186
12.995,1.326
13.000,1.498
13.005,1.836
13.010,2.130
13.015,2.218
13.020,1.984
13.025,2.028
13.030,2.411
13.035,2.040
13.040,1.752
13.045,2.047
13.050,1.527
13.055,0.927
13.060,1.274
13.065,1.564
13.070,1.330
13.075,1.208
13.080,1.425
13.085,1.565
13.090,1.373
13.095,1.327
13.100,1.458
13.105,1.228
13.110,0.971
13.115,0.986
13.120,0.941
13.125,0.882
13.130,1.055
13.135,1.019
13.140,0.759
13.145,0.731
13.150,0.622
13.155,0.381
13.160,0.071
13.165,-0.206
13.170,-0.191
13.175,-0.072
13.180,0.185
13.185,0.484
13.190,0.475
13.195,0.387
13.200,0.431
13.205,0.222
13.210,-0.615
13.215,-1.337
13.220,-0.990
13.225,-0.571
13.230,-0.767
13.235,-0.683
13.240,-0.432
13.245,-0.317
13.250,0.147
13.255,0.686
13.260,0.703
13.265,0.322
13.270,-0.069
13.275,-0.163
13.280,-0.015
13.285,-0.093
13.290,-0.316
13.295,-0.393
13.300,-0.478
13.305,-0.261
13.310,0.179
13.315,0.301
13.320,0.072
13.325,-0.193
13.330,-0.251
13.335,-0.247
13.340,0.019
13.345,0.817
13.350,1.635
13.355,1.790
13.360,1.467
13.365,1.267
13.370,0.775
13.375,0.042
13.380,-0.119
13.385,0.011
13.390,0.647
13.395,1.159
13.400,0.803
13.405,0.418
13.410,0.270
13.415,0.634
13.420,1.137
13.425,1.004
13.430,0.496
13.435,0.415
13.440,0.673
13.445,0.364
13.450,-0.093
13.455,-0.275
13.460,-0.523
13.465,-0.725
13.470,-0.956
13.475,-0.928
13.480,-0.635
13.485,-0.917
13.490,-1.444
13.495,-1.525
13.500,-1.326
13.505,-1.232
13.510,-1.581
13.515,-1.942
13.520,-1.707
13.525,-1.332
13.530,-1.166
13.535,-0.784
13.540,-0.452
13.545,-0.593
13.550,-0.657
13.555,-0.379
13.560,-0.220
13.565,0.018
13.570,0.656
13.575,1.130
13.580,1.278
13.585,1.217
13.590,0.977
13.595,0.992
13.600,1.067
13.605,0.879
13.610,0.811
13.615,0.872
13.620,0.774
13.625,0.675
13.630,0.694
13.635,0.653
13.640,0.562
13.645,0.527
13.650,0.482
13.655,0.420
13.660,0.285
13.665,0.152
13.670,0.235
13.675,0.249
13.680,0.033
13.685,-0.001
13.690,0.047
13.695,-0.355
13.700,-0.837
13.705,-1.018
13.710,-1.326
13.715,-1.711
13.720,-1.948
13.725,-2.168
13.730,-2.390
13.735,-2.675
13.740,-2.811
13.745,-2.552
13.750,-2.461
13.755,-2.690
13.760,-2.643
13.765,-2.442
13.770,-2.397
13.775,-2.356
13.780,-2.155
13.785,-2.010
13.790,-1.994
13.795,-1.857
13.800,-1.508
13.805,-1.082
13.810,-1.110
13.815,-1.363
13.820,-1.128
13.825,-0.715
13.830,-0.428
13.835,-0.334
13.840,-0.315
13.845,-0.210
13.850,-0.017
13.855,0.485
13.860,0.881
13.865,0.899
13.870,0.935
13.875,0.932
13.880,0.804
13.885,0.780
13.890,0.741
13.895,0.597
13.900,0.522
13.905,0.428
13.910,0.266
13.915,0.170
13.920,0.161
13.925,0.158
13.930,0.117
13.935,0.039
13.940,-0.035
13.945,0.268
13.950,0.464
13.955,0.000
13.960,0.118
13.965,0.616
13.970,0.422
13.975,0.362
13.980,0.546
13.985,0.295
13.990,0.069
13.995,0.146
14.000,0.106
14.005,0.139
14.010,0.302
14.015,0.434
14.020,0.731
14.025,0.350
14.030,-0.636
14.035,-0.908
14.040,-0.789
14.045,-0.662
14.050,0.002
14.055,1.186
14.060,2.082
14.065,1.917
14.070,1.010
14.075,0.348
14.080,0.358
14.085,0.501
14.090,0.660
14.095,1.210
14.100,1.421
14.105,1.124
14.110,1.041
14.115,0.875
14.120,0.603
14.125,0.743
14.130,1.255
14.135,1.939
14.140,2.220
14.145,1.766
14.150,0.631
14.155,-0.423
14.160,-0.677
14.165,-0.038
14.170,1.347
14.175,1.752
14.180,1.072
14.185,0.287
14.190,-0.363
14.195,-0.740
14.200,-0.957
14.205,-0.179
14.210,0.666
14.215,0.428
14.220,-0.628
14.225,-1.713
14.230,-1.659
14.235,-1.245
14.240,-1.200
14.245,-1.143
14.250,-0.822
14.255,-0.392
14.260,-0.405
14.265,-0.475
14.270,-0.175
14.275,-0.062
14.280,-0.180
14.285,-0.121
14.290,-0.016
14.295,0.123
14.300,0.760
14.305,1.347
14.310,1.008
14.315,0.426
14.320,0.236
14.325,0.219
14.330,0.164
14.335,0.060
14.340,0.169
14.345,0.485
14.350,0.235
14.355,-0.453
14.360,-0.337
14.365,0.205
14.370,0.245
14.375,0.066
14.380,-0.093
14.385,-0.375
14.390,-0.540
14.395,-0.478
14.400,-0.236
14.405,0.244
14.410,0.521
14.415,0.472
14.420,0.274
14.425,-0.018
14.430,-0.194
14.435,-0.323
14.440,-0.536
14.445,-0.733
14.450,-0.850
14.455,-0.528
14.460,0.327
14.465,0.430
14.470,0.091
14.475,1.306
14.480,2.741
14.485,2.907
14.490,2.580
14.495,2.113
14.500,2.255
14.505,2.404
14.510,1.896
14.515,1.842
14.520,2.014
14.525,1.723
14.530,1.540
14.535,1.633
14.540,1.505
14.545,1.303
14.550,1.306
14.555,1.259
14.560,1.095
14.565,1.036
14.570,1.010
14.575,0.896
14.580,0.811
14.585,0.779
14.590,0.703
14.595,0.616
14.600,0.573
14.605,0.519
14.610,0.444
14.615,0.393
14.620,0.349
14.625,0.288
14.630,0.236
14.635,0.195
14.640,0.147
14.645,0.099
14.650,0.060
14.655,0.020
14.660,-0.022
14.665,-0.058
14.670,-0.091
14.675,-0.127
14.680,-0.160
14.685,-0.189
14.690,-0.219
14.695,-0.247
14.700,-0.272
14.705,-0.297
14.710,-0.321
14.715,-0.343
14.720,-0.364
14.725,-0.384
14.730,-0.402
14.735,-0.419
14.740,-0.435
14.745,-0.450
14.750,-0.464
14.755,-0.476
14.760,-0.488
14.765,-0.499
14.770,-0.509
14.775,-0.517
14.780,-0.525
14.785,-0.533
14.790,-0.539
14.795,-0.544
14.800,-0.549
14.805,-0.553
14.810,-0.556
14.815,-0.559
14.820,-0.561
14.825,-0.562
14.830,-0.563
14.835,-0.563
14.840,-0.562
14.845,-0.561
14.850,-0.560
14.855,-0.558
14.860,-0.555
14.865,-0.552
14.870,-0.549
14.875,-0.545
14.880,-0.541
14.885,-0.537
14.890,-0.532
14.895,-0.527
14.900,-0.521
14.905,-0.516
14.910,-0.510
14.915,-0.504
14.920,-0.497
14.925,-0.491
14.930,-0.484
14.935,-0.477
14.940,-0.470
14.945,-0.462
14.950,-0.455
14.955,-0.447
14.960,-0.440
14.965,-0.432
14.970,-0.424
14.975,-0.416
14.980,-0.408
14.985,-0.400
14.990,-0.392
14.995,-0.384
15.000,-0.376
15.005,-0.368
15.010,-0.360
15.015,-0.351
15.020,-0.343
15.025,-0.335
15.030,-0.327
15.035,-0.319
15.040,-0.311
15.045,-0.303
15.050,-0.295
15.055,-0.287
15.060,-0.279
15.065,-0.271
15.070,-0.264
15.075,-0.256
15.080,-0.249
15.085,-0.241
15.090,-0.234
15.095,-0.227
15.100,-0.219
15.105,-0.212
15.110,-0.205
15.115,-0.199
15.120,-0.192
15.125,-0.185
15.130,-0.178
15.135,-0.172
15.140,-0.166
15.145,-0.160
15.150,-0.153
15.155,-0.147
15.160,-0.141
15.165,-0.136
15.170,-0.130
15.175,-0.124
15.180,-0.119
15.185,-0.114
15.190,-0.109
15.195,-0.104
15.200,-0.099
15.205,-0.094
15.210,-0.089
15.215,-0.085
15.220,-0.080
15.225,-0.076
15.230,-0.071
15.235,-0.067
15.240,-0.063
15.245,-0.059
15.250,-0.056
15.255,-0.052
15.260,-0.048
15.265,-0.045
15.270,-0.041
15.275,-0.046
15.280,-0.060
15.285,-0.051
15.290,-0.037
15.295,-0.898
15.300,-1.186
15.305,-0.096
15.310,-0.304
15.315,-0.634
15.320,-0.262
15.325,-0.359
15.330,-0.746
15.335,-0.813
15.340,-0.169
15.345,-0.577
15.350,-0.852
15.355,-0.160
15.360,-0.958
15.365,-1.247
15.370,-0.446
15.375,-0.527
15.380,-0.720
15.385,-0.716
15.390,-0.383
15.395,-0.640
15.400,-0.837
15.405,-0.211
15.410,-0.529
15.415,-0.606
15.420,-0.336
15.425,-0.508
15.430,-0.321
15.435,-0.358
15.440,-0.178
15.445,-0.154
15.450,-0.375
15.455,-0.029
15.460,-0.188
15.465,-0.232
15.470,-0.151
15.475,-0.323
15.480,-0.162
15.485,-0.232
15.490,-0.168
15.495,-0.277
15.500,-0.345
15.505,0.083
15.510,-0.048
15.515,-0.136
15.520,-0.106
15.525,-0.102
15.530,0.028
15.535,-0.172
15.540,-0.004
15.545,0.005
15.550,-0.109
15.555,0.251
15.560,0.227
15.565,0.250
15.570,0.171
15.575,0.093
15.580,0.371
15.585,0.167
15.590,0.347
15.595,0.483
15.600,0.186
15.605,0.410
15.610,0.404
15.615,0.434
15.620,0.343
15.625,0.147
15.630,0.323
15.635,0.155
15.640,0.372
15.645,0.422
15.650,0.127
15.655,0.415
15.660,0.414
15.665,0.300
15.670,0.167
15.675,0.427
15.680,0.910
15.685,0.470
15.690,0.544
15.695,0.917
15.700,0.755
15.705,0.638
15.710,0.490
15.715,0.754
15.720,0.560
15.725,0.417
15.730,0.783
15.735,0.394
15.740,0.502
15.745,0.568
15.750,0.293
15.755,0.532
15.760,0.106
15.765,-0.019
15.770,0.212
15.775,0.349
15.780,0.534
15.785,0.123
15.790,0.397
15.795,0.689
15.800,0.496
15.805,0.458
15.810,0.255
15.815,0.551
15.820,0.396
15.825,0.229
15.830,0.359
15.835,-0.084
15.840,0.322
15.845,0.317
15.850,-0.138
15.855,0.141
15.860,0.118
15.865,0.265
15.870,0.146
15.875,-0.041
15.880,0.056
15.885,-0.112
15.890,0.239
15.895,0.075
15.900,-0.334
15.905,-0.042
15.910,-0.088
15.915,-0.179
15.920,-0.259
15.925,-0.122
15.930,-0.036
15.935,-0.223
15.940,0.156
15.945,0.181
15.950,0.148
15.955,0.200
15.960,0.292
15.965,0.070
15.970,-0.806
15.975,-0.552
15.980,-0.691
15.985,-0.998
15.990,-0.258
15.995,-0.284
16.000,-0.426
16.005,-0.175
16.010,-0.286
16.015,-0.316
16.020,-0.273
16.025,-0.136
16.030,-0.250
16.035,-0.612
16.040,-0.141
16.045,1.040
16.050,0.268
16.055,-1.433
16.060,-0.047
16.065,0.405
16.070,-1.880
16.075,-2.220
16.080,-1.101
16.085,-1.267
16.090,-1.590
16.095,-0.960
16.100,-0.678
16.105,-1.175
16.110,-0.335
16.115,1.175
16.120,0.176
16.125,-0.322
16.130,1.418
16.135,1.659
16.140,0.806
16.145,0.917
16.150,0.877
16.155,0.039
16.160,-0.115
16.165,0.195
16.170,-0.422
16.175,-0.454
16.180,0.182
16.185,-0.025
16.190,-0.310
16.195,0.020
16.200,0.158
16.205,-0.148
16.210,-0.111
16.215,0.083
16.220,-0.033
16.225,-0.061
16.230,0.170
16.235,0.220
16.240,0.397
16.245,0.643
16.250,0.717
16.255,0.906
16.260,0.504
16.265,0.541
16.270,0.787
16.275,0.262
16.280,0.389
16.285,0.414
16.290,0.399
16.295,0.607
16.300,0.315
16.305,0.439
16.310,0.409
16.315,0.350
16.320,0.449
16.325,0.082
16.330,0.272
16.335,0.240
16.340,-0.008
16.345,0.113
16.350,-0.160
16.355,-0.040
16.360,0.159
16.365,0.168
16.370,0.264
16.375,0.056
16.380,0.248
16.385,0.310
16.390,0.078
16.395,0.120
16.400,0.042
16.405,-0.005
16.410,-0.101
16.415,-0.263
16.420,-0.291
16.425,-0.157
16.430,0.053
16.435,0.012
16.440,-0.190
16.445,-0.114
16.450,0.053
16.455,0.161
16.460,0.063
16.465,0.123
16.470,0.221
16.475,-0.146
16.480,-0.088
16.485,-0.093
16.490,-0.264
16.495,-0.059
16.500,-0.036
16.505,0.066
16.510,0.089
16.515,0.039
16.520,0.092
16.525,-0.068
16.530,-0.204
16.535,-0.323
16.540,-0.412
16.545,-0.414
16.550,-0.392
16.555,-0.285
16.560,-0.094
16.565,0.096
16.570,0.094
16.575,-0.077
16.580,0.014
16.585,0.027
16.590,-0.170
16.595,-0.278
16.600,-0.434
16.605,-0.342
16.610,-0.158
16.615,0.007
16.620,0.125
16.625,0.047
16.630,0.158
16.635,0.146
16.640,-0.068
16.645,-0.093
16.650,-0.083
16.655,-0.140
16.660,-0.150
16.665,-0.073
16.670,0.023
16.675,0.141
16.680,0.285
16.685,0.290
16.690,0.115
16.695,0.063
16.700,0.060
16.705,-0.011
16.710,-0.077
16.715,-0.096
16.720,-0.115
16.725,-0.139
16.730,-0.115
16.735,-0.089
16.740,0.000
16.745,0.095
16.750,0.143
16.755,0.039
16.760,-0.087
16.765,-0.031
16.770,-0.003
16.775,0.001
16.780,-0.168
16.785,-0.272
16.790,-0.352
16.795,-0.404
16.800,-0.071
16.805,-0.097
16.810,-0.142
16.815,-0.110
16.820,-0.190
16.825,-0.053
16.830,0.159
16.835,0.332
16.840,0.201
16.845,0.038
16.850,-0.050
16.855,-0.112
16.860,-0.044
16.865,0.078
16.870,0.052
16.875,-0.061
16.880,-0.042
16.885,0.013
16.890,0.004
16.895,-0.043
16.900,0.056
16.905,0.078
16.910,0.010
16.915,-0.004
16.920,0.120
16.925,0.354
16.930,0.570
16.935,0.716
16.940,0.646
16.945,0.574
16.950,0.436
16.955,0.200
16.960,-0.184
16.965,-0.445
16.970,-0.396
16.975,-0.284
16.980,-0.187
16.985,-0.098
16.990,-0.114
16.995,0.013
17.000,0.409
17.005,0.404
17.010,0.071
17.015,-0.080
17.020,-0.156
17.025,-0.313
17.030,-0.586
17.035,-0.585
17.040,-0.688
17.045,-0.880
17.050,-0.305
17.055,-0.240
17.060,-0.841
17.065,-1.018
17.070,-0.645
17.075,-0.739
17.080,-1.446
17.085,-0.977
17.090,-0.662
17.095,-1.276
17.100,-0.808
17.105,-0.540
17.110,-1.198
17.115,-1.113
17.120,-0.592
17.125,-0.930
17.130,-1.360
17.135,-0.736
17.140,-0.349
17.145,-0.596
17.150,-0.520
17.155,-0.480
17.160,-0.830
17.165,-0.759
17.170,-0.362
17.175,-0.508
17.180,-0.633
17.185,-0.340
17.190,-0.061
17.195,0.866
17.200,1.268
17.205,1.344
17.210,2.718
17.215,3.366
17.220,3.406
17.225,3.142
17.230,2.582
17.235,2.921
17.240,2.922
17.245,2.367
17.250,1.496
17.255,0.893
17.260,1.584
17.265,1.675
17.270,0.451
17.275,0.386
17.280,1.081
17.285,0.088
17.290,-0.394
17.295,0.497
17.300,0.153
17.305,-0.186
17.310,0.489
17.315,0.560
17.320,0.185
17.325,0.222
17.330,0.495
17.335,0.281
17.340,0.055
17.345,0.023
17.350,-0.307
17.355,-0.253
17.360,-0.024
17.365,0.160
17.370,0.098
17.375,-0.196
17.380,-0.162
17.385,-0.201
17.390,-0.432
17.395,-0.731
17.400,-0.765
17.405,-0.700
17.410,-0.683
17.415,-0.545
17.420,-0.628
17.425,-0.716
17.430,-0.607
17.435,-0.250
17.440,-0.282
17.445,-0.548
17.450,-0.437
17.455,-0.529
17.460,-0.590
17.465,-0.612
17.470,-0.604
17.475,-0.083
17.480,0.325
17.485,0.489
17.490,0.848
17.495,1.012
17.500,0.992
17.505,1.073
17.510,0.659
17.515,0.621
17.520,0.853
17.525,0.381
17.530,0.547
17.535,0.563
17.540,0.231
17.545,0.429
17.550,0.138
17.555,0.091
17.560,0.282
17.565,0.206
17.570,0.223
17.575,0.000
17.580,0.139
17.585,0.018
17.590,-0.233
17.595,-0.054
17.600,-0.281
17.605,-0.255
17.610,-0.100
17.615,-0.086
17.620,0.189
17.625,0.177
17.630,0.358
17.635,0.860
17.640,0.749
17.645,0.378
17.650,0.859
17.655,1.298
17.660,0.345
17.665,0.220
17.670,0.987
17.675,0.582
17.680,0.004
17.685,-0.531
17.690,-0.482
17.695,0.307
17.700,0.054
17.705,-0.339
17.710,-0.273
17.715,-0.304
17.720,-0.664
17.725,-0.867
17.730,-0.590
17.735,-0.981
17.740,-0.896
17.745,-0.261
17.750,-0.459
17.755,-0.699
17.760,-0.577
17.765,-0.513
17.770,-0.667
17.775,-0.746
17.780,-0.782
17.785,-0.950
17.790,-0.914
17.795,-0.695
17.800,-0.564
17.805,-0.544
17.810,-0.422
17.815,-0.280
17.820,-0.334
17.825,-0.445
17.830,-0.394
17.835,-0.447
17.840,-0.576
17.845,-0.573
17.850,-0.532
17.855,-0.405
17.860,-0.269
17.865,-0.208
17.870,-0.185
17.875,-0.147
17.880,0.020
17.885,0.007
17.890,-0.320
17.895,-0.333
17.900,-0.214
17.905,-0.268
17.910,-0.304
17.915,-0.489
17.920,-0.623
17.925,-0.530
17.930,-0.362
17.935,-0.166
17.940,-0.213
17.945,-0.243
17.950,-0.138
17.955,-0.080
17.960,-0.083
17.965,-0.091
17.970,-0.026
17.975,-0.059
17.980,0.256
17.985,1.281
17.990,1.012
17.995,-0.648
18.000,-0.942
18.005,-0.205
18.010,0.456
18.015,0.943
18.020,0.839
18.025,0.474
18.030,0.934
18.035,1.938
18.040,1.852
18.045,0.824
18.050,0.736
18.055,1.285
18.060,0.956
18.065,0.102
18.070,-0.880
18.075,-1.226
18.080,-1.148
18.085,-1.450
18.090,-1.788
18.095,-2.234
18.100,-1.761
18.105,-1.393
18.110,-2.295
18.115,-2.141
18.120,-1.266
18.125,-1.506
18.130,-1.671
18.135,-1.153
18.140,-0.183
18.145,1.216
18.150,1.429
18.155,1.190
18.160,1.637
18.165,2.129
18.170,2.643
18.175,2.152
18.180,1.584
18.185,2.147
18.190,2.062
18.195,1.484
18.200,1.401
18.205,1.293
18.210,1.214
18.215,0.754
18.220,-0.110
18.225,0.196
18.230,0.557
18.235,-0.615
18.240,-0.559
18.245,0.693
18.250,0.091
18.255,-0.608
18.260,-0.050
18.265,0.069
18.270,-0.189
18.275,-0.103
18.280,0.352
18.285,0.345
18.290,0.028
18.295,0.084
18.300,-0.206
18.305,-0.185
18.310,0.085
18.315,-0.016
18.320,-0.125
18.325,-0.332
18.330,-0.189
18.335,-0.405
18.340,-0.693
18.345,-0.489
18.350,-0.751
18.355,-0.921
18.360,-0.627
18.365,-0.509
18.370,-0.690
18.375,-0.583
18.380,-0.340
18.385,-0.362
18.390,-0.313
18.395,-0.163
18.400,-0.158
18.405,-0.242
18.410,-0.398
18.415,-0.523
18.420,-0.478
18.425,-0.430
18.430,-0.195
18.435,-0.037
18.440,-0.128
18.445,-0.007
18.450,0.051
18.455,-0.066
18.460,-0.135
18.465,-0.129
18.470,-0.161
18.475,-0.242
18.480,-0.502
18.485,-0.587
18.490,-0.369
18.495,-0.252
18.500,0.026
18.505,-0.043
18.510,-0.129
18.515,0.060
18.520,-0.071
18.525,-0.131
18.530,-0.198
18.535,-0.303
18.540,-0.258
18.545,-0.240
18.550,-0.115
18.555,0.028
18.560,0.147
18.565,0.262
18.570,0.171
18.575,0.018
18.580,0.067
18.585,0.020
18.590,-0.178
18.595,-0.267
18.600,-0.180
18.605,-0.122
18.610,-0.042
18.615,0.141
18.620,0.047
18.625,0.025
18.630,0.170
18.635,0.135
18.640,0.006
18.645,0.048
18.650,0.117
18.655,0.117
18.660,0.086
18.665,-0.063
18.670,-0.074
18.675,-0.005
18.680,0.170
18.685,0.253
18.690,0.065
18.695,0.067
18.700,0.107
18.705,0.113
18.710,0.201
18.715,0.225
18.720,0.120
18.725,-0.022
18.730,-0.218
18.735,-0.219
18.740,-0.010
18.745,-0.026
18.750,0.098
18.755,0.199
18.760,0.231
18.765,0.468
18.770,0.350
18.775,0.029
18.780,0.060
18.785,0.068
18.790,0.012
18.795,0.047
18.800,-0.020
18.805,-0.094
18.810,0.028
18.815,0.236
18.820,0.172
18.825,0.114
18.830,0.225
18.835,0.179
18.840,0.035
18.845,-0.416
18.850,-0.563
18.855,-0.207
18.860,-0.044
18.865,0.225
18.870,0.084
18.875,-0.055
18.880,0.796
18.885,1.171
18.890,0.674
18.895,0.486
18.900,0.171
18.905,-0.782
18.910,-2.511
18.915,-2.537
18.920,-0.721
18.925,-0.382
18.930,-0.506
18.935,-0.335
18.940,0.070
18.945,0.509
18.950,0.029
18.955,-0.360
18.960,-0.250
18.965,-0.361
18.970,-0.571
18.975,-1.451
18.980,-2.058
18.985,-0.766
18.990,0.175
18.995,0.786
19.000,1.081
19.005,0.912
19.010,1.374
19.015,0.457
19.020,-0.597
19.025,-1.440
19.030,-1.983
19.035,-0.621
19.040,0.313
19.045,0.890
19.050,0.986
19.055,0.713
19.060,1.525
19.065,1.891
19.070,2.035
19.075,1.785
19.080,1.695
19.085,2.650
19.090,2.284
19.095,1.442
19.100,2.060
19.105,2.313
19.110,1.460
19.115,1.272
19.120,1.676
19.125,1.445
19.130,1.120
19.135,0.755
19.140,0.507
19.145,0.997
19.150,0.628
19.155,0.025
19.160,0.397
19.165,0.417
19.170,0.165
19.175,0.238
19.180,0.072
19.185,-0.281
19.190,0.059
19.195,0.535
19.200,0.153
19.205,-0.114
19.210,0.080
19.215,0.299
19.220,0.297
19.225,-0.182
19.230,-0.495
19.235,-0.578
19.240,-0.264
19.245,0.015
19.250,-0.642
19.255,-0.861
19.260,-0.236
19.265,-0.172
19.270,-0.545
19.275,-0.771
19.280,-0.637
19.285,-0.577
19.290,-0.651
19.295,-0.650
19.300,-0.955
19.305,-0.823
19.310,-0.313
19.315,-0.336
19.320,-0.483
19.325,-0.588
19.330,-0.346
19.335,-0.242
19.340,-0.633
19.345,-0.515
19.350,-0.428
19.355,-0.359
19.360,-0.286
19.365,-0.670
19.370,-0.607
19.375,-0.312
19.380,-0.174
19.385,-0.289
19.390,-0.722
19.395,-0.542
19.400,-0.521
19.405,-0.697
19.410,-0.547
19.415,-0.753
19.420,-0.825
19.425,-0.658
19.430,-0.523
19.435,-0.558
19.440,-0.608
19.445,-0.451
19.450,-0.495
19.455,-0.562
19.460,-0.555
19.465,-0.499
19.470,-0.452
19.475,-0.529
19.480,-0.631
19.485,-0.706
19.490,-0.605
19.495,-0.398
19.500,-0.180
19.505,-0.179
19.510,-0.110
19.515,0.103
19.520,0.058
19.525,-0.119
19.530,-0.037
19.535,-0.060
19.540,-0.275
19.545,-0.413
19.550,-0.515
19.555,-0.402
19.560,-0.171
19.565,0.127
19.570,0.079
19.575,-0.106
19.580,0.052
19.585,0.055
19.590,-0.059
19.595,-0.281
19.600,-0.475
19.605,-0.291
19.610,-0.092
19.615,0.033
19.620,0.237
19.625,0.442
19.630,0.628
19.635,0.672
19.640,0.382
19.645,0.542
19.650,0.765
19.655,0.438
19.660,0.095
19.665,0.106
19.670,0.630
19.675,0.678
19.680,0.426
19.685,0.548
19.690,0.459
19.695,0.613
19.700,0.633
19.705,0.256
19.710,0.256
19.715,0.364
19.720,0.418
19.725,0.185
19.730,-0.080
19.735,-0.074
19.740,0.089
19.745,0.355
19.750,0.132
19.755,-0.138
19.760,0.050
19.765,0.111
19.770,0.206
19.775,0.163
19.780,0.343
19.785,0.710
19.790,0.425
19.795,0.217
19.800,0.607
19.805,1.029
19.810,0.669
19.815,0.462
19.820,1.014
19.825,0.734
19.830,0.560
19.835,1.110
19.840,0.663
19.845,0.395
19.850,0.845
19.855,0.717
19.860,0.306
19.865,-0.035
19.870,-0.058
19.875,0.185
19.880,-0.085
19.885,-0.858
19.890,-0.857
19.895,-0.056
19.900,-0.414
19.905,-0.927
19.910,-0.603
19.915,-0.774
19.920,-1.007
19.925,-0.736
19.930,-0.490
19.935,-0.476
19.940,-0.233
19.945,0.223
19.950,0.512
19.955,0.490
19.960,0.240
19.965,0.698
19.970,1.190
19.975,0.197
19.980,-0.387
19.985,0.212
19.990,0.408
19.995,0.098
20.000,-0.580
20.005,-0.742
20.010,-0.023
20.015,-0.245
20.020,-1.096
20.025,-1.232
20.030,-1.313
20.035,-1.569
20.040,-1.359
20.045,-1.080
20.050,-1.023
20.055,-1.479
20.060,-1.898
20.065,-1.337
20.070,-1.074
20.075,-1.477
20.080,-1.677
20.085,-1.300
20.090,-1.149
20.095,-1.614
20.100,-1.286
20.105,-1.078
20.110,-1.630
20.115,-1.208
20.120,-0.883
20.125,-0.978
20.130,-0.506
20.135,-0.109
20.140,0.861
20.145,2.067
20.150,2.558
20.155,2.506
20.160,1.825
20.165,2.034
20.170,2.682
20.175,1.941
20.180,1.570
20.185,2.128
20.190,1.910
20.195,1.484
20.200,1.688
20.205,1.643
20.210,1.348
20.215,1.239
20.220,1.024
20.225,0.943
20.230,0.920
20.235,0.126
20.240,0.029
20.245,0.817
20.250,0.675
20.255,0.756
20.260,0.897
20.265,0.900
20.270,1.334
20.275,0.876
20.280,0.574
20.285,1.046
20.290,0.841
20.295,0.497
20.300,0.724
20.305,0.732
20.310,0.458
20.315,0.495
20.320,0.572
20.325,0.406
20.330,0.275
20.335,-0.108
20.340,-0.225
20.345,0.214
20.350,-0.534
20.355,-1.164
20.360,-0.512
20.365,-1.415
20.370,-2.457
20.375,-1.206
20.380,-0.560
20.385,-1.604
20.390,-1.718
20.395,-1.065
20.400,-1.493
20.405,-1.815
20.410,-1.373
20.415,-1.433
20.420,-1.746
20.425,-1.315
20.430,-1.034
20.435,-1.241
20.440,-0.983
20.445,-0.641
20.450,-0.618
20.455,-0.628
20.460,-0.446
20.465,-0.311
20.470,-0.528
20.475,-0.738
20.480,-0.712
20.485,-0.763
20.490,-0.754
20.495,-0.582
20.500,-0.456
20.505,-0.160
20.510,0.090
20.515,0.559
20.520,1.356
20.525,0.710
20.530,0.568
20.535,2.265
20.540,1.807
20.545,0.458
20.550,0.957
20.555,1.099
20.560,0.613
20.565,0.234
20.570,-0.162
20.575,-0.007
20.580,0.315
20.585,-0.385
20.590,-0.624
20.595,0.270
20.600,-0.299
20.605,-0.654
20.610,0.087
20.615,-0.368
20.620,-0.966
20.625,-0.775
20.630,-0.534
20.635,-0.665
20.640,-0.590
20.645,-0.289
20.650,-0.444
20.655,-0.632
20.660,-0.473
20.665,-0.364
20.670,-0.518
20.675,-0.511
20.680,-0.481
20.685,-0.514
20.690,-0.300
20.695,-0.091
20.700,-0.041
20.705,-0.168
20.710,-0.193
20.715,-0.058
20.720,-0.158
20.725,-0.288
20.730,-0.226
20.735,-0.222
20.740,-0.262
20.745,-0.209
20.750,-0.146
20.755,-0.126
20.760,-0.052
20.765,0.050
20.770,-0.015
20.775,-0.086
20.780,0.020
20.785,-0.032
20.790,-0.443
20.795,-0.972
20.800,-0.712
20.805,-0.681
20.810,-1.368
20.815,-0.916
20.820,-0.573
20.825,-0.864
20.830,-0.839
20.835,-0.509
20.840,-0.301
20.845,-0.671
20.850,-0.440
20.855,-0.184
20.860,-0.081
20.865,0.204
20.870,-0.155
20.875,0.320
20.880,0.710
20.885,0.142
20.890,0.327
20.895,0.504
20.900,0.355
20.905,0.071
20.910,-0.044
20.915,0.278
20.920,0.238
20.925,0.511
20.930,0.571
20.935,0.243
20.940,0.503
20.945,0.561
20.950,0.529
20.955,0.412
20.960,0.298
20.965,0.437
20.970,0.250
20.975,0.329
20.980,0.580
20.985,0.539
20.990,0.619
20.995,0.622
21.000,0.552
21.005,0.290
21.010,0.168
21.015,0.415
21.020,0.407
21.025,0.526
21.030,0.605
21.035,0.504
21.040,0.570
21.045,0.554
21.050,0.535
21.055,0.522
21.060,0.466
21.065,0.419
21.070,0.473
21.075,0.567
21.080,0.514
21.085,0.412
21.090,0.297
21.095,0.266
21.100,0.336
21.105,0.248
21.110,0.063
21.115,-0.008
21.120,-0.043
21.125,0.049
21.130,0.316
21.135,0.347
21.140,0.195
21.145,0.159
21.150,0.203
21.155,0.233
21.160,0.193
21.165,0.124
21.170,-0.113
21.175,-0.178
21.180,-0.069
21.185,-0.060
21.190,0.066
21.195,0.085
21.200,0.178
21.205,0.255
21.210,0.287
21.215,0.493
21.220,0.429
21.225,0.274
21.230,0.325
21.235,0.237
21.240,0.044
21.245,-0.017
21.250,0.005
21.255,0.041
21.260,0.048
21.265,0.064
21.270,-0.153
21.275,-0.248
21.280,-0.223
21.285,-0.298
21.290,-0.377
21.295,-0.697
21.300,-0.363
21.305,-0.206
21.310,-0.406
21.315,-0.014
21.320,-0.154
21.325,-0.063
21.330,0.153
21.335,-0.107
21.340,0.046
21.345,0.133
21.350,0.111
21.355,0.095
21.360,0.009
21.365,0.005
21.370,-0.097
21.375,0.000
21.380,0.175
21.385,0.094
21.390,0.048
21.395,0.087
21.400,0.152
21.405,0.071
21.410,-0.054
21.415,-0.035
21.420,-0.180
21.425,-0.239
21.430,-0.341
21.435,-0.383
21.440,-0.341
21.445,-0.631
21.450,-0.244
21.455,-0.128
21.460,-0.414
21.465,-0.041
21.470,-0.104
21.475,0.081
21.480,0.364
21.485,0.117
21.490,0.274
21.495,0.351
21.500,0.199
21.505,0.517
21.510,0.738
21.515,0.540
21.520,0.414
21.525,0.289
21.530,0.398
21.535,0.484
21.540,0.315
21.545,0.501
21.550,0.563
21.555,0.501
21.560,0.526
21.565,0.294
21.570,0.350
21.575,0.289
21.580,-0.213
21.585,-0.451
21.590,-1.712
21.595,-2.952
21.600,-1.402
21.605,-0.859
21.610,-2.375
21.615,-1.720
21.620,-0.708
21.625,-0.380
21.630,0.053
21.635,-0.578
21.640,-0.139
21.645,0.642
21.650,0.020
21.655,-0.106
21.660,0.514
21.665,0.509
21.670,-0.160
21.675,0.110
21.680,0.315
21.685,-0.186
21.690,0.059
21.695,0.331
21.700,0.314
21.705,0.309
21.710,0.453
21.715,0.609
21.720,0.409
21.725,0.517
21.730,0.676
21.735,0.457
21.740,0.397
21.745,0.405
21.750,0.281
21.755,0.306
21.760,0.370
21.765,0.307
21.770,0.097
21.775,0.073
21.780,0.203
21.785,0.078
21.790,-0.052
21.795,-0.409
21.800,-0.320
21.805,-0.182
21.810,-0.536
21.815,-0.159
21.820,-0.305
21.825,-0.586
21.830,-0.212
21.835,-0.163
21.840,-0.109
21.845,-0.292
21.850,-0.190
21.855,-0.092
21.860,-0.439
21.865,-0.223
21.870,-0.193
21.875,0.033
21.880,0.467
21.885,0.197
21.890,0.313
21.895,0.559
21.900,0.376
21.905,0.373
21.910,0.541
21.915,0.498
21.920,0.313
21.925,0.330
21.930,0.334
21.935,0.270
21.940,0.376
21.945,0.507
21.950,0.480
21.955,0.404
21.960,0.489
21.965,0.511
21.970,0.322
21.975,0.181
21.980,0.212
21.985,0.164
21.990,0.082
21.995,0.035
22.000,0.042
22.005,0.295
22.010,0.462
22.015,0.483
22.020,0.427
22.025,0.186
22.030,0.214
22.035,0.358
22.040,0.259
22.045,0.443
22.050,0.458
22.055,0.162
22.060,0.159
22.065,0.055
22.070,0.041
22.075,0.054
22.080,-0.077
22.085,-0.055
22.090,-0.111
22.095,-0.078
22.100,-0.073
22.105,-0.252
22.110,-0.259
22.115,-0.197
22.120,-0.304
22.125,-0.302
22.130,-0.232
22.135,-0.345
22.140,-0.397
22.145,-0.350
22.150,-0.208
22.155,-0.287
22.160,-0.466
22.165,-0.342
22.170,-0.455
22.175,-0.549
22.180,-0.572
22.185,-0.623
22.190,-0.376
22.195,-0.208
22.200,-0.036
22.205,-0.016
22.210,-0.082
22.215,-0.035
22.220,-0.118
22.225,-0.075
22.230,-0.115
22.235,-0.287
22.240,-0.264
22.245,-0.339
22.250,-0.228
22.255,-0.237
22.260,-0.344
22.265,0.020
22.270,-0.013
22.275,-0.007
22.280,0.129
22.285,-0.101
22.290,-0.122
22.295,-0.136
22.300,-0.103
22.305,0.000
22.310,-0.010
22.315,0.072
22.320,0.022
22.325,0.052
22.330,0.260
22.335,0.232
22.340,0.167
22.345,0.214
22.350,0.142
22.355,0.062
22.360,0.171
22.365,0.271
22.370,0.149
22.375,0.042
22.380,0.130
22.385,0.177
22.390,0.167
22.395,0.208
22.400,0.132
22.405,-0.061
22.410,-0.061
22.415,0.014
22.420,-0.072
22.425,-0.074
22.430,-0.048
22.435,-0.115
22.440,-0.096
22.445,-0.005
22.450,0.065
22.455,0.030
22.460,0.001
22.465,0.019
22.470,0.053
22.475,0.076
22.480,0.074
22.485,0.083
22.490,0.021
22.495,-0.064
22.500,-0.083
22.505,-0.109
22.510,-0.110
22.515,-0.001
22.520,0.068
22.525,0.088
22.530,0.183
22.535,0.192
22.540,0.041
22.545,0.107
22.550,0.095
22.555,-0.089
22.560,-0.105
22.565,-0.161
22.570,-0.049
22.575,0.087
22.580,0.163
22.585,0.204
22.590,0.016
22.595,0.102
22.600,0.120
22.605,-0.028
22.610,0.082
22.615,0.053
22.620,-0.080
22.625,-0.119
22.630,-0.031
22.635,0.074
22.640,0.069
22.645,0.155
22.650,0.154
22.655,0.059
22.660,0.141
22.665,0.145
22.670,0.085
22.675,-0.031
22.680,0.012
22.685,0.120
22.690,-0.055
22.695,0.050
22.700,0.109
22.705,0.052
22.710,0.210
22.715,0.170
22.720,0.151
22.725,0.017
22.730,-0.083
22.735,0.062
22.740,-0.014
22.745,-0.079
22.750,-0.133
22.755,-0.143
22.760,-0.029
22.765,-0.097
22.770,-0.211
22.775,-0.234
22.780,-0.213
22.785,-0.199
22.790,-0.189
22.795,-0.110
22.800,-0.117
22.805,-0.242
22.810,-0.283
22.815,-0.266
22.820,-0.193
22.825,-0.109
22.830,-0.056
22.835,-0.038
22.840,-0.103
22.845,-0.024
22.850,-0.012
22.855,-0.149
22.860,-0.121
22.865,-0.117
22.870,-0.307
22.875,-0.368
22.880,-0.281
22.885,-0.387
22.890,-0.453
22.895,-0.298
22.900,-0.087
22.905,-0.501
22.910,-0.928
22.915,-0.494
22.920,-0.455
22.925,-0.580
22.930,-0.513
22.935,-0.520
22.940,-0.139
22.945,0.028
22.950,0.016
22.955,0.101
22.960,0.169
22.965,0.219
22.970,0.106
22.975,0.158
22.980,0.236
22.985,0.107
22.990,0.108
22.995,0.034
23.000,-0.034
23.005,0.059
23.010,0.115
23.015,0.254
23.020,0.183
23.025,0.136
23.030,0.262
23.035,0.175
23.040,0.113
23.045,0.102
23.050,0.061
23.055,0.028
23.060,-0.032
23.065,0.024
23.070,0.052
23.075,0.105
23.080,0.189
23.085,0.070
23.090,0.033
23.095,0.064
23.100,0.062
23.105,-0.062
23.110,-0.131
23.115,0.092
23.120,-0.018
23.125,-0.059
23.130,0.119
23.135,-0.057
23.140,-0.107
23.145,-0.107
23.150,-0.039
23.155,-0.012
23.160,-0.126
23.165,0.060
23.170,-0.008
23.175,-0.040
23.180,0.074
23.185,-0.130
23.190,-0.130
23.195,-0.140
23.200,-0.056
23.205,0.041
23.210,-0.086
23.215,0.063
23.220,0.017
23.225,0.037
23.230,0.198
23.235,-0.008
23.240,0.002
23.245,-0.094
23.250,-0.123
23.255,-0.010
23.260,-0.158
23.265,0.041
23.270,0.008
23.275,0.014
23.280,0.261
23.285,0.037
23.290,0.015
23.295,0.113
23.300,0.127
23.305,0.070
23.310,-0.176
23.315,-0.119
23.320,-0.169
23.325,-0.127
23.330,0.197
23.335,0.048
23.340,-0.010
23.345,0.007
23.350,0.030
23.355,0.098
23.360,-0.076
23.365,0.021
23.370,-0.056
23.375,-0.043
23.380,0.210
23.385,0.002
23.390,-0.049
23.395,0.019
23.400,0.105
23.405,0.199
23.410,0.114
23.415,0.187
23.420,0.096
23.425,0.117
23.430,0.249
23.435,0.068
23.440,0.107
23.445,0.087
23.450,0.063
23.455,0.167
23.460,0.082
23.465,0.171
23.470,0.079
23.475,0.012
23.480,0.113
23.485,-0.048
23.490,-0.028
23.495,-0.128
23.500,-0.098
23.505,0.110
23.510,-0.047
23.515,0.051
23.520,0.032
23.525,-0.020
23.530,0.087
23.535,-0.087
23.540,-0.022
23.545,0.024
23.550,0.049
23.555,0.134
23.560,0.027
23.565,0.104
23.570,0.001
23.575,0.010
23.580,0.260
23.585,0.100
23.590,0.088
23.595,0.241
23.600,0.237
23.605,0.264
23.610,0.283
23.615,0.282
23.620,0.212
23.625,0.137
23.630,0.071
23.635,0.060
23.640,0.166
23.645,0.229
23.650,0.225
23.655,0.175
23.660,0.169
23.665,0.201
23.670,-0.106
23.675,-0.246
23.680,0.030
23.685,-0.032
23.690,-0.082
23.695,-0.032
23.700,-0.014
23.705,0.024
23.710,-0.013
23.715,0.134
23.720,-0.004
23.725,-0.112
23.730,0.060
23.735,-0.049
23.740,-0.063
23.745,-0.123
23.750,-0.147
23.755,-0.091
23.760,-0.138
23.765,0.114
23.770,0.054
23.775,-0.024
23.780,0.117
23.785,-0.029
23.790,-0.009
23.795,-0.039
23.800,-0.097
23.805,-0.063
23.810,-0.221
23.815,-0.116
23.820,-0.087
23.825,-0.059
23.830,0.215
23.835,0.123
23.840,0.089
23.845,0.188
23.850,0.109
23.855,0.036
23.860,0.077
23.865,0.149
23.870,0.067
23.875,-0.002
23.880,-0.051
23.885,-0.053
23.890,0.081
23.895,0.168
23.900,0.156
23.905,0.063
23.910,0.095
23.915,0.161
23.920,0.017
23.925,-0.032
23.930,0.087
23.935,0.010
23.940,-0.100
23.945,-0.077
23.950,-0.049
23.955,-0.005
23.960,0.066
23.965,0.151
23.970,0.211
23.975,0.183
23.980,0.362
23.985,0.309
23.990,-0.196
23.995,-0.011
24.000,0.303
24.005,0.441
24.010,0.517
24.015,0.149
24.020,0.184
24.025,0.226
24.030,0.055
24.035,0.087
24.040,-0.082
24.045,0.130
24.050,0.209
24.055,-0.154
24.060,-0.014
24.065,0.009
24.070,-0.062
24.075,-0.013
24.080,0.008
24.085,0.110
24.090,-0.034
24.095,0.042
24.100,0.085
24.105,-0.098
24.110,0.040
24.115,0.013
24.120,-0.048
24.125,-0.063
24.130,-0.263
24.135,-0.151
24.140,-0.007
24.145,0.099
24.150,0.132
24.155,-0.094
24.160,-0.044
24.165,-0.057
24.170,-0.119
24.175,-0.134
24.180,-0.329
24.185,-0.334
24.190,-0.303
24.195,-0.249
24.200,-0.142
24.205,-0.129
24.210,-0.030
24.215,0.008
24.220,-0.111
24.225,-0.176
24.230,-0.072
24.235,0.019
24.240,-0.102
24.245,0.046
24.250,0.118
24.255,-0.119
24.260,0.158
24.265,1.745
24.270,2.729
24.275,0.984
24.280,0.678
24.285,2.185
24.290,1.354
24.295,0.443
24.300,0.162
24.305,-0.241
24.310,0.471
24.315,1.174
24.320,1.443
24.325,0.764
24.330,-0.628
24.335,-1.498
24.340,-0.936
24.345,-0.154
24.350,-1.061
24.355,-1.176
24.360,-0.206
24.365,-0.622
24.370,-1.056
24.375,-0.573
24.380,-0.689
24.385,-1.074
24.390,-0.852
24.395,-0.645
24.400,-0.804
24.405,-0.767
24.410,-0.529
24.415,-0.538
24.420,-0.705
24.425,-0.663
24.430,-0.582
24.435,-0.744
24.440,-0.754
24.445,-0.677
24.450,-0.663
24.455,-0.750
24.460,-0.801
24.465,-0.497
24.470,-0.484
24.475,-0.453
24.480,-0.266
24.485,-0.399
24.490,-0.342
24.495,-0.270
24.500,-0.300
24.505,-0.172
24.510,-0.082
24.515,-0.067
24.520,0.052
24.525,0.108
24.530,0.221
24.535,0.387
24.540,0.153
24.545,0.215
24.550,0.245
24.555,-0.043
24.560,0.136
24.565,0.115
24.570,-0.007
24.575,0.054
24.580,-0.055
24.585,-0.082
24.590,-0.079
24.595,-0.109
24.600,-0.139
24.605,-0.203
24.610,-0.161
24.615,-0.077
24.620,-0.154
24.625,-0.232
24.630,-0.255
24.635,-0.357
24.640,-0.304
24.645,-0.192
24.650,-0.130
24.655,-0.080
24.660,-0.177
24.665,-0.157
24.670,-0.164
24.675,-0.168
24.680,-0.009
24.685,-0.151
24.690,-0.229
24.695,-0.200
24.700,-0.161
24.705,-0.252
24.710,-0.476
24.715,-0.117
24.720,-0.190
24.725,-0.429
24.730,-0.224
24.735,-0.319
24.740,-0.195
24.745,-0.412
24.750,-0.444
24.755,-0.043
24.760,-0.368
24.765,-0.161
24.770,-0.221
24.775,-0.579
24.780,-0.111
24.785,-0.154
24.790,-0.034
24.795,-0.005
24.800,-0.175
24.805,0.215
24.810,0.152
24.815,0.167
24.820,0.103
24.825,0.118
24.830,0.474
24.835,0.134
24.840,0.208
24.845,0.513
24.850,0.357
24.855,0.395
24.860,0.418
24.865,0.418
24.870,0.315
24.875,0.229
24.880,0.226
24.885,0.087
24.890,0.230
24.895,0.495
24.900,0.540
24.905,0.552
24.910,0.655
24.915,0.702
24.920,0.591
24.925,0.562
24.930,0.583
24.935,0.546
24.940,0.512
24.945,0.464
24.950,0.405
24.955,0.379
24.960,0.291
24.965,0.201
24.970,-0.102
24.975,-0.286
24.980,-0.038
24.985,0.002
24.990,0.148
24.995,0.285
25.000,0.245
25.005,0.310
25.010,0.293
25.015,0.306
25.020,0.205
25.025,0.151
25.030,0.287
25.035,0.423
25.040,0.500
25.045,0.687
25.050,0.744
25.055,0.459
25.060,0.557
25.065,0.590
25.070,0.408
25.075,0.347
25.080,0.212
25.085,0.276
25.090,0.258
25.095,0.224
25.100,0.253
25.105,0.170
25.110,0.255
25.115,0.216
25.120,0.097
25.125,0.084
25.130,0.019
25.135,0.024
25.140,-0.035
25.145,-0.018
25.150,0.061
25.155,0.037
25.160,0.119
25.165,0.085
25.170,-0.013
25.175,-0.017
25.180,-0.041
25.185,-0.035
25.190,-0.095
25.195,-0.276
25.200,-0.282
25.205,-0.055
25.210,0.082
25.215,0.072
25.220,-0.050
25.225,-0.106
25.230,-0.019
25.235,-0.037
25.240,-0.161
25.245,-0.121
25.250,-0.133
25.255,-0.303
25.260,-0.233
25.265,-0.146
25.270,-0.154
25.275,-0.080
25.280,-0.033
25.285,-0.043
25.290,-0.125
25.295,-0.071
25.300,-0.064
25.305,-0.240
25.310,-0.133
25.315,-0.041
25.320,-0.182
25.325,-0.154
25.330,-0.016
25.335,0.010
25.340,-0.073
25.345,-0.018
25.350,-0.002
25.355,-0.154
25.360,-0.130
25.365,-0.156
25.370,-0.168
25.375,-0.105
25.380,-0.160
25.385,-0.167
25.390,-0.201
25.395,-0.170
25.400,-0.106
25.405,-0.143
25.410,-0.150
25.415,-0.181
25.420,-0.151
25.425,-0.071
25.430,-0.041
25.435,-0.057
25.440,-0.131
25.445,-0.213
25.450,-0.227
25.455,-0.117
25.460,-0.054
25.465,-0.082
25.470,-0.150
25.475,-0.081
25.480,0.149
25.485,0.025
25.490,-0.234
25.495,-0.011
25.500,0.029
25.505,-0.259
25.510,-0.221
25.515,-0.154
25.520,-0.257
25.525,-0.165
25.530,0.074
25.535,0.027
25.540,-0.103
25.545,-0.006
25.550,-0.008
25.555,-0.119
25.560,-0.048
25.565,0.005
25.570,-0.112
25.575,-0.156
25.580,-0.118
25.585,-0.080
25.590,-0.015
25.595,-0.048
25.600,-0.098
25.605,-0.090
25.610,-0.125
25.615,-0.126
25.620,-0.166
25.625,-0.173
25.630,-0.065
25.635,-0.135
25.640,-0.178
25.645,0.002
25.650,0.058
25.655,-0.024
25.660,-0.089
25.665,-0.110
25.670,-0.006
25.675,-0.006
25.680,-0.134
25.685,-0.074
25.690,0.042
25.695,-0.044
25.700,-0.104
25.705,-0.053
25.710,0.044
25.715,0.164
25.720,0.094
25.725,0.049
25.730,0.096
25.735,0.072
25.740,0.053
25.745,0.097
25.750,0.099
25.755,0.018
25.760,-0.034
25.765,-0.046
25.770,0.038
25.775,0.128
25.780,0.165
25.785,0.119
25.790,0.038
25.795,0.175
25.800,0.240
25.805,0.145
25.810,0.151
25.815,0.073
25.820,-0.107
25.825,-0.163
25.830,-0.138
25.835,-0.183
25.840,-0.114
25.845,0.010
25.850,-0.034
25.855,-0.140
25.860,-0.271
25.865,-0.175
25.870,-0.201
25.875,-0.422
25.880,-0.293
25.885,-0.261
25.890,-0.149
25.895,0.093
25.900,0.121
25.905,0.266
25.910,0.412
25.915,0.343
25.920,0.229
25.925,0.233
25.930,0.237
25.935,0.189
25.940,0.090
25.945,-0.112
25.950,-0.140
25.955,0.002
25.960,0.154
25.965,0.275
25.970,0.121
25.975,0.127
25.980,0.348
25.985,0.290
25.990,0.125
25.995,0.132
26.000,0.121
26.005,0.001
26.010,-0.064
26.015,-0.100
26.020,0.057
26.025,0.215
26.030,0.223
26.035,0.177
26.040,0.058
26.045,0.141
26.050,0.159
26.055,-0.017
26.060,0.028
26.065,0.006
26.070,-0.130
26.075,-0.106
26.080,-0.102
26.085,-0.092
26.090,0.013
26.095,0.038
26.100,-0.045
26.105,-0.160
26.110,-0.135
26.115,-0.025
26.120,-0.092
26.125,-0.206
26.130,-0.215
26.135,-0.262
26.140,-0.190
26.145,0.041
26.150,0.035
26.155,-0.065
26.160,-0.095
26.165,-0.073
26.170,-0.004
26.175,0.018
26.180,0.070
26.185,0.026
26.190,-0.045
26.195,-0.154
26.200,-0.224
26.205,-0.118
26.210,-0.052
26.215,0.051
26.220,0.000
26.225,0.009
26.230,0.211
26.235,0.127
26.240,0.047
26.245,0.143
26.250,0.083
26.255,-0.016
26.260,-0.095
26.265,-0.115
26.270,0.008
26.275,0.124
26.280,0.263
26.285,0.231
26.290,0.100
26.295,0.206
26.300,0.213
26.305,0.072
26.310,0.113
26.315,0.050
26.320,-0.117
26.325,-0.072
26.330,-0.020
26.335,0.057
26.340,0.155
26.345,0.187
26.350,0.223
26.355,0.124
26.360,0.194
26.365,0.192
26.370,-0.034
26.375,-0.013
26.380,0.017
26.385,-0.057
26.390,-0.066
26.395,0.151
26.400,0.298
26.405,0.167
26.410,0.291
26.415,0.319
26.420,0.189
26.425,0.230
26.430,0.135
26.435,0.135
26.440,0.034
26.445,0.083
26.450,0.159
26.455,-0.178
26.460,-0.054
26.465,0.034
26.470,-0.212
26.475,-0.130
26.480,-0.062
26.485,-0.193
26.490,-0.225
26.495,-0.105
26.500,-0.142
26.505,-0.275
26.510,-0.378
26.515,-0.349
26.520,-0.228
26.525,-0.198
26.530,-0.110
26.535,-0.207
26.540,-0.235
26.545,-0.024
26.550,-0.063
26.555,-0.168
26.560,-0.114
26.565,-0.074
26.570,-0.158
26.575,-0.188
26.580,-0.158
26.585,-0.237
26.590,-0.189
26.595,-0.063
26.600,-0.045
26.605,-0.018
26.610,0.003
26.615,0.007
26.620,-0.055
26.625,-0.064
26.630,0.027
26.635,-0.042
26.640,-0.090
26.645,0.018
26.650,0.056
26.655,0.063
26.660,0.186
26.665,0.231
26.670,0.169
26.675,0.208
26.680,0.266
26.685,0.321
26.690,0.160
26.695,0.234
26.700,0.485
26.705,0.296
26.710,0.278
26.715,0.204
26.720,0.181
26.725,0.363
26.730,0.330
26.735,0.445
26.740,0.208
26.745,0.177
26.750,0.310
26.755,-0.066
26.760,0.066
26.765,0.018
26.770,-0.236
26.775,-0.050
26.780,-0.055
26.785,-0.148
26.790,-0.164
26.795,-0.182
26.800,-0.249
26.805,-0.296
26.810,-0.227
26.815,-0.207
26.820,-0.288
26.825,-0.300
26.830,-0.303
26.835,-0.385
26.840,-0.320
26.845,-0.157
26.850,-0.150
26.855,-0.218
26.860,-0.278
26.865,-0.233
26.870,-0.204
26.875,-0.280
26.880,-0.263
26.885,-0.316
26.890,-0.259
26.895,-0.238
26.900,-0.356
26.905,-0.292
26.910,-0.373
26.915,-0.230
26.920,-0.148
26.925,-0.258
26.930,-0.039
26.935,-0.163
26.940,-0.183
26.945,-0.062
26.950,-0.219
26.955,-0.179
26.960,-0.146
26.965,-0.011
26.970,0.000
26.975,-0.066
26.980,0.104
26.985,0.012
26.990,0.043
26.995,0.187
27.000,0.083
27.005,0.071
27.010,0.002
27.015,-0.004
27.020,-0.009
27.025,-0.025
27.030,0.196
27.035,0.165
27.040,0.153
27.045,0.294
27.050,0.214
27.055,0.144
27.060,0.152
27.065,0.128
27.070,0.036
27.075,-0.069
27.080,-0.078
27.085,-0.045
27.090,0.053
27.095,0.202
27.100,0.194
27.105,0.129
27.110,0.190
27.115,0.199
27.120,0.082
27.125,0.048
27.130,0.055
27.135,0.034
27.140,0.104
27.145,0.090
27.150,0.071
27.155,0.198
27.160,0.258
27.165,0.228
27.170,0.092
27.175,0.083
27.180,0.236
27.185,0.139
27.190,0.017
27.195,0.159
27.200,0.168
27.205,0.026
27.210,0.113
27.215,0.168
27.220,0.099
27.225,0.119
27.230,0.111
27.235,0.050
27.240,0.014
27.245,0.130
27.250,0.162
27.255,0.019
27.260,-0.003
27.265,0.010
27.270,-0.092
27.275,-0.103
27.280,0.039
27.285,0.022
27.290,0.010
27.295,-0.009
27.300,-0.064
27.305,0.033
27.310,0.092
27.315,0.085
27.320,0.019
27.325,-0.097
27.330,-0.158
27.335,-0.111
27.340,-0.024
27.345,0.098
27.350,0.102
27.355,-0.032
27.360,0.074
27.365,0.146
27.370,-0.007
27.375,0.037
27.380,0.176
27.385,0.078
27.390,-0.045
27.395,-0.059
27.400,-0.057
27.405,0.017
27.410,0.116
27.415,0.113
27.420,0.009
27.425,0.028
27.430,0.128
27.435,0.024
27.440,-0.101
27.445,0.056
27.450,0.087
27.455,-0.105
27.460,-0.002
27.465,0.079
27.470,0.007
27.475,0.077
27.480,0.124
27.485,0.098
27.490,0.000
27.495,0.078
27.500,0.164
27.505,0.030
27.510,0.137
27.515,0.168
27.520,0.151
27.525,0.286
27.530,0.302
27.535,0.493
27.540,0.300
27.545,0.267
27.550,0.594
27.555,0.251
27.560,0.353
27.565,0.457
27.570,0.246
27.575,0.328
27.580,0.307
27.585,0.573
27.590,0.314
27.595,0.049
27.600,0.281
27.605,0.086
27.610,0.304
27.615,0.297
27.620,0.047
27.625,0.196
27.630,-0.078
27.635,-0.212
27.640,-0.207
27.645,-0.349
27.650,-0.421
27.655,-0.439
27.660,-0.534
27.665,-0.725
27.670,-1.164
27.675,-1.768
27.680,-1.350
27.685,-0.857
27.690,-1.028
27.695,-1.167
27.700,-1.128
27.705,-1.331
27.710,-1.848
27.715,-1.151
27.720,-0.738
27.725,-0.822
27.730,-0.344
27.735,-0.737
27.740,-0.408
27.745,0.000
27.750,-0.583
27.755,-0.453
27.760,-0.696
27.765,-0.705
27.770,-0.545
27.775,-0.994
27.780,-0.498
27.785,-0.463
27.790,-1.476
27.795,-1.556
27.800,-0.588
27.805,-0.211
27.810,-0.591
27.815,-0.501
27.820,0.108
27.825,0.794
27.830,0.658
27.835,-0.163
27.840,0.539
27.845,1.277
27.850,0.685
27.855,1.026
27.860,1.151
27.865,0.415
27.870,-0.156
27.875,-0.598
27.880,-0.159
27.885,0.109
27.890,0.276
27.895,0.600
27.900,0.212
27.905,0.173
27.910,0.203
27.915,0.260
27.920,0.360
27.925,0.238
27.930,0.356
27.935,0.426
27.940,0.890
27.945,1.274
27.950,1.062
27.955,1.103
27.960,1.372
27.965,1.391
27.970,1.432
27.975,1.208
27.980,0.485
27.985,0.190
27.990,0.375
27.995,1.195
28.000,2.117
28.005,1.661
28.010,1.198
28.015,2.503
28.020,2.799
28.025,1.247
28.030,1.562
28.035,2.425
28.040,1.450
28.045,1.160
28.050,1.830
28.055,0.707
28.060,-1.347
28.065,-0.497
28.070,0.538
28.075,-1.384
28.080,-1.523
28.085,-0.320
28.090,-1.105
28.095,-1.397
28.100,-0.237
28.105,-0.075
28.110,-0.693
28.115,-0.202
28.120,0.517
28.125,0.415
28.130,0.265
28.135,0.399
28.140,1.286
28.145,2.035
28.150,0.693
28.155,0.470
28.160,1.805
28.165,1.111
28.170,0.352
28.175,1.121
28.180,0.237
28.185,-1.962
28.190,-1.401
28.195,-1.149
28.200,-2.883
28.205,-2.241
28.210,-1.397
28.215,-1.988
28.220,-2.209
28.225,-2.063
28.230,-1.724
28.235,-1.933
28.240,-2.584
28.245,-2.579
28.250,-1.797
28.255,-1.864
28.260,-2.304
28.265,-1.751
28.270,-1.529
28.275,-1.859
28.280,-1.635
28.285,-1.124
28.290,0.261
28.295,1.147
28.300,0.349
28.305,1.031
28.310,2.017
28.315,0.888
28.320,0.310
28.325,1.130
28.330,1.951
28.335,2.618
28.340,1.924
28.345,1.399
28.350,2.382
28.355,2.023
28.360,1.221
28.365,0.821
28.370,0.320
28.375,0.538
28.380,-0.439
28.385,-1.517
28.390,-0.477
28.395,-0.313
28.400,-1.195
28.405,-0.596
28.410,-0.149
28.415,-0.589
28.420,-0.914
28.425,-1.434
28.430,-1.302
28.435,-1.093
28.440,-2.317
28.445,-2.425
28.450,-1.026
28.455,-1.474
28.460,-2.157
28.465,-1.217
28.470,-1.069
28.475,-1.659
28.480,-1.271
28.485,-0.890
28.490,-1.216
28.495,-1.159
28.500,-0.802
28.505,-0.888
28.510,-0.958
28.515,-0.718
28.520,-0.661
28.525,-0.735
28.530,-0.609
28.535,-0.501
28.540,-0.378
28.545,-0.279
28.550,-0.355
28.555,0.491
28.560,1.093
28.565,0.197
28.570,0.323
28.575,1.320
28.580,0.939
28.585,0.042
28.590,0.442
28.595,0.702
28.600,0.158
28.605,-0.387
28.610,-0.907
28.615,-0.102
28.620,0.196
28.625,-0.680
28.630,-0.261
28.635,0.222
28.640,-0.291
28.645,-0.279
28.650,0.148
28.655,0.292
28.660,0.421
28.665,0.338
28.670,0.277
28.675,0.353
28.680,0.292
28.685,0.173
28.690,-0.091
28.695,-0.079
28.700,0.264
28.705,1.332
28.710,2.108
28.715,1.006
28.720,0.593
28.725,1.505
28.730,1.314
28.735,0.518
28.740,1.276
28.745,1.754
28.750,1.186
28.755,1.960
28.760,1.948
28.765,0.911
28.770,-0.016
28.775,-1.355
28.780,-0.612
28.785,0.458
28.790,-0.732
28.795,-0.834
28.800,0.858
28.805,2.290
28.810,3.206
28.815,2.974
28.820,2.005
28.825,1.753
28.830,0.985
28.835,0.692
28.840,1.867
28.845,1.686
28.850,0.381
28.855,-0.159
28.860,-0.042
28.865,0.007
28.870,0.519
28.875,0.138
28.880,-0.667
28.885,-0.580
28.890,-1.737
28.895,-1.590
28.900,-0.296
28.905,-0.331
28.910,0.925
28.915,1.918
28.920,1.691
28.925,2.135
28.930,2.594
28.935,2.830
28.940,2.079
28.945,1.751
28.950,2.428
28.955,1.960
28.960,1.278
28.965,0.051
28.970,-1.262
28.975,0.018
28.980,0.760
28.985,0.320
28.990,0.857
28.995,1.123
29.000,1.830
29.005,1.692
29.010,0.655
29.015,1.223
29.020,1.498
29.025,0.698
29.030,0.775
29.035,1.127
29.040,0.706
29.045,0.514
29.050,0.760
29.055,0.611
29.060,0.362
29.065,0.459
29.070,0.448
29.075,0.248
29.080,0.234
29.085,0.262
29.090,0.137
29.095,0.069
29.100,0.086
29.105,0.020
29.110,-0.058
29.115,-0.066
29.120,-0.098
29.125,-0.164
29.130,-0.189
29.135,-0.208
29.140,-0.256
29.145,-0.289
29.150,-0.306
29.155,-0.338
29.160,-0.371
29.165,-0.388
29.170,-0.410
29.175,-0.438
29.180,-0.455
29.185,-0.471
29.190,-0.492
29.195,-0.509
29.200,-0.522
29.205,-0.537
29.210,-0.551
29.215,-0.561
29.220,-0.572
29.225,-0.583
29.230,-0.591
29.235,-0.598
29.240,-0.606
29.245,-0.612
29.250,-0.616
29.255,-0.621
29.260,-0.624
29.265,-0.627
29.270,-0.629
29.275,-0.630
29.280,-0.631
29.285,-0.630
29.290,-0.630
29.295,-0.766
29.300,-1.021
29.305,-0.909
29.310,-0.759
29.315,-2.128
29.320,-2.527
29.325,-0.852
29.330,-1.510
29.335,-2.547
29.340,-1.563
29.345,-1.383
29.350,-2.027
29.355,-1.784
29.360,-1.224
29.365,-1.827
29.370,-2.047
29.375,-1.351
29.380,-1.565
29.385,-1.709
29.390,-1.264
29.395,-1.046
29.400,-0.981
29.405,-1.062
29.410,-0.489
29.415,0.212
29.420,0.073
29.425,-0.368
29.430,0.460
29.435,1.666
29.440,0.400
29.445,-0.300
29.450,0.168
29.455,-0.353
29.460,-0.039
29.465,-0.135
29.470,-0.418
29.475,0.048
29.480,0.524
29.485,1.301
29.490,0.565
29.495,0.017
29.500,1.015
29.505,0.749
29.510,0.111
29.515,0.623
29.520,0.745
29.525,0.264
29.530,-0.154
29.535,-0.463
29.540,-0.144
29.545,-0.039
29.550,-0.779
29.555,-0.664
29.560,0.262
29.565,0.765
29.570,0.836
29.575,0.233
29.580,-0.112
29.585,-0.026
29.590,-0.082
29.595,-0.193
29.600,-1.005
29.605,-0.970
29.610,0.056
29.615,-0.834
29.620,-1.227
29.625,-0.130
29.630,-0.685
29.635,-0.982
29.640,-0.416
29.645,-0.567
29.650,-0.692
29.655,-0.549
29.660,-0.281
29.665,-0.526
29.670,-0.550
29.675,-0.095
29.680,-0.374
29.685,-0.312
29.690,-0.212
29.695,-0.471
29.700,-0.328
29.705,-0.356
29.710,-0.288
29.715,-0.396
29.720,-0.385
29.725,-0.022
29.730,-0.264
29.735,-0.170
29.740,-0.065
29.745,-0.182
29.750,0.142
29.755,-0.040
29.760,0.110
29.765,0.325
29.770,0.011
29.775,0.201
29.780,0.161
29.785,0.254
29.790,0.235
29.795,-0.079
29.800,0.283
29.805,0.181
29.810,0.155
29.815,0.283
29.820,0.046
29.825,0.324
29.830,0.265
29.835,0.227
29.840,0.237
29.845,0.014
29.850,0.243
29.855,0.096
29.860,0.252
29.865,0.301
29.870,-0.178
29.875,0.181
29.880,0.649
29.885,0.708
29.890,0.242
29.895,0.773
29.900,2.307
29.905,1.517
29.910,0.426
29.915,1.526
29.920,1.640
29.925,0.622
29.930,0.997
29.935,1.419
29.940,0.808
29.945,0.729
29.950,1.110
29.955,0.861
29.960,0.620
29.965,0.835
29.970,0.800
29.975,0.571
29.980,0.631
29.985,0.678
29.990,0.525
29.995,0.491
30.000,0.541
30.005,0.461
30.010,0.393
30.015,0.416
30.020,0.383
30.025,0.316
30.030,0.310
30.035,0.297
30.040,0.246
30.045,0.223
30.050,0.215
30.055,0.180
30.060,0.151
30.065,0.140
30.070,0.117
30.075,0.089
30.080,0.074
30.085,0.058
30.090,0.035
30.095,0.019
30.100,0.005
30.105,-0.014
30.110,-0.030
30.115,-0.042
30.120,-0.056
30.125,-0.071
30.130,-0.082
30.135,-0.094
30.140,-0.106
30.145,-0.117
30.150,-0.127
30.155,-0.137
30.160,-0.146
30.165,-0.154
30.170,-0.162
30.175,-0.170
30.180,-0.177
30.185,-0.183
30.190,-0.189
30.195,-0.195
30.200,-0.200
30.205,-0.205
30.210,-0.209
30.215,-0.213
30.220,-0.216
30.225,-0.220
30.230,-0.222
30.235,-0.225
30.240,-0.227
30.245,-0.229
30.250,-0.231
30.255,-0.232
30.260,-0.233
30.265,-0.234
30.270,-0.234
30.275,-0.234
30.280,-0.234
30.285,-0.234
30.290,-0.234
30.295,-0.233
30.300,-0.232
30.305,-0.231
30.310,-0.230
30.315,-0.228
30.320,-0.226
30.325,-0.225
30.330,-0.223
30.335,-0.221
30.340,-0.219
30.345,-0.216
30.350,-0.214
30.355,-0.211
30.360,-0.209
30.365,-0.206
30.370,-0.203
30.375,-0.201
30.380,-0.198
30.385,-0.195
30.390,-0.192
30.395,-0.188
30.400,-0.185
30.405,-0.182
30.410,-0.179
30.415,-0.176
30.420,-0.172
30.425,-0.169
30.430,-0.182
30.435,-0.184
30.440,-0.159
30.445,-0.152
30.450,-0.148
30.455,-0.147
30.460,-0.148
30.465,-0.137
30.470,-0.136
30.475,-0.137
30.480,-0.129
30.485,-0.125
30.490,-0.126
30.495,-0.121
30.500,-0.116
30.505,-0.115
30.510,-0.112
30.515,-0.107
30.520,-0.104
30.525,-0.102
30.530,-0.098
30.535,-0.095
30.540,-0.093
30.545,-0.089
30.550,-0.086
30.555,-0.085
30.560,-0.082
30.565,-0.078
30.570,-0.075
30.575,-0.073
30.580,-0.071
30.585,-0.070
30.590,-0.066
30.595,-0.062
30.600,-0.060
30.605,-0.057
30.610,-0.065
30.615,-0.072
30.620,-0.058
30.625,-0.046
30.630,-0.043
30.635,-0.041
30.640,-0.043
30.645,-0.038
30.650,-0.035
30.655,-0.037
30.660,-0.033
30.665,-0.029
30.670,-0.030
30.675,-0.028
30.680,-0.026
30.685,-0.026
30.690,-0.024
30.695,-0.021
30.700,-0.019
30.705,-0.024
30.710,-0.033
30.715,-0.027
30.720,-0.013
30.725,-0.010
30.730,-0.009
30.735,-0.025
30.740,-0.037
30.745,-0.016
30.750,-0.004
30.755,-0.001
30.760,0.000
30.765,-0.042
30.770,-0.049
30.775,-0.004
30.780,-0.002
30.785,0.011
30.790,0.010
30.795,-0.029
30.800,-0.020
30.805,0.001
30.810,-0.002
30.815,0.019
30.820,0.016
30.825,0.004
30.830,0.019
30.835,0.013
30.840,0.007
30.845,0.015
30.850,0.017
30.855,0.012
30.860,-0.012
30.865,-0.031
30.870,-0.009
30.875,0.007
30.880,0.017
30.885,0.022
30.890,-0.042
30.895,-0.049
30.900,0.022
30.905,0.025
30.910,0.032
30.915,0.024
30.920,-0.053
30.925,-0.041
30.930,-0.006
30.935,-0.021
30.940,0.023
30.945,-0.004
30.950,-0.065
30.955,-0.066
30.960,-0.199
30.965,-0.194
30.970,0.021
30.975,0.026
30.980,-0.009
30.985,-0.056
30.990,-0.100
30.995,0.011
31.000,0.033
31.005,-0.072
31.010,-0.164
31.015,-0.150
31.020,-0.026
31.025,-0.053
31.030,-0.117
31.035,0.029
31.040,0.047
31.045,-0.122
31.050,-0.166
31.055,-0.079
31.060,0.018
31.065,0.090
31.070,-0.033
31.075,-0.366
31.080,-0.352
31.085,-0.005
31.090,-0.107
31.095,-0.445
31.100,-0.463
31.105,-0.087
31.110,0.179
31.115,0.034
31.120,-0.195
31.125,-0.196
31.130,0.036
31.135,0.110
31.140,-0.258
31.145,-0.429
31.150,-0.080
31.155,0.188
31.160,0.283
31.165,0.116
31.170,-0.135
31.175,0.104
31.180,0.293
31.185,0.034
31.190,-0.124
31.195,-0.110
31.200,0.062
31.205,0.162
31.210,-0.087
31.215,-0.217
31.220,0.152
31.225,0.160
31.230,-0.214
31.235,-0.280
31.240,-0.343
31.245,-0.132
31.250,0.194
31.255,-0.127
31.260,-0.425
31.265,-0.223
31.270,0.149
31.275,0.110
31.280,-0.217
31.285,-0.192
31.290,-0.145
31.295,-0.358
31.300,-0.355
31.305,-0.124
31.310,-0.057
31.315,0.109
31.320,-0.086
31.325,-1.321
31.330,-1.534
31.335,-0.254
31.340,-0.472
31.345,-1.524
31.350,-1.689
31.355,-1.567
31.360,-1.494
31.365,-1.122
31.370,-0.363
31.375,0.309
31.380,0.414
31.385,0.071
31.390,0.112
31.395,0.625
31.400,0.550
31.405,0.370
31.410,0.404
31.415,0.053
31.420,0.053
31.425,0.406
31.430,0.597
31.435,0.266
31.440,-0.141
31.445,0.086
31.450,0.347
31.455,0.339
31.460,0.135
31.465,-0.161
31.470,0.071
31.475,0.098
31.480,-0.202
31.485,-0.192
31.490,-0.318
31.495,-0.428
31.500,-0.164
31.505,-0.068
31.510,-0.095
31.515,0.041
31.520,0.124
31.525,0.070
31.530,-0.028
31.535,-0.091
31.540,-0.023
31.545,-0.095
31.550,-0.247
31.555,-0.279
31.560,-0.193
31.565,0.610
31.570,0.460
31.575,-0.431
31.580,0.054
31.585,0.486
31.590,-0.348
31.595,-0.511
31.600,-0.033
31.605,-0.484
31.610,-0.477
31.615,0.107
31.620,0.000
31.625,-0.172
31.630,0.053
31.635,0.086
31.640,-0.179
31.645,-0.172
31.650,-0.070
31.655,-0.206
31.660,-0.259
31.665,-0.104
31.670,-0.023
31.675,-0.047
31.680,0.093
31.685,0.177
31.690,0.126
31.695,0.093
31.700,0.045
31.705,-0.010
31.710,0.048
31.715,0.147
31.720,0.227
31.725,0.166
31.730,-0.056
31.735,0.075
31.740,0.275
31.745,0.193
31.750,0.201
31.755,0.246
31.760,0.206
31.765,0.219
31.770,0.298
31.775,0.271
31.780,0.208
31.785,0.047
31.790,-0.004
31.795,0.021
31.800,-0.001
31.805,0.235
31.810,0.213
31.815,0.224
31.820,0.450
31.825,0.420
31.830,0.391
31.835,0.338
31.840,0.228
31.845,0.206
31.850,0.130
31.855,0.064
31.860,0.007
31.865,0.034
31.870,0.254
31.875,0.378
31.880,0.445
31.885,0.413
31.890,0.281
31.895,0.247
31.900,0.190
31.905,0.143
31.910,0.119
31.915,0.171
31.920,0.202
31.925,0.115
31.930,0.117
31.935,0.211
31.940,0.345
31.945,0.319
31.950,0.283
31.955,0.312
31.960,0.247
31.965,0.202
31.970,0.101
31.975,0.010
31.980,0.042
31.985,0.141
31.990,0.292
31.995,0.395
32.000,0.402
32.005,0.337
32.010,0.310
32.015,0.263
32.020,0.258
32.025,0.200
32.030,0.002
32.035,0.043
32.040,0.155
32.045,0.032
32.050,0.029
32.055,0.219
32.060,0.189
32.065,0.198
32.070,0.295
32.075,0.194
32.080,0.095
32.085,0.198
32.090,0.215
32.095,0.076
32.100,0.007
32.105,-0.036
32.110,-0.114
32.115,-0.039
32.120,0.277
32.125,0.306
32.130,0.156
32.135,0.148
32.140,0.110
32.145,0.233
32.150,0.306
32.155,0.183
32.160,0.061
32.165,-0.045
32.170,-0.057
32.175,-0.028
32.180,0.000
32.185,0.036
32.190,0.116
32.195,0.171
32.200,0.212
32.205,0.241
32.210,0.127
32.215,0.028
32.220,0.154
32.225,0.110
32.230,-0.114
32.235,-0.129
32.240,-0.075
32.245,0.063
32.250,0.166
32.255,0.161
32.260,0.123
32.265,0.048
32.270,0.056
32.275,0.051
32.280,-0.010
32.285,-0.026
32.290,-0.067
32.295,-0.296
32.300,-0.255
32.305,0.086
32.310,0.184
32.315,0.200
32.320,0.116
32.325,0.065
32.330,0.081
32.335,0.095
32.340,0.032
32.345,-0.178
32.350,-0.212
32.355,-0.143
32.360,-0.148
32.365,-0.084
32.370,0.096
32.375,0.123
32.380,0.071
32.385,0.117
32.390,0.044
32.395,-0.048
32.400,-0.059
32.405,-0.137
32.410,-0.161
32.415,-0.142
32.420,-0.231
32.425,-0.224
32.430,-0.094
32.435,0.023
32.440,0.108
32.445,0.070
32.450,0.027
32.455,-0.029
32.460,-0.063
32.465,-0.026
32.470,0.092
32.475,0.048
32.480,-0.157
32.485,-0.083
32.490,0.012
32.495,0.081
32.500,0.127
32.505,0.022
32.510,0.000
32.515,0.011
32.520,0.106
32.525,0.124
32.530,-0.070
32.535,-0.051
32.540,-0.033
32.545,-0.225
32.550,-0.132
32.555,0.081
32.560,-0.022
32.565,-0.051
32.570,0.048
32.575,0.050
32.580,0.050
32.585,0.081
32.590,0.035
32.595,-0.071
32.600,-0.166
32.605,-0.202
32.610,-0.302
32.615,-0.285
32.620,0.093
32.625,0.167
32.630,0.055
32.635,0.136
32.640,0.096
32.645,0.066
32.650,0.141
32.655,0.084
32.660,-0.070
32.665,-0.185
32.670,-0.288
32.675,-0.187
32.680,0.017
32.685,0.124
32.690,0.167
32.695,0.057
32.700,0.045
32.705,0.042
32.710,-0.067
32.715,-0.127
32.720,-0.188
32.725,-0.282
32.730,-0.341
32.735,-0.198
32.740,-0.007
32.745,0.062
32.750,0.096
32.755,0.095
32.760,0.032
32.765,-0.024
32.770,-0.084
32.775,-0.152
32.780,-0.167
32.785,-0.084
32.790,-0.010
32.795,-0.231
32.800,-0.274
32.805,0.033
32.810,-0.022
32.815,-0.080
32.820,-0.025
32.825,-0.117
32.830,-0.050
32.835,-0.058
32.840,-0.094
32.845,0.014
32.850,-0.129
32.855,-0.178
32.860,-0.176
32.865,-0.159
32.870,0.151
32.875,0.080
32.880,-0.020
32.885,0.088
32.890,0.057
32.895,0.072
32.900,0.045
32.905,0.025
32.910,-0.068
32.915,-0.132
32.920,-0.083
32.925,-0.174
32.930,-0.215
32.935,-0.176
32.940,-0.009
32.945,0.157
32.950,0.178
32.955,0.212
32.960,0.048
32.965,-0.055
32.970,0.030
32.975,-0.062
32.980,-0.087
32.985,-0.057
32.990,-0.042
32.995,-0.156
33.000,-0.126
33.005,0.259
33.010,0.187
33.015,0.125
33.020,0.214
33.025,0.060
33.030,0.057
33.035,-0.171
33.040,-0.280
33.045,-0.167
33.050,-0.171
33.055,0.118
33.060,-0.003
33.065,-0.107
33.070,0.106
33.075,-0.011
33.080,0.089
33.085,0.083
33.090,-0.048
33.095,-0.091
33.100,-0.381
33.105,-0.278
33.110,-0.271
33.115,-0.311
33.120,0.102
33.125,-0.001
33.130,-0.041
33.135,-0.005
33.140,-0.086
33.145,-0.052
33.150,-0.301
33.155,-0.181
33.160,-0.161
33.165,-0.176
33.170,0.104
33.175,-0.099
33.180,-0.050
33.185,0.435
33.190,0.545
33.195,0.467
33.200,0.575
33.205,0.513
33.210,0.433
33.215,0.437
33.220,0.468
33.225,0.425
33.230,0.175
33.235,0.193
33.240,0.243
33.245,0.291
33.250,0.461
33.255,0.491
33.260,0.484
33.265,0.372
33.270,0.324
33.275,0.363
33.280,0.193
33.285,0.310
33.290,0.272
33.295,-0.196
33.300,-0.172
33.305,-0.011
33.310,0.090
33.315,0.237
33.320,0.231
33.325,0.331
33.330,0.270
33.335,0.260
33.340,0.239
33.345,0.068
33.350,0.233
33.355,0.249
33.360,-0.086
33.365,-0.242
33.370,-0.161
33.375,0.013
33.380,0.203
33.385,0.264
33.390,0.257
33.395,0.229
33.400,0.293
33.405,0.292
33.410,0.196
33.415,-0.002
33.420,0.102
33.425,0.314
33.430,-0.031
33.435,-0.007
33.440,0.115
33.445,0.123
33.450,0.358
33.455,0.307
33.460,0.359
33.465,0.155
33.470,0.028
33.475,0.085
33.480,-0.292
33.485,-0.156
33.490,-0.096
33.495,-0.109
33.500,0.168
33.505,-0.027
33.510,-0.039
33.515,-0.052
33.520,-0.273
33.525,-0.292
33.530,-0.384
33.535,-0.271
33.540,-0.337
33.545,-0.569
33.550,-0.432
33.555,-0.408
33.560,-0.298
33.565,-0.151
33.570,-0.304
33.575,-0.413
33.580,-0.445
33.585,-0.403
33.590,-0.391
33.595,-0.500
33.600,-0.669
33.605,-0.634
33.610,-0.698
33.615,-0.723
33.620,-0.388
33.625,-0.495
33.630,-0.718
33.635,-0.811
33.640,-0.603
33.645,-0.436
33.650,-0.803
33.655,-0.640
33.660,-0.451
33.665,-0.452
33.670,-0.306
33.675,-0.541
33.680,-0.456
33.685,-0.108
33.690,-0.039
33.695,-0.134
33.700,-0.048
33.705,0.153
33.710,0.055
33.715,0.177
33.720,0.211
33.725,-0.112
33.730,-0.114
33.735,-0.228
33.740,-0.244
33.745,-0.212
33.750,-0.201
33.755,0.295
33.760,0.219
33.765,0.129
33.770,0.262
33.775,0.122
33.780,0.277
33.785,0.159
33.790,-0.035
33.795,-0.009
33.800,-0.046
33.805,0.115
33.810,0.030
33.815,0.021
33.820,0.388
33.825,0.400
33.830,0.355
33.835,0.423
33.840,0.267
33.845,0.121
33.850,0.145
33.855,0.216
33.860,-0.083
33.865,-0.196
33.870,0.320
33.875,0.265
33.880,-0.128
33.885,0.243
33.890,0.582
33.895,0.147
33.900,0.039
33.905,0.265
33.910,-0.004
33.915,-0.184
33.920,-0.149
33.925,-0.176
33.930,-0.265
33.935,0.035
33.940,0.551
33.945,-0.563
33.950,-2.219
33.955,-1.608
33.960,-0.314
33.965,-0.517
33.970,-0.821
33.975,-0.408
33.980,0.006
33.985,0.316
33.990,0.460
33.995,0.194
34.000,0.375
34.005,0.822
34.010,0.689
34.015,0.832
34.020,1.036
34.025,0.756
34.030,0.614
34.035,0.858
34.040,0.899
34.045,0.691
34.050,0.542
34.055,0.416
34.060,0.113
34.065,-0.086
34.070,-0.070
34.075,-0.218
34.080,-0.597
34.085,-0.872
34.090,-0.447
34.095,-0.214
34.100,-0.938
34.105,-1.285
34.110,-0.689
34.115,-0.408
34.120,-0.610
34.125,-0.590
34.130,-0.731
34.135,-0.670
34.140,-0.129
34.145,-0.052
34.150,0.550
34.155,0.914
34.160,0.252
34.165,0.655
34.170,0.823
34.175,0.056
34.180,0.250
34.185,0.524
34.190,0.165
34.195,0.052
34.200,0.443
34.205,0.858
34.210,0.633
34.215,0.464
34.220,0.639
34.225,0.495
34.230,0.485
34.235,0.435
34.240,0.057
34.245,0.117
34.250,0.340
34.255,0.288
34.260,0.297
34.265,0.490
34.270,0.409
34.275,0.279
34.280,0.417
34.285,0.329
34.290,0.151
34.295,0.115
34.300,0.158
34.305,0.320
34.310,0.183
34.315,0.035
34.320,0.300
34.325,0.414
34.330,0.429
34.335,0.636
34.340,0.731
34.345,0.764
34.350,0.615
34.355,0.499
34.360,0.627
34.365,0.260
34.370,-0.162
34.375,-0.261
34.380,-0.332
34.385,-0.103
34.390,0.082
34.395,-0.080
34.400,-0.079
34.405,-0.122
34.410,-0.167
34.415,-0.007
34.420,0.010
34.425,-0.155
34.430,-0.426
34.435,-0.368
34.440,-0.094
34.445,-0.395
34.450,-0.486
34.455,-0.014
34.460,0.010
34.465,-0.074
34.470,0.161
34.475,0.131
34.480,-0.324
34.485,-0.447
34.490,-0.291
34.495,-0.446
34.500,-0.501
34.505,-0.439
34.510,-0.614
34.515,-0.852
34.520,-0.489
34.525,0.083
34.530,-0.514
34.535,-1.122
34.540,-0.636
34.545,-0.432
34.550,-1.259
34.555,-1.578
34.560,-0.940
34.565,-1.023
34.570,-1.290
34.575,-0.691
34.580,-0.823
34.585,-1.453
34.590,-0.922
34.595,-0.195
34.600,0.045
34.605,-0.004
34.610,-0.332
34.615,-0.169
34.620,0.132
34.625,-0.060
34.630,-0.127
34.635,0.064
34.640,0.140
34.645,0.020
34.650,0.031
34.655,0.154
34.660,0.108
34.665,-0.025
34.670,-0.088
34.675,-0.173
34.680,-0.061
34.685,0.146
34.690,0.150
34.695,-0.043
34.700,0.044
34.705,0.298
34.710,0.251
34.715,0.038
34.720,-0.224
34.725,-0.051
34.730,0.159
34.735,0.175
34.740,0.293
34.745,0.043
34.750,-0.170
34.755,-0.010
34.760,-0.102
34.765,-0.365
34.770,-0.478
34.775,-0.221
34.780,-0.236
34.785,-0.459
34.790,-0.096
34.795,0.036
34.800,-0.317
34.805,-0.264
34.810,0.045
34.815,0.309
34.820,0.492
34.825,0.192
34.830,-0.097
34.835,0.351
34.840,0.737
34.845,0.690
34.850,0.637
34.855,0.547
34.860,0.640
34.865,0.914
34.870,1.183
34.875,1.107
34.880,0.779
34.885,0.740
34.890,0.798
34.895,0.652
34.900,0.539
34.905,0.402
34.910,0.420
34.915,0.388
34.920,0.408
34.925,0.550
34.930,0.358
34.935,0.167
34.940,0.208
34.945,0.096
34.950,0.086
34.955,0.143
34.960,-0.043
34.965,0.043
34.970,0.266
34.975,0.407
34.980,0.469
34.985,0.333
34.990,0.251
34.995,0.342
35.000,0.539
35.005,0.797
35.010,0.511
35.015,0.110
35.020,0.255
35.025,0.473
35.030,0.617
35.035,0.533
35.040,0.019
35.045,0.030
35.050,0.387
35.055,0.539
35.060,0.528
35.065,0.180
35.070,0.021
35.075,0.260
35.080,0.455
35.085,0.582
35.090,0.514
35.095,0.296
35.100,0.422
35.105,0.524
35.110,0.446
35.115,0.313
35.120,0.057
35.125,-0.166
35.130,-0.233
35.135,-0.293
35.140,-0.373
35.145,-0.505
35.150,-0.424
35.155,-0.204
35.160,0.019
35.165,0.374
35.170,0.690
35.175,0.857
35.180,0.908
35.185,0.875
35.190,1.303
35.195,1.636
35.200,0.827
35.205,0.555
35.210,1.248
35.215,1.252
35.220,0.653
35.225,0.216
35.230,0.208
35.235,0.470
35.240,0.583
35.245,0.518
35.250,0.126
35.255,0.106
35.260,0.626
35.265,0.587
35.270,0.178
35.275,0.166
35.280,0.195
35.285,0.220
35.290,0.127
35.295,-0.257
35.300,-0.170
35.305,0.370
35.310,0.517
35.315,0.150
35.320,-0.307
35.325,-0.428
35.330,-0.169
35.335,-0.107
35.340,-0.518
35.345,-0.851
35.350,-0.552
35.355,-0.523
35.360,-1.211
35.365,-1.269
35.370,-0.771
35.375,-0.817
35.380,-0.922
35.385,-0.993
35.390,-1.270
35.395,-1.302
35.400,-0.964
35.405,-0.962
35.410,-1.263
35.415,-1.234
35.420,-0.950
35.425,-0.888
35.430,-0.831
35.435,-0.901
35.440,-1.281
35.445,-1.168
35.450,-0.616
35.455,-0.361
35.460,-0.507
35.465,-0.668
35.470,-0.856
35.475,-0.930
35.480,-0.599
35.485,-0.407
35.490,-0.845
35.495,-0.941
35.500,-0.555
35.505,-0.473
35.510,-0.559
35.515,-0.726
35.520,-0.926
35.525,-0.798
35.530,-0.712
35.535,-0.751
35.540,-0.683
35.545,-0.715
35.550,-0.654
35.555,-0.605
35.560,-0.670
35.565,-0.421
35.570,-0.433
35.575,-0.663
35.580,-0.405
35.585,-0.096
35.590,0.081
35.595,0.088
35.600,-0.015
35.605,0.041
35.610,0.326
35.615,0.291
35.620,0.187
35.625,0.191
35.630,0.048
35.635,0.092
35.640,0.206
35.645,0.335
35.650,0.388
35.655,0.213
35.660,0.276
35.665,0.317
35.670,0.322
35.675,0.338
35.680,0.080
35.685,0.039
35.690,0.221
35.695,0.472
35.700,0.568
35.705,0.399
35.710,0.333
35.715,0.459
35.720,0.697
35.725,0.613
35.730,0.208
35.735,0.208
35.740,0.216
35.745,0.178
35.750,0.173
35.755,0.037
35.760,0.090
35.765,0.306
35.770,0.335
35.775,0.234
35.780,0.178
35.785,0.129
35.790,0.026
35.795,-0.039
35.800,-0.072
35.805,-0.087
35.810,-0.253
35.815,-0.294
35.820,0.053
35.825,0.059
35.830,0.048
35.835,0.050
35.840,-0.205
35.845,-0.189
35.850,-0.068
35.855,0.077
35.860,0.136
35.865,-0.189
35.870,-0.159
35.875,0.058
35.880,-0.004
35.885,0.210
35.890,0.381
35.895,0.154
35.900,0.144
35.905,0.297
35.910,0.529
35.915,0.559
35.920,0.293
35.925,0.197
35.930,0.155
35.935,0.256
35.940,0.414
35.945,0.154
35.950,-0.174
35.955,-0.078
35.960,0.153
35.965,0.328
35.970,0.193
35.975,0.040
35.980,0.009
35.985,0.150
35.990,0.280
35.995,-0.004
36.000,-0.251
36.005,-0.028
36.010,0.289
36.015,0.303
36.020,0.103
36.025,-0.038
36.030,0.118
36.035,0.491
36.040,0.635
36.045,0.450
36.050,-0.014
36.055,-0.280
36.060,-0.116
36.065,-0.061
36.070,0.091
36.075,0.076
36.080,-0.198
36.085,-0.024
36.090,0.140
36.095,0.100
36.100,0.167
36.105,-0.270
36.110,-0.519
36.115,-0.295
36.120,-0.133
36.125,-0.057
36.130,-0.250
36.135,-0.364
36.140,-0.180
36.145,-0.071
36.150,0.113
36.155,0.046
36.160,-0.391
36.165,-0.497
36.170,-0.369
36.175,-0.326
36.180,-0.240
36.185,-0.217
36.190,-0.256
36.195,-0.142
36.200,0.063
36.205,0.240
36.210,0.087
36.215,-0.094
36.220,0.028
36.225,0.207
36.230,0.156
36.235,-0.068
36.240,-0.303
36.245,-0.272
36.250,-0.008
36.255,0.102
36.260,-0.238
36.265,-0.630
36.270,-0.624
36.275,-0.438
36.280,-0.237
36.285,-0.216
36.290,-0.334
36.295,-0.582
36.300,-0.629
36.305,-0.141
36.310,0.058
36.315,-0.101
36.320,-0.390
36.325,-0.561
36.330,-0.381
36.335,-0.313
36.340,-0.127
36.345,-0.245
36.350,-0.502
36.355,-0.342
36.360,0.038
36.365,0.296
36.370,0.067
36.375,-0.219
36.380,-0.044
36.385,0.190
36.390,0.294
36.395,0.277
36.400,0.218
36.405,0.428
36.410,0.527
36.415,0.269
36.420,0.074
36.425,-0.025
36.430,-0.036
36.435,-0.019
36.440,-0.224
36.445,-0.488
36.450,-0.551
36.455,-0.243
36.460,-0.020
36.465,-0.002
36.470,0.005
36.475,0.027
36.480,0.040
36.485,0.081
36.490,0.040
36.495,0.034
36.500,0.163
36.505,0.071
36.510,-0.194
36.515,-0.065
36.520,0.318
36.525,0.413
36.530,0.275
36.535,0.219
36.540,0.269
36.545,0.448
36.550,0.587
36.555,0.385
36.560,0.083
36.565,-0.065
36.570,-0.119
36.575,-0.209
36.580,-0.475
36.585,-0.814
36.590,-0.510
36.595,-0.497
36.600,-1.016
36.605,-0.752
36.610,-0.487
36.615,-0.801
36.620,-0.903
36.625,-0.612
36.630,-0.599
36.635,-0.958
36.640,-0.695
36.645,-0.645
36.650,-1.363
36.655,-0.995
36.660,-0.420
36.665,-0.935
36.670,-0.942
36.675,-0.439
36.680,-0.534
36.685,-0.678
36.690,-0.451
36.695,-0.386
36.700,-0.434
36.705,-0.285
36.710,-0.274
36.715,-0.415
36.720,-0.367
36.725,-0.197
36.730,-0.099
36.735,-0.120
36.740,-0.142
36.745,-0.097
36.750,-0.069
36.755,-0.002
36.760,-0.004
36.765,-0.052
36.770,0.007
36.775,0.081
36.780,0.099
36.785,0.062
36.790,0.096
36.795,0.216
36.800,0.293
36.805,0.252
36.810,0.181
36.815,0.425
36.820,0.558
36.825,0.267
36.830,0.225
36.835,0.310
36.840,0.338
36.845,0.373
36.850,0.198
36.855,0.164
36.860,0.347
36.865,0.508
36.870,0.525
36.875,0.317
36.880,0.259
36.885,0.323
36.890,0.386
36.895,0.337
36.900,0.155
36.905,0.242
36.910,0.417
36.915,0.369
36.920,0.299
36.925,0.310
36.930,0.210
36.935,0.161
36.940,0.296
36.945,0.278
36.950,0.182
36.955,0.264
36.960,0.295
36.965,0.333
36.970,0.388
36.975,0.312
36.980,0.689
36.985,0.868
36.990,0.395
36.995,0.731
37.000,1.448
37.005,1.100
37.010,0.401
37.015,0.822
37.020,1.154
37.025,0.630
37.030,0.555
37.035,0.597
37.040,0.583
37.045,0.689
37.050,0.457
37.055,0.303
37.060,0.381
37.065,0.442
37.070,0.478
37.075,0.283
37.080,0.243
37.085,0.449
37.090,0.526
37.095,0.225
37.100,-0.133
37.105,0.062
37.110,0.340
37.115,0.213
37.120,-0.008
37.125,0.003
37.130,0.240
37.135,0.429
37.140,0.343
37.145,-0.080
37.150,-0.177
37.155,0.225
37.160,0.350
37.165,0.184
37.170,-0.092
37.175,-0.066
37.180,0.411
37.185,0.384
37.190,-0.016
37.195,-0.108
37.200,0.037
37.205,0.302
37.210,0.070
37.215,-0.207
37.220,0.005
37.225,0.160
37.230,0.274
37.235,0.159
37.240,-0.091
37.245,0.082
37.250,0.226
37.255,0.146
37.260,-0.035
37.265,0.129
37.270,0.456
37.275,0.247
37.280,0.102
37.285,0.167
37.290,0.202
37.295,0.329
37.300,0.377
37.305,0.124
37.310,-0.029
37.315,0.266
37.320,0.385
37.325,0.043
37.330,-0.097
37.335,0.038
37.340,0.179
37.345,0.353
37.350,0.590
37.355,0.461
37.360,0.153
37.365,0.214
37.370,0.212
37.375,0.066
37.380,0.146
37.385,0.003
37.390,-0.163
37.395,-0.128
37.400,0.058
37.405,0.451
37.410,0.195
37.415,-0.083
37.420,0.065
37.425,0.196
37.430,0.443
37.435,0.152
37.440,-0.340
37.445,-0.182
37.450,-0.055
37.455,-0.035
37.460,-0.213
37.465,-0.458
37.470,-0.130
37.475,0.236
37.480,0.294
37.485,0.330
37.490,0.195
37.495,0.173
37.500,0.344
37.505,0.167
37.510,-0.158
37.515,-0.068
37.520,0.145
37.525,0.114
37.530,0.003
37.535,-0.078
37.540,0.098
37.545,0.072
37.550,-0.215
37.555,-0.341
37.560,-0.268
37.565,0.026
37.570,-0.001
37.575,-0.493
37.580,-0.621
37.585,-0.242
37.590,0.156
37.595,0.052
37.600,-0.334
37.605,-0.370
37.610,-0.023
37.615,0.264
37.620,0.155
37.625,-0.262
37.630,-0.274
37.635,-0.005
37.640,0.012
37.645,-0.102
37.650,-0.174
37.655,0.018
37.660,0.192
37.665,0.337
37.670,0.424
37.675,0.167
37.680,-0.030
37.685,0.048
37.690,-0.128
37.695,-0.298
37.700,-0.252
37.705,-0.311
37.710,-0.254
37.715,0.011
37.720,0.160
37.725,0.312
37.730,0.317
37.735,0.227
37.740,0.313
37.745,0.394
37.750,0.500
37.755,0.504
37.760,0.227
37.765,0.137
37.770,0.546
37.775,0.972
37.780,0.979
37.785,0.496
37.790,0.190
37.795,0.406
37.800,0.716
37.805,0.757
37.810,0.350
37.815,-0.117
37.820,0.116
37.825,0.491
37.830,0.330
37.835,-0.063
37.840,-0.482
37.845,-0.586
37.850,-0.057
37.855,0.273
37.860,0.121
37.865,-0.197
37.870,-0.651
37.875,-0.797
37.880,-0.616
37.885,-0.520
37.890,-0.613
37.895,-0.664
37.900,-0.506
37.905,-0.304
37.910,-0.427
37.915,-0.828
37.920,-1.138
37.925,-0.834
37.930,-0.463
37.935,-0.511
37.940,-0.757
37.945,-1.176
37.950,-1.114
37.955,-0.617
37.960,-0.669
37.965,-0.930
37.970,-0.825
37.975,-0.618
37.980,-0.756
37.985,-0.708
37.990,-0.320
37.995,-0.570
38.000,-0.871
38.005,-0.527
38.010,-0.515
38.015,-0.515
38.020,-0.097
38.025,-0.314
38.030,-0.683
38.035,-0.421
38.040,-0.122
38.045,-0.104
38.050,-0.098
38.055,-0.166
38.060,-0.123
38.065,0.086
38.070,0.434
38.075,0.454
38.080,0.096
38.085,0.205
38.090,0.562
38.095,0.630
38.100,0.602
38.105,0.450
38.110,0.429
38.115,0.703
38.120,0.919
38.125,0.794
38.130,0.458
38.135,0.409
38.140,0.613
38.145,0.709
38.150,0.500
38.155,0.298
38.160,0.253
38.165,0.321
38.170,0.462
38.175,0.502
38.180,0.313
38.185,0.094
38.190,-0.057
38.195,-0.065
38.200,0.051
38.205,0.211
38.210,-0.010
38.215,-0.298
38.220,-0.179
38.225,-0.038
38.230,0.151
38.235,0.067
38.240,-0.268
38.245,-0.191
38.250,-0.075
38.255,-0.048
38.260,-0.063
38.265,-0.379
38.270,-0.370
38.275,-0.210
38.280,-0.276
38.285,-0.258
38.290,-0.305
38.295,-0.524
38.300,-0.545
38.305,-0.543
38.310,-0.494
38.315,-0.532
38.320,-0.827
38.325,-0.839
38.330,-0.612
38.335,-0.459
38.340,-0.390
38.345,-0.679
38.350,-0.746
38.355,-0.381
38.360,-0.159
38.365,-0.135
38.370,-0.311
38.375,-0.436
38.380,-0.188
38.385,0.216
38.390,0.328
38.395,0.062
38.400,-0.135
38.405,0.076
38.410,0.288
38.415,0.440
38.420,0.352
38.425,0.041
38.430,0.046
38.435,0.322
38.440,0.471
38.445,0.463
38.450,0.314
38.455,0.222
38.460,0.229
38.465,0.319
38.470,0.474
38.475,0.407
38.480,0.199
38.485,0.211
38.490,0.203
38.495,0.260
38.500,0.344
38.505,0.040
38.510,-0.087
38.515,-0.051
38.520,0.046
38.525,0.231
38.530,-0.053
38.535,-0.422
38.540,-0.239
38.545,-0.109
38.550,-0.021
38.555,-0.023
38.560,-0.222
38.565,-0.139
38.570,0.012
38.575,-0.085
38.580,-0.210
38.585,-0.426
38.590,-0.489
38.595,-0.331
38.600,-0.246
38.605,-0.103
38.610,-0.256
38.615,-0.630
38.620,-0.600
38.625,-0.231
38.630,0.027
38.635,-0.087
38.640,-0.424
38.645,-0.419
38.650,-0.072
38.655,0.168
38.660,0.165
38.665,-0.013
38.670,-0.238
38.675,-0.118
38.680,0.010
38.685,-0.050
38.690,-0.201
38.695,-0.278
38.700,-0.057
38.705,0.171
38.710,0.040
38.715,-0.219
38.720,-0.277
38.725,-0.100
38.730,-0.032
38.735,0.000
38.740,0.097
38.745,0.001
38.750,0.166
38.755,0.301
38.760,0.184
38.765,0.320
38.770,0.287
38.775,0.063
38.780,0.297
38.785,0.562
38.790,0.735
38.795,0.813
38.800,0.682
38.805,0.729
38.810,0.895
38.815,0.866
38.820,0.881
38.825,0.761
38.830,0.639
38.835,0.702
38.840,0.737
38.845,0.882
38.850,0.706
38.855,0.279
38.860,0.375
38.865,0.605
38.870,0.552
38.875,0.268
38.880,-0.192
38.885,-0.215
38.890,-0.252
38.895,-0.477
38.900,-0.477
38.905,-0.577
38.910,-0.687
38.915,-0.497
38.920,-0.291
38.925,-0.182
38.930,-0.378
38.935,-0.670
38.940,-0.553
38.945,-0.270
38.950,-0.227
38.955,-0.430
38.960,-0.746
38.965,-0.741
38.970,-0.430
38.975,-0.306
38.980,-0.504
38.985,-0.766
38.990,-0.472
38.995,-0.141
39.000,-0.156
39.005,-0.174
39.010,-0.332
39.015,-0.325
39.020,-0.111
39.025,-0.029
39.030,0.149
39.035,0.174
39.040,0.036
39.045,0.072
39.050,0.230
39.055,0.294
39.060,0.146
39.065,-0.223
39.070,-0.297
39.075,-0.278
39.080,-0.188
39.085,0.248
39.090,0.240
39.095,-0.070
39.100,0.106
39.105,0.355
39.110,0.500
39.115,0.583
39.120,0.384
39.125,0.440
39.130,0.536
39.135,0.625
39.140,0.989
39.145,1.064
39.150,0.856
39.155,0.975
39.160,1.166
39.165,1.030
39.170,0.952
39.175,1.062
39.180,0.875
39.185,0.917
39.190,1.240
39.195,1.125
39.200,0.697
39.205,0.733
39.210,1.086
39.215,0.839
39.220,0.478
39.225,0.386
39.230,0.343
39.235,0.407
39.240,0.300
39.245,0.142
39.250,0.261
39.255,0.262
39.260,0.151
39.265,0.112
39.270,0.299
39.275,0.301
39.280,-0.041
39.285,-0.154
39.290,-0.203
39.295,-0.015
39.300,0.273
39.305,-0.176
39.310,-0.532
39.315,-0.330
39.320,0.077
39.325,0.219
39.330,-0.253
39.335,-0.532
39.340,-0.419
39.345,-0.335
39.350,-0.329
39.355,-0.721
39.360,-1.079
39.365,-0.677
39.370,-0.542
39.375,-0.862
39.380,-0.860
39.385,-0.779
39.390,-0.639
39.395,-0.403
39.400,-0.525
39.405,-0.557
39.410,-0.548
39.415,-0.559
39.420,-0.298
39.425,-0.258
39.430,-0.484
39.435,-0.526
39.440,-0.707
39.445,-0.760
39.450,-0.474
39.455,-0.335
39.460,-0.348
39.465,-0.481
39.470,-0.553
39.475,-0.446
39.480,-0.165
39.485,-0.118
39.490,-0.595
39.495,-0.921
39.500,-0.848
39.505,-0.887
39.510,-0.848
39.515,-0.759
39.520,-0.978
39.525,-1.132
39.530,-0.889
39.535,-0.838
39.540,-0.949
39.545,-0.814
39.550,-0.743
39.555,-0.866
39.560,-0.529
39.565,-0.188
39.570,-0.513
39.575,-0.742
39.580,-0.448
39.585,-0.242
39.590,-0.300
39.595,-0.339
39.600,-0.455
39.605,-0.306
39.610,-0.074
39.615,-0.020
39.620,-0.078
39.625,-0.217
39.630,-0.068
39.635,0.129
39.640,-0.004
39.645,-0.053
39.650,-0.069
39.655,-0.115
39.660,0.094
39.665,0.375
39.670,0.477
39.675,0.405
39.680,0.184
39.685,0.240
39.690,0.345
39.695,0.244
39.700,0.189
39.705,0.026
39.710,-0.149
39.715,0.024
39.720,0.322
39.725,0.360
39.730,0.172
39.735,-0.162
39.740,-0.024
39.745,0.205
39.750,0.032
39.755,-0.138
39.760,-0.196
39.765,-0.090
39.770,-0.027
39.775,-0.104
39.780,-0.066
39.785,0.060
39.790,0.334
39.795,0.388
39.800,0.316
39.805,0.318
39.810,0.124
39.815,0.032
39.820,0.039
39.825,-0.074
39.830,0.132
39.835,0.349
39.840,0.213
39.845,0.330
39.850,0.539
39.855,0.571
39.860,0.486
39.865,0.210
39.870,0.038
39.875,0.144
39.880,0.238
39.885,0.346
39.890,0.073
39.895,-0.235
39.900,0.065
39.905,0.268
39.910,0.277
39.915,0.197
39.920,-0.123
39.925,-0.012
39.930,0.105
39.935,0.009
39.940,-0.003
39.945,-0.220
39.950,-0.261
39.955,-0.001
39.960,0.070
39.965,0.099
39.970,0.219
39.975,0.014
39.980,-0.033
39.985,0.140
39.990,0.201
39.995,0.183
40.000,-0.088
40.005,-0.217
40.010,-0.001
40.015,0.207
40.020,0.268
40.025,-0.003
40.030,-0.040
40.035,0.343
40.040,0.602
40.045,0.601
40.050,0.435
40.055,0.313
40.060,0.396
40.065,0.539
40.070,0.650
40.075,0.393
40.080,0.031
40.085,0.157
40.090,0.307
40.095,0.346
40.100,0.343
40.105,0.308
40.110,0.205
40.115,0.052
40.120,0.056
40.125,0.121
40.130,-0.097
40.135,-0.360
40.140,-0.502
40.145,-0.481
40.150,-0.098
40.155,0.135
40.160,-0.179
40.165,-0.204
40.170,0.074
40.175,0.229
40.180,0.192
40.185,-0.039
40.190,-0.019
40.195,0.179
40.200,0.312
40.205,0.491
40.210,0.345
40.215,0.218
40.220,0.561
40.225,0.589
40.230,0.521
40.235,0.458
40.240,0.113
40.245,-0.023
40.250,0.250
40.255,0.484
40.260,0.476
40.265,0.240
40.270,0.203
40.275,0.378
40.280,0.432
40.285,0.446
40.290,0.114
40.295,-0.620
40.300,-0.768
40.305,-0.175
40.310,0.303
40.315,0.112
40.320,-0.502
40.325,-0.690
40.330,-0.185
40.335,0.384
40.340,0.226
40.345,-0.350
40.350,-0.577
40.355,-0.426
40.360,-0.156
40.365,0.056
40.370,-0.205
40.375,-0.363
40.380,-0.033
40.385,0.080
40.390,-0.118
40.395,-0.278
40.400,-0.215
40.405,0.135
40.410,0.378
40.415,0.396
40.420,0.283
40.425,0.025
40.430,-0.025
40.435,0.084
40.440,0.058
40.445,0.075
40.450,-0.125
40.455,-0.312
40.460,-0.143
40.465,-0.116
40.470,-0.148
40.475,-0.360
40.480,-0.689
40.485,-0.660
40.490,-0.264
40.495,-0.103
40.500,-0.197
40.505,-0.271
40.510,-0.170
40.515,0.105
40.520,0.288
40.525,0.415
40.530,0.423
40.535,0.302
40.540,0.373
40.545,0.505
40.550,0.724
40.555,0.680
40.560,0.239
40.565,0.064
40.570,0.250
40.575,0.523
40.580,0.400
40.585,0.198
40.590,0.278
40.595,0.459
40.600,0.624
40.605,0.556
40.610,0.313
40.615,0.287
40.620,0.233
40.625,0.079
40.630,-0.060
40.635,-0.202
40.640,-0.295
40.645,-0.197
40.650,0.055
40.655,0.115
40.660,0.115
40.665,0.099
40.670,-0.058
40.675,-0.064
40.680,-0.040
40.685,0.050
40.690,-0.081
40.695,-0.334
40.700,-0.129
40.705,-0.059
40.710,-0.047
40.715,-0.118
40.720,-0.416
40.725,-0.348
40.730,-0.086
40.735,-0.070
40.740,-0.241
40.745,-0.555
40.750,-0.587
40.755,-0.555
40.760,-0.607
40.765,-0.430
40.770,-0.598
40.775,-1.092
40.780,-0.931
40.785,-0.441
40.790,-0.267
40.795,-0.298
40.800,-0.507
40.805,-0.411
40.810,-0.122
40.815,-0.097
40.820,-0.074
40.825,-0.152
40.830,-0.328
40.835,-0.180
40.840,0.177
40.845,0.340
40.850,0.227
40.855,0.205
40.860,0.212
40.865,0.363
40.870,0.506
40.875,0.223
40.880,-0.183
40.885,-0.135
40.890,0.059
40.895,0.006
40.900,-0.116
40.905,-0.300
40.910,-0.248
40.915,0.155
40.920,0.334
40.925,0.260
40.930,-0.060
40.935,-0.305
40.940,-0.205
40.945,-0.165
40.950,0.020
40.955,-0.021
40.960,-0.332
40.965,-0.190
40.970,0.052
40.975,0.107
40.980,0.223
40.985,-0.024
40.990,-0.201
40.995,-0.098
41.000,0.006
41.005,0.118
41.010,-0.148
41.015,-0.337
41.020,0.035
41.025,0.264
41.030,0.333
41.035,0.358
41.040,0.147
41.045,0.096
41.050,0.317
41.055,0.363
41.060,0.261
41.065,0.136
41.070,0.027
41.075,0.104
41.080,0.081
41.085,0.106
41.090,-0.048
41.095,-0.290
41.100,-0.160
41.105,-0.001
41.110,0.045
41.115,-0.019
41.120,-0.278
41.125,-0.185
41.130,0.085
41.135,0.104
41.140,-0.165
41.145,-0.514
41.150,-0.467
41.155,-0.270
41.160,-0.146
41.165,-0.035
41.170,-0.090
41.175,-0.241
41.180,-0.285
41.185,-0.193
41.190,-0.074
41.195,-0.247
41.200,-0.601
41.205,-0.730
41.210,-0.734
41.215,-0.661
41.220,-0.388
41.225,-0.752
41.230,-1.388
41.235,-1.147
41.240,-0.507
41.245,-0.542
41.250,-1.185
41.255,-1.150
41.260,-0.690
41.265,-0.784
41.270,-0.679
41.275,-0.759
41.280,-0.970
41.285,-0.371
41.290,0.087
41.295,0.138
41.300,0.370
41.305,0.417
41.310,0.640
41.315,1.160
41.320,1.086
41.325,0.938
41.330,1.098
41.335,1.540
41.340,1.980
41.345,1.812
41.350,1.539
41.355,1.868
41.360,1.902
41.365,1.384
41.370,0.911
41.375,-0.250
41.380,-1.576
41.385,-1.789
41.390,-1.390
41.395,-1.097
41.400,-0.979
41.405,-0.875
41.410,-0.609
41.415,0.035
41.420,0.168
41.425,-0.249
41.430,0.081
41.435,0.158
41.440,-0.394
41.445,-0.607
41.450,-0.762
41.455,-0.711
41.460,-0.593
41.465,-0.544
41.470,-0.014
41.475,0.334
41.480,0.696
41.485,1.210
41.490,1.121
41.495,1.163
41.500,1.595
41.505,1.546
41.510,1.319
41.515,1.080
41.520,0.864
41.525,0.752
41.530,0.513
41.535,0.501
41.540,0.574
41.545,0.396
41.550,0.421
41.555,0.487
41.560,0.417
41.565,0.720
41.570,0.749
41.575,0.428
41.580,0.304
41.585,0.671
41.590,1.199
41.595,0.986
41.600,0.380
41.605,0.538
41.610,1.053
41.615,1.007
41.620,0.888
41.625,0.920
41.630,0.592
41.635,0.786
41.640,1.422
41.645,1.133
41.650,0.696
41.655,1.073
41.660,1.254
41.665,0.687
41.670,0.548
41.675,0.858
41.680,0.820
41.685,0.576
41.690,0.408
41.695,0.315
41.700,0.391
41.705,0.477
41.710,0.169
41.715,-0.167
41.720,-0.195
41.725,-0.299
41.730,-0.311
41.735,-0.225
41.740,-0.494
41.745,-0.524
41.750,0.005
41.755,-0.301
41.760,-1.051
41.765,-0.892
41.770,-0.785
41.775,-1.415
41.780,-1.923
41.785,-2.379
41.790,-2.693
41.795,-2.569
41.800,-2.618
41.805,-2.419
41.810,-2.308
41.815,-2.855
41.820,-2.900
41.825,-2.221
41.830,-2.039
41.835,-2.249
41.840,-2.039
41.845,-1.548
41.850,-1.150
41.855,-1.162
41.860,-1.372
41.865,-1.014
41.870,-0.682
41.875,-0.838
41.880,-0.680
41.885,-0.296
41.890,-0.416
41.895,-0.678
41.900,-0.655
41.905,-0.624
41.910,-0.559
41.915,-0.426
41.920,-0.419
41.925,-0.443
41.930,-0.255
41.935,0.144
41.940,0.310
41.945,-0.009
41.950,-0.221
41.955,-0.293
41.960,-0.213
41.965,-0.259
41.970,-0.577
41.975,-0.589
41.980,-0.420
41.985,-0.284
41.990,-0.048
41.995,-0.222
42.000,-0.454
42.005,-0.043
42.010,0.331
42.015,0.442
42.020,0.327
42.025,0.036
42.030,0.212
42.035,0.386
42.040,0.179
42.045,0.077
42.050,0.080
42.055,0.268
42.060,0.472
42.065,0.583
42.070,0.840
42.075,0.858
42.080,0.649
42.085,0.785
42.090,0.747
42.095,0.624
42.100,0.829
42.105,0.691
42.110,0.405
42.115,0.637
42.120,0.775
42.125,0.735
42.130,0.764
42.135,0.900
42.140,1.102
42.145,1.159
42.150,1.209
42.155,1.132
42.160,0.798
42.165,0.844
42.170,1.206
42.175,1.238
42.180,1.176
42.185,1.048
42.190,0.990
42.195,1.166
42.200,1.403
42.205,1.372
42.210,1.004
42.215,0.807
42.220,1.156
42.225,1.560
42.230,1.466
42.235,1.098
42.240,1.179
42.245,1.496
42.250,1.327
42.255,1.269
42.260,1.584
42.265,1.326
42.270,1.152
42.275,1.208
42.280,0.820
42.285,0.818
42.290,0.889
42.295,0.652
42.300,0.398
42.305,0.164
42.310,0.264
42.315,0.441
42.320,0.156
42.325,-0.298
42.330,-0.412
42.335,-0.049
42.340,-0.141
42.345,-0.710
42.350,-0.687
42.355,-0.482
42.360,-0.594
42.365,-0.470
42.370,-0.618
42.375,-1.014
42.380,-0.845
42.385,-0.608
42.390,-0.665
42.395,-0.883
42.400,-1.196
42.405,-1.206
42.410,-1.007
42.415,-0.953
42.420,-1.031
42.425,-1.292
42.430,-1.339
42.435,-1.060
42.440,-0.720
42.445,-0.655
42.450,-0.869
42.455,-1.004
42.460,-0.860
42.465,-0.581
42.470,-0.301
42.475,-0.375
42.480,-0.610
42.485,-0.492
42.490,-0.194
42.495,-0.008
42.500,0.055
42.505,-0.153
42.510,-0.339
42.515,-0.203
42.520,0.050
42.525,0.030
42.530,-0.346
42.535,-0.494
42.540,-0.466
42.545,-0.502
42.550,-0.454
42.555,-0.540
42.560,-0.700
42.565,-0.470
42.570,-0.318
42.575,-0.211
42.580,-0.110
42.585,-0.314
42.590,-0.333
42.595,-0.201
42.600,-0.189
42.605,-0.051
42.610,-0.265
42.615,-0.530
42.620,-0.279
42.625,-0.023
42.630,0.173
42.635,0.179
42.640,0.003
42.645,0.097
42.650,0.295
42.655,0.479
42.660,0.496
42.665,0.178
42.670,0.175
42.675,0.384
42.680,0.520
42.685,0.556
42.690,0.303
42.695,0.051
42.700,0.298
42.705,0.611
42.710,0.669
42.715,0.509
42.720,0.285
42.725,0.241
42.730,0.278
42.735,0.278
42.740,0.302
42.745,0.227
42.750,0.156
42.755,0.185
42.760,0.223
42.765,0.213
42.770,0.018
42.775,-0.065
42.780,-0.033
42.785,-0.003
42.790,0.045
42.795,-0.207
42.800,-0.492
42.805,-0.349
42.810,-0.194
42.815,0.043
42.820,0.042
42.825,-0.255
42.830,-0.260
42.835,-0.067
42.840,0.070
42.845,0.021
42.850,-0.291
42.855,-0.388
42.860,-0.223
42.865,-0.012
42.870,0.213
42.875,0.069
42.880,-0.233
42.885,-0.031
42.890,0.188
42.895,0.244
42.900,0.407
42.905,0.212
42.910,0.068
42.915,0.206
42.920,0.390
42.925,0.511
42.930,0.264
42.935,-0.118
42.940,-0.092
42.945,0.095
42.950,0.266
42.955,0.194
42.960,-0.130
42.965,-0.193
42.970,0.065
42.975,0.140
42.980,0.008
42.985,-0.152
42.990,-0.143
42.995,0.079
43.000,0.181
43.005,0.023
43.010,-0.311
43.015,-0.446
43.020,-0.314
43.025,-0.095
43.030,-0.153
43.035,-0.459
43.040,-0.613
43.045,-0.374
43.050,0.032
43.055,0.343
43.060,0.335
43.065,0.099
43.070,0.129
43.075,0.339
43.080,0.517
43.085,0.820
43.090,0.686
43.095,0.337
43.100,0.205
43.105,0.465
43.110,0.978
43.115,0.763
43.120,0.289
43.125,0.407
43.130,0.651
43.135,0.756
43.140,0.591
43.145,0.083
43.150,0.040
43.155,0.299
43.160,0.287
43.165,0.113
43.170,-0.024
43.175,0.013
43.180,0.266
43.185,0.325
43.190,0.182
43.195,0.050
43.200,-0.016
43.205,0.039
43.210,-0.006
43.215,-0.163
43.220,0.019
43.225,0.051
43.230,-0.115
43.235,0.043
43.240,0.202
43.245,0.265
43.250,0.159
43.255,-0.156
43.260,-0.223
43.265,0.077
43.270,0.177
43.275,-0.177
43.280,-0.520
43.285,-0.344
43.290,-0.082
43.295,0.013
43.300,-0.085
43.305,-0.346
43.310,-0.387
43.315,-0.193
43.320,-0.041
43.325,0.017
43.330,-0.136
43.335,-0.138
43.340,-0.024
43.345,0.019
43.350,0.099
43.355,0.107
43.360,0.100
43.365,-0.068
43.370,-0.103
43.375,0.240
43.380,0.386
43.385,0.148
43.390,-0.011
43.395,0.009
43.400,0.204
43.405,0.373
43.410,0.037
43.415,-0.370
43.420,-0.112
43.425,0.089
43.430,-0.035
43.435,-0.304
43.440,-0.639
43.445,-0.428
43.450,0.007
43.455,-0.090
43.460,-0.355
43.465,-0.606
43.470,-0.528
43.475,-0.272
43.480,-0.330
43.485,-0.423
43.490,-0.497
43.495,-0.465
43.500,-0.254
43.505,-0.095
43.510,-0.073
43.515,-0.069
43.520,-0.191
43.525,-0.295
43.530,-0.337
43.535,-0.151
43.540,0.058
43.545,-0.141
43.550,-0.389
43.555,-0.340
43.560,-0.165
43.565,0.033
43.570,-0.142
43.575,-0.531
43.580,-0.547
43.585,-0.201
43.590,-0.136
43.595,-0.495
43.600,-0.658
43.605,-0.540
43.610,-0.562
43.615,-0.533
43.620,-0.536
43.625,-0.785
43.630,-0.765
43.635,-0.725
43.640,-0.759
43.645,-0.744
43.650,-0.951
43.655,-1.082
43.660,-0.873
43.665,-0.792
43.670,-0.755
43.675,-0.793
43.680,-1.082
43.685,-1.099
43.690,-0.774
43.695,-0.685
43.700,-0.849
43.705,-0.868
43.710,-0.713
43.715,-0.822
43.720,-0.859
43.725,-0.542
43.730,-0.739
43.735,-1.126
43.740,-0.840
43.745,-0.553
43.750,-0.591
43.755,-0.419
43.760,-0.529
43.765,-0.824
43.770,-0.660
43.775,-0.301
43.780,-0.266
43.785,-0.602
43.790,-0.544
43.795,-0.165
43.800,-0.008
43.805,0.037
43.810,-0.217
43.815,-0.261
43.820,0.044
43.825,0.130
43.830,-0.060
43.835,-0.361
43.840,-0.177
43.845,0.179
43.850,0.015
43.855,-0.072
43.860,0.041
43.865,0.176
43.870,0.405
43.875,0.385
43.880,0.399
43.885,0.649
43.890,0.642
43.895,0.677
43.900,1.163
43.905,1.475
43.910,1.444
43.915,1.778
43.920,1.790
43.925,1.304
43.930,1.601
43.935,1.981
43.940,1.556
43.945,1.019
43.950,1.177
43.955,1.219
43.960,1.062
43.965,1.255
43.970,1.046
43.975,0.601
43.980,0.683
43.985,0.839
43.990,0.836
43.995,0.698
44.000,0.349
44.005,0.311
44.010,0.493
44.015,0.680
44.020,0.715
44.025,0.503
44.030,0.354
44.035,0.475
44.040,0.556
44.045,0.470
44.050,0.291
44.055,0.200
44.060,0.390
44.065,0.649
44.070,0.608
44.075,0.212
44.080,-0.373
44.085,-0.626
44.090,-0.329
44.095,-0.263
44.100,-0.774
44.105,-0.883
44.110,-0.498
44.115,-0.575
44.120,-0.613
44.125,-0.481
44.130,-0.762
44.135,-0.812
44.140,-0.355
44.145,-0.147
44.150,-0.176
44.155,-0.149
44.160,-0.104
44.165,0.206
44.170,0.512
44.175,0.546
44.180,0.953
44.185,1.342
44.190,1.485
44.195,1.877
44.200,2.058
44.205,1.983
44.210,1.933
44.215,1.712
44.220,1.942
44.225,2.341
44.230,1.764
44.235,1.340
44.240,1.847
44.245,1.964
44.250,1.331
44.255,1.095
44.260,1.257
44.265,1.204
44.270,1.169
44.275,1.084
44.280,0.761
44.285,0.865
44.290,1.135
44.295,0.944
44.300,0.712
44.305,0.826
44.310,0.858
44.315,0.581
44.320,0.425
44.325,0.457
44.330,0.509
44.335,0.430
44.340,0.237
44.345,0.130
44.350,0.155
44.355,0.211
44.360,0.243
44.365,0.047
44.370,-0.412
44.375,-0.708
44.380,-0.413
44.385,-0.105
44.390,-0.537
44.395,-0.823
44.400,-0.461
44.405,-0.677
44.410,-1.026
44.415,-0.772
44.420,-0.615
44.425,-0.673
44.430,-0.702
44.435,-0.685
44.440,-0.548
44.445,-0.377
44.450,-0.408
44.455,-0.366
44.460,-0.189
44.465,-0.354
44.470,-0.325
44.475,-0.059
44.480,-0.344
44.485,-0.343
44.490,0.030
44.495,-0.093
44.500,-0.409
44.505,-0.293
44.510,-0.079
44.515,-0.231
44.520,-0.366
44.525,-0.273
44.530,-0.264
44.535,-0.318
44.540,-0.214
44.545,-0.237
44.550,-0.394
44.555,-0.338
44.560,-0.311
44.565,-0.410
44.570,-0.500
44.575,-0.529
44.580,-0.390
44.585,-0.362
44.590,-1.119
44.595,-1.472
44.600,-0.847
44.605,-0.888
44.610,-1.293
44.615,-1.234
44.620,-1.169
44.625,-1.024
44.630,-0.494
44.635,-0.420
44.640,-0.595
44.645,-0.571
44.650,-0.439
44.655,-0.125
44.660,-0.014
44.665,-0.310
44.670,-0.217
44.675,0.172
44.680,-0.083
44.685,-0.253
44.690,0.054
44.695,0.086
44.700,-0.177
44.705,-0.143
44.710,-0.009
44.715,-0.109
44.720,-0.131
44.725,-0.005
44.730,-0.075
44.735,-0.169
44.740,-0.074
44.745,-0.068
44.750,-0.139
44.755,-0.102
44.760,-0.078
44.765,-0.125
44.770,-0.196
44.775,-0.234
44.780,-0.174
44.785,-0.142
44.790,-0.135
44.795,-0.133
44.800,-0.240
44.805,-0.236
44.810,-0.141
44.815,-0.148
44.820,-0.341
44.825,-0.487
44.830,-0.322
44.835,-0.153
44.840,-0.219
44.845,-0.320
44.850,-0.136
44.855,-0.030
44.860,-0.130
44.865,-0.199
44.870,-0.149
44.875,-0.028
44.880,-0.062
44.885,-0.153
44.890,-0.120
44.895,-0.061
44.900,-0.081
44.905,-0.072
44.910,-0.086
44.915,-0.112
44.920,-0.051
44.925,-0.013
44.930,-0.064
44.935,-0.069
44.940,-0.021
44.945,-0.031
44.950,-0.062
44.955,-0.271
44.960,-0.329
44.965,-0.095
44.970,-0.077
44.975,-0.546
44.980,-0.824
44.985,-1.497
44.990,-2.960
44.995,-3.068
45.000,-2.415
45.005,-2.436
45.010,-2.957
45.015,-3.423
45.020,-3.155
45.025,-2.551
45.030,-2.626
45.035,-2.794
45.040,-2.281
45.045,-2.128
45.050,-2.286
45.055,-2.007
45.060,-1.758
45.065,-1.814
45.070,-1.691
45.075,-1.453
45.080,-1.413
45.085,-1.359
45.090,-1.176
45.095,-1.080
45.100,-1.039
45.105,-0.912
45.110,-0.738
45.115,-0.193
45.120,0.065
45.125,0.550
45.130,2.297
45.135,3.169
45.140,3.080
45.145,2.968
45.150,2.724
45.155,2.978
