'Elapsed time','ECG'
'seconds','mV'
0.000,-0.054
0.005,0.051
0.010,0.056
0.015,0.041
0.020,0.017
0.025,0.013
0.030,0.034
0.035,0.009
0.040,-0.005
0.045,0.008
0.050,-0.001
0.055,-0.015
0.060,-0.012
0.065,-0.017
0.070,-0.028
0.075,-0.032
0.080,-0.035
0.085,-0.044
0.090,-0.050
0.095,-0.058
0.100,-0.076
0.105,-0.082
0.110,-0.080
0.115,-0.090
0.120,-0.106
0.125,-0.121
0.130,-0.130
0.135,-0.139
0.140,-0.149
0.145,-0.151
0.150,-0.151
0.155,-0.154
0.160,-0.152
0.165,-0.146
0.170,-0.138
0.175,-0.124
0.180,-0.102
0.185,-0.074
0.190,-0.043
0.195,-0.010
0.200,0.024
0.205,0.054
0.210,0.080
0.215,0.103
0.220,0.122
0.225,0.138
0.230,0.151
0.235,0.159
0.240,0.162
0.245,0.163
0.250,0.159
0.255,0.153
0.260,0.154
0.265,0.156
0.270,0.150
0.275,0.142
0.280,0.133
0.285,0.129
0.290,0.122
0.295,0.112
0.300,0.106
0.305,0.098
0.310,0.088
0.315,0.082
0.320,0.078
0.325,0.072
0.330,0.065
0.335,0.060
0.340,0.055
0.345,0.048
0.350,0.042
0.355,0.038
0.360,0.035
0.365,0.026
0.370,0.018
0.375,0.013
0.380,0.011
0.385,0.009
0.390,0.004
0.395,0.002
0.400,-0.001
0.405,-0.005
0.410,-0.009
0.415,-0.009
0.420,-0.009
0.425,-0.015
0.430,-0.017
0.435,-0.010
0.440,-0.007
0.445,-0.006
0.450,-0.007
0.455,-0.009
0.460,-0.006
0.465,-0.008
0.470,-0.012
0.475,-0.011
0.480,-0.010
0.485,-0.011
0.490,-0.011
0.495,-0.012
0.500,-0.011
0.505,-0.009
0.510,-0.011
0.515,-0.015
0.520,-0.016
0.525,-0.013
0.530,-0.009
0.535,-0.010
0.540,-0.016
0.545,-0.015
0.550,-0.015
0.555,-0.018
0.560,-0.017
0.565,-0.019
0.570,-0.018
0.575,-0.017
0.580,-0.020
0.585,-0.020
0.590,-0.019
0.595,-0.020
0.600,-0.020
0.605,-0.017
0.610,-0.015
0.615,-0.016
0.620,-0.017
0.625,-0.019
0.630,-0.019
0.635,-0.018
0.640,-0.020
0.645,-0.019
0.650,-0.025
0.655,-0.030
0.660,-0.020
0.665,-0.015
0.670,-0.015
0.675,-0.012
0.680,-0.013
0.685,-0.017
0.690,-0.028
0.695,-0.045
0.700,-0.061
0.705,-0.070
0.710,-0.075
0.715,-0.082
0.720,-0.101
0.725,-0.126
0.730,-0.136
0.735,-0.129
0.740,-0.119
0.745,-0.110
0.750,-0.092
0.755,-0.067
0.760,-0.054
0.765,-0.048
0.770,-0.030
0.775,-0.007
0.780,0.018
0.785,0.040
0.790,0.059
0.795,0.074
0.800,0.082
0.805,0.083
0.810,0.084
0.815,0.086
0.820,0.082
0.825,0.078
0.830,0.077
0.835,0.080
0.840,0.104
0.845,0.147
0.850,0.169
0.855,0.126
0.860,-0.001
0.865,-0.209
0.870,-0.554
0.875,-1.047
0.880,-1.446
0.885,-1.518
0.890,-1.273
0.895,-0.788
0.900,-0.227
0.905,0.223
0.910,0.457
0.915,0.486
0.920,0.448
0.925,0.416
0.930,0.381
0.935,0.341
0.940,0.328
0.945,0.339
0.950,0.320
0.955,0.299
0.960,0.299
0.965,0.286
0.970,0.264
0.975,0.255
0.980,0.244
0.985,0.225
0.990,0.214
0.995,0.206
1.000,0.191
1.005,0.178
1.010,0.171
1.015,0.162
1.020,0.147
1.025,0.136
1.030,0.127
1.035,0.117
1.040,0.106
1.045,0.094
1.050,0.083
1.055,0.073
1.060,0.063
1.065,0.053
1.070,0.038
1.075,0.026
1.080,0.013
1.085,-0.003
1.090,-0.019
1.095,-0.029
1.100,-0.037
1.105,-0.052
1.110,-0.067
1.115,-0.082
1.120,-0.096
1.125,-0.106
1.130,-0.114
1.135,-0.117
1.140,-0.117
1.145,-0.118
1.150,-0.114
1.155,-0.103
1.160,-0.089
1.165,-0.071
1.170,-0.049
1.175,-0.021
1.180,0.012
1.185,0.039
1.190,0.066
1.195,0.090
1.200,0.108
1.205,0.123
1.210,0.134
1.215,0.142
1.220,0.148
1.225,0.149
1.230,0.148
1.235,0.146
1.240,0.143
1.245,0.138
1.250,0.131
1.255,0.125
1.260,0.119
1.265,0.111
1.270,0.103
1.275,0.096
1.280,0.085
1.285,0.069
1.290,0.058
1.295,0.059
1.300,0.060
1.305,0.055
1.310,0.045
1.315,0.035
1.320,0.030
1.325,0.020
1.330,0.012
1.335,0.011
1.340,0.009
1.345,0.002
1.350,-0.005
1.355,-0.008
1.360,-0.015
1.365,-0.022
1.370,-0.025
1.375,-0.030
1.380,-0.030
1.385,-0.030
1.390,-0.032
1.395,-0.034
1.400,-0.036
1.405,-0.036
1.410,-0.033
1.415,-0.033
1.420,-0.036
1.425,-0.037
1.430,-0.035
1.435,-0.036
1.440,-0.038
1.445,-0.036
1.450,-0.040
1.455,-0.043
1.460,-0.036
1.465,-0.029
1.470,-0.029
1.475,-0.032
1.480,-0.034
1.485,-0.033
1.490,-0.033
1.495,-0.036
1.500,-0.036
1.505,-0.033
1.510,-0.034
1.515,-0.037
1.520,-0.037
1.525,-0.039
1.530,-0.040
1.535,-0.034
1.540,-0.033
1.545,-0.036
1.550,-0.037
1.555,-0.037
1.560,-0.039
1.565,-0.043
1.570,-0.044
1.575,-0.040
1.580,-0.037
1.585,-0.036
1.590,-0.035
1.595,-0.038
1.600,-0.038
1.605,-0.034
1.610,-0.034
1.615,-0.034
1.620,-0.035
1.625,-0.039
1.630,-0.038
1.635,-0.030
1.640,-0.026
1.645,-0.027
1.650,-0.030
1.655,-0.035
1.660,-0.037
1.665,-0.048
1.670,-0.067
1.675,-0.077
1.680,-0.082
1.685,-0.092
1.690,-0.110
1.695,-0.132
1.700,-0.144
1.705,-0.142
1.710,-0.132
1.715,-0.118
1.720,-0.106
1.725,-0.088
1.730,-0.070
1.735,-0.059
1.740,-0.043
1.745,-0.024
1.750,-0.005
1.755,0.020
1.760,0.043
1.765,0.058
1.770,0.066
1.775,0.068
1.780,0.067
1.785,0.070
1.790,0.068
1.795,0.061
1.800,0.063
1.805,0.071
1.810,0.090
1.815,0.134
1.820,0.183
1.825,0.173
1.830,0.064
1.835,-0.134
1.840,-0.445
1.845,-0.903
1.850,-1.350
1.855,-1.522
1.860,-1.349
1.865,-0.894
1.870,-0.312
1.875,0.179
1.880,0.440
1.885,0.481
1.890,0.453
1.895,0.429
1.900,0.390
1.905,0.331
1.910,0.296
1.915,0.310
1.920,0.303
1.925,0.273
1.930,0.273
1.935,0.265
1.940,0.230
1.945,0.219
1.950,0.226
1.955,0.216
1.960,0.200
1.965,0.189
1.970,0.177
1.975,0.165
1.980,0.151
1.985,0.138
1.990,0.128
1.995,0.124
2.000,0.115
2.005,0.101
2.010,0.091
2.015,0.081
2.020,0.071
2.025,0.062
2.030,0.051
2.035,0.035
2.040,0.021
2.045,0.014
2.050,0.007
2.055,-0.005
2.060,-0.018
2.065,-0.032
2.070,-0.047
2.075,-0.064
2.080,-0.079
2.085,-0.088
2.090,-0.097
2.095,-0.107
2.100,-0.112
2.105,-0.113
2.110,-0.117
2.115,-0.118
2.120,-0.105
2.125,-0.091
2.130,-0.079
2.135,-0.060
2.140,-0.036
2.145,-0.007
2.150,0.021
2.155,0.045
2.160,0.071
2.165,0.097
2.170,0.117
2.175,0.131
2.180,0.142
2.185,0.152
2.190,0.157
2.195,0.160
2.200,0.161
2.205,0.157
2.210,0.152
2.215,0.145
2.220,0.139
2.225,0.132
2.230,0.125
2.235,0.118
2.240,0.111
2.245,0.105
2.250,0.096
2.255,0.085
2.260,0.074
2.265,0.067
2.270,0.054
2.275,0.048
2.280,0.050
2.285,0.045
2.290,0.038
2.295,0.030
2.300,0.020
2.305,0.017
2.310,0.013
2.315,0.007
2.320,0.003
2.325,0.001
2.330,-0.005
2.335,-0.009
2.340,-0.012
2.345,-0.017
2.350,-0.020
2.355,-0.026
2.360,-0.031
2.365,-0.029
2.370,-0.028
2.375,-0.029
2.380,-0.031
2.385,-0.032
2.390,-0.033
2.395,-0.034
2.400,-0.031
2.405,-0.033
2.410,-0.039
2.415,-0.035
2.420,-0.026
2.425,-0.024
2.430,-0.024
2.435,-0.028
2.440,-0.028
2.445,-0.026
2.450,-0.031
2.455,-0.032
2.460,-0.031
2.465,-0.034
2.470,-0.034
2.475,-0.032
2.480,-0.035
2.485,-0.035
2.490,-0.033
2.495,-0.031
2.500,-0.029
2.505,-0.031
2.510,-0.034
2.515,-0.035
2.520,-0.037
2.525,-0.036
2.530,-0.036
2.535,-0.035
2.540,-0.032
2.545,-0.032
2.550,-0.036
2.555,-0.042
2.560,-0.043
2.565,-0.035
2.570,-0.032
2.575,-0.035
2.580,-0.035
2.585,-0.034
2.590,-0.032
2.595,-0.032
2.600,-0.035
2.605,-0.042
2.610,-0.056
2.615,-0.074
2.620,-0.081
2.625,-0.082
2.630,-0.096
2.635,-0.118
2.640,-0.138
2.645,-0.144
2.650,-0.140
2.655,-0.133
2.660,-0.125
2.665,-0.109
2.670,-0.083
2.675,-0.068
2.680,-0.060
2.685,-0.046
2.690,-0.026
2.695,-0.002
2.700,0.019
2.705,0.040
2.710,0.060
2.715,0.069
2.720,0.072
2.725,0.073
2.730,0.073
2.735,0.070
2.740,0.062
2.745,0.061
2.750,0.065
2.755,0.085
2.760,0.132
2.765,0.180
2.770,0.156
2.775,0.028
2.780,-0.184
2.785,-0.523
2.790,-0.999
2.795,-1.408
2.800,-1.517
2.805,-1.295
2.810,-0.805
2.815,-0.213
2.820,0.256
2.825,0.472
2.830,0.475
2.835,0.432
2.840,0.414
2.845,0.380
2.850,0.326
2.855,0.300
2.860,0.311
2.865,0.297
2.870,0.269
2.875,0.265
2.880,0.258
2.885,0.240
2.890,0.232
2.895,0.225
2.900,0.206
2.905,0.192
2.910,0.185
2.915,0.172
2.920,0.159
2.925,0.152
2.930,0.142
2.935,0.131
2.940,0.122
2.945,0.110
2.950,0.097
2.955,0.090
2.960,0.083
2.965,0.071
2.970,0.056
2.975,0.044
2.980,0.030
2.985,0.016
2.990,0.014
2.995,0.009
3.000,-0.002
3.005,-0.017
3.010,-0.037
3.015,-0.050
3.020,-0.064
3.025,-0.078
3.030,-0.089
3.035,-0.098
3.040,-0.108
3.045,-0.112
3.050,-0.114
3.055,-0.116
3.060,-0.112
3.065,-0.105
3.070,-0.095
3.075,-0.078
3.080,-0.058
3.085,-0.032
3.090,-0.003
3.095,0.027
3.100,0.057
3.105,0.081
3.110,0.104
3.115,0.126
3.120,0.141
3.125,0.149
3.130,0.150
3.135,0.153
3.140,0.164
3.145,0.168
3.150,0.163
3.155,0.157
3.160,0.147
3.165,0.140
3.170,0.131
3.175,0.124
3.180,0.120
3.185,0.113
3.190,0.101
3.195,0.091
3.200,0.087
3.205,0.079
3.210,0.069
3.215,0.064
3.220,0.055
3.225,0.048
3.230,0.040
3.235,0.032
3.240,0.028
3.245,0.022
3.250,0.016
3.255,0.010
3.260,0.003
3.265,-0.002
3.270,-0.007
3.275,-0.013
3.280,-0.018
3.285,-0.020
3.290,-0.022
3.295,-0.026
3.300,-0.027
3.305,-0.029
3.310,-0.031
3.315,-0.040
3.320,-0.047
3.325,-0.038
3.330,-0.029
3.335,-0.028
3.340,-0.031
3.345,-0.034
3.350,-0.032
3.355,-0.032
3.360,-0.037
3.365,-0.039
3.370,-0.039
3.375,-0.039
3.380,-0.038
3.385,-0.035
3.390,-0.035
3.395,-0.035
3.400,-0.035
3.405,-0.034
3.410,-0.033
3.415,-0.034
3.420,-0.035
3.425,-0.035
3.430,-0.036
3.435,-0.038
3.440,-0.035
3.445,-0.034
3.450,-0.031
3.455,-0.031
3.460,-0.034
3.465,-0.034
3.470,-0.032
3.475,-0.032
3.480,-0.036
3.485,-0.042
3.490,-0.035
3.495,-0.025
3.500,-0.024
3.505,-0.029
3.510,-0.032
3.515,-0.031
3.520,-0.030
3.525,-0.030
3.530,-0.029
3.535,-0.029
3.540,-0.030
3.545,-0.030
3.550,-0.027
3.555,-0.025
3.560,-0.027
3.565,-0.033
3.570,-0.043
3.575,-0.060
3.580,-0.078
3.585,-0.087
3.590,-0.090
3.595,-0.096
3.600,-0.117
3.605,-0.137
3.610,-0.138
3.615,-0.128
3.620,-0.118
3.625,-0.109
3.630,-0.091
3.635,-0.067
3.640,-0.059
3.645,-0.058
3.650,-0.042
3.655,-0.008
3.660,0.023
3.665,0.044
3.670,0.061
3.675,0.071
3.680,0.078
3.685,0.079
3.690,0.074
3.695,0.074
3.700,0.073
3.705,0.069
3.710,0.070
3.715,0.081
3.720,0.115
3.725,0.167
3.730,0.185
3.735,0.108
3.740,-0.057
3.745,-0.307
3.750,-0.702
3.755,-1.192
3.760,-1.508
3.765,-1.488
3.770,-1.164
3.775,-0.625
3.780,-0.070
3.785,0.331
3.790,0.487
3.795,0.468
3.800,0.427
3.805,0.398
3.810,0.363
3.815,0.331
3.820,0.330
3.825,0.329
3.830,0.300
3.835,0.292
3.840,0.301
3.845,0.284
3.850,0.259
3.855,0.250
3.860,0.240
3.865,0.221
3.870,0.211
3.875,0.206
3.880,0.192
3.885,0.177
3.890,0.166
3.895,0.156
3.900,0.145
3.905,0.132
3.910,0.120
3.915,0.112
3.920,0.103
3.925,0.090
3.930,0.078
3.935,0.067
3.940,0.057
3.945,0.047
3.950,0.032
3.955,0.020
3.960,0.009
3.965,-0.006
3.970,-0.019
3.975,-0.034
3.980,-0.051
3.985,-0.067
3.990,-0.082
3.995,-0.094
4.000,-0.095
4.005,-0.098
4.010,-0.106
4.015,-0.112
4.020,-0.115
4.025,-0.113
4.030,-0.108
4.035,-0.101
4.040,-0.084
4.045,-0.061
4.050,-0.033
4.055,-0.002
4.060,0.027
4.065,0.055
4.070,0.081
4.075,0.101
4.080,0.117
4.085,0.135
4.090,0.147
4.095,0.154
4.100,0.155
4.105,0.153
4.110,0.154
4.115,0.150
4.120,0.144
4.125,0.138
4.130,0.128
4.135,0.117
4.140,0.117
4.145,0.116
4.150,0.108
4.155,0.098
4.160,0.086
4.165,0.078
4.170,0.071
4.175,0.061
4.180,0.056
4.185,0.051
4.190,0.042
4.195,0.035
4.200,0.029
4.205,0.020
4.210,0.012
4.215,0.007
4.220,0.004
4.225,0.000
4.230,-0.007
4.235,-0.012
4.240,-0.017
4.245,-0.019
4.250,-0.021
4.255,-0.028
4.260,-0.031
4.265,-0.032
4.270,-0.035
4.275,-0.039
4.280,-0.046
4.285,-0.047
4.290,-0.035
4.295,-0.030
4.300,-0.032
4.305,-0.035
4.310,-0.037
4.315,-0.036
4.320,-0.036
4.325,-0.039
4.330,-0.037
4.335,-0.036
4.340,-0.039
4.345,-0.038
4.350,-0.036
4.355,-0.033
4.360,-0.034
4.365,-0.036
4.370,-0.039
4.375,-0.039
4.380,-0.034
4.385,-0.034
4.390,-0.035
4.395,-0.035
4.400,-0.036
4.405,-0.034
4.410,-0.035
4.415,-0.037
4.420,-0.036
4.425,-0.036
4.430,-0.037
4.435,-0.041
4.440,-0.039
4.445,-0.029
4.450,-0.026
4.455,-0.028
4.460,-0.033
4.465,-0.034
4.470,-0.031
4.475,-0.029
4.480,-0.029
4.485,-0.032
4.490,-0.034
4.495,-0.036
4.500,-0.036
4.505,-0.033
4.510,-0.033
4.515,-0.031
4.520,-0.028
4.525,-0.030
4.530,-0.031
4.535,-0.029
4.540,-0.028
4.545,-0.028
4.550,-0.026
4.555,-0.033
4.560,-0.048
4.565,-0.064
4.570,-0.080
4.575,-0.085
4.580,-0.087
4.585,-0.104
4.590,-0.127
4.595,-0.146
4.600,-0.149
4.605,-0.131
4.610,-0.114
4.615,-0.100
4.620,-0.077
4.625,-0.063
4.630,-0.055
4.635,-0.041
4.640,-0.022
4.645,0.004
4.650,0.028
4.655,0.046
4.660,0.064
4.665,0.077
4.670,0.079
4.675,0.077
4.680,0.077
4.685,0.076
4.690,0.076
4.695,0.076
4.700,0.075
4.705,0.091
4.710,0.131
4.715,0.174
4.720,0.157
4.725,0.048
4.730,-0.133
4.735,-0.421
4.740,-0.869
4.745,-1.335
4.750,-1.534
4.755,-1.396
4.760,-0.992
4.765,-0.443
4.770,0.062
4.775,0.396
4.780,0.496
4.785,0.462
4.790,0.420
4.795,0.389
4.800,0.356
4.805,0.334
4.810,0.342
4.815,0.335
4.820,0.311
4.825,0.305
4.830,0.298
4.835,0.276
4.840,0.262
4.845,0.253
4.850,0.238
4.855,0.225
4.860,0.217
4.865,0.206
4.870,0.191
4.875,0.180
4.880,0.170
4.885,0.155
4.890,0.144
4.895,0.138
4.900,0.127
4.905,0.112
4.910,0.101
4.915,0.091
4.920,0.079
4.925,0.069
4.930,0.059
4.935,0.048
4.940,0.037
4.945,0.021
4.950,0.009
4.955,-0.002
4.960,-0.018
4.965,-0.037
4.970,-0.057
4.975,-0.068
4.980,-0.071
4.985,-0.080
4.990,-0.092
4.995,-0.104
5.000,-0.111
5.005,-0.114
5.010,-0.116
5.015,-0.113
5.020,-0.106
5.025,-0.094
5.030,-0.078
5.035,-0.056
5.040,-0.030
5.045,-0.003
5.050,0.026
5.055,0.056
5.060,0.082
5.065,0.102
5.070,0.118
5.075,0.131
5.080,0.142
5.085,0.151
5.090,0.154
5.095,0.152
5.100,0.151
5.105,0.146
5.110,0.141
5.115,0.132
5.120,0.120
5.125,0.119
5.130,0.120
5.135,0.114
5.140,0.106
5.145,0.092
5.150,0.083
5.155,0.074
5.160,0.063
5.165,0.054
5.170,0.048
5.175,0.045
5.180,0.038
5.185,0.031
5.190,0.026
5.195,0.021
5.200,0.016
5.205,0.011
5.210,0.004
5.215,0.000
5.220,-0.002
5.225,-0.007
5.230,-0.013
5.235,-0.015
5.240,-0.019
5.245,-0.021
5.250,-0.022
5.255,-0.026
5.260,-0.029
5.265,-0.028
5.270,-0.029
5.275,-0.030
5.280,-0.037
5.285,-0.041
5.290,-0.033
5.295,-0.028
5.300,-0.027
5.305,-0.027
5.310,-0.030
5.315,-0.027
5.320,-0.029
5.325,-0.032
5.330,-0.032
5.335,-0.035
5.340,-0.037
5.345,-0.034
5.350,-0.032
5.355,-0.034
5.360,-0.034
5.365,-0.033
5.370,-0.033
5.375,-0.032
5.380,-0.033
5.385,-0.034
5.390,-0.034
5.395,-0.037
5.400,-0.036
5.405,-0.034
5.410,-0.034
5.415,-0.035
5.420,-0.035
5.425,-0.035
5.430,-0.036
5.435,-0.037
5.440,-0.038
5.445,-0.042
5.450,-0.039
5.455,-0.030
5.460,-0.026
5.465,-0.024
5.470,-0.028
5.475,-0.032
5.480,-0.030
5.485,-0.030
5.490,-0.031
5.495,-0.030
5.500,-0.031
5.505,-0.032
5.510,-0.029
5.515,-0.027
5.520,-0.030
5.525,-0.031
5.530,-0.029
5.535,-0.026
5.540,-0.026
5.545,-0.030
5.550,-0.044
5.555,-0.064
5.560,-0.081
5.565,-0.090
5.570,-0.091
5.575,-0.102
5.580,-0.123
5.585,-0.138
5.590,-0.149
5.595,-0.143
5.600,-0.122
5.605,-0.104
5.610,-0.080
5.615,-0.062
5.620,-0.056
5.625,-0.042
5.630,-0.023
5.635,0.002
5.640,0.030
5.645,0.051
5.650,0.065
5.655,0.073
5.660,0.079
5.665,0.081
5.670,0.079
5.675,0.078
5.680,0.074
5.685,0.071
5.690,0.073
5.695,0.082
5.700,0.117
5.705,0.164
5.710,0.156
5.715,0.061
5.720,-0.100
5.725,-0.358
5.730,-0.778
5.735,-1.263
5.740,-1.521
5.745,-1.431
5.750,-1.059
5.755,-0.519
5.760,0.004
5.765,0.360
5.770,0.483
5.775,0.464
5.780,0.429
5.785,0.397
5.790,0.358
5.795,0.326
5.800,0.331
5.805,0.330
5.810,0.305
5.815,0.296
5.820,0.293
5.825,0.271
5.830,0.255
5.835,0.248
5.840,0.232
5.845,0.216
5.850,0.205
5.855,0.191
5.860,0.181
5.865,0.180
5.870,0.173
5.875,0.155
5.880,0.138
5.885,0.130
5.890,0.122
5.895,0.109
5.900,0.098
5.905,0.090
5.910,0.079
5.915,0.068
5.920,0.058
5.925,0.044
5.930,0.030
5.935,0.019
5.940,0.010
5.945,-0.002
5.950,-0.018
5.955,-0.036
5.960,-0.052
5.965,-0.065
5.970,-0.076
5.975,-0.089
5.980,-0.098
5.985,-0.107
5.990,-0.113
5.995,-0.115
6.000,-0.115
6.005,-0.115
6.010,-0.112
6.015,-0.108
6.020,-0.092
6.025,-0.063
6.030,-0.034
6.035,-0.004
6.040,0.026
6.045,0.051
6.050,0.077
6.055,0.100
6.060,0.115
6.065,0.129
6.070,0.140
6.075,0.147
6.080,0.153
6.085,0.154
6.090,0.150
6.095,0.146
6.100,0.141
6.105,0.134
6.110,0.129
6.115,0.123
6.120,0.115
6.125,0.108
6.130,0.098
6.135,0.089
6.140,0.080
6.145,0.072
6.150,0.065
6.155,0.057
6.160,0.047
6.165,0.041
6.170,0.036
6.175,0.028
6.180,0.024
6.185,0.019
6.190,0.013
6.195,0.010
6.200,0.005
6.205,-0.006
6.210,-0.008
6.215,-0.004
6.220,-0.005
6.225,-0.010
6.230,-0.019
6.235,-0.023
6.240,-0.021
6.245,-0.025
6.250,-0.030
6.255,-0.030
6.260,-0.029
6.265,-0.030
6.270,-0.031
6.275,-0.032
6.280,-0.032
6.285,-0.030
6.290,-0.030
6.295,-0.034
6.300,-0.034
6.305,-0.032
6.310,-0.032
6.315,-0.033
6.320,-0.034
6.325,-0.033
6.330,-0.032
6.335,-0.034
6.340,-0.035
6.345,-0.038
6.350,-0.042
6.355,-0.037
6.360,-0.031
6.365,-0.029
6.370,-0.031
6.375,-0.035
6.380,-0.033
6.385,-0.031
6.390,-0.034
6.395,-0.034
6.400,-0.033
6.405,-0.034
6.410,-0.035
6.415,-0.035
6.420,-0.035
6.425,-0.032
6.430,-0.031
6.435,-0.032
6.440,-0.034
6.445,-0.035
6.450,-0.033
6.455,-0.033
6.460,-0.032
6.465,-0.033
6.470,-0.032
6.475,-0.031
6.480,-0.031
6.485,-0.031
6.490,-0.030
6.495,-0.030
6.500,-0.034
6.505,-0.037
6.510,-0.028
6.515,-0.022
6.520,-0.021
6.525,-0.023
6.530,-0.027
6.535,-0.030
6.540,-0.040
6.545,-0.060
6.550,-0.077
6.555,-0.085
6.560,-0.091
6.565,-0.102
6.570,-0.121
6.575,-0.139
6.580,-0.142
6.585,-0.133
6.590,-0.126
6.595,-0.115
6.600,-0.092
6.605,-0.067
6.610,-0.055
6.615,-0.046
6.620,-0.027
6.625,-0.001
6.630,0.024
6.635,0.048
6.640,0.065
6.645,0.074
6.650,0.080
6.655,0.080
6.660,0.079
6.665,0.074
6.670,0.069
6.675,0.073
6.680,0.082
6.685,0.092
6.690,0.125
6.695,0.169
6.700,0.171
6.705,0.086
6.710,-0.083
6.715,-0.344
6.720,-0.764
6.725,-1.252
6.730,-1.514
6.735,-1.432
6.740,-1.066
6.745,-0.523
6.750,-0.002
6.755,0.351
6.760,0.478
6.765,0.466
6.770,0.433
6.775,0.399
6.780,0.355
6.785,0.321
6.790,0.330
6.795,0.332
6.800,0.302
6.805,0.292
6.810,0.291
6.815,0.268
6.820,0.251
6.825,0.247
6.830,0.232
6.835,0.210
6.840,0.201
6.845,0.200
6.850,0.190
6.855,0.179
6.860,0.167
6.865,0.150
6.870,0.139
6.875,0.129
6.880,0.119
6.885,0.110
6.890,0.099
6.895,0.087
6.900,0.076
6.905,0.065
6.910,0.050
6.915,0.037
6.920,0.027
6.925,0.016
6.930,0.004
6.935,-0.007
6.940,-0.021
6.945,-0.036
6.950,-0.051
6.955,-0.065
6.960,-0.078
6.965,-0.090
6.970,-0.102
6.975,-0.109
6.980,-0.113
6.985,-0.114
6.990,-0.115
6.995,-0.113
7.000,-0.107
7.005,-0.103
7.010,-0.092
7.015,-0.063
7.020,-0.029
7.025,-0.001
7.030,0.026
7.035,0.053
7.040,0.080
7.045,0.101
7.050,0.116
7.055,0.131
7.060,0.142
7.065,0.144
7.070,0.147
7.075,0.151
7.080,0.150
7.085,0.146
7.090,0.143
7.095,0.138
7.100,0.128
7.105,0.119
7.110,0.113
7.115,0.107
7.120,0.100
7.125,0.091
7.130,0.081
7.135,0.064
7.140,0.056
7.145,0.060
7.150,0.059
7.155,0.051
7.160,0.039
7.165,0.031
7.170,0.028
7.175,0.022
7.180,0.016
7.185,0.013
7.190,0.008
7.195,0.002
7.200,-0.002
7.205,-0.008
7.210,-0.013
7.215,-0.016
7.220,-0.019
7.225,-0.020
7.230,-0.023
7.235,-0.026
7.240,-0.028
7.245,-0.029
7.250,-0.036
7.255,-0.040
7.260,-0.029
7.265,-0.023
7.270,-0.020
7.275,-0.021
7.280,-0.029
7.285,-0.027
7.290,-0.027
7.295,-0.029
7.300,-0.028
7.305,-0.029
7.310,-0.032
7.315,-0.031
7.320,-0.029
7.325,-0.029
7.330,-0.030
7.335,-0.028
7.340,-0.029
7.345,-0.032
7.350,-0.034
7.355,-0.034
7.360,-0.033
7.365,-0.034
7.370,-0.037
7.375,-0.040
7.380,-0.032
7.385,-0.024
7.390,-0.022
7.395,-0.026
7.400,-0.031
7.405,-0.031
7.410,-0.030
7.415,-0.031
7.420,-0.032
7.425,-0.033
7.430,-0.033
7.435,-0.032
7.440,-0.031
7.445,-0.030
7.450,-0.030
7.455,-0.030
7.460,-0.029
7.465,-0.026
7.470,-0.026
7.475,-0.026
7.480,-0.025
7.485,-0.026
7.490,-0.027
7.495,-0.033
7.500,-0.037
7.505,-0.037
7.510,-0.047
7.515,-0.067
7.520,-0.082
7.525,-0.086
7.530,-0.091
7.535,-0.112
7.540,-0.134
7.545,-0.143
7.550,-0.140
7.555,-0.132
7.560,-0.124
7.565,-0.103
7.570,-0.073
7.575,-0.064
7.580,-0.052
7.585,-0.032
7.590,-0.008
7.595,0.016
7.600,0.035
7.605,0.057
7.610,0.074
7.615,0.079
7.620,0.077
7.625,0.077
7.630,0.078
7.635,0.074
7.640,0.066
7.645,0.062
7.650,0.076
7.655,0.110
7.660,0.159
7.665,0.179
7.670,0.113
7.675,-0.030
7.680,-0.253
7.685,-0.625
7.690,-1.116
7.695,-1.467
7.700,-1.483
7.705,-1.187
7.710,-0.674
7.715,-0.127
7.720,0.281
7.725,0.466
7.730,0.477
7.735,0.448
7.740,0.415
7.745,0.367
7.750,0.319
7.755,0.312
7.760,0.322
7.765,0.302
7.770,0.285
7.775,0.282
7.780,0.260
7.785,0.240
7.790,0.245
7.795,0.241
7.800,0.220
7.805,0.207
7.810,0.199
7.815,0.185
7.820,0.171
7.825,0.161
7.830,0.150
7.835,0.139
7.840,0.128
7.845,0.117
7.850,0.108
7.855,0.097
7.860,0.084
7.865,0.074
7.870,0.062
7.875,0.048
7.880,0.037
7.885,0.027
7.890,0.017
7.895,0.007
7.900,-0.006
7.905,-0.020
7.910,-0.034
7.915,-0.049
7.920,-0.065
7.925,-0.083
7.930,-0.093
7.935,-0.094
7.940,-0.101
7.945,-0.108
7.950,-0.116
7.955,-0.118
7.960,-0.116
7.965,-0.114
7.970,-0.104
7.975,-0.086
7.980,-0.066
7.985,-0.042
7.990,-0.010
7.995,0.021
8.000,0.046
8.005,0.073
8.010,0.098
8.015,0.115
8.020,0.126
8.025,0.137
8.030,0.148
8.035,0.153
8.040,0.151
8.045,0.149
8.050,0.150
8.055,0.144
8.060,0.135
8.065,0.123
8.070,0.119
8.075,0.124
8.080,0.119
8.085,0.109
8.090,0.098
8.095,0.086
8.100,0.078
8.105,0.069
8.110,0.057
8.115,0.051
8.120,0.047
8.125,0.040
8.130,0.036
8.135,0.029
8.140,0.021
8.145,0.016
8.150,0.009
8.155,0.002
8.160,-0.004
8.165,-0.006
8.170,-0.008
8.175,-0.015
8.180,-0.019
8.185,-0.023
8.190,-0.025
8.195,-0.026
8.200,-0.031
8.205,-0.033
8.210,-0.037
8.215,-0.039
8.220,-0.031
8.225,-0.027
8.230,-0.027
8.235,-0.029
8.240,-0.034
8.245,-0.034
8.250,-0.032
8.255,-0.032
8.260,-0.030
8.265,-0.030
8.270,-0.030
8.275,-0.027
8.280,-0.028
8.285,-0.032
8.290,-0.033
8.295,-0.034
8.300,-0.035
8.305,-0.038
8.310,-0.036
8.315,-0.033
8.320,-0.033
8.325,-0.037
8.330,-0.044
8.335,-0.044
8.340,-0.034
8.345,-0.028
8.350,-0.030
8.355,-0.034
8.360,-0.038
8.365,-0.037
8.370,-0.035
8.375,-0.034
8.380,-0.035
8.385,-0.035
8.390,-0.035
8.395,-0.034
8.400,-0.033
8.405,-0.034
8.410,-0.034
8.415,-0.030
8.420,-0.031
8.425,-0.032
8.430,-0.031
8.435,-0.033
8.440,-0.044
8.445,-0.062
8.450,-0.074
8.455,-0.077
8.460,-0.081
8.465,-0.091
8.470,-0.114
8.475,-0.136
8.480,-0.144
8.485,-0.145
8.490,-0.139
8.495,-0.129
8.500,-0.113
8.505,-0.089
8.510,-0.071
8.515,-0.063
8.520,-0.048
8.525,-0.024
8.530,0.004
8.535,0.030
8.540,0.048
8.545,0.058
8.550,0.067
8.555,0.065
8.560,0.057
8.565,0.061
8.570,0.068
8.575,0.071
8.580,0.071
8.585,0.066
8.590,0.080
8.595,0.132
8.600,0.181
8.605,0.156
8.610,0.032
8.615,-0.175
8.620,-0.496
8.625,-0.961
8.630,-1.382
8.635,-1.506
8.640,-1.294
8.645,-0.815
8.650,-0.240
8.655,0.220
8.660,0.449
8.665,0.474
8.670,0.447
8.675,0.422
8.680,0.374
8.685,0.314
8.690,0.282
8.695,0.294
8.700,0.292
8.705,0.271
8.710,0.272
8.715,0.262
8.720,0.234
8.725,0.225
8.730,0.218
8.735,0.197
8.740,0.187
8.745,0.185
8.750,0.171
8.755,0.154
8.760,0.146
8.765,0.138
8.770,0.125
8.775,0.115
8.780,0.105
8.785,0.094
8.790,0.085
8.795,0.077
8.800,0.064
8.805,0.053
8.810,0.046
8.815,0.034
8.820,0.021
8.825,0.009
8.830,-0.005
8.835,-0.019
8.840,-0.027
8.845,-0.035
8.850,-0.048
8.855,-0.063
8.860,-0.082
8.865,-0.094
8.870,-0.103
8.875,-0.110
8.880,-0.115
8.885,-0.118
8.890,-0.118
8.895,-0.118
8.900,-0.108
8.905,-0.095
8.910,-0.082
8.915,-0.060
8.920,-0.036
8.925,-0.009
8.930,0.025
8.935,0.056
8.940,0.079
8.945,0.098
8.950,0.113
8.955,0.127
8.960,0.145
8.965,0.159
8.970,0.167
8.975,0.168
8.980,0.163
8.985,0.159
8.990,0.155
8.995,0.148
9.000,0.140
9.005,0.135
9.010,0.129
9.015,0.119
9.020,0.108
9.025,0.103
9.030,0.098
9.035,0.089
9.040,0.078
9.045,0.068
9.050,0.062
9.055,0.054
9.060,0.040
9.065,0.032
9.070,0.034
9.075,0.031
9.080,0.024
9.085,0.018
9.090,0.014
9.095,0.013
9.100,0.007
9.105,-0.002
9.110,-0.007
9.115,-0.011
9.120,-0.015
9.125,-0.021
9.130,-0.025
9.135,-0.026
9.140,-0.025
9.145,-0.023
9.150,-0.026
9.155,-0.028
9.160,-0.029
9.165,-0.035
9.170,-0.041
9.175,-0.040
9.180,-0.030
9.185,-0.026
9.190,-0.028
9.195,-0.033
9.200,-0.035
9.205,-0.032
9.210,-0.031
9.215,-0.031
9.220,-0.031
9.225,-0.032
9.230,-0.031
9.235,-0.032
9.240,-0.033
9.245,-0.032
9.250,-0.029
9.255,-0.030
9.260,-0.034
9.265,-0.034
9.270,-0.030
9.275,-0.031
9.280,-0.037
9.285,-0.042
9.290,-0.037
9.295,-0.029
9.300,-0.028
9.305,-0.031
9.310,-0.036
9.315,-0.038
9.320,-0.039
9.325,-0.036
9.330,-0.034
9.335,-0.034
9.340,-0.033
9.345,-0.034
9.350,-0.034
9.355,-0.032
9.360,-0.036
9.365,-0.048
9.370,-0.067
9.375,-0.085
9.380,-0.089
9.385,-0.088
9.390,-0.101
9.395,-0.128
9.400,-0.147
9.405,-0.151
9.410,-0.146
9.415,-0.137
9.420,-0.122
9.425,-0.094
9.430,-0.069
9.435,-0.061
9.440,-0.056
9.445,-0.041
9.450,-0.016
9.455,0.010
9.460,0.034
9.465,0.054
9.470,0.065
9.475,0.068
9.480,0.070
9.485,0.070
9.490,0.069
9.495,0.066
9.500,0.065
9.505,0.065
9.510,0.074
9.515,0.108
9.520,0.159
9.525,0.175
9.530,0.100
9.535,-0.066
9.540,-0.325
9.545,-0.733
9.550,-1.222
9.555,-1.520
9.560,-1.482
9.565,-1.129
9.570,-0.568
9.575,-0.016
9.580,0.359
9.585,0.485
9.590,0.462
9.595,0.429
9.600,0.394
9.605,0.348
9.610,0.310
9.615,0.312
9.620,0.319
9.625,0.292
9.630,0.279
9.635,0.282
9.640,0.263
9.645,0.243
9.650,0.236
9.655,0.224
9.660,0.208
9.665,0.200
9.670,0.190
9.675,0.177
9.680,0.169
9.685,0.162
9.690,0.149
9.695,0.131
9.700,0.114
9.705,0.108
9.710,0.107
9.715,0.098
9.720,0.084
9.725,0.069
9.730,0.059
9.735,0.050
9.740,0.037
9.745,0.023
9.750,0.012
9.755,0.000
9.760,-0.016
9.765,-0.028
9.770,-0.041
9.775,-0.057
9.780,-0.071
9.785,-0.081
9.790,-0.092
9.795,-0.102
9.800,-0.109
9.805,-0.116
9.810,-0.120
9.815,-0.117
9.820,-0.112
9.825,-0.109
9.830,-0.102
9.835,-0.079
9.840,-0.047
9.845,-0.019
9.850,0.008
9.855,0.035
9.860,0.064
9.865,0.091
9.870,0.112
9.875,0.130
9.880,0.143
9.885,0.152
9.890,0.157
9.895,0.161
9.900,0.161
9.905,0.157
9.910,0.154
9.915,0.150
9.920,0.143
9.925,0.138
9.930,0.130
9.935,0.121
9.940,0.114
9.945,0.107
9.950,0.100
9.955,0.090
9.960,0.075
9.965,0.066
9.970,0.068
9.975,0.066
9.980,0.060
9.985,0.051
9.990,0.040
9.995,0.036
10.000,0.029
10.005,0.018
10.010,0.012
10.015,0.006
10.020,0.002
10.025,-0.003
10.030,-0.009
10.035,-0.013
10.040,-0.015
10.045,-0.018
10.050,-0.024
10.055,-0.030
10.060,-0.030
10.065,-0.031
10.070,-0.035
10.075,-0.037
10.080,-0.036
10.085,-0.038
10.090,-0.041
10.095,-0.037
10.100,-0.029
10.105,-0.028
10.110,-0.030
10.115,-0.036
10.120,-0.035
10.125,-0.032
10.130,-0.034
10.135,-0.032
10.140,-0.031
10.145,-0.034
10.150,-0.034
10.155,-0.033
10.160,-0.034
10.165,-0.031
10.170,-0.031
10.175,-0.033
10.180,-0.034
10.185,-0.036
10.190,-0.036
10.195,-0.038
10.200,-0.037
10.205,-0.028
10.210,-0.025
10.215,-0.025
10.220,-0.028
10.225,-0.031
10.230,-0.030
10.235,-0.031
10.240,-0.031
10.245,-0.030
10.250,-0.030
10.255,-0.030
10.260,-0.026
10.265,-0.027
10.270,-0.031
10.275,-0.033
10.280,-0.033
10.285,-0.031
10.290,-0.037
10.295,-0.039
10.300,-0.026
10.305,-0.019
10.310,-0.028
10.315,-0.048
10.320,-0.071
10.325,-0.082
10.330,-0.084
10.335,-0.094
10.340,-0.114
10.345,-0.134
10.350,-0.144
10.355,-0.142
10.360,-0.134
10.365,-0.123
10.370,-0.103
10.375,-0.072
10.380,-0.061
10.385,-0.064
10.390,-0.049
10.395,-0.014
10.400,0.016
10.405,0.037
10.410,0.053
10.415,0.067
10.420,0.080
10.425,0.081
10.430,0.077
10.435,0.078
10.440,0.076
10.445,0.073
10.450,0.076
10.455,0.078
10.460,0.096
10.465,0.142
10.470,0.175
10.475,0.136
10.480,0.007
10.485,-0.199
10.490,-0.529
10.495,-1.010
10.500,-1.427
10.505,-1.529
10.510,-1.311
10.515,-0.851
10.520,-0.295
10.525,0.179
10.530,0.446
10.535,0.487
10.540,0.442
10.545,0.407
10.550,0.376
10.555,0.339
10.560,0.325
10.565,0.338
10.570,0.325
10.575,0.302
10.580,0.302
10.585,0.293
10.590,0.269
10.595,0.255
10.600,0.245
10.605,0.231
10.610,0.221
10.615,0.210
10.620,0.195
10.625,0.184
10.630,0.174
10.635,0.163
10.640,0.147
10.645,0.130
10.650,0.126
10.655,0.122
10.660,0.112
10.665,0.103
10.670,0.089
10.675,0.075
10.680,0.065
10.685,0.051
10.690,0.038
10.695,0.030
10.700,0.018
10.705,0.002
10.710,-0.012
10.715,-0.024
10.720,-0.037
10.725,-0.052
10.730,-0.068
10.735,-0.081
10.740,-0.094
10.745,-0.105
10.750,-0.116
10.755,-0.122
10.760,-0.122
10.765,-0.122
10.770,-0.122
10.775,-0.117
10.780,-0.096
10.785,-0.069
10.790,-0.044
10.795,-0.017
10.800,0.009
10.805,0.038
10.810,0.065
10.815,0.087
10.820,0.108
10.825,0.125
10.830,0.137
10.835,0.146
10.840,0.152
10.845,0.154
10.850,0.153
10.855,0.151
10.860,0.148
10.865,0.143
10.870,0.134
10.875,0.127
10.880,0.121
10.885,0.114
10.890,0.106
10.895,0.096
10.900,0.085
10.905,0.072
10.910,0.064
10.915,0.066
10.920,0.064
10.925,0.054
10.930,0.043
10.935,0.033
10.940,0.029
10.945,0.025
10.950,0.016
10.955,0.012
10.960,0.007
10.965,-0.002
10.970,-0.004
10.975,-0.008
10.980,-0.011
10.985,-0.014
10.990,-0.019
10.995,-0.022
11.000,-0.025
11.005,-0.029
11.010,-0.034
11.015,-0.036
11.020,-0.038
11.025,-0.041
11.030,-0.038
11.035,-0.030
11.040,-0.028
11.045,-0.030
11.050,-0.033
11.055,-0.032
11.060,-0.033
11.065,-0.037
11.070,-0.037
11.075,-0.037
11.080,-0.039
11.085,-0.041
11.090,-0.038
11.095,-0.035
11.100,-0.035
11.105,-0.033
11.110,-0.034
11.115,-0.036
11.120,-0.038
11.125,-0.038
11.130,-0.036
11.135,-0.040
11.140,-0.045
11.145,-0.039
11.150,-0.032
11.155,-0.034
11.160,-0.035
11.165,-0.037
11.170,-0.037
11.175,-0.035
11.180,-0.037
11.185,-0.036
11.190,-0.033
11.195,-0.034
11.200,-0.035
11.205,-0.034
11.210,-0.035
11.215,-0.036
11.220,-0.034
11.225,-0.034
11.230,-0.032
11.235,-0.032
11.240,-0.033
11.245,-0.032
11.250,-0.031
11.255,-0.030
11.260,-0.033
11.265,-0.040
11.270,-0.036
11.275,-0.025
11.280,-0.023
11.285,-0.029
11.290,-0.045
11.295,-0.065
11.300,-0.079
11.305,-0.087
11.310,-0.088
11.315,-0.097
11.320,-0.121
11.325,-0.140
11.330,-0.142
11.335,-0.135
11.340,-0.126
11.345,-0.113
11.350,-0.086
11.355,-0.064
11.360,-0.058
11.365,-0.047
11.370,-0.025
11.375,0.000
11.380,0.023
11.385,0.047
11.390,0.067
11.395,0.072
11.400,0.068
11.405,0.069
11.410,0.081
11.415,0.086
11.420,0.081
11.425,0.075
11.430,0.073
11.435,0.085
11.440,0.124
11.445,0.169
11.450,0.163
11.455,0.068
11.460,-0.105
11.465,-0.373
11.470,-0.804
11.475,-1.288
11.480,-1.529
11.485,-1.425
11.490,-1.041
11.495,-0.496
11.500,0.019
11.505,0.364
11.510,0.481
11.515,0.464
11.520,0.431
11.525,0.396
11.530,0.350
11.535,0.318
11.540,0.332
11.545,0.334
11.550,0.306
11.555,0.298
11.560,0.293
11.565,0.275
11.570,0.259
11.575,0.250
11.580,0.235
11.585,0.219
11.590,0.212
11.595,0.202
11.600,0.187
11.605,0.176
11.610,0.166
11.615,0.153
11.620,0.142
11.625,0.133
11.630,0.122
11.635,0.110
11.640,0.097
11.645,0.087
11.650,0.077
11.655,0.065
11.660,0.056
11.665,0.043
11.670,0.025
11.675,0.015
11.680,0.010
11.685,-0.001
11.690,-0.016
11.695,-0.035
11.700,-0.051
11.705,-0.061
11.710,-0.077
11.715,-0.092
11.720,-0.100
11.725,-0.108
11.730,-0.113
11.735,-0.116
11.740,-0.117
11.745,-0.118
11.750,-0.114
11.755,-0.101
11.760,-0.085
11.765,-0.064
11.770,-0.038
11.775,-0.008
11.780,0.022
11.785,0.051
11.790,0.075
11.795,0.093
11.800,0.114
11.805,0.134
11.810,0.144
11.815,0.150
11.820,0.151
11.825,0.151
11.830,0.152
11.835,0.148
11.840,0.142
11.845,0.135
11.850,0.127
11.855,0.121
11.860,0.116
11.865,0.110
11.870,0.101
11.875,0.092
11.880,0.085
11.885,0.074
11.890,0.064
11.895,0.059
11.900,0.054
11.905,0.048
11.910,0.043
11.915,0.031
11.920,0.021
11.925,0.023
11.930,0.024
11.935,0.020
11.940,0.013
11.945,0.001
11.950,-0.004
11.955,-0.006
11.960,-0.010
11.965,-0.014
11.970,-0.018
11.975,-0.022
11.980,-0.023
11.985,-0.025
11.990,-0.027
11.995,-0.027
12.000,-0.026
12.005,-0.027
12.010,-0.030
12.015,-0.032
12.020,-0.033
12.025,-0.033
12.030,-0.033
12.035,-0.032
12.040,-0.029
12.045,-0.026
12.050,-0.033
12.055,-0.040
12.060,-0.033
12.065,-0.023
12.070,-0.020
12.075,-0.024
12.080,-0.031
12.085,-0.032
12.090,-0.030
12.095,-0.031
12.100,-0.028
12.105,-0.028
12.110,-0.031
12.115,-0.032
12.120,-0.031
12.125,-0.031
12.130,-0.031
12.135,-0.031
12.140,-0.033
12.145,-0.035
12.150,-0.036
12.155,-0.035
12.160,-0.038
12.165,-0.042
12.170,-0.036
12.175,-0.025
12.180,-0.023
12.185,-0.024
12.190,-0.026
12.195,-0.031
12.200,-0.032
12.205,-0.031
12.210,-0.030
12.215,-0.029
12.220,-0.032
12.225,-0.034
12.230,-0.028
12.235,-0.025
12.240,-0.028
12.245,-0.031
12.250,-0.031
12.255,-0.029
12.260,-0.026
12.265,-0.025
12.270,-0.030
12.275,-0.037
12.280,-0.045
12.285,-0.061
12.290,-0.081
12.295,-0.084
12.300,-0.078
12.305,-0.089
12.310,-0.118
12.315,-0.141
12.320,-0.141
12.325,-0.129
12.330,-0.119
12.335,-0.110
12.340,-0.090
12.345,-0.069
12.350,-0.058
12.355,-0.045
12.360,-0.025
12.365,-0.002
12.370,0.024
12.375,0.046
12.380,0.063
12.385,0.072
12.390,0.076
12.395,0.078
12.400,0.077
12.405,0.076
12.410,0.073
12.415,0.068
12.420,0.063
12.425,0.080
12.430,0.127
12.435,0.177
12.440,0.173
12.445,0.073
12.450,-0.102
12.455,-0.374
12.460,-0.812
12.465,-1.291
12.470,-1.518
12.475,-1.404
12.480,-1.004
12.485,-0.445
12.490,0.066
12.495,0.389
12.500,0.482
12.505,0.461
12.510,0.434
12.515,0.399
12.520,0.350
12.525,0.312
12.530,0.320
12.535,0.320
12.540,0.288
12.545,0.284
12.550,0.280
12.555,0.252
12.560,0.241
12.565,0.241
12.570,0.228
12.575,0.212
12.580,0.202
12.585,0.191
12.590,0.176
12.595,0.165
12.600,0.156
12.605,0.145
12.610,0.136
12.615,0.125
12.620,0.112
12.625,0.100
12.630,0.088
12.635,0.082
12.640,0.070
12.645,0.055
12.650,0.046
12.655,0.037
12.660,0.028
12.665,0.019
12.670,0.004
12.675,-0.017
12.680,-0.035
12.685,-0.045
12.690,-0.054
12.695,-0.068
12.700,-0.083
12.705,-0.097
12.710,-0.102
12.715,-0.107
12.720,-0.115
12.725,-0.114
12.730,-0.112
12.735,-0.111
12.740,-0.105
12.745,-0.094
12.750,-0.076
12.755,-0.053
12.760,-0.028
12.765,0.001
12.770,0.033
12.775,0.062
12.780,0.084
12.785,0.104
12.790,0.122
12.795,0.135
12.800,0.146
12.805,0.152
12.810,0.155
12.815,0.151
12.820,0.146
12.825,0.142
12.830,0.136
12.835,0.134
12.840,0.136
12.845,0.132
12.850,0.123
12.855,0.112
12.860,0.099
12.865,0.090
12.870,0.081
12.875,0.074
12.880,0.068
12.885,0.060
12.890,0.054
12.895,0.049
12.900,0.041
12.905,0.034
12.910,0.029
12.915,0.022
12.920,0.014
12.925,0.009
12.930,0.004
12.935,-0.002
12.940,-0.010
12.945,-0.015
12.950,-0.017
12.955,-0.019
12.960,-0.023
12.965,-0.027
12.970,-0.032
12.975,-0.032
12.980,-0.028
12.985,-0.024
12.990,-0.024
12.995,-0.029
13.000,-0.030
13.005,-0.031
13.010,-0.035
13.015,-0.035
13.020,-0.033
13.025,-0.031
13.030,-0.029
13.035,-0.030
13.040,-0.032
13.045,-0.033
13.050,-0.035
13.055,-0.035
13.060,-0.035
13.065,-0.034
13.070,-0.036
13.075,-0.037
13.080,-0.039
13.085,-0.042
13.090,-0.039
13.095,-0.036
13.100,-0.035
13.105,-0.035
13.110,-0.037
13.115,-0.037
13.120,-0.035
13.125,-0.034
13.130,-0.037
13.135,-0.040
13.140,-0.040
13.145,-0.039
13.150,-0.039
13.155,-0.040
13.160,-0.041
13.165,-0.037
13.170,-0.036
13.175,-0.038
13.180,-0.041
13.185,-0.040
13.190,-0.038
13.195,-0.038
13.200,-0.036
13.205,-0.035
13.210,-0.037
13.215,-0.038
13.220,-0.036
13.225,-0.033
13.230,-0.032
13.235,-0.032
13.240,-0.031
13.245,-0.030
13.250,-0.033
13.255,-0.040
13.260,-0.046
13.265,-0.058
13.270,-0.074
13.275,-0.084
13.280,-0.090
13.285,-0.101
13.290,-0.121
13.295,-0.141
13.300,-0.148
13.305,-0.145
13.310,-0.139
13.315,-0.120
13.320,-0.090
13.325,-0.067
13.330,-0.055
13.335,-0.049
13.340,-0.034
13.345,-0.011
13.350,0.010
13.355,0.035
13.360,0.055
13.365,0.067
13.370,0.073
13.375,0.075
13.380,0.076
13.385,0.073
13.390,0.069
13.395,0.070
13.400,0.071
13.405,0.079
13.410,0.109
13.415,0.162
13.420,0.187
13.425,0.118
13.430,-0.040
13.435,-0.283
13.440,-0.675
13.445,-1.169
13.450,-1.492
13.455,-1.475
13.460,-1.156
13.465,-0.630
13.470,-0.082
13.475,0.323
13.480,0.487
13.485,0.477
13.490,0.442
13.495,0.409
13.500,0.365
13.505,0.320
13.510,0.311
13.515,0.322
13.520,0.302
13.525,0.286
13.530,0.286
13.535,0.266
13.540,0.243
13.545,0.238
13.550,0.229
13.555,0.216
13.560,0.207
13.565,0.196
13.570,0.178
13.575,0.168
13.580,0.162
13.585,0.152
13.590,0.139
13.595,0.128
13.600,0.120
13.605,0.108
13.610,0.099
13.615,0.089
13.620,0.077
13.625,0.067
13.630,0.057
13.635,0.044
13.640,0.031
13.645,0.020
13.650,0.010
13.655,-0.004
13.660,-0.020
13.665,-0.035
13.670,-0.048
13.675,-0.060
13.680,-0.075
13.685,-0.088
13.690,-0.098
13.695,-0.106
13.700,-0.117
13.705,-0.126
13.710,-0.118
13.715,-0.108
13.720,-0.102
13.725,-0.094
13.730,-0.082
13.735,-0.058
13.740,-0.031
13.745,-0.003
13.750,0.029
13.755,0.058
13.760,0.083
13.765,0.105
13.770,0.123
13.775,0.139
13.780,0.153
13.785,0.161
13.790,0.160
13.795,0.159
13.800,0.159
13.805,0.158
13.810,0.154
13.815,0.148
13.820,0.141
13.825,0.133
13.830,0.123
13.835,0.119
13.840,0.114
13.845,0.106
13.850,0.098
13.855,0.090
13.860,0.079
13.865,0.069
13.870,0.060
13.875,0.055
13.880,0.051
13.885,0.040
13.890,0.027
13.895,0.024
13.900,0.026
13.905,0.024
13.910,0.018
13.915,0.007
13.920,0.002
13.925,0.000
13.930,-0.009
13.935,-0.016
13.940,-0.018
13.945,-0.021
13.950,-0.023
13.955,-0.025
13.960,-0.026
13.965,-0.027
13.970,-0.028
13.975,-0.029
13.980,-0.030
13.985,-0.031
13.990,-0.030
13.995,-0.031
14.000,-0.031
14.005,-0.030
14.010,-0.031
14.015,-0.031
14.020,-0.032
14.025,-0.031
14.030,-0.030
14.035,-0.029
14.040,-0.029
14.045,-0.030
14.050,-0.031
14.055,-0.030
14.060,-0.031
14.065,-0.039
14.070,-0.041
14.075,-0.032
14.080,-0.026
14.085,-0.025
14.090,-0.031
14.095,-0.034
14.100,-0.031
14.105,-0.031
14.110,-0.033
14.115,-0.033
14.120,-0.033
14.125,-0.034
14.130,-0.036
14.135,-0.037
14.140,-0.038
14.145,-0.036
14.150,-0.035
14.155,-0.038
14.160,-0.038
14.165,-0.035
14.170,-0.033
14.175,-0.034
14.180,-0.035
14.185,-0.033
14.190,-0.032
14.195,-0.033
14.200,-0.032
14.205,-0.031
14.210,-0.033
14.215,-0.038
14.220,-0.040
14.225,-0.049
14.230,-0.067
14.235,-0.082
14.240,-0.090
14.245,-0.096
14.250,-0.112
14.255,-0.136
14.260,-0.147
14.265,-0.142
14.270,-0.134
14.275,-0.126
14.280,-0.108
14.285,-0.081
14.290,-0.063
14.295,-0.057
14.300,-0.043
14.305,-0.020
14.310,0.005
14.315,0.027
14.320,0.047
14.325,0.063
14.330,0.070
14.335,0.071
14.340,0.069
14.345,0.069
14.350,0.067
14.355,0.067
14.360,0.070
14.365,0.073
14.370,0.090
14.375,0.135
14.380,0.172
14.385,0.135
14.390,0.007
14.395,-0.192
14.400,-0.515
14.405,-0.997
14.410,-1.427
14.415,-1.547
14.420,-1.342
14.425,-0.891
14.430,-0.333
14.435,0.157
14.440,0.441
14.445,0.490
14.450,0.451
14.455,0.416
14.460,0.382
14.465,0.345
14.470,0.326
14.475,0.340
14.480,0.328
14.485,0.301
14.490,0.300
14.495,0.291
14.500,0.267
14.505,0.255
14.510,0.248
14.515,0.232
14.520,0.217
14.525,0.210
14.530,0.196
14.535,0.181
14.540,0.172
14.545,0.161
14.550,0.146
14.555,0.136
14.560,0.125
14.565,0.110
14.570,0.102
14.575,0.099
14.580,0.090
14.585,0.079
14.590,0.067
14.595,0.055
14.600,0.044
14.605,0.032
14.610,0.018
14.615,0.005
14.620,-0.010
14.625,-0.028
14.630,-0.044
14.635,-0.060
14.640,-0.073
14.645,-0.085
14.650,-0.097
14.655,-0.111
14.660,-0.124
14.665,-0.121
14.670,-0.116
14.675,-0.115
14.680,-0.112
14.685,-0.106
14.690,-0.093
14.695,-0.077
14.700,-0.054
14.705,-0.024
14.710,0.009
14.715,0.038
14.720,0.067
14.725,0.093
14.730,0.113
14.735,0.127
14.740,0.141
14.745,0.153
14.750,0.158
14.755,0.154
14.760,0.151
14.765,0.159
14.770,0.161
14.775,0.151
14.780,0.140
14.785,0.132
14.790,0.129
14.795,0.124
14.800,0.112
14.805,0.103
14.810,0.098
14.815,0.091
14.820,0.082
14.825,0.075
14.830,0.067
14.835,0.060
14.840,0.052
14.845,0.044
14.850,0.040
14.855,0.033
14.860,0.022
14.865,0.017
14.870,0.018
14.875,0.017
14.880,0.007
14.885,-0.002
14.890,-0.004
14.895,-0.009
14.900,-0.015
14.905,-0.019
14.910,-0.021
14.915,-0.021
14.920,-0.024
14.925,-0.025
14.930,-0.026
14.935,-0.032
14.940,-0.033
14.945,-0.032
14.950,-0.035
14.955,-0.031
14.960,-0.030
14.965,-0.032
14.970,-0.033
14.975,-0.043
14.980,-0.046
14.985,-0.035
14.990,-0.031
14.995,-0.030
15.000,-0.032
15.005,-0.036
15.010,-0.030
15.015,-0.026
15.020,-0.027
15.025,-0.026
15.030,-0.027
15.035,-0.032
15.040,-0.035
15.045,-0.032
15.050,-0.030
15.055,-0.030
15.060,-0.030
15.065,-0.032
15.070,-0.032
15.075,-0.036
15.080,-0.040
15.085,-0.036
15.090,-0.036
15.095,-0.043
15.100,-0.041
15.105,-0.034
15.110,-0.029
15.115,-0.030
15.120,-0.033
15.125,-0.033
15.130,-0.032
15.135,-0.034
15.140,-0.036
15.145,-0.031
15.150,-0.028
15.155,-0.028
15.160,-0.030
15.165,-0.031
15.170,-0.028
15.175,-0.027
15.180,-0.025
15.185,-0.030
15.190,-0.042
15.195,-0.058
15.200,-0.076
15.205,-0.083
15.210,-0.089
15.215,-0.103
15.220,-0.116
15.225,-0.128
15.230,-0.137
15.235,-0.136
15.240,-0.133
15.245,-0.125
15.250,-0.105
15.255,-0.076
15.260,-0.057
15.265,-0.049
15.270,-0.032
15.275,-0.007
15.280,0.021
15.285,0.044
15.290,0.057
15.295,0.070
15.300,0.081
15.305,0.082
15.310,0.080
15.315,0.076
15.320,0.070
15.325,0.070
15.330,0.071
15.335,0.080
15.340,0.115
15.345,0.165
15.350,0.178
15.355,0.096
15.360,-0.068
15.365,-0.315
15.370,-0.720
15.375,-1.215
15.380,-1.515
15.385,-1.475
15.390,-1.140
15.395,-0.601
15.400,-0.051
15.405,0.336
15.410,0.481
15.415,0.467
15.420,0.438
15.425,0.414
15.430,0.365
15.435,0.320
15.440,0.324
15.445,0.332
15.450,0.305
15.455,0.291
15.460,0.292
15.465,0.273
15.470,0.252
15.475,0.245
15.480,0.233
15.485,0.213
15.490,0.202
15.495,0.193
15.500,0.179
15.505,0.171
15.510,0.163
15.515,0.148
15.520,0.137
15.525,0.128
15.530,0.115
15.535,0.102
15.540,0.094
15.545,0.083
15.550,0.072
15.555,0.059
15.560,0.045
15.565,0.037
15.570,0.026
15.575,0.013
15.580,0.000
15.585,-0.015
15.590,-0.029
15.595,-0.038
15.600,-0.051
15.605,-0.069
15.610,-0.084
15.615,-0.097
15.620,-0.107
15.625,-0.114
15.630,-0.121
15.635,-0.127
15.640,-0.123
15.645,-0.116
15.650,-0.111
15.655,-0.102
15.660,-0.087
15.665,-0.062
15.670,-0.036
15.675,-0.010
15.680,0.019
15.685,0.051
15.690,0.080
15.695,0.100
15.700,0.119
15.705,0.131
15.710,0.143
15.715,0.153
15.720,0.154
15.725,0.154
15.730,0.151
15.735,0.149
15.740,0.146
15.745,0.135
15.750,0.130
15.755,0.127
15.760,0.121
15.765,0.113
15.770,0.106
15.775,0.098
15.780,0.089
15.785,0.080
15.790,0.072
15.795,0.062
15.800,0.054
15.805,0.049
15.810,0.043
15.815,0.034
15.820,0.028
15.825,0.026
15.830,0.021
15.835,0.013
15.840,0.005
15.845,0.001
15.850,0.001
15.855,-0.003
15.860,-0.011
15.865,-0.015
15.870,-0.017
15.875,-0.022
15.880,-0.027
15.885,-0.031
15.890,-0.032
15.895,-0.032
15.900,-0.033
15.905,-0.033
15.910,-0.031
15.915,-0.031
15.920,-0.032
15.925,-0.030
15.930,-0.033
15.935,-0.037
15.940,-0.035
15.945,-0.031
15.950,-0.030
15.955,-0.037
15.960,-0.041
15.965,-0.036
15.970,-0.030
15.975,-0.030
15.980,-0.034
15.985,-0.035
15.990,-0.033
15.995,-0.033
16.000,-0.035
16.005,-0.033
16.010,-0.033
16.015,-0.032
16.020,-0.031
16.025,-0.034
16.030,-0.034
16.035,-0.035
16.040,-0.038
16.045,-0.039
16.050,-0.040
16.055,-0.039
16.060,-0.036
16.065,-0.035
16.070,-0.032
16.075,-0.028
16.080,-0.029
16.085,-0.038
16.090,-0.050
16.095,-0.063
16.100,-0.076
16.105,-0.085
16.110,-0.091
16.115,-0.103
16.120,-0.125
16.125,-0.146
16.130,-0.150
16.135,-0.143
16.140,-0.132
16.145,-0.118
16.150,-0.099
16.155,-0.079
16.160,-0.068
16.165,-0.059
16.170,-0.041
16.175,-0.020
16.180,0.005
16.185,0.034
16.190,0.051
16.195,0.060
16.200,0.067
16.205,0.066
16.210,0.065
16.215,0.066
16.220,0.067
16.225,0.067
16.230,0.064
16.235,0.069
16.240,0.098
16.245,0.151
16.250,0.178
16.255,0.116
16.260,-0.040
16.265,-0.286
16.270,-0.669
16.275,-1.147
16.280,-1.476
16.285,-1.474
16.290,-1.150
16.295,-0.594
16.300,-0.013
16.305,0.374
16.310,0.493
16.315,0.463
16.320,0.427
16.325,0.402
16.330,0.351
16.335,0.292
16.340,0.287
16.345,0.299
16.350,0.274
16.355,0.258
16.360,0.258
16.365,0.241
16.370,0.218
16.375,0.213
16.380,0.207
16.385,0.187
16.390,0.179
16.395,0.177
16.400,0.160
16.405,0.143
16.410,0.138
16.415,0.128
16.420,0.117
16.425,0.107
16.430,0.096
16.435,0.087
16.440,0.079
16.445,0.070
16.450,0.060
16.455,0.046
16.460,0.029
16.465,0.016
16.470,0.006
16.475,-0.004
16.480,-0.015
16.485,-0.025
16.490,-0.035
16.495,-0.049
16.500,-0.066
16.505,-0.079
16.510,-0.095
16.515,-0.112
16.520,-0.120
16.525,-0.125
16.530,-0.127
16.535,-0.130
16.540,-0.127
16.545,-0.116
16.550,-0.110
16.555,-0.097
16.560,-0.076
16.565,-0.048
16.570,-0.013
16.575,0.016
16.580,0.039
16.585,0.063
16.590,0.088
16.595,0.111
16.600,0.134
16.605,0.149
16.610,0.156
16.615,0.161
16.620,0.167
16.625,0.167
16.630,0.163
16.635,0.163
16.640,0.162
16.645,0.154
16.650,0.142
16.655,0.130
16.660,0.123
16.665,0.120
16.670,0.115
16.675,0.106
16.680,0.096
16.685,0.082
16.690,0.073
16.695,0.071
16.700,0.063
16.705,0.051
16.710,0.047
16.715,0.040
16.720,0.029
16.725,0.020
16.730,0.016
16.735,0.013
16.740,0.011
16.745,0.007
16.750,0.004
16.755,-0.002
16.760,-0.011
16.765,-0.014
16.770,-0.015
16.775,-0.021
16.780,-0.025
16.785,-0.028
16.790,-0.028
16.795,-0.029
16.800,-0.031
16.805,-0.031
16.810,-0.029
16.815,-0.026
16.820,-0.025
16.825,-0.030
16.830,-0.036
16.835,-0.037
16.840,-0.035
16.845,-0.034
16.850,-0.036
16.855,-0.033
16.860,-0.029
16.865,-0.030
16.870,-0.034
16.875,-0.038
16.880,-0.036
16.885,-0.030
16.890,-0.033
16.895,-0.039
16.900,-0.038
16.905,-0.038
16.910,-0.034
16.915,-0.032
16.920,-0.038
16.925,-0.038
16.930,-0.042
16.935,-0.055
16.940,-0.058
16.945,-0.067
16.950,-0.080
16.955,-0.079
16.960,-0.097
16.965,-0.127
16.970,-0.146
16.975,-0.153
16.980,-0.142
16.985,-0.129
16.990,-0.126
16.995,-0.114
17.000,-0.093
17.005,-0.077
17.010,-0.063
17.015,-0.051
17.020,-0.035
17.025,-0.009
17.030,0.019
17.035,0.037
17.040,0.049
17.045,0.057
17.050,0.059
17.055,0.055
17.060,0.050
17.065,0.053
17.070,0.058
17.075,0.055
17.080,0.053
17.085,0.074
17.090,0.122
17.095,0.170
17.100,0.158
17.105,0.044
17.110,-0.173
17.115,-0.511
17.120,-0.961
17.125,-1.346
17.130,-1.442
17.135,-1.223
17.140,-0.759
17.145,-0.198
17.150,0.264
17.155,0.480
17.160,0.476
17.165,0.426
17.170,0.387
17.175,0.344
17.180,0.285
17.185,0.247
17.190,0.258
17.195,0.252
17.200,0.228
17.205,0.227
17.210,0.223
17.215,0.194
17.220,0.182
17.225,0.182
17.230,0.170
17.235,0.163
17.240,0.152
17.245,0.137
17.250,0.131
17.255,0.125
17.260,0.111
17.265,0.103
17.270,0.095
17.275,0.086
17.280,0.075
17.285,0.061
17.290,0.058
17.295,0.053
17.300,0.034
17.305,0.024
17.310,0.019
17.315,0.007
17.320,-0.004
17.325,-0.017
17.330,-0.037
17.335,-0.052
17.340,-0.064
17.345,-0.075
17.350,-0.088
17.355,-0.102
17.360,-0.110
17.365,-0.118
17.370,-0.124
17.375,-0.125
17.380,-0.130
17.385,-0.126
17.390,-0.119
17.395,-0.113
17.400,-0.098
17.405,-0.076
17.410,-0.050
17.415,-0.016
17.420,0.012
17.425,0.037
17.430,0.070
17.435,0.103
17.440,0.125
17.445,0.141
17.450,0.157
17.455,0.169
17.460,0.172
17.465,0.172
17.470,0.172
17.475,0.168
17.480,0.161
17.485,0.157
17.490,0.153
17.495,0.148
17.500,0.140
17.505,0.127
17.510,0.120
17.515,0.119
17.520,0.115
17.525,0.105
17.530,0.091
17.535,0.081
17.540,0.076
17.545,0.067
17.550,0.062
17.555,0.060
17.560,0.052
17.565,0.042
17.570,0.035
17.575,0.031
17.580,0.024
17.585,0.009
17.590,0.006
17.595,0.015
17.600,0.012
17.605,0.001
17.610,-0.008
17.615,-0.011
17.620,-0.010
17.625,-0.012
17.630,-0.015
17.635,-0.023
17.640,-0.027
17.645,-0.025
17.650,-0.027
17.655,-0.027
17.660,-0.024
17.665,-0.023
17.670,-0.019
17.675,-0.021
17.680,-0.022
17.685,-0.024
17.690,-0.029
17.695,-0.027
17.700,-0.027
17.705,-0.028
17.710,-0.031
17.715,-0.033
17.720,-0.029
17.725,-0.033
17.730,-0.041
17.735,-0.056
17.740,-0.075
17.745,-0.081
17.750,-0.083
17.755,-0.079
17.760,-0.083
17.765,-0.112
17.770,-0.133
17.775,-0.134
17.780,-0.126
17.785,-0.113
17.790,-0.102
17.795,-0.083
17.800,-0.064
17.805,-0.055
17.810,-0.048
17.815,-0.039
17.820,-0.021
17.825,0.004
17.830,0.027
17.835,0.043
17.840,0.052
17.845,0.053
17.850,0.056
17.855,0.056
17.860,0.041
17.865,0.037
17.870,0.041
17.875,0.057
17.880,0.104
17.885,0.154
17.890,0.160
17.895,0.067
17.900,-0.121
17.905,-0.404
17.910,-0.812
17.915,-1.213
17.920,-1.366
17.925,-1.196
17.930,-0.788
17.935,-0.276
17.940,0.176
17.945,0.428
17.950,0.463
17.955,0.417
17.960,0.370
17.965,0.333
17.970,0.281
17.975,0.227
17.980,0.227
17.985,0.239
17.990,0.225
17.995,0.213
18.000,0.200
18.005,0.175
18.010,0.165
18.015,0.167
18.020,0.149
18.025,0.132
18.030,0.137
18.035,0.133
18.040,0.116
18.045,0.105
18.050,0.094
18.055,0.087
18.060,0.086
18.065,0.076
18.070,0.061
18.075,0.052
18.080,0.047
18.085,0.042
18.090,0.026
18.095,0.010
18.100,0.003
18.105,-0.005
18.110,-0.016
18.115,-0.027
18.120,-0.037
18.125,-0.048
18.130,-0.063
18.135,-0.085
18.140,-0.101
18.145,-0.110
18.150,-0.122
18.155,-0.132
18.160,-0.143
18.165,-0.147
18.170,-0.145
18.175,-0.143
18.180,-0.138
18.185,-0.126
18.190,-0.105
18.195,-0.080
18.200,-0.056
18.205,-0.030
18.210,0.003
18.215,0.043
18.220,0.084
18.225,0.112
18.230,0.129
18.235,0.143
18.240,0.154
18.245,0.166
18.250,0.176
18.255,0.178
18.260,0.169
18.265,0.160
18.270,0.161
18.275,0.165
18.280,0.163
18.285,0.151
18.290,0.134
18.295,0.127
18.300,0.125
18.305,0.119
18.310,0.110
18.315,0.100
18.320,0.090
18.325,0.086
18.330,0.077
18.335,0.067
18.340,0.063
18.345,0.057
18.350,0.050
18.355,0.045
18.360,0.040
18.365,0.033
18.370,0.026
18.375,0.022
18.380,0.017
18.385,0.012
18.390,0.003
18.395,-0.003
18.400,-0.004
18.405,-0.007
18.410,-0.014
18.415,-0.025
18.420,-0.026
18.425,-0.022
18.430,-0.022
18.435,-0.023
18.440,-0.030
18.445,-0.032
18.450,-0.028
18.455,-0.028
18.460,-0.030
18.465,-0.031
18.470,-0.031
18.475,-0.032
18.480,-0.035
18.485,-0.035
18.490,-0.035
18.495,-0.036
18.500,-0.037
18.505,-0.038
18.510,-0.039
18.515,-0.044
18.520,-0.059
18.525,-0.071
18.530,-0.073
18.535,-0.073
18.540,-0.074
18.545,-0.083
18.550,-0.101
18.555,-0.121
18.560,-0.135
18.565,-0.137
18.570,-0.122
18.575,-0.109
18.580,-0.098
18.585,-0.075
18.590,-0.061
18.595,-0.056
18.600,-0.052
18.605,-0.039
18.610,-0.010
18.615,0.019
18.620,0.035
18.625,0.041
18.630,0.047
18.635,0.051
18.640,0.054
18.645,0.059
18.650,0.056
18.655,0.051
18.660,0.053
18.665,0.072
18.670,0.116
18.675,0.152
18.680,0.113
18.685,-0.024
18.690,-0.244
18.695,-0.574
18.700,-1.004
18.705,-1.335
18.710,-1.372
18.715,-1.117
18.720,-0.651
18.725,-0.132
18.730,0.275
18.735,0.465
18.740,0.446
18.745,0.380
18.750,0.342
18.755,0.310
18.760,0.279
18.765,0.266
18.770,0.274
18.775,0.263
18.780,0.242
18.785,0.239
18.790,0.228
18.795,0.207
18.800,0.199
18.805,0.195
18.810,0.181
18.815,0.170
18.820,0.165
18.825,0.155
18.830,0.142
18.835,0.135
18.840,0.126
18.845,0.113
18.850,0.103
18.855,0.094
18.860,0.086
18.865,0.078
18.870,0.068
18.875,0.056
18.880,0.047
18.885,0.037
18.890,0.027
18.895,0.018
18.900,0.006
18.905,-0.006
18.910,-0.017
18.915,-0.031
18.920,-0.048
18.925,-0.063
18.930,-0.075
18.935,-0.089
18.940,-0.106
18.945,-0.117
18.950,-0.120
18.955,-0.121
18.960,-0.122
18.965,-0.126
18.970,-0.122
18.975,-0.116
18.980,-0.108
18.985,-0.086
18.990,-0.056
18.995,-0.023
19.000,0.009
19.005,0.042
19.010,0.070
19.015,0.091
19.020,0.111
19.025,0.126
19.030,0.136
19.035,0.145
19.040,0.151
19.045,0.152
19.050,0.148
19.055,0.146
19.060,0.143
19.065,0.135
19.070,0.127
19.075,0.122
19.080,0.117
19.085,0.109
19.090,0.098
19.095,0.089
19.100,0.083
19.105,0.077
19.110,0.069
19.115,0.062
19.120,0.054
19.125,0.044
19.130,0.039
19.135,0.036
19.140,0.029
19.145,0.022
19.150,0.014
19.155,0.006
19.160,0.002
19.165,-0.001
19.170,-0.004
19.175,-0.007
19.180,-0.010
19.185,-0.013
19.190,-0.016
19.195,-0.015
19.200,-0.017
19.205,-0.023
19.210,-0.027
19.215,-0.024
19.220,-0.023
19.225,-0.029
19.230,-0.034
19.235,-0.031
19.240,-0.026
19.245,-0.025
19.250,-0.030
19.255,-0.034
19.260,-0.031
19.265,-0.028
19.270,-0.026
19.275,-0.027
19.280,-0.031
19.285,-0.028
19.290,-0.024
19.295,-0.023
19.300,-0.021
19.305,-0.021
19.310,-0.021
19.315,-0.022
19.320,-0.026
19.325,-0.028
19.330,-0.026
19.335,-0.027
19.340,-0.027
19.345,-0.024
19.350,-0.027
19.355,-0.026
19.360,-0.026
19.365,-0.028
19.370,-0.024
19.375,-0.020
19.380,-0.024
19.385,-0.035
19.390,-0.049
19.395,-0.066
19.400,-0.076
19.405,-0.081
19.410,-0.097
19.415,-0.115
19.420,-0.129
19.425,-0.135
19.430,-0.130
19.435,-0.117
19.440,-0.105
19.445,-0.093
19.450,-0.078
19.455,-0.069
19.460,-0.059
19.465,-0.043
19.470,-0.025
19.475,-0.001
19.480,0.025
19.485,0.041
19.490,0.052
19.495,0.058
19.500,0.060
19.505,0.062
19.510,0.062
19.515,0.061
19.520,0.059
19.525,0.058
19.530,0.059
19.535,0.076
19.540,0.119
19.545,0.159
19.550,0.134
19.555,0.014
19.560,-0.184
19.565,-0.485
19.570,-0.918
19.575,-1.316
19.580,-1.435
19.585,-1.237
19.590,-0.800
19.595,-0.261
19.600,0.196
19.605,0.442
19.610,0.461
19.615,0.407
19.620,0.375
19.625,0.346
19.630,0.307
19.635,0.281
19.640,0.290
19.645,0.284
19.650,0.259
19.655,0.259
19.660,0.257
19.665,0.234
19.670,0.221
19.675,0.215
19.680,0.200
19.685,0.188
19.690,0.180
19.695,0.167
19.700,0.157
19.705,0.153
19.710,0.146
19.715,0.130
19.720,0.117
19.725,0.113
19.730,0.103
19.735,0.090
19.740,0.081
19.745,0.070
19.750,0.061
19.755,0.049
19.760,0.034
19.765,0.024
19.770,0.015
19.775,0.006
19.780,-0.007
19.785,-0.020
19.790,-0.031
19.795,-0.043
19.800,-0.058
19.805,-0.074
19.810,-0.088
19.815,-0.100
19.820,-0.107
19.825,-0.113
19.830,-0.115
19.835,-0.114
19.840,-0.111
19.845,-0.107
19.850,-0.100
19.855,-0.086
19.860,-0.067
19.865,-0.039
19.870,-0.007
19.875,0.023
19.880,0.052
19.885,0.072
19.890,0.093
19.895,0.113
19.900,0.125
19.905,0.134
19.910,0.142
19.915,0.144
19.920,0.145
19.925,0.143
19.930,0.139
19.935,0.135
19.940,0.128
19.945,0.122
19.950,0.116
19.955,0.107
19.960,0.099
19.965,0.093
19.970,0.085
19.975,0.077
19.980,0.070
19.985,0.063
19.990,0.056
19.995,0.050
20.000,0.042
20.005,0.035
20.010,0.030
20.015,0.025
20.020,0.017
20.025,0.010
20.030,0.004
20.035,0.002
20.040,-0.001
20.045,-0.004
20.050,-0.009
20.055,-0.012
20.060,-0.015
20.065,-0.021
20.070,-0.024
20.075,-0.025
20.080,-0.028
20.085,-0.029
20.090,-0.031
20.095,-0.032
20.100,-0.030
20.105,-0.029
20.110,-0.030
20.115,-0.031
20.120,-0.031
20.125,-0.031
20.130,-0.029
20.135,-0.031
20.140,-0.036
20.145,-0.035
20.150,-0.032
20.155,-0.033
20.160,-0.034
20.165,-0.033
20.170,-0.032
20.175,-0.032
20.180,-0.034
20.185,-0.032
20.190,-0.028
20.195,-0.031
20.200,-0.033
20.205,-0.031
20.210,-0.033
20.215,-0.035
20.220,-0.034
20.225,-0.031
20.230,-0.029
20.235,-0.031
20.240,-0.033
20.245,-0.032
20.250,-0.031
20.255,-0.033
20.260,-0.034
20.265,-0.034
20.270,-0.034
20.275,-0.032
20.280,-0.032
20.285,-0.038
20.290,-0.044
20.295,-0.056
20.300,-0.076
20.305,-0.085
20.310,-0.091
20.315,-0.103
20.320,-0.119
20.325,-0.136
20.330,-0.142
20.335,-0.136
20.340,-0.130
20.345,-0.122
20.350,-0.105
20.355,-0.082
20.360,-0.070
20.365,-0.065
20.370,-0.055
20.375,-0.032
20.380,-0.002
20.385,0.020
20.390,0.036
20.395,0.053
20.400,0.063
20.405,0.065
20.410,0.067
20.415,0.068
20.420,0.063
20.425,0.059
20.430,0.057
20.435,0.064
20.440,0.089
20.445,0.132
20.450,0.165
20.455,0.129
20.460,-0.007
20.465,-0.221
20.470,-0.544
20.475,-0.994
20.480,-1.378
20.485,-1.464
20.490,-1.239
20.495,-0.783
20.500,-0.237
20.505,0.211
20.510,0.442
20.515,0.455
20.520,0.402
20.525,0.373
20.530,0.352
20.535,0.319
20.540,0.301
20.545,0.316
20.550,0.304
20.555,0.280
20.560,0.280
20.565,0.273
20.570,0.253
20.575,0.241
20.580,0.233
20.585,0.216
20.590,0.203
20.595,0.198
20.600,0.187
20.605,0.175
20.610,0.165
20.615,0.152
20.620,0.139
20.625,0.130
20.630,0.122
20.635,0.114
20.640,0.103
20.645,0.091
20.650,0.083
20.655,0.072
20.660,0.058
20.665,0.047
20.670,0.037
20.675,0.029
20.680,0.016
20.685,0.002
20.690,-0.010
20.695,-0.027
20.700,-0.041
20.705,-0.054
20.710,-0.070
20.715,-0.081
20.720,-0.091
20.725,-0.102
20.730,-0.105
20.735,-0.108
20.740,-0.112
20.745,-0.111
20.750,-0.109
20.755,-0.102
20.760,-0.084
20.765,-0.063
20.770,-0.037
20.775,-0.006
20.780,0.023
20.785,0.047
20.790,0.073
20.795,0.095
20.800,0.112
20.805,0.128
20.810,0.138
20.815,0.145
20.820,0.147
20.825,0.144
20.830,0.144
20.835,0.147
20.840,0.145
20.845,0.137
20.850,0.128
20.855,0.119
20.860,0.111
20.865,0.103
20.870,0.096
20.875,0.090
20.880,0.083
20.885,0.073
20.890,0.065
20.895,0.057
20.900,0.051
20.905,0.045
20.910,0.039
20.915,0.033
20.920,0.027
20.925,0.022
20.930,0.016
20.935,0.012
20.940,0.010
20.945,0.003
20.950,-0.007
20.955,-0.013
20.960,-0.013
20.965,-0.013
20.970,-0.016
20.975,-0.019
20.980,-0.022
20.985,-0.026
20.990,-0.027
20.995,-0.031
21.000,-0.030
21.005,-0.029
21.010,-0.031
21.015,-0.029
21.020,-0.030
21.025,-0.033
21.030,-0.031
21.035,-0.031
21.040,-0.032
21.045,-0.033
21.050,-0.033
21.055,-0.035
21.060,-0.036
21.065,-0.034
21.070,-0.029
21.075,-0.027
21.080,-0.030
21.085,-0.033
21.090,-0.032
21.095,-0.032
21.100,-0.036
21.105,-0.034
21.110,-0.031
21.115,-0.032
21.120,-0.032
21.125,-0.034
21.130,-0.035
21.135,-0.035
21.140,-0.034
21.145,-0.031
21.150,-0.032
21.155,-0.034
21.160,-0.034
21.165,-0.034
21.170,-0.044
21.175,-0.054
21.180,-0.069
21.185,-0.083
21.190,-0.089
21.195,-0.094
21.200,-0.106
21.205,-0.127
21.210,-0.141
21.215,-0.139
21.220,-0.130
21.225,-0.122
21.230,-0.109
21.235,-0.085
21.240,-0.069
21.245,-0.064
21.250,-0.053
21.255,-0.031
21.260,-0.003
21.265,0.017
21.270,0.032
21.275,0.048
21.280,0.063
21.285,0.068
21.290,0.068
21.295,0.070
21.300,0.069
21.305,0.065
21.310,0.064
21.315,0.065
21.320,0.081
21.325,0.120
21.330,0.162
21.335,0.153
21.340,0.049
21.345,-0.137
21.350,-0.415
21.355,-0.844
21.360,-1.303
21.365,-1.510
21.370,-1.380
21.375,-0.982
21.380,-0.439
21.385,0.063
21.390,0.387
21.395,0.474
21.400,0.438
21.405,0.402
21.410,0.375
21.415,0.341
21.420,0.313
21.425,0.321
21.430,0.321
21.435,0.292
21.440,0.285
21.445,0.281
21.450,0.259
21.455,0.248
21.460,0.244
21.465,0.227
21.470,0.210
21.475,0.203
21.480,0.193
21.485,0.176
21.490,0.163
21.495,0.155
21.500,0.142
21.505,0.132
21.510,0.124
21.515,0.113
21.520,0.104
21.525,0.094
21.530,0.081
21.535,0.069
21.540,0.061
21.545,0.050
21.550,0.037
21.555,0.023
21.560,0.010
21.565,-0.002
21.570,-0.014
21.575,-0.027
21.580,-0.039
21.585,-0.053
21.590,-0.072
21.595,-0.087
21.600,-0.096
21.605,-0.106
21.610,-0.115
21.615,-0.123
21.620,-0.127
21.625,-0.125
21.630,-0.120
21.635,-0.113
21.640,-0.098
21.645,-0.074
21.650,-0.048
21.655,-0.021
21.660,0.010
21.665,0.042
21.670,0.070
21.675,0.093
21.680,0.111
21.685,0.125
21.690,0.140
21.695,0.147
21.700,0.151
21.705,0.152
21.710,0.150
21.715,0.150
21.720,0.147
21.725,0.139
21.730,0.130
21.735,0.121
21.740,0.114
21.745,0.107
21.750,0.098
21.755,0.090
21.760,0.082
21.765,0.074
21.770,0.067
21.775,0.060
21.780,0.052
21.785,0.047
21.790,0.041
21.795,0.034
21.800,0.030
21.805,0.025
21.810,0.019
21.815,0.015
21.820,0.007
21.825,0.002
21.830,0.002
21.835,-0.004
21.840,-0.010
21.845,-0.011
21.850,-0.013
21.855,-0.017
21.860,-0.022
21.865,-0.025
21.870,-0.027
21.875,-0.030
21.880,-0.032
21.885,-0.031
21.890,-0.032
21.895,-0.036
21.900,-0.036
21.905,-0.034
21.910,-0.035
21.915,-0.036
21.920,-0.037
21.925,-0.036
21.930,-0.037
21.935,-0.038
21.940,-0.036
21.945,-0.035
21.950,-0.038
21.955,-0.037
21.960,-0.035
21.965,-0.036
21.970,-0.035
21.975,-0.035
21.980,-0.037
21.985,-0.037
21.990,-0.036
21.995,-0.037
22.000,-0.038
22.005,-0.037
22.010,-0.034
22.015,-0.031
22.020,-0.034
22.025,-0.042
22.030,-0.056
22.035,-0.074
22.040,-0.090
22.045,-0.094
22.050,-0.094
22.055,-0.108
22.060,-0.133
22.065,-0.149
22.070,-0.150
22.075,-0.144
22.080,-0.136
22.085,-0.121
22.090,-0.096
22.095,-0.076
22.100,-0.068
22.105,-0.057
22.110,-0.036
22.115,-0.009
22.120,0.015
22.125,0.033
22.130,0.050
22.135,0.061
22.140,0.067
22.145,0.068
22.150,0.065
22.155,0.063
22.160,0.062
22.165,0.061
22.170,0.062
22.175,0.072
22.180,0.104
22.185,0.150
22.190,0.158
22.195,0.077
22.200,-0.085
22.205,-0.332
22.210,-0.728
22.215,-1.210
22.220,-1.504
22.225,-1.455
22.230,-1.108
22.235,-0.578
22.240,-0.050
22.245,0.326
22.250,0.473
22.255,0.460
22.260,0.419
22.265,0.384
22.270,0.345
22.275,0.312
22.280,0.314
22.285,0.318
22.290,0.292
22.295,0.279
22.300,0.279
22.305,0.261
22.310,0.244
22.315,0.238
22.320,0.224
22.325,0.207
22.330,0.199
22.335,0.189
22.340,0.174
22.345,0.165
22.350,0.156
22.355,0.144
22.360,0.130
22.365,0.119
22.370,0.110
22.375,0.098
22.380,0.090
22.385,0.082
22.390,0.071
22.395,0.061
22.400,0.051
22.405,0.038
22.410,0.024
22.415,0.012
22.420,0.002
22.425,-0.012
22.430,-0.029
22.435,-0.042
22.440,-0.055
22.445,-0.070
22.450,-0.085
22.455,-0.098
22.460,-0.109
22.465,-0.117
22.470,-0.121
22.475,-0.125
22.480,-0.126
22.485,-0.124
22.490,-0.119
22.495,-0.103
22.500,-0.083
22.505,-0.059
22.510,-0.027
22.515,0.007
22.520,0.038
22.525,0.064
22.530,0.088
22.535,0.110
22.540,0.128
22.545,0.138
22.550,0.142
22.555,0.148
22.560,0.151
22.565,0.149
22.570,0.148
22.575,0.144
22.580,0.141
22.585,0.136
22.590,0.129
22.595,0.120
22.600,0.110
22.605,0.100
22.610,0.092
22.615,0.088
22.620,0.081
22.625,0.071
22.630,0.064
22.635,0.056
22.640,0.050
22.645,0.045
22.650,0.040
22.655,0.034
22.660,0.028
22.665,0.023
22.670,0.017
22.675,0.013
22.680,0.008
22.685,0.003
22.690,0.002
22.695,-0.005
22.700,-0.011
22.705,-0.013
22.710,-0.017
22.715,-0.019
22.720,-0.020
22.725,-0.024
22.730,-0.023
22.735,-0.025
22.740,-0.028
22.745,-0.029
22.750,-0.031
22.755,-0.033
22.760,-0.032
22.765,-0.031
22.770,-0.033
22.775,-0.031
22.780,-0.029
22.785,-0.033
22.790,-0.035
22.795,-0.034
22.800,-0.033
22.805,-0.032
22.810,-0.032
22.815,-0.031
22.820,-0.031
22.825,-0.033
22.830,-0.032
22.835,-0.031
22.840,-0.031
22.845,-0.032
22.850,-0.031
22.855,-0.032
22.860,-0.033
22.865,-0.032
22.870,-0.033
22.875,-0.035
22.880,-0.035
22.885,-0.031
22.890,-0.029
22.895,-0.031
22.900,-0.031
22.905,-0.032
22.910,-0.036
22.915,-0.046
22.920,-0.064
22.925,-0.079
22.930,-0.089
22.935,-0.092
22.940,-0.098
22.945,-0.121
22.950,-0.141
22.955,-0.148
22.960,-0.141
22.965,-0.132
22.970,-0.121
22.975,-0.097
22.980,-0.075
22.985,-0.066
22.990,-0.056
22.995,-0.038
23.000,-0.013
23.005,0.011
23.010,0.031
23.015,0.050
23.020,0.062
23.025,0.067
23.030,0.069
23.035,0.070
23.040,0.069
23.045,0.066
23.050,0.064
23.055,0.066
23.060,0.072
23.065,0.099
23.070,0.148
23.075,0.168
23.080,0.103
23.085,-0.051
23.090,-0.289
23.095,-0.668
23.100,-1.157
23.105,-1.486
23.110,-1.478
23.115,-1.166
23.120,-0.646
23.125,-0.103
23.130,0.296
23.135,0.469
23.140,0.470
23.145,0.431
23.150,0.395
23.155,0.354
23.160,0.317
23.165,0.313
23.170,0.319
23.175,0.296
23.180,0.280
23.185,0.282
23.190,0.265
23.195,0.243
23.200,0.239
23.205,0.228
23.210,0.206
23.215,0.197
23.220,0.192
23.225,0.177
23.230,0.163
23.235,0.154
23.240,0.146
23.245,0.134
23.250,0.123
23.255,0.112
23.260,0.102
23.265,0.092
23.270,0.082
23.275,0.069
23.280,0.059
23.285,0.050
23.290,0.038
23.295,0.026
23.300,0.015
23.305,0.001
23.310,-0.011
23.315,-0.025
23.320,-0.041
23.325,-0.054
23.330,-0.068
23.335,-0.082
23.340,-0.094
23.345,-0.102
23.350,-0.112
23.355,-0.120
23.360,-0.123
23.365,-0.123
23.370,-0.119
23.375,-0.113
23.380,-0.103
23.385,-0.085
23.390,-0.061
23.395,-0.035
23.400,-0.006
23.405,0.023
23.410,0.050
23.415,0.076
23.420,0.098
23.425,0.112
23.430,0.127
23.435,0.142
23.440,0.147
23.445,0.150
23.450,0.148
23.455,0.145
23.460,0.143
23.465,0.139
23.470,0.134
23.475,0.127
23.480,0.116
23.485,0.107
23.490,0.101
23.495,0.098
23.500,0.089
23.505,0.077
23.510,0.068
23.515,0.061
23.520,0.055
23.525,0.051
23.530,0.047
23.535,0.041
23.540,0.036
23.545,0.028
23.550,0.020
23.555,0.017
23.560,0.011
23.565,0.005
23.570,0.002
23.575,-0.002
23.580,-0.005
23.585,-0.010
23.590,-0.016
23.595,-0.017
23.600,-0.015
23.605,-0.019
23.610,-0.023
23.615,-0.023
23.620,-0.022
23.625,-0.022
23.630,-0.026
23.635,-0.028
23.640,-0.027
23.645,-0.025
23.650,-0.026
23.655,-0.026
23.660,-0.025
23.665,-0.028
23.670,-0.029
23.675,-0.028
23.680,-0.029
23.685,-0.029
23.690,-0.029
23.695,-0.029
23.700,-0.027
23.705,-0.029
23.710,-0.031
23.715,-0.032
23.720,-0.031
23.725,-0.031
23.730,-0.032
23.735,-0.033
23.740,-0.033
23.745,-0.033
23.750,-0.036
23.755,-0.036
23.760,-0.035
23.765,-0.034
23.770,-0.031
23.775,-0.034
23.780,-0.035
23.785,-0.033
23.790,-0.033
23.795,-0.033
23.800,-0.030
23.805,-0.030
23.810,-0.033
23.815,-0.042
23.820,-0.060
23.825,-0.078
23.830,-0.085
23.835,-0.089
23.840,-0.100
23.845,-0.120
23.850,-0.139
23.855,-0.145
23.860,-0.141
23.865,-0.131
23.870,-0.118
23.875,-0.097
23.880,-0.077
23.885,-0.067
23.890,-0.056
23.895,-0.038
23.900,-0.014
23.905,0.012
23.910,0.034
23.915,0.053
23.920,0.065
23.925,0.071
23.930,0.073
23.935,0.074
23.940,0.072
23.945,0.068
23.950,0.064
23.955,0.064
23.960,0.070
23.965,0.099
23.970,0.152
23.975,0.174
23.980,0.112
23.985,-0.040
23.990,-0.271
23.995,-0.639
24.000,-1.129
24.005,-1.474
24.010,-1.477
24.015,-1.175
24.020,-0.661
24.025,-0.117
24.030,0.289
24.035,0.469
24.040,0.472
24.045,0.437
24.050,0.403
24.055,0.361
24.060,0.319
24.065,0.314
24.070,0.324
24.075,0.301
24.080,0.284
24.085,0.287
24.090,0.270
24.095,0.248
24.100,0.240
24.105,0.232
24.110,0.215
24.115,0.202
24.120,0.193
24.125,0.179
24.130,0.169
24.135,0.160
24.140,0.145
24.145,0.130
24.150,0.122
24.155,0.114
24.160,0.102
24.165,0.092
24.170,0.083
24.175,0.070
24.180,0.059
24.185,0.052
24.190,0.043
24.195,0.030
24.200,0.017
24.205,0.004
24.210,-0.008
24.215,-0.021
24.220,-0.035
24.225,-0.050
24.230,-0.064
24.235,-0.077
24.240,-0.090
24.245,-0.100
24.250,-0.107
24.255,-0.111
24.260,-0.116
24.265,-0.119
24.270,-0.118
24.275,-0.112
24.280,-0.100
24.285,-0.082
24.290,-0.060
24.295,-0.033
24.300,-0.002
24.305,0.028
24.310,0.055
24.315,0.078
24.320,0.099
24.325,0.117
24.330,0.131
24.335,0.141
24.340,0.149
24.345,0.150
24.350,0.149
24.355,0.148
24.360,0.144
24.365,0.139
24.370,0.132
24.375,0.125
24.380,0.120
24.385,0.114
24.390,0.105
24.395,0.097
24.400,0.089
24.405,0.081
24.410,0.073
24.415,0.065
24.420,0.059
24.425,0.054
24.430,0.047
24.435,0.039
24.440,0.034
24.445,0.027
24.450,0.022
24.455,0.018
24.460,0.013
24.465,0.007
24.470,0.002
24.475,-0.003
24.480,-0.007
24.485,-0.012
24.490,-0.017
24.495,-0.018
24.500,-0.019
24.505,-0.020
24.510,-0.021
24.515,-0.025
24.520,-0.028
24.525,-0.030
24.530,-0.031
24.535,-0.027
24.540,-0.027
24.545,-0.029
24.550,-0.033
24.555,-0.036
24.560,-0.035
24.565,-0.033
24.570,-0.034
24.575,-0.036
24.580,-0.035
24.585,-0.034
24.590,-0.034
24.595,-0.032
24.600,-0.031
24.605,-0.032
24.610,-0.034
24.615,-0.034
24.620,-0.034
24.625,-0.034
24.630,-0.034
24.635,-0.035
24.640,-0.034
24.645,-0.033
24.650,-0.034
24.655,-0.036
24.660,-0.035
24.665,-0.034
24.670,-0.036
24.675,-0.035
24.680,-0.037
24.685,-0.040
24.690,-0.036
24.695,-0.034
24.700,-0.031
24.705,-0.030
24.710,-0.037
24.715,-0.051
24.720,-0.067
24.725,-0.084
24.730,-0.094
24.735,-0.095
24.740,-0.104
24.745,-0.127
24.750,-0.146
24.755,-0.151
24.760,-0.145
24.765,-0.138
24.770,-0.126
24.775,-0.101
24.780,-0.077
24.785,-0.066
24.790,-0.057
24.795,-0.039
24.800,-0.013
24.805,0.011
24.810,0.033
24.815,0.051
24.820,0.061
24.825,0.069
24.830,0.070
24.835,0.068
24.840,0.066
24.845,0.064
24.850,0.064
24.855,0.064
24.860,0.070
24.865,0.103
24.870,0.151
24.875,0.163
24.880,0.088
24.885,-0.072
24.890,-0.322
24.895,-0.721
24.900,-1.206
24.905,-1.501
24.910,-1.453
24.915,-1.114
24.920,-0.585
24.925,-0.051
24.930,0.329
24.935,0.476
24.940,0.462
24.945,0.428
24.950,0.399
24.955,0.356
24.960,0.312
24.965,0.310
24.970,0.321
24.975,0.295
24.980,0.277
24.985,0.277
24.990,0.261
24.995,0.244
25.000,0.237
25.005,0.225
25.010,0.207
25.015,0.199
25.020,0.192
25.025,0.177
25.030,0.165
25.035,0.154
25.040,0.140
25.045,0.132
25.050,0.126
25.055,0.113
25.060,0.101
25.065,0.094
25.070,0.085
25.075,0.075
25.080,0.063
25.085,0.049
25.090,0.038
25.095,0.026
25.100,0.015
25.105,0.005
25.110,-0.010
25.115,-0.024
25.120,-0.035
25.125,-0.047
25.130,-0.063
25.135,-0.080
25.140,-0.091
25.145,-0.099
25.150,-0.108
25.155,-0.114
25.160,-0.117
25.165,-0.116
25.170,-0.113
25.175,-0.109
25.180,-0.098
25.185,-0.078
25.190,-0.051
25.195,-0.021
25.200,0.005
25.205,0.032
25.210,0.058
25.215,0.081
25.220,0.101
25.225,0.118
25.230,0.131
25.235,0.142
25.240,0.149
25.245,0.149
25.250,0.149
25.255,0.149
25.260,0.145
25.265,0.139
25.270,0.131
25.275,0.122
25.280,0.117
25.285,0.109
25.290,0.099
25.295,0.091
25.300,0.085
25.305,0.079
25.310,0.071
25.315,0.064
25.320,0.059
25.325,0.053
25.330,0.046
25.335,0.036
25.340,0.029
25.345,0.026
25.350,0.020
25.355,0.013
25.360,0.005
25.365,0.002
25.370,0.000
25.375,-0.006
25.380,-0.008
25.385,-0.012
25.390,-0.017
25.395,-0.022
25.400,-0.028
25.405,-0.028
25.410,-0.025
25.415,-0.026
25.420,-0.028
25.425,-0.030
25.430,-0.029
25.435,-0.029
25.440,-0.030
25.445,-0.031
25.450,-0.031
25.455,-0.031
25.460,-0.030
25.465,-0.029
25.470,-0.030
25.475,-0.033
25.480,-0.035
25.485,-0.031
25.490,-0.028
25.495,-0.029
25.500,-0.031
25.505,-0.033
25.510,-0.032
25.515,-0.032
25.520,-0.030
25.525,-0.030
25.530,-0.030
25.535,-0.030
25.540,-0.031
25.545,-0.034
25.550,-0.035
25.555,-0.036
25.560,-0.037
25.565,-0.034
25.570,-0.033
25.575,-0.034
25.580,-0.033
25.585,-0.032
25.590,-0.031
25.595,-0.029
25.600,-0.036
25.605,-0.047
25.610,-0.063
25.615,-0.082
25.620,-0.090
25.625,-0.091
25.630,-0.101
25.635,-0.123
25.640,-0.141
25.645,-0.146
25.650,-0.142
25.655,-0.133
25.660,-0.123
25.665,-0.102
25.670,-0.076
25.675,-0.064
25.680,-0.056
25.685,-0.039
25.690,-0.015
25.695,0.011
25.700,0.034
25.705,0.053
25.710,0.064
25.715,0.070
25.720,0.072
25.725,0.072
25.730,0.072
25.735,0.068
25.740,0.065
25.745,0.063
25.750,0.068
25.755,0.095
25.760,0.145
25.765,0.171
25.770,0.113
25.775,-0.031
25.780,-0.254
25.785,-0.620
25.790,-1.111
25.795,-1.466
25.800,-1.486
25.805,-1.196
25.810,-0.686
25.815,-0.139
25.820,0.274
25.825,0.465
25.830,0.470
25.835,0.435
25.840,0.404
25.845,0.360
25.850,0.319
25.855,0.312
25.860,0.321
25.865,0.299
25.870,0.280
25.875,0.283
25.880,0.268
25.885,0.244
25.890,0.237
25.895,0.229
25.900,0.208
25.905,0.198
25.910,0.194
25.915,0.180
25.920,0.165
25.925,0.154
25.930,0.143
25.935,0.133
25.940,0.124
25.945,0.112
25.950,0.100
25.955,0.090
25.960,0.081
25.965,0.071
25.970,0.059
25.975,0.050
25.980,0.038
25.985,0.028
25.990,0.018
25.995,0.005
26.000,-0.005
26.005,-0.019
26.010,-0.033
26.015,-0.047
26.020,-0.060
26.025,-0.070
26.030,-0.083
26.035,-0.096
26.040,-0.103
26.045,-0.106
26.050,-0.108
26.055,-0.110
26.060,-0.107
26.065,-0.100
26.070,-0.090
26.075,-0.076
26.080,-0.056
26.085,-0.030
26.090,0.000
26.095,0.028
26.100,0.055
26.105,0.078
26.110,0.098
26.115,0.115
26.120,0.127
26.125,0.134
26.130,0.141
26.135,0.145
26.140,0.145
26.145,0.143
26.150,0.139
26.155,0.134
26.160,0.130
26.165,0.123
26.170,0.113
26.175,0.105
26.180,0.097
26.185,0.092
26.190,0.087
26.195,0.079
26.200,0.070
26.205,0.064
26.210,0.059
26.215,0.051
26.220,0.042
26.225,0.035
26.230,0.029
26.235,0.024
26.240,0.020
26.245,0.015
26.250,0.010
26.255,0.004
26.260,-0.001
26.265,-0.005
26.270,-0.009
26.275,-0.013
26.280,-0.016
26.285,-0.018
26.290,-0.021
26.295,-0.027
26.300,-0.027
26.305,-0.026
26.310,-0.027
26.315,-0.029
26.320,-0.029
26.325,-0.028
26.330,-0.030
26.335,-0.031
26.340,-0.030
26.345,-0.027
26.350,-0.028
26.355,-0.032
26.360,-0.033
26.365,-0.032
26.370,-0.031
26.375,-0.032
26.380,-0.029
26.385,-0.026
26.390,-0.028
26.395,-0.029
26.400,-0.030
26.405,-0.030
26.410,-0.029
26.415,-0.029
26.420,-0.030
26.425,-0.032
26.430,-0.035
26.435,-0.033
26.440,-0.032
26.445,-0.033
26.450,-0.033
26.455,-0.033
26.460,-0.031
26.465,-0.031
26.470,-0.033
26.475,-0.035
26.480,-0.036
26.485,-0.033
26.490,-0.034
26.495,-0.043
26.500,-0.059
26.505,-0.078
26.510,-0.089
26.515,-0.092
26.520,-0.099
26.525,-0.116
26.530,-0.137
26.535,-0.151
26.540,-0.149
26.545,-0.139
26.550,-0.131
26.555,-0.115
26.560,-0.090
26.565,-0.074
26.570,-0.064
26.575,-0.047
26.580,-0.025
26.585,0.001
26.590,0.027
26.595,0.046
26.600,0.060
26.605,0.067
26.610,0.069
26.615,0.071
26.620,0.072
26.625,0.068
26.630,0.067
26.635,0.067
26.640,0.068
26.645,0.087
26.650,0.132
26.655,0.170
26.660,0.137
26.665,0.011
26.670,-0.191
26.675,-0.516
26.680,-0.992
26.685,-1.409
26.690,-1.514
26.695,-1.295
26.700,-0.828
26.705,-0.269
26.710,0.191
26.715,0.439
26.720,0.473
26.725,0.441
26.730,0.415
26.735,0.373
26.740,0.323
26.745,0.301
26.750,0.315
26.755,0.304
26.760,0.276
26.765,0.274
26.770,0.267
26.775,0.242
26.780,0.232
26.785,0.227
26.790,0.210
26.795,0.198
26.800,0.193
26.805,0.180
26.810,0.167
26.815,0.157
26.820,0.146
26.825,0.136
26.830,0.124
26.835,0.113
26.840,0.103
26.845,0.095
26.850,0.086
26.855,0.075
26.860,0.062
26.865,0.049
26.870,0.040
26.875,0.029
26.880,0.016
26.885,0.005
26.890,-0.005
26.895,-0.019
26.900,-0.034
26.905,-0.047
26.910,-0.060
26.915,-0.071
26.920,-0.083
26.925,-0.091
26.930,-0.096
26.935,-0.102
26.940,-0.108
26.945,-0.108
26.950,-0.105
26.955,-0.103
26.960,-0.097
26.965,-0.083
26.970,-0.062
26.975,-0.039
26.980,-0.016
26.985,0.013
26.990,0.042
26.995,0.068
27.000,0.089
27.005,0.106
27.010,0.119
27.015,0.131
27.020,0.138
27.025,0.142
27.030,0.144
27.035,0.144
27.040,0.141
27.045,0.136
27.050,0.130
27.055,0.123
27.060,0.118
27.065,0.112
27.070,0.102
27.075,0.095
27.080,0.087
27.085,0.078
27.090,0.070
27.095,0.066
27.100,0.062
27.105,0.054
27.110,0.047
27.115,0.041
27.120,0.033
27.125,0.027
27.130,0.022
27.135,0.019
27.140,0.014
27.145,0.007
27.150,-0.002
27.155,-0.006
27.160,-0.008
27.165,-0.014
27.170,-0.017
27.175,-0.019
27.180,-0.023
27.185,-0.023
27.190,-0.024
27.195,-0.024
27.200,-0.023
27.205,-0.025
27.210,-0.024
27.215,-0.024
27.220,-0.025
27.225,-0.024
27.230,-0.025
27.235,-0.024
27.240,-0.025
27.245,-0.027
27.250,-0.025
27.255,-0.029
27.260,-0.030
27.265,-0.030
27.270,-0.030
27.275,-0.028
27.280,-0.029
27.285,-0.030
27.290,-0.029
27.295,-0.030
27.300,-0.031
27.305,-0.030
27.310,-0.030
27.315,-0.031
27.320,-0.033
27.325,-0.033
27.330,-0.032
27.335,-0.035
27.340,-0.034
27.345,-0.033
27.350,-0.035
27.355,-0.034
27.360,-0.035
27.365,-0.033
27.370,-0.035
27.375,-0.041
27.380,-0.054
27.385,-0.076
27.390,-0.087
27.395,-0.089
27.400,-0.095
27.405,-0.111
27.410,-0.138
27.415,-0.150
27.420,-0.148
27.425,-0.142
27.430,-0.132
27.435,-0.116
27.440,-0.089
27.445,-0.068
27.450,-0.059
27.455,-0.046
27.460,-0.026
27.465,-0.002
27.470,0.024
27.475,0.045
27.480,0.060
27.485,0.069
27.490,0.070
27.495,0.069
27.500,0.072
27.505,0.072
27.510,0.070
27.515,0.069
27.520,0.070
27.525,0.084
27.530,0.125
27.535,0.168
27.540,0.148
27.545,0.037
27.550,-0.150
27.555,-0.449
27.560,-0.904
27.565,-1.349
27.570,-1.513
27.575,-1.339
27.580,-0.906
27.585,-0.353
27.590,0.130
27.595,0.413
27.600,0.475
27.605,0.449
27.610,0.419
27.615,0.381
27.620,0.332
27.625,0.302
27.630,0.312
27.635,0.303
27.640,0.277
27.645,0.276
27.650,0.271
27.655,0.246
27.660,0.233
27.665,0.229
27.670,0.212
27.675,0.197
27.680,0.191
27.685,0.177
27.690,0.163
27.695,0.155
27.700,0.145
27.705,0.134
27.710,0.126
27.715,0.117
27.720,0.106
27.725,0.093
27.730,0.082
27.735,0.073
27.740,0.062
27.745,0.052
27.750,0.044
27.755,0.029
27.760,0.015
27.765,0.003
27.770,-0.011
27.775,-0.021
27.780,-0.033
27.785,-0.047
27.790,-0.059
27.795,-0.072
27.800,-0.085
27.805,-0.094
27.810,-0.097
27.815,-0.102
27.820,-0.106
27.825,-0.107
27.830,-0.107
27.835,-0.102
27.840,-0.091
27.845,-0.077
27.850,-0.060
27.855,-0.037
27.860,-0.009
27.865,0.018
27.870,0.044
27.875,0.070
27.880,0.090
27.885,0.108
27.890,0.123
27.895,0.132
27.900,0.140
27.905,0.145
27.910,0.148
27.915,0.148
27.920,0.144
27.925,0.137
27.930,0.131
27.935,0.126
27.940,0.119
27.945,0.112
27.950,0.108
27.955,0.098
27.960,0.088
27.965,0.079
27.970,0.070
27.975,0.065
27.980,0.061
27.985,0.052
27.990,0.043
27.995,0.037
28.000,0.031
28.005,0.027
28.010,0.021
28.015,0.014
28.020,0.011
28.025,0.007
28.030,0.001
28.035,-0.004
28.040,-0.007
28.045,-0.008
28.050,-0.011
28.055,-0.018
28.060,-0.022
28.065,-0.022
28.070,-0.023
28.075,-0.026
28.080,-0.028
28.085,-0.028
28.090,-0.028
28.095,-0.028
28.100,-0.027
28.105,-0.026
28.110,-0.025
28.115,-0.027
28.120,-0.030
28.125,-0.030
28.130,-0.029
28.135,-0.028
28.140,-0.025
28.145,-0.025
28.150,-0.026
28.155,-0.030
28.160,-0.031
28.165,-0.030
28.170,-0.029
28.175,-0.028
28.180,-0.028
28.185,-0.030
28.190,-0.031
28.195,-0.031
28.200,-0.027
28.205,-0.027
28.210,-0.031
28.215,-0.032
28.220,-0.031
28.225,-0.027
28.230,-0.031
28.235,-0.044
28.240,-0.059
28.245,-0.073
28.250,-0.081
28.255,-0.084
28.260,-0.093
28.265,-0.115
28.270,-0.139
28.275,-0.148
28.280,-0.148
28.285,-0.140
28.290,-0.127
28.295,-0.110
28.300,-0.087
28.305,-0.072
28.310,-0.063
28.315,-0.045
28.320,-0.025
28.325,-0.003
28.330,0.024
28.335,0.047
28.340,0.062
28.345,0.070
28.350,0.069
28.355,0.069
28.360,0.069
28.365,0.066
28.370,0.067
28.375,0.065
28.380,0.063
28.385,0.078
28.390,0.123
28.395,0.171
28.400,0.153
28.405,0.039
28.410,-0.153
28.415,-0.454
28.420,-0.912
28.425,-1.353
28.430,-1.511
28.435,-1.337
28.440,-0.893
28.445,-0.327
28.450,0.155
28.455,0.424
28.460,0.471
28.465,0.444
28.470,0.419
28.475,0.376
28.480,0.321
28.485,0.291
28.490,0.303
28.495,0.296
28.500,0.266
28.505,0.264
28.510,0.261
28.515,0.237
28.520,0.225
28.525,0.219
28.530,0.200
28.535,0.188
28.540,0.186
28.545,0.178
28.550,0.161
28.555,0.149
28.560,0.139
28.565,0.126
28.570,0.116
28.575,0.107
28.580,0.097
28.585,0.088
28.590,0.078
28.595,0.065
28.600,0.054
28.605,0.045
28.610,0.036
28.615,0.025
28.620,0.011
28.625,-0.002
28.630,-0.016
28.635,-0.027
28.640,-0.038
28.645,-0.052
28.650,-0.068
28.655,-0.081
28.660,-0.090
28.665,-0.101
28.670,-0.109
28.675,-0.112
28.680,-0.115
28.685,-0.113
28.690,-0.109
28.695,-0.105
28.700,-0.097
28.705,-0.082
28.710,-0.061
28.715,-0.034
28.720,-0.006
28.725,0.024
28.730,0.053
28.735,0.077
28.740,0.096
28.745,0.113
28.750,0.129
28.755,0.140
28.760,0.143
28.765,0.145
28.770,0.148
28.775,0.145
28.780,0.146
28.785,0.144
28.790,0.136
28.795,0.130
28.800,0.122
28.805,0.113
28.810,0.108
28.815,0.100
28.820,0.089
28.825,0.079
28.830,0.071
28.835,0.065
28.840,0.058
28.845,0.048
28.850,0.040
28.855,0.037
28.860,0.034
28.865,0.026
28.870,0.020
28.875,0.017
28.880,0.012
28.885,0.004
28.890,-0.002
28.895,-0.006
28.900,-0.008
28.905,-0.016
28.910,-0.022
28.915,-0.022
28.920,-0.022
28.925,-0.024
28.930,-0.028
28.935,-0.028
28.940,-0.027
28.945,-0.033
28.950,-0.033
28.955,-0.034
28.960,-0.037
28.965,-0.033
28.970,-0.033
28.975,-0.033
28.980,-0.032
28.985,-0.035
28.990,-0.036
28.995,-0.032
29.000,-0.031
29.005,-0.029
29.010,-0.028
29.015,-0.032
29.020,-0.031
29.025,-0.026
29.030,-0.028
29.035,-0.034
29.040,-0.035
29.045,-0.035
29.050,-0.036
29.055,-0.036
29.060,-0.036
29.065,-0.037
29.070,-0.036
29.075,-0.033
29.080,-0.032
29.085,-0.037
29.090,-0.048
29.095,-0.063
29.100,-0.079
29.105,-0.090
29.110,-0.093
29.115,-0.103
29.120,-0.124
29.125,-0.145
29.130,-0.152
29.135,-0.142
29.140,-0.131
29.145,-0.126
29.150,-0.114
29.155,-0.094
29.160,-0.076
29.165,-0.061
29.170,-0.047
29.175,-0.027
29.180,0.001
29.185,0.028
29.190,0.044
29.195,0.054
29.200,0.063
29.205,0.066
29.210,0.065
29.215,0.064
29.220,0.063
29.225,0.061
29.230,0.061
29.235,0.063
29.240,0.086
29.245,0.134
29.250,0.171
29.255,0.138
29.260,0.011
29.265,-0.202
29.270,-0.543
29.275,-1.021
29.280,-1.423
29.285,-1.512
29.290,-1.273
29.295,-0.779
29.300,-0.202
29.305,0.250
29.310,0.462
29.315,0.470
29.320,0.433
29.325,0.406
29.330,0.363
29.335,0.307
29.340,0.283
29.345,0.295
29.350,0.282
29.355,0.259
29.360,0.261
29.365,0.249
29.370,0.223
29.375,0.219
29.380,0.216
29.385,0.196
29.390,0.182
29.395,0.177
29.400,0.163
29.405,0.150
29.410,0.144
29.415,0.133
29.420,0.121
29.425,0.112
29.430,0.104
29.435,0.093
29.440,0.081
29.445,0.071
29.450,0.062
29.455,0.053
29.460,0.041
29.465,0.030
29.470,0.019
29.475,0.007
29.480,-0.005
29.485,-0.017
29.490,-0.029
29.495,-0.042
29.500,-0.055
29.505,-0.064
29.510,-0.078
29.515,-0.092
29.520,-0.098
29.525,-0.102
29.530,-0.106
29.535,-0.109
29.540,-0.110
29.545,-0.105
29.550,-0.097
29.555,-0.089
29.560,-0.075
29.565,-0.052
29.570,-0.025
29.575,0.003
29.580,0.030
29.585,0.058
29.590,0.084
29.595,0.104
29.600,0.118
29.605,0.130
29.610,0.144
29.615,0.152
29.620,0.153
29.625,0.151
29.630,0.150
29.635,0.146
29.640,0.141
29.645,0.137
29.650,0.130
29.655,0.122
29.660,0.116
29.665,0.106
29.670,0.097
29.675,0.089
29.680,0.081
29.685,0.076
29.690,0.070
29.695,0.061
29.700,0.051
29.705,0.045
29.710,0.039
29.715,0.033
29.720,0.031
29.725,0.025
29.730,0.017
29.735,0.010
29.740,0.002
29.745,-0.003
29.750,-0.007
29.755,-0.012
29.760,-0.014
29.765,-0.018
29.770,-0.020
29.775,-0.020
29.780,-0.019
29.785,-0.022
29.790,-0.026
29.795,-0.029
29.800,-0.028
29.805,-0.027
29.810,-0.027
29.815,-0.025
29.820,-0.025
29.825,-0.025
29.830,-0.023
29.835,-0.027
29.840,-0.029
29.845,-0.027
29.850,-0.024
29.855,-0.020
29.860,-0.024
29.865,-0.030
29.870,-0.028
29.875,-0.025
29.880,-0.025
29.885,-0.027
29.890,-0.030
29.895,-0.028
29.900,-0.025
29.905,-0.027
29.910,-0.027
29.915,-0.029
29.920,-0.030
29.925,-0.028
29.930,-0.030
29.935,-0.030
29.940,-0.028
29.945,-0.030
29.950,-0.040
29.955,-0.057
29.960,-0.078
29.965,-0.089
29.970,-0.088
29.975,-0.094
29.980,-0.114
29.985,-0.138
29.990,-0.147
29.995,-0.141
30.000,-0.133
30.005,-0.126
30.010,-0.111
30.015,-0.088
30.020,-0.071
30.025,-0.060
30.030,-0.045
30.035,-0.023
30.040,0.002
30.045,0.024
30.050,0.045
30.055,0.060
30.060,0.067
30.065,0.069
30.070,0.070
30.075,0.071
30.080,0.069
30.085,0.066
30.090,0.063
30.095,0.064
30.100,0.084
30.105,0.129
30.110,0.174
30.115,0.152
30.120,0.032
30.125,-0.165
30.130,-0.478
30.135,-0.941
30.140,-1.377
30.145,-1.526
30.150,-1.341
30.155,-0.891
30.160,-0.326
30.165,0.158
30.170,0.434
30.175,0.480
30.180,0.444
30.185,0.413
30.190,0.370
30.195,0.324
30.200,0.300
30.205,0.311
30.210,0.302
30.215,0.273
30.220,0.272
30.225,0.269
30.230,0.243
30.235,0.228
30.240,0.224
30.245,0.211
30.250,0.199
30.255,0.193
30.260,0.179
30.265,0.164
30.270,0.156
30.275,0.146
30.280,0.133
30.285,0.121
30.290,0.110
30.295,0.098
30.300,0.086
30.305,0.079
30.310,0.069
30.315,0.062
30.320,0.051
30.325,0.037
30.330,0.027
30.335,0.016
30.340,0.002
30.345,-0.012
30.350,-0.025
30.355,-0.038
30.360,-0.053
30.365,-0.069
30.370,-0.078
30.375,-0.085
30.380,-0.094
30.385,-0.102
30.390,-0.107
30.395,-0.111
30.400,-0.110
30.405,-0.107
30.410,-0.099
30.415,-0.091
30.420,-0.079
30.425,-0.058
30.430,-0.036
30.435,-0.007
30.440,0.025
30.445,0.054
30.450,0.076
30.455,0.095
30.460,0.114
30.465,0.128
30.470,0.137
30.475,0.144
30.480,0.150
30.485,0.151
30.490,0.147
30.495,0.143
30.500,0.139
30.505,0.132
30.510,0.127
30.515,0.123
30.520,0.116
30.525,0.107
30.530,0.097
30.535,0.089
30.540,0.081
30.545,0.072
30.550,0.065
30.555,0.059
30.560,0.050
30.565,0.042
30.570,0.035
30.575,0.032
30.580,0.026
30.585,0.020
30.590,0.015
30.595,0.009
30.600,0.004
30.605,-0.001
30.610,-0.007
30.615,-0.013
30.620,-0.016
30.625,-0.016
30.630,-0.020
30.635,-0.024
30.640,-0.025
30.645,-0.025
30.650,-0.022
30.655,-0.026
30.660,-0.029
30.665,-0.028
30.670,-0.027
30.675,-0.026
30.680,-0.029
30.685,-0.030
30.690,-0.028
30.695,-0.026
30.700,-0.027
30.705,-0.028
30.710,-0.028
30.715,-0.028
30.720,-0.028
30.725,-0.029
30.730,-0.028
30.735,-0.029
30.740,-0.030
30.745,-0.029
30.750,-0.029
30.755,-0.032
30.760,-0.033
30.765,-0.034
30.770,-0.038
30.775,-0.035
30.780,-0.031
30.785,-0.032
30.790,-0.031
30.795,-0.032
30.800,-0.031
30.805,-0.027
30.810,-0.030
30.815,-0.041
30.820,-0.051
30.825,-0.071
30.830,-0.089
30.835,-0.093
30.840,-0.097
30.845,-0.109
30.850,-0.131
30.855,-0.149
30.860,-0.147
30.865,-0.139
30.870,-0.133
30.875,-0.120
30.880,-0.097
30.885,-0.078
30.890,-0.067
30.895,-0.052
30.900,-0.031
30.905,-0.006
30.910,0.016
30.915,0.034
30.920,0.052
30.925,0.062
30.930,0.067
30.935,0.070
30.940,0.068
30.945,0.065
30.950,0.065
30.955,0.063
30.960,0.062
30.965,0.068
30.970,0.101
30.975,0.154
30.980,0.168
30.985,0.090
30.990,-0.073
30.995,-0.321
31.000,-0.721
31.005,-1.210
31.010,-1.505
31.015,-1.459
31.020,-1.116
31.025,-0.578
31.030,-0.044
31.035,0.334
31.040,0.477
31.045,0.460
31.050,0.425
31.055,0.391
31.060,0.345
31.065,0.305
31.070,0.305
31.075,0.312
31.080,0.287
31.085,0.274
31.090,0.275
31.095,0.252
31.100,0.232
31.105,0.231
31.110,0.221
31.115,0.204
31.120,0.194
31.125,0.184
31.130,0.170
31.135,0.158
31.140,0.148
31.145,0.138
31.150,0.128
31.155,0.117
31.160,0.105
31.165,0.092
31.170,0.082
31.175,0.075
31.180,0.063
31.185,0.052
31.190,0.043
31.195,0.032
31.200,0.021
31.205,0.009
31.210,-0.001
31.215,-0.013
31.220,-0.026
31.225,-0.040
31.230,-0.053
31.235,-0.067
31.240,-0.078
31.245,-0.087
31.250,-0.095
31.255,-0.100
31.260,-0.105
31.265,-0.108
31.270,-0.106
31.275,-0.102
31.280,-0.095
31.285,-0.083
31.290,-0.072
31.295,-0.052
31.300,-0.021
31.305,0.008
31.310,0.033
31.315,0.059
31.320,0.083
31.325,0.103
31.330,0.118
31.335,0.127
31.340,0.136
31.345,0.144
31.350,0.144
31.355,0.141
31.360,0.140
31.365,0.135
31.370,0.129
31.375,0.124
31.380,0.119
31.385,0.112
31.390,0.104
31.395,0.098
31.400,0.089
31.405,0.082
31.410,0.073
31.415,0.066
31.420,0.063
31.425,0.056
31.430,0.049
31.435,0.040
31.440,0.034
31.445,0.029
31.450,0.020
31.455,0.017
31.460,0.014
31.465,0.006
31.470,0.001
31.475,-0.005
31.480,-0.009
31.485,-0.011
31.490,-0.015
31.495,-0.019
31.500,-0.019
31.505,-0.019
31.510,-0.021
31.515,-0.022
31.520,-0.023
31.525,-0.025
31.530,-0.026
31.535,-0.026
31.540,-0.026
31.545,-0.025
31.550,-0.027
31.555,-0.029
31.560,-0.031
31.565,-0.031
31.570,-0.030
31.575,-0.031
31.580,-0.028
31.585,-0.026
31.590,-0.025
31.595,-0.027
31.600,-0.031
31.605,-0.030
31.610,-0.029
31.615,-0.029
31.620,-0.030
31.625,-0.032
31.630,-0.031
31.635,-0.031
31.640,-0.030
31.645,-0.030
31.650,-0.032
31.655,-0.031
31.660,-0.029
31.665,-0.036
31.670,-0.052
31.675,-0.071
31.680,-0.087
31.685,-0.090
31.690,-0.091
31.695,-0.107
31.700,-0.131
31.705,-0.146
31.710,-0.148
31.715,-0.142
31.720,-0.134
31.725,-0.122
31.730,-0.099
31.735,-0.078
31.740,-0.067
31.745,-0.054
31.750,-0.033
31.755,-0.009
31.760,0.013
31.765,0.036
31.770,0.054
31.775,0.063
31.780,0.070
31.785,0.068
31.790,0.068
31.795,0.070
31.800,0.066
31.805,0.064
31.810,0.062
31.815,0.070
31.820,0.106
31.825,0.154
31.830,0.161
31.835,0.082
31.840,-0.079
31.845,-0.331
31.850,-0.741
31.855,-1.229
31.860,-1.511
31.865,-1.448
31.870,-1.093
31.875,-0.551
31.880,-0.018
31.885,0.347
31.890,0.476
31.895,0.457
31.900,0.420
31.905,0.386
31.910,0.342
31.915,0.304
31.920,0.305
31.925,0.309
31.930,0.283
31.935,0.271
31.940,0.274
31.945,0.255
31.950,0.236
31.955,0.231
31.960,0.214
31.965,0.196
31.970,0.190
31.975,0.181
31.980,0.166
31.985,0.156
31.990,0.149
31.995,0.136
32.000,0.124
32.005,0.117
32.010,0.107
32.015,0.095
32.020,0.084
32.025,0.074
32.030,0.063
32.035,0.053
32.040,0.043
32.045,0.033
32.050,0.021
32.055,0.009
32.060,-0.003
32.065,-0.018
32.070,-0.031
32.075,-0.043
32.080,-0.055
32.085,-0.066
32.090,-0.078
32.095,-0.086
32.100,-0.093
32.105,-0.103
32.110,-0.106
32.115,-0.103
32.120,-0.099
32.125,-0.099
32.130,-0.096
32.135,-0.083
32.140,-0.066
32.145,-0.046
32.150,-0.019
32.155,0.009
32.160,0.037
32.165,0.063
32.170,0.084
32.175,0.103
32.180,0.117
32.185,0.130
32.190,0.139
32.195,0.144
32.200,0.144
32.205,0.143
32.210,0.141
32.215,0.135
32.220,0.132
32.225,0.128
32.230,0.120
32.235,0.110
32.240,0.104
32.245,0.098
32.250,0.090
32.255,0.079
32.260,0.071
32.265,0.066
32.270,0.060
32.275,0.051
32.280,0.042
32.285,0.037
32.290,0.033
32.295,0.030
32.300,0.025
32.305,0.020
32.310,0.013
32.315,0.007
32.320,0.002
32.325,-0.003
32.330,-0.008
32.335,-0.012
32.340,-0.015
32.345,-0.013
32.350,-0.016
32.355,-0.020
32.360,-0.023
32.365,-0.027
32.370,-0.027
32.375,-0.024
32.380,-0.023
32.385,-0.025
32.390,-0.028
32.395,-0.026
32.400,-0.024
32.405,-0.024
32.410,-0.024
32.415,-0.026
32.420,-0.025
32.425,-0.025
32.430,-0.024
32.435,-0.022
32.440,-0.027
32.445,-0.032
32.450,-0.032
32.455,-0.027
32.460,-0.023
32.465,-0.028
32.470,-0.030
32.475,-0.026
32.480,-0.027
32.485,-0.030
32.490,-0.030
32.495,-0.032
32.500,-0.029
32.505,-0.028
32.510,-0.028
32.515,-0.026
32.520,-0.030
32.525,-0.039
32.530,-0.051
32.535,-0.069
32.540,-0.083
32.545,-0.087
32.550,-0.095
32.555,-0.112
32.560,-0.134
32.565,-0.146
32.570,-0.147
32.575,-0.142
32.580,-0.132
32.585,-0.118
32.590,-0.096
32.595,-0.075
32.600,-0.065
32.605,-0.052
32.610,-0.029
32.615,-0.006
32.620,0.019
32.625,0.039
32.630,0.051
32.635,0.063
32.640,0.065
32.645,0.064
32.650,0.066
32.655,0.064
32.660,0.060
32.665,0.060
32.670,0.060
32.675,0.075
32.680,0.118
32.685,0.166
32.690,0.154
32.695,0.041
32.700,-0.152
32.705,-0.450
32.710,-0.901
32.715,-1.351
32.720,-1.530
32.725,-1.366
32.730,-0.924
32.735,-0.350
32.740,0.143
32.745,0.419
32.750,0.470
32.755,0.438
32.760,0.412
32.765,0.374
32.770,0.319
32.775,0.286
32.780,0.298
32.785,0.292
32.790,0.263
32.795,0.261
32.800,0.258
32.805,0.234
32.810,0.219
32.815,0.214
32.820,0.201
32.825,0.189
32.830,0.183
32.835,0.171
32.840,0.152
32.845,0.143
32.850,0.136
32.855,0.121
32.860,0.113
32.865,0.108
32.870,0.096
32.875,0.084
32.880,0.074
32.885,0.064
32.890,0.056
32.895,0.046
32.900,0.034
32.905,0.019
32.910,0.007
32.915,-0.001
32.920,-0.011
32.925,-0.025
32.930,-0.039
32.935,-0.051
32.940,-0.061
32.945,-0.072
32.950,-0.085
32.955,-0.093
32.960,-0.098
32.965,-0.101
32.970,-0.101
32.975,-0.102
32.980,-0.099
32.985,-0.093
32.990,-0.085
32.995,-0.071
33.000,-0.054
33.005,-0.030
33.010,-0.002
33.015,0.023
33.020,0.048
33.025,0.074
33.030,0.094
33.035,0.109
33.040,0.123
33.045,0.133
33.050,0.138
33.055,0.143
33.060,0.144
33.065,0.145
33.070,0.140
33.075,0.133
33.080,0.132
33.085,0.129
33.090,0.122
33.095,0.114
33.100,0.103
33.105,0.091
33.110,0.085
33.115,0.079
33.120,0.072
33.125,0.067
33.130,0.057
33.135,0.051
33.140,0.045
33.145,0.035
33.150,0.031
33.155,0.027
33.160,0.021
33.165,0.013
33.170,0.005
33.175,-0.001
33.180,-0.003
33.185,-0.005
33.190,-0.009
33.195,-0.012
33.200,-0.016
33.205,-0.020
33.210,-0.021
33.215,-0.022
33.220,-0.021
33.225,-0.021
33.230,-0.021
33.235,-0.024
33.240,-0.024
33.245,-0.021
33.250,-0.023
33.255,-0.024
33.260,-0.023
33.265,-0.024
33.270,-0.023
33.275,-0.023
33.280,-0.023
33.285,-0.023
33.290,-0.025
33.295,-0.024
33.300,-0.025
33.305,-0.026
33.310,-0.026
33.315,-0.027
33.320,-0.028
33.325,-0.028
33.330,-0.028
33.335,-0.027
33.340,-0.027
33.345,-0.028
33.350,-0.028
33.355,-0.026
33.360,-0.027
33.365,-0.031
33.370,-0.038
33.375,-0.049
33.380,-0.065
33.385,-0.083
33.390,-0.089
33.395,-0.092
33.400,-0.106
33.405,-0.127
33.410,-0.145
33.415,-0.147
33.420,-0.140
33.425,-0.134
33.430,-0.124
33.435,-0.103
33.440,-0.082
33.445,-0.069
33.450,-0.055
33.455,-0.037
33.460,-0.013
33.465,0.013
33.470,0.034
33.475,0.050
33.480,0.061
33.485,0.068
33.490,0.068
33.495,0.065
33.500,0.063
33.505,0.063
33.510,0.062
33.515,0.060
33.520,0.066
33.525,0.093
33.530,0.145
33.535,0.173
33.540,0.113
33.545,-0.039
33.550,-0.277
33.555,-0.654
33.560,-1.143
33.565,-1.488
33.570,-1.500
33.575,-1.196
33.580,-0.669
33.585,-0.112
33.590,0.296
33.595,0.466
33.600,0.458
33.605,0.421
33.610,0.390
33.615,0.345
33.620,0.301
33.625,0.294
33.630,0.305
33.635,0.284
33.640,0.264
33.645,0.263
33.650,0.247
33.655,0.228
33.660,0.224
33.665,0.213
33.670,0.197
33.675,0.189
33.680,0.181
33.685,0.165
33.690,0.152
33.695,0.146
33.700,0.135
33.705,0.122
33.710,0.113
33.715,0.103
33.720,0.090
33.725,0.080
33.730,0.072
33.735,0.060
33.740,0.052
33.745,0.042
33.750,0.029
33.755,0.016
33.760,0.003
33.765,-0.009
33.770,-0.021
33.775,-0.032
33.780,-0.043
33.785,-0.054
33.790,-0.066
33.795,-0.078
33.800,-0.085
33.805,-0.091
33.810,-0.094
33.815,-0.096
33.820,-0.099
33.825,-0.099
33.830,-0.095
33.835,-0.091
33.840,-0.081
33.845,-0.062
33.850,-0.037
33.855,-0.014
33.860,0.013
33.865,0.040
33.870,0.063
33.875,0.085
33.880,0.105
33.885,0.121
33.890,0.133
33.895,0.138
33.900,0.140
33.905,0.147
33.910,0.148
33.915,0.147
33.920,0.144
33.925,0.137
33.930,0.130
33.935,0.122
33.940,0.113
33.945,0.106
33.950,0.098
33.955,0.091
33.960,0.086
33.965,0.074
33.970,0.064
33.975,0.060
33.980,0.051
33.985,0.045
33.990,0.041
33.995,0.034
34.000,0.031
34.005,0.025
34.010,0.017
34.015,0.014
34.020,0.008
34.025,0.001
34.030,0.002
34.035,-0.001
34.040,-0.007
34.045,-0.010
34.050,-0.013
34.055,-0.015
34.060,-0.017
34.065,-0.019
34.070,-0.018
34.075,-0.019
34.080,-0.023
34.085,-0.023
34.090,-0.021
34.095,-0.022
34.100,-0.024
34.105,-0.023
34.110,-0.021
34.115,-0.022
34.120,-0.021
34.125,-0.022
34.130,-0.023
34.135,-0.023
34.140,-0.025
34.145,-0.024
34.150,-0.023
34.155,-0.027
34.160,-0.029
34.165,-0.027
34.170,-0.028
34.175,-0.029
34.180,-0.029
34.185,-0.028
34.190,-0.028
34.195,-0.029
34.200,-0.029
34.205,-0.027
34.210,-0.027
34.215,-0.031
34.220,-0.030
34.225,-0.028
34.230,-0.030
34.235,-0.041
34.240,-0.057
34.245,-0.074
34.250,-0.086
34.255,-0.088
34.260,-0.097
34.265,-0.118
34.270,-0.139
34.275,-0.147
34.280,-0.143
34.285,-0.136
34.290,-0.127
34.295,-0.109
34.300,-0.083
34.305,-0.070
34.310,-0.062
34.315,-0.044
34.320,-0.021
34.325,0.004
34.330,0.027
34.335,0.048
34.340,0.062
34.345,0.067
34.350,0.068
34.355,0.068
34.360,0.068
34.365,0.066
34.370,0.061
34.375,0.061
34.380,0.064
34.385,0.083
34.390,0.127
34.395,0.168
34.400,0.139
34.405,0.016
34.410,-0.182
34.415,-0.501
34.420,-0.970
34.425,-1.400
34.430,-1.530
34.435,-1.327
34.440,-0.870
34.445,-0.311
34.450,0.160
34.455,0.425
34.460,0.474
34.465,0.440
34.470,0.406
34.475,0.368
34.480,0.326
34.485,0.304
34.490,0.314
34.495,0.303
34.500,0.278
34.505,0.274
34.510,0.267
34.515,0.245
34.520,0.236
34.525,0.231
34.530,0.211
34.535,0.199
34.540,0.193
34.545,0.181
34.550,0.168
34.555,0.157
34.560,0.145
34.565,0.129
34.570,0.118
34.575,0.110
34.580,0.100
34.585,0.091
34.590,0.083
34.595,0.071
34.600,0.059
34.605,0.049
34.610,0.040
34.615,0.029
34.620,0.017
34.625,0.007
34.630,-0.007
34.635,-0.021
34.640,-0.035
34.645,-0.048
34.650,-0.060
34.655,-0.072
34.660,-0.083
34.665,-0.092
34.670,-0.098
34.675,-0.105
34.680,-0.108
34.685,-0.106
34.690,-0.103
34.695,-0.100
34.700,-0.091
34.705,-0.077
34.710,-0.059
34.715,-0.033
34.720,-0.006
34.725,0.021
34.730,0.049
34.735,0.073
34.740,0.093
34.745,0.111
34.750,0.123
34.755,0.134
34.760,0.140
34.765,0.143
34.770,0.145
34.775,0.143
34.780,0.141
34.785,0.136
34.790,0.129
34.795,0.127
34.800,0.120
34.805,0.109
34.810,0.099
34.815,0.091
34.820,0.085
34.825,0.079
34.830,0.071
34.835,0.065
34.840,0.060
34.845,0.052
34.850,0.043
34.855,0.034
34.860,0.029
34.865,0.025
34.870,0.019
34.875,0.014
34.880,0.008
34.885,0.005
34.890,0.002
34.895,-0.004
34.900,-0.009
34.905,-0.013
34.910,-0.014
34.915,-0.015
34.920,-0.019
34.925,-0.018
34.930,-0.018
34.935,-0.021
34.940,-0.023
34.945,-0.024
34.950,-0.023
34.955,-0.023
34.960,-0.026
34.965,-0.025
34.970,-0.022
34.975,-0.021
34.980,-0.022
34.985,-0.025
34.990,-0.025
34.995,-0.024
35.000,-0.026
35.005,-0.026
35.010,-0.027
35.015,-0.026
35.020,-0.025
35.025,-0.026
35.030,-0.025
35.035,-0.025
35.040,-0.026
35.045,-0.026
35.050,-0.026
35.055,-0.026
35.060,-0.026
35.065,-0.027
35.070,-0.035
35.075,-0.049
35.080,-0.068
35.085,-0.082
35.090,-0.087
35.095,-0.092
35.100,-0.109
35.105,-0.133
35.110,-0.148
35.115,-0.148
35.120,-0.140
35.125,-0.132
35.130,-0.117
35.135,-0.090
35.140,-0.072
35.145,-0.065
35.150,-0.052
35.155,-0.033
35.160,-0.007
35.165,0.018
35.170,0.038
35.175,0.056
35.180,0.068
35.185,0.072
35.190,0.069
35.195,0.068
35.200,0.067
35.205,0.065
35.210,0.063
35.215,0.061
35.220,0.072
35.225,0.110
35.230,0.155
35.235,0.152
35.240,0.065
35.245,-0.099
35.250,-0.363
35.255,-0.787
35.260,-1.267
35.265,-1.521
35.270,-1.436
35.275,-1.060
35.280,-0.509
35.285,0.017
35.290,0.365
35.295,0.470
35.300,0.448
35.305,0.417
35.310,0.379
35.315,0.335
35.320,0.301
35.325,0.305
35.330,0.306
35.335,0.277
35.340,0.269
35.345,0.268
35.350,0.241
35.355,0.224
35.360,0.222
35.365,0.206
35.370,0.188
35.375,0.184
35.380,0.179
35.385,0.165
35.390,0.153
35.395,0.145
35.400,0.134
35.405,0.122
35.410,0.115
35.415,0.104
35.420,0.093
35.425,0.084
35.430,0.074
35.435,0.062
35.440,0.048
35.445,0.036
35.450,0.026
35.455,0.018
35.460,0.004
35.465,-0.010
35.470,-0.020
35.475,-0.034
35.480,-0.047
35.485,-0.059
35.490,-0.071
35.495,-0.080
35.500,-0.090
35.505,-0.096
35.510,-0.098
35.515,-0.100
35.520,-0.100
35.525,-0.098
35.530,-0.095
35.535,-0.089
35.540,-0.079
35.545,-0.061
35.550,-0.035
35.555,-0.009
35.560,0.019
35.565,0.045
35.570,0.069
35.575,0.090
35.580,0.105
35.585,0.119
35.590,0.130
35.595,0.139
35.600,0.145
35.605,0.145
35.610,0.144
35.615,0.141
35.620,0.136
35.625,0.130
35.630,0.124
35.635,0.116
35.640,0.108
35.645,0.101
35.650,0.095
35.655,0.084
35.660,0.076
35.665,0.070
35.670,0.063
35.675,0.057
35.680,0.050
35.685,0.045
35.690,0.038
35.695,0.029
35.700,0.022
35.705,0.018
35.710,0.016
35.715,0.012
35.720,0.007
35.725,0.003
35.730,-0.006
35.735,-0.009
35.740,-0.009
35.745,-0.011
35.750,-0.012
35.755,-0.014
35.760,-0.019
35.765,-0.020
35.770,-0.019
35.775,-0.020
35.780,-0.023
35.785,-0.027
35.790,-0.028
35.795,-0.025
35.800,-0.021
35.805,-0.023
35.810,-0.025
35.815,-0.023
35.820,-0.024
35.825,-0.025
35.830,-0.024
35.835,-0.024
35.840,-0.022
35.845,-0.023
35.850,-0.027
35.855,-0.028
35.860,-0.027
35.865,-0.025
35.870,-0.028
35.875,-0.032
35.880,-0.031
35.885,-0.031
35.890,-0.028
35.895,-0.030
35.900,-0.042
35.905,-0.058
35.910,-0.074
35.915,-0.085
35.920,-0.086
35.925,-0.090
35.930,-0.108
35.935,-0.132
35.940,-0.149
35.945,-0.150
35.950,-0.144
35.955,-0.138
35.960,-0.131
35.965,-0.111
35.970,-0.087
35.975,-0.075
35.980,-0.064
35.985,-0.046
35.990,-0.023
35.995,0.006
36.000,0.033
36.005,0.048
36.010,0.059
36.015,0.061
36.020,0.057
36.025,0.060
36.030,0.061
36.035,0.058
36.040,0.057
36.045,0.053
36.050,0.059
36.055,0.094
36.060,0.149
36.065,0.168
36.070,0.092
36.075,-0.073
36.080,-0.329
36.085,-0.737
36.090,-1.221
36.095,-1.513
36.100,-1.466
36.105,-1.102
36.110,-0.532
36.115,0.018
36.120,0.371
36.125,0.476
36.130,0.448
36.135,0.421
36.140,0.387
36.145,0.329
36.150,0.285
36.155,0.283
36.160,0.286
36.165,0.261
36.170,0.247
36.175,0.249
36.180,0.230
36.185,0.211
36.190,0.212
36.195,0.199
36.200,0.179
36.205,0.173
36.210,0.165
36.215,0.151
36.220,0.140
36.225,0.131
36.230,0.122
36.235,0.110
36.240,0.099
36.245,0.092
36.250,0.082
36.255,0.072
36.260,0.062
36.265,0.048
36.270,0.039
36.275,0.030
36.280,0.017
36.285,0.003
36.290,-0.006
36.295,-0.018
36.300,-0.031
36.305,-0.045
36.310,-0.058
36.315,-0.067
36.320,-0.078
36.325,-0.088
36.330,-0.094
36.335,-0.099
36.340,-0.102
36.345,-0.105
36.350,-0.104
36.355,-0.099
36.360,-0.095
36.365,-0.086
36.370,-0.073
36.375,-0.056
36.380,-0.033
36.385,-0.007
36.390,0.019
36.395,0.042
36.400,0.065
36.405,0.088
36.410,0.108
36.415,0.123
36.420,0.132
36.425,0.137
36.430,0.141
36.435,0.142
36.440,0.143
36.445,0.142
36.450,0.136
36.455,0.129
36.460,0.123
36.465,0.114
36.470,0.106
36.475,0.098
36.480,0.090
36.485,0.083
36.490,0.075
36.495,0.066
36.500,0.059
36.505,0.054
36.510,0.047
36.515,0.042
36.520,0.037
36.525,0.029
36.530,0.023
36.535,0.018
36.540,0.012
36.545,0.010
36.550,0.005
36.555,0.000
36.560,-0.004
36.565,-0.008
36.570,-0.013
36.575,-0.017
36.580,-0.018
36.585,-0.020
36.590,-0.019
36.595,-0.020
36.600,-0.022
36.605,-0.021
36.610,-0.021
36.615,-0.022
36.620,-0.023
36.625,-0.024
36.630,-0.025
36.635,-0.025
36.640,-0.024
36.645,-0.023
36.650,-0.023
36.655,-0.024
36.660,-0.025
36.665,-0.025
36.670,-0.026
36.675,-0.028
36.680,-0.029
36.685,-0.029
36.690,-0.027
36.695,-0.028
36.700,-0.027
36.705,-0.027
36.710,-0.032
36.715,-0.043
36.720,-0.056
36.725,-0.071
36.730,-0.081
36.735,-0.083
36.740,-0.090
36.745,-0.108
36.750,-0.131
36.755,-0.145
36.760,-0.145
36.765,-0.141
36.770,-0.137
36.775,-0.125
36.780,-0.104
36.785,-0.082
36.790,-0.070
36.795,-0.059
36.800,-0.040
36.805,-0.016
36.810,0.010
36.815,0.034
36.820,0.051
36.825,0.059
36.830,0.063
36.835,0.064
36.840,0.064
36.845,0.062
36.850,0.058
36.855,0.057
36.860,0.057
36.865,0.068
36.870,0.103
36.875,0.152
36.880,0.161
36.885,0.074
36.890,-0.100
36.895,-0.366
36.900,-0.784
36.905,-1.262
36.910,-1.522
36.915,-1.442
36.920,-1.068
36.925,-0.506
36.930,0.030
36.935,0.374
36.940,0.476
36.945,0.447
36.950,0.410
36.955,0.374
36.960,0.329
36.965,0.290
36.970,0.293
36.975,0.298
36.980,0.273
36.985,0.265
36.990,0.264
36.995,0.239
37.000,0.223
37.005,0.222
37.010,0.207
37.015,0.192
37.020,0.186
37.025,0.176
37.030,0.161
37.035,0.151
37.040,0.143
37.045,0.128
37.050,0.117
37.055,0.110
37.060,0.100
37.065,0.088
37.070,0.077
37.075,0.067
37.080,0.059
37.085,0.047
37.090,0.036
37.095,0.026
37.100,0.013
37.105,0.001
37.110,-0.010
37.115,-0.022
37.120,-0.033
37.125,-0.047
37.130,-0.060
37.135,-0.071
37.140,-0.083
37.145,-0.090
37.150,-0.093
37.155,-0.097
37.160,-0.098
37.165,-0.098
37.170,-0.096
37.175,-0.089
37.180,-0.081
37.185,-0.068
37.190,-0.050
37.195,-0.026
37.200,0.001
37.205,0.028
37.210,0.055
37.215,0.077
37.220,0.098
37.225,0.115
37.230,0.125
37.235,0.136
37.240,0.144
37.245,0.145
37.250,0.146
37.255,0.144
37.260,0.140
37.265,0.138
37.270,0.130
37.275,0.123
37.280,0.120
37.285,0.113
37.290,0.106
37.295,0.097
37.300,0.085
37.305,0.076
37.310,0.070
37.315,0.062
37.320,0.055
37.325,0.048
37.330,0.043
37.335,0.037
37.340,0.029
37.345,0.021
37.350,0.017
37.355,0.013
37.360,0.007
37.365,0.001
37.370,-0.004
37.375,-0.008
37.380,-0.011
37.385,-0.012
37.390,-0.016
37.395,-0.019
37.400,-0.021
37.405,-0.020
37.410,-0.018
37.415,-0.020
37.420,-0.024
37.425,-0.025
37.430,-0.024
37.435,-0.022
37.440,-0.022
37.445,-0.021
37.450,-0.021
37.455,-0.023
37.460,-0.023
37.465,-0.022
37.470,-0.021
37.475,-0.022
37.480,-0.024
37.485,-0.024
37.490,-0.023
37.495,-0.023
37.500,-0.022
37.505,-0.023
37.510,-0.025
37.515,-0.025
37.520,-0.025
37.525,-0.027
37.530,-0.027
37.535,-0.026
37.540,-0.026
37.545,-0.026
37.550,-0.025
37.555,-0.027
37.560,-0.036
37.565,-0.053
37.570,-0.072
37.575,-0.086
37.580,-0.090
37.585,-0.094
37.590,-0.110
37.595,-0.132
37.600,-0.144
37.605,-0.144
37.610,-0.142
37.615,-0.134
37.620,-0.118
37.625,-0.092
37.630,-0.073
37.635,-0.067
37.640,-0.053
37.645,-0.031
37.650,-0.006
37.655,0.019
37.660,0.038
37.665,0.055
37.670,0.067
37.675,0.070
37.680,0.072
37.685,0.070
37.690,0.069
37.695,0.068
37.700,0.064
37.705,0.064
37.710,0.077
37.715,0.112
37.720,0.156
37.725,0.153
37.730,0.064
37.735,-0.102
37.740,-0.364
37.745,-0.785
37.750,-1.268
37.755,-1.528
37.760,-1.447
37.765,-1.082
37.770,-0.533
37.775,-0.004
37.780,0.353
37.785,0.474
37.790,0.446
37.795,0.404
37.800,0.376
37.805,0.339
37.810,0.312
37.815,0.322
37.820,0.321
37.825,0.295
37.830,0.284
37.835,0.280
37.840,0.260
37.845,0.247
37.850,0.243
37.855,0.228
37.860,0.212
37.865,0.203
37.870,0.194
37.875,0.180
37.880,0.167
37.885,0.155
37.890,0.142
37.895,0.134
37.900,0.126
37.905,0.112
37.910,0.100
37.915,0.091
37.920,0.082
37.925,0.070
37.930,0.058
37.935,0.048
37.940,0.038
37.945,0.026
37.950,0.014
37.955,0.001
37.960,-0.013
37.965,-0.024
37.970,-0.037
37.975,-0.052
37.980,-0.063
37.985,-0.075
37.990,-0.083
37.995,-0.089
38.000,-0.095
38.005,-0.098
38.010,-0.100
38.015,-0.099
38.020,-0.096
38.025,-0.088
38.030,-0.079
38.035,-0.062
38.040,-0.038
38.045,-0.013
38.050,0.012
38.055,0.039
38.060,0.065
38.065,0.087
38.070,0.102
38.075,0.115
38.080,0.127
38.085,0.136
38.090,0.139
38.095,0.141
38.100,0.139
38.105,0.136
38.110,0.132
38.115,0.128
38.120,0.120
38.125,0.113
38.130,0.107
38.135,0.099
38.140,0.089
38.145,0.081
38.150,0.073
38.155,0.066
38.160,0.059
38.165,0.053
38.170,0.046
38.175,0.039
38.180,0.035
38.185,0.029
38.190,0.025
38.195,0.019
38.200,0.011
38.205,0.008
38.210,0.004
38.215,0.000
38.220,-0.003
38.225,-0.008
38.230,-0.011
38.235,-0.012
38.240,-0.014
38.245,-0.017
38.250,-0.020
38.255,-0.019
38.260,-0.020
38.265,-0.020
38.270,-0.022
38.275,-0.024
38.280,-0.023
38.285,-0.022
38.290,-0.022
38.295,-0.023
38.300,-0.025
38.305,-0.025
38.310,-0.024
38.315,-0.024
38.320,-0.025
38.325,-0.025
38.330,-0.025
38.335,-0.026
38.340,-0.027
38.345,-0.028
38.350,-0.025
38.355,-0.025
38.360,-0.028
38.365,-0.033
38.370,-0.035
38.375,-0.032
38.380,-0.030
38.385,-0.031
38.390,-0.032
38.395,-0.032
38.400,-0.030
38.405,-0.031
38.410,-0.030
38.415,-0.030
38.420,-0.031
38.425,-0.038
38.430,-0.051
38.435,-0.069
38.440,-0.086
38.445,-0.092
38.450,-0.094
38.455,-0.106
38.460,-0.129
38.465,-0.146
38.470,-0.147
38.475,-0.141
38.480,-0.134
38.485,-0.122
38.490,-0.100
38.495,-0.077
38.500,-0.064
38.505,-0.053
38.510,-0.034
38.515,-0.008
38.520,0.018
38.525,0.039
38.530,0.056
38.535,0.066
38.540,0.071
38.545,0.071
38.550,0.069
38.555,0.065
38.560,0.063
38.565,0.062
38.570,0.060
38.575,0.070
38.580,0.100
38.585,0.146
38.590,0.156
38.595,0.081
38.600,-0.069
38.605,-0.308
38.610,-0.700
38.615,-1.188
38.620,-1.497
38.625,-1.467
38.630,-1.140
38.635,-0.612
38.640,-0.071
38.645,0.317
38.650,0.469
38.655,0.458
38.660,0.421
38.665,0.389
38.670,0.349
38.675,0.310
38.680,0.309
38.685,0.315
38.690,0.291
38.695,0.278
38.700,0.277
38.705,0.258
38.710,0.241
38.715,0.235
38.720,0.220
38.725,0.203
38.730,0.195
38.735,0.189
38.740,0.175
38.745,0.162
38.750,0.155
38.755,0.142
38.760,0.131
38.765,0.122
38.770,0.110
38.775,0.099
38.780,0.090
38.785,0.080
38.790,0.067
38.795,0.056
38.800,0.046
38.805,0.034
38.810,0.022
38.815,0.011
38.820,0.001
38.825,-0.010
38.830,-0.023
38.835,-0.037
38.840,-0.050
38.845,-0.059
38.850,-0.067
38.855,-0.077
38.860,-0.086
38.865,-0.091
38.870,-0.092
38.875,-0.094
38.880,-0.091
38.885,-0.086
38.890,-0.084
38.895,-0.075
38.900,-0.059
38.905,-0.039
38.910,-0.013
38.915,0.010
38.920,0.031
38.925,0.057
38.930,0.076
38.935,0.093
38.940,0.109
38.945,0.119
38.950,0.127
38.955,0.131
38.960,0.132
38.965,0.132
38.970,0.131
38.975,0.127
38.980,0.122
38.985,0.118
38.990,0.108
38.995,0.101
39.000,0.094
39.005,0.085
39.010,0.078
39.015,0.069
39.020,0.061
39.025,0.055
39.030,0.046
39.035,0.039
39.040,0.036
39.045,0.032
39.050,0.026
39.055,0.021
39.060,0.012
39.065,0.006
39.070,0.004
39.075,0.001
39.080,-0.005
39.085,-0.010
39.090,-0.012
39.095,-0.013
39.100,-0.014
39.105,-0.017
39.110,-0.017
39.115,-0.018
39.120,-0.021
39.125,-0.021
39.130,-0.021
39.135,-0.021
39.140,-0.022
39.145,-0.023
39.150,-0.023
39.155,-0.025
39.160,-0.026
39.165,-0.026
39.170,-0.025
39.175,-0.023
39.180,-0.026
39.185,-0.028
39.190,-0.027
39.195,-0.026
39.200,-0.024
39.205,-0.024
39.210,-0.026
39.215,-0.026
39.220,-0.027
39.225,-0.028
39.230,-0.030
39.235,-0.030
39.240,-0.030
39.245,-0.032
39.250,-0.032
39.255,-0.031
39.260,-0.032
39.265,-0.030
39.270,-0.033
39.275,-0.038
39.280,-0.034
39.285,-0.034
39.290,-0.034
39.295,-0.029
39.300,-0.029
39.305,-0.034
39.310,-0.044
39.315,-0.058
39.320,-0.072
39.325,-0.081
39.330,-0.088
39.335,-0.101
39.340,-0.121
39.345,-0.142
39.350,-0.151
39.355,-0.148
39.360,-0.143
39.365,-0.132
39.370,-0.115
39.375,-0.096
39.380,-0.078
39.385,-0.064
39.390,-0.046
39.395,-0.026
39.400,-0.001
39.405,0.028
39.410,0.046
39.415,0.055
39.420,0.061
39.425,0.062
39.430,0.064
39.435,0.066
39.440,0.065
39.445,0.062
39.450,0.060
39.455,0.061
39.460,0.079
39.465,0.125
39.470,0.170
39.475,0.145
39.480,0.018
39.485,-0.195
39.490,-0.533
39.495,-1.007
39.500,-1.409
39.505,-1.505
39.510,-1.268
39.515,-0.768
39.520,-0.185
39.525,0.262
39.530,0.462
39.535,0.463
39.540,0.432
39.545,0.409
39.550,0.360
39.555,0.302
39.560,0.279
39.565,0.291
39.570,0.274
39.575,0.250
39.580,0.258
39.585,0.247
39.590,0.220
39.595,0.214
39.600,0.208
39.605,0.190
39.610,0.180
39.615,0.177
39.620,0.164
39.625,0.149
39.630,0.139
39.635,0.128
39.640,0.116
39.645,0.109
39.650,0.104
39.655,0.097
39.660,0.087
39.665,0.073
39.670,0.057
39.675,0.047
39.680,0.040
39.685,0.029
39.690,0.017
39.695,0.008
39.700,-0.003
39.705,-0.018
39.710,-0.030
39.715,-0.042
39.720,-0.054
39.725,-0.065
39.730,-0.076
39.735,-0.083
39.740,-0.088
39.745,-0.091
39.750,-0.092
39.755,-0.091
39.760,-0.092
39.765,-0.087
39.770,-0.078
39.775,-0.068
39.780,-0.052
39.785,-0.032
39.790,-0.012
39.795,0.010
39.800,0.034
39.805,0.057
39.810,0.080
39.815,0.098
39.820,0.117
39.825,0.128
39.830,0.131
39.835,0.137
39.840,0.141
39.845,0.144
39.850,0.141
39.855,0.134
39.860,0.129
39.865,0.125
39.870,0.120
39.875,0.112
39.880,0.103
39.885,0.095
39.890,0.088
39.895,0.078
39.900,0.067
39.905,0.062
39.910,0.058
39.915,0.052
39.920,0.044
39.925,0.037
39.930,0.030
39.935,0.026
39.940,0.024
39.945,0.019
39.950,0.015
39.955,0.006
39.960,0.000
39.965,0.001
39.970,-0.006
39.975,-0.010
39.980,-0.012
39.985,-0.015
39.990,-0.013
39.995,-0.013
40.000,-0.015
40.005,-0.016
40.010,-0.017
40.015,-0.018
40.020,-0.021
40.025,-0.022
40.030,-0.021
40.035,-0.018
40.040,-0.017
40.045,-0.019
40.050,-0.018
40.055,-0.022
40.060,-0.028
40.065,-0.023
40.070,-0.023
40.075,-0.023
40.080,-0.022
40.085,-0.025
40.090,-0.025
40.095,-0.026
40.100,-0.027
40.105,-0.026
40.110,-0.024
40.115,-0.023
40.120,-0.024
40.125,-0.025
40.130,-0.029
40.135,-0.033
40.140,-0.031
40.145,-0.030
40.150,-0.032
40.155,-0.033
40.160,-0.033
40.165,-0.034
40.170,-0.034
40.175,-0.038
40.180,-0.045
40.185,-0.060
40.190,-0.078
40.195,-0.086
40.200,-0.090
40.205,-0.104
40.210,-0.126
40.215,-0.142
40.220,-0.145
40.225,-0.142
40.230,-0.137
40.235,-0.127
40.240,-0.106
40.245,-0.081
40.250,-0.070
40.255,-0.062
40.260,-0.045
40.265,-0.025
40.270,0.003
40.275,0.031
40.280,0.046
40.285,0.055
40.290,0.060
40.295,0.061
40.300,0.064
40.305,0.062
40.310,0.059
40.315,0.059
40.320,0.057
40.325,0.061
40.330,0.089
40.335,0.144
40.340,0.178
40.345,0.124
40.350,-0.024
40.355,-0.261
40.360,-0.633
40.365,-1.113
40.370,-1.456
40.375,-1.473
40.380,-1.178
40.385,-0.638
40.390,-0.058
40.395,0.342
40.400,0.478
40.405,0.450
40.410,0.415
40.415,0.389
40.420,0.339
40.425,0.286
40.430,0.281
40.435,0.294
40.440,0.267
40.445,0.245
40.450,0.249
40.455,0.234
40.460,0.212
40.465,0.210
40.470,0.205
40.475,0.184
40.480,0.175
40.485,0.170
40.490,0.154
40.495,0.143
40.500,0.137
40.505,0.127
40.510,0.117
40.515,0.109
40.520,0.098
40.525,0.084
40.530,0.076
40.535,0.067
40.540,0.056
40.545,0.046
40.550,0.037
40.555,0.027
40.560,0.017
40.565,0.001
40.570,-0.012
40.575,-0.022
40.580,-0.037
40.585,-0.049
40.590,-0.060
40.595,-0.067
40.600,-0.076
40.605,-0.089
40.610,-0.093
40.615,-0.093
40.620,-0.093
40.625,-0.092
40.630,-0.091
40.635,-0.087
40.640,-0.079
40.645,-0.067
40.650,-0.049
40.655,-0.025
40.660,-0.001
40.665,0.023
40.670,0.048
40.675,0.070
40.680,0.092
40.685,0.112
40.690,0.124
40.695,0.134
40.700,0.143
40.705,0.146
40.710,0.147
40.715,0.146
40.720,0.144
40.725,0.142
40.730,0.135
40.735,0.127
40.740,0.121
40.745,0.112
40.750,0.105
40.755,0.098
40.760,0.089
40.765,0.079
40.770,0.071
40.775,0.061
40.780,0.054
40.785,0.050
40.790,0.047
40.795,0.043
40.800,0.034
40.805,0.025
40.810,0.019
40.815,0.015
40.820,0.011
40.825,0.005
40.830,0.002
40.835,-0.002
40.840,-0.006
40.845,-0.008
40.850,-0.013
40.855,-0.017
40.860,-0.018
40.865,-0.023
40.870,-0.024
40.875,-0.023
40.880,-0.024
40.885,-0.025
40.890,-0.025
40.895,-0.023
40.900,-0.023
40.905,-0.026
40.910,-0.027
40.915,-0.027
40.920,-0.026
40.925,-0.025
40.930,-0.026
40.935,-0.025
40.940,-0.024
40.945,-0.025
40.950,-0.027
40.955,-0.030
40.960,-0.031
40.965,-0.030
40.970,-0.031
40.975,-0.033
40.980,-0.032
40.985,-0.031
40.990,-0.029
40.995,-0.028
41.000,-0.029
41.005,-0.030
41.010,-0.030
41.015,-0.029
41.020,-0.029
41.025,-0.030
41.030,-0.031
41.035,-0.030
41.040,-0.030
41.045,-0.030
41.050,-0.028
41.055,-0.029
41.060,-0.031
41.065,-0.035
41.070,-0.047
41.075,-0.065
41.080,-0.081
41.085,-0.086
41.090,-0.089
41.095,-0.105
41.100,-0.129
41.105,-0.144
41.110,-0.146
41.115,-0.138
41.120,-0.127
41.125,-0.116
41.130,-0.097
41.135,-0.078
41.140,-0.069
41.145,-0.054
41.150,-0.034
41.155,-0.012
41.160,0.011
41.165,0.032
41.170,0.047
41.175,0.056
41.180,0.065
41.185,0.066
41.190,0.068
41.195,0.069
41.200,0.064
41.205,0.064
41.210,0.065
41.215,0.075
41.220,0.114
41.225,0.165
41.230,0.170
41.235,0.081
41.240,-0.096
41.245,-0.366
41.250,-0.785
41.255,-1.261
41.260,-1.515
41.265,-1.435
41.270,-1.067
41.275,-0.509
41.280,0.029
41.285,0.379
41.290,0.484
41.295,0.448
41.300,0.407
41.305,0.378
41.310,0.342
41.315,0.311
41.320,0.318
41.325,0.318
41.330,0.291
41.335,0.285
41.340,0.282
41.345,0.259
41.350,0.242
41.355,0.238
41.360,0.225
41.365,0.209
41.370,0.200
41.375,0.189
41.380,0.173
41.385,0.164
41.390,0.157
41.395,0.143
41.400,0.130
41.405,0.122
41.410,0.110
41.415,0.097
41.420,0.087
41.425,0.077
41.430,0.066
41.435,0.058
41.440,0.047
41.445,0.033
41.450,0.021
41.455,0.010
41.460,0.000
41.465,-0.014
41.470,-0.028
41.475,-0.040
41.480,-0.053
41.485,-0.067
41.490,-0.079
41.495,-0.088
41.500,-0.094
41.505,-0.097
41.510,-0.100
41.515,-0.099
41.520,-0.096
41.525,-0.093
41.530,-0.085
41.535,-0.072
41.540,-0.054
41.545,-0.031
41.550,-0.005
41.555,0.024
41.560,0.050
41.565,0.072
41.570,0.090
41.575,0.106
41.580,0.121
41.585,0.134
41.590,0.142
41.595,0.147
41.600,0.148
41.605,0.146
41.610,0.143
41.615,0.138
41.620,0.132
41.625,0.126
41.630,0.119
41.635,0.112
41.640,0.105
41.645,0.098
41.650,0.091
41.655,0.084
41.660,0.077
41.665,0.069
41.670,0.060
41.675,0.049
41.680,0.044
41.685,0.040
41.690,0.034
41.695,0.026
41.700,0.018
41.705,0.011
41.710,0.007
41.715,0.003
41.720,-0.003
41.725,-0.008
41.730,-0.014
41.735,-0.018
41.740,-0.019
41.745,-0.022
41.750,-0.026
41.755,-0.029
41.760,-0.032
41.765,-0.034
41.770,-0.034
41.775,-0.034
41.780,-0.032
41.785,-0.031
41.790,-0.031
41.795,-0.029
41.800,-0.029
41.805,-0.029
41.810,-0.028
41.815,-0.027
41.820,-0.027
41.825,-0.028
41.830,-0.028
41.835,-0.028
41.840,-0.028
41.845,-0.027
41.850,-0.025
41.855,-0.024
41.860,-0.026
41.865,-0.028
41.870,-0.027
41.875,-0.028
41.880,-0.029
41.885,-0.029
41.890,-0.029
41.895,-0.029
41.900,-0.031
41.905,-0.032
41.910,-0.031
41.915,-0.031
41.920,-0.031
41.925,-0.029
41.930,-0.028
41.935,-0.031
41.940,-0.031
41.945,-0.029
41.950,-0.028
41.955,-0.029
41.960,-0.030
41.965,-0.032
41.970,-0.031
41.975,-0.031
41.980,-0.039
41.985,-0.052
41.990,-0.072
41.995,-0.088
42.000,-0.090
42.005,-0.093
42.010,-0.108
42.015,-0.132
42.020,-0.145
42.025,-0.144
42.030,-0.136
42.035,-0.126
42.040,-0.111
42.045,-0.085
42.050,-0.066
42.055,-0.060
42.060,-0.048
42.065,-0.025
42.070,0.005
42.075,0.027
42.080,0.042
42.085,0.060
42.090,0.072
42.095,0.077
42.100,0.077
42.105,0.075
42.110,0.076
42.115,0.073
42.120,0.069
42.125,0.070
42.130,0.088
42.135,0.131
42.140,0.170
42.145,0.144
42.150,0.025
42.155,-0.165
42.160,-0.464
42.165,-0.924
42.170,-1.367
42.175,-1.526
42.180,-1.358
42.185,-0.926
42.190,-0.370
42.195,0.120
42.200,0.418
42.205,0.482
42.210,0.438
42.215,0.401
42.220,0.373
42.225,0.340
42.230,0.321
42.235,0.333
42.240,0.324
42.245,0.300
42.250,0.297
42.255,0.289
42.260,0.266
42.265,0.254
42.270,0.246
42.275,0.229
42.280,0.216
42.285,0.207
42.290,0.196
42.295,0.183
42.300,0.174
42.305,0.163
42.310,0.149
42.315,0.139
42.320,0.129
42.325,0.115
42.330,0.102
42.335,0.093
42.340,0.084
42.345,0.070
42.350,0.058
42.355,0.048
42.360,0.037
42.365,0.025
42.370,0.013
42.375,-0.001
42.380,-0.013
42.385,-0.026
42.390,-0.040
42.395,-0.051
42.400,-0.063
42.405,-0.077
42.410,-0.088
42.415,-0.096
42.420,-0.101
42.425,-0.104
42.430,-0.103
42.435,-0.103
42.440,-0.099
42.445,-0.090
42.450,-0.077
42.455,-0.059
42.460,-0.034
42.465,-0.007
42.470,0.021
42.475,0.047
42.480,0.070
42.485,0.093
42.490,0.112
42.495,0.126
42.500,0.136
42.505,0.142
42.510,0.144
42.515,0.144
42.520,0.143
42.525,0.142
42.530,0.137
42.535,0.131
42.540,0.123
42.545,0.114
42.550,0.107
42.555,0.100
42.560,0.091
42.565,0.082
42.570,0.076
42.575,0.068
42.580,0.061
42.585,0.055
42.590,0.049
42.595,0.043
42.600,0.036
42.605,0.028
42.610,0.023
42.615,0.020
42.620,0.015
42.625,0.008
42.630,0.004
42.635,-0.001
42.640,-0.006
42.645,-0.008
42.650,-0.012
42.655,-0.016
42.660,-0.019
42.665,-0.020
42.670,-0.022
42.675,-0.025
42.680,-0.027
42.685,-0.027
42.690,-0.026
42.695,-0.028
42.700,-0.028
42.705,-0.026
42.710,-0.026
42.715,-0.029
42.720,-0.029
42.725,-0.028
42.730,-0.029
42.735,-0.030
42.740,-0.031
42.745,-0.029
42.750,-0.027
42.755,-0.030
42.760,-0.031
42.765,-0.032
42.770,-0.035
42.775,-0.036
42.780,-0.035
42.785,-0.033
42.790,-0.030
42.795,-0.031
42.800,-0.034
42.805,-0.035
42.810,-0.036
42.815,-0.036
42.820,-0.033
42.825,-0.032
42.830,-0.032
42.835,-0.034
42.840,-0.035
42.845,-0.036
42.850,-0.038
42.855,-0.038
42.860,-0.036
42.865,-0.033
42.870,-0.033
42.875,-0.035
42.880,-0.036
42.885,-0.036
42.890,-0.036
42.895,-0.034
42.900,-0.033
42.905,-0.032
42.910,-0.037
42.915,-0.049
42.920,-0.066
42.925,-0.083
42.930,-0.086
42.935,-0.087
42.940,-0.099
42.945,-0.123
42.950,-0.143
42.955,-0.145
42.960,-0.140
42.965,-0.134
42.970,-0.125
42.975,-0.107
42.980,-0.080
42.985,-0.066
42.990,-0.055
42.995,-0.036
43.000,-0.015
43.005,0.010
43.010,0.033
43.015,0.051
43.020,0.065
43.025,0.071
43.030,0.071
43.035,0.071
43.040,0.070
43.045,0.069
43.050,0.069
43.055,0.068
43.060,0.073
43.065,0.102
43.070,0.148
43.075,0.161
43.080,0.095
43.085,-0.052
43.090,-0.281
43.095,-0.663
43.100,-1.159
43.105,-1.488
43.110,-1.478
43.115,-1.172
43.120,-0.654
43.125,-0.111
43.130,0.290
43.135,0.465
43.140,0.465
43.145,0.426
43.150,0.392
43.155,0.352
43.160,0.315
43.165,0.318
43.170,0.326
43.175,0.300
43.180,0.288
43.185,0.288
43.190,0.271
43.195,0.253
43.200,0.247
43.205,0.235
43.210,0.217
43.215,0.207
43.220,0.200
43.225,0.185
43.230,0.171
43.235,0.165
43.240,0.155
43.245,0.144
43.250,0.134
43.255,0.123
43.260,0.111
43.265,0.100
43.270,0.091
43.275,0.078
43.280,0.065
43.285,0.054
43.290,0.042
43.295,0.032
43.300,0.021
43.305,0.008
43.310,-0.003
43.315,-0.016
43.320,-0.032
43.325,-0.044
43.330,-0.058
43.335,-0.071
43.340,-0.084
43.345,-0.091
43.350,-0.093
43.355,-0.097
43.360,-0.102
43.365,-0.102
43.370,-0.101
43.375,-0.097
43.380,-0.085
43.385,-0.067
43.390,-0.047
43.395,-0.024
43.400,0.003
43.405,0.030
43.410,0.056
43.415,0.082
43.420,0.100
43.425,0.115
43.430,0.128
43.435,0.136
43.440,0.144
43.445,0.147
43.450,0.145
43.455,0.144
43.460,0.138
43.465,0.130
43.470,0.123
43.475,0.117
43.480,0.111
43.485,0.105
43.490,0.097
43.495,0.088
43.500,0.081
43.505,0.073
43.510,0.064
43.515,0.055
43.520,0.048
43.525,0.042
43.530,0.036
43.535,0.031
43.540,0.026
43.545,0.019
43.550,0.015
43.555,0.009
43.560,0.004
43.565,0.000
43.570,-0.006
43.575,-0.008
43.580,-0.012
43.585,-0.017
43.590,-0.020
43.595,-0.021
43.600,-0.023
43.605,-0.025
43.610,-0.026
43.615,-0.027
43.620,-0.029
43.625,-0.028
43.630,-0.026
43.635,-0.025
43.640,-0.026
43.645,-0.029
43.650,-0.031
43.655,-0.031
43.660,-0.030
43.665,-0.031
43.670,-0.030
43.675,-0.028
43.680,-0.029
43.685,-0.029
43.690,-0.028
43.695,-0.030
43.700,-0.030
43.705,-0.029
43.710,-0.030
43.715,-0.031
43.720,-0.032
43.725,-0.031
43.730,-0.033
43.735,-0.032
43.740,-0.030
43.745,-0.031
43.750,-0.033
43.755,-0.033
43.760,-0.033
43.765,-0.033
43.770,-0.035
43.775,-0.035
43.780,-0.034
43.785,-0.036
43.790,-0.039
43.795,-0.037
43.800,-0.034
43.805,-0.033
43.810,-0.032
43.815,-0.034
43.820,-0.031
43.825,-0.030
43.830,-0.037
43.835,-0.046
43.840,-0.061
43.845,-0.073
43.850,-0.075
43.855,-0.079
43.860,-0.092
43.865,-0.117
43.870,-0.140
43.875,-0.146
43.880,-0.142
43.885,-0.133
43.890,-0.121
43.895,-0.105
43.900,-0.083
43.905,-0.070
43.910,-0.060
43.915,-0.038
43.920,-0.014
43.925,0.010
43.930,0.035
43.935,0.053
43.940,0.065
43.945,0.072
43.950,0.071
43.955,0.070
43.960,0.069
43.965,0.064
43.970,0.063
43.975,0.064
43.980,0.069
43.985,0.093
43.990,0.141
43.995,0.176
44.000,0.134
44.005,0.000
44.010,-0.209
44.015,-0.548
44.020,-1.029
44.025,-1.414
44.030,-1.482
44.035,-1.228
44.040,-0.728
44.045,-0.167
44.050,0.261
44.055,0.457
44.060,0.465
44.065,0.435
44.070,0.406
44.075,0.362
44.080,0.310
44.085,0.296
44.090,0.311
44.095,0.291
44.100,0.269
44.105,0.271
44.110,0.256
44.115,0.235
44.120,0.229
44.125,0.223
44.130,0.205
44.135,0.190
44.140,0.181
44.145,0.170
44.150,0.157
44.155,0.149
44.160,0.135
44.165,0.121
44.170,0.116
44.175,0.109
44.180,0.094
44.185,0.084
44.190,0.075
44.195,0.063
44.200,0.053
44.205,0.043
44.210,0.033
44.215,0.022
44.220,0.007
44.225,-0.007
44.230,-0.019
44.235,-0.030
44.240,-0.042
44.245,-0.057
44.250,-0.068
44.255,-0.078
44.260,-0.085
44.265,-0.093
44.270,-0.102
44.275,-0.106
44.280,-0.106
44.285,-0.106
44.290,-0.100
44.295,-0.091
44.300,-0.078
44.305,-0.059
44.310,-0.041
44.315,-0.018
44.320,0.012
44.325,0.039
44.330,0.063
44.335,0.088
44.340,0.109
44.345,0.126
44.350,0.137
44.355,0.144
44.360,0.147
44.365,0.148
44.370,0.148
44.375,0.142
44.380,0.141
44.385,0.138
44.390,0.133
44.395,0.128
44.400,0.119
44.405,0.108
44.410,0.100
44.415,0.096
44.420,0.087
44.425,0.077
44.430,0.071
44.435,0.063
44.440,0.056
44.445,0.052
44.450,0.043
44.455,0.037
44.460,0.033
44.465,0.024
44.470,0.022
44.475,0.019
44.480,0.011
44.485,0.006
44.490,-0.003
44.495,-0.009
44.500,-0.010
44.505,-0.013
44.510,-0.017
44.515,-0.020
44.520,-0.024
44.525,-0.025
44.530,-0.025
44.535,-0.027
44.540,-0.028
44.545,-0.030
44.550,-0.029
44.555,-0.028
44.560,-0.032
44.565,-0.034
44.570,-0.033
44.575,-0.031
44.580,-0.027
44.585,-0.029
44.590,-0.031
44.595,-0.029
44.600,-0.026
44.605,-0.027
44.610,-0.029
44.615,-0.032
44.620,-0.032
44.625,-0.028
44.630,-0.025
44.635,-0.027
44.640,-0.028
44.645,-0.028
44.650,-0.030
44.655,-0.034
44.660,-0.036
44.665,-0.036
44.670,-0.033
44.675,-0.029
44.680,-0.032
44.685,-0.036
44.690,-0.036
44.695,-0.036
44.700,-0.035
44.705,-0.035
44.710,-0.033
44.715,-0.033
44.720,-0.034
44.725,-0.033
44.730,-0.033
44.735,-0.036
44.740,-0.047
44.745,-0.063
44.750,-0.077
44.755,-0.084
44.760,-0.092
44.765,-0.110
44.770,-0.136
44.775,-0.150
44.780,-0.151
44.785,-0.142
44.790,-0.130
44.795,-0.119
44.800,-0.098
44.805,-0.077
44.810,-0.067
44.815,-0.052
44.820,-0.030
44.825,-0.010
44.830,0.017
44.835,0.043
44.840,0.056
44.845,0.062
44.850,0.067
44.855,0.065
44.860,0.064
44.865,0.064
44.870,0.059
44.875,0.058
44.880,0.057
44.885,0.062
44.890,0.102
44.895,0.158
44.900,0.174
44.905,0.099
44.910,-0.069
44.915,-0.332
44.920,-0.748
44.925,-1.228
44.930,-1.497
44.935,-1.424
44.940,-1.043
44.945,-0.465
44.950,0.078
44.955,0.401
44.960,0.477
44.965,0.440
44.970,0.410
44.975,0.383
44.980,0.329
44.985,0.283
44.990,0.286
44.995,0.288
45.000,0.264
45.005,0.254
45.010,0.252
45.015,0.231
45.020,0.217
45.025,0.218
45.030,0.203
45.035,0.183
45.040,0.178
45.045,0.170
45.050,0.155
45.055,0.146
45.060,0.141
45.065,0.129
45.070,0.116
45.075,0.110
45.080,0.100
45.085,0.087
45.090,0.079
