'Elapsed time','ECG'
'seconds','mV'
0.000,-0.036
0.005,-0.009
0.010,-0.015
0.015,-0.019
0.020,-0.015
0.025,-0.015
0.030,-0.016
0.035,-0.017
0.040,-0.016
0.045,-0.016
0.050,-0.016
0.055,-0.017
0.060,-0.018
0.065,-0.018
0.070,-0.017
0.075,-0.016
0.080,-0.017
0.085,-0.021
0.090,-0.021
0.095,-0.019
0.100,-0.020
0.105,-0.020
0.110,-0.021
0.115,-0.022
0.120,-0.021
0.125,-0.021
0.130,-0.021
0.135,-0.020
0.140,-0.020
0.145,-0.022
0.150,-0.024
0.155,-0.026
0.160,-0.024
0.165,-0.016
0.170,-0.018
0.175,-0.042
0.180,-0.069
0.185,-0.075
0.190,-0.056
0.195,-0.031
0.200,-0.031
0.205,-0.056
0.210,-0.063
0.215,-0.037
0.220,-0.010
0.225,0.003
0.230,0.004
0.235,0.006
0.240,0.008
0.245,0.002
0.250,0.000
0.255,0.015
0.260,0.029
0.265,0.029
0.270,0.025
0.275,0.024
0.280,0.021
0.285,0.020
0.290,0.020
0.295,0.017
0.300,0.013
0.305,0.011
0.310,0.008
0.315,0.005
0.320,0.003
0.325,0.000
0.330,-0.004
0.335,-0.006
0.340,-0.007
0.345,-0.010
0.350,-0.014
0.355,-0.017
0.360,-0.019
0.365,-0.022
0.370,-0.021
0.375,-0.005
0.380,0.004
0.385,-0.053
0.390,-0.185
0.395,-0.367
0.400,-0.600
0.405,-0.884
0.410,-1.134
0.415,-1.155
0.420,-0.800
0.425,-0.180
0.430,0.371
0.435,0.629
0.440,0.638
0.445,0.540
0.450,0.425
0.455,0.325
0.460,0.244
0.465,0.198
0.470,0.175
0.475,0.150
0.480,0.135
0.485,0.133
0.490,0.124
0.495,0.112
0.500,0.111
0.505,0.110
0.510,0.099
0.515,0.093
0.520,0.091
0.525,0.088
0.530,0.085
0.535,0.083
0.540,0.079
0.545,0.073
0.550,0.067
0.555,0.062
0.560,0.058
0.565,0.054
0.570,0.049
0.575,0.044
0.580,0.038
0.585,0.032
0.590,0.026
0.595,0.019
0.600,0.013
0.605,0.006
0.610,-0.003
0.615,-0.014
0.620,-0.021
0.625,-0.031
0.630,-0.044
0.635,-0.059
0.640,-0.077
0.645,-0.096
0.650,-0.115
0.655,-0.135
0.660,-0.156
0.665,-0.180
0.670,-0.206
0.675,-0.231
0.680,-0.252
0.685,-0.269
0.690,-0.282
0.695,-0.293
0.700,-0.299
0.705,-0.299
0.710,-0.293
0.715,-0.281
0.720,-0.261
0.725,-0.226
0.730,-0.181
0.735,-0.129
0.740,-0.074
0.745,-0.017
0.750,0.041
0.755,0.094
0.760,0.137
0.765,0.175
0.770,0.212
0.775,0.241
0.780,0.260
0.785,0.273
0.790,0.282
0.795,0.288
0.800,0.288
0.805,0.283
0.810,0.277
0.815,0.272
0.820,0.263
0.825,0.255
0.830,0.247
0.835,0.237
0.840,0.230
0.845,0.222
0.850,0.210
0.855,0.200
0.860,0.189
0.865,0.182
0.870,0.177
0.875,0.167
0.880,0.160
0.885,0.155
0.890,0.146
0.895,0.137
0.900,0.130
0.905,0.123
0.910,0.115
0.915,0.106
0.920,0.097
0.925,0.089
0.930,0.081
0.935,0.072
0.940,0.064
0.945,0.056
0.950,0.049
0.955,0.043
0.960,0.036
0.965,0.028
0.970,0.018
0.975,0.008
0.980,0.000
0.985,-0.003
0.990,-0.005
0.995,-0.009
1.000,-0.014
1.005,-0.017
1.010,-0.020
1.015,-0.023
1.020,-0.021
1.025,-0.019
1.030,-0.020
1.035,-0.024
1.040,-0.030
1.045,-0.033
1.050,-0.033
1.055,-0.032
1.060,-0.031
1.065,-0.033
1.070,-0.036
1.075,-0.038
1.080,-0.039
1.085,-0.037
1.090,-0.036
1.095,-0.039
1.100,-0.040
1.105,-0.042
1.110,-0.043
1.115,-0.045
1.120,-0.048
1.125,-0.048
1.130,-0.048
1.135,-0.048
1.140,-0.046
1.145,-0.046
1.150,-0.047
1.155,-0.050
1.160,-0.053
1.165,-0.053
1.170,-0.053
1.175,-0.053
1.180,-0.053
1.185,-0.054
1.190,-0.055
1.195,-0.055
1.200,-0.054
1.205,-0.047
1.210,-0.042
1.215,-0.053
1.220,-0.079
1.225,-0.101
1.230,-0.100
1.235,-0.078
1.240,-0.059
1.245,-0.069
1.250,-0.092
1.255,-0.086
1.260,-0.056
1.265,-0.037
1.270,-0.028
1.275,-0.021
1.280,-0.015
1.285,-0.016
1.290,-0.026
1.295,-0.024
1.300,-0.004
1.305,0.009
1.310,0.007
1.315,0.002
1.320,-0.001
1.325,-0.002
1.330,-0.001
1.335,-0.003
1.340,-0.008
1.345,-0.014
1.350,-0.016
1.355,-0.016
1.360,-0.015
1.365,-0.015
1.370,-0.018
1.375,-0.020
1.380,-0.022
1.385,-0.023
1.390,-0.025
1.395,-0.031
1.400,-0.037
1.405,-0.040
1.410,-0.040
1.415,-0.032
1.420,-0.010
1.425,-0.013
1.430,-0.087
1.435,-0.234
1.440,-0.438
1.445,-0.695
1.450,-0.978
1.455,-1.165
1.460,-1.076
1.465,-0.616
1.470,0.032
1.475,0.499
1.480,0.655
1.485,0.604
1.490,0.495
1.495,0.397
1.500,0.300
1.505,0.219
1.510,0.180
1.515,0.158
1.520,0.134
1.525,0.122
1.530,0.119
1.535,0.108
1.540,0.100
1.545,0.100
1.550,0.095
1.555,0.085
1.560,0.079
1.565,0.077
1.570,0.071
1.575,0.066
1.580,0.068
1.585,0.066
1.590,0.064
1.595,0.063
1.600,0.057
1.605,0.051
1.610,0.046
1.615,0.040
1.620,0.035
1.625,0.029
1.630,0.023
1.635,0.018
1.640,0.013
1.645,0.004
1.650,-0.003
1.655,-0.008
1.660,-0.015
1.665,-0.026
1.670,-0.041
1.675,-0.054
1.680,-0.067
1.685,-0.082
1.690,-0.097
1.695,-0.116
1.700,-0.139
1.705,-0.163
1.710,-0.189
1.715,-0.211
1.720,-0.230
1.725,-0.254
1.730,-0.274
1.735,-0.285
1.740,-0.289
1.745,-0.289
1.750,-0.289
1.755,-0.283
1.760,-0.267
1.765,-0.242
1.770,-0.206
1.775,-0.161
1.780,-0.109
1.785,-0.054
1.790,0.003
1.795,0.061
1.800,0.115
1.805,0.160
1.810,0.196
1.815,0.224
1.820,0.246
1.825,0.265
1.830,0.281
1.835,0.291
1.840,0.294
1.845,0.291
1.850,0.285
1.855,0.280
1.860,0.274
1.865,0.266
1.870,0.257
1.875,0.247
1.880,0.236
1.885,0.228
1.890,0.221
1.895,0.215
1.900,0.208
1.905,0.199
1.910,0.189
1.915,0.182
1.920,0.177
1.925,0.169
1.930,0.158
1.935,0.149
1.940,0.141
1.945,0.131
1.950,0.120
1.955,0.109
1.960,0.100
1.965,0.092
1.970,0.083
1.975,0.074
1.980,0.065
1.985,0.056
1.990,0.047
1.995,0.039
2.000,0.030
2.005,0.021
2.010,0.014
2.015,0.008
2.020,0.004
2.025,0.001
2.030,-0.002
2.035,-0.005
2.040,-0.008
2.045,-0.011
2.050,-0.013
2.055,-0.013
2.060,-0.015
2.065,-0.019
2.070,-0.021
2.075,-0.022
2.080,-0.023
2.085,-0.022
2.090,-0.021
2.095,-0.024
2.100,-0.026
2.105,-0.028
2.110,-0.031
2.115,-0.031
2.120,-0.030
2.125,-0.030
2.130,-0.031
2.135,-0.036
2.140,-0.038
2.145,-0.038
2.150,-0.040
2.155,-0.041
2.160,-0.041
2.165,-0.041
2.170,-0.040
2.175,-0.041
2.180,-0.042
2.185,-0.042
2.190,-0.043
2.195,-0.043
2.200,-0.044
2.205,-0.045
2.210,-0.047
2.215,-0.047
2.220,-0.046
2.225,-0.046
2.230,-0.047
2.235,-0.048
2.240,-0.049
2.245,-0.047
2.250,-0.041
2.255,-0.041
2.260,-0.061
2.265,-0.090
2.270,-0.102
2.275,-0.086
2.280,-0.058
2.285,-0.051
2.290,-0.076
2.295,-0.092
2.300,-0.071
2.305,-0.040
2.310,-0.024
2.315,-0.020
2.320,-0.016
2.325,-0.013
2.330,-0.020
2.335,-0.025
2.340,-0.012
2.345,0.005
2.350,0.009
2.355,0.007
2.360,0.006
2.365,0.004
2.370,0.000
2.375,-0.003
2.380,-0.005
2.385,-0.007
2.390,-0.010
2.395,-0.012
2.400,-0.013
2.405,-0.015
2.410,-0.017
2.415,-0.017
2.420,-0.019
2.425,-0.021
2.430,-0.024
2.435,-0.028
2.440,-0.031
2.445,-0.034
2.450,-0.037
2.455,-0.037
2.460,-0.024
2.465,-0.008
2.470,-0.043
2.475,-0.154
2.480,-0.326
2.485,-0.549
2.490,-0.824
2.495,-1.107
2.500,-1.219
2.505,-0.975
2.510,-0.394
2.515,0.232
2.520,0.585
2.525,0.650
2.530,0.568
2.535,0.450
2.540,0.348
2.545,0.259
2.550,0.201
2.555,0.178
2.560,0.155
2.565,0.135
2.570,0.133
2.575,0.127
2.580,0.113
2.585,0.107
2.590,0.106
2.595,0.099
2.600,0.094
2.605,0.092
2.610,0.088
2.615,0.081
2.620,0.077
2.625,0.074
2.630,0.069
2.635,0.066
2.640,0.062
2.645,0.055
2.650,0.050
2.655,0.048
2.660,0.044
2.665,0.037
2.670,0.031
2.675,0.026
2.680,0.019
2.685,0.012
2.690,0.005
2.695,-0.003
2.700,-0.010
2.705,-0.020
2.710,-0.033
2.715,-0.047
2.720,-0.061
2.725,-0.076
2.730,-0.093
2.735,-0.112
2.740,-0.132
2.745,-0.154
2.750,-0.179
2.755,-0.204
2.760,-0.229
2.765,-0.252
2.770,-0.270
2.775,-0.286
2.780,-0.299
2.785,-0.307
2.790,-0.308
2.795,-0.305
2.800,-0.295
2.805,-0.276
2.810,-0.244
2.815,-0.200
2.820,-0.151
2.825,-0.097
2.830,-0.039
2.835,0.020
2.840,0.076
2.845,0.127
2.850,0.171
2.855,0.209
2.860,0.237
2.865,0.258
2.870,0.272
2.875,0.283
2.880,0.289
2.885,0.291
2.890,0.289
2.895,0.284
2.900,0.277
2.905,0.269
2.910,0.258
2.915,0.248
2.920,0.239
2.925,0.230
2.930,0.221
2.935,0.212
2.940,0.204
2.945,0.196
2.950,0.187
2.955,0.178
2.960,0.169
2.965,0.163
2.970,0.157
2.975,0.148
2.980,0.139
2.985,0.131
2.990,0.123
2.995,0.115
3.000,0.107
3.005,0.100
3.010,0.092
3.015,0.082
3.020,0.075
3.025,0.067
3.030,0.058
3.035,0.048
3.040,0.039
3.045,0.033
3.050,0.027
3.055,0.021
3.060,0.015
3.065,0.009
3.070,0.004
3.075,-0.001
3.080,-0.006
3.085,-0.009
3.090,-0.011
3.095,-0.014
3.100,-0.018
3.105,-0.019
3.110,-0.019
3.115,-0.019
3.120,-0.021
3.125,-0.024
3.130,-0.026
3.135,-0.026
3.140,-0.027
3.145,-0.028
3.150,-0.029
3.155,-0.030
3.160,-0.032
3.165,-0.035
3.170,-0.036
3.175,-0.036
3.180,-0.038
3.185,-0.039
3.190,-0.041
3.195,-0.043
3.200,-0.042
3.205,-0.043
3.210,-0.045
3.215,-0.047
3.220,-0.048
3.225,-0.049
3.230,-0.049
3.235,-0.049
3.240,-0.049
3.245,-0.049
3.250,-0.049
3.255,-0.049
3.260,-0.051
3.265,-0.052
3.270,-0.051
3.275,-0.051
3.280,-0.051
3.285,-0.050
3.290,-0.052
3.295,-0.055
3.300,-0.057
3.305,-0.053
3.310,-0.045
3.315,-0.044
3.320,-0.063
3.325,-0.091
3.330,-0.104
3.335,-0.092
3.340,-0.065
3.345,-0.052
3.350,-0.073
3.355,-0.092
3.360,-0.075
3.365,-0.044
3.370,-0.025
3.375,-0.018
3.380,-0.016
3.385,-0.012
3.390,-0.016
3.395,-0.023
3.400,-0.013
3.405,0.006
3.410,0.012
3.415,0.009
3.420,0.006
3.425,0.002
3.430,0.000
3.435,0.001
3.440,0.000
3.445,-0.002
3.450,-0.004
3.455,-0.005
3.460,-0.007
3.465,-0.010
3.470,-0.012
3.475,-0.015
3.480,-0.018
3.485,-0.019
3.490,-0.021
3.495,-0.025
3.500,-0.027
3.505,-0.029
3.510,-0.032
3.515,-0.032
3.520,-0.020
3.525,-0.003
3.530,-0.037
3.535,-0.147
3.540,-0.314
3.545,-0.532
3.550,-0.804
3.555,-1.090
3.560,-1.212
3.565,-0.988
3.570,-0.424
3.575,0.202
3.580,0.570
3.585,0.650
3.590,0.574
3.595,0.453
3.600,0.350
3.605,0.265
3.610,0.208
3.615,0.184
3.620,0.162
3.625,0.142
3.630,0.138
3.635,0.134
3.640,0.120
3.645,0.113
3.650,0.111
3.655,0.104
3.660,0.098
3.665,0.097
3.670,0.092
3.675,0.087
3.680,0.083
3.685,0.079
3.690,0.075
3.695,0.071
3.700,0.067
3.705,0.061
3.710,0.056
3.715,0.054
3.720,0.050
3.725,0.044
3.730,0.037
3.735,0.030
3.740,0.024
3.745,0.017
3.750,0.010
3.755,0.002
3.760,-0.007
3.765,-0.017
3.770,-0.027
3.775,-0.039
3.780,-0.052
3.785,-0.067
3.790,-0.084
3.795,-0.104
3.800,-0.125
3.805,-0.148
3.810,-0.173
3.815,-0.197
3.820,-0.220
3.825,-0.242
3.830,-0.260
3.835,-0.276
3.840,-0.288
3.845,-0.297
3.850,-0.302
3.855,-0.299
3.860,-0.288
3.865,-0.268
3.870,-0.239
3.875,-0.201
3.880,-0.153
3.885,-0.099
3.890,-0.041
3.895,0.015
3.900,0.069
3.905,0.121
3.910,0.166
3.915,0.204
3.920,0.234
3.925,0.256
3.930,0.271
3.935,0.281
3.940,0.287
3.945,0.288
3.950,0.287
3.955,0.282
3.960,0.277
3.965,0.270
3.970,0.261
3.975,0.251
3.980,0.240
3.985,0.231
3.990,0.223
3.995,0.213
4.000,0.203
4.005,0.195
4.010,0.187
4.015,0.180
4.020,0.172
4.025,0.165
4.030,0.157
4.035,0.148
4.040,0.140
4.045,0.133
4.050,0.125
4.055,0.117
4.060,0.107
4.065,0.099
4.070,0.091
4.075,0.082
4.080,0.074
4.085,0.066
4.090,0.058
4.095,0.049
4.100,0.042
4.105,0.035
4.110,0.027
4.115,0.019
4.120,0.013
4.125,0.009
4.130,0.003
4.135,-0.001
4.140,-0.004
4.145,-0.006
4.150,-0.011
4.155,-0.013
4.160,-0.013
4.165,-0.014
4.170,-0.015
4.175,-0.017
4.180,-0.019
4.185,-0.022
4.190,-0.023
4.195,-0.025
4.200,-0.026
4.205,-0.026
4.210,-0.028
4.215,-0.028
4.220,-0.029
4.225,-0.031
4.230,-0.033
4.235,-0.033
4.240,-0.034
4.245,-0.037
4.250,-0.039
4.255,-0.039
4.260,-0.040
4.265,-0.041
4.270,-0.043
4.275,-0.044
4.280,-0.043
4.285,-0.044
4.290,-0.045
4.295,-0.048
4.300,-0.050
4.305,-0.051
4.310,-0.050
4.315,-0.050
4.320,-0.051
4.325,-0.053
4.330,-0.055
4.335,-0.054
4.340,-0.053
4.345,-0.055
4.350,-0.056
4.355,-0.056
4.360,-0.053
4.365,-0.047
4.370,-0.050
4.375,-0.072
4.380,-0.098
4.385,-0.105
4.390,-0.086
4.395,-0.062
4.400,-0.061
4.405,-0.088
4.410,-0.096
4.415,-0.067
4.420,-0.037
4.425,-0.022
4.430,-0.017
4.435,-0.013
4.440,-0.011
4.445,-0.020
4.450,-0.025
4.455,-0.010
4.460,0.007
4.465,0.009
4.470,0.005
4.475,0.006
4.480,0.007
4.485,0.006
4.490,0.003
4.495,-0.001
4.500,-0.003
4.505,-0.005
4.510,-0.008
4.515,-0.012
4.520,-0.011
4.525,-0.012
4.530,-0.015
4.535,-0.017
4.540,-0.020
4.545,-0.024
4.550,-0.026
4.555,-0.028
4.560,-0.032
4.565,-0.036
4.570,-0.035
4.575,-0.018
4.580,-0.008
4.585,-0.063
4.590,-0.194
4.595,-0.376
4.600,-0.611
4.605,-0.896
4.610,-1.147
4.615,-1.167
4.620,-0.814
4.625,-0.194
4.630,0.360
4.635,0.618
4.640,0.628
4.645,0.530
4.650,0.416
4.655,0.318
4.660,0.239
4.665,0.191
4.670,0.168
4.675,0.145
4.680,0.128
4.685,0.127
4.690,0.120
4.695,0.107
4.700,0.103
4.705,0.100
4.710,0.093
4.715,0.089
4.720,0.087
4.725,0.080
4.730,0.075
4.735,0.075
4.740,0.071
4.745,0.064
4.750,0.062
4.755,0.060
4.760,0.056
4.765,0.051
4.770,0.045
4.775,0.040
4.780,0.037
4.785,0.033
4.790,0.026
4.795,0.019
4.800,0.011
4.805,0.001
4.810,-0.007
4.815,-0.014
4.820,-0.022
4.825,-0.033
4.830,-0.049
4.835,-0.062
4.840,-0.074
4.845,-0.092
4.850,-0.115
4.855,-0.136
4.860,-0.158
4.865,-0.182
4.870,-0.209
4.875,-0.232
4.880,-0.251
4.885,-0.268
4.890,-0.281
4.895,-0.293
4.900,-0.300
4.905,-0.299
4.910,-0.294
4.915,-0.283
4.920,-0.261
4.925,-0.227
4.930,-0.183
4.935,-0.133
4.940,-0.079
4.945,-0.020
4.950,0.036
4.955,0.087
4.960,0.135
4.965,0.178
4.970,0.212
4.975,0.237
4.980,0.259
4.985,0.274
4.990,0.284
4.995,0.286
5.000,0.285
5.005,0.284
5.010,0.278
5.015,0.271
5.020,0.266
5.025,0.258
5.030,0.248
5.035,0.238
5.040,0.229
5.045,0.221
5.050,0.214
5.055,0.208
5.060,0.201
5.065,0.192
5.070,0.181
5.075,0.170
5.080,0.162
5.085,0.157
5.090,0.151
5.095,0.139
5.100,0.127
5.105,0.119
5.110,0.112
5.115,0.105
5.120,0.097
5.125,0.086
5.130,0.078
5.135,0.071
5.140,0.064
5.145,0.057
5.150,0.048
5.155,0.037
5.160,0.029
5.165,0.025
5.170,0.021
5.175,0.015
5.180,0.007
5.185,-0.001
5.190,-0.006
5.195,-0.008
5.200,-0.011
5.205,-0.011
5.210,-0.012
5.215,-0.019
5.220,-0.023
5.225,-0.024
5.230,-0.022
5.235,-0.018
5.240,-0.018
5.245,-0.022
5.250,-0.026
5.255,-0.029
5.260,-0.030
5.265,-0.031
5.270,-0.035
5.275,-0.039
5.280,-0.040
5.285,-0.039
5.290,-0.039
5.295,-0.041
5.300,-0.042
5.305,-0.044
5.310,-0.046
5.315,-0.048
5.320,-0.049
5.325,-0.047
5.330,-0.047
5.335,-0.050
5.340,-0.052
5.345,-0.050
5.350,-0.046
5.355,-0.045
5.360,-0.051
5.365,-0.058
5.370,-0.061
5.375,-0.059
5.380,-0.055
5.385,-0.053
5.390,-0.055
5.395,-0.058
5.400,-0.056
5.405,-0.049
5.410,-0.046
5.415,-0.060
5.420,-0.086
5.425,-0.105
5.430,-0.102
5.435,-0.076
5.440,-0.054
5.445,-0.065
5.450,-0.092
5.455,-0.089
5.460,-0.057
5.465,-0.033
5.470,-0.024
5.475,-0.023
5.480,-0.019
5.485,-0.019
5.490,-0.025
5.495,-0.020
5.500,-0.004
5.505,0.005
5.510,0.002
5.515,-0.001
5.520,0.000
5.525,0.000
5.530,-0.001
5.535,-0.004
5.540,-0.008
5.545,-0.011
5.550,-0.012
5.555,-0.013
5.560,-0.015
5.565,-0.016
5.570,-0.014
5.575,-0.012
5.580,-0.014
5.585,-0.020
5.590,-0.026
5.595,-0.029
5.600,-0.035
5.605,-0.043
5.610,-0.042
5.615,-0.027
5.620,0.000
5.625,-0.007
5.630,-0.088
5.635,-0.239
5.640,-0.448
5.645,-0.713
5.650,-1.002
5.655,-1.176
5.660,-1.062
5.665,-0.577
5.670,0.072
5.675,0.518
5.680,0.652
5.685,0.597
5.690,0.496
5.695,0.403
5.700,0.301
5.705,0.217
5.710,0.177
5.715,0.157
5.720,0.136
5.725,0.125
5.730,0.120
5.735,0.105
5.740,0.094
5.745,0.095
5.750,0.090
5.755,0.082
5.760,0.080
5.765,0.078
5.770,0.071
5.775,0.070
5.780,0.070
5.785,0.064
5.790,0.057
5.795,0.057
5.800,0.057
5.805,0.051
5.810,0.045
5.815,0.039
5.820,0.031
5.825,0.025
5.830,0.023
5.835,0.023
5.840,0.019
5.845,0.009
5.850,-0.001
5.855,-0.008
5.860,-0.020
5.865,-0.032
5.870,-0.042
5.875,-0.055
5.880,-0.067
5.885,-0.079
5.890,-0.097
5.895,-0.121
5.900,-0.146
5.905,-0.170
5.910,-0.191
5.915,-0.213
5.920,-0.234
5.925,-0.253
5.930,-0.270
5.935,-0.282
5.940,-0.291
5.945,-0.294
5.950,-0.291
5.955,-0.283
5.960,-0.265
5.965,-0.240
5.970,-0.204
5.975,-0.159
5.980,-0.107
5.985,-0.052
5.990,0.005
5.995,0.059
6.000,0.111
6.005,0.159
6.010,0.199
6.015,0.230
6.020,0.251
6.025,0.266
6.030,0.279
6.035,0.289
6.040,0.294
6.045,0.292
6.050,0.287
6.055,0.281
6.060,0.274
6.065,0.266
6.070,0.260
6.075,0.254
6.080,0.246
6.085,0.237
6.090,0.227
6.095,0.217
6.100,0.209
6.105,0.201
6.110,0.193
6.115,0.183
6.120,0.174
6.125,0.168
6.130,0.161
6.135,0.152
6.140,0.143
6.145,0.132
6.150,0.123
6.155,0.113
6.160,0.102
6.165,0.093
6.170,0.085
6.175,0.077
6.180,0.068
6.185,0.057
6.190,0.049
6.195,0.041
6.200,0.032
6.205,0.026
6.210,0.019
6.215,0.011
6.220,0.006
6.225,0.004
6.230,0.002
6.235,-0.001
6.240,-0.005
6.245,-0.010
6.250,-0.013
6.255,-0.016
6.260,-0.018
6.265,-0.015
6.270,-0.015
6.275,-0.017
6.280,-0.018
6.285,-0.019
6.290,-0.020
6.295,-0.022
6.300,-0.024
6.305,-0.026
6.310,-0.028
6.315,-0.030
6.320,-0.030
6.325,-0.030
6.330,-0.031
6.335,-0.032
6.340,-0.033
6.345,-0.033
6.350,-0.034
6.355,-0.035
6.360,-0.037
6.365,-0.039
6.370,-0.040
6.375,-0.043
6.380,-0.043
6.385,-0.042
6.390,-0.045
6.395,-0.045
6.400,-0.044
6.405,-0.042
6.410,-0.042
6.415,-0.044
6.420,-0.046
6.425,-0.047
6.430,-0.047
6.435,-0.046
6.440,-0.047
6.445,-0.049
6.450,-0.045
6.455,-0.038
6.460,-0.044
6.465,-0.070
6.470,-0.094
6.475,-0.097
6.480,-0.076
6.485,-0.053
6.490,-0.058
6.495,-0.084
6.500,-0.088
6.505,-0.062
6.510,-0.036
6.515,-0.025
6.520,-0.023
6.525,-0.018
6.530,-0.017
6.535,-0.024
6.540,-0.024
6.545,-0.008
6.550,0.008
6.555,0.010
6.560,0.006
6.565,0.003
6.570,0.000
6.575,-0.002
6.580,-0.003
6.585,-0.005
6.590,-0.008
6.595,-0.010
6.600,-0.013
6.605,-0.015
6.610,-0.017
6.615,-0.020
6.620,-0.022
6.625,-0.023
6.630,-0.026
6.635,-0.030
6.640,-0.033
6.645,-0.034
6.650,-0.037
6.655,-0.040
6.660,-0.039
6.665,-0.019
6.670,-0.012
6.675,-0.077
6.680,-0.216
6.685,-0.408
6.690,-0.658
6.695,-0.956
6.700,-1.199
6.705,-1.188
6.710,-0.787
6.715,-0.136
6.720,0.408
6.725,0.641
6.730,0.626
6.735,0.516
6.740,0.402
6.745,0.304
6.750,0.230
6.755,0.189
6.760,0.167
6.765,0.142
6.770,0.129
6.775,0.128
6.780,0.119
6.785,0.107
6.790,0.104
6.795,0.101
6.800,0.093
6.805,0.090
6.810,0.088
6.815,0.082
6.820,0.078
6.825,0.076
6.830,0.073
6.835,0.067
6.840,0.062
6.845,0.058
6.850,0.054
6.855,0.050
6.860,0.044
6.865,0.038
6.870,0.033
6.875,0.028
6.880,0.021
6.885,0.013
6.890,0.004
6.895,-0.005
6.900,-0.012
6.905,-0.019
6.910,-0.029
6.915,-0.041
6.920,-0.054
6.925,-0.068
6.930,-0.085
6.935,-0.102
6.940,-0.121
6.945,-0.144
6.950,-0.169
6.955,-0.194
6.960,-0.219
6.965,-0.241
6.970,-0.262
6.975,-0.279
6.980,-0.292
6.985,-0.301
6.990,-0.307
6.995,-0.308
7.000,-0.303
7.005,-0.287
7.010,-0.262
7.015,-0.229
7.020,-0.185
7.025,-0.132
7.030,-0.074
7.035,-0.015
7.040,0.043
7.045,0.096
7.050,0.145
7.055,0.188
7.060,0.222
7.065,0.249
7.070,0.269
7.075,0.283
7.080,0.291
7.085,0.294
7.090,0.293
7.095,0.289
7.100,0.285
7.105,0.279
7.110,0.270
7.115,0.262
7.120,0.253
7.125,0.243
7.130,0.233
7.135,0.224
7.140,0.215
7.145,0.205
7.150,0.195
7.155,0.187
7.160,0.180
7.165,0.173
7.170,0.164
7.175,0.156
7.180,0.147
7.185,0.138
7.190,0.130
7.195,0.123
7.200,0.115
7.205,0.107
7.210,0.098
7.215,0.089
7.220,0.080
7.225,0.071
7.230,0.063
7.235,0.056
7.240,0.049
7.245,0.042
7.250,0.034
7.255,0.027
7.260,0.020
7.265,0.013
7.270,0.007
7.275,0.002
7.280,-0.003
7.285,-0.007
7.290,-0.011
7.295,-0.012
7.300,-0.013
7.305,-0.015
7.310,-0.018
7.315,-0.020
7.320,-0.021
7.325,-0.021
7.330,-0.024
7.335,-0.025
7.340,-0.025
7.345,-0.026
7.350,-0.027
7.355,-0.028
7.360,-0.029
7.365,-0.031
7.370,-0.032
7.375,-0.034
7.380,-0.035
7.385,-0.037
7.390,-0.039
7.395,-0.042
7.400,-0.043
7.405,-0.044
7.410,-0.045
7.415,-0.046
7.420,-0.048
7.425,-0.049
7.430,-0.050
7.435,-0.050
7.440,-0.050
7.445,-0.051
7.450,-0.051
7.455,-0.050
7.460,-0.050
7.465,-0.051
7.470,-0.051
7.475,-0.051
7.480,-0.051
7.485,-0.051
7.490,-0.051
7.495,-0.051
7.500,-0.052
7.505,-0.052
7.510,-0.051
7.515,-0.047
7.520,-0.043
7.525,-0.057
7.530,-0.084
7.535,-0.104
7.540,-0.100
7.545,-0.075
7.550,-0.053
7.555,-0.063
7.560,-0.089
7.565,-0.086
7.570,-0.055
7.575,-0.030
7.580,-0.021
7.585,-0.019
7.590,-0.014
7.595,-0.014
7.600,-0.023
7.605,-0.020
7.610,0.000
7.615,0.011
7.620,0.010
7.625,0.008
7.630,0.006
7.635,0.004
7.640,0.002
7.645,0.000
7.650,-0.002
7.655,-0.004
7.660,-0.006
7.665,-0.009
7.670,-0.010
7.675,-0.011
7.680,-0.012
7.685,-0.015
7.690,-0.017
7.695,-0.020
7.700,-0.023
7.705,-0.026
7.710,-0.030
7.715,-0.033
7.720,-0.034
7.725,-0.027
7.730,-0.007
7.735,-0.017
7.740,-0.102
7.745,-0.255
7.750,-0.458
7.755,-0.713
7.760,-1.009
7.765,-1.211
7.770,-1.118
7.775,-0.645
7.780,0.007
7.785,0.483
7.790,0.651
7.795,0.609
7.800,0.493
7.805,0.384
7.810,0.290
7.815,0.221
7.820,0.188
7.825,0.167
7.830,0.145
7.835,0.135
7.840,0.132
7.845,0.122
7.850,0.112
7.855,0.110
7.860,0.105
7.865,0.097
7.870,0.095
7.875,0.093
7.880,0.087
7.885,0.083
7.890,0.082
7.895,0.077
7.900,0.071
7.905,0.068
7.910,0.062
7.915,0.056
7.920,0.052
7.925,0.047
7.930,0.043
7.935,0.039
7.940,0.032
7.945,0.026
7.950,0.020
7.955,0.015
7.960,0.009
7.965,0.000
7.970,-0.009
7.975,-0.021
7.980,-0.033
7.985,-0.046
7.990,-0.060
7.995,-0.078
8.000,-0.099
8.005,-0.120
8.010,-0.141
8.015,-0.164
8.020,-0.189
8.025,-0.216
8.030,-0.240
8.035,-0.259
8.040,-0.275
8.045,-0.288
8.050,-0.298
8.055,-0.304
8.060,-0.304
8.065,-0.297
8.070,-0.281
8.075,-0.253
8.080,-0.214
8.085,-0.168
8.090,-0.116
8.095,-0.062
8.100,-0.005
8.105,0.053
8.110,0.106
8.115,0.154
8.120,0.196
8.125,0.228
8.130,0.253
8.135,0.272
8.140,0.284
8.145,0.289
8.150,0.289
8.155,0.287
8.160,0.287
8.165,0.285
8.170,0.278
8.175,0.267
8.180,0.254
8.185,0.246
8.190,0.240
8.195,0.231
8.200,0.221
8.205,0.213
8.210,0.205
8.215,0.195
8.220,0.185
8.225,0.175
8.230,0.167
8.235,0.161
8.240,0.153
8.245,0.143
8.250,0.133
8.255,0.126
8.260,0.124
8.265,0.120
8.270,0.110
8.275,0.098
8.280,0.087
8.285,0.080
8.290,0.074
8.295,0.065
8.300,0.054
8.305,0.044
8.310,0.036
8.315,0.032
8.320,0.027
8.325,0.017
8.330,0.010
8.335,0.006
8.340,0.001
8.345,-0.001
8.350,-0.003
8.355,-0.005
8.360,-0.008
8.365,-0.013
8.370,-0.015
8.375,-0.018
8.380,-0.022
8.385,-0.024
8.390,-0.023
8.395,-0.025
8.400,-0.025
8.405,-0.025
8.410,-0.027
8.415,-0.031
8.420,-0.034
8.425,-0.035
8.430,-0.036
8.435,-0.036
8.440,-0.034
8.445,-0.036
8.450,-0.042
8.455,-0.046
8.460,-0.045
8.465,-0.043
8.470,-0.041
8.475,-0.039
8.480,-0.042
8.485,-0.048
8.490,-0.051
8.495,-0.050
8.500,-0.047
8.505,-0.045
8.510,-0.048
8.515,-0.049
8.520,-0.050
8.525,-0.054
8.530,-0.055
8.535,-0.051
8.540,-0.051
8.545,-0.052
8.550,-0.052
8.555,-0.053
8.560,-0.056
8.565,-0.058
8.570,-0.054
8.575,-0.047
8.580,-0.048
8.585,-0.067
8.590,-0.094
8.595,-0.103
8.600,-0.084
8.605,-0.057
8.610,-0.057
8.615,-0.086
8.620,-0.098
8.625,-0.071
8.630,-0.040
8.635,-0.027
8.640,-0.022
8.645,-0.020
8.650,-0.020
8.655,-0.023
8.660,-0.021
8.665,-0.009
8.670,0.003
8.675,0.004
8.680,0.001
8.685,0.004
8.690,0.003
8.695,0.001
8.700,0.002
8.705,-0.003
8.710,-0.008
8.715,-0.006
8.720,-0.008
8.725,-0.014
8.730,-0.015
8.735,-0.017
8.740,-0.019
8.745,-0.019
8.750,-0.020
8.755,-0.020
8.760,-0.023
8.765,-0.028
8.770,-0.032
8.775,-0.035
8.780,-0.031
8.785,-0.011
8.790,-0.004
8.795,-0.062
8.800,-0.193
8.805,-0.383
8.810,-0.637
8.815,-0.933
8.820,-1.168
8.825,-1.160
8.830,-0.771
8.835,-0.127
8.840,0.410
8.845,0.637
8.850,0.623
8.855,0.522
8.860,0.420
8.865,0.324
8.870,0.240
8.875,0.194
8.880,0.175
8.885,0.147
8.890,0.127
8.895,0.124
8.900,0.117
8.905,0.105
8.910,0.103
8.915,0.098
8.920,0.089
8.925,0.088
8.930,0.086
8.935,0.080
8.940,0.073
8.945,0.070
8.950,0.071
8.955,0.070
8.960,0.063
8.965,0.053
8.970,0.050
8.975,0.049
8.980,0.045
8.985,0.040
8.990,0.033
8.995,0.030
9.000,0.029
9.005,0.026
9.010,0.017
9.015,0.004
9.020,-0.007
9.025,-0.012
9.030,-0.019
9.035,-0.031
9.040,-0.045
9.045,-0.060
9.050,-0.077
9.055,-0.093
9.060,-0.111
9.065,-0.135
9.070,-0.161
9.075,-0.188
9.080,-0.215
9.085,-0.236
9.090,-0.251
9.095,-0.266
9.100,-0.278
9.105,-0.291
9.110,-0.299
9.115,-0.296
9.120,-0.291
9.125,-0.280
9.130,-0.258
9.135,-0.225
9.140,-0.184
9.145,-0.130
9.150,-0.072
9.155,-0.012
9.160,0.046
9.165,0.097
9.170,0.144
9.175,0.185
9.180,0.216
9.185,0.244
9.190,0.268
9.195,0.282
9.200,0.286
9.205,0.286
9.210,0.288
9.215,0.290
9.220,0.286
9.225,0.279
9.230,0.270
9.235,0.260
9.240,0.250
9.245,0.242
9.250,0.235
9.255,0.227
9.260,0.218
9.265,0.211
9.270,0.205
9.275,0.197
9.280,0.183
9.285,0.171
9.290,0.165
9.295,0.164
9.300,0.159
9.305,0.149
9.310,0.135
9.315,0.125
9.320,0.119
9.325,0.106
9.330,0.089
9.335,0.081
9.340,0.072
9.345,0.064
9.350,0.054
9.355,0.044
9.360,0.036
9.365,0.030
9.370,0.023
9.375,0.012
9.380,0.006
9.385,0.003
9.390,-0.002
9.395,-0.005
9.400,-0.009
9.405,-0.012
9.410,-0.014
9.415,-0.019
9.420,-0.020
9.425,-0.019
9.430,-0.018
9.435,-0.021
9.440,-0.027
9.445,-0.028
9.450,-0.026
9.455,-0.027
9.460,-0.027
9.465,-0.026
9.470,-0.027
9.475,-0.027
9.480,-0.030
9.485,-0.033
9.490,-0.031
9.495,-0.031
9.500,-0.034
9.505,-0.036
9.510,-0.038
9.515,-0.039
9.520,-0.037
9.525,-0.037
9.530,-0.037
9.535,-0.040
9.540,-0.046
9.545,-0.051
9.550,-0.049
9.555,-0.044
9.560,-0.045
9.565,-0.047
9.570,-0.047
9.575,-0.048
9.580,-0.051
9.585,-0.053
9.590,-0.055
9.595,-0.055
9.600,-0.053
9.605,-0.051
9.610,-0.047
9.615,-0.043
9.620,-0.050
9.625,-0.074
9.630,-0.099
9.635,-0.102
9.640,-0.079
9.645,-0.054
9.650,-0.061
9.655,-0.089
9.660,-0.093
9.665,-0.064
9.670,-0.035
9.675,-0.024
9.680,-0.023
9.685,-0.019
9.690,-0.016
9.695,-0.021
9.700,-0.021
9.705,-0.008
9.710,0.002
9.715,0.002
9.720,0.001
9.725,0.000
9.730,-0.002
9.735,-0.005
9.740,-0.008
9.745,-0.012
9.750,-0.014
9.755,-0.012
9.760,-0.011
9.765,-0.014
9.770,-0.018
9.775,-0.022
9.780,-0.025
9.785,-0.025
9.790,-0.026
9.795,-0.029
9.800,-0.030
9.805,-0.031
9.810,-0.035
9.815,-0.039
9.820,-0.033
9.825,-0.009
9.830,-0.006
9.835,-0.078
9.840,-0.223
9.845,-0.425
9.850,-0.688
9.855,-0.989
9.860,-1.205
9.865,-1.150
9.870,-0.702
9.875,-0.032
9.880,0.477
9.885,0.663
9.890,0.622
9.895,0.513
9.900,0.416
9.905,0.321
9.910,0.237
9.915,0.194
9.920,0.172
9.925,0.145
9.930,0.131
9.935,0.132
9.940,0.122
9.945,0.109
9.950,0.107
9.955,0.104
9.960,0.097
9.965,0.096
9.970,0.092
9.975,0.083
9.980,0.079
9.985,0.079
9.990,0.076
9.995,0.072
10.000,0.070
10.005,0.065
10.010,0.057
10.015,0.052
10.020,0.047
10.025,0.041
10.030,0.038
10.035,0.036
10.040,0.031
10.045,0.022
10.050,0.014
10.055,0.006
10.060,-0.002
10.065,-0.011
10.070,-0.021
10.075,-0.030
10.080,-0.042
10.085,-0.057
10.090,-0.074
10.095,-0.094
10.100,-0.117
10.105,-0.140
10.110,-0.164
10.115,-0.189
10.120,-0.212
10.125,-0.236
10.130,-0.258
10.135,-0.276
10.140,-0.289
10.145,-0.298
10.150,-0.302
10.155,-0.302
10.160,-0.296
10.165,-0.282
10.170,-0.256
10.175,-0.221
10.180,-0.176
10.185,-0.121
10.190,-0.062
10.195,-0.003
10.200,0.057
10.205,0.111
10.210,0.158
10.215,0.199
10.220,0.231
10.225,0.257
10.230,0.276
10.235,0.287
10.240,0.294
10.245,0.296
10.250,0.295
10.255,0.292
10.260,0.287
10.265,0.281
10.270,0.274
10.275,0.264
10.280,0.252
10.285,0.243
10.290,0.234
10.295,0.223
10.300,0.212
10.305,0.204
10.310,0.197
10.315,0.190
10.320,0.183
10.325,0.174
10.330,0.165
10.335,0.156
10.340,0.145
10.345,0.136
10.350,0.130
10.355,0.121
10.360,0.113
10.365,0.105
10.370,0.093
10.375,0.084
10.380,0.075
10.385,0.065
10.390,0.057
10.395,0.048
10.400,0.038
10.405,0.031
10.410,0.025
10.415,0.018
10.420,0.012
10.425,0.006
10.430,-0.001
10.435,-0.006
10.440,-0.009
10.445,-0.013
10.450,-0.015
10.455,-0.017
10.460,-0.020
10.465,-0.022
10.470,-0.022
10.475,-0.022
10.480,-0.024
10.485,-0.026
10.490,-0.027
10.495,-0.027
10.500,-0.029
10.505,-0.031
10.510,-0.033
10.515,-0.035
10.520,-0.035
10.525,-0.037
10.530,-0.038
10.535,-0.037
10.540,-0.038
10.545,-0.041
10.550,-0.042
10.555,-0.044
10.560,-0.046
10.565,-0.047
10.570,-0.048
10.575,-0.050
10.580,-0.052
10.585,-0.053
10.590,-0.053
10.595,-0.052
10.600,-0.051
10.605,-0.052
10.610,-0.054
10.615,-0.055
10.620,-0.054
10.625,-0.053
10.630,-0.054
10.635,-0.056
10.640,-0.059
10.645,-0.060
10.650,-0.057
10.655,-0.057
10.660,-0.058
10.665,-0.060
10.670,-0.060
10.675,-0.055
10.680,-0.052
10.685,-0.065
10.690,-0.093
10.695,-0.113
10.700,-0.108
10.705,-0.081
10.710,-0.060
10.715,-0.072
10.720,-0.096
10.725,-0.092
10.730,-0.063
10.735,-0.040
10.740,-0.030
10.745,-0.026
10.750,-0.021
10.755,-0.021
10.760,-0.030
10.765,-0.026
10.770,-0.006
10.775,0.005
10.780,0.004
10.785,0.002
10.790,0.000
10.795,-0.002
10.800,-0.004
10.805,-0.004
10.810,-0.006
10.815,-0.008
10.820,-0.009
10.825,-0.010
10.830,-0.011
10.835,-0.013
10.840,-0.015
10.845,-0.017
10.850,-0.019
10.855,-0.022
10.860,-0.024
10.865,-0.027
10.870,-0.030
10.875,-0.033
10.880,-0.034
10.885,-0.025
10.890,-0.006
10.895,-0.025
10.900,-0.120
10.905,-0.280
10.910,-0.491
10.915,-0.758
10.920,-1.060
10.925,-1.243
10.930,-1.101
10.935,-0.580
10.940,0.083
10.945,0.531
10.950,0.665
10.955,0.605
10.960,0.482
10.965,0.372
10.970,0.284
10.975,0.222
10.980,0.194
10.985,0.172
10.990,0.150
10.995,0.143
11.000,0.139
11.005,0.125
11.010,0.117
11.015,0.116
11.020,0.110
11.025,0.103
11.030,0.101
11.035,0.099
11.040,0.094
11.045,0.089
11.050,0.085
11.055,0.080
11.060,0.075
11.065,0.072
11.070,0.066
11.075,0.061
11.080,0.056
11.085,0.051
11.090,0.046
11.095,0.039
11.100,0.033
11.105,0.027
11.110,0.020
11.115,0.013
11.120,0.005
11.125,-0.004
11.130,-0.016
11.135,-0.027
11.140,-0.038
11.145,-0.050
11.150,-0.065
11.155,-0.083
11.160,-0.103
11.165,-0.124
11.170,-0.148
11.175,-0.173
11.180,-0.199
11.185,-0.223
11.190,-0.245
11.195,-0.265
11.200,-0.280
11.205,-0.292
11.210,-0.302
11.215,-0.307
11.220,-0.305
11.225,-0.296
11.230,-0.278
11.235,-0.251
11.240,-0.213
11.245,-0.166
11.250,-0.113
11.255,-0.055
11.260,0.003
11.265,0.061
11.270,0.113
11.275,0.159
11.280,0.199
11.285,0.232
11.290,0.257
11.295,0.276
11.300,0.289
11.305,0.297
11.310,0.299
11.315,0.299
11.320,0.296
11.325,0.290
11.330,0.282
11.335,0.273
11.340,0.264
11.345,0.253
11.350,0.241
11.355,0.231
11.360,0.222
11.365,0.213
11.370,0.205
11.375,0.196
11.380,0.187
11.385,0.178
11.390,0.169
11.395,0.162
11.400,0.155
11.405,0.148
11.410,0.140
11.415,0.131
11.420,0.124
11.425,0.116
11.430,0.108
11.435,0.101
11.440,0.094
11.445,0.085
11.450,0.077
11.455,0.070
11.460,0.063
11.465,0.056
11.470,0.049
11.475,0.042
11.480,0.034
11.485,0.027
11.490,0.020
11.495,0.014
11.500,0.008
11.505,0.002
11.510,-0.002
11.515,-0.007
11.520,-0.011
11.525,-0.014
11.530,-0.017
11.535,-0.017
11.540,-0.018
11.545,-0.021
11.550,-0.023
11.555,-0.026
11.560,-0.027
11.565,-0.027
11.570,-0.028
11.575,-0.030
11.580,-0.031
11.585,-0.032
11.590,-0.033
11.595,-0.035
11.600,-0.037
11.605,-0.039
11.610,-0.040
11.615,-0.041
11.620,-0.041
11.625,-0.042
11.630,-0.045
11.635,-0.046
11.640,-0.047
11.645,-0.047
11.650,-0.046
11.655,-0.047
11.660,-0.048
11.665,-0.049
11.670,-0.049
11.675,-0.051
11.680,-0.052
11.685,-0.053
11.690,-0.054
11.695,-0.053
11.700,-0.053
11.705,-0.052
11.710,-0.051
11.715,-0.051
11.720,-0.051
11.725,-0.052
11.730,-0.054
11.735,-0.052
11.740,-0.046
11.745,-0.045
11.750,-0.062
11.755,-0.090
11.760,-0.106
11.765,-0.097
11.770,-0.070
11.775,-0.057
11.780,-0.077
11.785,-0.098
11.790,-0.083
11.795,-0.052
11.800,-0.031
11.805,-0.024
11.810,-0.021
11.815,-0.017
11.820,-0.021
11.825,-0.028
11.830,-0.020
11.835,-0.002
11.840,0.005
11.845,0.004
11.850,0.004
11.855,0.001
11.860,-0.003
11.865,-0.004
11.870,-0.004
11.875,-0.007
11.880,-0.011
11.885,-0.013
11.890,-0.014
11.895,-0.016
11.900,-0.018
11.905,-0.020
11.910,-0.021
11.915,-0.023
11.920,-0.026
11.925,-0.029
11.930,-0.031
11.935,-0.033
11.940,-0.036
11.945,-0.037
11.950,-0.025
11.955,-0.008
11.960,-0.039
11.965,-0.146
11.970,-0.312
11.975,-0.531
11.980,-0.804
11.985,-1.092
11.990,-1.220
11.995,-1.001
12.000,-0.434
12.005,0.200
12.010,0.572
12.015,0.652
12.020,0.573
12.025,0.451
12.030,0.348
12.035,0.261
12.040,0.204
12.045,0.179
12.050,0.154
12.055,0.133
12.060,0.127
12.065,0.124
12.070,0.112
12.075,0.106
12.080,0.106
12.085,0.100
12.090,0.094
12.095,0.094
12.100,0.091
12.105,0.084
12.110,0.079
12.115,0.075
12.120,0.070
12.125,0.067
12.130,0.064
12.135,0.061
12.140,0.056
12.145,0.053
12.150,0.048
12.155,0.042
12.160,0.037
12.165,0.032
12.170,0.028
12.175,0.020
12.180,0.012
12.185,0.003
12.190,-0.006
12.195,-0.016
12.200,-0.027
12.205,-0.037
12.210,-0.049
12.215,-0.066
12.220,-0.084
12.225,-0.104
12.230,-0.125
12.235,-0.146
12.240,-0.169
12.245,-0.194
12.250,-0.218
12.255,-0.242
12.260,-0.264
12.265,-0.281
12.270,-0.294
12.275,-0.303
12.280,-0.305
12.285,-0.301
12.290,-0.289
12.295,-0.268
12.300,-0.240
12.305,-0.203
12.310,-0.156
12.315,-0.103
12.320,-0.046
12.325,0.014
12.330,0.072
12.335,0.122
12.340,0.165
12.345,0.201
12.350,0.229
12.355,0.253
12.360,0.273
12.365,0.286
12.370,0.292
12.375,0.291
12.380,0.287
12.385,0.285
12.390,0.281
12.395,0.274
12.400,0.265
12.405,0.256
12.410,0.247
12.415,0.237
12.420,0.227
12.425,0.217
12.430,0.206
12.435,0.195
12.440,0.185
12.445,0.179
12.450,0.178
12.455,0.173
12.460,0.164
12.465,0.152
12.470,0.145
12.475,0.139
12.480,0.133
12.485,0.126
12.490,0.116
12.495,0.106
12.500,0.100
12.505,0.094
12.510,0.084
12.515,0.072
12.520,0.062
12.525,0.057
12.530,0.052
12.535,0.042
12.540,0.032
12.545,0.026
12.550,0.021
12.555,0.017
12.560,0.009
12.565,0.000
12.570,-0.004
12.575,-0.007
12.580,-0.010
12.585,-0.013
12.590,-0.017
12.595,-0.022
12.600,-0.024
12.605,-0.024
12.610,-0.025
12.615,-0.025
12.620,-0.026
12.625,-0.030
12.630,-0.033
12.635,-0.038
12.640,-0.040
12.645,-0.039
12.650,-0.038
12.655,-0.038
12.660,-0.039
12.665,-0.042
12.670,-0.043
12.675,-0.045
12.680,-0.048
12.685,-0.048
12.690,-0.048
12.695,-0.049
12.700,-0.048
12.705,-0.048
12.710,-0.050
12.715,-0.050
12.720,-0.048
12.725,-0.049
12.730,-0.051
12.735,-0.050
12.740,-0.050
12.745,-0.053
12.750,-0.056
12.755,-0.057
12.760,-0.055
12.765,-0.055
12.770,-0.058
12.775,-0.060
12.780,-0.059
12.785,-0.057
12.790,-0.053
12.795,-0.048
12.800,-0.054
12.805,-0.078
12.810,-0.103
12.815,-0.108
12.820,-0.086
12.825,-0.060
12.830,-0.063
12.835,-0.088
12.840,-0.094
12.845,-0.066
12.850,-0.039
12.855,-0.028
12.860,-0.022
12.865,-0.016
12.870,-0.013
12.875,-0.019
12.880,-0.020
12.885,-0.006
12.890,0.006
12.895,0.005
12.900,0.004
12.905,0.004
12.910,-0.002
12.915,-0.008
12.920,-0.008
12.925,-0.007
12.930,-0.009
12.935,-0.008
12.940,-0.007
12.945,-0.010
12.950,-0.014
12.955,-0.015
12.960,-0.018
12.965,-0.021
12.970,-0.022
12.975,-0.023
12.980,-0.024
12.985,-0.027
12.990,-0.032
12.995,-0.034
13.000,-0.029
13.005,-0.010
13.010,-0.005
13.015,-0.069
13.020,-0.205
13.025,-0.397
13.030,-0.645
13.035,-0.932
13.040,-1.156
13.045,-1.134
13.050,-0.728
13.055,-0.078
13.060,0.445
13.065,0.648
13.070,0.619
13.075,0.516
13.080,0.420
13.085,0.324
13.090,0.235
13.095,0.185
13.100,0.161
13.105,0.130
13.110,0.114
13.115,0.119
13.120,0.114
13.125,0.100
13.130,0.097
13.135,0.094
13.140,0.088
13.145,0.087
13.150,0.083
13.155,0.075
13.160,0.073
13.165,0.073
13.170,0.067
13.175,0.058
13.180,0.050
13.185,0.050
13.190,0.051
13.195,0.048
13.200,0.044
13.205,0.038
13.210,0.031
13.215,0.027
13.220,0.023
13.225,0.016
13.230,0.007
13.235,0.002
13.240,-0.001
13.245,-0.009
13.250,-0.022
13.255,-0.038
13.260,-0.049
13.265,-0.059
13.270,-0.076
13.275,-0.096
13.280,-0.119
13.285,-0.140
13.290,-0.159
13.295,-0.181
13.300,-0.204
13.305,-0.227
13.310,-0.250
13.315,-0.268
13.320,-0.279
13.325,-0.287
13.330,-0.292
13.335,-0.293
13.340,-0.289
13.345,-0.275
13.350,-0.250
13.355,-0.217
13.360,-0.174
13.365,-0.117
13.370,-0.059
13.375,-0.004
13.380,0.050
13.385,0.098
13.390,0.142
13.395,0.182
13.400,0.218
13.405,0.251
13.410,0.274
13.415,0.286
13.420,0.291
13.425,0.290
13.430,0.286
13.435,0.282
13.440,0.283
13.445,0.280
13.450,0.271
13.455,0.263
13.460,0.256
13.465,0.249
13.470,0.239
13.475,0.226
13.480,0.217
13.485,0.214
13.490,0.206
13.495,0.196
13.500,0.188
13.505,0.182
13.510,0.175
13.515,0.165
13.520,0.155
13.525,0.146
13.530,0.135
13.535,0.124
13.540,0.115
13.545,0.108
13.550,0.099
13.555,0.088
13.560,0.078
13.565,0.065
13.570,0.057
13.575,0.051
13.580,0.041
13.585,0.033
13.590,0.027
13.595,0.023
13.600,0.019
13.605,0.011
13.610,0.003
13.615,-0.001
13.620,-0.002
13.625,-0.003
13.630,-0.004
13.635,-0.007
13.640,-0.012
13.645,-0.015
13.650,-0.018
13.655,-0.021
13.660,-0.020
13.665,-0.017
13.670,-0.018
13.675,-0.023
13.680,-0.028
13.685,-0.025
13.690,-0.022
13.695,-0.024
13.700,-0.026
13.705,-0.028
13.710,-0.031
13.715,-0.033
13.720,-0.036
13.725,-0.036
13.730,-0.038
13.735,-0.042
13.740,-0.043
13.745,-0.042
13.750,-0.040
13.755,-0.040
13.760,-0.042
13.765,-0.043
13.770,-0.043
13.775,-0.044
13.780,-0.044
13.785,-0.044
13.790,-0.045
13.795,-0.047
13.800,-0.047
13.805,-0.048
13.810,-0.048
13.815,-0.047
13.820,-0.048
13.825,-0.051
13.830,-0.048
13.835,-0.043
13.840,-0.048
13.845,-0.068
13.850,-0.094
13.855,-0.103
13.860,-0.085
13.865,-0.059
13.870,-0.053
13.875,-0.079
13.880,-0.096
13.885,-0.076
13.890,-0.044
13.895,-0.027
13.900,-0.023
13.905,-0.019
13.910,-0.015
13.915,-0.019
13.920,-0.022
13.925,-0.013
13.930,0.000
13.935,0.002
13.940,0.000
13.945,0.000
13.950,-0.002
13.955,-0.003
13.960,-0.003
13.965,-0.004
13.970,-0.006
13.975,-0.010
13.980,-0.012
13.985,-0.015
13.990,-0.016
13.995,-0.017
14.000,-0.017
14.005,-0.019
14.010,-0.022
14.015,-0.027
14.020,-0.031
14.025,-0.033
14.030,-0.035
14.035,-0.038
14.040,-0.037
14.045,-0.020
14.050,-0.004
14.055,-0.047
14.060,-0.167
14.065,-0.348
14.070,-0.588
14.075,-0.875
14.080,-1.140
14.085,-1.206
14.090,-0.901
14.095,-0.280
14.100,0.323
14.105,0.625
14.110,0.647
14.115,0.550
14.120,0.443
14.125,0.345
14.130,0.254
14.135,0.198
14.140,0.174
14.145,0.146
14.150,0.124
14.155,0.122
14.160,0.118
14.165,0.107
14.170,0.103
14.175,0.101
14.180,0.092
14.185,0.087
14.190,0.086
14.195,0.082
14.200,0.079
14.205,0.076
14.210,0.070
14.215,0.065
14.220,0.061
14.225,0.057
14.230,0.054
14.235,0.051
14.240,0.047
14.245,0.042
14.250,0.035
14.255,0.030
14.260,0.026
14.265,0.020
14.270,0.015
14.275,0.008
14.280,-0.002
14.285,-0.011
14.290,-0.020
14.295,-0.030
14.300,-0.043
14.305,-0.057
14.310,-0.072
14.315,-0.088
14.320,-0.106
14.325,-0.129
14.330,-0.155
14.335,-0.181
14.340,-0.207
14.345,-0.230
14.350,-0.251
14.355,-0.269
14.360,-0.283
14.365,-0.294
14.370,-0.301
14.375,-0.304
14.380,-0.302
14.385,-0.290
14.390,-0.268
14.395,-0.236
14.400,-0.194
14.405,-0.143
14.410,-0.088
14.415,-0.031
14.420,0.029
14.425,0.086
14.430,0.135
14.435,0.178
14.440,0.214
14.445,0.243
14.450,0.265
14.455,0.280
14.460,0.289
14.465,0.292
14.470,0.291
14.475,0.289
14.480,0.284
14.485,0.279
14.490,0.272
14.495,0.262
14.500,0.252
14.505,0.242
14.510,0.233
14.515,0.225
14.520,0.217
14.525,0.208
14.530,0.198
14.535,0.190
14.540,0.181
14.545,0.173
14.550,0.165
14.555,0.156
14.560,0.147
14.565,0.140
14.570,0.132
14.575,0.123
14.580,0.115
14.585,0.106
14.590,0.096
14.595,0.085
14.600,0.075
14.605,0.068
14.610,0.061
14.615,0.053
14.620,0.045
14.625,0.037
14.630,0.030
14.635,0.023
14.640,0.017
14.645,0.011
14.650,0.007
14.655,0.002
14.660,-0.003
14.665,-0.006
14.670,-0.009
14.675,-0.012
14.680,-0.014
14.685,-0.016
14.690,-0.018
14.695,-0.020
14.700,-0.022
14.705,-0.024
14.710,-0.025
14.715,-0.029
14.720,-0.031
14.725,-0.032
14.730,-0.032
14.735,-0.032
14.740,-0.033
14.745,-0.036
14.750,-0.038
14.755,-0.038
14.760,-0.039
14.765,-0.040
14.770,-0.041
14.775,-0.042
14.780,-0.044
14.785,-0.045
14.790,-0.045
14.795,-0.045
14.800,-0.046
14.805,-0.047
14.810,-0.048
14.815,-0.048
14.820,-0.048
14.825,-0.049
14.830,-0.050
14.835,-0.050
14.840,-0.051
14.845,-0.051
14.850,-0.051
14.855,-0.052
14.860,-0.052
14.865,-0.053
14.870,-0.052
14.875,-0.052
14.880,-0.053
14.885,-0.054
14.890,-0.055
14.895,-0.053
14.900,-0.047
14.905,-0.047
14.910,-0.065
14.915,-0.092
14.920,-0.103
14.925,-0.091
14.930,-0.065
14.935,-0.054
14.940,-0.074
14.945,-0.092
14.950,-0.076
14.955,-0.046
14.960,-0.027
14.965,-0.021
14.970,-0.017
14.975,-0.013
14.980,-0.018
14.985,-0.026
14.990,-0.016
14.995,0.002
15.000,0.008
15.005,0.007
15.010,0.006
15.015,0.004
15.020,-0.001
15.025,-0.003
15.030,-0.004
15.035,-0.006
15.040,-0.009
15.045,-0.010
15.050,-0.010
15.055,-0.011
15.060,-0.014
15.065,-0.017
15.070,-0.019
15.075,-0.019
15.080,-0.021
15.085,-0.025
15.090,-0.028
15.095,-0.031
15.100,-0.034
15.105,-0.034
15.110,-0.023
15.115,-0.009
15.120,-0.045
15.125,-0.159
15.130,-0.331
15.135,-0.555
15.140,-0.831
15.145,-1.114
15.150,-1.221
15.155,-0.968
15.160,-0.381
15.165,0.243
15.170,0.594
15.175,0.654
15.180,0.566
15.185,0.441
15.190,0.336
15.195,0.253
15.200,0.200
15.205,0.179
15.210,0.158
15.215,0.138
15.220,0.134
15.225,0.128
15.230,0.115
15.235,0.111
15.240,0.108
15.245,0.101
15.250,0.096
15.255,0.095
15.260,0.091
15.265,0.085
15.270,0.082
15.275,0.078
15.280,0.073
15.285,0.070
15.290,0.068
15.295,0.063
15.300,0.059
15.305,0.055
15.310,0.050
15.315,0.045
15.320,0.039
15.325,0.033
15.330,0.027
15.335,0.021
15.340,0.013
15.345,0.004
15.350,-0.006
15.355,-0.015
15.360,-0.027
15.365,-0.040
15.370,-0.052
15.375,-0.065
15.380,-0.082
15.385,-0.103
15.390,-0.125
15.395,-0.149
15.400,-0.173
15.405,-0.197
15.410,-0.222
15.415,-0.243
15.420,-0.262
15.425,-0.278
15.430,-0.289
15.435,-0.297
15.440,-0.301
15.445,-0.299
15.450,-0.290
15.455,-0.270
15.460,-0.240
15.465,-0.200
15.470,-0.152
15.475,-0.098
15.480,-0.042
15.485,0.015
15.490,0.070
15.495,0.119
15.500,0.163
15.505,0.202
15.510,0.233
15.515,0.255
15.520,0.270
15.525,0.281
15.530,0.286
15.535,0.288
15.540,0.285
15.545,0.281
15.550,0.276
15.555,0.268
15.560,0.259
15.565,0.251
15.570,0.243
15.575,0.234
15.580,0.223
15.585,0.213
15.590,0.204
15.595,0.195
15.600,0.186
15.605,0.178
15.610,0.170
15.615,0.162
15.620,0.155
15.625,0.148
15.630,0.140
15.635,0.132
15.640,0.123
15.645,0.115
15.650,0.108
15.655,0.102
15.660,0.094
15.665,0.086
15.670,0.079
15.675,0.072
15.680,0.063
15.685,0.055
15.690,0.048
15.695,0.040
15.700,0.033
15.705,0.027
15.710,0.020
15.715,0.014
15.720,0.009
15.725,0.005
15.730,0.001
15.735,-0.004
15.740,-0.009
15.745,-0.013
15.750,-0.016
15.755,-0.018
15.760,-0.019
15.765,-0.021
15.770,-0.022
15.775,-0.024
15.780,-0.027
15.785,-0.029
15.790,-0.030
15.795,-0.029
15.800,-0.029
15.805,-0.031
15.810,-0.033
15.815,-0.034
15.820,-0.034
15.825,-0.036
15.830,-0.038
15.835,-0.038
15.840,-0.040
15.845,-0.041
15.850,-0.042
15.855,-0.043
15.860,-0.044
15.865,-0.044
15.870,-0.046
15.875,-0.047
15.880,-0.047
15.885,-0.047
15.890,-0.046
15.895,-0.046
15.900,-0.047
15.905,-0.047
15.910,-0.048
15.915,-0.048
15.920,-0.048
15.925,-0.048
15.930,-0.049
15.935,-0.048
15.940,-0.048
15.945,-0.049
15.950,-0.050
15.955,-0.048
15.960,-0.042
15.965,-0.044
15.970,-0.064
15.975,-0.091
15.980,-0.101
15.985,-0.085
15.990,-0.060
15.995,-0.054
16.000,-0.078
16.005,-0.093
16.010,-0.072
16.015,-0.042
16.020,-0.024
16.025,-0.020
16.030,-0.017
16.035,-0.012
16.040,-0.019
16.045,-0.025
16.050,-0.014
16.055,0.005
16.060,0.010
16.065,0.008
16.070,0.005
16.075,0.002
16.080,-0.001
16.085,-0.001
16.090,-0.003
16.095,-0.007
16.100,-0.009
16.105,-0.010
16.110,-0.011
16.115,-0.013
16.120,-0.014
16.125,-0.016
16.130,-0.019
16.135,-0.022
16.140,-0.024
16.145,-0.028
16.150,-0.031
16.155,-0.034
16.160,-0.037
16.165,-0.036
16.170,-0.023
16.175,-0.009
16.180,-0.053
16.185,-0.171
16.190,-0.344
16.195,-0.567
16.200,-0.841
16.205,-1.111
16.210,-1.192
16.215,-0.911
16.220,-0.316
16.225,0.281
16.230,0.598
16.235,0.642
16.240,0.553
16.245,0.433
16.250,0.331
16.255,0.247
16.260,0.195
16.265,0.172
16.270,0.149
16.275,0.131
16.280,0.130
16.285,0.125
16.290,0.113
16.295,0.107
16.300,0.104
16.305,0.097
16.310,0.092
16.315,0.091
16.320,0.086
16.325,0.081
16.330,0.078
16.335,0.074
16.340,0.069
16.345,0.067
16.350,0.066
16.355,0.062
16.360,0.056
16.365,0.050
16.370,0.045
16.375,0.041
16.380,0.038
16.385,0.032
16.390,0.025
16.395,0.017
16.400,0.009
16.405,0.000
16.410,-0.010
16.415,-0.020
16.420,-0.029
16.425,-0.040
16.430,-0.055
16.435,-0.070
16.440,-0.086
16.445,-0.104
16.450,-0.125
16.455,-0.149
16.460,-0.175
16.465,-0.200
16.470,-0.225
16.475,-0.248
16.480,-0.265
16.485,-0.276
16.490,-0.286
16.495,-0.295
16.500,-0.300
16.505,-0.297
16.510,-0.288
16.515,-0.270
16.520,-0.239
16.525,-0.200
16.530,-0.152
16.535,-0.098
16.540,-0.041
16.545,0.019
16.550,0.074
16.555,0.122
16.560,0.168
16.565,0.206
16.570,0.234
16.575,0.255
16.580,0.273
16.585,0.283
16.590,0.286
16.595,0.285
16.600,0.284
16.605,0.281
16.610,0.274
16.615,0.263
16.620,0.254
16.625,0.246
16.630,0.238
16.635,0.232
16.640,0.225
16.645,0.216
16.650,0.206
16.655,0.194
16.660,0.184
16.665,0.175
16.670,0.167
16.675,0.162
16.680,0.156
16.685,0.152
16.690,0.146
16.695,0.137
16.700,0.127
16.705,0.119
16.710,0.109
16.715,0.100
16.720,0.095
16.725,0.088
16.730,0.081
16.735,0.075
16.740,0.067
16.745,0.058
16.750,0.047
16.755,0.038
16.760,0.035
16.765,0.032
16.770,0.024
16.775,0.015
16.780,0.009
16.785,0.007
16.790,0.004
16.795,-0.001
16.800,-0.007
16.805,-0.010
16.810,-0.011
16.815,-0.013
16.820,-0.014
16.825,-0.017
16.830,-0.019
16.835,-0.018
16.840,-0.021
16.845,-0.026
16.850,-0.030
16.855,-0.030
16.860,-0.030
16.865,-0.029
16.870,-0.031
16.875,-0.033
16.880,-0.035
16.885,-0.039
16.890,-0.043
16.895,-0.044
16.900,-0.041
16.905,-0.038
16.910,-0.039
16.915,-0.044
16.920,-0.046
16.925,-0.046
16.930,-0.044
16.935,-0.044
16.940,-0.047
16.945,-0.050
16.950,-0.051
16.955,-0.052
16.960,-0.052
16.965,-0.054
16.970,-0.055
16.975,-0.053
16.980,-0.049
16.985,-0.045
16.990,-0.048
16.995,-0.054
17.000,-0.055
17.005,-0.051
17.010,-0.043
17.015,-0.048
17.020,-0.070
17.025,-0.096
17.030,-0.106
17.035,-0.089
17.040,-0.062
17.045,-0.058
17.050,-0.085
17.055,-0.101
17.060,-0.080
17.065,-0.048
17.070,-0.028
17.075,-0.023
17.080,-0.021
17.085,-0.018
17.090,-0.022
17.095,-0.023
17.100,-0.013
17.105,-0.001
17.110,0.002
17.115,0.000
17.120,-0.001
17.125,-0.006
17.130,-0.010
17.135,-0.009
17.140,-0.008
17.145,-0.011
17.150,-0.016
17.155,-0.017
17.160,-0.016
17.165,-0.016
17.170,-0.017
17.175,-0.021
17.180,-0.023
17.185,-0.023
17.190,-0.029
17.195,-0.036
17.200,-0.040
17.205,-0.039
17.210,-0.038
17.215,-0.035
17.220,-0.016
17.225,-0.002
17.230,-0.053
17.235,-0.179
17.240,-0.365
17.245,-0.606
17.250,-0.890
17.255,-1.133
17.260,-1.161
17.265,-0.820
17.270,-0.198
17.275,0.362
17.280,0.619
17.285,0.623
17.290,0.528
17.295,0.429
17.300,0.334
17.305,0.245
17.310,0.190
17.315,0.165
17.320,0.141
17.325,0.125
17.330,0.121
17.335,0.111
17.340,0.097
17.345,0.096
17.350,0.099
17.355,0.091
17.360,0.086
17.365,0.085
17.370,0.080
17.375,0.075
17.380,0.072
17.385,0.070
17.390,0.068
17.395,0.067
17.400,0.063
17.405,0.054
17.410,0.049
17.415,0.046
17.420,0.042
17.425,0.036
17.430,0.029
17.435,0.024
17.440,0.019
17.445,0.011
17.450,0.002
17.455,-0.004
17.460,-0.010
17.465,-0.019
17.470,-0.032
17.475,-0.046
17.480,-0.057
17.485,-0.069
17.490,-0.087
17.495,-0.108
17.500,-0.133
17.505,-0.158
17.510,-0.182
17.515,-0.204
17.520,-0.221
17.525,-0.241
17.530,-0.260
17.535,-0.275
17.540,-0.288
17.545,-0.295
17.550,-0.296
17.555,-0.295
17.560,-0.285
17.565,-0.260
17.570,-0.222
17.575,-0.180
17.580,-0.132
17.585,-0.079
17.590,-0.023
17.595,0.033
17.600,0.085
17.605,0.135
17.610,0.181
17.615,0.214
17.620,0.237
17.625,0.259
17.630,0.278
17.635,0.288
17.640,0.292
17.645,0.290
17.650,0.284
17.655,0.280
17.660,0.272
17.665,0.263
17.670,0.256
17.675,0.250
17.680,0.246
17.685,0.239
17.690,0.224
17.695,0.211
17.700,0.206
17.705,0.202
17.710,0.194
17.715,0.181
17.720,0.173
17.725,0.168
17.730,0.163
17.735,0.154
17.740,0.143
17.745,0.134
17.750,0.125
17.755,0.114
17.760,0.102
17.765,0.093
17.770,0.083
17.775,0.070
17.780,0.060
17.785,0.057
17.790,0.052
17.795,0.040
17.800,0.028
17.805,0.023
17.810,0.017
17.815,0.008
17.820,0.002
17.825,-0.001
17.830,-0.004
17.835,-0.006
17.840,-0.007
17.845,-0.007
17.850,-0.011
17.855,-0.017
17.860,-0.019
17.865,-0.021
17.870,-0.023
17.875,-0.021
17.880,-0.018
17.885,-0.016
17.890,-0.019
17.895,-0.025
17.900,-0.027
17.905,-0.027
17.910,-0.028
17.915,-0.027
17.920,-0.029
17.925,-0.031
17.930,-0.033
17.935,-0.035
17.940,-0.036
17.945,-0.038
17.950,-0.041
17.955,-0.041
17.960,-0.042
17.965,-0.044
17.970,-0.045
17.975,-0.045
17.980,-0.044
17.985,-0.044
17.990,-0.047
17.995,-0.048
18.000,-0.047
18.005,-0.047
18.010,-0.046
18.015,-0.045
18.020,-0.045
18.025,-0.044
18.030,-0.049
18.035,-0.053
18.040,-0.051
18.045,-0.045
18.050,-0.044
18.055,-0.059
18.060,-0.087
18.065,-0.101
18.070,-0.087
18.075,-0.059
18.080,-0.048
18.085,-0.070
18.090,-0.091
18.095,-0.078
18.100,-0.048
18.105,-0.030
18.110,-0.025
18.115,-0.022
18.120,-0.017
18.125,-0.018
18.130,-0.022
18.135,-0.015
18.140,0.000
18.145,0.004
18.150,0.000
18.155,0.002
18.160,0.000
18.165,-0.005
18.170,-0.005
18.175,-0.006
18.180,-0.009
18.185,-0.011
18.190,-0.014
18.195,-0.017
18.200,-0.018
18.205,-0.019
18.210,-0.019
18.215,-0.021
18.220,-0.023
18.225,-0.026
18.230,-0.029
18.235,-0.032
18.240,-0.035
18.245,-0.037
18.250,-0.038
18.255,-0.028
18.260,-0.006
18.265,-0.025
18.270,-0.120
18.275,-0.282
18.280,-0.501
18.285,-0.774
18.290,-1.062
18.295,-1.210
18.300,-1.030
18.305,-0.484
18.310,0.164
18.315,0.562
18.320,0.654
18.325,0.578
18.330,0.471
18.335,0.377
18.340,0.282
18.345,0.211
18.350,0.180
18.355,0.157
18.360,0.135
18.365,0.129
18.370,0.127
18.375,0.112
18.380,0.103
18.385,0.103
18.390,0.097
18.395,0.087
18.400,0.086
18.405,0.083
18.410,0.079
18.415,0.078
18.420,0.076
18.425,0.070
18.430,0.064
18.435,0.059
18.440,0.055
18.445,0.052
18.450,0.048
18.455,0.044
18.460,0.041
18.465,0.035
18.470,0.029
18.475,0.022
18.480,0.014
18.485,0.008
18.490,0.003
18.495,-0.005
18.500,-0.015
18.505,-0.026
18.510,-0.038
18.515,-0.050
18.520,-0.065
18.525,-0.083
18.530,-0.102
18.535,-0.122
18.540,-0.146
18.545,-0.170
18.550,-0.195
18.555,-0.219
18.560,-0.241
18.565,-0.258
18.570,-0.274
18.575,-0.289
18.580,-0.299
18.585,-0.302
18.590,-0.298
18.595,-0.289
18.600,-0.271
18.605,-0.245
18.610,-0.206
18.615,-0.157
18.620,-0.102
18.625,-0.046
18.630,0.012
18.635,0.068
18.640,0.120
18.645,0.166
18.650,0.205
18.655,0.236
18.660,0.259
18.665,0.275
18.670,0.287
18.675,0.292
18.680,0.293
18.685,0.291
18.690,0.287
18.695,0.281
18.700,0.274
18.705,0.264
18.710,0.254
18.715,0.245
18.720,0.235
18.725,0.226
18.730,0.215
18.735,0.205
18.740,0.198
18.745,0.190
18.750,0.183
18.755,0.176
18.760,0.166
18.765,0.157
18.770,0.150
18.775,0.142
18.780,0.133
18.785,0.123
18.790,0.115
18.795,0.108
18.800,0.098
18.805,0.089
18.810,0.080
18.815,0.072
18.820,0.064
18.825,0.054
18.830,0.045
18.835,0.038
18.840,0.030
18.845,0.023
18.850,0.016
18.855,0.010
18.860,0.004
18.865,0.000
18.870,-0.005
18.875,-0.010
18.880,-0.014
18.885,-0.016
18.890,-0.018
18.895,-0.019
18.900,-0.020
18.905,-0.021
18.910,-0.023
18.915,-0.024
18.920,-0.025
18.925,-0.026
18.930,-0.028
18.935,-0.028
18.940,-0.028
18.945,-0.030
18.950,-0.032
18.955,-0.032
18.960,-0.034
18.965,-0.037
18.970,-0.038
18.975,-0.038
18.980,-0.039
18.985,-0.039
18.990,-0.042
18.995,-0.043
19.000,-0.043
19.005,-0.044
19.010,-0.044
19.015,-0.044
19.020,-0.045
19.025,-0.045
19.030,-0.046
19.035,-0.047
19.040,-0.048
19.045,-0.048
19.050,-0.049
19.055,-0.050
19.060,-0.050
19.065,-0.051
19.070,-0.051
19.075,-0.052
19.080,-0.053
19.085,-0.053
19.090,-0.055
19.095,-0.055
19.100,-0.050
19.105,-0.045
19.110,-0.054
19.115,-0.081
19.120,-0.101
19.125,-0.098
19.130,-0.076
19.135,-0.054
19.140,-0.062
19.145,-0.088
19.150,-0.088
19.155,-0.059
19.160,-0.033
19.165,-0.021
19.170,-0.018
19.175,-0.014
19.180,-0.014
19.185,-0.023
19.190,-0.022
19.195,-0.004
19.200,0.008
19.205,0.008
19.210,0.005
19.215,0.003
19.220,-0.002
19.225,-0.005
19.230,-0.005
19.235,-0.006
19.240,-0.007
19.245,-0.009
19.250,-0.011
19.255,-0.014
19.260,-0.016
19.265,-0.019
19.270,-0.021
19.275,-0.023
19.280,-0.024
19.285,-0.027
19.290,-0.030
19.295,-0.032
19.300,-0.034
19.305,-0.036
19.310,-0.031
19.315,-0.012
19.320,-0.018
19.325,-0.100
19.330,-0.251
19.335,-0.451
19.340,-0.704
19.345,-1.003
19.350,-1.216
19.355,-1.136
19.360,-0.673
19.365,-0.021
19.370,0.466
19.375,0.645
19.380,0.608
19.385,0.491
19.390,0.378
19.395,0.286
19.400,0.222
19.405,0.189
19.410,0.168
19.415,0.147
19.420,0.137
19.425,0.135
19.430,0.124
19.435,0.115
19.440,0.113
19.445,0.108
19.450,0.100
19.455,0.097
19.460,0.093
19.465,0.087
19.470,0.084
19.475,0.082
19.480,0.076
19.485,0.073
19.490,0.069
19.495,0.065
19.500,0.060
19.505,0.055
19.510,0.051
19.515,0.047
19.520,0.041
19.525,0.036
19.530,0.030
19.535,0.023
19.540,0.016
19.545,0.009
19.550,0.000
19.555,-0.009
19.560,-0.019
19.565,-0.031
19.570,-0.043
19.575,-0.057
19.580,-0.075
19.585,-0.094
19.590,-0.113
19.595,-0.135
19.600,-0.159
19.605,-0.185
19.610,-0.209
19.615,-0.231
19.620,-0.251
19.625,-0.268
19.630,-0.282
19.635,-0.292
19.640,-0.297
19.645,-0.298
19.650,-0.292
19.655,-0.277
19.660,-0.253
19.665,-0.217
19.670,-0.171
19.675,-0.119
19.680,-0.063
19.685,-0.005
19.690,0.050
19.695,0.102
19.700,0.150
19.705,0.190
19.710,0.223
19.715,0.249
19.720,0.268
19.725,0.280
19.730,0.286
19.735,0.287
19.740,0.286
19.745,0.283
19.750,0.277
19.755,0.271
19.760,0.263
19.765,0.253
19.770,0.246
19.775,0.236
19.780,0.226
19.785,0.216
19.790,0.205
19.795,0.195
19.800,0.188
19.805,0.181
19.810,0.173
19.815,0.165
19.820,0.157
19.825,0.149
19.830,0.143
19.835,0.136
19.840,0.127
19.845,0.119
19.850,0.113
19.855,0.106
19.860,0.098
19.865,0.089
19.870,0.082
19.875,0.074
19.880,0.066
19.885,0.059
19.890,0.052
19.895,0.044
19.900,0.035
19.905,0.028
19.910,0.022
19.915,0.016
19.920,0.011
19.925,0.007
19.930,0.000
19.935,-0.005
19.940,-0.009
19.945,-0.012
19.950,-0.016
19.955,-0.018
19.960,-0.020
19.965,-0.022
19.970,-0.023
19.975,-0.025
19.980,-0.027
19.985,-0.029
19.990,-0.031
19.995,-0.032
20.000,-0.031
20.005,-0.032
20.010,-0.034
20.015,-0.035
20.020,-0.035
20.025,-0.036
20.030,-0.037
20.035,-0.037
20.040,-0.038
20.045,-0.040
20.050,-0.041
20.055,-0.041
20.060,-0.042
20.065,-0.042
20.070,-0.043
20.075,-0.045
20.080,-0.046
20.085,-0.047
20.090,-0.048
20.095,-0.047
20.100,-0.047
20.105,-0.048
20.110,-0.048
20.115,-0.049
20.120,-0.051
20.125,-0.050
20.130,-0.049
20.135,-0.051
20.140,-0.054
20.145,-0.053
20.150,-0.046
20.155,-0.042
20.160,-0.057
20.165,-0.085
20.170,-0.101
20.175,-0.095
20.180,-0.071
20.185,-0.052
20.190,-0.066
20.195,-0.091
20.200,-0.084
20.205,-0.053
20.210,-0.029
20.215,-0.020
20.220,-0.019
20.225,-0.015
20.230,-0.016
20.235,-0.024
20.240,-0.020
20.245,-0.002
20.250,0.007
20.255,0.006
20.260,0.005
20.265,0.001
20.270,-0.001
20.275,-0.003
20.280,-0.003
20.285,-0.003
20.290,-0.007
20.295,-0.011
20.300,-0.015
20.305,-0.017
20.310,-0.017
20.315,-0.017
20.320,-0.018
20.325,-0.021
20.330,-0.026
20.335,-0.029
20.340,-0.030
20.345,-0.033
20.350,-0.037
20.355,-0.040
20.360,-0.032
20.365,-0.013
20.370,-0.034
20.375,-0.134
20.380,-0.297
20.385,-0.510
20.390,-0.773
20.395,-1.060
20.400,-1.207
20.405,-1.025
20.410,-0.490
20.415,0.145
20.420,0.543
20.425,0.645
20.430,0.580
20.435,0.463
20.440,0.358
20.445,0.270
20.450,0.208
20.455,0.181
20.460,0.159
20.465,0.136
20.470,0.130
20.475,0.128
20.480,0.116
20.485,0.108
20.490,0.107
20.495,0.100
20.500,0.093
20.505,0.089
20.510,0.082
20.515,0.075
20.520,0.075
20.525,0.075
20.530,0.071
20.535,0.069
20.540,0.067
20.545,0.060
20.550,0.054
20.555,0.047
20.560,0.041
20.565,0.038
20.570,0.035
20.575,0.029
20.580,0.023
20.585,0.017
20.590,0.010
20.595,0.002
20.600,-0.008
20.605,-0.017
20.610,-0.028
20.615,-0.040
20.620,-0.050
20.625,-0.064
20.630,-0.080
20.635,-0.100
20.640,-0.123
20.645,-0.145
20.650,-0.170
20.655,-0.195
20.660,-0.216
20.665,-0.238
20.670,-0.259
20.675,-0.275
20.680,-0.285
20.685,-0.290
20.690,-0.294
20.695,-0.296
20.700,-0.290
20.705,-0.275
20.710,-0.249
20.715,-0.208
20.720,-0.159
20.725,-0.106
20.730,-0.050
20.735,0.007
20.740,0.064
20.745,0.115
20.750,0.158
20.755,0.196
20.760,0.225
20.765,0.245
20.770,0.263
20.775,0.277
20.780,0.283
20.785,0.286
20.790,0.284
20.795,0.279
20.800,0.273
20.805,0.265
20.810,0.257
20.815,0.250
20.820,0.242
20.825,0.230
20.830,0.220
20.835,0.212
20.840,0.203
20.845,0.193
20.850,0.185
20.855,0.175
20.860,0.166
20.865,0.160
20.870,0.154
20.875,0.149
20.880,0.141
20.885,0.131
20.890,0.123
20.895,0.117
20.900,0.111
20.905,0.103
20.910,0.092
20.915,0.081
20.920,0.073
20.925,0.067
20.930,0.062
20.935,0.056
20.940,0.045
20.945,0.036
20.950,0.030
20.955,0.023
20.960,0.015
20.965,0.009
20.970,0.006
20.975,0.003
20.980,-0.002
20.985,-0.009
20.990,-0.015
20.995,-0.015
21.000,-0.015
21.005,-0.019
21.010,-0.021
21.015,-0.023
21.020,-0.024
21.025,-0.026
21.030,-0.027
21.035,-0.031
21.040,-0.033
21.045,-0.032
21.050,-0.030
21.055,-0.029
21.060,-0.034
21.065,-0.039
21.070,-0.036
21.075,-0.033
21.080,-0.038
21.085,-0.044
21.090,-0.046
21.095,-0.044
21.100,-0.040
21.105,-0.040
21.110,-0.043
21.115,-0.045
21.120,-0.046
21.125,-0.049
21.130,-0.053
21.135,-0.056
21.140,-0.053
21.145,-0.051
21.150,-0.053
21.155,-0.052
21.160,-0.051
21.165,-0.051
21.170,-0.052
21.175,-0.055
21.180,-0.054
21.185,-0.044
21.190,-0.043
21.195,-0.062
21.200,-0.089
21.205,-0.101
21.210,-0.088
21.215,-0.062
21.220,-0.055
21.225,-0.081
21.230,-0.099
21.235,-0.079
21.240,-0.049
21.245,-0.029
21.250,-0.023
21.255,-0.022
21.260,-0.020
21.265,-0.024
21.270,-0.028
21.275,-0.017
21.280,-0.003
21.285,0.001
21.290,0.001
21.295,-0.001
21.300,-0.008
21.305,-0.010
21.310,-0.005
21.315,-0.004
21.320,-0.010
21.325,-0.015
21.330,-0.018
21.335,-0.018
21.340,-0.016
21.345,-0.017
21.350,-0.019
21.355,-0.023
21.360,-0.026
21.365,-0.027
21.370,-0.028
21.375,-0.030
21.380,-0.031
21.385,-0.033
21.390,-0.033
21.395,-0.020
21.400,-0.004
21.405,-0.046
21.410,-0.163
21.415,-0.338
21.420,-0.571
21.425,-0.850
21.430,-1.107
21.435,-1.173
21.440,-0.881
21.445,-0.276
21.450,0.320
21.455,0.621
21.460,0.645
21.465,0.550
21.470,0.444
21.475,0.349
21.480,0.254
21.485,0.194
21.490,0.173
21.495,0.149
21.500,0.124
21.505,0.118
21.510,0.113
21.515,0.104
21.520,0.102
21.525,0.098
21.530,0.088
21.535,0.083
21.540,0.083
21.545,0.079
21.550,0.074
21.555,0.070
21.560,0.065
21.565,0.062
21.570,0.061
21.575,0.056
21.580,0.049
21.585,0.047
21.590,0.046
21.595,0.043
21.600,0.034
21.605,0.029
21.610,0.027
21.615,0.022
21.620,0.014
21.625,0.008
21.630,0.002
21.635,-0.005
21.640,-0.016
21.645,-0.028
21.650,-0.039
21.655,-0.052
21.660,-0.071
21.665,-0.092
21.670,-0.112
21.675,-0.131
21.680,-0.152
21.685,-0.178
21.690,-0.204
21.695,-0.226
21.700,-0.246
21.705,-0.263
21.710,-0.278
21.715,-0.289
21.720,-0.297
21.725,-0.298
21.730,-0.289
21.735,-0.275
21.740,-0.258
21.745,-0.231
21.750,-0.191
21.755,-0.141
21.760,-0.088
21.765,-0.031
21.770,0.028
21.775,0.082
21.780,0.129
21.785,0.171
21.790,0.208
21.795,0.239
21.800,0.260
21.805,0.273
21.810,0.280
21.815,0.286
21.820,0.289
21.825,0.288
21.830,0.284
21.835,0.278
21.840,0.270
21.845,0.261
21.850,0.251
21.855,0.243
21.860,0.235
21.865,0.226
21.870,0.217
21.875,0.209
21.880,0.200
21.885,0.191
21.890,0.184
21.895,0.179
21.900,0.172
21.905,0.164
21.910,0.154
21.915,0.143
21.920,0.133
21.925,0.123
21.930,0.114
21.935,0.107
21.940,0.098
21.945,0.089
21.950,0.082
21.955,0.073
21.960,0.061
21.965,0.052
21.970,0.045
21.975,0.038
21.980,0.031
21.985,0.024
21.990,0.013
21.995,0.005
22.000,0.001
22.005,0.000
22.010,-0.001
22.015,-0.005
22.020,-0.008
22.025,-0.009
22.030,-0.011
22.035,-0.013
22.040,-0.016
22.045,-0.018
22.050,-0.020
22.055,-0.023
22.060,-0.024
22.065,-0.025
22.070,-0.026
22.075,-0.027
22.080,-0.028
22.085,-0.028
22.090,-0.027
22.095,-0.026
22.100,-0.028
22.105,-0.030
22.110,-0.032
22.115,-0.035
22.120,-0.035
22.125,-0.034
22.130,-0.035
22.135,-0.038
22.140,-0.041
22.145,-0.043
22.150,-0.041
22.155,-0.040
22.160,-0.041
22.165,-0.041
22.170,-0.041
22.175,-0.041
22.180,-0.043
22.185,-0.045
22.190,-0.044
22.195,-0.044
22.200,-0.046
22.205,-0.048
22.210,-0.046
22.215,-0.040
22.220,-0.039
22.225,-0.057
22.230,-0.085
22.235,-0.099
22.240,-0.088
22.245,-0.061
22.250,-0.048
22.255,-0.069
22.260,-0.090
22.265,-0.075
22.270,-0.043
22.275,-0.023
22.280,-0.016
22.285,-0.012
22.290,-0.010
22.295,-0.015
22.300,-0.023
22.305,-0.014
22.310,0.004
22.315,0.010
22.320,0.009
22.325,0.008
22.330,0.004
22.335,0.000
22.340,-0.002
22.345,-0.004
22.350,-0.006
22.355,-0.009
22.360,-0.011
22.365,-0.012
22.370,-0.013
22.375,-0.014
22.380,-0.017
22.385,-0.021
22.390,-0.023
22.395,-0.025
22.400,-0.030
22.405,-0.031
22.410,-0.032
22.415,-0.035
22.420,-0.037
22.425,-0.025
22.430,-0.008
22.435,-0.038
22.440,-0.146
22.445,-0.315
22.450,-0.539
22.455,-0.819
22.460,-1.107
22.465,-1.228
22.470,-0.999
22.475,-0.426
22.480,0.207
22.485,0.575
22.490,0.649
22.495,0.569
22.500,0.453
22.505,0.353
22.510,0.264
22.515,0.205
22.520,0.179
22.525,0.156
22.530,0.134
22.535,0.131
22.540,0.128
22.545,0.114
22.550,0.107
22.555,0.103
22.560,0.095
22.565,0.088
22.570,0.086
22.575,0.081
22.580,0.075
22.585,0.073
22.590,0.072
22.595,0.066
22.600,0.060
22.605,0.057
22.610,0.053
22.615,0.048
22.620,0.044
22.625,0.039
22.630,0.034
22.635,0.031
22.640,0.024
22.645,0.017
22.650,0.011
22.655,0.003
22.660,-0.006
22.665,-0.014
22.670,-0.021
22.675,-0.032
22.680,-0.045
22.685,-0.059
22.690,-0.075
22.695,-0.093
22.700,-0.113
22.705,-0.134
22.710,-0.158
22.715,-0.183
22.720,-0.208
22.725,-0.232
22.730,-0.254
22.735,-0.273
22.740,-0.289
22.745,-0.303
22.750,-0.312
22.755,-0.314
22.760,-0.310
22.765,-0.300
22.770,-0.279
22.775,-0.249
22.780,-0.208
22.785,-0.159
22.790,-0.103
22.795,-0.044
22.800,0.015
22.805,0.071
22.810,0.123
22.815,0.168
22.820,0.205
22.825,0.235
22.830,0.257
22.835,0.273
22.840,0.282
22.845,0.287
22.850,0.289
22.855,0.286
22.860,0.281
22.865,0.275
22.870,0.269
22.875,0.260
22.880,0.249
22.885,0.239
22.890,0.229
22.895,0.220
22.900,0.210
22.905,0.201
22.910,0.193
22.915,0.185
22.920,0.177
22.925,0.169
22.930,0.161
22.935,0.154
22.940,0.146
22.945,0.136
22.950,0.129
22.955,0.123
22.960,0.115
22.965,0.108
22.970,0.100
22.975,0.092
22.980,0.084
22.985,0.077
22.990,0.069
22.995,0.061
23.000,0.054
23.005,0.047
23.010,0.040
23.015,0.032
23.020,0.025
23.025,0.018
23.030,0.013
23.035,0.008
23.040,0.002
23.045,-0.003
23.050,-0.006
23.055,-0.009
23.060,-0.012
23.065,-0.014
23.070,-0.017
23.075,-0.021
23.080,-0.023
23.085,-0.024
23.090,-0.024
23.095,-0.026
23.100,-0.027
23.105,-0.028
23.110,-0.029
23.115,-0.031
23.120,-0.031
23.125,-0.032
23.130,-0.033
23.135,-0.036
23.140,-0.039
23.145,-0.039
23.150,-0.039
23.155,-0.039
23.160,-0.039
23.165,-0.041
23.170,-0.044
23.175,-0.046
23.180,-0.046
23.185,-0.047
23.190,-0.047
23.195,-0.048
23.200,-0.050
23.205,-0.053
23.210,-0.054
23.215,-0.055
23.220,-0.052
23.225,-0.051
23.230,-0.053
23.235,-0.054
23.240,-0.053
23.245,-0.052
23.250,-0.053
23.255,-0.055
23.260,-0.054
23.265,-0.048
23.270,-0.049
23.275,-0.070
23.280,-0.097
23.285,-0.106
23.290,-0.089
23.295,-0.062
23.300,-0.056
23.305,-0.080
23.310,-0.094
23.315,-0.072
23.320,-0.042
23.325,-0.024
23.330,-0.021
23.335,-0.019
23.340,-0.015
23.345,-0.021
23.350,-0.025
23.355,-0.013
23.360,0.005
23.365,0.010
23.370,0.008
23.375,0.007
23.380,0.005
23.385,0.003
23.390,0.002
23.395,-0.001
23.400,-0.003
23.405,-0.005
23.410,-0.005
23.415,-0.006
23.420,-0.008
23.425,-0.011
23.430,-0.013
23.435,-0.015
23.440,-0.017
23.445,-0.021
23.450,-0.024
23.455,-0.026
23.460,-0.029
23.465,-0.033
23.470,-0.031
23.475,-0.016
23.480,-0.005
23.485,-0.055
23.490,-0.180
23.495,-0.359
23.500,-0.590
23.505,-0.871
23.510,-1.140
23.515,-1.204
23.520,-0.897
23.525,-0.287
23.530,0.307
23.535,0.611
23.540,0.644
23.545,0.550
23.550,0.428
23.555,0.326
23.560,0.247
23.565,0.200
23.570,0.179
23.575,0.157
23.580,0.140
23.585,0.138
23.590,0.131
23.595,0.118
23.600,0.115
23.605,0.112
23.610,0.104
23.615,0.099
23.620,0.098
23.625,0.092
23.630,0.086
23.635,0.083
23.640,0.079
23.645,0.073
23.650,0.070
23.655,0.067
23.660,0.062
23.665,0.058
23.670,0.054
23.675,0.048
23.680,0.042
23.685,0.036
23.690,0.031
23.695,0.024
23.700,0.017
23.705,0.010
23.710,0.002
23.715,-0.009
23.720,-0.017
23.725,-0.027
23.730,-0.040
23.735,-0.054
23.740,-0.069
23.745,-0.087
23.750,-0.106
23.755,-0.129
23.760,-0.153
23.765,-0.177
23.770,-0.203
23.775,-0.226
23.780,-0.247
23.785,-0.266
23.790,-0.282
23.795,-0.295
23.800,-0.302
23.805,-0.303
23.810,-0.299
23.815,-0.288
23.820,-0.267
23.825,-0.235
23.830,-0.194
23.835,-0.145
23.840,-0.090
23.845,-0.034
23.850,0.022
23.855,0.078
23.860,0.128
23.865,0.172
23.870,0.207
23.875,0.235
23.880,0.257
23.885,0.273
23.890,0.283
23.895,0.287
23.900,0.288
23.905,0.285
23.910,0.280
23.915,0.274
23.920,0.267
23.925,0.258
23.930,0.248
23.935,0.238
23.940,0.228
23.945,0.219
23.950,0.209
23.955,0.200
23.960,0.192
23.965,0.185
23.970,0.176
23.975,0.165
23.980,0.157
23.985,0.151
23.990,0.144
23.995,0.137
24.000,0.129
24.005,0.121
24.010,0.114
24.015,0.105
24.020,0.097
24.025,0.091
24.030,0.083
24.035,0.077
24.040,0.070
24.045,0.062
24.050,0.054
24.055,0.046
24.060,0.037
24.065,0.031
24.070,0.026
24.075,0.020
24.080,0.014
24.085,0.008
24.090,0.002
24.095,-0.003
24.100,-0.009
24.105,-0.013
24.110,-0.016
24.115,-0.017
24.120,-0.016
24.125,-0.017
24.130,-0.020
24.135,-0.022
24.140,-0.025
24.145,-0.026
24.150,-0.025
24.155,-0.025
24.160,-0.026
24.165,-0.026
24.170,-0.027
24.175,-0.030
24.180,-0.034
24.185,-0.036
24.190,-0.038
24.195,-0.042
24.200,-0.043
24.205,-0.044
24.210,-0.046
24.215,-0.047
24.220,-0.046
24.225,-0.046
24.230,-0.046
24.235,-0.048
24.240,-0.049
24.245,-0.049
24.250,-0.050
24.255,-0.051
24.260,-0.053
24.265,-0.055
24.270,-0.056
24.275,-0.053
24.280,-0.053
24.285,-0.055
24.290,-0.057
24.295,-0.057
24.300,-0.057
24.305,-0.054
24.310,-0.050
24.315,-0.058
24.320,-0.081
24.325,-0.104
24.330,-0.106
24.335,-0.084
24.340,-0.059
24.345,-0.059
24.350,-0.084
24.355,-0.090
24.360,-0.063
24.365,-0.033
24.370,-0.019
24.375,-0.019
24.380,-0.018
24.385,-0.016
24.390,-0.021
24.395,-0.019
24.400,-0.002
24.405,0.012
24.410,0.012
24.415,0.009
24.420,0.010
24.425,0.007
24.430,0.004
24.435,0.004
24.440,0.003
24.445,0.000
24.450,-0.004
24.455,-0.006
24.460,-0.009
24.465,-0.010
24.470,-0.011
24.475,-0.012
24.480,-0.014
24.485,-0.019
24.490,-0.024
24.495,-0.027
24.500,-0.030
24.505,-0.032
24.510,-0.033
24.515,-0.029
24.520,-0.010
24.525,-0.009
24.530,-0.079
24.535,-0.217
24.540,-0.404
24.545,-0.646
24.550,-0.934
24.555,-1.162
24.560,-1.136
24.565,-0.732
24.570,-0.096
24.575,0.420
24.580,0.634
24.585,0.618
24.590,0.513
24.595,0.405
24.600,0.308
24.605,0.229
24.610,0.183
24.615,0.158
24.620,0.133
24.625,0.120
24.630,0.122
24.635,0.115
24.640,0.101
24.645,0.096
24.650,0.095
24.655,0.090
24.660,0.088
24.665,0.085
24.670,0.076
24.675,0.069
24.680,0.068
24.685,0.066
24.690,0.062
24.695,0.058
24.700,0.051
24.705,0.047
24.710,0.047
24.715,0.042
24.720,0.032
24.725,0.026
24.730,0.023
24.735,0.021
24.740,0.018
24.745,0.008
24.750,-0.002
24.755,-0.010
24.760,-0.020
24.765,-0.026
24.770,-0.035
24.775,-0.047
24.780,-0.060
24.785,-0.076
24.790,-0.098
24.795,-0.120
24.800,-0.139
24.805,-0.160
24.810,-0.183
24.815,-0.207
24.820,-0.231
24.825,-0.251
24.830,-0.269
24.835,-0.284
24.840,-0.294
24.845,-0.298
24.850,-0.300
24.855,-0.297
24.860,-0.282
24.865,-0.257
24.870,-0.224
24.875,-0.182
24.880,-0.133
24.885,-0.077
24.890,-0.022
24.895,0.035
24.900,0.090
24.905,0.140
24.910,0.181
24.915,0.214
24.920,0.241
24.925,0.263
24.930,0.275
24.935,0.282
24.940,0.286
24.945,0.287
24.950,0.284
24.955,0.277
24.960,0.268
24.965,0.260
24.970,0.253
24.975,0.245
24.980,0.236
24.985,0.227
24.990,0.219
24.995,0.211
25.000,0.202
25.005,0.190
25.010,0.180
25.015,0.176
25.020,0.175
25.025,0.168
25.030,0.158
25.035,0.149
25.040,0.142
25.045,0.132
25.050,0.123
25.055,0.114
25.060,0.104
25.065,0.095
25.070,0.091
25.075,0.084
25.080,0.070
25.085,0.057
25.090,0.048
25.095,0.043
25.100,0.037
25.105,0.029
25.110,0.020
25.115,0.014
25.120,0.009
25.125,0.005
25.130,0.001
25.135,-0.003
25.140,-0.005
25.145,-0.008
25.150,-0.013
25.155,-0.019
25.160,-0.020
25.165,-0.017
25.170,-0.016
25.175,-0.019
25.180,-0.022
25.185,-0.026
25.190,-0.028
25.195,-0.028
25.200,-0.028
25.205,-0.029
25.210,-0.029
25.215,-0.031
25.220,-0.034
25.225,-0.035
25.230,-0.036
25.235,-0.036
25.240,-0.037
25.245,-0.043
25.250,-0.045
25.255,-0.040
25.260,-0.037
25.265,-0.039
25.270,-0.045
25.275,-0.049
25.280,-0.050
25.285,-0.048
25.290,-0.046
25.295,-0.048
25.300,-0.049
25.305,-0.051
25.310,-0.053
25.315,-0.051
25.320,-0.052
25.325,-0.057
25.330,-0.054
25.335,-0.045
25.340,-0.042
25.345,-0.058
25.350,-0.088
25.355,-0.106
25.360,-0.094
25.365,-0.064
25.370,-0.049
25.375,-0.070
25.380,-0.096
25.385,-0.083
25.390,-0.049
25.395,-0.024
25.400,-0.019
25.405,-0.021
25.410,-0.020
25.415,-0.022
25.420,-0.022
25.425,-0.014
25.430,0.003
25.435,0.009
25.440,0.002
25.445,-0.002
25.450,-0.003
25.455,-0.004
25.460,-0.003
25.465,-0.004
25.470,-0.007
25.475,-0.008
25.480,-0.011
25.485,-0.017
25.490,-0.020
25.495,-0.020
25.500,-0.018
25.505,-0.015
25.510,-0.018
25.515,-0.026
25.520,-0.032
25.525,-0.034
25.530,-0.037
25.535,-0.038
25.540,-0.036
25.545,-0.020
25.550,0.003
25.555,-0.027
25.560,-0.136
25.565,-0.309
25.570,-0.538
25.575,-0.814
25.580,-1.087
25.585,-1.195
25.590,-0.958
25.595,-0.375
25.600,0.254
25.605,0.604
25.610,0.659
25.615,0.569
25.620,0.462
25.625,0.368
25.630,0.273
25.635,0.206
25.640,0.177
25.645,0.151
25.650,0.127
25.655,0.122
25.660,0.118
25.665,0.104
25.670,0.096
25.675,0.095
25.680,0.090
25.685,0.085
25.690,0.083
25.695,0.078
25.700,0.072
25.705,0.070
25.710,0.068
25.715,0.062
25.720,0.060
25.725,0.059
25.730,0.056
25.735,0.051
25.740,0.047
25.745,0.040
25.750,0.036
25.755,0.032
25.760,0.026
25.765,0.019
25.770,0.012
25.775,0.004
25.780,-0.002
25.785,-0.009
25.790,-0.019
25.795,-0.029
25.800,-0.038
25.805,-0.052
25.810,-0.069
25.815,-0.086
25.820,-0.104
25.825,-0.124
25.830,-0.148
25.835,-0.173
25.840,-0.198
25.845,-0.222
25.850,-0.243
25.855,-0.261
25.860,-0.277
25.865,-0.291
25.870,-0.298
25.875,-0.301
25.880,-0.299
25.885,-0.288
25.890,-0.267
25.895,-0.237
25.900,-0.196
25.905,-0.149
25.910,-0.096
25.915,-0.039
25.920,0.019
25.925,0.076
25.930,0.128
25.935,0.171
25.940,0.207
25.945,0.239
25.950,0.262
25.955,0.277
25.960,0.286
25.965,0.291
25.970,0.292
25.975,0.289
25.980,0.284
25.985,0.279
25.990,0.274
25.995,0.265
26.000,0.254
26.005,0.245
26.010,0.238
26.015,0.230
26.020,0.221
26.025,0.212
26.030,0.204
26.035,0.197
26.040,0.189
26.045,0.180
26.050,0.173
26.055,0.164
26.060,0.154
26.065,0.145
26.070,0.139
26.075,0.131
26.080,0.122
26.085,0.111
26.090,0.102
26.095,0.093
26.100,0.083
26.105,0.073
26.110,0.064
26.115,0.057
26.120,0.049
26.125,0.041
26.130,0.032
26.135,0.023
26.140,0.016
26.145,0.009
26.150,0.003
26.155,-0.001
26.160,-0.005
26.165,-0.008
26.170,-0.010
26.175,-0.012
26.180,-0.012
26.185,-0.013
26.190,-0.016
26.195,-0.017
26.200,-0.015
26.205,-0.015
26.210,-0.016
26.215,-0.017
26.220,-0.020
26.225,-0.020
26.230,-0.023
26.235,-0.024
26.240,-0.024
26.245,-0.026
26.250,-0.029
26.255,-0.030
26.260,-0.031
26.265,-0.032
26.270,-0.032
26.275,-0.033
26.280,-0.036
26.285,-0.038
26.290,-0.040
26.295,-0.040
26.300,-0.040
26.305,-0.042
26.310,-0.043
26.315,-0.043
26.320,-0.043
26.325,-0.043
26.330,-0.045
26.335,-0.047
26.340,-0.048
26.345,-0.049
26.350,-0.050
26.355,-0.050
26.360,-0.051
26.365,-0.052
26.370,-0.054
26.375,-0.052
26.380,-0.047
26.385,-0.050
26.390,-0.072
26.395,-0.098
26.400,-0.105
26.405,-0.086
26.410,-0.062
26.415,-0.060
26.420,-0.084
26.425,-0.096
26.430,-0.072
26.435,-0.043
26.440,-0.029
26.445,-0.024
26.450,-0.021
26.455,-0.018
26.460,-0.026
26.465,-0.030
26.470,-0.014
26.475,0.004
26.480,0.007
26.485,0.003
26.490,0.001
26.495,-0.002
26.500,-0.004
26.505,-0.005
26.510,-0.008
26.515,-0.011
26.520,-0.012
26.525,-0.012
26.530,-0.013
26.535,-0.016
26.540,-0.020
26.545,-0.022
26.550,-0.024
26.555,-0.025
26.560,-0.028
26.565,-0.032
26.570,-0.035
26.575,-0.039
26.580,-0.041
26.585,-0.038
26.590,-0.021
26.595,-0.014
26.600,-0.072
26.605,-0.203
26.610,-0.388
26.615,-0.627
26.620,-0.920
26.625,-1.183
26.630,-1.217
26.635,-0.866
26.640,-0.233
26.645,0.344
26.650,0.621
26.655,0.633
26.660,0.530
26.665,0.410
26.670,0.312
26.675,0.237
26.680,0.192
26.685,0.172
26.690,0.151
26.695,0.134
26.700,0.133
26.705,0.125
26.710,0.112
26.715,0.108
26.720,0.107
26.725,0.100
26.730,0.095
26.735,0.093
26.740,0.088
26.745,0.082
26.750,0.079
26.755,0.074
26.760,0.070
26.765,0.066
26.770,0.062
26.775,0.056
26.780,0.051
26.785,0.047
26.790,0.040
26.795,0.032
26.800,0.027
26.805,0.021
26.810,0.013
26.815,0.008
26.820,0.001
26.825,-0.006
26.830,-0.014
26.835,-0.025
26.840,-0.039
26.845,-0.051
26.850,-0.063
26.855,-0.077
26.860,-0.095
26.865,-0.115
26.870,-0.137
26.875,-0.160
26.880,-0.185
26.885,-0.209
26.890,-0.232
26.895,-0.255
26.900,-0.274
26.905,-0.288
26.910,-0.297
26.915,-0.303
26.920,-0.305
26.925,-0.303
26.930,-0.292
26.935,-0.269
26.940,-0.236
26.945,-0.193
26.950,-0.142
26.955,-0.087
26.960,-0.031
26.965,0.026
26.970,0.082
26.975,0.132
26.980,0.176
26.985,0.211
26.990,0.239
26.995,0.261
27.000,0.277
27.005,0.286
27.010,0.288
27.015,0.288
27.020,0.286
27.025,0.281
27.030,0.275
27.035,0.267
27.040,0.258
27.045,0.249
27.050,0.239
27.055,0.228
27.060,0.219
27.065,0.211
27.070,0.203
27.075,0.195
27.080,0.185
27.085,0.178
27.090,0.171
27.095,0.162
27.100,0.154
27.105,0.147
27.110,0.139
27.115,0.131
27.120,0.123
27.125,0.115
27.130,0.107
27.135,0.099
27.140,0.091
27.145,0.083
27.150,0.074
27.155,0.067
27.160,0.059
27.165,0.052
27.170,0.044
27.175,0.036
27.180,0.029
27.185,0.022
27.190,0.016
27.195,0.010
27.200,0.007
27.205,0.004
27.210,-0.002
27.215,-0.006
27.220,-0.007
27.225,-0.009
27.230,-0.011
27.235,-0.013
27.240,-0.015
27.245,-0.017
27.250,-0.019
27.255,-0.022
27.260,-0.023
27.265,-0.023
27.270,-0.023
27.275,-0.023
27.280,-0.025
27.285,-0.027
27.290,-0.029
27.295,-0.031
27.300,-0.033
27.305,-0.035
27.310,-0.038
27.315,-0.039
27.320,-0.040
27.325,-0.042
27.330,-0.042
27.335,-0.042
27.340,-0.043
27.345,-0.043
27.350,-0.045
27.355,-0.048
27.360,-0.049
27.365,-0.048
27.370,-0.047
27.375,-0.048
27.380,-0.048
27.385,-0.047
27.390,-0.048
27.395,-0.050
27.400,-0.051
27.405,-0.050
27.410,-0.051
27.415,-0.052
27.420,-0.051
27.425,-0.046
27.430,-0.046
27.435,-0.065
27.440,-0.093
27.445,-0.106
27.450,-0.091
27.455,-0.064
27.460,-0.055
27.465,-0.078
27.470,-0.096
27.475,-0.076
27.480,-0.045
27.485,-0.027
27.490,-0.022
27.495,-0.020
27.500,-0.016
27.505,-0.020
27.510,-0.024
27.515,-0.014
27.520,0.004
27.525,0.008
27.530,0.005
27.535,0.004
27.540,0.003
27.545,0.001
27.550,-0.002
27.555,-0.005
27.560,-0.007
27.565,-0.008
27.570,-0.010
27.575,-0.012
27.580,-0.013
27.585,-0.013
27.590,-0.015
27.595,-0.018
27.600,-0.020
27.605,-0.023
27.610,-0.028
27.615,-0.030
27.620,-0.031
27.625,-0.035
27.630,-0.035
27.635,-0.020
27.640,-0.007
27.645,-0.051
27.650,-0.170
27.655,-0.346
27.660,-0.575
27.665,-0.859
27.670,-1.137
27.675,-1.218
27.680,-0.934
27.685,-0.331
27.690,0.278
27.695,0.600
27.700,0.643
27.705,0.553
27.710,0.434
27.715,0.334
27.720,0.252
27.725,0.200
27.730,0.179
27.735,0.157
27.740,0.138
27.745,0.137
27.750,0.131
27.755,0.116
27.760,0.110
27.765,0.108
27.770,0.102
27.775,0.097
27.780,0.095
27.785,0.091
27.790,0.085
27.795,0.083
27.800,0.078
27.805,0.071
27.810,0.067
27.815,0.064
27.820,0.059
27.825,0.051
27.830,0.045
27.835,0.042
27.840,0.037
27.845,0.032
27.850,0.026
27.855,0.020
27.860,0.013
27.865,0.005
27.870,-0.003
27.875,-0.012
27.880,-0.023
27.885,-0.032
27.890,-0.043
27.895,-0.056
27.900,-0.072
27.905,-0.090
27.910,-0.109
27.915,-0.130
27.920,-0.154
27.925,-0.179
27.930,-0.202
27.935,-0.225
27.940,-0.246
27.945,-0.264
27.950,-0.279
27.955,-0.292
27.960,-0.302
27.965,-0.305
27.970,-0.302
27.975,-0.292
27.980,-0.273
27.985,-0.243
27.990,-0.200
27.995,-0.149
28.000,-0.092
28.005,-0.034
28.010,0.023
28.015,0.076
28.020,0.125
28.025,0.167
28.030,0.202
28.035,0.234
28.040,0.259
28.045,0.277
28.050,0.288
28.055,0.293
28.060,0.294
28.065,0.289
28.070,0.284
28.075,0.277
28.080,0.268
28.085,0.261
28.090,0.255
28.095,0.245
28.100,0.234
28.105,0.225
28.110,0.218
28.115,0.209
28.120,0.198
28.125,0.187
28.130,0.180
28.135,0.172
28.140,0.164
28.145,0.156
28.150,0.147
28.155,0.140
28.160,0.134
28.165,0.128
28.170,0.120
28.175,0.110
28.180,0.100
28.185,0.092
28.190,0.085
28.195,0.078
28.200,0.070
28.205,0.059
28.210,0.048
28.215,0.039
28.220,0.033
28.225,0.027
28.230,0.020
28.235,0.013
28.240,0.007
28.245,0.006
28.250,0.004
28.255,0.000
28.260,-0.005
28.265,-0.009
28.270,-0.011
28.275,-0.011
28.280,-0.012
28.285,-0.014
28.290,-0.017
28.295,-0.020
28.300,-0.022
28.305,-0.024
28.310,-0.025
28.315,-0.025
28.320,-0.024
28.325,-0.024
28.330,-0.025
28.335,-0.030
28.340,-0.034
28.345,-0.035
28.350,-0.035
28.355,-0.037
28.360,-0.042
28.365,-0.044
28.370,-0.041
28.375,-0.040
28.380,-0.042
28.385,-0.043
28.390,-0.043
28.395,-0.045
28.400,-0.047
28.405,-0.050
28.410,-0.050
28.415,-0.050
28.420,-0.051
28.425,-0.052
28.430,-0.050
28.435,-0.047
28.440,-0.048
28.445,-0.052
28.450,-0.057
28.455,-0.059
28.460,-0.058
28.465,-0.057
28.470,-0.051
28.475,-0.047
28.480,-0.060
28.485,-0.087
28.490,-0.105
28.495,-0.096
28.500,-0.069
28.505,-0.056
28.510,-0.078
28.515,-0.102
28.520,-0.088
28.525,-0.055
28.530,-0.033
28.535,-0.025
28.540,-0.022
28.545,-0.018
28.550,-0.021
28.555,-0.026
28.560,-0.018
28.565,0.000
28.570,0.007
28.575,0.004
28.580,0.003
28.585,0.003
28.590,-0.002
28.595,-0.007
28.600,-0.009
28.605,-0.011
28.610,-0.013
28.615,-0.014
28.620,-0.013
28.625,-0.015
28.630,-0.016
28.635,-0.017
28.640,-0.020
28.645,-0.021
28.650,-0.022
28.655,-0.024
28.660,-0.026
28.665,-0.031
28.670,-0.034
28.675,-0.033
28.680,-0.020
28.685,-0.003
28.690,-0.036
28.695,-0.140
28.700,-0.304
28.705,-0.525
28.710,-0.799
28.715,-1.077
28.720,-1.192
28.725,-0.964
28.730,-0.392
28.735,0.232
28.740,0.585
28.745,0.647
28.750,0.566
28.755,0.461
28.760,0.365
28.765,0.268
28.770,0.199
28.775,0.169
28.780,0.148
28.785,0.128
28.790,0.122
28.795,0.120
28.800,0.106
28.805,0.098
28.810,0.096
28.815,0.089
28.820,0.084
28.825,0.085
28.830,0.082
28.835,0.079
28.840,0.076
28.845,0.070
28.850,0.061
28.855,0.057
28.860,0.057
28.865,0.052
28.870,0.048
28.875,0.046
28.880,0.038
28.885,0.029
28.890,0.027
28.895,0.027
28.900,0.024
28.905,0.015
28.910,0.002
28.915,-0.005
28.920,-0.007
28.925,-0.014
28.930,-0.026
28.935,-0.039
28.940,-0.052
28.945,-0.065
28.950,-0.083
28.955,-0.107
28.960,-0.129
28.965,-0.150
28.970,-0.170
28.975,-0.193
28.980,-0.216
28.985,-0.240
28.990,-0.261
28.995,-0.277
29.000,-0.287
29.005,-0.292
29.010,-0.296
29.015,-0.295
29.020,-0.287
29.025,-0.269
29.030,-0.238
29.035,-0.193
29.040,-0.148
29.045,-0.099
29.050,-0.044
29.055,0.012
29.060,0.068
29.065,0.121
29.070,0.168
29.075,0.206
29.080,0.237
29.085,0.258
29.090,0.272
29.095,0.278
29.100,0.279
29.105,0.284
29.110,0.286
29.115,0.281
29.120,0.275
29.125,0.270
29.130,0.263
29.135,0.255
29.140,0.246
29.145,0.236
29.150,0.227
29.155,0.216
29.160,0.208
29.165,0.203
29.170,0.199
29.175,0.192
29.180,0.182
29.185,0.170
29.190,0.162
29.195,0.157
29.200,0.150
29.205,0.139
29.210,0.125
29.215,0.114
29.220,0.107
29.225,0.100
29.230,0.089
29.235,0.077
29.240,0.069
29.245,0.059
29.250,0.050
29.255,0.041
29.260,0.036
29.265,0.035
29.270,0.028
29.275,0.016
29.280,0.009
29.285,0.007
29.290,0.008
29.295,0.009
29.300,0.003
29.305,-0.005
29.310,-0.009
29.315,-0.011
29.320,-0.013
29.325,-0.018
29.330,-0.020
29.335,-0.017
29.340,-0.016
29.345,-0.017
29.350,-0.017
29.355,-0.018
29.360,-0.020
29.365,-0.020
29.370,-0.021
29.375,-0.024
29.380,-0.026
29.385,-0.027
29.390,-0.025
29.395,-0.025
29.400,-0.027
29.405,-0.029
29.410,-0.031
29.415,-0.033
29.420,-0.034
29.425,-0.035
29.430,-0.038
29.435,-0.039
29.440,-0.037
29.445,-0.035
29.450,-0.038
29.455,-0.042
29.460,-0.042
29.465,-0.039
29.470,-0.036
29.475,-0.036
29.480,-0.040
29.485,-0.044
29.490,-0.047
29.495,-0.045
29.500,-0.039
29.505,-0.040
29.510,-0.059
29.515,-0.088
29.520,-0.101
29.525,-0.089
29.530,-0.062
29.535,-0.051
29.540,-0.074
29.545,-0.095
29.550,-0.077
29.555,-0.045
29.560,-0.027
29.565,-0.022
29.570,-0.020
29.575,-0.016
29.580,-0.019
29.585,-0.024
29.590,-0.018
29.595,-0.003
29.600,0.001
29.605,-0.002
29.610,-0.001
29.615,-0.003
29.620,-0.008
29.625,-0.011
29.630,-0.015
29.635,-0.017
29.640,-0.018
29.645,-0.020
29.650,-0.019
29.655,-0.019
29.660,-0.023
29.665,-0.027
29.670,-0.030
29.675,-0.032
29.680,-0.032
29.685,-0.033
29.690,-0.035
29.695,-0.038
29.700,-0.043
29.705,-0.046
29.710,-0.033
29.715,-0.013
29.720,-0.045
29.725,-0.155
29.730,-0.330
29.735,-0.568
29.740,-0.853
29.745,-1.125
29.750,-1.216
29.755,-0.949
29.760,-0.348
29.765,0.273
29.770,0.601
29.775,0.640
29.780,0.548
29.785,0.443
29.790,0.350
29.795,0.255
29.800,0.193
29.805,0.167
29.810,0.139
29.815,0.114
29.820,0.110
29.825,0.108
29.830,0.097
29.835,0.091
29.840,0.090
29.845,0.084
29.850,0.080
29.855,0.078
29.860,0.072
29.865,0.067
29.870,0.067
29.875,0.064
29.880,0.059
29.885,0.054
29.890,0.051
29.895,0.050
29.900,0.046
29.905,0.043
29.910,0.038
29.915,0.032
29.920,0.028
29.925,0.025
29.930,0.020
29.935,0.014
29.940,0.007
29.945,-0.002
29.950,-0.012
29.955,-0.021
29.960,-0.030
29.965,-0.042
29.970,-0.056
29.975,-0.071
29.980,-0.087
29.985,-0.103
29.990,-0.125
29.995,-0.151
30.000,-0.176
30.005,-0.201
30.010,-0.225
30.015,-0.246
30.020,-0.264
30.025,-0.278
30.030,-0.292
30.035,-0.298
30.040,-0.299
30.045,-0.296
30.050,-0.286
30.055,-0.266
30.060,-0.236
30.065,-0.194
30.070,-0.144
30.075,-0.088
30.080,-0.029
30.085,0.028
30.090,0.082
30.095,0.133
30.100,0.178
30.105,0.215
30.110,0.244
30.115,0.266
30.120,0.282
30.125,0.292
30.130,0.297
30.135,0.297
30.140,0.295
30.145,0.292
30.150,0.287
30.155,0.279
30.160,0.270
30.165,0.259
30.170,0.250
30.175,0.241
30.180,0.231
30.185,0.223
30.190,0.215
30.195,0.207
30.200,0.200
30.205,0.191
30.210,0.181
30.215,0.172
30.220,0.164
30.225,0.156
30.230,0.147
30.235,0.138
30.240,0.128
30.245,0.119
30.250,0.110
30.255,0.101
30.260,0.092
30.265,0.083
30.270,0.071
30.275,0.060
30.280,0.052
30.285,0.045
30.290,0.039
30.295,0.032
30.300,0.025
30.305,0.018
30.310,0.012
30.315,0.005
30.320,0.000
30.325,-0.003
30.330,-0.006
30.335,-0.008
30.340,-0.008
30.345,-0.011
30.350,-0.016
30.355,-0.020
30.360,-0.021
30.365,-0.019
30.370,-0.020
30.375,-0.024
30.380,-0.027
30.385,-0.028
30.390,-0.030
30.395,-0.032
30.400,-0.032
30.405,-0.033
30.410,-0.034
30.415,-0.036
30.420,-0.037
30.425,-0.039
30.430,-0.041
30.435,-0.041
30.440,-0.043
30.445,-0.046
30.450,-0.047
30.455,-0.048
30.460,-0.047
30.465,-0.048
30.470,-0.049
30.475,-0.049
30.480,-0.051
30.485,-0.051
30.490,-0.051
30.495,-0.052
30.500,-0.052
30.505,-0.052
30.510,-0.053
30.515,-0.053
30.520,-0.054
30.525,-0.056
30.530,-0.056
30.535,-0.058
30.540,-0.060
30.545,-0.060
30.550,-0.055
30.555,-0.049
30.560,-0.061
30.565,-0.087
30.570,-0.107
30.575,-0.103
30.580,-0.078
30.585,-0.058
30.590,-0.069
30.595,-0.093
30.600,-0.088
30.605,-0.057
30.610,-0.034
30.615,-0.027
30.620,-0.024
30.625,-0.018
30.630,-0.018
30.635,-0.027
30.640,-0.026
30.645,-0.007
30.650,0.005
30.655,0.004
30.660,0.000
30.665,-0.003
30.670,-0.005
30.675,-0.007
30.680,-0.009
30.685,-0.012
30.690,-0.015
30.695,-0.017
30.700,-0.018
30.705,-0.021
30.710,-0.023
30.715,-0.024
30.720,-0.025
30.725,-0.027
30.730,-0.030
30.735,-0.033
30.740,-0.034
30.745,-0.035
30.750,-0.037
30.755,-0.038
30.760,-0.027
30.765,-0.006
30.770,-0.023
30.775,-0.118
30.780,-0.279
30.785,-0.491
30.790,-0.759
30.795,-1.058
30.800,-1.235
30.805,-1.092
30.810,-0.573
30.815,0.087
30.820,0.530
30.825,0.662
30.830,0.601
30.835,0.481
30.840,0.375
30.845,0.284
30.850,0.220
30.855,0.192
30.860,0.172
30.865,0.150
30.870,0.143
30.875,0.140
30.880,0.128
30.885,0.119
30.890,0.119
30.895,0.112
30.900,0.105
30.905,0.102
30.910,0.098
30.915,0.092
30.920,0.087
30.925,0.084
30.930,0.079
30.935,0.075
30.940,0.072
30.945,0.067
30.950,0.063
30.955,0.059
30.960,0.054
30.965,0.049
30.970,0.045
30.975,0.040
30.980,0.033
30.985,0.027
30.990,0.020
30.995,0.011
31.000,0.002
31.005,-0.007
31.010,-0.018
31.015,-0.030
31.020,-0.043
31.025,-0.058
31.030,-0.075
31.035,-0.096
31.040,-0.118
31.045,-0.142
31.050,-0.166
31.055,-0.191
31.060,-0.215
31.065,-0.237
31.070,-0.256
31.075,-0.274
31.080,-0.286
31.085,-0.295
31.090,-0.299
31.095,-0.299
31.100,-0.291
31.105,-0.274
31.110,-0.247
31.115,-0.211
31.120,-0.164
31.125,-0.109
31.130,-0.051
31.135,0.006
31.140,0.061
31.145,0.112
31.150,0.159
31.155,0.198
31.160,0.229
31.165,0.253
31.170,0.270
31.175,0.281
31.180,0.287
31.185,0.290
31.190,0.289
31.195,0.286
31.200,0.279
31.205,0.271
31.210,0.262
31.215,0.254
31.220,0.245
31.225,0.234
31.230,0.225
31.235,0.215
31.240,0.205
31.245,0.197
31.250,0.188
31.255,0.179
31.260,0.170
31.265,0.162
31.270,0.154
31.275,0.148
31.280,0.141
31.285,0.134
31.290,0.124
31.295,0.116
31.300,0.110
31.305,0.101
31.310,0.092
31.315,0.085
31.320,0.077
31.325,0.068
31.330,0.059
31.335,0.051
31.340,0.046
31.345,0.039
31.350,0.031
31.355,0.025
31.360,0.018
31.365,0.011
31.370,0.006
31.375,0.002
31.380,-0.001
31.385,-0.003
31.390,-0.006
31.395,-0.010
31.400,-0.013
31.405,-0.015
31.410,-0.016
31.415,-0.019
31.420,-0.022
31.425,-0.025
31.430,-0.026
31.435,-0.027
31.440,-0.027
31.445,-0.029
31.450,-0.030
31.455,-0.031
31.460,-0.033
31.465,-0.035
31.470,-0.036
31.475,-0.038
31.480,-0.039
31.485,-0.040
31.490,-0.042
31.495,-0.045
31.500,-0.045
31.505,-0.046
31.510,-0.047
31.515,-0.048
31.520,-0.049
31.525,-0.050
31.530,-0.051
31.535,-0.051
31.540,-0.051
31.545,-0.052
31.550,-0.054
31.555,-0.053
31.560,-0.053
31.565,-0.054
31.570,-0.055
31.575,-0.057
31.580,-0.058
31.585,-0.057
31.590,-0.057
31.595,-0.053
31.600,-0.048
31.605,-0.059
31.610,-0.085
31.615,-0.107
31.620,-0.107
31.625,-0.085
31.630,-0.063
31.635,-0.069
31.640,-0.095
31.645,-0.095
31.650,-0.065
31.655,-0.039
31.660,-0.028
31.665,-0.026
31.670,-0.022
31.675,-0.022
31.680,-0.031
31.685,-0.029
31.690,-0.011
31.695,0.002
31.700,0.002
31.705,0.000
31.710,-0.001
31.715,-0.003
31.720,-0.007
31.725,-0.009
31.730,-0.010
31.735,-0.011
31.740,-0.012
31.745,-0.013
31.750,-0.016
31.755,-0.018
31.760,-0.020
31.765,-0.023
31.770,-0.023
31.775,-0.024
31.780,-0.027
31.785,-0.031
31.790,-0.034
31.795,-0.036
31.800,-0.039
31.805,-0.034
31.810,-0.016
31.815,-0.023
31.820,-0.104
31.825,-0.254
31.830,-0.454
31.835,-0.706
31.840,-1.000
31.845,-1.206
31.850,-1.126
31.855,-0.665
31.860,-0.011
31.865,0.473
31.870,0.647
31.875,0.610
31.880,0.495
31.885,0.386
31.890,0.292
31.895,0.221
31.900,0.187
31.905,0.166
31.910,0.142
31.915,0.132
31.920,0.132
31.925,0.120
31.930,0.108
31.935,0.107
31.940,0.103
31.945,0.096
31.950,0.094
31.955,0.093
31.960,0.087
31.965,0.083
31.970,0.081
31.975,0.077
31.980,0.073
31.985,0.071
31.990,0.067
31.995,0.061
32.000,0.057
32.005,0.052
32.010,0.047
32.015,0.042
32.020,0.038
32.025,0.032
32.030,0.025
32.035,0.019
32.040,0.011
32.045,0.003
32.050,-0.006
32.055,-0.017
32.060,-0.029
32.065,-0.044
32.070,-0.058
32.075,-0.074
32.080,-0.093
32.085,-0.113
32.090,-0.135
32.095,-0.159
32.100,-0.182
32.105,-0.207
32.110,-0.230
32.115,-0.250
32.120,-0.268
32.125,-0.283
32.130,-0.293
32.135,-0.299
32.140,-0.299
32.145,-0.293
32.150,-0.278
32.155,-0.251
32.160,-0.214
32.165,-0.169
32.170,-0.118
32.175,-0.064
32.180,-0.007
32.185,0.048
32.190,0.100
32.195,0.146
32.200,0.188
32.205,0.224
32.210,0.250
32.215,0.268
32.220,0.278
32.225,0.283
32.230,0.288
32.235,0.290
32.240,0.288
32.245,0.282
32.250,0.273
32.255,0.266
32.260,0.260
32.265,0.250
32.270,0.240
32.275,0.230
32.280,0.221
32.285,0.211
32.290,0.202
32.295,0.192
32.300,0.183
32.305,0.175
32.310,0.168
32.315,0.162
32.320,0.154
32.325,0.145
32.330,0.138
32.335,0.130
32.340,0.119
32.345,0.109
32.350,0.103
32.355,0.097
32.360,0.087
32.365,0.079
32.370,0.072
32.375,0.064
32.380,0.056
32.385,0.049
32.390,0.041
32.395,0.033
32.400,0.026
32.405,0.020
32.410,0.016
32.415,0.010
32.420,0.004
32.425,0.000
32.430,-0.002
32.435,-0.005
32.440,-0.009
32.445,-0.014
32.450,-0.018
32.455,-0.019
32.460,-0.019
32.465,-0.021
32.470,-0.023
32.475,-0.025
32.480,-0.027
32.485,-0.027
32.490,-0.028
32.495,-0.031
32.500,-0.032
32.505,-0.031
32.510,-0.028
32.515,-0.028
32.520,-0.031
32.525,-0.033
32.530,-0.034
32.535,-0.035
32.540,-0.037
32.545,-0.040
32.550,-0.042
32.555,-0.043
32.560,-0.043
32.565,-0.043
32.570,-0.046
32.575,-0.049
32.580,-0.050
32.585,-0.046
32.590,-0.044
32.595,-0.047
32.600,-0.051
32.605,-0.053
32.610,-0.051
32.615,-0.047
32.620,-0.045
32.625,-0.049
32.630,-0.053
32.635,-0.054
32.640,-0.050
32.645,-0.046
32.650,-0.058
32.655,-0.084
32.660,-0.102
32.665,-0.098
32.670,-0.073
32.675,-0.054
32.680,-0.069
32.685,-0.094
32.690,-0.086
32.695,-0.054
32.700,-0.030
32.705,-0.021
32.710,-0.021
32.715,-0.018
32.720,-0.020
32.725,-0.027
32.730,-0.019
32.735,-0.002
32.740,0.006
32.745,0.004
32.750,0.004
32.755,0.002
32.760,-0.003
32.765,-0.005
32.770,-0.005
32.775,-0.007
32.780,-0.010
32.785,-0.012
32.790,-0.014
32.795,-0.016
32.800,-0.019
32.805,-0.022
32.810,-0.024
32.815,-0.026
32.820,-0.026
32.825,-0.029
32.830,-0.032
32.835,-0.036
32.840,-0.041
32.845,-0.044
32.850,-0.030
32.855,-0.007
32.860,-0.033
32.865,-0.132
32.870,-0.291
32.875,-0.501
32.880,-0.766
32.885,-1.051
32.890,-1.192
32.895,-1.002
32.900,-0.459
32.905,0.171
32.910,0.554
32.915,0.646
32.920,0.576
32.925,0.467
32.930,0.366
32.935,0.269
32.940,0.204
32.945,0.175
32.950,0.150
32.955,0.124
32.960,0.115
32.965,0.114
32.970,0.101
32.975,0.094
32.980,0.094
32.985,0.088
32.990,0.083
32.995,0.082
33.000,0.079
33.005,0.074
33.010,0.070
33.015,0.065
33.020,0.063
33.025,0.062
33.030,0.059
33.035,0.053
33.040,0.046
33.045,0.043
33.050,0.037
33.055,0.030
33.060,0.028
33.065,0.029
33.070,0.024
33.075,0.013
33.080,0.005
33.085,-0.002
33.090,-0.011
33.095,-0.025
33.100,-0.035
33.105,-0.043
33.110,-0.054
33.115,-0.068
33.120,-0.085
33.125,-0.106
33.130,-0.125
33.135,-0.144
33.140,-0.168
33.145,-0.193
33.150,-0.217
33.155,-0.240
33.160,-0.258
33.165,-0.274
33.170,-0.286
33.175,-0.292
33.180,-0.293
33.185,-0.289
33.190,-0.281
33.195,-0.266
33.200,-0.240
33.205,-0.202
33.210,-0.156
33.215,-0.105
33.220,-0.048
33.225,0.010
33.230,0.064
33.235,0.114
33.240,0.161
33.245,0.201
33.250,0.232
33.255,0.255
33.260,0.271
33.265,0.278
33.270,0.283
33.275,0.289
33.280,0.291
33.285,0.286
33.290,0.275
33.295,0.267
33.300,0.265
33.305,0.259
33.310,0.249
33.315,0.241
33.320,0.230
33.325,0.219
33.330,0.213
33.335,0.206
33.340,0.197
33.345,0.184
33.350,0.176
33.355,0.172
33.360,0.166
33.365,0.155
33.370,0.145
33.375,0.135
33.380,0.125
33.385,0.117
33.390,0.112
33.395,0.105
33.400,0.095
33.405,0.084
33.410,0.075
33.415,0.065
33.420,0.054
33.425,0.044
33.430,0.039
33.435,0.035
33.440,0.028
33.445,0.018
33.450,0.012
33.455,0.007
33.460,0.000
33.465,-0.004
33.470,-0.008
33.475,-0.008
33.480,-0.006
33.485,-0.006
33.490,-0.007
33.495,-0.011
33.500,-0.017
33.505,-0.021
33.510,-0.023
33.515,-0.026
33.520,-0.027
33.525,-0.026
33.530,-0.026
33.535,-0.026
33.540,-0.027
33.545,-0.030
33.550,-0.030
33.555,-0.028
33.560,-0.029
33.565,-0.031
33.570,-0.032
33.575,-0.035
33.580,-0.041
33.585,-0.042
33.590,-0.040
33.595,-0.040
33.600,-0.043
33.605,-0.044
33.610,-0.044
33.615,-0.042
33.620,-0.043
33.625,-0.046
33.630,-0.046
33.635,-0.048
33.640,-0.051
33.645,-0.047
33.650,-0.045
33.655,-0.047
33.660,-0.051
33.665,-0.052
33.670,-0.046
33.675,-0.042
33.680,-0.056
33.685,-0.084
33.690,-0.104
33.695,-0.099
33.700,-0.071
33.705,-0.051
33.710,-0.064
33.715,-0.093
33.720,-0.095
33.725,-0.064
33.730,-0.038
33.735,-0.027
33.740,-0.022
33.745,-0.019
33.750,-0.020
33.755,-0.027
33.760,-0.023
33.765,-0.007
33.770,0.005
33.775,0.003
33.780,-0.001
33.785,-0.005
33.790,-0.009
33.795,-0.009
33.800,-0.007
33.805,-0.010
33.810,-0.015
33.815,-0.016
33.820,-0.015
33.825,-0.016
33.830,-0.019
33.835,-0.021
33.840,-0.022
33.845,-0.022
33.850,-0.024
33.855,-0.030
33.860,-0.034
33.865,-0.036
33.870,-0.038
33.875,-0.041
33.880,-0.033
33.885,-0.010
33.890,-0.019
33.895,-0.103
33.900,-0.256
33.905,-0.466
33.910,-0.731
33.915,-1.020
33.920,-1.197
33.925,-1.075
33.930,-0.574
33.935,0.086
33.940,0.529
33.945,0.655
33.950,0.590
33.955,0.481
33.960,0.387
33.965,0.288
33.970,0.212
33.975,0.180
33.980,0.157
33.985,0.128
33.990,0.117
33.995,0.117
34.000,0.106
34.005,0.097
34.010,0.095
34.015,0.089
34.020,0.082
34.025,0.079
34.030,0.076
34.035,0.072
34.040,0.071
34.045,0.068
34.050,0.063
34.055,0.060
34.060,0.059
34.065,0.057
34.070,0.052
34.075,0.046
34.080,0.041
34.085,0.036
34.090,0.031
34.095,0.026
34.100,0.020
34.105,0.015
34.110,0.010
34.115,0.003
34.120,-0.007
34.125,-0.018
34.130,-0.031
34.135,-0.041
34.140,-0.052
34.145,-0.064
34.150,-0.080
34.155,-0.100
34.160,-0.121
34.165,-0.144
34.170,-0.168
34.175,-0.192
34.180,-0.216
34.185,-0.239
34.190,-0.260
34.195,-0.276
34.200,-0.287
34.205,-0.294
34.210,-0.298
34.215,-0.296
34.220,-0.287
34.225,-0.272
34.230,-0.245
34.235,-0.207
34.240,-0.161
34.245,-0.110
34.250,-0.057
34.255,-0.002
34.260,0.055
34.265,0.109
34.270,0.156
34.275,0.196
34.280,0.228
34.285,0.253
34.290,0.271
34.295,0.282
34.300,0.287
34.305,0.289
34.310,0.290
34.315,0.287
34.320,0.281
34.325,0.273
34.330,0.265
34.335,0.258
34.340,0.248
34.345,0.238
34.350,0.231
34.355,0.224
34.360,0.214
34.365,0.203
34.370,0.194
34.375,0.187
34.380,0.181
34.385,0.173
34.390,0.165
34.395,0.156
34.400,0.145
34.405,0.134
34.410,0.125
34.415,0.117
34.420,0.110
34.425,0.099
34.430,0.090
34.435,0.083
34.440,0.074
34.445,0.065
34.450,0.055
34.455,0.046
34.460,0.037
34.465,0.030
34.470,0.024
34.475,0.020
34.480,0.015
34.485,0.009
34.490,0.004
34.495,-0.001
34.500,-0.004
34.505,-0.006
34.510,-0.009
34.515,-0.014
34.520,-0.014
34.525,-0.013
34.530,-0.014
34.535,-0.016
34.540,-0.019
34.545,-0.019
34.550,-0.019
34.555,-0.020
34.560,-0.021
34.565,-0.022
34.570,-0.023
34.575,-0.025
34.580,-0.029
34.585,-0.029
34.590,-0.030
34.595,-0.031
34.600,-0.032
34.605,-0.033
34.610,-0.035
34.615,-0.036
34.620,-0.037
34.625,-0.038
34.630,-0.039
34.635,-0.040
34.640,-0.042
34.645,-0.043
34.650,-0.042
34.655,-0.043
34.660,-0.045
34.665,-0.046
34.670,-0.046
34.675,-0.046
34.680,-0.047
34.685,-0.047
34.690,-0.045
34.695,-0.045
34.700,-0.047
34.705,-0.049
34.710,-0.052
34.715,-0.051
34.720,-0.046
34.725,-0.044
34.730,-0.058
34.735,-0.085
34.740,-0.103
34.745,-0.096
34.750,-0.071
34.755,-0.054
34.760,-0.070
34.765,-0.092
34.770,-0.082
34.775,-0.051
34.780,-0.031
34.785,-0.025
34.790,-0.022
34.795,-0.017
34.800,-0.019
34.805,-0.026
34.810,-0.021
34.815,-0.001
34.820,0.008
34.825,0.006
34.830,0.003
34.835,0.000
34.840,-0.003
34.845,-0.004
34.850,-0.005
34.855,-0.007
34.860,-0.010
34.865,-0.012
34.870,-0.014
34.875,-0.016
34.880,-0.018
34.885,-0.020
34.890,-0.024
34.895,-0.028
34.900,-0.029
34.905,-0.030
34.910,-0.032
34.915,-0.035
34.920,-0.039
34.925,-0.041
34.930,-0.030
34.935,-0.010
34.940,-0.032
34.945,-0.132
34.950,-0.294
34.955,-0.503
34.960,-0.768
34.965,-1.061
34.970,-1.220
34.975,-1.047
34.980,-0.507
34.985,0.139
34.990,0.545
34.995,0.651
35.000,0.583
35.005,0.464
35.010,0.358
35.015,0.264
35.020,0.201
35.025,0.175
35.030,0.154
35.035,0.135
35.040,0.129
35.045,0.124
35.050,0.112
35.055,0.105
35.060,0.104
35.065,0.098
35.070,0.091
35.075,0.089
35.080,0.085
35.085,0.080
35.090,0.077
35.095,0.074
35.100,0.069
35.105,0.067
35.110,0.066
35.115,0.061
35.120,0.056
35.125,0.050
35.130,0.045
35.135,0.042
35.140,0.037
35.145,0.029
35.150,0.022
35.155,0.016
35.160,0.009
35.165,0.003
35.170,-0.005
35.175,-0.014
35.180,-0.025
35.185,-0.038
35.190,-0.051
35.195,-0.065
35.200,-0.083
35.205,-0.102
35.210,-0.123
35.215,-0.146
35.220,-0.170
35.225,-0.194
35.230,-0.219
35.235,-0.242
35.240,-0.261
35.245,-0.275
35.250,-0.287
35.255,-0.296
35.260,-0.300
35.265,-0.299
35.270,-0.290
35.275,-0.274
35.280,-0.248
35.285,-0.210
35.290,-0.162
35.295,-0.109
35.300,-0.052
35.305,0.005
35.310,0.061
35.315,0.111
35.320,0.156
35.325,0.195
35.330,0.226
35.335,0.251
35.340,0.268
35.345,0.278
35.350,0.284
35.355,0.286
35.360,0.286
35.365,0.281
35.370,0.275
35.375,0.269
35.380,0.261
35.385,0.251
35.390,0.241
35.395,0.232
35.400,0.222
35.405,0.213
35.410,0.204
35.415,0.196
35.420,0.188
35.425,0.180
35.430,0.172
35.435,0.164
35.440,0.156
35.445,0.149
35.450,0.143
35.455,0.135
35.460,0.124
35.465,0.116
35.470,0.108
35.475,0.101
35.480,0.094
35.485,0.086
35.490,0.078
35.495,0.069
35.500,0.063
35.505,0.056
35.510,0.047
35.515,0.038
35.520,0.031
35.525,0.024
35.530,0.017
35.535,0.012
35.540,0.009
35.545,0.005
35.550,0.001
35.555,-0.003
35.560,-0.007
35.565,-0.009
35.570,-0.013
35.575,-0.017
35.580,-0.019
35.585,-0.019
35.590,-0.020
35.595,-0.022
35.600,-0.023
35.605,-0.025
35.610,-0.026
35.615,-0.026
35.620,-0.027
35.625,-0.028
35.630,-0.030
35.635,-0.032
35.640,-0.033
35.645,-0.035
35.650,-0.036
35.655,-0.038
35.660,-0.039
35.665,-0.039
35.670,-0.040
35.675,-0.041
35.680,-0.042
35.685,-0.043
35.690,-0.044
35.695,-0.043
35.700,-0.043
35.705,-0.044
35.710,-0.046
35.715,-0.047
35.720,-0.046
35.725,-0.047
35.730,-0.048
35.735,-0.047
35.740,-0.047
35.745,-0.048
35.750,-0.047
35.755,-0.047
35.760,-0.049
35.765,-0.051
35.770,-0.050
35.775,-0.043
35.780,-0.043
35.785,-0.062
35.790,-0.091
35.795,-0.103
35.800,-0.089
35.805,-0.062
35.810,-0.052
35.815,-0.075
35.820,-0.092
35.825,-0.073
35.830,-0.042
35.835,-0.024
35.840,-0.018
35.845,-0.016
35.850,-0.012
35.855,-0.017
35.860,-0.023
35.865,-0.013
35.870,0.005
35.875,0.010
35.880,0.006
35.885,0.006
35.890,0.004
35.895,0.001
35.900,-0.001
35.905,-0.003
35.910,-0.006
35.915,-0.008
35.920,-0.011
35.925,-0.012
35.930,-0.013
35.935,-0.014
35.940,-0.015
35.945,-0.018
35.950,-0.020
35.955,-0.023
35.960,-0.027
35.965,-0.030
35.970,-0.030
35.975,-0.032
35.980,-0.033
35.985,-0.022
35.990,-0.007
35.995,-0.044
36.000,-0.156
36.005,-0.325
36.010,-0.546
36.015,-0.816
36.020,-1.094
36.025,-1.200
36.030,-0.955
36.035,-0.379
36.040,0.235
36.045,0.579
36.050,0.642
36.055,0.562
36.060,0.443
36.065,0.340
36.070,0.254
36.075,0.199
36.080,0.177
36.085,0.154
36.090,0.133
36.095,0.129
36.100,0.125
36.105,0.113
36.110,0.107
36.115,0.106
36.120,0.098
36.125,0.092
36.130,0.091
36.135,0.088
36.140,0.083
36.145,0.081
36.150,0.078
36.155,0.073
36.160,0.068
36.165,0.064
36.170,0.060
36.175,0.054
36.180,0.050
36.185,0.047
36.190,0.043
36.195,0.037
36.200,0.030
36.205,0.023
36.210,0.018
36.215,0.011
36.220,0.002
36.225,-0.006
36.230,-0.015
36.235,-0.024
36.240,-0.035
36.245,-0.049
36.250,-0.065
36.255,-0.084
36.260,-0.103
36.265,-0.124
36.270,-0.147
36.275,-0.172
36.280,-0.198
36.285,-0.222
36.290,-0.242
36.295,-0.260
36.300,-0.276
36.305,-0.289
36.310,-0.297
36.315,-0.299
36.320,-0.296
36.325,-0.287
36.330,-0.270
36.335,-0.242
36.340,-0.201
36.345,-0.152
36.350,-0.099
36.355,-0.043
36.360,0.013
36.365,0.067
36.370,0.119
36.375,0.164
36.380,0.201
36.385,0.231
36.390,0.253
36.395,0.269
36.400,0.281
36.405,0.286
36.410,0.287
36.415,0.286
36.420,0.282
36.425,0.275
36.430,0.267
36.435,0.259
36.440,0.250
36.445,0.241
36.450,0.232
36.455,0.223
36.460,0.214
36.465,0.206
36.470,0.198
36.475,0.190
36.480,0.180
36.485,0.172
36.490,0.164
36.495,0.157
36.500,0.150
36.505,0.143
36.510,0.134
36.515,0.126
36.520,0.120
36.525,0.113
36.530,0.105
36.535,0.096
36.540,0.086
36.545,0.078
36.550,0.070
36.555,0.063
36.560,0.053
36.565,0.044
36.570,0.037
36.575,0.030
36.580,0.025
36.585,0.018
36.590,0.012
36.595,0.008
36.600,0.003
36.605,-0.001
36.610,-0.005
36.615,-0.009
36.620,-0.012
36.625,-0.015
36.630,-0.017
36.635,-0.017
36.640,-0.019
36.645,-0.022
36.650,-0.023
36.655,-0.023
36.660,-0.023
36.665,-0.025
36.670,-0.026
36.675,-0.028
36.680,-0.031
36.685,-0.032
36.690,-0.033
36.695,-0.035
36.700,-0.035
36.705,-0.038
36.710,-0.039
36.715,-0.039
36.720,-0.041
36.725,-0.042
36.730,-0.043
36.735,-0.045
36.740,-0.045
36.745,-0.045
36.750,-0.046
36.755,-0.046
36.760,-0.046
36.765,-0.048
36.770,-0.048
36.775,-0.049
36.780,-0.050
36.785,-0.049
36.790,-0.049
36.795,-0.050
36.800,-0.051
36.805,-0.050
36.810,-0.050
36.815,-0.053
36.820,-0.055
36.825,-0.054
36.830,-0.048
36.835,-0.047
36.840,-0.063
36.845,-0.089
36.850,-0.103
36.855,-0.093
36.860,-0.068
36.865,-0.055
36.870,-0.075
36.875,-0.097
36.880,-0.083
36.885,-0.052
36.890,-0.033
36.895,-0.025
36.900,-0.020
36.905,-0.015
36.910,-0.018
36.915,-0.025
36.920,-0.016
36.925,0.003
36.930,0.008
36.935,0.005
36.940,0.002
36.945,-0.002
36.950,-0.005
36.955,-0.004
36.960,-0.005
36.965,-0.007
36.970,-0.009
36.975,-0.011
36.980,-0.013
36.985,-0.016
36.990,-0.017
36.995,-0.019
37.000,-0.021
37.005,-0.023
37.010,-0.025
37.015,-0.028
37.020,-0.030
37.025,-0.032
37.030,-0.036
37.035,-0.038
37.040,-0.029
37.045,-0.009
37.050,-0.032
37.055,-0.132
37.060,-0.296
37.065,-0.509
37.070,-0.770
37.075,-1.052
37.080,-1.192
37.085,-1.000
37.090,-0.458
37.095,0.169
37.100,0.551
37.105,0.644
37.110,0.576
37.115,0.458
37.120,0.354
37.125,0.262
37.130,0.199
37.135,0.174
37.140,0.153
37.145,0.132
37.150,0.127
37.155,0.124
37.160,0.112
37.165,0.106
37.170,0.104
37.175,0.095
37.180,0.088
37.185,0.087
37.190,0.085
37.195,0.081
37.200,0.079
37.205,0.074
37.210,0.067
37.215,0.065
37.220,0.064
37.225,0.058
37.230,0.052
37.235,0.050
37.240,0.045
37.245,0.038
37.250,0.034
37.255,0.031
37.260,0.027
37.265,0.019
37.270,0.010
37.275,0.003
37.280,-0.004
37.285,-0.014
37.290,-0.024
37.295,-0.035
37.300,-0.049
37.305,-0.065
37.310,-0.083
37.315,-0.102
37.320,-0.123
37.325,-0.145
37.330,-0.169
37.335,-0.193
37.340,-0.214
37.345,-0.235
37.350,-0.255
37.355,-0.272
37.360,-0.285
37.365,-0.293
37.370,-0.295
37.375,-0.293
37.380,-0.284
37.385,-0.267
37.390,-0.244
37.395,-0.209
37.400,-0.161
37.405,-0.106
37.410,-0.051
37.415,0.004
37.420,0.056
37.425,0.106
37.430,0.154
37.435,0.194
37.440,0.226
37.445,0.249
37.450,0.265
37.455,0.274
37.460,0.279
37.465,0.280
37.470,0.280
37.475,0.277
37.480,0.274
37.485,0.270
37.490,0.263
37.495,0.253
37.500,0.244
37.505,0.234
37.510,0.224
37.515,0.215
37.520,0.207
37.525,0.198
37.530,0.189
37.535,0.180
37.540,0.173
37.545,0.168
37.550,0.162
37.555,0.153
37.560,0.139
37.565,0.130
37.570,0.125
37.575,0.120
37.580,0.112
37.585,0.103
37.590,0.094
37.595,0.084
37.600,0.074
37.605,0.066
37.610,0.059
37.615,0.051
37.620,0.043
37.625,0.036
37.630,0.029
37.635,0.021
37.640,0.013
37.645,0.008
37.650,0.005
37.655,0.003
37.660,-0.001
37.665,-0.008
37.670,-0.013
37.675,-0.013
37.680,-0.014
37.685,-0.016
37.690,-0.018
37.695,-0.019
37.700,-0.017
37.705,-0.017
37.710,-0.021
37.715,-0.024
37.720,-0.027
37.725,-0.031
37.730,-0.033
37.735,-0.033
37.740,-0.034
37.745,-0.035
37.750,-0.034
37.755,-0.036
37.760,-0.038
37.765,-0.039
37.770,-0.040
37.775,-0.040
37.780,-0.041
37.785,-0.044
37.790,-0.044
37.795,-0.044
37.800,-0.045
37.805,-0.046
37.810,-0.046
37.815,-0.045
37.820,-0.044
37.825,-0.046
37.830,-0.048
37.835,-0.049
37.840,-0.050
37.845,-0.051
37.850,-0.054
37.855,-0.054
37.860,-0.053
37.865,-0.051
37.870,-0.047
37.875,-0.041
37.880,-0.048
37.885,-0.071
37.890,-0.095
37.895,-0.100
37.900,-0.079
37.905,-0.055
37.910,-0.058
37.915,-0.084
37.920,-0.092
37.925,-0.066
37.930,-0.039
37.935,-0.024
37.940,-0.020
37.945,-0.019
37.950,-0.018
37.955,-0.024
37.960,-0.024
37.965,-0.011
37.970,0.000
37.975,0.000
37.980,-0.001
37.985,-0.001
37.990,-0.004
37.995,-0.005
38.000,-0.006
38.005,-0.009
38.010,-0.012
38.015,-0.013
38.020,-0.014
38.025,-0.016
38.030,-0.018
38.035,-0.019
38.040,-0.021
38.045,-0.023
38.050,-0.025
38.055,-0.030
38.060,-0.034
38.065,-0.036
38.070,-0.035
38.075,-0.038
38.080,-0.036
38.085,-0.017
38.090,-0.010
38.095,-0.070
38.100,-0.200
38.105,-0.385
38.110,-0.628
38.115,-0.912
38.120,-1.144
38.125,-1.143
38.130,-0.767
38.135,-0.134
38.140,0.403
38.145,0.633
38.150,0.621
38.155,0.520
38.160,0.419
38.165,0.323
38.170,0.235
38.175,0.185
38.180,0.162
38.185,0.135
38.190,0.117
38.195,0.117
38.200,0.110
38.205,0.097
38.210,0.094
38.215,0.092
38.220,0.086
38.225,0.082
38.230,0.078
38.235,0.073
38.240,0.069
38.245,0.067
38.250,0.062
38.255,0.061
38.260,0.061
38.265,0.056
38.270,0.050
38.275,0.047
38.280,0.045
38.285,0.041
38.290,0.034
38.295,0.027
38.300,0.022
38.305,0.016
38.310,0.009
38.315,0.002
38.320,-0.006
38.325,-0.015
38.330,-0.026
38.335,-0.036
38.340,-0.045
38.345,-0.056
38.350,-0.072
38.355,-0.093
38.360,-0.113
38.365,-0.133
38.370,-0.157
38.375,-0.182
38.380,-0.207
38.385,-0.226
38.390,-0.245
38.395,-0.263
38.400,-0.278
38.405,-0.286
38.410,-0.292
38.415,-0.294
38.420,-0.289
38.425,-0.278
38.430,-0.256
38.435,-0.220
38.440,-0.179
38.445,-0.129
38.450,-0.073
38.455,-0.018
38.460,0.036
38.465,0.087
38.470,0.135
38.475,0.178
38.480,0.214
38.485,0.239
38.490,0.258
38.495,0.273
38.500,0.281
38.505,0.285
38.510,0.285
38.515,0.282
38.520,0.278
38.525,0.274
38.530,0.269
38.535,0.261
38.540,0.252
38.545,0.243
38.550,0.232
38.555,0.222
38.560,0.215
38.565,0.210
38.570,0.207
38.575,0.199
38.580,0.187
38.585,0.176
38.590,0.167
38.595,0.158
38.600,0.150
38.605,0.142
38.610,0.132
38.615,0.124
38.620,0.116
38.625,0.105
38.630,0.096
38.635,0.086
38.640,0.075
38.645,0.065
38.650,0.056
38.655,0.049
38.660,0.045
38.665,0.039
38.670,0.030
38.675,0.021
38.680,0.013
38.685,0.007
38.690,0.005
38.695,0.005
38.700,0.002
38.705,-0.002
38.710,-0.006
38.715,-0.009
38.720,-0.010
38.725,-0.012
38.730,-0.016
38.735,-0.020
38.740,-0.023
38.745,-0.025
38.750,-0.024
38.755,-0.026
38.760,-0.028
38.765,-0.032
38.770,-0.033
38.775,-0.031
38.780,-0.029
38.785,-0.029
38.790,-0.030
38.795,-0.032
38.800,-0.034
38.805,-0.035
38.810,-0.037
38.815,-0.039
38.820,-0.041
38.825,-0.043
38.830,-0.043
38.835,-0.041
38.840,-0.041
38.845,-0.042
38.850,-0.043
38.855,-0.044
38.860,-0.044
38.865,-0.045
38.870,-0.047
38.875,-0.047
38.880,-0.047
38.885,-0.047
38.890,-0.046
38.895,-0.047
38.900,-0.049
38.905,-0.051
38.910,-0.051
38.915,-0.044
38.920,-0.042
38.925,-0.061
38.930,-0.090
38.935,-0.102
38.940,-0.088
38.945,-0.062
38.950,-0.052
38.955,-0.075
38.960,-0.093
38.965,-0.072
38.970,-0.040
38.975,-0.025
38.980,-0.022
38.985,-0.018
38.990,-0.015
38.995,-0.020
39.000,-0.024
39.005,-0.013
39.010,0.003
39.015,0.007
39.020,0.004
39.025,0.003
39.030,0.002
39.035,0.002
39.040,-0.002
39.045,-0.006
39.050,-0.008
39.055,-0.007
39.060,-0.008
39.065,-0.011
39.070,-0.012
39.075,-0.013
39.080,-0.016
39.085,-0.018
39.090,-0.020
39.095,-0.022
39.100,-0.027
39.105,-0.029
39.110,-0.031
39.115,-0.034
39.120,-0.035
39.125,-0.025
39.130,-0.006
39.135,-0.034
39.140,-0.139
39.145,-0.305
39.150,-0.527
39.155,-0.800
39.160,-1.081
39.165,-1.207
39.170,-0.990
39.175,-0.424
39.180,0.206
39.185,0.575
39.190,0.649
39.195,0.568
39.200,0.457
39.205,0.359
39.210,0.267
39.215,0.203
39.220,0.177
39.225,0.155
39.230,0.134
39.235,0.129
39.240,0.126
39.245,0.113
39.250,0.106
39.255,0.103
39.260,0.095
39.265,0.089
39.270,0.089
39.275,0.085
39.280,0.079
39.285,0.076
39.290,0.075
39.295,0.069
39.300,0.065
39.305,0.062
39.310,0.058
39.315,0.053
39.320,0.049
39.325,0.044
39.330,0.039
39.335,0.033
39.340,0.027
39.345,0.022
39.350,0.015
39.355,0.007
39.360,-0.001
39.365,-0.010
39.370,-0.017
39.375,-0.025
39.380,-0.037
39.385,-0.050
39.390,-0.065
39.395,-0.083
39.400,-0.103
39.405,-0.125
39.410,-0.149
39.415,-0.172
39.420,-0.196
39.425,-0.220
39.430,-0.242
39.435,-0.259
39.440,-0.274
39.445,-0.286
39.450,-0.293
39.455,-0.297
39.460,-0.297
39.465,-0.288
39.470,-0.269
39.475,-0.242
39.480,-0.204
39.485,-0.157
39.490,-0.102
39.495,-0.044
39.500,0.013
39.505,0.067
39.510,0.115
39.515,0.159
39.520,0.198
39.525,0.229
39.530,0.254
39.535,0.273
39.540,0.283
39.545,0.288
39.550,0.289
39.555,0.287
39.560,0.283
39.565,0.278
39.570,0.271
39.575,0.263
39.580,0.253
39.585,0.244
39.590,0.236
39.595,0.227
39.600,0.217
39.605,0.207
39.610,0.199
39.615,0.191
39.620,0.183
39.625,0.175
39.630,0.167
39.635,0.159
39.640,0.149
39.645,0.140
39.650,0.131
39.655,0.121
39.660,0.113
39.665,0.105
39.670,0.096
39.675,0.089
39.680,0.080
39.685,0.071
39.690,0.063
39.695,0.053
39.700,0.046
39.705,0.041
39.710,0.034
39.715,0.027
39.720,0.020
39.725,0.015
39.730,0.009
39.735,0.003
39.740,-0.001
39.745,-0.005
39.750,-0.008
39.755,-0.011
39.760,-0.012
39.765,-0.013
39.770,-0.017
39.775,-0.020
39.780,-0.021
39.785,-0.022
39.790,-0.023
39.795,-0.024
39.800,-0.026
39.805,-0.026
39.810,-0.028
39.815,-0.030
39.820,-0.031
39.825,-0.032
39.830,-0.033
39.835,-0.036
39.840,-0.037
39.845,-0.037
39.850,-0.037
39.855,-0.038
39.860,-0.040
39.865,-0.041
39.870,-0.042
39.875,-0.043
39.880,-0.045
39.885,-0.046
39.890,-0.046
39.895,-0.048
39.900,-0.050
39.905,-0.051
39.910,-0.052
39.915,-0.052
39.920,-0.052
39.925,-0.052
39.930,-0.053
39.935,-0.052
39.940,-0.051
39.945,-0.052
39.950,-0.052
39.955,-0.054
39.960,-0.055
39.965,-0.053
39.970,-0.049
39.975,-0.047
39.980,-0.063
39.985,-0.090
39.990,-0.105
39.995,-0.096
40.000,-0.069
40.005,-0.056
40.010,-0.077
40.015,-0.097
40.020,-0.081
40.025,-0.051
40.030,-0.031
40.035,-0.023
40.040,-0.020
40.045,-0.017
40.050,-0.021
40.055,-0.029
40.060,-0.021
40.065,-0.002
40.070,0.006
40.075,0.004
40.080,0.002
40.085,-0.001
40.090,-0.004
40.095,-0.005
40.100,-0.005
40.105,-0.008
40.110,-0.010
40.115,-0.012
40.120,-0.015
40.125,-0.017
40.130,-0.019
40.135,-0.021
40.140,-0.022
40.145,-0.023
40.150,-0.026
40.155,-0.032
40.160,-0.036
40.165,-0.037
40.170,-0.038
40.175,-0.039
40.180,-0.030
40.185,-0.013
40.190,-0.039
40.195,-0.143
40.200,-0.307
40.205,-0.519
40.210,-0.783
40.215,-1.070
40.220,-1.210
40.225,-1.014
40.230,-0.469
40.235,0.163
40.240,0.551
40.245,0.647
40.250,0.575
40.255,0.455
40.260,0.351
40.265,0.262
40.270,0.203
40.275,0.178
40.280,0.156
40.285,0.135
40.290,0.129
40.295,0.126
40.300,0.114
40.305,0.108
40.310,0.109
40.315,0.102
40.320,0.096
40.325,0.092
40.330,0.088
40.335,0.085
40.340,0.082
40.345,0.078
40.350,0.073
40.355,0.070
40.360,0.065
40.365,0.061
40.370,0.058
40.375,0.054
40.380,0.048
40.385,0.043
40.390,0.038
40.395,0.032
40.400,0.024
40.405,0.017
40.410,0.011
40.415,0.003
40.420,-0.005
40.425,-0.014
40.430,-0.025
40.435,-0.036
40.440,-0.049
40.445,-0.064
40.450,-0.080
40.455,-0.099
40.460,-0.119
40.465,-0.141
40.470,-0.165
40.475,-0.190
40.480,-0.214
40.485,-0.235
40.490,-0.255
40.495,-0.271
40.500,-0.283
40.505,-0.291
40.510,-0.295
40.515,-0.293
40.520,-0.285
40.525,-0.270
40.530,-0.244
40.535,-0.207
40.540,-0.162
40.545,-0.111
40.550,-0.055
40.555,0.004
40.560,0.060
40.565,0.110
40.570,0.156
40.575,0.196
40.580,0.228
40.585,0.252
40.590,0.268
40.595,0.280
40.600,0.288
40.605,0.290
40.610,0.289
40.615,0.285
40.620,0.279
40.625,0.273
40.630,0.265
40.635,0.255
40.640,0.246
40.645,0.237
40.650,0.228
40.655,0.218
40.660,0.208
40.665,0.199
40.670,0.188
40.675,0.180
40.680,0.174
40.685,0.167
40.690,0.160
40.695,0.151
40.700,0.142
40.705,0.135
40.710,0.126
40.715,0.118
40.720,0.111
40.725,0.103
40.730,0.095
40.735,0.087
40.740,0.078
40.745,0.070
40.750,0.063
40.755,0.056
40.760,0.048
40.765,0.040
40.770,0.031
40.775,0.023
40.780,0.016
40.785,0.013
40.790,0.009
40.795,0.004
40.800,-0.002
40.805,-0.006
40.810,-0.007
40.815,-0.009
40.820,-0.010
40.825,-0.012
40.830,-0.015
40.835,-0.016
40.840,-0.018
40.845,-0.019
40.850,-0.020
40.855,-0.022
40.860,-0.023
40.865,-0.024
40.870,-0.025
40.875,-0.027
40.880,-0.028
40.885,-0.029
40.890,-0.031
40.895,-0.032
40.900,-0.033
40.905,-0.035
40.910,-0.036
40.915,-0.037
40.920,-0.038
40.925,-0.040
40.930,-0.041
40.935,-0.040
40.940,-0.041
40.945,-0.043
40.950,-0.043
40.955,-0.045
40.960,-0.047
40.965,-0.047
40.970,-0.047
40.975,-0.048
40.980,-0.050
40.985,-0.050
40.990,-0.050
40.995,-0.052
41.000,-0.052
41.005,-0.051
41.010,-0.050
41.015,-0.049
41.020,-0.045
41.025,-0.049
41.030,-0.071
41.035,-0.096
41.040,-0.103
41.045,-0.086
41.050,-0.060
41.055,-0.057
41.060,-0.083
41.065,-0.093
41.070,-0.070
41.075,-0.042
41.080,-0.025
41.085,-0.021
41.090,-0.018
41.095,-0.016
41.100,-0.026
41.105,-0.029
41.110,-0.012
41.115,0.007
41.120,0.011
41.125,0.007
41.130,0.004
41.135,0.002
41.140,0.000
41.145,-0.002
41.150,-0.005
41.155,-0.010
41.160,-0.011
41.165,-0.010
41.170,-0.010
41.175,-0.013
41.180,-0.017
41.185,-0.022
41.190,-0.023
41.195,-0.021
41.200,-0.022
41.205,-0.026
41.210,-0.032
41.215,-0.037
41.220,-0.039
41.225,-0.037
41.230,-0.018
41.235,-0.004
41.240,-0.055
41.245,-0.180
41.250,-0.356
41.255,-0.586
41.260,-0.865
41.265,-1.124
41.270,-1.171
41.275,-0.850
41.280,-0.245
41.285,0.324
41.290,0.605
41.295,0.630
41.300,0.540
41.305,0.429
41.310,0.328
41.315,0.241
41.320,0.190
41.325,0.169
41.330,0.145
41.335,0.127
41.340,0.122
41.345,0.114
41.350,0.103
41.355,0.102
41.360,0.100
41.365,0.090
41.370,0.085
41.375,0.086
41.380,0.082
41.385,0.077
41.390,0.072
41.395,0.066
41.400,0.061
41.405,0.059
41.410,0.056
41.415,0.052
41.420,0.047
41.425,0.042
41.430,0.038
41.435,0.034
41.440,0.030
41.445,0.022
41.450,0.013
41.455,0.006
41.460,0.001
41.465,-0.004
41.470,-0.013
41.475,-0.025
41.480,-0.038
41.485,-0.047
41.490,-0.056
41.495,-0.073
41.500,-0.094
41.505,-0.115
41.510,-0.134
41.515,-0.156
41.520,-0.183
41.525,-0.207
41.530,-0.227
41.535,-0.249
41.540,-0.270
41.545,-0.283
41.550,-0.288
41.555,-0.291
41.560,-0.294
41.565,-0.291
41.570,-0.283
41.575,-0.266
41.580,-0.238
41.585,-0.197
41.590,-0.147
41.595,-0.095
41.600,-0.040
41.605,0.017
41.610,0.070
41.615,0.121
41.620,0.166
41.625,0.200
41.630,0.227
41.635,0.249
41.640,0.264
41.645,0.276
41.650,0.283
41.655,0.287
41.660,0.283
41.665,0.275
41.670,0.271
41.675,0.267
41.680,0.260
41.685,0.250
41.690,0.239
41.695,0.231
41.700,0.223
41.705,0.215
41.710,0.206
41.715,0.196
41.720,0.189
41.725,0.183
41.730,0.173
41.735,0.163
41.740,0.155
41.745,0.149
41.750,0.141
41.755,0.131
41.760,0.123
41.765,0.117
41.770,0.106
41.775,0.096
41.780,0.089
41.785,0.084
41.790,0.074
41.795,0.063
41.800,0.056
41.805,0.047
41.810,0.038
41.815,0.032
41.820,0.026
41.825,0.021
41.830,0.014
41.835,0.005
41.840,-0.002
41.845,-0.007
41.850,-0.008
41.855,-0.005
41.860,-0.007
41.865,-0.013
41.870,-0.014
41.875,-0.013
41.880,-0.015
41.885,-0.018
41.890,-0.022
41.895,-0.023
41.900,-0.025
41.905,-0.027
41.910,-0.027
41.915,-0.026
41.920,-0.027
41.925,-0.031
41.930,-0.035
41.935,-0.036
41.940,-0.036
41.945,-0.040
41.950,-0.040
41.955,-0.039
41.960,-0.040
41.965,-0.040
41.970,-0.042
41.975,-0.045
41.980,-0.045
41.985,-0.048
41.990,-0.050
41.995,-0.049
42.000,-0.048
42.005,-0.050
42.010,-0.053
42.015,-0.053
42.020,-0.052
42.025,-0.049
42.030,-0.050
42.035,-0.054
42.040,-0.054
42.045,-0.047
42.050,-0.042
42.055,-0.052
42.060,-0.074
42.065,-0.095
42.070,-0.099
42.075,-0.084
42.080,-0.065
42.085,-0.068
42.090,-0.090
42.095,-0.091
42.100,-0.062
42.105,-0.035
42.110,-0.024
42.115,-0.024
42.120,-0.022
42.125,-0.019
42.130,-0.020
42.135,-0.016
42.140,-0.002
42.145,0.005
42.150,0.002
42.155,0.001
42.160,0.001
42.165,-0.003
42.170,-0.004
42.175,-0.005
42.180,-0.008
42.185,-0.011
42.190,-0.013
42.195,-0.012
42.200,-0.010
42.205,-0.013
42.210,-0.017
42.215,-0.018
42.220,-0.019
42.225,-0.024
42.230,-0.032
42.235,-0.033
42.240,-0.029
42.245,-0.029
42.250,-0.035
42.255,-0.034
42.260,-0.014
42.265,-0.008
42.270,-0.072
42.275,-0.209
42.280,-0.406
42.285,-0.662
42.290,-0.951
42.295,-1.161
42.300,-1.116
42.305,-0.694
42.310,-0.045
42.315,0.460
42.320,0.648
42.325,0.614
42.330,0.513
42.335,0.416
42.340,0.317
42.345,0.226
42.350,0.183
42.355,0.166
42.360,0.136
42.365,0.119
42.370,0.120
42.375,0.110
42.380,0.099
42.385,0.098
42.390,0.094
42.395,0.083
42.400,0.082
42.405,0.083
42.410,0.077
42.415,0.071
42.420,0.068
42.425,0.064
42.430,0.061
42.435,0.057
42.440,0.053
42.445,0.050
42.450,0.046
42.455,0.040
42.460,0.032
42.465,0.027
42.470,0.024
42.475,0.020
42.480,0.014
42.485,0.007
42.490,0.000
42.495,-0.007
42.500,-0.015
42.505,-0.023
42.510,-0.033
42.515,-0.047
42.520,-0.061
42.525,-0.077
42.530,-0.096
42.535,-0.114
42.540,-0.135
42.545,-0.160
42.550,-0.187
42.555,-0.210
42.560,-0.230
42.565,-0.250
42.570,-0.267
42.575,-0.281
42.580,-0.291
42.585,-0.296
42.590,-0.298
42.595,-0.293
42.600,-0.277
42.605,-0.251
42.610,-0.216
42.615,-0.173
42.620,-0.123
42.625,-0.071
42.630,-0.017
42.635,0.040
42.640,0.093
42.645,0.143
42.650,0.185
42.655,0.219
42.660,0.245
42.665,0.263
42.670,0.277
42.675,0.287
42.680,0.292
42.685,0.292
42.690,0.287
42.695,0.281
42.700,0.276
42.705,0.270
42.710,0.262
42.715,0.252
42.720,0.239
42.725,0.231
42.730,0.226
42.735,0.218
42.740,0.209
42.745,0.199
42.750,0.193
42.755,0.188
42.760,0.180
42.765,0.172
42.770,0.162
42.775,0.151
42.780,0.141
42.785,0.133
42.790,0.124
42.795,0.113
42.800,0.103
42.805,0.096
42.810,0.087
42.815,0.077
42.820,0.069
42.825,0.061
42.830,0.052
42.835,0.043
42.840,0.036
42.845,0.028
42.850,0.019
42.855,0.014
42.860,0.011
42.865,0.008
42.870,0.004
42.875,-0.002
42.880,-0.004
42.885,-0.004
42.890,-0.006
42.895,-0.008
42.900,-0.008
42.905,-0.010
42.910,-0.012
42.915,-0.016
42.920,-0.017
42.925,-0.017
42.930,-0.017
42.935,-0.017
42.940,-0.020
42.945,-0.022
42.950,-0.024
42.955,-0.025
42.960,-0.025
42.965,-0.026
42.970,-0.029
42.975,-0.032
42.980,-0.034
42.985,-0.033
42.990,-0.033
42.995,-0.036
43.000,-0.037
43.005,-0.037
43.010,-0.035
43.015,-0.035
43.020,-0.036
43.025,-0.039
43.030,-0.041
43.035,-0.042
43.040,-0.044
43.045,-0.045
43.050,-0.045
43.055,-0.045
43.060,-0.048
43.065,-0.050
43.070,-0.046
43.075,-0.041
43.080,-0.047
43.085,-0.067
43.090,-0.092
43.095,-0.100
43.100,-0.083
43.105,-0.059
43.110,-0.055
43.115,-0.079
43.120,-0.091
43.125,-0.068
43.130,-0.039
43.135,-0.025
43.140,-0.022
43.145,-0.018
43.150,-0.015
43.155,-0.022
43.160,-0.025
43.165,-0.012
43.170,0.004
43.175,0.006
43.180,0.002
43.185,0.000
43.190,-0.003
43.195,-0.007
43.200,-0.009
43.205,-0.009
43.210,-0.010
43.215,-0.011
43.220,-0.013
43.225,-0.016
43.230,-0.018
43.235,-0.020
43.240,-0.023
43.245,-0.025
43.250,-0.027
43.255,-0.030
43.260,-0.033
43.265,-0.035
43.270,-0.037
43.275,-0.042
43.280,-0.042
43.285,-0.026
43.290,-0.013
43.295,-0.059
43.300,-0.180
43.305,-0.359
43.310,-0.594
43.315,-0.881
43.320,-1.154
43.325,-1.223
43.330,-0.919
43.335,-0.303
43.340,0.297
43.345,0.604
43.350,0.636
43.355,0.542
43.360,0.426
43.365,0.323
43.370,0.240
43.375,0.192
43.380,0.169
43.385,0.145
43.390,0.125
43.395,0.124
43.400,0.119
43.405,0.106
43.410,0.101
43.415,0.098
43.420,0.090
43.425,0.084
43.430,0.083
43.435,0.081
43.440,0.075
43.445,0.072
43.450,0.068
43.455,0.063
43.460,0.059
43.465,0.056
43.470,0.052
43.475,0.048
43.480,0.043
43.485,0.038
43.490,0.032
43.495,0.025
43.500,0.019
43.505,0.014
43.510,0.009
43.515,0.003
43.520,-0.007
43.525,-0.016
43.530,-0.023
43.535,-0.033
43.540,-0.046
43.545,-0.060
43.550,-0.077
43.555,-0.094
43.560,-0.114
43.565,-0.136
43.570,-0.160
43.575,-0.185
43.580,-0.211
43.585,-0.235
43.590,-0.255
43.595,-0.274
43.600,-0.288
43.605,-0.299
43.610,-0.306
43.615,-0.309
43.620,-0.307
43.625,-0.297
43.630,-0.275
43.635,-0.242
43.640,-0.199
43.645,-0.149
43.650,-0.093
43.655,-0.034
43.660,0.023
43.665,0.077
43.670,0.128
43.675,0.173
43.680,0.209
43.685,0.237
43.690,0.259
43.695,0.275
43.700,0.284
43.705,0.289
43.710,0.289
43.715,0.286
43.720,0.280
43.725,0.273
43.730,0.266
43.735,0.259
43.740,0.250
43.745,0.240
43.750,0.229
43.755,0.219
43.760,0.210
43.765,0.201
43.770,0.193
43.775,0.183
43.780,0.174
43.785,0.167
43.790,0.160
43.795,0.153
43.800,0.145
43.805,0.138
43.810,0.130
43.815,0.122
43.820,0.114
43.825,0.107
43.830,0.100
43.835,0.093
43.840,0.086
43.845,0.077
43.850,0.070
43.855,0.063
43.860,0.056
43.865,0.048
43.870,0.041
43.875,0.033
43.880,0.026
43.885,0.019
43.890,0.014
43.895,0.008
43.900,0.003
43.905,-0.002
43.910,-0.006
43.915,-0.008
43.920,-0.010
43.925,-0.012
43.930,-0.014
43.935,-0.017
43.940,-0.019
43.945,-0.021
43.950,-0.023
43.955,-0.024
43.960,-0.025
43.965,-0.026
43.970,-0.027
43.975,-0.029
43.980,-0.029
43.985,-0.030
43.990,-0.031
43.995,-0.032
44.000,-0.035
44.005,-0.037
44.010,-0.040
44.015,-0.041
44.020,-0.042
44.025,-0.044
44.030,-0.046
44.035,-0.045
44.040,-0.046
44.045,-0.047
44.050,-0.050
44.055,-0.052
44.060,-0.053
44.065,-0.052
44.070,-0.052
44.075,-0.051
44.080,-0.051
44.085,-0.053
44.090,-0.053
44.095,-0.055
44.100,-0.056
44.105,-0.053
44.110,-0.048
44.115,-0.053
44.120,-0.077
44.125,-0.102
44.130,-0.106
44.135,-0.085
44.140,-0.062
44.145,-0.063
44.150,-0.089
44.155,-0.094
44.160,-0.067
44.165,-0.040
44.170,-0.027
44.175,-0.023
44.180,-0.020
44.185,-0.018
44.190,-0.026
44.195,-0.027
44.200,-0.009
44.205,0.007
44.210,0.007
44.215,0.004
44.220,0.003
44.225,0.000
44.230,-0.003
44.235,-0.004
44.240,-0.006
44.245,-0.007
44.250,-0.009
44.255,-0.011
44.260,-0.013
44.265,-0.016
44.270,-0.018
44.275,-0.019
44.280,-0.021
44.285,-0.023
44.290,-0.026
44.295,-0.030
44.300,-0.032
44.305,-0.034
44.310,-0.038
44.315,-0.036
44.320,-0.020
44.325,-0.014
44.330,-0.075
44.335,-0.206
44.340,-0.388
44.345,-0.625
44.350,-0.916
44.355,-1.171
44.360,-1.189
44.365,-0.825
44.370,-0.194
44.375,0.364
44.380,0.623
44.385,0.630
44.390,0.528
44.395,0.411
44.400,0.312
44.405,0.235
44.410,0.191
44.415,0.171
44.420,0.149
44.425,0.134
44.430,0.133
44.435,0.125
44.440,0.114
44.445,0.111
44.450,0.108
44.455,0.099
44.460,0.094
44.465,0.092
44.470,0.086
44.475,0.081
44.480,0.079
44.485,0.075
44.490,0.070
44.495,0.067
44.500,0.062
44.505,0.057
44.510,0.053
44.515,0.048
44.520,0.044
44.525,0.037
44.530,0.030
44.535,0.024
44.540,0.017
44.545,0.011
44.550,0.005
44.555,-0.004
44.560,-0.013
44.565,-0.024
44.570,-0.034
44.575,-0.045
44.580,-0.060
44.585,-0.076
44.590,-0.093
44.595,-0.114
44.600,-0.136
44.605,-0.159
44.610,-0.185
44.615,-0.209
44.620,-0.233
44.625,-0.254
44.630,-0.272
44.635,-0.284
44.640,-0.295
44.645,-0.302
44.650,-0.304
44.655,-0.300
44.660,-0.287
44.665,-0.266
44.670,-0.233
44.675,-0.190
44.680,-0.139
44.685,-0.082
44.690,-0.023
44.695,0.034
44.700,0.088
44.705,0.136
44.710,0.177
44.715,0.213
44.720,0.242
44.725,0.263
44.730,0.277
44.735,0.286
44.740,0.290
44.745,0.289
44.750,0.286
44.755,0.281
44.760,0.274
44.765,0.267
44.770,0.257
44.775,0.247
44.780,0.239
44.785,0.230
44.790,0.221
44.795,0.213
44.800,0.206
44.805,0.197
44.810,0.188
44.815,0.177
44.820,0.169
44.825,0.163
44.830,0.154
44.835,0.147
44.840,0.142
44.845,0.134
44.850,0.127
44.855,0.120
44.860,0.112
44.865,0.104
44.870,0.095
44.875,0.087
44.880,0.081
44.885,0.076
44.890,0.068
44.895,0.059
44.900,0.051
44.905,0.043
44.910,0.034
44.915,0.025
44.920,0.019
44.925,0.013
44.930,0.008
