'Elapsed time','ECG'
'seconds','mV'
0.000,0.107
0.005,-0.236
0.010,-0.300
0.015,-0.253
0.020,-0.174
0.025,-0.199
0.030,-0.267
0.035,-0.176
0.040,-0.161
0.045,-0.223
0.050,-0.187
0.055,-0.151
0.060,-0.182
0.065,-0.174
0.070,-0.140
0.075,-0.150
0.080,-0.157
0.085,-0.133
0.090,-0.126
0.095,-0.134
0.100,-0.120
0.105,-0.107
0.110,-0.111
0.115,-0.106
0.120,-0.095
0.125,-0.096
0.130,-0.095
0.135,-0.087
0.140,-0.083
0.145,-0.082
0.150,-0.077
0.155,-0.074
0.160,-0.081
0.165,-0.091
0.170,-0.096
0.175,-0.097
0.180,-0.093
0.185,-0.088
0.190,-0.095
0.195,-0.105
0.200,-0.115
0.205,-0.131
0.210,-0.140
0.215,-0.127
0.220,-0.108
0.225,-0.093
0.230,-0.070
0.235,-0.044
0.240,-0.017
0.245,0.003
0.250,0.009
0.255,0.026
0.260,0.050
0.265,0.058
0.270,0.060
0.275,0.062
0.280,0.058
0.285,0.058
0.290,0.060
0.295,0.057
0.300,0.057
0.305,0.054
0.310,0.042
0.315,0.051
0.320,0.103
0.325,0.161
0.330,0.177
0.335,0.148
0.340,0.078
0.345,0.004
0.350,-0.035
0.355,-0.025
0.360,0.060
0.365,0.091
0.370,0.111
0.375,0.368
0.380,0.664
0.385,0.722
0.390,0.587
0.395,0.431
0.400,0.388
0.405,0.373
0.410,0.305
0.415,0.269
0.420,0.245
0.425,0.144
0.430,0.001
0.435,-0.112
0.440,-0.207
0.445,-0.283
0.450,-0.296
0.455,-0.279
0.460,-0.296
0.465,-0.311
0.470,-0.295
0.475,-0.281
0.480,-0.281
0.485,-0.274
0.490,-0.261
0.495,-0.256
0.500,-0.246
0.505,-0.224
0.510,-0.209
0.515,-0.206
0.520,-0.205
0.525,-0.199
0.530,-0.186
0.535,-0.170
0.540,-0.156
0.545,-0.144
0.550,-0.129
0.555,-0.110
0.560,-0.096
0.565,-0.088
0.570,-0.074
0.575,-0.060
0.580,-0.052
0.585,-0.038
0.590,-0.018
0.595,0.001
0.600,0.019
0.605,0.032
0.610,0.049
0.615,0.067
0.620,0.076
0.625,0.083
0.630,0.091
0.635,0.097
0.640,0.100
0.645,0.096
0.650,0.092
0.655,0.087
0.660,0.070
0.665,0.057
0.670,0.056
0.675,0.050
0.680,0.045
0.685,0.033
0.690,0.016
0.695,0.003
0.700,-0.006
0.705,-0.007
0.710,-0.003
0.715,-0.009
0.720,-0.015
0.725,-0.012
0.730,-0.014
0.735,-0.017
0.740,-0.020
0.745,-0.021
0.750,-0.014
0.755,-0.008
0.760,-0.008
0.765,-0.010
0.770,-0.011
0.775,-0.008
0.780,-0.005
0.785,-0.005
0.790,-0.005
0.795,-0.006
0.800,-0.004
0.805,0.000
0.810,0.000
0.815,-0.001
0.820,0.002
0.825,0.004
0.830,0.003
0.835,0.004
0.840,0.007
0.845,0.009
0.850,0.014
0.855,0.012
0.860,0.006
0.865,0.012
0.870,0.018
0.875,0.016
0.880,0.012
0.885,0.014
0.890,0.028
0.895,0.034
0.900,0.029
0.905,0.022
0.910,0.013
0.915,0.013
0.920,0.023
0.925,0.027
0.930,0.023
0.935,0.017
0.940,0.017
0.945,0.023
0.950,0.025
0.955,0.024
0.960,0.018
0.965,0.002
0.970,-0.011
0.975,-0.012
0.980,-0.010
0.985,-0.016
0.990,-0.030
0.995,-0.042
1.000,-0.054
1.005,-0.075
1.010,-0.091
1.015,-0.087
1.020,-0.075
1.025,-0.060
1.030,-0.033
1.035,-0.008
1.040,0.010
1.045,0.021
1.050,0.031
1.055,0.052
1.060,0.073
1.065,0.079
1.070,0.078
1.075,0.073
1.080,0.068
1.085,0.066
1.090,0.067
1.095,0.064
1.100,0.062
1.105,0.062
1.110,0.055
1.115,0.057
1.120,0.105
1.125,0.166
1.130,0.184
1.135,0.156
1.140,0.089
1.145,0.030
1.150,0.000
1.155,0.001
1.160,0.079
1.165,0.112
1.170,0.099
1.175,0.298
1.180,0.598
1.185,0.724
1.190,0.620
1.195,0.432
1.200,0.360
1.205,0.337
1.210,0.280
1.215,0.244
1.220,0.212
1.225,0.119
1.230,-0.021
1.235,-0.139
1.240,-0.232
1.245,-0.310
1.250,-0.334
1.255,-0.314
1.260,-0.318
1.265,-0.337
1.270,-0.326
1.275,-0.310
1.280,-0.313
1.285,-0.306
1.290,-0.285
1.295,-0.276
1.300,-0.270
1.305,-0.256
1.310,-0.247
1.315,-0.242
1.320,-0.228
1.325,-0.217
1.330,-0.208
1.335,-0.193
1.340,-0.177
1.345,-0.164
1.350,-0.152
1.355,-0.139
1.360,-0.125
1.365,-0.112
1.370,-0.096
1.375,-0.079
1.380,-0.069
1.385,-0.056
1.390,-0.036
1.395,-0.016
1.400,0.002
1.405,0.018
1.410,0.033
1.415,0.050
1.420,0.065
1.425,0.076
1.430,0.085
1.435,0.091
1.440,0.098
1.445,0.100
1.450,0.097
1.455,0.091
1.460,0.081
1.465,0.070
1.470,0.060
1.475,0.051
1.480,0.043
1.485,0.033
1.490,0.020
1.495,0.009
1.500,0.001
1.505,0.000
1.510,-0.002
1.515,-0.008
1.520,-0.013
1.525,-0.017
1.530,-0.024
1.535,-0.023
1.540,-0.020
1.545,-0.017
1.550,-0.015
1.555,-0.016
1.560,-0.016
1.565,-0.015
1.570,-0.014
1.575,-0.013
1.580,-0.015
1.585,-0.015
1.590,-0.015
1.595,-0.019
1.600,-0.029
1.605,-0.047
1.610,-0.078
1.615,-0.118
1.620,-0.166
1.625,-0.224
1.630,-0.291
1.635,-0.364
1.640,-0.439
1.645,-0.523
1.650,-0.630
1.655,-0.792
1.660,-0.962
1.665,-1.038
1.670,-1.005
1.675,-0.964
1.680,-1.014
1.685,-1.068
1.690,-1.038
1.695,-0.942
1.700,-0.848
1.705,-0.749
1.710,-0.539
1.715,-0.231
1.720,0.137
1.725,0.575
1.730,0.946
1.735,1.099
1.740,1.111
1.745,1.086
1.750,1.074
1.755,1.061
1.760,1.027
1.765,1.020
1.770,1.019
1.775,0.959
1.780,0.884
1.785,0.861
1.790,0.849
1.795,0.816
1.800,0.785
1.805,0.762
1.810,0.732
1.815,0.700
1.820,0.676
1.825,0.656
1.830,0.633
1.835,0.616
1.840,0.601
1.845,0.584
1.850,0.572
1.855,0.564
1.860,0.554
1.865,0.545
1.870,0.540
1.875,0.536
1.880,0.531
1.885,0.527
1.890,0.524
1.895,0.515
1.900,0.502
1.905,0.491
1.910,0.476
1.915,0.458
1.920,0.436
1.925,0.409
1.930,0.375
1.935,0.336
1.940,0.291
1.945,0.239
1.950,0.180
1.955,0.115
1.960,0.047
1.965,-0.027
1.970,-0.104
1.975,-0.179
1.980,-0.256
1.985,-0.334
1.990,-0.407
1.995,-0.475
2.000,-0.539
2.005,-0.595
2.010,-0.642
2.015,-0.681
2.020,-0.710
2.025,-0.729
2.030,-0.741
2.035,-0.746
2.040,-0.746
2.045,-0.740
2.050,-0.726
2.055,-0.710
2.060,-0.692
2.065,-0.669
2.070,-0.642
2.075,-0.618
2.080,-0.595
2.085,-0.567
2.090,-0.540
2.095,-0.516
2.100,-0.489
2.105,-0.463
2.110,-0.440
2.115,-0.417
2.120,-0.391
2.125,-0.367
2.130,-0.346
2.135,-0.329
2.140,-0.311
2.145,-0.291
2.150,-0.275
2.155,-0.260
2.160,-0.245
2.165,-0.228
2.170,-0.211
2.175,-0.198
2.180,-0.184
2.185,-0.173
2.190,-0.161
2.195,-0.149
2.200,-0.139
2.205,-0.129
2.210,-0.121
2.215,-0.113
2.220,-0.103
2.225,-0.094
2.230,-0.087
2.235,-0.077
2.240,-0.066
2.245,-0.060
2.250,-0.053
2.255,-0.041
2.260,-0.032
2.265,-0.024
2.270,-0.016
2.275,-0.009
2.280,0.001
2.285,0.006
2.290,0.007
2.295,0.010
2.300,0.013
2.305,0.021
2.310,0.032
2.315,0.043
2.320,0.054
2.325,0.057
2.330,0.055
2.335,0.056
2.340,0.062
2.345,0.069
2.350,0.071
2.355,0.073
2.360,0.076
2.365,0.078
2.370,0.083
2.375,0.091
2.380,0.094
2.385,0.094
2.390,0.093
2.395,0.089
2.400,0.093
2.405,0.102
2.410,0.105
2.415,0.107
2.420,0.106
2.425,0.103
2.430,0.102
2.435,0.101
2.440,0.101
2.445,0.104
2.450,0.107
2.455,0.108
2.460,0.102
2.465,0.098
2.470,0.101
2.475,0.099
2.480,0.099
2.485,0.106
2.490,0.110
2.495,0.109
2.500,0.103
2.505,0.096
2.510,0.095
2.515,0.094
2.520,0.095
2.525,0.098
2.530,0.097
2.535,0.095
2.540,0.095
2.545,0.094
2.550,0.090
2.555,0.085
2.560,0.081
2.565,0.078
2.570,0.081
2.575,0.086
2.580,0.088
2.585,0.085
2.590,0.079
2.595,0.075
2.600,0.072
2.605,0.069
2.610,0.068
2.615,0.068
2.620,0.070
2.625,0.069
2.630,0.064
2.635,0.066
2.640,0.068
2.645,0.063
2.650,0.057
2.655,0.055
2.660,0.058
2.665,0.059
2.670,0.053
2.675,0.043
2.680,0.037
2.685,0.036
2.690,0.030
2.695,0.018
2.700,0.015
2.705,0.020
2.710,0.021
2.715,0.016
2.720,0.003
2.725,-0.019
2.730,-0.041
2.735,-0.060
2.740,-0.073
2.745,-0.070
2.750,-0.059
2.755,-0.050
2.760,-0.028
2.765,0.000
2.770,0.016
2.775,0.030
2.780,0.038
2.785,0.052
2.790,0.075
2.795,0.083
2.800,0.085
2.805,0.086
2.810,0.077
2.815,0.071
2.820,0.066
2.825,0.060
2.830,0.051
2.835,0.044
2.840,0.068
2.845,0.123
2.850,0.173
2.855,0.183
2.860,0.148
2.865,0.080
2.870,0.014
2.875,-0.024
2.880,-0.014
2.885,0.062
2.890,0.076
2.895,0.091
2.900,0.349
2.905,0.652
2.910,0.711
2.915,0.567
2.920,0.416
2.925,0.373
2.930,0.348
2.935,0.283
2.940,0.244
2.945,0.210
2.950,0.102
2.955,-0.043
2.960,-0.151
2.965,-0.236
2.970,-0.309
2.975,-0.328
2.980,-0.318
2.985,-0.335
2.990,-0.344
2.995,-0.323
3.000,-0.309
3.005,-0.310
3.010,-0.300
3.015,-0.285
3.020,-0.277
3.025,-0.266
3.030,-0.253
3.035,-0.248
3.040,-0.240
3.045,-0.224
3.050,-0.210
3.055,-0.202
3.060,-0.189
3.065,-0.173
3.070,-0.158
3.075,-0.147
3.080,-0.136
3.085,-0.124
3.090,-0.110
3.095,-0.094
3.100,-0.078
3.105,-0.064
3.110,-0.050
3.115,-0.034
3.120,-0.019
3.125,-0.003
3.130,0.012
3.135,0.029
3.140,0.047
3.145,0.061
3.150,0.069
3.155,0.075
3.160,0.078
3.165,0.076
3.170,0.073
3.175,0.071
3.180,0.067
3.185,0.057
3.190,0.043
3.195,0.025
3.200,0.009
3.205,0.001
3.210,-0.007
3.215,-0.014
3.220,-0.019
3.225,-0.024
3.230,-0.030
3.235,-0.038
3.240,-0.043
3.245,-0.047
3.250,-0.050
3.255,-0.049
3.260,-0.052
3.265,-0.052
3.270,-0.049
3.275,-0.050
3.280,-0.053
3.285,-0.051
3.290,-0.044
3.295,-0.040
3.300,-0.040
3.305,-0.040
3.310,-0.038
3.315,-0.034
3.320,-0.031
3.325,-0.026
3.330,-0.023
3.335,-0.022
3.340,-0.025
3.345,-0.024
3.350,-0.018
3.355,-0.013
3.360,-0.008
3.365,-0.004
3.370,0.000
3.375,0.003
3.380,0.002
3.385,0.002
3.390,0.004
3.395,0.004
3.400,0.009
3.405,0.028
3.410,0.058
3.415,0.073
3.420,0.054
3.425,0.011
3.430,-0.051
3.435,-0.148
3.440,-0.284
3.445,-0.422
3.450,-0.535
3.455,-0.607
3.460,-0.644
3.465,-0.673
3.470,-0.688
3.475,-0.647
3.480,-0.538
3.485,-0.412
3.490,-0.303
3.495,-0.217
3.500,-0.115
3.505,0.066
3.510,0.278
3.515,0.461
3.520,0.586
3.525,0.590
3.530,0.452
3.535,0.245
3.540,0.134
3.545,0.153
3.550,0.164
3.555,0.092
3.560,-0.023
3.565,-0.057
3.570,0.011
3.575,0.081
3.580,0.144
3.585,0.244
3.590,0.366
3.595,0.476
3.600,0.546
3.605,0.550
3.610,0.528
3.615,0.523
3.620,0.525
3.625,0.517
3.630,0.503
3.635,0.497
3.640,0.493
3.645,0.479
3.650,0.465
3.655,0.457
3.660,0.446
3.665,0.437
3.670,0.434
3.675,0.423
3.680,0.413
3.685,0.405
3.690,0.389
3.695,0.375
3.700,0.363
3.705,0.347
3.710,0.327
3.715,0.306
3.720,0.289
3.725,0.272
3.730,0.250
3.735,0.224
3.740,0.196
3.745,0.164
3.750,0.131
3.755,0.097
3.760,0.063
3.765,0.032
3.770,0.000
3.775,-0.033
3.780,-0.064
3.785,-0.094
3.790,-0.123
3.795,-0.152
3.800,-0.179
3.805,-0.204
3.810,-0.228
3.815,-0.253
3.820,-0.276
3.825,-0.297
3.830,-0.317
3.835,-0.335
3.840,-0.352
3.845,-0.371
3.850,-0.386
3.855,-0.398
3.860,-0.409
3.865,-0.419
3.870,-0.425
3.875,-0.428
3.880,-0.430
3.885,-0.427
3.890,-0.421
3.895,-0.415
3.900,-0.408
3.905,-0.400
3.910,-0.394
3.915,-0.384
3.920,-0.374
3.925,-0.363
3.930,-0.351
3.935,-0.338
3.940,-0.325
3.945,-0.313
3.950,-0.300
3.955,-0.287
3.960,-0.276
3.965,-0.263
3.970,-0.248
3.975,-0.234
3.980,-0.224
3.985,-0.212
3.990,-0.198
3.995,-0.185
4.000,-0.172
4.005,-0.158
4.010,-0.146
4.015,-0.136
4.020,-0.125
4.025,-0.114
4.030,-0.103
4.035,-0.093
4.040,-0.082
4.045,-0.074
4.050,-0.066
4.055,-0.056
4.060,-0.045
4.065,-0.036
4.070,-0.028
4.075,-0.019
4.080,-0.015
4.085,-0.009
4.090,-0.001
4.095,0.007
4.100,0.012
4.105,0.015
4.110,0.021
4.115,0.029
4.120,0.033
4.125,0.034
4.130,0.035
4.135,0.040
4.140,0.047
4.145,0.052
4.150,0.058
4.155,0.064
4.160,0.067
4.165,0.068
4.170,0.070
4.175,0.071
4.180,0.072
4.185,0.076
4.190,0.081
4.195,0.079
4.200,0.075
4.205,0.077
4.210,0.081
4.215,0.085
4.220,0.089
4.225,0.090
4.230,0.089
4.235,0.089
4.240,0.089
4.245,0.091
4.250,0.098
4.255,0.100
4.260,0.096
4.265,0.093
4.270,0.091
4.275,0.090
4.280,0.087
4.285,0.086
4.290,0.089
4.295,0.092
4.300,0.092
4.305,0.094
4.310,0.094
4.315,0.092
4.320,0.089
4.325,0.086
4.330,0.080
4.335,0.067
4.340,0.050
4.345,0.037
4.350,0.038
4.355,0.047
4.360,0.050
4.365,0.039
4.370,0.022
4.375,0.004
4.380,-0.020
4.385,-0.030
4.390,-0.024
4.395,-0.019
4.400,-0.008
4.405,0.016
4.410,0.040
4.415,0.057
4.420,0.071
4.425,0.087
4.430,0.110
4.435,0.129
4.440,0.132
4.445,0.127
4.450,0.120
4.455,0.111
4.460,0.103
4.465,0.105
4.470,0.109
4.475,0.102
4.480,0.093
4.485,0.091
4.490,0.122
4.495,0.180
4.500,0.207
4.505,0.191
4.510,0.134
4.515,0.060
4.520,0.016
4.525,0.003
4.530,0.060
4.535,0.120
4.540,0.092
4.545,0.221
4.550,0.545
4.555,0.735
4.560,0.678
4.565,0.504
4.570,0.403
4.575,0.385
4.580,0.334
4.585,0.280
4.590,0.259
4.595,0.190
4.600,0.058
4.605,-0.066
4.610,-0.166
4.615,-0.261
4.620,-0.310
4.625,-0.298
4.630,-0.297
4.635,-0.316
4.640,-0.313
4.645,-0.296
4.650,-0.290
4.655,-0.287
4.660,-0.274
4.665,-0.272
4.670,-0.275
4.675,-0.257
4.680,-0.240
4.685,-0.230
4.690,-0.215
4.695,-0.204
4.700,-0.198
4.705,-0.191
4.710,-0.178
4.715,-0.161
4.720,-0.149
4.725,-0.135
4.730,-0.122
4.735,-0.112
4.740,-0.099
4.745,-0.087
4.750,-0.073
4.755,-0.055
4.760,-0.036
4.765,-0.019
4.770,-0.005
4.775,0.006
4.780,0.016
4.785,0.029
4.790,0.043
4.795,0.048
4.800,0.053
4.805,0.060
4.810,0.063
4.815,0.061
4.820,0.056
4.825,0.048
4.830,0.039
4.835,0.027
4.840,0.016
4.845,0.007
4.850,-0.004
4.855,-0.013
4.860,-0.020
4.865,-0.025
4.870,-0.025
4.875,-0.024
4.880,-0.023
4.885,-0.022
4.890,-0.024
4.895,-0.029
4.900,-0.035
4.905,-0.035
4.910,-0.031
4.915,-0.025
4.920,-0.018
4.925,-0.017
4.930,-0.022
4.935,-0.023
4.940,-0.022
4.945,-0.021
4.950,-0.021
4.955,-0.021
4.960,-0.020
4.965,-0.011
4.970,-0.003
4.975,-0.008
4.980,-0.013
4.985,-0.009
4.990,-0.002
4.995,0.001
5.000,0.003
5.005,0.001
5.010,-0.001
5.015,-0.001
5.020,-0.002
5.025,0.000
5.030,0.004
5.035,0.008
5.040,0.015
5.045,0.019
5.050,0.012
5.055,0.005
5.060,0.007
5.065,0.014
5.070,0.020
5.075,0.022
5.080,0.021
5.085,0.024
5.090,0.030
5.095,0.030
5.100,0.024
5.105,0.017
5.110,0.010
5.115,0.005
5.120,0.001
5.125,-0.004
5.130,-0.012
5.135,-0.014
5.140,-0.020
5.145,-0.035
5.150,-0.050
5.155,-0.068
5.160,-0.090
5.165,-0.097
5.170,-0.085
5.175,-0.068
5.180,-0.046
5.185,-0.014
5.190,0.012
5.195,0.028
5.200,0.034
5.205,0.039
5.210,0.057
5.215,0.075
5.220,0.078
5.225,0.075
5.230,0.070
5.235,0.065
5.240,0.066
5.245,0.068
5.250,0.062
5.255,0.056
5.260,0.051
5.265,0.044
5.270,0.066
5.275,0.128
5.280,0.177
5.285,0.181
5.290,0.142
5.295,0.075
5.300,0.031
5.305,0.007
5.310,0.030
5.315,0.113
5.320,0.115
5.325,0.156
5.330,0.419
5.335,0.680
5.340,0.729
5.345,0.565
5.350,0.389
5.355,0.342
5.360,0.301
5.365,0.250
5.370,0.230
5.375,0.177
5.380,0.062
5.385,-0.077
5.390,-0.188
5.395,-0.271
5.400,-0.332
5.405,-0.339
5.410,-0.325
5.415,-0.339
5.420,-0.344
5.425,-0.322
5.430,-0.314
5.435,-0.316
5.440,-0.303
5.445,-0.291
5.450,-0.288
5.455,-0.278
5.460,-0.262
5.465,-0.253
5.470,-0.243
5.475,-0.229
5.480,-0.217
5.485,-0.209
5.490,-0.198
5.495,-0.184
5.500,-0.170
5.505,-0.155
5.510,-0.143
5.515,-0.130
5.520,-0.115
5.525,-0.099
5.530,-0.081
5.535,-0.065
5.540,-0.049
5.545,-0.033
5.550,-0.018
5.555,-0.002
5.560,0.014
5.565,0.028
5.570,0.043
5.575,0.059
5.580,0.071
5.585,0.083
5.590,0.093
5.595,0.094
5.600,0.092
5.605,0.090
5.610,0.084
5.615,0.076
5.620,0.067
5.625,0.062
5.630,0.056
5.635,0.048
5.640,0.037
5.645,0.025
5.650,0.017
5.655,0.009
5.660,0.001
5.665,-0.002
5.670,-0.002
5.675,-0.003
5.680,-0.005
5.685,-0.007
5.690,-0.011
5.695,-0.016
5.700,-0.018
5.705,-0.013
5.710,-0.009
5.715,-0.010
5.720,-0.009
5.725,-0.007
5.730,-0.004
5.735,-0.003
5.740,-0.003
5.745,-0.001
5.750,-0.001
5.755,-0.004
5.760,-0.007
5.765,-0.009
5.770,-0.006
5.775,-0.004
5.780,-0.004
5.785,-0.004
5.790,-0.005
5.795,-0.003
5.800,0.000
5.805,0.000
5.810,-0.003
5.815,-0.003
5.820,0.001
5.825,0.005
5.830,0.008
5.835,0.019
5.840,0.055
5.845,0.102
5.850,0.145
5.855,0.190
5.860,0.198
5.865,0.157
5.870,0.108
5.875,0.065
5.880,0.050
5.885,0.076
5.890,0.087
5.895,0.096
5.900,0.164
5.905,0.270
5.910,0.412
5.915,0.585
5.920,0.743
5.925,0.882
5.930,0.999
5.935,1.046
5.940,1.034
5.945,0.949
5.950,0.787
5.955,0.687
5.960,0.655
5.965,0.574
5.970,0.411
5.975,0.154
5.980,-0.148
5.985,-0.416
5.990,-0.609
5.995,-0.690
6.000,-0.664
6.005,-0.616
6.010,-0.595
6.015,-0.583
6.020,-0.587
6.025,-0.620
6.030,-0.654
6.035,-0.682
6.040,-0.707
6.045,-0.717
6.050,-0.707
6.055,-0.684
6.060,-0.656
6.065,-0.630
6.070,-0.605
6.075,-0.578
6.080,-0.550
6.085,-0.523
6.090,-0.498
6.095,-0.472
6.100,-0.446
6.105,-0.421
6.110,-0.398
6.115,-0.375
6.120,-0.350
6.125,-0.325
6.130,-0.304
6.135,-0.284
6.140,-0.264
6.145,-0.243
6.150,-0.223
6.155,-0.204
6.160,-0.189
6.165,-0.176
6.170,-0.162
6.175,-0.150
6.180,-0.139
6.185,-0.125
6.190,-0.108
6.195,-0.091
6.200,-0.075
6.205,-0.056
6.210,-0.032
6.215,-0.008
6.220,0.015
6.225,0.040
6.230,0.067
6.235,0.098
6.240,0.130
6.245,0.160
6.250,0.189
6.255,0.218
6.260,0.244
6.265,0.270
6.270,0.288
6.275,0.301
6.280,0.315
6.285,0.326
6.290,0.331
6.295,0.328
6.300,0.327
6.305,0.331
6.310,0.326
6.315,0.320
6.320,0.315
6.325,0.301
6.330,0.283
6.335,0.256
6.340,0.222
6.345,0.208
6.350,0.217
6.355,0.232
6.360,0.242
6.365,0.246
6.370,0.255
6.375,0.254
6.380,0.238
6.385,0.227
6.390,0.222
6.395,0.214
6.400,0.199
6.405,0.176
6.410,0.146
6.415,0.109
6.420,0.084
6.425,0.079
6.430,0.085
6.435,0.110
6.440,0.126
6.445,0.112
6.450,0.085
6.455,0.063
6.460,0.072
6.465,0.084
6.470,0.075
6.475,0.068
6.480,0.057
6.485,0.030
6.490,0.007
6.495,0.033
6.500,0.110
6.505,0.169
6.510,0.171
6.515,0.131
6.520,0.093
6.525,0.076
6.530,0.053
6.535,0.026
6.540,0.003
6.545,-0.012
6.550,0.000
6.555,0.018
6.560,0.021
6.565,0.009
6.570,-0.024
6.575,-0.052
6.580,-0.050
6.585,-0.022
6.590,0.011
6.595,0.024
6.600,0.019
6.605,0.027
6.610,0.031
6.615,0.019
6.620,0.009
6.625,-0.010
6.630,-0.037
6.635,-0.056
6.640,-0.055
6.645,-0.048
6.650,-0.053
6.655,-0.076
6.660,-0.086
6.665,-0.058
6.670,-0.019
6.675,0.002
6.680,0.003
6.685,-0.017
6.690,-0.053
6.695,-0.083
6.700,-0.061
6.705,-0.007
6.710,0.018
6.715,-0.001
6.720,-0.038
6.725,-0.064
6.730,-0.105
6.735,-0.155
6.740,-0.136
6.745,-0.082
6.750,-0.097
6.755,-0.143
6.760,-0.124
6.765,-0.059
6.770,-0.023
6.775,-0.030
6.780,-0.023
6.785,0.010
6.790,0.017
6.795,0.017
6.800,0.034
6.805,0.017
6.810,-0.017
6.815,-0.035
6.820,-0.033
6.825,-0.025
6.830,-0.035
6.835,-0.027
6.840,0.005
6.845,0.004
6.850,-0.044
6.855,-0.092
6.860,-0.125
6.865,-0.142
6.870,-0.129
6.875,-0.114
6.880,-0.096
6.885,-0.058
6.890,-0.033
6.895,-0.021
6.900,-0.030
6.905,-0.056
6.910,-0.044
6.915,0.024
6.920,0.078
6.925,0.064
6.930,0.029
6.935,0.023
6.940,0.038
6.945,0.039
6.950,0.021
6.955,0.028
6.960,0.029
6.965,0.012
6.970,0.049
6.975,0.107
6.980,0.131
6.985,0.123
6.990,0.071
6.995,-0.007
7.000,-0.087
7.005,-0.085
7.010,0.038
7.015,0.090
7.020,0.120
7.025,0.367
7.030,0.649
7.035,0.723
7.040,0.580
7.045,0.402
7.050,0.347
7.055,0.307
7.060,0.244
7.065,0.220
7.070,0.181
7.075,0.064
7.080,-0.097
7.085,-0.239
7.090,-0.360
7.095,-0.417
7.100,-0.343
7.105,-0.237
7.110,-0.240
7.115,-0.290
7.120,-0.320
7.125,-0.329
7.130,-0.309
7.135,-0.272
7.140,-0.246
7.145,-0.262
7.150,-0.290
7.155,-0.314
7.160,-0.291
7.165,-0.227
7.170,-0.194
7.175,-0.180
7.180,-0.188
7.185,-0.202
7.190,-0.178
7.195,-0.137
7.200,-0.102
7.205,-0.092
7.210,-0.104
7.215,-0.099
7.220,-0.062
7.225,-0.035
7.230,-0.030
7.235,-0.015
7.240,0.002
7.245,0.000
7.250,-0.037
7.255,-0.090
7.260,-0.064
7.265,0.048
7.270,0.130
7.275,0.138
7.280,0.113
7.285,0.104
7.290,0.128
7.295,0.147
7.300,0.135
7.305,0.104
7.310,0.079
7.315,0.072
7.320,0.053
7.325,0.016
7.330,-0.002
7.335,0.019
7.340,0.042
7.345,0.041
7.350,0.054
7.355,0.047
7.360,-0.016
7.365,-0.074
7.370,-0.077
7.375,-0.048
7.380,-0.050
7.385,-0.072
7.390,-0.052
7.395,-0.002
7.400,-0.001
7.405,-0.022
7.410,-0.012
7.415,0.003
7.420,0.005
7.425,-0.025
7.430,-0.073
7.435,-0.099
7.440,-0.092
7.445,-0.060
7.450,-0.028
7.455,-0.002
7.460,0.020
7.465,0.024
7.470,0.008
7.475,-0.010
7.480,-0.010
7.485,0.013
7.490,0.008
7.495,-0.031
7.500,-0.021
7.505,0.021
7.510,0.025
7.515,0.015
7.520,0.012
7.525,-0.008
7.530,-0.040
7.535,-0.036
7.540,0.010
7.545,0.034
7.550,0.027
7.555,0.030
7.560,0.034
7.565,0.010
7.570,-0.033
7.575,-0.031
7.580,0.028
7.585,0.074
7.590,0.096
7.595,0.113
7.600,0.130
7.605,0.179
7.610,0.224
7.615,0.210
7.620,0.164
7.625,0.091
7.630,0.010
7.635,0.007
7.640,0.045
7.645,0.077
7.650,0.116
7.655,0.157
7.660,0.301
7.665,0.551
7.670,0.769
7.675,0.920
7.680,0.996
7.685,1.000
7.690,0.984
7.695,0.950
7.700,0.861
7.705,0.759
7.710,0.673
7.715,0.554
7.720,0.378
7.725,0.154
7.730,-0.087
7.735,-0.312
7.740,-0.462
7.745,-0.524
7.750,-0.535
7.755,-0.542
7.760,-0.570
7.765,-0.573
7.770,-0.565
7.775,-0.614
7.780,-0.697
7.785,-0.748
7.790,-0.739
7.795,-0.718
7.800,-0.719
7.805,-0.707
7.810,-0.680
7.815,-0.626
7.820,-0.559
7.825,-0.535
7.830,-0.538
7.835,-0.538
7.840,-0.524
7.845,-0.487
7.850,-0.447
7.855,-0.432
7.860,-0.411
7.865,-0.371
7.870,-0.357
7.875,-0.350
7.880,-0.320
7.885,-0.272
7.890,-0.214
7.895,-0.183
7.900,-0.194
7.905,-0.219
7.910,-0.225
7.915,-0.188
7.920,-0.142
7.925,-0.132
7.930,-0.142
7.935,-0.158
7.940,-0.160
7.945,-0.137
7.950,-0.100
7.955,-0.049
7.960,-0.011
7.965,-0.005
7.970,-0.001
7.975,0.017
7.980,0.045
7.985,0.076
7.990,0.090
7.995,0.094
8.000,0.118
8.005,0.173
8.010,0.230
8.015,0.268
8.020,0.280
8.025,0.288
8.030,0.302
8.035,0.306
8.040,0.293
8.045,0.271
8.050,0.276
8.055,0.304
8.060,0.314
8.065,0.310
8.070,0.296
8.075,0.284
8.080,0.294
8.085,0.299
8.090,0.298
8.095,0.305
8.100,0.308
8.105,0.296
8.110,0.260
8.115,0.211
8.120,0.196
8.125,0.197
8.130,0.173
8.135,0.170
8.140,0.201
8.145,0.231
8.150,0.243
8.155,0.204
8.160,0.145
8.165,0.125
8.170,0.120
8.175,0.127
8.180,0.135
8.185,0.107
8.190,0.083
8.195,0.094
8.200,0.116
8.205,0.118
8.210,0.085
8.215,0.062
8.220,0.067
8.225,0.069
8.230,0.067
8.235,0.062
8.240,0.051
8.245,0.041
8.250,0.032
8.255,0.026
8.260,0.027
8.265,0.051
8.270,0.079
8.275,0.078
8.280,0.061
8.285,0.051
8.290,0.045
8.295,0.032
8.300,0.019
8.305,0.024
8.310,0.026
8.315,0.004
8.320,-0.017
8.325,-0.026
8.330,-0.030
8.335,-0.010
8.340,0.012
8.345,0.013
8.350,0.006
8.355,-0.009
8.360,-0.010
8.365,0.009
8.370,0.015
8.375,0.003
8.380,-0.005
8.385,-0.021
8.390,-0.027
8.395,-0.007
8.400,0.001
8.405,-0.007
8.410,-0.011
8.415,-0.025
8.420,-0.034
8.425,-0.032
8.430,-0.038
8.435,-0.040
8.440,-0.043
8.445,-0.063
8.450,-0.078
8.455,-0.081
8.460,-0.078
8.465,-0.077
8.470,-0.081
8.475,-0.094
8.480,-0.114
8.485,-0.116
8.490,-0.106
8.495,-0.098
8.500,-0.092
8.505,-0.083
8.510,-0.063
8.515,-0.029
8.520,-0.011
8.525,-0.012
8.530,0.006
8.535,0.036
8.540,0.059
8.545,0.052
8.550,0.023
8.555,0.015
8.560,0.030
8.565,0.042
8.570,0.036
8.575,0.019
8.580,0.000
8.585,0.007
8.590,0.065
8.595,0.126
8.600,0.131
8.605,0.106
8.610,0.053
8.615,-0.008
8.620,-0.039
8.625,-0.019
8.630,0.074
8.635,0.096
8.640,0.089
8.645,0.317
8.650,0.599
8.655,0.653
8.660,0.514
8.665,0.349
8.670,0.317
8.675,0.333
8.680,0.295
8.685,0.265
8.690,0.225
8.695,0.108
8.700,-0.036
8.705,-0.160
8.710,-0.271
8.715,-0.340
8.720,-0.333
8.725,-0.311
8.730,-0.339
8.735,-0.363
8.740,-0.348
8.745,-0.328
8.750,-0.311
8.755,-0.305
8.760,-0.326
8.765,-0.347
8.770,-0.316
8.775,-0.236
8.780,-0.186
8.785,-0.197
8.790,-0.226
8.795,-0.240
8.800,-0.240
8.805,-0.229
8.810,-0.193
8.815,-0.147
8.820,-0.122
8.825,-0.122
8.830,-0.118
8.835,-0.094
8.840,-0.070
8.845,-0.066
8.850,-0.071
8.855,-0.064
8.860,-0.034
8.865,0.002
8.870,0.028
8.875,0.035
8.880,0.024
8.885,0.037
8.890,0.069
8.895,0.083
8.900,0.095
8.905,0.101
8.910,0.106
8.915,0.121
8.920,0.119
8.925,0.085
8.930,0.057
8.935,0.051
8.940,0.045
8.945,0.023
8.950,-0.020
8.955,-0.056
8.960,-0.042
8.965,0.006
8.970,0.031
8.975,0.013
8.980,-0.021
8.985,-0.042
8.990,-0.039
8.995,-0.034
9.000,-0.044
9.005,-0.040
9.010,-0.024
9.015,-0.030
9.020,-0.041
9.025,-0.043
9.030,-0.047
9.035,-0.050
9.040,-0.050
9.045,-0.045
9.050,-0.036
9.055,-0.031
9.060,-0.030
9.065,-0.013
9.070,0.001
9.075,-0.015
9.080,-0.040
9.085,-0.043
9.090,-0.030
9.095,-0.026
9.100,-0.019
9.105,0.010
9.110,0.040
9.115,0.047
9.120,0.026
9.125,0.006
9.130,0.004
9.135,0.004
9.140,0.005
9.145,0.012
9.150,0.017
9.155,0.024
9.160,0.035
9.165,0.036
9.170,0.023
9.175,0.014
9.180,0.025
9.185,0.034
9.190,0.020
9.195,-0.001
9.200,-0.005
9.205,0.007
9.210,0.014
9.215,0.006
9.220,0.002
9.225,-0.005
9.230,-0.029
9.235,-0.060
9.240,-0.082
9.245,-0.081
9.250,-0.063
9.255,-0.045
9.260,-0.047
9.265,-0.045
9.270,-0.008
9.275,0.031
9.280,0.048
9.285,0.042
9.290,0.028
9.295,0.042
9.300,0.073
9.305,0.087
9.310,0.096
9.315,0.113
9.320,0.106
9.325,0.082
9.330,0.063
9.335,0.064
9.340,0.082
9.345,0.077
9.350,0.046
9.355,0.048
9.360,0.114
9.365,0.189
9.370,0.208
9.375,0.172
9.380,0.100
9.385,0.044
9.390,0.024
9.395,0.050
9.400,0.149
9.405,0.164
9.410,0.144
9.415,0.343
9.420,0.608
9.425,0.698
9.430,0.578
9.435,0.401
9.440,0.336
9.445,0.299
9.450,0.251
9.455,0.241
9.460,0.204
9.465,0.084
9.470,-0.068
9.475,-0.181
9.480,-0.262
9.485,-0.325
9.490,-0.345
9.495,-0.343
9.500,-0.356
9.505,-0.375
9.510,-0.387
9.515,-0.382
9.520,-0.354
9.525,-0.304
9.530,-0.267
9.535,-0.262
9.540,-0.256
9.545,-0.241
9.550,-0.240
9.555,-0.242
9.560,-0.233
9.565,-0.227
9.570,-0.223
9.575,-0.207
9.580,-0.195
9.585,-0.202
9.590,-0.193
9.595,-0.155
9.600,-0.116
9.605,-0.092
9.610,-0.083
9.615,-0.077
9.620,-0.065
9.625,-0.052
9.630,-0.025
9.635,-0.001
9.640,0.008
9.645,0.014
9.650,0.031
9.655,0.060
9.660,0.080
9.665,0.088
9.670,0.083
9.675,0.068
9.680,0.074
9.685,0.095
9.690,0.107
9.695,0.115
9.700,0.121
9.705,0.117
9.710,0.100
9.715,0.083
9.720,0.071
9.725,0.056
9.730,0.025
9.735,-0.013
9.740,-0.021
9.745,-0.010
9.750,0.003
9.755,0.013
9.760,0.000
9.765,-0.009
9.770,-0.025
9.775,-0.068
9.780,-0.074
9.785,-0.026
9.790,0.019
9.795,0.037
9.800,0.011
9.805,-0.055
9.810,-0.097
9.815,-0.080
9.820,-0.013
9.825,0.047
9.830,0.047
9.835,0.009
9.840,-0.015
9.845,-0.025
9.850,-0.069
9.855,-0.098
9.860,-0.034
9.865,0.055
9.870,0.084
9.875,0.059
9.880,0.014
9.885,-0.005
9.890,0.005
9.895,0.032
9.900,0.070
9.905,0.066
9.910,0.033
9.915,0.025
9.920,0.036
9.925,0.017
9.930,-0.025
9.935,-0.028
9.940,0.001
9.945,0.007
9.950,0.005
9.955,0.026
9.960,0.045
9.965,0.039
9.970,0.030
9.975,0.032
9.980,0.023
9.985,0.007
9.990,0.015
9.995,0.034
10.000,0.020
10.005,-0.010
10.010,-0.003
10.015,0.038
10.020,0.058
10.025,0.039
10.030,0.001
10.035,-0.025
10.040,-0.023
10.045,-0.013
10.050,-0.016
10.055,-0.028
10.060,-0.045
10.065,-0.071
10.070,-0.091
10.075,-0.086
10.080,-0.068
10.085,-0.054
10.090,-0.040
10.095,-0.020
10.100,0.002
10.105,0.011
10.110,0.009
10.115,0.021
10.120,0.057
10.125,0.080
10.130,0.077
10.135,0.072
10.140,0.066
10.145,0.061
10.150,0.065
10.155,0.065
10.160,0.056
10.165,0.054
10.170,0.048
10.175,0.047
10.180,0.093
10.185,0.162
10.190,0.191
10.195,0.167
10.200,0.101
10.205,0.035
10.210,0.003
10.215,-0.003
10.220,0.066
10.225,0.112
10.230,0.079
10.235,0.242
10.240,0.563
10.245,0.700
10.250,0.600
10.255,0.421
10.260,0.342
10.265,0.338
10.270,0.288
10.275,0.241
10.280,0.225
10.285,0.148
10.290,0.014
10.295,-0.104
10.300,-0.202
10.305,-0.288
10.310,-0.325
10.315,-0.310
10.320,-0.312
10.325,-0.335
10.330,-0.327
10.335,-0.308
10.340,-0.308
10.345,-0.303
10.350,-0.285
10.355,-0.275
10.360,-0.270
10.365,-0.254
10.370,-0.241
10.375,-0.237
10.380,-0.226
10.385,-0.207
10.390,-0.194
10.395,-0.184
10.400,-0.172
10.405,-0.158
10.410,-0.146
10.415,-0.131
10.420,-0.113
10.425,-0.097
10.430,-0.079
10.435,-0.060
10.440,-0.043
10.445,-0.027
10.450,-0.012
10.455,0.001
10.460,0.014
10.465,0.030
10.470,0.048
10.475,0.067
10.480,0.088
10.485,0.108
10.490,0.118
10.495,0.122
10.500,0.123
10.505,0.117
10.510,0.106
10.515,0.095
10.520,0.083
10.525,0.070
10.530,0.058
10.535,0.046
10.540,0.035
10.545,0.027
10.550,0.017
10.555,0.007
10.560,-0.002
10.565,-0.009
10.570,-0.012
10.575,-0.016
10.580,-0.019
10.585,-0.026
10.590,-0.037
10.595,-0.042
10.600,-0.036
10.605,-0.025
10.610,-0.022
10.615,-0.026
10.620,-0.026
10.625,-0.027
10.630,-0.028
10.635,-0.024
10.640,-0.021
10.645,-0.017
10.650,-0.013
10.655,-0.013
10.660,-0.017
10.665,-0.018
10.670,-0.016
10.675,-0.009
10.680,-0.005
10.685,-0.005
10.690,-0.004
10.695,-0.003
10.700,-0.004
10.705,-0.004
10.710,-0.002
10.715,-0.002
10.720,0.002
10.725,0.007
10.730,0.007
10.735,0.010
10.740,0.014
10.745,0.019
10.750,0.021
10.755,0.014
10.760,0.010
10.765,0.019
10.770,0.024
10.775,0.024
10.780,0.029
10.785,0.032
10.790,0.028
10.795,0.024
10.800,0.026
10.805,0.035
10.810,0.031
10.815,0.018
10.820,0.022
10.825,0.036
10.830,0.038
10.835,0.031
10.840,0.022
10.845,0.018
10.850,0.021
10.855,0.017
10.860,0.002
10.865,-0.009
10.870,-0.019
10.875,-0.021
10.880,-0.021
10.885,-0.032
10.890,-0.047
10.895,-0.064
10.900,-0.085
10.905,-0.090
10.910,-0.079
10.915,-0.070
10.920,-0.054
10.925,-0.029
10.930,-0.004
10.935,0.020
10.940,0.031
10.945,0.033
10.950,0.047
10.955,0.063
10.960,0.071
10.965,0.077
10.970,0.079
10.975,0.073
10.980,0.067
10.985,0.065
10.990,0.070
10.995,0.072
11.000,0.062
11.005,0.049
11.010,0.065
11.015,0.124
11.020,0.178
11.025,0.177
11.030,0.128
11.035,0.060
11.040,0.015
11.045,0.000
11.050,0.036
11.055,0.115
11.060,0.099
11.065,0.129
11.070,0.408
11.075,0.672
11.080,0.699
11.085,0.541
11.090,0.395
11.095,0.371
11.100,0.338
11.105,0.263
11.110,0.228
11.115,0.184
11.120,0.072
11.125,-0.064
11.130,-0.177
11.135,-0.272
11.140,-0.328
11.145,-0.318
11.150,-0.301
11.155,-0.328
11.160,-0.348
11.165,-0.329
11.170,-0.311
11.175,-0.309
11.180,-0.298
11.185,-0.287
11.190,-0.286
11.195,-0.276
11.200,-0.253
11.205,-0.235
11.210,-0.231
11.215,-0.226
11.220,-0.223
11.225,-0.216
11.230,-0.194
11.235,-0.175
11.240,-0.166
11.245,-0.152
11.250,-0.138
11.255,-0.121
11.260,-0.103
11.265,-0.089
11.270,-0.073
11.275,-0.057
11.280,-0.041
11.285,-0.024
11.290,-0.005
11.295,0.016
11.300,0.035
11.305,0.050
11.310,0.063
11.315,0.076
11.320,0.090
11.325,0.097
11.330,0.101
11.335,0.105
11.340,0.103
11.345,0.098
11.350,0.091
11.355,0.079
11.360,0.063
11.365,0.050
11.370,0.040
11.375,0.028
11.380,0.015
11.385,0.006
11.390,-0.002
11.395,-0.008
11.400,-0.012
11.405,-0.019
11.410,-0.026
11.415,-0.031
11.420,-0.036
11.425,-0.037
11.430,-0.037
11.435,-0.037
11.440,-0.033
11.445,-0.033
11.450,-0.034
11.455,-0.032
11.460,-0.032
11.465,-0.031
11.470,-0.026
11.475,-0.026
11.480,-0.025
11.485,-0.023
11.490,-0.023
11.495,-0.020
11.500,-0.018
11.505,-0.014
11.510,-0.011
11.515,-0.012
11.520,-0.015
11.525,-0.015
11.530,-0.014
11.535,-0.013
11.540,-0.013
11.545,-0.012
11.550,-0.008
11.555,-0.003
11.560,-0.003
11.565,-0.004
11.570,-0.003
11.575,-0.001
11.580,0.002
11.585,0.006
11.590,0.006
11.595,0.006
11.600,0.011
11.605,0.017
11.610,0.018
11.615,0.019
11.620,0.022
11.625,0.023
11.630,0.023
11.635,0.024
11.640,0.026
11.645,0.026
11.650,0.027
11.655,0.027
11.660,0.026
11.665,0.028
11.670,0.030
11.675,0.029
11.680,0.029
11.685,0.028
11.690,0.027
11.695,0.026
11.700,0.021
11.705,0.012
11.710,0.001
11.715,-0.007
11.720,-0.011
11.725,-0.012
11.730,-0.014
11.735,-0.026
11.740,-0.040
11.745,-0.059
11.750,-0.079
11.755,-0.087
11.760,-0.078
11.765,-0.064
11.770,-0.046
11.775,-0.019
11.780,0.007
11.785,0.026
11.790,0.037
11.795,0.041
11.800,0.058
11.805,0.080
11.810,0.088
11.815,0.087
11.820,0.083
11.825,0.076
11.830,0.072
11.835,0.076
11.840,0.076
11.845,0.071
11.850,0.065
11.855,0.058
11.860,0.083
11.865,0.148
11.870,0.197
11.875,0.194
11.880,0.146
11.885,0.072
11.890,0.016
11.895,-0.006
11.900,0.024
11.905,0.099
11.910,0.084
11.915,0.126
11.920,0.424
11.925,0.683
11.930,0.680
11.935,0.515
11.940,0.378
11.945,0.361
11.950,0.339
11.955,0.276
11.960,0.249
11.965,0.208
11.970,0.087
11.975,-0.050
11.980,-0.157
11.985,-0.253
11.990,-0.318
11.995,-0.321
12.000,-0.305
12.005,-0.321
12.010,-0.329
12.015,-0.310
12.020,-0.306
12.025,-0.308
12.030,-0.293
12.035,-0.279
12.040,-0.275
12.045,-0.264
12.050,-0.247
12.055,-0.240
12.060,-0.232
12.065,-0.216
12.070,-0.204
12.075,-0.197
12.080,-0.187
12.085,-0.175
12.090,-0.162
12.095,-0.146
12.100,-0.127
12.105,-0.111
12.110,-0.098
12.115,-0.082
12.120,-0.066
12.125,-0.051
12.130,-0.035
12.135,-0.015
12.140,0.005
12.145,0.021
12.150,0.037
12.155,0.054
12.160,0.070
12.165,0.086
12.170,0.097
12.175,0.102
12.180,0.104
12.185,0.101
12.190,0.095
12.195,0.088
12.200,0.080
12.205,0.071
12.210,0.058
12.215,0.045
12.220,0.031
12.225,0.016
12.230,0.004
12.235,-0.005
12.240,-0.015
12.245,-0.025
12.250,-0.033
12.255,-0.039
12.260,-0.043
12.265,-0.045
12.270,-0.045
12.275,-0.046
12.280,-0.046
12.285,-0.043
12.290,-0.042
12.295,-0.042
12.300,-0.039
12.305,-0.036
12.310,-0.036
12.315,-0.037
12.320,-0.037
12.325,-0.036
12.330,-0.033
12.335,-0.027
12.340,-0.021
12.345,-0.018
12.350,-0.016
12.355,-0.017
12.360,-0.019
12.365,-0.015
12.370,-0.010
12.375,-0.009
12.380,-0.011
12.385,-0.008
12.390,-0.004
12.395,-0.004
12.400,-0.005
12.405,-0.002
12.410,0.002
12.415,0.008
12.420,0.011
12.425,0.009
12.430,0.006
12.435,0.005
12.440,0.009
12.445,0.014
12.450,0.019
12.455,0.024
12.460,0.026
12.465,0.029
12.470,0.030
12.475,0.030
12.480,0.030
12.485,0.029
12.490,0.032
12.495,0.036
12.500,0.036
12.505,0.033
12.510,0.029
12.515,0.029
12.520,0.032
12.525,0.034
12.530,0.036
12.535,0.036
12.540,0.029
12.545,0.023
12.550,0.022
12.555,0.022
12.560,0.024
12.565,0.025
12.570,0.026
12.575,0.024
12.580,0.024
12.585,0.028
12.590,0.030
12.595,0.027
12.600,0.024
12.605,0.021
12.610,0.015
12.615,0.012
12.620,0.011
12.625,0.011
12.630,0.015
12.635,0.024
12.640,0.029
12.645,0.026
12.650,0.019
12.655,0.012
12.660,0.011
12.665,0.013
12.670,0.014
12.675,0.013
12.680,0.010
12.685,0.011
12.690,0.012
12.695,0.011
12.700,0.010
12.705,0.009
12.710,0.012
12.715,0.015
12.720,0.012
12.725,0.006
12.730,0.005
12.735,0.012
12.740,0.010
12.745,-0.005
12.750,-0.018
12.755,-0.022
12.760,-0.023
12.765,-0.018
12.770,-0.014
12.775,-0.029
12.780,-0.050
12.785,-0.070
12.790,-0.095
12.795,-0.103
12.800,-0.090
12.805,-0.073
12.810,-0.053
12.815,-0.031
12.820,-0.013
12.825,0.005
12.830,0.023
12.835,0.034
12.840,0.046
12.845,0.061
12.850,0.067
12.855,0.065
12.860,0.061
12.865,0.052
12.870,0.052
12.875,0.057
12.880,0.060
12.885,0.059
12.890,0.052
12.895,0.053
12.900,0.091
12.905,0.153
12.910,0.177
12.915,0.148
12.920,0.080
12.925,0.010
12.930,-0.029
12.935,-0.025
12.940,0.054
12.945,0.083
12.950,0.084
12.955,0.322
12.960,0.633
12.965,0.705
12.970,0.575
12.975,0.421
12.980,0.372
12.985,0.363
12.990,0.300
12.995,0.254
13.000,0.227
13.005,0.119
13.010,-0.024
13.015,-0.126
13.020,-0.214
13.025,-0.296
13.030,-0.321
13.035,-0.305
13.040,-0.318
13.045,-0.335
13.050,-0.317
13.055,-0.300
13.060,-0.300
13.065,-0.293
13.070,-0.278
13.075,-0.274
13.080,-0.265
13.085,-0.244
13.090,-0.234
13.095,-0.229
13.100,-0.213
13.105,-0.200
13.110,-0.199
13.115,-0.193
13.120,-0.175
13.125,-0.154
13.130,-0.136
13.135,-0.124
13.140,-0.116
13.145,-0.106
13.150,-0.086
13.155,-0.067
13.160,-0.050
13.165,-0.032
13.170,-0.020
13.175,-0.005
13.180,0.018
13.185,0.036
13.190,0.051
13.195,0.065
13.200,0.083
13.205,0.097
13.210,0.105
13.215,0.109
13.220,0.107
13.225,0.106
13.230,0.100
13.235,0.087
13.240,0.076
13.245,0.057
13.250,0.044
13.255,0.045
13.260,0.039
13.265,0.024
13.270,0.006
13.275,-0.014
13.280,-0.031
13.285,-0.042
13.290,-0.046
13.295,-0.049
13.300,-0.055
13.305,-0.062
13.310,-0.059
13.315,-0.051
13.320,-0.047
13.325,-0.048
13.330,-0.047
13.335,-0.044
13.340,-0.048
13.345,-0.051
13.350,-0.050
13.355,-0.047
13.360,-0.042
13.365,-0.030
13.370,-0.013
13.375,-0.011
13.380,-0.013
13.385,-0.014
13.390,-0.016
13.395,-0.018
13.400,-0.018
13.405,-0.013
13.410,-0.008
13.415,-0.007
13.420,-0.006
13.425,-0.002
13.430,0.003
13.435,0.004
13.440,0.002
13.445,-0.002
13.450,-0.007
13.455,-0.009
13.460,-0.006
13.465,-0.001
13.470,0.004
13.475,0.010
13.480,0.014
13.485,0.015
13.490,0.015
13.495,0.015
13.500,0.019
13.505,0.023
13.510,0.024
13.515,0.024
13.520,0.024
13.525,0.023
13.530,0.023
13.535,0.025
13.540,0.027
13.545,0.026
13.550,0.024
13.555,0.025
13.560,0.026
13.565,0.027
13.570,0.029
13.575,0.027
13.580,0.022
13.585,0.015
13.590,0.011
13.595,0.016
13.600,0.022
13.605,0.023
13.610,0.020
13.615,0.018
13.620,0.017
13.625,0.016
13.630,0.019
13.635,0.019
13.640,0.016
13.645,0.008
13.650,-0.001
13.655,-0.008
13.660,-0.013
13.665,-0.011
13.670,-0.009
13.675,-0.014
13.680,-0.027
13.685,-0.044
13.690,-0.060
13.695,-0.084
13.700,-0.099
13.705,-0.087
13.710,-0.067
13.715,-0.048
13.720,-0.029
13.725,-0.012
13.730,0.005
13.735,0.020
13.740,0.029
13.745,0.040
13.750,0.058
13.755,0.069
13.760,0.075
13.765,0.077
13.770,0.072
13.775,0.067
13.780,0.066
13.785,0.068
13.790,0.064
13.795,0.055
13.800,0.048
13.805,0.064
13.810,0.118
13.815,0.175
13.820,0.188
13.825,0.157
13.830,0.090
13.835,0.028
13.840,-0.004
13.845,0.000
13.850,0.075
13.855,0.089
13.860,0.092
13.865,0.342
13.870,0.643
13.875,0.703
13.880,0.563
13.885,0.406
13.890,0.365
13.895,0.347
13.900,0.282
13.905,0.247
13.910,0.222
13.915,0.121
13.920,-0.021
13.925,-0.137
13.930,-0.235
13.935,-0.310
13.940,-0.324
13.945,-0.307
13.950,-0.319
13.955,-0.333
13.960,-0.314
13.965,-0.303
13.970,-0.306
13.975,-0.298
13.980,-0.282
13.985,-0.276
13.990,-0.266
13.995,-0.248
14.000,-0.237
14.005,-0.232
14.010,-0.220
14.015,-0.206
14.020,-0.198
14.025,-0.188
14.030,-0.176
14.035,-0.162
14.040,-0.148
14.045,-0.133
14.050,-0.120
14.055,-0.109
14.060,-0.093
14.065,-0.073
14.070,-0.053
14.075,-0.039
14.080,-0.025
14.085,-0.006
14.090,0.013
14.095,0.030
14.100,0.047
14.105,0.066
14.110,0.081
14.115,0.093
14.120,0.100
14.125,0.104
14.130,0.108
14.135,0.106
14.140,0.099
14.145,0.090
14.150,0.078
14.155,0.064
14.160,0.051
14.165,0.040
14.170,0.030
14.175,0.018
14.180,0.005
14.185,-0.008
14.190,-0.018
14.195,-0.030
14.200,-0.038
14.205,-0.043
14.210,-0.045
14.215,-0.045
14.220,-0.048
14.225,-0.050
14.230,-0.049
14.235,-0.047
14.240,-0.043
14.245,-0.041
14.250,-0.039
14.255,-0.036
14.260,-0.036
14.265,-0.036
14.270,-0.032
14.275,-0.029
14.280,-0.028
14.285,-0.025
14.290,-0.023
14.295,-0.025
14.300,-0.024
14.305,-0.022
14.310,-0.020
14.315,-0.017
14.320,-0.017
14.325,-0.018
14.330,-0.013
14.335,-0.009
14.340,-0.008
14.345,-0.007
14.350,-0.007
14.355,-0.003
14.360,0.001
14.365,0.004
14.370,0.006
14.375,0.007
14.380,0.007
14.385,0.007
14.390,0.008
14.395,0.011
14.400,0.018
14.405,0.024
14.410,0.026
14.415,0.028
14.420,0.029
14.425,0.028
14.430,0.027
14.435,0.027
14.440,0.024
14.445,0.020
14.450,0.021
14.455,0.024
14.460,0.026
14.465,0.028
14.470,0.031
14.475,0.034
14.480,0.032
14.485,0.029
14.490,0.030
14.495,0.031
14.500,0.032
14.505,0.030
14.510,0.023
14.515,0.020
14.520,0.020
14.525,0.021
14.530,0.027
14.535,0.031
14.540,0.033
14.545,0.030
14.550,0.025
14.555,0.023
14.560,0.020
14.565,0.019
14.570,0.021
14.575,0.021
14.580,0.019
14.585,0.022
14.590,0.024
14.595,0.017
14.600,0.004
14.605,-0.007
14.610,-0.008
14.615,-0.007
14.620,-0.013
14.625,-0.021
14.630,-0.029
14.635,-0.037
14.640,-0.052
14.645,-0.077
14.650,-0.096
14.655,-0.088
14.660,-0.064
14.665,-0.039
14.670,-0.017
14.675,-0.002
14.680,0.009
14.685,0.023
14.690,0.027
14.695,0.035
14.700,0.058
14.705,0.074
14.710,0.078
14.715,0.079
14.720,0.074
14.725,0.070
14.730,0.070
14.735,0.064
14.740,0.062
14.745,0.059
14.750,0.049
14.755,0.062
14.760,0.119
14.765,0.177
14.770,0.185
14.775,0.134
14.780,0.049
14.785,-0.009
14.790,-0.030
14.795,-0.003
14.800,0.079
14.805,0.080
14.810,0.125
14.815,0.423
14.820,0.683
14.825,0.676
14.830,0.520
14.835,0.393
14.840,0.375
14.845,0.349
14.850,0.279
14.855,0.252
14.860,0.215
14.865,0.092
14.870,-0.044
14.875,-0.144
14.880,-0.244
14.885,-0.317
14.890,-0.319
14.895,-0.305
14.900,-0.323
14.905,-0.331
14.910,-0.309
14.915,-0.298
14.920,-0.297
14.925,-0.280
14.930,-0.265
14.935,-0.264
14.940,-0.261
14.945,-0.252
14.950,-0.243
14.955,-0.228
14.960,-0.213
14.965,-0.204
14.970,-0.196
14.975,-0.185
14.980,-0.173
14.985,-0.165
14.990,-0.153
14.995,-0.130
15.000,-0.109
15.005,-0.097
15.010,-0.086
15.015,-0.072
15.020,-0.056
15.025,-0.045
15.030,-0.029
15.035,-0.002
15.040,0.024
15.045,0.041
15.050,0.055
15.055,0.068
15.060,0.082
15.065,0.093
15.070,0.100
15.075,0.099
15.080,0.092
15.085,0.090
15.090,0.091
15.095,0.087
15.100,0.075
15.105,0.062
15.110,0.053
15.115,0.041
15.120,0.022
15.125,0.007
15.130,-0.007
15.135,-0.022
15.140,-0.034
15.145,-0.040
15.150,-0.041
15.155,-0.038
15.160,-0.043
15.165,-0.050
15.170,-0.051
15.175,-0.053
15.180,-0.053
15.185,-0.047
15.190,-0.049
15.195,-0.055
15.200,-0.052
15.205,-0.046
15.210,-0.038
15.215,-0.028
15.220,-0.026
15.225,-0.026
15.230,-0.029
15.235,-0.030
15.240,-0.026
15.245,-0.025
15.250,-0.022
15.255,-0.019
15.260,-0.019
15.265,-0.015
15.270,-0.009
15.275,-0.004
15.280,-0.003
15.285,-0.008
15.290,-0.010
15.295,-0.004
15.300,-0.002
15.305,-0.003
15.310,-0.001
15.315,0.003
15.320,0.001
15.325,-0.004
15.330,-0.004
15.335,0.003
15.340,0.011
15.345,0.014
15.350,0.020
15.355,0.026
15.360,0.026
15.365,0.022
15.370,0.020
15.375,0.020
15.380,0.026
15.385,0.029
15.390,0.026
15.395,0.024
15.400,0.024
15.405,0.025
15.410,0.026
15.415,0.027
15.420,0.028
15.425,0.028
15.430,0.026
15.435,0.023
15.440,0.021
15.445,0.022
15.450,0.025
15.455,0.027
15.460,0.025
15.465,0.021
15.470,0.018
15.475,0.016
15.480,0.017
15.485,0.020
15.490,0.018
15.495,0.009
15.500,0.002
15.505,-0.003
15.510,-0.005
15.515,-0.007
15.520,-0.011
15.525,-0.017
15.530,-0.031
15.535,-0.043
15.540,-0.054
15.545,-0.075
15.550,-0.089
15.555,-0.081
15.560,-0.065
15.565,-0.046
15.570,-0.021
15.575,-0.002
15.580,0.012
15.585,0.025
15.590,0.031
15.595,0.047
15.600,0.066
15.605,0.072
15.610,0.075
15.615,0.076
15.620,0.073
15.625,0.071
15.630,0.072
15.635,0.071
15.640,0.068
15.645,0.061
15.650,0.054
15.655,0.075
15.660,0.132
15.665,0.177
15.670,0.178
15.675,0.135
15.680,0.066
15.685,0.015
15.690,-0.009
15.695,0.019
15.700,0.096
15.705,0.083
15.710,0.127
15.715,0.421
15.720,0.681
15.725,0.685
15.730,0.523
15.735,0.391
15.740,0.372
15.745,0.341
15.750,0.274
15.755,0.246
15.760,0.202
15.765,0.082
15.770,-0.052
15.775,-0.155
15.780,-0.247
15.785,-0.313
15.790,-0.316
15.795,-0.303
15.800,-0.321
15.805,-0.328
15.810,-0.307
15.815,-0.300
15.820,-0.304
15.825,-0.289
15.830,-0.271
15.835,-0.268
15.840,-0.261
15.845,-0.247
15.850,-0.239
15.855,-0.230
15.860,-0.219
15.865,-0.211
15.870,-0.201
15.875,-0.186
15.880,-0.172
15.885,-0.158
15.890,-0.143
15.895,-0.128
15.900,-0.113
15.905,-0.098
15.910,-0.083
15.915,-0.065
15.920,-0.050
15.925,-0.034
15.930,-0.015
15.935,0.002
15.940,0.018
15.945,0.035
15.950,0.052
15.955,0.068
15.960,0.082
15.965,0.094
15.970,0.105
15.975,0.112
15.980,0.111
15.985,0.108
15.990,0.102
15.995,0.092
16.000,0.080
16.005,0.065
16.010,0.050
16.015,0.038
16.020,0.027
16.025,0.012
16.030,-0.004
16.035,-0.016
16.040,-0.025
16.045,-0.031
16.050,-0.036
16.055,-0.043
16.060,-0.047
16.065,-0.048
16.070,-0.049
16.075,-0.050
16.080,-0.050
16.085,-0.047
16.090,-0.046
16.095,-0.046
16.100,-0.042
16.105,-0.040
16.110,-0.041
16.115,-0.041
16.120,-0.037
16.125,-0.034
16.130,-0.031
16.135,-0.025
16.140,-0.023
16.145,-0.024
16.150,-0.024
16.155,-0.023
16.160,-0.023
16.165,-0.022
16.170,-0.018
16.175,-0.015
16.180,-0.011
16.185,-0.010
16.190,-0.010
16.195,-0.009
16.200,-0.007
16.205,-0.005
16.210,-0.005
16.215,-0.002
16.220,0.002
16.225,0.002
16.230,0.003
16.235,0.004
16.240,0.008
16.245,0.013
16.250,0.015
16.255,0.015
16.260,0.015
16.265,0.017
16.270,0.022
16.275,0.023
16.280,0.023
16.285,0.025
16.290,0.024
16.295,0.022
16.300,0.024
16.305,0.029
16.310,0.031
16.315,0.031
16.320,0.031
16.325,0.029
16.330,0.030
16.335,0.030
16.340,0.030
16.345,0.031
16.350,0.031
16.355,0.029
16.360,0.028
16.365,0.030
16.370,0.030
16.375,0.030
16.380,0.029
16.385,0.027
16.390,0.026
16.395,0.025
16.400,0.024
16.405,0.022
16.410,0.020
16.415,0.021
16.420,0.019
16.425,0.016
16.430,0.021
16.435,0.025
16.440,0.019
16.445,0.009
16.450,-0.001
16.455,-0.008
16.460,-0.012
16.465,-0.014
16.470,-0.018
16.475,-0.030
16.480,-0.045
16.485,-0.056
16.490,-0.072
16.495,-0.088
16.500,-0.079
16.505,-0.057
16.510,-0.039
16.515,-0.023
16.520,-0.005
16.525,0.013
16.530,0.028
16.535,0.032
16.540,0.040
16.545,0.061
16.550,0.078
16.555,0.088
16.560,0.086
16.565,0.077
16.570,0.069
16.575,0.067
16.580,0.066
16.585,0.067
16.590,0.064
16.595,0.060
16.600,0.087
16.605,0.141
16.610,0.174
16.615,0.170
16.620,0.113
16.625,0.030
16.630,-0.013
16.635,-0.015
16.640,0.050
16.645,0.108
16.650,0.078
16.655,0.225
16.660,0.556
16.665,0.709
16.670,0.620
16.675,0.455
16.680,0.376
16.685,0.380
16.690,0.326
16.695,0.257
16.700,0.242
16.705,0.174
16.710,0.039
16.715,-0.082
16.720,-0.190
16.725,-0.283
16.730,-0.322
16.735,-0.308
16.740,-0.311
16.745,-0.333
16.750,-0.318
16.755,-0.293
16.760,-0.299
16.765,-0.304
16.770,-0.285
16.775,-0.278
16.780,-0.279
16.785,-0.263
16.790,-0.243
16.795,-0.231
16.800,-0.223
16.805,-0.216
16.810,-0.209
16.815,-0.201
16.820,-0.185
16.825,-0.170
16.830,-0.153
16.835,-0.134
16.840,-0.124
16.845,-0.111
16.850,-0.094
16.855,-0.081
16.860,-0.068
16.865,-0.052
16.870,-0.032
16.875,-0.011
16.880,0.009
16.885,0.025
16.890,0.038
16.895,0.052
16.900,0.067
16.905,0.080
16.910,0.090
16.915,0.100
16.920,0.109
16.925,0.107
16.930,0.095
16.935,0.081
16.940,0.073
16.945,0.066
16.950,0.056
16.955,0.047
16.960,0.036
16.965,0.020
16.970,0.009
16.975,-0.005
16.980,-0.022
16.985,-0.035
16.990,-0.048
16.995,-0.049
17.000,-0.042
17.005,-0.043
17.010,-0.047
17.015,-0.048
17.020,-0.049
17.025,-0.049
17.030,-0.051
17.035,-0.051
17.040,-0.047
17.045,-0.037
17.050,-0.032
17.055,-0.034
17.060,-0.036
17.065,-0.039
17.070,-0.036
17.075,-0.030
17.080,-0.026
17.085,-0.021
17.090,-0.018
17.095,-0.016
17.100,-0.014
17.105,-0.014
17.110,-0.016
17.115,-0.017
17.120,-0.014
17.125,-0.008
17.130,-0.003
17.135,-0.001
17.140,-0.002
17.145,-0.003
17.150,-0.003
17.155,-0.003
17.160,-0.003
17.165,0.002
17.170,0.006
17.175,0.008
17.180,0.011
17.185,0.014
17.190,0.015
17.195,0.016
17.200,0.020
17.205,0.023
17.210,0.022
17.215,0.020
17.220,0.019
17.225,0.022
17.230,0.026
17.235,0.029
17.240,0.030
17.245,0.025
17.250,0.025
17.255,0.030
17.260,0.030
17.265,0.027
17.270,0.024
17.275,0.022
17.280,0.024
17.285,0.023
17.290,0.021
17.295,0.021
17.300,0.025
17.305,0.025
17.310,0.020
17.315,0.011
17.320,0.001
17.325,-0.004
17.330,-0.007
17.335,-0.009
17.340,-0.011
17.345,-0.021
17.350,-0.037
17.355,-0.053
17.360,-0.072
17.365,-0.088
17.370,-0.089
17.375,-0.077
17.380,-0.059
17.385,-0.036
17.390,-0.009
17.395,0.010
17.400,0.023
17.405,0.032
17.410,0.041
17.415,0.062
17.420,0.081
17.425,0.083
17.430,0.078
17.435,0.070
17.440,0.064
17.445,0.069
17.450,0.073
17.455,0.069
17.460,0.063
17.465,0.056
17.470,0.059
17.475,0.098
17.480,0.162
17.485,0.195
17.490,0.178
17.495,0.114
17.500,0.043
17.505,0.004
17.510,-0.007
17.515,0.053
17.520,0.104
17.525,0.077
17.530,0.228
17.535,0.553
17.540,0.717
17.545,0.636
17.550,0.458
17.555,0.371
17.560,0.365
17.565,0.313
17.570,0.257
17.575,0.236
17.580,0.165
17.585,0.028
17.590,-0.101
17.595,-0.200
17.600,-0.280
17.605,-0.317
17.610,-0.306
17.615,-0.310
17.620,-0.332
17.625,-0.323
17.630,-0.303
17.635,-0.301
17.640,-0.297
17.645,-0.279
17.650,-0.269
17.655,-0.265
17.660,-0.254
17.665,-0.242
17.670,-0.235
17.675,-0.225
17.680,-0.212
17.685,-0.199
17.690,-0.189
17.695,-0.178
17.700,-0.167
17.705,-0.156
17.710,-0.143
17.715,-0.128
17.720,-0.115
17.725,-0.100
17.730,-0.081
17.735,-0.062
17.740,-0.044
17.745,-0.023
17.750,-0.004
17.755,0.012
17.760,0.028
17.765,0.045
17.770,0.061
17.775,0.075
17.780,0.087
17.785,0.097
17.790,0.103
17.795,0.107
17.800,0.108
17.805,0.106
17.810,0.099
17.815,0.087
17.820,0.072
17.825,0.059
17.830,0.048
17.835,0.035
17.840,0.022
17.845,0.012
17.850,0.004
17.855,-0.008
17.860,-0.019
17.865,-0.025
17.870,-0.031
17.875,-0.039
17.880,-0.044
17.885,-0.044
17.890,-0.043
17.895,-0.042
17.900,-0.041
17.905,-0.038
17.910,-0.038
17.915,-0.040
17.920,-0.039
17.925,-0.040
17.930,-0.038
17.935,-0.032
17.940,-0.025
17.945,-0.021
17.950,-0.021
17.955,-0.023
17.960,-0.024
17.965,-0.021
17.970,-0.019
17.975,-0.017
17.980,-0.014
17.985,-0.013
17.990,-0.012
17.995,-0.011
18.000,-0.011
18.005,-0.010
18.010,-0.012
18.015,-0.010
18.020,-0.007
18.025,-0.006
18.030,-0.003
18.035,-0.001
18.040,0.000
18.045,0.005
18.050,0.010
18.055,0.010
18.060,0.007
18.065,0.008
18.070,0.012
18.075,0.016
18.080,0.018
18.085,0.020
18.090,0.023
18.095,0.023
18.100,0.026
18.105,0.027
18.110,0.027
18.115,0.027
18.120,0.026
18.125,0.024
18.130,0.026
18.135,0.026
18.140,0.022
18.145,0.021
18.150,0.023
18.155,0.027
18.160,0.027
18.165,0.024
18.170,0.024
18.175,0.024
18.180,0.023
18.185,0.020
18.190,0.019
18.195,0.021
18.200,0.022
18.205,0.021
18.210,0.018
18.215,0.018
18.220,0.018
18.225,0.015
18.230,0.014
18.235,0.016
18.240,0.013
18.245,0.008
18.250,0.001
18.255,-0.009
18.260,-0.016
18.265,-0.018
18.270,-0.018
18.275,-0.016
18.280,-0.021
18.285,-0.038
18.290,-0.055
18.295,-0.069
18.300,-0.085
18.305,-0.090
18.310,-0.074
18.315,-0.051
18.320,-0.029
18.325,-0.012
18.330,0.000
18.335,0.014
18.340,0.023
18.345,0.026
18.350,0.046
18.355,0.069
18.360,0.077
18.365,0.080
18.370,0.080
18.375,0.073
18.380,0.066
18.385,0.061
18.390,0.061
18.395,0.062
18.400,0.053
18.405,0.053
18.410,0.097
18.415,0.163
18.420,0.188
18.425,0.163
18.430,0.094
18.435,0.016
18.440,-0.021
18.445,-0.017
18.450,0.060
18.455,0.099
18.460,0.085
18.465,0.292
18.470,0.611
18.475,0.697
18.480,0.572
18.485,0.421
18.490,0.370
18.495,0.369
18.500,0.307
18.505,0.253
18.510,0.235
18.515,0.145
18.520,0.008
18.525,-0.105
18.530,-0.209
18.535,-0.294
18.540,-0.319
18.545,-0.298
18.550,-0.303
18.555,-0.324
18.560,-0.310
18.565,-0.297
18.570,-0.303
18.575,-0.297
18.580,-0.278
18.585,-0.267
18.590,-0.262
18.595,-0.253
18.600,-0.241
18.605,-0.230
18.610,-0.216
18.615,-0.199
18.620,-0.191
18.625,-0.187
18.630,-0.176
18.635,-0.165
18.640,-0.152
18.645,-0.134
18.650,-0.120
18.655,-0.105
18.660,-0.087
18.665,-0.068
18.670,-0.050
18.675,-0.035
18.680,-0.022
18.685,-0.008
18.690,0.009
18.695,0.028
18.700,0.047
18.705,0.065
18.710,0.077
18.715,0.085
18.720,0.091
18.725,0.093
18.730,0.098
18.735,0.101
18.740,0.097
18.745,0.090
18.750,0.080
18.755,0.069
18.760,0.057
18.765,0.041
18.770,0.025
18.775,0.012
18.780,-0.002
18.785,-0.017
18.790,-0.026
18.795,-0.032
18.800,-0.036
18.805,-0.042
18.810,-0.049
18.815,-0.047
18.820,-0.043
18.825,-0.042
18.830,-0.041
18.835,-0.043
18.840,-0.044
18.845,-0.040
18.850,-0.035
18.855,-0.033
18.860,-0.038
18.865,-0.041
18.870,-0.037
18.875,-0.033
18.880,-0.030
18.885,-0.023
18.890,-0.018
18.895,-0.015
18.900,-0.011
18.905,-0.016
18.910,-0.025
18.915,-0.023
18.920,-0.014
18.925,-0.007
18.930,-0.005
18.935,-0.006
18.940,-0.002
18.945,0.001
18.950,0.000
18.955,-0.003
18.960,-0.002
18.965,0.007
18.970,0.013
18.975,0.012
18.980,0.009
18.985,0.010
18.990,0.013
18.995,0.016
19.000,0.020
19.005,0.020
19.010,0.019
19.015,0.023
19.020,0.029
19.025,0.032
19.030,0.028
19.035,0.023
19.040,0.023
19.045,0.029
19.050,0.034
19.055,0.033
19.060,0.031
19.065,0.028
19.070,0.025
19.075,0.027
19.080,0.028
19.085,0.027
19.090,0.027
19.095,0.023
19.100,0.020
19.105,0.021
19.110,0.022
19.115,0.020
19.120,0.017
19.125,0.016
19.130,0.016
19.135,0.013
19.140,0.002
19.145,-0.007
19.150,-0.009
19.155,-0.010
19.160,-0.013
19.165,-0.016
19.170,-0.026
19.175,-0.043
19.180,-0.060
19.185,-0.080
19.190,-0.093
19.195,-0.086
19.200,-0.069
19.205,-0.050
19.210,-0.028
19.215,-0.005
19.220,0.014
19.225,0.027
19.230,0.032
19.235,0.042
19.240,0.061
19.245,0.072
19.250,0.074
19.255,0.074
19.260,0.069
19.265,0.066
19.270,0.067
19.275,0.068
19.280,0.068
19.285,0.065
19.290,0.054
19.295,0.065
19.300,0.118
19.305,0.168
19.310,0.175
19.315,0.144
19.320,0.080
19.325,0.022
19.330,-0.009
19.335,0.006
19.340,0.084
19.345,0.094
19.350,0.101
19.355,0.350
19.360,0.643
19.365,0.709
19.370,0.571
19.375,0.412
19.380,0.369
19.385,0.344
19.390,0.277
19.395,0.242
19.400,0.212
19.405,0.108
19.410,-0.032
19.415,-0.144
19.420,-0.236
19.425,-0.307
19.430,-0.321
19.435,-0.307
19.440,-0.321
19.445,-0.331
19.450,-0.310
19.455,-0.300
19.460,-0.307
19.465,-0.298
19.470,-0.281
19.475,-0.278
19.480,-0.270
19.485,-0.252
19.490,-0.243
19.495,-0.236
19.500,-0.220
19.505,-0.202
19.510,-0.191
19.515,-0.181
19.520,-0.172
19.525,-0.164
19.530,-0.151
19.535,-0.137
19.540,-0.124
19.545,-0.110
19.550,-0.090
19.555,-0.071
19.560,-0.055
19.565,-0.037
19.570,-0.020
19.575,-0.008
19.580,0.007
19.585,0.024
19.590,0.042
19.595,0.062
19.600,0.076
19.605,0.087
19.610,0.095
19.615,0.104
19.620,0.111
19.625,0.109
19.630,0.103
19.635,0.097
19.640,0.086
19.645,0.071
19.650,0.057
19.655,0.045
19.660,0.032
19.665,0.021
19.670,0.008
19.675,-0.005
19.680,-0.015
19.685,-0.023
19.690,-0.028
19.695,-0.033
19.700,-0.037
19.705,-0.040
19.710,-0.041
19.715,-0.040
19.720,-0.038
19.725,-0.037
19.730,-0.037
19.735,-0.036
19.740,-0.035
19.745,-0.033
19.750,-0.031
19.755,-0.030
19.760,-0.029
19.765,-0.026
19.770,-0.022
19.775,-0.021
19.780,-0.019
19.785,-0.016
19.790,-0.014
19.795,-0.014
19.800,-0.015
19.805,-0.014
19.810,-0.009
19.815,-0.006
19.820,-0.004
19.825,-0.006
19.830,-0.007
19.835,-0.005
19.840,-0.005
19.845,-0.005
19.850,-0.005
19.855,-0.003
19.860,0.000
19.865,0.002
19.870,0.004
19.875,0.006
19.880,0.008
19.885,0.013
19.890,0.015
19.895,0.017
19.900,0.019
19.905,0.019
19.910,0.018
19.915,0.020
19.920,0.024
19.925,0.026
19.930,0.026
19.935,0.028
19.940,0.026
19.945,0.026
19.950,0.029
19.955,0.029
19.960,0.027
19.965,0.027
19.970,0.027
19.975,0.027
19.980,0.028
19.985,0.027
19.990,0.024
19.995,0.024
20.000,0.023
20.005,0.023
20.010,0.022
20.015,0.020
20.020,0.019
20.025,0.021
20.030,0.020
20.035,0.012
20.040,-0.001
20.045,-0.012
20.050,-0.014
20.055,-0.012
20.060,-0.011
20.065,-0.018
20.070,-0.035
20.075,-0.051
20.080,-0.068
20.085,-0.087
20.090,-0.089
20.095,-0.073
20.100,-0.051
20.105,-0.031
20.110,-0.011
20.115,0.008
20.120,0.025
20.125,0.032
20.130,0.038
20.135,0.057
20.140,0.074
20.145,0.077
20.150,0.077
20.155,0.075
20.160,0.073
20.165,0.073
20.170,0.072
20.175,0.068
20.180,0.062
20.185,0.051
20.190,0.052
20.195,0.097
20.200,0.159
20.205,0.181
20.210,0.153
20.215,0.086
20.220,0.017
20.225,-0.018
20.230,-0.015
20.235,0.060
20.240,0.094
20.245,0.087
20.250,0.310
20.255,0.621
20.260,0.697
20.265,0.561
20.270,0.400
20.275,0.355
20.280,0.359
20.285,0.300
20.290,0.256
20.295,0.239
20.300,0.142
20.305,-0.002
20.310,-0.117
20.315,-0.213
20.320,-0.291
20.325,-0.316
20.330,-0.299
20.335,-0.308
20.340,-0.329
20.345,-0.315
20.350,-0.300
20.355,-0.304
20.360,-0.297
20.365,-0.275
20.370,-0.265
20.375,-0.263
20.380,-0.253
20.385,-0.243
20.390,-0.234
20.395,-0.217
20.400,-0.204
20.405,-0.196
20.410,-0.185
20.415,-0.173
20.420,-0.164
20.425,-0.153
20.430,-0.139
20.435,-0.122
20.440,-0.103
20.445,-0.085
20.450,-0.066
20.455,-0.052
20.460,-0.041
20.465,-0.028
20.470,-0.012
20.475,0.006
20.480,0.028
20.485,0.049
20.490,0.063
20.495,0.076
20.500,0.086
20.505,0.094
20.510,0.101
20.515,0.099
20.520,0.092
20.525,0.086
20.530,0.078
20.535,0.070
20.540,0.058
20.545,0.041
20.550,0.030
20.555,0.023
20.560,0.013
20.565,0.003
20.570,-0.007
20.575,-0.017
20.580,-0.023
20.585,-0.030
20.590,-0.039
20.595,-0.044
20.600,-0.043
20.605,-0.042
20.610,-0.045
20.615,-0.050
20.620,-0.049
20.625,-0.044
20.630,-0.040
20.635,-0.034
20.640,-0.031
20.645,-0.030
20.650,-0.028
20.655,-0.027
20.660,-0.027
20.665,-0.022
20.670,-0.020
20.675,-0.021
20.680,-0.015
20.685,-0.011
20.690,-0.014
20.695,-0.013
20.700,-0.011
20.705,-0.013
20.710,-0.012
20.715,-0.008
20.720,-0.008
20.725,-0.003
20.730,0.002
20.735,0.004
20.740,0.007
20.745,0.008
20.750,0.013
20.755,0.021
20.760,0.021
20.765,0.017
20.770,0.013
20.775,0.010
20.780,0.011
20.785,0.018
20.790,0.022
20.795,0.023
20.800,0.025
20.805,0.028
20.810,0.029
20.815,0.030
20.820,0.029
20.825,0.029
20.830,0.030
20.835,0.028
20.840,0.024
20.845,0.025
20.850,0.031
20.855,0.037
20.860,0.035
20.865,0.027
20.870,0.023
20.875,0.021
20.880,0.024
20.885,0.027
20.890,0.025
20.895,0.021
20.900,0.018
20.905,0.015
20.910,0.018
20.915,0.019
20.920,0.020
20.925,0.025
20.930,0.026
20.935,0.016
20.940,0.001
20.945,-0.009
20.950,-0.007
20.955,-0.002
20.960,-0.008
20.965,-0.013
20.970,-0.015
20.975,-0.030
20.980,-0.042
20.985,-0.050
20.990,-0.071
20.995,-0.093
21.000,-0.093
21.005,-0.077
21.010,-0.056
21.015,-0.030
21.020,-0.013
21.025,0.000
21.030,0.018
21.035,0.031
21.040,0.053
21.045,0.071
21.050,0.072
21.055,0.073
21.060,0.078
21.065,0.079
21.070,0.074
21.075,0.070
21.080,0.065
21.085,0.060
21.090,0.052
21.095,0.043
21.100,0.067
21.105,0.127
21.110,0.170
21.115,0.169
21.120,0.126
21.125,0.059
21.130,0.010
21.135,-0.015
21.140,0.018
21.145,0.094
21.150,0.081
21.155,0.140
21.160,0.439
21.165,0.694
21.170,0.696
21.175,0.528
21.180,0.399
21.185,0.380
21.190,0.337
21.195,0.266
21.200,0.238
21.205,0.187
21.210,0.063
21.215,-0.071
21.220,-0.173
21.225,-0.264
21.230,-0.326
21.235,-0.321
21.240,-0.305
21.245,-0.326
21.250,-0.334
21.255,-0.314
21.260,-0.309
21.265,-0.310
21.270,-0.294
21.275,-0.281
21.280,-0.277
21.285,-0.265
21.290,-0.250
21.295,-0.242
21.300,-0.233
21.305,-0.223
21.310,-0.214
21.315,-0.202
21.320,-0.189
21.325,-0.176
21.330,-0.163
21.335,-0.149
21.340,-0.135
21.345,-0.122
21.350,-0.107
21.355,-0.090
21.360,-0.073
21.365,-0.056
21.370,-0.038
21.375,-0.020
21.380,-0.003
21.385,0.014
21.390,0.027
21.395,0.040
21.400,0.058
21.405,0.076
21.410,0.089
21.415,0.099
21.420,0.104
21.425,0.104
21.430,0.099
21.435,0.093
21.440,0.084
21.445,0.072
21.450,0.060
21.455,0.049
21.460,0.039
21.465,0.027
21.470,0.014
21.475,0.004
21.480,-0.003
21.485,-0.014
21.490,-0.024
21.495,-0.029
21.500,-0.032
21.505,-0.035
21.510,-0.040
21.515,-0.041
21.520,-0.039
21.525,-0.039
21.530,-0.038
21.535,-0.032
21.540,-0.029
21.545,-0.030
21.550,-0.029
21.555,-0.030
21.560,-0.029
21.565,-0.026
21.570,-0.024
21.575,-0.022
21.580,-0.022
21.585,-0.020
21.590,-0.016
21.595,-0.014
21.600,-0.012
21.605,-0.009
21.610,-0.008
21.615,-0.006
21.620,-0.008
21.625,-0.011
21.630,-0.008
21.635,-0.004
21.640,-0.001
21.645,0.000
21.650,0.001
21.655,0.001
21.660,0.001
21.665,0.003
21.670,0.005
21.675,0.005
21.680,0.005
21.685,0.006
21.690,0.010
21.695,0.016
21.700,0.017
21.705,0.016
21.710,0.016
21.715,0.019
21.720,0.022
21.725,0.023
21.730,0.024
21.735,0.024
21.740,0.026
21.745,0.026
21.750,0.027
21.755,0.026
21.760,0.026
21.765,0.029
21.770,0.031
21.775,0.030
21.780,0.028
21.785,0.026
21.790,0.023
21.795,0.024
21.800,0.027
21.805,0.026
21.810,0.024
21.815,0.026
21.820,0.026
21.825,0.025
21.830,0.023
21.835,0.022
21.840,0.022
21.845,0.018
21.850,0.015
21.855,0.007
21.860,-0.008
21.865,-0.014
21.870,-0.013
21.875,-0.013
21.880,-0.014
21.885,-0.023
21.890,-0.039
21.895,-0.053
21.900,-0.071
21.905,-0.090
21.910,-0.089
21.915,-0.068
21.920,-0.047
21.925,-0.028
21.930,-0.010
21.935,0.006
21.940,0.023
21.945,0.034
21.950,0.042
21.955,0.061
21.960,0.075
21.965,0.079
21.970,0.080
21.975,0.075
21.980,0.070
21.985,0.072
21.990,0.070
21.995,0.064
22.000,0.058
22.005,0.050
22.010,0.059
22.015,0.112
22.020,0.169
22.025,0.182
22.030,0.150
22.035,0.078
22.040,0.010
22.045,-0.018
22.050,-0.002
22.055,0.081
22.060,0.098
22.065,0.100
22.070,0.355
22.075,0.654
22.080,0.699
22.085,0.552
22.090,0.398
22.095,0.367
22.100,0.360
22.105,0.290
22.110,0.251
22.115,0.230
22.120,0.125
22.125,-0.018
22.130,-0.126
22.135,-0.221
22.140,-0.301
22.145,-0.320
22.150,-0.302
22.155,-0.315
22.160,-0.329
22.165,-0.311
22.170,-0.298
22.175,-0.301
22.180,-0.292
22.185,-0.281
22.190,-0.280
22.195,-0.268
22.200,-0.248
22.205,-0.237
22.210,-0.231
22.215,-0.221
22.220,-0.211
22.225,-0.200
22.230,-0.185
22.235,-0.170
22.240,-0.159
22.245,-0.145
22.250,-0.127
22.255,-0.116
22.260,-0.107
22.265,-0.092
22.270,-0.075
22.275,-0.060
22.280,-0.044
22.285,-0.025
22.290,-0.003
22.295,0.017
22.300,0.036
22.305,0.051
22.310,0.060
22.315,0.072
22.320,0.086
22.325,0.093
22.330,0.094
22.335,0.093
22.340,0.088
22.345,0.082
22.350,0.075
22.355,0.065
22.360,0.055
22.365,0.045
22.370,0.033
22.375,0.020
22.380,0.006
22.385,-0.004
22.390,-0.012
22.395,-0.017
22.400,-0.025
22.405,-0.034
22.410,-0.037
22.415,-0.040
22.420,-0.049
22.425,-0.056
22.430,-0.053
22.435,-0.043
22.440,-0.038
22.445,-0.039
22.450,-0.036
22.455,-0.033
22.460,-0.032
22.465,-0.030
22.470,-0.028
22.475,-0.028
22.480,-0.029
22.485,-0.026
22.490,-0.022
22.495,-0.022
22.500,-0.023
22.505,-0.020
22.510,-0.014
22.515,-0.009
22.520,-0.005
22.525,-0.006
22.530,-0.010
22.535,-0.012
22.540,-0.008
22.545,0.002
22.550,0.008
22.555,0.008
22.560,0.007
22.565,0.008
22.570,0.009
22.575,0.011
22.580,0.011
22.585,0.011
22.590,0.013
22.595,0.019
22.600,0.023
22.605,0.021
22.610,0.019
22.615,0.025
22.620,0.033
22.625,0.034
22.630,0.034
22.635,0.033
22.640,0.029
22.645,0.029
22.650,0.027
22.655,0.025
22.660,0.023
22.665,0.024
22.670,0.033
22.675,0.038
22.680,0.036
22.685,0.032
22.690,0.028
22.695,0.026
22.700,0.027
22.705,0.025
22.710,0.024
22.715,0.022
22.720,0.022
22.725,0.025
22.730,0.027
22.735,0.023
22.740,0.020
22.745,0.020
22.750,0.020
22.755,0.017
22.760,0.009
22.765,0.005
22.770,0.009
22.775,0.007
22.780,0.006
22.785,0.006
22.790,0.001
22.795,-0.009
22.800,-0.016
22.805,-0.025
22.810,-0.038
22.815,-0.047
22.820,-0.066
22.825,-0.092
22.830,-0.100
22.835,-0.085
22.840,-0.064
22.845,-0.039
22.850,-0.009
22.855,0.012
22.860,0.023
22.865,0.029
22.870,0.034
22.875,0.053
22.880,0.069
22.885,0.071
22.890,0.069
22.895,0.069
22.900,0.066
22.905,0.063
22.910,0.064
22.915,0.064
22.920,0.062
22.925,0.052
22.930,0.045
22.935,0.079
22.940,0.141
22.945,0.174
22.950,0.164
22.955,0.108
22.960,0.033
22.965,-0.009
22.970,-0.017
22.975,0.048
22.980,0.109
22.985,0.073
22.990,0.189
22.995,0.516
23.000,0.721
23.005,0.669
23.010,0.490
23.015,0.388
23.020,0.371
23.025,0.319
23.030,0.261
23.035,0.235
23.040,0.165
23.045,0.033
23.050,-0.093
23.055,-0.193
23.060,-0.280
23.065,-0.318
23.070,-0.300
23.075,-0.300
23.080,-0.332
23.085,-0.333
23.090,-0.311
23.095,-0.306
23.100,-0.303
23.105,-0.286
23.110,-0.274
23.115,-0.271
23.120,-0.259
23.125,-0.247
23.130,-0.241
23.135,-0.230
23.140,-0.217
23.145,-0.209
23.150,-0.199
23.155,-0.186
23.160,-0.172
23.165,-0.158
23.170,-0.144
23.175,-0.133
23.180,-0.120
23.185,-0.103
23.190,-0.085
23.195,-0.069
23.200,-0.052
23.205,-0.037
23.210,-0.018
23.215,0.000
23.220,0.014
23.225,0.028
23.230,0.040
23.235,0.054
23.240,0.070
23.245,0.084
23.250,0.096
23.255,0.104
23.260,0.104
23.265,0.099
23.270,0.094
23.275,0.085
23.280,0.072
23.285,0.058
23.290,0.045
23.295,0.036
23.300,0.030
23.305,0.019
23.310,0.009
23.315,0.000
23.320,-0.014
23.325,-0.027
23.330,-0.033
23.335,-0.035
23.340,-0.037
23.345,-0.039
23.350,-0.039
23.355,-0.036
23.360,-0.036
23.365,-0.038
23.370,-0.038
23.375,-0.038
23.380,-0.038
23.385,-0.034
23.390,-0.030
23.395,-0.028
23.400,-0.026
23.405,-0.022
23.410,-0.017
23.415,-0.016
23.420,-0.019
23.425,-0.020
23.430,-0.018
23.435,-0.016
23.440,-0.015
23.445,-0.011
23.450,-0.009
23.455,-0.010
23.460,-0.011
23.465,-0.008
23.470,-0.002
23.475,-0.004
23.480,-0.005
23.485,-0.001
23.490,0.002
23.495,0.003
23.500,0.000
23.505,-0.001
23.510,0.003
23.515,0.006
23.520,0.004
23.525,0.005
23.530,0.009
23.535,0.013
23.540,0.012
23.545,0.015
23.550,0.021
23.555,0.021
23.560,0.021
23.565,0.023
23.570,0.025
23.575,0.024
23.580,0.022
23.585,0.023
23.590,0.025
23.595,0.025
23.600,0.026
23.605,0.022
23.610,0.020
23.615,0.020
23.620,0.022
23.625,0.023
23.630,0.022
23.635,0.024
23.640,0.025
23.645,0.023
23.650,0.021
23.655,0.020
23.660,0.020
23.665,0.014
23.670,0.004
23.675,-0.007
23.680,-0.014
23.685,-0.014
23.690,-0.011
23.695,-0.014
23.700,-0.030
23.705,-0.045
23.710,-0.060
23.715,-0.078
23.720,-0.088
23.725,-0.080
23.730,-0.058
23.735,-0.035
23.740,-0.016
23.745,0.002
23.750,0.021
23.755,0.030
23.760,0.033
23.765,0.050
23.770,0.070
23.775,0.071
23.780,0.053
23.785,0.026
23.790,0.009
23.795,0.014
23.800,0.023
23.805,0.024
23.810,0.014
23.815,0.016
23.820,0.039
23.825,0.081
23.830,0.154
23.835,0.201
23.840,0.172
23.845,0.099
23.850,0.026
23.855,-0.022
23.860,-0.031
23.865,0.037
23.870,0.159
23.875,0.194
23.880,0.285
23.885,0.565
23.890,0.710
23.895,0.585
23.900,0.405
23.905,0.356
23.910,0.396
23.915,0.339
23.920,0.230
23.925,0.220
23.930,0.227
23.935,0.147
23.940,0.024
23.945,-0.105
23.950,-0.235
23.955,-0.308
23.960,-0.285
23.965,-0.250
23.970,-0.289
23.975,-0.335
23.980,-0.336
23.985,-0.351
23.990,-0.346
23.995,-0.274
24.000,-0.256
24.005,-0.325
24.010,-0.326
24.015,-0.231
24.020,-0.185
24.025,-0.225
24.030,-0.240
24.035,-0.197
24.040,-0.210
24.045,-0.285
24.050,-0.246
24.055,-0.082
24.060,-0.005
24.065,-0.098
24.070,-0.173
24.075,-0.117
24.080,-0.076
24.085,-0.106
24.090,-0.098
24.095,-0.049
24.100,-0.013
24.105,0.000
24.110,0.005
24.115,0.024
24.120,0.032
24.125,0.046
24.130,0.103
24.135,0.161
24.140,0.163
24.145,0.109
24.150,0.046
24.155,0.075
24.160,0.178
24.165,0.161
24.170,0.053
24.175,0.011
24.180,0.054
24.185,0.112
24.190,0.062
24.195,-0.024
24.200,-0.022
24.205,-0.040
24.210,-0.088
24.215,-0.023
24.220,0.065
24.225,0.071
24.230,0.017
24.235,-0.058
24.240,-0.045
24.245,-0.003
24.250,-0.024
24.255,-0.043
24.260,-0.059
24.265,-0.071
24.270,-0.078
24.275,-0.097
24.280,-0.089
24.285,-0.065
24.290,-0.025
24.295,0.046
24.300,0.051
24.305,0.012
24.310,0.019
24.315,0.033
24.320,0.021
24.325,-0.019
24.330,-0.064
24.335,-0.039
24.340,0.004
24.345,-0.046
24.350,-0.104
24.355,-0.084
24.360,-0.018
24.365,0.087
24.370,0.128
24.375,0.053
24.380,0.009
24.385,0.041
24.390,0.098
24.395,0.099
24.400,0.017
24.405,-0.014
24.410,0.021
24.415,0.021
24.420,-0.025
24.425,-0.064
24.430,-0.013
24.435,0.105
24.440,0.149
24.445,0.099
24.450,0.044
24.455,0.030
24.460,0.065
24.465,0.071
24.470,0.018
24.475,-0.002
24.480,0.000
24.485,-0.023
24.490,-0.014
24.495,0.027
24.500,0.065
24.505,0.076
24.510,0.020
24.515,-0.016
24.520,0.029
24.525,0.065
24.530,0.047
24.535,-0.012
24.540,-0.053
24.545,-0.011
24.550,0.025
24.555,-0.034
24.560,-0.077
24.565,-0.019
24.570,0.054
24.575,0.063
24.580,0.013
24.585,-0.046
24.590,-0.070
24.595,-0.066
24.600,-0.050
24.605,-0.045
24.610,-0.075
24.615,-0.126
24.620,-0.134
24.625,-0.031
24.630,0.078
24.635,0.092
24.640,0.045
24.645,0.007
24.650,0.043
24.655,0.095
24.660,0.086
24.665,0.060
24.670,0.057
24.675,0.037
24.680,0.000
24.685,0.017
24.690,0.091
24.695,0.110
24.700,0.050
24.705,0.003
24.710,0.042
24.715,0.133
24.720,0.189
24.725,0.207
24.730,0.151
24.735,0.038
24.740,-0.039
24.745,-0.047
24.750,0.067
24.755,0.136
24.760,0.084
24.765,0.230
24.770,0.559
24.775,0.750
24.780,0.682
24.785,0.480
24.790,0.351
24.795,0.309
24.800,0.297
24.805,0.295
24.810,0.258
24.815,0.143
24.820,-0.041
24.825,-0.194
24.830,-0.276
24.835,-0.326
24.840,-0.335
24.845,-0.320
24.850,-0.344
24.855,-0.349
24.860,-0.290
24.865,-0.245
24.870,-0.275
24.875,-0.330
24.880,-0.341
24.885,-0.301
24.890,-0.241
24.895,-0.216
24.900,-0.232
24.905,-0.274
24.910,-0.309
24.915,-0.280
24.920,-0.215
24.925,-0.175
24.930,-0.198
24.935,-0.253
24.940,-0.196
24.945,-0.070
24.950,-0.042
24.955,-0.089
24.960,-0.133
24.965,-0.132
24.970,-0.108
24.975,-0.118
24.980,-0.082
24.985,0.025
24.990,0.076
24.995,0.050
25.000,0.024
25.005,0.014
25.010,0.044
25.015,0.086
25.020,0.071
25.025,0.070
25.030,0.095
25.035,0.094
25.040,0.116
25.045,0.127
25.050,0.090
25.055,0.054
25.060,0.021
25.065,0.006
25.070,0.007
25.075,-0.018
25.080,-0.028
25.085,0.005
25.090,0.028
25.095,0.029
25.100,0.021
25.105,-0.007
25.110,-0.037
25.115,-0.040
25.120,-0.013
25.125,-0.017
25.130,-0.092
25.135,-0.151
25.140,-0.095
25.145,0.006
25.150,0.019
25.155,-0.028
25.160,-0.041
25.165,-0.033
25.170,-0.029
25.175,0.002
25.180,0.008
25.185,-0.040
25.190,-0.067
25.195,-0.015
25.200,0.067
25.205,0.054
25.210,-0.031
25.215,-0.065
25.220,-0.031
25.225,0.017
25.230,0.033
25.235,0.024
25.240,-0.005
25.245,-0.046
25.250,-0.055
25.255,-0.053
25.260,-0.047
25.265,0.015
25.270,0.072
25.275,0.063
25.280,0.034
25.285,0.001
25.290,-0.003
25.295,0.030
25.300,0.044
25.305,0.033
25.310,-0.007
25.315,-0.046
25.320,-0.015
25.325,0.022
25.330,0.009
25.335,0.000
25.340,0.030
25.345,0.068
25.350,0.049
25.355,-0.008
25.360,-0.012
25.365,0.015
25.370,-0.007
25.375,-0.055
25.380,-0.062
25.385,-0.017
25.390,0.060
25.395,0.116
25.400,0.103
25.405,0.077
25.410,0.045
25.415,0.000
25.420,-0.021
25.425,-0.041
25.430,-0.022
25.435,0.014
25.440,-0.011
25.445,-0.032
25.450,-0.034
25.455,-0.050
25.460,-0.065
25.465,-0.086
25.470,-0.089
25.475,-0.040
25.480,-0.005
25.485,-0.044
25.490,-0.077
25.495,-0.025
25.500,0.041
25.505,0.021
25.510,-0.034
25.515,0.004
25.520,0.104
25.525,0.123
25.530,0.086
25.535,0.089
25.540,0.108
25.545,0.079
25.550,0.048
25.555,0.088
25.560,0.116
25.565,0.067
25.570,0.021
25.575,0.044
25.580,0.089
25.585,0.104
25.590,0.145
25.595,0.193
25.600,0.126
25.605,-0.004
25.610,-0.048
25.615,0.042
25.620,0.143
25.625,0.080
25.630,0.097
25.635,0.435
25.640,0.718
25.645,0.655
25.650,0.436
25.655,0.335
25.660,0.393
25.665,0.415
25.670,0.344
25.675,0.308
25.680,0.268
25.685,0.135
25.690,-0.018
25.695,-0.148
25.700,-0.268
25.705,-0.366
25.710,-0.421
25.715,-0.415
25.720,-0.340
25.725,-0.264
25.730,-0.236
25.735,-0.252
25.740,-0.285
25.745,-0.259
25.750,-0.234
25.755,-0.267
25.760,-0.277
25.765,-0.275
25.770,-0.269
25.775,-0.237
25.780,-0.205
25.785,-0.195
25.790,-0.222
25.795,-0.221
25.800,-0.139
25.805,-0.094
25.810,-0.118
25.815,-0.131
25.820,-0.111
25.825,-0.092
25.830,-0.121
25.835,-0.153
25.840,-0.086
25.845,0.029
25.850,0.074
25.855,0.038
25.860,-0.015
25.865,-0.023
25.870,0.025
25.875,0.103
25.880,0.152
25.885,0.129
25.890,0.078
25.895,0.023
25.900,0.014
25.905,0.079
25.910,0.135
25.915,0.133
25.920,0.080
25.925,0.010
25.930,0.005
25.935,0.045
25.940,0.044
25.945,-0.007
25.950,-0.062
25.955,-0.046
25.960,0.001
25.965,0.001
25.970,-0.041
25.975,-0.055
25.980,-0.023
25.985,-0.025
25.990,-0.056
25.995,-0.072
26.000,-0.070
26.005,-0.053
26.010,-0.035
26.015,-0.013
26.020,-0.011
26.025,-0.059
26.030,-0.086
26.035,-0.045
26.040,-0.030
26.045,-0.040
26.050,-0.032
26.055,-0.010
26.060,0.045
26.065,0.077
26.070,0.017
26.075,-0.065
26.080,-0.075
26.085,-0.033
26.090,0.014
26.095,0.041
26.100,0.017
26.105,-0.013
26.110,-0.011
26.115,-0.019
26.120,-0.016
26.125,0.013
26.130,0.030
26.135,0.045
26.140,0.055
26.145,0.016
26.150,-0.047
26.155,-0.054
26.160,0.015
26.165,0.082
26.170,0.080
26.175,0.018
26.180,-0.026
26.185,-0.004
26.190,0.047
26.195,0.077
26.200,0.056
26.205,-0.006
26.210,-0.032
26.215,0.030
26.220,0.088
26.225,0.067
26.230,0.032
26.235,0.028
26.240,0.033
26.245,0.006
26.250,-0.015
26.255,0.037
26.260,0.090
26.265,0.072
26.270,0.030
26.275,-0.004
26.280,-0.001
26.285,0.036
26.290,0.029
26.295,-0.010
26.300,-0.012
26.305,0.015
26.310,0.031
26.315,0.009
26.320,-0.027
26.325,-0.030
26.330,-0.015
26.335,-0.017
26.340,-0.016
26.345,-0.039
26.350,-0.115
26.355,-0.165
26.360,-0.120
26.365,-0.039
26.370,0.007
26.375,0.016
26.380,0.006
26.385,0.009
26.390,0.025
26.395,0.024
26.400,0.016
26.405,0.035
26.410,0.087
26.415,0.131
26.420,0.120
26.425,0.085
26.430,0.083
26.435,0.070
26.440,0.043
26.445,0.063
26.450,0.087
26.455,0.061
26.460,0.042
26.465,0.083
26.470,0.168
26.475,0.217
26.480,0.149
26.485,0.032
26.490,-0.010
26.495,-0.005
26.500,0.041
26.505,0.088
26.510,0.045
26.515,0.139
26.520,0.471
26.525,0.700
26.530,0.677
26.535,0.538
26.540,0.454
26.545,0.432
26.550,0.359
26.555,0.289
26.560,0.272
26.565,0.200
26.570,0.051
26.575,-0.078
26.580,-0.156
26.585,-0.228
26.590,-0.332
26.595,-0.391
26.600,-0.353
26.605,-0.302
26.610,-0.269
26.615,-0.249
26.620,-0.290
26.625,-0.335
26.630,-0.315
26.635,-0.283
26.640,-0.271
26.645,-0.254
26.650,-0.253
26.655,-0.275
26.660,-0.289
26.665,-0.228
26.670,-0.138
26.675,-0.123
26.680,-0.150
26.685,-0.182
26.690,-0.177
26.695,-0.144
26.700,-0.153
26.705,-0.143
26.710,-0.104
26.715,-0.094
26.720,-0.106
26.725,-0.108
26.730,-0.067
26.735,0.008
26.740,0.059
26.745,0.052
26.750,0.031
26.755,0.054
26.760,0.090
26.765,0.080
26.770,0.060
26.775,0.081
26.780,0.104
26.785,0.098
26.790,0.078
26.795,0.061
26.800,0.051
26.805,0.023
26.810,-0.004
26.815,0.027
26.820,0.073
26.825,0.078
26.830,0.040
26.835,-0.018
26.840,-0.023
26.845,0.008
26.850,0.007
26.855,-0.022
26.860,-0.057
26.865,-0.057
26.870,-0.038
26.875,-0.050
26.880,-0.066
26.885,-0.050
26.890,-0.047
26.895,-0.099
26.900,-0.110
26.905,-0.017
26.910,0.082
26.915,0.097
26.920,0.038
26.925,-0.025
26.930,-0.038
26.935,-0.048
26.940,-0.081
26.945,-0.069
26.950,-0.031
26.955,-0.039
26.960,-0.039
26.965,-0.016
26.970,-0.004
26.975,0.048
26.980,0.083
26.985,0.053
26.990,0.019
26.995,-0.010
27.000,-0.024
27.005,-0.022
27.010,-0.017
27.015,0.003
27.020,0.016
27.025,-0.018
27.030,-0.064
27.035,-0.048
27.040,0.019
27.045,0.073
27.050,0.063
27.055,0.019
27.060,0.005
27.065,0.027
27.070,0.050
27.075,0.039
27.080,0.022
27.085,0.016
27.090,0.016
27.095,0.024
27.100,0.017
27.105,-0.025
27.110,-0.072
27.115,-0.071
27.120,-0.024
27.125,0.024
27.130,0.048
27.135,0.051
27.140,0.061
27.145,0.076
27.150,0.071
27.155,0.048
27.160,0.023
27.165,0.001
27.170,-0.016
27.175,-0.004
27.180,0.014
27.185,-0.008
27.190,-0.080
27.195,-0.139
27.200,-0.091
27.205,-0.013
27.210,-0.023
27.215,-0.081
27.220,-0.107
27.225,-0.074
27.230,-0.028
27.235,-0.007
27.240,0.004
27.245,0.003
27.250,-0.011
27.255,0.012
27.260,0.077
27.265,0.124
27.270,0.119
27.275,0.062
27.280,0.015
27.285,0.049
27.290,0.106
27.295,0.110
27.300,0.075
27.305,0.027
27.310,0.000
27.315,0.028
27.320,0.099
27.325,0.176
27.330,0.209
27.335,0.179
27.340,0.119
27.345,0.065
27.350,0.018
27.355,-0.028
27.360,0.027
27.365,0.087
27.370,-0.012
27.375,0.094
27.380,0.529
27.385,0.809
27.390,0.743
27.395,0.494
27.400,0.309
27.405,0.303
27.410,0.325
27.415,0.306
27.420,0.263
27.425,0.130
27.430,-0.015
27.435,-0.045
27.440,-0.072
27.445,-0.182
27.450,-0.281
27.455,-0.303
27.460,-0.305
27.465,-0.339
27.470,-0.345
27.475,-0.313
27.480,-0.323
27.485,-0.322
27.490,-0.268
27.495,-0.272
27.500,-0.304
27.505,-0.281
27.510,-0.244
27.515,-0.203
27.520,-0.178
27.525,-0.187
27.530,-0.220
27.535,-0.257
27.540,-0.230
27.545,-0.149
27.550,-0.135
27.555,-0.190
27.560,-0.184
27.565,-0.135
27.570,-0.093
27.575,-0.058
27.580,-0.055
27.585,-0.046
27.590,-0.074
27.595,-0.091
27.600,0.009
27.605,0.097
27.610,0.103
27.615,0.066
27.620,0.022
27.625,0.037
27.630,0.081
27.635,0.069
27.640,0.045
27.645,0.097
27.650,0.159
27.655,0.156
27.660,0.066
27.665,-0.068
27.670,-0.073
27.675,0.046
27.680,0.081
27.685,0.020
27.690,-0.045
27.695,-0.077
27.700,-0.026
27.705,0.021
27.710,0.003
27.715,0.010
27.720,0.025
27.725,0.020
27.730,-0.023
27.735,-0.102
27.740,-0.099
27.745,0.017
27.750,0.098
27.755,0.049
27.760,-0.055
27.765,-0.078
27.770,-0.022
27.775,0.028
27.780,0.043
27.785,0.026
27.790,-0.019
27.795,-0.053
27.800,-0.052
27.805,-0.011
27.810,0.035
27.815,0.019
27.820,-0.025
27.825,-0.034
27.830,-0.009
27.835,0.025
27.840,0.026
27.845,-0.013
27.850,-0.018
27.855,0.031
27.860,0.058
27.865,0.058
27.870,0.029
27.875,-0.037
27.880,-0.059
27.885,-0.014
27.890,0.035
27.895,0.030
27.900,-0.017
27.905,-0.037
27.910,0.007
27.915,0.054
27.920,0.051
27.925,0.035
27.930,0.027
27.935,0.029
27.940,0.030
27.945,0.004
27.950,0.009
27.955,0.044
27.960,0.028
27.965,-0.016
27.970,-0.015
27.975,0.027
27.980,0.021
27.985,0.006
27.990,0.054
27.995,0.084
28.000,0.059
28.005,0.006
28.010,0.006
28.015,0.069
28.020,0.070
28.025,0.012
28.030,-0.021
28.035,-0.029
28.040,-0.023
28.045,-0.002
28.050,-0.015
28.055,-0.064
28.060,-0.049
28.065,0.020
28.070,-0.007
28.075,-0.078
28.080,-0.089
28.085,-0.104
28.090,-0.110
28.095,-0.073
28.100,-0.038
28.105,-0.017
28.110,-0.010
28.115,0.012
28.120,0.076
28.125,0.105
28.130,0.074
28.135,0.053
28.140,0.064
28.145,0.076
28.150,0.084
28.155,0.094
28.160,0.075
28.165,0.026
28.170,0.004
28.175,0.030
28.180,0.077
28.185,0.112
28.190,0.152
28.195,0.185
28.200,0.184
28.205,0.168
28.210,0.083
28.215,-0.015
28.220,-0.003
28.225,0.037
28.230,0.070
28.235,0.024
28.240,0.009
28.245,0.349
28.250,0.748
28.255,0.782
28.260,0.564
28.265,0.397
28.270,0.412
28.275,0.417
28.280,0.319
28.285,0.243
28.290,0.195
28.295,0.105
28.300,-0.009
28.305,-0.112
28.310,-0.210
28.315,-0.294
28.320,-0.312
28.325,-0.296
28.330,-0.324
28.335,-0.354
28.340,-0.340
28.345,-0.335
28.350,-0.357
28.355,-0.347
28.360,-0.286
28.365,-0.237
28.370,-0.227
28.375,-0.217
28.380,-0.218
28.385,-0.242
28.390,-0.251
28.395,-0.251
28.400,-0.257
28.405,-0.216
28.410,-0.157
28.415,-0.135
28.420,-0.134
28.425,-0.163
28.430,-0.156
28.435,-0.103
28.440,-0.096
28.445,-0.098
28.450,-0.088
28.455,-0.090
28.460,-0.087
28.465,-0.075
28.470,-0.025
28.475,0.069
28.480,0.113
28.485,0.079
28.490,0.068
28.495,0.104
28.500,0.139
28.505,0.133
28.510,0.089
28.515,0.071
28.520,0.066
28.525,0.026
28.530,-0.010
28.535,-0.001
28.540,0.042
28.545,0.054
28.550,0.015
28.555,-0.001
28.560,0.046
28.565,0.103
28.570,0.090
28.575,0.021
28.580,-0.043
28.585,-0.085
28.590,-0.111
28.595,-0.072
28.600,0.008
28.605,0.010
28.610,-0.066
28.615,-0.097
28.620,-0.028
28.625,0.036
28.630,0.020
28.635,-0.005
28.640,0.005
28.645,-0.011
28.650,-0.055
28.655,-0.071
28.660,-0.052
28.665,0.003
28.670,0.043
28.675,0.020
28.680,-0.013
28.685,-0.031
28.690,-0.045
28.695,-0.044
28.700,-0.016
28.705,0.027
28.710,0.051
28.715,0.022
28.720,-0.041
28.725,-0.048
28.730,0.007
28.735,0.023
28.740,-0.004
28.745,-0.003
28.750,0.015
28.755,-0.003
28.760,-0.016
28.765,0.022
28.770,0.077
28.775,0.090
28.780,0.026
28.785,-0.044
28.790,-0.045
28.795,0.002
28.800,0.056
28.805,0.092
28.810,0.077
28.815,-0.006
28.820,-0.054
28.825,0.000
28.830,0.050
28.835,0.055
28.840,0.053
28.845,0.023
28.850,0.014
28.855,0.030
28.860,0.018
28.865,0.024
28.870,0.017
28.875,-0.031
28.880,-0.064
28.885,-0.072
28.890,-0.046
28.895,0.007
28.900,0.037
28.905,0.009
28.910,-0.046
28.915,-0.096
28.920,-0.147
28.925,-0.136
28.930,-0.049
28.935,0.019
28.940,0.024
28.945,0.024
28.950,0.041
28.955,0.057
28.960,0.074
28.965,0.082
28.970,0.086
28.975,0.101
28.980,0.105
28.985,0.091
28.990,0.081
28.995,0.065
29.000,0.040
29.005,0.022
29.010,0.043
29.015,0.084
29.020,0.119
29.025,0.145
29.030,0.153
29.035,0.144
29.040,0.096
29.045,0.037
29.050,0.010
29.055,0.002
29.060,0.011
29.065,0.032
29.070,0.077
29.075,0.271
29.080,0.572
29.085,0.710
29.090,0.622
29.095,0.448
29.100,0.358
29.105,0.367
29.110,0.356
29.115,0.298
29.120,0.234
29.125,0.189
29.130,0.113
29.135,-0.011
29.140,-0.153
29.145,-0.316
29.150,-0.417
29.155,-0.350
29.160,-0.237
29.165,-0.242
29.170,-0.314
29.175,-0.330
29.180,-0.276
29.185,-0.220
29.190,-0.242
29.195,-0.313
29.200,-0.331
29.205,-0.332
29.210,-0.314
29.215,-0.203
29.220,-0.116
29.225,-0.156
29.230,-0.230
29.235,-0.240
29.240,-0.192
29.245,-0.145
29.250,-0.148
29.255,-0.154
29.260,-0.118
29.265,-0.116
29.270,-0.141
29.275,-0.108
29.280,-0.063
29.285,-0.057
29.290,-0.044
29.295,-0.055
29.300,-0.066
29.305,0.020
29.310,0.075
29.315,0.041
29.320,0.060
29.325,0.096
29.330,0.101
29.335,0.095
29.340,0.059
29.345,0.054
29.350,0.081
29.355,0.076
29.360,0.068
29.365,0.083
29.370,0.064
29.375,0.035
29.380,0.028
29.385,-0.001
29.390,-0.035
29.395,-0.013
29.400,0.029
29.405,-0.008
29.410,-0.072
29.415,-0.077
29.420,-0.035
29.425,0.008
29.430,0.000
29.435,-0.030
29.440,-0.031
29.445,-0.026
29.450,-0.015
29.455,-0.020
29.460,-0.052
29.465,-0.057
29.470,-0.045
29.475,-0.032
29.480,-0.019
29.485,-0.033
29.490,-0.057
29.495,-0.028
29.500,0.030
29.505,0.028
29.510,-0.001
29.515,-0.006
29.520,-0.008
29.525,-0.023
29.530,-0.049
29.535,-0.023
29.540,0.020
29.545,0.002
29.550,-0.016
29.555,-0.017
29.560,-0.029
29.565,-0.019
29.570,0.000
29.575,0.002
29.580,0.010
29.585,0.016
29.590,0.031
29.595,0.058
29.600,0.029
29.605,-0.015
29.610,0.004
29.615,0.012
29.620,-0.038
29.625,-0.033
29.630,0.040
29.635,0.083
29.640,0.060
29.645,-0.009
29.650,-0.022
29.655,0.058
29.660,0.092
29.665,0.047
29.670,0.036
29.675,0.038
29.680,0.007
29.685,0.010
29.690,0.041
29.695,0.068
29.700,0.061
29.705,-0.002
29.710,-0.047
29.715,-0.025
29.720,0.015
29.725,0.009
29.730,-0.021
29.735,-0.027
29.740,-0.013
29.745,0.025
29.750,0.034
29.755,-0.035
29.760,-0.092
29.765,-0.118
29.770,-0.122
29.775,-0.059
29.780,-0.001
29.785,-0.004
29.790,-0.028
29.795,-0.039
29.800,-0.002
29.805,0.042
29.810,0.054
29.815,0.092
29.820,0.140
29.825,0.119
29.830,0.061
29.835,0.048
29.840,0.063
29.845,0.059
29.850,0.038
29.855,0.040
29.860,0.073
29.865,0.039
29.870,-0.020
29.875,0.038
29.880,0.159
29.885,0.245
29.890,0.248
29.895,0.179
29.900,0.097
29.905,0.014
29.910,-0.037
29.915,0.008
29.920,0.105
29.925,0.076
29.930,0.046
29.935,0.274
29.940,0.601
29.945,0.749
29.950,0.647
29.955,0.464
29.960,0.387
29.965,0.364
29.970,0.309
29.975,0.242
29.980,0.177
29.985,0.091
29.990,0.013
29.995,-0.076
30.000,-0.204
30.005,-0.297
30.010,-0.330
30.015,-0.358
30.020,-0.378
30.025,-0.343
30.030,-0.287
30.035,-0.257
30.040,-0.261
30.045,-0.287
30.050,-0.303
30.055,-0.306
30.060,-0.286
30.065,-0.239
30.070,-0.218
30.075,-0.215
30.080,-0.175
30.085,-0.160
30.090,-0.184
30.095,-0.184
30.100,-0.169
30.105,-0.151
30.110,-0.142
30.115,-0.152
30.120,-0.141
30.125,-0.088
30.130,-0.066
30.135,-0.117
30.140,-0.146
30.145,-0.073
30.150,0.050
30.155,0.095
30.160,0.043
30.165,0.010
30.170,0.036
30.175,0.052
30.180,0.028
30.185,0.024
30.190,0.067
30.195,0.094
30.200,0.085
30.205,0.070
30.210,0.060
30.215,0.060
30.220,0.058
30.225,0.071
30.230,0.109
30.235,0.090
30.240,0.010
30.245,-0.055
30.250,-0.084
30.255,-0.071
30.260,-0.061
30.265,-0.043
30.270,0.016
30.275,0.031
30.280,0.004
30.285,0.002
30.290,-0.006
30.295,-0.037
30.300,-0.054
30.305,-0.063
30.310,-0.039
30.315,-0.010
30.320,-0.025
30.325,-0.026
30.330,-0.033
30.335,-0.050
30.340,-0.022
30.345,0.009
30.350,-0.001
30.355,-0.025
30.360,-0.022
30.365,-0.009
30.370,-0.004
30.375,-0.007
30.380,-0.018
30.385,-0.020
30.390,-0.014
30.395,0.012
30.400,0.041
30.405,0.000
30.410,-0.071
30.415,-0.040
30.420,0.055
30.425,0.085
30.430,0.043
30.435,-0.001
30.440,-0.014
30.445,0.002
30.450,0.022
30.455,0.019
30.460,0.023
30.465,0.018
30.470,-0.017
30.475,-0.008
30.480,0.044
30.485,0.046
30.490,-0.007
30.495,-0.038
30.500,-0.005
30.505,0.045
30.510,0.060
30.515,0.045
30.520,0.037
30.525,0.047
30.530,0.025
30.535,-0.023
30.540,-0.018
30.545,0.028
30.550,0.005
30.555,-0.074
30.560,-0.085
30.565,-0.026
30.570,0.031
30.575,0.057
30.580,0.017
30.585,-0.041
30.590,-0.081
30.595,-0.125
30.600,-0.118
30.605,-0.065
30.610,-0.037
30.615,-0.052
30.620,-0.057
30.625,0.009
30.630,0.082
30.635,0.088
30.640,0.047
30.645,0.030
30.650,0.060
30.655,0.098
30.660,0.100
30.665,0.068
30.670,0.049
30.675,0.036
30.680,0.035
30.685,0.075
30.690,0.088
30.695,0.053
30.700,0.050
30.705,0.072
30.710,0.101
30.715,0.162
30.720,0.192
30.725,0.131
30.730,0.044
30.735,-0.013
30.740,0.015
30.745,0.127
30.750,0.141
30.755,0.177
30.760,0.444
30.765,0.655
30.770,0.654
30.775,0.556
30.780,0.460
30.785,0.428
30.790,0.350
30.795,0.208
30.800,0.122
30.805,0.099
30.810,0.071
30.815,-0.030
30.820,-0.168
30.825,-0.284
30.830,-0.317
30.835,-0.259
30.840,-0.265
30.845,-0.339
30.850,-0.347
30.855,-0.326
30.860,-0.324
30.865,-0.322
30.870,-0.320
30.875,-0.305
30.880,-0.270
30.885,-0.236
30.890,-0.253
30.895,-0.308
30.900,-0.295
30.905,-0.216
30.910,-0.153
30.915,-0.137
30.920,-0.154
30.925,-0.164
30.930,-0.155
30.935,-0.142
30.940,-0.127
30.945,-0.119
30.950,-0.113
30.955,-0.114
30.960,-0.138
30.965,-0.148
30.970,-0.087
30.975,0.005
30.980,0.053
30.985,0.061
30.990,0.054
30.995,0.053
31.000,0.074
31.005,0.104
31.010,0.116
31.015,0.090
31.020,0.045
31.025,0.023
31.030,0.048
31.035,0.096
31.040,0.115
31.045,0.100
31.050,0.069
31.055,0.039
31.060,0.039
31.065,0.060
31.070,0.054
31.075,0.036
31.080,0.039
31.085,0.027
31.090,-0.012
31.095,-0.056
31.100,-0.092
31.105,-0.083
31.110,-0.043
31.115,-0.048
31.120,-0.058
31.125,-0.015
31.130,0.029
31.135,0.025
31.140,-0.002
31.145,0.021
31.150,0.064
31.155,0.050
31.160,0.010
31.165,-0.014
31.170,-0.050
31.175,-0.095
31.180,-0.094
31.185,-0.050
31.190,0.000
31.195,0.018
31.200,0.000
31.205,0.005
31.210,0.019
31.215,0.022
31.220,0.032
31.225,0.011
31.230,-0.040
31.235,-0.051
31.240,-0.016
31.245,0.019
31.250,0.040
31.255,0.028
31.260,0.017
31.265,0.029
31.270,0.002
31.275,-0.012
31.280,-0.007
31.285,-0.066
31.290,-0.075
31.295,0.032
31.300,0.117
31.305,0.110
31.310,0.039
31.315,0.001
31.320,0.040
31.325,0.010
31.330,-0.073
31.335,-0.021
31.340,0.086
31.345,0.069
31.350,-0.016
31.355,-0.052
31.360,0.010
31.365,0.104
31.370,0.104
31.375,0.041
31.380,-0.015
31.385,-0.056
31.390,-0.049
31.395,-0.023
31.400,-0.016
31.405,-0.008
31.410,-0.031
31.415,-0.101
31.420,-0.128
31.425,-0.083
31.430,-0.053
31.435,-0.077
31.440,-0.079
31.445,-0.017
31.450,0.026
31.455,0.041
31.460,0.068
31.465,0.093
31.470,0.099
31.475,0.076
31.480,0.038
31.485,0.015
31.490,0.026
31.495,0.067
31.500,0.090
31.505,0.058
31.510,0.049
31.515,0.096
31.520,0.112
31.525,0.105
31.530,0.125
31.535,0.158
31.540,0.162
31.545,0.114
31.550,0.081
31.555,0.097
31.560,0.055
31.565,-0.003
31.570,0.053
31.575,0.112
31.580,0.083
31.585,0.195
31.590,0.479
31.595,0.653
31.600,0.637
31.605,0.531
31.610,0.467
31.615,0.417
31.620,0.287
31.625,0.203
31.630,0.218
31.635,0.184
31.640,0.066
31.645,-0.057
31.650,-0.174
31.655,-0.321
31.660,-0.420
31.665,-0.369
31.670,-0.274
31.675,-0.274
31.680,-0.318
31.685,-0.321
31.690,-0.284
31.695,-0.254
31.700,-0.265
31.705,-0.271
31.710,-0.235
31.715,-0.217
31.720,-0.248
31.725,-0.274
31.730,-0.257
31.735,-0.218
31.740,-0.203
31.745,-0.239
31.750,-0.265
31.755,-0.196
31.760,-0.099
31.765,-0.092
31.770,-0.173
31.775,-0.188
31.780,-0.060
31.785,0.026
31.790,-0.024
31.795,-0.067
31.800,-0.051
31.805,-0.031
31.810,-0.025
31.815,-0.027
31.820,-0.029
31.825,-0.003
31.830,0.065
31.835,0.120
31.840,0.104
31.845,0.068
31.850,0.096
31.855,0.141
31.860,0.119
31.865,0.053
31.870,0.025
31.875,0.057
31.880,0.059
31.885,0.022
31.890,0.010
31.895,-0.009
31.900,-0.013
31.905,0.020
31.910,0.014
31.915,-0.026
31.920,-0.053
31.925,-0.049
31.930,-0.011
31.935,0.016
31.940,-0.003
31.945,-0.037
31.950,-0.063
31.955,-0.063
31.960,-0.032
31.965,-0.001
31.970,0.000
31.975,-0.026
31.980,-0.048
31.985,-0.062
31.990,-0.052
31.995,0.007
32.000,0.037
32.005,-0.002
32.010,-0.055
32.015,-0.051
32.020,0.004
32.025,0.012
32.030,0.000
32.035,0.024
32.040,0.031
32.045,0.026
32.050,-0.003
32.055,-0.066
32.060,-0.065
32.065,0.007
32.070,0.046
32.075,0.036
32.080,0.002
32.085,-0.010
32.090,0.013
32.095,-0.011
32.100,-0.024
32.105,0.014
32.110,0.028
32.115,0.037
32.120,0.056
32.125,0.061
32.130,0.055
32.135,0.051
32.140,0.049
32.145,0.034
32.150,-0.008
32.155,-0.030
32.160,0.006
32.165,0.018
32.170,-0.012
32.175,-0.004
32.180,-0.001
32.185,-0.013
32.190,0.050
32.195,0.119
32.200,0.116
32.205,0.050
32.210,-0.008
32.215,0.014
32.220,0.031
32.225,-0.004
32.230,-0.029
32.235,-0.052
32.240,-0.078
32.245,-0.062
32.250,-0.027
32.255,-0.025
32.260,-0.040
32.265,-0.038
32.270,-0.040
32.275,-0.042
32.280,-0.028
32.285,-0.009
32.290,-0.008
32.295,-0.053
32.300,-0.063
32.305,0.012
32.310,0.055
32.315,0.060
32.320,0.080
32.325,0.086
32.330,0.095
32.335,0.077
32.340,0.063
32.345,0.095
32.350,0.098
32.355,0.090
32.360,0.080
32.365,0.052
32.370,0.042
32.375,0.076
32.380,0.162
32.385,0.207
32.390,0.144
32.395,0.020
32.400,-0.058
32.405,-0.016
32.410,0.056
32.415,0.118
32.420,0.130
32.425,0.098
32.430,0.281
32.435,0.623
32.440,0.760
32.445,0.635
32.450,0.448
32.455,0.350
32.460,0.321
32.465,0.298
32.470,0.277
32.475,0.244
32.480,0.144
32.485,-0.005
32.490,-0.103
32.495,-0.166
32.500,-0.270
32.505,-0.345
32.510,-0.316
32.515,-0.312
32.520,-0.351
32.525,-0.321
32.530,-0.302
32.535,-0.316
32.540,-0.311
32.545,-0.296
32.550,-0.258
32.555,-0.239
32.560,-0.240
32.565,-0.232
32.570,-0.250
32.575,-0.247
32.580,-0.206
32.585,-0.176
32.590,-0.181
32.595,-0.220
32.600,-0.227
32.605,-0.189
32.610,-0.158
32.615,-0.113
32.620,-0.066
32.625,-0.071
32.630,-0.101
32.635,-0.110
32.640,-0.073
32.645,-0.026
32.650,-0.003
32.655,0.011
32.660,0.012
32.665,0.015
32.670,0.033
32.675,0.047
32.680,0.045
32.685,0.038
32.690,0.060
32.695,0.098
32.700,0.108
32.705,0.095
32.710,0.084
32.715,0.086
32.720,0.077
32.725,0.069
32.730,0.088
32.735,0.093
32.740,0.065
32.745,0.009
32.750,-0.072
32.755,-0.103
32.760,-0.052
32.765,0.001
32.770,0.003
32.775,-0.036
32.780,-0.057
32.785,-0.024
32.790,0.006
32.795,0.013
32.800,0.035
32.805,0.031
32.810,-0.016
32.815,-0.063
32.820,-0.068
32.825,-0.029
32.830,-0.011
32.835,-0.049
32.840,-0.096
32.845,-0.069
32.850,0.029
32.855,0.080
32.860,0.036
32.865,-0.010
32.870,-0.002
32.875,0.023
32.880,0.003
32.885,-0.050
32.890,-0.060
32.895,-0.016
32.900,0.027
32.905,0.057
32.910,0.086
32.915,0.134
32.920,0.230
32.925,0.292
32.930,0.222
32.935,0.108
32.940,0.062
32.945,0.088
32.950,0.098
32.955,0.049
32.960,0.065
32.965,0.150
32.970,0.261
32.975,0.458
32.980,0.641
32.985,0.743
32.990,0.883
32.995,1.018
33.000,1.056
33.005,0.989
33.010,0.797
33.015,0.675
33.020,0.706
33.025,0.670
33.030,0.501
33.035,0.282
33.040,0.022
33.045,-0.262
33.050,-0.479
33.055,-0.578
33.060,-0.582
33.065,-0.560
33.070,-0.582
33.075,-0.626
33.080,-0.618
33.085,-0.591
33.090,-0.625
33.095,-0.681
33.100,-0.734
33.105,-0.798
33.110,-0.822
33.115,-0.817
33.120,-0.799
33.125,-0.703
33.130,-0.585
33.135,-0.584
33.140,-0.612
33.145,-0.543
33.150,-0.468
33.155,-0.451
33.160,-0.452
33.165,-0.427
33.170,-0.380
33.175,-0.380
33.180,-0.392
33.185,-0.323
33.190,-0.253
33.195,-0.248
33.200,-0.258
33.205,-0.233
33.210,-0.162
33.215,-0.132
33.220,-0.164
33.225,-0.179
33.230,-0.182
33.235,-0.190
33.240,-0.164
33.245,-0.139
33.250,-0.128
33.255,-0.102
33.260,-0.085
33.265,-0.068
33.270,-0.046
33.275,-0.029
33.280,0.007
33.285,0.070
33.290,0.111
33.295,0.110
33.300,0.114
33.305,0.146
33.310,0.206
33.315,0.252
33.320,0.256
33.325,0.252
33.330,0.263
33.335,0.294
33.340,0.298
33.345,0.268
33.350,0.308
33.355,0.386
33.360,0.409
33.365,0.384
33.370,0.345
33.375,0.324
33.380,0.324
33.385,0.331
33.390,0.317
33.395,0.293
33.400,0.273
33.405,0.239
33.410,0.239
33.415,0.277
33.420,0.288
33.425,0.288
33.430,0.286
33.435,0.237
33.440,0.194
33.445,0.209
33.450,0.208
33.455,0.185
33.460,0.161
33.465,0.131
33.470,0.146
33.475,0.185
33.480,0.183
33.485,0.135
33.490,0.091
33.495,0.094
33.500,0.111
33.505,0.102
33.510,0.075
33.515,0.058
33.520,0.073
33.525,0.122
33.530,0.148
33.535,0.135
33.540,0.105
33.545,0.055
33.550,0.021
33.555,0.021
33.560,0.011
33.565,-0.003
33.570,-0.007
33.575,-0.009
33.580,0.014
33.585,0.051
33.590,0.055
33.595,0.055
33.600,0.066
33.605,0.038
33.610,-0.008
33.615,-0.016
33.620,0.021
33.625,0.029
33.630,-0.007
33.635,-0.024
33.640,-0.021
33.645,-0.005
33.650,0.017
33.655,0.024
33.660,0.009
33.665,-0.027
33.670,-0.034
33.675,-0.015
33.680,-0.023
33.685,-0.031
33.690,-0.040
33.695,-0.038
33.700,-0.021
33.705,-0.032
33.710,-0.038
33.715,-0.044
33.720,-0.058
33.725,-0.039
33.730,-0.009
33.735,-0.002
33.740,-0.011
33.745,-0.032
33.750,-0.045
33.755,-0.025
33.760,-0.004
33.765,-0.014
33.770,-0.048
33.775,-0.081
33.780,-0.072
33.785,-0.037
33.790,-0.047
33.795,-0.082
33.800,-0.061
33.805,-0.001
33.810,0.029
33.815,-0.017
33.820,-0.081
33.825,-0.058
33.830,0.005
33.835,0.004
33.840,-0.052
33.845,-0.088
33.850,-0.084
33.855,-0.051
33.860,-0.016
33.865,-0.012
33.870,-0.043
33.875,-0.096
33.880,-0.118
33.885,-0.053
33.890,0.038
33.895,0.070
33.900,0.040
33.905,-0.026
33.910,-0.070
33.915,-0.054
33.920,-0.010
33.925,0.017
33.930,-0.018
33.935,-0.111
33.940,-0.160
33.945,-0.112
33.950,-0.033
33.955,0.007
33.960,-0.018
33.965,-0.068
33.970,-0.085
33.975,-0.063
33.980,-0.040
33.985,-0.058
33.990,-0.103
33.995,-0.123
34.000,-0.128
34.005,-0.135
34.010,-0.102
34.015,-0.053
34.020,-0.027
34.025,-0.025
34.030,-0.050
34.035,-0.040
34.040,0.028
34.045,0.088
34.050,0.094
34.055,0.050
34.060,-0.011
34.065,-0.032
34.070,-0.015
34.075,0.022
34.080,0.067
34.085,0.081
34.090,0.091
34.095,0.109
34.100,0.124
34.105,0.149
34.110,0.158
34.115,0.146
34.120,0.096
34.125,0.000
34.130,-0.077
34.135,-0.088
34.140,-0.003
34.145,0.087
34.150,0.056
34.155,0.148
34.160,0.487
34.165,0.734
34.170,0.698
34.175,0.510
34.180,0.407
34.185,0.410
34.190,0.353
34.195,0.253
34.200,0.218
34.205,0.167
34.210,0.031
34.215,-0.080
34.220,-0.163
34.225,-0.278
34.230,-0.345
34.235,-0.327
34.240,-0.320
34.245,-0.380
34.250,-0.382
34.255,-0.288
34.260,-0.226
34.265,-0.241
34.270,-0.292
34.275,-0.321
34.280,-0.306
34.285,-0.262
34.290,-0.212
34.295,-0.191
34.300,-0.206
34.305,-0.216
34.310,-0.204
34.315,-0.201
34.320,-0.195
34.325,-0.169
34.330,-0.156
34.335,-0.143
34.340,-0.133
34.345,-0.114
34.350,-0.069
34.355,-0.064
34.360,-0.085
34.365,-0.059
34.370,-0.014
34.375,-0.004
34.380,-0.005
34.385,0.024
34.390,0.057
34.395,0.072
34.400,0.070
34.405,0.089
34.410,0.140
34.415,0.158
34.420,0.147
34.425,0.133
34.430,0.076
34.435,0.029
34.440,0.063
34.445,0.094
34.450,0.064
34.455,0.003
34.460,-0.026
34.465,0.011
34.470,0.038
34.475,0.021
34.480,-0.022
34.485,-0.060
34.490,-0.046
34.495,-0.032
34.500,-0.039
34.505,-0.040
34.510,-0.029
34.515,-0.009
34.520,-0.024
34.525,-0.066
34.530,-0.075
34.535,-0.051
34.540,-0.035
34.545,-0.044
34.550,-0.056
34.555,-0.065
34.560,-0.059
34.565,-0.075
34.570,-0.088
34.575,-0.015
34.580,0.057
34.585,0.040
34.590,-0.003
34.595,-0.020
34.600,-0.005
34.605,0.001
34.610,-0.016
34.615,-0.036
34.620,-0.058
34.625,-0.040
34.630,0.026
34.635,0.068
34.640,0.024
34.645,-0.063
34.650,-0.069
34.655,0.023
34.660,0.097
34.665,0.131
34.670,0.172
34.675,0.227
34.680,0.254
34.685,0.183
34.690,0.107
34.695,0.122
34.700,0.140
34.705,0.106
34.710,0.051
34.715,0.041
34.720,0.130
34.725,0.261
34.730,0.402
34.735,0.572
34.740,0.743
34.745,0.888
34.750,0.989
34.755,0.996
34.760,0.926
34.765,0.834
34.770,0.749
34.775,0.649
34.780,0.496
34.785,0.324
34.790,0.171
34.795,-0.018
34.800,-0.294
34.805,-0.553
34.810,-0.633
34.815,-0.569
34.820,-0.536
34.825,-0.571
34.830,-0.611
34.835,-0.626
34.840,-0.596
34.845,-0.585
34.850,-0.614
34.855,-0.637
34.860,-0.678
34.865,-0.689
34.870,-0.623
34.875,-0.571
34.880,-0.562
34.885,-0.552
34.890,-0.528
34.895,-0.483
34.900,-0.442
34.905,-0.421
34.910,-0.389
34.915,-0.373
34.920,-0.408
34.925,-0.424
34.930,-0.382
34.935,-0.355
34.940,-0.343
34.945,-0.295
34.950,-0.245
34.955,-0.212
34.960,-0.174
34.965,-0.145
34.970,-0.126
34.975,-0.129
34.980,-0.155
34.985,-0.159
34.990,-0.142
34.995,-0.122
35.000,-0.087
35.005,-0.069
35.010,-0.091
35.015,-0.080
35.020,-0.039
35.025,-0.039
35.030,-0.027
35.035,0.005
35.040,0.003
35.045,0.020
35.050,0.074
35.055,0.113
35.060,0.139
35.065,0.182
35.070,0.237
35.075,0.253
35.080,0.235
35.085,0.242
35.090,0.278
35.095,0.315
35.100,0.327
35.105,0.325
35.110,0.332
35.115,0.325
35.120,0.284
35.125,0.281
35.130,0.330
35.135,0.348
35.140,0.333
35.145,0.303
35.150,0.269
35.155,0.281
35.160,0.314
35.165,0.288
35.170,0.237
35.175,0.228
35.180,0.210
35.185,0.197
35.190,0.224
35.195,0.214
35.200,0.180
35.205,0.179
35.210,0.194
35.215,0.210
35.220,0.182
35.225,0.149
35.230,0.158
35.235,0.148
35.240,0.087
35.245,0.041
35.250,0.085
35.255,0.133
35.260,0.105
35.265,0.058
35.270,0.057
35.275,0.080
35.280,0.048
35.285,0.024
35.290,0.058
35.295,0.076
35.300,0.097
35.305,0.109
35.310,0.068
35.315,0.040
35.320,0.033
35.325,0.038
35.330,0.042
35.335,0.013
35.340,-0.033
35.345,-0.072
35.350,-0.045
35.355,0.025
35.360,0.047
35.365,0.023
35.370,-0.009
35.375,-0.006
35.380,0.047
35.385,0.069
35.390,0.033
35.395,-0.012
35.400,-0.048
35.405,-0.055
35.410,-0.036
35.415,-0.029
35.420,-0.014
35.425,0.028
35.430,0.039
35.435,-0.002
35.440,-0.033
35.445,-0.033
35.450,-0.050
35.455,-0.053
35.460,-0.013
35.465,-0.016
35.470,-0.051
35.475,-0.021
35.480,0.026
35.485,0.010
35.490,-0.040
35.495,-0.057
35.500,-0.025
35.505,-0.015
35.510,-0.045
35.515,-0.052
35.520,-0.031
35.525,-0.010
35.530,-0.001
35.535,-0.020
35.540,-0.059
35.545,-0.079
35.550,-0.066
35.555,-0.028
35.560,-0.010
35.565,-0.044
35.570,-0.056
35.575,-0.007
35.580,0.017
35.585,-0.015
35.590,-0.061
35.595,-0.062
35.600,-0.032
35.605,-0.069
35.610,-0.104
35.615,-0.060
35.620,-0.023
35.625,-0.078
35.630,-0.152
35.635,-0.113
35.640,-0.052
35.645,-0.077
35.650,-0.119
35.655,-0.136
35.660,-0.148
35.665,-0.150
35.670,-0.117
35.675,-0.062
35.680,-0.005
35.685,0.000
35.690,-0.026
35.695,0.040
35.700,0.117
35.705,0.093
35.710,0.057
35.715,0.064
35.720,0.074
35.725,0.052
35.730,-0.003
35.735,-0.038
35.740,-0.036
35.745,-0.015
35.750,0.028
35.755,0.098
35.760,0.188
35.765,0.220
35.770,0.166
35.775,0.077
35.780,-0.016
35.785,-0.076
35.790,-0.034
35.795,0.069
35.800,0.063
35.805,0.104
35.810,0.394
35.815,0.656
35.820,0.665
35.825,0.505
35.830,0.357
35.835,0.322
35.840,0.315
35.845,0.268
35.850,0.235
35.855,0.181
35.860,0.046
35.865,-0.079
35.870,-0.144
35.875,-0.223
35.880,-0.321
35.885,-0.358
35.890,-0.345
35.895,-0.326
35.900,-0.307
35.905,-0.307
35.910,-0.321
35.915,-0.333
35.920,-0.319
35.925,-0.266
35.930,-0.226
35.935,-0.215
35.940,-0.218
35.945,-0.228
35.950,-0.226
35.955,-0.235
35.960,-0.259
35.965,-0.240
35.970,-0.188
35.975,-0.159
35.980,-0.169
35.985,-0.184
35.990,-0.149
35.995,-0.092
36.000,-0.063
36.005,-0.050
36.010,-0.044
36.015,-0.037
36.020,-0.009
36.025,0.030
36.030,0.031
36.035,0.004
36.040,-0.007
36.045,-0.023
36.050,-0.005
36.055,0.072
36.060,0.098
36.065,0.094
36.070,0.139
36.075,0.165
36.080,0.151
36.085,0.111
36.090,0.062
36.095,0.070
36.100,0.092
36.105,0.038
36.110,-0.011
36.115,0.000
36.120,-0.006
36.125,-0.049
36.130,-0.075
36.135,-0.054
36.140,-0.006
36.145,0.000
36.150,-0.058
36.155,-0.089
36.160,-0.057
36.165,-0.011
36.170,0.008
36.175,0.002
36.180,0.011
36.185,0.021
36.190,0.006
36.195,-0.021
36.200,-0.046
36.205,-0.076
36.210,-0.129
36.215,-0.182
36.220,-0.155
36.225,-0.036
36.230,0.070
36.235,0.086
36.240,0.065
36.245,0.056
36.250,0.038
36.255,0.004
36.260,-0.017
36.265,0.003
36.270,0.022
36.275,-0.002
36.280,-0.051
36.285,-0.087
36.290,-0.081
36.295,-0.041
36.300,-0.015
36.305,-0.032
36.310,-0.033
36.315,0.041
36.320,0.126
36.325,0.131
36.330,0.065
36.335,0.005
36.340,0.016
36.345,0.049
36.350,0.031
36.355,-0.009
36.360,-0.006
36.365,0.027
36.370,0.017
36.375,-0.011
36.380,-0.017
36.385,0.014
36.390,0.066
36.395,0.061
36.400,0.007
36.405,-0.032
36.410,-0.048
36.415,-0.045
36.420,-0.070
36.425,-0.146
36.430,-0.172
36.435,-0.118
36.440,-0.048
36.445,-0.030
36.450,-0.086
36.455,-0.063
36.460,0.104
36.465,0.232
36.470,0.213
36.475,0.123
36.480,0.062
36.485,0.075
36.490,0.103
36.495,0.104
36.500,0.066
36.505,-0.033
36.510,-0.042
36.515,0.091
36.520,0.138
36.525,0.058
36.530,0.035
36.535,0.150
36.540,0.260
36.545,0.217
36.550,0.120
36.555,0.083
36.560,0.049
36.565,-0.015
36.570,0.027
36.575,0.152
36.580,0.145
36.585,0.180
36.590,0.474
36.595,0.721
36.600,0.719
36.605,0.552
36.610,0.422
36.615,0.404
36.620,0.337
36.625,0.247
36.630,0.228
36.635,0.203
36.640,0.063
36.645,-0.128
36.650,-0.226
36.655,-0.266
36.660,-0.331
36.665,-0.386
36.670,-0.405
36.675,-0.364
36.680,-0.284
36.685,-0.250
36.690,-0.265
36.695,-0.278
36.700,-0.285
36.705,-0.300
36.710,-0.294
36.715,-0.276
36.720,-0.279
36.725,-0.283
36.730,-0.262
36.735,-0.271
36.740,-0.284
36.745,-0.205
36.750,-0.100
36.755,-0.058
36.760,-0.107
36.765,-0.179
36.770,-0.174
36.775,-0.137
36.780,-0.116
36.785,-0.095
36.790,-0.110
36.795,-0.118
36.800,-0.046
36.805,0.018
36.810,0.034
36.815,0.009
36.820,-0.031
36.825,-0.005
36.830,0.021
36.835,-0.005
36.840,0.014
36.845,0.098
36.850,0.140
36.855,0.079
36.860,0.015
36.865,0.071
36.870,0.195
36.875,0.214
36.880,0.124
36.885,0.073
36.890,0.064
36.895,0.047
36.900,0.014
36.905,-0.008
36.910,0.005
36.915,0.009
36.920,0.035
36.925,0.076
36.930,0.052
36.935,0.018
36.940,-0.026
36.945,-0.093
36.950,-0.083
36.955,-0.022
36.960,0.029
36.965,0.061
36.970,0.040
36.975,0.015
36.980,0.028
36.985,0.022
36.990,0.011
36.995,0.025
37.000,0.010
37.005,-0.015
37.010,0.004
37.015,0.015
37.020,-0.014
37.025,-0.045
37.030,-0.043
37.035,0.009
37.040,0.038
37.045,0.014
37.050,-0.010
37.055,-0.006
37.060,0.007
37.065,-0.018
37.070,-0.042
37.075,-0.035
37.080,-0.021
37.085,0.007
37.090,0.020
37.095,0.011
37.100,-0.014
37.105,-0.035
37.110,-0.021
37.115,-0.011
37.120,-0.017
37.125,-0.008
37.130,-0.013
37.135,-0.075
37.140,-0.125
37.145,-0.077
37.150,0.039
37.155,0.112
37.160,0.078
37.165,0.032
37.170,0.027
37.175,-0.019
37.180,-0.114
37.185,-0.155
37.190,-0.084
37.195,0.005
37.200,0.003
37.205,-0.078
37.210,-0.132
37.215,-0.071
37.220,0.037
37.225,0.066
37.230,0.018
37.235,0.012
37.240,0.071
37.245,0.103
37.250,0.114
37.255,0.135
37.260,0.149
37.265,0.117
37.270,0.027
37.275,-0.003
37.280,0.070
37.285,0.117
37.290,0.097
37.295,0.080
37.300,0.091
37.305,0.128
37.310,0.134
37.315,0.074
37.320,0.083
37.325,0.174
37.330,0.211
37.335,0.156
37.340,0.068
37.345,0.066
37.350,0.095
37.355,0.061
37.360,0.199
37.365,0.550
37.370,0.763
37.375,0.689
37.380,0.455
37.385,0.313
37.390,0.304
37.395,0.260
37.400,0.206
37.405,0.177
37.410,0.097
37.415,-0.027
37.420,-0.156
37.425,-0.235
37.430,-0.242
37.435,-0.245
37.440,-0.276
37.445,-0.323
37.450,-0.360
37.455,-0.348
37.460,-0.312
37.465,-0.306
37.470,-0.324
37.475,-0.312
37.480,-0.277
37.485,-0.273
37.490,-0.285
37.495,-0.301
37.500,-0.280
37.505,-0.199
37.510,-0.184
37.515,-0.228
37.520,-0.218
37.525,-0.179
37.530,-0.140
37.535,-0.120
37.540,-0.113
37.545,-0.100
37.550,-0.100
37.555,-0.106
37.560,-0.105
37.565,-0.100
37.570,-0.099
37.575,-0.104
37.580,-0.090
37.585,-0.056
37.590,-0.008
37.595,0.066
37.600,0.092
37.605,0.062
37.610,0.086
37.615,0.144
37.620,0.162
37.625,0.149
37.630,0.125
37.635,0.101
37.640,0.076
37.645,0.043
37.650,0.019
37.655,0.004
37.660,0.001
37.665,0.043
37.670,0.091
37.675,0.069
37.680,0.005
37.685,-0.017
37.690,0.008
37.695,0.039
37.700,0.040
37.705,0.016
37.710,-0.019
37.715,-0.071
37.720,-0.077
37.725,-0.007
37.730,0.040
37.735,-0.001
37.740,-0.112
37.745,-0.146
37.750,-0.021
37.755,0.085
37.760,0.066
37.765,-0.017
37.770,-0.055
37.775,-0.004
37.780,0.017
37.785,-0.006
37.790,-0.009
37.795,-0.026
37.800,-0.083
37.805,-0.155
37.810,-0.148
37.815,-0.007
37.820,0.140
37.825,0.141
37.830,0.047
37.835,-0.010
37.840,-0.020
37.845,-0.007
37.850,0.008
37.855,0.024
37.860,0.017
37.865,-0.023
37.870,-0.007
37.875,0.055
37.880,0.046
37.885,-0.047
37.890,-0.088
37.895,-0.013
37.900,0.045
37.905,0.048
37.910,0.059
37.915,0.063
37.920,0.034
37.925,-0.023
37.930,-0.047
37.935,-0.019
37.940,-0.012
37.945,-0.041
37.950,-0.069
37.955,-0.055
37.960,-0.022
37.965,-0.027
37.970,-0.081
37.975,-0.140
37.980,-0.118
37.985,-0.027
37.990,0.055
37.995,0.083
38.000,0.032
38.005,0.000
38.010,0.030
38.015,0.056
38.020,0.095
38.025,0.118
38.030,0.112
38.035,0.125
38.040,0.110
38.045,0.066
38.050,0.041
38.055,0.049
38.060,0.081
38.065,0.071
38.070,0.019
38.075,0.027
38.080,0.124
38.085,0.220
38.090,0.217
38.095,0.110
38.100,-0.001
38.105,-0.007
38.110,0.069
38.115,0.140
38.120,0.152
38.125,0.060
38.130,0.091
38.135,0.437
38.140,0.715
38.145,0.670
38.150,0.487
38.155,0.389
38.160,0.416
38.165,0.339
38.170,0.171
38.175,0.167
38.180,0.230
38.185,0.172
38.190,-0.013
38.195,-0.222
38.200,-0.306
38.205,-0.316
38.210,-0.325
38.215,-0.302
38.220,-0.294
38.225,-0.270
38.230,-0.251
38.235,-0.338
38.240,-0.391
38.245,-0.311
38.250,-0.227
38.255,-0.219
38.260,-0.249
38.265,-0.257
38.270,-0.251
38.275,-0.229
38.280,-0.180
38.285,-0.183
38.290,-0.232
38.295,-0.233
38.300,-0.186
38.305,-0.153
38.310,-0.151
38.315,-0.162
38.320,-0.164
38.325,-0.131
38.330,-0.115
38.335,-0.095
38.340,-0.043
38.345,-0.005
38.350,0.056
38.355,0.090
38.360,0.028
38.365,-0.019
38.370,0.015
38.375,0.070
38.380,0.134
38.385,0.163
38.390,0.123
38.395,0.068
38.400,0.016
38.405,0.012
38.410,0.037
38.415,0.041
38.420,0.080
38.425,0.148
38.430,0.134
38.435,0.067
38.440,0.034
38.445,0.012
38.450,-0.052
38.455,-0.132
38.460,-0.142
38.465,-0.071
38.470,0.017
38.475,0.065
38.480,0.062
38.485,0.044
38.490,0.019
38.495,-0.002
38.500,0.001
38.505,0.000
38.510,-0.016
38.515,-0.060
38.520,-0.130
38.525,-0.122
38.530,-0.069
38.535,-0.073
38.540,-0.047
38.545,0.021
38.550,0.051
38.555,0.050
38.560,0.001
38.565,-0.045
38.570,-0.005
38.575,0.033
38.580,-0.024
38.585,-0.101
38.590,-0.091
38.595,0.008
38.600,0.101
38.605,0.116
38.610,0.054
38.615,-0.015
38.620,-0.019
38.625,0.013
38.630,0.011
38.635,-0.034
38.640,-0.063
38.645,-0.012
38.650,0.075
38.655,0.073
38.660,0.023
38.665,0.041
38.670,0.036
38.675,-0.025
38.680,-0.023
38.685,0.048
38.690,0.104
38.695,0.085
38.700,0.020
38.705,0.008
38.710,0.007
38.715,-0.032
38.720,-0.069
38.725,-0.078
38.730,-0.046
38.735,-0.021
38.740,-0.025
38.745,-0.041
38.750,-0.037
38.755,-0.034
38.760,-0.076
38.765,-0.095
38.770,-0.051
38.775,0.012
38.780,0.048
38.785,0.035
38.790,0.025
38.795,0.035
38.800,0.028
38.805,0.030
38.810,0.057
38.815,0.087
38.820,0.120
38.825,0.136
38.830,0.127
38.835,0.108
38.840,0.087
38.845,0.083
38.850,0.075
38.855,0.050
38.860,0.054
38.865,0.099
38.870,0.131
38.875,0.125
38.880,0.109
38.885,0.070
38.890,-0.006
38.895,-0.028
38.900,0.082
38.905,0.186
38.910,0.146
38.915,0.205
38.920,0.509
38.925,0.764
38.930,0.745
38.935,0.521
38.940,0.353
38.945,0.333
38.950,0.308
38.955,0.253
38.960,0.209
38.965,0.112
38.970,-0.007
38.975,-0.076
38.980,-0.145
38.985,-0.226
38.990,-0.304
38.995,-0.350
39.000,-0.363
39.005,-0.363
39.010,-0.288
39.015,-0.215
39.020,-0.254
39.025,-0.336
39.030,-0.370
39.035,-0.338
39.040,-0.275
39.045,-0.215
39.050,-0.208
39.055,-0.240
39.060,-0.252
39.065,-0.243
39.070,-0.206
39.075,-0.169
39.080,-0.162
39.085,-0.170
39.090,-0.167
39.095,-0.150
39.100,-0.135
39.105,-0.110
39.110,-0.081
39.115,-0.083
39.120,-0.125
39.125,-0.149
39.130,-0.086
39.135,-0.004
39.140,0.014
39.145,0.024
39.150,0.041
39.155,0.035
39.160,0.038
39.165,0.048
39.170,0.045
39.175,0.053
39.180,0.102
39.185,0.144
39.190,0.139
39.195,0.113
39.200,0.088
39.205,0.106
39.210,0.101
39.215,0.008
39.220,-0.045
39.225,-0.001
39.230,0.033
39.235,-0.007
39.240,-0.054
39.245,-0.041
39.250,0.029
39.255,0.085
39.260,0.044
39.265,-0.022
39.270,-0.017
39.275,0.001
39.280,-0.037
39.285,-0.084
39.290,-0.094
39.295,-0.063
39.300,-0.015
39.305,-0.027
39.310,-0.083
39.315,-0.043
39.320,0.063
39.325,0.082
39.330,0.031
39.335,-0.002
39.340,0.004
39.345,-0.008
39.350,-0.089
39.355,-0.133
39.360,-0.057
39.365,0.012
39.370,-0.009
39.375,-0.016
39.380,0.044
39.385,0.092
39.390,0.086
39.395,0.039
39.400,-0.022
39.405,-0.035
39.410,0.001
39.415,-0.007
39.420,-0.084
39.425,-0.134
39.430,-0.065
39.435,0.084
39.440,0.147
39.445,0.095
39.450,0.032
39.455,0.002
39.460,-0.009
39.465,-0.006
39.470,0.037
39.475,0.065
39.480,0.031
39.485,-0.026
39.490,-0.064
39.495,-0.044
39.500,0.000
39.505,0.023
39.510,0.017
39.515,-0.014
39.520,-0.027
39.525,-0.008
39.530,-0.009
39.535,-0.037
39.540,-0.077
39.545,-0.116
39.550,-0.102
39.555,-0.068
39.560,-0.058
39.565,-0.054
39.570,-0.021
39.575,0.079
39.580,0.161
39.585,0.132
39.590,0.038
39.595,0.024
39.600,0.113
39.605,0.161
39.610,0.116
39.615,0.013
39.620,-0.043
39.625,0.001
39.630,0.083
39.635,0.153
39.640,0.159
39.645,0.104
39.650,0.072
39.655,0.104
39.660,0.146
39.665,0.164
39.670,0.137
39.675,0.084
39.680,0.044
39.685,0.008
39.690,0.053
39.695,0.087
39.700,0.080
39.705,0.294
39.710,0.624
39.715,0.754
39.720,0.634
39.725,0.454
39.730,0.382
39.735,0.347
39.740,0.288
39.745,0.244
39.750,0.193
39.755,0.076
39.760,-0.090
39.765,-0.215
39.770,-0.268
39.775,-0.313
39.780,-0.312
39.785,-0.235
39.790,-0.219
39.795,-0.307
39.800,-0.368
39.805,-0.343
39.810,-0.307
39.815,-0.293
39.820,-0.333
39.825,-0.366
39.830,-0.274
39.835,-0.150
39.840,-0.133
39.845,-0.177
39.850,-0.197
39.855,-0.199
39.860,-0.204
39.865,-0.219
39.870,-0.223
39.875,-0.179
39.880,-0.137
39.885,-0.176
39.890,-0.229
39.895,-0.184
39.900,-0.087
39.905,-0.022
39.910,-0.004
39.915,-0.012
39.920,0.016
39.925,0.030
39.930,-0.001
39.935,0.004
39.940,0.039
39.945,0.061
39.950,0.074
39.955,0.065
39.960,0.018
39.965,-0.007
39.970,0.023
39.975,0.097
39.980,0.187
39.985,0.196
39.990,0.103
39.995,0.025
40.000,0.019
40.005,0.041
40.010,0.045
40.015,-0.002
40.020,-0.042
40.025,0.002
40.030,0.064
40.035,0.089
40.040,0.072
40.045,0.005
40.050,-0.087
40.055,-0.139
40.060,-0.115
40.065,-0.034
40.070,0.032
40.075,0.004
40.080,-0.086
40.085,-0.134
40.090,-0.073
40.095,0.038
40.100,0.082
40.105,0.032
40.110,-0.028
40.115,-0.032
40.120,-0.019
40.125,-0.008
40.130,0.011
40.135,-0.019
40.140,-0.072
40.145,-0.083
40.150,-0.053
40.155,-0.030
40.160,-0.083
40.165,-0.181
40.170,-0.215
40.175,-0.157
40.180,-0.099
40.185,-0.089
40.190,-0.129
40.195,-0.298
40.200,-0.494
40.205,-0.591
40.210,-0.723
40.215,-0.906
40.220,-1.012
40.225,-1.004
40.230,-0.919
40.235,-0.824
40.240,-0.725
40.245,-0.541
40.250,-0.315
40.255,-0.189
40.260,-0.093
40.265,0.101
40.270,0.321
40.275,0.520
40.280,0.725
40.285,0.871
40.290,0.952
40.295,0.975
40.300,0.880
40.305,0.733
40.310,0.660
40.315,0.686
40.320,0.725
40.325,0.681
40.330,0.523
40.335,0.364
40.340,0.414
40.345,0.567
40.350,0.587
40.355,0.547
40.360,0.522
40.365,0.473
40.370,0.434
40.375,0.451
40.380,0.497
40.385,0.496
40.390,0.427
40.395,0.373
40.400,0.385
40.405,0.383
40.410,0.317
40.415,0.304
40.420,0.389
40.425,0.437
40.430,0.433
40.435,0.441
40.440,0.434
40.445,0.410
40.450,0.377
40.455,0.346
40.460,0.360
40.465,0.381
40.470,0.336
40.475,0.255
40.480,0.211
40.485,0.214
40.490,0.203
40.495,0.146
40.500,0.066
40.505,-0.016
40.510,-0.081
40.515,-0.121
40.520,-0.182
40.525,-0.258
40.530,-0.318
40.535,-0.361
40.540,-0.384
40.545,-0.427
40.550,-0.477
40.555,-0.504
40.560,-0.554
40.565,-0.608
40.570,-0.591
40.575,-0.523
40.580,-0.512
40.585,-0.564
40.590,-0.578
40.595,-0.535
40.600,-0.471
40.605,-0.422
40.610,-0.417
40.615,-0.437
40.620,-0.466
40.625,-0.467
40.630,-0.403
40.635,-0.330
40.640,-0.321
40.645,-0.369
40.650,-0.356
40.655,-0.261
40.660,-0.214
40.665,-0.239
40.670,-0.272
40.675,-0.266
40.680,-0.194
40.685,-0.125
40.690,-0.126
40.695,-0.157
40.700,-0.173
40.705,-0.147
40.710,-0.114
40.715,-0.130
40.720,-0.187
40.725,-0.233
40.730,-0.190
40.735,-0.094
40.740,-0.036
40.745,-0.026
40.750,-0.029
40.755,-0.005
40.760,0.015
40.765,-0.028
40.770,-0.064
40.775,-0.046
40.780,-0.058
40.785,-0.110
40.790,-0.136
40.795,-0.093
40.800,-0.006
40.805,0.049
40.810,0.050
40.815,-0.006
40.820,-0.050
40.825,-0.004
40.830,0.031
40.835,0.020
40.840,0.035
40.845,0.019
40.850,-0.009
40.855,0.005
40.860,0.034
40.865,0.088
40.870,0.092
40.875,0.047
40.880,0.040
40.885,0.027
40.890,0.011
40.895,0.027
40.900,0.041
40.905,0.046
40.910,0.076
40.915,0.097
40.920,0.068
40.925,0.022
40.930,0.007
40.935,0.051
40.940,0.089
40.945,0.101
40.950,0.125
40.955,0.096
40.960,0.027
40.965,0.045
40.970,0.117
40.975,0.123
40.980,0.092
40.985,0.044
40.990,0.008
40.995,0.055
41.000,0.113
41.005,0.114
41.010,0.068
41.015,0.008
41.020,0.026
41.025,0.084
41.030,0.075
41.035,0.058
41.040,0.070
41.045,0.059
41.050,0.055
41.055,0.099
41.060,0.123
41.065,0.056
41.070,-0.029
41.075,0.002
41.080,0.107
41.085,0.104
41.090,0.023
41.095,0.032
41.100,0.077
41.105,0.037
41.110,0.007
41.115,0.075
41.120,0.136
41.125,0.131
41.130,0.093
41.135,0.034
41.140,0.011
41.145,0.021
41.150,0.038
41.155,0.074
41.160,0.064
41.165,0.011
41.170,0.001
41.175,0.009
41.180,0.025
41.185,0.069
41.190,0.078
41.195,0.054
41.200,0.023
41.205,0.019
41.210,0.037
41.215,0.020
41.220,0.022
41.225,0.040
41.230,0.017
41.235,-0.010
41.240,-0.023
41.245,-0.035
41.250,-0.057
41.255,-0.092
41.260,-0.134
41.265,-0.158
41.270,-0.093
41.275,0.017
41.280,0.040
41.285,-0.030
41.290,-0.071
41.295,0.019
41.300,0.140
41.305,0.133
41.310,0.057
41.315,0.044
41.320,0.089
41.325,0.101
41.330,0.042
41.335,-0.007
41.340,0.027
41.345,0.101
41.350,0.105
41.355,0.041
41.360,0.012
41.365,0.095
41.370,0.214
41.375,0.205
41.380,0.137
41.385,0.120
41.390,0.108
41.395,0.072
41.400,0.022
41.405,0.030
41.410,0.053
41.415,0.063
41.420,0.272
41.425,0.595
41.430,0.689
41.435,0.578
41.440,0.458
41.445,0.380
41.450,0.328
41.455,0.278
41.460,0.238
41.465,0.203
41.470,0.100
41.475,-0.044
41.480,-0.128
41.485,-0.216
41.490,-0.332
41.495,-0.328
41.500,-0.257
41.505,-0.281
41.510,-0.348
41.515,-0.348
41.520,-0.300
41.525,-0.273
41.530,-0.275
41.535,-0.292
41.540,-0.319
41.545,-0.349
41.550,-0.320
41.555,-0.210
41.560,-0.141
41.565,-0.181
41.570,-0.214
41.575,-0.188
41.580,-0.152
41.585,-0.139
41.590,-0.185
41.595,-0.210
41.600,-0.154
41.605,-0.120
41.610,-0.095
41.615,-0.066
41.620,-0.102
41.625,-0.121
41.630,-0.063
41.635,0.013
41.640,0.065
41.645,0.032
41.650,-0.052
41.655,-0.038
41.660,0.050
41.665,0.081
41.670,0.079
41.675,0.104
41.680,0.147
41.685,0.172
41.690,0.136
41.695,0.066
41.700,-0.005
41.705,-0.028
41.710,0.061
41.715,0.135
41.720,0.069
41.725,0.005
41.730,0.015
41.735,0.021
41.740,0.030
41.745,-0.010
41.750,-0.099
41.755,-0.120
41.760,-0.102
41.765,-0.057
41.770,-0.017
41.775,-0.057
41.780,-0.058
41.785,0.000
41.790,-0.020
41.795,-0.073
41.800,-0.063
41.805,0.005
41.810,0.013
41.815,-0.082
41.820,-0.127
41.825,-0.073
41.830,-0.002
41.835,-0.011
41.840,-0.106
41.845,-0.105
41.850,0.021
41.855,0.103
41.860,0.095
41.865,0.025
41.870,-0.048
41.875,-0.100
41.880,-0.137
41.885,-0.087
41.890,-0.015
41.895,0.002
41.900,0.017
41.905,0.009
41.910,-0.010
41.915,0.021
41.920,0.070
41.925,0.088
41.930,0.054
41.935,-0.011
41.940,-0.036
41.945,-0.028
41.950,-0.016
41.955,0.015
41.960,0.053
41.965,0.066
41.970,0.043
41.975,0.076
41.980,0.162
41.985,0.197
41.990,0.218
41.995,0.234
42.000,0.224
42.005,0.181
42.010,0.113
42.015,0.081
42.020,0.092
42.025,0.148
42.030,0.216
42.035,0.265
42.040,0.377
42.045,0.543
42.050,0.685
42.055,0.811
42.060,0.895
42.065,0.926
42.070,0.946
42.075,0.915
42.080,0.820
42.085,0.689
42.090,0.535
42.095,0.393
42.100,0.241
42.105,0.019
42.110,-0.269
42.115,-0.491
42.120,-0.529
42.125,-0.451
42.130,-0.418
42.135,-0.469
42.140,-0.508
42.145,-0.534
42.150,-0.576
42.155,-0.622
42.160,-0.701
42.165,-0.755
42.170,-0.736
42.175,-0.699
42.180,-0.669
42.185,-0.647
42.190,-0.648
42.195,-0.635
42.200,-0.584
42.205,-0.569
42.210,-0.587
42.215,-0.550
42.220,-0.447
42.225,-0.374
42.230,-0.396
42.235,-0.447
42.240,-0.427
42.245,-0.327
42.250,-0.284
42.255,-0.322
42.260,-0.318
42.265,-0.270
42.270,-0.216
42.275,-0.153
42.280,-0.112
42.285,-0.138
42.290,-0.200
42.295,-0.214
42.300,-0.180
42.305,-0.150
42.310,-0.120
42.315,-0.085
42.320,-0.061
42.325,-0.061
42.330,-0.068
42.335,-0.035
42.340,0.035
42.345,0.071
42.350,0.057
42.355,0.044
42.360,0.044
42.365,0.060
42.370,0.101
42.375,0.144
42.380,0.174
42.385,0.202
42.390,0.213
42.395,0.202
42.400,0.200
42.405,0.234
42.410,0.299
42.415,0.348
42.420,0.365
42.425,0.363
42.430,0.335
42.435,0.281
42.440,0.252
42.445,0.271
42.450,0.293
42.455,0.274
42.460,0.238
42.465,0.236
42.470,0.258
42.475,0.265
42.480,0.243
42.485,0.187
42.490,0.155
42.495,0.202
42.500,0.259
42.505,0.266
42.510,0.222
42.515,0.173
42.520,0.194
42.525,0.200
42.530,0.123
42.535,0.072
42.540,0.088
42.545,0.094
42.550,0.026
42.555,-0.059
42.560,-0.115
42.565,-0.176
42.570,-0.241
42.575,-0.298
42.580,-0.357
42.585,-0.430
42.590,-0.542
42.595,-0.674
42.600,-0.753
42.605,-0.808
42.610,-0.846
42.615,-0.844
42.620,-0.845
42.625,-0.847
42.630,-0.859
42.635,-0.844
42.640,-0.750
42.645,-0.573
42.650,-0.372
42.655,-0.184
42.660,0.126
42.665,0.547
42.670,0.871
42.675,1.031
42.680,1.062
42.685,1.015
42.690,0.983
42.695,0.972
42.700,0.970
42.705,0.964
42.710,0.918
42.715,0.876
42.720,0.849
42.725,0.822
42.730,0.813
42.735,0.801
42.740,0.735
42.745,0.642
42.750,0.637
42.755,0.690
42.760,0.653
42.765,0.530
42.770,0.501
42.775,0.604
42.780,0.647
42.785,0.553
42.790,0.465
42.795,0.504
42.800,0.591
42.805,0.586
42.810,0.529
42.815,0.501
42.820,0.459
42.825,0.423
42.830,0.469
42.835,0.547
42.840,0.559
42.845,0.477
42.850,0.370
42.855,0.308
42.860,0.289
42.865,0.323
42.870,0.372
42.875,0.339
42.880,0.213
42.885,0.088
42.890,0.054
42.895,0.057
42.900,0.001
42.905,-0.118
42.910,-0.234
42.915,-0.305
42.920,-0.353
42.925,-0.440
42.930,-0.581
42.935,-0.637
42.940,-0.552
42.945,-0.526
42.950,-0.651
42.955,-0.797
42.960,-0.830
42.965,-0.760
42.970,-0.721
42.975,-0.744
42.980,-0.727
42.985,-0.685
42.990,-0.692
42.995,-0.707
43.000,-0.729
43.005,-0.751
43.010,-0.726
43.015,-0.671
43.020,-0.602
43.025,-0.565
43.030,-0.590
43.035,-0.555
43.040,-0.488
43.045,-1.054
43.050,-1.975
43.055,-2.240
43.060,-2.095
43.065,-1.854
43.070,-1.764
43.075,-1.838
43.080,-1.648
43.085,-1.493
43.090,-1.530
43.095,-1.431
43.100,-1.275
43.105,-1.254
43.110,-1.204
43.115,-1.078
43.120,-1.018
43.125,-0.983
43.130,-0.891
43.135,-0.816
43.140,-0.778
43.145,-0.712
43.150,-0.639
43.155,-0.594
43.160,-0.543
43.165,-0.479
43.170,-0.431
43.175,-0.388
43.180,-0.335
43.185,-0.288
43.190,-0.249
43.195,-0.193
43.200,-0.089
43.205,0.023
43.210,0.088
43.215,0.135
43.220,0.174
43.225,0.220
43.230,0.272
43.235,0.305
43.240,0.339
43.245,0.383
43.250,0.414
43.255,0.441
43.260,0.474
43.265,0.503
43.270,0.525
43.275,0.550
43.280,0.573
43.285,0.591
43.290,0.609
43.295,0.572
43.300,0.378
43.305,0.198
43.310,0.204
43.315,0.264
43.320,0.324
43.325,0.344
43.330,0.351
43.335,0.411
43.340,0.438
43.345,0.441
43.350,0.478
43.355,0.509
43.360,0.515
43.365,0.535
43.370,0.562
43.375,0.571
43.380,0.581
43.385,0.600
43.390,0.611
43.395,0.672
43.400,0.892
43.405,1.094
43.410,1.104
43.415,1.060
43.420,1.015
43.425,1.005
43.430,1.006
43.435,0.954
43.440,0.930
43.445,0.930
43.450,0.893
43.455,0.861
43.460,0.853
43.465,0.829
43.470,0.796
43.475,0.780
43.480,0.760
43.485,0.731
43.490,0.709
43.495,0.634
43.500,0.400
43.505,0.184
43.510,0.158
43.515,0.185
43.520,0.213
43.525,0.204
43.530,0.184
43.535,0.217
43.540,0.220
43.545,0.199
43.550,0.214
43.555,0.224
43.560,0.210
43.565,0.212
43.570,0.222
43.575,0.215
43.580,0.210
43.585,0.215
43.590,0.213
43.595,0.262
43.600,0.472
43.605,0.664
43.610,0.666
43.615,0.614
43.620,0.562
43.625,0.546
43.630,0.542
43.635,0.484
43.640,0.457
43.645,0.454
43.650,0.415
43.655,0.381
43.660,0.371
43.665,0.346
43.670,0.313
43.675,0.296
43.680,0.279
43.685,0.251
43.690,0.231
43.695,0.159
43.700,-0.073
43.705,-0.286
43.710,-0.307
43.715,-0.276
43.720,-0.244
43.725,-0.248
43.730,-0.263
43.735,-0.225
43.740,-0.217
43.745,-0.232
43.750,-0.211
43.755,-0.194
43.760,-0.201
43.765,-0.193
43.770,-0.177
43.775,-0.177
43.780,-0.174
43.785,-0.162
43.790,-0.157
43.795,-0.099
43.800,0.119
43.805,0.319
43.810,0.327
43.815,0.282
43.820,0.238
43.825,0.230
43.830,0.234
43.835,0.184
43.840,0.164
43.845,0.169
43.850,0.138
43.855,0.111
43.860,0.109
43.865,0.092
43.870,0.067
43.875,0.058
43.880,0.048
43.885,0.028
43.890,0.016
43.895,-0.050
43.900,-0.275
43.905,-0.480
43.910,-0.495
43.915,-0.456
43.920,-0.417
43.925,-0.414
43.930,-0.423
43.935,-0.377
43.940,-0.362
43.945,-0.371
43.950,-0.344
43.955,-0.321
43.960,-0.322
43.965,-0.308
43.970,-0.286
43.975,-0.279
43.980,-0.271
43.985,-0.253
43.990,-0.243
43.995,-0.180
44.000,0.044
44.005,0.248
44.010,0.260
44.015,0.221
44.020,0.181
44.025,0.178
44.030,0.186
44.035,0.141
44.040,0.125
44.045,0.134
44.050,0.107
44.055,0.085
44.060,0.086
44.065,0.073
44.070,0.051
44.075,0.046
44.080,0.039
44.085,0.022
44.090,0.012
44.095,-0.050
44.100,-0.273
44.105,-0.475
44.110,-0.486
44.115,-0.444
44.120,-0.403
44.125,-0.398
44.130,-0.404
44.135,-0.357
44.140,-0.340
44.145,-0.346
44.150,-0.317
44.155,-0.293
44.160,-0.292
44.165,-0.276
44.170,-0.253
44.175,-0.245
44.180,-0.235
44.185,-0.216
44.190,-0.204
44.195,-0.140
44.200,0.085
44.205,0.290
44.210,0.304
44.215,0.264
44.220,0.226
44.225,0.223
44.230,0.232
44.235,0.188
44.240,0.173
44.245,0.182
44.250,0.155
44.255,0.133
44.260,0.135
44.265,0.122
44.270,0.101
44.275,0.096
44.280,0.089
44.285,0.072
44.290,0.063
44.295,0.000
44.300,-0.222
44.305,-0.424
44.310,-0.435
44.315,-0.394
44.320,-0.353
44.325,-0.348
44.330,-0.354
44.335,-0.307
44.340,-0.290
44.345,-0.297
44.350,-0.268
44.355,-0.244
44.360,-0.244
44.365,-0.228
44.370,-0.205
44.375,-0.197
44.380,-0.188
44.385,-0.170
44.390,-0.159
44.395,-0.095
44.400,0.130
44.405,0.335
44.410,0.348
44.415,0.308
44.420,0.269
44.425,0.266
44.430,0.275
44.435,0.229
44.440,0.214
44.445,0.222
44.450,0.195
44.455,0.173
44.460,0.174
44.465,0.160
44.470,0.138
44.475,0.133
44.480,0.125
44.485,0.108
44.490,0.098
44.495,0.035
44.500,-0.188
44.505,-0.391
44.510,-0.402
44.515,-0.361
44.520,-0.321
44.525,-0.317
44.530,-0.324
44.535,-0.278
44.540,-0.262
44.545,-0.269
44.550,-0.240
44.555,-0.217
44.560,-0.217
44.565,-0.202
44.570,-0.179
44.575,-0.173
44.580,-0.164
44.585,-0.146
44.590,-0.135
44.595,-0.071
44.600,0.153
44.605,0.357
44.610,0.370
44.615,0.329
44.620,0.290
44.625,0.286
44.630,0.294
44.635,0.248
44.640,0.232
44.645,0.241
44.650,0.213
44.655,0.190
44.660,0.191
44.665,0.176
44.670,0.154
44.675,0.148
44.680,0.140
44.685,0.123
44.690,0.112
44.695,0.049
44.700,-0.175
44.705,-0.378
44.710,-0.390
44.715,-0.349
44.720,-0.310
44.725,-0.305
44.730,-0.313
44.735,-0.267
44.740,-0.251
44.745,-0.258
44.750,-0.230
44.755,-0.207
44.760,-0.208
44.765,-0.193
44.770,-0.170
44.775,-0.164
44.780,-0.156
44.785,-0.138
44.790,-0.127
44.795,-0.064
44.800,0.160
44.805,0.364
44.810,0.376
44.815,0.336
44.820,0.296
44.825,0.292
44.830,0.300
44.835,0.254
44.840,0.238
44.845,0.246
44.850,0.218
44.855,0.195
44.860,0.196
44.865,0.181
44.870,0.158
44.875,0.153
44.880,0.144
44.885,0.127
44.890,0.117
44.895,0.053
44.900,-0.171
44.905,-0.374
44.910,-0.386
44.915,-0.346
44.920,-0.306
44.925,-0.302
44.930,-0.310
44.935,-0.264
44.940,-0.248
44.945,-0.256
44.950,-0.228
44.955,-0.204
44.960,-0.205
44.965,-0.190
44.970,-0.167
44.975,-0.161
44.980,-0.153
44.985,-0.135
44.990,-0.125
44.995,-0.062
45.000,0.163
45.005,0.366
45.010,0.378
45.015,0.338
45.020,0.298
45.025,0.294
45.030,0.302
45.035,0.256
45.040,0.240
45.045,0.248
45.050,0.220
45.055,0.197
45.060,0.198
45.065,0.183
45.070,0.160
45.075,0.154
45.080,0.146
45.085,0.128
45.090,0.118
45.095,0.054
45.100,-0.170
45.105,-0.373
45.110,-0.384
45.115,-0.344
45.120,-0.305
45.125,-0.301
45.130,-0.308
45.135,-0.262
45.140,-0.246
45.145,-0.254
45.150,-0.226
45.155,-0.202
45.160,-0.203
45.165,-0.189
45.170,-0.167
45.175,-0.160
45.180,-0.152
45.185,-0.134
45.190,-0.124
45.195,-0.060
45.200,0.164
45.205,0.367
45.210,0.379
45.215,0.339
45.220,0.299
45.225,0.295
45.230,0.303
45.235,0.256
45.240,0.241
45.245,0.249
45.250,0.221
45.255,0.197
