'Elapsed time','ECG'
'seconds','mV'
0.000,0.006
0.005,0.008
0.010,0.008
0.015,0.007
0.020,0.006
0.025,0.007
0.030,0.010
0.035,0.011
0.040,0.012
0.045,0.014
0.050,0.014
0.055,0.013
0.060,0.014
0.065,0.013
0.070,0.011
0.075,0.010
0.080,0.009
0.085,0.011
0.090,0.012
0.095,0.012
0.100,0.011
0.105,0.012
0.110,0.012
0.115,0.010
0.120,0.008
0.125,0.009
0.130,0.011
0.135,0.011
0.140,0.009
0.145,0.007
0.150,0.008
0.155,0.008
0.160,0.005
0.165,0.003
0.170,0.003
0.175,0.005
0.180,0.005
0.185,0.003
0.190,0.003
0.195,0.003
0.200,0.003
0.205,0.003
0.210,0.002
0.215,0.002
0.220,0.001
0.225,0.000
0.230,0.000
0.235,0.000
0.240,0.000
0.245,0.000
0.250,-0.001
0.255,-0.001
0.260,-0.001
0.265,0.001
0.270,0.003
0.275,0.003
0.280,0.002
0.285,0.000
0.290,0.000
0.295,0.004
0.300,0.004
0.305,0.001
0.310,-0.001
0.315,-0.001
0.320,0.001
0.325,0.002
0.330,0.001
0.335,0.000
0.340,0.000
0.345,0.000
0.350,0.002
0.355,0.003
0.360,0.004
0.365,0.007
0.370,0.011
0.375,0.016
0.380,0.019
0.385,0.022
0.390,0.027
0.395,0.030
0.400,0.028
0.405,0.025
0.410,0.030
0.415,0.043
0.420,0.046
0.425,0.037
0.430,0.031
0.435,0.032
0.440,0.034
0.445,0.030
0.450,0.021
0.455,0.012
0.460,-0.002
0.465,-0.019
0.470,-0.027
0.475,-0.032
0.480,-0.036
0.485,-0.036
0.490,-0.036
0.495,-0.034
0.500,-0.035
0.505,-0.034
0.510,-0.031
0.515,-0.029
0.520,-0.028
0.525,-0.031
0.530,-0.023
0.535,0.027
0.540,0.137
0.545,0.276
0.550,0.368
0.555,0.357
0.560,0.230
0.565,0.042
0.570,-0.112
0.575,-0.169
0.580,-0.138
0.585,-0.084
0.590,-0.055
0.595,-0.052
0.600,-0.057
0.605,-0.064
0.610,-0.066
0.615,-0.062
0.620,-0.061
0.625,-0.061
0.630,-0.060
0.635,-0.058
0.640,-0.054
0.645,-0.051
0.650,-0.048
0.655,-0.042
0.660,-0.039
0.665,-0.041
0.670,-0.037
0.675,-0.031
0.680,-0.026
0.685,-0.023
0.690,-0.025
0.695,-0.021
0.700,-0.014
0.705,-0.015
0.710,-0.018
0.715,-0.016
0.720,-0.012
0.725,-0.008
0.730,-0.006
0.735,-0.005
0.740,-0.002
0.745,0.000
0.750,-0.004
0.755,-0.005
0.760,-0.004
0.765,-0.006
0.770,-0.011
0.775,-0.014
0.780,-0.018
0.785,-0.021
0.790,-0.024
0.795,-0.029
0.800,-0.030
0.805,-0.031
0.810,-0.034
0.815,-0.035
0.820,-0.034
0.825,-0.032
0.830,-0.027
0.835,-0.021
0.840,-0.015
0.845,-0.013
0.850,-0.011
0.855,-0.007
0.860,-0.004
0.865,-0.002
0.870,-0.001
0.875,-0.001
0.880,0.000
0.885,-0.001
0.890,0.000
0.895,0.005
0.900,0.004
0.905,0.004
0.910,0.005
0.915,0.006
0.920,0.008
0.925,0.006
0.930,0.006
0.935,0.010
0.940,0.010
0.945,0.011
0.950,0.013
0.955,0.012
0.960,0.011
0.965,0.010
0.970,0.010
0.975,0.010
0.980,0.010
0.985,0.011
0.990,0.014
0.995,0.016
1.000,0.017
1.005,0.016
1.010,0.013
1.015,0.012
1.020,0.012
1.025,0.012
1.030,0.012
1.035,0.012
1.040,0.012
1.045,0.012
1.050,0.010
1.055,0.009
1.060,0.010
1.065,0.010
1.070,0.008
1.075,0.007
1.080,0.008
1.085,0.008
1.090,0.006
1.095,0.007
1.100,0.008
1.105,0.007
1.110,0.005
1.115,0.005
1.120,0.007
1.125,0.005
1.130,0.002
1.135,0.002
1.140,0.003
1.145,0.004
1.150,0.007
1.155,0.008
1.160,0.007
1.165,0.005
1.170,0.003
1.175,0.005
1.180,0.006
1.185,0.005
1.190,0.003
1.195,0.001
1.200,0.003
1.205,0.004
1.210,0.002
1.215,0.001
1.220,0.001
1.225,0.002
1.230,0.004
1.235,0.007
1.240,0.012
1.245,0.017
1.250,0.019
1.255,0.023
1.260,0.028
1.265,0.030
1.270,0.028
1.275,0.026
1.280,0.031
1.285,0.045
1.290,0.049
1.295,0.042
1.300,0.035
1.305,0.038
1.310,0.040
1.315,0.032
1.320,0.022
1.325,0.012
1.330,0.001
1.335,-0.012
1.340,-0.022
1.345,-0.027
1.350,-0.028
1.355,-0.032
1.360,-0.034
1.365,-0.034
1.370,-0.032
1.375,-0.030
1.380,-0.028
1.385,-0.029
1.390,-0.029
1.395,-0.028
1.400,-0.012
1.405,0.049
1.410,0.163
1.415,0.294
1.420,0.374
1.425,0.351
1.430,0.218
1.435,0.032
1.440,-0.115
1.445,-0.157
1.450,-0.119
1.455,-0.071
1.460,-0.055
1.465,-0.062
1.470,-0.068
1.475,-0.067
1.480,-0.065
1.485,-0.063
1.490,-0.063
1.495,-0.064
1.500,-0.063
1.505,-0.062
1.510,-0.060
1.515,-0.054
1.520,-0.050
1.525,-0.048
1.530,-0.044
1.535,-0.041
1.540,-0.040
1.545,-0.037
1.550,-0.032
1.555,-0.027
1.560,-0.025
1.565,-0.023
1.570,-0.020
1.575,-0.018
1.580,-0.016
1.585,-0.014
1.590,-0.011
1.595,-0.008
1.600,-0.006
1.605,-0.004
1.610,-0.004
1.615,-0.006
1.620,-0.006
1.625,-0.004
1.630,-0.005
1.635,-0.008
1.640,-0.011
1.645,-0.014
1.650,-0.018
1.655,-0.022
1.660,-0.025
1.665,-0.028
1.670,-0.032
1.675,-0.035
1.680,-0.034
1.685,-0.034
1.690,-0.034
1.695,-0.031
1.700,-0.024
1.705,-0.018
1.710,-0.016
1.715,-0.014
1.720,-0.011
1.725,-0.009
1.730,-0.005
1.735,-0.002
1.740,0.000
1.745,0.000
1.750,0.000
1.755,0.001
1.760,0.003
1.765,0.002
1.770,0.000
1.775,0.001
1.780,0.003
1.785,0.005
1.790,0.006
1.795,0.004
1.800,0.005
1.805,0.008
1.810,0.010
1.815,0.011
1.820,0.010
1.825,0.010
1.830,0.010
1.835,0.011
1.840,0.013
1.845,0.014
1.850,0.014
1.855,0.013
1.860,0.015
1.865,0.014
1.870,0.011
1.875,0.012
1.880,0.014
1.885,0.014
1.890,0.012
1.895,0.010
1.900,0.010
1.905,0.011
1.910,0.011
1.915,0.009
1.920,0.009
1.925,0.009
1.930,0.008
1.935,0.006
1.940,0.005
1.945,0.005
1.950,0.006
1.955,0.004
1.960,0.002
1.965,0.003
1.970,0.004
1.975,0.003
1.980,0.003
1.985,0.005
1.990,0.005
1.995,0.004
2.000,0.004
2.005,0.003
2.010,0.002
2.015,0.003
2.020,0.003
2.025,0.002
2.030,0.002
2.035,0.002
2.040,0.002
2.045,0.002
2.050,0.001
2.055,0.001
2.060,0.002
2.065,0.002
2.070,0.004
2.075,0.004
2.080,0.002
2.085,0.009
2.090,0.015
2.095,0.020
2.100,0.021
2.105,0.023
2.110,0.031
2.115,0.035
2.120,0.029
2.125,0.026
2.130,0.032
2.135,0.045
2.140,0.051
2.145,0.041
2.150,0.033
2.155,0.039
2.160,0.044
2.165,0.038
2.170,0.024
2.175,0.011
2.180,-0.001
2.185,-0.013
2.190,-0.020
2.195,-0.026
2.200,-0.033
2.205,-0.037
2.210,-0.038
2.215,-0.035
2.220,-0.035
2.225,-0.034
2.230,-0.031
2.235,-0.028
2.240,-0.032
2.245,-0.038
2.250,-0.021
2.255,0.048
2.260,0.171
2.265,0.308
2.270,0.395
2.275,0.381
2.280,0.244
2.285,0.049
2.290,-0.103
2.295,-0.148
2.300,-0.109
2.305,-0.066
2.310,-0.057
2.315,-0.067
2.320,-0.075
2.325,-0.076
2.330,-0.072
2.335,-0.073
2.340,-0.076
2.345,-0.075
2.350,-0.072
2.355,-0.069
2.360,-0.066
2.365,-0.063
2.370,-0.060
2.375,-0.057
2.380,-0.050
2.385,-0.048
2.390,-0.048
2.395,-0.044
2.400,-0.040
2.405,-0.036
2.410,-0.032
2.415,-0.029
2.420,-0.025
2.425,-0.023
2.430,-0.023
2.435,-0.021
2.440,-0.016
2.445,-0.013
2.450,-0.010
2.455,-0.008
2.460,-0.011
2.465,-0.012
2.470,-0.009
2.475,-0.007
2.480,-0.008
2.485,-0.010
2.490,-0.014
2.495,-0.017
2.500,-0.021
2.505,-0.024
2.510,-0.025
2.515,-0.029
2.520,-0.034
2.525,-0.035
2.530,-0.034
2.535,-0.032
2.540,-0.031
2.545,-0.028
2.550,-0.022
2.555,-0.018
2.560,-0.014
2.565,-0.009
2.570,-0.005
2.575,-0.002
2.580,0.000
2.585,0.002
2.590,0.004
2.595,0.004
2.600,0.006
2.605,0.006
2.610,0.006
2.615,0.007
2.620,0.007
2.625,0.008
2.630,0.009
2.635,0.011
2.640,0.010
2.645,0.010
2.650,0.010
2.655,0.012
2.660,0.015
2.665,0.015
2.670,0.015
2.675,0.017
2.680,0.018
2.685,0.016
2.690,0.015
2.695,0.016
2.700,0.017
2.705,0.018
2.710,0.018
2.715,0.017
2.720,0.016
2.725,0.016
2.730,0.016
2.735,0.015
2.740,0.015
2.745,0.014
2.750,0.015
2.755,0.014
2.760,0.013
2.765,0.013
2.770,0.010
2.775,0.008
2.780,0.009
2.785,0.009
2.790,0.009
2.795,0.008
2.800,0.008
2.805,0.008
2.810,0.006
2.815,0.004
2.820,0.005
2.825,0.005
2.830,0.004
2.835,0.005
2.840,0.005
2.845,0.005
2.850,0.005
2.855,0.005
2.860,0.006
2.865,0.008
2.870,0.005
2.875,0.003
2.880,0.004
2.885,0.005
2.890,0.005
2.895,0.007
2.900,0.012
2.905,0.017
2.910,0.021
2.915,0.023
2.920,0.027
2.925,0.034
2.930,0.035
2.935,0.030
2.940,0.029
2.945,0.037
2.950,0.046
2.955,0.045
2.960,0.035
2.965,0.034
2.970,0.041
2.975,0.040
2.980,0.031
2.985,0.020
2.990,0.010
2.995,-0.003
3.000,-0.016
3.005,-0.025
3.010,-0.032
3.015,-0.036
3.020,-0.038
3.025,-0.037
3.030,-0.034
3.035,-0.035
3.040,-0.034
3.045,-0.031
3.050,-0.030
3.055,-0.035
3.060,-0.036
3.065,-0.009
3.070,0.080
3.075,0.217
3.080,0.345
3.085,0.403
3.090,0.344
3.095,0.182
3.100,-0.009
3.105,-0.133
3.110,-0.139
3.115,-0.090
3.120,-0.056
3.125,-0.057
3.130,-0.070
3.135,-0.074
3.140,-0.075
3.145,-0.076
3.150,-0.075
3.155,-0.076
3.160,-0.077
3.165,-0.074
3.170,-0.068
3.175,-0.063
3.180,-0.061
3.185,-0.059
3.190,-0.056
3.195,-0.052
3.200,-0.048
3.205,-0.045
3.210,-0.043
3.215,-0.039
3.220,-0.035
3.225,-0.031
3.230,-0.029
3.235,-0.026
3.240,-0.020
3.245,-0.018
3.250,-0.015
3.255,-0.010
3.260,-0.010
3.265,-0.010
3.270,-0.011
3.275,-0.010
3.280,-0.007
3.285,-0.006
3.290,-0.007
3.295,-0.008
3.300,-0.010
3.305,-0.014
3.310,-0.019
3.315,-0.022
3.320,-0.025
3.325,-0.029
3.330,-0.032
3.335,-0.034
3.340,-0.034
3.345,-0.034
3.350,-0.029
3.355,-0.023
3.360,-0.026
3.365,-0.025
3.370,-0.017
3.375,-0.013
3.380,-0.014
3.385,-0.013
3.390,-0.010
3.395,-0.004
3.400,-0.002
3.405,-0.002
3.410,0.000
3.415,0.001
3.420,0.000
3.425,0.004
3.430,0.006
3.435,0.003
3.440,0.003
3.445,0.005
3.450,0.005
3.455,0.004
3.460,0.009
3.465,0.011
3.470,0.009
3.475,0.007
3.480,0.008
3.485,0.011
3.490,0.014
3.495,0.012
3.500,0.009
3.505,0.011
3.510,0.010
3.515,0.011
3.520,0.012
3.525,0.013
3.530,0.014
3.535,0.012
3.540,0.010
3.545,0.011
3.550,0.012
3.555,0.013
3.560,0.013
3.565,0.013
3.570,0.014
3.575,0.011
3.580,0.010
3.585,0.010
3.590,0.011
3.595,0.013
3.600,0.011
3.605,0.009
3.610,0.008
3.615,0.010
3.620,0.012
3.625,0.011
3.630,0.009
3.635,0.006
3.640,0.005
3.645,0.009
3.650,0.011
3.655,0.009
3.660,0.008
3.665,0.007
3.670,0.009
3.675,0.012
3.680,0.012
3.685,0.014
3.690,0.019
3.695,0.022
3.700,0.023
3.705,0.028
3.710,0.035
3.715,0.034
3.720,0.030
3.725,0.030
3.730,0.037
3.735,0.052
3.740,0.056
3.745,0.046
3.750,0.038
3.755,0.038
3.760,0.044
3.765,0.041
3.770,0.025
3.775,0.011
3.780,0.001
3.785,-0.010
3.790,-0.021
3.795,-0.030
3.800,-0.033
3.805,-0.035
3.810,-0.040
3.815,-0.041
3.820,-0.036
3.825,-0.032
3.830,-0.035
3.835,-0.036
3.840,-0.036
3.845,-0.041
3.850,-0.030
3.855,0.024
3.860,0.135
3.865,0.276
3.870,0.377
3.875,0.385
3.880,0.270
3.885,0.077
3.890,-0.089
3.895,-0.150
3.900,-0.115
3.905,-0.069
3.910,-0.058
3.915,-0.066
3.920,-0.072
3.925,-0.069
3.930,-0.068
3.935,-0.070
3.940,-0.074
3.945,-0.076
3.950,-0.071
3.955,-0.068
3.960,-0.067
3.965,-0.060
3.970,-0.057
3.975,-0.057
3.980,-0.052
3.985,-0.047
3.990,-0.042
3.995,-0.040
4.000,-0.038
4.005,-0.035
4.010,-0.032
4.015,-0.031
4.020,-0.029
4.025,-0.024
4.030,-0.022
4.035,-0.020
4.040,-0.020
4.045,-0.018
4.050,-0.013
4.055,-0.009
4.060,-0.005
4.065,-0.005
4.070,-0.005
4.075,-0.005
4.080,-0.005
4.085,-0.007
4.090,-0.010
4.095,-0.012
4.100,-0.016
4.105,-0.019
4.110,-0.022
4.115,-0.024
4.120,-0.026
4.125,-0.029
4.130,-0.029
4.135,-0.027
4.140,-0.026
4.145,-0.022
4.150,-0.020
4.155,-0.016
4.160,-0.011
4.165,-0.008
4.170,-0.004
4.175,0.000
4.180,0.001
4.185,0.002
4.190,0.004
4.195,0.003
4.200,0.003
4.205,0.005
4.210,0.008
4.215,0.010
4.220,0.011
4.225,0.010
4.230,0.010
4.235,0.009
4.240,0.009
4.245,0.010
4.250,0.012
4.255,0.014
4.260,0.016
4.265,0.017
4.270,0.015
4.275,0.014
4.280,0.015
4.285,0.014
4.290,0.014
4.295,0.015
4.300,0.017
4.305,0.018
4.310,0.016
4.315,0.013
4.320,0.015
4.325,0.018
4.330,0.016
4.335,0.014
4.340,0.014
4.345,0.015
4.350,0.014
4.355,0.013
4.360,0.013
4.365,0.012
4.370,0.011
4.375,0.010
4.380,0.011
4.385,0.010
4.390,0.006
4.395,0.006
4.400,0.009
4.405,0.009
4.410,0.008
4.415,0.005
4.420,0.006
4.425,0.007
4.430,0.006
4.435,0.007
4.440,0.012
4.445,0.017
4.450,0.021
4.455,0.022
4.460,0.026
4.465,0.033
4.470,0.033
4.475,0.028
4.480,0.028
4.485,0.037
4.490,0.052
4.495,0.056
4.500,0.046
4.505,0.039
4.510,0.042
4.515,0.043
4.520,0.035
4.525,0.022
4.530,0.012
4.535,-0.001
4.540,-0.018
4.545,-0.029
4.550,-0.035
4.555,-0.038
4.560,-0.041
4.565,-0.041
4.570,-0.038
4.575,-0.036
4.580,-0.038
4.585,-0.038
4.590,-0.036
4.595,-0.036
4.600,-0.040
4.605,-0.029
4.610,0.029
4.615,0.149
4.620,0.294
4.625,0.395
4.630,0.395
4.635,0.269
4.640,0.072
4.645,-0.091
4.650,-0.150
4.655,-0.115
4.660,-0.067
4.665,-0.056
4.670,-0.066
4.675,-0.075
4.680,-0.077
4.685,-0.076
4.690,-0.077
4.695,-0.077
4.700,-0.074
4.705,-0.071
4.710,-0.070
4.715,-0.066
4.720,-0.063
4.725,-0.061
4.730,-0.058
4.735,-0.054
4.740,-0.050
4.745,-0.047
4.750,-0.043
4.755,-0.040
4.760,-0.036
4.765,-0.032
4.770,-0.028
4.775,-0.025
4.780,-0.022
4.785,-0.020
4.790,-0.017
4.795,-0.016
4.800,-0.014
4.805,-0.012
4.810,-0.009
4.815,-0.008
4.820,-0.006
4.825,-0.006
4.830,-0.009
4.835,-0.010
4.840,-0.011
4.845,-0.014
4.850,-0.019
4.855,-0.024
4.860,-0.028
4.865,-0.030
4.870,-0.031
4.875,-0.034
4.880,-0.035
4.885,-0.034
4.890,-0.034
4.895,-0.031
4.900,-0.027
4.905,-0.024
4.910,-0.019
4.915,-0.015
4.920,-0.011
4.925,-0.008
4.930,-0.005
4.935,-0.003
4.940,0.000
4.945,0.001
4.950,0.001
4.955,0.004
4.960,0.004
4.965,0.003
4.970,0.003
4.975,0.004
4.980,0.005
4.985,0.006
4.990,0.006
4.995,0.007
5.000,0.008
5.005,0.009
5.010,0.013
5.015,0.014
5.020,0.014
5.025,0.013
5.030,0.014
5.035,0.015
5.040,0.016
5.045,0.016
5.050,0.016
5.055,0.016
5.060,0.016
5.065,0.016
5.070,0.016
5.075,0.017
5.080,0.015
5.085,0.013
5.090,0.012
5.095,0.011
5.100,0.012
5.105,0.014
5.110,0.013
5.115,0.012
5.120,0.011
5.125,0.009
5.130,0.009
5.135,0.008
5.140,0.006
5.145,0.006
5.150,0.007
5.155,0.006
5.160,0.007
5.165,0.007
5.170,0.007
5.175,0.007
5.180,0.006
5.185,0.006
5.190,0.006
5.195,0.007
5.200,0.011
5.205,0.017
5.210,0.020
5.215,0.022
5.220,0.025
5.225,0.029
5.230,0.036
5.235,0.039
5.240,0.036
5.245,0.033
5.250,0.040
5.255,0.053
5.260,0.057
5.265,0.047
5.270,0.041
5.275,0.045
5.280,0.048
5.285,0.040
5.290,0.026
5.295,0.014
5.300,0.000
5.305,-0.017
5.310,-0.029
5.315,-0.035
5.320,-0.039
5.325,-0.041
5.330,-0.039
5.335,-0.034
5.340,-0.034
5.345,-0.037
5.350,-0.036
5.355,-0.033
5.360,-0.032
5.365,-0.036
5.370,-0.028
5.375,0.027
5.380,0.142
5.385,0.287
5.390,0.394
5.395,0.404
5.400,0.288
5.405,0.091
5.410,-0.083
5.415,-0.154
5.420,-0.125
5.425,-0.074
5.430,-0.057
5.435,-0.063
5.440,-0.071
5.445,-0.074
5.450,-0.073
5.455,-0.070
5.460,-0.072
5.465,-0.073
5.470,-0.071
5.475,-0.066
5.480,-0.062
5.485,-0.059
5.490,-0.056
5.495,-0.050
5.500,-0.046
5.505,-0.048
5.510,-0.047
5.515,-0.041
5.520,-0.037
5.525,-0.034
5.530,-0.030
5.535,-0.024
5.540,-0.023
5.545,-0.022
5.550,-0.020
5.555,-0.017
5.560,-0.012
5.565,-0.011
5.570,-0.011
5.575,-0.009
5.580,-0.007
5.585,-0.005
5.590,-0.004
5.595,-0.007
5.600,-0.011
5.605,-0.012
5.610,-0.016
5.615,-0.020
5.620,-0.021
5.625,-0.026
5.630,-0.032
5.635,-0.035
5.640,-0.037
5.645,-0.037
5.650,-0.038
5.655,-0.038
5.660,-0.031
5.665,-0.026
5.670,-0.023
5.675,-0.017
5.680,-0.013
5.685,-0.010
5.690,-0.008
5.695,-0.008
5.700,-0.006
5.705,-0.005
5.710,-0.005
5.715,-0.003
5.720,0.000
5.725,-0.001
5.730,0.000
5.735,0.002
5.740,0.003
5.745,0.003
5.750,0.003
5.755,0.002
5.760,0.004
5.765,0.007
5.770,0.009
5.775,0.013
5.780,0.013
5.785,0.010
5.790,0.009
5.795,0.011
5.800,0.014
5.805,0.014
5.810,0.011
5.815,0.012
5.820,0.014
5.825,0.013
5.830,0.014
5.835,0.014
5.840,0.012
5.845,0.009
5.850,0.009
5.855,0.011
5.860,0.014
5.865,0.015
5.870,0.011
5.875,0.011
5.880,0.012
5.885,0.009
5.890,0.005
5.895,0.004
5.900,0.006
5.905,0.008
5.910,0.008
5.915,0.007
5.920,0.008
5.925,0.009
5.930,0.008
5.935,0.008
5.940,0.006
5.945,0.002
5.950,0.002
5.955,0.003
5.960,0.005
5.965,0.007
5.970,0.009
5.975,0.009
5.980,0.009
5.985,0.012
5.990,0.016
5.995,0.020
6.000,0.023
6.005,0.026
6.010,0.029
6.015,0.030
6.020,0.028
6.025,0.028
6.030,0.040
6.035,0.053
6.040,0.054
6.045,0.046
6.050,0.043
6.055,0.045
6.060,0.041
6.065,0.031
6.070,0.020
6.075,0.006
6.080,-0.008
6.085,-0.017
6.090,-0.022
6.095,-0.026
6.100,-0.031
6.105,-0.033
6.110,-0.030
6.115,-0.030
6.120,-0.031
6.125,-0.029
6.130,-0.027
6.135,-0.025
6.140,-0.024
6.145,-0.027
6.150,-0.013
6.155,0.047
6.160,0.162
6.165,0.287
6.170,0.356
6.175,0.320
6.180,0.177
6.185,-0.007
6.190,-0.138
6.195,-0.163
6.200,-0.118
6.205,-0.070
6.210,-0.050
6.215,-0.051
6.220,-0.051
6.225,-0.051
6.230,-0.052
6.235,-0.051
6.240,-0.051
6.245,-0.050
6.250,-0.047
6.255,-0.044
6.260,-0.041
6.265,-0.031
6.270,-0.028
6.275,-0.036
6.280,-0.036
6.285,-0.024
6.290,-0.015
6.295,-0.016
6.300,-0.019
6.305,-0.016
6.310,-0.009
6.315,-0.010
6.320,-0.013
6.325,-0.009
6.330,-0.012
6.335,-0.016
6.340,-0.020
6.345,-0.022
6.350,-0.019
6.355,-0.021
6.360,-0.018
6.365,-0.012
6.370,-0.014
6.375,-0.019
6.380,-0.024
6.385,-0.024
6.390,-0.022
6.395,-0.024
6.400,-0.030
6.405,-0.032
6.410,-0.033
6.415,-0.035
6.420,-0.037
6.425,-0.037
6.430,-0.036
6.435,-0.032
6.440,-0.026
6.445,-0.022
6.450,-0.020
6.455,-0.017
6.460,-0.014
6.465,-0.010
6.470,-0.006
6.475,-0.005
6.480,-0.006
6.485,-0.004
6.490,-0.002
6.495,-0.002
6.500,0.000
6.505,0.002
6.510,0.005
6.515,0.007
6.520,0.007
6.525,0.007
6.530,0.010
6.535,0.012
6.540,0.013
6.545,0.014
6.550,0.015
6.555,0.015
6.560,0.017
6.565,0.020
6.570,0.019
6.575,0.018
6.580,0.019
6.585,0.021
6.590,0.022
6.595,0.021
6.600,0.020
6.605,0.022
6.610,0.024
6.615,0.023
6.620,0.021
6.625,0.019
6.630,0.018
6.635,0.017
6.640,0.017
6.645,0.018
6.650,0.017
6.655,0.017
6.660,0.016
6.665,0.015
6.670,0.015
6.675,0.015
6.680,0.013
6.685,0.012
6.690,0.014
6.695,0.014
6.700,0.013
6.705,0.012
6.710,0.011
6.715,0.012
6.720,0.012
6.725,0.011
6.730,0.010
6.735,0.010
6.740,0.010
6.745,0.008
6.750,0.008
6.755,0.007
6.760,0.007
6.765,0.009
6.770,0.009
6.775,0.008
6.780,0.005
6.785,0.003
6.790,0.007
6.795,0.012
6.800,0.018
6.805,0.021
6.810,0.024
6.815,0.034
6.820,0.056
6.825,0.093
6.830,0.126
6.835,0.137
6.840,0.111
6.845,0.053
6.850,0.003
6.855,-0.022
6.860,-0.017
6.865,0.001
6.870,0.007
6.875,0.006
6.880,0.004
6.885,-0.004
6.890,-0.015
6.895,-0.023
6.900,-0.028
6.905,-0.034
6.910,-0.039
6.915,-0.045
6.920,-0.047
6.925,-0.045
6.930,-0.044
6.935,-0.045
6.940,-0.043
6.945,-0.040
6.950,-0.039
6.955,-0.045
6.960,-0.040
6.965,0.013
6.970,0.131
6.975,0.277
6.980,0.381
6.985,0.387
6.990,0.267
6.995,0.071
7.000,-0.095
7.005,-0.157
7.010,-0.122
7.015,-0.074
7.020,-0.061
7.025,-0.069
7.030,-0.079
7.035,-0.082
7.040,-0.082
7.045,-0.081
7.050,-0.080
7.055,-0.080
7.060,-0.081
7.065,-0.079
7.070,-0.075
7.075,-0.070
7.080,-0.066
7.085,-0.064
7.090,-0.061
7.095,-0.057
7.100,-0.052
7.105,-0.049
7.110,-0.046
7.115,-0.042
7.120,-0.038
7.125,-0.035
7.130,-0.030
7.135,-0.027
7.140,-0.025
7.145,-0.024
7.150,-0.021
7.155,-0.018
7.160,-0.016
7.165,-0.015
7.170,-0.013
7.175,-0.012
7.180,-0.012
7.185,-0.013
7.190,-0.015
7.195,-0.018
7.200,-0.021
7.205,-0.023
7.210,-0.027
7.215,-0.031
7.220,-0.034
7.225,-0.035
7.230,-0.036
7.235,-0.037
7.240,-0.036
7.245,-0.035
7.250,-0.031
7.255,-0.027
7.260,-0.023
7.265,-0.017
7.270,-0.011
7.275,-0.008
7.280,-0.003
7.285,0.000
7.290,0.002
7.295,0.002
7.300,0.002
7.305,0.004
7.310,0.006
7.315,0.007
7.320,0.008
7.325,0.008
7.330,0.008
7.335,0.009
7.340,0.010
7.345,0.010
7.350,0.011
7.355,0.013
7.360,0.014
7.365,0.015
7.370,0.016
7.375,0.017
7.380,0.016
7.385,0.016
7.390,0.016
7.395,0.016
7.400,0.016
7.405,0.016
7.410,0.016
7.415,0.016
7.420,0.017
7.425,0.016
7.430,0.016
7.435,0.016
7.440,0.015
7.445,0.015
7.450,0.014
7.455,0.014
7.460,0.015
7.465,0.015
7.470,0.013
7.475,0.011
7.480,0.011
7.485,0.010
7.490,0.011
7.495,0.011
7.500,0.010
7.505,0.009
7.510,0.007
7.515,0.005
7.520,0.003
7.525,0.002
7.530,0.002
7.535,0.004
7.540,0.006
7.545,0.006
7.550,0.006
7.555,0.007
7.560,0.006
7.565,0.006
7.570,0.006
7.575,0.006
7.580,0.006
7.585,0.005
7.590,0.005
7.595,0.005
7.600,0.006
7.605,0.005
7.610,0.004
7.615,0.004
7.620,0.006
7.625,0.006
7.630,0.006
7.635,0.005
7.640,0.005
7.645,0.006
7.650,0.008
7.655,0.013
7.660,0.018
7.665,0.022
7.670,0.026
7.675,0.030
7.680,0.033
7.685,0.034
7.690,0.029
7.695,0.030
7.700,0.042
7.705,0.051
7.710,0.047
7.715,0.035
7.720,0.034
7.725,0.040
7.730,0.039
7.735,0.030
7.740,0.021
7.745,0.012
7.750,-0.003
7.755,-0.019
7.760,-0.027
7.765,-0.032
7.770,-0.039
7.775,-0.043
7.780,-0.040
7.785,-0.037
7.790,-0.037
7.795,-0.036
7.800,-0.034
7.805,-0.031
7.810,-0.032
7.815,-0.036
7.820,-0.022
7.825,0.041
7.830,0.164
7.835,0.310
7.840,0.408
7.845,0.402
7.850,0.268
7.855,0.065
7.860,-0.097
7.865,-0.151
7.870,-0.110
7.875,-0.064
7.880,-0.056
7.885,-0.067
7.890,-0.076
7.895,-0.077
7.900,-0.076
7.905,-0.076
7.910,-0.077
7.915,-0.077
7.920,-0.076
7.925,-0.073
7.930,-0.067
7.935,-0.063
7.940,-0.061
7.945,-0.058
7.950,-0.055
7.955,-0.055
7.960,-0.053
7.965,-0.048
7.970,-0.041
7.975,-0.034
7.980,-0.031
7.985,-0.030
7.990,-0.028
7.995,-0.026
8.000,-0.024
8.005,-0.019
8.010,-0.016
8.015,-0.013
8.020,-0.010
8.025,-0.008
8.030,-0.008
8.035,-0.009
8.040,-0.012
8.045,-0.014
8.050,-0.015
8.055,-0.016
8.060,-0.019
8.065,-0.022
8.070,-0.026
8.075,-0.030
8.080,-0.032
8.085,-0.034
8.090,-0.038
8.095,-0.038
8.100,-0.038
8.105,-0.038
8.110,-0.035
8.115,-0.029
8.120,-0.024
8.125,-0.019
8.130,-0.014
8.135,-0.009
8.140,-0.004
8.145,0.000
8.150,0.002
8.155,0.004
8.160,0.004
8.165,0.002
8.170,0.003
8.175,0.004
8.180,0.005
8.185,0.007
8.190,0.009
8.195,0.009
8.200,0.009
8.205,0.012
8.210,0.014
8.215,0.014
8.220,0.013
8.225,0.013
8.230,0.012
8.235,0.012
8.240,0.013
8.245,0.015
8.250,0.016
8.255,0.016
8.260,0.017
8.265,0.018
8.270,0.016
8.275,0.015
8.280,0.014
8.285,0.013
8.290,0.012
8.295,0.013
8.300,0.015
8.305,0.015
8.310,0.012
8.315,0.011
8.320,0.009
8.325,0.007
8.330,0.009
8.335,0.010
8.340,0.008
8.345,0.007
8.350,0.007
8.355,0.008
8.360,0.008
8.365,0.006
8.370,0.007
8.375,0.006
8.380,0.002
8.385,0.001
8.390,0.002
8.395,0.003
8.400,0.004
8.405,0.004
8.410,0.005
8.415,0.006
8.420,0.005
8.425,0.004
8.430,0.004
8.435,0.002
8.440,-0.001
8.445,0.000
8.450,0.002
8.455,0.005
8.460,0.005
8.465,0.004
8.470,0.004
8.475,0.004
8.480,0.003
8.485,0.003
8.490,0.003
8.495,0.004
8.500,0.004
8.505,0.006
8.510,0.008
8.515,0.013
8.520,0.016
8.525,0.017
8.530,0.019
8.535,0.025
8.540,0.032
8.545,0.032
8.550,0.028
8.555,0.032
8.560,0.043
8.565,0.049
8.570,0.043
8.575,0.036
8.580,0.038
8.585,0.040
8.590,0.036
8.595,0.028
8.600,0.017
8.605,0.002
8.610,-0.014
8.615,-0.023
8.620,-0.025
8.625,-0.028
8.630,-0.032
8.635,-0.035
8.640,-0.033
8.645,-0.031
8.650,-0.032
8.655,-0.031
8.660,-0.030
8.665,-0.027
8.670,-0.025
8.675,-0.027
8.680,-0.004
8.685,0.073
8.690,0.198
8.695,0.315
8.700,0.359
8.705,0.284
8.710,0.117
8.715,-0.056
8.720,-0.155
8.725,-0.152
8.730,-0.103
8.735,-0.062
8.740,-0.048
8.745,-0.053
8.750,-0.055
8.755,-0.055
8.760,-0.052
8.765,-0.051
8.770,-0.052
8.775,-0.050
8.780,-0.048
8.785,-0.048
8.790,-0.045
8.795,-0.042
8.800,-0.038
8.805,-0.036
8.810,-0.034
8.815,-0.030
8.820,-0.027
8.825,-0.025
8.830,-0.023
8.835,-0.019
8.840,-0.015
8.845,-0.014
8.850,-0.013
8.855,-0.011
8.860,-0.010
8.865,-0.007
8.870,-0.005
8.875,-0.004
8.880,-0.001
8.885,0.000
8.890,-0.002
8.895,-0.004
8.900,-0.004
8.905,-0.002
8.910,-0.002
8.915,-0.006
8.920,-0.010
8.925,-0.013
8.930,-0.017
8.935,-0.022
8.940,-0.025
8.945,-0.028
8.950,-0.029
8.955,-0.030
8.960,-0.030
8.965,-0.028
8.970,-0.024
8.975,-0.021
8.980,-0.017
8.985,-0.012
8.990,-0.009
8.995,-0.005
9.000,-0.002
9.005,-0.001
9.010,0.001
9.015,0.002
9.020,0.003
9.025,0.005
9.030,0.004
9.035,0.004
9.040,0.005
9.045,0.004
9.050,0.004
9.055,0.005
9.060,0.007
9.065,0.008
9.070,0.009
9.075,0.010
9.080,0.011
9.085,0.012
9.090,0.011
9.095,0.011
9.100,0.012
9.105,0.013
9.110,0.012
9.115,0.011
9.120,0.012
9.125,0.012
9.130,0.011
9.135,0.011
9.140,0.011
9.145,0.011
9.150,0.011
9.155,0.011
9.160,0.012
9.165,0.012
9.170,0.011
9.175,0.009
9.180,0.009
9.185,0.011
9.190,0.010
9.195,0.009
9.200,0.008
9.205,0.007
9.210,0.006
9.215,0.005
9.220,0.006
9.225,0.005
9.230,0.003
9.235,0.002
9.240,0.003
9.245,0.003
9.250,0.003
9.255,0.003
9.260,0.002
9.265,0.002
9.270,0.003
9.275,0.004
9.280,0.003
9.285,0.003
9.290,0.004
9.295,0.005
9.300,0.004
9.305,0.004
9.310,0.004
9.315,0.002
9.320,0.002
9.325,0.002
9.330,0.003
9.335,0.004
9.340,0.003
9.345,0.002
9.350,0.003
9.355,0.003
9.360,0.003
9.365,0.003
9.370,0.003
9.375,0.006
9.380,0.011
9.385,0.014
9.390,0.017
9.395,0.019
9.400,0.025
9.405,0.030
9.410,0.029
9.415,0.025
9.420,0.027
9.425,0.037
9.430,0.048
9.435,0.047
9.440,0.037
9.445,0.036
9.450,0.040
9.455,0.038
9.460,0.028
9.465,0.018
9.470,0.008
9.475,-0.006
9.480,-0.020
9.485,-0.028
9.490,-0.031
9.495,-0.034
9.500,-0.038
9.505,-0.038
9.510,-0.036
9.515,-0.035
9.520,-0.034
9.525,-0.032
9.530,-0.032
9.535,-0.034
9.540,-0.034
9.545,-0.010
9.550,0.067
9.555,0.196
9.560,0.326
9.565,0.396
9.570,0.349
9.575,0.194
9.580,0.006
9.585,-0.121
9.590,-0.136
9.595,-0.089
9.600,-0.053
9.605,-0.054
9.610,-0.068
9.615,-0.074
9.620,-0.075
9.625,-0.075
9.630,-0.075
9.635,-0.074
9.640,-0.072
9.645,-0.070
9.650,-0.067
9.655,-0.064
9.660,-0.061
9.665,-0.058
9.670,-0.056
9.675,-0.054
9.680,-0.051
9.685,-0.046
9.690,-0.042
9.695,-0.039
9.700,-0.034
9.705,-0.031
9.710,-0.028
9.715,-0.025
9.720,-0.022
9.725,-0.018
9.730,-0.016
9.735,-0.014
9.740,-0.013
9.745,-0.012
9.750,-0.010
9.755,-0.010
9.760,-0.009
9.765,-0.009
9.770,-0.010
9.775,-0.011
9.780,-0.013
9.785,-0.017
9.790,-0.022
9.795,-0.025
9.800,-0.028
9.805,-0.031
9.810,-0.033
9.815,-0.036
9.820,-0.036
9.825,-0.035
9.830,-0.034
9.835,-0.030
9.840,-0.025
9.845,-0.020
9.850,-0.014
9.855,-0.010
9.860,-0.007
9.865,-0.005
9.870,-0.001
9.875,0.003
9.880,0.006
9.885,0.006
9.890,0.006
9.895,0.008
9.900,0.008
9.905,0.008
9.910,0.008
9.915,0.008
9.920,0.009
9.925,0.009
9.930,0.010
9.935,0.013
9.940,0.012
9.945,0.012
9.950,0.013
9.955,0.014
9.960,0.015
9.965,0.014
9.970,0.015
9.975,0.015
9.980,0.014
9.985,0.015
9.990,0.015
9.995,0.015
10.000,0.015
10.005,0.015
10.010,0.014
10.015,0.013
10.020,0.013
10.025,0.012
10.030,0.012
10.035,0.013
10.040,0.011
10.045,0.011
10.050,0.011
10.055,0.010
10.060,0.010
10.065,0.008
10.070,0.006
10.075,0.007
10.080,0.008
10.085,0.007
10.090,0.007
10.095,0.006
10.100,0.006
10.105,0.004
10.110,0.002
10.115,0.001
10.120,0.001
10.125,0.002
10.130,0.003
10.135,0.003
10.140,0.003
10.145,0.003
10.150,0.004
10.155,0.004
10.160,0.004
10.165,0.004
10.170,0.003
10.175,0.003
10.180,0.003
10.185,0.004
10.190,0.003
10.195,0.002
10.200,0.003
10.205,0.004
10.210,0.002
10.215,0.001
10.220,0.002
10.225,0.003
10.230,0.002
10.235,0.001
10.240,0.002
10.245,0.004
10.250,0.005
10.255,0.003
10.260,0.002
10.265,0.003
10.270,0.008
10.275,0.014
10.280,0.017
10.285,0.018
10.290,0.021
10.295,0.029
10.300,0.033
10.305,0.030
10.310,0.027
10.315,0.035
10.320,0.046
10.325,0.051
10.330,0.043
10.335,0.036
10.340,0.041
10.345,0.045
10.350,0.038
10.355,0.027
10.360,0.014
10.365,-0.001
10.370,-0.015
10.375,-0.023
10.380,-0.030
10.385,-0.037
10.390,-0.042
10.395,-0.040
10.400,-0.036
10.405,-0.036
10.410,-0.037
10.415,-0.036
10.420,-0.034
10.425,-0.034
10.430,-0.036
10.435,-0.031
10.440,0.012
10.445,0.117
10.450,0.261
10.455,0.379
10.460,0.409
10.465,0.310
10.470,0.123
10.475,-0.055
10.480,-0.142
10.485,-0.122
10.490,-0.076
10.495,-0.060
10.500,-0.064
10.505,-0.076
10.510,-0.081
10.515,-0.079
10.520,-0.076
10.525,-0.076
10.530,-0.076
10.535,-0.075
10.540,-0.075
10.545,-0.072
10.550,-0.067
10.555,-0.066
10.560,-0.061
10.565,-0.057
10.570,-0.055
10.575,-0.051
10.580,-0.047
10.585,-0.042
10.590,-0.036
10.595,-0.034
10.600,-0.034
10.605,-0.031
10.610,-0.026
10.615,-0.025
10.620,-0.023
10.625,-0.017
10.630,-0.015
10.635,-0.017
10.640,-0.015
10.645,-0.010
10.650,-0.007
10.655,-0.005
10.660,-0.006
10.665,-0.009
10.670,-0.012
10.675,-0.016
10.680,-0.020
10.685,-0.024
10.690,-0.028
10.695,-0.031
10.700,-0.034
10.705,-0.038
10.710,-0.038
10.715,-0.037
10.720,-0.037
10.725,-0.036
10.730,-0.034
10.735,-0.026
10.740,-0.020
10.745,-0.017
10.750,-0.011
10.755,-0.005
10.760,-0.004
10.765,-0.001
10.770,0.002
10.775,0.003
10.780,0.005
10.785,0.006
10.790,0.006
10.795,0.007
10.800,0.007
10.805,0.008
10.810,0.009
10.815,0.007
10.820,0.005
10.825,0.006
10.830,0.008
10.835,0.010
10.840,0.013
10.845,0.014
10.850,0.015
10.855,0.015
10.860,0.014
10.865,0.011
10.870,0.010
10.875,0.010
10.880,0.014
10.885,0.016
10.890,0.014
10.895,0.015
10.900,0.016
10.905,0.017
10.910,0.015
10.915,0.013
10.920,0.014
10.925,0.015
10.930,0.013
10.935,0.012
10.940,0.011
10.945,0.010
10.950,0.010
10.955,0.011
10.960,0.010
10.965,0.007
10.970,0.007
10.975,0.008
10.980,0.008
10.985,0.008
10.990,0.005
10.995,0.003
11.000,0.003
11.005,0.005
11.010,0.007
11.015,0.006
11.020,0.004
11.025,0.004
11.030,0.005
11.035,0.004
11.040,0.004
11.045,0.005
11.050,0.007
11.055,0.004
11.060,0.001
11.065,0.005
11.070,0.007
11.075,0.007
11.080,0.007
11.085,0.004
11.090,0.006
11.095,0.005
11.100,0.003
11.105,0.004
11.110,0.005
11.115,0.006
11.120,0.007
11.125,0.006
11.130,0.006
11.135,0.004
11.140,0.001
11.145,0.006
11.150,0.011
11.155,0.014
11.160,0.016
11.165,0.017
11.170,0.025
11.175,0.033
11.180,0.033
11.185,0.030
11.190,0.030
11.195,0.035
11.200,0.044
11.205,0.047
11.210,0.038
11.215,0.036
11.220,0.043
11.225,0.041
11.230,0.033
11.235,0.023
11.240,0.010
11.245,-0.004
11.250,-0.017
11.255,-0.023
11.260,-0.027
11.265,-0.032
11.270,-0.034
11.275,-0.032
11.280,-0.029
11.285,-0.028
11.290,-0.029
11.295,-0.029
11.300,-0.024
11.305,-0.021
11.310,-0.024
11.315,-0.010
11.320,0.055
11.325,0.170
11.330,0.290
11.335,0.350
11.340,0.300
11.345,0.151
11.350,-0.027
11.355,-0.147
11.360,-0.159
11.365,-0.113
11.370,-0.065
11.375,-0.043
11.380,-0.046
11.385,-0.053
11.390,-0.058
11.395,-0.055
11.400,-0.051
11.405,-0.053
11.410,-0.053
11.415,-0.048
11.420,-0.043
11.425,-0.040
11.430,-0.038
11.435,-0.036
11.440,-0.036
11.445,-0.033
11.450,-0.030
11.455,-0.027
11.460,-0.025
11.465,-0.023
11.470,-0.018
11.475,-0.016
11.480,-0.014
11.485,-0.013
11.490,-0.012
11.495,-0.010
11.500,-0.006
11.505,-0.003
11.510,-0.004
11.515,-0.004
11.520,-0.003
11.525,-0.002
11.530,-0.003
11.535,-0.004
11.540,-0.004
11.545,-0.005
11.550,-0.007
11.555,-0.010
11.560,-0.012
11.565,-0.015
11.570,-0.020
11.575,-0.024
11.580,-0.026
11.585,-0.028
11.590,-0.030
11.595,-0.031
11.600,-0.031
11.605,-0.029
11.610,-0.026
11.615,-0.022
11.620,-0.019
11.625,-0.016
11.630,-0.013
11.635,-0.008
11.640,-0.004
11.645,-0.003
11.650,-0.001
11.655,0.001
11.660,0.001
11.665,0.001
11.670,0.000
11.675,-0.002
11.680,0.000
11.685,0.000
11.690,0.000
11.695,0.003
11.700,0.004
11.705,0.008
11.710,0.010
11.715,0.008
11.720,0.007
11.725,0.007
11.730,0.008
11.735,0.010
11.740,0.012
11.745,0.012
11.750,0.012
11.755,0.011
11.760,0.010
11.765,0.010
11.770,0.010
11.775,0.009
11.780,0.008
11.785,0.009
11.790,0.013
11.795,0.013
11.800,0.012
11.805,0.010
11.810,0.009
11.815,0.010
11.820,0.011
11.825,0.011
11.830,0.010
11.835,0.009
11.840,0.008
11.845,0.007
11.850,0.005
11.855,0.005
11.860,0.007
11.865,0.009
11.870,0.007
11.875,0.004
11.880,0.003
11.885,0.004
11.890,0.004
11.895,0.002
11.900,0.002
11.905,0.004
11.910,0.005
11.915,0.006
11.920,0.004
11.925,0.004
11.930,0.004
11.935,0.003
11.940,0.003
11.945,0.004
11.950,0.003
11.955,0.003
11.960,0.003
11.965,0.005
11.970,0.006
11.975,0.004
11.980,0.004
11.985,0.006
11.990,0.005
11.995,0.004
12.000,0.005
12.005,0.009
12.010,0.014
12.015,0.017
12.020,0.018
12.025,0.022
12.030,0.028
12.035,0.031
12.040,0.029
12.045,0.030
12.050,0.037
12.055,0.045
12.060,0.044
12.065,0.037
12.070,0.036
12.075,0.041
12.080,0.038
12.085,0.029
12.090,0.019
12.095,0.008
12.100,-0.006
12.105,-0.018
12.110,-0.024
12.115,-0.027
12.120,-0.030
12.125,-0.033
12.130,-0.033
12.135,-0.031
12.140,-0.030
12.145,-0.029
12.150,-0.028
12.155,-0.027
12.160,-0.029
12.165,-0.028
12.170,-0.002
12.175,0.076
12.180,0.199
12.185,0.312
12.190,0.359
12.195,0.299
12.200,0.144
12.205,-0.030
12.210,-0.139
12.215,-0.143
12.220,-0.095
12.225,-0.055
12.230,-0.049
12.235,-0.060
12.240,-0.065
12.245,-0.065
12.250,-0.062
12.255,-0.060
12.260,-0.061
12.265,-0.060
12.270,-0.056
12.275,-0.052
12.280,-0.051
12.285,-0.050
12.290,-0.047
12.295,-0.044
12.300,-0.041
12.305,-0.039
12.310,-0.037
12.315,-0.034
12.320,-0.031
12.325,-0.028
12.330,-0.024
12.335,-0.022
12.340,-0.020
12.345,-0.019
12.350,-0.016
12.355,-0.013
12.360,-0.011
12.365,-0.009
12.370,-0.007
12.375,-0.005
12.380,-0.004
12.385,-0.005
12.390,-0.007
12.395,-0.008
12.400,-0.008
12.405,-0.009
12.410,-0.013
12.415,-0.017
12.420,-0.021
12.425,-0.026
12.430,-0.030
12.435,-0.033
12.440,-0.034
12.445,-0.035
12.450,-0.036
12.455,-0.036
12.460,-0.033
12.465,-0.029
12.470,-0.024
12.475,-0.020
12.480,-0.015
12.485,-0.011
12.490,-0.008
12.495,-0.006
12.500,-0.005
12.505,-0.004
12.510,-0.002
12.515,-0.001
12.520,-0.001
12.525,0.001
12.530,0.002
12.535,0.003
12.540,0.003
12.545,0.002
12.550,0.003
12.555,0.004
12.560,0.004
12.565,0.005
12.570,0.007
12.575,0.007
12.580,0.006
12.585,0.007
12.590,0.008
12.595,0.009
12.600,0.010
12.605,0.009
12.610,0.009
12.615,0.011
12.620,0.010
12.625,0.010
12.630,0.011
12.635,0.012
12.640,0.013
12.645,0.013
12.650,0.013
12.655,0.012
12.660,0.010
12.665,0.008
12.670,0.007
12.675,0.009
12.680,0.009
12.685,0.009
12.690,0.008
12.695,0.006
12.700,0.005
12.705,0.004
12.710,0.004
12.715,0.004
12.720,0.004
12.725,0.004
12.730,0.003
12.735,0.003
12.740,0.003
12.745,0.001
12.750,0.000
12.755,0.001
12.760,0.003
12.765,0.003
12.770,0.003
12.775,0.003
12.780,0.003
12.785,0.004
12.790,0.003
12.795,0.002
12.800,0.001
12.805,0.002
12.810,0.004
12.815,0.004
12.820,0.004
12.825,0.004
12.830,0.003
12.835,0.003
12.840,0.002
12.845,0.002
12.850,0.003
12.855,0.003
12.860,0.004
12.865,0.005
12.870,0.005
12.875,0.006
12.880,0.011
12.885,0.017
12.890,0.022
12.895,0.025
12.900,0.029
12.905,0.034
12.910,0.032
12.915,0.029
12.920,0.032
12.925,0.043
12.930,0.051
12.935,0.045
12.940,0.035
12.945,0.037
12.950,0.042
12.955,0.039
12.960,0.029
12.965,0.019
12.970,0.007
12.975,-0.007
12.980,-0.019
12.985,-0.027
12.990,-0.031
12.995,-0.034
13.000,-0.036
13.005,-0.034
13.010,-0.033
13.015,-0.033
13.020,-0.031
13.025,-0.029
13.030,-0.030
13.035,-0.033
13.040,-0.028
13.045,0.015
13.050,0.119
13.055,0.259
13.060,0.370
13.065,0.396
13.070,0.299
13.075,0.116
13.080,-0.060
13.085,-0.146
13.090,-0.124
13.095,-0.072
13.100,-0.050
13.105,-0.056
13.110,-0.068
13.115,-0.072
13.120,-0.073
13.125,-0.074
13.130,-0.075
13.135,-0.074
13.140,-0.071
13.145,-0.068
13.150,-0.064
13.155,-0.062
13.160,-0.060
13.165,-0.057
13.170,-0.055
13.175,-0.052
13.180,-0.047
13.185,-0.043
13.190,-0.041
13.195,-0.040
13.200,-0.035
13.205,-0.030
13.210,-0.027
13.215,-0.023
13.220,-0.020
13.225,-0.017
13.230,-0.013
13.235,-0.012
13.240,-0.011
13.245,-0.009
13.250,-0.009
13.255,-0.007
13.260,-0.007
13.265,-0.010
13.270,-0.011
13.275,-0.011
13.280,-0.011
13.285,-0.013
13.290,-0.019
13.295,-0.023
13.300,-0.026
13.305,-0.030
13.310,-0.032
13.315,-0.035
13.320,-0.037
13.325,-0.034
13.330,-0.031
13.335,-0.028
13.340,-0.026
13.345,-0.020
13.350,-0.012
13.355,-0.007
13.360,-0.005
13.365,-0.004
13.370,-0.002
13.375,0.000
13.380,0.001
13.385,0.005
13.390,0.008
13.395,0.008
13.400,0.009
13.405,0.010
13.410,0.009
13.415,0.008
13.420,0.007
13.425,0.006
13.430,0.008
13.435,0.009
13.440,0.010
13.445,0.011
13.450,0.014
13.455,0.015
13.460,0.015
13.465,0.014
13.470,0.014
13.475,0.015
13.480,0.015
13.485,0.014
13.490,0.016
13.495,0.016
13.500,0.013
13.505,0.013
13.510,0.014
13.515,0.017
13.520,0.017
13.525,0.015
13.530,0.014
13.535,0.014
13.540,0.013
13.545,0.012
13.550,0.012
13.555,0.010
13.560,0.009
13.565,0.008
13.570,0.007
13.575,0.007
13.580,0.008
13.585,0.007
13.590,0.007
13.595,0.004
13.600,0.002
13.605,0.004
13.610,0.005
13.615,0.004
13.620,0.004
13.625,0.006
13.630,0.007
13.635,0.006
13.640,0.003
13.645,0.001
13.650,0.002
13.655,0.003
13.660,0.006
13.665,0.007
13.670,0.005
13.675,0.002
13.680,0.003
13.685,0.003
13.690,0.001
13.695,0.001
13.700,0.004
13.705,0.006
13.710,0.005
13.715,0.002
13.720,0.004
13.725,0.006
13.730,0.006
13.735,0.006
13.740,0.010
13.745,0.017
13.750,0.022
13.755,0.022
13.760,0.024
13.765,0.030
13.770,0.031
13.775,0.029
13.780,0.029
13.785,0.039
13.790,0.051
13.795,0.047
13.800,0.034
13.805,0.033
13.810,0.040
13.815,0.040
13.820,0.030
13.825,0.020
13.830,0.007
13.835,-0.010
13.840,-0.023
13.845,-0.027
13.850,-0.030
13.855,-0.035
13.860,-0.039
13.865,-0.037
13.870,-0.035
13.875,-0.037
13.880,-0.038
13.885,-0.033
13.890,-0.025
13.895,-0.026
13.900,-0.026
13.905,0.001
13.910,0.085
13.915,0.218
13.920,0.336
13.925,0.378
13.930,0.300
13.935,0.127
13.940,-0.053
13.945,-0.157
13.950,-0.151
13.955,-0.100
13.960,-0.062
13.965,-0.055
13.970,-0.063
13.975,-0.066
13.980,-0.067
13.985,-0.063
13.990,-0.062
13.995,-0.062
14.000,-0.059
14.005,-0.055
14.010,-0.051
14.015,-0.049
14.020,-0.050
14.025,-0.049
14.030,-0.045
14.035,-0.041
14.040,-0.038
14.045,-0.037
14.050,-0.032
14.055,-0.028
14.060,-0.025
14.065,-0.021
14.070,-0.016
14.075,-0.015
14.080,-0.015
14.085,-0.013
14.090,-0.012
14.095,-0.008
14.100,-0.005
14.105,-0.004
14.110,-0.003
14.115,-0.007
14.120,-0.006
14.125,-0.004
14.130,-0.006
14.135,-0.007
14.140,-0.010
14.145,-0.014
14.150,-0.016
14.155,-0.020
14.160,-0.023
14.165,-0.027
14.170,-0.031
14.175,-0.032
14.180,-0.032
14.185,-0.032
14.190,-0.033
14.195,-0.032
14.200,-0.027
14.205,-0.022
14.210,-0.018
14.215,-0.015
14.220,-0.013
14.225,-0.009
14.230,-0.005
14.235,-0.004
14.240,-0.003
14.245,-0.001
14.250,0.001
14.255,0.000
14.260,-0.002
14.265,-0.002
14.270,-0.001
14.275,0.000
14.280,0.002
14.285,0.003
14.290,0.003
14.295,0.004
14.300,0.006
14.305,0.008
14.310,0.006
14.315,0.005
14.320,0.007
14.325,0.010
14.330,0.012
14.335,0.011
14.340,0.013
14.345,0.011
14.350,0.008
14.355,0.009
14.360,0.011
14.365,0.012
14.370,0.014
14.375,0.015
14.380,0.014
14.385,0.012
14.390,0.009
14.395,0.009
14.400,0.011
14.405,0.012
14.410,0.012
14.415,0.010
14.420,0.011
14.425,0.010
14.430,0.009
14.435,0.007
14.440,0.006
14.445,0.006
14.450,0.007
14.455,0.008
14.460,0.009
14.465,0.008
14.470,0.007
14.475,0.006
14.480,0.005
14.485,0.005
14.490,0.004
14.495,0.004
14.500,0.006
14.505,0.006
14.510,0.006
14.515,0.004
14.520,0.003
14.525,0.005
14.530,0.008
14.535,0.009
14.540,0.007
14.545,0.006
14.550,0.006
14.555,0.006
14.560,0.007
14.565,0.008
14.570,0.009
14.575,0.012
14.580,0.015
14.585,0.017
14.590,0.021
14.595,0.026
14.600,0.030
14.605,0.029
14.610,0.028
14.615,0.030
14.620,0.039
14.625,0.046
14.630,0.042
14.635,0.037
14.640,0.039
14.645,0.043
14.650,0.040
14.655,0.030
14.660,0.020
14.665,0.009
14.670,-0.004
14.675,-0.013
14.680,-0.019
14.685,-0.022
14.690,-0.025
14.695,-0.029
14.700,-0.028
14.705,-0.028
14.710,-0.029
14.715,-0.027
14.720,-0.025
14.725,-0.022
14.730,-0.024
14.735,-0.025
14.740,0.003
14.745,0.084
14.750,0.209
14.755,0.320
14.760,0.357
14.765,0.281
14.770,0.115
14.775,-0.056
14.780,-0.152
14.785,-0.145
14.790,-0.094
14.795,-0.056
14.800,-0.046
14.805,-0.052
14.810,-0.054
14.815,-0.055
14.820,-0.054
14.825,-0.055
14.830,-0.056
14.835,-0.054
14.840,-0.052
14.845,-0.050
14.850,-0.046
14.855,-0.043
14.860,-0.041
14.865,-0.040
14.870,-0.036
14.875,-0.034
14.880,-0.031
14.885,-0.028
14.890,-0.025
14.895,-0.021
14.900,-0.018
14.905,-0.015
14.910,-0.013
14.915,-0.012
14.920,-0.010
14.925,-0.008
14.930,-0.006
14.935,-0.003
14.940,-0.003
14.945,-0.004
14.950,-0.005
14.955,-0.003
14.960,-0.002
14.965,-0.004
14.970,-0.006
14.975,-0.007
14.980,-0.010
14.985,-0.014
14.990,-0.017
14.995,-0.019
15.000,-0.022
15.005,-0.027
15.010,-0.032
15.015,-0.034
15.020,-0.033
15.025,-0.032
15.030,-0.029
15.035,-0.026
15.040,-0.023
15.045,-0.019
15.050,-0.015
15.055,-0.011
15.060,-0.010
15.065,-0.009
15.070,-0.006
15.075,-0.003
15.080,-0.003
15.085,-0.004
15.090,-0.004
15.095,-0.002
15.100,-0.001
15.105,-0.002
15.110,-0.001
15.115,0.000
15.120,0.001
15.125,0.003
15.130,0.003
15.135,0.003
15.140,0.004
15.145,0.005
15.150,0.007
15.155,0.007
15.160,0.006
15.165,0.007
15.170,0.007
15.175,0.008
15.180,0.008
15.185,0.009
15.190,0.009
15.195,0.009
15.200,0.010
15.205,0.010
15.210,0.011
15.215,0.010
15.220,0.010
15.225,0.012
15.230,0.012
15.235,0.010
15.240,0.009
15.245,0.007
15.250,0.007
15.255,0.008
15.260,0.008
15.265,0.008
15.270,0.007
15.275,0.006
15.280,0.006
15.285,0.004
15.290,0.004
15.295,0.004
15.300,0.005
15.305,0.004
15.310,0.002
15.315,0.002
15.320,0.001
15.325,0.000
15.330,0.000
15.335,0.002
15.340,0.003
15.345,0.003
15.350,0.002
15.355,0.002
15.360,0.002
15.365,0.002
15.370,0.002
15.375,0.002
15.380,0.003
15.385,0.004
15.390,0.004
15.395,0.003
15.400,0.003
15.405,0.004
15.410,0.005
15.415,0.005
15.420,0.006
15.425,0.011
15.430,0.017
15.435,0.019
15.440,0.022
15.445,0.027
15.450,0.032
15.455,0.032
15.460,0.026
15.465,0.030
15.470,0.043
15.475,0.049
15.480,0.041
15.485,0.033
15.490,0.036
15.495,0.041
15.500,0.037
15.505,0.026
15.510,0.017
15.515,0.006
15.520,-0.010
15.525,-0.021
15.530,-0.029
15.535,-0.032
15.540,-0.036
15.545,-0.038
15.550,-0.035
15.555,-0.034
15.560,-0.033
15.565,-0.031
15.570,-0.030
15.575,-0.031
15.580,-0.035
15.585,-0.030
15.590,0.014
15.595,0.118
15.600,0.256
15.605,0.369
15.610,0.399
15.615,0.305
15.620,0.119
15.625,-0.062
15.630,-0.148
15.635,-0.123
15.640,-0.072
15.645,-0.052
15.650,-0.059
15.655,-0.071
15.660,-0.073
15.665,-0.074
15.670,-0.075
15.675,-0.075
15.680,-0.075
15.685,-0.073
15.690,-0.070
15.695,-0.067
15.700,-0.065
15.705,-0.062
15.710,-0.058
15.715,-0.055
15.720,-0.053
15.725,-0.049
15.730,-0.046
15.735,-0.043
15.740,-0.038
15.745,-0.035
15.750,-0.031
15.755,-0.027
15.760,-0.024
15.765,-0.022
15.770,-0.018
15.775,-0.015
15.780,-0.014
15.785,-0.013
15.790,-0.010
15.795,-0.007
15.800,-0.006
15.805,-0.007
15.810,-0.010
15.815,-0.010
15.820,-0.009
15.825,-0.012
15.830,-0.016
15.835,-0.020
15.840,-0.023
15.845,-0.025
15.850,-0.028
15.855,-0.031
15.860,-0.032
15.865,-0.033
15.870,-0.032
15.875,-0.030
15.880,-0.028
15.885,-0.023
15.890,-0.019
15.895,-0.014
15.900,-0.009
15.905,-0.007
15.910,-0.005
15.915,-0.002
15.920,0.001
15.925,0.003
15.930,0.005
15.935,0.005
15.940,0.006
15.945,0.005
15.950,0.005
15.955,0.007
15.960,0.009
15.965,0.009
15.970,0.009
15.975,0.009
15.980,0.010
15.985,0.012
15.990,0.011
15.995,0.012
16.000,0.014
16.005,0.015
16.010,0.016
16.015,0.015
16.020,0.015
16.025,0.015
16.030,0.015
16.035,0.016
16.040,0.017
16.045,0.014
16.050,0.014
16.055,0.014
16.060,0.014
16.065,0.016
16.070,0.016
16.075,0.016
16.080,0.016
16.085,0.013
16.090,0.012
16.095,0.013
16.100,0.015
16.105,0.014
16.110,0.011
16.115,0.008
16.120,0.007
16.125,0.007
16.130,0.007
16.135,0.007
16.140,0.008
16.145,0.007
16.150,0.005
16.155,0.004
16.160,0.004
16.165,0.005
16.170,0.007
16.175,0.008
16.180,0.004
16.185,0.001
16.190,0.001
16.195,0.002
16.200,0.005
16.205,0.007
16.210,0.007
16.215,0.005
16.220,0.004
16.225,0.003
16.230,0.004
16.235,0.006
16.240,0.004
16.245,0.001
16.250,0.002
16.255,0.004
16.260,0.006
16.265,0.006
16.270,0.005
16.275,0.005
16.280,0.003
16.285,0.002
16.290,0.004
16.295,0.007
16.300,0.013
16.305,0.019
16.310,0.022
16.315,0.024
16.320,0.026
16.325,0.028
16.330,0.029
16.335,0.027
16.340,0.029
16.345,0.043
16.350,0.052
16.355,0.046
16.360,0.036
16.365,0.035
16.370,0.038
16.375,0.033
16.380,0.022
16.385,0.013
16.390,0.002
16.395,-0.012
16.400,-0.023
16.405,-0.030
16.410,-0.034
16.415,-0.037
16.420,-0.038
16.425,-0.037
16.430,-0.036
16.435,-0.036
16.440,-0.033
16.445,-0.030
16.450,-0.029
16.455,-0.032
16.460,-0.029
16.465,0.015
16.470,0.120
16.475,0.259
16.480,0.367
16.485,0.387
16.490,0.282
16.495,0.097
16.500,-0.074
16.505,-0.157
16.510,-0.135
16.515,-0.085
16.520,-0.061
16.525,-0.060
16.530,-0.069
16.535,-0.074
16.540,-0.072
16.545,-0.070
16.550,-0.069
16.555,-0.066
16.560,-0.063
16.565,-0.062
16.570,-0.062
16.575,-0.060
16.580,-0.056
16.585,-0.051
16.590,-0.048
16.595,-0.044
16.600,-0.039
16.605,-0.037
16.610,-0.037
16.615,-0.035
16.620,-0.031
16.625,-0.028
16.630,-0.025
16.635,-0.022
16.640,-0.019
16.645,-0.015
16.650,-0.014
16.655,-0.013
16.660,-0.011
16.665,-0.008
16.670,-0.006
16.675,-0.007
16.680,-0.008
16.685,-0.006
16.690,-0.006
16.695,-0.009
16.700,-0.014
16.705,-0.018
16.710,-0.020
16.715,-0.020
16.720,-0.023
16.725,-0.027
16.730,-0.032
16.735,-0.035
16.740,-0.035
16.745,-0.034
16.750,-0.033
16.755,-0.030
16.760,-0.026
16.765,-0.022
16.770,-0.019
16.775,-0.014
16.780,-0.008
16.785,-0.003
16.790,-0.002
16.795,-0.003
16.800,-0.003
16.805,-0.002
16.810,0.002
16.815,0.004
16.820,0.004
16.825,0.003
16.830,0.002
16.835,0.003
16.840,0.005
16.845,0.007
16.850,0.007
16.855,0.008
16.860,0.008
16.865,0.010
16.870,0.012
16.875,0.010
16.880,0.011
16.885,0.011
16.890,0.010
16.895,0.010
16.900,0.012
16.905,0.014
16.910,0.016
16.915,0.018
16.920,0.016
16.925,0.015
16.930,0.014
16.935,0.014
16.940,0.015
16.945,0.014
16.950,0.013
16.955,0.014
16.960,0.014
16.965,0.013
16.970,0.013
16.975,0.014
16.980,0.012
16.985,0.009
16.990,0.008
16.995,0.007
17.000,0.009
17.005,0.010
17.010,0.008
17.015,0.007
17.020,0.008
17.025,0.007
17.030,0.006
17.035,0.006
17.040,0.006
17.045,0.006
17.050,0.006
17.055,0.006
17.060,0.007
17.065,0.006
17.070,0.004
17.075,0.004
17.080,0.003
17.085,0.003
17.090,0.005
17.095,0.005
17.100,0.004
17.105,0.004
17.110,0.004
17.115,0.006
17.120,0.006
17.125,0.003
17.130,0.004
17.135,0.007
17.140,0.008
17.145,0.007
17.150,0.006
17.155,0.009
17.160,0.015
17.165,0.017
17.170,0.016
17.175,0.018
17.180,0.025
17.185,0.030
17.190,0.029
17.195,0.025
17.200,0.031
17.205,0.043
17.210,0.047
17.215,0.041
17.220,0.037
17.225,0.038
17.230,0.039
17.235,0.035
17.240,0.028
17.245,0.017
17.250,0.003
17.255,-0.011
17.260,-0.018
17.265,-0.021
17.270,-0.025
17.275,-0.029
17.280,-0.030
17.285,-0.028
17.290,-0.028
17.295,-0.031
17.300,-0.031
17.305,-0.027
17.310,-0.023
17.315,-0.026
17.320,-0.022
17.325,0.023
17.330,0.124
17.335,0.254
17.340,0.350
17.345,0.357
17.350,0.248
17.355,0.068
17.360,-0.090
17.365,-0.159
17.370,-0.134
17.375,-0.085
17.380,-0.057
17.385,-0.052
17.390,-0.057
17.395,-0.061
17.400,-0.063
17.405,-0.061
17.410,-0.061
17.415,-0.060
17.420,-0.058
17.425,-0.055
17.430,-0.052
17.435,-0.051
17.440,-0.048
17.445,-0.044
17.450,-0.041
17.455,-0.040
17.460,-0.037
17.465,-0.032
17.470,-0.028
17.475,-0.025
17.480,-0.023
17.485,-0.021
17.490,-0.018
17.495,-0.015
17.500,-0.011
17.505,-0.008
17.510,-0.007
17.515,-0.006
17.520,-0.005
17.525,-0.005
17.530,-0.003
17.535,-0.001
17.540,-0.002
17.545,-0.004
17.550,-0.006
17.555,-0.008
17.560,-0.010
17.565,-0.014
17.570,-0.018
17.575,-0.020
17.580,-0.023
17.585,-0.026
17.590,-0.030
17.595,-0.033
17.600,-0.034
17.605,-0.033
17.610,-0.031
17.615,-0.029
17.620,-0.026
17.625,-0.021
17.630,-0.017
17.635,-0.014
17.640,-0.012
17.645,-0.010
17.650,-0.008
17.655,-0.005
17.660,-0.004
17.665,-0.003
17.670,-0.002
17.675,-0.002
17.680,-0.003
17.685,-0.001
17.690,-0.001
17.695,0.001
17.700,0.002
17.705,0.003
17.710,0.004
17.715,0.005
17.720,0.006
17.725,0.008
17.730,0.009
17.735,0.009
17.740,0.008
17.745,0.009
17.750,0.010
17.755,0.010
17.760,0.009
17.765,0.008
17.770,0.009
17.775,0.010
17.780,0.010
17.785,0.011
17.790,0.010
17.795,0.009
17.800,0.010
17.805,0.011
17.810,0.012
17.815,0.011
17.820,0.010
17.825,0.009
17.830,0.009
17.835,0.009
17.840,0.008
17.845,0.008
17.850,0.007
17.855,0.006
17.860,0.006
17.865,0.006
17.870,0.005
17.875,0.005
17.880,0.005
17.885,0.004
17.890,0.004
17.895,0.004
17.900,0.003
17.905,0.002
17.910,0.002
17.915,0.003
17.920,0.004
17.925,0.004
17.930,0.002
17.935,0.001
17.940,0.001
17.945,0.003
17.950,0.004
17.955,0.005
17.960,0.004
17.965,0.003
17.970,0.003
17.975,0.003
17.980,0.004
17.985,0.004
17.990,0.003
17.995,0.003
18.000,0.005
18.005,0.004
18.010,0.001
18.015,0.001
18.020,0.002
18.025,0.002
18.030,0.003
18.035,0.004
18.040,0.008
18.045,0.014
18.050,0.018
18.055,0.020
18.060,0.023
18.065,0.027
18.070,0.030
18.075,0.029
18.080,0.029
18.085,0.034
18.090,0.045
18.095,0.048
18.100,0.041
18.105,0.035
18.110,0.038
18.115,0.039
18.120,0.034
18.125,0.024
18.130,0.015
18.135,0.003
18.140,-0.013
18.145,-0.023
18.150,-0.028
18.155,-0.032
18.160,-0.036
18.165,-0.038
18.170,-0.034
18.175,-0.032
18.180,-0.033
18.185,-0.031
18.190,-0.029
18.195,-0.032
18.200,-0.036
18.205,-0.024
18.210,0.034
18.215,0.151
18.220,0.291
18.225,0.390
18.230,0.392
18.235,0.270
18.240,0.077
18.245,-0.086
18.250,-0.147
18.255,-0.113
18.260,-0.065
18.265,-0.054
18.270,-0.067
18.275,-0.076
18.280,-0.077
18.285,-0.076
18.290,-0.075
18.295,-0.077
18.300,-0.075
18.305,-0.074
18.310,-0.072
18.315,-0.066
18.320,-0.061
18.325,-0.059
18.330,-0.059
18.335,-0.058
18.340,-0.053
18.345,-0.048
18.350,-0.046
18.355,-0.044
18.360,-0.039
18.365,-0.033
18.370,-0.029
18.375,-0.027
18.380,-0.025
18.385,-0.022
18.390,-0.018
18.395,-0.015
18.400,-0.013
18.405,-0.011
18.410,-0.010
18.415,-0.009
18.420,-0.006
18.425,-0.006
18.430,-0.007
18.435,-0.009
18.440,-0.010
18.445,-0.013
18.450,-0.018
18.455,-0.020
18.460,-0.022
18.465,-0.024
18.470,-0.025
18.475,-0.028
18.480,-0.032
18.485,-0.034
18.490,-0.032
18.495,-0.029
18.500,-0.026
18.505,-0.025
18.510,-0.021
18.515,-0.015
18.520,-0.009
18.525,-0.006
18.530,-0.003
18.535,-0.002
18.540,-0.002
18.545,0.000
18.550,0.003
18.555,0.004
18.560,0.005
18.565,0.005
18.570,0.006
18.575,0.008
18.580,0.008
18.585,0.007
18.590,0.006
18.595,0.009
18.600,0.010
18.605,0.011
18.610,0.011
18.615,0.012
18.620,0.014
18.625,0.015
18.630,0.014
18.635,0.015
18.640,0.015
18.645,0.015
18.650,0.016
18.655,0.016
18.660,0.015
18.665,0.015
18.670,0.016
18.675,0.017
18.680,0.017
18.685,0.014
18.690,0.012
18.695,0.012
18.700,0.014
18.705,0.016
18.710,0.014
18.715,0.010
18.720,0.010
18.725,0.011
18.730,0.011
18.735,0.010
18.740,0.008
18.745,0.006
18.750,0.006
18.755,0.005
18.760,0.006
18.765,0.008
18.770,0.008
18.775,0.006
18.780,0.005
18.785,0.005
18.790,0.005
18.795,0.006
18.800,0.006
18.805,0.003
18.810,0.000
18.815,0.001
18.820,0.003
18.825,0.002
18.830,0.004
18.835,0.003
18.840,0.002
18.845,0.005
18.850,0.007
18.855,0.008
18.860,0.008
18.865,0.005
18.870,0.003
18.875,0.001
18.880,-0.001
18.885,0.003
18.890,0.006
18.895,0.006
18.900,0.006
18.905,0.009
18.910,0.008
18.915,0.007
18.920,0.011
18.925,0.016
18.930,0.019
18.935,0.023
18.940,0.028
18.945,0.031
18.950,0.028
18.955,0.025
18.960,0.034
18.965,0.047
18.970,0.046
18.975,0.038
18.980,0.033
18.985,0.037
18.990,0.042
18.995,0.035
19.000,0.023
19.005,0.013
19.010,0.000
19.015,-0.015
19.020,-0.025
19.025,-0.029
19.030,-0.030
19.035,-0.034
19.040,-0.037
19.045,-0.033
19.050,-0.031
19.055,-0.033
19.060,-0.034
19.065,-0.030
19.070,-0.028
19.075,-0.030
19.080,-0.023
19.085,0.024
19.090,0.131
19.095,0.267
19.100,0.364
19.105,0.364
19.110,0.246
19.115,0.060
19.120,-0.098
19.125,-0.164
19.130,-0.137
19.135,-0.083
19.140,-0.056
19.145,-0.056
19.150,-0.062
19.155,-0.064
19.160,-0.064
19.165,-0.063
19.170,-0.062
19.175,-0.061
19.180,-0.058
19.185,-0.056
19.190,-0.054
19.195,-0.053
19.200,-0.052
19.205,-0.050
19.210,-0.046
19.215,-0.042
19.220,-0.038
19.225,-0.034
19.230,-0.030
19.235,-0.027
19.240,-0.024
19.245,-0.021
19.250,-0.021
19.255,-0.021
19.260,-0.017
19.265,-0.012
19.270,-0.008
19.275,-0.008
19.280,-0.007
19.285,-0.003
19.290,-0.003
19.295,-0.004
19.300,-0.004
19.305,-0.004
19.310,-0.004
19.315,-0.006
19.320,-0.011
19.325,-0.015
19.330,-0.020
19.335,-0.023
19.340,-0.024
19.345,-0.025
19.350,-0.028
19.355,-0.031
19.360,-0.033
19.365,-0.033
19.370,-0.030
19.375,-0.027
19.380,-0.023
19.385,-0.021
19.390,-0.019
19.395,-0.014
19.400,-0.010
19.405,-0.008
19.410,-0.007
19.415,-0.006
19.420,-0.003
19.425,-0.001
19.430,0.000
19.435,-0.001
19.440,0.000
19.445,0.001
19.450,0.002
19.455,0.002
19.460,0.002
19.465,0.002
19.470,0.003
19.475,0.003
19.480,0.004
19.485,0.006
19.490,0.008
19.495,0.009
19.500,0.011
19.505,0.012
19.510,0.012
19.515,0.012
19.520,0.011
19.525,0.011
19.530,0.011
19.535,0.013
19.540,0.014
19.545,0.014
19.550,0.013
19.555,0.012
19.560,0.013
19.565,0.013
19.570,0.012
19.575,0.012
19.580,0.013
19.585,0.014
19.590,0.012
19.595,0.010
19.600,0.010
19.605,0.008
19.610,0.007
19.615,0.007
19.620,0.007
19.625,0.006
19.630,0.005
19.635,0.006
19.640,0.006
19.645,0.005
19.650,0.005
19.655,0.006
19.660,0.007
19.665,0.006
19.670,0.005
19.675,0.006
19.680,0.007
19.685,0.006
19.690,0.006
19.695,0.006
19.700,0.005
19.705,0.005
19.710,0.005
19.715,0.003
19.720,0.003
19.725,0.005
19.730,0.004
19.735,0.005
19.740,0.005
19.745,0.004
19.750,0.004
19.755,0.006
19.760,0.008
19.765,0.008
19.770,0.008
19.775,0.011
19.780,0.016
19.785,0.020
19.790,0.022
19.795,0.027
19.800,0.033
19.805,0.032
19.810,0.028
19.815,0.030
19.820,0.040
19.825,0.047
19.830,0.040
19.835,0.033
19.840,0.036
19.845,0.041
19.850,0.037
19.855,0.027
19.860,0.018
19.865,0.006
19.870,-0.010
19.875,-0.021
19.880,-0.026
19.885,-0.029
19.890,-0.032
19.895,-0.034
19.900,-0.033
19.905,-0.034
19.910,-0.034
19.915,-0.032
19.920,-0.029
19.925,-0.028
19.930,-0.031
19.935,-0.028
19.940,0.008
19.945,0.101
19.950,0.233
19.955,0.348
19.960,0.384
19.965,0.300
19.970,0.127
19.975,-0.052
19.980,-0.151
19.985,-0.140
19.990,-0.088
19.995,-0.057
20.000,-0.055
20.005,-0.065
20.010,-0.067
20.015,-0.068
20.020,-0.067
20.025,-0.067
20.030,-0.066
20.035,-0.064
20.040,-0.062
20.045,-0.060
20.050,-0.058
20.055,-0.055
20.060,-0.051
20.065,-0.048
20.070,-0.045
20.075,-0.042
20.080,-0.039
20.085,-0.035
20.090,-0.032
20.095,-0.029
20.100,-0.026
20.105,-0.021
20.110,-0.018
20.115,-0.016
20.120,-0.014
20.125,-0.013
20.130,-0.011
20.135,-0.008
20.140,-0.007
20.145,-0.005
20.150,-0.005
20.155,-0.005
20.160,-0.005
20.165,-0.006
20.170,-0.007
20.175,-0.010
20.180,-0.013
20.185,-0.016
20.190,-0.019
20.195,-0.022
20.200,-0.026
20.205,-0.029
20.210,-0.031
20.215,-0.032
20.220,-0.032
20.225,-0.031
20.230,-0.030
20.235,-0.028
20.240,-0.024
20.245,-0.019
20.250,-0.014
20.255,-0.011
20.260,-0.009
20.265,-0.006
20.270,-0.003
20.275,-0.002
20.280,-0.001
20.285,0.002
20.290,0.002
20.295,0.002
20.300,0.002
20.305,0.002
20.310,0.003
20.315,0.004
20.320,0.005
20.325,0.006
20.330,0.006
20.335,0.007
20.340,0.009
20.345,0.009
20.350,0.008
20.355,0.009
20.360,0.011
20.365,0.012
20.370,0.012
20.375,0.011
20.380,0.012
20.385,0.014
20.390,0.015
20.395,0.015
20.400,0.015
20.405,0.015
20.410,0.014
20.415,0.014
20.420,0.014
20.425,0.014
20.430,0.013
20.435,0.011
20.440,0.010
20.445,0.011
20.450,0.012
20.455,0.011
20.460,0.010
20.465,0.008
20.470,0.007
20.475,0.007
20.480,0.007
20.485,0.006
20.490,0.005
20.495,0.005
20.500,0.005
20.505,0.005
20.510,0.005
20.515,0.003
20.520,0.004
20.525,0.004
20.530,0.003
20.535,0.003
20.540,0.003
20.545,0.005
20.550,0.007
20.555,0.006
20.560,0.004
20.565,0.003
20.570,0.004
20.575,0.003
20.580,0.003
20.585,0.004
20.590,0.003
20.595,0.003
20.600,0.003
20.605,0.002
20.610,0.003
20.615,0.003
20.620,0.003
20.625,0.003
20.630,0.004
20.635,0.004
20.640,0.003
20.645,0.004
20.650,0.005
20.655,0.008
20.660,0.012
20.665,0.017
20.670,0.020
20.675,0.023
20.680,0.028
20.685,0.031
20.690,0.030
20.695,0.027
20.700,0.030
20.705,0.041
20.710,0.048
20.715,0.042
20.720,0.035
20.725,0.038
20.730,0.040
20.735,0.035
20.740,0.024
20.745,0.014
20.750,0.001
20.755,-0.014
20.760,-0.023
20.765,-0.028
20.770,-0.033
20.775,-0.038
20.780,-0.040
20.785,-0.036
20.790,-0.035
20.795,-0.037
20.800,-0.035
20.805,-0.031
20.810,-0.031
20.815,-0.036
20.820,-0.030
20.825,0.017
20.830,0.126
20.835,0.269
20.840,0.383
20.845,0.407
20.850,0.306
20.855,0.119
20.860,-0.061
20.865,-0.146
20.870,-0.124
20.875,-0.075
20.880,-0.055
20.885,-0.064
20.890,-0.077
20.895,-0.079
20.900,-0.080
20.905,-0.080
20.910,-0.079
20.915,-0.078
20.920,-0.076
20.925,-0.075
20.930,-0.072
20.935,-0.070
20.940,-0.067
20.945,-0.063
20.950,-0.058
20.955,-0.054
20.960,-0.051
20.965,-0.048
20.970,-0.043
20.975,-0.037
20.980,-0.033
20.985,-0.032
20.990,-0.029
20.995,-0.026
21.000,-0.024
21.005,-0.020
21.010,-0.018
21.015,-0.014
21.020,-0.011
21.025,-0.010
21.030,-0.008
21.035,-0.007
21.040,-0.008
21.045,-0.009
21.050,-0.009
21.055,-0.011
21.060,-0.012
21.065,-0.012
21.070,-0.017
21.075,-0.023
21.080,-0.027
21.085,-0.028
21.090,-0.029
21.095,-0.033
21.100,-0.035
21.105,-0.033
21.110,-0.029
21.115,-0.027
21.120,-0.023
21.125,-0.019
21.130,-0.017
21.135,-0.013
21.140,-0.009
21.145,-0.005
21.150,-0.002
21.155,0.002
21.160,0.004
21.165,0.003
21.170,0.001
21.175,0.003
21.180,0.006
21.185,0.009
21.190,0.010
21.195,0.009
21.200,0.010
21.205,0.010
21.210,0.009
21.215,0.009
21.220,0.010
21.225,0.010
21.230,0.012
21.235,0.014
21.240,0.014
21.245,0.014
21.250,0.014
21.255,0.017
21.260,0.020
21.265,0.017
21.270,0.015
21.275,0.016
21.280,0.015
21.285,0.014
21.290,0.014
21.295,0.015
21.300,0.015
21.305,0.015
21.310,0.017
21.315,0.016
21.320,0.015
21.325,0.013
21.330,0.011
21.335,0.013
21.340,0.012
21.345,0.012
21.350,0.012
21.355,0.011
21.360,0.009
21.365,0.007
21.370,0.005
21.375,0.006
21.380,0.006
21.385,0.005
21.390,0.005
21.395,0.006
21.400,0.005
21.405,0.003
21.410,0.004
21.415,0.004
21.420,0.003
21.425,0.002
21.430,0.005
21.435,0.007
21.440,0.008
21.445,0.006
21.450,0.004
21.455,0.004
21.460,0.002
21.465,0.001
21.470,0.003
21.475,0.004
21.480,0.003
21.485,0.003
21.490,0.002
21.495,0.002
21.500,0.004
21.505,0.003
21.510,0.003
21.515,0.004
21.520,0.004
21.525,0.002
21.530,0.001
21.535,0.004
21.540,0.008
21.545,0.013
21.550,0.018
21.555,0.019
21.560,0.024
21.565,0.031
21.570,0.032
21.575,0.029
21.580,0.025
21.585,0.030
21.590,0.043
21.595,0.048
21.600,0.040
21.605,0.035
21.610,0.037
21.615,0.039
21.620,0.034
21.625,0.024
21.630,0.013
21.635,-0.001
21.640,-0.017
21.645,-0.026
21.650,-0.031
21.655,-0.034
21.660,-0.035
21.665,-0.035
21.670,-0.032
21.675,-0.033
21.680,-0.035
21.685,-0.032
21.690,-0.029
21.695,-0.028
21.700,-0.031
21.705,-0.024
21.710,0.026
21.715,0.138
21.720,0.278
21.725,0.373
21.730,0.365
21.735,0.239
21.740,0.049
21.745,-0.107
21.750,-0.166
21.755,-0.136
21.760,-0.085
21.765,-0.059
21.770,-0.056
21.775,-0.060
21.780,-0.063
21.785,-0.067
21.790,-0.064
21.795,-0.062
21.800,-0.062
21.805,-0.060
21.810,-0.058
21.815,-0.056
21.820,-0.053
21.825,-0.049
21.830,-0.047
21.835,-0.044
21.840,-0.037
21.845,-0.034
21.850,-0.031
21.855,-0.026
21.860,-0.026
21.865,-0.024
21.870,-0.023
21.875,-0.022
21.880,-0.018
21.885,-0.014
21.890,-0.011
21.895,-0.009
21.900,-0.006
21.905,-0.006
21.910,-0.005
21.915,-0.003
21.920,-0.004
21.925,-0.005
21.930,-0.006
21.935,-0.007
21.940,-0.008
21.945,-0.009
21.950,-0.013
21.955,-0.015
21.960,-0.018
21.965,-0.021
21.970,-0.024
21.975,-0.029
21.980,-0.034
21.985,-0.036
21.990,-0.036
21.995,-0.034
22.000,-0.029
22.005,-0.025
22.010,-0.023
22.015,-0.019
22.020,-0.015
22.025,-0.012
22.030,-0.008
22.035,-0.005
22.040,-0.003
22.045,-0.001
22.050,0.001
22.055,0.000
22.060,-0.001
22.065,-0.001
22.070,0.000
22.075,0.002
22.080,0.002
22.085,0.004
22.090,0.003
22.095,0.002
22.100,0.002
22.105,0.004
22.110,0.006
22.115,0.007
22.120,0.008
22.125,0.010
22.130,0.011
22.135,0.011
22.140,0.012
22.145,0.012
22.150,0.012
22.155,0.012
22.160,0.011
22.165,0.011
22.170,0.012
22.175,0.012
22.180,0.012
22.185,0.013
22.190,0.013
22.195,0.012
22.200,0.011
22.205,0.012
22.210,0.012
22.215,0.011
22.220,0.010
22.225,0.009
22.230,0.010
22.235,0.011
22.240,0.010
22.245,0.008
22.250,0.007
22.255,0.006
22.260,0.006
22.265,0.006
22.270,0.006
22.275,0.006
22.280,0.007
22.285,0.007
22.290,0.006
22.295,0.005
22.300,0.005
22.305,0.005
22.310,0.004
22.315,0.005
22.320,0.007
22.325,0.008
22.330,0.006
22.335,0.004
22.340,0.004
22.345,0.005
22.350,0.006
22.355,0.007
22.360,0.007
22.365,0.006
22.370,0.006
22.375,0.008
22.380,0.008
22.385,0.007
22.390,0.005
22.395,0.004
22.400,0.006
22.405,0.008
22.410,0.011
22.415,0.015
22.420,0.017
22.425,0.021
22.430,0.028
22.435,0.032
22.440,0.032
22.445,0.028
22.450,0.030
22.455,0.040
22.460,0.047
22.465,0.045
22.470,0.036
22.475,0.036
22.480,0.041
22.485,0.038
22.490,0.029
22.495,0.018
22.500,0.007
22.505,-0.005
22.510,-0.015
22.515,-0.021
22.520,-0.026
22.525,-0.030
22.530,-0.032
22.535,-0.030
22.540,-0.029
22.545,-0.031
22.550,-0.032
22.555,-0.029
22.560,-0.025
22.565,-0.026
22.570,-0.025
22.575,0.005
22.580,0.091
22.585,0.221
22.590,0.338
22.595,0.380
22.600,0.308
22.605,0.142
22.610,-0.040
22.615,-0.149
22.620,-0.148
22.625,-0.098
22.630,-0.061
22.635,-0.055
22.640,-0.063
22.645,-0.065
22.650,-0.066
22.655,-0.065
22.660,-0.064
22.665,-0.064
22.670,-0.061
22.675,-0.060
22.680,-0.058
22.685,-0.055
22.690,-0.052
22.695,-0.049
22.700,-0.047
22.705,-0.044
22.710,-0.040
22.715,-0.038
22.720,-0.035
22.725,-0.032
22.730,-0.028
22.735,-0.023
22.740,-0.020
22.745,-0.017
22.750,-0.017
22.755,-0.016
22.760,-0.012
22.765,-0.009
22.770,-0.007
22.775,-0.006
22.780,-0.006
22.785,-0.005
22.790,-0.004
22.795,-0.002
22.800,-0.003
22.805,-0.005
22.810,-0.008
22.815,-0.012
22.820,-0.016
22.825,-0.020
22.830,-0.023
22.835,-0.025
22.840,-0.029
22.845,-0.032
22.850,-0.033
22.855,-0.034
22.860,-0.033
22.865,-0.032
22.870,-0.030
22.875,-0.026
22.880,-0.021
22.885,-0.016
22.890,-0.012
22.895,-0.010
22.900,-0.008
22.905,-0.006
22.910,-0.006
22.915,-0.006
22.920,-0.002
22.925,0.000
22.930,0.001
22.935,0.001
22.940,0.001
22.945,0.002
22.950,0.003
22.955,0.004
22.960,0.003
22.965,0.003
22.970,0.004
22.975,0.006
22.980,0.007
22.985,0.007
22.990,0.009
22.995,0.011
23.000,0.010
23.005,0.009
23.010,0.010
23.015,0.012
23.020,0.013
23.025,0.012
23.030,0.012
23.035,0.013
23.040,0.013
23.045,0.014
23.050,0.012
23.055,0.011
23.060,0.011
23.065,0.011
23.070,0.011
23.075,0.011
23.080,0.011
23.085,0.010
23.090,0.009
23.095,0.009
23.100,0.007
23.105,0.007
23.110,0.007
23.115,0.007
23.120,0.007
23.125,0.006
23.130,0.005
23.135,0.006
23.140,0.007
23.145,0.005
23.150,0.005
23.155,0.005
23.160,0.006
23.165,0.006
23.170,0.005
23.175,0.004
23.180,0.003
23.185,0.003
23.190,0.002
23.195,0.003
23.200,0.003
23.205,0.003
23.210,0.004
23.215,0.004
23.220,0.003
23.225,0.003
23.230,0.004
23.235,0.006
23.240,0.005
23.245,0.004
23.250,0.004
23.255,0.004
23.260,0.004
23.265,0.005
23.270,0.005
23.275,0.006
23.280,0.006
23.285,0.006
23.290,0.005
23.295,0.005
23.300,0.011
23.305,0.016
23.310,0.019
23.315,0.021
23.320,0.026
23.325,0.031
23.330,0.031
23.335,0.027
23.340,0.030
23.345,0.041
23.350,0.048
23.355,0.044
23.360,0.037
23.365,0.037
23.370,0.042
23.375,0.039
23.380,0.029
23.385,0.020
23.390,0.009
23.395,-0.007
23.400,-0.018
23.405,-0.026
23.410,-0.031
23.415,-0.036
23.420,-0.039
23.425,-0.036
23.430,-0.035
23.435,-0.035
23.440,-0.032
23.445,-0.030
23.450,-0.031
23.455,-0.035
23.460,-0.035
23.465,0.000
23.470,0.093
23.475,0.232
23.480,0.361
23.485,0.417
23.490,0.351
23.495,0.178
23.500,-0.016
23.505,-0.134
23.510,-0.135
23.515,-0.087
23.520,-0.058
23.525,-0.062
23.530,-0.076
23.535,-0.079
23.540,-0.079
23.545,-0.078
23.550,-0.078
23.555,-0.078
23.560,-0.076
23.565,-0.074
23.570,-0.073
23.575,-0.069
23.580,-0.065
23.585,-0.062
23.590,-0.060
23.595,-0.056
23.600,-0.052
23.605,-0.049
23.610,-0.046
23.615,-0.042
23.620,-0.038
23.625,-0.034
23.630,-0.032
23.635,-0.028
23.640,-0.024
23.645,-0.021
23.650,-0.018
23.655,-0.016
23.660,-0.014
23.665,-0.010
23.670,-0.009
23.675,-0.010
23.680,-0.009
23.685,-0.010
23.690,-0.010
23.695,-0.012
23.700,-0.014
23.705,-0.016
23.710,-0.019
23.715,-0.023
23.720,-0.026
23.725,-0.029
23.730,-0.031
23.735,-0.034
23.740,-0.035
23.745,-0.035
23.750,-0.034
23.755,-0.031
23.760,-0.028
23.765,-0.024
23.770,-0.019
23.775,-0.013
23.780,-0.007
23.785,-0.005
23.790,-0.002
23.795,0.002
23.800,0.004
23.805,0.004
23.810,0.005
23.815,0.007
23.820,0.009
23.825,0.009
23.830,0.008
23.835,0.007
23.840,0.008
23.845,0.007
23.850,0.008
23.855,0.009
23.860,0.010
23.865,0.013
23.870,0.016
23.875,0.014
23.880,0.013
23.885,0.014
23.890,0.015
23.895,0.017
23.900,0.017
23.905,0.015
23.910,0.015
23.915,0.016
23.920,0.016
23.925,0.017
23.930,0.016
23.935,0.017
23.940,0.018
23.945,0.016
23.950,0.016
23.955,0.016
23.960,0.015
23.965,0.013
23.970,0.012
23.975,0.012
23.980,0.012
23.985,0.010
23.990,0.010
23.995,0.009
24.000,0.008
24.005,0.007
24.010,0.007
24.015,0.007
24.020,0.006
24.025,0.005
24.030,0.007
24.035,0.008
24.040,0.005
24.045,0.002
24.050,0.004
24.055,0.005
24.060,0.006
24.065,0.004
24.070,0.002
24.075,0.003
24.080,0.005
24.085,0.004
24.090,0.003
24.095,0.002
24.100,0.000
24.105,0.000
24.110,0.003
24.115,0.003
24.120,0.004
24.125,0.006
24.130,0.004
24.135,0.004
24.140,0.002
24.145,0.000
24.150,0.001
24.155,0.005
24.160,0.005
24.165,0.001
24.170,0.000
24.175,0.001
24.180,0.002
24.185,0.002
24.190,0.003
24.195,0.011
24.200,0.018
24.205,0.019
24.210,0.020
24.215,0.024
24.220,0.031
24.225,0.033
24.230,0.027
24.235,0.025
24.240,0.031
24.245,0.041
24.250,0.045
24.255,0.038
24.260,0.033
24.265,0.038
24.270,0.039
24.275,0.028
24.280,0.020
24.285,0.012
24.290,0.000
24.295,-0.014
24.300,-0.025
24.305,-0.029
24.310,-0.033
24.315,-0.041
24.320,-0.042
24.325,-0.037
24.330,-0.037
24.335,-0.036
24.340,-0.035
24.345,-0.032
24.350,-0.029
24.355,-0.033
24.360,-0.023
24.365,0.036
24.370,0.153
24.375,0.293
24.380,0.389
24.385,0.379
24.390,0.246
24.395,0.050
24.400,-0.110
24.405,-0.165
24.410,-0.130
24.415,-0.081
24.420,-0.060
24.425,-0.061
24.430,-0.068
24.435,-0.072
24.440,-0.069
24.445,-0.066
24.450,-0.067
24.455,-0.068
24.460,-0.068
24.465,-0.065
24.470,-0.060
24.475,-0.058
24.480,-0.057
24.485,-0.054
24.490,-0.049
24.495,-0.043
24.500,-0.039
24.505,-0.038
24.510,-0.035
24.515,-0.032
24.520,-0.029
24.525,-0.026
24.530,-0.022
24.535,-0.018
24.540,-0.016
24.545,-0.016
24.550,-0.016
24.555,-0.014
24.560,-0.011
24.565,-0.006
24.570,-0.004
24.575,-0.005
24.580,-0.006
24.585,-0.006
24.590,-0.006
24.595,-0.006
24.600,-0.009
24.605,-0.015
24.610,-0.022
24.615,-0.024
24.620,-0.027
24.625,-0.030
24.630,-0.033
24.635,-0.037
24.640,-0.035
24.645,-0.033
24.650,-0.033
24.655,-0.030
24.660,-0.027
24.665,-0.023
24.670,-0.017
24.675,-0.012
24.680,-0.010
24.685,-0.010
24.690,-0.007
24.695,-0.003
24.700,-0.001
24.705,-0.001
24.710,-0.002
24.715,0.001
24.720,0.004
24.725,0.004
24.730,0.005
24.735,0.006
24.740,0.007
24.745,0.006
24.750,0.005
24.755,0.007
24.760,0.008
24.765,0.009
24.770,0.011
24.775,0.011
24.780,0.010
24.785,0.010
24.790,0.012
24.795,0.013
24.800,0.013
24.805,0.012
24.810,0.013
24.815,0.015
24.820,0.015
24.825,0.015
24.830,0.015
24.835,0.016
24.840,0.014
24.845,0.012
24.850,0.011
24.855,0.011
24.860,0.013
24.865,0.012
24.870,0.012
24.875,0.012
24.880,0.010
24.885,0.009
24.890,0.008
24.895,0.008
24.900,0.010
24.905,0.010
24.910,0.009
24.915,0.009
24.920,0.009
24.925,0.007
24.930,0.007
24.935,0.007
24.940,0.006
24.945,0.004
24.950,0.004
24.955,0.005
24.960,0.006
24.965,0.005
24.970,0.005
24.975,0.006
24.980,0.007
24.985,0.007
24.990,0.005
24.995,0.004
25.000,0.004
25.005,0.004
25.010,0.005
25.015,0.007
25.020,0.008
25.025,0.006
25.030,0.004
25.035,0.004
25.040,0.005
25.045,0.007
25.050,0.006
25.055,0.007
25.060,0.011
25.065,0.016
25.070,0.022
25.075,0.022
25.080,0.025
25.085,0.031
25.090,0.031
25.095,0.027
25.100,0.028
25.105,0.038
25.110,0.048
25.115,0.046
25.120,0.038
25.125,0.036
25.130,0.040
25.135,0.037
25.140,0.028
25.145,0.018
25.150,0.008
25.155,-0.006
25.160,-0.017
25.165,-0.024
25.170,-0.031
25.175,-0.036
25.180,-0.036
25.185,-0.033
25.190,-0.031
25.195,-0.032
25.200,-0.033
25.205,-0.029
25.210,-0.026
25.215,-0.028
25.220,-0.029
25.225,-0.006
25.230,0.072
25.235,0.202
25.240,0.327
25.245,0.384
25.250,0.327
25.255,0.170
25.260,-0.015
25.265,-0.139
25.270,-0.155
25.275,-0.108
25.280,-0.065
25.285,-0.055
25.290,-0.062
25.295,-0.065
25.300,-0.066
25.305,-0.064
25.310,-0.064
25.315,-0.066
25.320,-0.065
25.325,-0.061
25.330,-0.058
25.335,-0.054
25.340,-0.053
25.345,-0.052
25.350,-0.048
25.355,-0.045
25.360,-0.040
25.365,-0.035
25.370,-0.031
25.375,-0.028
25.380,-0.026
25.385,-0.024
25.390,-0.022
25.395,-0.020
25.400,-0.017
25.405,-0.015
25.410,-0.013
25.415,-0.009
25.420,-0.007
25.425,-0.004
25.430,-0.005
25.435,-0.005
25.440,-0.003
25.445,-0.003
25.450,-0.004
25.455,-0.007
25.460,-0.010
25.465,-0.011
25.470,-0.013
25.475,-0.016
25.480,-0.020
25.485,-0.025
25.490,-0.029
25.495,-0.031
25.500,-0.033
25.505,-0.034
25.510,-0.034
25.515,-0.031
25.520,-0.027
25.525,-0.024
25.530,-0.022
25.535,-0.018
25.540,-0.014
25.545,-0.011
25.550,-0.009
25.555,-0.007
25.560,-0.004
25.565,-0.003
25.570,-0.001
25.575,-0.002
25.580,-0.002
25.585,-0.001
25.590,0.000
25.595,0.001
25.600,0.002
25.605,0.002
25.610,0.001
25.615,0.002
25.620,0.004
25.625,0.004
25.630,0.006
25.635,0.008
25.640,0.009
25.645,0.010
25.650,0.009
25.655,0.010
25.660,0.011
25.665,0.012
25.670,0.013
25.675,0.014
25.680,0.014
25.685,0.013
25.690,0.012
25.695,0.012
25.700,0.012
25.705,0.012
25.710,0.012
25.715,0.011
25.720,0.012
25.725,0.012
25.730,0.011
25.735,0.010
25.740,0.010
25.745,0.010
25.750,0.010
25.755,0.009
25.760,0.007
25.765,0.007
25.770,0.007
25.775,0.007
25.780,0.006
25.785,0.005
25.790,0.005
25.795,0.005
25.800,0.004
25.805,0.003
25.810,0.002
25.815,0.003
25.820,0.003
25.825,0.003
25.830,0.003
25.835,0.003
25.840,0.001
25.845,0.001
25.850,0.002
25.855,0.003
25.860,0.004
25.865,0.005
25.870,0.004
25.875,0.004
25.880,0.004
25.885,0.004
25.890,0.005
25.895,0.004
25.900,0.004
25.905,0.004
25.910,0.005
25.915,0.005
25.920,0.005
25.925,0.003
25.930,0.003
25.935,0.006
25.940,0.010
25.945,0.014
25.950,0.019
25.955,0.022
25.960,0.026
25.965,0.031
25.970,0.032
25.975,0.030
25.980,0.028
25.985,0.034
25.990,0.047
25.995,0.052
26.000,0.042
26.005,0.036
26.010,0.040
26.015,0.043
26.020,0.037
26.025,0.026
26.030,0.016
26.035,0.003
26.040,-0.012
26.045,-0.022
26.050,-0.028
26.055,-0.032
26.060,-0.036
26.065,-0.037
26.070,-0.034
26.075,-0.034
26.080,-0.035
26.085,-0.033
26.090,-0.030
26.095,-0.030
26.100,-0.034
26.105,-0.026
26.110,0.025
26.115,0.139
26.120,0.285
26.125,0.396
26.130,0.414
26.135,0.306
26.140,0.113
26.145,-0.065
26.150,-0.146
26.155,-0.122
26.160,-0.075
26.165,-0.058
26.170,-0.066
26.175,-0.077
26.180,-0.080
26.185,-0.079
26.190,-0.078
26.195,-0.078
26.200,-0.077
26.205,-0.077
26.210,-0.075
26.215,-0.071
26.220,-0.067
26.225,-0.064
26.230,-0.060
26.235,-0.057
26.240,-0.055
26.245,-0.053
26.250,-0.048
26.255,-0.044
26.260,-0.039
26.265,-0.035
26.270,-0.031
26.275,-0.028
26.280,-0.026
26.285,-0.023
26.290,-0.020
26.295,-0.017
26.300,-0.017
26.305,-0.015
26.310,-0.012
26.315,-0.010
26.320,-0.007
26.325,-0.006
26.330,-0.009
26.335,-0.008
26.340,-0.009
26.345,-0.013
26.350,-0.016
26.355,-0.020
26.360,-0.023
26.365,-0.026
26.370,-0.030
26.375,-0.032
26.380,-0.033
26.385,-0.034
26.390,-0.036
26.395,-0.033
26.400,-0.029
26.405,-0.027
26.410,-0.021
26.415,-0.017
26.420,-0.012
26.425,-0.008
26.430,-0.006
26.435,-0.003
26.440,0.000
26.445,0.002
26.450,0.005
26.455,0.007
26.460,0.007
26.465,0.005
26.470,0.005
26.475,0.006
26.480,0.007
26.485,0.009
26.490,0.010
26.495,0.010
26.500,0.012
26.505,0.014
26.510,0.015
26.515,0.014
26.520,0.015
26.525,0.014
26.530,0.013
26.535,0.011
26.540,0.012
26.545,0.015
26.550,0.017
26.555,0.017
26.560,0.017
26.565,0.017
26.570,0.017
26.575,0.016
26.580,0.017
26.585,0.018
26.590,0.017
26.595,0.016
26.600,0.013
26.605,0.012
26.610,0.014
26.615,0.013
26.620,0.013
26.625,0.011
26.630,0.008
26.635,0.007
26.640,0.009
26.645,0.012
26.650,0.012
26.655,0.011
26.660,0.008
26.665,0.004
26.670,0.003
26.675,0.002
26.680,0.002
26.685,0.004
26.690,0.004
26.695,0.005
26.700,0.008
26.705,0.006
26.710,0.004
26.715,0.004
26.720,0.004
26.725,0.005
26.730,0.003
26.735,0.002
26.740,0.004
26.745,0.004
26.750,0.006
26.755,0.006
26.760,0.003
26.765,0.002
26.770,0.003
26.775,0.005
26.780,0.006
26.785,0.005
26.790,0.004
26.795,0.005
26.800,0.006
26.805,0.003
26.810,0.003
26.815,0.002
26.820,-0.001
26.825,0.000
26.830,0.007
26.835,0.013
26.840,0.020
26.845,0.022
26.850,0.022
26.855,0.028
26.860,0.033
26.865,0.031
26.870,0.027
26.875,0.032
26.880,0.045
26.885,0.053
26.890,0.046
26.895,0.036
26.900,0.036
26.905,0.041
26.910,0.038
26.915,0.025
26.920,0.016
26.925,0.004
26.930,-0.014
26.935,-0.025
26.940,-0.031
26.945,-0.034
26.950,-0.035
26.955,-0.037
26.960,-0.037
26.965,-0.036
26.970,-0.036
26.975,-0.037
26.980,-0.035
26.985,-0.031
26.990,-0.033
26.995,-0.033
27.000,0.000
27.005,0.091
27.010,0.230
27.015,0.355
27.020,0.399
27.025,0.319
27.030,0.142
27.035,-0.044
27.040,-0.154
27.045,-0.152
27.050,-0.105
27.055,-0.070
27.060,-0.062
27.065,-0.069
27.070,-0.071
27.075,-0.071
27.080,-0.069
27.085,-0.066
27.090,-0.067
27.095,-0.066
27.100,-0.064
27.105,-0.062
27.110,-0.060
27.115,-0.058
27.120,-0.054
27.125,-0.050
27.130,-0.046
27.135,-0.042
27.140,-0.039
27.145,-0.036
27.150,-0.034
27.155,-0.030
27.160,-0.026
27.165,-0.025
27.170,-0.022
27.175,-0.018
27.180,-0.015
27.185,-0.012
27.190,-0.013
27.195,-0.014
27.200,-0.012
27.205,-0.010
27.210,-0.006
27.215,-0.005
27.220,-0.004
27.225,-0.005
27.230,-0.008
27.235,-0.009
27.240,-0.011
27.245,-0.014
27.250,-0.019
27.255,-0.026
27.260,-0.029
27.265,-0.030
27.270,-0.035
27.275,-0.038
27.280,-0.038
27.285,-0.037
27.290,-0.033
27.295,-0.029
27.300,-0.025
27.305,-0.018
27.310,-0.014
27.315,-0.012
27.320,-0.008
27.325,-0.007
27.330,-0.006
27.335,-0.004
27.340,-0.002
27.345,0.000
27.350,-0.001
27.355,0.000
27.360,0.003
27.365,0.004
27.370,0.003
27.375,0.004
27.380,0.004
27.385,0.005
27.390,0.005
27.395,0.006
27.400,0.009
27.405,0.012
27.410,0.012
27.415,0.011
27.420,0.011
27.425,0.010
27.430,0.011
27.435,0.013
27.440,0.012
27.445,0.011
27.450,0.013
27.455,0.015
27.460,0.015
27.465,0.015
27.470,0.014
27.475,0.014
27.480,0.013
27.485,0.011
27.490,0.012
27.495,0.011
27.500,0.012
27.505,0.013
27.510,0.011
27.515,0.012
27.520,0.011
27.525,0.008
27.530,0.008
27.535,0.008
27.540,0.006
27.545,0.008
27.550,0.008
27.555,0.008
27.560,0.008
27.565,0.007
27.570,0.006
27.575,0.006
27.580,0.007
27.585,0.006
27.590,0.005
27.595,0.005
27.600,0.004
27.605,0.004
27.610,0.003
27.615,0.002
27.620,0.003
27.625,0.004
27.630,0.005
27.635,0.006
27.640,0.006
27.645,0.005
27.650,0.005
27.655,0.005
27.660,0.005
27.665,0.006
27.670,0.005
27.675,0.004
27.680,0.005
27.685,0.005
27.690,0.004
27.695,0.005
27.700,0.006
27.705,0.012
27.710,0.019
27.715,0.022
27.720,0.026
27.725,0.031
27.730,0.032
27.735,0.030
27.740,0.030
27.745,0.039
27.750,0.052
27.755,0.053
27.760,0.043
27.765,0.034
27.770,0.035
27.775,0.039
27.780,0.035
27.785,0.025
27.790,0.014
27.795,-0.001
27.800,-0.016
27.805,-0.024
27.810,-0.031
27.815,-0.032
27.820,-0.030
27.825,-0.030
27.830,-0.031
27.835,-0.033
27.840,-0.033
27.845,-0.032
27.850,-0.031
27.855,-0.030
27.860,-0.031
27.865,-0.027
27.870,0.006
27.875,0.093
27.880,0.224
27.885,0.338
27.890,0.375
27.895,0.296
27.900,0.126
27.905,-0.050
27.910,-0.151
27.915,-0.147
27.920,-0.097
27.925,-0.062
27.930,-0.056
27.935,-0.061
27.940,-0.063
27.945,-0.065
27.950,-0.065
27.955,-0.065
27.960,-0.063
27.965,-0.060
27.970,-0.057
27.975,-0.053
27.980,-0.050
27.985,-0.049
27.990,-0.048
27.995,-0.044
28.000,-0.038
28.005,-0.034
28.010,-0.032
28.015,-0.029
28.020,-0.027
28.025,-0.024
28.030,-0.020
28.035,-0.019
28.040,-0.017
28.045,-0.014
28.050,-0.013
28.055,-0.012
28.060,-0.008
28.065,-0.004
28.070,-0.002
28.075,-0.002
28.080,-0.002
28.085,-0.002
28.090,-0.001
28.095,-0.005
28.100,-0.008
28.105,-0.007
28.110,-0.010
28.115,-0.012
28.120,-0.014
28.125,-0.019
28.130,-0.023
28.135,-0.026
28.140,-0.029
28.145,-0.031
28.150,-0.031
28.155,-0.032
28.160,-0.032
28.165,-0.029
28.170,-0.024
28.175,-0.020
28.180,-0.016
28.185,-0.012
28.190,-0.007
28.195,-0.006
28.200,-0.006
28.205,-0.005
28.210,-0.003
28.215,-0.001
28.220,-0.001
28.225,-0.001
28.230,-0.001
28.235,-0.002
28.240,-0.001
28.245,0.001
28.250,0.001
28.255,0.002
28.260,0.006
28.265,0.010
28.270,0.010
28.275,0.009
28.280,0.007
28.285,0.006
28.290,0.007
28.295,0.007
28.300,0.009
28.305,0.013
28.310,0.013
28.315,0.011
28.320,0.012
28.325,0.011
28.330,0.011
28.335,0.011
28.340,0.013
28.345,0.014
28.350,0.014
28.355,0.011
28.360,0.011
28.365,0.013
28.370,0.012
28.375,0.015
28.380,0.014
28.385,0.008
28.390,0.006
28.395,0.007
28.400,0.008
28.405,0.008
28.410,0.004
28.415,0.003
28.420,0.003
28.425,0.004
28.430,0.007
28.435,0.008
28.440,0.006
28.445,0.005
28.450,0.005
28.455,0.004
28.460,0.002
28.465,-0.001
28.470,0.001
28.475,0.005
28.480,0.005
28.485,0.004
28.490,0.003
28.495,0.004
28.500,0.006
28.505,0.006
28.510,0.005
28.515,0.006
28.520,0.006
28.525,0.004
28.530,0.001
28.535,0.001
28.540,0.004
28.545,0.006
28.550,0.008
28.555,0.007
28.560,0.002
28.565,0.000
28.570,0.002
28.575,0.005
28.580,0.007
28.585,0.011
28.590,0.017
28.595,0.023
28.600,0.028
28.605,0.032
28.610,0.036
28.615,0.043
28.620,0.051
28.625,0.053
28.630,0.050
28.635,0.046
28.640,0.038
28.645,0.031
28.650,0.030
28.655,0.032
28.660,0.031
28.665,0.020
28.670,0.006
28.675,-0.003
28.680,-0.020
28.685,-0.037
28.690,-0.040
28.695,-0.038
28.700,-0.035
28.705,-0.035
28.710,-0.036
28.715,-0.029
28.720,-0.028
28.725,-0.033
28.730,-0.031
28.735,-0.030
28.740,-0.033
28.745,-0.025
28.750,0.026
28.755,0.134
28.760,0.269
28.765,0.364
28.770,0.362
28.775,0.245
28.780,0.061
28.785,-0.095
28.790,-0.157
28.795,-0.128
28.800,-0.078
28.805,-0.058
28.810,-0.062
28.815,-0.068
28.820,-0.072
28.825,-0.071
28.830,-0.066
28.835,-0.066
28.840,-0.064
28.845,-0.060
28.850,-0.057
28.855,-0.055
28.860,-0.055
28.865,-0.055
28.870,-0.051
28.875,-0.046
28.880,-0.041
28.885,-0.036
28.890,-0.034
28.895,-0.034
28.900,-0.032
28.905,-0.027
28.910,-0.021
28.915,-0.019
28.920,-0.019
28.925,-0.018
28.930,-0.014
28.935,-0.011
28.940,-0.010
28.945,-0.006
28.950,-0.004
28.955,-0.001
28.960,0.001
28.965,-0.002
28.970,-0.005
28.975,-0.005
28.980,-0.005
28.985,-0.006
28.990,-0.011
28.995,-0.017
29.000,-0.019
29.005,-0.020
29.010,-0.023
29.015,-0.027
29.020,-0.027
29.025,-0.025
29.030,-0.029
29.035,-0.029
29.040,-0.026
29.045,-0.025
29.050,-0.022
29.055,-0.017
29.060,-0.012
29.065,-0.007
29.070,-0.007
29.075,-0.009
29.080,-0.007
29.085,-0.005
29.090,-0.005
29.095,-0.004
29.100,-0.001
29.105,0.002
29.110,0.005
29.115,0.005
29.120,0.005
29.125,0.000
29.130,-0.001
29.135,0.005
29.140,0.008
29.145,0.005
29.150,0.003
29.155,0.004
29.160,0.006
29.165,0.008
29.170,0.007
29.175,0.007
29.180,0.010
29.185,0.011
29.190,0.011
29.195,0.013
29.200,0.013
29.205,0.012
29.210,0.013
29.215,0.013
29.220,0.010
29.225,0.007
29.230,0.009
29.235,0.010
29.240,0.011
29.245,0.012
29.250,0.012
29.255,0.012
29.260,0.010
29.265,0.009
29.270,0.007
29.275,0.006
29.280,0.008
29.285,0.009
29.290,0.004
29.295,0.001
29.300,0.003
29.305,0.008
29.310,0.007
29.315,0.002
29.320,0.003
29.325,0.007
29.330,0.006
29.335,0.003
29.340,0.001
29.345,0.003
29.350,0.006
29.355,0.005
29.360,0.006
29.365,0.005
29.370,0.003
29.375,0.002
29.380,0.001
29.385,0.003
29.390,0.005
29.395,0.005
29.400,0.007
29.405,0.009
29.410,0.005
29.415,0.000
29.420,0.002
29.425,0.006
29.430,0.012
29.435,0.017
29.440,0.025
29.445,0.030
29.450,0.029
29.455,0.032
29.460,0.041
29.465,0.052
29.470,0.053
29.475,0.049
29.480,0.042
29.485,0.031
29.490,0.028
29.495,0.029
29.500,0.027
29.505,0.017
29.510,0.007
29.515,0.003
29.520,-0.010
29.525,-0.030
29.530,-0.038
29.535,-0.034
29.540,-0.026
29.545,-0.028
29.550,-0.034
29.555,-0.030
29.560,-0.024
29.565,-0.028
29.570,-0.031
29.575,-0.028
29.580,-0.027
29.585,-0.020
29.590,0.014
29.595,0.089
29.600,0.201
29.605,0.298
29.610,0.322
29.615,0.240
29.620,0.079
29.625,-0.081
29.630,-0.159
29.635,-0.139
29.640,-0.090
29.645,-0.057
29.650,-0.046
29.655,-0.050
29.660,-0.051
29.665,-0.055
29.670,-0.055
29.675,-0.049
29.680,-0.045
29.685,-0.040
29.690,-0.038
29.695,-0.040
29.700,-0.041
29.705,-0.037
29.710,-0.035
29.715,-0.035
29.720,-0.032
29.725,-0.027
29.730,-0.023
29.735,-0.021
29.740,-0.020
29.745,-0.020
29.750,-0.019
29.755,-0.016
29.760,-0.011
29.765,-0.005
29.770,-0.003
29.775,-0.004
29.780,-0.005
29.785,-0.002
29.790,0.002
29.795,0.004
29.800,0.001
29.805,0.003
29.810,0.008
29.815,0.008
29.820,0.003
29.825,-0.002
29.830,-0.003
29.835,0.001
29.840,0.001
29.845,-0.008
29.850,-0.016
29.855,-0.019
29.860,-0.018
29.865,-0.014
29.870,-0.016
29.875,-0.023
29.880,-0.021
29.885,-0.020
29.890,-0.025
29.895,-0.021
29.900,-0.017
29.905,-0.016
29.910,-0.010
29.915,-0.005
29.920,-0.008
29.925,-0.014
29.930,-0.013
29.935,-0.009
29.940,-0.007
29.945,-0.007
29.950,-0.008
29.955,-0.004
29.960,-0.001
29.965,-0.004
29.970,-0.002
29.975,0.000
29.980,-0.002
29.985,-0.001
29.990,0.004
29.995,0.005
30.000,0.006
30.005,0.007
30.010,0.006
30.015,0.009
30.020,0.010
30.025,0.010
30.030,0.010
30.035,0.009
30.040,0.012
30.045,0.016
30.050,0.014
30.055,0.010
30.060,0.008
30.065,0.010
30.070,0.010
30.075,0.011
30.080,0.012
30.085,0.008
30.090,0.007
30.095,0.009
30.100,0.010
30.105,0.014
30.110,0.012
30.115,0.007
30.120,0.012
30.125,0.013
30.130,0.006
30.135,0.002
30.140,0.002
30.145,0.006
30.150,0.007
30.155,0.005
30.160,0.002
30.165,0.000
30.170,0.004
30.175,0.002
30.180,0.001
30.185,0.007
30.190,0.006
30.195,0.004
30.200,0.002
30.205,0.000
30.210,0.006
30.215,0.008
30.220,0.009
30.225,0.014
30.230,0.012
30.235,0.005
30.240,0.007
30.245,0.021
30.250,0.032
30.255,0.031
30.260,0.022
30.265,0.025
30.270,0.038
30.275,0.042
30.280,0.033
30.285,0.027
30.290,0.028
30.295,0.029
30.300,0.024
30.305,0.014
30.310,0.008
30.315,0.002
30.320,-0.008
30.325,-0.018
30.330,-0.023
30.335,-0.027
30.340,-0.031
30.345,-0.028
30.350,-0.026
30.355,-0.028
30.360,-0.026
30.365,-0.023
30.370,-0.022
30.375,-0.022
30.380,-0.023
30.385,-0.017
30.390,0.016
30.395,0.091
30.400,0.197
30.405,0.275
30.410,0.279
30.415,0.193
30.420,0.048
30.425,-0.083
30.430,-0.142
30.435,-0.120
30.440,-0.072
30.445,-0.045
30.450,-0.043
30.455,-0.045
30.460,-0.044
30.465,-0.045
30.470,-0.047
30.475,-0.045
30.480,-0.043
30.485,-0.041
30.490,-0.034
30.495,-0.034
30.500,-0.036
30.505,-0.037
30.510,-0.036
30.515,-0.031
30.520,-0.029
30.525,-0.030
30.530,-0.022
30.535,-0.018
30.540,-0.015
30.545,-0.011
30.550,-0.012
30.555,-0.011
30.560,-0.010
30.565,-0.010
30.570,-0.008
30.575,-0.009
30.580,-0.007
30.585,-0.003
30.590,-0.001
30.595,0.004
30.600,0.006
30.605,0.008
30.610,0.006
30.615,0.005
30.620,0.010
30.625,0.006
30.630,-0.001
30.635,-0.003
30.640,-0.003
30.645,-0.002
30.650,-0.003
30.655,-0.008
30.660,-0.015
30.665,-0.022
30.670,-0.026
30.675,-0.019
30.680,-0.011
30.685,-0.016
30.690,-0.021
30.695,-0.021
30.700,-0.016
30.705,-0.011
30.710,-0.015
30.715,-0.016
30.720,-0.012
30.725,-0.010
30.730,-0.011
30.735,-0.018
30.740,-0.017
30.745,-0.006
30.750,-0.006
30.755,-0.008
30.760,-0.006
30.765,-0.008
30.770,-0.007
30.775,-0.005
30.780,-0.003
30.785,0.000
30.790,0.002
30.795,0.001
30.800,0.002
30.805,0.003
30.810,0.000
30.815,0.004
30.820,0.007
30.825,0.004
30.830,0.004
30.835,0.007
30.840,0.009
30.845,0.004
30.850,0.005
30.855,0.008
30.860,0.008
30.865,0.012
30.870,0.010
30.875,0.006
30.880,0.010
30.885,0.013
30.890,0.008
30.895,0.003
30.900,0.004
30.905,0.009
30.910,0.013
30.915,0.008
30.920,0.005
30.925,0.001
30.930,0.000
30.935,0.005
30.940,0.004
30.945,0.005
30.950,0.004
30.955,0.004
30.960,0.005
30.965,0.000
30.970,0.004
30.975,0.014
30.980,0.010
30.985,0.007
30.990,0.010
30.995,0.015
31.000,0.018
31.005,0.017
31.010,0.020
31.015,0.025
31.020,0.022
31.025,0.026
31.030,0.036
31.035,0.039
31.040,0.039
31.045,0.035
31.050,0.032
31.055,0.032
31.060,0.029
31.065,0.026
31.070,0.021
31.075,0.012
31.080,-0.008
31.085,-0.025
31.090,-0.027
31.095,-0.018
31.100,-0.016
31.105,-0.024
31.110,-0.025
31.115,-0.021
31.120,-0.020
31.125,-0.025
31.130,-0.027
31.135,-0.024
31.140,-0.023
31.145,-0.021
31.150,0.001
31.155,0.065
31.160,0.163
31.165,0.249
31.170,0.275
31.175,0.206
31.180,0.066
31.185,-0.070
31.190,-0.140
31.195,-0.131
31.200,-0.085
31.205,-0.046
31.210,-0.038
31.215,-0.038
31.220,-0.037
31.225,-0.041
31.230,-0.038
31.235,-0.030
31.240,-0.032
31.245,-0.038
31.250,-0.038
31.255,-0.038
31.260,-0.033
31.265,-0.025
31.270,-0.025
31.275,-0.020
31.280,-0.020
31.285,-0.024
31.290,-0.016
31.295,-0.013
31.300,-0.015
31.305,-0.009
31.310,0.000
31.315,-0.002
31.320,-0.011
31.325,-0.010
31.330,-0.002
31.335,0.003
31.340,0.003
31.345,0.006
31.350,0.010
31.355,0.009
31.360,0.008
31.365,0.008
31.370,0.011
31.375,0.009
31.380,0.008
31.385,0.009
31.390,0.004
31.395,0.006
31.400,0.006
31.405,-0.001
31.410,-0.010
31.415,-0.013
31.420,-0.007
31.425,-0.005
31.430,-0.016
31.435,-0.022
31.440,-0.022
31.445,-0.023
31.450,-0.017
31.455,-0.016
31.460,-0.025
31.465,-0.026
31.470,-0.023
31.475,-0.020
31.480,-0.017
31.485,-0.023
31.490,-0.023
31.495,-0.018
31.500,-0.015
31.505,-0.008
31.510,-0.005
31.515,-0.013
31.520,-0.019
31.525,-0.016
31.530,-0.012
31.535,-0.006
31.540,-0.002
31.545,-0.002
31.550,-0.002
31.555,-0.009
31.560,-0.010
31.565,-0.001
31.570,0.005
31.575,-0.001
31.580,-0.006
31.585,0.001
31.590,0.003
31.595,0.004
31.600,0.003
31.605,0.002
31.610,0.010
31.615,0.009
31.620,0.001
31.625,0.003
31.630,0.001
31.635,0.002
31.640,0.009
31.645,0.005
31.650,0.000
31.655,0.000
31.660,0.003
31.665,0.008
31.670,0.007
31.675,0.005
31.680,0.007
31.685,0.009
31.690,0.009
31.695,0.005
31.700,0.004
31.705,0.007
31.710,0.010
31.715,0.014
31.720,0.008
31.725,0.003
31.730,0.012
31.735,0.021
31.740,0.021
31.745,0.021
31.750,0.027
31.755,0.025
31.760,0.027
31.765,0.041
31.770,0.045
31.775,0.037
31.780,0.026
31.785,0.025
31.790,0.039
31.795,0.041
31.800,0.024
31.805,0.015
31.810,0.010
31.815,-0.001
31.820,-0.012
31.825,-0.017
31.830,-0.025
31.835,-0.029
31.840,-0.027
31.845,-0.031
31.850,-0.030
31.855,-0.024
31.860,-0.017
31.865,-0.016
31.870,-0.020
31.875,-0.023
31.880,-0.014
31.885,0.009
31.890,0.063
31.895,0.157
31.900,0.245
31.905,0.274
31.910,0.216
31.915,0.081
31.920,-0.062
31.925,-0.145
31.930,-0.144
31.935,-0.094
31.940,-0.049
31.945,-0.031
31.950,-0.027
31.955,-0.031
31.960,-0.038
31.965,-0.034
31.970,-0.029
31.975,-0.030
31.980,-0.028
31.985,-0.033
31.990,-0.042
31.995,-0.033
32.000,-0.017
32.005,-0.009
32.010,-0.013
32.015,-0.020
32.020,-0.017
32.025,-0.015
32.030,-0.017
32.035,-0.011
32.040,-0.003
32.045,0.001
32.050,0.003
32.055,0.000
32.060,-0.005
32.065,-0.002
32.070,-0.003
32.075,0.005
32.080,0.014
32.085,0.011
32.090,0.016
32.095,0.011
32.100,0.006
32.105,0.018
32.110,0.019
32.115,0.012
32.120,0.012
32.125,0.010
32.130,0.007
32.135,0.003
32.140,-0.001
32.145,-0.004
32.150,-0.008
32.155,-0.007
32.160,-0.011
32.165,-0.016
32.170,-0.016
32.175,-0.020
32.180,-0.020
32.185,-0.020
32.190,-0.022
32.195,-0.022
32.200,-0.020
32.205,-0.018
32.210,-0.019
32.215,-0.018
32.220,-0.019
32.225,-0.023
32.230,-0.020
32.235,-0.022
32.240,-0.028
32.245,-0.022
32.250,-0.018
32.255,-0.015
32.260,-0.006
32.265,-0.005
32.270,-0.008
32.275,-0.010
32.280,-0.012
32.285,-0.006
32.290,0.000
32.295,-0.006
32.300,-0.003
32.305,0.005
32.310,0.000
32.315,-0.002
32.320,-0.003
32.325,-0.001
32.330,0.004
32.335,0.003
32.340,0.005
32.345,0.007
32.350,0.002
32.355,0.003
32.360,0.007
32.365,0.005
32.370,0.000
32.375,0.000
32.380,0.006
32.385,0.008
32.390,0.007
32.395,0.001
32.400,0.002
32.405,0.011
32.410,0.008
32.415,0.002
32.420,0.004
32.425,0.005
32.430,0.017
32.435,0.026
32.440,0.021
32.445,0.020
32.450,0.019
32.455,0.021
32.460,0.026
32.465,0.027
32.470,0.025
32.475,0.023
32.480,0.029
32.485,0.041
32.490,0.041
32.495,0.031
32.500,0.028
32.505,0.021
32.510,0.002
32.515,-0.014
32.520,-0.016
32.525,-0.015
32.530,-0.015
32.535,-0.024
32.540,-0.027
32.545,-0.020
32.550,-0.022
32.555,-0.021
32.560,-0.016
32.565,-0.017
32.570,-0.016
32.575,-0.009
32.580,-0.005
32.585,0.014
32.590,0.080
32.595,0.180
32.600,0.254
32.605,0.252
32.610,0.167
32.615,0.035
32.620,-0.086
32.625,-0.141
32.630,-0.117
32.635,-0.067
32.640,-0.032
32.645,-0.024
32.650,-0.033
32.655,-0.035
32.660,-0.034
32.665,-0.029
32.670,-0.030
32.675,-0.035
32.680,-0.035
32.685,-0.031
32.690,-0.025
32.695,-0.022
32.700,-0.021
32.705,-0.018
32.710,-0.019
32.715,-0.021
32.720,-0.018
32.725,-0.016
32.730,-0.018
32.735,-0.014
32.740,-0.008
32.745,-0.006
32.750,-0.006
32.755,-0.007
32.760,-0.005
32.765,-0.001
32.770,0.002
32.775,0.000
32.780,0.005
32.785,0.007
32.790,0.000
32.795,0.003
32.800,0.007
32.805,0.008
32.810,0.006
32.815,0.005
32.820,0.009
32.825,0.008
32.830,0.003
32.835,0.000
32.840,-0.003
32.845,-0.007
32.850,-0.008
32.855,-0.010
32.860,-0.013
32.865,-0.016
32.870,-0.018
32.875,-0.019
32.880,-0.018
32.885,-0.019
32.890,-0.019
32.895,-0.018
32.900,-0.020
32.905,-0.018
32.910,-0.018
32.915,-0.022
32.920,-0.019
32.925,-0.015
32.930,-0.012
32.935,-0.014
32.940,-0.017
32.945,-0.013
32.950,-0.008
32.955,-0.008
32.960,-0.011
32.965,-0.012
32.970,-0.006
32.975,-0.002
32.980,-0.001
32.985,-0.001
32.990,0.001
32.995,0.003
33.000,0.005
33.005,0.007
33.010,0.004
33.015,0.000
33.020,0.001
33.025,-0.001
33.030,0.002
33.035,0.006
33.040,0.008
33.045,0.011
33.050,0.008
33.055,0.004
33.060,0.003
33.065,0.003
33.070,0.002
33.075,0.004
33.080,0.006
33.085,0.006
33.090,0.011
33.095,0.015
33.100,0.015
33.105,0.017
33.110,0.022
33.115,0.025
33.120,0.019
33.125,0.014
33.130,0.018
33.135,0.025
33.140,0.028
33.145,0.023
33.150,0.023
33.155,0.036
33.160,0.044
33.165,0.037
33.170,0.025
33.175,0.015
33.180,0.006
33.185,-0.004
33.190,-0.013
33.195,-0.017
33.200,-0.020
33.205,-0.023
33.210,-0.023
33.215,-0.021
33.220,-0.020
33.225,-0.021
33.230,-0.020
33.235,-0.017
33.240,-0.016
33.245,-0.012
33.250,-0.007
33.255,0.004
33.260,0.051
33.265,0.142
33.270,0.235
33.275,0.274
33.280,0.223
33.285,0.096
33.290,-0.041
33.295,-0.123
33.300,-0.120
33.305,-0.072
33.310,-0.033
33.315,-0.025
33.320,-0.032
33.325,-0.035
33.330,-0.034
33.335,-0.034
33.340,-0.035
33.345,-0.036
33.350,-0.033
33.355,-0.029
33.360,-0.027
33.365,-0.025
33.370,-0.025
33.375,-0.025
33.380,-0.023
33.385,-0.021
33.390,-0.016
33.395,-0.012
33.400,-0.014
33.405,-0.013
33.410,-0.010
33.415,-0.007
33.420,-0.005
33.425,-0.002
33.430,-0.001
33.435,-0.002
33.440,0.001
33.445,0.003
33.450,0.003
33.455,0.003
33.460,0.003
33.465,0.006
33.470,0.012
33.475,0.010
33.480,0.006
33.485,0.008
33.490,0.007
33.495,0.003
33.500,-0.001
33.505,-0.005
33.510,-0.005
33.515,-0.007
33.520,-0.010
33.525,-0.014
33.530,-0.018
33.535,-0.019
33.540,-0.019
33.545,-0.020
33.550,-0.020
33.555,-0.019
33.560,-0.016
33.565,-0.019
33.570,-0.023
33.575,-0.021
33.580,-0.017
33.585,-0.016
33.590,-0.015
33.595,-0.013
33.600,-0.013
33.605,-0.014
33.610,-0.013
33.615,-0.011
33.620,-0.010
33.625,-0.012
33.630,-0.010
33.635,-0.007
33.640,-0.007
33.645,-0.006
33.650,-0.004
33.655,-0.003
33.660,-0.002
33.665,0.000
33.670,0.003
33.675,0.004
33.680,0.002
33.685,0.003
33.690,0.002
33.695,0.000
33.700,0.000
33.705,0.003
33.710,0.006
33.715,0.007
33.720,0.006
33.725,0.003
33.730,0.003
33.735,0.002
33.740,0.004
33.745,0.007
33.750,0.006
33.755,0.001
33.760,0.003
33.765,0.009
33.770,0.012
33.775,0.014
33.780,0.011
33.785,0.011
33.790,0.019
33.795,0.023
33.800,0.021
33.805,0.017
33.810,0.017
33.815,0.024
33.820,0.031
33.825,0.028
33.830,0.023
33.835,0.036
33.840,0.045
33.845,0.039
33.850,0.029
33.855,0.020
33.860,0.009
33.865,-0.003
33.870,-0.016
33.875,-0.020
33.880,-0.021
33.885,-0.028
33.890,-0.029
33.895,-0.027
33.900,-0.026
33.905,-0.025
33.910,-0.026
33.915,-0.023
33.920,-0.022
33.925,-0.018
33.930,-0.015
33.935,-0.007
33.940,0.038
33.945,0.131
33.950,0.240
33.955,0.308
33.960,0.282
33.965,0.156
33.970,-0.008
33.975,-0.123
33.980,-0.140
33.985,-0.092
33.990,-0.046
33.995,-0.031
34.000,-0.034
34.005,-0.041
34.010,-0.045
34.015,-0.043
34.020,-0.042
34.025,-0.041
34.030,-0.040
34.035,-0.040
34.040,-0.038
34.045,-0.037
34.050,-0.033
34.055,-0.028
34.060,-0.029
34.065,-0.028
34.070,-0.026
34.075,-0.025
34.080,-0.023
34.085,-0.021
34.090,-0.016
34.095,-0.013
34.100,-0.011
34.105,-0.007
34.110,-0.003
34.115,-0.002
34.120,-0.002
34.125,0.001
34.130,0.003
34.135,0.003
34.140,0.004
34.145,0.006
34.150,0.006
34.155,0.004
34.160,0.003
34.165,0.003
34.170,0.003
34.175,0.001
34.180,-0.003
34.185,-0.005
34.190,-0.007
34.195,-0.011
34.200,-0.016
34.205,-0.018
34.210,-0.019
34.215,-0.020
34.220,-0.020
34.225,-0.019
34.230,-0.017
34.235,-0.016
34.240,-0.017
34.245,-0.016
34.250,-0.012
34.255,-0.011
34.260,-0.012
34.265,-0.012
34.270,-0.013
34.275,-0.012
34.280,-0.010
34.285,-0.008
34.290,-0.008
34.295,-0.008
34.300,-0.009
34.305,-0.009
34.310,-0.007
34.315,-0.004
34.320,-0.002
34.325,0.001
34.330,0.002
34.335,0.003
34.340,0.004
34.345,0.003
34.350,0.003
34.355,0.004
34.360,0.005
34.365,0.006
34.370,0.008
34.375,0.007
34.380,0.006
34.385,0.006
34.390,0.008
34.395,0.007
34.400,0.004
34.405,0.003
34.410,0.004
34.415,0.008
34.420,0.007
34.425,0.004
34.430,0.004
34.435,0.004
34.440,0.004
34.445,0.005
34.450,0.005
34.455,0.004
34.460,0.004
34.465,0.006
34.470,0.007
34.475,0.006
34.480,0.002
34.485,0.001
34.490,0.001
34.495,0.001
34.500,-0.001
34.505,0.000
34.510,0.002
34.515,0.002
34.520,0.002
34.525,0.002
34.530,0.002
34.535,0.004
34.540,0.003
34.545,0.001
34.550,0.003
34.555,0.003
34.560,0.003
34.565,0.005
34.570,0.006
34.575,0.010
34.580,0.013
34.585,0.016
34.590,0.022
34.595,0.028
34.600,0.032
34.605,0.032
34.610,0.028
34.615,0.027
34.620,0.033
34.625,0.039
34.630,0.041
34.635,0.040
34.640,0.040
34.645,0.043
34.650,0.041
34.655,0.031
34.660,0.019
34.665,0.006
34.670,-0.009
34.675,-0.017
34.680,-0.022
34.685,-0.028
34.690,-0.032
34.695,-0.033
34.700,-0.033
34.705,-0.030
34.710,-0.029
34.715,-0.028
34.720,-0.026
34.725,-0.023
34.730,-0.023
34.735,-0.021
34.740,0.004
34.745,0.084
34.750,0.209
34.755,0.317
34.760,0.348
34.765,0.267
34.770,0.103
34.775,-0.060
34.780,-0.148
34.785,-0.136
34.790,-0.082
34.795,-0.047
34.800,-0.042
34.805,-0.049
34.810,-0.054
34.815,-0.057
34.820,-0.058
34.825,-0.057
34.830,-0.054
34.835,-0.053
34.840,-0.051
34.845,-0.049
34.850,-0.048
34.855,-0.044
34.860,-0.042
34.865,-0.041
34.870,-0.038
34.875,-0.033
34.880,-0.030
34.885,-0.028
34.890,-0.026
34.895,-0.023
34.900,-0.020
34.905,-0.017
34.910,-0.014
34.915,-0.013
34.920,-0.011
34.925,-0.010
34.930,-0.007
34.935,-0.003
34.940,-0.003
34.945,-0.005
34.950,-0.004
34.955,-0.002
34.960,-0.003
34.965,-0.005
34.970,-0.006
34.975,-0.008
34.980,-0.010
34.985,-0.015
34.990,-0.018
34.995,-0.019
35.000,-0.022
35.005,-0.025
35.010,-0.027
35.015,-0.027
35.020,-0.025
35.025,-0.023
35.030,-0.021
35.035,-0.017
35.040,-0.014
35.045,-0.012
35.050,-0.009
35.055,-0.007
35.060,-0.005
35.065,-0.002
35.070,-0.001
35.075,-0.002
35.080,-0.002
35.085,-0.001
35.090,0.000
35.095,0.001
35.100,0.000
35.105,0.000
35.110,0.001
35.115,0.003
35.120,0.005
35.125,0.006
35.130,0.006
35.135,0.008
35.140,0.011
35.145,0.009
35.150,0.007
35.155,0.010
35.160,0.012
35.165,0.012
35.170,0.011
35.175,0.011
35.180,0.011
35.185,0.011
35.190,0.010
35.195,0.009
35.200,0.009
35.205,0.009
35.210,0.009
35.215,0.008
35.220,0.008
35.225,0.009
35.230,0.010
35.235,0.008
35.240,0.008
35.245,0.007
35.250,0.006
35.255,0.006
35.260,0.005
35.265,0.005
35.270,0.003
35.275,0.001
35.280,0.002
35.285,0.003
35.290,0.001
35.295,0.000
35.300,0.000
35.305,0.001
35.310,0.001
35.315,0.001
35.320,0.002
35.325,0.001
35.330,0.000
35.335,0.001
35.340,0.001
35.345,0.002
35.350,0.003
35.355,0.003
35.360,0.003
35.365,0.003
35.370,0.002
35.375,0.003
35.380,0.002
35.385,0.001
35.390,0.002
35.395,0.002
35.400,0.002
35.405,0.002
35.410,0.004
35.415,0.007
35.420,0.012
35.425,0.018
35.430,0.019
35.435,0.022
35.440,0.028
35.445,0.033
35.450,0.033
35.455,0.028
35.460,0.030
35.465,0.042
35.470,0.050
35.475,0.044
35.480,0.035
35.485,0.036
35.490,0.040
35.495,0.038
35.500,0.028
35.505,0.017
35.510,0.004
35.515,-0.011
35.520,-0.022
35.525,-0.029
35.530,-0.031
35.535,-0.034
35.540,-0.038
35.545,-0.036
35.550,-0.035
35.555,-0.035
35.560,-0.031
35.565,-0.029
35.570,-0.027
35.575,-0.028
35.580,-0.027
35.585,0.004
35.590,0.092
35.595,0.223
35.600,0.338
35.605,0.375
35.610,0.292
35.615,0.119
35.620,-0.059
35.625,-0.157
35.630,-0.148
35.635,-0.095
35.640,-0.057
35.645,-0.053
35.650,-0.061
35.655,-0.062
35.660,-0.062
35.665,-0.063
35.670,-0.062
35.675,-0.061
35.680,-0.060
35.685,-0.058
35.690,-0.057
35.695,-0.054
35.700,-0.051
35.705,-0.047
35.710,-0.045
35.715,-0.043
35.720,-0.038
35.725,-0.035
35.730,-0.033
35.735,-0.029
35.740,-0.027
35.745,-0.023
35.750,-0.019
35.755,-0.016
35.760,-0.013
35.765,-0.011
35.770,-0.010
35.775,-0.008
35.780,-0.007
35.785,-0.007
35.790,-0.005
35.795,-0.003
35.800,-0.003
35.805,-0.005
35.810,-0.007
35.815,-0.007
35.820,-0.009
35.825,-0.015
35.830,-0.020
35.835,-0.022
35.840,-0.024
35.845,-0.028
35.850,-0.031
35.855,-0.033
35.860,-0.032
35.865,-0.031
35.870,-0.030
35.875,-0.028
35.880,-0.023
35.885,-0.018
35.890,-0.015
35.895,-0.012
35.900,-0.008
35.905,-0.003
35.910,-0.001
35.915,-0.001
35.920,0.000
35.925,0.001
35.930,0.000
35.935,0.000
35.940,0.002
35.945,0.002
35.950,0.002
35.955,0.004
35.960,0.006
35.965,0.008
35.970,0.009
35.975,0.008
35.980,0.008
35.985,0.009
35.990,0.009
35.995,0.011
36.000,0.012
36.005,0.012
36.010,0.011
36.015,0.013
36.020,0.013
36.025,0.013
36.030,0.015
36.035,0.014
36.040,0.011
36.045,0.010
36.050,0.010
36.055,0.011
36.060,0.012
36.065,0.012
36.070,0.011
36.075,0.012
36.080,0.010
36.085,0.008
36.090,0.008
36.095,0.008
36.100,0.007
36.105,0.008
36.110,0.008
36.115,0.006
36.120,0.005
36.125,0.004
36.130,0.003
36.135,0.004
36.140,0.005
36.145,0.006
36.150,0.006
36.155,0.004
36.160,0.002
36.165,0.002
36.170,0.003
36.175,0.004
36.180,0.004
36.185,0.003
36.190,0.004
36.195,0.006
36.200,0.006
36.205,0.004
36.210,0.004
36.215,0.004
36.220,0.003
36.225,0.003
36.230,0.004
36.235,0.004
36.240,0.005
36.245,0.005
36.250,0.005
36.255,0.006
36.260,0.006
36.265,0.006
36.270,0.006
36.275,0.003
36.280,0.004
36.285,0.007
36.290,0.009
36.295,0.010
36.300,0.015
36.305,0.020
36.310,0.023
36.315,0.025
36.320,0.031
36.325,0.034
36.330,0.031
36.335,0.027
36.340,0.032
36.345,0.045
36.350,0.049
36.355,0.042
36.360,0.036
36.365,0.039
36.370,0.041
36.375,0.035
36.380,0.025
36.385,0.015
36.390,0.004
36.395,-0.009
36.400,-0.018
36.405,-0.027
36.410,-0.035
36.415,-0.040
36.420,-0.039
36.425,-0.033
36.430,-0.032
36.435,-0.033
36.440,-0.035
36.445,-0.033
36.450,-0.028
36.455,-0.032
36.460,-0.030
36.465,0.014
36.470,0.120
36.475,0.258
36.480,0.360
36.485,0.375
36.490,0.274
36.495,0.086
36.500,-0.086
36.505,-0.148
36.510,-0.115
36.515,-0.068
36.520,-0.046
36.525,-0.049
36.530,-0.065
36.535,-0.088
36.540,-0.101
36.545,-0.088
36.550,-0.080
36.555,-0.079
36.560,-0.064
36.565,-0.056
36.570,-0.043
36.575,-0.024
36.580,-0.034
36.585,-0.047
36.590,-0.045
36.595,-0.036
36.600,-0.020
36.605,-0.014
36.610,-0.021
36.615,0.003
36.620,0.019
36.625,0.017
36.630,0.019
36.635,0.010
36.640,-0.010
36.645,-0.016
36.650,0.020
36.655,0.009
36.660,-0.007
36.665,0.022
36.670,0.018
36.675,0.046
36.680,0.069
36.685,0.015
36.690,-0.014
36.695,0.009
36.700,0.020
36.705,0.000
36.710,-0.054
36.715,-0.075
36.720,0.001
36.725,0.059
36.730,-0.003
36.735,-0.056
36.740,-0.038
36.745,-0.037
36.750,-0.014
36.755,-0.008
36.760,-0.003
36.765,0.040
36.770,-0.028
36.775,-0.065
36.780,-0.040
36.785,-0.043
36.790,0.027
36.795,0.046
36.800,0.003
36.805,-0.048
36.810,-0.057
36.815,0.011
36.820,0.050
36.825,-0.001
36.830,-0.070
36.835,-0.003
36.840,0.032
36.845,-0.028
36.850,-0.019
36.855,-0.041
36.860,-0.075
36.865,0.001
36.870,0.069
36.875,0.088
36.880,0.041
36.885,-0.011
36.890,0.055
36.895,0.062
36.900,0.001
36.905,-0.034
36.910,-0.010
36.915,0.096
36.920,0.040
36.925,-0.034
36.930,-0.010
36.935,-0.084
36.940,0.054
36.945,0.151
36.950,-0.031
36.955,-0.068
36.960,-0.064
36.965,0.011
36.970,0.180
36.975,0.120
36.980,-0.042
36.985,-0.145
36.990,-0.120
36.995,0.056
37.000,0.147
37.005,0.030
37.010,-0.096
37.015,-0.052
37.020,0.043
37.025,0.097
37.030,-0.036
37.035,-0.097
37.040,-0.014
37.045,-0.081
37.050,0.043
37.055,0.024
37.060,-0.174
37.065,-0.092
37.070,0.003
37.075,0.099
37.080,0.084
37.085,-0.039
37.090,-0.112
37.095,-0.088
37.100,-0.010
37.105,0.016
37.110,0.020
37.115,-0.043
37.120,0.035
37.125,0.098
37.130,-0.039
37.135,-0.094
37.140,-0.063
37.145,0.002
37.150,0.053
37.155,-0.024
37.160,-0.058
37.165,-0.016
37.170,0.000
37.175,-0.032
37.180,-0.089
37.185,-0.101
37.190,-0.122
37.195,0.023
37.200,0.104
37.205,-0.031
37.210,-0.060
37.215,-0.106
37.220,-0.037
37.225,0.155
37.230,0.121
37.235,-0.008
37.240,-0.061
37.245,-0.093
37.250,-0.151
37.255,-0.164
37.260,-0.097
37.265,-0.074
37.270,-0.105
37.275,-0.095
37.280,-0.081
37.285,-0.090
37.290,-0.087
37.295,-0.072
37.300,-0.063
37.305,-0.089
37.310,-0.136
37.315,-0.113
37.320,0.018
37.325,0.184
37.330,0.356
37.335,0.368
37.340,0.218
37.345,0.075
37.350,-0.069
37.355,-0.153
37.360,-0.190
37.365,-0.162
37.370,-0.074
37.375,-0.057
37.380,-0.069
37.385,-0.054
37.390,-0.067
37.395,-0.072
37.400,-0.051
37.405,-0.066
37.410,-0.080
37.415,-0.071
37.420,-0.059
37.425,-0.047
37.430,-0.035
37.435,-0.008
37.440,0.005
37.445,-0.007
37.450,-0.018
37.455,0.010
37.460,0.055
37.465,0.070
37.470,0.088
37.475,0.075
37.480,0.042
37.485,0.049
37.490,0.052
37.495,0.075
37.500,0.089
37.505,0.072
37.510,0.080
37.515,0.088
37.520,0.086
37.525,0.093
37.530,0.098
37.535,0.098
37.540,0.090
37.545,0.078
37.550,0.070
37.555,0.068
37.560,0.062
37.565,0.052
37.570,0.054
37.575,0.066
37.580,0.065
37.585,0.047
37.590,0.027
37.595,0.025
37.600,0.031
37.605,0.026
37.610,0.026
37.615,0.028
37.620,0.029
37.625,0.035
37.630,0.037
37.635,0.037
37.640,0.025
37.645,0.005
37.650,-0.001
37.655,-0.005
37.660,-0.007
37.665,-0.007
37.670,-0.016
37.675,-0.017
37.680,-0.004
37.685,-0.002
37.690,-0.002
37.695,-0.003
37.700,-0.009
37.705,-0.007
37.710,-0.005
37.715,-0.013
37.720,-0.015
37.725,-0.005
37.730,-0.005
37.735,-0.013
37.740,-0.009
37.745,-0.001
37.750,0.004
37.755,0.001
37.760,0.000
37.765,0.002
37.770,-0.005
37.775,-0.010
37.780,-0.008
37.785,-0.009
37.790,-0.009
37.795,-0.002
37.800,-0.005
37.805,-0.015
37.810,-0.022
37.815,-0.025
37.820,-0.018
37.825,-0.016
37.830,-0.027
37.835,-0.029
37.840,-0.027
37.845,-0.027
37.850,-0.021
37.855,-0.020
37.860,-0.031
37.865,-0.031
37.870,-0.017
37.875,-0.010
37.880,-0.014
37.885,-0.026
37.890,-0.029
37.895,-0.017
37.900,-0.008
37.905,-0.007
37.910,-0.006
37.915,-0.002
37.920,0.006
37.925,0.009
37.930,0.009
37.935,0.013
37.940,0.015
37.945,0.013
37.950,0.012
37.955,0.019
37.960,0.021
37.965,0.016
37.970,0.014
37.975,0.013
37.980,0.019
37.985,0.023
37.990,0.021
37.995,0.023
38.000,0.027
38.005,0.032
38.010,0.038
38.015,0.040
38.020,0.040
38.025,0.044
38.030,0.048
38.035,0.052
38.040,0.056
38.045,0.068
38.050,0.081
38.055,0.074
38.060,0.057
38.065,0.061
38.070,0.074
38.075,0.077
38.080,0.067
38.085,0.052
38.090,0.041
38.095,0.027
38.100,0.013
38.105,0.004
38.110,0.003
38.115,0.012
38.120,0.020
38.125,0.013
38.130,-0.001
38.135,-0.005
38.140,0.000
38.145,0.003
38.150,-0.003
38.155,-0.008
38.160,0.007
38.165,0.053
38.170,0.152
38.175,0.291
38.180,0.400
38.185,0.413
38.190,0.295
38.195,0.094
38.200,-0.088
38.205,-0.171
38.210,-0.144
38.215,-0.081
38.220,-0.047
38.225,-0.049
38.230,-0.062
38.235,-0.066
38.240,-0.065
38.245,-0.064
38.250,-0.066
38.255,-0.068
38.260,-0.067
38.265,-0.067
38.270,-0.064
38.275,-0.057
38.280,-0.054
38.285,-0.052
38.290,-0.049
38.295,-0.047
38.300,-0.043
38.305,-0.042
38.310,-0.041
38.315,-0.038
38.320,-0.033
38.325,-0.029
38.330,-0.026
38.335,-0.022
38.340,-0.020
38.345,-0.017
38.350,-0.015
38.355,-0.012
38.360,-0.007
38.365,-0.005
38.370,-0.005
38.375,-0.004
38.380,-0.004
38.385,-0.004
38.390,-0.003
38.395,-0.002
38.400,-0.005
38.405,-0.009
38.410,-0.013
38.415,-0.019
38.420,-0.023
38.425,-0.025
38.430,-0.028
38.435,-0.029
38.440,-0.030
38.445,-0.032
38.450,-0.030
38.455,-0.027
38.460,-0.025
38.465,-0.022
38.470,-0.021
38.475,-0.018
38.480,-0.016
38.485,-0.015
38.490,-0.015
38.495,-0.015
38.500,-0.014
38.505,-0.012
38.510,-0.010
38.515,-0.009
38.520,-0.007
38.525,-0.006
38.530,-0.006
38.535,-0.006
38.540,-0.008
38.545,-0.009
38.550,-0.007
38.555,-0.005
38.560,-0.002
38.565,0.000
38.570,0.000
38.575,-0.001
38.580,0.000
38.585,0.000
38.590,-0.001
38.595,0.001
38.600,0.003
38.605,0.004
38.610,0.005
38.615,0.006
38.620,0.004
38.625,0.003
38.630,0.001
38.635,0.002
38.640,0.007
38.645,0.007
38.650,0.005
38.655,0.004
38.660,0.003
38.665,0.005
38.670,0.007
38.675,0.005
38.680,0.005
38.685,0.006
38.690,0.006
38.695,0.004
38.700,0.003
38.705,0.001
38.710,0.002
38.715,0.003
38.720,0.000
38.725,-0.003
38.730,-0.004
38.735,-0.001
38.740,0.000
38.745,0.000
38.750,-0.001
38.755,-0.001
38.760,-0.001
38.765,-0.001
38.770,-0.003
38.775,-0.003
38.780,-0.001
38.785,-0.001
38.790,-0.002
38.795,-0.001
38.800,0.000
38.805,0.002
38.810,0.002
38.815,-0.002
38.820,-0.002
38.825,0.000
38.830,0.000
38.835,0.000
38.840,0.000
38.845,0.002
38.850,0.001
38.855,0.000
38.860,-0.001
38.865,0.002
38.870,0.004
38.875,0.007
38.880,0.015
38.885,0.023
38.890,0.022
38.895,0.023
38.900,0.027
38.905,0.029
38.910,0.026
38.915,0.024
38.920,0.033
38.925,0.046
38.930,0.041
38.935,0.028
38.940,0.028
38.945,0.034
38.950,0.035
38.955,0.028
38.960,0.014
38.965,0.001
38.970,-0.012
38.975,-0.025
38.980,-0.030
38.985,-0.033
38.990,-0.037
38.995,-0.039
39.000,-0.040
39.005,-0.039
39.010,-0.039
39.015,-0.038
39.020,-0.035
39.025,-0.032
39.030,-0.034
39.035,-0.032
39.040,0.007
39.045,0.103
39.050,0.236
39.055,0.346
39.060,0.369
39.065,0.271
39.070,0.089
39.075,-0.084
39.080,-0.172
39.085,-0.152
39.090,-0.097
39.095,-0.061
39.100,-0.056
39.105,-0.065
39.110,-0.069
39.115,-0.068
39.120,-0.066
39.125,-0.065
39.130,-0.065
39.135,-0.063
39.140,-0.060
39.145,-0.058
39.150,-0.054
39.155,-0.052
39.160,-0.048
39.165,-0.046
39.170,-0.043
39.175,-0.040
39.180,-0.037
39.185,-0.034
39.190,-0.031
39.195,-0.027
39.200,-0.024
39.205,-0.021
39.210,-0.020
39.215,-0.017
39.220,-0.013
39.225,-0.013
39.230,-0.012
39.235,-0.011
39.240,-0.009
39.245,-0.006
39.250,-0.005
39.255,-0.004
39.260,-0.004
39.265,-0.007
39.270,-0.008
39.275,-0.007
39.280,-0.008
39.285,-0.014
39.290,-0.020
39.295,-0.025
39.300,-0.026
39.305,-0.028
39.310,-0.033
39.315,-0.036
39.320,-0.034
39.325,-0.032
39.330,-0.030
39.335,-0.030
39.340,-0.028
39.345,-0.024
39.350,-0.020
39.355,-0.015
39.360,-0.011
39.365,-0.011
39.370,-0.010
39.375,-0.008
39.380,-0.007
39.385,-0.006
39.390,-0.006
39.395,-0.007
39.400,-0.006
39.405,-0.004
39.410,-0.004
39.415,-0.001
39.420,0.001
39.425,0.002
39.430,0.002
39.435,0.002
39.440,0.003
39.445,0.005
39.450,0.006
39.455,0.007
39.460,0.009
39.465,0.009
39.470,0.009
39.475,0.009
39.480,0.009
39.485,0.010
39.490,0.008
39.495,0.007
39.500,0.010
39.505,0.010
39.510,0.010
39.515,0.011
39.520,0.011
39.525,0.011
39.530,0.010
39.535,0.009
39.540,0.009
39.545,0.009
39.550,0.008
39.555,0.008
39.560,0.007
39.565,0.007
39.570,0.006
39.575,0.005
39.580,0.004
39.585,0.004
39.590,0.005
39.595,0.005
39.600,0.003
39.605,0.003
39.610,0.007
39.615,0.007
39.620,0.005
39.625,0.004
39.630,0.005
39.635,0.005
39.640,0.004
39.645,0.002
39.650,0.003
39.655,0.004
39.660,0.004
39.665,0.003
39.670,0.003
39.675,0.004
39.680,0.006
39.685,0.006
39.690,0.006
39.695,0.005
39.700,0.005
39.705,0.004
39.710,0.003
39.715,0.003
39.720,0.005
39.725,0.006
39.730,0.006
39.735,0.006
39.740,0.004
39.745,0.004
39.750,0.006
39.755,0.008
39.760,0.007
39.765,0.008
39.770,0.011
39.775,0.017
39.780,0.023
39.785,0.025
39.790,0.027
39.795,0.031
39.800,0.034
39.805,0.032
39.810,0.028
39.815,0.032
39.820,0.047
39.825,0.054
39.830,0.044
39.835,0.034
39.840,0.037
39.845,0.041
39.850,0.036
39.855,0.023
39.860,0.011
39.865,-0.001
39.870,-0.016
39.875,-0.025
39.880,-0.030
39.885,-0.035
39.890,-0.039
39.895,-0.039
39.900,-0.036
39.905,-0.035
39.910,-0.034
39.915,-0.032
39.920,-0.030
39.925,-0.028
39.930,-0.029
39.935,-0.013
39.940,0.051
39.945,0.172
39.950,0.307
39.955,0.383
39.960,0.349
39.965,0.201
39.970,0.008
39.975,-0.135
39.980,-0.169
39.985,-0.122
39.990,-0.069
39.995,-0.053
40.000,-0.062
40.005,-0.068
40.010,-0.069
40.015,-0.064
40.020,-0.062
40.025,-0.063
40.030,-0.062
40.035,-0.059
40.040,-0.057
40.045,-0.057
40.050,-0.054
40.055,-0.052
40.060,-0.049
40.065,-0.045
40.070,-0.042
40.075,-0.038
40.080,-0.034
40.085,-0.031
40.090,-0.027
40.095,-0.025
40.100,-0.024
40.105,-0.021
40.110,-0.019
40.115,-0.017
40.120,-0.015
40.125,-0.012
40.130,-0.010
40.135,-0.009
40.140,-0.007
40.145,-0.004
40.150,-0.003
40.155,-0.004
40.160,-0.004
40.165,-0.005
40.170,-0.005
40.175,-0.007
40.180,-0.012
40.185,-0.017
40.190,-0.019
40.195,-0.022
40.200,-0.024
40.205,-0.027
40.210,-0.032
40.215,-0.032
40.220,-0.033
40.225,-0.033
40.230,-0.030
40.235,-0.026
40.240,-0.023
40.245,-0.020
40.250,-0.017
40.255,-0.013
40.260,-0.008
40.265,-0.006
40.270,-0.005
40.275,-0.003
40.280,-0.002
40.285,-0.003
40.290,-0.002
40.295,-0.002
40.300,0.000
40.305,0.002
40.310,0.002
40.315,0.002
40.320,0.002
40.325,0.003
40.330,0.004
40.335,0.004
40.340,0.007
40.345,0.010
40.350,0.011
40.355,0.009
40.360,0.009
40.365,0.009
40.370,0.008
40.375,0.009
40.380,0.011
40.385,0.013
40.390,0.011
40.395,0.009
40.400,0.012
40.405,0.014
40.410,0.014
40.415,0.010
40.420,0.009
40.425,0.010
40.430,0.011
40.435,0.012
40.440,0.011
40.445,0.011
40.450,0.010
40.455,0.010
40.460,0.010
40.465,0.007
40.470,0.006
40.475,0.005
40.480,0.004
40.485,0.005
40.490,0.004
40.495,0.005
40.500,0.008
40.505,0.007
40.510,0.005
40.515,0.004
40.520,0.005
40.525,0.008
40.530,0.007
40.535,0.003
40.540,0.003
40.545,0.004
40.550,0.006
40.555,0.004
40.560,0.003
40.565,0.005
40.570,0.006
40.575,0.005
40.580,0.005
40.585,0.008
40.590,0.009
40.595,0.006
40.600,0.005
40.605,0.005
40.610,0.006
40.615,0.006
40.620,0.005
40.625,0.005
40.630,0.005
40.635,0.005
40.640,0.006
40.645,0.006
40.650,0.006
40.655,0.003
40.660,0.001
40.665,0.003
40.670,0.006
40.675,0.007
40.680,0.010
40.685,0.013
40.690,0.018
40.695,0.021
40.700,0.020
40.705,0.022
40.710,0.027
40.715,0.031
40.720,0.029
40.725,0.027
40.730,0.035
40.735,0.050
40.740,0.055
40.745,0.043
40.750,0.033
40.755,0.037
40.760,0.039
40.765,0.032
40.770,0.020
40.775,0.008
40.780,-0.001
40.785,-0.014
40.790,-0.022
40.795,-0.026
40.800,-0.030
40.805,-0.033
40.810,-0.033
40.815,-0.031
40.820,-0.031
40.825,-0.032
40.830,-0.030
40.835,-0.026
40.840,-0.024
40.845,-0.024
40.850,0.001
40.855,0.079
40.860,0.205
40.865,0.326
40.870,0.370
40.875,0.292
40.880,0.122
40.885,-0.055
40.890,-0.161
40.895,-0.161
40.900,-0.108
40.905,-0.062
40.910,-0.050
40.915,-0.057
40.920,-0.058
40.925,-0.057
40.930,-0.053
40.935,-0.053
40.940,-0.055
40.945,-0.054
40.950,-0.052
40.955,-0.050
40.960,-0.046
40.965,-0.043
40.970,-0.040
40.975,-0.037
40.980,-0.034
40.985,-0.032
40.990,-0.030
40.995,-0.026
41.000,-0.023
41.005,-0.021
41.010,-0.020
41.015,-0.017
41.020,-0.014
41.025,-0.012
41.030,-0.010
41.035,-0.009
41.040,-0.005
41.045,-0.002
41.050,-0.001
41.055,-0.001
41.060,0.000
41.065,0.002
41.070,0.001
41.075,-0.001
41.080,-0.004
41.085,-0.005
41.090,-0.008
41.095,-0.012
41.100,-0.016
41.105,-0.020
41.110,-0.024
41.115,-0.027
41.120,-0.030
41.125,-0.032
41.130,-0.032
41.135,-0.031
41.140,-0.030
41.145,-0.028
41.150,-0.026
41.155,-0.022
41.160,-0.018
41.165,-0.014
41.170,-0.011
41.175,-0.009
41.180,-0.007
41.185,-0.006
41.190,-0.006
41.195,-0.005
41.200,-0.003
41.205,-0.002
41.210,-0.003
41.215,-0.002
41.220,0.000
41.225,0.000
41.230,0.000
41.235,0.003
41.240,0.004
41.245,0.004
41.250,0.005
41.255,0.008
41.260,0.008
41.265,0.006
41.270,0.007
41.275,0.010
41.280,0.011
41.285,0.011
41.290,0.012
41.295,0.011
41.300,0.012
41.305,0.012
41.310,0.012
41.315,0.013
41.320,0.013
41.325,0.013
41.330,0.012
41.335,0.010
41.340,0.010
41.345,0.012
41.350,0.010
41.355,0.007
41.360,0.006
41.365,0.007
41.370,0.009
41.375,0.009
41.380,0.007
41.385,0.005
41.390,0.006
41.395,0.007
41.400,0.006
41.405,0.006
41.410,0.005
41.415,0.003
41.420,0.002
41.425,0.001
41.430,0.003
41.435,0.004
41.440,0.004
41.445,0.004
41.450,0.004
41.455,0.003
41.460,0.003
41.465,0.004
41.470,0.003
41.475,0.002
41.480,0.002
41.485,0.003
41.490,0.004
41.495,0.004
41.500,0.002
41.505,0.002
41.510,0.003
41.515,0.004
41.520,0.005
41.525,0.005
41.530,0.004
41.535,0.005
41.540,0.004
41.545,0.002
41.550,0.001
41.555,0.003
41.560,0.005
41.565,0.004
41.570,0.003
41.575,0.003
41.580,0.003
41.585,0.005
41.590,0.005
41.595,0.006
41.600,0.008
41.605,0.014
41.610,0.019
41.615,0.022
41.620,0.023
41.625,0.027
41.630,0.033
41.635,0.031
41.640,0.025
41.645,0.029
41.650,0.041
41.655,0.050
41.660,0.044
41.665,0.034
41.670,0.033
41.675,0.036
41.680,0.036
41.685,0.025
41.690,0.013
41.695,0.001
41.700,-0.013
41.705,-0.021
41.710,-0.025
41.715,-0.030
41.720,-0.034
41.725,-0.036
41.730,-0.035
41.735,-0.032
41.740,-0.032
41.745,-0.034
41.750,-0.031
41.755,-0.029
41.760,-0.031
41.765,-0.017
41.770,0.041
41.775,0.154
41.780,0.290
41.785,0.378
41.790,0.363
41.795,0.228
41.800,0.035
41.805,-0.118
41.810,-0.168
41.815,-0.129
41.820,-0.075
41.825,-0.056
41.830,-0.063
41.835,-0.070
41.840,-0.071
41.845,-0.069
41.850,-0.068
41.855,-0.068
41.860,-0.065
41.865,-0.061
41.870,-0.060
41.875,-0.059
41.880,-0.056
41.885,-0.052
41.890,-0.048
41.895,-0.046
41.900,-0.044
41.905,-0.040
41.910,-0.035
41.915,-0.032
41.920,-0.030
41.925,-0.028
41.930,-0.026
41.935,-0.021
41.940,-0.017
41.945,-0.015
41.950,-0.014
41.955,-0.013
41.960,-0.009
41.965,-0.006
41.970,-0.005
41.975,-0.006
41.980,-0.004
41.985,-0.001
41.990,-0.001
41.995,-0.002
42.000,-0.004
42.005,-0.009
42.010,-0.011
42.015,-0.015
42.020,-0.019
42.025,-0.021
42.030,-0.024
42.035,-0.028
42.040,-0.032
42.045,-0.034
42.050,-0.034
42.055,-0.033
42.060,-0.031
42.065,-0.028
42.070,-0.024
42.075,-0.021
42.080,-0.018
42.085,-0.014
42.090,-0.010
42.095,-0.007
42.100,-0.005
42.105,-0.005
42.110,-0.005
42.115,-0.003
42.120,0.000
42.125,0.003
42.130,0.002
42.135,0.001
42.140,0.002
42.145,0.004
42.150,0.005
42.155,0.004
42.160,0.004
42.165,0.006
42.170,0.008
42.175,0.008
42.180,0.010
42.185,0.012
42.190,0.012
42.195,0.012
42.200,0.012
42.205,0.013
42.210,0.014
42.215,0.014
42.220,0.015
42.225,0.015
42.230,0.016
42.235,0.016
42.240,0.015
42.245,0.015
42.250,0.014
42.255,0.014
42.260,0.013
42.265,0.012
42.270,0.012
42.275,0.012
42.280,0.011
42.285,0.011
42.290,0.010
42.295,0.009
42.300,0.008
42.305,0.007
42.310,0.007
42.315,0.007
42.320,0.007
42.325,0.007
42.330,0.006
42.335,0.006
42.340,0.006
42.345,0.006
42.350,0.005
42.355,0.005
42.360,0.004
42.365,0.005
42.370,0.006
42.375,0.006
42.380,0.006
42.385,0.006
42.390,0.006
42.395,0.004
42.400,0.004
42.405,0.005
42.410,0.003
42.415,0.002
42.420,0.002
42.425,0.003
42.430,0.006
42.435,0.006
42.440,0.005
42.445,0.006
42.450,0.007
42.455,0.006
42.460,0.004
42.465,0.003
42.470,0.004
42.475,0.004
42.480,0.004
42.485,0.005
42.490,0.006
42.495,0.006
42.500,0.005
42.505,0.004
42.510,0.005
42.515,0.005
42.520,0.004
42.525,0.003
42.530,0.003
42.535,0.005
42.540,0.009
42.545,0.014
42.550,0.018
42.555,0.023
42.560,0.023
42.565,0.025
42.570,0.032
42.575,0.036
42.580,0.033
42.585,0.031
42.590,0.034
42.595,0.044
42.600,0.045
42.605,0.035
42.610,0.028
42.615,0.030
42.620,0.036
42.625,0.034
42.630,0.021
42.635,0.010
42.640,-0.002
42.645,-0.018
42.650,-0.026
42.655,-0.030
42.660,-0.035
42.665,-0.038
42.670,-0.040
42.675,-0.038
42.680,-0.036
42.685,-0.037
42.690,-0.035
42.695,-0.030
42.700,-0.030
42.705,-0.037
42.710,-0.025
42.715,0.036
42.720,0.156
42.725,0.297
42.730,0.391
42.735,0.382
42.740,0.247
42.745,0.050
42.750,-0.112
42.755,-0.170
42.760,-0.132
42.765,-0.081
42.770,-0.063
42.775,-0.068
42.780,-0.073
42.785,-0.073
42.790,-0.071
42.795,-0.069
42.800,-0.070
42.805,-0.069
42.810,-0.067
42.815,-0.065
42.820,-0.062
42.825,-0.060
42.830,-0.058
42.835,-0.054
42.840,-0.050
42.845,-0.047
42.850,-0.043
42.855,-0.039
42.860,-0.036
42.865,-0.033
42.870,-0.030
42.875,-0.027
42.880,-0.024
42.885,-0.019
42.890,-0.017
42.895,-0.015
42.900,-0.013
42.905,-0.013
42.910,-0.010
42.915,-0.008
42.920,-0.005
42.925,-0.003
42.930,-0.005
42.935,-0.008
42.940,-0.008
42.945,-0.009
42.950,-0.011
42.955,-0.013
42.960,-0.017
42.965,-0.021
42.970,-0.024
42.975,-0.029
42.980,-0.030
42.985,-0.032
42.990,-0.035
42.995,-0.037
43.000,-0.035
43.005,-0.032
43.010,-0.029
43.015,-0.027
43.020,-0.022
43.025,-0.017
43.030,-0.013
43.035,-0.009
43.040,-0.006
43.045,-0.005
43.050,-0.003
43.055,-0.002
43.060,-0.001
43.065,0.000
43.070,0.000
43.075,0.000
43.080,0.003
43.085,0.004
43.090,0.005
43.095,0.005
43.100,0.006
43.105,0.007
43.110,0.006
43.115,0.007
43.120,0.009
43.125,0.010
43.130,0.011
43.135,0.012
43.140,0.013
43.145,0.014
43.150,0.014
43.155,0.015
43.160,0.016
43.165,0.016
43.170,0.016
43.175,0.015
43.180,0.014
43.185,0.013
43.190,0.014
43.195,0.015
43.200,0.016
43.205,0.014
43.210,0.014
43.215,0.015
43.220,0.014
43.225,0.012
43.230,0.011
43.235,0.010
43.240,0.008
43.245,0.009
43.250,0.010
43.255,0.008
43.260,0.006
43.265,0.007
43.270,0.008
43.275,0.008
43.280,0.007
43.285,0.006
43.290,0.006
43.295,0.005
43.300,0.004
43.305,0.005
43.310,0.009
43.315,0.007
43.320,0.005
43.325,0.005
43.330,0.007
43.335,0.008
43.340,0.008
43.345,0.006
43.350,0.005
43.355,0.004
43.360,0.003
43.365,0.004
43.370,0.006
43.375,0.007
43.380,0.006
43.385,0.006
43.390,0.004
43.395,0.003
43.400,0.004
43.405,0.006
43.410,0.007
43.415,0.005
43.420,0.006
43.425,0.008
43.430,0.007
43.435,0.006
43.440,0.007
43.445,0.007
43.450,0.007
43.455,0.009
43.460,0.014
43.465,0.019
43.470,0.023
43.475,0.025
43.480,0.025
43.485,0.031
43.490,0.038
43.495,0.039
43.500,0.034
43.505,0.029
43.510,0.034
43.515,0.043
43.520,0.044
43.525,0.033
43.530,0.027
43.535,0.036
43.540,0.040
43.545,0.031
43.550,0.017
43.555,0.009
43.560,-0.001
43.565,-0.015
43.570,-0.025
43.575,-0.032
43.580,-0.036
43.585,-0.038
43.590,-0.040
43.595,-0.037
43.600,-0.036
43.605,-0.038
43.610,-0.035
43.615,-0.028
43.620,-0.029
43.625,-0.033
43.630,-0.014
43.635,0.058
43.640,0.186
43.645,0.323
43.650,0.396
43.655,0.354
43.660,0.198
43.665,0.003
43.670,-0.139
43.675,-0.170
43.680,-0.122
43.685,-0.072
43.690,-0.056
43.695,-0.062
43.700,-0.068
43.705,-0.069
43.710,-0.067
43.715,-0.069
43.720,-0.067
43.725,-0.064
43.730,-0.062
43.735,-0.060
43.740,-0.057
43.745,-0.055
43.750,-0.053
43.755,-0.049
43.760,-0.045
43.765,-0.040
43.770,-0.038
43.775,-0.037
43.780,-0.034
43.785,-0.030
43.790,-0.027
43.795,-0.025
43.800,-0.023
43.805,-0.022
43.810,-0.019
43.815,-0.014
43.820,-0.011
43.825,-0.009
43.830,-0.008
43.835,-0.007
43.840,-0.004
43.845,-0.003
43.850,-0.003
43.855,-0.005
43.860,-0.006
43.865,-0.008
43.870,-0.009
43.875,-0.011
43.880,-0.015
43.885,-0.020
43.890,-0.022
43.895,-0.025
43.900,-0.029
43.905,-0.032
43.910,-0.035
43.915,-0.037
43.920,-0.036
43.925,-0.035
43.930,-0.031
43.935,-0.025
43.940,-0.020
43.945,-0.016
43.950,-0.015
43.955,-0.012
43.960,-0.009
43.965,-0.007
43.970,-0.007
43.975,-0.006
43.980,-0.003
43.985,-0.001
43.990,-0.001
43.995,-0.002
44.000,-0.002
44.005,-0.001
44.010,0.000
44.015,0.003
44.020,0.004
44.025,0.004
44.030,0.004
44.035,0.006
44.040,0.007
44.045,0.008
44.050,0.010
44.055,0.010
44.060,0.010
44.065,0.011
44.070,0.011
44.075,0.012
44.080,0.011
44.085,0.010
44.090,0.011
44.095,0.012
44.100,0.014
44.105,0.015
44.110,0.015
44.115,0.013
44.120,0.012
44.125,0.013
44.130,0.012
44.135,0.010
44.140,0.010
44.145,0.010
44.150,0.010
44.155,0.010
44.160,0.008
44.165,0.008
44.170,0.009
44.175,0.009
44.180,0.008
44.185,0.005
44.190,0.003
44.195,0.002
44.200,0.003
44.205,0.005
44.210,0.005
44.215,0.005
44.220,0.005
44.225,0.004
44.230,0.003
44.235,0.004
44.240,0.005
44.245,0.005
44.250,0.006
44.255,0.006
44.260,0.005
44.265,0.004
44.270,0.004
44.275,0.002
44.280,0.003
44.285,0.005
44.290,0.006
44.295,0.006
44.300,0.006
44.305,0.005
44.310,0.005
44.315,0.004
44.320,0.003
44.325,0.003
44.330,0.006
44.335,0.006
44.340,0.004
44.345,0.004
44.350,0.004
44.355,0.007
44.360,0.008
44.365,0.007
44.370,0.005
44.375,0.004
44.380,0.006
44.385,0.010
44.390,0.016
44.395,0.021
44.400,0.024
44.405,0.025
44.410,0.026
44.415,0.031
44.420,0.039
44.425,0.041
44.430,0.033
44.435,0.028
44.440,0.035
44.445,0.045
44.450,0.047
44.455,0.036
44.460,0.028
44.465,0.034
44.470,0.038
44.475,0.031
44.480,0.019
44.485,0.009
44.490,-0.002
44.495,-0.017
44.500,-0.027
44.505,-0.034
44.510,-0.037
44.515,-0.039
44.520,-0.040
44.525,-0.038
44.530,-0.038
44.535,-0.037
44.540,-0.033
44.545,-0.029
44.550,-0.032
44.555,-0.036
44.560,-0.020
44.565,0.049
44.570,0.177
44.575,0.322
44.580,0.412
44.585,0.390
44.590,0.244
44.595,0.042
44.600,-0.117
44.605,-0.165
44.610,-0.123
44.615,-0.072
44.620,-0.060
44.625,-0.069
44.630,-0.075
44.635,-0.074
44.640,-0.072
44.645,-0.073
44.650,-0.075
44.655,-0.073
44.660,-0.069
44.665,-0.067
44.670,-0.063
44.675,-0.060
44.680,-0.058
44.685,-0.055
44.690,-0.050
44.695,-0.046
44.700,-0.044
44.705,-0.041
44.710,-0.038
44.715,-0.034
44.720,-0.029
44.725,-0.025
44.730,-0.023
44.735,-0.021
44.740,-0.018
44.745,-0.014
44.750,-0.012
44.755,-0.012
44.760,-0.009
44.765,-0.006
44.770,-0.004
44.775,-0.003
44.780,-0.004
44.785,-0.003
44.790,-0.003
44.795,-0.006
44.800,-0.010
44.805,-0.012
44.810,-0.016
44.815,-0.020
44.820,-0.022
44.825,-0.025
44.830,-0.028
44.835,-0.032
44.840,-0.036
44.845,-0.037
44.850,-0.034
44.855,-0.032
44.860,-0.030
44.865,-0.027
44.870,-0.022
44.875,-0.016
44.880,-0.014
44.885,-0.011
44.890,-0.010
44.895,-0.008
44.900,-0.005
44.905,-0.004
44.910,-0.002
44.915,-0.001
44.920,0.000
44.925,0.000
44.930,0.001
44.935,0.001
44.940,0.002
44.945,0.005
44.950,0.005
44.955,0.006
44.960,0.006
44.965,0.007
44.970,0.009
44.975,0.009
44.980,0.010
44.985,0.011
44.990,0.012
44.995,0.012
45.000,0.012
45.005,0.015
45.010,0.015
45.015,0.013
45.020,0.014
45.025,0.014
45.030,0.015
45.035,0.015
45.040,0.013
45.045,0.014
45.050,0.013
45.055,0.012
45.060,0.012
45.065,0.013
45.070,0.013
45.075,0.013
45.080,0.014
45.085,0.011
45.090,0.010
45.095,0.011
45.100,0.010
45.105,0.009
45.110,0.008
45.115,0.007
45.120,0.006
45.125,0.005
45.130,0.005
45.135,0.005
45.140,0.005
45.145,0.004
45.150,0.006
45.155,0.008
45.160,0.008
45.165,0.006
45.170,0.004
45.175,0.003
45.180,0.004
45.185,0.005
45.190,0.005
45.195,0.004
45.200,0.004
45.205,0.005
45.210,0.005
45.215,0.005
45.220,0.005
45.225,0.005
45.230,0.005
45.235,0.006
45.240,0.006
45.245,0.005
45.250,0.005
45.255,0.005
45.260,0.004
45.265,0.003
45.270,0.004
45.275,0.005
45.280,0.005
45.285,0.005
45.290,0.005
45.295,0.005
45.300,0.006
45.305,0.005
45.310,0.003
45.315,0.004
