'Elapsed time','ECG'
'seconds','mV'
0.000,0.214
0.005,0.208
0.010,0.196
0.015,0.185
0.020,0.175
0.025,0.163
0.030,0.150
0.035,0.136
0.040,0.125
0.045,0.120
0.050,0.111
0.055,0.098
0.060,0.091
0.065,0.084
0.070,0.076
0.075,0.069
0.080,0.061
0.085,0.054
0.090,0.048
0.095,0.039
0.100,0.033
0.105,0.031
0.110,0.027
0.115,0.022
0.120,0.018
0.125,0.013
0.130,0.009
0.135,0.006
0.140,0.004
0.145,0.005
0.150,0.001
0.155,-0.007
0.160,-0.011
0.165,-0.011
0.170,-0.012
0.175,-0.013
0.180,-0.015
0.185,-0.015
0.190,-0.018
0.195,-0.027
0.200,-0.031
0.205,-0.030
0.210,-0.031
0.215,-0.031
0.220,-0.033
0.225,-0.037
0.230,-0.038
0.235,-0.040
0.240,-0.043
0.245,-0.044
0.250,-0.050
0.255,-0.059
0.260,-0.073
0.265,-0.097
0.270,-0.118
0.275,-0.124
0.280,-0.121
0.285,-0.118
0.290,-0.119
0.295,-0.130
0.300,-0.136
0.305,-0.135
0.310,-0.142
0.315,-0.141
0.320,-0.116
0.325,-0.082
0.330,-0.050
0.335,-0.031
0.340,-0.023
0.345,-0.010
0.350,0.006
0.355,0.014
0.360,0.023
0.365,0.032
0.370,0.030
0.375,0.028
0.380,0.030
0.385,0.029
0.390,0.027
0.395,0.025
0.400,0.023
0.405,0.024
0.410,0.021
0.415,0.010
0.420,0.002
0.425,0.001
0.430,-0.001
0.435,-0.004
0.440,-0.010
0.445,-0.013
0.450,-0.015
0.455,-0.023
0.460,-0.028
0.465,-0.028
0.470,-0.028
0.475,-0.025
0.480,-0.014
0.485,0.000
0.490,-0.004
0.495,-0.053
0.500,-0.182
0.505,-0.423
0.510,-0.708
0.515,-0.781
0.520,-0.485
0.525,-0.104
0.530,0.077
0.535,0.132
0.540,0.221
0.545,0.287
0.550,0.203
0.555,0.042
0.560,-0.038
0.565,-0.031
0.570,-0.034
0.575,-0.050
0.580,-0.030
0.585,-0.019
0.590,-0.037
0.595,-0.036
0.600,-0.022
0.605,-0.029
0.610,-0.035
0.615,-0.028
0.620,-0.031
0.625,-0.037
0.630,-0.035
0.635,-0.037
0.640,-0.042
0.645,-0.042
0.650,-0.040
0.655,-0.046
0.660,-0.052
0.665,-0.053
0.670,-0.058
0.675,-0.061
0.680,-0.063
0.685,-0.065
0.690,-0.068
0.695,-0.072
0.700,-0.078
0.705,-0.083
0.710,-0.088
0.715,-0.093
0.720,-0.097
0.725,-0.107
0.730,-0.116
0.735,-0.120
0.740,-0.123
0.745,-0.126
0.750,-0.132
0.755,-0.136
0.760,-0.137
0.765,-0.135
0.770,-0.132
0.775,-0.132
0.780,-0.131
0.785,-0.124
0.790,-0.110
0.795,-0.091
0.800,-0.070
0.805,-0.041
0.810,-0.001
0.815,0.041
0.820,0.083
0.825,0.124
0.830,0.162
0.835,0.197
0.840,0.229
0.845,0.258
0.850,0.283
0.855,0.300
0.860,0.308
0.865,0.312
0.870,0.313
0.875,0.312
0.880,0.309
0.885,0.304
0.890,0.294
0.895,0.281
0.900,0.269
0.905,0.260
0.910,0.252
0.915,0.241
0.920,0.226
0.925,0.212
0.930,0.197
0.935,0.184
0.940,0.170
0.945,0.158
0.950,0.150
0.955,0.140
0.960,0.130
0.965,0.120
0.970,0.109
0.975,0.100
0.980,0.093
0.985,0.084
0.990,0.074
0.995,0.069
1.000,0.062
1.005,0.052
1.010,0.043
1.015,0.039
1.020,0.037
1.025,0.029
1.030,0.018
1.035,0.014
1.040,0.014
1.045,0.010
1.050,0.004
1.055,-0.002
1.060,-0.004
1.065,-0.004
1.070,-0.006
1.075,-0.010
1.080,-0.011
1.085,-0.012
1.090,-0.013
1.095,-0.018
1.100,-0.024
1.105,-0.024
1.110,-0.023
1.115,-0.026
1.120,-0.028
1.125,-0.030
1.130,-0.032
1.135,-0.034
1.140,-0.036
1.145,-0.038
1.150,-0.037
1.155,-0.034
1.160,-0.035
1.165,-0.044
1.170,-0.053
1.175,-0.052
1.180,-0.045
1.185,-0.042
1.190,-0.048
1.195,-0.055
1.200,-0.056
1.205,-0.055
1.210,-0.058
1.215,-0.066
1.220,-0.083
1.225,-0.106
1.230,-0.123
1.235,-0.129
1.240,-0.127
1.245,-0.124
1.250,-0.125
1.255,-0.134
1.260,-0.138
1.265,-0.140
1.270,-0.147
1.275,-0.144
1.280,-0.117
1.285,-0.081
1.290,-0.052
1.295,-0.031
1.300,-0.022
1.305,-0.013
1.310,0.006
1.315,0.016
1.320,0.027
1.325,0.034
1.330,0.029
1.335,0.030
1.340,0.036
1.345,0.033
1.350,0.027
1.355,0.025
1.360,0.023
1.365,0.022
1.370,0.020
1.375,0.016
1.380,0.015
1.385,0.011
1.390,0.001
1.395,-0.003
1.400,-0.004
1.405,-0.009
1.410,-0.013
1.415,-0.015
1.420,-0.018
1.425,-0.019
1.430,-0.018
1.435,-0.014
1.440,-0.006
1.445,0.006
1.450,0.006
1.455,-0.032
1.460,-0.146
1.465,-0.369
1.470,-0.656
1.475,-0.775
1.480,-0.526
1.485,-0.141
1.490,0.058
1.495,0.115
1.500,0.204
1.505,0.299
1.510,0.242
1.515,0.073
1.520,-0.028
1.525,-0.028
1.530,-0.029
1.535,-0.050
1.540,-0.033
1.545,-0.013
1.550,-0.028
1.555,-0.032
1.560,-0.021
1.565,-0.027
1.570,-0.033
1.575,-0.022
1.580,-0.023
1.585,-0.035
1.590,-0.036
1.595,-0.035
1.600,-0.038
1.605,-0.038
1.610,-0.039
1.615,-0.044
1.620,-0.048
1.625,-0.050
1.630,-0.050
1.635,-0.054
1.640,-0.055
1.645,-0.057
1.650,-0.063
1.655,-0.070
1.660,-0.072
1.665,-0.073
1.670,-0.075
1.675,-0.085
1.680,-0.095
1.685,-0.098
1.690,-0.101
1.695,-0.106
1.700,-0.112
1.705,-0.115
1.710,-0.118
1.715,-0.126
1.720,-0.132
1.725,-0.132
1.730,-0.129
1.735,-0.125
1.740,-0.121
1.745,-0.115
1.750,-0.107
1.755,-0.097
1.760,-0.075
1.765,-0.043
1.770,-0.010
1.775,0.025
1.780,0.066
1.785,0.110
1.790,0.149
1.795,0.182
1.800,0.214
1.805,0.246
1.810,0.272
1.815,0.288
1.820,0.300
1.825,0.310
1.830,0.311
1.835,0.305
1.840,0.300
1.845,0.295
1.850,0.289
1.855,0.282
1.860,0.270
1.865,0.258
1.870,0.249
1.875,0.237
1.880,0.219
1.885,0.206
1.890,0.197
1.895,0.190
1.900,0.178
1.905,0.160
1.910,0.146
1.915,0.139
1.920,0.133
1.925,0.122
1.930,0.108
1.935,0.097
1.940,0.088
1.945,0.080
1.950,0.075
1.955,0.070
1.960,0.065
1.965,0.059
1.970,0.050
1.975,0.043
1.980,0.037
1.985,0.028
1.990,0.022
1.995,0.021
2.000,0.017
2.005,0.009
2.010,0.001
2.015,-0.001
2.020,0.000
2.025,-0.002
2.030,-0.005
2.035,-0.007
2.040,-0.009
2.045,-0.010
2.050,-0.011
2.055,-0.012
2.060,-0.011
2.065,-0.012
2.070,-0.019
2.075,-0.027
2.080,-0.029
2.085,-0.026
2.090,-0.027
2.095,-0.033
2.100,-0.034
2.105,-0.032
2.110,-0.032
2.115,-0.039
2.120,-0.043
2.125,-0.041
2.130,-0.039
2.135,-0.041
2.140,-0.042
2.145,-0.040
2.150,-0.043
2.155,-0.045
2.160,-0.044
2.165,-0.046
2.170,-0.048
2.175,-0.051
2.180,-0.053
2.185,-0.051
2.190,-0.054
2.195,-0.067
2.200,-0.090
2.205,-0.117
2.210,-0.127
2.215,-0.122
2.220,-0.116
2.225,-0.119
2.230,-0.130
2.235,-0.135
2.240,-0.135
2.245,-0.138
2.250,-0.142
2.255,-0.128
2.260,-0.095
2.265,-0.061
2.270,-0.036
2.275,-0.025
2.280,-0.017
2.285,0.001
2.290,0.015
2.295,0.025
2.300,0.033
2.305,0.035
2.310,0.034
2.315,0.030
2.320,0.026
2.325,0.028
2.330,0.032
2.335,0.034
2.340,0.031
2.345,0.027
2.350,0.026
2.355,0.023
2.360,0.018
2.365,0.010
2.370,0.002
2.375,-0.001
2.380,-0.002
2.385,-0.002
2.390,-0.004
2.395,-0.008
2.400,-0.016
2.405,-0.022
2.410,-0.023
2.415,-0.014
2.420,0.011
2.425,0.026
2.430,0.006
2.435,-0.079
2.440,-0.267
2.445,-0.551
2.450,-0.785
2.455,-0.685
2.460,-0.304
2.465,-0.026
2.470,0.063
2.475,0.141
2.480,0.278
2.485,0.317
2.490,0.169
2.495,0.019
2.500,-0.015
2.505,-0.014
2.510,-0.036
2.515,-0.038
2.520,-0.013
2.525,-0.017
2.530,-0.031
2.535,-0.016
2.540,-0.013
2.545,-0.029
2.550,-0.025
2.555,-0.017
2.560,-0.028
2.565,-0.033
2.570,-0.028
2.575,-0.026
2.580,-0.030
2.585,-0.038
2.590,-0.045
2.595,-0.047
2.600,-0.048
2.605,-0.050
2.610,-0.052
2.615,-0.054
2.620,-0.057
2.625,-0.062
2.630,-0.065
2.635,-0.066
2.640,-0.070
2.645,-0.078
2.650,-0.082
2.655,-0.084
2.660,-0.090
2.665,-0.093
2.670,-0.096
2.675,-0.104
2.680,-0.115
2.685,-0.125
2.690,-0.129
2.695,-0.127
2.700,-0.124
2.705,-0.123
2.710,-0.123
2.715,-0.124
2.720,-0.118
2.725,-0.111
2.730,-0.100
2.735,-0.082
2.740,-0.059
2.745,-0.026
2.750,0.015
2.755,0.053
2.760,0.089
2.765,0.127
2.770,0.167
2.775,0.202
2.780,0.230
2.785,0.253
2.790,0.272
2.795,0.288
2.800,0.299
2.805,0.306
2.810,0.307
2.815,0.303
2.820,0.296
2.825,0.290
2.830,0.281
2.835,0.271
2.840,0.264
2.845,0.252
2.850,0.237
2.855,0.226
2.860,0.212
2.865,0.198
2.870,0.184
2.875,0.172
2.880,0.165
2.885,0.159
2.890,0.147
2.895,0.133
2.900,0.121
2.905,0.110
2.910,0.101
2.915,0.091
2.920,0.081
2.925,0.077
2.930,0.069
2.935,0.058
2.940,0.050
2.945,0.048
2.950,0.044
2.955,0.034
2.960,0.028
2.965,0.028
2.970,0.025
2.975,0.018
2.980,0.012
2.985,0.007
2.990,0.006
2.995,0.006
3.000,0.003
3.005,-0.004
3.010,-0.008
3.015,-0.014
3.020,-0.020
3.025,-0.022
3.030,-0.020
3.035,-0.014
3.040,-0.014
3.045,-0.016
3.050,-0.020
3.055,-0.026
3.060,-0.032
3.065,-0.036
3.070,-0.033
3.075,-0.028
3.080,-0.032
3.085,-0.041
3.090,-0.049
3.095,-0.051
3.100,-0.045
3.105,-0.035
3.110,-0.030
3.115,-0.034
3.120,-0.040
3.125,-0.046
3.130,-0.050
3.135,-0.053
3.140,-0.054
3.145,-0.057
3.150,-0.067
3.155,-0.082
3.160,-0.102
3.165,-0.116
3.170,-0.120
3.175,-0.118
3.180,-0.117
3.185,-0.120
3.190,-0.128
3.195,-0.134
3.200,-0.136
3.205,-0.147
3.210,-0.150
3.215,-0.128
3.220,-0.089
3.225,-0.057
3.230,-0.038
3.235,-0.026
3.240,-0.012
3.245,0.007
3.250,0.016
3.255,0.022
3.260,0.029
3.265,0.030
3.270,0.033
3.275,0.034
3.280,0.033
3.285,0.031
3.290,0.029
3.295,0.028
3.300,0.027
3.305,0.024
3.310,0.019
3.315,0.014
3.320,0.010
3.325,0.008
3.330,0.003
3.335,0.000
3.340,-0.003
3.345,-0.008
3.350,-0.013
3.355,-0.015
3.360,-0.015
3.365,-0.014
3.370,-0.010
3.375,0.009
3.380,0.038
3.385,0.036
3.390,-0.029
3.395,-0.167
3.400,-0.398
3.405,-0.702
3.410,-0.887
3.415,-0.685
3.420,-0.273
3.425,-0.031
3.430,0.062
3.435,0.181
3.440,0.328
3.445,0.329
3.450,0.156
3.455,0.028
3.460,0.010
3.465,-0.005
3.470,-0.032
3.475,-0.020
3.480,0.005
3.485,-0.010
3.490,-0.022
3.495,-0.008
3.500,-0.009
3.505,-0.018
3.510,-0.014
3.515,-0.015
3.520,-0.024
3.525,-0.024
3.530,-0.020
3.535,-0.027
3.540,-0.034
3.545,-0.033
3.550,-0.035
3.555,-0.039
3.560,-0.044
3.565,-0.052
3.570,-0.056
3.575,-0.058
3.580,-0.059
3.585,-0.062
3.590,-0.066
3.595,-0.070
3.600,-0.075
3.605,-0.078
3.610,-0.083
3.615,-0.087
3.620,-0.090
3.625,-0.094
3.630,-0.101
3.635,-0.111
3.640,-0.115
3.645,-0.114
3.650,-0.115
3.655,-0.118
3.660,-0.121
3.665,-0.120
3.670,-0.118
3.675,-0.117
3.680,-0.112
3.685,-0.101
3.690,-0.086
3.695,-0.064
3.700,-0.040
3.705,-0.009
3.710,0.033
3.715,0.072
3.720,0.106
3.725,0.140
3.730,0.177
3.735,0.212
3.740,0.240
3.745,0.261
3.750,0.279
3.755,0.294
3.760,0.304
3.765,0.307
3.770,0.304
3.775,0.299
3.780,0.292
3.785,0.285
3.790,0.276
3.795,0.267
3.800,0.257
3.805,0.244
3.810,0.232
3.815,0.219
3.820,0.205
3.825,0.192
3.830,0.179
3.835,0.167
3.840,0.156
3.845,0.145
3.850,0.134
3.855,0.123
3.860,0.113
3.865,0.103
3.870,0.095
3.875,0.086
3.880,0.076
3.885,0.071
3.890,0.066
3.895,0.058
3.900,0.049
3.905,0.042
3.910,0.037
3.915,0.034
3.920,0.032
3.925,0.026
3.930,0.021
3.935,0.017
3.940,0.011
3.945,0.008
3.950,0.004
3.955,-0.001
3.960,-0.003
3.965,-0.004
3.970,-0.005
3.975,-0.007
3.980,-0.013
3.985,-0.016
3.990,-0.015
3.995,-0.017
4.000,-0.020
4.005,-0.024
4.010,-0.026
4.015,-0.028
4.020,-0.030
4.025,-0.033
4.030,-0.035
4.035,-0.035
4.040,-0.035
4.045,-0.035
4.050,-0.036
4.055,-0.038
4.060,-0.040
4.065,-0.041
4.070,-0.045
4.075,-0.056
4.080,-0.071
4.085,-0.092
4.090,-0.111
4.095,-0.118
4.100,-0.121
4.105,-0.120
4.110,-0.120
4.115,-0.129
4.120,-0.136
4.125,-0.135
4.130,-0.138
4.135,-0.140
4.140,-0.127
4.145,-0.095
4.150,-0.063
4.155,-0.042
4.160,-0.032
4.165,-0.020
4.170,0.002
4.175,0.017
4.180,0.024
4.185,0.031
4.190,0.030
4.195,0.028
4.200,0.030
4.205,0.032
4.210,0.031
4.215,0.027
4.220,0.025
4.225,0.022
4.230,0.022
4.235,0.017
4.240,0.008
4.245,0.006
4.250,0.003
4.255,-0.002
4.260,-0.007
4.265,-0.012
4.270,-0.015
4.275,-0.018
4.280,-0.021
4.285,-0.024
4.290,-0.025
4.295,-0.023
4.300,-0.018
4.305,-0.009
4.310,0.003
4.315,-0.008
4.320,-0.066
4.325,-0.206
4.330,-0.460
4.335,-0.751
4.340,-0.808
4.345,-0.493
4.350,-0.105
4.355,0.082
4.360,0.145
4.365,0.230
4.370,0.285
4.375,0.193
4.380,0.038
4.385,-0.030
4.390,-0.019
4.395,-0.026
4.400,-0.040
4.405,-0.018
4.410,-0.009
4.415,-0.026
4.420,-0.023
4.425,-0.014
4.430,-0.024
4.435,-0.027
4.440,-0.019
4.445,-0.022
4.450,-0.030
4.455,-0.028
4.460,-0.028
4.465,-0.033
4.470,-0.035
4.475,-0.037
4.480,-0.041
4.485,-0.043
4.490,-0.046
4.495,-0.052
4.500,-0.057
4.505,-0.059
4.510,-0.063
4.515,-0.068
4.520,-0.071
4.525,-0.073
4.530,-0.078
4.535,-0.084
4.540,-0.089
4.545,-0.094
4.550,-0.102
4.555,-0.109
4.560,-0.115
4.565,-0.121
4.570,-0.125
4.575,-0.128
4.580,-0.132
4.585,-0.135
4.590,-0.137
4.595,-0.135
4.600,-0.131
4.605,-0.127
4.610,-0.120
4.615,-0.107
4.620,-0.088
4.625,-0.063
4.630,-0.031
4.635,0.005
4.640,0.043
4.645,0.086
4.650,0.128
4.655,0.170
4.660,0.208
4.665,0.239
4.670,0.266
4.675,0.287
4.680,0.302
4.685,0.313
4.690,0.318
4.695,0.318
4.700,0.317
4.705,0.313
4.710,0.303
4.715,0.292
4.720,0.281
4.725,0.270
4.730,0.259
4.735,0.247
4.740,0.236
4.745,0.222
4.750,0.207
4.755,0.196
4.760,0.186
4.765,0.174
4.770,0.161
4.775,0.149
4.780,0.139
4.785,0.128
4.790,0.115
4.795,0.105
4.800,0.097
4.805,0.089
4.810,0.080
4.815,0.072
4.820,0.064
4.825,0.057
4.830,0.050
4.835,0.043
4.840,0.035
4.845,0.028
4.850,0.023
4.855,0.019
4.860,0.017
4.865,0.011
4.870,0.004
4.875,0.001
4.880,-0.002
4.885,-0.003
4.890,-0.005
4.895,-0.008
4.900,-0.011
4.905,-0.013
4.910,-0.016
4.915,-0.018
4.920,-0.021
4.925,-0.024
4.930,-0.026
4.935,-0.029
4.940,-0.030
4.945,-0.031
4.950,-0.033
4.955,-0.036
4.960,-0.039
4.965,-0.040
4.970,-0.040
4.975,-0.041
4.980,-0.043
4.985,-0.043
4.990,-0.042
4.995,-0.043
5.000,-0.046
5.005,-0.052
5.010,-0.056
5.015,-0.063
5.020,-0.075
5.025,-0.096
5.030,-0.118
5.035,-0.127
5.040,-0.126
5.045,-0.126
5.050,-0.126
5.055,-0.132
5.060,-0.139
5.065,-0.139
5.070,-0.144
5.075,-0.146
5.080,-0.126
5.085,-0.090
5.090,-0.060
5.095,-0.039
5.100,-0.029
5.105,-0.016
5.110,0.004
5.115,0.017
5.120,0.022
5.125,0.027
5.130,0.026
5.135,0.026
5.140,0.030
5.145,0.030
5.150,0.027
5.155,0.026
5.160,0.027
5.165,0.023
5.170,0.018
5.175,0.013
5.180,0.008
5.185,0.005
5.190,0.001
5.195,-0.002
5.200,-0.006
5.205,-0.009
5.210,-0.013
5.215,-0.018
5.220,-0.021
5.225,-0.022
5.230,-0.020
5.235,-0.020
5.240,-0.017
5.245,0.000
5.250,0.007
5.255,-0.022
5.260,-0.115
5.265,-0.314
5.270,-0.598
5.275,-0.791
5.280,-0.629
5.285,-0.228
5.290,0.039
5.295,0.121
5.300,0.184
5.305,0.273
5.310,0.254
5.315,0.102
5.320,-0.019
5.325,-0.036
5.330,-0.034
5.335,-0.052
5.340,-0.042
5.345,-0.016
5.350,-0.026
5.355,-0.039
5.360,-0.025
5.365,-0.025
5.370,-0.035
5.375,-0.030
5.380,-0.027
5.385,-0.035
5.390,-0.036
5.395,-0.034
5.400,-0.038
5.405,-0.042
5.410,-0.042
5.415,-0.045
5.420,-0.049
5.425,-0.050
5.430,-0.052
5.435,-0.055
5.440,-0.060
5.445,-0.059
5.450,-0.061
5.455,-0.069
5.460,-0.074
5.465,-0.078
5.470,-0.083
5.475,-0.086
5.480,-0.091
5.485,-0.098
5.490,-0.103
5.495,-0.107
5.500,-0.114
5.505,-0.120
5.510,-0.127
5.515,-0.132
5.520,-0.133
5.525,-0.131
5.530,-0.130
5.535,-0.129
5.540,-0.126
5.545,-0.120
5.550,-0.112
5.555,-0.099
5.560,-0.080
5.565,-0.052
5.570,-0.017
5.575,0.022
5.580,0.063
5.585,0.106
5.590,0.145
5.595,0.181
5.600,0.216
5.605,0.248
5.610,0.272
5.615,0.291
5.620,0.302
5.625,0.308
5.630,0.313
5.635,0.311
5.640,0.308
5.645,0.303
5.650,0.296
5.655,0.288
5.660,0.276
5.665,0.264
5.670,0.254
5.675,0.244
5.680,0.228
5.685,0.212
5.690,0.201
5.695,0.189
5.700,0.179
5.705,0.167
5.710,0.153
5.715,0.142
5.720,0.133
5.725,0.123
5.730,0.113
5.735,0.105
5.740,0.096
5.745,0.087
5.750,0.079
5.755,0.071
5.760,0.063
5.765,0.058
5.770,0.055
5.775,0.050
5.780,0.042
5.785,0.029
5.790,0.017
5.795,0.013
5.800,0.014
5.805,0.011
5.810,0.007
5.815,0.003
5.820,-0.002
5.825,-0.005
5.830,-0.006
5.835,-0.009
5.840,-0.010
5.845,-0.014
5.850,-0.017
5.855,-0.018
5.860,-0.020
5.865,-0.023
5.870,-0.024
5.875,-0.025
5.880,-0.027
5.885,-0.026
5.890,-0.029
5.895,-0.034
5.900,-0.038
5.905,-0.038
5.910,-0.039
5.915,-0.039
5.920,-0.040
5.925,-0.043
5.930,-0.045
5.935,-0.047
5.940,-0.048
5.945,-0.050
5.950,-0.058
5.955,-0.070
5.960,-0.088
5.965,-0.111
5.970,-0.125
5.975,-0.128
5.980,-0.126
5.985,-0.124
5.990,-0.130
5.995,-0.138
6.000,-0.139
6.005,-0.139
6.010,-0.144
6.015,-0.135
6.020,-0.104
6.025,-0.070
6.030,-0.044
6.035,-0.030
6.040,-0.020
6.045,-0.001
6.050,0.014
6.055,0.020
6.060,0.029
6.065,0.034
6.070,0.031
6.075,0.030
6.080,0.028
6.085,0.028
6.090,0.028
6.095,0.026
6.100,0.023
6.105,0.023
6.110,0.021
6.115,0.012
6.120,0.004
6.125,0.000
6.130,-0.003
6.135,-0.005
6.140,-0.009
6.145,-0.015
6.150,-0.016
6.155,-0.017
6.160,-0.021
6.165,-0.025
6.170,-0.024
6.175,-0.019
6.180,-0.003
6.185,0.012
6.190,-0.001
6.195,-0.068
6.200,-0.222
6.205,-0.481
6.210,-0.742
6.215,-0.724
6.220,-0.375
6.225,-0.044
6.230,0.079
6.235,0.127
6.240,0.234
6.245,0.293
6.250,0.179
6.255,0.023
6.260,-0.034
6.265,-0.030
6.270,-0.048
6.275,-0.058
6.280,-0.029
6.285,-0.022
6.290,-0.039
6.295,-0.033
6.300,-0.025
6.305,-0.033
6.310,-0.034
6.315,-0.027
6.320,-0.033
6.325,-0.036
6.330,-0.030
6.335,-0.033
6.340,-0.044
6.345,-0.050
6.350,-0.051
6.355,-0.052
6.360,-0.053
6.365,-0.056
6.370,-0.061
6.375,-0.064
6.380,-0.066
6.385,-0.069
6.390,-0.071
6.395,-0.074
6.400,-0.077
6.405,-0.081
6.410,-0.086
6.415,-0.089
6.420,-0.092
6.425,-0.101
6.430,-0.108
6.435,-0.112
6.440,-0.118
6.445,-0.122
6.450,-0.125
6.455,-0.129
6.460,-0.128
6.465,-0.129
6.470,-0.132
6.475,-0.130
6.480,-0.122
6.485,-0.113
6.490,-0.102
6.495,-0.083
6.500,-0.058
6.505,-0.030
6.510,0.002
6.515,0.040
6.520,0.083
6.525,0.127
6.530,0.167
6.535,0.201
6.540,0.232
6.545,0.258
6.550,0.277
6.555,0.293
6.560,0.304
6.565,0.309
6.570,0.308
6.575,0.304
6.580,0.301
6.585,0.298
6.590,0.290
6.595,0.277
6.600,0.264
6.605,0.255
6.610,0.246
6.615,0.234
6.620,0.218
6.625,0.200
6.630,0.188
6.635,0.179
6.640,0.169
6.645,0.159
6.650,0.149
6.655,0.138
6.660,0.128
6.665,0.118
6.670,0.109
6.675,0.100
6.680,0.090
6.685,0.081
6.690,0.073
6.695,0.064
6.700,0.056
6.705,0.049
6.710,0.044
6.715,0.038
6.720,0.032
6.725,0.030
6.730,0.027
6.735,0.023
6.740,0.018
6.745,0.012
6.750,0.011
6.755,0.009
6.760,0.002
6.765,-0.003
6.770,-0.005
6.775,-0.006
6.780,-0.007
6.785,-0.010
6.790,-0.014
6.795,-0.018
6.800,-0.022
6.805,-0.023
6.810,-0.022
6.815,-0.023
6.820,-0.025
6.825,-0.026
6.830,-0.026
6.835,-0.028
6.840,-0.034
6.845,-0.035
6.850,-0.033
6.855,-0.035
6.860,-0.039
6.865,-0.043
6.870,-0.045
6.875,-0.050
6.880,-0.060
6.885,-0.066
6.890,-0.076
6.895,-0.100
6.900,-0.120
6.905,-0.123
6.910,-0.119
6.915,-0.116
6.920,-0.124
6.925,-0.134
6.930,-0.135
6.935,-0.140
6.940,-0.149
6.945,-0.142
6.950,-0.110
6.955,-0.076
6.960,-0.048
6.965,-0.030
6.970,-0.019
6.975,-0.002
6.980,0.014
6.985,0.021
6.990,0.029
6.995,0.033
7.000,0.030
7.005,0.029
7.010,0.030
7.015,0.031
7.020,0.034
7.025,0.031
7.030,0.022
7.035,0.014
7.040,0.012
7.045,0.013
7.050,0.009
7.055,0.005
7.060,0.000
7.065,-0.005
7.070,-0.008
7.075,-0.013
7.080,-0.015
7.085,-0.015
7.090,-0.017
7.095,-0.019
7.100,-0.018
7.105,-0.012
7.110,0.008
7.115,0.026
7.120,0.014
7.125,-0.056
7.130,-0.208
7.135,-0.460
7.140,-0.749
7.145,-0.802
7.150,-0.486
7.155,-0.134
7.160,0.007
7.165,0.072
7.170,0.212
7.175,0.333
7.180,0.259
7.185,0.082
7.190,-0.001
7.195,-0.009
7.200,-0.032
7.205,-0.048
7.210,-0.022
7.215,-0.012
7.220,-0.034
7.225,-0.032
7.230,-0.019
7.235,-0.030
7.240,-0.039
7.245,-0.030
7.250,-0.031
7.255,-0.039
7.260,-0.034
7.265,-0.030
7.270,-0.035
7.275,-0.036
7.280,-0.038
7.285,-0.047
7.290,-0.055
7.295,-0.054
7.300,-0.053
7.305,-0.056
7.310,-0.060
7.315,-0.067
7.320,-0.074
7.325,-0.078
7.330,-0.081
7.335,-0.080
7.340,-0.078
7.345,-0.079
7.350,-0.084
7.355,-0.093
7.360,-0.100
7.365,-0.105
7.370,-0.111
7.375,-0.116
7.380,-0.115
7.385,-0.114
7.390,-0.120
7.395,-0.129
7.400,-0.127
7.405,-0.119
7.410,-0.114
7.415,-0.109
7.420,-0.097
7.425,-0.078
7.430,-0.056
7.435,-0.032
7.440,-0.002
7.445,0.037
7.450,0.081
7.455,0.124
7.460,0.160
7.465,0.195
7.470,0.226
7.475,0.250
7.480,0.270
7.485,0.283
7.490,0.292
7.495,0.301
7.500,0.303
7.505,0.304
7.510,0.300
7.515,0.288
7.520,0.277
7.525,0.269
7.530,0.258
7.535,0.247
7.540,0.237
7.545,0.227
7.550,0.215
7.555,0.200
7.560,0.188
7.565,0.182
7.570,0.168
7.575,0.150
7.580,0.140
7.585,0.132
7.590,0.125
7.595,0.119
7.600,0.104
7.605,0.090
7.610,0.082
7.615,0.075
7.620,0.070
7.625,0.061
7.630,0.048
7.635,0.046
7.640,0.049
7.645,0.046
7.650,0.037
7.655,0.032
7.660,0.026
7.665,0.017
7.670,0.012
7.675,0.009
7.680,0.008
7.685,0.005
7.690,-0.001
7.695,-0.001
7.700,0.000
7.705,-0.003
7.710,-0.010
7.715,-0.019
7.720,-0.023
7.725,-0.022
7.730,-0.017
7.735,-0.015
7.740,-0.015
7.745,-0.017
7.750,-0.023
7.755,-0.031
7.760,-0.037
7.765,-0.038
7.770,-0.035
7.775,-0.034
7.780,-0.036
7.785,-0.040
7.790,-0.049
7.795,-0.065
7.800,-0.083
7.805,-0.100
7.810,-0.109
7.815,-0.113
7.820,-0.116
7.825,-0.120
7.830,-0.127
7.835,-0.134
7.840,-0.137
7.845,-0.141
7.850,-0.150
7.855,-0.142
7.860,-0.105
7.865,-0.070
7.870,-0.047
7.875,-0.031
7.880,-0.022
7.885,-0.004
7.890,0.011
7.895,0.019
7.900,0.029
7.905,0.030
7.910,0.025
7.915,0.030
7.920,0.033
7.925,0.028
7.930,0.024
7.935,0.018
7.940,0.016
7.945,0.015
7.950,0.011
7.955,0.008
7.960,0.006
7.965,0.002
7.970,-0.002
7.975,-0.006
7.980,-0.010
7.985,-0.016
7.990,-0.022
7.995,-0.024
8.000,-0.023
8.005,-0.023
8.010,-0.023
8.015,-0.010
8.020,0.017
8.025,0.028
8.030,-0.006
8.035,-0.111
8.040,-0.308
8.045,-0.597
8.050,-0.868
8.055,-0.821
8.060,-0.435
8.065,-0.104
8.070,0.025
8.075,0.112
8.080,0.257
8.085,0.343
8.090,0.226
8.095,0.061
8.100,0.006
8.105,0.001
8.110,-0.021
8.115,-0.032
8.120,-0.007
8.125,-0.006
8.130,-0.025
8.135,-0.017
8.140,-0.012
8.145,-0.026
8.150,-0.026
8.155,-0.018
8.160,-0.021
8.165,-0.027
8.170,-0.027
8.175,-0.036
8.180,-0.044
8.185,-0.042
8.190,-0.043
8.195,-0.049
8.200,-0.050
8.205,-0.050
8.210,-0.056
8.215,-0.062
8.220,-0.064
8.225,-0.065
8.230,-0.066
8.235,-0.069
8.240,-0.074
8.245,-0.078
8.250,-0.083
8.255,-0.087
8.260,-0.095
8.265,-0.103
8.270,-0.107
8.275,-0.110
8.280,-0.110
8.285,-0.115
8.290,-0.122
8.295,-0.124
8.300,-0.125
8.305,-0.121
8.310,-0.118
8.315,-0.119
8.320,-0.117
8.325,-0.109
8.330,-0.095
8.335,-0.074
8.340,-0.049
8.345,-0.018
8.350,0.020
8.355,0.064
8.360,0.106
8.365,0.144
8.370,0.180
8.375,0.212
8.380,0.236
8.385,0.258
8.390,0.277
8.395,0.292
8.400,0.302
8.405,0.306
8.410,0.308
8.415,0.305
8.420,0.297
8.425,0.290
8.430,0.282
8.435,0.272
8.440,0.258
8.445,0.244
8.450,0.231
8.455,0.219
8.460,0.207
8.465,0.196
8.470,0.184
8.475,0.174
8.480,0.163
8.485,0.152
8.490,0.141
8.495,0.127
8.500,0.114
8.505,0.105
8.510,0.096
8.515,0.090
8.520,0.086
8.525,0.079
8.530,0.066
8.535,0.054
8.540,0.047
8.545,0.047
8.550,0.046
8.555,0.038
8.560,0.030
8.565,0.026
8.570,0.020
8.575,0.015
8.580,0.012
8.585,0.011
8.590,0.010
8.595,0.004
8.600,-0.001
8.605,-0.005
8.610,-0.009
8.615,-0.008
8.620,-0.010
8.625,-0.016
8.630,-0.015
8.635,-0.015
8.640,-0.021
8.645,-0.027
8.650,-0.029
8.655,-0.030
8.660,-0.029
8.665,-0.030
8.670,-0.030
8.675,-0.029
8.680,-0.036
8.685,-0.047
8.690,-0.063
8.695,-0.084
8.700,-0.102
8.705,-0.110
8.710,-0.112
8.715,-0.114
8.720,-0.115
8.725,-0.121
8.730,-0.131
8.735,-0.135
8.740,-0.142
8.745,-0.145
8.750,-0.126
8.755,-0.092
8.760,-0.063
8.765,-0.046
8.770,-0.035
8.775,-0.021
8.780,0.002
8.785,0.015
8.790,0.020
8.795,0.026
8.800,0.026
8.805,0.025
8.810,0.027
8.815,0.028
8.820,0.029
8.825,0.027
8.830,0.020
8.835,0.013
8.840,0.010
8.845,0.012
8.850,0.011
8.855,0.004
8.860,-0.002
8.865,-0.006
8.870,-0.010
8.875,-0.014
8.880,-0.020
8.885,-0.026
8.890,-0.029
8.895,-0.029
8.900,-0.030
8.905,-0.030
8.910,-0.023
8.915,-0.005
8.920,0.007
8.925,-0.014
8.930,-0.102
8.935,-0.288
8.940,-0.576
8.945,-0.840
8.950,-0.786
8.955,-0.405
8.960,-0.072
8.965,0.058
8.970,0.130
8.975,0.243
8.980,0.284
8.985,0.161
8.990,0.022
8.995,-0.018
9.000,-0.016
9.005,-0.033
9.010,-0.036
9.015,-0.008
9.020,-0.008
9.025,-0.028
9.030,-0.018
9.035,-0.011
9.040,-0.025
9.045,-0.026
9.050,-0.020
9.055,-0.026
9.060,-0.028
9.065,-0.024
9.070,-0.030
9.075,-0.039
9.080,-0.037
9.085,-0.036
9.090,-0.044
9.095,-0.048
9.100,-0.050
9.105,-0.054
9.110,-0.057
9.115,-0.060
9.120,-0.064
9.125,-0.069
9.130,-0.074
9.135,-0.081
9.140,-0.087
9.145,-0.087
9.150,-0.092
9.155,-0.101
9.160,-0.107
9.165,-0.112
9.170,-0.115
9.175,-0.120
9.180,-0.124
9.185,-0.125
9.190,-0.130
9.195,-0.134
9.200,-0.134
9.205,-0.132
9.210,-0.128
9.215,-0.122
9.220,-0.111
9.225,-0.098
9.230,-0.081
9.235,-0.051
9.240,-0.014
9.245,0.025
9.250,0.065
9.255,0.106
9.260,0.149
9.265,0.186
9.270,0.218
9.275,0.248
9.280,0.271
9.285,0.287
9.290,0.301
9.295,0.312
9.300,0.318
9.305,0.315
9.310,0.307
9.315,0.302
9.320,0.292
9.325,0.282
9.330,0.274
9.335,0.261
9.340,0.247
9.345,0.238
9.350,0.226
9.355,0.213
9.360,0.197
9.365,0.183
9.370,0.173
9.375,0.164
9.380,0.152
9.385,0.142
9.390,0.133
9.395,0.120
9.400,0.108
9.405,0.100
9.410,0.092
9.415,0.082
9.420,0.073
9.425,0.064
9.430,0.059
9.435,0.054
9.440,0.048
9.445,0.039
9.450,0.026
9.455,0.019
9.460,0.018
9.465,0.015
9.470,0.010
9.475,0.008
9.480,0.005
9.485,0.002
9.490,-0.002
9.495,-0.008
9.500,-0.010
9.505,-0.013
9.510,-0.015
9.515,-0.014
9.520,-0.016
9.525,-0.018
9.530,-0.021
9.535,-0.023
9.540,-0.027
9.545,-0.031
9.550,-0.031
9.555,-0.030
9.560,-0.031
9.565,-0.035
9.570,-0.040
9.575,-0.044
9.580,-0.051
9.585,-0.064
9.590,-0.087
9.595,-0.105
9.600,-0.113
9.605,-0.116
9.610,-0.117
9.615,-0.118
9.620,-0.120
9.625,-0.128
9.630,-0.135
9.635,-0.142
9.640,-0.145
9.645,-0.123
9.650,-0.088
9.655,-0.056
9.660,-0.036
9.665,-0.030
9.670,-0.019
9.675,0.003
9.680,0.015
9.685,0.019
9.690,0.028
9.695,0.029
9.700,0.027
9.705,0.029
9.710,0.026
9.715,0.023
9.720,0.023
9.725,0.023
9.730,0.019
9.735,0.013
9.740,0.010
9.745,0.007
9.750,0.006
9.755,0.003
9.760,-0.008
9.765,-0.015
9.770,-0.017
9.775,-0.019
9.780,-0.022
9.785,-0.026
9.790,-0.029
9.795,-0.030
9.800,-0.030
9.805,-0.026
9.810,-0.014
9.815,-0.004
9.820,-0.017
9.825,-0.078
9.830,-0.229
9.835,-0.494
9.840,-0.772
9.845,-0.776
9.850,-0.426
9.855,-0.063
9.860,0.084
9.865,0.134
9.870,0.224
9.875,0.268
9.880,0.163
9.885,0.017
9.890,-0.038
9.895,-0.028
9.900,-0.041
9.905,-0.051
9.910,-0.023
9.915,-0.019
9.920,-0.040
9.925,-0.033
9.930,-0.019
9.935,-0.026
9.940,-0.030
9.945,-0.024
9.950,-0.030
9.955,-0.039
9.960,-0.036
9.965,-0.035
9.970,-0.039
9.975,-0.043
9.980,-0.046
9.985,-0.050
9.990,-0.051
9.995,-0.048
10.000,-0.055
10.005,-0.062
10.010,-0.063
10.015,-0.065
10.020,-0.068
10.025,-0.070
10.030,-0.078
10.035,-0.084
10.040,-0.088
10.045,-0.091
10.050,-0.097
10.055,-0.105
10.060,-0.110
10.065,-0.116
10.070,-0.126
10.075,-0.133
10.080,-0.135
10.085,-0.135
10.090,-0.136
10.095,-0.139
10.100,-0.138
10.105,-0.132
10.110,-0.127
10.115,-0.118
10.120,-0.103
10.125,-0.082
10.130,-0.053
10.135,-0.019
10.140,0.014
10.145,0.053
10.150,0.098
10.155,0.143
10.160,0.183
10.165,0.215
10.170,0.245
10.175,0.271
10.180,0.288
10.185,0.301
10.190,0.312
10.195,0.317
10.200,0.314
10.205,0.309
10.210,0.305
10.215,0.299
10.220,0.289
10.225,0.274
10.230,0.260
10.235,0.252
10.240,0.244
10.245,0.231
10.250,0.215
10.255,0.199
10.260,0.187
10.265,0.179
10.270,0.170
10.275,0.157
10.280,0.145
10.285,0.135
10.290,0.124
10.295,0.114
10.300,0.104
10.305,0.095
10.310,0.086
10.315,0.077
10.320,0.069
10.325,0.063
10.330,0.059
10.335,0.051
10.340,0.040
10.345,0.031
10.350,0.027
10.355,0.024
10.360,0.018
10.365,0.011
10.370,0.006
10.375,0.003
10.380,0.003
10.385,-0.002
10.390,-0.006
10.395,-0.007
10.400,-0.009
10.405,-0.012
10.410,-0.015
10.415,-0.016
10.420,-0.018
10.425,-0.021
10.430,-0.022
10.435,-0.024
10.440,-0.024
10.445,-0.024
10.450,-0.030
10.455,-0.033
10.460,-0.035
10.465,-0.039
10.470,-0.036
10.475,-0.036
10.480,-0.043
10.485,-0.052
10.490,-0.071
10.495,-0.095
10.500,-0.112
10.505,-0.118
10.510,-0.119
10.515,-0.120
10.520,-0.123
10.525,-0.130
10.530,-0.133
10.535,-0.135
10.540,-0.140
10.545,-0.137
10.550,-0.113
10.555,-0.080
10.560,-0.056
10.565,-0.035
10.570,-0.022
10.575,-0.011
10.580,0.007
10.585,0.015
10.590,0.022
10.595,0.035
10.600,0.033
10.605,0.025
10.610,0.025
10.615,0.024
10.620,0.024
10.625,0.026
10.630,0.023
10.635,0.020
10.640,0.018
10.645,0.008
10.650,-0.001
10.655,-0.002
10.660,-0.006
10.665,-0.011
10.670,-0.015
10.675,-0.019
10.680,-0.019
10.685,-0.021
10.690,-0.025
10.695,-0.031
10.700,-0.035
10.705,-0.031
10.710,-0.025
10.715,-0.016
10.720,-0.004
10.725,-0.016
10.730,-0.077
10.735,-0.224
10.740,-0.485
10.745,-0.756
10.750,-0.742
10.755,-0.382
10.760,-0.033
10.765,0.096
10.770,0.134
10.775,0.226
10.780,0.273
10.785,0.159
10.790,0.008
10.795,-0.044
10.800,-0.033
10.805,-0.050
10.810,-0.060
10.815,-0.030
10.820,-0.027
10.825,-0.045
10.830,-0.038
10.835,-0.031
10.840,-0.039
10.845,-0.039
10.850,-0.034
10.855,-0.038
10.860,-0.041
10.865,-0.040
10.870,-0.046
10.875,-0.052
10.880,-0.049
10.885,-0.045
10.890,-0.047
10.895,-0.051
10.900,-0.052
10.905,-0.056
10.910,-0.063
10.915,-0.069
10.920,-0.071
10.925,-0.074
10.930,-0.078
10.935,-0.085
10.940,-0.091
10.945,-0.093
10.950,-0.094
10.955,-0.099
10.960,-0.108
10.965,-0.117
10.970,-0.122
10.975,-0.124
10.980,-0.125
10.985,-0.127
10.990,-0.131
10.995,-0.133
11.000,-0.134
11.005,-0.136
11.010,-0.136
11.015,-0.129
11.020,-0.119
11.025,-0.106
11.030,-0.086
11.035,-0.059
11.040,-0.024
11.045,0.019
11.050,0.063
11.055,0.101
11.060,0.139
11.065,0.177
11.070,0.216
11.075,0.249
11.080,0.272
11.085,0.292
11.090,0.306
11.095,0.312
11.100,0.314
11.105,0.312
11.110,0.309
11.115,0.300
11.120,0.292
11.125,0.286
11.130,0.278
11.135,0.270
11.140,0.261
11.145,0.245
11.150,0.228
11.155,0.216
11.160,0.206
11.165,0.196
11.170,0.184
11.175,0.171
11.180,0.159
11.185,0.144
11.190,0.131
11.195,0.122
11.200,0.114
11.205,0.107
11.210,0.096
11.215,0.087
11.220,0.081
11.225,0.070
11.230,0.061
11.235,0.056
11.240,0.050
11.245,0.046
11.250,0.039
11.255,0.029
11.260,0.025
11.265,0.023
11.270,0.020
11.275,0.019
11.280,0.015
11.285,0.008
11.290,0.003
11.295,0.000
11.300,-0.001
11.305,-0.008
11.310,-0.014
11.315,-0.014
11.320,-0.015
11.325,-0.019
11.330,-0.022
11.335,-0.025
11.340,-0.026
11.345,-0.027
11.350,-0.029
11.355,-0.027
11.360,-0.025
11.365,-0.028
11.370,-0.031
11.375,-0.031
11.380,-0.034
11.385,-0.041
11.390,-0.042
11.395,-0.044
11.400,-0.054
11.405,-0.069
11.410,-0.096
11.415,-0.117
11.420,-0.121
11.425,-0.121
11.430,-0.118
11.435,-0.118
11.440,-0.130
11.445,-0.137
11.450,-0.136
11.455,-0.146
11.460,-0.150
11.465,-0.125
11.470,-0.084
11.475,-0.051
11.480,-0.034
11.485,-0.027
11.490,-0.009
11.495,0.015
11.500,0.017
11.505,0.018
11.510,0.027
11.515,0.029
11.520,0.028
11.525,0.025
11.530,0.024
11.535,0.028
11.540,0.027
11.545,0.023
11.550,0.019
11.555,0.015
11.560,0.008
11.565,0.003
11.570,0.002
11.575,0.000
11.580,-0.005
11.585,-0.010
11.590,-0.013
11.595,-0.017
11.600,-0.023
11.605,-0.026
11.610,-0.024
11.615,-0.022
11.620,-0.020
11.625,-0.011
11.630,0.011
11.635,0.030
11.640,0.010
11.645,-0.071
11.650,-0.234
11.655,-0.500
11.660,-0.790
11.665,-0.814
11.670,-0.473
11.675,-0.116
11.680,0.028
11.685,0.090
11.690,0.222
11.695,0.331
11.700,0.245
11.705,0.076
11.710,0.003
11.715,-0.003
11.720,-0.028
11.725,-0.045
11.730,-0.020
11.735,-0.009
11.740,-0.029
11.745,-0.028
11.750,-0.016
11.755,-0.026
11.760,-0.029
11.765,-0.020
11.770,-0.023
11.775,-0.031
11.780,-0.028
11.785,-0.032
11.790,-0.041
11.795,-0.042
11.800,-0.043
11.805,-0.049
11.810,-0.050
11.815,-0.052
11.820,-0.055
11.825,-0.058
11.830,-0.063
11.835,-0.066
11.840,-0.069
11.845,-0.073
11.850,-0.074
11.855,-0.076
11.860,-0.085
11.865,-0.089
11.870,-0.088
11.875,-0.096
11.880,-0.107
11.885,-0.111
11.890,-0.113
11.895,-0.115
11.900,-0.121
11.905,-0.126
11.910,-0.124
11.915,-0.124
11.920,-0.129
11.925,-0.129
11.930,-0.123
11.935,-0.113
11.940,-0.096
11.945,-0.078
11.950,-0.056
11.955,-0.027
11.960,0.012
11.965,0.058
11.970,0.098
11.975,0.130
11.980,0.169
11.985,0.205
11.990,0.236
11.995,0.260
12.000,0.278
12.005,0.297
12.010,0.306
12.015,0.305
12.020,0.309
12.025,0.307
12.030,0.297
12.035,0.291
12.040,0.284
12.045,0.273
12.050,0.262
12.055,0.251
12.060,0.238
12.065,0.224
12.070,0.208
12.075,0.189
12.080,0.175
12.085,0.164
12.090,0.154
12.095,0.146
12.100,0.137
12.105,0.129
12.110,0.127
12.115,0.119
12.120,0.102
12.125,0.090
12.130,0.084
12.135,0.076
12.140,0.065
12.145,0.055
12.150,0.049
12.155,0.043
12.160,0.038
12.165,0.034
12.170,0.030
12.175,0.015
12.180,-0.029
12.185,-0.068
12.190,-0.074
12.195,-0.070
12.200,-0.063
12.205,-0.061
12.210,-0.061
12.215,-0.056
12.220,-0.058
12.225,-0.061
12.230,-0.054
12.235,-0.046
12.240,-0.047
12.245,-0.049
12.250,-0.050
12.255,-0.052
12.260,-0.047
12.265,-0.044
12.270,-0.046
12.275,-0.047
12.280,-0.049
12.285,-0.051
12.290,-0.050
12.295,-0.047
12.300,-0.051
12.305,-0.065
12.310,-0.090
12.315,-0.107
12.320,-0.109
12.325,-0.110
12.330,-0.109
12.335,-0.110
12.340,-0.117
12.345,-0.120
12.350,-0.119
12.355,-0.123
12.360,-0.130
12.365,-0.114
12.370,-0.076
12.375,-0.046
12.380,-0.032
12.385,-0.026
12.390,-0.010
12.395,0.017
12.400,0.029
12.405,0.033
12.410,0.044
12.415,0.048
12.420,0.043
12.425,0.037
12.430,0.036
12.435,0.040
12.440,0.041
12.445,0.041
12.450,0.039
12.455,0.036
12.460,0.034
12.465,0.029
12.470,0.025
12.475,0.021
12.480,0.014
12.485,0.010
12.490,0.009
12.495,0.007
12.500,0.001
12.505,-0.006
12.510,-0.011
12.515,-0.013
12.520,-0.007
12.525,0.006
12.530,0.029
12.535,0.042
12.540,0.012
12.545,-0.087
12.550,-0.275
12.555,-0.560
12.560,-0.846
12.565,-0.833
12.570,-0.461
12.575,-0.107
12.580,0.041
12.585,0.127
12.590,0.265
12.595,0.354
12.600,0.251
12.605,0.087
12.610,0.024
12.615,0.015
12.620,-0.012
12.625,-0.021
12.630,0.005
12.635,0.008
12.640,-0.010
12.645,-0.004
12.650,0.002
12.655,-0.012
12.660,-0.017
12.665,-0.009
12.670,-0.010
12.675,-0.017
12.680,-0.018
12.685,-0.020
12.690,-0.027
12.695,-0.027
12.700,-0.027
12.705,-0.032
12.710,-0.034
12.715,-0.039
12.720,-0.048
12.725,-0.055
12.730,-0.055
12.735,-0.056
12.740,-0.065
12.745,-0.075
12.750,-0.077
12.755,-0.078
12.760,-0.081
12.765,-0.084
12.770,-0.092
12.775,-0.101
12.780,-0.105
12.785,-0.108
12.790,-0.111
12.795,-0.115
12.800,-0.120
12.805,-0.123
12.810,-0.125
12.815,-0.127
12.820,-0.126
12.825,-0.119
12.830,-0.110
12.835,-0.103
12.840,-0.092
12.845,-0.073
12.850,-0.046
12.855,-0.011
12.860,0.033
12.865,0.074
12.870,0.115
12.875,0.155
12.880,0.192
12.885,0.226
12.890,0.255
12.895,0.277
12.900,0.294
12.905,0.307
12.910,0.318
12.915,0.322
12.920,0.318
12.925,0.313
12.930,0.304
12.935,0.293
12.940,0.285
12.945,0.276
12.950,0.264
12.955,0.253
12.960,0.238
12.965,0.224
12.970,0.214
12.975,0.202
12.980,0.192
12.985,0.181
12.990,0.163
12.995,0.146
13.000,0.136
13.005,0.129
13.010,0.122
13.015,0.110
13.020,0.096
13.025,0.085
13.030,0.078
13.035,0.071
13.040,0.061
13.045,0.050
13.050,0.045
13.055,0.042
13.060,0.040
13.065,0.033
13.070,0.024
13.075,0.018
13.080,0.011
13.085,0.005
13.090,0.003
13.095,0.001
13.100,0.001
13.105,0.002
13.110,-0.003
13.115,-0.010
13.120,-0.014
13.125,-0.017
13.130,-0.018
13.135,-0.018
13.140,-0.020
13.145,-0.025
13.150,-0.028
13.155,-0.030
13.160,-0.030
13.165,-0.029
13.170,-0.034
13.175,-0.041
13.180,-0.049
13.185,-0.058
13.190,-0.068
13.195,-0.085
13.200,-0.106
13.205,-0.117
13.210,-0.118
13.215,-0.119
13.220,-0.121
13.225,-0.130
13.230,-0.139
13.235,-0.138
13.240,-0.143
13.245,-0.147
13.250,-0.129
13.255,-0.094
13.260,-0.064
13.265,-0.043
13.270,-0.031
13.275,-0.023
13.280,-0.007
13.285,0.005
13.290,0.010
13.295,0.019
13.300,0.019
13.305,0.015
13.310,0.017
13.315,0.018
13.320,0.015
13.325,0.016
13.330,0.016
13.335,0.013
13.340,0.008
13.345,0.001
13.350,-0.004
13.355,-0.006
13.360,-0.007
13.365,-0.014
13.370,-0.022
13.375,-0.027
13.380,-0.033
13.385,-0.035
13.390,-0.034
13.395,-0.035
13.400,-0.036
13.405,-0.036
13.410,-0.032
13.415,-0.016
13.420,-0.008
13.425,-0.036
13.430,-0.127
13.435,-0.320
13.440,-0.615
13.445,-0.854
13.450,-0.747
13.455,-0.345
13.460,-0.028
13.465,0.083
13.470,0.142
13.475,0.239
13.480,0.259
13.485,0.125
13.490,-0.007
13.495,-0.033
13.500,-0.027
13.505,-0.045
13.510,-0.044
13.515,-0.018
13.520,-0.020
13.525,-0.033
13.530,-0.022
13.535,-0.019
13.540,-0.029
13.545,-0.029
13.550,-0.028
13.555,-0.035
13.560,-0.037
13.565,-0.034
13.570,-0.036
13.575,-0.042
13.580,-0.040
13.585,-0.041
13.590,-0.051
13.595,-0.058
13.600,-0.057
13.605,-0.055
13.610,-0.055
13.615,-0.060
13.620,-0.067
13.625,-0.072
13.630,-0.077
13.635,-0.084
13.640,-0.090
13.645,-0.093
13.650,-0.098
13.655,-0.104
13.660,-0.109
13.665,-0.115
13.670,-0.124
13.675,-0.128
13.680,-0.130
13.685,-0.136
13.690,-0.141
13.695,-0.141
13.700,-0.138
13.705,-0.136
13.710,-0.137
13.715,-0.131
13.720,-0.115
13.725,-0.098
13.730,-0.071
13.735,-0.037
13.740,0.000
13.745,0.044
13.750,0.088
13.755,0.132
13.760,0.175
13.765,0.212
13.770,0.241
13.775,0.269
13.780,0.293
13.785,0.307
13.790,0.317
13.795,0.321
13.800,0.323
13.805,0.324
13.810,0.319
13.815,0.311
13.820,0.304
13.825,0.294
13.830,0.281
13.835,0.269
13.840,0.255
13.845,0.241
13.850,0.229
13.855,0.219
13.860,0.207
13.865,0.192
13.870,0.178
13.875,0.166
13.880,0.155
13.885,0.144
13.890,0.134
13.895,0.126
13.900,0.115
13.905,0.105
13.910,0.094
13.915,0.083
13.920,0.075
13.925,0.070
13.930,0.066
13.935,0.055
13.940,0.045
13.945,0.040
13.950,0.035
13.955,0.025
13.960,0.014
13.965,0.012
13.970,0.012
13.975,0.007
13.980,0.002
13.985,-0.001
13.990,-0.001
13.995,-0.002
14.000,-0.006
14.005,-0.008
14.010,-0.009
14.015,-0.015
14.020,-0.020
14.025,-0.022
14.030,-0.022
14.035,-0.021
14.040,-0.026
14.045,-0.030
14.050,-0.031
14.055,-0.029
14.060,-0.032
14.065,-0.037
14.070,-0.037
14.075,-0.038
14.080,-0.048
14.085,-0.064
14.090,-0.083
14.095,-0.100
14.100,-0.110
14.105,-0.114
14.110,-0.115
14.115,-0.113
14.120,-0.117
14.125,-0.130
14.130,-0.137
14.135,-0.139
14.140,-0.143
14.145,-0.134
14.150,-0.101
14.155,-0.067
14.160,-0.041
14.165,-0.029
14.170,-0.025
14.175,-0.007
14.180,0.011
14.185,0.019
14.190,0.025
14.195,0.028
14.200,0.025
14.205,0.026
14.210,0.030
14.215,0.027
14.220,0.022
14.225,0.020
14.230,0.016
14.235,0.013
14.240,0.012
14.245,0.007
14.250,0.000
14.255,-0.002
14.260,-0.007
14.265,-0.013
14.270,-0.015
14.275,-0.020
14.280,-0.023
14.285,-0.025
14.290,-0.029
14.295,-0.032
14.300,-0.031
14.305,-0.028
14.310,-0.023
14.315,-0.012
14.320,-0.015
14.325,-0.048
14.330,-0.138
14.335,-0.337
14.340,-0.627
14.345,-0.811
14.350,-0.630
14.355,-0.221
14.360,0.040
14.365,0.116
14.370,0.174
14.375,0.255
14.380,0.229
14.385,0.080
14.390,-0.032
14.395,-0.043
14.400,-0.039
14.405,-0.056
14.410,-0.038
14.415,-0.012
14.420,-0.035
14.425,-0.050
14.430,-0.032
14.435,-0.034
14.440,-0.042
14.445,-0.038
14.450,-0.035
14.455,-0.037
14.460,-0.039
14.465,-0.040
14.470,-0.043
14.475,-0.048
14.480,-0.050
14.485,-0.050
14.490,-0.052
14.495,-0.055
14.500,-0.054
14.505,-0.057
14.510,-0.064
14.515,-0.068
14.520,-0.069
14.525,-0.072
14.530,-0.078
14.535,-0.086
14.540,-0.092
14.545,-0.095
14.550,-0.102
14.555,-0.111
14.560,-0.117
14.565,-0.122
14.570,-0.126
14.575,-0.131
14.580,-0.138
14.585,-0.142
14.590,-0.143
14.595,-0.144
14.600,-0.145
14.605,-0.141
14.610,-0.136
14.615,-0.128
14.620,-0.119
14.625,-0.106
14.630,-0.077
14.635,-0.043
14.640,-0.006
14.645,0.038
14.650,0.081
14.655,0.125
14.660,0.167
14.665,0.204
14.670,0.234
14.675,0.260
14.680,0.283
14.685,0.300
14.690,0.312
14.695,0.317
14.700,0.319
14.705,0.320
14.710,0.316
14.715,0.306
14.720,0.292
14.725,0.280
14.730,0.270
14.735,0.260
14.740,0.251
14.745,0.238
14.750,0.222
14.755,0.208
14.760,0.195
14.765,0.183
14.770,0.173
14.775,0.162
14.780,0.149
14.785,0.139
14.790,0.129
14.795,0.118
14.800,0.109
14.805,0.102
14.810,0.092
14.815,0.079
14.820,0.071
14.825,0.061
14.830,0.053
14.835,0.049
14.840,0.042
14.845,0.036
14.850,0.029
14.855,0.021
14.860,0.018
14.865,0.018
14.870,0.013
14.875,0.006
14.880,0.004
14.885,0.001
14.890,-0.003
14.895,-0.003
14.900,-0.006
14.905,-0.011
14.910,-0.016
14.915,-0.021
14.920,-0.022
14.925,-0.021
14.930,-0.023
14.935,-0.025
14.940,-0.027
14.945,-0.029
14.950,-0.031
14.955,-0.033
14.960,-0.036
14.965,-0.037
14.970,-0.037
14.975,-0.036
14.980,-0.037
14.985,-0.043
14.990,-0.047
14.995,-0.047
15.000,-0.047
15.005,-0.047
15.010,-0.054
15.015,-0.063
15.020,-0.073
15.025,-0.094
15.030,-0.118
15.035,-0.127
15.040,-0.127
15.045,-0.125
15.050,-0.125
15.055,-0.131
15.060,-0.135
15.065,-0.135
15.070,-0.141
15.075,-0.146
15.080,-0.134
15.085,-0.101
15.090,-0.067
15.095,-0.042
15.100,-0.027
15.105,-0.017
15.110,0.002
15.115,0.015
15.120,0.019
15.125,0.027
15.130,0.031
15.135,0.028
15.140,0.028
15.145,0.029
15.150,0.028
15.155,0.028
15.160,0.027
15.165,0.019
15.170,0.013
15.175,0.011
15.180,0.008
15.185,0.009
15.190,0.008
15.195,0.004
15.200,0.002
15.205,-0.007
15.210,-0.015
15.215,-0.016
15.220,-0.017
15.225,-0.020
15.230,-0.021
15.235,-0.022
15.240,-0.024
15.245,-0.022
15.250,-0.004
15.255,0.001
15.260,-0.039
15.265,-0.145
15.270,-0.357
15.275,-0.643
15.280,-0.780
15.285,-0.550
15.290,-0.154
15.295,0.070
15.300,0.131
15.305,0.202
15.310,0.289
15.315,0.240
15.320,0.076
15.325,-0.026
15.330,-0.029
15.335,-0.029
15.340,-0.047
15.345,-0.034
15.350,-0.020
15.355,-0.033
15.360,-0.034
15.365,-0.021
15.370,-0.022
15.375,-0.030
15.380,-0.025
15.385,-0.022
15.390,-0.031
15.395,-0.033
15.400,-0.032
15.405,-0.034
15.410,-0.037
15.415,-0.038
15.420,-0.043
15.425,-0.050
15.430,-0.052
15.435,-0.055
15.440,-0.058
15.445,-0.057
15.450,-0.059
15.455,-0.064
15.460,-0.066
15.465,-0.070
15.470,-0.077
15.475,-0.084
15.480,-0.086
15.485,-0.090
15.490,-0.102
15.495,-0.112
15.500,-0.116
15.505,-0.118
15.510,-0.123
15.515,-0.130
15.520,-0.134
15.525,-0.133
15.530,-0.133
15.535,-0.135
15.540,-0.133
15.545,-0.131
15.550,-0.125
15.555,-0.111
15.560,-0.093
15.565,-0.069
15.570,-0.040
15.575,-0.007
15.580,0.033
15.585,0.078
15.590,0.121
15.595,0.163
15.600,0.199
15.605,0.229
15.610,0.257
15.615,0.284
15.620,0.304
15.625,0.317
15.630,0.324
15.635,0.324
15.640,0.314
15.645,0.305
15.650,0.302
15.655,0.296
15.660,0.285
15.665,0.276
15.670,0.266
15.675,0.252
15.680,0.236
15.685,0.222
15.690,0.209
15.695,0.195
15.700,0.182
15.705,0.174
15.710,0.167
15.715,0.152
15.720,0.137
15.725,0.127
15.730,0.118
15.735,0.114
15.740,0.106
15.745,0.091
15.750,0.080
15.755,0.076
15.760,0.069
15.765,0.054
15.770,0.039
15.775,0.037
15.780,0.040
15.785,0.036
15.790,0.028
15.795,0.020
15.800,0.012
15.805,0.008
15.810,0.008
15.815,0.010
15.820,0.010
15.825,0.005
15.830,0.000
15.835,-0.007
15.840,-0.015
15.845,-0.019
15.850,-0.022
15.855,-0.022
15.860,-0.020
15.865,-0.020
15.870,-0.020
15.875,-0.021
15.880,-0.021
15.885,-0.023
15.890,-0.028
15.895,-0.030
15.900,-0.030
15.905,-0.035
15.910,-0.039
15.915,-0.041
15.920,-0.041
15.925,-0.039
15.930,-0.047
15.935,-0.053
15.940,-0.050
15.945,-0.048
15.950,-0.046
15.955,-0.047
15.960,-0.054
15.965,-0.064
15.970,-0.078
15.975,-0.099
15.980,-0.111
15.985,-0.112
15.990,-0.113
15.995,-0.117
16.000,-0.125
16.005,-0.136
16.010,-0.143
16.015,-0.140
16.020,-0.143
16.025,-0.144
16.030,-0.121
16.035,-0.088
16.040,-0.064
16.045,-0.045
16.050,-0.031
16.055,-0.010
16.060,0.020
16.065,0.031
16.070,0.029
16.075,0.028
16.080,0.022
16.085,0.023
16.090,0.030
16.095,0.028
16.100,0.025
16.105,0.026
16.110,0.025
16.115,0.020
16.120,0.011
16.125,0.005
16.130,0.006
16.135,0.011
16.140,0.013
16.145,0.003
16.150,-0.008
16.155,-0.013
16.160,-0.012
16.165,-0.010
16.170,-0.016
16.175,-0.027
16.180,-0.031
16.185,-0.027
16.190,-0.019
16.195,0.000
16.200,0.026
16.205,0.026
16.210,-0.028
16.215,-0.160
16.220,-0.391
16.225,-0.696
16.230,-0.859
16.235,-0.632
16.240,-0.234
16.245,-0.021
16.250,0.056
16.255,0.176
16.260,0.315
16.265,0.300
16.270,0.133
16.275,0.021
16.280,0.007
16.285,-0.012
16.290,-0.039
16.295,-0.022
16.300,0.003
16.305,-0.012
16.310,-0.023
16.315,-0.005
16.320,-0.006
16.325,-0.019
16.330,-0.016
16.335,-0.017
16.340,-0.023
16.345,-0.020
16.350,-0.018
16.355,-0.029
16.360,-0.033
16.365,-0.030
16.370,-0.036
16.375,-0.041
16.380,-0.045
16.385,-0.049
16.390,-0.047
16.395,-0.046
16.400,-0.054
16.405,-0.063
16.410,-0.069
16.415,-0.071
16.420,-0.074
16.425,-0.076
16.430,-0.073
16.435,-0.077
16.440,-0.087
16.445,-0.093
16.450,-0.098
16.455,-0.107
16.460,-0.114
16.465,-0.115
16.470,-0.113
16.475,-0.119
16.480,-0.125
16.485,-0.120
16.490,-0.116
16.495,-0.118
16.500,-0.118
16.505,-0.107
16.510,-0.085
16.515,-0.063
16.520,-0.040
16.525,-0.003
16.530,0.040
16.535,0.079
16.540,0.111
16.545,0.146
16.550,0.185
16.555,0.219
16.560,0.239
16.565,0.257
16.570,0.279
16.575,0.292
16.580,0.299
16.585,0.304
16.590,0.304
16.595,0.301
16.600,0.293
16.605,0.280
16.610,0.270
16.615,0.262
16.620,0.249
16.625,0.233
16.630,0.218
16.635,0.207
16.640,0.196
16.645,0.183
16.650,0.169
16.655,0.161
16.660,0.155
16.665,0.144
16.670,0.133
16.675,0.126
16.680,0.117
16.685,0.106
16.690,0.097
16.695,0.090
16.700,0.076
16.705,0.064
16.710,0.058
16.715,0.053
16.720,0.048
16.725,0.043
16.730,0.032
16.735,0.023
16.740,0.021
16.745,0.021
16.750,0.024
16.755,0.020
16.760,0.010
16.765,0.009
16.770,0.009
16.775,0.004
16.780,-0.001
16.785,-0.001
16.790,0.003
16.795,0.002
16.800,-0.008
16.805,-0.015
16.810,-0.017
16.815,-0.018
16.820,-0.020
16.825,-0.025
16.830,-0.026
16.835,-0.025
16.840,-0.030
16.845,-0.032
16.850,-0.032
16.855,-0.034
16.860,-0.032
16.865,-0.032
16.870,-0.038
16.875,-0.043
16.880,-0.048
16.885,-0.051
16.890,-0.060
16.895,-0.078
16.900,-0.099
16.905,-0.113
16.910,-0.117
16.915,-0.116
16.920,-0.113
16.925,-0.115
16.930,-0.122
16.935,-0.133
16.940,-0.138
16.945,-0.143
16.950,-0.146
16.955,-0.124
16.960,-0.086
16.965,-0.062
16.970,-0.047
16.975,-0.035
16.980,-0.018
16.985,0.007
16.990,0.015
16.995,0.015
17.000,0.023
17.005,0.023
17.010,0.021
17.015,0.022
17.020,0.022
17.025,0.023
17.030,0.027
17.035,0.026
17.040,0.016
17.045,0.010
17.050,0.009
17.055,0.009
17.060,0.005
17.065,-0.003
17.070,-0.011
17.075,-0.013
17.080,-0.014
17.085,-0.017
17.090,-0.018
17.095,-0.019
17.100,-0.020
17.105,-0.020
17.110,-0.023
17.115,-0.020
17.120,-0.006
17.125,0.016
17.130,0.017
17.135,-0.029
17.140,-0.149
17.145,-0.373
17.150,-0.685
17.155,-0.901
17.160,-0.740
17.165,-0.327
17.170,-0.045
17.175,0.068
17.180,0.175
17.185,0.303
17.190,0.310
17.195,0.157
17.200,0.029
17.205,0.009
17.210,0.001
17.215,-0.027
17.220,-0.014
17.225,0.013
17.230,-0.003
17.235,-0.015
17.240,-0.001
17.245,0.000
17.250,-0.011
17.255,-0.011
17.260,-0.008
17.265,-0.015
17.270,-0.019
17.275,-0.017
17.280,-0.020
17.285,-0.027
17.290,-0.033
17.295,-0.035
17.300,-0.037
17.305,-0.038
17.310,-0.041
17.315,-0.046
17.320,-0.050
17.325,-0.054
17.330,-0.061
17.335,-0.063
17.340,-0.062
17.345,-0.066
17.350,-0.073
17.355,-0.081
17.360,-0.087
17.365,-0.094
17.370,-0.100
17.375,-0.103
17.380,-0.108
17.385,-0.115
17.390,-0.120
17.395,-0.121
17.400,-0.123
17.405,-0.128
17.410,-0.128
17.415,-0.126
17.420,-0.120
17.425,-0.112
17.430,-0.102
17.435,-0.088
17.440,-0.066
17.445,-0.036
17.450,0.001
17.455,0.042
17.460,0.082
17.465,0.120
17.470,0.157
17.475,0.193
17.480,0.227
17.485,0.257
17.490,0.277
17.495,0.290
17.500,0.304
17.505,0.311
17.510,0.309
17.515,0.306
17.520,0.303
17.525,0.296
17.530,0.289
17.535,0.281
17.540,0.270
17.545,0.257
17.550,0.247
17.555,0.236
17.560,0.219
17.565,0.203
17.570,0.191
17.575,0.184
17.580,0.172
17.585,0.156
17.590,0.144
17.595,0.135
17.600,0.125
17.605,0.115
17.610,0.105
17.615,0.093
17.620,0.082
17.625,0.076
17.630,0.068
17.635,0.059
17.640,0.054
17.645,0.046
17.650,0.038
17.655,0.030
17.660,0.023
17.665,0.022
17.670,0.019
17.675,0.012
17.680,0.008
17.685,0.003
17.690,-0.004
17.695,-0.006
17.700,-0.007
17.705,-0.006
17.710,-0.006
17.715,-0.012
17.720,-0.016
17.725,-0.018
17.730,-0.021
17.735,-0.023
17.740,-0.022
17.745,-0.020
17.750,-0.025
17.755,-0.034
17.760,-0.036
17.765,-0.033
17.770,-0.031
17.775,-0.035
17.780,-0.040
17.785,-0.039
17.790,-0.039
17.795,-0.043
17.800,-0.043
17.805,-0.041
17.810,-0.043
17.815,-0.048
17.820,-0.052
17.825,-0.060
17.830,-0.072
17.835,-0.092
17.840,-0.113
17.845,-0.117
17.850,-0.118
17.855,-0.119
17.860,-0.123
17.865,-0.133
17.870,-0.138
17.875,-0.137
17.880,-0.139
17.885,-0.141
17.890,-0.129
17.895,-0.101
17.900,-0.071
17.905,-0.049
17.910,-0.034
17.915,-0.023
17.920,-0.005
17.925,0.011
17.930,0.019
17.935,0.026
17.940,0.030
17.945,0.028
17.950,0.027
17.955,0.028
17.960,0.025
17.965,0.023
17.970,0.024
17.975,0.021
17.980,0.020
17.985,0.015
17.990,0.005
17.995,0.003
18.000,0.002
18.005,-0.003
18.010,-0.005
18.015,-0.008
18.020,-0.010
18.025,-0.012
18.030,-0.016
18.035,-0.017
18.040,-0.018
18.045,-0.021
18.050,-0.022
18.055,-0.018
18.060,-0.003
18.065,0.001
18.070,-0.033
18.075,-0.136
18.080,-0.344
18.085,-0.644
18.090,-0.847
18.095,-0.680
18.100,-0.272
18.105,0.003
18.110,0.101
18.115,0.178
18.120,0.273
18.125,0.257
18.130,0.110
18.135,-0.006
18.140,-0.016
18.145,-0.011
18.150,-0.033
18.155,-0.024
18.160,0.003
18.165,-0.004
18.170,-0.010
18.175,-0.005
18.180,-0.017
18.185,-0.027
18.190,-0.018
18.195,-0.013
18.200,-0.019
18.205,-0.020
18.210,-0.020
18.215,-0.025
18.220,-0.029
18.225,-0.029
18.230,-0.034
18.235,-0.042
18.240,-0.044
18.245,-0.044
18.250,-0.047
18.255,-0.049
18.260,-0.055
18.265,-0.061
18.270,-0.065
18.275,-0.068
18.280,-0.069
18.285,-0.074
18.290,-0.084
18.295,-0.092
18.300,-0.096
18.305,-0.101
18.310,-0.106
18.315,-0.115
18.320,-0.119
18.325,-0.116
18.330,-0.123
18.335,-0.136
18.340,-0.138
18.345,-0.134
18.350,-0.132
18.355,-0.129
18.360,-0.122
18.365,-0.108
18.370,-0.087
18.375,-0.069
18.380,-0.045
18.385,-0.008
18.390,0.034
18.395,0.080
18.400,0.122
18.405,0.156
18.410,0.189
18.415,0.219
18.420,0.250
18.425,0.278
18.430,0.293
18.435,0.300
18.440,0.306
18.445,0.309
18.450,0.311
18.455,0.308
18.460,0.300
18.465,0.293
18.470,0.286
18.475,0.273
18.480,0.260
18.485,0.251
18.490,0.238
18.495,0.225
18.500,0.213
18.505,0.201
18.510,0.191
18.515,0.172
18.520,0.154
18.525,0.146
18.530,0.137
18.535,0.129
18.540,0.118
18.545,0.109
18.550,0.101
18.555,0.087
18.560,0.077
18.565,0.072
18.570,0.066
18.575,0.057
18.580,0.052
18.585,0.046
18.590,0.038
18.595,0.032
18.600,0.023
18.605,0.018
18.610,0.018
18.615,0.013
18.620,0.008
18.625,0.002
18.630,-0.002
18.635,-0.004
18.640,-0.007
18.645,-0.011
18.650,-0.011
18.655,-0.012
18.660,-0.013
18.665,-0.017
18.670,-0.021
18.675,-0.022
18.680,-0.023
18.685,-0.027
18.690,-0.031
18.695,-0.032
18.700,-0.031
18.705,-0.034
18.710,-0.039
18.715,-0.038
18.720,-0.034
18.725,-0.038
18.730,-0.043
18.735,-0.042
18.740,-0.043
18.745,-0.045
18.750,-0.049
18.755,-0.050
18.760,-0.048
18.765,-0.047
18.770,-0.043
18.775,-0.045
18.780,-0.057
18.785,-0.067
18.790,-0.079
18.795,-0.098
18.800,-0.118
18.805,-0.126
18.810,-0.126
18.815,-0.124
18.820,-0.126
18.825,-0.135
18.830,-0.138
18.835,-0.139
18.840,-0.146
18.845,-0.144
18.850,-0.126
18.855,-0.093
18.860,-0.057
18.865,-0.038
18.870,-0.029
18.875,-0.015
18.880,0.001
18.885,0.013
18.890,0.023
18.895,0.031
18.900,0.034
18.905,0.032
18.910,0.029
18.915,0.029
18.920,0.026
18.925,0.025
18.930,0.025
18.935,0.020
18.940,0.017
18.945,0.017
18.950,0.012
18.955,0.010
18.960,0.009
18.965,0.003
18.970,-0.004
18.975,-0.008
18.980,-0.012
18.985,-0.012
18.990,-0.015
18.995,-0.021
19.000,-0.022
19.005,-0.020
19.010,-0.016
19.015,-0.008
19.020,0.006
19.025,0.003
19.030,-0.045
19.035,-0.161
19.040,-0.386
19.045,-0.682
19.050,-0.810
19.055,-0.562
19.060,-0.164
19.065,0.056
19.070,0.129
19.075,0.214
19.080,0.293
19.085,0.231
19.090,0.070
19.095,-0.021
19.100,-0.016
19.105,-0.018
19.110,-0.039
19.115,-0.018
19.120,0.000
19.125,-0.021
19.130,-0.026
19.135,-0.010
19.140,-0.014
19.145,-0.022
19.150,-0.012
19.155,-0.011
19.160,-0.021
19.165,-0.027
19.170,-0.029
19.175,-0.031
19.180,-0.030
19.185,-0.033
19.190,-0.038
19.195,-0.038
19.200,-0.041
19.205,-0.048
19.210,-0.052
19.215,-0.055
19.220,-0.056
19.225,-0.056
19.230,-0.060
19.235,-0.066
19.240,-0.071
19.245,-0.074
19.250,-0.078
19.255,-0.087
19.260,-0.097
19.265,-0.103
19.270,-0.105
19.275,-0.107
19.280,-0.114
19.285,-0.121
19.290,-0.124
19.295,-0.124
19.300,-0.124
19.305,-0.126
19.310,-0.125
19.315,-0.119
19.320,-0.110
19.325,-0.101
19.330,-0.088
19.335,-0.066
19.340,-0.036
19.345,-0.003
19.350,0.036
19.355,0.077
19.360,0.117
19.365,0.153
19.370,0.184
19.375,0.216
19.380,0.246
19.385,0.272
19.390,0.287
19.395,0.296
19.400,0.302
19.405,0.305
19.410,0.305
19.415,0.302
19.420,0.297
19.425,0.288
19.430,0.277
19.435,0.267
19.440,0.257
19.445,0.245
19.450,0.231
19.455,0.217
19.460,0.203
19.465,0.190
19.470,0.180
19.475,0.172
19.480,0.163
19.485,0.149
19.490,0.132
19.495,0.122
19.500,0.117
19.505,0.109
19.510,0.097
19.515,0.088
19.520,0.081
19.525,0.070
19.530,0.059
19.535,0.051
19.540,0.048
19.545,0.046
19.550,0.037
19.555,0.027
19.560,0.022
19.565,0.018
19.570,0.019
19.575,0.014
19.580,0.006
19.585,0.003
19.590,0.001
19.595,0.003
19.600,0.003
19.605,-0.005
19.610,-0.014
19.615,-0.020
19.620,-0.018
19.625,-0.015
19.630,-0.020
19.635,-0.025
19.640,-0.026
19.645,-0.024
19.650,-0.027
19.655,-0.034
19.660,-0.036
19.665,-0.033
19.670,-0.031
19.675,-0.030
19.680,-0.033
19.685,-0.041
19.690,-0.045
19.695,-0.044
19.700,-0.043
19.705,-0.042
19.710,-0.047
19.715,-0.049
19.720,-0.047
19.725,-0.049
19.730,-0.049
19.735,-0.047
19.740,-0.049
19.745,-0.053
19.750,-0.060
19.755,-0.072
19.760,-0.095
19.765,-0.119
19.770,-0.124
19.775,-0.121
19.780,-0.121
19.785,-0.124
19.790,-0.128
19.795,-0.132
19.800,-0.134
19.805,-0.140
19.810,-0.144
19.815,-0.132
19.820,-0.102
19.825,-0.069
19.830,-0.040
19.835,-0.022
19.840,-0.013
19.845,0.001
19.850,0.014
19.855,0.022
19.860,0.031
19.865,0.034
19.870,0.029
19.875,0.029
19.880,0.035
19.885,0.035
19.890,0.034
19.895,0.031
19.900,0.025
19.905,0.023
19.910,0.020
19.915,0.015
19.920,0.015
19.925,0.011
19.930,0.005
19.935,0.000
19.940,-0.005
19.945,-0.007
19.950,-0.009
19.955,-0.010
19.960,-0.007
19.965,-0.009
19.970,-0.016
19.975,-0.022
19.980,-0.014
19.985,0.006
19.990,0.007
19.995,-0.040
20.000,-0.161
20.005,-0.393
20.010,-0.693
20.015,-0.799
20.020,-0.526
20.025,-0.141
20.030,0.050
20.035,0.114
20.040,0.218
20.045,0.311
20.050,0.242
20.055,0.074
20.060,-0.012
20.065,-0.006
20.070,-0.018
20.075,-0.046
20.080,-0.021
20.085,0.001
20.090,-0.018
20.095,-0.024
20.100,-0.014
20.105,-0.018
20.110,-0.023
20.115,-0.017
20.120,-0.018
20.125,-0.026
20.130,-0.025
20.135,-0.026
20.140,-0.035
20.145,-0.040
20.150,-0.042
20.155,-0.045
20.160,-0.046
20.165,-0.045
20.170,-0.042
20.175,-0.045
20.180,-0.054
20.185,-0.061
20.190,-0.062
20.195,-0.061
20.200,-0.063
20.205,-0.067
20.210,-0.073
20.215,-0.084
20.220,-0.093
20.225,-0.099
20.230,-0.103
20.235,-0.107
20.240,-0.113
20.245,-0.113
20.250,-0.113
20.255,-0.117
20.260,-0.119
20.265,-0.124
20.270,-0.129
20.275,-0.125
20.280,-0.120
20.285,-0.111
20.290,-0.100
20.295,-0.086
20.300,-0.064
20.305,-0.039
20.310,-0.008
20.315,0.031
20.320,0.071
20.325,0.111
20.330,0.150
20.335,0.185
20.340,0.219
20.345,0.250
20.350,0.272
20.355,0.284
20.360,0.292
20.365,0.300
20.370,0.302
20.375,0.302
20.380,0.299
20.385,0.291
20.390,0.281
20.395,0.268
20.400,0.261
20.405,0.255
20.410,0.241
20.415,0.229
20.420,0.219
20.425,0.207
20.430,0.196
20.435,0.186
20.440,0.170
20.445,0.152
20.450,0.136
20.455,0.126
20.460,0.122
20.465,0.113
20.470,0.105
20.475,0.100
20.480,0.090
20.485,0.079
20.490,0.072
20.495,0.068
20.500,0.062
20.505,0.054
20.510,0.046
20.515,0.039
20.520,0.027
20.525,0.021
20.530,0.021
20.535,0.019
20.540,0.015
20.545,0.007
20.550,0.002
20.555,-0.001
20.560,-0.003
20.565,-0.005
20.570,-0.006
20.575,-0.006
20.580,-0.007
20.585,-0.010
20.590,-0.015
20.595,-0.021
20.600,-0.023
20.605,-0.020
20.610,-0.023
20.615,-0.033
20.620,-0.032
20.625,-0.026
20.630,-0.026
20.635,-0.031
20.640,-0.039
20.645,-0.041
20.650,-0.038
20.655,-0.036
20.660,-0.038
20.665,-0.042
20.670,-0.046
20.675,-0.049
20.680,-0.045
20.685,-0.043
20.690,-0.049
20.695,-0.050
20.700,-0.053
20.705,-0.068
20.710,-0.089
20.715,-0.110
20.720,-0.120
20.725,-0.120
20.730,-0.120
20.735,-0.120
20.740,-0.124
20.745,-0.131
20.750,-0.139
20.755,-0.147
20.760,-0.153
20.765,-0.142
20.770,-0.108
20.775,-0.074
20.780,-0.052
20.785,-0.032
20.790,-0.015
20.795,0.006
20.800,0.015
20.805,0.013
20.810,0.018
20.815,0.025
20.820,0.030
20.825,0.034
20.830,0.033
20.835,0.030
20.840,0.027
20.845,0.025
20.850,0.024
20.855,0.021
20.860,0.017
20.865,0.015
20.870,0.015
20.875,0.013
20.880,0.004
20.885,-0.005
20.890,-0.013
20.895,-0.014
20.900,-0.011
20.905,-0.014
20.910,-0.017
20.915,-0.018
20.920,-0.018
20.925,-0.013
20.930,0.001
20.935,0.023
20.940,0.023
20.945,-0.031
20.950,-0.164
20.955,-0.399
20.960,-0.711
20.965,-0.888
20.970,-0.677
20.975,-0.268
20.980,-0.031
20.985,0.056
20.990,0.176
20.995,0.323
21.000,0.319
21.005,0.151
21.010,0.028
21.015,0.012
21.020,-0.001
21.025,-0.030
21.030,-0.015
21.035,0.012
21.040,0.000
21.045,-0.013
21.050,-0.001
21.055,-0.004
21.060,-0.021
21.065,-0.018
21.070,-0.014
21.075,-0.017
21.080,-0.011
21.085,-0.011
21.090,-0.023
21.095,-0.032
21.100,-0.035
21.105,-0.036
21.110,-0.037
21.115,-0.041
21.120,-0.047
21.125,-0.052
21.130,-0.052
21.135,-0.050
21.140,-0.054
21.145,-0.065
21.150,-0.070
21.155,-0.071
21.160,-0.070
21.165,-0.073
21.170,-0.080
21.175,-0.083
21.180,-0.090
21.185,-0.102
21.190,-0.105
21.195,-0.103
21.200,-0.104
21.205,-0.111
21.210,-0.119
21.215,-0.118
21.220,-0.115
21.225,-0.114
21.230,-0.114
21.235,-0.109
21.240,-0.098
21.245,-0.083
21.250,-0.064
21.255,-0.040
21.260,-0.009
21.265,0.029
21.270,0.068
21.275,0.106
21.280,0.141
21.285,0.175
21.290,0.207
21.295,0.236
21.300,0.259
21.305,0.274
21.310,0.283
21.315,0.291
21.320,0.295
21.325,0.295
21.330,0.289
21.335,0.281
21.340,0.275
21.345,0.266
21.350,0.257
21.355,0.248
21.360,0.232
21.365,0.215
21.370,0.205
21.375,0.196
21.380,0.186
21.385,0.174
21.390,0.160
21.395,0.151
21.400,0.144
21.405,0.133
21.410,0.121
21.415,0.109
21.420,0.098
21.425,0.089
21.430,0.083
21.435,0.077
21.440,0.070
21.445,0.063
21.450,0.057
21.455,0.049
21.460,0.041
21.465,0.038
21.470,0.035
21.475,0.033
21.480,0.027
21.485,0.019
21.490,0.013
21.495,0.011
21.500,0.009
21.505,0.006
21.510,0.001
21.515,-0.002
21.520,-0.005
21.525,-0.008
21.530,-0.006
21.535,-0.006
21.540,-0.012
21.545,-0.017
21.550,-0.020
21.555,-0.020
21.560,-0.021
21.565,-0.024
21.570,-0.023
21.575,-0.026
21.580,-0.032
21.585,-0.034
21.590,-0.033
21.595,-0.031
21.600,-0.029
21.605,-0.031
21.610,-0.032
21.615,-0.032
21.620,-0.038
21.625,-0.049
21.630,-0.056
21.635,-0.059
21.640,-0.064
21.645,-0.075
21.650,-0.096
21.655,-0.109
21.660,-0.113
21.665,-0.119
21.670,-0.123
21.675,-0.125
21.680,-0.132
21.685,-0.135
21.690,-0.131
21.695,-0.137
21.700,-0.142
21.705,-0.120
21.710,-0.084
21.715,-0.057
21.720,-0.041
21.725,-0.030
21.730,-0.011
21.735,0.010
21.740,0.017
21.745,0.024
21.750,0.033
21.755,0.029
21.760,0.025
21.765,0.028
21.770,0.028
21.775,0.029
21.780,0.030
21.785,0.024
21.790,0.019
21.795,0.018
21.800,0.017
21.805,0.015
21.810,0.013
21.815,0.009
21.820,0.003
21.825,-0.008
21.830,-0.014
21.835,-0.014
21.840,-0.018
21.845,-0.023
21.850,-0.024
21.855,-0.023
21.860,-0.019
21.865,-0.010
21.870,0.009
21.875,0.016
21.880,-0.028
21.885,-0.145
21.890,-0.360
21.895,-0.664
21.900,-0.875
21.905,-0.713
21.910,-0.307
21.915,-0.040
21.920,0.060
21.925,0.164
21.930,0.290
21.935,0.294
21.940,0.141
21.945,0.018
21.950,0.006
21.955,0.003
21.960,-0.023
21.965,-0.009
21.970,0.015
21.975,-0.005
21.980,-0.021
21.985,-0.005
21.990,-0.004
21.995,-0.012
22.000,-0.008
22.005,-0.005
22.010,-0.013
22.015,-0.019
22.020,-0.017
22.025,-0.022
22.030,-0.027
22.035,-0.025
22.040,-0.029
22.045,-0.036
22.050,-0.039
22.055,-0.041
22.060,-0.045
22.065,-0.048
22.070,-0.048
22.075,-0.050
22.080,-0.056
22.085,-0.063
22.090,-0.067
22.095,-0.074
22.100,-0.081
22.105,-0.085
22.110,-0.088
22.115,-0.092
22.120,-0.098
22.125,-0.104
22.130,-0.108
22.135,-0.107
22.140,-0.112
22.145,-0.120
22.150,-0.123
22.155,-0.123
22.160,-0.122
22.165,-0.117
22.170,-0.111
22.175,-0.101
22.180,-0.083
22.185,-0.061
22.190,-0.036
22.195,-0.007
22.200,0.026
22.205,0.069
22.210,0.112
22.215,0.147
22.220,0.179
22.225,0.207
22.230,0.238
22.235,0.264
22.240,0.279
22.245,0.290
22.250,0.296
22.255,0.296
22.260,0.297
22.265,0.295
22.270,0.285
22.275,0.278
22.280,0.272
22.285,0.263
22.290,0.253
22.295,0.240
22.300,0.225
22.305,0.214
22.310,0.203
22.315,0.188
22.320,0.173
22.325,0.161
22.330,0.153
22.335,0.152
22.340,0.144
22.345,0.126
22.350,0.111
22.355,0.097
22.360,0.088
22.365,0.083
22.370,0.076
22.375,0.069
22.380,0.060
22.385,0.052
22.390,0.044
22.395,0.037
22.400,0.031
22.405,0.028
22.410,0.025
22.415,0.019
22.420,0.015
22.425,0.012
22.430,0.007
22.435,0.002
22.440,-0.003
22.445,-0.003
22.450,-0.003
22.455,-0.008
22.460,-0.012
22.465,-0.015
22.470,-0.016
22.475,-0.017
22.480,-0.019
22.485,-0.018
22.490,-0.021
22.495,-0.025
22.500,-0.024
22.505,-0.026
22.510,-0.030
22.515,-0.034
22.520,-0.041
22.525,-0.043
22.530,-0.040
22.535,-0.040
22.540,-0.038
22.545,-0.039
22.550,-0.042
22.555,-0.045
22.560,-0.046
22.565,-0.044
22.570,-0.046
22.575,-0.050
22.580,-0.052
22.585,-0.052
22.590,-0.057
22.595,-0.067
22.600,-0.082
22.605,-0.099
22.610,-0.111
22.615,-0.122
22.620,-0.127
22.625,-0.123
22.630,-0.122
22.635,-0.131
22.640,-0.138
22.645,-0.140
22.650,-0.144
22.655,-0.140
22.660,-0.117
22.665,-0.083
22.670,-0.049
22.675,-0.032
22.680,-0.025
22.685,-0.010
22.690,0.009
22.695,0.017
22.700,0.023
22.705,0.031
22.710,0.031
22.715,0.034
22.720,0.035
22.725,0.029
22.730,0.031
22.735,0.032
22.740,0.028
22.745,0.023
22.750,0.019
22.755,0.015
22.760,0.013
22.765,0.011
22.770,0.006
22.775,0.003
22.780,0.001
22.785,-0.002
22.790,-0.007
22.795,-0.012
22.800,-0.014
22.805,-0.020
22.810,-0.024
22.815,-0.020
22.820,-0.010
22.825,0.008
22.830,0.014
22.835,-0.019
22.840,-0.112
22.845,-0.312
22.850,-0.615
22.855,-0.833
22.860,-0.687
22.865,-0.286
22.870,-0.006
22.875,0.093
22.880,0.174
22.885,0.281
22.890,0.276
22.895,0.126
22.900,0.004
22.905,-0.012
22.910,-0.004
22.915,-0.022
22.920,-0.017
22.925,0.001
22.930,-0.010
22.935,-0.019
22.940,-0.005
22.945,-0.005
22.950,-0.015
22.955,-0.011
22.960,-0.011
22.965,-0.021
22.970,-0.023
22.975,-0.021
22.980,-0.026
22.985,-0.032
22.990,-0.029
22.995,-0.031
23.000,-0.037
23.005,-0.037
23.010,-0.042
23.015,-0.052
23.020,-0.052
23.025,-0.051
23.030,-0.056
23.035,-0.063
23.040,-0.066
23.045,-0.071
23.050,-0.077
23.055,-0.080
23.060,-0.082
23.065,-0.086
23.070,-0.091
23.075,-0.100
23.080,-0.106
23.085,-0.107
23.090,-0.109
23.095,-0.112
23.100,-0.122
23.105,-0.128
23.110,-0.123
23.115,-0.117
23.120,-0.115
23.125,-0.111
23.130,-0.103
23.135,-0.089
23.140,-0.070
23.145,-0.045
23.150,-0.015
23.155,0.017
23.160,0.057
23.165,0.098
23.170,0.136
23.175,0.175
23.180,0.209
23.185,0.238
23.190,0.261
23.195,0.277
23.200,0.290
23.205,0.297
23.210,0.299
23.215,0.299
23.220,0.295
23.225,0.287
23.230,0.279
23.235,0.272
23.240,0.263
23.245,0.252
23.250,0.241
23.255,0.228
23.260,0.215
23.265,0.206
23.270,0.198
23.275,0.182
23.280,0.167
23.285,0.156
23.290,0.149
23.295,0.141
23.300,0.129
23.305,0.119
23.310,0.110
23.315,0.100
23.320,0.090
23.325,0.078
23.330,0.069
23.335,0.067
23.340,0.062
23.345,0.051
23.350,0.040
23.355,0.033
23.360,0.028
23.365,0.023
23.370,0.017
23.375,0.016
23.380,0.014
23.385,0.008
23.390,0.004
23.395,0.003
23.400,0.001
23.405,-0.002
23.410,-0.001
23.415,-0.003
23.420,-0.007
23.425,-0.012
23.430,-0.014
23.435,-0.015
23.440,-0.021
23.445,-0.021
23.450,-0.021
23.455,-0.025
23.460,-0.029
23.465,-0.032
23.470,-0.033
23.475,-0.033
23.480,-0.033
23.485,-0.032
23.490,-0.035
23.495,-0.037
23.500,-0.037
23.505,-0.037
23.510,-0.041
23.515,-0.044
23.520,-0.043
23.525,-0.044
23.530,-0.048
23.535,-0.049
23.540,-0.048
23.545,-0.047
23.550,-0.046
23.555,-0.046
23.560,-0.055
23.565,-0.069
23.570,-0.082
23.575,-0.100
23.580,-0.120
23.585,-0.129
23.590,-0.129
23.595,-0.122
23.600,-0.121
23.605,-0.132
23.610,-0.138
23.615,-0.137
23.620,-0.142
23.625,-0.139
23.630,-0.116
23.635,-0.088
23.640,-0.060
23.645,-0.037
23.650,-0.024
23.655,-0.010
23.660,0.011
23.665,0.019
23.670,0.022
23.675,0.030
23.680,0.032
23.685,0.034
23.690,0.035
23.695,0.029
23.700,0.029
23.705,0.031
23.710,0.028
23.715,0.025
23.720,0.023
23.725,0.020
23.730,0.015
23.735,0.012
23.740,0.011
23.745,0.006
23.750,0.001
23.755,-0.004
23.760,-0.007
23.765,-0.012
23.770,-0.017
23.775,-0.017
23.780,-0.016
23.785,-0.017
23.790,-0.013
23.795,0.003
23.800,0.012
23.805,-0.015
23.810,-0.105
23.815,-0.291
23.820,-0.577
23.825,-0.803
23.830,-0.681
23.835,-0.284
23.840,0.001
23.845,0.096
23.850,0.169
23.855,0.277
23.860,0.285
23.865,0.135
23.870,0.002
23.875,-0.017
23.880,-0.009
23.885,-0.029
23.890,-0.027
23.895,-0.001
23.900,-0.009
23.905,-0.019
23.910,-0.007
23.915,-0.009
23.920,-0.022
23.925,-0.019
23.930,-0.014
23.935,-0.021
23.940,-0.024
23.945,-0.022
23.950,-0.025
23.955,-0.030
23.960,-0.029
23.965,-0.033
23.970,-0.043
23.975,-0.044
23.980,-0.043
23.985,-0.048
23.990,-0.053
23.995,-0.057
24.000,-0.059
24.005,-0.061
24.010,-0.064
24.015,-0.069
24.020,-0.074
24.025,-0.079
24.030,-0.081
24.035,-0.081
24.040,-0.088
24.045,-0.100
24.050,-0.106
24.055,-0.111
24.060,-0.108
24.065,-0.109
24.070,-0.116
24.075,-0.119
24.080,-0.117
24.085,-0.113
24.090,-0.110
24.095,-0.106
24.100,-0.098
24.105,-0.085
24.110,-0.067
24.115,-0.047
24.120,-0.019
24.125,0.016
24.130,0.054
24.135,0.093
24.140,0.130
24.145,0.163
24.150,0.194
24.155,0.226
24.160,0.252
24.165,0.271
24.170,0.282
24.175,0.287
24.180,0.296
24.185,0.299
24.190,0.292
24.195,0.285
24.200,0.279
24.205,0.271
24.210,0.264
24.215,0.251
24.220,0.240
24.225,0.229
24.230,0.213
24.235,0.201
24.240,0.191
24.245,0.180
24.250,0.171
24.255,0.157
24.260,0.141
24.265,0.133
24.270,0.128
24.275,0.117
24.280,0.105
24.285,0.095
24.290,0.089
24.295,0.082
24.300,0.072
24.305,0.064
24.310,0.056
24.315,0.046
24.320,0.039
24.325,0.034
24.330,0.031
24.335,0.025
24.340,0.022
24.345,0.020
24.350,0.010
24.355,0.006
24.360,0.006
24.365,0.003
24.370,0.003
24.375,-0.001
24.380,-0.004
24.385,-0.004
24.390,-0.008
24.395,-0.012
24.400,-0.014
24.405,-0.014
24.410,-0.014
24.415,-0.017
24.420,-0.021
24.425,-0.023
24.430,-0.025
24.435,-0.027
24.440,-0.029
24.445,-0.032
24.450,-0.032
24.455,-0.031
24.460,-0.033
24.465,-0.035
24.470,-0.037
24.475,-0.041
24.480,-0.040
24.485,-0.039
24.490,-0.043
24.495,-0.044
24.500,-0.045
24.505,-0.044
24.510,-0.041
24.515,-0.047
24.520,-0.052
24.525,-0.050
24.530,-0.056
24.535,-0.066
24.540,-0.084
24.545,-0.107
24.550,-0.115
24.555,-0.117
24.560,-0.119
24.565,-0.121
24.570,-0.129
24.575,-0.138
24.580,-0.139
24.585,-0.140
24.590,-0.145
24.595,-0.132
24.600,-0.100
24.605,-0.072
24.610,-0.049
24.615,-0.030
24.620,-0.016
24.625,0.002
24.630,0.015
24.635,0.021
24.640,0.030
24.645,0.038
24.650,0.042
24.655,0.041
24.660,0.035
24.665,0.032
24.670,0.033
24.675,0.035
24.680,0.029
24.685,0.022
24.690,0.022
24.695,0.020
24.700,0.015
24.705,0.009
24.710,0.002
24.715,-0.001
24.720,0.001
24.725,0.001
24.730,-0.003
24.735,-0.014
24.740,-0.020
24.745,-0.020
24.750,-0.016
24.755,-0.006
24.760,0.009
24.765,0.025
24.770,0.022
24.775,-0.028
24.780,-0.159
24.785,-0.398
24.790,-0.705
24.795,-0.830
24.800,-0.566
24.805,-0.179
24.810,0.009
24.815,0.076
24.820,0.196
24.825,0.322
24.830,0.277
24.835,0.098
24.840,-0.006
24.845,-0.008
24.850,-0.014
24.855,-0.032
24.860,-0.014
24.865,0.006
24.870,-0.010
24.875,-0.018
24.880,-0.004
24.885,-0.007
24.890,-0.019
24.895,-0.019
24.900,-0.024
24.905,-0.030
24.910,-0.020
24.915,-0.015
24.920,-0.023
24.925,-0.029
24.930,-0.029
24.935,-0.034
24.940,-0.043
24.945,-0.046
24.950,-0.049
24.955,-0.052
24.960,-0.049
24.965,-0.051
24.970,-0.056
24.975,-0.063
24.980,-0.069
24.985,-0.067
24.990,-0.068
24.995,-0.073
25.000,-0.078
25.005,-0.087
25.010,-0.094
25.015,-0.101
25.020,-0.105
25.025,-0.102
25.030,-0.102
25.035,-0.108
25.040,-0.114
25.045,-0.116
25.050,-0.115
25.055,-0.113
25.060,-0.109
25.065,-0.104
25.070,-0.095
25.075,-0.082
25.080,-0.065
25.085,-0.038
25.090,-0.005
25.095,0.027
25.100,0.063
25.105,0.102
25.110,0.140
25.115,0.179
25.120,0.211
25.125,0.237
25.130,0.256
25.135,0.266
25.140,0.281
25.145,0.294
25.150,0.295
25.155,0.291
25.160,0.287
25.165,0.280
25.170,0.271
25.175,0.260
25.180,0.251
25.185,0.246
25.190,0.235
25.195,0.223
25.200,0.212
25.205,0.201
25.210,0.189
25.215,0.175
25.220,0.164
25.225,0.153
25.230,0.138
25.235,0.123
25.240,0.112
25.245,0.105
25.250,0.100
25.255,0.093
25.260,0.086
25.265,0.079
25.270,0.072
25.275,0.065
25.280,0.059
25.285,0.048
25.290,0.037
25.295,0.031
25.300,0.026
25.305,0.026
25.310,0.025
25.315,0.024
25.320,0.021
25.325,0.013
25.330,0.005
25.335,-0.002
25.340,-0.008
25.345,-0.010
25.350,-0.011
25.355,-0.012
25.360,-0.010
25.365,-0.010
25.370,-0.010
25.375,-0.008
25.380,-0.011
25.385,-0.018
25.390,-0.028
25.395,-0.033
25.400,-0.031
25.405,-0.027
25.410,-0.026
25.415,-0.028
25.420,-0.030
25.425,-0.034
25.430,-0.038
25.435,-0.040
25.440,-0.041
25.445,-0.038
25.450,-0.040
25.455,-0.048
25.460,-0.053
25.465,-0.056
25.470,-0.060
25.475,-0.068
25.480,-0.088
25.485,-0.110
25.490,-0.120
25.495,-0.122
25.500,-0.121
25.505,-0.116
25.510,-0.121
25.515,-0.129
25.520,-0.135
25.525,-0.144
25.530,-0.146
25.535,-0.130
25.540,-0.093
25.545,-0.062
25.550,-0.044
25.555,-0.034
25.560,-0.025
25.565,-0.002
25.570,0.018
25.575,0.023
25.580,0.025
25.585,0.026
25.590,0.025
25.595,0.033
25.600,0.039
25.605,0.035
25.610,0.030
25.615,0.025
25.620,0.020
25.625,0.019
25.630,0.017
25.635,0.012
25.640,0.004
25.645,-0.001
25.650,-0.003
25.655,-0.005
25.660,-0.008
25.665,-0.011
25.670,-0.014
25.675,-0.019
25.680,-0.019
25.685,-0.019
25.690,-0.018
25.695,-0.008
25.700,0.011
25.705,0.027
25.710,0.015
25.715,-0.052
25.720,-0.203
25.725,-0.455
25.730,-0.766
25.735,-0.887
25.740,-0.608
25.745,-0.216
25.750,-0.023
25.755,0.063
25.760,0.198
25.765,0.331
25.770,0.295
25.775,0.122
25.780,0.022
25.785,0.014
25.790,-0.009
25.795,-0.032
25.800,-0.006
25.805,0.011
25.810,-0.009
25.815,-0.012
25.820,0.001
25.825,-0.008
25.830,-0.017
25.835,-0.011
25.840,-0.013
25.845,-0.021
25.850,-0.020
25.855,-0.019
25.860,-0.025
25.865,-0.030
25.870,-0.033
25.875,-0.037
25.880,-0.040
25.885,-0.039
25.890,-0.039
25.895,-0.042
25.900,-0.047
25.905,-0.052
25.910,-0.058
25.915,-0.066
25.920,-0.066
25.925,-0.065
25.930,-0.069
25.935,-0.077
25.940,-0.085
25.945,-0.090
25.950,-0.092
25.955,-0.098
25.960,-0.105
25.965,-0.106
25.970,-0.104
25.975,-0.107
25.980,-0.115
25.985,-0.120
25.990,-0.117
25.995,-0.108
26.000,-0.103
26.005,-0.101
26.010,-0.096
26.015,-0.082
26.020,-0.061
26.025,-0.029
26.030,0.009
26.035,0.045
26.040,0.077
26.045,0.113
26.050,0.152
26.055,0.185
26.060,0.211
26.065,0.233
26.070,0.256
26.075,0.277
26.080,0.290
26.085,0.293
26.090,0.292
26.095,0.290
26.100,0.287
26.105,0.283
26.110,0.274
26.115,0.265
26.120,0.254
26.125,0.239
26.130,0.226
26.135,0.216
26.140,0.209
26.145,0.195
26.150,0.175
26.155,0.163
26.160,0.157
26.165,0.149
26.170,0.142
26.175,0.132
26.180,0.118
26.185,0.107
26.190,0.099
26.195,0.090
26.200,0.080
26.205,0.070
26.210,0.063
26.215,0.059
26.220,0.050
26.225,0.042
26.230,0.042
26.235,0.038
26.240,0.032
26.245,0.027
26.250,0.020
26.255,0.013
26.260,0.010
26.265,0.009
26.270,0.012
26.275,0.008
26.280,-0.005
26.285,-0.011
26.290,-0.011
26.295,-0.011
26.300,-0.009
26.305,-0.011
26.310,-0.016
26.315,-0.017
26.320,-0.019
26.325,-0.025
26.330,-0.028
26.335,-0.029
26.340,-0.027
26.345,-0.029
26.350,-0.034
26.355,-0.035
26.360,-0.032
26.365,-0.027
26.370,-0.026
26.375,-0.035
26.380,-0.046
26.385,-0.050
26.390,-0.047
26.395,-0.043
26.400,-0.044
26.405,-0.052
26.410,-0.062
26.415,-0.081
26.420,-0.109
26.425,-0.122
26.430,-0.122
26.435,-0.120
26.440,-0.119
26.445,-0.124
26.450,-0.131
26.455,-0.132
26.460,-0.136
26.465,-0.146
26.470,-0.142
26.475,-0.112
26.480,-0.073
26.485,-0.048
26.490,-0.037
26.495,-0.028
26.500,-0.010
26.505,0.011
26.510,0.019
26.515,0.024
26.520,0.031
26.525,0.030
26.530,0.029
26.535,0.030
26.540,0.027
26.545,0.026
26.550,0.025
26.555,0.022
26.560,0.024
26.565,0.023
26.570,0.018
26.575,0.011
26.580,0.005
26.585,0.002
26.590,0.001
26.595,-0.002
26.600,-0.008
26.605,-0.014
26.610,-0.018
26.615,-0.020
26.620,-0.022
26.625,-0.025
26.630,-0.022
26.635,-0.011
26.640,0.007
26.645,0.014
26.650,-0.020
26.655,-0.122
26.660,-0.329
26.665,-0.633
26.670,-0.865
26.675,-0.736
26.680,-0.333
26.685,-0.043
26.690,0.065
26.695,0.157
26.700,0.280
26.705,0.293
26.710,0.141
26.715,0.011
26.720,-0.004
26.725,0.000
26.730,-0.023
26.735,-0.018
26.740,0.007
26.745,-0.002
26.750,-0.016
26.755,0.000
26.760,0.002
26.765,-0.012
26.770,-0.008
26.775,-0.001
26.780,-0.012
26.785,-0.020
26.790,-0.021
26.795,-0.022
26.800,-0.022
26.805,-0.024
26.810,-0.028
26.815,-0.028
26.820,-0.029
26.825,-0.040
26.830,-0.048
26.835,-0.049
26.840,-0.052
26.845,-0.057
26.850,-0.062
26.855,-0.066
26.860,-0.066
26.865,-0.070
26.870,-0.080
26.875,-0.088
26.880,-0.093
26.885,-0.096
26.890,-0.097
26.895,-0.103
26.900,-0.112
26.905,-0.114
26.910,-0.113
26.915,-0.118
26.920,-0.119
26.925,-0.115
26.930,-0.108
26.935,-0.106
26.940,-0.112
26.945,-0.106
26.950,-0.088
26.955,-0.063
26.960,-0.037
26.965,-0.012
26.970,0.022
26.975,0.063
26.980,0.100
26.985,0.142
26.990,0.182
26.995,0.207
27.000,0.232
27.005,0.255
27.010,0.272
27.015,0.286
27.020,0.296
27.025,0.302
27.030,0.302
27.035,0.297
27.040,0.293
27.045,0.282
27.050,0.268
27.055,0.259
27.060,0.250
27.065,0.241
27.070,0.226
27.075,0.212
27.080,0.205
27.085,0.192
27.090,0.176
27.095,0.166
27.100,0.155
27.105,0.144
27.110,0.134
27.115,0.125
27.120,0.112
27.125,0.100
27.130,0.096
27.135,0.089
27.140,0.077
27.145,0.067
27.150,0.062
27.155,0.055
27.160,0.048
27.165,0.041
27.170,0.033
27.175,0.026
27.180,0.018
27.185,0.015
27.190,0.015
27.195,0.011
27.200,0.008
27.205,0.006
27.210,0.002
27.215,-0.006
27.220,-0.012
27.225,-0.013
27.230,-0.012
27.235,-0.012
27.240,-0.013
27.245,-0.015
27.250,-0.019
27.255,-0.023
27.260,-0.022
27.265,-0.026
27.270,-0.026
27.275,-0.025
27.280,-0.032
27.285,-0.033
27.290,-0.033
27.295,-0.039
27.300,-0.040
27.305,-0.039
27.310,-0.039
27.315,-0.035
27.320,-0.034
27.325,-0.041
27.330,-0.048
27.335,-0.051
27.340,-0.050
27.345,-0.046
27.350,-0.044
27.355,-0.048
27.360,-0.055
27.365,-0.065
27.370,-0.077
27.375,-0.095
27.380,-0.116
27.385,-0.125
27.390,-0.123
27.395,-0.116
27.400,-0.118
27.405,-0.133
27.410,-0.140
27.415,-0.138
27.420,-0.143
27.425,-0.143
27.430,-0.122
27.435,-0.090
27.440,-0.063
27.445,-0.041
27.450,-0.027
27.455,-0.013
27.460,0.007
27.465,0.017
27.470,0.023
27.475,0.032
27.480,0.034
27.485,0.035
27.490,0.035
27.495,0.033
27.500,0.032
27.505,0.028
27.510,0.027
27.515,0.022
27.520,0.017
27.525,0.016
27.530,0.012
27.535,0.010
27.540,0.006
27.545,0.000
27.550,-0.002
27.555,-0.005
27.560,-0.010
27.565,-0.013
27.570,-0.013
27.575,-0.015
27.580,-0.015
27.585,-0.014
27.590,-0.013
27.595,-0.003
27.600,0.011
27.605,0.000
27.610,-0.067
27.615,-0.223
27.620,-0.488
27.625,-0.768
27.630,-0.784
27.635,-0.442
27.640,-0.081
27.645,0.072
27.650,0.137
27.655,0.246
27.660,0.307
27.665,0.198
27.670,0.041
27.675,-0.017
27.680,-0.009
27.685,-0.022
27.690,-0.030
27.695,-0.005
27.700,-0.004
27.705,-0.022
27.710,-0.015
27.715,-0.005
27.720,-0.017
27.725,-0.023
27.730,-0.012
27.735,-0.014
27.740,-0.023
27.745,-0.024
27.750,-0.026
27.755,-0.032
27.760,-0.031
27.765,-0.030
27.770,-0.037
27.775,-0.040
27.780,-0.037
27.785,-0.047
27.790,-0.057
27.795,-0.056
27.800,-0.056
27.805,-0.058
27.810,-0.060
27.815,-0.069
27.820,-0.077
27.825,-0.082
27.830,-0.088
27.835,-0.092
27.840,-0.093
27.845,-0.098
27.850,-0.105
27.855,-0.112
27.860,-0.118
27.865,-0.124
27.870,-0.123
27.875,-0.122
27.880,-0.125
27.885,-0.126
27.890,-0.122
27.895,-0.112
27.900,-0.103
27.905,-0.094
27.910,-0.076
27.915,-0.053
27.920,-0.027
27.925,0.006
27.930,0.043
27.935,0.085
27.940,0.127
27.945,0.162
27.950,0.193
27.955,0.223
27.960,0.245
27.965,0.266
27.970,0.282
27.975,0.288
27.980,0.295
27.985,0.300
27.990,0.298
27.995,0.293
28.000,0.285
28.005,0.275
28.010,0.267
28.015,0.261
28.020,0.252
28.025,0.240
28.030,0.224
28.035,0.212
28.040,0.199
28.045,0.183
28.050,0.173
28.055,0.166
28.060,0.156
28.065,0.141
28.070,0.128
28.075,0.119
28.080,0.113
28.085,0.103
28.090,0.091
28.095,0.085
28.100,0.079
28.105,0.070
28.110,0.061
28.115,0.054
28.120,0.047
28.125,0.040
28.130,0.038
28.135,0.034
28.140,0.028
28.145,0.027
28.150,0.020
28.155,0.011
28.160,0.008
28.165,0.005
28.170,0.001
28.175,-0.002
28.180,-0.003
28.185,-0.006
28.190,-0.011
28.195,-0.013
28.200,-0.015
28.205,-0.012
28.210,-0.012
28.215,-0.018
28.220,-0.020
28.225,-0.021
28.230,-0.021
28.235,-0.020
28.240,-0.026
28.245,-0.033
28.250,-0.034
28.255,-0.034
28.260,-0.035
28.265,-0.036
28.270,-0.037
28.275,-0.039
28.280,-0.039
28.285,-0.042
28.290,-0.041
28.295,-0.041
28.300,-0.046
28.305,-0.047
28.310,-0.047
28.315,-0.048
28.320,-0.044
28.325,-0.044
28.330,-0.045
28.335,-0.045
28.340,-0.049
28.345,-0.056
28.350,-0.067
28.355,-0.086
28.360,-0.108
28.365,-0.123
28.370,-0.125
28.375,-0.123
28.380,-0.120
28.385,-0.122
28.390,-0.130
28.395,-0.135
28.400,-0.136
28.405,-0.140
28.410,-0.133
28.415,-0.105
28.420,-0.069
28.425,-0.045
28.430,-0.033
28.435,-0.022
28.440,-0.006
28.445,0.011
28.450,0.022
28.455,0.033
28.460,0.038
28.465,0.032
28.470,0.031
28.475,0.035
28.480,0.034
28.485,0.033
28.490,0.032
28.495,0.029
28.500,0.027
28.505,0.023
28.510,0.018
28.515,0.012
28.520,0.007
28.525,0.006
28.530,0.007
28.535,0.005
28.540,-0.001
28.545,-0.008
28.550,-0.015
28.555,-0.015
28.560,-0.014
28.565,-0.016
28.570,-0.015
28.575,-0.006
28.580,0.012
28.585,0.019
28.590,-0.005
28.595,-0.080
28.600,-0.251
28.605,-0.529
28.610,-0.784
28.615,-0.719
28.620,-0.338
28.625,-0.020
28.630,0.094
28.635,0.153
28.640,0.263
28.645,0.302
28.650,0.168
28.655,0.020
28.660,-0.021
28.665,-0.013
28.670,-0.031
28.675,-0.034
28.680,-0.008
28.685,-0.011
28.690,-0.026
28.695,-0.015
28.700,-0.010
28.705,-0.023
28.710,-0.023
28.715,-0.017
28.720,-0.024
28.725,-0.028
28.730,-0.025
28.735,-0.030
28.740,-0.033
28.745,-0.031
28.750,-0.034
28.755,-0.041
28.760,-0.044
28.765,-0.043
28.770,-0.045
28.775,-0.050
28.780,-0.050
28.785,-0.052
28.790,-0.062
28.795,-0.066
28.800,-0.067
28.805,-0.072
28.810,-0.076
28.815,-0.083
28.820,-0.092
28.825,-0.098
28.830,-0.103
28.835,-0.104
28.840,-0.104
28.845,-0.112
28.850,-0.118
28.855,-0.118
28.860,-0.119
28.865,-0.118
28.870,-0.114
28.875,-0.112
28.880,-0.107
28.885,-0.099
28.890,-0.087
28.895,-0.070
28.900,-0.050
28.905,-0.024
28.910,0.014
28.915,0.052
28.920,0.085
28.925,0.119
28.930,0.155
28.935,0.191
28.940,0.222
28.945,0.247
28.950,0.266
28.955,0.281
28.960,0.292
28.965,0.296
28.970,0.298
28.975,0.298
28.980,0.290
28.985,0.281
28.990,0.274
28.995,0.265
29.000,0.253
29.005,0.238
29.010,0.225
29.015,0.216
29.020,0.207
29.025,0.195
29.030,0.184
29.035,0.173
29.040,0.159
29.045,0.150
29.050,0.143
29.055,0.130
29.060,0.116
29.065,0.105
29.070,0.099
29.075,0.093
29.080,0.086
29.085,0.080
29.090,0.073
29.095,0.061
29.100,0.050
29.105,0.043
29.110,0.039
29.115,0.032
29.120,0.026
29.125,0.023
29.130,0.021
29.135,0.018
29.140,0.011
29.145,0.000
29.150,-0.001
29.155,0.001
29.160,0.002
29.165,0.000
29.170,-0.003
29.175,-0.006
29.180,-0.011
29.185,-0.016
29.190,-0.016
29.195,-0.009
29.200,-0.004
29.205,-0.015
29.210,-0.026
29.215,-0.028
29.220,-0.031
29.225,-0.032
29.230,-0.034
29.235,-0.037
29.240,-0.036
29.245,-0.034
29.250,-0.036
29.255,-0.035
29.260,-0.033
29.265,-0.038
29.270,-0.040
29.275,-0.038
29.280,-0.036
29.285,-0.040
29.290,-0.050
29.295,-0.054
29.300,-0.049
29.305,-0.046
29.310,-0.047
29.315,-0.048
29.320,-0.049
29.325,-0.051
29.330,-0.056
29.335,-0.067
29.340,-0.087
29.345,-0.110
29.350,-0.122
29.355,-0.122
29.360,-0.117
29.365,-0.111
29.370,-0.116
29.375,-0.128
29.380,-0.135
29.385,-0.140
29.390,-0.145
29.395,-0.139
29.400,-0.111
29.405,-0.075
29.410,-0.049
29.415,-0.030
29.420,-0.018
29.425,-0.005
29.430,0.012
29.435,0.020
29.440,0.028
29.445,0.031
29.450,0.030
29.455,0.035
29.460,0.040
29.465,0.038
29.470,0.037
29.475,0.037
29.480,0.034
29.485,0.030
29.490,0.027
29.495,0.021
29.500,0.014
29.505,0.010
29.510,0.012
29.515,0.010
29.520,0.002
29.525,-0.006
29.530,-0.010
29.535,-0.017
29.540,-0.015
29.545,-0.009
29.550,-0.007
29.555,-0.005
29.560,0.002
29.565,0.018
29.570,0.031
29.575,0.008
29.580,-0.083
29.585,-0.262
29.590,-0.544
29.595,-0.803
29.600,-0.741
29.605,-0.369
29.610,-0.066
29.615,0.042
29.620,0.121
29.625,0.263
29.630,0.328
29.635,0.201
29.640,0.050
29.645,0.007
29.650,0.003
29.655,-0.023
29.660,-0.028
29.665,0.004
29.670,0.005
29.675,-0.017
29.680,-0.010
29.685,0.000
29.690,-0.010
29.695,-0.010
29.700,-0.004
29.705,-0.015
29.710,-0.027
29.715,-0.024
29.720,-0.023
29.725,-0.028
29.730,-0.031
29.735,-0.036
29.740,-0.042
29.745,-0.042
29.750,-0.043
29.755,-0.045
29.760,-0.048
29.765,-0.050
29.770,-0.055
29.775,-0.057
29.780,-0.059
29.785,-0.066
29.790,-0.072
29.795,-0.076
29.800,-0.081
29.805,-0.087
29.810,-0.091
29.815,-0.094
29.820,-0.097
29.825,-0.102
29.830,-0.111
29.835,-0.119
29.840,-0.120
29.845,-0.118
29.850,-0.117
29.855,-0.118
29.860,-0.115
29.865,-0.107
29.870,-0.097
29.875,-0.087
29.880,-0.070
29.885,-0.043
29.890,-0.015
29.895,0.014
29.900,0.048
29.905,0.082
29.910,0.120
29.915,0.157
29.920,0.188
29.925,0.217
29.930,0.244
29.935,0.265
29.940,0.276
29.945,0.281
29.950,0.286
29.955,0.289
29.960,0.288
29.965,0.281
29.970,0.273
29.975,0.268
29.980,0.261
29.985,0.251
29.990,0.241
29.995,0.226
30.000,0.211
30.005,0.203
30.010,0.193
30.015,0.180
30.020,0.169
30.025,0.156
30.030,0.145
30.035,0.136
30.040,0.125
30.045,0.116
30.050,0.105
30.055,0.092
30.060,0.086
30.065,0.079
30.070,0.070
30.075,0.062
30.080,0.054
30.085,0.049
30.090,0.043
30.095,0.037
30.100,0.033
30.105,0.028
30.110,0.021
30.115,0.017
30.120,0.018
30.125,0.012
30.130,0.002
30.135,-0.001
30.140,-0.002
30.145,0.000
30.150,-0.005
30.155,-0.012
30.160,-0.012
30.165,-0.010
30.170,-0.012
30.175,-0.013
30.180,-0.016
30.185,-0.019
30.190,-0.024
30.195,-0.027
30.200,-0.028
30.205,-0.028
30.210,-0.029
30.215,-0.031
30.220,-0.033
30.225,-0.033
30.230,-0.035
30.235,-0.033
30.240,-0.034
30.245,-0.041
30.250,-0.044
30.255,-0.042
30.260,-0.042
30.265,-0.044
30.270,-0.046
30.275,-0.044
30.280,-0.044
30.285,-0.047
30.290,-0.048
30.295,-0.047
30.300,-0.052
30.305,-0.053
30.310,-0.049
30.315,-0.047
30.320,-0.047
30.325,-0.051
30.330,-0.060
30.335,-0.074
30.340,-0.097
30.345,-0.115
30.350,-0.120
30.355,-0.120
30.360,-0.120
30.365,-0.121
30.370,-0.127
30.375,-0.134
30.380,-0.136
30.385,-0.132
30.390,-0.134
30.395,-0.128
30.400,-0.097
30.405,-0.061
30.410,-0.035
30.415,-0.019
30.420,-0.012
30.425,0.001
30.430,0.016
30.435,0.021
30.440,0.030
30.445,0.039
30.450,0.036
30.455,0.034
30.460,0.034
30.465,0.031
30.470,0.033
30.475,0.037
30.480,0.029
30.485,0.024
30.490,0.024
30.495,0.023
30.500,0.024
30.505,0.017
30.510,0.007
30.515,0.006
30.520,0.005
30.525,0.002
30.530,-0.003
30.535,-0.008
30.540,-0.008
30.545,-0.010
30.550,-0.013
30.555,-0.013
30.560,-0.007
30.565,0.010
30.570,0.026
30.575,0.016
30.580,-0.041
30.585,-0.179
30.590,-0.427
30.595,-0.731
30.600,-0.840
30.605,-0.557
30.610,-0.158
30.615,0.035
30.620,0.104
30.625,0.220
30.630,0.324
30.635,0.263
30.640,0.096
30.645,0.006
30.650,0.009
30.655,0.000
30.660,-0.023
30.665,-0.004
30.670,0.010
30.675,-0.008
30.680,-0.009
30.685,0.006
30.690,-0.001
30.695,-0.010
30.700,0.000
30.705,-0.001
30.710,-0.013
30.715,-0.012
30.720,-0.012
30.725,-0.023
30.730,-0.025
30.735,-0.026
30.740,-0.032
30.745,-0.033
30.750,-0.029
30.755,-0.028
30.760,-0.038
30.765,-0.048
30.770,-0.052
30.775,-0.053
30.780,-0.051
30.785,-0.056
30.790,-0.064
30.795,-0.068
30.800,-0.074
30.805,-0.077
30.810,-0.082
30.815,-0.089
30.820,-0.094
30.825,-0.102
30.830,-0.105
30.835,-0.104
30.840,-0.111
30.845,-0.116
30.850,-0.115
30.855,-0.113
30.860,-0.111
30.865,-0.110
30.870,-0.102
30.875,-0.089
30.880,-0.076
30.885,-0.056
30.890,-0.029
30.895,0.002
30.900,0.039
30.905,0.073
30.910,0.109
30.915,0.149
30.920,0.180
30.925,0.209
30.930,0.236
30.935,0.252
30.940,0.269
30.945,0.284
30.950,0.290
30.955,0.294
30.960,0.292
30.965,0.287
30.970,0.282
30.975,0.274
30.980,0.264
30.985,0.253
30.990,0.244
30.995,0.233
31.000,0.221
31.005,0.210
31.010,0.199
31.015,0.183
31.020,0.169
31.025,0.159
31.030,0.150
31.035,0.141
31.040,0.131
31.045,0.122
31.050,0.114
31.055,0.104
31.060,0.092
31.065,0.082
31.070,0.075
31.075,0.065
31.080,0.057
31.085,0.049
31.090,0.041
31.095,0.037
31.100,0.033
31.105,0.033
31.110,0.030
31.115,0.020
31.120,0.013
31.125,0.008
31.130,0.006
31.135,0.004
31.140,-0.001
31.145,-0.004
31.150,-0.005
31.155,-0.005
31.160,-0.007
31.165,-0.011
31.170,-0.014
31.175,-0.017
31.180,-0.016
31.185,-0.017
31.190,-0.021
31.195,-0.025
31.200,-0.025
31.205,-0.022
31.210,-0.024
31.215,-0.028
31.220,-0.029
31.225,-0.034
31.230,-0.036
31.235,-0.037
31.240,-0.039
31.245,-0.036
31.250,-0.036
31.255,-0.039
31.260,-0.038
31.265,-0.038
31.270,-0.041
31.275,-0.043
31.280,-0.043
31.285,-0.045
31.290,-0.047
31.295,-0.050
31.300,-0.052
31.305,-0.048
31.310,-0.050
31.315,-0.064
31.320,-0.082
31.325,-0.102
31.330,-0.118
31.335,-0.121
31.340,-0.119
31.345,-0.116
31.350,-0.116
31.355,-0.122
31.360,-0.132
31.365,-0.136
31.370,-0.134
31.375,-0.131
31.380,-0.120
31.385,-0.090
31.390,-0.055
31.395,-0.029
31.400,-0.016
31.405,-0.014
31.410,-0.005
31.415,0.012
31.420,0.023
31.425,0.034
31.430,0.041
31.435,0.038
31.440,0.035
31.445,0.034
31.450,0.031
31.455,0.030
31.460,0.031
31.465,0.031
31.470,0.025
31.475,0.018
31.480,0.015
31.485,0.012
31.490,0.009
31.495,0.006
31.500,0.004
31.505,0.003
31.510,-0.004
31.515,-0.012
31.520,-0.012
31.525,-0.011
31.530,-0.015
31.535,-0.019
31.540,-0.017
31.545,-0.009
31.550,0.006
31.555,0.014
31.560,-0.006
31.565,-0.086
31.570,-0.263
31.575,-0.540
31.580,-0.799
31.585,-0.744
31.590,-0.363
31.595,-0.037
31.600,0.086
31.605,0.152
31.610,0.260
31.615,0.297
31.620,0.170
31.625,0.025
31.630,-0.015
31.635,-0.008
31.640,-0.029
31.645,-0.035
31.650,-0.007
31.655,-0.010
31.660,-0.027
31.665,-0.013
31.670,-0.007
31.675,-0.022
31.680,-0.021
31.685,-0.012
31.690,-0.017
31.695,-0.023
31.700,-0.023
31.705,-0.025
31.710,-0.030
31.715,-0.029
31.720,-0.029
31.725,-0.035
31.730,-0.034
31.735,-0.035
31.740,-0.044
31.745,-0.047
31.750,-0.050
31.755,-0.057
31.760,-0.059
31.765,-0.062
31.770,-0.067
31.775,-0.068
31.780,-0.078
31.785,-0.092
31.790,-0.097
31.795,-0.098
31.800,-0.103
31.805,-0.111
31.810,-0.116
31.815,-0.119
31.820,-0.118
31.825,-0.124
31.830,-0.134
31.835,-0.130
31.840,-0.124
31.845,-0.124
31.850,-0.114
31.855,-0.103
31.860,-0.096
31.865,-0.082
31.870,-0.057
31.875,-0.023
31.880,0.018
31.885,0.057
31.890,0.095
31.895,0.132
31.900,0.160
31.905,0.191
31.910,0.220
31.915,0.236
31.920,0.252
31.925,0.266
31.930,0.278
31.935,0.289
31.940,0.301
31.945,0.307
31.950,0.295
31.955,0.267
31.960,0.248
31.965,0.248
31.970,0.244
31.975,0.232
31.980,0.219
31.985,0.196
31.990,0.180
31.995,0.172
32.000,0.155
32.005,0.144
32.010,0.135
32.015,0.121
32.020,0.114
32.025,0.104
32.030,0.094
32.035,0.087
32.040,0.071
32.045,0.061
32.050,0.061
32.055,0.055
32.060,0.049
32.065,0.044
32.070,0.040
32.075,0.035
32.080,0.027
32.085,0.020
32.090,0.011
32.095,0.003
32.100,0.003
32.105,0.007
32.110,0.005
32.115,0.001
32.120,0.002
32.125,0.002
32.130,-0.003
32.135,-0.010
32.140,-0.012
32.145,-0.013
32.150,-0.022
32.155,-0.023
32.160,-0.016
32.165,-0.017
32.170,-0.018
32.175,-0.015
32.180,-0.017
32.185,-0.024
32.190,-0.033
32.195,-0.035
32.200,-0.031
32.205,-0.031
32.210,-0.032
32.215,-0.030
32.220,-0.025
32.225,-0.023
32.230,-0.025
32.235,-0.025
32.240,-0.030
32.245,-0.037
32.250,-0.037
32.255,-0.034
32.260,-0.034
32.265,-0.035
32.270,-0.035
32.275,-0.036
32.280,-0.037
32.285,-0.042
32.290,-0.050
32.295,-0.058
32.300,-0.073
32.305,-0.094
32.310,-0.108
32.315,-0.107
32.320,-0.100
32.325,-0.100
32.330,-0.106
32.335,-0.115
32.340,-0.124
32.345,-0.127
32.350,-0.131
32.355,-0.125
32.360,-0.102
32.365,-0.070
32.370,-0.039
32.375,-0.014
32.380,0.005
32.385,0.015
32.390,0.027
32.395,0.041
32.400,0.051
32.405,0.059
32.410,0.059
32.415,0.055
32.420,0.056
32.425,0.058
32.430,0.059
32.435,0.059
32.440,0.056
32.445,0.056
32.450,0.053
32.455,0.043
32.460,0.034
32.465,0.031
32.470,0.031
32.475,0.026
32.480,0.024
32.485,0.025
32.490,0.019
32.495,0.013
32.500,0.009
32.505,0.009
32.510,0.012
32.515,0.014
32.520,0.019
32.525,0.036
32.530,0.047
32.535,0.024
32.540,-0.057
32.545,-0.230
32.550,-0.505
32.555,-0.754
32.560,-0.686
32.565,-0.310
32.570,-0.010
32.575,0.093
32.580,0.158
32.585,0.275
32.590,0.314
32.595,0.183
32.600,0.036
32.605,-0.002
32.610,0.002
32.615,-0.022
32.620,-0.028
32.625,0.002
32.630,0.000
32.635,-0.016
32.640,-0.006
32.645,-0.002
32.650,-0.015
32.655,-0.013
32.660,-0.005
32.665,-0.012
32.670,-0.018
32.675,-0.016
32.680,-0.019
32.685,-0.025
32.690,-0.030
32.695,-0.031
32.700,-0.036
32.705,-0.043
32.710,-0.044
32.715,-0.046
32.720,-0.049
32.725,-0.057
32.730,-0.064
32.735,-0.063
32.740,-0.062
32.745,-0.069
32.750,-0.078
32.755,-0.081
32.760,-0.083
32.765,-0.089
32.770,-0.098
32.775,-0.109
32.780,-0.120
32.785,-0.124
32.790,-0.121
32.795,-0.120
32.800,-0.122
32.805,-0.125
32.810,-0.132
32.815,-0.137
32.820,-0.131
32.825,-0.120
32.830,-0.110
32.835,-0.098
32.840,-0.082
32.845,-0.058
32.850,-0.028
32.855,0.004
32.860,0.044
32.865,0.088
32.870,0.132
32.875,0.171
32.880,0.198
32.885,0.223
32.890,0.249
32.895,0.271
32.900,0.287
32.905,0.292
32.910,0.293
32.915,0.293
32.920,0.288
32.925,0.286
32.930,0.282
32.935,0.274
32.940,0.264
32.945,0.247
32.950,0.233
32.955,0.223
32.960,0.212
32.965,0.203
32.970,0.187
32.975,0.172
32.980,0.167
32.985,0.157
32.990,0.140
32.995,0.124
33.000,0.114
33.005,0.105
33.010,0.094
33.015,0.085
33.020,0.079
33.025,0.071
33.030,0.063
33.035,0.057
33.040,0.050
33.045,0.043
33.050,0.032
33.055,0.022
33.060,0.017
33.065,0.010
33.070,0.004
33.075,0.004
33.080,-0.001
33.085,-0.006
33.090,-0.001
33.095,-0.005
33.100,-0.015
33.105,-0.020
33.110,-0.025
33.115,-0.026
33.120,-0.025
33.125,-0.029
33.130,-0.030
33.135,-0.031
33.140,-0.037
33.145,-0.037
33.150,-0.034
33.155,-0.033
33.160,-0.039
33.165,-0.047
33.170,-0.045
33.175,-0.039
33.180,-0.043
33.185,-0.051
33.190,-0.050
33.195,-0.046
33.200,-0.049
33.205,-0.061
33.210,-0.066
33.215,-0.058
33.220,-0.054
33.225,-0.057
33.230,-0.060
33.235,-0.062
33.240,-0.064
33.245,-0.067
33.250,-0.074
33.255,-0.087
33.260,-0.107
33.265,-0.122
33.270,-0.126
33.275,-0.125
33.280,-0.122
33.285,-0.131
33.290,-0.144
33.295,-0.140
33.300,-0.140
33.305,-0.150
33.310,-0.146
33.315,-0.121
33.320,-0.083
33.325,-0.055
33.330,-0.041
33.335,-0.029
33.340,-0.009
33.345,0.008
33.350,0.014
33.355,0.023
33.360,0.029
33.365,0.028
33.370,0.031
33.375,0.030
33.380,0.025
33.385,0.023
33.390,0.020
33.395,0.019
33.400,0.016
33.405,0.012
33.410,0.007
33.415,0.006
33.420,0.009
33.425,0.012
33.430,0.005
33.435,-0.012
33.440,-0.022
33.445,-0.018
33.450,-0.010
33.455,-0.008
33.460,-0.016
33.465,-0.018
33.470,-0.011
33.475,0.004
33.480,0.025
33.485,0.019
33.490,-0.044
33.495,-0.188
33.500,-0.437
33.505,-0.745
33.510,-0.848
33.515,-0.561
33.520,-0.182
33.525,-0.008
33.530,0.062
33.535,0.188
33.540,0.317
33.545,0.274
33.550,0.105
33.555,0.015
33.560,0.006
33.565,-0.018
33.570,-0.034
33.575,-0.009
33.580,0.009
33.585,-0.006
33.590,-0.006
33.595,0.006
33.600,-0.006
33.605,-0.016
33.610,-0.007
33.615,-0.010
33.620,-0.025
33.625,-0.029
33.630,-0.026
33.635,-0.027
33.640,-0.023
33.645,-0.018
33.650,-0.021
33.655,-0.031
33.660,-0.042
33.665,-0.053
33.670,-0.056
33.675,-0.054
33.680,-0.052
33.685,-0.052
33.690,-0.057
33.695,-0.062
33.700,-0.067
33.705,-0.070
33.710,-0.078
33.715,-0.088
33.720,-0.095
33.725,-0.101
33.730,-0.107
33.735,-0.109
33.740,-0.106
33.745,-0.107
33.750,-0.116
33.755,-0.124
33.760,-0.126
33.765,-0.124
33.770,-0.122
33.775,-0.116
33.780,-0.106
33.785,-0.097
33.790,-0.085
33.795,-0.061
33.800,-0.027
33.805,0.016
33.810,0.057
33.815,0.090
33.820,0.124
33.825,0.163
33.830,0.202
33.835,0.233
33.840,0.258
33.845,0.284
33.850,0.301
33.855,0.306
33.860,0.307
33.865,0.310
33.870,0.310
33.875,0.303
33.880,0.294
33.885,0.289
33.890,0.280
33.895,0.266
33.900,0.252
33.905,0.238
33.910,0.224
33.915,0.215
33.920,0.206
33.925,0.194
33.930,0.179
33.935,0.166
33.940,0.158
33.945,0.144
33.950,0.130
33.955,0.121
33.960,0.111
33.965,0.105
33.970,0.097
33.975,0.087
33.980,0.082
33.985,0.071
33.990,0.055
33.995,0.047
34.000,0.041
34.005,0.035
34.010,0.032
34.015,0.025
34.020,0.015
34.025,0.011
34.030,0.010
34.035,0.008
34.040,0.006
34.045,0.001
34.050,-0.002
34.055,-0.003
34.060,-0.006
34.065,-0.006
34.070,-0.006
34.075,-0.014
34.080,-0.018
34.085,-0.016
34.090,-0.017
34.095,-0.019
34.100,-0.022
34.105,-0.024
34.110,-0.027
34.115,-0.030
34.120,-0.032
34.125,-0.032
34.130,-0.030
34.135,-0.032
34.140,-0.036
34.145,-0.040
34.150,-0.044
34.155,-0.040
34.160,-0.037
34.165,-0.044
34.170,-0.053
34.175,-0.063
34.180,-0.085
34.185,-0.109
34.190,-0.117
34.195,-0.117
34.200,-0.112
34.205,-0.115
34.210,-0.127
34.215,-0.133
34.220,-0.134
34.225,-0.137
34.230,-0.139
34.235,-0.122
34.240,-0.087
34.245,-0.057
34.250,-0.041
34.255,-0.031
34.260,-0.016
34.265,0.008
34.270,0.020
34.275,0.022
34.280,0.030
34.285,0.029
34.290,0.021
34.295,0.021
34.300,0.023
34.305,0.024
34.310,0.027
34.315,0.026
34.320,0.022
34.325,0.020
34.330,0.018
34.335,0.016
34.340,0.010
34.345,-0.002
34.350,-0.009
34.355,-0.008
34.360,-0.005
34.365,-0.011
34.370,-0.022
34.375,-0.028
34.380,-0.026
34.385,-0.023
34.390,-0.023
34.395,-0.016
34.400,0.005
34.405,0.017
34.410,-0.013
34.415,-0.110
34.420,-0.298
34.425,-0.584
34.430,-0.841
34.435,-0.772
34.440,-0.392
34.445,-0.080
34.450,0.040
34.455,0.124
34.460,0.256
34.465,0.304
34.470,0.171
34.475,0.025
34.480,-0.009
34.485,-0.006
34.490,-0.031
34.495,-0.034
34.500,-0.001
34.505,0.001
34.510,-0.017
34.515,-0.010
34.520,-0.001
34.525,-0.013
34.530,-0.019
34.535,-0.015
34.540,-0.019
34.545,-0.019
34.550,-0.016
34.555,-0.023
34.560,-0.032
34.565,-0.031
34.570,-0.030
34.575,-0.035
34.580,-0.038
34.585,-0.047
34.590,-0.052
34.595,-0.051
34.600,-0.055
34.605,-0.060
34.610,-0.065
34.615,-0.071
34.620,-0.077
34.625,-0.084
34.630,-0.090
34.635,-0.096
34.640,-0.102
34.645,-0.108
34.650,-0.112
34.655,-0.114
34.660,-0.121
34.665,-0.126
34.670,-0.125
34.675,-0.128
34.680,-0.133
34.685,-0.134
34.690,-0.132
34.695,-0.126
34.700,-0.122
34.705,-0.114
34.710,-0.097
34.715,-0.076
34.720,-0.048
34.725,-0.012
34.730,0.029
34.735,0.073
34.740,0.118
34.745,0.163
34.750,0.204
34.755,0.233
34.760,0.255
34.765,0.277
34.770,0.296
34.775,0.308
34.780,0.314
34.785,0.317
34.790,0.320
34.795,0.319
34.800,0.310
34.805,0.297
34.810,0.284
34.815,0.273
34.820,0.267
34.825,0.256
34.830,0.241
34.835,0.230
34.840,0.219
34.845,0.204
34.850,0.190
34.855,0.175
34.860,0.160
34.865,0.151
34.870,0.140
34.875,0.130
34.880,0.119
34.885,0.105
34.890,0.098
34.895,0.094
34.900,0.086
34.905,0.077
34.910,0.067
34.915,0.060
34.920,0.054
34.925,0.048
34.930,0.038
34.935,0.024
34.940,0.020
34.945,0.018
34.950,0.016
34.955,0.011
34.960,0.001
34.965,0.000
34.970,0.000
34.975,-0.002
34.980,0.000
34.985,0.000
34.990,-0.008
34.995,-0.018
35.000,-0.022
35.005,-0.026
35.010,-0.025
35.015,-0.022
35.020,-0.022
35.025,-0.023
35.030,-0.028
35.035,-0.033
35.040,-0.035
35.045,-0.036
35.050,-0.036
35.055,-0.038
35.060,-0.043
35.065,-0.045
35.070,-0.042
35.075,-0.039
35.080,-0.043
35.085,-0.047
35.090,-0.043
35.095,-0.039
35.100,-0.043
35.105,-0.052
35.110,-0.054
35.115,-0.054
35.120,-0.062
35.125,-0.077
35.130,-0.093
35.135,-0.110
35.140,-0.121
35.145,-0.124
35.150,-0.124
35.155,-0.123
35.160,-0.129
35.165,-0.137
35.170,-0.139
35.175,-0.141
35.180,-0.144
35.185,-0.131
35.190,-0.095
35.195,-0.058
35.200,-0.043
35.205,-0.036
35.210,-0.024
35.215,-0.002
35.220,0.019
35.225,0.024
35.230,0.026
35.235,0.028
35.240,0.025
35.245,0.027
35.250,0.028
35.255,0.028
35.260,0.030
35.265,0.026
35.270,0.020
35.275,0.016
35.280,0.020
35.285,0.019
35.290,0.006
35.295,0.001
35.300,0.002
35.305,0.003
35.310,0.006
35.315,-0.004
35.320,-0.019
35.325,-0.020
35.330,-0.020
35.335,-0.019
35.340,-0.019
35.345,-0.020
35.350,-0.004
35.355,0.013
35.360,0.001
35.365,-0.052
35.370,-0.181
35.375,-0.428
35.380,-0.728
35.385,-0.816
35.390,-0.529
35.395,-0.142
35.400,0.048
35.405,0.110
35.410,0.206
35.415,0.289
35.420,0.222
35.425,0.067
35.430,-0.015
35.435,-0.011
35.440,-0.015
35.445,-0.030
35.450,-0.008
35.455,0.005
35.460,-0.013
35.465,-0.013
35.470,0.002
35.475,-0.004
35.480,-0.014
35.485,-0.013
35.490,-0.013
35.495,-0.020
35.500,-0.023
35.505,-0.024
35.510,-0.027
35.515,-0.024
35.520,-0.026
35.525,-0.037
35.530,-0.043
35.535,-0.043
35.540,-0.044
35.545,-0.046
35.550,-0.050
35.555,-0.054
35.560,-0.057
35.565,-0.059
35.570,-0.065
35.575,-0.079
35.580,-0.086
35.585,-0.088
35.590,-0.095
35.595,-0.106
35.600,-0.114
35.605,-0.120
35.610,-0.123
35.615,-0.124
35.620,-0.130
35.625,-0.133
35.630,-0.133
35.635,-0.136
35.640,-0.138
35.645,-0.137
35.650,-0.132
35.655,-0.122
35.660,-0.109
35.665,-0.093
35.670,-0.065
35.675,-0.031
35.680,0.007
35.685,0.050
35.690,0.091
35.695,0.134
35.700,0.177
35.705,0.209
35.710,0.235
35.715,0.263
35.720,0.290
35.725,0.310
35.730,0.320
35.735,0.320
35.740,0.320
35.745,0.317
35.750,0.308
35.755,0.300
35.760,0.293
35.765,0.284
35.770,0.275
35.775,0.259
35.780,0.241
35.785,0.228
35.790,0.216
35.795,0.207
35.800,0.197
35.805,0.185
35.810,0.170
35.815,0.155
35.820,0.144
35.825,0.135
35.830,0.125
35.835,0.115
35.840,0.108
35.845,0.099
35.850,0.083
35.855,0.068
35.860,0.061
35.865,0.055
35.870,0.051
35.875,0.042
35.880,0.032
35.885,0.028
35.890,0.023
35.895,0.020
35.900,0.015
35.905,0.009
35.910,0.008
35.915,0.001
35.920,-0.008
35.925,-0.013
35.930,-0.016
35.935,-0.016
35.940,-0.015
35.945,-0.018
35.950,-0.022
35.955,-0.028
35.960,-0.033
35.965,-0.031
35.970,-0.029
35.975,-0.032
35.980,-0.033
35.985,-0.036
35.990,-0.042
35.995,-0.044
36.000,-0.043
36.005,-0.046
36.010,-0.046
36.015,-0.048
36.020,-0.050
36.025,-0.049
36.030,-0.049
36.035,-0.051
36.040,-0.054
36.045,-0.058
36.050,-0.059
36.055,-0.056
36.060,-0.059
36.065,-0.063
36.070,-0.060
36.075,-0.062
36.080,-0.065
36.085,-0.062
36.090,-0.059
36.095,-0.061
36.100,-0.064
36.105,-0.066
36.110,-0.069
36.115,-0.084
36.120,-0.109
36.125,-0.132
36.130,-0.137
36.135,-0.133
36.140,-0.132
36.145,-0.133
36.150,-0.138
36.155,-0.143
36.160,-0.142
36.165,-0.144
36.170,-0.148
36.175,-0.134
36.180,-0.100
36.185,-0.066
36.190,-0.044
36.195,-0.031
36.200,-0.018
36.205,0.004
36.210,0.014
36.215,0.012
36.220,0.020
36.225,0.027
36.230,0.029
36.235,0.031
36.240,0.030
36.245,0.029
36.250,0.027
36.255,0.023
36.260,0.023
36.265,0.023
36.270,0.020
36.275,0.013
36.280,0.008
36.285,0.008
36.290,0.008
36.295,0.004
36.300,-0.005
36.305,-0.012
36.310,-0.011
36.315,-0.009
36.320,-0.009
36.325,-0.008
36.330,-0.007
36.335,-0.006
36.340,-0.001
36.345,0.015
36.350,0.011
36.355,-0.038
36.360,-0.159
36.365,-0.394
36.370,-0.687
36.375,-0.787
36.380,-0.516
36.385,-0.129
36.390,0.068
36.395,0.128
36.400,0.218
36.405,0.295
36.410,0.224
36.415,0.074
36.420,-0.002
36.425,0.006
36.430,-0.007
36.435,-0.033
36.440,-0.010
36.445,0.008
36.450,-0.005
36.455,-0.003
36.460,0.007
36.465,0.000
36.470,-0.006
36.475,0.002
36.480,0.002
36.485,-0.008
36.490,-0.011
36.495,-0.013
36.500,-0.019
36.505,-0.019
36.510,-0.016
36.515,-0.022
36.520,-0.026
36.525,-0.028
36.530,-0.035
36.535,-0.043
36.540,-0.045
36.545,-0.045
36.550,-0.047
36.555,-0.048
36.560,-0.053
36.565,-0.060
36.570,-0.069
36.575,-0.077
36.580,-0.081
36.585,-0.087
36.590,-0.099
36.595,-0.106
36.600,-0.110
36.605,-0.119
36.610,-0.125
36.615,-0.126
36.620,-0.127
36.625,-0.130
36.630,-0.133
36.635,-0.129
36.640,-0.121
36.645,-0.115
36.650,-0.106
36.655,-0.087
36.660,-0.060
36.665,-0.029
36.670,0.005
36.675,0.044
36.680,0.087
36.685,0.129
36.690,0.167
36.695,0.207
36.700,0.246
36.705,0.276
36.710,0.297
36.715,0.312
36.720,0.322
36.725,0.323
36.730,0.320
36.735,0.318
36.740,0.316
36.745,0.310
36.750,0.302
36.755,0.292
36.760,0.281
36.765,0.270
36.770,0.255
36.775,0.242
36.780,0.231
36.785,0.215
36.790,0.204
36.795,0.191
36.800,0.173
36.805,0.163
36.810,0.156
36.815,0.143
36.820,0.127
36.825,0.112
36.830,0.104
36.835,0.098
36.840,0.089
36.845,0.083
36.850,0.077
36.855,0.067
36.860,0.057
36.865,0.053
36.870,0.047
36.875,0.038
36.880,0.033
36.885,0.026
36.890,0.018
36.895,0.013
36.900,0.006
36.905,0.004
36.910,0.000
36.915,-0.008
36.920,-0.011
36.925,-0.016
36.930,-0.019
36.935,-0.017
36.940,-0.016
36.945,-0.020
36.950,-0.026
36.955,-0.029
36.960,-0.026
36.965,-0.020
36.970,-0.021
36.975,-0.032
36.980,-0.038
36.985,-0.041
36.990,-0.039
36.995,-0.037
37.000,-0.039
37.005,-0.041
37.010,-0.045
37.015,-0.048
37.020,-0.048
37.025,-0.045
37.030,-0.044
37.035,-0.044
37.040,-0.043
37.045,-0.047
37.050,-0.056
37.055,-0.060
37.060,-0.059
37.065,-0.053
37.070,-0.048
37.075,-0.049
37.080,-0.052
37.085,-0.056
37.090,-0.067
37.095,-0.085
37.100,-0.102
37.105,-0.114
37.110,-0.120
37.115,-0.122
37.120,-0.120
37.125,-0.120
37.130,-0.126
37.135,-0.133
37.140,-0.138
37.145,-0.138
37.150,-0.137
37.155,-0.132
37.160,-0.105
37.165,-0.063
37.170,-0.034
37.175,-0.025
37.180,-0.023
37.185,-0.016
37.190,0.001
37.195,0.017
37.200,0.027
37.205,0.031
37.210,0.031
37.215,0.031
37.220,0.034
37.225,0.037
37.230,0.033
37.235,0.024
37.240,0.022
37.245,0.019
37.250,0.014
37.255,0.014
37.260,0.015
37.265,0.017
37.270,0.012
37.275,0.001
37.280,-0.003
37.285,-0.004
37.290,-0.010
37.295,-0.015
37.300,-0.015
37.305,-0.014
37.310,-0.016
37.315,-0.017
37.320,-0.012
37.325,-0.006
37.330,0.008
37.335,0.025
37.340,0.011
37.345,-0.062
37.350,-0.227
37.355,-0.501
37.360,-0.793
37.365,-0.811
37.370,-0.467
37.375,-0.112
37.380,0.036
37.385,0.107
37.390,0.235
37.395,0.317
37.400,0.219
37.405,0.064
37.410,0.004
37.415,0.007
37.420,-0.014
37.425,-0.031
37.430,-0.002
37.435,0.007
37.440,-0.010
37.445,-0.002
37.450,0.003
37.455,-0.011
37.460,-0.010
37.465,-0.001
37.470,-0.004
37.475,-0.012
37.480,-0.014
37.485,-0.016
37.490,-0.023
37.495,-0.025
37.500,-0.025
37.505,-0.031
37.510,-0.036
37.515,-0.039
37.520,-0.044
37.525,-0.046
37.530,-0.047
37.535,-0.050
37.540,-0.058
37.545,-0.065
37.550,-0.067
37.555,-0.072
37.560,-0.083
37.565,-0.092
37.570,-0.097
37.575,-0.099
37.580,-0.103
37.585,-0.113
37.590,-0.121
37.595,-0.123
37.600,-0.127
37.605,-0.131
37.610,-0.130
37.615,-0.132
37.620,-0.135
37.625,-0.133
37.630,-0.127
37.635,-0.117
37.640,-0.103
37.645,-0.083
37.650,-0.058
37.655,-0.028
37.660,0.007
37.665,0.049
37.670,0.094
37.675,0.135
37.680,0.173
37.685,0.207
37.690,0.235
37.695,0.259
37.700,0.278
37.705,0.297
37.710,0.312
37.715,0.313
37.720,0.310
37.725,0.308
37.730,0.302
37.735,0.294
37.740,0.284
37.745,0.275
37.750,0.266
37.755,0.251
37.760,0.239
37.765,0.229
37.770,0.215
37.775,0.200
37.780,0.189
37.785,0.178
37.790,0.164
37.795,0.150
37.800,0.140
37.805,0.132
37.810,0.122
37.815,0.112
37.820,0.101
37.825,0.087
37.830,0.080
37.835,0.072
37.840,0.063
37.845,0.054
37.850,0.047
37.855,0.043
37.860,0.039
37.865,0.034
37.870,0.028
37.875,0.022
37.880,0.018
37.885,0.008
37.890,0.002
37.895,0.000
37.900,-0.005
37.905,-0.003
37.910,-0.002
37.915,-0.009
37.920,-0.012
37.925,-0.012
37.930,-0.014
37.935,-0.015
37.940,-0.019
37.945,-0.028
37.950,-0.029
37.955,-0.029
37.960,-0.029
37.965,-0.027
37.970,-0.024
37.975,-0.028
37.980,-0.035
37.985,-0.038
37.990,-0.036
37.995,-0.035
38.000,-0.038
38.005,-0.040
38.010,-0.040
38.015,-0.042
38.020,-0.047
38.025,-0.050
38.030,-0.048
38.035,-0.046
38.040,-0.049
38.045,-0.051
38.050,-0.052
38.055,-0.053
38.060,-0.051
38.065,-0.048
38.070,-0.048
38.075,-0.053
38.080,-0.054
38.085,-0.057
38.090,-0.064
38.095,-0.077
38.100,-0.100
38.105,-0.117
38.110,-0.121
38.115,-0.120
38.120,-0.118
38.125,-0.117
38.130,-0.119
38.135,-0.121
38.140,-0.126
38.145,-0.129
38.150,-0.129
38.155,-0.124
38.160,-0.104
38.165,-0.070
38.170,-0.036
38.175,-0.020
38.180,-0.020
38.185,-0.016
38.190,0.000
38.195,0.014
38.200,0.025
38.205,0.033
38.210,0.033
38.215,0.033
38.220,0.037
38.225,0.034
38.230,0.028
38.235,0.024
38.240,0.022
38.245,0.022
38.250,0.021
38.255,0.017
38.260,0.018
38.265,0.017
38.270,0.011
38.275,0.009
38.280,0.007
38.285,0.002
38.290,-0.002
38.295,-0.005
38.300,-0.011
38.305,-0.018
38.310,-0.019
38.315,-0.016
38.320,-0.010
38.325,-0.006
38.330,0.004
38.335,0.023
38.340,0.019
38.345,-0.032
38.350,-0.158
38.355,-0.399
38.360,-0.708
38.365,-0.845
38.370,-0.598
38.375,-0.199
38.380,0.017
38.385,0.098
38.390,0.203
38.395,0.295
38.400,0.244
38.405,0.093
38.410,0.010
38.415,0.012
38.420,-0.002
38.425,-0.025
38.430,0.000
38.435,0.019
38.440,-0.002
38.445,-0.005
38.450,0.006
38.455,-0.008
38.460,-0.017
38.465,-0.009
38.470,-0.016
38.475,-0.026
38.480,-0.023
38.485,-0.014
38.490,-0.009
38.495,-0.016
38.500,-0.028
38.505,-0.036
38.510,-0.042
38.515,-0.046
38.520,-0.053
38.525,-0.063
38.530,-0.065
38.535,-0.065
38.540,-0.067
38.545,-0.067
38.550,-0.074
38.555,-0.083
38.560,-0.092
38.565,-0.098
38.570,-0.099
38.575,-0.105
38.580,-0.113
38.585,-0.119
38.590,-0.127
38.595,-0.130
38.600,-0.129
38.605,-0.132
38.610,-0.136
38.615,-0.137
38.620,-0.133
38.625,-0.130
38.630,-0.129
38.635,-0.121
38.640,-0.108
38.645,-0.094
38.650,-0.071
38.655,-0.042
38.660,-0.006
38.665,0.038
38.670,0.081
38.675,0.121
38.680,0.161
38.685,0.198
38.690,0.230
38.695,0.262
38.700,0.287
38.705,0.299
38.710,0.308
38.715,0.315
38.720,0.323
38.725,0.333
38.730,0.318
38.735,0.297
38.740,0.298
38.745,0.296
38.750,0.285
38.755,0.270
38.760,0.256
38.765,0.250
38.770,0.239
38.775,0.223
38.780,0.211
38.785,0.200
38.790,0.189
38.795,0.180
38.800,0.162
38.805,0.141
38.810,0.136
38.815,0.127
38.820,0.117
38.825,0.106
38.830,0.096
38.835,0.093
38.840,0.081
38.845,0.067
38.850,0.063
38.855,0.057
38.860,0.054
38.865,0.049
38.870,0.035
38.875,0.028
38.880,0.028
38.885,0.026
38.890,0.014
38.895,-0.003
38.900,-0.009
38.905,-0.002
38.910,0.002
38.915,-0.002
38.920,-0.003
38.925,-0.010
38.930,-0.011
38.935,-0.009
38.940,-0.014
38.945,-0.019
38.950,-0.022
38.955,-0.025
38.960,-0.029
38.965,-0.030
38.970,-0.028
38.975,-0.029
38.980,-0.033
38.985,-0.038
38.990,-0.040
38.995,-0.039
39.000,-0.040
39.005,-0.042
39.010,-0.041
39.015,-0.038
39.020,-0.039
39.025,-0.045
39.030,-0.045
39.035,-0.042
39.040,-0.035
39.045,-0.034
39.050,-0.044
39.055,-0.049
39.060,-0.048
39.065,-0.049
39.070,-0.048
39.075,-0.048
39.080,-0.052
39.085,-0.056
39.090,-0.068
39.095,-0.085
39.100,-0.101
39.105,-0.114
39.110,-0.118
39.115,-0.114
39.120,-0.111
39.125,-0.113
39.130,-0.116
39.135,-0.120
39.140,-0.126
39.145,-0.130
39.150,-0.128
39.155,-0.113
39.160,-0.083
39.165,-0.046
39.170,-0.016
39.175,-0.007
39.180,-0.009
39.185,-0.006
39.190,0.012
39.195,0.032
39.200,0.040
39.205,0.043
39.210,0.046
39.215,0.045
39.220,0.040
39.225,0.032
39.230,0.028
39.235,0.028
39.240,0.027
39.245,0.028
39.250,0.029
39.255,0.024
39.260,0.018
39.265,0.013
39.270,0.010
39.275,0.009
39.280,0.007
39.285,0.005
39.290,0.002
39.295,-0.005
39.300,-0.010
39.305,-0.011
39.310,-0.013
39.315,-0.012
39.320,-0.009
39.325,-0.005
39.330,0.008
39.335,0.015
39.340,-0.011
39.345,-0.092
39.350,-0.273
39.355,-0.557
39.360,-0.803
39.365,-0.720
39.370,-0.336
39.375,-0.026
39.380,0.094
39.385,0.162
39.390,0.251
39.395,0.256
39.400,0.124
39.405,-0.003
39.410,-0.028
39.415,-0.018
39.420,-0.036
39.425,-0.030
39.430,-0.002
39.435,-0.009
39.440,-0.021
39.445,-0.009
39.450,-0.010
39.455,-0.021
39.460,-0.017
39.465,-0.012
39.470,-0.016
39.475,-0.017
39.480,-0.016
39.485,-0.024
39.490,-0.029
39.495,-0.027
39.500,-0.029
39.505,-0.038
39.510,-0.044
39.515,-0.045
39.520,-0.048
39.525,-0.051
39.530,-0.051
39.535,-0.057
39.540,-0.065
39.545,-0.069
39.550,-0.073
39.555,-0.077
39.560,-0.080
39.565,-0.088
39.570,-0.101
39.575,-0.109
39.580,-0.110
39.585,-0.114
39.590,-0.119
39.595,-0.126
39.600,-0.134
39.605,-0.138
39.610,-0.139
39.615,-0.138
39.620,-0.132
39.625,-0.128
39.630,-0.124
39.635,-0.114
39.640,-0.102
39.645,-0.081
39.650,-0.052
39.655,-0.020
39.660,0.020
39.665,0.064
39.670,0.104
39.675,0.141
39.680,0.176
39.685,0.217
39.690,0.247
39.695,0.265
39.700,0.284
39.705,0.303
39.710,0.313
39.715,0.315
39.720,0.312
39.725,0.310
39.730,0.304
39.735,0.291
39.740,0.279
39.745,0.274
39.750,0.264
39.755,0.250
39.760,0.242
39.765,0.231
39.770,0.215
39.775,0.201
39.780,0.187
39.785,0.177
39.790,0.165
39.795,0.151
39.800,0.140
39.805,0.130
39.810,0.120
39.815,0.110
39.820,0.101
39.825,0.095
39.830,0.093
39.835,0.086
39.840,0.072
39.845,0.058
39.850,0.048
39.855,0.045
39.860,0.040
39.865,0.031
39.870,0.025
39.875,0.019
39.880,0.015
39.885,0.012
39.890,0.008
39.895,0.002
39.900,-0.003
39.905,-0.003
39.910,-0.002
39.915,-0.006
39.920,-0.010
39.925,-0.014
39.930,-0.015
39.935,-0.017
39.940,-0.022
39.945,-0.022
39.950,-0.019
39.955,-0.021
39.960,-0.027
39.965,-0.034
39.970,-0.033
39.975,-0.031
39.980,-0.034
39.985,-0.037
39.990,-0.038
39.995,-0.035
40.000,-0.033
40.005,-0.033
40.010,-0.036
40.015,-0.039
40.020,-0.044
40.025,-0.047
40.030,-0.047
40.035,-0.045
40.040,-0.045
40.045,-0.048
40.050,-0.050
40.055,-0.049
40.060,-0.048
40.065,-0.054
40.070,-0.062
40.075,-0.067
40.080,-0.079
40.085,-0.094
40.090,-0.112
40.095,-0.129
40.100,-0.133
40.105,-0.129
40.110,-0.123
40.115,-0.122
40.120,-0.128
40.125,-0.136
40.130,-0.140
40.135,-0.138
40.140,-0.127
40.145,-0.104
40.150,-0.070
40.155,-0.032
40.160,-0.013
40.165,-0.009
40.170,-0.005
40.175,0.006
40.180,0.019
40.185,0.021
40.190,0.024
40.195,0.033
40.200,0.039
40.205,0.038
40.210,0.034
40.215,0.034
40.220,0.031
40.225,0.022
40.230,0.020
40.235,0.021
40.240,0.019
40.245,0.013
40.250,0.007
40.255,0.007
40.260,0.009
40.265,0.003
40.270,-0.006
40.275,-0.011
40.280,-0.009
40.285,-0.005
40.290,-0.005
40.295,-0.006
40.300,-0.010
40.305,-0.014
40.310,-0.003
40.315,0.017
40.320,0.022
40.325,-0.013
40.330,-0.112
40.335,-0.316
40.340,-0.612
40.345,-0.811
40.350,-0.646
40.355,-0.247
40.360,0.009
40.365,0.091
40.370,0.170
40.375,0.278
40.380,0.269
40.385,0.117
40.390,-0.002
40.395,-0.017
40.400,-0.017
40.405,-0.039
40.410,-0.031
40.415,-0.003
40.420,-0.009
40.425,-0.021
40.430,-0.013
40.435,-0.015
40.440,-0.024
40.445,-0.017
40.450,-0.014
40.455,-0.019
40.460,-0.018
40.465,-0.018
40.470,-0.027
40.475,-0.034
40.480,-0.032
40.485,-0.033
40.490,-0.041
40.495,-0.044
40.500,-0.044
40.505,-0.044
40.510,-0.042
40.515,-0.052
40.520,-0.068
40.525,-0.069
40.530,-0.069
40.535,-0.070
40.540,-0.075
40.545,-0.083
40.550,-0.089
40.555,-0.096
40.560,-0.104
40.565,-0.111
40.570,-0.121
40.575,-0.126
40.580,-0.124
40.585,-0.121
40.590,-0.125
40.595,-0.132
40.600,-0.133
40.605,-0.131
40.610,-0.131
40.615,-0.123
40.620,-0.110
40.625,-0.094
40.630,-0.074
40.635,-0.050
40.640,-0.017
40.645,0.024
40.650,0.062
40.655,0.103
40.660,0.146
40.665,0.185
40.670,0.224
40.675,0.256
40.680,0.278
40.685,0.297
40.690,0.313
40.695,0.322
40.700,0.325
40.705,0.320
40.710,0.309
40.715,0.302
40.720,0.297
40.725,0.288
40.730,0.274
40.735,0.260
40.740,0.248
40.745,0.243
40.750,0.235
40.755,0.217
40.760,0.200
40.765,0.189
40.770,0.178
40.775,0.172
40.780,0.164
40.785,0.149
40.790,0.133
40.795,0.117
40.800,0.104
40.805,0.095
40.810,0.086
40.815,0.077
40.820,0.074
40.825,0.074
40.830,0.066
40.835,0.052
40.840,0.040
40.845,0.036
40.850,0.033
40.855,0.026
40.860,0.019
40.865,0.014
40.870,0.011
40.875,0.004
40.880,-0.001
40.885,-0.003
40.890,-0.010
40.895,-0.013
40.900,-0.012
40.905,-0.015
40.910,-0.018
40.915,-0.020
40.920,-0.018
40.925,-0.017
40.930,-0.023
40.935,-0.030
40.940,-0.029
40.945,-0.028
40.950,-0.028
40.955,-0.026
40.960,-0.030
40.965,-0.038
40.970,-0.042
40.975,-0.046
40.980,-0.048
40.985,-0.050
40.990,-0.050
40.995,-0.044
41.000,-0.039
41.005,-0.041
41.010,-0.046
41.015,-0.049
41.020,-0.051
41.025,-0.053
41.030,-0.055
41.035,-0.059
41.040,-0.065
41.045,-0.076
41.050,-0.092
41.055,-0.105
41.060,-0.118
41.065,-0.129
41.070,-0.129
41.075,-0.124
41.080,-0.118
41.085,-0.123
41.090,-0.135
41.095,-0.142
41.100,-0.144
41.105,-0.144
41.110,-0.124
41.115,-0.088
41.120,-0.058
41.125,-0.036
41.130,-0.023
41.135,-0.016
41.140,0.000
41.145,0.009
41.150,0.016
41.155,0.030
41.160,0.031
41.165,0.026
41.170,0.028
41.175,0.027
41.180,0.027
41.185,0.030
41.190,0.027
41.195,0.023
41.200,0.021
41.205,0.017
41.210,0.015
41.215,0.015
41.220,0.013
41.225,0.008
41.230,0.003
41.235,-0.004
41.240,-0.009
41.245,-0.013
41.250,-0.016
41.255,-0.017
41.260,-0.021
41.265,-0.021
41.270,-0.011
41.275,0.009
41.280,0.034
41.285,0.030
41.290,-0.030
41.295,-0.168
41.300,-0.412
41.305,-0.726
41.310,-0.883
41.315,-0.652
41.320,-0.252
41.325,-0.030
41.330,0.055
41.335,0.177
41.340,0.316
41.345,0.302
41.350,0.137
41.355,0.025
41.360,0.012
41.365,-0.005
41.370,-0.030
41.375,-0.006
41.380,0.020
41.385,0.001
41.390,-0.011
41.395,0.000
41.400,-0.004
41.405,-0.014
41.410,-0.006
41.415,-0.002
41.420,-0.011
41.425,-0.017
41.430,-0.018
41.435,-0.020
41.440,-0.023
41.445,-0.026
41.450,-0.029
41.455,-0.034
41.460,-0.040
41.465,-0.043
41.470,-0.047
41.475,-0.053
41.480,-0.057
41.485,-0.058
41.490,-0.059
41.495,-0.063
41.500,-0.074
41.505,-0.081
41.510,-0.084
41.515,-0.094
41.520,-0.102
41.525,-0.102
41.530,-0.103
41.535,-0.108
41.540,-0.117
41.545,-0.122
41.550,-0.121
41.555,-0.128
41.560,-0.134
41.565,-0.129
41.570,-0.122
41.575,-0.116
41.580,-0.115
41.585,-0.112
41.590,-0.097
41.595,-0.070
41.600,-0.038
41.605,-0.001
41.610,0.041
41.615,0.074
41.620,0.106
41.625,0.148
41.630,0.190
41.635,0.228
41.640,0.252
41.645,0.270
41.650,0.292
41.655,0.306
41.660,0.311
41.665,0.307
41.670,0.298
41.675,0.297
41.680,0.296
41.685,0.290
41.690,0.280
41.695,0.266
41.700,0.254
41.705,0.245
41.710,0.230
41.715,0.214
41.720,0.204
41.725,0.192
41.730,0.180
41.735,0.168
41.740,0.156
41.745,0.147
41.750,0.136
41.755,0.126
41.760,0.115
41.765,0.103
41.770,0.095
41.775,0.086
41.780,0.075
41.785,0.068
41.790,0.060
41.795,0.052
41.800,0.044
41.805,0.038
41.810,0.035
41.815,0.030
41.820,0.021
41.825,0.018
41.830,0.015
41.835,0.007
41.840,0.004
41.845,0.004
41.850,0.003
41.855,-0.001
41.860,-0.007
41.865,-0.008
41.870,-0.007
41.875,-0.013
41.880,-0.021
41.885,-0.021
41.890,-0.020
41.895,-0.020
41.900,-0.022
41.905,-0.020
41.910,-0.021
41.915,-0.026
41.920,-0.028
41.925,-0.030
41.930,-0.037
41.935,-0.042
41.940,-0.042
41.945,-0.040
41.950,-0.039
41.955,-0.044
41.960,-0.045
41.965,-0.043
41.970,-0.050
41.975,-0.060
41.980,-0.073
41.985,-0.095
41.990,-0.114
41.995,-0.121
42.000,-0.121
42.005,-0.114
42.010,-0.111
42.015,-0.123
42.020,-0.136
42.025,-0.141
42.030,-0.143
42.035,-0.140
42.040,-0.125
42.045,-0.097
42.050,-0.067
42.055,-0.045
42.060,-0.031
42.065,-0.015
42.070,0.005
42.075,0.014
42.080,0.020
42.085,0.029
42.090,0.031
42.095,0.028
42.100,0.028
42.105,0.027
42.110,0.027
42.115,0.029
42.120,0.026
42.125,0.022
42.130,0.016
42.135,0.014
42.140,0.017
42.145,0.010
42.150,-0.002
42.155,-0.005
42.160,-0.006
42.165,-0.007
42.170,-0.012
42.175,-0.021
42.180,-0.023
42.185,-0.023
42.190,-0.022
42.195,-0.014
42.200,-0.005
42.205,0.005
42.210,0.018
42.215,0.010
42.220,-0.055
42.225,-0.208
42.230,-0.465
42.235,-0.773
42.240,-0.882
42.245,-0.601
42.250,-0.211
42.255,-0.011
42.260,0.074
42.265,0.196
42.270,0.306
42.275,0.252
42.280,0.092
42.285,0.007
42.290,0.006
42.295,-0.007
42.300,-0.028
42.305,-0.007
42.310,0.012
42.315,-0.003
42.320,-0.004
42.325,0.009
42.330,0.000
42.335,-0.007
42.340,-0.001
42.345,-0.005
42.350,-0.016
42.355,-0.018
42.360,-0.019
42.365,-0.026
42.370,-0.027
42.375,-0.026
42.380,-0.030
42.385,-0.031
42.390,-0.033
42.395,-0.040
42.400,-0.044
42.405,-0.046
42.410,-0.053
42.415,-0.059
42.420,-0.061
42.425,-0.064
42.430,-0.072
42.435,-0.080
42.440,-0.087
42.445,-0.095
42.450,-0.104
42.455,-0.109
42.460,-0.111
42.465,-0.113
42.470,-0.120
42.475,-0.129
42.480,-0.136
42.485,-0.136
42.490,-0.134
42.495,-0.129
42.500,-0.125
42.505,-0.124
42.510,-0.117
42.515,-0.103
42.520,-0.084
42.525,-0.059
42.530,-0.029
42.535,0.005
42.540,0.050
42.545,0.094
42.550,0.127
42.555,0.166
42.560,0.205
42.565,0.239
42.570,0.265
42.575,0.281
42.580,0.295
42.585,0.307
42.590,0.313
42.595,0.313
42.600,0.309
42.605,0.304
42.610,0.298
42.615,0.288
42.620,0.277
42.625,0.263
42.630,0.248
42.635,0.239
42.640,0.229
42.645,0.215
42.650,0.199
42.655,0.184
42.660,0.174
42.665,0.165
42.670,0.151
42.675,0.135
42.680,0.128
42.685,0.123
42.690,0.115
42.695,0.107
42.700,0.096
42.705,0.083
42.710,0.073
42.715,0.063
42.720,0.057
42.725,0.055
42.730,0.045
42.735,0.035
42.740,0.034
42.745,0.026
42.750,0.017
42.755,0.014
42.760,0.010
42.765,0.008
42.770,0.005
42.775,0.000
42.780,-0.001
42.785,-0.008
42.790,-0.015
42.795,-0.014
42.800,-0.016
42.805,-0.016
42.810,-0.018
42.815,-0.020
42.820,-0.022
42.825,-0.026
42.830,-0.024
42.835,-0.026
42.840,-0.033
42.845,-0.033
42.850,-0.031
42.855,-0.031
42.860,-0.035
42.865,-0.038
42.870,-0.035
42.875,-0.035
42.880,-0.041
42.885,-0.043
42.890,-0.042
42.895,-0.040
42.900,-0.041
42.905,-0.047
42.910,-0.050
42.915,-0.057
42.920,-0.071
42.925,-0.085
42.930,-0.104
42.935,-0.115
42.940,-0.115
42.945,-0.119
42.950,-0.123
42.955,-0.124
42.960,-0.129
42.965,-0.136
42.970,-0.141
42.975,-0.146
42.980,-0.138
42.985,-0.111
42.990,-0.081
42.995,-0.055
43.000,-0.036
43.005,-0.025
43.010,-0.016
43.015,0.000
43.020,0.014
43.025,0.022
43.030,0.030
43.035,0.031
43.040,0.030
43.045,0.032
43.050,0.030
43.055,0.027
43.060,0.027
43.065,0.024
43.070,0.025
43.075,0.021
43.080,0.015
43.085,0.012
43.090,0.008
43.095,0.002
43.100,-0.001
43.105,-0.003
43.110,-0.008
43.115,-0.013
43.120,-0.017
43.125,-0.019
43.130,-0.018
43.135,-0.017
43.140,-0.014
43.145,-0.002
43.150,0.010
43.155,0.012
43.160,-0.016
43.165,-0.109
43.170,-0.302
43.175,-0.596
43.180,-0.838
43.185,-0.736
43.190,-0.354
43.195,-0.060
43.200,0.057
43.205,0.138
43.210,0.253
43.215,0.277
43.220,0.144
43.225,0.020
43.230,0.000
43.235,0.001
43.240,-0.023
43.245,-0.018
43.250,0.013
43.255,0.009
43.260,-0.006
43.265,0.003
43.270,0.008
43.275,-0.004
43.280,-0.007
43.285,-0.009
43.290,-0.024
43.295,-0.029
43.300,-0.024
43.305,-0.022
43.310,-0.021
43.315,-0.018
43.320,-0.018
43.325,-0.025
43.330,-0.031
43.335,-0.039
43.340,-0.050
43.345,-0.056
43.350,-0.055
43.355,-0.050
43.360,-0.049
43.365,-0.055
43.370,-0.059
43.375,-0.067
43.380,-0.078
43.385,-0.087
43.390,-0.099
43.395,-0.103
43.400,-0.105
43.405,-0.114
43.410,-0.118
43.415,-0.118
43.420,-0.124
43.425,-0.133
43.430,-0.139
43.435,-0.138
43.440,-0.139
43.445,-0.139
43.450,-0.130
43.455,-0.110
43.460,-0.088
43.465,-0.071
43.470,-0.049
43.475,-0.018
43.480,0.023
43.485,0.071
43.490,0.116
43.495,0.154
43.500,0.189
43.505,0.228
43.510,0.262
43.515,0.280
43.520,0.293
43.525,0.305
43.530,0.310
43.535,0.309
43.540,0.303
43.545,0.298
43.550,0.298
43.555,0.306
43.560,0.304
43.565,0.289
43.570,0.271
43.575,0.254
43.580,0.244
43.585,0.230
43.590,0.217
43.595,0.212
43.600,0.200
43.605,0.181
43.610,0.164
43.615,0.154
43.620,0.146
43.625,0.131
43.630,0.114
43.635,0.097
43.640,0.083
43.645,0.077
43.650,0.076
43.655,0.072
43.660,0.064
43.665,0.054
43.670,0.045
43.675,0.042
43.680,0.048
43.685,0.048
43.690,0.039
43.695,0.029
43.700,0.018
43.705,0.012
43.710,0.009
43.715,0.001
43.720,-0.008
43.725,-0.015
43.730,-0.021
43.735,-0.019
43.740,-0.020
43.745,-0.023
43.750,-0.019
43.755,-0.023
43.760,-0.032
43.765,-0.035
43.770,-0.034
43.775,-0.031
43.780,-0.032
43.785,-0.037
43.790,-0.037
43.795,-0.036
43.800,-0.037
43.805,-0.039
43.810,-0.044
43.815,-0.043
43.820,-0.044
43.825,-0.047
43.830,-0.049
43.835,-0.054
43.840,-0.054
43.845,-0.056
43.850,-0.073
43.855,-0.093
43.860,-0.108
43.865,-0.116
43.870,-0.118
43.875,-0.120
43.880,-0.122
43.885,-0.125
43.890,-0.136
43.895,-0.147
43.900,-0.149
43.905,-0.149
43.910,-0.141
43.915,-0.114
43.920,-0.082
43.925,-0.059
43.930,-0.045
43.935,-0.034
43.940,-0.017
43.945,-0.002
43.950,0.005
43.955,0.012
43.960,0.017
43.965,0.014
43.970,0.017
43.975,0.021
43.980,0.015
43.985,0.014
43.990,0.020
43.995,0.018
44.000,0.013
44.005,0.006
44.010,0.001
44.015,0.001
44.020,-0.005
44.025,-0.010
44.030,-0.014
44.035,-0.020
44.040,-0.023
44.045,-0.023
44.050,-0.029
44.055,-0.034
44.060,-0.036
44.065,-0.034
44.070,-0.026
44.075,-0.008
44.080,0.016
44.085,0.012
44.090,-0.052
44.095,-0.194
44.100,-0.442
44.105,-0.768
44.110,-0.955
44.115,-0.739
44.120,-0.309
44.125,-0.047
44.130,0.059
44.135,0.176
44.140,0.307
44.145,0.302
44.150,0.142
44.155,0.027
44.160,0.022
44.165,0.018
44.170,-0.007
44.175,0.005
44.180,0.026
44.185,0.010
44.190,0.004
44.195,0.013
44.200,0.007
44.205,0.000
44.210,0.001
44.215,0.001
44.220,-0.003
44.225,-0.003
44.230,-0.003
44.235,-0.011
44.240,-0.015
44.245,-0.014
44.250,-0.018
44.255,-0.022
44.260,-0.023
44.265,-0.026
44.270,-0.037
44.275,-0.049
44.280,-0.054
44.285,-0.053
44.290,-0.053
44.295,-0.061
44.300,-0.068
44.305,-0.075
44.310,-0.085
44.315,-0.089
44.320,-0.091
44.325,-0.092
44.330,-0.090
44.335,-0.093
44.340,-0.102
44.345,-0.112
44.350,-0.120
44.355,-0.123
44.360,-0.123
44.365,-0.122
44.370,-0.119
44.375,-0.110
44.380,-0.103
44.385,-0.092
44.390,-0.074
44.395,-0.056
44.400,-0.033
44.405,-0.004
44.410,0.034
44.415,0.075
44.420,0.112
44.425,0.153
44.430,0.194
44.435,0.223
44.440,0.244
44.445,0.275
44.450,0.302
44.455,0.300
44.460,0.292
44.465,0.294
44.470,0.298
44.475,0.301
44.480,0.283
44.485,0.260
44.490,0.272
44.495,0.266
44.500,0.236
44.505,0.233
44.510,0.224
44.515,0.210
44.520,0.201
44.525,0.186
44.530,0.185
44.535,0.164
44.540,0.122
44.545,0.115
44.550,0.125
44.555,0.122
44.560,0.110
44.565,0.098
44.570,0.093
44.575,0.084
44.580,0.073
44.585,0.069
44.590,0.060
44.595,0.046
44.600,0.045
44.605,0.048
44.610,0.042
44.615,0.037
44.620,0.034
44.625,0.030
44.630,0.026
44.635,0.019
44.640,0.014
44.645,0.015
44.650,0.014
44.655,0.013
44.660,0.009
44.665,0.004
44.670,0.000
44.675,0.001
44.680,0.005
44.685,0.000
44.690,-0.008
44.695,-0.009
44.700,-0.012
44.705,-0.015
44.710,-0.018
44.715,-0.016
44.720,-0.010
44.725,-0.011
44.730,-0.015
44.735,-0.014
44.740,-0.012
44.745,-0.015
44.750,-0.020
44.755,-0.027
44.760,-0.035
44.765,-0.045
44.770,-0.062
44.775,-0.078
44.780,-0.086
44.785,-0.089
44.790,-0.094
44.795,-0.096
44.800,-0.101
44.805,-0.104
44.810,-0.105
44.815,-0.115
44.820,-0.120
44.825,-0.107
44.830,-0.081
44.835,-0.053
44.840,-0.034
44.845,-0.029
44.850,-0.017
44.855,0.013
44.860,0.037
