'Elapsed time','ECG'
'seconds','mV'
0.000,-0.014
0.005,-0.031
0.010,-0.080
0.015,-0.099
0.020,-0.013
0.025,-0.018
0.030,-0.073
0.035,-0.021
0.040,0.005
0.045,-0.027
0.050,-0.009
0.055,0.030
0.060,0.022
0.065,0.022
0.070,0.049
0.075,0.052
0.080,0.052
0.085,0.073
0.090,0.086
0.095,0.091
0.100,0.104
0.105,0.119
0.110,0.125
0.115,0.127
0.120,0.138
0.125,0.144
0.130,0.144
0.135,0.149
0.140,0.146
0.145,0.136
0.150,0.126
0.155,0.120
0.160,0.109
0.165,0.092
0.170,0.078
0.175,0.057
0.180,0.032
0.185,0.010
0.190,-0.007
0.195,-0.023
0.200,-0.041
0.205,-0.050
0.210,-0.059
0.215,-0.071
0.220,-0.075
0.225,-0.081
0.230,-0.082
0.235,-0.081
0.240,-0.083
0.245,-0.081
0.250,-0.079
0.255,-0.070
0.260,-0.062
0.265,-0.062
0.270,-0.059
0.275,-0.061
0.280,-0.055
0.285,-0.045
0.290,-0.043
0.295,-0.040
0.300,-0.042
0.305,-0.037
0.310,-0.027
0.315,-0.023
0.320,-0.016
0.325,-0.012
0.330,-0.009
0.335,0.001
0.340,0.007
0.345,0.011
0.350,0.012
0.355,0.016
0.360,0.019
0.365,0.018
0.370,0.022
0.375,0.022
0.380,0.018
0.385,0.016
0.390,0.017
0.395,0.016
0.400,0.010
0.405,0.007
0.410,0.006
0.415,0.005
0.420,0.010
0.425,0.009
0.430,0.010
0.435,0.014
0.440,0.015
0.445,0.018
0.450,0.014
0.455,0.015
0.460,0.015
0.465,0.009
0.470,0.013
0.475,0.019
0.480,0.024
0.485,0.027
0.490,0.025
0.495,0.027
0.500,0.023
0.505,0.021
0.510,0.019
0.515,0.012
0.520,0.016
0.525,0.019
0.530,0.017
0.535,0.019
0.540,0.016
0.545,0.015
0.550,0.019
0.555,0.023
0.560,0.023
0.565,0.015
0.570,0.015
0.575,0.018
0.580,0.019
0.585,0.017
0.590,0.018
0.595,0.023
0.600,0.027
0.605,0.036
0.610,0.041
0.615,0.045
0.620,0.051
0.625,0.045
0.630,0.047
0.635,0.067
0.640,0.087
0.645,0.096
0.650,0.088
0.655,0.074
0.660,0.060
0.665,0.035
0.670,0.019
0.675,0.012
0.680,0.003
0.685,-0.010
0.690,-0.019
0.695,-0.023
0.700,-0.032
0.705,-0.033
0.710,-0.029
0.715,-0.029
0.720,-0.027
0.725,-0.031
0.730,-0.030
0.735,-0.023
0.740,-0.023
0.745,-0.024
0.750,-0.025
0.755,-0.024
0.760,-0.028
0.765,-0.052
0.770,-0.066
0.775,-0.028
0.780,0.085
0.785,0.305
0.790,0.605
0.795,0.947
0.800,1.163
0.805,0.938
0.810,0.363
0.815,-0.130
0.820,-0.338
0.825,-0.339
0.830,-0.301
0.835,-0.284
0.840,-0.243
0.845,-0.205
0.850,-0.217
0.855,-0.214
0.860,-0.186
0.865,-0.187
0.870,-0.184
0.875,-0.162
0.880,-0.152
0.885,-0.155
0.890,-0.144
0.895,-0.128
0.900,-0.130
0.905,-0.129
0.910,-0.123
0.915,-0.124
0.920,-0.116
0.925,-0.106
0.930,-0.100
0.935,-0.092
0.940,-0.086
0.945,-0.079
0.950,-0.075
0.955,-0.067
0.960,-0.057
0.965,-0.053
0.970,-0.044
0.975,-0.034
0.980,-0.027
0.985,-0.020
0.990,-0.010
0.995,0.001
1.000,0.008
1.005,0.017
1.010,0.025
1.015,0.031
1.020,0.041
1.025,0.046
1.030,0.053
1.035,0.064
1.040,0.075
1.045,0.084
1.050,0.085
1.055,0.093
1.060,0.101
1.065,0.101
1.070,0.103
1.075,0.096
1.080,0.084
1.085,0.071
1.090,0.051
1.095,0.032
1.100,0.011
1.105,-0.008
1.110,-0.025
1.115,-0.044
1.120,-0.054
1.125,-0.067
1.130,-0.081
1.135,-0.088
1.140,-0.091
1.145,-0.090
1.150,-0.093
1.155,-0.093
1.160,-0.089
1.165,-0.088
1.170,-0.083
1.175,-0.079
1.180,-0.077
1.185,-0.073
1.190,-0.068
1.195,-0.062
1.200,-0.062
1.205,-0.060
1.210,-0.055
1.215,-0.050
1.220,-0.042
1.225,-0.042
1.230,-0.043
1.235,-0.041
1.240,-0.038
1.245,-0.032
1.250,-0.030
1.255,-0.022
1.260,-0.020
1.265,-0.022
1.270,-0.011
1.275,-0.005
1.280,0.001
1.285,0.005
1.290,0.004
1.295,0.007
1.300,0.006
1.305,0.008
1.310,0.011
1.315,0.008
1.320,0.009
1.325,0.010
1.330,0.009
1.335,0.008
1.340,0.003
1.345,0.000
1.350,-0.002
1.355,0.001
1.360,0.004
1.365,0.001
1.370,0.003
1.375,0.006
1.380,0.008
1.385,0.011
1.390,0.012
1.395,0.013
1.400,0.012
1.405,0.017
1.410,0.020
1.415,0.017
1.420,0.019
1.425,0.021
1.430,0.023
1.435,0.027
1.440,0.028
1.445,0.026
1.450,0.025
1.455,0.028
1.460,0.030
1.465,0.024
1.470,0.022
1.475,0.018
1.480,0.017
1.485,0.019
1.490,0.017
1.495,0.018
1.500,0.014
1.505,0.016
1.510,0.023
1.515,0.021
1.520,0.022
1.525,0.018
1.530,0.012
1.535,0.014
1.540,0.013
1.545,0.008
1.550,0.005
1.555,0.010
1.560,0.017
1.565,0.020
1.570,0.025
1.575,0.029
1.580,0.033
1.585,0.034
1.590,0.031
1.595,0.041
1.600,0.060
1.605,0.078
1.610,0.085
1.615,0.072
1.620,0.057
1.625,0.040
1.630,0.016
1.635,0.004
1.640,-0.009
1.645,-0.019
1.650,-0.013
1.655,-0.016
1.660,-0.029
1.665,-0.043
1.670,-0.046
1.675,-0.040
1.680,-0.039
1.685,-0.041
1.690,-0.038
1.695,-0.030
1.700,-0.031
1.705,-0.027
1.710,-0.021
1.715,-0.026
1.720,-0.022
1.725,-0.024
1.730,-0.044
1.735,-0.041
1.740,0.013
1.745,0.152
1.750,0.402
1.755,0.719
1.760,1.042
1.765,1.126
1.770,0.748
1.775,0.182
1.780,-0.204
1.785,-0.328
1.790,-0.301
1.795,-0.271
1.800,-0.252
1.805,-0.208
1.810,-0.194
1.815,-0.212
1.820,-0.191
1.825,-0.165
1.830,-0.166
1.835,-0.153
1.840,-0.129
1.845,-0.129
1.850,-0.139
1.855,-0.127
1.860,-0.120
1.865,-0.123
1.870,-0.105
1.875,-0.091
1.880,-0.090
1.885,-0.084
1.890,-0.075
1.895,-0.067
1.900,-0.066
1.905,-0.063
1.910,-0.058
1.915,-0.060
1.920,-0.057
1.925,-0.055
1.930,-0.051
1.935,-0.041
1.940,-0.035
1.945,-0.027
1.950,-0.022
1.955,-0.011
1.960,-0.002
1.965,0.002
1.970,0.014
1.975,0.024
1.980,0.028
1.985,0.035
1.990,0.046
1.995,0.060
2.000,0.070
2.005,0.082
2.010,0.094
2.015,0.104
2.020,0.117
2.025,0.119
2.030,0.119
2.035,0.118
2.040,0.109
2.045,0.097
2.050,0.074
2.055,0.052
2.060,0.033
2.065,0.013
2.070,0.004
2.075,-0.012
2.080,-0.037
2.085,-0.058
2.090,-0.071
2.095,-0.075
2.100,-0.083
2.105,-0.093
2.110,-0.099
2.115,-0.107
2.120,-0.109
2.125,-0.114
2.130,-0.116
2.135,-0.108
2.140,-0.104
2.145,-0.100
2.150,-0.095
2.155,-0.089
2.160,-0.084
2.165,-0.085
2.170,-0.077
2.175,-0.065
2.180,-0.065
2.185,-0.066
2.190,-0.067
2.195,-0.063
2.200,-0.055
2.205,-0.047
2.210,-0.046
2.215,-0.047
2.220,-0.042
2.225,-0.038
2.230,-0.031
2.235,-0.020
2.240,-0.014
2.245,-0.011
2.250,-0.015
2.255,-0.013
2.260,-0.010
2.265,-0.011
2.270,-0.014
2.275,-0.024
2.280,-0.022
2.285,-0.011
2.290,-0.004
2.295,0.000
2.300,-0.003
2.305,-0.006
2.310,-0.008
2.315,-0.008
2.320,0.004
2.325,0.010
2.330,0.007
2.335,0.006
2.340,0.002
2.345,-0.001
2.350,-0.002
2.355,0.006
2.360,0.021
2.365,0.022
2.370,0.017
2.375,0.017
2.380,0.020
2.385,0.022
2.390,0.024
2.395,0.026
2.400,0.026
2.405,0.034
2.410,0.037
2.415,0.028
2.420,0.027
2.425,0.020
2.430,0.015
2.435,0.018
2.440,0.017
2.445,0.024
2.450,0.036
2.455,0.043
2.460,0.042
2.465,0.037
2.470,0.040
2.475,0.040
2.480,0.029
2.485,0.021
2.490,0.019
2.495,0.025
2.500,0.031
2.505,0.042
2.510,0.051
2.515,0.050
2.520,0.062
2.525,0.071
2.530,0.065
2.535,0.070
2.540,0.089
2.545,0.104
2.550,0.108
2.555,0.100
2.560,0.084
2.565,0.065
2.570,0.050
2.575,0.040
2.580,0.032
2.585,0.017
2.590,0.002
2.595,-0.006
2.600,-0.016
2.605,-0.025
2.610,-0.031
2.615,-0.033
2.620,-0.030
2.625,-0.033
2.630,-0.032
2.635,-0.031
2.640,-0.029
2.645,-0.024
2.650,-0.022
2.655,-0.019
2.660,-0.021
2.665,-0.036
2.670,-0.057
2.675,-0.065
2.680,-0.035
2.685,0.079
2.690,0.315
2.695,0.655
2.700,1.030
2.705,1.171
2.710,0.808
2.715,0.192
2.720,-0.228
2.725,-0.362
2.730,-0.343
2.735,-0.311
2.740,-0.283
2.745,-0.221
2.750,-0.193
2.755,-0.208
2.760,-0.191
2.765,-0.166
2.770,-0.171
2.775,-0.173
2.780,-0.157
2.785,-0.150
2.790,-0.151
2.795,-0.135
2.800,-0.125
2.805,-0.129
2.810,-0.126
2.815,-0.120
2.820,-0.117
2.825,-0.118
2.830,-0.116
2.835,-0.112
2.840,-0.106
2.845,-0.095
2.850,-0.088
2.855,-0.077
2.860,-0.069
2.865,-0.065
2.870,-0.056
2.875,-0.052
2.880,-0.048
2.885,-0.044
2.890,-0.038
2.895,-0.022
2.900,-0.012
2.905,-0.004
2.910,0.006
2.915,0.010
2.920,0.021
2.925,0.031
2.930,0.042
2.935,0.059
2.940,0.069
2.945,0.075
2.950,0.081
2.955,0.091
2.960,0.101
2.965,0.103
2.970,0.106
2.975,0.102
2.980,0.092
2.985,0.082
2.990,0.065
2.995,0.046
3.000,0.023
3.005,0.003
3.010,-0.015
3.015,-0.040
3.020,-0.059
3.025,-0.074
3.030,-0.089
3.035,-0.098
3.040,-0.103
3.045,-0.107
3.050,-0.111
3.055,-0.108
3.060,-0.104
3.065,-0.102
3.070,-0.094
3.075,-0.088
3.080,-0.078
3.085,-0.069
3.090,-0.072
3.095,-0.071
3.100,-0.068
3.105,-0.060
3.110,-0.049
3.115,-0.046
3.120,-0.035
3.125,-0.029
3.130,-0.027
3.135,-0.017
3.140,-0.009
3.145,-0.002
3.150,0.000
3.155,0.003
3.160,0.012
3.165,0.015
3.170,0.022
3.175,0.026
3.180,0.024
3.185,0.029
3.190,0.033
3.195,0.033
3.200,0.028
3.205,0.023
3.210,0.023
3.215,0.028
3.220,0.034
3.225,0.031
3.230,0.025
3.235,0.024
3.240,0.026
3.245,0.028
3.250,0.026
3.255,0.031
3.260,0.034
3.265,0.030
3.270,0.033
3.275,0.031
3.280,0.029
3.285,0.028
3.290,0.025
3.295,0.029
3.300,0.031
3.305,0.032
3.310,0.032
3.315,0.030
3.320,0.035
3.325,0.037
3.330,0.034
3.335,0.034
3.340,0.034
3.345,0.035
3.350,0.035
3.355,0.038
3.360,0.039
3.365,0.032
3.370,0.034
3.375,0.037
3.380,0.037
3.385,0.040
3.390,0.039
3.395,0.041
3.400,0.042
3.405,0.044
3.410,0.043
3.415,0.035
3.420,0.031
3.425,0.031
3.430,0.033
3.435,0.030
3.440,0.027
3.445,0.046
3.450,0.056
3.455,0.059
3.460,0.063
3.465,0.055
3.470,0.057
3.475,0.072
3.480,0.086
3.485,0.098
3.490,0.095
3.495,0.079
3.500,0.060
3.505,0.044
3.510,0.022
3.515,0.007
3.520,0.005
3.525,-0.009
3.530,-0.023
3.535,-0.025
3.540,-0.030
3.545,-0.036
3.550,-0.040
3.555,-0.037
3.560,-0.033
3.565,-0.037
3.570,-0.030
3.575,-0.024
3.580,-0.027
3.585,-0.029
3.590,-0.029
3.595,-0.029
3.600,-0.034
3.605,-0.052
3.610,-0.076
3.615,-0.066
3.620,0.018
3.625,0.204
3.630,0.488
3.635,0.827
3.640,1.120
3.645,1.055
3.650,0.542
3.655,-0.003
3.660,-0.294
3.665,-0.348
3.670,-0.306
3.675,-0.290
3.680,-0.261
3.685,-0.214
3.690,-0.216
3.695,-0.221
3.700,-0.191
3.705,-0.179
3.710,-0.187
3.715,-0.175
3.720,-0.152
3.725,-0.153
3.730,-0.152
3.735,-0.136
3.740,-0.133
3.745,-0.129
3.750,-0.117
3.755,-0.108
3.760,-0.104
3.765,-0.098
3.770,-0.089
3.775,-0.088
3.780,-0.087
3.785,-0.079
3.790,-0.075
3.795,-0.069
3.800,-0.062
3.805,-0.053
3.810,-0.044
3.815,-0.038
3.820,-0.027
3.825,-0.020
3.830,-0.014
3.835,-0.005
3.840,0.003
3.845,0.012
3.850,0.018
3.855,0.030
3.860,0.041
3.865,0.046
3.870,0.058
3.875,0.065
3.880,0.072
3.885,0.084
3.890,0.091
3.895,0.100
3.900,0.103
3.905,0.104
3.910,0.106
3.915,0.100
3.920,0.094
3.925,0.081
3.930,0.062
3.935,0.049
3.940,0.029
3.945,0.004
3.950,-0.020
3.955,-0.041
3.960,-0.058
3.965,-0.076
3.970,-0.088
3.975,-0.098
3.980,-0.109
3.985,-0.113
3.990,-0.112
3.995,-0.113
4.000,-0.114
4.005,-0.111
4.010,-0.109
4.015,-0.107
4.020,-0.100
4.025,-0.096
4.030,-0.092
4.035,-0.086
4.040,-0.080
4.045,-0.070
4.050,-0.067
4.055,-0.062
4.060,-0.056
4.065,-0.053
4.070,-0.044
4.075,-0.040
4.080,-0.037
4.085,-0.030
4.090,-0.028
4.095,-0.025
4.100,-0.024
4.105,-0.021
4.110,-0.016
4.115,-0.016
4.120,-0.008
4.125,-0.002
4.130,-0.001
4.135,0.006
4.140,0.009
4.145,0.012
4.150,0.013
4.155,0.012
4.160,0.012
4.165,0.005
4.170,0.005
4.175,0.007
4.180,0.003
4.185,0.002
4.190,0.002
4.195,0.003
4.200,0.003
4.205,0.006
4.210,0.010
4.215,0.011
4.220,0.016
4.225,0.020
4.230,0.024
4.235,0.029
4.240,0.029
4.245,0.028
4.250,0.026
4.255,0.031
4.260,0.035
4.265,0.031
4.270,0.031
4.275,0.029
4.280,0.030
4.285,0.034
4.290,0.033
4.295,0.032
4.300,0.028
4.305,0.027
4.310,0.029
4.315,0.026
4.320,0.028
4.325,0.026
4.330,0.025
4.335,0.030
4.340,0.033
4.345,0.035
4.350,0.032
4.355,0.031
4.360,0.034
4.365,0.031
4.370,0.032
4.375,0.032
4.380,0.033
4.385,0.040
4.390,0.044
4.395,0.047
4.400,0.048
4.405,0.054
4.410,0.058
4.415,0.051
4.420,0.059
4.425,0.081
4.430,0.099
4.435,0.105
4.440,0.094
4.445,0.074
4.450,0.053
4.455,0.031
4.460,0.017
4.465,0.007
4.470,-0.004
4.475,-0.022
4.480,-0.034
4.485,-0.040
4.490,-0.047
4.495,-0.048
4.500,-0.048
4.505,-0.043
4.510,-0.039
4.515,-0.044
4.520,-0.038
4.525,-0.034
4.530,-0.034
4.535,-0.029
4.540,-0.029
4.545,-0.029
4.550,-0.034
4.555,-0.054
4.560,-0.059
4.565,-0.010
4.570,0.132
4.575,0.377
4.580,0.676
4.585,0.999
4.590,1.146
4.595,0.837
4.600,0.266
4.605,-0.164
4.610,-0.327
4.615,-0.311
4.620,-0.280
4.625,-0.270
4.630,-0.237
4.635,-0.219
4.640,-0.236
4.645,-0.228
4.650,-0.206
4.655,-0.206
4.660,-0.201
4.665,-0.183
4.670,-0.175
4.675,-0.175
4.680,-0.160
4.685,-0.145
4.690,-0.144
4.695,-0.135
4.700,-0.131
4.705,-0.133
4.710,-0.127
4.715,-0.120
4.720,-0.114
4.725,-0.111
4.730,-0.106
4.735,-0.092
4.740,-0.082
4.745,-0.074
4.750,-0.070
4.755,-0.063
4.760,-0.051
4.765,-0.043
4.770,-0.032
4.775,-0.026
4.780,-0.023
4.785,-0.013
4.790,-0.005
4.795,0.002
4.800,0.009
4.805,0.013
4.810,0.019
4.815,0.023
4.820,0.028
4.825,0.028
4.830,0.050
4.835,0.076
4.840,0.077
4.845,0.083
4.850,0.087
4.855,0.100
4.860,0.109
4.865,0.095
4.870,0.090
4.875,0.081
4.880,0.060
4.885,0.045
4.890,0.029
4.895,0.009
4.900,-0.015
4.905,-0.034
4.910,-0.048
4.915,-0.062
4.920,-0.065
4.925,-0.069
4.930,-0.074
4.935,-0.073
4.940,-0.074
4.945,-0.075
4.950,-0.077
4.955,-0.076
4.960,-0.073
4.965,-0.078
4.970,-0.074
4.975,-0.067
4.980,-0.066
4.985,-0.061
4.990,-0.056
4.995,-0.051
5.000,-0.045
5.005,-0.037
5.010,-0.032
5.015,-0.032
5.020,-0.027
5.025,-0.022
5.030,-0.018
5.035,-0.014
5.040,-0.011
5.045,-0.007
5.050,-0.003
5.055,0.002
5.060,0.005
5.065,0.006
5.070,0.013
5.075,0.016
5.080,0.019
5.085,0.022
5.090,0.019
5.095,0.021
5.100,0.018
5.105,0.015
5.110,0.018
5.115,0.014
5.120,0.018
5.125,0.022
5.130,0.020
5.135,0.022
5.140,0.027
5.145,0.033
5.150,0.032
5.155,0.025
5.160,0.023
5.165,0.026
5.170,0.033
5.175,0.033
5.180,0.029
5.185,0.036
5.190,0.044
5.195,0.050
5.200,0.050
5.205,0.043
5.210,0.035
5.215,0.032
5.220,0.040
5.225,0.042
5.230,0.032
5.235,0.017
5.240,0.025
5.245,0.049
5.250,0.047
5.255,0.045
5.260,0.040
5.265,0.034
5.270,0.045
5.275,0.040
5.280,0.033
5.285,0.038
5.290,0.034
5.295,0.034
5.300,0.034
5.305,0.028
5.310,0.023
5.315,0.021
5.320,0.025
5.325,0.022
5.330,0.013
5.335,0.015
5.340,0.014
5.345,0.016
5.350,0.017
5.355,0.013
5.360,0.011
5.365,0.009
5.370,0.015
5.375,0.020
5.380,0.017
5.385,0.017
5.390,0.021
5.395,0.029
5.400,0.029
5.405,0.030
5.410,0.052
5.415,0.075
5.420,0.088
5.425,0.080
5.430,0.060
5.435,0.049
5.440,0.031
5.445,0.003
5.450,-0.014
5.455,-0.028
5.460,-0.042
5.465,-0.054
5.470,-0.056
5.475,-0.057
5.480,-0.055
5.485,-0.047
5.490,-0.046
5.495,-0.046
5.500,-0.050
5.505,-0.050
5.510,-0.047
5.515,-0.057
5.520,-0.056
5.525,-0.050
5.530,-0.050
5.535,-0.051
5.540,-0.072
5.545,-0.091
5.550,-0.077
5.555,0.001
5.560,0.197
5.565,0.496
5.570,0.864
5.575,1.132
5.580,0.954
5.585,0.391
5.590,-0.109
5.595,-0.328
5.600,-0.342
5.605,-0.307
5.610,-0.289
5.615,-0.243
5.620,-0.187
5.625,-0.189
5.630,-0.193
5.635,-0.170
5.640,-0.183
5.645,-0.200
5.650,-0.175
5.655,-0.148
5.660,-0.153
5.665,-0.158
5.670,-0.142
5.675,-0.133
5.680,-0.128
5.685,-0.114
5.690,-0.109
5.695,-0.102
5.700,-0.085
5.705,-0.074
5.710,-0.069
5.715,-0.069
5.720,-0.067
5.725,-0.063
5.730,-0.058
5.735,-0.044
5.740,-0.031
5.745,-0.021
5.750,-0.014
5.755,-0.010
5.760,-0.004
5.765,0.005
5.770,0.018
5.775,0.027
5.780,0.032
5.785,0.038
5.790,0.050
5.795,0.064
5.800,0.076
5.805,0.087
5.810,0.094
5.815,0.090
5.820,0.088
5.825,0.086
5.830,0.087
5.835,0.093
5.840,0.096
5.845,0.098
5.850,0.091
5.855,0.081
5.860,0.065
5.865,0.042
5.870,0.023
5.875,-0.002
5.880,-0.025
5.885,-0.033
5.890,-0.049
5.895,-0.066
5.900,-0.081
5.905,-0.090
5.910,-0.093
5.915,-0.100
5.920,-0.098
5.925,-0.096
5.930,-0.103
5.935,-0.104
5.940,-0.109
5.945,-0.111
5.950,-0.105
5.955,-0.096
5.960,-0.088
5.965,-0.086
5.970,-0.081
5.975,-0.076
5.980,-0.076
5.985,-0.075
5.990,-0.076
5.995,-0.072
6.000,-0.063
6.005,-0.054
6.010,-0.045
6.015,-0.042
6.020,-0.034
6.025,-0.020
6.030,-0.013
6.035,-0.009
6.040,-0.010
6.045,-0.013
6.050,-0.013
6.055,-0.010
6.060,-0.008
6.065,-0.012
6.070,-0.009
6.075,-0.001
6.080,0.007
6.085,0.011
6.090,0.007
6.095,0.005
6.100,0.003
6.105,0.004
6.110,0.007
6.115,0.002
6.120,0.006
6.125,0.013
6.130,0.012
6.135,0.013
6.140,0.015
6.145,0.016
6.150,0.017
6.155,0.022
6.160,0.022
6.165,0.017
6.170,0.030
6.175,0.036
6.180,0.027
6.185,0.022
6.190,0.019
6.195,0.022
6.200,0.030
6.205,0.036
6.210,0.040
6.215,0.039
6.220,0.031
6.225,0.027
6.230,0.030
6.235,0.029
6.240,0.025
6.245,0.029
6.250,0.035
6.255,0.045
6.260,0.054
6.265,0.054
6.270,0.049
6.275,0.034
6.280,0.021
6.285,0.022
6.290,0.026
6.295,0.027
6.300,0.023
6.305,0.027
6.310,0.039
6.315,0.047
6.320,0.059
6.325,0.068
6.330,0.071
6.335,0.067
6.340,0.050
6.345,0.043
6.350,0.069
6.355,0.105
6.360,0.119
6.365,0.108
6.370,0.098
6.375,0.083
6.380,0.055
6.385,0.031
6.390,0.013
6.395,-0.010
6.400,-0.038
6.405,-0.053
6.410,-0.052
6.415,-0.045
6.420,-0.040
6.425,-0.050
6.430,-0.056
6.435,-0.056
6.440,-0.053
6.445,-0.029
6.450,-0.012
6.455,-0.007
6.460,-0.010
6.465,-0.025
6.470,-0.024
6.475,-0.025
6.480,-0.042
6.485,-0.047
6.490,-0.026
6.495,0.077
6.500,0.305
6.505,0.640
6.510,1.027
6.515,1.212
6.520,0.891
6.525,0.254
6.530,-0.227
6.535,-0.392
6.540,-0.375
6.545,-0.332
6.550,-0.293
6.555,-0.215
6.560,-0.180
6.565,-0.213
6.570,-0.200
6.575,-0.164
6.580,-0.169
6.585,-0.170
6.590,-0.141
6.595,-0.120
6.600,-0.121
6.605,-0.116
6.610,-0.107
6.615,-0.103
6.620,-0.086
6.625,-0.070
6.630,-0.068
6.635,-0.075
6.640,-0.074
6.645,-0.064
6.650,-0.058
6.655,-0.048
6.660,-0.036
6.665,-0.036
6.670,-0.031
6.675,-0.023
6.680,-0.025
6.685,-0.018
6.690,-0.016
6.695,-0.018
6.700,-0.016
6.705,-0.008
6.710,0.015
6.715,0.033
6.720,0.051
6.725,0.057
6.730,0.048
6.735,0.046
6.740,0.049
6.745,0.063
6.750,0.081
6.755,0.093
6.760,0.095
6.765,0.091
6.770,0.104
6.775,0.120
6.780,0.117
6.785,0.103
6.790,0.077
6.795,0.051
6.800,0.035
6.805,0.024
6.810,0.009
6.815,-0.014
6.820,-0.030
6.825,-0.047
6.830,-0.069
6.835,-0.088
6.840,-0.109
6.845,-0.118
6.850,-0.123
6.855,-0.124
6.860,-0.120
6.865,-0.127
6.870,-0.131
6.875,-0.128
6.880,-0.124
6.885,-0.119
6.890,-0.116
6.895,-0.109
6.900,-0.103
6.905,-0.102
6.910,-0.096
6.915,-0.088
6.920,-0.071
6.925,-0.050
6.930,-0.037
6.935,-0.024
6.940,-0.027
6.945,-0.043
6.950,-0.049
6.955,-0.038
6.960,-0.018
6.965,-0.005
6.970,-0.010
6.975,-0.027
6.980,-0.028
6.985,-0.006
6.990,0.012
6.995,0.018
7.000,0.010
7.005,0.000
7.010,-0.012
7.015,-0.019
7.020,-0.005
7.025,0.007
7.030,0.010
7.035,0.013
7.040,0.014
7.045,0.011
7.050,-0.007
7.055,-0.016
7.060,-0.005
7.065,-0.009
7.070,-0.011
7.075,-0.007
7.080,0.010
7.085,0.032
7.090,0.029
7.095,0.022
7.100,0.024
7.105,0.023
7.110,0.021
7.115,0.013
7.120,0.013
7.125,0.008
7.130,0.006
7.135,0.026
7.140,0.044
7.145,0.057
7.150,0.059
7.155,0.048
7.160,0.041
7.165,0.033
7.170,0.037
7.175,0.054
7.180,0.063
7.185,0.067
7.190,0.062
7.195,0.041
7.200,0.027
7.205,0.031
7.210,0.037
7.215,0.036
7.220,0.050
7.225,0.070
7.230,0.084
7.235,0.095
7.240,0.094
7.245,0.099
7.250,0.112
7.255,0.121
7.260,0.116
7.265,0.101
7.270,0.102
7.275,0.100
7.280,0.087
7.285,0.082
7.290,0.073
7.295,0.062
7.300,0.039
7.305,0.013
7.310,-0.009
7.315,-0.030
7.320,-0.018
7.325,0.004
7.330,0.007
7.335,-0.005
7.340,-0.020
7.345,-0.018
7.350,-0.016
7.355,-0.032
7.360,-0.035
7.365,-0.032
7.370,-0.031
7.375,-0.031
7.380,-0.051
7.385,-0.075
7.390,-0.072
7.395,-0.010
7.400,0.171
7.405,0.469
7.410,0.839
7.415,1.189
7.420,1.190
7.425,0.638
7.430,-0.067
7.435,-0.471
7.440,-0.539
7.445,-0.452
7.450,-0.372
7.455,-0.299
7.460,-0.218
7.465,-0.208
7.470,-0.234
7.475,-0.212
7.480,-0.180
7.485,-0.181
7.490,-0.169
7.495,-0.132
7.500,-0.132
7.505,-0.146
7.510,-0.134
7.515,-0.124
7.520,-0.116
7.525,-0.109
7.530,-0.110
7.535,-0.108
7.540,-0.101
7.545,-0.087
7.550,-0.065
7.555,-0.048
7.560,-0.046
7.565,-0.053
7.570,-0.046
7.575,-0.023
7.580,-0.017
7.585,-0.017
7.590,-0.009
7.595,0.005
7.600,0.020
7.605,0.028
7.610,0.029
7.615,0.031
7.620,0.048
7.625,0.068
7.630,0.080
7.635,0.090
7.640,0.102
7.645,0.108
7.650,0.114
7.655,0.131
7.660,0.140
7.665,0.124
7.670,0.112
7.675,0.105
7.680,0.100
7.685,0.094
7.690,0.069
7.695,0.049
7.700,0.035
7.705,0.006
7.710,-0.035
7.715,-0.079
7.720,-0.113
7.725,-0.149
7.730,-0.186
7.735,-0.212
7.740,-0.231
7.745,-0.242
7.750,-0.248
7.755,-0.254
7.760,-0.257
7.765,-0.261
7.770,-0.257
7.775,-0.248
7.780,-0.249
7.785,-0.249
7.790,-0.240
7.795,-0.222
7.800,-0.202
7.805,-0.191
7.810,-0.191
7.815,-0.192
7.820,-0.177
7.825,-0.161
7.830,-0.148
7.835,-0.134
7.840,-0.125
7.845,-0.116
7.850,-0.104
7.855,-0.088
7.860,-0.078
7.865,-0.077
7.870,-0.071
7.875,-0.065
7.880,-0.058
7.885,-0.046
7.890,-0.035
7.895,-0.024
7.900,-0.019
7.905,-0.018
7.910,-0.012
7.915,-0.001
7.920,0.015
7.925,0.025
7.930,0.033
7.935,0.051
7.940,0.064
7.945,0.077
7.950,0.082
7.955,0.080
7.960,0.084
7.965,0.088
7.970,0.101
7.975,0.118
7.980,0.124
7.985,0.123
7.990,0.122
7.995,0.124
8.000,0.123
8.005,0.123
8.010,0.126
8.015,0.129
8.020,0.136
8.025,0.134
8.030,0.126
8.035,0.125
8.040,0.124
8.045,0.123
8.050,0.123
8.055,0.125
8.060,0.130
8.065,0.130
8.070,0.136
8.075,0.134
8.080,0.125
8.085,0.119
8.090,0.108
8.095,0.106
8.100,0.110
8.105,0.112
8.110,0.107
8.115,0.092
8.120,0.087
8.125,0.089
8.130,0.086
8.135,0.088
8.140,0.085
8.145,0.085
8.150,0.091
8.155,0.096
8.160,0.095
8.165,0.095
8.170,0.116
8.175,0.134
8.180,0.132
8.185,0.122
8.190,0.099
8.195,0.067
8.200,0.038
8.205,0.023
8.210,0.016
8.215,0.005
8.220,-0.002
8.225,-0.011
8.230,-0.021
8.235,-0.025
8.240,-0.026
8.245,-0.021
8.250,-0.018
8.255,-0.019
8.260,-0.013
8.265,-0.008
8.270,-0.002
8.275,0.003
8.280,0.006
8.285,0.008
8.290,-0.003
8.295,-0.020
8.300,-0.043
8.305,-0.037
8.310,0.030
8.315,0.191
8.320,0.470
8.325,0.818
8.330,1.164
8.335,1.234
8.340,0.772
8.345,0.099
8.350,-0.346
8.355,-0.474
8.360,-0.423
8.365,-0.363
8.370,-0.300
8.375,-0.219
8.380,-0.199
8.385,-0.220
8.390,-0.203
8.395,-0.180
8.400,-0.194
8.405,-0.195
8.410,-0.170
8.415,-0.163
8.420,-0.163
8.425,-0.151
8.430,-0.144
8.435,-0.142
8.440,-0.134
8.445,-0.130
8.450,-0.138
8.455,-0.138
8.460,-0.126
8.465,-0.118
8.470,-0.107
8.475,-0.095
8.480,-0.086
8.485,-0.075
8.490,-0.064
8.495,-0.052
8.500,-0.046
8.505,-0.040
8.510,-0.034
8.515,-0.034
8.520,-0.023
8.525,-0.011
8.530,-0.007
8.535,0.003
8.540,0.008
8.545,0.011
8.550,0.018
8.555,0.031
8.560,0.048
8.565,0.057
8.570,0.069
8.575,0.085
8.580,0.099
8.585,0.115
8.590,0.121
8.595,0.121
8.600,0.122
8.605,0.116
8.610,0.104
8.615,0.086
8.620,0.066
8.625,0.046
8.630,0.024
8.635,0.002
8.640,-0.026
8.645,-0.053
8.650,-0.076
8.655,-0.089
8.660,-0.097
8.665,-0.111
8.670,-0.117
8.675,-0.118
8.680,-0.118
8.685,-0.115
8.690,-0.117
8.695,-0.124
8.700,-0.131
8.705,-0.128
8.710,-0.113
8.715,-0.106
8.720,-0.101
8.725,-0.103
8.730,-0.104
8.735,-0.094
8.740,-0.091
8.745,-0.091
8.750,-0.090
8.755,-0.085
8.760,-0.076
8.765,-0.071
8.770,-0.063
8.775,-0.055
8.780,-0.051
8.785,-0.046
8.790,-0.042
8.795,-0.038
8.800,-0.031
8.805,-0.024
8.810,-0.016
8.815,-0.010
8.820,0.000
8.825,0.005
8.830,0.001
8.835,0.004
8.840,0.004
8.845,0.005
8.850,0.006
8.855,0.005
8.860,0.003
8.865,-0.002
8.870,0.002
8.875,0.005
8.880,0.006
8.885,0.012
8.890,0.012
8.895,0.013
8.900,0.019
8.905,0.030
8.910,0.039
8.915,0.040
8.920,0.046
8.925,0.054
8.930,0.055
8.935,0.057
8.940,0.051
8.945,0.047
8.950,0.047
8.955,0.049
8.960,0.052
8.965,0.047
8.970,0.043
8.975,0.043
8.980,0.043
8.985,0.049
8.990,0.052
8.995,0.048
9.000,0.041
9.005,0.034
9.010,0.028
9.015,0.022
9.020,0.023
9.025,0.024
9.030,0.021
9.035,0.022
9.040,0.019
9.045,0.017
9.050,0.020
9.055,0.025
9.060,0.029
9.065,0.026
9.070,0.030
9.075,0.033
9.080,0.033
9.085,0.040
9.090,0.041
9.095,0.044
9.100,0.048
9.105,0.051
9.110,0.058
9.115,0.054
9.120,0.051
9.125,0.061
9.130,0.079
9.135,0.094
9.140,0.091
9.145,0.075
9.150,0.059
9.155,0.043
9.160,0.026
9.165,0.009
9.170,-0.004
9.175,-0.024
9.180,-0.040
9.185,-0.044
9.190,-0.045
9.195,-0.038
9.200,-0.037
9.205,-0.041
9.210,-0.043
9.215,-0.052
9.220,-0.052
9.225,-0.049
9.230,-0.053
9.235,-0.047
9.240,-0.040
9.245,-0.043
9.250,-0.050
9.255,-0.068
9.260,-0.092
9.265,-0.075
9.270,0.029
9.275,0.240
9.280,0.537
9.285,0.887
9.290,1.166
9.295,1.044
9.300,0.486
9.305,-0.084
9.310,-0.378
9.315,-0.419
9.320,-0.367
9.325,-0.336
9.330,-0.285
9.335,-0.228
9.340,-0.234
9.345,-0.240
9.350,-0.207
9.355,-0.193
9.360,-0.197
9.365,-0.185
9.370,-0.168
9.375,-0.165
9.380,-0.160
9.385,-0.146
9.390,-0.149
9.395,-0.151
9.400,-0.137
9.405,-0.125
9.410,-0.119
9.415,-0.114
9.420,-0.103
9.425,-0.097
9.430,-0.090
9.435,-0.075
9.440,-0.065
9.445,-0.058
9.450,-0.051
9.455,-0.044
9.460,-0.035
9.465,-0.031
9.470,-0.022
9.475,-0.014
9.480,-0.007
9.485,0.004
9.490,0.011
9.495,0.018
9.500,0.025
9.505,0.032
9.510,0.043
9.515,0.053
9.520,0.067
9.525,0.078
9.530,0.083
9.535,0.098
9.540,0.108
9.545,0.111
9.550,0.114
9.555,0.115
9.560,0.118
9.565,0.114
9.570,0.106
9.575,0.094
9.580,0.070
9.585,0.047
9.590,0.025
9.595,0.003
9.600,-0.016
9.605,-0.036
9.610,-0.053
9.615,-0.067
9.620,-0.076
9.625,-0.088
9.630,-0.102
9.635,-0.104
9.640,-0.102
9.645,-0.099
9.650,-0.096
9.655,-0.095
9.660,-0.094
9.665,-0.095
9.670,-0.085
9.675,-0.076
9.680,-0.070
9.685,-0.062
9.690,-0.059
9.695,-0.053
9.700,-0.048
9.705,-0.046
9.710,-0.043
9.715,-0.045
9.720,-0.037
9.725,-0.028
9.730,-0.026
9.735,-0.021
9.740,-0.020
9.745,-0.018
9.750,-0.016
9.755,-0.015
9.760,-0.009
9.765,-0.008
9.770,-0.001
9.775,0.007
9.780,0.011
9.785,0.018
9.790,0.019
9.795,0.016
9.800,0.016
9.805,0.019
9.810,0.020
9.815,0.014
9.820,0.010
9.825,0.007
9.830,0.004
9.835,0.004
9.840,0.000
9.845,-0.003
9.850,-0.002
9.855,0.003
9.860,0.007
9.865,0.008
9.870,0.013
9.875,0.016
9.880,0.019
9.885,0.029
9.890,0.029
9.895,0.025
9.900,0.025
9.905,0.029
9.910,0.035
9.915,0.034
9.920,0.037
9.925,0.041
9.930,0.043
9.935,0.051
9.940,0.050
9.945,0.043
9.950,0.037
9.955,0.031
9.960,0.033
9.965,0.031
9.970,0.032
9.975,0.034
9.980,0.028
9.985,0.031
9.990,0.033
9.995,0.031
10.000,0.029
10.005,0.025
10.010,0.025
10.015,0.024
10.020,0.024
10.025,0.023
10.030,0.019
10.035,0.021
10.040,0.027
10.045,0.032
10.050,0.037
10.055,0.039
10.060,0.042
10.065,0.045
10.070,0.047
10.075,0.037
10.080,0.035
10.085,0.059
10.090,0.079
10.095,0.088
10.100,0.081
10.105,0.065
10.110,0.049
10.115,0.023
10.120,0.012
10.125,0.012
10.130,-0.002
10.135,-0.014
10.140,-0.024
10.145,-0.034
10.150,-0.036
10.155,-0.037
10.160,-0.033
10.165,-0.029
10.170,-0.024
10.175,-0.020
10.180,-0.021
10.185,-0.021
10.190,-0.027
10.195,-0.032
10.200,-0.027
10.205,-0.023
10.210,-0.030
10.215,-0.059
10.220,-0.067
10.225,-0.010
10.230,0.135
10.235,0.386
10.240,0.695
10.245,1.021
10.250,1.153
10.255,0.811
10.260,0.211
10.265,-0.235
10.270,-0.387
10.275,-0.358
10.280,-0.323
10.285,-0.289
10.290,-0.227
10.295,-0.195
10.300,-0.209
10.305,-0.200
10.310,-0.173
10.315,-0.178
10.320,-0.173
10.325,-0.148
10.330,-0.145
10.335,-0.145
10.340,-0.132
10.345,-0.122
10.350,-0.121
10.355,-0.118
10.360,-0.106
10.365,-0.103
10.370,-0.100
10.375,-0.095
10.380,-0.096
10.385,-0.087
10.390,-0.077
10.395,-0.071
10.400,-0.067
10.405,-0.063
10.410,-0.057
10.415,-0.054
10.420,-0.046
10.425,-0.041
10.430,-0.040
10.435,-0.035
10.440,-0.033
10.445,-0.029
10.450,-0.025
10.455,-0.016
10.460,-0.002
10.465,0.006
10.470,0.020
10.475,0.021
10.480,0.010
10.485,0.014
10.490,0.032
10.495,0.061
10.500,0.085
10.505,0.096
10.510,0.105
10.515,0.110
10.520,0.116
10.525,0.119
10.530,0.105
10.535,0.091
10.540,0.071
10.545,0.049
10.550,0.032
10.555,0.009
10.560,-0.014
10.565,-0.033
10.570,-0.046
10.575,-0.059
10.580,-0.076
10.585,-0.080
10.590,-0.085
10.595,-0.093
10.600,-0.095
10.605,-0.095
10.610,-0.092
10.615,-0.094
10.620,-0.096
10.625,-0.088
10.630,-0.083
10.635,-0.078
10.640,-0.072
10.645,-0.064
10.650,-0.056
10.655,-0.050
10.660,-0.049
10.665,-0.051
10.670,-0.051
10.675,-0.051
10.680,-0.047
10.685,-0.035
10.690,-0.034
10.695,-0.035
10.700,-0.034
10.705,-0.033
10.710,-0.026
10.715,-0.024
10.720,-0.012
10.725,-0.001
10.730,0.003
10.735,0.014
10.740,0.019
10.745,0.020
10.750,0.017
10.755,0.011
10.760,0.006
10.765,0.001
10.770,0.005
10.775,0.007
10.780,0.004
10.785,0.011
10.790,0.016
10.795,0.015
10.800,0.012
10.805,0.010
10.810,0.020
10.815,0.032
10.820,0.034
10.825,0.029
10.830,0.037
10.835,0.049
10.840,0.041
10.845,0.035
10.850,0.031
10.855,0.036
10.860,0.042
10.865,0.034
10.870,0.038
10.875,0.043
10.880,0.032
10.885,0.026
10.890,0.029
10.895,0.036
10.900,0.042
10.905,0.042
10.910,0.039
10.915,0.032
10.920,0.035
10.925,0.035
10.930,0.025
10.935,0.028
10.940,0.031
10.945,0.036
10.950,0.043
10.955,0.040
10.960,0.037
10.965,0.027
10.970,0.023
10.975,0.025
10.980,0.022
10.985,0.023
10.990,0.021
10.995,0.021
11.000,0.025
11.005,0.026
11.010,0.032
11.015,0.034
11.020,0.039
11.025,0.047
11.030,0.046
11.035,0.039
11.040,0.034
11.045,0.047
11.050,0.071
11.055,0.090
11.060,0.094
11.065,0.079
11.070,0.066
11.075,0.046
11.080,0.023
11.085,0.022
11.090,0.011
11.095,-0.010
11.100,-0.024
11.105,-0.035
11.110,-0.043
11.115,-0.051
11.120,-0.049
11.125,-0.042
11.130,-0.041
11.135,-0.035
11.140,-0.032
11.145,-0.035
11.150,-0.040
11.155,-0.044
11.160,-0.037
11.165,-0.032
11.170,-0.035
11.175,-0.053
11.180,-0.074
11.185,-0.050
11.190,0.034
11.195,0.221
11.200,0.516
11.205,0.877
11.210,1.158
11.215,1.008
11.220,0.431
11.225,-0.112
11.230,-0.368
11.235,-0.388
11.240,-0.346
11.245,-0.325
11.250,-0.271
11.255,-0.214
11.260,-0.215
11.265,-0.222
11.270,-0.192
11.275,-0.183
11.280,-0.194
11.285,-0.174
11.290,-0.157
11.295,-0.157
11.300,-0.145
11.305,-0.129
11.310,-0.124
11.315,-0.121
11.320,-0.101
11.325,-0.089
11.330,-0.095
11.335,-0.092
11.340,-0.090
11.345,-0.089
11.350,-0.084
11.355,-0.073
11.360,-0.061
11.365,-0.057
11.370,-0.047
11.375,-0.038
11.380,-0.035
11.385,-0.021
11.390,-0.014
11.395,-0.009
11.400,0.004
11.405,0.012
11.410,0.019
11.415,0.026
11.420,0.034
11.425,0.041
11.430,0.047
11.435,0.056
11.440,0.063
11.445,0.069
11.450,0.078
11.455,0.091
11.460,0.101
11.465,0.105
11.470,0.108
11.475,0.109
11.480,0.105
11.485,0.102
11.490,0.092
11.495,0.075
11.500,0.054
11.505,0.031
11.510,0.007
11.515,-0.025
11.520,-0.050
11.525,-0.073
11.530,-0.099
11.535,-0.112
11.540,-0.124
11.545,-0.135
11.550,-0.138
11.555,-0.144
11.560,-0.145
11.565,-0.147
11.570,-0.145
11.575,-0.141
11.580,-0.142
11.585,-0.135
11.590,-0.125
11.595,-0.115
11.600,-0.104
11.605,-0.104
11.610,-0.106
11.615,-0.108
11.620,-0.105
11.625,-0.097
11.630,-0.095
11.635,-0.086
11.640,-0.075
11.645,-0.066
11.650,-0.059
11.655,-0.056
11.660,-0.051
11.665,-0.045
11.670,-0.032
11.675,-0.021
11.680,-0.016
11.685,-0.006
11.690,0.001
11.695,0.007
11.700,0.010
11.705,0.009
11.710,0.009
11.715,0.007
11.720,0.011
11.725,0.012
11.730,0.009
11.735,0.014
11.740,0.013
11.745,0.013
11.750,0.018
11.755,0.020
11.760,0.023
11.765,0.022
11.770,0.024
11.775,0.025
11.780,0.022
11.785,0.027
11.790,0.033
11.795,0.035
11.800,0.037
11.805,0.040
11.810,0.046
11.815,0.048
11.820,0.052
11.825,0.056
11.830,0.057
11.835,0.062
11.840,0.064
11.845,0.062
11.850,0.065
11.855,0.067
11.860,0.069
11.865,0.067
11.870,0.068
11.875,0.068
11.880,0.066
11.885,0.070
11.890,0.070
11.895,0.067
11.900,0.064
11.905,0.060
11.910,0.060
11.915,0.056
11.920,0.055
11.925,0.052
11.930,0.044
11.935,0.041
11.940,0.035
11.945,0.031
11.950,0.029
11.955,0.023
11.960,0.023
11.965,0.024
11.970,0.031
11.975,0.038
11.980,0.037
11.985,0.040
11.990,0.045
11.995,0.053
12.000,0.061
12.005,0.055
12.010,0.058
12.015,0.081
12.020,0.107
12.025,0.116
12.030,0.104
12.035,0.089
12.040,0.077
12.045,0.058
12.050,0.041
12.055,0.034
12.060,0.023
12.065,0.010
12.070,0.009
12.075,0.004
12.080,-0.008
12.085,-0.012
12.090,-0.014
12.095,-0.011
12.100,-0.008
12.105,-0.010
12.110,-0.009
12.115,-0.009
12.120,-0.005
12.125,0.000
12.130,-0.001
12.135,0.000
12.140,-0.007
12.145,-0.030
12.150,-0.039
12.155,0.006
12.160,0.137
12.165,0.371
12.170,0.682
12.175,1.026
12.180,1.190
12.185,0.883
12.190,0.283
12.195,-0.179
12.200,-0.350
12.205,-0.335
12.210,-0.305
12.215,-0.289
12.220,-0.233
12.225,-0.196
12.230,-0.211
12.235,-0.202
12.240,-0.178
12.245,-0.184
12.250,-0.184
12.255,-0.162
12.260,-0.153
12.265,-0.158
12.270,-0.146
12.275,-0.137
12.280,-0.143
12.285,-0.135
12.290,-0.127
12.295,-0.126
12.300,-0.122
12.305,-0.117
12.310,-0.108
12.315,-0.105
12.320,-0.095
12.325,-0.086
12.330,-0.084
12.335,-0.073
12.340,-0.066
12.345,-0.062
12.350,-0.056
12.355,-0.050
12.360,-0.038
12.365,-0.032
12.370,-0.027
12.375,-0.019
12.380,-0.016
12.385,-0.002
12.390,0.011
12.395,0.020
12.400,0.031
12.405,0.042
12.410,0.056
12.415,0.067
12.420,0.078
12.425,0.086
12.430,0.088
12.435,0.095
12.440,0.100
12.445,0.102
12.450,0.101
12.455,0.094
12.460,0.081
12.465,0.064
12.470,0.048
12.475,0.028
12.480,0.003
12.485,-0.016
12.490,-0.038
12.495,-0.056
12.500,-0.071
12.505,-0.086
12.510,-0.097
12.515,-0.109
12.520,-0.110
12.525,-0.109
12.530,-0.113
12.535,-0.108
12.540,-0.108
12.545,-0.107
12.550,-0.101
12.555,-0.099
12.560,-0.094
12.565,-0.093
12.570,-0.087
12.575,-0.077
12.580,-0.074
12.585,-0.068
12.590,-0.065
12.595,-0.065
12.600,-0.059
12.605,-0.053
12.610,-0.048
12.615,-0.046
12.620,-0.042
12.625,-0.038
12.630,-0.036
12.635,-0.028
12.640,-0.023
12.645,-0.021
12.650,-0.016
12.655,-0.009
12.660,-0.004
12.665,-0.004
12.670,-0.001
12.675,0.004
12.680,0.006
12.685,0.012
12.690,0.012
12.695,0.010
12.700,0.009
12.705,0.008
12.710,0.009
12.715,0.005
12.720,0.004
12.725,0.002
12.730,-0.003
12.735,0.000
12.740,-0.002
12.745,-0.004
12.750,-0.002
12.755,-0.001
12.760,0.005
12.765,0.008
12.770,0.010
12.775,0.013
12.780,0.011
12.785,0.017
12.790,0.020
12.795,0.017
12.800,0.019
12.805,0.020
12.810,0.021
12.815,0.024
12.820,0.028
12.825,0.030
12.830,0.028
12.835,0.030
12.840,0.031
12.845,0.029
12.850,0.029
12.855,0.028
12.860,0.028
12.865,0.026
12.870,0.028
12.875,0.029
12.880,0.025
12.885,0.027
12.890,0.026
12.895,0.027
12.900,0.029
12.905,0.028
12.910,0.029
12.915,0.024
12.920,0.025
12.925,0.027
12.930,0.021
12.935,0.023
12.940,0.022
12.945,0.019
12.950,0.023
12.955,0.022
12.960,0.022
12.965,0.016
12.970,0.016
12.975,0.021
12.980,0.018
12.985,0.020
12.990,0.017
12.995,0.013
13.000,0.017
13.005,0.017
13.010,0.016
13.015,0.015
13.020,0.015
13.025,0.018
13.030,0.019
13.035,0.021
13.040,0.017
13.045,0.014
13.050,0.018
13.055,0.024
13.060,0.030
13.065,0.031
13.070,0.036
13.075,0.043
13.080,0.048
13.085,0.051
13.090,0.046
13.095,0.054
13.100,0.078
13.105,0.094
13.110,0.095
13.115,0.077
13.120,0.060
13.125,0.042
13.130,0.016
13.135,0.011
13.140,0.007
13.145,-0.017
13.150,-0.033
13.155,-0.038
13.160,-0.037
13.165,-0.040
13.170,-0.044
13.175,-0.043
13.180,-0.044
13.185,-0.044
13.190,-0.046
13.195,-0.046
13.200,-0.042
13.205,-0.043
13.210,-0.039
13.215,-0.035
13.220,-0.033
13.225,-0.045
13.230,-0.069
13.235,-0.049
13.240,0.050
13.245,0.252
13.250,0.539
13.255,0.862
13.260,1.137
13.265,1.062
13.270,0.565
13.275,0.014
13.280,-0.300
13.285,-0.347
13.290,-0.303
13.295,-0.292
13.300,-0.269
13.305,-0.234
13.310,-0.236
13.315,-0.248
13.320,-0.222
13.325,-0.205
13.330,-0.210
13.335,-0.195
13.340,-0.183
13.345,-0.181
13.350,-0.167
13.355,-0.154
13.360,-0.149
13.365,-0.147
13.370,-0.137
13.375,-0.124
13.380,-0.122
13.385,-0.114
13.390,-0.110
13.395,-0.111
13.400,-0.102
13.405,-0.095
13.410,-0.090
13.415,-0.084
13.420,-0.077
13.425,-0.069
13.430,-0.067
13.435,-0.060
13.440,-0.053
13.445,-0.049
13.450,-0.040
13.455,-0.031
13.460,-0.022
13.465,-0.013
13.470,-0.005
13.475,0.003
13.480,0.009
13.485,0.022
13.490,0.034
13.495,0.042
13.500,0.055
13.505,0.066
13.510,0.077
13.515,0.081
13.520,0.088
13.525,0.094
13.530,0.093
13.535,0.098
13.540,0.095
13.545,0.083
13.550,0.071
13.555,0.054
13.560,0.041
13.565,0.023
13.570,0.004
13.575,-0.016
13.580,-0.038
13.585,-0.048
13.590,-0.057
13.595,-0.069
13.600,-0.073
13.605,-0.080
13.610,-0.083
13.615,-0.082
13.620,-0.079
13.625,-0.075
13.630,-0.076
13.635,-0.073
13.640,-0.068
13.645,-0.063
13.650,-0.061
13.655,-0.063
13.660,-0.062
13.665,-0.062
13.670,-0.056
13.675,-0.053
13.680,-0.057
13.685,-0.054
13.690,-0.051
13.695,-0.047
13.700,-0.039
13.705,-0.035
13.710,-0.029
13.715,-0.027
13.720,-0.023
13.725,-0.016
13.730,-0.016
13.735,-0.009
13.740,-0.007
13.745,-0.006
13.750,0.000
13.755,0.001
13.760,0.002
13.765,0.001
13.770,0.001
13.775,0.005
13.780,0.004
13.785,0.011
13.790,0.016
13.795,0.014
13.800,0.016
13.805,0.015
13.810,0.014
13.815,0.013
13.820,0.012
13.825,0.015
13.830,0.017
13.835,0.024
13.840,0.026
13.845,0.024
13.850,0.026
13.855,0.029
13.860,0.032
13.865,0.034
13.870,0.039
13.875,0.043
13.880,0.042
13.885,0.045
13.890,0.044
13.895,0.041
13.900,0.041
13.905,0.041
13.910,0.045
13.915,0.045
13.920,0.047
13.925,0.045
13.930,0.038
13.935,0.038
13.940,0.041
13.945,0.042
13.950,0.041
13.955,0.036
13.960,0.038
13.965,0.037
13.970,0.036
13.975,0.031
13.980,0.020
13.985,0.020
13.990,0.021
13.995,0.021
14.000,0.025
14.005,0.022
14.010,0.019
14.015,0.023
14.020,0.028
14.025,0.029
14.030,0.022
14.035,0.019
14.040,0.022
14.045,0.021
14.050,0.020
14.055,0.021
14.060,0.020
14.065,0.016
14.070,0.013
14.075,0.012
14.080,0.009
14.085,0.012
14.090,0.010
14.095,0.009
14.100,0.013
14.105,0.014
14.110,0.016
14.115,0.016
14.120,0.019
14.125,0.023
14.130,0.021
14.135,0.022
14.140,0.018
14.145,0.012
14.150,0.016
14.155,0.016
14.160,0.016
14.165,0.011
14.170,0.006
14.175,0.008
14.180,0.004
14.185,0.005
14.190,0.005
14.195,0.000
14.200,0.002
14.205,0.001
14.210,0.000
14.215,-0.001
14.220,0.002
14.225,0.007
14.230,0.007
14.235,0.010
14.240,0.017
14.245,0.023
14.250,0.027
14.255,0.024
14.260,0.030
14.265,0.039
14.270,0.039
14.275,0.029
14.280,0.016
14.285,0.012
14.290,0.005
14.295,-0.008
14.300,-0.012
14.305,-0.017
14.310,-0.029
14.315,-0.041
14.320,-0.041
14.325,-0.038
14.330,-0.043
14.335,-0.040
14.340,-0.040
14.345,-0.038
14.350,-0.036
14.355,-0.037
14.360,-0.035
14.365,-0.048
14.370,-0.076
14.375,-0.075
14.380,-0.022
14.385,0.126
14.390,0.382
14.395,0.704
14.400,1.035
14.405,1.101
14.410,0.682
14.415,0.092
14.420,-0.275
14.425,-0.374
14.430,-0.347
14.435,-0.320
14.440,-0.292
14.445,-0.236
14.450,-0.215
14.455,-0.232
14.460,-0.214
14.465,-0.191
14.470,-0.200
14.475,-0.195
14.480,-0.180
14.485,-0.182
14.490,-0.187
14.495,-0.175
14.500,-0.162
14.505,-0.159
14.510,-0.144
14.515,-0.131
14.520,-0.121
14.525,-0.106
14.530,-0.095
14.535,-0.082
14.540,-0.072
14.545,-0.061
14.550,-0.048
14.555,-0.043
14.560,-0.037
14.565,-0.034
14.570,-0.028
14.575,-0.015
14.580,-0.008
14.585,0.001
14.590,0.005
14.595,0.010
14.600,0.022
14.605,0.032
14.610,0.041
14.615,0.048
14.620,0.054
14.625,0.064
14.630,0.067
14.635,0.074
14.640,0.081
14.645,0.086
14.650,0.094
14.655,0.101
14.660,0.105
14.665,0.106
14.670,0.110
14.675,0.111
14.680,0.107
14.685,0.107
14.690,0.097
14.695,0.082
14.700,0.068
14.705,0.053
14.710,0.039
14.715,0.022
14.720,0.006
14.725,-0.009
14.730,-0.028
14.735,-0.036
14.740,-0.044
14.745,-0.053
14.750,-0.057
14.755,-0.064
14.760,-0.065
14.765,-0.067
14.770,-0.068
14.775,-0.066
14.780,-0.070
14.785,-0.066
14.790,-0.061
14.795,-0.061
14.800,-0.056
14.805,-0.055
14.810,-0.052
14.815,-0.046
14.820,-0.043
14.825,-0.040
14.830,-0.043
14.835,-0.039
14.840,-0.031
14.845,-0.026
14.850,-0.020
14.855,-0.019
14.860,-0.017
14.865,-0.013
14.870,-0.007
14.875,-0.003
14.880,-0.003
14.885,0.001
14.890,0.003
14.895,0.005
14.900,0.010
14.905,0.009
14.910,0.007
14.915,0.005
14.920,0.008
14.925,0.010
14.930,0.006
14.935,0.010
14.940,0.001
14.945,-0.014
14.950,-0.011
14.955,-0.010
14.960,-0.009
14.965,-0.012
14.970,-0.015
14.975,-0.010
14.980,-0.012
14.985,-0.014
14.990,-0.013
14.995,-0.014
15.000,-0.013
15.005,-0.012
15.010,-0.009
15.015,-0.008
15.020,-0.005
15.025,0.001
15.030,0.004
15.035,0.008
15.040,0.010
15.045,0.009
15.050,0.010
15.055,0.010
15.060,0.011
15.065,0.011
15.070,0.013
15.075,0.013
15.080,0.010
15.085,0.015
15.090,0.017
15.095,0.016
15.100,0.016
15.105,0.015
15.110,0.018
15.115,0.018
15.120,0.018
15.125,0.017
15.130,0.011
15.135,0.015
15.140,0.015
15.145,0.011
15.150,0.012
15.155,0.010
15.160,0.012
15.165,0.012
15.170,0.010
15.175,0.012
15.180,0.008
15.185,0.012
15.190,0.017
15.195,0.015
15.200,0.017
15.205,0.015
15.210,0.014
15.215,0.015
15.220,0.017
15.225,0.020
15.230,0.018
15.235,0.020
15.240,0.021
15.245,0.020
15.250,0.021
15.255,0.020
15.260,0.019
15.265,0.018
15.270,0.020
15.275,0.020
15.280,0.016
15.285,0.018
15.290,0.023
15.295,0.022
15.300,0.012
15.305,0.006
15.310,0.008
15.315,0.010
15.320,0.015
15.325,0.013
15.330,0.010
15.335,0.015
15.340,0.008
15.345,-0.002
15.350,0.003
15.355,0.005
15.360,0.002
15.365,-0.003
15.370,-0.008
15.375,-0.007
15.380,-0.012
15.385,-0.011
15.390,-0.007
15.395,-0.008
15.400,-0.004
15.405,-0.002
15.410,0.003
15.415,0.008
15.420,0.003
15.425,0.005
15.430,0.023
15.435,0.048
15.440,0.059
15.445,0.048
15.450,0.029
15.455,0.011
15.460,-0.008
15.465,-0.022
15.470,-0.024
15.475,-0.031
15.480,-0.046
15.485,-0.049
15.490,-0.050
15.495,-0.054
15.500,-0.052
15.505,-0.053
15.510,-0.046
15.515,-0.041
15.520,-0.040
15.525,-0.035
15.530,-0.034
15.535,-0.024
15.540,-0.016
15.545,-0.013
15.550,-0.006
15.555,-0.011
15.560,-0.029
15.565,-0.031
15.570,0.027
15.575,0.175
15.580,0.418
15.585,0.729
15.590,1.055
15.595,1.183
15.600,0.855
15.605,0.273
15.610,-0.159
15.615,-0.314
15.620,-0.288
15.625,-0.255
15.630,-0.246
15.635,-0.206
15.640,-0.184
15.645,-0.200
15.650,-0.190
15.655,-0.169
15.660,-0.173
15.665,-0.170
15.670,-0.147
15.675,-0.141
15.680,-0.145
15.685,-0.131
15.690,-0.122
15.695,-0.120
15.700,-0.111
15.705,-0.104
15.710,-0.103
15.715,-0.102
15.720,-0.095
15.725,-0.089
15.730,-0.088
15.735,-0.080
15.740,-0.076
15.745,-0.074
15.750,-0.064
15.755,-0.060
15.760,-0.057
15.765,-0.055
15.770,-0.050
15.775,-0.042
15.780,-0.039
15.785,-0.030
15.790,-0.025
15.795,-0.024
15.800,-0.011
15.805,-0.001
15.810,0.005
15.815,0.009
15.820,0.013
15.825,0.022
15.830,0.028
15.835,0.035
15.840,0.038
15.845,0.037
15.850,0.043
15.855,0.050
15.860,0.056
15.865,0.059
15.870,0.061
15.875,0.061
15.880,0.052
15.885,0.044
15.890,0.029
15.895,0.010
15.900,-0.005
15.905,-0.021
15.910,-0.035
15.915,-0.051
15.920,-0.064
15.925,-0.073
15.930,-0.085
15.935,-0.086
15.940,-0.088
15.945,-0.091
15.950,-0.088
15.955,-0.091
15.960,-0.088
15.965,-0.085
15.970,-0.080
15.975,-0.073
15.980,-0.074
15.985,-0.069
15.990,-0.062
15.995,-0.062
16.000,-0.057
16.005,-0.057
16.010,-0.057
16.015,-0.054
16.020,-0.051
16.025,-0.047
16.030,-0.046
16.035,-0.040
16.040,-0.033
16.045,-0.030
16.050,-0.024
16.055,-0.021
16.060,-0.018
16.065,-0.012
16.070,-0.004
16.075,0.001
16.080,0.001
16.085,0.005
16.090,0.009
16.095,0.012
16.100,0.017
16.105,0.019
16.110,0.019
16.115,0.018
16.120,0.018
16.125,0.020
16.130,0.017
16.135,0.019
16.140,0.017
16.145,0.013
16.150,0.016
16.155,0.015
16.160,0.015
16.165,0.013
16.170,0.014
16.175,0.017
16.180,0.013
16.185,0.015
16.190,0.016
16.195,0.012
16.200,0.020
16.205,0.022
16.210,0.022
16.215,0.025
16.220,0.026
16.225,0.027
16.230,0.023
16.235,0.025
16.240,0.028
16.245,0.026
16.250,0.028
16.255,0.029
16.260,0.032
16.265,0.034
16.270,0.032
16.275,0.031
16.280,0.028
16.285,0.030
16.290,0.030
16.295,0.027
16.300,0.028
16.305,0.028
16.310,0.029
16.315,0.029
16.320,0.027
16.325,0.026
16.330,0.022
16.335,0.025
16.340,0.027
16.345,0.024
16.350,0.023
16.355,0.019
16.360,0.018
16.365,0.018
16.370,0.019
16.375,0.021
16.380,0.016
16.385,0.018
16.390,0.020
16.395,0.016
16.400,0.018
16.405,0.016
16.410,0.014
16.415,0.016
16.420,0.017
16.425,0.018
16.430,0.014
16.435,0.014
16.440,0.015
16.445,0.013
16.450,0.014
16.455,0.013
16.460,0.012
16.465,0.012
16.470,0.014
16.475,0.015
16.480,0.012
16.485,0.013
16.490,0.014
16.495,0.014
16.500,0.017
16.505,0.016
16.510,0.013
16.515,0.010
16.520,0.010
16.525,0.011
16.530,0.005
16.535,0.009
16.540,0.013
16.545,0.017
16.550,0.025
16.555,0.026
16.560,0.029
16.565,0.034
16.570,0.033
16.575,0.033
16.580,0.042
16.585,0.067
16.590,0.082
16.595,0.074
16.600,0.057
16.605,0.036
16.610,0.022
16.615,0.010
16.620,0.005
16.625,0.002
16.630,-0.011
16.635,-0.021
16.640,-0.027
16.645,-0.036
16.650,-0.035
16.655,-0.034
16.660,-0.033
16.665,-0.032
16.670,-0.034
16.675,-0.034
16.680,-0.032
16.685,-0.028
16.690,-0.027
16.695,-0.030
16.700,-0.034
16.705,-0.055
16.710,-0.067
16.715,-0.024
16.720,0.101
16.725,0.329
16.730,0.612
16.735,0.944
16.740,1.150
16.745,0.884
16.750,0.306
16.755,-0.167
16.760,-0.358
16.765,-0.339
16.770,-0.305
16.775,-0.294
16.780,-0.253
16.785,-0.220
16.790,-0.234
16.795,-0.230
16.800,-0.200
16.805,-0.203
16.810,-0.201
16.815,-0.173
16.820,-0.169
16.825,-0.171
16.830,-0.141
16.835,-0.117
16.840,-0.124
16.845,-0.126
16.850,-0.117
16.855,-0.110
16.860,-0.104
16.865,-0.104
16.870,-0.097
16.875,-0.086
16.880,-0.085
16.885,-0.076
16.890,-0.070
16.895,-0.066
16.900,-0.056
16.905,-0.049
16.910,-0.045
16.915,-0.041
16.920,-0.034
16.925,-0.024
16.930,-0.020
16.935,-0.010
16.940,-0.003
16.945,-0.001
16.950,0.009
16.955,0.016
16.960,0.024
16.965,0.031
16.970,0.038
16.975,0.048
16.980,0.052
16.985,0.060
16.990,0.066
16.995,0.067
17.000,0.076
17.005,0.082
17.010,0.085
17.015,0.086
17.020,0.083
17.025,0.080
17.030,0.069
17.035,0.055
17.040,0.038
17.045,0.018
17.050,0.004
17.055,-0.009
17.060,-0.025
17.065,-0.040
17.070,-0.052
17.075,-0.060
17.080,-0.065
17.085,-0.062
17.090,-0.061
17.095,-0.073
17.100,-0.080
17.105,-0.078
17.110,-0.072
17.115,-0.067
17.120,-0.067
17.125,-0.066
17.130,-0.065
17.135,-0.057
17.140,-0.053
17.145,-0.053
17.150,-0.049
17.155,-0.050
17.160,-0.048
17.165,-0.043
17.170,-0.040
17.175,-0.034
17.180,-0.033
17.185,-0.029
17.190,-0.025
17.195,-0.025
17.200,-0.021
17.205,-0.021
17.210,-0.018
17.215,-0.012
17.220,-0.008
17.225,-0.001
17.230,0.000
17.235,0.006
17.240,0.012
17.245,0.011
17.250,0.016
17.255,0.019
17.260,0.019
17.265,0.020
17.270,0.021
17.275,0.022
17.280,0.018
17.285,0.017
17.290,0.015
17.295,0.012
17.300,0.014
17.305,0.012
17.310,0.009
17.315,0.008
17.320,0.013
17.325,0.019
17.330,0.017
17.335,0.017
17.340,0.017
17.345,0.018
17.350,0.025
17.355,0.025
17.360,0.025
17.365,0.025
17.370,0.024
17.375,0.027
17.380,0.024
17.385,0.025
17.390,0.026
17.395,0.022
17.400,0.027
17.405,0.030
17.410,0.028
17.415,0.027
17.420,0.026
17.425,0.028
17.430,0.025
17.435,0.025
17.440,0.025
17.445,0.021
17.450,0.022
17.455,0.022
17.460,0.022
17.465,0.025
17.470,0.026
17.475,0.028
17.480,0.026
17.485,0.024
17.490,0.020
17.495,0.014
17.500,0.014
17.505,0.014
17.510,0.018
17.515,0.020
17.520,0.019
17.525,0.014
17.530,0.007
17.535,0.010
17.540,0.009
17.545,0.001
17.550,0.000
17.555,-0.001
17.560,0.004
17.565,0.008
17.570,0.008
17.575,0.010
17.580,0.003
17.585,0.001
17.590,0.003
17.595,-0.001
17.600,0.002
17.605,0.003
17.610,0.003
17.615,0.009
17.620,0.010
17.625,0.009
17.630,0.006
17.635,0.006
17.640,0.008
17.645,0.010
17.650,0.014
17.655,0.013
17.660,0.008
17.665,0.006
17.670,0.006
17.675,0.006
17.680,0.005
17.685,0.013
17.690,0.020
17.695,0.024
17.700,0.035
17.705,0.047
17.710,0.049
17.715,0.047
17.720,0.043
17.725,0.031
17.730,0.020
17.735,0.023
17.740,0.020
17.745,0.012
17.750,0.004
17.755,-0.009
17.760,-0.012
17.765,-0.020
17.770,-0.035
17.775,-0.037
17.780,-0.038
17.785,-0.035
17.790,-0.031
17.795,-0.034
17.800,-0.029
17.805,-0.025
17.810,-0.025
17.815,-0.024
17.820,-0.029
17.825,-0.050
17.830,-0.069
17.835,-0.047
17.840,0.039
17.845,0.232
17.850,0.526
17.855,0.874
17.860,1.115
17.865,0.919
17.870,0.349
17.875,-0.142
17.880,-0.350
17.885,-0.350
17.890,-0.310
17.895,-0.294
17.900,-0.244
17.905,-0.198
17.910,-0.206
17.915,-0.204
17.920,-0.170
17.925,-0.165
17.930,-0.178
17.935,-0.154
17.940,-0.138
17.945,-0.144
17.950,-0.130
17.955,-0.116
17.960,-0.115
17.965,-0.108
17.970,-0.097
17.975,-0.094
17.980,-0.098
17.985,-0.089
17.990,-0.080
17.995,-0.081
18.000,-0.074
18.005,-0.070
18.010,-0.068
18.015,-0.061
18.020,-0.056
18.025,-0.052
18.030,-0.049
18.035,-0.040
18.040,-0.029
18.045,-0.023
18.050,-0.014
18.055,-0.007
18.060,-0.002
18.065,0.009
18.070,0.018
18.075,0.025
18.080,0.028
18.085,0.034
18.090,0.042
18.095,0.047
18.100,0.056
18.105,0.060
18.110,0.063
18.115,0.066
18.120,0.070
18.125,0.075
18.130,0.073
18.135,0.074
18.140,0.072
18.145,0.063
18.150,0.057
18.155,0.044
18.160,0.028
18.165,0.010
18.170,-0.008
18.175,-0.019
18.180,-0.035
18.185,-0.048
18.190,-0.059
18.195,-0.074
18.200,-0.077
18.205,-0.080
18.210,-0.084
18.215,-0.087
18.220,-0.090
18.225,-0.088
18.230,-0.084
18.235,-0.078
18.240,-0.076
18.245,-0.076
18.250,-0.069
18.255,-0.062
18.260,-0.057
18.265,-0.053
18.270,-0.047
18.275,-0.041
18.280,-0.038
18.285,-0.029
18.290,-0.022
18.295,-0.022
18.300,-0.016
18.305,-0.012
18.310,-0.007
18.315,-0.001
18.320,0.003
18.325,0.006
18.330,0.008
18.335,0.016
18.340,0.023
18.345,0.024
18.350,0.028
18.355,0.026
18.360,0.026
18.365,0.027
18.370,0.025
18.375,0.026
18.380,0.023
18.385,0.024
18.390,0.026
18.395,0.019
18.400,0.020
18.405,0.020
18.410,0.018
18.415,0.022
18.420,0.021
18.425,0.021
18.430,0.019
18.435,0.017
18.440,0.019
18.445,0.017
18.450,0.022
18.455,0.023
18.460,0.021
18.465,0.024
18.470,0.028
18.475,0.030
18.480,0.028
18.485,0.029
18.490,0.031
18.495,0.031
18.500,0.033
18.505,0.031
18.510,0.030
18.515,0.029
18.520,0.030
18.525,0.033
18.530,0.030
18.535,0.029
18.540,0.027
18.545,0.024
18.550,0.027
18.555,0.025
18.560,0.020
18.565,0.017
18.570,0.016
18.575,0.020
18.580,0.018
18.585,0.020
18.590,0.021
18.595,0.016
18.600,0.019
18.605,0.018
18.610,0.015
18.615,0.016
18.620,0.014
18.625,0.017
18.630,0.018
18.635,0.018
18.640,0.017
18.645,0.012
18.650,0.013
18.655,0.015
18.660,0.014
18.665,0.013
18.670,0.012
18.675,0.012
18.680,0.011
18.685,0.014
18.690,0.013
18.695,0.008
18.700,0.011
18.705,0.011
18.710,0.011
18.715,0.011
18.720,0.010
18.725,0.010
18.730,0.006
18.735,0.006
18.740,0.008
18.745,0.004
18.750,0.007
18.755,0.006
18.760,0.006
18.765,0.010
18.770,0.008
18.775,0.006
18.780,0.003
18.785,0.009
18.790,0.016
18.795,0.016
18.800,0.021
18.805,0.025
18.810,0.031
18.815,0.035
18.820,0.032
18.825,0.039
18.830,0.056
18.835,0.075
18.840,0.083
18.845,0.069
18.850,0.052
18.855,0.031
18.860,0.005
18.865,-0.005
18.870,-0.008
18.875,-0.017
18.880,-0.034
18.885,-0.046
18.890,-0.047
18.895,-0.043
18.900,-0.044
18.905,-0.047
18.910,-0.048
18.915,-0.048
18.920,-0.046
18.925,-0.044
18.930,-0.041
18.935,-0.032
18.940,-0.030
18.945,-0.032
18.950,-0.029
18.955,-0.042
18.960,-0.068
18.965,-0.062
18.970,0.010
18.975,0.180
18.980,0.443
18.985,0.763
18.990,1.067
18.995,1.075
19.000,0.632
19.005,0.065
19.010,-0.282
19.015,-0.367
19.020,-0.329
19.025,-0.302
19.030,-0.280
19.035,-0.234
19.040,-0.223
19.045,-0.240
19.050,-0.215
19.055,-0.195
19.060,-0.203
19.065,-0.190
19.070,-0.171
19.075,-0.170
19.080,-0.166
19.085,-0.147
19.090,-0.138
19.095,-0.140
19.100,-0.128
19.105,-0.120
19.110,-0.118
19.115,-0.110
19.120,-0.102
19.125,-0.098
19.130,-0.094
19.135,-0.083
19.140,-0.074
19.145,-0.071
19.150,-0.061
19.155,-0.055
19.160,-0.049
19.165,-0.040
19.170,-0.034
19.175,-0.027
19.180,-0.025
19.185,-0.015
19.190,-0.004
19.195,0.000
19.200,0.009
19.205,0.016
19.210,0.023
19.215,0.033
19.220,0.039
19.225,0.046
19.230,0.051
19.235,0.058
19.240,0.065
19.245,0.066
19.250,0.070
19.255,0.075
19.260,0.078
19.265,0.083
19.270,0.088
19.275,0.086
19.280,0.075
19.285,0.063
19.290,0.049
19.295,0.032
19.300,0.019
19.305,0.000
19.310,-0.019
19.315,-0.035
19.320,-0.047
19.325,-0.055
19.330,-0.066
19.335,-0.073
19.340,-0.078
19.345,-0.082
19.350,-0.078
19.355,-0.078
19.360,-0.078
19.365,-0.077
19.370,-0.075
19.375,-0.069
19.380,-0.067
19.385,-0.061
19.390,-0.057
19.395,-0.058
19.400,-0.051
19.405,-0.048
19.410,-0.048
19.415,-0.045
19.420,-0.045
19.425,-0.040
19.430,-0.036
19.435,-0.030
19.440,-0.025
19.445,-0.025
19.450,-0.017
19.455,-0.009
19.460,-0.004
19.465,0.002
19.470,0.004
19.475,0.010
19.480,0.026
19.485,0.045
19.490,0.040
19.495,0.015
19.500,-0.003
19.505,-0.006
19.510,0.005
19.515,0.011
19.520,0.012
19.525,0.016
19.530,0.015
19.535,0.020
19.540,0.023
19.545,0.018
19.550,0.019
19.555,0.018
19.560,0.018
19.565,0.021
19.570,0.019
19.575,0.018
19.580,0.014
19.585,0.016
19.590,0.023
19.595,0.023
19.600,0.025
19.605,0.022
19.610,0.020
19.615,0.025
19.620,0.026
19.625,0.027
19.630,0.025
19.635,0.027
19.640,0.031
19.645,0.028
19.650,0.029
19.655,0.027
19.660,0.022
19.665,0.024
19.670,0.025
19.675,0.024
19.680,0.020
19.685,0.020
19.690,0.021
19.695,0.020
19.700,0.022
19.705,0.021
19.710,0.018
19.715,0.018
19.720,0.019
19.725,0.020
19.730,0.015
19.735,0.014
19.740,0.013
19.745,0.008
19.750,0.012
19.755,0.010
19.760,0.008
19.765,0.010
19.770,0.009
19.775,0.014
19.780,0.012
19.785,0.012
19.790,0.013
19.795,0.008
19.800,0.012
19.805,0.014
19.810,0.012
19.815,0.013
19.820,0.011
19.825,0.011
19.830,0.012
19.835,0.014
19.840,0.015
19.845,0.008
19.850,0.010
19.855,0.013
19.860,0.013
19.865,0.014
19.870,0.013
19.875,0.012
19.880,0.013
19.885,0.016
19.890,0.017
19.895,0.013
19.900,0.015
19.905,0.016
19.910,0.014
19.915,0.015
19.920,0.018
19.925,0.019
19.930,0.017
19.935,0.023
19.940,0.032
19.945,0.036
19.950,0.037
19.955,0.035
19.960,0.041
19.965,0.056
19.970,0.063
19.975,0.054
19.980,0.033
19.985,0.024
19.990,0.019
19.995,0.004
20.000,-0.004
20.005,-0.010
20.010,-0.021
20.015,-0.030
20.020,-0.037
20.025,-0.036
20.030,-0.034
20.035,-0.038
20.040,-0.040
20.045,-0.038
20.050,-0.033
20.055,-0.032
20.060,-0.030
20.065,-0.025
20.070,-0.022
20.075,-0.034
20.080,-0.063
20.085,-0.061
20.090,0.004
20.095,0.158
20.100,0.421
20.105,0.737
20.110,1.040
20.115,1.080
20.120,0.659
20.125,0.090
20.130,-0.270
20.135,-0.364
20.140,-0.324
20.145,-0.297
20.150,-0.270
20.155,-0.226
20.160,-0.217
20.165,-0.231
20.170,-0.212
20.175,-0.188
20.180,-0.197
20.185,-0.187
20.190,-0.163
20.195,-0.162
20.200,-0.152
20.205,-0.133
20.210,-0.127
20.215,-0.125
20.220,-0.116
20.225,-0.105
20.230,-0.104
20.235,-0.098
20.240,-0.091
20.245,-0.092
20.250,-0.085
20.255,-0.076
20.260,-0.073
20.265,-0.068
20.270,-0.061
20.275,-0.054
20.280,-0.048
20.285,-0.039
20.290,-0.030
20.295,-0.027
20.300,-0.019
20.305,-0.012
20.310,-0.005
20.315,0.003
20.320,0.006
20.325,0.010
20.330,0.016
20.335,0.026
20.340,0.036
20.345,0.040
20.350,0.049
20.355,0.054
20.360,0.060
20.365,0.068
20.370,0.072
20.375,0.075
20.380,0.076
20.385,0.081
20.390,0.085
20.395,0.078
20.400,0.073
20.405,0.061
20.410,0.044
20.415,0.032
20.420,0.016
20.425,-0.001
20.430,-0.023
20.435,-0.039
20.440,-0.049
20.445,-0.062
20.450,-0.066
20.455,-0.074
20.460,-0.080
20.465,-0.081
20.470,-0.080
20.475,-0.077
20.480,-0.077
20.485,-0.077
20.490,-0.074
20.495,-0.071
20.500,-0.065
20.505,-0.063
20.510,-0.062
20.515,-0.058
20.520,-0.054
20.525,-0.050
20.530,-0.049
20.535,-0.045
20.540,-0.042
20.545,-0.041
20.550,-0.033
20.555,-0.029
20.560,-0.027
20.565,-0.023
20.570,-0.019
20.575,-0.012
20.580,-0.010
20.585,-0.006
20.590,0.000
20.595,0.000
20.600,0.005
20.605,0.006
20.610,0.005
20.615,0.008
20.620,0.009
20.625,0.012
20.630,0.014
20.635,0.016
20.640,0.017
20.645,0.011
20.650,0.012
20.655,0.015
20.660,0.013
20.665,0.013
20.670,0.011
20.675,0.010
20.680,0.007
20.685,0.008
20.690,0.011
20.695,0.009
20.700,0.010
20.705,0.011
20.710,0.015
20.715,0.020
20.720,0.020
20.725,0.021
20.730,0.020
20.735,0.024
20.740,0.027
20.745,0.023
20.750,0.026
20.755,0.025
20.760,0.025
20.765,0.028
20.770,0.027
20.775,0.027
20.780,0.024
20.785,0.027
20.790,0.030
20.795,0.028
20.800,0.032
20.805,0.033
20.810,0.031
20.815,0.035
20.820,0.034
20.825,0.033
20.830,0.030
20.835,0.030
20.840,0.032
20.845,0.028
20.850,0.028
20.855,0.025
20.860,0.019
20.865,0.021
20.870,0.021
20.875,0.021
20.880,0.018
20.885,0.018
20.890,0.019
20.895,0.017
20.900,0.018
20.905,0.015
20.910,0.014
20.915,0.016
20.920,0.017
20.925,0.020
20.930,0.020
20.935,0.020
20.940,0.021
20.945,0.017
20.950,0.020
20.955,0.022
20.960,0.018
20.965,0.019
20.970,0.018
20.975,0.019
20.980,0.018
20.985,0.018
20.990,0.017
20.995,0.011
21.000,0.013
21.005,0.015
21.010,0.013
21.015,0.016
21.020,0.013
21.025,0.011
21.030,0.011
21.035,0.017
21.040,0.030
21.045,0.024
21.050,0.019
21.055,0.030
21.060,0.041
21.065,0.046
21.070,0.040
21.075,0.024
21.080,0.015
21.085,0.018
21.090,0.021
21.095,0.016
21.100,0.006
21.105,-0.008
21.110,-0.012
21.115,-0.014
21.120,-0.030
21.125,-0.041
21.130,-0.042
21.135,-0.034
21.140,-0.032
21.145,-0.034
21.150,-0.027
21.155,-0.025
21.160,-0.027
21.165,-0.021
21.170,-0.022
21.175,-0.039
21.180,-0.072
21.185,-0.069
21.190,-0.001
21.195,0.151
21.200,0.416
21.205,0.738
21.210,1.035
21.215,1.044
21.220,0.595
21.225,0.042
21.230,-0.282
21.235,-0.357
21.240,-0.316
21.245,-0.292
21.250,-0.265
21.255,-0.219
21.260,-0.216
21.265,-0.228
21.270,-0.207
21.275,-0.189
21.280,-0.200
21.285,-0.190
21.290,-0.167
21.295,-0.164
21.300,-0.154
21.305,-0.132
21.310,-0.124
21.315,-0.118
21.320,-0.104
21.325,-0.093
21.330,-0.093
21.335,-0.086
21.340,-0.079
21.345,-0.081
21.350,-0.070
21.355,-0.061
21.360,-0.056
21.365,-0.048
21.370,-0.042
21.375,-0.034
21.380,-0.032
21.385,-0.030
21.390,-0.024
21.395,-0.020
21.400,-0.007
21.405,0.002
21.410,0.004
21.415,0.008
21.420,0.010
21.425,0.016
21.430,0.024
21.435,0.030
21.440,0.034
21.445,0.031
21.450,0.035
21.455,0.041
21.460,0.044
21.465,0.050
21.470,0.054
21.475,0.058
21.480,0.060
21.485,0.065
21.490,0.067
21.495,0.060
21.500,0.053
21.505,0.044
21.510,0.030
21.515,0.018
21.520,0.002
21.525,-0.013
21.530,-0.030
21.535,-0.041
21.540,-0.050
21.545,-0.064
21.550,-0.070
21.555,-0.077
21.560,-0.081
21.565,-0.081
21.570,-0.084
21.575,-0.085
21.580,-0.086
21.585,-0.082
21.590,-0.076
21.595,-0.079
21.600,-0.075
21.605,-0.074
21.610,-0.074
21.615,-0.066
21.620,-0.063
21.625,-0.059
21.630,-0.056
21.635,-0.054
21.640,-0.044
21.645,-0.041
21.650,-0.035
21.655,-0.032
21.660,-0.033
21.665,-0.026
21.670,-0.018
21.675,-0.011
21.680,-0.007
21.685,-0.002
21.690,0.004
21.695,0.006
21.700,0.011
21.705,0.012
21.710,0.011
21.715,0.013
21.720,0.014
21.725,0.016
21.730,0.017
21.735,0.018
21.740,0.016
21.745,0.013
21.750,0.020
21.755,0.020
21.760,0.015
21.765,0.014
21.770,0.013
21.775,0.018
21.780,0.020
21.785,0.021
21.790,0.021
21.795,0.016
21.800,0.020
21.805,0.023
21.810,0.024
21.815,0.027
21.820,0.027
21.825,0.030
21.830,0.032
21.835,0.035
21.840,0.037
21.845,0.032
21.850,0.034
21.855,0.037
21.860,0.038
21.865,0.040
21.870,0.038
21.875,0.037
21.880,0.035
21.885,0.036
21.890,0.036
21.895,0.031
21.900,0.031
21.905,0.032
21.910,0.031
21.915,0.032
21.920,0.029
21.925,0.027
21.930,0.025
21.935,0.028
21.940,0.031
21.945,0.027
21.950,0.029
21.955,0.027
21.960,0.023
21.965,0.025
21.970,0.023
21.975,0.022
21.980,0.019
21.985,0.019
21.990,0.023
21.995,0.020
22.000,0.021
22.005,0.019
22.010,0.017
22.015,0.022
22.020,0.021
22.025,0.018
22.030,0.015
22.035,0.014
22.040,0.018
22.045,0.016
22.050,0.017
22.055,0.016
22.060,0.013
22.065,0.017
22.070,0.018
22.075,0.018
22.080,0.017
22.085,0.015
22.090,0.017
22.095,0.019
22.100,0.025
22.105,0.028
22.110,0.026
22.115,0.033
22.120,0.043
22.125,0.048
22.130,0.041
22.135,0.044
22.140,0.065
22.145,0.083
22.150,0.095
22.155,0.088
22.160,0.067
22.165,0.050
22.170,0.027
22.175,0.009
22.180,0.001
22.185,-0.010
22.190,-0.022
22.195,-0.034
22.200,-0.039
22.205,-0.044
22.210,-0.048
22.215,-0.046
22.220,-0.045
22.225,-0.044
22.230,-0.045
22.235,-0.042
22.240,-0.037
22.245,-0.039
22.250,-0.033
22.255,-0.027
22.260,-0.027
22.265,-0.034
22.270,-0.060
22.275,-0.068
22.280,-0.025
22.285,0.098
22.290,0.334
22.295,0.640
22.300,0.974
22.305,1.101
22.310,0.748
22.315,0.162
22.320,-0.245
22.325,-0.373
22.330,-0.345
22.335,-0.304
22.340,-0.275
22.345,-0.224
22.350,-0.194
22.355,-0.211
22.360,-0.197
22.365,-0.165
22.370,-0.175
22.375,-0.175
22.380,-0.152
22.385,-0.145
22.390,-0.144
22.395,-0.133
22.400,-0.119
22.405,-0.119
22.410,-0.115
22.415,-0.102
22.420,-0.101
22.425,-0.098
22.430,-0.091
22.435,-0.087
22.440,-0.080
22.445,-0.075
22.450,-0.065
22.455,-0.061
22.460,-0.060
22.465,-0.051
22.470,-0.046
22.475,-0.041
22.480,-0.034
22.485,-0.028
22.490,-0.022
22.495,-0.015
22.500,-0.005
22.505,0.004
22.510,0.010
22.515,0.019
22.520,0.028
22.525,0.036
22.530,0.041
22.535,0.048
22.540,0.055
22.545,0.056
22.550,0.063
22.555,0.067
22.560,0.066
22.565,0.067
22.570,0.066
22.575,0.072
22.580,0.074
22.585,0.071
22.590,0.065
22.595,0.051
22.600,0.042
22.605,0.030
22.610,0.012
22.615,-0.003
22.620,-0.023
22.625,-0.038
22.630,-0.049
22.635,-0.060
22.640,-0.071
22.645,-0.086
22.650,-0.089
22.655,-0.087
22.660,-0.091
22.665,-0.091
22.670,-0.093
22.675,-0.092
22.680,-0.089
22.685,-0.087
22.690,-0.082
22.695,-0.081
22.700,-0.076
22.705,-0.072
22.710,-0.069
22.715,-0.062
22.720,-0.058
22.725,-0.055
22.730,-0.052
22.735,-0.044
22.740,-0.038
22.745,-0.037
22.750,-0.030
22.755,-0.025
22.760,-0.020
22.765,-0.011
22.770,-0.005
22.775,0.002
22.780,0.005
22.785,0.006
22.790,0.011
22.795,0.011
22.800,0.014
22.805,0.013
22.810,0.008
22.815,0.011
22.820,0.006
22.825,0.004
22.830,0.023
22.835,0.030
22.840,0.022
22.845,0.011
22.850,0.009
22.855,0.014
22.860,0.013
22.865,0.010
22.870,0.014
22.875,0.017
22.880,0.012
22.885,0.008
22.890,0.012
22.895,0.012
22.900,0.015
22.905,0.019
22.910,0.017
22.915,0.017
22.920,0.020
22.925,0.024
22.930,0.023
22.935,0.022
22.940,0.022
22.945,0.020
22.950,0.025
22.955,0.025
22.960,0.022
22.965,0.024
22.970,0.023
22.975,0.025
22.980,0.021
22.985,0.018
22.990,0.017
22.995,0.010
23.000,0.016
23.005,0.018
23.010,0.017
23.015,0.020
23.020,0.016
23.025,0.014
23.030,0.014
23.035,0.014
23.040,0.015
23.045,0.011
23.050,0.016
23.055,0.021
23.060,0.017
23.065,0.018
23.070,0.019
23.075,0.018
23.080,0.019
23.085,0.020
23.090,0.019
23.095,0.013
23.100,0.010
23.105,0.009
23.110,0.009
23.115,0.011
23.120,0.009
23.125,0.011
23.130,0.011
23.135,0.013
23.140,0.014
23.145,0.008
23.150,0.003
23.155,-0.001
23.160,-0.001
23.165,0.007
23.170,0.014
23.175,0.016
23.180,0.016
23.185,0.025
23.190,0.029
23.195,0.027
23.200,0.044
23.205,0.055
23.210,0.070
23.215,0.093
23.220,0.093
23.225,0.084
23.230,0.064
23.235,0.041
23.240,0.027
23.245,0.012
23.250,0.004
23.255,-0.011
23.260,-0.031
23.265,-0.040
23.270,-0.046
23.275,-0.047
23.280,-0.046
23.285,-0.045
23.290,-0.037
23.295,-0.035
23.300,-0.035
23.305,-0.036
23.310,-0.039
23.315,-0.038
23.320,-0.037
23.325,-0.034
23.330,-0.034
23.335,-0.040
23.340,-0.058
23.345,-0.068
23.350,-0.025
23.355,0.093
23.360,0.318
23.365,0.626
23.370,0.962
23.375,1.107
23.380,0.775
23.385,0.194
23.390,-0.210
23.395,-0.345
23.400,-0.317
23.405,-0.282
23.410,-0.262
23.415,-0.204
23.420,-0.178
23.425,-0.197
23.430,-0.185
23.435,-0.155
23.440,-0.163
23.445,-0.172
23.450,-0.152
23.455,-0.145
23.460,-0.148
23.465,-0.129
23.470,-0.116
23.475,-0.118
23.480,-0.112
23.485,-0.099
23.490,-0.094
23.495,-0.095
23.500,-0.088
23.505,-0.084
23.510,-0.080
23.515,-0.071
23.520,-0.065
23.525,-0.059
23.530,-0.048
23.535,-0.033
23.540,-0.025
23.545,-0.027
23.550,-0.020
23.555,-0.011
23.560,-0.006
23.565,0.003
23.570,0.011
23.575,0.021
23.580,0.035
23.585,0.047
23.590,0.058
23.595,0.064
23.600,0.074
23.605,0.078
23.610,0.078
23.615,0.086
23.620,0.089
23.625,0.092
23.630,0.095
23.635,0.098
23.640,0.101
23.645,0.097
23.650,0.094
23.655,0.087
23.660,0.072
23.665,0.062
23.670,0.050
23.675,0.035
23.680,0.014
23.685,-0.007
23.690,-0.024
23.695,-0.043
23.700,-0.059
23.705,-0.074
23.710,-0.085
23.715,-0.090
23.720,-0.098
23.725,-0.101
23.730,-0.101
23.735,-0.101
23.740,-0.103
23.745,-0.106
23.750,-0.097
23.755,-0.085
23.760,-0.079
23.765,-0.074
23.770,-0.075
23.775,-0.073
23.780,-0.073
23.785,-0.073
23.790,-0.068
23.795,-0.065
23.800,-0.054
23.805,-0.049
23.810,-0.049
23.815,-0.040
23.820,-0.038
23.825,-0.036
23.830,-0.027
23.835,-0.020
23.840,-0.013
23.845,-0.014
23.850,-0.011
23.855,-0.002
23.860,0.000
23.865,0.001
23.870,0.004
23.875,0.007
23.880,0.009
23.885,0.009
23.890,0.006
23.895,0.002
23.900,0.003
23.905,0.003
23.910,0.002
23.915,0.006
23.920,0.007
23.925,0.006
23.930,0.007
23.935,0.011
23.940,0.013
23.945,0.007
23.950,0.007
23.955,0.009
23.960,0.008
23.965,0.011
23.970,0.010
23.975,0.011
23.980,0.012
23.985,0.013
23.990,0.018
23.995,0.018
24.000,0.022
24.005,0.019
24.010,0.015
24.015,0.020
24.020,0.020
24.025,0.019
24.030,0.017
24.035,0.019
24.040,0.025
24.045,0.026
24.050,0.027
24.055,0.028
24.060,0.022
24.065,0.022
24.070,0.021
24.075,0.020
24.080,0.022
24.085,0.021
24.090,0.022
24.095,0.021
24.100,0.027
24.105,0.030
24.110,0.028
24.115,0.032
24.120,0.029
24.125,0.026
24.130,0.026
24.135,0.022
24.140,0.018
24.145,0.014
24.150,0.016
24.155,0.017
24.160,0.013
24.165,0.014
24.170,0.013
24.175,0.018
24.180,0.019
24.185,0.018
24.190,0.018
24.195,0.013
24.200,0.020
24.205,0.028
24.210,0.025
24.215,0.027
24.220,0.030
24.225,0.037
24.230,0.043
24.235,0.039
24.240,0.044
24.245,0.063
24.250,0.085
24.255,0.095
24.260,0.085
24.265,0.070
24.270,0.055
24.275,0.034
24.280,0.016
24.285,0.008
24.290,-0.007
24.295,-0.024
24.300,-0.030
24.305,-0.033
24.310,-0.036
24.315,-0.034
24.320,-0.038
24.325,-0.039
24.330,-0.039
24.335,-0.038
24.340,-0.037
24.345,-0.040
24.350,-0.037
24.355,-0.033
24.360,-0.027
24.365,-0.023
24.370,-0.035
24.375,-0.062
24.380,-0.076
24.385,-0.049
24.390,0.055
24.395,0.273
24.400,0.595
24.405,0.963
24.410,1.124
24.415,0.797
24.420,0.196
24.425,-0.231
24.430,-0.370
24.435,-0.346
24.440,-0.309
24.445,-0.285
24.450,-0.226
24.455,-0.194
24.460,-0.213
24.465,-0.195
24.470,-0.162
24.475,-0.169
24.480,-0.173
24.485,-0.150
24.490,-0.141
24.495,-0.145
24.500,-0.130
24.505,-0.118
24.510,-0.126
24.515,-0.119
24.520,-0.104
24.525,-0.098
24.530,-0.092
24.535,-0.083
24.540,-0.076
24.545,-0.073
24.550,-0.061
24.555,-0.054
24.560,-0.053
24.565,-0.044
24.570,-0.037
24.575,-0.028
24.580,-0.021
24.585,-0.013
24.590,-0.004
24.595,0.001
24.600,0.014
24.605,0.025
24.610,0.032
24.615,0.044
24.620,0.049
24.625,0.054
24.630,0.061
24.635,0.067
24.640,0.076
24.645,0.078
24.650,0.083
24.655,0.090
24.660,0.090
24.665,0.093
24.670,0.095
24.675,0.094
24.680,0.095
24.685,0.095
24.690,0.091
24.695,0.081
24.700,0.070
24.705,0.057
24.710,0.039
24.715,0.024
24.720,0.005
24.725,-0.016
24.730,-0.033
24.735,-0.046
24.740,-0.056
24.745,-0.070
24.750,-0.079
24.755,-0.086
24.760,-0.092
24.765,-0.090
24.770,-0.091
24.775,-0.092
24.780,-0.093
24.785,-0.090
24.790,-0.083
24.795,-0.082
24.800,-0.076
24.805,-0.072
24.810,-0.071
24.815,-0.060
24.820,-0.055
24.825,-0.053
24.830,-0.049
24.835,-0.045
24.840,-0.036
24.845,-0.036
24.850,-0.034
24.855,-0.030
24.860,-0.029
24.865,-0.020
24.870,-0.015
24.875,-0.013
24.880,-0.009
24.885,-0.007
24.890,-0.002
24.895,0.002
24.900,0.006
24.905,0.007
24.910,0.003
24.915,0.005
24.920,0.005
24.925,0.004
24.930,0.004
24.935,0.004
24.940,0.003
24.945,0.000
24.950,0.004
24.955,0.007
24.960,0.005
24.965,0.006
24.970,0.005
24.975,0.007
24.980,0.010
24.985,0.011
24.990,0.012
24.995,0.009
25.000,0.012
25.005,0.016
25.010,0.016
25.015,0.019
25.020,0.018
25.025,0.018
25.030,0.022
25.035,0.025
25.040,0.027
25.045,0.024
25.050,0.026
25.055,0.030
25.060,0.027
25.065,0.028
25.070,0.026
25.075,0.024
25.080,0.025
25.085,0.026
25.090,0.029
25.095,0.027
25.100,0.027
25.105,0.028
25.110,0.026
25.115,0.030
25.120,0.031
25.125,0.029
25.130,0.029
25.135,0.031
25.140,0.033
25.145,0.029
25.150,0.028
25.155,0.026
25.160,0.024
25.165,0.027
25.170,0.025
25.175,0.023
25.180,0.022
25.185,0.019
25.190,0.020
25.195,0.015
25.200,0.016
25.205,0.017
25.210,0.014
25.215,0.019
25.220,0.016
25.225,0.012
25.230,0.011
25.235,0.010
25.240,0.013
25.245,0.015
25.250,0.022
25.255,0.029
25.260,0.030
25.265,0.041
25.270,0.045
25.275,0.038
25.280,0.040
25.285,0.058
25.290,0.081
25.295,0.088
25.300,0.079
25.305,0.058
25.310,0.037
25.315,0.017
25.320,0.001
25.325,-0.005
25.330,-0.015
25.335,-0.029
25.340,-0.039
25.345,-0.044
25.350,-0.043
25.355,-0.056
25.360,-0.069
25.365,-0.063
25.370,-0.059
25.375,-0.054
25.380,-0.054
25.385,-0.054
25.390,-0.049
25.395,-0.052
25.400,-0.048
25.405,-0.042
25.410,-0.049
25.415,-0.071
25.420,-0.081
25.425,-0.029
25.430,0.108
25.435,0.345
25.440,0.646
25.445,0.962
25.450,1.128
25.455,0.849
25.460,0.275
25.465,-0.171
25.470,-0.347
25.475,-0.337
25.480,-0.300
25.485,-0.284
25.490,-0.242
25.495,-0.218
25.500,-0.233
25.505,-0.226
25.510,-0.203
25.515,-0.203
25.520,-0.204
25.525,-0.184
25.530,-0.171
25.535,-0.167
25.540,-0.149
25.545,-0.138
25.550,-0.135
25.555,-0.126
25.560,-0.118
25.565,-0.113
25.570,-0.111
25.575,-0.102
25.580,-0.096
25.585,-0.094
25.590,-0.085
25.595,-0.079
25.600,-0.073
25.605,-0.068
25.610,-0.066
25.615,-0.055
25.620,-0.049
25.625,-0.043
25.630,-0.036
25.635,-0.029
25.640,-0.016
25.645,-0.007
25.650,0.005
25.655,0.018
25.660,0.021
25.665,0.029
25.670,0.036
25.675,0.041
25.680,0.048
25.685,0.053
25.690,0.061
25.695,0.071
25.700,0.082
25.705,0.089
25.710,0.090
25.715,0.094
25.720,0.100
25.725,0.101
25.730,0.099
25.735,0.093
25.740,0.082
25.745,0.065
25.750,0.051
25.755,0.035
25.760,0.012
25.765,-0.008
25.770,-0.030
25.775,-0.045
25.780,-0.056
25.785,-0.067
25.790,-0.072
25.795,-0.081
25.800,-0.083
25.805,-0.080
25.810,-0.083
25.815,-0.079
25.820,-0.081
25.825,-0.083
25.830,-0.077
25.835,-0.074
25.840,-0.074
25.845,-0.078
25.850,-0.075
25.855,-0.068
25.860,-0.065
25.865,-0.056
25.870,-0.053
25.875,-0.052
25.880,-0.046
25.885,-0.043
25.890,-0.037
25.895,-0.034
25.900,-0.028
25.905,-0.021
25.910,-0.019
25.915,-0.012
25.920,-0.009
25.925,-0.010
25.930,-0.004
25.935,0.005
25.940,0.012
25.945,0.012
25.950,0.012
25.955,0.013
25.960,0.012
25.965,0.016
25.970,0.018
25.975,0.018
25.980,0.019
25.985,0.017
25.990,0.020
25.995,0.022
26.000,0.026
26.005,0.025
26.010,0.020
26.015,0.024
26.020,0.024
26.025,0.022
26.030,0.021
26.035,0.020
26.040,0.021
26.045,0.018
26.050,0.021
26.055,0.028
26.060,0.027
26.065,0.032
26.070,0.034
26.075,0.033
26.080,0.033
26.085,0.031
26.090,0.029
26.095,0.029
26.100,0.033
26.105,0.035
26.110,0.032
26.115,0.033
26.120,0.034
26.125,0.034
26.130,0.031
26.135,0.030
26.140,0.031
26.145,0.030
26.150,0.034
26.155,0.034
26.160,0.030
26.165,0.032
26.170,0.033
26.175,0.034
26.180,0.032
26.185,0.030
26.190,0.030
26.195,0.026
26.200,0.027
26.205,0.025
26.210,0.019
26.215,0.022
26.220,0.020
26.225,0.019
26.230,0.021
26.235,0.019
26.240,0.017
26.245,0.011
26.250,0.016
26.255,0.027
26.260,0.029
26.265,0.030
26.270,0.029
26.275,0.037
26.280,0.050
26.285,0.050
26.290,0.045
26.295,0.052
26.300,0.075
26.305,0.090
26.310,0.088
26.315,0.077
26.320,0.058
26.325,0.036
26.330,0.015
26.335,0.007
26.340,0.003
26.345,-0.015
26.350,-0.025
26.355,-0.031
26.360,-0.039
26.365,-0.040
26.370,-0.042
26.375,-0.043
26.380,-0.040
26.385,-0.040
26.390,-0.039
26.395,-0.043
26.400,-0.045
26.405,-0.041
26.410,-0.037
26.415,-0.028
26.420,-0.030
26.425,-0.051
26.430,-0.077
26.435,-0.075
26.440,-0.016
26.445,0.130
26.450,0.391
26.455,0.729
26.460,1.051
26.465,1.065
26.470,0.599
26.475,0.027
26.480,-0.292
26.485,-0.360
26.490,-0.322
26.495,-0.298
26.500,-0.259
26.505,-0.200
26.510,-0.194
26.515,-0.208
26.520,-0.184
26.525,-0.165
26.530,-0.178
26.535,-0.172
26.540,-0.149
26.545,-0.153
26.550,-0.149
26.555,-0.131
26.560,-0.127
26.565,-0.123
26.570,-0.116
26.575,-0.106
26.580,-0.101
26.585,-0.095
26.590,-0.084
26.595,-0.084
26.600,-0.078
26.605,-0.067
26.610,-0.066
26.615,-0.061
26.620,-0.058
26.625,-0.054
26.630,-0.045
26.635,-0.039
26.640,-0.031
26.645,-0.027
26.650,-0.018
26.655,-0.007
26.660,-0.001
26.665,0.011
26.670,0.019
26.675,0.025
26.680,0.036
26.685,0.044
26.690,0.051
26.695,0.055
26.700,0.061
26.705,0.069
26.710,0.071
26.715,0.075
26.720,0.077
26.725,0.077
26.730,0.079
26.735,0.082
26.740,0.080
26.745,0.070
26.750,0.060
26.755,0.045
26.760,0.027
26.765,0.011
26.770,-0.011
26.775,-0.032
26.780,-0.050
26.785,-0.067
26.790,-0.080
26.795,-0.096
26.800,-0.104
26.805,-0.110
26.810,-0.117
26.815,-0.114
26.820,-0.114
26.825,-0.115
26.830,-0.113
26.835,-0.112
26.840,-0.104
26.845,-0.100
26.850,-0.095
26.855,-0.088
26.860,-0.086
26.865,-0.077
26.870,-0.069
26.875,-0.062
26.880,-0.054
26.885,-0.051
26.890,-0.046
26.895,-0.040
26.900,-0.028
26.905,-0.021
26.910,-0.020
26.915,-0.012
26.920,-0.005
26.925,0.001
26.930,0.006
26.935,0.009
26.940,0.013
26.945,0.016
26.950,0.023
26.955,0.028
26.960,0.028
26.965,0.031
26.970,0.030
26.975,0.030
26.980,0.032
26.985,0.031
26.990,0.031
26.995,0.027
27.000,0.030
27.005,0.033
27.010,0.028
27.015,0.030
27.020,0.028
27.025,0.027
27.030,0.029
27.035,0.028
27.040,0.029
27.045,0.027
27.050,0.029
27.055,0.035
27.060,0.032
27.065,0.034
27.070,0.036
27.075,0.034
27.080,0.039
27.085,0.039
27.090,0.040
27.095,0.039
27.100,0.038
27.105,0.037
27.110,0.034
27.115,0.037
27.120,0.038
27.125,0.036
27.130,0.036
27.135,0.035
27.140,0.035
27.145,0.033
27.150,0.034
27.155,0.034
27.160,0.031
27.165,0.033
27.170,0.033
27.175,0.032
27.180,0.031
27.185,0.030
27.190,0.032
27.195,0.030
27.200,0.030
27.205,0.028
27.210,0.023
27.215,0.027
27.220,0.025
27.225,0.020
27.230,0.019
27.235,0.021
27.240,0.029
27.245,0.031
27.250,0.037
27.255,0.044
27.260,0.044
27.265,0.044
27.270,0.043
27.275,0.058
27.280,0.081
27.285,0.092
27.290,0.087
27.295,0.068
27.300,0.052
27.305,0.032
27.310,0.007
27.315,0.002
27.320,-0.004
27.325,-0.019
27.330,-0.027
27.335,-0.034
27.340,-0.039
27.345,-0.043
27.350,-0.042
27.355,-0.039
27.360,-0.041
27.365,-0.041
27.370,-0.041
27.375,-0.039
27.380,-0.038
27.385,-0.039
27.390,-0.034
27.395,-0.035
27.400,-0.036
27.405,-0.051
27.410,-0.070
27.415,-0.035
27.420,0.072
27.425,0.282
27.430,0.574
27.435,0.897
27.440,1.126
27.445,0.946
27.450,0.405
27.455,-0.088
27.460,-0.326
27.465,-0.339
27.470,-0.299
27.475,-0.285
27.480,-0.244
27.485,-0.208
27.490,-0.218
27.495,-0.223
27.500,-0.210
27.505,-0.203
27.510,-0.184
27.515,-0.160
27.520,-0.152
27.525,-0.162
27.530,-0.156
27.535,-0.133
27.540,-0.132
27.545,-0.134
27.550,-0.118
27.555,-0.114
27.560,-0.117
27.565,-0.105
27.570,-0.099
27.575,-0.097
27.580,-0.089
27.585,-0.078
27.590,-0.071
27.595,-0.069
27.600,-0.060
27.605,-0.054
27.610,-0.051
27.615,-0.037
27.620,-0.029
27.625,-0.026
27.630,-0.019
27.635,-0.012
27.640,-0.003
27.645,0.004
27.650,0.013
27.655,0.023
27.660,0.026
27.665,0.037
27.670,0.048
27.675,0.053
27.680,0.060
27.685,0.066
27.690,0.073
27.695,0.079
27.700,0.086
27.705,0.090
27.710,0.087
27.715,0.089
27.720,0.088
27.725,0.079
27.730,0.067
27.735,0.048
27.740,0.028
27.745,0.006
27.750,-0.011
27.755,-0.024
27.760,-0.044
27.765,-0.057
27.770,-0.068
27.775,-0.076
27.780,-0.080
27.785,-0.087
27.790,-0.091
27.795,-0.095
27.800,-0.091
27.805,-0.088
27.810,-0.089
27.815,-0.083
27.820,-0.082
27.825,-0.080
27.830,-0.073
27.835,-0.070
27.840,-0.066
27.845,-0.067
27.850,-0.062
27.855,-0.053
27.860,-0.054
27.865,-0.050
27.870,-0.048
27.875,-0.046
27.880,-0.037
27.885,-0.032
27.890,-0.027
27.895,-0.024
27.900,-0.019
27.905,-0.016
27.910,-0.016
27.915,-0.010
27.920,-0.007
27.925,-0.004
27.930,0.001
27.935,0.008
27.940,0.013
27.945,0.014
27.950,0.016
27.955,0.018
27.960,0.016
27.965,0.020
27.970,0.020
27.975,0.018
27.980,0.019
27.985,0.019
27.990,0.021
27.995,0.018
28.000,0.019
28.005,0.018
28.010,0.015
28.015,0.019
28.020,0.018
28.025,0.016
28.030,0.018
28.035,0.018
28.040,0.022
28.045,0.021
28.050,0.024
28.055,0.030
28.060,0.027
28.065,0.030
28.070,0.031
28.075,0.028
28.080,0.031
28.085,0.028
28.090,0.028
28.095,0.028
28.100,0.030
28.105,0.030
28.110,0.026
28.115,0.029
28.120,0.032
28.125,0.031
28.130,0.033
28.135,0.034
28.140,0.033
28.145,0.029
28.150,0.030
28.155,0.031
28.160,0.027
28.165,0.026
28.170,0.024
28.175,0.025
28.180,0.027
28.185,0.024
28.190,0.021
28.195,0.017
28.200,0.020
28.205,0.022
28.210,0.017
28.215,0.018
28.220,0.017
28.225,0.016
28.230,0.020
28.235,0.019
28.240,0.018
28.245,0.013
28.250,0.014
28.255,0.017
28.260,0.012
28.265,0.012
28.270,0.014
28.275,0.017
28.280,0.024
28.285,0.029
28.290,0.034
28.295,0.041
28.300,0.049
28.305,0.048
28.310,0.042
28.315,0.056
28.320,0.078
28.325,0.091
28.330,0.092
28.335,0.077
28.340,0.061
28.345,0.041
28.350,0.020
28.355,0.010
28.360,0.002
28.365,-0.009
28.370,-0.021
28.375,-0.030
28.380,-0.037
28.385,-0.041
28.390,-0.041
28.395,-0.042
28.400,-0.038
28.405,-0.039
28.410,-0.047
28.415,-0.041
28.420,-0.039
28.425,-0.039
28.430,-0.033
28.435,-0.032
28.440,-0.030
28.445,-0.045
28.450,-0.065
28.455,-0.044
28.460,0.040
28.465,0.231
28.470,0.509
28.475,0.821
28.480,1.092
28.485,1.024
28.490,0.537
28.495,0.001
28.500,-0.296
28.505,-0.349
28.510,-0.310
28.515,-0.288
28.520,-0.257
28.525,-0.215
28.530,-0.215
28.535,-0.227
28.540,-0.205
28.545,-0.194
28.550,-0.197
28.555,-0.180
28.560,-0.166
28.565,-0.163
28.570,-0.156
28.575,-0.141
28.580,-0.135
28.585,-0.134
28.590,-0.126
28.595,-0.121
28.600,-0.113
28.605,-0.104
28.610,-0.101
28.615,-0.094
28.620,-0.088
28.625,-0.081
28.630,-0.073
28.635,-0.069
28.640,-0.063
28.645,-0.058
28.650,-0.050
28.655,-0.037
28.660,-0.032
28.665,-0.024
28.670,-0.017
28.675,-0.012
28.680,-0.003
28.685,0.005
28.690,0.012
28.695,0.018
28.700,0.026
28.705,0.036
28.710,0.043
28.715,0.056
28.720,0.064
28.725,0.066
28.730,0.071
28.735,0.076
28.740,0.081
28.745,0.083
28.750,0.087
28.755,0.089
28.760,0.086
28.765,0.083
28.770,0.075
28.775,0.059
28.780,0.043
28.785,0.024
28.790,0.007
28.795,-0.012
28.800,-0.028
28.805,-0.045
28.810,-0.064
28.815,-0.070
28.820,-0.087
28.825,-0.097
28.830,-0.080
28.835,-0.077
28.840,-0.086
28.845,-0.091
28.850,-0.093
28.855,-0.085
28.860,-0.085
28.865,-0.084
28.870,-0.073
28.875,-0.068
28.880,-0.066
28.885,-0.063
28.890,-0.057
28.895,-0.054
28.900,-0.049
28.905,-0.042
28.910,-0.044
28.915,-0.040
28.920,-0.034
28.925,-0.034
28.930,-0.032
28.935,-0.028
28.940,-0.022
28.945,-0.019
28.950,-0.012
28.955,-0.007
28.960,-0.006
28.965,-0.001
28.970,0.002
28.975,0.005
28.980,0.009
28.985,0.010
28.990,0.012
28.995,0.012
29.000,0.017
29.005,0.021
29.010,0.017
29.015,0.019
29.020,0.017
29.025,0.015
29.030,0.019
29.035,0.017
29.040,0.016
29.045,0.013
29.050,0.014
29.055,0.018
29.060,0.015
29.065,0.017
29.070,0.016
29.075,0.013
29.080,0.019
29.085,0.020
29.090,0.019
29.095,0.015
29.100,0.014
29.105,0.019
29.110,0.017
29.115,0.021
29.120,0.023
29.125,0.021
29.130,0.022
29.135,0.024
29.140,0.026
29.145,0.025
29.150,0.024
29.155,0.023
29.160,0.023
29.165,0.028
29.170,0.026
29.175,0.023
29.180,0.023
29.185,0.024
29.190,0.027
29.195,0.025
29.200,0.026
29.205,0.028
29.210,0.024
29.215,0.028
29.220,0.028
29.225,0.024
29.230,0.024
29.235,0.020
29.240,0.020
29.245,0.019
29.250,0.017
29.255,0.017
29.260,0.013
29.265,0.013
29.270,0.012
29.275,0.010
29.280,0.013
29.285,0.014
29.290,0.011
29.295,0.001
29.300,0.000
29.305,0.024
29.310,0.037
29.315,0.040
29.320,0.040
29.325,0.040
29.330,0.052
29.335,0.056
29.340,0.044
29.345,0.047
29.350,0.075
29.355,0.096
29.360,0.101
29.365,0.096
29.370,0.074
29.375,0.056
29.380,0.036
29.385,0.015
29.390,0.007
29.395,-0.005
29.400,-0.013
29.405,-0.019
29.410,-0.033
29.415,-0.039
29.420,-0.044
29.425,-0.047
29.430,-0.042
29.435,-0.043
29.440,-0.043
29.445,-0.045
29.450,-0.044
29.455,-0.039
29.460,-0.039
29.465,-0.033
29.470,-0.030
29.475,-0.037
29.480,-0.053
29.485,-0.060
29.490,-0.014
29.495,0.111
29.500,0.347
29.505,0.650
29.510,0.964
29.515,1.093
29.520,0.765
29.525,0.195
29.530,-0.207
29.535,-0.345
29.540,-0.323
29.545,-0.293
29.550,-0.272
29.555,-0.224
29.560,-0.199
29.565,-0.210
29.570,-0.201
29.575,-0.179
29.580,-0.183
29.585,-0.182
29.590,-0.159
29.595,-0.156
29.600,-0.159
29.605,-0.146
29.610,-0.137
29.615,-0.129
29.620,-0.119
29.625,-0.110
29.630,-0.107
29.635,-0.105
29.640,-0.096
29.645,-0.091
29.650,-0.086
29.655,-0.077
29.660,-0.074
29.665,-0.065
29.670,-0.058
29.675,-0.054
29.680,-0.051
29.685,-0.050
29.690,-0.043
29.695,-0.036
29.700,-0.026
29.705,-0.016
29.710,-0.011
29.715,-0.001
29.720,0.011
29.725,0.021
29.730,0.032
29.735,0.040
29.740,0.046
29.745,0.054
29.750,0.066
29.755,0.076
29.760,0.079
29.765,0.085
29.770,0.087
29.775,0.087
29.780,0.088
29.785,0.084
29.790,0.084
29.795,0.079
29.800,0.076
29.805,0.069
29.810,0.050
29.815,0.036
29.820,0.020
29.825,0.000
29.830,-0.015
29.835,-0.036
29.840,-0.057
29.845,-0.077
29.850,-0.086
29.855,-0.087
29.860,-0.093
29.865,-0.094
29.870,-0.096
29.875,-0.100
29.880,-0.097
29.885,-0.094
29.890,-0.088
29.895,-0.083
29.900,-0.080
29.905,-0.079
29.910,-0.080
29.915,-0.075
29.920,-0.071
29.925,-0.071
29.930,-0.065
29.935,-0.060
29.940,-0.055
29.945,-0.051
29.950,-0.048
29.955,-0.041
29.960,-0.036
29.965,-0.027
29.970,-0.021
29.975,-0.019
29.980,-0.016
29.985,-0.011
29.990,-0.003
29.995,0.003
30.000,0.007
30.005,0.008
30.010,0.007
30.015,0.015
30.020,0.017
30.025,0.010
30.030,0.009
30.035,0.010
30.040,0.016
30.045,0.020
30.050,0.015
30.055,0.009
30.060,0.005
30.065,0.012
30.070,0.019
30.075,0.018
30.080,0.017
30.085,0.017
30.090,0.020
30.095,0.025
30.100,0.031
30.105,0.029
30.110,0.017
30.115,0.013
30.120,0.012
30.125,0.012
30.130,0.019
30.135,0.024
30.140,0.027
30.145,0.030
30.150,0.034
30.155,0.033
30.160,0.030
30.165,0.032
30.170,0.029
30.175,0.027
30.180,0.026
30.185,0.029
30.190,0.036
30.195,0.034
30.200,0.031
30.205,0.029
30.210,0.020
30.215,0.017
30.220,0.014
30.225,0.013
30.230,0.015
30.235,0.014
30.240,0.015
30.245,0.016
30.250,0.020
30.255,0.023
30.260,0.015
30.265,0.014
30.270,0.013
30.275,0.012
30.280,0.020
30.285,0.023
30.290,0.020
30.295,0.012
30.300,0.005
30.305,0.004
30.310,0.006
30.315,0.017
30.320,0.023
30.325,0.025
30.330,0.025
30.335,0.024
30.340,0.028
30.345,0.031
30.350,0.032
30.355,0.047
30.360,0.072
30.365,0.087
30.370,0.087
30.375,0.078
30.380,0.065
30.385,0.049
30.390,0.023
30.395,-0.004
30.400,-0.013
30.405,-0.025
30.410,-0.040
30.415,-0.037
30.420,-0.038
30.425,-0.042
30.430,-0.042
30.435,-0.045
30.440,-0.043
30.445,-0.044
30.450,-0.039
30.455,-0.031
30.460,-0.036
30.465,-0.033
30.470,-0.032
30.475,-0.033
30.480,-0.025
30.485,-0.030
30.490,-0.049
30.495,-0.049
30.500,-0.023
30.505,0.089
30.510,0.337
30.515,0.695
30.520,1.056
30.525,1.079
30.530,0.607
30.535,0.033
30.540,-0.288
30.545,-0.359
30.550,-0.329
30.555,-0.304
30.560,-0.260
30.565,-0.189
30.570,-0.179
30.575,-0.197
30.580,-0.169
30.585,-0.147
30.590,-0.151
30.595,-0.141
30.600,-0.124
30.605,-0.131
30.610,-0.141
30.615,-0.126
30.620,-0.108
30.625,-0.097
30.630,-0.082
30.635,-0.075
30.640,-0.078
30.645,-0.078
30.650,-0.071
30.655,-0.062
30.660,-0.059
30.665,-0.039
30.670,-0.028
30.675,-0.034
30.680,-0.024
30.685,-0.015
30.690,-0.012
30.695,-0.010
30.700,-0.002
30.705,0.012
30.710,0.020
30.715,0.026
30.720,0.030
30.725,0.038
30.730,0.049
30.735,0.057
30.740,0.067
30.745,0.074
30.750,0.083
30.755,0.085
30.760,0.082
30.765,0.086
30.770,0.085
30.775,0.085
30.780,0.088
30.785,0.084
30.790,0.083
30.795,0.078
30.800,0.072
30.805,0.065
30.810,0.051
30.815,0.044
30.820,0.027
30.825,0.000
30.830,-0.023
30.835,-0.042
30.840,-0.052
30.845,-0.063
30.850,-0.077
30.855,-0.096
30.860,-0.113
30.865,-0.111
30.870,-0.101
30.875,-0.097
30.880,-0.103
30.885,-0.114
30.890,-0.116
30.895,-0.107
30.900,-0.096
30.905,-0.089
30.910,-0.091
30.915,-0.090
30.920,-0.085
30.925,-0.086
30.930,-0.086
30.935,-0.084
30.940,-0.078
30.945,-0.067
30.950,-0.054
30.955,-0.045
30.960,-0.041
30.965,-0.038
30.970,-0.036
30.975,-0.027
30.980,-0.014
30.985,-0.011
30.990,-0.011
30.995,-0.007
31.000,0.005
31.005,0.003
31.010,-0.016
31.015,-0.014
31.020,0.000
31.025,0.011
31.030,0.021
31.035,0.018
31.040,0.019
31.045,0.022
31.050,0.017
31.055,0.011
31.060,0.007
31.065,0.012
31.070,0.014
31.075,0.008
31.080,0.008
31.085,0.010
31.090,0.012
31.095,0.015
31.100,0.014
31.105,0.009
31.110,0.007
31.115,0.012
31.120,0.017
31.125,0.008
31.130,-0.008
31.135,-0.007
31.140,0.013
31.145,0.026
31.150,0.027
31.155,0.027
31.160,0.023
31.165,0.023
31.170,0.028
31.175,0.030
31.180,0.029
31.185,0.024
31.190,0.020
31.195,0.017
31.200,0.017
31.205,0.020
31.210,0.026
31.215,0.041
31.220,0.046
31.225,0.044
31.230,0.047
31.235,0.042
31.240,0.035
31.245,0.029
31.250,0.028
31.255,0.029
31.260,0.021
31.265,0.026
31.270,0.042
31.275,0.056
31.280,0.068
31.285,0.064
31.290,0.060
31.295,0.066
31.300,0.077
31.305,0.091
31.310,0.099
31.315,0.110
31.320,0.115
31.325,0.099
31.330,0.080
31.335,0.052
31.340,0.027
31.345,0.019
31.350,0.011
31.355,0.005
31.360,-0.006
31.365,-0.020
31.370,-0.026
31.375,-0.024
31.380,-0.023
31.385,-0.023
31.390,-0.033
31.395,-0.041
31.400,-0.031
31.405,-0.026
31.410,-0.031
31.415,-0.025
31.420,-0.027
31.425,-0.034
31.430,-0.045
31.435,-0.073
31.440,-0.082
31.445,-0.061
31.450,0.013
31.455,0.202
31.460,0.503
31.465,0.894
31.470,1.199
31.475,1.039
31.480,0.427
31.485,-0.166
31.490,-0.439
31.495,-0.445
31.500,-0.373
31.505,-0.323
31.510,-0.265
31.515,-0.206
31.520,-0.198
31.525,-0.192
31.530,-0.152
31.535,-0.147
31.540,-0.167
31.545,-0.154
31.550,-0.127
31.555,-0.119
31.560,-0.106
31.565,-0.080
31.570,-0.076
31.575,-0.086
31.580,-0.079
31.585,-0.066
31.590,-0.057
31.595,-0.058
31.600,-0.061
31.605,-0.058
31.610,-0.039
31.615,-0.017
31.620,-0.023
31.625,-0.031
31.630,-0.022
31.635,-0.017
31.640,-0.008
31.645,0.003
31.650,0.012
31.655,0.019
31.660,0.023
31.665,0.036
31.670,0.045
31.675,0.054
31.680,0.068
31.685,0.073
31.690,0.085
31.695,0.099
31.700,0.109
31.705,0.119
31.710,0.114
31.715,0.112
31.720,0.116
31.725,0.116
31.730,0.123
31.735,0.123
31.740,0.115
31.745,0.101
31.750,0.087
31.755,0.072
31.760,0.054
31.765,0.040
31.770,0.016
31.775,-0.013
31.780,-0.033
31.785,-0.052
31.790,-0.073
31.795,-0.103
31.800,-0.127
31.805,-0.143
31.810,-0.150
31.815,-0.138
31.820,-0.131
31.825,-0.136
31.830,-0.143
31.835,-0.150
31.840,-0.148
31.845,-0.142
31.850,-0.135
31.855,-0.122
31.860,-0.112
31.865,-0.099
31.870,-0.093
31.875,-0.099
31.880,-0.097
31.885,-0.094
31.890,-0.086
31.895,-0.075
31.900,-0.065
31.905,-0.051
31.910,-0.045
31.915,-0.035
31.920,-0.025
31.925,-0.027
31.930,-0.027
31.935,-0.027
31.940,-0.029
31.945,-0.035
31.950,-0.044
31.955,-0.051
31.960,-0.060
31.965,-0.062
31.970,-0.063
31.975,-0.067
31.980,-0.066
31.985,-0.066
31.990,-0.067
31.995,-0.065
32.000,-0.060
32.005,-0.057
32.010,-0.061
32.015,-0.049
32.020,-0.038
32.025,-0.035
32.030,-0.028
32.035,-0.029
32.040,-0.023
32.045,-0.012
32.050,-0.002
32.055,0.005
32.060,0.004
32.065,0.012
32.070,0.020
32.075,0.020
32.080,0.016
32.085,0.008
32.090,0.010
32.095,0.013
32.100,0.011
32.105,0.009
32.110,0.006
32.115,0.015
32.120,0.018
32.125,0.009
32.130,0.002
32.135,0.001
32.140,0.004
32.145,0.003
32.150,0.007
32.155,0.009
32.160,0.011
32.165,0.013
32.170,0.003
32.175,0.005
32.180,0.015
32.185,0.019
32.190,0.028
32.195,0.034
32.200,0.049
32.205,0.068
32.210,0.074
32.215,0.078
32.220,0.084
32.225,0.105
32.230,0.130
32.235,0.138
32.240,0.134
32.245,0.117
32.250,0.102
32.255,0.090
32.260,0.068
32.265,0.059
32.270,0.046
32.275,0.030
32.280,0.028
32.285,0.022
32.290,0.017
32.295,0.011
32.300,0.013
32.305,0.023
32.310,0.022
32.315,0.023
32.320,0.023
32.325,0.015
32.330,0.013
32.335,0.015
32.340,0.021
32.345,0.023
32.350,0.011
32.355,-0.021
32.360,-0.041
32.365,-0.007
32.370,0.108
32.375,0.345
32.380,0.680
32.385,1.054
32.390,1.249
32.395,0.935
32.400,0.283
32.405,-0.230
32.410,-0.427
32.415,-0.407
32.420,-0.346
32.425,-0.297
32.430,-0.224
32.435,-0.182
32.440,-0.193
32.445,-0.184
32.450,-0.148
32.455,-0.146
32.460,-0.156
32.465,-0.131
32.470,-0.121
32.475,-0.129
32.480,-0.117
32.485,-0.108
32.490,-0.113
32.495,-0.105
32.500,-0.087
32.505,-0.083
32.510,-0.087
32.515,-0.083
32.520,-0.078
32.525,-0.077
32.530,-0.068
32.535,-0.058
32.540,-0.053
32.545,-0.045
32.550,-0.031
32.555,-0.020
32.560,-0.016
32.565,-0.009
32.570,-0.002
32.575,0.003
32.580,0.009
32.585,0.018
32.590,0.029
32.595,0.041
32.600,0.052
32.605,0.059
32.610,0.063
32.615,0.076
32.620,0.085
32.625,0.095
32.630,0.109
32.635,0.116
32.640,0.125
32.645,0.129
32.650,0.134
32.655,0.142
32.660,0.135
32.665,0.128
32.670,0.115
32.675,0.094
32.680,0.080
32.685,0.055
32.690,0.028
32.695,0.005
32.700,-0.018
32.705,-0.039
32.710,-0.062
32.715,-0.079
32.720,-0.091
32.725,-0.102
32.730,-0.108
32.735,-0.112
32.740,-0.116
32.745,-0.118
32.750,-0.115
32.755,-0.110
32.760,-0.108
32.765,-0.103
32.770,-0.102
32.775,-0.101
32.780,-0.094
32.785,-0.091
32.790,-0.087
32.795,-0.081
32.800,-0.070
32.805,-0.060
32.810,-0.058
32.815,-0.049
32.820,-0.047
32.825,-0.051
32.830,-0.045
32.835,-0.038
32.840,-0.024
32.845,-0.010
32.850,0.000
32.855,0.003
32.860,-0.008
32.865,-0.009
32.870,-0.005
32.875,-0.003
32.880,0.005
32.885,0.005
32.890,0.005
32.895,0.008
32.900,0.011
32.905,0.013
32.910,0.007
32.915,0.005
32.920,0.006
32.925,0.004
32.930,0.007
32.935,0.010
32.940,0.013
32.945,0.014
32.950,0.013
32.955,0.012
32.960,0.008
32.965,0.012
32.970,0.017
32.975,0.019
32.980,0.020
32.985,0.016
32.990,0.018
32.995,0.021
33.000,0.023
33.005,0.020
33.010,0.012
33.015,0.014
33.020,0.013
33.025,0.010
33.030,0.011
33.035,0.009
33.040,0.009
33.045,0.007
33.050,0.008
33.055,0.013
33.060,0.011
33.065,0.016
33.070,0.018
33.075,0.014
33.080,0.017
33.085,0.018
33.090,0.016
33.095,0.014
33.100,0.011
33.105,0.013
33.110,0.015
33.115,0.016
33.120,0.012
33.125,0.009
33.130,0.014
33.135,0.021
33.140,0.029
33.145,0.033
33.150,0.040
33.155,0.047
33.160,0.037
33.165,0.035
33.170,0.052
33.175,0.069
33.180,0.083
33.185,0.085
33.190,0.073
33.195,0.057
33.200,0.036
33.205,0.017
33.210,0.006
33.215,-0.006
33.220,-0.024
33.225,-0.031
33.230,-0.030
33.235,-0.037
33.240,-0.041
33.245,-0.046
33.250,-0.051
33.255,-0.037
33.260,-0.028
33.265,-0.028
33.270,-0.028
33.275,-0.037
33.280,-0.032
33.285,-0.024
33.290,-0.027
33.295,-0.032
33.300,-0.053
33.305,-0.071
33.310,-0.040
33.315,0.086
33.320,0.322
33.325,0.628
33.330,0.977
33.335,1.185
33.340,0.929
33.345,0.334
33.350,-0.157
33.355,-0.366
33.360,-0.372
33.365,-0.335
33.370,-0.312
33.375,-0.258
33.380,-0.216
33.385,-0.232
33.390,-0.229
33.395,-0.200
33.400,-0.197
33.405,-0.198
33.410,-0.179
33.415,-0.163
33.420,-0.163
33.425,-0.153
33.430,-0.137
33.435,-0.139
33.440,-0.136
33.445,-0.128
33.450,-0.124
33.455,-0.117
33.460,-0.111
33.465,-0.103
33.470,-0.103
33.475,-0.100
33.480,-0.087
33.485,-0.081
33.490,-0.074
33.495,-0.067
33.500,-0.062
33.505,-0.051
33.510,-0.045
33.515,-0.037
33.520,-0.030
33.525,-0.027
33.530,-0.014
33.535,0.001
33.540,0.009
33.545,0.017
33.550,0.028
33.555,0.039
33.560,0.047
33.565,0.061
33.570,0.074
33.575,0.085
33.580,0.100
33.585,0.111
33.590,0.120
33.595,0.126
33.600,0.129
33.605,0.126
33.610,0.117
33.615,0.120
33.620,0.110
33.625,0.088
33.630,0.066
33.635,0.038
33.640,0.019
33.645,-0.002
33.650,-0.029
33.655,-0.049
33.660,-0.069
33.665,-0.082
33.670,-0.091
33.675,-0.100
33.680,-0.102
33.685,-0.103
33.690,-0.099
33.695,-0.093
33.700,-0.087
33.705,-0.082
33.710,-0.083
33.715,-0.076
33.720,-0.069
33.725,-0.070
33.730,-0.067
33.735,-0.068
33.740,-0.066
33.745,-0.061
33.750,-0.056
33.755,-0.050
33.760,-0.047
33.765,-0.041
33.770,-0.038
33.775,-0.038
33.780,-0.031
33.785,-0.026
33.790,-0.023
33.795,-0.020
33.800,-0.015
33.805,-0.010
33.810,-0.011
33.815,-0.008
33.820,-0.003
33.825,-0.002
33.830,0.007
33.835,0.012
33.840,0.016
33.845,0.016
33.850,0.011
33.855,0.008
33.860,-0.004
33.865,-0.007
33.870,-0.004
33.875,-0.006
33.880,-0.002
33.885,-0.005
33.890,-0.003
33.895,0.004
33.900,0.011
33.905,0.017
33.910,0.015
33.915,0.017
33.920,0.023
33.925,0.023
33.930,0.028
33.935,0.032
33.940,0.033
33.945,0.034
33.950,0.037
33.955,0.038
33.960,0.037
33.965,0.038
33.970,0.035
33.975,0.031
33.980,0.030
33.985,0.028
33.990,0.033
33.995,0.040
34.000,0.045
34.005,0.044
34.010,0.035
34.015,0.031
34.020,0.021
34.025,0.014
34.030,0.018
34.035,0.022
34.040,0.029
34.045,0.033
34.050,0.037
34.055,0.040
34.060,0.040
34.065,0.050
34.070,0.059
34.075,0.058
34.080,0.063
34.085,0.066
34.090,0.065
34.095,0.067
34.100,0.081
34.105,0.103
34.110,0.111
34.115,0.109
34.120,0.093
34.125,0.071
34.130,0.054
34.135,0.032
34.140,0.021
34.145,0.010
34.150,-0.007
34.155,-0.016
34.160,-0.023
34.165,-0.024
34.170,-0.022
34.175,-0.023
34.180,-0.025
34.185,-0.028
34.190,-0.029
34.195,-0.029
34.200,-0.026
34.205,-0.027
34.210,-0.036
34.215,-0.034
34.220,-0.032
34.225,-0.034
34.230,-0.047
34.235,-0.068
34.240,-0.051
34.245,0.032
34.250,0.231
34.255,0.529
34.260,0.873
34.265,1.163
34.270,1.060
34.275,0.514
34.280,-0.031
34.285,-0.316
34.290,-0.367
34.295,-0.335
34.300,-0.313
34.305,-0.259
34.310,-0.208
34.315,-0.210
34.320,-0.217
34.325,-0.193
34.330,-0.188
34.335,-0.208
34.340,-0.196
34.345,-0.175
34.350,-0.175
34.355,-0.166
34.360,-0.147
34.365,-0.138
34.370,-0.135
34.375,-0.133
34.380,-0.129
34.385,-0.126
34.390,-0.117
34.395,-0.107
34.400,-0.097
34.405,-0.086
34.410,-0.082
34.415,-0.081
34.420,-0.080
34.425,-0.078
34.430,-0.069
34.435,-0.060
34.440,-0.043
34.445,-0.028
34.450,-0.022
34.455,-0.012
34.460,-0.002
34.465,0.011
34.470,0.018
34.475,0.017
34.480,0.023
34.485,0.032
34.490,0.048
34.495,0.067
34.500,0.083
34.505,0.096
34.510,0.101
34.515,0.110
34.520,0.121
34.525,0.122
34.530,0.126
34.535,0.121
34.540,0.112
34.545,0.100
34.550,0.085
34.555,0.070
34.560,0.048
34.565,0.024
34.570,-0.007
34.575,-0.039
34.580,-0.058
34.585,-0.071
34.590,-0.082
34.595,-0.092
34.600,-0.100
34.605,-0.109
34.610,-0.118
34.615,-0.116
34.620,-0.121
34.625,-0.125
34.630,-0.118
34.635,-0.114
34.640,-0.107
34.645,-0.106
34.650,-0.105
34.655,-0.090
34.660,-0.082
34.665,-0.072
34.670,-0.068
34.675,-0.077
34.680,-0.077
34.685,-0.077
34.690,-0.075
34.695,-0.062
34.700,-0.051
34.705,-0.049
34.710,-0.046
34.715,-0.036
34.720,-0.025
34.725,-0.019
34.730,-0.021
34.735,-0.022
34.740,-0.020
34.745,-0.022
34.750,-0.017
34.755,-0.010
34.760,-0.005
34.765,0.003
34.770,0.005
34.775,0.002
34.780,0.000
34.785,-0.003
34.790,0.003
34.795,0.009
34.800,0.010
34.805,0.006
34.810,-0.001
34.815,0.011
34.820,0.015
34.825,0.008
34.830,0.025
34.835,0.025
34.840,0.006
34.845,-0.002
34.850,-0.002
34.855,0.013
34.860,0.019
34.865,0.021
34.870,0.027
34.875,0.026
34.880,0.025
34.885,0.020
34.890,0.019
34.895,0.016
34.900,0.006
34.905,0.007
34.910,0.008
34.915,0.011
34.920,0.026
34.925,0.039
34.930,0.042
34.935,0.035
34.940,0.024
34.945,0.025
34.950,0.037
34.955,0.040
34.960,0.033
34.965,0.033
34.970,0.041
34.975,0.045
34.980,0.036
34.985,0.028
34.990,0.033
34.995,0.043
35.000,0.052
35.005,0.050
35.010,0.043
35.015,0.038
35.020,0.037
35.025,0.062
35.030,0.097
35.035,0.113
35.040,0.108
35.045,0.090
35.050,0.076
35.055,0.058
35.060,0.032
35.065,0.017
35.070,-0.002
35.075,-0.017
35.080,-0.016
35.085,-0.014
35.090,-0.009
35.095,-0.004
35.100,-0.002
35.105,0.002
35.110,-0.005
35.115,-0.009
35.120,0.001
35.125,0.012
35.130,0.026
35.135,0.026
35.140,0.009
35.145,-0.002
35.150,-0.004
35.155,-0.019
35.160,-0.029
35.165,0.005
35.170,0.117
35.175,0.346
35.180,0.670
35.185,1.052
35.190,1.259
35.195,0.946
35.200,0.301
35.205,-0.199
35.210,-0.397
35.215,-0.395
35.220,-0.362
35.225,-0.322
35.230,-0.232
35.235,-0.184
35.240,-0.196
35.245,-0.183
35.250,-0.152
35.255,-0.166
35.260,-0.188
35.265,-0.166
35.270,-0.152
35.275,-0.160
35.280,-0.144
35.285,-0.135
35.290,-0.145
35.295,-0.142
35.300,-0.134
35.305,-0.138
35.310,-0.157
35.315,-0.168
35.320,-0.169
35.325,-0.163
35.330,-0.149
35.335,-0.134
35.340,-0.123
35.345,-0.111
35.350,-0.099
35.355,-0.093
35.360,-0.092
35.365,-0.082
35.370,-0.072
35.375,-0.061
35.380,-0.046
35.385,-0.036
35.390,-0.027
35.395,-0.015
35.400,0.003
35.405,0.019
35.410,0.028
35.415,0.043
35.420,0.063
35.425,0.082
35.430,0.099
35.435,0.104
35.440,0.110
35.445,0.117
35.450,0.124
35.455,0.129
35.460,0.121
35.465,0.116
35.470,0.109
35.475,0.090
35.480,0.074
35.485,0.051
35.490,0.022
35.495,-0.006
35.500,-0.032
35.505,-0.053
35.510,-0.073
35.515,-0.084
35.520,-0.086
35.525,-0.091
35.530,-0.096
35.535,-0.103
35.540,-0.110
35.545,-0.111
35.550,-0.106
35.555,-0.099
35.560,-0.095
35.565,-0.086
35.570,-0.082
35.575,-0.082
35.580,-0.074
35.585,-0.067
35.590,-0.059
35.595,-0.058
35.600,-0.058
35.605,-0.054
35.610,-0.053
35.615,-0.044
35.620,-0.035
35.625,-0.031
35.630,-0.024
35.635,-0.021
35.640,-0.010
35.645,0.004
35.650,0.010
35.655,0.012
35.660,0.007
35.665,0.012
35.670,0.018
35.675,0.018
35.680,0.025
35.685,0.029
35.690,0.030
35.695,0.035
35.700,0.040
35.705,0.037
35.710,0.023
35.715,0.015
35.720,0.016
35.725,0.013
35.730,0.012
35.735,0.015
35.740,0.019
35.745,0.024
35.750,0.025
35.755,0.029
35.760,0.036
35.765,0.038
35.770,0.029
35.775,0.024
35.780,0.035
35.785,0.045
35.790,0.052
35.795,0.051
35.800,0.050
35.805,0.050
35.810,0.048
35.815,0.055
35.820,0.058
35.825,0.054
35.830,0.055
35.835,0.050
35.840,0.048
35.845,0.049
35.850,0.047
35.855,0.049
35.860,0.047
35.865,0.047
35.870,0.049
35.875,0.049
35.880,0.057
35.885,0.062
35.890,0.056
35.895,0.048
35.900,0.049
35.905,0.056
35.910,0.055
35.915,0.057
35.920,0.058
35.925,0.059
35.930,0.067
35.935,0.068
35.940,0.072
35.945,0.092
35.950,0.110
35.955,0.114
35.960,0.104
35.965,0.088
35.970,0.067
35.975,0.039
35.980,0.019
35.985,0.010
35.990,0.001
35.995,-0.015
36.000,-0.025
36.005,-0.033
36.010,-0.041
36.015,-0.036
36.020,-0.027
36.025,-0.022
36.030,-0.021
36.035,-0.025
36.040,-0.021
36.045,-0.018
36.050,-0.019
36.055,-0.014
36.060,-0.011
36.065,-0.006
36.070,-0.015
36.075,-0.047
36.080,-0.059
36.085,-0.018
36.090,0.107
36.095,0.351
36.100,0.672
36.105,1.026
36.110,1.217
36.115,0.941
36.120,0.339
36.125,-0.156
36.130,-0.362
36.135,-0.367
36.140,-0.339
36.145,-0.318
36.150,-0.258
36.155,-0.218
36.160,-0.233
36.165,-0.227
36.170,-0.199
36.175,-0.202
36.180,-0.201
36.185,-0.179
36.190,-0.171
36.195,-0.177
36.200,-0.163
36.205,-0.148
36.210,-0.153
36.215,-0.151
36.220,-0.142
36.225,-0.136
36.230,-0.126
36.235,-0.116
36.240,-0.107
36.245,-0.104
36.250,-0.096
36.255,-0.084
36.260,-0.078
36.265,-0.069
36.270,-0.065
36.275,-0.066
36.280,-0.056
36.285,-0.044
36.290,-0.034
36.295,-0.026
36.300,-0.019
36.305,-0.006
36.310,0.003
36.315,0.017
36.320,0.032
36.325,0.041
36.330,0.057
36.335,0.069
36.340,0.079
36.345,0.091
36.350,0.102
36.355,0.113
36.360,0.123
36.365,0.133
36.370,0.137
36.375,0.135
36.380,0.135
36.385,0.130
36.390,0.121
36.395,0.104
36.400,0.083
36.405,0.057
36.410,0.024
36.415,-0.002
36.420,-0.024
36.425,-0.049
36.430,-0.064
36.435,-0.080
36.440,-0.097
36.445,-0.114
36.450,-0.127
36.455,-0.129
36.460,-0.130
36.465,-0.122
36.470,-0.113
36.475,-0.113
36.480,-0.108
36.485,-0.108
36.490,-0.106
36.495,-0.100
36.500,-0.093
36.505,-0.084
36.510,-0.081
36.515,-0.075
36.520,-0.068
36.525,-0.064
36.530,-0.057
36.535,-0.057
36.540,-0.055
36.545,-0.046
36.550,-0.041
36.555,-0.037
36.560,-0.035
36.565,-0.031
36.570,-0.028
36.575,-0.025
36.580,-0.020
36.585,-0.018
36.590,-0.018
36.595,-0.017
36.600,-0.011
36.605,-0.008
36.610,-0.013
36.615,-0.014
36.620,-0.016
36.625,-0.018
36.630,-0.015
36.635,-0.017
36.640,-0.017
36.645,-0.018
36.650,-0.018
36.655,-0.012
36.660,-0.015
36.665,-0.013
36.670,-0.009
36.675,-0.006
36.680,0.004
36.685,0.008
36.690,0.010
36.695,0.015
36.700,0.021
36.705,0.029
36.710,0.031
36.715,0.034
36.720,0.035
36.725,0.033
36.730,0.037
36.735,0.037
36.740,0.036
36.745,0.039
36.750,0.038
36.755,0.039
36.760,0.038
36.765,0.039
36.770,0.038
36.775,0.031
36.780,0.032
36.785,0.033
36.790,0.032
36.795,0.032
36.800,0.033
36.805,0.034
36.810,0.030
36.815,0.031
36.820,0.030
36.825,0.025
36.830,0.023
36.835,0.020
36.840,0.018
36.845,0.017
36.850,0.019
36.855,0.024
36.860,0.022
36.865,0.024
36.870,0.025
36.875,0.024
36.880,0.030
36.885,0.029
36.890,0.029
36.895,0.034
36.900,0.040
36.905,0.048
36.910,0.044
36.915,0.035
36.920,0.039
36.925,0.061
36.930,0.088
36.935,0.095
36.940,0.086
36.945,0.071
36.950,0.056
36.955,0.035
36.960,0.016
36.965,0.011
36.970,-0.001
36.975,-0.017
36.980,-0.020
36.985,-0.024
36.990,-0.032
36.995,-0.036
37.000,-0.034
37.005,-0.030
37.010,-0.034
37.015,-0.036
37.020,-0.035
37.025,-0.037
37.030,-0.036
37.035,-0.034
37.040,-0.032
37.045,-0.033
37.050,-0.042
37.055,-0.061
37.060,-0.064
37.065,-0.002
37.070,0.148
37.075,0.396
37.080,0.711
37.085,1.037
37.090,1.156
37.095,0.804
37.100,0.210
37.105,-0.219
37.110,-0.370
37.115,-0.340
37.120,-0.309
37.125,-0.299
37.130,-0.251
37.135,-0.223
37.140,-0.235
37.145,-0.223
37.150,-0.198
37.155,-0.197
37.160,-0.192
37.165,-0.170
37.170,-0.167
37.175,-0.171
37.180,-0.154
37.185,-0.143
37.190,-0.143
37.195,-0.138
37.200,-0.129
37.205,-0.122
37.210,-0.117
37.215,-0.104
37.220,-0.099
37.225,-0.099
37.230,-0.090
37.235,-0.083
37.240,-0.077
37.245,-0.071
37.250,-0.065
37.255,-0.060
37.260,-0.055
37.265,-0.045
37.270,-0.034
37.275,-0.025
37.280,-0.015
37.285,-0.013
37.290,-0.008
37.295,0.003
37.300,0.013
37.305,0.030
37.310,0.042
37.315,0.057
37.320,0.071
37.325,0.076
37.330,0.089
37.335,0.104
37.340,0.117
37.345,0.131
37.350,0.139
37.355,0.144
37.360,0.144
37.365,0.142
37.370,0.132
37.375,0.111
37.380,0.092
37.385,0.071
37.390,0.050
37.395,0.030
37.400,0.010
37.405,-0.013
37.410,-0.038
37.415,-0.056
37.420,-0.076
37.425,-0.094
37.430,-0.094
37.435,-0.093
37.440,-0.091
37.445,-0.088
37.450,-0.083
37.455,-0.076
37.460,-0.078
37.465,-0.080
37.470,-0.083
37.475,-0.087
37.480,-0.081
37.485,-0.080
37.490,-0.077
37.495,-0.072
37.500,-0.070
37.505,-0.061
37.510,-0.050
37.515,-0.037
37.520,-0.030
37.525,-0.037
37.530,-0.034
37.535,-0.030
37.540,-0.029
37.545,-0.027
37.550,-0.024
37.555,-0.016
37.560,-0.010
37.565,-0.014
37.570,-0.021
37.575,-0.025
37.580,-0.017
37.585,-0.002
37.590,0.006
37.595,0.003
37.600,-0.001
37.605,-0.002
37.610,-0.002
37.615,0.007
37.620,0.005
37.625,-0.004
37.630,-0.002
37.635,0.004
37.640,0.014
37.645,0.020
37.650,0.021
37.655,0.023
37.660,0.018
37.665,0.017
37.670,0.016
37.675,0.015
37.680,0.021
37.685,0.015
37.690,0.007
37.695,0.011
37.700,0.021
37.705,0.029
37.710,0.026
37.715,0.026
37.720,0.030
37.725,0.029
37.730,0.029
37.735,0.029
37.740,0.029
37.745,0.028
37.750,0.025
37.755,0.022
37.760,0.019
37.765,0.019
37.770,0.018
37.775,0.015
37.780,0.020
37.785,0.025
37.790,0.024
37.795,0.020
37.800,0.014
37.805,0.008
37.810,0.000
37.815,-0.001
37.820,0.002
37.825,0.007
37.830,0.014
37.835,0.010
37.840,0.007
37.845,0.005
37.850,0.006
37.855,0.009
37.860,0.001
37.865,-0.002
37.870,-0.003
37.875,-0.004
37.880,0.012
37.885,0.019
37.890,0.013
37.895,0.007
37.900,0.005
37.905,0.015
37.910,0.027
37.915,0.036
37.920,0.033
37.925,0.028
37.930,0.057
37.935,0.089
37.940,0.100
37.945,0.094
37.950,0.078
37.955,0.064
37.960,0.043
37.965,0.020
37.970,0.005
37.975,-0.012
37.980,-0.019
37.985,-0.021
37.990,-0.029
37.995,-0.033
38.000,-0.031
38.005,-0.022
38.010,-0.018
38.015,-0.017
38.020,-0.021
38.025,-0.023
38.030,-0.016
38.035,-0.015
38.040,-0.015
38.045,-0.017
38.050,-0.023
38.055,-0.028
38.060,-0.053
38.065,-0.065
38.070,-0.032
38.075,0.068
38.080,0.283
38.085,0.592
38.090,0.957
38.095,1.182
38.100,0.931
38.105,0.326
38.110,-0.182
38.115,-0.391
38.120,-0.394
38.125,-0.361
38.130,-0.326
38.135,-0.261
38.140,-0.212
38.145,-0.215
38.150,-0.212
38.155,-0.183
38.160,-0.187
38.165,-0.194
38.170,-0.168
38.175,-0.152
38.180,-0.152
38.185,-0.146
38.190,-0.137
38.195,-0.134
38.200,-0.124
38.205,-0.109
38.210,-0.108
38.215,-0.103
38.220,-0.093
38.225,-0.093
38.230,-0.093
38.235,-0.083
38.240,-0.068
38.245,-0.064
38.250,-0.061
38.255,-0.049
38.260,-0.039
38.265,-0.023
38.270,-0.011
38.275,-0.007
38.280,-0.001
38.285,0.001
38.290,0.006
38.295,0.020
38.300,0.033
38.305,0.046
38.310,0.059
38.315,0.077
38.320,0.089
38.325,0.092
38.330,0.099
38.335,0.107
38.340,0.112
38.345,0.115
38.350,0.120
38.355,0.130
38.360,0.136
38.365,0.143
38.370,0.137
38.375,0.115
38.380,0.096
38.385,0.076
38.390,0.053
38.395,0.027
38.400,0.001
38.405,-0.018
38.410,-0.038
38.415,-0.054
38.420,-0.075
38.425,-0.096
38.430,-0.108
38.435,-0.121
38.440,-0.125
38.445,-0.125
38.450,-0.129
38.455,-0.133
38.460,-0.138
38.465,-0.132
38.470,-0.128
38.475,-0.130
38.480,-0.121
38.485,-0.119
38.490,-0.118
38.495,-0.114
38.500,-0.113
38.505,-0.111
38.510,-0.113
38.515,-0.106
38.520,-0.093
38.525,-0.088
38.530,-0.085
38.535,-0.086
38.540,-0.082
38.545,-0.074
38.550,-0.070
38.555,-0.067
38.560,-0.068
38.565,-0.061
38.570,-0.050
38.575,-0.044
38.580,-0.036
38.585,-0.034
38.590,-0.040
38.595,-0.041
38.600,-0.038
38.605,-0.034
38.610,-0.035
38.615,-0.033
38.620,-0.035
38.625,-0.037
38.630,-0.031
38.635,-0.026
38.640,-0.020
38.645,-0.012
38.650,-0.002
38.655,0.011
38.660,0.013
38.665,0.018
38.670,0.022
38.675,0.019
38.680,0.024
38.685,0.025
38.690,0.026
38.695,0.031
38.700,0.033
38.705,0.042
38.710,0.045
38.715,0.043
38.720,0.039
38.725,0.029
38.730,0.028
38.735,0.029
38.740,0.029
38.745,0.032
38.750,0.031
38.755,0.033
38.760,0.036
38.765,0.042
38.770,0.043
38.775,0.037
38.780,0.038
38.785,0.038
38.790,0.040
38.795,0.039
38.800,0.038
38.805,0.040
38.810,0.040
38.815,0.048
38.820,0.052
38.825,0.053
38.830,0.059
38.835,0.057
38.840,0.059
38.845,0.063
38.850,0.064
38.855,0.066
38.860,0.062
38.865,0.064
38.870,0.066
38.875,0.063
38.880,0.071
38.885,0.076
38.890,0.079
38.895,0.087
38.900,0.096
38.905,0.107
38.910,0.103
38.915,0.100
38.920,0.116
38.925,0.141
38.930,0.162
38.935,0.165
38.940,0.150
38.945,0.133
38.950,0.111
38.955,0.087
38.960,0.072
38.965,0.063
38.970,0.048
38.975,0.036
38.980,0.031
38.985,0.023
38.990,0.014
38.995,0.006
39.000,0.006
39.005,0.007
39.010,0.000
39.015,0.000
39.020,0.001
39.025,-0.003
39.030,0.001
39.035,0.000
39.040,0.000
39.045,-0.002
39.050,-0.018
39.055,-0.035
39.060,-0.017
39.065,0.081
39.070,0.282
39.075,0.567
39.080,0.912
39.085,1.195
39.090,1.091
39.095,0.546
39.100,-0.029
39.105,-0.327
39.110,-0.372
39.115,-0.331
39.120,-0.312
39.125,-0.274
39.130,-0.216
39.135,-0.211
39.140,-0.220
39.145,-0.195
39.150,-0.185
39.155,-0.192
39.160,-0.177
39.165,-0.155
39.170,-0.156
39.175,-0.154
39.180,-0.137
39.185,-0.131
39.190,-0.130
39.195,-0.121
39.200,-0.114
39.205,-0.112
39.210,-0.108
39.215,-0.099
39.220,-0.096
39.225,-0.095
39.230,-0.086
39.235,-0.082
39.240,-0.073
39.245,-0.062
39.250,-0.055
39.255,-0.049
39.260,-0.046
39.265,-0.036
39.270,-0.026
39.275,-0.022
39.280,-0.010
39.285,-0.004
39.290,0.000
39.295,0.011
39.300,0.019
39.305,0.030
39.310,0.036
39.315,0.045
39.320,0.059
39.325,0.068
39.330,0.079
39.335,0.086
39.340,0.093
39.345,0.103
39.350,0.110
39.355,0.114
39.360,0.108
39.365,0.102
39.370,0.092
39.375,0.072
39.380,0.054
39.385,0.032
39.390,0.007
39.395,-0.017
39.400,-0.039
39.405,-0.058
39.410,-0.079
39.415,-0.092
39.420,-0.104
39.425,-0.114
39.430,-0.115
39.435,-0.120
39.440,-0.122
39.445,-0.121
39.450,-0.120
39.455,-0.115
39.460,-0.116
39.465,-0.111
39.470,-0.109
39.475,-0.111
39.480,-0.099
39.485,-0.093
39.490,-0.089
39.495,-0.084
39.500,-0.080
39.505,-0.072
39.510,-0.070
39.515,-0.066
39.520,-0.062
39.525,-0.062
39.530,-0.055
39.535,-0.049
39.540,-0.046
39.545,-0.040
39.550,-0.036
39.555,-0.031
39.560,-0.027
39.565,-0.020
39.570,-0.015
39.575,-0.014
39.580,-0.010
39.585,-0.005
39.590,-0.003
39.595,0.000
39.600,0.001
39.605,0.002
39.610,-0.001
39.615,0.003
39.620,0.005
39.625,0.001
39.630,0.001
39.635,-0.002
39.640,-0.003
39.645,-0.001
39.650,-0.002
39.655,-0.003
39.660,-0.007
39.665,-0.005
39.670,0.000
39.675,0.000
39.680,0.005
39.685,0.008
39.690,0.011
39.695,0.016
39.700,0.017
39.705,0.019
39.710,0.013
39.715,0.015
39.720,0.025
39.725,0.026
39.730,0.027
39.735,0.025
39.740,0.022
39.745,0.025
39.750,0.027
39.755,0.026
39.760,0.022
39.765,0.022
39.770,0.022
39.775,0.020
39.780,0.021
39.785,0.020
39.790,0.018
39.795,0.019
39.800,0.021
39.805,0.022
39.810,0.019
39.815,0.019
39.820,0.018
39.825,0.017
39.830,0.022
39.835,0.020
39.840,0.016
39.845,0.016
39.850,0.016
39.855,0.018
39.860,0.015
39.865,0.016
39.870,0.018
39.875,0.014
39.880,0.017
39.885,0.016
39.890,0.012
39.895,0.013
39.900,0.011
39.905,0.012
39.910,0.010
39.915,0.011
39.920,0.013
39.925,0.007
39.930,0.009
39.935,0.013
39.940,0.018
39.945,0.026
39.950,0.029
39.955,0.032
39.960,0.037
39.965,0.048
39.970,0.052
39.975,0.040
39.980,0.044
39.985,0.067
39.990,0.091
39.995,0.101
40.000,0.088
40.005,0.069
40.010,0.050
40.015,0.030
40.020,0.014
40.025,0.006
40.030,-0.004
40.035,-0.021
40.040,-0.029
40.045,-0.034
40.050,-0.039
40.055,-0.041
40.060,-0.046
40.065,-0.037
40.070,-0.025
40.075,-0.036
40.080,-0.046
40.085,-0.046
40.090,-0.045
40.095,-0.036
40.100,-0.032
40.105,-0.032
40.110,-0.040
40.115,-0.061
40.120,-0.064
40.125,0.001
40.130,0.166
40.135,0.423
40.140,0.731
40.145,1.047
40.150,1.165
40.155,0.825
40.160,0.234
40.165,-0.205
40.170,-0.358
40.175,-0.324
40.180,-0.290
40.185,-0.287
40.190,-0.256
40.195,-0.239
40.200,-0.251
40.205,-0.242
40.210,-0.226
40.215,-0.224
40.220,-0.218
40.225,-0.199
40.230,-0.184
40.235,-0.180
40.240,-0.169
40.245,-0.161
40.250,-0.161
40.255,-0.151
40.260,-0.145
40.265,-0.139
40.270,-0.134
40.275,-0.131
40.280,-0.121
40.285,-0.115
40.290,-0.108
40.295,-0.101
40.300,-0.095
40.305,-0.081
40.310,-0.074
40.315,-0.069
40.320,-0.065
40.325,-0.065
40.330,-0.054
40.335,-0.043
40.340,-0.036
40.345,-0.025
40.350,-0.017
40.355,-0.006
40.360,0.003
40.365,0.015
40.370,0.026
40.375,0.030
40.380,0.040
40.385,0.050
40.390,0.058
40.395,0.068
40.400,0.079
40.405,0.093
40.410,0.102
40.415,0.114
40.420,0.123
40.425,0.121
40.430,0.118
40.435,0.106
40.440,0.091
40.445,0.075
40.450,0.055
40.455,0.033
40.460,0.007
40.465,-0.010
40.470,-0.025
40.475,-0.044
40.480,-0.056
40.485,-0.068
40.490,-0.077
40.495,-0.078
40.500,-0.080
40.505,-0.081
40.510,-0.085
40.515,-0.086
40.520,-0.083
40.525,-0.083
40.530,-0.077
40.535,-0.075
40.540,-0.074
40.545,-0.066
40.550,-0.060
40.555,-0.054
40.560,-0.056
40.565,-0.056
40.570,-0.051
40.575,-0.050
40.580,-0.042
40.585,-0.037
40.590,-0.037
40.595,-0.033
40.600,-0.026
40.605,-0.019
40.610,-0.017
40.615,-0.011
40.620,-0.007
40.625,-0.008
40.630,-0.005
40.635,-0.005
40.640,-0.002
40.645,0.003
40.650,0.009
40.655,0.016
40.660,0.014
40.665,0.014
40.670,0.012
40.675,0.004
40.680,0.007
40.685,0.004
40.690,0.002
40.695,0.005
40.700,0.007
40.705,0.013
40.710,0.012
40.715,0.012
40.720,0.017
40.725,0.015
40.730,0.017
40.735,0.018
40.740,0.022
40.745,0.031
40.750,0.034
40.755,0.038
40.760,0.040
40.765,0.045
40.770,0.048
40.775,0.045
40.780,0.045
40.785,0.044
40.790,0.043
40.795,0.044
40.800,0.044
40.805,0.043
40.810,0.040
40.815,0.046
40.820,0.040
40.825,0.038
40.830,0.056
40.835,0.053
40.840,0.041
40.845,0.036
40.850,0.033
40.855,0.041
40.860,0.037
40.865,0.030
40.870,0.032
40.875,0.027
40.880,0.025
40.885,0.031
40.890,0.035
40.895,0.034
40.900,0.035
40.905,0.040
40.910,0.035
40.915,0.032
40.920,0.032
40.925,0.028
40.930,0.028
40.935,0.022
40.940,0.015
40.945,0.018
40.950,0.020
40.955,0.019
40.960,0.020
40.965,0.023
40.970,0.024
40.975,0.023
40.980,0.023
40.985,0.018
40.990,0.013
40.995,0.013
41.000,0.016
41.005,0.019
41.010,0.015
41.015,0.016
41.020,0.015
41.025,0.009
41.030,0.011
41.035,0.011
41.040,0.013
41.045,0.015
41.050,0.013
41.055,0.012
41.060,0.011
41.065,0.025
41.070,0.039
41.075,0.036
41.080,0.043
41.085,0.062
41.090,0.076
41.095,0.081
41.100,0.072
41.105,0.056
41.110,0.037
41.115,0.016
41.120,-0.001
41.125,-0.011
41.130,-0.021
41.135,-0.035
41.140,-0.043
41.145,-0.047
41.150,-0.052
41.155,-0.053
41.160,-0.053
41.165,-0.051
41.170,-0.052
41.175,-0.056
41.180,-0.052
41.185,-0.046
41.190,-0.049
41.195,-0.051
41.200,-0.047
41.205,-0.042
41.210,-0.048
41.215,-0.067
41.220,-0.078
41.225,-0.050
41.230,0.055
41.235,0.272
41.240,0.583
41.245,0.945
41.250,1.163
41.255,0.912
41.260,0.307
41.265,-0.181
41.270,-0.371
41.275,-0.375
41.280,-0.340
41.285,-0.319
41.290,-0.260
41.295,-0.208
41.300,-0.219
41.305,-0.214
41.310,-0.186
41.315,-0.188
41.320,-0.194
41.325,-0.176
41.330,-0.160
41.335,-0.166
41.340,-0.159
41.345,-0.145
41.350,-0.147
41.355,-0.143
41.360,-0.133
41.365,-0.126
41.370,-0.123
41.375,-0.116
41.380,-0.106
41.385,-0.103
41.390,-0.101
41.395,-0.096
41.400,-0.089
41.405,-0.079
41.410,-0.073
41.415,-0.066
41.420,-0.062
41.425,-0.056
41.430,-0.043
41.435,-0.035
41.440,-0.027
41.445,-0.018
41.450,-0.011
41.455,0.001
41.460,0.009
41.465,0.019
41.470,0.028
41.475,0.033
41.480,0.048
41.485,0.060
41.490,0.068
41.495,0.077
41.500,0.084
41.505,0.093
41.510,0.098
41.515,0.101
41.520,0.103
41.525,0.099
41.530,0.100
41.535,0.097
41.540,0.084
41.545,0.070
41.550,0.050
41.555,0.031
41.560,0.012
41.565,-0.005
41.570,-0.022
41.575,-0.042
41.580,-0.054
41.585,-0.061
41.590,-0.068
41.595,-0.073
41.600,-0.077
41.605,-0.079
41.610,-0.082
41.615,-0.077
41.620,-0.074
41.625,-0.074
41.630,-0.068
41.635,-0.066
41.640,-0.060
41.645,-0.054
41.650,-0.052
41.655,-0.048
41.660,-0.046
41.665,-0.037
41.670,-0.029
41.675,-0.028
41.680,-0.021
41.685,-0.019
41.690,-0.016
41.695,-0.008
41.700,-0.004
41.705,0.003
41.710,0.006
41.715,0.012
41.720,0.020
41.725,0.021
41.730,0.027
41.735,0.030
41.740,0.032
41.745,0.037
41.750,0.040
41.755,0.039
41.760,0.034
41.765,0.031
41.770,0.030
41.775,0.028
41.780,0.029
41.785,0.028
41.790,0.024
41.795,0.022
41.800,0.024
41.805,0.026
41.810,0.024
41.815,0.024
41.820,0.024
41.825,0.022
41.830,0.027
41.835,0.025
41.840,0.023
41.845,0.023
41.850,0.023
41.855,0.025
41.860,0.024
41.865,0.027
41.870,0.029
41.875,0.027
41.880,0.031
41.885,0.030
41.890,0.028
41.895,0.028
41.900,0.025
41.905,0.027
41.910,0.025
41.915,0.027
41.920,0.031
41.925,0.026
41.930,0.027
41.935,0.029
41.940,0.027
41.945,0.028
41.950,0.025
41.955,0.023
41.960,0.023
41.965,0.024
41.970,0.023
41.975,0.017
41.980,0.018
41.985,0.021
41.990,0.019
41.995,0.017
42.000,0.015
42.005,0.014
42.010,0.011
42.015,0.013
42.020,0.009
42.025,0.003
42.030,0.005
42.035,0.003
42.040,0.004
42.045,0.004
42.050,0.005
42.055,0.007
42.060,0.003
42.065,0.006
42.070,0.008
42.075,0.003
42.080,0.005
42.085,0.005
42.090,0.004
42.095,0.008
42.100,0.009
42.105,0.011
42.110,0.009
42.115,0.010
42.120,0.013
42.125,0.010
42.130,0.011
42.135,0.009
42.140,0.005
42.145,0.008
42.150,0.008
42.155,0.007
42.160,0.004
42.165,0.005
42.170,0.009
42.175,0.011
42.180,0.017
42.185,0.020
42.190,0.022
42.195,0.028
42.200,0.027
42.205,0.025
42.210,0.038
42.215,0.062
42.220,0.084
42.225,0.087
42.230,0.065
42.235,0.036
42.240,0.019
42.245,0.004
42.250,-0.001
42.255,-0.005
42.260,-0.024
42.265,-0.031
42.270,-0.037
42.275,-0.051
42.280,-0.048
42.285,-0.047
42.290,-0.049
42.295,-0.045
42.300,-0.046
42.305,-0.045
42.310,-0.042
42.315,-0.039
42.320,-0.035
42.325,-0.037
42.330,-0.033
42.335,-0.033
42.340,-0.052
42.345,-0.069
42.350,-0.037
42.355,0.075
42.360,0.287
42.365,0.581
42.370,0.908
42.375,1.153
42.380,1.013
42.385,0.475
42.390,-0.058
42.395,-0.330
42.400,-0.353
42.405,-0.308
42.410,-0.301
42.415,-0.270
42.420,-0.234
42.425,-0.243
42.430,-0.247
42.435,-0.226
42.440,-0.218
42.445,-0.216
42.450,-0.198
42.455,-0.182
42.460,-0.182
42.465,-0.167
42.470,-0.149
42.475,-0.147
42.480,-0.138
42.485,-0.130
42.490,-0.126
42.495,-0.117
42.500,-0.111
42.505,-0.104
42.510,-0.102
42.515,-0.094
42.520,-0.081
42.525,-0.080
42.530,-0.072
42.535,-0.064
42.540,-0.060
42.545,-0.050
42.550,-0.042
42.555,-0.035
42.560,-0.031
42.565,-0.025
42.570,-0.016
42.575,-0.011
42.580,0.001
42.585,0.008
42.590,0.008
42.595,0.015
42.600,0.024
42.605,0.035
42.610,0.041
42.615,0.048
42.620,0.055
42.625,0.061
42.630,0.070
42.635,0.073
42.640,0.078
42.645,0.085
42.650,0.090
42.655,0.095
42.660,0.091
42.665,0.084
42.670,0.074
42.675,0.054
42.680,0.042
42.685,0.027
42.690,0.008
42.695,-0.010
42.700,-0.028
42.705,-0.041
42.710,-0.052
42.715,-0.059
42.720,-0.064
42.725,-0.073
42.730,-0.074
42.735,-0.073
42.740,-0.074
42.745,-0.071
42.750,-0.070
42.755,-0.067
42.760,-0.065
42.765,-0.060
42.770,-0.057
42.775,-0.059
42.780,-0.055
42.785,-0.052
42.790,-0.050
42.795,-0.046
42.800,-0.044
42.805,-0.041
42.810,-0.040
42.815,-0.033
42.820,-0.028
42.825,-0.029
42.830,-0.024
42.835,-0.022
42.840,-0.019
42.845,-0.012
42.850,-0.010
42.855,-0.007
42.860,-0.005
42.865,0.001
42.870,0.005
42.875,0.000
42.880,0.005
42.885,0.008
42.890,0.007
42.895,0.012
42.900,0.011
42.905,0.012
42.910,0.009
42.915,0.009
42.920,0.013
42.925,0.012
42.930,0.014
42.935,0.013
42.940,0.009
42.945,0.012
42.950,0.013
42.955,0.013
42.960,0.012
42.965,0.014
42.970,0.018
42.975,0.018
42.980,0.023
42.985,0.025
42.990,0.025
42.995,0.026
43.000,0.029
43.005,0.033
43.010,0.032
43.015,0.032
43.020,0.032
43.025,0.031
43.030,0.036
43.035,0.036
43.040,0.032
43.045,0.029
43.050,0.029
43.055,0.032
43.060,0.032
43.065,0.033
43.070,0.031
43.075,0.025
43.080,0.030
43.085,0.030
43.090,0.027
43.095,0.027
43.100,0.024
43.105,0.027
43.110,0.027
43.115,0.027
43.120,0.027
43.125,0.020
43.130,0.022
43.135,0.023
43.140,0.021
43.145,0.019
43.150,0.016
43.155,0.015
43.160,0.016
43.165,0.017
43.170,0.017
43.175,0.011
43.180,0.013
43.185,0.015
43.190,0.014
43.195,0.013
43.200,0.011
43.205,0.011
43.210,0.006
43.215,0.007
43.220,0.009
43.225,0.008
43.230,0.011
43.235,0.009
43.240,0.008
43.245,0.011
43.250,0.011
43.255,0.011
43.260,0.009
43.265,0.011
43.270,0.014
43.275,0.010
43.280,0.013
43.285,0.012
43.290,0.009
43.295,0.011
43.300,0.010
43.305,0.010
43.310,0.005
43.315,0.002
43.320,0.004
43.325,0.003
43.330,0.010
43.335,0.014
43.340,0.013
43.345,0.021
43.350,0.032
43.355,0.038
43.360,0.030
43.365,0.027
43.370,0.047
43.375,0.068
43.380,0.081
43.385,0.073
43.390,0.051
43.395,0.035
43.400,0.017
43.405,0.000
43.410,-0.008
43.415,-0.017
43.420,-0.031
43.425,-0.041
43.430,-0.041
43.435,-0.046
43.440,-0.051
43.445,-0.052
43.450,-0.050
43.455,-0.045
43.460,-0.048
43.465,-0.047
43.470,-0.043
43.475,-0.047
43.480,-0.041
43.485,-0.036
43.490,-0.036
43.495,-0.042
43.500,-0.063
43.505,-0.065
43.510,-0.008
43.515,0.135
43.520,0.376
43.525,0.672
43.530,0.993
43.535,1.149
43.540,0.847
43.545,0.263
43.550,-0.194
43.555,-0.369
43.560,-0.347
43.565,-0.307
43.570,-0.294
43.575,-0.259
43.580,-0.231
43.585,-0.243
43.590,-0.238
43.595,-0.213
43.600,-0.213
43.605,-0.209
43.610,-0.190
43.615,-0.178
43.620,-0.174
43.625,-0.160
43.630,-0.145
43.635,-0.144
43.640,-0.136
43.645,-0.121
43.650,-0.117
43.655,-0.111
43.660,-0.105
43.665,-0.096
43.670,-0.087
43.675,-0.083
43.680,-0.073
43.685,-0.069
43.690,-0.064
43.695,-0.053
43.700,-0.046
43.705,-0.038
43.710,-0.035
43.715,-0.032
43.720,-0.028
43.725,-0.025
43.730,-0.017
43.735,-0.012
43.740,-0.009
43.745,0.001
43.750,0.010
43.755,0.017
43.760,0.022
43.765,0.030
43.770,0.040
43.775,0.047
43.780,0.056
43.785,0.061
43.790,0.064
43.795,0.069
43.800,0.076
43.805,0.083
43.810,0.086
43.815,0.091
43.820,0.091
43.825,0.084
43.830,0.077
43.835,0.061
43.840,0.043
43.845,0.028
43.850,0.014
43.855,0.000
43.860,-0.018
43.865,-0.031
43.870,-0.041
43.875,-0.053
43.880,-0.056
43.885,-0.061
43.890,-0.066
43.895,-0.066
43.900,-0.069
43.905,-0.066
43.910,-0.065
43.915,-0.062
43.920,-0.058
43.925,-0.062
43.930,-0.059
43.935,-0.055
43.940,-0.056
43.945,-0.054
43.950,-0.054
43.955,-0.053
43.960,-0.051
43.965,-0.044
43.970,-0.038
43.975,-0.038
43.980,-0.034
43.985,-0.031
43.990,-0.028
43.995,-0.024
44.000,-0.022
44.005,-0.017
44.010,-0.013
44.015,-0.005
44.020,-0.001
44.025,-0.005
44.030,-0.003
44.035,0.000
44.040,0.004
44.045,0.009
44.050,0.009
44.055,0.008
44.060,0.006
44.065,0.009
44.070,0.012
44.075,0.008
44.080,0.010
44.085,0.008
44.090,0.005
44.095,0.009
44.100,0.010
44.105,0.011
44.110,0.012
44.115,0.015
44.120,0.019
44.125,0.016
44.130,0.020
44.135,0.023
44.140,0.021
44.145,0.024
44.150,0.025
44.155,0.026
44.160,0.025
44.165,0.025
44.170,0.028
44.175,0.027
44.180,0.032
44.185,0.033
44.190,0.029
44.195,0.027
44.200,0.025
44.205,0.026
44.210,0.025
44.215,0.023
44.220,0.023
44.225,0.021
44.230,0.023
44.235,0.018
44.240,0.014
44.245,0.016
44.250,0.019
44.255,0.024
44.260,0.023
44.265,0.026
44.270,0.026
44.275,0.022
44.280,0.029
44.285,0.031
44.290,0.029
44.295,0.028
44.300,0.023
44.305,0.024
44.310,0.024
44.315,0.024
44.320,0.025
44.325,0.020
44.330,0.025
44.335,0.027
44.340,0.025
44.345,0.024
44.350,0.022
44.355,0.021
44.360,0.018
44.365,0.015
44.370,0.012
44.375,0.011
44.380,0.017
44.385,0.008
44.390,0.002
44.395,0.007
44.400,0.007
44.405,0.005
44.410,-0.002
44.415,-0.002
44.420,0.003
44.425,-0.001
44.430,-0.001
44.435,0.006
44.440,0.012
44.445,0.016
44.450,0.024
44.455,0.037
44.460,0.036
44.465,0.031
44.470,0.037
44.475,0.050
44.480,0.063
44.485,0.061
44.490,0.044
44.495,0.029
44.500,0.020
44.505,0.009
44.510,-0.003
44.515,-0.008
44.520,-0.018
44.525,-0.029
44.530,-0.028
44.535,-0.029
44.540,-0.031
44.545,-0.027
44.550,-0.031
44.555,-0.036
44.560,-0.043
44.565,-0.043
44.570,-0.036
44.575,-0.038
44.580,-0.036
44.585,-0.034
44.590,-0.046
44.595,-0.067
44.600,-0.069
44.605,-0.029
44.610,0.091
44.615,0.332
44.620,0.653
44.625,1.000
44.630,1.119
44.635,0.740
44.640,0.144
44.645,-0.252
44.650,-0.368
44.655,-0.336
44.660,-0.310
44.665,-0.282
44.670,-0.221
44.675,-0.197
44.680,-0.203
44.685,-0.181
44.690,-0.154
44.695,-0.156
44.700,-0.153
44.705,-0.126
44.710,-0.124
44.715,-0.125
44.720,-0.103
44.725,-0.095
44.730,-0.099
44.735,-0.098
44.740,-0.097
44.745,-0.091
44.750,-0.086
44.755,-0.080
44.760,-0.076
44.765,-0.071
44.770,-0.061
44.775,-0.057
44.780,-0.051
44.785,-0.042
44.790,-0.040
44.795,-0.042
44.800,-0.039
44.805,-0.031
44.810,-0.022
44.815,-0.010
44.820,0.005
44.825,0.015
44.830,0.025
44.835,0.030
44.840,0.039
44.845,0.048
44.850,0.051
44.855,0.058
44.860,0.061
44.865,0.062
44.870,0.062
44.875,0.065
44.880,0.080
44.885,0.084
44.890,0.082
44.895,0.087
44.900,0.086
44.905,0.081
44.910,0.066
44.915,0.057
44.920,0.056
44.925,0.044
44.930,0.030
44.935,0.004
44.940,-0.026
44.945,-0.044
44.950,-0.063
44.955,-0.083
44.960,-0.097
44.965,-0.105
44.970,-0.109
44.975,-0.116
44.980,-0.118
44.985,-0.116
44.990,-0.114
44.995,-0.110
45.000,-0.106
45.005,-0.102
45.010,-0.104
45.015,-0.103
45.020,-0.096
45.025,-0.092
45.030,-0.084
45.035,-0.080
45.040,-0.077
45.045,-0.069
45.050,-0.061
45.055,-0.056
45.060,-0.054
45.065,-0.047
45.070,-0.043
45.075,-0.042
45.080,-0.034
45.085,-0.029
45.090,-0.027
45.095,-0.020
45.100,-0.018
45.105,-0.011
45.110,-0.007
45.115,-0.005
45.120,-0.001
45.125,-0.004
45.130,-0.001
45.135,0.002
45.140,-0.001
45.145,-0.001
45.150,-0.003
45.155,-0.002
45.160,-0.001
45.165,0.000
45.170,0.001
45.175,-0.002
45.180,-0.001
45.185,-0.001
45.190,-0.001
45.195,0.002
45.200,0.003
45.205,0.002
45.210,0.002
45.215,0.008
45.220,0.012
45.225,0.009
45.230,0.011
45.235,0.011
45.240,0.012
45.245,0.014
45.250,0.012
45.255,0.008
45.260,0.002
45.265,0.006
45.270,0.012
45.275,0.008
45.280,0.010
45.285,0.009
45.290,0.009
45.295,0.014
45.300,0.013
45.305,0.013
