'Elapsed time','ECG'
'seconds','mV'
0.000,-0.086
0.005,-0.154
0.010,-0.137
0.015,-0.101
0.020,-0.098
0.025,-0.092
0.030,-0.072
0.035,-0.043
0.040,-0.039
0.045,-0.063
0.050,-0.056
0.055,-0.029
0.060,-0.018
0.065,-0.002
0.070,0.018
0.075,0.026
0.080,0.023
0.085,0.017
0.090,0.016
0.095,0.018
0.100,0.023
0.105,0.020
0.110,0.012
0.115,0.015
0.120,0.015
0.125,0.015
0.130,0.015
0.135,0.008
0.140,0.003
0.145,-0.001
0.150,-0.008
0.155,-0.025
0.160,-0.076
0.165,-0.178
0.170,-0.346
0.175,-0.536
0.180,-0.719
0.185,-0.964
0.190,-1.233
0.195,-1.219
0.200,-0.768
0.205,-0.193
0.210,0.188
0.215,0.330
0.220,0.324
0.225,0.306
0.230,0.300
0.235,0.291
0.240,0.319
0.245,0.321
0.250,0.280
0.255,0.273
0.260,0.278
0.265,0.253
0.270,0.236
0.275,0.243
0.280,0.233
0.285,0.211
0.290,0.205
0.295,0.195
0.300,0.178
0.305,0.168
0.310,0.156
0.315,0.148
0.320,0.143
0.325,0.137
0.330,0.125
0.335,0.111
0.340,0.110
0.345,0.103
0.350,0.090
0.355,0.082
0.360,0.072
0.365,0.065
0.370,0.051
0.375,0.036
0.380,0.027
0.385,0.017
0.390,0.013
0.395,-0.003
0.400,-0.021
0.405,-0.031
0.410,-0.046
0.415,-0.060
0.420,-0.079
0.425,-0.099
0.430,-0.113
0.435,-0.128
0.440,-0.140
0.445,-0.157
0.450,-0.169
0.455,-0.173
0.460,-0.177
0.465,-0.174
0.470,-0.172
0.475,-0.162
0.480,-0.139
0.485,-0.118
0.490,-0.096
0.495,-0.068
0.500,-0.028
0.505,0.012
0.510,0.044
0.515,0.072
0.520,0.096
0.525,0.118
0.530,0.136
0.535,0.152
0.540,0.168
0.545,0.172
0.550,0.174
0.555,0.176
0.560,0.171
0.565,0.170
0.570,0.164
0.575,0.160
0.580,0.155
0.585,0.143
0.590,0.140
0.595,0.135
0.600,0.124
0.605,0.117
0.610,0.109
0.615,0.107
0.620,0.100
0.625,0.095
0.630,0.093
0.635,0.083
0.640,0.076
0.645,0.066
0.650,0.060
0.655,0.054
0.660,0.041
0.665,0.041
0.670,0.040
0.675,0.031
0.680,0.024
0.685,0.013
0.690,0.006
0.695,0.002
0.700,-0.005
0.705,-0.011
0.710,-0.022
0.715,-0.025
0.720,-0.026
0.725,-0.030
0.730,-0.033
0.735,-0.037
0.740,-0.036
0.745,-0.037
0.750,-0.039
0.755,-0.039
0.760,-0.041
0.765,-0.041
0.770,-0.044
0.775,-0.043
0.780,-0.038
0.785,-0.038
0.790,-0.037
0.795,-0.039
0.800,-0.038
0.805,-0.030
0.810,-0.036
0.815,-0.040
0.820,-0.038
0.825,-0.037
0.830,-0.034
0.835,-0.039
0.840,-0.041
0.845,-0.039
0.850,-0.039
0.855,-0.039
0.860,-0.043
0.865,-0.051
0.870,-0.063
0.875,-0.071
0.880,-0.079
0.885,-0.090
0.890,-0.087
0.895,-0.084
0.900,-0.085
0.905,-0.091
0.910,-0.112
0.915,-0.116
0.920,-0.096
0.925,-0.078
0.930,-0.073
0.935,-0.067
0.940,-0.043
0.945,-0.021
0.950,-0.016
0.955,-0.028
0.960,-0.033
0.965,-0.009
0.970,0.009
0.975,0.017
0.980,0.035
0.985,0.047
0.990,0.051
0.995,0.047
1.000,0.040
1.005,0.039
1.010,0.035
1.015,0.031
1.020,0.029
1.025,0.030
1.030,0.032
1.035,0.028
1.040,0.028
1.045,0.022
1.050,0.017
1.055,0.017
1.060,0.009
1.065,-0.008
1.070,-0.052
1.075,-0.150
1.080,-0.312
1.085,-0.502
1.090,-0.683
1.095,-0.916
1.100,-1.190
1.105,-1.217
1.110,-0.804
1.115,-0.226
1.120,0.177
1.125,0.333
1.130,0.331
1.135,0.303
1.140,0.298
1.145,0.292
1.150,0.314
1.155,0.327
1.160,0.282
1.165,0.268
1.170,0.281
1.175,0.260
1.180,0.241
1.185,0.236
1.190,0.223
1.195,0.208
1.200,0.204
1.205,0.195
1.210,0.174
1.215,0.169
1.220,0.165
1.225,0.152
1.230,0.141
1.235,0.132
1.240,0.123
1.245,0.113
1.250,0.107
1.255,0.099
1.260,0.084
1.265,0.081
1.270,0.075
1.275,0.059
1.280,0.049
1.285,0.040
1.290,0.032
1.295,0.020
1.300,0.004
1.305,-0.002
1.310,-0.013
1.315,-0.027
1.320,-0.043
1.325,-0.062
1.330,-0.077
1.335,-0.094
1.340,-0.110
1.345,-0.126
1.350,-0.145
1.355,-0.156
1.360,-0.164
1.365,-0.169
1.370,-0.173
1.375,-0.173
1.380,-0.165
1.385,-0.156
1.390,-0.140
1.395,-0.125
1.400,-0.102
1.405,-0.067
1.410,-0.036
1.415,0.001
1.420,0.035
1.425,0.066
1.430,0.093
1.435,0.112
1.440,0.133
1.445,0.147
1.450,0.156
1.455,0.162
1.460,0.160
1.465,0.165
1.470,0.167
1.475,0.164
1.480,0.159
1.485,0.149
1.490,0.150
1.495,0.149
1.500,0.141
1.505,0.133
1.510,0.119
1.515,0.118
1.520,0.116
1.525,0.106
1.530,0.101
1.535,0.091
1.540,0.084
1.545,0.079
1.550,0.075
1.555,0.077
1.560,0.068
1.565,0.059
1.570,0.052
1.575,0.041
1.580,0.036
1.585,0.027
1.590,0.020
1.595,0.014
1.600,0.004
1.605,0.000
1.610,-0.004
1.615,-0.008
1.620,-0.014
1.625,-0.019
1.630,-0.020
1.635,-0.027
1.640,-0.032
1.645,-0.034
1.650,-0.034
1.655,-0.033
1.660,-0.037
1.665,-0.036
1.670,-0.033
1.675,-0.034
1.680,-0.036
1.685,-0.040
1.690,-0.040
1.695,-0.039
1.700,-0.039
1.705,-0.034
1.710,-0.030
1.715,-0.028
1.720,-0.035
1.725,-0.041
1.730,-0.036
1.735,-0.035
1.740,-0.037
1.745,-0.041
1.750,-0.037
1.755,-0.025
1.760,-0.030
1.765,-0.034
1.770,-0.034
1.775,-0.039
1.780,-0.047
1.785,-0.067
1.790,-0.078
1.795,-0.080
1.800,-0.086
1.805,-0.087
1.810,-0.087
1.815,-0.088
1.820,-0.096
1.825,-0.115
1.830,-0.124
1.835,-0.108
1.840,-0.078
1.845,-0.069
1.850,-0.065
1.855,-0.045
1.860,-0.032
1.865,-0.023
1.870,-0.026
1.875,-0.026
1.880,-0.003
1.885,0.010
1.890,0.020
1.895,0.037
1.900,0.047
1.905,0.052
1.910,0.049
1.915,0.044
1.920,0.039
1.925,0.034
1.930,0.033
1.935,0.033
1.940,0.037
1.945,0.031
1.950,0.022
1.955,0.023
1.960,0.018
1.965,0.013
1.970,0.007
1.975,0.001
1.980,-0.004
1.985,-0.033
1.990,-0.101
1.995,-0.235
2.000,-0.416
2.005,-0.600
2.010,-0.837
2.015,-1.138
2.020,-1.273
2.025,-0.964
2.030,-0.371
2.035,0.110
2.040,0.319
2.045,0.325
2.050,0.289
2.055,0.284
2.060,0.277
2.065,0.294
2.070,0.315
2.075,0.289
2.080,0.274
2.085,0.285
2.090,0.273
2.095,0.246
2.100,0.236
2.105,0.230
2.110,0.215
2.115,0.211
2.120,0.204
2.125,0.185
2.130,0.168
2.135,0.153
2.140,0.145
2.145,0.142
2.150,0.143
2.155,0.140
2.160,0.123
2.165,0.110
2.170,0.098
2.175,0.084
2.180,0.076
2.185,0.070
2.190,0.067
2.195,0.057
2.200,0.043
2.205,0.032
2.210,0.014
2.215,0.007
2.220,0.001
2.225,-0.012
2.230,-0.028
2.235,-0.049
2.240,-0.064
2.245,-0.078
2.250,-0.093
2.255,-0.103
2.260,-0.118
2.265,-0.128
2.270,-0.146
2.275,-0.171
2.280,-0.174
2.285,-0.163
2.290,-0.154
2.295,-0.146
2.300,-0.137
2.305,-0.126
2.310,-0.115
2.315,-0.095
2.320,-0.069
2.325,-0.035
2.330,0.002
2.335,0.029
2.340,0.064
2.345,0.092
2.350,0.111
2.355,0.127
2.360,0.135
2.365,0.147
2.370,0.154
2.375,0.158
2.380,0.164
2.385,0.160
2.390,0.158
2.395,0.155
2.400,0.154
2.405,0.155
2.410,0.145
2.415,0.132
2.420,0.125
2.425,0.119
2.430,0.114
2.435,0.106
2.440,0.102
2.445,0.097
2.450,0.087
2.455,0.085
2.460,0.078
2.465,0.070
2.470,0.056
2.475,0.037
2.480,0.037
2.485,0.042
2.490,0.040
2.495,0.033
2.500,0.021
2.505,0.011
2.510,-0.002
2.515,-0.012
2.520,-0.018
2.525,-0.023
2.530,-0.022
2.535,-0.022
2.540,-0.023
2.545,-0.031
2.550,-0.037
2.555,-0.035
2.560,-0.039
2.565,-0.038
2.570,-0.033
2.575,-0.032
2.580,-0.032
2.585,-0.038
2.590,-0.036
2.595,-0.035
2.600,-0.039
2.605,-0.036
2.610,-0.029
2.615,-0.023
2.620,-0.028
2.625,-0.037
2.630,-0.035
2.635,-0.030
2.640,-0.026
2.645,-0.028
2.650,-0.036
2.655,-0.042
2.660,-0.041
2.665,-0.030
2.670,-0.024
2.675,-0.028
2.680,-0.037
2.685,-0.052
2.690,-0.061
2.695,-0.067
2.700,-0.074
2.705,-0.074
2.710,-0.072
2.715,-0.071
2.720,-0.076
2.725,-0.101
2.730,-0.124
2.735,-0.116
2.740,-0.092
2.745,-0.080
2.750,-0.067
2.755,-0.044
2.760,-0.032
2.765,-0.025
2.770,-0.027
2.775,-0.032
2.780,-0.013
2.785,0.008
2.790,0.026
2.795,0.049
2.800,0.060
2.805,0.058
2.810,0.049
2.815,0.040
2.820,0.038
2.825,0.046
2.830,0.050
2.835,0.042
2.840,0.040
2.845,0.040
2.850,0.036
2.855,0.033
2.860,0.024
2.865,0.021
2.870,0.014
2.875,0.008
2.880,0.010
2.885,-0.005
2.890,-0.043
2.895,-0.130
2.900,-0.285
2.905,-0.482
2.910,-0.710
2.915,-1.013
2.920,-1.314
2.925,-1.286
2.930,-0.795
2.935,-0.180
2.940,0.222
2.945,0.340
2.950,0.304
2.955,0.289
2.960,0.295
2.965,0.305
2.970,0.336
2.975,0.331
2.980,0.294
2.985,0.290
2.990,0.296
2.995,0.270
3.000,0.256
3.005,0.262
3.010,0.249
3.015,0.228
3.020,0.219
3.025,0.204
3.030,0.184
3.035,0.169
3.040,0.163
3.045,0.158
3.050,0.153
3.055,0.145
3.060,0.129
3.065,0.116
3.070,0.106
3.075,0.098
3.080,0.093
3.085,0.076
3.090,0.063
3.095,0.059
3.100,0.049
3.105,0.038
3.110,0.020
3.115,0.006
3.120,0.003
3.125,-0.006
3.130,-0.020
3.135,-0.034
3.140,-0.051
3.145,-0.072
3.150,-0.095
3.155,-0.111
3.160,-0.121
3.165,-0.127
3.170,-0.136
3.175,-0.154
3.180,-0.165
3.185,-0.168
3.190,-0.166
3.195,-0.160
3.200,-0.153
3.205,-0.142
3.210,-0.137
3.215,-0.123
3.220,-0.093
3.225,-0.055
3.230,-0.013
3.235,0.020
3.240,0.052
3.245,0.076
3.250,0.094
3.255,0.115
3.260,0.126
3.265,0.141
3.270,0.154
3.275,0.155
3.280,0.160
3.285,0.159
3.290,0.156
3.295,0.154
3.300,0.147
3.305,0.144
3.310,0.140
3.315,0.132
3.320,0.127
3.325,0.123
3.330,0.122
3.335,0.108
3.340,0.094
3.345,0.097
3.350,0.093
3.355,0.083
3.360,0.071
3.365,0.065
3.370,0.063
3.375,0.052
3.380,0.040
3.385,0.030
3.390,0.025
3.395,0.016
3.400,0.004
3.405,-0.003
3.410,-0.012
3.415,-0.013
3.420,-0.016
3.425,-0.025
3.430,-0.025
3.435,-0.024
3.440,-0.027
3.445,-0.036
3.450,-0.049
3.455,-0.046
3.460,-0.042
3.465,-0.045
3.470,-0.047
3.475,-0.045
3.480,-0.040
3.485,-0.037
3.490,-0.033
3.495,-0.033
3.500,-0.041
3.505,-0.046
3.510,-0.042
3.515,-0.030
3.520,-0.024
3.525,-0.028
3.530,-0.032
3.535,-0.032
3.540,-0.028
3.545,-0.026
3.550,-0.029
3.555,-0.033
3.560,-0.042
3.565,-0.042
3.570,-0.030
3.575,-0.024
3.580,-0.026
3.585,-0.043
3.590,-0.058
3.595,-0.061
3.600,-0.062
3.605,-0.062
3.610,-0.069
3.615,-0.075
3.620,-0.073
3.625,-0.079
3.630,-0.103
3.635,-0.130
3.640,-0.118
3.645,-0.086
3.650,-0.077
3.655,-0.076
3.660,-0.066
3.665,-0.046
3.670,-0.033
3.675,-0.038
3.680,-0.025
3.685,0.003
3.690,0.015
3.695,0.019
3.700,0.039
3.705,0.058
3.710,0.054
3.715,0.043
3.720,0.039
3.725,0.045
3.730,0.046
3.735,0.038
3.740,0.039
3.745,0.044
3.750,0.046
3.755,0.046
3.760,0.035
3.765,0.024
3.770,0.015
3.775,0.015
3.780,0.022
3.785,0.007
3.790,-0.026
3.795,-0.073
3.800,-0.180
3.805,-0.367
3.810,-0.603
3.815,-0.886
3.820,-1.245
3.825,-1.456
3.830,-1.208
3.835,-0.616
3.840,-0.050
3.845,0.260
3.850,0.328
3.855,0.314
3.860,0.313
3.865,0.323
3.870,0.356
3.875,0.377
3.880,0.346
3.885,0.318
3.890,0.337
3.895,0.337
3.900,0.305
3.905,0.295
3.910,0.282
3.915,0.265
3.920,0.261
3.925,0.248
3.930,0.233
3.935,0.217
3.940,0.202
3.945,0.188
3.950,0.174
3.955,0.172
3.960,0.167
3.965,0.151
3.970,0.135
3.975,0.120
3.980,0.104
3.985,0.090
3.990,0.088
3.995,0.090
4.000,0.076
4.005,0.056
4.010,0.043
4.015,0.035
4.020,0.025
4.025,0.009
4.030,-0.007
4.035,-0.024
4.040,-0.039
4.045,-0.055
4.050,-0.069
4.055,-0.080
4.060,-0.097
4.065,-0.116
4.070,-0.133
4.075,-0.149
4.080,-0.162
4.085,-0.170
4.090,-0.170
4.095,-0.163
4.100,-0.158
4.105,-0.156
4.110,-0.146
4.115,-0.122
4.120,-0.097
4.125,-0.077
4.130,-0.047
4.135,-0.011
4.140,0.025
4.145,0.062
4.150,0.090
4.155,0.113
4.160,0.124
4.165,0.133
4.170,0.148
4.175,0.152
4.180,0.153
4.185,0.157
4.190,0.167
4.195,0.173
4.200,0.166
4.205,0.158
4.210,0.140
4.215,0.125
4.220,0.122
4.225,0.120
4.230,0.128
4.235,0.132
4.240,0.122
4.245,0.104
4.250,0.084
4.255,0.081
4.260,0.079
4.265,0.067
4.270,0.063
4.275,0.058
4.280,0.057
4.285,0.055
4.290,0.042
4.295,0.029
4.300,0.018
4.305,0.005
4.310,-0.009
4.315,-0.014
4.320,-0.010
4.325,-0.011
4.330,-0.018
4.335,-0.028
4.340,-0.033
4.345,-0.036
4.350,-0.035
4.355,-0.033
4.360,-0.044
4.365,-0.049
4.370,-0.047
4.375,-0.045
4.380,-0.037
4.385,-0.043
4.390,-0.051
4.395,-0.051
4.400,-0.049
4.405,-0.043
4.410,-0.041
4.415,-0.040
4.420,-0.040
4.425,-0.042
4.430,-0.044
4.435,-0.047
4.440,-0.037
4.445,-0.028
4.450,-0.034
4.455,-0.032
4.460,-0.031
4.465,-0.032
4.470,-0.036
4.475,-0.040
4.480,-0.036
4.485,-0.041
4.490,-0.046
4.495,-0.049
4.500,-0.057
4.505,-0.064
4.510,-0.073
4.515,-0.073
4.520,-0.074
4.525,-0.084
4.530,-0.087
4.535,-0.100
4.540,-0.112
4.545,-0.105
4.550,-0.093
4.555,-0.084
4.560,-0.070
4.565,-0.049
4.570,-0.035
4.575,-0.034
4.580,-0.037
4.585,-0.028
4.590,-0.007
4.595,0.007
4.600,0.021
4.605,0.047
4.610,0.061
4.615,0.057
4.620,0.051
4.625,0.044
4.630,0.042
4.635,0.046
4.640,0.050
4.645,0.046
4.650,0.036
4.655,0.036
4.660,0.038
4.665,0.036
4.670,0.028
4.675,0.014
4.680,0.013
4.685,0.013
4.690,-0.002
4.695,-0.044
4.700,-0.121
4.705,-0.259
4.710,-0.466
4.715,-0.705
4.720,-1.009
4.725,-1.355
4.730,-1.442
4.735,-1.061
4.740,-0.451
4.745,0.037
4.750,0.275
4.755,0.327
4.760,0.326
4.765,0.333
4.770,0.343
4.775,0.374
4.780,0.391
4.785,0.352
4.790,0.334
4.795,0.346
4.800,0.324
4.805,0.296
4.810,0.292
4.815,0.283
4.820,0.264
4.825,0.254
4.830,0.246
4.835,0.222
4.840,0.209
4.845,0.208
4.850,0.192
4.855,0.182
4.860,0.174
4.865,0.154
4.870,0.142
4.875,0.129
4.880,0.121
4.885,0.113
4.890,0.099
4.895,0.089
4.900,0.078
4.905,0.067
4.910,0.057
4.915,0.047
4.920,0.034
4.925,0.016
4.930,0.007
4.935,-0.005
4.940,-0.023
4.945,-0.044
4.950,-0.066
4.955,-0.076
4.960,-0.091
4.965,-0.113
4.970,-0.130
4.975,-0.149
4.980,-0.159
4.985,-0.168
4.990,-0.176
4.995,-0.171
5.000,-0.170
5.005,-0.167
5.010,-0.160
5.015,-0.151
5.020,-0.131
5.025,-0.100
5.030,-0.065
5.035,-0.035
5.040,-0.005
5.045,0.031
5.050,0.066
5.055,0.097
5.060,0.109
5.065,0.124
5.070,0.150
5.075,0.161
5.080,0.171
5.085,0.170
5.090,0.164
5.095,0.164
5.100,0.158
5.105,0.156
5.110,0.150
5.115,0.143
5.120,0.140
5.125,0.130
5.130,0.125
5.135,0.119
5.140,0.107
5.145,0.100
5.150,0.096
5.155,0.098
5.160,0.093
5.165,0.080
5.170,0.073
5.175,0.063
5.180,0.058
5.185,0.057
5.190,0.049
5.195,0.040
5.200,0.026
5.205,0.018
5.210,0.014
5.215,0.008
5.220,-0.001
5.225,-0.014
5.230,-0.019
5.235,-0.022
5.240,-0.026
5.245,-0.027
5.250,-0.035
5.255,-0.036
5.260,-0.037
5.265,-0.042
5.270,-0.043
5.275,-0.045
5.280,-0.048
5.285,-0.056
5.290,-0.053
5.295,-0.040
5.300,-0.038
5.305,-0.041
5.310,-0.050
5.315,-0.052
5.320,-0.042
5.325,-0.041
5.330,-0.039
5.335,-0.037
5.340,-0.038
5.345,-0.041
5.350,-0.047
5.355,-0.043
5.360,-0.040
5.365,-0.039
5.370,-0.038
5.375,-0.043
5.380,-0.042
5.385,-0.041
5.390,-0.042
5.395,-0.040
5.400,-0.049
5.405,-0.060
5.410,-0.067
5.415,-0.071
5.420,-0.078
5.425,-0.087
5.430,-0.083
5.435,-0.079
5.440,-0.091
5.445,-0.115
5.450,-0.127
5.455,-0.109
5.460,-0.087
5.465,-0.082
5.470,-0.070
5.475,-0.051
5.480,-0.035
5.485,-0.036
5.490,-0.043
5.495,-0.032
5.500,-0.014
5.505,0.002
5.510,0.015
5.515,0.033
5.520,0.047
5.525,0.043
5.530,0.045
5.535,0.044
5.540,0.039
5.545,0.048
5.550,0.045
5.555,0.036
5.560,0.032
5.565,0.026
5.570,0.033
5.575,0.035
5.580,0.031
5.585,0.025
5.590,0.014
5.595,0.006
5.600,-0.005
5.605,-0.037
5.610,-0.119
5.615,-0.275
5.620,-0.471
5.625,-0.682
5.630,-0.950
5.635,-1.278
5.640,-1.398
5.645,-1.057
5.650,-0.460
5.655,0.041
5.660,0.297
5.665,0.351
5.670,0.347
5.675,0.345
5.680,0.344
5.685,0.366
5.690,0.379
5.695,0.345
5.700,0.321
5.705,0.331
5.710,0.315
5.715,0.293
5.720,0.294
5.725,0.277
5.730,0.255
5.735,0.246
5.740,0.235
5.745,0.220
5.750,0.207
5.755,0.202
5.760,0.188
5.765,0.172
5.770,0.167
5.775,0.155
5.780,0.140
5.785,0.127
5.790,0.114
5.795,0.105
5.800,0.095
5.805,0.090
5.810,0.082
5.815,0.070
5.820,0.058
5.825,0.040
5.830,0.029
5.835,0.018
5.840,0.003
5.845,-0.012
5.850,-0.030
5.855,-0.043
5.860,-0.055
5.865,-0.069
5.870,-0.087
5.875,-0.115
5.880,-0.134
5.885,-0.144
5.890,-0.155
5.895,-0.163
5.900,-0.174
5.905,-0.179
5.910,-0.180
5.915,-0.176
5.920,-0.167
5.925,-0.161
5.930,-0.141
5.935,-0.113
5.940,-0.081
5.945,-0.043
5.950,-0.008
5.955,0.033
5.960,0.070
5.965,0.095
5.970,0.119
5.975,0.135
5.980,0.148
5.985,0.154
5.990,0.159
5.995,0.171
6.000,0.174
6.005,0.168
6.010,0.164
6.015,0.163
6.020,0.165
6.025,0.159
6.030,0.151
6.035,0.142
6.040,0.134
6.045,0.124
6.050,0.113
6.055,0.109
6.060,0.104
6.065,0.097
6.070,0.092
6.075,0.083
6.080,0.077
6.085,0.066
6.090,0.057
6.095,0.058
6.100,0.052
6.105,0.043
6.110,0.035
6.115,0.031
6.120,0.032
6.125,0.025
6.130,0.016
6.135,0.011
6.140,0.006
6.145,0.000
6.150,-0.011
6.155,-0.018
6.160,-0.024
6.165,-0.029
6.170,-0.027
6.175,-0.033
6.180,-0.037
6.185,-0.040
6.190,-0.042
6.195,-0.037
6.200,-0.041
6.205,-0.045
6.210,-0.047
6.215,-0.049
6.220,-0.043
6.225,-0.043
6.230,-0.044
6.235,-0.042
6.240,-0.043
6.245,-0.041
6.250,-0.043
6.255,-0.046
6.260,-0.039
6.265,-0.032
6.270,-0.034
6.275,-0.041
6.280,-0.037
6.285,-0.034
6.290,-0.039
6.295,-0.041
6.300,-0.045
6.305,-0.044
6.310,-0.047
6.315,-0.055
6.320,-0.058
6.325,-0.070
6.330,-0.078
6.335,-0.082
6.340,-0.085
6.345,-0.080
6.350,-0.080
6.355,-0.085
6.360,-0.105
6.365,-0.123
6.370,-0.104
6.375,-0.082
6.380,-0.076
6.385,-0.073
6.390,-0.063
6.395,-0.039
6.400,-0.030
6.405,-0.038
6.410,-0.037
6.415,-0.022
6.420,-0.003
6.425,0.009
6.430,0.030
6.435,0.049
6.440,0.052
6.445,0.049
6.450,0.041
6.455,0.038
6.460,0.040
6.465,0.037
6.470,0.038
6.475,0.036
6.480,0.033
6.485,0.031
6.490,0.027
6.495,0.026
6.500,0.017
6.505,0.015
6.510,0.013
6.515,0.001
6.520,-0.026
6.525,-0.104
6.530,-0.247
6.535,-0.434
6.540,-0.630
6.545,-0.856
6.550,-1.160
6.555,-1.356
6.560,-1.134
6.565,-0.577
6.570,-0.048
6.575,0.249
6.580,0.343
6.585,0.343
6.590,0.334
6.595,0.331
6.600,0.344
6.605,0.368
6.610,0.343
6.615,0.306
6.620,0.313
6.625,0.306
6.630,0.280
6.635,0.277
6.640,0.273
6.645,0.253
6.650,0.233
6.655,0.225
6.660,0.212
6.665,0.197
6.670,0.196
6.675,0.182
6.680,0.164
6.685,0.155
6.690,0.141
6.695,0.129
6.700,0.124
6.705,0.122
6.710,0.112
6.715,0.095
6.720,0.085
6.725,0.073
6.730,0.061
6.735,0.052
6.740,0.040
6.745,0.030
6.750,0.016
6.755,0.002
6.760,-0.011
6.765,-0.025
6.770,-0.037
6.775,-0.054
6.780,-0.068
6.785,-0.085
6.790,-0.106
6.795,-0.123
6.800,-0.142
6.805,-0.157
6.810,-0.166
6.815,-0.173
6.820,-0.176
6.825,-0.186
6.830,-0.184
6.835,-0.173
6.840,-0.159
6.845,-0.140
6.850,-0.121
6.855,-0.089
6.860,-0.052
6.865,-0.018
6.870,0.022
6.875,0.054
6.880,0.081
6.885,0.105
6.890,0.123
6.895,0.142
6.900,0.155
6.905,0.161
6.910,0.166
6.915,0.166
6.920,0.168
6.925,0.163
6.930,0.158
6.935,0.158
6.940,0.155
6.945,0.150
6.950,0.139
6.955,0.129
6.960,0.125
6.965,0.122
6.970,0.117
6.975,0.102
6.980,0.093
6.985,0.091
6.990,0.087
6.995,0.085
7.000,0.077
7.005,0.069
7.010,0.065
7.015,0.054
7.020,0.044
7.025,0.041
7.030,0.041
7.035,0.036
7.040,0.029
7.045,0.026
7.050,0.018
7.055,0.011
7.060,0.001
7.065,-0.009
7.070,-0.009
7.075,-0.016
7.080,-0.020
7.085,-0.023
7.090,-0.031
7.095,-0.031
7.100,-0.033
7.105,-0.035
7.110,-0.037
7.115,-0.040
7.120,-0.037
7.125,-0.040
7.130,-0.039
7.135,-0.035
7.140,-0.039
7.145,-0.036
7.150,-0.036
7.155,-0.036
7.160,-0.036
7.165,-0.038
7.170,-0.031
7.175,-0.030
7.180,-0.035
7.185,-0.039
7.190,-0.038
7.195,-0.032
7.200,-0.036
7.205,-0.037
7.210,-0.034
7.215,-0.036
7.220,-0.035
7.225,-0.038
7.230,-0.042
7.235,-0.050
7.240,-0.065
7.245,-0.072
7.250,-0.076
7.255,-0.081
7.260,-0.083
7.265,-0.083
7.270,-0.080
7.275,-0.088
7.280,-0.109
7.285,-0.113
7.290,-0.089
7.295,-0.069
7.300,-0.074
7.305,-0.068
7.310,-0.045
7.315,-0.025
7.320,-0.022
7.325,-0.038
7.330,-0.029
7.335,-0.002
7.340,0.010
7.345,0.022
7.350,0.036
7.355,0.046
7.360,0.046
7.365,0.041
7.370,0.042
7.375,0.038
7.380,0.034
7.385,0.034
7.390,0.035
7.395,0.038
7.400,0.035
7.405,0.030
7.410,0.031
7.415,0.027
7.420,0.021
7.425,0.012
7.430,0.008
7.435,-0.005
7.440,-0.059
7.445,-0.167
7.450,-0.335
7.455,-0.520
7.460,-0.699
7.465,-0.945
7.470,-1.229
7.475,-1.255
7.480,-0.831
7.485,-0.253
7.490,0.153
7.495,0.331
7.500,0.349
7.505,0.332
7.510,0.322
7.515,0.310
7.520,0.333
7.525,0.338
7.530,0.293
7.535,0.281
7.540,0.295
7.545,0.274
7.550,0.251
7.555,0.252
7.560,0.240
7.565,0.219
7.570,0.215
7.575,0.203
7.580,0.181
7.585,0.173
7.590,0.166
7.595,0.157
7.600,0.146
7.605,0.137
7.610,0.126
7.615,0.115
7.620,0.111
7.625,0.100
7.630,0.088
7.635,0.079
7.640,0.069
7.645,0.062
7.650,0.051
7.655,0.039
7.660,0.031
7.665,0.021
7.670,0.012
7.675,-0.005
7.680,-0.022
7.685,-0.036
7.690,-0.052
7.695,-0.065
7.700,-0.081
7.705,-0.099
7.710,-0.116
7.715,-0.134
7.720,-0.147
7.725,-0.160
7.730,-0.173
7.735,-0.181
7.740,-0.186
7.745,-0.184
7.750,-0.179
7.755,-0.170
7.760,-0.158
7.765,-0.136
7.770,-0.103
7.775,-0.075
7.780,-0.040
7.785,-0.002
7.790,0.032
7.795,0.069
7.800,0.093
7.805,0.114
7.810,0.136
7.815,0.148
7.820,0.160
7.825,0.167
7.830,0.170
7.835,0.175
7.840,0.172
7.845,0.172
7.850,0.166
7.855,0.157
7.860,0.155
7.865,0.147
7.870,0.139
7.875,0.129
7.880,0.124
7.885,0.122
7.890,0.113
7.895,0.110
7.900,0.103
7.905,0.096
7.910,0.091
7.915,0.082
7.920,0.078
7.925,0.073
7.930,0.068
7.935,0.062
7.940,0.054
7.945,0.047
7.950,0.041
7.955,0.038
7.960,0.031
7.965,0.019
7.970,0.015
7.975,0.008
7.980,0.003
7.985,0.000
7.990,-0.011
7.995,-0.016
8.000,-0.020
8.005,-0.022
8.010,-0.021
8.015,-0.029
8.020,-0.032
8.025,-0.034
8.030,-0.036
8.035,-0.034
8.040,-0.038
8.045,-0.038
8.050,-0.035
8.055,-0.037
8.060,-0.038
8.065,-0.043
8.070,-0.042
8.075,-0.040
8.080,-0.040
8.085,-0.044
8.090,-0.046
8.095,-0.037
8.100,-0.034
8.105,-0.036
8.110,-0.038
8.115,-0.042
8.120,-0.035
8.125,-0.035
8.130,-0.039
8.135,-0.039
8.140,-0.040
8.145,-0.040
8.150,-0.046
8.155,-0.053
8.160,-0.061
8.165,-0.068
8.170,-0.073
8.175,-0.087
8.180,-0.088
8.185,-0.082
8.190,-0.088
8.195,-0.098
8.200,-0.118
8.205,-0.122
8.210,-0.097
8.215,-0.080
8.220,-0.073
8.225,-0.065
8.230,-0.044
8.235,-0.022
8.240,-0.022
8.245,-0.032
8.250,-0.029
8.255,-0.012
8.260,0.008
8.265,0.025
8.270,0.044
8.275,0.054
8.280,0.051
8.285,0.044
8.290,0.040
8.295,0.041
8.300,0.037
8.305,0.037
8.310,0.035
8.315,0.026
8.320,0.023
8.325,0.024
8.330,0.028
8.335,0.029
8.340,0.018
8.345,0.010
8.350,0.005
8.355,-0.008
8.360,-0.040
8.365,-0.123
8.370,-0.269
8.375,-0.451
8.380,-0.634
8.385,-0.864
8.390,-1.169
8.395,-1.288
8.400,-0.957
8.405,-0.366
8.410,0.114
8.415,0.329
8.420,0.347
8.425,0.312
8.430,0.300
8.435,0.296
8.440,0.315
8.445,0.337
8.450,0.304
8.455,0.282
8.460,0.293
8.465,0.275
8.470,0.254
8.475,0.249
8.480,0.239
8.485,0.222
8.490,0.206
8.495,0.198
8.500,0.183
8.505,0.174
8.510,0.176
8.515,0.164
8.520,0.147
8.525,0.135
8.530,0.131
8.535,0.128
8.540,0.117
8.545,0.108
8.550,0.091
8.555,0.079
8.560,0.071
8.565,0.060
8.570,0.056
8.575,0.048
8.580,0.035
8.585,0.023
8.590,0.009
8.595,0.002
8.600,-0.006
8.605,-0.018
8.610,-0.038
8.615,-0.068
8.620,-0.082
8.625,-0.089
8.630,-0.101
8.635,-0.117
8.640,-0.144
8.645,-0.161
8.650,-0.169
8.655,-0.173
8.660,-0.172
8.665,-0.176
8.670,-0.172
8.675,-0.164
8.680,-0.151
8.685,-0.133
8.690,-0.114
8.695,-0.076
8.700,-0.035
8.705,0.000
8.710,0.032
8.715,0.053
8.720,0.079
8.725,0.105
8.730,0.129
8.735,0.149
8.740,0.155
8.745,0.158
8.750,0.155
8.755,0.155
8.760,0.159
8.765,0.157
8.770,0.161
8.775,0.160
8.780,0.153
8.785,0.145
8.790,0.131
8.795,0.124
8.800,0.125
8.805,0.123
8.810,0.116
8.815,0.103
8.820,0.094
8.825,0.087
8.830,0.082
8.835,0.075
8.840,0.063
8.845,0.061
8.850,0.060
8.855,0.054
8.860,0.045
8.865,0.031
8.870,0.024
8.875,0.020
8.880,0.019
8.885,0.019
8.890,0.010
8.895,0.003
8.900,-0.005
8.905,-0.018
8.910,-0.024
8.915,-0.030
8.920,-0.030
8.925,-0.031
8.930,-0.036
8.935,-0.039
8.940,-0.043
8.945,-0.040
8.950,-0.040
8.955,-0.040
8.960,-0.034
8.965,-0.035
8.970,-0.033
8.975,-0.035
8.980,-0.045
8.985,-0.046
8.990,-0.043
8.995,-0.042
9.000,-0.044
9.005,-0.041
9.010,-0.031
9.015,-0.025
9.020,-0.026
9.025,-0.036
9.030,-0.035
9.035,-0.025
9.040,-0.028
9.045,-0.029
9.050,-0.033
9.055,-0.042
9.060,-0.049
9.065,-0.061
9.070,-0.065
9.075,-0.067
9.080,-0.067
9.085,-0.069
9.090,-0.074
9.095,-0.077
9.100,-0.083
9.105,-0.096
9.110,-0.119
9.115,-0.131
9.120,-0.108
9.125,-0.085
9.130,-0.074
9.135,-0.061
9.140,-0.047
9.145,-0.027
9.150,-0.026
9.155,-0.039
9.160,-0.033
9.165,-0.010
9.170,0.020
9.175,0.042
9.180,0.054
9.185,0.054
9.190,0.043
9.195,0.040
9.200,0.042
9.205,0.041
9.210,0.046
9.215,0.047
9.220,0.045
9.225,0.037
9.230,0.023
9.235,0.016
9.240,0.015
9.245,0.020
9.250,0.023
9.255,0.020
9.260,0.018
9.265,-0.001
9.270,-0.043
9.275,-0.111
9.280,-0.227
9.285,-0.400
9.290,-0.610
9.295,-0.875
9.300,-1.203
9.305,-1.340
9.310,-1.020
9.315,-0.421
9.320,0.091
9.325,0.325
9.330,0.337
9.335,0.302
9.340,0.293
9.345,0.301
9.350,0.326
9.355,0.339
9.360,0.307
9.365,0.286
9.370,0.304
9.375,0.294
9.380,0.264
9.385,0.262
9.390,0.250
9.395,0.228
9.400,0.214
9.405,0.204
9.410,0.192
9.415,0.180
9.420,0.177
9.425,0.171
9.430,0.160
9.435,0.151
9.440,0.136
9.445,0.127
9.450,0.122
9.455,0.111
9.460,0.097
9.465,0.083
9.470,0.081
9.475,0.075
9.480,0.060
9.485,0.047
9.490,0.026
9.495,0.013
9.500,0.013
9.505,0.003
9.510,-0.008
9.515,-0.024
9.520,-0.039
9.525,-0.057
9.530,-0.080
9.535,-0.091
9.540,-0.100
9.545,-0.114
9.550,-0.133
9.555,-0.149
9.560,-0.154
9.565,-0.162
9.570,-0.168
9.575,-0.169
9.580,-0.166
9.585,-0.154
9.590,-0.140
9.595,-0.121
9.600,-0.100
9.605,-0.074
9.610,-0.033
9.615,0.004
9.620,0.040
9.625,0.072
9.630,0.091
9.635,0.108
9.640,0.123
9.645,0.139
9.650,0.153
9.655,0.157
9.660,0.161
9.665,0.161
9.670,0.157
9.675,0.154
9.680,0.150
9.685,0.147
9.690,0.140
9.695,0.139
9.700,0.133
9.705,0.122
9.710,0.118
9.715,0.119
9.720,0.118
9.725,0.105
9.730,0.097
9.735,0.096
9.740,0.081
9.745,0.070
9.750,0.064
9.755,0.058
9.760,0.053
9.765,0.041
9.770,0.034
9.775,0.029
9.780,0.023
9.785,0.022
9.790,0.012
9.795,0.002
9.800,-0.008
9.805,-0.018
9.810,-0.022
9.815,-0.028
9.820,-0.034
9.825,-0.037
9.830,-0.037
9.835,-0.040
9.840,-0.048
9.845,-0.049
9.850,-0.048
9.855,-0.046
9.860,-0.039
9.865,-0.038
9.870,-0.037
9.875,-0.036
9.880,-0.037
9.885,-0.031
9.890,-0.029
9.895,-0.033
9.900,-0.042
9.905,-0.049
9.910,-0.045
9.915,-0.037
9.920,-0.025
9.925,-0.025
9.930,-0.032
9.935,-0.030
9.940,-0.030
9.945,-0.028
9.950,-0.032
9.955,-0.034
9.960,-0.026
9.965,-0.030
9.970,-0.039
9.975,-0.047
9.980,-0.058
9.985,-0.066
9.990,-0.075
9.995,-0.085
10.000,-0.088
10.005,-0.079
10.010,-0.075
10.015,-0.085
10.020,-0.105
10.025,-0.121
10.030,-0.101
10.035,-0.072
10.040,-0.070
10.045,-0.065
10.050,-0.046
10.055,-0.034
10.060,-0.031
10.065,-0.035
10.070,-0.029
10.075,-0.013
10.080,0.001
10.085,0.017
10.090,0.037
10.095,0.052
10.100,0.051
10.105,0.047
10.110,0.050
10.115,0.046
10.120,0.044
10.125,0.039
10.130,0.032
10.135,0.036
10.140,0.037
10.145,0.038
10.150,0.038
10.155,0.028
10.160,0.023
10.165,0.016
10.170,0.009
10.175,0.002
10.180,-0.025
10.185,-0.089
10.190,-0.217
10.195,-0.407
10.200,-0.621
10.205,-0.895
10.210,-1.243
10.215,-1.420
10.220,-1.125
10.225,-0.510
10.230,0.030
10.235,0.300
10.240,0.335
10.245,0.313
10.250,0.324
10.255,0.327
10.260,0.347
10.265,0.365
10.270,0.338
10.275,0.320
10.280,0.328
10.285,0.313
10.290,0.281
10.295,0.270
10.300,0.266
10.305,0.249
10.310,0.242
10.315,0.235
10.320,0.215
10.325,0.202
10.330,0.194
10.335,0.185
10.340,0.172
10.345,0.163
10.350,0.147
10.355,0.129
10.360,0.127
10.365,0.120
10.370,0.109
10.375,0.100
10.380,0.091
10.385,0.086
10.390,0.073
10.395,0.056
10.400,0.043
10.405,0.030
10.410,0.019
10.415,0.005
10.420,-0.008
10.425,-0.025
10.430,-0.044
10.435,-0.056
10.440,-0.070
10.445,-0.085
10.450,-0.104
10.455,-0.126
10.460,-0.140
10.465,-0.151
10.470,-0.155
10.475,-0.158
10.480,-0.165
10.485,-0.164
10.490,-0.163
10.495,-0.155
10.500,-0.139
10.505,-0.126
10.510,-0.104
10.515,-0.077
10.520,-0.045
10.525,-0.007
10.530,0.029
10.535,0.065
10.540,0.095
10.545,0.118
10.550,0.130
10.555,0.139
10.560,0.153
10.565,0.157
10.570,0.162
10.575,0.165
10.580,0.163
10.585,0.167
10.590,0.160
10.595,0.154
10.600,0.151
10.605,0.141
10.610,0.137
10.615,0.131
10.620,0.121
10.625,0.115
10.630,0.111
10.635,0.110
10.640,0.097
10.645,0.080
10.650,0.074
10.655,0.069
10.660,0.070
10.665,0.065
10.670,0.054
10.675,0.045
10.680,0.034
10.685,0.025
10.690,0.015
10.695,0.009
10.700,0.003
10.705,-0.009
10.710,-0.012
10.715,-0.017
10.720,-0.022
10.725,-0.028
10.730,-0.036
10.735,-0.036
10.740,-0.043
10.745,-0.048
10.750,-0.045
10.755,-0.042
10.760,-0.038
10.765,-0.046
10.770,-0.048
10.775,-0.044
10.780,-0.045
10.785,-0.042
10.790,-0.045
10.795,-0.042
10.800,-0.038
10.805,-0.043
10.810,-0.044
10.815,-0.044
10.820,-0.042
10.825,-0.037
10.830,-0.036
10.835,-0.034
10.840,-0.037
10.845,-0.037
10.850,-0.036
10.855,-0.032
10.860,-0.031
10.865,-0.043
10.870,-0.045
10.875,-0.037
10.880,-0.037
10.885,-0.046
10.890,-0.065
10.895,-0.070
10.900,-0.070
10.905,-0.082
10.910,-0.086
10.915,-0.084
10.920,-0.083
10.925,-0.088
10.930,-0.110
10.935,-0.121
10.940,-0.107
10.945,-0.083
10.950,-0.075
10.955,-0.076
10.960,-0.063
10.965,-0.043
10.970,-0.035
10.975,-0.044
10.980,-0.043
10.985,-0.018
10.990,0.004
10.995,0.018
11.000,0.037
11.005,0.052
11.010,0.054
11.015,0.046
11.020,0.040
11.025,0.037
11.030,0.035
11.035,0.037
11.040,0.036
11.045,0.035
11.050,0.033
11.055,0.028
11.060,0.029
11.065,0.025
11.070,0.017
11.075,0.014
11.080,0.009
11.085,-0.002
11.090,-0.035
11.095,-0.104
11.100,-0.240
11.105,-0.437
11.110,-0.641
11.115,-0.890
11.120,-1.210
11.125,-1.381
11.130,-1.110
11.135,-0.509
11.140,0.025
11.145,0.302
11.150,0.362
11.155,0.335
11.160,0.331
11.165,0.332
11.170,0.346
11.175,0.365
11.180,0.331
11.185,0.304
11.190,0.317
11.195,0.307
11.200,0.281
11.205,0.271
11.210,0.262
11.215,0.237
11.220,0.228
11.225,0.229
11.230,0.212
11.235,0.201
11.240,0.190
11.245,0.178
11.250,0.167
11.255,0.154
11.260,0.146
11.265,0.133
11.270,0.121
11.275,0.115
11.280,0.104
11.285,0.096
11.290,0.085
11.295,0.075
11.300,0.069
11.305,0.055
11.310,0.041
11.315,0.027
11.320,0.016
11.325,0.006
11.330,-0.009
11.335,-0.021
11.340,-0.038
11.345,-0.055
11.350,-0.073
11.355,-0.097
11.360,-0.108
11.365,-0.120
11.370,-0.137
11.375,-0.146
11.380,-0.161
11.385,-0.172
11.390,-0.180
11.395,-0.182
11.400,-0.177
11.405,-0.171
11.410,-0.155
11.415,-0.135
11.420,-0.108
11.425,-0.076
11.430,-0.048
11.435,-0.011
11.440,0.028
11.445,0.057
11.450,0.088
11.455,0.113
11.460,0.134
11.465,0.150
11.470,0.159
11.475,0.165
11.480,0.166
11.485,0.171
11.490,0.166
11.495,0.163
11.500,0.165
11.505,0.158
11.510,0.155
11.515,0.146
11.520,0.135
11.525,0.132
11.530,0.126
11.535,0.122
11.540,0.113
11.545,0.107
11.550,0.102
11.555,0.091
11.560,0.087
11.565,0.081
11.570,0.071
11.575,0.065
11.580,0.056
11.585,0.046
11.590,0.039
11.595,0.033
11.600,0.032
11.605,0.031
11.610,0.025
11.615,0.012
11.620,0.001
11.625,-0.007
11.630,-0.015
11.635,-0.016
11.640,-0.021
11.645,-0.025
11.650,-0.024
11.655,-0.029
11.660,-0.030
11.665,-0.032
11.670,-0.035
11.675,-0.036
11.680,-0.041
11.685,-0.040
11.690,-0.041
11.695,-0.044
11.700,-0.042
11.705,-0.044
11.710,-0.044
11.715,-0.043
11.720,-0.043
11.725,-0.041
11.730,-0.043
11.735,-0.044
11.740,-0.042
11.745,-0.036
11.750,-0.038
11.755,-0.044
11.760,-0.042
11.765,-0.045
11.770,-0.046
11.775,-0.043
11.780,-0.042
11.785,-0.039
11.790,-0.041
11.795,-0.049
11.800,-0.055
11.805,-0.062
11.810,-0.072
11.815,-0.081
11.820,-0.086
11.825,-0.084
11.830,-0.080
11.835,-0.083
11.840,-0.098
11.845,-0.117
11.850,-0.116
11.855,-0.097
11.860,-0.078
11.865,-0.075
11.870,-0.069
11.875,-0.049
11.880,-0.034
11.885,-0.026
11.890,-0.035
11.895,-0.026
11.900,-0.002
11.905,0.006
11.910,0.022
11.915,0.039
11.920,0.048
11.925,0.047
11.930,0.037
11.935,0.037
11.940,0.039
11.945,0.037
11.950,0.038
11.955,0.036
11.960,0.038
11.965,0.033
11.970,0.026
11.975,0.026
11.980,0.019
11.985,0.015
11.990,0.012
11.995,0.007
12.000,-0.010
12.005,-0.070
12.010,-0.194
12.015,-0.373
12.020,-0.558
12.025,-0.753
12.030,-1.028
12.035,-1.289
12.040,-1.212
12.045,-0.711
12.050,-0.139
12.055,0.217
12.060,0.352
12.065,0.351
12.070,0.335
12.075,0.327
12.080,0.319
12.085,0.346
12.090,0.339
12.095,0.295
12.100,0.297
12.105,0.303
12.110,0.278
12.115,0.263
12.120,0.259
12.125,0.244
12.130,0.225
12.135,0.219
12.140,0.206
12.145,0.190
12.150,0.184
12.155,0.173
12.160,0.163
12.165,0.155
12.170,0.145
12.175,0.136
12.180,0.121
12.185,0.113
12.190,0.106
12.195,0.093
12.200,0.085
12.205,0.074
12.210,0.067
12.215,0.056
12.220,0.043
12.225,0.037
12.230,0.027
12.235,0.013
12.240,-0.004
12.245,-0.021
12.250,-0.031
12.255,-0.048
12.260,-0.065
12.265,-0.078
12.270,-0.093
12.275,-0.112
12.280,-0.134
12.285,-0.147
12.290,-0.161
12.295,-0.170
12.300,-0.174
12.305,-0.180
12.310,-0.175
12.315,-0.171
12.320,-0.163
12.325,-0.143
12.330,-0.122
12.335,-0.095
12.340,-0.066
12.345,-0.029
12.350,0.014
12.355,0.045
12.360,0.074
12.365,0.099
12.370,0.122
12.375,0.143
12.380,0.155
12.385,0.162
12.390,0.168
12.395,0.176
12.400,0.179
12.405,0.170
12.410,0.165
12.415,0.161
12.420,0.156
12.425,0.152
12.430,0.143
12.435,0.140
12.440,0.134
12.445,0.123
12.450,0.118
12.455,0.111
12.460,0.103
12.465,0.093
12.470,0.084
12.475,0.084
12.480,0.081
12.485,0.078
12.490,0.072
12.495,0.064
12.500,0.058
12.505,0.049
12.510,0.043
12.515,0.040
12.520,0.034
12.525,0.028
12.530,0.017
12.535,0.010
12.540,0.004
12.545,-0.003
12.550,-0.008
12.555,-0.017
12.560,-0.017
12.565,-0.021
12.570,-0.029
12.575,-0.029
12.580,-0.033
12.585,-0.035
12.590,-0.038
12.595,-0.042
12.600,-0.039
12.605,-0.042
12.610,-0.042
12.615,-0.040
12.620,-0.041
12.625,-0.042
12.630,-0.044
12.635,-0.042
12.640,-0.043
12.645,-0.043
12.650,-0.040
12.655,-0.042
12.660,-0.041
12.665,-0.038
12.670,-0.039
12.675,-0.039
12.680,-0.039
12.685,-0.036
12.690,-0.036
12.695,-0.040
12.700,-0.043
12.705,-0.051
12.710,-0.057
12.715,-0.067
12.720,-0.077
12.725,-0.078
12.730,-0.083
12.735,-0.081
12.740,-0.078
12.745,-0.082
12.750,-0.096
12.755,-0.119
12.760,-0.110
12.765,-0.082
12.770,-0.072
12.775,-0.068
12.780,-0.059
12.785,-0.035
12.790,-0.021
12.795,-0.028
12.800,-0.033
12.805,-0.021
12.810,0.000
12.815,0.011
12.820,0.026
12.825,0.046
12.830,0.046
12.835,0.042
12.840,0.037
12.845,0.034
12.850,0.039
12.855,0.033
12.860,0.030
12.865,0.034
12.870,0.032
12.875,0.029
12.880,0.023
12.885,0.022
12.890,0.019
12.895,0.012
12.900,0.010
12.905,-0.001
12.910,-0.034
12.915,-0.118
12.920,-0.269
12.925,-0.447
12.930,-0.627
12.935,-0.842
12.940,-1.128
12.945,-1.281
12.950,-1.004
12.955,-0.436
12.960,0.059
12.965,0.308
12.970,0.351
12.975,0.327
12.980,0.309
12.985,0.301
12.990,0.313
12.995,0.333
13.000,0.306
13.005,0.273
13.010,0.284
13.015,0.274
13.020,0.248
13.025,0.247
13.030,0.238
13.035,0.218
13.040,0.208
13.045,0.202
13.050,0.188
13.055,0.170
13.060,0.166
13.065,0.162
13.070,0.146
13.075,0.137
13.080,0.129
13.085,0.122
13.090,0.114
13.095,0.104
13.100,0.094
13.105,0.082
13.110,0.077
13.115,0.066
13.120,0.052
13.125,0.047
13.130,0.035
13.135,0.026
13.140,0.016
13.145,0.001
13.150,-0.010
13.155,-0.029
13.160,-0.048
13.165,-0.060
13.170,-0.071
13.175,-0.084
13.180,-0.106
13.185,-0.125
13.190,-0.140
13.195,-0.153
13.200,-0.164
13.205,-0.178
13.210,-0.180
13.215,-0.178
13.220,-0.178
13.225,-0.171
13.230,-0.161
13.235,-0.141
13.240,-0.113
13.245,-0.083
13.250,-0.044
13.255,-0.009
13.260,0.026
13.265,0.061
13.270,0.089
13.275,0.115
13.280,0.131
13.285,0.144
13.290,0.155
13.295,0.162
13.300,0.167
13.305,0.168
13.310,0.169
13.315,0.163
13.320,0.160
13.325,0.159
13.330,0.150
13.335,0.149
13.340,0.142
13.345,0.130
13.350,0.128
13.355,0.121
13.360,0.114
13.365,0.110
13.370,0.101
13.375,0.096
13.380,0.088
13.385,0.080
13.390,0.076
13.395,0.074
13.400,0.069
13.405,0.060
13.410,0.053
13.415,0.045
13.420,0.037
13.425,0.036
13.430,0.029
13.435,0.020
13.440,0.012
13.445,0.005
13.450,0.000
13.455,-0.010
13.460,-0.012
13.465,-0.018
13.470,-0.027
13.475,-0.028
13.480,-0.031
13.485,-0.034
13.490,-0.038
13.495,-0.040
13.500,-0.036
13.505,-0.039
13.510,-0.041
13.515,-0.042
13.520,-0.043
13.525,-0.040
13.530,-0.039
13.535,-0.040
13.540,-0.047
13.545,-0.047
13.550,-0.037
13.555,-0.036
13.560,-0.038
13.565,-0.041
13.570,-0.041
13.575,-0.038
13.580,-0.040
13.585,-0.039
13.590,-0.037
13.595,-0.040
13.600,-0.038
13.605,-0.042
13.610,-0.049
13.615,-0.056
13.620,-0.067
13.625,-0.072
13.630,-0.078
13.635,-0.087
13.640,-0.087
13.645,-0.083
13.650,-0.080
13.655,-0.089
13.660,-0.112
13.665,-0.123
13.670,-0.098
13.675,-0.074
13.680,-0.075
13.685,-0.066
13.690,-0.043
13.695,-0.021
13.700,-0.014
13.705,-0.032
13.710,-0.030
13.715,-0.008
13.720,0.006
13.725,0.022
13.730,0.038
13.735,0.046
13.740,0.044
13.745,0.042
13.750,0.041
13.755,0.036
13.760,0.034
13.765,0.031
13.770,0.031
13.775,0.037
13.780,0.033
13.785,0.027
13.790,0.024
13.795,0.020
13.800,0.020
13.805,0.015
13.810,0.007
13.815,-0.012
13.820,-0.064
13.825,-0.164
13.830,-0.321
13.835,-0.504
13.840,-0.696
13.845,-0.954
13.850,-1.230
13.855,-1.213
13.860,-0.751
13.865,-0.161
13.870,0.231
13.875,0.367
13.880,0.337
13.885,0.299
13.890,0.293
13.895,0.297
13.900,0.328
13.905,0.323
13.910,0.279
13.915,0.272
13.920,0.275
13.925,0.251
13.930,0.235
13.935,0.241
13.940,0.228
13.945,0.202
13.950,0.197
13.955,0.188
13.960,0.170
13.965,0.165
13.970,0.164
13.975,0.156
13.980,0.141
13.985,0.134
13.990,0.125
13.995,0.112
14.000,0.108
14.005,0.099
14.010,0.087
14.015,0.077
14.020,0.068
14.025,0.057
14.030,0.046
14.035,0.039
14.040,0.032
14.045,0.022
14.050,0.008
14.055,-0.012
14.060,-0.026
14.065,-0.036
14.070,-0.051
14.075,-0.061
14.080,-0.077
14.085,-0.095
14.090,-0.114
14.095,-0.135
14.100,-0.148
14.105,-0.162
14.110,-0.172
14.115,-0.175
14.120,-0.180
14.125,-0.179
14.130,-0.177
14.135,-0.169
14.140,-0.151
14.145,-0.125
14.150,-0.089
14.155,-0.056
14.160,-0.024
14.165,0.010
14.170,0.040
14.175,0.070
14.180,0.096
14.185,0.118
14.190,0.134
14.195,0.143
14.200,0.154
14.205,0.163
14.210,0.170
14.215,0.171
14.220,0.166
14.225,0.161
14.230,0.153
14.235,0.149
14.240,0.147
14.245,0.142
14.250,0.142
14.255,0.135
14.260,0.126
14.265,0.117
14.270,0.103
14.275,0.098
14.280,0.099
14.285,0.097
14.290,0.092
14.295,0.084
14.300,0.076
14.305,0.067
14.310,0.060
14.315,0.054
14.320,0.046
14.325,0.044
14.330,0.034
14.335,0.023
14.340,0.018
14.345,0.010
14.350,0.010
14.355,0.005
14.360,-0.007
14.365,-0.018
14.370,-0.025
14.375,-0.024
14.380,-0.027
14.385,-0.029
14.390,-0.029
14.395,-0.033
14.400,-0.037
14.405,-0.046
14.410,-0.046
14.415,-0.040
14.420,-0.040
14.425,-0.039
14.430,-0.040
14.435,-0.043
14.440,-0.045
14.445,-0.047
14.450,-0.039
14.455,-0.035
14.460,-0.036
14.465,-0.040
14.470,-0.045
14.475,-0.040
14.480,-0.039
14.485,-0.039
14.490,-0.034
14.495,-0.033
14.500,-0.033
14.505,-0.039
14.510,-0.042
14.515,-0.043
14.520,-0.056
14.525,-0.063
14.530,-0.063
14.535,-0.066
14.540,-0.075
14.545,-0.087
14.550,-0.087
14.555,-0.084
14.560,-0.090
14.565,-0.109
14.570,-0.122
14.575,-0.103
14.580,-0.088
14.585,-0.085
14.590,-0.070
14.595,-0.045
14.600,-0.021
14.605,-0.021
14.610,-0.032
14.615,-0.027
14.620,-0.011
14.625,0.003
14.630,0.017
14.635,0.042
14.640,0.060
14.645,0.057
14.650,0.052
14.655,0.046
14.660,0.040
14.665,0.036
14.670,0.032
14.675,0.038
14.680,0.039
14.685,0.031
14.690,0.026
14.695,0.024
14.700,0.026
14.705,0.024
14.710,0.019
14.715,0.011
14.720,-0.009
14.725,-0.043
14.730,-0.113
14.735,-0.249
14.740,-0.441
14.745,-0.651
14.750,-0.922
14.755,-1.245
14.760,-1.307
14.765,-0.896
14.770,-0.281
14.775,0.177
14.780,0.345
14.785,0.328
14.790,0.298
14.795,0.289
14.800,0.286
14.805,0.314
14.810,0.330
14.815,0.298
14.820,0.282
14.825,0.295
14.830,0.274
14.835,0.251
14.840,0.247
14.845,0.230
14.850,0.221
14.855,0.216
14.860,0.205
14.865,0.192
14.870,0.173
14.875,0.166
14.880,0.158
14.885,0.152
14.890,0.153
14.895,0.137
14.900,0.124
14.905,0.116
14.910,0.104
14.915,0.090
14.920,0.076
14.925,0.076
14.930,0.071
14.935,0.054
14.940,0.040
14.945,0.024
14.950,0.017
14.955,0.012
14.960,0.002
14.965,-0.009
14.970,-0.026
14.975,-0.043
14.980,-0.062
14.985,-0.079
14.990,-0.094
14.995,-0.114
15.000,-0.132
15.005,-0.144
15.010,-0.146
15.015,-0.151
15.020,-0.159
15.025,-0.162
15.030,-0.167
15.035,-0.166
15.040,-0.157
15.045,-0.136
15.050,-0.104
15.055,-0.084
15.060,-0.063
15.065,-0.029
15.070,0.006
15.075,0.044
15.080,0.076
15.085,0.100
15.090,0.117
15.095,0.131
15.100,0.146
15.105,0.154
15.110,0.160
15.115,0.161
15.120,0.157
15.125,0.156
15.130,0.153
15.135,0.150
15.140,0.145
15.145,0.138
15.150,0.140
15.155,0.135
15.160,0.130
15.165,0.125
15.170,0.117
15.175,0.109
15.180,0.094
15.185,0.082
15.190,0.078
15.195,0.073
15.200,0.067
15.205,0.060
15.210,0.053
15.215,0.041
15.220,0.031
15.225,0.036
15.230,0.039
15.235,0.030
15.240,0.013
15.245,-0.002
15.250,-0.003
15.255,-0.013
15.260,-0.025
15.265,-0.029
15.270,-0.032
15.275,-0.030
15.280,-0.034
15.285,-0.039
15.290,-0.041
15.295,-0.044
15.300,-0.036
15.305,-0.033
15.310,-0.037
15.315,-0.036
15.320,-0.035
15.325,-0.030
15.330,-0.032
15.335,-0.036
15.340,-0.034
15.345,-0.036
15.350,-0.034
15.355,-0.036
15.360,-0.039
15.365,-0.035
15.370,-0.036
15.375,-0.033
15.380,-0.033
15.385,-0.036
15.390,-0.036
15.395,-0.041
15.400,-0.038
15.405,-0.036
15.410,-0.035
15.415,-0.031
15.420,-0.038
15.425,-0.045
15.430,-0.053
15.435,-0.072
15.440,-0.082
15.445,-0.084
15.450,-0.079
15.455,-0.071
15.460,-0.073
15.465,-0.097
15.470,-0.126
15.475,-0.112
15.480,-0.086
15.485,-0.079
15.490,-0.068
15.495,-0.052
15.500,-0.033
15.505,-0.028
15.510,-0.038
15.515,-0.035
15.520,-0.017
15.525,0.003
15.530,0.018
15.535,0.037
15.540,0.046
15.545,0.036
15.550,0.040
15.555,0.049
15.560,0.052
15.565,0.051
15.570,0.039
15.575,0.034
15.580,0.039
15.585,0.039
15.590,0.036
15.595,0.034
15.600,0.032
15.605,0.025
15.610,0.017
15.615,0.015
15.620,0.006
15.625,-0.025
15.630,-0.090
15.635,-0.214
15.640,-0.397
15.645,-0.617
15.650,-0.898
15.655,-1.251
15.660,-1.421
15.665,-1.120
15.670,-0.508
15.675,0.033
15.680,0.293
15.685,0.322
15.690,0.300
15.695,0.307
15.700,0.321
15.705,0.347
15.710,0.365
15.715,0.334
15.720,0.305
15.725,0.311
15.730,0.301
15.735,0.283
15.740,0.288
15.745,0.275
15.750,0.250
15.755,0.237
15.760,0.229
15.765,0.215
15.770,0.202
15.775,0.200
15.780,0.188
15.785,0.168
15.790,0.157
15.795,0.147
15.800,0.139
15.805,0.130
15.810,0.116
15.815,0.102
15.820,0.085
15.825,0.078
15.830,0.072
15.835,0.060
15.840,0.052
15.845,0.042
15.850,0.034
15.855,0.020
15.860,0.000
15.865,-0.016
15.870,-0.030
15.875,-0.037
15.880,-0.049
15.885,-0.070
15.890,-0.090
15.895,-0.112
15.900,-0.127
15.905,-0.139
15.910,-0.150
15.915,-0.154
15.920,-0.164
15.925,-0.167
15.930,-0.163
15.935,-0.163
15.940,-0.156
15.945,-0.143
15.950,-0.126
15.955,-0.101
15.960,-0.069
15.965,-0.034
15.970,0.000
15.975,0.036
15.980,0.066
15.985,0.094
15.990,0.121
15.995,0.134
16.000,0.147
16.005,0.158
16.010,0.162
16.015,0.167
16.020,0.171
16.025,0.172
16.030,0.164
16.035,0.155
16.040,0.151
16.045,0.149
16.050,0.149
16.055,0.140
16.060,0.129
16.065,0.124
16.070,0.114
16.075,0.106
16.080,0.100
16.085,0.098
16.090,0.100
16.095,0.088
16.100,0.078
16.105,0.073
16.110,0.064
16.115,0.058
16.120,0.044
16.125,0.033
16.130,0.025
16.135,0.016
16.140,0.018
16.145,0.008
16.150,-0.005
16.155,-0.012
16.160,-0.016
16.165,-0.015
16.170,-0.024
16.175,-0.033
16.180,-0.034
16.185,-0.037
16.190,-0.040
16.195,-0.042
16.200,-0.043
16.205,-0.048
16.210,-0.049
16.215,-0.040
16.220,-0.040
16.225,-0.038
16.230,-0.038
16.235,-0.042
16.240,-0.044
16.245,-0.045
16.250,-0.042
16.255,-0.040
16.260,-0.041
16.265,-0.037
16.270,-0.033
16.275,-0.035
16.280,-0.038
16.285,-0.037
16.290,-0.035
16.295,-0.038
16.300,-0.038
16.305,-0.041
16.310,-0.040
16.315,-0.038
16.320,-0.043
16.325,-0.043
16.330,-0.051
16.335,-0.062
16.340,-0.064
16.345,-0.073
16.350,-0.080
16.355,-0.079
16.360,-0.079
16.365,-0.083
16.370,-0.107
16.375,-0.122
16.380,-0.107
16.385,-0.085
16.390,-0.076
16.395,-0.075
16.400,-0.057
16.405,-0.037
16.410,-0.036
16.415,-0.045
16.420,-0.043
16.425,-0.015
16.430,0.010
16.435,0.022
16.440,0.039
16.445,0.049
16.450,0.052
16.455,0.049
16.460,0.045
16.465,0.050
16.470,0.045
16.475,0.039
16.480,0.033
16.485,0.027
16.490,0.027
16.495,0.027
16.500,0.030
16.505,0.028
16.510,0.021
16.515,0.018
16.520,0.005
16.525,-0.016
16.530,-0.059
16.535,-0.153
16.540,-0.313
16.545,-0.515
16.550,-0.724
16.555,-1.003
16.560,-1.320
16.565,-1.347
16.570,-0.904
16.575,-0.286
16.580,0.158
16.585,0.337
16.590,0.345
16.595,0.325
16.600,0.325
16.605,0.328
16.610,0.355
16.615,0.358
16.620,0.313
16.625,0.307
16.630,0.318
16.635,0.290
16.640,0.272
16.645,0.271
16.650,0.255
16.655,0.233
16.660,0.227
16.665,0.217
16.670,0.192
16.675,0.182
16.680,0.177
16.685,0.166
16.690,0.161
16.695,0.153
16.700,0.140
16.705,0.123
16.710,0.110
16.715,0.105
16.720,0.094
16.725,0.083
16.730,0.073
16.735,0.061
16.740,0.053
16.745,0.042
16.750,0.031
16.755,0.021
16.760,0.008
16.765,-0.006
16.770,-0.024
16.775,-0.038
16.780,-0.054
16.785,-0.071
16.790,-0.083
16.795,-0.104
16.800,-0.122
16.805,-0.136
16.810,-0.148
16.815,-0.157
16.820,-0.174
16.825,-0.182
16.830,-0.178
16.835,-0.179
16.840,-0.177
16.845,-0.169
16.850,-0.153
16.855,-0.131
16.860,-0.105
16.865,-0.067
16.870,-0.028
16.875,0.009
16.880,0.044
16.885,0.073
16.890,0.099
16.895,0.118
16.900,0.138
16.905,0.156
16.910,0.167
16.915,0.171
16.920,0.170
16.925,0.175
16.930,0.174
16.935,0.165
16.940,0.165
16.945,0.161
16.950,0.153
16.955,0.142
16.960,0.129
16.965,0.126
16.970,0.121
16.975,0.115
16.980,0.110
16.985,0.102
16.990,0.097
16.995,0.088
17.000,0.084
17.005,0.080
17.010,0.071
17.015,0.065
17.020,0.057
17.025,0.049
17.030,0.039
17.035,0.032
17.040,0.029
17.045,0.023
17.050,0.020
17.055,0.016
17.060,0.009
17.065,0.002
17.070,-0.006
17.075,-0.008
17.080,-0.012
17.085,-0.022
17.090,-0.027
17.095,-0.029
17.100,-0.029
17.105,-0.034
17.110,-0.041
17.115,-0.038
17.120,-0.041
17.125,-0.042
17.130,-0.040
17.135,-0.044
17.140,-0.041
17.145,-0.041
17.150,-0.040
17.155,-0.040
17.160,-0.043
17.165,-0.039
17.170,-0.039
17.175,-0.038
17.180,-0.041
17.185,-0.045
17.190,-0.038
17.195,-0.035
17.200,-0.037
17.205,-0.039
17.210,-0.039
17.215,-0.035
17.220,-0.036
17.225,-0.038
17.230,-0.046
17.235,-0.060
17.240,-0.065
17.245,-0.073
17.250,-0.081
17.255,-0.086
17.260,-0.085
17.265,-0.078
17.270,-0.085
17.275,-0.104
17.280,-0.118
17.285,-0.105
17.290,-0.081
17.295,-0.080
17.300,-0.074
17.305,-0.056
17.310,-0.038
17.315,-0.024
17.320,-0.032
17.325,-0.037
17.330,-0.021
17.335,-0.004
17.340,0.011
17.345,0.030
17.350,0.049
17.355,0.053
17.360,0.048
17.365,0.043
17.370,0.038
17.375,0.043
17.380,0.046
17.385,0.038
17.390,0.036
17.395,0.032
17.400,0.029
17.405,0.027
17.410,0.021
17.415,0.020
17.420,0.017
17.425,0.014
17.430,-0.001
17.435,-0.046
17.440,-0.131
17.445,-0.289
17.450,-0.484
17.455,-0.674
17.460,-0.916
17.465,-1.216
17.470,-1.319
17.475,-0.964
17.480,-0.364
17.485,0.108
17.490,0.332
17.495,0.364
17.500,0.344
17.505,0.335
17.510,0.321
17.515,0.336
17.520,0.348
17.525,0.311
17.530,0.290
17.535,0.303
17.540,0.291
17.545,0.266
17.550,0.262
17.555,0.250
17.560,0.228
17.565,0.227
17.570,0.219
17.575,0.199
17.580,0.189
17.585,0.181
17.590,0.170
17.595,0.155
17.600,0.147
17.605,0.138
17.610,0.128
17.615,0.123
17.620,0.109
17.625,0.097
17.630,0.091
17.635,0.081
17.640,0.073
17.645,0.060
17.650,0.049
17.655,0.039
17.660,0.026
17.665,0.014
17.670,-0.002
17.675,-0.013
17.680,-0.026
17.685,-0.043
17.690,-0.056
17.695,-0.076
17.700,-0.097
17.705,-0.113
17.710,-0.131
17.715,-0.146
17.720,-0.162
17.725,-0.173
17.730,-0.177
17.735,-0.181
17.740,-0.180
17.745,-0.180
17.750,-0.172
17.755,-0.156
17.760,-0.137
17.765,-0.105
17.770,-0.072
17.775,-0.037
17.780,-0.002
17.785,0.027
17.790,0.061
17.795,0.090
17.800,0.115
17.805,0.137
17.810,0.151
17.815,0.163
17.820,0.166
17.825,0.167
17.830,0.169
17.835,0.169
17.840,0.172
17.845,0.169
17.850,0.159
17.855,0.149
17.860,0.140
17.865,0.137
17.870,0.130
17.875,0.122
17.880,0.117
17.885,0.111
17.890,0.106
17.895,0.095
17.900,0.089
17.905,0.088
17.910,0.081
17.915,0.074
17.920,0.067
17.925,0.062
17.930,0.060
17.935,0.053
17.940,0.047
17.945,0.041
17.950,0.034
17.955,0.023
17.960,0.015
17.965,0.011
17.970,0.004
17.975,0.000
17.980,-0.005
17.985,-0.014
17.990,-0.018
17.995,-0.021
18.000,-0.026
18.005,-0.028
18.010,-0.032
18.015,-0.037
18.020,-0.042
18.025,-0.041
18.030,-0.041
18.035,-0.043
18.040,-0.039
18.045,-0.043
18.050,-0.045
18.055,-0.042
18.060,-0.045
18.065,-0.042
18.070,-0.044
18.075,-0.047
18.080,-0.042
18.085,-0.042
18.090,-0.043
18.095,-0.042
18.100,-0.039
18.105,-0.038
18.110,-0.041
18.115,-0.041
18.120,-0.043
18.125,-0.041
18.130,-0.040
18.135,-0.051
18.140,-0.062
18.145,-0.070
18.150,-0.073
18.155,-0.076
18.160,-0.089
18.165,-0.091
18.170,-0.087
18.175,-0.089
18.180,-0.105
18.185,-0.125
18.190,-0.113
18.195,-0.083
18.200,-0.072
18.205,-0.068
18.210,-0.058
18.215,-0.036
18.220,-0.023
18.225,-0.032
18.230,-0.038
18.235,-0.026
18.240,-0.004
18.245,0.008
18.250,0.024
18.255,0.045
18.260,0.050
18.265,0.046
18.270,0.038
18.275,0.034
18.280,0.038
18.285,0.035
18.290,0.032
18.295,0.032
18.300,0.032
18.305,0.031
18.310,0.025
18.315,0.023
18.320,0.015
18.325,0.010
18.330,0.010
18.335,-0.002
18.340,-0.027
18.345,-0.101
18.350,-0.249
18.355,-0.434
18.360,-0.623
18.365,-0.832
18.370,-1.111
18.375,-1.282
18.380,-1.035
18.385,-0.473
18.390,0.032
18.395,0.296
18.400,0.357
18.405,0.335
18.410,0.316
18.415,0.307
18.420,0.313
18.425,0.336
18.430,0.310
18.435,0.271
18.440,0.285
18.445,0.281
18.450,0.254
18.455,0.250
18.460,0.239
18.465,0.219
18.470,0.209
18.475,0.206
18.480,0.195
18.485,0.178
18.490,0.169
18.495,0.159
18.500,0.145
18.505,0.140
18.510,0.130
18.515,0.121
18.520,0.112
18.525,0.103
18.530,0.095
18.535,0.084
18.540,0.080
18.545,0.072
18.550,0.059
18.555,0.053
18.560,0.042
18.565,0.028
18.570,0.016
18.575,0.004
18.580,-0.007
18.585,-0.023
18.590,-0.037
18.595,-0.053
18.600,-0.072
18.605,-0.090
18.610,-0.111
18.615,-0.126
18.620,-0.141
18.625,-0.155
18.630,-0.163
18.635,-0.172
18.640,-0.176
18.645,-0.176
18.650,-0.175
18.655,-0.171
18.660,-0.163
18.665,-0.140
18.670,-0.114
18.675,-0.082
18.680,-0.045
18.685,-0.013
18.690,0.025
18.695,0.057
18.700,0.083
18.705,0.110
18.710,0.130
18.715,0.149
18.720,0.157
18.725,0.164
18.730,0.173
18.735,0.172
18.740,0.174
18.745,0.172
18.750,0.168
18.755,0.165
18.760,0.154
18.765,0.148
18.770,0.142
18.775,0.137
18.780,0.130
18.785,0.118
18.790,0.113
18.795,0.106
18.800,0.099
18.805,0.095
18.810,0.088
18.815,0.086
18.820,0.081
18.825,0.074
18.830,0.068
18.835,0.058
18.840,0.053
18.845,0.045
18.850,0.039
18.855,0.036
18.860,0.026
18.865,0.020
18.870,0.015
18.875,0.009
18.880,0.004
18.885,-0.006
18.890,-0.013
18.895,-0.017
18.900,-0.023
18.905,-0.029
18.910,-0.035
18.915,-0.034
18.920,-0.035
18.925,-0.037
18.930,-0.038
18.935,-0.042
18.940,-0.040
18.945,-0.038
18.950,-0.039
18.955,-0.038
18.960,-0.039
18.965,-0.038
18.970,-0.043
18.975,-0.046
18.980,-0.041
18.985,-0.041
18.990,-0.038
18.995,-0.036
19.000,-0.037
19.005,-0.036
19.010,-0.039
19.015,-0.037
19.020,-0.037
19.025,-0.039
19.030,-0.039
19.035,-0.042
19.040,-0.038
19.045,-0.043
19.050,-0.054
19.055,-0.064
19.060,-0.077
19.065,-0.078
19.070,-0.082
19.075,-0.085
19.080,-0.080
19.085,-0.084
19.090,-0.092
19.095,-0.114
19.100,-0.118
19.105,-0.089
19.110,-0.073
19.115,-0.075
19.120,-0.067
19.125,-0.043
19.130,-0.022
19.135,-0.025
19.140,-0.038
19.145,-0.032
19.150,-0.010
19.155,0.010
19.160,0.022
19.165,0.040
19.170,0.050
19.175,0.044
19.180,0.039
19.185,0.035
19.190,0.036
19.195,0.036
19.200,0.030
19.205,0.028
19.210,0.028
19.215,0.028
19.220,0.024
19.225,0.022
19.230,0.020
19.235,0.014
19.240,0.012
19.245,0.007
19.250,-0.009
19.255,-0.051
19.260,-0.142
19.265,-0.296
19.270,-0.484
19.275,-0.669
19.280,-0.901
19.285,-1.186
19.290,-1.249
19.295,-0.865
19.300,-0.282
19.305,0.153
19.310,0.334
19.315,0.343
19.320,0.315
19.325,0.303
19.330,0.295
19.335,0.310
19.340,0.325
19.345,0.285
19.350,0.264
19.355,0.282
19.360,0.264
19.365,0.244
19.370,0.246
19.375,0.232
19.380,0.212
19.385,0.203
19.390,0.198
19.395,0.183
19.400,0.171
19.405,0.167
19.410,0.152
19.415,0.141
19.420,0.136
19.425,0.126
19.430,0.117
19.435,0.108
19.440,0.103
19.445,0.095
19.450,0.083
19.455,0.075
19.460,0.063
19.465,0.055
19.470,0.042
19.475,0.030
19.480,0.025
19.485,0.011
19.490,0.001
19.495,-0.010
19.500,-0.026
19.505,-0.043
19.510,-0.061
19.515,-0.074
19.520,-0.090
19.525,-0.111
19.530,-0.128
19.535,-0.145
19.540,-0.156
19.545,-0.167
19.550,-0.174
19.555,-0.174
19.560,-0.179
19.565,-0.175
19.570,-0.164
19.575,-0.148
19.580,-0.125
19.585,-0.104
19.590,-0.073
19.595,-0.033
19.600,0.002
19.605,0.034
19.610,0.064
19.615,0.093
19.620,0.115
19.625,0.132
19.630,0.147
19.635,0.155
19.640,0.165
19.645,0.169
19.650,0.167
19.655,0.169
19.660,0.164
19.665,0.161
19.670,0.159
19.675,0.153
19.680,0.148
19.685,0.140
19.690,0.134
19.695,0.129
19.700,0.120
19.705,0.114
19.710,0.108
19.715,0.102
19.720,0.092
19.725,0.087
19.730,0.087
19.735,0.077
19.740,0.068
19.745,0.059
19.750,0.052
19.755,0.052
19.760,0.045
19.765,0.037
19.770,0.029
19.775,0.022
19.780,0.023
19.785,0.015
19.790,0.001
19.795,-0.012
19.800,-0.016
19.805,-0.013
19.810,-0.019
19.815,-0.026
19.820,-0.031
19.825,-0.035
19.830,-0.034
19.835,-0.037
19.840,-0.038
19.845,-0.043
19.850,-0.045
19.855,-0.039
19.860,-0.039
19.865,-0.039
19.870,-0.041
19.875,-0.044
19.880,-0.042
19.885,-0.040
19.890,-0.038
19.895,-0.037
19.900,-0.039
19.905,-0.037
19.910,-0.038
19.915,-0.038
19.920,-0.040
19.925,-0.037
19.930,-0.032
19.935,-0.038
19.940,-0.041
19.945,-0.041
19.950,-0.036
19.955,-0.030
19.960,-0.042
19.965,-0.059
19.970,-0.071
19.975,-0.075
19.980,-0.075
19.985,-0.081
19.990,-0.083
19.995,-0.083
20.000,-0.088
20.005,-0.100
20.010,-0.114
20.015,-0.098
20.020,-0.072
20.025,-0.068
20.030,-0.063
20.035,-0.049
20.040,-0.026
20.045,-0.014
20.050,-0.025
20.055,-0.030
20.060,-0.016
20.065,0.004
20.070,0.019
20.075,0.031
20.080,0.044
20.085,0.045
20.090,0.050
20.095,0.051
20.100,0.043
20.105,0.042
20.110,0.041
20.115,0.040
20.120,0.037
20.125,0.033
20.130,0.034
20.135,0.026
20.140,0.017
20.145,0.013
20.150,0.010
20.155,0.008
20.160,0.001
20.165,-0.013
20.170,-0.059
20.175,-0.161
20.180,-0.320
20.185,-0.509
20.190,-0.703
20.195,-0.960
20.200,-1.228
20.205,-1.190
20.210,-0.721
20.215,-0.150
20.220,0.217
20.225,0.337
20.230,0.319
20.235,0.298
20.240,0.294
20.245,0.288
20.250,0.311
20.255,0.315
20.260,0.274
20.265,0.272
20.270,0.281
20.275,0.255
20.280,0.237
20.285,0.233
20.290,0.220
20.295,0.203
20.300,0.198
20.305,0.197
20.310,0.178
20.315,0.168
20.320,0.162
20.325,0.145
20.330,0.138
20.335,0.131
20.340,0.122
20.345,0.110
20.350,0.097
20.355,0.090
20.360,0.082
20.365,0.078
20.370,0.069
20.375,0.051
20.380,0.039
20.385,0.030
20.390,0.023
20.395,0.017
20.400,0.007
20.405,-0.002
20.410,-0.016
20.415,-0.030
20.420,-0.048
20.425,-0.069
20.430,-0.086
20.435,-0.105
20.440,-0.118
20.445,-0.135
20.450,-0.154
20.455,-0.163
20.460,-0.169
20.465,-0.171
20.470,-0.174
20.475,-0.174
20.480,-0.162
20.485,-0.153
20.490,-0.139
20.495,-0.120
20.500,-0.096
20.505,-0.061
20.510,-0.027
20.515,0.010
20.520,0.046
20.525,0.076
20.530,0.103
20.535,0.118
20.540,0.133
20.545,0.145
20.550,0.152
20.555,0.156
20.560,0.155
20.565,0.165
20.570,0.171
20.575,0.166
20.580,0.159
20.585,0.143
20.590,0.137
20.595,0.132
20.600,0.130
20.605,0.139
20.610,0.135
20.615,0.120
20.620,0.104
20.625,0.098
20.630,0.104
20.635,0.097
20.640,0.086
20.645,0.078
20.650,0.069
20.655,0.067
20.660,0.056
20.665,0.048
20.670,0.042
20.675,0.028
20.680,0.022
20.685,0.022
20.690,0.021
20.695,0.014
20.700,0.001
20.705,-0.010
20.710,-0.023
20.715,-0.031
20.720,-0.030
20.725,-0.025
20.730,-0.024
20.735,-0.030
20.740,-0.036
20.745,-0.044
20.750,-0.049
20.755,-0.045
20.760,-0.040
20.765,-0.036
20.770,-0.038
20.775,-0.041
20.780,-0.038
20.785,-0.040
20.790,-0.035
20.795,-0.031
20.800,-0.036
20.805,-0.036
20.810,-0.041
20.815,-0.040
20.820,-0.034
20.825,-0.034
20.830,-0.034
20.835,-0.032
20.840,-0.027
20.845,-0.027
20.850,-0.031
20.855,-0.032
20.860,-0.036
20.865,-0.039
20.870,-0.047
20.875,-0.055
20.880,-0.056
20.885,-0.062
20.890,-0.071
20.895,-0.077
20.900,-0.081
20.905,-0.080
20.910,-0.084
20.915,-0.098
20.920,-0.117
20.925,-0.115
20.930,-0.087
20.935,-0.074
20.940,-0.068
20.945,-0.050
20.950,-0.032
20.955,-0.023
20.960,-0.031
20.965,-0.028
20.970,-0.009
20.975,0.004
20.980,0.014
20.985,0.028
20.990,0.050
20.995,0.058
21.000,0.050
21.005,0.042
21.010,0.038
21.015,0.043
21.020,0.050
21.025,0.050
21.030,0.042
21.035,0.036
21.040,0.038
21.045,0.037
21.050,0.028
21.055,0.023
21.060,0.021
21.065,0.020
21.070,0.013
21.075,-0.008
21.080,-0.043
21.085,-0.115
21.090,-0.248
21.095,-0.439
21.100,-0.668
21.105,-0.955
21.110,-1.274
21.115,-1.324
21.120,-0.906
21.125,-0.293
21.130,0.162
21.135,0.333
21.140,0.320
21.145,0.296
21.150,0.299
21.155,0.305
21.160,0.330
21.165,0.338
21.170,0.304
21.175,0.293
21.180,0.302
21.185,0.277
21.190,0.256
21.195,0.260
21.200,0.255
21.205,0.236
21.210,0.224
21.215,0.215
21.220,0.195
21.225,0.184
21.230,0.180
21.235,0.168
21.240,0.156
21.245,0.148
21.250,0.135
21.255,0.125
21.260,0.115
21.265,0.103
21.270,0.094
21.275,0.090
21.280,0.083
21.285,0.062
21.290,0.048
21.295,0.048
21.300,0.039
21.305,0.026
21.310,0.012
21.315,0.001
21.320,-0.010
21.325,-0.036
21.330,-0.059
21.335,-0.072
21.340,-0.083
21.345,-0.096
21.350,-0.109
21.355,-0.122
21.360,-0.134
21.365,-0.145
21.370,-0.156
21.375,-0.166
21.380,-0.167
21.385,-0.166
21.390,-0.158
21.395,-0.150
21.400,-0.141
21.405,-0.119
21.410,-0.092
21.415,-0.057
21.420,-0.022
21.425,0.003
21.430,0.033
21.435,0.063
21.440,0.095
21.445,0.120
21.450,0.134
21.455,0.147
21.460,0.153
21.465,0.158
21.470,0.160
21.475,0.159
21.480,0.162
21.485,0.153
21.490,0.143
21.495,0.144
21.500,0.147
21.505,0.147
21.510,0.137
21.515,0.121
21.520,0.113
21.525,0.116
21.530,0.120
21.535,0.106
21.540,0.089
21.545,0.076
21.550,0.073
21.555,0.077
21.560,0.068
21.565,0.055
21.570,0.051
21.575,0.044
21.580,0.034
21.585,0.019
21.590,0.014
21.595,0.013
21.600,0.003
21.605,-0.002
21.610,-0.011
21.615,-0.018
21.620,-0.025
21.625,-0.033
21.630,-0.032
21.635,-0.036
21.640,-0.040
21.645,-0.041
21.650,-0.045
21.655,-0.046
21.660,-0.056
21.665,-0.056
21.670,-0.040
21.675,-0.030
21.680,-0.028
21.685,-0.036
21.690,-0.042
21.695,-0.040
21.700,-0.042
21.705,-0.045
21.710,-0.045
21.715,-0.041
21.720,-0.040
21.725,-0.040
21.730,-0.028
21.735,-0.024
21.740,-0.030
21.745,-0.033
21.750,-0.034
21.755,-0.029
21.760,-0.033
21.765,-0.044
21.770,-0.042
21.775,-0.035
21.780,-0.037
21.785,-0.047
21.790,-0.056
21.795,-0.060
21.800,-0.061
21.805,-0.068
21.810,-0.076
21.815,-0.076
21.820,-0.081
21.825,-0.098
21.830,-0.120
21.835,-0.130
21.840,-0.110
21.845,-0.085
21.850,-0.083
21.855,-0.076
21.860,-0.057
21.865,-0.050
21.870,-0.047
21.875,-0.041
21.880,-0.027
21.885,0.000
21.890,0.022
21.895,0.035
21.900,0.052
21.905,0.058
21.910,0.053
21.915,0.055
21.920,0.048
21.925,0.038
21.930,0.039
21.935,0.034
21.940,0.032
21.945,0.037
21.950,0.037
21.955,0.037
21.960,0.036
21.965,0.032
21.970,0.026
21.975,0.018
21.980,0.008
21.985,-0.015
21.990,-0.045
21.995,-0.106
22.000,-0.248
22.005,-0.454
22.010,-0.688
22.015,-0.979
22.020,-1.317
22.025,-1.419
22.030,-1.037
22.035,-0.411
22.040,0.087
22.045,0.313
22.050,0.333
22.055,0.318
22.060,0.321
22.065,0.325
22.070,0.355
22.075,0.368
22.080,0.332
22.085,0.318
22.090,0.334
22.095,0.322
22.100,0.298
22.105,0.292
22.110,0.271
22.115,0.249
22.120,0.249
22.125,0.238
22.130,0.215
22.135,0.203
22.140,0.197
22.145,0.187
22.150,0.172
22.155,0.165
22.160,0.148
22.165,0.129
22.170,0.123
22.175,0.116
22.180,0.113
22.185,0.094
22.190,0.075
22.195,0.068
22.200,0.064
22.205,0.062
22.210,0.051
22.215,0.034
22.220,0.017
22.225,-0.001
22.230,-0.016
22.235,-0.029
22.240,-0.039
22.245,-0.057
22.250,-0.081
22.255,-0.094
22.260,-0.107
22.265,-0.126
22.270,-0.147
22.275,-0.163
22.280,-0.168
22.285,-0.177
22.290,-0.180
22.295,-0.170
22.300,-0.163
22.305,-0.156
22.310,-0.148
22.315,-0.130
22.320,-0.097
22.325,-0.063
22.330,-0.026
22.335,0.013
22.340,0.043
22.345,0.068
22.350,0.095
22.355,0.121
22.360,0.138
22.365,0.150
22.370,0.158
22.375,0.160
22.380,0.167
22.385,0.168
22.390,0.162
22.395,0.157
22.400,0.145
22.405,0.140
22.410,0.141
22.415,0.142
22.420,0.143
22.425,0.133
22.430,0.120
22.435,0.110
22.440,0.114
22.445,0.116
22.450,0.102
22.455,0.091
22.460,0.083
22.465,0.073
22.470,0.062
22.475,0.048
22.480,0.042
22.485,0.038
22.490,0.033
22.495,0.029
22.500,0.023
22.505,0.017
22.510,0.005
22.515,-0.002
22.520,-0.005
22.525,-0.007
22.530,-0.007
22.535,-0.019
22.540,-0.027
22.545,-0.032
22.550,-0.043
22.555,-0.044
22.560,-0.049
22.565,-0.054
22.570,-0.053
22.575,-0.057
22.580,-0.053
22.585,-0.044
22.590,-0.041
22.595,-0.042
22.600,-0.046
22.605,-0.049
22.610,-0.046
22.615,-0.041
22.620,-0.038
22.625,-0.034
22.630,-0.033
22.635,-0.037
22.640,-0.038
22.645,-0.041
22.650,-0.044
22.655,-0.037
22.660,-0.032
22.665,-0.029
22.670,-0.030
22.675,-0.043
22.680,-0.046
22.685,-0.037
22.690,-0.034
22.695,-0.043
22.700,-0.059
22.705,-0.066
22.710,-0.068
22.715,-0.072
22.720,-0.083
22.725,-0.093
22.730,-0.087
22.735,-0.095
22.740,-0.117
22.745,-0.110
22.750,-0.094
22.755,-0.081
22.760,-0.073
22.765,-0.073
22.770,-0.058
22.775,-0.043
22.780,-0.043
22.785,-0.038
22.790,-0.013
22.795,0.008
22.800,0.017
22.805,0.033
22.810,0.047
22.815,0.054
22.820,0.056
22.825,0.058
22.830,0.056
22.835,0.047
22.840,0.042
22.845,0.039
22.850,0.037
22.855,0.034
22.860,0.022
22.865,0.019
22.870,0.025
22.875,0.028
22.880,0.030
22.885,0.021
22.890,0.012
22.895,-0.003
22.900,-0.050
22.905,-0.145
22.910,-0.310
22.915,-0.523
22.920,-0.770
22.925,-1.106
22.930,-1.426
22.935,-1.387
22.940,-0.887
22.945,-0.275
22.950,0.145
22.955,0.320
22.960,0.334
22.965,0.335
22.970,0.344
22.975,0.351
22.980,0.390
22.985,0.382
22.990,0.335
22.995,0.332
23.000,0.337
23.005,0.309
23.010,0.294
23.015,0.299
23.020,0.285
23.025,0.266
23.030,0.257
23.035,0.231
23.040,0.211
23.045,0.216
23.050,0.211
23.055,0.195
23.060,0.177
23.065,0.161
23.070,0.151
23.075,0.140
23.080,0.135
23.085,0.129
23.090,0.110
23.095,0.092
23.100,0.080
23.105,0.074
23.110,0.061
23.115,0.045
23.120,0.037
23.125,0.027
23.130,0.015
23.135,0.003
23.140,-0.009
23.145,-0.024
23.150,-0.046
23.155,-0.066
23.160,-0.079
23.165,-0.092
23.170,-0.114
23.175,-0.138
23.180,-0.148
23.185,-0.160
23.190,-0.176
23.195,-0.185
23.200,-0.185
23.205,-0.176
23.210,-0.169
23.215,-0.161
23.220,-0.145
23.225,-0.124
23.230,-0.094
23.235,-0.059
23.240,-0.017
23.245,0.018
23.250,0.045
23.255,0.079
23.260,0.105
23.265,0.125
23.270,0.143
23.275,0.153
23.280,0.160
23.285,0.163
23.290,0.171
23.295,0.176
23.300,0.167
23.305,0.160
23.310,0.154
23.315,0.153
23.320,0.149
23.325,0.136
23.330,0.131
23.335,0.131
23.340,0.131
23.345,0.126
23.350,0.115
23.355,0.108
23.360,0.099
23.365,0.084
23.370,0.076
23.375,0.074
23.380,0.069
23.385,0.056
23.390,0.045
23.395,0.040
23.400,0.034
23.405,0.026
23.410,0.019
23.415,0.016
23.420,0.009
23.425,-0.003
23.430,-0.008
23.435,-0.014
23.440,-0.019
23.445,-0.025
23.450,-0.041
23.455,-0.048
23.460,-0.049
23.465,-0.044
23.470,-0.035
23.475,-0.040
23.480,-0.047
23.485,-0.052
23.490,-0.050
23.495,-0.043
23.500,-0.049
23.505,-0.050
23.510,-0.046
23.515,-0.043
23.520,-0.046
23.525,-0.057
23.530,-0.050
23.535,-0.034
23.540,-0.029
23.545,-0.034
23.550,-0.041
23.555,-0.038
23.560,-0.030
23.565,-0.029
23.570,-0.037
23.575,-0.046
23.580,-0.041
23.585,-0.036
23.590,-0.038
23.595,-0.045
23.600,-0.060
23.605,-0.061
23.610,-0.057
23.615,-0.065
23.620,-0.072
23.625,-0.075
23.630,-0.074
23.635,-0.077
23.640,-0.101
23.645,-0.128
23.650,-0.118
23.655,-0.088
23.660,-0.080
23.665,-0.079
23.670,-0.064
23.675,-0.045
23.680,-0.031
23.685,-0.035
23.690,-0.032
23.695,-0.007
23.700,0.010
23.705,0.019
23.710,0.033
23.715,0.047
23.720,0.051
23.725,0.044
23.730,0.043
23.735,0.047
23.740,0.049
23.745,0.048
23.750,0.041
23.755,0.039
23.760,0.034
23.765,0.030
23.770,0.036
23.775,0.036
23.780,0.026
23.785,0.012
23.790,0.008
23.795,0.008
23.800,-0.016
23.805,-0.062
23.810,-0.153
23.815,-0.324
23.820,-0.541
23.825,-0.778
23.830,-1.081
23.835,-1.392
23.840,-1.382
23.845,-0.905
23.850,-0.294
23.855,0.138
23.860,0.323
23.865,0.346
23.870,0.345
23.875,0.346
23.880,0.349
23.885,0.382
23.890,0.382
23.895,0.334
23.900,0.321
23.905,0.331
23.910,0.303
23.915,0.288
23.920,0.289
23.925,0.260
23.930,0.244
23.935,0.245
23.940,0.234
23.945,0.219
23.950,0.207
23.955,0.200
23.960,0.184
23.965,0.165
23.970,0.154
23.975,0.143
23.980,0.135
23.985,0.124
23.990,0.115
23.995,0.105
24.000,0.088
24.005,0.078
24.010,0.069
24.015,0.057
24.020,0.047
24.025,0.034
24.030,0.022
24.035,0.010
24.040,-0.002
24.045,-0.014
24.050,-0.033
24.055,-0.048
24.060,-0.064
24.065,-0.081
24.070,-0.094
24.075,-0.120
24.080,-0.143
24.085,-0.157
24.090,-0.165
24.095,-0.170
24.100,-0.183
24.105,-0.183
24.110,-0.179
24.115,-0.179
24.120,-0.170
24.125,-0.153
24.130,-0.125
24.135,-0.096
24.140,-0.067
24.145,-0.030
24.150,0.006
24.155,0.045
24.160,0.077
24.165,0.101
24.170,0.126
24.175,0.139
24.180,0.153
24.185,0.161
24.190,0.166
24.195,0.175
24.200,0.172
24.205,0.171
24.210,0.169
24.215,0.164
24.220,0.160
24.225,0.147
24.230,0.143
24.235,0.136
24.240,0.118
24.245,0.108
24.250,0.105
24.255,0.111
24.260,0.114
24.265,0.106
24.270,0.095
24.275,0.082
24.280,0.073
24.285,0.067
24.290,0.063
24.295,0.058
24.300,0.048
24.305,0.042
24.310,0.036
24.315,0.030
24.320,0.022
24.325,0.010
24.330,0.006
24.335,0.002
24.340,-0.004
24.345,-0.011
24.350,-0.023
24.355,-0.028
24.360,-0.029
24.365,-0.030
24.370,-0.032
24.375,-0.042
24.380,-0.045
24.385,-0.042
24.390,-0.040
24.395,-0.040
24.400,-0.044
24.405,-0.048
24.410,-0.051
24.415,-0.049
24.420,-0.044
24.425,-0.044
24.430,-0.041
24.435,-0.042
24.440,-0.041
24.445,-0.037
24.450,-0.043
24.455,-0.043
24.460,-0.040
24.465,-0.044
24.470,-0.042
24.475,-0.041
24.480,-0.040
24.485,-0.039
24.490,-0.039
24.495,-0.040
24.500,-0.046
24.505,-0.049
24.510,-0.051
24.515,-0.054
24.520,-0.062
24.525,-0.077
24.530,-0.083
24.535,-0.087
24.540,-0.084
24.545,-0.079
24.550,-0.086
24.555,-0.092
24.560,-0.111
24.565,-0.126
24.570,-0.102
24.575,-0.080
24.580,-0.078
24.585,-0.075
24.590,-0.062
24.595,-0.041
24.600,-0.040
24.605,-0.048
24.610,-0.040
24.615,-0.016
24.620,0.004
24.625,0.012
24.630,0.029
24.635,0.043
24.640,0.041
24.645,0.043
24.650,0.045
24.655,0.043
24.660,0.038
24.665,0.037
24.670,0.038
24.675,0.036
24.680,0.038
24.685,0.037
24.690,0.035
24.695,0.032
24.700,0.020
24.705,0.016
24.710,0.018
24.715,0.004
24.720,-0.023
24.725,-0.086
24.730,-0.218
24.735,-0.407
24.740,-0.609
24.745,-0.842
24.750,-1.161
24.755,-1.411
24.760,-1.268
24.765,-0.731
24.770,-0.153
24.775,0.215
24.780,0.358
24.785,0.367
24.790,0.356
24.795,0.355
24.800,0.363
24.805,0.389
24.810,0.367
24.815,0.323
24.820,0.333
24.825,0.336
24.830,0.305
24.835,0.294
24.840,0.293
24.845,0.272
24.850,0.252
24.855,0.243
24.860,0.227
24.865,0.213
24.870,0.209
24.875,0.193
24.880,0.180
24.885,0.169
24.890,0.159
24.895,0.151
24.900,0.140
24.905,0.131
24.910,0.118
24.915,0.104
24.920,0.097
24.925,0.085
24.930,0.073
24.935,0.062
24.940,0.048
24.945,0.038
24.950,0.024
24.955,0.010
24.960,-0.003
24.965,-0.021
24.970,-0.036
24.975,-0.049
24.980,-0.063
24.985,-0.081
24.990,-0.101
24.995,-0.118
25.000,-0.141
25.005,-0.156
25.010,-0.168
25.015,-0.177
25.020,-0.178
25.025,-0.183
25.030,-0.180
25.035,-0.174
25.040,-0.169
25.045,-0.153
25.050,-0.129
25.055,-0.096
25.060,-0.061
25.065,-0.027
25.070,0.014
25.075,0.052
25.080,0.084
25.085,0.106
25.090,0.123
25.095,0.142
25.100,0.151
25.105,0.160
25.110,0.168
25.115,0.173
25.120,0.178
25.125,0.174
25.130,0.170
25.135,0.170
25.140,0.161
25.145,0.149
25.150,0.141
25.155,0.138
25.160,0.132
25.165,0.124
25.170,0.118
25.175,0.106
25.180,0.102
25.185,0.099
25.190,0.093
25.195,0.091
25.200,0.076
25.205,0.068
25.210,0.069
25.215,0.062
25.220,0.053
25.225,0.045
25.230,0.040
25.235,0.035
25.240,0.030
25.245,0.020
25.250,0.006
25.255,0.003
25.260,-0.004
25.265,-0.011
25.270,-0.010
25.275,-0.015
25.280,-0.018
25.285,-0.025
25.290,-0.032
25.295,-0.029
25.300,-0.030
25.305,-0.032
25.310,-0.034
25.315,-0.038
25.320,-0.041
25.325,-0.042
25.330,-0.038
25.335,-0.040
25.340,-0.041
25.345,-0.038
25.350,-0.044
25.355,-0.048
25.360,-0.049
25.365,-0.047
25.370,-0.042
25.375,-0.044
25.380,-0.043
25.385,-0.038
25.390,-0.040
25.395,-0.040
25.400,-0.040
25.405,-0.036
25.410,-0.032
25.415,-0.035
25.420,-0.036
25.425,-0.042
25.430,-0.049
25.435,-0.055
25.440,-0.063
25.445,-0.069
25.450,-0.078
25.455,-0.087
25.460,-0.089
25.465,-0.085
25.470,-0.081
25.475,-0.095
25.480,-0.118
25.485,-0.125
25.490,-0.103
25.495,-0.080
25.500,-0.081
25.505,-0.074
25.510,-0.057
25.515,-0.044
25.520,-0.041
25.525,-0.050
25.530,-0.039
25.535,-0.013
25.540,0.003
25.545,0.021
25.550,0.038
25.555,0.046
25.560,0.046
25.565,0.043
25.570,0.044
25.575,0.045
25.580,0.043
25.585,0.042
25.590,0.044
25.595,0.042
25.600,0.031
25.605,0.026
25.610,0.025
25.615,0.019
25.620,0.012
25.625,0.003
25.630,0.001
25.635,-0.004
25.640,-0.032
25.645,-0.102
25.650,-0.251
25.655,-0.447
25.660,-0.645
25.665,-0.891
25.670,-1.214
25.675,-1.405
25.680,-1.152
25.685,-0.570
25.690,-0.042
25.695,0.258
25.700,0.351
25.705,0.355
25.710,0.351
25.715,0.342
25.720,0.356
25.725,0.376
25.730,0.348
25.735,0.314
25.740,0.323
25.745,0.316
25.750,0.288
25.755,0.289
25.760,0.283
25.765,0.258
25.770,0.245
25.775,0.234
25.780,0.214
25.785,0.197
25.790,0.193
25.795,0.191
25.800,0.178
25.805,0.165
25.810,0.150
25.815,0.140
25.820,0.135
25.825,0.125
25.830,0.117
25.835,0.108
25.840,0.098
25.845,0.085
25.850,0.069
25.855,0.063
25.860,0.055
25.865,0.041
25.870,0.028
25.875,0.011
25.880,-0.003
25.885,-0.019
25.890,-0.038
25.895,-0.051
25.900,-0.070
25.905,-0.087
25.910,-0.104
25.915,-0.127
25.920,-0.145
25.925,-0.160
25.930,-0.173
25.935,-0.182
25.940,-0.187
25.945,-0.186
25.950,-0.184
25.955,-0.172
25.960,-0.162
25.965,-0.148
25.970,-0.116
25.975,-0.088
25.980,-0.053
25.985,-0.013
25.990,0.025
25.995,0.065
26.000,0.090
26.005,0.109
26.010,0.128
26.015,0.142
26.020,0.157
26.025,0.166
26.030,0.169
26.035,0.173
26.040,0.172
26.045,0.172
26.050,0.167
26.055,0.159
26.060,0.155
26.065,0.144
26.070,0.132
26.075,0.124
26.080,0.121
26.085,0.114
26.090,0.105
26.095,0.106
26.100,0.102
26.105,0.096
26.110,0.092
26.115,0.085
26.120,0.080
26.125,0.072
26.130,0.065
26.135,0.061
26.140,0.053
26.145,0.047
26.150,0.038
26.155,0.033
26.160,0.027
26.165,0.016
26.170,0.012
26.175,0.004
26.180,-0.002
26.185,-0.007
26.190,-0.016
26.195,-0.021
26.200,-0.027
26.205,-0.031
26.210,-0.034
26.215,-0.038
26.220,-0.038
26.225,-0.043
26.230,-0.049
26.235,-0.052
26.240,-0.050
26.245,-0.040
26.250,-0.040
26.255,-0.042
26.260,-0.040
26.265,-0.041
26.270,-0.038
26.275,-0.038
26.280,-0.039
26.285,-0.036
26.290,-0.038
26.295,-0.037
26.300,-0.039
26.305,-0.039
26.310,-0.036
26.315,-0.039
26.320,-0.037
26.325,-0.037
26.330,-0.040
26.335,-0.044
26.340,-0.050
26.345,-0.052
26.350,-0.058
26.355,-0.065
26.360,-0.071
26.365,-0.081
26.370,-0.083
26.375,-0.085
26.380,-0.088
26.385,-0.091
26.390,-0.106
26.395,-0.122
26.400,-0.116
26.405,-0.092
26.410,-0.079
26.415,-0.078
26.420,-0.066
26.425,-0.047
26.430,-0.032
26.435,-0.037
26.440,-0.042
26.445,-0.024
26.450,-0.006
26.455,0.005
26.460,0.020
26.465,0.038
26.470,0.049
26.475,0.046
26.480,0.043
26.485,0.038
26.490,0.038
26.495,0.040
26.500,0.027
26.505,0.021
26.510,0.028
26.515,0.032
26.520,0.035
26.525,0.028
26.530,0.021
26.535,0.020
26.540,0.014
26.545,0.008
26.550,-0.007
26.555,-0.039
26.560,-0.115
26.565,-0.267
26.570,-0.464
26.575,-0.669
26.580,-0.923
26.585,-1.239
26.590,-1.369
26.595,-1.044
26.600,-0.449
26.605,0.051
26.610,0.301
26.615,0.344
26.620,0.330
26.625,0.324
26.630,0.322
26.635,0.345
26.640,0.359
26.645,0.326
26.650,0.303
26.655,0.316
26.660,0.302
26.665,0.274
26.670,0.272
26.675,0.265
26.680,0.245
26.685,0.237
26.690,0.227
26.695,0.211
26.700,0.198
26.705,0.187
26.710,0.172
26.715,0.158
26.720,0.152
26.725,0.140
26.730,0.125
26.735,0.118
26.740,0.112
26.745,0.102
26.750,0.088
26.755,0.079
26.760,0.068
26.765,0.055
26.770,0.049
26.775,0.037
26.780,0.024
26.785,0.014
26.790,-0.001
26.795,-0.011
26.800,-0.027
26.805,-0.046
26.810,-0.058
26.815,-0.075
26.820,-0.092
26.825,-0.112
26.830,-0.132
26.835,-0.146
26.840,-0.158
26.845,-0.167
26.850,-0.174
26.855,-0.175
26.860,-0.176
26.865,-0.175
26.870,-0.164
26.875,-0.152
26.880,-0.132
26.885,-0.107
26.890,-0.077
26.895,-0.039
26.900,-0.007
26.905,0.026
26.910,0.063
26.915,0.088
26.920,0.109
26.925,0.128
26.930,0.149
26.935,0.161
26.940,0.157
26.945,0.160
26.950,0.165
26.955,0.171
26.960,0.171
26.965,0.161
26.970,0.154
26.975,0.149
26.980,0.145
26.985,0.139
26.990,0.129
26.995,0.122
27.000,0.115
27.005,0.112
27.010,0.106
27.015,0.095
27.020,0.091
27.025,0.084
27.030,0.079
27.035,0.073
27.040,0.064
27.045,0.061
27.050,0.054
27.055,0.045
27.060,0.038
27.065,0.030
27.070,0.027
27.075,0.020
27.080,0.014
27.085,0.008
27.090,-0.001
27.095,-0.008
27.100,-0.018
27.105,-0.023
27.110,-0.023
27.115,-0.032
27.120,-0.037
27.125,-0.038
27.130,-0.036
27.135,-0.032
27.140,-0.035
27.145,-0.037
27.150,-0.039
27.155,-0.038
27.160,-0.036
27.165,-0.040
27.170,-0.038
27.175,-0.039
27.180,-0.043
27.185,-0.042
27.190,-0.041
27.195,-0.034
27.200,-0.035
27.205,-0.037
27.210,-0.035
27.215,-0.039
27.220,-0.035
27.225,-0.037
27.230,-0.038
27.235,-0.033
27.240,-0.035
27.245,-0.035
27.250,-0.039
27.255,-0.042
27.260,-0.039
27.265,-0.044
27.270,-0.053
27.275,-0.067
27.280,-0.076
27.285,-0.080
27.290,-0.085
27.295,-0.081
27.300,-0.083
27.305,-0.091
27.310,-0.105
27.315,-0.119
27.320,-0.103
27.325,-0.080
27.330,-0.073
27.335,-0.069
27.340,-0.058
27.345,-0.034
27.350,-0.024
27.355,-0.030
27.360,-0.034
27.365,-0.022
27.370,0.000
27.375,0.010
27.380,0.025
27.385,0.045
27.390,0.047
27.395,0.048
27.400,0.045
27.405,0.042
27.410,0.046
27.415,0.040
27.420,0.035
27.425,0.036
27.430,0.034
27.435,0.031
27.440,0.029
27.445,0.028
27.450,0.019
27.455,0.013
27.460,0.008
27.465,0.000
27.470,-0.007
27.475,-0.052
27.480,-0.153
27.485,-0.312
27.490,-0.501
27.495,-0.685
27.500,-0.931
27.505,-1.229
27.510,-1.284
27.515,-0.895
27.520,-0.317
27.525,0.116
27.530,0.314
27.535,0.343
27.540,0.329
27.545,0.325
27.550,0.315
27.555,0.336
27.560,0.351
27.565,0.308
27.570,0.293
27.575,0.304
27.580,0.279
27.585,0.257
27.590,0.259
27.595,0.253
27.600,0.234
27.605,0.228
27.610,0.220
27.615,0.200
27.620,0.190
27.625,0.182
27.630,0.171
27.635,0.161
27.640,0.149
27.645,0.141
27.650,0.129
27.655,0.122
27.660,0.115
27.665,0.101
27.670,0.095
27.675,0.086
27.680,0.074
27.685,0.065
27.690,0.051
27.695,0.043
27.700,0.032
27.705,0.019
27.710,0.006
27.715,-0.011
27.720,-0.023
27.725,-0.037
27.730,-0.054
27.735,-0.071
27.740,-0.090
27.745,-0.104
27.750,-0.122
27.755,-0.139
27.760,-0.152
27.765,-0.165
27.770,-0.170
27.775,-0.172
27.780,-0.173
27.785,-0.168
27.790,-0.160
27.795,-0.144
27.800,-0.128
27.805,-0.103
27.810,-0.070
27.815,-0.036
27.820,0.004
27.825,0.035
27.830,0.064
27.835,0.096
27.840,0.117
27.845,0.133
27.850,0.146
27.855,0.159
27.860,0.170
27.865,0.172
27.870,0.171
27.875,0.169
27.880,0.169
27.885,0.167
27.890,0.157
27.895,0.153
27.900,0.146
27.905,0.140
27.910,0.137
27.915,0.128
27.920,0.123
27.925,0.117
27.930,0.109
27.935,0.102
27.940,0.094
27.945,0.089
27.950,0.083
27.955,0.076
27.960,0.070
27.965,0.062
27.970,0.058
27.975,0.050
27.980,0.041
27.985,0.039
27.990,0.031
27.995,0.021
28.000,0.011
28.005,0.003
28.010,0.001
28.015,-0.008
28.020,-0.016
28.025,-0.021
28.030,-0.025
28.035,-0.028
28.040,-0.034
28.045,-0.037
28.050,-0.040
28.055,-0.043
28.060,-0.043
28.065,-0.043
28.070,-0.039
28.075,-0.039
28.080,-0.041
28.085,-0.042
28.090,-0.045
28.095,-0.043
28.100,-0.042
28.105,-0.041
28.110,-0.038
28.115,-0.038
28.120,-0.035
28.125,-0.038
28.130,-0.042
28.135,-0.041
28.140,-0.042
28.145,-0.041
28.150,-0.045
28.155,-0.044
28.160,-0.038
28.165,-0.040
28.170,-0.039
28.175,-0.040
28.180,-0.042
28.185,-0.040
28.190,-0.044
28.195,-0.045
28.200,-0.055
28.205,-0.069
28.210,-0.075
28.215,-0.085
28.220,-0.090
28.225,-0.086
28.230,-0.085
28.235,-0.085
28.240,-0.096
28.245,-0.115
28.250,-0.114
28.255,-0.089
28.260,-0.072
28.265,-0.074
28.270,-0.062
28.275,-0.038
28.280,-0.020
28.285,-0.021
28.290,-0.037
28.295,-0.023
28.300,-0.001
28.305,0.011
28.310,0.025
28.315,0.037
28.320,0.046
28.325,0.046
28.330,0.040
28.335,0.036
28.340,0.035
28.345,0.038
28.350,0.036
28.355,0.033
28.360,0.031
28.365,0.026
28.370,0.025
28.375,0.020
28.380,0.013
28.385,0.013
28.390,0.009
28.395,0.003
28.400,-0.006
28.405,-0.041
28.410,-0.120
28.415,-0.267
28.420,-0.451
28.425,-0.632
28.430,-0.854
28.435,-1.144
28.440,-1.274
28.445,-0.970
28.450,-0.405
28.455,0.069
28.460,0.307
28.465,0.344
28.470,0.322
28.475,0.309
28.480,0.298
28.485,0.316
28.490,0.334
28.495,0.304
28.500,0.278
28.505,0.289
28.510,0.279
28.515,0.250
28.520,0.249
28.525,0.240
28.530,0.218
28.535,0.213
28.540,0.206
28.545,0.193
28.550,0.182
28.555,0.176
28.560,0.166
28.565,0.149
28.570,0.142
28.575,0.137
28.580,0.128
28.585,0.121
28.590,0.108
28.595,0.096
28.600,0.084
28.605,0.072
28.610,0.065
28.615,0.058
28.620,0.056
28.625,0.046
28.630,0.030
28.635,0.018
28.640,0.004
28.645,-0.006
28.650,-0.021
28.655,-0.041
28.660,-0.056
28.665,-0.073
28.670,-0.086
28.675,-0.101
28.680,-0.118
28.685,-0.133
28.690,-0.151
28.695,-0.161
28.700,-0.168
28.705,-0.174
28.710,-0.174
28.715,-0.175
28.720,-0.166
28.725,-0.147
28.730,-0.130
28.735,-0.112
28.740,-0.088
28.745,-0.052
28.750,-0.013
28.755,0.024
28.760,0.058
28.765,0.083
28.770,0.110
28.775,0.126
28.780,0.137
28.785,0.151
28.790,0.156
28.795,0.161
28.800,0.164
28.805,0.167
28.810,0.167
28.815,0.158
28.820,0.155
28.825,0.150
28.830,0.144
28.835,0.144
28.840,0.134
28.845,0.124
28.850,0.116
28.855,0.110
28.860,0.109
28.865,0.102
28.870,0.094
28.875,0.089
28.880,0.084
28.885,0.076
28.890,0.068
28.895,0.065
28.900,0.057
28.905,0.048
28.910,0.046
28.915,0.039
28.920,0.032
28.925,0.023
28.930,0.016
28.935,0.012
28.940,0.002
28.945,-0.006
28.950,-0.014
28.955,-0.018
28.960,-0.017
28.965,-0.026
28.970,-0.036
28.975,-0.042
28.980,-0.042
28.985,-0.034
28.990,-0.035
28.995,-0.035
29.000,-0.034
29.005,-0.038
29.010,-0.038
29.015,-0.043
29.020,-0.041
29.025,-0.037
29.030,-0.039
29.035,-0.038
29.040,-0.041
29.045,-0.043
29.050,-0.043
29.055,-0.044
29.060,-0.037
29.065,-0.038
29.070,-0.040
29.075,-0.038
29.080,-0.037
29.085,-0.031
29.090,-0.032
29.095,-0.034
29.100,-0.035
29.105,-0.039
29.110,-0.040
29.115,-0.045
29.120,-0.048
29.125,-0.057
29.130,-0.069
29.135,-0.071
29.140,-0.076
29.145,-0.077
29.150,-0.078
29.155,-0.083
29.160,-0.091
29.165,-0.114
29.170,-0.123
29.175,-0.103
29.180,-0.081
29.185,-0.074
29.190,-0.066
29.195,-0.044
29.200,-0.025
29.205,-0.021
29.210,-0.030
29.215,-0.029
29.220,-0.011
29.225,0.003
29.230,0.018
29.235,0.043
29.240,0.055
29.245,0.052
29.250,0.046
29.255,0.043
29.260,0.044
29.265,0.038
29.270,0.037
29.275,0.036
29.280,0.032
29.285,0.031
29.290,0.025
29.295,0.027
29.300,0.028
29.305,0.024
29.310,0.020
29.315,0.009
29.320,-0.003
29.325,-0.021
29.330,-0.061
29.335,-0.151
29.340,-0.304
29.345,-0.488
29.350,-0.695
29.355,-0.973
29.360,-1.254
29.365,-1.227
29.370,-0.749
29.375,-0.154
29.380,0.228
29.385,0.352
29.390,0.323
29.395,0.299
29.400,0.298
29.405,0.295
29.410,0.321
29.415,0.322
29.420,0.286
29.425,0.279
29.430,0.284
29.435,0.266
29.440,0.250
29.445,0.250
29.450,0.235
29.455,0.218
29.460,0.217
29.465,0.203
29.470,0.184
29.475,0.174
29.480,0.166
29.485,0.156
29.490,0.139
29.495,0.130
29.500,0.119
29.505,0.110
29.510,0.114
29.515,0.106
29.520,0.093
29.525,0.083
29.530,0.070
29.535,0.062
29.540,0.048
29.545,0.036
29.550,0.024
29.555,0.011
29.560,0.006
29.565,-0.006
29.570,-0.019
29.575,-0.028
29.580,-0.045
29.585,-0.061
29.590,-0.078
29.595,-0.095
29.600,-0.113
29.605,-0.127
29.610,-0.138
29.615,-0.153
29.620,-0.165
29.625,-0.175
29.630,-0.179
29.635,-0.175
29.640,-0.170
29.645,-0.152
29.650,-0.134
29.655,-0.115
29.660,-0.088
29.665,-0.058
29.670,-0.020
29.675,0.010
29.680,0.035
29.685,0.068
29.690,0.092
29.695,0.111
29.700,0.124
29.705,0.136
29.710,0.148
29.715,0.149
29.720,0.153
29.725,0.157
29.730,0.157
29.735,0.164
29.740,0.162
29.745,0.155
29.750,0.144
29.755,0.133
29.760,0.133
29.765,0.129
29.770,0.121
29.775,0.113
29.780,0.104
29.785,0.099
29.790,0.089
29.795,0.083
29.800,0.077
29.805,0.069
29.810,0.067
29.815,0.061
29.820,0.054
29.825,0.044
29.830,0.032
29.835,0.026
29.840,0.023
29.845,0.019
29.850,0.006
29.855,-0.004
29.860,-0.012
29.865,-0.024
29.870,-0.026
29.875,-0.026
29.880,-0.027
29.885,-0.027
29.890,-0.033
29.895,-0.032
29.900,-0.032
29.905,-0.036
29.910,-0.037
29.915,-0.044
29.920,-0.045
29.925,-0.042
29.930,-0.040
29.935,-0.037
29.940,-0.039
29.945,-0.035
29.950,-0.033
29.955,-0.038
29.960,-0.035
29.965,-0.036
29.970,-0.033
29.975,-0.030
29.980,-0.033
29.985,-0.030
29.990,-0.032
29.995,-0.036
30.000,-0.038
30.005,-0.039
30.010,-0.035
30.015,-0.034
30.020,-0.032
30.025,-0.035
30.030,-0.038
30.035,-0.036
30.040,-0.051
30.045,-0.070
30.050,-0.079
30.055,-0.080
30.060,-0.073
30.065,-0.074
30.070,-0.077
30.075,-0.080
30.080,-0.094
30.085,-0.114
30.090,-0.113
30.095,-0.089
30.100,-0.074
30.105,-0.067
30.110,-0.047
30.115,-0.032
30.120,-0.022
30.125,-0.026
30.130,-0.033
30.135,-0.015
30.140,0.004
30.145,0.017
30.150,0.038
30.155,0.057
30.160,0.061
30.165,0.054
30.170,0.050
30.175,0.047
30.180,0.042
30.185,0.040
30.190,0.034
30.195,0.036
30.200,0.036
30.205,0.028
30.210,0.024
30.215,0.020
30.220,0.021
30.225,0.023
30.230,0.019
30.235,0.012
30.240,-0.004
30.245,-0.033
30.250,-0.102
30.255,-0.238
30.260,-0.423
30.265,-0.633
30.270,-0.899
30.275,-1.229
30.280,-1.350
30.285,-0.994
30.290,-0.384
30.295,0.109
30.300,0.327
30.305,0.340
30.310,0.315
30.315,0.307
30.320,0.305
30.325,0.327
30.330,0.339
30.335,0.308
30.340,0.291
30.345,0.304
30.350,0.288
30.355,0.261
30.360,0.261
30.365,0.253
30.370,0.236
30.375,0.226
30.380,0.215
30.385,0.201
30.390,0.187
30.395,0.180
30.400,0.168
30.405,0.153
30.410,0.149
30.415,0.141
30.420,0.130
30.425,0.120
30.430,0.106
30.435,0.098
30.440,0.086
30.445,0.074
30.450,0.065
30.455,0.057
30.460,0.052
30.465,0.040
30.470,0.027
30.475,0.019
30.480,0.004
30.485,-0.012
30.490,-0.029
30.495,-0.045
30.500,-0.063
30.505,-0.080
30.510,-0.092
30.515,-0.109
30.520,-0.121
30.525,-0.133
30.530,-0.150
30.535,-0.159
30.540,-0.166
30.545,-0.166
30.550,-0.160
30.555,-0.157
30.560,-0.148
30.565,-0.136
30.570,-0.120
30.575,-0.098
30.580,-0.071
30.585,-0.040
30.590,-0.009
30.595,0.029
30.600,0.064
30.605,0.090
30.610,0.112
30.615,0.124
30.620,0.138
30.625,0.151
30.630,0.157
30.635,0.164
30.640,0.161
30.645,0.158
30.650,0.157
30.655,0.155
30.660,0.155
30.665,0.147
30.670,0.139
30.675,0.137
30.680,0.133
30.685,0.126
30.690,0.115
30.695,0.107
30.700,0.099
30.705,0.092
30.710,0.089
30.715,0.080
30.720,0.072
30.725,0.065
30.730,0.056
30.735,0.051
30.740,0.041
30.745,0.030
30.750,0.024
30.755,0.019
30.760,0.011
30.765,0.000
30.770,-0.003
30.775,-0.006
30.780,-0.014
30.785,-0.020
30.790,-0.025
30.795,-0.029
30.800,-0.033
30.805,-0.038
30.810,-0.038
30.815,-0.037
30.820,-0.038
30.825,-0.037
30.830,-0.039
30.835,-0.040
30.840,-0.041
30.845,-0.040
30.850,-0.039
30.855,-0.039
30.860,-0.040
30.865,-0.043
30.870,-0.038
30.875,-0.032
30.880,-0.028
30.885,-0.025
30.890,-0.030
30.895,-0.035
30.900,-0.031
30.905,-0.031
30.910,-0.033
30.915,-0.037
30.920,-0.038
30.925,-0.032
30.930,-0.029
30.935,-0.030
30.940,-0.031
30.945,-0.032
30.950,-0.034
30.955,-0.040
30.960,-0.051
30.965,-0.067
30.970,-0.071
30.975,-0.071
30.980,-0.078
30.985,-0.078
30.990,-0.078
30.995,-0.080
31.000,-0.094
31.005,-0.121
31.010,-0.116
31.015,-0.088
31.020,-0.072
31.025,-0.068
31.030,-0.061
31.035,-0.041
31.040,-0.025
31.045,-0.027
31.050,-0.036
31.055,-0.026
31.060,0.001
31.065,0.013
31.070,0.024
31.075,0.042
31.080,0.048
31.085,0.054
31.090,0.051
31.095,0.044
31.100,0.045
31.105,0.043
31.110,0.041
31.115,0.036
31.120,0.031
31.125,0.024
31.130,0.021
31.135,0.025
31.140,0.025
31.145,0.019
31.150,0.015
31.155,0.010
31.160,-0.003
31.165,-0.045
31.170,-0.132
31.175,-0.281
31.180,-0.469
31.185,-0.662
31.190,-0.915
31.195,-1.224
31.200,-1.311
31.205,-0.937
31.210,-0.331
31.215,0.130
31.220,0.332
31.225,0.350
31.230,0.324
31.235,0.318
31.240,0.313
31.245,0.333
31.250,0.347
31.255,0.305
31.260,0.289
31.265,0.303
31.270,0.284
31.275,0.261
31.280,0.259
31.285,0.253
31.290,0.230
31.295,0.215
31.300,0.208
31.305,0.190
31.310,0.181
31.315,0.177
31.320,0.165
31.325,0.154
31.330,0.143
31.335,0.135
31.340,0.122
31.345,0.110
31.350,0.100
31.355,0.088
31.360,0.085
31.365,0.077
31.370,0.066
31.375,0.056
31.380,0.043
31.385,0.034
31.390,0.021
31.395,0.008
31.400,-0.004
31.405,-0.022
31.410,-0.033
31.415,-0.048
31.420,-0.067
31.425,-0.079
31.430,-0.097
31.435,-0.114
31.440,-0.128
31.445,-0.140
31.450,-0.151
31.455,-0.162
31.460,-0.167
31.465,-0.171
31.470,-0.171
31.475,-0.170
31.480,-0.167
31.485,-0.149
31.490,-0.128
31.495,-0.104
31.500,-0.074
31.505,-0.040
31.510,-0.001
31.515,0.032
31.520,0.061
31.525,0.087
31.530,0.105
31.535,0.127
31.540,0.141
31.545,0.150
31.550,0.160
31.555,0.160
31.560,0.165
31.565,0.167
31.570,0.162
31.575,0.155
31.580,0.148
31.585,0.146
31.590,0.138
31.595,0.129
31.600,0.126
31.605,0.121
31.610,0.118
31.615,0.109
31.620,0.102
31.625,0.098
31.630,0.090
31.635,0.086
31.640,0.078
31.645,0.071
31.650,0.065
31.655,0.058
31.660,0.055
31.665,0.043
31.670,0.032
31.675,0.029
31.680,0.024
31.685,0.018
31.690,0.007
31.695,0.000
31.700,-0.002
31.705,-0.007
31.710,-0.015
31.715,-0.026
31.720,-0.027
31.725,-0.021
31.730,-0.025
31.735,-0.029
31.740,-0.035
31.745,-0.037
31.750,-0.035
31.755,-0.037
31.760,-0.035
31.765,-0.037
31.770,-0.035
31.775,-0.031
31.780,-0.037
31.785,-0.037
31.790,-0.036
31.795,-0.032
31.800,-0.029
31.805,-0.031
31.810,-0.031
31.815,-0.034
31.820,-0.033
31.825,-0.026
31.830,-0.027
31.835,-0.029
31.840,-0.033
31.845,-0.031
31.850,-0.027
31.855,-0.032
31.860,-0.032
31.865,-0.031
31.870,-0.028
31.875,-0.030
31.880,-0.039
31.885,-0.040
31.890,-0.049
31.895,-0.063
31.900,-0.070
31.905,-0.077
31.910,-0.074
31.915,-0.073
31.920,-0.077
31.925,-0.082
31.930,-0.103
31.935,-0.112
31.940,-0.092
31.945,-0.068
31.950,-0.062
31.955,-0.061
31.960,-0.042
31.965,-0.024
31.970,-0.020
31.975,-0.028
31.980,-0.028
31.985,-0.005
31.990,0.010
31.995,0.017
32.000,0.038
32.005,0.053
32.010,0.055
32.015,0.051
32.020,0.048
32.025,0.048
32.030,0.045
32.035,0.042
32.040,0.036
32.045,0.034
32.050,0.032
32.055,0.024
32.060,0.025
32.065,0.025
32.070,0.021
32.075,0.019
32.080,0.011
32.085,0.002
32.090,-0.023
32.095,-0.089
32.100,-0.220
32.105,-0.399
32.110,-0.578
32.115,-0.779
32.120,-1.055
32.125,-1.270
32.130,-1.101
32.135,-0.557
32.140,-0.019
32.145,0.286
32.150,0.364
32.155,0.334
32.160,0.315
32.165,0.303
32.170,0.304
32.175,0.330
32.180,0.312
32.185,0.277
32.190,0.281
32.195,0.277
32.200,0.253
32.205,0.244
32.210,0.239
32.215,0.217
32.220,0.204
32.225,0.204
32.230,0.188
32.235,0.172
32.240,0.164
32.245,0.155
32.250,0.140
32.255,0.130
32.260,0.130
32.265,0.117
32.270,0.105
32.275,0.100
32.280,0.090
32.285,0.082
32.290,0.069
32.295,0.060
32.300,0.055
32.305,0.046
32.310,0.036
32.315,0.023
32.320,0.014
32.325,0.005
32.330,-0.011
32.335,-0.024
32.340,-0.038
32.345,-0.057
32.350,-0.075
32.355,-0.092
32.360,-0.104
32.365,-0.121
32.370,-0.136
32.375,-0.149
32.380,-0.165
32.385,-0.172
32.390,-0.178
32.395,-0.178
32.400,-0.174
32.405,-0.174
32.410,-0.162
32.415,-0.143
32.420,-0.123
32.425,-0.094
32.430,-0.061
32.435,-0.026
32.440,0.005
32.445,0.036
32.450,0.070
32.455,0.099
32.460,0.121
32.465,0.134
32.470,0.148
32.475,0.159
32.480,0.161
32.485,0.166
32.490,0.170
32.495,0.169
32.500,0.163
32.505,0.154
32.510,0.149
32.515,0.143
32.520,0.139
32.525,0.132
32.530,0.121
32.535,0.119
32.540,0.115
32.545,0.109
32.550,0.103
32.555,0.094
32.560,0.091
32.565,0.086
32.570,0.078
32.575,0.071
32.580,0.061
32.585,0.056
32.590,0.048
32.595,0.042
32.600,0.038
32.605,0.028
32.610,0.023
32.615,0.015
32.620,0.009
32.625,0.006
32.630,-0.005
32.635,-0.011
32.640,-0.021
32.645,-0.029
32.650,-0.028
32.655,-0.032
32.660,-0.033
32.665,-0.034
32.670,-0.038
32.675,-0.037
32.680,-0.042
32.685,-0.041
32.690,-0.038
32.695,-0.039
32.700,-0.038
32.705,-0.039
32.710,-0.039
32.715,-0.038
32.720,-0.037
32.725,-0.036
32.730,-0.037
32.735,-0.032
32.740,-0.032
32.745,-0.034
32.750,-0.034
32.755,-0.035
32.760,-0.028
32.765,-0.028
32.770,-0.032
32.775,-0.031
32.780,-0.035
32.785,-0.035
32.790,-0.034
32.795,-0.034
32.800,-0.033
32.805,-0.037
32.810,-0.042
32.815,-0.056
32.820,-0.065
32.825,-0.070
32.830,-0.080
32.835,-0.079
32.840,-0.079
32.845,-0.077
32.850,-0.077
32.855,-0.101
32.860,-0.115
32.865,-0.100
32.870,-0.075
32.875,-0.065
32.880,-0.064
32.885,-0.047
32.890,-0.025
32.895,-0.015
32.900,-0.026
32.905,-0.031
32.910,-0.009
32.915,0.011
32.920,0.022
32.925,0.038
32.930,0.047
32.935,0.051
32.940,0.049
32.945,0.044
32.950,0.044
32.955,0.042
32.960,0.041
32.965,0.037
32.970,0.035
32.975,0.034
32.980,0.027
32.985,0.027
32.990,0.024
32.995,0.018
33.000,0.015
33.005,0.008
33.010,0.002
33.015,-0.016
33.020,-0.069
33.025,-0.175
33.030,-0.340
33.035,-0.521
33.040,-0.710
33.045,-0.968
33.050,-1.225
33.055,-1.164
33.060,-0.676
33.065,-0.111
33.070,0.242
33.075,0.357
33.080,0.334
33.085,0.312
33.090,0.302
33.095,0.293
33.100,0.320
33.105,0.317
33.110,0.275
33.115,0.272
33.120,0.281
33.125,0.254
33.130,0.233
33.135,0.238
33.140,0.222
33.145,0.206
33.150,0.205
33.155,0.190
33.160,0.176
33.165,0.165
33.170,0.158
33.175,0.152
33.180,0.138
33.185,0.134
33.190,0.124
33.195,0.110
33.200,0.105
33.205,0.095
33.210,0.087
33.215,0.080
33.220,0.070
33.225,0.063
33.230,0.050
33.235,0.039
33.240,0.030
33.245,0.019
33.250,0.008
33.255,-0.008
33.260,-0.019
33.265,-0.030
33.270,-0.044
33.275,-0.060
33.280,-0.078
33.285,-0.092
33.290,-0.108
33.295,-0.123
33.300,-0.135
33.305,-0.149
33.310,-0.158
33.315,-0.165
33.320,-0.169
33.325,-0.166
33.330,-0.161
33.335,-0.149
33.340,-0.135
33.345,-0.118
33.350,-0.092
33.355,-0.063
33.360,-0.028
33.365,0.007
33.370,0.038
33.375,0.071
33.380,0.095
33.385,0.114
33.390,0.128
33.395,0.140
33.400,0.154
33.405,0.160
33.410,0.167
33.415,0.168
33.420,0.165
33.425,0.165
33.430,0.156
33.435,0.151
33.440,0.149
33.445,0.140
33.450,0.136
33.455,0.127
33.460,0.121
33.465,0.115
33.470,0.107
33.475,0.099
33.480,0.092
33.485,0.089
33.490,0.087
33.495,0.081
33.500,0.073
33.505,0.064
33.510,0.061
33.515,0.054
33.520,0.047
33.525,0.037
33.530,0.023
33.535,0.019
33.540,0.018
33.545,0.012
33.550,0.007
33.555,-0.006
33.560,-0.012
33.565,-0.016
33.570,-0.024
33.575,-0.028
33.580,-0.033
33.585,-0.034
33.590,-0.037
33.595,-0.045
33.600,-0.044
33.605,-0.042
33.610,-0.042
33.615,-0.044
33.620,-0.044
33.625,-0.037
33.630,-0.040
33.635,-0.043
33.640,-0.041
33.645,-0.038
33.650,-0.037
33.655,-0.041
33.660,-0.041
33.665,-0.039
33.670,-0.040
33.675,-0.039
33.680,-0.041
33.685,-0.037
33.690,-0.037
33.695,-0.038
33.700,-0.035
33.705,-0.037
33.710,-0.033
33.715,-0.034
33.720,-0.041
33.725,-0.039
33.730,-0.039
33.735,-0.040
33.740,-0.046
33.745,-0.059
33.750,-0.069
33.755,-0.076
33.760,-0.080
33.765,-0.083
33.770,-0.082
33.775,-0.081
33.780,-0.087
33.785,-0.100
33.790,-0.115
33.795,-0.105
33.800,-0.080
33.805,-0.076
33.810,-0.070
33.815,-0.050
33.820,-0.026
33.825,-0.012
33.830,-0.026
33.835,-0.036
33.840,-0.018
33.845,0.004
33.850,0.021
33.855,0.036
33.860,0.049
33.865,0.050
33.870,0.047
33.875,0.045
33.880,0.036
33.885,0.039
33.890,0.041
33.895,0.033
33.900,0.033
33.905,0.032
33.910,0.032
33.915,0.030
33.920,0.027
33.925,0.023
33.930,0.013
33.935,0.011
33.940,0.005
33.945,-0.017
33.950,-0.064
33.955,-0.169
33.960,-0.327
33.965,-0.509
33.970,-0.699
33.975,-0.953
33.980,-1.218
33.985,-1.168
33.990,-0.694
33.995,-0.124
34.000,0.244
34.005,0.356
34.010,0.331
34.015,0.303
34.020,0.290
34.025,0.289
34.030,0.313
34.035,0.312
34.040,0.270
34.045,0.269
34.050,0.279
34.055,0.251
34.060,0.238
34.065,0.239
34.070,0.223
34.075,0.204
34.080,0.194
34.085,0.188
34.090,0.172
34.095,0.158
34.100,0.155
34.105,0.144
34.110,0.137
34.115,0.131
34.120,0.119
34.125,0.112
34.130,0.102
34.135,0.092
34.140,0.080
34.145,0.071
34.150,0.068
34.155,0.060
34.160,0.052
34.165,0.044
34.170,0.034
34.175,0.027
34.180,0.012
34.185,-0.002
34.190,-0.017
34.195,-0.032
34.200,-0.041
34.205,-0.058
34.210,-0.076
34.215,-0.095
34.220,-0.113
34.225,-0.122
34.230,-0.138
34.235,-0.152
34.240,-0.160
34.245,-0.163
34.250,-0.161
34.255,-0.163
34.260,-0.158
34.265,-0.148
34.270,-0.135
34.275,-0.111
34.280,-0.091
34.285,-0.064
34.290,-0.030
34.295,0.001
34.300,0.036
34.305,0.066
34.310,0.092
34.315,0.113
34.320,0.128
34.325,0.143
34.330,0.152
34.335,0.159
34.340,0.160
34.345,0.160
34.350,0.164
34.355,0.160
34.360,0.155
34.365,0.151
34.370,0.144
34.375,0.140
34.380,0.127
34.385,0.122
34.390,0.121
34.395,0.114
34.400,0.111
34.405,0.103
34.410,0.097
34.415,0.089
34.420,0.079
34.425,0.078
34.430,0.071
34.435,0.063
34.440,0.054
34.445,0.046
34.450,0.043
34.455,0.034
34.460,0.028
34.465,0.022
34.470,0.012
34.475,0.005
34.480,-0.004
34.485,-0.008
34.490,-0.009
34.495,-0.015
34.500,-0.020
34.505,-0.029
34.510,-0.030
34.515,-0.027
34.520,-0.027
34.525,-0.026
34.530,-0.034
34.535,-0.034
34.540,-0.032
34.545,-0.035
34.550,-0.033
34.555,-0.034
34.560,-0.033
34.565,-0.030
34.570,-0.031
34.575,-0.029
34.580,-0.031
34.585,-0.030
34.590,-0.030
34.595,-0.034
34.600,-0.034
34.605,-0.031
34.610,-0.028
34.615,-0.030
34.620,-0.034
34.625,-0.032
34.630,-0.029
34.635,-0.026
34.640,-0.027
34.645,-0.033
34.650,-0.031
34.655,-0.033
34.660,-0.033
34.665,-0.033
34.670,-0.040
34.675,-0.048
34.680,-0.059
34.685,-0.068
34.690,-0.077
34.695,-0.082
34.700,-0.077
34.705,-0.077
34.710,-0.085
34.715,-0.111
34.720,-0.131
34.725,-0.110
34.730,-0.080
34.735,-0.068
34.740,-0.058
34.745,-0.038
34.750,-0.017
34.755,-0.014
34.760,-0.026
34.765,-0.026
34.770,-0.010
34.775,0.009
34.780,0.020
34.785,0.039
34.790,0.056
34.795,0.055
34.800,0.052
34.805,0.046
34.810,0.044
34.815,0.045
34.820,0.041
34.825,0.039
34.830,0.032
34.835,0.030
34.840,0.030
34.845,0.026
34.850,0.027
34.855,0.018
34.860,0.011
34.865,0.012
34.870,0.007
34.875,-0.009
34.880,-0.059
34.885,-0.155
34.890,-0.304
34.895,-0.487
34.900,-0.690
34.905,-0.963
34.910,-1.228
34.915,-1.173
34.920,-0.685
34.925,-0.103
34.930,0.249
34.935,0.350
34.940,0.318
34.945,0.292
34.950,0.292
34.955,0.291
34.960,0.316
34.965,0.312
34.970,0.266
34.975,0.262
34.980,0.270
34.985,0.251
34.990,0.240
34.995,0.241
35.000,0.227
35.005,0.202
35.010,0.194
35.015,0.188
35.020,0.175
35.025,0.171
35.030,0.163
35.035,0.149
35.040,0.136
35.045,0.129
35.050,0.125
35.055,0.112
35.060,0.102
35.065,0.090
35.070,0.077
35.075,0.073
35.080,0.064
35.085,0.056
35.090,0.047
35.095,0.033
35.100,0.024
35.105,0.015
35.110,0.009
35.115,0.000
35.120,-0.013
35.125,-0.025
35.130,-0.044
35.135,-0.065
35.140,-0.085
35.145,-0.104
35.150,-0.116
35.155,-0.129
35.160,-0.145
35.165,-0.156
35.170,-0.161
35.175,-0.162
35.180,-0.168
35.185,-0.168
35.190,-0.162
35.195,-0.153
35.200,-0.135
35.205,-0.116
35.210,-0.093
35.215,-0.063
35.220,-0.035
35.225,0.000
35.230,0.033
35.235,0.066
35.240,0.093
35.245,0.108
35.250,0.118
35.255,0.127
35.260,0.143
35.265,0.156
35.270,0.160
35.275,0.162
35.280,0.156
35.285,0.150
35.290,0.145
35.295,0.139
35.300,0.140
35.305,0.137
35.310,0.131
35.315,0.123
35.320,0.117
35.325,0.117
35.330,0.108
35.335,0.099
35.340,0.090
35.345,0.079
35.350,0.074
35.355,0.064
35.360,0.056
35.365,0.052
35.370,0.044
35.375,0.041
35.380,0.035
35.385,0.028
35.390,0.021
35.395,0.013
35.400,0.008
35.405,-0.004
35.410,-0.013
35.415,-0.012
35.420,-0.011
35.425,-0.014
35.430,-0.028
35.435,-0.038
35.440,-0.038
35.445,-0.039
35.450,-0.039
35.455,-0.042
35.460,-0.041
35.465,-0.042
35.470,-0.042
35.475,-0.040
35.480,-0.045
35.485,-0.042
35.490,-0.039
35.495,-0.042
35.500,-0.038
35.505,-0.035
35.510,-0.031
35.515,-0.032
35.520,-0.040
35.525,-0.037
35.530,-0.034
35.535,-0.030
35.540,-0.024
35.545,-0.024
35.550,-0.025
35.555,-0.031
35.560,-0.031
35.565,-0.026
35.570,-0.029
35.575,-0.033
35.580,-0.038
35.585,-0.039
35.590,-0.048
35.595,-0.063
35.600,-0.068
35.605,-0.069
35.610,-0.071
35.615,-0.077
35.620,-0.084
35.625,-0.084
35.630,-0.093
35.635,-0.112
35.640,-0.119
35.645,-0.102
35.650,-0.079
35.655,-0.073
35.660,-0.063
35.665,-0.045
35.670,-0.033
35.675,-0.027
35.680,-0.033
35.685,-0.027
35.690,0.000
35.695,0.016
35.700,0.027
35.705,0.038
35.710,0.045
35.715,0.048
35.720,0.051
35.725,0.052
35.730,0.045
35.735,0.043
35.740,0.033
35.745,0.020
35.750,0.027
35.755,0.034
35.760,0.035
35.765,0.032
35.770,0.022
35.775,0.018
35.780,0.014
35.785,0.014
35.790,0.007
35.795,-0.022
35.800,-0.074
35.805,-0.178
35.810,-0.336
35.815,-0.531
35.820,-0.768
35.825,-1.073
35.830,-1.314
35.835,-1.164
35.840,-0.616
35.845,-0.048
35.850,0.275
35.855,0.347
35.860,0.317
35.865,0.303
35.870,0.300
35.875,0.309
35.880,0.332
35.885,0.320
35.890,0.286
35.895,0.288
35.900,0.291
35.905,0.262
35.910,0.251
35.915,0.252
35.920,0.237
35.925,0.223
35.930,0.212
35.935,0.199
35.940,0.186
35.945,0.180
35.950,0.172
35.955,0.157
35.960,0.149
35.965,0.139
35.970,0.127
35.975,0.119
35.980,0.104
35.985,0.096
35.990,0.094
35.995,0.086
36.000,0.077
36.005,0.063
36.010,0.055
36.015,0.048
36.020,0.029
36.025,0.016
36.030,0.004
36.035,-0.009
36.040,-0.018
36.045,-0.032
36.050,-0.042
36.055,-0.059
36.060,-0.083
36.065,-0.099
36.070,-0.110
36.075,-0.122
36.080,-0.141
36.085,-0.155
36.090,-0.164
36.095,-0.167
36.100,-0.162
36.105,-0.161
36.110,-0.154
36.115,-0.139
36.120,-0.126
36.125,-0.104
36.130,-0.080
36.135,-0.054
36.140,-0.021
36.145,0.012
36.150,0.044
36.155,0.073
36.160,0.101
36.165,0.123
36.170,0.134
36.175,0.143
36.180,0.144
36.185,0.148
36.190,0.153
36.195,0.151
36.200,0.156
36.205,0.156
36.210,0.152
36.215,0.151
36.220,0.145
36.225,0.143
36.230,0.136
36.235,0.125
36.240,0.114
36.245,0.106
36.250,0.107
36.255,0.103
36.260,0.093
36.265,0.083
36.270,0.070
36.275,0.062
36.280,0.052
36.285,0.046
36.290,0.046
36.295,0.042
36.300,0.041
36.305,0.031
36.310,0.019
36.315,0.010
36.320,-0.002
36.325,-0.011
36.330,-0.022
36.335,-0.030
36.340,-0.029
36.345,-0.027
36.350,-0.030
36.355,-0.036
36.360,-0.033
36.365,-0.033
36.370,-0.037
36.375,-0.042
36.380,-0.043
36.385,-0.037
36.390,-0.039
36.395,-0.041
36.400,-0.036
36.405,-0.034
36.410,-0.031
36.415,-0.032
36.420,-0.034
36.425,-0.031
36.430,-0.035
36.435,-0.032
36.440,-0.024
36.445,-0.032
36.450,-0.038
36.455,-0.037
36.460,-0.032
36.465,-0.032
36.470,-0.038
36.475,-0.035
36.480,-0.030
36.485,-0.024
36.490,-0.024
36.495,-0.032
36.500,-0.032
36.505,-0.036
36.510,-0.041
36.515,-0.044
36.520,-0.056
36.525,-0.063
36.530,-0.070
36.535,-0.078
36.540,-0.077
36.545,-0.076
36.550,-0.074
36.555,-0.088
36.560,-0.117
36.565,-0.121
36.570,-0.096
36.575,-0.077
36.580,-0.075
36.585,-0.065
36.590,-0.042
36.595,-0.027
36.600,-0.028
36.605,-0.035
36.610,-0.020
36.615,0.004
36.620,0.013
36.625,0.027
36.630,0.046
36.635,0.056
36.640,0.052
36.645,0.046
36.650,0.045
36.655,0.043
36.660,0.044
36.665,0.043
36.670,0.042
36.675,0.045
36.680,0.038
36.685,0.036
36.690,0.035
36.695,0.024
36.700,0.017
36.705,0.016
36.710,0.012
36.715,-0.004
36.720,-0.040
36.725,-0.106
36.730,-0.236
36.735,-0.424
36.740,-0.636
36.745,-0.906
36.750,-1.238
36.755,-1.382
36.760,-1.055
36.765,-0.432
36.770,0.087
36.775,0.330
36.780,0.349
36.785,0.320
36.790,0.318
36.795,0.316
36.800,0.342
36.805,0.359
36.810,0.322
36.815,0.302
36.820,0.316
36.825,0.307
36.830,0.280
36.835,0.273
36.840,0.267
36.845,0.245
36.850,0.233
36.855,0.225
36.860,0.211
36.865,0.198
36.870,0.186
36.875,0.177
36.880,0.166
36.885,0.156
36.890,0.145
36.895,0.133
36.900,0.129
36.905,0.116
36.910,0.099
36.915,0.093
36.920,0.090
36.925,0.084
36.930,0.065
36.935,0.050
36.940,0.041
36.945,0.025
36.950,0.014
36.955,0.001
36.960,-0.011
36.965,-0.022
36.970,-0.039
36.975,-0.053
36.980,-0.070
36.985,-0.086
36.990,-0.104
36.995,-0.126
37.000,-0.140
37.005,-0.154
37.010,-0.164
37.015,-0.164
37.020,-0.168
37.025,-0.167
37.030,-0.161
37.035,-0.155
37.040,-0.141
37.045,-0.126
37.050,-0.106
37.055,-0.078
37.060,-0.046
37.065,-0.012
37.070,0.019
37.075,0.049
37.080,0.072
37.085,0.093
37.090,0.113
37.095,0.127
37.100,0.141
37.105,0.148
37.110,0.154
37.115,0.158
37.120,0.156
37.125,0.159
37.130,0.151
37.135,0.143
37.140,0.142
37.145,0.135
37.150,0.133
37.155,0.127
37.160,0.117
37.165,0.112
37.170,0.106
37.175,0.102
37.180,0.094
37.185,0.086
37.190,0.080
37.195,0.070
37.200,0.061
37.205,0.049
37.210,0.041
37.215,0.040
37.220,0.037
37.225,0.033
37.230,0.019
37.235,0.008
37.240,0.005
37.245,-0.005
37.250,-0.012
37.255,-0.021
37.260,-0.027
37.265,-0.026
37.270,-0.032
37.275,-0.035
37.280,-0.040
37.285,-0.044
37.290,-0.040
37.295,-0.042
37.300,-0.042
37.305,-0.043
37.310,-0.041
37.315,-0.035
37.320,-0.037
37.325,-0.039
37.330,-0.039
37.335,-0.039
37.340,-0.041
37.345,-0.042
37.350,-0.038
37.355,-0.039
37.360,-0.042
37.365,-0.043
37.370,-0.042
37.375,-0.035
37.380,-0.035
37.385,-0.037
37.390,-0.034
37.395,-0.038
37.400,-0.037
37.405,-0.038
37.410,-0.039
37.415,-0.034
37.420,-0.035
37.425,-0.035
37.430,-0.034
37.435,-0.033
37.440,-0.036
37.445,-0.051
37.450,-0.064
37.455,-0.068
37.460,-0.071
37.465,-0.079
37.470,-0.086
37.475,-0.080
37.480,-0.077
37.485,-0.087
37.490,-0.108
37.495,-0.117
37.500,-0.091
37.505,-0.072
37.510,-0.073
37.515,-0.062
37.520,-0.046
37.525,-0.026
37.530,-0.023
37.535,-0.036
37.540,-0.026
37.545,-0.004
37.550,0.012
37.555,0.023
37.560,0.038
37.565,0.050
37.570,0.047
37.575,0.043
37.580,0.037
37.585,0.038
37.590,0.043
37.595,0.038
37.600,0.037
37.605,0.037
37.610,0.032
37.615,0.030
37.620,0.023
37.625,0.019
37.630,0.015
37.635,0.013
37.640,0.013
37.645,-0.005
37.650,-0.045
37.655,-0.130
37.660,-0.283
37.665,-0.473
37.670,-0.662
37.675,-0.894
37.680,-1.189
37.685,-1.291
37.690,-0.942
37.695,-0.355
37.700,0.116
37.705,0.331
37.710,0.360
37.715,0.344
37.720,0.331
37.725,0.322
37.730,0.334
37.735,0.346
37.740,0.315
37.745,0.291
37.750,0.305
37.755,0.288
37.760,0.260
37.765,0.259
37.770,0.249
37.775,0.231
37.780,0.221
37.785,0.215
37.790,0.199
37.795,0.185
37.800,0.179
37.805,0.166
37.810,0.155
37.815,0.150
37.820,0.139
37.825,0.129
37.830,0.119
37.835,0.111
37.840,0.100
37.845,0.088
37.850,0.084
37.855,0.073
37.860,0.061
37.865,0.051
37.870,0.040
37.875,0.034
37.880,0.023
37.885,0.009
37.890,-0.003
37.895,-0.020
37.900,-0.033
37.905,-0.050
37.910,-0.069
37.915,-0.086
37.920,-0.109
37.925,-0.127
37.930,-0.141
37.935,-0.153
37.940,-0.160
37.945,-0.170
37.950,-0.173
37.955,-0.174
37.960,-0.175
37.965,-0.164
37.970,-0.153
37.975,-0.135
37.980,-0.112
37.985,-0.084
37.990,-0.050
37.995,-0.015
38.000,0.021
38.005,0.053
38.010,0.083
38.015,0.109
38.020,0.125
38.025,0.141
38.030,0.151
38.035,0.161
38.040,0.172
38.045,0.170
38.050,0.169
38.055,0.165
38.060,0.160
38.065,0.158
38.070,0.152
38.075,0.147
38.080,0.136
38.085,0.129
38.090,0.127
38.095,0.118
38.100,0.114
38.105,0.109
38.110,0.103
38.115,0.098
38.120,0.087
38.125,0.083
38.130,0.076
38.135,0.070
38.140,0.067
38.145,0.059
38.150,0.053
38.155,0.044
38.160,0.034
38.165,0.030
38.170,0.023
38.175,0.019
38.180,0.011
38.185,0.001
38.190,-0.005
38.195,-0.012
38.200,-0.013
38.205,-0.018
38.210,-0.024
38.215,-0.026
38.220,-0.033
38.225,-0.036
38.230,-0.037
38.235,-0.038
38.240,-0.038
38.245,-0.041
38.250,-0.038
38.255,-0.036
38.260,-0.039
38.265,-0.038
38.270,-0.038
38.275,-0.037
38.280,-0.037
38.285,-0.036
38.290,-0.034
38.295,-0.036
38.300,-0.035
38.305,-0.035
38.310,-0.034
38.315,-0.032
38.320,-0.038
38.325,-0.038
38.330,-0.036
38.335,-0.035
38.340,-0.032
38.345,-0.035
38.350,-0.036
38.355,-0.033
38.360,-0.033
38.365,-0.035
38.370,-0.041
38.375,-0.042
38.380,-0.043
38.385,-0.051
38.390,-0.061
38.395,-0.076
38.400,-0.081
38.405,-0.080
38.410,-0.082
38.415,-0.083
38.420,-0.085
38.425,-0.096
38.430,-0.118
38.435,-0.116
38.440,-0.089
38.445,-0.076
38.450,-0.069
38.455,-0.056
38.460,-0.036
38.465,-0.017
38.470,-0.023
38.475,-0.032
38.480,-0.020
38.485,0.001
38.490,0.017
38.495,0.029
38.500,0.046
38.505,0.053
38.510,0.048
38.515,0.044
38.520,0.038
38.525,0.040
38.530,0.040
38.535,0.035
38.540,0.036
38.545,0.032
38.550,0.029
38.555,0.026
38.560,0.022
38.565,0.022
38.570,0.017
38.575,0.016
38.580,0.013
38.585,-0.007
38.590,-0.062
38.595,-0.177
38.600,-0.345
38.605,-0.532
38.610,-0.724
38.615,-0.976
38.620,-1.240
38.625,-1.194
38.630,-0.717
38.635,-0.147
38.640,0.226
38.645,0.355
38.650,0.343
38.655,0.322
38.660,0.308
38.665,0.302
38.670,0.326
38.675,0.326
38.680,0.280
38.685,0.274
38.690,0.289
38.695,0.261
38.700,0.244
38.705,0.247
38.710,0.232
38.715,0.215
38.720,0.210
38.725,0.202
38.730,0.186
38.735,0.174
38.740,0.166
38.745,0.151
38.750,0.143
38.755,0.138
38.760,0.125
38.765,0.111
38.770,0.102
38.775,0.099
38.780,0.092
38.785,0.081
38.790,0.072
38.795,0.062
38.800,0.056
38.805,0.047
38.810,0.033
38.815,0.019
38.820,0.005
38.825,-0.003
38.830,-0.016
38.835,-0.031
38.840,-0.041
38.845,-0.059
38.850,-0.073
38.855,-0.089
38.860,-0.109
38.865,-0.124
38.870,-0.144
38.875,-0.158
38.880,-0.167
38.885,-0.175
38.890,-0.176
38.895,-0.176
38.900,-0.166
38.905,-0.157
38.910,-0.147
38.915,-0.126
38.920,-0.104
38.925,-0.073
38.930,-0.036
38.935,-0.002
38.940,0.032
38.945,0.059
38.950,0.085
38.955,0.110
38.960,0.130
38.965,0.144
38.970,0.152
38.975,0.162
38.980,0.168
38.985,0.170
38.990,0.170
38.995,0.162
39.000,0.160
39.005,0.158
39.010,0.148
39.015,0.144
39.020,0.137
39.025,0.134
39.030,0.128
39.035,0.120
39.040,0.114
39.045,0.103
39.050,0.096
39.055,0.090
39.060,0.079
39.065,0.072
39.070,0.066
39.075,0.064
39.080,0.059
39.085,0.054
39.090,0.051
39.095,0.043
39.100,0.035
39.105,0.026
39.110,0.021
39.115,0.018
39.120,0.008
39.125,0.000
39.130,-0.007
39.135,-0.013
39.140,-0.016
39.145,-0.025
39.150,-0.032
39.155,-0.035
39.160,-0.032
39.165,-0.028
39.170,-0.035
39.175,-0.038
39.180,-0.039
39.185,-0.042
39.190,-0.042
39.195,-0.043
39.200,-0.036
39.205,-0.028
39.210,-0.032
39.215,-0.035
39.220,-0.039
39.225,-0.038
39.230,-0.033
39.235,-0.034
39.240,-0.035
39.245,-0.041
39.250,-0.042
39.255,-0.037
39.260,-0.033
39.265,-0.030
39.270,-0.033
39.275,-0.037
39.280,-0.039
39.285,-0.038
39.290,-0.033
39.295,-0.040
39.300,-0.049
39.305,-0.063
39.310,-0.076
39.315,-0.077
39.320,-0.082
39.325,-0.083
39.330,-0.079
39.335,-0.084
39.340,-0.097
39.345,-0.123
39.350,-0.125
39.355,-0.099
39.360,-0.080
39.365,-0.076
39.370,-0.066
39.375,-0.042
39.380,-0.027
39.385,-0.028
39.390,-0.034
39.395,-0.028
39.400,-0.008
39.405,0.006
39.410,0.020
39.415,0.041
39.420,0.051
39.425,0.048
39.430,0.035
39.435,0.028
39.440,0.034
39.445,0.042
39.450,0.048
39.455,0.040
39.460,0.029
39.465,0.026
39.470,0.021
39.475,0.026
39.480,0.029
39.485,0.021
39.490,0.013
39.495,0.000
39.500,-0.008
39.505,-0.037
39.510,-0.111
39.515,-0.242
39.520,-0.424
39.525,-0.618
39.530,-0.864
39.535,-1.172
39.540,-1.280
39.545,-0.936
39.550,-0.339
39.555,0.131
39.560,0.328
39.565,0.331
39.570,0.294
39.575,0.290
39.580,0.288
39.585,0.306
39.590,0.326
39.595,0.295
39.600,0.279
39.605,0.291
39.610,0.274
39.615,0.250
39.620,0.246
39.625,0.238
39.630,0.219
39.635,0.213
39.640,0.210
39.645,0.186
39.650,0.170
39.655,0.166
39.660,0.157
39.665,0.151
39.670,0.146
39.675,0.137
39.680,0.116
39.685,0.103
39.690,0.102
39.695,0.094
39.700,0.088
39.705,0.080
39.710,0.065
39.715,0.052
39.720,0.040
39.725,0.034
39.730,0.027
39.735,0.017
39.740,0.007
39.745,-0.009
39.750,-0.026
39.755,-0.044
39.760,-0.059
39.765,-0.069
39.770,-0.086
39.775,-0.107
39.780,-0.127
39.785,-0.137
39.790,-0.141
39.795,-0.149
39.800,-0.152
39.805,-0.161
39.810,-0.174
39.815,-0.172
39.820,-0.161
39.825,-0.138
39.830,-0.113
39.835,-0.092
39.840,-0.064
39.845,-0.038
39.850,-0.010
39.855,0.020
39.860,0.052
39.865,0.085
39.870,0.106
39.875,0.123
39.880,0.135
39.885,0.139
39.890,0.146
39.895,0.155
39.900,0.166
39.905,0.170
39.910,0.165
39.915,0.153
39.920,0.142
39.925,0.145
39.930,0.144
39.935,0.140
39.940,0.138
39.945,0.122
39.950,0.114
39.955,0.103
39.960,0.093
39.965,0.100
39.970,0.101
39.975,0.094
39.980,0.080
39.985,0.062
39.990,0.055
39.995,0.051
40.000,0.050
40.005,0.044
40.010,0.026
40.015,0.014
40.020,0.012
40.025,0.013
40.030,0.008
40.035,-0.004
40.040,-0.013
40.045,-0.023
40.050,-0.025
40.055,-0.025
40.060,-0.030
40.065,-0.032
40.070,-0.039
40.075,-0.042
40.080,-0.043
40.085,-0.043
40.090,-0.038
40.095,-0.040
40.100,-0.045
40.105,-0.047
40.110,-0.043
40.115,-0.037
40.120,-0.040
40.125,-0.042
40.130,-0.041
40.135,-0.036
40.140,-0.031
40.145,-0.034
40.150,-0.032
40.155,-0.029
40.160,-0.029
40.165,-0.026
40.170,-0.033
40.175,-0.038
40.180,-0.039
40.185,-0.040
40.190,-0.040
40.195,-0.045
40.200,-0.046
40.205,-0.050
40.210,-0.064
40.215,-0.072
40.220,-0.073
40.225,-0.070
40.230,-0.071
40.235,-0.075
40.240,-0.077
40.245,-0.093
40.250,-0.122
40.255,-0.129
40.260,-0.106
40.265,-0.084
40.270,-0.080
40.275,-0.068
40.280,-0.043
40.285,-0.031
40.290,-0.028
40.295,-0.034
40.300,-0.021
40.305,0.001
40.310,0.006
40.315,0.018
40.320,0.038
40.325,0.050
40.330,0.055
40.335,0.054
40.340,0.053
40.345,0.049
40.350,0.043
40.355,0.041
40.360,0.039
40.365,0.039
40.370,0.034
40.375,0.032
40.380,0.027
40.385,0.015
40.390,0.012
40.395,0.008
40.400,0.011
40.405,0.003
40.410,-0.036
40.415,-0.107
40.420,-0.244
40.425,-0.433
40.430,-0.647
40.435,-0.933
40.440,-1.263
40.445,-1.346
40.450,-0.944
40.455,-0.318
40.460,0.152
40.465,0.342
40.470,0.328
40.475,0.294
40.480,0.293
40.485,0.293
40.490,0.326
40.495,0.339
40.500,0.305
40.505,0.296
40.510,0.308
40.515,0.289
40.520,0.261
40.525,0.261
40.530,0.260
40.535,0.239
40.540,0.223
40.545,0.207
40.550,0.194
40.555,0.188
40.560,0.180
40.565,0.169
40.570,0.156
40.575,0.145
40.580,0.130
40.585,0.119
40.590,0.121
40.595,0.114
40.600,0.100
40.605,0.089
40.610,0.072
40.615,0.058
40.620,0.045
40.625,0.040
40.630,0.036
40.635,0.026
40.640,0.021
40.645,0.009
40.650,-0.008
40.655,-0.032
40.660,-0.060
40.665,-0.072
40.670,-0.082
40.675,-0.092
40.680,-0.100
40.685,-0.119
40.690,-0.137
40.695,-0.153
40.700,-0.161
40.705,-0.170
40.710,-0.179
40.715,-0.172
40.720,-0.163
40.725,-0.153
40.730,-0.141
40.735,-0.126
40.740,-0.093
40.745,-0.061
40.750,-0.030
40.755,0.003
40.760,0.032
40.765,0.065
40.770,0.089
40.775,0.107
40.780,0.124
40.785,0.139
40.790,0.159
40.795,0.162
40.800,0.158
40.805,0.158
40.810,0.155
40.815,0.157
40.820,0.157
40.825,0.155
40.830,0.153
40.835,0.145
40.840,0.140
40.845,0.132
40.850,0.123
40.855,0.114
40.860,0.104
40.865,0.098
40.870,0.092
40.875,0.090
40.880,0.088
40.885,0.077
40.890,0.056
40.895,0.041
40.900,0.048
40.905,0.055
40.910,0.048
40.915,0.032
40.920,0.015
40.925,0.013
40.930,0.010
40.935,-0.004
40.940,-0.013
40.945,-0.017
40.950,-0.022
40.955,-0.026
40.960,-0.032
40.965,-0.032
40.970,-0.030
40.975,-0.036
40.980,-0.043
40.985,-0.046
40.990,-0.044
40.995,-0.046
41.000,-0.045
41.005,-0.041
41.010,-0.036
41.015,-0.026
41.020,-0.027
41.025,-0.040
41.030,-0.045
41.035,-0.041
41.040,-0.032
41.045,-0.031
41.050,-0.038
41.055,-0.037
41.060,-0.031
41.065,-0.025
41.070,-0.027
41.075,-0.034
41.080,-0.034
41.085,-0.034
41.090,-0.035
41.095,-0.036
41.100,-0.038
41.105,-0.044
41.110,-0.050
41.115,-0.051
41.120,-0.057
41.125,-0.066
41.130,-0.078
41.135,-0.084
41.140,-0.072
41.145,-0.076
41.150,-0.105
41.155,-0.124
41.160,-0.117
41.165,-0.091
41.170,-0.081
41.175,-0.086
41.180,-0.067
41.185,-0.037
41.190,-0.023
41.195,-0.029
41.200,-0.032
41.205,-0.014
41.210,0.004
41.215,0.016
41.220,0.037
41.225,0.058
41.230,0.060
41.235,0.054
41.240,0.047
41.245,0.038
41.250,0.046
41.255,0.053
41.260,0.044
41.265,0.038
41.270,0.032
41.275,0.033
41.280,0.039
41.285,0.032
41.290,0.022
41.295,0.018
41.300,0.015
41.305,0.001
41.310,-0.028
41.315,-0.083
41.320,-0.213
41.325,-0.411
41.330,-0.642
41.335,-0.939
41.340,-1.293
41.345,-1.446
41.350,-1.118
41.355,-0.497
41.360,0.024
41.365,0.286
41.370,0.334
41.375,0.324
41.380,0.322
41.385,0.317
41.390,0.354
41.395,0.377
41.400,0.338
41.405,0.314
41.410,0.323
41.415,0.311
41.420,0.284
41.425,0.283
41.430,0.281
41.435,0.260
41.440,0.249
41.445,0.235
41.450,0.218
41.455,0.211
41.460,0.201
41.465,0.188
41.470,0.172
41.475,0.163
41.480,0.151
41.485,0.130
41.490,0.122
41.495,0.117
41.500,0.112
41.505,0.100
41.510,0.085
41.515,0.075
41.520,0.059
41.525,0.045
41.530,0.032
41.535,0.021
41.540,0.017
41.545,0.002
41.550,-0.007
41.555,-0.014
41.560,-0.033
41.565,-0.052
41.570,-0.073
41.575,-0.090
41.580,-0.102
41.585,-0.123
41.590,-0.143
41.595,-0.157
41.600,-0.164
41.605,-0.165
41.610,-0.169
41.615,-0.176
41.620,-0.180
41.625,-0.167
41.630,-0.144
41.635,-0.122
41.640,-0.101
41.645,-0.078
41.650,-0.041
41.655,0.002
41.660,0.036
41.665,0.068
41.670,0.092
41.675,0.112
41.680,0.129
41.685,0.138
41.690,0.153
41.695,0.167
41.700,0.172
41.705,0.170
41.710,0.161
41.715,0.164
41.720,0.166
41.725,0.156
41.730,0.146
41.735,0.139
41.740,0.135
41.745,0.129
41.750,0.126
41.755,0.124
41.760,0.114
41.765,0.106
41.770,0.096
41.775,0.087
41.780,0.080
41.785,0.070
41.790,0.064
41.795,0.058
41.800,0.049
41.805,0.043
41.810,0.037
41.815,0.029
41.820,0.020
41.825,0.011
41.830,0.002
41.835,-0.010
41.840,-0.013
41.845,-0.015
41.850,-0.016
41.855,-0.019
41.860,-0.030
41.865,-0.032
41.870,-0.033
41.875,-0.036
41.880,-0.040
41.885,-0.046
41.890,-0.040
41.895,-0.041
41.900,-0.043
41.905,-0.041
41.910,-0.043
41.915,-0.038
41.920,-0.037
41.925,-0.039
41.930,-0.040
41.935,-0.044
41.940,-0.043
41.945,-0.041
41.950,-0.043
41.955,-0.044
41.960,-0.044
41.965,-0.037
41.970,-0.034
41.975,-0.036
41.980,-0.036
41.985,-0.039
41.990,-0.036
41.995,-0.033
42.000,-0.033
42.005,-0.037
42.010,-0.047
42.015,-0.054
42.020,-0.063
42.025,-0.074
42.030,-0.081
42.035,-0.083
42.040,-0.079
42.045,-0.078
42.050,-0.079
42.055,-0.100
42.060,-0.127
42.065,-0.117
42.070,-0.097
42.075,-0.085
42.080,-0.074
42.085,-0.058
42.090,-0.034
42.095,-0.029
42.100,-0.039
42.105,-0.037
42.110,-0.020
42.115,0.002
42.120,0.014
42.125,0.032
42.130,0.051
42.135,0.051
42.140,0.048
42.145,0.042
42.150,0.042
42.155,0.045
42.160,0.039
42.165,0.034
42.170,0.034
42.175,0.035
42.180,0.035
42.185,0.032
42.190,0.027
42.195,0.019
42.200,0.012
42.205,0.007
42.210,-0.004
42.215,-0.037
42.220,-0.122
42.225,-0.273
42.230,-0.469
42.235,-0.674
42.240,-0.928
42.245,-1.255
42.250,-1.380
42.255,-1.039
42.260,-0.435
42.265,0.065
42.270,0.307
42.275,0.355
42.280,0.341
42.285,0.332
42.290,0.331
42.295,0.350
42.300,0.366
42.305,0.331
42.310,0.307
42.315,0.322
42.320,0.308
42.325,0.283
42.330,0.279
42.335,0.264
42.340,0.242
42.345,0.229
42.350,0.221
42.355,0.205
42.360,0.193
42.365,0.194
42.370,0.181
42.375,0.161
42.380,0.152
42.385,0.143
42.390,0.134
42.395,0.124
42.400,0.114
42.405,0.103
42.410,0.090
42.415,0.082
42.420,0.070
42.425,0.058
42.430,0.052
42.435,0.039
42.440,0.027
42.445,0.011
42.450,-0.002
42.455,-0.013
42.460,-0.027
42.465,-0.040
42.470,-0.055
42.475,-0.072
42.480,-0.093
42.485,-0.113
42.490,-0.124
42.495,-0.138
42.500,-0.152
42.505,-0.167
42.510,-0.179
42.515,-0.182
42.520,-0.186
42.525,-0.184
42.530,-0.172
42.535,-0.159
42.540,-0.139
42.545,-0.121
42.550,-0.093
42.555,-0.052
42.560,-0.011
42.565,0.026
42.570,0.052
42.575,0.081
42.580,0.110
42.585,0.128
42.590,0.143
42.595,0.152
42.600,0.163
42.605,0.171
42.610,0.170
42.615,0.173
42.620,0.171
42.625,0.165
42.630,0.158
42.635,0.150
42.640,0.147
42.645,0.141
42.650,0.133
42.655,0.127
42.660,0.115
42.665,0.106
42.670,0.097
42.675,0.094
42.680,0.092
42.685,0.082
42.690,0.074
42.695,0.064
42.700,0.061
42.705,0.060
42.710,0.049
42.715,0.040
42.720,0.034
42.725,0.030
42.730,0.028
42.735,0.022
42.740,0.019
42.745,0.012
42.750,0.005
42.755,-0.001
42.760,-0.014
42.765,-0.017
42.770,-0.021
42.775,-0.026
42.780,-0.028
42.785,-0.034
42.790,-0.034
42.795,-0.039
42.800,-0.040
42.805,-0.039
42.810,-0.042
42.815,-0.040
42.820,-0.041
42.825,-0.040
42.830,-0.035
42.835,-0.039
42.840,-0.039
42.845,-0.042
42.850,-0.042
42.855,-0.036
42.860,-0.037
42.865,-0.039
42.870,-0.042
42.875,-0.039
42.880,-0.035
42.885,-0.038
42.890,-0.037
42.895,-0.036
42.900,-0.039
42.905,-0.047
42.910,-0.053
42.915,-0.054
42.920,-0.063
42.925,-0.073
42.930,-0.080
42.935,-0.086
42.940,-0.083
42.945,-0.084
42.950,-0.085
42.955,-0.091
42.960,-0.115
42.965,-0.115
42.970,-0.092
42.975,-0.078
42.980,-0.076
42.985,-0.068
42.990,-0.046
42.995,-0.032
43.000,-0.034
43.005,-0.041
43.010,-0.033
43.015,-0.009
43.020,0.003
43.025,0.014
43.030,0.035
43.035,0.048
43.040,0.049
43.045,0.040
43.050,0.035
43.055,0.041
43.060,0.042
43.065,0.039
43.070,0.036
43.075,0.034
43.080,0.031
43.085,0.023
43.090,0.024
43.095,0.020
43.100,0.015
43.105,0.010
43.110,-0.002
43.115,-0.019
43.120,-0.081
43.125,-0.210
43.130,-0.388
43.135,-0.582
43.140,-0.778
43.145,-1.049
43.150,-1.302
43.155,-1.195
43.160,-0.683
43.165,-0.122
43.170,0.228
43.175,0.353
43.180,0.352
43.185,0.337
43.190,0.326
43.195,0.319
43.200,0.347
43.205,0.339
43.210,0.289
43.215,0.292
43.220,0.299
43.225,0.267
43.230,0.255
43.235,0.256
43.240,0.240
43.245,0.221
43.250,0.213
43.255,0.204
43.260,0.187
43.265,0.180
43.270,0.171
43.275,0.160
43.280,0.153
43.285,0.141
43.290,0.129
43.295,0.116
43.300,0.108
43.305,0.103
43.310,0.092
43.315,0.082
43.320,0.070
43.325,0.062
43.330,0.055
43.335,0.039
43.340,0.028
43.345,0.017
43.350,0.006
43.355,-0.003
43.360,-0.018
43.365,-0.030
43.370,-0.047
43.375,-0.067
43.380,-0.080
43.385,-0.097
43.390,-0.113
43.395,-0.132
43.400,-0.146
43.405,-0.155
43.410,-0.171
43.415,-0.180
43.420,-0.183
43.425,-0.180
43.430,-0.172
43.435,-0.166
43.440,-0.151
43.445,-0.128
43.450,-0.102
43.455,-0.066
43.460,-0.030
43.465,0.010
43.470,0.047
43.475,0.075
43.480,0.102
43.485,0.124
43.490,0.144
43.495,0.156
43.500,0.165
43.505,0.172
43.510,0.172
43.515,0.178
43.520,0.177
43.525,0.170
43.530,0.168
43.535,0.160
43.540,0.156
43.545,0.146
43.550,0.135
43.555,0.132
43.560,0.124
43.565,0.116
43.570,0.108
43.575,0.103
43.580,0.101
43.585,0.090
43.590,0.083
43.595,0.076
43.600,0.070
43.605,0.065
43.610,0.055
43.615,0.052
43.620,0.043
43.625,0.031
43.630,0.038
43.635,0.044
43.640,0.048
43.645,0.031
43.650,0.010
43.655,0.017
43.660,0.017
43.665,0.005
43.670,-0.008
43.675,-0.016
43.680,-0.014
43.685,-0.012
43.690,-0.013
43.695,-0.022
43.700,-0.020
43.705,-0.024
43.710,-0.039
43.715,-0.036
43.720,-0.036
43.725,-0.039
43.730,-0.029
43.735,-0.028
43.740,-0.027
43.745,-0.024
43.750,-0.026
43.755,-0.020
43.760,-0.021
43.765,-0.027
43.770,-0.035
43.775,-0.037
43.780,-0.036
43.785,-0.041
43.790,-0.040
43.795,-0.038
43.800,-0.039
43.805,-0.044
43.810,-0.051
43.815,-0.046
43.820,-0.047
43.825,-0.054
43.830,-0.063
43.835,-0.079
43.840,-0.089
43.845,-0.091
43.850,-0.086
43.855,-0.079
43.860,-0.090
43.865,-0.116
43.870,-0.138
43.875,-0.126
43.880,-0.097
43.885,-0.088
43.890,-0.080
43.895,-0.064
43.900,-0.042
43.905,-0.037
43.910,-0.055
43.915,-0.056
43.920,-0.032
43.925,-0.003
43.930,0.016
43.935,0.030
43.940,0.043
43.945,0.038
43.950,0.029
43.955,0.033
43.960,0.034
43.965,0.040
43.970,0.036
43.975,0.025
43.980,0.019
43.985,0.013
43.990,0.019
43.995,0.023
44.000,0.019
44.005,0.013
44.010,0.002
44.015,-0.006
44.020,-0.009
44.025,-0.011
44.030,-0.036
44.035,-0.118
44.040,-0.277
44.045,-0.489
44.050,-0.715
44.055,-1.005
44.060,-1.318
44.065,-1.332
44.070,-0.890
44.075,-0.282
44.080,0.157
44.085,0.318
44.090,0.310
44.095,0.296
44.100,0.307
44.105,0.325
44.110,0.353
44.115,0.351
44.120,0.303
44.125,0.289
44.130,0.302
44.135,0.285
44.140,0.277
44.145,0.282
44.150,0.268
44.155,0.241
44.160,0.217
44.165,0.206
44.170,0.194
44.175,0.189
44.180,0.190
44.185,0.178
44.190,0.166
44.195,0.152
44.200,0.136
44.205,0.125
44.210,0.112
44.215,0.106
44.220,0.098
44.225,0.089
44.230,0.078
44.235,0.063
44.240,0.055
44.245,0.042
44.250,0.026
44.255,0.014
44.260,0.001
44.265,-0.003
44.270,-0.007
44.275,-0.018
44.280,-0.037
44.285,-0.063
44.290,-0.084
44.295,-0.105
44.300,-0.119
44.305,-0.125
44.310,-0.135
44.315,-0.143
44.320,-0.158
44.325,-0.177
44.330,-0.181
44.335,-0.178
44.340,-0.166
44.345,-0.154
44.350,-0.146
44.355,-0.125
44.360,-0.100
44.365,-0.072
44.370,-0.036
44.375,0.005
44.380,0.040
44.385,0.067
44.390,0.093
44.395,0.116
44.400,0.133
44.405,0.149
44.410,0.159
44.415,0.168
44.420,0.168
44.425,0.163
44.430,0.165
44.435,0.160
44.440,0.151
44.445,0.147
44.450,0.147
44.455,0.142
44.460,0.134
44.465,0.132
44.470,0.127
44.475,0.121
44.480,0.116
44.485,0.104
44.490,0.089
44.495,0.079
44.500,0.080
44.505,0.084
44.510,0.075
44.515,0.062
44.520,0.051
44.525,0.044
44.530,0.043
44.535,0.038
44.540,0.033
44.545,0.019
44.550,0.004
44.555,0.000
44.560,-0.003
44.565,-0.005
44.570,-0.011
44.575,-0.018
44.580,-0.023
44.585,-0.027
44.590,-0.028
44.595,-0.038
44.600,-0.041
44.605,-0.041
44.610,-0.049
44.615,-0.047
44.620,-0.048
44.625,-0.050
44.630,-0.045
44.635,-0.046
44.640,-0.044
44.645,-0.046
44.650,-0.048
44.655,-0.045
44.660,-0.047
44.665,-0.041
44.670,-0.035
44.675,-0.036
44.680,-0.038
44.685,-0.042
44.690,-0.039
44.695,-0.041
44.700,-0.039
44.705,-0.032
44.710,-0.040
44.715,-0.041
44.720,-0.044
44.725,-0.050
44.730,-0.055
44.735,-0.069
44.740,-0.079
44.745,-0.083
44.750,-0.082
44.755,-0.079
44.760,-0.082
44.765,-0.096
44.770,-0.122
44.775,-0.125
44.780,-0.099
44.785,-0.084
44.790,-0.077
44.795,-0.065
44.800,-0.046
44.805,-0.030
44.810,-0.032
44.815,-0.037
44.820,-0.024
44.825,-0.001
44.830,0.015
44.835,0.028
44.840,0.051
44.845,0.065
44.850,0.064
44.855,0.057
44.860,0.041
44.865,0.033
44.870,0.041
44.875,0.051
44.880,0.049
44.885,0.043
44.890,0.045
44.895,0.045
44.900,0.040
44.905,0.038
44.910,0.036
44.915,0.035
44.920,0.024
44.925,0.005
44.930,-0.025
44.935,-0.099
44.940,-0.243
44.945,-0.442
44.950,-0.650
44.955,-0.908
44.960,-1.241
44.965,-1.394
44.970,-1.096
44.975,-0.502
44.980,0.019
44.985,0.287
44.990,0.353
44.995,0.340
45.000,0.334
45.005,0.340
45.010,0.360
45.015,0.383
45.020,0.349
45.025,0.315
45.030,0.329
45.035,0.314
45.040,0.286
45.045,0.285
45.050,0.275
45.055,0.256
45.060,0.250
45.065,0.243
45.070,0.218
45.075,0.204
45.080,0.204
45.085,0.194
45.090,0.185
45.095,0.171
45.100,0.153
45.105,0.140
45.110,0.125
45.115,0.117
45.120,0.109
45.125,0.103
45.130,0.099
45.135,0.087
45.140,0.076
45.145,0.063
45.150,0.050
45.155,0.034
45.160,0.012
45.165,0.006
45.170,-0.002
45.175,-0.022
45.180,-0.042
45.185,-0.061
45.190,-0.073
45.195,-0.086
45.200,-0.107
45.205,-0.127
45.210,-0.147
45.215,-0.157
45.220,-0.162
