'Elapsed time','ECG'
'seconds','mV'
0.000,-0.005
0.005,-0.036
0.010,-0.028
0.015,-0.021
0.020,-0.023
0.025,-0.018
0.030,-0.023
0.035,-0.025
0.040,-0.021
0.045,-0.023
0.050,-0.022
0.055,-0.016
0.060,-0.018
0.065,-0.023
0.070,-0.018
0.075,-0.005
0.080,-0.002
0.085,-0.002
0.090,0.006
0.095,0.011
0.100,0.015
0.105,0.021
0.110,0.025
0.115,0.031
0.120,0.032
0.125,0.029
0.130,0.028
0.135,0.024
0.140,0.019
0.145,0.015
0.150,0.012
0.155,0.013
0.160,0.016
0.165,0.018
0.170,0.012
0.175,0.002
0.180,0.000
0.185,0.001
0.190,0.002
0.195,0.001
0.200,0.000
0.205,0.000
0.210,0.002
0.215,0.006
0.220,0.007
0.225,0.009
0.230,0.009
0.235,0.009
0.240,0.007
0.245,0.002
0.250,0.008
0.255,0.011
0.260,0.006
0.265,0.004
0.270,0.000
0.275,-0.001
0.280,-0.002
0.285,-0.007
0.290,-0.008
0.295,-0.005
0.300,-0.005
0.305,-0.008
0.310,-0.010
0.315,-0.008
0.320,-0.006
0.325,-0.004
0.330,-0.006
0.335,-0.011
0.340,-0.014
0.345,-0.016
0.350,-0.017
0.355,-0.012
0.360,-0.010
0.365,-0.010
0.370,-0.005
0.375,-0.007
0.380,-0.009
0.385,-0.007
0.390,-0.011
0.395,-0.012
0.400,-0.005
0.405,-0.004
0.410,-0.009
0.415,-0.012
0.420,-0.012
0.425,-0.006
0.430,-0.006
0.435,-0.010
0.440,-0.005
0.445,-0.001
0.450,-0.001
0.455,-0.002
0.460,-0.001
0.465,-0.002
0.470,-0.004
0.475,-0.004
0.480,-0.006
0.485,-0.004
0.490,0.001
0.495,0.000
0.500,-0.006
0.505,-0.009
0.510,-0.007
0.515,-0.001
0.520,-0.003
0.525,-0.004
0.530,0.002
0.535,0.004
0.540,0.000
0.545,-0.002
0.550,0.004
0.555,0.007
0.560,0.009
0.565,0.022
0.570,0.031
0.575,0.036
0.580,0.040
0.585,0.049
0.590,0.057
0.595,0.056
0.600,0.062
0.605,0.066
0.610,0.047
0.615,0.015
0.620,-0.012
0.625,-0.024
0.630,-0.035
0.635,-0.048
0.640,-0.042
0.645,-0.031
0.650,-0.029
0.655,-0.033
0.660,-0.037
0.665,-0.041
0.670,-0.047
0.675,-0.045
0.680,-0.036
0.685,-0.032
0.690,-0.029
0.695,-0.027
0.700,-0.024
0.705,-0.019
0.710,-0.013
0.715,-0.007
0.720,-0.005
0.725,-0.006
0.730,-0.004
0.735,-0.019
0.740,-0.060
0.745,-0.092
0.750,-0.104
0.755,-0.119
0.760,-0.114
0.765,-0.031
0.770,0.188
0.775,0.435
0.780,0.477
0.785,0.331
0.790,0.165
0.795,0.015
0.800,-0.102
0.805,-0.146
0.810,-0.125
0.815,-0.061
0.820,-0.029
0.825,-0.043
0.830,-0.032
0.835,-0.017
0.840,-0.028
0.845,-0.036
0.850,-0.027
0.855,-0.027
0.860,-0.031
0.865,-0.024
0.870,-0.026
0.875,-0.032
0.880,-0.022
0.885,-0.011
0.890,-0.015
0.895,-0.020
0.900,-0.022
0.905,-0.022
0.910,-0.021
0.915,-0.022
0.920,-0.020
0.925,-0.017
0.930,-0.020
0.935,-0.021
0.940,-0.019
0.945,-0.017
0.950,-0.017
0.955,-0.016
0.960,-0.012
0.965,-0.011
0.970,-0.017
0.975,-0.019
0.980,-0.016
0.985,-0.017
0.990,-0.015
0.995,-0.009
1.000,-0.006
1.005,-0.009
1.010,-0.011
1.015,-0.004
1.020,0.000
1.025,0.002
1.030,0.005
1.035,0.006
1.040,0.011
1.045,0.017
1.050,0.025
1.055,0.037
1.060,0.041
1.065,0.041
1.070,0.038
1.075,0.037
1.080,0.037
1.085,0.034
1.090,0.033
1.095,0.027
1.100,0.019
1.105,0.014
1.110,0.009
1.115,0.013
1.120,0.017
1.125,0.018
1.130,0.018
1.135,0.014
1.140,0.015
1.145,0.014
1.150,0.009
1.155,0.008
1.160,0.010
1.165,0.013
1.170,0.011
1.175,0.008
1.180,0.011
1.185,0.012
1.190,0.010
1.195,0.009
1.200,0.006
1.205,0.006
1.210,0.008
1.215,0.001
1.220,-0.003
1.225,-0.001
1.230,-0.005
1.235,-0.007
1.240,-0.007
1.245,-0.011
1.250,-0.007
1.255,-0.005
1.260,-0.013
1.265,-0.014
1.270,-0.012
1.275,-0.012
1.280,-0.012
1.285,-0.015
1.290,-0.018
1.295,-0.014
1.300,-0.010
1.305,-0.013
1.310,-0.015
1.315,-0.013
1.320,-0.014
1.325,-0.012
1.330,-0.011
1.335,-0.009
1.340,-0.003
1.345,-0.007
1.350,-0.010
1.355,-0.010
1.360,-0.011
1.365,-0.006
1.370,-0.008
1.375,-0.009
1.380,-0.006
1.385,-0.008
1.390,-0.007
1.395,-0.004
1.400,-0.004
1.405,-0.005
1.410,-0.012
1.415,-0.013
1.420,-0.007
1.425,-0.007
1.430,-0.004
1.435,0.001
1.440,0.000
1.445,-0.004
1.450,-0.006
1.455,-0.003
1.460,0.002
1.465,0.000
1.470,-0.004
1.475,0.000
1.480,0.002
1.485,-0.001
1.490,-0.002
1.495,0.000
1.500,0.004
1.505,0.003
1.510,0.009
1.515,0.027
1.520,0.038
1.525,0.040
1.530,0.045
1.535,0.052
1.540,0.062
1.545,0.067
1.550,0.068
1.555,0.060
1.560,0.032
1.565,0.006
1.570,-0.013
1.575,-0.031
1.580,-0.046
1.585,-0.058
1.590,-0.058
1.595,-0.040
1.600,-0.034
1.605,-0.039
1.610,-0.040
1.615,-0.044
1.620,-0.044
1.625,-0.039
1.630,-0.038
1.635,-0.033
1.640,-0.026
1.645,-0.026
1.650,-0.024
1.655,-0.014
1.660,-0.008
1.665,-0.007
1.670,-0.008
1.675,-0.005
1.680,-0.003
1.685,-0.026
1.690,-0.059
1.695,-0.079
1.700,-0.097
1.705,-0.121
1.710,-0.105
1.715,0.003
1.720,0.220
1.725,0.394
1.730,0.340
1.735,0.160
1.740,-0.019
1.745,-0.139
1.750,-0.150
1.755,-0.122
1.760,-0.064
1.765,-0.005
1.770,0.003
1.775,0.000
1.780,0.004
1.785,0.004
1.790,0.004
1.795,0.005
1.800,0.007
1.805,0.005
1.810,0.005
1.815,0.012
1.820,0.012
1.825,0.008
1.830,0.009
1.835,0.010
1.840,0.008
1.845,0.009
1.850,0.015
1.855,0.013
1.860,0.010
1.865,0.011
1.870,0.009
1.875,0.012
1.880,0.012
1.885,0.007
1.890,0.007
1.895,0.011
1.900,0.015
1.905,0.016
1.910,0.016
1.915,0.014
1.920,0.012
1.925,0.017
1.930,0.022
1.935,0.026
1.940,0.025
1.945,0.020
1.950,0.020
1.955,0.019
1.960,0.019
1.965,0.023
1.970,0.024
1.975,0.025
1.980,0.024
1.985,0.023
1.990,0.025
1.995,0.022
2.000,0.018
2.005,0.012
2.010,0.007
2.015,0.007
2.020,0.004
2.025,-0.003
2.030,-0.006
2.035,-0.010
2.040,-0.015
2.045,-0.017
2.050,-0.021
2.055,-0.024
2.060,-0.023
2.065,-0.021
2.070,-0.022
2.075,-0.023
2.080,-0.027
2.085,-0.030
2.090,-0.028
2.095,-0.024
2.100,-0.020
2.105,-0.018
2.110,-0.020
2.115,-0.021
2.120,-0.020
2.125,-0.016
2.130,-0.013
2.135,-0.014
2.140,-0.012
2.145,-0.012
2.150,-0.008
2.155,-0.004
2.160,-0.007
2.165,-0.008
2.170,-0.009
2.175,-0.007
2.180,-0.004
2.185,-0.007
2.190,-0.009
2.195,-0.008
2.200,-0.008
2.205,-0.008
2.210,-0.009
2.215,-0.014
2.220,-0.014
2.225,-0.012
2.230,-0.014
2.235,-0.017
2.240,-0.019
2.245,-0.019
2.250,-0.013
2.255,-0.012
2.260,-0.018
2.265,-0.018
2.270,-0.016
2.275,-0.013
2.280,-0.008
2.285,-0.010
2.290,-0.014
2.295,-0.015
2.300,-0.014
2.305,-0.010
2.310,-0.007
2.315,-0.008
2.320,-0.006
2.325,-0.004
2.330,-0.005
2.335,-0.006
2.340,-0.005
2.345,-0.006
2.350,-0.009
2.355,-0.006
2.360,0.002
2.365,0.003
2.370,-0.001
2.375,-0.002
2.380,-0.001
2.385,0.001
2.390,0.003
2.395,0.001
2.400,0.001
2.405,0.001
2.410,0.001
2.415,-0.001
2.420,-0.001
2.425,0.004
2.430,0.006
2.435,0.002
2.440,0.001
2.445,0.004
2.450,0.007
2.455,0.003
2.460,-0.001
2.465,0.005
2.470,0.011
2.475,0.018
2.480,0.029
2.485,0.036
2.490,0.039
2.495,0.045
2.500,0.054
2.505,0.063
2.510,0.070
2.515,0.077
2.520,0.077
2.525,0.061
2.530,0.035
2.535,0.010
2.540,-0.011
2.545,-0.034
2.550,-0.051
2.555,-0.054
2.560,-0.047
2.565,-0.033
2.570,-0.031
2.575,-0.034
2.580,-0.035
2.585,-0.040
2.590,-0.040
2.595,-0.035
2.600,-0.032
2.605,-0.027
2.610,-0.018
2.615,-0.008
2.620,-0.005
2.625,-0.003
2.630,-0.002
2.635,-0.003
2.640,-0.003
2.645,-0.005
2.650,-0.006
2.655,-0.021
2.660,-0.055
2.665,-0.078
2.670,-0.106
2.675,-0.138
2.680,-0.121
2.685,-0.020
2.690,0.200
2.695,0.393
2.700,0.361
2.705,0.200
2.710,0.025
2.715,-0.105
2.720,-0.132
2.725,-0.111
2.730,-0.061
2.735,-0.007
2.740,0.000
2.745,-0.013
2.750,-0.008
2.755,0.000
2.760,-0.002
2.765,0.006
2.770,0.010
2.775,0.004
2.780,0.004
2.785,0.005
2.790,0.005
2.795,0.003
2.800,0.005
2.805,0.005
2.810,-0.002
2.815,0.001
2.820,0.006
2.825,0.009
2.830,0.008
2.835,0.002
2.840,0.001
2.845,0.004
2.850,0.011
2.855,0.011
2.860,0.002
2.865,0.001
2.870,0.004
2.875,0.007
2.880,0.010
2.885,0.014
2.890,0.016
2.895,0.010
2.900,0.011
2.905,0.014
2.910,0.011
2.915,0.011
2.920,0.010
2.925,0.012
2.930,0.013
2.935,0.009
2.940,0.007
2.945,0.010
2.950,0.018
2.955,0.026
2.960,0.026
2.965,0.025
2.970,0.029
2.975,0.037
2.980,0.038
2.985,0.031
2.990,0.025
2.995,0.018
3.000,0.013
3.005,0.012
3.010,0.007
3.015,0.002
3.020,-0.003
3.025,-0.006
3.030,-0.007
3.035,-0.008
3.040,-0.006
3.045,-0.006
3.050,-0.008
3.055,-0.007
3.060,-0.008
3.065,-0.010
3.070,-0.014
3.075,-0.012
3.080,-0.006
3.085,-0.009
3.090,-0.010
3.095,-0.009
3.100,-0.007
3.105,-0.005
3.110,-0.005
3.115,-0.005
3.120,-0.006
3.125,-0.006
3.130,-0.006
3.135,-0.004
3.140,0.000
3.145,-0.002
3.150,-0.003
3.155,-0.004
3.160,-0.009
3.165,-0.011
3.170,-0.013
3.175,-0.013
3.180,-0.008
3.185,-0.011
3.190,-0.011
3.195,-0.009
3.200,-0.011
3.205,-0.015
3.210,-0.015
3.215,-0.011
3.220,-0.014
3.225,-0.021
3.230,-0.023
3.235,-0.019
3.240,-0.013
3.245,-0.014
3.250,-0.014
3.255,-0.012
3.260,-0.010
3.265,-0.010
3.270,-0.019
3.275,-0.021
3.280,-0.013
3.285,-0.009
3.290,-0.002
3.295,-0.006
3.300,-0.012
3.305,-0.009
3.310,-0.010
3.315,-0.009
3.320,-0.007
3.325,-0.009
3.330,-0.006
3.335,-0.001
3.340,-0.001
3.345,-0.001
3.350,-0.005
3.355,-0.007
3.360,-0.004
3.365,0.000
3.370,-0.002
3.375,-0.006
3.380,-0.006
3.385,-0.004
3.390,0.001
3.395,0.001
3.400,-0.005
3.405,-0.002
3.410,0.003
3.415,0.000
3.420,-0.001
3.425,0.006
3.430,0.020
3.435,0.030
3.440,0.033
3.445,0.035
3.450,0.040
3.455,0.052
3.460,0.063
3.465,0.065
3.470,0.063
3.475,0.049
3.480,0.021
3.485,-0.004
3.490,-0.019
3.495,-0.033
3.500,-0.039
3.505,-0.046
3.510,-0.048
3.515,-0.042
3.520,-0.037
3.525,-0.032
3.530,-0.032
3.535,-0.040
3.540,-0.043
3.545,-0.042
3.550,-0.034
3.555,-0.024
3.560,-0.019
3.565,-0.014
3.570,-0.017
3.575,-0.016
3.580,-0.009
3.585,-0.009
3.590,-0.007
3.595,-0.005
3.600,-0.014
3.605,-0.049
3.610,-0.090
3.615,-0.102
3.620,-0.119
3.625,-0.135
3.630,-0.086
3.635,0.092
3.640,0.367
3.645,0.505
3.650,0.409
3.655,0.244
3.660,0.091
3.665,-0.047
3.670,-0.131
3.675,-0.152
3.680,-0.098
3.685,-0.037
3.690,-0.039
3.695,-0.049
3.700,-0.035
3.705,-0.033
3.710,-0.036
3.715,-0.030
3.720,-0.029
3.725,-0.031
3.730,-0.024
3.735,-0.022
3.740,-0.031
3.745,-0.036
3.750,-0.024
3.755,-0.018
3.760,-0.025
3.765,-0.026
3.770,-0.023
3.775,-0.020
3.780,-0.018
3.785,-0.020
3.790,-0.022
3.795,-0.019
3.800,-0.017
3.805,-0.019
3.810,-0.015
3.815,-0.013
3.820,-0.014
3.825,-0.014
3.830,-0.018
3.835,-0.021
3.840,-0.020
3.845,-0.021
3.850,-0.014
3.855,-0.007
3.860,-0.008
3.865,-0.009
3.870,-0.008
3.875,-0.006
3.880,-0.004
3.885,-0.006
3.890,-0.005
3.895,0.001
3.900,0.007
3.905,0.009
3.910,0.012
3.915,0.018
3.920,0.031
3.925,0.048
3.930,0.051
3.935,0.045
3.940,0.045
3.945,0.045
3.950,0.043
3.955,0.036
3.960,0.029
3.965,0.028
3.970,0.026
3.975,0.027
3.980,0.029
3.985,0.026
3.990,0.019
3.995,0.012
4.000,0.012
4.005,0.016
4.010,0.017
4.015,0.014
4.020,0.015
4.025,0.018
4.030,0.016
4.035,0.015
4.040,0.019
4.045,0.018
4.050,0.015
4.055,0.010
4.060,0.006
4.065,0.006
4.070,0.003
4.075,0.004
4.080,0.006
4.085,-0.001
4.090,-0.006
4.095,-0.008
4.100,-0.006
4.105,-0.006
4.110,-0.011
4.115,-0.012
4.120,-0.013
4.125,-0.016
4.130,-0.016
4.135,-0.015
4.140,-0.010
4.145,-0.009
4.150,-0.012
4.155,-0.015
4.160,-0.016
4.165,-0.010
4.170,-0.006
4.175,-0.011
4.180,-0.012
4.185,-0.013
4.190,-0.013
4.195,-0.010
4.200,-0.008
4.205,-0.004
4.210,-0.003
4.215,-0.006
4.220,-0.013
4.225,-0.015
4.230,-0.012
4.235,-0.009
4.240,-0.006
4.245,-0.010
4.250,-0.013
4.255,-0.004
4.260,-0.001
4.265,-0.003
4.270,-0.005
4.275,-0.003
4.280,-0.005
4.285,-0.008
4.290,-0.008
4.295,-0.006
4.300,-0.004
4.305,-0.003
4.310,-0.006
4.315,-0.006
4.320,-0.006
4.325,-0.005
4.330,0.001
4.335,-0.001
4.340,-0.004
4.345,0.000
4.350,0.001
4.355,0.001
4.360,-0.003
4.365,-0.005
4.370,-0.002
4.375,0.006
4.380,0.019
4.385,0.026
4.390,0.033
4.395,0.042
4.400,0.047
4.405,0.052
4.410,0.061
4.415,0.068
4.420,0.066
4.425,0.049
4.430,0.022
4.435,-0.005
4.440,-0.024
4.445,-0.035
4.450,-0.041
4.455,-0.044
4.460,-0.042
4.465,-0.040
4.470,-0.039
4.475,-0.041
4.480,-0.043
4.485,-0.042
4.490,-0.042
4.495,-0.042
4.500,-0.036
4.505,-0.028
4.510,-0.022
4.515,-0.021
4.520,-0.022
4.525,-0.018
4.530,-0.010
4.535,-0.006
4.540,-0.005
4.545,-0.008
4.550,-0.020
4.555,-0.053
4.560,-0.079
4.565,-0.088
4.570,-0.115
4.575,-0.124
4.580,-0.059
4.585,0.127
4.590,0.373
4.595,0.444
4.600,0.302
4.605,0.121
4.610,-0.039
4.615,-0.137
4.620,-0.148
4.625,-0.118
4.630,-0.051
4.635,-0.009
4.640,-0.019
4.645,-0.017
4.650,-0.005
4.655,-0.014
4.660,-0.017
4.665,-0.007
4.670,-0.009
4.675,-0.014
4.680,-0.013
4.685,-0.012
4.690,-0.012
4.695,-0.011
4.700,-0.008
4.705,-0.010
4.710,-0.011
4.715,-0.009
4.720,-0.008
4.725,-0.008
4.730,-0.006
4.735,-0.007
4.740,-0.004
4.745,-0.001
4.750,-0.003
4.755,0.001
4.760,0.000
4.765,-0.005
4.770,-0.005
4.775,-0.001
4.780,0.001
4.785,0.006
4.790,0.008
4.795,0.006
4.800,0.009
4.805,0.010
4.810,0.013
4.815,0.016
4.820,0.010
4.825,0.007
4.830,0.013
4.835,0.016
4.840,0.017
4.845,0.017
4.850,0.019
4.855,0.023
4.860,0.021
4.865,0.021
4.870,0.025
4.875,0.028
4.880,0.029
4.885,0.024
4.890,0.022
4.895,0.015
4.900,0.012
4.905,0.012
4.910,0.007
4.915,0.004
4.920,-0.003
4.925,-0.008
4.930,-0.004
4.935,-0.002
4.940,-0.002
4.945,-0.006
4.950,-0.008
4.955,-0.008
4.960,-0.004
4.965,-0.001
4.970,-0.004
4.975,-0.004
4.980,-0.001
4.985,-0.001
4.990,0.003
4.995,0.003
5.000,0.000
5.005,0.000
5.010,0.001
5.015,0.004
5.020,0.002
5.025,0.000
5.030,0.002
5.035,0.001
5.040,0.000
5.045,0.000
5.050,-0.002
5.055,-0.001
5.060,-0.004
5.065,-0.009
5.070,-0.009
5.075,-0.010
5.080,-0.008
5.085,-0.003
5.090,-0.005
5.095,-0.013
5.100,-0.019
5.105,-0.017
5.110,-0.011
5.115,-0.008
5.120,-0.011
5.125,-0.012
5.130,-0.011
5.135,-0.011
5.140,-0.011
5.145,-0.011
5.150,-0.007
5.155,-0.005
5.160,-0.009
5.165,-0.008
5.170,-0.007
5.175,-0.008
5.180,-0.009
5.185,-0.011
5.190,-0.010
5.195,-0.007
5.200,-0.006
5.205,-0.008
5.210,-0.011
5.215,-0.010
5.220,-0.006
5.225,-0.002
5.230,-0.008
5.235,-0.009
5.240,-0.005
5.245,-0.007
5.250,-0.011
5.255,-0.010
5.260,-0.002
5.265,0.001
5.270,-0.007
5.275,-0.007
5.280,-0.002
5.285,0.000
5.290,-0.003
5.295,-0.006
5.300,-0.004
5.305,-0.004
5.310,-0.005
5.315,0.001
5.320,0.000
5.325,-0.003
5.330,-0.004
5.335,-0.004
5.340,0.000
5.345,-0.002
5.350,-0.005
5.355,0.000
5.360,0.006
5.365,0.016
5.370,0.023
5.375,0.028
5.380,0.039
5.385,0.047
5.390,0.054
5.395,0.063
5.400,0.069
5.405,0.066
5.410,0.051
5.415,0.027
5.420,0.004
5.425,-0.011
5.430,-0.031
5.435,-0.053
5.440,-0.060
5.445,-0.053
5.450,-0.040
5.455,-0.032
5.460,-0.031
5.465,-0.035
5.470,-0.039
5.475,-0.037
5.480,-0.032
5.485,-0.029
5.490,-0.026
5.495,-0.022
5.500,-0.018
5.505,-0.012
5.510,-0.009
5.515,-0.003
5.520,0.001
5.525,-0.002
5.530,-0.004
5.535,-0.003
5.540,-0.019
5.545,-0.053
5.550,-0.076
5.555,-0.103
5.560,-0.135
5.565,-0.115
5.570,-0.007
5.575,0.213
5.580,0.393
5.585,0.345
5.590,0.178
5.595,0.003
5.600,-0.118
5.605,-0.127
5.610,-0.100
5.615,-0.048
5.620,0.002
5.625,0.005
5.630,0.003
5.635,0.008
5.640,0.009
5.645,0.005
5.650,0.008
5.655,0.013
5.660,0.009
5.665,0.008
5.670,0.013
5.675,0.013
5.680,0.008
5.685,0.008
5.690,0.008
5.695,0.007
5.700,0.009
5.705,0.013
5.710,0.012
5.715,0.010
5.720,0.007
5.725,0.006
5.730,0.007
5.735,0.006
5.740,0.006
5.745,0.008
5.750,0.009
5.755,0.007
5.760,0.006
5.765,0.010
5.770,0.013
5.775,0.013
5.780,0.012
5.785,0.012
5.790,0.017
5.795,0.018
5.800,0.018
5.805,0.019
5.810,0.016
5.815,0.013
5.820,0.014
5.825,0.018
5.830,0.026
5.835,0.025
5.840,0.020
5.845,0.020
5.850,0.017
5.855,0.015
5.860,0.021
5.865,0.021
5.870,0.013
5.875,0.010
5.880,0.010
5.885,0.007
5.890,0.001
5.895,-0.010
5.900,-0.016
5.905,-0.015
5.910,-0.018
5.915,-0.023
5.920,-0.020
5.925,-0.015
5.930,-0.016
5.935,-0.021
5.940,-0.025
5.945,-0.028
5.950,-0.025
5.955,-0.019
5.960,-0.017
5.965,-0.016
5.970,-0.014
5.975,-0.016
5.980,-0.016
5.985,-0.014
5.990,-0.014
5.995,-0.011
6.000,-0.008
6.005,-0.007
6.010,-0.008
6.015,-0.009
6.020,-0.013
6.025,-0.012
6.030,-0.005
6.035,-0.003
6.040,-0.004
6.045,-0.004
6.050,-0.007
6.055,-0.010
6.060,-0.009
6.065,-0.007
6.070,-0.011
6.075,-0.012
6.080,-0.012
6.085,-0.012
6.090,-0.008
6.095,-0.008
6.100,-0.010
6.105,-0.012
6.110,-0.019
6.115,-0.021
6.120,-0.013
6.125,-0.007
6.130,-0.010
6.135,-0.014
6.140,-0.009
6.145,-0.006
6.150,-0.010
6.155,-0.009
6.160,-0.009
6.165,-0.007
6.170,-0.006
6.175,-0.009
6.180,-0.010
6.185,-0.007
6.190,-0.001
6.195,0.000
6.200,-0.005
6.205,-0.006
6.210,-0.006
6.215,-0.007
6.220,-0.007
6.225,-0.006
6.230,0.000
6.235,0.003
6.240,-0.001
6.245,-0.001
6.250,-0.001
6.255,-0.002
6.260,-0.002
6.265,-0.001
6.270,0.000
6.275,0.001
6.280,0.001
6.285,0.002
6.290,0.000
6.295,-0.003
6.300,0.000
6.305,0.001
6.310,-0.001
6.315,0.003
6.320,0.003
6.325,0.004
6.330,0.010
6.335,0.006
6.340,0.007
6.345,0.015
6.350,0.023
6.355,0.033
6.360,0.038
6.365,0.041
6.370,0.046
6.375,0.053
6.380,0.061
6.385,0.066
6.390,0.066
6.395,0.046
6.400,0.015
6.405,-0.003
6.410,-0.017
6.415,-0.036
6.420,-0.048
6.425,-0.050
6.430,-0.041
6.435,-0.028
6.440,-0.028
6.445,-0.034
6.450,-0.038
6.455,-0.044
6.460,-0.045
6.465,-0.033
6.470,-0.026
6.475,-0.023
6.480,-0.016
6.485,-0.016
6.490,-0.011
6.495,-0.004
6.500,-0.005
6.505,-0.004
6.510,-0.001
6.515,-0.003
6.520,-0.018
6.525,-0.054
6.530,-0.084
6.535,-0.105
6.540,-0.128
6.545,-0.125
6.550,-0.050
6.555,0.155
6.560,0.403
6.565,0.468
6.570,0.336
6.575,0.167
6.580,0.013
6.585,-0.094
6.590,-0.129
6.595,-0.115
6.600,-0.059
6.605,-0.022
6.610,-0.031
6.615,-0.024
6.620,-0.011
6.625,-0.023
6.630,-0.026
6.635,-0.018
6.640,-0.024
6.645,-0.029
6.650,-0.021
6.655,-0.020
6.660,-0.027
6.665,-0.022
6.670,-0.013
6.675,-0.012
6.680,-0.014
6.685,-0.014
6.690,-0.011
6.695,-0.014
6.700,-0.018
6.705,-0.017
6.710,-0.013
6.715,-0.008
6.720,-0.007
6.725,-0.012
6.730,-0.013
6.735,-0.014
6.740,-0.016
6.745,-0.014
6.750,-0.013
6.755,-0.008
6.760,-0.006
6.765,-0.008
6.770,-0.008
6.775,-0.005
6.780,-0.004
6.785,-0.008
6.790,-0.008
6.795,-0.005
6.800,-0.004
6.805,-0.005
6.810,-0.002
6.815,0.009
6.820,0.016
6.825,0.016
6.830,0.020
6.835,0.030
6.840,0.039
6.845,0.040
6.850,0.038
6.855,0.039
6.860,0.037
6.865,0.033
6.870,0.030
6.875,0.029
6.880,0.024
6.885,0.022
6.890,0.019
6.895,0.014
6.900,0.015
6.905,0.014
6.910,0.014
6.915,0.013
6.920,0.005
6.925,0.006
6.930,0.012
6.935,0.012
6.940,0.014
6.945,0.010
6.950,0.004
6.955,0.006
6.960,0.007
6.965,0.010
6.970,0.012
6.975,0.009
6.980,0.006
6.985,0.003
6.990,0.001
6.995,0.001
7.000,0.001
7.005,-0.001
7.010,-0.005
7.015,-0.007
7.020,-0.006
7.025,-0.008
7.030,-0.012
7.035,-0.013
7.040,-0.014
7.045,-0.012
7.050,-0.012
7.055,-0.017
7.060,-0.022
7.065,-0.023
7.070,-0.017
7.075,-0.013
7.080,-0.011
7.085,-0.014
7.090,-0.016
7.095,-0.019
7.100,-0.026
7.105,-0.023
7.110,-0.010
7.115,-0.010
7.120,-0.012
7.125,-0.012
7.130,-0.010
7.135,-0.009
7.140,-0.014
7.145,-0.016
7.150,-0.014
7.155,-0.010
7.160,-0.010
7.165,-0.012
7.170,-0.015
7.175,-0.011
7.180,-0.007
7.185,-0.006
7.190,-0.004
7.195,-0.002
7.200,-0.001
7.205,-0.005
7.210,-0.009
7.215,-0.008
7.220,-0.008
7.225,-0.011
7.230,-0.007
7.235,-0.002
7.240,-0.004
7.245,-0.006
7.250,-0.008
7.255,-0.004
7.260,-0.001
7.265,-0.004
7.270,-0.005
7.275,-0.004
7.280,-0.002
7.285,-0.002
7.290,-0.002
7.295,-0.001
7.300,-0.001
7.305,0.002
7.310,0.008
7.315,0.018
7.320,0.029
7.325,0.034
7.330,0.036
7.335,0.042
7.340,0.054
7.345,0.063
7.350,0.066
7.355,0.059
7.360,0.035
7.365,0.009
7.370,-0.010
7.375,-0.020
7.380,-0.030
7.385,-0.044
7.390,-0.049
7.395,-0.043
7.400,-0.037
7.405,-0.032
7.410,-0.031
7.415,-0.036
7.420,-0.043
7.425,-0.043
7.430,-0.038
7.435,-0.034
7.440,-0.029
7.445,-0.023
7.450,-0.019
7.455,-0.016
7.460,-0.016
7.465,-0.010
7.470,-0.007
7.475,-0.008
7.480,-0.008
7.485,-0.024
7.490,-0.064
7.495,-0.093
7.500,-0.102
7.505,-0.118
7.510,-0.107
7.515,-0.011
7.520,0.216
7.525,0.448
7.530,0.460
7.535,0.308
7.540,0.141
7.545,-0.013
7.550,-0.118
7.555,-0.145
7.560,-0.116
7.565,-0.053
7.570,-0.030
7.575,-0.040
7.580,-0.029
7.585,-0.025
7.590,-0.034
7.595,-0.031
7.600,-0.024
7.605,-0.029
7.610,-0.033
7.615,-0.023
7.620,-0.017
7.625,-0.024
7.630,-0.023
7.635,-0.020
7.640,-0.022
7.645,-0.018
7.650,-0.011
7.655,-0.012
7.660,-0.018
7.665,-0.018
7.670,-0.013
7.675,-0.010
7.680,-0.011
7.685,-0.012
7.690,-0.011
7.695,-0.008
7.700,-0.011
7.705,-0.015
7.710,-0.009
7.715,-0.005
7.720,-0.010
7.725,-0.012
7.730,-0.007
7.735,-0.004
7.740,-0.003
7.745,-0.004
7.750,-0.004
7.755,-0.001
7.760,-0.001
7.765,0.001
7.770,0.006
7.775,0.010
7.780,0.012
7.785,0.013
7.790,0.014
7.795,0.017
7.800,0.025
7.805,0.029
7.810,0.029
7.815,0.033
7.820,0.036
7.825,0.031
7.830,0.025
7.835,0.022
7.840,0.020
7.845,0.017
7.850,0.013
7.855,0.012
7.860,0.015
7.865,0.015
7.870,0.009
7.875,0.007
7.880,0.006
7.885,-0.001
7.890,0.001
7.895,0.009
7.900,0.011
7.905,0.009
7.910,0.006
7.915,0.006
7.920,0.006
7.925,0.003
7.930,0.002
7.935,0.005
7.940,0.008
7.945,0.007
7.950,0.006
7.955,0.008
7.960,0.007
7.965,0.003
7.970,0.000
7.975,0.000
7.980,-0.003
7.985,-0.009
7.990,-0.008
7.995,-0.007
8.000,-0.009
8.005,-0.012
8.010,-0.013
8.015,-0.011
8.020,-0.009
8.025,-0.010
8.030,-0.011
8.035,-0.012
8.040,-0.013
8.045,-0.012
8.050,-0.010
8.055,-0.011
8.060,-0.014
8.065,-0.013
8.070,-0.010
8.075,-0.009
8.080,-0.008
8.085,-0.007
8.090,-0.008
8.095,-0.012
8.100,-0.009
8.105,-0.004
8.110,-0.004
8.115,-0.004
8.120,-0.006
8.125,-0.006
8.130,-0.002
8.135,-0.005
8.140,-0.006
8.145,-0.004
8.150,-0.003
8.155,-0.002
8.160,-0.005
8.165,-0.005
8.170,-0.004
8.175,-0.002
8.180,0.001
8.185,-0.002
8.190,-0.002
8.195,-0.005
8.200,-0.007
8.205,-0.002
8.210,0.002
8.215,0.002
8.220,-0.004
8.225,-0.007
8.230,0.003
8.235,0.008
8.240,0.003
8.245,-0.001
8.250,0.000
8.255,0.004
8.260,0.005
8.265,0.000
8.270,0.000
8.275,0.004
8.280,0.005
8.285,0.008
8.290,0.019
8.295,0.031
8.300,0.036
8.305,0.042
8.310,0.049
8.315,0.054
8.320,0.063
8.325,0.075
8.330,0.075
8.335,0.054
8.340,0.022
8.345,-0.001
8.350,-0.019
8.355,-0.036
8.360,-0.046
8.365,-0.051
8.370,-0.045
8.375,-0.037
8.380,-0.035
8.385,-0.033
8.390,-0.040
8.395,-0.050
8.400,-0.046
8.405,-0.034
8.410,-0.029
8.415,-0.024
8.420,-0.023
8.425,-0.019
8.430,-0.013
8.435,-0.016
8.440,-0.017
8.445,-0.010
8.450,-0.003
8.455,0.001
8.460,-0.009
8.465,-0.038
8.470,-0.063
8.475,-0.079
8.480,-0.113
8.485,-0.137
8.490,-0.097
8.495,0.044
8.500,0.273
8.505,0.391
8.510,0.288
8.515,0.116
8.520,-0.048
8.525,-0.140
8.530,-0.135
8.535,-0.102
8.540,-0.040
8.545,0.008
8.550,0.005
8.555,0.000
8.560,0.012
8.565,0.015
8.570,0.009
8.575,0.011
8.580,0.011
8.585,0.008
8.590,0.012
8.595,0.014
8.600,0.012
8.605,0.011
8.610,0.010
8.615,0.010
8.620,0.012
8.625,0.015
8.630,0.015
8.635,0.010
8.640,0.009
8.645,0.012
8.650,0.014
8.655,0.016
8.660,0.017
8.665,0.016
8.670,0.016
8.675,0.020
8.680,0.020
8.685,0.016
8.690,0.016
8.695,0.015
8.700,0.016
8.705,0.020
8.710,0.021
8.715,0.023
8.720,0.023
8.725,0.021
8.730,0.021
8.735,0.022
8.740,0.028
8.745,0.029
8.750,0.022
8.755,0.021
8.760,0.025
8.765,0.029
8.770,0.026
8.775,0.023
8.780,0.024
8.785,0.019
8.790,0.014
8.795,0.010
8.800,0.007
8.805,0.003
8.810,-0.006
8.815,-0.012
8.820,-0.013
8.825,-0.014
8.830,-0.016
8.835,-0.020
8.840,-0.022
8.845,-0.023
8.850,-0.025
8.855,-0.021
8.860,-0.016
8.865,-0.017
8.870,-0.021
8.875,-0.021
8.880,-0.020
8.885,-0.021
8.890,-0.024
8.895,-0.019
8.900,-0.013
8.905,-0.014
8.910,-0.015
8.915,-0.015
8.920,-0.013
8.925,-0.009
8.930,-0.010
8.935,-0.012
8.940,-0.013
8.945,-0.009
8.950,-0.005
8.955,-0.006
8.960,-0.010
8.965,-0.009
8.970,-0.005
8.975,-0.006
8.980,-0.007
8.985,-0.008
8.990,-0.011
8.995,-0.015
9.000,-0.016
9.005,-0.015
9.010,-0.017
9.015,-0.014
9.020,-0.015
9.025,-0.017
9.030,-0.018
9.035,-0.020
9.040,-0.019
9.045,-0.018
9.050,-0.019
9.055,-0.015
9.060,-0.013
9.065,-0.013
9.070,-0.013
9.075,-0.012
9.080,-0.010
9.085,-0.011
9.090,-0.011
9.095,-0.012
9.100,-0.011
9.105,-0.010
9.110,-0.012
9.115,-0.011
9.120,-0.011
9.125,-0.013
9.130,-0.014
9.135,-0.010
9.140,-0.002
9.145,-0.005
9.150,-0.010
9.155,-0.006
9.160,-0.004
9.165,-0.007
9.170,-0.008
9.175,-0.006
9.180,-0.002
9.185,-0.003
9.190,-0.005
9.195,-0.005
9.200,-0.001
9.205,0.000
9.210,0.000
9.215,-0.001
9.220,-0.005
9.225,-0.003
9.230,0.000
9.235,0.000
9.240,0.002
9.245,0.005
9.250,0.006
9.255,0.006
9.260,0.003
9.265,0.005
9.270,0.008
9.275,0.010
9.280,0.016
9.285,0.023
9.290,0.031
9.295,0.038
9.300,0.046
9.305,0.052
9.310,0.063
9.315,0.071
9.320,0.067
9.325,0.056
9.330,0.035
9.335,0.005
9.340,-0.015
9.345,-0.029
9.350,-0.043
9.355,-0.051
9.360,-0.055
9.365,-0.047
9.370,-0.036
9.375,-0.033
9.380,-0.032
9.385,-0.034
9.390,-0.037
9.395,-0.040
9.400,-0.036
9.405,-0.025
9.410,-0.018
9.415,-0.012
9.420,-0.006
9.425,-0.002
9.430,-0.002
9.435,0.000
9.440,0.005
9.445,0.002
9.450,-0.001
9.455,-0.006
9.460,-0.037
9.465,-0.069
9.470,-0.096
9.475,-0.129
9.480,-0.132
9.485,-0.068
9.490,0.116
9.495,0.350
9.500,0.412
9.505,0.282
9.510,0.107
9.515,-0.046
9.520,-0.125
9.525,-0.125
9.530,-0.083
9.535,-0.024
9.540,0.007
9.545,0.002
9.550,0.000
9.555,0.002
9.560,-0.005
9.565,-0.007
9.570,0.004
9.575,0.007
9.580,0.006
9.585,0.009
9.590,0.010
9.595,0.009
9.600,0.010
9.605,0.009
9.610,0.000
9.615,0.000
9.620,0.007
9.625,0.008
9.630,0.006
9.635,0.004
9.640,0.002
9.645,-0.003
9.650,-0.003
9.655,0.003
9.660,0.003
9.665,0.004
9.670,0.004
9.675,0.005
9.680,0.009
9.685,0.006
9.690,0.001
9.695,0.001
9.700,0.004
9.705,0.009
9.710,0.010
9.715,0.007
9.720,0.002
9.725,0.003
9.730,0.008
9.735,0.009
9.740,0.010
9.745,0.009
9.750,0.010
9.755,0.015
9.760,0.018
9.765,0.022
9.770,0.029
9.775,0.031
9.780,0.031
9.785,0.031
9.790,0.028
9.795,0.025
9.800,0.024
9.805,0.019
9.810,0.012
9.815,0.007
9.820,0.001
9.825,-0.004
9.830,-0.004
9.835,-0.004
9.840,0.000
9.845,-0.002
9.850,-0.006
9.855,-0.006
9.860,-0.005
9.865,-0.006
9.870,-0.008
9.875,-0.008
9.880,-0.008
9.885,-0.013
9.890,-0.015
9.895,-0.009
9.900,-0.002
9.905,0.003
9.910,0.003
9.915,-0.001
9.920,-0.003
9.925,-0.005
9.930,-0.007
9.935,-0.009
9.940,-0.007
9.945,-0.004
9.950,-0.007
9.955,-0.008
9.960,-0.007
9.965,-0.007
9.970,-0.010
9.975,-0.012
9.980,-0.009
9.985,-0.011
9.990,-0.014
9.995,-0.015
10.000,-0.017
10.005,-0.017
10.010,-0.020
10.015,-0.022
10.020,-0.018
10.025,-0.016
10.030,-0.016
10.035,-0.015
10.040,-0.014
10.045,-0.019
10.050,-0.017
10.055,-0.013
10.060,-0.014
10.065,-0.014
10.070,-0.021
10.075,-0.021
10.080,-0.011
10.085,-0.010
10.090,-0.010
10.095,-0.011
10.100,-0.015
10.105,-0.015
10.110,-0.016
10.115,-0.012
10.120,-0.007
10.125,-0.009
10.130,-0.012
10.135,-0.012
10.140,-0.010
10.145,-0.007
10.150,-0.004
10.155,-0.005
10.160,-0.011
10.165,-0.009
10.170,-0.006
10.175,-0.002
10.180,-0.001
10.185,-0.005
10.190,-0.004
10.195,-0.003
10.200,-0.005
10.205,-0.004
10.210,-0.006
10.215,-0.009
10.220,-0.003
10.225,0.007
10.230,0.010
10.235,0.014
10.240,0.024
10.245,0.031
10.250,0.039
10.255,0.043
10.260,0.044
10.265,0.053
10.270,0.062
10.275,0.064
10.280,0.052
10.285,0.018
10.290,-0.011
10.295,-0.022
10.300,-0.034
10.305,-0.041
10.310,-0.047
10.315,-0.048
10.320,-0.039
10.325,-0.038
10.330,-0.041
10.335,-0.040
10.340,-0.041
10.345,-0.039
10.350,-0.032
10.355,-0.028
10.360,-0.019
10.365,-0.007
10.370,-0.010
10.375,-0.011
10.380,-0.008
10.385,-0.005
10.390,0.003
10.395,0.002
10.400,-0.003
10.405,-0.007
10.410,-0.032
10.415,-0.069
10.420,-0.095
10.425,-0.120
10.430,-0.133
10.435,-0.099
10.440,0.049
10.445,0.311
10.450,0.482
10.455,0.424
10.460,0.269
10.465,0.104
10.470,-0.043
10.475,-0.125
10.480,-0.140
10.485,-0.090
10.490,-0.032
10.495,-0.031
10.500,-0.036
10.505,-0.020
10.510,-0.022
10.515,-0.032
10.520,-0.024
10.525,-0.022
10.530,-0.032
10.535,-0.029
10.540,-0.017
10.545,-0.021
10.550,-0.023
10.555,-0.017
10.560,-0.023
10.565,-0.026
10.570,-0.018
10.575,-0.012
10.580,-0.013
10.585,-0.017
10.590,-0.017
10.595,-0.012
10.600,-0.014
10.605,-0.018
10.610,-0.015
10.615,-0.013
10.620,-0.016
10.625,-0.019
10.630,-0.016
10.635,-0.012
10.640,-0.014
10.645,-0.018
10.650,-0.017
10.655,-0.014
10.660,-0.013
10.665,-0.017
10.670,-0.019
10.675,-0.010
10.680,0.000
10.685,-0.004
10.690,-0.011
10.695,-0.009
10.700,-0.001
10.705,0.007
10.710,0.007
10.715,0.013
10.720,0.028
10.725,0.035
10.730,0.040
10.735,0.044
10.740,0.045
10.745,0.048
10.750,0.043
10.755,0.039
10.760,0.038
10.765,0.031
10.770,0.027
10.775,0.026
10.780,0.024
10.785,0.020
10.790,0.014
10.795,0.013
10.800,0.017
10.805,0.017
10.810,0.017
10.815,0.014
10.820,0.012
10.825,0.016
10.830,0.019
10.835,0.015
10.840,0.011
10.845,0.008
10.850,0.008
10.855,0.011
10.860,0.009
10.865,0.008
10.870,0.009
10.875,0.009
10.880,0.005
10.885,0.001
10.890,0.001
10.895,0.002
10.900,0.001
10.905,-0.004
10.910,-0.008
10.915,-0.009
10.920,-0.011
10.925,-0.010
10.930,-0.008
10.935,-0.016
10.940,-0.019
10.945,-0.019
10.950,-0.022
10.955,-0.017
10.960,-0.013
10.965,-0.013
10.970,-0.012
10.975,-0.012
10.980,-0.013
10.985,-0.015
10.990,-0.019
10.995,-0.019
11.000,-0.015
11.005,-0.013
11.010,-0.017
11.015,-0.018
11.020,-0.015
11.025,-0.012
11.030,-0.007
11.035,-0.006
11.040,-0.011
11.045,-0.017
11.050,-0.016
11.055,-0.009
11.060,-0.006
11.065,-0.009
11.070,-0.009
11.075,-0.005
11.080,-0.002
11.085,-0.004
11.090,-0.007
11.095,-0.005
11.100,-0.006
11.105,-0.009
11.110,-0.008
11.115,-0.005
11.120,-0.004
11.125,-0.002
11.130,0.000
11.135,-0.001
11.140,-0.001
11.145,-0.004
11.150,-0.004
11.155,-0.001
11.160,-0.002
11.165,-0.001
11.170,-0.001
11.175,0.001
11.180,0.011
11.185,0.020
11.190,0.025
11.195,0.030
11.200,0.039
11.205,0.048
11.210,0.055
11.215,0.061
11.220,0.067
11.225,0.066
11.230,0.044
11.235,0.011
11.240,-0.009
11.245,-0.027
11.250,-0.042
11.255,-0.050
11.260,-0.055
11.265,-0.048
11.270,-0.037
11.275,-0.034
11.280,-0.033
11.285,-0.039
11.290,-0.046
11.295,-0.042
11.300,-0.037
11.305,-0.034
11.310,-0.032
11.315,-0.023
11.320,-0.009
11.325,-0.003
11.330,-0.002
11.335,-0.007
11.340,-0.010
11.345,-0.010
11.350,-0.008
11.355,-0.015
11.360,-0.047
11.365,-0.072
11.370,-0.085
11.375,-0.114
11.380,-0.127
11.385,-0.074
11.390,0.100
11.395,0.348
11.400,0.434
11.405,0.303
11.410,0.121
11.415,-0.043
11.420,-0.138
11.425,-0.140
11.430,-0.105
11.435,-0.047
11.440,-0.007
11.445,-0.011
11.450,-0.008
11.455,0.008
11.460,0.000
11.465,-0.008
11.470,-0.001
11.475,-0.001
11.480,-0.004
11.485,0.005
11.490,0.012
11.495,0.006
11.500,0.000
11.505,0.000
11.510,0.001
11.515,0.003
11.520,0.004
11.525,0.003
11.530,0.000
11.535,-0.001
11.540,0.003
11.545,0.002
11.550,0.002
11.555,0.005
11.560,0.003
11.565,0.000
11.570,0.004
11.575,0.007
11.580,0.008
11.585,0.009
11.590,0.007
11.595,0.006
11.600,0.008
11.605,0.011
11.610,0.012
11.615,0.014
11.620,0.015
11.625,0.014
11.630,0.011
11.635,0.007
11.640,0.012
11.645,0.022
11.650,0.022
11.655,0.018
11.660,0.017
11.665,0.020
11.670,0.019
11.675,0.022
11.680,0.030
11.685,0.027
11.690,0.020
11.695,0.017
11.700,0.011
11.705,0.007
11.710,0.001
11.715,-0.003
11.720,-0.003
11.725,-0.008
11.730,-0.012
11.735,-0.011
11.740,-0.011
11.745,-0.014
11.750,-0.015
11.755,-0.012
11.760,-0.014
11.765,-0.016
11.770,-0.013
11.775,-0.008
11.780,-0.011
11.785,-0.015
11.790,-0.011
11.795,-0.007
11.800,-0.004
11.805,-0.004
11.810,-0.006
11.815,-0.003
11.820,-0.001
11.825,0.000
11.830,-0.003
11.835,-0.009
11.840,-0.006
11.845,-0.004
11.850,-0.004
11.855,-0.004
11.860,-0.007
11.865,-0.007
11.870,-0.010
11.875,-0.014
11.880,-0.012
11.885,-0.013
11.890,-0.012
11.895,-0.006
11.900,-0.009
11.905,-0.015
11.910,-0.019
11.915,-0.016
11.920,-0.013
11.925,-0.013
11.930,-0.015
11.935,-0.015
11.940,-0.012
11.945,-0.013
11.950,-0.015
11.955,-0.015
11.960,-0.016
11.965,-0.014
11.970,-0.014
11.975,-0.013
11.980,-0.009
11.985,-0.008
11.990,-0.010
11.995,-0.010
12.000,-0.009
12.005,-0.007
12.010,-0.004
12.015,-0.004
12.020,-0.005
12.025,-0.008
12.030,-0.011
12.035,-0.011
12.040,-0.004
12.045,-0.001
12.050,0.000
12.055,0.002
12.060,-0.005
12.065,-0.006
12.070,-0.003
12.075,0.002
12.080,0.005
12.085,0.001
12.090,-0.004
12.095,-0.002
12.100,-0.001
12.105,-0.002
12.110,-0.004
12.115,-0.001
12.120,0.004
12.125,0.003
12.130,-0.001
12.135,-0.006
12.140,0.000
12.145,0.012
12.150,0.022
12.155,0.032
12.160,0.038
12.165,0.045
12.170,0.050
12.175,0.056
12.180,0.069
12.185,0.073
12.190,0.065
12.195,0.044
12.200,0.012
12.205,-0.010
12.210,-0.025
12.215,-0.040
12.220,-0.054
12.225,-0.059
12.230,-0.049
12.235,-0.033
12.240,-0.029
12.245,-0.035
12.250,-0.040
12.255,-0.043
12.260,-0.039
12.265,-0.032
12.270,-0.029
12.275,-0.024
12.280,-0.016
12.285,-0.013
12.290,-0.010
12.295,-0.008
12.300,-0.008
12.305,-0.006
12.310,-0.001
12.315,0.002
12.320,-0.003
12.325,-0.027
12.330,-0.058
12.335,-0.080
12.340,-0.113
12.345,-0.134
12.350,-0.093
12.355,0.047
12.360,0.271
12.365,0.391
12.370,0.292
12.375,0.115
12.380,-0.052
12.385,-0.136
12.390,-0.122
12.395,-0.088
12.400,-0.033
12.405,0.011
12.410,0.008
12.415,0.004
12.420,0.014
12.425,0.012
12.430,0.008
12.435,0.019
12.440,0.024
12.445,0.014
12.450,0.012
12.455,0.012
12.460,0.009
12.465,0.015
12.470,0.018
12.475,0.014
12.480,0.014
12.485,0.010
12.490,0.009
12.495,0.011
12.500,0.007
12.505,0.005
12.510,0.009
12.515,0.011
12.520,0.012
12.525,0.014
12.530,0.011
12.535,0.010
12.540,0.014
12.545,0.014
12.550,0.013
12.555,0.015
12.560,0.011
12.565,0.007
12.570,0.007
12.575,0.010
12.580,0.015
12.585,0.014
12.590,0.008
12.595,0.009
12.600,0.017
12.605,0.021
12.610,0.016
12.615,0.016
12.620,0.022
12.625,0.023
12.630,0.024
12.635,0.024
12.640,0.024
12.645,0.022
12.650,0.019
12.655,0.017
12.660,0.015
12.665,0.006
12.670,-0.006
12.675,-0.008
12.680,-0.006
12.685,-0.010
12.690,-0.012
12.695,-0.016
12.700,-0.018
12.705,-0.018
12.710,-0.020
12.715,-0.015
12.720,-0.013
12.725,-0.017
12.730,-0.020
12.735,-0.025
12.740,-0.026
12.745,-0.022
12.750,-0.019
12.755,-0.014
12.760,-0.015
12.765,-0.017
12.770,-0.013
12.775,-0.011
12.780,-0.012
12.785,-0.012
12.790,-0.008
12.795,-0.007
12.800,-0.011
12.805,-0.011
12.810,-0.007
12.815,0.002
12.820,0.000
12.825,-0.009
12.830,-0.008
12.835,-0.008
12.840,-0.009
12.845,-0.007
12.850,-0.009
12.855,-0.008
12.860,-0.006
12.865,-0.013
12.870,-0.014
12.875,-0.016
12.880,-0.017
12.885,-0.014
12.890,-0.014
12.895,-0.018
12.900,-0.019
12.905,-0.013
12.910,-0.013
12.915,-0.014
12.920,-0.011
12.925,-0.009
12.930,-0.007
12.935,-0.010
12.940,-0.014
12.945,-0.012
12.950,-0.010
12.955,-0.010
12.960,-0.010
12.965,-0.006
12.970,-0.007
12.975,-0.011
12.980,-0.010
12.985,-0.012
12.990,-0.008
12.995,-0.004
13.000,-0.006
13.005,-0.007
13.010,-0.005
13.015,-0.004
13.020,-0.008
13.025,-0.005
13.030,0.003
13.035,0.004
13.040,0.001
13.045,-0.004
13.050,-0.005
13.055,0.000
13.060,-0.001
13.065,-0.001
13.070,0.001
13.075,0.000
13.080,0.002
13.085,0.003
13.090,0.003
13.095,0.002
13.100,-0.001
13.105,0.003
13.110,0.011
13.115,0.022
13.120,0.035
13.125,0.040
13.130,0.042
13.135,0.050
13.140,0.061
13.145,0.067
13.150,0.067
13.155,0.062
13.160,0.039
13.165,0.013
13.170,-0.005
13.175,-0.024
13.180,-0.037
13.185,-0.048
13.190,-0.050
13.195,-0.040
13.200,-0.034
13.205,-0.035
13.210,-0.033
13.215,-0.030
13.220,-0.033
13.225,-0.034
13.230,-0.029
13.235,-0.025
13.240,-0.023
13.245,-0.019
13.250,-0.014
13.255,-0.009
13.260,-0.003
13.265,-0.002
13.270,-0.004
13.275,-0.004
13.280,-0.005
13.285,-0.015
13.290,-0.042
13.295,-0.076
13.300,-0.101
13.305,-0.123
13.310,-0.123
13.315,-0.053
13.320,0.146
13.325,0.403
13.330,0.489
13.335,0.360
13.340,0.182
13.345,0.024
13.350,-0.092
13.355,-0.132
13.360,-0.119
13.365,-0.060
13.370,-0.018
13.375,-0.028
13.380,-0.027
13.385,-0.017
13.390,-0.027
13.395,-0.032
13.400,-0.018
13.405,-0.018
13.410,-0.028
13.415,-0.021
13.420,-0.016
13.425,-0.020
13.430,-0.018
13.435,-0.019
13.440,-0.022
13.445,-0.019
13.450,-0.018
13.455,-0.015
13.460,-0.012
13.465,-0.011
13.470,-0.013
13.475,-0.015
13.480,-0.015
13.485,-0.014
13.490,-0.013
13.495,-0.018
13.500,-0.018
13.505,-0.011
13.510,-0.009
13.515,-0.007
13.520,-0.004
13.525,-0.006
13.530,-0.014
13.535,-0.020
13.540,-0.018
13.545,-0.012
13.550,-0.007
13.555,-0.005
13.560,-0.009
13.565,-0.011
13.570,-0.011
13.575,-0.005
13.580,0.002
13.585,0.004
13.590,0.017
13.595,0.025
13.600,0.028
13.605,0.035
13.610,0.039
13.615,0.040
13.620,0.040
13.625,0.040
13.630,0.046
13.635,0.045
13.640,0.036
13.645,0.030
13.650,0.028
13.655,0.024
13.660,0.016
13.665,0.016
13.670,0.019
13.675,0.015
13.680,0.012
13.685,0.009
13.690,0.007
13.695,0.009
13.700,0.011
13.705,0.012
13.710,0.013
13.715,0.009
13.720,0.012
13.725,0.018
13.730,0.015
13.735,0.013
13.740,0.010
13.745,0.006
13.750,0.004
13.755,0.001
13.760,-0.001
13.765,0.000
13.770,0.000
13.775,-0.005
13.780,-0.004
13.785,-0.008
13.790,-0.012
13.795,-0.012
13.800,-0.015
13.805,-0.013
13.810,-0.012
13.815,-0.017
13.820,-0.017
13.825,-0.015
13.830,-0.014
13.835,-0.014
13.840,-0.016
13.845,-0.017
13.850,-0.019
13.855,-0.020
13.860,-0.014
13.865,-0.013
13.870,-0.018
13.875,-0.018
13.880,-0.013
13.885,-0.009
13.890,-0.009
13.895,-0.010
13.900,-0.012
13.905,-0.014
13.910,-0.014
13.915,-0.008
13.920,-0.003
13.925,-0.002
13.930,-0.001
13.935,-0.006
13.940,-0.011
13.945,-0.010
13.950,-0.010
13.955,-0.009
13.960,-0.009
13.965,-0.010
13.970,-0.007
13.975,-0.005
13.980,-0.006
13.985,-0.003
13.990,-0.001
13.995,-0.004
14.000,-0.003
14.005,-0.001
14.010,-0.006
14.015,-0.007
14.020,-0.003
14.025,0.000
14.030,0.002
14.035,-0.002
14.040,-0.002
14.045,0.000
14.050,-0.001
14.055,-0.003
14.060,-0.006
14.065,-0.008
14.070,-0.004
14.075,0.006
14.080,0.019
14.085,0.028
14.090,0.031
14.095,0.033
14.100,0.040
14.105,0.051
14.110,0.060
14.115,0.064
14.120,0.059
14.125,0.039
14.130,0.008
14.135,-0.016
14.140,-0.029
14.145,-0.037
14.150,-0.045
14.155,-0.054
14.160,-0.051
14.165,-0.041
14.170,-0.038
14.175,-0.039
14.180,-0.040
14.185,-0.045
14.190,-0.047
14.195,-0.046
14.200,-0.040
14.205,-0.028
14.210,-0.022
14.215,-0.018
14.220,-0.012
14.225,-0.013
14.230,-0.016
14.235,-0.011
14.240,-0.006
14.245,-0.008
14.250,-0.022
14.255,-0.052
14.260,-0.079
14.265,-0.097
14.270,-0.128
14.275,-0.130
14.280,-0.055
14.285,0.139
14.290,0.390
14.295,0.467
14.300,0.334
14.305,0.160
14.310,0.005
14.315,-0.102
14.320,-0.136
14.325,-0.124
14.330,-0.059
14.335,-0.016
14.340,-0.027
14.345,-0.025
14.350,-0.014
14.355,-0.020
14.360,-0.026
14.365,-0.019
14.370,-0.016
14.375,-0.018
14.380,-0.013
14.385,-0.012
14.390,-0.014
14.395,-0.010
14.400,-0.007
14.405,-0.010
14.410,-0.014
14.415,-0.010
14.420,-0.004
14.425,-0.003
14.430,-0.001
14.435,-0.003
14.440,-0.007
14.445,-0.009
14.450,-0.006
14.455,-0.002
14.460,-0.003
14.465,-0.002
14.470,-0.005
14.475,-0.007
14.480,-0.001
14.485,-0.001
14.490,0.003
14.495,0.007
14.500,0.001
14.505,-0.001
14.510,-0.002
14.515,0.000
14.520,0.004
14.525,0.001
14.530,0.002
14.535,0.008
14.540,0.014
14.545,0.015
14.550,0.010
14.555,0.014
14.560,0.022
14.565,0.028
14.570,0.030
14.575,0.035
14.580,0.038
14.585,0.034
14.590,0.032
14.595,0.032
14.600,0.029
14.605,0.023
14.610,0.014
14.615,0.012
14.620,0.012
14.625,0.007
14.630,0.008
14.635,0.007
14.640,0.004
14.645,0.000
14.650,-0.004
14.655,-0.002
14.660,0.004
14.665,0.006
14.670,0.004
14.675,0.003
14.680,0.005
14.685,0.006
14.690,0.005
14.695,0.002
14.700,-0.001
14.705,0.006
14.710,0.007
14.715,-0.001
14.720,-0.001
14.725,0.000
14.730,0.005
14.735,0.006
14.740,-0.003
14.745,-0.007
14.750,-0.007
14.755,-0.008
14.760,-0.007
14.765,-0.009
14.770,-0.012
14.775,-0.009
14.780,-0.009
14.785,-0.011
14.790,-0.012
14.795,-0.015
14.800,-0.018
14.805,-0.022
14.810,-0.022
14.815,-0.011
14.820,-0.007
14.825,-0.009
14.830,-0.012
14.835,-0.015
14.840,-0.013
14.845,-0.009
14.850,-0.011
14.855,-0.012
14.860,-0.013
14.865,-0.011
14.870,-0.007
14.875,-0.007
14.880,-0.010
14.885,-0.010
14.890,-0.008
14.895,-0.011
14.900,-0.011
14.905,-0.004
14.910,-0.002
14.915,-0.003
14.920,-0.007
14.925,-0.010
14.930,-0.008
14.935,-0.002
14.940,0.000
14.945,-0.006
14.950,-0.009
14.955,-0.006
14.960,-0.006
14.965,-0.007
14.970,-0.008
14.975,-0.008
14.980,-0.003
14.985,-0.002
14.990,-0.006
14.995,-0.007
15.000,0.000
15.005,0.004
15.010,0.001
15.015,-0.001
15.020,-0.002
15.025,-0.001
15.030,-0.002
15.035,-0.006
15.040,-0.002
15.045,0.002
15.050,0.001
15.055,0.010
15.060,0.023
15.065,0.032
15.070,0.040
15.075,0.048
15.080,0.055
15.085,0.059
15.090,0.065
15.095,0.070
15.100,0.056
15.105,0.025
15.110,0.001
15.115,-0.013
15.120,-0.028
15.125,-0.042
15.130,-0.054
15.135,-0.058
15.140,-0.045
15.145,-0.036
15.150,-0.034
15.155,-0.035
15.160,-0.042
15.165,-0.044
15.170,-0.037
15.175,-0.033
15.180,-0.026
15.185,-0.020
15.190,-0.015
15.195,-0.011
15.200,-0.009
15.205,-0.008
15.210,-0.008
15.215,-0.003
15.220,0.003
15.225,0.002
15.230,-0.019
15.235,-0.057
15.240,-0.080
15.245,-0.102
15.250,-0.131
15.255,-0.118
15.260,-0.011
15.265,0.212
15.270,0.394
15.275,0.348
15.280,0.183
15.285,0.010
15.290,-0.113
15.295,-0.130
15.300,-0.106
15.305,-0.051
15.310,0.005
15.315,0.007
15.320,-0.005
15.325,0.004
15.330,0.012
15.335,0.005
15.340,0.006
15.345,0.007
15.350,0.004
15.355,0.009
15.360,0.011
15.365,0.005
15.370,0.001
15.375,0.003
15.380,0.009
15.385,0.010
15.390,0.008
15.395,0.005
15.400,0.003
15.405,0.007
15.410,0.009
15.415,0.005
15.420,0.005
15.425,0.006
15.430,0.006
15.435,0.005
15.440,0.004
15.445,0.003
15.450,0.004
15.455,0.005
15.460,0.003
15.465,0.006
15.470,0.009
15.475,0.009
15.480,0.011
15.485,0.006
15.490,0.005
15.495,0.012
15.500,0.015
15.505,0.018
15.510,0.014
15.515,0.007
15.520,0.008
15.525,0.016
15.530,0.022
15.535,0.021
15.540,0.021
15.545,0.019
15.550,0.016
15.555,0.015
15.560,0.011
15.565,0.010
15.570,0.007
15.575,-0.003
15.580,-0.010
15.585,-0.014
15.590,-0.015
15.595,-0.013
15.600,-0.014
15.605,-0.018
15.610,-0.021
15.615,-0.024
15.620,-0.021
15.625,-0.020
15.630,-0.023
15.635,-0.024
15.640,-0.021
15.645,-0.020
15.650,-0.022
15.655,-0.019
15.660,-0.016
15.665,-0.014
15.670,-0.013
15.675,-0.015
15.680,-0.012
15.685,-0.010
15.690,-0.009
15.695,-0.007
15.700,-0.007
15.705,-0.011
15.710,-0.011
15.715,-0.007
15.720,-0.006
15.725,-0.001
15.730,0.000
15.735,-0.005
15.740,-0.006
15.745,-0.007
15.750,-0.008
15.755,-0.008
15.760,-0.014
15.765,-0.016
15.770,-0.011
15.775,-0.012
15.780,-0.013
15.785,-0.012
15.790,-0.011
15.795,-0.009
15.800,-0.011
15.805,-0.015
15.810,-0.015
15.815,-0.013
15.820,-0.013
15.825,-0.014
15.830,-0.015
15.835,-0.009
15.840,-0.005
15.845,-0.006
15.850,-0.012
15.855,-0.014
15.860,-0.012
15.865,-0.010
15.870,-0.009
15.875,-0.008
15.880,-0.007
15.885,-0.008
15.890,-0.010
15.895,-0.007
15.900,-0.004
15.905,-0.002
15.910,-0.002
15.915,-0.004
15.920,-0.002
15.925,-0.002
15.930,0.000
15.935,-0.004
15.940,-0.006
15.945,0.005
15.950,0.008
15.955,0.002
15.960,-0.001
15.965,-0.002
15.970,0.002
15.975,0.003
15.980,0.000
15.985,0.001
15.990,0.006
15.995,0.008
16.000,0.006
16.005,0.005
16.010,0.000
16.015,-0.002
16.020,0.006
16.025,0.008
16.030,0.007
16.035,0.007
16.040,0.010
16.045,0.025
16.050,0.037
16.055,0.037
16.060,0.043
16.065,0.049
16.070,0.054
16.075,0.067
16.080,0.073
16.085,0.067
16.090,0.050
16.095,0.016
16.100,-0.010
16.105,-0.023
16.110,-0.039
16.115,-0.047
16.120,-0.046
16.125,-0.038
16.130,-0.027
16.135,-0.023
16.140,-0.026
16.145,-0.034
16.150,-0.039
16.155,-0.035
16.160,-0.027
16.165,-0.025
16.170,-0.021
16.175,-0.011
16.180,-0.005
16.185,-0.003
16.190,-0.002
16.195,-0.001
16.200,0.004
16.205,0.005
16.210,0.004
16.215,-0.006
16.220,-0.042
16.225,-0.076
16.230,-0.095
16.235,-0.126
16.240,-0.130
16.245,-0.054
16.250,0.145
16.255,0.390
16.260,0.451
16.265,0.319
16.270,0.155
16.275,0.001
16.280,-0.102
16.285,-0.125
16.290,-0.097
16.295,-0.036
16.300,-0.001
16.305,-0.013
16.310,-0.015
16.315,-0.007
16.320,-0.015
16.325,-0.015
16.330,-0.003
16.335,-0.008
16.340,-0.015
16.345,-0.008
16.350,-0.002
16.355,-0.005
16.360,-0.003
16.365,-0.001
16.370,-0.005
16.375,-0.007
16.380,-0.007
16.385,-0.007
16.390,-0.006
16.395,-0.006
16.400,-0.007
16.405,-0.005
16.410,-0.005
16.415,-0.003
16.420,-0.007
16.425,-0.010
16.430,-0.008
16.435,-0.012
16.440,-0.008
16.445,-0.001
16.450,-0.002
16.455,-0.001
16.460,-0.002
16.465,-0.008
16.470,-0.009
16.475,-0.001
16.480,0.003
16.485,0.003
16.490,0.001
16.495,0.000
16.500,0.005
16.505,0.011
16.510,0.011
16.515,0.013
16.520,0.015
16.525,0.014
16.530,0.020
16.535,0.030
16.540,0.033
16.545,0.035
16.550,0.039
16.555,0.039
16.560,0.034
16.565,0.025
16.570,0.017
16.575,0.013
16.580,0.012
16.585,0.011
16.590,0.005
16.595,0.001
16.600,0.003
16.605,0.005
16.610,0.005
16.615,0.003
16.620,0.002
16.625,0.004
16.630,0.006
16.635,0.001
16.640,-0.003
16.645,-0.004
16.650,-0.007
16.655,-0.001
16.660,0.002
16.665,0.003
16.670,0.008
16.675,0.005
16.680,-0.001
16.685,-0.006
16.690,-0.003
16.695,0.003
16.700,0.000
16.705,-0.006
16.710,-0.007
16.715,-0.005
16.720,-0.007
16.725,-0.010
16.730,-0.013
16.735,-0.014
16.740,-0.014
16.745,-0.015
16.750,-0.014
16.755,-0.016
16.760,-0.019
16.765,-0.017
16.770,-0.018
16.775,-0.023
16.780,-0.021
16.785,-0.017
16.790,-0.017
16.795,-0.017
16.800,-0.019
16.805,-0.012
16.810,-0.008
16.815,-0.018
16.820,-0.020
16.825,-0.014
16.830,-0.013
16.835,-0.016
16.840,-0.017
16.845,-0.011
16.850,-0.009
16.855,-0.012
16.860,-0.013
16.865,-0.008
16.870,-0.007
16.875,-0.009
16.880,-0.009
16.885,-0.009
16.890,-0.008
16.895,-0.006
16.900,-0.007
16.905,-0.008
16.910,-0.010
16.915,-0.011
16.920,-0.006
16.925,-0.006
16.930,-0.005
16.935,-0.006
16.940,-0.007
16.945,-0.001
16.950,-0.001
16.955,-0.005
16.960,-0.007
16.965,-0.005
16.970,-0.001
16.975,-0.002
16.980,-0.004
16.985,-0.007
16.990,-0.007
16.995,0.000
17.000,0.014
17.005,0.031
17.010,0.035
17.015,0.031
17.020,0.036
17.025,0.045
17.030,0.051
17.035,0.055
17.040,0.062
17.045,0.063
17.050,0.044
17.055,0.013
17.060,-0.009
17.065,-0.023
17.070,-0.034
17.075,-0.041
17.080,-0.043
17.085,-0.036
17.090,-0.030
17.095,-0.031
17.100,-0.035
17.105,-0.040
17.110,-0.045
17.115,-0.045
17.120,-0.033
17.125,-0.027
17.130,-0.028
17.135,-0.024
17.140,-0.015
17.145,-0.006
17.150,0.000
17.155,-0.003
17.160,-0.006
17.165,-0.007
17.170,-0.008
17.175,-0.018
17.180,-0.055
17.185,-0.084
17.190,-0.099
17.195,-0.122
17.200,-0.114
17.205,-0.030
17.210,0.189
17.215,0.436
17.220,0.476
17.225,0.335
17.230,0.170
17.235,0.014
17.240,-0.095
17.245,-0.138
17.250,-0.125
17.255,-0.062
17.260,-0.029
17.265,-0.035
17.270,-0.031
17.275,-0.025
17.280,-0.036
17.285,-0.040
17.290,-0.027
17.295,-0.025
17.300,-0.029
17.305,-0.025
17.310,-0.023
17.315,-0.028
17.320,-0.028
17.325,-0.025
17.330,-0.024
17.335,-0.020
17.340,-0.017
17.345,-0.019
17.350,-0.018
17.355,-0.013
17.360,-0.012
17.365,-0.018
17.370,-0.021
17.375,-0.017
17.380,-0.012
17.385,-0.012
17.390,-0.015
17.395,-0.015
17.400,-0.013
17.405,-0.015
17.410,-0.014
17.415,-0.014
17.420,-0.011
17.425,-0.008
17.430,-0.013
17.435,-0.017
17.440,-0.014
17.445,-0.016
17.450,-0.015
17.455,-0.006
17.460,-0.004
17.465,0.002
17.470,0.009
17.475,0.010
17.480,0.014
17.485,0.019
17.490,0.025
17.495,0.034
17.500,0.040
17.505,0.042
17.510,0.044
17.515,0.040
17.520,0.035
17.525,0.034
17.530,0.027
17.535,0.018
17.540,0.018
17.545,0.019
17.550,0.016
17.555,0.012
17.560,0.010
17.565,0.011
17.570,0.011
17.575,0.012
17.580,0.012
17.585,0.008
17.590,0.002
17.595,0.003
17.600,0.008
17.605,0.009
17.610,0.005
17.615,0.006
17.620,0.008
17.625,0.010
17.630,0.010
17.635,0.009
17.640,0.010
17.645,0.009
17.650,0.007
17.655,0.008
17.660,0.005
17.665,-0.002
17.670,-0.002
17.675,-0.002
17.680,-0.003
17.685,-0.006
17.690,-0.009
17.695,-0.008
17.700,-0.010
17.705,-0.015
17.710,-0.016
17.715,-0.015
17.720,-0.016
17.725,-0.018
17.730,-0.016
17.735,-0.011
17.740,-0.008
17.745,-0.011
17.750,-0.013
17.755,-0.014
17.760,-0.014
17.765,-0.010
17.770,-0.008
17.775,-0.009
17.780,-0.009
17.785,-0.011
17.790,-0.015
17.795,-0.014
17.800,-0.012
17.805,-0.010
17.810,-0.010
17.815,-0.015
17.820,-0.013
17.825,-0.010
17.830,-0.006
17.835,-0.004
17.840,-0.008
17.845,-0.006
17.850,-0.008
17.855,-0.011
17.860,-0.008
17.865,-0.008
17.870,-0.006
17.875,-0.002
17.880,-0.003
17.885,-0.005
17.890,-0.004
17.895,-0.005
17.900,-0.008
17.905,-0.006
17.910,-0.003
17.915,-0.002
17.920,-0.001
17.925,-0.006
17.930,-0.008
17.935,-0.003
17.940,0.003
17.945,0.007
17.950,0.014
17.955,0.026
17.960,0.039
17.965,0.048
17.970,0.049
17.975,0.048
17.980,0.060
17.985,0.068
17.990,0.061
17.995,0.042
18.000,0.015
18.005,-0.007
18.010,-0.024
18.015,-0.043
18.020,-0.055
18.025,-0.052
18.030,-0.038
18.035,-0.032
18.040,-0.035
18.045,-0.041
18.050,-0.044
18.055,-0.041
18.060,-0.040
18.065,-0.036
18.070,-0.030
18.075,-0.028
18.080,-0.023
18.085,-0.021
18.090,-0.016
18.095,-0.010
18.100,-0.007
18.105,-0.004
18.110,-0.006
18.115,-0.007
18.120,-0.020
18.125,-0.053
18.130,-0.076
18.135,-0.087
18.140,-0.111
18.145,-0.116
18.150,-0.059
18.155,0.121
18.160,0.350
18.165,0.397
18.170,0.259
18.175,0.078
18.180,-0.078
18.185,-0.143
18.190,-0.130
18.195,-0.084
18.200,-0.022
18.205,0.007
18.210,-0.002
18.215,0.000
18.220,0.007
18.225,0.001
18.230,0.000
18.235,0.005
18.240,0.005
18.245,0.004
18.250,0.005
18.255,0.004
18.260,0.002
18.265,0.006
18.270,0.012
18.275,0.009
18.280,0.006
18.285,0.007
18.290,0.003
18.295,0.002
18.300,0.006
18.305,0.008
18.310,0.007
18.315,0.008
18.320,0.008
18.325,0.006
18.330,0.008
18.335,0.009
18.340,0.011
18.345,0.012
18.350,0.009
18.355,0.011
18.360,0.012
18.365,0.010
18.370,0.012
18.375,0.013
18.380,0.016
18.385,0.019
18.390,0.017
18.395,0.012
18.400,0.008
18.405,0.012
18.410,0.017
18.415,0.019
18.420,0.020
18.425,0.022
18.430,0.028
18.435,0.026
18.440,0.020
18.445,0.023
18.450,0.020
18.455,0.017
18.460,0.012
18.465,0.004
18.470,0.000
18.475,-0.004
18.480,-0.005
18.485,-0.010
18.490,-0.016
18.495,-0.017
18.500,-0.018
18.505,-0.019
18.510,-0.017
18.515,-0.016
18.520,-0.015
18.525,-0.019
18.530,-0.023
18.535,-0.019
18.540,-0.012
18.545,-0.013
18.550,-0.014
18.555,-0.011
18.560,-0.010
18.565,-0.013
18.570,-0.012
18.575,-0.009
18.580,-0.009
18.585,-0.009
18.590,-0.009
18.595,-0.006
18.600,-0.003
18.605,-0.004
18.610,-0.006
18.615,-0.003
18.620,-0.003
18.625,-0.008
18.630,-0.006
18.635,-0.002
18.640,-0.002
18.645,-0.005
18.650,-0.010
18.655,-0.011
18.660,-0.012
18.665,-0.013
18.670,-0.013
18.675,-0.011
18.680,-0.016
18.685,-0.017
18.690,-0.011
18.695,-0.009
18.700,-0.012
18.705,-0.015
18.710,-0.014
18.715,-0.015
18.720,-0.017
18.725,-0.017
18.730,-0.015
18.735,-0.012
18.740,-0.011
18.745,-0.010
18.750,-0.007
18.755,-0.008
18.760,-0.011
18.765,-0.009
18.770,-0.009
18.775,-0.006
18.780,-0.003
18.785,-0.009
18.790,-0.013
18.795,-0.006
18.800,-0.001
18.805,0.001
18.810,-0.001
18.815,-0.006
18.820,-0.007
18.825,-0.006
18.830,-0.005
18.835,-0.002
18.840,0.001
18.845,0.000
18.850,-0.003
18.855,-0.003
18.860,-0.004
18.865,-0.003
18.870,0.002
18.875,0.004
18.880,0.005
18.885,0.005
18.890,0.004
18.895,0.002
18.900,-0.001
18.905,0.001
18.910,0.005
18.915,0.001
18.920,0.005
18.925,0.023
18.930,0.035
18.935,0.043
18.940,0.050
18.945,0.055
18.950,0.064
18.955,0.072
18.960,0.069
18.965,0.058
18.970,0.036
18.975,0.005
18.980,-0.013
18.985,-0.028
18.990,-0.046
18.995,-0.056
19.000,-0.054
19.005,-0.042
19.010,-0.034
19.015,-0.033
19.020,-0.036
19.025,-0.038
19.030,-0.034
19.035,-0.037
19.040,-0.037
19.045,-0.028
19.050,-0.018
19.055,-0.011
19.060,-0.012
19.065,-0.011
19.070,-0.005
19.075,-0.001
19.080,0.001
19.085,0.000
19.090,-0.002
19.095,-0.011
19.100,-0.041
19.105,-0.069
19.110,-0.089
19.115,-0.126
19.120,-0.133
19.125,-0.063
19.130,0.109
19.135,0.325
19.140,0.384
19.145,0.252
19.150,0.076
19.155,-0.071
19.160,-0.134
19.165,-0.117
19.170,-0.072
19.175,-0.016
19.180,0.014
19.185,0.006
19.190,0.005
19.195,0.011
19.200,0.005
19.205,0.002
19.210,0.010
19.215,0.011
19.220,0.009
19.225,0.014
19.230,0.015
19.235,0.016
19.240,0.016
19.245,0.014
19.250,0.008
19.255,0.001
19.260,0.000
19.265,0.003
19.270,0.006
19.275,0.005
19.280,0.008
19.285,0.005
19.290,0.002
19.295,0.005
19.300,0.003
19.305,0.003
19.310,0.007
19.315,0.010
19.320,0.006
19.325,0.002
19.330,0.003
19.335,0.001
19.340,0.004
19.345,0.009
19.350,0.009
19.355,0.011
19.360,0.010
19.365,0.005
19.370,0.005
19.375,0.007
19.380,0.010
19.385,0.015
19.390,0.017
19.395,0.014
19.400,0.014
19.405,0.022
19.410,0.025
19.415,0.025
19.420,0.027
19.425,0.024
19.430,0.019
19.435,0.011
19.440,0.007
19.445,0.007
19.450,0.000
19.455,-0.007
19.460,-0.004
19.465,-0.003
19.470,-0.008
19.475,-0.014
19.480,-0.021
19.485,-0.018
19.490,-0.012
19.495,-0.012
19.500,-0.015
19.505,-0.019
19.510,-0.020
19.515,-0.012
19.520,-0.008
19.525,-0.011
19.530,-0.011
19.535,-0.010
19.540,-0.007
19.545,-0.007
19.550,-0.008
19.555,-0.006
19.560,-0.005
19.565,-0.003
19.570,-0.002
19.575,-0.003
19.580,-0.001
19.585,0.001
19.590,-0.001
19.595,-0.001
19.600,-0.001
19.605,0.003
19.610,0.009
19.615,0.004
19.620,-0.004
19.625,-0.013
19.630,-0.014
19.635,-0.007
19.640,-0.005
19.645,-0.006
19.650,-0.007
19.655,-0.010
19.660,-0.012
19.665,-0.017
19.670,-0.018
19.675,-0.013
19.680,-0.009
19.685,-0.005
19.690,-0.003
19.695,-0.009
19.700,-0.015
19.705,-0.015
19.710,-0.014
19.715,-0.007
19.720,-0.004
19.725,-0.011
19.730,-0.012
19.735,-0.009
19.740,-0.006
19.745,-0.004
19.750,-0.007
19.755,-0.009
19.760,-0.008
19.765,-0.007
19.770,-0.002
19.775,-0.002
19.780,-0.004
19.785,-0.004
19.790,-0.005
19.795,-0.007
19.800,-0.009
19.805,-0.004
19.810,0.003
19.815,-0.003
19.820,-0.011
19.825,-0.006
19.830,0.002
19.835,0.000
19.840,0.001
19.845,0.004
19.850,0.001
19.855,0.000
19.860,0.002
19.865,0.003
19.870,0.006
19.875,0.002
19.880,-0.001
19.885,0.008
19.890,0.023
19.895,0.032
19.900,0.031
19.905,0.030
19.910,0.037
19.915,0.048
19.920,0.061
19.925,0.073
19.930,0.075
19.935,0.053
19.940,0.018
19.945,-0.005
19.950,-0.019
19.955,-0.033
19.960,-0.047
19.965,-0.051
19.970,-0.042
19.975,-0.035
19.980,-0.032
19.985,-0.030
19.990,-0.033
19.995,-0.037
20.000,-0.036
20.005,-0.033
20.010,-0.031
20.015,-0.022
20.020,-0.013
20.025,-0.008
20.030,-0.003
20.035,-0.004
20.040,-0.004
20.045,-0.002
20.050,-0.001
20.055,0.005
20.060,-0.004
20.065,-0.041
20.070,-0.077
20.075,-0.096
20.080,-0.118
20.085,-0.127
20.090,-0.074
20.095,0.107
20.100,0.374
20.105,0.503
20.110,0.399
20.115,0.228
20.120,0.070
20.125,-0.063
20.130,-0.128
20.135,-0.138
20.140,-0.086
20.145,-0.029
20.150,-0.033
20.155,-0.038
20.160,-0.024
20.165,-0.027
20.170,-0.035
20.175,-0.026
20.180,-0.021
20.185,-0.029
20.190,-0.028
20.195,-0.021
20.200,-0.027
20.205,-0.028
20.210,-0.023
20.215,-0.021
20.220,-0.014
20.225,-0.013
20.230,-0.017
20.235,-0.020
20.240,-0.022
20.245,-0.020
20.250,-0.016
20.255,-0.010
20.260,-0.010
20.265,-0.016
20.270,-0.024
20.275,-0.019
20.280,-0.012
20.285,-0.017
20.290,-0.018
20.295,-0.019
20.300,-0.023
20.305,-0.015
20.310,-0.010
20.315,-0.009
20.320,-0.007
20.325,-0.013
20.330,-0.015
20.335,-0.014
20.340,-0.019
20.345,-0.010
20.350,0.001
20.355,0.001
20.360,0.004
20.365,0.006
20.370,0.014
20.375,0.029
20.380,0.035
20.385,0.041
20.390,0.047
20.395,0.047
20.400,0.046
20.405,0.042
20.410,0.037
20.415,0.032
20.420,0.029
20.425,0.027
20.430,0.022
20.435,0.020
20.440,0.021
20.445,0.019
20.450,0.012
20.455,0.009
20.460,0.008
20.465,0.008
20.470,0.010
20.475,0.014
20.480,0.017
20.485,0.015
20.490,0.010
20.495,0.008
20.500,0.007
20.505,0.014
20.510,0.014
20.515,0.008
20.520,0.008
20.525,0.008
20.530,0.012
20.535,0.011
20.540,0.002
20.545,0.002
20.550,0.004
20.555,0.000
20.560,-0.004
20.565,-0.010
20.570,-0.015
20.575,-0.013
20.580,-0.007
20.585,-0.004
20.590,-0.005
20.595,-0.008
20.600,-0.016
20.605,-0.022
20.610,-0.023
20.615,-0.018
20.620,-0.013
20.625,-0.012
20.630,-0.012
20.635,-0.015
20.640,-0.016
20.645,-0.015
20.650,-0.011
20.655,-0.007
20.660,-0.015
20.665,-0.020
20.670,-0.014
20.675,-0.009
20.680,-0.008
20.685,-0.009
20.690,-0.012
20.695,-0.013
20.700,-0.015
20.705,-0.017
20.710,-0.013
20.715,-0.007
20.720,-0.005
20.725,-0.006
20.730,-0.010
20.735,-0.010
20.740,-0.004
20.745,0.001
20.750,-0.003
20.755,-0.006
20.760,-0.007
20.765,-0.006
20.770,-0.003
20.775,-0.002
20.780,-0.005
20.785,-0.008
20.790,-0.007
20.795,-0.004
20.800,-0.003
20.805,-0.004
20.810,-0.007
20.815,-0.003
20.820,0.004
20.825,0.002
20.830,0.000
20.835,0.004
20.840,0.014
20.845,0.028
20.850,0.033
20.855,0.039
20.860,0.045
20.865,0.055
20.870,0.066
20.875,0.067
20.880,0.067
20.885,0.048
20.890,0.016
20.895,-0.007
20.900,-0.028
20.905,-0.040
20.910,-0.043
20.915,-0.048
20.920,-0.043
20.925,-0.036
20.930,-0.034
20.935,-0.037
20.940,-0.043
20.945,-0.050
20.950,-0.052
20.955,-0.044
20.960,-0.035
20.965,-0.027
20.970,-0.023
20.975,-0.022
20.980,-0.018
20.985,-0.015
20.990,-0.008
20.995,-0.003
21.000,-0.011
21.005,-0.009
21.010,-0.014
21.015,-0.047
21.020,-0.076
21.025,-0.093
21.030,-0.113
21.035,-0.110
21.040,-0.045
21.045,0.139
21.050,0.382
21.055,0.462
21.060,0.337
21.065,0.164
21.070,0.006
21.075,-0.106
21.080,-0.142
21.085,-0.125
21.090,-0.066
21.095,-0.022
21.100,-0.028
21.105,-0.029
21.110,-0.021
21.115,-0.028
21.120,-0.028
21.125,-0.018
21.130,-0.019
21.135,-0.024
21.140,-0.019
21.145,-0.014
21.150,-0.016
21.155,-0.017
21.160,-0.012
21.165,-0.010
21.170,-0.013
21.175,-0.014
21.180,-0.010
21.185,-0.011
21.190,-0.010
21.195,-0.010
21.200,-0.013
21.205,-0.013
21.210,-0.013
21.215,-0.010
21.220,-0.003
21.225,-0.003
21.230,-0.005
21.235,-0.008
21.240,-0.007
21.245,-0.004
21.250,-0.006
21.255,-0.005
21.260,-0.006
21.265,-0.006
21.270,-0.003
21.275,-0.003
21.280,0.000
21.285,0.002
21.290,0.005
21.295,0.006
21.300,0.005
21.305,0.010
21.310,0.015
21.315,0.015
21.320,0.018
21.325,0.022
21.330,0.025
21.335,0.031
21.340,0.037
21.345,0.035
21.350,0.028
21.355,0.022
21.360,0.020
21.365,0.017
21.370,0.012
21.375,0.008
21.380,0.009
21.385,0.007
21.390,0.004
21.395,0.003
21.400,-0.001
21.405,-0.003
21.410,0.000
21.415,-0.001
21.420,-0.004
21.425,0.000
21.430,0.005
21.435,0.005
21.440,0.006
21.445,0.006
21.450,0.006
21.455,0.008
21.460,0.004
21.465,0.003
21.470,0.005
21.475,0.007
21.480,0.008
21.485,0.006
21.490,0.002
21.495,0.001
21.500,0.002
21.505,0.000
21.510,-0.003
21.515,-0.005
21.520,-0.004
21.525,-0.003
21.530,0.000
21.535,0.002
21.540,-0.007
21.545,-0.013
21.550,-0.013
21.555,-0.012
21.560,-0.014
21.565,-0.014
21.570,-0.013
21.575,-0.016
21.580,-0.013
21.585,-0.011
21.590,-0.014
21.595,-0.016
21.600,-0.020
21.605,-0.016
21.610,-0.007
21.615,-0.007
21.620,-0.011
21.625,-0.012
21.630,-0.011
21.635,-0.007
21.640,-0.005
21.645,-0.009
21.650,-0.008
21.655,-0.005
21.660,-0.005
21.665,-0.005
21.670,-0.006
21.675,-0.006
21.680,-0.003
21.685,0.000
21.690,-0.001
21.695,-0.003
21.700,-0.004
21.705,-0.005
21.710,-0.005
21.715,-0.005
21.720,-0.004
21.725,-0.002
21.730,-0.002
21.735,-0.004
21.740,-0.002
21.745,0.002
21.750,0.001
21.755,-0.005
21.760,-0.007
21.765,-0.005
21.770,0.001
21.775,0.005
21.780,0.000
21.785,-0.006
21.790,-0.004
21.795,-0.002
21.800,-0.003
21.805,-0.001
21.810,0.002
21.815,0.002
21.820,0.004
21.825,0.009
21.830,0.016
21.835,0.024
21.840,0.037
21.845,0.049
21.850,0.055
21.855,0.060
21.860,0.062
21.865,0.066
21.870,0.063
21.875,0.042
21.880,0.016
21.885,-0.007
21.890,-0.028
21.895,-0.043
21.900,-0.053
21.905,-0.058
21.910,-0.049
21.915,-0.037
21.920,-0.033
21.925,-0.033
21.930,-0.038
21.935,-0.044
21.940,-0.043
21.945,-0.038
21.950,-0.032
21.955,-0.020
21.960,-0.016
21.965,-0.020
21.970,-0.017
21.975,-0.007
21.980,0.000
21.985,0.001
21.990,-0.001
21.995,-0.003
22.000,-0.009
22.005,-0.037
22.010,-0.070
22.015,-0.088
22.020,-0.118
22.025,-0.134
22.030,-0.080
22.035,0.076
22.040,0.303
22.045,0.394
22.050,0.270
22.055,0.091
22.060,-0.069
22.065,-0.147
22.070,-0.128
22.075,-0.089
22.080,-0.032
22.085,0.007
22.090,0.002
22.095,0.002
22.100,0.009
22.105,0.004
22.110,0.001
22.115,0.009
22.120,0.012
22.125,0.008
22.130,0.008
22.135,0.005
22.140,0.006
22.145,0.012
22.150,0.008
22.155,0.005
22.160,0.010
22.165,0.012
22.170,0.008
22.175,0.003
22.180,0.005
22.185,0.009
22.190,0.004
22.195,0.002
22.200,0.007
22.205,0.009
22.210,0.007
22.215,0.006
22.220,0.008
22.225,0.011
22.230,0.014
22.235,0.017
22.240,0.019
22.245,0.017
22.250,0.013
22.255,0.013
22.260,0.017
22.265,0.017
22.270,0.017
22.275,0.017
22.280,0.020
22.285,0.024
22.290,0.022
22.295,0.021
22.300,0.020
22.305,0.022
22.310,0.022
22.315,0.017
22.320,0.015
22.325,0.013
22.330,0.015
22.335,0.014
22.340,0.009
22.345,0.003
22.350,-0.006
22.355,-0.014
22.360,-0.018
22.365,-0.021
22.370,-0.018
22.375,-0.021
22.380,-0.023
22.385,-0.020
22.390,-0.021
22.395,-0.021
22.400,-0.023
22.405,-0.025
22.410,-0.024
22.415,-0.025
22.420,-0.026
22.425,-0.026
22.430,-0.020
22.435,-0.016
22.440,-0.018
22.445,-0.015
22.450,-0.015
22.455,-0.012
22.460,-0.007
22.465,-0.007
22.470,-0.006
22.475,-0.008
22.480,-0.008
22.485,-0.007
22.490,-0.008
22.495,-0.005
22.500,-0.004
22.505,-0.003
22.510,-0.005
22.515,-0.013
22.520,-0.013
22.525,-0.011
22.530,-0.009
22.535,-0.011
22.540,-0.014
22.545,-0.015
22.550,-0.012
22.555,-0.011
22.560,-0.012
22.565,-0.014
22.570,-0.015
22.575,-0.016
22.580,-0.015
22.585,-0.011
22.590,-0.011
22.595,-0.009
22.600,-0.008
22.605,-0.012
22.610,-0.014
22.615,-0.011
22.620,-0.009
22.625,-0.008
22.630,-0.007
22.635,-0.010
22.640,-0.010
22.645,-0.006
22.650,-0.007
22.655,-0.004
22.660,0.001
22.665,0.001
22.670,0.000
22.675,0.004
22.680,0.000
22.685,-0.004
22.690,-0.005
22.695,-0.008
22.700,-0.008
22.705,-0.001
22.710,0.003
22.715,0.002
22.720,0.000
22.725,-0.003
22.730,-0.002
22.735,0.002
22.740,0.003
22.745,0.005
22.750,0.008
22.755,0.006
22.760,0.004
22.765,0.006
22.770,0.007
22.775,0.005
22.780,0.003
22.785,0.001
22.790,0.003
22.795,0.008
22.800,0.007
22.805,0.007
22.810,0.006
22.815,-0.001
22.820,-0.001
22.825,0.002
22.830,0.004
22.835,0.011
22.840,0.016
22.845,0.023
22.850,0.032
22.855,0.036
22.860,0.037
22.865,0.046
22.870,0.057
22.875,0.063
22.880,0.070
22.885,0.074
22.890,0.068
22.895,0.045
22.900,0.012
22.905,-0.009
22.910,-0.024
22.915,-0.043
22.920,-0.053
22.925,-0.048
22.930,-0.033
22.935,-0.024
22.940,-0.030
22.945,-0.035
22.950,-0.038
22.955,-0.041
22.960,-0.037
22.965,-0.030
22.970,-0.022
22.975,-0.018
22.980,-0.018
22.985,-0.016
22.990,-0.007
22.995,-0.001
23.000,-0.001
23.005,0.000
23.010,0.002
23.015,0.001
23.020,-0.009
23.025,-0.037
23.030,-0.066
23.035,-0.089
23.040,-0.122
23.045,-0.129
23.050,-0.072
23.055,0.089
23.060,0.320
23.065,0.415
23.070,0.307
23.075,0.140
23.080,-0.015
23.085,-0.109
23.090,-0.124
23.095,-0.099
23.100,-0.037
23.105,0.007
23.110,-0.004
23.115,-0.009
23.120,0.005
23.125,-0.001
23.130,-0.011
23.135,-0.003
23.140,0.003
23.145,-0.003
23.150,-0.003
23.155,0.004
23.160,0.007
23.165,0.005
23.170,0.000
23.175,-0.004
23.180,0.001
23.185,0.004
23.190,0.000
23.195,0.002
23.200,0.004
23.205,0.006
23.210,0.004
23.215,0.000
23.220,-0.004
23.225,-0.006
23.230,-0.004
23.235,-0.002
23.240,-0.003
23.245,-0.003
23.250,-0.004
23.255,-0.003
23.260,0.001
23.265,0.002
23.270,0.003
23.275,0.003
23.280,0.005
23.285,0.009
23.290,0.009
23.295,0.005
23.300,0.004
23.305,0.006
23.310,0.009
23.315,0.013
23.320,0.015
23.325,0.012
23.330,0.015
23.335,0.023
23.340,0.030
23.345,0.030
23.350,0.026
23.355,0.025
23.360,0.022
23.365,0.016
23.370,0.011
23.375,0.006
23.380,0.002
23.385,0.003
23.390,0.002
23.395,-0.004
23.400,-0.010
23.405,-0.012
23.410,-0.009
23.415,-0.005
23.420,-0.002
23.425,-0.006
23.430,-0.009
23.435,-0.008
23.440,-0.009
23.445,-0.012
23.450,-0.012
23.455,-0.007
23.460,-0.004
23.465,-0.005
23.470,-0.009
23.475,-0.008
23.480,-0.005
23.485,-0.004
23.490,-0.001
23.495,0.002
23.500,0.000
23.505,-0.003
23.510,-0.003
23.515,-0.004
23.520,-0.008
23.525,-0.009
23.530,-0.011
23.535,-0.013
23.540,-0.010
23.545,-0.007
23.550,-0.006
23.555,-0.009
23.560,-0.011
23.565,-0.012
23.570,-0.015
23.575,-0.018
23.580,-0.015
23.585,-0.010
23.590,-0.010
23.595,-0.011
23.600,-0.017
23.605,-0.019
23.610,-0.018
23.615,-0.018
23.620,-0.013
23.625,-0.011
23.630,-0.013
23.635,-0.012
23.640,-0.013
23.645,-0.016
23.650,-0.012
23.655,-0.007
23.660,-0.008
23.665,-0.008
23.670,-0.008
23.675,-0.007
23.680,-0.004
23.685,-0.010
23.690,-0.015
23.695,-0.007
23.700,-0.003
23.705,-0.005
23.710,-0.005
23.715,-0.006
23.720,-0.006
23.725,-0.003
23.730,-0.006
23.735,-0.005
23.740,0.001
23.745,0.002
23.750,-0.006
23.755,-0.009
23.760,-0.005
23.765,-0.002
23.770,-0.002
23.775,-0.003
23.780,-0.001
23.785,-0.002
23.790,-0.003
23.795,0.001
23.800,0.004
23.805,0.005
23.810,0.002
23.815,-0.004
23.820,0.003
23.825,0.014
23.830,0.024
23.835,0.038
23.840,0.046
23.845,0.049
23.850,0.053
23.855,0.058
23.860,0.065
23.865,0.067
23.870,0.046
23.875,0.016
23.880,-0.004
23.885,-0.020
23.890,-0.035
23.895,-0.045
23.900,-0.048
23.905,-0.038
23.910,-0.032
23.915,-0.036
23.920,-0.032
23.925,-0.031
23.930,-0.039
23.935,-0.040
23.940,-0.038
23.945,-0.032
23.950,-0.028
23.955,-0.027
23.960,-0.020
23.965,-0.011
23.970,-0.008
23.975,-0.009
23.980,-0.004
23.985,0.000
23.990,-0.002
23.995,-0.013
24.000,-0.045
24.005,-0.075
24.010,-0.094
24.015,-0.117
24.020,-0.120
24.025,-0.062
24.030,0.120
24.035,0.386
24.040,0.500
24.045,0.384
24.050,0.207
24.055,0.050
24.060,-0.074
24.065,-0.134
24.070,-0.136
24.075,-0.077
24.080,-0.019
24.085,-0.024
24.090,-0.034
24.095,-0.024
24.100,-0.034
24.105,-0.041
24.110,-0.027
24.115,-0.022
24.120,-0.025
24.125,-0.020
24.130,-0.018
24.135,-0.026
24.140,-0.025
24.145,-0.020
24.150,-0.023
24.155,-0.022
24.160,-0.015
24.165,-0.016
24.170,-0.017
24.175,-0.020
24.180,-0.022
24.185,-0.016
24.190,-0.006
24.195,-0.003
24.200,-0.011
24.205,-0.020
24.210,-0.021
24.215,-0.018
24.220,-0.016
24.225,-0.016
24.230,-0.012
24.235,-0.009
24.240,-0.008
24.245,-0.010
24.250,-0.012
24.255,-0.008
24.260,-0.009
24.265,-0.012
24.270,-0.010
24.275,-0.007
24.280,-0.005
24.285,-0.002
24.290,0.000
24.295,0.011
24.300,0.021
24.305,0.024
24.310,0.031
24.315,0.038
24.320,0.040
24.325,0.035
24.330,0.034
24.335,0.040
24.340,0.042
24.345,0.037
24.350,0.027
24.355,0.019
24.360,0.019
24.365,0.022
24.370,0.022
24.375,0.016
24.380,0.014
24.385,0.015
24.390,0.012
24.395,0.012
24.400,0.010
24.405,0.009
24.410,0.008
24.415,0.005
24.420,0.006
24.425,0.010
24.430,0.013
24.435,0.010
24.440,0.009
24.445,0.011
24.450,0.007
24.455,0.004
24.460,0.004
24.465,0.002
24.470,0.004
24.475,0.004
24.480,-0.003
24.485,-0.007
24.490,-0.007
24.495,-0.007
24.500,-0.003
24.505,-0.002
24.510,-0.004
24.515,-0.009
24.520,-0.012
24.525,-0.011
24.530,-0.012
24.535,-0.012
24.540,-0.012
24.545,-0.019
24.550,-0.020
24.555,-0.015
24.560,-0.015
24.565,-0.019
24.570,-0.021
24.575,-0.019
24.580,-0.013
24.585,-0.011
24.590,-0.013
24.595,-0.012
24.600,-0.011
24.605,-0.009
24.610,-0.011
24.615,-0.013
24.620,-0.008
24.625,-0.008
24.630,-0.009
24.635,-0.013
24.640,-0.014
24.645,-0.006
24.650,-0.004
24.655,-0.008
24.660,-0.007
24.665,-0.007
24.670,-0.007
24.675,-0.004
24.680,-0.004
24.685,-0.004
24.690,-0.006
24.695,-0.007
24.700,-0.005
24.705,-0.006
24.710,-0.003
24.715,0.004
24.720,0.004
24.725,0.000
24.730,-0.008
24.735,-0.009
24.740,-0.001
24.745,0.000
24.750,-0.004
24.755,-0.005
24.760,-0.004
24.765,-0.003
24.770,0.000
24.775,0.004
24.780,0.008
24.785,0.017
24.790,0.026
24.795,0.034
24.800,0.041
24.805,0.050
24.810,0.055
24.815,0.058
24.820,0.071
24.825,0.075
24.830,0.058
24.835,0.023
24.840,-0.006
24.845,-0.018
24.850,-0.031
24.855,-0.043
24.860,-0.047
24.865,-0.042
24.870,-0.033
24.875,-0.037
24.880,-0.044
24.885,-0.045
24.890,-0.045
24.895,-0.042
24.900,-0.040
24.905,-0.035
24.910,-0.028
24.915,-0.023
24.920,-0.020
24.925,-0.019
24.930,-0.016
24.935,-0.014
24.940,-0.010
24.945,-0.002
24.950,0.000
24.955,-0.012
24.960,-0.043
24.965,-0.071
24.970,-0.087
24.975,-0.116
24.980,-0.125
24.985,-0.066
24.990,0.112
24.995,0.356
25.000,0.435
25.005,0.302
25.010,0.117
25.015,-0.049
25.020,-0.138
25.025,-0.144
25.030,-0.113
25.035,-0.045
25.040,-0.005
25.045,-0.010
25.050,-0.011
25.055,-0.005
25.060,-0.009
25.065,-0.011
25.070,-0.003
25.075,-0.008
25.080,-0.014
25.085,-0.003
25.090,0.004
25.095,-0.002
25.100,-0.007
25.105,-0.001
25.110,0.006
25.115,0.008
25.120,0.009
25.125,0.004
25.130,0.000
25.135,0.003
25.140,0.006
25.145,0.005
25.150,0.004
25.155,0.006
25.160,0.009
25.165,0.007
25.170,0.003
25.175,-0.001
25.180,0.003
25.185,0.008
25.190,0.008
25.195,0.007
25.200,0.007
25.205,0.009
25.210,0.012
25.215,0.011
25.220,0.011
25.225,0.011
25.230,0.011
25.235,0.013
25.240,0.015
25.245,0.020
25.250,0.021
25.255,0.016
25.260,0.013
25.265,0.015
25.270,0.019
25.275,0.017
25.280,0.017
25.285,0.020
25.290,0.018
25.295,0.011
25.300,0.005
25.305,0.003
25.310,0.000
25.315,-0.009
25.320,-0.014
25.325,-0.015
25.330,-0.013
25.335,-0.011
25.340,-0.012
25.345,-0.014
25.350,-0.016
25.355,-0.018
25.360,-0.018
25.365,-0.016
25.370,-0.014
25.375,-0.015
25.380,-0.019
25.385,-0.016
25.390,-0.010
25.395,-0.007
25.400,-0.007
25.405,-0.006
25.410,-0.006
25.415,-0.006
25.420,-0.006
25.425,-0.005
25.430,-0.004
25.435,-0.003
25.440,-0.001
25.445,0.001
25.450,0.001
25.455,-0.001
25.460,-0.003
25.465,-0.007
25.470,-0.008
25.475,-0.008
25.480,-0.010
25.485,-0.008
25.490,-0.007
25.495,-0.010
25.500,-0.015
25.505,-0.014
25.510,-0.010
25.515,-0.012
25.520,-0.015
25.525,-0.016
25.530,-0.016
25.535,-0.015
25.540,-0.015
25.545,-0.010
25.550,-0.008
25.555,-0.011
25.560,-0.012
25.565,-0.014
25.570,-0.013
25.575,-0.011
25.580,-0.012
25.585,-0.010
25.590,-0.007
25.595,-0.006
25.600,-0.005
25.605,-0.006
25.610,-0.008
25.615,-0.012
25.620,-0.012
25.625,-0.008
25.630,-0.003
25.635,-0.001
25.640,-0.004
25.645,-0.006
25.650,-0.006
25.655,-0.004
25.660,-0.002
25.665,-0.002
25.670,-0.004
25.675,-0.005
25.680,0.000
25.685,0.003
25.690,0.001
25.695,0.005
25.700,0.002
25.705,-0.002
25.710,-0.002
25.715,-0.001
25.720,0.001
25.725,0.002
25.730,0.004
25.735,0.003
25.740,0.001
25.745,0.002
25.750,0.004
25.755,0.008
25.760,0.013
25.765,0.020
25.770,0.035
25.775,0.043
25.780,0.046
25.785,0.055
25.790,0.061
25.795,0.066
25.800,0.068
25.805,0.058
25.810,0.039
25.815,0.014
25.820,-0.011
25.825,-0.032
25.830,-0.049
25.835,-0.058
25.840,-0.050
25.845,-0.037
25.850,-0.034
25.855,-0.032
25.860,-0.033
25.865,-0.042
25.870,-0.045
25.875,-0.044
25.880,-0.034
25.885,-0.025
25.890,-0.024
25.895,-0.017
25.900,-0.012
25.905,-0.006
25.910,-0.003
25.915,-0.003
25.920,-0.001
25.925,-0.007
25.930,-0.008
25.935,-0.020
25.940,-0.050
25.945,-0.070
25.950,-0.097
25.955,-0.131
25.960,-0.114
25.965,-0.016
25.970,0.194
25.975,0.382
25.980,0.349
25.985,0.179
25.990,0.002
25.995,-0.119
26.000,-0.135
26.005,-0.102
26.010,-0.047
26.015,0.007
26.020,0.017
26.025,0.008
26.030,0.011
26.035,0.013
26.040,0.003
26.045,0.009
26.050,0.016
26.055,0.009
26.060,0.009
26.065,0.016
26.070,0.019
26.075,0.019
26.080,0.017
26.085,0.015
26.090,0.011
26.095,0.007
26.100,0.008
26.105,0.012
26.110,0.014
26.115,0.015
26.120,0.015
26.125,0.012
26.130,0.013
26.135,0.016
26.140,0.016
26.145,0.014
26.150,0.011
26.155,0.012
26.160,0.014
26.165,0.012
26.170,0.008
26.175,0.009
26.180,0.013
26.185,0.018
26.190,0.022
26.195,0.022
26.200,0.016
26.205,0.011
26.210,0.011
26.215,0.014
26.220,0.017
26.225,0.020
26.230,0.020
26.235,0.019
26.240,0.014
26.245,0.013
26.250,0.019
26.255,0.018
26.260,0.015
26.265,0.011
26.270,0.006
26.275,0.001
26.280,-0.004
26.285,-0.007
26.290,-0.010
26.295,-0.011
26.300,-0.012
26.305,-0.016
26.310,-0.018
26.315,-0.022
26.320,-0.027
26.325,-0.028
26.330,-0.026
26.335,-0.019
26.340,-0.019
26.345,-0.021
26.350,-0.020
26.355,-0.020
26.360,-0.021
26.365,-0.023
26.370,-0.022
26.375,-0.019
26.380,-0.016
26.385,-0.014
26.390,-0.013
26.395,-0.010
26.400,-0.008
26.405,-0.004
26.410,-0.006
26.415,-0.008
26.420,-0.003
26.425,-0.004
26.430,-0.009
26.435,-0.010
26.440,-0.009
26.445,-0.009
26.450,-0.012
26.455,-0.012
26.460,-0.006
26.465,-0.004
26.470,-0.006
26.475,-0.006
26.480,-0.009
26.485,-0.013
26.490,-0.016
26.495,-0.018
26.500,-0.013
26.505,-0.009
26.510,-0.010
26.515,-0.016
26.520,-0.023
26.525,-0.019
26.530,-0.009
26.535,-0.007
26.540,-0.011
26.545,-0.014
26.550,-0.013
26.555,-0.007
26.560,0.000
26.565,-0.003
26.570,-0.007
26.575,-0.005
26.580,-0.008
26.585,-0.014
26.590,-0.014
26.595,-0.007
26.600,-0.006
26.605,-0.005
26.610,-0.004
26.615,-0.006
26.620,0.000
26.625,0.002
26.630,0.001
26.635,0.002
26.640,0.001
26.645,0.004
26.650,0.008
26.655,0.006
26.660,0.003
26.665,-0.001
26.670,0.000
26.675,0.002
26.680,0.000
26.685,-0.003
26.690,-0.004
26.695,-0.001
26.700,0.004
26.705,0.005
26.710,0.006
26.715,0.010
26.720,0.014
26.725,0.014
26.730,0.012
26.735,0.013
26.740,0.023
26.745,0.033
26.750,0.039
26.755,0.046
26.760,0.055
26.765,0.061
26.770,0.066
26.775,0.069
26.780,0.063
26.785,0.044
26.790,0.015
26.795,-0.009
26.800,-0.019
26.805,-0.029
26.810,-0.046
26.815,-0.054
26.820,-0.042
26.825,-0.031
26.830,-0.030
26.835,-0.032
26.840,-0.040
26.845,-0.047
26.850,-0.041
26.855,-0.031
26.860,-0.024
26.865,-0.021
26.870,-0.019
26.875,-0.012
26.880,-0.007
26.885,-0.011
26.890,-0.011
26.895,-0.002
26.900,0.003
26.905,-0.003
26.910,-0.024
26.915,-0.061
26.920,-0.089
26.925,-0.109
26.930,-0.130
26.935,-0.117
26.940,-0.013
26.945,0.223
26.950,0.445
26.955,0.444
26.960,0.289
26.965,0.120
26.970,-0.025
26.975,-0.111
26.980,-0.134
26.985,-0.102
26.990,-0.039
26.995,-0.013
27.000,-0.021
27.005,-0.013
27.010,-0.012
27.015,-0.030
27.020,-0.028
27.025,-0.012
27.030,-0.016
27.035,-0.024
27.040,-0.021
27.045,-0.017
27.050,-0.017
27.055,-0.013
27.060,-0.008
27.065,-0.014
27.070,-0.012
27.075,-0.006
27.080,-0.008
27.085,-0.007
27.090,-0.010
27.095,-0.015
27.100,-0.012
27.105,-0.007
27.110,-0.008
27.115,-0.011
27.120,-0.011
27.125,-0.013
27.130,-0.012
27.135,-0.011
27.140,-0.011
27.145,-0.007
27.150,-0.007
27.155,-0.013
27.160,-0.014
27.165,-0.009
27.170,-0.005
27.175,-0.005
27.180,-0.005
27.185,-0.005
27.190,-0.004
27.195,-0.002
27.200,-0.005
27.205,0.000
27.210,0.008
27.215,0.012
27.220,0.019
27.225,0.026
27.230,0.032
27.235,0.038
27.240,0.042
27.245,0.042
27.250,0.035
27.255,0.028
27.260,0.030
27.265,0.029
27.270,0.019
27.275,0.010
27.280,0.006
27.285,0.009
27.290,0.006
27.295,0.004
27.300,0.006
27.305,0.006
27.310,0.006
27.315,0.006
27.320,0.008
27.325,0.013
27.330,0.011
27.335,0.011
27.340,0.011
27.345,0.005
27.350,0.002
27.355,0.006
27.360,0.003
27.365,0.003
27.370,0.004
27.375,-0.001
27.380,0.002
27.385,0.006
27.390,0.004
27.395,0.003
27.400,0.000
27.405,-0.005
27.410,-0.006
27.415,-0.009
27.420,-0.010
27.425,-0.011
27.430,-0.014
27.435,-0.015
27.440,-0.014
27.445,-0.017
27.450,-0.017
27.455,-0.015
27.460,-0.017
27.465,-0.019
27.470,-0.010
27.475,-0.005
27.480,-0.012
27.485,-0.017
27.490,-0.016
27.495,-0.007
27.500,-0.012
27.505,-0.019
27.510,-0.015
27.515,-0.014
27.520,-0.012
27.525,-0.014
27.530,-0.017
27.535,-0.016
27.540,-0.018
27.545,-0.017
27.550,-0.012
27.555,-0.008
27.560,-0.004
27.565,-0.004
27.570,-0.008
27.575,-0.011
27.580,-0.007
27.585,-0.004
27.590,-0.009
27.595,-0.007
27.600,-0.004
27.605,-0.008
27.610,-0.010
27.615,-0.012
27.620,-0.011
27.625,-0.003
27.630,-0.001
27.635,-0.002
27.640,0.001
27.645,0.001
27.650,-0.005
27.655,-0.004
27.660,-0.004
27.665,-0.004
27.670,-0.002
27.675,-0.006
27.680,-0.004
27.685,0.007
27.690,0.014
27.695,0.025
27.700,0.034
27.705,0.040
27.710,0.045
27.715,0.047
27.720,0.054
27.725,0.064
27.730,0.065
27.735,0.056
27.740,0.035
27.745,0.009
27.750,-0.013
27.755,-0.029
27.760,-0.039
27.765,-0.044
27.770,-0.041
27.775,-0.038
27.780,-0.036
27.785,-0.037
27.790,-0.041
27.795,-0.044
27.800,-0.044
27.805,-0.039
27.810,-0.033
27.815,-0.036
27.820,-0.033
27.825,-0.021
27.830,-0.016
27.835,-0.017
27.840,-0.015
27.845,-0.005
27.850,-0.003
27.855,-0.009
27.860,-0.017
27.865,-0.043
27.870,-0.076
27.875,-0.092
27.880,-0.109
27.885,-0.119
27.890,-0.084
27.895,0.067
27.900,0.329
27.905,0.480
27.910,0.395
27.915,0.231
27.920,0.076
27.925,-0.061
27.930,-0.137
27.935,-0.146
27.940,-0.093
27.945,-0.036
27.950,-0.032
27.955,-0.032
27.960,-0.021
27.965,-0.029
27.970,-0.034
27.975,-0.019
27.980,-0.014
27.985,-0.027
27.990,-0.029
27.995,-0.020
28.000,-0.020
28.005,-0.018
28.010,-0.012
28.015,-0.014
28.020,-0.017
28.025,-0.019
28.030,-0.015
28.035,-0.013
28.040,-0.014
28.045,-0.012
28.050,-0.016
28.055,-0.018
28.060,-0.017
28.065,-0.012
28.070,-0.007
28.075,-0.008
28.080,-0.013
28.085,-0.015
28.090,-0.011
28.095,-0.006
28.100,-0.007
28.105,-0.009
28.110,-0.008
28.115,-0.009
28.120,-0.008
28.125,-0.006
28.130,-0.004
28.135,-0.004
28.140,-0.007
28.145,-0.006
28.150,0.001
28.155,0.006
28.160,0.008
28.165,0.010
28.170,0.016
28.175,0.022
28.180,0.028
28.185,0.040
28.190,0.045
28.195,0.042
28.200,0.036
28.205,0.031
28.210,0.029
28.215,0.025
28.220,0.020
28.225,0.019
28.230,0.019
28.235,0.013
28.240,0.011
28.245,0.011
28.250,0.006
28.255,0.005
28.260,0.005
28.265,0.002
28.270,0.005
28.275,0.006
28.280,0.004
28.285,0.003
28.290,0.007
28.295,0.013
28.300,0.008
28.305,0.005
28.310,0.011
28.315,0.009
28.320,0.008
28.325,0.007
28.330,0.003
28.335,0.001
28.340,0.001
28.345,0.003
28.350,0.004
28.355,0.002
28.360,-0.001
28.365,-0.002
28.370,-0.003
28.375,-0.008
28.380,-0.009
28.385,-0.012
28.390,-0.015
28.395,-0.014
28.400,-0.013
28.405,-0.011
28.410,-0.013
28.415,-0.016
28.420,-0.013
28.425,-0.013
28.430,-0.016
28.435,-0.015
28.440,-0.016
28.445,-0.014
28.450,-0.010
28.455,-0.011
28.460,-0.013
28.465,-0.013
28.470,-0.008
28.475,-0.007
28.480,-0.008
28.485,-0.010
28.490,-0.012
28.495,-0.005
28.500,-0.001
28.505,-0.007
28.510,-0.009
28.515,-0.008
28.520,-0.010
28.525,-0.010
28.530,-0.009
28.535,-0.004
28.540,0.000
28.545,-0.002
28.550,-0.004
28.555,-0.003
28.560,-0.005
28.565,-0.008
28.570,-0.001
28.575,0.004
28.580,0.000
28.585,-0.003
28.590,-0.004
28.595,-0.002
28.600,-0.003
28.605,-0.005
28.610,-0.002
28.615,0.001
28.620,-0.001
28.625,-0.001
28.630,0.001
28.635,0.004
28.640,0.007
28.645,0.013
28.650,0.021
28.655,0.029
28.660,0.041
28.665,0.049
28.670,0.056
28.675,0.064
28.680,0.067
28.685,0.071
28.690,0.068
28.695,0.043
28.700,0.014
28.705,-0.004
28.710,-0.019
28.715,-0.036
28.720,-0.048
28.725,-0.055
28.730,-0.047
28.735,-0.035
28.740,-0.033
28.745,-0.036
28.750,-0.044
28.755,-0.051
28.760,-0.047
28.765,-0.039
28.770,-0.034
28.775,-0.028
28.780,-0.024
28.785,-0.019
28.790,-0.015
28.795,-0.010
28.800,-0.006
28.805,-0.003
28.810,-0.004
28.815,-0.006
28.820,-0.022
28.825,-0.056
28.830,-0.073
28.835,-0.088
28.840,-0.124
28.845,-0.121
28.850,-0.036
28.855,0.165
28.860,0.370
28.865,0.358
28.870,0.191
28.875,0.008
28.880,-0.126
28.885,-0.147
28.890,-0.117
28.895,-0.062
28.900,-0.001
28.905,0.016
28.910,0.011
28.915,0.011
28.920,0.012
28.925,0.011
28.930,0.010
28.935,0.013
28.940,0.013
28.945,0.013
28.950,0.012
28.955,0.011
28.960,0.012
28.965,0.013
28.970,0.013
28.975,0.008
28.980,0.010
28.985,0.015
28.990,0.013
28.995,0.013
29.000,0.013
29.005,0.014
29.010,0.013
29.015,0.013
29.020,0.013
29.025,0.009
29.030,0.008
29.035,0.010
29.040,0.011
29.045,0.015
29.050,0.018
29.055,0.015
29.060,0.012
29.065,0.016
29.070,0.021
29.075,0.021
29.080,0.020
29.085,0.018
29.090,0.019
29.095,0.021
29.100,0.017
29.105,0.017
29.110,0.020
29.115,0.020
29.120,0.020
29.125,0.022
29.130,0.022
29.135,0.018
29.140,0.013
29.145,0.012
29.150,0.010
29.155,0.004
29.160,-0.003
29.165,-0.005
29.170,-0.008
29.175,-0.014
29.180,-0.018
29.185,-0.021
29.190,-0.021
29.195,-0.024
29.200,-0.028
29.205,-0.027
29.210,-0.024
29.215,-0.027
29.220,-0.026
29.225,-0.025
29.230,-0.023
29.235,-0.020
29.240,-0.019
29.245,-0.022
29.250,-0.024
29.255,-0.019
29.260,-0.015
29.265,-0.015
29.270,-0.012
29.275,-0.010
29.280,-0.011
29.285,-0.011
29.290,-0.009
29.295,-0.006
29.300,-0.006
29.305,-0.009
29.310,-0.007
29.315,-0.004
29.320,0.000
29.325,-0.001
29.330,-0.005
29.335,-0.005
29.340,-0.006
29.345,-0.007
29.350,-0.009
29.355,-0.010
29.360,-0.010
29.365,-0.012
29.370,-0.012
29.375,-0.012
29.380,-0.011
29.385,-0.011
29.390,-0.015
29.395,-0.016
29.400,-0.012
29.405,-0.013
29.410,-0.012
29.415,-0.011
29.420,-0.013
29.425,-0.013
29.430,-0.014
29.435,-0.013
29.440,-0.007
29.445,-0.006
29.450,-0.013
29.455,-0.014
29.460,-0.012
29.465,-0.008
29.470,-0.002
29.475,-0.004
29.480,-0.006
29.485,-0.003
29.490,-0.003
29.495,-0.003
29.500,-0.003
29.505,-0.005
29.510,-0.005
29.515,-0.005
29.520,-0.004
29.525,-0.002
29.530,-0.001
29.535,-0.001
29.540,-0.003
29.545,0.000
29.550,-0.001
29.555,-0.004
29.560,-0.003
29.565,-0.003
29.570,0.000
29.575,0.004
29.580,0.003
29.585,0.001
29.590,-0.002
29.595,-0.003
29.600,0.003
29.605,0.012
29.610,0.018
29.615,0.026
29.620,0.035
29.625,0.043
29.630,0.050
29.635,0.057
29.640,0.063
29.645,0.068
29.650,0.067
29.655,0.053
29.660,0.028
29.665,0.004
29.670,-0.012
29.675,-0.034
29.680,-0.052
29.685,-0.056
29.690,-0.052
29.695,-0.037
29.700,-0.032
29.705,-0.035
29.710,-0.034
29.715,-0.043
29.720,-0.048
29.725,-0.039
29.730,-0.027
29.735,-0.020
29.740,-0.017
29.745,-0.015
29.750,-0.010
29.755,-0.003
29.760,-0.001
29.765,-0.006
29.770,-0.005
29.775,-0.004
29.780,-0.004
29.785,-0.021
29.790,-0.056
29.795,-0.078
29.800,-0.108
29.805,-0.142
29.810,-0.123
29.815,-0.024
29.820,0.190
29.825,0.378
29.830,0.342
29.835,0.181
29.840,0.000
29.845,-0.119
29.850,-0.121
29.855,-0.092
29.860,-0.043
29.865,0.007
29.870,0.017
29.875,0.014
29.880,0.013
29.885,0.018
29.890,0.018
29.895,0.018
29.900,0.019
29.905,0.014
29.910,0.016
29.915,0.023
29.920,0.020
29.925,0.015
29.930,0.014
29.935,0.014
29.940,0.012
29.945,0.013
29.950,0.013
29.955,0.013
29.960,0.013
29.965,0.010
29.970,0.009
29.975,0.008
29.980,0.006
29.985,0.006
29.990,0.010
29.995,0.015
30.000,0.016
30.005,0.011
30.010,0.011
30.015,0.011
30.020,0.013
30.025,0.013
30.030,0.009
30.035,0.008
30.040,0.009
30.045,0.010
30.050,0.011
30.055,0.011
30.060,0.009
30.065,0.013
30.070,0.018
30.075,0.017
30.080,0.021
30.085,0.024
30.090,0.022
30.095,0.021
30.100,0.020
30.105,0.023
30.110,0.030
30.115,0.026
30.120,0.014
30.125,0.007
30.130,0.005
30.135,0.003
30.140,0.001
30.145,0.000
30.150,-0.002
30.155,-0.007
30.160,-0.015
30.165,-0.020
30.170,-0.013
30.175,-0.011
30.180,-0.013
30.185,-0.012
30.190,-0.011
30.195,-0.007
30.200,-0.014
30.205,-0.019
30.210,-0.014
30.215,-0.015
30.220,-0.013
30.225,-0.010
30.230,-0.014
30.235,-0.014
30.240,-0.015
30.245,-0.015
30.250,-0.013
30.255,-0.010
30.260,-0.006
30.265,-0.005
30.270,-0.004
30.275,-0.004
30.280,-0.006
30.285,-0.008
30.290,-0.009
30.295,-0.005
30.300,-0.005
30.305,-0.008
30.310,-0.010
30.315,-0.012
30.320,-0.010
30.325,-0.012
30.330,-0.013
30.335,-0.011
30.340,-0.013
30.345,-0.016
30.350,-0.021
30.355,-0.020
30.360,-0.015
30.365,-0.019
30.370,-0.020
30.375,-0.016
30.380,-0.013
30.385,-0.011
30.390,-0.020
30.395,-0.022
30.400,-0.014
30.405,-0.016
30.410,-0.020
30.415,-0.022
30.420,-0.019
30.425,-0.011
30.430,-0.009
30.435,-0.006
30.440,-0.003
30.445,-0.006
30.450,-0.013
30.455,-0.020
30.460,-0.020
30.465,-0.014
30.470,-0.009
30.475,-0.007
30.480,-0.006
30.485,-0.005
30.490,-0.006
30.495,-0.006
30.500,-0.007
30.505,-0.004
30.510,-0.002
30.515,-0.005
30.520,-0.005
30.525,-0.003
30.530,0.001
30.535,0.000
30.540,-0.005
30.545,-0.006
30.550,-0.001
30.555,0.006
30.560,0.011
30.565,0.021
30.570,0.033
30.575,0.041
30.580,0.042
30.585,0.046
30.590,0.054
30.595,0.061
30.600,0.064
30.605,0.053
30.610,0.033
30.615,0.014
30.620,-0.007
30.625,-0.027
30.630,-0.042
30.635,-0.049
30.640,-0.045
30.645,-0.037
30.650,-0.037
30.655,-0.038
30.660,-0.033
30.665,-0.036
30.670,-0.039
30.675,-0.035
30.680,-0.031
30.685,-0.027
30.690,-0.021
30.695,-0.017
30.700,-0.016
30.705,-0.010
30.710,-0.004
30.715,-0.004
30.720,-0.003
30.725,-0.001
30.730,-0.002
30.735,-0.020
30.740,-0.061
30.745,-0.091
30.750,-0.113
30.755,-0.135
30.760,-0.115
30.765,-0.001
30.770,0.250
30.775,0.476
30.780,0.471
30.785,0.317
30.790,0.146
30.795,-0.010
30.800,-0.108
30.805,-0.138
30.810,-0.108
30.815,-0.050
30.820,-0.031
30.825,-0.041
30.830,-0.026
30.835,-0.021
30.840,-0.039
30.845,-0.034
30.850,-0.020
30.855,-0.025
30.860,-0.027
30.865,-0.023
30.870,-0.024
30.875,-0.026
30.880,-0.023
30.885,-0.015
30.890,-0.017
30.895,-0.020
30.900,-0.016
30.905,-0.012
30.910,-0.012
30.915,-0.015
30.920,-0.011
30.925,-0.012
30.930,-0.015
30.935,-0.015
30.940,-0.017
30.945,-0.016
30.950,-0.013
30.955,-0.013
30.960,-0.014
30.965,-0.013
30.970,-0.010
30.975,-0.009
30.980,-0.007
30.985,-0.009
30.990,-0.015
30.995,-0.014
31.000,-0.017
31.005,-0.016
31.010,-0.008
31.015,-0.006
31.020,-0.004
31.025,0.000
31.030,0.001
31.035,0.005
31.040,0.010
31.045,0.021
31.050,0.035
31.055,0.041
31.060,0.047
31.065,0.051
31.070,0.049
31.075,0.047
31.080,0.047
31.085,0.043
31.090,0.036
31.095,0.028
31.100,0.024
31.105,0.023
31.110,0.021
31.115,0.017
31.120,0.017
31.125,0.019
31.130,0.012
31.135,0.007
31.140,0.012
31.145,0.015
31.150,0.017
31.155,0.022
31.160,0.019
31.165,0.016
31.170,0.019
31.175,0.018
31.180,0.012
31.185,0.009
31.190,0.005
31.195,0.004
31.200,0.007
31.205,0.003
31.210,0.001
31.215,0.003
31.220,0.003
31.225,0.000
31.230,-0.003
31.235,-0.001
31.240,-0.005
31.245,-0.010
31.250,-0.012
31.255,-0.013
31.260,-0.009
31.265,-0.012
31.270,-0.019
31.275,-0.016
31.280,-0.011
31.285,-0.012
31.290,-0.013
31.295,-0.015
31.300,-0.014
31.305,-0.012
31.310,-0.017
31.315,-0.021
31.320,-0.015
31.325,-0.010
31.330,-0.014
31.335,-0.018
31.340,-0.019
31.345,-0.012
31.350,-0.008
31.355,-0.011
31.360,-0.009
31.365,-0.006
31.370,-0.005
31.375,-0.006
31.380,-0.009
31.385,-0.010
31.390,-0.007
31.395,-0.007
31.400,-0.008
31.405,-0.009
31.410,-0.012
31.415,-0.013
31.420,-0.010
31.425,-0.008
31.430,-0.005
31.435,-0.001
31.440,-0.003
31.445,-0.009
31.450,-0.011
31.455,-0.007
31.460,-0.002
31.465,0.001
31.470,0.002
31.475,-0.002
31.480,-0.006
31.485,-0.007
31.490,-0.005
31.495,0.002
31.500,0.012
31.505,0.025
31.510,0.034
31.515,0.033
31.520,0.033
31.525,0.047
31.530,0.062
31.535,0.068
31.540,0.065
31.545,0.051
31.550,0.027
31.555,0.004
31.560,-0.014
31.565,-0.034
31.570,-0.046
31.575,-0.053
31.580,-0.045
31.585,-0.032
31.590,-0.037
31.595,-0.044
31.600,-0.044
31.605,-0.044
31.610,-0.044
31.615,-0.041
31.620,-0.034
31.625,-0.030
31.630,-0.026
31.635,-0.020
31.640,-0.016
31.645,-0.012
31.650,-0.014
31.655,-0.015
31.660,-0.009
31.665,-0.008
31.670,-0.015
31.675,-0.039
31.680,-0.071
31.685,-0.089
31.690,-0.111
31.695,-0.122
31.700,-0.082
31.705,0.065
31.710,0.320
31.715,0.470
31.720,0.387
31.725,0.218
31.730,0.052
31.735,-0.079
31.740,-0.139
31.745,-0.138
31.750,-0.081
31.755,-0.028
31.760,-0.029
31.765,-0.036
31.770,-0.021
31.775,-0.020
31.780,-0.030
31.785,-0.021
31.790,-0.014
31.795,-0.021
31.800,-0.020
31.805,-0.014
31.810,-0.016
31.815,-0.017
31.820,-0.014
31.825,-0.015
31.830,-0.018
31.835,-0.014
31.840,-0.006
31.845,-0.003
31.850,-0.006
31.855,-0.009
31.860,-0.010
31.865,-0.011
31.870,-0.006
31.875,-0.005
31.880,-0.007
31.885,-0.006
31.890,-0.008
31.895,-0.007
31.900,-0.010
31.905,-0.010
31.910,-0.005
31.915,-0.003
31.920,0.000
31.925,0.002
31.930,-0.001
31.935,-0.003
31.940,-0.005
31.945,-0.003
31.950,0.000
31.955,0.002
31.960,0.006
31.965,0.007
31.970,0.010
31.975,0.013
31.980,0.016
31.985,0.023
31.990,0.023
31.995,0.027
32.000,0.036
32.005,0.036
32.010,0.031
32.015,0.023
32.020,0.019
32.025,0.020
32.030,0.017
32.035,0.013
32.040,0.010
32.045,0.007
32.050,0.005
32.055,0.002
32.060,0.002
32.065,0.002
32.070,0.002
32.075,0.002
32.080,0.006
32.085,0.007
32.090,0.003
32.095,0.005
32.100,0.006
32.105,0.005
32.110,0.004
32.115,0.001
32.120,0.005
32.125,0.011
32.130,0.009
32.135,0.004
32.140,0.001
32.145,-0.001
32.150,0.002
32.155,0.004
32.160,0.005
32.165,0.003
32.170,0.000
32.175,-0.001
32.180,-0.006
32.185,-0.007
32.190,-0.004
32.195,-0.004
32.200,-0.009
32.205,-0.012
32.210,-0.014
32.215,-0.015
32.220,-0.015
32.225,-0.015
32.230,-0.013
32.235,-0.011
32.240,-0.016
32.245,-0.018
32.250,-0.014
32.255,-0.009
32.260,-0.010
32.265,-0.010
32.270,-0.007
32.275,-0.009
32.280,-0.010
32.285,-0.010
32.290,-0.014
32.295,-0.013
32.300,-0.009
32.305,-0.005
32.310,-0.002
32.315,-0.006
32.320,-0.009
32.325,-0.008
32.330,-0.008
32.335,-0.009
32.340,-0.008
32.345,-0.006
32.350,-0.005
32.355,-0.006
32.360,-0.006
32.365,-0.007
32.370,-0.005
32.375,0.000
32.380,0.000
32.385,-0.003
32.390,-0.005
32.395,-0.005
32.400,-0.001
32.405,0.001
32.410,0.003
32.415,-0.002
32.420,-0.007
32.425,-0.003
32.430,0.001
32.435,0.001
32.440,-0.001
32.445,0.000
32.450,0.003
32.455,0.004
32.460,0.014
32.465,0.026
32.470,0.034
32.475,0.041
32.480,0.048
32.485,0.058
32.490,0.065
32.495,0.066
32.500,0.067
32.505,0.056
32.510,0.028
32.515,0.002
32.520,-0.014
32.525,-0.033
32.530,-0.051
32.535,-0.059
32.540,-0.054
32.545,-0.038
32.550,-0.032
32.555,-0.032
32.560,-0.037
32.565,-0.048
32.570,-0.044
32.575,-0.037
32.580,-0.032
32.585,-0.024
32.590,-0.019
32.595,-0.013
32.600,-0.008
32.605,-0.010
32.610,-0.007
32.615,-0.004
32.620,-0.005
32.625,-0.003
32.630,-0.003
32.635,-0.021
32.640,-0.049
32.645,-0.070
32.650,-0.099
32.655,-0.130
32.660,-0.112
32.665,-0.003
32.670,0.215
32.675,0.388
32.680,0.334
32.685,0.161
32.690,-0.019
32.695,-0.131
32.700,-0.131
32.705,-0.100
32.710,-0.044
32.715,0.009
32.720,0.012
32.725,0.007
32.730,0.014
32.735,0.018
32.740,0.009
32.745,0.007
32.750,0.012
32.755,0.011
32.760,0.011
32.765,0.015
32.770,0.015
32.775,0.011
32.780,0.010
32.785,0.010
32.790,0.010
32.795,0.011
32.800,0.009
32.805,0.007
32.810,0.011
32.815,0.013
32.820,0.011
32.825,0.009
32.830,0.008
32.835,0.007
32.840,0.007
32.845,0.010
32.850,0.014
32.855,0.017
32.860,0.014
32.865,0.007
32.870,0.008
32.875,0.012
32.880,0.013
32.885,0.015
32.890,0.018
32.895,0.018
32.900,0.017
32.905,0.014
32.910,0.015
32.915,0.015
32.920,0.013
32.925,0.018
32.930,0.025
32.935,0.024
32.940,0.019
32.945,0.016
32.950,0.016
32.955,0.017
32.960,0.016
32.965,0.010
32.970,0.006
32.975,0.004
32.980,-0.001
32.985,-0.007
32.990,-0.013
32.995,-0.013
33.000,-0.011
33.005,-0.011
33.010,-0.017
33.015,-0.024
33.020,-0.022
33.025,-0.019
33.030,-0.018
33.035,-0.019
33.040,-0.022
33.045,-0.025
33.050,-0.025
33.055,-0.022
33.060,-0.018
33.065,-0.018
33.070,-0.018
33.075,-0.015
33.080,-0.014
33.085,-0.013
33.090,-0.011
33.095,-0.011
33.100,-0.013
33.105,-0.015
33.110,-0.011
33.115,-0.006
33.120,-0.005
33.125,-0.007
33.130,-0.005
33.135,0.000
33.140,-0.002
33.145,-0.002
33.150,-0.002
33.155,-0.007
33.160,-0.012
33.165,-0.015
33.170,-0.012
33.175,-0.010
33.180,-0.016
33.185,-0.019
33.190,-0.014
33.195,-0.009
33.200,-0.012
33.205,-0.015
33.210,-0.015
33.215,-0.014
33.220,-0.013
33.225,-0.018
33.230,-0.019
33.235,-0.016
33.240,-0.014
33.245,-0.007
33.250,-0.005
33.255,-0.009
33.260,-0.013
33.265,-0.014
33.270,-0.010
33.275,-0.005
33.280,-0.006
33.285,-0.010
33.290,-0.012
33.295,-0.011
33.300,-0.007
33.305,-0.003
33.310,-0.006
33.315,-0.010
33.320,-0.007
33.325,-0.005
33.330,-0.001
33.335,0.000
33.340,-0.004
33.345,-0.001
33.350,0.000
33.355,-0.001
33.360,0.001
33.365,-0.002
33.370,-0.003
33.375,0.002
33.380,0.002
33.385,0.001
33.390,0.000
33.395,-0.003
33.400,-0.004
33.405,0.001
33.410,0.005
33.415,0.006
33.420,0.005
33.425,0.006
33.430,0.006
33.435,0.003
33.440,0.002
33.445,0.008
33.450,0.020
33.455,0.032
33.460,0.035
33.465,0.040
33.470,0.051
33.475,0.059
33.480,0.068
33.485,0.070
33.490,0.066
33.495,0.053
33.500,0.026
33.505,0.000
33.510,-0.018
33.515,-0.032
33.520,-0.044
33.525,-0.056
33.530,-0.053
33.535,-0.038
33.540,-0.030
33.545,-0.030
33.550,-0.036
33.555,-0.041
33.560,-0.037
33.565,-0.036
33.570,-0.032
33.575,-0.021
33.580,-0.012
33.585,-0.008
33.590,-0.003
33.595,-0.005
33.600,-0.007
33.605,-0.001
33.610,0.003
33.615,0.003
33.620,-0.002
33.625,-0.030
33.630,-0.062
33.635,-0.084
33.640,-0.119
33.645,-0.141
33.650,-0.106
33.655,0.024
33.660,0.262
33.665,0.424
33.670,0.360
33.675,0.198
33.680,0.030
33.685,-0.088
33.690,-0.115
33.695,-0.103
33.700,-0.053
33.705,-0.003
33.710,-0.002
33.715,-0.009
33.720,0.000
33.725,0.002
33.730,-0.002
33.735,0.008
33.740,0.010
33.745,-0.002
33.750,-0.005
33.755,0.005
33.760,0.005
33.765,0.000
33.770,-0.001
33.775,0.001
33.780,0.005
33.785,0.006
33.790,0.002
33.795,0.000
33.800,0.001
33.805,0.001
33.810,0.000
33.815,-0.004
33.820,-0.006
33.825,-0.006
33.830,-0.004
33.835,-0.001
33.840,-0.003
33.845,-0.007
33.850,-0.007
33.855,-0.005
33.860,-0.002
33.865,0.002
33.870,0.002
33.875,0.002
33.880,0.003
33.885,-0.001
33.890,-0.002
33.895,0.001
33.900,0.002
33.905,0.002
33.910,0.002
33.915,0.005
33.920,0.013
33.925,0.013
33.930,0.009
33.935,0.016
33.940,0.029
33.945,0.035
33.950,0.033
33.955,0.031
33.960,0.028
33.965,0.018
33.970,0.013
33.975,0.013
33.980,0.010
33.985,0.005
33.990,0.001
33.995,-0.005
34.000,-0.001
34.005,0.006
34.010,0.003
34.015,-0.003
34.020,-0.008
34.025,-0.011
34.030,-0.007
34.035,-0.005
34.040,-0.010
34.045,-0.006
34.050,-0.005
34.055,-0.010
34.060,-0.005
34.065,-0.004
34.070,-0.009
34.075,-0.008
34.080,-0.005
34.085,0.004
34.090,0.004
34.095,-0.002
34.100,-0.002
34.105,-0.005
34.110,-0.008
34.115,-0.006
34.120,-0.006
34.125,-0.005
34.130,-0.006
34.135,-0.011
34.140,-0.013
34.145,-0.012
34.150,-0.014
34.155,-0.013
34.160,-0.013
34.165,-0.016
34.170,-0.013
34.175,-0.012
34.180,-0.015
34.185,-0.017
34.190,-0.020
34.195,-0.020
34.200,-0.017
34.205,-0.016
34.210,-0.015
34.215,-0.015
34.220,-0.015
34.225,-0.015
34.230,-0.017
34.235,-0.011
34.240,-0.007
34.245,-0.010
34.250,-0.012
34.255,-0.012
34.260,-0.009
34.265,-0.010
34.270,-0.012
34.275,-0.009
34.280,-0.007
34.285,-0.005
34.290,-0.010
34.295,-0.011
34.300,-0.010
34.305,-0.009
34.310,-0.002
34.315,0.000
34.320,-0.005
34.325,-0.008
34.330,-0.011
34.335,-0.006
34.340,0.001
34.345,-0.001
34.350,-0.006
34.355,-0.007
34.360,-0.001
34.365,0.003
34.370,0.000
34.375,-0.002
34.380,-0.005
34.385,-0.005
34.390,-0.002
34.395,0.001
34.400,0.005
34.405,0.013
34.410,0.024
34.415,0.034
34.420,0.043
34.425,0.047
34.430,0.048
34.435,0.053
34.440,0.056
34.445,0.063
34.450,0.061
34.455,0.036
34.460,0.007
34.465,-0.018
34.470,-0.034
34.475,-0.041
34.480,-0.046
34.485,-0.045
34.490,-0.035
34.495,-0.028
34.500,-0.025
34.505,-0.030
34.510,-0.044
34.515,-0.045
34.520,-0.038
34.525,-0.035
34.530,-0.032
34.535,-0.028
34.540,-0.016
34.545,-0.007
34.550,-0.011
34.555,-0.010
34.560,-0.005
34.565,0.000
34.570,0.005
34.575,-0.001
34.580,-0.030
34.585,-0.074
34.590,-0.099
34.595,-0.115
34.600,-0.128
34.605,-0.092
34.610,0.061
34.615,0.322
34.620,0.489
34.625,0.421
34.630,0.255
34.635,0.092
34.640,-0.046
34.645,-0.120
34.650,-0.134
34.655,-0.088
34.660,-0.039
34.665,-0.035
34.670,-0.035
34.675,-0.021
34.680,-0.023
34.685,-0.034
34.690,-0.032
34.695,-0.027
34.700,-0.030
34.705,-0.028
34.710,-0.022
34.715,-0.027
34.720,-0.025
34.725,-0.015
34.730,-0.013
34.735,-0.019
34.740,-0.020
34.745,-0.016
34.750,-0.012
34.755,-0.009
34.760,-0.008
34.765,-0.015
34.770,-0.019
34.775,-0.015
34.780,-0.016
34.785,-0.017
34.790,-0.018
34.795,-0.017
34.800,-0.014
34.805,-0.014
34.810,-0.015
34.815,-0.012
34.820,-0.009
34.825,-0.007
34.830,-0.009
34.835,-0.012
34.840,-0.011
34.845,-0.007
34.850,-0.006
34.855,-0.009
34.860,-0.012
34.865,-0.010
34.870,-0.001
34.875,0.005
34.880,0.004
34.885,0.010
34.890,0.023
34.895,0.033
34.900,0.040
34.905,0.042
34.910,0.040
34.915,0.041
34.920,0.040
34.925,0.037
34.930,0.032
34.935,0.027
34.940,0.022
34.945,0.024
34.950,0.023
34.955,0.017
34.960,0.012
34.965,0.006
34.970,0.012
34.975,0.018
34.980,0.014
34.985,0.010
34.990,0.006
34.995,0.008
35.000,0.015
35.005,0.016
35.010,0.018
35.015,0.018
35.020,0.012
35.025,0.006
35.030,0.003
35.035,0.003
35.040,0.001
35.045,0.001
35.050,0.007
35.055,0.009
35.060,0.005
35.065,0.001
35.070,0.001
35.075,-0.003
35.080,-0.008
35.085,-0.009
35.090,-0.009
35.095,-0.006
35.100,-0.008
35.105,-0.014
35.110,-0.012
35.115,-0.011
35.120,-0.016
35.125,-0.017
35.130,-0.015
35.135,-0.015
35.140,-0.013
35.145,-0.015
35.150,-0.018
35.155,-0.015
35.160,-0.014
35.165,-0.018
35.170,-0.013
35.175,-0.011
35.180,-0.010
35.185,-0.006
35.190,-0.011
35.195,-0.015
35.200,-0.012
35.205,-0.012
35.210,-0.007
35.215,-0.008
35.220,-0.011
35.225,-0.007
35.230,-0.005
35.235,-0.006
35.240,-0.007
35.245,-0.010
35.250,-0.015
35.255,-0.013
35.260,-0.006
35.265,-0.003
35.270,0.000
35.275,-0.005
35.280,-0.011
35.285,-0.009
35.290,-0.005
35.295,0.000
35.300,-0.001
35.305,-0.005
35.310,-0.002
35.315,-0.003
35.320,-0.006
35.325,-0.005
35.330,-0.005
35.335,-0.002
35.340,0.001
35.345,-0.001
35.350,-0.003
35.355,-0.002
35.360,0.000
35.365,0.003
35.370,0.013
35.375,0.023
35.380,0.031
35.385,0.042
35.390,0.045
35.395,0.049
35.400,0.060
35.405,0.069
35.410,0.070
35.415,0.053
35.420,0.024
35.425,-0.001
35.430,-0.019
35.435,-0.034
35.440,-0.046
35.445,-0.053
35.450,-0.047
35.455,-0.032
35.460,-0.029
35.465,-0.034
35.470,-0.040
35.475,-0.047
35.480,-0.043
35.485,-0.036
35.490,-0.032
35.495,-0.025
35.500,-0.017
35.505,-0.018
35.510,-0.016
35.515,-0.008
35.520,-0.002
35.525,-0.001
35.530,-0.002
35.535,-0.003
35.540,-0.012
35.545,-0.039
35.550,-0.072
35.555,-0.087
35.560,-0.111
35.565,-0.127
35.570,-0.076
35.575,0.085
35.580,0.324
35.585,0.438
35.590,0.331
35.595,0.153
35.600,-0.020
35.605,-0.127
35.610,-0.136
35.615,-0.107
35.620,-0.048
35.625,-0.007
35.630,-0.012
35.635,-0.010
35.640,0.001
35.645,-0.006
35.650,-0.011
35.655,0.000
35.660,0.000
35.665,-0.010
35.670,-0.005
35.675,0.001
35.680,0.000
35.685,-0.004
35.690,-0.005
35.695,-0.001
35.700,-0.003
35.705,-0.004
35.710,-0.002
35.715,-0.001
35.720,0.002
35.725,0.004
35.730,0.000
35.735,0.001
35.740,0.002
35.745,0.000
35.750,-0.001
35.755,0.000
35.760,0.002
35.765,0.000
35.770,0.002
35.775,0.008
35.780,0.012
35.785,0.012
35.790,0.007
35.795,0.006
35.800,0.007
35.805,0.004
35.810,0.004
35.815,0.008
35.820,0.015
35.825,0.016
35.830,0.013
35.835,0.013
35.840,0.013
35.845,0.016
35.850,0.018
35.855,0.017
35.860,0.019
35.865,0.022
35.870,0.021
35.875,0.018
35.880,0.012
35.885,0.009
35.890,0.007
35.895,0.000
35.900,-0.004
35.905,-0.004
35.910,-0.005
35.915,-0.012
35.920,-0.017
35.925,-0.011
35.930,-0.007
35.935,-0.009
35.940,-0.012
35.945,-0.014
35.950,-0.012
35.955,-0.012
35.960,-0.014
35.965,-0.011
35.970,-0.008
35.975,-0.008
35.980,-0.006
35.985,-0.004
35.990,-0.005
35.995,-0.005
36.000,-0.002
36.005,-0.003
36.010,-0.007
36.015,-0.005
36.020,-0.001
36.025,0.004
36.030,0.004
36.035,-0.001
36.040,-0.003
36.045,-0.004
36.050,-0.008
36.055,-0.008
36.060,-0.008
36.065,-0.013
36.070,-0.014
36.075,-0.012
36.080,-0.013
36.085,-0.013
36.090,-0.014
36.095,-0.016
36.100,-0.011
36.105,-0.008
36.110,-0.010
36.115,-0.012
36.120,-0.016
36.125,-0.012
36.130,-0.009
36.135,-0.011
36.140,-0.008
36.145,-0.006
36.150,-0.007
36.155,-0.007
36.160,-0.007
36.165,-0.005
36.170,-0.003
36.175,-0.009
36.180,-0.014
36.185,-0.007
36.190,-0.003
36.195,-0.002
36.200,-0.001
36.205,-0.005
36.210,-0.005
36.215,-0.003
36.220,-0.006
36.225,-0.004
36.230,0.002
36.235,0.000
36.240,-0.001
36.245,-0.001
36.250,-0.005
36.255,-0.006
36.260,-0.001
36.265,0.004
36.270,0.009
36.275,0.002
36.280,-0.009
36.285,-0.011
36.290,-0.009
36.295,-0.007
36.300,-0.002
36.305,-0.002
36.310,-0.001
36.315,-0.002
36.320,-0.004
36.325,-0.001
36.330,-0.002
36.335,-0.004
36.340,-0.005
36.345,-0.003
36.350,0.004
36.355,0.008
36.360,0.013
36.365,0.020
36.370,0.030
36.375,0.041
36.380,0.047
36.385,0.054
36.390,0.063
36.395,0.069
36.400,0.067
36.405,0.062
36.410,0.043
36.415,0.012
36.420,-0.006
36.425,-0.021
36.430,-0.041
36.435,-0.053
36.440,-0.056
36.445,-0.045
36.450,-0.029
36.455,-0.028
36.460,-0.031
36.465,-0.035
36.470,-0.041
36.475,-0.037
36.480,-0.026
36.485,-0.022
36.490,-0.022
36.495,-0.019
36.500,-0.015
36.505,-0.009
36.510,-0.005
36.515,-0.007
36.520,-0.005
36.525,-0.004
36.530,-0.004
36.535,-0.010
36.540,-0.037
36.545,-0.066
36.550,-0.090
36.555,-0.123
36.560,-0.124
36.565,-0.059
36.570,0.114
36.575,0.343
36.580,0.403
36.585,0.265
36.590,0.080
36.595,-0.069
36.600,-0.127
36.605,-0.114
36.610,-0.074
36.615,-0.017
36.620,0.011
36.625,0.003
36.630,0.003
36.635,0.012
36.640,0.002
36.645,-0.001
36.650,0.011
36.655,0.015
36.660,0.012
36.665,0.009
36.670,0.010
36.675,0.009
36.680,0.009
36.685,0.013
36.690,0.010
36.695,0.007
36.700,0.012
36.705,0.013
36.710,0.009
36.715,0.006
36.720,0.008
36.725,0.008
36.730,0.004
36.735,0.007
36.740,0.006
36.745,0.001
36.750,0.000
36.755,0.003
36.760,0.012
36.765,0.016
36.770,0.011
36.775,0.007
36.780,0.008
36.785,0.009
36.790,0.011
36.795,0.014
36.800,0.015
36.805,0.013
36.810,0.011
36.815,0.010
36.820,0.011
36.825,0.014
36.830,0.013
36.835,0.014
36.840,0.018
36.845,0.020
36.850,0.021
36.855,0.020
36.860,0.020
36.865,0.019
36.870,0.012
36.875,0.004
36.880,0.002
36.885,-0.001
36.890,-0.007
36.895,-0.011
36.900,-0.013
36.905,-0.013
36.910,-0.016
36.915,-0.019
36.920,-0.019
36.925,-0.018
36.930,-0.022
36.935,-0.024
36.940,-0.019
36.945,-0.015
36.950,-0.018
36.955,-0.016
36.960,-0.014
36.965,-0.012
36.970,-0.013
36.975,-0.019
36.980,-0.020
36.985,-0.015
36.990,-0.010
36.995,-0.007
37.000,-0.005
37.005,-0.006
37.010,-0.007
37.015,-0.006
37.020,-0.005
37.025,-0.003
37.030,-0.003
37.035,-0.006
37.040,-0.010
37.045,-0.009
37.050,-0.008
37.055,-0.009
37.060,-0.012
37.065,-0.015
37.070,-0.016
37.075,-0.014
37.080,-0.013
37.085,-0.011
37.090,-0.013
37.095,-0.018
37.100,-0.016
37.105,-0.009
37.110,-0.010
37.115,-0.019
37.120,-0.018
37.125,-0.013
37.130,-0.010
37.135,-0.014
37.140,-0.019
37.145,-0.015
37.150,-0.011
37.155,-0.012
37.160,-0.013
37.165,-0.011
37.170,-0.010
37.175,-0.010
37.180,-0.012
37.185,-0.011
37.190,-0.007
37.195,-0.004
37.200,-0.005
37.205,-0.005
37.210,-0.004
37.215,-0.007
37.220,-0.004
37.225,-0.005
37.230,-0.012
37.235,-0.008
37.240,-0.005
37.245,-0.004
37.250,-0.004
37.255,-0.006
37.260,0.001
37.265,0.005
37.270,0.000
37.275,-0.003
37.280,0.001
37.285,0.003
37.290,0.000
37.295,0.000
37.300,0.000
37.305,0.000
37.310,0.001
37.315,0.001
37.320,0.003
37.325,0.003
37.330,-0.002
37.335,0.000
37.340,0.002
37.345,0.002
37.350,0.007
37.355,0.016
37.360,0.024
37.365,0.028
37.370,0.035
37.375,0.047
37.380,0.056
37.385,0.061
37.390,0.064
37.395,0.070
37.400,0.068
37.405,0.045
37.410,0.017
37.415,-0.006
37.420,-0.020
37.425,-0.035
37.430,-0.051
37.435,-0.051
37.440,-0.040
37.445,-0.028
37.450,-0.023
37.455,-0.025
37.460,-0.034
37.465,-0.042
37.470,-0.034
37.475,-0.024
37.480,-0.020
37.485,-0.016
37.490,-0.016
37.495,-0.009
37.500,-0.004
37.505,-0.008
37.510,-0.003
37.515,0.002
37.520,0.000
37.525,-0.001
37.530,-0.013
37.535,-0.044
37.540,-0.073
37.545,-0.097
37.550,-0.133
37.555,-0.133
37.560,-0.046
37.565,0.157
37.570,0.394
37.575,0.445
37.580,0.308
37.585,0.140
37.590,-0.014
37.595,-0.111
37.600,-0.129
37.605,-0.099
37.610,-0.036
37.615,-0.009
37.620,-0.021
37.625,-0.015
37.630,-0.008
37.635,-0.014
37.640,-0.015
37.645,-0.008
37.650,-0.010
37.655,-0.017
37.660,-0.011
37.665,-0.005
37.670,-0.007
37.675,-0.007
37.680,-0.006
37.685,-0.010
37.690,-0.014
37.695,-0.012
37.700,-0.009
37.705,-0.009
37.710,-0.007
37.715,-0.008
37.720,-0.009
37.725,-0.009
37.730,-0.011
37.735,-0.014
37.740,-0.016
37.745,-0.011
37.750,-0.008
37.755,-0.007
37.760,-0.006
37.765,-0.007
37.770,-0.010
37.775,-0.011
37.780,-0.012
37.785,-0.012
37.790,-0.007
37.795,-0.005
37.800,-0.005
37.805,-0.002
37.810,-0.003
37.815,-0.005
37.820,0.000
37.825,0.004
37.830,0.004
37.835,0.007
37.840,0.015
37.845,0.026
37.850,0.030
37.855,0.031
37.860,0.034
37.865,0.032
37.870,0.028
37.875,0.021
37.880,0.014
37.885,0.016
37.890,0.015
37.895,0.009
37.900,0.006
37.905,0.003
37.910,0.005
37.915,0.008
37.920,0.001
37.925,-0.002
37.930,0.001
37.935,0.001
37.940,-0.009
37.945,-0.010
37.950,-0.002
37.955,0.003
37.960,0.003
37.965,-0.005
37.970,-0.006
37.975,0.001
37.980,0.000
37.985,0.001
37.990,0.004
37.995,0.004
38.000,0.005
38.005,0.003
38.010,-0.001
38.015,-0.002
38.020,-0.005
38.025,-0.009
38.030,-0.009
38.035,-0.011
38.040,-0.010
38.045,-0.008
38.050,-0.009
38.055,-0.008
38.060,-0.009
38.065,-0.011
38.070,-0.008
38.075,-0.015
38.080,-0.024
38.085,-0.021
38.090,-0.020
38.095,-0.017
38.100,-0.010
38.105,-0.010
38.110,-0.013
38.115,-0.015
38.120,-0.017
38.125,-0.016
38.130,-0.016
38.135,-0.013
38.140,-0.008
38.145,-0.009
38.150,-0.010
38.155,-0.011
38.160,-0.008
38.165,-0.008
38.170,-0.011
38.175,-0.011
38.180,-0.008
38.185,-0.006
38.190,-0.005
38.195,-0.001
38.200,-0.004
38.205,-0.010
38.210,-0.009
38.215,-0.008
38.220,-0.003
38.225,-0.004
38.230,-0.009
38.235,-0.006
38.240,0.000
38.245,0.002
38.250,0.000
38.255,-0.004
38.260,-0.005
38.265,0.000
38.270,0.006
38.275,0.000
38.280,-0.005
38.285,-0.004
38.290,-0.003
38.295,-0.003
38.300,-0.002
38.305,0.001
38.310,0.004
38.315,0.000
38.320,-0.001
38.325,0.005
38.330,0.006
38.335,0.003
38.340,0.009
38.345,0.027
38.350,0.038
38.355,0.039
38.360,0.041
38.365,0.046
38.370,0.058
38.375,0.065
38.380,0.067
38.385,0.062
38.390,0.040
38.395,0.012
38.400,-0.014
38.405,-0.033
38.410,-0.040
38.415,-0.045
38.420,-0.048
38.425,-0.042
38.430,-0.038
38.435,-0.034
38.440,-0.031
38.445,-0.037
38.450,-0.041
38.455,-0.039
38.460,-0.030
38.465,-0.022
38.470,-0.015
38.475,-0.011
38.480,-0.011
38.485,-0.010
38.490,-0.010
38.495,-0.007
38.500,-0.002
38.505,-0.003
38.510,-0.003
38.515,-0.020
38.520,-0.062
38.525,-0.093
38.530,-0.115
38.535,-0.126
38.540,-0.100
38.545,0.003
38.550,0.241
38.555,0.460
38.560,0.455
38.565,0.303
38.570,0.130
38.575,-0.020
38.580,-0.113
38.585,-0.140
38.590,-0.106
38.595,-0.044
38.600,-0.025
38.605,-0.034
38.610,-0.021
38.615,-0.019
38.620,-0.032
38.625,-0.024
38.630,-0.012
38.635,-0.019
38.640,-0.024
38.645,-0.017
38.650,-0.016
38.655,-0.020
38.660,-0.020
38.665,-0.019
38.670,-0.018
38.675,-0.015
38.680,-0.012
38.685,-0.015
38.690,-0.019
38.695,-0.018
38.700,-0.017
38.705,-0.016
38.710,-0.012
38.715,-0.014
38.720,-0.015
38.725,-0.012
38.730,-0.011
38.735,-0.009
38.740,-0.014
38.745,-0.015
38.750,-0.011
38.755,-0.012
38.760,-0.014
38.765,-0.011
38.770,-0.009
38.775,-0.009
38.780,-0.010
38.785,-0.007
38.790,-0.005
38.795,-0.003
38.800,-0.003
38.805,-0.001
38.810,0.004
38.815,0.008
38.820,0.008
38.825,0.016
38.830,0.031
38.835,0.036
38.840,0.035
38.845,0.034
38.850,0.034
38.855,0.035
38.860,0.032
38.865,0.027
38.870,0.028
38.875,0.025
38.880,0.017
38.885,0.015
38.890,0.012
38.895,0.006
38.900,0.004
38.905,0.003
38.910,0.006
38.915,0.007
38.920,0.009
38.925,0.009
38.930,0.006
38.935,0.005
38.940,0.004
38.945,0.009
38.950,0.012
38.955,0.010
38.960,0.009
38.965,0.007
38.970,0.008
38.975,0.007
38.980,0.001
38.985,0.002
38.990,0.005
38.995,0.004
39.000,-0.001
39.005,-0.002
39.010,-0.001
39.015,-0.001
39.020,-0.001
39.025,-0.009
39.030,-0.012
39.035,-0.008
39.040,-0.009
39.045,-0.005
39.050,-0.008
39.055,-0.014
39.060,-0.016
39.065,-0.020
39.070,-0.018
39.075,-0.015
39.080,-0.014
39.085,-0.013
39.090,-0.014
39.095,-0.014
39.100,-0.015
39.105,-0.012
39.110,-0.009
39.115,-0.012
39.120,-0.017
39.125,-0.015
39.130,-0.011
39.135,-0.010
39.140,-0.011
39.145,-0.009
39.150,-0.008
39.155,-0.006
39.160,-0.004
39.165,-0.008
39.170,-0.008
39.175,-0.006
39.180,-0.009
39.185,-0.010
39.190,-0.007
39.195,-0.005
39.200,-0.004
39.205,-0.007
39.210,-0.009
39.215,-0.005
39.220,-0.003
39.225,-0.005
39.230,-0.004
39.235,0.000
39.240,-0.001
39.245,-0.004
39.250,-0.003
39.255,-0.003
39.260,-0.003
39.265,-0.004
39.270,-0.002
39.275,-0.001
39.280,-0.003
39.285,-0.001
39.290,0.000
39.295,0.000
39.300,0.004
39.305,0.001
39.310,0.000
39.315,0.010
39.320,0.026
39.325,0.035
39.330,0.036
39.335,0.044
39.340,0.051
39.345,0.060
39.350,0.070
39.355,0.071
39.360,0.060
39.365,0.028
39.370,-0.004
39.375,-0.018
39.380,-0.035
39.385,-0.050
39.390,-0.054
39.395,-0.049
39.400,-0.036
39.405,-0.035
39.410,-0.034
39.415,-0.033
39.420,-0.043
39.425,-0.046
39.430,-0.043
39.435,-0.035
39.440,-0.026
39.445,-0.020
39.450,-0.015
39.455,-0.011
39.460,-0.009
39.465,-0.009
39.470,-0.008
39.475,-0.006
39.480,-0.004
39.485,0.006
39.490,0.022
39.495,0.030
39.500,0.019
39.505,-0.014
39.510,-0.048
39.515,-0.024
39.520,0.100
39.525,0.324
39.530,0.480
39.535,0.405
39.540,0.222
39.545,0.042
39.550,-0.081
39.555,-0.096
39.560,-0.071
39.565,-0.019
39.570,0.030
39.575,0.027
39.580,0.017
39.585,0.019
39.590,0.014
39.595,0.007
39.600,0.014
39.605,0.017
39.610,0.005
39.615,0.003
39.620,0.007
39.625,0.000
39.630,-0.003
39.635,0.003
39.640,0.003
39.645,-0.003
39.650,-0.006
39.655,-0.006
39.660,-0.010
39.665,-0.014
39.670,-0.010
39.675,-0.008
39.680,-0.014
39.685,-0.017
39.690,-0.017
39.695,-0.016
39.700,-0.014
39.705,-0.018
39.710,-0.023
39.715,-0.025
39.720,-0.020
39.725,-0.012
39.730,-0.012
39.735,-0.015
39.740,-0.020
39.745,-0.023
39.750,-0.018
39.755,-0.013
39.760,-0.011
39.765,-0.011
39.770,-0.017
39.775,-0.015
39.780,-0.008
39.785,-0.006
39.790,-0.004
39.795,-0.003
39.800,-0.004
39.805,-0.007
39.810,-0.011
39.815,-0.012
39.820,-0.011
39.825,-0.016
39.830,-0.021
39.835,-0.024
39.840,-0.027
39.845,-0.030
39.850,-0.035
39.855,-0.038
39.860,-0.038
39.865,-0.040
39.870,-0.040
39.875,-0.036
39.880,-0.031
39.885,-0.034
39.890,-0.039
39.895,-0.040
39.900,-0.042
39.905,-0.039
39.910,-0.035
39.915,-0.034
39.920,-0.032
39.925,-0.033
39.930,-0.035
39.935,-0.029
39.940,-0.027
39.945,-0.027
39.950,-0.025
39.955,-0.023
39.960,-0.019
39.965,-0.015
39.970,-0.011
39.975,-0.013
39.980,-0.016
39.985,-0.016
39.990,-0.019
39.995,-0.016
40.000,-0.012
40.005,-0.011
40.010,-0.011
40.015,-0.018
40.020,-0.020
40.025,-0.016
40.030,-0.018
40.035,-0.021
40.040,-0.020
40.045,-0.016
40.050,-0.016
40.055,-0.020
40.060,-0.017
40.065,-0.015
40.070,-0.017
40.075,-0.015
40.080,-0.016
40.085,-0.016
40.090,-0.014
40.095,-0.013
40.100,-0.012
40.105,-0.014
40.110,-0.012
40.115,-0.009
40.120,-0.009
40.125,-0.011
40.130,-0.013
40.135,-0.003
40.140,0.001
40.145,-0.002
40.150,-0.002
40.155,-0.006
40.160,-0.006
40.165,-0.005
40.170,-0.005
40.175,0.000
40.180,-0.001
40.185,-0.001
40.190,0.002
40.195,0.003
40.200,0.004
40.205,0.003
40.210,0.000
40.215,0.001
40.220,0.008
40.225,0.008
40.230,0.006
40.235,0.009
40.240,0.009
40.245,0.005
40.250,0.004
40.255,0.006
40.260,0.008
40.265,0.006
40.270,0.003
40.275,0.007
40.280,0.013
40.285,0.010
40.290,0.007
40.295,0.007
40.300,0.015
40.305,0.032
40.310,0.042
40.315,0.046
40.320,0.055
40.325,0.062
40.330,0.070
40.335,0.076
40.340,0.073
40.345,0.060
40.350,0.035
40.355,0.011
40.360,-0.006
40.365,-0.023
40.370,-0.041
40.375,-0.052
40.380,-0.050
40.385,-0.036
40.390,-0.025
40.395,-0.023
40.400,-0.029
40.405,-0.037
40.410,-0.036
40.415,-0.029
40.420,-0.020
40.425,-0.018
40.430,-0.018
40.435,-0.013
40.440,-0.009
40.445,-0.002
40.450,0.003
40.455,0.001
40.460,0.001
40.465,-0.001
40.470,-0.001
40.475,-0.012
40.480,-0.044
40.485,-0.068
40.490,-0.097
40.495,-0.130
40.500,-0.115
40.505,-0.011
40.510,0.205
40.515,0.389
40.520,0.357
40.525,0.194
40.530,0.016
40.535,-0.107
40.540,-0.126
40.545,-0.106
40.550,-0.053
40.555,0.007
40.560,0.015
40.565,0.008
40.570,0.011
40.575,0.013
40.580,0.011
40.585,0.010
40.590,0.008
40.595,0.009
40.600,0.013
40.605,0.014
40.610,0.017
40.615,0.012
40.620,0.007
40.625,0.010
40.630,0.010
40.635,0.012
40.640,0.012
40.645,0.007
40.650,0.007
40.655,0.009
40.660,0.009
40.665,0.005
40.670,0.002
40.675,0.004
40.680,0.008
40.685,0.011
40.690,0.007
40.695,0.003
40.700,0.004
40.705,0.004
40.710,0.010
40.715,0.014
40.720,0.014
40.725,0.011
40.730,0.006
40.735,0.012
40.740,0.015
40.745,0.009
40.750,0.008
40.755,0.012
40.760,0.013
40.765,0.012
40.770,0.015
40.775,0.018
40.780,0.021
40.785,0.021
40.790,0.016
40.795,0.020
40.800,0.026
40.805,0.024
40.810,0.022
40.815,0.015
40.820,0.009
40.825,0.003
40.830,-0.002
40.835,0.001
40.840,0.000
40.845,-0.011
40.850,-0.018
40.855,-0.017
40.860,-0.010
40.865,-0.007
40.870,-0.013
40.875,-0.015
40.880,-0.012
40.885,-0.015
40.890,-0.016
40.895,-0.018
40.900,-0.022
40.905,-0.014
40.910,-0.005
40.915,-0.004
40.920,-0.006
40.925,-0.006
40.930,-0.007
40.935,-0.006
40.940,-0.003
40.945,0.000
40.950,-0.002
40.955,-0.007
40.960,-0.009
40.965,-0.008
40.970,-0.002
40.975,0.001
40.980,-0.002
40.985,-0.002
40.990,-0.004
40.995,-0.008
41.000,-0.007
41.005,-0.010
41.010,-0.013
41.015,-0.009
41.020,-0.004
41.025,-0.005
41.030,-0.011
41.035,-0.016
41.040,-0.018
41.045,-0.018
41.050,-0.016
41.055,-0.012
41.060,-0.008
41.065,-0.012
41.070,-0.016
41.075,-0.016
41.080,-0.015
41.085,-0.014
41.090,-0.013
41.095,-0.010
41.100,-0.010
41.105,-0.010
41.110,-0.006
41.115,-0.007
41.120,-0.005
41.125,-0.007
41.130,-0.010
41.135,-0.005
41.140,-0.004
41.145,-0.004
41.150,-0.002
41.155,-0.007
41.160,-0.008
41.165,-0.004
41.170,-0.003
41.175,-0.003
41.180,-0.003
41.185,-0.002
41.190,0.000
41.195,-0.002
41.200,-0.005
41.205,-0.005
41.210,-0.003
41.215,0.002
41.220,0.005
41.225,0.001
41.230,0.000
41.235,0.003
41.240,0.000
41.245,-0.006
41.250,-0.008
41.255,-0.002
41.260,0.009
41.265,0.011
41.270,0.013
41.275,0.023
41.280,0.032
41.285,0.038
41.290,0.044
41.295,0.048
41.300,0.056
41.305,0.062
41.310,0.070
41.315,0.066
41.320,0.038
41.325,0.011
41.330,-0.010
41.335,-0.025
41.340,-0.038
41.345,-0.053
41.350,-0.055
41.355,-0.042
41.360,-0.032
41.365,-0.029
41.370,-0.029
41.375,-0.030
41.380,-0.035
41.385,-0.040
41.390,-0.036
41.395,-0.022
41.400,-0.015
41.405,-0.014
41.410,-0.010
41.415,-0.006
41.420,-0.002
41.425,-0.001
41.430,-0.006
41.435,-0.003
41.440,-0.004
41.445,-0.026
41.450,-0.062
41.455,-0.091
41.460,-0.112
41.465,-0.130
41.470,-0.112
41.475,-0.001
41.480,0.244
41.485,0.466
41.490,0.461
41.495,0.302
41.500,0.130
41.505,-0.018
41.510,-0.109
41.515,-0.138
41.520,-0.106
41.525,-0.041
41.530,-0.015
41.535,-0.025
41.540,-0.024
41.545,-0.020
41.550,-0.032
41.555,-0.030
41.560,-0.016
41.565,-0.021
41.570,-0.023
41.575,-0.018
41.580,-0.025
41.585,-0.025
41.590,-0.015
41.595,-0.014
41.600,-0.022
41.605,-0.021
41.610,-0.012
41.615,-0.010
41.620,-0.012
41.625,-0.014
41.630,-0.017
41.635,-0.015
41.640,-0.015
41.645,-0.018
41.650,-0.021
41.655,-0.018
41.660,-0.011
41.665,-0.013
41.670,-0.016
41.675,-0.019
41.680,-0.022
41.685,-0.018
41.690,-0.017
41.695,-0.017
41.700,-0.008
41.705,-0.005
41.710,-0.010
41.715,-0.012
41.720,-0.014
41.725,-0.010
41.730,-0.002
41.735,0.002
41.740,0.001
41.745,0.003
41.750,0.014
41.755,0.022
41.760,0.032
41.765,0.039
41.770,0.041
41.775,0.045
41.780,0.041
41.785,0.034
41.790,0.032
41.795,0.032
41.800,0.035
41.805,0.033
41.810,0.024
41.815,0.015
41.820,0.014
41.825,0.022
41.830,0.023
41.835,0.015
41.840,0.010
41.845,0.010
41.850,0.008
41.855,0.008
41.860,0.011
41.865,0.012
41.870,0.015
41.875,0.013
41.880,0.006
41.885,0.003
41.890,0.003
41.895,0.004
41.900,0.010
41.905,0.015
41.910,0.013
41.915,0.010
41.920,0.006
41.925,0.001
41.930,-0.001
41.935,-0.003
41.940,-0.005
41.945,-0.007
41.950,-0.012
41.955,-0.015
41.960,-0.012
41.965,-0.009
41.970,-0.009
41.975,-0.011
41.980,-0.013
41.985,-0.014
41.990,-0.016
41.995,-0.014
42.000,-0.010
42.005,-0.009
42.010,-0.015
42.015,-0.024
42.020,-0.022
42.025,-0.014
42.030,-0.013
42.035,-0.013
42.040,-0.013
42.045,-0.008
42.050,-0.002
42.055,-0.007
42.060,-0.013
42.065,-0.013
42.070,-0.011
42.075,-0.009
42.080,-0.011
42.085,-0.012
42.090,-0.009
42.095,-0.008
42.100,-0.012
42.105,-0.016
42.110,-0.013
42.115,-0.010
42.120,-0.010
42.125,-0.013
42.130,-0.007
42.135,0.001
42.140,0.000
42.145,-0.003
42.150,-0.008
42.155,-0.006
42.160,0.001
42.165,-0.004
42.170,-0.007
42.175,-0.004
42.180,-0.006
42.185,-0.003
42.190,-0.004
42.195,-0.012
42.200,-0.008
42.205,-0.003
42.210,0.000
42.215,0.008
42.220,0.022
42.225,0.033
42.230,0.040
42.235,0.046
42.240,0.052
42.245,0.056
42.250,0.060
42.255,0.062
42.260,0.055
42.265,0.031
42.270,0.002
42.275,-0.019
42.280,-0.033
42.285,-0.046
42.290,-0.058
42.295,-0.051
42.300,-0.039
42.305,-0.036
42.310,-0.037
42.315,-0.042
42.320,-0.046
42.325,-0.045
42.330,-0.044
42.335,-0.037
42.340,-0.033
42.345,-0.028
42.350,-0.018
42.355,-0.014
42.360,-0.010
42.365,-0.009
42.370,-0.012
42.375,-0.010
42.380,-0.007
42.385,-0.014
42.390,-0.048
42.395,-0.085
42.400,-0.103
42.405,-0.120
42.410,-0.124
42.415,-0.069
42.420,0.120
42.425,0.385
42.430,0.487
42.435,0.367
42.440,0.192
42.445,0.034
42.450,-0.088
42.455,-0.140
42.460,-0.130
42.465,-0.068
42.470,-0.023
42.475,-0.030
42.480,-0.033
42.485,-0.019
42.490,-0.020
42.495,-0.027
42.500,-0.020
42.505,-0.021
42.510,-0.031
42.515,-0.030
42.520,-0.019
42.525,-0.013
42.530,-0.013
42.535,-0.012
42.540,-0.018
42.545,-0.021
42.550,-0.014
42.555,-0.015
42.560,-0.021
42.565,-0.019
42.570,-0.007
42.575,-0.002
42.580,-0.009
42.585,-0.012
42.590,-0.010
42.595,-0.002
42.600,-0.001
42.605,-0.012
42.610,-0.015
42.615,-0.007
42.620,-0.002
42.625,0.000
42.630,-0.002
42.635,-0.005
42.640,-0.008
42.645,-0.007
42.650,-0.003
42.655,-0.003
42.660,-0.003
42.665,-0.005
42.670,-0.003
42.675,0.004
42.680,0.010
42.685,0.015
42.690,0.020
42.695,0.024
42.700,0.027
42.705,0.028
42.710,0.034
42.715,0.039
42.720,0.038
42.725,0.036
42.730,0.031
42.735,0.032
42.740,0.031
42.745,0.026
42.750,0.020
42.755,0.012
42.760,0.011
42.765,0.010
42.770,0.006
42.775,0.009
42.780,0.009
42.785,0.005
42.790,0.002
42.795,-0.001
42.800,0.005
42.805,0.009
42.810,0.006
42.815,0.008
42.820,0.008
42.825,0.009
42.830,0.009
42.835,0.006
42.840,0.006
42.845,0.007
42.850,0.010
42.855,0.011
42.860,0.009
42.865,0.005
42.870,0.005
42.875,0.006
42.880,0.001
42.885,0.000
42.890,-0.002
42.895,-0.007
42.900,-0.010
42.905,-0.014
42.910,-0.015
42.915,-0.016
42.920,-0.014
42.925,-0.007
42.930,-0.009
42.935,-0.013
42.940,-0.014
42.945,-0.014
42.950,-0.010
42.955,-0.012
42.960,-0.017
42.965,-0.014
42.970,-0.007
42.975,-0.009
42.980,-0.013
42.985,-0.013
42.990,-0.013
42.995,-0.010
43.000,-0.011
43.005,-0.014
43.010,-0.010
43.015,-0.006
43.020,-0.005
43.025,-0.006
43.030,-0.009
43.035,-0.007
43.040,-0.003
43.045,-0.006
43.050,-0.009
43.055,-0.008
43.060,-0.002
43.065,0.004
43.070,0.000
43.075,-0.003
43.080,-0.005
43.085,-0.006
43.090,-0.004
43.095,-0.005
43.100,-0.006
43.105,-0.004
43.110,-0.004
43.115,-0.008
43.120,-0.007
43.125,-0.003
43.130,0.002
43.135,0.003
43.140,0.001
43.145,0.002
43.150,0.001
43.155,-0.003
43.160,-0.002
43.165,-0.001
43.170,0.007
43.175,0.022
43.180,0.031
43.185,0.039
43.190,0.046
43.195,0.047
43.200,0.054
43.205,0.064
43.210,0.068
43.215,0.062
43.220,0.042
43.225,0.013
43.230,-0.008
43.235,-0.025
43.240,-0.043
43.245,-0.054
43.250,-0.057
43.255,-0.050
43.260,-0.037
43.265,-0.034
43.270,-0.040
43.275,-0.044
43.280,-0.048
43.285,-0.045
43.290,-0.040
43.295,-0.037
43.300,-0.027
43.305,-0.018
43.310,-0.016
43.315,-0.014
43.320,-0.013
43.325,-0.013
43.330,-0.008
43.335,-0.001
43.340,-0.003
43.345,-0.020
43.350,-0.051
43.355,-0.074
43.360,-0.092
43.365,-0.123
43.370,-0.124
43.375,-0.044
43.380,0.155
43.385,0.373
43.390,0.387
43.395,0.233
43.400,0.050
43.405,-0.096
43.410,-0.143
43.415,-0.127
43.420,-0.079
43.425,-0.014
43.430,0.008
43.435,-0.001
43.440,0.003
43.445,0.009
43.450,0.000
43.455,0.001
43.460,0.009
43.465,0.005
43.470,0.001
43.475,0.007
43.480,0.009
43.485,0.005
43.490,0.007
43.495,0.008
43.500,0.007
43.505,0.009
43.510,0.008
43.515,0.006
43.520,0.003
43.525,0.001
43.530,0.003
43.535,0.009
43.540,0.012
43.545,0.009
43.550,0.006
43.555,0.004
43.560,0.007
43.565,0.009
43.570,0.009
43.575,0.011
43.580,0.009
43.585,0.012
43.590,0.013
43.595,0.009
43.600,0.009
43.605,0.013
43.610,0.016
43.615,0.013
43.620,0.011
43.625,0.013
43.630,0.014
43.635,0.017
43.640,0.021
43.645,0.021
43.650,0.019
43.655,0.014
43.660,0.014
43.665,0.018
43.670,0.018
43.675,0.015
43.680,0.009
43.685,0.004
43.690,0.001
43.695,-0.003
43.700,-0.005
43.705,-0.006
43.710,-0.008
43.715,-0.016
43.720,-0.019
43.725,-0.019
43.730,-0.019
43.735,-0.020
43.740,-0.023
43.745,-0.017
43.750,-0.013
43.755,-0.019
43.760,-0.019
43.765,-0.016
43.770,-0.018
43.775,-0.018
43.780,-0.016
43.785,-0.011
43.790,-0.008
43.795,-0.010
43.800,-0.010
43.805,-0.006
43.810,-0.004
43.815,-0.006
43.820,-0.007
43.825,-0.008
43.830,-0.006
43.835,-0.004
43.840,-0.005
43.845,-0.004
43.850,-0.003
43.855,-0.011
43.860,-0.014
43.865,-0.008
43.870,-0.003
43.875,-0.002
43.880,-0.011
43.885,-0.014
43.890,-0.010
43.895,-0.011
43.900,-0.013
43.905,-0.015
43.910,-0.015
43.915,-0.015
43.920,-0.014
43.925,-0.013
43.930,-0.013
43.935,-0.008
43.940,-0.010
43.945,-0.017
43.950,-0.017
43.955,-0.013
43.960,-0.010
43.965,-0.013
43.970,-0.014
43.975,-0.011
43.980,-0.010
43.985,-0.008
43.990,-0.006
43.995,-0.006
44.000,-0.010
44.005,-0.013
44.010,-0.012
44.015,-0.009
44.020,-0.004
44.025,-0.002
44.030,-0.004
44.035,-0.003
44.040,-0.005
44.045,-0.007
44.050,-0.004
44.055,-0.003
44.060,-0.002
44.065,-0.001
44.070,-0.001
44.075,-0.003
44.080,-0.003
44.085,-0.003
44.090,-0.004
44.095,-0.003
44.100,-0.004
44.105,-0.002
44.110,0.006
44.115,0.006
44.120,0.002
44.125,0.005
44.130,0.005
44.135,0.005
44.140,0.008
44.145,0.017
44.150,0.028
44.155,0.035
44.160,0.042
44.165,0.050
44.170,0.061
44.175,0.070
44.180,0.071
44.185,0.066
44.190,0.047
44.195,0.021
44.200,0.001
44.205,-0.018
44.210,-0.039
44.215,-0.055
44.220,-0.059
44.225,-0.048
44.230,-0.034
44.235,-0.029
44.240,-0.029
44.245,-0.034
44.250,-0.040
44.255,-0.036
44.260,-0.030
44.265,-0.026
44.270,-0.019
44.275,-0.015
44.280,-0.011
44.285,-0.004
44.290,0.000
44.295,0.002
44.300,0.005
44.305,0.004
44.310,0.002
44.315,-0.006
44.320,-0.034
44.325,-0.064
44.330,-0.083
44.335,-0.118
44.340,-0.142
44.345,-0.095
44.350,0.050
44.355,0.279
44.360,0.401
44.365,0.303
44.370,0.130
44.375,-0.031
44.380,-0.117
44.385,-0.113
44.390,-0.086
44.395,-0.033
44.400,0.010
44.405,0.006
44.410,0.002
44.415,0.010
44.420,0.011
44.425,0.009
44.430,0.013
44.435,0.009
44.440,0.004
44.445,0.006
44.450,0.007
44.455,0.009
44.460,0.009
44.465,0.008
44.470,0.008
44.475,0.010
44.480,0.010
44.485,0.009
44.490,0.006
44.495,0.005
44.500,0.004
44.505,0.000
44.510,0.000
44.515,0.002
44.520,0.005
44.525,0.001
44.530,-0.004
44.535,0.002
44.540,0.004
44.545,0.004
44.550,0.007
44.555,0.008
44.560,0.009
44.565,0.007
44.570,0.004
44.575,0.003
44.580,0.001
44.585,0.006
44.590,0.016
44.595,0.016
44.600,0.011
44.605,0.005
44.610,0.008
44.615,0.017
44.620,0.019
44.625,0.019
44.630,0.019
44.635,0.021
44.640,0.027
44.645,0.030
44.650,0.024
44.655,0.014
44.660,0.008
44.665,0.008
44.670,0.008
44.675,0.004
44.680,-0.004
44.685,-0.005
44.690,-0.005
44.695,-0.005
44.700,-0.008
44.705,-0.012
44.710,-0.010
44.715,-0.011
44.720,-0.012
44.725,-0.011
44.730,-0.015
44.735,-0.012
44.740,-0.013
44.745,-0.014
44.750,-0.006
44.755,-0.003
