'Elapsed time','ECG'
'seconds','mV'
0.000,0.078
0.005,0.088
0.010,0.080
0.015,0.098
0.020,0.127
0.025,0.138
0.030,0.141
0.035,0.134
0.040,0.130
0.045,0.128
0.050,0.119
0.055,0.112
0.060,0.108
0.065,0.103
0.070,0.103
0.075,0.104
0.080,0.097
0.085,0.091
0.090,0.084
0.095,0.063
0.100,0.031
0.105,-0.023
0.110,-0.106
0.115,-0.220
0.120,-0.347
0.125,-0.431
0.130,-0.279
0.135,0.109
0.140,0.390
0.145,0.486
0.150,0.510
0.155,0.477
0.160,0.371
0.165,0.209
0.170,0.076
0.175,0.048
0.180,0.050
0.185,0.003
0.190,-0.018
0.195,-0.013
0.200,-0.039
0.205,-0.047
0.210,-0.031
0.215,-0.041
0.220,-0.054
0.225,-0.046
0.230,-0.048
0.235,-0.061
0.240,-0.060
0.245,-0.053
0.250,-0.054
0.255,-0.060
0.260,-0.063
0.265,-0.069
0.270,-0.074
0.275,-0.075
0.280,-0.076
0.285,-0.073
0.290,-0.072
0.295,-0.075
0.300,-0.083
0.305,-0.094
0.310,-0.095
0.315,-0.089
0.320,-0.088
0.325,-0.094
0.330,-0.106
0.335,-0.118
0.340,-0.126
0.345,-0.129
0.350,-0.121
0.355,-0.118
0.360,-0.124
0.365,-0.130
0.370,-0.135
0.375,-0.141
0.380,-0.144
0.385,-0.141
0.390,-0.124
0.395,-0.102
0.400,-0.081
0.405,-0.064
0.410,-0.050
0.415,-0.031
0.420,-0.008
0.425,0.013
0.430,0.029
0.435,0.038
0.440,0.046
0.445,0.048
0.450,0.048
0.455,0.052
0.460,0.056
0.465,0.057
0.470,0.055
0.475,0.052
0.480,0.051
0.485,0.049
0.490,0.043
0.495,0.037
0.500,0.038
0.505,0.046
0.510,0.051
0.515,0.046
0.520,0.043
0.525,0.038
0.530,0.033
0.535,0.029
0.540,0.024
0.545,0.021
0.550,0.016
0.555,0.010
0.560,0.007
0.565,0.007
0.570,0.009
0.575,0.007
0.580,0.002
0.585,0.001
0.590,-0.001
0.595,-0.004
0.600,-0.006
0.605,-0.007
0.610,-0.006
0.615,-0.003
0.620,-0.003
0.625,-0.003
0.630,0.004
0.635,0.014
0.640,0.017
0.645,0.012
0.650,0.005
0.655,-0.002
0.660,-0.006
0.665,-0.014
0.670,-0.028
0.675,-0.044
0.680,-0.054
0.685,-0.052
0.690,-0.050
0.695,-0.060
0.700,-0.073
0.705,-0.085
0.710,-0.087
0.715,-0.068
0.720,-0.056
0.725,-0.056
0.730,-0.046
0.735,-0.032
0.740,-0.018
0.745,-0.011
0.750,-0.007
0.755,0.012
0.760,0.038
0.765,0.053
0.770,0.058
0.775,0.064
0.780,0.066
0.785,0.066
0.790,0.067
0.795,0.068
0.800,0.065
0.805,0.061
0.810,0.055
0.815,0.050
0.820,0.049
0.825,0.046
0.830,0.039
0.835,0.019
0.840,-0.035
0.845,-0.121
0.850,-0.238
0.855,-0.391
0.860,-0.549
0.865,-0.525
0.870,-0.199
0.875,0.180
0.880,0.413
0.885,0.517
0.890,0.511
0.895,0.408
0.900,0.253
0.905,0.119
0.910,0.071
0.915,0.069
0.920,0.032
0.925,0.014
0.930,0.038
0.935,0.034
0.940,0.016
0.945,0.017
0.950,0.009
0.955,-0.007
0.960,-0.006
0.965,-0.006
0.970,-0.017
0.975,-0.022
0.980,-0.018
0.985,-0.019
0.990,-0.023
0.995,-0.025
1.000,-0.028
1.005,-0.029
1.010,-0.028
1.015,-0.030
1.020,-0.040
1.025,-0.048
1.030,-0.044
1.035,-0.036
1.040,-0.031
1.045,-0.035
1.050,-0.045
1.055,-0.050
1.060,-0.054
1.065,-0.063
1.070,-0.072
1.075,-0.081
1.080,-0.086
1.085,-0.085
1.090,-0.085
1.095,-0.089
1.100,-0.094
1.105,-0.098
1.110,-0.098
1.115,-0.095
1.120,-0.092
1.125,-0.090
1.130,-0.084
1.135,-0.075
1.140,-0.061
1.145,-0.038
1.150,-0.014
1.155,0.006
1.160,0.022
1.165,0.034
1.170,0.047
1.175,0.057
1.180,0.062
1.185,0.065
1.190,0.066
1.195,0.067
1.200,0.073
1.205,0.079
1.210,0.079
1.215,0.075
1.220,0.071
1.225,0.071
1.230,0.072
1.235,0.072
1.240,0.070
1.245,0.067
1.250,0.059
1.255,0.052
1.260,0.046
1.265,0.039
1.270,0.035
1.275,0.034
1.280,0.032
1.285,0.033
1.290,0.031
1.295,0.022
1.300,0.018
1.305,0.014
1.310,0.002
1.315,0.001
1.320,0.011
1.325,0.011
1.330,0.008
1.335,0.008
1.340,0.014
1.345,0.020
1.350,0.013
1.355,0.004
1.360,0.011
1.365,0.024
1.370,0.027
1.375,0.025
1.380,0.021
1.385,0.017
1.390,0.017
1.395,0.013
1.400,0.008
1.405,0.002
1.410,-0.012
1.415,-0.034
1.420,-0.046
1.425,-0.042
1.430,-0.039
1.435,-0.046
1.440,-0.060
1.445,-0.074
1.450,-0.076
1.455,-0.061
1.460,-0.053
1.465,-0.053
1.470,-0.043
1.475,-0.037
1.480,-0.028
1.485,-0.013
1.490,0.004
1.495,0.034
1.500,0.055
1.505,0.061
1.510,0.061
1.515,0.057
1.520,0.055
1.525,0.054
1.530,0.059
1.535,0.062
1.540,0.051
1.545,0.039
1.550,0.037
1.555,0.036
1.560,0.036
1.565,0.037
1.570,0.035
1.575,0.023
1.580,-0.018
1.585,-0.101
1.590,-0.216
1.595,-0.354
1.600,-0.485
1.605,-0.495
1.610,-0.207
1.615,0.232
1.620,0.484
1.625,0.564
1.630,0.562
1.635,0.475
1.640,0.325
1.645,0.137
1.650,0.028
1.655,0.039
1.660,0.023
1.665,-0.026
1.670,-0.011
1.675,-0.001
1.680,-0.027
1.685,-0.031
1.690,-0.028
1.695,-0.038
1.700,-0.047
1.705,-0.047
1.710,-0.049
1.715,-0.054
1.720,-0.053
1.725,-0.039
1.730,-0.033
1.735,-0.042
1.740,-0.041
1.745,-0.040
1.750,-0.038
1.755,-0.037
1.760,-0.052
1.765,-0.060
1.770,-0.061
1.775,-0.063
1.780,-0.054
1.785,-0.041
1.790,-0.048
1.795,-0.075
1.800,-0.092
1.805,-0.090
1.810,-0.090
1.815,-0.092
1.820,-0.112
1.825,-0.131
1.830,-0.110
1.835,-0.093
1.840,-0.101
1.845,-0.115
1.850,-0.136
1.855,-0.140
1.860,-0.125
1.865,-0.111
1.870,-0.094
1.875,-0.077
1.880,-0.060
1.885,-0.041
1.890,-0.025
1.895,-0.006
1.900,0.014
1.905,0.038
1.910,0.060
1.915,0.067
1.920,0.079
1.925,0.090
1.930,0.085
1.935,0.080
1.940,0.084
1.945,0.086
1.950,0.094
1.955,0.107
1.960,0.101
1.965,0.086
1.970,0.080
1.975,0.075
1.980,0.070
1.985,0.067
1.990,0.061
1.995,0.066
2.000,0.079
2.005,0.070
2.010,0.052
2.015,0.047
2.020,0.052
2.025,0.052
2.030,0.045
2.035,0.038
2.040,0.034
2.045,0.034
2.050,0.028
2.055,0.017
2.060,0.013
2.065,0.012
2.070,0.011
2.075,0.008
2.080,0.003
2.085,-0.001
2.090,0.001
2.095,0.006
2.100,0.008
2.105,0.005
2.110,0.003
2.115,0.002
2.120,0.001
2.125,-0.007
2.130,-0.022
2.135,-0.034
2.140,-0.043
2.145,-0.048
2.150,-0.049
2.155,-0.055
2.160,-0.066
2.165,-0.080
2.170,-0.091
2.175,-0.082
2.180,-0.066
2.185,-0.064
2.190,-0.063
2.195,-0.053
2.200,-0.032
2.205,-0.010
2.210,0.001
2.215,0.017
2.220,0.041
2.225,0.052
2.230,0.054
2.235,0.058
2.240,0.058
2.245,0.050
2.250,0.047
2.255,0.050
2.260,0.052
2.265,0.052
2.270,0.049
2.275,0.041
2.280,0.033
2.285,0.034
2.290,0.035
2.295,0.026
2.300,-0.002
2.305,-0.052
2.310,-0.121
2.315,-0.230
2.320,-0.368
2.325,-0.466
2.330,-0.327
2.335,0.047
2.340,0.325
2.345,0.433
2.350,0.461
2.355,0.426
2.360,0.325
2.365,0.173
2.370,0.055
2.375,0.032
2.380,0.030
2.385,-0.015
2.390,-0.029
2.395,-0.017
2.400,-0.037
2.405,-0.046
2.410,-0.032
2.415,-0.035
2.420,-0.042
2.425,-0.041
2.430,-0.047
2.435,-0.055
2.440,-0.052
2.445,-0.048
2.450,-0.052
2.455,-0.052
2.460,-0.047
2.465,-0.050
2.470,-0.054
2.475,-0.058
2.480,-0.065
2.485,-0.066
2.490,-0.064
2.495,-0.065
2.500,-0.066
2.505,-0.064
2.510,-0.062
2.515,-0.062
2.520,-0.063
2.525,-0.065
2.530,-0.068
2.535,-0.072
2.540,-0.076
2.545,-0.080
2.550,-0.083
2.555,-0.085
2.560,-0.087
2.565,-0.090
2.570,-0.094
2.575,-0.096
2.580,-0.094
2.585,-0.091
2.590,-0.087
2.595,-0.074
2.600,-0.056
2.605,-0.040
2.610,-0.028
2.615,-0.012
2.620,0.008
2.625,0.021
2.630,0.029
2.635,0.037
2.640,0.045
2.645,0.049
2.650,0.052
2.655,0.057
2.660,0.063
2.665,0.066
2.670,0.065
2.675,0.062
2.680,0.059
2.685,0.059
2.690,0.055
2.695,0.045
2.700,0.039
2.705,0.044
2.710,0.048
2.715,0.051
2.720,0.051
2.725,0.049
2.730,0.045
2.735,0.037
2.740,0.030
2.745,0.022
2.750,0.018
2.755,0.019
2.760,0.020
2.765,0.021
2.770,0.018
2.775,0.014
2.780,0.015
2.785,0.012
2.790,0.011
2.795,0.014
2.800,0.015
2.805,0.016
2.810,0.014
2.815,0.009
2.820,0.008
2.825,0.009
2.830,0.010
2.835,0.011
2.840,0.009
2.845,0.008
2.850,0.014
2.855,0.016
2.860,0.011
2.865,0.005
2.870,-0.003
2.875,-0.014
2.880,-0.028
2.885,-0.039
2.890,-0.036
2.895,-0.036
2.900,-0.046
2.905,-0.056
2.910,-0.066
2.915,-0.074
2.920,-0.062
2.925,-0.048
2.930,-0.048
2.935,-0.043
2.940,-0.029
2.945,-0.013
2.950,-0.002
2.955,0.007
2.960,0.027
2.965,0.053
2.970,0.063
2.975,0.064
2.980,0.073
2.985,0.078
2.990,0.073
2.995,0.064
3.000,0.060
3.005,0.060
3.010,0.060
3.015,0.060
3.020,0.056
3.025,0.048
3.030,0.045
3.035,0.043
3.040,0.031
3.045,-0.013
3.050,-0.093
3.055,-0.209
3.060,-0.368
3.065,-0.546
3.070,-0.585
3.075,-0.317
3.080,0.094
3.085,0.378
3.090,0.514
3.095,0.529
3.100,0.435
3.105,0.281
3.110,0.130
3.115,0.072
3.120,0.087
3.125,0.061
3.130,0.023
3.135,0.030
3.140,0.029
3.145,0.014
3.150,0.017
3.155,0.018
3.160,0.003
3.165,-0.001
3.170,0.003
3.175,-0.005
3.180,-0.012
3.185,-0.015
3.190,-0.023
3.195,-0.028
3.200,-0.027
3.205,-0.026
3.210,-0.028
3.215,-0.025
3.220,-0.022
3.225,-0.025
3.230,-0.030
3.235,-0.035
3.240,-0.040
3.245,-0.045
3.250,-0.046
3.255,-0.045
3.260,-0.050
3.265,-0.057
3.270,-0.058
3.275,-0.060
3.280,-0.068
3.285,-0.074
3.290,-0.082
3.295,-0.088
3.300,-0.086
3.305,-0.086
3.310,-0.089
3.315,-0.089
3.320,-0.090
3.325,-0.094
3.330,-0.100
3.335,-0.101
3.340,-0.090
3.345,-0.076
3.350,-0.061
3.355,-0.034
3.360,-0.002
3.365,0.019
3.370,0.032
3.375,0.040
3.380,0.049
3.385,0.058
3.390,0.063
3.395,0.072
3.400,0.081
3.405,0.086
3.410,0.089
3.415,0.081
3.420,0.067
3.425,0.061
3.430,0.061
3.435,0.066
3.440,0.069
3.445,0.070
3.450,0.072
3.455,0.064
3.460,0.051
3.465,0.040
3.470,0.030
3.475,0.025
3.480,0.025
3.485,0.030
3.490,0.031
3.495,0.027
3.500,0.024
3.505,0.016
3.510,0.009
3.515,0.004
3.520,-0.002
3.525,0.003
3.530,0.019
3.535,0.027
3.540,0.030
3.545,0.022
3.550,0.007
3.555,0.000
3.560,0.001
3.565,0.005
3.570,0.004
3.575,0.000
3.580,0.003
3.585,0.005
3.590,0.006
3.595,0.006
3.600,-0.001
3.605,-0.013
3.610,-0.028
3.615,-0.044
3.620,-0.052
3.625,-0.041
3.630,-0.038
3.635,-0.051
3.640,-0.063
3.645,-0.085
3.650,-0.087
3.655,-0.065
3.660,-0.071
3.665,-0.073
3.670,-0.046
3.675,-0.034
3.680,-0.016
3.685,0.003
3.690,0.010
3.695,0.035
3.700,0.063
3.705,0.070
3.710,0.059
3.715,0.052
3.720,0.050
3.725,0.050
3.730,0.057
3.735,0.050
3.740,0.041
3.745,0.051
3.750,0.054
3.755,0.060
3.760,0.065
3.765,0.053
3.770,0.035
3.775,0.008
3.780,-0.042
3.785,-0.119
3.790,-0.229
3.795,-0.347
3.800,-0.428
3.805,-0.312
3.810,0.063
3.815,0.392
3.820,0.508
3.825,0.529
3.830,0.499
3.835,0.394
3.840,0.233
3.845,0.075
3.850,0.020
3.855,0.028
3.860,-0.012
3.865,-0.036
3.870,-0.025
3.875,-0.044
3.880,-0.057
3.885,-0.040
3.890,-0.039
3.895,-0.053
3.900,-0.052
3.905,-0.051
3.910,-0.064
3.915,-0.069
3.920,-0.061
3.925,-0.060
3.930,-0.065
3.935,-0.062
3.940,-0.064
3.945,-0.074
3.950,-0.072
3.955,-0.063
3.960,-0.064
3.965,-0.063
3.970,-0.062
3.975,-0.069
3.980,-0.072
3.985,-0.071
3.990,-0.073
3.995,-0.080
4.000,-0.085
4.005,-0.085
4.010,-0.091
4.015,-0.103
4.020,-0.109
4.025,-0.109
4.030,-0.108
4.035,-0.109
4.040,-0.118
4.045,-0.126
4.050,-0.125
4.055,-0.118
4.060,-0.114
4.065,-0.109
4.070,-0.094
4.075,-0.078
4.080,-0.058
4.085,-0.033
4.090,-0.011
4.095,0.009
4.100,0.023
4.105,0.038
4.110,0.052
4.115,0.064
4.120,0.071
4.125,0.076
4.130,0.078
4.135,0.078
4.140,0.073
4.145,0.068
4.150,0.068
4.155,0.072
4.160,0.074
4.165,0.073
4.170,0.072
4.175,0.068
4.180,0.061
4.185,0.057
4.190,0.055
4.195,0.050
4.200,0.042
4.205,0.036
4.210,0.034
4.215,0.033
4.220,0.030
4.225,0.026
4.230,0.020
4.235,0.013
4.240,0.008
4.245,0.005
4.250,0.006
4.255,0.011
4.260,0.015
4.265,0.015
4.270,0.010
4.275,0.009
4.280,0.011
4.285,0.010
4.290,0.005
4.295,0.003
4.300,0.007
4.305,0.012
4.310,0.014
4.315,0.015
4.320,0.010
4.325,0.006
4.330,0.004
4.335,0.003
4.340,-0.006
4.345,-0.024
4.350,-0.041
4.355,-0.046
4.360,-0.045
4.365,-0.051
4.370,-0.060
4.375,-0.066
4.380,-0.075
4.385,-0.076
4.390,-0.060
4.395,-0.058
4.400,-0.058
4.405,-0.048
4.410,-0.033
4.415,-0.011
4.420,-0.001
4.425,0.009
4.430,0.036
4.435,0.051
4.440,0.050
4.445,0.057
4.450,0.068
4.455,0.069
4.460,0.061
4.465,0.059
4.470,0.060
4.475,0.056
4.480,0.051
4.485,0.048
4.490,0.049
4.495,0.050
4.500,0.045
4.505,0.034
4.510,0.005
4.515,-0.051
4.520,-0.130
4.525,-0.246
4.530,-0.397
4.535,-0.528
4.540,-0.437
4.545,-0.069
4.550,0.268
4.555,0.441
4.560,0.500
4.565,0.465
4.570,0.360
4.575,0.210
4.580,0.089
4.585,0.062
4.590,0.061
4.595,0.016
4.600,0.001
4.605,0.014
4.610,-0.003
4.615,-0.013
4.620,-0.003
4.625,-0.011
4.630,-0.026
4.635,-0.021
4.640,-0.018
4.645,-0.027
4.650,-0.029
4.655,-0.025
4.660,-0.031
4.665,-0.036
4.670,-0.029
4.675,-0.028
4.680,-0.037
4.685,-0.041
4.690,-0.045
4.695,-0.053
4.700,-0.053
4.705,-0.045
4.710,-0.043
4.715,-0.045
4.720,-0.048
4.725,-0.059
4.730,-0.069
4.735,-0.068
4.740,-0.062
4.745,-0.061
4.750,-0.065
4.755,-0.070
4.760,-0.072
4.765,-0.073
4.770,-0.074
4.775,-0.077
4.780,-0.079
4.785,-0.082
4.790,-0.086
4.795,-0.090
4.800,-0.089
4.805,-0.078
4.810,-0.063
4.815,-0.045
4.820,-0.026
4.825,-0.009
4.830,0.006
4.835,0.020
4.840,0.031
4.845,0.043
4.850,0.054
4.855,0.060
4.860,0.063
4.865,0.068
4.870,0.072
4.875,0.072
4.880,0.071
4.885,0.070
4.890,0.069
4.895,0.066
4.900,0.066
4.905,0.068
4.910,0.067
4.915,0.064
4.920,0.060
4.925,0.054
4.930,0.050
4.935,0.047
4.940,0.043
4.945,0.038
4.950,0.035
4.955,0.031
4.960,0.025
4.965,0.019
4.970,0.016
4.975,0.016
4.980,0.019
4.985,0.020
4.990,0.018
4.995,0.015
5.000,0.014
5.005,0.012
5.010,0.011
5.015,0.011
5.020,0.011
5.025,0.009
5.030,0.007
5.035,0.009
5.040,0.013
5.045,0.015
5.050,0.013
5.055,0.011
5.060,0.008
5.065,0.006
5.070,0.010
5.075,0.009
5.080,-0.005
5.085,-0.027
5.090,-0.043
5.095,-0.045
5.100,-0.039
5.105,-0.040
5.110,-0.053
5.115,-0.066
5.120,-0.076
5.125,-0.071
5.130,-0.050
5.135,-0.047
5.140,-0.053
5.145,-0.042
5.150,-0.024
5.155,-0.008
5.160,-0.004
5.165,0.008
5.170,0.039
5.175,0.058
5.180,0.059
5.185,0.055
5.190,0.054
5.195,0.056
5.200,0.059
5.205,0.066
5.210,0.067
5.215,0.062
5.220,0.061
5.225,0.056
5.230,0.048
5.235,0.043
5.240,0.038
5.245,0.030
5.250,0.010
5.255,-0.041
5.260,-0.124
5.265,-0.244
5.270,-0.406
5.275,-0.570
5.280,-0.541
5.285,-0.197
5.290,0.196
5.295,0.433
5.300,0.536
5.305,0.519
5.310,0.400
5.315,0.233
5.320,0.100
5.325,0.067
5.330,0.074
5.335,0.033
5.340,0.009
5.345,0.024
5.350,0.009
5.355,-0.007
5.360,0.001
5.365,-0.001
5.370,-0.013
5.375,-0.012
5.380,-0.008
5.385,-0.013
5.390,-0.014
5.395,-0.014
5.400,-0.021
5.405,-0.025
5.410,-0.017
5.415,-0.012
5.420,-0.022
5.425,-0.028
5.430,-0.026
5.435,-0.029
5.440,-0.032
5.445,-0.034
5.450,-0.035
5.455,-0.036
5.460,-0.046
5.465,-0.055
5.470,-0.053
5.475,-0.060
5.480,-0.071
5.485,-0.074
5.490,-0.080
5.495,-0.089
5.500,-0.096
5.505,-0.098
5.510,-0.097
5.515,-0.103
5.520,-0.109
5.525,-0.106
5.530,-0.105
5.535,-0.110
5.540,-0.106
5.545,-0.095
5.550,-0.080
5.555,-0.065
5.560,-0.050
5.565,-0.032
5.570,-0.010
5.575,0.008
5.580,0.023
5.585,0.034
5.590,0.043
5.595,0.052
5.600,0.067
5.605,0.079
5.610,0.081
5.615,0.079
5.620,0.081
5.625,0.082
5.630,0.077
5.635,0.074
5.640,0.071
5.645,0.064
5.650,0.064
5.655,0.063
5.660,0.059
5.665,0.064
5.670,0.066
5.675,0.056
5.680,0.048
5.685,0.040
5.690,0.036
5.695,0.031
5.700,0.019
5.705,0.022
5.710,0.035
5.715,0.031
5.720,0.019
5.725,0.015
5.730,0.012
5.735,0.008
5.740,0.007
5.745,-0.002
5.750,-0.010
5.755,-0.004
5.760,0.005
5.765,0.013
5.770,0.014
5.775,0.011
5.780,0.016
5.785,0.017
5.790,0.004
5.795,-0.006
5.800,-0.001
5.805,-0.002
5.810,-0.013
5.815,-0.030
5.820,-0.048
5.825,-0.059
5.830,-0.057
5.835,-0.047
5.840,-0.054
5.845,-0.061
5.850,-0.079
5.855,-0.102
5.860,-0.089
5.865,-0.077
5.870,-0.071
5.875,-0.045
5.880,-0.025
5.885,-0.006
5.890,0.009
5.895,0.013
5.900,0.029
5.905,0.043
5.910,0.047
5.915,0.056
5.920,0.063
5.925,0.056
5.930,0.044
5.935,0.052
5.940,0.062
5.945,0.061
5.950,0.062
5.955,0.060
5.960,0.051
5.965,0.042
5.970,0.039
5.975,0.037
5.980,0.022
5.985,-0.023
5.990,-0.093
5.995,-0.180
6.000,-0.287
6.005,-0.388
6.010,-0.354
6.015,-0.049
6.020,0.319
6.025,0.471
6.030,0.497
6.035,0.493
6.040,0.422
6.045,0.287
6.050,0.120
6.055,0.025
6.060,0.026
6.065,-0.005
6.070,-0.048
6.075,-0.031
6.080,-0.030
6.085,-0.060
6.090,-0.059
6.095,-0.052
6.100,-0.061
6.105,-0.058
6.110,-0.054
6.115,-0.058
6.120,-0.057
6.125,-0.056
6.130,-0.061
6.135,-0.066
6.140,-0.065
6.145,-0.064
6.150,-0.066
6.155,-0.064
6.160,-0.062
6.165,-0.065
6.170,-0.068
6.175,-0.070
6.180,-0.071
6.185,-0.073
6.190,-0.077
6.195,-0.079
6.200,-0.080
6.205,-0.082
6.210,-0.087
6.215,-0.094
6.220,-0.098
6.225,-0.102
6.230,-0.108
6.235,-0.115
6.240,-0.117
6.245,-0.120
6.250,-0.121
6.255,-0.119
6.260,-0.122
6.265,-0.123
6.270,-0.115
6.275,-0.104
6.280,-0.086
6.285,-0.063
6.290,-0.044
6.295,-0.025
6.300,-0.008
6.305,0.006
6.310,0.022
6.315,0.039
6.320,0.053
6.325,0.058
6.330,0.060
6.335,0.068
6.340,0.077
6.345,0.080
6.350,0.079
6.355,0.077
6.360,0.079
6.365,0.078
6.370,0.074
6.375,0.069
6.380,0.061
6.385,0.053
6.390,0.048
6.395,0.046
6.400,0.046
6.405,0.045
6.410,0.041
6.415,0.036
6.420,0.032
6.425,0.028
6.430,0.027
6.435,0.030
6.440,0.029
6.445,0.023
6.450,0.017
6.455,0.019
6.460,0.023
6.465,0.021
6.470,0.017
6.475,0.010
6.480,0.001
6.485,0.000
6.490,0.006
6.495,0.012
6.500,0.014
6.505,0.012
6.510,0.009
6.515,0.013
6.520,0.017
6.525,0.014
6.530,0.009
6.535,0.002
6.540,-0.006
6.545,-0.012
6.550,-0.021
6.555,-0.032
6.560,-0.039
6.565,-0.038
6.570,-0.043
6.575,-0.058
6.580,-0.075
6.585,-0.088
6.590,-0.080
6.595,-0.054
6.600,-0.048
6.605,-0.049
6.610,-0.038
6.615,-0.024
6.620,-0.007
6.625,0.001
6.630,0.014
6.635,0.043
6.640,0.059
6.645,0.057
6.650,0.057
6.655,0.065
6.660,0.065
6.665,0.062
6.670,0.061
6.675,0.059
6.680,0.057
6.685,0.056
6.690,0.053
6.695,0.049
6.700,0.044
6.705,0.041
6.710,0.036
6.715,0.011
6.720,-0.045
6.725,-0.129
6.730,-0.248
6.735,-0.397
6.740,-0.521
6.745,-0.417
6.750,-0.042
6.755,0.295
6.760,0.461
6.765,0.511
6.770,0.471
6.775,0.356
6.780,0.202
6.785,0.084
6.790,0.055
6.795,0.053
6.800,0.012
6.805,0.001
6.810,0.015
6.815,-0.007
6.820,-0.019
6.825,-0.009
6.830,-0.016
6.835,-0.027
6.840,-0.023
6.845,-0.025
6.850,-0.034
6.855,-0.030
6.860,-0.025
6.865,-0.028
6.870,-0.032
6.875,-0.035
6.880,-0.039
6.885,-0.046
6.890,-0.052
6.895,-0.054
6.900,-0.051
6.905,-0.044
6.910,-0.041
6.915,-0.045
6.920,-0.052
6.925,-0.057
6.930,-0.061
6.935,-0.065
6.940,-0.070
6.945,-0.075
6.950,-0.077
6.955,-0.074
6.960,-0.074
6.965,-0.080
6.970,-0.084
6.975,-0.086
6.980,-0.087
6.985,-0.089
6.990,-0.094
6.995,-0.097
7.000,-0.095
7.005,-0.087
7.010,-0.076
7.015,-0.064
7.020,-0.048
7.025,-0.033
7.030,-0.020
7.035,-0.007
7.040,0.005
7.045,0.019
7.050,0.036
7.055,0.051
7.060,0.059
7.065,0.063
7.070,0.067
7.075,0.068
7.080,0.069
7.085,0.070
7.090,0.069
7.095,0.066
7.100,0.062
7.105,0.061
7.110,0.060
7.115,0.056
7.120,0.051
7.125,0.047
7.130,0.045
7.135,0.044
7.140,0.040
7.145,0.033
7.150,0.028
7.155,0.027
7.160,0.027
7.165,0.025
7.170,0.024
7.175,0.023
7.180,0.020
7.185,0.017
7.190,0.015
7.195,0.014
7.200,0.013
7.205,0.012
7.210,0.008
7.215,0.009
7.220,0.013
7.225,0.014
7.230,0.009
7.235,0.003
7.240,0.005
7.245,0.012
7.250,0.017
7.255,0.014
7.260,0.012
7.265,0.013
7.270,0.012
7.275,0.006
7.280,-0.004
7.285,-0.019
7.290,-0.036
7.295,-0.044
7.300,-0.038
7.305,-0.039
7.310,-0.055
7.315,-0.066
7.320,-0.075
7.325,-0.072
7.330,-0.052
7.335,-0.049
7.340,-0.051
7.345,-0.042
7.350,-0.029
7.355,-0.009
7.360,0.003
7.365,0.015
7.370,0.043
7.375,0.061
7.380,0.064
7.385,0.064
7.390,0.065
7.395,0.064
7.400,0.058
7.405,0.055
7.410,0.052
7.415,0.051
7.420,0.053
7.425,0.053
7.430,0.048
7.435,0.044
7.440,0.042
7.445,0.033
7.450,0.002
7.455,-0.058
7.460,-0.144
7.465,-0.269
7.470,-0.429
7.475,-0.568
7.480,-0.469
7.485,-0.081
7.490,0.271
7.495,0.459
7.500,0.531
7.505,0.491
7.510,0.363
7.515,0.193
7.520,0.074
7.525,0.062
7.530,0.066
7.535,0.020
7.540,0.008
7.545,0.022
7.550,0.002
7.555,-0.010
7.560,0.001
7.565,-0.004
7.570,-0.013
7.575,-0.011
7.580,-0.013
7.585,-0.020
7.590,-0.020
7.595,-0.016
7.600,-0.016
7.605,-0.021
7.610,-0.021
7.615,-0.018
7.620,-0.020
7.625,-0.022
7.630,-0.029
7.635,-0.037
7.640,-0.035
7.645,-0.031
7.650,-0.037
7.655,-0.050
7.660,-0.060
7.665,-0.060
7.670,-0.056
7.675,-0.060
7.680,-0.068
7.685,-0.068
7.690,-0.065
7.695,-0.071
7.700,-0.087
7.705,-0.099
7.710,-0.104
7.715,-0.101
7.720,-0.100
7.725,-0.106
7.730,-0.108
7.735,-0.105
7.740,-0.096
7.745,-0.084
7.750,-0.072
7.755,-0.052
7.760,-0.035
7.765,-0.019
7.770,0.000
7.775,0.018
7.780,0.034
7.785,0.042
7.790,0.054
7.795,0.069
7.800,0.075
7.805,0.075
7.810,0.071
7.815,0.077
7.820,0.091
7.825,0.095
7.830,0.092
7.835,0.089
7.840,0.082
7.845,0.072
7.850,0.069
7.855,0.062
7.860,0.056
7.865,0.063
7.870,0.060
7.875,0.048
7.880,0.041
7.885,0.036
7.890,0.037
7.895,0.036
7.900,0.027
7.905,0.026
7.910,0.026
7.915,0.023
7.920,0.021
7.925,0.022
7.930,0.021
7.935,0.014
7.940,0.007
7.945,0.002
7.950,0.005
7.955,0.011
7.960,0.011
7.965,0.012
7.970,0.011
7.975,0.005
7.980,-0.001
7.985,0.003
7.990,0.014
7.995,0.013
8.000,-0.003
8.005,-0.020
8.010,-0.032
8.015,-0.048
8.020,-0.056
8.025,-0.048
8.030,-0.049
8.035,-0.061
8.040,-0.077
8.045,-0.091
8.050,-0.085
8.055,-0.065
8.060,-0.067
8.065,-0.070
8.070,-0.049
8.075,-0.023
8.080,-0.001
8.085,0.003
8.090,0.006
8.095,0.029
8.100,0.051
8.105,0.056
8.110,0.055
8.115,0.058
8.120,0.060
8.125,0.060
8.130,0.056
8.135,0.051
8.140,0.046
8.145,0.040
8.150,0.039
8.155,0.043
8.160,0.046
8.165,0.043
8.170,0.027
8.175,-0.001
8.180,-0.048
8.185,-0.117
8.190,-0.212
8.195,-0.315
8.200,-0.387
8.205,-0.262
8.210,0.112
8.215,0.411
8.220,0.494
8.225,0.498
8.230,0.465
8.235,0.370
8.240,0.217
8.245,0.060
8.250,0.014
8.255,0.029
8.260,-0.020
8.265,-0.050
8.270,-0.032
8.275,-0.047
8.280,-0.065
8.285,-0.054
8.290,-0.055
8.295,-0.062
8.300,-0.053
8.305,-0.048
8.310,-0.057
8.315,-0.059
8.320,-0.055
8.325,-0.060
8.330,-0.063
8.335,-0.061
8.340,-0.062
8.345,-0.064
8.350,-0.064
8.355,-0.063
8.360,-0.068
8.365,-0.075
8.370,-0.073
8.375,-0.070
8.380,-0.069
8.385,-0.071
8.390,-0.076
8.395,-0.079
8.400,-0.082
8.405,-0.089
8.410,-0.099
8.415,-0.102
8.420,-0.099
8.425,-0.102
8.430,-0.104
8.435,-0.105
8.440,-0.111
8.445,-0.116
8.450,-0.118
8.455,-0.117
8.460,-0.109
8.465,-0.096
8.470,-0.085
8.475,-0.072
8.480,-0.055
8.485,-0.038
8.490,-0.019
8.495,-0.003
8.500,0.011
8.505,0.028
8.510,0.045
8.515,0.058
8.520,0.068
8.525,0.071
8.530,0.071
8.535,0.074
8.540,0.076
8.545,0.074
8.550,0.072
8.555,0.069
8.560,0.066
8.565,0.063
8.570,0.063
8.575,0.061
8.580,0.057
8.585,0.053
8.590,0.047
8.595,0.043
8.600,0.044
8.605,0.043
8.610,0.040
8.615,0.036
8.620,0.031
8.625,0.026
8.630,0.024
8.635,0.025
8.640,0.027
8.645,0.026
8.650,0.022
8.655,0.020
8.660,0.017
8.665,0.014
8.670,0.016
8.675,0.020
8.680,0.020
8.685,0.020
8.690,0.021
8.695,0.019
8.700,0.019
8.705,0.018
8.710,0.014
8.715,0.013
8.720,0.012
8.725,0.007
8.730,0.001
8.735,-0.009
8.740,-0.023
8.745,-0.037
8.750,-0.041
8.755,-0.036
8.760,-0.037
8.765,-0.049
8.770,-0.062
8.775,-0.077
8.780,-0.076
8.785,-0.052
8.790,-0.045
8.795,-0.053
8.800,-0.046
8.805,-0.031
8.810,-0.013
8.815,-0.003
8.820,0.012
8.825,0.042
8.830,0.063
8.835,0.069
8.840,0.071
8.845,0.072
8.850,0.069
8.855,0.063
8.860,0.061
8.865,0.060
8.870,0.056
8.875,0.054
8.880,0.052
8.885,0.050
8.890,0.046
8.895,0.041
8.900,0.034
8.905,0.015
8.910,-0.033
8.915,-0.111
8.920,-0.223
8.925,-0.366
8.930,-0.503
8.935,-0.453
8.940,-0.116
8.945,0.245
8.950,0.437
8.955,0.504
8.960,0.482
8.965,0.379
8.970,0.228
8.975,0.095
8.980,0.051
8.985,0.051
8.990,0.009
8.995,-0.015
9.000,0.005
9.005,-0.001
9.010,-0.018
9.015,-0.011
9.020,-0.011
9.025,-0.026
9.030,-0.028
9.035,-0.027
9.040,-0.033
9.045,-0.034
9.050,-0.029
9.055,-0.030
9.060,-0.036
9.065,-0.037
9.070,-0.039
9.075,-0.044
9.080,-0.046
9.085,-0.045
9.090,-0.045
9.095,-0.046
9.100,-0.047
9.105,-0.055
9.110,-0.061
9.115,-0.062
9.120,-0.061
9.125,-0.059
9.130,-0.058
9.135,-0.061
9.140,-0.064
9.145,-0.070
9.150,-0.078
9.155,-0.079
9.160,-0.075
9.165,-0.077
9.170,-0.081
9.175,-0.087
9.180,-0.089
9.185,-0.086
9.190,-0.085
9.195,-0.084
9.200,-0.078
9.205,-0.065
9.210,-0.049
9.215,-0.034
9.220,-0.020
9.225,-0.007
9.230,0.006
9.235,0.021
9.240,0.034
9.245,0.043
9.250,0.050
9.255,0.059
9.260,0.069
9.265,0.076
9.270,0.078
9.275,0.074
9.280,0.072
9.285,0.074
9.290,0.071
9.295,0.062
9.300,0.055
9.305,0.054
9.310,0.055
9.315,0.053
9.320,0.049
9.325,0.044
9.330,0.039
9.335,0.032
9.340,0.026
9.345,0.023
9.350,0.021
9.355,0.022
9.360,0.023
9.365,0.020
9.370,0.017
9.375,0.014
9.380,0.012
9.385,0.010
9.390,0.009
9.395,0.010
9.400,0.013
9.405,0.013
9.410,0.011
9.415,0.010
9.420,0.011
9.425,0.009
9.430,0.006
9.435,0.007
9.440,0.008
9.445,0.004
9.450,0.000
9.455,0.002
9.460,0.004
9.465,0.002
9.470,-0.009
9.475,-0.024
9.480,-0.036
9.485,-0.040
9.490,-0.038
9.495,-0.042
9.500,-0.057
9.505,-0.071
9.510,-0.081
9.515,-0.076
9.520,-0.054
9.525,-0.049
9.530,-0.053
9.535,-0.045
9.540,-0.032
9.545,-0.014
9.550,-0.004
9.555,0.007
9.560,0.033
9.565,0.052
9.570,0.057
9.575,0.057
9.580,0.057
9.585,0.055
9.590,0.051
9.595,0.053
9.600,0.054
9.605,0.053
9.610,0.051
9.615,0.050
9.620,0.049
9.625,0.043
9.630,0.037
9.635,0.033
9.640,0.018
9.645,-0.028
9.650,-0.107
9.655,-0.223
9.660,-0.372
9.665,-0.526
9.670,-0.518
9.675,-0.193
9.680,0.216
9.685,0.456
9.690,0.549
9.695,0.526
9.700,0.406
9.705,0.250
9.710,0.110
9.715,0.060
9.720,0.072
9.725,0.034
9.730,0.001
9.735,0.020
9.740,0.007
9.745,-0.022
9.750,-0.018
9.755,-0.014
9.760,-0.024
9.765,-0.026
9.770,-0.021
9.775,-0.026
9.780,-0.033
9.785,-0.030
9.790,-0.033
9.795,-0.042
9.800,-0.042
9.805,-0.038
9.810,-0.034
9.815,-0.029
9.820,-0.034
9.825,-0.045
9.830,-0.053
9.835,-0.059
9.840,-0.060
9.845,-0.064
9.850,-0.065
9.855,-0.056
9.860,-0.050
9.865,-0.059
9.870,-0.074
9.875,-0.085
9.880,-0.090
9.885,-0.095
9.890,-0.100
9.895,-0.099
9.900,-0.096
9.905,-0.098
9.910,-0.106
9.915,-0.112
9.920,-0.108
9.925,-0.107
9.930,-0.110
9.935,-0.101
9.940,-0.083
9.945,-0.065
9.950,-0.048
9.955,-0.030
9.960,-0.011
9.965,0.013
9.970,0.039
9.975,0.050
9.980,0.040
9.985,0.042
9.990,0.070
9.995,0.087
10.000,0.093
10.005,0.099
10.010,0.093
10.015,0.088
10.020,0.087
10.025,0.084
10.030,0.079
10.035,0.068
10.040,0.056
10.045,0.049
10.050,0.048
10.055,0.055
10.060,0.064
10.065,0.064
10.070,0.053
10.075,0.050
10.080,0.049
10.085,0.030
10.090,0.019
10.095,0.020
10.100,0.016
10.105,0.017
10.110,0.009
10.115,0.011
10.120,0.027
10.125,0.020
10.130,0.020
10.135,0.033
10.140,0.026
10.145,0.015
10.150,0.011
10.155,0.007
10.160,0.003
10.165,0.003
10.170,0.012
10.175,0.019
10.180,0.014
10.185,0.000
10.190,-0.010
10.195,-0.016
10.200,-0.024
10.205,-0.028
10.210,-0.029
10.215,-0.035
10.220,-0.049
10.225,-0.062
10.230,-0.074
10.235,-0.085
10.240,-0.073
10.245,-0.061
10.250,-0.064
10.255,-0.054
10.260,-0.032
10.265,-0.007
10.270,0.005
10.275,0.009
10.280,0.032
10.285,0.060
10.290,0.071
10.295,0.067
10.300,0.061
10.305,0.059
10.310,0.056
10.315,0.058
10.320,0.063
10.325,0.063
10.330,0.058
10.335,0.052
10.340,0.048
10.345,0.050
10.350,0.046
10.355,0.042
10.360,0.035
10.365,0.003
10.370,-0.054
10.375,-0.131
10.380,-0.229
10.385,-0.330
10.390,-0.375
10.395,-0.180
10.400,0.216
10.405,0.448
10.410,0.486
10.415,0.484
10.420,0.443
10.425,0.334
10.430,0.166
10.435,0.032
10.440,0.008
10.445,0.000
10.450,-0.051
10.455,-0.058
10.460,-0.042
10.465,-0.062
10.470,-0.071
10.475,-0.055
10.480,-0.059
10.485,-0.070
10.490,-0.061
10.495,-0.059
10.500,-0.070
10.505,-0.071
10.510,-0.068
10.515,-0.070
10.520,-0.069
10.525,-0.067
10.530,-0.070
10.535,-0.077
10.540,-0.078
10.545,-0.080
10.550,-0.080
10.555,-0.072
10.560,-0.068
10.565,-0.075
10.570,-0.081
10.575,-0.082
10.580,-0.082
10.585,-0.084
10.590,-0.087
10.595,-0.091
10.600,-0.095
10.605,-0.098
10.610,-0.105
10.615,-0.110
10.620,-0.111
10.625,-0.113
10.630,-0.114
10.635,-0.117
10.640,-0.117
10.645,-0.114
10.650,-0.111
10.655,-0.101
10.660,-0.088
10.665,-0.072
10.670,-0.052
10.675,-0.033
10.680,-0.014
10.685,0.002
10.690,0.016
10.695,0.028
10.700,0.039
10.705,0.052
10.710,0.059
10.715,0.060
10.720,0.062
10.725,0.068
10.730,0.072
10.735,0.069
10.740,0.069
10.745,0.068
10.750,0.064
10.755,0.067
10.760,0.069
10.765,0.066
10.770,0.060
10.775,0.052
10.780,0.049
10.785,0.048
10.790,0.043
10.795,0.040
10.800,0.040
10.805,0.038
10.810,0.032
10.815,0.031
10.820,0.026
10.825,0.019
10.830,0.017
10.835,0.017
10.840,0.013
10.845,0.016
10.850,0.021
10.855,0.018
10.860,0.014
10.865,0.014
10.870,0.011
10.875,0.011
10.880,0.012
10.885,0.012
10.890,0.012
10.895,0.011
10.900,0.011
10.905,0.013
10.910,0.017
10.915,0.020
10.920,0.017
10.925,0.008
10.930,-0.004
10.935,-0.020
10.940,-0.035
10.945,-0.039
10.950,-0.033
10.955,-0.036
10.960,-0.052
10.965,-0.064
10.970,-0.071
10.975,-0.064
10.980,-0.045
10.985,-0.043
10.990,-0.042
10.995,-0.030
11.000,-0.018
11.005,-0.002
11.010,0.009
11.015,0.025
11.020,0.052
11.025,0.064
11.030,0.064
11.035,0.067
11.040,0.071
11.045,0.070
11.050,0.066
11.055,0.063
11.060,0.061
11.065,0.055
11.070,0.048
11.075,0.043
11.080,0.042
11.085,0.044
11.090,0.044
11.095,0.036
11.100,0.016
11.105,-0.033
11.110,-0.112
11.115,-0.222
11.120,-0.363
11.125,-0.503
11.130,-0.463
11.135,-0.121
11.140,0.257
11.145,0.454
11.150,0.518
11.155,0.495
11.160,0.390
11.165,0.236
11.170,0.100
11.175,0.053
11.180,0.058
11.185,0.016
11.190,-0.011
11.195,0.006
11.200,-0.003
11.205,-0.021
11.210,-0.012
11.215,-0.011
11.220,-0.028
11.225,-0.032
11.230,-0.029
11.235,-0.036
11.240,-0.039
11.245,-0.034
11.250,-0.034
11.255,-0.037
11.260,-0.037
11.265,-0.038
11.270,-0.042
11.275,-0.042
11.280,-0.042
11.285,-0.044
11.290,-0.047
11.295,-0.050
11.300,-0.051
11.305,-0.054
11.310,-0.058
11.315,-0.060
11.320,-0.061
11.325,-0.061
11.330,-0.063
11.335,-0.072
11.340,-0.076
11.345,-0.077
11.350,-0.077
11.355,-0.079
11.360,-0.082
11.365,-0.085
11.370,-0.088
11.375,-0.093
11.380,-0.095
11.385,-0.091
11.390,-0.084
11.395,-0.076
11.400,-0.064
11.405,-0.050
11.410,-0.036
11.415,-0.022
11.420,-0.007
11.425,0.008
11.430,0.024
11.435,0.037
11.440,0.048
11.445,0.060
11.450,0.067
11.455,0.068
11.460,0.067
11.465,0.068
11.470,0.071
11.475,0.073
11.480,0.074
11.485,0.073
11.490,0.067
11.495,0.060
11.500,0.057
11.505,0.058
11.510,0.056
11.515,0.050
11.520,0.047
11.525,0.044
11.530,0.040
11.535,0.036
11.540,0.032
11.545,0.027
11.550,0.022
11.555,0.021
11.560,0.022
11.565,0.022
11.570,0.019
11.575,0.016
11.580,0.015
11.585,0.015
11.590,0.011
11.595,0.009
11.600,0.012
11.605,0.016
11.610,0.015
11.615,0.012
11.620,0.013
11.625,0.012
11.630,0.010
11.635,0.009
11.640,0.009
11.645,0.009
11.650,0.009
11.655,0.009
11.660,0.007
11.665,0.001
11.670,-0.009
11.675,-0.025
11.680,-0.040
11.685,-0.044
11.690,-0.042
11.695,-0.048
11.700,-0.062
11.705,-0.071
11.710,-0.079
11.715,-0.072
11.720,-0.053
11.725,-0.055
11.730,-0.058
11.735,-0.045
11.740,-0.028
11.745,-0.010
11.750,-0.003
11.755,0.012
11.760,0.040
11.765,0.056
11.770,0.060
11.775,0.064
11.780,0.066
11.785,0.063
11.790,0.059
11.795,0.058
11.800,0.057
11.805,0.054
11.810,0.051
11.815,0.052
11.820,0.048
11.825,0.039
11.830,0.037
11.835,0.034
11.840,0.008
11.845,-0.054
11.850,-0.140
11.855,-0.251
11.860,-0.393
11.865,-0.522
11.870,-0.433
11.875,-0.040
11.880,0.331
11.885,0.498
11.890,0.543
11.895,0.496
11.900,0.370
11.905,0.203
11.910,0.066
11.915,0.039
11.920,0.051
11.925,0.004
11.930,-0.017
11.935,0.002
11.940,-0.014
11.945,-0.031
11.950,-0.017
11.955,-0.016
11.960,-0.030
11.965,-0.028
11.970,-0.025
11.975,-0.036
11.980,-0.042
11.985,-0.040
11.990,-0.041
11.995,-0.042
12.000,-0.037
12.005,-0.039
12.010,-0.043
12.015,-0.041
12.020,-0.040
12.025,-0.045
12.030,-0.048
12.035,-0.054
12.040,-0.060
12.045,-0.061
12.050,-0.066
12.055,-0.070
12.060,-0.070
12.065,-0.075
12.070,-0.077
12.075,-0.080
12.080,-0.083
12.085,-0.085
12.090,-0.096
12.095,-0.109
12.100,-0.111
12.105,-0.113
12.110,-0.114
12.115,-0.111
12.120,-0.108
12.125,-0.104
12.130,-0.101
12.135,-0.096
12.140,-0.076
12.145,-0.051
12.150,-0.033
12.155,-0.018
12.160,-0.004
12.165,0.009
12.170,0.031
12.175,0.051
12.180,0.060
12.185,0.066
12.190,0.067
12.195,0.067
12.200,0.072
12.205,0.075
12.210,0.077
12.215,0.078
12.220,0.073
12.225,0.070
12.230,0.069
12.235,0.067
12.240,0.065
12.245,0.059
12.250,0.053
12.255,0.051
12.260,0.045
12.265,0.040
12.270,0.038
12.275,0.035
12.280,0.033
12.285,0.029
12.290,0.023
12.295,0.019
12.300,0.017
12.305,0.020
12.310,0.019
12.315,0.019
12.320,0.019
12.325,0.016
12.330,0.014
12.335,0.013
12.340,0.013
12.345,0.015
12.350,0.014
12.355,0.010
12.360,0.008
12.365,0.009
12.370,0.009
12.375,0.008
12.380,0.005
12.385,0.003
12.390,0.002
12.395,-0.005
12.400,-0.017
12.405,-0.033
12.410,-0.045
12.415,-0.043
12.420,-0.040
12.425,-0.052
12.430,-0.068
12.435,-0.082
12.440,-0.089
12.445,-0.076
12.450,-0.064
12.455,-0.067
12.460,-0.060
12.465,-0.038
12.470,-0.013
12.475,0.002
12.480,0.007
12.485,0.023
12.490,0.050
12.495,0.063
12.500,0.064
12.505,0.068
12.510,0.067
12.515,0.061
12.520,0.060
12.525,0.059
12.530,0.054
12.535,0.050
12.540,0.050
12.545,0.048
12.550,0.044
12.555,0.041
12.560,0.039
12.565,0.034
12.570,0.015
12.575,-0.034
12.580,-0.098
12.585,-0.178
12.590,-0.279
12.595,-0.374
12.600,-0.295
12.605,0.052
12.610,0.374
12.615,0.473
12.620,0.471
12.625,0.444
12.630,0.363
12.635,0.219
12.640,0.068
12.645,0.009
12.650,0.014
12.655,-0.022
12.660,-0.051
12.665,-0.031
12.670,-0.037
12.675,-0.057
12.680,-0.049
12.685,-0.048
12.690,-0.060
12.695,-0.057
12.700,-0.051
12.705,-0.056
12.710,-0.058
12.715,-0.055
12.720,-0.057
12.725,-0.060
12.730,-0.059
12.735,-0.060
12.740,-0.060
12.745,-0.058
12.750,-0.058
12.755,-0.060
12.760,-0.062
12.765,-0.062
12.770,-0.063
12.775,-0.063
12.780,-0.063
12.785,-0.062
12.790,-0.064
12.795,-0.065
12.800,-0.066
12.805,-0.068
12.810,-0.073
12.815,-0.076
12.820,-0.075
12.825,-0.075
12.830,-0.077
12.835,-0.078
12.840,-0.079
12.845,-0.080
12.850,-0.083
12.855,-0.081
12.860,-0.076
12.865,-0.068
12.870,-0.056
12.875,-0.044
12.880,-0.030
12.885,-0.015
12.890,-0.002
12.895,0.012
12.900,0.026
12.905,0.040
12.910,0.052
12.915,0.060
12.920,0.065
12.925,0.068
12.930,0.071
12.935,0.069
12.940,0.064
12.945,0.061
12.950,0.062
12.955,0.067
12.960,0.068
12.965,0.063
12.970,0.058
12.975,0.053
12.980,0.049
12.985,0.047
12.990,0.045
12.995,0.043
13.000,0.040
13.005,0.037
13.010,0.033
13.015,0.030
13.020,0.029
13.025,0.029
13.030,0.027
13.035,0.023
13.040,0.020
13.045,0.020
13.050,0.021
13.055,0.020
13.060,0.019
13.065,0.019
13.070,0.020
13.075,0.017
13.080,0.015
13.085,0.013
13.090,0.011
13.095,0.011
13.100,0.011
13.105,0.012
13.110,0.012
13.115,0.010
13.120,0.011
13.125,0.013
13.130,0.013
13.135,0.010
13.140,0.004
13.145,-0.009
13.150,-0.025
13.155,-0.039
13.160,-0.043
13.165,-0.038
13.170,-0.042
13.175,-0.060
13.180,-0.074
13.185,-0.084
13.190,-0.079
13.195,-0.058
13.200,-0.056
13.205,-0.056
13.210,-0.046
13.215,-0.030
13.220,-0.009
13.225,0.002
13.230,0.015
13.235,0.042
13.240,0.056
13.245,0.055
13.250,0.057
13.255,0.065
13.260,0.066
13.265,0.060
13.270,0.056
13.275,0.052
13.280,0.052
13.285,0.051
13.290,0.047
13.295,0.042
13.300,0.039
13.305,0.040
13.310,0.036
13.315,0.021
13.320,-0.016
13.325,-0.086
13.330,-0.182
13.335,-0.306
13.340,-0.449
13.345,-0.501
13.350,-0.262
13.355,0.158
13.360,0.423
13.365,0.517
13.370,0.526
13.375,0.450
13.380,0.308
13.385,0.138
13.390,0.039
13.395,0.041
13.400,0.028
13.405,-0.016
13.410,-0.011
13.415,-0.003
13.420,-0.025
13.425,-0.030
13.430,-0.023
13.435,-0.034
13.440,-0.040
13.445,-0.033
13.450,-0.034
13.455,-0.042
13.460,-0.041
13.465,-0.039
13.470,-0.042
13.475,-0.043
13.480,-0.041
13.485,-0.045
13.490,-0.047
13.495,-0.047
13.500,-0.050
13.505,-0.052
13.510,-0.051
13.515,-0.052
13.520,-0.055
13.525,-0.057
13.530,-0.061
13.535,-0.066
13.540,-0.068
13.545,-0.069
13.550,-0.073
13.555,-0.077
13.560,-0.080
13.565,-0.083
13.570,-0.082
13.575,-0.082
13.580,-0.084
13.585,-0.086
13.590,-0.088
13.595,-0.089
13.600,-0.087
13.605,-0.084
13.610,-0.083
13.615,-0.074
13.620,-0.057
13.625,-0.038
13.630,-0.022
13.635,-0.009
13.640,0.004
13.645,0.019
13.650,0.037
13.655,0.050
13.660,0.057
13.665,0.067
13.670,0.073
13.675,0.073
13.680,0.072
13.685,0.073
13.690,0.076
13.695,0.074
13.700,0.073
13.705,0.072
13.710,0.064
13.715,0.058
13.720,0.054
13.725,0.045
13.730,0.045
13.735,0.051
13.740,0.055
13.745,0.050
13.750,0.040
13.755,0.034
13.760,0.032
13.765,0.031
13.770,0.029
13.775,0.023
13.780,0.012
13.785,0.004
13.790,0.008
13.795,0.017
13.800,0.021
13.805,0.020
13.810,0.013
13.815,0.011
13.820,0.014
13.825,0.017
13.830,0.015
13.835,0.001
13.840,-0.006
13.845,0.002
13.850,0.009
13.855,0.009
13.860,0.001
13.865,-0.006
13.870,-0.005
13.875,-0.002
13.880,0.000
13.885,-0.002
13.890,-0.011
13.895,-0.032
13.900,-0.051
13.905,-0.051
13.910,-0.046
13.915,-0.053
13.920,-0.070
13.925,-0.086
13.930,-0.093
13.935,-0.083
13.940,-0.071
13.945,-0.074
13.950,-0.067
13.955,-0.045
13.960,-0.020
13.965,-0.006
13.970,-0.001
13.975,0.017
13.980,0.044
13.985,0.058
13.990,0.061
13.995,0.064
14.000,0.062
14.005,0.052
14.010,0.048
14.015,0.056
14.020,0.058
14.025,0.055
14.030,0.053
14.035,0.050
14.040,0.048
14.045,0.039
14.050,0.029
14.055,0.028
14.060,0.010
14.065,-0.039
14.070,-0.109
14.075,-0.195
14.080,-0.292
14.085,-0.378
14.090,-0.305
14.095,0.051
14.100,0.414
14.105,0.521
14.110,0.502
14.115,0.484
14.120,0.419
14.125,0.277
14.130,0.102
14.135,0.013
14.140,0.022
14.145,-0.007
14.150,-0.044
14.155,-0.032
14.160,-0.046
14.165,-0.073
14.170,-0.061
14.175,-0.054
14.180,-0.070
14.185,-0.077
14.190,-0.069
14.195,-0.067
14.200,-0.069
14.205,-0.067
14.210,-0.070
14.215,-0.074
14.220,-0.070
14.225,-0.071
14.230,-0.075
14.235,-0.068
14.240,-0.063
14.245,-0.071
14.250,-0.071
14.255,-0.069
14.260,-0.075
14.265,-0.079
14.270,-0.084
14.275,-0.087
14.280,-0.084
14.285,-0.086
14.290,-0.087
14.295,-0.091
14.300,-0.096
14.305,-0.100
14.310,-0.106
14.315,-0.109
14.320,-0.109
14.325,-0.108
14.330,-0.108
14.335,-0.110
14.340,-0.112
14.345,-0.112
14.350,-0.108
14.355,-0.098
14.360,-0.077
14.365,-0.057
14.370,-0.039
14.375,-0.018
14.380,0.003
14.385,0.019
14.390,0.032
14.395,0.047
14.400,0.060
14.405,0.070
14.410,0.075
14.415,0.077
14.420,0.084
14.425,0.089
14.430,0.087
14.435,0.084
14.440,0.080
14.445,0.076
14.450,0.074
14.455,0.072
14.460,0.067
14.465,0.063
14.470,0.062
14.475,0.058
14.480,0.051
14.485,0.046
14.490,0.046
14.495,0.044
14.500,0.038
14.505,0.036
14.510,0.032
14.515,0.029
14.520,0.026
14.525,0.021
14.530,0.017
14.535,0.016
14.540,0.016
14.545,0.019
14.550,0.019
14.555,0.017
14.560,0.018
14.565,0.018
14.570,0.017
14.575,0.014
14.580,0.011
14.585,0.011
14.590,0.009
14.595,0.007
14.600,0.007
14.605,0.008
14.610,0.007
14.615,0.005
14.620,0.000
14.625,-0.012
14.630,-0.029
14.635,-0.040
14.640,-0.041
14.645,-0.039
14.650,-0.045
14.655,-0.056
14.660,-0.071
14.665,-0.085
14.670,-0.077
14.675,-0.058
14.680,-0.057
14.685,-0.054
14.690,-0.038
14.695,-0.018
14.700,0.002
14.705,0.013
14.710,0.026
14.715,0.050
14.720,0.064
14.725,0.065
14.730,0.071
14.735,0.074
14.740,0.069
14.745,0.063
14.750,0.062
14.755,0.060
14.760,0.056
14.765,0.055
14.770,0.054
14.775,0.053
14.780,0.051
14.785,0.045
14.790,0.035
14.795,0.017
14.800,-0.024
14.805,-0.088
14.810,-0.180
14.815,-0.305
14.820,-0.432
14.825,-0.413
14.830,-0.106
14.835,0.274
14.840,0.457
14.845,0.496
14.850,0.481
14.855,0.405
14.860,0.266
14.865,0.108
14.870,0.029
14.875,0.030
14.880,0.003
14.885,-0.030
14.890,-0.018
14.895,-0.022
14.900,-0.045
14.905,-0.042
14.910,-0.036
14.915,-0.048
14.920,-0.050
14.925,-0.045
14.930,-0.051
14.935,-0.055
14.940,-0.051
14.945,-0.053
14.950,-0.058
14.955,-0.058
14.960,-0.059
14.965,-0.063
14.970,-0.064
14.975,-0.061
14.980,-0.060
14.985,-0.060
14.990,-0.062
14.995,-0.069
15.000,-0.072
15.005,-0.067
15.010,-0.065
15.015,-0.065
15.020,-0.065
15.025,-0.069
15.030,-0.070
15.035,-0.072
15.040,-0.076
15.045,-0.079
15.050,-0.080
15.055,-0.078
15.060,-0.079
15.065,-0.081
15.070,-0.085
15.075,-0.087
15.080,-0.086
15.085,-0.083
15.090,-0.072
15.095,-0.059
15.100,-0.048
15.105,-0.037
15.110,-0.024
15.115,-0.011
15.120,0.004
15.125,0.016
15.130,0.029
15.135,0.042
15.140,0.051
15.145,0.057
15.150,0.061
15.155,0.066
15.160,0.069
15.165,0.069
15.170,0.069
15.175,0.065
15.180,0.058
15.185,0.057
15.190,0.061
15.195,0.060
15.200,0.054
15.205,0.047
15.210,0.041
15.215,0.041
15.220,0.040
15.225,0.036
15.230,0.033
15.235,0.028
15.240,0.022
15.245,0.019
15.250,0.016
15.255,0.015
15.260,0.013
15.265,0.013
15.270,0.013
15.275,0.012
15.280,0.013
15.285,0.011
15.290,0.011
15.295,0.012
15.300,0.012
15.305,0.012
15.310,0.010
15.315,0.008
15.320,0.009
15.325,0.008
15.330,0.009
15.335,0.011
15.340,0.012
15.345,0.009
15.350,0.008
15.355,0.010
15.360,0.011
15.365,0.011
15.370,0.010
15.375,0.005
15.380,-0.008
15.385,-0.024
15.390,-0.039
15.395,-0.048
15.400,-0.046
15.405,-0.044
15.410,-0.056
15.415,-0.071
15.420,-0.084
15.425,-0.084
15.430,-0.061
15.435,-0.051
15.440,-0.053
15.445,-0.045
15.450,-0.032
15.455,-0.014
15.460,-0.002
15.465,0.010
15.470,0.036
15.475,0.055
15.480,0.059
15.485,0.060
15.490,0.063
15.495,0.063
15.500,0.061
15.505,0.062
15.510,0.060
15.515,0.054
15.520,0.050
15.525,0.049
15.530,0.047
15.535,0.045
15.540,0.041
15.545,0.037
15.550,0.025
15.555,-0.014
15.560,-0.091
15.565,-0.196
15.570,-0.337
15.575,-0.504
15.580,-0.580
15.585,-0.346
15.590,0.102
15.595,0.411
15.600,0.543
15.605,0.562
15.610,0.473
15.615,0.320
15.620,0.150
15.625,0.059
15.630,0.065
15.635,0.047
15.640,0.000
15.645,0.006
15.650,0.015
15.655,-0.010
15.660,-0.015
15.665,-0.004
15.670,-0.014
15.675,-0.022
15.680,-0.015
15.685,-0.021
15.690,-0.028
15.695,-0.025
15.700,-0.028
15.705,-0.033
15.710,-0.034
15.715,-0.034
15.720,-0.034
15.725,-0.037
15.730,-0.039
15.735,-0.036
15.740,-0.038
15.745,-0.038
15.750,-0.038
15.755,-0.045
15.760,-0.049
15.765,-0.053
15.770,-0.063
15.775,-0.070
15.780,-0.069
15.785,-0.073
15.790,-0.077
15.795,-0.083
15.800,-0.092
15.805,-0.091
15.810,-0.089
15.815,-0.094
15.820,-0.101
15.825,-0.108
15.830,-0.119
15.835,-0.120
15.840,-0.109
15.845,-0.103
15.850,-0.095
15.855,-0.072
15.860,-0.050
15.865,-0.032
15.870,-0.013
15.875,0.004
15.880,0.023
15.885,0.040
15.890,0.052
15.895,0.064
15.900,0.076
15.905,0.083
15.910,0.085
15.915,0.085
15.920,0.084
15.925,0.084
15.930,0.080
15.935,0.076
15.940,0.076
15.945,0.074
15.950,0.076
15.955,0.077
15.960,0.067
15.965,0.059
15.970,0.048
15.975,0.047
15.980,0.058
15.985,0.057
15.990,0.044
15.995,0.030
16.000,0.024
16.005,0.024
16.010,0.025
16.015,0.028
16.020,0.025
16.025,0.026
16.030,0.024
16.035,0.014
16.040,0.014
16.045,0.014
16.050,0.007
16.055,0.005
16.060,0.008
16.065,0.012
16.070,0.012
16.075,0.007
16.080,-0.001
16.085,0.001
16.090,0.005
16.095,0.007
16.100,0.013
16.105,0.012
16.110,0.008
16.115,0.008
16.120,0.000
16.125,-0.019
16.130,-0.037
16.135,-0.045
16.140,-0.041
16.145,-0.039
16.150,-0.046
16.155,-0.063
16.160,-0.081
16.165,-0.087
16.170,-0.078
16.175,-0.063
16.180,-0.063
16.185,-0.064
16.190,-0.047
16.195,-0.018
16.200,0.001
16.205,0.006
16.210,0.019
16.215,0.041
16.220,0.053
16.225,0.060
16.230,0.065
16.235,0.067
16.240,0.062
16.245,0.054
16.250,0.051
16.255,0.052
16.260,0.050
16.265,0.054
16.270,0.063
16.275,0.063
16.280,0.052
16.285,0.047
16.290,0.045
16.295,0.025
16.300,-0.023
16.305,-0.094
16.310,-0.181
16.315,-0.285
16.320,-0.378
16.325,-0.343
16.330,-0.026
16.335,0.371
16.340,0.518
16.345,0.512
16.350,0.493
16.355,0.424
16.360,0.289
16.365,0.116
16.370,0.017
16.375,0.022
16.380,-0.003
16.385,-0.053
16.390,-0.045
16.395,-0.041
16.400,-0.067
16.405,-0.067
16.410,-0.058
16.415,-0.070
16.420,-0.071
16.425,-0.059
16.430,-0.061
16.435,-0.069
16.440,-0.067
16.445,-0.069
16.450,-0.075
16.455,-0.072
16.460,-0.069
16.465,-0.071
16.470,-0.071
16.475,-0.069
16.480,-0.070
16.485,-0.072
16.490,-0.074
16.495,-0.075
16.500,-0.076
16.505,-0.075
16.510,-0.078
16.515,-0.081
16.520,-0.083
16.525,-0.087
16.530,-0.092
16.535,-0.098
16.540,-0.102
16.545,-0.103
16.550,-0.106
16.555,-0.109
16.560,-0.108
16.565,-0.106
16.570,-0.107
16.575,-0.110
16.580,-0.111
16.585,-0.103
16.590,-0.093
16.595,-0.081
16.600,-0.065
16.605,-0.045
16.610,-0.028
16.615,-0.012
16.620,0.005
16.625,0.021
16.630,0.033
16.635,0.044
16.640,0.054
16.645,0.061
16.650,0.065
16.655,0.068
16.660,0.070
16.665,0.071
16.670,0.071
16.675,0.069
16.680,0.068
16.685,0.068
16.690,0.067
16.695,0.063
16.700,0.059
16.705,0.055
16.710,0.051
16.715,0.047
16.720,0.043
16.725,0.040
16.730,0.038
16.735,0.037
16.740,0.035
16.745,0.033
16.750,0.030
16.755,0.029
16.760,0.026
16.765,0.023
16.770,0.023
16.775,0.022
16.780,0.021
16.785,0.020
16.790,0.017
16.795,0.018
16.800,0.018
16.805,0.017
16.810,0.015
16.815,0.015
16.820,0.017
16.825,0.017
16.830,0.017
16.835,0.016
16.840,0.015
16.845,0.014
16.850,0.012
16.855,0.013
16.860,0.010
16.865,0.008
16.870,0.004
16.875,-0.004
16.880,-0.016
16.885,-0.031
16.890,-0.040
16.895,-0.037
16.900,-0.037
16.905,-0.047
16.910,-0.063
16.915,-0.078
16.920,-0.082
16.925,-0.064
16.930,-0.052
16.935,-0.053
16.940,-0.043
16.945,-0.027
16.950,-0.012
16.955,-0.003
16.960,0.008
16.965,0.037
16.970,0.064
16.975,0.069
16.980,0.066
16.985,0.069
16.990,0.070
16.995,0.064
17.000,0.059
17.005,0.058
17.010,0.057
17.015,0.056
17.020,0.056
17.025,0.052
17.030,0.047
17.035,0.045
17.040,0.044
17.045,0.034
17.050,0.004
17.055,-0.060
17.060,-0.151
17.065,-0.272
17.070,-0.414
17.075,-0.517
17.080,-0.374
17.085,0.034
17.090,0.366
17.095,0.507
17.100,0.538
17.105,0.487
17.110,0.366
17.115,0.199
17.120,0.073
17.125,0.045
17.130,0.041
17.135,-0.006
17.140,-0.019
17.145,-0.003
17.150,-0.021
17.155,-0.032
17.160,-0.022
17.165,-0.029
17.170,-0.041
17.175,-0.037
17.180,-0.037
17.185,-0.046
17.190,-0.046
17.195,-0.045
17.200,-0.050
17.205,-0.051
17.210,-0.049
17.215,-0.052
17.220,-0.054
17.225,-0.051
17.230,-0.051
17.235,-0.053
17.240,-0.054
17.245,-0.058
17.250,-0.060
17.255,-0.060
17.260,-0.062
17.265,-0.063
17.270,-0.063
17.275,-0.066
17.280,-0.069
17.285,-0.072
17.290,-0.076
17.295,-0.080
17.300,-0.082
17.305,-0.081
17.310,-0.082
17.315,-0.084
17.320,-0.085
17.325,-0.087
17.330,-0.087
17.335,-0.085
17.340,-0.082
17.345,-0.074
17.350,-0.064
17.355,-0.050
17.360,-0.035
17.365,-0.020
17.370,-0.004
17.375,0.010
17.380,0.021
17.385,0.033
17.390,0.044
17.395,0.053
17.400,0.059
17.405,0.064
17.410,0.065
17.415,0.068
17.420,0.070
17.425,0.069
17.430,0.069
17.435,0.070
17.440,0.066
17.445,0.059
17.450,0.054
17.455,0.052
17.460,0.051
17.465,0.048
17.470,0.043
17.475,0.038
17.480,0.034
17.485,0.030
17.490,0.026
17.495,0.024
17.500,0.022
17.505,0.024
17.510,0.023
17.515,0.019
17.520,0.018
17.525,0.019
17.530,0.019
17.535,0.018
17.540,0.016
17.545,0.014
17.550,0.013
17.555,0.014
17.560,0.014
17.565,0.013
17.570,0.013
17.575,0.013
17.580,0.014
17.585,0.015
17.590,0.013
17.595,0.010
17.600,0.009
17.605,0.009
17.610,0.009
17.615,0.008
17.620,0.005
17.625,0.000
17.630,0.000
17.635,-0.003
17.640,-0.015
17.645,-0.032
17.650,-0.048
17.655,-0.049
17.660,-0.044
17.665,-0.050
17.670,-0.062
17.675,-0.074
17.680,-0.085
17.685,-0.079
17.690,-0.057
17.695,-0.054
17.700,-0.054
17.705,-0.043
17.710,-0.032
17.715,-0.013
17.720,-0.002
17.725,0.011
17.730,0.039
17.735,0.054
17.740,0.055
17.745,0.059
17.750,0.066
17.755,0.064
17.760,0.060
17.765,0.058
17.770,0.056
17.775,0.054
17.780,0.052
17.785,0.048
17.790,0.042
17.795,0.037
17.800,0.034
17.805,0.028
17.810,0.012
17.815,-0.027
17.820,-0.100
17.825,-0.202
17.830,-0.339
17.835,-0.495
17.840,-0.549
17.845,-0.295
17.850,0.150
17.855,0.440
17.860,0.551
17.865,0.555
17.870,0.465
17.875,0.317
17.880,0.148
17.885,0.058
17.890,0.065
17.895,0.044
17.900,-0.005
17.905,0.002
17.910,0.007
17.915,-0.018
17.920,-0.016
17.925,-0.005
17.930,-0.018
17.935,-0.028
17.940,-0.023
17.945,-0.025
17.950,-0.033
17.955,-0.034
17.960,-0.032
17.965,-0.035
17.970,-0.035
17.975,-0.037
17.980,-0.039
17.985,-0.036
17.990,-0.035
17.995,-0.039
18.000,-0.045
18.005,-0.049
18.010,-0.053
18.015,-0.060
18.020,-0.060
18.025,-0.053
18.030,-0.051
18.035,-0.055
18.040,-0.060
18.045,-0.069
18.050,-0.075
18.055,-0.083
18.060,-0.094
18.065,-0.096
18.070,-0.094
18.075,-0.099
18.080,-0.107
18.085,-0.114
18.090,-0.112
18.095,-0.104
18.100,-0.096
18.105,-0.090
18.110,-0.092
18.115,-0.085
18.120,-0.063
18.125,-0.041
18.130,-0.019
18.135,-0.002
18.140,0.010
18.145,0.030
18.150,0.045
18.155,0.051
18.160,0.064
18.165,0.071
18.170,0.070
18.175,0.070
18.180,0.071
18.185,0.070
18.190,0.071
18.195,0.074
18.200,0.073
18.205,0.068
18.210,0.064
18.215,0.060
18.220,0.059
18.225,0.059
18.230,0.048
18.235,0.035
18.240,0.034
18.245,0.036
18.250,0.040
18.255,0.044
18.260,0.035
18.265,0.023
18.270,0.020
18.275,0.017
18.280,0.019
18.285,0.020
18.290,0.013
18.295,0.015
18.300,0.015
18.305,0.011
18.310,0.009
18.315,0.006
18.320,0.008
18.325,0.011
18.330,0.014
18.335,0.015
18.340,0.014
18.345,0.013
18.350,0.006
18.355,0.002
18.360,-0.002
18.365,0.006
18.370,0.016
18.375,0.008
18.380,0.001
18.385,-0.002
18.390,-0.012
18.395,-0.028
18.400,-0.043
18.405,-0.044
18.410,-0.046
18.415,-0.058
18.420,-0.063
18.425,-0.073
18.430,-0.088
18.435,-0.082
18.440,-0.067
18.445,-0.064
18.450,-0.049
18.455,-0.026
18.460,-0.002
18.465,0.017
18.470,0.015
18.475,0.018
18.480,0.038
18.485,0.057
18.490,0.071
18.495,0.079
18.500,0.074
18.505,0.066
18.510,0.064
18.515,0.065
18.520,0.065
18.525,0.061
18.530,0.056
18.535,0.051
18.540,0.052
18.545,0.053
18.550,0.047
18.555,0.035
18.560,0.020
18.565,-0.015
18.570,-0.075
18.575,-0.160
18.580,-0.260
18.585,-0.347
18.590,-0.271
18.595,0.079
18.600,0.426
18.605,0.526
18.610,0.512
18.615,0.486
18.620,0.405
18.625,0.257
18.630,0.090
18.635,0.013
18.640,0.012
18.645,-0.027
18.650,-0.060
18.655,-0.040
18.660,-0.048
18.665,-0.078
18.670,-0.068
18.675,-0.057
18.680,-0.077
18.685,-0.081
18.690,-0.075
18.695,-0.080
18.700,-0.082
18.705,-0.077
18.710,-0.080
18.715,-0.082
18.720,-0.075
18.725,-0.073
18.730,-0.077
18.735,-0.079
18.740,-0.078
18.745,-0.078
18.750,-0.081
18.755,-0.080
18.760,-0.080
18.765,-0.084
18.770,-0.087
18.775,-0.093
18.780,-0.095
18.785,-0.090
18.790,-0.087
18.795,-0.091
18.800,-0.095
18.805,-0.099
18.810,-0.103
18.815,-0.107
18.820,-0.106
18.825,-0.103
18.830,-0.107
18.835,-0.112
18.840,-0.115
18.845,-0.114
18.850,-0.108
18.855,-0.097
18.860,-0.083
18.865,-0.065
18.870,-0.044
18.875,-0.027
18.880,-0.009
18.885,0.009
18.890,0.021
18.895,0.031
18.900,0.046
18.905,0.058
18.910,0.064
18.915,0.069
18.920,0.070
18.925,0.066
18.930,0.068
18.935,0.075
18.940,0.077
18.945,0.069
18.950,0.061
18.955,0.059
18.960,0.058
18.965,0.055
18.970,0.051
18.975,0.047
18.980,0.046
18.985,0.042
18.990,0.037
18.995,0.035
19.000,0.035
19.005,0.031
19.010,0.022
19.015,0.020
19.020,0.020
19.025,0.017
19.030,0.017
19.035,0.018
19.040,0.022
19.045,0.028
19.050,0.024
19.055,0.018
19.060,0.016
19.065,0.012
19.070,0.012
19.075,0.016
19.080,0.016
19.085,0.014
19.090,0.013
19.095,0.012
19.100,0.018
19.105,0.023
19.110,0.021
19.115,0.015
19.120,0.012
19.125,0.014
19.130,0.013
19.135,0.006
19.140,0.002
19.145,-0.009
19.150,-0.031
19.155,-0.045
19.160,-0.040
19.165,-0.039
19.170,-0.050
19.175,-0.064
19.180,-0.076
19.185,-0.078
19.190,-0.063
19.195,-0.056
19.200,-0.056
19.205,-0.046
19.210,-0.027
19.215,-0.001
19.220,0.012
19.225,0.013
19.230,0.030
19.235,0.051
19.240,0.059
19.245,0.065
19.250,0.074
19.255,0.073
19.260,0.060
19.265,0.053
19.270,0.057
19.275,0.057
19.280,0.049
19.285,0.047
19.290,0.053
19.295,0.062
19.300,0.054
19.305,0.036
19.310,0.030
19.315,0.017
19.320,-0.032
19.325,-0.119
19.330,-0.240
19.335,-0.376
19.340,-0.466
19.345,-0.308
19.350,0.102
19.355,0.406
19.360,0.500
19.365,0.506
19.370,0.460
19.375,0.360
19.380,0.210
19.385,0.080
19.390,0.044
19.395,0.031
19.400,-0.027
19.405,-0.048
19.410,-0.030
19.415,-0.038
19.420,-0.045
19.425,-0.033
19.430,-0.044
19.435,-0.061
19.440,-0.059
19.445,-0.064
19.450,-0.070
19.455,-0.056
19.460,-0.047
19.465,-0.051
19.470,-0.054
19.475,-0.067
19.480,-0.079
19.485,-0.069
19.490,-0.057
19.495,-0.054
19.500,-0.057
19.505,-0.067
19.510,-0.076
19.515,-0.069
19.520,-0.056
19.525,-0.054
19.530,-0.065
19.535,-0.078
19.540,-0.086
19.545,-0.081
19.550,-0.075
19.555,-0.082
19.560,-0.082
19.565,-0.078
19.570,-0.074
19.575,-0.069
19.580,-0.076
19.585,-0.079
19.590,-0.065
19.595,-0.065
19.600,-0.079
19.605,-0.078
19.610,-0.076
19.615,-0.068
19.620,-0.050
19.625,-0.035
19.630,-0.027
19.635,-0.019
19.640,0.000
19.645,0.021
19.650,0.028
19.655,0.033
19.660,0.043
19.665,0.053
19.670,0.058
19.675,0.059
19.680,0.067
19.685,0.071
19.690,0.062
19.695,0.047
19.700,0.042
19.705,0.045
19.710,0.048
19.715,0.049
19.720,0.044
19.725,0.037
19.730,0.034
19.735,0.031
19.740,0.024
19.745,0.023
19.750,0.024
19.755,0.018
19.760,0.017
19.765,0.019
19.770,0.016
19.775,0.014
19.780,0.011
19.785,-0.002
19.790,-0.002
19.795,0.011
19.800,0.019
19.805,0.029
19.810,0.031
19.815,0.027
19.820,0.032
19.825,0.033
19.830,0.026
19.835,0.024
19.840,0.023
19.845,0.022
19.850,0.026
19.855,0.028
19.860,0.022
19.865,0.020
19.870,0.016
19.875,0.010
19.880,0.012
19.885,0.023
19.890,0.029
19.895,0.019
19.900,0.005
19.905,-0.007
19.910,-0.026
19.915,-0.039
19.920,-0.040
19.925,-0.041
19.930,-0.044
19.935,-0.055
19.940,-0.067
19.945,-0.075
19.950,-0.066
19.955,-0.046
19.960,-0.049
19.965,-0.050
19.970,-0.034
19.975,-0.014
19.980,0.004
19.985,0.007
19.990,0.021
19.995,0.049
20.000,0.060
20.005,0.063
20.010,0.071
20.015,0.076
20.020,0.071
20.025,0.064
20.030,0.064
20.035,0.066
20.040,0.062
20.045,0.062
20.050,0.067
20.055,0.062
20.060,0.058
20.065,0.055
20.070,0.044
20.075,0.027
20.080,-0.020
20.085,-0.098
20.090,-0.203
20.095,-0.344
20.100,-0.495
20.105,-0.487
20.110,-0.158
20.115,0.263
20.120,0.493
20.125,0.568
20.130,0.555
20.135,0.456
20.140,0.299
20.145,0.138
20.150,0.059
20.155,0.051
20.160,0.016
20.165,-0.021
20.170,-0.011
20.175,-0.018
20.180,-0.040
20.185,-0.031
20.190,-0.026
20.195,-0.043
20.200,-0.047
20.205,-0.040
20.210,-0.045
20.215,-0.053
20.220,-0.050
20.225,-0.047
20.230,-0.053
20.235,-0.051
20.240,-0.047
20.245,-0.056
20.250,-0.065
20.255,-0.067
20.260,-0.066
20.265,-0.058
20.270,-0.055
20.275,-0.060
20.280,-0.060
20.285,-0.057
20.290,-0.064
20.295,-0.076
20.300,-0.077
20.305,-0.080
20.310,-0.092
20.315,-0.096
20.320,-0.096
20.325,-0.096
20.330,-0.095
20.335,-0.097
20.340,-0.098
20.345,-0.102
20.350,-0.109
20.355,-0.113
20.360,-0.114
20.365,-0.114
20.370,-0.112
20.375,-0.100
20.380,-0.085
20.385,-0.065
20.390,-0.039
20.395,-0.024
20.400,-0.012
20.405,0.014
20.410,0.033
20.415,0.045
20.420,0.055
20.425,0.061
20.430,0.067
20.435,0.071
20.440,0.078
20.445,0.081
20.450,0.083
20.455,0.080
20.460,0.070
20.465,0.068
20.470,0.066
20.475,0.058
20.480,0.052
20.485,0.059
20.490,0.070
20.495,0.065
20.500,0.054
20.505,0.043
20.510,0.036
20.515,0.034
20.520,0.020
20.525,0.010
20.530,0.017
20.535,0.025
20.540,0.029
20.545,0.025
20.550,0.018
20.555,0.015
20.560,0.016
20.565,0.013
20.570,0.008
20.575,0.009
20.580,0.015
20.585,0.019
20.590,0.019
20.595,0.014
20.600,0.009
20.605,0.005
20.610,0.004
20.615,0.013
20.620,0.021
20.625,0.020
20.630,0.016
20.635,0.013
20.640,0.001
20.645,-0.014
20.650,-0.029
20.655,-0.040
20.660,-0.039
20.665,-0.036
20.670,-0.036
20.675,-0.046
20.680,-0.064
20.685,-0.070
20.690,-0.059
20.695,-0.049
20.700,-0.047
20.705,-0.041
20.710,-0.018
20.715,0.009
20.720,0.017
20.725,0.018
20.730,0.039
20.735,0.063
20.740,0.075
20.745,0.079
20.750,0.077
20.755,0.082
20.760,0.084
20.765,0.077
20.770,0.077
20.775,0.077
20.780,0.069
20.785,0.064
20.790,0.062
20.795,0.056
20.800,0.054
20.805,0.057
20.810,0.053
20.815,0.035
20.820,-0.002
20.825,-0.063
20.830,-0.154
20.835,-0.270
20.840,-0.379
20.845,-0.318
20.850,0.017
20.855,0.348
20.860,0.462
20.865,0.473
20.870,0.457
20.875,0.390
20.880,0.260
20.885,0.110
20.890,0.036
20.895,0.025
20.900,-0.022
20.905,-0.057
20.910,-0.037
20.915,-0.035
20.920,-0.054
20.925,-0.046
20.930,-0.044
20.935,-0.058
20.940,-0.058
20.945,-0.056
20.950,-0.061
20.955,-0.059
20.960,-0.056
20.965,-0.060
20.970,-0.066
20.975,-0.065
20.980,-0.065
20.985,-0.070
20.990,-0.069
20.995,-0.069
21.000,-0.074
21.005,-0.074
21.010,-0.073
21.015,-0.078
21.020,-0.081
21.025,-0.083
21.030,-0.084
21.035,-0.083
21.040,-0.082
21.045,-0.083
21.050,-0.086
21.055,-0.087
21.060,-0.084
21.065,-0.086
21.070,-0.091
21.075,-0.097
21.080,-0.102
21.085,-0.100
21.090,-0.097
21.095,-0.092
21.100,-0.089
21.105,-0.085
21.110,-0.080
21.115,-0.071
21.120,-0.059
21.125,-0.048
21.130,-0.036
21.135,-0.020
21.140,-0.001
21.145,0.014
21.150,0.017
21.155,0.011
21.160,0.019
21.165,0.039
21.170,0.057
21.175,0.067
21.180,0.071
21.185,0.078
21.190,0.083
21.195,0.076
21.200,0.064
21.205,0.057
21.210,0.057
21.215,0.063
21.220,0.057
21.225,0.040
21.230,0.037
21.235,0.046
21.240,0.046
21.245,0.030
21.250,0.018
21.255,0.018
21.260,0.021
21.265,0.018
21.270,0.010
21.275,0.005
21.280,0.008
21.285,0.012
21.290,0.016
21.295,0.018
21.300,0.015
21.305,0.012
21.310,0.010
21.315,0.007
21.320,0.009
21.325,0.013
21.330,0.014
21.335,0.013
21.340,0.013
21.345,0.013
21.350,0.013
21.355,0.012
21.360,0.010
21.365,0.008
21.370,0.009
21.375,0.008
21.380,0.007
21.385,0.008
21.390,0.010
21.395,0.009
21.400,-0.001
21.405,-0.019
21.410,-0.037
21.415,-0.040
21.420,-0.030
21.425,-0.032
21.430,-0.045
21.435,-0.058
21.440,-0.070
21.445,-0.069
21.450,-0.052
21.455,-0.049
21.460,-0.048
21.465,-0.037
21.470,-0.024
21.475,-0.004
21.480,0.011
21.485,0.025
21.490,0.052
21.495,0.069
21.500,0.069
21.505,0.066
21.510,0.064
21.515,0.061
21.520,0.060
21.525,0.063
21.530,0.062
21.535,0.057
21.540,0.053
21.545,0.050
21.550,0.044
21.555,0.038
21.560,0.035
21.565,0.034
21.570,0.022
21.575,-0.025
21.580,-0.104
21.585,-0.211
21.590,-0.359
21.595,-0.522
21.600,-0.537
21.605,-0.242
21.610,0.162
21.615,0.407
21.620,0.506
21.625,0.515
21.630,0.436
21.635,0.291
21.640,0.138
21.645,0.064
21.650,0.058
21.655,0.025
21.660,-0.010
21.665,0.000
21.670,-0.005
21.675,-0.033
21.680,-0.033
21.685,-0.027
21.690,-0.040
21.695,-0.045
21.700,-0.041
21.705,-0.047
21.710,-0.052
21.715,-0.048
21.720,-0.052
21.725,-0.063
21.730,-0.062
21.735,-0.055
21.740,-0.053
21.745,-0.056
21.750,-0.058
21.755,-0.059
21.760,-0.053
21.765,-0.048
21.770,-0.052
21.775,-0.058
21.780,-0.060
21.785,-0.057
21.790,-0.052
21.795,-0.059
21.800,-0.066
21.805,-0.067
21.810,-0.068
21.815,-0.068
21.820,-0.074
21.825,-0.083
21.830,-0.095
21.835,-0.101
21.840,-0.090
21.845,-0.081
21.850,-0.077
21.855,-0.074
21.860,-0.078
21.865,-0.076
21.870,-0.073
21.875,-0.067
21.880,-0.050
21.885,-0.035
21.890,-0.017
21.895,0.001
21.900,0.010
21.905,0.026
21.910,0.049
21.915,0.064
21.920,0.069
21.925,0.067
21.930,0.073
21.935,0.076
21.940,0.068
21.945,0.065
21.950,0.066
21.955,0.065
21.960,0.061
21.965,0.060
21.970,0.063
21.975,0.061
21.980,0.049
21.985,0.041
21.990,0.041
21.995,0.048
22.000,0.044
22.005,0.027
22.010,0.019
22.015,0.018
22.020,0.020
22.025,0.018
22.030,0.017
22.035,0.015
22.040,0.005
22.045,0.001
22.050,0.007
22.055,0.007
22.060,0.004
22.065,0.010
22.070,0.016
22.075,0.017
22.080,0.013
22.085,0.005
22.090,0.008
22.095,0.009
22.100,0.003
22.105,0.003
22.110,-0.005
22.115,-0.005
22.120,0.007
22.125,0.012
22.130,0.011
22.135,0.006
22.140,-0.006
22.145,-0.022
22.150,-0.033
22.155,-0.043
22.160,-0.047
22.165,-0.039
22.170,-0.040
22.175,-0.054
22.180,-0.073
22.185,-0.095
22.190,-0.093
22.195,-0.076
22.200,-0.066
22.205,-0.051
22.210,-0.038
22.215,-0.028
22.220,-0.003
22.225,0.018
22.230,0.026
22.235,0.040
22.240,0.056
22.245,0.067
22.250,0.074
22.255,0.075
22.260,0.064
22.265,0.054
22.270,0.059
22.275,0.056
22.280,0.054
22.285,0.061
22.290,0.064
22.295,0.061
22.300,0.046
22.305,0.037
22.310,0.039
22.315,0.023
22.320,-0.022
22.325,-0.096
22.330,-0.204
22.335,-0.325
22.340,-0.420
22.345,-0.319
22.350,0.056
22.355,0.391
22.360,0.500
22.365,0.514
22.370,0.498
22.375,0.418
22.380,0.275
22.385,0.116
22.390,0.045
22.395,0.045
22.400,-0.003
22.405,-0.037
22.410,-0.022
22.415,-0.034
22.420,-0.055
22.425,-0.045
22.430,-0.042
22.435,-0.059
22.440,-0.061
22.445,-0.055
22.450,-0.058
22.455,-0.056
22.460,-0.049
22.465,-0.048
22.470,-0.054
22.475,-0.060
22.480,-0.062
22.485,-0.058
22.490,-0.056
22.495,-0.058
22.500,-0.062
22.505,-0.063
22.510,-0.065
22.515,-0.069
22.520,-0.070
22.525,-0.072
22.530,-0.073
22.535,-0.076
22.540,-0.079
22.545,-0.081
22.550,-0.088
22.555,-0.094
22.560,-0.098
22.565,-0.103
22.570,-0.107
22.575,-0.106
22.580,-0.103
22.585,-0.104
22.590,-0.107
22.595,-0.107
22.600,-0.105
22.605,-0.101
22.610,-0.095
22.615,-0.083
22.620,-0.063
22.625,-0.042
22.630,-0.026
22.635,-0.009
22.640,0.010
22.645,0.025
22.650,0.037
22.655,0.048
22.660,0.056
22.665,0.065
22.670,0.071
22.675,0.071
22.680,0.071
22.685,0.072
22.690,0.070
22.695,0.068
22.700,0.067
22.705,0.066
22.710,0.063
22.715,0.056
22.720,0.049
22.725,0.045
22.730,0.044
22.735,0.043
22.740,0.037
22.745,0.031
22.750,0.031
22.755,0.030
22.760,0.025
22.765,0.020
22.770,0.014
22.775,0.010
22.780,0.010
22.785,0.008
22.790,0.005
22.795,0.003
22.800,0.004
22.805,0.004
22.810,0.003
22.815,0.003
22.820,0.003
22.825,0.005
22.830,0.007
22.835,0.005
22.840,0.005
22.845,0.004
22.850,0.001
22.855,0.000
22.860,0.000
22.865,-0.001
22.870,-0.001
22.875,-0.002
22.880,-0.005
22.885,-0.010
22.890,-0.018
22.895,-0.030
22.900,-0.040
22.905,-0.040
22.910,-0.044
22.915,-0.056
22.920,-0.067
22.925,-0.083
22.930,-0.091
22.935,-0.072
22.940,-0.054
22.945,-0.053
22.950,-0.048
22.955,-0.035
22.960,-0.017
22.965,-0.003
22.970,0.007
22.975,0.030
22.980,0.052
22.985,0.058
22.990,0.060
22.995,0.063
23.000,0.066
23.005,0.064
23.010,0.058
23.015,0.057
23.020,0.055
23.025,0.053
23.030,0.053
23.035,0.050
23.040,0.048
23.045,0.047
23.050,0.043
23.055,0.029
23.060,-0.012
23.065,-0.083
23.070,-0.185
23.075,-0.324
23.080,-0.470
23.085,-0.493
23.090,-0.224
23.095,0.179
23.100,0.418
23.105,0.500
23.110,0.503
23.115,0.436
23.120,0.311
23.125,0.161
23.130,0.077
23.135,0.076
23.140,0.052
23.145,0.011
23.150,0.019
23.155,0.018
23.160,-0.008
23.165,-0.007
23.170,-0.001
23.175,-0.013
23.180,-0.018
23.185,-0.014
23.190,-0.021
23.195,-0.030
23.200,-0.028
23.205,-0.027
23.210,-0.027
23.215,-0.022
23.220,-0.020
23.225,-0.024
23.230,-0.029
23.235,-0.032
23.240,-0.036
23.245,-0.040
23.250,-0.042
23.255,-0.040
23.260,-0.036
23.265,-0.036
23.270,-0.041
23.275,-0.046
23.280,-0.052
23.285,-0.056
23.290,-0.061
23.295,-0.062
23.300,-0.062
23.305,-0.062
23.310,-0.064
23.315,-0.068
23.320,-0.070
23.325,-0.073
23.330,-0.077
23.335,-0.077
23.340,-0.076
23.345,-0.075
23.350,-0.073
23.355,-0.064
23.360,-0.051
23.365,-0.041
23.370,-0.033
23.375,-0.022
23.380,-0.005
23.385,0.010
23.390,0.021
23.395,0.032
23.400,0.042
23.405,0.051
23.410,0.055
23.415,0.059
23.420,0.064
23.425,0.064
23.430,0.061
23.435,0.059
23.440,0.057
23.445,0.059
23.450,0.063
23.455,0.059
23.460,0.048
23.465,0.041
23.470,0.041
23.475,0.041
23.480,0.035
23.485,0.030
23.490,0.028
23.495,0.026
23.500,0.019
23.505,0.014
23.510,0.012
23.515,0.010
23.520,0.008
23.525,0.009
23.530,0.011
23.535,0.011
23.540,0.006
23.545,0.001
23.550,-0.001
23.555,0.001
23.560,0.001
23.565,0.000
23.570,0.002
23.575,0.001
23.580,-0.001
23.585,-0.001
23.590,0.000
23.595,-0.002
23.600,-0.005
23.605,-0.005
23.610,-0.004
23.615,-0.004
23.620,-0.006
23.625,-0.010
23.630,-0.014
23.635,-0.021
23.640,-0.030
23.645,-0.042
23.650,-0.054
23.655,-0.055
23.660,-0.053
23.665,-0.059
23.670,-0.070
23.675,-0.086
23.680,-0.093
23.685,-0.075
23.690,-0.058
23.695,-0.060
23.700,-0.057
23.705,-0.044
23.710,-0.028
23.715,-0.011
23.720,0.001
23.725,0.025
23.730,0.053
23.735,0.061
23.740,0.059
23.745,0.063
23.750,0.066
23.755,0.065
23.760,0.065
23.765,0.066
23.770,0.063
23.775,0.058
23.780,0.057
23.785,0.056
23.790,0.055
23.795,0.052
23.800,0.049
23.805,0.038
23.810,0.001
23.815,-0.070
23.820,-0.172
23.825,-0.318
23.830,-0.493
23.835,-0.589
23.840,-0.389
23.845,0.042
23.850,0.366
23.855,0.523
23.860,0.562
23.865,0.490
23.870,0.348
23.875,0.181
23.880,0.082
23.885,0.080
23.890,0.069
23.895,0.025
23.900,0.027
23.905,0.033
23.910,0.006
23.915,0.001
23.920,0.006
23.925,-0.009
23.930,-0.017
23.935,-0.012
23.940,-0.016
23.945,-0.026
23.950,-0.025
23.955,-0.026
23.960,-0.032
23.965,-0.028
23.970,-0.020
23.975,-0.024
23.980,-0.029
23.985,-0.028
23.990,-0.028
23.995,-0.032
24.000,-0.038
24.005,-0.043
24.010,-0.048
24.015,-0.048
24.020,-0.045
24.025,-0.050
24.030,-0.054
24.035,-0.058
24.040,-0.070
24.045,-0.080
24.050,-0.083
24.055,-0.076
24.060,-0.076
24.065,-0.084
24.070,-0.088
24.075,-0.088
24.080,-0.093
24.085,-0.099
24.090,-0.102
24.095,-0.101
24.100,-0.093
24.105,-0.086
24.110,-0.082
24.115,-0.070
24.120,-0.051
24.125,-0.026
24.130,-0.003
24.135,0.009
24.140,0.023
24.145,0.035
24.150,0.046
24.155,0.058
24.160,0.067
24.165,0.069
24.170,0.070
24.175,0.079
24.180,0.084
24.185,0.075
24.190,0.066
24.195,0.068
24.200,0.065
24.205,0.056
24.210,0.051
24.215,0.055
24.220,0.060
24.225,0.056
24.230,0.046
24.235,0.033
24.240,0.031
24.245,0.028
24.250,0.020
24.255,0.018
24.260,0.016
24.265,0.019
24.270,0.024
24.275,0.023
24.280,0.024
24.285,0.020
24.290,0.007
24.295,-0.002
24.300,0.003
24.305,0.009
24.310,0.008
24.315,0.017
24.320,0.020
24.325,0.014
24.330,0.012
24.335,0.010
24.340,0.010
24.345,0.010
24.350,0.001
24.355,-0.003
24.360,0.001
24.365,-0.006
24.370,-0.017
24.375,-0.025
24.380,-0.035
24.385,-0.033
24.390,-0.025
24.395,-0.039
24.400,-0.061
24.405,-0.077
24.410,-0.090
24.415,-0.084
24.420,-0.063
24.425,-0.064
24.430,-0.060
24.435,-0.035
24.440,-0.007
24.445,0.013
24.450,0.015
24.455,0.024
24.460,0.044
24.465,0.053
24.470,0.060
24.475,0.068
24.480,0.070
24.485,0.071
24.490,0.068
24.495,0.066
24.500,0.064
24.505,0.055
24.510,0.054
24.515,0.056
24.520,0.051
24.525,0.046
24.530,0.045
24.535,0.038
24.540,0.008
24.545,-0.050
24.550,-0.124
24.555,-0.222
24.560,-0.329
24.565,-0.387
24.570,-0.212
24.575,0.180
24.580,0.433
24.585,0.488
24.590,0.483
24.595,0.449
24.600,0.354
24.605,0.193
24.610,0.057
24.615,0.026
24.620,0.016
24.625,-0.039
24.630,-0.053
24.635,-0.033
24.640,-0.050
24.645,-0.066
24.650,-0.054
24.655,-0.060
24.660,-0.075
24.665,-0.070
24.670,-0.066
24.675,-0.071
24.680,-0.068
24.685,-0.066
24.690,-0.068
24.695,-0.066
24.700,-0.064
24.705,-0.067
24.710,-0.069
24.715,-0.065
24.720,-0.063
24.725,-0.069
24.730,-0.073
24.735,-0.071
24.740,-0.072
24.745,-0.074
24.750,-0.074
24.755,-0.074
24.760,-0.074
24.765,-0.075
24.770,-0.078
24.775,-0.082
24.780,-0.087
24.785,-0.090
24.790,-0.091
24.795,-0.094
24.800,-0.095
24.805,-0.096
24.810,-0.096
24.815,-0.092
24.820,-0.091
24.825,-0.093
24.830,-0.093
24.835,-0.086
24.840,-0.070
24.845,-0.054
24.850,-0.038
24.855,-0.019
24.860,0.000
24.865,0.017
24.870,0.030
24.875,0.037
24.880,0.045
24.885,0.055
24.890,0.063
24.895,0.068
24.900,0.067
24.905,0.066
24.910,0.067
24.915,0.068
24.920,0.067
24.925,0.064
24.930,0.062
24.935,0.060
24.940,0.058
24.945,0.055
24.950,0.052
24.955,0.049
24.960,0.045
24.965,0.042
24.970,0.040
24.975,0.036
24.980,0.033
24.985,0.029
24.990,0.024
24.995,0.020
25.000,0.018
25.005,0.021
25.010,0.021
25.015,0.018
25.020,0.014
25.025,0.012
25.030,0.013
25.035,0.015
25.040,0.014
25.045,0.013
25.050,0.014
25.055,0.015
25.060,0.016
25.065,0.014
25.070,0.012
25.075,0.009
25.080,0.009
25.085,0.009
25.090,0.009
25.095,0.007
25.100,0.002
25.105,-0.006
25.110,-0.019
25.115,-0.038
25.120,-0.046
25.125,-0.042
25.130,-0.040
25.135,-0.049
25.140,-0.063
25.145,-0.079
25.150,-0.082
25.155,-0.061
25.160,-0.051
25.165,-0.054
25.170,-0.046
25.175,-0.033
25.180,-0.013
25.185,0.000
25.190,0.011
25.195,0.035
25.200,0.055
25.205,0.060
25.210,0.061
25.215,0.067
25.220,0.067
25.225,0.060
25.230,0.059
25.235,0.060
25.240,0.056
25.245,0.051
25.250,0.051
25.255,0.050
25.260,0.046
25.265,0.042
25.270,0.037
25.275,0.018
25.280,-0.033
25.285,-0.113
25.290,-0.223
25.295,-0.369
25.300,-0.516
25.305,-0.487
25.310,-0.158
25.315,0.229
25.320,0.443
25.325,0.517
25.330,0.503
25.335,0.409
25.340,0.258
25.345,0.112
25.350,0.053
25.355,0.055
25.360,0.023
25.365,-0.006
25.370,0.005
25.375,-0.006
25.380,-0.028
25.385,-0.022
25.390,-0.019
25.395,-0.031
25.400,-0.032
25.405,-0.029
25.410,-0.037
25.415,-0.041
25.420,-0.036
25.425,-0.038
25.430,-0.041
25.435,-0.041
25.440,-0.045
25.445,-0.050
25.450,-0.051
25.455,-0.052
25.460,-0.054
25.465,-0.055
25.470,-0.054
25.475,-0.056
25.480,-0.057
25.485,-0.055
25.490,-0.058
25.495,-0.062
25.500,-0.063
25.505,-0.062
25.510,-0.063
25.515,-0.068
25.520,-0.072
25.525,-0.072
25.530,-0.072
25.535,-0.073
25.540,-0.077
25.545,-0.078
25.550,-0.077
25.555,-0.075
25.560,-0.076
25.565,-0.074
25.570,-0.072
25.575,-0.066
25.580,-0.053
25.585,-0.038
25.590,-0.025
25.595,-0.013
25.600,-0.001
25.605,0.012
25.610,0.025
25.615,0.034
25.620,0.042
25.625,0.049
25.630,0.054
25.635,0.058
25.640,0.061
25.645,0.064
25.650,0.062
25.655,0.058
25.660,0.057
25.665,0.055
25.670,0.054
25.675,0.050
25.680,0.045
25.685,0.042
25.690,0.040
25.695,0.037
25.700,0.036
25.705,0.035
25.710,0.029
25.715,0.026
25.720,0.028
25.725,0.029
25.730,0.025
25.735,0.017
25.740,0.012
25.745,0.012
25.750,0.015
25.755,0.015
25.760,0.013
25.765,0.013
25.770,0.014
25.775,0.014
25.780,0.014
25.785,0.014
25.790,0.013
25.795,0.013
25.800,0.014
25.805,0.017
25.810,0.018
25.815,0.016
25.820,0.013
25.825,0.012
25.830,0.010
25.835,0.007
25.840,0.003
25.845,-0.008
25.850,-0.024
25.855,-0.040
25.860,-0.044
25.865,-0.038
25.870,-0.039
25.875,-0.054
25.880,-0.066
25.885,-0.077
25.890,-0.076
25.895,-0.055
25.900,-0.047
25.905,-0.048
25.910,-0.043
25.915,-0.033
25.920,-0.013
25.925,0.000
25.930,0.014
25.935,0.042
25.940,0.058
25.945,0.061
25.950,0.064
25.955,0.067
25.960,0.066
25.965,0.062
25.970,0.062
25.975,0.060
25.980,0.056
25.985,0.048
25.990,0.041
25.995,0.039
26.000,0.038
26.005,0.038
26.010,0.032
26.015,0.004
26.020,-0.052
26.025,-0.134
26.030,-0.258
26.035,-0.416
26.040,-0.556
26.045,-0.469
26.050,-0.071
26.055,0.314
26.060,0.508
26.065,0.564
26.070,0.516
26.075,0.391
26.080,0.223
26.085,0.085
26.090,0.052
26.095,0.059
26.100,0.017
26.105,0.001
26.110,0.016
26.115,0.000
26.120,-0.008
26.125,0.001
26.130,-0.009
26.135,-0.025
26.140,-0.020
26.145,-0.016
26.150,-0.028
26.155,-0.033
26.160,-0.027
26.165,-0.021
26.170,-0.021
26.175,-0.028
26.180,-0.033
26.185,-0.035
26.190,-0.038
26.195,-0.041
26.200,-0.049
26.205,-0.054
26.210,-0.053
26.215,-0.052
26.220,-0.049
26.225,-0.051
26.230,-0.062
26.235,-0.070
26.240,-0.071
26.245,-0.072
26.250,-0.078
26.255,-0.085
26.260,-0.094
26.265,-0.100
26.270,-0.100
26.275,-0.102
26.280,-0.102
26.285,-0.100
26.290,-0.101
26.295,-0.105
26.300,-0.109
26.305,-0.106
26.310,-0.097
26.315,-0.084
26.320,-0.068
26.325,-0.057
26.330,-0.041
26.335,-0.019
26.340,-0.004
26.345,0.013
26.350,0.030
26.355,0.042
26.360,0.056
26.365,0.066
26.370,0.068
26.375,0.068
26.380,0.074
26.385,0.076
26.390,0.074
26.395,0.078
26.400,0.076
26.405,0.069
26.410,0.062
26.415,0.057
26.420,0.060
26.425,0.063
26.430,0.053
26.435,0.045
26.440,0.041
26.445,0.039
26.450,0.040
26.455,0.038
26.460,0.032
26.465,0.029
26.470,0.026
26.475,0.022
26.480,0.015
26.485,0.008
26.490,0.014
26.495,0.017
26.500,0.016
26.505,0.021
26.510,0.022
26.515,0.019
26.520,0.012
26.525,0.003
26.530,0.007
26.535,0.017
26.540,0.016
26.545,0.012
26.550,0.008
26.555,0.013
26.560,0.016
26.565,-0.002
26.570,-0.025
26.575,-0.043
26.580,-0.049
26.585,-0.042
26.590,-0.046
26.595,-0.055
26.600,-0.067
26.605,-0.084
26.610,-0.088
26.615,-0.071
26.620,-0.059
26.625,-0.060
26.630,-0.053
26.635,-0.032
26.640,-0.005
26.645,0.012
26.650,0.028
26.655,0.048
26.660,0.054
26.665,0.055
26.670,0.061
26.675,0.069
26.680,0.072
26.685,0.067
26.690,0.066
26.695,0.070
26.700,0.068
26.705,0.057
26.710,0.047
26.715,0.044
26.720,0.042
26.725,0.039
26.730,0.035
26.735,0.014
26.740,-0.036
26.745,-0.102
26.750,-0.195
26.755,-0.295
26.760,-0.361
26.765,-0.233
26.770,0.149
26.775,0.448
26.780,0.510
26.785,0.491
26.790,0.455
26.795,0.362
26.800,0.210
26.805,0.061
26.810,0.012
26.815,0.019
26.820,-0.027
26.825,-0.057
26.830,-0.041
26.835,-0.053
26.840,-0.072
26.845,-0.062
26.850,-0.061
26.855,-0.071
26.860,-0.067
26.865,-0.062
26.870,-0.069
26.875,-0.070
26.880,-0.064
26.885,-0.068
26.890,-0.074
26.895,-0.070
26.900,-0.068
26.905,-0.073
26.910,-0.075
26.915,-0.076
26.920,-0.074
26.925,-0.071
26.930,-0.071
26.935,-0.075
26.940,-0.077
26.945,-0.077
26.950,-0.079
26.955,-0.081
26.960,-0.083
26.965,-0.084
26.970,-0.087
26.975,-0.091
26.980,-0.093
26.985,-0.095
26.990,-0.099
26.995,-0.102
27.000,-0.101
27.005,-0.100
27.010,-0.102
27.015,-0.101
27.020,-0.098
27.025,-0.096
27.030,-0.087
27.035,-0.073
27.040,-0.057
27.045,-0.041
27.050,-0.026
27.055,-0.010
27.060,0.007
27.065,0.023
27.070,0.037
27.075,0.044
27.080,0.052
27.085,0.061
27.090,0.066
27.095,0.067
27.100,0.066
27.105,0.066
27.110,0.068
27.115,0.068
27.120,0.065
27.125,0.062
27.130,0.057
27.135,0.054
27.140,0.052
27.145,0.048
27.150,0.043
27.155,0.038
27.160,0.036
27.165,0.037
27.170,0.038
27.175,0.034
27.180,0.030
27.185,0.027
27.190,0.026
27.195,0.025
27.200,0.022
27.205,0.021
27.210,0.020
27.215,0.018
27.220,0.019
27.225,0.018
27.230,0.017
27.235,0.017
27.240,0.016
27.245,0.016
27.250,0.017
27.255,0.018
27.260,0.018
27.265,0.015
27.270,0.015
27.275,0.013
27.280,0.012
27.285,0.011
27.290,0.004
27.295,-0.006
27.300,-0.020
27.305,-0.036
27.310,-0.040
27.315,-0.034
27.320,-0.036
27.325,-0.050
27.330,-0.063
27.335,-0.073
27.340,-0.070
27.345,-0.051
27.350,-0.046
27.355,-0.048
27.360,-0.037
27.365,-0.022
27.370,-0.003
27.375,0.009
27.380,0.022
27.385,0.047
27.390,0.062
27.395,0.064
27.400,0.067
27.405,0.072
27.410,0.069
27.415,0.062
27.420,0.063
27.425,0.064
27.430,0.060
27.435,0.058
27.440,0.056
27.445,0.052
27.450,0.047
27.455,0.044
27.460,0.035
27.465,0.007
27.470,-0.053
27.475,-0.139
27.480,-0.256
27.485,-0.395
27.490,-0.487
27.495,-0.322
27.500,0.083
27.505,0.385
27.510,0.500
27.515,0.517
27.520,0.465
27.525,0.347
27.530,0.181
27.535,0.061
27.540,0.041
27.545,0.040
27.550,-0.004
27.555,-0.010
27.560,0.004
27.565,-0.021
27.570,-0.033
27.575,-0.023
27.580,-0.031
27.585,-0.041
27.590,-0.037
27.595,-0.038
27.600,-0.045
27.605,-0.043
27.610,-0.042
27.615,-0.047
27.620,-0.049
27.625,-0.047
27.630,-0.049
27.635,-0.052
27.640,-0.051
27.645,-0.050
27.650,-0.052
27.655,-0.052
27.660,-0.053
27.665,-0.058
27.670,-0.061
27.675,-0.063
27.680,-0.062
27.685,-0.062
27.690,-0.065
27.695,-0.070
27.700,-0.073
27.705,-0.073
27.710,-0.073
27.715,-0.075
27.720,-0.075
27.725,-0.076
27.730,-0.078
27.735,-0.079
27.740,-0.079
27.745,-0.079
27.750,-0.078
27.755,-0.076
27.760,-0.071
27.765,-0.062
27.770,-0.050
27.775,-0.036
27.780,-0.021
27.785,-0.005
27.790,0.007
27.795,0.020
27.800,0.034
27.805,0.045
27.810,0.052
27.815,0.058
27.820,0.064
27.825,0.069
27.830,0.071
27.835,0.070
27.840,0.068
27.845,0.064
27.850,0.060
27.855,0.055
27.860,0.053
27.865,0.051
27.870,0.049
27.875,0.047
27.880,0.043
27.885,0.040
27.890,0.037
27.895,0.033
27.900,0.030
27.905,0.028
27.910,0.024
27.915,0.021
27.920,0.021
27.925,0.019
27.930,0.017
27.935,0.016
27.940,0.015
27.945,0.014
27.950,0.012
27.955,0.011
27.960,0.010
27.965,0.009
27.970,0.006
27.975,0.002
27.980,0.005
27.985,0.008
27.990,0.005
27.995,0.002
28.000,0.002
28.005,0.006
28.010,0.009
28.015,0.008
28.020,0.005
28.025,-0.001
28.030,-0.014
28.035,-0.030
28.040,-0.045
28.045,-0.047
28.050,-0.040
28.055,-0.043
28.060,-0.051
28.065,-0.065
28.070,-0.069
28.075,-0.049
28.080,-0.037
28.085,-0.045
28.090,-0.047
28.095,-0.033
28.100,-0.007
28.105,0.008
28.110,0.011
28.115,0.029
28.120,0.052
28.125,0.063
28.130,0.068
28.135,0.072
28.140,0.073
28.145,0.067
28.150,0.065
28.155,0.067
28.160,0.062
28.165,0.054
28.170,0.054
28.175,0.056
28.180,0.051
28.185,0.045
28.190,0.037
28.195,0.017
28.200,-0.032
28.205,-0.111
28.210,-0.212
28.215,-0.333
28.220,-0.447
28.225,-0.421
28.230,-0.090
28.235,0.338
28.240,0.529
28.245,0.551
28.250,0.522
28.255,0.427
28.260,0.285
28.265,0.118
28.270,0.027
28.275,0.037
28.280,0.004
28.285,-0.047
28.290,-0.033
28.295,-0.035
28.300,-0.053
28.305,-0.044
28.310,-0.039
28.315,-0.047
28.320,-0.053
28.325,-0.055
28.330,-0.058
28.335,-0.066
28.340,-0.063
28.345,-0.056
28.350,-0.061
28.355,-0.060
28.360,-0.054
28.365,-0.057
28.370,-0.058
28.375,-0.054
28.380,-0.057
28.385,-0.063
28.390,-0.071
28.395,-0.076
28.400,-0.072
28.405,-0.071
28.410,-0.075
28.415,-0.080
28.420,-0.082
28.425,-0.085
28.430,-0.092
28.435,-0.095
28.440,-0.097
28.445,-0.098
28.450,-0.098
28.455,-0.101
28.460,-0.108
28.465,-0.110
28.470,-0.107
28.475,-0.116
28.480,-0.124
28.485,-0.114
28.490,-0.096
28.495,-0.082
28.500,-0.067
28.505,-0.045
28.510,-0.034
28.515,-0.018
28.520,0.008
28.525,0.030
28.530,0.048
28.535,0.056
28.540,0.062
28.545,0.072
28.550,0.074
28.555,0.079
28.560,0.084
28.565,0.077
28.570,0.075
28.575,0.081
28.580,0.086
28.585,0.083
28.590,0.080
28.595,0.078
28.600,0.069
28.605,0.061
28.610,0.055
28.615,0.048
28.620,0.049
28.625,0.052
28.630,0.053
28.635,0.050
28.640,0.041
28.645,0.039
28.650,0.037
28.655,0.030
28.660,0.027
28.665,0.029
28.670,0.029
28.675,0.025
28.680,0.022
28.685,0.024
28.690,0.024
28.695,0.021
28.700,0.014
28.705,0.012
28.710,0.014
28.715,0.014
28.720,0.013
28.725,0.011
28.730,0.011
28.735,0.006
28.740,-0.006
28.745,-0.022
28.750,-0.038
28.755,-0.045
28.760,-0.043
28.765,-0.044
28.770,-0.055
28.775,-0.072
28.780,-0.082
28.785,-0.077
28.790,-0.062
28.795,-0.057
28.800,-0.054
28.805,-0.048
28.810,-0.032
28.815,-0.005
28.820,0.008
28.825,0.015
28.830,0.039
28.835,0.058
28.840,0.064
28.845,0.066
28.850,0.067
28.855,0.063
28.860,0.060
28.865,0.061
28.870,0.063
28.875,0.060
28.880,0.057
28.885,0.056
28.890,0.052
28.895,0.046
28.900,0.043
28.905,0.036
28.910,0.014
28.915,-0.033
28.920,-0.096
28.925,-0.185
28.930,-0.296
28.935,-0.388
28.940,-0.277
28.945,0.093
28.950,0.395
28.955,0.481
28.960,0.473
28.965,0.433
28.970,0.348
28.975,0.203
28.980,0.059
28.985,0.016
28.990,0.020
28.995,-0.022
29.000,-0.043
29.005,-0.023
29.010,-0.037
29.015,-0.059
29.020,-0.047
29.025,-0.048
29.030,-0.063
29.035,-0.060
29.040,-0.054
29.045,-0.062
29.050,-0.065
29.055,-0.062
29.060,-0.066
29.065,-0.070
29.070,-0.066
29.075,-0.067
29.080,-0.071
29.085,-0.070
29.090,-0.069
29.095,-0.072
29.100,-0.073
29.105,-0.072
29.110,-0.073
29.115,-0.076
29.120,-0.077
29.125,-0.079
29.130,-0.081
29.135,-0.079
29.140,-0.080
29.145,-0.083
29.150,-0.085
29.155,-0.087
29.160,-0.088
29.165,-0.089
29.170,-0.089
29.175,-0.091
29.180,-0.091
29.185,-0.088
29.190,-0.087
29.195,-0.085
29.200,-0.082
29.205,-0.077
29.210,-0.065
29.215,-0.050
29.220,-0.036
29.225,-0.022
29.230,-0.007
29.235,0.007
29.240,0.020
29.245,0.031
29.250,0.041
29.255,0.049
29.260,0.053
29.265,0.057
29.270,0.063
29.275,0.064
29.280,0.063
29.285,0.064
29.290,0.062
29.295,0.059
29.300,0.057
29.305,0.054
29.310,0.051
29.315,0.048
29.320,0.045
29.325,0.044
29.330,0.041
29.335,0.038
29.340,0.037
29.345,0.035
29.350,0.035
29.355,0.033
29.360,0.030
29.365,0.027
29.370,0.025
29.375,0.023
29.380,0.020
29.385,0.019
29.390,0.018
29.395,0.017
29.400,0.016
29.405,0.017
29.410,0.019
29.415,0.019
29.420,0.018
29.425,0.015
29.430,0.015
29.435,0.017
29.440,0.016
29.445,0.015
29.450,0.014
29.455,0.015
29.460,0.015
29.465,0.011
29.470,0.001
29.475,-0.016
29.480,-0.032
29.485,-0.038
29.490,-0.036
29.495,-0.036
29.500,-0.046
29.505,-0.059
29.510,-0.072
29.515,-0.081
29.520,-0.067
29.525,-0.051
29.530,-0.049
29.535,-0.043
29.540,-0.032
29.545,-0.017
29.550,-0.003
29.555,0.009
29.560,0.032
29.565,0.055
29.570,0.065
29.575,0.067
29.580,0.072
29.585,0.072
29.590,0.066
29.595,0.062
29.600,0.061
29.605,0.058
29.610,0.056
29.615,0.055
29.620,0.052
29.625,0.046
29.630,0.042
29.635,0.038
29.640,0.019
29.645,-0.030
29.650,-0.108
29.655,-0.218
29.660,-0.366
29.665,-0.517
29.670,-0.485
29.675,-0.145
29.680,0.249
29.685,0.468
29.690,0.542
29.695,0.518
29.700,0.408
29.705,0.244
29.710,0.097
29.715,0.046
29.720,0.054
29.725,0.021
29.730,-0.004
29.735,0.010
29.740,-0.002
29.745,-0.022
29.750,-0.015
29.755,-0.014
29.760,-0.028
29.765,-0.028
29.770,-0.024
29.775,-0.033
29.780,-0.038
29.785,-0.033
29.790,-0.034
29.795,-0.038
29.800,-0.037
29.805,-0.037
29.810,-0.041
29.815,-0.043
29.820,-0.046
29.825,-0.051
29.830,-0.051
29.835,-0.049
29.840,-0.050
29.845,-0.054
29.850,-0.057
29.855,-0.059
29.860,-0.062
29.865,-0.067
29.870,-0.071
29.875,-0.074
29.880,-0.076
29.885,-0.078
29.890,-0.080
29.895,-0.082
29.900,-0.082
29.905,-0.085
29.910,-0.090
29.915,-0.092
29.920,-0.089
29.925,-0.087
29.930,-0.084
29.935,-0.079
29.940,-0.070
29.945,-0.057
29.950,-0.042
29.955,-0.027
29.960,-0.011
29.965,0.003
29.970,0.019
29.975,0.030
29.980,0.041
29.985,0.050
29.990,0.055
29.995,0.060
30.000,0.063
30.005,0.064
30.010,0.066
30.015,0.067
30.020,0.066
30.025,0.063
30.030,0.062
30.035,0.061
30.040,0.061
30.045,0.059
30.050,0.054
30.055,0.048
30.060,0.043
30.065,0.043
30.070,0.044
30.075,0.041
30.080,0.040
30.085,0.038
30.090,0.031
30.095,0.020
30.100,0.014
30.105,0.022
30.110,0.025
30.115,0.021
30.120,0.020
30.125,0.022
30.130,0.025
30.135,0.023
30.140,0.017
30.145,0.017
30.150,0.023
30.155,0.025
30.160,0.019
30.165,0.010
30.170,0.009
30.175,0.011
30.180,0.010
30.185,0.011
30.190,0.013
30.195,0.009
30.200,-0.003
30.205,-0.019
30.210,-0.033
30.215,-0.040
30.220,-0.045
30.225,-0.048
30.230,-0.055
30.235,-0.068
30.240,-0.084
30.245,-0.083
30.250,-0.060
30.255,-0.050
30.260,-0.050
30.265,-0.040
30.270,-0.023
30.275,-0.009
30.280,-0.005
30.285,0.011
30.290,0.040
30.295,0.059
30.300,0.063
30.305,0.064
30.310,0.068
30.315,0.064
30.320,0.056
30.325,0.052
30.330,0.050
30.335,0.046
30.340,0.047
30.345,0.049
30.350,0.052
30.355,0.055
30.360,0.045
30.365,0.023
30.370,-0.010
30.375,-0.063
30.380,-0.129
30.385,-0.226
30.390,-0.339
30.395,-0.419
30.400,-0.281
30.405,0.127
30.410,0.454
30.415,0.538
30.420,0.524
30.425,0.484
30.430,0.393
30.435,0.230
30.440,0.059
30.445,0.003
30.450,0.020
30.455,-0.020
30.460,-0.052
30.465,-0.037
30.470,-0.047
30.475,-0.060
30.480,-0.046
30.485,-0.054
30.490,-0.073
30.495,-0.067
30.500,-0.061
30.505,-0.070
30.510,-0.074
30.515,-0.063
30.520,-0.060
30.525,-0.061
30.530,-0.060
30.535,-0.068
30.540,-0.063
30.545,-0.051
30.550,-0.057
30.555,-0.067
30.560,-0.069
30.565,-0.069
30.570,-0.063
30.575,-0.068
30.580,-0.079
30.585,-0.082
30.590,-0.086
30.595,-0.082
30.600,-0.078
30.605,-0.087
30.610,-0.098
30.615,-0.098
30.620,-0.101
30.625,-0.112
30.630,-0.118
30.635,-0.114
30.640,-0.107
30.645,-0.108
30.650,-0.112
30.655,-0.113
30.660,-0.112
30.665,-0.103
30.670,-0.084
30.675,-0.059
30.680,-0.037
30.685,-0.017
30.690,0.002
30.695,0.020
30.700,0.037
30.705,0.051
30.710,0.058
30.715,0.061
30.720,0.068
30.725,0.076
30.730,0.081
30.735,0.083
30.740,0.083
30.745,0.078
30.750,0.073
30.755,0.071
30.760,0.067
30.765,0.062
30.770,0.060
30.775,0.057
30.780,0.057
30.785,0.055
30.790,0.049
30.795,0.046
30.800,0.044
30.805,0.038
30.810,0.031
30.815,0.026
30.820,0.026
30.825,0.026
30.830,0.022
30.835,0.019
30.840,0.015
30.845,0.011
30.850,0.010
30.855,0.011
30.860,0.011
30.865,0.011
30.870,0.013
30.875,0.013
30.880,0.012
30.885,0.010
30.890,0.007
30.895,0.007
30.900,0.006
30.905,0.001
30.910,-0.003
30.915,-0.007
30.920,-0.022
30.925,-0.039
30.930,-0.046
30.935,-0.044
30.940,-0.045
30.945,-0.056
30.950,-0.067
30.955,-0.079
30.960,-0.080
30.965,-0.062
30.970,-0.058
30.975,-0.060
30.980,-0.045
30.985,-0.026
30.990,-0.006
30.995,0.005
31.000,0.016
31.005,0.041
31.010,0.058
31.015,0.060
31.020,0.062
31.025,0.064
31.030,0.064
31.035,0.063
31.040,0.064
31.045,0.063
31.050,0.061
31.055,0.061
31.060,0.059
31.065,0.054
31.070,0.049
31.075,0.045
31.080,0.041
31.085,0.023
31.090,-0.024
31.095,-0.090
31.100,-0.177
31.105,-0.290
31.110,-0.395
31.115,-0.322
31.120,0.022
31.125,0.351
31.130,0.471
31.135,0.480
31.140,0.451
31.145,0.367
31.150,0.224
31.155,0.080
31.160,0.023
31.165,0.026
31.170,-0.008
31.175,-0.036
31.180,-0.022
31.185,-0.033
31.190,-0.053
31.195,-0.043
31.200,-0.042
31.205,-0.058
31.210,-0.059
31.215,-0.053
31.220,-0.058
31.225,-0.060
31.230,-0.057
31.235,-0.059
31.240,-0.060
31.245,-0.056
31.250,-0.056
31.255,-0.061
31.260,-0.062
31.265,-0.063
31.270,-0.064
31.275,-0.063
31.280,-0.063
31.285,-0.065
31.290,-0.067
31.295,-0.069
31.300,-0.068
31.305,-0.068
31.310,-0.070
31.315,-0.073
31.320,-0.078
31.325,-0.082
31.330,-0.081
31.335,-0.081
31.340,-0.082
31.345,-0.083
31.350,-0.084
31.355,-0.086
31.360,-0.088
31.365,-0.088
31.370,-0.085
31.375,-0.080
31.380,-0.070
31.385,-0.056
31.390,-0.043
31.395,-0.030
31.400,-0.015
31.405,-0.001
31.410,0.012
31.415,0.025
31.420,0.036
31.425,0.046
31.430,0.055
31.435,0.062
31.440,0.066
31.445,0.068
31.450,0.070
31.455,0.069
31.460,0.068
31.465,0.067
31.470,0.066
31.475,0.063
31.480,0.059
31.485,0.055
31.490,0.053
31.495,0.050
31.500,0.046
31.505,0.043
31.510,0.039
31.515,0.037
31.520,0.035
31.525,0.032
31.530,0.029
31.535,0.027
31.540,0.025
31.545,0.022
31.550,0.022
31.555,0.024
31.560,0.022
31.565,0.019
31.570,0.014
31.575,0.012
31.580,0.016
31.585,0.018
31.590,0.015
31.595,0.015
31.600,0.016
31.605,0.016
31.610,0.013
31.615,0.011
31.620,0.013
31.625,0.015
31.630,0.013
31.635,0.012
31.640,0.007
31.645,-0.005
31.650,-0.020
31.655,-0.035
31.660,-0.043
31.665,-0.038
31.670,-0.039
31.675,-0.052
31.680,-0.064
31.685,-0.076
31.690,-0.076
31.695,-0.055
31.700,-0.049
31.705,-0.052
31.710,-0.044
31.715,-0.032
31.720,-0.013
31.725,-0.001
31.730,0.012
31.735,0.040
31.740,0.059
31.745,0.061
31.750,0.063
31.755,0.071
31.760,0.071
31.765,0.066
31.770,0.066
31.775,0.063
31.780,0.058
31.785,0.056
31.790,0.055
31.795,0.052
31.800,0.046
31.805,0.042
31.810,0.034
31.815,0.011
31.820,-0.045
31.825,-0.132
31.830,-0.251
31.835,-0.404
31.840,-0.541
31.845,-0.454
31.850,-0.068
31.855,0.308
31.860,0.499
31.865,0.555
31.870,0.510
31.875,0.385
31.880,0.214
31.885,0.080
31.890,0.051
31.895,0.057
31.900,0.016
31.905,-0.004
31.910,0.010
31.915,-0.007
31.920,-0.023
31.925,-0.015
31.930,-0.020
31.935,-0.032
31.940,-0.029
31.945,-0.027
31.950,-0.034
31.955,-0.036
31.960,-0.035
31.965,-0.040
31.970,-0.044
31.975,-0.043
31.980,-0.044
31.985,-0.044
31.990,-0.042
31.995,-0.044
32.000,-0.049
32.005,-0.052
32.010,-0.052
32.015,-0.053
32.020,-0.057
32.025,-0.063
32.030,-0.067
32.035,-0.069
32.040,-0.073
32.045,-0.076
32.050,-0.080
32.055,-0.082
32.060,-0.086
32.065,-0.090
32.070,-0.093
32.075,-0.099
32.080,-0.102
32.085,-0.102
32.090,-0.104
32.095,-0.107
32.100,-0.106
32.105,-0.099
32.110,-0.087
32.115,-0.072
32.120,-0.056
32.125,-0.038
32.130,-0.020
32.135,-0.003
32.140,0.015
32.145,0.030
32.150,0.044
32.155,0.057
32.160,0.063
32.165,0.068
32.170,0.074
32.175,0.078
32.180,0.081
32.185,0.083
32.190,0.078
32.195,0.074
32.200,0.071
32.205,0.069
32.210,0.067
32.215,0.062
32.220,0.060
32.225,0.063
32.230,0.060
32.235,0.052
32.240,0.045
32.245,0.044
32.250,0.045
32.255,0.040
32.260,0.033
32.265,0.028
32.270,0.027
32.275,0.027
32.280,0.026
32.285,0.026
32.290,0.024
32.295,0.026
32.300,0.026
32.305,0.023
32.310,0.022
32.315,0.018
32.320,0.017
32.325,0.013
32.330,0.007
32.335,0.006
32.340,0.006
32.345,0.006
32.350,0.013
32.355,0.015
32.360,0.009
32.365,0.001
32.370,-0.008
32.375,-0.022
32.380,-0.038
32.385,-0.046
32.390,-0.045
32.395,-0.047
32.400,-0.052
32.405,-0.063
32.410,-0.081
32.415,-0.088
32.420,-0.075
32.425,-0.064
32.430,-0.064
32.435,-0.058
32.440,-0.039
32.445,-0.017
32.450,-0.009
32.455,-0.001
32.460,0.026
32.465,0.046
32.470,0.049
32.475,0.054
32.480,0.062
32.485,0.063
32.490,0.055
32.495,0.054
32.500,0.060
32.505,0.057
32.510,0.045
32.515,0.039
32.520,0.040
32.525,0.037
32.530,0.036
32.535,0.030
32.540,0.013
32.545,-0.026
32.550,-0.098
32.555,-0.183
32.560,-0.284
32.565,-0.396
32.570,-0.393
32.575,-0.101
32.580,0.322
32.585,0.522
32.590,0.533
32.595,0.513
32.600,0.450
32.605,0.315
32.610,0.132
32.615,0.018
32.620,0.019
32.625,0.003
32.630,-0.053
32.635,-0.047
32.640,-0.034
32.645,-0.065
32.650,-0.069
32.655,-0.053
32.660,-0.062
32.665,-0.070
32.670,-0.064
32.675,-0.068
32.680,-0.071
32.685,-0.066
32.690,-0.068
32.695,-0.066
32.700,-0.060
32.705,-0.061
32.710,-0.065
32.715,-0.059
32.720,-0.057
32.725,-0.067
32.730,-0.077
32.735,-0.080
32.740,-0.079
32.745,-0.080
32.750,-0.081
32.755,-0.077
32.760,-0.079
32.765,-0.088
32.770,-0.098
32.775,-0.106
32.780,-0.106
32.785,-0.102
32.790,-0.104
32.795,-0.110
32.800,-0.116
32.805,-0.122
32.810,-0.126
32.815,-0.127
32.820,-0.126
32.825,-0.122
32.830,-0.116
32.835,-0.103
32.840,-0.083
32.845,-0.062
32.850,-0.042
32.855,-0.023
32.860,-0.003
32.865,0.017
32.870,0.036
32.875,0.051
32.880,0.062
32.885,0.069
32.890,0.073
32.895,0.077
32.900,0.081
32.905,0.082
32.910,0.083
32.915,0.082
32.920,0.081
32.925,0.079
32.930,0.077
32.935,0.073
32.940,0.069
32.945,0.066
32.950,0.065
32.955,0.062
32.960,0.057
32.965,0.051
32.970,0.049
32.975,0.048
32.980,0.044
32.985,0.040
32.990,0.035
32.995,0.032
33.000,0.029
33.005,0.026
33.010,0.022
33.015,0.019
33.020,0.018
33.025,0.015
33.030,0.011
33.035,0.014
33.040,0.016
33.045,0.015
33.050,0.013
33.055,0.012
33.060,0.011
33.065,0.012
33.070,0.013
33.075,0.014
33.080,0.013
33.085,0.008
33.090,-0.002
33.095,-0.014
33.100,-0.030
33.105,-0.038
33.110,-0.036
33.115,-0.036
33.120,-0.047
33.125,-0.063
33.130,-0.076
33.135,-0.080
33.140,-0.063
33.145,-0.052
33.150,-0.056
33.155,-0.048
33.160,-0.026
33.165,-0.004
33.170,0.008
33.175,0.013
33.180,0.033
33.185,0.058
33.190,0.066
33.195,0.066
33.200,0.071
33.205,0.071
33.210,0.064
33.215,0.061
33.220,0.063
33.225,0.063
33.230,0.060
33.235,0.056
33.240,0.051
33.245,0.048
33.250,0.046
33.255,0.040
33.260,0.025
33.265,-0.011
33.270,-0.074
33.275,-0.161
33.280,-0.277
33.285,-0.410
33.290,-0.448
33.295,-0.207
33.300,0.193
33.305,0.432
33.310,0.497
33.315,0.489
33.320,0.423
33.325,0.295
33.330,0.136
33.335,0.039
33.340,0.032
33.345,0.019
33.350,-0.023
33.355,-0.020
33.360,-0.015
33.365,-0.040
33.370,-0.042
33.375,-0.034
33.380,-0.044
33.385,-0.050
33.390,-0.044
33.395,-0.047
33.400,-0.053
33.405,-0.050
33.410,-0.050
33.415,-0.055
33.420,-0.055
33.425,-0.052
33.430,-0.055
33.435,-0.056
33.440,-0.056
33.445,-0.059
33.450,-0.061
33.455,-0.061
33.460,-0.064
33.465,-0.066
33.470,-0.066
33.475,-0.068
33.480,-0.072
33.485,-0.075
33.490,-0.079
33.495,-0.083
33.500,-0.087
33.505,-0.087
33.510,-0.087
33.515,-0.091
33.520,-0.094
33.525,-0.095
33.530,-0.096
33.535,-0.097
33.540,-0.097
33.545,-0.092
33.550,-0.087
33.555,-0.081
33.560,-0.070
33.565,-0.055
33.570,-0.035
33.575,-0.018
33.580,-0.003
33.585,0.014
33.590,0.028
33.595,0.040
33.600,0.053
33.605,0.062
33.610,0.067
33.615,0.068
33.620,0.071
33.625,0.075
33.630,0.078
33.635,0.078
33.640,0.076
33.645,0.075
33.650,0.072
33.655,0.068
33.660,0.063
33.665,0.061
33.670,0.059
33.675,0.054
33.680,0.051
33.685,0.050
33.690,0.049
33.695,0.046
33.700,0.041
33.705,0.036
33.710,0.034
33.715,0.031
33.720,0.030
33.725,0.029
33.730,0.026
33.735,0.025
33.740,0.022
33.745,0.019
33.750,0.018
33.755,0.017
33.760,0.016
33.765,0.016
33.770,0.017
33.775,0.017
33.780,0.016
33.785,0.016
33.790,0.014
33.795,0.012
33.800,0.013
33.805,0.014
33.810,0.014
33.815,0.015
33.820,0.014
33.825,0.008
33.830,-0.005
33.835,-0.022
33.840,-0.037
33.845,-0.041
33.850,-0.039
33.855,-0.042
33.860,-0.054
33.865,-0.066
33.870,-0.078
33.875,-0.080
33.880,-0.058
33.885,-0.047
33.890,-0.050
33.895,-0.044
33.900,-0.033
33.905,-0.016
33.910,-0.004
33.915,0.008
33.920,0.035
33.925,0.056
33.930,0.061
33.935,0.064
33.940,0.067
33.945,0.065
33.950,0.058
33.955,0.057
33.960,0.059
33.965,0.056
33.970,0.052
33.975,0.048
33.980,0.044
33.985,0.041
33.990,0.038
33.995,0.034
34.000,0.019
34.005,-0.031
34.010,-0.115
34.015,-0.228
34.020,-0.374
34.025,-0.531
34.030,-0.537
34.035,-0.229
34.040,0.193
34.045,0.452
34.050,0.553
34.055,0.544
34.060,0.437
34.065,0.273
34.070,0.112
34.075,0.044
34.080,0.055
34.085,0.033
34.090,0.003
34.095,0.014
34.100,0.008
34.105,-0.012
34.110,-0.010
34.115,-0.010
34.120,-0.027
34.125,-0.035
34.130,-0.031
34.135,-0.031
34.140,-0.032
34.145,-0.027
34.150,-0.027
34.155,-0.029
34.160,-0.029
34.165,-0.032
34.170,-0.039
34.175,-0.041
34.180,-0.038
34.185,-0.040
34.190,-0.044
34.195,-0.045
34.200,-0.046
34.205,-0.049
34.210,-0.054
34.215,-0.061
34.220,-0.070
34.225,-0.076
34.230,-0.075
34.235,-0.078
34.240,-0.086
34.245,-0.095
34.250,-0.102
34.255,-0.101
34.260,-0.100
34.265,-0.110
34.270,-0.118
34.275,-0.118
34.280,-0.116
34.285,-0.116
34.290,-0.117
34.295,-0.104
34.300,-0.084
34.305,-0.068
34.310,-0.049
34.315,-0.024
34.320,0.001
34.325,0.022
34.330,0.036
34.335,0.049
34.340,0.061
34.345,0.065
34.350,0.070
34.355,0.079
34.360,0.086
34.365,0.092
34.370,0.097
34.375,0.096
34.380,0.092
34.385,0.093
34.390,0.091
34.395,0.085
34.400,0.077
34.405,0.069
34.410,0.066
34.415,0.066
34.420,0.061
34.425,0.057
34.430,0.054
34.435,0.049
34.440,0.044
34.445,0.043
34.450,0.042
34.455,0.034
34.460,0.028
34.465,0.025
34.470,0.027
34.475,0.029
34.480,0.023
34.485,0.017
34.490,0.006
34.495,-0.001
34.500,0.010
34.505,0.019
34.510,0.015
34.515,0.010
34.520,0.004
34.525,-0.001
34.530,-0.004
34.535,-0.004
34.540,-0.002
34.545,0.003
34.550,0.002
34.555,-0.011
34.560,-0.026
34.565,-0.041
34.570,-0.052
34.575,-0.047
34.580,-0.037
34.585,-0.041
34.590,-0.056
34.595,-0.078
34.600,-0.092
34.605,-0.082
34.610,-0.069
34.615,-0.071
34.620,-0.063
34.625,-0.040
34.630,-0.017
34.635,-0.001
34.640,0.003
34.645,0.016
34.650,0.039
34.655,0.054
34.660,0.056
34.665,0.059
34.670,0.061
34.675,0.058
34.680,0.057
34.685,0.060
34.690,0.062
34.695,0.060
34.700,0.052
34.705,0.045
34.710,0.041
34.715,0.041
34.720,0.041
34.725,0.030
34.730,0.002
34.735,-0.049
34.740,-0.122
34.745,-0.218
34.750,-0.326
34.755,-0.397
34.760,-0.255
34.765,0.136
34.770,0.434
34.775,0.506
34.780,0.503
34.785,0.467
34.790,0.364
34.795,0.204
34.800,0.056
34.805,0.018
34.810,0.030
34.815,-0.017
34.820,-0.040
34.825,-0.026
34.830,-0.048
34.835,-0.067
34.840,-0.054
34.845,-0.054
34.850,-0.065
34.855,-0.061
34.860,-0.058
34.865,-0.066
34.870,-0.064
34.875,-0.060
34.880,-0.064
34.885,-0.067
34.890,-0.067
34.895,-0.070
34.900,-0.072
34.905,-0.070
34.910,-0.072
34.915,-0.075
34.920,-0.076
34.925,-0.076
34.930,-0.076
34.935,-0.075
34.940,-0.077
34.945,-0.082
34.950,-0.086
34.955,-0.091
34.960,-0.096
34.965,-0.100
34.970,-0.104
34.975,-0.106
34.980,-0.107
34.985,-0.111
34.990,-0.115
34.995,-0.117
35.000,-0.119
35.005,-0.120
35.010,-0.118
35.015,-0.110
35.020,-0.098
35.025,-0.086
35.030,-0.072
35.035,-0.055
35.040,-0.037
35.045,-0.021
35.050,-0.004
35.055,0.011
35.060,0.027
35.065,0.042
35.070,0.056
35.075,0.063
35.080,0.065
35.085,0.068
35.090,0.071
35.095,0.074
35.100,0.075
35.105,0.074
35.110,0.072
35.115,0.071
35.120,0.067
35.125,0.063
35.130,0.060
35.135,0.057
35.140,0.054
35.145,0.050
35.150,0.049
35.155,0.050
35.160,0.048
35.165,0.044
35.170,0.041
35.175,0.038
35.180,0.035
35.185,0.033
35.190,0.030
35.195,0.026
35.200,0.026
35.205,0.026
35.210,0.026
35.215,0.024
35.220,0.021
35.225,0.021
35.230,0.021
35.235,0.020
35.240,0.019
35.245,0.019
35.250,0.019
35.255,0.017
35.260,0.017
35.265,0.018
35.270,0.020
35.275,0.019
35.280,0.016
35.285,0.015
35.290,0.012
35.295,0.006
35.300,-0.004
35.305,-0.021
35.310,-0.036
35.315,-0.040
35.320,-0.037
35.325,-0.043
35.330,-0.057
35.335,-0.065
35.340,-0.075
35.345,-0.073
35.350,-0.056
35.355,-0.055
35.360,-0.056
35.365,-0.042
35.370,-0.027
35.375,-0.013
35.380,-0.007
35.385,0.008
35.390,0.039
35.395,0.057
35.400,0.057
35.405,0.058
35.410,0.063
35.415,0.062
35.420,0.058
35.425,0.057
35.430,0.056
35.435,0.053
35.440,0.051
35.445,0.048
35.450,0.043
35.455,0.040
35.460,0.039
35.465,0.035
35.470,0.018
35.475,-0.026
35.480,-0.101
35.485,-0.206
35.490,-0.347
35.495,-0.497
35.500,-0.513
35.505,-0.226
35.510,0.194
35.515,0.449
35.520,0.543
35.525,0.537
35.530,0.439
35.535,0.286
35.540,0.125
35.545,0.046
35.550,0.049
35.555,0.023
35.560,-0.015
35.565,-0.005
35.570,-0.009
35.575,-0.034
35.580,-0.030
35.585,-0.023
35.590,-0.037
35.595,-0.044
35.600,-0.041
35.605,-0.045
35.610,-0.049
35.615,-0.044
35.620,-0.043
35.625,-0.049
35.630,-0.051
35.635,-0.050
35.640,-0.052
35.645,-0.053
35.650,-0.053
35.655,-0.056
35.660,-0.059
35.665,-0.061
35.670,-0.062
35.675,-0.064
35.680,-0.064
35.685,-0.066
35.690,-0.071
35.695,-0.075
35.700,-0.075
35.705,-0.079
35.710,-0.084
35.715,-0.087
35.720,-0.089
35.725,-0.092
35.730,-0.096
35.735,-0.100
35.740,-0.102
35.745,-0.103
35.750,-0.104
35.755,-0.102
35.760,-0.096
35.765,-0.085
35.770,-0.070
35.775,-0.054
35.780,-0.039
35.785,-0.022
35.790,-0.005
35.795,0.011
35.800,0.027
35.805,0.042
35.810,0.053
35.815,0.062
35.820,0.069
35.825,0.072
35.830,0.076
35.835,0.080
35.840,0.081
35.845,0.081
35.850,0.080
35.855,0.077
35.860,0.075
35.865,0.073
35.870,0.070
35.875,0.068
35.880,0.064
35.885,0.061
35.890,0.055
35.895,0.050
35.900,0.048
35.905,0.044
35.910,0.040
35.915,0.039
35.920,0.037
35.925,0.033
35.930,0.030
35.935,0.028
35.940,0.028
35.945,0.028
35.950,0.024
35.955,0.020
35.960,0.018
35.965,0.018
35.970,0.020
35.975,0.019
35.980,0.018
35.985,0.018
35.990,0.017
35.995,0.015
36.000,0.015
36.005,0.016
36.010,0.017
36.015,0.017
36.020,0.017
36.025,0.015
36.030,0.013
36.035,0.010
36.040,0.003
36.045,-0.005
36.050,-0.015
36.055,-0.029
36.060,-0.039
36.065,-0.038
36.070,-0.037
36.075,-0.050
36.080,-0.064
36.085,-0.075
36.090,-0.080
36.095,-0.066
36.100,-0.051
36.105,-0.053
36.110,-0.047
36.115,-0.033
36.120,-0.016
36.125,-0.005
36.130,0.003
36.135,0.027
36.140,0.053
36.145,0.060
36.150,0.060
36.155,0.063
36.160,0.064
36.165,0.058
36.170,0.056
36.175,0.057
36.180,0.057
36.185,0.054
36.190,0.048
36.195,0.042
36.200,0.036
36.205,0.034
36.210,0.030
36.215,0.021
36.220,-0.009
36.225,-0.073
36.230,-0.163
36.235,-0.285
36.240,-0.438
36.245,-0.563
36.250,-0.443
36.255,-0.026
36.260,0.346
36.265,0.523
36.270,0.570
36.275,0.509
36.280,0.375
36.285,0.204
36.290,0.069
36.295,0.044
36.300,0.050
36.305,0.007
36.310,-0.004
36.315,0.008
36.320,-0.014
36.325,-0.025
36.330,-0.015
36.335,-0.021
36.340,-0.034
36.345,-0.029
36.350,-0.021
36.355,-0.031
36.360,-0.037
36.365,-0.031
36.370,-0.030
36.375,-0.033
36.380,-0.037
36.385,-0.040
36.390,-0.039
36.395,-0.036
36.400,-0.037
36.405,-0.042
36.410,-0.048
36.415,-0.053
36.420,-0.055
36.425,-0.055
36.430,-0.056
36.435,-0.058
36.440,-0.059
36.445,-0.064
36.450,-0.073
36.455,-0.082
36.460,-0.088
36.465,-0.088
36.470,-0.095
36.475,-0.106
36.480,-0.106
36.485,-0.104
36.490,-0.103
36.495,-0.103
36.500,-0.111
36.505,-0.112
36.510,-0.103
36.515,-0.096
36.520,-0.077
36.525,-0.051
36.530,-0.033
36.535,-0.015
36.540,0.003
36.545,0.018
36.550,0.034
36.555,0.053
36.560,0.066
36.565,0.075
36.570,0.082
36.575,0.087
36.580,0.094
36.585,0.100
36.590,0.091
36.595,0.081
36.600,0.086
36.605,0.090
36.610,0.088
36.615,0.079
36.620,0.068
36.625,0.063
36.630,0.064
36.635,0.064
36.640,0.059
36.645,0.057
36.650,0.054
36.655,0.049
36.660,0.049
36.665,0.045
36.670,0.040
36.675,0.037
36.680,0.031
36.685,0.025
36.690,0.024
36.695,0.023
36.700,0.015
36.705,0.012
36.710,0.017
36.715,0.014
36.720,0.006
36.725,-0.001
36.730,0.005
36.735,0.014
36.740,0.011
36.745,0.003
36.750,0.000
36.755,0.003
36.760,0.005
36.765,0.005
36.770,0.003
36.775,-0.001
36.780,-0.007
36.785,-0.021
36.790,-0.039
36.795,-0.053
36.800,-0.053
36.805,-0.048
36.810,-0.058
36.815,-0.075
36.820,-0.081
36.825,-0.094
36.830,-0.092
36.835,-0.067
36.840,-0.067
36.845,-0.078
36.850,-0.062
36.855,-0.034
36.860,-0.007
36.865,0.001
36.870,0.006
36.875,0.028
36.880,0.044
36.885,0.050
36.890,0.056
36.895,0.062
36.900,0.056
36.905,0.047
36.910,0.051
36.915,0.050
36.920,0.042
36.925,0.042
36.930,0.046
36.935,0.041
36.940,0.033
36.945,0.030
36.950,0.028
36.955,0.015
36.960,-0.026
36.965,-0.087
36.970,-0.159
36.975,-0.257
36.980,-0.349
36.985,-0.334
36.990,-0.059
36.995,0.328
37.000,0.484
37.005,0.484
37.010,0.476
37.015,0.415
37.020,0.287
37.025,0.115
37.030,0.008
37.035,0.011
37.040,-0.011
37.045,-0.065
37.050,-0.058
37.055,-0.048
37.060,-0.072
37.065,-0.073
37.070,-0.062
37.075,-0.075
37.080,-0.079
37.085,-0.069
37.090,-0.072
37.095,-0.078
37.100,-0.072
37.105,-0.071
37.110,-0.080
37.115,-0.082
37.120,-0.078
37.125,-0.080
37.130,-0.080
37.135,-0.077
37.140,-0.080
37.145,-0.080
37.150,-0.076
37.155,-0.079
37.160,-0.084
37.165,-0.084
37.170,-0.080
37.175,-0.081
37.180,-0.088
37.185,-0.093
37.190,-0.095
37.195,-0.095
37.200,-0.099
37.205,-0.104
37.210,-0.107
37.215,-0.111
37.220,-0.110
37.225,-0.111
37.230,-0.113
37.235,-0.113
37.240,-0.111
37.245,-0.104
37.250,-0.092
37.255,-0.078
37.260,-0.061
37.265,-0.045
37.270,-0.028
37.275,-0.008
37.280,0.010
37.285,0.025
37.290,0.038
37.295,0.050
37.300,0.062
37.305,0.069
37.310,0.072
37.315,0.076
37.320,0.080
37.325,0.081
37.330,0.081
37.335,0.082
37.340,0.079
37.345,0.076
37.350,0.074
37.355,0.072
37.360,0.069
37.365,0.064
37.370,0.063
37.375,0.061
37.380,0.058
37.385,0.056
37.390,0.051
37.395,0.048
37.400,0.045
37.405,0.042
37.410,0.041
37.415,0.040
37.420,0.038
37.425,0.034
37.430,0.030
37.435,0.029
37.440,0.028
37.445,0.028
37.450,0.027
37.455,0.025
37.460,0.025
37.465,0.026
37.470,0.024
37.475,0.023
37.480,0.022
37.485,0.021
37.490,0.020
37.495,0.019
37.500,0.018
37.505,0.018
37.510,0.017
37.515,0.017
37.520,0.016
37.525,0.013
37.530,0.003
37.535,-0.012
37.540,-0.029
37.545,-0.040
37.550,-0.036
37.555,-0.036
37.560,-0.047
37.565,-0.061
37.570,-0.072
37.575,-0.077
37.580,-0.061
37.585,-0.046
37.590,-0.050
37.595,-0.044
37.600,-0.027
37.605,-0.011
37.610,-0.001
37.615,0.006
37.620,0.029
37.625,0.057
37.630,0.065
37.635,0.063
37.640,0.066
37.645,0.068
37.650,0.066
37.655,0.060
37.660,0.060
37.665,0.060
37.670,0.056
37.675,0.055
37.680,0.053
37.685,0.050
37.690,0.046
37.695,0.043
37.700,0.035
37.705,0.007
37.710,-0.053
37.715,-0.139
37.720,-0.257
37.725,-0.400
37.730,-0.504
37.735,-0.366
37.740,0.031
37.745,0.359
37.750,0.502
37.755,0.536
37.760,0.485
37.765,0.362
37.770,0.196
37.775,0.070
37.780,0.045
37.785,0.046
37.790,0.005
37.795,-0.008
37.800,0.004
37.805,-0.018
37.810,-0.033
37.815,-0.024
37.820,-0.030
37.825,-0.042
37.830,-0.039
37.835,-0.038
37.840,-0.047
37.845,-0.047
37.850,-0.044
37.855,-0.048
37.860,-0.052
37.865,-0.049
37.870,-0.050
37.875,-0.054
37.880,-0.053
37.885,-0.054
37.890,-0.058
37.895,-0.059
37.900,-0.060
37.905,-0.063
37.910,-0.065
37.915,-0.066
37.920,-0.064
37.925,-0.066
37.930,-0.069
37.935,-0.073
37.940,-0.079
37.945,-0.081
37.950,-0.080
37.955,-0.082
37.960,-0.085
37.965,-0.088
37.970,-0.091
37.975,-0.091
37.980,-0.089
37.985,-0.086
37.990,-0.087
37.995,-0.085
38.000,-0.077
38.005,-0.068
38.010,-0.055
38.015,-0.040
38.020,-0.023
38.025,-0.008
38.030,0.004
38.035,0.018
38.040,0.030
38.045,0.040
38.050,0.050
38.055,0.058
38.060,0.063
38.065,0.066
38.070,0.068
38.075,0.070
38.080,0.070
38.085,0.069
38.090,0.066
38.095,0.065
38.100,0.062
38.105,0.058
38.110,0.056
38.115,0.053
38.120,0.048
38.125,0.042
38.130,0.039
38.135,0.036
38.140,0.031
38.145,0.029
38.150,0.027
38.155,0.021
38.160,0.017
38.165,0.014
38.170,0.012
38.175,0.012
38.180,0.011
38.185,0.012
38.190,0.009
38.195,0.005
38.200,0.006
38.205,0.007
38.210,0.006
38.215,0.004
38.220,0.005
38.225,0.005
38.230,0.004
38.235,0.005
38.240,0.007
38.245,0.008
38.250,0.008
38.255,0.006
38.260,0.005
38.265,0.005
38.270,0.004
38.275,0.002
38.280,0.002
38.285,0.001
38.290,-0.008
38.295,-0.024
38.300,-0.040
38.305,-0.047
38.310,-0.043
38.315,-0.045
38.320,-0.057
38.325,-0.069
38.330,-0.081
38.335,-0.082
38.340,-0.063
38.345,-0.055
38.350,-0.057
38.355,-0.046
38.360,-0.034
38.365,-0.020
38.370,-0.010
38.375,0.001
38.380,0.033
38.385,0.063
38.390,0.070
38.395,0.073
38.400,0.078
38.405,0.077
38.410,0.074
38.415,0.069
38.420,0.064
38.425,0.060
38.430,0.059
38.435,0.056
38.440,0.049
38.445,0.047
38.450,0.051
38.455,0.050
38.460,0.037
38.465,0.003
38.470,-0.065
38.475,-0.160
38.480,-0.289
38.485,-0.439
38.490,-0.525
38.495,-0.343
38.500,0.106
38.505,0.448
38.510,0.572
38.515,0.584
38.520,0.503
38.525,0.364
38.530,0.189
38.535,0.065
38.540,0.058
38.545,0.058
38.550,0.007
38.555,-0.006
38.560,0.002
38.565,-0.022
38.570,-0.028
38.575,-0.014
38.580,-0.025
38.585,-0.038
38.590,-0.032
38.595,-0.033
38.600,-0.043
38.605,-0.045
38.610,-0.040
38.615,-0.036
38.620,-0.042
38.625,-0.045
38.630,-0.039
38.635,-0.042
38.640,-0.048
38.645,-0.052
38.650,-0.058
38.655,-0.057
38.660,-0.055
38.665,-0.055
38.670,-0.050
38.675,-0.055
38.680,-0.061
38.685,-0.063
38.690,-0.072
38.695,-0.081
38.700,-0.084
38.705,-0.084
38.710,-0.090
38.715,-0.104
38.720,-0.113
38.725,-0.112
38.730,-0.110
38.735,-0.112
38.740,-0.117
38.745,-0.119
38.750,-0.114
38.755,-0.103
38.760,-0.091
38.765,-0.077
38.770,-0.060
38.775,-0.040
38.780,-0.023
38.785,-0.010
38.790,0.009
38.795,0.036
38.800,0.054
38.805,0.063
38.810,0.068
38.815,0.076
38.820,0.077
38.825,0.072
38.830,0.072
38.835,0.079
38.840,0.084
38.845,0.080
38.850,0.079
38.855,0.083
38.860,0.080
38.865,0.075
38.870,0.072
38.875,0.070
38.880,0.063
38.885,0.055
38.890,0.045
38.895,0.041
38.900,0.046
38.905,0.046
38.910,0.044
38.915,0.037
38.920,0.031
38.925,0.028
38.930,0.022
38.935,0.021
38.940,0.018
38.945,0.012
38.950,0.014
38.955,0.016
38.960,0.015
38.965,0.016
38.970,0.015
38.975,0.015
38.980,0.012
38.985,0.002
38.990,-0.005
38.995,-0.001
39.000,0.006
39.005,0.007
39.010,0.004
39.015,0.002
39.020,-0.001
39.025,-0.002
39.030,-0.006
39.035,-0.015
39.040,-0.032
39.045,-0.048
39.050,-0.047
39.055,-0.040
39.060,-0.040
39.065,-0.053
39.070,-0.076
39.075,-0.094
39.080,-0.092
39.085,-0.069
39.090,-0.061
39.095,-0.063
39.100,-0.050
39.105,-0.030
39.110,-0.010
39.115,0.001
39.120,0.011
39.125,0.033
39.130,0.050
39.135,0.052
39.140,0.053
39.145,0.055
39.150,0.058
39.155,0.059
39.160,0.058
39.165,0.054
39.170,0.049
39.175,0.046
39.180,0.046
39.185,0.048
39.190,0.047
39.195,0.043
39.200,0.038
39.205,0.028
39.210,0.001
39.215,-0.050
39.220,-0.118
39.225,-0.204
39.230,-0.288
39.235,-0.323
39.240,-0.138
39.245,0.245
39.250,0.462
39.255,0.473
39.260,0.451
39.265,0.409
39.270,0.314
39.275,0.158
39.280,0.022
39.285,-0.003
39.290,-0.001
39.295,-0.050
39.300,-0.064
39.305,-0.047
39.310,-0.069
39.315,-0.080
39.320,-0.061
39.325,-0.064
39.330,-0.075
39.335,-0.068
39.340,-0.068
39.345,-0.079
39.350,-0.077
39.355,-0.074
39.360,-0.079
39.365,-0.081
39.370,-0.077
39.375,-0.077
39.380,-0.077
39.385,-0.073
39.390,-0.073
39.395,-0.076
39.400,-0.075
39.405,-0.075
39.410,-0.075
39.415,-0.076
39.420,-0.077
39.425,-0.080
39.430,-0.083
39.435,-0.084
39.440,-0.087
39.445,-0.089
39.450,-0.090
39.455,-0.091
39.460,-0.092
39.465,-0.093
39.470,-0.094
39.475,-0.095
39.480,-0.096
39.485,-0.096
39.490,-0.095
39.495,-0.092
39.500,-0.085
39.505,-0.077
39.510,-0.067
39.515,-0.052
39.520,-0.035
39.525,-0.019
39.530,-0.004
39.535,0.011
39.540,0.025
39.545,0.036
39.550,0.043
39.555,0.049
39.560,0.055
39.565,0.059
39.570,0.061
39.575,0.061
39.580,0.060
39.585,0.060
39.590,0.059
39.595,0.057
39.600,0.056
39.605,0.055
39.610,0.055
39.615,0.052
39.620,0.048
39.625,0.044
39.630,0.040
39.635,0.038
39.640,0.036
39.645,0.034
39.650,0.033
39.655,0.030
39.660,0.027
39.665,0.024
39.670,0.022
39.675,0.020
39.680,0.018
39.685,0.016
39.690,0.014
39.695,0.015
39.700,0.017
39.705,0.016
39.710,0.014
39.715,0.014
39.720,0.015
39.725,0.016
39.730,0.016
39.735,0.015
39.740,0.013
39.745,0.013
39.750,0.013
39.755,0.014
39.760,0.013
39.765,0.012
39.770,0.012
39.775,0.010
39.780,0.008
39.785,0.008
39.790,0.004
39.795,-0.007
39.800,-0.023
39.805,-0.037
39.810,-0.038
39.815,-0.034
39.820,-0.041
39.825,-0.058
39.830,-0.069
39.835,-0.076
39.840,-0.073
39.845,-0.051
39.850,-0.046
39.855,-0.049
39.860,-0.038
39.865,-0.026
39.870,-0.011
39.875,-0.002
39.880,0.009
39.885,0.040
39.890,0.061
39.895,0.064
39.900,0.068
39.905,0.073
39.910,0.071
39.915,0.067
39.920,0.066
39.925,0.064
39.930,0.060
39.935,0.058
39.940,0.055
39.945,0.051
39.950,0.047
39.955,0.045
39.960,0.042
39.965,0.031
39.970,-0.005
39.975,-0.075
39.980,-0.167
39.985,-0.288
39.990,-0.424
39.995,-0.478
40.000,-0.251
40.005,0.180
40.010,0.458
40.015,0.543
40.020,0.534
40.025,0.445
40.030,0.307
40.035,0.147
40.040,0.046
40.045,0.045
40.050,0.035
40.055,-0.012
40.060,-0.013
40.065,-0.004
40.070,-0.031
40.075,-0.038
40.080,-0.030
40.085,-0.039
40.090,-0.046
40.095,-0.038
40.100,-0.040
40.105,-0.049
40.110,-0.049
40.115,-0.048
40.120,-0.053
40.125,-0.053
40.130,-0.051
40.135,-0.053
40.140,-0.056
40.145,-0.054
40.150,-0.053
40.155,-0.055
40.160,-0.054
40.165,-0.053
40.170,-0.055
40.175,-0.057
40.180,-0.058
40.185,-0.060
40.190,-0.063
40.195,-0.064
40.200,-0.063
40.205,-0.065
40.210,-0.069
40.215,-0.072
40.220,-0.072
40.225,-0.072
40.230,-0.075
40.235,-0.075
40.240,-0.076
40.245,-0.077
40.250,-0.076
40.255,-0.075
40.260,-0.073
40.265,-0.067
40.270,-0.059
40.275,-0.049
40.280,-0.037
40.285,-0.023
40.290,-0.010
40.295,0.004
40.300,0.018
40.305,0.031
40.310,0.042
40.315,0.050
40.320,0.057
40.325,0.062
40.330,0.064
40.335,0.065
40.340,0.065
40.345,0.065
40.350,0.065
40.355,0.064
40.360,0.062
40.365,0.058
40.370,0.055
40.375,0.051
40.380,0.047
40.385,0.045
40.390,0.041
40.395,0.037
40.400,0.036
40.405,0.034
40.410,0.031
40.415,0.030
40.420,0.028
40.425,0.027
40.430,0.025
40.435,0.023
40.440,0.022
40.445,0.022
40.450,0.022
40.455,0.021
40.460,0.019
40.465,0.020
40.470,0.022
40.475,0.021
40.480,0.019
40.485,0.015
40.490,0.013
40.495,0.015
40.500,0.017
40.505,0.015
40.510,0.014
40.515,0.015
40.520,0.014
40.525,0.012
40.530,0.009
40.535,0.010
40.540,0.010
40.545,0.010
40.550,0.010
40.555,0.008
40.560,0.003
40.565,-0.008
40.570,-0.023
40.575,-0.038
40.580,-0.043
40.585,-0.041
40.590,-0.043
40.595,-0.054
40.600,-0.066
40.605,-0.081
40.610,-0.083
40.615,-0.059
40.620,-0.046
40.625,-0.051
40.630,-0.046
40.635,-0.033
40.640,-0.017
40.645,-0.008
40.650,0.001
40.655,0.030
40.660,0.057
40.665,0.063
40.670,0.064
40.675,0.066
40.680,0.063
40.685,0.058
40.690,0.056
40.695,0.056
40.700,0.054
40.705,0.049
40.710,0.045
40.715,0.040
40.720,0.038
40.725,0.038
40.730,0.038
40.735,0.028
40.740,-0.001
40.745,-0.064
40.750,-0.153
40.755,-0.274
40.760,-0.421
40.765,-0.519
40.770,-0.362
40.775,0.070
40.780,0.420
40.785,0.560
40.790,0.575
40.795,0.493
40.800,0.354
40.805,0.185
40.810,0.063
40.815,0.048
40.820,0.044
40.825,-0.003
40.830,-0.011
40.835,0.002
40.840,-0.020
40.845,-0.033
40.850,-0.023
40.855,-0.028
40.860,-0.042
40.865,-0.040
40.870,-0.037
40.875,-0.044
40.880,-0.047
40.885,-0.046
40.890,-0.049
40.895,-0.045
40.900,-0.038
40.905,-0.041
40.910,-0.048
40.915,-0.051
40.920,-0.052
40.925,-0.053
40.930,-0.052
40.935,-0.054
40.940,-0.063
40.945,-0.066
40.950,-0.063
40.955,-0.062
40.960,-0.062
40.965,-0.062
40.970,-0.065
40.975,-0.074
40.980,-0.083
40.985,-0.090
40.990,-0.094
40.995,-0.092
41.000,-0.087
41.005,-0.088
41.010,-0.098
41.015,-0.105
41.020,-0.106
41.025,-0.102
41.030,-0.097
41.035,-0.091
41.040,-0.078
41.045,-0.061
41.050,-0.046
41.055,-0.030
41.060,-0.017
41.065,-0.003
41.070,0.014
41.075,0.028
41.080,0.044
41.085,0.058
41.090,0.062
41.095,0.066
41.100,0.068
41.105,0.075
41.110,0.083
41.115,0.078
41.120,0.074
41.125,0.076
41.130,0.077
41.135,0.073
41.140,0.063
41.145,0.053
41.150,0.049
41.155,0.048
41.160,0.044
41.165,0.040
41.170,0.040
41.175,0.041
41.180,0.035
41.185,0.022
41.190,0.014
41.195,0.019
41.200,0.027
41.205,0.029
41.210,0.033
41.215,0.035
41.220,0.027
41.225,0.015
41.230,0.012
41.235,0.016
41.240,0.013
41.245,0.008
41.250,0.013
41.255,0.017
41.260,0.014
41.265,0.011
41.270,0.007
41.275,-0.001
41.280,0.003
41.285,0.009
41.290,0.008
41.295,0.011
41.300,0.015
41.305,0.014
41.310,0.007
41.315,-0.003
41.320,-0.013
41.325,-0.015
41.330,-0.026
41.335,-0.042
41.340,-0.043
41.345,-0.041
41.350,-0.049
41.355,-0.066
41.360,-0.083
41.365,-0.096
41.370,-0.087
41.375,-0.063
41.380,-0.061
41.385,-0.062
41.390,-0.047
41.395,-0.023
41.400,-0.001
41.405,0.002
41.410,0.005
41.415,0.037
41.420,0.065
41.425,0.065
41.430,0.063
41.435,0.061
41.440,0.058
41.445,0.053
41.450,0.047
41.455,0.049
41.460,0.058
41.465,0.058
41.470,0.052
41.475,0.044
41.480,0.039
41.485,0.044
41.490,0.047
41.495,0.031
41.500,0.002
41.505,-0.026
41.510,-0.050
41.515,-0.113
41.520,-0.202
41.525,-0.233
41.530,-0.021
41.535,0.372
41.540,0.547
41.545,0.520
41.550,0.495
41.555,0.452
41.560,0.347
41.565,0.185
41.570,0.052
41.575,0.028
41.580,0.021
41.585,-0.037
41.590,-0.051
41.595,-0.037
41.600,-0.063
41.605,-0.073
41.610,-0.059
41.615,-0.067
41.620,-0.077
41.625,-0.071
41.630,-0.075
41.635,-0.085
41.640,-0.085
41.645,-0.082
41.650,-0.086
41.655,-0.088
41.660,-0.085
41.665,-0.087
41.670,-0.090
41.675,-0.087
41.680,-0.085
41.685,-0.086
41.690,-0.088
41.695,-0.091
41.700,-0.096
41.705,-0.102
41.710,-0.103
41.715,-0.104
41.720,-0.101
41.725,-0.099
41.730,-0.102
41.735,-0.103
41.740,-0.107
41.745,-0.110
41.750,-0.112
41.755,-0.115
41.760,-0.118
41.765,-0.121
41.770,-0.123
41.775,-0.124
41.780,-0.123
41.785,-0.119
41.790,-0.114
41.795,-0.105
41.800,-0.093
41.805,-0.078
41.810,-0.064
41.815,-0.048
41.820,-0.031
41.825,-0.014
41.830,0.000
41.835,0.012
41.840,0.023
41.845,0.034
41.850,0.045
41.855,0.050
41.860,0.051
41.865,0.050
41.870,0.048
41.875,0.047
41.880,0.046
41.885,0.044
41.890,0.045
41.895,0.046
41.900,0.044
41.905,0.039
41.910,0.036
41.915,0.034
41.920,0.032
41.925,0.030
41.930,0.028
41.935,0.029
41.940,0.029
41.945,0.024
41.950,0.023
41.955,0.023
41.960,0.020
41.965,0.017
41.970,0.015
41.975,0.015
41.980,0.015
41.985,0.013
41.990,0.011
41.995,0.011
42.000,0.015
42.005,0.015
42.010,0.013
42.015,0.013
42.020,0.011
42.025,0.009
42.030,0.007
42.035,0.007
42.040,0.008
42.045,0.009
42.050,0.012
42.055,0.011
42.060,0.010
42.065,0.010
42.070,0.007
42.075,0.003
42.080,-0.003
42.085,-0.009
42.090,-0.021
42.095,-0.037
42.100,-0.047
42.105,-0.045
42.110,-0.039
42.115,-0.047
42.120,-0.062
42.125,-0.076
42.130,-0.085
42.135,-0.070
42.140,-0.055
42.145,-0.057
42.150,-0.047
42.155,-0.032
42.160,-0.018
42.165,-0.005
42.170,0.002
42.175,0.021
42.180,0.047
42.185,0.058
42.190,0.060
42.195,0.064
42.200,0.065
42.205,0.062
42.210,0.060
42.215,0.060
42.220,0.059
42.225,0.055
42.230,0.053
42.235,0.052
42.240,0.048
42.245,0.045
42.250,0.042
42.255,0.033
42.260,0.008
42.265,-0.047
42.270,-0.121
42.275,-0.216
42.280,-0.328
42.285,-0.412
42.290,-0.283
42.295,0.099
42.300,0.409
42.305,0.509
42.310,0.505
42.315,0.447
42.320,0.335
42.325,0.179
42.330,0.050
42.335,0.019
42.340,0.023
42.345,-0.019
42.350,-0.036
42.355,-0.021
42.360,-0.039
42.365,-0.056
42.370,-0.044
42.375,-0.047
42.380,-0.061
42.385,-0.059
42.390,-0.057
42.395,-0.066
42.400,-0.067
42.405,-0.061
42.410,-0.061
42.415,-0.062
42.420,-0.060
42.425,-0.063
42.430,-0.065
42.435,-0.062
42.440,-0.061
42.445,-0.061
42.450,-0.062
42.455,-0.064
42.460,-0.064
42.465,-0.063
42.470,-0.062
42.475,-0.065
42.480,-0.069
42.485,-0.069
42.490,-0.069
42.495,-0.069
42.500,-0.068
42.505,-0.069
42.510,-0.071
42.515,-0.070
42.520,-0.069
42.525,-0.068
42.530,-0.068
42.535,-0.068
42.540,-0.070
42.545,-0.070
42.550,-0.067
42.555,-0.063
42.560,-0.057
42.565,-0.048
42.570,-0.037
42.575,-0.026
42.580,-0.015
42.585,-0.003
42.590,0.010
42.595,0.020
42.600,0.032
42.605,0.041
42.610,0.049
42.615,0.056
42.620,0.059
42.625,0.062
42.630,0.065
42.635,0.067
42.640,0.064
42.645,0.063
42.650,0.061
42.655,0.058
42.660,0.055
42.665,0.052
42.670,0.050
42.675,0.048
42.680,0.046
42.685,0.044
42.690,0.040
42.695,0.037
42.700,0.036
42.705,0.034
42.710,0.032
42.715,0.031
42.720,0.030
42.725,0.029
42.730,0.028
42.735,0.028
42.740,0.026
42.745,0.024
42.750,0.023
42.755,0.024
42.760,0.023
42.765,0.023
42.770,0.024
42.775,0.022
42.780,0.022
42.785,0.022
42.790,0.020
42.795,0.020
42.800,0.020
42.805,0.019
42.810,0.017
42.815,0.015
42.820,0.012
42.825,0.009
42.830,0.001
42.835,-0.014
42.840,-0.034
42.845,-0.042
42.850,-0.029
42.855,-0.019
42.860,-0.023
42.865,-0.036
42.870,-0.051
42.875,-0.053
42.880,-0.042
42.885,-0.034
42.890,-0.034
42.895,-0.030
42.900,-0.022
42.905,-0.014
42.910,-0.005
42.915,0.013
42.920,0.037
42.925,0.053
42.930,0.058
42.935,0.059
42.940,0.060
42.945,0.059
42.950,0.053
42.955,0.053
42.960,0.054
42.965,0.050
42.970,0.047
42.975,0.046
42.980,0.042
42.985,0.039
42.990,0.036
42.995,0.029
43.000,0.008
43.005,-0.047
43.010,-0.129
43.015,-0.238
43.020,-0.378
43.025,-0.507
43.030,-0.434
43.035,-0.054
43.040,0.336
43.045,0.519
43.050,0.559
43.055,0.503
43.060,0.373
43.065,0.202
43.070,0.060
43.075,0.027
43.080,0.042
43.085,0.005
43.090,-0.019
43.095,-0.006
43.100,-0.019
43.105,-0.038
43.110,-0.032
43.115,-0.035
43.120,-0.049
43.125,-0.049
43.130,-0.045
43.135,-0.052
43.140,-0.056
43.145,-0.049
43.150,-0.047
43.155,-0.051
43.160,-0.049
43.165,-0.046
43.170,-0.047
43.175,-0.049
43.180,-0.048
43.185,-0.045
43.190,-0.042
43.195,-0.043
43.200,-0.050
43.205,-0.055
43.210,-0.054
43.215,-0.051
43.220,-0.056
43.225,-0.061
43.230,-0.061
43.235,-0.061
43.240,-0.067
43.245,-0.073
43.250,-0.074
43.255,-0.072
43.260,-0.073
43.265,-0.075
43.270,-0.076
43.275,-0.077
43.280,-0.081
43.285,-0.082
43.290,-0.081
43.295,-0.080
43.300,-0.071
43.305,-0.054
43.310,-0.035
43.315,-0.019
43.320,-0.006
43.325,0.006
43.330,0.018
43.335,0.028
43.340,0.041
43.345,0.055
43.350,0.063
43.355,0.069
43.360,0.072
43.365,0.073
43.370,0.073
43.375,0.076
43.380,0.075
43.385,0.071
43.390,0.068
43.395,0.065
43.400,0.063
43.405,0.060
43.410,0.056
43.415,0.056
43.420,0.053
43.425,0.045
43.430,0.040
43.435,0.038
43.440,0.033
43.445,0.028
43.450,0.026
43.455,0.025
43.460,0.025
43.465,0.024
43.470,0.023
43.475,0.021
43.480,0.018
43.485,0.016
43.490,0.014
43.495,0.012
43.500,0.015
43.505,0.014
43.510,0.011
43.515,0.017
43.520,0.017
43.525,0.014
43.530,0.014
43.535,0.008
43.540,0.005
43.545,0.004
43.550,0.007
43.555,0.013
43.560,0.007
43.565,-0.011
43.570,-0.014
43.575,-0.005
43.580,-0.003
43.585,-0.015
43.590,-0.038
43.595,-0.053
43.600,-0.044
43.605,-0.035
43.610,-0.038
43.615,-0.050
43.620,-0.073
43.625,-0.083
43.630,-0.072
43.635,-0.057
43.640,-0.046
43.645,-0.038
43.650,-0.029
43.655,-0.018
43.660,-0.010
43.665,0.001
43.670,0.021
43.675,0.036
43.680,0.041
43.685,0.046
43.690,0.052
43.695,0.053
43.700,0.051
43.705,0.048
43.710,0.043
43.715,0.042
43.720,0.042
43.725,0.045
43.730,0.050
43.735,0.042
43.740,0.030
43.745,0.025
43.750,0.015
43.755,-0.016
43.760,-0.070
43.765,-0.137
43.770,-0.217
43.775,-0.288
43.780,-0.273
43.785,-0.008
43.790,0.380
43.795,0.522
43.800,0.489
43.805,0.468
43.810,0.419
43.815,0.306
43.820,0.130
43.825,-0.003
43.830,-0.012
43.835,-0.022
43.840,-0.071
43.845,-0.058
43.850,-0.045
43.855,-0.076
43.860,-0.078
43.865,-0.063
43.870,-0.076
43.875,-0.084
43.880,-0.073
43.885,-0.075
43.890,-0.083
43.895,-0.078
43.900,-0.067
43.905,-0.068
43.910,-0.075
43.915,-0.071
43.920,-0.067
43.925,-0.069
43.930,-0.071
43.935,-0.073
43.940,-0.075
43.945,-0.076
43.950,-0.076
43.955,-0.082
43.960,-0.085
43.965,-0.079
43.970,-0.078
43.975,-0.079
43.980,-0.080
43.985,-0.086
43.990,-0.088
43.995,-0.086
44.000,-0.085
44.005,-0.087
44.010,-0.092
44.015,-0.096
44.020,-0.097
44.025,-0.096
44.030,-0.097
44.035,-0.098
44.040,-0.098
44.045,-0.094
44.050,-0.085
44.055,-0.070
44.060,-0.053
44.065,-0.038
44.070,-0.021
44.075,-0.003
44.080,0.012
44.085,0.027
44.090,0.039
44.095,0.048
44.100,0.056
44.105,0.060
44.110,0.065
44.115,0.071
44.120,0.074
44.125,0.071
44.130,0.066
44.135,0.063
44.140,0.062
44.145,0.060
44.150,0.060
44.155,0.055
44.160,0.051
44.165,0.051
44.170,0.049
44.175,0.045
44.180,0.040
44.185,0.035
44.190,0.030
44.195,0.028
44.200,0.029
44.205,0.028
44.210,0.024
44.215,0.022
44.220,0.021
44.225,0.020
44.230,0.019
44.235,0.018
44.240,0.017
44.245,0.017
44.250,0.017
44.255,0.016
44.260,0.016
44.265,0.015
44.270,0.016
44.275,0.017
44.280,0.017
44.285,0.018
44.290,0.016
44.295,0.014
44.300,0.014
44.305,0.014
44.310,0.015
44.315,0.013
44.320,0.012
44.325,0.010
44.330,0.007
44.335,0.001
44.340,-0.009
44.345,-0.021
44.350,-0.037
44.355,-0.042
44.360,-0.033
44.365,-0.027
44.370,-0.032
44.375,-0.044
44.380,-0.060
44.385,-0.064
44.390,-0.054
44.395,-0.047
44.400,-0.041
44.405,-0.033
44.410,-0.023
44.415,-0.012
44.420,-0.001
44.425,0.014
44.430,0.034
44.435,0.047
44.440,0.050
44.445,0.051
44.450,0.054
44.455,0.052
44.460,0.049
44.465,0.050
44.470,0.050
44.475,0.046
44.480,0.042
44.485,0.040
44.490,0.036
44.495,0.032
44.500,0.030
44.505,0.022
44.510,-0.002
44.515,-0.055
44.520,-0.126
44.525,-0.219
44.530,-0.330
44.535,-0.407
44.540,-0.265
44.545,0.115
44.550,0.404
44.555,0.488
44.560,0.480
44.565,0.433
44.570,0.329
44.575,0.172
44.580,0.044
44.585,0.014
44.590,0.018
44.595,-0.023
44.600,-0.040
44.605,-0.024
44.610,-0.043
44.615,-0.058
44.620,-0.046
44.625,-0.051
44.630,-0.062
44.635,-0.057
44.640,-0.058
44.645,-0.066
44.650,-0.063
44.655,-0.058
44.660,-0.062
44.665,-0.063
44.670,-0.059
44.675,-0.058
44.680,-0.059
44.685,-0.058
44.690,-0.058
44.695,-0.056
44.700,-0.042
44.705,-0.038
44.710,-0.045
44.715,-0.047
44.720,-0.049
44.725,-0.046
44.730,-0.046
44.735,-0.050
44.740,-0.051
44.745,-0.053
44.750,-0.057
44.755,-0.058
44.760,-0.058
44.765,-0.059
44.770,-0.059
44.775,-0.059
44.780,-0.061
44.785,-0.062
44.790,-0.061
44.795,-0.062
44.800,-0.062
44.805,-0.062
44.810,-0.055
44.815,-0.044
44.820,-0.034
44.825,-0.023
44.830,-0.013
44.835,-0.001
44.840,0.009
44.845,0.020
44.850,0.032
44.855,0.040
44.860,0.046
44.865,0.050
44.870,0.055
44.875,0.059
44.880,0.060
44.885,0.059
44.890,0.056
44.895,0.054
44.900,0.053
44.905,0.051
44.910,0.048
44.915,0.045
44.920,0.042
44.925,0.039
44.930,0.035
44.935,0.032
44.940,0.028
44.945,0.026
44.950,0.024
44.955,0.019
44.960,0.015
44.965,0.016
44.970,0.019
44.975,0.019
44.980,0.016
44.985,0.015
44.990,0.013
44.995,0.013
45.000,0.013
45.005,0.013
45.010,0.013
45.015,0.013
45.020,0.013
45.025,0.014
45.030,0.013
45.035,0.013
45.040,0.012
45.045,0.011
45.050,0.011
45.055,0.009
45.060,0.009
45.065,0.009
45.070,0.007
45.075,0.006
45.080,0.006
45.085,0.006
45.090,0.003
45.095,0.000
45.100,-0.003
45.105,-0.012
45.110,-0.026
45.115,-0.044
45.120,-0.051
45.125,-0.040
45.130,-0.031
45.135,-0.034
45.140,-0.046
45.145,-0.062
45.150,-0.067
45.155,-0.056
45.160,-0.044
45.165,-0.040
45.170,-0.039
45.175,-0.031
45.180,-0.021
45.185,-0.011
45.190,0.009
45.195,0.032
45.200,0.048
45.205,0.051
45.210,0.049
45.215,0.055
45.220,0.058
45.225,0.051
45.230,0.050
45.235,0.052
45.240,0.047
