'Elapsed time','ECG'
'seconds','mV'
0.000,0.015
0.005,-0.239
0.010,-0.262
0.015,-0.239
0.020,-0.178
0.025,-0.151
0.030,-0.175
0.035,-0.101
0.040,-0.080
0.045,-0.112
0.050,-0.087
0.055,-0.043
0.060,-0.032
0.065,-0.020
0.070,0.005
0.075,0.014
0.080,0.014
0.085,0.031
0.090,0.031
0.095,-0.001
0.100,0.002
0.105,0.010
0.110,0.004
0.115,0.048
0.120,0.121
0.125,0.174
0.130,0.191
0.135,0.182
0.140,0.186
0.145,0.189
0.150,0.158
0.155,0.135
0.160,0.169
0.165,0.204
0.170,0.173
0.175,0.132
0.180,0.119
0.185,0.137
0.190,0.143
0.195,0.133
0.200,0.182
0.205,0.188
0.210,0.116
0.215,0.092
0.220,0.086
0.225,0.092
0.230,0.107
0.235,0.073
0.240,0.071
0.245,0.086
0.250,0.062
0.255,0.051
0.260,0.024
0.265,0.001
0.270,0.024
0.275,0.026
0.280,-0.015
0.285,-0.055
0.290,-0.050
0.295,-0.034
0.300,-0.084
0.305,-0.110
0.310,-0.032
0.315,0.046
0.320,0.087
0.325,0.059
0.330,0.005
0.335,0.038
0.340,0.065
0.345,0.053
0.350,0.085
0.355,0.112
0.360,0.089
0.365,0.072
0.370,0.063
0.375,0.063
0.380,0.091
0.385,0.095
0.390,0.057
0.395,0.058
0.400,0.049
0.405,-0.007
0.410,-0.007
0.415,0.008
0.420,0.044
0.425,0.141
0.430,0.183
0.435,0.135
0.440,-0.057
0.445,-0.514
0.450,-1.123
0.455,-1.659
0.460,-1.900
0.465,-1.660
0.470,-0.949
0.475,-0.123
0.480,0.437
0.485,0.727
0.490,0.822
0.495,0.756
0.500,0.588
0.505,0.404
0.510,0.316
0.515,0.299
0.520,0.270
0.525,0.245
0.530,0.251
0.535,0.249
0.540,0.213
0.545,0.189
0.550,0.189
0.555,0.164
0.560,0.135
0.565,0.161
0.570,0.167
0.575,0.105
0.580,0.075
0.585,0.084
0.590,0.088
0.595,0.061
0.600,0.034
0.605,0.066
0.610,0.062
0.615,-0.004
0.620,-0.039
0.625,-0.033
0.630,-0.014
0.635,-0.021
0.640,-0.020
0.645,-0.012
0.650,-0.020
0.655,0.014
0.660,0.018
0.665,-0.031
0.670,-0.092
0.675,-0.129
0.680,-0.098
0.685,-0.117
0.690,-0.163
0.695,-0.125
0.700,-0.120
0.705,-0.162
0.710,-0.136
0.715,-0.090
0.720,-0.105
0.725,-0.146
0.730,-0.157
0.735,-0.112
0.740,-0.055
0.745,-0.049
0.750,-0.043
0.755,-0.026
0.760,-0.043
0.765,-0.071
0.770,-0.063
0.775,-0.029
0.780,0.010
0.785,0.002
0.790,-0.041
0.795,-0.057
0.800,-0.037
0.805,0.015
0.810,0.009
0.815,-0.020
0.820,0.013
0.825,0.032
0.830,0.032
0.835,0.029
0.840,0.024
0.845,0.029
0.850,0.022
0.855,0.018
0.860,0.031
0.865,0.029
0.870,0.020
0.875,0.025
0.880,0.021
0.885,0.005
0.890,-0.001
0.895,0.002
0.900,-0.015
0.905,-0.041
0.910,-0.038
0.915,-0.027
0.920,-0.033
0.925,-0.051
0.930,-0.075
0.935,-0.074
0.940,-0.061
0.945,-0.060
0.950,-0.042
0.955,-0.017
0.960,-0.002
0.965,0.024
0.970,0.041
0.975,0.022
0.980,-0.004
0.985,0.004
0.990,0.044
0.995,0.077
1.000,0.083
1.005,0.066
1.010,0.047
1.015,0.056
1.020,0.090
1.025,0.160
1.030,0.227
1.035,0.223
1.040,0.115
1.045,-0.176
1.050,-0.719
1.055,-1.390
1.060,-1.815
1.065,-1.784
1.070,-1.301
1.075,-0.511
1.080,0.184
1.085,0.625
1.090,0.849
1.095,0.854
1.100,0.724
1.105,0.560
1.110,0.417
1.115,0.348
1.120,0.338
1.125,0.304
1.130,0.282
1.135,0.299
1.140,0.267
1.145,0.217
1.150,0.217
1.155,0.207
1.160,0.179
1.165,0.165
1.170,0.161
1.175,0.147
1.180,0.125
1.185,0.117
1.190,0.110
1.195,0.100
1.200,0.102
1.205,0.099
1.210,0.085
1.215,0.080
1.220,0.074
1.225,0.050
1.230,0.038
1.235,0.035
1.240,0.028
1.245,0.021
1.250,0.002
1.255,0.004
1.260,0.003
1.265,-0.022
1.270,-0.031
1.275,-0.032
1.280,-0.032
1.285,-0.053
1.290,-0.089
1.295,-0.104
1.300,-0.102
1.305,-0.101
1.310,-0.105
1.315,-0.103
1.320,-0.091
1.325,-0.065
1.330,-0.044
1.335,-0.042
1.340,-0.040
1.345,-0.034
1.350,-0.034
1.355,-0.037
1.360,-0.024
1.365,0.001
1.370,0.024
1.375,0.033
1.380,0.010
1.385,-0.042
1.390,-0.065
1.395,-0.033
1.400,0.004
1.405,0.007
1.410,-0.036
1.415,-0.088
1.420,-0.085
1.425,-0.050
1.430,-0.016
1.435,0.022
1.440,0.033
1.445,0.045
1.450,0.089
1.455,0.129
1.460,0.182
1.465,0.233
1.470,0.274
1.475,0.345
1.480,0.367
1.485,0.313
1.490,0.293
1.495,0.237
1.500,0.151
1.505,0.202
1.510,0.254
1.515,0.229
1.520,0.200
1.525,0.138
1.530,0.113
1.535,0.147
1.540,0.158
1.545,0.156
1.550,0.153
1.555,0.082
1.560,-0.007
1.565,-0.091
1.570,-0.161
1.575,-0.070
1.580,0.040
1.585,0.071
1.590,0.083
1.595,0.038
1.600,0.088
1.605,0.163
1.610,0.129
1.615,0.095
1.620,0.025
1.625,-0.010
1.630,0.048
1.635,0.083
1.640,-0.050
1.645,-0.523
1.650,-1.298
1.655,-1.976
1.660,-2.165
1.665,-1.959
1.670,-1.494
1.675,-0.769
1.680,-0.105
1.685,0.244
1.690,0.237
1.695,0.080
1.700,0.017
1.705,-0.076
1.710,-0.148
1.715,-0.170
1.720,-0.252
1.725,-0.261
1.730,-0.231
1.735,-0.231
1.740,-0.158
1.745,-0.001
1.750,0.171
1.755,0.214
1.760,0.100
1.765,0.150
1.770,0.359
1.775,0.383
1.780,0.299
1.785,0.238
1.790,0.181
1.795,0.161
1.800,0.243
1.805,0.349
1.810,0.300
1.815,0.221
1.820,0.204
1.825,0.143
1.830,0.071
1.835,0.015
1.840,-0.008
1.845,0.066
1.850,0.112
1.855,0.030
1.860,-0.040
1.865,-0.033
1.870,0.063
1.875,0.199
1.880,0.169
1.885,-0.002
1.890,-0.093
1.895,-0.108
1.900,-0.096
1.905,-0.019
1.910,0.050
1.915,0.096
1.920,0.137
1.925,0.141
1.930,0.118
1.935,0.062
1.940,0.063
1.945,0.126
1.950,0.149
1.955,0.147
1.960,0.151
1.965,0.131
1.970,0.037
1.975,-0.071
1.980,0.004
1.985,0.234
1.990,0.287
1.995,0.171
2.000,0.181
2.005,0.311
2.010,0.279
2.015,0.139
2.020,0.132
2.025,0.191
2.030,0.220
2.035,0.178
2.040,0.121
2.045,0.129
2.050,0.083
2.055,-0.047
2.060,-0.020
2.065,0.191
2.070,0.255
2.075,0.178
2.080,0.184
2.085,0.150
2.090,0.132
2.095,0.098
2.100,-0.032
2.105,-0.030
2.110,0.000
2.115,-0.060
2.120,-0.022
2.125,0.083
2.130,0.114
2.135,0.141
2.140,0.154
2.145,0.148
2.150,0.159
2.155,0.185
2.160,0.262
2.165,0.253
2.170,0.177
2.175,0.198
2.180,0.227
2.185,0.210
2.190,0.180
2.195,0.141
2.200,0.151
2.205,0.179
2.210,0.134
2.215,0.122
2.220,0.216
2.225,0.293
2.230,0.259
2.235,0.063
2.240,-0.372
2.245,-1.011
2.250,-1.658
2.255,-2.051
2.260,-1.873
2.265,-1.106
2.270,-0.224
2.275,0.423
2.280,0.767
2.285,0.850
2.290,0.834
2.295,0.709
2.300,0.495
2.305,0.348
2.310,0.253
2.315,0.215
2.320,0.228
2.325,0.151
2.330,0.022
2.335,0.016
2.340,0.161
2.345,0.298
2.350,0.259
2.355,0.160
2.360,0.118
2.365,0.099
2.370,0.068
2.375,0.021
2.380,-0.011
2.385,-0.061
2.390,-0.158
2.395,-0.237
2.400,-0.272
2.405,-0.316
2.410,-0.351
2.415,-0.414
2.420,-0.525
2.425,-0.593
2.430,-0.604
2.435,-0.569
2.440,-0.483
2.445,-0.404
2.450,-0.344
2.455,-0.322
2.460,-0.349
2.465,-0.367
2.470,-0.370
2.475,-0.332
2.480,-0.271
2.485,-0.283
2.490,-0.356
2.495,-0.445
2.500,-0.366
2.505,-0.121
2.510,0.011
2.515,0.021
2.520,-0.018
2.525,-0.038
2.530,0.023
2.535,0.080
2.540,0.105
2.545,0.135
2.550,0.115
2.555,0.034
2.560,-0.013
2.565,0.060
2.570,0.191
2.575,0.220
2.580,0.168
2.585,0.118
2.590,0.096
2.595,0.040
2.600,-0.013
2.605,0.084
2.610,0.190
2.615,0.204
2.620,0.185
2.625,0.163
2.630,0.195
2.635,0.196
2.640,0.160
2.645,0.164
2.650,0.090
2.655,0.035
2.660,0.147
2.665,0.173
2.670,0.102
2.675,0.105
2.680,0.137
2.685,0.134
2.690,0.071
2.695,0.016
2.700,0.037
2.705,0.064
2.710,0.003
2.715,-0.037
2.720,0.059
2.725,0.117
2.730,0.057
2.735,0.049
2.740,0.172
2.745,0.281
2.750,0.283
2.755,0.223
2.760,0.167
2.765,0.174
2.770,0.155
2.775,0.136
2.780,0.193
2.785,0.212
2.790,0.147
2.795,0.116
2.800,0.158
2.805,0.201
2.810,0.271
2.815,0.319
2.820,0.270
2.825,0.082
2.830,-0.353
2.835,-1.008
2.840,-1.684
2.845,-2.044
2.850,-1.853
2.855,-1.159
2.860,-0.299
2.865,0.327
2.870,0.669
2.875,0.750
2.880,0.667
2.885,0.549
2.890,0.395
2.895,0.311
2.900,0.314
2.905,0.284
2.910,0.209
2.915,0.181
2.920,0.185
2.925,0.155
2.930,0.130
2.935,0.118
2.940,0.118
2.945,0.138
2.950,0.137
2.955,0.120
2.960,0.108
2.965,0.095
2.970,0.078
2.975,0.043
2.980,-0.013
2.985,-0.082
2.990,-0.090
2.995,-0.039
3.000,-0.040
3.005,-0.042
3.010,-0.052
3.015,-0.091
3.020,-0.044
3.025,0.012
3.030,0.005
3.035,-0.021
3.040,-0.040
3.045,0.000
3.050,0.036
3.055,0.015
3.060,0.045
3.065,0.101
3.070,0.067
3.075,0.016
3.080,0.031
3.085,0.075
3.090,0.058
3.095,-0.031
3.100,-0.086
3.105,-0.085
3.110,-0.108
3.115,-0.160
3.120,-0.171
3.125,-0.128
3.130,-0.066
3.135,-0.025
3.140,-0.021
3.145,-0.051
3.150,-0.090
3.155,-0.113
3.160,-0.152
3.165,-0.170
3.170,-0.132
3.175,-0.097
3.180,-0.055
3.185,-0.004
3.190,0.004
3.195,-0.027
3.200,-0.019
3.205,0.012
3.210,0.024
3.215,0.025
3.220,-0.022
3.225,-0.032
3.230,0.032
3.235,0.045
3.240,0.046
3.245,0.044
3.250,0.016
3.255,0.036
3.260,0.069
3.265,0.068
3.270,0.014
3.275,-0.040
3.280,-0.031
3.285,0.005
3.290,0.002
3.295,-0.046
3.300,-0.049
3.305,-0.041
3.310,-0.069
3.315,-0.019
3.320,0.067
3.325,0.092
3.330,0.082
3.335,0.034
3.340,0.028
3.345,0.066
3.350,0.053
3.355,0.045
3.360,0.017
3.365,-0.039
3.370,0.009
3.375,0.080
3.380,0.061
3.385,0.023
3.390,0.036
3.395,0.100
3.400,0.175
3.405,0.213
3.410,0.087
3.415,-0.390
3.420,-1.141
3.425,-1.781
3.430,-1.974
3.435,-1.641
3.440,-0.925
3.445,-0.168
3.450,0.402
3.455,0.745
3.460,0.871
3.465,0.871
3.470,0.752
3.475,0.573
3.480,0.464
3.485,0.367
3.490,0.248
3.495,0.144
3.500,0.047
3.505,-0.005
3.510,0.007
3.515,0.055
3.520,0.064
3.525,0.025
3.530,0.001
3.535,-0.001
3.540,-0.027
3.545,-0.077
3.550,-0.087
3.555,-0.042
3.560,0.005
3.565,0.009
3.570,-0.025
3.575,-0.100
3.580,-0.153
3.585,-0.130
3.590,-0.088
3.595,-0.054
3.600,-0.017
3.605,-0.006
3.610,-0.031
3.615,-0.060
3.620,-0.093
3.625,-0.091
3.630,-0.011
3.635,0.056
3.640,0.092
3.645,0.123
3.650,0.096
3.655,0.069
3.660,0.060
3.665,0.029
3.670,0.004
3.675,-0.005
3.680,-0.006
3.685,-0.002
3.690,0.018
3.695,0.006
3.700,-0.047
3.705,-0.069
3.710,-0.019
3.715,0.116
3.720,0.231
3.725,0.197
3.730,0.089
3.735,0.058
3.740,0.081
3.745,0.051
3.750,0.003
3.755,-0.003
3.760,0.011
3.765,0.024
3.770,-0.009
3.775,-0.041
3.780,-0.032
3.785,-0.056
3.790,-0.019
3.795,0.056
3.800,0.016
3.805,-0.052
3.810,-0.058
3.815,0.032
3.820,0.107
3.825,0.057
3.830,0.037
3.835,0.079
3.840,0.086
3.845,0.054
3.850,0.063
3.855,0.090
3.860,0.055
3.865,0.016
3.870,0.016
3.875,-0.013
3.880,-0.084
3.885,-0.051
3.890,0.058
3.895,0.061
3.900,0.002
3.905,0.025
3.910,0.105
3.915,0.148
3.920,0.147
3.925,0.131
3.930,0.097
3.935,0.059
3.940,0.088
3.945,0.154
3.950,0.164
3.955,0.088
3.960,0.028
3.965,0.113
3.970,0.219
3.975,0.274
3.980,0.292
3.985,0.277
3.990,0.279
3.995,0.191
4.000,-0.153
4.005,-0.762
4.010,-1.442
4.015,-1.827
4.020,-1.738
4.025,-1.162
4.030,-0.290
4.035,0.399
4.040,0.799
4.045,0.962
4.050,0.892
4.055,0.767
4.060,0.541
4.065,0.383
4.070,0.548
4.075,0.611
4.080,0.444
4.085,0.305
4.090,0.255
4.095,0.333
4.100,0.357
4.105,0.238
4.110,0.154
4.115,0.132
4.120,0.080
4.125,0.086
4.130,0.169
4.135,0.200
4.140,0.114
4.145,0.073
4.150,0.185
4.155,0.214
4.160,0.141
4.165,0.051
4.170,-0.017
4.175,0.000
4.180,-0.017
4.185,-0.066
4.190,-0.053
4.195,-0.069
4.200,-0.137
4.205,-0.138
4.210,-0.094
4.215,-0.075
4.220,-0.075
4.225,-0.111
4.230,-0.142
4.235,-0.116
4.240,-0.078
4.245,-0.010
4.250,0.009
4.255,-0.069
4.260,-0.120
4.265,-0.132
4.270,-0.099
4.275,-0.047
4.280,-0.060
4.285,-0.080
4.290,-0.051
4.295,-0.030
4.300,-0.039
4.305,-0.042
4.310,-0.024
4.315,-0.005
4.320,-0.003
4.325,-0.044
4.330,-0.162
4.335,-0.118
4.340,0.059
4.345,0.089
4.350,0.092
4.355,0.066
4.360,0.045
4.365,0.074
4.370,0.017
4.375,-0.026
4.380,-0.040
4.385,-0.033
4.390,0.050
4.395,0.081
4.400,0.027
4.405,-0.033
4.410,-0.028
4.415,0.013
4.420,-0.025
4.425,-0.088
4.430,-0.095
4.435,-0.075
4.440,-0.087
4.445,-0.072
4.450,-0.017
4.455,-0.024
4.460,-0.074
4.465,-0.168
4.470,-0.150
4.475,-0.011
4.480,0.038
4.485,0.039
4.490,0.019
4.495,0.034
4.500,0.084
4.505,0.064
4.510,0.029
4.515,0.042
4.520,0.066
4.525,0.083
4.530,0.096
4.535,0.062
4.540,0.020
4.545,0.005
4.550,-0.042
4.555,-0.066
4.560,0.018
4.565,0.098
4.570,0.118
4.575,0.097
4.580,-0.040
4.585,-0.370
4.590,-0.935
4.595,-1.608
4.600,-2.011
4.605,-1.937
4.610,-1.377
4.615,-0.475
4.620,0.332
4.625,0.807
4.630,0.954
4.635,0.895
4.640,0.767
4.645,0.593
4.650,0.425
4.655,0.332
4.660,0.296
4.665,0.268
4.670,0.272
4.675,0.289
4.680,0.319
4.685,0.377
4.690,0.389
4.695,0.357
4.700,0.307
4.705,0.244
4.710,0.186
4.715,0.136
4.720,0.094
4.725,0.066
4.730,0.061
4.735,0.036
4.740,-0.027
4.745,-0.111
4.750,-0.142
4.755,-0.097
4.760,-0.084
4.765,-0.124
4.770,-0.172
4.775,-0.192
4.780,-0.193
4.785,-0.203
4.790,-0.197
4.795,-0.183
4.800,-0.199
4.805,-0.240
4.810,-0.288
4.815,-0.342
4.820,-0.280
4.825,-0.128
4.830,-0.094
4.835,-0.107
4.840,-0.095
4.845,-0.088
4.850,-0.053
4.855,-0.056
4.860,-0.070
4.865,-0.037
4.870,-0.037
4.875,-0.046
4.880,-0.027
4.885,-0.030
4.890,-0.037
4.895,-0.034
4.900,-0.033
4.905,-0.009
4.910,0.062
4.915,0.104
4.920,0.070
4.925,0.029
4.930,0.046
4.935,0.064
4.940,0.037
4.945,0.007
4.950,0.006
4.955,0.007
4.960,-0.005
4.965,0.019
4.970,0.052
4.975,0.063
4.980,0.061
4.985,0.057
4.990,0.053
4.995,0.032
5.000,0.014
5.005,0.018
5.010,0.027
5.015,0.039
5.020,0.039
5.025,0.009
5.030,0.001
5.035,0.020
5.040,0.027
5.045,0.000
5.050,-0.029
5.055,0.012
5.060,0.059
5.065,0.059
5.070,0.043
5.075,0.033
5.080,0.063
5.085,0.095
5.090,0.109
5.095,0.135
5.100,0.126
5.105,0.093
5.110,0.069
5.115,0.034
5.120,0.049
5.125,0.103
5.130,0.110
5.135,0.086
5.140,0.037
5.145,0.022
5.150,0.094
5.155,0.152
5.160,0.142
5.165,0.016
5.170,-0.345
5.175,-0.930
5.180,-1.546
5.185,-1.898
5.190,-1.874
5.195,-1.497
5.200,-0.753
5.205,0.058
5.210,0.607
5.215,0.840
5.220,0.789
5.225,0.615
5.230,0.434
5.235,0.253
5.240,0.179
5.245,0.215
5.250,0.238
5.255,0.234
5.260,0.232
5.265,0.207
5.270,0.165
5.275,0.163
5.280,0.165
5.285,0.164
5.290,0.184
5.295,0.172
5.300,0.146
5.305,0.144
5.310,0.157
5.315,0.152
5.320,0.113
5.325,0.095
5.330,0.089
5.335,0.059
5.340,0.035
5.345,0.025
5.350,0.028
5.355,0.024
5.360,0.011
5.365,0.001
5.370,-0.004
5.375,0.015
5.380,0.024
5.385,0.028
5.390,0.040
5.395,0.034
5.400,0.013
5.405,-0.002
5.410,0.015
5.415,0.023
5.420,0.010
5.425,0.006
5.430,0.007
5.435,0.000
5.440,-0.013
5.445,0.010
5.450,0.048
5.455,0.050
5.460,0.036
5.465,0.057
5.470,0.097
5.475,0.112
5.480,0.099
5.485,0.061
5.490,0.053
5.495,0.087
5.500,0.095
5.505,0.094
5.510,0.085
5.515,0.043
5.520,0.010
5.525,0.001
5.530,0.007
5.535,-0.011
5.540,-0.093
5.545,-0.113
5.550,-0.032
5.555,-0.008
5.560,-0.067
5.565,-0.137
5.570,-0.126
5.575,-0.073
5.580,-0.083
5.585,-0.095
5.590,-0.081
5.595,-0.082
5.600,-0.101
5.605,-0.115
5.610,-0.116
5.615,-0.128
5.620,-0.126
5.625,-0.089
5.630,-0.085
5.635,-0.099
5.640,-0.080
5.645,-0.048
5.650,-0.033
5.655,-0.030
5.660,-0.006
5.665,0.063
5.670,0.138
5.675,0.152
5.680,0.143
5.685,0.153
5.690,0.170
5.695,0.169
5.700,0.157
5.705,0.148
5.710,0.136
5.715,0.125
5.720,0.109
5.725,0.108
5.730,0.130
5.735,0.182
5.740,0.244
5.745,0.271
5.750,0.231
5.755,0.037
5.760,-0.389
5.765,-1.030
5.770,-1.625
5.775,-1.823
5.780,-1.609
5.785,-1.034
5.790,-0.244
5.795,0.406
5.800,0.806
5.805,0.941
5.810,0.899
5.815,0.800
5.820,0.627
5.825,0.451
5.830,0.345
5.835,0.295
5.840,0.260
5.845,0.264
5.850,0.296
5.855,0.273
5.860,0.223
5.865,0.214
5.870,0.197
5.875,0.160
5.880,0.138
5.885,0.123
5.890,0.098
5.895,0.053
5.900,-0.001
5.905,-0.086
5.910,-0.130
5.915,-0.082
5.920,-0.062
5.925,-0.081
5.930,-0.111
5.935,-0.123
5.940,-0.109
5.945,-0.129
5.950,-0.146
5.955,-0.123
5.960,-0.102
5.965,-0.086
5.970,-0.065
5.975,-0.046
5.980,-0.025
5.985,-0.017
5.990,-0.010
5.995,0.015
6.000,0.027
6.005,0.001
6.010,-0.023
6.015,-0.025
6.020,-0.033
6.025,-0.019
6.030,0.031
6.035,0.082
6.040,0.111
6.045,0.097
6.050,0.095
6.055,0.159
6.060,0.189
6.065,0.159
6.070,0.151
6.075,0.155
6.080,0.135
6.085,0.119
6.090,0.112
6.095,0.101
6.100,0.089
6.105,0.082
6.110,0.097
6.115,0.110
6.120,0.090
6.125,0.074
6.130,0.076
6.135,0.049
6.140,0.040
6.145,0.063
6.150,0.064
6.155,0.054
6.160,0.036
6.165,0.034
6.170,0.023
6.175,-0.025
6.180,-0.043
6.185,0.010
6.190,0.062
6.195,0.053
6.200,0.005
6.205,-0.037
6.210,-0.036
6.215,-0.020
6.220,-0.025
6.225,-0.039
6.230,-0.041
6.235,-0.028
6.240,-0.038
6.245,-0.039
6.250,0.029
6.255,0.102
6.260,0.127
6.265,0.104
6.270,0.074
6.275,0.076
6.280,0.057
6.285,0.024
6.290,0.010
6.295,-0.015
6.300,-0.040
6.305,-0.059
6.310,-0.068
6.315,-0.051
6.320,-0.037
6.325,-0.003
6.330,0.042
6.335,0.014
6.340,-0.098
6.345,-0.391
6.350,-0.945
6.355,-1.577
6.360,-1.913
6.365,-1.866
6.370,-1.491
6.375,-0.749
6.380,0.053
6.385,0.643
6.390,0.896
6.395,0.817
6.400,0.698
6.405,0.606
6.410,0.456
6.415,0.366
6.420,0.352
6.425,0.327
6.430,0.314
6.435,0.315
6.440,0.305
6.445,0.294
6.450,0.303
6.455,0.299
6.460,0.249
6.465,0.198
6.470,0.175
6.475,0.160
6.480,0.147
6.485,0.129
6.490,0.102
6.495,0.083
6.500,0.061
6.505,0.057
6.510,0.062
6.515,0.034
6.520,0.030
6.525,0.045
6.530,0.040
6.535,0.024
6.540,-0.007
6.545,-0.022
6.550,-0.027
6.555,-0.043
6.560,-0.052
6.565,-0.039
6.570,-0.023
6.575,-0.018
6.580,-0.016
6.585,-0.018
6.590,-0.025
6.595,-0.031
6.600,-0.043
6.605,-0.046
6.610,-0.040
6.615,-0.036
6.620,-0.013
6.625,-0.006
6.630,0.002
6.635,0.047
6.640,0.057
6.645,0.046
6.650,0.057
6.655,0.080
6.660,0.115
6.665,0.116
6.670,0.087
6.675,0.074
6.680,0.041
6.685,0.006
6.690,0.017
6.695,0.029
6.700,0.031
6.705,0.024
6.710,0.004
6.715,-0.025
6.720,-0.094
6.725,-0.148
6.730,-0.161
6.735,-0.148
6.740,-0.114
6.745,-0.114
6.750,-0.112
6.755,-0.111
6.760,-0.123
6.765,-0.120
6.770,-0.122
6.775,-0.138
6.780,-0.153
6.785,-0.141
6.790,-0.129
6.795,-0.138
6.800,-0.138
6.805,-0.110
6.810,-0.075
6.815,-0.082
6.820,-0.120
6.825,-0.115
6.830,-0.054
6.835,0.009
6.840,0.033
6.845,0.038
6.850,0.042
6.855,0.032
6.860,0.048
6.865,0.080
6.870,0.083
6.875,0.081
6.880,0.062
6.885,0.043
6.890,0.053
6.895,0.038
6.900,0.031
6.905,0.080
6.910,0.128
6.915,0.149
6.920,0.171
6.925,0.180
6.930,0.134
6.935,-0.049
6.940,-0.480
6.945,-1.121
6.950,-1.707
6.955,-1.940
6.960,-1.749
6.965,-1.140
6.970,-0.284
6.975,0.406
6.980,0.786
6.985,0.882
6.990,0.774
6.995,0.625
7.000,0.488
7.005,0.353
7.010,0.305
7.015,0.346
7.020,0.339
7.025,0.322
7.030,0.315
7.035,0.273
7.040,0.267
7.045,0.275
7.050,0.233
7.055,0.186
7.060,0.173
7.065,0.151
7.070,0.120
7.075,0.135
7.080,0.139
7.085,0.110
7.090,0.085
7.095,0.056
7.100,0.055
7.105,0.040
7.110,0.009
7.115,0.031
7.120,0.043
7.125,0.016
7.130,-0.001
7.135,-0.016
7.140,-0.023
7.145,-0.027
7.150,-0.030
7.155,-0.013
7.160,0.012
7.165,0.017
7.170,0.000
7.175,-0.025
7.180,-0.032
7.185,-0.034
7.190,-0.024
7.195,0.004
7.200,-0.007
7.205,-0.024
7.210,-0.016
7.215,-0.024
7.220,-0.023
7.225,0.010
7.230,0.035
7.235,0.045
7.240,0.055
7.245,0.064
7.250,0.083
7.255,0.080
7.260,0.055
7.265,0.043
7.270,0.047
7.275,0.034
7.280,0.002
7.285,0.004
7.290,0.014
7.295,0.009
7.300,-0.003
7.305,0.008
7.310,0.039
7.315,0.025
7.320,0.021
7.325,0.035
7.330,0.009
7.335,0.013
7.340,0.015
7.345,0.000
7.350,0.006
7.355,-0.019
7.360,-0.043
7.365,-0.042
7.370,-0.060
7.375,-0.092
7.380,-0.102
7.385,-0.075
7.390,-0.055
7.395,-0.087
7.400,-0.121
7.405,-0.114
7.410,-0.099
7.415,-0.101
7.420,-0.110
7.425,-0.086
7.430,-0.047
7.435,-0.015
7.440,0.029
7.445,0.044
7.450,0.057
7.455,0.095
7.460,0.116
7.465,0.127
7.470,0.093
7.475,0.038
7.480,0.027
7.485,0.029
7.490,0.032
7.495,0.050
7.500,0.073
7.505,0.076
7.510,0.062
7.515,0.050
7.520,0.066
7.525,0.129
7.530,0.180
7.535,0.116
7.540,-0.131
7.545,-0.593
7.550,-1.210
7.555,-1.758
7.560,-1.965
7.565,-1.711
7.570,-1.013
7.575,-0.142
7.580,0.509
7.585,0.846
7.590,0.886
7.595,0.736
7.600,0.575
7.605,0.441
7.610,0.342
7.615,0.308
7.620,0.291
7.625,0.263
7.630,0.244
7.635,0.189
7.640,0.128
7.645,0.129
7.650,0.146
7.655,0.104
7.660,0.029
7.665,-0.005
7.670,-0.023
7.675,-0.021
7.680,0.019
7.685,0.018
7.690,-0.009
7.695,-0.047
7.700,-0.073
7.705,-0.043
7.710,-0.035
7.715,-0.064
7.720,-0.096
7.725,-0.111
7.730,-0.096
7.735,-0.119
7.740,-0.134
7.745,-0.100
7.750,-0.087
7.755,-0.057
7.760,-0.047
7.765,-0.068
7.770,-0.043
7.775,-0.025
7.780,-0.017
7.785,0.009
7.790,0.001
7.795,-0.034
7.800,-0.039
7.805,-0.015
7.810,-0.009
7.815,-0.004
7.820,0.013
7.825,0.032
7.830,0.046
7.835,0.046
7.840,0.033
7.845,0.049
7.850,0.074
7.855,0.059
7.860,0.071
7.865,0.101
7.870,0.095
7.875,0.078
7.880,0.053
7.885,0.058
7.890,0.082
7.895,0.068
7.900,0.055
7.905,0.066
7.910,0.078
7.915,0.077
7.920,0.055
7.925,0.034
7.930,0.051
7.935,0.077
7.940,0.078
7.945,0.088
7.950,0.095
7.955,0.079
7.960,0.058
7.965,0.063
7.970,0.075
7.975,0.056
7.980,0.013
7.985,-0.024
7.990,-0.013
7.995,-0.004
8.000,-0.010
8.005,-0.008
8.010,-0.040
8.015,-0.080
8.020,-0.076
8.025,-0.041
8.030,-0.013
8.035,-0.024
8.040,-0.033
8.045,-0.024
8.050,-0.026
8.055,0.017
8.060,0.105
8.065,0.140
8.070,0.110
8.075,0.052
8.080,0.036
8.085,0.053
8.090,0.038
8.095,0.005
8.100,-0.017
8.105,-0.018
8.110,-0.008
8.115,-0.002
8.120,-0.008
8.125,-0.007
8.130,0.022
8.135,0.075
8.140,0.117
8.145,0.064
8.150,-0.166
8.155,-0.627
8.160,-1.257
8.165,-1.728
8.170,-1.794
8.175,-1.548
8.180,-0.915
8.185,-0.068
8.190,0.556
8.195,0.880
8.200,0.896
8.205,0.783
8.210,0.694
8.215,0.533
8.220,0.380
8.225,0.343
8.230,0.341
8.235,0.314
8.240,0.313
8.245,0.329
8.250,0.311
8.255,0.267
8.260,0.231
8.265,0.210
8.270,0.203
8.275,0.230
8.280,0.238
8.285,0.201
8.290,0.176
8.295,0.157
8.300,0.146
8.305,0.141
8.310,0.122
8.315,0.107
8.320,0.093
8.325,0.084
8.330,0.070
8.335,0.055
8.340,0.064
8.345,0.074
8.350,0.065
8.355,0.037
8.360,0.013
8.365,0.023
8.370,0.035
8.375,0.041
8.380,0.064
8.385,0.072
8.390,0.048
8.395,0.021
8.400,0.014
8.405,0.028
8.410,0.019
8.415,-0.008
8.420,-0.018
8.425,-0.031
8.430,-0.040
8.435,-0.021
8.440,-0.007
8.445,0.007
8.450,0.033
8.455,0.062
8.460,0.057
8.465,0.008
8.470,0.016
8.475,0.065
8.480,0.080
8.485,0.064
8.490,0.044
8.495,0.056
8.500,0.071
8.505,0.053
8.510,0.036
8.515,0.045
8.520,0.045
8.525,0.030
8.530,0.014
8.535,0.012
8.540,0.047
8.545,0.082
8.550,0.088
8.555,0.065
8.560,0.052
8.565,0.057
8.570,0.045
8.575,0.024
8.580,0.017
8.585,0.015
8.590,-0.016
8.595,-0.032
8.600,0.009
8.605,0.036
8.610,-0.009
8.615,-0.087
8.620,-0.119
8.625,-0.086
8.630,-0.068
8.635,-0.091
8.640,-0.092
8.645,-0.076
8.650,-0.074
8.655,-0.069
8.660,-0.042
8.665,0.014
8.670,0.052
8.675,0.048
8.680,0.036
8.685,0.040
8.690,0.054
8.695,0.058
8.700,0.032
8.705,0.008
8.710,0.034
8.715,0.061
8.720,0.047
8.725,0.010
8.730,-0.024
8.735,0.011
8.740,0.121
8.745,0.159
8.750,0.100
8.755,-0.086
8.760,-0.549
8.765,-1.180
8.770,-1.772
8.775,-2.061
8.780,-1.819
8.785,-1.135
8.790,-0.270
8.795,0.418
8.800,0.757
8.805,0.808
8.810,0.706
8.815,0.573
8.820,0.420
8.825,0.308
8.830,0.294
8.835,0.295
8.840,0.273
8.845,0.275
8.850,0.268
8.855,0.232
8.860,0.192
8.865,0.153
8.870,0.137
8.875,0.147
8.880,0.157
8.885,0.135
8.890,0.102
8.895,0.079
8.900,0.057
8.905,0.048
8.910,0.032
8.915,0.004
8.920,0.006
8.925,0.012
8.930,-0.015
8.935,-0.047
8.940,-0.049
8.945,-0.013
8.950,0.003
8.955,-0.022
8.960,-0.042
8.965,-0.023
8.970,-0.017
8.975,-0.043
8.980,-0.067
8.985,-0.076
8.990,-0.035
8.995,-0.009
9.000,-0.014
9.005,-0.034
9.010,-0.093
9.015,-0.125
9.020,-0.104
9.025,-0.061
9.030,-0.032
9.035,-0.047
9.040,-0.069
9.045,-0.050
9.050,-0.020
9.055,0.004
9.060,0.031
9.065,0.023
9.070,0.000
9.075,0.003
9.080,0.005
9.085,0.023
9.090,0.030
9.095,-0.010
9.100,-0.016
9.105,0.027
9.110,0.072
9.115,0.092
9.120,0.069
9.125,0.038
9.130,0.034
9.135,0.047
9.140,0.042
9.145,0.009
9.150,-0.002
9.155,0.018
9.160,0.038
9.165,0.044
9.170,0.032
9.175,0.002
9.180,-0.014
9.185,-0.011
9.190,-0.040
9.195,-0.061
9.200,-0.051
9.205,-0.065
9.210,-0.070
9.215,-0.068
9.220,-0.090
9.225,-0.075
9.230,-0.046
9.235,-0.070
9.240,-0.107
9.245,-0.107
9.250,-0.062
9.255,-0.010
9.260,-0.011
9.265,-0.020
9.270,0.048
9.275,0.100
9.280,0.092
9.285,0.085
9.290,0.085
9.295,0.098
9.300,0.084
9.305,0.052
9.310,0.055
9.315,0.065
9.320,0.047
9.325,0.008
9.330,-0.015
9.335,0.006
9.340,0.067
9.345,0.141
9.350,0.144
9.355,-0.013
9.360,-0.365
9.365,-0.908
9.370,-1.536
9.375,-1.955
9.380,-1.952
9.385,-1.472
9.390,-0.613
9.395,0.157
9.400,0.587
9.405,0.754
9.410,0.715
9.415,0.606
9.420,0.488
9.425,0.341
9.430,0.268
9.435,0.285
9.440,0.262
9.445,0.202
9.450,0.158
9.455,0.157
9.460,0.184
9.465,0.206
9.470,0.186
9.475,0.107
9.480,0.085
9.485,0.149
9.490,0.201
9.495,0.195
9.500,0.092
9.505,0.026
9.510,0.096
9.515,0.149
9.520,0.141
9.525,0.105
9.530,0.053
9.535,0.051
9.540,0.072
9.545,0.053
9.550,0.036
9.555,0.055
9.560,0.082
9.565,0.069
9.570,0.018
9.575,-0.024
9.580,-0.015
9.585,0.008
9.590,-0.011
9.595,-0.026
9.600,-0.028
9.605,-0.032
9.610,-0.022
9.615,-0.043
9.620,-0.078
9.625,-0.089
9.630,-0.091
9.635,-0.049
9.640,-0.017
9.645,-0.025
9.650,-0.007
9.655,0.007
9.660,-0.008
9.665,-0.033
9.670,-0.024
9.675,0.033
9.680,0.050
9.685,0.018
9.690,0.010
9.695,0.030
9.700,0.034
9.705,0.023
9.710,0.003
9.715,-0.049
9.720,-0.078
9.725,-0.079
9.730,-0.040
9.735,0.030
9.740,0.043
9.745,0.069
9.750,0.069
9.755,-0.034
9.760,-0.166
9.765,-0.133
9.770,0.079
9.775,0.184
9.780,0.163
9.785,0.103
9.790,0.056
9.795,0.066
9.800,0.013
9.805,-0.029
9.810,0.027
9.815,-0.023
9.820,-0.134
9.825,-0.136
9.830,-0.113
9.835,-0.107
9.840,-0.068
9.845,-0.009
9.850,0.083
9.855,0.178
9.860,0.135
9.865,0.084
9.870,0.119
9.875,0.122
9.880,0.152
9.885,0.195
9.890,0.190
9.895,0.208
9.900,0.188
9.905,0.101
9.910,0.111
9.915,0.104
9.920,-0.030
9.925,-0.074
9.930,0.005
9.935,0.065
9.940,0.033
9.945,-0.006
9.950,0.023
9.955,-0.040
9.960,-0.388
9.965,-0.931
9.970,-1.532
9.975,-1.899
9.980,-1.738
9.985,-1.177
9.990,-0.422
9.995,0.261
10.000,0.704
10.005,0.856
10.010,0.799
10.015,0.648
10.020,0.509
10.025,0.440
10.030,0.342
10.035,0.301
10.040,0.313
10.045,0.256
10.050,0.218
10.055,0.248
10.060,0.254
10.065,0.231
10.070,0.218
10.075,0.198
10.080,0.174
10.085,0.165
10.090,0.180
10.095,0.183
10.100,0.157
10.105,0.167
10.110,0.185
10.115,0.171
10.120,0.210
10.125,0.268
10.130,0.253
10.135,0.202
10.140,0.182
10.145,0.145
10.150,0.045
10.155,-0.033
10.160,0.024
10.165,0.122
10.170,0.079
10.175,-0.048
10.180,0.038
10.185,0.239
10.190,0.105
10.195,-0.150
10.200,-0.177
10.205,-0.022
10.210,0.050
10.215,-0.132
10.220,-0.433
10.225,-0.694
10.230,-0.606
10.235,-0.232
10.240,-0.012
10.245,-0.103
10.250,-0.333
10.255,-0.424
10.260,-0.385
10.265,-0.336
10.270,-0.255
10.275,-0.258
10.280,-0.293
10.285,-0.179
10.290,-0.002
10.295,0.105
10.300,0.010
10.305,-0.112
10.310,-0.056
10.315,-0.031
10.320,-0.070
10.325,-0.013
10.330,0.049
10.335,0.034
10.340,0.042
10.345,0.095
10.350,0.127
10.355,0.142
10.360,0.152
10.365,0.142
10.370,0.142
10.375,0.141
10.380,0.100
10.385,0.051
10.390,0.026
10.395,0.033
10.400,0.044
10.405,0.021
10.410,0.004
10.415,-0.006
10.420,-0.066
10.425,-0.119
10.430,-0.120
10.435,-0.111
10.440,-0.089
10.445,-0.088
10.450,-0.085
10.455,0.000
10.460,0.042
10.465,0.042
10.470,0.093
10.475,0.136
10.480,0.162
10.485,0.159
10.490,0.162
10.495,0.192
10.500,0.191
10.505,0.184
10.510,0.187
10.515,0.210
10.520,0.234
10.525,0.254
10.530,0.290
10.535,0.321
10.540,0.387
10.545,0.467
10.550,0.452
10.555,0.297
10.560,-0.069
10.565,-0.667
10.570,-1.373
10.575,-1.876
10.580,-1.904
10.585,-1.401
10.590,-0.599
10.595,0.110
10.600,0.624
10.605,0.858
10.610,0.805
10.615,0.619
10.620,0.376
10.625,0.199
10.630,0.127
10.635,0.082
10.640,0.038
10.645,-0.035
10.650,-0.167
10.655,-0.281
10.660,-0.298
10.665,-0.245
10.670,-0.219
10.675,-0.208
10.680,-0.185
10.685,-0.326
10.690,-0.509
10.695,-0.391
10.700,-0.099
10.705,0.100
10.710,0.071
10.715,-0.064
10.720,-0.095
10.725,-0.088
10.730,-0.088
10.735,0.000
10.740,0.133
10.745,0.214
10.750,0.324
10.755,0.405
10.760,0.366
10.765,0.254
10.770,0.141
10.775,0.138
10.780,0.204
10.785,0.254
10.790,0.213
10.795,0.149
10.800,0.102
10.805,0.063
10.810,0.105
10.815,0.071
10.820,0.032
10.825,0.038
10.830,0.000
10.835,0.140
10.840,0.332
10.845,0.244
10.850,0.076
10.855,0.085
10.860,0.199
10.865,0.253
10.870,0.163
10.875,0.089
10.880,0.197
10.885,0.189
10.890,0.038
10.895,0.014
10.900,0.017
10.905,0.129
10.910,0.325
10.915,0.302
10.920,0.178
10.925,0.152
10.930,0.176
10.935,0.227
10.940,0.220
10.945,0.166
10.950,0.221
10.955,0.280
10.960,0.245
10.965,0.225
10.970,0.205
10.975,0.130
10.980,0.092
10.985,0.096
10.990,0.052
10.995,-0.001
11.000,-0.005
11.005,-0.009
11.010,-0.043
11.015,-0.054
11.020,-0.046
11.025,-0.075
11.030,-0.107
11.035,-0.139
11.040,-0.184
11.045,-0.197
11.050,-0.193
11.055,-0.175
11.060,-0.147
11.065,-0.122
11.070,-0.080
11.075,-0.031
11.080,-0.018
11.085,-0.051
11.090,-0.069
11.095,-0.061
11.100,-0.049
11.105,-0.037
11.110,-0.039
11.115,-0.047
11.120,-0.050
11.125,-0.065
11.130,-0.076
11.135,-0.056
11.140,0.002
11.145,0.039
11.150,-0.011
11.155,-0.210
11.160,-0.629
11.165,-1.224
11.170,-1.757
11.175,-1.943
11.180,-1.785
11.185,-1.288
11.190,-0.488
11.195,0.211
11.200,0.628
11.205,0.726
11.210,0.586
11.215,0.443
11.220,0.307
11.225,0.196
11.230,0.191
11.235,0.206
11.240,0.155
11.245,0.113
11.250,0.103
11.255,0.064
11.260,0.030
11.265,0.033
11.270,0.036
11.275,0.037
11.280,0.054
11.285,0.078
11.290,0.101
11.295,0.126
11.300,0.152
11.305,0.171
11.310,0.185
11.315,0.195
11.320,0.197
11.325,0.198
11.330,0.201
11.335,0.204
11.340,0.217
11.345,0.225
11.350,0.223
11.355,0.217
11.360,0.203
11.365,0.203
11.370,0.211
11.375,0.212
11.380,0.213
11.385,0.212
11.390,0.208
11.395,0.195
11.400,0.179
11.405,0.161
11.410,0.137
11.415,0.114
11.420,0.088
11.425,0.064
11.430,0.052
11.435,0.045
11.440,0.045
11.445,0.052
11.450,0.059
11.455,0.066
11.460,0.073
11.465,0.080
11.470,0.086
11.475,0.091
11.480,0.094
11.485,0.099
11.490,0.106
11.495,0.107
11.500,0.104
11.505,0.102
11.510,0.102
11.515,0.105
11.520,0.111
11.525,0.115
11.530,0.111
11.535,0.103
11.540,0.100
11.545,0.091
11.550,0.073
11.555,0.056
11.560,0.040
11.565,0.027
11.570,0.009
11.575,-0.016
11.580,-0.042
11.585,-0.070
11.590,-0.094
11.595,-0.108
11.600,-0.117
11.605,-0.130
11.610,-0.158
11.615,-0.184
11.620,-0.177
11.625,-0.158
11.630,-0.160
11.635,-0.170
11.640,-0.167
11.645,-0.154
11.650,-0.131
11.655,-0.107
11.660,-0.082
11.665,-0.057
11.670,-0.048
11.675,-0.053
11.680,-0.059
11.685,-0.058
11.690,-0.046
11.695,-0.033
11.700,-0.029
11.705,-0.035
11.710,-0.045
11.715,-0.051
11.720,-0.058
11.725,-0.051
11.730,-0.010
11.735,0.061
11.740,0.109
11.745,0.070
11.750,-0.124
11.755,-0.550
11.760,-1.153
11.765,-1.731
11.770,-1.999
11.775,-1.789
11.780,-1.113
11.785,-0.249
11.790,0.385
11.795,0.722
11.800,0.820
11.805,0.748
11.810,0.608
11.815,0.434
11.820,0.322
11.825,0.301
11.830,0.279
11.835,0.238
11.840,0.222
11.845,0.214
11.850,0.189
11.855,0.167
11.860,0.169
11.865,0.168
11.870,0.162
11.875,0.161
11.880,0.151
11.885,0.137
11.890,0.122
11.895,0.104
11.900,0.088
11.905,0.071
11.910,0.055
11.915,0.041
11.920,0.028
11.925,0.015
11.930,-0.004
11.935,-0.014
11.940,-0.015
11.945,-0.022
11.950,-0.030
11.955,-0.037
11.960,-0.034
11.965,-0.021
11.970,-0.019
11.975,-0.022
11.980,-0.021
11.985,-0.023
11.990,-0.024
11.995,-0.033
12.000,-0.055
12.005,-0.075
12.010,-0.090
12.015,-0.102
12.020,-0.107
12.025,-0.101
12.030,-0.090
12.035,-0.072
12.040,-0.055
12.045,-0.038
12.050,-0.009
12.055,0.014
12.060,0.017
12.065,0.022
12.070,0.041
12.075,0.055
12.080,0.050
12.085,0.043
12.090,0.046
12.095,0.047
12.100,0.039
12.105,0.025
12.110,0.023
12.115,0.033
12.120,0.035
12.125,0.037
12.130,0.040
12.135,0.039
12.140,0.037
12.145,0.034
12.150,0.031
12.155,0.028
12.160,0.019
12.165,0.005
12.170,-0.010
12.175,-0.017
12.180,-0.018
12.185,-0.027
12.190,-0.040
12.195,-0.065
12.200,-0.093
12.205,-0.083
12.210,-0.049
12.215,-0.039
12.220,-0.046
12.225,-0.043
12.230,-0.031
12.235,-0.011
12.240,0.010
12.245,0.027
12.250,0.061
12.255,0.094
12.260,0.096
12.265,0.094
12.270,0.084
12.275,0.071
12.280,0.086
12.285,0.103
12.290,0.094
12.295,0.077
12.300,0.065
12.305,0.067
12.310,0.082
12.315,0.107
12.320,0.151
12.325,0.179
12.330,0.147
12.335,0.000
12.340,-0.372
12.345,-0.977
12.350,-1.603
12.355,-1.905
12.360,-1.733
12.365,-1.128
12.370,-0.322
12.375,0.314
12.380,0.708
12.385,0.851
12.390,0.806
12.395,0.693
12.400,0.531
12.405,0.405
12.410,0.343
12.415,0.311
12.420,0.278
12.425,0.256
12.430,0.251
12.435,0.223
12.440,0.199
12.445,0.186
12.450,0.164
12.455,0.149
12.460,0.145
12.465,0.134
12.470,0.122
12.475,0.116
12.480,0.108
12.485,0.096
12.490,0.083
12.495,0.066
12.500,0.062
12.505,0.068
12.510,0.063
12.515,0.053
12.520,0.033
12.525,0.011
12.530,0.006
12.535,-0.004
12.540,-0.006
12.545,0.006
12.550,0.001
12.555,-0.006
12.560,-0.006
12.565,-0.008
12.570,-0.007
12.575,-0.018
12.580,-0.032
12.585,-0.041
12.590,-0.053
12.595,-0.066
12.600,-0.075
12.605,-0.083
12.610,-0.086
12.615,-0.075
12.620,-0.055
12.625,-0.034
12.630,-0.013
12.635,0.006
12.640,0.027
12.645,0.040
12.650,0.047
12.655,0.040
12.660,0.022
12.665,0.021
12.670,0.025
12.675,0.028
12.680,0.025
12.685,0.018
12.690,0.026
12.695,0.026
12.700,0.018
12.705,0.018
12.710,0.019
12.715,0.021
12.720,0.022
12.725,0.027
12.730,0.036
12.735,0.033
12.740,0.018
12.745,-0.002
12.750,-0.019
12.755,-0.035
12.760,-0.044
12.765,-0.035
12.770,-0.026
12.775,-0.025
12.780,-0.048
12.785,-0.089
12.790,-0.087
12.795,-0.054
12.800,-0.049
12.805,-0.056
12.810,-0.058
12.815,-0.041
12.820,-0.009
12.825,0.011
12.830,0.037
12.835,0.082
12.840,0.100
12.845,0.095
12.850,0.094
12.855,0.097
12.860,0.106
12.865,0.104
12.870,0.080
12.875,0.057
12.880,0.049
12.885,0.053
12.890,0.064
12.895,0.065
12.900,0.083
12.905,0.141
12.910,0.185
12.915,0.159
12.920,0.016
12.925,-0.323
12.930,-0.887
12.935,-1.531
12.940,-1.900
12.945,-1.829
12.950,-1.330
12.955,-0.526
12.960,0.190
12.965,0.656
12.970,0.843
12.975,0.789
12.980,0.676
12.985,0.536
12.990,0.404
12.995,0.337
13.000,0.312
13.005,0.280
13.010,0.250
13.015,0.238
13.020,0.213
13.025,0.189
13.030,0.190
13.035,0.187
13.040,0.168
13.045,0.154
13.050,0.152
13.055,0.139
13.060,0.113
13.065,0.094
13.070,0.071
13.075,0.033
13.080,-0.003
13.085,-0.011
13.090,-0.004
13.095,-0.007
13.100,-0.036
13.105,-0.060
13.110,-0.048
13.115,-0.038
13.120,-0.050
13.125,-0.074
13.130,-0.065
13.135,-0.022
13.140,-0.020
13.145,-0.046
13.150,-0.049
13.155,-0.043
13.160,-0.027
13.165,-0.014
13.170,-0.016
13.175,-0.020
13.180,-0.033
13.185,-0.051
13.190,-0.048
13.195,-0.040
13.200,-0.036
13.205,-0.023
13.210,-0.003
13.215,0.014
13.220,0.027
13.225,0.036
13.230,0.041
13.235,0.048
13.240,0.068
13.245,0.085
13.250,0.090
13.255,0.096
13.260,0.097
13.265,0.092
13.270,0.091
13.275,0.089
13.280,0.077
13.285,0.065
13.290,0.066
13.295,0.069
13.300,0.065
13.305,0.058
13.310,0.050
13.315,0.053
13.320,0.058
13.325,0.056
13.330,0.044
13.335,0.028
13.340,0.013
13.345,-0.004
13.350,-0.018
13.355,-0.023
13.360,-0.020
13.365,-0.026
13.370,-0.054
13.375,-0.066
13.380,-0.047
13.385,-0.040
13.390,-0.048
13.395,-0.051
13.400,-0.036
13.405,-0.008
13.410,0.013
13.415,0.036
13.420,0.072
13.425,0.098
13.430,0.100
13.435,0.095
13.440,0.095
13.445,0.088
13.450,0.080
13.455,0.079
13.460,0.074
13.465,0.065
13.470,0.059
13.475,0.056
13.480,0.051
13.485,0.053
13.490,0.092
13.495,0.152
13.500,0.158
13.505,0.052
13.510,-0.235
13.515,-0.755
13.520,-1.399
13.525,-1.866
13.530,-1.941
13.535,-1.589
13.540,-0.845
13.545,-0.020
13.550,0.567
13.555,0.835
13.560,0.813
13.565,0.679
13.570,0.548
13.575,0.419
13.580,0.342
13.585,0.331
13.590,0.307
13.595,0.266
13.600,0.254
13.605,0.235
13.610,0.203
13.615,0.195
13.620,0.197
13.625,0.181
13.630,0.157
13.635,0.140
13.640,0.127
13.645,0.115
13.650,0.105
13.655,0.090
13.660,0.072
13.665,0.058
13.670,0.042
13.675,0.019
13.680,0.002
13.685,-0.007
13.690,-0.012
13.695,-0.017
13.700,-0.021
13.705,-0.026
13.710,-0.029
13.715,-0.027
13.720,-0.024
13.725,-0.020
13.730,-0.019
13.735,-0.016
13.740,-0.008
13.745,-0.005
13.750,-0.012
13.755,-0.022
13.760,-0.034
13.765,-0.046
13.770,-0.058
13.775,-0.065
13.780,-0.067
13.785,-0.062
13.790,-0.051
13.795,-0.037
13.800,-0.017
13.805,-0.002
13.810,0.002
13.815,0.007
13.820,0.013
13.825,0.019
13.830,0.022
13.835,0.020
13.840,0.019
13.845,0.017
13.850,0.017
13.855,0.023
13.860,0.029
13.865,0.029
13.870,0.026
13.875,0.022
13.880,0.017
13.885,0.018
13.890,0.022
13.895,0.024
13.900,0.028
13.905,0.034
13.910,0.036
13.915,0.034
13.920,0.024
13.925,0.009
13.930,-0.005
13.935,-0.023
13.940,-0.035
13.945,-0.038
13.950,-0.037
13.955,-0.040
13.960,-0.064
13.965,-0.090
13.970,-0.080
13.975,-0.057
13.980,-0.057
13.985,-0.061
13.990,-0.053
13.995,-0.037
14.000,-0.014
14.005,0.001
14.010,0.023
14.015,0.061
14.020,0.077
14.025,0.076
14.030,0.080
14.035,0.082
14.040,0.085
14.045,0.085
14.050,0.081
14.055,0.075
14.060,0.072
14.065,0.069
14.070,0.064
14.075,0.063
14.080,0.078
14.085,0.125
14.090,0.178
14.095,0.164
14.100,0.021
14.105,-0.337
14.110,-0.909
14.115,-1.536
14.120,-1.916
14.125,-1.859
14.130,-1.335
14.135,-0.486
14.140,0.267
14.145,0.721
14.150,0.876
14.155,0.801
14.160,0.654
14.165,0.487
14.170,0.354
14.175,0.311
14.180,0.311
14.185,0.286
14.190,0.263
14.195,0.252
14.200,0.228
14.205,0.204
14.210,0.192
14.215,0.178
14.220,0.161
14.225,0.154
14.230,0.145
14.235,0.127
14.240,0.117
14.245,0.108
14.250,0.091
14.255,0.079
14.260,0.069
14.265,0.054
14.270,0.034
14.275,0.016
14.280,0.006
14.285,0.000
14.290,-0.001
14.295,-0.004
14.300,-0.008
14.305,-0.013
14.310,-0.019
14.315,-0.018
14.320,-0.013
14.325,-0.009
14.330,-0.008
14.335,-0.011
14.340,-0.015
14.345,-0.021
14.350,-0.030
14.355,-0.044
14.360,-0.058
14.365,-0.068
14.370,-0.070
14.375,-0.063
14.380,-0.050
14.385,-0.033
14.390,-0.019
14.395,-0.011
14.400,-0.005
14.405,0.001
14.410,0.005
14.415,0.009
14.420,0.013
14.425,0.018
14.430,0.020
14.435,0.020
14.440,0.022
14.445,0.023
14.450,0.026
14.455,0.031
14.460,0.033
14.465,0.033
14.470,0.033
14.475,0.031
14.480,0.026
14.485,0.022
14.490,0.023
14.495,0.025
14.500,0.028
14.505,0.028
14.510,0.023
14.515,0.015
14.520,0.003
14.525,-0.011
14.530,-0.025
14.535,-0.038
14.540,-0.042
14.545,-0.048
14.550,-0.049
14.555,-0.056
14.560,-0.082
14.565,-0.088
14.570,-0.067
14.575,-0.056
14.580,-0.057
14.585,-0.057
14.590,-0.045
14.595,-0.020
14.600,0.000
14.605,0.017
14.610,0.050
14.615,0.077
14.620,0.081
14.625,0.080
14.630,0.078
14.635,0.074
14.640,0.072
14.645,0.070
14.650,0.066
14.655,0.063
14.660,0.061
14.665,0.060
14.670,0.057
14.675,0.063
14.680,0.095
14.685,0.154
14.690,0.184
14.695,0.117
14.700,-0.109
14.705,-0.565
14.710,-1.195
14.715,-1.757
14.720,-1.956
14.725,-1.635
14.730,-0.880
14.735,-0.059
14.740,0.503
14.745,0.793
14.750,0.856
14.755,0.767
14.760,0.609
14.765,0.434
14.770,0.338
14.775,0.316
14.780,0.287
14.785,0.251
14.790,0.241
14.795,0.228
14.800,0.203
14.805,0.193
14.810,0.187
14.815,0.173
14.820,0.158
14.825,0.145
14.830,0.129
14.835,0.112
14.840,0.103
14.845,0.092
14.850,0.077
14.855,0.065
14.860,0.054
14.865,0.041
14.870,0.029
14.875,0.022
14.880,0.017
14.885,0.010
14.890,0.004
14.895,-0.002
14.900,-0.007
14.905,-0.009
14.910,-0.011
14.915,-0.010
14.920,-0.009
14.925,-0.012
14.930,-0.015
14.935,-0.019
14.940,-0.023
14.945,-0.031
14.950,-0.043
14.955,-0.056
14.960,-0.070
14.965,-0.081
14.970,-0.086
14.975,-0.076
14.980,-0.063
14.985,-0.057
14.990,-0.043
14.995,-0.026
15.000,-0.008
15.005,0.007
15.010,0.013
15.015,0.023
15.020,0.032
15.025,0.029
15.030,0.022
15.035,0.019
15.040,0.019
15.045,0.018
15.050,0.019
15.055,0.018
15.060,0.014
15.065,0.010
15.070,0.005
15.075,0.006
15.080,0.014
15.085,0.017
15.090,0.014
15.095,0.009
15.100,0.007
15.105,0.010
15.110,0.008
15.115,0.005
15.120,-0.002
15.125,-0.014
15.130,-0.032
15.135,-0.048
15.140,-0.049
15.145,-0.046
15.150,-0.053
15.155,-0.069
15.160,-0.099
15.165,-0.106
15.170,-0.079
15.175,-0.064
15.180,-0.065
15.185,-0.063
15.190,-0.051
15.195,-0.024
15.200,0.005
15.205,0.023
15.210,0.044
15.215,0.065
15.220,0.070
15.225,0.079
15.230,0.084
15.235,0.075
15.240,0.069
15.245,0.068
15.250,0.069
15.255,0.072
15.260,0.067
15.265,0.054
15.270,0.047
15.275,0.050
15.280,0.079
15.285,0.144
15.290,0.180
15.295,0.123
15.300,-0.065
15.305,-0.470
15.310,-1.080
15.315,-1.674
15.320,-1.928
15.325,-1.698
15.330,-1.029
15.335,-0.200
15.340,0.408
15.345,0.759
15.350,0.871
15.355,0.799
15.360,0.656
15.365,0.473
15.370,0.349
15.375,0.318
15.380,0.294
15.385,0.257
15.390,0.247
15.395,0.242
15.400,0.219
15.405,0.202
15.410,0.190
15.415,0.168
15.420,0.142
15.425,0.135
15.430,0.125
15.435,0.105
15.440,0.097
15.445,0.091
15.450,0.082
15.455,0.074
15.460,0.066
15.465,0.056
15.470,0.038
15.475,0.022
15.480,0.013
15.485,0.004
15.490,-0.007
15.495,-0.012
15.500,-0.008
15.505,-0.007
15.510,-0.015
15.515,-0.017
15.520,-0.009
15.525,0.004
15.530,0.011
15.535,0.009
15.540,0.007
15.545,-0.003
15.550,-0.027
15.555,-0.046
15.560,-0.060
15.565,-0.068
15.570,-0.067
15.575,-0.065
15.580,-0.058
15.585,-0.043
15.590,-0.021
15.595,-0.003
15.600,0.014
15.605,0.029
15.610,0.034
15.615,0.037
15.620,0.036
15.625,0.034
15.630,0.037
15.635,0.041
15.640,0.044
15.645,0.039
15.650,0.029
15.655,0.024
15.660,0.024
15.665,0.027
15.670,0.026
15.675,0.026
15.680,0.029
15.685,0.030
15.690,0.029
15.695,0.025
15.700,0.024
15.705,0.020
15.710,0.016
15.715,0.022
15.720,0.033
15.725,0.038
15.730,0.022
15.735,-0.008
15.740,-0.026
15.745,-0.033
15.750,-0.032
15.755,-0.031
15.760,-0.037
15.765,-0.046
15.770,-0.079
15.775,-0.109
15.780,-0.094
15.785,-0.065
15.790,-0.058
15.795,-0.062
15.800,-0.054
15.805,-0.029
15.810,0.001
15.815,0.020
15.820,0.043
15.825,0.071
15.830,0.077
15.835,0.072
15.840,0.083
15.845,0.086
15.850,0.082
15.855,0.085
15.860,0.087
15.865,0.080
15.870,0.064
15.875,0.054
15.880,0.053
15.885,0.058
15.890,0.075
15.895,0.124
15.900,0.180
15.905,0.167
15.910,0.019
15.915,-0.335
15.920,-0.909
15.925,-1.539
15.930,-1.890
15.935,-1.823
15.940,-1.328
15.945,-0.521
15.950,0.201
15.955,0.666
15.960,0.849
15.965,0.796
15.970,0.676
15.975,0.527
15.980,0.390
15.985,0.330
15.990,0.315
15.995,0.279
16.000,0.250
16.005,0.248
16.010,0.233
16.015,0.206
16.020,0.192
16.025,0.182
16.030,0.167
16.035,0.156
16.040,0.142
16.045,0.116
16.050,0.103
16.055,0.098
16.060,0.085
16.065,0.074
16.070,0.066
16.075,0.055
16.080,0.044
16.085,0.033
16.090,0.022
16.095,0.009
16.100,-0.002
16.105,-0.004
16.110,-0.008
16.115,-0.017
16.120,-0.019
16.125,-0.018
16.130,-0.012
16.135,-0.006
16.140,-0.001
16.145,0.005
16.150,0.008
16.155,0.003
16.160,-0.008
16.165,-0.019
16.170,-0.038
16.175,-0.054
16.180,-0.060
16.185,-0.062
16.190,-0.053
16.195,-0.040
16.200,-0.019
16.205,0.003
16.210,0.017
16.215,0.022
16.220,0.026
16.225,0.036
16.230,0.044
16.235,0.053
16.240,0.056
16.245,0.039
16.250,0.025
16.255,0.024
16.260,0.030
16.265,0.036
16.270,0.033
16.275,0.026
16.280,0.022
16.285,0.019
16.290,0.024
16.295,0.032
16.300,0.036
16.305,0.035
16.310,0.025
16.315,0.019
16.320,0.021
16.325,0.035
16.330,0.050
16.335,0.013
16.340,-0.043
16.345,-0.040
16.350,-0.009
16.355,-0.001
16.360,0.006
16.365,0.023
16.370,0.014
16.375,-0.011
16.380,-0.027
16.385,-0.031
16.390,-0.044
16.395,-0.083
16.400,-0.091
16.405,-0.041
16.410,-0.016
16.415,-0.042
16.420,-0.079
16.425,-0.104
16.430,-0.050
16.435,0.076
16.440,0.145
16.445,0.116
16.450,0.065
16.455,0.103
16.460,0.173
16.465,0.154
16.470,0.103
16.475,0.077
16.480,0.079
16.485,0.132
16.490,0.152
16.495,0.132
16.500,0.118
16.505,0.107
16.510,0.132
16.515,0.161
16.520,0.167
16.525,0.108
16.530,-0.147
16.535,-0.691
16.540,-1.410
16.545,-1.907
16.550,-1.958
16.555,-1.594
16.560,-0.877
16.565,-0.104
16.570,0.451
16.575,0.712
16.580,0.730
16.585,0.633
16.590,0.493
16.595,0.348
16.600,0.295
16.605,0.387
16.610,0.403
16.615,0.237
16.620,0.149
16.625,0.208
16.630,0.222
16.635,0.198
16.640,0.215
16.645,0.226
16.650,0.223
16.655,0.126
16.660,0.016
16.665,0.054
16.670,0.063
16.675,0.070
16.680,0.099
16.685,0.030
16.690,-0.064
16.695,-0.075
16.700,0.043
16.705,0.144
16.710,0.098
16.715,-0.016
16.720,-0.063
16.725,-0.024
16.730,-0.012
16.735,-0.035
16.740,-0.036
16.745,-0.069
16.750,-0.081
16.755,0.001
16.760,0.055
16.765,0.034
16.770,-0.004
16.775,-0.028
16.780,-0.039
16.785,-0.051
16.790,-0.055
16.795,-0.031
16.800,0.005
16.805,-0.009
16.810,-0.029
16.815,0.005
16.820,0.016
16.825,-0.010
16.830,0.011
16.835,0.041
16.840,0.034
16.845,0.055
16.850,0.063
16.855,0.025
16.860,0.017
16.865,0.032
16.870,0.044
16.875,0.019
16.880,-0.028
16.885,-0.036
16.890,-0.020
16.895,0.001
16.900,0.007
16.905,-0.002
16.910,-0.004
16.915,-0.026
16.920,-0.039
16.925,0.005
16.930,0.029
16.935,0.040
16.940,0.040
16.945,0.008
16.950,0.035
16.955,0.083
16.960,0.078
16.965,0.049
16.970,0.017
16.975,0.023
16.980,0.033
16.985,0.013
16.990,0.000
16.995,-0.019
17.000,-0.026
17.005,-0.036
17.010,-0.064
17.015,-0.069
17.020,-0.090
17.025,-0.102
17.030,-0.060
17.035,-0.022
17.040,0.009
17.045,0.058
17.050,0.086
17.055,0.085
17.060,0.079
17.065,0.083
17.070,0.106
17.075,0.129
17.080,0.140
17.085,0.139
17.090,0.099
17.095,0.032
17.100,-0.002
17.105,0.028
17.110,0.125
17.115,0.159
17.120,0.110
17.125,0.112
17.130,0.161
17.135,0.260
17.140,0.321
17.145,0.213
17.150,-0.095
17.155,-0.626
17.160,-1.262
17.165,-1.777
17.170,-1.930
17.175,-1.503
17.180,-0.672
17.185,0.130
17.190,0.656
17.195,0.856
17.200,0.867
17.205,0.775
17.210,0.595
17.215,0.437
17.220,0.361
17.225,0.342
17.230,0.339
17.235,0.320
17.240,0.273
17.245,0.205
17.250,0.216
17.255,0.291
17.260,0.300
17.265,0.255
17.270,0.211
17.275,0.186
17.280,0.167
17.285,0.142
17.290,0.114
17.295,0.096
17.300,0.087
17.305,0.042
17.310,0.005
17.315,0.007
17.320,0.040
17.325,0.076
17.330,0.042
17.335,-0.007
17.340,-0.004
17.345,0.000
17.350,-0.010
17.355,-0.028
17.360,-0.056
17.365,-0.085
17.370,-0.088
17.375,-0.036
17.380,0.002
17.385,-0.021
17.390,-0.065
17.395,-0.077
17.400,-0.057
17.405,-0.071
17.410,-0.107
17.415,-0.129
17.420,-0.145
17.425,-0.117
17.430,-0.063
17.435,-0.044
17.440,-0.048
17.445,-0.063
17.450,-0.063
17.455,-0.025
17.460,-0.008
17.465,-0.030
17.470,-0.051
17.475,-0.091
17.480,-0.091
17.485,0.012
17.490,0.093
17.495,0.105
17.500,0.098
17.505,0.070
17.510,0.058
17.515,0.049
17.520,0.009
17.525,-0.010
17.530,-0.005
17.535,-0.016
17.540,-0.020
17.545,-0.013
17.550,-0.024
17.555,-0.035
17.560,-0.037
17.565,-0.047
17.570,-0.028
17.575,0.002
17.580,-0.007
17.585,-0.034
17.590,-0.057
17.595,-0.067
17.600,-0.078
17.605,-0.111
17.610,-0.133
17.615,-0.157
17.620,-0.176
17.625,-0.137
17.630,-0.084
17.635,-0.051
17.640,-0.051
17.645,-0.068
17.650,-0.051
17.655,-0.030
17.660,-0.018
17.665,0.008
17.670,0.029
17.675,0.020
17.680,0.019
17.685,0.028
17.690,0.008
17.695,-0.014
17.700,0.001
17.705,0.062
17.710,0.091
17.715,0.047
17.720,-0.017
17.725,-0.026
17.730,0.046
17.735,0.107
17.740,0.151
17.745,0.180
17.750,0.140
17.755,-0.037
17.760,-0.477
17.765,-1.089
17.770,-1.683
17.775,-2.059
17.780,-1.948
17.785,-1.295
17.790,-0.389
17.795,0.358
17.800,0.756
17.805,0.834
17.810,0.737
17.815,0.568
17.820,0.391
17.825,0.304
17.830,0.298
17.835,0.282
17.840,0.252
17.845,0.246
17.850,0.237
17.855,0.210
17.860,0.189
17.865,0.171
17.870,0.149
17.875,0.120
17.880,0.089
17.885,0.086
17.890,0.095
17.895,0.090
17.900,0.061
17.905,0.037
17.910,0.037
17.915,0.021
17.920,-0.005
17.925,0.005
17.930,0.075
17.935,0.099
17.940,0.039
17.945,-0.004
17.950,0.003
17.955,0.014
17.960,-0.003
17.965,-0.032
17.970,-0.038
17.975,-0.031
17.980,-0.027
17.985,0.003
17.990,0.027
17.995,0.003
18.000,-0.030
18.005,-0.044
18.010,-0.049
18.015,-0.064
18.020,-0.073
18.025,-0.053
18.030,-0.041
18.035,-0.035
18.040,-0.029
18.045,-0.026
18.050,-0.003
18.055,0.022
18.060,0.043
18.065,0.052
18.070,0.040
18.075,0.022
18.080,0.019
18.085,0.035
18.090,0.042
18.095,0.037
18.100,0.019
18.105,0.002
18.110,0.002
18.115,0.003
18.120,-0.020
18.125,-0.045
18.130,-0.018
18.135,0.049
18.140,0.070
18.145,0.033
18.150,0.001
18.155,0.005
18.160,0.030
18.165,0.052
18.170,0.052
18.175,0.033
18.180,-0.009
18.185,-0.056
18.190,-0.046
18.195,0.002
18.200,0.029
18.205,0.019
18.210,-0.019
18.215,-0.039
18.220,-0.039
18.225,-0.044
18.230,-0.063
18.235,-0.104
18.240,-0.130
18.245,-0.127
18.250,-0.096
18.255,-0.049
18.260,-0.039
18.265,-0.054
18.270,-0.058
18.275,-0.045
18.280,-0.001
18.285,0.104
18.290,0.177
18.295,0.147
18.300,0.102
18.305,0.095
18.310,0.118
18.315,0.129
18.320,0.103
18.325,0.091
18.330,0.099
18.335,0.079
18.340,0.060
18.345,0.061
18.350,0.063
18.355,0.105
18.360,0.186
18.365,0.213
18.370,0.116
18.375,-0.163
18.380,-0.681
18.385,-1.340
18.390,-1.847
18.395,-1.948
18.400,-1.552
18.405,-0.766
18.410,0.045
18.415,0.598
18.420,0.838
18.425,0.817
18.430,0.676
18.435,0.526
18.440,0.398
18.445,0.322
18.450,0.310
18.455,0.285
18.460,0.242
18.465,0.217
18.470,0.204
18.475,0.209
18.480,0.202
18.485,0.195
18.490,0.187
18.495,0.150
18.500,0.100
18.505,0.064
18.510,0.088
18.515,0.116
18.520,0.125
18.525,0.144
18.530,0.123
18.535,0.081
18.540,0.032
18.545,0.019
18.550,0.065
18.555,0.078
18.560,0.036
18.565,0.008
18.570,0.031
18.575,0.058
18.580,0.064
18.585,0.043
18.590,0.002
18.595,-0.005
18.600,0.008
18.605,0.012
18.610,0.007
18.615,-0.011
18.620,-0.028
18.625,-0.048
18.630,-0.065
18.635,-0.076
18.640,-0.090
18.645,-0.081
18.650,-0.061
18.655,-0.060
18.660,-0.055
18.665,-0.030
18.670,0.008
18.675,0.036
18.680,0.047
18.685,0.037
18.690,0.021
18.695,0.027
18.700,0.036
18.705,0.043
18.710,0.040
18.715,0.027
18.720,0.031
18.725,0.045
18.730,0.042
18.735,0.028
18.740,0.029
18.745,0.046
18.750,0.059
18.755,0.041
18.760,0.018
18.765,0.010
18.770,0.013
18.775,0.030
18.780,0.041
18.785,0.065
18.790,0.095
18.795,0.092
18.800,0.066
18.805,0.046
18.810,0.028
18.815,0.015
18.820,-0.014
18.825,-0.043
18.830,-0.047
18.835,-0.076
18.840,-0.079
18.845,-0.039
18.850,-0.043
18.855,-0.067
18.860,-0.086
18.865,-0.086
18.870,-0.079
18.875,-0.087
18.880,-0.046
18.885,0.027
18.890,0.064
18.895,0.048
18.900,0.037
18.905,0.092
18.910,0.116
18.915,0.088
18.920,0.080
18.925,0.081
18.930,0.073
18.935,0.061
18.940,0.055
18.945,0.059
18.950,0.062
18.955,0.050
18.960,0.028
18.965,0.032
18.970,0.071
18.975,0.136
18.980,0.187
18.985,0.149
18.990,-0.012
18.995,-0.359
19.000,-0.934
19.005,-1.566
19.010,-1.920
19.015,-1.822
19.020,-1.267
19.025,-0.440
19.030,0.267
19.035,0.710
19.040,0.849
19.045,0.748
19.050,0.605
19.055,0.451
19.060,0.329
19.065,0.295
19.070,0.277
19.075,0.251
19.080,0.237
19.085,0.222
19.090,0.192
19.095,0.156
19.100,0.141
19.105,0.138
19.110,0.151
19.115,0.164
19.120,0.146
19.125,0.136
19.130,0.142
19.135,0.141
19.140,0.119
19.145,0.082
19.150,0.050
19.155,0.025
19.160,0.001
19.165,-0.032
19.170,-0.038
19.175,0.010
19.180,0.055
19.185,0.081
19.190,0.077
19.195,0.044
19.200,0.014
19.205,0.001
19.210,0.001
19.215,-0.002
19.220,0.007
19.225,0.006
19.230,-0.004
19.235,-0.004
19.240,-0.031
19.245,-0.074
19.250,-0.098
19.255,-0.101
19.260,-0.086
19.265,-0.073
19.270,-0.065
19.275,-0.049
19.280,-0.033
19.285,-0.019
19.290,-0.006
19.295,0.010
19.300,0.024
19.305,0.021
19.310,0.011
19.315,0.011
19.320,0.025
19.325,0.031
19.330,0.028
19.335,0.031
19.340,0.039
19.345,0.058
19.350,0.070
19.355,0.066
19.360,0.058
19.365,0.048
19.370,0.040
19.375,0.026
19.380,0.025
19.385,0.042
19.390,0.058
19.395,0.069
19.400,0.054
19.405,0.012
19.410,-0.015
19.415,0.009
19.420,0.055
19.425,0.057
19.430,0.002
19.435,-0.056
19.440,-0.096
19.445,-0.085
19.450,-0.001
19.455,0.044
19.460,0.005
19.465,-0.073
19.470,-0.097
19.475,-0.036
19.480,-0.014
19.485,-0.041
19.490,-0.038
19.495,-0.007
19.500,0.020
19.505,0.028
19.510,0.039
19.515,0.071
19.520,0.090
19.525,0.081
19.530,0.056
19.535,0.041
19.540,0.046
19.545,0.048
19.550,0.051
19.555,0.044
19.560,0.020
19.565,0.031
19.570,0.060
19.575,0.085
19.580,0.107
19.585,0.122
19.590,0.165
19.595,0.181
19.600,0.109
19.605,-0.113
19.610,-0.602
19.615,-1.296
19.620,-1.838
19.625,-1.926
19.630,-1.522
19.635,-0.756
19.640,0.026
19.645,0.569
19.650,0.823
19.655,0.799
19.660,0.654
19.665,0.508
19.670,0.385
19.675,0.328
19.680,0.319
19.685,0.288
19.690,0.255
19.695,0.241
19.700,0.213
19.705,0.186
19.710,0.185
19.715,0.182
19.720,0.135
19.725,0.088
19.730,0.083
19.735,0.100
19.740,0.094
19.745,0.053
19.750,0.036
19.755,0.016
19.760,-0.025
19.765,-0.054
19.770,-0.071
19.775,-0.070
19.780,-0.071
19.785,-0.079
19.790,-0.074
19.795,-0.071
19.800,-0.071
19.805,-0.062
19.810,-0.053
19.815,-0.059
19.820,-0.072
19.825,-0.067
19.830,-0.062
19.835,-0.058
19.840,-0.045
19.845,-0.079
19.850,-0.119
19.855,-0.107
19.860,-0.106
19.865,-0.130
19.870,-0.150
19.875,-0.139
19.880,-0.059
19.885,0.039
19.890,0.052
19.895,0.037
19.900,0.041
19.905,0.038
19.910,0.060
19.915,0.071
19.920,0.058
19.925,0.059
19.930,0.075
19.935,0.075
19.940,0.053
19.945,0.027
19.950,0.026
19.955,0.044
19.960,0.048
19.965,0.073
19.970,0.113
19.975,0.122
19.980,0.114
19.985,0.096
19.990,0.082
19.995,0.082
20.000,0.076
20.005,0.059
20.010,0.056
20.015,0.060
20.020,0.048
20.025,0.061
20.030,0.082
20.035,0.068
20.040,0.043
20.045,0.010
20.050,-0.018
20.055,-0.017
20.060,-0.012
20.065,-0.023
20.070,-0.033
20.075,-0.057
20.080,-0.098
20.085,-0.112
20.090,-0.086
20.095,-0.049
20.100,0.000
20.105,0.033
20.110,0.034
20.115,0.038
20.120,0.045
20.125,0.070
20.130,0.107
20.135,0.097
20.140,0.075
20.145,0.080
20.150,0.073
20.155,0.087
20.160,0.122
20.165,0.113
20.170,0.095
20.175,0.082
20.180,0.052
20.185,0.054
20.190,0.097
20.195,0.129
20.200,0.168
20.205,0.191
20.210,0.135
20.215,-0.036
20.220,-0.464
20.225,-1.109
20.230,-1.667
20.235,-1.875
20.240,-1.635
20.245,-0.961
20.250,-0.108
20.255,0.524
20.260,0.838
20.265,0.866
20.270,0.710
20.275,0.544
20.280,0.399
20.285,0.315
20.290,0.307
20.295,0.283
20.300,0.245
20.305,0.242
20.310,0.237
20.315,0.219
20.320,0.203
20.325,0.180
20.330,0.166
20.335,0.163
20.340,0.160
20.345,0.148
20.350,0.129
20.355,0.135
20.360,0.133
20.365,0.093
20.370,0.053
20.375,0.054
20.380,0.067
20.385,0.054
20.390,0.032
20.395,-0.012
20.400,-0.032
20.405,-0.013
20.410,-0.021
20.415,-0.025
20.420,-0.023
20.425,-0.027
20.430,-0.015
20.435,-0.017
20.440,-0.023
20.445,-0.035
20.450,-0.071
20.455,-0.076
20.460,-0.063
20.465,-0.078
20.470,-0.118
20.475,-0.167
20.480,-0.173
20.485,-0.155
20.490,-0.160
20.495,-0.153
20.500,-0.141
20.505,-0.132
20.510,-0.097
20.515,-0.066
20.520,-0.038
20.525,-0.016
20.530,-0.022
20.535,-0.021
20.540,-0.015
20.545,-0.028
20.550,-0.037
20.555,-0.038
20.560,-0.040
20.565,-0.029
20.570,-0.020
20.575,-0.024
20.580,-0.028
20.585,-0.030
20.590,0.005
20.595,0.055
20.600,0.051
20.605,0.021
20.610,-0.007
20.615,0.001
20.620,0.025
20.625,0.021
20.630,0.027
20.635,0.031
20.640,0.023
20.645,0.021
20.650,0.002
20.655,-0.013
20.660,-0.034
20.665,-0.058
20.670,-0.051
20.675,-0.035
20.680,-0.062
20.685,-0.114
20.690,-0.114
20.695,-0.079
20.700,-0.045
20.705,-0.025
20.710,-0.004
20.715,0.005
20.720,-0.039
20.725,-0.044
20.730,0.055
20.735,0.138
20.740,0.151
20.745,0.130
20.750,0.103
20.755,0.094
20.760,0.049
20.765,0.074
20.770,0.144
20.775,0.111
20.780,0.070
20.785,0.066
20.790,0.094
20.795,0.136
20.800,0.152
20.805,0.195
20.810,0.232
20.815,0.166
20.820,-0.065
20.825,-0.554
20.830,-1.188
20.835,-1.660
20.840,-1.773
20.845,-1.498
20.850,-0.844
20.855,-0.026
20.860,0.561
20.865,0.838
20.870,0.858
20.875,0.708
20.880,0.564
20.885,0.433
20.890,0.323
20.895,0.305
20.900,0.305
20.905,0.281
20.910,0.272
20.915,0.236
20.920,0.176
20.925,0.182
20.930,0.210
20.935,0.159
20.940,0.125
20.945,0.139
20.950,0.122
20.955,0.126
20.960,0.119
20.965,0.076
20.970,0.081
20.975,0.114
20.980,0.108
20.985,0.076
20.990,0.040
20.995,0.026
21.000,0.023
21.005,-0.009
21.010,-0.013
21.015,-0.035
21.020,-0.083
21.025,-0.093
21.030,-0.077
21.035,-0.028
21.040,-0.025
21.045,-0.071
21.050,-0.072
21.055,-0.055
21.060,-0.054
21.065,-0.064
21.070,-0.085
21.075,-0.101
21.080,-0.099
21.085,-0.091
21.090,-0.095
21.095,-0.095
21.100,-0.080
21.105,-0.051
21.110,-0.002
21.115,0.025
21.120,0.018
21.125,0.013
21.130,0.025
21.135,0.046
21.140,0.054
21.145,0.023
21.150,-0.016
21.155,0.022
21.160,0.124
21.165,0.166
21.170,0.129
21.175,0.103
21.180,0.107
21.185,0.119
21.190,0.117
21.195,0.093
21.200,0.092
21.205,0.102
21.210,0.072
21.215,0.057
21.220,0.093
21.225,0.092
21.230,0.059
21.235,0.089
21.240,0.093
21.245,0.053
21.250,0.089
21.255,0.072
21.260,-0.004
21.265,0.040
21.270,0.104
21.275,0.099
21.280,0.075
21.285,-0.006
21.290,-0.014
21.295,0.077
21.300,0.069
21.305,0.037
21.310,0.051
21.315,0.044
21.320,0.107
21.325,0.221
21.330,0.245
21.335,0.201
21.340,0.170
21.345,0.143
21.350,0.147
21.355,0.175
21.360,0.177
21.365,0.168
21.370,0.134
21.375,0.098
21.380,0.097
21.385,0.089
21.390,0.064
21.395,0.053
21.400,0.081
21.405,0.147
21.410,0.166
21.415,0.058
21.420,-0.209
21.425,-0.676
21.430,-1.282
21.435,-1.812
21.440,-1.996
21.445,-1.683
21.450,-0.964
21.455,-0.155
21.460,0.432
21.465,0.727
21.470,0.754
21.475,0.615
21.480,0.451
21.485,0.319
21.490,0.245
21.495,0.221
21.500,0.205
21.505,0.179
21.510,0.159
21.515,0.137
21.520,0.113
21.525,0.116
21.530,0.119
21.535,0.097
21.540,0.076
21.545,0.064
21.550,0.050
21.555,0.030
21.560,0.011
21.565,0.014
21.570,0.024
21.575,0.012
21.580,-0.022
21.585,-0.052
21.590,-0.062
21.595,-0.056
21.600,-0.053
21.605,-0.064
21.610,-0.079
21.615,-0.088
21.620,-0.087
21.625,-0.077
21.630,-0.074
21.635,-0.076
21.640,-0.071
21.645,-0.066
21.650,-0.068
21.655,-0.071
21.660,-0.081
21.665,-0.101
21.670,-0.120
21.675,-0.125
21.680,-0.124
21.685,-0.115
21.690,-0.096
21.695,-0.073
21.700,-0.048
21.705,-0.024
21.710,0.001
21.715,0.021
21.720,0.036
21.725,0.052
21.730,0.056
21.735,0.057
21.740,0.058
21.745,0.062
21.750,0.077
21.755,0.082
21.760,0.074
21.765,0.062
21.770,0.058
21.775,0.061
21.780,0.066
21.785,0.065
21.790,0.061
21.795,0.065
21.800,0.067
21.805,0.064
21.810,0.066
21.815,0.064
21.820,0.059
21.825,0.058
21.830,0.057
21.835,0.049
21.840,0.028
21.845,0.003
21.850,-0.019
21.855,-0.030
21.860,-0.033
21.865,-0.038
21.870,-0.042
21.875,-0.067
21.880,-0.108
21.885,-0.107
21.890,-0.075
21.895,-0.054
21.900,-0.055
21.905,-0.058
21.910,-0.038
21.915,-0.004
21.920,0.011
21.925,0.023
21.930,0.048
21.935,0.064
21.940,0.066
21.945,0.061
21.950,0.061
21.955,0.057
21.960,0.044
21.965,0.051
21.970,0.059
21.975,0.050
21.980,0.035
21.985,0.025
21.990,0.030
21.995,0.045
22.000,0.087
22.005,0.126
22.010,0.090
22.015,-0.078
22.020,-0.466
22.025,-1.048
22.030,-1.619
22.035,-1.888
22.040,-1.710
22.045,-1.097
22.050,-0.275
22.055,0.374
22.060,0.743
22.065,0.840
22.070,0.733
22.075,0.578
22.080,0.416
22.085,0.301
22.090,0.274
22.095,0.266
22.100,0.238
22.105,0.225
22.110,0.210
22.115,0.177
22.120,0.163
22.125,0.160
22.130,0.141
22.135,0.122
22.140,0.111
22.145,0.108
22.150,0.100
22.155,0.082
22.160,0.069
22.165,0.060
22.170,0.055
22.175,0.057
22.180,0.047
22.185,0.030
22.190,0.022
22.195,0.016
22.200,0.008
22.205,0.005
22.210,0.000
22.215,-0.007
22.220,-0.001
22.225,0.009
22.230,0.015
22.235,0.017
22.240,0.016
22.245,0.022
22.250,0.023
22.255,0.005
22.260,-0.020
22.265,-0.048
22.270,-0.071
22.275,-0.076
22.280,-0.080
22.285,-0.081
22.290,-0.065
22.295,-0.045
22.300,-0.014
22.305,0.014
22.310,0.023
22.315,0.032
22.320,0.036
22.325,0.039
22.330,0.049
22.335,0.046
22.340,0.035
22.345,0.035
22.350,0.040
22.355,0.046
22.360,0.053
22.365,0.055
22.370,0.051
22.375,0.043
22.380,0.032
22.385,0.030
22.390,0.034
22.395,0.030
22.400,0.031
22.405,0.037
22.410,0.032
22.415,0.022
22.420,0.015
22.425,0.020
22.430,0.011
22.435,-0.009
22.440,-0.023
22.445,-0.031
22.450,-0.028
22.455,-0.039
22.460,-0.056
22.465,-0.061
22.470,-0.085
22.475,-0.098
22.480,-0.080
22.485,-0.075
22.490,-0.080
22.495,-0.078
22.500,-0.062
22.505,-0.025
22.510,0.007
22.515,0.031
22.520,0.064
22.525,0.081
22.530,0.078
22.535,0.083
22.540,0.083
22.545,0.080
22.550,0.086
22.555,0.084
22.560,0.072
22.565,0.061
22.570,0.056
22.575,0.060
22.580,0.065
22.585,0.080
22.590,0.131
22.595,0.186
22.600,0.177
22.605,0.046
22.610,-0.289
22.615,-0.853
22.620,-1.471
22.625,-1.791
22.630,-1.702
22.635,-1.209
22.640,-0.436
22.645,0.225
22.650,0.664
22.655,0.858
22.660,0.815
22.665,0.695
22.670,0.542
22.675,0.406
22.680,0.346
22.685,0.314
22.690,0.274
22.695,0.263
22.700,0.271
22.705,0.248
22.710,0.212
22.715,0.203
22.720,0.203
22.725,0.188
22.730,0.167
22.735,0.151
22.740,0.146
22.745,0.136
22.750,0.118
22.755,0.101
22.760,0.080
22.765,0.071
22.770,0.059
22.775,0.043
22.780,0.049
22.785,0.043
22.790,0.023
22.795,0.015
22.800,0.013
22.805,0.014
22.810,0.013
22.815,0.001
22.820,-0.002
22.825,0.006
22.830,0.015
22.835,0.014
22.840,0.001
22.845,-0.004
22.850,-0.012
22.855,-0.033
22.860,-0.051
22.865,-0.059
22.870,-0.058
22.875,-0.062
22.880,-0.066
22.885,-0.054
22.890,-0.039
22.895,-0.027
22.900,-0.003
22.905,0.026
22.910,0.037
22.915,0.027
22.920,0.023
22.925,0.028
22.930,0.028
22.935,0.026
22.940,0.034
22.945,0.044
22.950,0.041
22.955,0.034
22.960,0.035
22.965,0.033
22.970,0.027
22.975,0.027
22.980,0.025
22.985,0.020
22.990,0.012
22.995,0.003
23.000,0.012
23.005,0.014
23.010,0.002
23.015,-0.008
23.020,-0.014
23.025,-0.020
23.030,-0.038
23.035,-0.051
23.040,-0.054
23.045,-0.056
23.050,-0.057
23.055,-0.079
23.060,-0.095
23.065,-0.072
23.070,-0.064
23.075,-0.079
23.080,-0.077
23.085,-0.062
23.090,-0.033
23.095,0.001
23.100,0.031
23.105,0.067
23.110,0.091
23.115,0.093
23.120,0.087
23.125,0.090
23.130,0.092
23.135,0.085
23.140,0.089
23.145,0.086
23.150,0.072
23.155,0.065
23.160,0.058
23.165,0.059
23.170,0.073
23.175,0.112
23.180,0.169
23.185,0.181
23.190,0.097
23.195,-0.172
23.200,-0.691
23.205,-1.335
23.210,-1.800
23.215,-1.873
23.220,-1.503
23.225,-0.756
23.230,0.037
23.235,0.594
23.240,0.841
23.245,0.808
23.250,0.676
23.255,0.534
23.260,0.397
23.265,0.331
23.270,0.322
23.275,0.297
23.280,0.267
23.285,0.261
23.290,0.249
23.295,0.220
23.300,0.199
23.305,0.185
23.310,0.169
23.315,0.161
23.320,0.153
23.325,0.140
23.330,0.118
23.335,0.104
23.340,0.090
23.345,0.061
23.350,0.042
23.355,0.045
23.360,0.044
23.365,0.034
23.370,0.017
23.375,0.000
23.380,-0.007
23.385,-0.010
23.390,-0.017
23.395,-0.019
23.400,-0.018
23.405,-0.017
23.410,-0.009
23.415,-0.003
23.420,-0.002
23.425,0.004
23.430,0.007
23.435,-0.005
23.440,-0.018
23.445,-0.033
23.450,-0.049
23.455,-0.060
23.460,-0.068
23.465,-0.070
23.470,-0.060
23.475,-0.043
23.480,-0.027
23.485,-0.014
23.490,-0.006
23.495,0.001
23.500,0.010
23.505,0.017
23.510,0.020
23.515,0.027
23.520,0.034
23.525,0.034
23.530,0.032
23.535,0.032
23.540,0.030
23.545,0.030
23.550,0.031
23.555,0.022
23.560,0.014
23.565,0.015
23.570,0.022
23.575,0.028
23.580,0.022
23.585,0.014
23.590,0.014
23.595,0.018
23.600,0.017
23.605,0.003
23.610,-0.017
23.615,-0.037
23.620,-0.047
23.625,-0.050
23.630,-0.052
23.635,-0.053
23.640,-0.068
23.645,-0.101
23.650,-0.100
23.655,-0.065
23.660,-0.050
23.665,-0.057
23.670,-0.056
23.675,-0.037
23.680,-0.009
23.685,0.010
23.690,0.030
23.695,0.064
23.700,0.084
23.705,0.083
23.710,0.081
23.715,0.082
23.720,0.078
23.725,0.080
23.730,0.088
23.735,0.083
23.740,0.074
23.745,0.068
23.750,0.067
23.755,0.068
23.760,0.075
23.765,0.118
23.770,0.177
23.775,0.176
23.780,0.052
23.785,-0.267
23.790,-0.813
23.795,-1.451
23.800,-1.888
23.805,-1.910
23.810,-1.453
23.815,-0.638
23.820,0.143
23.825,0.652
23.830,0.847
23.835,0.786
23.840,0.638
23.845,0.482
23.850,0.360
23.855,0.315
23.860,0.311
23.865,0.286
23.870,0.258
23.875,0.248
23.880,0.229
23.885,0.206
23.890,0.198
23.895,0.182
23.900,0.159
23.905,0.148
23.910,0.139
23.915,0.126
23.920,0.113
23.925,0.101
23.930,0.085
23.935,0.069
23.940,0.060
23.945,0.050
23.950,0.039
23.955,0.027
23.960,0.014
23.965,0.005
23.970,-0.002
23.975,-0.008
23.980,-0.011
23.985,-0.017
23.990,-0.019
23.995,-0.018
24.000,-0.017
24.005,-0.011
24.010,-0.007
24.015,-0.006
24.020,-0.008
24.025,-0.014
24.030,-0.028
24.035,-0.046
24.040,-0.061
24.045,-0.073
24.050,-0.076
24.055,-0.072
24.060,-0.062
24.065,-0.039
24.070,-0.018
24.075,-0.006
24.080,0.005
24.085,0.012
24.090,0.022
24.095,0.028
24.100,0.026
24.105,0.027
24.110,0.027
24.115,0.028
24.120,0.026
24.125,0.021
24.130,0.015
24.135,0.014
24.140,0.017
24.145,0.020
24.150,0.021
24.155,0.020
24.160,0.018
24.165,0.019
24.170,0.023
24.175,0.026
24.180,0.026
24.185,0.026
24.190,0.024
24.195,0.018
24.200,0.011
24.205,-0.002
24.210,-0.018
24.215,-0.032
24.220,-0.040
24.225,-0.043
24.230,-0.048
24.235,-0.054
24.240,-0.074
24.245,-0.089
24.250,-0.068
24.255,-0.048
24.260,-0.052
24.265,-0.058
24.270,-0.050
24.275,-0.027
24.280,0.001
24.285,0.021
24.290,0.052
24.295,0.080
24.300,0.084
24.305,0.081
24.310,0.079
24.315,0.075
24.320,0.072
24.325,0.070
24.330,0.067
24.335,0.060
24.340,0.056
24.345,0.056
24.350,0.059
24.355,0.065
24.360,0.090
24.365,0.148
24.370,0.190
24.375,0.146
24.380,-0.052
24.385,-0.483
24.390,-1.098
24.395,-1.687
24.400,-1.963
24.405,-1.737
24.410,-1.039
24.415,-0.183
24.420,0.449
24.425,0.783
24.430,0.850
24.435,0.744
24.440,0.582
24.445,0.412
24.450,0.317
24.455,0.302
24.460,0.284
24.465,0.251
24.470,0.236
24.475,0.229
24.480,0.209
24.485,0.193
24.490,0.184
24.495,0.165
24.500,0.147
24.505,0.138
24.510,0.123
24.515,0.107
24.520,0.098
24.525,0.089
24.530,0.077
24.535,0.064
24.540,0.053
24.545,0.038
24.550,0.028
24.555,0.022
24.560,0.011
24.565,0.003
24.570,-0.003
24.575,-0.009
24.580,-0.013
24.585,-0.014
24.590,-0.015
24.595,-0.015
24.600,-0.014
24.605,-0.013
24.610,-0.014
24.615,-0.015
24.620,-0.021
24.625,-0.032
24.630,-0.048
24.635,-0.065
24.640,-0.076
24.645,-0.079
24.650,-0.075
24.655,-0.069
24.660,-0.062
24.665,-0.048
24.670,-0.030
24.675,-0.012
24.680,0.002
24.685,0.011
24.690,0.022
24.695,0.029
24.700,0.033
24.705,0.034
24.710,0.033
24.715,0.032
24.720,0.029
24.725,0.026
24.730,0.028
24.735,0.031
24.740,0.032
24.745,0.029
24.750,0.025
24.755,0.025
24.760,0.025
24.765,0.025
24.770,0.026
24.775,0.028
24.780,0.030
24.785,0.031
24.790,0.033
24.795,0.024
24.800,0.012
24.805,-0.002
24.810,-0.017
24.815,-0.028
24.820,-0.035
24.825,-0.039
24.830,-0.047
24.835,-0.057
24.840,-0.077
24.845,-0.101
24.850,-0.089
24.855,-0.061
24.860,-0.057
24.865,-0.059
24.870,-0.053
24.875,-0.035
24.880,-0.009
24.885,0.007
24.890,0.026
24.895,0.060
24.900,0.076
24.905,0.077
24.910,0.078
24.915,0.075
24.920,0.072
24.925,0.072
24.930,0.071
24.935,0.063
24.940,0.058
24.945,0.055
24.950,0.051
24.955,0.050
24.960,0.058
24.965,0.092
24.970,0.142
24.975,0.151
24.980,0.056
24.985,-0.224
24.990,-0.736
24.995,-1.368
25.000,-1.838
25.005,-1.894
25.010,-1.427
25.015,-0.607
25.020,0.136
25.025,0.611
25.030,0.826
25.035,0.822
25.040,0.698
25.045,0.513
25.050,0.365
25.055,0.311
25.060,0.286
25.065,0.247
25.070,0.217
25.075,0.204
25.080,0.184
25.085,0.156
25.090,0.153
25.095,0.164
25.100,0.160
25.105,0.154
25.110,0.142
25.115,0.122
25.120,0.108
25.125,0.090
25.130,0.068
25.135,0.046
25.140,0.033
25.145,0.026
25.150,0.013
25.155,0.005
25.160,0.003
25.165,0.000
25.170,-0.009
25.175,-0.017
25.180,-0.017
25.185,-0.021
25.190,-0.026
25.195,-0.030
25.200,-0.018
25.205,0.011
25.210,0.012
25.215,-0.003
25.220,-0.004
25.225,-0.010
25.230,-0.031
25.235,-0.063
25.240,-0.085
25.245,-0.093
25.250,-0.103
25.255,-0.107
25.260,-0.094
25.265,-0.072
25.270,-0.047
25.275,-0.012
25.280,0.011
25.285,0.018
25.290,0.023
25.295,0.015
25.300,0.023
25.305,0.034
25.310,0.022
25.315,0.020
25.320,0.023
25.325,0.015
25.330,0.013
25.335,0.021
25.340,0.027
25.345,0.031
25.350,0.029
25.355,0.022
25.360,0.018
25.365,0.027
25.370,0.030
25.375,0.026
25.380,0.031
25.385,0.034
25.390,0.035
25.395,0.033
25.400,0.018
25.405,-0.001
25.410,-0.006
25.415,-0.004
25.420,-0.007
25.425,-0.011
25.430,-0.023
25.435,-0.031
25.440,-0.037
25.445,-0.059
25.450,-0.069
25.455,-0.059
25.460,-0.049
25.465,-0.048
25.470,-0.046
25.475,-0.033
25.480,-0.009
25.485,0.015
25.490,0.032
25.495,0.055
25.500,0.076
25.505,0.082
25.510,0.084
25.515,0.083
25.520,0.084
25.525,0.085
25.530,0.083
25.535,0.071
25.540,0.054
25.545,0.048
25.550,0.054
25.555,0.056
25.560,0.057
25.565,0.090
25.570,0.149
25.575,0.175
25.580,0.104
25.585,-0.135
25.590,-0.606
25.595,-1.238
25.600,-1.737
25.605,-1.835
25.610,-1.462
25.615,-0.746
25.620,-0.021
25.625,0.514
25.630,0.803
25.635,0.844
25.640,0.751
25.645,0.600
25.650,0.456
25.655,0.378
25.660,0.342
25.665,0.313
25.670,0.282
25.675,0.262
25.680,0.247
25.685,0.222
25.690,0.206
25.695,0.196
25.700,0.178
25.705,0.163
25.710,0.153
25.715,0.140
25.720,0.128
25.725,0.117
25.730,0.105
25.735,0.092
25.740,0.074
25.745,0.057
25.750,0.043
25.755,0.028
25.760,0.022
25.765,0.025
25.770,0.027
25.775,0.022
25.780,0.002
25.785,-0.007
25.790,0.002
25.795,0.004
25.800,0.004
25.805,0.004
25.810,0.004
25.815,0.002
25.820,0.003
25.825,0.010
25.830,-0.003
25.835,-0.032
25.840,-0.055
25.845,-0.067
25.850,-0.065
25.855,-0.060
25.860,-0.051
25.865,-0.040
25.870,-0.032
25.875,-0.013
25.880,0.008
25.885,0.015
25.890,0.020
25.895,0.027
25.900,0.031
25.905,0.035
25.910,0.034
25.915,0.039
25.920,0.049
25.925,0.045
25.930,0.027
25.935,0.017
25.940,0.018
25.945,0.020
25.950,0.027
25.955,0.024
25.960,0.015
25.965,0.014
25.970,0.012
25.975,0.015
25.980,0.027
25.985,0.027
25.990,0.021
25.995,0.017
26.000,0.012
26.005,0.011
26.010,0.001
26.015,-0.020
26.020,-0.035
26.025,-0.043
26.030,-0.043
26.035,-0.043
26.040,-0.058
26.045,-0.096
26.050,-0.106
26.055,-0.074
26.060,-0.060
26.065,-0.070
26.070,-0.068
26.075,-0.049
26.080,-0.026
26.085,-0.009
26.090,0.015
26.095,0.059
26.100,0.082
26.105,0.073
26.110,0.071
26.115,0.079
26.120,0.084
26.125,0.082
26.130,0.074
26.135,0.072
26.140,0.070
26.145,0.068
26.150,0.066
26.155,0.047
26.160,0.039
26.165,0.081
26.170,0.146
26.175,0.163
26.180,0.075
26.185,-0.189
26.190,-0.703
26.195,-1.359
26.200,-1.826
26.205,-1.882
26.210,-1.518
26.215,-0.798
26.220,-0.012
26.225,0.562
26.230,0.839
26.235,0.814
26.240,0.669
26.245,0.535
26.250,0.410
26.255,0.342
26.260,0.326
26.265,0.296
26.270,0.264
26.275,0.254
26.280,0.241
26.285,0.221
26.290,0.208
26.295,0.197
26.300,0.177
26.305,0.159
26.310,0.155
26.315,0.141
26.320,0.118
26.325,0.105
26.330,0.087
26.335,0.071
26.340,0.069
26.345,0.065
26.350,0.047
26.355,0.023
26.360,0.010
26.365,0.005
26.370,-0.004
26.375,-0.012
26.380,-0.016
26.385,-0.008
26.390,0.002
26.395,-0.006
26.400,-0.006
26.405,0.009
26.410,0.017
26.415,0.022
26.420,0.020
26.425,0.012
26.430,0.007
26.435,-0.009
26.440,-0.027
26.445,-0.037
26.450,-0.047
26.455,-0.049
26.460,-0.043
26.465,-0.034
26.470,-0.013
26.475,0.016
26.480,0.035
26.485,0.043
26.490,0.038
26.495,0.027
26.500,0.030
26.505,0.039
26.510,0.038
26.515,0.036
26.520,0.033
26.525,0.031
26.530,0.028
26.535,0.022
26.540,0.024
26.545,0.031
26.550,0.033
26.555,0.030
26.560,0.023
26.565,0.019
26.570,0.023
26.575,0.021
26.580,0.014
26.585,0.014
26.590,0.023
26.595,0.028
26.600,0.024
26.605,0.011
26.610,-0.005
26.615,-0.016
26.620,-0.029
26.625,-0.037
26.630,-0.037
26.635,-0.044
26.640,-0.048
26.645,-0.064
26.650,-0.093
26.655,-0.089
26.660,-0.074
26.665,-0.075
26.670,-0.073
26.675,-0.056
26.680,-0.029
26.685,0.001
26.690,0.017
26.695,0.038
26.700,0.075
26.705,0.085
26.710,0.077
26.715,0.084
26.720,0.088
26.725,0.082
26.730,0.072
26.735,0.062
26.740,0.064
26.745,0.066
26.750,0.057
26.755,0.044
26.760,0.044
26.765,0.078
26.770,0.142
26.775,0.184
26.780,0.144
26.785,-0.034
26.790,-0.431
26.795,-1.026
26.800,-1.630
26.805,-1.934
26.810,-1.806
26.815,-1.249
26.820,-0.404
26.825,0.322
26.830,0.743
26.835,0.845
26.840,0.726
26.845,0.581
26.850,0.450
26.855,0.349
26.860,0.314
26.865,0.306
26.870,0.275
26.875,0.254
26.880,0.245
26.885,0.218
26.890,0.193
26.895,0.187
26.900,0.178
26.905,0.159
26.910,0.144
26.915,0.134
26.920,0.125
26.925,0.118
26.930,0.103
26.935,0.082
26.940,0.068
26.945,0.055
26.950,0.039
26.955,0.025
26.960,0.015
26.965,0.009
26.970,0.000
26.975,-0.011
26.980,-0.016
26.985,-0.022
26.990,-0.028
26.995,-0.030
27.000,-0.025
27.005,-0.017
27.010,-0.012
27.015,-0.010
27.020,-0.007
27.025,-0.003
27.030,-0.010
27.035,-0.027
27.040,-0.043
27.045,-0.050
27.050,-0.047
27.055,-0.042
27.060,-0.040
27.065,-0.033
27.070,-0.023
27.075,-0.008
27.080,0.009
27.085,0.023
27.090,0.031
27.095,0.031
27.100,0.031
27.105,0.038
27.110,0.043
27.115,0.041
27.120,0.037
27.125,0.034
27.130,0.031
27.135,0.029
27.140,0.030
27.145,0.028
27.150,0.026
27.155,0.025
27.160,0.023
27.165,0.026
27.170,0.029
27.175,0.031
27.180,0.029
27.185,0.024
27.190,0.026
27.195,0.031
27.200,0.036
27.205,0.037
27.210,0.033
27.215,0.027
27.220,0.017
27.225,0.005
27.230,-0.008
27.235,-0.022
27.240,-0.033
27.245,-0.043
27.250,-0.050
27.255,-0.055
27.260,-0.079
27.265,-0.098
27.270,-0.079
27.275,-0.059
27.280,-0.063
27.285,-0.069
27.290,-0.058
27.295,-0.033
27.300,-0.006
27.305,0.013
27.310,0.039
27.315,0.070
27.320,0.073
27.325,0.063
27.330,0.066
27.335,0.070
27.340,0.072
27.345,0.073
27.350,0.065
27.355,0.057
27.360,0.056
27.365,0.055
27.370,0.048
27.375,0.043
27.380,0.062
27.385,0.120
27.390,0.167
27.395,0.128
27.400,-0.049
27.405,-0.438
27.410,-1.018
27.415,-1.614
27.420,-1.939
27.425,-1.792
27.430,-1.166
27.435,-0.312
27.440,0.366
27.445,0.745
27.450,0.843
27.455,0.746
27.460,0.590
27.465,0.427
27.470,0.325
27.475,0.300
27.480,0.288
27.485,0.259
27.490,0.245
27.495,0.238
27.500,0.217
27.505,0.202
27.510,0.193
27.515,0.174
27.520,0.155
27.525,0.146
27.530,0.135
27.535,0.118
27.540,0.105
27.545,0.092
27.550,0.079
27.555,0.068
27.560,0.053
27.565,0.038
27.570,0.024
27.575,0.015
27.580,0.008
27.585,0.000
27.590,-0.004
27.595,-0.007
27.600,-0.011
27.605,-0.013
27.610,-0.015
27.615,-0.015
27.620,-0.014
27.625,-0.012
27.630,-0.007
27.635,-0.004
27.640,-0.002
27.645,-0.005
27.650,-0.019
27.655,-0.037
27.660,-0.053
27.665,-0.059
27.670,-0.054
27.675,-0.044
27.680,-0.037
27.685,-0.029
27.690,-0.014
27.695,0.003
27.700,0.015
27.705,0.023
27.710,0.027
27.715,0.034
27.720,0.039
27.725,0.037
27.730,0.035
27.735,0.035
27.740,0.034
27.745,0.031
27.750,0.029
27.755,0.027
27.760,0.024
27.765,0.024
27.770,0.027
27.775,0.027
27.780,0.024
27.785,0.021
27.790,0.022
27.795,0.022
27.800,0.023
27.805,0.024
27.810,0.024
27.815,0.027
27.820,0.027
27.825,0.025
27.830,0.025
27.835,0.025
27.840,0.023
27.845,0.013
27.850,0.000
27.855,-0.014
27.860,-0.031
27.865,-0.044
27.870,-0.054
27.875,-0.060
27.880,-0.065
27.885,-0.088
27.890,-0.100
27.895,-0.076
27.900,-0.060
27.905,-0.063
27.910,-0.063
27.915,-0.051
27.920,-0.023
27.925,0.001
27.930,0.016
27.935,0.045
27.940,0.072
27.945,0.076
27.950,0.074
27.955,0.074
27.960,0.070
27.965,0.067
27.970,0.065
27.975,0.059
27.980,0.055
27.985,0.054
27.990,0.050
27.995,0.044
28.000,0.046
28.005,0.076
28.010,0.132
28.015,0.166
28.020,0.118
28.025,-0.068
28.030,-0.475
28.035,-1.065
28.040,-1.646
28.045,-1.934
28.050,-1.706
28.055,-1.000
28.060,-0.177
28.065,0.414
28.070,0.738
28.075,0.833
28.080,0.767
28.085,0.611
28.090,0.429
28.095,0.329
28.100,0.305
28.105,0.283
28.110,0.251
28.115,0.236
28.120,0.219
28.125,0.196
28.130,0.186
28.135,0.179
28.140,0.162
28.145,0.145
28.150,0.134
28.155,0.121
28.160,0.110
28.165,0.104
28.170,0.095
28.175,0.080
28.180,0.066
28.185,0.053
28.190,0.042
28.195,0.032
28.200,0.021
28.205,0.008
28.210,-0.003
28.215,-0.011
28.220,-0.019
28.225,-0.025
28.230,-0.026
28.235,-0.021
28.240,-0.011
28.245,-0.005
28.250,0.002
28.255,0.006
28.260,0.002
28.265,-0.004
28.270,-0.016
28.275,-0.035
28.280,-0.059
28.285,-0.078
28.290,-0.085
28.295,-0.084
28.300,-0.076
28.305,-0.063
28.310,-0.047
28.315,-0.030
28.320,-0.014
28.325,-0.001
28.330,0.009
28.335,0.014
28.340,0.023
28.345,0.034
28.350,0.034
28.355,0.031
28.360,0.026
28.365,0.024
28.370,0.029
28.375,0.033
28.380,0.032
28.385,0.025
28.390,0.017
28.395,0.011
28.400,0.007
28.405,0.007
28.410,0.005
28.415,0.011
28.420,0.022
28.425,0.023
28.430,0.018
28.435,0.012
28.440,0.012
28.445,0.017
28.450,0.020
28.455,0.015
28.460,0.004
28.465,-0.005
28.470,-0.017
28.475,-0.027
28.480,-0.036
28.485,-0.046
28.490,-0.059
28.495,-0.068
28.500,-0.069
28.505,-0.083
28.510,-0.114
28.515,-0.111
28.520,-0.082
28.525,-0.071
28.530,-0.067
28.535,-0.059
28.540,-0.039
28.545,-0.012
28.550,0.002
28.555,0.017
28.560,0.048
28.565,0.058
28.570,0.056
28.575,0.062
28.580,0.063
28.585,0.062
28.590,0.066
28.595,0.067
28.600,0.063
28.605,0.058
28.610,0.051
28.615,0.047
28.620,0.048
28.625,0.056
28.630,0.091
28.635,0.148
28.640,0.158
28.645,0.062
28.650,-0.188
28.655,-0.656
28.660,-1.280
28.665,-1.782
28.670,-1.889
28.675,-1.486
28.680,-0.706
28.685,0.045
28.690,0.549
28.695,0.813
28.700,0.844
28.705,0.735
28.710,0.564
28.715,0.402
28.720,0.317
28.725,0.291
28.730,0.270
28.735,0.247
28.740,0.237
28.745,0.215
28.750,0.186
28.755,0.185
28.760,0.185
28.765,0.165
28.770,0.147
28.775,0.134
28.780,0.118
28.785,0.105
28.790,0.097
28.795,0.083
28.800,0.071
28.805,0.072
28.810,0.062
28.815,0.048
28.820,0.036
28.825,0.020
28.830,0.007
28.835,0.001
28.840,-0.003
28.845,-0.011
28.850,-0.009
28.855,-0.004
28.860,-0.002
28.865,0.003
28.870,0.004
28.875,0.007
28.880,0.013
28.885,0.013
28.890,0.008
28.895,-0.008
28.900,-0.038
28.905,-0.061
28.910,-0.065
28.915,-0.053
28.920,-0.040
28.925,-0.038
28.930,-0.036
28.935,-0.024
28.940,-0.007
28.945,0.001
28.950,0.009
28.955,0.020
28.960,0.032
28.965,0.042
28.970,0.042
28.975,0.041
28.980,0.045
28.985,0.046
28.990,0.041
28.995,0.029
29.000,0.024
29.005,0.023
29.010,0.022
29.015,0.024
29.020,0.019
29.025,0.018
29.030,0.017
29.035,0.007
29.040,0.014
29.045,0.027
29.050,0.030
29.055,0.032
29.060,0.028
29.065,0.022
29.070,0.027
29.075,0.026
29.080,0.020
29.085,0.018
29.090,0.012
29.095,0.006
29.100,-0.001
29.105,-0.021
29.110,-0.039
29.115,-0.036
29.120,-0.030
29.125,-0.037
29.130,-0.069
29.135,-0.108
29.140,-0.097
29.145,-0.067
29.150,-0.062
29.155,-0.066
29.160,-0.064
29.165,-0.038
29.170,-0.006
29.175,0.018
29.180,0.038
29.185,0.059
29.190,0.082
29.195,0.089
29.200,0.083
29.205,0.080
29.210,0.077
29.215,0.074
29.220,0.067
29.225,0.060
29.230,0.063
29.235,0.066
29.240,0.055
29.245,0.054
29.250,0.078
29.255,0.118
29.260,0.145
29.265,0.124
29.270,0.013
29.275,-0.287
29.280,-0.829
29.285,-1.462
29.290,-1.834
29.295,-1.788
29.300,-1.329
29.305,-0.563
29.310,0.143
29.315,0.620
29.320,0.833
29.325,0.804
29.330,0.687
29.335,0.531
29.340,0.388
29.345,0.325
29.350,0.317
29.355,0.288
29.360,0.248
29.365,0.239
29.370,0.228
29.375,0.208
29.380,0.201
29.385,0.190
29.390,0.172
29.395,0.156
29.400,0.141
29.405,0.126
29.410,0.112
29.415,0.103
29.420,0.092
29.425,0.082
29.430,0.070
29.435,0.050
29.440,0.036
29.445,0.028
29.450,0.022
29.455,0.018
29.460,0.013
29.465,0.008
29.470,-0.001
29.475,-0.008
29.480,-0.006
29.485,0.000
29.490,0.005
29.495,0.010
29.500,0.011
29.505,0.008
29.510,0.009
29.515,0.015
29.520,0.009
29.525,-0.009
29.530,-0.028
29.535,-0.037
29.540,-0.032
29.545,-0.025
29.550,-0.016
29.555,-0.007
29.560,0.000
29.565,0.011
29.570,0.025
29.575,0.033
29.580,0.040
29.585,0.044
29.590,0.042
29.595,0.039
29.600,0.041
29.605,0.051
29.610,0.059
29.615,0.055
29.620,0.042
29.625,0.033
29.630,0.030
29.635,0.025
29.640,0.023
29.645,0.022
29.650,0.022
29.655,0.021
29.660,0.015
29.665,0.020
29.670,0.033
29.675,0.040
29.680,0.035
29.685,0.027
29.690,0.022
29.695,0.018
29.700,0.019
29.705,0.024
29.710,0.027
29.715,0.022
29.720,0.010
29.725,-0.006
29.730,-0.020
29.735,-0.030
29.740,-0.034
29.745,-0.041
29.750,-0.050
29.755,-0.074
29.760,-0.104
29.765,-0.094
29.770,-0.070
29.775,-0.068
29.780,-0.076
29.785,-0.072
29.790,-0.051
29.795,-0.021
29.800,0.005
29.805,0.033
29.810,0.067
29.815,0.084
29.820,0.082
29.825,0.080
29.830,0.076
29.835,0.071
29.840,0.070
29.845,0.066
29.850,0.061
29.855,0.059
29.860,0.057
29.865,0.052
29.870,0.048
29.875,0.059
29.880,0.105
29.885,0.153
29.890,0.139
29.895,0.009
29.900,-0.319
29.905,-0.867
29.910,-1.485
29.915,-1.877
29.920,-1.858
29.925,-1.385
29.930,-0.586
29.935,0.161
29.940,0.649
29.945,0.837
29.950,0.784
29.955,0.652
29.960,0.502
29.965,0.380
29.970,0.328
29.975,0.311
29.980,0.280
29.985,0.256
29.990,0.251
29.995,0.229
30.000,0.210
30.005,0.209
30.010,0.195
30.015,0.175
30.020,0.165
30.025,0.154
30.030,0.137
30.035,0.118
30.040,0.105
30.045,0.093
30.050,0.079
30.055,0.069
30.060,0.056
30.065,0.043
30.070,0.032
30.075,0.021
30.080,0.009
30.085,-0.007
30.090,-0.015
30.095,-0.021
30.100,-0.026
30.105,-0.027
30.110,-0.027
30.115,-0.021
30.120,-0.010
30.125,-0.003
30.130,0.004
30.135,0.006
30.140,0.004
30.145,-0.004
30.150,-0.018
30.155,-0.027
30.160,-0.032
30.165,-0.035
30.170,-0.035
30.175,-0.029
30.180,-0.017
30.185,-0.004
30.190,0.010
30.195,0.020
30.200,0.029
30.205,0.035
30.210,0.034
30.215,0.034
30.220,0.036
30.225,0.036
30.230,0.038
30.235,0.038
30.240,0.035
30.245,0.029
30.250,0.022
30.255,0.021
30.260,0.020
30.265,0.018
30.270,0.015
30.275,0.013
30.280,0.013
30.285,0.015
30.290,0.021
30.295,0.024
30.300,0.023
30.305,0.020
30.310,0.016
30.315,0.017
30.320,0.021
30.325,0.024
30.330,0.024
30.335,0.022
30.340,0.023
30.345,0.024
30.350,0.021
30.355,0.012
30.360,-0.005
30.365,-0.021
30.370,-0.031
30.375,-0.039
30.380,-0.044
30.385,-0.053
30.390,-0.061
30.395,-0.084
30.400,-0.114
30.405,-0.105
30.410,-0.079
30.415,-0.076
30.420,-0.080
30.425,-0.073
30.430,-0.052
30.435,-0.024
30.440,-0.003
30.445,0.018
30.450,0.053
30.455,0.068
30.460,0.062
30.465,0.059
30.470,0.055
30.475,0.050
30.480,0.051
30.485,0.046
30.490,0.039
30.495,0.039
30.500,0.040
30.505,0.039
30.510,0.038
30.515,0.051
30.520,0.093
30.525,0.138
30.530,0.124
30.535,0.002
30.540,-0.300
30.545,-0.811
30.550,-1.417
30.555,-1.857
30.560,-1.891
30.565,-1.405
30.570,-0.571
30.575,0.174
30.580,0.636
30.585,0.823
30.590,0.799
30.595,0.671
30.600,0.493
30.605,0.354
30.610,0.307
30.615,0.297
30.620,0.270
30.625,0.247
30.630,0.240
30.635,0.220
30.640,0.201
30.645,0.192
30.650,0.174
30.655,0.149
30.660,0.136
30.665,0.128
30.670,0.115
30.675,0.105
30.680,0.100
30.685,0.086
30.690,0.070
30.695,0.058
30.700,0.046
30.705,0.034
30.710,0.022
30.715,0.011
30.720,0.001
30.725,-0.009
30.730,-0.017
30.735,-0.025
30.740,-0.030
30.745,-0.033
30.750,-0.034
30.755,-0.031
30.760,-0.026
30.765,-0.017
30.770,-0.011
30.775,-0.008
30.780,-0.010
30.785,-0.017
30.790,-0.025
30.795,-0.037
30.800,-0.045
30.805,-0.045
30.810,-0.044
30.815,-0.039
30.820,-0.032
30.825,-0.026
30.830,-0.014
30.835,0.002
30.840,0.019
30.845,0.031
30.850,0.038
30.855,0.044
30.860,0.048
30.865,0.049
30.870,0.042
30.875,0.034
30.880,0.032
30.885,0.030
30.890,0.028
30.895,0.020
30.900,0.013
30.905,0.015
30.910,0.016
30.915,0.020
30.920,0.022
30.925,0.017
30.930,0.015
30.935,0.016
30.940,0.018
30.945,0.015
30.950,0.018
30.955,0.021
30.960,0.008
30.965,0.013
30.970,0.022
30.975,0.017
30.980,0.011
30.985,-0.008
30.990,-0.024
30.995,-0.030
31.000,-0.043
31.005,-0.041
31.010,-0.040
31.015,-0.052
31.020,-0.053
31.025,-0.044
31.030,-0.038
31.035,-0.058
31.040,-0.084
31.045,-0.074
31.050,-0.054
31.055,-0.054
31.060,-0.062
31.065,-0.067
31.070,-0.038
31.075,0.011
31.080,0.044
31.085,0.051
31.090,0.044
31.095,0.046
31.100,0.010
31.105,0.002
31.110,0.043
31.115,0.035
31.120,0.053
31.125,0.101
31.130,0.141
31.135,0.184
31.140,0.139
31.145,0.059
31.150,0.053
31.155,0.094
31.160,0.157
31.165,0.182
31.170,0.110
31.175,-0.086
31.180,-0.471
31.185,-1.032
31.190,-1.613
31.195,-1.916
31.200,-1.710
31.205,-1.022
31.210,-0.180
31.215,0.424
31.220,0.749
31.225,0.847
31.230,0.765
31.235,0.601
31.240,0.419
31.245,0.320
31.250,0.292
31.255,0.261
31.260,0.238
31.265,0.238
31.270,0.214
31.275,0.165
31.280,0.154
31.285,0.171
31.290,0.174
31.295,0.167
31.300,0.131
31.305,0.073
31.310,0.071
31.315,0.100
31.320,0.099
31.325,0.068
31.330,0.036
31.335,0.051
31.340,0.058
31.345,0.031
31.350,0.015
31.355,0.002
31.360,-0.007
31.365,-0.017
31.370,-0.028
31.375,-0.014
31.380,0.006
31.385,-0.010
31.390,-0.030
31.395,-0.023
31.400,-0.001
31.405,0.015
31.410,-0.006
31.415,-0.024
31.420,-0.029
31.425,-0.043
31.430,-0.036
31.435,-0.020
31.440,-0.039
31.445,-0.077
31.450,-0.069
31.455,-0.044
31.460,-0.043
31.465,-0.023
31.470,0.023
31.475,0.039
31.480,0.009
31.485,-0.005
31.490,0.023
31.495,0.053
31.500,0.043
31.505,0.048
31.510,0.071
31.515,0.051
31.520,0.031
31.525,0.013
31.530,-0.003
31.535,0.009
31.540,0.036
31.545,0.044
31.550,0.009
31.555,-0.018
31.560,-0.009
31.565,0.006
31.570,0.007
31.575,0.016
31.580,0.038
31.585,0.050
31.590,0.042
31.595,0.038
31.600,0.047
31.605,0.040
31.610,0.034
31.615,0.034
31.620,0.025
31.625,0.003
31.630,-0.021
31.635,-0.023
31.640,-0.028
31.645,-0.039
31.650,-0.049
31.655,-0.092
31.660,-0.113
31.665,-0.092
31.670,-0.097
31.675,-0.089
31.680,-0.089
31.685,-0.105
31.690,-0.086
31.695,-0.080
31.700,-0.065
31.705,-0.018
31.710,0.002
31.715,0.014
31.720,0.033
31.725,0.021
31.730,0.011
31.735,0.022
31.740,0.029
31.745,0.018
31.750,0.009
31.755,0.014
31.760,0.018
31.765,0.007
31.770,-0.004
31.775,0.024
31.780,0.075
31.785,0.115
31.790,0.124
31.795,0.090
31.800,-0.040
31.805,-0.402
31.810,-0.996
31.815,-1.590
31.820,-1.849
31.825,-1.652
31.830,-1.078
31.835,-0.356
31.840,0.222
31.845,0.612
31.850,0.768
31.855,0.728
31.860,0.608
31.865,0.457
31.870,0.362
31.875,0.319
31.880,0.269
31.885,0.226
31.890,0.231
31.895,0.247
31.900,0.223
31.905,0.214
31.910,0.214
31.915,0.191
31.920,0.191
31.925,0.184
31.930,0.166
31.935,0.163
31.940,0.157
31.945,0.144
31.950,0.120
31.955,0.096
31.960,0.085
31.965,0.085
31.970,0.072
31.975,0.052
31.980,0.048
31.985,0.044
31.990,0.034
31.995,0.037
32.000,0.046
32.005,0.037
32.010,0.022
32.015,0.026
32.020,0.033
32.025,0.036
32.030,0.035
32.035,0.036
32.040,0.056
32.045,0.048
32.050,0.000
32.055,-0.036
32.060,-0.037
32.065,-0.030
32.070,-0.041
32.075,-0.052
32.080,-0.047
32.085,-0.037
32.090,-0.027
32.095,0.017
32.100,0.066
32.105,0.048
32.110,0.012
32.115,0.004
32.120,0.008
32.125,0.036
32.130,0.057
32.135,0.061
32.140,0.047
32.145,0.020
32.150,0.002
32.155,0.021
32.160,0.076
32.165,0.064
32.170,0.005
32.175,-0.005
32.180,0.023
32.185,0.077
32.190,0.077
32.195,-0.008
32.200,-0.034
32.205,0.012
32.210,0.038
32.215,0.057
32.220,0.082
32.225,0.087
32.230,0.071
32.235,0.027
32.240,-0.018
32.245,-0.032
32.250,-0.011
32.255,0.016
32.260,0.018
32.265,0.015
32.270,0.000
32.275,-0.027
32.280,-0.028
32.285,-0.007
32.290,0.001
32.295,-0.016
32.300,-0.038
32.305,-0.029
32.310,0.001
32.315,0.018
32.320,0.043
32.325,0.079
32.330,0.092
32.335,0.087
32.340,0.083
32.345,0.094
32.350,0.099
32.355,0.074
32.360,0.048
32.365,0.037
32.370,0.029
32.375,0.050
32.380,0.078
32.385,0.060
32.390,0.052
32.395,0.109
32.400,0.168
32.405,0.167
32.410,0.038
32.415,-0.335
32.420,-0.938
32.425,-1.560
32.430,-1.882
32.435,-1.704
32.440,-1.060
32.445,-0.249
32.450,0.372
32.455,0.746
32.460,0.851
32.465,0.742
32.470,0.575
32.475,0.405
32.480,0.308
32.485,0.285
32.490,0.248
32.495,0.210
32.500,0.215
32.505,0.209
32.510,0.170
32.515,0.157
32.520,0.166
32.525,0.152
32.530,0.140
32.535,0.130
32.540,0.123
32.545,0.109
32.550,0.079
32.555,0.073
32.560,0.067
32.565,0.049
32.570,0.038
32.575,0.027
32.580,0.041
32.585,0.057
32.590,0.016
32.595,-0.048
32.600,-0.081
32.605,-0.079
32.610,-0.053
32.615,-0.045
32.620,-0.051
32.625,-0.044
32.630,-0.031
32.635,-0.014
32.640,-0.004
32.645,0.001
32.650,0.012
32.655,0.016
32.660,-0.004
32.665,-0.025
32.670,-0.007
32.675,0.007
32.680,-0.042
32.685,-0.077
32.690,-0.069
32.695,-0.041
32.700,0.019
32.705,0.019
32.710,-0.019
32.715,-0.010
32.720,0.037
32.725,0.068
32.730,0.039
32.735,0.007
32.740,0.025
32.745,0.069
32.750,0.061
32.755,0.007
32.760,-0.001
32.765,0.038
32.770,0.081
32.775,0.100
32.780,0.064
32.785,0.023
32.790,0.043
32.795,0.078
32.800,0.064
32.805,0.037
32.810,0.026
32.815,0.026
32.820,0.018
32.825,-0.019
32.830,-0.029
32.835,-0.001
32.840,0.015
32.845,-0.014
32.850,-0.046
32.855,-0.052
32.860,-0.046
32.865,-0.039
32.870,-0.073
32.875,-0.101
32.880,-0.066
32.885,-0.025
32.890,-0.029
32.895,-0.033
32.900,-0.010
32.905,-0.016
32.910,-0.024
32.915,0.005
32.920,0.028
32.925,0.061
32.930,0.069
32.935,0.037
32.940,0.045
32.945,0.067
32.950,0.075
32.955,0.072
32.960,0.061
32.965,0.087
32.970,0.106
32.975,0.077
32.980,0.070
32.985,0.072
32.990,0.095
32.995,0.179
33.000,0.250
33.005,0.248
33.010,0.139
33.015,-0.191
33.020,-0.788
33.025,-1.479
33.030,-1.929
33.035,-1.856
33.040,-1.225
33.045,-0.413
33.050,0.198
33.055,0.607
33.060,0.790
33.065,0.751
33.070,0.592
33.075,0.382
33.080,0.259
33.085,0.248
33.090,0.244
33.095,0.243
33.100,0.237
33.105,0.205
33.110,0.169
33.115,0.116
33.120,0.112
33.125,0.130
33.130,0.094
33.135,0.094
33.140,0.114
33.145,0.101
33.150,0.099
33.155,0.041
33.160,-0.017
33.165,0.033
33.170,0.018
33.175,-0.027
33.180,-0.019
33.185,-0.022
33.190,-0.002
33.195,-0.065
33.200,-0.152
33.205,-0.122
33.210,-0.074
33.215,-0.068
33.220,-0.058
33.225,-0.040
33.230,-0.047
33.235,-0.059
33.240,-0.024
33.245,0.029
33.250,0.006
33.255,-0.053
33.260,-0.043
33.265,-0.057
33.270,-0.126
33.275,-0.109
33.280,-0.101
33.285,-0.135
33.290,-0.123
33.295,-0.074
33.300,-0.005
33.305,0.001
33.310,-0.046
33.315,-0.075
33.320,-0.054
33.325,-0.018
33.330,-0.020
33.335,-0.011
33.340,-0.018
33.345,-0.071
33.350,-0.066
33.355,-0.049
33.360,-0.105
33.365,-0.088
33.370,-0.041
33.375,-0.091
33.380,-0.130
33.385,-0.132
33.390,-0.090
33.395,-0.024
33.400,-0.024
33.405,-0.112
33.410,-0.212
33.415,-0.193
33.420,-0.127
33.425,-0.144
33.430,-0.203
33.435,-0.263
33.440,-0.258
33.445,-0.188
33.450,-0.174
33.455,-0.213
33.460,-0.255
33.465,-0.342
33.470,-0.394
33.475,-0.323
33.480,-0.286
33.485,-0.313
33.490,-0.294
33.495,-0.271
33.500,-0.254
33.505,-0.294
33.510,-0.311
33.515,-0.169
33.520,-0.080
33.525,-0.077
33.530,-0.037
33.535,-0.042
33.540,-0.092
33.545,-0.132
33.550,-0.063
33.555,0.058
33.560,0.047
33.565,-0.056
33.570,-0.135
33.575,-0.102
33.580,-0.033
33.585,-0.021
33.590,0.013
33.595,0.025
33.600,-0.036
33.605,-0.116
33.610,-0.361
33.615,-0.844
33.620,-1.184
33.625,-1.204
33.630,-1.109
33.635,-0.843
33.640,-0.410
33.645,0.078
33.650,0.500
33.655,0.621
33.660,0.522
33.665,0.376
33.670,0.176
33.675,0.018
33.680,0.025
33.685,0.044
33.690,-0.092
33.695,-0.168
33.700,-0.046
33.705,0.049
33.710,0.053
33.715,-0.010
33.720,-0.065
33.725,0.016
33.730,0.050
33.735,-0.039
33.740,-0.113
33.745,-0.149
33.750,-0.055
33.755,0.005
33.760,-0.118
33.765,-0.116
33.770,-0.031
33.775,0.001
33.780,-0.016
33.785,-0.117
33.790,-0.129
33.795,-0.101
33.800,-0.073
33.805,0.025
33.810,0.056
33.815,-0.044
33.820,-0.120
33.825,-0.040
33.830,0.077
33.835,0.110
33.840,0.072
33.845,0.043
33.850,0.101
33.855,0.165
33.860,0.083
33.865,-0.012
33.870,0.018
33.875,0.083
33.880,0.112
33.885,0.065
33.890,0.030
33.895,0.088
33.900,0.153
33.905,0.147
33.910,0.113
33.915,0.115
33.920,0.146
33.925,0.212
33.930,0.295
33.935,0.276
33.940,0.228
33.945,0.227
33.950,0.205
33.955,0.243
33.960,0.264
33.965,0.227
33.970,0.232
33.975,0.188
33.980,0.187
33.985,0.271
33.990,0.263
33.995,0.231
34.000,0.219
34.005,0.229
34.010,0.282
34.015,0.315
34.020,0.296
34.025,0.234
34.030,0.206
34.035,0.203
34.040,0.180
34.045,0.185
34.050,0.202
34.055,0.177
34.060,0.143
34.065,0.152
34.070,0.156
34.075,0.185
34.080,0.195
34.085,0.172
34.090,0.229
34.095,0.221
34.100,0.169
34.105,0.206
34.110,0.327
34.115,0.384
34.120,0.276
34.125,0.234
34.130,0.264
34.135,0.301
34.140,0.318
34.145,0.277
34.150,0.270
34.155,0.245
34.160,0.192
34.165,0.181
34.170,0.245
34.175,0.320
34.180,0.387
34.185,0.418
34.190,0.317
34.195,0.162
34.200,-0.153
34.205,-0.534
34.210,-0.666
34.215,-0.646
34.220,-0.560
34.225,-0.409
34.230,-0.120
34.235,0.376
34.240,0.743
34.245,0.807
34.250,0.743
34.255,0.607
34.260,0.442
34.265,0.312
34.270,0.234
34.275,0.206
34.280,0.216
34.285,0.277
34.290,0.274
34.295,0.164
34.300,0.141
34.305,0.178
34.310,0.175
34.315,0.153
34.320,0.119
34.325,0.125
34.330,0.104
34.335,0.069
34.340,0.071
34.345,0.060
34.350,0.078
34.355,0.080
34.360,0.085
34.365,0.092
34.370,0.044
34.375,0.028
34.380,0.019
34.385,-0.035
34.390,0.001
34.395,0.068
34.400,0.036
34.405,0.036
34.410,0.077
34.415,0.096
34.420,0.077
34.425,0.013
34.430,-0.002
34.435,0.042
34.440,0.087
34.445,0.063
34.450,0.007
34.455,-0.004
34.460,-0.028
34.465,-0.013
34.470,-0.022
34.475,-0.089
34.480,-0.049
34.485,0.029
34.490,0.058
34.495,0.023
34.500,-0.015
34.505,0.009
34.510,0.034
34.515,0.011
34.520,-0.026
34.525,0.012
34.530,0.018
34.535,-0.036
34.540,-0.004
34.545,0.045
34.550,0.024
34.555,-0.027
34.560,-0.043
34.565,0.008
34.570,0.059
34.575,0.047
34.580,-0.006
34.585,-0.001
34.590,0.014
34.595,-0.034
34.600,-0.030
34.605,-0.003
34.610,-0.035
34.615,-0.073
34.620,-0.090
34.625,-0.085
34.630,-0.039
34.635,-0.017
34.640,-0.030
34.645,-0.014
34.650,0.008
34.655,0.045
34.660,0.071
34.665,-0.009
34.670,-0.110
34.675,-0.092
34.680,0.001
34.685,0.054
34.690,0.080
34.695,0.059
34.700,0.035
34.705,0.101
34.710,0.179
34.715,0.220
34.720,0.144
34.725,0.026
34.730,0.015
34.735,0.055
34.740,0.077
34.745,0.042
34.750,0.050
34.755,0.140
34.760,0.153
34.765,0.141
34.770,0.191
34.775,0.119
34.780,-0.169
34.785,-0.675
34.790,-1.238
34.795,-1.450
34.800,-1.350
34.805,-1.051
34.810,-0.468
34.815,0.115
34.820,0.528
34.825,0.734
34.830,0.720
34.835,0.560
34.840,0.336
34.845,0.276
34.850,0.295
34.855,0.232
34.860,0.125
34.865,0.090
34.870,0.191
34.875,0.213
34.880,0.139
34.885,0.126
34.890,0.104
34.895,0.020
34.900,-0.008
34.905,0.067
34.910,0.089
34.915,-0.010
34.920,-0.109
34.925,-0.083
34.930,0.065
34.935,0.105
34.940,-0.037
34.945,-0.110
34.950,-0.050
34.955,-0.039
34.960,-0.071
34.965,-0.109
34.970,-0.177
34.975,-0.200
34.980,-0.275
34.985,-0.241
34.990,0.024
34.995,0.075
35.000,-0.047
35.005,-0.044
35.010,-0.011
35.015,0.010
35.020,0.008
35.025,-0.048
35.030,-0.121
35.035,-0.157
35.040,-0.125
35.045,-0.052
35.050,-0.072
35.055,-0.134
35.060,-0.113
35.065,-0.141
35.070,-0.137
35.075,-0.087
35.080,-0.060
35.085,0.015
35.090,0.027
35.095,0.054
35.100,0.110
35.105,0.066
35.110,0.109
35.115,0.187
35.120,0.107
35.125,0.019
35.130,0.048
35.135,0.130
35.140,0.131
35.145,0.014
35.150,-0.055
35.155,0.009
35.160,0.086
35.165,0.092
35.170,0.024
35.175,-0.071
35.180,-0.043
35.185,0.040
35.190,0.011
35.195,-0.021
35.200,-0.031
35.205,-0.062
35.210,-0.083
35.215,-0.121
35.220,-0.143
35.225,-0.098
35.230,-0.077
35.235,-0.065
35.240,-0.042
35.245,-0.103
35.250,-0.164
35.255,-0.099
35.260,0.024
35.265,0.002
35.270,-0.049
35.275,-0.007
35.280,0.058
35.285,0.103
35.290,0.045
35.295,-0.072
35.300,-0.079
35.305,-0.051
35.310,-0.153
35.315,-0.162
35.320,-0.055
35.325,0.007
35.330,0.058
35.335,0.016
35.340,-0.056
35.345,-0.006
35.350,0.048
35.355,0.055
35.360,-0.059
35.365,-0.495
35.370,-1.168
35.375,-1.646
35.380,-1.630
35.385,-1.151
35.390,-0.421
35.395,0.173
35.400,0.515
35.405,0.675
35.410,0.695
35.415,0.644
35.420,0.472
35.425,0.297
35.430,0.255
35.435,0.285
35.440,0.308
35.445,0.248
35.450,0.199
35.455,0.230
35.460,0.249
35.465,0.195
35.470,0.128
35.475,0.136
35.480,0.167
35.485,0.145
35.490,0.050
35.495,0.029
35.500,0.139
35.505,0.172
35.510,0.156
35.515,0.126
35.520,0.076
35.525,0.068
35.530,0.000
35.535,-0.039
35.540,-0.027
35.545,-0.029
35.550,-0.001
35.555,-0.034
35.560,-0.097
35.565,-0.086
35.570,-0.041
35.575,-0.022
35.580,-0.032
35.585,-0.038
35.590,-0.027
35.595,-0.049
35.600,-0.087
35.605,-0.107
35.610,-0.136
35.615,-0.113
35.620,-0.082
35.625,-0.135
35.630,-0.165
35.635,-0.137
35.640,-0.126
35.645,-0.093
35.650,-0.044
35.655,0.013
35.660,0.078
35.665,0.027
35.670,-0.046
35.675,-0.011
35.680,0.022
35.685,0.000
35.690,0.012
35.695,0.047
35.700,0.031
35.705,0.002
35.710,-0.043
35.715,-0.020
35.720,0.088
35.725,0.136
35.730,0.087
35.735,0.006
35.740,0.042
35.745,0.131
35.750,0.065
35.755,-0.057
35.760,-0.047
35.765,-0.009
35.770,-0.034
35.775,-0.066
35.780,-0.078
35.785,-0.051
35.790,-0.066
35.795,-0.092
35.800,-0.035
35.805,0.027
35.810,0.007
35.815,-0.056
35.820,-0.073
35.825,-0.047
35.830,-0.034
35.835,0.004
35.840,0.064
35.845,0.086
35.850,0.094
35.855,0.047
35.860,0.054
35.865,0.173
35.870,0.147
35.875,0.056
35.880,0.066
35.885,0.090
35.890,0.115
35.895,0.100
35.900,0.019
35.905,-0.014
35.910,0.005
35.915,0.068
35.920,0.166
35.925,0.166
35.930,0.071
35.935,-0.097
35.940,-0.499
35.945,-1.210
35.950,-1.806
35.955,-1.878
35.960,-1.480
35.965,-0.704
35.970,0.080
35.975,0.493
35.980,0.666
35.985,0.694
35.990,0.567
35.995,0.435
36.000,0.299
36.005,0.172
36.010,0.163
36.015,0.201
36.020,0.158
36.025,0.053
36.030,0.015
36.035,0.057
36.040,0.094
36.045,0.030
36.050,-0.093
36.055,-0.046
36.060,0.078
36.065,0.030
36.070,-0.074
36.075,-0.057
36.080,0.019
36.085,0.020
36.090,-0.035
36.095,-0.047
36.100,-0.019
36.105,0.004
36.110,0.013
36.115,-0.027
36.120,-0.054
36.125,0.026
36.130,0.072
36.135,0.038
36.140,0.001
36.145,-0.029
36.150,0.001
36.155,-0.034
36.160,-0.083
36.165,0.001
36.170,0.037
36.175,0.027
36.180,0.077
36.185,0.103
36.190,0.091
36.195,0.072
36.200,0.086
36.205,0.152
36.210,0.110
36.215,0.033
36.220,0.095
36.225,0.127
36.230,0.079
36.235,0.067
36.240,0.068
36.245,0.055
36.250,0.068
36.255,0.096
36.260,0.107
36.265,0.064
36.270,0.007
36.275,0.042
36.280,0.118
36.285,0.149
36.290,0.089
36.295,0.055
36.300,0.073
36.305,0.081
36.310,0.087
36.315,0.058
36.320,0.044
36.325,0.001
36.330,-0.059
36.335,-0.064
36.340,-0.046
36.345,-0.009
36.350,-0.010
36.355,-0.029
36.360,-0.046
36.365,-0.101
36.370,-0.084
36.375,0.009
36.380,0.022
36.385,-0.051
36.390,-0.078
36.395,-0.051
36.400,-0.047
36.405,-0.028
36.410,0.011
36.415,0.056
36.420,0.105
36.425,0.104
36.430,0.102
36.435,0.113
36.440,0.085
36.445,0.086
36.450,0.105
36.455,0.068
36.460,0.018
36.465,0.028
36.470,0.077
36.475,0.088
36.480,0.081
36.485,0.106
36.490,0.192
36.495,0.259
36.500,0.152
36.505,-0.129
36.510,-0.644
36.515,-1.300
36.520,-1.768
36.525,-1.793
36.530,-1.260
36.535,-0.461
36.540,0.201
36.545,0.579
36.550,0.707
36.555,0.667
36.560,0.527
36.565,0.343
36.570,0.190
36.575,0.166
36.580,0.193
36.585,0.163
36.590,0.063
36.595,0.012
36.600,0.043
36.605,0.093
36.610,0.130
36.615,0.054
36.620,-0.025
36.625,-0.029
36.630,-0.026
36.635,-0.024
36.640,-0.022
36.645,-0.046
36.650,-0.060
36.655,-0.061
36.660,-0.077
36.665,-0.063
36.670,-0.061
36.675,-0.070
36.680,-0.083
36.685,-0.109
36.690,-0.089
36.695,-0.040
36.700,-0.016
36.705,-0.040
36.710,-0.075
36.715,-0.051
36.720,-0.019
36.725,-0.027
36.730,-0.034
36.735,-0.025
36.740,-0.003
36.745,-0.003
36.750,-0.032
36.755,-0.064
36.760,-0.046
36.765,-0.014
36.770,-0.027
36.775,-0.035
36.780,-0.058
36.785,-0.066
36.790,-0.031
36.795,0.033
36.800,0.082
36.805,0.069
36.810,0.055
36.815,0.067
36.820,0.096
36.825,0.099
36.830,0.072
36.835,0.068
36.840,0.080
36.845,0.060
36.850,0.022
36.855,0.005
36.860,0.025
36.865,0.080
36.870,0.092
36.875,0.045
36.880,0.022
36.885,0.028
36.890,0.027
36.895,-0.005
36.900,-0.040
36.905,-0.013
36.910,0.000
36.915,-0.033
36.920,-0.019
36.925,-0.009
36.930,-0.053
36.935,-0.103
36.940,-0.106
36.945,-0.049
36.950,-0.011
36.955,-0.004
36.960,-0.007
36.965,0.004
36.970,0.041
36.975,0.082
36.980,0.134
36.985,0.136
36.990,0.124
36.995,0.146
37.000,0.145
37.005,0.157
37.010,0.171
37.015,0.149
37.020,0.136
37.025,0.102
37.030,0.053
37.035,0.064
37.040,0.091
37.045,0.108
37.050,0.167
37.055,0.236
37.060,0.279
37.065,0.190
37.070,-0.166
37.075,-0.731
37.080,-1.333
37.085,-1.689
37.090,-1.575
37.095,-0.996
37.100,-0.234
37.105,0.339
37.110,0.635
37.115,0.707
37.120,0.592
37.125,0.416
37.130,0.278
37.135,0.201
37.140,0.182
37.145,0.181
37.150,0.202
37.155,0.214
37.160,0.167
37.165,0.114
37.170,0.100
37.175,0.106
37.180,0.115
37.185,0.113
37.190,0.096
37.195,0.061
37.200,0.060
37.205,0.093
37.210,0.064
37.215,0.007
37.220,-0.026
37.225,-0.016
37.230,0.020
37.235,0.027
37.240,0.030
37.245,0.019
37.250,0.001
37.255,0.002
37.260,0.008
37.265,0.018
37.270,0.026
37.275,0.037
37.280,0.053
37.285,0.035
37.290,0.004
37.295,0.006
37.300,0.016
37.305,0.025
37.310,0.026
37.315,0.019
37.320,0.004
37.325,-0.037
37.330,-0.079
37.335,-0.085
37.340,-0.028
37.345,0.053
37.350,0.067
37.355,0.037
37.360,0.039
37.365,0.081
37.370,0.120
37.375,0.128
37.380,0.139
37.385,0.138
37.390,0.094
37.395,0.080
37.400,0.125
37.405,0.177
37.410,0.190
37.415,0.175
37.420,0.169
37.425,0.164
37.430,0.152
37.435,0.157
37.440,0.170
37.445,0.148
37.450,0.112
37.455,0.104
37.460,0.102
37.465,0.084
37.470,0.071
37.475,0.061
37.480,0.020
37.485,-0.035
37.490,-0.054
37.495,-0.025
37.500,0.024
37.505,0.007
37.510,-0.048
37.515,-0.042
37.520,-0.025
37.525,-0.024
37.530,-0.033
37.535,-0.047
37.540,-0.033
37.545,-0.024
37.550,-0.028
37.555,-0.043
37.560,-0.050
37.565,-0.029
37.570,-0.009
37.575,0.000
37.580,-0.016
37.585,-0.034
37.590,0.002
37.595,0.037
37.600,0.014
37.605,-0.016
37.610,0.037
37.615,0.140
37.620,0.141
37.625,-0.014
37.630,-0.386
37.635,-0.978
37.640,-1.567
37.645,-1.856
37.650,-1.616
37.655,-0.913
37.660,-0.153
37.665,0.397
37.670,0.738
37.675,0.787
37.680,0.600
37.685,0.391
37.690,0.243
37.695,0.179
37.700,0.185
37.705,0.182
37.710,0.171
37.715,0.155
37.720,0.107
37.725,0.073
37.730,0.077
37.735,0.067
37.740,0.045
37.745,0.033
37.750,0.009
37.755,-0.037
37.760,-0.060
37.765,-0.039
37.770,-0.027
37.775,-0.034
37.780,-0.050
37.785,-0.072
37.790,-0.079
37.795,-0.081
37.800,-0.074
37.805,-0.051
37.810,-0.035
37.815,-0.030
37.820,-0.026
37.825,-0.029
37.830,-0.041
37.835,-0.052
37.840,-0.061
37.845,-0.052
37.850,-0.026
37.855,-0.050
37.860,-0.114
37.865,-0.147
37.870,-0.152
37.875,-0.151
37.880,-0.162
37.885,-0.158
37.890,-0.123
37.895,-0.124
37.900,-0.128
37.905,-0.107
37.910,-0.088
37.915,-0.043
37.920,0.025
37.925,0.069
37.930,0.048
37.935,0.034
37.940,0.067
37.945,0.058
37.950,0.035
37.955,0.052
37.960,0.097
37.965,0.143
37.970,0.097
37.975,0.027
37.980,0.063
37.985,0.081
37.990,0.096
37.995,0.166
38.000,0.196
38.005,0.166
38.010,0.094
38.015,0.080
38.020,0.101
38.025,0.055
38.030,0.010
38.035,-0.029
38.040,-0.070
38.045,-0.066
38.050,-0.024
38.055,0.030
38.060,0.093
38.065,0.137
38.070,0.152
38.075,0.171
38.080,0.155
38.085,0.134
38.090,0.135
38.095,0.116
38.100,0.106
38.105,0.086
38.110,0.064
38.115,0.100
38.120,0.121
38.125,0.103
38.130,0.101
38.135,0.155
38.140,0.223
38.145,0.189
38.150,0.130
38.155,0.141
38.160,0.152
38.165,0.203
38.170,0.257
38.175,0.268
38.180,0.177
38.185,-0.193
38.190,-0.753
38.195,-1.335
38.200,-1.725
38.205,-1.699
38.210,-1.199
38.215,-0.399
38.220,0.335
38.225,0.798
38.230,0.947
38.235,0.879
38.240,0.756
38.245,0.608
38.250,0.463
38.255,0.381
38.260,0.372
38.265,0.342
38.270,0.286
38.275,0.308
38.280,0.320
38.285,0.255
38.290,0.229
38.295,0.232
38.300,0.224
38.305,0.207
38.310,0.171
38.315,0.125
38.320,0.098
38.325,0.095
38.330,0.078
38.335,0.091
38.340,0.106
38.345,0.102
38.350,0.141
38.355,0.128
38.360,0.039
38.365,-0.006
38.370,0.030
38.375,0.046
38.380,0.017
38.385,0.001
38.390,-0.014
38.395,-0.004
38.400,0.001
38.405,-0.038
38.410,-0.055
38.415,-0.031
38.420,0.007
38.425,-0.027
38.430,-0.123
38.435,-0.152
38.440,-0.134
38.445,-0.125
38.450,-0.108
38.455,-0.066
38.460,-0.015
38.465,0.022
38.470,0.030
38.475,0.029
38.480,0.044
38.485,0.054
38.490,0.075
38.495,0.099
38.500,0.101
38.505,0.103
38.510,0.120
38.515,0.116
38.520,0.075
38.525,0.051
38.530,0.063
38.535,0.077
38.540,0.090
38.545,0.087
38.550,0.069
38.555,0.070
38.560,0.066
38.565,0.036
38.570,0.013
38.575,0.007
38.580,0.016
38.585,0.021
38.590,0.008
38.595,-0.014
38.600,-0.040
38.605,-0.026
38.610,0.004
38.615,0.009
38.620,-0.007
38.625,-0.023
38.630,0.003
38.635,0.036
38.640,0.050
38.645,0.067
38.650,0.090
38.655,0.114
38.660,0.120
38.665,0.109
38.670,0.105
38.675,0.106
38.680,0.097
38.685,0.083
38.690,0.067
38.695,0.057
38.700,0.068
38.705,0.085
38.710,0.093
38.715,0.104
38.720,0.133
38.725,0.140
38.730,0.066
38.735,-0.166
38.740,-0.641
38.745,-1.282
38.750,-1.835
38.755,-1.907
38.760,-1.323
38.765,-0.507
38.770,0.099
38.775,0.455
38.780,0.643
38.785,0.746
38.790,0.738
38.795,0.592
38.800,0.456
38.805,0.379
38.810,0.296
38.815,0.250
38.820,0.229
38.825,0.196
38.830,0.185
38.835,0.175
38.840,0.148
38.845,0.134
38.850,0.140
38.855,0.133
38.860,0.102
38.865,0.064
38.870,0.040
38.875,0.037
38.880,0.028
38.885,0.013
38.890,0.000
38.895,-0.017
38.900,-0.028
38.905,-0.028
38.910,-0.037
38.915,-0.060
38.920,-0.081
38.925,-0.097
38.930,-0.089
38.935,-0.086
38.940,-0.100
38.945,-0.107
38.950,-0.122
38.955,-0.132
38.960,-0.149
38.965,-0.169
38.970,-0.167
38.975,-0.173
38.980,-0.193
38.985,-0.202
38.990,-0.195
38.995,-0.182
39.000,-0.172
39.005,-0.160
39.010,-0.141
39.015,-0.120
39.020,-0.090
39.025,-0.048
39.030,-0.011
39.035,0.000
39.040,-0.009
39.045,-0.014
39.050,-0.012
39.055,-0.009
39.060,0.003
39.065,0.015
39.070,0.015
39.075,0.000
39.080,-0.014
39.085,-0.006
39.090,0.002
39.095,-0.012
39.100,-0.012
39.105,-0.012
39.110,-0.039
39.115,-0.075
39.120,-0.099
39.125,-0.096
39.130,-0.086
39.135,-0.086
39.140,-0.079
39.145,-0.092
39.150,-0.135
39.155,-0.133
39.160,-0.100
39.165,-0.107
39.170,-0.138
39.175,-0.139
39.180,-0.114
39.185,-0.082
39.190,-0.066
39.195,-0.047
39.200,-0.005
39.205,0.020
39.210,0.024
39.215,0.018
39.220,-0.010
39.225,-0.037
39.230,-0.032
39.235,-0.005
39.240,-0.002
39.245,-0.026
39.250,-0.034
39.255,-0.020
39.260,0.004
39.265,0.051
39.270,0.081
39.275,0.051
39.280,-0.084
39.285,-0.409
39.290,-0.943
39.295,-1.586
39.300,-2.062
39.305,-1.977
39.310,-1.242
39.315,-0.361
39.320,0.229
39.325,0.536
39.330,0.683
39.335,0.753
39.340,0.705
39.345,0.530
39.350,0.398
39.355,0.342
39.360,0.270
39.365,0.230
39.370,0.231
39.375,0.208
39.380,0.183
39.385,0.154
39.390,0.127
39.395,0.129
39.400,0.137
39.405,0.115
39.410,0.082
39.415,0.083
39.420,0.076
39.425,0.055
39.430,0.035
39.435,-0.010
39.440,-0.013
39.445,0.014
39.450,0.010
39.455,0.002
39.460,-0.019
39.465,-0.042
39.470,-0.045
39.475,-0.067
39.480,-0.087
39.485,-0.064
39.490,-0.011
39.495,0.008
39.500,-0.020
39.505,-0.022
39.510,-0.002
39.515,0.003
39.520,-0.014
39.525,-0.039
39.530,-0.028
39.535,-0.003
39.540,-0.006
39.545,-0.026
39.550,-0.049
39.555,-0.063
39.560,-0.055
39.565,-0.034
39.570,-0.003
39.575,0.038
39.580,0.071
39.585,0.069
39.590,0.027
39.595,0.027
39.600,0.076
39.605,0.090
39.610,0.075
39.615,0.048
39.620,0.025
39.625,0.034
39.630,0.054
39.635,0.050
39.640,0.041
39.645,0.032
39.650,0.033
39.655,0.037
39.660,0.003
39.665,-0.012
39.670,-0.015
39.675,-0.058
39.680,-0.070
39.685,-0.012
39.690,0.037
39.695,-0.001
39.700,-0.048
39.705,-0.035
39.710,-0.046
39.715,-0.078
39.720,-0.052
39.725,0.012
39.730,0.044
39.735,0.028
39.740,0.031
39.745,0.077
39.750,0.116
39.755,0.119
39.760,0.112
39.765,0.145
39.770,0.178
39.775,0.137
39.780,0.086
39.785,0.098
39.790,0.134
39.795,0.142
39.800,0.097
39.805,0.060
39.810,0.129
39.815,0.217
39.820,0.205
39.825,0.106
39.830,-0.166
39.835,-0.684
39.840,-1.292
39.845,-1.820
39.850,-1.963
39.855,-1.408
39.860,-0.476
39.865,0.282
39.870,0.667
39.875,0.759
39.880,0.801
39.885,0.771
39.890,0.589
39.895,0.457
39.900,0.419
39.905,0.374
39.910,0.302
39.915,0.260
39.920,0.259
39.925,0.243
39.930,0.224
39.935,0.226
39.940,0.223
39.945,0.186
39.950,0.165
39.955,0.164
39.960,0.150
39.965,0.122
39.970,0.093
39.975,0.098
39.980,0.101
39.985,0.076
39.990,0.057
39.995,0.043
40.000,0.034
40.005,0.032
40.010,0.013
40.015,-0.005
40.020,-0.012
40.025,-0.001
40.030,0.023
40.035,0.018
40.040,0.000
40.045,0.008
40.050,0.031
40.055,0.048
40.060,0.058
40.065,0.049
40.070,0.048
40.075,0.050
40.080,0.033
40.085,0.031
40.090,0.040
40.095,0.039
40.100,0.047
40.105,0.049
40.110,0.034
40.115,0.044
40.120,0.057
40.125,0.064
40.130,0.083
40.135,0.092
40.140,0.103
40.145,0.096
40.150,0.066
40.155,0.063
40.160,0.082
40.165,0.081
40.170,0.062
40.175,0.051
40.180,0.049
40.185,0.046
40.190,0.037
40.195,0.028
40.200,0.022
40.205,0.023
40.210,0.014
40.215,-0.006
40.220,-0.031
40.225,-0.061
40.230,-0.069
40.235,-0.070
40.240,-0.094
40.245,-0.098
40.250,-0.066
40.255,-0.040
40.260,-0.031
40.265,-0.035
40.270,-0.038
40.275,-0.030
40.280,0.006
40.285,0.053
40.290,0.072
40.295,0.073
40.300,0.083
40.305,0.095
40.310,0.097
40.315,0.081
40.320,0.060
40.325,0.079
40.330,0.097
40.335,0.088
40.340,0.080
40.345,0.080
40.350,0.075
40.355,0.086
40.360,0.133
40.365,0.142
40.370,0.060
40.375,-0.184
40.380,-0.662
40.385,-1.259
40.390,-1.802
40.395,-1.983
40.400,-1.522
40.405,-0.668
40.410,0.119
40.415,0.611
40.420,0.777
40.425,0.768
40.430,0.685
40.435,0.530
40.440,0.399
40.445,0.338
40.450,0.289
40.455,0.244
40.460,0.228
40.465,0.226
40.470,0.208
40.475,0.182
40.480,0.158
40.485,0.138
40.490,0.131
40.495,0.112
40.500,0.086
40.505,0.079
40.510,0.067
40.515,0.051
40.520,0.046
40.525,0.038
40.530,0.025
40.535,0.007
40.540,-0.011
40.545,-0.029
40.550,-0.052
40.555,-0.069
40.560,-0.075
40.565,-0.087
40.570,-0.095
40.575,-0.085
40.580,-0.070
40.585,-0.060
40.590,-0.059
40.595,-0.055
40.600,-0.044
40.605,-0.037
40.610,-0.028
40.615,-0.022
40.620,-0.026
40.625,-0.036
40.630,-0.045
40.635,-0.050
40.640,-0.048
40.645,-0.038
40.650,-0.019
40.655,-0.001
40.660,0.017
40.665,0.031
40.670,0.030
40.675,0.019
40.680,0.017
40.685,0.031
40.690,0.053
40.695,0.057
40.700,0.043
40.705,0.026
40.710,0.012
40.715,0.014
40.720,0.021
40.725,0.021
40.730,0.020
40.735,0.016
40.740,0.003
40.745,-0.010
40.750,-0.019
40.755,-0.028
40.760,-0.030
40.765,-0.032
40.770,-0.048
40.775,-0.060
40.780,-0.064
40.785,-0.081
40.790,-0.084
40.795,-0.057
40.800,-0.041
40.805,-0.042
40.810,-0.038
40.815,-0.015
40.820,0.014
40.825,0.024
40.830,0.040
40.835,0.068
40.840,0.093
40.845,0.105
40.850,0.105
40.855,0.112
40.860,0.106
40.865,0.092
40.870,0.093
40.875,0.082
40.880,0.066
40.885,0.067
40.890,0.082
40.895,0.106
40.900,0.144
40.905,0.187
40.910,0.166
40.915,0.031
40.920,-0.292
40.925,-0.848
40.930,-1.492
40.935,-1.994
40.940,-2.016
40.945,-1.406
40.950,-0.514
40.955,0.272
40.960,0.716
40.965,0.815
40.970,0.771
40.975,0.647
40.980,0.500
40.985,0.412
40.990,0.356
40.995,0.314
41.000,0.289
41.005,0.274
41.010,0.255
41.015,0.227
41.020,0.211
41.025,0.209
41.030,0.193
41.035,0.169
41.040,0.153
41.045,0.138
41.050,0.125
41.055,0.108
41.060,0.086
41.065,0.072
41.070,0.056
41.075,0.041
41.080,0.026
41.085,0.004
41.090,-0.010
41.095,-0.017
41.100,-0.024
41.105,-0.031
41.110,-0.045
41.115,-0.054
41.120,-0.058
41.125,-0.061
41.130,-0.056
41.135,-0.047
41.140,-0.039
41.145,-0.030
41.150,-0.022
41.155,-0.017
41.160,-0.019
41.165,-0.022
41.170,-0.026
41.175,-0.030
41.180,-0.035
41.185,-0.040
41.190,-0.040
41.195,-0.031
41.200,-0.011
41.205,0.011
41.210,0.015
41.215,0.019
41.220,0.032
41.225,0.035
41.230,0.030
41.235,0.019
41.240,0.013
41.245,0.021
41.250,0.021
41.255,0.020
41.260,0.026
41.265,0.023
41.270,0.015
41.275,0.006
41.280,0.005
41.285,0.008
41.290,0.007
41.295,0.002
41.300,-0.010
41.305,-0.019
41.310,-0.025
41.315,-0.033
41.320,-0.044
41.325,-0.063
41.330,-0.073
41.335,-0.068
41.340,-0.066
41.345,-0.069
41.350,-0.051
41.355,-0.026
41.360,-0.036
41.365,-0.053
41.370,-0.048
41.375,-0.028
41.380,-0.005
41.385,0.010
41.390,0.045
41.395,0.096
41.400,0.118
41.405,0.113
41.410,0.097
41.415,0.081
41.420,0.081
41.425,0.087
41.430,0.085
41.435,0.075
41.440,0.068
41.445,0.068
41.450,0.070
41.455,0.092
41.460,0.149
41.465,0.184
41.470,0.116
41.475,-0.105
41.480,-0.550
41.485,-1.164
41.490,-1.765
41.495,-2.094
41.500,-1.862
41.505,-1.115
41.510,-0.234
41.515,0.447
41.520,0.772
41.525,0.810
41.530,0.725
41.535,0.585
41.540,0.456
41.545,0.383
41.550,0.341
41.555,0.316
41.560,0.297
41.565,0.279
41.570,0.255
41.575,0.229
41.580,0.214
41.585,0.204
41.590,0.189
41.595,0.173
41.600,0.159
41.605,0.145
41.610,0.128
41.615,0.107
41.620,0.093
41.625,0.083
41.630,0.077
41.635,0.066
41.640,0.046
41.645,0.022
41.650,0.009
41.655,0.001
41.660,-0.011
41.665,-0.021
41.670,-0.035
41.675,-0.048
41.680,-0.045
41.685,-0.042
41.690,-0.035
41.695,-0.025
41.700,-0.021
41.705,-0.018
41.710,-0.019
41.715,-0.021
41.720,-0.023
41.725,-0.025
41.730,-0.030
41.735,-0.040
41.740,-0.040
41.745,-0.032
41.750,-0.038
41.755,-0.042
41.760,-0.036
41.765,-0.019
41.770,0.007
41.775,0.014
41.780,0.013
41.785,0.026
41.790,0.033
41.795,0.026
41.800,0.018
41.805,0.013
41.810,0.014
41.815,0.019
41.820,0.015
41.825,0.012
41.830,0.015
41.835,0.012
41.840,0.012
41.845,0.017
41.850,0.022
41.855,0.023
41.860,0.020
41.865,0.016
41.870,0.014
41.875,0.014
41.880,0.017
41.885,0.011
41.890,-0.007
41.895,-0.024
41.900,-0.035
41.905,-0.039
41.910,-0.043
41.915,-0.039
41.920,-0.037
41.925,-0.064
41.930,-0.088
41.935,-0.071
41.940,-0.041
41.945,-0.037
41.950,-0.050
41.955,-0.044
41.960,-0.016
41.965,0.008
41.970,0.023
41.975,0.047
41.980,0.077
41.985,0.088
41.990,0.085
41.995,0.082
42.000,0.072
42.005,0.065
42.010,0.071
42.015,0.079
42.020,0.079
42.025,0.070
42.030,0.061
42.035,0.059
42.040,0.081
42.045,0.133
42.050,0.167
42.055,0.125
42.060,-0.049
42.065,-0.432
42.070,-1.002
42.075,-1.612
42.080,-2.023
42.085,-1.936
42.090,-1.295
42.095,-0.434
42.100,0.287
42.105,0.693
42.110,0.802
42.115,0.757
42.120,0.624
42.125,0.471
42.130,0.394
42.135,0.366
42.140,0.339
42.145,0.315
42.150,0.301
42.155,0.286
42.160,0.266
42.165,0.253
42.170,0.242
42.175,0.220
42.180,0.196
42.185,0.178
42.190,0.160
42.195,0.142
42.200,0.130
42.205,0.117
42.210,0.101
42.215,0.086
42.220,0.075
42.225,0.060
42.230,0.042
42.235,0.028
42.240,0.023
42.245,0.019
42.250,0.010
42.255,-0.001
42.260,-0.008
42.265,-0.011
42.270,-0.010
42.275,-0.007
42.280,-0.002
42.285,0.003
42.290,0.004
42.295,0.001
42.300,-0.001
42.305,-0.002
42.310,-0.007
42.315,-0.016
42.320,-0.034
42.325,-0.049
42.330,-0.049
42.335,-0.044
42.340,-0.035
42.345,-0.026
42.350,-0.018
42.355,-0.005
42.360,0.007
42.365,0.016
42.370,0.024
42.375,0.027
42.380,0.026
42.385,0.027
42.390,0.027
42.395,0.021
42.400,0.018
42.405,0.020
42.410,0.020
42.415,0.019
42.420,0.015
42.425,0.016
42.430,0.019
42.435,0.014
42.440,0.014
42.445,0.022
42.450,0.024
42.455,0.024
42.460,0.024
42.465,0.026
42.470,0.032
42.475,0.032
42.480,0.033
42.485,0.038
42.490,0.036
42.495,0.030
42.500,0.018
42.505,-0.002
42.510,-0.023
42.515,-0.039
42.520,-0.044
42.525,-0.047
42.530,-0.047
42.535,-0.055
42.540,-0.083
42.545,-0.087
42.550,-0.063
42.555,-0.054
42.560,-0.064
42.565,-0.066
42.570,-0.051
42.575,-0.020
42.580,0.002
42.585,0.020
42.590,0.053
42.595,0.069
42.600,0.066
42.605,0.067
42.610,0.070
42.615,0.070
42.620,0.066
42.625,0.064
42.630,0.062
42.635,0.057
42.640,0.053
42.645,0.052
42.650,0.057
42.655,0.091
42.660,0.138
42.665,0.138
42.670,0.043
42.675,-0.213
42.680,-0.680
42.685,-1.273
42.690,-1.805
42.695,-1.999
42.700,-1.628
42.705,-0.846
42.710,-0.049
42.715,0.497
42.720,0.742
42.725,0.775
42.730,0.685
42.735,0.528
42.740,0.400
42.745,0.349
42.750,0.329
42.755,0.301
42.760,0.280
42.765,0.269
42.770,0.250
42.775,0.232
42.780,0.221
42.785,0.205
42.790,0.188
42.795,0.179
42.800,0.169
42.805,0.154
42.810,0.136
42.815,0.117
42.820,0.103
42.825,0.089
42.830,0.073
42.835,0.058
42.840,0.046
42.845,0.034
42.850,0.022
42.855,0.013
42.860,0.003
42.865,-0.005
42.870,-0.009
42.875,-0.012
42.880,-0.007
42.885,-0.007
42.890,-0.008
42.895,-0.004
42.900,-0.004
42.905,-0.001
42.910,0.000
42.915,-0.005
42.920,-0.013
42.925,-0.028
42.930,-0.046
42.935,-0.055
42.940,-0.054
42.945,-0.052
42.950,-0.048
42.955,-0.040
42.960,-0.032
42.965,-0.021
42.970,-0.011
42.975,-0.007
42.980,-0.001
42.985,0.007
42.990,0.014
42.995,0.019
43.000,0.024
43.005,0.026
43.010,0.028
43.015,0.031
43.020,0.031
43.025,0.029
43.030,0.031
43.035,0.032
43.040,0.033
43.045,0.034
43.050,0.033
43.055,0.034
43.060,0.035
43.065,0.037
43.070,0.043
43.075,0.050
43.080,0.053
43.085,0.051
43.090,0.046
43.095,0.044
43.100,0.049
43.105,0.053
43.110,0.050
43.115,0.048
43.120,0.044
43.125,0.029
43.130,0.007
43.135,-0.015
43.140,-0.032
43.145,-0.042
43.150,-0.048
43.155,-0.052
43.160,-0.063
43.165,-0.090
43.170,-0.097
43.175,-0.067
43.180,-0.047
43.185,-0.057
43.190,-0.063
43.195,-0.051
43.200,-0.024
43.205,0.002
43.210,0.025
43.215,0.060
43.220,0.084
43.225,0.080
43.230,0.073
43.235,0.072
43.240,0.073
43.245,0.072
43.250,0.070
43.255,0.065
43.260,0.059
43.265,0.059
43.270,0.059
43.275,0.063
43.280,0.099
43.285,0.148
43.290,0.147
43.295,0.048
43.300,-0.208
43.305,-0.675
43.310,-1.275
43.315,-1.803
43.320,-1.960
43.325,-1.545
43.330,-0.754
43.335,0.013
43.340,0.520
43.345,0.748
43.350,0.783
43.355,0.691
43.360,0.530
43.365,0.400
43.370,0.344
43.375,0.318
43.380,0.290
43.385,0.271
43.390,0.263
43.395,0.246
43.400,0.228
43.405,0.218
43.410,0.206
43.415,0.190
43.420,0.177
43.425,0.162
43.430,0.145
43.435,0.131
43.440,0.117
43.445,0.101
43.450,0.083
43.455,0.069
43.460,0.055
43.465,0.042
43.470,0.036
43.475,0.024
43.480,0.010
43.485,0.000
43.490,-0.008
43.495,-0.014
43.500,-0.017
43.505,-0.018
43.510,-0.018
43.515,-0.016
43.520,-0.013
43.525,-0.010
43.530,-0.007
43.535,-0.006
43.540,-0.011
43.545,-0.021
43.550,-0.036
43.555,-0.056
43.560,-0.075
43.565,-0.082
43.570,-0.075
43.575,-0.065
43.580,-0.057
43.585,-0.048
43.590,-0.035
43.595,-0.022
43.600,-0.006
43.605,0.013
43.610,0.027
43.615,0.032
43.620,0.031
43.625,0.030
43.630,0.034
43.635,0.037
43.640,0.041
43.645,0.043
43.650,0.039
43.655,0.038
43.660,0.039
43.665,0.037
43.670,0.040
43.675,0.047
43.680,0.055
43.685,0.055
43.690,0.050
43.695,0.048
43.700,0.050
43.705,0.050
43.710,0.045
43.715,0.043
43.720,0.045
43.725,0.046
43.730,0.048
43.735,0.044
43.740,0.030
43.745,0.012
43.750,-0.008
43.755,-0.024
43.760,-0.037
43.765,-0.046
43.770,-0.050
43.775,-0.055
43.780,-0.072
43.785,-0.087
43.790,-0.074
43.795,-0.061
43.800,-0.067
43.805,-0.068
43.810,-0.059
43.815,-0.038
43.820,-0.014
43.825,0.003
43.830,0.032
43.835,0.066
43.840,0.077
43.845,0.077
43.850,0.076
43.855,0.073
43.860,0.067
43.865,0.066
43.870,0.065
43.875,0.059
43.880,0.060
43.885,0.061
43.890,0.066
43.895,0.097
43.900,0.148
43.905,0.159
43.910,0.075
43.915,-0.163
43.920,-0.609
43.925,-1.199
43.930,-1.748
43.935,-1.968
43.940,-1.624
43.945,-0.856
43.950,-0.066
43.955,0.481
43.960,0.746
43.965,0.808
43.970,0.742
43.975,0.583
43.980,0.432
43.985,0.360
43.990,0.329
43.995,0.300
44.000,0.278
44.005,0.264
44.010,0.243
44.015,0.221
44.020,0.210
44.025,0.197
44.030,0.177
44.035,0.162
44.040,0.151
44.045,0.138
44.050,0.125
44.055,0.114
44.060,0.098
44.065,0.084
44.070,0.071
44.075,0.054
44.080,0.040
44.085,0.030
44.090,0.026
44.095,0.019
44.100,0.008
44.105,-0.001
44.110,-0.010
44.115,-0.017
44.120,-0.018
44.125,-0.020
44.130,-0.018
44.135,-0.016
44.140,-0.013
44.145,-0.009
44.150,-0.008
44.155,-0.014
44.160,-0.025
44.165,-0.038
44.170,-0.052
44.175,-0.067
44.180,-0.082
44.185,-0.090
44.190,-0.090
44.195,-0.078
44.200,-0.057
44.205,-0.035
44.210,-0.015
44.215,-0.002
44.220,0.010
44.225,0.021
44.230,0.027
44.235,0.029
44.240,0.029
44.245,0.028
44.250,0.028
44.255,0.034
44.260,0.040
44.265,0.042
44.270,0.043
44.275,0.041
44.280,0.039
44.285,0.036
44.290,0.031
44.295,0.030
44.300,0.033
44.305,0.038
44.310,0.039
44.315,0.040
44.320,0.043
44.325,0.042
44.330,0.037
44.335,0.028
44.340,0.015
44.345,0.001
44.350,-0.012
44.355,-0.023
44.360,-0.028
44.365,-0.029
44.370,-0.036
44.375,-0.046
44.380,-0.063
44.385,-0.085
44.390,-0.079
44.395,-0.055
44.400,-0.053
44.405,-0.060
44.410,-0.060
44.415,-0.048
44.420,-0.021
44.425,0.003
44.430,0.028
44.435,0.063
44.440,0.083
44.445,0.087
44.450,0.086
44.455,0.081
44.460,0.071
44.465,0.070
44.470,0.076
44.475,0.069
44.480,0.056
44.485,0.051
44.490,0.052
44.495,0.082
44.500,0.141
44.505,0.170
44.510,0.114
44.515,-0.077
44.520,-0.496
44.525,-1.104
44.530,-1.693
44.535,-1.966
44.540,-1.713
44.545,-1.006
44.550,-0.190
44.555,0.422
44.560,0.757
44.565,0.842
44.570,0.772
44.575,0.627
44.580,0.467
44.585,0.377
44.590,0.338
44.595,0.301
44.600,0.265
44.605,0.243
44.610,0.227
44.615,0.207
44.620,0.194
44.625,0.185
44.630,0.170
44.635,0.149
44.640,0.134
44.645,0.128
44.650,0.122
44.655,0.112
44.660,0.094
44.665,0.067
44.670,0.044
44.675,0.032
44.680,0.024
44.685,0.014
44.690,0.005
44.695,-0.011
44.700,-0.030
44.705,-0.038
44.710,-0.035
44.715,-0.030
44.720,-0.030
44.725,-0.036
44.730,-0.041
44.735,-0.042
44.740,-0.039
44.745,-0.034
44.750,-0.031
44.755,-0.030
44.760,-0.038
44.765,-0.050
44.770,-0.063
44.775,-0.078
44.780,-0.090
44.785,-0.093
44.790,-0.086
44.795,-0.074
44.800,-0.055
44.805,-0.038
44.810,-0.026
44.815,-0.005
44.820,0.015
44.825,0.018
44.830,0.016
44.835,0.021
44.840,0.031
44.845,0.036
44.850,0.032
44.855,0.026
44.860,0.021
44.865,0.021
44.870,0.022
44.875,0.023
44.880,0.031
44.885,0.038
44.890,0.043
44.895,0.047
44.900,0.044
44.905,0.042
44.910,0.042
44.915,0.043
44.920,0.042
44.925,0.033
44.930,0.027
44.935,0.030
44.940,0.033
44.945,0.025
44.950,0.015
44.955,0.005
44.960,-0.009
44.965,-0.020
44.970,-0.023
44.975,-0.026
44.980,-0.055
44.985,-0.080
44.990,-0.067
44.995,-0.050
45.000,-0.046
45.005,-0.046
45.010,-0.042
45.015,-0.017
45.020,0.014
45.025,0.041
45.030,0.078
45.035,0.097
45.040,0.097
45.045,0.100
45.050,0.101
45.055,0.093
45.060,0.078
45.065,0.074
45.070,0.077
45.075,0.076
45.080,0.080
45.085,0.080
45.090,0.093
45.095,0.142
45.100,0.184
45.105,0.159
45.110,0.017
45.115,-0.325
45.120,-0.874
45.125,-1.492
45.130,-1.876
45.135,-1.820
45.140,-1.292
45.145,-0.490
45.150,0.197
45.155,0.642
45.160,0.828
45.165,0.809
45.170,0.708
45.175,0.548
45.180,0.416
45.185,0.356
45.190,0.327
45.195,0.296
45.200,0.271
45.205,0.258
45.210,0.235
45.215,0.212
45.220,0.205
45.225,0.187
45.230,0.171
45.235,0.166
45.240,0.147
45.245,0.126
45.250,0.111
45.255,0.105
45.260,0.102
45.265,0.085
45.270,0.067
45.275,0.049
45.280,0.029
45.285,0.020
45.290,0.013
45.295,0.000
45.300,-0.010
45.305,-0.007
45.310,-0.009
45.315,-0.014
45.320,-0.009
45.325,-0.010
45.330,-0.008
45.335,-0.001
45.340,-0.005
45.345,-0.013
45.350,-0.019
45.355,-0.020
45.360,-0.022
45.365,-0.037
45.370,-0.063
45.375,-0.082
45.380,-0.083
45.385,-0.074
45.390,-0.054
45.395,-0.034
45.400,-0.024
45.405,-0.019
45.410,-0.008
45.415,0.006
45.420,0.015
45.425,0.021
45.430,0.029
45.435,0.029
45.440,0.032
45.445,0.038
45.450,0.048
45.455,0.053
45.460,0.040
45.465,0.026
45.470,0.022
45.475,0.017
45.480,0.013
45.485,0.023
45.490,0.037
45.495,0.036
45.500,0.028
45.505,0.019
45.510,0.015
45.515,0.023
45.520,0.025
45.525,0.029
45.530,0.033
45.535,0.018
45.540,0.006
45.545,0.005
45.550,-0.003
45.555,-0.014
45.560,-0.026
45.565,-0.039
45.570,-0.056
45.575,-0.090
45.580,-0.108
45.585,-0.078
45.590,-0.049
45.595,-0.041
45.600,-0.038
45.605,-0.035
