'Elapsed time','ECG'
'seconds','mV'
0.000,0.015
0.005,0.045
0.010,0.039
0.015,0.030
0.020,0.032
0.025,0.028
0.030,0.024
0.035,0.021
0.040,0.020
0.045,0.021
0.050,0.017
0.055,0.016
0.060,0.025
0.065,0.023
0.070,0.019
0.075,0.021
0.080,0.017
0.085,0.003
0.090,-0.008
0.095,-0.016
0.100,-0.025
0.105,-0.035
0.110,-0.041
0.115,-0.047
0.120,-0.049
0.125,-0.049
0.130,-0.053
0.135,-0.057
0.140,-0.059
0.145,-0.052
0.150,-0.042
0.155,-0.037
0.160,-0.019
0.165,-0.013
0.170,-0.022
0.175,-0.007
0.180,0.020
0.185,0.036
0.190,0.037
0.195,0.039
0.200,0.058
0.205,0.070
0.210,0.074
0.215,0.084
0.220,0.093
0.225,0.084
0.230,0.066
0.235,0.060
0.240,0.057
0.245,0.049
0.250,0.045
0.255,0.050
0.260,0.051
0.265,0.045
0.270,0.039
0.275,0.034
0.280,0.031
0.285,0.026
0.290,0.026
0.295,0.019
0.300,0.005
0.305,0.003
0.310,-0.016
0.315,-0.110
0.320,-0.360
0.325,-0.793
0.330,-1.219
0.335,-1.296
0.340,-0.858
0.345,-0.179
0.350,0.396
0.355,0.679
0.360,0.637
0.365,0.490
0.370,0.361
0.375,0.259
0.380,0.214
0.385,0.176
0.390,0.141
0.395,0.143
0.400,0.148
0.405,0.128
0.410,0.115
0.415,0.115
0.420,0.104
0.425,0.095
0.430,0.099
0.435,0.082
0.440,0.064
0.445,0.064
0.450,0.059
0.455,0.054
0.460,0.052
0.465,0.044
0.470,0.024
0.475,0.020
0.480,0.033
0.485,0.027
0.490,0.008
0.495,-0.004
0.500,-0.010
0.505,-0.012
0.510,-0.020
0.515,-0.027
0.520,-0.034
0.525,-0.046
0.530,-0.045
0.535,-0.057
0.540,-0.086
0.545,-0.103
0.550,-0.112
0.555,-0.124
0.560,-0.144
0.565,-0.168
0.570,-0.178
0.575,-0.183
0.580,-0.214
0.585,-0.241
0.590,-0.244
0.595,-0.252
0.600,-0.267
0.605,-0.278
0.610,-0.283
0.615,-0.285
0.620,-0.281
0.625,-0.265
0.630,-0.233
0.635,-0.198
0.640,-0.157
0.645,-0.101
0.650,-0.046
0.655,0.003
0.660,0.047
0.665,0.103
0.670,0.169
0.675,0.207
0.680,0.225
0.685,0.240
0.690,0.253
0.695,0.270
0.700,0.277
0.705,0.281
0.710,0.282
0.715,0.278
0.720,0.275
0.725,0.264
0.730,0.259
0.735,0.257
0.740,0.242
0.745,0.233
0.750,0.224
0.755,0.214
0.760,0.196
0.765,0.167
0.770,0.166
0.775,0.187
0.780,0.179
0.785,0.144
0.790,0.125
0.795,0.125
0.800,0.125
0.805,0.114
0.810,0.099
0.815,0.108
0.820,0.111
0.825,0.078
0.830,0.049
0.835,0.050
0.840,0.056
0.845,0.050
0.850,0.042
0.855,0.035
0.860,0.033
0.865,0.034
0.870,0.024
0.875,0.019
0.880,0.020
0.885,0.019
0.890,0.019
0.895,0.018
0.900,0.019
0.905,0.015
0.910,-0.004
0.915,-0.013
0.920,-0.008
0.925,0.004
0.930,0.009
0.935,-0.004
0.940,-0.007
0.945,-0.001
0.950,-0.016
0.955,-0.023
0.960,-0.011
0.965,-0.012
0.970,-0.030
0.975,-0.039
0.980,-0.031
0.985,-0.023
0.990,-0.035
0.995,-0.048
1.000,-0.043
1.005,-0.033
1.010,-0.031
1.015,-0.033
1.020,-0.030
1.025,-0.037
1.030,-0.044
1.035,-0.045
1.040,-0.050
1.045,-0.049
1.050,-0.050
1.055,-0.054
1.060,-0.042
1.065,-0.029
1.070,-0.034
1.075,-0.059
1.080,-0.078
1.085,-0.071
1.090,-0.047
1.095,-0.029
1.100,-0.033
1.105,-0.047
1.110,-0.065
1.115,-0.069
1.120,-0.062
1.125,-0.055
1.130,-0.044
1.135,-0.038
1.140,-0.041
1.145,-0.047
1.150,-0.071
1.155,-0.098
1.160,-0.097
1.165,-0.095
1.170,-0.099
1.175,-0.096
1.180,-0.102
1.185,-0.108
1.190,-0.094
1.195,-0.092
1.200,-0.112
1.205,-0.109
1.210,-0.105
1.215,-0.103
1.220,-0.080
1.225,-0.066
1.230,-0.057
1.235,-0.053
1.240,-0.045
1.245,-0.023
1.250,-0.016
1.255,-0.006
1.260,0.010
1.265,0.025
1.270,0.045
1.275,0.043
1.280,0.044
1.285,0.058
1.290,0.057
1.295,0.044
1.300,0.027
1.305,0.009
1.310,0.017
1.315,0.032
1.320,0.017
1.325,0.001
1.330,0.006
1.335,0.025
1.340,0.034
1.345,0.006
1.350,-0.008
1.355,-0.001
1.360,0.003
1.365,0.002
1.370,-0.014
1.375,-0.032
1.380,-0.110
1.385,-0.348
1.390,-0.773
1.395,-1.234
1.400,-1.370
1.405,-0.975
1.410,-0.307
1.415,0.312
1.420,0.673
1.425,0.665
1.430,0.501
1.435,0.356
1.440,0.262
1.445,0.249
1.450,0.215
1.455,0.155
1.460,0.156
1.465,0.164
1.470,0.147
1.475,0.139
1.480,0.136
1.485,0.129
1.490,0.116
1.495,0.105
1.500,0.096
1.505,0.081
1.510,0.082
1.515,0.091
1.520,0.077
1.525,0.060
1.530,0.064
1.535,0.066
1.540,0.053
1.545,0.041
1.550,0.030
1.555,0.026
1.560,0.030
1.565,0.014
1.570,0.004
1.575,0.006
1.580,-0.004
1.585,-0.016
1.590,-0.022
1.595,-0.030
1.600,-0.044
1.605,-0.061
1.610,-0.077
1.615,-0.089
1.620,-0.099
1.625,-0.117
1.630,-0.140
1.635,-0.157
1.640,-0.177
1.645,-0.193
1.650,-0.203
1.655,-0.227
1.660,-0.250
1.665,-0.264
1.670,-0.272
1.675,-0.274
1.680,-0.275
1.685,-0.268
1.690,-0.252
1.695,-0.230
1.700,-0.199
1.705,-0.157
1.710,-0.104
1.715,-0.044
1.720,0.012
1.725,0.064
1.730,0.119
1.735,0.164
1.740,0.194
1.745,0.224
1.750,0.254
1.755,0.278
1.760,0.289
1.765,0.293
1.770,0.299
1.775,0.299
1.780,0.286
1.785,0.276
1.790,0.276
1.795,0.266
1.800,0.253
1.805,0.249
1.810,0.246
1.815,0.233
1.820,0.218
1.825,0.204
1.830,0.193
1.835,0.188
1.840,0.179
1.845,0.170
1.850,0.160
1.855,0.141
1.860,0.131
1.865,0.131
1.870,0.124
1.875,0.111
1.880,0.099
1.885,0.091
1.890,0.085
1.895,0.077
1.900,0.064
1.905,0.054
1.910,0.053
1.915,0.048
1.920,0.043
1.925,0.038
1.930,0.026
1.935,0.012
1.940,0.004
1.945,0.011
1.950,0.019
1.955,0.020
1.960,0.016
1.965,0.007
1.970,0.001
1.975,0.000
1.980,0.004
1.985,0.005
1.990,-0.002
1.995,-0.009
2.000,-0.013
2.005,-0.013
2.010,-0.015
2.015,-0.016
2.020,-0.012
2.025,-0.010
2.030,-0.010
2.035,-0.013
2.040,-0.019
2.045,-0.025
2.050,-0.029
2.055,-0.031
2.060,-0.034
2.065,-0.033
2.070,-0.029
2.075,-0.031
2.080,-0.039
2.085,-0.040
2.090,-0.038
2.095,-0.035
2.100,-0.034
2.105,-0.041
2.110,-0.051
2.115,-0.052
2.120,-0.044
2.125,-0.041
2.130,-0.041
2.135,-0.041
2.140,-0.042
2.145,-0.043
2.150,-0.047
2.155,-0.047
2.160,-0.048
2.165,-0.055
2.170,-0.056
2.175,-0.051
2.180,-0.047
2.185,-0.045
2.190,-0.045
2.195,-0.048
2.200,-0.049
2.205,-0.049
2.210,-0.048
2.215,-0.048
2.220,-0.045
2.225,-0.042
2.230,-0.045
2.235,-0.047
2.240,-0.045
2.245,-0.044
2.250,-0.047
2.255,-0.062
2.260,-0.078
2.265,-0.087
2.270,-0.092
2.275,-0.092
2.280,-0.096
2.285,-0.113
2.290,-0.119
2.295,-0.104
2.300,-0.093
2.305,-0.089
2.310,-0.083
2.315,-0.082
2.320,-0.078
2.325,-0.067
2.330,-0.053
2.335,-0.044
2.340,-0.046
2.345,-0.039
2.350,-0.018
2.355,-0.002
2.360,0.010
2.365,0.025
2.370,0.041
2.375,0.055
2.380,0.061
2.385,0.063
2.390,0.063
2.395,0.057
2.400,0.051
2.405,0.048
2.410,0.043
2.415,0.039
2.420,0.035
2.425,0.028
2.430,0.027
2.435,0.031
2.440,0.029
2.445,0.019
2.450,0.008
2.455,0.006
2.460,0.009
2.465,0.005
2.470,-0.008
2.475,-0.019
2.480,-0.034
2.485,-0.101
2.490,-0.290
2.495,-0.646
2.500,-1.086
2.505,-1.308
2.510,-1.025
2.515,-0.381
2.520,0.245
2.525,0.620
2.530,0.668
2.535,0.536
2.540,0.381
2.545,0.251
2.550,0.198
2.555,0.187
2.560,0.159
2.565,0.142
2.570,0.144
2.575,0.130
2.580,0.113
2.585,0.112
2.590,0.107
2.595,0.101
2.600,0.101
2.605,0.094
2.610,0.078
2.615,0.070
2.620,0.070
2.625,0.063
2.630,0.055
2.635,0.051
2.640,0.048
2.645,0.041
2.650,0.035
2.655,0.031
2.660,0.024
2.665,0.016
2.670,0.011
2.675,0.004
2.680,-0.005
2.685,-0.012
2.690,-0.020
2.695,-0.030
2.700,-0.039
2.705,-0.047
2.710,-0.057
2.715,-0.072
2.720,-0.087
2.725,-0.099
2.730,-0.111
2.735,-0.129
2.740,-0.151
2.745,-0.169
2.750,-0.185
2.755,-0.203
2.760,-0.220
2.765,-0.234
2.770,-0.247
2.775,-0.258
2.780,-0.266
2.785,-0.267
2.790,-0.263
2.795,-0.248
2.800,-0.227
2.805,-0.203
2.810,-0.169
2.815,-0.125
2.820,-0.079
2.825,-0.027
2.830,0.028
2.835,0.083
2.840,0.133
2.845,0.172
2.850,0.206
2.855,0.238
2.860,0.261
2.865,0.275
2.870,0.284
2.875,0.290
2.880,0.291
2.885,0.286
2.890,0.281
2.895,0.275
2.900,0.267
2.905,0.259
2.910,0.250
2.915,0.242
2.920,0.232
2.925,0.220
2.930,0.212
2.935,0.204
2.940,0.193
2.945,0.184
2.950,0.175
2.955,0.164
2.960,0.154
2.965,0.147
2.970,0.137
2.975,0.126
2.980,0.115
2.985,0.109
2.990,0.104
2.995,0.094
3.000,0.080
3.005,0.067
3.010,0.062
3.015,0.061
3.020,0.059
3.025,0.052
3.030,0.041
3.035,0.033
3.040,0.028
3.045,0.021
3.050,0.018
3.055,0.019
3.060,0.015
3.065,0.009
3.070,0.004
3.075,0.003
3.080,0.005
3.085,0.005
3.090,0.000
3.095,-0.002
3.100,-0.003
3.105,-0.008
3.110,-0.013
3.115,-0.017
3.120,-0.020
3.125,-0.020
3.130,-0.022
3.135,-0.024
3.140,-0.023
3.145,-0.023
3.150,-0.025
3.155,-0.027
3.160,-0.029
3.165,-0.032
3.170,-0.033
3.175,-0.034
3.180,-0.035
3.185,-0.036
3.190,-0.040
3.195,-0.043
3.200,-0.043
3.205,-0.042
3.210,-0.044
3.215,-0.047
3.220,-0.048
3.225,-0.050
3.230,-0.052
3.235,-0.053
3.240,-0.052
3.245,-0.051
3.250,-0.052
3.255,-0.054
3.260,-0.054
3.265,-0.054
3.270,-0.053
3.275,-0.051
3.280,-0.050
3.285,-0.048
3.290,-0.049
3.295,-0.052
3.300,-0.054
3.305,-0.055
3.310,-0.052
3.315,-0.049
3.320,-0.048
3.325,-0.046
3.330,-0.045
3.335,-0.043
3.340,-0.042
3.345,-0.042
3.350,-0.046
3.355,-0.050
3.360,-0.048
3.365,-0.045
3.370,-0.046
3.375,-0.053
3.380,-0.068
3.385,-0.082
3.390,-0.092
3.395,-0.100
3.400,-0.104
3.405,-0.112
3.410,-0.114
3.415,-0.104
3.420,-0.095
3.425,-0.094
3.430,-0.093
3.435,-0.090
3.440,-0.084
3.445,-0.067
3.450,-0.047
3.455,-0.035
3.460,-0.033
3.465,-0.035
3.470,-0.024
3.475,-0.007
3.480,0.008
3.485,0.024
3.490,0.040
3.495,0.052
3.500,0.057
3.505,0.062
3.510,0.064
3.515,0.060
3.520,0.055
3.525,0.051
3.530,0.045
3.535,0.040
3.540,0.040
3.545,0.039
3.550,0.035
3.555,0.027
3.560,0.021
3.565,0.019
3.570,0.015
3.575,0.011
3.580,0.012
3.585,0.011
3.590,-0.002
3.595,-0.021
3.600,-0.034
3.605,-0.067
3.610,-0.191
3.615,-0.458
3.620,-0.855
3.625,-1.168
3.630,-1.070
3.635,-0.539
3.640,0.095
3.645,0.532
3.650,0.662
3.655,0.560
3.660,0.399
3.665,0.254
3.670,0.176
3.675,0.163
3.680,0.141
3.685,0.113
3.690,0.112
3.695,0.113
3.700,0.095
3.705,0.086
3.710,0.085
3.715,0.075
3.720,0.067
3.725,0.066
3.730,0.061
3.735,0.054
3.740,0.051
3.745,0.049
3.750,0.045
3.755,0.040
3.760,0.037
3.765,0.031
3.770,0.021
3.775,0.012
3.780,0.004
3.785,-0.001
3.790,-0.003
3.795,-0.005
3.800,-0.009
3.805,-0.015
3.810,-0.023
3.815,-0.033
3.820,-0.043
3.825,-0.051
3.830,-0.063
3.835,-0.077
3.840,-0.089
3.845,-0.101
3.850,-0.112
3.855,-0.126
3.860,-0.144
3.865,-0.161
3.870,-0.177
3.875,-0.195
3.880,-0.213
3.885,-0.229
3.890,-0.243
3.895,-0.253
3.900,-0.260
3.905,-0.261
3.910,-0.254
3.915,-0.245
3.920,-0.232
3.925,-0.211
3.930,-0.180
3.935,-0.139
3.940,-0.095
3.945,-0.048
3.950,0.001
3.955,0.050
3.960,0.098
3.965,0.142
3.970,0.181
3.975,0.213
3.980,0.236
3.985,0.252
3.990,0.260
3.995,0.266
4.000,0.270
4.005,0.270
4.010,0.270
4.015,0.268
4.020,0.263
4.025,0.254
4.030,0.244
4.035,0.234
4.040,0.226
4.045,0.218
4.050,0.207
4.055,0.196
4.060,0.188
4.065,0.181
4.070,0.172
4.075,0.162
4.080,0.151
4.085,0.140
4.090,0.132
4.095,0.124
4.100,0.116
4.105,0.106
4.110,0.098
4.115,0.091
4.120,0.084
4.125,0.076
4.130,0.068
4.135,0.064
4.140,0.058
4.145,0.049
4.150,0.042
4.155,0.037
4.160,0.033
4.165,0.029
4.170,0.025
4.175,0.021
4.180,0.017
4.185,0.011
4.190,0.008
4.195,0.006
4.200,0.006
4.205,0.004
4.210,0.002
4.215,0.001
4.220,0.000
4.225,-0.001
4.230,-0.003
4.235,-0.006
4.240,-0.010
4.245,-0.013
4.250,-0.014
4.255,-0.015
4.260,-0.015
4.265,-0.016
4.270,-0.018
4.275,-0.020
4.280,-0.022
4.285,-0.023
4.290,-0.024
4.295,-0.026
4.300,-0.029
4.305,-0.033
4.310,-0.034
4.315,-0.034
4.320,-0.033
4.325,-0.035
4.330,-0.040
4.335,-0.042
4.340,-0.041
4.345,-0.039
4.350,-0.039
4.355,-0.042
4.360,-0.044
4.365,-0.045
4.370,-0.045
4.375,-0.046
4.380,-0.047
4.385,-0.049
4.390,-0.049
4.395,-0.046
4.400,-0.045
4.405,-0.046
4.410,-0.048
4.415,-0.050
4.420,-0.048
4.425,-0.047
4.430,-0.049
4.435,-0.049
4.440,-0.050
4.445,-0.050
4.450,-0.048
4.455,-0.046
4.460,-0.046
4.465,-0.046
4.470,-0.048
4.475,-0.049
4.480,-0.047
4.485,-0.047
4.490,-0.050
4.495,-0.059
4.500,-0.073
4.505,-0.086
4.510,-0.098
4.515,-0.105
4.520,-0.107
4.525,-0.111
4.530,-0.109
4.535,-0.100
4.540,-0.097
4.545,-0.099
4.550,-0.098
4.555,-0.092
4.560,-0.077
4.565,-0.057
4.570,-0.045
4.575,-0.041
4.580,-0.039
4.585,-0.030
4.590,-0.012
4.595,0.002
4.600,0.013
4.605,0.028
4.610,0.045
4.615,0.054
4.620,0.059
4.625,0.063
4.630,0.063
4.635,0.056
4.640,0.051
4.645,0.050
4.650,0.047
4.655,0.043
4.660,0.041
4.665,0.039
4.670,0.034
4.675,0.029
4.680,0.023
4.685,0.018
4.690,0.013
4.695,0.012
4.700,0.011
4.705,0.002
4.710,-0.018
4.715,-0.032
4.720,-0.048
4.725,-0.131
4.730,-0.345
4.735,-0.705
4.740,-1.060
4.745,-1.094
4.750,-0.671
4.755,-0.052
4.760,0.441
4.765,0.650
4.770,0.591
4.775,0.440
4.780,0.291
4.785,0.188
4.790,0.157
4.795,0.140
4.800,0.112
4.805,0.106
4.810,0.110
4.815,0.097
4.820,0.086
4.825,0.085
4.830,0.077
4.835,0.069
4.840,0.068
4.845,0.063
4.850,0.054
4.855,0.050
4.860,0.048
4.865,0.043
4.870,0.036
4.875,0.032
4.880,0.027
4.885,0.021
4.890,0.017
4.895,0.012
4.900,0.005
4.905,-0.001
4.910,-0.006
4.915,-0.013
4.920,-0.020
4.925,-0.028
4.930,-0.035
4.935,-0.039
4.940,-0.046
4.945,-0.056
4.950,-0.066
4.955,-0.079
4.960,-0.094
4.965,-0.108
4.970,-0.122
4.975,-0.137
4.980,-0.154
4.985,-0.172
4.990,-0.188
4.995,-0.203
5.000,-0.217
5.005,-0.227
5.010,-0.236
5.015,-0.245
5.020,-0.249
5.025,-0.247
5.030,-0.241
5.035,-0.227
5.040,-0.206
5.045,-0.177
5.050,-0.142
5.055,-0.102
5.060,-0.055
5.065,-0.003
5.070,0.046
5.075,0.094
5.080,0.139
5.085,0.176
5.090,0.204
5.095,0.228
5.100,0.248
5.105,0.264
5.110,0.274
5.115,0.277
5.120,0.276
5.125,0.273
5.130,0.271
5.135,0.267
5.140,0.260
5.145,0.251
5.150,0.240
5.155,0.230
5.160,0.219
5.165,0.209
5.170,0.201
5.175,0.191
5.180,0.180
5.185,0.170
5.190,0.161
5.195,0.152
5.200,0.143
5.205,0.135
5.210,0.127
5.215,0.118
5.220,0.112
5.225,0.104
5.230,0.094
5.235,0.084
5.240,0.075
5.245,0.068
5.250,0.062
5.255,0.054
5.260,0.049
5.265,0.044
5.270,0.038
5.275,0.034
5.280,0.030
5.285,0.025
5.290,0.020
5.295,0.016
5.300,0.016
5.305,0.015
5.310,0.012
5.315,0.007
5.320,0.006
5.325,0.005
5.330,0.002
5.335,-0.001
5.340,-0.004
5.345,-0.006
5.350,-0.009
5.355,-0.010
5.360,-0.010
5.365,-0.009
5.370,-0.011
5.375,-0.014
5.380,-0.016
5.385,-0.019
5.390,-0.025
5.395,-0.028
5.400,-0.029
5.405,-0.032
5.410,-0.033
5.415,-0.034
5.420,-0.034
5.425,-0.032
5.430,-0.033
5.435,-0.034
5.440,-0.036
5.445,-0.038
5.450,-0.041
5.455,-0.043
5.460,-0.044
5.465,-0.044
5.470,-0.044
5.475,-0.045
5.480,-0.044
5.485,-0.044
5.490,-0.045
5.495,-0.046
5.500,-0.048
5.505,-0.049
5.510,-0.049
5.515,-0.047
5.520,-0.047
5.525,-0.048
5.530,-0.049
5.535,-0.046
5.540,-0.044
5.545,-0.043
5.550,-0.045
5.555,-0.049
5.560,-0.052
5.565,-0.052
5.570,-0.049
5.575,-0.045
5.580,-0.044
5.585,-0.044
5.590,-0.045
5.595,-0.045
5.600,-0.046
5.605,-0.055
5.610,-0.069
5.615,-0.083
5.620,-0.094
5.625,-0.099
5.630,-0.103
5.635,-0.108
5.640,-0.110
5.645,-0.102
5.650,-0.095
5.655,-0.094
5.660,-0.092
5.665,-0.091
5.670,-0.085
5.675,-0.070
5.680,-0.053
5.685,-0.044
5.690,-0.042
5.695,-0.035
5.700,-0.017
5.705,-0.002
5.710,0.008
5.715,0.020
5.720,0.035
5.725,0.045
5.730,0.052
5.735,0.059
5.740,0.061
5.745,0.055
5.750,0.047
5.755,0.044
5.760,0.045
5.765,0.042
5.770,0.038
5.775,0.036
5.780,0.029
5.785,0.023
5.790,0.020
5.795,0.013
5.800,0.008
5.805,0.009
5.810,0.009
5.815,0.001
5.820,-0.018
5.825,-0.032
5.830,-0.043
5.835,-0.118
5.840,-0.320
5.845,-0.665
5.850,-1.022
5.855,-1.087
5.860,-0.703
5.865,-0.098
5.870,0.409
5.875,0.643
5.880,0.595
5.885,0.445
5.890,0.296
5.895,0.188
5.900,0.154
5.905,0.133
5.910,0.107
5.915,0.100
5.920,0.099
5.925,0.085
5.930,0.076
5.935,0.077
5.940,0.071
5.945,0.062
5.950,0.057
5.955,0.050
5.960,0.044
5.965,0.043
5.970,0.040
5.975,0.033
5.980,0.027
5.985,0.025
5.990,0.021
5.995,0.015
6.000,0.011
6.005,0.005
6.010,-0.001
6.015,-0.005
6.020,-0.009
6.025,-0.015
6.030,-0.021
6.035,-0.027
6.040,-0.034
6.045,-0.044
6.050,-0.054
6.055,-0.064
6.060,-0.071
6.065,-0.082
6.070,-0.097
6.075,-0.112
6.080,-0.126
6.085,-0.139
6.090,-0.155
6.095,-0.171
6.100,-0.185
6.105,-0.198
6.110,-0.209
6.115,-0.220
6.120,-0.231
6.125,-0.240
6.130,-0.245
6.135,-0.244
6.140,-0.239
6.145,-0.225
6.150,-0.205
6.155,-0.178
6.160,-0.143
6.165,-0.102
6.170,-0.056
6.175,-0.007
6.180,0.041
6.185,0.088
6.190,0.131
6.195,0.167
6.200,0.198
6.205,0.224
6.210,0.245
6.215,0.259
6.220,0.269
6.225,0.273
6.230,0.272
6.235,0.270
6.240,0.267
6.245,0.262
6.250,0.256
6.255,0.250
6.260,0.243
6.265,0.231
6.270,0.222
6.275,0.214
6.280,0.203
6.285,0.189
6.290,0.176
6.295,0.165
6.300,0.159
6.305,0.151
6.310,0.141
6.315,0.132
6.320,0.123
6.325,0.113
6.330,0.108
6.335,0.100
6.340,0.090
6.345,0.083
6.350,0.076
6.355,0.069
6.360,0.060
6.365,0.051
6.370,0.047
6.375,0.046
6.380,0.042
6.385,0.039
6.390,0.037
6.395,0.031
6.400,0.022
6.405,0.017
6.410,0.017
6.415,0.020
6.420,0.020
6.425,0.018
6.430,0.013
6.435,0.010
6.440,0.009
6.445,0.007
6.450,0.004
6.455,0.001
6.460,-0.001
6.465,-0.002
6.470,-0.006
6.475,-0.010
6.480,-0.012
6.485,-0.014
6.490,-0.016
6.495,-0.017
6.500,-0.016
6.505,-0.018
6.510,-0.019
6.515,-0.020
6.520,-0.024
6.525,-0.028
6.530,-0.030
6.535,-0.034
6.540,-0.040
6.545,-0.045
6.550,-0.046
6.555,-0.037
6.560,-0.026
6.565,-0.030
6.570,-0.043
6.575,-0.050
6.580,-0.046
6.585,-0.039
6.590,-0.040
6.595,-0.045
6.600,-0.050
6.605,-0.053
6.610,-0.047
6.615,-0.041
6.620,-0.042
6.625,-0.046
6.630,-0.048
6.635,-0.046
6.640,-0.043
6.645,-0.044
6.650,-0.046
6.655,-0.048
6.660,-0.052
6.665,-0.053
6.670,-0.045
6.675,-0.041
6.680,-0.043
6.685,-0.042
6.690,-0.042
6.695,-0.041
6.700,-0.037
6.705,-0.040
6.710,-0.045
6.715,-0.050
6.720,-0.067
6.725,-0.084
6.730,-0.095
6.735,-0.094
6.740,-0.093
6.745,-0.102
6.750,-0.103
6.755,-0.095
6.760,-0.089
6.765,-0.095
6.770,-0.108
6.775,-0.107
6.780,-0.089
6.785,-0.063
6.790,-0.040
6.795,-0.037
6.800,-0.040
6.805,-0.029
6.810,-0.013
6.815,0.001
6.820,0.012
6.825,0.023
6.830,0.035
6.835,0.046
6.840,0.053
6.845,0.061
6.850,0.061
6.855,0.050
6.860,0.047
6.865,0.053
6.870,0.051
6.875,0.043
6.880,0.037
6.885,0.036
6.890,0.035
6.895,0.027
6.900,0.022
6.905,0.018
6.910,0.015
6.915,0.017
6.920,0.014
6.925,0.002
6.930,-0.006
6.935,-0.001
6.940,-0.023
6.945,-0.157
6.950,-0.456
6.955,-0.863
6.960,-1.135
6.965,-0.997
6.970,-0.477
6.975,0.125
6.980,0.551
6.985,0.669
6.990,0.558
6.995,0.405
7.000,0.269
7.005,0.186
7.010,0.155
7.015,0.115
7.020,0.095
7.025,0.109
7.030,0.103
7.035,0.086
7.040,0.078
7.045,0.068
7.050,0.058
7.055,0.054
7.060,0.050
7.065,0.042
7.070,0.043
7.075,0.048
7.080,0.041
7.085,0.033
7.090,0.029
7.095,0.024
7.100,0.018
7.105,0.008
7.110,0.003
7.115,0.004
7.120,-0.003
7.125,-0.016
7.130,-0.024
7.135,-0.025
7.140,-0.021
7.145,-0.024
7.150,-0.036
7.155,-0.051
7.160,-0.066
7.165,-0.074
7.170,-0.082
7.175,-0.095
7.180,-0.107
7.185,-0.121
7.190,-0.138
7.195,-0.154
7.200,-0.174
7.205,-0.194
7.210,-0.208
7.215,-0.220
7.220,-0.229
7.225,-0.238
7.230,-0.248
7.235,-0.258
7.240,-0.261
7.245,-0.254
7.250,-0.245
7.255,-0.230
7.260,-0.207
7.265,-0.182
7.270,-0.144
7.275,-0.094
7.280,-0.037
7.285,0.021
7.290,0.071
7.295,0.109
7.300,0.151
7.305,0.194
7.310,0.223
7.315,0.244
7.320,0.259
7.325,0.274
7.330,0.286
7.335,0.289
7.340,0.294
7.345,0.295
7.350,0.283
7.355,0.266
7.360,0.254
7.365,0.248
7.370,0.243
7.375,0.235
7.380,0.228
7.385,0.215
7.390,0.196
7.395,0.190
7.400,0.187
7.405,0.171
7.410,0.155
7.415,0.145
7.420,0.143
7.425,0.143
7.430,0.135
7.435,0.123
7.440,0.112
7.445,0.104
7.450,0.088
7.455,0.074
7.460,0.072
7.465,0.069
7.470,0.067
7.475,0.065
7.480,0.057
7.485,0.058
7.490,0.056
7.495,0.043
7.500,0.032
7.505,0.025
7.510,0.026
7.515,0.027
7.520,0.028
7.525,0.031
7.530,0.029
7.535,0.028
7.540,0.019
7.545,0.005
7.550,0.002
7.555,0.000
7.560,-0.002
7.565,-0.002
7.570,0.000
7.575,0.005
7.580,0.003
7.585,-0.009
7.590,-0.012
7.595,-0.009
7.600,-0.014
7.605,-0.025
7.610,-0.037
7.615,-0.035
7.620,-0.018
7.625,-0.016
7.630,-0.030
7.635,-0.036
7.640,-0.034
7.645,-0.033
7.650,-0.033
7.655,-0.037
7.660,-0.038
7.665,-0.047
7.670,-0.059
7.675,-0.054
7.680,-0.042
7.685,-0.038
7.690,-0.038
7.695,-0.045
7.700,-0.050
7.705,-0.053
7.710,-0.056
7.715,-0.050
7.720,-0.047
7.725,-0.045
7.730,-0.046
7.735,-0.057
7.740,-0.057
7.745,-0.050
7.750,-0.045
7.755,-0.040
7.760,-0.046
7.765,-0.051
7.770,-0.051
7.775,-0.057
7.780,-0.057
7.785,-0.044
7.790,-0.040
7.795,-0.041
7.800,-0.049
7.805,-0.061
7.810,-0.061
7.815,-0.065
7.820,-0.072
7.825,-0.081
7.830,-0.093
7.835,-0.097
7.840,-0.106
7.845,-0.115
7.850,-0.105
7.855,-0.098
7.860,-0.100
7.865,-0.096
7.870,-0.100
7.875,-0.104
7.880,-0.088
7.885,-0.068
7.890,-0.054
7.895,-0.051
7.900,-0.049
7.905,-0.040
7.910,-0.025
7.915,0.001
7.920,0.015
7.925,0.023
7.930,0.044
7.935,0.053
7.940,0.056
7.945,0.048
7.950,0.040
7.955,0.053
7.960,0.049
7.965,0.025
7.970,0.022
7.975,0.029
7.980,0.027
7.985,0.025
7.990,0.024
7.995,0.030
8.000,0.027
8.005,0.010
8.010,0.008
8.015,0.012
8.020,-0.001
8.025,-0.010
8.030,-0.005
8.035,-0.055
8.040,-0.251
8.045,-0.636
8.050,-1.100
8.055,-1.299
8.060,-0.992
8.065,-0.377
8.070,0.228
8.075,0.606
8.080,0.657
8.085,0.541
8.090,0.398
8.095,0.271
8.100,0.214
8.105,0.178
8.110,0.134
8.115,0.130
8.120,0.143
8.125,0.132
8.130,0.120
8.135,0.109
8.140,0.091
8.145,0.088
8.150,0.094
8.155,0.089
8.160,0.071
8.165,0.066
8.170,0.073
8.175,0.061
8.180,0.045
8.185,0.036
8.190,0.037
8.195,0.042
8.200,0.035
8.205,0.023
8.210,0.016
8.215,0.007
8.220,0.000
8.225,-0.008
8.230,-0.014
8.235,-0.011
8.240,-0.015
8.245,-0.030
8.250,-0.050
8.255,-0.062
8.260,-0.065
8.265,-0.073
8.270,-0.093
8.275,-0.124
8.280,-0.143
8.285,-0.143
8.290,-0.146
8.295,-0.163
8.300,-0.187
8.305,-0.220
8.310,-0.236
8.315,-0.243
8.320,-0.262
8.325,-0.267
8.330,-0.262
8.335,-0.265
8.340,-0.264
8.345,-0.264
8.350,-0.246
8.355,-0.217
8.360,-0.179
8.365,-0.119
8.370,-0.068
8.375,-0.019
8.380,0.028
8.385,0.066
8.390,0.128
8.395,0.186
8.400,0.211
8.405,0.231
8.410,0.251
8.415,0.273
8.420,0.298
8.425,0.300
8.430,0.283
8.435,0.280
8.440,0.290
8.445,0.282
8.450,0.267
8.455,0.261
8.460,0.250
8.465,0.237
8.470,0.231
8.475,0.226
8.480,0.218
8.485,0.203
8.490,0.190
8.495,0.184
8.500,0.168
8.505,0.145
8.510,0.137
8.515,0.144
8.520,0.145
8.525,0.134
8.530,0.116
8.535,0.102
8.540,0.097
8.545,0.090
8.550,0.077
8.555,0.062
8.560,0.057
8.565,0.060
8.570,0.053
8.575,0.041
8.580,0.037
8.585,0.037
8.590,0.034
8.595,0.026
8.600,0.021
8.605,0.024
8.610,0.022
8.615,0.015
8.620,0.015
8.625,0.007
8.630,-0.002
8.635,0.001
8.640,0.013
8.645,0.018
8.650,0.003
8.655,-0.009
8.660,0.000
8.665,0.013
8.670,0.001
8.675,-0.026
8.680,-0.030
8.685,-0.021
8.690,-0.015
8.695,-0.012
8.700,-0.014
8.705,-0.019
8.710,-0.031
8.715,-0.044
8.720,-0.043
8.725,-0.038
8.730,-0.038
8.735,-0.037
8.740,-0.032
8.745,-0.030
8.750,-0.036
8.755,-0.038
8.760,-0.049
8.765,-0.056
8.770,-0.052
8.775,-0.061
8.780,-0.065
8.785,-0.055
8.790,-0.041
8.795,-0.029
8.800,-0.038
8.805,-0.056
8.810,-0.057
8.815,-0.050
8.820,-0.051
8.825,-0.053
8.830,-0.059
8.835,-0.058
8.840,-0.050
8.845,-0.055
8.850,-0.049
8.855,-0.037
8.860,-0.041
8.865,-0.049
8.870,-0.058
8.875,-0.053
8.880,-0.044
8.885,-0.055
8.890,-0.077
8.895,-0.079
8.900,-0.072
8.905,-0.090
8.910,-0.100
8.915,-0.095
8.920,-0.102
8.925,-0.097
8.930,-0.095
8.935,-0.102
8.940,-0.098
8.945,-0.096
8.950,-0.094
8.955,-0.083
8.960,-0.079
8.965,-0.079
8.970,-0.065
8.975,-0.056
8.980,-0.044
8.985,-0.019
8.990,-0.010
8.995,0.002
9.000,0.025
9.005,0.040
9.010,0.049
9.015,0.048
9.020,0.037
9.025,0.039
9.030,0.046
9.035,0.050
9.040,0.051
9.045,0.041
9.050,0.036
9.055,0.030
9.060,0.016
9.065,0.011
9.070,0.006
9.075,0.010
9.080,0.018
9.085,0.021
9.090,0.021
9.095,0.003
9.100,-0.014
9.105,-0.017
9.110,-0.033
9.115,-0.117
9.120,-0.347
9.125,-0.753
9.130,-1.206
9.135,-1.358
9.140,-0.983
9.145,-0.323
9.150,0.281
9.155,0.620
9.160,0.640
9.165,0.526
9.170,0.382
9.175,0.250
9.180,0.200
9.185,0.175
9.190,0.143
9.195,0.134
9.200,0.144
9.205,0.146
9.210,0.137
9.215,0.130
9.220,0.109
9.225,0.090
9.230,0.090
9.235,0.081
9.240,0.079
9.245,0.095
9.250,0.088
9.255,0.063
9.260,0.061
9.265,0.063
9.270,0.055
9.275,0.047
9.280,0.037
9.285,0.035
9.290,0.029
9.295,0.014
9.300,0.001
9.305,-0.005
9.310,-0.004
9.315,-0.014
9.320,-0.028
9.325,-0.036
9.330,-0.047
9.335,-0.060
9.340,-0.073
9.345,-0.085
9.350,-0.091
9.355,-0.098
9.360,-0.121
9.365,-0.146
9.370,-0.163
9.375,-0.183
9.380,-0.205
9.385,-0.222
9.390,-0.237
9.395,-0.256
9.400,-0.276
9.405,-0.288
9.410,-0.292
9.415,-0.287
9.420,-0.278
9.425,-0.268
9.430,-0.242
9.435,-0.205
9.440,-0.168
9.445,-0.124
9.450,-0.077
9.455,-0.021
9.460,0.039
9.465,0.094
9.470,0.144
9.475,0.185
9.480,0.222
9.485,0.251
9.490,0.265
9.495,0.273
9.500,0.278
9.505,0.286
9.510,0.295
9.515,0.295
9.520,0.286
9.525,0.274
9.530,0.263
9.535,0.259
9.540,0.258
9.545,0.251
9.550,0.239
9.555,0.227
9.560,0.217
9.565,0.209
9.570,0.196
9.575,0.182
9.580,0.169
9.585,0.160
9.590,0.153
9.595,0.149
9.600,0.140
9.605,0.122
9.610,0.110
9.615,0.105
9.620,0.100
9.625,0.094
9.630,0.088
9.635,0.076
9.640,0.061
9.645,0.059
9.650,0.066
9.655,0.057
9.660,0.041
9.665,0.028
9.670,0.024
9.675,0.030
9.680,0.029
9.685,0.019
9.690,0.013
9.695,0.010
9.700,0.008
9.705,0.006
9.710,-0.001
9.715,-0.003
9.720,0.005
9.725,0.005
9.730,-0.002
9.735,0.000
9.740,0.005
9.745,0.002
9.750,-0.008
9.755,-0.015
9.760,-0.016
9.765,-0.022
9.770,-0.028
9.775,-0.025
9.780,-0.019
9.785,-0.019
9.790,-0.027
9.795,-0.030
9.800,-0.027
9.805,-0.027
9.810,-0.025
9.815,-0.030
9.820,-0.036
9.825,-0.037
9.830,-0.043
9.835,-0.042
9.840,-0.037
9.845,-0.038
9.850,-0.036
9.855,-0.041
9.860,-0.046
9.865,-0.049
9.870,-0.054
9.875,-0.051
9.880,-0.040
9.885,-0.038
9.890,-0.042
9.895,-0.050
9.900,-0.055
9.905,-0.050
9.910,-0.046
9.915,-0.043
9.920,-0.043
9.925,-0.049
9.930,-0.053
9.935,-0.050
9.940,-0.046
9.945,-0.046
9.950,-0.043
9.955,-0.042
9.960,-0.047
9.965,-0.052
9.970,-0.052
9.975,-0.051
9.980,-0.062
9.985,-0.083
9.990,-0.100
9.995,-0.101
10.000,-0.103
10.005,-0.111
10.010,-0.115
10.015,-0.109
10.020,-0.096
10.025,-0.091
10.030,-0.095
10.035,-0.098
10.040,-0.096
10.045,-0.083
10.050,-0.067
10.055,-0.052
10.060,-0.047
10.065,-0.046
10.070,-0.032
10.075,-0.013
10.080,0.006
10.085,0.024
10.090,0.035
10.095,0.046
10.100,0.056
10.105,0.059
10.110,0.060
10.115,0.053
10.120,0.046
10.125,0.043
10.130,0.040
10.135,0.036
10.140,0.030
10.145,0.028
10.150,0.028
10.155,0.027
10.160,0.024
10.165,0.020
10.170,0.015
10.175,0.011
10.180,0.007
10.185,0.002
10.190,-0.005
10.195,-0.013
10.200,-0.047
10.205,-0.173
10.210,-0.446
10.215,-0.868
10.220,-1.241
10.225,-1.210
10.230,-0.702
10.235,-0.039
10.240,0.469
10.245,0.672
10.250,0.603
10.255,0.454
10.260,0.307
10.265,0.213
10.270,0.195
10.275,0.172
10.280,0.140
10.285,0.139
10.290,0.134
10.295,0.112
10.300,0.106
10.305,0.106
10.310,0.094
10.315,0.088
10.320,0.087
10.325,0.080
10.330,0.074
10.335,0.072
10.340,0.064
10.345,0.051
10.350,0.038
10.355,0.033
10.360,0.038
10.365,0.037
10.370,0.030
10.375,0.021
10.380,0.012
10.385,0.006
10.390,0.002
10.395,-0.005
10.400,-0.016
10.405,-0.024
10.410,-0.031
10.415,-0.040
10.420,-0.048
10.425,-0.058
10.430,-0.071
10.435,-0.088
10.440,-0.105
10.445,-0.117
10.450,-0.129
10.455,-0.144
10.460,-0.161
10.465,-0.180
10.470,-0.200
10.475,-0.220
10.480,-0.234
10.485,-0.246
10.490,-0.258
10.495,-0.266
10.500,-0.270
10.505,-0.271
10.510,-0.263
10.515,-0.246
10.520,-0.220
10.525,-0.189
10.530,-0.154
10.535,-0.108
10.540,-0.051
10.545,0.006
10.550,0.056
10.555,0.101
10.560,0.145
10.565,0.185
10.570,0.221
10.575,0.249
10.580,0.267
10.585,0.278
10.590,0.282
10.595,0.283
10.600,0.284
10.605,0.284
10.610,0.284
10.615,0.279
10.620,0.269
10.625,0.260
10.630,0.249
10.635,0.237
10.640,0.228
10.645,0.220
10.650,0.213
10.655,0.207
10.660,0.198
10.665,0.186
10.670,0.175
10.675,0.165
10.680,0.155
10.685,0.147
10.690,0.137
10.695,0.127
10.700,0.120
10.705,0.111
10.710,0.101
10.715,0.093
10.720,0.085
10.725,0.075
10.730,0.068
10.735,0.064
10.740,0.060
10.745,0.051
10.750,0.045
10.755,0.041
10.760,0.037
10.765,0.031
10.770,0.025
10.775,0.023
10.780,0.019
10.785,0.013
10.790,0.007
10.795,0.009
10.800,0.012
10.805,0.005
10.810,-0.003
10.815,-0.006
10.820,-0.003
10.825,-0.002
10.830,-0.008
10.835,-0.012
10.840,-0.014
10.845,-0.015
10.850,-0.017
10.855,-0.022
10.860,-0.023
10.865,-0.023
10.870,-0.026
10.875,-0.028
10.880,-0.030
10.885,-0.029
10.890,-0.026
10.895,-0.029
10.900,-0.036
10.905,-0.041
10.910,-0.043
10.915,-0.042
10.920,-0.040
10.925,-0.041
10.930,-0.045
10.935,-0.045
10.940,-0.042
10.945,-0.043
10.950,-0.044
10.955,-0.045
10.960,-0.048
10.965,-0.050
10.970,-0.049
10.975,-0.046
10.980,-0.046
10.985,-0.049
10.990,-0.052
10.995,-0.051
11.000,-0.050
11.005,-0.052
11.010,-0.053
11.015,-0.051
11.020,-0.049
11.025,-0.049
11.030,-0.049
11.035,-0.050
11.040,-0.049
11.045,-0.043
11.050,-0.044
11.055,-0.052
11.060,-0.055
11.065,-0.054
11.070,-0.055
11.075,-0.065
11.080,-0.086
11.085,-0.104
11.090,-0.111
11.095,-0.114
11.100,-0.117
11.105,-0.114
11.110,-0.100
11.115,-0.095
11.120,-0.100
11.125,-0.099
11.130,-0.096
11.135,-0.086
11.140,-0.071
11.145,-0.059
11.150,-0.049
11.155,-0.043
11.160,-0.036
11.165,-0.019
11.170,-0.002
11.175,0.010
11.180,0.022
11.185,0.035
11.190,0.045
11.195,0.052
11.200,0.059
11.205,0.058
11.210,0.054
11.215,0.051
11.220,0.048
11.225,0.042
11.230,0.037
11.235,0.035
11.240,0.034
11.245,0.031
11.250,0.027
11.255,0.022
11.260,0.016
11.265,0.010
11.270,0.007
11.275,0.008
11.280,0.003
11.285,-0.015
11.290,-0.034
11.295,-0.054
11.300,-0.139
11.305,-0.346
11.310,-0.702
11.315,-1.074
11.320,-1.134
11.325,-0.722
11.330,-0.092
11.335,0.418
11.340,0.643
11.345,0.599
11.350,0.452
11.355,0.301
11.360,0.193
11.365,0.162
11.370,0.149
11.375,0.118
11.380,0.103
11.385,0.108
11.390,0.098
11.395,0.086
11.400,0.085
11.405,0.078
11.410,0.070
11.415,0.067
11.420,0.060
11.425,0.051
11.430,0.047
11.435,0.046
11.440,0.044
11.445,0.038
11.450,0.033
11.455,0.026
11.460,0.020
11.465,0.017
11.470,0.013
11.475,0.006
11.480,0.002
11.485,0.000
11.490,-0.007
11.495,-0.020
11.500,-0.029
11.505,-0.037
11.510,-0.043
11.515,-0.049
11.520,-0.061
11.525,-0.071
11.530,-0.082
11.535,-0.098
11.540,-0.113
11.545,-0.126
11.550,-0.142
11.555,-0.158
11.560,-0.174
11.565,-0.189
11.570,-0.205
11.575,-0.221
11.580,-0.236
11.585,-0.248
11.590,-0.255
11.595,-0.258
11.600,-0.256
11.605,-0.250
11.610,-0.238
11.615,-0.218
11.620,-0.188
11.625,-0.150
11.630,-0.107
11.635,-0.062
11.640,-0.013
11.645,0.040
11.650,0.092
11.655,0.137
11.660,0.176
11.665,0.209
11.670,0.235
11.675,0.252
11.680,0.263
11.685,0.274
11.690,0.282
11.695,0.285
11.700,0.283
11.705,0.276
11.710,0.267
11.715,0.258
11.720,0.249
11.725,0.242
11.730,0.235
11.735,0.226
11.740,0.218
11.745,0.207
11.750,0.197
11.755,0.187
11.760,0.177
11.765,0.166
11.770,0.158
11.775,0.152
11.780,0.143
11.785,0.133
11.790,0.122
11.795,0.115
11.800,0.110
11.805,0.102
11.810,0.093
11.815,0.083
11.820,0.074
11.825,0.067
11.830,0.062
11.835,0.057
11.840,0.051
11.845,0.044
11.850,0.038
11.855,0.030
11.860,0.022
11.865,0.018
11.870,0.016
11.875,0.015
11.880,0.011
11.885,0.006
11.890,0.006
11.895,0.006
11.900,0.003
11.905,-0.002
11.910,-0.005
11.915,-0.009
11.920,-0.011
11.925,-0.012
11.930,-0.012
11.935,-0.013
11.940,-0.014
11.945,-0.015
11.950,-0.018
11.955,-0.020
11.960,-0.021
11.965,-0.021
11.970,-0.022
11.975,-0.026
11.980,-0.030
11.985,-0.031
11.990,-0.033
11.995,-0.035
12.000,-0.034
12.005,-0.032
12.010,-0.033
12.015,-0.035
12.020,-0.038
12.025,-0.041
12.030,-0.044
12.035,-0.046
12.040,-0.044
12.045,-0.044
12.050,-0.043
12.055,-0.045
12.060,-0.047
12.065,-0.048
12.070,-0.050
12.075,-0.050
12.080,-0.049
12.085,-0.046
12.090,-0.044
12.095,-0.043
12.100,-0.045
12.105,-0.050
12.110,-0.052
12.115,-0.052
12.120,-0.052
12.125,-0.049
12.130,-0.047
12.135,-0.046
12.140,-0.048
12.145,-0.050
12.150,-0.050
12.155,-0.047
12.160,-0.044
12.165,-0.044
12.170,-0.046
12.175,-0.050
12.180,-0.055
12.185,-0.067
12.190,-0.082
12.195,-0.094
12.200,-0.100
12.205,-0.101
12.210,-0.107
12.215,-0.112
12.220,-0.107
12.225,-0.099
12.230,-0.100
12.235,-0.104
12.240,-0.102
12.245,-0.090
12.250,-0.071
12.255,-0.052
12.260,-0.040
12.265,-0.036
12.270,-0.034
12.275,-0.023
12.280,-0.010
12.285,0.004
12.290,0.019
12.295,0.034
12.300,0.047
12.305,0.053
12.310,0.058
12.315,0.062
12.320,0.057
12.325,0.050
12.330,0.047
12.335,0.045
12.340,0.041
12.345,0.037
12.350,0.035
12.355,0.032
12.360,0.030
12.365,0.028
12.370,0.023
12.375,0.016
12.380,0.012
12.385,0.009
12.390,0.003
12.395,-0.013
12.400,-0.029
12.405,-0.041
12.410,-0.100
12.415,-0.274
12.420,-0.599
12.425,-0.984
12.430,-1.138
12.435,-0.833
12.440,-0.234
12.445,0.318
12.450,0.620
12.455,0.626
12.460,0.487
12.465,0.333
12.470,0.211
12.475,0.165
12.480,0.150
12.485,0.120
12.490,0.106
12.495,0.111
12.500,0.102
12.505,0.091
12.510,0.089
12.515,0.081
12.520,0.069
12.525,0.066
12.530,0.064
12.535,0.056
12.540,0.051
12.545,0.048
12.550,0.042
12.555,0.035
12.560,0.031
12.565,0.028
12.570,0.022
12.575,0.018
12.580,0.014
12.585,0.008
12.590,0.003
12.595,-0.001
12.600,-0.008
12.605,-0.017
12.610,-0.025
12.615,-0.035
12.620,-0.044
12.625,-0.051
12.630,-0.058
12.635,-0.067
12.640,-0.078
12.645,-0.092
12.650,-0.107
12.655,-0.123
12.660,-0.138
12.665,-0.154
12.670,-0.171
12.675,-0.188
12.680,-0.204
12.685,-0.219
12.690,-0.232
12.695,-0.243
12.700,-0.250
12.705,-0.253
12.710,-0.253
12.715,-0.249
12.720,-0.237
12.725,-0.215
12.730,-0.188
12.735,-0.153
12.740,-0.112
12.745,-0.065
12.750,-0.016
12.755,0.032
12.760,0.081
12.765,0.129
12.770,0.169
12.775,0.200
12.780,0.228
12.785,0.250
12.790,0.267
12.795,0.279
12.800,0.283
12.805,0.283
12.810,0.280
12.815,0.276
12.820,0.270
12.825,0.263
12.830,0.255
12.835,0.247
12.840,0.238
12.845,0.228
12.850,0.219
12.855,0.209
12.860,0.199
12.865,0.189
12.870,0.179
12.875,0.170
12.880,0.161
12.885,0.150
12.890,0.142
12.895,0.133
12.900,0.123
12.905,0.115
12.910,0.107
12.915,0.098
12.920,0.091
12.925,0.084
12.930,0.075
12.935,0.068
12.940,0.064
12.945,0.058
12.950,0.051
12.955,0.043
12.960,0.037
12.965,0.032
12.970,0.026
12.975,0.022
12.980,0.020
12.985,0.017
12.990,0.012
12.995,0.006
13.000,0.003
13.005,0.001
13.010,-0.001
13.015,-0.002
13.020,-0.001
13.025,-0.002
13.030,-0.005
13.035,-0.006
13.040,-0.008
13.045,-0.011
13.050,-0.013
13.055,-0.016
13.060,-0.018
13.065,-0.020
13.070,-0.021
13.075,-0.022
13.080,-0.024
13.085,-0.029
13.090,-0.031
13.095,-0.030
13.100,-0.030
13.105,-0.035
13.110,-0.042
13.115,-0.042
13.120,-0.037
13.125,-0.035
13.130,-0.037
13.135,-0.040
13.140,-0.042
13.145,-0.042
13.150,-0.044
13.155,-0.044
13.160,-0.042
13.165,-0.043
13.170,-0.044
13.175,-0.045
13.180,-0.046
13.185,-0.048
13.190,-0.050
13.195,-0.049
13.200,-0.049
13.205,-0.052
13.210,-0.049
13.215,-0.044
13.220,-0.042
13.225,-0.043
13.230,-0.047
13.235,-0.048
13.240,-0.048
13.245,-0.051
13.250,-0.049
13.255,-0.046
13.260,-0.045
13.265,-0.044
13.270,-0.048
13.275,-0.050
13.280,-0.046
13.285,-0.039
13.290,-0.039
13.295,-0.044
13.300,-0.047
13.305,-0.057
13.310,-0.068
13.315,-0.076
13.320,-0.084
13.325,-0.088
13.330,-0.096
13.335,-0.106
13.340,-0.105
13.345,-0.099
13.350,-0.094
13.355,-0.091
13.360,-0.092
13.365,-0.092
13.370,-0.090
13.375,-0.075
13.380,-0.054
13.385,-0.043
13.390,-0.042
13.395,-0.041
13.400,-0.026
13.405,-0.009
13.410,0.004
13.415,0.021
13.420,0.040
13.425,0.056
13.430,0.057
13.435,0.056
13.440,0.064
13.445,0.068
13.450,0.056
13.455,0.042
13.460,0.037
13.465,0.035
13.470,0.034
13.475,0.030
13.480,0.026
13.485,0.028
13.490,0.025
13.495,0.016
13.500,0.012
13.505,0.008
13.510,0.009
13.515,0.009
13.520,-0.006
13.525,-0.019
13.530,-0.026
13.535,-0.082
13.540,-0.254
13.545,-0.583
13.550,-0.985
13.555,-1.165
13.560,-0.882
13.565,-0.290
13.570,0.287
13.575,0.628
13.580,0.655
13.585,0.515
13.590,0.352
13.595,0.221
13.600,0.168
13.605,0.149
13.610,0.123
13.615,0.114
13.620,0.107
13.625,0.077
13.630,0.065
13.635,0.078
13.640,0.078
13.645,0.064
13.650,0.057
13.655,0.057
13.660,0.049
13.665,0.041
13.670,0.040
13.675,0.039
13.680,0.037
13.685,0.037
13.690,0.035
13.695,0.026
13.700,0.011
13.705,-0.001
13.710,-0.005
13.715,-0.005
13.720,-0.007
13.725,-0.013
13.730,-0.021
13.735,-0.022
13.740,-0.022
13.745,-0.037
13.750,-0.056
13.755,-0.066
13.760,-0.067
13.765,-0.075
13.770,-0.100
13.775,-0.118
13.780,-0.123
13.785,-0.136
13.790,-0.152
13.795,-0.169
13.800,-0.188
13.805,-0.206
13.810,-0.228
13.815,-0.238
13.820,-0.241
13.825,-0.257
13.830,-0.273
13.835,-0.277
13.840,-0.265
13.845,-0.242
13.850,-0.217
13.855,-0.193
13.860,-0.163
13.865,-0.120
13.870,-0.068
13.875,-0.015
13.880,0.037
13.885,0.090
13.890,0.134
13.895,0.172
13.900,0.207
13.905,0.232
13.910,0.258
13.915,0.284
13.920,0.304
13.925,0.312
13.930,0.307
13.935,0.296
13.940,0.288
13.945,0.280
13.950,0.271
13.955,0.266
13.960,0.264
13.965,0.255
13.970,0.241
13.975,0.235
13.980,0.229
13.985,0.220
13.990,0.207
13.995,0.191
14.000,0.183
14.005,0.181
14.010,0.167
14.015,0.152
14.020,0.138
14.025,0.124
14.030,0.121
14.035,0.122
14.040,0.114
14.045,0.101
14.050,0.091
14.055,0.086
14.060,0.074
14.065,0.061
14.070,0.056
14.075,0.056
14.080,0.062
14.085,0.060
14.090,0.044
14.095,0.029
14.100,0.021
14.105,0.021
14.110,0.026
14.115,0.019
14.120,0.006
14.125,0.002
14.130,0.007
14.135,0.009
14.140,0.004
14.145,0.004
14.150,0.005
14.155,-0.001
14.160,-0.007
14.165,-0.007
14.170,-0.005
14.175,-0.007
14.180,-0.017
14.185,-0.027
14.190,-0.025
14.195,-0.022
14.200,-0.022
14.205,-0.022
14.210,-0.024
14.215,-0.028
14.220,-0.031
14.225,-0.032
14.230,-0.031
14.235,-0.038
14.240,-0.041
14.245,-0.046
14.250,-0.053
14.255,-0.049
14.260,-0.047
14.265,-0.049
14.270,-0.044
14.275,-0.039
14.280,-0.042
14.285,-0.047
14.290,-0.055
14.295,-0.060
14.300,-0.050
14.305,-0.044
14.310,-0.058
14.315,-0.073
14.320,-0.058
14.325,-0.032
14.330,-0.035
14.335,-0.057
14.340,-0.072
14.345,-0.063
14.350,-0.051
14.355,-0.059
14.360,-0.061
14.365,-0.051
14.370,-0.049
14.375,-0.045
14.380,-0.049
14.385,-0.056
14.390,-0.056
14.395,-0.060
14.400,-0.051
14.405,-0.047
14.410,-0.053
14.415,-0.053
14.420,-0.060
14.425,-0.073
14.430,-0.086
14.435,-0.095
14.440,-0.093
14.445,-0.098
14.450,-0.110
14.455,-0.109
14.460,-0.098
14.465,-0.092
14.470,-0.092
14.475,-0.097
14.480,-0.099
14.485,-0.093
14.490,-0.076
14.495,-0.054
14.500,-0.039
14.505,-0.042
14.510,-0.052
14.515,-0.036
14.520,-0.005
14.525,0.024
14.530,0.047
14.535,0.049
14.540,0.049
14.545,0.054
14.550,0.046
14.555,0.032
14.560,0.025
14.565,0.029
14.570,0.044
14.575,0.053
14.580,0.048
14.585,0.037
14.590,0.029
14.595,0.031
14.600,0.026
14.605,0.015
14.610,0.005
14.615,0.003
14.620,0.014
14.625,0.008
14.630,-0.008
14.635,-0.013
14.640,-0.010
14.645,-0.054
14.650,-0.231
14.655,-0.595
14.660,-1.070
14.665,-1.341
14.670,-1.105
14.675,-0.484
14.680,0.165
14.685,0.594
14.690,0.688
14.695,0.572
14.700,0.422
14.705,0.290
14.710,0.227
14.715,0.199
14.720,0.154
14.725,0.141
14.730,0.150
14.735,0.128
14.740,0.107
14.745,0.115
14.750,0.119
14.755,0.104
14.760,0.089
14.765,0.085
14.770,0.085
14.775,0.079
14.780,0.064
14.785,0.048
14.790,0.042
14.795,0.050
14.800,0.051
14.805,0.037
14.810,0.031
14.815,0.026
14.820,0.016
14.825,0.015
14.830,0.015
14.835,0.006
14.840,-0.013
14.845,-0.033
14.850,-0.041
14.855,-0.037
14.860,-0.039
14.865,-0.056
14.870,-0.072
14.875,-0.083
14.880,-0.093
14.885,-0.107
14.890,-0.134
14.895,-0.157
14.900,-0.171
14.905,-0.180
14.910,-0.190
14.915,-0.216
14.920,-0.241
14.925,-0.256
14.930,-0.273
14.935,-0.284
14.940,-0.286
14.945,-0.278
14.950,-0.264
14.955,-0.256
14.960,-0.245
14.965,-0.218
14.970,-0.175
14.975,-0.131
14.980,-0.087
14.985,-0.033
14.990,0.016
14.995,0.072
15.000,0.135
15.005,0.180
15.010,0.216
15.015,0.235
15.020,0.248
15.025,0.269
15.030,0.288
15.035,0.300
15.040,0.302
15.045,0.295
15.050,0.285
15.055,0.274
15.060,0.269
15.065,0.269
15.070,0.258
15.075,0.239
15.080,0.230
15.085,0.230
15.090,0.227
15.095,0.217
15.100,0.208
15.105,0.200
15.110,0.184
15.115,0.163
15.120,0.147
15.125,0.147
15.130,0.143
15.135,0.116
15.140,0.099
15.145,0.104
15.150,0.110
15.155,0.107
15.160,0.092
15.165,0.073
15.170,0.061
15.175,0.061
15.180,0.063
15.185,0.059
15.190,0.047
15.195,0.035
15.200,0.033
15.205,0.035
15.210,0.032
15.215,0.018
15.220,0.013
15.225,0.016
15.230,0.014
15.235,0.014
15.240,0.009
15.245,0.000
15.250,0.002
15.255,0.006
15.260,0.006
15.265,0.001
15.270,-0.006
15.275,-0.012
15.280,-0.012
15.285,-0.009
15.290,-0.012
15.295,-0.016
15.300,-0.020
15.305,-0.024
15.310,-0.025
15.315,-0.028
15.320,-0.031
15.325,-0.030
15.330,-0.027
15.335,-0.023
15.340,-0.026
15.345,-0.035
15.350,-0.039
15.355,-0.037
15.360,-0.035
15.365,-0.038
15.370,-0.040
15.375,-0.034
15.380,-0.039
15.385,-0.053
15.390,-0.054
15.395,-0.051
15.400,-0.049
15.405,-0.046
15.410,-0.046
15.415,-0.041
15.420,-0.039
15.425,-0.048
15.430,-0.052
15.435,-0.052
15.440,-0.053
15.445,-0.052
15.450,-0.051
15.455,-0.052
15.460,-0.053
15.465,-0.051
15.470,-0.047
15.475,-0.048
15.480,-0.049
15.485,-0.040
15.490,-0.036
15.495,-0.049
15.500,-0.064
15.505,-0.065
15.510,-0.052
15.515,-0.047
15.520,-0.058
15.525,-0.074
15.530,-0.083
15.535,-0.091
15.540,-0.096
15.545,-0.098
15.550,-0.104
15.555,-0.110
15.560,-0.103
15.565,-0.093
15.570,-0.092
15.575,-0.098
15.580,-0.105
15.585,-0.102
15.590,-0.087
15.595,-0.068
15.600,-0.058
15.605,-0.055
15.610,-0.047
15.615,-0.031
15.620,-0.015
15.625,0.003
15.630,0.019
15.635,0.033
15.640,0.043
15.645,0.049
15.650,0.057
15.655,0.058
15.660,0.046
15.665,0.039
15.670,0.042
15.675,0.044
15.680,0.038
15.685,0.029
15.690,0.023
15.695,0.022
15.700,0.028
15.705,0.023
15.710,0.012
15.715,0.006
15.720,0.006
15.725,0.008
15.730,0.004
15.735,-0.005
15.740,-0.004
15.745,-0.017
15.750,-0.109
15.755,-0.336
15.760,-0.718
15.765,-1.138
15.770,-1.276
15.775,-0.916
15.780,-0.276
15.785,0.309
15.790,0.637
15.795,0.644
15.800,0.513
15.805,0.373
15.810,0.258
15.815,0.217
15.820,0.188
15.825,0.150
15.830,0.144
15.835,0.150
15.840,0.133
15.845,0.117
15.850,0.113
15.855,0.104
15.860,0.094
15.865,0.091
15.870,0.083
15.875,0.072
15.880,0.072
15.885,0.073
15.890,0.063
15.895,0.051
15.900,0.045
15.905,0.041
15.910,0.036
15.915,0.029
15.920,0.018
15.925,0.012
15.930,0.011
15.935,0.007
15.940,0.001
15.945,-0.010
15.950,-0.021
15.955,-0.031
15.960,-0.037
15.965,-0.042
15.970,-0.055
15.975,-0.074
15.980,-0.090
15.985,-0.099
15.990,-0.106
15.995,-0.116
16.000,-0.134
16.005,-0.157
16.010,-0.179
16.015,-0.199
16.020,-0.215
16.025,-0.228
16.030,-0.242
16.035,-0.254
16.040,-0.263
16.045,-0.268
16.050,-0.270
16.055,-0.264
16.060,-0.253
16.065,-0.233
16.070,-0.202
16.075,-0.161
16.080,-0.115
16.085,-0.067
16.090,-0.018
16.095,0.035
16.100,0.087
16.105,0.130
16.110,0.169
16.115,0.205
16.120,0.236
16.125,0.260
16.130,0.273
16.135,0.283
16.140,0.295
16.145,0.299
16.150,0.293
16.155,0.285
16.160,0.281
16.165,0.276
16.170,0.268
16.175,0.258
16.180,0.247
16.185,0.234
16.190,0.224
16.195,0.216
16.200,0.213
16.205,0.204
16.210,0.185
16.215,0.171
16.220,0.163
16.225,0.155
16.230,0.145
16.235,0.135
16.240,0.126
16.245,0.120
16.250,0.113
16.255,0.102
16.260,0.093
16.265,0.089
16.270,0.082
16.275,0.072
16.280,0.060
16.285,0.051
16.290,0.045
16.295,0.039
16.300,0.034
16.305,0.030
16.310,0.024
16.315,0.019
16.320,0.016
16.325,0.015
16.330,0.011
16.335,0.007
16.340,0.005
16.345,0.005
16.350,0.003
16.355,-0.002
16.360,-0.006
16.365,-0.007
16.370,-0.008
16.375,-0.006
16.380,-0.005
16.385,-0.008
16.390,-0.011
16.395,-0.014
16.400,-0.016
16.405,-0.018
16.410,-0.022
16.415,-0.026
16.420,-0.030
16.425,-0.031
16.430,-0.030
16.435,-0.032
16.440,-0.036
16.445,-0.039
16.450,-0.039
16.455,-0.038
16.460,-0.036
16.465,-0.036
16.470,-0.041
16.475,-0.041
16.480,-0.041
16.485,-0.044
16.490,-0.049
16.495,-0.053
16.500,-0.052
16.505,-0.051
16.510,-0.052
16.515,-0.051
16.520,-0.052
16.525,-0.051
16.530,-0.051
16.535,-0.051
16.540,-0.049
16.545,-0.050
16.550,-0.049
16.555,-0.047
16.560,-0.050
16.565,-0.054
16.570,-0.057
16.575,-0.055
16.580,-0.050
16.585,-0.049
16.590,-0.049
16.595,-0.052
16.600,-0.052
16.605,-0.049
16.610,-0.047
16.615,-0.048
16.620,-0.051
16.625,-0.060
16.630,-0.074
16.635,-0.089
16.640,-0.102
16.645,-0.108
16.650,-0.112
16.655,-0.115
16.660,-0.111
16.665,-0.102
16.670,-0.099
16.675,-0.098
16.680,-0.093
16.685,-0.088
16.690,-0.079
16.695,-0.066
16.700,-0.054
16.705,-0.044
16.710,-0.040
16.715,-0.033
16.720,-0.017
16.725,0.000
16.730,0.016
16.735,0.032
16.740,0.047
16.745,0.056
16.750,0.059
16.755,0.059
16.760,0.056
16.765,0.052
16.770,0.049
16.775,0.044
16.780,0.038
16.785,0.037
16.790,0.041
16.795,0.041
16.800,0.037
16.805,0.029
16.810,0.023
16.815,0.022
16.820,0.021
16.825,0.015
16.830,0.005
16.835,-0.008
16.840,-0.021
16.845,-0.031
16.850,-0.071
16.855,-0.204
16.860,-0.485
16.865,-0.890
16.870,-1.186
16.875,-1.053
16.880,-0.505
16.885,0.118
16.890,0.539
16.895,0.655
16.900,0.554
16.905,0.404
16.910,0.268
16.915,0.192
16.920,0.173
16.925,0.147
16.930,0.120
16.935,0.121
16.940,0.121
16.945,0.106
16.950,0.099
16.955,0.096
16.960,0.085
16.965,0.078
16.970,0.074
16.975,0.067
16.980,0.062
16.985,0.059
16.990,0.054
16.995,0.048
17.000,0.044
17.005,0.039
17.010,0.034
17.015,0.031
17.020,0.027
17.025,0.018
17.030,0.009
17.035,0.003
17.040,-0.003
17.045,-0.013
17.050,-0.022
17.055,-0.029
17.060,-0.036
17.065,-0.043
17.070,-0.053
17.075,-0.064
17.080,-0.074
17.085,-0.086
17.090,-0.100
17.095,-0.115
17.100,-0.130
17.105,-0.143
17.110,-0.160
17.115,-0.182
17.120,-0.198
17.125,-0.211
17.130,-0.225
17.135,-0.241
17.140,-0.258
17.145,-0.268
17.150,-0.268
17.155,-0.264
17.160,-0.253
17.165,-0.235
17.170,-0.211
17.175,-0.181
17.180,-0.141
17.185,-0.095
17.190,-0.048
17.195,0.002
17.200,0.056
17.205,0.109
17.210,0.153
17.215,0.191
17.220,0.224
17.225,0.248
17.230,0.261
17.235,0.271
17.240,0.280
17.245,0.285
17.250,0.285
17.255,0.279
17.260,0.270
17.265,0.264
17.270,0.256
17.275,0.248
17.280,0.239
17.285,0.231
17.290,0.226
17.295,0.218
17.300,0.205
17.305,0.193
17.310,0.185
17.315,0.174
17.320,0.162
17.325,0.153
17.330,0.145
17.335,0.139
17.340,0.130
17.345,0.121
17.350,0.114
17.355,0.104
17.360,0.094
17.365,0.086
17.370,0.077
17.375,0.068
17.380,0.061
17.385,0.057
17.390,0.054
17.395,0.049
17.400,0.041
17.405,0.033
17.410,0.027
17.415,0.022
17.420,0.018
17.425,0.012
17.430,0.005
17.435,0.002
17.440,0.001
17.445,0.002
17.450,0.002
17.455,-0.002
17.460,-0.006
17.465,-0.007
17.470,-0.007
17.475,-0.004
17.480,-0.004
17.485,-0.008
17.490,-0.013
17.495,-0.020
17.500,-0.021
17.505,-0.020
17.510,-0.021
17.515,-0.021
17.520,-0.024
17.525,-0.027
17.530,-0.028
17.535,-0.028
17.540,-0.029
17.545,-0.030
17.550,-0.031
17.555,-0.032
17.560,-0.033
17.565,-0.038
17.570,-0.043
17.575,-0.043
17.580,-0.043
17.585,-0.043
17.590,-0.043
17.595,-0.042
17.600,-0.043
17.605,-0.044
17.610,-0.043
17.615,-0.042
17.620,-0.045
17.625,-0.046
17.630,-0.044
17.635,-0.044
17.640,-0.046
17.645,-0.050
17.650,-0.051
17.655,-0.049
17.660,-0.048
17.665,-0.047
17.670,-0.047
17.675,-0.048
17.680,-0.048
17.685,-0.045
17.690,-0.045
17.695,-0.047
17.700,-0.047
17.705,-0.046
17.710,-0.044
17.715,-0.044
17.720,-0.045
17.725,-0.046
17.730,-0.050
17.735,-0.062
17.740,-0.078
17.745,-0.092
17.750,-0.100
17.755,-0.104
17.760,-0.107
17.765,-0.110
17.770,-0.105
17.775,-0.095
17.780,-0.094
17.785,-0.094
17.790,-0.093
17.795,-0.091
17.800,-0.076
17.805,-0.059
17.810,-0.046
17.815,-0.041
17.820,-0.039
17.825,-0.028
17.830,-0.008
17.835,0.007
17.840,0.020
17.845,0.034
17.850,0.043
17.855,0.050
17.860,0.057
17.865,0.062
17.870,0.059
17.875,0.052
17.880,0.050
17.885,0.048
17.890,0.041
17.895,0.035
17.900,0.033
17.905,0.031
17.910,0.027
17.915,0.024
17.920,0.020
17.925,0.015
17.930,0.014
17.935,0.012
17.940,0.006
17.945,-0.009
17.950,-0.029
17.955,-0.040
17.960,-0.088
17.965,-0.247
17.970,-0.558
17.975,-0.957
17.980,-1.173
17.985,-0.937
17.990,-0.357
17.995,0.229
18.000,0.587
18.005,0.640
18.010,0.516
18.015,0.365
18.020,0.236
18.025,0.177
18.030,0.163
18.035,0.137
18.040,0.120
18.045,0.121
18.050,0.110
18.055,0.096
18.060,0.095
18.065,0.091
18.070,0.080
18.075,0.075
18.080,0.073
18.085,0.067
18.090,0.061
18.095,0.055
18.100,0.047
18.105,0.041
18.110,0.040
18.115,0.037
18.120,0.029
18.125,0.021
18.130,0.013
18.135,0.008
18.140,0.004
18.145,-0.002
18.150,-0.007
18.155,-0.014
18.160,-0.022
18.165,-0.029
18.170,-0.037
18.175,-0.047
18.180,-0.057
18.185,-0.067
18.190,-0.077
18.195,-0.089
18.200,-0.103
18.205,-0.119
18.210,-0.136
18.215,-0.154
18.220,-0.170
18.225,-0.185
18.230,-0.201
18.235,-0.217
18.240,-0.234
18.245,-0.244
18.250,-0.251
18.255,-0.257
18.260,-0.258
18.265,-0.255
18.270,-0.246
18.275,-0.228
18.280,-0.201
18.285,-0.168
18.290,-0.129
18.295,-0.081
18.300,-0.028
18.305,0.026
18.310,0.076
18.315,0.121
18.320,0.162
18.325,0.200
18.330,0.229
18.335,0.248
18.340,0.264
18.345,0.277
18.350,0.285
18.355,0.287
18.360,0.284
18.365,0.278
18.370,0.271
18.375,0.263
18.380,0.255
18.385,0.246
18.390,0.239
18.395,0.229
18.400,0.220
18.405,0.211
18.410,0.201
18.415,0.192
18.420,0.180
18.425,0.169
18.430,0.162
18.435,0.153
18.440,0.142
18.445,0.132
18.450,0.123
18.455,0.115
18.460,0.106
18.465,0.096
18.470,0.089
18.475,0.082
18.480,0.073
18.485,0.065
18.490,0.059
18.495,0.052
18.500,0.046
18.505,0.042
18.510,0.036
18.515,0.030
18.520,0.025
18.525,0.020
18.530,0.015
18.535,0.009
18.540,0.005
18.545,0.002
18.550,-0.001
18.555,-0.003
18.560,-0.004
18.565,-0.006
18.570,-0.008
18.575,-0.010
18.580,-0.011
18.585,-0.012
18.590,-0.012
18.595,-0.014
18.600,-0.017
18.605,-0.019
18.610,-0.019
18.615,-0.022
18.620,-0.025
18.625,-0.026
18.630,-0.027
18.635,-0.029
18.640,-0.033
18.645,-0.037
18.650,-0.036
18.655,-0.037
18.660,-0.038
18.665,-0.038
18.670,-0.037
18.675,-0.036
18.680,-0.033
18.685,-0.036
18.690,-0.042
18.695,-0.045
18.700,-0.044
18.705,-0.044
18.710,-0.045
18.715,-0.046
18.720,-0.046
18.725,-0.046
18.730,-0.047
18.735,-0.048
18.740,-0.047
18.745,-0.048
18.750,-0.048
18.755,-0.047
18.760,-0.047
18.765,-0.047
18.770,-0.047
18.775,-0.047
18.780,-0.048
18.785,-0.047
18.790,-0.046
18.795,-0.047
18.800,-0.045
18.805,-0.043
18.810,-0.041
18.815,-0.042
18.820,-0.046
18.825,-0.046
18.830,-0.043
18.835,-0.043
18.840,-0.050
18.845,-0.064
18.850,-0.080
18.855,-0.093
18.860,-0.100
18.865,-0.102
18.870,-0.106
18.875,-0.108
18.880,-0.102
18.885,-0.096
18.890,-0.095
18.895,-0.094
18.900,-0.089
18.905,-0.083
18.910,-0.069
18.915,-0.052
18.920,-0.042
18.925,-0.036
18.930,-0.034
18.935,-0.023
18.940,-0.005
18.945,0.009
18.950,0.024
18.955,0.039
18.960,0.048
18.965,0.053
18.970,0.058
18.975,0.062
18.980,0.057
18.985,0.051
18.990,0.048
18.995,0.047
19.000,0.043
19.005,0.040
19.010,0.037
19.015,0.034
19.020,0.030
19.025,0.025
19.030,0.024
19.035,0.021
19.040,0.015
19.045,0.010
19.050,0.002
19.055,-0.014
19.060,-0.026
19.065,-0.038
19.070,-0.100
19.075,-0.278
19.080,-0.606
19.085,-0.991
19.090,-1.150
19.095,-0.856
19.100,-0.266
19.105,0.290
19.110,0.609
19.115,0.627
19.120,0.492
19.125,0.342
19.130,0.221
19.135,0.173
19.140,0.153
19.145,0.123
19.150,0.112
19.155,0.117
19.160,0.106
19.165,0.091
19.170,0.089
19.175,0.083
19.180,0.072
19.185,0.073
19.190,0.072
19.195,0.060
19.200,0.052
19.205,0.049
19.210,0.046
19.215,0.045
19.220,0.043
19.225,0.037
19.230,0.026
19.235,0.015
19.240,0.010
19.245,0.007
19.250,0.004
19.255,-0.002
19.260,-0.010
19.265,-0.017
19.270,-0.024
19.275,-0.032
19.280,-0.038
19.285,-0.046
19.290,-0.056
19.295,-0.067
19.300,-0.081
19.305,-0.093
19.310,-0.106
19.315,-0.121
19.320,-0.138
19.325,-0.156
19.330,-0.175
19.335,-0.192
19.340,-0.209
19.345,-0.225
19.350,-0.235
19.355,-0.243
19.360,-0.252
19.365,-0.259
19.370,-0.260
19.375,-0.254
19.380,-0.242
19.385,-0.226
19.390,-0.199
19.395,-0.163
19.400,-0.121
19.405,-0.073
19.410,-0.020
19.415,0.034
19.420,0.084
19.425,0.128
19.430,0.168
19.435,0.204
19.440,0.235
19.445,0.255
19.450,0.269
19.455,0.276
19.460,0.281
19.465,0.285
19.470,0.286
19.475,0.281
19.480,0.271
19.485,0.260
19.490,0.254
19.495,0.249
19.500,0.242
19.505,0.233
19.510,0.224
19.515,0.216
19.520,0.206
19.525,0.192
19.530,0.181
19.535,0.171
19.540,0.161
19.545,0.151
19.550,0.141
19.555,0.133
19.560,0.125
19.565,0.115
19.570,0.106
19.575,0.098
19.580,0.092
19.585,0.086
19.590,0.079
19.595,0.070
19.600,0.059
19.605,0.049
19.610,0.044
19.615,0.039
19.620,0.031
19.625,0.023
19.630,0.019
19.635,0.018
19.640,0.018
19.645,0.013
19.650,0.010
19.655,0.007
19.660,0.003
19.665,0.001
19.670,-0.001
19.675,-0.007
19.680,-0.010
19.685,-0.010
19.690,-0.007
19.695,-0.006
19.700,-0.012
19.705,-0.020
19.710,-0.019
19.715,-0.016
19.720,-0.018
19.725,-0.022
19.730,-0.027
19.735,-0.029
19.740,-0.029
19.745,-0.029
19.750,-0.030
19.755,-0.034
19.760,-0.036
19.765,-0.036
19.770,-0.033
19.775,-0.033
19.780,-0.038
19.785,-0.039
19.790,-0.037
19.795,-0.041
19.800,-0.048
19.805,-0.049
19.810,-0.044
19.815,-0.040
19.820,-0.043
19.825,-0.047
19.830,-0.051
19.835,-0.050
19.840,-0.045
19.845,-0.043
19.850,-0.044
19.855,-0.049
19.860,-0.049
19.865,-0.047
19.870,-0.047
19.875,-0.046
19.880,-0.049
19.885,-0.050
19.890,-0.048
19.895,-0.049
19.900,-0.050
19.905,-0.052
19.910,-0.051
19.915,-0.047
19.920,-0.046
19.925,-0.047
19.930,-0.045
19.935,-0.043
19.940,-0.043
19.945,-0.046
19.950,-0.054
19.955,-0.070
19.960,-0.086
19.965,-0.097
19.970,-0.100
19.975,-0.101
19.980,-0.106
19.985,-0.105
19.990,-0.100
19.995,-0.101
20.000,-0.098
20.005,-0.088
20.010,-0.083
20.015,-0.080
20.020,-0.068
20.025,-0.052
20.030,-0.043
20.035,-0.040
20.040,-0.029
20.045,-0.010
20.050,0.006
20.055,0.013
20.060,0.026
20.065,0.046
20.070,0.053
20.075,0.050
20.080,0.049
20.085,0.051
20.090,0.052
20.095,0.050
20.100,0.049
20.105,0.045
20.110,0.040
20.115,0.035
20.120,0.028
20.125,0.025
20.130,0.023
20.135,0.017
20.140,0.013
20.145,0.014
20.150,0.012
20.155,0.010
20.160,0.003
20.165,-0.012
20.170,-0.020
20.175,-0.041
20.180,-0.145
20.185,-0.390
20.190,-0.774
20.195,-1.108
20.200,-1.089
20.205,-0.641
20.210,-0.030
20.215,0.454
20.220,0.661
20.225,0.598
20.230,0.447
20.235,0.302
20.240,0.202
20.245,0.168
20.250,0.143
20.255,0.120
20.260,0.115
20.265,0.104
20.270,0.087
20.275,0.085
20.280,0.084
20.285,0.071
20.290,0.067
20.295,0.069
20.300,0.064
20.305,0.057
20.310,0.050
20.315,0.042
20.320,0.038
20.325,0.035
20.330,0.034
20.335,0.034
20.340,0.024
20.345,0.014
20.350,0.007
20.355,-0.004
20.360,-0.006
20.365,-0.001
20.370,-0.006
20.375,-0.020
20.380,-0.030
20.385,-0.036
20.390,-0.048
20.395,-0.064
20.400,-0.071
20.405,-0.065
20.410,-0.069
20.415,-0.096
20.420,-0.125
20.425,-0.140
20.430,-0.153
20.435,-0.169
20.440,-0.183
20.445,-0.195
20.450,-0.209
20.455,-0.228
20.460,-0.244
20.465,-0.261
20.470,-0.274
20.475,-0.273
20.480,-0.264
20.485,-0.255
20.490,-0.240
20.495,-0.218
20.500,-0.195
20.505,-0.161
20.510,-0.112
20.515,-0.056
20.520,0.006
20.525,0.072
20.530,0.124
20.535,0.162
20.540,0.190
20.545,0.219
20.550,0.253
20.555,0.271
20.560,0.273
20.565,0.285
20.570,0.299
20.575,0.303
20.580,0.297
20.585,0.283
20.590,0.273
20.595,0.269
20.600,0.257
20.605,0.248
20.610,0.245
20.615,0.244
20.620,0.240
20.625,0.226
20.630,0.210
20.635,0.193
20.640,0.177
20.645,0.169
20.650,0.161
20.655,0.148
20.660,0.137
20.665,0.133
20.670,0.126
20.675,0.114
20.680,0.107
20.685,0.107
20.690,0.102
20.695,0.085
20.700,0.077
20.705,0.079
20.710,0.069
20.715,0.047
20.720,0.034
20.725,0.039
20.730,0.047
20.735,0.041
20.740,0.027
20.745,0.022
20.750,0.021
20.755,0.017
20.760,0.013
20.765,0.012
20.770,0.011
20.775,0.006
20.780,0.005
20.785,0.008
20.790,0.005
20.795,-0.006
20.800,-0.013
20.805,-0.013
20.810,-0.011
20.815,-0.003
20.820,-0.002
20.825,-0.013
20.830,-0.021
20.835,-0.023
20.840,-0.023
20.845,-0.023
20.850,-0.028
20.855,-0.032
20.860,-0.036
20.865,-0.048
20.870,-0.042
20.875,-0.017
20.880,-0.019
20.885,-0.041
20.890,-0.050
20.895,-0.051
20.900,-0.045
20.905,-0.042
20.910,-0.041
20.915,-0.033
20.920,-0.032
20.925,-0.043
20.930,-0.054
20.935,-0.055
20.940,-0.047
20.945,-0.047
20.950,-0.052
20.955,-0.055
20.960,-0.051
20.965,-0.045
20.970,-0.043
20.975,-0.046
20.980,-0.051
20.985,-0.054
20.990,-0.055
20.995,-0.050
21.000,-0.044
21.005,-0.045
21.010,-0.048
21.015,-0.057
21.020,-0.070
21.025,-0.083
21.030,-0.091
21.035,-0.092
21.040,-0.100
21.045,-0.114
21.050,-0.119
21.055,-0.112
21.060,-0.096
21.065,-0.091
21.070,-0.103
21.075,-0.111
21.080,-0.108
21.085,-0.089
21.090,-0.066
21.095,-0.053
21.100,-0.051
21.105,-0.053
21.110,-0.041
21.115,-0.022
21.120,-0.005
21.125,0.013
21.130,0.020
21.135,0.025
21.140,0.038
21.145,0.055
21.150,0.058
21.155,0.042
21.160,0.030
21.165,0.027
21.170,0.037
21.175,0.041
21.180,0.031
21.185,0.027
21.190,0.015
21.195,0.005
21.200,0.007
21.205,0.006
21.210,0.007
21.215,0.006
21.220,-0.005
21.225,-0.011
21.230,-0.013
21.235,-0.014
21.240,-0.013
21.245,-0.075
21.250,-0.295
21.255,-0.713
21.260,-1.181
21.265,-1.352
21.270,-1.013
21.275,-0.365
21.280,0.259
21.285,0.621
21.290,0.646
21.295,0.536
21.300,0.406
21.305,0.284
21.310,0.230
21.315,0.190
21.320,0.151
21.325,0.139
21.330,0.128
21.335,0.123
21.340,0.130
21.345,0.113
21.350,0.089
21.355,0.090
21.360,0.096
21.365,0.093
21.370,0.080
21.375,0.068
21.380,0.064
21.385,0.062
21.390,0.065
21.395,0.059
21.400,0.033
21.405,0.022
21.410,0.023
21.415,0.023
21.420,0.028
21.425,0.029
21.430,0.011
21.435,-0.009
21.440,-0.013
21.445,-0.015
21.450,-0.024
21.455,-0.041
21.460,-0.050
21.465,-0.035
21.470,-0.043
21.475,-0.086
21.480,-0.111
21.485,-0.117
21.490,-0.130
21.495,-0.146
21.500,-0.161
21.505,-0.181
21.510,-0.205
21.515,-0.229
21.520,-0.245
21.525,-0.255
21.530,-0.270
21.535,-0.291
21.540,-0.290
21.545,-0.269
21.550,-0.264
21.555,-0.265
21.560,-0.245
21.565,-0.224
21.570,-0.193
21.575,-0.135
21.580,-0.070
21.585,-0.008
21.590,0.039
21.595,0.081
21.600,0.143
21.605,0.195
21.610,0.226
21.615,0.257
21.620,0.276
21.625,0.287
21.630,0.296
21.635,0.288
21.640,0.290
21.645,0.301
21.650,0.292
21.655,0.280
21.660,0.266
21.665,0.261
21.670,0.270
21.675,0.249
21.680,0.231
21.685,0.229
21.690,0.207
21.695,0.205
21.700,0.202
21.705,0.175
21.710,0.164
21.715,0.155
21.720,0.164
21.725,0.180
21.730,0.153
21.735,0.110
21.740,0.102
21.745,0.107
21.750,0.098
21.755,0.095
21.760,0.095
21.765,0.093
21.770,0.081
21.775,0.054
21.780,0.041
21.785,0.037
21.790,0.032
21.795,0.037
21.800,0.045
21.805,0.056
21.810,0.041
21.815,0.013
21.820,0.010
21.825,0.008
21.830,-0.005
21.835,-0.005
21.840,0.020
21.845,0.028
21.850,0.000
21.855,-0.016
21.860,-0.013
21.865,-0.014
21.870,-0.015
21.875,-0.019
21.880,-0.018
21.885,-0.008
21.890,-0.016
21.895,-0.018
21.900,-0.013
21.905,-0.042
21.910,-0.056
21.915,-0.040
21.920,-0.023
21.925,-0.023
21.930,-0.036
21.935,-0.036
21.940,-0.036
21.945,-0.030
21.950,-0.023
21.955,-0.040
21.960,-0.057
21.965,-0.060
21.970,-0.052
21.975,-0.043
21.980,-0.051
21.985,-0.050
21.990,-0.023
21.995,-0.035
22.000,-0.068
22.005,-0.069
22.010,-0.055
22.015,-0.032
22.020,-0.032
22.025,-0.057
22.030,-0.066
22.035,-0.059
22.040,-0.069
22.045,-0.089
22.050,-0.094
22.055,-0.094
22.060,-0.098
22.065,-0.104
22.070,-0.123
22.075,-0.125
22.080,-0.105
22.085,-0.104
22.090,-0.105
22.095,-0.093
22.100,-0.106
22.105,-0.115
22.110,-0.090
22.115,-0.065
22.120,-0.047
22.125,-0.048
22.130,-0.066
22.135,-0.061
22.140,-0.034
22.145,-0.005
22.150,0.024
22.155,0.033
22.160,0.022
22.165,0.016
22.170,0.032
22.175,0.061
22.180,0.066
22.185,0.051
22.190,0.035
22.195,0.032
22.200,0.037
22.205,0.028
22.210,0.009
22.215,-0.006
22.220,-0.015
22.225,-0.007
22.230,0.007
22.235,-0.001
22.240,0.004
22.245,0.010
22.250,-0.007
22.255,-0.006
22.260,-0.006
22.265,-0.067
22.270,-0.252
22.275,-0.641
22.280,-1.121
22.285,-1.393
22.290,-1.191
22.295,-0.557
22.300,0.131
22.305,0.581
22.310,0.690
22.315,0.568
22.320,0.413
22.325,0.295
22.330,0.230
22.335,0.194
22.340,0.159
22.345,0.138
22.350,0.124
22.355,0.115
22.360,0.125
22.365,0.134
22.370,0.119
22.375,0.093
22.380,0.082
22.385,0.092
22.390,0.090
22.395,0.082
22.400,0.096
22.405,0.085
22.410,0.052
22.415,0.058
22.420,0.047
22.425,0.023
22.430,0.027
22.435,0.029
22.440,0.034
22.445,0.013
22.450,-0.017
22.455,0.004
22.460,0.013
22.465,-0.006
22.470,-0.008
22.475,-0.033
22.480,-0.068
22.485,-0.075
22.490,-0.077
22.495,-0.062
22.500,-0.058
22.505,-0.085
22.510,-0.111
22.515,-0.149
22.520,-0.183
22.525,-0.179
22.530,-0.182
22.535,-0.212
22.540,-0.240
22.545,-0.273
22.550,-0.297
22.555,-0.307
22.560,-0.309
22.565,-0.294
22.570,-0.300
22.575,-0.303
22.580,-0.246
22.585,-0.204
22.590,-0.189
22.595,-0.154
22.600,-0.097
22.605,-0.009
22.610,0.057
22.615,0.092
22.620,0.135
22.625,0.178
22.630,0.235
22.635,0.271
22.640,0.272
22.645,0.298
22.650,0.325
22.655,0.326
22.660,0.314
22.665,0.283
22.670,0.272
22.675,0.284
22.680,0.277
22.685,0.281
22.690,0.283
22.695,0.245
22.700,0.228
22.705,0.236
22.710,0.217
22.715,0.195
22.720,0.190
22.725,0.188
22.730,0.192
22.735,0.191
22.740,0.171
22.745,0.153
22.750,0.142
22.755,0.131
22.760,0.128
22.765,0.111
22.770,0.086
22.775,0.085
22.780,0.095
22.785,0.086
22.790,0.070
22.795,0.079
22.800,0.060
22.805,0.034
22.810,0.043
22.815,0.026
22.820,0.016
22.825,0.035
22.830,0.038
22.835,0.025
22.840,0.009
22.845,0.016
22.850,0.017
22.855,-0.009
22.860,-0.031
22.865,-0.030
22.870,-0.008
22.875,-0.004
22.880,-0.008
22.885,-0.003
22.890,-0.019
22.895,-0.034
22.900,-0.025
22.905,-0.003
22.910,0.004
22.915,-0.028
22.920,-0.046
22.925,-0.035
22.930,-0.051
22.935,-0.052
22.940,-0.040
22.945,-0.043
22.950,-0.021
22.955,-0.033
22.960,-0.053
22.965,-0.034
22.970,-0.047
22.975,-0.067
22.980,-0.060
22.985,-0.053
22.990,-0.040
22.995,-0.040
23.000,-0.052
23.005,-0.053
23.010,-0.069
23.015,-0.065
23.020,-0.040
23.025,-0.047
23.030,-0.081
23.035,-0.118
23.040,-0.125
23.045,-0.113
23.050,-0.113
23.055,-0.121
23.060,-0.116
23.065,-0.106
23.070,-0.111
23.075,-0.110
23.080,-0.094
23.085,-0.092
23.090,-0.096
23.095,-0.078
23.100,-0.059
23.105,-0.068
23.110,-0.094
23.115,-0.092
23.120,-0.042
23.125,-0.003
23.130,0.005
23.135,0.014
23.140,0.047
23.145,0.075
23.150,0.060
23.155,0.025
23.160,0.012
23.165,0.020
23.170,0.027
23.175,0.026
23.180,0.024
23.185,0.034
23.190,0.041
23.195,0.024
23.200,-0.003
23.205,-0.015
23.210,-0.002
23.215,0.011
23.220,-0.003
23.225,-0.020
23.230,-0.028
23.235,-0.020
23.240,0.000
23.245,-0.062
23.250,-0.288
23.255,-0.682
23.260,-1.150
23.265,-1.374
23.270,-1.080
23.275,-0.447
23.280,0.200
23.285,0.617
23.290,0.669
23.295,0.540
23.300,0.398
23.305,0.273
23.310,0.212
23.315,0.185
23.320,0.149
23.325,0.143
23.330,0.143
23.335,0.103
23.340,0.103
23.345,0.133
23.350,0.115
23.355,0.091
23.360,0.088
23.365,0.091
23.370,0.097
23.375,0.080
23.380,0.063
23.385,0.069
23.390,0.058
23.395,0.060
23.400,0.060
23.405,0.036
23.410,0.034
23.415,0.049
23.420,0.055
23.425,0.027
23.430,-0.004
23.435,-0.008
23.440,0.000
23.445,-0.003
23.450,-0.032
23.455,-0.038
23.460,-0.027
23.465,-0.053
23.470,-0.065
23.475,-0.055
23.480,-0.069
23.485,-0.095
23.490,-0.129
23.495,-0.151
23.500,-0.157
23.505,-0.179
23.510,-0.206
23.515,-0.211
23.520,-0.224
23.525,-0.256
23.530,-0.277
23.535,-0.292
23.540,-0.292
23.545,-0.285
23.550,-0.293
23.555,-0.291
23.560,-0.256
23.565,-0.210
23.570,-0.160
23.575,-0.112
23.580,-0.076
23.585,-0.014
23.590,0.058
23.595,0.103
23.600,0.155
23.605,0.211
23.610,0.241
23.615,0.251
23.620,0.265
23.625,0.284
23.630,0.308
23.635,0.325
23.640,0.295
23.645,0.283
23.650,0.309
23.655,0.290
23.660,0.258
23.665,0.244
23.670,0.240
23.675,0.251
23.680,0.240
23.685,0.223
23.690,0.219
23.695,0.205
23.700,0.187
23.705,0.180
23.710,0.185
23.715,0.177
23.720,0.145
23.725,0.135
23.730,0.147
23.735,0.141
23.740,0.123
23.745,0.112
23.750,0.106
23.755,0.081
23.760,0.069
23.765,0.086
23.770,0.086
23.775,0.065
23.780,0.049
23.785,0.052
23.790,0.057
23.795,0.043
23.800,0.037
23.805,0.048
23.810,0.050
23.815,0.034
23.820,0.023
23.825,0.010
23.830,-0.002
23.835,-0.003
23.840,-0.004
23.845,0.000
23.850,-0.005
23.855,-0.012
23.860,-0.015
23.865,-0.025
23.870,-0.023
23.875,-0.009
23.880,-0.012
23.885,-0.024
23.890,-0.033
23.895,-0.040
23.900,-0.039
23.905,-0.037
23.910,-0.041
23.915,-0.038
23.920,-0.027
23.925,-0.019
23.930,-0.044
23.935,-0.063
23.940,-0.039
23.945,-0.042
23.950,-0.060
23.955,-0.055
23.960,-0.048
23.965,-0.043
23.970,-0.062
23.975,-0.084
23.980,-0.086
23.985,-0.099
23.990,-0.121
23.995,-0.118
24.000,-0.117
24.005,-0.136
24.010,-0.125
24.015,-0.100
24.020,-0.105
24.025,-0.113
24.030,-0.110
24.035,-0.116
24.040,-0.115
24.045,-0.099
24.050,-0.081
24.055,-0.058
24.060,-0.061
24.065,-0.074
24.070,-0.053
24.075,-0.032
24.080,-0.014
24.085,0.007
24.090,0.010
24.095,0.012
24.100,0.028
24.105,0.042
24.110,0.036
24.115,0.026
24.120,0.021
24.125,0.018
24.130,0.014
24.135,0.001
24.140,-0.014
24.145,-0.013
24.150,-0.005
24.155,-0.002
24.160,-0.011
24.165,-0.026
24.170,-0.026
24.175,-0.021
24.180,-0.032
24.185,-0.041
24.190,-0.055
24.195,-0.145
24.200,-0.368
24.205,-0.761
24.210,-1.210
24.215,-1.359
24.220,-0.987
24.225,-0.311
24.230,0.309
24.235,0.627
24.240,0.618
24.245,0.481
24.250,0.327
24.255,0.208
24.260,0.164
24.265,0.142
24.270,0.124
24.275,0.121
24.280,0.116
24.285,0.094
24.290,0.086
24.295,0.097
24.300,0.092
24.305,0.083
24.310,0.084
24.315,0.081
24.320,0.069
24.325,0.061
24.330,0.057
24.335,0.050
24.340,0.047
24.345,0.046
24.350,0.043
24.355,0.041
24.360,0.036
24.365,0.027
24.370,0.018
24.375,0.015
24.380,0.015
24.385,0.007
24.390,-0.005
24.395,-0.013
24.400,-0.016
24.405,-0.026
24.410,-0.045
24.415,-0.054
24.420,-0.055
24.425,-0.061
24.430,-0.075
24.435,-0.089
24.440,-0.105
24.445,-0.128
24.450,-0.152
24.455,-0.170
24.460,-0.184
24.465,-0.198
24.470,-0.214
24.475,-0.229
24.480,-0.240
24.485,-0.248
24.490,-0.255
24.495,-0.256
24.500,-0.251
24.505,-0.237
24.510,-0.216
24.515,-0.188
24.520,-0.149
24.525,-0.102
24.530,-0.049
24.535,0.002
24.540,0.051
24.545,0.101
24.550,0.148
24.555,0.188
24.560,0.223
24.565,0.251
24.570,0.265
24.575,0.274
24.580,0.286
24.585,0.293
24.590,0.291
24.595,0.280
24.600,0.272
24.605,0.268
24.610,0.264
24.615,0.255
24.620,0.242
24.625,0.236
24.630,0.231
24.635,0.218
24.640,0.204
24.645,0.197
24.650,0.187
24.655,0.174
24.660,0.161
24.665,0.153
24.670,0.152
24.675,0.145
24.680,0.134
24.685,0.126
24.690,0.117
24.695,0.107
24.700,0.101
24.705,0.096
24.710,0.090
24.715,0.079
24.720,0.069
24.725,0.062
24.730,0.053
24.735,0.045
24.740,0.042
24.745,0.040
24.750,0.032
24.755,0.023
24.760,0.019
24.765,0.019
24.770,0.015
24.775,0.010
24.780,0.006
24.785,0.003
24.790,-0.001
24.795,-0.003
24.800,0.000
24.805,-0.001
24.810,-0.006
24.815,-0.011
24.820,-0.013
24.825,-0.012
24.830,-0.014
24.835,-0.017
24.840,-0.020
24.845,-0.022
24.850,-0.024
24.855,-0.027
24.860,-0.030
24.865,-0.031
24.870,-0.031
24.875,-0.031
24.880,-0.033
24.885,-0.038
24.890,-0.040
24.895,-0.042
24.900,-0.053
24.905,-0.073
24.910,-0.092
24.915,-0.106
24.920,-0.113
24.925,-0.118
24.930,-0.125
24.935,-0.126
24.940,-0.115
24.945,-0.107
24.950,-0.103
24.955,-0.103
24.960,-0.104
24.965,-0.096
24.970,-0.080
24.975,-0.064
24.980,-0.055
24.985,-0.055
24.990,-0.053
24.995,-0.037
25.000,-0.020
25.005,-0.007
25.010,0.006
25.015,0.020
25.020,0.031
25.025,0.036
25.030,0.041
25.035,0.046
25.040,0.041
25.045,0.031
25.050,0.023
25.055,0.021
25.060,0.023
25.065,0.022
25.070,0.018
25.075,0.014
25.080,0.009
25.085,0.003
25.090,-0.002
25.095,-0.005
25.100,-0.012
25.105,-0.031
25.110,-0.050
25.115,-0.071
25.120,-0.145
25.125,-0.338
25.130,-0.683
25.135,-1.074
25.140,-1.197
25.145,-0.840
25.150,-0.208
25.155,0.343
25.160,0.614
25.165,0.597
25.170,0.453
25.175,0.295
25.180,0.178
25.185,0.139
25.190,0.128
25.195,0.103
25.200,0.094
25.205,0.098
25.210,0.086
25.215,0.073
25.220,0.070
25.225,0.067
25.230,0.060
25.235,0.057
25.240,0.055
25.245,0.047
25.250,0.037
25.255,0.033
25.260,0.027
25.265,0.024
25.270,0.026
25.275,0.023
25.280,0.016
25.285,0.013
25.290,0.010
25.295,0.005
25.300,-0.002
25.305,-0.008
25.310,-0.016
25.315,-0.023
25.320,-0.031
25.325,-0.039
25.330,-0.048
25.335,-0.059
25.340,-0.068
25.345,-0.078
25.350,-0.087
25.355,-0.096
25.360,-0.113
25.365,-0.131
25.370,-0.146
25.375,-0.162
25.380,-0.176
25.385,-0.190
25.390,-0.207
25.395,-0.223
25.400,-0.241
25.405,-0.254
25.410,-0.258
25.415,-0.256
25.420,-0.255
25.425,-0.249
25.430,-0.237
25.435,-0.214
25.440,-0.181
25.445,-0.144
25.450,-0.102
25.455,-0.054
25.460,-0.001
25.465,0.053
25.470,0.100
25.475,0.144
25.480,0.185
25.485,0.215
25.490,0.237
25.495,0.253
25.500,0.265
25.505,0.272
25.510,0.274
25.515,0.273
25.520,0.267
25.525,0.262
25.530,0.260
25.535,0.256
25.540,0.249
25.545,0.236
25.550,0.225
25.555,0.221
25.560,0.216
25.565,0.208
25.570,0.197
25.575,0.184
25.580,0.173
25.585,0.162
25.590,0.153
25.595,0.148
25.600,0.142
25.605,0.132
25.610,0.121
25.615,0.115
25.620,0.109
25.625,0.099
25.630,0.095
25.635,0.091
25.640,0.083
25.645,0.074
25.650,0.067
25.655,0.065
25.660,0.058
25.665,0.044
25.670,0.033
25.675,0.029
25.680,0.026
25.685,0.024
25.690,0.021
25.695,0.017
25.700,0.015
25.705,0.014
25.710,0.012
25.715,0.009
25.720,0.007
25.725,0.003
25.730,-0.002
25.735,-0.007
25.740,-0.010
25.745,-0.011
25.750,-0.010
25.755,-0.011
25.760,-0.015
25.765,-0.019
25.770,-0.021
25.775,-0.017
25.780,-0.017
25.785,-0.025
25.790,-0.030
25.795,-0.029
25.800,-0.028
25.805,-0.030
25.810,-0.034
25.815,-0.037
25.820,-0.037
25.825,-0.035
25.830,-0.040
25.835,-0.052
25.840,-0.069
25.845,-0.088
25.850,-0.104
25.855,-0.115
25.860,-0.122
25.865,-0.129
25.870,-0.127
25.875,-0.116
25.880,-0.110
25.885,-0.110
25.890,-0.110
25.895,-0.108
25.900,-0.100
25.905,-0.082
25.910,-0.065
25.915,-0.055
25.920,-0.053
25.925,-0.049
25.930,-0.032
25.935,-0.020
25.940,-0.011
25.945,0.005
25.950,0.021
25.955,0.034
25.960,0.039
25.965,0.042
25.970,0.045
25.975,0.041
25.980,0.033
25.985,0.027
25.990,0.022
25.995,0.015
26.000,0.013
26.005,0.014
26.010,0.009
26.015,0.005
26.020,0.001
26.025,-0.002
26.030,-0.002
26.035,-0.011
26.040,-0.029
26.045,-0.046
26.050,-0.061
26.055,-0.123
26.060,-0.295
26.065,-0.612
26.070,-1.005
26.075,-1.189
26.080,-0.910
26.085,-0.309
26.090,0.275
26.095,0.610
26.100,0.632
26.105,0.490
26.110,0.326
26.115,0.196
26.120,0.145
26.125,0.127
26.130,0.096
26.135,0.083
26.140,0.090
26.145,0.079
26.150,0.065
26.155,0.065
26.160,0.061
26.165,0.050
26.170,0.045
26.175,0.043
26.180,0.037
26.185,0.032
26.190,0.032
26.195,0.029
26.200,0.019
26.205,0.012
26.210,0.009
26.215,0.008
26.220,0.008
26.225,0.002
26.230,-0.005
26.235,-0.012
26.240,-0.021
26.245,-0.027
26.250,-0.032
26.255,-0.036
26.260,-0.044
26.265,-0.053
26.270,-0.060
26.275,-0.068
26.280,-0.080
26.285,-0.094
26.290,-0.108
26.295,-0.123
26.300,-0.138
26.305,-0.152
26.310,-0.168
26.315,-0.183
26.320,-0.196
26.325,-0.212
26.330,-0.226
26.335,-0.240
26.340,-0.251
26.345,-0.256
26.350,-0.263
26.355,-0.266
26.360,-0.258
26.365,-0.242
26.370,-0.223
26.375,-0.192
26.380,-0.150
26.385,-0.104
26.390,-0.056
26.395,-0.005
26.400,0.045
26.405,0.096
26.410,0.139
26.415,0.174
26.420,0.209
26.425,0.235
26.430,0.251
26.435,0.264
26.440,0.270
26.445,0.275
26.450,0.276
26.455,0.272
26.460,0.267
26.465,0.259
26.470,0.247
26.475,0.237
26.480,0.230
26.485,0.224
26.490,0.221
26.495,0.214
26.500,0.204
26.505,0.196
26.510,0.186
26.515,0.172
26.520,0.159
26.525,0.150
26.530,0.143
26.535,0.132
26.540,0.125
26.545,0.121
26.550,0.114
26.555,0.107
26.560,0.096
26.565,0.087
26.570,0.083
26.575,0.075
26.580,0.068
26.585,0.062
26.590,0.055
26.595,0.049
26.600,0.045
26.605,0.038
26.610,0.030
26.615,0.028
26.620,0.027
26.625,0.024
26.630,0.019
26.635,0.017
26.640,0.016
26.645,0.013
26.650,0.007
26.655,0.005
26.660,0.007
26.665,0.005
26.670,0.000
26.675,-0.002
26.680,0.000
26.685,-0.002
26.690,-0.007
26.695,-0.010
26.700,-0.014
26.705,-0.018
26.710,-0.023
26.715,-0.024
26.720,-0.018
26.725,-0.017
26.730,-0.021
26.735,-0.024
26.740,-0.027
26.745,-0.031
26.750,-0.033
26.755,-0.035
26.760,-0.033
26.765,-0.033
26.770,-0.037
26.775,-0.037
26.780,-0.036
26.785,-0.036
26.790,-0.035
26.795,-0.038
26.800,-0.045
26.805,-0.048
26.810,-0.051
26.815,-0.065
26.820,-0.084
26.825,-0.098
26.830,-0.111
26.835,-0.113
26.840,-0.116
26.845,-0.124
26.850,-0.119
26.855,-0.107
26.860,-0.106
26.865,-0.111
26.870,-0.112
26.875,-0.107
26.880,-0.089
26.885,-0.069
26.890,-0.058
26.895,-0.052
26.900,-0.046
26.905,-0.036
26.910,-0.020
26.915,-0.007
26.920,0.005
26.925,0.021
26.930,0.036
26.935,0.043
26.940,0.046
26.945,0.049
26.950,0.045
26.955,0.038
26.960,0.037
26.965,0.038
26.970,0.033
26.975,0.028
26.980,0.027
26.985,0.022
26.990,0.012
26.995,0.007
27.000,0.003
27.005,-0.005
27.010,-0.010
27.015,-0.013
27.020,-0.023
27.025,-0.038
27.030,-0.044
27.035,-0.084
27.040,-0.240
27.045,-0.561
27.050,-0.966
27.055,-1.185
27.060,-0.955
27.065,-0.377
27.070,0.218
27.075,0.589
27.080,0.642
27.085,0.511
27.090,0.354
27.095,0.220
27.100,0.153
27.105,0.137
27.110,0.112
27.115,0.087
27.120,0.086
27.125,0.078
27.130,0.062
27.135,0.060
27.140,0.057
27.145,0.056
27.150,0.052
27.155,0.038
27.160,0.030
27.165,0.031
27.170,0.031
27.175,0.024
27.180,0.020
27.185,0.018
27.190,0.006
27.195,-0.003
27.200,0.001
27.205,0.004
27.210,0.000
27.215,-0.005
27.220,-0.014
27.225,-0.028
27.230,-0.037
27.235,-0.043
27.240,-0.048
27.245,-0.055
27.250,-0.071
27.255,-0.081
27.260,-0.083
27.265,-0.093
27.270,-0.104
27.275,-0.117
27.280,-0.134
27.285,-0.152
27.290,-0.165
27.295,-0.178
27.300,-0.196
27.305,-0.215
27.310,-0.231
27.315,-0.241
27.320,-0.249
27.325,-0.256
27.330,-0.260
27.335,-0.260
27.340,-0.251
27.345,-0.244
27.350,-0.232
27.355,-0.197
27.360,-0.149
27.365,-0.100
27.370,-0.053
27.375,-0.009
27.380,0.044
27.385,0.096
27.390,0.136
27.395,0.175
27.400,0.211
27.405,0.236
27.410,0.254
27.415,0.270
27.420,0.281
27.425,0.287
27.430,0.293
27.435,0.293
27.440,0.290
27.445,0.282
27.450,0.267
27.455,0.259
27.460,0.253
27.465,0.239
27.470,0.225
27.475,0.214
27.480,0.209
27.485,0.207
27.490,0.196
27.495,0.177
27.500,0.164
27.505,0.159
27.510,0.159
27.515,0.153
27.520,0.137
27.525,0.122
27.530,0.110
27.535,0.106
27.540,0.106
27.545,0.102
27.550,0.092
27.555,0.080
27.560,0.072
27.565,0.069
27.570,0.065
27.575,0.054
27.580,0.040
27.585,0.035
27.590,0.038
27.595,0.045
27.600,0.045
27.605,0.035
27.610,0.025
27.615,0.022
27.620,0.017
27.625,0.014
27.630,0.014
27.635,0.016
27.640,0.020
27.645,0.022
27.650,0.016
27.655,0.010
27.660,0.005
27.665,-0.003
27.670,-0.008
27.675,-0.012
27.680,-0.016
27.685,-0.012
27.690,-0.012
27.695,-0.020
27.700,-0.018
27.705,-0.011
27.710,-0.008
27.715,-0.013
27.720,-0.029
27.725,-0.038
27.730,-0.036
27.735,-0.031
27.740,-0.028
27.745,-0.038
27.750,-0.045
27.755,-0.037
27.760,-0.029
27.765,-0.029
27.770,-0.038
27.775,-0.047
27.780,-0.054
27.785,-0.055
27.790,-0.048
27.795,-0.043
27.800,-0.043
27.805,-0.042
27.810,-0.041
27.815,-0.044
27.820,-0.053
27.825,-0.069
27.830,-0.088
27.835,-0.100
27.840,-0.104
27.845,-0.105
27.850,-0.103
27.855,-0.110
27.860,-0.114
27.865,-0.107
27.870,-0.108
27.875,-0.112
27.880,-0.114
27.885,-0.113
27.890,-0.096
27.895,-0.068
27.900,-0.046
27.905,-0.044
27.910,-0.046
27.915,-0.039
27.920,-0.018
27.925,0.006
27.930,0.019
27.935,0.028
27.940,0.035
27.945,0.043
27.950,0.049
27.955,0.043
27.960,0.035
27.965,0.041
27.970,0.047
27.975,0.035
27.980,0.014
27.985,0.006
27.990,0.014
27.995,0.020
28.000,0.020
28.005,0.010
28.010,0.002
28.015,-0.004
28.020,-0.010
28.025,-0.004
28.030,-0.002
28.035,-0.004
28.040,-0.017
28.045,-0.121
28.050,-0.393
28.055,-0.831
28.060,-1.233
28.065,-1.244
28.070,-0.772
28.075,-0.105
28.080,0.441
28.085,0.676
28.090,0.606
28.095,0.455
28.100,0.321
28.105,0.225
28.110,0.186
28.115,0.145
28.120,0.113
28.125,0.114
28.130,0.106
28.135,0.095
28.140,0.097
28.145,0.089
28.150,0.065
28.155,0.054
28.160,0.055
28.165,0.047
28.170,0.048
28.175,0.061
28.180,0.062
28.185,0.045
28.190,0.030
28.195,0.013
28.200,0.003
28.205,0.007
28.210,0.008
28.215,0.009
28.220,0.006
28.225,-0.004
28.230,-0.010
28.235,-0.022
28.240,-0.036
28.245,-0.040
28.250,-0.042
28.255,-0.048
28.260,-0.061
28.265,-0.081
28.270,-0.095
28.275,-0.099
28.280,-0.116
28.285,-0.137
28.290,-0.145
28.295,-0.158
28.300,-0.173
28.305,-0.191
28.310,-0.211
28.315,-0.219
28.320,-0.233
28.325,-0.250
28.330,-0.257
28.335,-0.262
28.340,-0.264
28.345,-0.260
28.350,-0.259
28.355,-0.249
28.360,-0.216
28.365,-0.176
28.370,-0.141
28.375,-0.104
28.380,-0.048
28.385,0.022
28.390,0.076
28.395,0.114
28.400,0.154
28.405,0.199
28.410,0.231
28.415,0.249
28.420,0.258
28.425,0.268
28.430,0.288
28.435,0.304
28.440,0.299
28.445,0.285
28.450,0.273
28.455,0.261
28.460,0.258
28.465,0.251
28.470,0.239
28.475,0.230
28.480,0.219
28.485,0.210
28.490,0.208
28.495,0.204
28.500,0.189
28.505,0.170
28.510,0.157
28.515,0.150
28.520,0.144
28.525,0.136
28.530,0.124
28.535,0.120
28.540,0.123
28.545,0.103
28.550,0.073
28.555,0.069
28.560,0.066
28.565,0.070
28.570,0.079
28.575,0.076
28.580,0.061
28.585,0.048
28.590,0.046
28.595,0.047
28.600,0.041
28.605,0.030
28.610,0.026
28.615,0.031
28.620,0.030
28.625,0.019
28.630,0.020
28.635,0.028
28.640,0.025
28.645,0.024
28.650,0.015
28.655,0.008
28.660,0.002
28.665,-0.007
28.670,-0.007
28.675,-0.004
28.680,-0.006
28.685,-0.018
28.690,-0.017
28.695,0.001
28.700,0.002
28.705,-0.018
28.710,-0.033
28.715,-0.027
28.720,-0.019
28.725,-0.020
28.730,-0.023
28.735,-0.038
28.740,-0.039
28.745,-0.029
28.750,-0.035
28.755,-0.043
28.760,-0.047
28.765,-0.042
28.770,-0.035
28.775,-0.046
28.780,-0.059
28.785,-0.052
28.790,-0.036
28.795,-0.031
28.800,-0.046
28.805,-0.054
28.810,-0.046
28.815,-0.046
28.820,-0.048
28.825,-0.053
28.830,-0.058
28.835,-0.050
28.840,-0.041
28.845,-0.040
28.850,-0.052
28.855,-0.081
28.860,-0.106
28.865,-0.109
28.870,-0.102
28.875,-0.107
28.880,-0.113
28.885,-0.104
28.890,-0.102
28.895,-0.104
28.900,-0.109
28.905,-0.115
28.910,-0.112
28.915,-0.105
28.920,-0.088
28.925,-0.061
28.930,-0.055
28.935,-0.070
28.940,-0.071
28.945,-0.049
28.950,-0.024
28.955,-0.005
28.960,0.011
28.965,0.038
28.970,0.058
28.975,0.045
28.980,0.035
28.985,0.040
28.990,0.044
28.995,0.037
29.000,0.022
29.005,0.021
29.010,0.024
29.015,0.023
29.020,0.032
29.025,0.028
29.030,0.017
29.035,0.016
29.040,0.006
29.045,-0.008
29.050,-0.017
29.055,-0.023
29.060,-0.010
29.065,0.005
29.070,-0.005
29.075,-0.084
29.080,-0.319
29.085,-0.730
29.090,-1.191
29.095,-1.374
29.100,-1.022
29.105,-0.349
29.110,0.285
29.115,0.649
29.120,0.658
29.125,0.514
29.130,0.373
29.135,0.264
29.140,0.222
29.145,0.186
29.150,0.138
29.155,0.133
29.160,0.150
29.165,0.137
29.170,0.113
29.175,0.103
29.180,0.098
29.185,0.100
29.190,0.092
29.195,0.081
29.200,0.077
29.205,0.071
29.210,0.065
29.215,0.054
29.220,0.052
29.225,0.055
29.230,0.041
29.235,0.033
29.240,0.037
29.245,0.029
29.250,0.006
29.255,-0.011
29.260,-0.011
29.265,0.001
29.270,-0.005
29.275,-0.024
29.280,-0.033
29.285,-0.041
29.290,-0.048
29.295,-0.051
29.300,-0.065
29.305,-0.089
29.310,-0.105
29.315,-0.122
29.320,-0.136
29.325,-0.152
29.330,-0.172
29.335,-0.178
29.340,-0.181
29.345,-0.213
29.350,-0.254
29.355,-0.261
29.360,-0.251
29.365,-0.262
29.370,-0.287
29.375,-0.295
29.380,-0.275
29.385,-0.235
29.390,-0.209
29.395,-0.197
29.400,-0.165
29.405,-0.123
29.410,-0.070
29.415,-0.006
29.420,0.046
29.425,0.096
29.430,0.140
29.435,0.182
29.440,0.219
29.445,0.239
29.450,0.262
29.455,0.278
29.460,0.287
29.465,0.303
29.470,0.295
29.475,0.284
29.480,0.292
29.485,0.279
29.490,0.264
29.495,0.256
29.500,0.240
29.505,0.233
29.510,0.224
29.515,0.211
29.520,0.208
29.525,0.205
29.530,0.190
29.535,0.180
29.540,0.176
29.545,0.158
29.550,0.142
29.555,0.141
29.560,0.137
29.565,0.122
29.570,0.106
29.575,0.093
29.580,0.090
29.585,0.085
29.590,0.078
29.595,0.076
29.600,0.068
29.605,0.055
29.610,0.048
29.615,0.048
29.620,0.045
29.625,0.035
29.630,0.030
29.635,0.026
29.640,0.023
29.645,0.022
29.650,0.016
29.655,0.011
29.660,0.004
29.665,0.003
29.670,0.011
29.675,0.013
29.680,0.005
29.685,-0.009
29.690,-0.014
29.695,-0.008
29.700,-0.006
29.705,-0.010
29.710,-0.016
29.715,-0.022
29.720,-0.026
29.725,-0.026
29.730,-0.023
29.735,-0.022
29.740,-0.028
29.745,-0.034
29.750,-0.035
29.755,-0.040
29.760,-0.049
29.765,-0.048
29.770,-0.041
29.775,-0.035
29.780,-0.035
29.785,-0.044
29.790,-0.053
29.795,-0.055
29.800,-0.056
29.805,-0.056
29.810,-0.047
29.815,-0.038
29.820,-0.039
29.825,-0.048
29.830,-0.060
29.835,-0.065
29.840,-0.056
29.845,-0.053
29.850,-0.061
29.855,-0.063
29.860,-0.062
29.865,-0.058
29.870,-0.052
29.875,-0.053
29.880,-0.056
29.885,-0.052
29.890,-0.048
29.895,-0.048
29.900,-0.055
29.905,-0.072
29.910,-0.089
29.915,-0.099
29.920,-0.103
29.925,-0.112
29.930,-0.119
29.935,-0.121
29.940,-0.113
29.945,-0.102
29.950,-0.104
29.955,-0.107
29.960,-0.105
29.965,-0.102
29.970,-0.087
29.975,-0.068
29.980,-0.054
29.985,-0.050
29.990,-0.046
29.995,-0.025
30.000,-0.007
30.005,-0.003
30.010,0.003
30.015,0.015
30.020,0.032
30.025,0.048
30.030,0.060
30.035,0.066
30.040,0.062
30.045,0.050
30.050,0.043
30.055,0.042
30.060,0.037
30.065,0.032
30.070,0.029
30.075,0.025
30.080,0.023
30.085,0.022
30.090,0.018
30.095,0.012
30.100,0.007
30.105,0.004
30.110,-0.005
30.115,-0.010
30.120,-0.008
30.125,-0.061
30.130,-0.235
30.135,-0.575
30.140,-1.030
30.145,-1.321
30.150,-1.130
30.155,-0.520
30.160,0.141
30.165,0.575
30.170,0.674
30.175,0.566
30.180,0.422
30.185,0.287
30.190,0.214
30.195,0.189
30.200,0.156
30.205,0.134
30.210,0.136
30.215,0.128
30.220,0.115
30.225,0.118
30.230,0.115
30.235,0.101
30.240,0.093
30.245,0.086
30.250,0.072
30.255,0.061
30.260,0.059
30.265,0.059
30.270,0.057
30.275,0.055
30.280,0.047
30.285,0.035
30.290,0.026
30.295,0.021
30.300,0.020
30.305,0.015
30.310,0.004
30.315,-0.004
30.320,-0.009
30.325,-0.014
30.330,-0.021
30.335,-0.034
30.340,-0.047
30.345,-0.056
30.350,-0.066
30.355,-0.078
30.360,-0.093
30.365,-0.107
30.370,-0.120
30.375,-0.135
30.380,-0.154
30.385,-0.171
30.390,-0.189
30.395,-0.206
30.400,-0.223
30.405,-0.240
30.410,-0.248
30.415,-0.256
30.420,-0.264
30.425,-0.266
30.430,-0.263
30.435,-0.250
30.440,-0.229
30.445,-0.201
30.450,-0.165
30.455,-0.124
30.460,-0.081
30.465,-0.032
30.470,0.018
30.475,0.067
30.480,0.115
30.485,0.163
30.490,0.205
30.495,0.233
30.500,0.247
30.505,0.257
30.510,0.270
30.515,0.280
30.520,0.280
30.525,0.279
30.530,0.283
30.535,0.283
30.540,0.274
30.545,0.262
30.550,0.251
30.555,0.243
30.560,0.232
30.565,0.217
30.570,0.205
30.575,0.194
30.580,0.187
30.585,0.185
30.590,0.181
30.595,0.170
30.600,0.153
30.605,0.140
30.610,0.133
30.615,0.124
30.620,0.119
30.625,0.115
30.630,0.107
30.635,0.098
30.640,0.090
30.645,0.080
30.650,0.072
30.655,0.062
30.660,0.056
30.665,0.054
30.670,0.046
30.675,0.037
30.680,0.036
30.685,0.035
30.690,0.031
30.695,0.026
30.700,0.022
30.705,0.020
30.710,0.016
30.715,0.011
30.720,0.008
30.725,0.007
30.730,0.007
30.735,0.008
30.740,0.007
30.745,0.003
30.750,0.001
30.755,0.000
30.760,-0.004
30.765,-0.010
30.770,-0.013
30.775,-0.011
30.780,-0.010
30.785,-0.012
30.790,-0.016
30.795,-0.020
30.800,-0.024
30.805,-0.030
30.810,-0.033
30.815,-0.035
30.820,-0.036
30.825,-0.036
30.830,-0.035
30.835,-0.035
30.840,-0.038
30.845,-0.040
30.850,-0.039
30.855,-0.038
30.860,-0.041
30.865,-0.044
30.870,-0.046
30.875,-0.046
30.880,-0.045
30.885,-0.045
30.890,-0.042
30.895,-0.042
30.900,-0.046
30.905,-0.048
30.910,-0.050
30.915,-0.052
30.920,-0.052
30.925,-0.053
30.930,-0.049
30.935,-0.045
30.940,-0.047
30.945,-0.049
30.950,-0.049
30.955,-0.048
30.960,-0.047
30.965,-0.049
30.970,-0.049
30.975,-0.047
30.980,-0.050
30.985,-0.059
30.990,-0.075
30.995,-0.090
31.000,-0.102
31.005,-0.111
31.010,-0.116
31.015,-0.119
31.020,-0.114
31.025,-0.104
31.030,-0.100
31.035,-0.098
31.040,-0.093
31.045,-0.087
31.050,-0.079
31.055,-0.066
31.060,-0.053
31.065,-0.043
31.070,-0.040
31.075,-0.035
31.080,-0.019
31.085,-0.005
31.090,0.007
31.095,0.024
31.100,0.039
31.105,0.051
31.110,0.059
31.115,0.063
31.120,0.062
31.125,0.054
31.130,0.047
31.135,0.043
31.140,0.038
31.145,0.038
31.150,0.037
31.155,0.033
31.160,0.028
31.165,0.023
31.170,0.022
31.175,0.020
31.180,0.014
31.185,0.010
31.190,0.002
31.195,-0.018
31.200,-0.035
31.205,-0.047
31.210,-0.113
31.215,-0.299
31.220,-0.635
31.225,-1.025
31.230,-1.162
31.235,-0.824
31.240,-0.200
31.245,0.353
31.250,0.635
31.255,0.621
31.260,0.473
31.265,0.316
31.270,0.197
31.275,0.157
31.280,0.147
31.285,0.119
31.290,0.102
31.295,0.105
31.300,0.095
31.305,0.081
31.310,0.078
31.315,0.074
31.320,0.063
31.325,0.058
31.330,0.056
31.335,0.050
31.340,0.046
31.345,0.044
31.350,0.039
31.355,0.033
31.360,0.030
31.365,0.025
31.370,0.020
31.375,0.016
31.380,0.010
31.385,0.004
31.390,0.000
31.395,-0.006
31.400,-0.016
31.405,-0.025
31.410,-0.031
31.415,-0.038
31.420,-0.044
31.425,-0.050
31.430,-0.058
31.435,-0.069
31.440,-0.082
31.445,-0.095
31.450,-0.110
31.455,-0.126
31.460,-0.141
31.465,-0.156
31.470,-0.172
31.475,-0.187
31.480,-0.201
31.485,-0.215
31.490,-0.226
31.495,-0.236
31.500,-0.244
31.505,-0.249
31.510,-0.250
31.515,-0.244
31.520,-0.230
31.525,-0.209
31.530,-0.181
31.535,-0.145
31.540,-0.105
31.545,-0.061
31.550,-0.012
31.555,0.037
31.560,0.086
31.565,0.130
31.570,0.166
31.575,0.197
31.580,0.223
31.585,0.243
31.590,0.258
31.595,0.267
31.600,0.272
31.605,0.274
31.610,0.272
31.615,0.268
31.620,0.263
31.625,0.257
31.630,0.250
31.635,0.241
31.640,0.229
31.645,0.219
31.650,0.209
31.655,0.199
31.660,0.190
31.665,0.181
31.670,0.173
31.675,0.163
31.680,0.154
31.685,0.148
31.690,0.141
31.695,0.132
31.700,0.123
31.705,0.114
31.710,0.108
31.715,0.101
31.720,0.092
31.725,0.084
31.730,0.076
31.735,0.069
31.740,0.063
31.745,0.057
31.750,0.051
31.755,0.044
31.760,0.037
31.765,0.032
31.770,0.030
31.775,0.028
31.780,0.025
31.785,0.022
31.790,0.020
31.795,0.017
31.800,0.016
31.805,0.017
31.810,0.013
31.815,0.009
31.820,0.006
31.825,0.002
31.830,0.000
31.835,-0.002
31.840,-0.003
31.845,-0.005
31.850,-0.010
31.855,-0.015
31.860,-0.014
31.865,-0.014
31.870,-0.018
31.875,-0.019
31.880,-0.019
31.885,-0.018
31.890,-0.020
31.895,-0.022
31.900,-0.023
31.905,-0.024
31.910,-0.026
31.915,-0.030
31.920,-0.033
31.925,-0.036
31.930,-0.039
31.935,-0.042
31.940,-0.042
31.945,-0.040
31.950,-0.039
31.955,-0.041
31.960,-0.044
31.965,-0.046
31.970,-0.046
31.975,-0.046
31.980,-0.044
31.985,-0.044
31.990,-0.045
31.995,-0.046
32.000,-0.049
32.005,-0.050
32.010,-0.049
32.015,-0.048
32.020,-0.046
32.025,-0.045
32.030,-0.046
32.035,-0.048
32.040,-0.049
32.045,-0.046
32.050,-0.045
32.055,-0.046
32.060,-0.049
32.065,-0.053
32.070,-0.062
32.075,-0.077
32.080,-0.091
32.085,-0.103
32.090,-0.106
32.095,-0.112
32.100,-0.121
32.105,-0.116
32.110,-0.105
32.115,-0.097
32.120,-0.094
32.125,-0.096
32.130,-0.092
32.135,-0.080
32.140,-0.063
32.145,-0.048
32.150,-0.041
32.155,-0.039
32.160,-0.029
32.165,-0.012
32.170,0.003
32.175,0.016
32.180,0.029
32.185,0.040
32.190,0.050
32.195,0.057
32.200,0.061
32.205,0.057
32.210,0.049
32.215,0.045
32.220,0.044
32.225,0.042
32.230,0.038
32.235,0.036
32.240,0.034
32.245,0.031
32.250,0.026
32.255,0.022
32.260,0.017
32.265,0.013
32.270,0.010
32.275,-0.001
32.280,-0.023
32.285,-0.037
32.290,-0.060
32.295,-0.159
32.300,-0.387
32.305,-0.745
32.310,-1.056
32.315,-1.005
32.320,-0.530
32.325,0.072
32.330,0.504
32.335,0.641
32.340,0.544
32.345,0.386
32.350,0.245
32.355,0.158
32.360,0.137
32.365,0.121
32.370,0.098
32.375,0.094
32.380,0.092
32.385,0.076
32.390,0.068
32.395,0.069
32.400,0.060
32.405,0.052
32.410,0.051
32.415,0.046
32.420,0.037
32.425,0.034
32.430,0.033
32.435,0.027
32.440,0.025
32.445,0.023
32.450,0.017
32.455,0.010
32.460,0.003
32.465,-0.003
32.470,-0.009
32.475,-0.015
32.480,-0.020
32.485,-0.024
32.490,-0.028
32.495,-0.035
32.500,-0.045
32.505,-0.054
32.510,-0.063
32.515,-0.071
32.520,-0.080
32.525,-0.091
32.530,-0.103
32.535,-0.118
32.540,-0.133
32.545,-0.150
32.550,-0.167
32.555,-0.181
32.560,-0.195
32.565,-0.207
32.570,-0.218
32.575,-0.226
32.580,-0.233
32.585,-0.243
32.590,-0.247
32.595,-0.245
32.600,-0.236
32.605,-0.219
32.610,-0.196
32.615,-0.164
32.620,-0.123
32.625,-0.080
32.630,-0.033
32.635,0.014
32.640,0.063
32.645,0.110
32.650,0.152
32.655,0.187
32.660,0.215
32.665,0.236
32.670,0.252
32.675,0.264
32.680,0.270
32.685,0.270
32.690,0.268
32.695,0.266
32.700,0.261
32.705,0.256
32.710,0.249
32.715,0.243
32.720,0.237
32.725,0.226
32.730,0.215
32.735,0.205
32.740,0.194
32.745,0.182
32.750,0.171
32.755,0.163
32.760,0.157
32.765,0.149
32.770,0.138
32.775,0.129
32.780,0.123
32.785,0.114
32.790,0.105
32.795,0.095
32.800,0.088
32.805,0.081
32.810,0.074
32.815,0.065
32.820,0.057
32.825,0.053
32.830,0.050
32.835,0.045
32.840,0.039
32.845,0.035
32.850,0.031
32.855,0.028
32.860,0.024
32.865,0.020
32.870,0.019
32.875,0.016
32.880,0.015
32.885,0.015
32.890,0.012
32.895,0.008
32.900,0.004
32.905,0.001
32.910,-0.001
32.915,-0.003
32.920,-0.006
32.925,-0.008
32.930,-0.010
32.935,-0.012
32.940,-0.013
32.945,-0.013
32.950,-0.014
32.955,-0.016
32.960,-0.020
32.965,-0.023
32.970,-0.024
32.975,-0.024
32.980,-0.025
32.985,-0.030
32.990,-0.032
32.995,-0.032
33.000,-0.032
33.005,-0.032
33.010,-0.036
33.015,-0.039
33.020,-0.041
33.025,-0.042
33.030,-0.042
33.035,-0.042
33.040,-0.044
33.045,-0.044
33.050,-0.042
33.055,-0.042
33.060,-0.044
33.065,-0.045
33.070,-0.046
33.075,-0.047
33.080,-0.048
33.085,-0.048
33.090,-0.046
33.095,-0.047
33.100,-0.049
33.105,-0.048
33.110,-0.047
33.115,-0.047
33.120,-0.046
33.125,-0.048
33.130,-0.055
33.135,-0.069
33.140,-0.087
33.145,-0.103
33.150,-0.110
33.155,-0.112
33.160,-0.115
33.165,-0.112
33.170,-0.103
33.175,-0.100
33.180,-0.101
33.185,-0.101
33.190,-0.098
33.195,-0.087
33.200,-0.069
33.205,-0.050
33.210,-0.041
33.215,-0.041
33.220,-0.034
33.225,-0.019
33.230,-0.006
33.235,0.005
33.240,0.021
33.245,0.037
33.250,0.048
33.255,0.054
33.260,0.058
33.265,0.058
33.270,0.051
33.275,0.044
33.280,0.041
33.285,0.035
33.290,0.030
33.295,0.031
33.300,0.031
33.305,0.027
33.310,0.021
33.315,0.018
33.320,0.014
33.325,0.009
33.330,0.006
33.335,-0.006
33.340,-0.026
33.345,-0.036
33.350,-0.052
33.355,-0.137
33.360,-0.351
33.365,-0.704
33.370,-1.030
33.375,-1.025
33.380,-0.594
33.385,0.000
33.390,0.460
33.395,0.636
33.400,0.555
33.405,0.402
33.410,0.262
33.415,0.166
33.420,0.136
33.425,0.113
33.430,0.089
33.435,0.088
33.440,0.088
33.445,0.073
33.450,0.066
33.455,0.068
33.460,0.061
33.465,0.052
33.470,0.050
33.475,0.044
33.480,0.037
33.485,0.034
33.490,0.030
33.495,0.026
33.500,0.023
33.505,0.020
33.510,0.013
33.515,0.011
33.520,0.010
33.525,0.003
33.530,-0.005
33.535,-0.012
33.540,-0.018
33.545,-0.025
33.550,-0.033
33.555,-0.039
33.560,-0.046
33.565,-0.053
33.570,-0.060
33.575,-0.068
33.580,-0.079
33.585,-0.091
33.590,-0.103
33.595,-0.115
33.600,-0.129
33.605,-0.146
33.610,-0.162
33.615,-0.178
33.620,-0.195
33.625,-0.210
33.630,-0.221
33.635,-0.231
33.640,-0.238
33.645,-0.242
33.650,-0.245
33.655,-0.244
33.660,-0.234
33.665,-0.215
33.670,-0.188
33.675,-0.155
33.680,-0.118
33.685,-0.074
33.690,-0.028
33.695,0.019
33.700,0.064
33.705,0.109
33.710,0.150
33.715,0.184
33.720,0.212
33.725,0.235
33.730,0.251
33.735,0.264
33.740,0.272
33.745,0.273
33.750,0.272
33.755,0.270
33.760,0.267
33.765,0.262
33.770,0.255
33.775,0.245
33.780,0.236
33.785,0.227
33.790,0.217
33.795,0.209
33.800,0.198
33.805,0.185
33.810,0.174
33.815,0.166
33.820,0.158
33.825,0.148
33.830,0.136
33.835,0.128
33.840,0.123
33.845,0.116
33.850,0.107
33.855,0.098
33.860,0.088
33.865,0.079
33.870,0.072
33.875,0.066
33.880,0.061
33.885,0.056
33.890,0.052
33.895,0.049
33.900,0.043
33.905,0.037
33.910,0.034
33.915,0.030
33.920,0.024
33.925,0.018
33.930,0.017
33.935,0.017
33.940,0.016
33.945,0.015
33.950,0.011
33.955,0.010
33.960,0.007
33.965,0.002
33.970,-0.001
33.975,-0.002
33.980,-0.002
33.985,-0.003
33.990,-0.005
33.995,-0.008
34.000,-0.011
34.005,-0.014
34.010,-0.017
34.015,-0.019
34.020,-0.021
34.025,-0.024
34.030,-0.025
34.035,-0.026
34.040,-0.027
34.045,-0.030
34.050,-0.034
34.055,-0.036
34.060,-0.037
34.065,-0.038
34.070,-0.040
34.075,-0.041
34.080,-0.042
34.085,-0.043
34.090,-0.043
34.095,-0.041
34.100,-0.042
34.105,-0.043
34.110,-0.044
34.115,-0.045
34.120,-0.045
34.125,-0.047
34.130,-0.048
34.135,-0.046
34.140,-0.049
34.145,-0.052
34.150,-0.059
34.155,-0.072
34.160,-0.085
34.165,-0.099
34.170,-0.109
34.175,-0.111
34.180,-0.114
34.185,-0.116
34.190,-0.110
34.195,-0.104
34.200,-0.105
34.205,-0.103
34.210,-0.100
34.215,-0.096
34.220,-0.083
34.225,-0.067
34.230,-0.053
34.235,-0.047
34.240,-0.041
34.245,-0.028
34.250,-0.014
34.255,-0.002
34.260,0.013
34.265,0.028
34.270,0.040
34.275,0.044
34.280,0.049
34.285,0.051
34.290,0.043
34.295,0.037
34.300,0.038
34.305,0.036
34.310,0.029
34.315,0.020
34.320,0.019
34.325,0.021
34.330,0.019
34.335,0.014
34.340,0.007
34.345,0.003
34.350,-0.001
34.355,-0.011
34.360,-0.030
34.365,-0.038
34.370,-0.053
34.375,-0.143
34.380,-0.365
34.385,-0.721
34.390,-1.045
34.395,-1.041
34.400,-0.614
34.405,-0.021
34.410,0.442
34.415,0.625
34.420,0.550
34.425,0.397
34.430,0.255
34.435,0.163
34.440,0.139
34.445,0.118
34.450,0.091
34.455,0.085
34.460,0.085
34.465,0.072
34.470,0.066
34.475,0.065
34.480,0.055
34.485,0.049
34.490,0.047
34.495,0.043
34.500,0.037
34.505,0.034
34.510,0.031
34.515,0.026
34.520,0.021
34.525,0.016
34.530,0.012
34.535,0.007
34.540,0.001
34.545,-0.004
34.550,-0.006
34.555,-0.008
34.560,-0.014
34.565,-0.023
34.570,-0.028
34.575,-0.033
34.580,-0.042
34.585,-0.052
34.590,-0.063
34.595,-0.074
34.600,-0.083
34.605,-0.093
34.610,-0.105
34.615,-0.119
34.620,-0.131
34.625,-0.145
34.630,-0.162
34.635,-0.179
34.640,-0.197
34.645,-0.212
34.650,-0.225
34.655,-0.235
34.660,-0.241
34.665,-0.243
34.670,-0.242
34.675,-0.239
34.680,-0.232
34.685,-0.217
34.690,-0.192
34.695,-0.158
34.700,-0.122
34.705,-0.079
34.710,-0.028
34.715,0.025
34.720,0.074
34.725,0.116
34.730,0.152
34.735,0.186
34.740,0.215
34.745,0.237
34.750,0.252
34.755,0.263
34.760,0.269
34.765,0.269
34.770,0.266
34.775,0.263
34.780,0.260
34.785,0.256
34.790,0.248
34.795,0.238
34.800,0.228
34.805,0.220
34.810,0.211
34.815,0.201
34.820,0.192
34.825,0.182
34.830,0.172
34.835,0.163
34.840,0.153
34.845,0.143
34.850,0.132
34.855,0.122
34.860,0.116
34.865,0.112
34.870,0.106
34.875,0.097
34.880,0.088
34.885,0.080
34.890,0.072
34.895,0.065
34.900,0.057
34.905,0.051
34.910,0.046
34.915,0.042
34.920,0.039
34.925,0.036
34.930,0.031
34.935,0.025
34.940,0.021
34.945,0.021
34.950,0.022
34.955,0.021
34.960,0.019
34.965,0.015
34.970,0.013
34.975,0.010
34.980,0.007
34.985,0.004
34.990,0.000
34.995,-0.002
35.000,-0.001
35.005,-0.002
35.010,-0.006
35.015,-0.009
35.020,-0.012
35.025,-0.014
35.030,-0.015
35.035,-0.017
35.040,-0.019
35.045,-0.020
35.050,-0.020
35.055,-0.022
35.060,-0.024
35.065,-0.026
35.070,-0.028
35.075,-0.029
35.080,-0.031
35.085,-0.032
35.090,-0.032
35.095,-0.034
35.100,-0.037
35.105,-0.036
35.110,-0.036
35.115,-0.041
35.120,-0.055
35.125,-0.071
35.130,-0.085
35.135,-0.094
35.140,-0.099
35.145,-0.101
35.150,-0.107
35.155,-0.113
35.160,-0.108
35.165,-0.102
35.170,-0.106
35.175,-0.111
35.180,-0.109
35.185,-0.100
35.190,-0.079
35.195,-0.058
35.200,-0.051
35.205,-0.052
35.210,-0.050
35.215,-0.033
35.220,-0.013
35.225,0.000
35.230,0.013
35.235,0.027
35.240,0.037
35.245,0.043
35.250,0.047
35.255,0.049
35.260,0.041
35.265,0.031
35.270,0.027
35.275,0.025
35.280,0.022
35.285,0.018
35.290,0.017
35.295,0.016
35.300,0.012
35.305,0.008
35.310,0.001
35.315,-0.007
35.320,-0.010
35.325,-0.023
35.330,-0.043
35.335,-0.049
35.340,-0.078
35.345,-0.203
35.350,-0.469
35.355,-0.841
35.360,-1.082
35.365,-0.921
35.370,-0.406
35.375,0.160
35.380,0.533
35.385,0.606
35.390,0.486
35.395,0.337
35.400,0.209
35.405,0.142
35.410,0.121
35.415,0.095
35.420,0.076
35.425,0.076
35.430,0.070
35.435,0.059
35.440,0.060
35.445,0.058
35.450,0.049
35.455,0.041
35.460,0.035
35.465,0.025
35.470,0.017
35.475,0.019
35.480,0.019
35.485,0.011
35.490,0.009
35.495,0.011
35.500,0.009
35.505,0.002
35.510,-0.012
35.515,-0.020
35.520,-0.023
35.525,-0.024
35.530,-0.026
35.535,-0.033
35.540,-0.036
35.545,-0.039
35.550,-0.046
35.555,-0.054
35.560,-0.070
35.565,-0.085
35.570,-0.091
35.575,-0.100
35.580,-0.117
35.585,-0.135
35.590,-0.155
35.595,-0.170
35.600,-0.181
35.605,-0.193
35.610,-0.209
35.615,-0.224
35.620,-0.232
35.625,-0.241
35.630,-0.250
35.635,-0.259
35.640,-0.264
35.645,-0.254
35.650,-0.238
35.655,-0.217
35.660,-0.183
35.665,-0.147
35.670,-0.105
35.675,-0.058
35.680,-0.012
35.685,0.039
35.690,0.088
35.695,0.131
35.700,0.176
35.705,0.215
35.710,0.239
35.715,0.257
35.720,0.269
35.725,0.276
35.730,0.282
35.735,0.285
35.740,0.280
35.745,0.272
35.750,0.263
35.755,0.255
35.760,0.250
35.765,0.244
35.770,0.237
35.775,0.235
35.780,0.231
35.785,0.219
35.790,0.198
35.795,0.179
35.800,0.168
35.805,0.164
35.810,0.157
35.815,0.146
35.820,0.146
35.825,0.146
35.830,0.136
35.835,0.120
35.840,0.106
35.845,0.098
35.850,0.094
35.855,0.089
35.860,0.081
35.865,0.074
35.870,0.068
35.875,0.059
35.880,0.054
35.885,0.043
35.890,0.036
35.895,0.037
35.900,0.032
35.905,0.028
35.910,0.027
35.915,0.024
35.920,0.022
35.925,0.017
35.930,0.017
35.935,0.017
35.940,0.015
35.945,0.011
35.950,0.008
35.955,0.006
35.960,-0.004
35.965,-0.009
35.970,-0.007
35.975,-0.002
35.980,0.003
35.985,-0.006
35.990,-0.020
35.995,-0.021
36.000,-0.020
36.005,-0.022
36.010,-0.020
36.015,-0.016
36.020,-0.016
36.025,-0.023
36.030,-0.029
36.035,-0.029
36.040,-0.031
36.045,-0.038
36.050,-0.042
36.055,-0.038
36.060,-0.037
36.065,-0.046
36.070,-0.051
36.075,-0.046
36.080,-0.038
36.085,-0.037
36.090,-0.053
36.095,-0.076
36.100,-0.090
36.105,-0.096
36.110,-0.099
36.115,-0.104
36.120,-0.117
36.125,-0.117
36.130,-0.107
36.135,-0.105
36.140,-0.104
36.145,-0.105
36.150,-0.114
36.155,-0.116
36.160,-0.101
36.165,-0.086
36.170,-0.076
36.175,-0.068
36.180,-0.057
36.185,-0.041
36.190,-0.022
36.195,-0.007
36.200,0.002
36.205,0.012
36.210,0.023
36.215,0.036
36.220,0.043
36.225,0.029
36.230,0.016
36.235,0.019
36.240,0.022
36.245,0.013
36.250,0.011
36.255,0.017
36.260,0.016
36.265,0.008
36.270,0.004
36.275,0.001
36.280,-0.001
36.285,-0.011
36.290,-0.023
36.295,-0.029
36.300,-0.030
36.305,-0.015
36.310,-0.047
36.315,-0.217
36.320,-0.555
36.325,-0.990
36.330,-1.229
36.335,-0.992
36.340,-0.412
36.345,0.181
36.350,0.559
36.355,0.615
36.360,0.502
36.365,0.373
36.370,0.253
36.375,0.194
36.380,0.159
36.385,0.106
36.390,0.082
36.395,0.081
36.400,0.072
36.405,0.072
36.410,0.076
36.415,0.072
36.420,0.058
36.425,0.045
36.430,0.044
36.435,0.039
36.440,0.035
36.445,0.037
36.450,0.030
36.455,0.027
36.460,0.031
36.465,0.019
36.470,-0.005
36.475,-0.019
36.480,-0.017
36.485,-0.010
36.490,-0.007
36.495,-0.010
36.500,-0.019
36.505,-0.032
36.510,-0.041
36.515,-0.041
36.520,-0.044
36.525,-0.055
36.530,-0.070
36.535,-0.088
36.540,-0.104
36.545,-0.116
36.550,-0.121
36.555,-0.120
36.560,-0.132
36.565,-0.162
36.570,-0.191
36.575,-0.206
36.580,-0.213
36.585,-0.225
36.590,-0.239
36.595,-0.255
36.600,-0.265
36.605,-0.264
36.610,-0.267
36.615,-0.256
36.620,-0.222
36.625,-0.205
36.630,-0.192
36.635,-0.155
36.640,-0.104
36.645,-0.039
36.650,0.016
36.655,0.061
36.660,0.120
36.665,0.167
36.670,0.200
36.675,0.234
36.680,0.252
36.685,0.258
36.690,0.273
36.695,0.286
36.700,0.294
36.705,0.294
36.710,0.283
36.715,0.276
36.720,0.271
36.725,0.267
36.730,0.267
36.735,0.250
36.740,0.228
36.745,0.229
36.750,0.222
36.755,0.201
36.760,0.189
36.765,0.178
36.770,0.169
36.775,0.164
36.780,0.159
36.785,0.156
36.790,0.141
36.795,0.123
36.800,0.113
36.805,0.114
36.810,0.102
36.815,0.085
36.820,0.082
36.825,0.079
36.830,0.071
36.835,0.059
36.840,0.054
36.845,0.055
36.850,0.042
36.855,0.025
36.860,0.023
36.865,0.033
36.870,0.044
36.875,0.036
36.880,0.028
36.885,0.024
36.890,0.007
36.895,-0.004
36.900,-0.001
36.905,0.000
36.910,-0.001
36.915,0.010
36.920,0.015
36.925,0.004
36.930,-0.010
36.935,-0.013
36.940,-0.013
36.945,-0.020
36.950,-0.014
36.955,-0.007
36.960,-0.021
36.965,-0.037
36.970,-0.037
36.975,-0.025
36.980,-0.021
36.985,-0.032
36.990,-0.032
36.995,-0.021
37.000,-0.037
37.005,-0.050
37.010,-0.038
37.015,-0.037
37.020,-0.033
37.025,-0.033
37.030,-0.037
37.035,-0.035
37.040,-0.046
37.045,-0.057
37.050,-0.054
37.055,-0.046
37.060,-0.041
37.065,-0.037
37.070,-0.040
37.075,-0.054
37.080,-0.068
37.085,-0.083
37.090,-0.094
37.095,-0.096
37.100,-0.096
37.105,-0.097
37.110,-0.099
37.115,-0.102
37.120,-0.108
37.125,-0.115
37.130,-0.109
37.135,-0.108
37.140,-0.106
37.145,-0.087
37.150,-0.072
37.155,-0.064
37.160,-0.067
37.165,-0.065
37.170,-0.028
37.175,-0.008
37.180,-0.008
37.185,0.001
37.190,0.004
37.195,0.017
37.200,0.024
37.205,0.032
37.210,0.057
37.215,0.051
37.220,0.023
37.225,0.015
37.230,0.023
37.235,0.033
37.240,0.035
37.245,0.022
37.250,0.005
37.255,0.003
37.260,0.008
37.265,0.001
37.270,-0.009
37.275,-0.010
37.280,-0.015
37.285,-0.020
37.290,-0.015
37.295,-0.017
37.300,-0.055
37.305,-0.202
37.310,-0.536
37.315,-0.998
37.320,-1.328
37.325,-1.200
37.330,-0.624
37.335,0.046
37.340,0.527
37.345,0.667
37.350,0.561
37.355,0.418
37.360,0.288
37.365,0.226
37.370,0.210
37.375,0.157
37.380,0.122
37.385,0.133
37.390,0.124
37.395,0.097
37.400,0.088
37.405,0.084
37.410,0.086
37.415,0.088
37.420,0.080
37.425,0.070
37.430,0.069
37.435,0.064
37.440,0.044
37.445,0.035
37.450,0.047
37.455,0.045
37.460,0.030
37.465,0.027
37.470,0.020
37.475,0.004
37.480,-0.005
37.485,-0.005
37.490,-0.001
37.495,-0.011
37.500,-0.027
37.505,-0.023
37.510,-0.018
37.515,-0.045
37.520,-0.076
37.525,-0.077
37.530,-0.077
37.535,-0.093
37.540,-0.113
37.545,-0.131
37.550,-0.151
37.555,-0.161
37.560,-0.173
37.565,-0.197
37.570,-0.223
37.575,-0.242
37.580,-0.238
37.585,-0.240
37.590,-0.270
37.595,-0.290
37.600,-0.286
37.605,-0.268
37.610,-0.248
37.615,-0.235
37.620,-0.213
37.625,-0.176
37.630,-0.119
37.635,-0.051
37.640,0.009
37.645,0.059
37.650,0.100
37.655,0.141
37.660,0.188
37.665,0.219
37.670,0.239
37.675,0.255
37.680,0.274
37.685,0.296
37.690,0.302
37.695,0.293
37.700,0.285
37.705,0.285
37.710,0.290
37.715,0.281
37.720,0.258
37.725,0.246
37.730,0.242
37.735,0.232
37.740,0.219
37.745,0.205
37.750,0.195
37.755,0.189
37.760,0.177
37.765,0.168
37.770,0.171
37.775,0.166
37.780,0.152
37.785,0.134
37.790,0.121
37.795,0.112
37.800,0.094
37.805,0.086
37.810,0.086
37.815,0.081
37.820,0.074
37.825,0.060
37.830,0.049
37.835,0.049
37.840,0.043
37.845,0.040
37.850,0.041
37.855,0.027
37.860,0.005
37.865,0.005
37.870,0.014
37.875,0.007
37.880,0.008
37.885,0.011
37.890,0.009
37.895,0.014
37.900,0.010
37.905,0.001
37.910,-0.005
37.915,-0.013
37.920,-0.009
37.925,0.004
37.930,-0.003
37.935,-0.012
37.940,-0.016
37.945,-0.018
37.950,-0.019
37.955,-0.025
37.960,-0.028
37.965,-0.027
37.970,-0.028
37.975,-0.030
37.980,-0.029
37.985,-0.024
37.990,-0.026
37.995,-0.031
38.000,-0.035
38.005,-0.041
38.010,-0.044
38.015,-0.047
38.020,-0.047
38.025,-0.041
38.030,-0.041
38.035,-0.043
38.040,-0.045
38.045,-0.048
38.050,-0.050
38.055,-0.048
38.060,-0.046
38.065,-0.045
38.070,-0.048
38.075,-0.053
38.080,-0.055
38.085,-0.058
38.090,-0.069
38.095,-0.084
38.100,-0.095
38.105,-0.104
38.110,-0.111
38.115,-0.113
38.120,-0.118
38.125,-0.112
38.130,-0.101
38.135,-0.104
38.140,-0.109
38.145,-0.107
38.150,-0.101
38.155,-0.089
38.160,-0.080
38.165,-0.079
38.170,-0.082
38.175,-0.080
38.180,-0.060
38.185,-0.032
38.190,-0.017
38.195,-0.006
38.200,0.007
38.205,0.022
38.210,0.031
38.215,0.031
38.220,0.031
38.225,0.032
38.230,0.034
38.235,0.030
38.240,0.025
38.245,0.021
38.250,0.014
38.255,0.013
38.260,0.014
38.265,0.007
38.270,0.004
38.275,0.002
38.280,-0.003
38.285,-0.004
38.290,-0.005
38.295,-0.006
38.300,-0.008
38.305,-0.019
38.310,-0.038
38.315,-0.104
38.320,-0.278
38.325,-0.617
38.330,-1.060
38.335,-1.314
38.340,-1.080
38.345,-0.470
38.350,0.158
38.355,0.566
38.360,0.652
38.365,0.545
38.370,0.403
38.375,0.269
38.380,0.212
38.385,0.194
38.390,0.159
38.395,0.146
38.400,0.152
38.405,0.142
38.410,0.126
38.415,0.120
38.420,0.115
38.425,0.106
38.430,0.097
38.435,0.087
38.440,0.077
38.445,0.075
38.450,0.074
38.455,0.066
38.460,0.058
38.465,0.053
38.470,0.045
38.475,0.039
38.480,0.036
38.485,0.029
38.490,0.020
38.495,0.015
38.500,0.010
38.505,0.003
38.510,-0.010
38.515,-0.022
38.520,-0.028
38.525,-0.035
38.530,-0.043
38.535,-0.053
38.540,-0.066
38.545,-0.082
38.550,-0.095
38.555,-0.108
38.560,-0.126
38.565,-0.145
38.570,-0.159
38.575,-0.174
38.580,-0.193
38.585,-0.218
38.590,-0.240
38.595,-0.249
38.600,-0.254
38.605,-0.263
38.610,-0.272
38.615,-0.274
38.620,-0.265
38.625,-0.249
38.630,-0.228
38.635,-0.197
38.640,-0.158
38.645,-0.113
38.650,-0.060
38.655,-0.004
38.660,0.049
38.665,0.101
38.670,0.147
38.675,0.188
38.680,0.228
38.685,0.258
38.690,0.275
38.695,0.288
38.700,0.297
38.705,0.302
38.710,0.301
38.715,0.295
38.720,0.289
38.725,0.284
38.730,0.280
38.735,0.272
38.740,0.262
38.745,0.255
38.750,0.247
38.755,0.238
38.760,0.226
38.765,0.214
38.770,0.206
38.775,0.199
38.780,0.189
38.785,0.180
38.790,0.171
38.795,0.159
38.800,0.148
38.805,0.139
38.810,0.130
38.815,0.123
38.820,0.116
38.825,0.106
38.830,0.094
38.835,0.081
38.840,0.070
38.845,0.063
38.850,0.057
38.855,0.050
38.860,0.045
38.865,0.036
38.870,0.024
38.875,0.016
38.880,0.014
38.885,0.015
38.890,0.014
38.895,0.009
38.900,-0.001
38.905,-0.006
38.910,-0.003
38.915,-0.006
38.920,-0.010
38.925,-0.013
38.930,-0.017
38.935,-0.019
38.940,-0.018
38.945,-0.018
38.950,-0.018
38.955,-0.020
38.960,-0.025
38.965,-0.026
38.970,-0.027
38.975,-0.028
38.980,-0.028
38.985,-0.031
38.990,-0.036
38.995,-0.042
39.000,-0.048
39.005,-0.047
39.010,-0.043
39.015,-0.042
39.020,-0.044
39.025,-0.049
39.030,-0.053
39.035,-0.055
39.040,-0.056
39.045,-0.058
39.050,-0.060
39.055,-0.061
39.060,-0.061
39.065,-0.061
39.070,-0.058
39.075,-0.055
39.080,-0.054
39.085,-0.057
39.090,-0.061
39.095,-0.061
39.100,-0.062
39.105,-0.062
39.110,-0.061
39.115,-0.061
39.120,-0.062
39.125,-0.062
39.130,-0.062
39.135,-0.061
39.140,-0.065
39.145,-0.076
39.150,-0.089
39.155,-0.104
39.160,-0.119
39.165,-0.128
39.170,-0.131
39.175,-0.131
39.180,-0.123
39.185,-0.113
39.190,-0.109
39.195,-0.106
39.200,-0.103
39.205,-0.097
39.210,-0.086
39.215,-0.075
39.220,-0.065
39.225,-0.057
39.230,-0.054
39.235,-0.043
39.240,-0.027
39.245,-0.010
39.250,0.007
39.255,0.022
39.260,0.035
39.265,0.043
39.270,0.048
39.275,0.048
39.280,0.042
39.285,0.036
39.290,0.034
39.295,0.035
39.300,0.032
39.305,0.025
39.310,0.021
39.315,0.020
39.320,0.018
39.325,0.015
39.330,0.011
39.335,0.010
39.340,0.008
39.345,0.006
39.350,0.001
39.355,-0.011
39.360,-0.028
39.365,-0.039
39.370,-0.078
39.375,-0.215
39.380,-0.500
39.385,-0.905
39.390,-1.189
39.395,-1.036
39.400,-0.475
39.405,0.145
39.410,0.546
39.415,0.639
39.420,0.530
39.425,0.379
39.430,0.245
39.435,0.176
39.440,0.167
39.445,0.147
39.450,0.123
39.455,0.123
39.460,0.121
39.465,0.108
39.470,0.106
39.475,0.106
39.480,0.096
39.485,0.086
39.490,0.081
39.495,0.072
39.500,0.064
39.505,0.061
39.510,0.058
39.515,0.055
39.520,0.052
39.525,0.046
39.530,0.040
39.535,0.033
39.540,0.029
39.545,0.024
39.550,0.017
39.555,0.009
39.560,0.001
39.565,-0.007
39.570,-0.013
39.575,-0.021
39.580,-0.029
39.585,-0.038
39.590,-0.049
39.595,-0.061
39.600,-0.072
39.605,-0.083
39.610,-0.097
39.615,-0.111
39.620,-0.124
39.625,-0.140
39.630,-0.159
39.635,-0.176
39.640,-0.193
39.645,-0.209
39.650,-0.225
39.655,-0.239
39.660,-0.247
39.665,-0.253
39.670,-0.255
39.675,-0.250
39.680,-0.238
39.685,-0.221
39.690,-0.196
39.695,-0.159
39.700,-0.116
39.705,-0.069
39.710,-0.020
39.715,0.030
39.720,0.080
39.725,0.126
39.730,0.166
39.735,0.200
39.740,0.226
39.745,0.247
39.750,0.262
39.755,0.270
39.760,0.276
39.765,0.278
39.770,0.276
39.775,0.274
39.780,0.269
39.785,0.262
39.790,0.254
39.795,0.243
39.800,0.232
39.805,0.224
39.810,0.214
39.815,0.201
39.820,0.189
39.825,0.181
39.830,0.176
39.835,0.169
39.840,0.160
39.845,0.153
39.850,0.147
39.855,0.139
39.860,0.129
39.865,0.119
39.870,0.111
39.875,0.101
39.880,0.092
39.885,0.084
39.890,0.078
39.895,0.072
39.900,0.065
39.905,0.058
39.910,0.051
39.915,0.044
39.920,0.040
39.925,0.035
39.930,0.029
39.935,0.025
39.940,0.024
39.945,0.022
39.950,0.018
39.955,0.012
39.960,0.006
39.965,0.006
39.970,0.006
39.975,0.005
39.980,0.003
39.985,0.000
39.990,-0.003
39.995,-0.003
40.000,-0.004
40.005,-0.007
40.010,-0.010
40.015,-0.012
40.020,-0.015
40.025,-0.016
40.030,-0.016
40.035,-0.017
40.040,-0.019
40.045,-0.023
40.050,-0.025
40.055,-0.025
40.060,-0.026
40.065,-0.027
40.070,-0.030
40.075,-0.033
40.080,-0.034
40.085,-0.034
40.090,-0.031
40.095,-0.031
40.100,-0.035
40.105,-0.040
40.110,-0.042
40.115,-0.042
40.120,-0.042
40.125,-0.042
40.130,-0.042
40.135,-0.043
40.140,-0.044
40.145,-0.045
40.150,-0.045
40.155,-0.045
40.160,-0.047
40.165,-0.048
40.170,-0.047
40.175,-0.045
40.180,-0.043
40.185,-0.043
40.190,-0.045
40.195,-0.047
40.200,-0.046
40.205,-0.044
40.210,-0.045
40.215,-0.048
40.220,-0.049
40.225,-0.057
40.230,-0.072
40.235,-0.089
40.240,-0.102
40.245,-0.106
40.250,-0.108
40.255,-0.114
40.260,-0.113
40.265,-0.103
40.270,-0.097
40.275,-0.098
40.280,-0.097
40.285,-0.093
40.290,-0.082
40.295,-0.064
40.300,-0.050
40.305,-0.044
40.310,-0.043
40.315,-0.035
40.320,-0.015
40.325,0.002
40.330,0.012
40.335,0.026
40.340,0.041
40.345,0.051
40.350,0.056
40.355,0.060
40.360,0.061
40.365,0.056
40.370,0.051
40.375,0.049
40.380,0.048
40.385,0.043
40.390,0.039
40.395,0.035
40.400,0.030
40.405,0.028
40.410,0.024
40.415,0.017
40.420,0.012
40.425,0.012
40.430,0.010
40.435,0.005
40.440,-0.011
40.445,-0.031
40.450,-0.044
40.455,-0.084
40.460,-0.220
40.465,-0.501
40.470,-0.890
40.475,-1.137
40.480,-0.950
40.485,-0.390
40.490,0.204
40.495,0.572
40.500,0.635
40.505,0.511
40.510,0.355
40.515,0.222
40.520,0.158
40.525,0.148
40.530,0.128
40.535,0.106
40.540,0.105
40.545,0.104
40.550,0.093
40.555,0.090
40.560,0.086
40.565,0.073
40.570,0.066
40.575,0.064
40.580,0.057
40.585,0.051
40.590,0.049
40.595,0.043
40.600,0.039
40.605,0.036
40.610,0.030
40.615,0.023
40.620,0.018
40.625,0.015
40.630,0.011
40.635,0.006
40.640,0.000
40.645,-0.007
40.650,-0.016
40.655,-0.024
40.660,-0.032
40.665,-0.040
40.670,-0.049
40.675,-0.058
40.680,-0.070
40.685,-0.084
40.690,-0.096
40.695,-0.109
40.700,-0.122
40.705,-0.135
40.710,-0.149
40.715,-0.166
40.720,-0.182
40.725,-0.199
40.730,-0.215
40.735,-0.230
40.740,-0.242
40.745,-0.250
40.750,-0.252
40.755,-0.251
40.760,-0.247
40.765,-0.236
40.770,-0.218
40.775,-0.191
40.780,-0.156
40.785,-0.116
40.790,-0.072
40.795,-0.023
40.800,0.030
40.805,0.082
40.810,0.128
40.815,0.168
40.820,0.201
40.825,0.229
40.830,0.250
40.835,0.262
40.840,0.269
40.845,0.274
40.850,0.276
40.855,0.277
40.860,0.274
40.865,0.267
40.870,0.258
40.875,0.251
40.880,0.243
40.885,0.234
40.890,0.224
40.895,0.213
40.900,0.203
40.905,0.196
40.910,0.187
40.915,0.178
40.920,0.169
40.925,0.159
40.930,0.151
40.935,0.142
40.940,0.132
40.945,0.124
40.950,0.116
40.955,0.107
40.960,0.099
40.965,0.090
40.970,0.083
40.975,0.076
40.980,0.070
40.985,0.063
40.990,0.055
40.995,0.048
41.000,0.041
41.005,0.035
41.010,0.031
41.015,0.030
41.020,0.027
41.025,0.023
41.030,0.018
41.035,0.015
41.040,0.012
41.045,0.009
41.050,0.006
41.055,0.003
41.060,0.001
41.065,-0.001
41.070,-0.003
41.075,-0.004
41.080,-0.006
41.085,-0.008
41.090,-0.009
41.095,-0.010
41.100,-0.014
41.105,-0.019
41.110,-0.023
41.115,-0.022
41.120,-0.021
41.125,-0.021
41.130,-0.023
41.135,-0.026
41.140,-0.029
41.145,-0.031
41.150,-0.033
41.155,-0.036
41.160,-0.038
41.165,-0.039
41.170,-0.039
41.175,-0.041
41.180,-0.044
41.185,-0.044
41.190,-0.046
41.195,-0.046
41.200,-0.045
41.205,-0.045
41.210,-0.046
41.215,-0.048
41.220,-0.048
41.225,-0.047
41.230,-0.047
41.235,-0.050
41.240,-0.050
41.245,-0.049
41.250,-0.050
41.255,-0.053
41.260,-0.054
41.265,-0.053
41.270,-0.052
41.275,-0.052
41.280,-0.052
41.285,-0.052
41.290,-0.051
41.295,-0.049
41.300,-0.048
41.305,-0.049
41.310,-0.050
41.315,-0.052
41.320,-0.060
41.325,-0.075
41.330,-0.090
41.335,-0.102
41.340,-0.108
41.345,-0.111
41.350,-0.118
41.355,-0.118
41.360,-0.109
41.365,-0.102
41.370,-0.102
41.375,-0.101
41.380,-0.097
41.385,-0.085
41.390,-0.066
41.395,-0.054
41.400,-0.049
41.405,-0.045
41.410,-0.035
41.415,-0.016
41.420,0.000
41.425,0.010
41.430,0.023
41.435,0.037
41.440,0.048
41.445,0.055
41.450,0.061
41.455,0.060
41.460,0.051
41.465,0.043
41.470,0.041
41.475,0.037
41.480,0.032
41.485,0.029
41.490,0.027
41.495,0.025
41.500,0.021
41.505,0.015
41.510,0.008
41.515,0.004
41.520,0.004
41.525,0.001
41.530,-0.007
41.535,-0.025
41.540,-0.038
41.545,-0.046
41.550,-0.106
41.555,-0.279
41.560,-0.598
41.565,-0.969
41.570,-1.097
41.575,-0.771
41.580,-0.179
41.585,0.350
41.590,0.617
41.595,0.593
41.600,0.447
41.605,0.297
41.610,0.182
41.615,0.143
41.620,0.128
41.625,0.101
41.630,0.092
41.635,0.094
41.640,0.083
41.645,0.072
41.650,0.070
41.655,0.066
41.660,0.057
41.665,0.054
41.670,0.052
41.675,0.045
41.680,0.040
41.685,0.037
41.690,0.032
41.695,0.027
41.700,0.022
41.705,0.017
41.710,0.013
41.715,0.009
41.720,0.004
41.725,-0.003
41.730,-0.007
41.735,-0.010
41.740,-0.016
41.745,-0.023
41.750,-0.032
41.755,-0.039
41.760,-0.047
41.765,-0.056
41.770,-0.064
41.775,-0.075
41.780,-0.085
41.785,-0.098
41.790,-0.112
41.795,-0.126
41.800,-0.140
41.805,-0.154
41.810,-0.170
41.815,-0.186
41.820,-0.201
41.825,-0.215
41.830,-0.226
41.835,-0.235
41.840,-0.241
41.845,-0.242
41.850,-0.239
41.855,-0.232
41.860,-0.220
41.865,-0.201
41.870,-0.173
41.875,-0.139
41.880,-0.098
41.885,-0.051
41.890,-0.001
41.895,0.049
41.900,0.093
41.905,0.132
41.910,0.169
41.915,0.200
41.920,0.225
41.925,0.244
41.930,0.258
41.935,0.265
41.940,0.270
41.945,0.271
41.950,0.267
41.955,0.265
41.960,0.261
41.965,0.252
41.970,0.243
41.975,0.234
41.980,0.225
41.985,0.217
41.990,0.205
41.995,0.194
42.000,0.185
42.005,0.177
42.010,0.167
42.015,0.157
42.020,0.148
42.025,0.138
42.030,0.130
42.035,0.122
42.040,0.114
42.045,0.106
42.050,0.096
42.055,0.087
42.060,0.080
42.065,0.073
42.070,0.068
42.075,0.063
42.080,0.057
42.085,0.052
42.090,0.045
42.095,0.038
42.100,0.034
42.105,0.029
42.110,0.025
42.115,0.020
42.120,0.017
42.125,0.016
42.130,0.015
42.135,0.012
42.140,0.008
42.145,0.005
42.150,0.004
42.155,0.003
42.160,0.001
42.165,-0.002
42.170,-0.004
42.175,-0.005
42.180,-0.007
42.185,-0.010
42.190,-0.014
42.195,-0.016
42.200,-0.019
42.205,-0.022
42.210,-0.022
42.215,-0.022
42.220,-0.023
42.225,-0.026
42.230,-0.030
42.235,-0.033
42.240,-0.033
42.245,-0.032
42.250,-0.034
42.255,-0.037
42.260,-0.040
42.265,-0.041
42.270,-0.041
42.275,-0.041
42.280,-0.041
42.285,-0.040
42.290,-0.040
42.295,-0.039
42.300,-0.042
42.305,-0.044
42.310,-0.045
42.315,-0.047
42.320,-0.047
42.325,-0.046
42.330,-0.047
42.335,-0.047
42.340,-0.047
42.345,-0.047
42.350,-0.047
42.355,-0.048
42.360,-0.049
42.365,-0.050
42.370,-0.050
42.375,-0.052
42.380,-0.051
42.385,-0.049
42.390,-0.048
42.395,-0.048
42.400,-0.047
42.405,-0.048
42.410,-0.051
42.415,-0.061
42.420,-0.075
42.425,-0.088
42.430,-0.097
42.435,-0.103
42.440,-0.106
42.445,-0.111
42.450,-0.110
42.455,-0.102
42.460,-0.098
42.465,-0.099
42.470,-0.099
42.475,-0.096
42.480,-0.085
42.485,-0.066
42.490,-0.052
42.495,-0.046
42.500,-0.044
42.505,-0.036
42.510,-0.018
42.515,-0.005
42.520,0.005
42.525,0.021
42.530,0.036
42.535,0.046
42.540,0.051
42.545,0.055
42.550,0.054
42.555,0.048
42.560,0.043
42.565,0.040
42.570,0.038
42.575,0.034
42.580,0.030
42.585,0.028
42.590,0.025
42.595,0.021
42.600,0.017
42.605,0.012
42.610,0.008
42.615,0.007
42.620,0.003
42.625,-0.005
42.630,-0.021
42.635,-0.034
42.640,-0.044
42.645,-0.104
42.650,-0.282
42.655,-0.602
42.660,-0.961
42.665,-1.067
42.670,-0.732
42.675,-0.155
42.680,0.356
42.685,0.612
42.690,0.585
42.695,0.445
42.700,0.297
42.705,0.184
42.710,0.148
42.715,0.130
42.720,0.103
42.725,0.094
42.730,0.095
42.735,0.084
42.740,0.075
42.745,0.075
42.750,0.068
42.755,0.060
42.760,0.057
42.765,0.053
42.770,0.047
42.775,0.043
42.780,0.040
42.785,0.034
42.790,0.028
42.795,0.026
42.800,0.023
42.805,0.017
42.810,0.013
42.815,0.008
42.820,0.003
42.825,0.000
42.830,-0.006
42.835,-0.013
42.840,-0.021
42.845,-0.028
42.850,-0.036
42.855,-0.044
42.860,-0.050
42.865,-0.060
42.870,-0.071
42.875,-0.083
42.880,-0.096
42.885,-0.109
42.890,-0.122
42.895,-0.137
42.900,-0.152
42.905,-0.166
42.910,-0.181
42.915,-0.197
42.920,-0.210
42.925,-0.222
42.930,-0.232
42.935,-0.238
42.940,-0.240
42.945,-0.237
42.950,-0.230
42.955,-0.216
42.960,-0.194
42.965,-0.166
42.970,-0.133
42.975,-0.094
42.980,-0.048
42.985,-0.002
42.990,0.045
42.995,0.092
43.000,0.136
43.005,0.174
43.010,0.206
43.015,0.227
43.020,0.245
43.025,0.258
43.030,0.268
43.035,0.274
43.040,0.274
43.045,0.271
43.050,0.266
43.055,0.261
43.060,0.254
43.065,0.246
43.070,0.238
43.075,0.229
43.080,0.219
43.085,0.210
43.090,0.198
43.095,0.188
43.100,0.178
43.105,0.169
43.110,0.160
43.115,0.150
43.120,0.140
43.125,0.131
43.130,0.123
43.135,0.116
43.140,0.109
43.145,0.101
43.150,0.094
43.155,0.086
43.160,0.079
43.165,0.072
43.170,0.066
43.175,0.061
43.180,0.056
43.185,0.050
43.190,0.044
43.195,0.038
43.200,0.034
43.205,0.031
43.210,0.028
43.215,0.026
43.220,0.024
43.225,0.022
43.230,0.021
43.235,0.018
43.240,0.014
43.245,0.013
43.250,0.012
43.255,0.011
43.260,0.008
43.265,0.004
43.270,0.001
43.275,-0.003
43.280,-0.006
43.285,-0.008
43.290,-0.010
43.295,-0.011
43.300,-0.013
43.305,-0.015
43.310,-0.018
43.315,-0.020
43.320,-0.020
43.325,-0.019
43.330,-0.021
43.335,-0.025
43.340,-0.028
43.345,-0.027
43.350,-0.028
43.355,-0.031
43.360,-0.034
43.365,-0.036
43.370,-0.038
43.375,-0.038
43.380,-0.039
43.385,-0.039
43.390,-0.040
43.395,-0.040
43.400,-0.042
43.405,-0.045
43.410,-0.046
43.415,-0.047
43.420,-0.047
43.425,-0.047
43.430,-0.046
43.435,-0.046
43.440,-0.047
43.445,-0.048
43.450,-0.046
43.455,-0.046
43.460,-0.047
43.465,-0.050
43.470,-0.049
43.475,-0.048
43.480,-0.048
43.485,-0.047
43.490,-0.045
43.495,-0.044
43.500,-0.043
43.505,-0.043
43.510,-0.045
43.515,-0.051
43.520,-0.062
43.525,-0.077
43.530,-0.089
43.535,-0.094
43.540,-0.096
43.545,-0.101
43.550,-0.107
43.555,-0.103
43.560,-0.095
43.565,-0.095
43.570,-0.096
43.575,-0.093
43.580,-0.086
43.585,-0.072
43.590,-0.055
43.595,-0.044
43.600,-0.040
43.605,-0.035
43.610,-0.020
43.615,-0.005
43.620,0.005
43.625,0.016
43.630,0.031
43.635,0.047
43.640,0.054
43.645,0.058
43.650,0.058
43.655,0.052
43.660,0.047
43.665,0.046
43.670,0.044
43.675,0.039
43.680,0.035
43.685,0.034
43.690,0.031
43.695,0.027
43.700,0.023
43.705,0.017
43.710,0.012
43.715,0.007
43.720,0.005
43.725,0.001
43.730,-0.012
43.735,-0.027
43.740,-0.034
43.745,-0.075
43.750,-0.218
43.755,-0.505
43.760,-0.875
43.765,-1.070
43.770,-0.845
43.775,-0.309
43.780,0.237
43.785,0.572
43.790,0.610
43.795,0.479
43.800,0.329
43.805,0.207
43.810,0.154
43.815,0.136
43.820,0.109
43.825,0.095
43.830,0.096
43.835,0.085
43.840,0.073
43.845,0.073
43.850,0.069
43.855,0.060
43.860,0.058
43.865,0.055
43.870,0.046
43.875,0.041
43.880,0.040
43.885,0.036
43.890,0.030
43.895,0.028
43.900,0.024
43.905,0.019
43.910,0.013
43.915,0.007
43.920,0.001
43.925,-0.005
43.930,-0.010
43.935,-0.015
43.940,-0.022
43.945,-0.028
43.950,-0.035
43.955,-0.043
43.960,-0.052
43.965,-0.061
43.970,-0.072
43.975,-0.082
43.980,-0.094
43.985,-0.106
43.990,-0.121
43.995,-0.136
44.000,-0.152
44.005,-0.167
44.010,-0.183
44.015,-0.198
44.020,-0.211
44.025,-0.222
44.030,-0.229
44.035,-0.236
44.040,-0.241
44.045,-0.239
44.050,-0.232
44.055,-0.219
44.060,-0.199
44.065,-0.174
44.070,-0.141
44.075,-0.103
44.080,-0.061
44.085,-0.014
44.090,0.035
44.095,0.082
44.100,0.125
44.105,0.161
44.110,0.192
44.115,0.218
44.120,0.238
44.125,0.253
44.130,0.262
44.135,0.266
44.140,0.268
44.145,0.268
44.150,0.263
44.155,0.256
44.160,0.251
44.165,0.246
44.170,0.238
44.175,0.228
44.180,0.217
44.185,0.207
44.190,0.197
44.195,0.188
44.200,0.180
44.205,0.170
44.210,0.160
44.215,0.149
44.220,0.139
44.225,0.131
44.230,0.122
44.235,0.114
44.240,0.106
44.245,0.099
44.250,0.092
44.255,0.084
44.260,0.076
44.265,0.069
44.270,0.063
44.275,0.056
44.280,0.050
44.285,0.045
44.290,0.042
44.295,0.040
44.300,0.037
44.305,0.034
44.310,0.030
44.315,0.026
44.320,0.025
44.325,0.023
44.330,0.018
44.335,0.015
44.340,0.014
44.345,0.014
44.350,0.012
44.355,0.009
44.360,0.007
44.365,0.004
44.370,-0.001
44.375,-0.004
44.380,-0.006
44.385,-0.007
44.390,-0.008
44.395,-0.011
44.400,-0.012
44.405,-0.014
44.410,-0.018
44.415,-0.020
44.420,-0.021
44.425,-0.022
44.430,-0.023
44.435,-0.025
44.440,-0.028
44.445,-0.030
44.450,-0.034
44.455,-0.036
44.460,-0.036
44.465,-0.038
44.470,-0.041
44.475,-0.040
44.480,-0.039
44.485,-0.039
44.490,-0.040
44.495,-0.042
44.500,-0.043
44.505,-0.043
44.510,-0.044
44.515,-0.045
44.520,-0.045
44.525,-0.047
44.530,-0.049
44.535,-0.048
44.540,-0.048
44.545,-0.047
44.550,-0.046
44.555,-0.046
44.560,-0.045
44.565,-0.046
44.570,-0.047
44.575,-0.048
44.580,-0.048
44.585,-0.046
44.590,-0.044
44.595,-0.043
44.600,-0.043
44.605,-0.045
44.610,-0.048
44.615,-0.053
44.620,-0.064
44.625,-0.078
44.630,-0.089
44.635,-0.095
44.640,-0.097
44.645,-0.101
44.650,-0.106
44.655,-0.104
44.660,-0.097
44.665,-0.096
44.670,-0.098
44.675,-0.096
44.680,-0.091
44.685,-0.081
44.690,-0.062
44.695,-0.048
44.700,-0.043
44.705,-0.041
44.710,-0.032
44.715,-0.016
44.720,-0.001
44.725,0.013
44.730,0.028
44.735,0.041
44.740,0.049
44.745,0.052
44.750,0.056
44.755,0.054
44.760,0.047
44.765,0.043
44.770,0.041
44.775,0.036
44.780,0.032
44.785,0.029
44.790,0.025
44.795,0.021
44.800,0.019
44.805,0.017
44.810,0.012
44.815,0.008
44.820,0.004
44.825,-0.001
44.830,-0.016
44.835,-0.030
44.840,-0.035
44.845,-0.077
44.850,-0.227
44.855,-0.519
44.860,-0.886
44.865,-1.067
44.870,-0.828
44.875,-0.295
44.880,0.240
44.885,0.568
44.890,0.598
44.895,0.471
44.900,0.328
44.905,0.207
44.910,0.154
44.915,0.134
44.920,0.105
44.925,0.094
44.930,0.098
44.935,0.086
44.940,0.075
44.945,0.074
44.950,0.068
44.955,0.061
44.960,0.060
44.965,0.055
44.970,0.046
44.975,0.042
44.980,0.039
44.985,0.033
44.990,0.026
44.995,0.021
45.000,0.018
45.005,0.015
45.010,0.012
45.015,0.007
45.020,0.001
45.025,-0.004
45.030,-0.010
45.035,-0.017
45.040,-0.025
45.045,-0.031
45.050,-0.038
45.055,-0.044
45.060,-0.052
45.065,-0.063
45.070,-0.075
45.075,-0.085
45.080,-0.097
45.085,-0.110
45.090,-0.123
45.095,-0.137
45.100,-0.152
45.105,-0.167
45.110,-0.184
45.115,-0.197
45.120,-0.208
45.125,-0.219
45.130,-0.226
