'Elapsed time','ECG'
'seconds','mV'
0.000,-0.225
0.005,-0.102
0.010,-0.076
0.015,-0.007
0.020,-0.058
0.025,-0.103
0.030,-0.014
0.035,-0.039
0.040,-0.097
0.045,-0.053
0.050,-0.044
0.055,-0.082
0.060,-0.063
0.065,-0.048
0.070,-0.070
0.075,-0.073
0.080,-0.053
0.085,-0.043
0.090,-0.050
0.095,-0.042
0.100,-0.041
0.105,-0.047
0.110,-0.031
0.115,-0.028
0.120,-0.040
0.125,-0.049
0.130,-0.033
0.135,0.040
0.140,0.143
0.145,0.263
0.150,0.340
0.155,0.288
0.160,0.119
0.165,-0.047
0.170,-0.178
0.175,-0.303
0.180,-0.390
0.185,-0.425
0.190,-0.348
0.195,-0.201
0.200,-0.100
0.205,-0.042
0.210,-0.011
0.215,-0.009
0.220,0.002
0.225,0.012
0.230,0.010
0.235,0.016
0.240,0.017
0.245,0.018
0.250,0.013
0.255,0.007
0.260,0.017
0.265,0.016
0.270,0.019
0.275,0.029
0.280,0.030
0.285,0.035
0.290,0.032
0.295,0.028
0.300,0.023
0.305,0.026
0.310,0.036
0.315,0.029
0.320,0.032
0.325,0.034
0.330,0.030
0.335,0.035
0.340,0.029
0.345,0.030
0.350,0.033
0.355,0.029
0.360,0.033
0.365,0.034
0.370,0.041
0.375,0.032
0.380,0.019
0.385,0.038
0.390,0.052
0.395,0.060
0.400,0.059
0.405,0.051
0.410,0.056
0.415,0.049
0.420,0.048
0.425,0.046
0.430,0.039
0.435,0.046
0.440,0.042
0.445,0.036
0.450,0.027
0.455,0.019
0.460,0.024
0.465,0.019
0.470,0.016
0.475,0.007
0.480,-0.006
0.485,-0.005
0.490,-0.014
0.495,-0.017
0.500,-0.016
0.505,-0.020
0.510,-0.021
0.515,-0.030
0.520,-0.026
0.525,-0.027
0.530,-0.034
0.535,-0.028
0.540,-0.033
0.545,-0.033
0.550,-0.031
0.555,-0.033
0.560,-0.028
0.565,-0.032
0.570,-0.028
0.575,-0.026
0.580,-0.031
0.585,-0.024
0.590,-0.027
0.595,-0.028
0.600,-0.025
0.605,-0.021
0.610,-0.013
0.615,-0.015
0.620,-0.011
0.625,-0.008
0.630,-0.010
0.635,-0.002
0.640,-0.005
0.645,-0.002
0.650,0.001
0.655,0.002
0.660,0.008
0.665,0.005
0.670,0.010
0.675,0.008
0.680,0.004
0.685,0.012
0.690,0.008
0.695,0.009
0.700,0.010
0.705,0.007
0.710,0.011
0.715,0.008
0.720,0.010
0.725,0.010
0.730,0.005
0.735,0.012
0.740,0.008
0.745,0.007
0.750,0.007
0.755,0.004
0.760,0.009
0.765,0.005
0.770,0.008
0.775,0.007
0.780,-0.001
0.785,0.003
0.790,0.003
0.795,0.009
0.800,0.009
0.805,0.002
0.810,0.004
0.815,0.001
0.820,0.008
0.825,0.007
0.830,0.002
0.835,0.011
0.840,0.008
0.845,0.007
0.850,0.011
0.855,0.007
0.860,0.009
0.865,0.005
0.870,0.010
0.875,0.011
0.880,0.003
0.885,0.006
0.890,0.003
0.895,0.004
0.900,0.006
0.905,0.003
0.910,0.005
0.915,0.000
0.920,0.004
0.925,0.003
0.930,-0.002
0.935,0.006
0.940,0.001
0.945,0.001
0.950,0.003
0.955,0.000
0.960,0.004
0.965,0.000
0.970,0.005
0.975,0.005
0.980,0.000
0.985,0.008
0.990,0.006
0.995,0.006
1.000,0.007
1.005,0.004
1.010,0.008
1.015,0.004
1.020,0.011
1.025,0.012
1.030,0.008
1.035,0.015
1.040,0.002
1.045,-0.005
1.050,0.000
1.055,0.008
1.060,0.021
1.065,0.019
1.070,0.021
1.075,0.017
1.080,0.006
1.085,0.011
1.090,0.018
1.095,0.035
1.100,0.042
1.105,0.029
1.110,0.021
1.115,0.005
1.120,0.002
1.125,-0.003
1.130,-0.014
1.135,-0.010
1.140,-0.009
1.145,-0.008
1.150,-0.010
1.155,-0.009
1.160,-0.003
1.165,-0.007
1.170,-0.001
1.175,-0.003
1.180,-0.012
1.185,-0.006
1.190,-0.009
1.195,-0.007
1.200,-0.013
1.205,-0.019
1.210,0.026
1.215,0.113
1.220,0.230
1.225,0.323
1.230,0.336
1.235,0.215
1.240,0.033
1.245,-0.097
1.250,-0.217
1.255,-0.294
1.260,-0.350
1.265,-0.360
1.270,-0.240
1.275,-0.129
1.280,-0.067
1.285,-0.022
1.290,-0.015
1.295,-0.006
1.300,0.005
1.305,0.008
1.310,0.015
1.315,0.013
1.320,0.015
1.325,0.014
1.330,0.014
1.335,0.027
1.340,0.020
1.345,0.019
1.350,0.027
1.355,0.032
1.360,0.035
1.365,0.022
1.370,0.020
1.375,0.020
1.380,0.019
1.385,0.027
1.390,0.022
1.395,0.021
1.400,0.020
1.405,0.018
1.410,0.021
1.415,0.015
1.420,0.025
1.425,0.028
1.430,0.020
1.435,0.026
1.440,0.026
1.445,0.033
1.450,0.037
1.455,0.033
1.460,0.033
1.465,0.025
1.470,0.034
1.475,0.038
1.480,0.031
1.485,0.041
1.490,0.043
1.495,0.047
1.500,0.044
1.505,0.037
1.510,0.042
1.515,0.030
1.520,0.023
1.525,0.026
1.530,0.026
1.535,0.026
1.540,0.012
1.545,0.008
1.550,0.006
1.555,-0.002
1.560,-0.005
1.565,-0.012
1.570,-0.007
1.575,-0.014
1.580,-0.027
1.585,-0.025
1.590,-0.035
1.595,-0.035
1.600,-0.036
1.605,-0.049
1.610,-0.055
1.615,-0.053
1.620,-0.033
1.625,-0.030
1.630,-0.043
1.635,-0.033
1.640,-0.029
1.645,-0.026
1.650,-0.029
1.655,-0.039
1.660,-0.036
1.665,-0.032
1.670,-0.026
1.675,-0.025
1.680,-0.026
1.685,-0.016
1.690,-0.019
1.695,-0.024
1.700,-0.028
1.705,-0.021
1.710,-0.006
1.715,-0.010
1.720,-0.012
1.725,-0.020
1.730,-0.026
1.735,-0.009
1.740,-0.004
1.745,-0.001
1.750,-0.007
1.755,-0.021
1.760,-0.015
1.765,-0.005
1.770,0.000
1.775,-0.009
1.780,-0.011
1.785,0.006
1.790,0.009
1.795,0.012
1.800,0.004
1.805,-0.004
1.810,0.003
1.815,0.000
1.820,0.004
1.825,0.003
1.830,0.000
1.835,0.011
1.840,0.009
1.845,0.003
1.850,-0.005
1.855,-0.005
1.860,0.010
1.865,0.010
1.870,0.018
1.875,0.020
1.880,0.008
1.885,0.007
1.890,0.000
1.895,0.004
1.900,0.013
1.905,0.013
1.910,0.009
1.915,0.005
1.920,0.018
1.925,0.019
1.930,0.005
1.935,0.002
1.940,-0.002
1.945,0.003
1.950,0.007
1.955,0.006
1.960,0.014
1.965,0.016
1.970,0.021
1.975,0.016
1.980,0.012
1.985,0.016
1.990,0.005
1.995,-0.001
2.000,-0.008
2.005,-0.007
2.010,0.001
2.015,-0.006
2.020,0.006
2.025,0.013
2.030,0.004
2.035,0.006
2.040,0.002
2.045,0.010
2.050,0.010
2.055,0.002
2.060,0.005
2.065,0.003
2.070,0.008
2.075,0.003
2.080,0.004
2.085,0.016
2.090,0.014
2.095,0.021
2.100,0.016
2.105,0.005
2.110,0.000
2.115,-0.016
2.120,-0.001
2.125,0.023
2.130,0.022
2.135,0.029
2.140,0.025
2.145,0.018
2.150,0.018
2.155,0.019
2.160,0.030
2.165,0.036
2.170,0.027
2.175,0.009
2.180,0.002
2.185,0.003
2.190,-0.001
2.195,0.002
2.200,-0.004
2.205,-0.005
2.210,0.000
2.215,-0.012
2.220,-0.008
2.225,-0.008
2.230,-0.020
2.235,-0.010
2.240,-0.008
2.245,-0.014
2.250,-0.011
2.255,-0.010
2.260,-0.012
2.265,-0.022
2.270,-0.021
2.275,0.013
2.280,0.098
2.285,0.212
2.290,0.309
2.295,0.346
2.300,0.220
2.305,0.026
2.310,-0.111
2.315,-0.255
2.320,-0.341
2.325,-0.404
2.330,-0.412
2.335,-0.273
2.340,-0.133
2.345,-0.051
2.350,-0.020
2.355,-0.019
2.360,-0.006
2.365,0.005
2.370,0.018
2.375,0.014
2.380,0.013
2.385,0.024
2.390,0.012
2.395,0.013
2.400,0.025
2.405,0.024
2.410,0.019
2.415,0.009
2.420,0.018
2.425,0.019
2.430,0.017
2.435,0.028
2.440,0.023
2.445,0.023
2.450,0.024
2.455,0.018
2.460,0.021
2.465,0.019
2.470,0.029
2.475,0.033
2.480,0.024
2.485,0.024
2.490,0.021
2.495,0.026
2.500,0.029
2.505,0.027
2.510,0.031
2.515,0.028
2.520,0.031
2.525,0.028
2.530,0.027
2.535,0.038
2.540,0.034
2.545,0.035
2.550,0.037
2.555,0.033
2.560,0.036
2.565,0.029
2.570,0.032
2.575,0.030
2.580,0.022
2.585,0.024
2.590,0.014
2.595,0.010
2.600,0.005
2.605,-0.003
2.610,-0.002
2.615,-0.010
2.620,-0.009
2.625,-0.014
2.630,-0.026
2.635,-0.024
2.640,-0.033
2.645,-0.036
2.650,-0.038
2.655,-0.042
2.660,-0.040
2.665,-0.047
2.670,-0.044
2.675,-0.044
2.680,-0.050
2.685,-0.045
2.690,-0.051
2.695,-0.048
2.700,-0.047
2.705,-0.049
2.710,-0.043
2.715,-0.047
2.720,-0.042
2.725,-0.043
2.730,-0.043
2.735,-0.029
2.740,-0.030
2.745,-0.027
2.750,-0.025
2.755,-0.026
2.760,-0.019
2.765,-0.022
2.770,-0.016
2.775,-0.017
2.780,-0.022
2.785,-0.011
2.790,-0.010
2.795,-0.006
2.800,-0.007
2.805,-0.009
2.810,-0.004
2.815,-0.010
2.820,-0.002
2.825,0.000
2.830,-0.006
2.835,0.001
2.840,-0.001
2.845,0.003
2.850,0.004
2.855,0.001
2.860,0.005
2.865,0.002
2.870,0.009
2.875,0.010
2.880,0.005
2.885,0.009
2.890,0.004
2.895,0.006
2.900,0.007
2.905,0.004
2.910,0.007
2.915,0.002
2.920,0.009
2.925,0.009
2.930,0.004
2.935,0.012
2.940,0.008
2.945,0.011
2.950,0.011
2.955,0.008
2.960,0.013
2.965,0.005
2.970,0.010
2.975,0.011
2.980,0.006
2.985,0.012
2.990,0.009
2.995,0.011
3.000,0.010
3.005,0.009
3.010,0.013
3.015,0.007
3.020,0.014
3.025,0.015
3.030,0.008
3.035,0.015
3.040,0.011
3.045,0.013
3.050,0.013
3.055,0.009
3.060,0.014
3.065,0.008
3.070,0.012
3.075,0.012
3.080,0.006
3.085,0.011
3.090,0.007
3.095,0.011
3.100,0.012
3.105,0.009
3.110,0.011
3.115,0.005
3.120,0.010
3.125,0.010
3.130,0.005
3.135,0.011
3.140,0.008
3.145,0.009
3.150,0.006
3.155,0.003
3.160,0.010
3.165,0.006
3.170,0.013
3.175,0.015
3.180,0.004
3.185,0.000
3.190,-0.005
3.195,0.008
3.200,0.019
3.205,0.020
3.210,0.025
3.215,0.018
3.220,0.022
3.225,0.023
3.230,0.018
3.235,0.032
3.240,0.040
3.245,0.039
3.250,0.028
3.255,0.014
3.260,0.004
3.265,-0.007
3.270,-0.004
3.275,-0.008
3.280,-0.012
3.285,-0.005
3.290,-0.011
3.295,-0.007
3.300,-0.005
3.305,-0.010
3.310,-0.007
3.315,-0.012
3.320,-0.007
3.325,-0.009
3.330,-0.015
3.335,-0.008
3.340,-0.012
3.345,-0.016
3.350,-0.006
3.355,0.049
3.360,0.144
3.365,0.232
3.370,0.303
3.375,0.265
3.380,0.101
3.385,-0.053
3.390,-0.171
3.395,-0.238
3.400,-0.282
3.405,-0.326
3.410,-0.274
3.415,-0.175
3.420,-0.091
3.425,-0.046
3.430,-0.037
3.435,-0.022
3.440,-0.019
3.445,-0.006
3.450,0.006
3.455,0.005
3.460,0.009
3.465,0.007
3.470,0.013
3.475,0.013
3.480,0.011
3.485,0.017
3.490,0.012
3.495,0.014
3.500,0.016
3.505,0.015
3.510,0.020
3.515,0.014
3.520,0.018
3.525,0.018
3.530,0.015
3.535,0.022
3.540,0.016
3.545,0.017
3.550,0.020
3.555,0.019
3.560,0.023
3.565,0.018
3.570,0.023
3.575,0.024
3.580,0.020
3.585,0.028
3.590,0.025
3.595,0.028
3.600,0.029
3.605,0.028
3.610,0.033
3.615,0.030
3.620,0.035
3.625,0.034
3.630,0.027
3.635,0.033
3.640,0.029
3.645,0.029
3.650,0.027
3.655,0.025
3.660,0.029
3.665,0.019
3.670,0.021
3.675,0.017
3.680,0.008
3.685,0.012
3.690,0.004
3.695,0.001
3.700,-0.002
3.705,-0.008
3.710,-0.008
3.715,-0.017
3.720,-0.015
3.725,-0.018
3.730,-0.025
3.735,-0.023
3.740,-0.029
3.745,-0.027
3.750,-0.027
3.755,-0.030
3.760,-0.026
3.765,-0.032
3.770,-0.026
3.775,-0.025
3.780,-0.031
3.785,-0.024
3.790,-0.028
3.795,-0.026
3.800,-0.025
3.805,-0.027
3.810,-0.022
3.815,-0.027
3.820,-0.021
3.825,-0.021
3.830,-0.025
3.835,-0.018
3.840,-0.022
3.845,-0.020
3.850,-0.021
3.855,-0.022
3.860,-0.016
3.865,-0.021
3.870,-0.014
3.875,-0.012
3.880,-0.016
3.885,-0.011
3.890,-0.013
3.895,-0.009
3.900,-0.009
3.905,-0.010
3.910,-0.004
3.915,-0.009
3.920,-0.002
3.925,0.000
3.930,-0.004
3.935,0.002
3.940,-0.001
3.945,0.003
3.950,0.005
3.955,0.003
3.960,0.007
3.965,0.002
3.970,0.007
3.975,0.008
3.980,0.003
3.985,0.008
3.990,0.004
3.995,0.007
4.000,0.008
4.005,0.007
4.010,0.010
4.015,0.004
4.020,0.011
4.025,0.010
4.030,0.005
4.035,0.010
4.040,0.006
4.045,0.007
4.050,0.005
4.055,0.002
4.060,0.007
4.065,0.001
4.070,0.008
4.075,0.009
4.080,0.005
4.085,0.010
4.090,0.005
4.095,0.007
4.100,0.007
4.105,0.006
4.110,0.011
4.115,0.005
4.120,0.010
4.125,0.009
4.130,0.005
4.135,0.010
4.140,0.006
4.145,0.007
4.150,0.006
4.155,0.003
4.160,0.005
4.165,0.001
4.170,0.010
4.175,0.013
4.180,0.010
4.185,0.016
4.190,0.009
4.195,0.010
4.200,0.010
4.205,0.008
4.210,0.012
4.215,0.006
4.220,0.011
4.225,0.009
4.230,0.004
4.235,0.010
4.240,0.007
4.245,0.008
4.250,0.004
4.255,0.002
4.260,0.010
4.265,0.007
4.270,0.014
4.275,0.011
4.280,-0.003
4.285,-0.006
4.290,-0.005
4.295,0.010
4.300,0.018
4.305,0.018
4.310,0.021
4.315,0.014
4.320,0.018
4.325,0.016
4.330,0.016
4.335,0.033
4.340,0.036
4.345,0.034
4.350,0.022
4.355,0.007
4.360,-0.001
4.365,-0.012
4.370,-0.010
4.375,-0.013
4.380,-0.017
4.385,-0.012
4.390,-0.016
4.395,-0.011
4.400,-0.010
4.405,-0.013
4.410,-0.013
4.415,-0.018
4.420,-0.013
4.425,-0.014
4.430,-0.017
4.435,-0.010
4.440,-0.019
4.445,-0.022
4.450,0.003
4.455,0.076
4.460,0.181
4.465,0.269
4.470,0.320
4.475,0.229
4.480,0.051
4.485,-0.078
4.490,-0.192
4.495,-0.256
4.500,-0.312
4.505,-0.342
4.510,-0.258
4.515,-0.161
4.520,-0.083
4.525,-0.039
4.530,-0.031
4.535,-0.019
4.540,-0.014
4.545,-0.002
4.550,0.001
4.555,0.000
4.560,0.009
4.565,0.005
4.570,0.011
4.575,0.010
4.580,0.007
4.585,0.013
4.590,0.006
4.595,0.008
4.600,0.010
4.605,0.012
4.610,0.016
4.615,0.010
4.620,0.016
4.625,0.017
4.630,0.013
4.635,0.018
4.640,0.013
4.645,0.016
4.650,0.017
4.655,0.016
4.660,0.022
4.665,0.016
4.670,0.022
4.675,0.023
4.680,0.019
4.685,0.026
4.690,0.024
4.695,0.027
4.700,0.027
4.705,0.027
4.710,0.032
4.715,0.027
4.720,0.035
4.725,0.035
4.730,0.032
4.735,0.037
4.740,0.030
4.745,0.032
4.750,0.030
4.755,0.026
4.760,0.028
4.765,0.020
4.770,0.023
4.775,0.018
4.780,0.010
4.785,0.010
4.790,0.002
4.795,0.001
4.800,-0.007
4.805,-0.013
4.810,-0.012
4.815,-0.020
4.820,-0.018
4.825,-0.024
4.830,-0.031
4.835,-0.026
4.840,-0.031
4.845,-0.029
4.850,-0.031
4.855,-0.031
4.860,-0.029
4.865,-0.036
4.870,-0.026
4.875,-0.025
4.880,-0.032
4.885,-0.026
4.890,-0.029
4.895,-0.024
4.900,-0.026
4.905,-0.028
4.910,-0.019
4.915,-0.023
4.920,-0.018
4.925,-0.017
4.930,-0.022
4.935,-0.015
4.940,-0.019
4.945,-0.015
4.950,-0.015
4.955,-0.018
4.960,-0.017
4.965,-0.025
4.970,-0.017
4.975,-0.012
4.980,-0.014
4.985,-0.010
4.990,-0.015
4.995,-0.010
5.000,-0.009
5.005,-0.010
5.010,-0.006
5.015,-0.011
5.020,-0.003
5.025,0.001
5.030,-0.001
5.035,0.006
5.040,0.003
5.045,0.008
5.050,0.006
5.055,0.007
5.060,0.014
5.065,0.009
5.070,0.015
5.075,0.011
5.080,0.004
5.085,0.013
5.090,0.011
5.095,0.015
5.100,0.015
5.105,0.016
5.110,0.023
5.115,0.015
5.120,0.012
5.125,0.003
5.130,0.000
5.135,0.011
5.140,0.010
5.145,0.018
5.150,0.019
5.155,0.015
5.160,0.016
5.165,0.006
5.170,0.010
5.175,0.009
5.180,0.004
5.185,0.012
5.190,0.017
5.195,0.024
5.200,0.017
5.205,0.014
5.210,0.014
5.215,0.006
5.220,0.009
5.225,0.003
5.230,0.006
5.235,0.020
5.240,0.015
5.245,0.014
5.250,0.009
5.255,0.007
5.260,0.013
5.265,0.012
5.270,0.021
5.275,0.014
5.280,0.004
5.285,0.009
5.290,0.007
5.295,0.010
5.300,0.009
5.305,0.010
5.310,0.014
5.315,0.007
5.320,0.009
5.325,0.002
5.330,-0.002
5.335,0.008
5.340,0.006
5.345,0.005
5.350,0.004
5.355,0.014
5.360,0.018
5.365,-0.004
5.370,0.000
5.375,0.016
5.380,0.023
5.385,0.026
5.390,0.015
5.395,0.021
5.400,0.023
5.405,0.012
5.410,0.015
5.415,0.024
5.420,0.042
5.425,0.038
5.430,0.020
5.435,0.012
5.440,0.001
5.445,0.003
5.450,0.000
5.455,-0.009
5.460,-0.012
5.465,-0.017
5.470,-0.009
5.475,-0.014
5.480,-0.024
5.485,-0.013
5.490,-0.008
5.495,-0.007
5.500,-0.011
5.505,-0.014
5.510,-0.013
5.515,-0.014
5.520,-0.007
5.525,-0.023
5.530,-0.026
5.535,0.038
5.540,0.149
5.545,0.278
5.550,0.359
5.555,0.334
5.560,0.173
5.565,-0.011
5.570,-0.144
5.575,-0.276
5.580,-0.365
5.585,-0.429
5.590,-0.395
5.595,-0.240
5.600,-0.125
5.605,-0.059
5.610,-0.027
5.615,-0.019
5.620,0.003
5.625,0.010
5.630,0.010
5.635,0.020
5.640,0.024
5.645,0.031
5.650,0.024
5.655,0.025
5.660,0.030
5.665,0.023
5.670,0.031
5.675,0.029
5.680,0.024
5.685,0.027
5.690,0.023
5.695,0.029
5.700,0.025
5.705,0.025
5.710,0.029
5.715,0.015
5.720,0.022
5.725,0.031
5.730,0.032
5.735,0.038
5.740,0.030
5.745,0.035
5.750,0.034
5.755,0.031
5.760,0.042
5.765,0.043
5.770,0.046
5.775,0.038
5.780,0.027
5.785,0.035
5.790,0.033
5.795,0.035
5.800,0.042
5.805,0.047
5.810,0.051
5.815,0.040
5.820,0.038
5.825,0.035
5.830,0.032
5.835,0.041
5.840,0.037
5.845,0.030
5.850,0.024
5.855,0.024
5.860,0.023
5.865,0.006
5.870,0.000
5.875,-0.006
5.880,-0.007
5.885,-0.006
5.890,-0.023
5.895,-0.026
5.900,-0.034
5.905,-0.042
5.910,-0.036
5.915,-0.044
5.920,-0.046
5.925,-0.045
5.930,-0.043
5.935,-0.043
5.940,-0.054
5.945,-0.049
5.950,-0.044
5.955,-0.043
5.960,-0.060
5.965,-0.075
5.970,-0.042
5.975,-0.026
5.980,-0.031
5.985,-0.031
5.990,-0.048
5.995,-0.052
6.000,-0.047
6.005,-0.034
6.010,-0.019
6.015,-0.027
6.020,-0.033
6.025,-0.028
6.030,-0.016
6.035,-0.009
6.040,-0.014
6.045,-0.014
6.050,-0.015
6.055,-0.009
6.060,-0.007
6.065,-0.019
6.070,-0.008
6.075,-0.006
6.080,-0.008
6.085,-0.003
6.090,-0.010
6.095,0.000
6.100,0.008
6.105,0.003
6.110,-0.003
6.115,-0.013
6.120,0.000
6.125,0.006
6.130,0.002
6.135,0.011
6.140,0.013
6.145,0.008
6.150,-0.006
6.155,-0.006
6.160,0.005
6.165,0.001
6.170,0.002
6.175,-0.003
6.180,-0.003
6.185,0.007
6.190,0.003
6.195,0.001
6.200,-0.007
6.205,-0.010
6.210,-0.001
6.215,0.005
6.220,0.018
6.225,0.011
6.230,-0.002
6.235,0.004
6.240,0.004
6.245,0.006
6.250,0.005
6.255,0.006
6.260,0.002
6.265,-0.008
6.270,-0.007
6.275,-0.015
6.280,0.001
6.285,0.018
6.290,0.005
6.295,0.009
6.300,0.006
6.305,0.004
6.310,0.010
6.315,-0.002
6.320,0.005
6.325,0.004
6.330,-0.003
6.335,0.008
6.340,0.013
6.345,0.009
6.350,-0.001
6.355,0.003
6.360,0.007
6.365,0.001
6.370,-0.001
6.375,-0.008
6.380,0.005
6.385,0.017
6.390,0.010
6.395,0.010
6.400,0.005
6.405,0.007
6.410,0.010
6.415,0.000
6.420,0.006
6.425,0.007
6.430,0.004
6.435,0.005
6.440,-0.005
6.445,-0.007
6.450,-0.009
6.455,-0.001
6.460,0.011
6.465,0.009
6.470,0.020
6.475,0.022
6.480,0.015
6.485,0.015
6.490,0.016
6.495,0.033
6.500,0.041
6.505,0.033
6.510,0.020
6.515,0.002
6.520,-0.001
6.525,-0.008
6.530,-0.015
6.535,-0.012
6.540,-0.015
6.545,-0.015
6.550,-0.018
6.555,-0.010
6.560,-0.001
6.565,-0.010
6.570,-0.007
6.575,-0.010
6.580,-0.013
6.585,-0.008
6.590,-0.012
6.595,-0.003
6.600,-0.009
6.605,-0.018
6.610,0.007
6.615,0.079
6.620,0.200
6.625,0.300
6.630,0.340
6.635,0.248
6.640,0.063
6.645,-0.068
6.650,-0.197
6.655,-0.302
6.660,-0.376
6.665,-0.405
6.670,-0.289
6.675,-0.158
6.680,-0.078
6.685,-0.026
6.690,-0.016
6.695,-0.008
6.700,-0.005
6.705,0.004
6.710,0.014
6.715,0.011
6.720,0.023
6.725,0.025
6.730,0.019
6.735,0.026
6.740,0.020
6.745,0.018
6.750,0.017
6.755,0.022
6.760,0.030
6.765,0.028
6.770,0.034
6.775,0.024
6.780,0.014
6.785,0.019
6.790,0.022
6.795,0.030
6.800,0.028
6.805,0.029
6.810,0.033
6.815,0.023
6.820,0.024
6.825,0.024
6.830,0.029
6.835,0.038
6.840,0.034
6.845,0.037
6.850,0.035
6.855,0.037
6.860,0.039
6.865,0.033
6.870,0.039
6.875,0.036
6.880,0.036
6.885,0.044
6.890,0.043
6.895,0.048
6.900,0.041
6.905,0.035
6.910,0.036
6.915,0.028
6.920,0.035
6.925,0.031
6.930,0.022
6.935,0.023
6.940,0.014
6.945,0.015
6.950,0.008
6.955,0.005
6.960,0.003
6.965,-0.011
6.970,-0.011
6.975,-0.021
6.980,-0.027
6.985,-0.024
6.990,-0.033
6.995,-0.033
7.000,-0.041
7.005,-0.041
7.010,-0.037
7.015,-0.046
7.020,-0.038
7.025,-0.039
7.030,-0.039
7.035,-0.035
7.040,-0.043
7.045,-0.040
7.050,-0.041
7.055,-0.039
7.060,-0.036
7.065,-0.041
7.070,-0.031
7.075,-0.030
7.080,-0.033
7.085,-0.028
7.090,-0.031
7.095,-0.026
7.100,-0.025
7.105,-0.021
7.110,-0.016
7.115,-0.021
7.120,-0.011
7.125,-0.010
7.130,-0.007
7.135,-0.002
7.140,-0.005
7.145,0.002
7.150,-0.001
7.155,-0.002
7.160,0.000
7.165,-0.005
7.170,0.005
7.175,0.001
7.180,-0.003
7.185,0.002
7.190,-0.003
7.195,0.002
7.200,0.000
7.205,0.000
7.210,0.004
7.215,-0.002
7.220,0.005
7.225,0.002
7.230,-0.001
7.235,0.007
7.240,0.002
7.245,0.005
7.250,0.003
7.255,0.002
7.260,0.004
7.265,-0.003
7.270,0.006
7.275,0.005
7.280,0.001
7.285,0.005
7.290,0.001
7.295,0.007
7.300,0.004
7.305,0.004
7.310,0.006
7.315,-0.003
7.320,0.006
7.325,0.006
7.330,0.005
7.335,0.011
7.340,0.007
7.345,0.010
7.350,0.007
7.355,0.008
7.360,0.011
7.365,0.003
7.370,0.009
7.375,0.007
7.380,0.005
7.385,0.010
7.390,0.006
7.395,0.010
7.400,0.005
7.405,0.006
7.410,0.011
7.415,0.005
7.420,0.011
7.425,0.005
7.430,0.003
7.435,0.012
7.440,0.008
7.445,0.011
7.450,0.008
7.455,0.009
7.460,0.011
7.465,0.003
7.470,0.011
7.475,0.009
7.480,0.006
7.485,0.010
7.490,0.005
7.495,0.010
7.500,0.006
7.505,0.005
7.510,0.008
7.515,0.004
7.520,0.013
7.525,0.013
7.530,0.012
7.535,0.009
7.540,-0.005
7.545,0.000
7.550,0.007
7.555,0.018
7.560,0.026
7.565,0.020
7.570,0.026
7.575,0.022
7.580,0.019
7.585,0.025
7.590,0.030
7.595,0.044
7.600,0.038
7.605,0.028
7.610,0.017
7.615,-0.003
7.620,-0.001
7.625,-0.006
7.630,-0.013
7.635,-0.008
7.640,-0.012
7.645,-0.007
7.650,-0.006
7.655,-0.004
7.660,-0.004
7.665,-0.011
7.670,-0.004
7.675,-0.008
7.680,-0.013
7.685,-0.009
7.690,-0.009
7.695,-0.005
7.700,-0.017
7.705,-0.001
7.710,0.067
7.715,0.156
7.720,0.255
7.725,0.312
7.730,0.252
7.735,0.093
7.740,-0.058
7.745,-0.161
7.750,-0.225
7.755,-0.275
7.760,-0.311
7.765,-0.257
7.770,-0.152
7.775,-0.088
7.780,-0.053
7.785,-0.038
7.790,-0.033
7.795,-0.020
7.800,-0.016
7.805,-0.008
7.810,-0.004
7.815,-0.008
7.820,0.000
7.825,-0.003
7.830,-0.004
7.835,0.003
7.840,0.000
7.845,0.005
7.850,0.004
7.855,0.006
7.860,0.007
7.865,0.002
7.870,0.011
7.875,0.010
7.880,0.008
7.885,0.014
7.890,0.012
7.895,0.016
7.900,0.013
7.905,0.016
7.910,0.020
7.915,0.014
7.920,0.022
7.925,0.020
7.930,0.018
7.935,0.024
7.940,0.022
7.945,0.027
7.950,0.023
7.955,0.026
7.960,0.031
7.965,0.026
7.970,0.034
7.975,0.032
7.980,0.030
7.985,0.034
7.990,0.030
7.995,0.034
8.000,0.029
8.005,0.028
8.010,0.027
8.015,0.019
8.020,0.026
8.025,0.020
8.030,0.013
8.035,0.012
8.040,0.005
8.045,0.006
8.050,0.000
8.055,-0.003
8.060,-0.004
8.065,-0.010
8.070,-0.006
8.075,-0.015
8.080,-0.020
8.085,-0.018
8.090,-0.024
8.095,-0.021
8.100,-0.027
8.105,-0.026
8.110,-0.025
8.115,-0.031
8.120,-0.024
8.125,-0.027
8.130,-0.029
8.135,-0.026
8.140,-0.029
8.145,-0.024
8.150,-0.027
8.155,-0.024
8.160,-0.022
8.165,-0.027
8.170,-0.018
8.175,-0.020
8.180,-0.021
8.185,-0.017
8.190,-0.021
8.195,-0.018
8.200,-0.021
8.205,-0.017
8.210,-0.014
8.215,-0.021
8.220,-0.013
8.225,-0.016
8.230,-0.016
8.235,-0.012
8.240,-0.016
8.245,-0.010
8.250,-0.013
8.255,-0.012
8.260,-0.008
8.265,-0.013
8.270,-0.003
8.275,-0.005
8.280,-0.007
8.285,-0.003
8.290,-0.004
8.295,0.003
8.300,0.000
8.305,0.002
8.310,0.005
8.315,-0.001
8.320,0.007
8.325,0.004
8.330,0.003
8.335,0.007
8.340,0.002
8.345,0.007
8.350,0.004
8.355,0.005
8.360,0.007
8.365,0.000
8.370,0.008
8.375,0.006
8.380,0.006
8.385,0.009
8.390,0.006
8.395,0.011
8.400,0.008
8.405,0.010
8.410,0.011
8.415,0.004
8.420,0.012
8.425,0.007
8.430,0.006
8.435,0.011
8.440,0.007
8.445,0.011
8.450,0.007
8.455,0.008
8.460,0.011
8.465,0.003
8.470,0.009
8.475,0.006
8.480,0.005
8.485,0.009
8.490,0.006
8.495,0.011
8.500,0.006
8.505,0.007
8.510,0.009
8.515,0.003
8.520,0.011
8.525,0.008
8.530,0.007
8.535,0.010
8.540,0.006
8.545,0.011
8.550,0.006
8.555,0.007
8.560,0.008
8.565,0.002
8.570,0.009
8.575,0.005
8.580,0.003
8.585,0.007
8.590,0.005
8.595,0.010
8.600,0.006
8.605,0.006
8.610,0.004
8.615,0.000
8.620,0.011
8.625,0.009
8.630,0.009
8.635,0.010
8.640,-0.003
8.645,-0.003
8.650,-0.001
8.655,0.012
8.660,0.022
8.665,0.016
8.670,0.022
8.675,0.018
8.680,0.017
8.685,0.020
8.690,0.024
8.695,0.040
8.700,0.040
8.705,0.034
8.710,0.023
8.715,0.004
8.720,0.001
8.725,-0.006
8.730,-0.011
8.735,-0.010
8.740,-0.012
8.745,-0.009
8.750,-0.014
8.755,-0.010
8.760,-0.008
8.765,-0.017
8.770,-0.010
8.775,-0.013
8.780,-0.014
8.785,-0.013
8.790,-0.019
8.795,-0.013
8.800,-0.020
8.805,-0.015
8.810,0.030
8.815,0.106
8.820,0.212
8.825,0.295
8.830,0.305
8.835,0.180
8.840,0.005
8.845,-0.110
8.850,-0.196
8.855,-0.244
8.860,-0.298
8.865,-0.294
8.870,-0.196
8.875,-0.117
8.880,-0.070
8.885,-0.048
8.890,-0.040
8.895,-0.028
8.900,-0.023
8.905,-0.008
8.910,-0.006
8.915,-0.013
8.920,-0.001
8.925,-0.002
8.930,-0.005
8.935,0.000
8.940,0.000
8.945,0.007
8.950,0.001
8.955,0.003
8.960,0.005
8.965,0.001
8.970,0.009
8.975,0.003
8.980,0.004
8.985,0.013
8.990,0.013
8.995,0.016
9.000,0.008
9.005,0.013
9.010,0.018
9.015,0.015
9.020,0.024
9.025,0.020
9.030,0.021
9.035,0.026
9.040,0.023
9.045,0.027
9.050,0.025
9.055,0.030
9.060,0.034
9.065,0.032
9.070,0.041
9.075,0.036
9.080,0.033
9.085,0.035
9.090,0.032
9.095,0.036
9.100,0.029
9.105,0.030
9.110,0.030
9.115,0.022
9.120,0.029
9.125,0.023
9.130,0.019
9.135,0.019
9.140,0.012
9.145,0.013
9.150,0.005
9.155,0.005
9.160,0.004
9.165,-0.005
9.170,0.000
9.175,-0.007
9.180,-0.012
9.185,-0.014
9.190,-0.022
9.195,-0.018
9.200,-0.024
9.205,-0.023
9.210,-0.024
9.215,-0.030
9.220,-0.023
9.225,-0.026
9.230,-0.027
9.235,-0.024
9.240,-0.027
9.245,-0.020
9.250,-0.024
9.255,-0.022
9.260,-0.021
9.265,-0.027
9.270,-0.018
9.275,-0.023
9.280,-0.025
9.285,-0.022
9.290,-0.025
9.295,-0.018
9.300,-0.022
9.305,-0.020
9.310,-0.020
9.315,-0.025
9.320,-0.016
9.325,-0.018
9.330,-0.019
9.335,-0.016
9.340,-0.020
9.345,-0.013
9.350,-0.018
9.355,-0.015
9.360,-0.012
9.365,-0.016
9.370,-0.007
9.375,-0.009
9.380,-0.009
9.385,-0.006
9.390,-0.007
9.395,0.000
9.400,-0.002
9.405,0.000
9.410,-0.001
9.415,-0.006
9.420,0.003
9.425,-0.001
9.430,0.000
9.435,0.002
9.440,-0.001
9.445,0.005
9.450,-0.002
9.455,0.002
9.460,0.005
9.465,-0.003
9.470,0.006
9.475,0.003
9.480,0.001
9.485,0.004
9.490,0.002
9.495,0.008
9.500,0.004
9.505,0.006
9.510,0.008
9.515,0.002
9.520,0.009
9.525,0.005
9.530,0.006
9.535,0.010
9.540,0.006
9.545,0.011
9.550,0.006
9.555,0.009
9.560,0.010
9.565,0.003
9.570,0.012
9.575,0.009
9.580,0.006
9.585,0.009
9.590,0.006
9.595,0.010
9.600,0.005
9.605,0.007
9.610,0.009
9.615,0.005
9.620,0.011
9.625,0.005
9.630,0.006
9.635,0.008
9.640,0.005
9.645,0.012
9.650,0.007
9.655,0.010
9.660,0.010
9.665,0.003
9.670,0.011
9.675,0.007
9.680,0.006
9.685,0.007
9.690,0.005
9.695,0.010
9.700,0.005
9.705,0.008
9.710,0.009
9.715,0.005
9.720,0.014
9.725,0.013
9.730,0.016
9.735,0.014
9.740,0.002
9.745,0.006
9.750,0.011
9.755,0.021
9.760,0.026
9.765,0.020
9.770,0.026
9.775,0.020
9.780,0.016
9.785,0.022
9.790,0.031
9.795,0.045
9.800,0.035
9.805,0.026
9.810,0.019
9.815,0.006
9.820,0.005
9.825,-0.007
9.830,-0.015
9.835,-0.012
9.840,-0.013
9.845,-0.009
9.850,-0.012
9.855,-0.007
9.860,-0.007
9.865,-0.013
9.870,-0.006
9.875,-0.011
9.880,-0.013
9.885,-0.011
9.890,-0.012
9.895,-0.008
9.900,-0.020
9.905,0.001
9.910,0.078
9.915,0.189
9.920,0.313
9.925,0.378
9.930,0.309
9.935,0.130
9.940,-0.032
9.945,-0.166
9.950,-0.279
9.955,-0.354
9.960,-0.397
9.965,-0.319
9.970,-0.182
9.975,-0.100
9.980,-0.049
9.985,-0.032
9.990,-0.028
9.995,-0.013
10.000,-0.006
10.005,0.003
10.010,0.003
10.015,-0.001
10.020,0.010
10.025,0.005
10.030,0.005
10.035,0.011
10.040,0.007
10.045,0.011
10.050,0.008
10.055,0.013
10.060,0.016
10.065,0.012
10.070,0.018
10.075,0.015
10.080,0.016
10.085,0.017
10.090,0.015
10.095,0.020
10.100,0.016
10.105,0.019
10.110,0.019
10.115,0.015
10.120,0.026
10.125,0.022
10.130,0.023
10.135,0.028
10.140,0.024
10.145,0.029
10.150,0.023
10.155,0.027
10.160,0.032
10.165,0.028
10.170,0.038
10.175,0.036
10.180,0.034
10.185,0.036
10.190,0.036
10.195,0.042
10.200,0.035
10.205,0.031
10.210,0.028
10.215,0.025
10.220,0.032
10.225,0.020
10.230,0.009
10.235,0.010
10.240,0.014
10.245,0.019
10.250,0.008
10.255,0.005
10.260,0.001
10.265,-0.011
10.270,-0.012
10.275,-0.027
10.280,-0.040
10.285,-0.042
10.290,-0.039
10.295,-0.025
10.300,-0.028
10.305,-0.030
10.310,-0.032
10.315,-0.040
10.320,-0.036
10.325,-0.042
10.330,-0.042
10.335,-0.035
10.340,-0.033
10.345,-0.024
10.350,-0.029
10.355,-0.030
10.360,-0.033
10.365,-0.039
10.370,-0.028
10.375,-0.029
10.380,-0.024
10.385,-0.017
10.390,-0.016
10.395,-0.008
10.400,-0.019
10.405,-0.018
10.410,-0.010
10.415,-0.013
10.420,-0.008
10.425,-0.012
10.430,-0.009
10.435,-0.004
10.440,-0.002
10.445,0.004
10.450,-0.001
10.455,0.003
10.460,0.003
10.465,-0.005
10.470,0.002
10.475,-0.006
10.480,-0.003
10.485,0.011
10.490,0.013
10.495,0.011
10.500,0.000
10.505,0.003
10.510,0.012
10.515,0.014
10.520,0.014
10.525,0.003
10.530,0.006
10.535,0.018
10.540,0.018
10.545,0.013
10.550,-0.002
10.555,0.004
10.560,0.019
10.565,0.017
10.570,0.016
10.575,0.004
10.580,0.001
10.585,0.007
10.590,0.004
10.595,0.012
10.600,0.009
10.605,0.008
10.610,0.011
10.615,0.008
10.620,0.014
10.625,0.012
10.630,0.012
10.635,0.014
10.640,0.010
10.645,0.009
10.650,0.001
10.655,0.005
10.660,0.009
10.665,0.008
10.670,0.013
10.675,0.000
10.680,0.002
10.685,0.012
10.690,0.005
10.695,0.012
10.700,0.013
10.705,0.013
10.710,0.009
10.715,-0.001
10.720,0.009
10.725,0.014
10.730,0.016
10.735,0.014
10.740,0.008
10.745,0.004
10.750,-0.006
10.755,0.006
10.760,0.009
10.765,-0.001
10.770,0.010
10.775,0.010
10.780,0.006
10.785,0.003
10.790,-0.002
10.795,0.002
10.800,0.000
10.805,0.010
10.810,0.015
10.815,0.003
10.820,-0.001
10.825,-0.014
10.830,-0.013
10.835,0.004
10.840,0.014
10.845,0.022
10.850,0.025
10.855,0.029
10.860,0.023
10.865,0.013
10.870,0.022
10.875,0.027
10.880,0.029
10.885,0.016
10.890,0.001
10.895,0.002
10.900,-0.007
10.905,-0.003
10.910,-0.003
10.915,-0.010
10.920,-0.003
10.925,-0.012
10.930,-0.010
10.935,-0.008
10.940,-0.019
10.945,-0.017
10.950,-0.026
10.955,-0.021
10.960,-0.014
10.965,-0.022
10.970,-0.013
10.975,-0.009
10.980,-0.015
10.985,-0.019
10.990,0.019
10.995,0.129
11.000,0.252
11.005,0.357
11.010,0.377
11.015,0.236
11.020,0.055
11.025,-0.101
11.030,-0.260
11.035,-0.362
11.040,-0.435
11.045,-0.412
11.050,-0.275
11.055,-0.152
11.060,-0.083
11.065,-0.055
11.070,-0.034
11.075,-0.013
11.080,0.008
11.085,0.017
11.090,0.019
11.095,0.023
11.100,0.020
11.105,0.025
11.110,0.023
11.115,0.020
11.120,0.024
11.125,0.013
11.130,0.017
11.135,0.021
11.140,0.011
11.145,0.015
11.150,0.024
11.155,0.039
11.160,0.032
11.165,0.016
11.170,0.026
11.175,0.034
11.180,0.034
11.185,0.028
11.190,0.024
11.195,0.032
11.200,0.029
11.205,0.027
11.210,0.025
11.215,0.027
11.220,0.039
11.225,0.038
11.230,0.046
11.235,0.045
11.240,0.041
11.245,0.050
11.250,0.039
11.255,0.039
11.260,0.042
11.265,0.038
11.270,0.051
11.275,0.046
11.280,0.035
11.285,0.035
11.290,0.040
11.295,0.049
11.300,0.037
11.305,0.026
11.310,0.012
11.315,0.003
11.320,0.015
11.325,0.009
11.330,0.007
11.335,-0.003
11.340,-0.016
11.345,-0.010
11.350,-0.017
11.355,-0.019
11.360,-0.028
11.365,-0.035
11.370,-0.028
11.375,-0.040
11.380,-0.042
11.385,-0.044
11.390,-0.053
11.395,-0.052
11.400,-0.058
11.405,-0.052
11.410,-0.049
11.415,-0.057
11.420,-0.058
11.425,-0.065
11.430,-0.053
11.435,-0.040
11.440,-0.039
11.445,-0.036
11.450,-0.044
11.455,-0.040
11.460,-0.037
11.465,-0.043
11.470,-0.031
11.475,-0.027
11.480,-0.026
11.485,-0.024
11.490,-0.025
11.495,-0.019
11.500,-0.021
11.505,-0.015
11.510,-0.011
11.515,-0.015
11.520,-0.011
11.525,-0.009
11.530,-0.004
11.535,-0.004
11.540,-0.007
11.545,0.000
11.550,-0.004
11.555,-0.001
11.560,-0.002
11.565,-0.009
11.570,-0.001
11.575,-0.003
11.580,-0.002
11.585,-0.002
11.590,-0.006
11.595,0.000
11.600,-0.001
11.605,0.003
11.610,-0.003
11.615,-0.014
11.620,-0.007
11.625,-0.007
11.630,-0.005
11.635,-0.001
11.640,-0.001
11.645,0.002
11.650,-0.004
11.655,-0.005
11.660,-0.006
11.665,-0.004
11.670,0.005
11.675,-0.003
11.680,-0.004
11.685,-0.004
11.690,-0.005
11.695,0.000
11.700,-0.006
11.705,0.001
11.710,0.002
11.715,-0.007
11.720,-0.003
11.725,-0.005
11.730,0.001
11.735,0.006
11.740,0.003
11.745,0.006
11.750,0.002
11.755,0.007
11.760,0.006
11.765,-0.001
11.770,0.008
11.775,0.004
11.780,0.002
11.785,0.004
11.790,0.001
11.795,0.003
11.800,-0.005
11.805,0.003
11.810,0.011
11.815,0.008
11.820,0.011
11.825,0.006
11.830,0.007
11.835,0.007
11.840,0.007
11.845,0.014
11.850,0.009
11.855,0.013
11.860,0.011
11.865,0.005
11.870,0.013
11.875,0.007
11.880,0.005
11.885,0.007
11.890,0.006
11.895,0.014
11.900,0.012
11.905,0.018
11.910,0.018
11.915,0.005
11.920,0.000
11.925,-0.003
11.930,0.010
11.935,0.020
11.940,0.022
11.945,0.026
11.950,0.021
11.955,0.023
11.960,0.018
11.965,0.016
11.970,0.034
11.975,0.041
11.980,0.041
11.985,0.029
11.990,0.016
11.995,0.012
12.000,-0.002
12.005,-0.004
12.010,-0.008
12.015,-0.014
12.020,-0.005
12.025,-0.008
12.030,-0.003
12.035,-0.001
12.040,-0.006
12.045,-0.004
12.050,-0.006
12.055,-0.002
12.060,-0.004
12.065,-0.010
12.070,-0.001
12.075,-0.005
12.080,-0.012
12.085,0.004
12.090,0.071
12.095,0.185
12.100,0.291
12.105,0.365
12.110,0.309
12.115,0.131
12.120,-0.021
12.125,-0.159
12.130,-0.265
12.135,-0.341
12.140,-0.393
12.145,-0.315
12.150,-0.186
12.155,-0.090
12.160,-0.038
12.165,-0.030
12.170,-0.017
12.175,-0.008
12.180,0.005
12.185,0.011
12.190,0.009
12.195,0.016
12.200,0.011
12.205,0.013
12.210,0.014
12.215,0.012
12.220,0.020
12.225,0.015
12.230,0.016
12.235,0.016
12.240,0.014
12.245,0.021
12.250,0.016
12.255,0.017
12.260,0.019
12.265,0.016
12.270,0.024
12.275,0.022
12.280,0.023
12.285,0.023
12.290,0.021
12.295,0.027
12.300,0.023
12.305,0.030
12.310,0.030
12.315,0.025
12.320,0.033
12.325,0.031
12.330,0.035
12.335,0.037
12.340,0.034
12.345,0.038
12.350,0.034
12.355,0.039
12.360,0.038
12.365,0.032
12.370,0.041
12.375,0.040
12.380,0.040
12.385,0.036
12.390,0.031
12.395,0.032
12.400,0.025
12.405,0.025
12.410,0.021
12.415,0.011
12.420,0.012
12.425,0.003
12.430,0.001
12.435,-0.005
12.440,-0.014
12.445,-0.015
12.450,-0.024
12.455,-0.022
12.460,-0.027
12.465,-0.036
12.470,-0.032
12.475,-0.038
12.480,-0.038
12.485,-0.039
12.490,-0.042
12.495,-0.037
12.500,-0.042
12.505,-0.037
12.510,-0.037
12.515,-0.041
12.520,-0.034
12.525,-0.040
12.530,-0.038
12.535,-0.034
12.540,-0.035
12.545,-0.030
12.550,-0.032
12.555,-0.022
12.560,-0.020
12.565,-0.025
12.570,-0.017
12.575,-0.018
12.580,-0.016
12.585,-0.015
12.590,-0.016
12.595,-0.009
12.600,-0.012
12.605,-0.006
12.610,-0.005
12.615,-0.011
12.620,-0.006
12.625,-0.006
12.630,-0.002
12.635,0.000
12.640,-0.003
12.645,0.001
12.650,-0.003
12.655,0.005
12.660,0.006
12.665,0.001
12.670,0.006
12.675,0.002
12.680,0.007
12.685,0.011
12.690,0.008
12.695,0.011
12.700,0.004
12.705,0.010
12.710,0.010
12.715,0.005
12.720,0.012
12.725,0.006
12.730,0.006
12.735,0.007
12.740,0.004
12.745,0.008
12.750,0.004
12.755,0.008
12.760,0.010
12.765,0.005
12.770,0.007
12.775,0.003
12.780,0.006
12.785,0.008
12.790,0.006
12.795,0.009
12.800,0.004
12.805,0.009
12.810,0.008
12.815,0.002
12.820,0.010
12.825,0.007
12.830,0.007
12.835,0.008
12.840,0.007
12.845,0.010
12.850,0.002
12.855,0.007
12.860,0.007
12.865,0.002
12.870,0.008
12.875,0.001
12.880,0.001
12.885,0.001
12.890,0.003
12.895,0.011
12.900,0.006
12.905,0.010
12.910,0.012
12.915,0.007
12.920,0.010
12.925,0.004
12.930,0.005
12.935,0.005
12.940,0.001
12.945,0.002
12.950,-0.002
12.955,0.005
12.960,0.005
12.965,-0.001
12.970,0.006
12.975,0.003
12.980,0.006
12.985,0.004
12.990,0.001
12.995,0.010
13.000,0.007
13.005,0.015
13.010,0.017
13.015,0.009
13.020,0.004
13.025,-0.005
13.030,0.005
13.035,0.015
13.040,0.023
13.045,0.030
13.050,0.021
13.055,0.020
13.060,0.013
13.065,0.008
13.070,0.026
13.075,0.034
13.080,0.034
13.085,0.023
13.090,0.014
13.095,0.013
13.100,0.004
13.105,0.004
13.110,-0.005
13.115,-0.015
13.120,-0.009
13.125,-0.014
13.130,-0.012
13.135,-0.010
13.140,-0.012
13.145,-0.012
13.150,-0.021
13.155,-0.014
13.160,-0.008
13.165,-0.011
13.170,-0.007
13.175,-0.014
13.180,-0.019
13.185,-0.020
13.190,0.024
13.195,0.131
13.200,0.248
13.205,0.350
13.210,0.355
13.215,0.204
13.220,0.028
13.225,-0.109
13.230,-0.242
13.235,-0.337
13.240,-0.413
13.245,-0.397
13.250,-0.258
13.255,-0.126
13.260,-0.054
13.265,-0.025
13.270,-0.016
13.275,-0.014
13.280,0.003
13.285,0.011
13.290,0.008
13.295,0.015
13.300,0.019
13.305,0.026
13.310,0.024
13.315,0.025
13.320,0.031
13.325,0.022
13.330,0.020
13.335,0.015
13.340,0.016
13.345,0.027
13.350,0.024
13.355,0.030
13.360,0.030
13.365,0.023
13.370,0.025
13.375,0.021
13.380,0.028
13.385,0.029
13.390,0.025
13.395,0.030
13.400,0.027
13.405,0.033
13.410,0.027
13.415,0.022
13.420,0.037
13.425,0.035
13.430,0.032
13.435,0.030
13.440,0.036
13.445,0.048
13.450,0.044
13.455,0.049
13.460,0.043
13.465,0.032
13.470,0.042
13.475,0.041
13.480,0.045
13.485,0.044
13.490,0.039
13.495,0.039
13.500,0.030
13.505,0.031
13.510,0.026
13.515,0.013
13.520,0.010
13.525,0.006
13.530,0.012
13.535,0.005
13.540,-0.013
13.545,-0.020
13.550,-0.025
13.555,-0.020
13.560,-0.029
13.565,-0.044
13.570,-0.040
13.575,-0.041
13.580,-0.034
13.585,-0.037
13.590,-0.047
13.595,-0.049
13.600,-0.060
13.605,-0.051
13.610,-0.039
13.615,-0.038
13.620,-0.035
13.625,-0.048
13.630,-0.048
13.635,-0.044
13.640,-0.038
13.645,-0.033
13.650,-0.044
13.655,-0.033
13.660,-0.030
13.665,-0.039
13.670,-0.027
13.675,-0.028
13.680,-0.023
13.685,-0.014
13.690,-0.017
13.695,-0.016
13.700,-0.021
13.705,-0.018
13.710,-0.017
13.715,-0.018
13.720,-0.008
13.725,-0.005
13.730,0.003
13.735,-0.001
13.740,-0.003
13.745,0.002
13.750,-0.005
13.755,-0.001
13.760,-0.004
13.765,-0.007
13.770,0.000
13.775,-0.006
13.780,-0.003
13.785,-0.001
13.790,-0.003
13.795,0.004
13.800,0.001
13.805,0.006
13.810,0.007
13.815,-0.002
13.820,-0.002
13.825,-0.008
13.830,-0.005
13.835,0.004
13.840,0.012
13.845,0.017
13.850,0.003
13.855,-0.002
13.860,-0.010
13.865,-0.013
13.870,0.002
13.875,0.008
13.880,0.016
13.885,0.008
13.890,0.002
13.895,0.015
13.900,0.010
13.905,0.009
13.910,0.000
13.915,-0.012
13.920,-0.006
13.925,-0.002
13.930,0.010
13.935,0.010
13.940,0.007
13.945,0.012
13.950,0.011
13.955,0.016
13.960,0.003
13.965,-0.007
13.970,0.010
13.975,0.013
13.980,0.012
13.985,0.006
13.990,-0.001
13.995,-0.001
14.000,-0.006
14.005,0.003
14.010,0.009
14.015,0.007
14.020,0.011
14.025,0.004
14.030,0.001
14.035,-0.006
14.040,-0.002
14.045,0.007
14.050,-0.003
14.055,0.003
14.060,0.004
14.065,0.002
14.070,0.009
14.075,0.003
14.080,0.005
14.085,0.003
14.090,0.001
14.095,0.005
14.100,0.002
14.105,0.009
14.110,0.005
14.115,0.004
14.120,0.007
14.125,-0.013
14.130,-0.015
14.135,-0.007
14.140,0.007
14.145,0.027
14.150,0.022
14.155,0.023
14.160,0.018
14.165,0.011
14.170,0.022
14.175,0.025
14.180,0.038
14.185,0.039
14.190,0.026
14.195,0.017
14.200,0.001
14.205,-0.002
14.210,-0.010
14.215,-0.020
14.220,-0.016
14.225,-0.016
14.230,-0.010
14.235,-0.011
14.240,-0.011
14.245,-0.009
14.250,-0.016
14.255,-0.008
14.260,-0.009
14.265,-0.013
14.270,-0.007
14.275,-0.012
14.280,-0.010
14.285,-0.017
14.290,-0.020
14.295,0.019
14.300,0.104
14.305,0.228
14.310,0.325
14.315,0.351
14.320,0.242
14.325,0.056
14.330,-0.083
14.335,-0.225
14.340,-0.327
14.345,-0.396
14.350,-0.408
14.355,-0.274
14.360,-0.144
14.365,-0.073
14.370,-0.031
14.375,-0.027
14.380,-0.018
14.385,-0.008
14.390,0.003
14.395,0.011
14.400,0.007
14.405,0.017
14.410,0.014
14.415,0.011
14.420,0.022
14.425,0.017
14.430,0.019
14.435,0.019
14.440,0.019
14.445,0.023
14.450,0.016
14.455,0.023
14.460,0.022
14.465,0.019
14.470,0.026
14.475,0.020
14.480,0.022
14.485,0.023
14.490,0.023
14.495,0.027
14.500,0.020
14.505,0.027
14.510,0.026
14.515,0.026
14.520,0.034
14.525,0.030
14.530,0.033
14.535,0.033
14.540,0.035
14.545,0.039
14.550,0.033
14.555,0.041
14.560,0.039
14.565,0.036
14.570,0.045
14.575,0.040
14.580,0.042
14.585,0.038
14.590,0.036
14.595,0.039
14.600,0.029
14.605,0.032
14.610,0.029
14.615,0.022
14.620,0.024
14.625,0.012
14.630,0.009
14.635,0.001
14.640,-0.005
14.645,-0.004
14.650,-0.014
14.655,-0.013
14.660,-0.020
14.665,-0.030
14.670,-0.028
14.675,-0.034
14.680,-0.035
14.685,-0.038
14.690,-0.039
14.695,-0.038
14.700,-0.044
14.705,-0.039
14.710,-0.045
14.715,-0.048
14.720,-0.041
14.725,-0.046
14.730,-0.042
14.735,-0.042
14.740,-0.041
14.745,-0.036
14.750,-0.042
14.755,-0.033
14.760,-0.031
14.765,-0.033
14.770,-0.025
14.775,-0.028
14.780,-0.022
14.785,-0.020
14.790,-0.019
14.795,-0.012
14.800,-0.016
14.805,-0.008
14.810,-0.007
14.815,-0.009
14.820,-0.002
14.825,-0.006
14.830,-0.002
14.835,-0.001
14.840,-0.001
14.845,0.003
14.850,-0.004
14.855,0.004
14.860,0.003
14.865,-0.002
14.870,0.005
14.875,0.001
14.880,0.002
14.885,0.003
14.890,0.003
14.895,0.008
14.900,0.001
14.905,0.006
14.910,0.006
14.915,0.002
14.920,0.006
14.925,0.001
14.930,0.006
14.935,0.004
14.940,0.004
14.945,0.006
14.950,-0.002
14.955,0.005
14.960,0.006
14.965,0.003
14.970,0.009
14.975,0.004
14.980,0.007
14.985,0.006
14.990,0.006
14.995,0.010
15.000,0.003
15.005,0.011
15.010,0.011
15.015,0.007
15.020,0.012
15.025,0.007
15.030,0.011
15.035,0.010
15.040,0.009
15.045,0.013
15.050,0.005
15.055,0.010
15.060,0.009
15.065,0.006
15.070,0.012
15.075,0.006
15.080,0.010
15.085,0.010
15.090,0.010
15.095,0.012
15.100,0.004
15.105,0.012
15.110,0.010
15.115,0.006
15.120,0.013
15.125,0.007
15.130,0.007
15.135,0.003
15.140,0.004
15.145,0.012
15.150,0.006
15.155,0.011
15.160,0.009
15.165,0.005
15.170,0.009
15.175,0.004
15.180,0.009
15.185,0.007
15.190,0.003
15.195,0.007
15.200,0.001
15.205,0.009
15.210,0.011
15.215,0.008
15.220,0.015
15.225,0.013
15.230,0.009
15.235,-0.003
15.240,-0.001
15.245,0.013
15.250,0.017
15.255,0.028
15.260,0.023
15.265,0.016
15.270,0.019
15.275,0.014
15.280,0.022
15.285,0.031
15.290,0.040
15.295,0.039
15.300,0.021
15.305,0.018
15.310,0.007
15.315,-0.004
15.320,-0.006
15.325,-0.018
15.330,-0.015
15.335,-0.014
15.340,-0.014
15.345,-0.008
15.350,-0.012
15.355,-0.008
15.360,-0.013
15.365,-0.016
15.370,-0.010
15.375,-0.015
15.380,-0.010
15.385,-0.010
15.390,-0.012
15.395,-0.018
15.400,-0.016
15.405,0.057
15.410,0.167
15.415,0.278
15.420,0.357
15.425,0.307
15.430,0.134
15.435,-0.040
15.440,-0.171
15.445,-0.273
15.450,-0.349
15.455,-0.397
15.460,-0.339
15.465,-0.205
15.470,-0.101
15.475,-0.047
15.480,-0.024
15.485,-0.017
15.490,-0.006
15.495,0.008
15.500,0.005
15.505,0.012
15.510,0.015
15.515,0.018
15.520,0.025
15.525,0.021
15.530,0.024
15.535,0.020
15.540,0.021
15.545,0.025
15.550,0.019
15.555,0.029
15.560,0.030
15.565,0.023
15.570,0.023
15.575,0.022
15.580,0.030
15.585,0.028
15.590,0.026
15.595,0.028
15.600,0.022
15.605,0.031
15.610,0.029
15.615,0.029
15.620,0.036
15.625,0.029
15.630,0.031
15.635,0.029
15.640,0.033
15.645,0.039
15.650,0.030
15.655,0.036
15.660,0.035
15.665,0.032
15.670,0.039
15.675,0.039
15.680,0.047
15.685,0.046
15.690,0.044
15.695,0.048
15.700,0.039
15.705,0.035
15.710,0.028
15.715,0.029
15.720,0.033
15.725,0.020
15.730,0.011
15.735,0.005
15.740,0.007
15.745,0.007
15.750,-0.003
15.755,-0.005
15.760,-0.018
15.765,-0.023
15.770,-0.020
15.775,-0.033
15.780,-0.039
15.785,-0.048
15.790,-0.043
15.795,-0.036
15.800,-0.049
15.805,-0.048
15.810,-0.053
15.815,-0.053
15.820,-0.044
15.825,-0.047
15.830,-0.045
15.835,-0.046
15.840,-0.041
15.845,-0.033
15.850,-0.043
15.855,-0.046
15.860,-0.046
15.865,-0.036
15.870,-0.027
15.875,-0.031
15.880,-0.030
15.885,-0.040
15.890,-0.032
15.895,-0.013
15.900,-0.012
15.905,-0.004
15.910,-0.016
15.915,-0.023
15.920,-0.008
15.925,-0.009
15.930,-0.011
15.935,-0.013
15.940,-0.009
15.945,-0.001
15.950,-0.003
15.955,0.001
15.960,-0.005
15.965,-0.013
15.970,-0.008
15.975,-0.006
15.980,0.001
15.985,0.005
15.990,0.018
15.995,0.020
16.000,0.004
16.005,0.003
16.010,-0.003
16.015,-0.004
16.020,-0.001
16.025,-0.002
16.030,0.007
16.035,0.007
16.040,0.010
16.045,0.018
16.050,0.015
16.055,0.013
16.060,0.000
16.065,0.000
16.070,0.008
16.075,0.003
16.080,0.005
16.085,0.004
16.090,0.008
16.095,0.008
16.100,0.003
16.105,0.019
16.110,0.015
16.115,0.007
16.120,0.008
16.125,0.005
16.130,0.013
16.135,0.007
16.140,0.006
16.145,0.020
16.150,0.014
16.155,0.010
16.160,0.009
16.165,0.009
16.170,0.015
16.175,0.010
16.180,0.008
16.185,0.004
16.190,0.013
16.195,0.014
16.200,0.001
16.205,0.003
16.210,0.000
16.215,0.010
16.220,0.014
16.225,0.001
16.230,0.015
16.235,0.020
16.240,0.014
16.245,0.008
16.250,-0.002
16.255,0.009
16.260,0.009
16.265,0.005
16.270,0.012
16.275,0.010
16.280,0.010
16.285,0.007
16.290,0.011
16.295,0.010
16.300,-0.001
16.305,0.009
16.310,0.006
16.315,0.007
16.320,0.014
16.325,0.001
16.330,-0.004
16.335,-0.018
16.340,-0.017
16.345,0.005
16.350,0.017
16.355,0.029
16.360,0.021
16.365,0.017
16.370,0.021
16.375,0.016
16.380,0.024
16.385,0.029
16.390,0.042
16.395,0.039
16.400,0.012
16.405,0.016
16.410,0.009
16.415,-0.003
16.420,-0.003
16.425,-0.019
16.430,-0.022
16.435,-0.023
16.440,-0.017
16.445,-0.005
16.450,-0.010
16.455,-0.006
16.460,-0.012
16.465,-0.017
16.470,-0.015
16.475,-0.019
16.480,-0.011
16.485,-0.006
16.490,-0.009
16.495,-0.022
16.500,-0.021
16.505,0.050
16.510,0.158
16.515,0.273
16.520,0.358
16.525,0.321
16.530,0.151
16.535,-0.031
16.540,-0.165
16.545,-0.282
16.550,-0.369
16.555,-0.417
16.560,-0.358
16.565,-0.213
16.570,-0.105
16.575,-0.047
16.580,-0.017
16.585,-0.017
16.590,-0.011
16.595,0.002
16.600,0.003
16.605,0.010
16.610,0.009
16.615,0.014
16.620,0.020
16.625,0.014
16.630,0.016
16.635,0.010
16.640,0.013
16.645,0.022
16.650,0.015
16.655,0.020
16.660,0.021
16.665,0.022
16.670,0.025
16.675,0.019
16.680,0.023
16.685,0.020
16.690,0.020
16.695,0.021
16.700,0.020
16.705,0.031
16.710,0.025
16.715,0.019
16.720,0.021
16.725,0.017
16.730,0.026
16.735,0.028
16.740,0.033
16.745,0.034
16.750,0.025
16.755,0.034
16.760,0.034
16.765,0.032
16.770,0.034
16.775,0.030
16.780,0.035
16.785,0.031
16.790,0.032
16.795,0.036
16.800,0.028
16.805,0.031
16.810,0.025
16.815,0.019
16.820,0.019
16.825,0.011
16.830,0.012
16.835,0.003
16.840,-0.002
16.845,-0.002
16.850,-0.011
16.855,-0.006
16.860,-0.014
16.865,-0.022
16.870,-0.021
16.875,-0.028
16.880,-0.025
16.885,-0.030
16.890,-0.031
16.895,-0.032
16.900,-0.040
16.905,-0.031
16.910,-0.035
16.915,-0.040
16.920,-0.037
16.925,-0.042
16.930,-0.036
16.935,-0.040
16.940,-0.040
16.945,-0.037
16.950,-0.040
16.955,-0.028
16.960,-0.029
16.965,-0.031
16.970,-0.027
16.975,-0.028
16.980,-0.020
16.985,-0.022
16.990,-0.020
16.995,-0.015
17.000,-0.019
17.005,-0.009
17.010,-0.010
17.015,-0.011
17.020,-0.005
17.025,-0.007
17.030,-0.003
17.035,-0.007
17.040,-0.002
17.045,0.002
17.050,-0.005
17.055,0.003
17.060,0.001
17.065,0.001
17.070,0.006
17.075,0.000
17.080,0.004
17.085,0.001
17.090,0.002
17.095,0.005
17.100,-0.001
17.105,0.005
17.110,0.000
17.115,0.000
17.120,0.005
17.125,0.000
17.130,0.004
17.135,0.001
17.140,0.003
17.145,0.006
17.150,-0.002
17.155,0.005
17.160,0.002
17.165,0.000
17.170,0.002
17.175,-0.001
17.180,0.007
17.185,0.002
17.190,0.004
17.195,0.007
17.200,0.000
17.205,0.009
17.210,0.006
17.215,0.004
17.220,0.007
17.225,0.004
17.230,0.009
17.235,0.005
17.240,0.006
17.245,0.006
17.250,0.002
17.255,0.012
17.260,0.008
17.265,0.007
17.270,0.010
17.275,0.006
17.280,0.010
17.285,0.004
17.290,0.006
17.295,0.010
17.300,0.005
17.305,0.013
17.310,0.008
17.315,0.005
17.320,0.009
17.325,0.005
17.330,0.010
17.335,0.005
17.340,0.005
17.345,0.008
17.350,0.004
17.355,0.011
17.360,0.006
17.365,0.004
17.370,0.007
17.375,0.003
17.380,0.007
17.385,0.003
17.390,0.007
17.395,0.010
17.400,0.003
17.405,0.013
17.410,0.008
17.415,0.006
17.420,0.012
17.425,0.011
17.430,0.016
17.435,0.013
17.440,0.013
17.445,0.008
17.450,-0.005
17.455,0.007
17.460,0.015
17.465,0.021
17.470,0.026
17.475,0.021
17.480,0.023
17.485,0.016
17.490,0.017
17.495,0.025
17.500,0.031
17.505,0.045
17.510,0.034
17.515,0.020
17.520,0.013
17.525,0.000
17.530,0.000
17.535,-0.010
17.540,-0.012
17.545,-0.008
17.550,-0.014
17.555,-0.006
17.560,-0.007
17.565,-0.006
17.570,-0.005
17.575,-0.011
17.580,-0.007
17.585,-0.012
17.590,-0.012
17.595,-0.009
17.600,-0.015
17.605,-0.009
17.610,-0.019
17.615,0.002
17.620,0.080
17.625,0.178
17.630,0.275
17.635,0.315
17.640,0.228
17.645,0.055
17.650,-0.090
17.655,-0.192
17.660,-0.261
17.665,-0.317
17.670,-0.339
17.675,-0.257
17.680,-0.146
17.685,-0.080
17.690,-0.038
17.695,-0.025
17.700,-0.023
17.705,-0.005
17.710,0.001
17.715,0.006
17.720,0.010
17.725,0.010
17.730,0.019
17.735,0.014
17.740,0.015
17.745,0.019
17.750,0.013
17.755,0.020
17.760,0.017
17.765,0.018
17.770,0.022
17.775,0.017
17.780,0.021
17.785,0.015
17.790,0.019
17.795,0.022
17.800,0.015
17.805,0.024
17.810,0.022
17.815,0.019
17.820,0.023
17.825,0.023
17.830,0.029
17.835,0.024
17.840,0.027
17.845,0.029
17.850,0.023
17.855,0.031
17.860,0.027
17.865,0.027
17.870,0.032
17.875,0.029
17.880,0.036
17.885,0.031
17.890,0.033
17.895,0.035
17.900,0.027
17.905,0.033
17.910,0.027
17.915,0.024
17.920,0.024
17.925,0.018
17.930,0.021
17.935,0.014
17.940,0.013
17.945,0.011
17.950,-0.001
17.955,0.001
17.960,-0.006
17.965,-0.010
17.970,-0.011
17.975,-0.017
17.980,-0.015
17.985,-0.022
17.990,-0.022
17.995,-0.024
18.000,-0.032
18.005,-0.025
18.010,-0.030
18.015,-0.033
18.020,-0.031
18.025,-0.036
18.030,-0.029
18.035,-0.032
18.040,-0.030
18.045,-0.030
18.050,-0.035
18.055,-0.026
18.060,-0.030
18.065,-0.032
18.070,-0.028
18.075,-0.032
18.080,-0.027
18.085,-0.029
18.090,-0.026
18.095,-0.022
18.100,-0.027
18.105,-0.020
18.110,-0.022
18.115,-0.023
18.120,-0.019
18.125,-0.022
18.130,-0.018
18.135,-0.023
18.140,-0.019
18.145,-0.014
18.150,-0.017
18.155,-0.009
18.160,-0.011
18.165,-0.012
18.170,-0.009
18.175,-0.010
18.180,-0.005
18.185,-0.007
18.190,-0.001
18.195,0.000
18.200,-0.005
18.205,0.003
18.210,0.000
18.215,0.000
18.220,0.003
18.225,0.000
18.230,0.003
18.235,-0.001
18.240,0.004
18.245,0.008
18.250,0.003
18.255,0.012
18.260,0.007
18.265,0.006
18.270,0.009
18.275,0.004
18.280,0.010
18.285,0.006
18.290,0.008
18.295,0.008
18.300,-0.003
18.305,0.006
18.310,0.006
18.315,0.008
18.320,0.008
18.325,0.005
18.330,0.014
18.335,0.009
18.340,0.012
18.345,0.015
18.350,0.008
18.355,0.016
18.360,0.011
18.365,0.010
18.370,0.013
18.375,0.007
18.380,0.010
18.385,0.006
18.390,0.009
18.395,0.010
18.400,0.004
18.405,0.011
18.410,0.004
18.415,0.002
18.420,0.006
18.425,0.003
18.430,0.008
18.435,0.002
18.440,0.004
18.445,0.005
18.450,-0.001
18.455,0.008
18.460,0.006
18.465,0.004
18.470,0.004
18.475,0.003
18.480,0.010
18.485,0.006
18.490,0.008
18.495,0.008
18.500,0.002
18.505,0.010
18.510,0.006
18.515,0.004
18.520,0.005
18.525,0.003
18.530,0.008
18.535,0.001
18.540,0.005
18.545,0.008
18.550,0.004
18.555,0.016
18.560,0.016
18.565,0.008
18.570,0.000
18.575,-0.004
18.580,0.012
18.585,0.018
18.590,0.024
18.595,0.022
18.600,0.014
18.605,0.018
18.610,0.013
18.615,0.016
18.620,0.027
18.625,0.035
18.630,0.038
18.635,0.020
18.640,0.012
18.645,0.002
18.650,-0.012
18.655,-0.009
18.660,-0.016
18.665,-0.015
18.670,-0.012
18.675,-0.017
18.680,-0.010
18.685,-0.011
18.690,-0.011
18.695,-0.014
18.700,-0.019
18.705,-0.011
18.710,-0.014
18.715,-0.013
18.720,-0.009
18.725,-0.014
18.730,-0.017
18.735,-0.009
18.740,0.060
18.745,0.163
18.750,0.262
18.755,0.342
18.760,0.292
18.765,0.119
18.770,-0.046
18.775,-0.177
18.780,-0.267
18.785,-0.336
18.790,-0.385
18.795,-0.321
18.800,-0.198
18.805,-0.097
18.810,-0.043
18.815,-0.026
18.820,-0.016
18.825,-0.005
18.830,0.012
18.835,0.013
18.840,0.012
18.845,0.015
18.850,0.016
18.855,0.023
18.860,0.015
18.865,0.013
18.870,0.017
18.875,0.020
18.880,0.027
18.885,0.020
18.890,0.022
18.895,0.025
18.900,0.020
18.905,0.024
18.910,0.019
18.915,0.023
18.920,0.027
18.925,0.023
18.930,0.026
18.935,0.018
18.940,0.025
18.945,0.033
18.950,0.027
18.955,0.031
18.960,0.024
18.965,0.023
18.970,0.024
18.975,0.023
18.980,0.031
18.985,0.033
18.990,0.042
18.995,0.042
19.000,0.035
19.005,0.043
19.010,0.040
19.015,0.040
19.020,0.041
19.025,0.033
19.030,0.035
19.035,0.034
19.040,0.042
19.045,0.040
19.050,0.029
19.055,0.033
19.060,0.025
19.065,0.017
19.070,0.009
19.075,-0.001
19.080,0.003
19.085,0.001
19.090,0.000
19.095,-0.006
19.100,-0.017
19.105,-0.016
19.110,-0.027
19.115,-0.034
19.120,-0.030
19.125,-0.026
19.130,-0.023
19.135,-0.035
19.140,-0.033
19.145,-0.030
19.150,-0.040
19.155,-0.038
19.160,-0.035
19.165,-0.029
19.170,-0.028
19.175,-0.033
19.180,-0.033
19.185,-0.036
19.190,-0.028
19.195,-0.027
19.200,-0.033
19.205,-0.030
19.210,-0.033
19.215,-0.021
19.220,-0.011
19.225,-0.018
19.230,-0.015
19.235,-0.016
19.240,-0.011
19.245,-0.017
19.250,-0.027
19.255,-0.014
19.260,-0.009
19.265,-0.011
19.270,-0.013
19.275,-0.020
19.280,-0.019
19.285,-0.012
19.290,0.000
19.295,-0.003
19.300,-0.009
19.305,0.004
19.310,0.003
19.315,0.001
19.320,0.002
19.325,0.003
19.330,0.014
19.335,0.011
19.340,0.008
19.345,0.001
19.350,-0.006
19.355,0.007
19.360,0.013
19.365,0.014
19.370,0.014
19.375,0.011
19.380,0.009
19.385,0.003
19.390,0.008
19.395,0.011
19.400,0.003
19.405,0.005
19.410,0.014
19.415,0.022
19.420,0.010
19.425,0.000
19.430,0.010
19.435,0.003
19.440,0.002
19.445,0.009
19.450,0.010
19.455,0.014
19.460,0.005
19.465,0.010
19.470,0.018
19.475,0.007
19.480,0.000
19.485,-0.004
19.490,0.001
19.495,0.005
19.500,0.008
19.505,0.012
19.510,0.005
19.515,0.005
19.520,0.012
19.525,0.017
19.530,0.015
19.535,-0.005
19.540,0.003
19.545,0.016
19.550,0.002
19.555,-0.003
19.560,-0.006
19.565,0.005
19.570,0.019
19.575,0.011
19.580,0.004
19.585,0.004
19.590,0.012
19.595,0.011
19.600,0.011
19.605,0.019
19.610,0.008
19.615,0.004
19.620,0.002
19.625,-0.006
19.630,-0.002
19.635,0.001
19.640,0.008
19.645,0.005
19.650,-0.002
19.655,0.010
19.660,0.008
19.665,-0.003
19.670,-0.013
19.675,-0.013
19.680,0.013
19.685,0.027
19.690,0.034
19.695,0.028
19.700,0.004
19.705,0.003
19.710,0.014
19.715,0.030
19.720,0.039
19.725,0.034
19.730,0.025
19.735,0.003
19.740,0.002
19.745,0.007
19.750,-0.012
19.755,-0.015
19.760,-0.011
19.765,-0.009
19.770,-0.007
19.775,-0.018
19.780,-0.023
19.785,-0.022
19.790,-0.008
19.795,-0.002
19.800,-0.014
19.805,-0.018
19.810,-0.018
19.815,-0.008
19.820,-0.002
19.825,-0.016
19.830,-0.004
19.835,0.072
19.840,0.187
19.845,0.281
19.850,0.344
19.855,0.298
19.860,0.114
19.865,-0.052
19.870,-0.204
19.875,-0.328
19.880,-0.394
19.885,-0.432
19.890,-0.337
19.895,-0.198
19.900,-0.104
19.905,-0.030
19.910,-0.007
19.915,0.000
19.920,0.004
19.925,0.010
19.930,0.023
19.935,0.024
19.940,0.025
19.945,0.018
19.950,0.017
19.955,0.028
19.960,0.023
19.965,0.024
19.970,0.027
19.975,0.026
19.980,0.032
19.985,0.025
19.990,0.024
19.995,0.028
20.000,0.025
20.005,0.028
20.010,0.024
20.015,0.022
20.020,0.022
20.025,0.021
20.030,0.023
20.035,0.020
20.040,0.032
20.045,0.038
20.050,0.035
20.055,0.036
20.060,0.027
20.065,0.027
20.070,0.030
20.075,0.031
20.080,0.037
20.085,0.029
20.090,0.037
20.095,0.043
20.100,0.034
20.105,0.039
20.110,0.035
20.115,0.034
20.120,0.030
20.125,0.020
20.130,0.019
20.135,0.015
20.140,0.026
20.145,0.031
20.150,0.017
20.155,0.015
20.160,0.009
20.165,0.003
20.170,-0.003
20.175,-0.012
20.180,-0.015
20.185,-0.024
20.190,-0.024
20.195,-0.027
20.200,-0.033
20.205,-0.031
20.210,-0.039
20.215,-0.045
20.220,-0.056
20.225,-0.051
20.230,-0.032
20.235,-0.034
20.240,-0.039
20.245,-0.050
20.250,-0.050
20.255,-0.037
20.260,-0.046
20.265,-0.047
20.270,-0.043
20.275,-0.042
20.280,-0.034
20.285,-0.039
20.290,-0.035
20.295,-0.036
20.300,-0.042
20.305,-0.032
20.310,-0.031
20.315,-0.025
20.320,-0.020
20.325,-0.022
20.330,-0.018
20.335,-0.024
20.340,-0.019
20.345,-0.018
20.350,-0.024
20.355,-0.010
20.360,-0.002
20.365,0.003
20.370,0.005
20.375,-0.001
20.380,-0.003
20.385,-0.005
20.390,0.001
20.395,-0.003
20.400,-0.012
20.405,-0.009
20.410,-0.008
20.415,0.003
20.420,0.006
20.425,-0.003
20.430,-0.003
20.435,-0.003
20.440,0.006
20.445,0.005
20.450,-0.004
20.455,0.001
20.460,0.001
20.465,0.004
20.470,-0.002
20.475,-0.014
20.480,-0.010
20.485,-0.005
20.490,0.010
20.495,0.013
20.500,-0.001
20.505,0.004
20.510,0.005
20.515,0.004
20.520,0.000
20.525,-0.002
20.530,0.005
20.535,0.000
20.540,0.003
20.545,0.004
20.550,0.003
20.555,0.015
20.560,0.010
20.565,0.012
20.570,0.012
20.575,0.004
20.580,0.007
20.585,0.003
20.590,0.010
20.595,0.015
20.600,0.009
20.605,0.010
20.610,0.005
20.615,0.006
20.620,0.010
20.625,0.010
20.630,0.012
20.635,0.007
20.640,0.011
20.645,0.013
20.650,0.008
20.655,0.011
20.660,0.006
20.665,0.007
20.670,0.009
20.675,0.008
20.680,0.012
20.685,0.008
20.690,0.012
20.695,0.010
20.700,0.004
20.705,0.011
20.710,0.009
20.715,0.011
20.720,0.010
20.725,0.007
20.730,0.010
20.735,0.005
20.740,0.012
20.745,0.012
20.750,0.008
20.755,0.014
20.760,0.002
20.765,-0.005
20.770,-0.002
20.775,0.004
20.780,0.019
20.785,0.022
20.790,0.028
20.795,0.027
20.800,0.016
20.805,0.022
20.810,0.022
20.815,0.034
20.820,0.046
20.825,0.037
20.830,0.027
20.835,0.011
20.840,0.006
20.845,0.000
20.850,-0.014
20.855,-0.013
20.860,-0.015
20.865,-0.011
20.870,-0.013
20.875,-0.012
20.880,-0.002
20.885,-0.008
20.890,-0.003
20.895,-0.005
20.900,-0.013
20.905,-0.007
20.910,-0.012
20.915,-0.008
20.920,-0.008
20.925,-0.016
20.930,0.014
20.935,0.093
20.940,0.212
20.945,0.314
20.950,0.349
20.955,0.245
20.960,0.046
20.965,-0.097
20.970,-0.225
20.975,-0.317
20.980,-0.377
20.985,-0.403
20.990,-0.283
20.995,-0.148
21.000,-0.075
21.005,-0.025
21.010,-0.019
21.015,-0.011
21.020,0.006
21.025,0.013
21.030,0.017
21.035,0.012
21.040,0.020
21.045,0.021
21.050,0.016
21.055,0.024
21.060,0.020
21.065,0.022
21.070,0.022
21.075,0.022
21.080,0.028
21.085,0.022
21.090,0.027
21.095,0.026
21.100,0.020
21.105,0.029
21.110,0.024
21.115,0.024
21.120,0.027
21.125,0.027
21.130,0.031
21.135,0.022
21.140,0.026
21.145,0.026
21.150,0.022
21.155,0.033
21.160,0.029
21.165,0.031
21.170,0.033
21.175,0.031
21.180,0.037
21.185,0.029
21.190,0.028
21.195,0.029
21.200,0.030
21.205,0.046
21.210,0.044
21.215,0.040
21.220,0.036
21.225,0.031
21.230,0.033
21.235,0.027
21.240,0.030
21.245,0.026
21.250,0.015
21.255,0.012
21.260,0.000
21.265,0.002
21.270,0.002
21.275,-0.006
21.280,-0.008
21.285,-0.017
21.290,-0.010
21.295,-0.013
21.300,-0.027
21.305,-0.025
21.310,-0.027
21.315,-0.028
21.320,-0.035
21.325,-0.042
21.330,-0.039
21.335,-0.040
21.340,-0.032
21.345,-0.033
21.350,-0.042
21.355,-0.039
21.360,-0.039
21.365,-0.032
21.370,-0.029
21.375,-0.035
21.380,-0.034
21.385,-0.035
21.390,-0.022
21.395,-0.020
21.400,-0.030
21.405,-0.023
21.410,-0.020
21.415,-0.014
21.420,-0.016
21.425,-0.027
21.430,-0.024
21.435,-0.015
21.440,-0.001
21.445,-0.001
21.450,-0.008
21.455,-0.004
21.460,-0.007
21.465,0.000
21.470,-0.005
21.475,-0.014
21.480,-0.007
21.485,-0.013
21.490,-0.007
21.495,0.001
21.500,-0.001
21.505,0.003
21.510,0.001
21.515,0.010
21.520,0.007
21.525,-0.006
21.530,-0.004
21.535,0.003
21.540,0.019
21.545,0.013
21.550,-0.003
21.555,0.003
21.560,0.003
21.565,0.003
21.570,0.003
21.575,0.006
21.580,0.010
21.585,0.006
21.590,0.018
21.595,0.012
21.600,-0.008
21.605,-0.001
21.610,0.007
21.615,0.011
21.620,0.007
21.625,0.010
21.630,0.019
21.635,0.009
21.640,0.008
21.645,0.005
21.650,0.004
21.655,0.017
21.660,0.013
21.665,0.013
21.670,0.010
21.675,0.007
21.680,0.012
21.685,0.008
21.690,0.013
21.695,0.014
21.700,0.009
21.705,0.008
21.710,-0.001
21.715,0.000
21.720,0.004
21.725,0.010
21.730,0.017
21.735,0.008
21.740,0.012
21.745,0.014
21.750,0.011
21.755,0.017
21.760,0.007
21.765,0.004
21.770,0.008
21.775,0.010
21.780,0.016
21.785,0.010
21.790,0.005
21.795,-0.006
21.800,-0.007
21.805,0.007
21.810,0.005
21.815,0.010
21.820,0.006
21.825,-0.001
21.830,0.011
21.835,0.004
21.840,0.006
21.845,0.018
21.850,0.015
21.855,0.007
21.860,-0.012
21.865,-0.009
21.870,0.008
21.875,0.015
21.880,0.021
21.885,0.019
21.890,0.026
21.895,0.012
21.900,0.001
21.905,0.030
21.910,0.048
21.915,0.047
21.920,0.027
21.925,0.012
21.930,0.017
21.935,-0.002
21.940,-0.006
21.945,-0.002
21.950,-0.008
21.955,-0.008
21.960,-0.025
21.965,-0.022
21.970,-0.004
21.975,-0.005
21.980,-0.006
21.985,-0.004
21.990,0.005
21.995,-0.001
22.000,-0.011
22.005,-0.006
22.010,-0.014
22.015,-0.027
22.020,-0.034
22.025,0.025
22.030,0.147
22.035,0.261
22.040,0.361
22.045,0.353
22.050,0.183
22.055,-0.003
22.060,-0.158
22.065,-0.290
22.070,-0.368
22.075,-0.426
22.080,-0.388
22.085,-0.257
22.090,-0.128
22.095,-0.047
22.100,-0.023
22.105,-0.015
22.110,-0.006
22.115,0.017
22.120,0.023
22.125,0.011
22.130,0.009
22.135,0.009
22.140,0.022
22.145,0.024
22.150,0.022
22.155,0.027
22.160,0.015
22.165,0.021
22.170,0.026
22.175,0.024
22.180,0.035
22.185,0.033
22.190,0.030
22.195,0.025
22.200,0.018
22.205,0.023
22.210,0.023
22.215,0.025
22.220,0.022
22.225,0.020
22.230,0.027
22.235,0.022
22.240,0.026
22.245,0.024
22.250,0.023
22.255,0.039
22.260,0.032
22.265,0.027
22.270,0.033
22.275,0.036
22.280,0.036
22.285,0.033
22.290,0.045
22.295,0.047
22.300,0.039
22.305,0.039
22.310,0.033
22.315,0.036
22.320,0.033
22.325,0.024
22.330,0.023
22.335,0.015
22.340,0.016
22.345,0.014
22.350,0.007
22.355,0.008
22.360,-0.001
22.365,-0.005
22.370,-0.013
22.375,-0.023
22.380,-0.021
22.385,-0.029
22.390,-0.024
22.395,-0.021
22.400,-0.031
22.405,-0.032
22.410,-0.039
22.415,-0.037
22.420,-0.038
22.425,-0.045
22.430,-0.043
22.435,-0.046
22.440,-0.041
22.445,-0.040
22.450,-0.045
22.455,-0.042
22.460,-0.044
22.465,-0.040
22.470,-0.039
22.475,-0.037
22.480,-0.031
22.485,-0.039
22.490,-0.033
22.495,-0.033
22.500,-0.033
22.505,-0.020
22.510,-0.025
22.515,-0.024
22.520,-0.021
22.525,-0.022
22.530,-0.016
22.535,-0.021
22.540,-0.017
22.545,-0.014
22.550,-0.011
22.555,0.000
22.560,-0.003
22.565,-0.003
22.570,-0.005
22.575,-0.007
22.580,-0.002
22.585,-0.006
22.590,0.000
22.595,-0.001
22.600,-0.009
22.605,-0.005
22.610,-0.005
22.615,0.001
22.620,0.000
22.625,-0.001
22.630,0.003
22.635,-0.005
22.640,0.002
22.645,0.004
22.650,0.000
22.655,0.005
22.660,-0.002
22.665,-0.001
22.670,0.002
22.675,0.000
22.680,0.003
22.685,-0.003
22.690,0.003
22.695,0.003
22.700,-0.001
22.705,0.006
22.710,0.003
22.715,0.004
22.720,0.004
22.725,0.003
22.730,0.005
22.735,-0.003
22.740,0.004
22.745,0.006
22.750,0.003
22.755,0.011
22.760,0.008
22.765,0.010
22.770,0.010
22.775,0.007
22.780,0.010
22.785,0.004
22.790,0.011
22.795,0.011
22.800,0.005
22.805,0.009
22.810,0.005
22.815,0.008
22.820,0.009
22.825,0.008
22.830,0.011
22.835,0.003
22.840,0.007
22.845,0.007
22.850,0.002
22.855,0.011
22.860,0.008
22.865,0.009
22.870,0.008
22.875,0.006
22.880,0.012
22.885,0.007
22.890,0.012
22.895,0.011
22.900,0.007
22.905,0.012
22.910,0.007
22.915,0.008
22.920,0.008
22.925,0.006
22.930,0.007
22.935,0.002
22.940,0.010
22.945,0.011
22.950,0.010
22.955,0.016
22.960,0.002
22.965,-0.003
22.970,0.003
22.975,0.012
22.980,0.027
22.985,0.023
22.990,0.026
22.995,0.025
23.000,0.017
23.005,0.024
23.010,0.027
23.015,0.040
23.020,0.046
23.025,0.036
23.030,0.023
23.035,0.007
23.040,0.003
23.045,-0.004
23.050,-0.012
23.055,-0.008
23.060,-0.010
23.065,-0.006
23.070,-0.007
23.075,-0.007
23.080,-0.002
23.085,-0.012
23.090,-0.007
23.095,-0.005
23.100,-0.009
23.105,-0.005
23.110,-0.010
23.115,-0.006
23.120,-0.011
23.125,-0.011
23.130,0.036
23.135,0.115
23.140,0.221
23.145,0.304
23.150,0.301
23.155,0.167
23.160,-0.015
23.165,-0.136
23.170,-0.228
23.175,-0.284
23.180,-0.334
23.185,-0.321
23.190,-0.207
23.195,-0.113
23.200,-0.062
23.205,-0.036
23.210,-0.029
23.215,-0.018
23.220,-0.009
23.225,0.001
23.230,0.005
23.235,-0.002
23.240,0.010
23.245,0.011
23.250,0.006
23.255,0.013
23.260,0.009
23.265,0.010
23.270,0.010
23.275,0.011
23.280,0.017
23.285,0.014
23.290,0.019
23.295,0.018
23.300,0.015
23.305,0.020
23.310,0.017
23.315,0.021
23.320,0.021
23.325,0.021
23.330,0.024
23.335,0.016
23.340,0.023
23.345,0.024
23.350,0.020
23.355,0.027
23.360,0.023
23.365,0.028
23.370,0.030
23.375,0.027
23.380,0.031
23.385,0.026
23.390,0.033
23.395,0.034
23.400,0.030
23.405,0.035
23.410,0.032
23.415,0.033
23.420,0.031
23.425,0.028
23.430,0.029
23.435,0.020
23.440,0.024
23.445,0.020
23.450,0.013
23.455,0.015
23.460,0.006
23.465,0.005
23.470,0.000
23.475,-0.006
23.480,-0.006
23.485,-0.013
23.490,-0.008
23.495,-0.011
23.500,-0.020
23.505,-0.017
23.510,-0.022
23.515,-0.019
23.520,-0.022
23.525,-0.026
23.530,-0.022
23.535,-0.028
23.540,-0.023
23.545,-0.024
23.550,-0.028
23.555,-0.021
23.560,-0.025
23.565,-0.023
23.570,-0.023
23.575,-0.024
23.580,-0.020
23.585,-0.026
23.590,-0.018
23.595,-0.016
23.600,-0.018
23.605,-0.013
23.610,-0.019
23.615,-0.015
23.620,-0.014
23.625,-0.015
23.630,-0.012
23.635,-0.017
23.640,-0.011
23.645,-0.012
23.650,-0.015
23.655,-0.008
23.660,-0.012
23.665,-0.010
23.670,-0.012
23.675,-0.012
23.680,-0.007
23.685,-0.012
23.690,-0.005
23.695,-0.005
23.700,-0.009
23.705,-0.001
23.710,-0.004
23.715,-0.002
23.720,-0.005
23.725,-0.003
23.730,0.005
23.735,0.001
23.740,0.006
23.745,0.004
23.750,0.000
23.755,0.007
23.760,0.003
23.765,0.004
23.770,0.003
23.775,0.001
23.780,0.005
23.785,-0.001
23.790,0.004
23.795,0.004
23.800,0.001
23.805,0.007
23.810,0.003
23.815,0.006
23.820,0.006
23.825,0.006
23.830,0.010
23.835,0.004
23.840,0.009
23.845,0.007
23.850,0.003
23.855,0.009
23.860,0.003
23.865,0.005
23.870,0.005
23.875,0.004
23.880,0.009
23.885,0.003
23.890,0.007
23.895,0.005
23.900,0.000
23.905,0.006
23.910,0.002
23.915,0.006
23.920,0.005
23.925,0.003
23.930,0.007
23.935,0.001
23.940,0.009
23.945,0.009
23.950,0.004
23.955,0.009
23.960,0.005
23.965,0.007
23.970,0.006
23.975,0.004
23.980,0.007
23.985,0.000
23.990,0.006
23.995,0.004
24.000,-0.001
24.005,0.006
24.010,0.001
24.015,0.005
24.020,0.006
24.025,0.005
24.030,0.008
24.035,0.001
24.040,0.006
24.045,0.005
24.050,0.001
24.055,0.004
24.060,0.001
24.065,0.008
24.070,0.007
24.075,0.008
24.080,0.012
24.085,-0.003
24.090,-0.005
24.095,-0.002
24.100,0.003
24.105,0.018
24.110,0.015
24.115,0.016
24.120,0.016
24.125,0.018
24.130,0.022
24.135,0.018
24.140,0.035
24.145,0.043
24.150,0.034
24.155,0.027
24.160,0.009
24.165,0.001
24.170,-0.001
24.175,-0.003
24.180,-0.003
24.185,-0.011
24.190,-0.007
24.195,-0.008
24.200,-0.009
24.205,-0.002
24.210,-0.010
24.215,-0.009
24.220,-0.009
24.225,-0.010
24.230,-0.007
24.235,-0.014
24.240,-0.006
24.245,-0.009
24.250,-0.017
24.255,0.015
24.260,0.085
24.265,0.189
24.270,0.281
24.275,0.318
24.280,0.218
24.285,0.031
24.290,-0.097
24.295,-0.197
24.300,-0.256
24.305,-0.305
24.310,-0.329
24.315,-0.241
24.320,-0.142
24.325,-0.078
24.330,-0.040
24.335,-0.033
24.340,-0.018
24.345,-0.011
24.350,-0.004
24.355,0.005
24.360,-0.001
24.365,0.005
24.370,0.006
24.375,0.005
24.380,0.010
24.385,0.006
24.390,0.011
24.395,0.010
24.400,0.007
24.405,0.012
24.410,0.008
24.415,0.014
24.420,0.014
24.425,0.013
24.430,0.017
24.435,0.012
24.440,0.022
24.445,0.022
24.450,0.017
24.455,0.023
24.460,0.020
24.465,0.024
24.470,0.024
24.475,0.023
24.480,0.028
24.485,0.022
24.490,0.028
24.495,0.027
24.500,0.023
24.505,0.031
24.510,0.030
24.515,0.036
24.520,0.036
24.525,0.032
24.530,0.032
24.535,0.026
24.540,0.034
24.545,0.031
24.550,0.024
24.555,0.027
24.560,0.021
24.565,0.022
24.570,0.019
24.575,0.015
24.580,0.017
24.585,0.007
24.590,0.008
24.595,0.003
24.600,-0.004
24.605,0.000
24.610,-0.007
24.615,-0.007
24.620,-0.013
24.625,-0.017
24.630,-0.016
24.635,-0.026
24.640,-0.021
24.645,-0.022
24.650,-0.026
24.655,-0.020
24.660,-0.025
24.665,-0.022
24.670,-0.024
24.675,-0.026
24.680,-0.020
24.685,-0.026
24.690,-0.021
24.695,-0.022
24.700,-0.026
24.705,-0.020
24.710,-0.024
24.715,-0.023
24.720,-0.024
24.725,-0.022
24.730,-0.016
24.735,-0.023
24.740,-0.018
24.745,-0.019
24.750,-0.020
24.755,-0.013
24.760,-0.018
24.765,-0.016
24.770,-0.016
24.775,-0.017
24.780,-0.013
24.785,-0.018
24.790,-0.012
24.795,-0.013
24.800,-0.016
24.805,-0.010
24.810,-0.013
24.815,-0.009
24.820,-0.008
24.825,-0.007
24.830,-0.002
24.835,-0.009
24.840,-0.003
24.845,-0.002
24.850,-0.003
24.855,0.006
24.860,0.002
24.865,0.006
24.870,0.005
24.875,0.004
24.880,0.008
24.885,0.001
24.890,0.006
24.895,0.006
24.900,0.005
24.905,0.010
24.910,0.003
24.915,0.006
24.920,0.005
24.925,0.005
24.930,0.009
24.935,0.001
24.940,0.008
24.945,0.006
24.950,0.001
24.955,0.008
24.960,0.003
24.965,0.007
24.970,0.007
24.975,0.007
24.980,0.011
24.985,0.004
24.990,0.010
24.995,0.009
25.000,0.004
25.005,0.009
25.010,0.005
25.015,0.009
25.020,0.009
25.025,0.008
25.030,0.011
25.035,0.004
25.040,0.010
25.045,0.009
25.050,0.004
25.055,0.008
25.060,0.003
25.065,0.008
25.070,0.008
25.075,0.007
25.080,0.010
25.085,0.003
25.090,0.010
25.095,0.009
25.100,0.005
25.105,0.010
25.110,0.004
25.115,0.006
25.120,0.006
25.125,0.005
25.130,0.009
25.135,0.003
25.140,0.009
25.145,0.008
25.150,0.003
25.155,0.008
25.160,0.003
25.165,0.006
25.170,0.005
25.175,0.005
25.180,0.010
25.185,0.002
25.190,0.006
25.195,0.003
25.200,0.001
25.205,0.010
25.210,0.006
25.215,0.010
25.220,0.008
25.225,-0.001
25.230,-0.003
25.235,-0.002
25.240,0.013
25.245,0.019
25.250,0.015
25.255,0.019
25.260,0.016
25.265,0.019
25.270,0.017
25.275,0.024
25.280,0.042
25.285,0.039
25.290,0.035
25.295,0.022
25.300,0.006
25.305,0.003
25.310,-0.007
25.315,-0.009
25.320,-0.011
25.325,-0.011
25.330,-0.009
25.335,-0.014
25.340,-0.005
25.345,-0.007
25.350,-0.013
25.355,-0.007
25.360,-0.012
25.365,-0.011
25.370,-0.013
25.375,-0.013
25.380,-0.006
25.385,-0.018
25.390,-0.013
25.395,0.029
25.400,0.115
25.405,0.226
25.410,0.307
25.415,0.312
25.420,0.172
25.425,-0.004
25.430,-0.124
25.435,-0.223
25.440,-0.277
25.445,-0.340
25.450,-0.328
25.455,-0.215
25.460,-0.125
25.465,-0.066
25.470,-0.045
25.475,-0.034
25.480,-0.021
25.485,-0.018
25.490,0.000
25.495,0.001
25.500,-0.003
25.505,0.007
25.510,0.002
25.515,0.004
25.520,0.006
25.525,0.006
25.530,0.010
25.535,0.006
25.540,0.015
25.545,0.014
25.550,0.011
25.555,0.019
25.560,0.014
25.565,0.017
25.570,0.018
25.575,0.018
25.580,0.022
25.585,0.014
25.590,0.021
25.595,0.023
25.600,0.021
25.605,0.028
25.610,0.022
25.615,0.025
25.620,0.026
25.625,0.026
25.630,0.031
25.635,0.025
25.640,0.031
25.645,0.033
25.650,0.029
25.655,0.034
25.660,0.030
25.665,0.035
25.670,0.034
25.675,0.031
25.680,0.033
25.685,0.025
25.690,0.030
25.695,0.029
25.700,0.024
25.705,0.029
25.710,0.021
25.715,0.022
25.720,0.018
25.725,0.012
25.730,0.012
25.735,0.001
25.740,0.003
25.745,-0.001
25.750,-0.007
25.755,-0.005
25.760,-0.015
25.765,-0.016
25.770,-0.020
25.775,-0.024
25.780,-0.023
25.785,-0.031
25.790,-0.026
25.795,-0.028
25.800,-0.033
25.805,-0.026
25.810,-0.031
25.815,-0.028
25.820,-0.030
25.825,-0.031
25.830,-0.027
25.835,-0.033
25.840,-0.025
25.845,-0.025
25.850,-0.027
25.855,-0.021
25.860,-0.027
25.865,-0.022
25.870,-0.021
25.875,-0.021
25.880,-0.016
25.885,-0.022
25.890,-0.015
25.895,-0.015
25.900,-0.020
25.905,-0.013
25.910,-0.017
25.915,-0.013
25.920,-0.015
25.925,-0.016
25.930,-0.011
25.935,-0.016
25.940,-0.009
25.945,-0.009
25.950,-0.012
25.955,-0.005
25.960,-0.009
25.965,-0.007
25.970,-0.007
25.975,-0.005
25.980,0.000
25.985,-0.006
25.990,0.001
25.995,0.000
26.000,-0.003
26.005,0.003
26.010,-0.002
26.015,0.003
26.020,0.003
26.025,0.002
26.030,0.006
26.035,0.000
26.040,0.007
26.045,0.006
26.050,0.002
26.055,0.007
26.060,0.001
26.065,0.005
26.070,0.006
26.075,0.005
26.080,0.009
26.085,0.003
26.090,0.008
26.095,0.008
26.100,0.003
26.105,0.008
26.110,0.003
26.115,0.007
26.120,0.006
26.125,0.007
26.130,0.013
26.135,0.006
26.140,0.012
26.145,0.011
26.150,0.006
26.155,0.012
26.160,0.006
26.165,0.009
26.170,0.007
26.175,0.006
26.180,0.010
26.185,0.003
26.190,0.009
26.195,0.009
26.200,0.005
26.205,0.012
26.210,0.006
26.215,0.008
26.220,0.009
26.225,0.009
26.230,0.012
26.235,0.005
26.240,0.010
26.245,0.009
26.250,0.006
26.255,0.012
26.260,0.007
26.265,0.009
26.270,0.006
26.275,0.004
26.280,0.008
26.285,0.002
26.290,0.009
26.295,0.008
26.300,0.004
26.305,0.008
26.310,0.003
26.315,0.006
26.320,0.005
26.325,0.005
26.330,0.008
26.335,0.000
26.340,0.008
26.345,0.009
26.350,0.007
26.355,0.015
26.360,0.005
26.365,-0.002
26.370,-0.003
26.375,0.006
26.380,0.018
26.385,0.015
26.390,0.021
26.395,0.018
26.400,0.015
26.405,0.022
26.410,0.020
26.415,0.034
26.420,0.042
26.425,0.035
26.430,0.027
26.435,0.009
26.440,0.004
26.445,-0.002
26.450,-0.010
26.455,-0.008
26.460,-0.012
26.465,-0.008
26.470,-0.009
26.475,-0.007
26.480,-0.002
26.485,-0.011
26.490,-0.007
26.495,-0.010
26.500,-0.013
26.505,-0.010
26.510,-0.015
26.515,-0.010
26.520,-0.011
26.525,-0.019
26.530,0.000
26.535,0.063
26.540,0.176
26.545,0.279
26.550,0.338
26.555,0.276
26.560,0.096
26.565,-0.054
26.570,-0.175
26.575,-0.257
26.580,-0.319
26.585,-0.365
26.590,-0.283
26.595,-0.168
26.600,-0.093
26.605,-0.048
26.610,-0.040
26.615,-0.025
26.620,-0.017
26.625,-0.008
26.630,0.001
26.635,-0.005
26.640,0.005
26.645,0.007
26.650,0.002
26.655,0.009
26.660,0.006
26.665,0.009
26.670,0.010
26.675,0.010
26.680,0.014
26.685,0.007
26.690,0.015
26.695,0.014
26.700,0.012
26.705,0.019
26.710,0.016
26.715,0.020
26.720,0.019
26.725,0.019
26.730,0.023
26.735,0.015
26.740,0.022
26.745,0.025
26.750,0.023
26.755,0.029
26.760,0.025
26.765,0.029
26.770,0.030
26.775,0.030
26.780,0.034
26.785,0.027
26.790,0.034
26.795,0.033
26.800,0.030
26.805,0.038
26.810,0.033
26.815,0.036
26.820,0.033
26.825,0.031
26.830,0.034
26.835,0.025
26.840,0.028
26.845,0.025
26.850,0.019
26.855,0.022
26.860,0.014
26.865,0.013
26.870,0.007
26.875,0.003
26.880,0.004
26.885,-0.008
26.890,-0.006
26.895,-0.012
26.900,-0.019
26.905,-0.016
26.910,-0.025
26.915,-0.026
26.920,-0.030
26.925,-0.032
26.930,-0.028
26.935,-0.036
26.940,-0.031
26.945,-0.034
26.950,-0.038
26.955,-0.033
26.960,-0.037
26.965,-0.033
26.970,-0.032
26.975,-0.032
26.980,-0.028
26.985,-0.032
26.990,-0.025
26.995,-0.026
27.000,-0.028
27.005,-0.021
27.010,-0.025
27.015,-0.019
27.020,-0.018
27.025,-0.018
27.030,-0.013
27.035,-0.018
27.040,-0.012
27.045,-0.012
27.050,-0.016
27.055,-0.011
27.060,-0.014
27.065,-0.009
27.070,-0.009
27.075,-0.008
27.080,-0.004
27.085,-0.010
27.090,-0.003
27.095,-0.003
27.100,-0.006
27.105,0.001
27.110,-0.002
27.115,0.001
27.120,0.000
27.125,0.002
27.130,0.006
27.135,-0.001
27.140,0.005
27.145,0.004
27.150,0.002
27.155,0.007
27.160,0.002
27.165,0.005
27.170,0.006
27.175,0.004
27.180,0.007
27.185,0.002
27.190,0.007
27.195,0.006
27.200,0.003
27.205,0.008
27.210,0.003
27.215,0.006
27.220,0.005
27.225,0.007
27.230,0.009
27.235,0.000
27.240,0.006
27.245,0.006
27.250,0.002
27.255,0.008
27.260,0.001
27.265,0.004
27.270,0.005
27.275,0.006
27.280,0.010
27.285,0.002
27.290,0.007
27.295,0.005
27.300,0.002
27.305,0.007
27.310,0.003
27.315,0.007
27.320,0.006
27.325,0.006
27.330,0.009
27.335,0.001
27.340,0.008
27.345,0.008
27.350,0.005
27.355,0.009
27.360,0.003
27.365,0.006
27.370,0.005
27.375,0.006
27.380,0.010
27.385,0.003
27.390,0.009
27.395,0.009
27.400,0.005
27.405,0.009
27.410,0.004
27.415,0.007
27.420,0.007
27.425,0.006
27.430,0.007
27.435,-0.001
27.440,0.006
27.445,0.006
27.450,0.004
27.455,0.006
27.460,0.001
27.465,0.004
27.470,0.002
27.475,0.001
27.480,0.004
27.485,-0.001
27.490,0.008
27.495,0.006
27.500,0.005
27.505,0.014
27.510,0.004
27.515,-0.007
27.520,-0.011
27.525,0.002
27.530,0.020
27.535,0.020
27.540,0.021
27.545,0.013
27.550,0.013
27.555,0.025
27.560,0.022
27.565,0.032
27.570,0.040
27.575,0.035
27.580,0.030
27.585,0.016
27.590,0.009
27.595,0.001
27.600,-0.009
27.605,-0.010
27.610,-0.012
27.615,-0.009
27.620,-0.014
27.625,-0.008
27.630,-0.002
27.635,-0.016
27.640,-0.021
27.645,-0.042
27.650,-0.056
27.655,-0.031
27.660,-0.006
27.665,0.010
27.670,-0.013
27.675,-0.044
27.680,-0.021
27.685,0.069
27.690,0.206
27.695,0.314
27.700,0.369
27.705,0.303
27.710,0.114
27.715,-0.046
27.720,-0.167
27.725,-0.253
27.730,-0.327
27.735,-0.382
27.740,-0.299
27.745,-0.168
27.750,-0.083
27.755,-0.040
27.760,-0.031
27.765,-0.017
27.770,-0.012
27.775,-0.005
27.780,-0.001
27.785,-0.011
27.790,0.007
27.795,0.025
27.800,0.027
27.805,0.015
27.810,-0.015
27.815,-0.010
27.820,0.009
27.825,0.025
27.830,0.030
27.835,0.020
27.840,0.032
27.845,0.032
27.850,0.015
27.855,0.008
27.860,0.006
27.865,0.030
27.870,0.040
27.875,0.025
27.880,-0.006
27.885,-0.039
27.890,-0.014
27.895,0.023
27.900,0.051
27.905,0.078
27.910,0.067
27.915,0.056
27.920,0.053
27.925,0.046
27.930,0.044
27.935,0.039
27.940,0.041
27.945,0.044
27.950,0.046
27.955,0.048
27.960,0.039
27.965,0.041
27.970,0.042
27.975,0.041
27.980,0.041
27.985,0.022
27.990,0.021
27.995,0.028
28.000,0.020
28.005,0.012
28.010,0.000
28.015,0.007
28.020,0.015
28.025,0.016
28.030,0.005
28.035,-0.012
28.040,-0.003
28.045,-0.002
28.050,-0.011
28.055,-0.021
28.060,-0.036
28.065,-0.033
28.070,-0.052
28.075,-0.066
28.080,-0.048
28.085,-0.043
28.090,-0.034
28.095,-0.032
28.100,-0.033
28.105,-0.025
28.110,-0.036
28.115,-0.045
28.120,-0.045
28.125,-0.037
28.130,-0.030
28.135,-0.042
28.140,-0.040
28.145,-0.034
28.150,-0.038
28.155,-0.040
28.160,-0.037
28.165,-0.023
28.170,-0.012
28.175,-0.016
28.180,-0.033
28.185,-0.028
28.190,-0.005
28.195,-0.011
28.200,-0.022
28.205,-0.035
28.210,-0.050
28.215,-0.031
28.220,-0.017
28.225,-0.015
28.230,-0.014
28.235,-0.014
28.240,0.020
28.245,0.035
28.250,0.020
28.255,0.005
28.260,-0.009
28.265,0.002
28.270,0.002
28.275,-0.003
28.280,0.000
28.285,-0.002
28.290,0.002
28.295,-0.006
28.300,-0.008
28.305,-0.021
28.310,-0.047
28.315,-0.026
28.320,0.002
28.325,0.027
28.330,0.038
28.335,0.021
28.340,0.029
28.345,0.029
28.350,0.010
28.355,0.009
28.360,0.008
28.365,0.005
28.370,-0.002
28.375,-0.009
28.380,-0.009
28.385,-0.007
28.390,0.009
28.395,0.013
28.400,0.004
28.405,0.003
28.410,0.002
28.415,0.000
28.420,-0.006
28.425,-0.006
28.430,-0.004
28.435,0.000
28.440,0.015
28.445,-0.002
28.450,-0.025
28.455,-0.018
28.460,-0.001
28.465,0.025
28.470,0.028
28.475,0.016
28.480,0.004
28.485,-0.023
28.490,-0.027
28.495,-0.013
28.500,0.014
28.505,0.036
28.510,0.022
28.515,0.021
28.520,0.025
28.525,0.013
28.530,-0.005
28.535,-0.021
28.540,0.012
28.545,0.042
28.550,0.028
28.555,0.002
28.560,-0.011
28.565,0.011
28.570,0.015
28.575,0.009
28.580,0.015
28.585,0.007
28.590,0.009
28.595,0.010
28.600,0.013
28.605,0.014
28.610,-0.011
28.615,-0.005
28.620,0.010
28.625,0.008
28.630,0.004
28.635,-0.023
28.640,-0.027
28.645,-0.028
28.650,-0.037
28.655,-0.031
28.660,-0.041
28.665,-0.048
28.670,-0.016
28.675,0.024
28.680,0.036
28.685,0.046
28.690,0.069
28.695,0.062
28.700,0.058
28.705,0.058
28.710,0.044
28.715,0.048
28.720,0.007
28.725,-0.042
28.730,-0.034
28.735,-0.013
28.740,0.006
28.745,-0.018
28.750,-0.036
28.755,-0.005
28.760,0.011
28.765,0.007
28.770,0.001
28.775,0.009
28.780,0.022
28.785,0.001
28.790,-0.004
28.795,-0.009
28.800,-0.043
28.805,-0.049
28.810,0.009
28.815,0.111
28.820,0.211
28.825,0.302
28.830,0.346
28.835,0.237
28.840,0.067
28.845,-0.062
28.850,-0.202
28.855,-0.332
28.860,-0.446
28.865,-0.451
28.870,-0.307
28.875,-0.177
28.880,-0.141
28.885,-0.140
28.890,-0.101
28.895,-0.045
28.900,0.002
28.905,0.010
28.910,0.003
28.915,0.049
28.920,0.070
28.925,0.071
28.930,0.079
28.935,0.061
28.940,0.053
28.945,0.035
28.950,0.007
28.955,0.001
28.960,-0.001
28.965,0.009
28.970,0.026
28.975,0.038
28.980,0.032
28.985,0.021
28.990,0.030
28.995,0.015
29.000,-0.022
29.005,-0.029
29.010,-0.004
29.015,0.030
29.020,0.051
29.025,0.052
29.030,0.047
29.035,0.050
29.040,0.048
29.045,0.028
29.050,0.025
29.055,0.032
29.060,0.000
29.065,-0.033
29.070,0.006
29.075,0.088
29.080,0.106
29.085,0.066
29.090,0.041
29.095,0.031
29.100,0.026
29.105,0.005
29.110,0.006
29.115,0.056
29.120,0.061
29.125,0.036
29.130,0.027
29.135,0.015
29.140,0.015
29.145,0.005
29.150,-0.009
29.155,-0.015
29.160,-0.029
29.165,-0.042
29.170,-0.054
29.175,-0.020
29.180,0.019
29.185,-0.005
29.190,-0.045
29.195,-0.078
29.200,-0.069
29.205,-0.017
29.210,0.013
29.215,0.023
29.220,0.014
29.225,-0.013
29.230,-0.027
29.235,-0.030
29.240,-0.034
29.245,-0.044
29.250,-0.038
29.255,-0.027
29.260,-0.035
29.265,-0.029
29.270,-0.024
29.275,-0.020
29.280,-0.019
29.285,-0.026
29.290,-0.017
29.295,-0.021
29.300,-0.022
29.305,-0.007
29.310,-0.008
29.315,-0.006
29.320,-0.009
29.325,-0.011
29.330,0.002
29.335,0.001
29.340,0.003
29.345,-0.001
29.350,0.000
29.355,0.010
29.360,0.000
29.365,-0.006
29.370,-0.009
29.375,-0.002
29.380,0.004
29.385,-0.006
29.390,0.004
29.395,0.007
29.400,0.003
29.405,0.001
29.410,-0.013
29.415,-0.010
29.420,-0.009
29.425,-0.008
29.430,-0.007
29.435,-0.017
29.440,-0.004
29.445,0.006
29.450,0.006
29.455,0.001
29.460,-0.021
29.465,-0.023
29.470,-0.014
29.475,0.003
29.480,0.021
29.485,-0.010
29.490,-0.060
29.495,-0.065
29.500,-0.001
29.505,0.068
29.510,0.067
29.515,0.038
29.520,0.018
29.525,0.021
29.530,0.023
29.535,0.004
29.540,0.007
29.545,0.007
29.550,0.001
29.555,0.012
29.560,0.012
29.565,0.011
29.570,0.005
29.575,-0.001
29.580,0.000
29.585,-0.006
29.590,0.006
29.595,0.013
29.600,0.012
29.605,0.015
29.610,0.012
29.615,0.018
29.620,0.015
29.625,0.009
29.630,0.007
29.635,0.003
29.640,0.019
29.645,0.023
29.650,0.011
29.655,-0.002
29.660,-0.005
29.665,0.009
29.670,0.010
29.675,0.009
29.680,0.004
29.685,-0.005
29.690,0.012
29.695,0.008
29.700,-0.003
29.705,0.008
29.710,-0.001
29.715,0.001
29.720,0.004
29.725,0.002
29.730,0.006
29.735,0.000
29.740,0.006
29.745,0.007
29.750,0.008
29.755,0.017
29.760,0.013
29.765,0.006
29.770,-0.003
29.775,0.011
29.780,0.034
29.785,0.013
29.790,-0.006
29.795,-0.007
29.800,0.008
29.805,0.027
29.810,0.015
29.815,0.012
29.820,0.018
29.825,0.018
29.830,0.030
29.835,0.043
29.840,0.058
29.845,0.055
29.850,0.031
29.855,0.013
29.860,-0.003
29.865,-0.005
29.870,0.001
29.875,0.004
29.880,0.000
29.885,-0.014
29.890,-0.006
29.895,-0.008
29.900,-0.034
29.905,-0.057
29.910,-0.065
29.915,-0.021
29.920,0.025
29.925,0.036
29.930,0.029
29.935,0.009
29.940,0.008
29.945,-0.006
29.950,-0.020
29.955,0.026
29.960,0.121
29.965,0.243
29.970,0.334
29.975,0.344
29.980,0.209
29.985,0.021
29.990,-0.114
29.995,-0.262
30.000,-0.360
30.005,-0.406
30.010,-0.380
30.015,-0.245
30.020,-0.130
30.025,-0.060
30.030,-0.020
30.035,-0.019
30.040,-0.014
30.045,-0.005
30.050,-0.004
30.055,-0.007
30.060,0.006
30.065,0.037
30.070,0.037
30.075,0.022
30.080,-0.004
30.085,-0.022
30.090,0.024
30.095,0.055
30.100,0.056
30.105,0.047
30.110,0.023
30.115,0.030
30.120,0.031
30.125,0.022
30.130,0.023
30.135,0.019
30.140,0.028
30.145,0.017
30.150,0.008
30.155,0.029
30.160,0.038
30.165,0.043
30.170,0.035
30.175,0.018
30.180,0.019
30.185,0.021
30.190,0.029
30.195,0.040
30.200,0.044
30.205,0.044
30.210,0.034
30.215,0.037
30.220,0.034
30.225,0.033
30.230,0.036
30.235,0.019
30.240,0.024
30.245,0.039
30.250,0.043
30.255,0.037
30.260,0.020
30.265,0.020
30.270,0.020
30.275,0.017
30.280,-0.007
30.285,-0.036
30.290,-0.005
30.295,0.017
30.300,0.017
30.305,0.008
30.310,-0.016
30.315,-0.013
30.320,-0.025
30.325,-0.039
30.330,-0.028
30.335,-0.026
30.340,-0.026
30.345,-0.041
30.350,-0.053
30.355,-0.047
30.360,-0.051
30.365,-0.040
30.370,-0.034
30.375,-0.038
30.380,-0.038
30.385,-0.047
30.390,-0.040
30.395,-0.039
30.400,-0.043
30.405,-0.036
30.410,-0.036
30.415,-0.032
30.420,-0.034
30.425,-0.032
30.430,-0.028
30.435,-0.034
30.440,-0.021
30.445,-0.018
30.450,-0.019
30.455,-0.011
30.460,-0.017
30.465,-0.013
30.470,-0.017
30.475,-0.025
30.480,-0.017
30.485,-0.013
30.490,-0.002
30.495,-0.001
30.500,-0.002
30.505,0.001
30.510,-0.007
30.515,-0.010
30.520,-0.015
30.525,-0.010
30.530,-0.003
30.535,-0.026
30.540,-0.044
30.545,-0.036
30.550,-0.006
30.555,0.029
30.560,0.036
30.565,0.033
30.570,0.027
30.575,0.022
30.580,0.012
30.585,-0.001
30.590,0.006
30.595,0.002
30.600,-0.001
30.605,0.010
30.610,0.003
30.615,0.001
30.620,-0.003
30.625,-0.001
30.630,0.008
30.635,0.004
30.640,0.012
30.645,0.009
30.650,0.004
30.655,0.005
30.660,0.000
30.665,0.006
30.670,0.008
30.675,0.014
30.680,0.017
30.685,0.006
30.690,0.011
30.695,0.006
30.700,-0.002
30.705,0.006
30.710,0.009
30.715,0.015
30.720,0.011
30.725,0.007
30.730,0.008
30.735,-0.001
30.740,0.004
30.745,0.007
30.750,0.008
30.755,0.010
30.760,0.000
30.765,0.008
30.770,0.015
30.775,0.017
30.780,0.018
30.785,0.009
30.790,0.007
30.795,-0.003
30.800,-0.009
30.805,0.004
30.810,0.012
30.815,0.012
30.820,-0.015
30.825,-0.037
30.830,-0.017
30.835,0.016
30.840,0.046
30.845,0.041
30.850,0.025
30.855,0.026
30.860,0.014
30.865,0.009
30.870,0.005
30.875,0.012
30.880,0.018
30.885,0.002
30.890,0.003
30.895,0.013
30.900,0.020
30.905,0.017
30.910,-0.010
30.915,-0.018
30.920,-0.006
30.925,0.013
30.930,0.026
30.935,0.021
30.940,0.026
30.945,0.019
30.950,0.007
30.955,0.012
30.960,0.017
30.965,0.036
30.970,0.044
30.975,0.033
30.980,0.024
30.985,0.007
30.990,-0.002
30.995,-0.020
31.000,-0.042
31.005,-0.059
31.010,-0.084
31.015,-0.050
31.020,0.015
31.025,0.054
31.030,0.057
31.035,0.022
31.040,0.015
31.045,0.012
31.050,-0.002
31.055,-0.002
31.060,-0.001
31.065,-0.003
31.070,-0.026
31.075,-0.022
31.080,0.047
31.085,0.160
31.090,0.289
31.095,0.359
31.100,0.307
31.105,0.139
31.110,-0.040
31.115,-0.194
31.120,-0.321
31.125,-0.377
31.130,-0.412
31.135,-0.351
31.140,-0.206
31.145,-0.104
31.150,-0.042
31.155,-0.021
31.160,-0.022
31.165,-0.002
31.170,0.008
31.175,0.006
31.180,0.004
31.185,0.010
31.190,0.039
31.195,0.038
31.200,0.024
31.205,0.021
31.210,0.010
31.215,0.015
31.220,0.017
31.225,0.021
31.230,0.030
31.235,0.024
31.240,0.027
31.245,0.028
31.250,0.026
31.255,0.031
31.260,0.031
31.265,0.037
31.270,0.025
31.275,0.012
31.280,0.020
31.285,0.027
31.290,0.048
31.295,0.047
31.300,0.035
31.305,0.050
31.310,0.049
31.315,0.037
31.320,0.021
31.325,0.018
31.330,0.046
31.335,0.051
31.340,0.033
31.345,0.015
31.350,0.026
31.355,0.059
31.360,0.056
31.365,0.042
31.370,0.034
31.375,0.025
31.380,0.027
31.385,0.027
31.390,0.021
31.395,-0.007
31.400,-0.026
31.405,0.000
31.410,0.038
31.415,0.055
31.420,0.032
31.425,0.008
31.430,0.000
31.435,-0.023
31.440,-0.033
31.445,-0.047
31.450,-0.062
31.455,-0.076
31.460,-0.080
31.465,-0.031
31.470,0.005
31.475,-0.001
31.480,-0.027
31.485,-0.041
31.490,-0.016
31.495,-0.016
31.500,-0.041
31.505,-0.048
31.510,-0.049
31.515,-0.044
31.520,-0.040
31.525,-0.036
31.530,-0.035
31.535,-0.042
31.540,-0.034
31.545,-0.034
31.550,-0.035
31.555,-0.032
31.560,-0.039
31.565,-0.036
31.570,-0.032
31.575,-0.019
31.580,-0.010
31.585,-0.029
31.590,-0.034
31.595,-0.027
31.600,-0.014
31.605,0.008
31.610,0.000
31.615,-0.010
31.620,-0.011
31.625,-0.003
31.630,0.003
31.635,-0.005
31.640,0.000
31.645,-0.005
31.650,-0.007
31.655,-0.002
31.660,-0.012
31.665,-0.011
31.670,-0.012
31.675,-0.007
31.680,-0.015
31.685,-0.066
31.690,-0.107
31.695,-0.079
31.700,0.027
31.705,0.103
31.710,0.094
31.715,0.059
31.720,0.027
31.725,0.028
31.730,0.017
31.735,-0.017
31.740,0.001
31.745,0.024
31.750,0.018
31.755,0.017
31.760,0.014
31.765,0.005
31.770,-0.004
31.775,-0.001
31.780,0.005
31.785,0.010
31.790,0.007
31.795,-0.009
31.800,-0.007
31.805,0.004
31.810,0.005
31.815,0.013
31.820,0.006
31.825,-0.002
31.830,0.007
31.835,0.011
31.840,0.008
31.845,-0.037
31.850,-0.074
31.855,-0.014
31.860,0.058
31.865,0.069
31.870,0.037
31.875,0.016
31.880,0.027
31.885,0.022
31.890,-0.004
31.895,-0.012
31.900,0.012
31.905,0.020
31.910,0.013
31.915,0.026
31.920,0.013
31.925,-0.006
31.930,-0.013
31.935,-0.016
31.940,0.014
31.945,0.001
31.950,-0.047
31.955,-0.050
31.960,-0.026
31.965,0.018
31.970,0.045
31.975,0.035
31.980,0.030
31.985,0.035
31.990,0.045
31.995,0.036
32.000,0.022
32.005,0.015
32.010,0.004
32.015,0.005
32.020,-0.002
32.025,-0.005
32.030,0.005
32.035,0.003
32.040,0.018
32.045,0.025
32.050,0.019
32.055,0.015
32.060,-0.014
32.065,-0.046
32.070,-0.054
32.075,0.018
32.080,0.104
32.085,0.103
32.090,0.068
32.095,0.000
32.100,-0.036
32.105,0.007
32.110,0.021
32.115,0.016
32.120,0.001
32.125,-0.021
32.130,-0.011
32.135,-0.006
32.140,-0.006
32.145,-0.006
32.150,0.004
32.155,0.012
32.160,0.001
32.165,0.011
32.170,0.008
32.175,-0.014
32.180,-0.026
32.185,-0.038
32.190,-0.006
32.195,0.089
32.200,0.210
32.205,0.320
32.210,0.368
32.215,0.283
32.220,0.086
32.225,-0.079
32.230,-0.237
32.235,-0.377
32.240,-0.441
32.245,-0.462
32.250,-0.348
32.255,-0.181
32.260,-0.088
32.265,-0.022
32.270,0.007
32.275,0.009
32.280,0.010
32.285,0.013
32.290,0.021
32.295,0.016
32.300,0.020
32.305,0.020
32.310,0.009
32.315,-0.015
32.320,-0.061
32.325,-0.005
32.330,0.102
32.335,0.125
32.340,0.098
32.345,0.047
32.350,0.037
32.355,0.050
32.360,0.030
32.365,0.032
32.370,0.030
32.375,0.024
32.380,0.021
32.385,0.011
32.390,0.027
32.395,0.034
32.400,0.043
32.405,0.055
32.410,0.034
32.415,0.034
32.420,0.039
32.425,0.033
32.430,0.039
32.435,0.039
32.440,0.053
32.445,0.050
32.450,0.022
32.455,-0.004
32.460,-0.007
32.465,0.034
32.470,0.056
32.475,0.058
32.480,0.053
32.485,0.029
32.490,0.032
32.495,0.028
32.500,0.021
32.505,0.029
32.510,0.013
32.515,-0.003
32.520,-0.006
32.525,-0.003
32.530,-0.008
32.535,-0.025
32.540,-0.035
32.545,-0.063
32.550,-0.065
32.555,-0.033
32.560,-0.029
32.565,-0.023
32.570,-0.017
32.575,-0.020
32.580,-0.020
32.585,-0.058
32.590,-0.096
32.595,-0.085
32.600,-0.048
32.605,-0.027
32.610,-0.032
32.615,-0.028
32.620,-0.024
32.625,-0.010
32.630,-0.017
32.635,-0.047
32.640,-0.035
32.645,-0.043
32.650,-0.058
32.655,-0.036
32.660,-0.035
32.665,-0.037
32.670,-0.033
32.675,-0.030
32.680,-0.023
32.685,-0.033
32.690,-0.039
32.695,-0.039
32.700,-0.034
32.705,-0.029
32.710,-0.026
32.715,-0.021
32.720,-0.050
32.725,-0.056
32.730,-0.008
32.735,0.035
32.740,0.052
32.745,0.031
32.750,0.008
32.755,0.011
32.760,0.008
32.765,-0.008
32.770,-0.018
32.775,-0.008
32.780,-0.001
32.785,-0.005
32.790,0.005
32.795,-0.002
32.800,-0.013
32.805,-0.015
32.810,-0.047
32.815,-0.100
32.820,-0.090
32.825,0.009
32.830,0.052
32.835,0.004
32.840,-0.022
32.845,0.009
32.850,0.067
32.855,0.072
32.860,0.019
32.865,0.003
32.870,0.012
32.875,0.011
32.880,0.009
32.885,0.001
32.890,-0.012
32.895,-0.021
32.900,-0.003
32.905,-0.001
32.910,-0.015
32.915,0.008
32.920,0.028
32.925,0.027
32.930,0.013
32.935,-0.005
32.940,0.005
32.945,0.006
32.950,-0.006
32.955,-0.009
32.960,-0.012
32.965,0.008
32.970,0.023
32.975,0.019
32.980,0.013
32.985,0.005
32.990,0.014
32.995,0.011
33.000,-0.006
33.005,-0.002
33.010,0.014
33.015,0.017
33.020,-0.001
33.025,-0.025
33.030,-0.068
33.035,-0.083
33.040,0.000
33.045,0.076
33.050,0.088
33.055,0.055
33.060,0.009
33.065,0.020
33.070,0.040
33.075,0.029
33.080,0.018
33.085,0.008
33.090,0.010
33.095,0.015
33.100,0.017
33.105,0.014
33.110,0.004
33.115,0.008
33.120,0.000
33.125,-0.008
33.130,0.000
33.135,0.003
33.140,0.008
33.145,-0.001
33.150,-0.008
33.155,0.005
33.160,-0.014
33.165,-0.034
33.170,0.002
33.175,0.060
33.180,0.082
33.185,0.055
33.190,0.036
33.195,0.036
33.200,0.025
33.205,0.011
33.210,0.016
33.215,0.028
33.220,0.004
33.225,-0.019
33.230,-0.015
33.235,-0.015
33.240,-0.014
33.245,-0.015
33.250,-0.001
33.255,0.006
33.260,-0.007
33.265,-0.011
33.270,-0.020
33.275,-0.012
33.280,0.005
33.285,0.004
33.290,0.007
33.295,-0.012
33.300,-0.031
33.305,-0.001
33.310,0.082
33.315,0.207
33.320,0.314
33.325,0.374
33.330,0.291
33.335,0.095
33.340,-0.056
33.345,-0.213
33.350,-0.331
33.355,-0.398
33.360,-0.455
33.365,-0.367
33.370,-0.195
33.375,-0.051
33.380,0.014
33.385,-0.002
33.390,-0.019
33.395,-0.030
33.400,-0.016
33.405,0.001
33.410,-0.002
33.415,0.020
33.420,0.031
33.425,0.013
33.430,-0.001
33.435,-0.016
33.440,0.005
33.445,0.055
33.450,0.054
33.455,0.016
33.460,0.010
33.465,0.042
33.470,0.050
33.475,0.038
33.480,0.031
33.485,0.023
33.490,0.030
33.495,0.020
33.500,0.017
33.505,0.032
33.510,0.024
33.515,0.021
33.520,0.023
33.525,0.025
33.530,0.025
33.535,0.014
33.540,0.028
33.545,0.028
33.550,-0.015
33.555,-0.025
33.560,0.029
33.565,0.084
33.570,0.082
33.575,0.054
33.580,0.042
33.585,0.044
33.590,0.041
33.595,0.018
33.600,0.016
33.605,0.026
33.610,0.014
33.615,0.029
33.620,0.043
33.625,0.029
33.630,0.013
33.635,-0.006
33.640,-0.003
33.645,-0.001
33.650,-0.008
33.655,-0.009
33.660,-0.024
33.665,-0.030
33.670,-0.038
33.675,-0.041
33.680,-0.024
33.685,-0.019
33.690,-0.014
33.695,-0.034
33.700,-0.071
33.705,-0.075
33.710,-0.052
33.715,-0.018
33.720,-0.011
33.725,-0.023
33.730,-0.029
33.735,-0.028
33.740,-0.016
33.745,-0.029
33.750,-0.036
33.755,-0.025
33.760,-0.029
33.765,-0.022
33.770,-0.030
33.775,-0.057
33.780,-0.052
33.785,-0.011
33.790,0.030
33.795,0.022
33.800,0.002
33.805,0.002
33.810,-0.001
33.815,0.001
33.820,-0.008
33.825,-0.004
33.830,0.007
33.835,-0.007
33.840,-0.002
33.845,0.000
33.850,-0.005
33.855,0.002
33.860,0.002
33.865,0.002
33.870,-0.001
33.875,-0.001
33.880,-0.003
33.885,-0.011
33.890,0.003
33.895,0.011
33.900,0.011
33.905,0.008
33.910,-0.004
33.915,0.001
33.920,0.009
33.925,0.015
33.930,-0.017
33.935,-0.092
33.940,-0.080
33.945,0.009
33.950,0.072
33.955,0.086
33.960,0.054
33.965,0.033
33.970,0.029
33.975,0.021
33.980,0.018
33.985,0.016
33.990,0.018
33.995,0.007
34.000,0.005
34.005,0.014
34.010,0.006
34.015,0.008
34.020,0.010
34.025,0.003
34.030,0.002
34.035,0.006
34.040,0.023
34.045,0.014
34.050,0.001
34.055,0.004
34.060,0.003
34.065,0.021
34.070,0.020
34.075,0.009
34.080,0.013
34.085,0.006
34.090,0.005
34.095,0.002
34.100,-0.003
34.105,-0.004
34.110,-0.013
34.115,0.001
34.120,0.019
34.125,0.022
34.130,0.009
34.135,-0.003
34.140,0.014
34.145,0.007
34.150,-0.009
34.155,0.007
34.160,0.023
34.165,0.030
34.170,0.012
34.175,0.003
34.180,0.010
34.185,0.002
34.190,0.006
34.195,0.005
34.200,-0.001
34.205,-0.004
34.210,-0.024
34.215,-0.012
34.220,0.017
34.225,0.025
34.230,0.012
34.235,0.001
34.240,0.024
34.245,0.031
34.250,0.006
34.255,-0.022
34.260,-0.038
34.265,-0.026
34.270,-0.023
34.275,-0.011
34.280,0.024
34.285,0.030
34.290,0.036
34.295,0.049
34.300,0.051
34.305,0.055
34.310,0.052
34.315,0.052
34.320,0.042
34.325,0.007
34.330,-0.029
34.335,-0.023
34.340,0.012
34.345,-0.001
34.350,-0.036
34.355,-0.051
34.360,-0.030
34.365,0.029
34.370,0.046
34.375,0.020
34.380,-0.016
34.385,-0.039
34.390,-0.014
34.395,-0.001
34.400,0.002
34.405,0.013
34.410,-0.010
34.415,-0.023
34.420,-0.006
34.425,0.048
34.430,0.149
34.435,0.263
34.440,0.367
34.445,0.357
34.450,0.175
34.455,-0.029
34.460,-0.191
34.465,-0.324
34.470,-0.413
34.475,-0.483
34.480,-0.408
34.485,-0.210
34.490,-0.061
34.495,0.000
34.500,-0.023
34.505,-0.062
34.510,-0.026
34.515,0.049
34.520,0.052
34.525,0.017
34.530,-0.031
34.535,-0.106
34.540,-0.096
34.545,0.007
34.550,0.117
34.555,0.163
34.560,0.116
34.565,0.072
34.570,0.066
34.575,0.060
34.580,0.040
34.585,0.021
34.590,0.032
34.595,0.030
34.600,0.016
34.605,0.023
34.610,0.024
34.615,0.028
34.620,0.027
34.625,0.021
34.630,0.017
34.635,0.011
34.640,0.023
34.645,0.023
34.650,0.026
34.655,0.040
34.660,0.027
34.665,0.019
34.670,0.020
34.675,0.034
34.680,0.042
34.685,0.021
34.690,0.009
34.695,-0.014
34.700,-0.028
34.705,0.019
34.710,0.084
34.715,0.103
34.720,0.061
34.725,0.013
34.730,0.008
34.735,0.014
34.740,0.010
34.745,0.008
34.750,0.018
34.755,0.014
34.760,-0.019
34.765,-0.030
34.770,-0.038
34.775,-0.080
34.780,-0.087
34.785,-0.021
34.790,0.045
34.795,0.041
34.800,-0.002
34.805,-0.025
34.810,-0.030
34.815,-0.035
34.820,-0.039
34.825,-0.023
34.830,-0.027
34.835,-0.067
34.840,-0.063
34.845,-0.031
34.850,-0.020
34.855,-0.029
34.860,-0.061
34.865,-0.080
34.870,-0.068
34.875,-0.032
34.880,-0.019
34.885,-0.043
34.890,-0.051
34.895,-0.044
34.900,-0.021
34.905,-0.005
34.910,-0.021
34.915,-0.014
34.920,-0.005
34.925,-0.012
34.930,-0.022
34.935,-0.028
34.940,-0.006
34.945,0.001
34.950,-0.012
34.955,-0.017
34.960,-0.010
34.965,0.003
34.970,-0.005
34.975,-0.006
34.980,-0.007
34.985,-0.025
34.990,-0.013
34.995,-0.005
35.000,-0.013
35.005,-0.016
35.010,-0.021
35.015,0.004
35.020,0.024
35.025,0.017
35.030,0.002
35.035,-0.017
35.040,-0.017
35.045,-0.011
35.050,-0.003
35.055,0.008
35.060,0.008
35.065,0.011
35.070,0.003
35.075,-0.003
35.080,0.000
35.085,-0.004
35.090,-0.002
35.095,-0.009
35.100,-0.004
35.105,0.007
35.110,-0.002
35.115,-0.002
35.120,-0.005
35.125,-0.007
35.130,0.000
35.135,-0.003
35.140,0.003
35.145,0.002
35.150,-0.012
35.155,-0.033
35.160,-0.033
35.165,0.018
35.170,0.045
35.175,0.016
35.180,-0.013
35.185,0.003
35.190,0.050
35.195,0.049
35.200,0.020
35.205,0.015
35.210,0.016
35.215,0.015
35.220,0.001
35.225,0.000
35.230,0.009
35.235,0.004
35.240,0.016
35.245,0.019
35.250,0.009
35.255,0.012
35.260,0.007
35.265,0.004
35.270,0.004
35.275,0.006
35.280,0.008
35.285,-0.001
35.290,0.010
35.295,0.012
35.300,0.004
35.305,0.008
35.310,0.005
35.315,0.010
35.320,0.000
35.325,-0.020
35.330,-0.028
35.335,-0.015
35.340,0.032
35.345,0.046
35.350,0.028
35.355,0.016
35.360,0.005
35.365,0.011
35.370,0.008
35.375,0.008
35.380,0.015
35.385,0.007
35.390,0.009
35.395,-0.003
35.400,-0.012
35.405,0.000
35.410,0.009
35.415,0.025
35.420,0.025
35.425,0.021
35.430,0.024
35.435,0.018
35.440,0.024
35.445,0.028
35.450,0.036
35.455,0.042
35.460,0.024
35.465,0.016
35.470,0.007
35.475,0.001
35.480,0.001
35.485,-0.015
35.490,-0.015
35.495,-0.012
35.500,-0.011
35.505,-0.003
35.510,-0.007
35.515,-0.009
35.520,-0.014
35.525,-0.009
35.530,0.000
35.535,-0.010
35.540,-0.009
35.545,-0.011
35.550,-0.009
35.555,-0.003
35.560,-0.012
35.565,0.016
35.570,0.091
35.575,0.181
35.580,0.264
35.585,0.309
35.590,0.221
35.595,0.019
35.600,-0.157
35.605,-0.270
35.610,-0.298
35.615,-0.316
35.620,-0.319
35.625,-0.219
35.630,-0.108
35.635,-0.054
35.640,-0.027
35.645,-0.021
35.650,-0.013
35.655,-0.001
35.660,-0.001
35.665,0.005
35.670,0.004
35.675,0.008
35.680,0.013
35.685,0.006
35.690,0.016
35.695,0.018
35.700,0.015
35.705,0.020
35.710,0.016
35.715,0.017
35.720,0.014
35.725,0.017
35.730,0.019
35.735,0.010
35.740,0.018
35.745,0.018
35.750,0.018
35.755,0.024
35.760,0.020
35.765,0.026
35.770,0.026
35.775,0.022
35.780,0.026
35.785,0.028
35.790,0.035
35.795,0.031
35.800,0.027
35.805,0.030
35.810,0.017
35.815,0.015
35.820,0.028
35.825,0.046
35.830,0.055
35.835,0.043
35.840,0.041
35.845,0.035
35.850,0.032
35.855,0.034
35.860,0.027
35.865,0.031
35.870,0.023
35.875,0.020
35.880,0.026
35.885,0.016
35.890,0.017
35.895,0.013
35.900,0.001
35.905,-0.003
35.910,-0.010
35.915,-0.010
35.920,-0.013
35.925,-0.015
35.930,-0.015
35.935,-0.024
35.940,-0.021
35.945,-0.028
35.950,-0.033
35.955,-0.029
35.960,-0.036
35.965,-0.033
35.970,-0.031
35.975,-0.030
35.980,-0.031
35.985,-0.041
35.990,-0.033
35.995,-0.030
36.000,-0.030
36.005,-0.025
36.010,-0.029
36.015,-0.025
36.020,-0.027
36.025,-0.026
36.030,-0.019
36.035,-0.023
36.040,-0.016
36.045,-0.021
36.050,-0.026
36.055,-0.018
36.060,-0.020
36.065,-0.015
36.070,-0.016
36.075,-0.013
36.080,-0.010
36.085,-0.017
36.090,-0.009
36.095,-0.009
36.100,-0.009
36.105,-0.002
36.110,-0.009
36.115,-0.007
36.120,-0.010
36.125,-0.009
36.130,0.000
36.135,-0.005
36.140,-0.003
36.145,-0.006
36.150,-0.006
36.155,-0.002
36.160,-0.011
36.165,-0.005
36.170,-0.002
36.175,0.004
36.180,0.009
36.185,-0.001
36.190,0.005
36.195,0.005
36.200,0.003
36.205,0.008
36.210,0.000
36.215,0.001
36.220,-0.001
36.225,0.004
36.230,0.011
36.235,0.001
36.240,0.007
36.245,0.005
36.250,0.002
36.255,0.011
36.260,0.007
36.265,0.011
36.270,0.010
36.275,0.009
36.280,0.012
36.285,0.002
36.290,0.007
36.295,0.004
36.300,-0.001
36.305,0.003
36.310,0.003
36.315,0.011
36.320,0.009
36.325,0.008
36.330,0.010
36.335,0.003
36.340,0.010
36.345,0.006
36.350,0.004
36.355,0.008
36.360,0.000
36.365,0.006
36.370,0.007
36.375,0.008
36.380,0.011
36.385,0.002
36.390,0.006
36.395,0.001
36.400,-0.002
36.405,0.007
36.410,0.000
36.415,0.000
36.420,0.005
36.425,0.013
36.430,0.017
36.435,0.009
36.440,0.014
36.445,0.015
36.450,0.011
36.455,0.011
36.460,0.005
36.465,0.010
36.470,0.008
36.475,0.008
36.480,0.009
36.485,0.001
36.490,0.007
36.495,0.007
36.500,0.006
36.505,0.010
36.510,0.000
36.515,0.004
36.520,0.004
36.525,0.006
36.530,0.016
36.535,0.012
36.540,0.011
36.545,-0.002
36.550,-0.006
36.555,0.006
36.560,0.009
36.565,0.020
36.570,0.019
36.575,0.022
36.580,0.029
36.585,0.017
36.590,0.025
36.595,0.032
36.600,0.035
36.605,0.038
36.610,0.021
36.615,0.013
36.620,0.002
36.625,-0.003
36.630,-0.006
36.635,-0.020
36.640,-0.011
36.645,-0.011
36.650,-0.014
36.655,-0.002
36.660,-0.005
36.665,-0.006
36.670,-0.010
36.675,-0.011
36.680,-0.006
36.685,-0.013
36.690,-0.008
36.695,-0.008
36.700,-0.013
36.705,-0.017
36.710,-0.005
36.715,0.074
36.720,0.182
36.725,0.284
36.730,0.341
36.735,0.253
36.740,0.078
36.745,-0.081
36.750,-0.215
36.755,-0.295
36.760,-0.359
36.765,-0.383
36.770,-0.294
36.775,-0.173
36.780,-0.088
36.785,-0.046
36.790,-0.023
36.795,-0.014
36.800,-0.006
36.805,0.009
36.810,0.012
36.815,0.017
36.820,0.012
36.825,0.011
36.830,0.017
36.835,0.015
36.840,0.023
36.845,0.021
36.850,0.018
36.855,0.024
36.860,0.019
36.865,0.022
36.870,0.020
36.875,0.024
36.880,0.026
36.885,0.016
36.890,0.023
36.895,0.021
36.900,0.019
36.905,0.027
36.910,0.022
36.915,0.026
36.920,0.026
36.925,0.024
36.930,0.027
36.935,0.020
36.940,0.030
36.945,0.033
36.950,0.031
36.955,0.036
36.960,0.031
36.965,0.034
36.970,0.029
36.975,0.031
36.980,0.038
36.985,0.030
36.990,0.036
36.995,0.033
37.000,0.030
37.005,0.034
37.010,0.024
37.015,0.024
37.020,0.019
37.025,0.017
37.030,0.019
37.035,0.009
37.040,0.010
37.045,0.004
37.050,0.000
37.055,-0.001
37.060,-0.011
37.065,-0.010
37.070,-0.013
37.075,-0.014
37.080,-0.018
37.085,-0.033
37.090,-0.028
37.095,-0.031
37.100,-0.034
37.105,-0.029
37.110,-0.034
37.115,-0.031
37.120,-0.033
37.125,-0.035
37.130,-0.032
37.135,-0.037
37.140,-0.031
37.145,-0.034
37.150,-0.036
37.155,-0.028
37.160,-0.028
37.165,-0.021
37.170,-0.024
37.175,-0.021
37.180,-0.014
37.185,-0.022
37.190,-0.017
37.195,-0.018
37.200,-0.018
37.205,-0.009
37.210,-0.014
37.215,-0.010
37.220,-0.012
37.225,-0.014
37.230,-0.013
37.235,-0.018
37.240,-0.007
37.245,-0.006
37.250,-0.007
37.255,-0.003
37.260,-0.009
37.265,-0.003
37.270,-0.005
37.275,-0.005
37.280,0.001
37.285,-0.003
37.290,0.004
37.295,0.003
37.300,0.000
37.305,0.005
37.310,0.004
37.315,0.008
37.320,0.006
37.325,0.007
37.330,0.007
37.335,-0.001
37.340,0.007
37.345,0.005
37.350,0.006
37.355,0.012
37.360,0.007
37.365,0.012
37.370,0.008
37.375,0.007
37.380,0.011
37.385,0.004
37.390,0.010
37.395,0.007
37.400,0.004
37.405,0.008
37.410,0.001
37.415,0.004
37.420,0.006
37.425,0.014
37.430,0.020
37.435,0.008
37.440,0.009
37.445,0.007
37.450,0.010
37.455,0.016
37.460,0.007
37.465,0.006
37.470,0.000
37.475,0.002
37.480,0.010
37.485,0.006
37.490,0.014
37.495,0.012
37.500,0.012
37.505,0.020
37.510,0.011
37.515,0.007
37.520,0.000
37.525,0.004
37.530,0.012
37.535,0.004
37.540,0.012
37.545,0.008
37.550,0.001
37.555,0.006
37.560,0.000
37.565,0.002
37.570,0.003
37.575,0.008
37.580,0.015
37.585,0.005
37.590,0.003
37.595,-0.001
37.600,0.000
37.605,0.010
37.610,0.009
37.615,0.010
37.620,0.000
37.625,-0.002
37.630,0.004
37.635,0.001
37.640,0.011
37.645,0.008
37.650,0.005
37.655,0.013
37.660,0.002
37.665,0.005
37.670,0.014
37.675,0.019
37.680,0.009
37.685,-0.017
37.690,-0.008
37.695,0.004
37.700,0.010
37.705,0.019
37.710,0.018
37.715,0.025
37.720,0.018
37.725,0.012
37.730,0.017
37.735,0.026
37.740,0.047
37.745,0.038
37.750,0.018
37.755,0.012
37.760,0.000
37.765,-0.003
37.770,-0.019
37.775,-0.024
37.780,-0.011
37.785,-0.013
37.790,-0.010
37.795,-0.010
37.800,-0.010
37.805,-0.004
37.810,-0.010
37.815,-0.004
37.820,-0.002
37.825,-0.004
37.830,-0.006
37.835,-0.019
37.840,-0.019
37.845,-0.024
37.850,0.005
37.855,0.101
37.860,0.221
37.865,0.343
37.870,0.385
37.875,0.255
37.880,0.049
37.885,-0.119
37.890,-0.265
37.895,-0.373
37.900,-0.452
37.905,-0.463
37.910,-0.330
37.915,-0.163
37.920,-0.065
37.925,-0.019
37.930,-0.017
37.935,-0.016
37.940,0.018
37.945,0.034
37.950,0.028
37.955,0.031
37.960,0.034
37.965,0.039
37.970,0.034
37.975,0.031
37.980,0.032
37.985,0.031
37.990,0.038
37.995,0.026
38.000,0.022
38.005,0.036
38.010,0.034
38.015,0.038
38.020,0.027
38.025,0.020
38.030,0.032
38.035,0.031
38.040,0.040
38.045,0.043
38.050,0.038
38.055,0.037
38.060,0.034
38.065,0.042
38.070,0.045
38.075,0.049
38.080,0.046
38.085,0.028
38.090,0.036
38.095,0.039
38.100,0.041
38.105,0.046
38.110,0.029
38.115,0.037
38.120,0.049
38.125,0.054
38.130,0.053
38.135,0.033
38.140,0.034
38.145,0.041
38.150,0.037
38.155,0.036
38.160,0.029
38.165,0.020
38.170,0.007
38.175,0.007
38.180,0.015
38.185,0.011
38.190,0.010
38.195,-0.007
38.200,-0.018
38.205,-0.015
38.210,-0.029
38.215,-0.034
38.220,-0.039
38.225,-0.038
38.230,-0.033
38.235,-0.038
38.240,-0.028
38.245,-0.039
38.250,-0.049
38.255,-0.039
38.260,-0.037
38.265,-0.037
38.270,-0.055
38.275,-0.059
38.280,-0.050
38.285,-0.054
38.290,-0.035
38.295,-0.035
38.300,-0.041
38.305,-0.035
38.310,-0.042
38.315,-0.029
38.320,-0.024
38.325,-0.034
38.330,-0.036
38.335,-0.040
38.340,-0.020
38.345,-0.010
38.350,-0.013
38.355,-0.011
38.360,-0.016
38.365,-0.007
38.370,-0.007
38.375,-0.016
38.380,-0.013
38.385,-0.010
38.390,0.001
38.395,0.001
38.400,-0.008
38.405,-0.006
38.410,0.002
38.415,0.010
38.420,0.000
38.425,-0.001
38.430,0.005
38.435,0.000
38.440,0.006
38.445,-0.003
38.450,-0.005
38.455,-0.002
38.460,-0.014
38.465,-0.012
38.470,-0.004
38.475,0.011
38.480,0.016
38.485,0.006
38.490,0.008
38.495,-0.003
38.500,-0.009
38.505,-0.004
38.510,-0.007
38.515,-0.001
38.520,-0.005
38.525,-0.005
38.530,0.006
38.535,0.006
38.540,0.012
38.545,0.009
38.550,0.007
38.555,0.006
38.560,-0.005
38.565,-0.009
38.570,-0.017
38.575,-0.007
38.580,0.006
38.585,0.007
38.590,0.018
38.595,0.006
38.600,0.002
38.605,0.014
38.610,0.006
38.615,0.007
38.620,0.003
38.625,0.003
38.630,0.005
38.635,-0.008
38.640,-0.003
38.645,0.001
38.650,0.002
38.655,0.008
38.660,-0.001
38.665,0.007
38.670,0.004
38.675,-0.002
38.680,0.007
38.685,0.001
38.690,0.006
38.695,0.004
38.700,-0.002
38.705,0.008
38.710,0.004
38.715,0.000
38.720,-0.006
38.725,-0.006
38.730,-0.001
38.735,-0.005
38.740,0.002
38.745,0.003
38.750,0.005
38.755,0.007
38.760,-0.008
38.765,-0.012
38.770,-0.010
38.775,0.000
38.780,0.010
38.785,0.005
38.790,0.006
38.795,-0.010
38.800,-0.020
38.805,-0.006
38.810,-0.001
38.815,0.008
38.820,0.008
38.825,0.009
38.830,0.016
38.835,0.004
38.840,0.011
38.845,0.019
38.850,0.026
38.855,0.031
38.860,0.015
38.865,0.011
38.870,0.006
38.875,0.001
38.880,-0.007
38.885,-0.026
38.890,-0.018
38.895,-0.013
38.900,-0.012
38.905,-0.006
38.910,-0.012
38.915,-0.008
38.920,-0.012
38.925,-0.013
38.930,-0.011
38.935,-0.020
38.940,-0.007
38.945,-0.003
38.950,-0.004
38.955,-0.003
38.960,-0.012
38.965,0.031
38.970,0.123
38.975,0.234
38.980,0.331
38.985,0.329
38.990,0.185
38.995,-0.007
39.000,-0.148
39.005,-0.273
39.010,-0.374
39.015,-0.432
39.020,-0.397
39.025,-0.246
39.030,-0.113
39.035,-0.052
39.040,-0.014
39.045,-0.007
39.050,-0.007
39.055,0.013
39.060,0.023
39.065,0.028
39.070,0.026
39.075,0.029
39.080,0.033
39.085,0.024
39.090,0.030
39.095,0.026
39.100,0.025
39.105,0.032
39.110,0.023
39.115,0.024
39.120,0.023
39.125,0.027
39.130,0.034
39.135,0.029
39.140,0.039
39.145,0.037
39.150,0.032
39.155,0.038
39.160,0.035
39.165,0.037
39.170,0.030
39.175,0.030
39.180,0.037
39.185,0.034
39.190,0.041
39.195,0.039
39.200,0.031
39.205,0.032
39.210,0.033
39.215,0.044
39.220,0.047
39.225,0.051
39.230,0.053
39.235,0.044
39.240,0.046
39.245,0.039
39.250,0.037
39.255,0.042
39.260,0.034
39.265,0.036
39.270,0.034
39.275,0.034
39.280,0.031
39.285,0.016
39.290,0.016
39.295,0.012
39.300,0.009
39.305,0.008
39.310,-0.004
39.315,-0.004
39.320,-0.009
39.325,-0.012
39.330,-0.014
39.335,-0.028
39.340,-0.028
39.345,-0.034
39.350,-0.035
39.355,-0.024
39.360,-0.028
39.365,-0.026
39.370,-0.032
39.375,-0.038
39.380,-0.039
39.385,-0.044
39.390,-0.033
39.395,-0.034
39.400,-0.038
39.405,-0.031
39.410,-0.035
39.415,-0.035
39.420,-0.043
39.425,-0.042
39.430,-0.032
39.435,-0.033
39.440,-0.023
39.445,-0.022
39.450,-0.022
39.455,-0.018
39.460,-0.023
39.465,-0.017
39.470,-0.017
39.475,-0.015
39.480,-0.011
39.485,-0.014
39.490,-0.001
39.495,0.002
39.500,-0.001
39.505,0.001
39.510,-0.004
39.515,-0.001
39.520,-0.001
39.525,0.004
39.530,0.007
39.535,-0.001
39.540,0.007
39.545,0.002
39.550,-0.004
39.555,0.001
39.560,-0.002
39.565,0.002
39.570,-0.003
39.575,-0.002
39.580,0.007
39.585,0.003
39.590,0.008
39.595,0.002
39.600,0.000
39.605,0.005
39.610,-0.002
39.615,0.000
39.620,-0.004
39.625,-0.006
39.630,0.000
39.635,-0.001
39.640,0.007
39.645,0.003
39.650,0.002
39.655,0.009
39.660,0.004
39.665,0.005
39.670,0.000
39.675,0.002
39.680,0.005
39.685,-0.005
39.690,0.005
39.695,0.008
39.700,0.004
39.705,0.006
39.710,0.001
39.715,0.007
39.720,0.004
39.725,0.000
39.730,0.002
39.735,-0.003
39.740,0.006
39.745,0.007
39.750,0.007
39.755,0.012
39.760,0.004
39.765,0.006
39.770,0.003
39.775,0.004
39.780,0.008
39.785,0.003
39.790,0.009
39.795,0.002
39.800,-0.003
39.805,0.006
39.810,0.006
39.815,0.011
39.820,0.007
39.825,0.006
39.830,0.007
39.835,-0.001
39.840,0.004
39.845,0.002
39.850,0.002
39.855,0.008
39.860,0.004
39.865,0.008
39.870,0.005
39.875,0.006
39.880,0.010
39.885,0.003
39.890,0.009
39.895,0.008
39.900,0.005
39.905,0.010
39.910,0.009
39.915,0.012
39.920,-0.001
39.925,-0.004
39.930,0.004
39.935,0.005
39.940,0.019
39.945,0.017
39.950,0.016
39.955,0.024
39.960,0.022
39.965,0.028
39.970,0.032
39.975,0.043
39.980,0.047
39.985,0.028
39.990,0.022
39.995,0.007
40.000,-0.002
40.005,0.001
40.010,-0.007
40.015,-0.003
40.020,-0.006
40.025,-0.009
40.030,-0.007
40.035,-0.013
40.040,-0.005
40.045,-0.008
40.050,-0.009
40.055,-0.005
40.060,-0.011
40.065,-0.008
40.070,-0.010
40.075,-0.008
40.080,-0.010
40.085,-0.013
40.090,0.043
40.095,0.135
40.100,0.237
40.105,0.322
40.110,0.305
40.115,0.157
40.120,-0.023
40.125,-0.152
40.130,-0.241
40.135,-0.303
40.140,-0.346
40.145,-0.312
40.150,-0.200
40.155,-0.103
40.160,-0.058
40.165,-0.037
40.170,-0.029
40.175,-0.021
40.180,-0.009
40.185,-0.006
40.190,0.002
40.195,0.001
40.200,0.001
40.205,0.005
40.210,0.000
40.215,0.008
40.220,0.010
40.225,0.012
40.230,0.015
40.235,0.009
40.240,0.015
40.245,0.011
40.250,0.011
40.255,0.020
40.260,0.017
40.265,0.022
40.270,0.019
40.275,0.020
40.280,0.025
40.285,0.018
40.290,0.024
40.295,0.025
40.300,0.024
40.305,0.029
40.310,0.025
40.315,0.027
40.320,0.024
40.325,0.027
40.330,0.032
40.335,0.026
40.340,0.032
40.345,0.028
40.350,0.027
40.355,0.032
40.360,0.026
40.365,0.032
40.370,0.031
40.375,0.031
40.380,0.033
40.385,0.022
40.390,0.026
40.395,0.022
40.400,0.020
40.405,0.023
40.410,0.016
40.415,0.016
40.420,0.007
40.425,0.003
40.430,0.001
40.435,-0.009
40.440,-0.002
40.445,-0.007
40.450,-0.011
40.455,-0.007
40.460,-0.014
40.465,-0.016
40.470,-0.023
40.475,-0.022
40.480,-0.018
40.485,-0.025
40.490,-0.017
40.495,-0.020
40.500,-0.023
40.505,-0.020
40.510,-0.026
40.515,-0.021
40.520,-0.026
40.525,-0.026
40.530,-0.020
40.535,-0.025
40.540,-0.018
40.545,-0.021
40.550,-0.023
40.555,-0.017
40.560,-0.022
40.565,-0.019
40.570,-0.022
40.575,-0.020
40.580,-0.016
40.585,-0.024
40.590,-0.017
40.595,-0.020
40.600,-0.023
40.605,-0.017
40.610,-0.018
40.615,-0.012
40.620,-0.014
40.625,-0.013
40.630,-0.009
40.635,-0.014
40.640,-0.009
40.645,-0.011
40.650,-0.010
40.655,-0.003
40.660,-0.006
40.665,0.000
40.670,-0.001
40.675,0.001
40.680,0.003
40.685,-0.006
40.690,0.001
40.695,-0.001
40.700,0.000
40.705,0.005
40.710,0.000
40.715,0.005
40.720,0.004
40.725,0.007
40.730,0.010
40.735,0.002
40.740,0.010
40.745,0.008
40.750,0.005
40.755,0.009
40.760,0.005
40.765,0.010
40.770,0.006
40.775,0.006
40.780,0.010
40.785,0.003
40.790,0.011
40.795,0.007
40.800,0.004
40.805,0.012
40.810,0.007
40.815,0.010
40.820,0.007
40.825,0.007
40.830,0.009
40.835,0.003
40.840,0.011
40.845,0.008
40.850,0.005
40.855,0.009
40.860,0.006
40.865,0.010
40.870,0.005
40.875,0.005
40.880,0.008
40.885,0.001
40.890,0.009
40.895,0.008
40.900,0.005
40.905,0.008
40.910,0.004
40.915,0.009
40.920,0.003
40.925,0.003
40.930,0.009
40.935,0.003
40.940,0.010
40.945,0.004
40.950,0.000
40.955,0.008
40.960,0.005
40.965,0.009
40.970,0.005
40.975,0.004
40.980,0.007
40.985,0.002
40.990,0.008
40.995,0.004
41.000,0.002
41.005,0.007
41.010,0.002
41.015,0.005
41.020,0.002
41.025,0.004
41.030,0.009
41.035,0.002
41.040,0.010
41.045,0.005
41.050,-0.005
41.055,-0.003
41.060,0.001
41.065,0.015
41.070,0.018
41.075,0.020
41.080,0.021
41.085,0.014
41.090,0.022
41.095,0.021
41.100,0.028
41.105,0.042
41.110,0.037
41.115,0.028
41.120,0.013
41.125,0.006
41.130,0.003
41.135,-0.008
41.140,-0.004
41.145,-0.008
41.150,-0.007
41.155,-0.003
41.160,-0.008
41.165,-0.004
41.170,-0.010
41.175,-0.012
41.180,-0.008
41.185,-0.014
41.190,-0.009
41.195,-0.012
41.200,-0.012
41.205,-0.006
41.210,-0.016
41.215,-0.005
41.220,0.044
41.225,0.140
41.230,0.249
41.235,0.323
41.240,0.305
41.245,0.139
41.250,-0.039
41.255,-0.161
41.260,-0.247
41.265,-0.295
41.270,-0.346
41.275,-0.301
41.280,-0.189
41.285,-0.111
41.290,-0.057
41.295,-0.045
41.300,-0.036
41.305,-0.022
41.310,-0.016
41.315,-0.002
41.320,-0.004
41.325,-0.001
41.330,0.005
41.335,-0.003
41.340,0.003
41.345,0.002
41.350,0.003
41.355,0.009
41.360,0.005
41.365,0.012
41.370,0.010
41.375,0.012
41.380,0.015
41.385,0.011
41.390,0.022
41.395,0.020
41.400,0.017
41.405,0.023
41.410,0.020
41.415,0.024
41.420,0.019
41.425,0.018
41.430,0.021
41.435,0.015
41.440,0.023
41.445,0.022
41.450,0.021
41.455,0.025
41.460,0.022
41.465,0.028
41.470,0.026
41.475,0.027
41.480,0.031
41.485,0.025
41.490,0.032
41.495,0.028
41.500,0.024
41.505,0.027
41.510,0.022
41.515,0.029
41.520,0.023
41.525,0.019
41.530,0.019
41.535,0.011
41.540,0.017
41.545,0.010
41.550,0.002
41.555,0.003
41.560,-0.002
41.565,0.001
41.570,-0.004
41.575,-0.005
41.580,-0.003
41.585,-0.011
41.590,-0.008
41.595,-0.014
41.600,-0.017
41.605,-0.013
41.610,-0.018
41.615,-0.016
41.620,-0.020
41.625,-0.019
41.630,-0.020
41.635,-0.030
41.640,-0.019
41.645,-0.021
41.650,-0.024
41.655,-0.021
41.660,-0.025
41.665,-0.015
41.670,-0.017
41.675,-0.019
41.680,-0.017
41.685,-0.024
41.690,-0.016
41.695,-0.019
41.700,-0.021
41.705,-0.016
41.710,-0.022
41.715,-0.016
41.720,-0.018
41.725,-0.017
41.730,-0.013
41.735,-0.018
41.740,-0.009
41.745,-0.013
41.750,-0.017
41.755,-0.013
41.760,-0.016
41.765,-0.009
41.770,-0.012
41.775,-0.011
41.780,-0.007
41.785,-0.011
41.790,0.000
41.795,-0.004
41.800,-0.006
41.805,-0.001
41.810,-0.003
41.815,0.003
41.820,0.000
41.825,0.003
41.830,0.006
41.835,-0.002
41.840,0.005
41.845,0.003
41.850,0.001
41.855,0.007
41.860,0.003
41.865,0.009
41.870,0.008
41.875,0.010
41.880,0.011
41.885,0.003
41.890,0.010
41.895,0.007
41.900,0.005
41.905,0.009
41.910,0.005
41.915,0.011
41.920,0.008
41.925,0.010
41.930,0.013
41.935,0.003
41.940,0.011
41.945,0.010
41.950,0.007
41.955,0.009
41.960,0.005
41.965,0.012
41.970,0.009
41.975,0.009
41.980,0.011
41.985,0.004
41.990,0.010
41.995,0.006
42.000,0.003
42.005,0.009
42.010,0.005
42.015,0.009
42.020,0.007
42.025,0.009
42.030,0.009
42.035,0.000
42.040,0.008
42.045,0.006
42.050,0.003
42.055,0.007
42.060,0.003
42.065,0.006
42.070,0.001
42.075,0.003
42.080,0.007
42.085,0.003
42.090,0.010
42.095,0.005
42.100,0.002
42.105,0.006
42.110,0.001
42.115,0.007
42.120,0.003
42.125,0.004
42.130,0.007
42.135,0.002
42.140,0.009
42.145,0.005
42.150,0.003
42.155,0.006
42.160,0.002
42.165,0.009
42.170,0.004
42.175,-0.002
42.180,-0.004
42.185,-0.006
42.190,0.011
42.195,0.014
42.200,0.012
42.205,0.015
42.210,0.014
42.215,0.021
42.220,0.019
42.225,0.026
42.230,0.041
42.235,0.038
42.240,0.033
42.245,0.015
42.250,0.001
42.255,-0.001
42.260,-0.005
42.265,-0.003
42.270,-0.010
42.275,-0.010
42.280,-0.010
42.285,-0.016
42.290,-0.003
42.295,-0.007
42.300,-0.012
42.305,-0.006
42.310,-0.010
42.315,-0.008
42.320,-0.015
42.325,-0.015
42.330,-0.009
42.335,-0.017
42.340,-0.010
42.345,0.023
42.350,0.110
42.355,0.229
42.360,0.321
42.365,0.343
42.370,0.204
42.375,0.016
42.380,-0.118
42.385,-0.230
42.390,-0.290
42.395,-0.353
42.400,-0.340
42.405,-0.227
42.410,-0.132
42.415,-0.071
42.420,-0.053
42.425,-0.037
42.430,-0.022
42.435,-0.020
42.440,-0.005
42.445,-0.008
42.450,-0.009
42.455,0.002
42.460,0.000
42.465,0.004
42.470,0.002
42.475,0.005
42.480,0.008
42.485,0.002
42.490,0.012
42.495,0.009
42.500,0.007
42.505,0.016
42.510,0.015
42.515,0.020
42.520,0.017
42.525,0.018
42.530,0.022
42.535,0.017
42.540,0.026
42.545,0.024
42.550,0.022
42.555,0.026
42.560,0.023
42.565,0.030
42.570,0.027
42.575,0.025
42.580,0.026
42.585,0.022
42.590,0.031
42.595,0.028
42.600,0.026
42.605,0.032
42.610,0.029
42.615,0.032
42.620,0.027
42.625,0.029
42.630,0.033
42.635,0.026
42.640,0.028
42.645,0.020
42.650,0.017
42.655,0.024
42.660,0.019
42.665,0.021
42.670,0.014
42.675,0.012
42.680,0.012
42.685,0.002
42.690,0.004
42.695,-0.002
42.700,-0.007
42.705,-0.006
42.710,-0.013
42.715,-0.009
42.720,-0.016
42.725,-0.017
42.730,-0.016
42.735,-0.025
42.740,-0.017
42.745,-0.019
42.750,-0.024
42.755,-0.024
42.760,-0.030
42.765,-0.025
42.770,-0.025
42.775,-0.024
42.780,-0.023
42.785,-0.029
42.790,-0.020
42.795,-0.022
42.800,-0.023
42.805,-0.018
42.810,-0.022
42.815,-0.018
42.820,-0.021
42.825,-0.019
42.830,-0.016
42.835,-0.021
42.840,-0.012
42.845,-0.013
42.850,-0.014
42.855,-0.010
42.860,-0.015
42.865,-0.011
42.870,-0.012
42.875,-0.010
42.880,-0.007
42.885,-0.013
42.890,-0.006
42.895,-0.008
42.900,-0.008
42.905,-0.004
42.910,-0.008
42.915,-0.004
42.920,-0.007
42.925,-0.004
42.930,0.002
42.935,-0.004
42.940,0.004
42.945,0.001
42.950,-0.001
42.955,0.003
42.960,-0.001
42.965,0.005
42.970,0.003
42.975,0.004
42.980,0.006
42.985,-0.001
42.990,0.010
42.995,0.006
43.000,0.003
43.005,0.007
43.010,0.004
43.015,0.009
43.020,0.003
43.025,0.003
43.030,0.009
43.035,0.003
43.040,0.011
43.045,0.007
43.050,0.005
43.055,0.011
43.060,0.006
43.065,0.011
43.070,0.007
43.075,0.009
43.080,0.012
43.085,0.004
43.090,0.010
43.095,0.007
43.100,0.007
43.105,0.010
43.110,0.004
43.115,0.008
43.120,0.004
43.125,0.006
43.130,0.010
43.135,0.002
43.140,0.011
43.145,0.008
43.150,0.003
43.155,0.006
43.160,0.004
43.165,0.010
43.170,0.007
43.175,0.007
43.180,0.009
43.185,0.004
43.190,0.012
43.195,0.007
43.200,0.006
43.205,0.011
43.210,0.006
43.215,0.008
43.220,0.002
43.225,0.002
43.230,0.004
43.235,-0.002
43.240,0.008
43.245,0.006
43.250,0.004
43.255,0.007
43.260,0.003
43.265,0.008
43.270,0.004
43.275,0.003
43.280,0.006
43.285,0.003
43.290,0.012
43.295,0.007
43.300,0.007
43.305,0.009
43.310,-0.005
43.315,-0.002
43.320,0.001
43.325,0.011
43.330,0.021
43.335,0.011
43.340,0.016
43.345,0.019
43.350,0.019
43.355,0.024
43.360,0.029
43.365,0.042
43.370,0.036
43.375,0.024
43.380,0.014
43.385,-0.001
43.390,0.001
43.395,-0.006
43.400,-0.012
43.405,-0.008
43.410,-0.012
43.415,-0.008
43.420,-0.008
43.425,-0.004
43.430,-0.006
43.435,-0.016
43.440,-0.009
43.445,-0.011
43.450,-0.013
43.455,-0.011
43.460,-0.013
43.465,-0.008
43.470,-0.018
43.475,-0.007
43.480,0.059
43.485,0.161
43.490,0.281
43.495,0.353
43.500,0.303
43.505,0.132
43.510,-0.043
43.515,-0.173
43.520,-0.269
43.525,-0.333
43.530,-0.372
43.535,-0.310
43.540,-0.183
43.545,-0.103
43.550,-0.064
43.555,-0.046
43.560,-0.036
43.565,-0.021
43.570,-0.016
43.575,-0.008
43.580,-0.003
43.585,-0.008
43.590,0.002
43.595,-0.002
43.600,-0.002
43.605,0.006
43.610,0.004
43.615,0.010
43.620,0.008
43.625,0.011
43.630,0.015
43.635,0.009
43.640,0.018
43.645,0.014
43.650,0.013
43.655,0.021
43.660,0.019
43.665,0.025
43.670,0.021
43.675,0.022
43.680,0.027
43.685,0.022
43.690,0.028
43.695,0.024
43.700,0.023
43.705,0.028
43.710,0.023
43.715,0.029
43.720,0.027
43.725,0.026
43.730,0.026
43.735,0.019
43.740,0.025
43.745,0.022
43.750,0.025
43.755,0.038
43.760,0.041
43.765,0.044
43.770,0.038
43.775,0.039
43.780,0.037
43.785,0.028
43.790,0.033
43.795,0.027
43.800,0.021
43.805,0.020
43.810,0.011
43.815,0.012
43.820,0.003
43.825,0.002
43.830,0.004
43.835,-0.005
43.840,-0.002
43.845,-0.011
43.850,-0.017
43.855,-0.016
43.860,-0.023
43.865,-0.020
43.870,-0.026
43.875,-0.027
43.880,-0.024
43.885,-0.033
43.890,-0.028
43.895,-0.031
43.900,-0.033
43.905,-0.029
43.910,-0.032
43.915,-0.029
43.920,-0.033
43.925,-0.030
43.930,-0.027
43.935,-0.032
43.940,-0.022
43.945,-0.024
43.950,-0.025
43.955,-0.021
43.960,-0.025
43.965,-0.018
43.970,-0.019
43.975,-0.015
43.980,-0.012
43.985,-0.018
43.990,-0.012
43.995,-0.014
44.000,-0.014
44.005,-0.010
44.010,-0.014
44.015,-0.008
44.020,-0.012
44.025,-0.009
44.030,-0.006
44.035,-0.013
44.040,-0.005
44.045,-0.006
44.050,-0.006
44.055,-0.004
44.060,-0.008
44.065,-0.003
44.070,-0.008
44.075,-0.006
44.080,-0.003
44.085,-0.007
44.090,0.005
44.095,0.001
44.100,-0.002
44.105,0.003
44.110,-0.001
44.115,0.005
44.120,0.001
44.125,0.002
44.130,0.004
44.135,-0.003
44.140,0.006
44.145,0.002
44.150,-0.002
44.155,0.003
44.160,0.001
44.165,0.007
44.170,0.002
44.175,0.002
44.180,0.005
44.185,0.000
44.190,0.008
44.195,0.002
44.200,0.002
44.205,0.007
44.210,0.004
44.215,0.009
44.220,0.006
44.225,0.008
44.230,0.010
44.235,0.004
44.240,0.009
44.245,0.006
44.250,0.005
44.255,0.008
44.260,0.005
44.265,0.009
44.270,0.005
44.275,0.006
44.280,0.007
44.285,0.001
44.290,0.008
44.295,0.006
44.300,0.005
44.305,0.007
44.310,0.004
44.315,0.008
44.320,0.004
44.325,0.006
44.330,0.008
44.335,0.002
44.340,0.011
44.345,0.005
44.350,0.002
44.355,0.007
44.360,0.005
44.365,0.011
44.370,0.006
44.375,0.005
44.380,0.006
44.385,-0.001
44.390,0.008
44.395,0.007
44.400,0.007
44.405,0.015
44.410,0.013
44.415,0.009
44.420,-0.003
44.425,0.004
44.430,0.017
44.435,0.017
44.440,0.023
44.445,0.018
44.450,0.018
44.455,0.020
44.460,0.017
44.465,0.030
44.470,0.037
44.475,0.041
44.480,0.033
44.485,0.014
44.490,0.014
44.495,0.003
44.500,-0.004
44.505,-0.007
44.510,-0.012
44.515,-0.005
44.520,-0.009
44.525,-0.007
44.530,-0.003
44.535,-0.010
44.540,-0.004
44.545,-0.008
44.550,-0.010
44.555,-0.008
44.560,-0.013
44.565,-0.006
44.570,-0.007
44.575,-0.011
44.580,-0.011
44.585,0.028
44.590,0.140
44.595,0.267
44.600,0.372
44.605,0.394
44.610,0.248
44.615,0.054
44.620,-0.110
44.625,-0.262
44.630,-0.365
44.635,-0.446
44.640,-0.417
44.645,-0.272
44.650,-0.141
44.655,-0.067
44.660,-0.042
44.665,-0.025
44.670,-0.018
44.675,-0.004
44.680,0.006
44.685,0.000
44.690,0.009
44.695,0.011
44.700,0.010
44.705,0.013
44.710,0.014
44.715,0.022
44.720,0.016
44.725,0.020
44.730,0.022
44.735,0.016
44.740,0.027
44.745,0.023
44.750,0.021
44.755,0.024
44.760,0.021
44.765,0.028
44.770,0.025
44.775,0.027
44.780,0.028
44.785,0.023
44.790,0.032
44.795,0.027
44.800,0.025
44.805,0.029
44.810,0.028
44.815,0.034
44.820,0.031
44.825,0.035
44.830,0.037
44.835,0.032
44.840,0.038
44.845,0.034
44.850,0.034
44.855,0.039
44.860,0.037
44.865,0.041
44.870,0.036
44.875,0.038
44.880,0.037
44.885,0.028
44.890,0.036
44.895,0.030
44.900,0.025
44.905,0.024
44.910,0.014
44.915,0.015
44.920,0.008
44.925,0.003
44.930,0.000
44.935,-0.010
44.940,-0.007
44.945,-0.015
44.950,-0.022
44.955,-0.025
44.960,-0.031
44.965,-0.027
44.970,-0.033
44.975,-0.035
44.980,-0.038
44.985,-0.047
44.990,-0.037
44.995,-0.037
45.000,-0.040
45.005,-0.039
45.010,-0.045
45.015,-0.042
45.020,-0.044
45.025,-0.040
45.030,-0.034
45.035,-0.038
45.040,-0.030
45.045,-0.031
45.050,-0.029
45.055,-0.026
45.060,-0.029
45.065,-0.019
45.070,-0.018
45.075,-0.015
45.080,-0.014
45.085,-0.021
45.090,-0.012
45.095,-0.014
45.100,-0.013
45.105,-0.006
45.110,-0.009
45.115,-0.007
45.120,-0.013
45.125,-0.011
45.130,-0.010
45.135,-0.014
45.140,-0.006
45.145,-0.007
45.150,-0.001
45.155,0.006
45.160,0.004
45.165,0.005
45.170,-0.004
45.175,-0.001
45.180,0.004
45.185,0.000
45.190,0.007
45.195,-0.001
45.200,-0.004
45.205,0.001
45.210,0.001
45.215,0.010
45.220,0.006
45.225,0.006
45.230,0.004
45.235,-0.005
45.240,-0.001
45.245,-0.004
45.250,-0.003
45.255,0.001
45.260,0.004
45.265,0.014
45.270,0.009
45.275,0.012
45.280,0.013
45.285,0.004
45.290,0.012
45.295,0.009
45.300,0.005
45.305,0.005
45.310,0.002
45.315,0.010
45.320,0.007
45.325,0.009
45.330,0.009
45.335,0.002
45.340,0.010
45.345,0.007
45.350,0.009
45.355,0.016
45.360,0.010
45.365,0.009
45.370,0.008
45.375,0.015
45.380,0.016
45.385,0.009
45.390,0.013
45.395,0.005
45.400,0.004
45.405,0.007
45.410,0.002
45.415,0.009
45.420,0.007
45.425,0.005
45.430,0.001
45.435,-0.004
45.440,0.010
45.445,0.010
45.450,0.008
45.455,0.009
45.460,0.009
45.465,0.016
45.470,0.008
45.475,0.007
45.480,0.003
45.485,-0.008
45.490,0.008
45.495,0.013
45.500,0.007
45.505,0.002
45.510,-0.002
45.515,0.009
45.520,0.014
45.525,0.012
45.530,0.007
45.535,0.010
45.540,0.023
