'Elapsed time','ECG'
'seconds','mV'
0.000,-0.037
0.005,-0.071
0.010,-0.073
0.015,-0.062
0.020,-0.046
0.025,-0.033
0.030,-0.029
0.035,-0.018
0.040,-0.008
0.045,-0.009
0.050,-0.006
0.055,0.000
0.060,-0.003
0.065,-0.005
0.070,0.000
0.075,0.000
0.080,-0.004
0.085,-0.007
0.090,-0.010
0.095,-0.014
0.100,-0.015
0.105,-0.021
0.110,-0.045
0.115,-0.101
0.120,-0.202
0.125,-0.346
0.130,-0.526
0.135,-0.689
0.140,-0.727
0.145,-0.609
0.150,-0.384
0.155,-0.124
0.160,0.098
0.165,0.256
0.170,0.318
0.175,0.268
0.180,0.196
0.185,0.176
0.190,0.188
0.195,0.198
0.200,0.194
0.205,0.185
0.210,0.184
0.215,0.180
0.220,0.170
0.225,0.161
0.230,0.157
0.235,0.150
0.240,0.143
0.245,0.136
0.250,0.125
0.255,0.118
0.260,0.114
0.265,0.106
0.270,0.096
0.275,0.091
0.280,0.090
0.285,0.085
0.290,0.078
0.295,0.068
0.300,0.062
0.305,0.057
0.310,0.050
0.315,0.044
0.320,0.036
0.325,0.028
0.330,0.022
0.335,0.013
0.340,0.006
0.345,0.000
0.350,-0.012
0.355,-0.019
0.360,-0.027
0.365,-0.037
0.370,-0.044
0.375,-0.050
0.380,-0.056
0.385,-0.067
0.390,-0.076
0.395,-0.075
0.400,-0.074
0.405,-0.076
0.410,-0.080
0.415,-0.080
0.420,-0.076
0.425,-0.075
0.430,-0.074
0.435,-0.067
0.440,-0.061
0.445,-0.053
0.450,-0.038
0.455,-0.027
0.460,-0.019
0.465,-0.004
0.470,0.012
0.475,0.025
0.480,0.036
0.485,0.040
0.490,0.045
0.495,0.054
0.500,0.056
0.505,0.057
0.510,0.059
0.515,0.059
0.520,0.059
0.525,0.060
0.530,0.054
0.535,0.050
0.540,0.050
0.545,0.048
0.550,0.045
0.555,0.043
0.560,0.039
0.565,0.036
0.570,0.036
0.575,0.033
0.580,0.028
0.585,0.026
0.590,0.024
0.595,0.018
0.600,0.020
0.605,0.022
0.610,0.020
0.615,0.019
0.620,0.016
0.625,0.013
0.630,0.013
0.635,0.009
0.640,0.009
0.645,0.012
0.650,0.014
0.655,0.012
0.660,0.011
0.665,0.009
0.670,0.007
0.675,0.005
0.680,0.007
0.685,0.010
0.690,0.008
0.695,0.003
0.700,0.001
0.705,0.003
0.710,0.004
0.715,0.003
0.720,0.002
0.725,0.004
0.730,0.004
0.735,0.000
0.740,-0.002
0.745,-0.001
0.750,-0.004
0.755,-0.006
0.760,-0.004
0.765,-0.002
0.770,-0.002
0.775,-0.005
0.780,-0.007
0.785,-0.008
0.790,-0.010
0.795,-0.011
0.800,-0.011
0.805,-0.011
0.810,-0.011
0.815,-0.011
0.820,-0.012
0.825,-0.013
0.830,-0.014
0.835,-0.017
0.840,-0.016
0.845,-0.016
0.850,-0.014
0.855,-0.015
0.860,-0.017
0.865,-0.015
0.870,-0.015
0.875,-0.016
0.880,-0.015
0.885,-0.014
0.890,-0.016
0.895,-0.019
0.900,-0.019
0.905,-0.017
0.910,-0.017
0.915,-0.017
0.920,-0.015
0.925,-0.016
0.930,-0.019
0.935,-0.018
0.940,-0.015
0.945,-0.014
0.950,-0.016
0.955,-0.016
0.960,-0.014
0.965,-0.019
0.970,-0.021
0.975,-0.014
0.980,-0.011
0.985,-0.015
0.990,-0.020
0.995,-0.018
1.000,-0.013
1.005,-0.012
1.010,-0.014
1.015,-0.017
1.020,-0.015
1.025,-0.013
1.030,-0.013
1.035,-0.012
1.040,-0.014
1.045,-0.017
1.050,-0.014
1.055,-0.012
1.060,-0.016
1.065,-0.016
1.070,-0.012
1.075,-0.010
1.080,-0.010
1.085,-0.010
1.090,-0.009
1.095,-0.011
1.100,-0.013
1.105,-0.011
1.110,-0.009
1.115,-0.009
1.120,-0.008
1.125,-0.010
1.130,-0.009
1.135,-0.009
1.140,-0.011
1.145,-0.006
1.150,-0.004
1.155,-0.006
1.160,-0.009
1.165,-0.007
1.170,-0.004
1.175,-0.006
1.180,-0.009
1.185,-0.011
1.190,-0.006
1.195,0.002
1.200,0.001
1.205,-0.003
1.210,-0.003
1.215,-0.004
1.220,-0.009
1.225,-0.013
1.230,-0.017
1.235,-0.018
1.240,-0.018
1.245,-0.026
1.250,-0.039
1.255,-0.047
1.260,-0.045
1.265,-0.036
1.270,-0.032
1.275,-0.033
1.280,-0.032
1.285,-0.026
1.290,-0.018
1.295,-0.007
1.300,0.004
1.305,0.013
1.310,0.022
1.315,0.027
1.320,0.026
1.325,0.028
1.330,0.030
1.335,0.032
1.340,0.031
1.345,0.027
1.350,0.025
1.355,0.023
1.360,0.016
1.365,0.008
1.370,0.004
1.375,0.003
1.380,-0.008
1.385,-0.052
1.390,-0.142
1.395,-0.281
1.400,-0.468
1.405,-0.666
1.410,-0.762
1.415,-0.699
1.420,-0.494
1.425,-0.214
1.430,0.040
1.435,0.239
1.440,0.342
1.445,0.315
1.450,0.237
1.455,0.201
1.460,0.208
1.465,0.224
1.470,0.227
1.475,0.214
1.480,0.209
1.485,0.205
1.490,0.194
1.495,0.186
1.500,0.177
1.505,0.167
1.510,0.160
1.515,0.155
1.520,0.146
1.525,0.133
1.530,0.130
1.535,0.124
1.540,0.113
1.545,0.105
1.550,0.096
1.555,0.092
1.560,0.087
1.565,0.079
1.570,0.067
1.575,0.057
1.580,0.055
1.585,0.054
1.590,0.047
1.595,0.036
1.600,0.027
1.605,0.018
1.610,0.007
1.615,0.000
1.620,-0.008
1.625,-0.017
1.630,-0.025
1.635,-0.035
1.640,-0.042
1.645,-0.051
1.650,-0.060
1.655,-0.066
1.660,-0.073
1.665,-0.080
1.670,-0.085
1.675,-0.087
1.680,-0.091
1.685,-0.092
1.690,-0.088
1.695,-0.086
1.700,-0.084
1.705,-0.076
1.710,-0.067
1.715,-0.059
1.720,-0.049
1.725,-0.041
1.730,-0.026
1.735,-0.007
1.740,0.004
1.745,0.015
1.750,0.025
1.755,0.033
1.760,0.043
1.765,0.051
1.770,0.056
1.775,0.057
1.780,0.057
1.785,0.057
1.790,0.056
1.795,0.056
1.800,0.052
1.805,0.047
1.810,0.047
1.815,0.047
1.820,0.045
1.825,0.042
1.830,0.040
1.835,0.035
1.840,0.031
1.845,0.028
1.850,0.025
1.855,0.024
1.860,0.023
1.865,0.019
1.870,0.018
1.875,0.019
1.880,0.017
1.885,0.015
1.890,0.016
1.895,0.015
1.900,0.014
1.905,0.015
1.910,0.013
1.915,0.013
1.920,0.013
1.925,0.009
1.930,0.006
1.935,0.005
1.940,0.006
1.945,0.009
1.950,0.007
1.955,0.005
1.960,0.008
1.965,0.006
1.970,0.003
1.975,0.002
1.980,0.000
1.985,-0.001
1.990,-0.001
1.995,0.001
2.000,0.003
2.005,0.003
2.010,0.000
2.015,-0.001
2.020,-0.003
2.025,-0.005
2.030,-0.005
2.035,-0.003
2.040,-0.004
2.045,-0.007
2.050,-0.009
2.055,-0.012
2.060,-0.016
2.065,-0.017
2.070,-0.013
2.075,-0.011
2.080,-0.012
2.085,-0.014
2.090,-0.012
2.095,-0.011
2.100,-0.013
2.105,-0.015
2.110,-0.015
2.115,-0.016
2.120,-0.017
2.125,-0.014
2.130,-0.012
2.135,-0.017
2.140,-0.019
2.145,-0.018
2.150,-0.018
2.155,-0.018
2.160,-0.017
2.165,-0.017
2.170,-0.019
2.175,-0.023
2.180,-0.022
2.185,-0.019
2.190,-0.017
2.195,-0.017
2.200,-0.016
2.205,-0.015
2.210,-0.018
2.215,-0.020
2.220,-0.018
2.225,-0.016
2.230,-0.017
2.235,-0.019
2.240,-0.020
2.245,-0.018
2.250,-0.015
2.255,-0.014
2.260,-0.015
2.265,-0.014
2.270,-0.015
2.275,-0.019
2.280,-0.020
2.285,-0.019
2.290,-0.016
2.295,-0.015
2.300,-0.015
2.305,-0.015
2.310,-0.014
2.315,-0.014
2.320,-0.015
2.325,-0.012
2.330,-0.011
2.335,-0.012
2.340,-0.012
2.345,-0.013
2.350,-0.011
2.355,-0.010
2.360,-0.008
2.365,-0.009
2.370,-0.011
2.375,-0.012
2.380,-0.012
2.385,-0.010
2.390,-0.010
2.395,-0.011
2.400,-0.012
2.405,-0.010
2.410,-0.005
2.415,-0.005
2.420,-0.006
2.425,-0.007
2.430,-0.006
2.435,-0.005
2.440,-0.006
2.445,-0.006
2.450,-0.006
2.455,-0.006
2.460,-0.007
2.465,-0.009
2.470,-0.007
2.475,-0.004
2.480,-0.003
2.485,-0.003
2.490,-0.008
2.495,-0.012
2.500,-0.010
2.505,-0.010
2.510,-0.014
2.515,-0.024
2.520,-0.038
2.525,-0.041
2.530,-0.033
2.535,-0.028
2.540,-0.031
2.545,-0.032
2.550,-0.028
2.555,-0.022
2.560,-0.015
2.565,-0.004
2.570,0.008
2.575,0.017
2.580,0.023
2.585,0.025
2.590,0.025
2.595,0.025
2.600,0.024
2.605,0.028
2.610,0.030
2.615,0.024
2.620,0.019
2.625,0.016
2.630,0.012
2.635,0.010
2.640,0.008
2.645,0.000
2.650,-0.025
2.655,-0.085
2.660,-0.192
2.665,-0.341
2.670,-0.516
2.675,-0.661
2.680,-0.690
2.685,-0.572
2.690,-0.350
2.695,-0.097
2.700,0.127
2.705,0.281
2.710,0.330
2.715,0.277
2.720,0.204
2.725,0.184
2.730,0.195
2.735,0.203
2.740,0.199
2.745,0.191
2.750,0.186
2.755,0.178
2.760,0.166
2.765,0.164
2.770,0.163
2.775,0.153
2.780,0.147
2.785,0.140
2.790,0.130
2.795,0.122
2.800,0.114
2.805,0.108
2.810,0.101
2.815,0.094
2.820,0.089
2.825,0.081
2.830,0.073
2.835,0.067
2.840,0.063
2.845,0.058
2.850,0.049
2.855,0.042
2.860,0.036
2.865,0.029
2.870,0.022
2.875,0.013
2.880,0.003
2.885,-0.006
2.890,-0.010
2.895,-0.015
2.900,-0.023
2.905,-0.035
2.910,-0.045
2.915,-0.050
2.920,-0.057
2.925,-0.065
2.930,-0.070
2.935,-0.071
2.940,-0.072
2.945,-0.076
2.950,-0.076
2.955,-0.074
2.960,-0.072
2.965,-0.071
2.970,-0.069
2.975,-0.065
2.980,-0.057
2.985,-0.045
2.990,-0.030
2.995,-0.016
3.000,-0.006
3.005,0.003
3.010,0.013
3.015,0.025
3.020,0.038
3.025,0.046
3.030,0.051
3.035,0.054
3.040,0.055
3.045,0.058
3.050,0.061
3.055,0.059
3.060,0.056
3.065,0.053
3.070,0.053
3.075,0.054
3.080,0.049
3.085,0.045
3.090,0.043
3.095,0.040
3.100,0.037
3.105,0.036
3.110,0.034
3.115,0.031
3.120,0.025
3.125,0.021
3.130,0.021
3.135,0.019
3.140,0.014
3.145,0.015
3.150,0.017
3.155,0.016
3.160,0.016
3.165,0.013
3.170,0.008
3.175,0.007
3.180,0.006
3.185,0.006
3.190,0.006
3.195,0.005
3.200,0.004
3.205,0.003
3.210,0.002
3.215,-0.001
3.220,-0.002
3.225,0.001
3.230,0.001
3.235,0.001
3.240,0.002
3.245,0.002
3.250,0.001
3.255,-0.002
3.260,-0.004
3.265,0.000
3.270,0.002
3.275,0.000
3.280,-0.003
3.285,-0.006
3.290,-0.007
3.295,-0.007
3.300,-0.009
3.305,-0.008
3.310,-0.005
3.315,-0.006
3.320,-0.008
3.325,-0.008
3.330,-0.010
3.335,-0.011
3.340,-0.014
3.345,-0.014
3.350,-0.012
3.355,-0.014
3.360,-0.016
3.365,-0.014
3.370,-0.013
3.375,-0.014
3.380,-0.016
3.385,-0.017
3.390,-0.016
3.395,-0.019
3.400,-0.021
3.405,-0.019
3.410,-0.017
3.415,-0.015
3.420,-0.013
3.425,-0.014
3.430,-0.016
3.435,-0.015
3.440,-0.016
3.445,-0.018
3.450,-0.019
3.455,-0.017
3.460,-0.016
3.465,-0.017
3.470,-0.019
3.475,-0.019
3.480,-0.017
3.485,-0.017
3.490,-0.018
3.495,-0.017
3.500,-0.016
3.505,-0.019
3.510,-0.021
3.515,-0.020
3.520,-0.018
3.525,-0.015
3.530,-0.016
3.535,-0.018
3.540,-0.019
3.545,-0.018
3.550,-0.014
3.555,-0.010
3.560,-0.011
3.565,-0.014
3.570,-0.017
3.575,-0.015
3.580,-0.013
3.585,-0.012
3.590,-0.011
3.595,-0.012
3.600,-0.013
3.605,-0.011
3.610,-0.012
3.615,-0.014
3.620,-0.015
3.625,-0.015
3.630,-0.012
3.635,-0.009
3.640,-0.009
3.645,-0.009
3.650,-0.009
3.655,-0.013
3.660,-0.014
3.665,-0.011
3.670,-0.010
3.675,-0.009
3.680,-0.008
3.685,-0.008
3.690,-0.006
3.695,-0.005
3.700,-0.005
3.705,-0.007
3.710,-0.008
3.715,-0.007
3.720,-0.006
3.725,-0.006
3.730,-0.006
3.735,-0.005
3.740,-0.004
3.745,-0.003
3.750,-0.007
3.755,-0.011
3.760,-0.013
3.765,-0.015
3.770,-0.016
3.775,-0.019
3.780,-0.025
3.785,-0.033
3.790,-0.042
3.795,-0.045
3.800,-0.041
3.805,-0.035
3.810,-0.029
3.815,-0.030
3.820,-0.030
3.825,-0.023
3.830,-0.010
3.835,0.005
3.840,0.014
3.845,0.018
3.850,0.025
3.855,0.029
3.860,0.028
3.865,0.025
3.870,0.028
3.875,0.029
3.880,0.028
3.885,0.027
3.890,0.021
3.895,0.016
3.900,0.010
3.905,0.005
3.910,0.005
3.915,-0.004
3.920,-0.036
3.925,-0.106
3.930,-0.223
3.935,-0.384
3.940,-0.575
3.945,-0.714
3.950,-0.713
3.955,-0.558
3.960,-0.307
3.965,-0.046
3.970,0.170
3.975,0.310
3.980,0.334
3.985,0.258
3.990,0.197
3.995,0.197
4.000,0.213
4.005,0.220
4.010,0.210
4.015,0.201
4.020,0.199
4.025,0.190
4.030,0.177
4.035,0.172
4.040,0.168
4.045,0.159
4.050,0.152
4.055,0.145
4.060,0.134
4.065,0.127
4.070,0.122
4.075,0.112
4.080,0.107
4.085,0.102
4.090,0.095
4.095,0.087
4.100,0.077
4.105,0.068
4.110,0.060
4.115,0.057
4.120,0.054
4.125,0.047
4.130,0.037
4.135,0.028
4.140,0.020
4.145,0.014
4.150,0.006
4.155,-0.002
4.160,-0.011
4.165,-0.021
4.170,-0.030
4.175,-0.038
4.180,-0.048
4.185,-0.056
4.190,-0.060
4.195,-0.065
4.200,-0.071
4.205,-0.078
4.210,-0.081
4.215,-0.084
4.220,-0.084
4.225,-0.084
4.230,-0.083
4.235,-0.080
4.240,-0.076
4.245,-0.067
4.250,-0.057
4.255,-0.047
4.260,-0.037
4.265,-0.026
4.270,-0.014
4.275,-0.002
4.280,0.010
4.285,0.021
4.290,0.033
4.295,0.041
4.300,0.045
4.305,0.049
4.310,0.051
4.315,0.052
4.320,0.054
4.325,0.055
4.330,0.053
4.335,0.052
4.340,0.050
4.345,0.048
4.350,0.046
4.355,0.040
4.360,0.035
4.365,0.037
4.370,0.037
4.375,0.033
4.380,0.030
4.385,0.026
4.390,0.025
4.395,0.023
4.400,0.019
4.405,0.018
4.410,0.016
4.415,0.013
4.420,0.013
4.425,0.014
4.430,0.013
4.435,0.011
4.440,0.009
4.445,0.011
4.450,0.011
4.455,0.008
4.460,0.008
4.465,0.006
4.470,0.005
4.475,0.005
4.480,0.001
4.485,0.004
4.490,0.009
4.495,0.007
4.500,0.005
4.505,0.003
4.510,0.003
4.515,0.006
4.520,0.004
4.525,0.001
4.530,-0.002
4.535,-0.004
4.540,-0.003
4.545,-0.002
4.550,0.000
4.555,-0.005
4.560,-0.006
4.565,-0.002
4.570,-0.003
4.575,-0.004
4.580,-0.005
4.585,-0.009
4.590,-0.008
4.595,-0.007
4.600,-0.009
4.605,-0.012
4.610,-0.014
4.615,-0.013
4.620,-0.012
4.625,-0.014
4.630,-0.015
4.635,-0.013
4.640,-0.011
4.645,-0.012
4.650,-0.015
4.655,-0.017
4.660,-0.015
4.665,-0.014
4.670,-0.013
4.675,-0.014
4.680,-0.019
4.685,-0.020
4.690,-0.020
4.695,-0.019
4.700,-0.018
4.705,-0.020
4.710,-0.019
4.715,-0.019
4.720,-0.020
4.725,-0.018
4.730,-0.017
4.735,-0.018
4.740,-0.019
4.745,-0.021
4.750,-0.018
4.755,-0.013
4.760,-0.015
4.765,-0.017
4.770,-0.018
4.775,-0.019
4.780,-0.018
4.785,-0.015
4.790,-0.014
4.795,-0.018
4.800,-0.020
4.805,-0.016
4.810,-0.014
4.815,-0.016
4.820,-0.017
4.825,-0.016
4.830,-0.014
4.835,-0.013
4.840,-0.016
4.845,-0.017
4.850,-0.015
4.855,-0.014
4.860,-0.014
4.865,-0.013
4.870,-0.014
4.875,-0.014
4.880,-0.010
4.885,-0.009
4.890,-0.012
4.895,-0.013
4.900,-0.013
4.905,-0.012
4.910,-0.010
4.915,-0.011
4.920,-0.010
4.925,-0.008
4.930,-0.010
4.935,-0.011
4.940,-0.007
4.945,-0.006
4.950,-0.009
4.955,-0.011
4.960,-0.011
4.965,-0.006
4.970,-0.005
4.975,-0.008
4.980,-0.005
4.985,-0.006
4.990,-0.004
4.995,-0.001
5.000,-0.004
5.005,-0.005
5.010,-0.005
5.015,-0.007
5.020,-0.007
5.025,-0.005
5.030,-0.003
5.035,-0.002
5.040,-0.002
5.045,-0.002
5.050,-0.002
5.055,-0.003
5.060,-0.002
5.065,-0.003
5.070,-0.002
5.075,-0.001
5.080,0.000
5.085,0.004
5.090,-0.001
5.095,-0.005
5.100,-0.002
5.105,0.001
5.110,0.000
5.115,-0.007
5.120,-0.013
5.125,-0.013
5.130,-0.009
5.135,-0.010
5.140,-0.022
5.145,-0.036
5.150,-0.040
5.155,-0.035
5.160,-0.032
5.165,-0.034
5.170,-0.033
5.175,-0.026
5.180,-0.017
5.185,-0.009
5.190,0.001
5.195,0.010
5.200,0.015
5.205,0.022
5.210,0.026
5.215,0.029
5.220,0.028
5.225,0.026
5.230,0.032
5.235,0.034
5.240,0.026
5.245,0.021
5.250,0.018
5.255,0.015
5.260,0.010
5.265,0.008
5.270,0.004
5.275,-0.016
5.280,-0.075
5.285,-0.177
5.290,-0.321
5.295,-0.499
5.300,-0.671
5.305,-0.728
5.310,-0.623
5.315,-0.405
5.320,-0.143
5.325,0.092
5.330,0.265
5.335,0.343
5.340,0.303
5.345,0.225
5.350,0.197
5.355,0.204
5.360,0.210
5.365,0.208
5.370,0.200
5.375,0.198
5.380,0.190
5.385,0.179
5.390,0.177
5.395,0.173
5.400,0.161
5.405,0.149
5.410,0.143
5.415,0.136
5.420,0.126
5.425,0.120
5.430,0.114
5.435,0.106
5.440,0.101
5.445,0.096
5.450,0.086
5.455,0.078
5.460,0.072
5.465,0.068
5.470,0.060
5.475,0.051
5.480,0.045
5.485,0.038
5.490,0.028
5.495,0.019
5.500,0.015
5.505,0.008
5.510,0.001
5.515,-0.009
5.520,-0.020
5.525,-0.024
5.530,-0.033
5.535,-0.042
5.540,-0.050
5.545,-0.062
5.550,-0.069
5.555,-0.071
5.560,-0.075
5.565,-0.077
5.570,-0.079
5.575,-0.081
5.580,-0.080
5.585,-0.079
5.590,-0.076
5.595,-0.074
5.600,-0.070
5.605,-0.061
5.610,-0.050
5.615,-0.038
5.620,-0.026
5.625,-0.015
5.630,0.002
5.635,0.016
5.640,0.024
5.645,0.034
5.650,0.041
5.655,0.046
5.660,0.052
5.665,0.054
5.670,0.054
5.675,0.053
5.680,0.056
5.685,0.060
5.690,0.056
5.695,0.052
5.700,0.051
5.705,0.049
5.710,0.046
5.715,0.045
5.720,0.042
5.725,0.037
5.730,0.033
5.735,0.030
5.740,0.031
5.745,0.030
5.750,0.025
5.755,0.022
5.760,0.021
5.765,0.020
5.770,0.019
5.775,0.014
5.780,0.012
5.785,0.011
5.790,0.011
5.795,0.009
5.800,0.004
5.805,0.007
5.810,0.009
5.815,0.006
5.820,0.006
5.825,0.005
5.830,0.003
5.835,0.002
5.840,0.002
5.845,0.000
5.850,-0.002
5.855,0.000
5.860,0.002
5.865,0.003
5.870,0.003
5.875,0.000
5.880,0.001
5.885,0.000
5.890,-0.002
5.895,-0.002
5.900,0.000
5.905,-0.003
5.910,-0.006
5.915,-0.006
5.920,-0.004
5.925,-0.002
5.930,-0.003
5.935,-0.009
5.940,-0.009
5.945,-0.007
5.950,-0.007
5.955,-0.009
5.960,-0.011
5.965,-0.013
5.970,-0.015
5.975,-0.012
5.980,-0.008
5.985,-0.009
5.990,-0.012
5.995,-0.014
6.000,-0.013
6.005,-0.012
6.010,-0.014
6.015,-0.017
6.020,-0.016
6.025,-0.014
6.030,-0.013
6.035,-0.016
6.040,-0.020
6.045,-0.018
6.050,-0.016
6.055,-0.014
6.060,-0.014
6.065,-0.014
6.070,-0.013
6.075,-0.014
6.080,-0.014
6.085,-0.019
6.090,-0.022
6.095,-0.017
6.100,-0.013
6.105,-0.013
6.110,-0.015
6.115,-0.020
6.120,-0.019
6.125,-0.018
6.130,-0.020
6.135,-0.017
6.140,-0.015
6.145,-0.016
6.150,-0.017
6.155,-0.014
6.160,-0.014
6.165,-0.017
6.170,-0.016
6.175,-0.016
6.180,-0.016
6.185,-0.014
6.190,-0.014
6.195,-0.014
6.200,-0.014
6.205,-0.017
6.210,-0.018
6.215,-0.016
6.220,-0.014
6.225,-0.012
6.230,-0.011
6.235,-0.012
6.240,-0.012
6.245,-0.011
6.250,-0.013
6.255,-0.012
6.260,-0.009
6.265,-0.011
6.270,-0.010
6.275,-0.010
6.280,-0.010
6.285,-0.007
6.290,-0.011
6.295,-0.011
6.300,-0.012
6.305,-0.012
6.310,-0.010
6.315,-0.010
6.320,-0.008
6.325,-0.007
6.330,-0.005
6.335,-0.003
6.340,-0.008
6.345,-0.008
6.350,-0.006
6.355,-0.006
6.360,-0.004
6.365,-0.005
6.370,-0.008
6.375,-0.006
6.380,-0.003
6.385,-0.003
6.390,-0.003
6.395,-0.003
6.400,-0.002
6.405,-0.002
6.410,-0.006
6.415,-0.009
6.420,-0.008
6.425,-0.004
6.430,0.001
6.435,0.001
6.440,0.000
6.445,0.000
6.450,-0.001
6.455,-0.001
6.460,-0.002
6.465,-0.005
6.470,-0.009
6.475,-0.010
6.480,-0.012
6.485,-0.015
6.490,-0.019
6.495,-0.029
6.500,-0.036
6.505,-0.038
6.510,-0.037
6.515,-0.030
6.520,-0.027
6.525,-0.029
6.530,-0.028
6.535,-0.020
6.540,-0.005
6.545,0.006
6.550,0.014
6.555,0.020
6.560,0.026
6.565,0.028
6.570,0.028
6.575,0.031
6.580,0.029
6.585,0.027
6.590,0.028
6.595,0.027
6.600,0.023
6.605,0.016
6.610,0.007
6.615,0.006
6.620,0.009
6.625,-0.001
6.630,-0.031
6.635,-0.100
6.640,-0.213
6.645,-0.360
6.650,-0.539
6.655,-0.685
6.660,-0.700
6.665,-0.561
6.670,-0.322
6.675,-0.065
6.680,0.145
6.685,0.288
6.690,0.326
6.695,0.262
6.700,0.199
6.705,0.192
6.710,0.200
6.715,0.204
6.720,0.200
6.725,0.194
6.730,0.195
6.735,0.188
6.740,0.178
6.745,0.174
6.750,0.168
6.755,0.154
6.760,0.147
6.765,0.139
6.770,0.129
6.775,0.127
6.780,0.121
6.785,0.109
6.790,0.097
6.795,0.092
6.800,0.091
6.805,0.086
6.810,0.080
6.815,0.072
6.820,0.064
6.825,0.055
6.830,0.047
6.835,0.043
6.840,0.035
6.845,0.026
6.850,0.018
6.855,0.010
6.860,0.002
6.865,-0.004
6.870,-0.013
6.875,-0.025
6.880,-0.035
6.885,-0.045
6.890,-0.051
6.895,-0.053
6.900,-0.061
6.905,-0.071
6.910,-0.076
6.915,-0.083
6.920,-0.082
6.925,-0.076
6.930,-0.080
6.935,-0.085
6.940,-0.086
6.945,-0.084
6.950,-0.078
6.955,-0.072
6.960,-0.064
6.965,-0.053
6.970,-0.043
6.975,-0.030
6.980,-0.019
6.985,-0.009
6.990,0.003
6.995,0.016
7.000,0.032
7.005,0.040
7.010,0.042
7.015,0.048
7.020,0.051
7.025,0.055
7.030,0.059
7.035,0.058
7.040,0.058
7.045,0.057
7.050,0.052
7.055,0.046
7.060,0.046
7.065,0.045
7.070,0.042
7.075,0.038
7.080,0.035
7.085,0.033
7.090,0.031
7.095,0.024
7.100,0.020
7.105,0.021
7.110,0.021
7.115,0.017
7.120,0.016
7.125,0.017
7.130,0.016
7.135,0.017
7.140,0.017
7.145,0.015
7.150,0.014
7.155,0.013
7.160,0.010
7.165,0.008
7.170,0.010
7.175,0.009
7.180,0.008
7.185,0.010
7.190,0.007
7.195,0.006
7.200,0.008
7.205,0.006
7.210,0.007
7.215,0.006
7.220,0.004
7.225,0.007
7.230,0.002
7.235,-0.003
7.240,0.003
7.245,0.007
7.250,0.008
7.255,0.007
7.260,0.002
7.265,0.003
7.270,0.003
7.275,-0.001
7.280,-0.002
7.285,-0.003
7.290,-0.005
7.295,-0.005
7.300,-0.005
7.305,-0.006
7.310,-0.007
7.315,-0.007
7.320,-0.007
7.325,-0.008
7.330,-0.009
7.335,-0.013
7.340,-0.013
7.345,-0.012
7.350,-0.013
7.355,-0.013
7.360,-0.014
7.365,-0.013
7.370,-0.011
7.375,-0.014
7.380,-0.016
7.385,-0.014
7.390,-0.015
7.395,-0.016
7.400,-0.019
7.405,-0.021
7.410,-0.017
7.415,-0.015
7.420,-0.016
7.425,-0.015
7.430,-0.018
7.435,-0.019
7.440,-0.018
7.445,-0.017
7.450,-0.016
7.455,-0.017
7.460,-0.019
7.465,-0.018
7.470,-0.017
7.475,-0.017
7.480,-0.017
7.485,-0.016
7.490,-0.015
7.495,-0.018
7.500,-0.019
7.505,-0.019
7.510,-0.017
7.515,-0.012
7.520,-0.011
7.525,-0.012
7.530,-0.016
7.535,-0.015
7.540,-0.010
7.545,-0.012
7.550,-0.015
7.555,-0.013
7.560,-0.013
7.565,-0.015
7.570,-0.014
7.575,-0.013
7.580,-0.013
7.585,-0.011
7.590,-0.011
7.595,-0.012
7.600,-0.013
7.605,-0.013
7.610,-0.011
7.615,-0.011
7.620,-0.011
7.625,-0.009
7.630,-0.008
7.635,-0.010
7.640,-0.013
7.645,-0.013
7.650,-0.012
7.655,-0.010
7.660,-0.007
7.665,-0.007
7.670,-0.010
7.675,-0.007
7.680,-0.004
7.685,-0.008
7.690,-0.009
7.695,-0.008
7.700,-0.007
7.705,-0.004
7.710,-0.005
7.715,-0.009
7.720,-0.009
7.725,-0.008
7.730,-0.005
7.735,-0.001
7.740,-0.003
7.745,-0.006
7.750,-0.005
7.755,-0.005
7.760,-0.003
7.765,-0.002
7.770,-0.004
7.775,-0.003
7.780,-0.004
7.785,-0.006
7.790,-0.003
7.795,-0.001
7.800,-0.002
7.805,-0.005
7.810,-0.005
7.815,-0.004
7.820,-0.004
7.825,-0.001
7.830,0.001
7.835,0.003
7.840,0.003
7.845,-0.004
7.850,-0.009
7.855,-0.010
7.860,-0.014
7.865,-0.017
7.870,-0.023
7.875,-0.035
7.880,-0.043
7.885,-0.041
7.890,-0.039
7.895,-0.036
7.900,-0.031
7.905,-0.026
7.910,-0.023
7.915,-0.018
7.920,-0.008
7.925,0.006
7.930,0.016
7.935,0.022
7.940,0.025
7.945,0.028
7.950,0.031
7.955,0.031
7.960,0.033
7.965,0.034
7.970,0.029
7.975,0.025
7.980,0.021
7.985,0.015
7.990,0.009
7.995,0.005
8.000,0.004
8.005,-0.005
8.010,-0.040
8.015,-0.113
8.020,-0.232
8.025,-0.400
8.030,-0.596
8.035,-0.734
8.040,-0.723
8.045,-0.562
8.050,-0.308
8.055,-0.045
8.060,0.176
8.065,0.316
8.070,0.336
8.075,0.265
8.080,0.205
8.085,0.200
8.090,0.212
8.095,0.219
8.100,0.213
8.105,0.203
8.110,0.200
8.115,0.190
8.120,0.182
8.125,0.181
8.130,0.171
8.135,0.159
8.140,0.155
8.145,0.148
8.150,0.135
8.155,0.127
8.160,0.125
8.165,0.118
8.170,0.107
8.175,0.099
8.180,0.092
8.185,0.083
8.190,0.077
8.195,0.072
8.200,0.065
8.205,0.059
8.210,0.049
8.215,0.042
8.220,0.040
8.225,0.033
8.230,0.022
8.235,0.011
8.240,0.001
8.245,-0.005
8.250,-0.014
8.255,-0.025
8.260,-0.033
8.265,-0.038
8.270,-0.049
8.275,-0.059
8.280,-0.064
8.285,-0.071
8.290,-0.076
8.295,-0.078
8.300,-0.079
8.305,-0.078
8.310,-0.080
8.315,-0.085
8.320,-0.086
8.325,-0.082
8.330,-0.076
8.335,-0.065
8.340,-0.054
8.345,-0.047
8.350,-0.035
8.355,-0.023
8.360,-0.013
8.365,0.001
8.370,0.012
8.375,0.023
8.380,0.034
8.385,0.043
8.390,0.050
8.395,0.052
8.400,0.056
8.405,0.060
8.410,0.056
8.415,0.053
8.420,0.054
8.425,0.057
8.430,0.058
8.435,0.053
8.440,0.050
8.445,0.047
8.450,0.042
8.455,0.039
8.460,0.036
8.465,0.032
8.470,0.030
8.475,0.028
8.480,0.029
8.485,0.027
8.490,0.022
8.495,0.020
8.500,0.019
8.505,0.013
8.510,0.011
8.515,0.012
8.520,0.013
8.525,0.012
8.530,0.010
8.535,0.009
8.540,0.007
8.545,0.007
8.550,0.006
8.555,0.008
8.560,0.011
8.565,0.009
8.570,0.007
8.575,0.005
8.580,0.001
8.585,0.000
8.590,-0.001
8.595,-0.001
8.600,0.002
8.605,0.002
8.610,0.001
8.615,0.000
8.620,0.001
8.625,0.002
8.630,-0.002
8.635,-0.003
8.640,0.000
8.645,-0.002
8.650,-0.007
8.655,-0.010
8.660,-0.007
8.665,-0.004
8.670,-0.005
8.675,-0.007
8.680,-0.009
8.685,-0.010
8.690,-0.009
8.695,-0.013
8.700,-0.013
8.705,-0.009
8.710,-0.010
8.715,-0.010
8.720,-0.012
8.725,-0.014
8.730,-0.010
8.735,-0.012
8.740,-0.017
8.745,-0.018
8.750,-0.017
8.755,-0.014
8.760,-0.013
8.765,-0.016
8.770,-0.016
8.775,-0.015
8.780,-0.017
8.785,-0.017
8.790,-0.018
8.795,-0.017
8.800,-0.016
8.805,-0.017
8.810,-0.015
8.815,-0.015
8.820,-0.017
8.825,-0.017
8.830,-0.018
8.835,-0.019
8.840,-0.017
8.845,-0.017
8.850,-0.017
8.855,-0.015
8.860,-0.015
8.865,-0.016
8.870,-0.015
8.875,-0.012
8.880,-0.013
8.885,-0.018
8.890,-0.020
8.895,-0.017
8.900,-0.012
8.905,-0.007
8.910,-0.010
8.915,-0.014
8.920,-0.017
8.925,-0.018
8.930,-0.017
8.935,-0.015
8.940,-0.015
8.945,-0.014
8.950,-0.012
8.955,-0.012
8.960,-0.013
8.965,-0.013
8.970,-0.014
8.975,-0.013
8.980,-0.012
8.985,-0.013
8.990,-0.012
8.995,-0.010
9.000,-0.012
9.005,-0.016
9.010,-0.012
9.015,-0.010
9.020,-0.010
9.025,-0.007
9.030,-0.009
9.035,-0.009
9.040,-0.008
9.045,-0.010
9.050,-0.006
9.055,-0.005
9.060,-0.008
9.065,-0.006
9.070,-0.004
9.075,-0.006
9.080,-0.006
9.085,-0.006
9.090,-0.006
9.095,-0.008
9.100,-0.006
9.105,-0.005
9.110,-0.003
9.115,-0.002
9.120,-0.004
9.125,-0.003
9.130,-0.002
9.135,-0.004
9.140,-0.002
9.145,0.000
9.150,-0.002
9.155,-0.003
9.160,-0.005
9.165,-0.008
9.170,-0.012
9.175,-0.015
9.180,-0.017
9.185,-0.018
9.190,-0.020
9.195,-0.030
9.200,-0.037
9.205,-0.034
9.210,-0.031
9.215,-0.031
9.220,-0.028
9.225,-0.028
9.230,-0.023
9.235,-0.015
9.240,-0.006
9.245,0.007
9.250,0.015
9.255,0.018
9.260,0.025
9.265,0.030
9.270,0.031
9.275,0.030
9.280,0.028
9.285,0.026
9.290,0.025
9.295,0.024
9.300,0.021
9.305,0.017
9.310,0.011
9.315,0.008
9.320,0.004
9.325,-0.012
9.330,-0.053
9.335,-0.132
9.340,-0.254
9.345,-0.413
9.350,-0.588
9.355,-0.689
9.360,-0.648
9.365,-0.474
9.370,-0.223
9.375,0.015
9.380,0.206
9.385,0.317
9.390,0.313
9.395,0.238
9.400,0.189
9.405,0.190
9.410,0.200
9.415,0.202
9.420,0.194
9.425,0.190
9.430,0.189
9.435,0.177
9.440,0.167
9.445,0.166
9.450,0.159
9.455,0.150
9.460,0.144
9.465,0.135
9.470,0.126
9.475,0.121
9.480,0.115
9.485,0.104
9.490,0.096
9.495,0.095
9.500,0.092
9.505,0.082
9.510,0.071
9.515,0.065
9.520,0.059
9.525,0.052
9.530,0.045
9.535,0.036
9.540,0.031
9.545,0.026
9.550,0.018
9.555,0.011
9.560,0.004
9.565,-0.004
9.570,-0.013
9.575,-0.025
9.580,-0.033
9.585,-0.039
9.590,-0.047
9.595,-0.057
9.600,-0.063
9.605,-0.067
9.610,-0.072
9.615,-0.075
9.620,-0.079
9.625,-0.082
9.630,-0.082
9.635,-0.081
9.640,-0.080
9.645,-0.078
9.650,-0.073
9.655,-0.061
9.660,-0.048
9.665,-0.042
9.670,-0.032
9.675,-0.019
9.680,-0.008
9.685,0.006
9.690,0.016
9.695,0.025
9.700,0.037
9.705,0.044
9.710,0.050
9.715,0.055
9.720,0.057
9.725,0.055
9.730,0.056
9.735,0.058
9.740,0.056
9.745,0.056
9.750,0.053
9.755,0.047
9.760,0.044
9.765,0.042
9.770,0.039
9.775,0.037
9.780,0.036
9.785,0.033
9.790,0.030
9.795,0.023
9.800,0.022
9.805,0.026
9.810,0.023
9.815,0.019
9.820,0.018
9.825,0.015
9.830,0.012
9.835,0.008
9.840,0.009
9.845,0.012
9.850,0.010
9.855,0.007
9.860,0.006
9.865,0.005
9.870,0.004
9.875,0.001
9.880,0.000
9.885,0.001
9.890,0.003
9.895,0.004
9.900,0.002
9.905,0.002
9.910,0.002
9.915,0.000
9.920,0.001
9.925,0.000
9.930,-0.002
9.935,-0.002
9.940,-0.004
9.945,-0.007
9.950,-0.007
9.955,-0.005
9.960,-0.001
9.965,-0.002
9.970,-0.005
9.975,-0.006
9.980,-0.006
9.985,-0.007
9.990,-0.009
9.995,-0.008
10.000,-0.008
10.005,-0.010
10.010,-0.012
10.015,-0.010
10.020,-0.009
10.025,-0.012
10.030,-0.013
10.035,-0.014
10.040,-0.016
10.045,-0.015
10.050,-0.016
10.055,-0.016
10.060,-0.015
10.065,-0.020
10.070,-0.019
10.075,-0.016
10.080,-0.017
10.085,-0.016
10.090,-0.016
10.095,-0.018
10.100,-0.018
10.105,-0.017
10.110,-0.018
10.115,-0.017
10.120,-0.016
10.125,-0.017
10.130,-0.018
10.135,-0.020
10.140,-0.020
10.145,-0.019
10.150,-0.017
10.155,-0.017
10.160,-0.017
10.165,-0.019
10.170,-0.020
10.175,-0.023
10.180,-0.021
10.185,-0.014
10.190,-0.015
10.195,-0.018
10.200,-0.018
10.205,-0.017
10.210,-0.017
10.215,-0.017
10.220,-0.016
10.225,-0.016
10.230,-0.015
10.235,-0.014
10.240,-0.015
10.245,-0.015
10.250,-0.018
10.255,-0.017
10.260,-0.014
10.265,-0.014
10.270,-0.016
10.275,-0.016
10.280,-0.013
10.285,-0.012
10.290,-0.011
10.295,-0.011
10.300,-0.013
10.305,-0.013
10.310,-0.011
10.315,-0.013
10.320,-0.013
10.325,-0.010
10.330,-0.010
10.335,-0.011
10.340,-0.014
10.345,-0.015
10.350,-0.010
10.355,-0.005
10.360,-0.004
10.365,-0.005
10.370,-0.006
10.375,-0.007
10.380,-0.006
10.385,-0.004
10.390,-0.006
10.395,-0.008
10.400,-0.010
10.405,-0.008
10.410,-0.005
10.415,-0.004
10.420,-0.005
10.425,-0.004
10.430,-0.002
10.435,-0.002
10.440,-0.002
10.445,-0.003
10.450,-0.004
10.455,-0.004
10.460,-0.002
10.465,0.001
10.470,-0.001
10.475,-0.003
10.480,-0.002
10.485,-0.002
10.490,-0.003
10.495,-0.005
10.500,-0.009
10.505,-0.012
10.510,-0.014
10.515,-0.020
10.520,-0.024
10.525,-0.031
10.530,-0.042
10.535,-0.041
10.540,-0.036
10.545,-0.032
10.550,-0.030
10.555,-0.029
10.560,-0.025
10.565,-0.016
10.570,-0.005
10.575,0.007
10.580,0.015
10.585,0.021
10.590,0.027
10.595,0.030
10.600,0.031
10.605,0.029
10.610,0.028
10.615,0.033
10.620,0.034
10.625,0.028
10.630,0.022
10.635,0.017
10.640,0.015
10.645,0.014
10.650,0.010
10.655,-0.005
10.660,-0.042
10.665,-0.114
10.670,-0.235
10.675,-0.404
10.680,-0.599
10.685,-0.733
10.690,-0.716
10.695,-0.550
10.700,-0.296
10.705,-0.033
10.710,0.184
10.715,0.315
10.720,0.329
10.725,0.256
10.730,0.201
10.735,0.202
10.740,0.215
10.745,0.222
10.750,0.216
10.755,0.208
10.760,0.206
10.765,0.194
10.770,0.182
10.775,0.180
10.780,0.174
10.785,0.166
10.790,0.158
10.795,0.149
10.800,0.139
10.805,0.131
10.810,0.124
10.815,0.117
10.820,0.109
10.825,0.104
10.830,0.099
10.835,0.091
10.840,0.082
10.845,0.072
10.850,0.065
10.855,0.057
10.860,0.051
10.865,0.046
10.870,0.038
10.875,0.030
10.880,0.022
10.885,0.015
10.890,0.008
10.895,-0.001
10.900,-0.010
10.905,-0.021
10.910,-0.029
10.915,-0.040
10.920,-0.051
10.925,-0.053
10.930,-0.058
10.935,-0.067
10.940,-0.074
10.945,-0.080
10.950,-0.082
10.955,-0.081
10.960,-0.085
10.965,-0.087
10.970,-0.084
10.975,-0.081
10.980,-0.075
10.985,-0.067
10.990,-0.060
10.995,-0.052
11.000,-0.043
11.005,-0.029
11.010,-0.013
11.015,0.001
11.020,0.013
11.025,0.022
11.030,0.030
11.035,0.040
11.040,0.048
11.045,0.052
11.050,0.055
11.055,0.057
11.060,0.060
11.065,0.060
11.070,0.057
11.075,0.055
11.080,0.050
11.085,0.046
11.090,0.043
11.095,0.040
11.100,0.038
11.105,0.040
11.110,0.040
11.115,0.034
11.120,0.030
11.125,0.024
11.130,0.021
11.135,0.021
11.140,0.017
11.145,0.017
11.150,0.021
11.155,0.019
11.160,0.018
11.165,0.016
11.170,0.014
11.175,0.015
11.180,0.012
11.185,0.008
11.190,0.005
11.195,0.007
11.200,0.009
11.205,0.003
11.210,-0.003
11.215,-0.002
11.220,0.005
11.225,0.010
11.230,0.006
11.235,0.002
11.240,0.002
11.245,0.004
11.250,0.002
11.255,0.000
11.260,0.000
11.265,0.001
11.270,0.000
11.275,-0.002
11.280,-0.004
11.285,-0.004
11.290,-0.005
11.295,-0.005
11.300,-0.003
11.305,-0.005
11.310,-0.008
11.315,-0.007
11.320,-0.010
11.325,-0.011
11.330,-0.008
11.335,-0.010
11.340,-0.012
11.345,-0.014
11.350,-0.011
11.355,-0.009
11.360,-0.010
11.365,-0.011
11.370,-0.014
11.375,-0.016
11.380,-0.019
11.385,-0.020
11.390,-0.015
11.395,-0.013
11.400,-0.017
11.405,-0.020
11.410,-0.021
11.415,-0.020
11.420,-0.017
11.425,-0.018
11.430,-0.020
11.435,-0.018
11.440,-0.017
11.445,-0.018
11.450,-0.020
11.455,-0.022
11.460,-0.021
11.465,-0.016
11.470,-0.012
11.475,-0.015
11.480,-0.020
11.485,-0.020
11.490,-0.017
11.495,-0.017
11.500,-0.020
11.505,-0.023
11.510,-0.019
11.515,-0.015
11.520,-0.014
11.525,-0.017
11.530,-0.020
11.535,-0.019
11.540,-0.018
11.545,-0.015
11.550,-0.015
11.555,-0.016
11.560,-0.017
11.565,-0.018
11.570,-0.016
11.575,-0.014
11.580,-0.014
11.585,-0.016
11.590,-0.014
11.595,-0.013
11.600,-0.014
11.605,-0.013
11.610,-0.013
11.615,-0.014
11.620,-0.011
11.625,-0.010
11.630,-0.013
11.635,-0.012
11.640,-0.009
11.645,-0.008
11.650,-0.008
11.655,-0.012
11.660,-0.014
11.665,-0.010
11.670,-0.010
11.675,-0.010
11.680,-0.005
11.685,-0.004
11.690,-0.007
11.695,-0.008
11.700,-0.007
11.705,-0.006
11.710,-0.007
11.715,-0.011
11.720,-0.006
11.725,0.000
11.730,0.000
11.735,-0.002
11.740,-0.006
11.745,-0.007
11.750,-0.005
11.755,-0.005
11.760,-0.004
11.765,-0.004
11.770,-0.004
11.775,-0.002
11.780,0.000
11.785,-0.002
11.790,-0.001
11.795,0.002
11.800,0.002
11.805,0.000
11.810,-0.002
11.815,0.000
11.820,0.001
11.825,-0.005
11.830,-0.010
11.835,-0.011
11.840,-0.014
11.845,-0.017
11.850,-0.017
11.855,-0.025
11.860,-0.034
11.865,-0.034
11.870,-0.032
11.875,-0.030
11.880,-0.030
11.885,-0.029
11.890,-0.023
11.895,-0.015
11.900,-0.005
11.905,0.008
11.910,0.017
11.915,0.020
11.920,0.025
11.925,0.029
11.930,0.027
11.935,0.025
11.940,0.028
11.945,0.030
11.950,0.026
11.955,0.019
11.960,0.017
11.965,0.022
11.970,0.017
11.975,0.010
11.980,0.004
11.985,-0.016
11.990,-0.059
11.995,-0.148
12.000,-0.280
12.005,-0.446
12.010,-0.619
12.015,-0.701
12.020,-0.634
12.025,-0.443
12.030,-0.190
12.035,0.044
12.040,0.229
12.045,0.325
12.050,0.303
12.055,0.226
12.060,0.186
12.065,0.191
12.070,0.201
12.075,0.204
12.080,0.199
12.085,0.191
12.090,0.185
12.095,0.176
12.100,0.171
12.105,0.169
12.110,0.155
12.115,0.143
12.120,0.141
12.125,0.135
12.130,0.125
12.135,0.118
12.140,0.114
12.145,0.107
12.150,0.101
12.155,0.093
12.160,0.084
12.165,0.079
12.170,0.073
12.175,0.068
12.180,0.061
12.185,0.053
12.190,0.044
12.195,0.033
12.200,0.030
12.205,0.026
12.210,0.017
12.215,0.010
12.220,0.001
12.225,-0.006
12.230,-0.016
12.235,-0.027
12.240,-0.034
12.245,-0.039
12.250,-0.047
12.255,-0.056
12.260,-0.063
12.265,-0.068
12.270,-0.072
12.275,-0.075
12.280,-0.077
12.285,-0.078
12.290,-0.079
12.295,-0.077
12.300,-0.074
12.305,-0.070
12.310,-0.069
12.315,-0.065
12.320,-0.052
12.325,-0.035
12.330,-0.025
12.335,-0.014
12.340,-0.003
12.345,0.008
12.350,0.019
12.355,0.030
12.360,0.038
12.365,0.046
12.370,0.053
12.375,0.055
12.380,0.057
12.385,0.061
12.390,0.059
12.395,0.057
12.400,0.056
12.405,0.052
12.410,0.048
12.415,0.047
12.420,0.047
12.425,0.048
12.430,0.045
12.435,0.038
12.440,0.033
12.445,0.031
12.450,0.029
12.455,0.026
12.460,0.028
12.465,0.025
12.470,0.021
12.475,0.022
12.480,0.021
12.485,0.018
12.490,0.014
12.495,0.011
12.500,0.009
12.505,0.009
12.510,0.006
12.515,0.005
12.520,0.004
12.525,0.004
12.530,0.006
12.535,0.007
12.540,0.002
12.545,0.001
12.550,0.002
12.555,0.000
12.560,-0.002
12.565,0.001
12.570,0.004
12.575,0.004
12.580,0.002
12.585,0.000
12.590,-0.002
12.595,-0.005
12.600,-0.004
12.605,-0.001
12.610,0.000
12.615,-0.003
12.620,-0.006
12.625,-0.005
12.630,-0.005
12.635,-0.007
12.640,-0.007
12.645,-0.008
12.650,-0.011
12.655,-0.012
12.660,-0.009
12.665,-0.008
12.670,-0.009
12.675,-0.010
12.680,-0.012
12.685,-0.012
12.690,-0.015
12.695,-0.017
12.700,-0.017
12.705,-0.018
12.710,-0.015
12.715,-0.016
12.720,-0.018
12.725,-0.017
12.730,-0.016
12.735,-0.014
12.740,-0.015
12.745,-0.018
12.750,-0.018
12.755,-0.016
12.760,-0.016
12.765,-0.018
12.770,-0.018
12.775,-0.017
12.780,-0.016
12.785,-0.015
12.790,-0.018
12.795,-0.021
12.800,-0.021
12.805,-0.021
12.810,-0.020
12.815,-0.021
12.820,-0.019
12.825,-0.016
12.830,-0.017
12.835,-0.018
12.840,-0.016
12.845,-0.015
12.850,-0.016
12.855,-0.016
12.860,-0.016
12.865,-0.017
12.870,-0.017
12.875,-0.017
12.880,-0.013
12.885,-0.016
12.890,-0.018
12.895,-0.017
12.900,-0.018
12.905,-0.016
12.910,-0.014
12.915,-0.014
12.920,-0.013
12.925,-0.014
12.930,-0.014
12.935,-0.014
12.940,-0.014
12.945,-0.013
12.950,-0.010
12.955,-0.010
12.960,-0.011
12.965,-0.013
12.970,-0.015
12.975,-0.014
12.980,-0.009
12.985,-0.007
12.990,-0.009
12.995,-0.010
13.000,-0.011
13.005,-0.010
13.010,-0.010
13.015,-0.010
13.020,-0.007
13.025,-0.008
13.030,-0.010
13.035,-0.008
13.040,-0.010
13.045,-0.006
13.050,-0.002
13.055,-0.004
13.060,-0.006
13.065,-0.006
13.070,-0.006
13.075,-0.006
13.080,-0.005
13.085,-0.004
13.090,-0.002
13.095,-0.001
13.100,-0.005
13.105,-0.007
13.110,-0.004
13.115,-0.001
13.120,0.000
13.125,-0.001
13.130,-0.002
13.135,-0.001
13.140,-0.001
13.145,-0.002
13.150,-0.002
13.155,-0.001
13.160,0.001
13.165,0.000
13.170,0.000
13.175,-0.004
13.180,-0.011
13.185,-0.011
13.190,-0.009
13.195,-0.015
13.200,-0.025
13.205,-0.036
13.210,-0.043
13.215,-0.039
13.220,-0.034
13.225,-0.030
13.230,-0.027
13.235,-0.025
13.240,-0.022
13.245,-0.016
13.250,-0.004
13.255,0.009
13.260,0.016
13.265,0.021
13.270,0.028
13.275,0.032
13.280,0.031
13.285,0.028
13.290,0.028
13.295,0.031
13.300,0.029
13.305,0.023
13.310,0.020
13.315,0.018
13.320,0.014
13.325,0.011
13.330,0.006
13.335,-0.009
13.340,-0.047
13.345,-0.126
13.350,-0.250
13.355,-0.416
13.360,-0.602
13.365,-0.716
13.370,-0.683
13.375,-0.506
13.380,-0.246
13.385,0.005
13.390,0.201
13.395,0.317
13.400,0.317
13.405,0.242
13.410,0.194
13.415,0.198
13.420,0.211
13.425,0.215
13.430,0.204
13.435,0.199
13.440,0.201
13.445,0.190
13.450,0.179
13.455,0.175
13.460,0.165
13.465,0.154
13.470,0.148
13.475,0.142
13.480,0.132
13.485,0.124
13.490,0.118
13.495,0.110
13.500,0.103
13.505,0.096
13.510,0.090
13.515,0.085
13.520,0.077
13.525,0.070
13.530,0.065
13.535,0.058
13.540,0.048
13.545,0.041
13.550,0.036
13.555,0.029
13.560,0.018
13.565,0.008
13.570,0.003
13.575,-0.003
13.580,-0.015
13.585,-0.023
13.590,-0.030
13.595,-0.037
13.600,-0.047
13.605,-0.060
13.610,-0.066
13.615,-0.070
13.620,-0.074
13.625,-0.076
13.630,-0.080
13.635,-0.083
13.640,-0.082
13.645,-0.082
13.650,-0.080
13.655,-0.077
13.660,-0.076
13.665,-0.070
13.670,-0.062
13.675,-0.051
13.680,-0.036
13.685,-0.024
13.690,-0.014
13.695,0.000
13.700,0.011
13.705,0.021
13.710,0.031
13.715,0.038
13.720,0.046
13.725,0.052
13.730,0.052
13.735,0.054
13.740,0.054
13.745,0.053
13.750,0.053
13.755,0.051
13.760,0.049
13.765,0.049
13.770,0.046
13.775,0.043
13.780,0.039
13.785,0.036
13.790,0.035
13.795,0.033
13.800,0.030
13.805,0.028
13.810,0.025
13.815,0.023
13.820,0.023
13.825,0.019
13.830,0.016
13.835,0.016
13.840,0.013
13.845,0.010
13.850,0.009
13.855,0.009
13.860,0.008
13.865,0.008
13.870,0.008
13.875,0.007
13.880,0.007
13.885,0.006
13.890,0.005
13.895,0.008
13.900,0.004
13.905,0.002
13.910,0.005
13.915,0.001
13.920,-0.001
13.925,0.002
13.930,0.003
13.935,0.002
13.940,0.002
13.945,0.001
13.950,0.000
13.955,0.001
13.960,-0.002
13.965,-0.004
13.970,-0.001
13.975,-0.001
13.980,-0.004
13.985,-0.005
13.990,-0.006
13.995,-0.007
14.000,-0.009
14.005,-0.014
14.010,-0.014
14.015,-0.010
14.020,-0.008
14.025,-0.009
14.030,-0.011
14.035,-0.010
14.040,-0.011
14.045,-0.011
14.050,-0.011
14.055,-0.012
14.060,-0.014
14.065,-0.016
14.070,-0.017
14.075,-0.017
14.080,-0.017
14.085,-0.016
14.090,-0.014
14.095,-0.016
14.100,-0.017
14.105,-0.017
14.110,-0.019
14.115,-0.018
14.120,-0.018
14.125,-0.018
14.130,-0.018
14.135,-0.019
14.140,-0.016
14.145,-0.012
14.150,-0.013
14.155,-0.018
14.160,-0.019
14.165,-0.017
14.170,-0.018
14.175,-0.019
14.180,-0.018
14.185,-0.017
14.190,-0.016
14.195,-0.016
14.200,-0.016
14.205,-0.015
14.210,-0.014
14.215,-0.016
14.220,-0.018
14.225,-0.015
14.230,-0.013
14.235,-0.013
14.240,-0.015
14.245,-0.017
14.250,-0.014
14.255,-0.014
14.260,-0.015
14.265,-0.015
14.270,-0.016
14.275,-0.016
14.280,-0.012
14.285,-0.011
14.290,-0.011
14.295,-0.011
14.300,-0.012
14.305,-0.011
14.310,-0.010
14.315,-0.009
14.320,-0.007
14.325,-0.009
14.330,-0.014
14.335,-0.012
14.340,-0.007
14.345,-0.006
14.350,-0.007
14.355,-0.009
14.360,-0.009
14.365,-0.009
14.370,-0.009
14.375,-0.009
14.380,-0.010
14.385,-0.009
14.390,-0.007
14.395,-0.007
14.400,-0.006
14.405,-0.007
14.410,-0.006
14.415,-0.005
14.420,-0.007
14.425,-0.006
14.430,-0.003
14.435,-0.001
14.440,-0.001
14.445,-0.004
14.450,-0.005
14.455,-0.004
14.460,-0.003
14.465,-0.002
14.470,-0.002
14.475,-0.004
14.480,-0.004
14.485,-0.005
14.490,-0.003
14.495,-0.003
14.500,-0.003
14.505,-0.002
14.510,-0.005
14.515,-0.009
14.520,-0.011
14.525,-0.014
14.530,-0.017
14.535,-0.023
14.540,-0.037
14.545,-0.045
14.550,-0.040
14.555,-0.035
14.560,-0.034
14.565,-0.037
14.570,-0.036
14.575,-0.025
14.580,-0.013
14.585,-0.003
14.590,0.009
14.595,0.017
14.600,0.023
14.605,0.031
14.610,0.033
14.615,0.030
14.620,0.030
14.625,0.030
14.630,0.030
14.635,0.028
14.640,0.026
14.645,0.024
14.650,0.018
14.655,0.010
14.660,0.008
14.665,0.009
14.670,-0.007
14.675,-0.047
14.680,-0.130
14.685,-0.267
14.690,-0.445
14.695,-0.638
14.700,-0.750
14.705,-0.706
14.710,-0.525
14.715,-0.259
14.720,0.004
14.725,0.214
14.730,0.333
14.735,0.326
14.740,0.245
14.745,0.200
14.750,0.204
14.755,0.217
14.760,0.224
14.765,0.217
14.770,0.214
14.775,0.208
14.780,0.193
14.785,0.187
14.790,0.181
14.795,0.169
14.800,0.161
14.805,0.157
14.810,0.149
14.815,0.139
14.820,0.131
14.825,0.128
14.830,0.121
14.835,0.108
14.840,0.100
14.845,0.096
14.850,0.088
14.855,0.078
14.860,0.072
14.865,0.065
14.870,0.056
14.875,0.048
14.880,0.040
14.885,0.034
14.890,0.027
14.895,0.019
14.900,0.011
14.905,0.001
14.910,-0.009
14.915,-0.017
14.920,-0.024
14.925,-0.033
14.930,-0.043
14.935,-0.050
14.940,-0.058
14.945,-0.070
14.950,-0.075
14.955,-0.077
14.960,-0.082
14.965,-0.084
14.970,-0.082
14.975,-0.083
14.980,-0.085
14.985,-0.085
14.990,-0.083
14.995,-0.077
15.000,-0.071
15.005,-0.061
15.010,-0.049
15.015,-0.038
15.020,-0.025
15.025,-0.011
15.030,0.001
15.035,0.013
15.040,0.028
15.045,0.039
15.050,0.041
15.055,0.044
15.060,0.053
15.065,0.056
15.070,0.057
15.075,0.057
15.080,0.057
15.085,0.056
15.090,0.054
15.095,0.053
15.100,0.049
15.105,0.044
15.110,0.041
15.115,0.039
15.120,0.037
15.125,0.035
15.130,0.034
15.135,0.033
15.140,0.031
15.145,0.027
15.150,0.025
15.155,0.022
15.160,0.017
15.165,0.015
15.170,0.014
15.175,0.014
15.180,0.015
15.185,0.014
15.190,0.011
15.195,0.010
15.200,0.011
15.205,0.013
15.210,0.010
15.215,0.009
15.220,0.006
15.225,0.001
15.230,0.002
15.235,0.006
15.240,0.007
15.245,0.006
15.250,0.004
15.255,0.002
15.260,0.002
15.265,0.003
15.270,0.003
15.275,0.001
15.280,-0.001
15.285,-0.001
15.290,-0.002
15.295,-0.003
15.300,-0.001
15.305,-0.004
15.310,-0.004
15.315,-0.005
15.320,-0.006
15.325,-0.005
15.330,-0.005
15.335,-0.007
15.340,-0.010
15.345,-0.012
15.350,-0.014
15.355,-0.014
15.360,-0.014
15.365,-0.011
15.370,-0.010
15.375,-0.013
15.380,-0.015
15.385,-0.016
15.390,-0.013
15.395,-0.012
15.400,-0.016
15.405,-0.017
15.410,-0.017
15.415,-0.017
15.420,-0.017
15.425,-0.018
15.430,-0.016
15.435,-0.014
15.440,-0.013
15.445,-0.017
15.450,-0.022
15.455,-0.021
15.460,-0.018
15.465,-0.020
15.470,-0.021
15.475,-0.022
15.480,-0.021
15.485,-0.018
15.490,-0.013
15.495,-0.013
15.500,-0.018
15.505,-0.017
15.510,-0.017
15.515,-0.018
15.520,-0.018
15.525,-0.017
15.530,-0.017
15.535,-0.016
15.540,-0.015
15.545,-0.017
15.550,-0.017
15.555,-0.019
15.560,-0.018
15.565,-0.015
15.570,-0.016
15.575,-0.016
15.580,-0.016
15.585,-0.016
15.590,-0.016
15.595,-0.014
15.600,-0.014
15.605,-0.015
15.610,-0.015
15.615,-0.013
15.620,-0.010
15.625,-0.009
15.630,-0.011
15.635,-0.012
15.640,-0.013
15.645,-0.012
15.650,-0.011
15.655,-0.011
15.660,-0.010
15.665,-0.007
15.670,-0.006
15.675,-0.010
15.680,-0.010
15.685,-0.007
15.690,-0.006
15.695,-0.008
15.700,-0.009
15.705,-0.011
15.710,-0.006
15.715,-0.001
15.720,-0.006
15.725,-0.010
15.730,-0.009
15.735,-0.005
15.740,-0.002
15.745,-0.004
15.750,-0.004
15.755,-0.002
15.760,-0.006
15.765,-0.007
15.770,-0.007
15.775,-0.003
15.780,0.000
15.785,-0.003
15.790,-0.001
15.795,-0.001
15.800,-0.003
15.805,-0.003
15.810,-0.004
15.815,-0.004
15.820,-0.006
15.825,-0.010
15.830,-0.013
15.835,-0.013
15.840,-0.011
15.845,-0.014
15.850,-0.026
15.855,-0.036
15.860,-0.035
15.865,-0.032
15.870,-0.031
15.875,-0.027
15.880,-0.027
15.885,-0.023
15.890,-0.015
15.895,-0.006
15.900,0.005
15.905,0.013
15.910,0.017
15.915,0.024
15.920,0.028
15.925,0.026
15.930,0.026
15.935,0.027
15.940,0.026
15.945,0.027
15.950,0.026
15.955,0.020
15.960,0.014
15.965,0.014
15.970,0.012
15.975,0.007
15.980,-0.010
15.985,-0.050
15.990,-0.127
15.995,-0.250
16.000,-0.409
16.005,-0.578
16.010,-0.680
16.015,-0.645
16.020,-0.475
16.025,-0.232
16.030,0.003
16.035,0.196
16.040,0.311
16.045,0.313
16.050,0.241
16.055,0.191
16.060,0.191
16.065,0.199
16.070,0.200
16.075,0.194
16.080,0.188
16.085,0.186
16.090,0.178
16.095,0.172
16.100,0.167
16.105,0.155
16.110,0.146
16.115,0.141
16.120,0.131
16.125,0.121
16.130,0.117
16.135,0.114
16.140,0.105
16.145,0.098
16.150,0.093
16.155,0.087
16.160,0.081
16.165,0.073
16.170,0.067
16.175,0.060
16.180,0.053
16.185,0.046
16.190,0.037
16.195,0.029
16.200,0.021
16.205,0.017
16.210,0.012
16.215,0.003
16.220,-0.004
16.225,-0.014
16.230,-0.026
16.235,-0.036
16.240,-0.041
16.245,-0.046
16.250,-0.054
16.255,-0.060
16.260,-0.068
16.265,-0.071
16.270,-0.074
16.275,-0.078
16.280,-0.077
16.285,-0.079
16.290,-0.081
16.295,-0.074
16.300,-0.068
16.305,-0.066
16.310,-0.062
16.315,-0.056
16.320,-0.046
16.325,-0.032
16.330,-0.018
16.335,-0.005
16.340,0.008
16.345,0.018
16.350,0.028
16.355,0.037
16.360,0.041
16.365,0.048
16.370,0.056
16.375,0.055
16.380,0.057
16.385,0.060
16.390,0.060
16.395,0.058
16.400,0.055
16.405,0.050
16.410,0.049
16.415,0.048
16.420,0.045
16.425,0.041
16.430,0.037
16.435,0.033
16.440,0.033
16.445,0.032
16.450,0.026
16.455,0.024
16.460,0.025
16.465,0.020
16.470,0.016
16.475,0.016
16.480,0.018
16.485,0.018
16.490,0.015
16.495,0.011
16.500,0.011
16.505,0.012
16.510,0.010
16.515,0.007
16.520,0.006
16.525,0.002
16.530,-0.001
16.535,0.000
16.540,0.001
16.545,0.000
16.550,-0.002
16.555,-0.004
16.560,-0.003
16.565,0.000
16.570,0.002
16.575,0.000
16.580,-0.003
16.585,-0.002
16.590,0.001
16.595,0.002
16.600,0.001
16.605,-0.001
16.610,-0.002
16.615,-0.003
16.620,-0.005
16.625,-0.007
16.630,-0.008
16.635,-0.007
16.640,-0.008
16.645,-0.010
16.650,-0.012
16.655,-0.012
16.660,-0.012
16.665,-0.012
16.670,-0.010
16.675,-0.012
16.680,-0.011
16.685,-0.009
16.690,-0.012
16.695,-0.012
16.700,-0.015
16.705,-0.016
16.710,-0.013
16.715,-0.015
16.720,-0.016
16.725,-0.017
16.730,-0.021
16.735,-0.020
16.740,-0.019
16.745,-0.020
16.750,-0.019
16.755,-0.015
16.760,-0.014
16.765,-0.017
16.770,-0.021
16.775,-0.020
16.780,-0.017
16.785,-0.016
16.790,-0.015
16.795,-0.014
16.800,-0.015
16.805,-0.019
16.810,-0.020
16.815,-0.017
16.820,-0.016
16.825,-0.015
16.830,-0.014
16.835,-0.014
16.840,-0.014
16.845,-0.014
16.850,-0.017
16.855,-0.018
16.860,-0.018
16.865,-0.019
16.870,-0.019
16.875,-0.019
16.880,-0.016
16.885,-0.013
16.890,-0.015
16.895,-0.016
16.900,-0.015
16.905,-0.017
16.910,-0.015
16.915,-0.011
16.920,-0.011
16.925,-0.010
16.930,-0.009
16.935,-0.010
16.940,-0.011
16.945,-0.013
16.950,-0.013
16.955,-0.010
16.960,-0.011
16.965,-0.013
16.970,-0.010
16.975,-0.010
16.980,-0.011
16.985,-0.011
16.990,-0.010
16.995,-0.007
17.000,-0.009
17.005,-0.010
17.010,-0.007
17.015,-0.005
17.020,-0.004
17.025,-0.007
17.030,-0.009
17.035,-0.008
17.040,-0.008
17.045,-0.008
17.050,-0.007
17.055,-0.005
17.060,-0.004
17.065,-0.004
17.070,-0.004
17.075,-0.004
17.080,-0.005
17.085,-0.007
17.090,-0.006
17.095,-0.004
17.100,-0.002
17.105,-0.001
17.110,-0.005
17.115,-0.005
17.120,-0.001
17.125,0.002
17.130,0.001
17.135,0.000
17.140,-0.002
17.145,-0.004
17.150,-0.007
17.155,-0.011
17.160,-0.015
17.165,-0.016
17.170,-0.017
17.175,-0.020
17.180,-0.030
17.185,-0.040
17.190,-0.040
17.195,-0.035
17.200,-0.034
17.205,-0.033
17.210,-0.028
17.215,-0.024
17.220,-0.018
17.225,-0.010
17.230,0.003
17.235,0.013
17.240,0.019
17.245,0.026
17.250,0.030
17.255,0.029
17.260,0.027
17.265,0.030
17.270,0.032
17.275,0.030
17.280,0.025
17.285,0.021
17.290,0.017
17.295,0.014
17.300,0.011
17.305,0.009
17.310,-0.002
17.315,-0.038
17.320,-0.115
17.325,-0.232
17.330,-0.390
17.335,-0.581
17.340,-0.722
17.345,-0.718
17.350,-0.557
17.355,-0.301
17.360,-0.040
17.365,0.174
17.370,0.314
17.375,0.337
17.380,0.263
17.385,0.203
17.390,0.200
17.395,0.214
17.400,0.219
17.405,0.209
17.410,0.202
17.415,0.199
17.420,0.193
17.425,0.183
17.430,0.176
17.435,0.168
17.440,0.157
17.445,0.152
17.450,0.150
17.455,0.139
17.460,0.126
17.465,0.119
17.470,0.113
17.475,0.106
17.480,0.102
17.485,0.094
17.490,0.086
17.495,0.082
17.500,0.077
17.505,0.067
17.510,0.059
17.515,0.051
17.520,0.045
17.525,0.037
17.530,0.027
17.535,0.019
17.540,0.012
17.545,0.004
17.550,-0.002
17.555,-0.012
17.560,-0.023
17.565,-0.030
17.570,-0.036
17.575,-0.042
17.580,-0.052
17.585,-0.063
17.590,-0.069
17.595,-0.072
17.600,-0.077
17.605,-0.083
17.610,-0.086
17.615,-0.085
17.620,-0.083
17.625,-0.083
17.630,-0.084
17.635,-0.079
17.640,-0.069
17.645,-0.060
17.650,-0.050
17.655,-0.040
17.660,-0.027
17.665,-0.015
17.670,-0.004
17.675,0.010
17.680,0.019
17.685,0.028
17.690,0.041
17.695,0.048
17.700,0.051
17.705,0.052
17.710,0.054
17.715,0.058
17.720,0.057
17.725,0.053
17.730,0.051
17.735,0.049
17.740,0.047
17.745,0.048
17.750,0.047
17.755,0.044
17.760,0.040
17.765,0.037
17.770,0.035
17.775,0.031
17.780,0.028
17.785,0.025
17.790,0.025
17.795,0.025
17.800,0.020
17.805,0.019
17.810,0.019
17.815,0.015
17.820,0.012
17.825,0.011
17.830,0.011
17.835,0.011
17.840,0.009
17.845,0.008
17.850,0.007
17.855,0.004
17.860,0.004
17.865,0.006
17.870,0.008
17.875,0.009
17.880,0.007
17.885,0.004
17.890,0.003
17.895,0.003
17.900,0.002
17.905,0.003
17.910,0.000
17.915,-0.002
17.920,0.003
17.925,0.001
17.930,-0.003
17.935,-0.002
17.940,-0.002
17.945,0.001
17.950,-0.001
17.955,-0.005
17.960,-0.006
17.965,-0.008
17.970,-0.010
17.975,-0.010
17.980,-0.009
17.985,-0.008
17.990,-0.008
17.995,-0.009
18.000,-0.011
18.005,-0.013
18.010,-0.012
18.015,-0.013
18.020,-0.015
18.025,-0.015
18.030,-0.014
18.035,-0.015
18.040,-0.017
18.045,-0.020
18.050,-0.020
18.055,-0.017
18.060,-0.016
18.065,-0.017
18.070,-0.019
18.075,-0.021
18.080,-0.020
18.085,-0.018
18.090,-0.017
18.095,-0.017
18.100,-0.019
18.105,-0.019
18.110,-0.018
18.115,-0.018
18.120,-0.017
18.125,-0.018
18.130,-0.016
18.135,-0.016
18.140,-0.020
18.145,-0.022
18.150,-0.019
18.155,-0.017
18.160,-0.017
18.165,-0.020
18.170,-0.019
18.175,-0.016
18.180,-0.016
18.185,-0.017
18.190,-0.017
18.195,-0.017
18.200,-0.018
18.205,-0.019
18.210,-0.020
18.215,-0.020
18.220,-0.018
18.225,-0.015
18.230,-0.013
18.235,-0.013
18.240,-0.012
18.245,-0.011
18.250,-0.013
18.255,-0.016
18.260,-0.018
18.265,-0.015
18.270,-0.012
18.275,-0.012
18.280,-0.012
18.285,-0.014
18.290,-0.011
18.295,-0.010
18.300,-0.015
18.305,-0.015
18.310,-0.012
18.315,-0.010
18.320,-0.007
18.325,-0.007
18.330,-0.007
18.335,-0.008
18.340,-0.008
18.345,-0.007
18.350,-0.008
18.355,-0.008
18.360,-0.012
18.365,-0.009
18.370,-0.004
18.375,-0.005
18.380,-0.008
18.385,-0.008
18.390,-0.006
18.395,-0.002
18.400,-0.002
18.405,-0.005
18.410,-0.007
18.415,-0.006
18.420,-0.004
18.425,-0.004
18.430,-0.002
18.435,0.000
18.440,-0.002
18.445,-0.002
18.450,-0.001
18.455,-0.004
18.460,-0.002
18.465,-0.001
18.470,-0.003
18.475,-0.003
18.480,-0.006
18.485,-0.008
18.490,-0.012
18.495,-0.013
18.500,-0.010
18.505,-0.011
18.510,-0.014
18.515,-0.025
18.520,-0.037
18.525,-0.040
18.530,-0.036
18.535,-0.032
18.540,-0.031
18.545,-0.031
18.550,-0.031
18.555,-0.021
18.560,-0.009
18.565,0.002
18.570,0.014
18.575,0.018
18.580,0.022
18.585,0.026
18.590,0.027
18.595,0.029
18.600,0.030
18.605,0.031
18.610,0.032
18.615,0.028
18.620,0.022
18.625,0.015
18.630,0.011
18.635,0.011
18.640,0.010
18.645,-0.001
18.650,-0.036
18.655,-0.105
18.660,-0.220
18.665,-0.377
18.670,-0.560
18.675,-0.702
18.680,-0.709
18.685,-0.564
18.690,-0.321
18.695,-0.061
18.700,0.158
18.705,0.305
18.710,0.341
18.715,0.275
18.720,0.202
18.725,0.191
18.730,0.205
18.735,0.211
18.740,0.207
18.745,0.198
18.750,0.196
18.755,0.190
18.760,0.178
18.765,0.174
18.770,0.169
18.775,0.156
18.780,0.148
18.785,0.144
18.790,0.133
18.795,0.122
18.800,0.117
18.805,0.111
18.810,0.105
18.815,0.102
18.820,0.092
18.825,0.082
18.830,0.077
18.835,0.070
18.840,0.064
18.845,0.057
18.850,0.048
18.855,0.042
18.860,0.036
18.865,0.027
18.870,0.019
18.875,0.010
18.880,0.002
18.885,-0.003
18.890,-0.010
18.895,-0.020
18.900,-0.033
18.905,-0.041
18.910,-0.044
18.915,-0.051
18.920,-0.058
18.925,-0.066
18.930,-0.075
18.935,-0.077
18.940,-0.078
18.945,-0.079
18.950,-0.078
18.955,-0.079
18.960,-0.078
18.965,-0.074
18.970,-0.071
18.975,-0.066
18.980,-0.058
18.985,-0.047
18.990,-0.035
18.995,-0.021
19.000,-0.007
19.005,0.005
19.010,0.016
19.015,0.024
19.020,0.034
19.025,0.046
19.030,0.054
19.035,0.058
19.040,0.061
19.045,0.061
19.050,0.059
19.055,0.058
19.060,0.058
19.065,0.056
19.070,0.053
19.075,0.051
19.080,0.049
19.085,0.046
19.090,0.041
19.095,0.037
19.100,0.036
19.105,0.034
19.110,0.031
19.115,0.030
19.120,0.030
19.125,0.028
19.130,0.023
19.135,0.021
19.140,0.019
19.145,0.016
19.150,0.015
19.155,0.015
19.160,0.012
19.165,0.007
19.170,0.007
19.175,0.010
19.180,0.013
19.185,0.011
19.190,0.007
19.195,0.006
19.200,0.006
19.205,0.004
19.210,0.004
19.215,0.003
19.220,0.001
19.225,-0.002
19.230,0.000
19.235,0.002
19.240,0.001
19.245,0.002
19.250,0.002
19.255,0.000
19.260,-0.002
19.265,-0.005
19.270,-0.004
19.275,-0.002
19.280,-0.004
19.285,-0.003
19.290,-0.003
19.295,-0.004
19.300,-0.007
19.305,-0.010
19.310,-0.007
19.315,-0.007
19.320,-0.008
19.325,-0.011
19.330,-0.013
19.335,-0.008
19.340,-0.008
19.345,-0.009
19.350,-0.010
19.355,-0.014
19.360,-0.014
19.365,-0.016
19.370,-0.017
19.375,-0.012
19.380,-0.013
19.385,-0.017
19.390,-0.016
19.395,-0.015
19.400,-0.017
19.405,-0.018
19.410,-0.019
19.415,-0.018
19.420,-0.018
19.425,-0.020
19.430,-0.019
19.435,-0.017
19.440,-0.019
19.445,-0.019
19.450,-0.017
19.455,-0.015
19.460,-0.016
19.465,-0.016
19.470,-0.016
19.475,-0.017
19.480,-0.017
19.485,-0.019
19.490,-0.019
19.495,-0.016
19.500,-0.017
19.505,-0.017
19.510,-0.018
19.515,-0.018
19.520,-0.016
19.525,-0.014
19.530,-0.015
19.535,-0.016
19.540,-0.017
19.545,-0.019
19.550,-0.019
19.555,-0.014
19.560,-0.012
19.565,-0.014
19.570,-0.017
19.575,-0.016
19.580,-0.013
19.585,-0.013
19.590,-0.013
19.595,-0.012
19.600,-0.012
19.605,-0.011
19.610,-0.009
19.615,-0.008
19.620,-0.009
19.625,-0.012
19.630,-0.011
19.635,-0.010
19.640,-0.014
19.645,-0.015
19.650,-0.011
19.655,-0.009
19.660,-0.008
19.665,-0.010
19.670,-0.009
19.675,-0.006
19.680,-0.009
19.685,-0.009
19.690,-0.008
19.695,-0.009
19.700,-0.008
19.705,-0.006
19.710,-0.005
19.715,-0.004
19.720,-0.005
19.725,-0.005
19.730,-0.005
19.735,-0.005
19.740,-0.006
19.745,-0.008
19.750,-0.008
19.755,-0.004
19.760,-0.003
19.765,-0.002
19.770,0.000
19.775,-0.003
19.780,-0.002
19.785,-0.002
19.790,-0.007
19.795,-0.008
19.800,-0.009
19.805,-0.015
19.810,-0.017
19.815,-0.020
19.820,-0.030
19.825,-0.037
19.830,-0.038
19.835,-0.035
19.840,-0.031
19.845,-0.029
19.850,-0.030
19.855,-0.026
19.860,-0.020
19.865,-0.014
19.870,0.003
19.875,0.018
19.880,0.022
19.885,0.027
19.890,0.029
19.895,0.028
19.900,0.027
19.905,0.027
19.910,0.030
19.915,0.028
19.920,0.020
19.925,0.015
19.930,0.016
19.935,0.016
19.940,0.013
19.945,0.004
19.950,-0.013
19.955,-0.057
19.960,-0.145
19.965,-0.277
19.970,-0.443
19.975,-0.614
19.980,-0.695
19.985,-0.634
19.990,-0.444
19.995,-0.187
20.000,0.045
20.005,0.227
20.010,0.324
20.015,0.302
20.020,0.226
20.025,0.184
20.030,0.188
20.035,0.205
20.040,0.205
20.045,0.192
20.050,0.191
20.055,0.189
20.060,0.178
20.065,0.171
20.070,0.163
20.075,0.154
20.080,0.148
20.085,0.141
20.090,0.134
20.095,0.126
20.100,0.120
20.105,0.114
20.110,0.106
20.115,0.097
20.120,0.090
20.125,0.084
20.130,0.076
20.135,0.071
20.140,0.067
20.145,0.058
20.150,0.051
20.155,0.044
20.160,0.035
20.165,0.029
20.170,0.024
20.175,0.016
20.180,0.008
20.185,0.000
20.190,-0.007
20.195,-0.013
20.200,-0.022
20.205,-0.032
20.210,-0.041
20.215,-0.049
20.220,-0.058
20.225,-0.067
20.230,-0.069
20.235,-0.074
20.240,-0.080
20.245,-0.083
20.250,-0.083
20.255,-0.082
20.260,-0.083
20.265,-0.082
20.270,-0.076
20.275,-0.066
20.280,-0.061
20.285,-0.060
20.290,-0.051
20.295,-0.033
20.300,-0.016
20.305,-0.003
20.310,0.008
20.315,0.018
20.320,0.027
20.325,0.034
20.330,0.042
20.335,0.053
20.340,0.061
20.345,0.059
20.350,0.056
20.355,0.057
20.360,0.058
20.365,0.057
20.370,0.052
20.375,0.050
20.380,0.050
20.385,0.046
20.390,0.045
20.395,0.043
20.400,0.039
20.405,0.036
20.410,0.032
20.415,0.029
20.420,0.027
20.425,0.023
20.430,0.021
20.435,0.022
20.440,0.020
20.445,0.016
20.450,0.014
20.455,0.015
20.460,0.013
20.465,0.012
20.470,0.009
20.475,0.008
20.480,0.010
20.485,0.009
20.490,0.006
20.495,0.004
20.500,0.003
20.505,0.001
20.510,0.001
20.515,0.005
20.520,0.006
20.525,0.003
20.530,0.002
20.535,0.003
20.540,0.002
20.545,0.000
20.550,-0.001
20.555,-0.001
20.560,-0.001
20.565,-0.003
20.570,-0.003
20.575,0.001
20.580,0.000
20.585,-0.004
20.590,-0.004
20.595,-0.007
20.600,-0.008
20.605,-0.008
20.610,-0.009
20.615,-0.007
20.620,-0.006
20.625,-0.008
20.630,-0.009
20.635,-0.010
20.640,-0.011
20.645,-0.011
20.650,-0.014
20.655,-0.016
20.660,-0.015
20.665,-0.014
20.670,-0.014
20.675,-0.015
20.680,-0.015
20.685,-0.019
20.690,-0.022
20.695,-0.017
20.700,-0.014
20.705,-0.014
20.710,-0.016
20.715,-0.018
20.720,-0.018
20.725,-0.018
20.730,-0.017
20.735,-0.014
20.740,-0.015
20.745,-0.018
20.750,-0.018
20.755,-0.017
20.760,-0.017
20.765,-0.017
20.770,-0.018
20.775,-0.017
20.780,-0.018
20.785,-0.019
20.790,-0.017
20.795,-0.016
20.800,-0.016
20.805,-0.017
20.810,-0.018
20.815,-0.016
20.820,-0.015
20.825,-0.017
20.830,-0.015
20.835,-0.015
20.840,-0.019
20.845,-0.021
20.850,-0.016
20.855,-0.011
20.860,-0.012
20.865,-0.014
20.870,-0.014
20.875,-0.012
20.880,-0.012
20.885,-0.012
20.890,-0.010
20.895,-0.012
20.900,-0.013
20.905,-0.012
20.910,-0.010
20.915,-0.010
20.920,-0.014
20.925,-0.013
20.930,-0.009
20.935,-0.012
20.940,-0.013
20.945,-0.010
20.950,-0.010
20.955,-0.008
20.960,-0.008
20.965,-0.009
20.970,-0.007
20.975,-0.007
20.980,-0.008
20.985,-0.009
20.990,-0.007
20.995,-0.006
21.000,-0.006
21.005,-0.006
21.010,-0.007
21.015,-0.007
21.020,-0.007
21.025,-0.006
21.030,-0.005
21.035,-0.006
21.040,-0.007
21.045,-0.006
21.050,-0.004
21.055,0.000
21.060,-0.001
21.065,-0.004
21.070,-0.004
21.075,-0.003
21.080,-0.001
21.085,-0.001
21.090,-0.002
21.095,-0.002
21.100,0.000
21.105,-0.001
21.110,-0.003
21.115,-0.006
21.120,-0.009
21.125,-0.010
21.130,-0.014
21.135,-0.018
21.140,-0.023
21.145,-0.034
21.150,-0.043
21.155,-0.041
21.160,-0.037
21.165,-0.035
21.170,-0.035
21.175,-0.031
21.180,-0.023
21.185,-0.017
21.190,-0.010
21.195,0.003
21.200,0.017
21.205,0.025
21.210,0.030
21.215,0.031
21.220,0.031
21.225,0.031
21.230,0.029
21.235,0.028
21.240,0.028
21.245,0.024
21.250,0.020
21.255,0.017
21.260,0.011
21.265,0.009
21.270,0.007
21.275,-0.007
21.280,-0.042
21.285,-0.116
21.290,-0.242
21.295,-0.410
21.300,-0.604
21.305,-0.738
21.310,-0.722
21.315,-0.549
21.320,-0.282
21.325,-0.020
21.330,0.192
21.335,0.322
21.340,0.333
21.345,0.256
21.350,0.199
21.355,0.200
21.360,0.217
21.365,0.223
21.370,0.211
21.375,0.205
21.380,0.206
21.385,0.195
21.390,0.186
21.395,0.179
21.400,0.167
21.405,0.158
21.410,0.157
21.415,0.153
21.420,0.142
21.425,0.130
21.430,0.121
21.435,0.114
21.440,0.107
21.445,0.103
21.450,0.098
21.455,0.087
21.460,0.079
21.465,0.073
21.470,0.065
21.475,0.059
21.480,0.052
21.485,0.044
21.490,0.038
21.495,0.027
21.500,0.017
21.505,0.012
21.510,0.004
21.515,-0.003
21.520,-0.009
21.525,-0.021
21.530,-0.032
21.535,-0.041
21.540,-0.051
21.545,-0.060
21.550,-0.068
21.555,-0.073
21.560,-0.075
21.565,-0.079
21.570,-0.083
21.575,-0.086
21.580,-0.089
21.585,-0.088
21.590,-0.084
21.595,-0.080
21.600,-0.075
21.605,-0.071
21.610,-0.064
21.615,-0.053
21.620,-0.043
21.625,-0.029
21.630,-0.016
21.635,-0.003
21.640,0.011
21.645,0.023
21.650,0.033
21.655,0.039
21.660,0.046
21.665,0.053
21.670,0.056
21.675,0.057
21.680,0.059
21.685,0.058
21.690,0.055
21.695,0.050
21.700,0.049
21.705,0.052
21.710,0.050
21.715,0.044
21.720,0.038
21.725,0.038
21.730,0.040
21.735,0.036
21.740,0.029
21.745,0.026
21.750,0.026
21.755,0.025
21.760,0.021
21.765,0.017
21.770,0.015
21.775,0.016
21.780,0.017
21.785,0.016
21.790,0.014
21.795,0.011
21.800,0.010
21.805,0.011
21.810,0.011
21.815,0.009
21.820,0.007
21.825,0.008
21.830,0.008
21.835,0.004
21.840,0.003
21.845,0.006
21.850,0.011
21.855,0.009
21.860,0.003
21.865,0.001
21.870,0.003
21.875,0.002
21.880,0.000
21.885,-0.001
21.890,0.001
21.895,0.001
21.900,-0.001
21.905,0.001
21.910,-0.001
21.915,-0.007
21.920,-0.008
21.925,-0.006
21.930,-0.005
21.935,-0.007
21.940,-0.011
21.945,-0.010
21.950,-0.009
21.955,-0.014
21.960,-0.014
21.965,-0.011
21.970,-0.012
21.975,-0.014
21.980,-0.015
21.985,-0.013
21.990,-0.014
21.995,-0.014
22.000,-0.014
22.005,-0.016
22.010,-0.016
22.015,-0.014
22.020,-0.015
22.025,-0.019
22.030,-0.021
22.035,-0.018
22.040,-0.018
22.045,-0.020
22.050,-0.020
22.055,-0.019
22.060,-0.017
22.065,-0.016
22.070,-0.015
22.075,-0.014
22.080,-0.017
22.085,-0.021
22.090,-0.019
22.095,-0.018
22.100,-0.021
22.105,-0.020
22.110,-0.019
22.115,-0.020
22.120,-0.019
22.125,-0.017
22.130,-0.016
22.135,-0.015
22.140,-0.016
22.145,-0.016
22.150,-0.013
22.155,-0.014
22.160,-0.017
22.165,-0.016
22.170,-0.015
22.175,-0.014
22.180,-0.015
22.185,-0.020
22.190,-0.018
22.195,-0.014
22.200,-0.014
22.205,-0.015
22.210,-0.013
22.215,-0.010
22.220,-0.010
22.225,-0.014
22.230,-0.017
22.235,-0.014
22.240,-0.008
22.245,-0.008
22.250,-0.012
22.255,-0.014
22.260,-0.014
22.265,-0.012
22.270,-0.010
22.275,-0.009
22.280,-0.010
22.285,-0.011
22.290,-0.009
22.295,-0.008
22.300,-0.007
22.305,-0.006
22.310,-0.010
22.315,-0.009
22.320,-0.005
22.325,-0.007
22.330,-0.006
22.335,-0.005
22.340,-0.008
22.345,-0.006
22.350,-0.005
22.355,-0.004
22.360,-0.001
22.365,-0.003
22.370,-0.004
22.375,-0.003
22.380,-0.005
22.385,-0.006
22.390,-0.005
22.395,-0.007
22.400,-0.007
22.405,-0.002
22.410,-0.001
22.415,0.000
22.420,0.000
22.425,-0.004
22.430,-0.002
22.435,0.002
22.440,0.000
22.445,-0.004
22.450,-0.009
22.455,-0.011
22.460,-0.011
22.465,-0.013
22.470,-0.022
22.475,-0.035
22.480,-0.038
22.485,-0.035
22.490,-0.034
22.495,-0.033
22.500,-0.029
22.505,-0.026
22.510,-0.020
22.515,-0.011
22.520,-0.001
22.525,0.010
22.530,0.016
22.535,0.021
22.540,0.029
22.545,0.033
22.550,0.030
22.555,0.028
22.560,0.026
22.565,0.026
22.570,0.026
22.575,0.023
22.580,0.016
22.585,0.008
22.590,0.008
22.595,0.010
22.600,-0.003
22.605,-0.038
22.610,-0.105
22.615,-0.218
22.620,-0.372
22.625,-0.549
22.630,-0.679
22.635,-0.677
22.640,-0.533
22.645,-0.297
22.650,-0.050
22.655,0.158
22.660,0.299
22.665,0.329
22.670,0.264
22.675,0.198
22.680,0.186
22.685,0.199
22.690,0.204
22.695,0.197
22.700,0.190
22.705,0.190
22.710,0.183
22.715,0.173
22.720,0.167
22.725,0.159
22.730,0.148
22.735,0.141
22.740,0.134
22.745,0.126
22.750,0.119
22.755,0.114
22.760,0.107
22.765,0.101
22.770,0.098
22.775,0.090
22.780,0.081
22.785,0.072
22.790,0.063
22.795,0.060
22.800,0.059
22.805,0.053
22.810,0.040
22.815,0.030
22.820,0.025
22.825,0.019
22.830,0.010
22.835,0.002
22.840,-0.006
22.845,-0.011
22.850,-0.020
22.855,-0.028
22.860,-0.035
22.865,-0.044
22.870,-0.052
22.875,-0.056
22.880,-0.062
22.885,-0.069
22.890,-0.073
22.895,-0.078
22.900,-0.081
22.905,-0.080
22.910,-0.078
22.915,-0.078
22.920,-0.073
22.925,-0.067
22.930,-0.061
22.935,-0.051
22.940,-0.043
22.945,-0.034
22.950,-0.019
22.955,-0.003
22.960,0.005
22.965,0.014
22.970,0.025
22.975,0.036
22.980,0.046
22.985,0.053
22.990,0.054
22.995,0.059
23.000,0.063
23.005,0.061
23.010,0.058
23.015,0.055
23.020,0.053
23.025,0.053
23.030,0.050
23.035,0.047
23.040,0.045
23.045,0.042
23.050,0.037
23.055,0.037
23.060,0.037
23.065,0.033
23.070,0.032
23.075,0.027
23.080,0.024
23.085,0.024
23.090,0.022
23.095,0.022
23.100,0.020
23.105,0.013
23.110,0.011
23.115,0.012
23.120,0.011
23.125,0.012
23.130,0.009
23.135,0.005
23.140,0.004
23.145,0.006
23.150,0.006
23.155,0.003
23.160,0.001
23.165,0.001
23.170,0.001
23.175,-0.001
23.180,0.001
23.185,0.001
23.190,0.000
23.195,0.001
23.200,0.002
23.205,0.003
23.210,0.000
23.215,-0.003
23.220,-0.003
23.225,-0.003
23.230,-0.002
23.235,-0.003
23.240,-0.004
23.245,-0.006
23.250,-0.008
23.255,-0.006
23.260,-0.007
23.265,-0.007
23.270,-0.009
23.275,-0.010
23.280,-0.009
23.285,-0.010
23.290,-0.011
23.295,-0.013
23.300,-0.016
23.305,-0.015
23.310,-0.012
23.315,-0.011
23.320,-0.013
23.325,-0.016
23.330,-0.017
23.335,-0.016
23.340,-0.015
23.345,-0.014
23.350,-0.014
23.355,-0.015
23.360,-0.018
23.365,-0.018
23.370,-0.020
23.375,-0.022
23.380,-0.019
23.385,-0.017
23.390,-0.015
23.395,-0.015
23.400,-0.021
23.405,-0.020
23.410,-0.018
23.415,-0.017
23.420,-0.017
23.425,-0.019
23.430,-0.018
23.435,-0.015
23.440,-0.014
23.445,-0.016
23.450,-0.017
23.455,-0.016
23.460,-0.018
23.465,-0.017
23.470,-0.014
23.475,-0.017
23.480,-0.019
23.485,-0.017
23.490,-0.017
23.495,-0.013
23.500,-0.013
23.505,-0.016
23.510,-0.016
23.515,-0.016
23.520,-0.016
23.525,-0.014
23.530,-0.013
23.535,-0.013
23.540,-0.012
23.545,-0.012
23.550,-0.012
23.555,-0.013
23.560,-0.014
23.565,-0.014
23.570,-0.016
23.575,-0.015
23.580,-0.011
23.585,-0.009
23.590,-0.010
23.595,-0.013
23.600,-0.012
23.605,-0.007
23.610,-0.006
23.615,-0.009
23.620,-0.011
23.625,-0.010
23.630,-0.010
23.635,-0.010
23.640,-0.009
23.645,-0.010
23.650,-0.009
23.655,-0.005
23.660,-0.004
23.665,-0.006
23.670,-0.007
23.675,-0.011
23.680,-0.009
23.685,-0.006
23.690,-0.003
23.695,-0.002
23.700,-0.009
23.705,-0.011
23.710,-0.001
23.715,0.003
23.720,-0.001
23.725,-0.005
23.730,-0.006
23.735,-0.001
23.740,-0.001
23.745,-0.009
23.750,-0.009
23.755,-0.004
23.760,-0.005
23.765,-0.004
23.770,-0.004
23.775,-0.007
23.780,-0.008
23.785,-0.008
23.790,-0.010
23.795,-0.009
23.800,-0.013
23.805,-0.026
23.810,-0.034
23.815,-0.037
23.820,-0.041
23.825,-0.043
23.830,-0.041
23.835,-0.036
23.840,-0.028
23.845,-0.024
23.850,-0.026
23.855,-0.018
23.860,-0.002
23.865,0.012
23.870,0.018
23.875,0.020
23.880,0.021
23.885,0.024
23.890,0.030
23.895,0.034
23.900,0.033
23.905,0.024
23.910,0.017
23.915,0.013
23.920,0.013
23.925,0.026
23.930,0.031
23.935,0.026
23.940,0.022
23.945,0.010
23.950,-0.020
23.955,-0.089
23.960,-0.206
23.965,-0.358
23.970,-0.544
23.975,-0.703
23.980,-0.718
23.985,-0.560
23.990,-0.313
23.995,-0.068
24.000,0.140
24.005,0.286
24.010,0.335
24.015,0.279
24.020,0.200
24.025,0.182
24.030,0.209
24.035,0.228
24.040,0.225
24.045,0.212
24.050,0.202
24.055,0.198
24.060,0.195
24.065,0.186
24.070,0.171
24.075,0.153
24.080,0.136
24.085,0.141
24.090,0.143
24.095,0.132
24.100,0.132
24.105,0.117
24.110,0.101
24.115,0.097
24.120,0.100
24.125,0.102
24.130,0.086
24.135,0.078
24.140,0.085
24.145,0.086
24.150,0.082
24.155,0.061
24.160,0.043
24.165,0.036
24.170,0.025
24.175,0.025
24.180,0.020
24.185,0.009
24.190,0.006
24.195,-0.002
24.200,-0.014
24.205,-0.028
24.210,-0.041
24.215,-0.053
24.220,-0.068
24.225,-0.076
24.230,-0.073
24.235,-0.071
24.240,-0.071
24.245,-0.073
24.250,-0.080
24.255,-0.082
24.260,-0.080
24.265,-0.078
24.270,-0.070
24.275,-0.068
24.280,-0.066
24.285,-0.058
24.290,-0.049
24.295,-0.032
24.300,-0.014
24.305,0.001
24.310,0.006
24.315,0.010
24.320,0.021
24.325,0.031
24.330,0.038
24.335,0.040
24.340,0.040
24.345,0.043
24.350,0.049
24.355,0.048
24.360,0.049
24.365,0.053
24.370,0.041
24.375,0.039
24.380,0.044
24.385,0.042
24.390,0.045
24.395,0.036
24.400,0.025
24.405,0.033
24.410,0.038
24.415,0.028
24.420,0.014
24.425,0.007
24.430,0.009
24.435,0.012
24.440,0.011
24.445,0.012
24.450,0.014
24.455,0.009
24.460,0.002
24.465,-0.001
24.470,0.001
24.475,-0.003
24.480,-0.007
24.485,-0.004
24.490,-0.006
24.495,-0.005
24.500,0.000
24.505,0.000
24.510,-0.004
24.515,-0.006
24.520,-0.004
24.525,0.002
24.530,0.001
24.535,-0.008
24.540,-0.011
24.545,-0.006
24.550,-0.006
24.555,-0.008
24.560,-0.011
24.565,-0.012
24.570,-0.010
24.575,-0.015
24.580,-0.019
24.585,-0.016
24.590,-0.014
24.595,-0.015
24.600,-0.016
24.605,-0.008
24.610,-0.001
24.615,-0.008
24.620,-0.014
24.625,-0.020
24.630,-0.020
24.635,-0.015
24.640,-0.021
24.645,-0.025
24.650,-0.021
24.655,-0.024
24.660,-0.024
24.665,-0.019
24.670,-0.020
24.675,-0.017
24.680,-0.014
24.685,-0.017
24.690,-0.015
24.695,-0.015
24.700,-0.022
24.705,-0.023
24.710,-0.022
24.715,-0.019
24.720,-0.019
24.725,-0.023
24.730,-0.024
24.735,-0.022
24.740,-0.023
24.745,-0.022
24.750,-0.014
24.755,-0.013
24.760,-0.022
24.765,-0.019
24.770,-0.013
24.775,-0.015
24.780,-0.019
24.785,-0.020
24.790,-0.014
24.795,-0.011
24.800,-0.017
24.805,-0.018
24.810,-0.015
24.815,-0.020
24.820,-0.022
24.825,-0.016
24.830,-0.015
24.835,-0.017
24.840,-0.018
24.845,-0.011
24.850,-0.010
24.855,-0.019
24.860,-0.023
24.865,-0.016
24.870,-0.008
24.875,-0.006
24.880,-0.007
24.885,-0.009
24.890,-0.010
24.895,-0.009
24.900,-0.004
24.905,0.002
24.910,-0.004
24.915,-0.013
24.920,-0.014
24.925,-0.008
24.930,-0.005
24.935,-0.009
24.940,-0.011
24.945,-0.011
24.950,-0.010
24.955,-0.004
24.960,-0.001
24.965,-0.001
24.970,-0.004
24.975,-0.004
24.980,-0.002
24.985,-0.006
24.990,-0.007
24.995,-0.004
25.000,-0.002
25.005,0.001
25.010,-0.002
25.015,-0.010
25.020,-0.011
25.025,-0.007
25.030,-0.001
25.035,0.002
25.040,-0.002
25.045,-0.002
25.050,-0.001
25.055,-0.007
25.060,-0.005
25.065,0.002
25.070,-0.001
25.075,-0.003
25.080,-0.003
25.085,-0.004
25.090,-0.002
25.095,-0.002
25.100,-0.001
25.105,0.003
25.110,0.000
25.115,-0.005
25.120,-0.005
25.125,-0.010
25.130,-0.019
25.135,-0.025
25.140,-0.036
25.145,-0.044
25.150,-0.040
25.155,-0.033
25.160,-0.029
25.165,-0.030
25.170,-0.028
25.175,-0.026
25.180,-0.024
25.185,-0.010
25.190,0.008
25.195,0.015
25.200,0.020
25.205,0.030
25.210,0.036
25.215,0.030
25.220,0.021
25.225,0.025
25.230,0.036
25.235,0.036
25.240,0.026
25.245,0.020
25.250,0.017
25.255,0.014
25.260,0.011
25.265,0.004
25.270,-0.014
25.275,-0.049
25.280,-0.122
25.285,-0.244
25.290,-0.410
25.295,-0.602
25.300,-0.725
25.305,-0.695
25.310,-0.529
25.315,-0.277
25.320,-0.014
25.325,0.195
25.330,0.323
25.335,0.331
25.340,0.249
25.345,0.200
25.350,0.205
25.355,0.216
25.360,0.224
25.365,0.209
25.370,0.199
25.375,0.200
25.380,0.188
25.385,0.178
25.390,0.175
25.395,0.167
25.400,0.155
25.405,0.151
25.410,0.145
25.415,0.135
25.420,0.128
25.425,0.121
25.430,0.114
25.435,0.104
25.440,0.098
25.445,0.095
25.450,0.090
25.455,0.080
25.460,0.066
25.465,0.060
25.470,0.056
25.475,0.046
25.480,0.039
25.485,0.033
25.490,0.025
25.495,0.017
25.500,0.006
25.505,0.000
25.510,-0.006
25.515,-0.018
25.520,-0.023
25.525,-0.031
25.530,-0.043
25.535,-0.050
25.540,-0.061
25.545,-0.067
25.550,-0.072
25.555,-0.083
25.560,-0.088
25.565,-0.092
25.570,-0.093
25.575,-0.088
25.580,-0.084
25.585,-0.082
25.590,-0.081
25.595,-0.079
25.600,-0.073
25.605,-0.059
25.610,-0.046
25.615,-0.033
25.620,-0.021
25.625,-0.013
25.630,-0.002
25.635,0.014
25.640,0.030
25.645,0.044
25.650,0.046
25.655,0.045
25.660,0.055
25.665,0.072
25.670,0.073
25.675,0.063
25.680,0.057
25.685,0.057
25.690,0.061
25.695,0.061
25.700,0.054
25.705,0.048
25.710,0.045
25.715,0.043
25.720,0.043
25.725,0.043
25.730,0.037
25.735,0.033
25.740,0.029
25.745,0.028
25.750,0.031
25.755,0.029
25.760,0.023
25.765,0.021
25.770,0.027
25.775,0.024
25.780,0.014
25.785,0.010
25.790,0.012
25.795,0.013
25.800,0.009
25.805,0.009
25.810,0.010
25.815,0.010
25.820,0.008
25.825,0.009
25.830,0.011
25.835,0.008
25.840,0.005
25.845,0.006
25.850,0.007
25.855,0.002
25.860,0.005
25.865,0.009
25.870,0.006
25.875,0.001
25.880,-0.005
25.885,-0.004
25.890,0.000
25.895,0.001
25.900,0.000
25.905,-0.001
25.910,-0.001
25.915,-0.002
25.920,-0.008
25.925,-0.012
25.930,-0.006
25.935,-0.007
25.940,-0.011
25.945,-0.018
25.950,-0.020
25.955,-0.008
25.960,-0.005
25.965,-0.010
25.970,-0.011
25.975,-0.012
25.980,-0.012
25.985,-0.013
25.990,-0.016
25.995,-0.019
26.000,-0.015
26.005,-0.013
26.010,-0.016
26.015,-0.017
26.020,-0.019
26.025,-0.020
26.030,-0.021
26.035,-0.022
26.040,-0.019
26.045,-0.015
26.050,-0.017
26.055,-0.023
26.060,-0.024
26.065,-0.018
26.070,-0.013
26.075,-0.016
26.080,-0.022
26.085,-0.023
26.090,-0.017
26.095,-0.009
26.100,-0.013
26.105,-0.019
26.110,-0.016
26.115,-0.019
26.120,-0.021
26.125,-0.018
26.130,-0.018
26.135,-0.018
26.140,-0.023
26.145,-0.021
26.150,-0.011
26.155,-0.009
26.160,-0.014
26.165,-0.018
26.170,-0.017
26.175,-0.013
26.180,-0.013
26.185,-0.017
26.190,-0.019
26.195,-0.018
26.200,-0.014
26.205,-0.017
26.210,-0.022
26.215,-0.019
26.220,-0.014
26.225,-0.008
26.230,-0.006
26.235,-0.010
26.240,-0.014
26.245,-0.013
26.250,-0.009
26.255,-0.006
26.260,-0.007
26.265,-0.009
26.270,-0.008
26.275,-0.009
26.280,-0.013
26.285,-0.014
26.290,-0.012
26.295,-0.006
26.300,-0.007
26.305,-0.013
26.310,-0.010
26.315,-0.007
26.320,-0.004
26.325,0.000
26.330,-0.005
26.335,-0.007
26.340,-0.006
26.345,-0.008
26.350,-0.009
26.355,-0.008
26.360,-0.010
26.365,-0.007
26.370,0.001
26.375,0.001
26.380,-0.004
26.385,-0.005
26.390,-0.002
26.395,0.001
26.400,-0.004
26.405,-0.008
26.410,-0.009
26.415,-0.011
26.420,-0.013
26.425,-0.012
26.430,-0.015
26.435,-0.025
26.440,-0.035
26.445,-0.038
26.450,-0.030
26.455,-0.026
26.460,-0.026
26.465,-0.024
26.470,-0.022
26.475,-0.015
26.480,0.000
26.485,0.014
26.490,0.019
26.495,0.015
26.500,0.016
26.505,0.019
26.510,0.021
26.515,0.025
26.520,0.023
26.525,0.022
26.530,0.023
26.535,0.021
26.540,0.018
26.545,0.013
26.550,0.005
26.555,0.001
26.560,-0.002
26.565,-0.023
26.570,-0.074
26.575,-0.171
26.580,-0.308
26.585,-0.462
26.590,-0.602
26.595,-0.647
26.600,-0.561
26.605,-0.367
26.610,-0.120
26.615,0.102
26.620,0.257
26.625,0.316
26.630,0.268
26.635,0.195
26.640,0.173
26.645,0.184
26.650,0.193
26.655,0.191
26.660,0.182
26.665,0.178
26.670,0.174
26.675,0.162
26.680,0.155
26.685,0.152
26.690,0.146
26.695,0.140
26.700,0.133
26.705,0.119
26.710,0.112
26.715,0.111
26.720,0.108
26.725,0.100
26.730,0.094
26.735,0.085
26.740,0.076
26.745,0.074
26.750,0.068
26.755,0.060
26.760,0.048
26.765,0.041
26.770,0.043
26.775,0.037
26.780,0.026
26.785,0.020
26.790,0.014
26.795,0.008
26.800,0.002
26.805,-0.009
26.810,-0.020
26.815,-0.026
26.820,-0.029
26.825,-0.038
26.830,-0.051
26.835,-0.059
26.840,-0.063
26.845,-0.066
26.850,-0.072
26.855,-0.074
26.860,-0.075
26.865,-0.077
26.870,-0.079
26.875,-0.080
26.880,-0.078
26.885,-0.072
26.890,-0.061
26.895,-0.050
26.900,-0.041
26.905,-0.031
26.910,-0.021
26.915,-0.007
26.920,0.005
26.925,0.016
26.930,0.028
26.935,0.036
26.940,0.039
26.945,0.042
26.950,0.048
26.955,0.054
26.960,0.057
26.965,0.058
26.970,0.058
26.975,0.056
26.980,0.055
26.985,0.054
26.990,0.049
26.995,0.047
27.000,0.046
27.005,0.042
27.010,0.041
27.015,0.040
27.020,0.039
27.025,0.037
27.030,0.028
27.035,0.021
27.040,0.025
27.045,0.026
27.050,0.022
27.055,0.019
27.060,0.016
27.065,0.018
27.070,0.018
27.075,0.013
27.080,0.012
27.085,0.010
27.090,0.008
27.095,0.006
27.100,0.003
27.105,0.002
27.110,0.006
27.115,0.009
27.120,0.008
27.125,0.006
27.130,0.003
27.135,0.002
27.140,0.003
27.145,0.001
27.150,-0.002
27.155,-0.004
27.160,0.000
27.165,0.002
27.170,0.001
27.175,0.000
27.180,-0.004
27.185,-0.007
27.190,-0.006
27.195,-0.001
27.200,-0.001
27.205,-0.008
27.210,-0.011
27.215,-0.007
27.220,-0.004
27.225,-0.010
27.230,-0.014
27.235,-0.010
27.240,-0.006
27.245,-0.008
27.250,-0.012
27.255,-0.015
27.260,-0.013
27.265,-0.011
27.270,-0.008
27.275,-0.009
27.280,-0.013
27.285,-0.011
27.290,-0.011
27.295,-0.015
27.300,-0.017
27.305,-0.015
27.310,-0.013
27.315,-0.014
27.320,-0.018
27.325,-0.019
27.330,-0.020
27.335,-0.021
27.340,-0.019
27.345,-0.018
27.350,-0.012
27.355,-0.009
27.360,-0.011
27.365,-0.013
27.370,-0.016
27.375,-0.015
27.380,-0.014
27.385,-0.017
27.390,-0.016
27.395,-0.013
27.400,-0.019
27.405,-0.022
27.410,-0.019
27.415,-0.018
27.420,-0.012
27.425,-0.008
27.430,-0.011
27.435,-0.014
27.440,-0.017
27.445,-0.016
27.450,-0.011
27.455,-0.016
27.460,-0.021
27.465,-0.017
27.470,-0.012
27.475,-0.013
27.480,-0.015
27.485,-0.014
27.490,-0.012
27.495,-0.013
27.500,-0.012
27.505,-0.009
27.510,-0.010
27.515,-0.014
27.520,-0.018
27.525,-0.014
27.530,-0.009
27.535,-0.012
27.540,-0.011
27.545,-0.013
27.550,-0.013
27.555,-0.009
27.560,-0.011
27.565,-0.013
27.570,-0.015
27.575,-0.011
27.580,-0.005
27.585,-0.003
27.590,-0.005
27.595,-0.006
27.600,-0.005
27.605,-0.009
27.610,-0.013
27.615,-0.010
27.620,-0.010
27.625,-0.008
27.630,-0.005
27.635,-0.007
27.640,-0.008
27.645,-0.008
27.650,-0.005
27.655,0.001
27.660,-0.002
27.665,-0.006
27.670,-0.006
27.675,-0.006
27.680,-0.008
27.685,-0.008
27.690,-0.005
27.695,-0.004
27.700,-0.005
27.705,-0.011
27.710,-0.016
27.715,-0.013
27.720,-0.014
27.725,-0.022
27.730,-0.035
27.735,-0.043
27.740,-0.038
27.745,-0.028
27.750,-0.026
27.755,-0.028
27.760,-0.027
27.765,-0.023
27.770,-0.014
27.775,-0.004
27.780,0.008
27.785,0.017
27.790,0.017
27.795,0.019
27.800,0.024
27.805,0.028
27.810,0.028
27.815,0.026
27.820,0.027
27.825,0.025
27.830,0.021
27.835,0.017
27.840,0.014
27.845,0.007
27.850,-0.002
27.855,-0.008
27.860,-0.027
27.865,-0.081
27.870,-0.175
27.875,-0.308
27.880,-0.479
27.885,-0.647
27.890,-0.707
27.895,-0.610
27.900,-0.399
27.905,-0.139
27.910,0.089
27.915,0.257
27.920,0.329
27.925,0.282
27.930,0.210
27.935,0.189
27.940,0.198
27.945,0.209
27.950,0.207
27.955,0.194
27.960,0.188
27.965,0.187
27.970,0.180
27.975,0.171
27.980,0.163
27.985,0.153
27.990,0.146
27.995,0.142
28.000,0.130
28.005,0.122
28.010,0.122
28.015,0.114
28.020,0.104
28.025,0.096
28.030,0.092
28.035,0.087
28.040,0.077
28.045,0.069
28.050,0.063
28.055,0.060
28.060,0.053
28.065,0.042
28.070,0.037
28.075,0.035
28.080,0.028
28.085,0.017
28.090,0.005
28.095,-0.006
28.100,-0.012
28.105,-0.017
28.110,-0.023
28.115,-0.030
28.120,-0.042
28.125,-0.052
28.130,-0.055
28.135,-0.062
28.140,-0.069
28.145,-0.070
28.150,-0.075
28.155,-0.084
28.160,-0.089
28.165,-0.086
28.170,-0.081
28.175,-0.077
28.180,-0.075
28.185,-0.071
28.190,-0.063
28.195,-0.055
28.200,-0.044
28.205,-0.027
28.210,-0.013
28.215,-0.001
28.220,0.011
28.225,0.021
28.230,0.028
28.235,0.037
28.240,0.049
28.245,0.054
28.250,0.052
28.255,0.051
28.260,0.055
28.265,0.058
28.270,0.053
28.275,0.050
28.280,0.051
28.285,0.051
28.290,0.048
28.295,0.045
28.300,0.043
28.305,0.041
28.310,0.037
28.315,0.034
28.320,0.034
28.325,0.030
28.330,0.026
28.335,0.026
28.340,0.022
28.345,0.019
28.350,0.019
28.355,0.017
28.360,0.017
28.365,0.016
28.370,0.011
28.375,0.008
28.380,0.009
28.385,0.013
28.390,0.013
28.395,0.010
28.400,0.006
28.405,0.005
28.410,0.006
28.415,0.010
28.420,0.009
28.425,0.006
28.430,0.005
28.435,0.003
28.440,0.002
28.445,0.005
28.450,0.005
28.455,0.004
28.460,0.007
28.465,0.004
28.470,-0.002
28.475,-0.003
28.480,-0.003
28.485,-0.001
28.490,-0.003
28.495,-0.007
28.500,-0.004
28.505,-0.002
28.510,-0.003
28.515,-0.006
28.520,-0.008
28.525,-0.009
28.530,-0.013
28.535,-0.012
28.540,-0.009
28.545,-0.009
28.550,-0.012
28.555,-0.015
28.560,-0.013
28.565,-0.011
28.570,-0.012
28.575,-0.015
28.580,-0.016
28.585,-0.014
28.590,-0.011
28.595,-0.009
28.600,-0.015
28.605,-0.019
28.610,-0.018
28.615,-0.018
28.620,-0.016
28.625,-0.018
28.630,-0.017
28.635,-0.014
28.640,-0.016
28.645,-0.019
28.650,-0.021
28.655,-0.019
28.660,-0.017
28.665,-0.014
28.670,-0.013
28.675,-0.016
28.680,-0.019
28.685,-0.021
28.690,-0.022
28.695,-0.017
28.700,-0.017
28.705,-0.021
28.710,-0.019
28.715,-0.017
28.720,-0.016
28.725,-0.015
28.730,-0.018
28.735,-0.016
28.740,-0.015
28.745,-0.015
28.750,-0.013
28.755,-0.012
28.760,-0.014
28.765,-0.018
28.770,-0.015
28.775,-0.009
28.780,-0.014
28.785,-0.016
28.790,-0.015
28.795,-0.014
28.800,-0.012
28.805,-0.012
28.810,-0.013
28.815,-0.012
28.820,-0.011
28.825,-0.013
28.830,-0.013
28.835,-0.012
28.840,-0.011
28.845,-0.009
28.850,-0.009
28.855,-0.012
28.860,-0.013
28.865,-0.009
28.870,-0.005
28.875,-0.006
28.880,-0.007
28.885,-0.007
28.890,-0.006
28.895,-0.006
28.900,-0.009
28.905,-0.011
28.910,-0.010
28.915,-0.006
28.920,-0.004
28.925,-0.005
28.930,-0.006
28.935,-0.007
28.940,-0.008
28.945,-0.004
28.950,-0.002
28.955,-0.003
28.960,-0.004
28.965,-0.007
28.970,-0.008
28.975,-0.004
28.980,-0.006
28.985,-0.007
28.990,-0.002
28.995,-0.003
29.000,-0.006
29.005,-0.011
29.010,-0.013
29.015,-0.011
29.020,-0.014
29.025,-0.025
29.030,-0.035
29.035,-0.040
29.040,-0.036
29.045,-0.033
29.050,-0.034
29.055,-0.034
29.060,-0.032
29.065,-0.029
29.070,-0.025
29.075,-0.011
29.080,0.005
29.085,0.012
29.090,0.015
29.095,0.023
29.100,0.033
29.105,0.033
29.110,0.030
29.115,0.030
29.120,0.028
29.125,0.022
29.130,0.021
29.135,0.021
29.140,0.018
29.145,0.010
29.150,0.003
29.155,0.001
29.160,-0.015
29.165,-0.051
29.170,-0.115
29.175,-0.233
29.180,-0.398
29.185,-0.586
29.190,-0.715
29.195,-0.700
29.200,-0.545
29.205,-0.299
29.210,-0.039
29.215,0.182
29.220,0.317
29.225,0.327
29.230,0.253
29.235,0.195
29.240,0.197
29.245,0.213
29.250,0.218
29.255,0.205
29.260,0.194
29.265,0.198
29.270,0.196
29.275,0.186
29.280,0.178
29.285,0.168
29.290,0.160
29.295,0.153
29.300,0.143
29.305,0.135
29.310,0.127
29.315,0.118
29.320,0.112
29.325,0.103
29.330,0.093
29.335,0.087
29.340,0.084
29.345,0.080
29.350,0.073
29.355,0.062
29.360,0.056
29.365,0.051
29.370,0.042
29.375,0.035
29.380,0.026
29.385,0.022
29.390,0.015
29.395,0.004
29.400,-0.006
29.405,-0.016
29.410,-0.022
29.415,-0.030
29.420,-0.041
29.425,-0.047
29.430,-0.059
29.435,-0.063
29.440,-0.063
29.445,-0.072
29.450,-0.077
29.455,-0.081
29.460,-0.081
29.465,-0.078
29.470,-0.081
29.475,-0.085
29.480,-0.084
29.485,-0.074
29.490,-0.061
29.495,-0.051
29.500,-0.042
29.505,-0.036
29.510,-0.025
29.515,-0.007
29.520,0.008
29.525,0.022
29.530,0.032
29.535,0.041
29.540,0.049
29.545,0.050
29.550,0.046
29.555,0.049
29.560,0.057
29.565,0.061
29.570,0.061
29.575,0.059
29.580,0.057
29.585,0.050
29.590,0.046
29.595,0.049
29.600,0.052
29.605,0.046
29.610,0.038
29.615,0.036
29.620,0.035
29.625,0.030
29.630,0.027
29.635,0.028
29.640,0.028
29.645,0.022
29.650,0.019
29.655,0.021
29.660,0.019
29.665,0.019
29.670,0.016
29.675,0.013
29.680,0.014
29.685,0.014
29.690,0.013
29.695,0.008
29.700,0.002
29.705,0.006
29.710,0.010
29.715,0.010
29.720,0.009
29.725,0.007
29.730,0.006
29.735,0.003
29.740,0.000
29.745,0.005
29.750,0.008
29.755,0.004
29.760,0.002
29.765,0.000
29.770,-0.001
29.775,-0.002
29.780,-0.005
29.785,-0.004
29.790,-0.005
29.795,-0.009
29.800,-0.007
29.805,-0.010
29.810,-0.011
29.815,-0.008
29.820,-0.006
29.825,-0.004
29.830,-0.009
29.835,-0.010
29.840,-0.011
29.845,-0.014
29.850,-0.012
29.855,-0.010
29.860,-0.007
29.865,-0.011
29.870,-0.018
29.875,-0.017
29.880,-0.016
29.885,-0.015
29.890,-0.014
29.895,-0.016
29.900,-0.015
29.905,-0.014
29.910,-0.014
29.915,-0.016
29.920,-0.023
29.925,-0.025
29.930,-0.017
29.935,-0.014
29.940,-0.017
29.945,-0.020
29.950,-0.017
29.955,-0.015
29.960,-0.018
29.965,-0.021
29.970,-0.023
29.975,-0.018
29.980,-0.016
29.985,-0.020
29.990,-0.016
29.995,-0.013
30.000,-0.011
30.005,-0.014
30.010,-0.020
30.015,-0.018
30.020,-0.017
30.025,-0.019
30.030,-0.020
30.035,-0.020
30.040,-0.014
30.045,-0.013
30.050,-0.017
30.055,-0.019
30.060,-0.017
30.065,-0.011
30.070,-0.011
30.075,-0.017
30.080,-0.018
30.085,-0.017
30.090,-0.011
30.095,-0.008
30.100,-0.012
30.105,-0.013
30.110,-0.010
30.115,-0.010
30.120,-0.011
30.125,-0.011
30.130,-0.011
30.135,-0.012
30.140,-0.011
30.145,-0.013
30.150,-0.012
30.155,-0.009
30.160,-0.009
30.165,-0.009
30.170,-0.011
30.175,-0.013
30.180,-0.013
30.185,-0.013
30.190,-0.006
30.195,-0.002
30.200,-0.007
30.205,-0.009
30.210,-0.007
30.215,-0.004
30.220,-0.003
30.225,-0.006
30.230,-0.009
30.235,-0.005
30.240,-0.002
30.245,-0.003
30.250,0.000
30.255,-0.001
30.260,-0.005
30.265,-0.001
30.270,0.000
30.275,-0.003
30.280,-0.003
30.285,-0.007
30.290,-0.009
30.295,-0.009
30.300,-0.011
30.305,-0.016
30.310,-0.023
30.315,-0.027
30.320,-0.033
30.325,-0.036
30.330,-0.031
30.335,-0.029
30.340,-0.028
30.345,-0.028
30.350,-0.028
30.355,-0.020
30.360,-0.010
30.365,-0.001
30.370,0.010
30.375,0.017
30.380,0.020
30.385,0.020
30.390,0.022
30.395,0.023
30.400,0.025
30.405,0.028
30.410,0.026
30.415,0.026
30.420,0.023
30.425,0.015
30.430,0.009
30.435,0.006
30.440,0.007
30.445,-0.002
30.450,-0.032
30.455,-0.088
30.460,-0.179
30.465,-0.310
30.470,-0.476
30.475,-0.625
30.480,-0.662
30.485,-0.559
30.490,-0.352
30.495,-0.107
30.500,0.109
30.505,0.263
30.510,0.316
30.515,0.264
30.520,0.195
30.525,0.178
30.530,0.190
30.535,0.198
30.540,0.194
30.545,0.186
30.550,0.184
30.555,0.178
30.560,0.167
30.565,0.159
30.570,0.153
30.575,0.144
30.580,0.136
30.585,0.134
30.590,0.126
30.595,0.117
30.600,0.113
30.605,0.102
30.610,0.092
30.615,0.093
30.620,0.093
30.625,0.086
30.630,0.077
30.635,0.066
30.640,0.061
30.645,0.057
30.650,0.049
30.655,0.041
30.660,0.033
30.665,0.026
30.670,0.019
30.675,0.014
30.680,0.008
30.685,-0.001
30.690,-0.009
30.695,-0.019
30.700,-0.026
30.705,-0.031
30.710,-0.041
30.715,-0.051
30.720,-0.058
30.725,-0.066
30.730,-0.072
30.735,-0.074
30.740,-0.074
30.745,-0.077
30.750,-0.077
30.755,-0.076
30.760,-0.075
30.765,-0.073
30.770,-0.070
30.775,-0.063
30.780,-0.054
30.785,-0.045
30.790,-0.034
30.795,-0.022
30.800,-0.011
30.805,0.001
30.810,0.011
30.815,0.021
30.820,0.031
30.825,0.038
30.830,0.047
30.835,0.052
30.840,0.054
30.845,0.054
30.850,0.056
30.855,0.056
30.860,0.054
30.865,0.053
30.870,0.050
30.875,0.051
30.880,0.047
30.885,0.038
30.890,0.038
30.895,0.041
30.900,0.040
30.905,0.032
30.910,0.025
30.915,0.025
30.920,0.026
30.925,0.025
30.930,0.024
30.935,0.022
30.940,0.020
30.945,0.017
30.950,0.016
30.955,0.014
30.960,0.011
30.965,0.010
30.970,0.010
30.975,0.007
30.980,0.004
30.985,0.006
30.990,0.009
30.995,0.008
31.000,0.003
31.005,-0.001
31.010,0.001
31.015,0.001
31.020,0.001
31.025,0.002
31.030,-0.001
31.035,-0.001
31.040,0.000
31.045,0.001
31.050,0.004
31.055,0.000
31.060,-0.002
31.065,-0.002
31.070,-0.006
31.075,-0.004
31.080,0.001
31.085,0.001
31.090,-0.002
31.095,-0.007
31.100,-0.007
31.105,-0.006
31.110,-0.007
31.115,-0.008
31.120,-0.010
31.125,-0.010
31.130,-0.011
31.135,-0.010
31.140,-0.010
31.145,-0.012
31.150,-0.012
31.155,-0.013
31.160,-0.014
31.165,-0.013
31.170,-0.012
31.175,-0.012
31.180,-0.015
31.185,-0.015
31.190,-0.014
31.195,-0.015
31.200,-0.019
31.205,-0.016
31.210,-0.011
31.215,-0.013
31.220,-0.017
31.225,-0.020
31.230,-0.021
31.235,-0.018
31.240,-0.017
31.245,-0.019
31.250,-0.017
31.255,-0.015
31.260,-0.016
31.265,-0.016
31.270,-0.017
31.275,-0.016
31.280,-0.016
31.285,-0.016
31.290,-0.016
31.295,-0.017
31.300,-0.015
31.305,-0.012
31.310,-0.013
31.315,-0.014
31.320,-0.019
31.325,-0.020
31.330,-0.018
31.335,-0.018
31.340,-0.015
31.345,-0.015
31.350,-0.017
31.355,-0.014
31.360,-0.015
31.365,-0.016
31.370,-0.013
31.375,-0.013
31.380,-0.013
31.385,-0.014
31.390,-0.015
31.395,-0.015
31.400,-0.015
31.405,-0.013
31.410,-0.011
31.415,-0.010
31.420,-0.010
31.425,-0.010
31.430,-0.008
31.435,-0.010
31.440,-0.013
31.445,-0.012
31.450,-0.009
31.455,-0.006
31.460,-0.007
31.465,-0.010
31.470,-0.013
31.475,-0.009
31.480,-0.006
31.485,-0.007
31.490,-0.008
31.495,-0.009
31.500,-0.004
31.505,-0.004
31.510,-0.008
31.515,-0.006
31.520,-0.004
31.525,-0.001
31.530,-0.004
31.535,-0.010
31.540,-0.007
31.545,-0.006
31.550,-0.004
31.555,-0.001
31.560,-0.003
31.565,-0.002
31.570,0.001
31.575,-0.003
31.580,-0.008
31.585,-0.011
31.590,-0.016
31.595,-0.018
31.600,-0.023
31.605,-0.029
31.610,-0.033
31.615,-0.041
31.620,-0.042
31.625,-0.034
31.630,-0.028
31.635,-0.027
31.640,-0.034
31.645,-0.031
31.650,-0.017
31.655,-0.006
31.660,0.006
31.665,0.013
31.670,0.015
31.675,0.023
31.680,0.032
31.685,0.035
31.690,0.035
31.695,0.033
31.700,0.028
31.705,0.026
31.710,0.021
31.715,0.019
31.720,0.019
31.725,0.013
31.730,0.004
31.735,-0.003
31.740,-0.017
31.745,-0.060
31.750,-0.147
31.755,-0.278
31.760,-0.448
31.765,-0.633
31.770,-0.732
31.775,-0.674
31.780,-0.478
31.785,-0.209
31.790,0.036
31.795,0.228
31.800,0.331
31.805,0.307
31.810,0.229
31.815,0.193
31.820,0.202
31.825,0.216
31.830,0.215
31.835,0.206
31.840,0.202
31.845,0.195
31.850,0.186
31.855,0.181
31.860,0.175
31.865,0.164
31.870,0.157
31.875,0.156
31.880,0.146
31.885,0.130
31.890,0.127
31.895,0.122
31.900,0.113
31.905,0.105
31.910,0.096
31.915,0.091
31.920,0.088
31.925,0.078
31.930,0.065
31.935,0.057
31.940,0.051
31.945,0.048
31.950,0.045
31.955,0.036
31.960,0.028
31.965,0.023
31.970,0.013
31.975,0.003
31.980,-0.006
31.985,-0.014
31.990,-0.023
31.995,-0.032
32.000,-0.039
32.005,-0.048
32.010,-0.058
32.015,-0.065
32.020,-0.071
32.025,-0.075
32.030,-0.082
32.035,-0.087
32.040,-0.086
32.045,-0.083
32.050,-0.081
32.055,-0.082
32.060,-0.079
32.065,-0.075
32.070,-0.069
32.075,-0.058
32.080,-0.047
32.085,-0.034
32.090,-0.021
32.095,-0.014
32.100,-0.003
32.105,0.016
32.110,0.030
32.115,0.037
32.120,0.040
32.125,0.044
32.130,0.052
32.135,0.057
32.140,0.054
32.145,0.054
32.150,0.055
32.155,0.052
32.160,0.051
32.165,0.047
32.170,0.043
32.175,0.043
32.180,0.040
32.185,0.037
32.190,0.035
32.195,0.031
32.200,0.026
32.205,0.023
32.210,0.029
32.215,0.032
32.220,0.026
32.225,0.023
32.230,0.021
32.235,0.016
32.240,0.015
32.245,0.013
32.250,0.014
32.255,0.015
32.260,0.012
32.265,0.012
32.270,0.011
32.275,0.004
32.280,0.004
32.285,0.010
32.290,0.012
32.295,0.007
32.300,0.003
32.305,0.003
32.310,0.003
32.315,0.008
32.320,0.009
32.325,0.006
32.330,0.003
32.335,0.000
32.340,-0.001
32.345,-0.001
32.350,0.003
32.355,0.006
32.360,0.003
32.365,-0.002
32.370,-0.003
32.375,-0.003
32.380,-0.007
32.385,-0.005
32.390,-0.003
32.395,-0.008
32.400,-0.010
32.405,-0.010
32.410,-0.006
32.415,-0.004
32.420,-0.009
32.425,-0.009
32.430,-0.006
32.435,-0.011
32.440,-0.013
32.445,-0.013
32.450,-0.017
32.455,-0.019
32.460,-0.015
32.465,-0.013
32.470,-0.013
32.475,-0.017
32.480,-0.018
32.485,-0.015
32.490,-0.014
32.495,-0.013
32.500,-0.015
32.505,-0.018
32.510,-0.019
32.515,-0.020
32.520,-0.021
32.525,-0.021
32.530,-0.016
32.535,-0.016
32.540,-0.020
32.545,-0.022
32.550,-0.018
32.555,-0.015
32.560,-0.012
32.565,-0.015
32.570,-0.019
32.575,-0.018
32.580,-0.019
32.585,-0.020
32.590,-0.018
32.595,-0.017
32.600,-0.015
32.605,-0.014
32.610,-0.018
32.615,-0.019
32.620,-0.016
32.625,-0.019
32.630,-0.019
32.635,-0.015
32.640,-0.014
32.645,-0.014
32.650,-0.014
32.655,-0.012
32.660,-0.013
32.665,-0.016
32.670,-0.015
32.675,-0.014
32.680,-0.015
32.685,-0.018
32.690,-0.016
32.695,-0.012
32.700,-0.011
32.705,-0.011
32.710,-0.010
32.715,-0.009
32.720,-0.012
32.725,-0.011
32.730,-0.010
32.735,-0.011
32.740,-0.009
32.745,-0.011
32.750,-0.013
32.755,-0.008
32.760,-0.009
32.765,-0.013
32.770,-0.012
32.775,-0.012
32.780,-0.009
32.785,-0.004
32.790,-0.005
32.795,-0.008
32.800,-0.010
32.805,-0.010
32.810,-0.004
32.815,0.002
32.820,-0.003
32.825,-0.013
32.830,-0.011
32.835,-0.005
32.840,0.000
32.845,-0.007
32.850,-0.014
32.855,-0.006
32.860,0.000
32.865,-0.001
32.870,-0.004
32.875,-0.005
32.880,-0.005
32.885,-0.005
32.890,-0.007
32.895,-0.012
32.900,-0.014
32.905,-0.017
32.910,-0.017
32.915,-0.016
32.920,-0.032
32.925,-0.049
32.930,-0.047
32.935,-0.036
32.940,-0.030
32.945,-0.032
32.950,-0.032
32.955,-0.020
32.960,-0.014
32.965,-0.010
32.970,0.001
32.975,0.010
32.980,0.015
32.985,0.017
32.990,0.021
32.995,0.028
33.000,0.026
33.005,0.023
33.010,0.027
33.015,0.027
33.020,0.021
33.025,0.018
33.030,0.018
33.035,0.018
33.040,0.016
33.045,0.004
33.050,-0.019
33.055,-0.061
33.060,-0.143
33.065,-0.265
33.070,-0.421
33.075,-0.594
33.080,-0.689
33.085,-0.640
33.090,-0.466
33.095,-0.218
33.100,0.020
33.105,0.211
33.110,0.325
33.115,0.322
33.120,0.244
33.125,0.193
33.130,0.192
33.135,0.198
33.140,0.200
33.145,0.192
33.150,0.191
33.155,0.193
33.160,0.180
33.165,0.173
33.170,0.167
33.175,0.156
33.180,0.147
33.185,0.140
33.190,0.130
33.195,0.121
33.200,0.119
33.205,0.121
33.210,0.114
33.215,0.098
33.220,0.091
33.225,0.090
33.230,0.089
33.235,0.080
33.240,0.059
33.245,0.049
33.250,0.050
33.255,0.046
33.260,0.041
33.265,0.034
33.270,0.025
33.275,0.020
33.280,0.013
33.285,0.003
33.290,-0.006
33.295,-0.010
33.300,-0.014
33.305,-0.021
33.310,-0.034
33.315,-0.049
33.320,-0.054
33.325,-0.059
33.330,-0.066
33.335,-0.069
33.340,-0.070
33.345,-0.072
33.350,-0.073
33.355,-0.072
33.360,-0.075
33.365,-0.075
33.370,-0.067
33.375,-0.059
33.380,-0.055
33.385,-0.050
33.390,-0.039
33.395,-0.021
33.400,-0.006
33.405,0.002
33.410,0.010
33.415,0.024
33.420,0.037
33.425,0.047
33.430,0.050
33.435,0.049
33.440,0.053
33.445,0.059
33.450,0.063
33.455,0.058
33.460,0.055
33.465,0.057
33.470,0.059
33.475,0.061
33.480,0.052
33.485,0.043
33.490,0.046
33.495,0.042
33.500,0.035
33.505,0.032
33.510,0.033
33.515,0.034
33.520,0.029
33.525,0.025
33.530,0.023
33.535,0.023
33.540,0.015
33.545,0.007
33.550,0.014
33.555,0.016
33.560,0.014
33.565,0.019
33.570,0.018
33.575,0.011
33.580,0.007
33.585,0.003
33.590,0.004
33.595,0.005
33.600,0.003
33.605,0.001
33.610,-0.001
33.615,-0.001
33.620,0.000
33.625,0.001
33.630,0.001
33.635,0.001
33.640,-0.003
33.645,-0.006
33.650,0.002
33.655,0.008
33.660,0.000
33.665,-0.010
33.670,-0.009
33.675,-0.003
33.680,-0.003
33.685,-0.008
33.690,-0.006
33.695,0.003
33.700,0.001
33.705,-0.012
33.710,-0.018
33.715,-0.013
33.720,-0.010
33.725,-0.009
33.730,-0.008
33.735,-0.011
33.740,-0.013
33.745,-0.016
33.750,-0.020
33.755,-0.016
33.760,-0.008
33.765,-0.013
33.770,-0.018
33.775,-0.014
33.780,-0.014
33.785,-0.018
33.790,-0.013
33.795,-0.014
33.800,-0.018
33.805,-0.018
33.810,-0.019
33.815,-0.019
33.820,-0.019
33.825,-0.020
33.830,-0.018
33.835,-0.018
33.840,-0.022
33.845,-0.019
33.850,-0.016
33.855,-0.013
33.860,-0.009
33.865,-0.013
33.870,-0.017
33.875,-0.016
33.880,-0.020
33.885,-0.021
33.890,-0.021
33.895,-0.017
33.900,-0.009
33.905,-0.008
33.910,-0.015
33.915,-0.020
33.920,-0.023
33.925,-0.025
33.930,-0.022
33.935,-0.014
33.940,-0.009
33.945,-0.007
33.950,-0.010
33.955,-0.017
33.960,-0.018
33.965,-0.010
33.970,-0.008
33.975,-0.016
33.980,-0.014
33.985,-0.001
33.990,0.005
33.995,-0.006
34.000,-0.020
34.005,-0.015
34.010,-0.004
34.015,-0.010
34.020,-0.013
34.025,-0.012
34.030,-0.008
34.035,-0.006
34.040,-0.011
34.045,-0.010
34.050,-0.006
34.055,-0.009
34.060,-0.011
34.065,-0.009
34.070,-0.008
34.075,-0.012
34.080,-0.014
34.085,-0.016
34.090,-0.012
34.095,-0.003
34.100,0.000
34.105,-0.003
34.110,-0.008
34.115,-0.010
34.120,-0.007
34.125,-0.008
34.130,-0.010
34.135,-0.009
34.140,-0.008
34.145,-0.004
34.150,-0.005
34.155,-0.011
34.160,-0.011
34.165,-0.007
34.170,-0.005
34.175,-0.012
34.180,-0.024
34.185,-0.023
34.190,-0.017
34.195,-0.020
34.200,-0.038
34.205,-0.053
34.210,-0.045
34.215,-0.039
34.220,-0.037
34.225,-0.026
34.230,-0.021
34.235,-0.016
34.240,-0.016
34.245,-0.017
34.250,0.002
34.255,0.021
34.260,0.025
34.265,0.025
34.270,0.024
34.275,0.023
34.280,0.026
34.285,0.028
34.290,0.030
34.295,0.031
34.300,0.020
34.305,0.015
34.310,0.013
34.315,0.004
34.320,0.001
34.325,-0.006
34.330,-0.024
34.335,-0.070
34.340,-0.172
34.345,-0.321
34.350,-0.490
34.355,-0.654
34.360,-0.715
34.365,-0.623
34.370,-0.419
34.375,-0.159
34.380,0.076
34.385,0.251
34.390,0.338
34.395,0.306
34.400,0.226
34.405,0.191
34.410,0.196
34.415,0.209
34.420,0.211
34.425,0.200
34.430,0.196
34.435,0.193
34.440,0.183
34.445,0.177
34.450,0.170
34.455,0.158
34.460,0.150
34.465,0.143
34.470,0.141
34.475,0.137
34.480,0.124
34.485,0.111
34.490,0.104
34.495,0.102
34.500,0.097
34.505,0.090
34.510,0.082
34.515,0.073
34.520,0.066
34.525,0.061
34.530,0.052
34.535,0.043
34.540,0.037
34.545,0.026
34.550,0.022
34.555,0.018
34.560,0.006
34.565,0.005
34.570,-0.003
34.575,-0.020
34.580,-0.027
34.585,-0.039
34.590,-0.053
34.595,-0.052
34.600,-0.052
34.605,-0.059
34.610,-0.061
34.615,-0.069
34.620,-0.085
34.625,-0.092
34.630,-0.090
34.635,-0.087
34.640,-0.081
34.645,-0.080
34.650,-0.082
34.655,-0.074
34.660,-0.063
34.665,-0.049
34.670,-0.038
34.675,-0.033
34.680,-0.023
34.685,-0.002
34.690,0.016
34.695,0.024
34.700,0.029
34.705,0.034
34.710,0.044
34.715,0.048
34.720,0.052
34.725,0.060
34.730,0.062
34.735,0.060
34.740,0.054
34.745,0.052
34.750,0.053
34.755,0.047
34.760,0.047
34.765,0.049
34.770,0.046
34.775,0.044
34.780,0.034
34.785,0.030
34.790,0.034
34.795,0.035
34.800,0.036
34.805,0.031
34.810,0.020
34.815,0.018
34.820,0.021
34.825,0.015
34.830,0.011
34.835,0.015
34.840,0.018
34.845,0.018
34.850,0.010
34.855,0.006
34.860,0.008
34.865,0.007
34.870,0.007
34.875,0.007
34.880,0.004
34.885,0.003
34.890,0.002
34.895,0.003
34.900,0.005
34.905,0.003
34.910,0.003
34.915,0.005
34.920,0.003
34.925,0.003
34.930,0.001
34.935,-0.001
34.940,0.004
34.945,0.002
34.950,-0.008
34.955,-0.009
34.960,-0.004
34.965,-0.001
34.970,-0.002
34.975,-0.005
34.980,-0.006
34.985,-0.010
34.990,-0.013
34.995,-0.006
35.000,-0.002
35.005,-0.011
35.010,-0.016
35.015,-0.009
35.020,-0.003
35.025,-0.006
35.030,-0.016
35.035,-0.017
35.040,-0.015
35.045,-0.019
35.050,-0.019
35.055,-0.018
35.060,-0.017
35.065,-0.012
35.070,-0.014
35.075,-0.019
35.080,-0.020
35.085,-0.019
35.090,-0.015
35.095,-0.014
35.100,-0.022
35.105,-0.023
35.110,-0.016
35.115,-0.012
35.120,-0.010
35.125,-0.013
35.130,-0.020
35.135,-0.018
35.140,-0.016
35.145,-0.022
35.150,-0.021
35.155,-0.019
35.160,-0.017
35.165,-0.013
35.170,-0.021
35.175,-0.026
35.180,-0.019
35.185,-0.010
35.190,-0.008
35.195,-0.018
35.200,-0.020
35.205,-0.015
35.210,-0.014
35.215,-0.016
35.220,-0.019
35.225,-0.019
35.230,-0.015
35.235,-0.009
35.240,-0.012
35.245,-0.019
35.250,-0.023
35.255,-0.019
35.260,-0.010
35.265,-0.011
35.270,-0.014
35.275,-0.009
35.280,-0.012
35.285,-0.017
35.290,-0.018
35.295,-0.014
35.300,-0.007
35.305,-0.007
35.310,-0.010
35.315,-0.009
35.320,-0.011
35.325,-0.010
35.330,-0.009
35.335,-0.009
35.340,-0.009
35.345,-0.011
35.350,-0.007
35.355,0.001
35.360,-0.003
35.365,-0.015
35.370,-0.019
35.375,-0.016
35.380,-0.006
35.385,0.003
35.390,0.003
35.395,-0.006
35.400,-0.016
35.405,-0.013
35.410,-0.002
35.415,0.001
35.420,-0.005
35.425,-0.010
35.430,-0.003
35.435,0.005
35.440,0.000
35.445,-0.001
35.450,-0.003
35.455,-0.006
35.460,-0.004
35.465,-0.003
35.470,-0.004
35.475,-0.004
35.480,-0.005
35.485,-0.006
35.490,-0.008
35.495,-0.011
35.500,-0.006
35.505,-0.001
35.510,-0.002
35.515,-0.003
35.520,-0.004
35.525,-0.003
35.530,-0.003
35.535,-0.015
35.540,-0.024
35.545,-0.028
35.550,-0.039
35.555,-0.041
35.560,-0.033
35.565,-0.029
35.570,-0.029
35.575,-0.033
35.580,-0.032
35.585,-0.024
35.590,-0.017
35.595,-0.006
35.600,0.010
35.605,0.019
35.610,0.022
35.615,0.025
35.620,0.033
35.625,0.036
35.630,0.031
35.635,0.032
35.640,0.030
35.645,0.030
35.650,0.033
35.655,0.025
35.660,0.014
35.665,0.009
35.670,0.005
35.675,-0.006
35.680,-0.030
35.685,-0.073
35.690,-0.160
35.695,-0.295
35.700,-0.474
35.705,-0.668
35.710,-0.755
35.715,-0.685
35.720,-0.487
35.725,-0.205
35.730,0.051
35.735,0.241
35.740,0.345
35.745,0.321
35.750,0.241
35.755,0.211
35.760,0.218
35.765,0.223
35.770,0.219
35.775,0.209
35.780,0.209
35.785,0.206
35.790,0.196
35.795,0.192
35.800,0.188
35.805,0.178
35.810,0.163
35.815,0.158
35.820,0.158
35.825,0.149
35.830,0.134
35.835,0.120
35.840,0.113
35.845,0.109
35.850,0.100
35.855,0.090
35.860,0.083
35.865,0.080
35.870,0.070
35.875,0.056
35.880,0.051
35.885,0.051
35.890,0.050
35.895,0.043
35.900,0.026
35.905,0.010
35.910,0.007
35.915,0.006
35.920,-0.002
35.925,-0.017
35.930,-0.025
35.935,-0.032
35.940,-0.047
35.945,-0.057
35.950,-0.061
35.955,-0.068
35.960,-0.078
35.965,-0.085
35.970,-0.084
35.975,-0.083
35.980,-0.084
35.985,-0.082
35.990,-0.084
35.995,-0.086
36.000,-0.083
36.005,-0.079
36.010,-0.070
36.015,-0.059
36.020,-0.047
36.025,-0.036
36.030,-0.028
36.035,-0.013
36.040,0.005
36.045,0.016
36.050,0.029
36.055,0.043
36.060,0.056
36.065,0.056
36.070,0.046
36.075,0.047
36.080,0.058
36.085,0.063
36.090,0.062
36.095,0.059
36.100,0.056
36.105,0.055
36.110,0.049
36.115,0.047
36.120,0.045
36.125,0.041
36.130,0.039
36.135,0.035
36.140,0.031
36.145,0.030
36.150,0.024
36.155,0.022
36.160,0.025
36.165,0.019
36.170,0.018
36.175,0.017
36.180,0.014
36.185,0.021
36.190,0.017
36.195,0.009
36.200,0.016
36.205,0.023
36.210,0.021
36.215,0.014
36.220,0.007
36.225,0.005
36.230,0.007
36.235,0.003
36.240,0.000
36.245,0.004
36.250,0.011
36.255,0.015
36.260,0.005
36.265,-0.008
36.270,-0.007
36.275,-0.002
36.280,0.002
36.285,-0.004
36.290,-0.009
36.295,-0.003
36.300,0.000
36.305,0.000
36.310,-0.003
36.315,-0.006
36.320,-0.003
36.325,-0.005
36.330,-0.008
36.335,-0.005
36.340,-0.007
36.345,-0.015
36.350,-0.015
36.355,-0.011
36.360,-0.009
36.365,-0.009
36.370,-0.014
36.375,-0.014
36.380,-0.012
36.385,-0.016
36.390,-0.015
36.395,-0.011
36.400,-0.019
36.405,-0.023
36.410,-0.011
36.415,-0.008
36.420,-0.013
36.425,-0.010
36.430,-0.010
36.435,-0.014
36.440,-0.022
36.445,-0.031
36.450,-0.022
36.455,-0.017
36.460,-0.021
36.465,-0.020
36.470,-0.021
36.475,-0.019
36.480,-0.017
36.485,-0.013
36.490,-0.012
36.495,-0.018
36.500,-0.023
36.505,-0.022
36.510,-0.019
36.515,-0.020
36.520,-0.019
36.525,-0.019
36.530,-0.019
36.535,-0.017
36.540,-0.015
36.545,-0.015
36.550,-0.016
36.555,-0.017
36.560,-0.016
36.565,-0.015
36.570,-0.021
36.575,-0.021
36.580,-0.015
36.585,-0.014
36.590,-0.014
36.595,-0.020
36.600,-0.019
36.605,-0.014
36.610,-0.015
36.615,-0.014
36.620,-0.012
36.625,-0.013
36.630,-0.012
36.635,-0.014
36.640,-0.016
36.645,-0.018
36.650,-0.017
36.655,-0.007
36.660,-0.003
36.665,-0.009
36.670,-0.011
36.675,-0.010
36.680,-0.007
36.685,-0.003
36.690,-0.006
36.695,-0.005
36.700,-0.007
36.705,-0.017
36.710,-0.019
36.715,-0.012
36.720,-0.010
36.725,-0.006
36.730,-0.002
36.735,0.000
36.740,-0.003
36.745,-0.007
36.750,-0.008
36.755,-0.009
36.760,-0.006
36.765,-0.007
36.770,-0.012
36.775,-0.007
36.780,0.000
36.785,0.002
36.790,-0.001
36.795,-0.008
36.800,-0.006
36.805,-0.002
36.810,-0.001
36.815,-0.001
36.820,-0.004
36.825,-0.005
36.830,-0.007
36.835,-0.003
36.840,-0.001
36.845,-0.012
36.850,-0.012
36.855,-0.007
36.860,-0.012
36.865,-0.014
36.870,-0.025
36.875,-0.038
36.880,-0.035
36.885,-0.029
36.890,-0.026
36.895,-0.022
36.900,-0.022
36.905,-0.024
36.910,-0.014
36.915,-0.008
36.920,-0.004
36.925,0.008
36.930,0.012
36.935,0.021
36.940,0.028
36.945,0.024
36.950,0.024
36.955,0.028
36.960,0.031
36.965,0.026
36.970,0.017
36.975,0.019
36.980,0.020
36.985,0.019
36.990,0.015
36.995,0.001
37.000,-0.014
37.005,-0.044
37.010,-0.111
37.015,-0.215
37.020,-0.355
37.025,-0.519
37.030,-0.648
37.035,-0.661
37.040,-0.532
37.045,-0.310
37.050,-0.068
37.055,0.142
37.060,0.285
37.065,0.326
37.070,0.265
37.075,0.194
37.080,0.180
37.085,0.190
37.090,0.199
37.095,0.196
37.100,0.185
37.105,0.184
37.110,0.179
37.115,0.171
37.120,0.168
37.125,0.160
37.130,0.152
37.135,0.142
37.140,0.131
37.145,0.122
37.150,0.115
37.155,0.113
37.160,0.114
37.165,0.108
37.170,0.094
37.175,0.084
37.180,0.078
37.185,0.080
37.190,0.077
37.195,0.057
37.200,0.044
37.205,0.045
37.210,0.045
37.215,0.039
37.220,0.027
37.225,0.018
37.230,0.012
37.235,0.004
37.240,-0.005
37.245,-0.013
37.250,-0.019
37.255,-0.027
37.260,-0.036
37.265,-0.042
37.270,-0.050
37.275,-0.058
37.280,-0.070
37.285,-0.069
37.290,-0.066
37.295,-0.075
37.300,-0.082
37.305,-0.081
37.310,-0.073
37.315,-0.069
37.320,-0.076
37.325,-0.076
37.330,-0.066
37.335,-0.057
37.340,-0.046
37.345,-0.032
37.350,-0.016
37.355,-0.004
37.360,0.003
37.365,0.011
37.370,0.024
37.375,0.039
37.380,0.049
37.385,0.053
37.390,0.056
37.395,0.056
37.400,0.057
37.405,0.055
37.410,0.051
37.415,0.057
37.420,0.059
37.425,0.055
37.430,0.052
37.435,0.047
37.440,0.041
37.445,0.038
37.450,0.038
37.455,0.040
37.460,0.038
37.465,0.034
37.470,0.031
37.475,0.031
37.480,0.026
37.485,0.020
37.490,0.018
37.495,0.016
37.500,0.016
37.505,0.024
37.510,0.028
37.515,0.018
37.520,0.007
37.525,0.004
37.530,0.008
37.535,0.012
37.540,0.006
37.545,0.001
37.550,0.000
37.555,-0.001
37.560,-0.001
37.565,-0.004
37.570,-0.003
37.575,0.000
37.580,0.000
37.585,0.000
37.590,-0.002
37.595,-0.003
37.600,0.001
37.605,0.001
37.610,0.001
37.615,-0.001
37.620,-0.006
37.625,-0.006
37.630,-0.003
37.635,-0.005
37.640,-0.007
37.645,-0.006
37.650,-0.002
37.655,-0.001
37.660,-0.005
37.665,-0.010
37.670,-0.014
37.675,-0.016
37.680,-0.014
37.685,-0.012
37.690,-0.010
37.695,-0.012
37.700,-0.017
37.705,-0.016
37.710,-0.012
37.715,-0.011
37.720,-0.012
37.725,-0.015
37.730,-0.013
37.735,-0.012
37.740,-0.015
37.745,-0.015
37.750,-0.013
37.755,-0.012
37.760,-0.015
37.765,-0.018
37.770,-0.016
37.775,-0.015
37.780,-0.018
37.785,-0.020
37.790,-0.022
37.795,-0.021
37.800,-0.017
37.805,-0.016
37.810,-0.016
37.815,-0.012
37.820,-0.013
37.825,-0.022
37.830,-0.027
37.835,-0.022
37.840,-0.017
37.845,-0.014
37.850,-0.014
37.855,-0.014
37.860,-0.012
37.865,-0.016
37.870,-0.017
37.875,-0.014
37.880,-0.013
37.885,-0.016
37.890,-0.019
37.895,-0.019
37.900,-0.018
37.905,-0.017
37.910,-0.014
37.915,-0.011
37.920,-0.011
37.925,-0.015
37.930,-0.019
37.935,-0.017
37.940,-0.012
37.945,-0.012
37.950,-0.015
37.955,-0.016
37.960,-0.014
37.965,-0.013
37.970,-0.014
37.975,-0.009
37.980,-0.009
37.985,-0.010
37.990,-0.007
37.995,-0.007
38.000,-0.010
38.005,-0.017
38.010,-0.016
38.015,-0.013
38.020,-0.013
38.025,-0.009
38.030,-0.010
38.035,-0.010
38.040,-0.012
38.045,-0.013
38.050,-0.009
38.055,-0.007
38.060,-0.006
38.065,-0.005
38.070,-0.009
38.075,-0.014
38.080,-0.014
38.085,-0.006
38.090,0.004
38.095,-0.001
38.100,-0.007
38.105,-0.006
38.110,-0.007
38.115,-0.001
38.120,0.004
38.125,0.003
38.130,0.000
38.135,-0.003
38.140,-0.002
38.145,-0.002
38.150,-0.004
38.155,-0.003
38.160,0.000
38.165,-0.002
38.170,-0.010
38.175,-0.015
38.180,-0.016
38.185,-0.021
38.190,-0.032
38.195,-0.040
38.200,-0.037
38.205,-0.035
38.210,-0.032
38.215,-0.023
38.220,-0.021
38.225,-0.018
38.230,-0.010
38.235,-0.002
38.240,0.011
38.245,0.021
38.250,0.026
38.255,0.030
38.260,0.034
38.265,0.037
38.270,0.037
38.275,0.032
38.280,0.028
38.285,0.028
38.290,0.028
38.295,0.023
38.300,0.012
38.305,0.006
38.310,0.006
38.315,0.002
38.320,-0.014
38.325,-0.057
38.330,-0.141
38.335,-0.264
38.340,-0.430
38.345,-0.617
38.350,-0.724
38.355,-0.680
38.360,-0.495
38.365,-0.230
38.370,0.019
38.375,0.213
38.380,0.325
38.385,0.315
38.390,0.235
38.395,0.192
38.400,0.199
38.405,0.213
38.410,0.215
38.415,0.201
38.420,0.194
38.425,0.192
38.430,0.181
38.435,0.173
38.440,0.170
38.445,0.163
38.450,0.153
38.455,0.148
38.460,0.141
38.465,0.130
38.470,0.121
38.475,0.115
38.480,0.106
38.485,0.099
38.490,0.093
38.495,0.087
38.500,0.082
38.505,0.077
38.510,0.068
38.515,0.063
38.520,0.057
38.525,0.047
38.530,0.039
38.535,0.033
38.540,0.027
38.545,0.018
38.550,0.010
38.555,0.003
38.560,-0.004
38.565,-0.014
38.570,-0.026
38.575,-0.034
38.580,-0.041
38.585,-0.048
38.590,-0.057
38.595,-0.066
38.600,-0.070
38.605,-0.074
38.610,-0.079
38.615,-0.083
38.620,-0.084
38.625,-0.083
38.630,-0.084
38.635,-0.084
38.640,-0.078
38.645,-0.071
38.650,-0.068
38.655,-0.064
38.660,-0.051
38.665,-0.036
38.670,-0.024
38.675,-0.013
38.680,0.002
38.685,0.015
38.690,0.025
38.695,0.035
38.700,0.047
38.705,0.055
38.710,0.056
38.715,0.058
38.720,0.062
38.725,0.061
38.730,0.056
38.735,0.055
38.740,0.056
38.745,0.054
38.750,0.050
38.755,0.046
38.760,0.044
38.765,0.045
38.770,0.040
38.775,0.035
38.780,0.032
38.785,0.029
38.790,0.029
38.795,0.026
38.800,0.022
38.805,0.023
38.810,0.021
38.815,0.014
38.820,0.017
38.825,0.022
38.830,0.017
38.835,0.013
38.840,0.012
38.845,0.013
38.850,0.015
38.855,0.011
38.860,0.007
38.865,0.009
38.870,0.009
38.875,0.005
38.880,0.005
38.885,0.004
38.890,0.005
38.895,0.005
38.900,0.001
38.905,-0.001
38.910,0.000
38.915,0.002
38.920,0.002
38.925,-0.001
38.930,-0.004
38.935,-0.001
38.940,0.002
38.945,0.002
38.950,0.000
38.955,-0.003
38.960,-0.004
38.965,-0.004
38.970,-0.007
38.975,-0.010
38.980,-0.009
38.985,-0.009
38.990,-0.010
38.995,-0.007
39.000,-0.007
39.005,-0.015
39.010,-0.016
39.015,-0.014
39.020,-0.017
39.025,-0.017
39.030,-0.017
39.035,-0.012
39.040,-0.008
39.045,-0.013
39.050,-0.017
39.055,-0.016
39.060,-0.013
39.065,-0.013
39.070,-0.014
39.075,-0.013
39.080,-0.019
39.085,-0.020
39.090,-0.016
39.095,-0.020
39.100,-0.018
39.105,-0.016
39.110,-0.017
39.115,-0.017
39.120,-0.018
39.125,-0.020
39.130,-0.023
39.135,-0.018
39.140,-0.014
39.145,-0.014
39.150,-0.016
39.155,-0.021
39.160,-0.019
39.165,-0.012
39.170,-0.017
39.175,-0.024
39.180,-0.020
39.185,-0.017
39.190,-0.018
39.195,-0.014
39.200,-0.011
39.205,-0.012
39.210,-0.013
39.215,-0.020
39.220,-0.021
39.225,-0.014
39.230,-0.013
39.235,-0.016
39.240,-0.016
39.245,-0.016
39.250,-0.018
39.255,-0.019
39.260,-0.016
39.265,-0.013
39.270,-0.012
39.275,-0.010
39.280,-0.011
39.285,-0.011
39.290,-0.013
39.295,-0.014
39.300,-0.010
39.305,-0.011
39.310,-0.011
39.315,-0.011
39.320,-0.011
39.325,-0.008
39.330,-0.008
39.335,-0.009
39.340,-0.008
39.345,-0.009
39.350,-0.010
39.355,-0.007
39.360,-0.003
39.365,-0.007
39.370,-0.008
39.375,-0.011
39.380,-0.011
39.385,-0.006
39.390,-0.007
39.395,-0.008
39.400,-0.007
39.405,-0.012
39.410,-0.016
39.415,-0.012
39.420,-0.009
39.425,-0.012
39.430,-0.025
39.435,-0.042
39.440,-0.045
39.445,-0.037
39.450,-0.029
39.455,-0.029
39.460,-0.033
39.465,-0.032
39.470,-0.024
39.475,-0.014
39.480,-0.004
39.485,0.005
39.490,0.013
39.495,0.018
39.500,0.019
39.505,0.020
39.510,0.023
39.515,0.024
39.520,0.023
39.525,0.020
39.530,0.017
39.535,0.016
39.540,0.014
39.545,0.010
39.550,0.006
39.555,0.003
39.560,-0.008
39.565,-0.038
39.570,-0.100
39.575,-0.205
39.580,-0.351
39.585,-0.526
39.590,-0.670
39.595,-0.693
39.600,-0.568
39.605,-0.342
39.610,-0.088
39.615,0.136
39.620,0.288
39.625,0.331
39.630,0.276
39.635,0.207
39.640,0.183
39.645,0.190
39.650,0.199
39.655,0.196
39.660,0.193
39.665,0.192
39.670,0.184
39.675,0.173
39.680,0.167
39.685,0.161
39.690,0.154
39.695,0.146
39.700,0.137
39.705,0.127
39.710,0.121
39.715,0.116
39.720,0.109
39.725,0.103
39.730,0.095
39.735,0.088
39.740,0.081
39.745,0.074
39.750,0.066
39.755,0.059
39.760,0.054
39.765,0.050
39.770,0.042
39.775,0.033
39.780,0.028
39.785,0.022
39.790,0.013
39.795,0.005
39.800,-0.003
39.805,-0.011
39.810,-0.020
39.815,-0.025
39.820,-0.031
39.825,-0.040
39.830,-0.051
39.835,-0.061
39.840,-0.065
39.845,-0.067
39.850,-0.070
39.855,-0.075
39.860,-0.080
39.865,-0.080
39.870,-0.078
39.875,-0.073
39.880,-0.070
39.885,-0.069
39.890,-0.058
39.895,-0.047
39.900,-0.039
39.905,-0.026
39.910,-0.016
39.915,-0.004
39.920,0.010
39.925,0.020
39.930,0.028
39.935,0.037
39.940,0.049
39.945,0.057
39.950,0.059
39.955,0.059
39.960,0.061
39.965,0.063
39.970,0.063
39.975,0.062
39.980,0.061
39.985,0.059
39.990,0.053
39.995,0.049
40.000,0.049
40.005,0.047
40.010,0.044
40.015,0.039
40.020,0.034
40.025,0.033
40.030,0.033
40.035,0.028
40.040,0.021
40.045,0.020
40.050,0.025
40.055,0.026
40.060,0.023
40.065,0.018
40.070,0.014
40.075,0.011
40.080,0.010
40.085,0.011
40.090,0.011
40.095,0.009
40.100,0.008
40.105,0.007
40.110,0.004
40.115,0.003
40.120,0.003
40.125,0.005
40.130,0.002
40.135,0.000
40.140,0.000
40.145,-0.002
40.150,0.000
40.155,0.002
40.160,0.000
40.165,-0.001
40.170,-0.003
40.175,-0.004
40.180,-0.001
40.185,-0.003
40.190,-0.003
40.195,-0.002
40.200,-0.003
40.205,-0.004
40.210,-0.005
40.215,-0.009
40.220,-0.011
40.225,-0.008
40.230,-0.008
40.235,-0.010
40.240,-0.011
40.245,-0.013
40.250,-0.012
40.255,-0.011
40.260,-0.016
40.265,-0.016
40.270,-0.013
40.275,-0.014
40.280,-0.014
40.285,-0.016
40.290,-0.020
40.295,-0.020
40.300,-0.015
40.305,-0.014
40.310,-0.017
40.315,-0.017
40.320,-0.016
40.325,-0.015
40.330,-0.015
40.335,-0.019
40.340,-0.020
40.345,-0.017
40.350,-0.017
40.355,-0.016
40.360,-0.017
40.365,-0.020
40.370,-0.018
40.375,-0.014
40.380,-0.015
40.385,-0.019
40.390,-0.022
40.395,-0.022
40.400,-0.015
40.405,-0.012
40.410,-0.014
40.415,-0.019
40.420,-0.022
40.425,-0.018
40.430,-0.014
40.435,-0.014
40.440,-0.016
40.445,-0.018
40.450,-0.019
40.455,-0.014
40.460,-0.012
40.465,-0.018
40.470,-0.017
40.475,-0.015
40.480,-0.014
40.485,-0.011
40.490,-0.014
40.495,-0.014
40.500,-0.010
40.505,-0.011
40.510,-0.011
40.515,-0.010
40.520,-0.012
40.525,-0.013
40.530,-0.014
40.535,-0.014
40.540,-0.011
40.545,-0.009
40.550,-0.008
40.555,-0.010
40.560,-0.012
40.565,-0.011
40.570,-0.008
40.575,-0.007
40.580,-0.009
40.585,-0.011
40.590,-0.009
40.595,-0.006
40.600,-0.006
40.605,-0.009
40.610,-0.006
40.615,-0.005
40.620,-0.008
40.625,-0.010
40.630,-0.014
40.635,-0.015
40.640,-0.015
40.645,-0.018
40.650,-0.019
40.655,-0.030
40.660,-0.045
40.665,-0.042
40.670,-0.032
40.675,-0.026
40.680,-0.027
40.685,-0.031
40.690,-0.028
40.695,-0.024
40.700,-0.015
40.705,-0.002
40.710,0.006
40.715,0.015
40.720,0.022
40.725,0.023
40.730,0.024
40.735,0.022
40.740,0.023
40.745,0.026
40.750,0.026
40.755,0.022
40.760,0.015
40.765,0.008
40.770,0.002
40.775,0.000
40.780,-0.002
40.785,-0.016
40.790,-0.050
40.795,-0.118
40.800,-0.235
40.805,-0.392
40.810,-0.566
40.815,-0.684
40.820,-0.666
40.825,-0.506
40.830,-0.263
40.835,-0.015
40.840,0.184
40.845,0.304
40.850,0.317
40.855,0.244
40.860,0.185
40.865,0.184
40.870,0.199
40.875,0.201
40.880,0.187
40.885,0.183
40.890,0.187
40.895,0.179
40.900,0.168
40.905,0.163
40.910,0.157
40.915,0.148
40.920,0.138
40.925,0.132
40.930,0.125
40.935,0.117
40.940,0.112
40.945,0.107
40.950,0.101
40.955,0.094
40.960,0.087
40.965,0.081
40.970,0.075
40.975,0.065
40.980,0.058
40.985,0.053
40.990,0.047
40.995,0.040
41.000,0.031
41.005,0.027
41.010,0.021
41.015,0.013
41.020,0.005
41.025,-0.005
41.030,-0.013
41.035,-0.021
41.040,-0.028
41.045,-0.036
41.050,-0.045
41.055,-0.051
41.060,-0.059
41.065,-0.064
41.070,-0.068
41.075,-0.074
41.080,-0.078
41.085,-0.079
41.090,-0.077
41.095,-0.077
41.100,-0.076
41.105,-0.072
41.110,-0.070
41.115,-0.063
41.120,-0.052
41.125,-0.043
41.130,-0.034
41.135,-0.024
41.140,-0.009
41.145,0.005
41.150,0.016
41.155,0.025
41.160,0.037
41.165,0.050
41.170,0.051
41.175,0.051
41.180,0.054
41.185,0.056
41.190,0.060
41.195,0.060
41.200,0.056
41.205,0.054
41.210,0.049
41.215,0.044
41.220,0.043
41.225,0.043
41.230,0.042
41.235,0.037
41.240,0.033
41.245,0.032
41.250,0.031
41.255,0.030
41.260,0.027
41.265,0.023
41.270,0.019
41.275,0.018
41.280,0.017
41.285,0.016
41.290,0.015
41.295,0.012
41.300,0.010
41.305,0.011
41.310,0.012
41.315,0.012
41.320,0.010
41.325,0.008
41.330,0.006
41.335,0.004
41.340,0.004
41.345,0.004
41.350,0.005
41.355,0.006
41.360,0.004
41.365,0.002
41.370,0.002
41.375,0.004
41.380,0.003
41.385,0.003
41.390,0.002
41.395,0.001
41.400,0.002
41.405,0.000
41.410,-0.002
41.415,-0.002
41.420,-0.003
41.425,-0.005
41.430,-0.005
41.435,-0.006
41.440,-0.008
41.445,-0.007
41.450,-0.005
41.455,-0.005
41.460,-0.008
41.465,-0.011
41.470,-0.010
41.475,-0.009
41.480,-0.011
41.485,-0.010
41.490,-0.010
41.495,-0.013
41.500,-0.014
41.505,-0.014
41.510,-0.013
41.515,-0.014
41.520,-0.017
41.525,-0.017
41.530,-0.015
41.535,-0.017
41.540,-0.019
41.545,-0.017
41.550,-0.017
41.555,-0.020
41.560,-0.017
41.565,-0.017
41.570,-0.021
41.575,-0.018
41.580,-0.013
41.585,-0.015
41.590,-0.018
41.595,-0.018
41.600,-0.018
41.605,-0.014
41.610,-0.015
41.615,-0.018
41.620,-0.017
41.625,-0.018
41.630,-0.019
41.635,-0.016
41.640,-0.016
41.645,-0.019
41.650,-0.017
41.655,-0.015
41.660,-0.018
41.665,-0.020
41.670,-0.016
41.675,-0.014
41.680,-0.016
41.685,-0.017
41.690,-0.017
41.695,-0.016
41.700,-0.014
41.705,-0.012
41.710,-0.014
41.715,-0.017
41.720,-0.017
41.725,-0.013
41.730,-0.006
41.735,-0.010
41.740,-0.016
41.745,-0.014
41.750,-0.009
41.755,-0.008
41.760,-0.011
41.765,-0.015
41.770,-0.014
41.775,-0.010
41.780,-0.010
41.785,-0.009
41.790,-0.008
41.795,-0.012
41.800,-0.010
41.805,-0.008
41.810,-0.010
41.815,-0.008
41.820,-0.008
41.825,-0.008
41.830,-0.003
41.835,-0.006
41.840,-0.009
41.845,-0.006
41.850,-0.004
41.855,-0.007
41.860,-0.009
41.865,-0.007
41.870,-0.004
41.875,-0.004
41.880,-0.010
41.885,-0.018
41.890,-0.017
41.895,-0.016
41.900,-0.020
41.905,-0.022
41.910,-0.034
41.915,-0.044
41.920,-0.039
41.925,-0.033
41.930,-0.032
41.935,-0.033
41.940,-0.032
41.945,-0.028
41.950,-0.021
41.955,-0.010
41.960,0.004
41.965,0.013
41.970,0.019
41.975,0.024
41.980,0.027
41.985,0.028
41.990,0.027
41.995,0.029
42.000,0.031
42.005,0.029
42.010,0.022
42.015,0.018
42.020,0.012
42.025,0.006
42.030,0.005
42.035,0.002
42.040,-0.014
42.045,-0.056
42.050,-0.137
42.055,-0.266
42.060,-0.437
42.065,-0.631
42.070,-0.750
42.075,-0.713
42.080,-0.532
42.085,-0.264
42.090,-0.001
42.095,0.209
42.100,0.333
42.105,0.332
42.110,0.251
42.115,0.198
42.120,0.204
42.125,0.221
42.130,0.225
42.135,0.215
42.140,0.208
42.145,0.207
42.150,0.196
42.155,0.185
42.160,0.183
42.165,0.174
42.170,0.162
42.175,0.155
42.180,0.148
42.185,0.140
42.190,0.130
42.195,0.123
42.200,0.114
42.205,0.107
42.210,0.101
42.215,0.094
42.220,0.089
42.225,0.082
42.230,0.076
42.235,0.068
42.240,0.057
42.245,0.050
42.250,0.043
42.255,0.035
42.260,0.028
42.265,0.018
42.270,0.012
42.275,0.006
42.280,-0.003
42.285,-0.013
42.290,-0.023
42.295,-0.034
42.300,-0.046
42.305,-0.055
42.310,-0.058
42.315,-0.060
42.320,-0.069
42.325,-0.076
42.330,-0.079
42.335,-0.082
42.340,-0.082
42.345,-0.081
42.350,-0.080
42.355,-0.081
42.360,-0.080
42.365,-0.074
42.370,-0.067
42.375,-0.058
42.380,-0.047
42.385,-0.034
42.390,-0.021
42.395,-0.010
42.400,0.003
42.405,0.017
42.410,0.029
42.415,0.041
42.420,0.047
42.425,0.053
42.430,0.058
42.435,0.060
42.440,0.062
42.445,0.060
42.450,0.058
42.455,0.057
42.460,0.056
42.465,0.054
42.470,0.050
42.475,0.047
42.480,0.043
42.485,0.040
42.490,0.037
42.495,0.034
42.500,0.033
42.505,0.028
42.510,0.026
42.515,0.027
42.520,0.024
42.525,0.019
42.530,0.014
42.535,0.014
42.540,0.019
42.545,0.018
42.550,0.015
42.555,0.014
42.560,0.013
42.565,0.011
42.570,0.008
42.575,0.009
42.580,0.009
42.585,0.009
42.590,0.006
42.595,0.002
42.600,0.005
42.605,0.010
42.610,0.007
42.615,0.002
42.620,-0.001
42.625,0.001
42.630,0.004
42.635,0.002
42.640,0.001
42.645,0.000
42.650,-0.002
42.655,-0.003
42.660,-0.002
42.665,-0.003
42.670,-0.003
42.675,-0.005
42.680,-0.005
42.685,-0.003
42.690,-0.006
42.695,-0.007
42.700,-0.010
42.705,-0.016
42.710,-0.013
42.715,-0.007
42.720,-0.008
42.725,-0.013
42.730,-0.016
42.735,-0.013
42.740,-0.014
42.745,-0.019
42.750,-0.016
42.755,-0.013
42.760,-0.015
42.765,-0.016
42.770,-0.018
42.775,-0.018
42.780,-0.016
42.785,-0.016
42.790,-0.018
42.795,-0.018
42.800,-0.017
42.805,-0.020
42.810,-0.019
42.815,-0.016
42.820,-0.017
42.825,-0.016
42.830,-0.019
42.835,-0.023
42.840,-0.019
42.845,-0.019
42.850,-0.020
42.855,-0.015
42.860,-0.015
42.865,-0.021
42.870,-0.020
42.875,-0.015
42.880,-0.016
42.885,-0.019
42.890,-0.020
42.895,-0.018
42.900,-0.015
42.905,-0.017
42.910,-0.019
42.915,-0.018
42.920,-0.016
42.925,-0.016
42.930,-0.015
42.935,-0.017
42.940,-0.019
42.945,-0.017
42.950,-0.015
42.955,-0.015
42.960,-0.013
42.965,-0.015
42.970,-0.015
42.975,-0.013
42.980,-0.012
42.985,-0.012
42.990,-0.013
42.995,-0.014
43.000,-0.014
43.005,-0.011
43.010,-0.010
43.015,-0.011
43.020,-0.012
43.025,-0.013
43.030,-0.013
43.035,-0.008
43.040,-0.012
43.045,-0.013
43.050,-0.007
43.055,-0.006
43.060,-0.007
43.065,-0.009
43.070,-0.008
43.075,-0.006
43.080,-0.007
43.085,-0.006
43.090,-0.004
43.095,-0.003
43.100,-0.006
43.105,-0.007
43.110,-0.006
43.115,-0.005
43.120,-0.004
43.125,-0.003
43.130,-0.001
43.135,-0.003
43.140,-0.013
43.145,-0.016
43.150,-0.011
43.155,-0.010
43.160,-0.015
43.165,-0.026
43.170,-0.036
43.175,-0.037
43.180,-0.032
43.185,-0.027
43.190,-0.027
43.195,-0.030
43.200,-0.028
43.205,-0.019
43.210,-0.006
43.215,0.006
43.220,0.010
43.225,0.015
43.230,0.021
43.235,0.024
43.240,0.027
43.245,0.027
43.250,0.025
43.255,0.025
43.260,0.025
43.265,0.022
43.270,0.018
43.275,0.014
43.280,0.008
43.285,0.002
43.290,-0.001
43.295,-0.012
43.300,-0.049
43.305,-0.121
43.310,-0.238
43.315,-0.390
43.320,-0.557
43.325,-0.674
43.330,-0.661
43.335,-0.508
43.340,-0.272
43.345,-0.026
43.350,0.181
43.355,0.310
43.360,0.322
43.365,0.251
43.370,0.192
43.375,0.188
43.380,0.201
43.385,0.203
43.390,0.194
43.395,0.191
43.400,0.190
43.405,0.179
43.410,0.168
43.415,0.164
43.420,0.160
43.425,0.149
43.430,0.141
43.435,0.136
43.440,0.128
43.445,0.122
43.450,0.117
43.455,0.110
43.460,0.102
43.465,0.095
43.470,0.086
43.475,0.081
43.480,0.076
43.485,0.069
43.490,0.061
43.495,0.053
43.500,0.049
43.505,0.043
43.510,0.034
43.515,0.026
43.520,0.020
43.525,0.014
43.530,0.004
43.535,-0.003
43.540,-0.010
43.545,-0.017
43.550,-0.027
43.555,-0.038
43.560,-0.046
43.565,-0.052
43.570,-0.057
43.575,-0.065
43.580,-0.071
43.585,-0.071
43.590,-0.073
43.595,-0.076
43.600,-0.077
43.605,-0.075
43.610,-0.071
43.615,-0.069
43.620,-0.067
43.625,-0.061
43.630,-0.053
43.635,-0.041
43.640,-0.030
43.645,-0.018
43.650,-0.005
43.655,0.006
43.660,0.016
43.665,0.025
43.670,0.035
43.675,0.044
43.680,0.050
43.685,0.053
43.690,0.058
43.695,0.058
43.700,0.056
43.705,0.058
43.710,0.054
43.715,0.051
43.720,0.048
43.725,0.046
43.730,0.046
43.735,0.044
43.740,0.036
43.745,0.034
43.750,0.034
43.755,0.031
43.760,0.028
43.765,0.026
43.770,0.022
43.775,0.020
43.780,0.019
43.785,0.018
43.790,0.016
43.795,0.012
43.800,0.012
43.805,0.014
43.810,0.014
43.815,0.011
43.820,0.008
43.825,0.008
43.830,0.007
43.835,0.007
43.840,0.006
43.845,0.002
43.850,0.002
43.855,0.002
43.860,0.002
43.865,0.002
43.870,-0.002
43.875,-0.001
43.880,0.001
43.885,0.001
43.890,0.001
43.895,-0.001
43.900,-0.003
43.905,-0.004
43.910,-0.003
43.915,-0.001
43.920,0.000
43.925,-0.001
43.930,-0.002
43.935,-0.003
43.940,-0.006
43.945,-0.009
43.950,-0.009
43.955,-0.008
43.960,-0.009
43.965,-0.010
43.970,-0.011
43.975,-0.009
43.980,-0.008
43.985,-0.010
43.990,-0.011
43.995,-0.013
44.000,-0.016
44.005,-0.018
44.010,-0.015
44.015,-0.012
44.020,-0.013
44.025,-0.015
44.030,-0.017
44.035,-0.018
44.040,-0.018
44.045,-0.017
44.050,-0.015
44.055,-0.016
44.060,-0.020
44.065,-0.019
44.070,-0.018
44.075,-0.018
44.080,-0.017
44.085,-0.016
44.090,-0.017
44.095,-0.019
44.100,-0.018
44.105,-0.018
44.110,-0.019
44.115,-0.017
44.120,-0.018
44.125,-0.017
44.130,-0.017
44.135,-0.018
44.140,-0.015
44.145,-0.016
44.150,-0.019
44.155,-0.017
44.160,-0.020
44.165,-0.018
44.170,-0.014
44.175,-0.015
44.180,-0.015
44.185,-0.017
44.190,-0.018
44.195,-0.014
44.200,-0.015
44.205,-0.016
44.210,-0.015
44.215,-0.017
44.220,-0.016
44.225,-0.011
44.230,-0.010
44.235,-0.012
44.240,-0.014
44.245,-0.014
44.250,-0.013
44.255,-0.013
44.260,-0.014
44.265,-0.013
44.270,-0.009
44.275,-0.006
44.280,-0.007
44.285,-0.012
44.290,-0.016
44.295,-0.013
44.300,-0.010
44.305,-0.009
44.310,-0.009
44.315,-0.008
44.320,-0.008
44.325,-0.010
44.330,-0.010
44.335,-0.007
44.340,-0.005
44.345,-0.005
44.350,-0.007
44.355,-0.004
44.360,-0.004
44.365,-0.005
44.370,-0.007
44.375,-0.009
44.380,-0.007
44.385,-0.005
44.390,-0.005
44.395,-0.003
44.400,-0.002
44.405,-0.004
44.410,-0.005
44.415,-0.003
44.420,-0.004
44.425,-0.007
44.430,-0.013
44.435,-0.015
44.440,-0.014
44.445,-0.019
44.450,-0.025
44.455,-0.035
44.460,-0.043
44.465,-0.041
44.470,-0.035
44.475,-0.032
44.480,-0.029
44.485,-0.029
44.490,-0.027
44.495,-0.018
44.500,-0.006
44.505,0.007
44.510,0.017
44.515,0.024
44.520,0.030
44.525,0.029
44.530,0.028
44.535,0.028
44.540,0.031
44.545,0.032
44.550,0.028
44.555,0.024
44.560,0.018
44.565,0.011
44.570,0.009
44.575,0.006
44.580,0.000
44.585,-0.016
44.590,-0.058
44.595,-0.143
44.600,-0.275
44.605,-0.449
44.610,-0.641
44.615,-0.755
44.620,-0.714
44.625,-0.531
44.630,-0.256
44.635,0.012
44.640,0.219
44.645,0.337
44.650,0.325
44.655,0.245
44.660,0.203
44.665,0.210
44.670,0.223
44.675,0.228
44.680,0.217
44.685,0.209
44.690,0.209
44.695,0.198
44.700,0.188
44.705,0.184
44.710,0.172
44.715,0.163
44.720,0.159
44.725,0.152
44.730,0.144
44.735,0.136
44.740,0.127
44.745,0.117
44.750,0.111
44.755,0.105
44.760,0.096
44.765,0.089
44.770,0.083
44.775,0.077
44.780,0.068
44.785,0.059
44.790,0.052
44.795,0.044
44.800,0.037
44.805,0.032
44.810,0.023
44.815,0.014
44.820,0.005
44.825,-0.003
44.830,-0.012
44.835,-0.023
44.840,-0.032
44.845,-0.040
