'Elapsed time','ECG'
'seconds','mV'
0.000,-0.155
0.005,-0.239
0.010,-0.273
0.015,-0.247
0.020,-0.211
0.025,-0.249
0.030,-0.277
0.035,-0.247
0.040,-0.273
0.045,-0.311
0.050,-0.296
0.055,-0.282
0.060,-0.290
0.065,-0.302
0.070,-0.306
0.075,-0.314
0.080,-0.317
0.085,-0.299
0.090,-0.288
0.095,-0.266
0.100,-0.224
0.105,-0.195
0.110,-0.165
0.115,-0.127
0.120,-0.071
0.125,0.000
0.130,0.070
0.135,0.136
0.140,0.174
0.145,0.204
0.150,0.241
0.155,0.278
0.160,0.303
0.165,0.304
0.170,0.326
0.175,0.358
0.180,0.357
0.185,0.344
0.190,0.336
0.195,0.339
0.200,0.336
0.205,0.314
0.210,0.298
0.215,0.286
0.220,0.273
0.225,0.257
0.230,0.247
0.235,0.240
0.240,0.228
0.245,0.213
0.250,0.184
0.255,0.155
0.260,0.150
0.265,0.154
0.270,0.149
0.275,0.118
0.280,0.087
0.285,0.093
0.290,0.099
0.295,0.092
0.300,0.075
0.305,0.045
0.310,0.035
0.315,0.038
0.320,0.037
0.325,0.033
0.330,0.032
0.335,0.033
0.340,0.030
0.345,0.026
0.350,0.008
0.355,-0.007
0.360,0.002
0.365,0.010
0.370,0.016
0.375,0.005
0.380,-0.021
0.385,-0.008
0.390,0.017
0.395,0.017
0.400,0.003
0.405,-0.014
0.410,-0.014
0.415,-0.012
0.420,0.004
0.425,0.023
0.430,0.012
0.435,-0.006
0.440,-0.022
0.445,-0.016
0.450,-0.004
0.455,-0.019
0.460,-0.030
0.465,-0.023
0.470,-0.005
0.475,-0.001
0.480,-0.011
0.485,-0.020
0.490,-0.035
0.495,-0.031
0.500,-0.006
0.505,-0.008
0.510,-0.039
0.515,-0.056
0.520,-0.041
0.525,-0.019
0.530,-0.022
0.535,-0.038
0.540,-0.043
0.545,-0.035
0.550,-0.027
0.555,-0.031
0.560,-0.036
0.565,-0.051
0.570,-0.054
0.575,-0.029
0.580,-0.025
0.585,-0.038
0.590,-0.058
0.595,-0.061
0.600,-0.046
0.605,-0.041
0.610,-0.038
0.615,-0.055
0.620,-0.063
0.625,-0.041
0.630,-0.032
0.635,-0.029
0.640,-0.043
0.645,-0.060
0.650,-0.043
0.655,-0.014
0.660,-0.020
0.665,-0.047
0.670,-0.054
0.675,-0.052
0.680,-0.042
0.685,-0.024
0.690,-0.029
0.695,-0.035
0.700,-0.043
0.705,-0.068
0.710,-0.064
0.715,-0.045
0.720,-0.024
0.725,-0.003
0.730,-0.007
0.735,-0.023
0.740,-0.043
0.745,-0.037
0.750,-0.028
0.755,-0.050
0.760,-0.047
0.765,-0.027
0.770,-0.019
0.775,-0.027
0.780,-0.042
0.785,-0.034
0.790,-0.015
0.795,-0.002
0.800,-0.002
0.805,-0.023
0.810,-0.043
0.815,-0.052
0.820,-0.045
0.825,-0.033
0.830,-0.049
0.835,-0.070
0.840,-0.072
0.845,-0.087
0.850,-0.100
0.855,-0.071
0.860,-0.036
0.865,-0.047
0.870,-0.071
0.875,-0.056
0.880,-0.020
0.885,-0.005
0.890,-0.016
0.895,-0.014
0.900,0.009
0.905,0.015
0.910,0.032
0.915,0.062
0.920,0.061
0.925,0.043
0.930,0.033
0.935,0.048
0.940,0.064
0.945,0.057
0.950,0.051
0.955,0.051
0.960,0.045
0.965,0.036
0.970,0.033
0.975,0.025
0.980,0.017
0.985,0.026
0.990,0.041
0.995,0.035
1.000,0.005
1.005,-0.009
1.010,-0.006
1.015,0.000
1.020,0.022
1.025,0.026
1.030,0.011
1.035,-0.016
1.040,-0.042
1.045,-0.009
1.050,0.018
1.055,0.005
1.060,0.000
1.065,-0.025
1.070,-0.049
1.075,-0.066
1.080,-0.130
1.085,-0.256
1.090,-0.474
1.095,-0.725
1.100,-0.819
1.105,-0.592
1.110,-0.125
1.115,0.315
1.120,0.672
1.125,0.958
1.130,1.049
1.135,0.944
1.140,0.680
1.145,0.371
1.150,0.177
1.155,0.024
1.160,-0.097
1.165,-0.111
1.170,-0.099
1.175,-0.124
1.180,-0.133
1.185,-0.120
1.190,-0.127
1.195,-0.126
1.200,-0.121
1.205,-0.128
1.210,-0.115
1.215,-0.106
1.220,-0.117
1.225,-0.126
1.230,-0.137
1.235,-0.126
1.240,-0.105
1.245,-0.101
1.250,-0.092
1.255,-0.098
1.260,-0.106
1.265,-0.102
1.270,-0.102
1.275,-0.097
1.280,-0.091
1.285,-0.090
1.290,-0.090
1.295,-0.087
1.300,-0.086
1.305,-0.088
1.310,-0.088
1.315,-0.088
1.320,-0.094
1.325,-0.110
1.330,-0.117
1.335,-0.111
1.340,-0.121
1.345,-0.143
1.350,-0.158
1.355,-0.171
1.360,-0.169
1.365,-0.173
1.370,-0.197
1.375,-0.214
1.380,-0.229
1.385,-0.232
1.390,-0.229
1.395,-0.228
1.400,-0.218
1.405,-0.210
1.410,-0.190
1.415,-0.169
1.420,-0.147
1.425,-0.108
1.430,-0.067
1.435,-0.023
1.440,0.031
1.445,0.095
1.450,0.154
1.455,0.202
1.460,0.254
1.465,0.293
1.470,0.323
1.475,0.344
1.480,0.347
1.485,0.365
1.490,0.381
1.495,0.379
1.500,0.377
1.505,0.370
1.510,0.362
1.515,0.358
1.520,0.344
1.525,0.316
1.530,0.292
1.535,0.292
1.540,0.296
1.545,0.285
1.550,0.273
1.555,0.247
1.560,0.221
1.565,0.199
1.570,0.179
1.575,0.170
1.580,0.154
1.585,0.142
1.590,0.134
1.595,0.119
1.600,0.105
1.605,0.084
1.610,0.069
1.615,0.068
1.620,0.071
1.625,0.068
1.630,0.050
1.635,0.029
1.640,0.013
1.645,0.006
1.650,0.009
1.655,0.006
1.660,0.012
1.665,0.016
1.670,0.008
1.675,0.003
1.680,-0.010
1.685,-0.013
1.690,-0.009
1.695,-0.011
1.700,-0.010
1.705,-0.010
1.710,-0.008
1.715,-0.009
1.720,-0.018
1.725,-0.023
1.730,-0.016
1.735,-0.003
1.740,0.000
1.745,-0.003
1.750,-0.007
1.755,-0.025
1.760,-0.033
1.765,-0.026
1.770,-0.019
1.775,-0.017
1.780,-0.026
1.785,-0.027
1.790,-0.029
1.795,-0.038
1.800,-0.032
1.805,-0.025
1.810,-0.030
1.815,-0.045
1.820,-0.050
1.825,-0.041
1.830,-0.045
1.835,-0.049
1.840,-0.050
1.845,-0.049
1.850,-0.043
1.855,-0.047
1.860,-0.049
1.865,-0.053
1.870,-0.057
1.875,-0.052
1.880,-0.051
1.885,-0.048
1.890,-0.051
1.895,-0.065
1.900,-0.072
1.905,-0.066
1.910,-0.042
1.915,-0.038
1.920,-0.052
1.925,-0.054
1.930,-0.054
1.935,-0.050
1.940,-0.055
1.945,-0.062
1.950,-0.055
1.955,-0.053
1.960,-0.056
1.965,-0.060
1.970,-0.061
1.975,-0.055
1.980,-0.050
1.985,-0.048
1.990,-0.055
1.995,-0.054
2.000,-0.044
2.005,-0.050
2.010,-0.053
2.015,-0.051
2.020,-0.050
2.025,-0.050
2.030,-0.056
2.035,-0.045
2.040,-0.032
2.045,-0.036
2.050,-0.041
2.055,-0.043
2.060,-0.036
2.065,-0.037
2.070,-0.042
2.075,-0.041
2.080,-0.058
2.085,-0.076
2.090,-0.091
2.095,-0.087
2.100,-0.068
2.105,-0.083
2.110,-0.107
2.115,-0.109
2.120,-0.083
2.125,-0.053
2.130,-0.064
2.135,-0.071
2.140,-0.043
2.145,-0.018
2.150,-0.010
2.155,-0.009
2.160,-0.005
2.165,-0.002
2.170,0.003
2.175,0.023
2.180,0.039
2.185,0.042
2.190,0.040
2.195,0.045
2.200,0.053
2.205,0.038
2.210,0.029
2.215,0.034
2.220,0.032
2.225,0.023
2.230,0.005
2.235,0.002
2.240,0.011
2.245,0.014
2.250,0.021
2.255,0.015
2.260,0.005
2.265,0.007
2.270,0.006
2.275,0.000
2.280,-0.010
2.285,-0.009
2.290,-0.004
2.295,-0.012
2.300,-0.024
2.305,-0.020
2.310,-0.013
2.315,-0.016
2.320,-0.019
2.325,-0.024
2.330,-0.034
2.335,-0.044
2.340,-0.076
2.345,-0.144
2.350,-0.286
2.355,-0.536
2.360,-0.820
2.365,-0.911
2.370,-0.616
2.375,-0.112
2.380,0.301
2.385,0.657
2.390,0.956
2.395,1.040
2.400,0.899
2.405,0.593
2.410,0.323
2.415,0.170
2.420,0.009
2.425,-0.090
2.430,-0.084
2.435,-0.094
2.440,-0.118
2.445,-0.099
2.450,-0.084
2.455,-0.111
2.460,-0.131
2.465,-0.124
2.470,-0.107
2.475,-0.096
2.480,-0.104
2.485,-0.096
2.490,-0.081
2.495,-0.085
2.500,-0.102
2.505,-0.109
2.510,-0.078
2.515,-0.060
2.520,-0.078
2.525,-0.085
2.530,-0.078
2.535,-0.068
2.540,-0.070
2.545,-0.075
2.550,-0.065
2.555,-0.062
2.560,-0.068
2.565,-0.072
2.570,-0.075
2.575,-0.079
2.580,-0.083
2.585,-0.079
2.590,-0.091
2.595,-0.109
2.600,-0.103
2.605,-0.109
2.610,-0.126
2.615,-0.149
2.620,-0.171
2.625,-0.163
2.630,-0.167
2.635,-0.182
2.640,-0.187
2.645,-0.206
2.650,-0.223
2.655,-0.233
2.660,-0.238
2.665,-0.217
2.670,-0.195
2.675,-0.182
2.680,-0.166
2.685,-0.137
2.690,-0.097
2.695,-0.045
2.700,0.010
2.705,0.045
2.710,0.070
2.715,0.135
2.720,0.213
2.725,0.250
2.730,0.275
2.735,0.317
2.740,0.347
2.745,0.359
2.750,0.367
2.755,0.363
2.760,0.375
2.765,0.379
2.770,0.350
2.775,0.339
2.780,0.327
2.785,0.310
2.790,0.331
2.795,0.338
2.800,0.301
2.805,0.265
2.810,0.252
2.815,0.236
2.820,0.217
2.825,0.218
2.830,0.212
2.835,0.192
2.840,0.167
2.845,0.147
2.850,0.158
2.855,0.153
2.860,0.129
2.865,0.117
2.870,0.094
2.875,0.077
2.880,0.067
2.885,0.058
2.890,0.051
2.895,0.044
2.900,0.049
2.905,0.048
2.910,0.031
2.915,0.035
2.920,0.043
2.925,0.024
2.930,0.001
2.935,-0.003
2.940,-0.003
2.945,-0.016
2.950,-0.016
2.955,0.002
2.960,0.016
2.965,0.009
2.970,-0.014
2.975,-0.026
2.980,-0.023
2.985,-0.010
2.990,-0.005
2.995,-0.013
3.000,-0.027
3.005,-0.037
3.010,-0.034
3.015,-0.029
3.020,-0.029
3.025,-0.024
3.030,-0.032
3.035,-0.037
3.040,-0.027
3.045,-0.027
3.050,-0.025
3.055,-0.024
3.060,-0.034
3.065,-0.049
3.070,-0.059
3.075,-0.056
3.080,-0.052
3.085,-0.042
3.090,-0.041
3.095,-0.052
3.100,-0.047
3.105,-0.044
3.110,-0.042
3.115,-0.045
3.120,-0.074
3.125,-0.076
3.130,-0.046
3.135,-0.030
3.140,-0.042
3.145,-0.057
3.150,-0.056
3.155,-0.058
3.160,-0.069
3.165,-0.077
3.170,-0.065
3.175,-0.046
3.180,-0.050
3.185,-0.058
3.190,-0.048
3.195,-0.041
3.200,-0.040
3.205,-0.047
3.210,-0.055
3.215,-0.053
3.220,-0.055
3.225,-0.056
3.230,-0.057
3.235,-0.061
3.240,-0.065
3.245,-0.062
3.250,-0.044
3.255,-0.040
3.260,-0.046
3.265,-0.054
3.270,-0.063
3.275,-0.057
3.280,-0.053
3.285,-0.048
3.290,-0.046
3.295,-0.058
3.300,-0.057
3.305,-0.043
3.310,-0.029
3.315,-0.030
3.320,-0.041
3.325,-0.040
3.330,-0.030
3.335,-0.029
3.340,-0.042
3.345,-0.058
3.350,-0.056
3.355,-0.056
3.360,-0.067
3.365,-0.083
3.370,-0.088
3.375,-0.079
3.380,-0.087
3.385,-0.093
3.390,-0.076
3.395,-0.065
3.400,-0.057
3.405,-0.041
3.410,-0.021
3.415,-0.006
3.420,-0.003
3.425,0.001
3.430,0.002
3.435,0.007
3.440,0.026
3.445,0.044
3.450,0.052
3.455,0.045
3.460,0.037
3.465,0.034
3.470,0.032
3.475,0.042
3.480,0.045
3.485,0.041
3.490,0.037
3.495,0.024
3.500,0.021
3.505,0.019
3.510,0.022
3.515,0.020
3.520,0.003
3.525,0.001
3.530,0.008
3.535,0.020
3.540,0.027
3.545,0.019
3.550,0.013
3.555,0.008
3.560,0.003
3.565,0.006
3.570,0.006
3.575,-0.005
3.580,-0.018
3.585,-0.009
3.590,-0.006
3.595,-0.027
3.600,-0.042
3.605,-0.085
3.610,-0.179
3.615,-0.355
3.620,-0.631
3.625,-0.864
3.630,-0.828
3.635,-0.452
3.640,0.035
3.645,0.425
3.650,0.764
3.655,1.003
3.660,1.025
3.665,0.848
3.670,0.547
3.675,0.292
3.680,0.123
3.685,-0.032
3.690,-0.100
3.695,-0.092
3.700,-0.098
3.705,-0.117
3.710,-0.128
3.715,-0.129
3.720,-0.125
3.725,-0.116
3.730,-0.115
3.735,-0.120
3.740,-0.116
3.745,-0.108
3.750,-0.109
3.755,-0.116
3.760,-0.108
3.765,-0.101
3.770,-0.102
3.775,-0.090
3.780,-0.080
3.785,-0.080
3.790,-0.082
3.795,-0.085
3.800,-0.080
3.805,-0.076
3.810,-0.076
3.815,-0.084
3.820,-0.096
3.825,-0.094
3.830,-0.085
3.835,-0.074
3.840,-0.081
3.845,-0.105
3.850,-0.111
3.855,-0.105
3.860,-0.102
3.865,-0.108
3.870,-0.130
3.875,-0.149
3.880,-0.164
3.885,-0.169
3.890,-0.172
3.895,-0.182
3.900,-0.198
3.905,-0.240
3.910,-0.255
3.915,-0.225
3.920,-0.216
3.925,-0.217
3.930,-0.220
3.935,-0.218
3.940,-0.191
3.945,-0.164
3.950,-0.124
3.955,-0.080
3.960,-0.045
3.965,0.000
3.970,0.044
3.975,0.097
3.980,0.168
3.985,0.236
3.990,0.291
3.995,0.317
4.000,0.318
4.005,0.320
4.010,0.344
4.015,0.371
4.020,0.380
4.025,0.389
4.030,0.381
4.035,0.369
4.040,0.368
4.045,0.354
4.050,0.342
4.055,0.327
4.060,0.302
4.065,0.281
4.070,0.262
4.075,0.256
4.080,0.255
4.085,0.243
4.090,0.220
4.095,0.189
4.100,0.172
4.105,0.159
4.110,0.129
4.115,0.107
4.120,0.115
4.125,0.114
4.130,0.083
4.135,0.067
4.140,0.068
4.145,0.065
4.150,0.057
4.155,0.045
4.160,0.049
4.165,0.044
4.170,0.011
4.175,-0.011
4.180,-0.013
4.185,-0.001
4.190,0.006
4.195,0.005
4.200,0.008
4.205,-0.004
4.210,-0.017
4.215,-0.015
4.220,-0.005
4.225,0.002
4.230,-0.013
4.235,-0.024
4.240,-0.010
4.245,0.001
4.250,0.007
4.255,0.002
4.260,-0.002
4.265,0.000
4.270,-0.015
4.275,-0.026
4.280,-0.031
4.285,-0.022
4.290,-0.010
4.295,-0.017
4.300,-0.007
4.305,-0.005
4.310,-0.025
4.315,-0.045
4.320,-0.056
4.325,-0.026
4.330,-0.011
4.335,-0.048
4.340,-0.065
4.345,-0.042
4.350,-0.018
4.355,-0.022
4.360,-0.055
4.365,-0.059
4.370,-0.029
4.375,-0.026
4.380,-0.046
4.385,-0.051
4.390,-0.052
4.395,-0.065
4.400,-0.063
4.405,-0.048
4.410,-0.043
4.415,-0.041
4.420,-0.060
4.425,-0.060
4.430,-0.035
4.435,-0.053
4.440,-0.069
4.445,-0.058
4.450,-0.067
4.455,-0.077
4.460,-0.053
4.465,-0.028
4.470,-0.043
4.475,-0.066
4.480,-0.072
4.485,-0.059
4.490,-0.037
4.495,-0.038
4.500,-0.027
4.505,-0.020
4.510,-0.063
4.515,-0.079
4.520,-0.051
4.525,-0.041
4.530,-0.038
4.535,-0.042
4.540,-0.051
4.545,-0.052
4.550,-0.050
4.555,-0.047
4.560,-0.050
4.565,-0.055
4.570,-0.042
4.575,-0.018
4.580,-0.024
4.585,-0.035
4.590,-0.032
4.595,-0.039
4.600,-0.050
4.605,-0.057
4.610,-0.034
4.615,-0.014
4.620,-0.028
4.625,-0.032
4.630,-0.030
4.635,-0.040
4.640,-0.047
4.645,-0.046
4.650,-0.048
4.655,-0.070
4.660,-0.086
4.665,-0.085
4.670,-0.086
4.675,-0.081
4.680,-0.079
4.685,-0.068
4.690,-0.064
4.695,-0.076
4.700,-0.037
4.705,-0.009
4.710,-0.035
4.715,-0.044
4.720,-0.031
4.725,0.010
4.730,0.047
4.735,0.057
4.740,0.064
4.745,0.053
4.750,0.039
4.755,0.038
4.760,0.037
4.765,0.047
4.770,0.063
4.775,0.053
4.780,0.048
4.785,0.038
4.790,0.011
4.795,-0.003
4.800,-0.003
4.805,0.016
4.810,0.043
4.815,0.050
4.820,0.018
4.825,-0.012
4.830,-0.016
4.835,-0.003
4.840,0.033
4.845,0.041
4.850,0.016
4.855,-0.005
4.860,-0.010
4.865,-0.011
4.870,-0.018
4.875,-0.020
4.880,-0.031
4.885,-0.032
4.890,-0.045
4.895,-0.092
4.900,-0.172
4.905,-0.350
4.910,-0.608
4.915,-0.846
4.920,-0.822
4.925,-0.400
4.930,0.107
4.935,0.482
4.940,0.804
4.945,1.019
4.950,1.022
4.955,0.804
4.960,0.491
4.965,0.292
4.970,0.158
4.975,-0.009
4.980,-0.089
4.985,-0.088
4.990,-0.103
4.995,-0.112
5.000,-0.111
5.005,-0.125
5.010,-0.112
5.015,-0.109
5.020,-0.144
5.025,-0.141
5.030,-0.125
5.035,-0.116
5.040,-0.109
5.045,-0.114
5.050,-0.095
5.055,-0.085
5.060,-0.112
5.065,-0.116
5.070,-0.108
5.075,-0.097
5.080,-0.090
5.085,-0.101
5.090,-0.092
5.095,-0.081
5.100,-0.079
5.105,-0.074
5.110,-0.077
5.115,-0.093
5.120,-0.101
5.125,-0.091
5.130,-0.105
5.135,-0.107
5.140,-0.101
5.145,-0.129
5.150,-0.120
5.155,-0.125
5.160,-0.147
5.165,-0.125
5.170,-0.136
5.175,-0.169
5.180,-0.185
5.185,-0.202
5.190,-0.229
5.195,-0.262
5.200,-0.264
5.205,-0.229
5.210,-0.211
5.215,-0.233
5.220,-0.252
5.225,-0.236
5.230,-0.205
5.235,-0.177
5.240,-0.149
5.245,-0.109
5.250,-0.053
5.255,0.004
5.260,0.069
5.265,0.127
5.270,0.171
5.275,0.228
5.280,0.285
5.285,0.330
5.290,0.360
5.295,0.362
5.300,0.373
5.305,0.405
5.310,0.413
5.315,0.402
5.320,0.393
5.325,0.381
5.330,0.371
5.335,0.363
5.340,0.354
5.345,0.347
5.350,0.336
5.355,0.313
5.360,0.297
5.365,0.292
5.370,0.274
5.375,0.246
5.380,0.220
5.385,0.209
5.390,0.201
5.395,0.186
5.400,0.177
5.405,0.158
5.410,0.136
5.415,0.128
5.420,0.111
5.425,0.094
5.430,0.090
5.435,0.087
5.440,0.081
5.445,0.063
5.450,0.043
5.455,0.030
5.460,0.019
5.465,0.008
5.470,0.004
5.475,0.013
5.480,0.015
5.485,0.011
5.490,0.008
5.495,-0.004
5.500,-0.006
5.505,-0.012
5.510,-0.030
5.515,-0.025
5.520,-0.004
5.525,0.012
5.530,0.007
5.535,-0.012
5.540,-0.018
5.545,-0.029
5.550,-0.032
5.555,-0.017
5.560,-0.009
5.565,-0.013
5.570,-0.028
5.575,-0.031
5.580,-0.026
5.585,-0.030
5.590,-0.026
5.595,-0.023
5.600,-0.027
5.605,-0.039
5.610,-0.046
5.615,-0.040
5.620,-0.045
5.625,-0.043
5.630,-0.035
5.635,-0.041
5.640,-0.047
5.645,-0.053
5.650,-0.046
5.655,-0.042
5.660,-0.050
5.665,-0.043
5.670,-0.043
5.675,-0.053
5.680,-0.060
5.685,-0.063
5.690,-0.065
5.695,-0.070
5.700,-0.054
5.705,-0.041
5.710,-0.049
5.715,-0.058
5.720,-0.068
5.725,-0.060
5.730,-0.050
5.735,-0.057
5.740,-0.052
5.745,-0.055
5.750,-0.075
5.755,-0.092
5.760,-0.102
5.765,-0.101
5.770,-0.098
5.775,-0.097
5.780,-0.107
5.785,-0.111
5.790,-0.092
5.795,-0.075
5.800,-0.065
5.805,-0.060
5.810,-0.060
5.815,-0.056
5.820,-0.056
5.825,-0.052
5.830,-0.037
5.835,-0.026
5.840,-0.028
5.845,-0.034
5.850,-0.022
5.855,-0.004
5.860,0.010
5.865,0.019
5.870,0.007
5.875,-0.002
5.880,-0.001
5.885,0.000
5.890,0.002
5.895,-0.008
5.900,-0.013
5.905,-0.008
5.910,-0.008
5.915,-0.013
5.920,-0.025
5.925,-0.027
5.930,-0.020
5.935,-0.021
5.940,-0.022
5.945,-0.025
5.950,-0.025
5.955,-0.030
5.960,-0.040
5.965,-0.040
5.970,-0.032
5.975,-0.023
5.980,-0.025
5.985,-0.032
5.990,-0.034
5.995,-0.050
6.000,-0.078
6.005,-0.118
6.010,-0.202
6.015,-0.368
6.020,-0.640
6.025,-0.903
6.030,-0.910
6.035,-0.540
6.040,-0.026
6.045,0.381
6.050,0.737
6.055,0.994
6.060,1.007
6.065,0.822
6.070,0.521
6.075,0.275
6.080,0.127
6.085,-0.030
6.090,-0.113
6.095,-0.104
6.100,-0.105
6.105,-0.119
6.110,-0.119
6.115,-0.117
6.120,-0.127
6.125,-0.126
6.130,-0.116
6.135,-0.119
6.140,-0.113
6.145,-0.103
6.150,-0.102
6.155,-0.102
6.160,-0.104
6.165,-0.102
6.170,-0.100
6.175,-0.095
6.180,-0.087
6.185,-0.084
6.190,-0.082
6.195,-0.084
6.200,-0.081
6.205,-0.078
6.210,-0.075
6.215,-0.072
6.220,-0.083
6.225,-0.081
6.230,-0.075
6.235,-0.083
6.240,-0.082
6.245,-0.085
6.250,-0.090
6.255,-0.097
6.260,-0.117
6.265,-0.126
6.270,-0.130
6.275,-0.140
6.280,-0.152
6.285,-0.170
6.290,-0.188
6.295,-0.205
6.300,-0.216
6.305,-0.231
6.310,-0.249
6.315,-0.243
6.320,-0.238
6.325,-0.234
6.330,-0.224
6.335,-0.222
6.340,-0.202
6.345,-0.173
6.350,-0.140
6.355,-0.092
6.360,-0.037
6.365,0.021
6.370,0.079
6.375,0.141
6.380,0.194
6.385,0.247
6.390,0.309
6.395,0.345
6.400,0.370
6.405,0.388
6.410,0.394
6.415,0.405
6.420,0.407
6.425,0.403
6.430,0.398
6.435,0.386
6.440,0.384
6.445,0.377
6.450,0.361
6.455,0.341
6.460,0.321
6.465,0.308
6.470,0.290
6.475,0.272
6.480,0.263
6.485,0.247
6.490,0.229
6.495,0.212
6.500,0.200
6.505,0.188
6.510,0.158
6.515,0.136
6.520,0.133
6.525,0.128
6.530,0.125
6.535,0.115
6.540,0.097
6.545,0.084
6.550,0.071
6.555,0.054
6.560,0.043
6.565,0.041
6.570,0.035
6.575,0.028
6.580,0.021
6.585,0.004
6.590,0.000
6.595,0.001
6.600,-0.001
6.605,-0.002
6.610,-0.010
6.615,-0.014
6.620,-0.018
6.625,-0.021
6.630,-0.016
6.635,-0.014
6.640,-0.016
6.645,-0.020
6.650,-0.020
6.655,-0.019
6.660,-0.026
6.665,-0.025
6.670,-0.020
6.675,-0.022
6.680,-0.030
6.685,-0.037
6.690,-0.035
6.695,-0.034
6.700,-0.035
6.705,-0.039
6.710,-0.042
6.715,-0.040
6.720,-0.044
6.725,-0.047
6.730,-0.049
6.735,-0.054
6.740,-0.050
6.745,-0.051
6.750,-0.050
6.755,-0.050
6.760,-0.055
6.765,-0.053
6.770,-0.058
6.775,-0.064
6.780,-0.062
6.785,-0.060
6.790,-0.061
6.795,-0.063
6.800,-0.062
6.805,-0.061
6.810,-0.062
6.815,-0.061
6.820,-0.066
6.825,-0.067
6.830,-0.063
6.835,-0.065
6.840,-0.057
6.845,-0.057
6.850,-0.069
6.855,-0.076
6.860,-0.076
6.865,-0.068
6.870,-0.068
6.875,-0.065
6.880,-0.059
6.885,-0.053
6.890,-0.050
6.895,-0.062
6.900,-0.061
6.905,-0.049
6.910,-0.053
6.915,-0.055
6.920,-0.050
6.925,-0.045
6.930,-0.041
6.935,-0.050
6.940,-0.055
6.945,-0.055
6.950,-0.050
6.955,-0.046
6.960,-0.056
6.965,-0.061
6.970,-0.055
6.975,-0.046
6.980,-0.043
6.985,-0.055
6.990,-0.051
6.995,-0.033
7.000,-0.031
7.005,-0.043
7.010,-0.051
7.015,-0.041
7.020,-0.030
7.025,-0.030
7.030,-0.040
7.035,-0.043
7.040,-0.029
7.045,-0.027
7.050,-0.027
7.055,-0.020
7.060,-0.020
7.065,-0.022
7.070,-0.029
7.075,-0.033
7.080,-0.027
7.085,-0.029
7.090,-0.024
7.095,-0.015
7.100,-0.016
7.105,-0.022
7.110,-0.031
7.115,-0.032
7.120,-0.030
7.125,-0.041
7.130,-0.043
7.135,-0.039
7.140,-0.047
7.145,-0.069
7.150,-0.084
7.155,-0.077
7.160,-0.062
7.165,-0.041
7.170,-0.035
7.175,-0.048
7.180,-0.049
7.185,-0.032
7.190,-0.007
7.195,0.014
7.200,0.009
7.205,-0.008
7.210,-0.002
7.215,0.026
7.220,0.052
7.225,0.067
7.230,0.060
7.235,0.057
7.240,0.085
7.245,0.098
7.250,0.072
7.255,0.035
7.260,0.028
7.265,0.058
7.270,0.063
7.275,0.044
7.280,0.034
7.285,0.030
7.290,0.032
7.295,0.026
7.300,0.027
7.305,0.029
7.310,0.023
7.315,0.032
7.320,0.021
7.325,-0.005
7.330,-0.012
7.335,-0.002
7.340,0.014
7.345,-0.003
7.350,-0.010
7.355,0.020
7.360,0.020
7.365,-0.005
7.370,-0.054
7.375,-0.105
7.380,-0.103
7.385,-0.145
7.390,-0.332
7.395,-0.621
7.400,-0.864
7.405,-0.807
7.410,-0.382
7.415,0.115
7.420,0.473
7.425,0.794
7.430,1.038
7.435,1.045
7.440,0.836
7.445,0.524
7.450,0.263
7.455,0.113
7.460,-0.012
7.465,-0.098
7.470,-0.096
7.475,-0.098
7.480,-0.135
7.485,-0.151
7.490,-0.136
7.495,-0.125
7.500,-0.112
7.505,-0.095
7.510,-0.104
7.515,-0.124
7.520,-0.142
7.525,-0.126
7.530,-0.078
7.535,-0.077
7.540,-0.120
7.545,-0.132
7.550,-0.093
7.555,-0.049
7.560,-0.064
7.565,-0.102
7.570,-0.104
7.575,-0.073
7.580,-0.047
7.585,-0.072
7.590,-0.083
7.595,-0.067
7.600,-0.076
7.605,-0.096
7.610,-0.106
7.615,-0.095
7.620,-0.071
7.625,-0.074
7.630,-0.109
7.635,-0.119
7.640,-0.124
7.645,-0.135
7.650,-0.141
7.655,-0.155
7.660,-0.168
7.665,-0.173
7.670,-0.170
7.675,-0.205
7.680,-0.248
7.685,-0.265
7.690,-0.276
7.695,-0.249
7.700,-0.206
7.705,-0.210
7.710,-0.250
7.715,-0.239
7.720,-0.179
7.725,-0.130
7.730,-0.096
7.735,-0.074
7.740,-0.039
7.745,0.037
7.750,0.134
7.755,0.199
7.760,0.219
7.765,0.255
7.770,0.291
7.775,0.328
7.780,0.379
7.785,0.392
7.790,0.408
7.795,0.414
7.800,0.397
7.805,0.398
7.810,0.371
7.815,0.339
7.820,0.340
7.825,0.358
7.830,0.361
7.835,0.311
7.840,0.280
7.845,0.289
7.850,0.287
7.855,0.270
7.860,0.247
7.865,0.244
7.870,0.243
7.875,0.215
7.880,0.174
7.885,0.145
7.890,0.135
7.895,0.134
7.900,0.143
7.905,0.145
7.910,0.124
7.915,0.090
7.920,0.096
7.925,0.107
7.930,0.079
7.935,0.042
7.940,0.024
7.945,0.033
7.950,0.048
7.955,0.045
7.960,0.030
7.965,0.027
7.970,0.018
7.975,0.000
7.980,0.001
7.985,-0.009
7.990,-0.021
7.995,-0.012
8.000,-0.008
8.005,-0.012
8.010,-0.034
8.015,-0.041
8.020,-0.017
8.025,0.002
8.030,0.001
8.035,-0.024
8.040,-0.047
8.045,-0.044
8.050,-0.028
8.055,-0.018
8.060,-0.043
8.065,-0.067
8.070,-0.051
8.075,-0.027
8.080,-0.018
8.085,-0.040
8.090,-0.051
8.095,-0.035
8.100,-0.033
8.105,-0.029
8.110,-0.032
8.115,-0.044
8.120,-0.052
8.125,-0.055
8.130,-0.043
8.135,-0.051
8.140,-0.064
8.145,-0.048
8.150,-0.042
8.155,-0.048
8.160,-0.056
8.165,-0.051
8.170,-0.040
8.175,-0.049
8.180,-0.057
8.185,-0.068
8.190,-0.070
8.195,-0.051
8.200,-0.045
8.205,-0.054
8.210,-0.058
8.215,-0.053
8.220,-0.051
8.225,-0.059
8.230,-0.057
8.235,-0.049
8.240,-0.055
8.245,-0.074
8.250,-0.068
8.255,-0.041
8.260,-0.041
8.265,-0.068
8.270,-0.081
8.275,-0.054
8.280,-0.039
8.285,-0.053
8.290,-0.052
8.295,-0.047
8.300,-0.041
8.305,-0.048
8.310,-0.063
8.315,-0.055
8.320,-0.059
8.325,-0.082
8.330,-0.093
8.335,-0.105
8.340,-0.119
8.345,-0.125
8.350,-0.113
8.355,-0.081
8.360,-0.073
8.365,-0.080
8.370,-0.077
8.375,-0.069
8.380,-0.049
8.385,-0.034
8.390,-0.024
8.395,-0.019
8.400,-0.016
8.405,0.005
8.410,0.022
8.415,0.020
8.420,0.015
8.425,0.023
8.430,0.039
8.435,0.041
8.440,0.035
8.445,0.030
8.450,0.022
8.455,0.013
8.460,0.009
8.465,0.017
8.470,0.014
8.475,0.002
8.480,0.009
8.485,0.015
8.490,0.012
8.495,-0.002
8.500,-0.013
8.505,-0.008
8.510,-0.007
8.515,-0.005
8.520,-0.007
8.525,-0.020
8.530,-0.018
8.535,-0.014
8.540,-0.011
8.545,-0.009
8.550,-0.015
8.555,-0.020
8.560,-0.040
8.565,-0.062
8.570,-0.072
8.575,-0.105
8.580,-0.209
8.585,-0.424
8.590,-0.708
8.595,-0.908
8.600,-0.808
8.605,-0.353
8.610,0.166
8.615,0.548
8.620,0.860
8.625,1.032
8.630,0.987
8.635,0.760
8.640,0.450
8.645,0.233
8.650,0.087
8.655,-0.056
8.660,-0.112
8.665,-0.105
8.670,-0.122
8.675,-0.133
8.680,-0.119
8.685,-0.127
8.690,-0.143
8.695,-0.135
8.700,-0.117
8.705,-0.106
8.710,-0.110
8.715,-0.112
8.720,-0.107
8.725,-0.110
8.730,-0.114
8.735,-0.109
8.740,-0.091
8.745,-0.080
8.750,-0.090
8.755,-0.099
8.760,-0.091
8.765,-0.071
8.770,-0.064
8.775,-0.074
8.780,-0.078
8.785,-0.082
8.790,-0.091
8.795,-0.093
8.800,-0.092
8.805,-0.090
8.810,-0.091
8.815,-0.088
8.820,-0.086
8.825,-0.100
8.830,-0.114
8.835,-0.128
8.840,-0.145
8.845,-0.156
8.850,-0.167
8.855,-0.175
8.860,-0.188
8.865,-0.205
8.870,-0.220
8.875,-0.231
8.880,-0.232
8.885,-0.238
8.890,-0.242
8.895,-0.240
8.900,-0.234
8.905,-0.216
8.910,-0.201
8.915,-0.178
8.920,-0.139
8.925,-0.092
8.930,-0.036
8.935,0.019
8.940,0.080
8.945,0.145
8.950,0.203
8.955,0.258
8.960,0.298
8.965,0.329
8.970,0.354
8.975,0.371
8.980,0.393
8.985,0.400
8.990,0.401
8.995,0.399
9.000,0.390
9.005,0.386
9.010,0.378
9.015,0.371
9.020,0.360
9.025,0.339
9.030,0.324
9.035,0.307
9.040,0.289
9.045,0.272
9.050,0.256
9.055,0.246
9.060,0.231
9.065,0.216
9.070,0.200
9.075,0.182
9.080,0.170
9.085,0.152
9.090,0.140
9.095,0.123
9.100,0.102
9.105,0.095
9.110,0.080
9.115,0.064
9.120,0.056
9.125,0.053
9.130,0.058
9.135,0.047
9.140,0.029
9.145,0.022
9.150,0.012
9.155,0.006
9.160,-0.004
9.165,-0.007
9.170,-0.002
9.175,-0.007
9.180,-0.009
9.185,-0.011
9.190,-0.014
9.195,-0.017
9.200,-0.023
9.205,-0.022
9.210,-0.020
9.215,-0.014
9.220,-0.015
9.225,-0.023
9.230,-0.023
9.235,-0.028
9.240,-0.031
9.245,-0.025
9.250,-0.026
9.255,-0.027
9.260,-0.031
9.265,-0.038
9.270,-0.038
9.275,-0.038
9.280,-0.037
9.285,-0.040
9.290,-0.042
9.295,-0.045
9.300,-0.053
9.305,-0.051
9.310,-0.049
9.315,-0.051
9.320,-0.051
9.325,-0.055
9.330,-0.054
9.335,-0.054
9.340,-0.057
9.345,-0.056
9.350,-0.057
9.355,-0.056
9.360,-0.058
9.365,-0.061
9.370,-0.060
9.375,-0.065
9.380,-0.066
9.385,-0.068
9.390,-0.068
9.395,-0.058
9.400,-0.053
9.405,-0.058
9.410,-0.068
9.415,-0.066
9.420,-0.053
9.425,-0.050
9.430,-0.047
9.435,-0.050
9.440,-0.057
9.445,-0.060
9.450,-0.066
9.455,-0.061
9.460,-0.056
9.465,-0.057
9.470,-0.054
9.475,-0.055
9.480,-0.051
9.485,-0.049
9.490,-0.049
9.495,-0.046
9.500,-0.049
9.505,-0.051
9.510,-0.051
9.515,-0.045
9.520,-0.042
9.525,-0.048
9.530,-0.047
9.535,-0.046
9.540,-0.043
9.545,-0.042
9.550,-0.049
9.555,-0.056
9.560,-0.070
9.565,-0.078
9.570,-0.079
9.575,-0.084
9.580,-0.087
9.585,-0.102
9.590,-0.112
9.595,-0.098
9.600,-0.075
9.605,-0.055
9.610,-0.057
9.615,-0.056
9.620,-0.036
9.625,-0.023
9.630,-0.016
9.635,-0.013
9.640,-0.005
9.645,0.006
9.650,0.005
9.655,0.016
9.660,0.028
9.665,0.033
9.670,0.041
9.675,0.039
9.680,0.043
9.685,0.043
9.690,0.037
9.695,0.035
9.700,0.026
9.705,0.025
9.710,0.025
9.715,0.020
9.720,0.015
9.725,0.010
9.730,0.014
9.735,0.013
9.740,0.007
9.745,0.006
9.750,0.003
9.755,0.002
9.760,-0.003
9.765,-0.007
9.770,-0.007
9.775,-0.010
9.780,-0.004
9.785,0.000
9.790,-0.003
9.795,-0.006
9.800,-0.012
9.805,-0.017
9.810,-0.036
9.815,-0.066
9.820,-0.120
9.825,-0.243
9.830,-0.451
9.835,-0.735
9.840,-0.917
9.845,-0.729
9.850,-0.225
9.855,0.271
9.860,0.622
9.865,0.905
9.870,1.045
9.875,0.963
9.880,0.713
9.885,0.409
9.890,0.214
9.895,0.069
9.900,-0.070
9.905,-0.098
9.910,-0.091
9.915,-0.120
9.920,-0.132
9.925,-0.125
9.930,-0.119
9.935,-0.120
9.940,-0.114
9.945,-0.105
9.950,-0.112
9.955,-0.110
9.960,-0.097
9.965,-0.096
9.970,-0.099
9.975,-0.103
9.980,-0.097
9.985,-0.092
9.990,-0.088
9.995,-0.079
10.000,-0.078
10.005,-0.075
10.010,-0.075
10.015,-0.073
10.020,-0.067
10.025,-0.073
10.030,-0.072
10.035,-0.069
10.040,-0.072
10.045,-0.079
10.050,-0.088
10.055,-0.083
10.060,-0.085
10.065,-0.099
10.070,-0.106
10.075,-0.109
10.080,-0.111
10.085,-0.124
10.090,-0.143
10.095,-0.160
10.100,-0.178
10.105,-0.189
10.110,-0.208
10.115,-0.226
10.120,-0.236
10.125,-0.250
10.130,-0.253
10.135,-0.247
10.140,-0.238
10.145,-0.228
10.150,-0.221
10.155,-0.197
10.160,-0.159
10.165,-0.125
10.170,-0.091
10.175,-0.047
10.180,0.019
10.185,0.082
10.190,0.140
10.195,0.206
10.200,0.258
10.205,0.299
10.210,0.321
10.215,0.317
10.220,0.291
10.225,0.277
10.230,0.336
10.235,0.416
10.240,0.446
10.245,0.429
10.250,0.393
10.255,0.377
10.260,0.365
10.265,0.342
10.270,0.323
10.275,0.307
10.280,0.293
10.285,0.280
10.290,0.266
10.295,0.250
10.300,0.231
10.305,0.220
10.310,0.203
10.315,0.177
10.320,0.156
10.325,0.139
10.330,0.141
10.335,0.145
10.340,0.139
10.345,0.130
10.350,0.110
10.355,0.096
10.360,0.085
10.365,0.072
10.370,0.062
10.375,0.047
10.380,0.041
10.385,0.040
10.390,0.034
10.395,0.025
10.400,0.017
10.405,0.021
10.410,0.019
10.415,0.010
10.420,0.005
10.425,-0.005
10.430,-0.006
10.435,-0.005
10.440,-0.009
10.445,-0.004
10.450,-0.009
10.455,-0.015
10.460,-0.020
10.465,-0.025
10.470,-0.023
10.475,-0.024
10.480,-0.022
10.485,-0.026
10.490,-0.028
10.495,-0.021
10.500,-0.024
10.505,-0.026
10.510,-0.034
10.515,-0.039
10.520,-0.033
10.525,-0.038
10.530,-0.041
10.535,-0.044
10.540,-0.048
10.545,-0.042
10.550,-0.043
10.555,-0.043
10.560,-0.044
10.565,-0.049
10.570,-0.052
10.575,-0.057
10.580,-0.059
10.585,-0.061
10.590,-0.057
10.595,-0.051
10.600,-0.055
10.605,-0.057
10.610,-0.062
10.615,-0.063
10.620,-0.056
10.625,-0.059
10.630,-0.062
10.635,-0.066
10.640,-0.069
10.645,-0.058
10.650,-0.056
10.655,-0.057
10.660,-0.054
10.665,-0.058
10.670,-0.062
10.675,-0.070
10.680,-0.068
10.685,-0.062
10.690,-0.059
10.695,-0.059
10.700,-0.066
10.705,-0.076
10.710,-0.088
10.715,-0.095
10.720,-0.097
10.725,-0.108
10.730,-0.114
10.735,-0.119
10.740,-0.126
10.745,-0.113
10.750,-0.091
10.755,-0.073
10.760,-0.077
10.765,-0.089
10.770,-0.071
10.775,-0.046
10.780,-0.034
10.785,-0.030
10.790,-0.017
10.795,0.001
10.800,0.008
10.805,0.016
10.810,0.024
10.815,0.030
10.820,0.033
10.825,0.025
10.830,0.032
10.835,0.039
10.840,0.031
10.845,0.025
10.850,0.013
10.855,0.005
10.860,0.005
10.865,0.007
10.870,0.015
10.875,0.014
10.880,0.011
10.885,0.003
10.890,-0.002
10.895,0.001
10.900,-0.005
10.905,-0.010
10.910,-0.008
10.915,-0.008
10.920,-0.010
10.925,-0.017
10.930,-0.018
10.935,-0.021
10.940,-0.035
10.945,-0.045
10.950,-0.054
10.955,-0.062
10.960,-0.088
10.965,-0.166
10.970,-0.322
10.975,-0.569
10.980,-0.820
10.985,-0.853
10.990,-0.499
10.995,0.038
11.000,0.448
11.005,0.757
11.010,0.987
11.015,1.020
11.020,0.858
11.025,0.552
11.030,0.278
11.035,0.119
11.040,-0.033
11.045,-0.125
11.050,-0.126
11.055,-0.131
11.060,-0.149
11.065,-0.146
11.070,-0.140
11.075,-0.150
11.080,-0.146
11.085,-0.135
11.090,-0.135
11.095,-0.134
11.100,-0.131
11.105,-0.127
11.110,-0.123
11.115,-0.119
11.120,-0.111
11.125,-0.112
11.130,-0.107
11.135,-0.100
11.140,-0.097
11.145,-0.090
11.150,-0.091
11.155,-0.088
11.160,-0.086
11.165,-0.089
11.170,-0.084
11.175,-0.085
11.180,-0.085
11.185,-0.086
11.190,-0.093
11.195,-0.092
11.200,-0.097
11.205,-0.103
11.210,-0.108
11.215,-0.115
11.220,-0.118
11.225,-0.131
11.230,-0.142
11.235,-0.153
11.240,-0.173
11.245,-0.184
11.250,-0.199
11.255,-0.214
11.260,-0.225
11.265,-0.233
11.270,-0.234
11.275,-0.238
11.280,-0.235
11.285,-0.230
11.290,-0.223
11.295,-0.203
11.300,-0.182
11.305,-0.148
11.310,-0.103
11.315,-0.056
11.320,0.001
11.325,0.056
11.330,0.115
11.335,0.176
11.340,0.230
11.345,0.282
11.350,0.317
11.355,0.345
11.360,0.371
11.365,0.386
11.370,0.394
11.375,0.395
11.380,0.395
11.385,0.392
11.390,0.383
11.395,0.376
11.400,0.363
11.405,0.350
11.410,0.336
11.415,0.320
11.420,0.309
11.425,0.290
11.430,0.275
11.435,0.262
11.440,0.242
11.445,0.226
11.450,0.209
11.455,0.194
11.460,0.182
11.465,0.166
11.470,0.154
11.475,0.139
11.480,0.127
11.485,0.117
11.490,0.101
11.495,0.093
11.500,0.079
11.505,0.062
11.510,0.049
11.515,0.041
11.520,0.041
11.525,0.031
11.530,0.016
11.535,-0.001
11.540,-0.016
11.545,-0.030
11.550,-0.059
11.555,-0.075
11.560,-0.079
11.565,-0.082
11.570,-0.068
11.575,-0.053
11.580,-0.045
11.585,-0.043
11.590,-0.043
11.595,-0.022
11.600,0.001
11.605,0.010
11.610,0.006
11.615,0.004
11.620,0.015
11.625,0.020
11.630,0.025
11.635,0.032
11.640,0.031
11.645,0.038
11.650,0.035
11.655,0.026
11.660,0.024
11.665,0.022
11.670,0.021
11.675,0.007
11.680,-0.003
11.685,-0.006
11.690,-0.013
11.695,-0.009
11.700,-0.014
11.705,-0.032
11.710,-0.044
11.715,-0.056
11.720,-0.062
11.725,-0.060
11.730,-0.050
11.735,-0.030
11.740,-0.023
11.745,-0.040
11.750,-0.056
11.755,-0.056
11.760,-0.059
11.765,-0.069
11.770,-0.078
11.775,-0.092
11.780,-0.117
11.785,-0.154
11.790,-0.229
11.795,-0.378
11.800,-0.607
11.805,-0.849
11.810,-0.908
11.815,-0.573
11.820,-0.007
11.825,0.434
11.830,0.750
11.835,0.979
11.840,0.998
11.845,0.825
11.850,0.514
11.855,0.224
11.860,0.067
11.865,-0.085
11.870,-0.205
11.875,-0.208
11.880,-0.197
11.885,-0.223
11.890,-0.227
11.895,-0.218
11.900,-0.229
11.905,-0.226
11.910,-0.187
11.915,-0.167
11.920,-0.183
11.925,-0.189
11.930,-0.178
11.935,-0.182
11.940,-0.189
11.945,-0.179
11.950,-0.160
11.955,-0.143
11.960,-0.149
11.965,-0.167
11.970,-0.154
11.975,-0.135
11.980,-0.138
11.985,-0.140
11.990,-0.145
11.995,-0.141
12.000,-0.129
12.005,-0.135
12.010,-0.139
12.015,-0.129
12.020,-0.140
12.025,-0.163
12.030,-0.160
12.035,-0.159
12.040,-0.157
12.045,-0.165
12.050,-0.187
12.055,-0.186
12.060,-0.209
12.065,-0.253
12.070,-0.256
12.075,-0.247
12.080,-0.256
12.085,-0.272
12.090,-0.287
12.095,-0.293
12.100,-0.285
12.105,-0.283
12.110,-0.275
12.115,-0.223
12.120,-0.178
12.125,-0.166
12.130,-0.139
12.135,-0.083
12.140,0.016
12.145,0.101
12.150,0.136
12.155,0.200
12.160,0.276
12.165,0.314
12.170,0.351
12.175,0.382
12.180,0.392
12.185,0.407
12.190,0.425
12.195,0.445
12.200,0.436
12.205,0.407
12.210,0.397
12.215,0.405
12.220,0.401
12.225,0.366
12.230,0.339
12.235,0.326
12.240,0.323
12.245,0.319
12.250,0.308
12.255,0.303
12.260,0.262
12.265,0.220
12.270,0.214
12.275,0.220
12.280,0.237
12.285,0.215
12.290,0.164
12.295,0.150
12.300,0.128
12.305,0.109
12.310,0.131
12.315,0.147
12.320,0.133
12.325,0.091
12.330,0.070
12.335,0.083
12.340,0.072
12.345,0.050
12.350,0.039
12.355,0.028
12.360,0.036
12.365,0.046
12.370,0.026
12.375,0.008
12.380,-0.003
12.385,-0.011
12.390,0.001
12.395,0.016
12.400,-0.004
12.405,-0.021
12.410,-0.021
12.415,-0.049
12.420,-0.061
12.425,-0.055
12.430,-0.083
12.435,-0.096
12.440,-0.093
12.445,-0.100
12.450,-0.086
12.455,-0.070
12.460,-0.081
12.465,-0.080
12.470,-0.051
12.475,-0.026
12.480,-0.015
12.485,-0.014
12.490,-0.016
12.495,0.002
12.500,0.025
12.505,0.015
12.510,0.008
12.515,0.025
12.520,0.029
12.525,0.028
12.530,0.030
12.535,0.022
12.540,0.001
12.545,-0.016
12.550,-0.021
12.555,-0.031
12.560,-0.032
12.565,-0.021
12.570,-0.018
12.575,-0.035
12.580,-0.049
12.585,-0.040
12.590,-0.030
12.595,-0.032
12.600,-0.050
12.605,-0.069
12.610,-0.068
12.615,-0.056
12.620,-0.050
12.625,-0.056
12.630,-0.066
12.635,-0.073
12.640,-0.063
12.645,-0.053
12.650,-0.075
12.655,-0.114
12.660,-0.148
12.665,-0.181
12.670,-0.277
12.675,-0.514
12.680,-0.793
12.685,-0.932
12.690,-0.747
12.695,-0.248
12.700,0.263
12.705,0.652
12.710,0.926
12.715,0.992
12.720,0.878
12.725,0.632
12.730,0.334
12.735,0.123
12.740,-0.032
12.745,-0.148
12.750,-0.178
12.755,-0.171
12.760,-0.180
12.765,-0.191
12.770,-0.194
12.775,-0.207
12.780,-0.203
12.785,-0.176
12.790,-0.170
12.795,-0.178
12.800,-0.180
12.805,-0.170
12.810,-0.152
12.815,-0.150
12.820,-0.164
12.825,-0.163
12.830,-0.151
12.835,-0.152
12.840,-0.147
12.845,-0.136
12.850,-0.131
12.855,-0.114
12.860,-0.097
12.865,-0.111
12.870,-0.123
12.875,-0.124
12.880,-0.118
12.885,-0.112
12.890,-0.117
12.895,-0.115
12.900,-0.115
12.905,-0.138
12.910,-0.155
12.915,-0.152
12.920,-0.142
12.925,-0.151
12.930,-0.176
12.935,-0.194
12.940,-0.200
12.945,-0.209
12.950,-0.232
12.955,-0.249
12.960,-0.257
12.965,-0.268
12.970,-0.257
12.975,-0.241
12.980,-0.236
12.985,-0.233
12.990,-0.227
12.995,-0.197
13.000,-0.157
13.005,-0.121
13.010,-0.076
13.015,-0.011
13.020,0.067
13.025,0.129
13.030,0.185
13.035,0.247
13.040,0.294
13.045,0.332
13.050,0.361
13.055,0.382
13.060,0.406
13.065,0.415
13.070,0.417
13.075,0.417
13.080,0.409
13.085,0.401
13.090,0.384
13.095,0.370
13.100,0.364
13.105,0.357
13.110,0.354
13.115,0.334
13.120,0.309
13.125,0.285
13.130,0.267
13.135,0.257
13.140,0.240
13.145,0.223
13.150,0.204
13.155,0.184
13.160,0.167
13.165,0.151
13.170,0.144
13.175,0.131
13.180,0.118
13.185,0.109
13.190,0.091
13.195,0.085
13.200,0.075
13.205,0.062
13.210,0.061
13.215,0.051
13.220,0.041
13.225,0.037
13.230,0.032
13.235,0.030
13.240,0.023
13.245,0.018
13.250,0.017
13.255,0.020
13.260,0.022
13.265,0.017
13.270,0.019
13.275,0.017
13.280,0.006
13.285,0.001
13.290,-0.006
13.295,-0.005
13.300,-0.001
13.305,-0.004
13.310,-0.005
13.315,-0.010
13.320,-0.013
13.325,-0.014
13.330,-0.021
13.335,-0.024
13.340,-0.025
13.345,-0.023
13.350,-0.025
13.355,-0.027
13.360,-0.024
13.365,-0.035
13.370,-0.047
13.375,-0.050
13.380,-0.044
13.385,-0.040
13.390,-0.050
13.395,-0.050
13.400,-0.042
13.405,-0.035
13.410,-0.031
13.415,-0.042
13.420,-0.050
13.425,-0.056
13.430,-0.061
13.435,-0.060
13.440,-0.059
13.445,-0.056
13.450,-0.058
13.455,-0.062
13.460,-0.058
13.465,-0.060
13.470,-0.064
13.475,-0.067
13.480,-0.066
13.485,-0.063
13.490,-0.067
13.495,-0.071
13.500,-0.074
13.505,-0.073
13.510,-0.064
13.515,-0.059
13.520,-0.057
13.525,-0.060
13.530,-0.063
13.535,-0.055
13.540,-0.056
13.545,-0.056
13.550,-0.055
13.555,-0.056
13.560,-0.052
13.565,-0.055
13.570,-0.055
13.575,-0.054
13.580,-0.057
13.585,-0.055
13.590,-0.057
13.595,-0.054
13.600,-0.056
13.605,-0.059
13.610,-0.054
13.615,-0.052
13.620,-0.044
13.625,-0.037
13.630,-0.037
13.635,-0.037
13.640,-0.048
13.645,-0.049
13.650,-0.042
13.655,-0.040
13.660,-0.033
13.665,-0.036
13.670,-0.039
13.675,-0.037
13.680,-0.040
13.685,-0.037
13.690,-0.033
13.695,-0.026
13.700,-0.022
13.705,-0.025
13.710,-0.021
13.715,-0.026
13.720,-0.028
13.725,-0.025
13.730,-0.026
13.735,-0.021
13.740,-0.024
13.745,-0.024
13.750,-0.021
13.755,-0.024
13.760,-0.024
13.765,-0.025
13.770,-0.021
13.775,-0.014
13.780,-0.012
13.785,-0.016
13.790,-0.021
13.795,-0.016
13.800,-0.018
13.805,-0.028
13.810,-0.026
13.815,-0.020
13.820,-0.011
13.825,-0.010
13.830,-0.013
13.835,-0.015
13.840,-0.023
13.845,-0.015
13.850,-0.006
13.855,-0.006
13.860,-0.005
13.865,-0.009
13.870,0.001
13.875,0.005
13.880,-0.009
13.885,-0.003
13.890,0.010
13.895,0.011
13.900,-0.002
13.905,-0.016
13.910,-0.009
13.915,0.009
13.920,0.016
13.925,0.005
13.930,-0.014
13.935,-0.022
13.940,-0.014
13.945,0.003
13.950,0.006
13.955,-0.005
13.960,-0.013
13.965,-0.014
13.970,0.009
13.975,0.029
13.980,0.017
13.985,0.000
13.990,-0.008
13.995,0.004
14.000,0.018
14.005,0.014
14.010,0.004
14.015,-0.003
14.020,0.000
14.025,0.006
14.030,0.007
14.035,0.001
14.040,-0.021
14.045,-0.023
14.050,-0.011
14.055,-0.028
14.060,-0.042
14.065,-0.045
14.070,-0.058
14.075,-0.070
14.080,-0.061
14.085,-0.047
14.090,-0.041
14.095,-0.039
14.100,-0.034
14.105,-0.011
14.110,0.009
14.115,0.010
14.120,0.025
14.125,0.056
14.130,0.072
14.135,0.078
14.140,0.075
14.145,0.078
14.150,0.087
14.155,0.077
14.160,0.065
14.165,0.058
14.170,0.067
14.175,0.078
14.180,0.062
14.185,0.050
14.190,0.048
14.195,0.053
14.200,0.054
14.205,0.041
14.210,0.027
14.215,0.013
14.220,0.022
14.225,0.031
14.230,0.011
14.235,0.005
14.240,0.016
14.245,0.022
14.250,0.026
14.255,0.009
14.260,-0.007
14.265,-0.006
14.270,-0.023
14.275,-0.051
14.280,-0.094
14.285,-0.178
14.290,-0.319
14.295,-0.548
14.300,-0.791
14.305,-0.794
14.310,-0.418
14.315,0.090
14.320,0.465
14.325,0.759
14.330,0.983
14.335,1.010
14.340,0.827
14.345,0.519
14.350,0.270
14.355,0.130
14.360,-0.001
14.365,-0.082
14.370,-0.096
14.375,-0.103
14.380,-0.105
14.385,-0.115
14.390,-0.133
14.395,-0.123
14.400,-0.107
14.405,-0.118
14.410,-0.134
14.415,-0.135
14.420,-0.112
14.425,-0.114
14.430,-0.129
14.435,-0.111
14.440,-0.097
14.445,-0.088
14.450,-0.089
14.455,-0.092
14.460,-0.092
14.465,-0.110
14.470,-0.102
14.475,-0.081
14.480,-0.085
14.485,-0.070
14.490,-0.085
14.495,-0.112
14.500,-0.088
14.505,-0.071
14.510,-0.071
14.515,-0.082
14.520,-0.111
14.525,-0.128
14.530,-0.123
14.535,-0.107
14.540,-0.090
14.545,-0.102
14.550,-0.146
14.555,-0.178
14.560,-0.177
14.565,-0.185
14.570,-0.197
14.575,-0.195
14.580,-0.209
14.585,-0.227
14.590,-0.230
14.595,-0.224
14.600,-0.216
14.605,-0.211
14.610,-0.205
14.615,-0.197
14.620,-0.189
14.625,-0.174
14.630,-0.126
14.635,-0.073
14.640,-0.039
14.645,0.011
14.650,0.079
14.655,0.144
14.660,0.177
14.665,0.184
14.670,0.238
14.675,0.315
14.680,0.348
14.685,0.351
14.690,0.338
14.695,0.336
14.700,0.338
14.705,0.332
14.710,0.344
14.715,0.356
14.720,0.343
14.725,0.323
14.730,0.313
14.735,0.300
14.740,0.292
14.745,0.277
14.750,0.243
14.755,0.239
14.760,0.249
14.765,0.216
14.770,0.187
14.775,0.173
14.780,0.171
14.785,0.170
14.790,0.136
14.795,0.113
14.800,0.121
14.805,0.116
14.810,0.102
14.815,0.087
14.820,0.070
14.825,0.060
14.830,0.054
14.835,0.042
14.840,0.021
14.845,0.029
14.850,0.055
14.855,0.038
14.860,0.014
14.865,0.017
14.870,0.022
14.875,0.016
14.880,-0.005
14.885,-0.008
14.890,0.010
14.895,0.016
14.900,0.009
14.905,0.003
14.910,0.011
14.915,0.018
14.920,0.014
14.925,0.002
14.930,-0.016
14.935,-0.015
14.940,-0.001
14.945,0.006
14.950,0.000
14.955,-0.013
14.960,-0.024
14.965,-0.029
14.970,-0.019
14.975,-0.010
14.980,-0.011
14.985,-0.008
14.990,-0.014
14.995,-0.030
15.000,-0.039
15.005,-0.033
15.010,-0.024
15.015,-0.021
15.020,-0.025
15.025,-0.036
15.030,-0.042
15.035,-0.046
15.040,-0.047
15.045,-0.033
15.050,-0.034
15.055,-0.052
15.060,-0.057
15.065,-0.054
15.070,-0.047
15.075,-0.047
15.080,-0.043
15.085,-0.031
15.090,-0.034
15.095,-0.047
15.100,-0.063
15.105,-0.064
15.110,-0.046
15.115,-0.045
15.120,-0.055
15.125,-0.058
15.130,-0.057
15.135,-0.051
15.140,-0.053
15.145,-0.054
15.150,-0.053
15.155,-0.052
15.160,-0.050
15.165,-0.057
15.170,-0.065
15.175,-0.066
15.180,-0.054
15.185,-0.031
15.190,-0.028
15.195,-0.043
15.200,-0.055
15.205,-0.055
15.210,-0.039
15.215,-0.040
15.220,-0.051
15.225,-0.049
15.230,-0.042
15.235,-0.034
15.240,-0.041
15.245,-0.045
15.250,-0.044
15.255,-0.053
15.260,-0.043
15.265,-0.032
15.270,-0.033
15.275,-0.036
15.280,-0.045
15.285,-0.042
15.290,-0.034
15.295,-0.036
15.300,-0.045
15.305,-0.053
15.310,-0.055
15.315,-0.061
15.320,-0.065
15.325,-0.077
15.330,-0.100
15.335,-0.103
15.340,-0.094
15.345,-0.093
15.350,-0.084
15.355,-0.081
15.360,-0.084
15.365,-0.076
15.370,-0.058
15.375,-0.038
15.380,-0.018
15.385,-0.006
15.390,-0.002
15.395,0.012
15.400,0.029
15.405,0.039
15.410,0.049
15.415,0.051
15.420,0.050
15.425,0.053
15.430,0.053
15.435,0.049
15.440,0.048
15.445,0.048
15.450,0.042
15.455,0.033
15.460,0.031
15.465,0.024
15.470,0.015
15.475,0.007
15.480,0.002
15.485,0.007
15.490,0.009
15.495,0.008
15.500,0.007
15.505,0.003
15.510,0.004
15.515,-0.001
15.520,-0.005
15.525,-0.004
15.530,-0.011
15.535,-0.018
15.540,-0.021
15.545,-0.015
15.550,-0.018
15.555,-0.042
15.560,-0.068
15.565,-0.123
15.570,-0.239
15.575,-0.448
15.580,-0.725
15.585,-0.884
15.590,-0.705
15.595,-0.229
15.600,0.243
15.605,0.595
15.610,0.894
15.615,1.027
15.620,0.935
15.625,0.684
15.630,0.389
15.635,0.202
15.640,0.056
15.645,-0.078
15.650,-0.104
15.655,-0.097
15.660,-0.111
15.665,-0.117
15.670,-0.114
15.675,-0.122
15.680,-0.132
15.685,-0.124
15.690,-0.119
15.695,-0.124
15.700,-0.124
15.705,-0.125
15.710,-0.129
15.715,-0.128
15.720,-0.104
15.725,-0.077
15.730,-0.076
15.735,-0.080
15.740,-0.095
15.745,-0.102
15.750,-0.091
15.755,-0.087
15.760,-0.077
15.765,-0.070
15.770,-0.073
15.775,-0.079
15.780,-0.083
15.785,-0.079
15.790,-0.079
15.795,-0.077
15.800,-0.078
15.805,-0.089
15.810,-0.094
15.815,-0.102
15.820,-0.112
15.825,-0.117
15.830,-0.131
15.835,-0.143
15.840,-0.152
15.845,-0.160
15.850,-0.172
15.855,-0.195
15.860,-0.210
15.865,-0.220
15.870,-0.224
15.875,-0.219
15.880,-0.218
15.885,-0.211
15.890,-0.201
15.895,-0.189
15.900,-0.174
15.905,-0.158
15.910,-0.122
15.915,-0.078
15.920,-0.028
15.925,0.032
15.930,0.087
15.935,0.140
15.940,0.191
15.945,0.237
15.950,0.279
15.955,0.312
15.960,0.341
15.965,0.359
15.970,0.369
15.975,0.375
15.980,0.373
15.985,0.377
15.990,0.372
15.995,0.364
16.000,0.361
16.005,0.347
16.010,0.335
16.015,0.320
16.020,0.304
16.025,0.291
16.030,0.269
16.035,0.248
16.040,0.227
16.045,0.215
16.050,0.210
16.055,0.196
16.060,0.182
16.065,0.162
16.070,0.140
16.075,0.132
16.080,0.119
16.085,0.107
16.090,0.096
16.095,0.080
16.100,0.069
16.105,0.062
16.110,0.059
16.115,0.054
16.120,0.047
16.125,0.039
16.130,0.026
16.135,0.018
16.140,0.012
16.145,0.009
16.150,0.010
16.155,0.002
16.160,-0.002
16.165,-0.007
16.170,-0.007
16.175,0.002
16.180,0.004
16.185,0.003
16.190,-0.003
16.195,-0.008
16.200,-0.005
16.205,-0.012
16.210,-0.013
16.215,-0.010
16.220,-0.013
16.225,-0.016
16.230,-0.024
16.235,-0.025
16.240,-0.022
16.245,-0.021
16.250,-0.023
16.255,-0.036
16.260,-0.045
16.265,-0.049
16.270,-0.044
16.275,-0.031
16.280,-0.028
16.285,-0.034
16.290,-0.043
16.295,-0.046
16.300,-0.043
16.305,-0.049
16.310,-0.051
16.315,-0.048
16.320,-0.049
16.325,-0.052
16.330,-0.062
16.335,-0.066
16.340,-0.062
16.345,-0.059
16.350,-0.054
16.355,-0.052
16.360,-0.049
16.365,-0.052
16.370,-0.055
16.375,-0.049
16.380,-0.054
16.385,-0.067
16.390,-0.069
16.395,-0.061
16.400,-0.058
16.405,-0.066
16.410,-0.066
16.415,-0.063
16.420,-0.059
16.425,-0.056
16.430,-0.058
16.435,-0.046
16.440,-0.047
16.445,-0.062
16.450,-0.056
16.455,-0.050
16.460,-0.046
16.465,-0.049
16.470,-0.059
16.475,-0.054
16.480,-0.052
16.485,-0.054
16.490,-0.058
16.495,-0.068
16.500,-0.053
16.505,-0.030
16.510,-0.026
16.515,-0.029
16.520,-0.037
16.525,-0.055
16.530,-0.067
16.535,-0.051
16.540,-0.026
16.545,-0.017
16.550,-0.027
16.555,-0.044
16.560,-0.037
16.565,-0.042
16.570,-0.062
16.575,-0.054
16.580,-0.061
16.585,-0.075
16.590,-0.062
16.595,-0.057
16.600,-0.071
16.605,-0.097
16.610,-0.108
16.615,-0.087
16.620,-0.067
16.625,-0.061
16.630,-0.059
16.635,-0.048
16.640,-0.032
16.645,-0.023
16.650,-0.017
16.655,-0.019
16.660,-0.002
16.665,0.027
16.670,0.031
16.675,0.031
16.680,0.030
16.685,0.040
16.690,0.051
16.695,0.053
16.700,0.063
16.705,0.057
16.710,0.043
16.715,0.030
16.720,0.012
16.725,0.023
16.730,0.043
16.735,0.039
16.740,0.030
16.745,0.010
16.750,0.004
16.755,0.022
16.760,0.024
16.765,0.007
16.770,-0.010
16.775,-0.012
16.780,-0.001
16.785,0.004
16.790,0.006
16.795,0.014
16.800,0.007
16.805,-0.014
16.810,-0.009
16.815,0.001
16.820,-0.014
16.825,-0.033
16.830,-0.055
16.835,-0.085
16.840,-0.138
16.845,-0.267
16.850,-0.485
16.855,-0.740
16.860,-0.840
16.865,-0.563
16.870,-0.017
16.875,0.430
16.880,0.730
16.885,0.982
16.890,0.879
16.895,0.342
16.900,-0.140
16.905,-0.374
16.910,-0.468
16.915,-0.569
16.920,-0.720
16.925,-0.694
16.930,-0.575
16.935,-0.568
16.940,-0.559
16.945,-0.497
16.950,-0.484
16.955,-0.494
16.960,-0.433
16.965,-0.373
16.970,-0.362
16.975,-0.332
16.980,-0.294
16.985,-0.275
16.990,-0.254
16.995,-0.210
17.000,-0.175
17.005,-0.164
17.010,-0.143
17.015,-0.137
17.020,-0.117
17.025,-0.062
17.030,-0.044
17.035,-0.040
17.040,-0.028
17.045,-0.010
17.050,0.009
17.055,-0.001
17.060,0.010
17.065,0.033
17.070,0.042
17.075,0.051
17.080,0.043
17.085,0.045
17.090,0.054
17.095,0.054
17.100,0.057
17.105,0.065
17.110,0.059
17.115,0.029
17.120,-0.002
17.125,-0.014
17.130,-0.003
17.135,0.006
17.140,-0.015
17.145,-0.032
17.150,-0.016
17.155,0.006
17.160,0.013
17.165,-0.001
17.170,-0.008
17.175,0.013
17.180,0.049
17.185,0.092
17.190,0.134
17.195,0.189
17.200,0.246
17.205,0.283
17.210,0.322
17.215,0.378
17.220,0.448
17.225,0.511
17.230,0.535
17.235,0.533
17.240,0.547
17.245,0.573
17.250,0.587
17.255,0.586
17.260,0.563
17.265,0.539
17.270,0.545
17.275,0.544
17.280,0.514
17.285,0.496
17.290,0.475
17.295,0.456
17.300,0.461
17.305,0.449
17.310,0.420
17.315,0.384
17.320,0.344
17.325,0.334
17.330,0.330
17.335,0.305
17.340,0.290
17.345,0.281
17.350,0.256
17.355,0.227
17.360,0.218
17.365,0.207
17.370,0.175
17.375,0.157
17.380,0.158
17.385,0.163
17.390,0.147
17.395,0.118
17.400,0.106
17.405,0.097
17.410,0.089
17.415,0.083
17.420,0.085
17.425,0.083
17.430,0.063
17.435,0.056
17.440,0.054
17.445,0.037
17.450,0.031
17.455,0.032
17.460,0.031
17.465,0.034
17.470,0.033
17.475,0.023
17.480,0.011
17.485,0.014
17.490,0.011
17.495,-0.007
17.500,-0.004
17.505,-0.004
17.510,-0.008
17.515,-0.016
17.520,-0.039
17.525,-0.035
17.530,-0.028
17.535,-0.039
17.540,-0.038
17.545,-0.032
17.550,-0.036
17.555,-0.055
17.560,-0.053
17.565,-0.043
17.570,-0.061
17.575,-0.075
17.580,-0.069
17.585,-0.059
17.590,-0.062
17.595,-0.073
17.600,-0.073
17.605,-0.069
17.610,-0.065
17.615,-0.075
17.620,-0.084
17.625,-0.083
17.630,-0.109
17.635,-0.113
17.640,-0.090
17.645,-0.088
17.650,-0.083
17.655,-0.082
17.660,-0.095
17.665,-0.099
17.670,-0.096
17.675,-0.096
17.680,-0.098
17.685,-0.092
17.690,-0.088
17.695,-0.091
17.700,-0.096
17.705,-0.105
17.710,-0.098
17.715,-0.088
17.720,-0.084
17.725,-0.090
17.730,-0.101
17.735,-0.100
17.740,-0.099
17.745,-0.098
17.750,-0.098
17.755,-0.111
17.760,-0.122
17.765,-0.127
17.770,-0.131
17.775,-0.124
17.780,-0.135
17.785,-0.164
17.790,-0.161
17.795,-0.138
17.800,-0.123
17.805,-0.121
17.810,-0.116
17.815,-0.094
17.820,-0.078
17.825,-0.069
17.830,-0.062
17.835,-0.051
17.840,-0.048
17.845,-0.050
17.850,-0.028
17.855,-0.013
17.860,-0.009
17.865,-0.007
17.870,-0.013
17.875,0.002
17.880,0.014
17.885,-0.001
17.890,-0.011
17.895,-0.014
17.900,-0.020
17.905,-0.023
17.910,-0.020
17.915,-0.022
17.920,-0.025
17.925,-0.031
17.930,-0.053
17.935,-0.054
17.940,-0.029
17.945,-0.021
17.950,-0.021
17.955,-0.030
17.960,-0.039
17.965,-0.033
17.970,-0.037
17.975,-0.046
17.980,-0.055
17.985,-0.055
17.990,-0.046
17.995,-0.038
18.000,-0.034
18.005,-0.060
18.010,-0.093
18.015,-0.131
18.020,-0.220
18.025,-0.399
18.030,-0.668
18.035,-0.897
18.040,-0.846
18.045,-0.421
18.050,0.115
18.055,0.494
18.060,0.788
18.065,0.987
18.070,0.968
18.075,0.767
18.080,0.451
18.085,0.209
18.090,0.078
18.095,-0.061
18.100,-0.127
18.105,-0.125
18.110,-0.140
18.115,-0.152
18.120,-0.146
18.125,-0.136
18.130,-0.146
18.135,-0.148
18.140,-0.135
18.145,-0.139
18.150,-0.137
18.155,-0.127
18.160,-0.118
18.165,-0.116
18.170,-0.123
18.175,-0.116
18.180,-0.103
18.185,-0.097
18.190,-0.099
18.195,-0.106
18.200,-0.097
18.205,-0.088
18.210,-0.088
18.215,-0.087
18.220,-0.090
18.225,-0.089
18.230,-0.091
18.235,-0.091
18.240,-0.087
18.245,-0.090
18.250,-0.092
18.255,-0.096
18.260,-0.099
18.265,-0.105
18.270,-0.118
18.275,-0.123
18.280,-0.133
18.285,-0.150
18.290,-0.160
18.295,-0.173
18.300,-0.187
18.305,-0.200
18.310,-0.210
18.315,-0.220
18.320,-0.229
18.325,-0.232
18.330,-0.242
18.335,-0.241
18.340,-0.222
18.345,-0.200
18.350,-0.173
18.355,-0.155
18.360,-0.134
18.365,-0.091
18.370,-0.042
18.375,0.019
18.380,0.079
18.385,0.129
18.390,0.179
18.395,0.228
18.400,0.280
18.405,0.317
18.410,0.340
18.415,0.362
18.420,0.378
18.425,0.391
18.430,0.390
18.435,0.385
18.440,0.384
18.445,0.377
18.450,0.368
18.455,0.351
18.460,0.336
18.465,0.328
18.470,0.313
18.475,0.298
18.480,0.282
18.485,0.267
18.490,0.254
18.495,0.229
18.500,0.204
18.505,0.188
18.510,0.185
18.515,0.184
18.520,0.170
18.525,0.154
18.530,0.130
18.535,0.110
18.540,0.098
18.545,0.086
18.550,0.081
18.555,0.072
18.560,0.068
18.565,0.063
18.570,0.048
18.575,0.035
18.580,0.022
18.585,0.019
18.590,0.021
18.595,0.012
18.600,0.008
18.605,0.005
18.610,0.002
18.615,0.001
18.620,-0.004
18.625,-0.005
18.630,-0.010
18.635,-0.010
18.640,-0.004
18.645,-0.009
18.650,-0.010
18.655,-0.013
18.660,-0.016
18.665,-0.015
18.670,-0.021
18.675,-0.020
18.680,-0.022
18.685,-0.028
18.690,-0.032
18.695,-0.038
18.700,-0.033
18.705,-0.028
18.710,-0.029
18.715,-0.030
18.720,-0.036
18.725,-0.039
18.730,-0.042
18.735,-0.043
18.740,-0.040
18.745,-0.040
18.750,-0.040
18.755,-0.049
18.760,-0.053
18.765,-0.046
18.770,-0.044
18.775,-0.042
18.780,-0.048
18.785,-0.057
18.790,-0.055
18.795,-0.051
18.800,-0.054
18.805,-0.059
18.810,-0.061
18.815,-0.060
18.820,-0.061
18.825,-0.062
18.830,-0.068
18.835,-0.071
18.840,-0.062
18.845,-0.057
18.850,-0.054
18.855,-0.059
18.860,-0.067
18.865,-0.065
18.870,-0.064
18.875,-0.058
18.880,-0.057
18.885,-0.058
18.890,-0.055
18.895,-0.061
18.900,-0.064
18.905,-0.064
18.910,-0.060
18.915,-0.052
18.920,-0.052
18.925,-0.049
18.930,-0.050
18.935,-0.056
18.940,-0.061
18.945,-0.066
18.950,-0.056
18.955,-0.048
18.960,-0.047
18.965,-0.048
18.970,-0.055
18.975,-0.052
18.980,-0.049
18.985,-0.048
18.990,-0.039
18.995,-0.040
19.000,-0.058
19.005,-0.079
19.010,-0.083
19.015,-0.077
19.020,-0.086
19.025,-0.092
19.030,-0.093
19.035,-0.098
19.040,-0.093
19.045,-0.078
19.050,-0.060
19.055,-0.053
19.060,-0.054
19.065,-0.048
19.070,-0.032
19.075,-0.016
19.080,-0.011
19.085,-0.005
19.090,0.002
19.095,0.005
19.100,0.019
19.105,0.035
19.110,0.043
19.115,0.049
19.120,0.043
19.125,0.041
19.130,0.037
19.135,0.034
19.140,0.041
19.145,0.041
19.150,0.039
19.155,0.023
19.160,0.009
19.165,0.014
19.170,0.013
19.175,0.005
19.180,-0.003
19.185,0.003
19.190,0.016
19.195,0.011
19.200,0.008
19.205,0.000
19.210,-0.009
19.215,-0.010
19.220,-0.022
19.225,-0.018
19.230,-0.005
19.235,-0.004
19.240,-0.001
19.245,-0.008
19.250,-0.026
19.255,-0.055
19.260,-0.074
19.265,-0.094
19.270,-0.178
19.275,-0.344
19.280,-0.611
19.285,-0.837
19.290,-0.749
19.295,-0.310
19.300,0.209
19.305,0.563
19.310,0.832
19.315,1.032
19.320,1.016
19.325,0.800
19.330,0.477
19.335,0.231
19.340,0.098
19.345,-0.052
19.350,-0.125
19.355,-0.113
19.360,-0.125
19.365,-0.135
19.370,-0.135
19.375,-0.139
19.380,-0.150
19.385,-0.149
19.390,-0.131
19.395,-0.125
19.400,-0.125
19.405,-0.128
19.410,-0.127
19.415,-0.128
19.420,-0.129
19.425,-0.100
19.430,-0.087
19.435,-0.090
19.440,-0.099
19.445,-0.121
19.450,-0.101
19.455,-0.072
19.460,-0.073
19.465,-0.074
19.470,-0.100
19.475,-0.126
19.480,-0.095
19.485,-0.058
19.490,-0.053
19.495,-0.074
19.500,-0.094
19.505,-0.089
19.510,-0.086
19.515,-0.112
19.520,-0.131
19.525,-0.120
19.530,-0.124
19.535,-0.137
19.540,-0.145
19.545,-0.161
19.550,-0.158
19.555,-0.173
19.560,-0.209
19.565,-0.225
19.570,-0.244
19.575,-0.247
19.580,-0.225
19.585,-0.210
19.590,-0.198
19.595,-0.202
19.600,-0.200
19.605,-0.168
19.610,-0.148
19.615,-0.138
19.620,-0.090
19.625,-0.001
19.630,0.083
19.635,0.131
19.640,0.169
19.645,0.219
19.650,0.264
19.655,0.286
19.660,0.299
19.665,0.338
19.670,0.383
19.675,0.382
19.680,0.367
19.685,0.379
19.690,0.392
19.695,0.387
19.700,0.362
19.705,0.320
19.710,0.314
19.715,0.324
19.720,0.315
19.725,0.314
19.730,0.286
19.735,0.257
19.740,0.258
19.745,0.235
19.750,0.208
19.755,0.195
19.760,0.181
19.765,0.171
19.770,0.160
19.775,0.159
19.780,0.152
19.785,0.120
19.790,0.112
19.795,0.110
19.800,0.101
19.805,0.112
19.810,0.088
19.815,0.044
19.820,0.041
19.825,0.058
19.830,0.052
19.835,0.033
19.840,0.022
19.845,0.031
19.850,0.038
19.855,0.011
19.860,0.003
19.865,0.027
19.870,0.024
19.875,0.008
19.880,-0.004
19.885,-0.017
19.890,-0.011
19.895,0.013
19.900,0.021
19.905,0.001
19.910,-0.003
19.915,0.002
19.920,-0.010
19.925,-0.016
19.930,-0.018
19.935,-0.013
19.940,-0.016
19.945,-0.039
19.950,-0.035
19.955,-0.019
19.960,-0.014
19.965,-0.014
19.970,-0.041
19.975,-0.060
19.980,-0.045
19.985,-0.029
19.990,-0.024
19.995,-0.035
20.000,-0.047
20.005,-0.043
20.010,-0.038
20.015,-0.056
20.020,-0.062
20.025,-0.045
20.030,-0.042
20.035,-0.045
20.040,-0.053
20.045,-0.058
20.050,-0.042
20.055,-0.047
20.060,-0.066
20.065,-0.054
20.070,-0.050
20.075,-0.060
20.080,-0.074
20.085,-0.081
20.090,-0.060
20.095,-0.045
20.100,-0.039
20.105,-0.037
20.110,-0.052
20.115,-0.062
20.120,-0.067
20.125,-0.082
20.130,-0.076
20.135,-0.042
20.140,-0.030
20.145,-0.041
20.150,-0.055
20.155,-0.068
20.160,-0.065
20.165,-0.054
20.170,-0.057
20.175,-0.048
20.180,-0.034
20.185,-0.046
20.190,-0.050
20.195,-0.051
20.200,-0.055
20.205,-0.046
20.210,-0.048
20.215,-0.068
20.220,-0.076
20.225,-0.070
20.230,-0.075
20.235,-0.082
20.240,-0.087
20.245,-0.105
20.250,-0.112
20.255,-0.105
20.260,-0.093
20.265,-0.081
20.270,-0.085
20.275,-0.077
20.280,-0.053
20.285,-0.044
20.290,-0.030
20.295,-0.015
20.300,-0.016
20.305,-0.015
20.310,-0.001
20.315,0.024
20.320,0.033
20.325,0.027
20.330,0.029
20.335,0.040
20.340,0.054
20.345,0.041
20.350,0.021
20.355,0.022
20.360,0.023
20.365,0.023
20.370,0.018
20.375,0.015
20.380,0.021
20.385,0.021
20.390,0.013
20.395,-0.002
20.400,-0.007
20.405,0.000
20.410,-0.002
20.415,-0.001
20.420,0.004
20.425,0.003
20.430,0.000
20.435,-0.011
20.440,-0.013
20.445,-0.012
20.450,-0.011
20.455,-0.011
20.460,-0.019
20.465,-0.025
20.470,-0.042
20.475,-0.064
20.480,-0.094
20.485,-0.182
20.490,-0.360
20.495,-0.621
20.500,-0.833
20.505,-0.766
20.510,-0.340
20.515,0.179
20.520,0.545
20.525,0.835
20.530,1.010
20.535,0.966
20.540,0.760
20.545,0.449
20.550,0.212
20.555,0.071
20.560,-0.072
20.565,-0.126
20.570,-0.108
20.575,-0.117
20.580,-0.135
20.585,-0.133
20.590,-0.129
20.595,-0.138
20.600,-0.136
20.605,-0.128
20.610,-0.131
20.615,-0.125
20.620,-0.124
20.625,-0.127
20.630,-0.126
20.635,-0.118
20.640,-0.101
20.645,-0.094
20.650,-0.094
20.655,-0.094
20.660,-0.101
20.665,-0.102
20.670,-0.093
20.675,-0.080
20.680,-0.073
20.685,-0.080
20.690,-0.088
20.695,-0.093
20.700,-0.089
20.705,-0.088
20.710,-0.090
20.715,-0.087
20.720,-0.094
20.725,-0.103
20.730,-0.107
20.735,-0.112
20.740,-0.115
20.745,-0.129
20.750,-0.146
20.755,-0.157
20.760,-0.169
20.765,-0.180
20.770,-0.198
20.775,-0.213
20.780,-0.219
20.785,-0.226
20.790,-0.226
20.795,-0.226
20.800,-0.222
20.805,-0.215
20.810,-0.209
20.815,-0.189
20.820,-0.160
20.825,-0.120
20.830,-0.078
20.835,-0.042
20.840,0.004
20.845,0.060
20.850,0.126
20.855,0.191
20.860,0.236
20.865,0.275
20.870,0.308
20.875,0.340
20.880,0.363
20.885,0.373
20.890,0.386
20.895,0.393
20.900,0.389
20.905,0.383
20.910,0.371
20.915,0.360
20.920,0.344
20.925,0.333
20.930,0.328
20.935,0.316
20.940,0.303
20.945,0.284
20.950,0.264
20.955,0.248
20.960,0.228
20.965,0.213
20.970,0.198
20.975,0.183
20.980,0.170
20.985,0.153
20.990,0.140
20.995,0.125
21.000,0.113
21.005,0.106
21.010,0.092
21.015,0.080
21.020,0.068
21.025,0.056
21.030,0.046
21.035,0.036
21.040,0.034
21.045,0.029
21.050,0.020
21.055,0.013
21.060,0.004
21.065,0.003
21.070,0.004
21.075,0.005
21.080,0.004
21.085,0.000
21.090,0.001
21.095,-0.003
21.100,-0.006
21.105,-0.005
21.110,-0.007
21.115,-0.003
21.120,-0.005
21.125,-0.010
21.130,-0.011
21.135,-0.015
21.140,-0.014
21.145,-0.017
21.150,-0.020
21.155,-0.021
21.160,-0.024
21.165,-0.022
21.170,-0.023
21.175,-0.023
21.180,-0.023
21.185,-0.029
21.190,-0.029
21.195,-0.032
21.200,-0.038
21.205,-0.040
21.210,-0.045
21.215,-0.044
21.220,-0.043
21.225,-0.044
21.230,-0.043
21.235,-0.047
21.240,-0.046
21.245,-0.051
21.250,-0.057
21.255,-0.058
21.260,-0.058
21.265,-0.053
21.270,-0.055
21.275,-0.057
21.280,-0.054
21.285,-0.056
21.290,-0.056
21.295,-0.061
21.300,-0.064
21.305,-0.059
21.310,-0.058
21.315,-0.055
21.320,-0.056
21.325,-0.056
21.330,-0.055
21.335,-0.060
21.340,-0.056
21.345,-0.057
21.350,-0.063
21.355,-0.062
21.360,-0.061
21.365,-0.054
21.370,-0.051
21.375,-0.052
21.380,-0.051
21.385,-0.052
21.390,-0.049
21.395,-0.051
21.400,-0.054
21.405,-0.047
21.410,-0.045
21.415,-0.043
21.420,-0.046
21.425,-0.047
21.430,-0.044
21.435,-0.048
21.440,-0.049
21.445,-0.050
21.450,-0.048
21.455,-0.041
21.460,-0.041
21.465,-0.038
21.470,-0.038
21.475,-0.040
21.480,-0.042
21.485,-0.046
21.490,-0.038
21.495,-0.035
21.500,-0.036
21.505,-0.041
21.510,-0.059
21.515,-0.064
21.520,-0.068
21.525,-0.076
21.530,-0.079
21.535,-0.090
21.540,-0.093
21.545,-0.088
21.550,-0.070
21.555,-0.046
21.560,-0.042
21.565,-0.045
21.570,-0.040
21.575,-0.024
21.580,-0.010
21.585,-0.009
21.590,-0.003
21.595,0.003
21.600,0.005
21.605,0.015
21.610,0.025
21.615,0.038
21.620,0.048
21.625,0.051
21.630,0.051
21.635,0.042
21.640,0.034
21.645,0.032
21.650,0.030
21.655,0.028
21.660,0.021
21.665,0.016
21.670,0.012
21.675,0.013
21.680,0.012
21.685,0.004
21.690,0.008
21.695,0.014
21.700,0.009
21.705,0.007
21.710,0.009
21.715,0.009
21.720,0.000
21.725,-0.007
21.730,-0.008
21.735,-0.012
21.740,-0.014
21.745,-0.016
21.750,-0.008
21.755,-0.006
21.760,-0.032
21.765,-0.057
21.770,-0.095
21.775,-0.187
21.780,-0.359
21.785,-0.611
21.790,-0.824
21.795,-0.760
21.800,-0.325
21.805,0.199
21.810,0.561
21.815,0.849
21.820,1.030
21.825,1.002
21.830,0.790
21.835,0.467
21.840,0.244
21.845,0.113
21.850,-0.048
21.855,-0.129
21.860,-0.129
21.865,-0.133
21.870,-0.136
21.875,-0.125
21.880,-0.126
21.885,-0.143
21.890,-0.136
21.895,-0.128
21.900,-0.135
21.905,-0.123
21.910,-0.113
21.915,-0.113
21.920,-0.115
21.925,-0.116
21.930,-0.106
21.935,-0.097
21.940,-0.088
21.945,-0.084
21.950,-0.082
21.955,-0.084
21.960,-0.101
21.965,-0.090
21.970,-0.069
21.975,-0.074
21.980,-0.085
21.985,-0.092
21.990,-0.076
21.995,-0.067
22.000,-0.084
22.005,-0.100
22.010,-0.103
22.015,-0.087
22.020,-0.084
22.025,-0.103
22.030,-0.118
22.035,-0.136
22.040,-0.146
22.045,-0.141
22.050,-0.146
22.055,-0.162
22.060,-0.179
22.065,-0.207
22.070,-0.230
22.075,-0.219
22.080,-0.216
22.085,-0.235
22.090,-0.239
22.095,-0.223
22.100,-0.192
22.105,-0.182
22.110,-0.190
22.115,-0.161
22.120,-0.115
22.125,-0.069
22.130,-0.003
22.135,0.060
22.140,0.111
22.145,0.146
22.150,0.185
22.155,0.245
22.160,0.287
22.165,0.321
22.170,0.342
22.175,0.356
22.180,0.378
22.185,0.384
22.190,0.380
22.195,0.368
22.200,0.354
22.205,0.355
22.210,0.355
22.215,0.338
22.220,0.306
22.225,0.299
22.230,0.305
22.235,0.281
22.240,0.263
22.245,0.252
22.250,0.241
22.255,0.247
22.260,0.224
22.265,0.173
22.270,0.153
22.275,0.153
22.280,0.150
22.285,0.151
22.290,0.138
22.295,0.122
22.300,0.117
22.305,0.092
22.310,0.064
22.315,0.075
22.320,0.086
22.325,0.068
22.330,0.054
22.335,0.048
22.340,0.038
22.345,0.011
22.350,0.007
22.355,0.041
22.360,0.044
22.365,0.017
22.370,0.007
22.375,0.013
22.380,0.013
22.385,-0.005
22.390,-0.008
22.395,0.002
22.400,0.001
22.405,-0.013
22.410,-0.027
22.415,-0.020
22.420,-0.027
22.425,-0.015
22.430,0.012
22.435,-0.011
22.440,-0.036
22.445,-0.035
22.450,-0.020
22.455,-0.017
22.460,-0.052
22.465,-0.054
22.470,-0.022
22.475,-0.014
22.480,-0.028
22.485,-0.057
22.490,-0.055
22.495,-0.040
22.500,-0.049
22.505,-0.035
22.510,-0.044
22.515,-0.058
22.520,-0.044
22.525,-0.033
22.530,-0.032
22.535,-0.053
22.540,-0.055
22.545,-0.054
22.550,-0.063
22.555,-0.050
22.560,-0.042
22.565,-0.043
22.570,-0.051
22.575,-0.076
22.580,-0.079
22.585,-0.051
22.590,-0.038
22.595,-0.042
22.600,-0.056
22.605,-0.062
22.610,-0.060
22.615,-0.070
22.620,-0.081
22.625,-0.074
22.630,-0.047
22.635,-0.039
22.640,-0.056
22.645,-0.062
22.650,-0.055
22.655,-0.048
22.660,-0.052
22.665,-0.048
22.670,-0.039
22.675,-0.043
22.680,-0.034
22.685,-0.044
22.690,-0.068
22.695,-0.066
22.700,-0.063
22.705,-0.054
22.710,-0.042
22.715,-0.049
22.720,-0.047
22.725,-0.025
22.730,-0.022
22.735,-0.039
22.740,-0.040
22.745,-0.042
22.750,-0.050
22.755,-0.049
22.760,-0.052
22.765,-0.047
22.770,-0.036
22.775,-0.035
22.780,-0.041
22.785,-0.036
22.790,-0.013
22.795,-0.012
22.800,-0.030
22.805,-0.049
22.810,-0.072
22.815,-0.070
22.820,-0.065
22.825,-0.071
22.830,-0.070
22.835,-0.080
22.840,-0.093
22.845,-0.086
22.850,-0.075
22.855,-0.073
22.860,-0.068
22.865,-0.050
22.870,-0.031
22.875,-0.018
22.880,0.000
22.885,0.000
22.890,-0.005
22.895,0.011
22.900,0.035
22.905,0.053
22.910,0.055
22.915,0.051
22.920,0.055
22.925,0.056
22.930,0.044
22.935,0.039
22.940,0.053
22.945,0.045
22.950,0.020
22.955,0.016
22.960,0.017
22.965,0.023
22.970,0.029
22.975,0.026
22.980,0.021
22.985,0.012
22.990,0.011
22.995,0.010
23.000,0.008
23.005,0.018
23.010,0.017
23.015,0.013
23.020,0.008
23.025,-0.005
23.030,-0.011
23.035,-0.011
23.040,0.001
23.045,0.006
23.050,-0.019
23.055,-0.051
23.060,-0.066
23.065,-0.066
23.070,-0.121
23.075,-0.278
23.080,-0.518
23.085,-0.765
23.090,-0.795
23.095,-0.439
23.100,0.088
23.105,0.486
23.110,0.773
23.115,0.963
23.120,0.976
23.125,0.825
23.130,0.537
23.135,0.268
23.140,0.106
23.145,-0.035
23.150,-0.112
23.155,-0.102
23.160,-0.107
23.165,-0.127
23.170,-0.125
23.175,-0.127
23.180,-0.139
23.185,-0.147
23.190,-0.135
23.195,-0.125
23.200,-0.130
23.205,-0.123
23.210,-0.117
23.215,-0.114
23.220,-0.103
23.225,-0.102
23.230,-0.108
23.235,-0.109
23.240,-0.104
23.245,-0.096
23.250,-0.086
23.255,-0.078
23.260,-0.084
23.265,-0.091
23.270,-0.088
23.275,-0.086
23.280,-0.084
23.285,-0.083
23.290,-0.082
23.295,-0.084
23.300,-0.089
23.305,-0.096
23.310,-0.110
23.315,-0.115
23.320,-0.111
23.325,-0.118
23.330,-0.124
23.335,-0.134
23.340,-0.147
23.345,-0.155
23.350,-0.174
23.355,-0.193
23.360,-0.206
23.365,-0.215
23.370,-0.220
23.375,-0.225
23.380,-0.224
23.385,-0.228
23.390,-0.222
23.395,-0.211
23.400,-0.202
23.405,-0.173
23.410,-0.141
23.415,-0.100
23.420,-0.049
23.425,-0.004
23.430,0.045
23.435,0.097
23.440,0.152
23.445,0.205
23.450,0.252
23.455,0.297
23.460,0.331
23.465,0.354
23.470,0.365
23.475,0.369
23.480,0.381
23.485,0.381
23.490,0.377
23.495,0.370
23.500,0.357
23.505,0.356
23.510,0.346
23.515,0.329
23.520,0.312
23.525,0.292
23.530,0.282
23.535,0.268
23.540,0.249
23.545,0.231
23.550,0.211
23.555,0.202
23.560,0.189
23.565,0.168
23.570,0.148
23.575,0.133
23.580,0.130
23.585,0.122
23.590,0.106
23.595,0.088
23.600,0.076
23.605,0.077
23.610,0.070
23.615,0.057
23.620,0.046
23.625,0.032
23.630,0.028
23.635,0.022
23.640,0.016
23.645,0.017
23.650,0.011
23.655,0.007
23.660,0.002
23.665,-0.001
23.670,0.002
23.675,0.000
23.680,-0.002
23.685,-0.005
23.690,-0.006
23.695,-0.001
23.700,-0.001
23.705,-0.001
23.710,-0.007
23.715,-0.014
23.720,-0.014
23.725,-0.014
23.730,-0.009
23.735,-0.011
23.740,-0.016
23.745,-0.020
23.750,-0.027
23.755,-0.027
23.760,-0.027
23.765,-0.028
23.770,-0.026
23.775,-0.030
23.780,-0.031
23.785,-0.037
23.790,-0.041
23.795,-0.036
23.800,-0.038
23.805,-0.039
23.810,-0.043
23.815,-0.044
23.820,-0.040
23.825,-0.046
23.830,-0.051
23.835,-0.053
23.840,-0.053
23.845,-0.050
23.850,-0.055
23.855,-0.056
23.860,-0.056
23.865,-0.058
23.870,-0.058
23.875,-0.063
23.880,-0.062
23.885,-0.060
23.890,-0.054
23.895,-0.052
23.900,-0.057
23.905,-0.057
23.910,-0.058
23.915,-0.060
23.920,-0.063
23.925,-0.065
23.930,-0.057
23.935,-0.055
23.940,-0.056
23.945,-0.057
23.950,-0.061
23.955,-0.053
23.960,-0.052
23.965,-0.058
23.970,-0.054
23.975,-0.053
23.980,-0.050
23.985,-0.050
23.990,-0.054
23.995,-0.053
24.000,-0.056
24.005,-0.054
24.010,-0.054
24.015,-0.052
24.020,-0.042
24.025,-0.042
24.030,-0.044
24.035,-0.049
24.040,-0.052
24.045,-0.045
24.050,-0.042
24.055,-0.039
24.060,-0.040
24.065,-0.040
24.070,-0.037
24.075,-0.038
24.080,-0.035
24.085,-0.035
24.090,-0.036
24.095,-0.035
24.100,-0.042
24.105,-0.049
24.110,-0.060
24.115,-0.069
24.120,-0.072
24.125,-0.077
24.130,-0.077
24.135,-0.083
24.140,-0.093
24.145,-0.086
24.150,-0.069
24.155,-0.048
24.160,-0.047
24.165,-0.050
24.170,-0.029
24.175,-0.006
24.180,0.005
24.185,0.006
24.190,0.007
24.195,0.015
24.200,0.015
24.205,0.024
24.210,0.037
24.215,0.047
24.220,0.057
24.225,0.054
24.230,0.053
24.235,0.049
24.240,0.043
24.245,0.043
24.250,0.035
24.255,0.032
24.260,0.030
24.265,0.025
24.270,0.024
24.275,0.019
24.280,0.018
24.285,0.017
24.290,0.014
24.295,0.014
24.300,0.008
24.305,0.009
24.310,0.009
24.315,0.003
24.320,0.001
24.325,-0.005
24.330,-0.004
24.335,-0.006
24.340,-0.008
24.345,-0.006
24.350,-0.012
24.355,-0.018
24.360,-0.038
24.365,-0.066
24.370,-0.104
24.375,-0.201
24.380,-0.374
24.385,-0.632
24.390,-0.842
24.395,-0.736
24.400,-0.284
24.405,0.217
24.410,0.564
24.415,0.848
24.420,1.025
24.425,0.973
24.430,0.743
24.435,0.432
24.440,0.225
24.445,0.094
24.450,-0.059
24.455,-0.115
24.460,-0.106
24.465,-0.127
24.470,-0.138
24.475,-0.133
24.480,-0.133
24.485,-0.143
24.490,-0.142
24.495,-0.127
24.500,-0.125
24.505,-0.121
24.510,-0.119
24.515,-0.124
24.520,-0.118
24.525,-0.108
24.530,-0.103
24.535,-0.104
24.540,-0.103
24.545,-0.100
24.550,-0.105
24.555,-0.097
24.560,-0.086
24.565,-0.080
24.570,-0.080
24.575,-0.090
24.580,-0.087
24.585,-0.078
24.590,-0.078
24.595,-0.079
24.600,-0.078
24.605,-0.075
24.610,-0.083
24.615,-0.097
24.620,-0.106
24.625,-0.118
24.630,-0.121
24.635,-0.125
24.640,-0.138
24.645,-0.148
24.650,-0.165
24.655,-0.174
24.660,-0.181
24.665,-0.195
24.670,-0.205
24.675,-0.217
24.680,-0.219
24.685,-0.218
24.690,-0.215
24.695,-0.205
24.700,-0.201
24.705,-0.191
24.710,-0.169
24.715,-0.140
24.720,-0.106
24.725,-0.058
24.730,0.003
24.735,0.057
24.740,0.110
24.745,0.160
24.750,0.205
24.755,0.260
24.760,0.286
24.765,0.302
24.770,0.334
24.775,0.354
24.780,0.369
24.785,0.383
24.790,0.384
24.795,0.368
24.800,0.347
24.805,0.350
24.810,0.354
24.815,0.346
24.820,0.332
24.825,0.302
24.830,0.279
24.835,0.264
24.840,0.240
24.845,0.241
24.850,0.234
24.855,0.205
24.860,0.194
24.865,0.192
24.870,0.181
24.875,0.158
24.880,0.130
24.885,0.113
24.890,0.116
24.895,0.119
24.900,0.101
24.905,0.080
24.910,0.068
24.915,0.064
24.920,0.069
24.925,0.074
24.930,0.055
24.935,0.034
24.940,0.037
24.945,0.048
24.950,0.044
24.955,0.024
24.960,-0.003
24.965,-0.010
24.970,0.006
24.975,0.013
24.980,0.002
24.985,-0.010
24.990,0.008
24.995,0.024
25.000,0.015
25.005,0.003
25.010,-0.018
25.015,-0.022
25.020,-0.021
25.025,-0.033
25.030,-0.017
25.035,0.003
25.040,-0.008
25.045,-0.034
25.050,-0.041
25.055,-0.013
25.060,-0.004
25.065,-0.020
25.070,-0.027
25.075,-0.035
25.080,-0.036
25.085,-0.045
25.090,-0.056
25.095,-0.044
25.100,-0.039
25.105,-0.029
25.110,-0.024
25.115,-0.043
25.120,-0.052
25.125,-0.048
25.130,-0.042
25.135,-0.055
25.140,-0.075
25.145,-0.055
25.150,-0.035
25.155,-0.053
25.160,-0.065
25.165,-0.051
25.170,-0.036
25.175,-0.049
25.180,-0.066
25.185,-0.064
25.190,-0.066
25.195,-0.075
25.200,-0.074
25.205,-0.053
25.210,-0.031
25.215,-0.038
25.220,-0.051
25.225,-0.047
25.230,-0.054
25.235,-0.077
25.240,-0.075
25.245,-0.053
25.250,-0.047
25.255,-0.044
25.260,-0.052
25.265,-0.060
25.270,-0.047
25.275,-0.051
25.280,-0.061
25.285,-0.070
25.290,-0.066
25.295,-0.048
25.300,-0.054
25.305,-0.050
25.310,-0.035
25.315,-0.035
25.320,-0.043
25.325,-0.061
25.330,-0.048
25.335,-0.028
25.340,-0.049
25.345,-0.059
25.350,-0.035
25.355,-0.026
25.360,-0.046
25.365,-0.047
25.370,-0.026
25.375,-0.025
25.380,-0.047
25.385,-0.052
25.390,-0.016
25.395,0.006
25.400,-0.026
25.405,-0.057
25.410,-0.065
25.415,-0.051
25.420,-0.043
25.425,-0.068
25.430,-0.068
25.435,-0.055
25.440,-0.072
25.445,-0.091
25.450,-0.112
25.455,-0.094
25.460,-0.050
25.465,-0.054
25.470,-0.065
25.475,-0.053
25.480,-0.027
25.485,0.009
25.490,0.019
25.495,0.016
25.500,0.016
25.505,0.025
25.510,0.042
25.515,0.035
25.520,0.046
25.525,0.057
25.530,0.039
25.535,0.041
25.540,0.051
25.545,0.054
25.550,0.050
25.555,0.038
25.560,0.035
25.565,0.039
25.570,0.041
25.575,0.016
25.580,0.007
25.585,0.021
25.590,0.016
25.595,0.022
25.600,0.017
25.605,0.008
25.610,0.012
25.615,0.011
25.620,0.017
25.625,0.011
25.630,-0.005
25.635,-0.013
25.640,-0.008
25.645,0.010
25.650,0.011
25.655,-0.007
25.660,-0.015
25.665,-0.024
25.670,-0.052
25.675,-0.094
25.680,-0.161
25.685,-0.334
25.690,-0.602
25.695,-0.795
25.700,-0.711
25.705,-0.283
25.710,0.204
25.715,0.531
25.720,0.815
25.725,0.993
25.730,0.957
25.735,0.764
25.740,0.469
25.745,0.229
25.750,0.072
25.755,-0.068
25.760,-0.126
25.765,-0.125
25.770,-0.145
25.775,-0.155
25.780,-0.129
25.785,-0.126
25.790,-0.146
25.795,-0.143
25.800,-0.127
25.805,-0.121
25.810,-0.125
25.815,-0.128
25.820,-0.123
25.825,-0.120
25.830,-0.118
25.835,-0.112
25.840,-0.110
25.845,-0.109
25.850,-0.106
25.855,-0.090
25.860,-0.084
25.865,-0.096
25.870,-0.095
25.875,-0.080
25.880,-0.066
25.885,-0.073
25.890,-0.091
25.895,-0.094
25.900,-0.093
25.905,-0.094
25.910,-0.100
25.915,-0.099
25.920,-0.085
25.925,-0.085
25.930,-0.099
25.935,-0.117
25.940,-0.135
25.945,-0.142
25.950,-0.150
25.955,-0.158
25.960,-0.167
25.965,-0.190
25.970,-0.206
25.975,-0.220
25.980,-0.230
25.985,-0.224
25.990,-0.220
25.995,-0.214
26.000,-0.210
26.005,-0.201
26.010,-0.174
26.015,-0.149
26.020,-0.131
26.025,-0.105
26.030,-0.055
26.035,0.005
26.040,0.056
26.045,0.109
26.050,0.163
26.055,0.212
26.060,0.254
26.065,0.290
26.070,0.330
26.075,0.354
26.080,0.365
26.085,0.374
26.090,0.380
26.095,0.389
26.100,0.384
26.105,0.380
26.110,0.377
26.115,0.358
26.120,0.342
26.125,0.322
26.130,0.305
26.135,0.295
26.140,0.278
26.145,0.262
26.150,0.242
26.155,0.226
26.160,0.223
26.165,0.215
26.170,0.201
26.175,0.175
26.180,0.152
26.185,0.144
26.190,0.129
26.195,0.115
26.200,0.098
26.205,0.086
26.210,0.082
26.215,0.074
26.220,0.068
26.225,0.052
26.230,0.035
26.235,0.030
26.240,0.029
26.245,0.029
26.250,0.021
26.255,0.016
26.260,0.014
26.265,0.008
26.270,0.005
26.275,-0.002
26.280,-0.003
26.285,0.005
26.290,0.005
26.295,0.004
26.300,0.000
26.305,0.000
26.310,0.000
26.315,-0.013
26.320,-0.020
26.325,-0.021
26.330,-0.014
26.335,-0.008
26.340,-0.012
26.345,-0.011
26.350,-0.014
26.355,-0.016
26.360,-0.014
26.365,-0.021
26.370,-0.021
26.375,-0.022
26.380,-0.025
26.385,-0.027
26.390,-0.037
26.395,-0.042
26.400,-0.041
26.405,-0.040
26.410,-0.041
26.415,-0.045
26.420,-0.042
26.425,-0.043
26.430,-0.046
26.435,-0.049
26.440,-0.055
26.445,-0.052
26.450,-0.052
26.455,-0.052
26.460,-0.052
26.465,-0.059
26.470,-0.058
26.475,-0.057
26.480,-0.057
26.485,-0.056
26.490,-0.066
26.495,-0.068
26.500,-0.064
26.505,-0.061
26.510,-0.060
26.515,-0.068
26.520,-0.070
26.525,-0.068
26.530,-0.064
26.535,-0.057
26.540,-0.055
26.545,-0.053
26.550,-0.054
26.555,-0.057
26.560,-0.056
26.565,-0.058
26.570,-0.056
26.575,-0.053
26.580,-0.055
26.585,-0.057
26.590,-0.062
26.595,-0.058
26.600,-0.053
26.605,-0.049
26.610,-0.050
26.615,-0.059
26.620,-0.056
26.625,-0.048
26.630,-0.043
26.635,-0.038
26.640,-0.045
26.645,-0.048
26.650,-0.048
26.655,-0.048
26.660,-0.042
26.665,-0.040
26.670,-0.039
26.675,-0.042
26.680,-0.043
26.685,-0.040
26.690,-0.042
26.695,-0.040
26.700,-0.039
26.705,-0.042
26.710,-0.043
26.715,-0.052
26.720,-0.057
26.725,-0.060
26.730,-0.066
26.735,-0.070
26.740,-0.080
26.745,-0.097
26.750,-0.116
26.755,-0.109
26.760,-0.073
26.765,-0.045
26.770,-0.040
26.775,-0.048
26.780,-0.037
26.785,-0.010
26.790,-0.001
26.795,0.002
26.800,0.008
26.805,0.016
26.810,0.024
26.815,0.029
26.820,0.042
26.825,0.048
26.830,0.045
26.835,0.046
26.840,0.046
26.845,0.047
26.850,0.041
26.855,0.037
26.860,0.035
26.865,0.027
26.870,0.025
26.875,0.020
26.880,0.015
26.885,0.015
26.890,0.010
26.895,0.011
26.900,0.014
26.905,0.009
26.910,0.001
26.915,-0.004
26.920,0.006
26.925,0.009
26.930,0.002
26.935,-0.005
26.940,-0.010
26.945,-0.007
26.950,-0.005
26.955,-0.004
26.960,-0.002
26.965,-0.009
26.970,-0.023
26.975,-0.051
26.980,-0.100
26.985,-0.198
26.990,-0.380
26.995,-0.638
27.000,-0.848
27.005,-0.751
27.010,-0.299
27.015,0.199
27.020,0.564
27.025,0.859
27.030,1.020
27.035,0.956
27.040,0.719
27.045,0.422
27.050,0.223
27.055,0.087
27.060,-0.061
27.065,-0.121
27.070,-0.110
27.075,-0.124
27.080,-0.141
27.085,-0.132
27.090,-0.130
27.095,-0.126
27.100,-0.116
27.105,-0.115
27.110,-0.124
27.115,-0.129
27.120,-0.114
27.125,-0.104
27.130,-0.102
27.135,-0.096
27.140,-0.101
27.145,-0.101
27.150,-0.094
27.155,-0.088
27.160,-0.080
27.165,-0.082
27.170,-0.080
27.175,-0.076
27.180,-0.074
27.185,-0.068
27.190,-0.071
27.195,-0.071
27.200,-0.073
27.205,-0.083
27.210,-0.082
27.215,-0.078
27.220,-0.074
27.225,-0.080
27.230,-0.093
27.235,-0.101
27.240,-0.116
27.245,-0.126
27.250,-0.133
27.255,-0.139
27.260,-0.147
27.265,-0.166
27.270,-0.182
27.275,-0.199
27.280,-0.210
27.285,-0.207
27.290,-0.206
27.295,-0.203
27.300,-0.206
27.305,-0.206
27.310,-0.190
27.315,-0.183
27.320,-0.169
27.325,-0.142
27.330,-0.107
27.335,-0.050
27.340,0.006
27.345,0.053
27.350,0.100
27.355,0.146
27.360,0.198
27.365,0.251
27.370,0.296
27.375,0.323
27.380,0.341
27.385,0.356
27.390,0.365
27.395,0.369
27.400,0.358
27.405,0.351
27.410,0.365
27.415,0.367
27.420,0.354
27.425,0.335
27.430,0.309
27.435,0.298
27.440,0.289
27.445,0.271
27.450,0.252
27.455,0.238
27.460,0.225
27.465,0.205
27.470,0.189
27.475,0.176
27.480,0.169
27.485,0.167
27.490,0.145
27.495,0.125
27.500,0.115
27.505,0.101
27.510,0.087
27.515,0.072
27.520,0.071
27.525,0.069
27.530,0.056
27.535,0.055
27.540,0.050
27.545,0.040
27.550,0.026
27.555,0.013
27.560,0.009
27.565,0.008
27.570,0.015
27.575,0.022
27.580,0.017
27.585,0.005
27.590,-0.005
27.595,0.002
27.600,0.009
27.605,0.003
27.610,-0.006
27.615,-0.014
27.620,-0.005
27.625,-0.002
27.630,-0.007
27.635,-0.005
27.640,-0.020
27.645,-0.018
27.650,-0.019
27.655,-0.027
27.660,-0.018
27.665,-0.020
27.670,-0.025
27.675,-0.027
27.680,-0.031
27.685,-0.032
27.690,-0.038
27.695,-0.043
27.700,-0.038
27.705,-0.030
27.710,-0.034
27.715,-0.039
27.720,-0.036
27.725,-0.047
27.730,-0.056
27.735,-0.050
27.740,-0.052
27.745,-0.046
27.750,-0.048
27.755,-0.054
27.760,-0.048
27.765,-0.059
27.770,-0.065
27.775,-0.058
27.780,-0.045
27.785,-0.038
27.790,-0.057
27.795,-0.062
27.800,-0.054
27.805,-0.046
27.810,-0.040
27.815,-0.060
27.820,-0.073
27.825,-0.065
27.830,-0.058
27.835,-0.042
27.840,-0.042
27.845,-0.060
27.850,-0.057
27.855,-0.050
27.860,-0.047
27.865,-0.052
27.870,-0.053
27.875,-0.040
27.880,-0.054
27.885,-0.067
27.890,-0.057
27.895,-0.056
27.900,-0.045
27.905,-0.038
27.910,-0.047
27.915,-0.050
27.920,-0.059
27.925,-0.065
27.930,-0.036
27.935,-0.019
27.940,-0.043
27.945,-0.048
27.950,-0.046
27.955,-0.062
27.960,-0.043
27.965,-0.019
27.970,-0.023
27.975,-0.035
27.980,-0.038
27.985,-0.029
27.990,-0.033
27.995,-0.039
28.000,-0.038
28.005,-0.033
28.010,-0.023
28.015,-0.031
28.020,-0.036
28.025,-0.025
28.030,-0.028
28.035,-0.041
28.040,-0.058
28.045,-0.072
28.050,-0.073
28.055,-0.074
28.060,-0.092
28.065,-0.113
28.070,-0.081
28.075,-0.047
28.080,-0.058
28.085,-0.069
28.090,-0.060
28.095,-0.027
28.100,-0.010
28.105,0.005
28.110,0.026
28.115,0.013
28.120,0.009
28.125,0.014
28.130,0.011
28.135,0.029
28.140,0.047
28.145,0.072
28.150,0.082
28.155,0.042
28.160,0.027
28.165,0.044
28.170,0.042
28.175,0.031
28.180,0.025
28.185,0.021
28.190,0.027
28.195,0.034
28.200,0.020
28.205,0.018
28.210,0.020
28.215,0.010
28.220,0.016
28.225,0.018
28.230,0.011
28.235,-0.001
28.240,-0.015
28.245,-0.005
28.250,0.012
28.255,0.016
28.260,0.003
28.265,-0.006
28.270,-0.003
28.275,-0.018
28.280,-0.040
28.285,-0.040
28.290,-0.047
28.295,-0.099
28.300,-0.196
28.305,-0.374
28.310,-0.629
28.315,-0.794
28.320,-0.636
28.325,-0.164
28.330,0.310
28.335,0.639
28.340,0.891
28.345,1.003
28.350,0.916
28.355,0.680
28.360,0.394
28.365,0.179
28.370,0.019
28.375,-0.113
28.380,-0.147
28.385,-0.105
28.390,-0.119
28.395,-0.162
28.400,-0.149
28.405,-0.137
28.410,-0.137
28.415,-0.131
28.420,-0.125
28.425,-0.128
28.430,-0.141
28.435,-0.140
28.440,-0.123
28.445,-0.114
28.450,-0.147
28.455,-0.157
28.460,-0.088
28.465,-0.074
28.470,-0.105
28.475,-0.091
28.480,-0.067
28.485,-0.062
28.490,-0.095
28.495,-0.121
28.500,-0.088
28.505,-0.075
28.510,-0.092
28.515,-0.080
28.520,-0.076
28.525,-0.099
28.530,-0.103
28.535,-0.094
28.540,-0.095
28.545,-0.092
28.550,-0.104
28.555,-0.127
28.560,-0.138
28.565,-0.149
28.570,-0.151
28.575,-0.159
28.580,-0.186
28.585,-0.208
28.590,-0.212
28.595,-0.217
28.600,-0.229
28.605,-0.229
28.610,-0.229
28.615,-0.228
28.620,-0.201
28.625,-0.185
28.630,-0.183
28.635,-0.163
28.640,-0.140
28.645,-0.095
28.650,-0.037
28.655,0.007
28.660,0.060
28.665,0.119
28.670,0.172
28.675,0.220
28.680,0.270
28.685,0.306
28.690,0.325
28.695,0.370
28.700,0.394
28.705,0.382
28.710,0.390
28.715,0.392
28.720,0.385
28.725,0.386
28.730,0.365
28.735,0.355
28.740,0.358
28.745,0.335
28.750,0.308
28.755,0.291
28.760,0.278
28.765,0.270
28.770,0.259
28.775,0.237
28.780,0.210
28.785,0.191
28.790,0.176
28.795,0.170
28.800,0.173
28.805,0.152
28.810,0.126
28.815,0.119
28.820,0.110
28.825,0.102
28.830,0.087
28.835,0.068
28.840,0.059
28.845,0.046
28.850,0.046
28.855,0.052
28.860,0.035
28.865,0.012
28.870,0.015
28.875,0.021
28.880,0.010
28.885,0.013
28.890,0.017
28.895,0.009
28.900,0.007
28.905,0.005
28.910,0.002
28.915,-0.003
28.920,-0.012
28.925,-0.011
28.930,-0.001
28.935,0.007
28.940,0.003
28.945,0.001
28.950,-0.011
28.955,-0.028
28.960,-0.026
28.965,-0.016
28.970,-0.007
28.975,-0.004
28.980,-0.016
28.985,-0.030
28.990,-0.036
28.995,-0.023
29.000,-0.014
29.005,-0.035
29.010,-0.049
29.015,-0.037
29.020,-0.026
29.025,-0.028
29.030,-0.039
29.035,-0.048
29.040,-0.050
29.045,-0.044
29.050,-0.042
29.055,-0.046
29.060,-0.051
29.065,-0.057
29.070,-0.050
29.075,-0.041
29.080,-0.046
29.085,-0.049
29.090,-0.052
29.095,-0.061
29.100,-0.062
29.105,-0.059
29.110,-0.060
29.115,-0.064
29.120,-0.060
29.125,-0.057
29.130,-0.066
29.135,-0.070
29.140,-0.070
29.145,-0.067
29.150,-0.058
29.155,-0.054
29.160,-0.052
29.165,-0.053
29.170,-0.054
29.175,-0.059
29.180,-0.062
29.185,-0.054
29.190,-0.054
29.195,-0.056
29.200,-0.054
29.205,-0.058
29.210,-0.052
29.215,-0.054
29.220,-0.061
29.225,-0.053
29.230,-0.051
29.235,-0.052
29.240,-0.050
29.245,-0.049
29.250,-0.047
29.255,-0.048
29.260,-0.048
29.265,-0.046
29.270,-0.046
29.275,-0.050
29.280,-0.060
29.285,-0.063
29.290,-0.065
29.295,-0.066
29.300,-0.070
29.305,-0.081
29.310,-0.091
29.315,-0.105
29.320,-0.115
29.325,-0.104
29.330,-0.084
29.335,-0.065
29.340,-0.064
29.345,-0.063
29.350,-0.046
29.355,-0.034
29.360,-0.020
29.365,-0.007
29.370,0.006
29.375,0.012
29.380,0.007
29.385,0.021
29.390,0.035
29.395,0.039
29.400,0.043
29.405,0.041
29.410,0.043
29.415,0.043
29.420,0.039
29.425,0.035
29.430,0.023
29.435,0.015
29.440,0.017
29.445,0.018
29.450,0.014
29.455,0.007
29.460,0.004
29.465,-0.006
29.470,-0.005
29.475,0.004
29.480,0.003
29.485,0.003
29.490,-0.001
29.495,-0.003
29.500,-0.004
29.505,-0.011
29.510,-0.009
29.515,-0.010
29.520,-0.013
29.525,-0.012
29.530,-0.015
29.535,-0.022
29.540,-0.046
29.545,-0.081
29.550,-0.132
29.555,-0.257
29.560,-0.477
29.565,-0.745
29.570,-0.869
29.575,-0.632
29.580,-0.130
29.585,0.327
29.590,0.658
29.595,0.924
29.600,1.017
29.605,0.894
29.610,0.627
29.615,0.341
29.620,0.170
29.625,0.030
29.630,-0.094
29.635,-0.110
29.640,-0.109
29.645,-0.128
29.650,-0.130
29.655,-0.130
29.660,-0.133
29.665,-0.132
29.670,-0.121
29.675,-0.113
29.680,-0.120
29.685,-0.113
29.690,-0.104
29.695,-0.108
29.700,-0.105
29.705,-0.101
29.710,-0.097
29.715,-0.096
29.720,-0.097
29.725,-0.091
29.730,-0.089
29.735,-0.086
29.740,-0.087
29.745,-0.088
29.750,-0.080
29.755,-0.075
29.760,-0.074
29.765,-0.076
29.770,-0.079
29.775,-0.080
29.780,-0.082
29.785,-0.083
29.790,-0.086
29.795,-0.092
29.800,-0.096
29.805,-0.107
29.810,-0.120
29.815,-0.134
29.820,-0.139
29.825,-0.141
29.830,-0.158
29.835,-0.173
29.840,-0.187
29.845,-0.194
29.850,-0.196
29.855,-0.210
29.860,-0.213
29.865,-0.213
29.870,-0.213
29.875,-0.202
29.880,-0.191
29.885,-0.168
29.890,-0.144
29.895,-0.118
29.900,-0.075
29.905,-0.029
29.910,0.021
29.915,0.070
29.920,0.119
29.925,0.172
29.930,0.218
29.935,0.260
29.940,0.297
29.945,0.327
29.950,0.352
29.955,0.364
29.960,0.372
29.965,0.375
29.970,0.371
29.975,0.362
29.980,0.354
29.985,0.352
29.990,0.342
29.995,0.334
30.000,0.324
30.005,0.305
30.010,0.291
30.015,0.271
30.020,0.253
30.025,0.245
30.030,0.224
30.035,0.208
30.040,0.194
30.045,0.172
30.050,0.162
30.055,0.152
30.060,0.143
30.065,0.132
30.070,0.116
30.075,0.104
30.080,0.090
30.085,0.078
30.090,0.069
30.095,0.063
30.100,0.063
30.105,0.052
30.110,0.043
30.115,0.035
30.120,0.026
30.125,0.020
30.130,0.010
30.135,0.008
30.140,0.007
30.145,0.001
30.150,0.001
30.155,-0.003
30.160,-0.004
30.165,-0.003
30.170,-0.003
30.175,0.002
30.180,0.000
30.185,-0.003
30.190,-0.006
30.195,-0.008
30.200,-0.002
30.205,-0.006
30.210,-0.011
30.215,-0.015
30.220,-0.021
30.225,-0.020
30.230,-0.022
30.235,-0.020
30.240,-0.021
30.245,-0.026
30.250,-0.025
30.255,-0.033
30.260,-0.039
30.265,-0.035
30.270,-0.034
30.275,-0.035
30.280,-0.041
30.285,-0.038
30.290,-0.035
30.295,-0.039
30.300,-0.040
30.305,-0.042
30.310,-0.042
30.315,-0.045
30.320,-0.052
30.325,-0.052
30.330,-0.056
30.335,-0.058
30.340,-0.056
30.345,-0.056
30.350,-0.053
30.355,-0.054
30.360,-0.052
30.365,-0.052
30.370,-0.054
30.375,-0.052
30.380,-0.056
30.385,-0.055
30.390,-0.056
30.395,-0.059
30.400,-0.056
30.405,-0.061
30.410,-0.061
30.415,-0.060
30.420,-0.060
30.425,-0.054
30.430,-0.055
30.435,-0.057
30.440,-0.062
30.445,-0.066
30.450,-0.057
30.455,-0.054
30.460,-0.053
30.465,-0.052
30.470,-0.054
30.475,-0.048
30.480,-0.050
30.485,-0.050
30.490,-0.049
30.495,-0.054
30.500,-0.049
30.505,-0.042
30.510,-0.039
30.515,-0.042
30.520,-0.045
30.525,-0.040
30.530,-0.041
30.535,-0.038
30.540,-0.038
30.545,-0.039
30.550,-0.035
30.555,-0.042
30.560,-0.043
30.565,-0.039
30.570,-0.042
30.575,-0.039
30.580,-0.037
30.585,-0.035
30.590,-0.033
30.595,-0.036
30.600,-0.033
30.605,-0.032
30.610,-0.033
30.615,-0.033
30.620,-0.031
30.625,-0.025
30.630,-0.025
30.635,-0.022
30.640,-0.027
30.645,-0.032
30.650,-0.022
30.655,-0.021
30.660,-0.023
30.665,-0.028
30.670,-0.033
30.675,-0.016
30.680,-0.006
30.685,-0.005
30.690,-0.010
30.695,-0.023
30.700,-0.027
30.705,-0.022
30.710,-0.014
30.715,-0.014
30.720,-0.031
30.725,-0.042
30.730,-0.045
30.735,-0.046
30.740,-0.056
30.745,-0.070
30.750,-0.076
30.755,-0.085
30.760,-0.084
30.765,-0.058
30.770,-0.029
30.775,-0.020
30.780,-0.023
30.785,-0.002
30.790,0.021
30.795,0.018
30.800,0.006
30.805,0.005
30.810,0.021
30.815,0.027
30.820,0.033
30.825,0.058
30.830,0.077
30.835,0.079
30.840,0.072
30.845,0.064
30.850,0.052
30.855,0.036
30.860,0.034
30.865,0.040
30.870,0.049
30.875,0.059
30.880,0.054
30.885,0.043
30.890,0.036
30.895,0.031
30.900,0.036
30.905,0.029
30.910,0.010
30.915,-0.001
30.920,0.005
30.925,0.031
30.930,0.040
30.935,0.028
30.940,0.003
30.945,-0.023
30.950,-0.015
30.955,0.004
30.960,0.005
30.965,0.005
30.970,-0.010
30.975,-0.041
30.980,-0.079
30.985,-0.150
30.990,-0.286
30.995,-0.506
31.000,-0.760
31.005,-0.809
31.010,-0.442
31.015,0.124
31.020,0.526
31.025,0.792
31.030,0.995
31.035,1.023
31.040,0.864
31.045,0.551
31.050,0.272
31.055,0.137
31.060,-0.005
31.065,-0.104
31.070,-0.109
31.075,-0.130
31.080,-0.163
31.085,-0.149
31.090,-0.126
31.095,-0.135
31.100,-0.149
31.105,-0.156
31.110,-0.146
31.115,-0.127
31.120,-0.119
31.125,-0.115
31.130,-0.119
31.135,-0.118
31.140,-0.116
31.145,-0.110
31.150,-0.108
31.155,-0.120
31.160,-0.121
31.165,-0.099
31.170,-0.080
31.175,-0.081
31.180,-0.089
31.185,-0.090
31.190,-0.097
31.195,-0.095
31.200,-0.078
31.205,-0.080
31.210,-0.090
31.215,-0.087
31.220,-0.079
31.225,-0.089
31.230,-0.127
31.235,-0.138
31.240,-0.117
31.245,-0.107
31.250,-0.101
31.255,-0.126
31.260,-0.163
31.265,-0.182
31.270,-0.197
31.275,-0.195
31.280,-0.200
31.285,-0.213
31.290,-0.203
31.295,-0.207
31.300,-0.207
31.305,-0.208
31.310,-0.232
31.315,-0.211
31.320,-0.171
31.325,-0.141
31.330,-0.128
31.335,-0.125
31.340,-0.047
31.345,0.046
31.350,0.074
31.355,0.092
31.360,0.151
31.365,0.219
31.370,0.251
31.375,0.262
31.380,0.287
31.385,0.337
31.390,0.363
31.395,0.362
31.400,0.374
31.405,0.381
31.410,0.380
31.415,0.357
31.420,0.318
31.425,0.321
31.430,0.343
31.435,0.329
31.440,0.301
31.445,0.286
31.450,0.276
31.455,0.254
31.460,0.241
31.465,0.246
31.470,0.236
31.475,0.203
31.480,0.166
31.485,0.165
31.490,0.158
31.495,0.114
31.500,0.104
31.505,0.104
31.510,0.094
31.515,0.102
31.520,0.099
31.525,0.094
31.530,0.067
31.535,0.042
31.540,0.066
31.545,0.065
31.550,0.040
31.555,0.037
31.560,0.032
31.565,0.023
31.570,0.021
31.575,0.023
31.580,0.025
31.585,0.022
31.590,0.003
31.595,-0.010
31.600,-0.007
31.605,-0.010
31.610,-0.007
31.615,-0.003
31.620,-0.005
31.625,0.001
31.630,0.009
31.635,-0.001
31.640,-0.010
31.645,-0.020
31.650,-0.037
31.655,-0.041
31.660,-0.016
31.665,0.016
31.670,0.005
31.675,-0.028
31.680,-0.050
31.685,-0.035
31.690,-0.021
31.695,-0.035
31.700,-0.030
31.705,-0.022
31.710,-0.025
31.715,-0.033
31.720,-0.051
31.725,-0.055
31.730,-0.042
31.735,-0.027
31.740,-0.033
31.745,-0.050
31.750,-0.052
31.755,-0.046
31.760,-0.041
31.765,-0.059
31.770,-0.057
31.775,-0.031
31.780,-0.048
31.785,-0.062
31.790,-0.064
31.795,-0.069
31.800,-0.053
31.805,-0.053
31.810,-0.066
31.815,-0.057
31.820,-0.045
31.825,-0.052
31.830,-0.063
31.835,-0.059
31.840,-0.046
31.845,-0.038
31.850,-0.054
31.855,-0.083
31.860,-0.069
31.865,-0.042
31.870,-0.052
31.875,-0.057
31.880,-0.050
31.885,-0.052
31.890,-0.051
31.895,-0.057
31.900,-0.063
31.905,-0.050
31.910,-0.036
31.915,-0.031
31.920,-0.043
31.925,-0.063
31.930,-0.066
31.935,-0.049
31.940,-0.038
31.945,-0.046
31.950,-0.048
31.955,-0.045
31.960,-0.039
31.965,-0.040
31.970,-0.053
31.975,-0.052
31.980,-0.040
31.985,-0.032
31.990,-0.040
31.995,-0.050
32.000,-0.033
32.005,-0.026
32.010,-0.040
32.015,-0.052
32.020,-0.049
32.025,-0.040
32.030,-0.059
32.035,-0.085
32.040,-0.094
32.045,-0.104
32.050,-0.102
32.055,-0.080
32.060,-0.066
32.065,-0.065
32.070,-0.063
32.075,-0.046
32.080,-0.030
32.085,-0.025
32.090,-0.027
32.095,-0.016
32.100,0.007
32.105,0.015
32.110,0.031
32.115,0.047
32.120,0.038
32.125,0.040
32.130,0.048
32.135,0.054
32.140,0.064
32.145,0.053
32.150,0.034
32.155,0.027
32.160,0.026
32.165,0.029
32.170,0.031
32.175,0.029
32.180,0.018
32.185,0.013
32.190,0.010
32.195,0.001
32.200,-0.002
32.205,0.004
32.210,0.024
32.215,0.030
32.220,0.013
32.225,-0.005
32.230,-0.015
32.235,-0.003
32.240,0.006
32.245,-0.005
32.250,-0.003
32.255,0.000
32.260,-0.011
32.265,-0.029
32.270,-0.054
32.275,-0.080
32.280,-0.146
32.285,-0.298
32.290,-0.537
32.295,-0.778
32.300,-0.817
32.305,-0.499
32.310,0.014
32.315,0.431
32.320,0.747
32.325,0.984
32.330,1.016
32.335,0.857
32.340,0.564
32.345,0.285
32.350,0.121
32.355,-0.033
32.360,-0.121
32.365,-0.109
32.370,-0.115
32.375,-0.139
32.380,-0.136
32.385,-0.128
32.390,-0.131
32.395,-0.135
32.400,-0.129
32.405,-0.131
32.410,-0.130
32.415,-0.124
32.420,-0.123
32.425,-0.118
32.430,-0.112
32.435,-0.099
32.440,-0.096
32.445,-0.110
32.450,-0.105
32.455,-0.095
32.460,-0.094
32.465,-0.089
32.470,-0.090
32.475,-0.088
32.480,-0.088
32.485,-0.093
32.490,-0.088
32.495,-0.085
32.500,-0.085
32.505,-0.091
32.510,-0.096
32.515,-0.094
32.520,-0.096
32.525,-0.096
32.530,-0.099
32.535,-0.110
32.540,-0.117
32.545,-0.128
32.550,-0.136
32.555,-0.156
32.560,-0.181
32.565,-0.189
32.570,-0.192
32.575,-0.191
32.580,-0.194
32.585,-0.203
32.590,-0.216
32.595,-0.227
32.600,-0.217
32.605,-0.198
32.610,-0.180
32.615,-0.163
32.620,-0.148
32.625,-0.118
32.630,-0.077
32.635,-0.027
32.640,0.028
32.645,0.074
32.650,0.124
32.655,0.172
32.660,0.219
32.665,0.267
32.670,0.303
32.675,0.331
32.680,0.344
32.685,0.357
32.690,0.377
32.695,0.382
32.700,0.380
32.705,0.376
32.710,0.374
32.715,0.372
32.720,0.353
32.725,0.334
32.730,0.319
32.735,0.304
32.740,0.291
32.745,0.274
32.750,0.258
32.755,0.238
32.760,0.219
32.765,0.207
32.770,0.186
32.775,0.171
32.780,0.159
32.785,0.146
32.790,0.136
32.795,0.116
32.800,0.103
32.805,0.100
32.810,0.094
32.815,0.087
32.820,0.072
32.825,0.058
32.830,0.050
32.835,0.043
32.840,0.037
32.845,0.024
32.850,0.016
32.855,0.009
32.860,0.006
32.865,0.009
32.870,0.005
32.875,0.000
32.880,-0.003
32.885,-0.003
32.890,0.004
32.895,0.002
32.900,0.001
32.905,-0.004
32.910,-0.011
32.915,-0.009
32.920,-0.009
32.925,-0.005
32.930,-0.005
32.935,-0.008
32.940,-0.005
32.945,-0.007
32.950,-0.007
32.955,-0.013
32.960,-0.020
32.965,-0.019
32.970,-0.024
32.975,-0.025
32.980,-0.023
32.985,-0.024
32.990,-0.023
32.995,-0.027
33.000,-0.030
33.005,-0.036
33.010,-0.040
33.015,-0.036
33.020,-0.037
33.025,-0.036
33.030,-0.038
33.035,-0.042
33.040,-0.039
33.045,-0.044
33.050,-0.046
33.055,-0.049
33.060,-0.056
33.065,-0.054
33.070,-0.055
33.075,-0.056
33.080,-0.053
33.085,-0.053
33.090,-0.055
33.095,-0.061
33.100,-0.060
33.105,-0.058
33.110,-0.058
33.115,-0.059
33.120,-0.066
33.125,-0.062
33.130,-0.054
33.135,-0.053
33.140,-0.053
33.145,-0.059
33.150,-0.056
33.155,-0.052
33.160,-0.053
33.165,-0.052
33.170,-0.056
33.175,-0.054
33.180,-0.054
33.185,-0.057
33.190,-0.054
33.195,-0.057
33.200,-0.055
33.205,-0.052
33.210,-0.051
33.215,-0.041
33.220,-0.037
33.225,-0.037
33.230,-0.039
33.235,-0.045
33.240,-0.045
33.245,-0.045
33.250,-0.037
33.255,-0.033
33.260,-0.037
33.265,-0.036
33.270,-0.040
33.275,-0.040
33.280,-0.040
33.285,-0.041
33.290,-0.035
33.295,-0.033
33.300,-0.031
33.305,-0.033
33.310,-0.037
33.315,-0.037
33.320,-0.040
33.325,-0.039
33.330,-0.033
33.335,-0.025
33.340,-0.018
33.345,-0.023
33.350,-0.024
33.355,-0.022
33.360,-0.025
33.365,-0.019
33.370,-0.018
33.375,-0.018
33.380,-0.019
33.385,-0.023
33.390,-0.029
33.395,-0.048
33.400,-0.056
33.405,-0.055
33.410,-0.059
33.415,-0.060
33.420,-0.073
33.425,-0.084
33.430,-0.082
33.435,-0.067
33.440,-0.040
33.445,-0.033
33.450,-0.037
33.455,-0.030
33.460,-0.018
33.465,-0.005
33.470,-0.006
33.475,-0.002
33.480,0.010
33.485,0.023
33.490,0.045
33.495,0.058
33.500,0.062
33.505,0.062
33.510,0.058
33.515,0.061
33.520,0.057
33.525,0.050
33.530,0.048
33.535,0.045
33.540,0.041
33.545,0.034
33.550,0.032
33.555,0.029
33.560,0.024
33.565,0.025
33.570,0.019
33.575,0.015
33.580,0.014
33.585,0.010
33.590,0.010
33.595,0.003
33.600,-0.002
33.605,-0.002
33.610,-0.001
33.615,0.004
33.620,-0.002
33.625,-0.008
33.630,-0.006
33.635,-0.007
33.640,-0.012
33.645,-0.031
33.650,-0.056
33.655,-0.099
33.660,-0.199
33.665,-0.375
33.670,-0.641
33.675,-0.866
33.680,-0.789
33.685,-0.350
33.690,0.162
33.695,0.526
33.700,0.825
33.705,1.019
33.710,0.987
33.715,0.769
33.720,0.452
33.725,0.229
33.730,0.094
33.735,-0.051
33.740,-0.107
33.745,-0.105
33.750,-0.121
33.755,-0.129
33.760,-0.115
33.765,-0.104
33.770,-0.121
33.775,-0.129
33.780,-0.123
33.785,-0.122
33.790,-0.106
33.795,-0.101
33.800,-0.114
33.805,-0.118
33.810,-0.104
33.815,-0.084
33.820,-0.084
33.825,-0.097
33.830,-0.101
33.835,-0.091
33.840,-0.071
33.845,-0.069
33.850,-0.077
33.855,-0.080
33.860,-0.077
33.865,-0.071
33.870,-0.081
33.875,-0.088
33.880,-0.081
33.885,-0.074
33.890,-0.072
33.895,-0.087
33.900,-0.089
33.905,-0.078
33.910,-0.081
33.915,-0.092
33.920,-0.116
33.925,-0.137
33.930,-0.144
33.935,-0.154
33.940,-0.165
33.945,-0.168
33.950,-0.175
33.955,-0.194
33.960,-0.203
33.965,-0.196
33.970,-0.197
33.975,-0.199
33.980,-0.200
33.985,-0.202
33.990,-0.185
33.995,-0.164
34.000,-0.140
34.005,-0.105
34.010,-0.076
34.015,-0.032
34.020,0.020
34.025,0.066
34.030,0.118
34.035,0.170
34.040,0.215
34.045,0.255
34.050,0.295
34.055,0.329
34.060,0.346
34.065,0.347
34.070,0.345
34.075,0.358
34.080,0.366
34.085,0.354
34.090,0.341
34.095,0.331
34.100,0.331
34.105,0.322
34.110,0.296
34.115,0.286
34.120,0.276
34.125,0.254
34.130,0.226
34.135,0.203
34.140,0.200
34.145,0.204
34.150,0.209
34.155,0.199
34.160,0.163
34.165,0.128
34.170,0.104
34.175,0.118
34.180,0.138
34.185,0.111
34.190,0.081
34.195,0.068
34.200,0.068
34.205,0.074
34.210,0.064
34.215,0.052
34.220,0.044
34.225,0.029
34.230,0.027
34.235,0.039
34.240,0.032
34.245,-0.002
34.250,-0.008
34.255,0.012
34.260,0.009
34.265,0.010
34.270,0.013
34.275,0.011
34.280,0.005
34.285,-0.016
34.290,-0.008
34.295,0.014
34.300,-0.005
34.305,-0.029
34.310,-0.024
34.315,-0.011
34.320,-0.007
34.325,0.000
34.330,0.007
34.335,-0.008
34.340,-0.031
34.345,-0.040
34.350,-0.032
34.355,-0.033
34.360,-0.047
34.365,-0.024
34.370,-0.004
34.375,-0.014
34.380,-0.027
34.385,-0.043
34.390,-0.041
34.395,-0.049
34.400,-0.064
34.405,-0.050
34.410,-0.040
34.415,-0.034
34.420,-0.041
34.425,-0.054
34.430,-0.054
34.435,-0.051
34.440,-0.050
34.445,-0.062
34.450,-0.061
34.455,-0.048
34.460,-0.051
34.465,-0.053
34.470,-0.055
34.475,-0.051
34.480,-0.047
34.485,-0.061
34.490,-0.061
34.495,-0.059
34.500,-0.062
34.505,-0.061
34.510,-0.067
34.515,-0.064
34.520,-0.056
34.525,-0.056
34.530,-0.062
34.535,-0.053
34.540,-0.039
34.545,-0.049
34.550,-0.050
34.555,-0.052
34.560,-0.064
34.565,-0.056
34.570,-0.047
34.575,-0.038
34.580,-0.036
34.585,-0.049
34.590,-0.057
34.595,-0.048
34.600,-0.032
34.605,-0.033
34.610,-0.039
34.615,-0.042
34.620,-0.048
34.625,-0.043
34.630,-0.039
34.635,-0.050
34.640,-0.061
34.645,-0.063
34.650,-0.041
34.655,-0.024
34.660,-0.040
34.665,-0.040
34.670,-0.034
34.675,-0.027
34.680,-0.018
34.685,-0.027
34.690,-0.020
34.695,-0.017
34.700,-0.029
34.705,-0.026
34.710,-0.035
34.715,-0.043
34.720,-0.043
34.725,-0.046
34.730,-0.048
34.735,-0.062
34.740,-0.080
34.745,-0.096
34.750,-0.102
34.755,-0.084
34.760,-0.064
34.765,-0.059
34.770,-0.066
34.775,-0.055
34.780,-0.026
34.785,-0.021
34.790,-0.020
34.795,-0.004
34.800,0.012
34.805,0.023
34.810,0.030
34.815,0.042
34.820,0.050
34.825,0.056
34.830,0.058
34.835,0.055
34.840,0.054
34.845,0.041
34.850,0.031
34.855,0.039
34.860,0.044
34.865,0.040
34.870,0.027
34.875,0.019
34.880,0.022
34.885,0.026
34.890,0.025
34.895,0.014
34.900,0.010
34.905,0.014
34.910,0.011
34.915,0.015
34.920,0.011
34.925,0.000
34.930,-0.004
34.935,-0.005
34.940,0.002
34.945,0.001
34.950,-0.002
34.955,0.000
34.960,-0.010
34.965,-0.029
34.970,-0.057
34.975,-0.091
34.980,-0.160
34.985,-0.333
34.990,-0.587
34.995,-0.799
35.000,-0.766
35.005,-0.378
35.010,0.129
35.015,0.520
35.020,0.827
35.025,1.010
35.030,0.993
35.035,0.807
35.040,0.506
35.045,0.248
35.050,0.081
35.055,-0.063
35.060,-0.129
35.065,-0.118
35.070,-0.125
35.075,-0.144
35.080,-0.132
35.085,-0.120
35.090,-0.127
35.095,-0.133
35.100,-0.132
35.105,-0.130
35.110,-0.129
35.115,-0.119
35.120,-0.115
35.125,-0.118
35.130,-0.111
35.135,-0.109
35.140,-0.106
35.145,-0.100
35.150,-0.098
35.155,-0.098
35.160,-0.095
35.165,-0.088
35.170,-0.091
35.175,-0.092
35.180,-0.089
35.185,-0.092
35.190,-0.087
35.195,-0.089
35.200,-0.092
35.205,-0.086
35.210,-0.086
35.215,-0.087
35.220,-0.097
35.225,-0.107
35.230,-0.108
35.235,-0.116
35.240,-0.125
35.245,-0.136
35.250,-0.142
35.255,-0.145
35.260,-0.162
35.265,-0.173
35.270,-0.182
35.275,-0.197
35.280,-0.208
35.285,-0.216
35.290,-0.213
35.295,-0.210
35.300,-0.208
35.305,-0.196
35.310,-0.179
35.315,-0.155
35.320,-0.136
35.325,-0.109
35.330,-0.065
35.335,-0.021
35.340,0.030
35.345,0.080
35.350,0.128
35.355,0.178
35.360,0.219
35.365,0.267
35.370,0.308
35.375,0.334
35.380,0.357
35.385,0.368
35.390,0.377
35.395,0.379
35.400,0.375
35.405,0.372
35.410,0.362
35.415,0.356
35.420,0.345
35.425,0.328
35.430,0.318
35.435,0.300
35.440,0.286
35.445,0.269
35.450,0.248
35.455,0.233
35.460,0.218
35.465,0.206
35.470,0.193
35.475,0.177
35.480,0.162
35.485,0.142
35.490,0.129
35.495,0.116
35.500,0.104
35.505,0.096
35.510,0.080
35.515,0.072
35.520,0.065
35.525,0.052
35.530,0.044
35.535,0.031
35.540,0.024
35.545,0.025
35.550,0.018
35.555,0.010
35.560,0.008
35.565,0.011
35.570,0.010
35.575,0.003
35.580,0.001
35.585,-0.002
35.590,-0.003
35.595,-0.004
35.600,-0.005
35.605,0.001
35.610,-0.002
35.615,-0.005
35.620,-0.005
35.625,-0.007
35.630,-0.007
35.635,-0.012
35.640,-0.011
35.645,-0.008
35.650,-0.011
35.655,-0.014
35.660,-0.021
35.665,-0.024
35.670,-0.026
35.675,-0.029
35.680,-0.025
35.685,-0.028
35.690,-0.030
35.695,-0.034
35.700,-0.037
35.705,-0.034
35.710,-0.037
35.715,-0.036
35.720,-0.035
35.725,-0.039
35.730,-0.041
35.735,-0.047
35.740,-0.048
35.745,-0.049
35.750,-0.049
35.755,-0.043
35.760,-0.045
35.765,-0.046
35.770,-0.048
35.775,-0.052
35.780,-0.050
35.785,-0.055
35.790,-0.057
35.795,-0.055
35.800,-0.056
35.805,-0.058
35.810,-0.064
35.815,-0.062
35.820,-0.060
35.825,-0.059
35.830,-0.054
35.835,-0.058
35.840,-0.056
35.845,-0.055
35.850,-0.057
35.855,-0.052
35.860,-0.055
35.865,-0.054
35.870,-0.051
35.875,-0.053
35.880,-0.049
35.885,-0.051
35.890,-0.052
35.895,-0.053
35.900,-0.053
35.905,-0.050
35.910,-0.054
35.915,-0.051
35.920,-0.049
35.925,-0.053
35.930,-0.052
35.935,-0.054
35.940,-0.045
35.945,-0.041
35.950,-0.045
35.955,-0.043
35.960,-0.047
35.965,-0.042
35.970,-0.039
35.975,-0.043
35.980,-0.042
35.985,-0.043
35.990,-0.037
35.995,-0.030
36.000,-0.029
36.005,-0.029
36.010,-0.032
36.015,-0.030
36.020,-0.030
36.025,-0.033
36.030,-0.030
36.035,-0.039
36.040,-0.058
36.045,-0.068
36.050,-0.070
36.055,-0.070
36.060,-0.072
36.065,-0.077
36.070,-0.090
36.075,-0.093
36.080,-0.070
36.085,-0.047
36.090,-0.039
36.095,-0.041
36.100,-0.034
36.105,-0.011
36.110,-0.002
36.115,-0.001
36.120,0.005
36.125,0.009
36.130,0.019
36.135,0.026
36.140,0.039
36.145,0.046
36.150,0.048
36.155,0.055
36.160,0.053
36.165,0.051
36.170,0.046
36.175,0.038
36.180,0.038
36.185,0.031
36.190,0.028
36.195,0.030
36.200,0.024
36.205,0.024
36.210,0.021
36.215,0.018
36.220,0.016
36.225,0.011
36.230,0.009
36.235,-0.001
36.240,-0.006
36.245,-0.006
36.250,-0.010
36.255,-0.006
36.260,-0.004
36.265,0.002
36.270,0.004
36.275,-0.004
36.280,-0.008
36.285,-0.022
36.290,-0.043
36.295,-0.066
36.300,-0.112
36.305,-0.216
36.310,-0.418
36.315,-0.687
36.320,-0.884
36.325,-0.767
36.330,-0.301
36.335,0.194
36.340,0.551
36.345,0.857
36.350,1.037
36.355,0.990
36.360,0.753
36.365,0.437
36.370,0.216
36.375,0.076
36.380,-0.053
36.385,-0.103
36.390,-0.098
36.395,-0.114
36.400,-0.126
36.405,-0.118
36.410,-0.128
36.415,-0.136
36.420,-0.128
36.425,-0.128
36.430,-0.129
36.435,-0.112
36.440,-0.093
36.445,-0.100
36.450,-0.111
36.455,-0.103
36.460,-0.099
36.465,-0.091
36.470,-0.079
36.475,-0.086
36.480,-0.093
36.485,-0.092
36.490,-0.076
36.495,-0.062
36.500,-0.073
36.505,-0.095
36.510,-0.105
36.515,-0.081
36.520,-0.061
36.525,-0.073
36.530,-0.090
36.535,-0.099
36.540,-0.079
36.545,-0.069
36.550,-0.091
36.555,-0.097
36.560,-0.095
36.565,-0.097
36.570,-0.113
36.575,-0.151
36.580,-0.167
36.585,-0.153
36.590,-0.148
36.595,-0.167
36.600,-0.203
36.605,-0.224
36.610,-0.218
36.615,-0.198
36.620,-0.197
36.625,-0.202
36.630,-0.194
36.635,-0.188
36.640,-0.168
36.645,-0.139
36.650,-0.114
36.655,-0.068
36.660,-0.019
36.665,0.034
36.670,0.092
36.675,0.136
36.680,0.176
36.685,0.211
36.690,0.249
36.695,0.290
36.700,0.326
36.705,0.343
36.710,0.342
36.715,0.358
36.720,0.379
36.725,0.373
36.730,0.358
36.735,0.354
36.740,0.357
36.745,0.352
36.750,0.327
36.755,0.292
36.760,0.272
36.765,0.264
36.770,0.248
36.775,0.237
36.780,0.235
36.785,0.212
36.790,0.201
36.795,0.200
36.800,0.180
36.805,0.169
36.810,0.149
36.815,0.121
36.820,0.107
36.825,0.089
36.830,0.087
36.835,0.085
36.840,0.088
36.845,0.098
36.850,0.085
36.855,0.075
36.860,0.055
36.865,0.026
36.870,0.019
36.875,0.020
36.880,0.023
36.885,0.026
36.890,0.023
36.895,0.018
36.900,0.020
36.905,0.017
36.910,0.004
36.915,0.001
36.920,-0.014
36.925,-0.030
36.930,-0.011
36.935,0.009
36.940,0.008
36.945,-0.013
36.950,-0.032
36.955,-0.014
36.960,0.005
36.965,-0.006
36.970,-0.024
36.975,-0.024
36.980,-0.011
36.985,-0.015
36.990,-0.033
36.995,-0.036
37.000,-0.026
37.005,-0.019
37.010,-0.031
37.015,-0.044
37.020,-0.048
37.025,-0.053
37.030,-0.033
37.035,-0.010
37.040,-0.025
37.045,-0.052
37.050,-0.068
37.055,-0.050
37.060,-0.034
37.065,-0.045
37.070,-0.058
37.075,-0.068
37.080,-0.065
37.085,-0.051
37.090,-0.050
37.095,-0.060
37.100,-0.066
37.105,-0.049
37.110,-0.029
37.115,-0.038
37.120,-0.051
37.125,-0.058
37.130,-0.060
37.135,-0.071
37.140,-0.070
37.145,-0.049
37.150,-0.055
37.155,-0.068
37.160,-0.065
37.165,-0.046
37.170,-0.038
37.175,-0.055
37.180,-0.054
37.185,-0.049
37.190,-0.044
37.195,-0.038
37.200,-0.051
37.205,-0.057
37.210,-0.054
37.215,-0.043
37.220,-0.030
37.225,-0.043
37.230,-0.054
37.235,-0.046
37.240,-0.047
37.245,-0.056
37.250,-0.051
37.255,-0.030
37.260,-0.027
37.265,-0.043
37.270,-0.047
37.275,-0.042
37.280,-0.042
37.285,-0.056
37.290,-0.047
37.295,-0.021
37.300,-0.029
37.305,-0.044
37.310,-0.046
37.315,-0.039
37.320,-0.035
37.325,-0.055
37.330,-0.065
37.335,-0.063
37.340,-0.073
37.345,-0.091
37.350,-0.110
37.355,-0.108
37.360,-0.083
37.365,-0.063
37.370,-0.066
37.375,-0.073
37.380,-0.057
37.385,-0.036
37.390,-0.018
37.395,-0.006
37.400,-0.004
37.405,0.000
37.410,0.009
37.415,0.025
37.420,0.037
37.425,0.040
37.430,0.046
37.435,0.047
37.440,0.047
37.445,0.043
37.450,0.033
37.455,0.034
37.460,0.036
37.465,0.035
37.470,0.032
37.475,0.028
37.480,0.027
37.485,0.018
37.490,0.009
37.495,0.010
37.500,0.014
37.505,0.017
37.510,0.009
37.515,0.006
37.520,0.008
37.525,-0.004
37.530,-0.005
37.535,0.001
37.540,0.003
37.545,0.002
37.550,-0.006
37.555,-0.007
37.560,-0.014
37.565,-0.033
37.570,-0.052
37.575,-0.085
37.580,-0.154
37.585,-0.320
37.590,-0.571
37.595,-0.790
37.600,-0.778
37.605,-0.402
37.610,0.109
37.615,0.494
37.620,0.801
37.625,0.998
37.630,0.998
37.635,0.826
37.640,0.522
37.645,0.261
37.650,0.093
37.655,-0.059
37.660,-0.126
37.665,-0.114
37.670,-0.116
37.675,-0.135
37.680,-0.131
37.685,-0.129
37.690,-0.139
37.695,-0.139
37.700,-0.134
37.705,-0.128
37.710,-0.128
37.715,-0.123
37.720,-0.116
37.725,-0.117
37.730,-0.112
37.735,-0.109
37.740,-0.107
37.745,-0.101
37.750,-0.100
37.755,-0.096
37.760,-0.097
37.765,-0.093
37.770,-0.085
37.775,-0.087
37.780,-0.085
37.785,-0.088
37.790,-0.095
37.795,-0.093
37.800,-0.093
37.805,-0.088
37.810,-0.083
37.815,-0.085
37.820,-0.090
37.825,-0.101
37.830,-0.107
37.835,-0.114
37.840,-0.123
37.845,-0.128
37.850,-0.140
37.855,-0.151
37.860,-0.163
37.865,-0.175
37.870,-0.183
37.875,-0.195
37.880,-0.201
37.885,-0.209
37.890,-0.215
37.895,-0.214
37.900,-0.212
37.905,-0.201
37.910,-0.188
37.915,-0.171
37.920,-0.143
37.925,-0.113
37.930,-0.073
37.935,-0.030
37.940,0.019
37.945,0.077
37.950,0.125
37.955,0.173
37.960,0.223
37.965,0.273
37.970,0.313
37.975,0.332
37.980,0.352
37.985,0.368
37.990,0.378
37.995,0.387
38.000,0.382
38.005,0.378
38.010,0.371
38.015,0.359
38.020,0.349
38.025,0.333
38.030,0.321
38.035,0.306
38.040,0.291
38.045,0.278
38.050,0.258
38.055,0.241
38.060,0.223
38.065,0.206
38.070,0.197
38.075,0.178
38.080,0.163
38.085,0.151
38.090,0.135
38.095,0.123
38.100,0.106
38.105,0.096
38.110,0.085
38.115,0.072
38.120,0.064
38.125,0.051
38.130,0.041
38.135,0.034
38.140,0.026
38.145,0.022
38.150,0.012
38.155,0.009
38.160,0.010
38.165,0.009
38.170,0.010
38.175,0.002
38.180,-0.001
38.185,-0.001
38.190,-0.003
38.195,-0.002
38.200,-0.008
38.205,-0.009
38.210,-0.008
38.215,-0.007
38.220,-0.002
38.225,-0.007
38.230,-0.010
38.235,-0.013
38.240,-0.017
38.245,-0.012
38.250,-0.013
38.255,-0.016
38.260,-0.019
38.265,-0.020
38.270,-0.019
38.275,-0.024
38.280,-0.024
38.285,-0.027
38.290,-0.031
38.295,-0.029
38.300,-0.036
38.305,-0.040
38.310,-0.040
38.315,-0.044
38.320,-0.042
38.325,-0.044
38.330,-0.046
38.335,-0.049
38.340,-0.060
38.345,-0.061
38.350,-0.055
38.355,-0.047
38.360,-0.045
38.365,-0.054
38.370,-0.060
38.375,-0.064
38.380,-0.064
38.385,-0.063
38.390,-0.060
38.395,-0.057
38.400,-0.063
38.405,-0.066
38.410,-0.066
38.415,-0.062
38.420,-0.056
38.425,-0.059
38.430,-0.056
38.435,-0.052
38.440,-0.052
38.445,-0.055
38.450,-0.068
38.455,-0.065
38.460,-0.051
38.465,-0.048
38.470,-0.051
38.475,-0.062
38.480,-0.061
38.485,-0.056
38.490,-0.058
38.495,-0.051
38.500,-0.050
38.505,-0.052
38.510,-0.053
38.515,-0.057
38.520,-0.057
38.525,-0.059
38.530,-0.054
38.535,-0.051
38.540,-0.048
38.545,-0.037
38.550,-0.037
38.555,-0.041
38.560,-0.049
38.565,-0.049
38.570,-0.032
38.575,-0.032
38.580,-0.037
38.585,-0.041
38.590,-0.048
38.595,-0.043
38.600,-0.036
38.605,-0.033
38.610,-0.032
38.615,-0.030
38.620,-0.019
38.625,-0.022
38.630,-0.038
38.635,-0.043
38.640,-0.033
38.645,-0.024
38.650,-0.036
38.655,-0.057
38.660,-0.067
38.665,-0.066
38.670,-0.070
38.675,-0.077
38.680,-0.073
38.685,-0.081
38.690,-0.085
38.695,-0.068
38.700,-0.052
38.705,-0.037
38.710,-0.036
38.715,-0.038
38.720,-0.025
38.725,-0.009
38.730,0.015
38.735,0.023
38.740,0.022
38.745,0.032
38.750,0.032
38.755,0.032
38.760,0.045
38.765,0.062
38.770,0.077
38.775,0.070
38.780,0.053
38.785,0.044
38.790,0.047
38.795,0.049
38.800,0.035
38.805,0.023
38.810,0.012
38.815,0.024
38.820,0.047
38.825,0.026
38.830,0.008
38.835,0.014
38.840,0.018
38.845,0.019
38.850,0.000
38.855,-0.001
38.860,0.018
38.865,0.020
38.870,0.014
38.875,0.008
38.880,0.007
38.885,0.002
38.890,-0.024
38.895,-0.045
38.900,-0.061
38.905,-0.080
38.910,-0.116
38.915,-0.221
38.920,-0.416
38.925,-0.673
38.930,-0.830
38.935,-0.631
38.940,-0.115
38.945,0.366
38.950,0.689
38.955,0.949
38.960,1.063
38.965,0.956
38.970,0.685
38.975,0.381
38.980,0.185
38.985,0.037
38.990,-0.095
38.995,-0.135
39.000,-0.116
39.005,-0.114
39.010,-0.146
39.015,-0.158
39.020,-0.146
39.025,-0.135
39.030,-0.121
39.035,-0.146
39.040,-0.178
39.045,-0.141
39.050,-0.113
39.055,-0.121
39.060,-0.107
39.065,-0.097
39.070,-0.103
39.075,-0.114
39.080,-0.114
39.085,-0.103
39.090,-0.103
39.095,-0.101
39.100,-0.086
39.105,-0.081
39.110,-0.095
39.115,-0.093
39.120,-0.078
39.125,-0.079
39.130,-0.083
39.135,-0.094
39.140,-0.090
39.145,-0.080
39.150,-0.097
39.155,-0.105
39.160,-0.099
39.165,-0.108
39.170,-0.117
39.175,-0.127
39.180,-0.142
39.185,-0.141
39.190,-0.139
39.195,-0.147
39.200,-0.172
39.205,-0.209
39.210,-0.228
39.215,-0.216
39.220,-0.202
39.225,-0.219
39.230,-0.232
39.235,-0.215
39.240,-0.202
39.245,-0.198
39.250,-0.182
39.255,-0.144
39.260,-0.097
39.265,-0.057
39.270,-0.024
39.275,0.014
39.280,0.082
39.285,0.150
39.290,0.196
39.295,0.249
39.300,0.289
39.305,0.319
39.310,0.352
39.315,0.362
39.320,0.370
39.325,0.382
39.330,0.381
39.335,0.374
39.340,0.369
39.345,0.367
39.350,0.356
39.355,0.346
39.360,0.336
39.365,0.320
39.370,0.310
39.375,0.287
39.380,0.260
39.385,0.240
39.390,0.228
39.395,0.225
39.400,0.211
39.405,0.198
39.410,0.182
39.415,0.155
39.420,0.139
39.425,0.131
39.430,0.127
39.435,0.120
39.440,0.104
39.445,0.089
39.450,0.074
39.455,0.069
39.460,0.066
39.465,0.055
39.470,0.050
39.475,0.042
39.480,0.040
39.485,0.036
39.490,0.021
39.495,0.013
39.500,0.008
39.505,0.009
39.510,0.016
39.515,0.014
39.520,0.005
39.525,-0.005
39.530,-0.010
39.535,-0.013
39.540,-0.007
39.545,0.008
39.550,0.006
39.555,-0.005
39.560,-0.010
39.565,-0.009
39.570,-0.006
39.575,-0.015
39.580,-0.020
39.585,-0.018
39.590,-0.019
39.595,-0.017
39.600,-0.024
39.605,-0.030
39.610,-0.028
39.615,-0.026
39.620,-0.026
39.625,-0.035
39.630,-0.038
39.635,-0.036
39.640,-0.038
39.645,-0.031
39.650,-0.028
39.655,-0.032
39.660,-0.040
39.665,-0.049
39.670,-0.046
39.675,-0.046
39.680,-0.048
39.685,-0.049
39.690,-0.055
39.695,-0.053
39.700,-0.057
39.705,-0.061
39.710,-0.056
39.715,-0.055
39.720,-0.051
39.725,-0.049
39.730,-0.052
39.735,-0.051
39.740,-0.050
39.745,-0.049
39.750,-0.052
39.755,-0.057
39.760,-0.059
39.765,-0.059
39.770,-0.053
39.775,-0.052
39.780,-0.058
39.785,-0.061
39.790,-0.061
39.795,-0.058
39.800,-0.059
39.805,-0.054
39.810,-0.049
39.815,-0.050
39.820,-0.049
39.825,-0.054
39.830,-0.052
39.835,-0.048
39.840,-0.053
39.845,-0.054
39.850,-0.056
39.855,-0.056
39.860,-0.047
39.865,-0.043
39.870,-0.041
39.875,-0.052
39.880,-0.066
39.885,-0.071
39.890,-0.072
39.895,-0.071
39.900,-0.080
39.905,-0.088
39.910,-0.094
39.915,-0.107
39.920,-0.107
39.925,-0.090
39.930,-0.066
39.935,-0.060
39.940,-0.069
39.945,-0.057
39.950,-0.035
39.955,-0.019
39.960,-0.009
39.965,-0.006
39.970,-0.003
39.975,-0.001
39.980,0.011
39.985,0.027
39.990,0.033
39.995,0.041
40.000,0.042
40.005,0.039
40.010,0.035
40.015,0.026
40.020,0.025
40.025,0.020
40.030,0.015
40.035,0.017
40.040,0.014
40.045,0.012
40.050,0.006
40.055,0.000
40.060,0.000
40.065,-0.003
40.070,0.000
40.075,-0.003
40.080,-0.009
40.085,-0.010
40.090,-0.012
40.095,-0.013
40.100,-0.016
40.105,-0.015
40.110,-0.011
40.115,-0.013
40.120,-0.013
40.125,-0.022
40.130,-0.034
40.135,-0.052
40.140,-0.085
40.145,-0.141
40.150,-0.273
40.155,-0.501
40.160,-0.762
40.165,-0.875
40.170,-0.615
40.175,-0.101
40.180,0.341
40.185,0.677
40.190,0.946
40.195,1.039
40.200,0.917
40.205,0.628
40.210,0.331
40.215,0.146
40.220,-0.004
40.225,-0.111
40.230,-0.118
40.235,-0.114
40.240,-0.138
40.245,-0.135
40.250,-0.122
40.255,-0.130
40.260,-0.136
40.265,-0.131
40.270,-0.123
40.275,-0.124
40.280,-0.121
40.285,-0.114
40.290,-0.118
40.295,-0.112
40.300,-0.105
40.305,-0.104
40.310,-0.102
40.315,-0.102
40.320,-0.094
40.325,-0.087
40.330,-0.083
40.335,-0.077
40.340,-0.080
40.345,-0.081
40.350,-0.083
40.355,-0.084
40.360,-0.081
40.365,-0.082
40.370,-0.081
40.375,-0.083
40.380,-0.084
40.385,-0.087
40.390,-0.095
40.395,-0.097
40.400,-0.106
40.405,-0.117
40.410,-0.123
40.415,-0.135
40.420,-0.144
40.425,-0.156
40.430,-0.171
40.435,-0.183
40.440,-0.198
40.445,-0.204
40.450,-0.210
40.455,-0.218
40.460,-0.217
40.465,-0.214
40.470,-0.203
40.475,-0.192
40.480,-0.178
40.485,-0.154
40.490,-0.128
40.495,-0.089
40.500,-0.046
40.505,0.003
40.510,0.058
40.515,0.108
40.520,0.161
40.525,0.211
40.530,0.255
40.535,0.296
40.540,0.323
40.545,0.349
40.550,0.367
40.555,0.376
40.560,0.386
40.565,0.383
40.570,0.380
40.575,0.374
40.580,0.364
40.585,0.355
40.590,0.337
40.595,0.324
40.600,0.312
40.605,0.296
40.610,0.284
40.615,0.265
40.620,0.250
40.625,0.236
40.630,0.218
40.635,0.202
40.640,0.184
40.645,0.173
40.650,0.159
40.655,0.144
40.660,0.133
40.665,0.118
40.670,0.108
40.675,0.095
40.680,0.082
40.685,0.075
40.690,0.064
40.695,0.058
40.700,0.049
40.705,0.039
40.710,0.036
40.715,0.029
40.720,0.025
40.725,0.016
40.730,0.009
40.735,0.009
40.740,0.001
40.745,0.000
40.750,0.002
40.755,-0.002
40.760,-0.003
40.765,-0.008
40.770,-0.011
40.775,-0.015
40.780,-0.017
40.785,-0.011
40.790,-0.008
40.795,-0.009
40.800,-0.016
40.805,-0.022
40.810,-0.018
40.815,-0.023
40.820,-0.031
40.825,-0.037
40.830,-0.034
40.835,-0.026
40.840,-0.035
40.845,-0.043
40.850,-0.042
40.855,-0.030
40.860,-0.014
40.865,-0.017
40.870,-0.025
40.875,-0.037
40.880,-0.047
40.885,-0.049
40.890,-0.050
40.895,-0.049
40.900,-0.053
40.905,-0.050
40.910,-0.043
40.915,-0.053
40.920,-0.067
40.925,-0.069
40.930,-0.052
40.935,-0.038
40.940,-0.048
40.945,-0.052
40.950,-0.055
40.955,-0.060
40.960,-0.054
40.965,-0.057
40.970,-0.058
40.975,-0.055
40.980,-0.059
40.985,-0.057
40.990,-0.060
40.995,-0.060
41.000,-0.061
41.005,-0.067
41.010,-0.063
41.015,-0.051
41.020,-0.041
41.025,-0.053
41.030,-0.067
41.035,-0.061
41.040,-0.057
41.045,-0.058
41.050,-0.058
41.055,-0.051
41.060,-0.045
41.065,-0.046
41.070,-0.040
41.075,-0.041
41.080,-0.050
41.085,-0.058
41.090,-0.057
41.095,-0.035
41.100,-0.031
41.105,-0.051
41.110,-0.065
41.115,-0.064
41.120,-0.045
41.125,-0.030
41.130,-0.029
41.135,-0.041
41.140,-0.051
41.145,-0.041
41.150,-0.033
41.155,-0.032
41.160,-0.027
41.165,-0.033
41.170,-0.037
41.175,-0.030
41.180,-0.024
41.185,-0.022
41.190,-0.027
41.195,-0.038
41.200,-0.035
41.205,-0.014
41.210,-0.001
41.215,-0.014
41.220,-0.041
41.225,-0.053
41.230,-0.019
41.235,0.013
41.240,-0.006
41.245,-0.024
41.250,-0.030
41.255,-0.032
41.260,-0.032
41.265,-0.032
41.270,-0.019
41.275,-0.022
41.280,-0.045
41.285,-0.062
41.290,-0.072
41.295,-0.080
41.300,-0.105
41.305,-0.087
41.310,-0.032
41.315,-0.023
41.320,-0.041
41.325,-0.058
41.330,-0.040
41.335,0.005
41.340,0.009
41.345,0.003
41.350,0.014
41.355,0.022
41.360,0.033
41.365,0.040
41.370,0.044
41.375,0.058
41.380,0.072
41.385,0.075
41.390,0.070
41.395,0.064
41.400,0.053
41.405,0.044
41.410,0.038
41.415,0.029
41.420,0.033
41.425,0.029
41.430,0.018
41.435,0.027
41.440,0.030
41.445,0.035
41.450,0.036
41.455,0.017
41.460,0.006
41.465,0.016
41.470,0.035
41.475,0.026
41.480,-0.008
41.485,-0.016
41.490,-0.003
41.495,0.016
41.500,0.019
41.505,-0.010
41.510,-0.038
41.515,-0.051
41.520,-0.064
41.525,-0.104
41.530,-0.221
41.535,-0.436
41.540,-0.688
41.545,-0.816
41.550,-0.601
41.555,-0.091
41.560,0.379
41.565,0.691
41.570,0.935
41.575,1.038
41.580,0.944
41.585,0.696
41.590,0.396
41.595,0.192
41.600,0.026
41.605,-0.112
41.610,-0.134
41.615,-0.124
41.620,-0.130
41.625,-0.134
41.630,-0.134
41.635,-0.133
41.640,-0.136
41.645,-0.127
41.650,-0.136
41.655,-0.151
41.660,-0.132
41.665,-0.139
41.670,-0.157
41.675,-0.126
41.680,-0.096
41.685,-0.083
41.690,-0.092
41.695,-0.115
41.700,-0.114
41.705,-0.101
41.710,-0.102
41.715,-0.112
41.720,-0.103
41.725,-0.083
41.730,-0.069
41.735,-0.064
41.740,-0.077
41.745,-0.079
41.750,-0.087
41.755,-0.112
41.760,-0.101
41.765,-0.079
41.770,-0.082
41.775,-0.102
41.780,-0.121
41.785,-0.119
41.790,-0.119
41.795,-0.131
41.800,-0.148
41.805,-0.163
41.810,-0.172
41.815,-0.185
41.820,-0.198
41.825,-0.216
41.830,-0.232
41.835,-0.232
41.840,-0.227
41.845,-0.222
41.850,-0.216
41.855,-0.210
41.860,-0.197
41.865,-0.179
41.870,-0.150
41.875,-0.116
41.880,-0.080
41.885,-0.032
41.890,0.021
41.895,0.084
41.900,0.145
41.905,0.185
41.910,0.230
41.915,0.274
41.920,0.312
41.925,0.341
41.930,0.357
41.935,0.373
41.940,0.380
41.945,0.383
41.950,0.379
41.955,0.367
41.960,0.362
41.965,0.352
41.970,0.337
41.975,0.325
41.980,0.317
41.985,0.306
41.990,0.291
41.995,0.280
42.000,0.265
42.005,0.246
42.010,0.231
42.015,0.209
42.020,0.190
42.025,0.178
42.030,0.164
42.035,0.152
42.040,0.131
42.045,0.112
42.050,0.107
42.055,0.104
42.060,0.097
42.065,0.084
42.070,0.072
42.075,0.059
42.080,0.048
42.085,0.046
42.090,0.042
42.095,0.039
42.100,0.032
42.105,0.019
42.110,0.018
42.115,0.015
42.120,0.014
42.125,0.013
42.130,0.006
42.135,0.005
42.140,0.002
42.145,-0.001
42.150,-0.001
42.155,-0.004
42.160,0.000
42.165,-0.001
42.170,-0.004
42.175,-0.004
42.180,-0.009
42.185,-0.009
42.190,-0.008
42.195,-0.010
42.200,-0.018
42.205,-0.026
42.210,-0.022
42.215,-0.017
42.220,-0.015
42.225,-0.017
42.230,-0.024
42.235,-0.026
42.240,-0.034
42.245,-0.039
42.250,-0.035
42.255,-0.035
42.260,-0.035
42.265,-0.042
42.270,-0.046
42.275,-0.044
42.280,-0.045
42.285,-0.046
42.290,-0.053
42.295,-0.055
42.300,-0.048
42.305,-0.044
42.310,-0.043
42.315,-0.049
42.320,-0.053
42.325,-0.054
42.330,-0.057
42.335,-0.055
42.340,-0.055
42.345,-0.054
42.350,-0.055
42.355,-0.063
42.360,-0.060
42.365,-0.057
42.370,-0.057
42.375,-0.056
42.380,-0.060
42.385,-0.061
42.390,-0.064
42.395,-0.063
42.400,-0.062
42.405,-0.064
42.410,-0.060
42.415,-0.060
42.420,-0.059
42.425,-0.057
42.430,-0.059
42.435,-0.056
42.440,-0.058
42.445,-0.059
42.450,-0.055
42.455,-0.054
42.460,-0.050
42.465,-0.053
42.470,-0.056
42.475,-0.052
42.480,-0.052
42.485,-0.047
42.490,-0.046
42.495,-0.046
42.500,-0.043
42.505,-0.044
42.510,-0.042
42.515,-0.046
42.520,-0.048
42.525,-0.049
42.530,-0.061
42.535,-0.070
42.540,-0.077
42.545,-0.079
42.550,-0.078
42.555,-0.088
42.560,-0.099
42.565,-0.108
42.570,-0.102
42.575,-0.078
42.580,-0.060
42.585,-0.056
42.590,-0.062
42.595,-0.049
42.600,-0.024
42.605,-0.016
42.610,-0.008
42.615,-0.003
42.620,0.000
42.625,0.010
42.630,0.022
42.635,0.032
42.640,0.033
42.645,0.038
42.650,0.042
42.655,0.043
42.660,0.044
42.665,0.031
42.670,0.028
42.675,0.032
42.680,0.026
42.685,0.025
42.690,0.020
42.695,0.015
42.700,0.016
42.705,0.009
42.710,0.008
42.715,0.005
42.720,0.000
42.725,0.000
42.730,-0.001
42.735,0.003
42.740,0.001
42.745,-0.007
42.750,-0.011
42.755,-0.010
42.760,-0.003
42.765,-0.001
42.770,-0.003
42.775,-0.012
42.780,-0.035
42.785,-0.059
42.790,-0.099
42.795,-0.187
42.800,-0.363
42.805,-0.629
42.810,-0.858
42.815,-0.807
42.820,-0.389
42.825,0.120
42.830,0.495
42.835,0.814
42.840,1.028
42.845,1.017
42.850,0.808
42.855,0.487
42.860,0.246
42.865,0.094
42.870,-0.057
42.875,-0.119
42.880,-0.109
42.885,-0.119
42.890,-0.135
42.895,-0.127
42.900,-0.122
42.905,-0.133
42.910,-0.129
42.915,-0.124
42.920,-0.129
42.925,-0.123
42.930,-0.113
42.935,-0.108
42.940,-0.109
42.945,-0.105
42.950,-0.099
42.955,-0.099
42.960,-0.092
42.965,-0.090
42.970,-0.090
42.975,-0.085
42.980,-0.084
42.985,-0.080
42.990,-0.081
42.995,-0.078
43.000,-0.073
43.005,-0.077
43.010,-0.077
43.015,-0.079
43.020,-0.080
43.025,-0.078
43.030,-0.082
43.035,-0.085
43.040,-0.095
43.045,-0.107
43.050,-0.115
43.055,-0.121
43.060,-0.120
43.065,-0.129
43.070,-0.145
43.075,-0.161
43.080,-0.178
43.085,-0.188
43.090,-0.199
43.095,-0.210
43.100,-0.217
43.105,-0.223
43.110,-0.218
43.115,-0.215
43.120,-0.212
43.125,-0.198
43.130,-0.180
43.135,-0.150
43.140,-0.119
43.145,-0.083
43.150,-0.037
43.155,0.013
43.160,0.072
43.165,0.125
43.170,0.176
43.175,0.228
43.180,0.269
43.185,0.306
43.190,0.333
43.195,0.355
43.200,0.375
43.205,0.379
43.210,0.384
43.215,0.384
43.220,0.379
43.225,0.374
43.230,0.360
43.235,0.347
43.240,0.332
43.245,0.317
43.250,0.309
43.255,0.297
43.260,0.283
43.265,0.263
43.270,0.245
43.275,0.233
43.280,0.216
43.285,0.199
43.290,0.178
43.295,0.161
43.300,0.152
43.305,0.141
43.310,0.135
43.315,0.123
43.320,0.110
43.325,0.103
43.330,0.088
43.335,0.077
43.340,0.067
43.345,0.058
43.350,0.054
43.355,0.044
43.360,0.038
43.365,0.030
43.370,0.020
43.375,0.017
43.380,0.011
43.385,0.009
43.390,0.006
43.395,0.001
43.400,-0.002
43.405,-0.008
43.410,-0.007
43.415,-0.007
43.420,-0.012
43.425,-0.014
43.430,-0.019
43.435,-0.020
43.440,-0.024
43.445,-0.030
43.450,-0.030
43.455,-0.027
43.460,-0.017
43.465,-0.019
43.470,-0.032
43.475,-0.040
43.480,-0.042
43.485,-0.036
43.490,-0.038
43.495,-0.038
43.500,-0.025
43.505,-0.021
43.510,-0.028
43.515,-0.041
43.520,-0.050
43.525,-0.044
43.530,-0.043
43.535,-0.049
43.540,-0.053
43.545,-0.049
43.550,-0.046
43.555,-0.049
43.560,-0.050
43.565,-0.054
43.570,-0.056
43.575,-0.058
43.580,-0.061
43.585,-0.055
43.590,-0.053
43.595,-0.056
43.600,-0.059
43.605,-0.061
43.610,-0.052
43.615,-0.053
43.620,-0.063
43.625,-0.065
43.630,-0.061
43.635,-0.052
43.640,-0.057
43.645,-0.066
43.650,-0.059
43.655,-0.054
43.660,-0.053
43.665,-0.056
43.670,-0.059
43.675,-0.049
43.680,-0.047
43.685,-0.050
43.690,-0.052
43.695,-0.052
43.700,-0.050
43.705,-0.055
43.710,-0.055
43.715,-0.056
43.720,-0.052
43.725,-0.040
43.730,-0.040
43.735,-0.050
43.740,-0.057
43.745,-0.045
43.750,-0.027
43.755,-0.032
43.760,-0.043
43.765,-0.050
43.770,-0.041
43.775,-0.034
43.780,-0.047
43.785,-0.046
43.790,-0.036
43.795,-0.028
43.800,-0.022
43.805,-0.030
43.810,-0.033
43.815,-0.025
43.820,-0.019
43.825,-0.019
43.830,-0.029
43.835,-0.034
43.840,-0.030
43.845,-0.030
43.850,-0.031
43.855,-0.036
43.860,-0.031
43.865,-0.020
43.870,-0.011
43.875,-0.007
43.880,-0.024
43.885,-0.025
43.890,-0.005
43.895,-0.004
43.900,-0.018
43.905,-0.020
43.910,-0.006
43.915,-0.009
43.920,-0.024
43.925,-0.033
43.930,-0.039
43.935,-0.039
43.940,-0.051
43.945,-0.065
43.950,-0.080
43.955,-0.103
43.960,-0.099
43.965,-0.068
43.970,-0.061
43.975,-0.072
43.980,-0.060
43.985,-0.023
43.990,0.007
43.995,0.018
44.000,0.021
44.005,0.018
44.010,0.016
44.015,0.023
44.020,0.049
44.025,0.068
44.030,0.071
44.035,0.067
44.040,0.058
44.045,0.069
44.050,0.059
44.055,0.033
44.060,0.054
44.065,0.070
44.070,0.065
44.075,0.057
44.080,0.034
44.085,0.026
44.090,0.026
44.095,0.025
44.100,0.031
44.105,0.017
44.110,0.005
44.115,0.001
44.120,0.008
44.125,0.031
44.130,0.019
44.135,-0.002
44.140,0.000
44.145,0.007
44.150,0.009
44.155,-0.003
44.160,-0.012
44.165,-0.024
44.170,-0.051
44.175,-0.100
44.180,-0.176
44.185,-0.314
44.190,-0.551
44.195,-0.776
44.200,-0.757
44.205,-0.389
44.210,0.118
44.215,0.508
44.220,0.818
44.225,1.033
44.230,1.038
44.235,0.857
44.240,0.542
44.245,0.262
44.250,0.110
44.255,-0.027
44.260,-0.103
44.265,-0.110
44.270,-0.137
44.275,-0.149
44.280,-0.137
44.285,-0.137
44.290,-0.141
44.295,-0.134
44.300,-0.130
44.305,-0.150
44.310,-0.156
44.315,-0.143
44.320,-0.125
44.325,-0.104
44.330,-0.109
44.335,-0.118
44.340,-0.118
44.345,-0.109
44.350,-0.088
44.355,-0.094
44.360,-0.108
44.365,-0.116
44.370,-0.113
44.375,-0.095
44.380,-0.093
44.385,-0.092
44.390,-0.084
44.395,-0.079
44.400,-0.074
44.405,-0.080
44.410,-0.087
44.415,-0.086
44.420,-0.091
44.425,-0.099
44.430,-0.121
44.435,-0.135
44.440,-0.134
44.445,-0.132
44.450,-0.140
44.455,-0.150
44.460,-0.146
44.465,-0.163
44.470,-0.193
44.475,-0.214
44.480,-0.243
44.485,-0.250
44.490,-0.247
44.495,-0.240
44.500,-0.212
44.505,-0.209
44.510,-0.212
44.515,-0.186
44.520,-0.154
44.525,-0.130
44.530,-0.112
44.535,-0.066
44.540,-0.015
44.545,0.035
44.550,0.105
44.555,0.167
44.560,0.219
44.565,0.255
44.570,0.284
44.575,0.332
44.580,0.359
44.585,0.364
44.590,0.368
44.595,0.377
44.600,0.391
44.605,0.382
44.610,0.371
44.615,0.375
44.620,0.373
44.625,0.356
