'Elapsed time','ECG'
'seconds','mV'
0.000,-0.098
0.005,-0.119
0.010,-0.022
0.015,0.025
0.020,-0.025
0.025,0.001
0.030,0.035
0.035,-0.013
0.040,-0.020
0.045,0.015
0.050,0.000
0.055,-0.022
0.060,-0.011
0.065,-0.010
0.070,-0.025
0.075,-0.018
0.080,-0.010
0.085,-0.025
0.090,-0.034
0.095,-0.034
0.100,-0.029
0.105,-0.029
0.110,-0.037
0.115,-0.044
0.120,-0.053
0.125,-0.056
0.130,-0.052
0.135,-0.050
0.140,-0.048
0.145,-0.044
0.150,-0.037
0.155,-0.036
0.160,-0.046
0.165,-0.052
0.170,-0.052
0.175,-0.043
0.180,-0.036
0.185,-0.041
0.190,-0.042
0.195,-0.043
0.200,-0.043
0.205,-0.042
0.210,-0.043
0.215,-0.034
0.220,-0.028
0.225,-0.029
0.230,-0.030
0.235,-0.032
0.240,-0.037
0.245,-0.038
0.250,-0.034
0.255,-0.032
0.260,-0.033
0.265,-0.030
0.270,-0.025
0.275,-0.027
0.280,-0.031
0.285,-0.034
0.290,-0.034
0.295,-0.029
0.300,-0.024
0.305,-0.033
0.310,-0.055
0.315,-0.073
0.320,-0.092
0.325,-0.106
0.330,-0.110
0.335,-0.106
0.340,-0.091
0.345,-0.092
0.350,-0.117
0.355,-0.136
0.360,-0.137
0.365,-0.114
0.370,-0.075
0.375,-0.045
0.380,-0.020
0.385,0.005
0.390,0.022
0.395,0.039
0.400,0.059
0.405,0.065
0.410,0.065
0.415,0.071
0.420,0.071
0.425,0.067
0.430,0.066
0.435,0.065
0.440,0.064
0.445,0.065
0.450,0.063
0.455,0.066
0.460,0.109
0.465,0.180
0.470,0.204
0.475,0.086
0.480,-0.248
0.485,-0.726
0.490,-1.188
0.495,-1.529
0.500,-1.588
0.505,-1.210
0.510,-0.627
0.515,-0.151
0.520,0.114
0.525,0.194
0.530,0.262
0.535,0.330
0.540,0.333
0.545,0.344
0.550,0.367
0.555,0.354
0.560,0.339
0.565,0.341
0.570,0.329
0.575,0.310
0.580,0.303
0.585,0.295
0.590,0.274
0.595,0.257
0.600,0.250
0.605,0.235
0.610,0.218
0.615,0.207
0.620,0.193
0.625,0.182
0.630,0.172
0.635,0.157
0.640,0.140
0.645,0.127
0.650,0.117
0.655,0.101
0.660,0.085
0.665,0.073
0.670,0.058
0.675,0.039
0.680,0.024
0.685,0.012
0.690,-0.007
0.695,-0.035
0.700,-0.063
0.705,-0.085
0.710,-0.101
0.715,-0.115
0.720,-0.137
0.725,-0.161
0.730,-0.181
0.735,-0.196
0.740,-0.211
0.745,-0.221
0.750,-0.222
0.755,-0.220
0.760,-0.204
0.765,-0.167
0.770,-0.121
0.775,-0.064
0.780,0.004
0.785,0.067
0.790,0.126
0.795,0.179
0.800,0.224
0.805,0.255
0.810,0.267
0.815,0.277
0.820,0.287
0.825,0.288
0.830,0.287
0.835,0.283
0.840,0.275
0.845,0.264
0.850,0.247
0.855,0.231
0.860,0.220
0.865,0.209
0.870,0.198
0.875,0.184
0.880,0.171
0.885,0.165
0.890,0.153
0.895,0.135
0.900,0.122
0.905,0.109
0.910,0.101
0.915,0.095
0.920,0.087
0.925,0.080
0.930,0.070
0.935,0.055
0.940,0.043
0.945,0.037
0.950,0.034
0.955,0.027
0.960,0.020
0.965,0.023
0.970,0.020
0.975,0.004
0.980,-0.002
0.985,-0.001
0.990,-0.004
0.995,-0.007
1.000,-0.011
1.005,-0.014
1.010,-0.010
1.015,-0.009
1.020,-0.020
1.025,-0.030
1.030,-0.031
1.035,-0.029
1.040,-0.031
1.045,-0.033
1.050,-0.029
1.055,-0.028
1.060,-0.036
1.065,-0.043
1.070,-0.045
1.075,-0.045
1.080,-0.047
1.085,-0.049
1.090,-0.051
1.095,-0.052
1.100,-0.061
1.105,-0.094
1.110,-0.129
1.115,-0.144
1.120,-0.147
1.125,-0.145
1.130,-0.139
1.135,-0.144
1.140,-0.164
1.145,-0.177
1.150,-0.170
1.155,-0.161
1.160,-0.139
1.165,-0.108
1.170,-0.088
1.175,-0.057
1.180,-0.021
1.185,0.003
1.190,0.025
1.195,0.038
1.200,0.042
1.205,0.047
1.210,0.044
1.215,0.038
1.220,0.044
1.225,0.048
1.230,0.039
1.235,0.031
1.240,0.028
1.245,0.032
1.250,0.079
1.255,0.152
1.260,0.165
1.265,0.053
1.270,-0.230
1.275,-0.665
1.280,-1.125
1.285,-1.527
1.290,-1.744
1.295,-1.495
1.300,-0.903
1.305,-0.376
1.310,-0.030
1.315,0.142
1.320,0.245
1.325,0.337
1.330,0.347
1.335,0.342
1.340,0.371
1.345,0.366
1.350,0.345
1.355,0.352
1.360,0.351
1.365,0.323
1.370,0.306
1.375,0.298
1.380,0.276
1.385,0.256
1.390,0.251
1.395,0.239
1.400,0.221
1.405,0.205
1.410,0.193
1.415,0.181
1.420,0.162
1.425,0.144
1.430,0.132
1.435,0.122
1.440,0.110
1.445,0.096
1.450,0.087
1.455,0.071
1.460,0.044
1.465,0.026
1.470,0.010
1.475,-0.005
1.480,-0.019
1.485,-0.038
1.490,-0.059
1.495,-0.078
1.500,-0.101
1.505,-0.134
1.510,-0.167
1.515,-0.187
1.520,-0.198
1.525,-0.208
1.530,-0.223
1.535,-0.239
1.540,-0.245
1.545,-0.247
1.550,-0.240
1.555,-0.214
1.560,-0.167
1.565,-0.105
1.570,-0.037
1.575,0.028
1.580,0.088
1.585,0.140
1.590,0.183
1.595,0.218
1.600,0.245
1.605,0.258
1.610,0.264
1.615,0.270
1.620,0.267
1.625,0.256
1.630,0.247
1.635,0.239
1.640,0.231
1.645,0.221
1.650,0.211
1.655,0.199
1.660,0.188
1.665,0.179
1.670,0.165
1.675,0.152
1.680,0.139
1.685,0.124
1.690,0.117
1.695,0.110
1.700,0.104
1.705,0.095
1.710,0.080
1.715,0.070
1.720,0.061
1.725,0.051
1.730,0.047
1.735,0.043
1.740,0.034
1.745,0.025
1.750,0.025
1.755,0.025
1.760,0.014
1.765,0.006
1.770,0.000
1.775,0.001
1.780,0.004
1.785,-0.009
1.790,-0.016
1.795,-0.012
1.800,-0.009
1.805,-0.015
1.810,-0.023
1.815,-0.024
1.820,-0.022
1.825,-0.024
1.830,-0.024
1.835,-0.024
1.840,-0.029
1.845,-0.037
1.850,-0.039
1.855,-0.039
1.860,-0.040
1.865,-0.037
1.870,-0.038
1.875,-0.041
1.880,-0.042
1.885,-0.046
1.890,-0.052
1.895,-0.051
1.900,-0.049
1.905,-0.050
1.910,-0.055
1.915,-0.063
1.920,-0.083
1.925,-0.115
1.930,-0.135
1.935,-0.137
1.940,-0.139
1.945,-0.142
1.950,-0.139
1.955,-0.131
1.960,-0.134
1.965,-0.143
1.970,-0.148
1.975,-0.133
1.980,-0.098
1.985,-0.068
1.990,-0.055
1.995,-0.040
2.000,-0.010
2.005,0.020
2.010,0.036
2.015,0.040
2.020,0.038
2.025,0.040
2.030,0.041
2.035,0.039
2.040,0.042
2.045,0.047
2.050,0.046
2.055,0.033
2.060,0.029
2.065,0.065
2.070,0.128
2.075,0.150
2.080,0.062
2.085,-0.175
2.090,-0.568
2.095,-1.019
2.100,-1.435
2.105,-1.714
2.110,-1.566
2.115,-1.006
2.120,-0.443
2.125,-0.062
2.130,0.134
2.135,0.239
2.140,0.339
2.145,0.363
2.150,0.342
2.155,0.368
2.160,0.379
2.165,0.359
2.170,0.357
2.175,0.357
2.180,0.338
2.185,0.320
2.190,0.311
2.195,0.290
2.200,0.269
2.205,0.261
2.210,0.247
2.215,0.229
2.220,0.218
2.225,0.206
2.230,0.184
2.235,0.166
2.240,0.158
2.245,0.147
2.250,0.135
2.255,0.122
2.260,0.106
2.265,0.094
2.270,0.077
2.275,0.058
2.280,0.043
2.285,0.028
2.290,0.012
2.295,-0.008
2.300,-0.028
2.305,-0.048
2.310,-0.068
2.315,-0.093
2.320,-0.123
2.325,-0.147
2.330,-0.164
2.335,-0.180
2.340,-0.200
2.345,-0.218
2.350,-0.229
2.355,-0.236
2.360,-0.240
2.365,-0.230
2.370,-0.209
2.375,-0.181
2.380,-0.128
2.385,-0.058
2.390,0.010
2.395,0.073
2.400,0.127
2.405,0.173
2.410,0.213
2.415,0.246
2.420,0.264
2.425,0.268
2.430,0.270
2.435,0.269
2.440,0.262
2.445,0.254
2.450,0.249
2.455,0.243
2.460,0.231
2.465,0.218
2.470,0.202
2.475,0.187
2.480,0.177
2.485,0.163
2.490,0.151
2.495,0.142
2.500,0.134
2.505,0.125
2.510,0.114
2.515,0.105
2.520,0.095
2.525,0.082
2.530,0.073
2.535,0.064
2.540,0.059
2.545,0.053
2.550,0.046
2.555,0.039
2.560,0.033
2.565,0.029
2.570,0.023
2.575,0.018
2.580,0.019
2.585,0.013
2.590,0.005
2.595,0.003
2.600,0.001
2.605,-0.002
2.610,-0.007
2.615,-0.009
2.620,-0.009
2.625,-0.009
2.630,-0.009
2.635,-0.018
2.640,-0.025
2.645,-0.030
2.650,-0.031
2.655,-0.031
2.660,-0.032
2.665,-0.030
2.670,-0.029
2.675,-0.033
2.680,-0.036
2.685,-0.040
2.690,-0.046
2.695,-0.048
2.700,-0.044
2.705,-0.044
2.710,-0.048
2.715,-0.047
2.720,-0.048
2.725,-0.051
2.730,-0.051
2.735,-0.052
2.740,-0.055
2.745,-0.057
2.750,-0.065
2.755,-0.086
2.760,-0.119
2.765,-0.137
2.770,-0.141
2.775,-0.146
2.780,-0.145
2.785,-0.137
2.790,-0.128
2.795,-0.132
2.800,-0.147
2.805,-0.144
2.810,-0.118
2.815,-0.085
2.820,-0.066
2.825,-0.058
2.830,-0.035
2.835,-0.005
2.840,0.017
2.845,0.034
2.850,0.042
2.855,0.041
2.860,0.044
2.865,0.047
2.870,0.040
2.875,0.034
2.880,0.034
2.885,0.035
2.890,0.035
2.895,0.039
2.900,0.077
2.905,0.136
2.910,0.142
2.915,0.039
2.920,-0.221
2.925,-0.630
2.930,-1.073
2.935,-1.471
2.940,-1.685
2.945,-1.437
2.950,-0.859
2.955,-0.351
2.960,-0.019
2.965,0.147
2.970,0.250
2.975,0.339
2.980,0.348
2.985,0.342
2.990,0.368
2.995,0.366
3.000,0.343
3.005,0.346
3.010,0.343
3.015,0.316
3.020,0.301
3.025,0.295
3.030,0.278
3.035,0.263
3.040,0.254
3.045,0.236
3.050,0.216
3.055,0.203
3.060,0.189
3.065,0.174
3.070,0.163
3.075,0.151
3.080,0.138
3.085,0.120
3.090,0.108
3.095,0.099
3.100,0.087
3.105,0.070
3.110,0.048
3.115,0.034
3.120,0.022
3.125,0.005
3.130,-0.015
3.135,-0.037
3.140,-0.057
3.145,-0.077
3.150,-0.097
3.155,-0.116
3.160,-0.142
3.165,-0.169
3.170,-0.191
3.175,-0.207
3.180,-0.219
3.185,-0.232
3.190,-0.240
3.195,-0.236
3.200,-0.222
3.205,-0.198
3.210,-0.161
3.215,-0.110
3.220,-0.053
3.225,0.008
3.230,0.073
3.235,0.132
3.240,0.180
3.245,0.218
3.250,0.246
3.255,0.261
3.260,0.264
3.265,0.267
3.270,0.267
3.275,0.262
3.280,0.259
3.285,0.252
3.290,0.240
3.295,0.226
3.300,0.216
3.305,0.204
3.310,0.187
3.315,0.175
3.320,0.163
3.325,0.152
3.330,0.146
3.335,0.133
3.340,0.117
3.345,0.106
3.350,0.098
3.355,0.090
3.360,0.084
3.365,0.076
3.370,0.065
3.375,0.056
3.380,0.053
3.385,0.048
3.390,0.038
3.395,0.027
3.400,0.024
3.405,0.025
3.410,0.024
3.415,0.027
3.420,0.024
3.425,0.011
3.430,0.004
3.435,0.000
3.440,-0.004
3.445,-0.006
3.450,-0.009
3.455,-0.012
3.460,-0.012
3.465,-0.010
3.470,-0.012
3.475,-0.017
3.480,-0.025
3.485,-0.035
3.490,-0.036
3.495,-0.034
3.500,-0.031
3.505,-0.030
3.510,-0.033
3.515,-0.032
3.520,-0.033
3.525,-0.039
3.530,-0.046
3.535,-0.051
3.540,-0.052
3.545,-0.049
3.550,-0.049
3.555,-0.050
3.560,-0.048
3.565,-0.045
3.570,-0.052
3.575,-0.060
3.580,-0.060
3.585,-0.059
3.590,-0.057
3.595,-0.057
3.600,-0.056
3.605,-0.061
3.610,-0.082
3.615,-0.113
3.620,-0.135
3.625,-0.140
3.630,-0.135
3.635,-0.122
3.640,-0.119
3.645,-0.134
3.650,-0.145
3.655,-0.152
3.660,-0.143
3.665,-0.112
3.670,-0.084
3.675,-0.062
3.680,-0.041
3.685,-0.021
3.690,-0.002
3.695,0.016
3.700,0.035
3.705,0.042
3.710,0.039
3.715,0.039
3.720,0.033
3.725,0.031
3.730,0.037
3.735,0.035
3.740,0.031
3.745,0.033
3.750,0.038
3.755,0.072
3.760,0.131
3.765,0.158
3.770,0.070
3.775,-0.199
3.780,-0.620
3.785,-1.061
3.790,-1.439
3.795,-1.626
3.800,-1.366
3.805,-0.813
3.810,-0.330
3.815,-0.011
3.820,0.132
3.825,0.222
3.830,0.312
3.835,0.323
3.840,0.319
3.845,0.347
3.850,0.343
3.855,0.321
3.860,0.329
3.865,0.329
3.870,0.303
3.875,0.289
3.880,0.281
3.885,0.258
3.890,0.243
3.895,0.242
3.900,0.226
3.905,0.205
3.910,0.196
3.915,0.194
3.920,0.182
3.925,0.163
3.930,0.149
3.935,0.135
3.940,0.120
3.945,0.111
3.950,0.105
3.955,0.089
3.960,0.064
3.965,0.044
3.970,0.032
3.975,0.022
3.980,0.005
3.985,-0.017
3.990,-0.033
3.995,-0.050
4.000,-0.077
4.005,-0.101
4.010,-0.121
4.015,-0.138
4.020,-0.157
4.025,-0.181
4.030,-0.197
4.035,-0.209
4.040,-0.227
4.045,-0.240
4.050,-0.239
4.055,-0.230
4.060,-0.203
4.065,-0.158
4.070,-0.108
4.075,-0.048
4.080,0.020
4.085,0.082
4.090,0.139
4.095,0.189
4.100,0.224
4.105,0.247
4.110,0.264
4.115,0.280
4.120,0.284
4.125,0.277
4.130,0.270
4.135,0.258
4.140,0.253
4.145,0.250
4.150,0.239
4.155,0.222
4.160,0.199
4.165,0.188
4.170,0.188
4.175,0.178
4.180,0.161
4.185,0.144
4.190,0.135
4.195,0.130
4.200,0.123
4.205,0.113
4.210,0.097
4.215,0.087
4.220,0.081
4.225,0.073
4.230,0.069
4.235,0.063
4.240,0.053
4.245,0.044
4.250,0.034
4.255,0.025
4.260,0.019
4.265,0.023
4.270,0.020
4.275,0.009
4.280,0.004
4.285,0.006
4.290,0.008
4.295,0.004
4.300,-0.001
4.305,-0.005
4.310,-0.007
4.315,-0.013
4.320,-0.023
4.325,-0.023
4.330,-0.021
4.335,-0.026
4.340,-0.030
4.345,-0.029
4.350,-0.024
4.355,-0.028
4.360,-0.042
4.365,-0.043
4.370,-0.039
4.375,-0.041
4.380,-0.041
4.385,-0.041
4.390,-0.046
4.395,-0.051
4.400,-0.057
4.405,-0.061
4.410,-0.063
4.415,-0.082
4.420,-0.115
4.425,-0.130
4.430,-0.129
4.435,-0.126
4.440,-0.118
4.445,-0.119
4.450,-0.133
4.455,-0.158
4.460,-0.180
4.465,-0.169
4.470,-0.126
4.475,-0.079
4.480,-0.048
4.485,-0.025
4.490,-0.008
4.495,0.002
4.500,0.017
4.505,0.025
4.510,0.021
4.515,0.025
4.520,0.027
4.525,0.024
4.530,0.030
4.535,0.029
4.540,0.023
4.545,0.024
4.550,0.024
4.555,0.027
4.560,0.065
4.565,0.127
4.570,0.146
4.575,0.033
4.580,-0.286
4.585,-0.750
4.590,-1.205
4.595,-1.540
4.600,-1.587
4.605,-1.208
4.610,-0.644
4.615,-0.182
4.620,0.077
4.625,0.160
4.630,0.234
4.635,0.298
4.640,0.294
4.645,0.304
4.650,0.324
4.655,0.309
4.660,0.299
4.665,0.309
4.670,0.304
4.675,0.287
4.680,0.272
4.685,0.254
4.690,0.238
4.695,0.230
4.700,0.223
4.705,0.207
4.710,0.189
4.715,0.180
4.720,0.170
4.725,0.157
4.730,0.144
4.735,0.127
4.740,0.112
4.745,0.102
4.750,0.093
4.755,0.080
4.760,0.066
4.765,0.058
4.770,0.045
4.775,0.021
4.780,-0.001
4.785,-0.019
4.790,-0.035
4.795,-0.049
4.800,-0.063
4.805,-0.083
4.810,-0.108
4.815,-0.131
4.820,-0.153
4.825,-0.174
4.830,-0.191
4.835,-0.206
4.840,-0.219
4.845,-0.227
4.850,-0.227
4.855,-0.224
4.860,-0.213
4.865,-0.185
4.870,-0.140
4.875,-0.075
4.880,-0.002
4.885,0.062
4.890,0.122
4.895,0.175
4.900,0.215
4.905,0.241
4.910,0.260
4.915,0.277
4.920,0.287
4.925,0.284
4.930,0.279
4.935,0.277
4.940,0.273
4.945,0.264
4.950,0.248
4.955,0.232
4.960,0.216
4.965,0.205
4.970,0.198
4.975,0.188
4.980,0.179
4.985,0.168
4.990,0.153
4.995,0.141
5.000,0.129
5.005,0.115
5.010,0.107
5.015,0.104
5.020,0.093
5.025,0.083
5.030,0.079
5.035,0.070
5.040,0.061
5.045,0.057
5.050,0.050
5.055,0.043
5.060,0.038
5.065,0.033
5.070,0.027
5.075,0.022
5.080,0.021
5.085,0.021
5.090,0.014
5.095,0.006
5.100,0.005
5.105,0.003
5.110,0.000
5.115,-0.004
5.120,-0.009
5.125,-0.017
5.130,-0.019
5.135,-0.020
5.140,-0.021
5.145,-0.022
5.150,-0.024
5.155,-0.026
5.160,-0.028
5.165,-0.028
5.170,-0.037
5.175,-0.046
5.180,-0.043
5.185,-0.044
5.190,-0.054
5.195,-0.072
5.200,-0.102
5.205,-0.126
5.210,-0.131
5.215,-0.126
5.220,-0.124
5.225,-0.127
5.230,-0.132
5.235,-0.142
5.240,-0.156
5.245,-0.159
5.250,-0.137
5.255,-0.103
5.260,-0.078
5.265,-0.053
5.270,-0.027
5.275,-0.008
5.280,0.012
5.285,0.028
5.290,0.034
5.295,0.033
5.300,0.030
5.305,0.028
5.310,0.026
5.315,0.027
5.320,0.024
5.325,0.018
5.330,0.021
5.335,0.025
5.340,0.053
5.345,0.117
5.350,0.161
5.355,0.106
5.360,-0.130
5.365,-0.548
5.370,-1.024
5.375,-1.446
5.380,-1.710
5.385,-1.563
5.390,-1.019
5.395,-0.457
5.400,-0.066
5.405,0.119
5.410,0.203
5.415,0.302
5.420,0.329
5.425,0.313
5.430,0.342
5.435,0.349
5.440,0.324
5.445,0.322
5.450,0.326
5.455,0.309
5.460,0.292
5.465,0.285
5.470,0.263
5.475,0.243
5.480,0.238
5.485,0.223
5.490,0.205
5.495,0.198
5.500,0.190
5.505,0.171
5.510,0.148
5.515,0.134
5.520,0.124
5.525,0.112
5.530,0.102
5.535,0.088
5.540,0.073
5.545,0.063
5.550,0.051
5.555,0.030
5.560,0.009
5.565,-0.007
5.570,-0.023
5.575,-0.041
5.580,-0.060
5.585,-0.083
5.590,-0.108
5.595,-0.134
5.600,-0.157
5.605,-0.175
5.610,-0.189
5.615,-0.202
5.620,-0.217
5.625,-0.233
5.630,-0.240
5.635,-0.240
5.640,-0.230
5.645,-0.204
5.650,-0.161
5.655,-0.109
5.660,-0.051
5.665,0.017
5.670,0.081
5.675,0.133
5.680,0.182
5.685,0.223
5.690,0.246
5.695,0.256
5.700,0.263
5.705,0.268
5.710,0.269
5.715,0.264
5.720,0.253
5.725,0.243
5.730,0.239
5.735,0.233
5.740,0.214
5.745,0.194
5.750,0.183
5.755,0.173
5.760,0.165
5.765,0.159
5.770,0.151
5.775,0.140
5.780,0.122
5.785,0.105
5.790,0.096
5.795,0.092
5.800,0.084
5.805,0.072
5.810,0.061
5.815,0.053
5.820,0.046
5.825,0.042
5.830,0.039
5.835,0.029
5.840,0.018
5.845,0.013
5.850,0.009
5.855,0.005
5.860,0.003
5.865,0.006
5.870,0.004
5.875,-0.004
5.880,-0.007
5.885,-0.007
5.890,-0.013
5.895,-0.018
5.900,-0.018
5.905,-0.020
5.910,-0.019
5.915,-0.018
5.920,-0.023
5.925,-0.028
5.930,-0.031
5.935,-0.034
5.940,-0.034
5.945,-0.036
5.950,-0.034
5.955,-0.037
5.960,-0.040
5.965,-0.041
5.970,-0.047
5.975,-0.058
5.980,-0.076
5.985,-0.106
5.990,-0.127
5.995,-0.132
6.000,-0.135
6.005,-0.137
6.010,-0.136
6.015,-0.133
6.020,-0.138
6.025,-0.149
6.030,-0.146
6.035,-0.125
6.040,-0.093
6.045,-0.069
6.050,-0.054
6.055,-0.034
6.060,-0.012
6.065,0.013
6.070,0.031
6.075,0.038
6.080,0.043
6.085,0.044
6.090,0.040
6.095,0.036
6.100,0.035
6.105,0.030
6.110,0.028
6.115,0.030
6.120,0.031
6.125,0.057
6.130,0.121
6.135,0.150
6.140,0.075
6.145,-0.138
6.150,-0.513
6.155,-0.971
6.160,-1.404
6.165,-1.707
6.170,-1.611
6.175,-1.084
6.180,-0.513
6.185,-0.111
6.190,0.109
6.195,0.216
6.200,0.315
6.205,0.353
6.210,0.339
6.215,0.368
6.220,0.379
6.225,0.345
6.230,0.339
6.235,0.350
6.240,0.333
6.245,0.313
6.250,0.306
6.255,0.288
6.260,0.266
6.265,0.253
6.270,0.237
6.275,0.219
6.280,0.210
6.285,0.200
6.290,0.181
6.295,0.165
6.300,0.157
6.305,0.143
6.310,0.128
6.315,0.119
6.320,0.101
6.325,0.080
6.330,0.066
6.335,0.054
6.340,0.039
6.345,0.021
6.350,0.009
6.355,-0.005
6.360,-0.029
6.365,-0.056
6.370,-0.081
6.375,-0.104
6.380,-0.122
6.385,-0.143
6.390,-0.167
6.395,-0.183
6.400,-0.197
6.405,-0.218
6.410,-0.236
6.415,-0.240
6.420,-0.240
6.425,-0.234
6.430,-0.212
6.435,-0.175
6.440,-0.124
6.445,-0.062
6.450,0.006
6.455,0.070
6.460,0.126
6.465,0.179
6.470,0.219
6.475,0.238
6.480,0.253
6.485,0.263
6.490,0.267
6.495,0.266
6.500,0.263
6.505,0.256
6.510,0.247
6.515,0.237
6.520,0.223
6.525,0.211
6.530,0.200
6.535,0.187
6.540,0.177
6.545,0.166
6.550,0.154
6.555,0.143
6.560,0.131
6.565,0.123
6.570,0.111
6.575,0.098
6.580,0.093
6.585,0.084
6.590,0.072
6.595,0.065
6.600,0.060
6.605,0.054
6.610,0.045
6.615,0.039
6.620,0.034
6.625,0.030
6.630,0.028
6.635,0.021
6.640,0.013
6.645,0.008
6.650,0.007
6.655,0.006
6.660,0.003
6.665,0.004
6.670,-0.001
6.675,-0.011
6.680,-0.013
6.685,-0.015
6.690,-0.017
6.695,-0.016
6.700,-0.016
6.705,-0.016
6.710,-0.019
6.715,-0.025
6.720,-0.032
6.725,-0.037
6.730,-0.036
6.735,-0.033
6.740,-0.031
6.745,-0.036
6.750,-0.043
6.755,-0.045
6.760,-0.044
6.765,-0.042
6.770,-0.044
6.775,-0.049
6.780,-0.048
6.785,-0.048
6.790,-0.052
6.795,-0.064
6.800,-0.087
6.805,-0.119
6.810,-0.137
6.815,-0.138
6.820,-0.140
6.825,-0.140
6.830,-0.133
6.835,-0.128
6.840,-0.136
6.845,-0.147
6.850,-0.140
6.855,-0.116
6.860,-0.086
6.865,-0.067
6.870,-0.055
6.875,-0.030
6.880,0.002
6.885,0.023
6.890,0.036
6.895,0.041
6.900,0.042
6.905,0.041
6.910,0.037
6.915,0.038
6.920,0.040
6.925,0.038
6.930,0.040
6.935,0.038
6.940,0.034
6.945,0.067
6.950,0.130
6.955,0.141
6.960,0.033
6.965,-0.234
6.970,-0.646
6.975,-1.096
6.980,-1.495
6.985,-1.694
6.990,-1.421
6.995,-0.834
7.000,-0.334
7.005,-0.008
7.010,0.155
7.015,0.253
7.020,0.333
7.025,0.331
7.030,0.327
7.035,0.364
7.040,0.364
7.045,0.340
7.050,0.346
7.055,0.342
7.060,0.307
7.065,0.296
7.070,0.294
7.075,0.271
7.080,0.254
7.085,0.247
7.090,0.231
7.095,0.214
7.100,0.204
7.105,0.190
7.110,0.168
7.115,0.155
7.120,0.147
7.125,0.132
7.130,0.121
7.135,0.108
7.140,0.093
7.145,0.081
7.150,0.066
7.155,0.047
7.160,0.032
7.165,0.019
7.170,0.003
7.175,-0.016
7.180,-0.034
7.185,-0.056
7.190,-0.084
7.195,-0.107
7.200,-0.125
7.205,-0.147
7.210,-0.170
7.215,-0.188
7.220,-0.205
7.225,-0.219
7.230,-0.228
7.235,-0.233
7.240,-0.233
7.245,-0.224
7.250,-0.202
7.255,-0.164
7.260,-0.109
7.265,-0.042
7.270,0.024
7.275,0.086
7.280,0.144
7.285,0.191
7.290,0.226
7.295,0.246
7.300,0.255
7.305,0.263
7.310,0.268
7.315,0.270
7.320,0.267
7.325,0.259
7.330,0.254
7.335,0.239
7.340,0.217
7.345,0.206
7.350,0.200
7.355,0.188
7.360,0.172
7.365,0.162
7.370,0.153
7.375,0.141
7.380,0.135
7.385,0.126
7.390,0.107
7.395,0.093
7.400,0.087
7.405,0.083
7.410,0.076
7.415,0.067
7.420,0.058
7.425,0.050
7.430,0.046
7.435,0.043
7.440,0.037
7.445,0.029
7.450,0.023
7.455,0.022
7.460,0.021
7.465,0.018
7.470,0.009
7.475,0.002
7.480,0.001
7.485,-0.001
7.490,-0.002
7.495,-0.007
7.500,-0.014
7.505,-0.016
7.510,-0.016
7.515,-0.016
7.520,-0.022
7.525,-0.029
7.530,-0.029
7.535,-0.028
7.540,-0.029
7.545,-0.032
7.550,-0.034
7.555,-0.037
7.560,-0.041
7.565,-0.041
7.570,-0.043
7.575,-0.044
7.580,-0.043
7.585,-0.049
7.590,-0.054
7.595,-0.053
7.600,-0.051
7.605,-0.051
7.610,-0.054
7.615,-0.053
7.620,-0.051
7.625,-0.056
7.630,-0.062
7.635,-0.071
7.640,-0.083
7.645,-0.104
7.650,-0.128
7.655,-0.140
7.660,-0.144
7.665,-0.139
7.670,-0.133
7.675,-0.134
7.680,-0.136
7.685,-0.149
7.690,-0.157
7.695,-0.138
7.700,-0.103
7.705,-0.073
7.710,-0.058
7.715,-0.040
7.720,-0.012
7.725,0.006
7.730,0.021
7.735,0.034
7.740,0.040
7.745,0.044
7.750,0.043
7.755,0.038
7.760,0.040
7.765,0.041
7.770,0.034
7.775,0.029
7.780,0.034
7.785,0.053
7.790,0.107
7.795,0.155
7.800,0.121
7.805,-0.049
7.810,-0.392
7.815,-0.826
7.820,-1.249
7.825,-1.587
7.830,-1.578
7.835,-1.114
7.840,-0.561
7.845,-0.162
7.850,0.070
7.855,0.178
7.860,0.284
7.865,0.337
7.870,0.316
7.875,0.337
7.880,0.364
7.885,0.337
7.890,0.323
7.895,0.332
7.900,0.312
7.905,0.292
7.910,0.290
7.915,0.276
7.920,0.252
7.925,0.242
7.930,0.236
7.935,0.217
7.940,0.196
7.945,0.185
7.950,0.174
7.955,0.161
7.960,0.149
7.965,0.138
7.970,0.126
7.975,0.114
7.980,0.103
7.985,0.088
7.990,0.071
7.995,0.054
8.000,0.044
8.005,0.037
8.010,0.019
8.015,-0.004
8.020,-0.025
8.025,-0.044
8.030,-0.063
8.035,-0.087
8.040,-0.107
8.045,-0.126
8.050,-0.153
8.055,-0.176
8.060,-0.189
8.065,-0.197
8.070,-0.210
8.075,-0.225
8.080,-0.229
8.085,-0.222
8.090,-0.207
8.095,-0.179
8.100,-0.130
8.105,-0.070
8.110,-0.009
8.115,0.054
8.120,0.108
8.125,0.156
8.130,0.202
8.135,0.236
8.140,0.254
8.145,0.267
8.150,0.271
8.155,0.269
8.160,0.267
8.165,0.266
8.170,0.259
8.175,0.245
8.180,0.233
8.185,0.218
8.190,0.203
8.195,0.195
8.200,0.185
8.205,0.172
8.210,0.158
8.215,0.150
8.220,0.145
8.225,0.131
8.230,0.120
8.235,0.109
8.240,0.097
8.245,0.091
8.250,0.086
8.255,0.078
8.260,0.068
8.265,0.062
8.270,0.054
8.275,0.044
8.280,0.041
8.285,0.033
8.290,0.025
8.295,0.025
8.300,0.024
8.305,0.019
8.310,0.014
8.315,0.012
8.320,0.009
8.325,0.006
8.330,0.002
8.335,-0.004
8.340,-0.009
8.345,-0.013
8.350,-0.016
8.355,-0.021
8.360,-0.023
8.365,-0.022
8.370,-0.021
8.375,-0.022
8.380,-0.022
8.385,-0.026
8.390,-0.031
8.395,-0.035
8.400,-0.039
8.405,-0.043
8.410,-0.044
8.415,-0.041
8.420,-0.040
8.425,-0.043
8.430,-0.044
8.435,-0.045
8.440,-0.052
8.445,-0.057
8.450,-0.055
8.455,-0.050
8.460,-0.053
8.465,-0.060
8.470,-0.081
8.475,-0.111
8.480,-0.128
8.485,-0.136
8.490,-0.142
8.495,-0.134
8.500,-0.123
8.505,-0.129
8.510,-0.149
8.515,-0.166
8.520,-0.163
8.525,-0.136
8.530,-0.097
8.535,-0.066
8.540,-0.041
8.545,-0.016
8.550,-0.005
8.555,0.009
8.560,0.028
8.565,0.035
8.570,0.035
8.575,0.028
8.580,0.028
8.585,0.037
8.590,0.044
8.595,0.042
8.600,0.033
8.605,0.024
8.610,0.022
8.615,0.055
8.620,0.114
8.625,0.153
8.630,0.105
8.635,-0.137
8.640,-0.561
8.645,-1.024
8.650,-1.405
8.655,-1.576
8.660,-1.346
8.665,-0.825
8.670,-0.335
8.675,-0.005
8.680,0.132
8.685,0.198
8.690,0.275
8.695,0.292
8.700,0.294
8.705,0.314
8.710,0.310
8.715,0.305
8.720,0.313
8.725,0.305
8.730,0.286
8.735,0.271
8.740,0.261
8.745,0.252
8.750,0.242
8.755,0.227
8.760,0.206
8.765,0.192
8.770,0.180
8.775,0.168
8.780,0.161
8.785,0.151
8.790,0.136
8.795,0.121
8.800,0.108
8.805,0.095
8.810,0.078
8.815,0.063
8.820,0.055
8.825,0.044
8.830,0.028
8.835,0.011
8.840,-0.003
8.845,-0.021
8.850,-0.042
8.855,-0.065
8.860,-0.087
8.865,-0.099
8.870,-0.117
8.875,-0.146
8.880,-0.170
8.885,-0.190
8.890,-0.205
8.895,-0.213
8.900,-0.221
8.905,-0.232
8.910,-0.235
8.915,-0.226
8.920,-0.202
8.925,-0.163
8.930,-0.108
8.935,-0.040
8.940,0.029
8.945,0.091
8.950,0.145
8.955,0.192
8.960,0.230
8.965,0.261
8.970,0.277
8.975,0.283
8.980,0.286
8.985,0.285
8.990,0.278
8.995,0.272
9.000,0.263
9.005,0.252
9.010,0.241
9.015,0.226
9.020,0.209
9.025,0.198
9.030,0.190
9.035,0.178
9.040,0.165
9.045,0.152
9.050,0.140
9.055,0.130
9.060,0.123
9.065,0.117
9.070,0.103
9.075,0.091
9.080,0.089
9.085,0.085
9.090,0.077
9.095,0.065
9.100,0.055
9.105,0.050
9.110,0.045
9.115,0.041
9.120,0.032
9.125,0.023
9.130,0.022
9.135,0.020
9.140,0.014
9.145,0.011
9.150,0.011
9.155,0.008
9.160,0.003
9.165,-0.001
9.170,-0.006
9.175,-0.011
9.180,-0.012
9.185,-0.012
9.190,-0.017
9.195,-0.021
9.200,-0.019
9.205,-0.022
9.210,-0.032
9.215,-0.035
9.220,-0.035
9.225,-0.035
9.230,-0.035
9.235,-0.036
9.240,-0.037
9.245,-0.041
9.250,-0.047
9.255,-0.051
9.260,-0.055
9.265,-0.058
9.270,-0.074
9.275,-0.102
9.280,-0.121
9.285,-0.129
9.290,-0.132
9.295,-0.133
9.300,-0.133
9.305,-0.134
9.310,-0.145
9.315,-0.159
9.320,-0.164
9.325,-0.147
9.330,-0.108
9.335,-0.076
9.340,-0.057
9.345,-0.029
9.350,-0.007
9.355,0.006
9.360,0.023
9.365,0.034
9.370,0.036
9.375,0.039
9.380,0.038
9.385,0.032
9.390,0.029
9.395,0.025
9.400,0.024
9.405,0.025
9.410,0.024
9.415,0.048
9.420,0.111
9.425,0.169
9.430,0.150
9.435,-0.050
9.440,-0.458
9.445,-0.934
9.450,-1.350
9.455,-1.631
9.460,-1.558
9.465,-1.070
9.470,-0.508
9.475,-0.106
9.480,0.095
9.485,0.179
9.490,0.278
9.495,0.327
9.500,0.313
9.505,0.325
9.510,0.338
9.515,0.322
9.520,0.320
9.525,0.322
9.530,0.304
9.535,0.289
9.540,0.285
9.545,0.269
9.550,0.246
9.555,0.237
9.560,0.224
9.565,0.206
9.570,0.195
9.575,0.184
9.580,0.170
9.585,0.156
9.590,0.142
9.595,0.129
9.600,0.116
9.605,0.101
9.610,0.088
9.615,0.079
9.620,0.065
9.625,0.048
9.630,0.035
9.635,0.018
9.640,0.000
9.645,-0.017
9.650,-0.036
9.655,-0.057
9.660,-0.077
9.665,-0.096
9.670,-0.123
9.675,-0.150
9.680,-0.165
9.685,-0.181
9.690,-0.200
9.695,-0.216
9.700,-0.227
9.705,-0.230
9.710,-0.230
9.715,-0.226
9.720,-0.211
9.725,-0.175
9.730,-0.120
9.735,-0.059
9.740,0.006
9.745,0.072
9.750,0.131
9.755,0.177
9.760,0.213
9.765,0.242
9.770,0.261
9.775,0.270
9.780,0.276
9.785,0.276
9.790,0.269
9.795,0.260
9.800,0.251
9.805,0.242
9.810,0.230
9.815,0.219
9.820,0.207
9.825,0.194
9.830,0.187
9.835,0.175
9.840,0.159
9.845,0.146
9.850,0.135
9.855,0.126
9.860,0.116
9.865,0.107
9.870,0.096
9.875,0.083
9.880,0.075
9.885,0.069
9.890,0.061
9.895,0.054
9.900,0.046
9.905,0.038
9.910,0.029
9.915,0.025
9.920,0.019
9.925,0.012
9.930,0.010
9.935,0.008
9.940,0.006
9.945,0.003
9.950,-0.003
9.955,-0.007
9.960,-0.009
9.965,-0.010
9.970,-0.012
9.975,-0.018
9.980,-0.020
9.985,-0.022
9.990,-0.022
9.995,-0.019
10.000,-0.023
10.005,-0.032
10.010,-0.034
10.015,-0.033
10.020,-0.035
10.025,-0.039
10.030,-0.038
10.035,-0.034
10.040,-0.035
10.045,-0.043
10.050,-0.050
10.055,-0.052
10.060,-0.052
10.065,-0.050
10.070,-0.049
10.075,-0.057
10.080,-0.070
10.085,-0.100
10.090,-0.135
10.095,-0.146
10.100,-0.141
10.105,-0.140
10.110,-0.139
10.115,-0.132
10.120,-0.129
10.125,-0.139
10.130,-0.147
10.135,-0.138
10.140,-0.107
10.145,-0.074
10.150,-0.060
10.155,-0.045
10.160,-0.018
10.165,0.006
10.170,0.026
10.175,0.038
10.180,0.040
10.185,0.039
10.190,0.038
10.195,0.037
10.200,0.039
10.205,0.037
10.210,0.033
10.215,0.034
10.220,0.031
10.225,0.042
10.230,0.101
10.235,0.148
10.240,0.107
10.245,-0.065
10.250,-0.408
10.255,-0.859
10.260,-1.302
10.265,-1.653
10.270,-1.673
10.275,-1.219
10.280,-0.624
10.285,-0.185
10.290,0.071
10.295,0.188
10.300,0.291
10.305,0.351
10.310,0.333
10.315,0.350
10.320,0.375
10.325,0.352
10.330,0.340
10.335,0.348
10.340,0.331
10.345,0.307
10.350,0.301
10.355,0.289
10.360,0.267
10.365,0.253
10.370,0.241
10.375,0.223
10.380,0.211
10.385,0.203
10.390,0.187
10.395,0.168
10.400,0.154
10.405,0.141
10.410,0.127
10.415,0.117
10.420,0.107
10.425,0.095
10.430,0.082
10.435,0.062
10.440,0.040
10.445,0.025
10.450,0.012
10.455,-0.005
10.460,-0.025
10.465,-0.043
10.470,-0.063
10.475,-0.084
10.480,-0.108
10.485,-0.138
10.490,-0.166
10.495,-0.182
10.500,-0.194
10.505,-0.210
10.510,-0.226
10.515,-0.234
10.520,-0.238
10.525,-0.234
10.530,-0.211
10.535,-0.183
10.540,-0.143
10.545,-0.083
10.550,-0.014
10.555,0.052
10.560,0.109
10.565,0.162
10.570,0.206
10.575,0.235
10.580,0.255
10.585,0.267
10.590,0.272
10.595,0.274
10.600,0.272
10.605,0.265
10.610,0.255
10.615,0.249
10.620,0.237
10.625,0.221
10.630,0.210
10.635,0.199
10.640,0.186
10.645,0.173
10.650,0.161
10.655,0.154
10.660,0.149
10.665,0.135
10.670,0.117
10.675,0.104
10.680,0.095
10.685,0.088
10.690,0.079
10.695,0.073
10.700,0.069
10.705,0.063
10.710,0.054
10.715,0.049
10.720,0.042
10.725,0.034
10.730,0.032
10.735,0.028
10.740,0.022
10.745,0.021
10.750,0.014
10.755,0.004
10.760,-0.001
10.765,0.001
10.770,0.001
10.775,-0.004
10.780,-0.006
10.785,-0.006
10.790,-0.008
10.795,-0.012
10.800,-0.018
10.805,-0.022
10.810,-0.023
10.815,-0.022
10.820,-0.024
10.825,-0.031
10.830,-0.034
10.835,-0.036
10.840,-0.037
10.845,-0.038
10.850,-0.040
10.855,-0.041
10.860,-0.042
10.865,-0.040
10.870,-0.044
10.875,-0.050
10.880,-0.049
10.885,-0.049
10.890,-0.050
10.895,-0.059
10.900,-0.074
10.905,-0.099
10.910,-0.130
10.915,-0.142
10.920,-0.144
10.925,-0.143
10.930,-0.135
10.935,-0.128
10.940,-0.127
10.945,-0.137
10.950,-0.150
10.955,-0.144
10.960,-0.113
10.965,-0.076
10.970,-0.060
10.975,-0.050
10.980,-0.022
10.985,0.003
10.990,0.021
10.995,0.035
11.000,0.039
11.005,0.042
11.010,0.045
11.015,0.041
11.020,0.036
11.025,0.032
11.030,0.031
11.035,0.031
11.040,0.028
11.045,0.040
11.050,0.091
11.055,0.142
11.060,0.124
11.065,-0.014
11.070,-0.323
11.075,-0.754
11.080,-1.192
11.085,-1.569
11.090,-1.668
11.095,-1.282
11.100,-0.696
11.105,-0.242
11.110,0.038
11.115,0.171
11.120,0.272
11.125,0.339
11.130,0.329
11.135,0.339
11.140,0.366
11.145,0.347
11.150,0.327
11.155,0.336
11.160,0.325
11.165,0.300
11.170,0.294
11.175,0.285
11.180,0.264
11.185,0.251
11.190,0.239
11.195,0.219
11.200,0.204
11.205,0.196
11.210,0.181
11.215,0.164
11.220,0.150
11.225,0.140
11.230,0.131
11.235,0.117
11.240,0.102
11.245,0.089
11.250,0.076
11.255,0.062
11.260,0.044
11.265,0.029
11.270,0.012
11.275,-0.008
11.280,-0.024
11.285,-0.043
11.290,-0.065
11.295,-0.086
11.300,-0.108
11.305,-0.130
11.310,-0.152
11.315,-0.174
11.320,-0.192
11.325,-0.206
11.330,-0.216
11.335,-0.227
11.340,-0.235
11.345,-0.232
11.350,-0.221
11.355,-0.195
11.360,-0.147
11.365,-0.086
11.370,-0.022
11.375,0.039
11.380,0.098
11.385,0.149
11.390,0.192
11.395,0.228
11.400,0.253
11.405,0.267
11.410,0.272
11.415,0.277
11.420,0.273
11.425,0.260
11.430,0.254
11.435,0.247
11.440,0.235
11.445,0.225
11.450,0.214
11.455,0.203
11.460,0.188
11.465,0.174
11.470,0.162
11.475,0.150
11.480,0.144
11.485,0.134
11.490,0.119
11.495,0.108
11.500,0.102
11.505,0.094
11.510,0.086
11.515,0.079
11.520,0.069
11.525,0.060
11.530,0.056
11.535,0.050
11.540,0.045
11.545,0.041
11.550,0.034
11.555,0.028
11.560,0.024
11.565,0.021
11.570,0.014
11.575,0.010
11.580,0.010
11.585,0.007
11.590,0.005
11.595,0.001
11.600,-0.005
11.605,-0.008
11.610,-0.012
11.615,-0.016
11.620,-0.016
11.625,-0.017
11.630,-0.017
11.635,-0.026
11.640,-0.036
11.645,-0.035
11.650,-0.033
11.655,-0.034
11.660,-0.038
11.665,-0.039
11.670,-0.036
11.675,-0.038
11.680,-0.041
11.685,-0.045
11.690,-0.049
11.695,-0.052
11.700,-0.051
11.705,-0.052
11.710,-0.053
11.715,-0.050
11.720,-0.050
11.725,-0.055
11.730,-0.059
11.735,-0.061
11.740,-0.071
11.745,-0.085
11.750,-0.114
11.755,-0.140
11.760,-0.142
11.765,-0.141
11.770,-0.141
11.775,-0.140
11.780,-0.133
11.785,-0.137
11.790,-0.151
11.795,-0.150
11.800,-0.128
11.805,-0.093
11.810,-0.068
11.815,-0.054
11.820,-0.026
11.825,-0.002
11.830,0.014
11.835,0.028
11.840,0.035
11.845,0.040
11.850,0.041
11.855,0.036
11.860,0.038
11.865,0.045
11.870,0.039
11.875,0.026
11.880,0.026
11.885,0.029
11.890,0.058
11.895,0.119
11.900,0.154
11.905,0.088
11.910,-0.140
11.915,-0.528
11.920,-0.965
11.925,-1.363
11.930,-1.617
11.935,-1.447
11.940,-0.914
11.945,-0.406
11.950,-0.060
11.955,0.114
11.960,0.211
11.965,0.307
11.970,0.320
11.975,0.310
11.980,0.350
11.985,0.353
11.990,0.320
11.995,0.319
12.000,0.321
12.005,0.297
12.010,0.285
12.015,0.282
12.020,0.264
12.025,0.248
12.030,0.239
12.035,0.218
12.040,0.197
12.045,0.191
12.050,0.182
12.055,0.163
12.060,0.149
12.065,0.144
12.070,0.130
12.075,0.114
12.080,0.102
12.085,0.089
12.090,0.076
12.095,0.066
12.100,0.053
12.105,0.035
12.110,0.017
12.115,0.003
12.120,-0.013
12.125,-0.034
12.130,-0.051
12.135,-0.073
12.140,-0.099
12.145,-0.121
12.150,-0.142
12.155,-0.162
12.160,-0.180
12.165,-0.192
12.170,-0.207
12.175,-0.223
12.180,-0.229
12.185,-0.229
12.190,-0.222
12.195,-0.203
12.200,-0.168
12.205,-0.117
12.210,-0.058
12.215,0.011
12.220,0.078
12.225,0.130
12.230,0.175
12.235,0.212
12.240,0.241
12.245,0.263
12.250,0.270
12.255,0.277
12.260,0.283
12.265,0.273
12.270,0.261
12.275,0.252
12.280,0.245
12.285,0.236
12.290,0.223
12.295,0.211
12.300,0.197
12.305,0.183
12.310,0.171
12.315,0.162
12.320,0.153
12.325,0.140
12.330,0.131
12.335,0.123
12.340,0.109
12.345,0.100
12.350,0.096
12.355,0.086
12.360,0.074
12.365,0.068
12.370,0.061
12.375,0.054
12.380,0.053
12.385,0.047
12.390,0.038
12.395,0.036
12.400,0.029
12.405,0.020
12.410,0.017
12.415,0.014
12.420,0.012
12.425,0.008
12.430,0.006
12.435,0.006
12.440,0.003
12.445,-0.002
12.450,-0.009
12.455,-0.013
12.460,-0.014
12.465,-0.013
12.470,-0.016
12.475,-0.021
12.480,-0.019
12.485,-0.023
12.490,-0.032
12.495,-0.032
12.500,-0.032
12.505,-0.034
12.510,-0.038
12.515,-0.041
12.520,-0.041
12.525,-0.043
12.530,-0.039
12.535,-0.038
12.540,-0.045
12.545,-0.050
12.550,-0.054
12.555,-0.056
12.560,-0.054
12.565,-0.052
12.570,-0.050
12.575,-0.051
12.580,-0.054
12.585,-0.064
12.590,-0.078
12.595,-0.098
12.600,-0.125
12.605,-0.143
12.610,-0.146
12.615,-0.139
12.620,-0.128
12.625,-0.126
12.630,-0.135
12.635,-0.150
12.640,-0.156
12.645,-0.143
12.650,-0.110
12.655,-0.074
12.660,-0.051
12.665,-0.037
12.670,-0.022
12.675,-0.005
12.680,0.016
12.685,0.035
12.690,0.041
12.695,0.043
12.700,0.042
12.705,0.038
12.710,0.035
12.715,0.035
12.720,0.032
12.725,0.028
12.730,0.030
12.735,0.039
12.740,0.082
12.745,0.142
12.750,0.146
12.755,0.021
12.760,-0.282
12.765,-0.701
12.770,-1.123
12.775,-1.480
12.780,-1.571
12.785,-1.207
12.790,-0.661
12.795,-0.245
12.800,0.012
12.805,0.137
12.810,0.244
12.815,0.317
12.820,0.302
12.825,0.312
12.830,0.343
12.835,0.323
12.840,0.304
12.845,0.317
12.850,0.308
12.855,0.283
12.860,0.275
12.865,0.266
12.870,0.243
12.875,0.229
12.880,0.223
12.885,0.203
12.890,0.187
12.895,0.184
12.900,0.173
12.905,0.156
12.910,0.143
12.915,0.127
12.920,0.108
12.925,0.100
12.930,0.099
12.935,0.087
12.940,0.068
12.945,0.051
12.950,0.039
12.955,0.023
12.960,0.005
12.965,-0.009
12.970,-0.024
12.975,-0.042
12.980,-0.058
12.985,-0.081
12.990,-0.108
12.995,-0.130
13.000,-0.150
13.005,-0.171
13.010,-0.187
13.015,-0.201
13.020,-0.216
13.025,-0.226
13.030,-0.228
13.035,-0.222
13.040,-0.210
13.045,-0.190
13.050,-0.150
13.055,-0.094
13.060,-0.033
13.065,0.028
13.070,0.087
13.075,0.145
13.080,0.197
13.085,0.227
13.090,0.244
13.095,0.262
13.100,0.274
13.105,0.278
13.110,0.274
13.115,0.269
13.120,0.264
13.125,0.254
13.130,0.241
13.135,0.226
13.140,0.214
13.145,0.205
13.150,0.191
13.155,0.174
13.160,0.163
13.165,0.156
13.170,0.146
13.175,0.132
13.180,0.126
13.185,0.120
13.190,0.108
13.195,0.100
13.200,0.095
13.205,0.084
13.210,0.073
13.215,0.067
13.220,0.065
13.225,0.060
13.230,0.052
13.235,0.042
13.240,0.033
13.245,0.026
13.250,0.018
13.255,0.015
13.260,0.019
13.265,0.017
13.270,0.011
13.275,0.007
13.280,0.006
13.285,0.001
13.290,-0.005
13.295,-0.004
13.300,-0.005
13.305,-0.010
13.310,-0.016
13.315,-0.017
13.320,-0.012
13.325,-0.016
13.330,-0.026
13.335,-0.034
13.340,-0.039
13.345,-0.040
13.350,-0.042
13.355,-0.045
13.360,-0.043
13.365,-0.038
13.370,-0.038
13.375,-0.041
13.380,-0.040
13.385,-0.046
13.390,-0.053
13.395,-0.054
13.400,-0.053
13.405,-0.054
13.410,-0.059
13.415,-0.062
13.420,-0.063
13.425,-0.062
13.430,-0.062
13.435,-0.067
13.440,-0.085
13.445,-0.113
13.450,-0.134
13.455,-0.143
13.460,-0.142
13.465,-0.131
13.470,-0.124
13.475,-0.134
13.480,-0.150
13.485,-0.162
13.490,-0.159
13.495,-0.127
13.500,-0.088
13.505,-0.065
13.510,-0.037
13.515,-0.007
13.520,0.004
13.525,0.010
13.530,0.023
13.535,0.035
13.540,0.040
13.545,0.039
13.550,0.037
13.555,0.037
13.560,0.032
13.565,0.026
13.570,0.022
13.575,0.024
13.580,0.039
13.585,0.073
13.590,0.121
13.595,0.149
13.600,0.064
13.605,-0.218
13.610,-0.656
13.615,-1.111
13.620,-1.458
13.625,-1.537
13.630,-1.214
13.635,-0.690
13.640,-0.237
13.645,0.039
13.650,0.141
13.655,0.212
13.660,0.278
13.665,0.292
13.670,0.314
13.675,0.336
13.680,0.319
13.685,0.299
13.690,0.298
13.695,0.293
13.700,0.282
13.705,0.274
13.710,0.261
13.715,0.244
13.720,0.227
13.725,0.215
13.730,0.201
13.735,0.186
13.740,0.181
13.745,0.176
13.750,0.163
13.755,0.144
13.760,0.126
13.765,0.118
13.770,0.111
13.775,0.095
13.780,0.078
13.785,0.066
13.790,0.055
13.795,0.043
13.800,0.026
13.805,0.009
13.810,-0.009
13.815,-0.031
13.820,-0.053
13.825,-0.067
13.830,-0.082
13.835,-0.106
13.840,-0.127
13.845,-0.140
13.850,-0.159
13.855,-0.182
13.860,-0.199
13.865,-0.210
13.870,-0.220
13.875,-0.229
13.880,-0.227
13.885,-0.215
13.890,-0.193
13.895,-0.151
13.900,-0.093
13.905,-0.030
13.910,0.037
13.915,0.099
13.920,0.151
13.925,0.192
13.930,0.228
13.935,0.260
13.940,0.280
13.945,0.286
13.950,0.289
13.955,0.287
13.960,0.283
13.965,0.278
13.970,0.262
13.975,0.246
13.980,0.241
13.985,0.232
13.990,0.218
13.995,0.208
14.000,0.191
14.005,0.171
14.010,0.160
14.015,0.151
14.020,0.143
14.025,0.139
14.030,0.134
14.035,0.120
14.040,0.104
14.045,0.092
14.050,0.085
14.055,0.079
14.060,0.069
14.065,0.063
14.070,0.059
14.075,0.051
14.080,0.048
14.085,0.044
14.090,0.037
14.095,0.032
14.100,0.025
14.105,0.020
14.110,0.016
14.115,0.012
14.120,0.011
14.125,0.006
14.130,0.004
14.135,0.001
14.140,-0.005
14.145,-0.008
14.150,-0.011
14.155,-0.013
14.160,-0.013
14.165,-0.017
14.170,-0.024
14.175,-0.026
14.180,-0.019
14.185,-0.022
14.190,-0.035
14.195,-0.042
14.200,-0.044
14.205,-0.042
14.210,-0.042
14.215,-0.045
14.220,-0.049
14.225,-0.052
14.230,-0.057
14.235,-0.083
14.240,-0.121
14.245,-0.137
14.250,-0.138
14.255,-0.136
14.260,-0.132
14.265,-0.128
14.270,-0.134
14.275,-0.156
14.280,-0.172
14.285,-0.162
14.290,-0.125
14.295,-0.085
14.300,-0.057
14.305,-0.031
14.310,-0.011
14.315,0.001
14.320,0.019
14.325,0.030
14.330,0.035
14.335,0.033
14.340,0.024
14.345,0.025
14.350,0.029
14.355,0.026
14.360,0.022
14.365,0.019
14.370,0.018
14.375,0.031
14.380,0.081
14.385,0.146
14.390,0.163
14.395,0.037
14.400,-0.306
14.405,-0.781
14.410,-1.240
14.415,-1.579
14.420,-1.621
14.425,-1.226
14.430,-0.651
14.435,-0.195
14.440,0.061
14.445,0.155
14.450,0.232
14.455,0.293
14.460,0.292
14.465,0.306
14.470,0.329
14.475,0.317
14.480,0.313
14.485,0.321
14.490,0.304
14.495,0.281
14.500,0.273
14.505,0.261
14.510,0.242
14.515,0.232
14.520,0.222
14.525,0.207
14.530,0.193
14.535,0.179
14.540,0.163
14.545,0.153
14.550,0.142
14.555,0.126
14.560,0.113
14.565,0.103
14.570,0.088
14.575,0.074
14.580,0.064
14.585,0.051
14.590,0.035
14.595,0.021
14.600,0.005
14.605,-0.015
14.610,-0.035
14.615,-0.051
14.620,-0.071
14.625,-0.094
14.630,-0.115
14.635,-0.136
14.640,-0.157
14.645,-0.176
14.650,-0.194
14.655,-0.210
14.660,-0.218
14.665,-0.222
14.670,-0.226
14.675,-0.228
14.680,-0.213
14.685,-0.181
14.690,-0.133
14.695,-0.074
14.700,-0.011
14.705,0.054
14.710,0.114
14.715,0.164
14.720,0.205
14.725,0.234
14.730,0.261
14.735,0.274
14.740,0.275
14.745,0.277
14.750,0.273
14.755,0.267
14.760,0.260
14.765,0.249
14.770,0.236
14.775,0.222
14.780,0.212
14.785,0.201
14.790,0.189
14.795,0.179
14.800,0.170
14.805,0.157
14.810,0.143
14.815,0.131
14.820,0.120
14.825,0.110
14.830,0.103
14.835,0.091
14.840,0.079
14.845,0.071
14.850,0.062
14.855,0.055
14.860,0.050
14.865,0.045
14.870,0.037
14.875,0.027
14.880,0.022
14.885,0.015
14.890,0.010
14.895,0.009
14.900,0.007
14.905,0.005
14.910,0.001
14.915,-0.002
14.920,-0.003
14.925,-0.011
14.930,-0.016
14.935,-0.016
14.940,-0.018
14.945,-0.015
14.950,-0.017
14.955,-0.021
14.960,-0.024
14.965,-0.028
14.970,-0.032
14.975,-0.035
14.980,-0.034
14.985,-0.035
14.990,-0.037
14.995,-0.034
15.000,-0.038
15.005,-0.047
15.010,-0.047
15.015,-0.046
15.020,-0.048
15.025,-0.051
15.030,-0.056
15.035,-0.069
15.040,-0.096
15.045,-0.122
15.050,-0.135
15.055,-0.140
15.060,-0.142
15.065,-0.140
15.070,-0.133
15.075,-0.132
15.080,-0.139
15.085,-0.141
15.090,-0.130
15.095,-0.105
15.100,-0.081
15.105,-0.069
15.110,-0.052
15.115,-0.017
15.120,0.011
15.125,0.026
15.130,0.037
15.135,0.040
15.140,0.038
15.145,0.039
15.150,0.036
15.155,0.035
15.160,0.037
15.165,0.035
15.170,0.027
15.175,0.023
15.180,0.044
15.185,0.105
15.190,0.153
15.195,0.104
15.200,-0.087
15.205,-0.443
15.210,-0.890
15.215,-1.327
15.220,-1.673
15.225,-1.669
15.230,-1.186
15.235,-0.589
15.240,-0.164
15.245,0.083
15.250,0.195
15.255,0.294
15.260,0.349
15.265,0.335
15.270,0.355
15.275,0.381
15.280,0.362
15.285,0.348
15.290,0.347
15.295,0.325
15.300,0.301
15.305,0.301
15.310,0.293
15.315,0.268
15.320,0.256
15.325,0.247
15.330,0.230
15.335,0.209
15.340,0.194
15.345,0.183
15.350,0.169
15.355,0.160
15.360,0.147
15.365,0.129
15.370,0.116
15.375,0.102
15.380,0.088
15.385,0.075
15.390,0.062
15.395,0.050
15.400,0.035
15.405,0.012
15.410,-0.012
15.415,-0.030
15.420,-0.048
15.425,-0.072
15.430,-0.093
15.435,-0.114
15.440,-0.138
15.445,-0.158
15.450,-0.181
15.455,-0.204
15.460,-0.218
15.465,-0.226
15.470,-0.235
15.475,-0.241
15.480,-0.236
15.485,-0.219
15.490,-0.186
15.495,-0.139
15.500,-0.079
15.505,-0.011
15.510,0.058
15.515,0.119
15.520,0.170
15.525,0.209
15.530,0.236
15.535,0.253
15.540,0.268
15.545,0.281
15.550,0.280
15.555,0.270
15.560,0.262
15.565,0.257
15.570,0.248
15.575,0.237
15.580,0.224
15.585,0.210
15.590,0.199
15.595,0.188
15.600,0.176
15.605,0.164
15.610,0.153
15.615,0.143
15.620,0.130
15.625,0.115
15.630,0.107
15.635,0.100
15.640,0.089
15.645,0.084
15.650,0.078
15.655,0.070
15.660,0.060
15.665,0.049
15.670,0.039
15.675,0.034
15.680,0.032
15.685,0.026
15.690,0.019
15.695,0.018
15.700,0.016
15.705,0.012
15.710,0.007
15.715,-0.002
15.720,-0.008
15.725,-0.011
15.730,-0.011
15.735,-0.012
15.740,-0.016
15.745,-0.016
15.750,-0.017
15.755,-0.022
15.760,-0.024
15.765,-0.024
15.770,-0.030
15.775,-0.037
15.780,-0.035
15.785,-0.034
15.790,-0.036
15.795,-0.037
15.800,-0.040
15.805,-0.044
15.810,-0.044
15.815,-0.042
15.820,-0.046
15.825,-0.052
15.830,-0.051
15.835,-0.049
15.840,-0.050
15.845,-0.051
15.850,-0.055
15.855,-0.064
15.860,-0.082
15.865,-0.114
15.870,-0.140
15.875,-0.146
15.880,-0.143
15.885,-0.139
15.890,-0.137
15.895,-0.132
15.900,-0.134
15.905,-0.145
15.910,-0.145
15.915,-0.129
15.920,-0.101
15.925,-0.075
15.930,-0.060
15.935,-0.040
15.940,-0.012
15.945,0.012
15.950,0.029
15.955,0.036
15.960,0.036
15.965,0.038
15.970,0.037
15.975,0.034
15.980,0.038
15.985,0.038
15.990,0.032
15.995,0.030
16.000,0.029
16.005,0.057
16.010,0.119
16.015,0.150
16.020,0.075
16.025,-0.154
16.030,-0.539
16.035,-0.988
16.040,-1.405
16.045,-1.674
16.050,-1.515
16.055,-0.969
16.060,-0.435
16.065,-0.073
16.070,0.118
16.075,0.222
16.080,0.319
16.085,0.337
16.090,0.320
16.095,0.356
16.100,0.371
16.105,0.343
16.110,0.339
16.115,0.340
16.120,0.312
16.125,0.294
16.130,0.295
16.135,0.279
16.140,0.255
16.145,0.247
16.150,0.235
16.155,0.213
16.160,0.199
16.165,0.189
16.170,0.175
16.175,0.162
16.180,0.150
16.185,0.133
16.190,0.121
16.195,0.114
16.200,0.100
16.205,0.084
16.210,0.071
16.215,0.056
16.220,0.039
16.225,0.023
16.230,0.009
16.235,-0.009
16.240,-0.033
16.245,-0.050
16.250,-0.068
16.255,-0.095
16.260,-0.120
16.265,-0.141
16.270,-0.165
16.275,-0.186
16.280,-0.200
16.285,-0.213
16.290,-0.224
16.295,-0.233
16.300,-0.237
16.305,-0.228
16.310,-0.207
16.315,-0.171
16.320,-0.118
16.325,-0.056
16.330,0.013
16.335,0.078
16.340,0.131
16.345,0.178
16.350,0.218
16.355,0.246
16.360,0.261
16.365,0.271
16.370,0.276
16.375,0.276
16.380,0.276
16.385,0.267
16.390,0.251
16.395,0.241
16.400,0.229
16.405,0.218
16.410,0.209
16.415,0.197
16.420,0.184
16.425,0.171
16.430,0.162
16.435,0.153
16.440,0.139
16.445,0.130
16.450,0.119
16.455,0.107
16.460,0.098
16.465,0.088
16.470,0.080
16.475,0.073
16.480,0.066
16.485,0.058
16.490,0.052
16.495,0.047
16.500,0.041
16.505,0.035
16.510,0.030
16.515,0.023
16.520,0.017
16.525,0.014
16.530,0.016
16.535,0.012
16.540,0.003
16.545,0.000
16.550,-0.003
16.555,-0.009
16.560,-0.011
16.565,-0.011
16.570,-0.013
16.575,-0.014
16.580,-0.017
16.585,-0.025
16.590,-0.030
16.595,-0.031
16.600,-0.030
16.605,-0.032
16.610,-0.035
16.615,-0.037
16.620,-0.040
16.625,-0.043
16.630,-0.043
16.635,-0.045
16.640,-0.048
16.645,-0.049
16.650,-0.050
16.655,-0.054
16.660,-0.056
16.665,-0.053
16.670,-0.052
16.675,-0.056
16.680,-0.058
16.685,-0.058
16.690,-0.059
16.695,-0.062
16.700,-0.071
16.705,-0.089
16.710,-0.115
16.715,-0.137
16.720,-0.146
16.725,-0.147
16.730,-0.142
16.735,-0.136
16.740,-0.132
16.745,-0.135
16.750,-0.150
16.755,-0.154
16.760,-0.130
16.765,-0.091
16.770,-0.067
16.775,-0.055
16.780,-0.032
16.785,-0.009
16.790,0.008
16.795,0.025
16.800,0.036
16.805,0.040
16.810,0.042
16.815,0.038
16.820,0.034
16.825,0.036
16.830,0.036
16.835,0.032
16.840,0.030
16.845,0.033
16.850,0.066
16.855,0.125
16.860,0.152
16.865,0.076
16.870,-0.162
16.875,-0.553
16.880,-0.988
16.885,-1.388
16.890,-1.631
16.895,-1.427
16.900,-0.877
16.905,-0.381
16.910,-0.050
16.915,0.118
16.920,0.221
16.925,0.315
16.930,0.322
16.935,0.311
16.940,0.345
16.945,0.349
16.950,0.323
16.955,0.324
16.960,0.325
16.965,0.302
16.970,0.291
16.975,0.288
16.980,0.267
16.985,0.244
16.990,0.233
16.995,0.221
17.000,0.204
17.005,0.192
17.010,0.185
17.015,0.175
17.020,0.159
17.025,0.139
17.030,0.125
17.035,0.116
17.040,0.107
17.045,0.096
17.050,0.080
17.055,0.067
17.060,0.056
17.065,0.036
17.070,0.015
17.075,-0.002
17.080,-0.018
17.085,-0.034
17.090,-0.054
17.095,-0.074
17.100,-0.096
17.105,-0.121
17.110,-0.145
17.115,-0.162
17.120,-0.178
17.125,-0.199
17.130,-0.212
17.135,-0.224
17.140,-0.233
17.145,-0.229
17.150,-0.222
17.155,-0.204
17.160,-0.165
17.165,-0.111
17.170,-0.049
17.175,0.016
17.180,0.079
17.185,0.133
17.190,0.180
17.195,0.218
17.200,0.247
17.205,0.267
17.210,0.279
17.215,0.283
17.220,0.280
17.225,0.274
17.230,0.269
17.235,0.261
17.240,0.250
17.245,0.238
17.250,0.224
17.255,0.211
17.260,0.200
17.265,0.190
17.270,0.176
17.275,0.161
17.280,0.152
17.285,0.143
17.290,0.131
17.295,0.122
17.300,0.110
17.305,0.098
17.310,0.092
17.315,0.088
17.320,0.077
17.325,0.065
17.330,0.061
17.335,0.056
17.340,0.048
17.345,0.042
17.350,0.036
17.355,0.031
17.360,0.027
17.365,0.020
17.370,0.016
17.375,0.013
17.380,0.011
17.385,0.004
17.390,-0.002
17.395,-0.001
17.400,-0.002
17.405,-0.006
17.410,-0.011
17.415,-0.016
17.420,-0.018
17.425,-0.019
17.430,-0.021
17.435,-0.026
17.440,-0.031
17.445,-0.030
17.450,-0.029
17.455,-0.033
17.460,-0.035
17.465,-0.038
17.470,-0.043
17.475,-0.045
17.480,-0.043
17.485,-0.047
17.490,-0.052
17.495,-0.050
17.500,-0.047
17.505,-0.049
17.510,-0.052
17.515,-0.055
17.520,-0.055
17.525,-0.056
17.530,-0.059
17.535,-0.061
17.540,-0.060
17.545,-0.056
17.550,-0.054
17.555,-0.059
17.560,-0.062
17.565,-0.063
17.570,-0.070
17.575,-0.089
17.580,-0.116
17.585,-0.134
17.590,-0.140
17.595,-0.135
17.600,-0.120
17.605,-0.115
17.610,-0.124
17.615,-0.143
17.620,-0.158
17.625,-0.144
17.630,-0.107
17.635,-0.075
17.640,-0.053
17.645,-0.030
17.650,-0.006
17.655,0.008
17.660,0.016
17.665,0.026
17.670,0.030
17.675,0.031
17.680,0.034
17.685,0.034
17.690,0.035
17.695,0.036
17.700,0.032
17.705,0.029
17.710,0.031
17.715,0.041
17.720,0.081
17.725,0.134
17.730,0.152
17.735,0.047
17.740,-0.245
17.745,-0.669
17.750,-1.099
17.755,-1.451
17.760,-1.560
17.765,-1.233
17.770,-0.695
17.775,-0.254
17.780,0.021
17.785,0.136
17.790,0.229
17.795,0.303
17.800,0.295
17.805,0.304
17.810,0.338
17.815,0.332
17.820,0.316
17.825,0.315
17.830,0.304
17.835,0.280
17.840,0.269
17.845,0.263
17.850,0.242
17.855,0.231
17.860,0.229
17.865,0.217
17.870,0.201
17.875,0.191
17.880,0.178
17.885,0.162
17.890,0.149
17.895,0.137
17.900,0.124
17.905,0.115
17.910,0.103
17.915,0.084
17.920,0.067
17.925,0.054
17.930,0.046
17.935,0.033
17.940,0.015
17.945,0.002
17.950,-0.015
17.955,-0.038
17.960,-0.058
17.965,-0.080
17.970,-0.107
17.975,-0.131
17.980,-0.148
17.985,-0.167
17.990,-0.187
17.995,-0.204
18.000,-0.212
18.005,-0.215
18.010,-0.221
18.015,-0.228
18.020,-0.227
18.025,-0.203
18.030,-0.151
18.035,-0.091
18.040,-0.028
18.045,0.040
18.050,0.100
18.055,0.151
18.060,0.198
18.065,0.237
18.070,0.263
18.075,0.277
18.080,0.288
18.085,0.291
18.090,0.286
18.095,0.282
18.100,0.271
18.105,0.257
18.110,0.250
18.115,0.243
18.120,0.235
18.125,0.220
18.130,0.197
18.135,0.181
18.140,0.173
18.145,0.167
18.150,0.160
18.155,0.152
18.160,0.138
18.165,0.121
18.170,0.110
18.175,0.101
18.180,0.093
18.185,0.084
18.190,0.073
18.195,0.069
18.200,0.060
18.205,0.049
18.210,0.047
18.215,0.044
18.220,0.037
18.225,0.030
18.230,0.027
18.235,0.024
18.240,0.022
18.245,0.021
18.250,0.010
18.255,0.000
18.260,-0.001
18.265,0.001
18.270,-0.003
18.275,-0.010
18.280,-0.010
18.285,-0.010
18.290,-0.017
18.295,-0.020
18.300,-0.021
18.305,-0.022
18.310,-0.022
18.315,-0.025
18.320,-0.028
18.325,-0.034
18.330,-0.037
18.335,-0.038
18.340,-0.038
18.345,-0.040
18.350,-0.047
18.355,-0.051
18.360,-0.049
18.365,-0.047
18.370,-0.051
18.375,-0.055
18.380,-0.053
18.385,-0.053
18.390,-0.058
18.395,-0.061
18.400,-0.067
18.405,-0.075
18.410,-0.088
18.415,-0.108
18.420,-0.126
18.425,-0.133
18.430,-0.123
18.435,-0.114
18.440,-0.119
18.445,-0.130
18.450,-0.147
18.455,-0.153
18.460,-0.135
18.465,-0.108
18.470,-0.081
18.475,-0.058
18.480,-0.034
18.485,-0.010
18.490,-0.003
18.495,0.000
18.500,0.008
18.505,0.012
18.510,0.015
18.515,0.018
18.520,0.018
18.525,0.021
18.530,0.021
18.535,0.011
18.540,0.005
18.545,0.006
18.550,0.013
18.555,0.050
18.560,0.114
18.565,0.161
18.570,0.105
18.575,-0.161
18.580,-0.607
18.585,-1.084
18.590,-1.469
18.595,-1.620
18.600,-1.360
18.605,-0.825
18.610,-0.328
18.615,-0.007
18.620,0.122
18.625,0.198
18.630,0.280
18.635,0.296
18.640,0.298
18.645,0.325
18.650,0.324
18.655,0.307
18.660,0.310
18.665,0.307
18.670,0.291
18.675,0.282
18.680,0.272
18.685,0.251
18.690,0.237
18.695,0.230
18.700,0.217
18.705,0.202
18.710,0.190
18.715,0.178
18.720,0.166
18.725,0.154
18.730,0.143
18.735,0.128
18.740,0.115
18.745,0.108
18.750,0.092
18.755,0.074
18.760,0.065
18.765,0.053
18.770,0.038
18.775,0.023
18.780,0.007
18.785,-0.013
18.790,-0.034
18.795,-0.053
18.800,-0.073
18.805,-0.094
18.810,-0.115
18.815,-0.135
18.820,-0.155
18.825,-0.175
18.830,-0.188
18.835,-0.199
18.840,-0.214
18.845,-0.218
18.850,-0.217
18.855,-0.210
18.860,-0.189
18.865,-0.151
18.870,-0.098
18.875,-0.035
18.880,0.033
18.885,0.096
18.890,0.148
18.895,0.195
18.900,0.231
18.905,0.258
18.910,0.278
18.915,0.287
18.920,0.287
18.925,0.286
18.930,0.283
18.935,0.274
18.940,0.265
18.945,0.255
18.950,0.240
18.955,0.224
18.960,0.213
18.965,0.204
18.970,0.192
18.975,0.178
18.980,0.167
18.985,0.155
18.990,0.142
18.995,0.132
19.000,0.120
19.005,0.108
19.010,0.100
19.015,0.094
19.020,0.084
19.025,0.072
19.030,0.064
19.035,0.057
19.040,0.047
19.045,0.041
19.050,0.034
19.055,0.027
19.060,0.024
19.065,0.020
19.070,0.015
19.075,0.011
19.080,0.009
19.085,0.006
19.090,0.002
19.095,-0.001
19.100,-0.009
19.105,-0.013
19.110,-0.012
19.115,-0.015
19.120,-0.017
19.125,-0.020
19.130,-0.022
19.135,-0.024
19.140,-0.027
19.145,-0.029
19.150,-0.031
19.155,-0.037
19.160,-0.039
19.165,-0.038
19.170,-0.041
19.175,-0.044
19.180,-0.043
19.185,-0.044
19.190,-0.049
19.195,-0.051
19.200,-0.053
19.205,-0.054
19.210,-0.051
19.215,-0.052
19.220,-0.056
19.225,-0.058
19.230,-0.057
19.235,-0.058
19.240,-0.064
19.245,-0.075
19.250,-0.101
19.255,-0.135
19.260,-0.150
19.265,-0.148
19.270,-0.136
19.275,-0.122
19.280,-0.121
19.285,-0.126
19.290,-0.137
19.295,-0.148
19.300,-0.135
19.305,-0.106
19.310,-0.082
19.315,-0.069
19.320,-0.064
19.325,-0.041
19.330,-0.006
19.335,0.013
19.340,0.022
19.345,0.030
19.350,0.032
19.355,0.028
19.360,0.025
19.365,0.027
19.370,0.027
19.375,0.024
19.380,0.023
19.385,0.021
19.390,0.027
19.395,0.073
19.400,0.132
19.405,0.129
19.410,0.005
19.415,-0.286
19.420,-0.712
19.425,-1.160
19.430,-1.547
19.435,-1.701
19.440,-1.376
19.445,-0.780
19.450,-0.294
19.455,0.008
19.460,0.152
19.465,0.252
19.470,0.334
19.475,0.332
19.480,0.335
19.485,0.370
19.490,0.360
19.495,0.338
19.500,0.344
19.505,0.338
19.510,0.312
19.515,0.301
19.520,0.294
19.525,0.271
19.530,0.256
19.535,0.248
19.540,0.232
19.545,0.217
19.550,0.205
19.555,0.189
19.560,0.175
19.565,0.164
19.570,0.151
19.575,0.135
19.580,0.124
19.585,0.113
19.590,0.099
19.595,0.085
19.600,0.071
19.605,0.054
19.610,0.038
19.615,0.023
19.620,0.007
19.625,-0.012
19.630,-0.028
19.635,-0.050
19.640,-0.078
19.645,-0.102
19.650,-0.127
19.655,-0.149
19.660,-0.168
19.665,-0.187
19.670,-0.203
19.675,-0.217
19.680,-0.228
19.685,-0.236
19.690,-0.237
19.695,-0.224
19.700,-0.199
19.705,-0.160
19.710,-0.105
19.715,-0.041
19.720,0.025
19.725,0.089
19.730,0.148
19.735,0.195
19.740,0.228
19.745,0.254
19.750,0.271
19.755,0.282
19.760,0.288
19.765,0.286
19.770,0.279
19.775,0.269
19.780,0.261
19.785,0.249
19.790,0.236
19.795,0.228
19.800,0.218
19.805,0.203
19.810,0.189
19.815,0.176
19.820,0.163
19.825,0.153
19.830,0.143
19.835,0.130
19.840,0.119
19.845,0.112
19.850,0.103
19.855,0.094
19.860,0.083
19.865,0.071
19.870,0.064
19.875,0.059
19.880,0.053
19.885,0.044
19.890,0.035
19.895,0.033
19.900,0.029
19.905,0.020
19.910,0.015
19.915,0.010
19.920,0.006
19.925,0.002
19.930,0.001
19.935,-0.002
19.940,-0.006
19.945,-0.007
19.950,-0.012
19.955,-0.018
19.960,-0.018
19.965,-0.019
19.970,-0.023
19.975,-0.027
19.980,-0.026
19.985,-0.026
19.990,-0.031
19.995,-0.036
20.000,-0.038
20.005,-0.041
20.010,-0.039
20.015,-0.040
20.020,-0.043
20.025,-0.044
20.030,-0.044
20.035,-0.047
20.040,-0.051
20.045,-0.051
20.050,-0.053
20.055,-0.058
20.060,-0.058
20.065,-0.054
20.070,-0.053
20.075,-0.055
20.080,-0.055
20.085,-0.059
20.090,-0.060
20.095,-0.057
20.100,-0.062
20.105,-0.073
20.110,-0.092
20.115,-0.124
20.120,-0.145
20.125,-0.144
20.130,-0.129
20.135,-0.111
20.140,-0.112
20.145,-0.121
20.150,-0.131
20.155,-0.139
20.160,-0.118
20.165,-0.088
20.170,-0.071
20.175,-0.060
20.180,-0.055
20.185,-0.038
20.190,-0.007
20.195,0.012
20.200,0.021
20.205,0.026
20.210,0.027
20.215,0.028
20.220,0.031
20.225,0.030
20.230,0.029
20.235,0.024
20.240,0.017
20.245,0.018
20.250,0.023
20.255,0.056
20.260,0.118
20.265,0.139
20.270,0.050
20.275,-0.196
20.280,-0.593
20.285,-1.040
20.290,-1.445
20.295,-1.671
20.300,-1.451
20.305,-0.890
20.310,-0.378
20.315,-0.039
20.320,0.128
20.325,0.228
20.330,0.321
20.335,0.332
20.340,0.322
20.345,0.357
20.350,0.361
20.355,0.336
20.360,0.340
20.365,0.341
20.370,0.313
20.375,0.296
20.380,0.291
20.385,0.271
20.390,0.253
20.395,0.249
20.400,0.235
20.405,0.216
20.410,0.205
20.415,0.191
20.420,0.176
20.425,0.166
20.430,0.158
20.435,0.142
20.440,0.124
20.445,0.114
20.450,0.101
20.455,0.086
20.460,0.075
20.465,0.062
20.470,0.048
20.475,0.031
20.480,0.013
20.485,-0.008
20.490,-0.029
20.495,-0.045
20.500,-0.066
20.505,-0.091
20.510,-0.114
20.515,-0.137
20.520,-0.161
20.525,-0.180
20.530,-0.194
20.535,-0.209
20.540,-0.223
20.545,-0.227
20.550,-0.228
20.555,-0.227
20.560,-0.209
20.565,-0.173
20.570,-0.119
20.575,-0.055
20.580,0.010
20.585,0.074
20.590,0.133
20.595,0.184
20.600,0.222
20.605,0.247
20.610,0.267
20.615,0.279
20.620,0.284
20.625,0.285
20.630,0.283
20.635,0.276
20.640,0.267
20.645,0.257
20.650,0.242
20.655,0.229
20.660,0.219
20.665,0.207
20.670,0.193
20.675,0.179
20.680,0.169
20.685,0.157
20.690,0.143
20.695,0.135
20.700,0.127
20.705,0.113
20.710,0.103
20.715,0.094
20.720,0.085
20.725,0.078
20.730,0.070
20.735,0.062
20.740,0.057
20.745,0.053
20.750,0.043
20.755,0.033
20.760,0.029
20.765,0.026
20.770,0.023
20.775,0.018
20.780,0.013
20.785,0.009
20.790,0.005
20.795,0.003
20.800,0.001
20.805,-0.002
20.810,-0.007
20.815,-0.012
20.820,-0.016
20.825,-0.018
20.830,-0.020
20.835,-0.023
20.840,-0.026
20.845,-0.024
20.850,-0.027
20.855,-0.030
20.860,-0.031
20.865,-0.035
20.870,-0.038
20.875,-0.041
20.880,-0.043
20.885,-0.046
20.890,-0.049
20.895,-0.047
20.900,-0.045
20.905,-0.049
20.910,-0.050
20.915,-0.052
20.920,-0.055
20.925,-0.055
20.930,-0.054
20.935,-0.056
20.940,-0.060
20.945,-0.059
20.950,-0.059
20.955,-0.058
20.960,-0.056
20.965,-0.064
20.970,-0.080
20.975,-0.100
20.980,-0.124
20.985,-0.137
20.990,-0.128
20.995,-0.111
21.000,-0.106
21.005,-0.113
21.010,-0.121
21.015,-0.128
21.020,-0.117
21.025,-0.092
21.030,-0.072
21.035,-0.060
21.040,-0.057
21.045,-0.049
21.050,-0.020
21.055,0.005
21.060,0.017
21.065,0.022
21.070,0.021
21.075,0.019
21.080,0.021
21.085,0.019
21.090,0.015
21.095,0.020
21.100,0.018
21.105,0.010
21.110,0.011
21.115,0.030
21.120,0.081
21.125,0.130
21.130,0.117
21.135,-0.027
21.140,-0.349
21.145,-0.773
21.150,-1.197
21.155,-1.551
21.160,-1.600
21.165,-1.187
21.170,-0.631
21.175,-0.214
21.180,0.038
21.185,0.158
21.190,0.264
21.195,0.326
21.200,0.307
21.205,0.319
21.210,0.348
21.215,0.329
21.220,0.316
21.225,0.326
21.230,0.310
21.235,0.283
21.240,0.279
21.245,0.274
21.250,0.253
21.255,0.239
21.260,0.230
21.265,0.214
21.270,0.200
21.275,0.190
21.280,0.174
21.285,0.160
21.290,0.152
21.295,0.144
21.300,0.131
21.305,0.115
21.310,0.103
21.315,0.091
21.320,0.077
21.325,0.063
21.330,0.049
21.335,0.031
21.340,0.017
21.345,0.005
21.350,-0.017
21.355,-0.040
21.360,-0.058
21.365,-0.079
21.370,-0.102
21.375,-0.123
21.380,-0.134
21.385,-0.065
21.390,0.027
21.395,0.023
21.400,-0.012
21.405,-0.050
21.410,-0.068
21.415,-0.062
21.420,-0.080
21.425,-0.071
21.430,-0.020
21.435,0.023
21.440,0.069
21.445,0.136
21.450,0.190
21.455,0.225
21.460,0.263
21.465,0.294
21.470,0.306
21.475,0.318
21.480,0.327
21.485,0.319
21.490,0.309
21.495,0.303
21.500,0.287
21.505,0.263
21.510,0.245
21.515,0.232
21.520,0.218
21.525,0.205
21.530,0.190
21.535,0.172
21.540,0.152
21.545,0.136
21.550,0.121
21.555,0.108
21.560,0.095
21.565,0.080
21.570,0.065
21.575,0.053
21.580,0.046
21.585,0.038
21.590,0.030
21.595,0.021
21.600,0.011
21.605,0.004
21.610,-0.007
21.615,-0.021
21.620,-0.028
21.625,-0.028
21.630,-0.032
21.635,-0.043
21.640,-0.052
21.645,-0.051
21.650,-0.051
21.655,-0.058
21.660,-0.062
21.665,-0.065
21.670,-0.068
21.675,-0.068
21.680,-0.069
21.685,-0.074
21.690,-0.081
21.695,-0.082
21.700,-0.081
21.705,-0.080
21.710,-0.082
21.715,-0.087
21.720,-0.093
21.725,-0.093
21.730,-0.087
21.735,-0.087
21.740,-0.094
21.745,-0.095
21.750,-0.098
21.755,-0.102
21.760,-0.100
21.765,-0.097
21.770,-0.095
21.775,-0.094
21.780,-0.096
21.785,-0.097
21.790,-0.096
21.795,-0.098
21.800,-0.101
21.805,-0.098
21.810,-0.091
21.815,-0.090
21.820,-0.091
21.825,-0.093
21.830,-0.098
21.835,-0.109
21.840,-0.117
21.845,-0.119
21.850,-0.125
21.855,-0.130
21.860,-0.131
21.865,-0.137
21.870,-0.137
21.875,-0.131
21.880,-0.140
21.885,-0.145
21.890,-0.129
21.895,-0.106
21.900,-0.088
21.905,-0.077
21.910,-0.061
21.915,-0.028
21.920,-0.006
21.925,-0.007
21.930,-0.009
21.935,-0.005
21.940,-0.007
21.945,-0.008
21.950,-0.007
21.955,-0.008
21.960,-0.002
21.965,0.002
21.970,-0.002
21.975,-0.001
21.980,0.013
21.985,0.048
21.990,0.097
21.995,0.133
22.000,0.062
22.005,-0.220
22.010,-0.661
22.015,-1.118
22.020,-1.475
22.025,-1.574
22.030,-1.267
22.035,-0.738
22.040,-0.271
22.045,0.021
22.050,0.132
22.055,0.209
22.060,0.284
22.065,0.292
22.070,0.303
22.075,0.325
22.080,0.314
22.085,0.302
22.090,0.309
22.095,0.310
22.100,0.299
22.105,0.287
22.110,0.270
22.115,0.249
22.120,0.238
22.125,0.233
22.130,0.223
22.135,0.207
22.140,0.197
22.145,0.191
22.150,0.178
22.155,0.163
22.160,0.151
22.165,0.138
22.170,0.126
22.175,0.116
22.180,0.105
22.185,0.088
22.190,0.067
22.195,0.056
22.200,0.049
22.205,0.038
22.210,0.024
22.215,0.000
22.220,-0.022
22.225,-0.039
22.230,-0.054
22.235,-0.078
22.240,-0.106
22.245,-0.127
22.250,-0.145
22.255,-0.163
22.260,-0.181
22.265,-0.198
22.270,-0.207
22.275,-0.214
22.280,-0.213
22.285,-0.200
22.290,-0.177
22.295,-0.140
22.300,-0.092
22.305,-0.031
22.310,0.038
22.315,0.103
22.320,0.164
22.325,0.214
22.330,0.248
22.335,0.268
22.340,0.286
22.345,0.304
22.350,0.312
22.355,0.310
22.360,0.304
22.365,0.292
22.370,0.282
22.375,0.274
22.380,0.265
22.385,0.251
22.390,0.232
22.395,0.220
22.400,0.212
22.405,0.201
22.410,0.188
22.415,0.171
22.420,0.157
22.425,0.150
22.430,0.143
22.435,0.128
22.440,0.113
22.445,0.105
22.450,0.097
22.455,0.087
22.460,0.081
22.465,0.073
22.470,0.067
22.475,0.064
22.480,0.057
22.485,0.048
22.490,0.042
22.495,0.038
22.500,0.032
22.505,0.026
22.510,0.020
22.515,0.013
22.520,0.011
22.525,0.012
22.530,0.011
22.535,0.005
22.540,-0.005
22.545,-0.008
22.550,-0.006
22.555,-0.010
22.560,-0.014
22.565,-0.017
22.570,-0.022
22.575,-0.023
22.580,-0.024
22.585,-0.026
22.590,-0.027
22.595,-0.027
22.600,-0.034
22.605,-0.040
22.610,-0.038
22.615,-0.038
22.620,-0.043
22.625,-0.049
22.630,-0.052
22.635,-0.052
22.640,-0.052
22.645,-0.052
22.650,-0.055
22.655,-0.063
22.660,-0.073
22.665,-0.082
22.670,-0.092
22.675,-0.097
22.680,-0.097
22.685,-0.102
22.690,-0.102
22.695,-0.098
22.700,-0.116
22.705,-0.134
22.710,-0.118
22.715,-0.094
22.720,-0.077
22.725,-0.064
22.730,-0.060
22.735,-0.045
22.740,-0.021
22.745,-0.009
22.750,-0.002
22.755,0.002
22.760,0.001
22.765,0.001
22.770,0.001
22.775,-0.002
22.780,-0.001
22.785,0.000
22.790,-0.004
22.795,-0.008
22.800,-0.006
22.805,0.018
22.810,0.082
22.815,0.144
22.820,0.127
22.825,-0.069
22.830,-0.468
22.835,-0.942
22.840,-1.361
22.845,-1.628
22.850,-1.539
22.855,-1.058
22.860,-0.506
22.865,-0.110
22.870,0.085
22.875,0.166
22.880,0.258
22.885,0.301
22.890,0.292
22.895,0.313
22.900,0.325
22.905,0.304
22.910,0.305
22.915,0.312
22.920,0.295
22.925,0.280
22.930,0.275
22.935,0.261
22.940,0.242
22.945,0.233
22.950,0.221
22.955,0.206
22.960,0.198
22.965,0.186
22.970,0.172
22.975,0.161
22.980,0.151
22.985,0.137
22.990,0.123
22.995,0.112
23.000,0.097
23.005,0.081
23.010,0.071
23.015,0.061
23.020,0.048
23.025,0.033
23.030,0.014
23.035,-0.005
23.040,-0.025
23.045,-0.046
23.050,-0.067
23.055,-0.090
23.060,-0.110
23.065,-0.132
23.070,-0.154
23.075,-0.174
23.080,-0.191
23.085,-0.205
23.090,-0.218
23.095,-0.224
23.100,-0.229
23.105,-0.228
23.110,-0.207
23.115,-0.170
23.120,-0.121
23.125,-0.062
23.130,0.003
23.135,0.069
23.140,0.127
23.145,0.179
23.150,0.221
23.155,0.252
23.160,0.277
23.165,0.288
23.170,0.290
23.175,0.292
23.180,0.289
23.185,0.282
23.190,0.271
23.195,0.261
23.200,0.252
23.205,0.238
23.210,0.225
23.215,0.211
23.220,0.195
23.225,0.184
23.230,0.174
23.235,0.164
23.240,0.152
23.245,0.140
23.250,0.128
23.255,0.116
23.260,0.106
23.265,0.093
23.270,0.082
23.275,0.075
23.280,0.067
23.285,0.060
23.290,0.049
23.295,0.040
23.300,0.032
23.305,0.023
23.310,0.021
23.315,0.017
23.320,0.012
23.325,0.011
23.330,0.010
23.335,0.004
23.340,-0.004
23.345,-0.006
23.350,-0.008
23.355,-0.014
23.360,-0.016
23.365,-0.019
23.370,-0.021
23.375,-0.019
23.380,-0.020
23.385,-0.027
23.390,-0.031
23.395,-0.032
23.400,-0.033
23.405,-0.033
23.410,-0.034
23.415,-0.038
23.420,-0.041
23.425,-0.044
23.430,-0.046
23.435,-0.045
23.440,-0.045
23.445,-0.046
23.450,-0.050
23.455,-0.053
23.460,-0.051
23.465,-0.051
23.470,-0.055
23.475,-0.056
23.480,-0.058
23.485,-0.064
23.490,-0.075
23.495,-0.098
23.500,-0.131
23.505,-0.148
23.510,-0.138
23.515,-0.118
23.520,-0.111
23.525,-0.118
23.530,-0.121
23.535,-0.128
23.540,-0.131
23.545,-0.112
23.550,-0.091
23.555,-0.075
23.560,-0.066
23.565,-0.063
23.570,-0.037
23.575,-0.003
23.580,0.013
23.585,0.020
23.590,0.021
23.595,0.023
23.600,0.026
23.605,0.023
23.610,0.020
23.615,0.019
23.620,0.017
23.625,0.015
23.630,0.014
23.635,0.021
23.640,0.066
23.645,0.127
23.650,0.120
23.655,-0.011
23.660,-0.301
23.665,-0.727
23.670,-1.180
23.675,-1.572
23.680,-1.730
23.685,-1.409
23.690,-0.808
23.695,-0.308
23.700,0.008
23.705,0.159
23.710,0.260
23.715,0.342
23.720,0.340
23.725,0.343
23.730,0.380
23.735,0.373
23.740,0.348
23.745,0.353
23.750,0.344
23.755,0.315
23.760,0.308
23.765,0.305
23.770,0.281
23.775,0.263
23.780,0.255
23.785,0.238
23.790,0.222
23.795,0.213
23.800,0.201
23.805,0.184
23.810,0.172
23.815,0.159
23.820,0.144
23.825,0.132
23.830,0.119
23.835,0.103
23.840,0.087
23.845,0.075
23.850,0.064
23.855,0.045
23.860,0.030
23.865,0.014
23.870,-0.007
23.875,-0.030
23.880,-0.054
23.885,-0.077
23.890,-0.096
23.895,-0.113
23.900,-0.137
23.905,-0.163
23.910,-0.183
23.915,-0.203
23.920,-0.219
23.925,-0.231
23.930,-0.238
23.935,-0.238
23.940,-0.229
23.945,-0.203
23.950,-0.163
23.955,-0.111
23.960,-0.048
23.965,0.016
23.970,0.078
23.975,0.141
23.980,0.190
23.985,0.227
23.990,0.256
23.995,0.275
24.000,0.283
24.005,0.284
24.010,0.284
24.015,0.280
24.020,0.271
24.025,0.262
24.030,0.254
24.035,0.242
24.040,0.227
24.045,0.214
24.050,0.202
24.055,0.189
24.060,0.179
24.065,0.166
24.070,0.152
24.075,0.143
24.080,0.133
24.085,0.120
24.090,0.108
24.095,0.100
24.100,0.091
24.105,0.082
24.110,0.075
24.115,0.066
24.120,0.057
24.125,0.050
24.130,0.044
24.135,0.038
24.140,0.033
24.145,0.031
24.150,0.026
24.155,0.015
24.160,0.008
24.165,0.004
24.170,0.001
24.175,0.001
24.180,-0.002
24.185,-0.006
24.190,-0.010
24.195,-0.015
24.200,-0.020
24.205,-0.022
24.210,-0.020
24.215,-0.022
24.220,-0.026
24.225,-0.029
24.230,-0.030
24.235,-0.032
24.240,-0.035
24.245,-0.036
24.250,-0.038
24.255,-0.041
24.260,-0.041
24.265,-0.047
24.270,-0.052
24.275,-0.050
24.280,-0.049
24.285,-0.050
24.290,-0.052
24.295,-0.053
24.300,-0.054
24.305,-0.056
24.310,-0.055
24.315,-0.055
24.320,-0.054
24.325,-0.055
24.330,-0.062
24.335,-0.076
24.340,-0.098
24.345,-0.128
24.350,-0.146
24.355,-0.145
24.360,-0.127
24.365,-0.111
24.370,-0.114
24.375,-0.121
24.380,-0.130
24.385,-0.141
24.390,-0.125
24.395,-0.094
24.400,-0.072
24.405,-0.060
24.410,-0.055
24.415,-0.038
24.420,-0.010
24.425,0.009
24.430,0.021
24.435,0.025
24.440,0.024
24.445,0.027
24.450,0.024
24.455,0.022
24.460,0.026
24.465,0.026
24.470,0.020
24.475,0.016
24.480,0.021
24.485,0.060
24.490,0.118
24.495,0.130
24.500,0.027
24.505,-0.242
24.510,-0.651
24.515,-1.095
24.520,-1.489
24.525,-1.684
24.530,-1.419
24.535,-0.846
24.540,-0.350
24.545,-0.022
24.550,0.140
24.555,0.241
24.560,0.330
24.565,0.332
24.570,0.327
24.575,0.365
24.580,0.362
24.585,0.335
24.590,0.338
24.595,0.337
24.600,0.310
24.605,0.297
24.610,0.293
24.615,0.274
24.620,0.256
24.625,0.247
24.630,0.231
24.635,0.213
24.640,0.203
24.645,0.193
24.650,0.178
24.655,0.164
24.660,0.155
24.665,0.140
24.670,0.123
24.675,0.113
24.680,0.102
24.685,0.083
24.690,0.068
24.695,0.056
24.700,0.042
24.705,0.027
24.710,0.013
24.715,-0.007
24.720,-0.027
24.725,-0.048
24.730,-0.073
24.735,-0.097
24.740,-0.120
24.745,-0.142
24.750,-0.163
24.755,-0.181
24.760,-0.196
24.765,-0.211
24.770,-0.224
24.775,-0.234
24.780,-0.239
24.785,-0.232
24.790,-0.211
24.795,-0.171
24.800,-0.118
24.805,-0.058
24.810,0.011
24.815,0.077
24.820,0.131
24.825,0.180
24.830,0.221
24.835,0.250
24.840,0.269
24.845,0.281
24.850,0.284
24.855,0.281
24.860,0.279
24.865,0.273
24.870,0.264
24.875,0.254
24.880,0.241
24.885,0.228
24.890,0.215
24.895,0.204
24.900,0.193
24.905,0.180
24.910,0.168
24.915,0.155
24.920,0.142
24.925,0.134
24.930,0.123
24.935,0.108
24.940,0.099
24.945,0.093
24.950,0.084
24.955,0.074
24.960,0.069
24.965,0.064
24.970,0.058
24.975,0.050
24.980,0.039
24.985,0.031
24.990,0.026
24.995,0.025
25.000,0.021
25.005,0.014
25.010,0.012
25.015,0.011
25.020,0.004
25.025,-0.003
25.030,-0.007
25.035,-0.009
25.040,-0.010
25.045,-0.013
25.050,-0.018
25.055,-0.019
25.060,-0.019
25.065,-0.023
25.070,-0.027
25.075,-0.029
25.080,-0.030
25.085,-0.034
25.090,-0.039
25.095,-0.041
25.100,-0.043
25.105,-0.044
25.110,-0.043
25.115,-0.047
25.120,-0.050
25.125,-0.049
25.130,-0.048
25.135,-0.051
25.140,-0.053
25.145,-0.054
25.150,-0.056
25.155,-0.058
25.160,-0.054
25.165,-0.054
25.170,-0.056
25.175,-0.057
25.180,-0.059
25.185,-0.059
25.190,-0.061
25.195,-0.064
25.200,-0.073
25.205,-0.084
25.210,-0.093
25.215,-0.106
25.220,-0.111
25.225,-0.105
25.230,-0.108
25.235,-0.108
25.240,-0.110
25.245,-0.122
25.250,-0.122
25.255,-0.097
25.260,-0.070
25.265,-0.058
25.270,-0.057
25.275,-0.053
25.280,-0.036
25.285,-0.017
25.290,-0.004
25.295,0.007
25.300,0.014
25.305,0.010
25.310,0.012
25.315,0.017
25.320,0.009
25.325,0.005
25.330,0.008
25.335,0.007
25.340,0.005
25.345,0.018
25.350,0.066
25.355,0.120
25.360,0.119
25.365,-0.008
25.370,-0.309
25.375,-0.722
25.380,-1.144
25.385,-1.515
25.390,-1.631
25.395,-1.270
25.400,-0.703
25.405,-0.263
25.410,0.015
25.415,0.146
25.420,0.248
25.425,0.320
25.430,0.308
25.435,0.319
25.440,0.348
25.445,0.332
25.450,0.316
25.455,0.329
25.460,0.322
25.465,0.295
25.470,0.289
25.475,0.286
25.480,0.262
25.485,0.246
25.490,0.239
25.495,0.221
25.500,0.204
25.505,0.194
25.510,0.182
25.515,0.168
25.520,0.161
25.525,0.155
25.530,0.138
25.535,0.122
25.540,0.112
25.545,0.101
25.550,0.087
25.555,0.071
25.560,0.058
25.565,0.046
25.570,0.030
25.575,0.011
25.580,-0.007
25.585,-0.026
25.590,-0.046
25.595,-0.067
25.600,-0.094
25.605,-0.121
25.610,-0.139
25.615,-0.154
25.620,-0.173
25.625,-0.188
25.630,-0.203
25.635,-0.216
25.640,-0.222
25.645,-0.225
25.650,-0.220
25.655,-0.200
25.660,-0.158
25.665,-0.101
25.670,-0.041
25.675,0.023
25.680,0.089
25.685,0.146
25.690,0.193
25.695,0.228
25.700,0.252
25.705,0.270
25.710,0.283
25.715,0.287
25.720,0.286
25.725,0.283
25.730,0.277
25.735,0.272
25.740,0.261
25.745,0.244
25.750,0.228
25.755,0.216
25.760,0.207
25.765,0.194
25.770,0.179
25.775,0.169
25.780,0.160
25.785,0.149
25.790,0.138
25.795,0.126
25.800,0.112
25.805,0.101
25.810,0.094
25.815,0.088
25.820,0.081
25.825,0.075
25.830,0.067
25.835,0.058
25.840,0.051
25.845,0.046
25.850,0.037
25.855,0.030
25.860,0.028
25.865,0.025
25.870,0.017
25.875,0.011
25.880,0.009
25.885,0.007
25.890,0.004
25.895,-0.001
25.900,-0.005
25.905,-0.005
25.910,-0.006
25.915,-0.014
25.920,-0.022
25.925,-0.022
25.930,-0.022
25.935,-0.027
25.940,-0.031
25.945,-0.031
25.950,-0.034
25.955,-0.039
25.960,-0.041
25.965,-0.039
25.970,-0.040
25.975,-0.040
25.980,-0.041
25.985,-0.047
25.990,-0.048
25.995,-0.047
26.000,-0.055
26.005,-0.060
26.010,-0.056
26.015,-0.055
26.020,-0.055
26.025,-0.055
26.030,-0.058
26.035,-0.059
26.040,-0.066
26.045,-0.079
26.050,-0.086
26.055,-0.098
26.060,-0.107
26.065,-0.107
26.070,-0.103
26.075,-0.100
26.080,-0.105
26.085,-0.122
26.090,-0.138
26.095,-0.124
26.100,-0.098
26.105,-0.083
26.110,-0.068
26.115,-0.057
26.120,-0.038
26.125,-0.007
26.130,0.005
26.135,0.002
26.140,0.002
26.145,0.001
26.150,0.002
26.155,0.001
26.160,0.002
26.165,0.004
26.170,0.006
26.175,0.004
26.180,-0.004
26.185,-0.006
26.190,0.011
26.195,0.056
26.200,0.111
26.205,0.124
26.210,-0.008
26.215,-0.356
26.220,-0.820
26.225,-1.256
26.230,-1.560
26.235,-1.536
26.240,-1.111
26.245,-0.570
26.250,-0.156
26.255,0.057
26.260,0.138
26.265,0.224
26.270,0.281
26.275,0.289
26.280,0.307
26.285,0.315
26.290,0.297
26.295,0.290
26.300,0.297
26.305,0.287
26.310,0.270
26.315,0.265
26.320,0.256
26.325,0.244
26.330,0.238
26.335,0.222
26.340,0.202
26.345,0.191
26.350,0.179
26.355,0.165
26.360,0.156
26.365,0.146
26.370,0.135
26.375,0.123
26.380,0.107
26.385,0.092
26.390,0.082
26.395,0.073
26.400,0.058
26.405,0.038
26.410,0.025
26.415,0.015
26.420,-0.001
26.425,-0.019
26.430,-0.035
26.435,-0.056
26.440,-0.083
26.445,-0.109
26.450,-0.128
26.455,-0.145
26.460,-0.161
26.465,-0.180
26.470,-0.202
26.475,-0.216
26.480,-0.224
26.485,-0.230
26.490,-0.224
26.495,-0.206
26.500,-0.183
26.505,-0.147
26.510,-0.090
26.515,-0.019
26.520,0.055
26.525,0.116
26.530,0.162
26.535,0.208
26.540,0.249
26.545,0.273
26.550,0.288
26.555,0.296
26.560,0.301
26.565,0.298
26.570,0.290
26.575,0.283
26.580,0.274
26.585,0.264
26.590,0.253
26.595,0.238
26.600,0.220
26.605,0.204
26.610,0.195
26.615,0.182
26.620,0.169
26.625,0.161
26.630,0.152
26.635,0.138
26.640,0.125
26.645,0.115
26.650,0.106
26.655,0.096
26.660,0.088
26.665,0.078
26.670,0.067
26.675,0.065
26.680,0.061
26.685,0.054
26.690,0.043
26.695,0.035
26.700,0.030
26.705,0.026
26.710,0.024
26.715,0.021
26.720,0.016
26.725,0.012
26.730,0.004
26.735,0.000
26.740,-0.001
26.745,-0.001
26.750,-0.005
26.755,-0.012
26.760,-0.014
26.765,-0.015
26.770,-0.020
26.775,-0.022
26.780,-0.025
26.785,-0.031
26.790,-0.031
26.795,-0.031
26.800,-0.035
26.805,-0.040
26.810,-0.042
26.815,-0.042
26.820,-0.043
26.825,-0.044
26.830,-0.047
26.835,-0.049
26.840,-0.049
26.845,-0.050
26.850,-0.056
26.855,-0.067
26.860,-0.072
26.865,-0.078
26.870,-0.095
26.875,-0.106
26.880,-0.109
26.885,-0.111
26.890,-0.110
26.895,-0.111
26.900,-0.121
26.905,-0.128
26.910,-0.115
26.915,-0.095
26.920,-0.082
26.925,-0.070
26.930,-0.066
26.935,-0.056
26.940,-0.029
26.945,-0.013
26.950,-0.007
26.955,-0.001
26.960,-0.003
26.965,-0.003
26.970,0.000
26.975,0.001
26.980,0.000
26.985,-0.001
26.990,-0.005
26.995,-0.010
27.000,-0.009
27.005,0.011
27.010,0.066
27.015,0.129
27.020,0.134
27.025,-0.015
27.030,-0.375
27.035,-0.849
27.040,-1.288
27.045,-1.603
27.050,-1.606
27.055,-1.180
27.060,-0.612
27.065,-0.179
27.070,0.055
27.075,0.147
27.080,0.233
27.085,0.293
27.090,0.290
27.095,0.308
27.100,0.330
27.105,0.312
27.110,0.304
27.115,0.310
27.120,0.294
27.125,0.277
27.130,0.274
27.135,0.264
27.140,0.245
27.145,0.233
27.150,0.223
27.155,0.206
27.160,0.195
27.165,0.185
27.170,0.172
27.175,0.162
27.180,0.152
27.185,0.139
27.190,0.126
27.195,0.113
27.200,0.099
27.205,0.083
27.210,0.073
27.215,0.062
27.220,0.046
27.225,0.032
27.230,0.019
27.235,0.001
27.240,-0.022
27.245,-0.043
27.250,-0.063
27.255,-0.083
27.260,-0.104
27.265,-0.130
27.270,-0.151
27.275,-0.166
27.280,-0.184
27.285,-0.200
27.290,-0.212
27.295,-0.220
27.300,-0.226
27.305,-0.229
27.310,-0.215
27.315,-0.184
27.320,-0.139
27.325,-0.079
27.330,-0.015
27.335,0.052
27.340,0.116
27.345,0.170
27.350,0.216
27.355,0.250
27.360,0.275
27.365,0.286
27.370,0.290
27.375,0.295
27.380,0.295
27.385,0.291
27.390,0.283
27.395,0.270
27.400,0.255
27.405,0.241
27.410,0.232
27.415,0.220
27.420,0.206
27.425,0.195
27.430,0.182
27.435,0.167
27.440,0.156
27.445,0.145
27.450,0.132
27.455,0.120
27.460,0.112
27.465,0.104
27.470,0.096
27.475,0.085
27.480,0.068
27.485,0.055
27.490,0.051
27.495,0.047
27.500,0.041
27.505,0.032
27.510,0.029
27.515,0.026
27.520,0.019
27.525,0.015
27.530,0.011
27.535,0.007
27.540,0.004
27.545,0.000
27.550,-0.005
27.555,-0.008
27.560,-0.009
27.565,-0.017
27.570,-0.022
27.575,-0.018
27.580,-0.017
27.585,-0.019
27.590,-0.022
27.595,-0.023
27.600,-0.025
27.605,-0.030
27.610,-0.032
27.615,-0.034
27.620,-0.039
27.625,-0.038
27.630,-0.040
27.635,-0.042
27.640,-0.042
27.645,-0.043
27.650,-0.044
27.655,-0.048
27.660,-0.049
27.665,-0.055
27.670,-0.068
27.675,-0.091
27.680,-0.125
27.685,-0.144
27.690,-0.143
27.695,-0.133
27.700,-0.120
27.705,-0.120
27.710,-0.125
27.715,-0.136
27.720,-0.147
27.725,-0.135
27.730,-0.111
27.735,-0.090
27.740,-0.077
27.745,-0.069
27.750,-0.045
27.755,-0.014
27.760,0.009
27.765,0.021
27.770,0.025
27.775,0.029
27.780,0.031
27.785,0.028
27.790,0.026
27.795,0.026
27.800,0.024
27.805,0.021
27.810,0.018
27.815,0.023
27.820,0.065
27.825,0.126
27.830,0.126
27.835,0.005
27.840,-0.273
27.845,-0.696
27.850,-1.155
27.855,-1.560
27.860,-1.738
27.865,-1.435
27.870,-0.839
27.875,-0.331
27.880,-0.005
27.885,0.151
27.890,0.255
27.895,0.341
27.900,0.339
27.905,0.335
27.910,0.370
27.915,0.366
27.920,0.341
27.925,0.346
27.930,0.341
27.935,0.315
27.940,0.305
27.945,0.298
27.950,0.274
27.955,0.257
27.960,0.252
27.965,0.235
27.970,0.215
27.975,0.205
27.980,0.192
27.985,0.172
27.990,0.159
27.995,0.150
28.000,0.136
28.005,0.121
28.010,0.111
28.015,0.098
28.020,0.082
28.025,0.069
28.030,0.054
28.035,0.037
28.040,0.022
28.045,0.004
28.050,-0.015
28.055,-0.035
28.060,-0.053
28.065,-0.075
28.070,-0.099
28.075,-0.122
28.080,-0.146
28.085,-0.168
28.090,-0.188
28.095,-0.205
28.100,-0.221
28.105,-0.234
28.110,-0.240
28.115,-0.240
28.120,-0.231
28.125,-0.207
28.130,-0.170
28.135,-0.117
28.140,-0.051
28.145,0.016
28.150,0.079
28.155,0.134
28.160,0.182
28.165,0.220
28.170,0.248
28.175,0.269
28.180,0.280
28.185,0.283
28.190,0.282
28.195,0.279
28.200,0.269
28.205,0.258
28.210,0.249
28.215,0.238
28.220,0.222
28.225,0.210
28.230,0.197
28.235,0.185
28.240,0.174
28.245,0.163
28.250,0.153
28.255,0.141
28.260,0.130
28.265,0.117
28.270,0.105
28.275,0.099
28.280,0.088
28.285,0.077
28.290,0.072
28.295,0.066
28.300,0.058
28.305,0.051
28.310,0.044
28.315,0.039
28.320,0.032
28.325,0.028
28.330,0.024
28.335,0.018
28.340,0.014
28.345,0.009
28.350,0.003
28.355,-0.001
28.360,-0.004
28.365,-0.007
28.370,-0.011
28.375,-0.013
28.380,-0.016
28.385,-0.020
28.390,-0.020
28.395,-0.021
28.400,-0.024
28.405,-0.026
28.410,-0.025
28.415,-0.029
28.420,-0.037
28.425,-0.037
28.430,-0.038
28.435,-0.041
28.440,-0.040
28.445,-0.043
28.450,-0.047
28.455,-0.046
28.460,-0.046
28.465,-0.048
28.470,-0.051
28.475,-0.051
28.480,-0.052
28.485,-0.054
28.490,-0.055
28.495,-0.058
28.500,-0.067
28.505,-0.087
28.510,-0.121
28.515,-0.144
28.520,-0.148
28.525,-0.142
28.530,-0.132
28.535,-0.128
28.540,-0.128
28.545,-0.136
28.550,-0.152
28.555,-0.148
28.560,-0.120
28.565,-0.088
28.570,-0.070
28.575,-0.060
28.580,-0.041
28.585,-0.015
28.590,0.009
28.595,0.027
28.600,0.037
28.605,0.039
28.610,0.040
28.615,0.037
28.620,0.036
28.625,0.039
28.630,0.034
28.635,0.025
28.640,0.023
28.645,0.029
28.650,0.066
28.655,0.125
28.660,0.144
28.665,0.048
28.670,-0.208
28.675,-0.611
28.680,-1.059
28.685,-1.467
28.690,-1.687
28.695,-1.451
28.700,-0.881
28.705,-0.372
28.710,-0.035
28.715,0.135
28.720,0.237
28.725,0.329
28.730,0.334
28.735,0.324
28.740,0.361
28.745,0.366
28.750,0.341
28.755,0.338
28.760,0.333
28.765,0.306
28.770,0.292
28.775,0.293
28.780,0.273
28.785,0.252
28.790,0.246
28.795,0.232
28.800,0.212
28.805,0.200
28.810,0.189
28.815,0.173
28.820,0.158
28.825,0.149
28.830,0.137
28.835,0.123
28.840,0.107
28.845,0.092
28.850,0.079
28.855,0.067
28.860,0.056
28.865,0.039
28.870,0.021
28.875,0.007
28.880,-0.011
28.885,-0.030
28.890,-0.050
28.895,-0.075
28.900,-0.101
28.905,-0.123
28.910,-0.142
28.915,-0.164
28.920,-0.186
28.925,-0.200
28.930,-0.214
28.935,-0.227
28.940,-0.234
28.945,-0.238
28.950,-0.234
28.955,-0.214
28.960,-0.177
28.965,-0.126
28.970,-0.066
28.975,0.000
28.980,0.063
28.985,0.120
28.990,0.170
28.995,0.211
29.000,0.240
29.005,0.261
29.010,0.276
29.015,0.280
29.020,0.277
29.025,0.273
29.030,0.265
29.035,0.256
29.040,0.248
29.045,0.237
29.050,0.224
29.055,0.210
29.060,0.199
29.065,0.188
29.070,0.173
29.075,0.160
29.080,0.149
29.085,0.139
29.090,0.130
29.095,0.118
29.100,0.107
29.105,0.097
29.110,0.089
29.115,0.081
29.120,0.073
29.125,0.066
29.130,0.055
29.135,0.047
29.140,0.044
29.145,0.039
29.150,0.035
29.155,0.030
29.160,0.029
29.165,0.025
29.170,0.016
29.175,0.012
29.180,0.008
29.185,0.002
29.190,-0.001
29.195,-0.005
29.200,-0.008
29.205,-0.011
29.210,-0.014
29.215,-0.017
29.220,-0.020
29.225,-0.018
29.230,-0.019
29.235,-0.024
29.240,-0.027
29.245,-0.032
29.250,-0.036
29.255,-0.037
29.260,-0.036
29.265,-0.039
29.270,-0.044
29.275,-0.045
29.280,-0.047
29.285,-0.051
29.290,-0.052
29.295,-0.052
29.300,-0.051
29.305,-0.053
29.310,-0.055
29.315,-0.058
29.320,-0.060
29.325,-0.057
29.330,-0.056
29.335,-0.058
29.340,-0.063
29.345,-0.080
29.350,-0.110
29.355,-0.133
29.360,-0.139
29.365,-0.131
29.370,-0.115
29.375,-0.109
29.380,-0.118
29.385,-0.133
29.390,-0.147
29.395,-0.139
29.400,-0.111
29.405,-0.084
29.410,-0.063
29.415,-0.052
29.420,-0.038
29.425,-0.007
29.430,0.013
29.435,0.017
29.440,0.022
29.445,0.023
29.450,0.019
29.455,0.019
29.460,0.017
29.465,0.019
29.470,0.020
29.475,0.021
29.480,0.019
29.485,0.017
29.490,0.031
29.495,0.077
29.500,0.131
29.505,0.134
29.510,0.004
29.515,-0.320
29.520,-0.761
29.525,-1.190
29.530,-1.537
29.535,-1.604
29.540,-1.211
29.545,-0.649
29.550,-0.220
29.555,0.033
29.560,0.148
29.565,0.252
29.570,0.314
29.575,0.299
29.580,0.313
29.585,0.345
29.590,0.329
29.595,0.315
29.600,0.324
29.605,0.308
29.610,0.284
29.615,0.280
29.620,0.272
29.625,0.257
29.630,0.246
29.635,0.235
29.640,0.220
29.645,0.206
29.650,0.196
29.655,0.181
29.660,0.163
29.665,0.148
29.670,0.137
29.675,0.130
29.680,0.121
29.685,0.107
29.690,0.093
29.695,0.080
29.700,0.066
29.705,0.051
29.710,0.037
29.715,0.021
29.720,0.002
29.725,-0.018
29.730,-0.036
29.735,-0.056
29.740,-0.078
29.745,-0.102
29.750,-0.125
29.755,-0.144
29.760,-0.161
29.765,-0.178
29.770,-0.199
29.775,-0.214
29.780,-0.224
29.785,-0.228
29.790,-0.225
29.795,-0.217
29.800,-0.196
29.805,-0.154
29.810,-0.095
29.815,-0.031
29.820,0.035
29.825,0.097
29.830,0.153
29.835,0.199
29.840,0.233
29.845,0.258
29.850,0.278
29.855,0.290
29.860,0.295
29.865,0.290
29.870,0.280
29.875,0.272
29.880,0.261
29.885,0.251
29.890,0.243
29.895,0.230
29.900,0.217
29.905,0.208
29.910,0.195
29.915,0.178
29.920,0.167
29.925,0.163
29.930,0.150
29.935,0.133
29.940,0.123
29.945,0.113
29.950,0.104
29.955,0.094
29.960,0.086
29.965,0.079
29.970,0.071
29.975,0.065
29.980,0.060
29.985,0.048
29.990,0.038
29.995,0.033
30.000,0.026
30.005,0.020
30.010,0.018
30.015,0.013
30.020,0.007
30.025,0.009
30.030,0.006
30.035,0.001
30.040,0.003
30.045,0.004
30.050,0.000
30.055,-0.008
30.060,-0.016
30.065,-0.021
30.070,-0.027
30.075,-0.028
30.080,-0.026
30.085,-0.027
30.090,-0.029
30.095,-0.034
30.100,-0.036
30.105,-0.036
30.110,-0.041
30.115,-0.046
30.120,-0.045
30.125,-0.043
30.130,-0.045
30.135,-0.043
30.140,-0.042
30.145,-0.056
30.150,-0.074
30.155,-0.087
30.160,-0.102
30.165,-0.118
30.170,-0.123
30.175,-0.112
30.180,-0.105
30.185,-0.114
30.190,-0.127
30.195,-0.141
30.200,-0.139
30.205,-0.117
30.210,-0.095
30.215,-0.074
30.220,-0.054
30.225,-0.031
30.230,-0.007
30.235,0.003
30.240,0.004
30.245,0.009
30.250,0.011
30.255,0.007
30.260,0.009
30.265,0.012
30.270,0.009
30.275,0.007
30.280,0.001
30.285,-0.008
30.290,-0.009
30.295,-0.005
30.300,0.024
30.305,0.085
30.310,0.138
30.315,0.109
30.320,-0.102
30.325,-0.507
30.330,-0.987
30.335,-1.403
30.340,-1.628
30.345,-1.465
30.350,-0.951
30.355,-0.419
30.360,-0.055
30.365,0.101
30.370,0.166
30.375,0.249
30.380,0.281
30.385,0.281
30.390,0.309
30.395,0.317
30.400,0.298
30.405,0.293
30.410,0.292
30.415,0.277
30.420,0.268
30.425,0.265
30.430,0.247
30.435,0.228
30.440,0.220
30.445,0.208
30.450,0.194
30.455,0.183
30.460,0.172
30.465,0.160
30.470,0.146
30.475,0.138
30.480,0.127
30.485,0.113
30.490,0.104
30.495,0.092
30.500,0.076
30.505,0.064
30.510,0.053
30.515,0.038
30.520,0.021
30.525,0.006
30.530,-0.011
30.535,-0.030
30.540,-0.047
30.545,-0.066
30.550,-0.089
30.555,-0.112
30.560,-0.131
30.565,-0.150
30.570,-0.168
30.575,-0.182
30.580,-0.196
30.585,-0.208
30.590,-0.215
30.595,-0.220
30.600,-0.215
30.605,-0.195
30.610,-0.161
30.615,-0.113
30.620,-0.052
30.625,0.014
30.630,0.078
30.635,0.135
30.640,0.187
30.645,0.227
30.650,0.255
30.655,0.273
30.660,0.286
30.665,0.291
30.670,0.289
30.675,0.289
30.680,0.284
30.685,0.272
30.690,0.262
30.695,0.251
30.700,0.238
30.705,0.224
30.710,0.209
30.715,0.196
30.720,0.186
30.725,0.177
30.730,0.163
30.735,0.150
30.740,0.142
30.745,0.131
30.750,0.119
30.755,0.107
30.760,0.097
30.765,0.089
30.770,0.080
30.775,0.073
30.780,0.067
30.785,0.058
30.790,0.051
30.795,0.045
30.800,0.037
30.805,0.032
30.810,0.029
30.815,0.023
30.820,0.015
30.825,0.013
30.830,0.009
30.835,0.005
30.840,0.003
30.845,-0.002
30.850,-0.007
30.855,-0.009
30.860,-0.012
30.865,-0.016
30.870,-0.017
30.875,-0.018
30.880,-0.023
30.885,-0.029
30.890,-0.030
30.895,-0.032
30.900,-0.034
30.905,-0.035
30.910,-0.036
30.915,-0.039
30.920,-0.042
30.925,-0.045
30.930,-0.049
30.935,-0.052
30.940,-0.054
30.945,-0.062
30.950,-0.086
30.955,-0.122
30.960,-0.143
30.965,-0.145
30.970,-0.140
30.975,-0.127
30.980,-0.123
30.985,-0.130
30.990,-0.140
30.995,-0.151
31.000,-0.147
31.005,-0.120
31.010,-0.089
31.015,-0.075
31.020,-0.067
31.025,-0.044
31.030,-0.018
31.035,0.002
31.040,0.017
31.045,0.022
31.050,0.021
31.055,0.022
31.060,0.022
31.065,0.021
31.070,0.019
31.075,0.017
31.080,0.014
31.085,0.013
31.090,0.017
31.095,0.048
31.100,0.113
31.105,0.143
31.110,0.054
31.115,-0.202
31.120,-0.614
31.125,-1.069
31.130,-1.473
31.135,-1.714
31.140,-1.511
31.145,-0.940
31.150,-0.409
31.155,-0.059
31.160,0.114
31.165,0.212
31.170,0.308
31.175,0.325
31.180,0.312
31.185,0.343
31.190,0.352
31.195,0.327
31.200,0.326
31.205,0.327
31.210,0.303
31.215,0.287
31.220,0.283
31.225,0.266
31.230,0.245
31.235,0.237
31.240,0.226
31.245,0.207
31.250,0.195
31.255,0.183
31.260,0.167
31.265,0.155
31.270,0.144
31.275,0.131
31.280,0.116
31.285,0.104
31.290,0.094
31.295,0.079
31.300,0.063
31.305,0.049
31.310,0.034
31.315,0.019
31.320,0.001
31.325,-0.017
31.330,-0.037
31.335,-0.059
31.340,-0.079
31.345,-0.102
31.350,-0.128
31.355,-0.149
31.360,-0.169
31.365,-0.188
31.370,-0.206
31.375,-0.218
31.380,-0.230
31.385,-0.239
31.390,-0.239
31.395,-0.231
31.400,-0.211
31.405,-0.173
31.410,-0.121
31.415,-0.058
31.420,0.008
31.425,0.074
31.430,0.133
31.435,0.183
31.440,0.223
31.445,0.250
31.450,0.268
31.455,0.281
31.460,0.288
31.465,0.285
31.470,0.278
31.475,0.273
31.480,0.263
31.485,0.251
31.490,0.241
31.495,0.229
31.500,0.217
31.505,0.206
31.510,0.195
31.515,0.183
31.520,0.170
31.525,0.159
31.530,0.145
31.535,0.131
31.540,0.120
31.545,0.112
31.550,0.103
31.555,0.095
31.560,0.085
31.565,0.074
31.570,0.066
31.575,0.061
31.580,0.056
31.585,0.047
31.590,0.040
31.595,0.033
31.600,0.027
31.605,0.022
31.610,0.018
31.615,0.011
31.620,0.007
31.625,0.005
31.630,0.000
31.635,-0.003
31.640,-0.005
31.645,-0.009
31.650,-0.014
31.655,-0.016
31.660,-0.017
31.665,-0.018
31.670,-0.021
31.675,-0.022
31.680,-0.026
31.685,-0.031
31.690,-0.032
31.695,-0.034
31.700,-0.036
31.705,-0.036
31.710,-0.037
31.715,-0.037
31.720,-0.040
31.725,-0.043
31.730,-0.044
31.735,-0.048
31.740,-0.048
31.745,-0.049
31.750,-0.051
31.755,-0.051
31.760,-0.055
31.765,-0.067
31.770,-0.093
31.775,-0.125
31.780,-0.141
31.785,-0.142
31.790,-0.135
31.795,-0.126
31.800,-0.123
31.805,-0.124
31.810,-0.135
31.815,-0.149
31.820,-0.141
31.825,-0.108
31.830,-0.079
31.835,-0.067
31.840,-0.055
31.845,-0.030
31.850,-0.003
31.855,0.018
31.860,0.030
31.865,0.036
31.870,0.038
31.875,0.037
31.880,0.031
31.885,0.030
31.890,0.035
31.895,0.032
31.900,0.026
31.905,0.026
31.910,0.037
31.915,0.084
31.920,0.139
31.925,0.124
31.930,-0.019
31.935,-0.332
31.940,-0.765
31.945,-1.209
31.950,-1.583
31.955,-1.675
31.960,-1.286
31.965,-0.697
31.970,-0.243
31.975,0.039
31.980,0.172
31.985,0.271
31.990,0.343
31.995,0.332
32.000,0.338
32.005,0.371
32.010,0.355
32.015,0.335
32.020,0.344
32.025,0.331
32.030,0.302
32.035,0.294
32.040,0.287
32.045,0.266
32.050,0.252
32.055,0.243
32.060,0.226
32.065,0.208
32.070,0.196
32.075,0.187
32.080,0.172
32.085,0.156
32.090,0.146
32.095,0.133
32.100,0.118
32.105,0.107
32.110,0.093
32.115,0.079
32.120,0.065
32.125,0.050
32.130,0.033
32.135,0.017
32.140,0.002
32.145,-0.018
32.150,-0.040
32.155,-0.059
32.160,-0.081
32.165,-0.105
32.170,-0.128
32.175,-0.150
32.180,-0.170
32.185,-0.189
32.190,-0.203
32.195,-0.217
32.200,-0.228
32.205,-0.235
32.210,-0.237
32.215,-0.225
32.220,-0.200
32.225,-0.158
32.230,-0.103
32.235,-0.042
32.240,0.027
32.245,0.088
32.250,0.140
32.255,0.187
32.260,0.222
32.265,0.248
32.270,0.266
32.275,0.275
32.280,0.277
32.285,0.273
32.290,0.270
32.295,0.264
32.300,0.253
32.305,0.241
32.310,0.229
32.315,0.216
32.320,0.205
32.325,0.195
32.330,0.181
32.335,0.165
32.340,0.156
32.345,0.146
32.350,0.134
32.355,0.125
32.360,0.115
32.365,0.105
32.370,0.093
32.375,0.085
32.380,0.078
32.385,0.068
32.390,0.062
32.395,0.054
32.400,0.047
32.405,0.044
32.410,0.039
32.415,0.032
32.420,0.029
32.425,0.025
32.430,0.018
32.435,0.011
32.440,0.010
32.445,0.007
32.450,0.002
32.455,0.000
32.460,-0.004
32.465,-0.009
32.470,-0.012
32.475,-0.013
32.480,-0.015
32.485,-0.019
32.490,-0.021
32.495,-0.022
32.500,-0.025
32.505,-0.028
32.510,-0.032
32.515,-0.035
32.520,-0.037
32.525,-0.036
32.530,-0.038
32.535,-0.041
32.540,-0.041
32.545,-0.044
32.550,-0.047
32.555,-0.048
32.560,-0.049
32.565,-0.051
32.570,-0.053
32.575,-0.055
32.580,-0.056
32.585,-0.056
32.590,-0.055
32.595,-0.058
32.600,-0.066
32.605,-0.075
32.610,-0.092
32.615,-0.120
32.620,-0.140
32.625,-0.134
32.630,-0.116
32.635,-0.108
32.640,-0.112
32.645,-0.121
32.650,-0.134
32.655,-0.133
32.660,-0.107
32.665,-0.082
32.670,-0.067
32.675,-0.061
32.680,-0.058
32.685,-0.037
32.690,-0.007
32.695,0.007
32.700,0.015
32.705,0.019
32.710,0.017
32.715,0.016
32.720,0.016
32.725,0.014
32.730,0.015
32.735,0.014
32.740,0.011
32.745,0.009
32.750,0.013
32.755,0.051
32.760,0.111
32.765,0.134
32.770,0.046
32.775,-0.210
32.780,-0.618
32.785,-1.064
32.790,-1.461
32.795,-1.683
32.800,-1.453
32.805,-0.887
32.810,-0.381
32.815,-0.044
32.820,0.122
32.825,0.228
32.830,0.321
32.835,0.322
32.840,0.318
32.845,0.357
32.850,0.360
32.855,0.337
32.860,0.338
32.865,0.332
32.870,0.309
32.875,0.302
32.880,0.298
32.885,0.273
32.890,0.254
32.895,0.246
32.900,0.232
32.905,0.215
32.910,0.202
32.915,0.190
32.920,0.176
32.925,0.168
32.930,0.159
32.935,0.144
32.940,0.132
32.945,0.121
32.950,0.106
32.955,0.093
32.960,0.078
32.965,0.062
32.970,0.048
32.975,0.036
32.980,0.024
32.985,0.004
32.990,-0.017
32.995,-0.039
33.000,-0.062
33.005,-0.087
33.010,-0.115
33.015,-0.137
33.020,-0.153
33.025,-0.168
33.030,-0.185
33.035,-0.198
33.040,-0.209
33.045,-0.222
33.050,-0.229
33.055,-0.222
33.060,-0.203
33.065,-0.169
33.070,-0.121
33.075,-0.062
33.080,0.001
33.085,0.065
33.090,0.128
33.095,0.178
33.100,0.213
33.105,0.240
33.110,0.261
33.115,0.275
33.120,0.283
33.125,0.284
33.130,0.277
33.135,0.265
33.140,0.257
33.145,0.247
33.150,0.233
33.155,0.222
33.160,0.213
33.165,0.204
33.170,0.192
33.175,0.178
33.180,0.162
33.185,0.150
33.190,0.144
33.195,0.134
33.200,0.122
33.205,0.113
33.210,0.099
33.215,0.090
33.220,0.080
33.225,0.075
33.230,0.074
33.235,0.069
33.240,0.064
33.245,0.051
33.250,0.038
33.255,0.034
33.260,0.031
33.265,0.023
33.270,0.016
33.275,0.015
33.280,0.013
33.285,0.008
33.290,0.006
33.295,0.001
33.300,-0.005
33.305,-0.008
33.310,-0.013
33.315,-0.016
33.320,-0.016
33.325,-0.019
33.330,-0.023
33.335,-0.026
33.340,-0.023
33.345,-0.025
33.350,-0.029
33.355,-0.031
33.360,-0.035
33.365,-0.037
33.370,-0.040
33.375,-0.041
33.380,-0.037
33.385,-0.039
33.390,-0.043
33.395,-0.050
33.400,-0.053
33.405,-0.051
33.410,-0.053
33.415,-0.060
33.420,-0.070
33.425,-0.079
33.430,-0.092
33.435,-0.108
33.440,-0.108
33.445,-0.107
33.450,-0.109
33.455,-0.105
33.460,-0.113
33.465,-0.134
33.470,-0.138
33.475,-0.113
33.480,-0.090
33.485,-0.075
33.490,-0.063
33.495,-0.046
33.500,-0.016
33.505,0.005
33.510,0.001
33.515,0.002
33.520,0.010
33.525,0.006
33.530,0.003
33.535,-0.001
33.540,-0.003
33.545,0.002
33.550,0.003
33.555,-0.001
33.560,-0.002
33.565,0.006
33.570,0.036
33.575,0.089
33.580,0.128
33.585,0.065
33.590,-0.194
33.595,-0.627
33.600,-1.094
33.605,-1.462
33.610,-1.596
33.615,-1.323
33.620,-0.785
33.625,-0.301
33.630,0.001
33.635,0.116
33.640,0.184
33.645,0.261
33.650,0.278
33.655,0.289
33.660,0.317
33.665,0.313
33.670,0.293
33.675,0.289
33.680,0.281
33.685,0.269
33.690,0.269
33.695,0.264
33.700,0.249
33.705,0.238
33.710,0.226
33.715,0.206
33.720,0.188
33.725,0.178
33.730,0.171
33.735,0.160
33.740,0.151
33.745,0.136
33.750,0.117
33.755,0.108
33.760,0.103
33.765,0.089
33.770,0.075
33.775,0.062
33.780,0.047
33.785,0.032
33.790,0.016
33.795,-0.002
33.800,-0.020
33.805,-0.034
33.810,-0.051
33.815,-0.072
33.820,-0.094
33.825,-0.115
33.830,-0.138
33.835,-0.163
33.840,-0.182
33.845,-0.195
33.850,-0.206
33.855,-0.215
33.860,-0.222
33.865,-0.226
33.870,-0.219
33.875,-0.196
33.880,-0.158
33.885,-0.109
33.890,-0.046
33.895,0.018
33.900,0.080
33.905,0.142
33.910,0.191
33.915,0.227
33.920,0.256
33.925,0.277
33.930,0.288
33.935,0.293
33.940,0.293
33.945,0.288
33.950,0.280
33.955,0.269
33.960,0.256
33.965,0.243
33.970,0.231
33.975,0.220
33.980,0.208
33.985,0.193
33.990,0.183
33.995,0.172
34.000,0.161
34.005,0.151
34.010,0.139
34.015,0.127
34.020,0.118
34.025,0.109
34.030,0.097
34.035,0.086
34.040,0.082
34.045,0.076
34.050,0.068
34.055,0.063
34.060,0.057
34.065,0.050
34.070,0.043
34.075,0.038
34.080,0.033
34.085,0.028
34.090,0.025
34.095,0.022
34.100,0.017
34.105,0.013
34.110,0.008
34.115,0.003
34.120,0.001
34.125,0.001
34.130,-0.001
34.135,-0.004
34.140,-0.006
34.145,-0.011
34.150,-0.016
34.155,-0.018
34.160,-0.022
34.165,-0.025
34.170,-0.026
34.175,-0.028
34.180,-0.030
34.185,-0.034
34.190,-0.035
34.195,-0.037
34.200,-0.041
34.205,-0.044
34.210,-0.051
34.215,-0.063
34.220,-0.084
34.225,-0.113
34.230,-0.132
34.235,-0.129
34.240,-0.113
34.245,-0.104
34.250,-0.111
34.255,-0.124
34.260,-0.140
34.265,-0.143
34.270,-0.121
34.275,-0.095
34.280,-0.075
34.285,-0.065
34.290,-0.051
34.295,-0.022
34.300,-0.002
34.305,0.008
34.310,0.017
34.315,0.018
34.320,0.018
34.325,0.018
34.330,0.014
34.335,0.013
34.340,0.015
34.345,0.010
34.350,0.004
34.355,0.003
34.360,0.009
34.365,0.049
34.370,0.119
34.375,0.153
34.380,0.062
34.385,-0.224
34.390,-0.667
34.395,-1.130
34.400,-1.520
34.405,-1.702
34.410,-1.435
34.415,-0.859
34.420,-0.352
34.425,-0.028
34.430,0.115
34.435,0.205
34.440,0.298
34.445,0.305
34.450,0.300
34.455,0.335
34.460,0.332
34.465,0.309
34.470,0.314
34.475,0.310
34.480,0.286
34.485,0.276
34.490,0.271
34.495,0.251
34.500,0.234
34.505,0.229
34.510,0.214
34.515,0.197
34.520,0.187
34.525,0.175
34.530,0.159
34.535,0.147
34.540,0.137
34.545,0.122
34.550,0.108
34.555,0.099
34.560,0.085
34.565,0.068
34.570,0.056
34.575,0.044
34.580,0.029
34.585,0.012
34.590,-0.003
34.595,-0.022
34.600,-0.043
34.605,-0.063
34.610,-0.085
34.615,-0.108
34.620,-0.129
34.625,-0.148
34.630,-0.168
34.635,-0.187
34.640,-0.203
34.645,-0.218
34.650,-0.231
34.655,-0.236
34.660,-0.234
34.665,-0.226
34.670,-0.203
34.675,-0.163
34.680,-0.110
34.685,-0.047
34.690,0.022
34.695,0.086
34.700,0.142
34.705,0.192
34.710,0.231
34.715,0.258
34.720,0.275
34.725,0.284
34.730,0.286
34.735,0.284
34.740,0.281
34.745,0.273
34.750,0.261
34.755,0.253
34.760,0.243
34.765,0.230
34.770,0.217
34.775,0.204
34.780,0.190
34.785,0.177
34.790,0.167
34.795,0.155
34.800,0.143
34.805,0.133
34.810,0.121
34.815,0.109
34.820,0.100
34.825,0.090
34.830,0.078
34.835,0.071
34.840,0.065
34.845,0.055
34.850,0.046
34.855,0.041
34.860,0.035
34.865,0.027
34.870,0.021
34.875,0.017
34.880,0.014
34.885,0.009
34.890,0.005
34.895,0.002
34.900,-0.002
34.905,-0.004
34.910,-0.007
34.915,-0.012
34.920,-0.015
34.925,-0.014
34.930,-0.015
34.935,-0.020
34.940,-0.021
34.945,-0.024
34.950,-0.028
34.955,-0.028
34.960,-0.030
34.965,-0.034
34.970,-0.036
34.975,-0.037
34.980,-0.039
34.985,-0.042
34.990,-0.043
34.995,-0.044
35.000,-0.046
35.005,-0.048
35.010,-0.049
35.015,-0.048
35.020,-0.049
35.025,-0.055
35.030,-0.065
35.035,-0.086
35.040,-0.118
35.045,-0.141
35.050,-0.146
35.055,-0.137
35.060,-0.128
35.065,-0.126
35.070,-0.124
35.075,-0.131
35.080,-0.147
35.085,-0.145
35.090,-0.114
35.095,-0.086
35.100,-0.071
35.105,-0.062
35.110,-0.043
35.115,-0.013
35.120,0.010
35.125,0.025
35.130,0.033
35.135,0.034
35.140,0.036
35.145,0.034
35.150,0.030
35.155,0.032
35.160,0.029
35.165,0.024
35.170,0.023
35.175,0.029
35.180,0.066
35.185,0.125
35.190,0.136
35.195,0.031
35.200,-0.230
35.205,-0.636
35.210,-1.093
35.215,-1.506
35.220,-1.729
35.225,-1.483
35.230,-0.895
35.235,-0.374
35.240,-0.032
35.245,0.139
35.250,0.238
35.255,0.330
35.260,0.339
35.265,0.330
35.270,0.366
35.275,0.368
35.280,0.342
35.285,0.344
35.290,0.345
35.295,0.318
35.300,0.303
35.305,0.300
35.310,0.277
35.315,0.255
35.320,0.249
35.325,0.236
35.330,0.217
35.335,0.206
35.340,0.196
35.345,0.179
35.350,0.163
35.355,0.153
35.360,0.138
35.365,0.122
35.370,0.112
35.375,0.100
35.380,0.085
35.385,0.070
35.390,0.055
35.395,0.039
35.400,0.024
35.405,0.010
35.410,-0.009
35.415,-0.030
35.420,-0.052
35.425,-0.073
35.430,-0.096
35.435,-0.120
35.440,-0.141
35.445,-0.162
35.450,-0.183
35.455,-0.198
35.460,-0.214
35.465,-0.228
35.470,-0.235
35.475,-0.236
35.480,-0.231
35.485,-0.214
35.490,-0.176
35.495,-0.123
35.500,-0.063
35.505,0.004
35.510,0.067
35.515,0.123
35.520,0.174
35.525,0.213
35.530,0.242
35.535,0.262
35.540,0.275
35.545,0.279
35.550,0.276
35.555,0.274
35.560,0.266
35.565,0.257
35.570,0.247
35.575,0.233
35.580,0.221
35.585,0.210
35.590,0.199
35.595,0.185
35.600,0.170
35.605,0.160
35.610,0.151
35.615,0.139
35.620,0.128
35.625,0.117
35.630,0.108
35.635,0.100
35.640,0.093
35.645,0.083
35.650,0.072
35.655,0.067
35.660,0.061
35.665,0.052
35.670,0.046
35.675,0.040
35.680,0.035
35.685,0.031
35.690,0.026
35.695,0.020
35.700,0.015
35.705,0.014
35.710,0.011
35.715,0.004
35.720,0.002
35.725,-0.001
35.730,-0.005
35.735,-0.007
35.740,-0.009
35.745,-0.013
35.750,-0.018
35.755,-0.019
35.760,-0.023
35.765,-0.027
35.770,-0.028
35.775,-0.028
35.780,-0.029
35.785,-0.034
35.790,-0.037
35.795,-0.037
35.800,-0.039
35.805,-0.039
35.810,-0.041
35.815,-0.043
35.820,-0.044
35.825,-0.046
35.830,-0.049
35.835,-0.050
35.840,-0.051
35.845,-0.054
35.850,-0.061
35.855,-0.071
35.860,-0.096
35.865,-0.129
35.870,-0.143
35.875,-0.143
35.880,-0.139
35.885,-0.132
35.890,-0.125
35.895,-0.126
35.900,-0.139
35.905,-0.149
35.910,-0.139
35.915,-0.109
35.920,-0.079
35.925,-0.065
35.930,-0.056
35.935,-0.031
35.940,-0.002
35.945,0.019
35.950,0.030
35.955,0.036
35.960,0.038
35.965,0.036
35.970,0.035
35.975,0.036
35.980,0.035
35.985,0.032
35.990,0.030
35.995,0.027
36.000,0.037
36.005,0.087
36.010,0.141
36.015,0.129
36.020,-0.008
36.025,-0.318
36.030,-0.750
36.035,-1.190
36.040,-1.558
36.045,-1.653
36.050,-1.274
36.055,-0.691
36.060,-0.244
36.065,0.030
36.070,0.163
36.075,0.267
36.080,0.337
36.085,0.322
36.090,0.331
36.095,0.365
36.100,0.348
36.105,0.328
36.110,0.337
36.115,0.327
36.120,0.303
36.125,0.295
36.130,0.284
36.135,0.261
36.140,0.246
36.145,0.238
36.150,0.221
36.155,0.205
36.160,0.196
36.165,0.181
36.170,0.166
36.175,0.155
36.180,0.141
36.185,0.128
36.190,0.117
36.195,0.104
36.200,0.089
36.205,0.077
36.210,0.063
36.215,0.048
36.220,0.035
36.225,0.019
36.230,0.001
36.235,-0.019
36.240,-0.036
36.245,-0.056
36.250,-0.081
36.255,-0.103
36.260,-0.123
36.265,-0.147
36.270,-0.170
36.275,-0.188
36.280,-0.203
36.285,-0.217
36.290,-0.227
36.295,-0.234
36.300,-0.235
36.305,-0.223
36.310,-0.199
36.315,-0.161
36.320,-0.106
36.325,-0.043
36.330,0.021
36.335,0.084
36.340,0.143
36.345,0.188
36.350,0.220
36.355,0.246
36.360,0.262
36.365,0.272
36.370,0.278
36.375,0.274
36.380,0.269
36.385,0.261
36.390,0.249
36.395,0.236
36.400,0.223
36.405,0.218
36.410,0.209
36.415,0.191
36.420,0.179
36.425,0.167
36.430,0.152
36.435,0.141
36.440,0.133
36.445,0.123
36.450,0.114
36.455,0.105
36.460,0.093
36.465,0.081
36.470,0.072
36.475,0.066
36.480,0.064
36.485,0.060
36.490,0.053
36.495,0.043
36.500,0.035
36.505,0.032
36.510,0.028
36.515,0.025
36.520,0.021
36.525,0.016
36.530,0.011
36.535,0.006
36.540,0.005
36.545,0.001
36.550,-0.005
36.555,-0.005
36.560,-0.005
36.565,-0.009
36.570,-0.014
36.575,-0.020
36.580,-0.025
36.585,-0.025
36.590,-0.022
36.595,-0.023
36.600,-0.028
36.605,-0.029
36.610,-0.031
36.615,-0.037
36.620,-0.039
36.625,-0.040
36.630,-0.043
36.635,-0.045
36.640,-0.047
36.645,-0.048
36.650,-0.047
36.655,-0.045
36.660,-0.047
36.665,-0.050
36.670,-0.049
36.675,-0.054
36.680,-0.064
36.685,-0.077
36.690,-0.098
36.695,-0.121
36.700,-0.136
36.705,-0.139
36.710,-0.135
36.715,-0.126
36.720,-0.125
36.725,-0.140
36.730,-0.160
36.735,-0.162
36.740,-0.143
36.745,-0.110
36.750,-0.081
36.755,-0.054
36.760,-0.026
36.765,-0.009
36.770,0.001
36.775,0.014
36.780,0.025
36.785,0.030
36.790,0.033
36.795,0.034
36.800,0.035
36.805,0.039
36.810,0.031
36.815,0.018
36.820,0.019
36.825,0.024
36.830,0.046
36.835,0.094
36.840,0.140
36.845,0.131
36.850,-0.029
36.855,-0.387
36.860,-0.841
36.865,-1.259
36.870,-1.552
36.875,-1.511
36.880,-1.059
36.885,-0.518
36.890,-0.123
36.895,0.076
36.900,0.154
36.905,0.247
36.910,0.296
36.915,0.286
36.920,0.310
36.925,0.330
36.930,0.307
36.935,0.298
36.940,0.308
36.945,0.295
36.950,0.274
36.955,0.267
36.960,0.256
36.965,0.241
36.970,0.232
36.975,0.216
36.980,0.194
36.985,0.182
36.990,0.175
36.995,0.163
37.000,0.147
37.005,0.137
37.010,0.125
37.015,0.112
37.020,0.102
37.025,0.090
37.030,0.074
37.035,0.061
37.040,0.049
37.045,0.033
37.050,0.017
37.055,0.006
37.060,-0.010
37.065,-0.029
37.070,-0.047
37.075,-0.071
37.080,-0.097
37.085,-0.120
37.090,-0.137
37.095,-0.155
37.100,-0.177
37.105,-0.193
37.110,-0.207
37.115,-0.218
37.120,-0.227
37.125,-0.235
37.130,-0.233
37.135,-0.216
37.140,-0.185
37.145,-0.142
37.150,-0.084
37.155,-0.017
37.160,0.048
37.165,0.108
37.170,0.162
37.175,0.205
37.180,0.236
37.185,0.261
37.190,0.278
37.195,0.285
37.200,0.286
37.205,0.288
37.210,0.284
37.215,0.271
37.220,0.255
37.225,0.242
37.230,0.234
37.235,0.226
37.240,0.215
37.245,0.203
37.250,0.190
37.255,0.179
37.260,0.165
37.265,0.153
37.270,0.147
37.275,0.136
37.280,0.120
37.285,0.107
37.290,0.098
37.295,0.089
37.300,0.078
37.305,0.073
37.310,0.068
37.315,0.059
37.320,0.054
37.325,0.051
37.330,0.042
37.335,0.036
37.340,0.034
37.345,0.029
37.350,0.021
37.355,0.015
37.360,0.012
37.365,0.010
37.370,0.005
37.375,-0.001
37.380,0.000
37.385,0.001
37.390,-0.001
37.395,-0.007
37.400,-0.019
37.405,-0.021
37.410,-0.018
37.415,-0.020
37.420,-0.020
37.425,-0.024
37.430,-0.030
37.435,-0.033
37.440,-0.038
37.445,-0.043
37.450,-0.043
37.455,-0.041
37.460,-0.042
37.465,-0.048
37.470,-0.054
37.475,-0.065
37.480,-0.088
37.485,-0.114
37.490,-0.128
37.495,-0.132
37.500,-0.132
37.505,-0.130
37.510,-0.131
37.515,-0.142
37.520,-0.159
37.525,-0.167
37.530,-0.158
37.535,-0.126
37.540,-0.088
37.545,-0.059
37.550,-0.031
37.555,-0.008
37.560,0.001
37.565,0.014
37.570,0.028
37.575,0.032
37.580,0.032
37.585,0.030
37.590,0.027
37.595,0.028
37.600,0.028
37.605,0.026
37.610,0.022
37.615,0.018
37.620,0.032
37.625,0.083
37.630,0.145
37.635,0.161
37.640,0.031
37.645,-0.314
37.650,-0.786
37.655,-1.236
37.660,-1.566
37.665,-1.599
37.670,-1.197
37.675,-0.622
37.680,-0.168
37.685,0.076
37.690,0.152
37.695,0.227
37.700,0.293
37.705,0.297
37.710,0.312
37.715,0.329
37.720,0.316
37.725,0.308
37.730,0.313
37.735,0.302
37.740,0.283
37.745,0.274
37.750,0.263
37.755,0.248
37.760,0.233
37.765,0.220
37.770,0.207
37.775,0.194
37.780,0.185
37.785,0.173
37.790,0.157
37.795,0.145
37.800,0.134
37.805,0.122
37.810,0.108
37.815,0.094
37.820,0.082
37.825,0.071
37.830,0.058
37.835,0.042
37.840,0.029
37.845,0.014
37.850,-0.005
37.855,-0.020
37.860,-0.038
37.865,-0.060
37.870,-0.082
37.875,-0.103
37.880,-0.124
37.885,-0.144
37.890,-0.162
37.895,-0.179
37.900,-0.191
37.905,-0.200
37.910,-0.211
37.915,-0.219
37.920,-0.216
37.925,-0.201
37.930,-0.176
37.935,-0.135
37.940,-0.079
37.945,-0.017
37.950,0.046
37.955,0.106
37.960,0.157
37.965,0.198
37.970,0.233
37.975,0.255
37.980,0.268
37.985,0.277
37.990,0.278
37.995,0.274
38.000,0.266
38.005,0.258
38.010,0.248
38.015,0.234
38.020,0.224
38.025,0.214
38.030,0.201
38.035,0.188
38.040,0.177
38.045,0.164
38.050,0.152
38.055,0.142
38.060,0.130
38.065,0.117
38.070,0.108
38.075,0.097
38.080,0.087
38.085,0.079
38.090,0.070
38.095,0.060
38.100,0.051
38.105,0.046
38.110,0.040
38.115,0.033
38.120,0.029
38.125,0.023
38.130,0.016
38.135,0.012
38.140,0.009
38.145,0.004
38.150,-0.001
38.155,-0.002
38.160,-0.005
38.165,-0.008
38.170,-0.010
38.175,-0.014
38.180,-0.017
38.185,-0.021
38.190,-0.024
38.195,-0.024
38.200,-0.027
38.205,-0.028
38.210,-0.031
38.215,-0.034
38.220,-0.034
38.225,-0.037
38.230,-0.039
38.235,-0.040
38.240,-0.040
38.245,-0.042
38.250,-0.046
38.255,-0.048
38.260,-0.055
38.265,-0.070
38.270,-0.092
38.275,-0.124
38.280,-0.144
38.285,-0.146
38.290,-0.141
38.295,-0.136
38.300,-0.133
38.305,-0.133
38.310,-0.145
38.315,-0.155
38.320,-0.144
38.325,-0.118
38.330,-0.087
38.335,-0.070
38.340,-0.058
38.345,-0.030
38.350,-0.004
38.355,0.016
38.360,0.028
38.365,0.029
38.370,0.033
38.375,0.034
38.380,0.031
38.385,0.033
38.390,0.034
38.395,0.027
38.400,0.021
38.405,0.023
38.410,0.033
38.415,0.080
38.420,0.139
38.425,0.124
38.430,-0.023
38.435,-0.339
38.440,-0.780
38.445,-1.233
38.450,-1.618
38.455,-1.729
38.460,-1.348
38.465,-0.738
38.470,-0.259
38.475,0.033
38.480,0.164
38.485,0.263
38.490,0.341
38.495,0.334
38.500,0.338
38.505,0.371
38.510,0.355
38.515,0.333
38.520,0.344
38.525,0.334
38.530,0.307
38.535,0.298
38.540,0.289
38.545,0.268
38.550,0.252
38.555,0.245
38.560,0.227
38.565,0.209
38.570,0.200
38.575,0.184
38.580,0.167
38.585,0.158
38.590,0.146
38.595,0.130
38.600,0.116
38.605,0.105
38.610,0.092
38.615,0.076
38.620,0.063
38.625,0.049
38.630,0.032
38.635,0.016
38.640,-0.001
38.645,-0.021
38.650,-0.041
38.655,-0.060
38.660,-0.084
38.665,-0.111
38.670,-0.132
38.675,-0.152
38.680,-0.174
38.685,-0.191
38.690,-0.207
38.695,-0.223
38.700,-0.234
38.705,-0.238
38.710,-0.236
38.715,-0.227
38.720,-0.200
38.725,-0.157
38.730,-0.102
38.735,-0.036
38.740,0.030
38.745,0.091
38.750,0.146
38.755,0.192
38.760,0.227
38.765,0.251
38.770,0.268
38.775,0.276
38.780,0.276
38.785,0.276
38.790,0.271
38.795,0.262
38.800,0.251
38.805,0.239
38.810,0.228
38.815,0.218
38.820,0.207
38.825,0.193
38.830,0.179
38.835,0.167
38.840,0.156
38.845,0.144
38.850,0.133
38.855,0.125
38.860,0.115
38.865,0.102
38.870,0.094
38.875,0.085
38.880,0.075
38.885,0.070
38.890,0.064
38.895,0.056
38.900,0.047
38.905,0.041
38.910,0.036
38.915,0.030
38.920,0.025
38.925,0.019
38.930,0.014
38.935,0.011
38.940,0.009
38.945,0.004
38.950,-0.001
38.955,-0.004
38.960,-0.007
38.965,-0.010
38.970,-0.011
38.975,-0.014
38.980,-0.018
38.985,-0.019
38.990,-0.021
38.995,-0.024
39.000,-0.027
39.005,-0.029
39.010,-0.030
39.015,-0.033
39.020,-0.034
39.025,-0.036
39.030,-0.039
39.035,-0.041
39.040,-0.040
39.045,-0.041
39.050,-0.043
39.055,-0.044
39.060,-0.048
39.065,-0.053
39.070,-0.056
39.075,-0.068
39.080,-0.094
39.085,-0.124
39.090,-0.141
39.095,-0.144
39.100,-0.142
39.105,-0.138
39.110,-0.135
39.115,-0.132
39.120,-0.138
39.125,-0.149
39.130,-0.144
39.135,-0.115
39.140,-0.082
39.145,-0.067
39.150,-0.056
39.155,-0.027
39.160,0.001
39.165,0.019
39.170,0.036
39.175,0.040
39.180,0.039
39.185,0.039
39.190,0.036
39.195,0.035
39.200,0.036
39.205,0.033
39.210,0.029
39.215,0.027
39.220,0.040
39.225,0.089
39.230,0.140
39.235,0.117
39.240,-0.031
39.245,-0.346
39.250,-0.780
39.255,-1.219
39.260,-1.589
39.265,-1.669
39.270,-1.263
39.275,-0.671
39.280,-0.224
39.285,0.049
39.290,0.175
39.295,0.275
39.300,0.341
39.305,0.326
39.310,0.337
39.315,0.367
39.320,0.352
39.325,0.332
39.330,0.338
39.335,0.329
39.340,0.305
39.345,0.296
39.350,0.286
39.355,0.265
39.360,0.251
39.365,0.241
39.370,0.224
39.375,0.207
39.380,0.195
39.385,0.182
39.390,0.168
39.395,0.158
39.400,0.146
39.405,0.132
39.410,0.117
39.415,0.102
39.420,0.088
39.425,0.074
39.430,0.061
39.435,0.049
39.440,0.034
39.445,0.016
39.450,-0.004
39.455,-0.023
39.460,-0.042
39.465,-0.063
39.470,-0.083
39.475,-0.106
39.480,-0.129
39.485,-0.149
39.490,-0.169
39.495,-0.190
39.500,-0.207
39.505,-0.220
39.510,-0.230
39.515,-0.236
39.520,-0.233
39.525,-0.223
39.530,-0.198
39.535,-0.155
39.540,-0.099
39.545,-0.037
39.550,0.027
39.555,0.089
39.560,0.144
39.565,0.186
39.570,0.223
39.575,0.250
39.580,0.264
39.585,0.273
39.590,0.274
39.595,0.270
39.600,0.265
39.605,0.258
39.610,0.248
39.615,0.237
39.620,0.227
39.625,0.213
39.630,0.198
39.635,0.187
39.640,0.175
39.645,0.163
39.650,0.152
39.655,0.144
39.660,0.133
39.665,0.121
39.670,0.112
39.675,0.102
39.680,0.092
39.685,0.083
39.690,0.076
39.695,0.070
39.700,0.062
39.705,0.057
39.710,0.051
39.715,0.043
39.720,0.039
39.725,0.034
39.730,0.029
39.735,0.025
39.740,0.020
39.745,0.015
39.750,0.011
39.755,0.008
39.760,0.003
39.765,-0.001
39.770,-0.001
39.775,-0.004
39.780,-0.010
39.785,-0.012
39.790,-0.014
39.795,-0.018
39.800,-0.021
39.805,-0.023
39.810,-0.026
39.815,-0.029
39.820,-0.030
39.825,-0.032
39.830,-0.036
39.835,-0.037
39.840,-0.040
39.845,-0.044
39.850,-0.046
39.855,-0.047
39.860,-0.049
39.865,-0.049
39.870,-0.047
39.875,-0.048
39.880,-0.053
39.885,-0.053
39.890,-0.054
39.895,-0.059
39.900,-0.069
39.905,-0.087
39.910,-0.117
39.915,-0.142
39.920,-0.146
39.925,-0.146
39.930,-0.145
39.935,-0.137
39.940,-0.133
39.945,-0.141
39.950,-0.157
39.955,-0.159
39.960,-0.134
39.965,-0.096
39.970,-0.067
39.975,-0.053
39.980,-0.032
39.985,-0.008
39.990,0.008
39.995,0.023
40.000,0.032
40.005,0.037
40.010,0.039
40.015,0.032
40.020,0.031
40.025,0.031
40.030,0.028
40.035,0.026
40.040,0.024
40.045,0.030
40.050,0.069
40.055,0.131
40.060,0.148
40.065,0.049
40.070,-0.216
40.075,-0.630
40.080,-1.081
40.085,-1.478
40.090,-1.671
40.095,-1.400
40.100,-0.829
40.105,-0.339
40.110,-0.019
40.115,0.134
40.120,0.237
40.125,0.325
40.130,0.324
40.135,0.323
40.140,0.358
40.145,0.351
40.150,0.327
40.155,0.336
40.160,0.335
40.165,0.308
40.170,0.295
40.175,0.288
40.180,0.267
40.185,0.254
40.190,0.245
40.195,0.224
40.200,0.207
40.205,0.202
40.210,0.191
40.215,0.173
40.220,0.164
40.225,0.153
40.230,0.136
40.235,0.121
40.240,0.108
40.245,0.096
40.250,0.082
40.255,0.068
40.260,0.057
40.265,0.043
40.270,0.028
40.275,0.007
40.280,-0.012
40.285,-0.027
40.290,-0.046
40.295,-0.068
40.300,-0.090
40.305,-0.112
40.310,-0.138
40.315,-0.164
40.320,-0.183
40.325,-0.198
40.330,-0.212
40.335,-0.221
40.340,-0.227
40.345,-0.232
40.350,-0.230
40.355,-0.209
40.360,-0.168
40.365,-0.114
40.370,-0.051
40.375,0.010
40.380,0.069
40.385,0.130
40.390,0.177
40.395,0.211
40.400,0.237
40.405,0.258
40.410,0.271
40.415,0.274
40.420,0.274
40.425,0.268
40.430,0.259
40.435,0.250
40.440,0.238
40.445,0.228
40.450,0.221
40.455,0.212
40.460,0.197
40.465,0.181
40.470,0.171
40.475,0.162
40.480,0.151
40.485,0.141
40.490,0.128
40.495,0.113
40.500,0.100
40.505,0.094
40.510,0.087
40.515,0.080
40.520,0.077
40.525,0.068
40.530,0.059
40.535,0.052
40.540,0.045
40.545,0.042
40.550,0.039
40.555,0.034
40.560,0.026
40.565,0.016
40.570,0.012
40.575,0.012
40.580,0.011
40.585,0.008
40.590,0.001
40.595,-0.005
40.600,-0.008
40.605,-0.008
40.610,-0.010
40.615,-0.013
40.620,-0.015
40.625,-0.022
40.630,-0.030
40.635,-0.031
40.640,-0.029
40.645,-0.030
40.650,-0.029
40.655,-0.029
40.660,-0.030
40.665,-0.036
40.670,-0.045
40.675,-0.049
40.680,-0.048
40.685,-0.043
40.690,-0.040
40.695,-0.045
40.700,-0.055
40.705,-0.065
40.710,-0.084
40.715,-0.111
40.720,-0.125
40.725,-0.132
40.730,-0.140
40.735,-0.138
40.740,-0.134
40.745,-0.142
40.750,-0.159
40.755,-0.170
40.760,-0.160
40.765,-0.129
40.770,-0.090
40.775,-0.058
40.780,-0.029
40.785,-0.004
40.790,0.001
40.795,0.006
40.800,0.021
40.805,0.033
40.810,0.035
40.815,0.031
40.820,0.029
40.825,0.029
40.830,0.025
40.835,0.022
40.840,0.021
40.845,0.023
40.850,0.034
40.855,0.067
40.860,0.121
40.865,0.150
40.870,0.053
40.875,-0.252
40.880,-0.709
40.885,-1.168
40.890,-1.508
40.895,-1.573
40.900,-1.219
40.905,-0.661
40.910,-0.202
40.915,0.055
40.920,0.140
40.925,0.211
40.930,0.279
40.935,0.291
40.940,0.304
40.945,0.320
40.950,0.311
40.955,0.301
40.960,0.303
40.965,0.293
40.970,0.278
40.975,0.270
40.980,0.257
40.985,0.239
40.990,0.226
40.995,0.213
41.000,0.195
41.005,0.185
41.010,0.176
41.015,0.160
41.020,0.147
41.025,0.134
41.030,0.121
41.035,0.108
41.040,0.094
41.045,0.084
41.050,0.075
41.055,0.062
41.060,0.048
41.065,0.033
41.070,0.019
41.075,0.002
41.080,-0.016
41.085,-0.031
41.090,-0.048
41.095,-0.067
41.100,-0.087
41.105,-0.108
41.110,-0.131
41.115,-0.154
41.120,-0.171
41.125,-0.188
41.130,-0.204
41.135,-0.214
41.140,-0.221
41.145,-0.226
41.150,-0.226
41.155,-0.217
41.160,-0.193
41.165,-0.152
41.170,-0.092
41.175,-0.027
41.180,0.036
41.185,0.101
41.190,0.156
41.195,0.201
41.200,0.237
41.205,0.263
41.210,0.279
41.215,0.287
41.220,0.288
41.225,0.285
41.230,0.279
41.235,0.274
41.240,0.266
41.245,0.253
41.250,0.241
41.255,0.229
41.260,0.217
41.265,0.205
41.270,0.194
41.275,0.183
41.280,0.169
41.285,0.161
41.290,0.150
41.295,0.139
41.300,0.129
41.305,0.119
41.310,0.109
41.315,0.099
41.320,0.094
41.325,0.086
41.330,0.075
41.335,0.068
41.340,0.062
41.345,0.056
41.350,0.050
41.355,0.044
41.360,0.039
41.365,0.036
41.370,0.035
41.375,0.030
41.380,0.023
41.385,0.020
41.390,0.017
41.395,0.011
41.400,0.007
41.405,0.006
41.410,0.004
41.415,0.000
41.420,-0.005
41.425,-0.010
41.430,-0.013
41.435,-0.013
41.440,-0.015
41.445,-0.018
41.450,-0.020
41.455,-0.022
41.460,-0.026
41.465,-0.029
41.470,-0.031
41.475,-0.037
41.480,-0.044
41.485,-0.051
41.490,-0.078
41.495,-0.113
41.500,-0.127
41.505,-0.128
41.510,-0.127
41.515,-0.127
41.520,-0.124
41.525,-0.129
41.530,-0.148
41.535,-0.155
41.540,-0.143
41.545,-0.114
41.550,-0.083
41.555,-0.064
41.560,-0.041
41.565,-0.015
41.570,0.004
41.575,0.020
41.580,0.029
41.585,0.033
41.590,0.035
41.595,0.030
41.600,0.027
41.605,0.028
41.610,0.025
41.615,0.019
41.620,0.017
41.625,0.016
41.630,0.031
41.635,0.087
41.640,0.149
41.645,0.145
41.650,-0.006
41.655,-0.349
41.660,-0.807
41.665,-1.254
41.670,-1.609
41.675,-1.675
41.680,-1.274
41.685,-0.684
41.690,-0.231
41.695,0.031
41.700,0.144
41.705,0.244
41.710,0.312
41.715,0.300
41.720,0.312
41.725,0.342
41.730,0.325
41.735,0.310
41.740,0.317
41.745,0.304
41.750,0.280
41.755,0.274
41.760,0.266
41.765,0.244
41.770,0.233
41.775,0.223
41.780,0.203
41.785,0.191
41.790,0.182
41.795,0.166
41.800,0.151
41.805,0.140
41.810,0.129
41.815,0.113
41.820,0.100
41.825,0.088
41.830,0.072
41.835,0.061
41.840,0.048
41.845,0.032
41.850,0.016
41.855,0.000
41.860,-0.017
41.865,-0.039
41.870,-0.057
41.875,-0.078
41.880,-0.101
41.885,-0.121
41.890,-0.144
41.895,-0.168
41.900,-0.185
41.905,-0.200
41.910,-0.214
41.915,-0.229
41.920,-0.239
41.925,-0.246
41.930,-0.244
41.935,-0.225
41.940,-0.194
41.945,-0.151
41.950,-0.092
41.955,-0.023
41.960,0.044
41.965,0.104
41.970,0.157
41.975,0.201
41.980,0.236
41.985,0.260
41.990,0.272
41.995,0.277
42.000,0.278
42.005,0.276
42.010,0.269
42.015,0.260
42.020,0.253
42.025,0.242
42.030,0.228
42.035,0.217
42.040,0.204
42.045,0.190
42.050,0.180
42.055,0.170
42.060,0.158
42.065,0.148
42.070,0.137
42.075,0.123
42.080,0.110
42.085,0.102
42.090,0.093
42.095,0.083
42.100,0.075
42.105,0.066
42.110,0.059
42.115,0.049
42.120,0.042
42.125,0.037
42.130,0.029
42.135,0.024
42.140,0.021
42.145,0.016
42.150,0.010
42.155,0.005
42.160,0.002
42.165,-0.001
42.170,-0.002
42.175,-0.005
42.180,-0.010
42.185,-0.010
42.190,-0.014
42.195,-0.018
42.200,-0.018
42.205,-0.020
42.210,-0.023
42.215,-0.026
42.220,-0.029
42.225,-0.032
42.230,-0.034
42.235,-0.034
42.240,-0.036
42.245,-0.040
42.250,-0.042
42.255,-0.042
42.260,-0.042
42.265,-0.044
42.270,-0.049
42.275,-0.053
42.280,-0.060
42.285,-0.073
42.290,-0.104
42.295,-0.135
42.300,-0.142
42.305,-0.142
42.310,-0.142
42.315,-0.140
42.320,-0.134
42.325,-0.134
42.330,-0.147
42.335,-0.149
42.340,-0.130
42.345,-0.099
42.350,-0.073
42.355,-0.062
42.360,-0.045
42.365,-0.016
42.370,0.010
42.375,0.028
42.380,0.035
42.385,0.037
42.390,0.038
42.395,0.035
42.400,0.034
42.405,0.036
42.410,0.034
42.415,0.028
42.420,0.026
42.425,0.028
42.430,0.054
42.435,0.115
42.440,0.143
42.445,0.070
42.450,-0.143
42.455,-0.516
42.460,-0.967
42.465,-1.396
42.470,-1.697
42.475,-1.585
42.480,-1.050
42.485,-0.488
42.490,-0.104
42.495,0.104
42.500,0.212
42.505,0.313
42.510,0.344
42.515,0.326
42.520,0.355
42.525,0.371
42.530,0.342
42.535,0.337
42.540,0.341
42.545,0.318
42.550,0.300
42.555,0.298
42.560,0.280
42.565,0.258
42.570,0.248
42.575,0.235
42.580,0.215
42.585,0.205
42.590,0.194
42.595,0.176
42.600,0.162
42.605,0.151
42.610,0.138
42.615,0.124
42.620,0.112
42.625,0.097
42.630,0.082
42.635,0.072
42.640,0.059
42.645,0.041
42.650,0.025
42.655,0.008
42.660,-0.010
42.665,-0.030
42.670,-0.048
42.675,-0.069
42.680,-0.095
42.685,-0.116
42.690,-0.137
42.695,-0.161
42.700,-0.181
42.705,-0.196
42.710,-0.210
42.715,-0.224
42.720,-0.232
42.725,-0.237
42.730,-0.236
42.735,-0.217
42.740,-0.183
42.745,-0.133
42.750,-0.070
42.755,-0.006
42.760,0.058
42.765,0.118
42.770,0.169
42.775,0.206
42.780,0.234
42.785,0.256
42.790,0.268
42.795,0.272
42.800,0.273
42.805,0.269
42.810,0.262
42.815,0.252
42.820,0.242
42.825,0.231
42.830,0.219
42.835,0.209
42.840,0.197
42.845,0.182
42.850,0.171
42.855,0.160
42.860,0.147
42.865,0.136
42.870,0.127
42.875,0.117
42.880,0.106
42.885,0.097
42.890,0.088
42.895,0.080
42.900,0.073
42.905,0.064
42.910,0.058
42.915,0.052
42.920,0.047
42.925,0.042
42.930,0.035
42.935,0.033
42.940,0.026
42.945,0.019
42.950,0.016
42.955,0.013
42.960,0.010
42.965,0.004
42.970,0.000
42.975,-0.003
42.980,-0.007
42.985,-0.007
42.990,-0.009
42.995,-0.013
43.000,-0.016
43.005,-0.019
43.010,-0.023
43.015,-0.025
43.020,-0.025
43.025,-0.026
43.030,-0.029
43.035,-0.031
43.040,-0.035
43.045,-0.038
43.050,-0.037
43.055,-0.039
43.060,-0.041
43.065,-0.042
43.070,-0.043
43.075,-0.046
43.080,-0.050
43.085,-0.051
43.090,-0.057
43.095,-0.072
43.100,-0.098
43.105,-0.127
43.110,-0.139
43.115,-0.140
43.120,-0.138
43.125,-0.137
43.130,-0.137
43.135,-0.132
43.140,-0.141
43.145,-0.152
43.150,-0.140
43.155,-0.109
43.160,-0.077
43.165,-0.063
43.170,-0.048
43.175,-0.020
43.180,0.004
43.185,0.025
43.190,0.036
43.195,0.037
43.200,0.040
43.205,0.038
43.210,0.032
43.215,0.032
43.220,0.032
43.225,0.030
43.230,0.026
43.235,0.028
43.240,0.046
43.245,0.098
43.250,0.145
43.255,0.112
43.260,-0.058
43.265,-0.399
43.270,-0.837
43.275,-1.266
43.280,-1.606
43.285,-1.597
43.290,-1.135
43.295,-0.577
43.300,-0.173
43.305,0.063
43.310,0.179
43.315,0.284
43.320,0.332
43.325,0.311
43.330,0.333
43.335,0.361
43.340,0.337
43.345,0.323
43.350,0.332
43.355,0.315
43.360,0.292
43.365,0.287
43.370,0.274
43.375,0.253
43.380,0.241
43.385,0.231
43.390,0.213
43.395,0.198
43.400,0.189
43.405,0.172
43.410,0.156
43.415,0.149
43.420,0.139
43.425,0.124
43.430,0.110
43.435,0.098
43.440,0.083
43.445,0.068
43.450,0.056
43.455,0.042
43.460,0.025
43.465,0.011
43.470,-0.003
43.475,-0.023
43.480,-0.046
43.485,-0.066
43.490,-0.087
43.495,-0.111
43.500,-0.132
43.505,-0.153
43.510,-0.174
43.515,-0.192
43.520,-0.205
43.525,-0.219
43.530,-0.230
43.535,-0.233
43.540,-0.230
43.545,-0.217
43.550,-0.187
43.555,-0.143
43.560,-0.085
43.565,-0.020
43.570,0.045
43.575,0.103
43.580,0.152
43.585,0.197
43.590,0.231
43.595,0.251
43.600,0.265
43.605,0.271
43.610,0.272
43.615,0.270
43.620,0.264
43.625,0.253
43.630,0.243
43.635,0.234
43.640,0.223
43.645,0.210
43.650,0.197
43.655,0.184
43.660,0.172
43.665,0.163
43.670,0.153
43.675,0.141
43.680,0.128
43.685,0.121
43.690,0.111
43.695,0.100
43.700,0.092
43.705,0.085
43.710,0.077
43.715,0.069
43.720,0.062
43.725,0.055
43.730,0.047
43.735,0.044
43.740,0.039
43.745,0.033
43.750,0.029
43.755,0.024
43.760,0.020
43.765,0.016
43.770,0.012
43.775,0.008
43.780,0.004
43.785,0.004
43.790,0.001
43.795,-0.006
43.800,-0.008
43.805,-0.009
43.810,-0.011
43.815,-0.015
43.820,-0.019
43.825,-0.023
43.830,-0.027
43.835,-0.027
43.840,-0.029
43.845,-0.033
43.850,-0.036
43.855,-0.040
43.860,-0.040
43.865,-0.039
43.870,-0.041
43.875,-0.045
43.880,-0.050
43.885,-0.048
43.890,-0.049
43.895,-0.053
43.900,-0.052
43.905,-0.054
43.910,-0.057
43.915,-0.057
43.920,-0.061
43.925,-0.069
43.930,-0.086
43.935,-0.115
43.940,-0.140
43.945,-0.149
43.950,-0.147
43.955,-0.141
43.960,-0.135
43.965,-0.136
43.970,-0.147
43.975,-0.160
43.980,-0.156
43.985,-0.128
43.990,-0.090
43.995,-0.066
44.000,-0.047
44.005,-0.022
44.010,-0.003
44.015,0.014
44.020,0.030
44.025,0.033
44.030,0.035
44.035,0.038
44.040,0.036
44.045,0.035
44.050,0.037
44.055,0.033
44.060,0.027
44.065,0.026
44.070,0.035
44.075,0.075
44.080,0.131
44.085,0.152
44.090,0.059
44.095,-0.215
44.100,-0.634
44.105,-1.077
44.110,-1.456
44.115,-1.619
44.120,-1.322
44.125,-0.765
44.130,-0.307
44.135,-0.010
44.140,0.128
44.145,0.227
44.150,0.313
44.155,0.308
44.160,0.309
44.165,0.346
44.170,0.335
44.175,0.309
44.180,0.320
44.185,0.322
44.190,0.298
44.195,0.286
44.200,0.280
44.205,0.259
44.210,0.242
44.215,0.232
44.220,0.220
44.225,0.204
44.230,0.191
44.235,0.181
44.240,0.169
44.245,0.155
44.250,0.143
44.255,0.127
44.260,0.112
44.265,0.102
44.270,0.092
44.275,0.081
44.280,0.066
44.285,0.049
44.290,0.029
44.295,0.012
44.300,-0.001
44.305,-0.017
44.310,-0.035
44.315,-0.055
44.320,-0.076
44.325,-0.100
44.330,-0.123
44.335,-0.140
44.340,-0.161
44.345,-0.180
44.350,-0.195
44.355,-0.211
44.360,-0.224
44.365,-0.233
44.370,-0.234
44.375,-0.229
44.380,-0.207
44.385,-0.164
44.390,-0.106
44.395,-0.042
44.400,0.021
44.405,0.081
44.410,0.137
44.415,0.184
44.420,0.222
44.425,0.250
44.430,0.267
44.435,0.275
44.440,0.273
44.445,0.269
44.450,0.266
44.455,0.262
44.460,0.253
44.465,0.245
44.470,0.235
44.475,0.221
44.480,0.209
44.485,0.201
44.490,0.189
44.495,0.177
44.500,0.165
44.505,0.153
44.510,0.141
44.515,0.130
44.520,0.119
44.525,0.108
44.530,0.098
44.535,0.090
44.540,0.084
44.545,0.075
44.550,0.066
44.555,0.059
44.560,0.048
44.565,0.043
44.570,0.044
44.575,0.035
44.580,0.028
44.585,0.031
44.590,0.029
44.595,0.020
44.600,0.009
44.605,-0.001
44.610,0.005
44.615,0.012
44.620,0.009
44.625,-0.001
44.630,-0.013
44.635,-0.019
44.640,-0.022
44.645,-0.023
44.650,-0.020
44.655,-0.021
44.660,-0.021
44.665,-0.021
44.670,-0.024
44.675,-0.031
44.680,-0.041
44.685,-0.041
44.690,-0.036
44.695,-0.037
44.700,-0.040
44.705,-0.046
44.710,-0.051
44.715,-0.053
44.720,-0.055
44.725,-0.061
44.730,-0.081
44.735,-0.106
44.740,-0.121
44.745,-0.129
44.750,-0.133
44.755,-0.129
44.760,-0.126
44.765,-0.138
44.770,-0.162
44.775,-0.178
44.780,-0.169
44.785,-0.133
44.790,-0.096
44.795,-0.069
44.800,-0.033
44.805,-0.003
44.810,0.004
44.815,0.009
44.820,0.022
44.825,0.029
44.830,0.032
44.835,0.031
44.840,0.023
44.845,0.024
44.850,0.029
44.855,0.022
44.860,0.019
44.865,0.021
44.870,0.027
44.875,0.064
44.880,0.119
44.885,0.150
44.890,0.062
44.895,-0.243
44.900,-0.698
44.905,-1.157
44.910,-1.510
44.915,-1.584
44.920,-1.231
44.925,-0.677
44.930,-0.217
44.935,0.049
44.940,0.138
44.945,0.210
44.950,0.280
44.955,0.286
44.960,0.300
44.965,0.322
44.970,0.309
44.975,0.298
44.980,0.303
44.985,0.293
44.990,0.271
44.995,0.263
45.000,0.256
45.005,0.238
45.010,0.223
45.015,0.213
45.020,0.199
45.025,0.189
45.030,0.178
45.035,0.165
45.040,0.149
45.045,0.134
45.050,0.125
45.055,0.112
45.060,0.099
45.065,0.090
45.070,0.077
45.075,0.062
45.080,0.047
45.085,0.034
45.090,0.022
45.095,0.005
45.100,-0.013
45.105,-0.031
45.110,-0.049
45.115,-0.067
45.120,-0.086
45.125,-0.109
45.130,-0.131
45.135,-0.149
45.140,-0.167
45.145,-0.183
45.150,-0.196
45.155,-0.210
45.160,-0.221
45.165,-0.228
45.170,-0.228
45.175,-0.216
45.180,-0.188
45.185,-0.140
45.190,-0.084
45.195,-0.023
45.200,0.046
45.205,0.106
45.210,0.157
45.215,0.202
45.220,0.236
45.225,0.261
45.230,0.278
45.235,0.288
45.240,0.291
45.245,0.287
45.250,0.282
45.255,0.274
45.260,0.263
45.265,0.250
45.270,0.238
45.275,0.228
45.280,0.215
45.285,0.205
45.290,0.192
45.295,0.177
45.300,0.169
45.305,0.159
45.310,0.145
45.315,0.133
45.320,0.123
45.325,0.116
45.330,0.108
45.335,0.100
45.340,0.091
45.345,0.083
45.350,0.076
45.355,0.067
45.360,0.059
