'Elapsed time','ECG'
'seconds','mV'
0.000,0.023
0.005,0.013
0.010,0.014
0.015,0.011
0.020,-0.012
0.025,-0.053
0.030,-0.088
0.035,-0.091
0.040,-0.084
0.045,-0.076
0.050,-0.063
0.055,-0.049
0.060,-0.016
0.065,0.027
0.070,0.058
0.075,0.087
0.080,0.115
0.085,0.146
0.090,0.171
0.095,0.183
0.100,0.184
0.105,0.176
0.110,0.170
0.115,0.165
0.120,0.163
0.125,0.165
0.130,0.152
0.135,0.131
0.140,0.078
0.145,-0.029
0.150,-0.151
0.155,-0.303
0.160,-0.530
0.165,-0.760
0.170,-0.709
0.175,-0.340
0.180,0.036
0.185,0.314
0.190,0.452
0.195,0.482
0.200,0.468
0.205,0.348
0.210,0.229
0.215,0.210
0.220,0.201
0.225,0.185
0.230,0.187
0.235,0.169
0.240,0.143
0.245,0.143
0.250,0.143
0.255,0.122
0.260,0.109
0.265,0.102
0.270,0.088
0.275,0.081
0.280,0.081
0.285,0.080
0.290,0.074
0.295,0.065
0.300,0.062
0.305,0.055
0.310,0.044
0.315,0.035
0.320,0.016
0.325,0.005
0.330,0.010
0.335,0.010
0.340,0.003
0.345,-0.008
0.350,-0.022
0.355,-0.026
0.360,-0.027
0.365,-0.044
0.370,-0.061
0.375,-0.070
0.380,-0.083
0.385,-0.090
0.390,-0.102
0.395,-0.121
0.400,-0.136
0.405,-0.151
0.410,-0.171
0.415,-0.195
0.420,-0.218
0.425,-0.238
0.430,-0.250
0.435,-0.261
0.440,-0.276
0.445,-0.288
0.450,-0.294
0.455,-0.299
0.460,-0.294
0.465,-0.285
0.470,-0.278
0.475,-0.263
0.480,-0.235
0.485,-0.187
0.490,-0.134
0.495,-0.086
0.500,-0.032
0.505,0.031
0.510,0.093
0.515,0.146
0.520,0.184
0.525,0.219
0.530,0.253
0.535,0.279
0.540,0.301
0.545,0.318
0.550,0.324
0.555,0.318
0.560,0.308
0.565,0.302
0.570,0.305
0.575,0.307
0.580,0.293
0.585,0.274
0.590,0.258
0.595,0.249
0.600,0.240
0.605,0.225
0.610,0.213
0.615,0.206
0.620,0.196
0.625,0.176
0.630,0.151
0.635,0.126
0.640,0.104
0.645,0.081
0.650,0.048
0.655,0.008
0.660,-0.040
0.665,-0.093
0.670,-0.149
0.675,-0.234
0.680,-0.391
0.685,-0.587
0.690,-0.756
0.695,-0.894
0.700,-1.021
0.705,-1.113
0.710,-1.128
0.715,-1.101
0.720,-1.056
0.725,-0.993
0.730,-0.924
0.735,-0.850
0.740,-0.786
0.745,-0.666
0.750,-0.446
0.755,-0.243
0.760,-0.126
0.765,-0.015
0.770,0.168
0.775,0.428
0.780,0.706
0.785,0.934
0.790,1.083
0.795,1.141
0.800,1.123
0.805,1.096
0.810,1.083
0.815,1.059
0.820,1.008
0.825,0.928
0.830,0.843
0.835,0.783
0.840,0.752
0.845,0.744
0.850,0.729
0.855,0.682
0.860,0.635
0.865,0.608
0.870,0.578
0.875,0.539
0.880,0.505
0.885,0.485
0.890,0.468
0.895,0.443
0.900,0.416
0.905,0.393
0.910,0.371
0.915,0.347
0.920,0.328
0.925,0.322
0.930,0.312
0.935,0.295
0.940,0.270
0.945,0.251
0.950,0.238
0.955,0.217
0.960,0.199
0.965,0.185
0.970,0.172
0.975,0.156
0.980,0.129
0.985,0.102
0.990,0.076
0.995,0.044
1.000,0.001
1.005,-0.049
1.010,-0.099
1.015,-0.147
1.020,-0.198
1.025,-0.252
1.030,-0.314
1.035,-0.373
1.040,-0.421
1.045,-0.470
1.050,-0.510
1.055,-0.537
1.060,-0.561
1.065,-0.575
1.070,-0.587
1.075,-0.594
1.080,-0.585
1.085,-0.579
1.090,-0.566
1.095,-0.536
1.100,-0.501
1.105,-0.466
1.110,-0.434
1.115,-0.411
1.120,-0.388
1.125,-0.362
1.130,-0.335
1.135,-0.303
1.140,-0.279
1.145,-0.267
1.150,-0.252
1.155,-0.232
1.160,-0.215
1.165,-0.208
1.170,-0.202
1.175,-0.190
1.180,-0.173
1.185,-0.160
1.190,-0.160
1.195,-0.160
1.200,-0.149
1.205,-0.136
1.210,-0.132
1.215,-0.122
1.220,-0.114
1.225,-0.107
1.230,-0.095
1.235,-0.088
1.240,-0.080
1.245,-0.076
1.250,-0.078
1.255,-0.071
1.260,-0.058
1.265,-0.050
1.270,-0.050
1.275,-0.049
1.280,-0.044
1.285,-0.040
1.290,-0.031
1.295,-0.025
1.300,-0.020
1.305,-0.009
1.310,-0.009
1.315,-0.013
1.320,-0.008
1.325,0.000
1.330,0.006
1.335,0.004
1.340,0.000
1.345,0.006
1.350,0.008
1.355,0.008
1.360,0.016
1.365,0.021
1.370,0.023
1.375,0.026
1.380,0.021
1.385,0.019
1.390,0.020
1.395,0.020
1.400,0.025
1.405,0.029
1.410,0.029
1.415,0.029
1.420,0.028
1.425,0.030
1.430,0.032
1.435,0.031
1.440,0.029
1.445,0.029
1.450,0.032
1.455,0.035
1.460,0.036
1.465,0.038
1.470,0.038
1.475,0.034
1.480,0.030
1.485,0.032
1.490,0.034
1.495,0.028
1.500,0.026
1.505,0.031
1.510,0.032
1.515,0.030
1.520,0.031
1.525,0.031
1.530,0.031
1.535,0.032
1.540,0.032
1.545,0.033
1.550,0.034
1.555,0.031
1.560,0.030
1.565,0.032
1.570,0.029
1.575,0.027
1.580,0.029
1.585,0.032
1.590,0.035
1.595,0.034
1.600,0.023
1.605,0.013
1.610,0.017
1.615,0.023
1.620,0.029
1.625,0.033
1.630,0.031
1.635,0.030
1.640,0.030
1.645,0.029
1.650,0.027
1.655,0.023
1.660,0.020
1.665,0.023
1.670,0.025
1.675,0.023
1.680,0.020
1.685,0.017
1.690,0.015
1.695,0.019
1.700,0.022
1.705,0.019
1.710,0.014
1.715,0.013
1.720,0.013
1.725,0.015
1.730,0.014
1.735,0.010
1.740,0.012
1.745,0.004
1.750,-0.012
1.755,-0.024
1.760,-0.036
1.765,-0.044
1.770,-0.048
1.775,-0.054
1.780,-0.063
1.785,-0.081
1.790,-0.119
1.795,-0.158
1.800,-0.163
1.805,-0.153
1.810,-0.132
1.815,-0.102
1.820,-0.084
1.825,-0.059
1.830,-0.025
1.835,0.013
1.840,0.050
1.845,0.078
1.850,0.100
1.855,0.120
1.860,0.133
1.865,0.135
1.870,0.133
1.875,0.137
1.880,0.133
1.885,0.124
1.890,0.115
1.895,0.089
1.900,0.015
1.905,-0.089
1.910,-0.197
1.915,-0.377
1.920,-0.646
1.925,-0.784
1.930,-0.556
1.935,-0.164
1.940,0.138
1.945,0.339
1.950,0.424
1.955,0.463
1.960,0.421
1.965,0.285
1.970,0.223
1.975,0.213
1.980,0.174
1.985,0.166
1.990,0.172
1.995,0.148
2.000,0.133
2.005,0.132
2.010,0.122
2.015,0.106
2.020,0.097
2.025,0.091
2.030,0.085
2.035,0.083
2.040,0.075
2.045,0.066
2.050,0.065
2.055,0.060
2.060,0.049
2.065,0.040
2.070,0.034
2.075,0.027
2.080,0.018
2.085,0.011
2.090,0.005
2.095,-0.003
2.100,-0.012
2.105,-0.021
2.110,-0.031
2.115,-0.038
2.120,-0.043
2.125,-0.050
2.130,-0.062
2.135,-0.075
2.140,-0.081
2.145,-0.086
2.150,-0.094
2.155,-0.105
2.160,-0.121
2.165,-0.138
2.170,-0.149
2.175,-0.161
2.180,-0.175
2.185,-0.189
2.190,-0.203
2.195,-0.210
2.200,-0.215
2.205,-0.220
2.210,-0.222
2.215,-0.221
2.220,-0.220
2.225,-0.218
2.230,-0.217
2.235,-0.212
2.240,-0.204
2.245,-0.192
2.250,-0.174
2.255,-0.148
2.260,-0.113
2.265,-0.075
2.270,-0.034
2.275,0.011
2.280,0.054
2.285,0.093
2.290,0.130
2.295,0.168
2.300,0.204
2.305,0.232
2.310,0.250
2.315,0.261
2.320,0.267
2.325,0.270
2.330,0.269
2.335,0.266
2.340,0.260
2.345,0.249
2.350,0.239
2.355,0.230
2.360,0.220
2.365,0.208
2.370,0.195
2.375,0.184
2.380,0.172
2.385,0.161
2.390,0.150
2.395,0.137
2.400,0.124
2.405,0.118
2.410,0.112
2.415,0.101
2.420,0.093
2.425,0.086
2.430,0.077
2.435,0.067
2.440,0.057
2.445,0.051
2.450,0.050
2.455,0.047
2.460,0.042
2.465,0.038
2.470,0.035
2.475,0.032
2.480,0.029
2.485,0.026
2.490,0.023
2.495,0.020
2.500,0.020
2.505,0.020
2.510,0.020
2.515,0.019
2.520,0.015
2.525,0.013
2.530,0.014
2.535,0.010
2.540,0.006
2.545,0.007
2.550,0.005
2.555,0.004
2.560,0.003
2.565,-0.001
2.570,-0.006
2.575,-0.009
2.580,-0.011
2.585,-0.012
2.590,-0.014
2.595,-0.021
2.600,-0.032
2.605,-0.048
2.610,-0.067
2.615,-0.081
2.620,-0.096
2.625,-0.107
2.630,-0.111
2.635,-0.112
2.640,-0.124
2.645,-0.163
2.650,-0.203
2.655,-0.211
2.660,-0.199
2.665,-0.183
2.670,-0.158
2.675,-0.136
2.680,-0.109
2.685,-0.076
2.690,-0.046
2.695,-0.011
2.700,0.018
2.705,0.041
2.710,0.065
2.715,0.080
2.720,0.084
2.725,0.086
2.730,0.084
2.735,0.081
2.740,0.079
2.745,0.080
2.750,0.077
2.755,0.054
2.760,-0.006
2.765,-0.108
2.770,-0.215
2.775,-0.337
2.780,-0.544
2.785,-0.778
2.790,-0.750
2.795,-0.401
2.800,-0.029
2.805,0.236
2.810,0.363
2.815,0.397
2.820,0.392
2.825,0.281
2.830,0.160
2.835,0.133
2.840,0.119
2.845,0.100
2.850,0.111
2.855,0.101
2.860,0.076
2.865,0.073
2.870,0.068
2.875,0.052
2.880,0.046
2.885,0.046
2.890,0.040
2.895,0.032
2.900,0.028
2.905,0.021
2.910,0.013
2.915,0.009
2.920,0.004
2.925,-0.003
2.930,-0.010
2.935,-0.014
2.940,-0.021
2.945,-0.030
2.950,-0.033
2.955,-0.036
2.960,-0.042
2.965,-0.049
2.970,-0.055
2.975,-0.060
2.980,-0.069
2.985,-0.080
2.990,-0.085
2.995,-0.090
3.000,-0.098
3.005,-0.111
3.010,-0.125
3.015,-0.138
3.020,-0.154
3.025,-0.170
3.030,-0.185
3.035,-0.202
3.040,-0.217
3.045,-0.231
3.050,-0.244
3.055,-0.256
3.060,-0.267
3.065,-0.278
3.070,-0.284
3.075,-0.283
3.080,-0.277
3.085,-0.267
3.090,-0.259
3.095,-0.242
3.100,-0.214
3.105,-0.183
3.110,-0.145
3.115,-0.097
3.120,-0.046
3.125,0.010
3.130,0.062
3.135,0.112
3.140,0.159
3.145,0.198
3.150,0.233
3.155,0.260
3.160,0.279
3.165,0.289
3.170,0.297
3.175,0.303
3.180,0.302
3.185,0.301
3.190,0.298
3.195,0.291
3.200,0.283
3.205,0.270
3.210,0.259
3.215,0.249
3.220,0.238
3.225,0.233
3.230,0.222
3.235,0.206
3.240,0.193
3.245,0.185
3.250,0.177
3.255,0.159
3.260,0.142
3.265,0.133
3.270,0.123
3.275,0.108
3.280,0.089
3.285,0.082
3.290,0.080
3.295,0.067
3.300,0.052
3.305,0.042
3.310,0.038
3.315,0.035
3.320,0.030
3.325,0.028
3.330,0.021
3.335,0.011
3.340,0.009
3.345,0.010
3.350,0.010
3.355,0.009
3.360,0.007
3.365,0.005
3.370,0.000
3.375,-0.006
3.380,-0.006
3.385,-0.007
3.390,-0.011
3.395,-0.015
3.400,-0.013
3.405,-0.010
3.410,-0.009
3.415,-0.008
3.420,-0.010
3.425,-0.014
3.430,-0.019
3.435,-0.021
3.440,-0.024
3.445,-0.034
3.450,-0.042
3.455,-0.053
3.460,-0.072
3.465,-0.088
3.470,-0.097
3.475,-0.101
3.480,-0.104
3.485,-0.115
3.490,-0.133
3.495,-0.164
3.500,-0.202
3.505,-0.214
3.510,-0.205
3.515,-0.193
3.520,-0.167
3.525,-0.135
3.530,-0.109
3.535,-0.085
3.540,-0.057
3.545,-0.018
3.550,0.020
3.555,0.043
3.560,0.063
3.565,0.077
3.570,0.083
3.575,0.087
3.580,0.085
3.585,0.081
3.590,0.077
3.595,0.077
3.600,0.073
3.605,0.043
3.610,-0.020
3.615,-0.108
3.620,-0.196
3.625,-0.306
3.630,-0.513
3.635,-0.752
3.640,-0.735
3.645,-0.395
3.650,-0.032
3.655,0.221
3.660,0.349
3.665,0.388
3.670,0.394
3.675,0.302
3.680,0.182
3.685,0.141
3.690,0.121
3.695,0.102
3.700,0.110
3.705,0.104
3.710,0.077
3.715,0.071
3.720,0.069
3.725,0.055
3.730,0.055
3.735,0.055
3.740,0.043
3.745,0.037
3.750,0.037
3.755,0.030
3.760,0.013
3.765,0.006
3.770,0.008
3.775,0.004
3.780,0.001
3.785,-0.003
3.790,-0.012
3.795,-0.019
3.800,-0.025
3.805,-0.031
3.810,-0.036
3.815,-0.041
3.820,-0.045
3.825,-0.051
3.830,-0.062
3.835,-0.072
3.840,-0.080
3.845,-0.092
3.850,-0.102
3.855,-0.109
3.860,-0.116
3.865,-0.127
3.870,-0.143
3.875,-0.159
3.880,-0.176
3.885,-0.191
3.890,-0.205
3.895,-0.221
3.900,-0.237
3.905,-0.261
3.910,-0.278
3.915,-0.277
3.920,-0.273
3.925,-0.273
3.930,-0.276
3.935,-0.278
3.940,-0.269
3.945,-0.246
3.950,-0.217
3.955,-0.182
3.960,-0.138
3.965,-0.094
3.970,-0.047
3.975,0.010
3.980,0.067
3.985,0.116
3.990,0.157
3.995,0.195
4.000,0.239
4.005,0.278
4.010,0.295
4.015,0.300
4.020,0.305
4.025,0.306
4.030,0.308
4.035,0.315
4.040,0.312
4.045,0.296
4.050,0.280
4.055,0.275
4.060,0.275
4.065,0.265
4.070,0.246
4.075,0.231
4.080,0.223
4.085,0.214
4.090,0.192
4.095,0.175
4.100,0.175
4.105,0.170
4.110,0.160
4.115,0.139
4.120,0.111
4.125,0.096
4.130,0.091
4.135,0.091
4.140,0.086
4.145,0.074
4.150,0.061
4.155,0.048
4.160,0.028
4.165,0.010
4.170,-0.001
4.175,-0.017
4.180,-0.042
4.185,-0.069
4.190,-0.097
4.195,-0.127
4.200,-0.169
4.205,-0.213
4.210,-0.277
4.215,-0.406
4.220,-0.567
4.225,-0.704
4.230,-0.816
4.235,-0.911
4.240,-0.989
4.245,-1.026
4.250,-1.018
4.255,-1.011
4.260,-1.004
4.265,-0.955
4.270,-0.884
4.275,-0.842
4.280,-0.822
4.285,-0.752
4.290,-0.601
4.295,-0.450
4.300,-0.357
4.305,-0.252
4.310,-0.059
4.315,0.227
4.320,0.576
4.325,0.895
4.330,1.095
4.335,1.155
4.340,1.110
4.345,1.044
4.350,1.012
4.355,1.003
4.360,0.985
4.365,0.961
4.370,0.925
4.375,0.881
4.380,0.861
4.385,0.851
4.390,0.825
4.395,0.792
4.400,0.754
4.405,0.709
4.410,0.677
4.415,0.659
4.420,0.639
4.425,0.610
4.430,0.584
4.435,0.554
4.440,0.526
4.445,0.510
4.450,0.484
4.455,0.460
4.460,0.449
4.465,0.432
4.470,0.415
4.475,0.397
4.480,0.381
4.485,0.372
4.490,0.356
4.495,0.332
4.500,0.313
4.505,0.307
4.510,0.298
4.515,0.272
4.520,0.244
4.525,0.223
4.530,0.189
4.535,0.141
4.540,0.095
4.545,0.050
4.550,0.006
4.555,-0.043
4.560,-0.105
4.565,-0.170
4.570,-0.235
4.575,-0.305
4.580,-0.374
4.585,-0.423
4.590,-0.464
4.595,-0.512
4.600,-0.551
4.605,-0.589
4.610,-0.625
4.615,-0.647
4.620,-0.671
4.625,-0.680
4.630,-0.668
4.635,-0.651
4.640,-0.628
4.645,-0.597
4.650,-0.567
4.655,-0.544
4.660,-0.523
4.665,-0.497
4.670,-0.471
4.675,-0.445
4.680,-0.415
4.685,-0.384
4.690,-0.358
4.695,-0.343
4.700,-0.329
4.705,-0.317
4.710,-0.308
4.715,-0.293
4.720,-0.275
4.725,-0.255
4.730,-0.236
4.735,-0.232
4.740,-0.223
4.745,-0.203
4.750,-0.191
4.755,-0.190
4.760,-0.191
4.765,-0.181
4.770,-0.161
4.775,-0.149
4.780,-0.148
4.785,-0.140
4.790,-0.120
4.795,-0.105
4.800,-0.105
4.805,-0.103
4.810,-0.094
4.815,-0.083
4.820,-0.072
4.825,-0.065
4.830,-0.059
4.835,-0.053
4.840,-0.049
4.845,-0.042
4.850,-0.031
4.855,-0.020
4.860,-0.019
4.865,-0.018
4.870,-0.013
4.875,-0.006
4.880,0.003
4.885,0.005
4.890,0.005
4.895,0.012
4.900,0.013
4.905,0.016
4.910,0.026
4.915,0.030
4.920,0.031
4.925,0.031
4.930,0.036
4.935,0.041
4.940,0.035
4.945,0.034
4.950,0.044
4.955,0.053
4.960,0.052
4.965,0.046
4.970,0.045
4.975,0.051
4.980,0.059
4.985,0.060
4.990,0.053
4.995,0.047
5.000,0.050
5.005,0.059
5.010,0.063
5.015,0.058
5.020,0.055
5.025,0.061
5.030,0.057
5.035,0.049
5.040,0.061
5.045,0.076
5.050,0.073
5.055,0.063
5.060,0.057
5.065,0.055
5.070,0.053
5.075,0.044
5.080,0.043
5.085,0.063
5.090,0.075
5.095,0.070
5.100,0.058
5.105,0.052
5.110,0.057
5.115,0.057
5.120,0.049
5.125,0.041
5.130,0.043
5.135,0.058
5.140,0.056
5.145,0.045
5.150,0.047
5.155,0.051
5.160,0.056
5.165,0.054
5.170,0.050
5.175,0.055
5.180,0.036
5.185,0.006
5.190,-0.010
5.195,-0.025
5.200,-0.020
5.205,-0.018
5.210,-0.025
5.215,-0.021
5.220,-0.048
5.225,-0.099
5.230,-0.131
5.235,-0.139
5.240,-0.128
5.245,-0.112
5.250,-0.096
5.255,-0.070
5.260,-0.029
5.265,0.012
5.270,0.037
5.275,0.062
5.280,0.094
5.285,0.120
5.290,0.144
5.295,0.154
5.300,0.147
5.305,0.145
5.310,0.147
5.315,0.143
5.320,0.143
5.325,0.138
5.330,0.100
5.335,0.018
5.340,-0.083
5.345,-0.174
5.350,-0.325
5.355,-0.576
5.360,-0.719
5.365,-0.506
5.370,-0.134
5.375,0.147
5.380,0.347
5.385,0.434
5.390,0.453
5.395,0.407
5.400,0.287
5.405,0.219
5.410,0.194
5.415,0.153
5.420,0.145
5.425,0.158
5.430,0.139
5.435,0.123
5.440,0.136
5.445,0.126
5.450,0.094
5.455,0.090
5.460,0.092
5.465,0.078
5.470,0.067
5.475,0.068
5.480,0.063
5.485,0.059
5.490,0.057
5.495,0.036
5.500,0.018
5.505,0.015
5.510,0.012
5.515,0.014
5.520,0.025
5.525,0.026
5.530,0.009
5.535,-0.012
5.540,-0.029
5.545,-0.037
5.550,-0.044
5.555,-0.051
5.560,-0.061
5.565,-0.069
5.570,-0.074
5.575,-0.082
5.580,-0.090
5.585,-0.108
5.590,-0.127
5.595,-0.124
5.600,-0.126
5.605,-0.152
5.610,-0.178
5.615,-0.193
5.620,-0.198
5.625,-0.201
5.630,-0.219
5.635,-0.235
5.640,-0.230
5.645,-0.226
5.650,-0.230
5.655,-0.228
5.660,-0.227
5.665,-0.220
5.670,-0.209
5.675,-0.204
5.680,-0.187
5.685,-0.160
5.690,-0.138
5.695,-0.100
5.700,-0.047
5.705,-0.002
5.710,0.045
5.715,0.094
5.720,0.139
5.725,0.176
5.730,0.199
5.735,0.224
5.740,0.254
5.745,0.267
5.750,0.272
5.755,0.276
5.760,0.268
5.765,0.268
5.770,0.276
5.775,0.268
5.780,0.252
5.785,0.246
5.790,0.239
5.795,0.228
5.800,0.208
5.805,0.187
5.810,0.183
5.815,0.170
5.820,0.145
5.825,0.134
5.830,0.128
5.835,0.117
5.840,0.113
5.845,0.109
5.850,0.090
5.855,0.077
5.860,0.077
5.865,0.072
5.870,0.057
5.875,0.043
5.880,0.037
5.885,0.037
5.890,0.039
5.895,0.028
5.900,0.025
5.905,0.036
5.910,0.035
5.915,0.026
5.920,0.019
5.925,0.016
5.930,0.017
5.935,0.010
5.940,0.007
5.945,0.008
5.950,0.010
5.955,0.011
5.960,0.008
5.965,0.007
5.970,0.004
5.975,0.000
5.980,0.006
5.985,0.006
5.990,-0.002
5.995,-0.010
6.000,-0.013
6.005,-0.021
6.010,-0.032
6.015,-0.045
6.020,-0.062
6.025,-0.069
6.030,-0.077
6.035,-0.089
6.040,-0.091
6.045,-0.101
6.050,-0.139
6.055,-0.185
6.060,-0.208
6.065,-0.205
6.070,-0.191
6.075,-0.166
6.080,-0.150
6.085,-0.128
6.090,-0.087
6.095,-0.056
6.100,-0.021
6.105,0.010
6.110,0.034
6.115,0.068
6.120,0.082
6.125,0.081
6.130,0.088
6.135,0.090
6.140,0.079
6.145,0.068
6.150,0.071
6.155,0.067
6.160,0.046
6.165,0.005
6.170,-0.077
6.175,-0.183
6.180,-0.304
6.185,-0.497
6.190,-0.753
6.195,-0.821
6.200,-0.534
6.205,-0.140
6.210,0.160
6.215,0.334
6.220,0.393
6.225,0.402
6.230,0.311
6.235,0.180
6.240,0.144
6.245,0.132
6.250,0.099
6.255,0.098
6.260,0.102
6.265,0.083
6.270,0.072
6.275,0.075
6.280,0.066
6.285,0.054
6.290,0.052
6.295,0.042
6.300,0.033
6.305,0.030
6.310,0.020
6.315,0.014
6.320,0.010
6.325,0.006
6.330,0.002
6.335,-0.007
6.340,-0.015
6.345,-0.014
6.350,-0.020
6.355,-0.031
6.360,-0.036
6.365,-0.039
6.370,-0.045
6.375,-0.052
6.380,-0.063
6.385,-0.066
6.390,-0.070
6.395,-0.084
6.400,-0.097
6.405,-0.105
6.410,-0.110
6.415,-0.123
6.420,-0.140
6.425,-0.153
6.430,-0.169
6.435,-0.189
6.440,-0.212
6.445,-0.237
6.450,-0.248
6.455,-0.253
6.460,-0.267
6.465,-0.282
6.470,-0.291
6.475,-0.295
6.480,-0.293
6.485,-0.288
6.490,-0.282
6.495,-0.275
6.500,-0.263
6.505,-0.242
6.510,-0.201
6.515,-0.149
6.520,-0.100
6.525,-0.043
6.530,0.016
6.535,0.071
6.540,0.127
6.545,0.179
6.550,0.221
6.555,0.249
6.560,0.275
6.565,0.299
6.570,0.309
6.575,0.311
6.580,0.316
6.585,0.320
6.590,0.314
6.595,0.308
6.600,0.300
6.605,0.295
6.610,0.291
6.615,0.278
6.620,0.267
6.625,0.255
6.630,0.240
6.635,0.232
6.640,0.225
6.645,0.211
6.650,0.199
6.655,0.183
6.660,0.162
6.665,0.150
6.670,0.147
6.675,0.138
6.680,0.115
6.685,0.094
6.690,0.081
6.695,0.069
6.700,0.060
6.705,0.055
6.710,0.049
6.715,0.042
6.720,0.033
6.725,0.024
6.730,0.023
6.735,0.021
6.740,0.019
6.745,0.017
6.750,0.005
6.755,-0.010
6.760,-0.010
6.765,-0.003
6.770,-0.009
6.775,-0.021
6.780,-0.022
6.785,-0.012
6.790,-0.004
6.795,-0.011
6.800,-0.019
6.805,-0.012
6.810,-0.004
6.815,-0.010
6.820,-0.024
6.825,-0.028
6.830,-0.027
6.835,-0.029
6.840,-0.034
6.845,-0.043
6.850,-0.063
6.855,-0.081
6.860,-0.086
6.865,-0.088
6.870,-0.096
6.875,-0.105
6.880,-0.112
6.885,-0.121
6.890,-0.159
6.895,-0.208
6.900,-0.219
6.905,-0.209
6.910,-0.190
6.915,-0.164
6.920,-0.146
6.925,-0.117
6.930,-0.083
6.935,-0.058
6.940,-0.026
6.945,0.012
6.950,0.045
6.955,0.074
6.960,0.085
6.965,0.079
6.970,0.075
6.975,0.074
6.980,0.073
6.985,0.074
6.990,0.075
6.995,0.064
7.000,0.035
7.005,-0.026
7.010,-0.131
7.015,-0.246
7.020,-0.395
7.025,-0.633
7.030,-0.858
7.035,-0.772
7.040,-0.382
7.045,0.010
7.050,0.289
7.055,0.399
7.060,0.417
7.065,0.394
7.070,0.270
7.075,0.167
7.080,0.149
7.085,0.131
7.090,0.118
7.095,0.126
7.100,0.117
7.105,0.094
7.110,0.083
7.115,0.078
7.120,0.068
7.125,0.065
7.130,0.061
7.135,0.050
7.140,0.043
7.145,0.041
7.150,0.032
7.155,0.024
7.160,0.020
7.165,0.015
7.170,0.008
7.175,0.004
7.180,0.000
7.185,-0.005
7.190,-0.007
7.195,-0.020
7.200,-0.040
7.205,-0.044
7.210,-0.041
7.215,-0.046
7.220,-0.056
7.225,-0.062
7.230,-0.065
7.235,-0.072
7.240,-0.085
7.245,-0.097
7.250,-0.107
7.255,-0.124
7.260,-0.140
7.265,-0.152
7.270,-0.165
7.275,-0.183
7.280,-0.207
7.285,-0.229
7.290,-0.250
7.295,-0.268
7.300,-0.279
7.305,-0.290
7.310,-0.299
7.315,-0.302
7.320,-0.302
7.325,-0.298
7.330,-0.292
7.335,-0.281
7.340,-0.262
7.345,-0.235
7.350,-0.189
7.355,-0.133
7.360,-0.079
7.365,-0.024
7.370,0.033
7.375,0.092
7.380,0.145
7.385,0.190
7.390,0.229
7.395,0.263
7.400,0.289
7.405,0.304
7.410,0.314
7.415,0.319
7.420,0.317
7.425,0.313
7.430,0.310
7.435,0.308
7.440,0.301
7.445,0.293
7.450,0.282
7.455,0.270
7.460,0.260
7.465,0.253
7.470,0.245
7.475,0.235
7.480,0.223
7.485,0.208
7.490,0.188
7.495,0.171
7.500,0.160
7.505,0.153
7.510,0.143
7.515,0.130
7.520,0.118
7.525,0.102
7.530,0.072
7.535,0.040
7.540,0.020
7.545,0.005
7.550,-0.016
7.555,-0.055
7.560,-0.104
7.565,-0.149
7.570,-0.192
7.575,-0.255
7.580,-0.383
7.585,-0.566
7.590,-0.731
7.595,-0.855
7.600,-0.963
7.605,-1.058
7.610,-1.097
7.615,-1.076
7.620,-1.032
7.625,-0.971
7.630,-0.895
7.635,-0.828
7.640,-0.788
7.645,-0.739
7.650,-0.605
7.655,-0.417
7.660,-0.284
7.665,-0.203
7.670,-0.081
7.675,0.132
7.680,0.429
7.685,0.735
7.690,0.966
7.695,1.090
7.700,1.109
7.705,1.081
7.710,1.066
7.715,1.066
7.720,1.044
7.725,0.981
7.730,0.897
7.735,0.828
7.740,0.791
7.745,0.780
7.750,0.766
7.755,0.734
7.760,0.698
7.765,0.669
7.770,0.640
7.775,0.608
7.780,0.576
7.785,0.547
7.790,0.524
7.795,0.501
7.800,0.475
7.805,0.456
7.810,0.443
7.815,0.425
7.820,0.404
7.825,0.384
7.830,0.367
7.835,0.357
7.840,0.347
7.845,0.332
7.850,0.314
7.855,0.293
7.860,0.277
7.865,0.266
7.870,0.253
7.875,0.240
7.880,0.221
7.885,0.201
7.890,0.174
7.895,0.136
7.900,0.093
7.905,0.050
7.910,0.002
7.915,-0.049
7.920,-0.102
7.925,-0.159
7.930,-0.221
7.935,-0.284
7.940,-0.343
7.945,-0.400
7.950,-0.457
7.955,-0.511
7.960,-0.557
7.965,-0.593
7.970,-0.619
7.975,-0.635
7.980,-0.644
7.985,-0.646
7.990,-0.639
7.995,-0.625
8.000,-0.604
8.005,-0.580
8.010,-0.551
8.015,-0.521
8.020,-0.491
8.025,-0.460
8.030,-0.431
8.035,-0.402
8.040,-0.374
8.045,-0.351
8.050,-0.330
8.055,-0.314
8.060,-0.298
8.065,-0.277
8.070,-0.260
8.075,-0.249
8.080,-0.240
8.085,-0.226
8.090,-0.211
8.095,-0.200
8.100,-0.193
8.105,-0.185
8.110,-0.173
8.115,-0.161
8.120,-0.150
8.125,-0.142
8.130,-0.133
8.135,-0.127
8.140,-0.123
8.145,-0.113
8.150,-0.099
8.155,-0.089
8.160,-0.081
8.165,-0.076
8.170,-0.070
8.175,-0.061
8.180,-0.055
8.185,-0.050
8.190,-0.045
8.195,-0.041
8.200,-0.035
8.205,-0.030
8.210,-0.025
8.215,-0.019
8.220,-0.012
8.225,-0.006
8.230,-0.002
8.235,0.000
8.240,-0.001
8.245,0.002
8.250,0.012
8.255,0.020
8.260,0.022
8.265,0.020
8.270,0.022
8.275,0.027
8.280,0.026
8.285,0.027
8.290,0.030
8.295,0.032
8.300,0.035
8.305,0.039
8.310,0.042
8.315,0.043
8.320,0.042
8.325,0.040
8.330,0.042
8.335,0.045
8.340,0.046
8.345,0.042
8.350,0.041
8.355,0.044
8.360,0.047
8.365,0.050
8.370,0.050
8.375,0.048
8.380,0.047
8.385,0.047
8.390,0.043
8.395,0.042
8.400,0.046
8.405,0.047
8.410,0.050
8.415,0.051
8.420,0.050
8.425,0.053
8.430,0.052
8.435,0.048
8.440,0.048
8.445,0.046
8.450,0.044
8.455,0.044
8.460,0.044
8.465,0.047
8.470,0.048
8.475,0.048
8.480,0.048
8.485,0.046
8.490,0.042
8.495,0.040
8.500,0.041
8.505,0.042
8.510,0.042
8.515,0.042
8.520,0.039
8.525,0.037
8.530,0.036
8.535,0.037
8.540,0.039
8.545,0.039
8.550,0.037
8.555,0.037
8.560,0.038
8.565,0.033
8.570,0.018
8.575,0.000
8.580,-0.013
8.585,-0.023
8.590,-0.033
8.595,-0.041
8.600,-0.047
8.605,-0.054
8.610,-0.076
8.615,-0.117
8.620,-0.148
8.625,-0.148
8.630,-0.143
8.635,-0.125
8.640,-0.091
8.645,-0.064
8.650,-0.031
8.655,0.000
8.660,0.036
8.665,0.075
8.670,0.097
8.675,0.116
8.680,0.137
8.685,0.153
8.690,0.153
8.695,0.143
8.700,0.141
8.705,0.142
8.710,0.140
8.715,0.130
8.720,0.096
8.725,0.019
8.730,-0.084
8.735,-0.189
8.740,-0.355
8.745,-0.607
8.750,-0.754
8.755,-0.548
8.760,-0.155
8.765,0.158
8.770,0.365
8.775,0.445
8.780,0.468
8.785,0.418
8.790,0.279
8.795,0.206
8.800,0.198
8.805,0.173
8.810,0.166
8.815,0.173
8.820,0.149
8.825,0.129
8.830,0.125
8.835,0.114
8.840,0.102
8.845,0.100
8.850,0.097
8.855,0.084
8.860,0.076
8.865,0.070
8.870,0.060
8.875,0.054
8.880,0.052
8.885,0.047
8.890,0.039
8.895,0.033
8.900,0.023
8.905,0.013
8.910,0.006
8.915,0.000
8.920,-0.008
8.925,-0.015
8.930,-0.021
8.935,-0.030
8.940,-0.039
8.945,-0.046
8.950,-0.054
8.955,-0.063
8.960,-0.073
8.965,-0.083
8.970,-0.092
8.975,-0.105
8.980,-0.119
8.985,-0.130
8.990,-0.143
8.995,-0.158
9.000,-0.174
9.005,-0.191
9.010,-0.204
9.015,-0.214
9.020,-0.224
9.025,-0.233
9.030,-0.242
9.035,-0.247
9.040,-0.247
9.045,-0.243
9.050,-0.238
9.055,-0.233
9.060,-0.227
9.065,-0.216
9.070,-0.199
9.075,-0.175
9.080,-0.143
9.085,-0.104
9.090,-0.060
9.095,-0.014
9.100,0.034
9.105,0.080
9.110,0.124
9.115,0.163
9.120,0.198
9.125,0.225
9.130,0.245
9.135,0.262
9.140,0.271
9.145,0.277
9.150,0.282
9.155,0.282
9.160,0.279
9.165,0.274
9.170,0.264
9.175,0.254
9.180,0.242
9.185,0.231
9.190,0.221
9.195,0.207
9.200,0.193
9.205,0.180
9.210,0.168
9.215,0.155
9.220,0.143
9.225,0.134
9.230,0.125
9.235,0.112
9.240,0.099
9.245,0.088
9.250,0.078
9.255,0.071
9.260,0.066
9.265,0.061
9.270,0.053
9.275,0.044
9.280,0.040
9.285,0.037
9.290,0.032
9.295,0.026
9.300,0.023
9.305,0.019
9.310,0.014
9.315,0.011
9.320,0.011
9.325,0.013
9.330,0.014
9.335,0.013
9.340,0.009
9.345,0.005
9.350,0.003
9.355,0.003
9.360,0.005
9.365,0.005
9.370,0.002
9.375,0.001
9.380,-0.003
9.385,-0.007
9.390,-0.011
9.395,-0.025
9.400,-0.046
9.405,-0.065
9.410,-0.079
9.415,-0.087
9.420,-0.094
9.425,-0.099
9.430,-0.107
9.435,-0.132
9.440,-0.176
9.445,-0.206
9.450,-0.203
9.455,-0.196
9.460,-0.179
9.465,-0.150
9.470,-0.125
9.475,-0.094
9.480,-0.067
9.485,-0.034
9.490,0.009
9.495,0.039
9.500,0.064
9.505,0.082
9.510,0.087
9.515,0.084
9.520,0.079
9.525,0.077
9.530,0.074
9.535,0.071
9.540,0.072
9.545,0.061
9.550,0.029
9.555,-0.042
9.560,-0.143
9.565,-0.240
9.570,-0.381
9.575,-0.606
9.580,-0.785
9.585,-0.637
9.590,-0.240
9.595,0.090
9.600,0.297
9.605,0.374
9.610,0.393
9.615,0.362
9.620,0.228
9.625,0.132
9.630,0.116
9.635,0.096
9.640,0.084
9.645,0.091
9.650,0.076
9.655,0.060
9.660,0.062
9.665,0.055
9.670,0.038
9.675,0.034
9.680,0.033
9.685,0.027
9.690,0.019
9.695,0.011
9.700,0.002
9.705,-0.006
9.710,-0.009
9.715,-0.012
9.720,-0.019
9.725,-0.020
9.730,-0.018
9.735,-0.023
9.740,-0.032
9.745,-0.040
9.750,-0.047
9.755,-0.048
9.760,-0.053
9.765,-0.068
9.770,-0.081
9.775,-0.083
9.780,-0.085
9.785,-0.094
9.790,-0.104
9.795,-0.110
9.800,-0.113
9.805,-0.129
9.810,-0.152
9.815,-0.171
9.820,-0.184
9.825,-0.197
9.830,-0.213
9.835,-0.234
9.840,-0.255
9.845,-0.270
9.850,-0.277
9.855,-0.283
9.860,-0.289
9.865,-0.295
9.870,-0.301
9.875,-0.298
9.880,-0.288
9.885,-0.270
9.890,-0.241
9.895,-0.209
9.900,-0.171
9.905,-0.121
9.910,-0.065
9.915,-0.005
9.920,0.057
9.925,0.109
9.930,0.153
9.935,0.194
9.940,0.231
9.945,0.261
9.950,0.282
9.955,0.294
9.960,0.304
9.965,0.313
9.970,0.315
9.975,0.313
9.980,0.308
9.985,0.299
9.990,0.289
9.995,0.275
10.000,0.265
10.005,0.261
10.010,0.259
10.015,0.251
10.020,0.235
10.025,0.227
10.030,0.219
10.035,0.204
10.040,0.189
10.045,0.175
10.050,0.160
10.055,0.144
10.060,0.125
10.065,0.113
10.070,0.112
10.075,0.111
10.080,0.100
10.085,0.083
10.090,0.067
10.095,0.050
10.100,0.040
10.105,0.037
10.110,0.033
10.115,0.027
10.120,0.017
10.125,0.013
10.130,0.022
10.135,0.022
10.140,0.009
10.145,0.000
10.150,0.002
10.155,0.003
10.160,-0.005
10.165,-0.008
10.170,-0.005
10.175,-0.005
10.180,-0.010
10.185,-0.016
10.190,-0.017
10.195,-0.013
10.200,-0.012
10.205,-0.018
10.210,-0.022
10.215,-0.021
10.220,-0.026
10.225,-0.038
10.230,-0.051
10.235,-0.067
10.240,-0.082
10.245,-0.090
10.250,-0.093
10.255,-0.099
10.260,-0.108
10.265,-0.132
10.270,-0.179
10.275,-0.214
10.280,-0.222
10.285,-0.217
10.290,-0.193
10.295,-0.158
10.300,-0.128
10.305,-0.094
10.310,-0.068
10.315,-0.043
10.320,-0.005
10.325,0.024
10.330,0.042
10.335,0.054
10.340,0.061
10.345,0.072
10.350,0.086
10.355,0.093
10.360,0.089
10.365,0.075
10.370,0.072
10.375,0.066
10.380,0.035
10.385,-0.026
10.390,-0.120
10.395,-0.216
10.400,-0.339
10.405,-0.555
10.410,-0.765
10.415,-0.675
10.420,-0.318
10.425,0.005
10.430,0.240
10.435,0.359
10.440,0.402
10.445,0.389
10.450,0.267
10.455,0.160
10.460,0.135
10.465,0.110
10.470,0.085
10.475,0.095
10.480,0.088
10.485,0.069
10.490,0.071
10.495,0.071
10.500,0.055
10.505,0.043
10.510,0.041
10.515,0.036
10.520,0.027
10.525,0.024
10.530,0.017
10.535,0.007
10.540,0.008
10.545,0.002
10.550,-0.008
10.555,-0.010
10.560,-0.010
10.565,-0.015
10.570,-0.025
10.575,-0.035
10.580,-0.041
10.585,-0.041
10.590,-0.040
10.595,-0.052
10.600,-0.070
10.605,-0.072
10.610,-0.070
10.615,-0.080
10.620,-0.094
10.625,-0.106
10.630,-0.118
10.635,-0.134
10.640,-0.151
10.645,-0.162
10.650,-0.166
10.655,-0.183
10.660,-0.206
10.665,-0.219
10.670,-0.234
10.675,-0.248
10.680,-0.266
10.685,-0.281
10.690,-0.284
10.695,-0.290
10.700,-0.297
10.705,-0.299
10.710,-0.289
10.715,-0.259
10.720,-0.227
10.725,-0.201
10.730,-0.172
10.735,-0.126
10.740,-0.069
10.745,-0.013
10.750,0.046
10.755,0.094
10.760,0.136
10.765,0.191
10.770,0.242
10.775,0.277
10.780,0.287
10.785,0.286
10.790,0.304
10.795,0.319
10.800,0.319
10.805,0.314
10.810,0.308
10.815,0.301
10.820,0.299
10.825,0.296
10.830,0.286
10.835,0.271
10.840,0.256
10.845,0.247
10.850,0.237
10.855,0.217
10.860,0.205
10.865,0.199
10.870,0.183
10.875,0.171
10.880,0.158
10.885,0.139
10.890,0.132
10.895,0.124
10.900,0.108
10.905,0.095
10.910,0.083
10.915,0.079
10.920,0.072
10.925,0.056
10.930,0.043
10.935,0.036
10.940,0.031
10.945,0.026
10.950,0.022
10.955,0.020
10.960,0.022
10.965,0.019
10.970,0.011
10.975,0.004
10.980,0.000
10.985,0.001
10.990,-0.003
10.995,-0.005
11.000,0.003
11.005,0.002
11.010,-0.007
11.015,-0.006
11.020,-0.004
11.025,-0.007
11.030,-0.013
11.035,-0.016
11.040,-0.011
11.045,-0.012
11.050,-0.023
11.055,-0.029
11.060,-0.020
11.065,-0.011
11.070,-0.025
11.075,-0.051
11.080,-0.072
11.085,-0.085
11.090,-0.093
11.095,-0.107
11.100,-0.112
11.105,-0.108
11.110,-0.119
11.115,-0.149
11.120,-0.191
11.125,-0.210
11.130,-0.202
11.135,-0.191
11.140,-0.171
11.145,-0.151
11.150,-0.124
11.155,-0.088
11.160,-0.056
11.165,-0.011
11.170,0.032
11.175,0.055
11.180,0.069
11.185,0.077
11.190,0.081
11.195,0.079
11.200,0.073
11.205,0.071
11.210,0.067
11.215,0.070
11.220,0.071
11.225,0.052
11.230,-0.007
11.235,-0.111
11.240,-0.214
11.245,-0.322
11.250,-0.523
11.255,-0.775
11.260,-0.766
11.265,-0.432
11.270,-0.073
11.275,0.204
11.280,0.348
11.285,0.394
11.290,0.408
11.295,0.305
11.300,0.179
11.305,0.142
11.310,0.123
11.315,0.111
11.320,0.121
11.325,0.102
11.330,0.070
11.335,0.073
11.340,0.079
11.345,0.066
11.350,0.057
11.355,0.051
11.360,0.047
11.365,0.041
11.370,0.033
11.375,0.025
11.380,0.016
11.385,0.018
11.390,0.017
11.395,-0.002
11.400,-0.008
11.405,-0.004
11.410,-0.009
11.415,-0.015
11.420,-0.025
11.425,-0.033
11.430,-0.037
11.435,-0.044
11.440,-0.046
11.445,-0.045
11.450,-0.055
11.455,-0.078
11.460,-0.092
11.465,-0.095
11.470,-0.096
11.475,-0.112
11.480,-0.134
11.485,-0.138
11.490,-0.147
11.495,-0.163
11.500,-0.183
11.505,-0.208
11.510,-0.222
11.515,-0.231
11.520,-0.251
11.525,-0.272
11.530,-0.288
11.535,-0.295
11.540,-0.291
11.545,-0.289
11.550,-0.290
11.555,-0.281
11.560,-0.270
11.565,-0.252
11.570,-0.218
11.575,-0.183
11.580,-0.139
11.585,-0.081
11.590,-0.018
11.595,0.046
11.600,0.104
11.605,0.148
11.610,0.184
11.615,0.220
11.620,0.261
11.625,0.295
11.630,0.310
11.635,0.307
11.640,0.309
11.645,0.314
11.650,0.313
11.655,0.320
11.660,0.314
11.665,0.289
11.670,0.280
11.675,0.283
11.680,0.272
11.685,0.250
11.690,0.233
11.695,0.234
11.700,0.239
11.705,0.229
11.710,0.209
11.715,0.189
11.720,0.179
11.725,0.164
11.730,0.133
11.735,0.117
11.740,0.126
11.745,0.122
11.750,0.100
11.755,0.082
11.760,0.077
11.765,0.080
11.770,0.071
11.775,0.048
11.780,0.038
11.785,0.041
11.790,0.027
11.795,0.015
11.800,0.014
11.805,0.006
11.810,-0.002
11.815,-0.001
11.820,0.001
11.825,0.004
11.830,0.011
11.835,0.005
11.840,-0.009
11.845,-0.014
11.850,-0.019
11.855,-0.012
11.860,-0.003
11.865,-0.009
11.870,-0.013
11.875,-0.009
11.880,-0.011
11.885,-0.021
11.890,-0.025
11.895,-0.021
11.900,-0.024
11.905,-0.034
11.910,-0.037
11.915,-0.028
11.920,-0.029
11.925,-0.032
11.930,-0.032
11.935,-0.042
11.940,-0.059
11.945,-0.083
11.950,-0.101
11.955,-0.100
11.960,-0.101
11.965,-0.112
11.970,-0.125
11.975,-0.147
11.980,-0.182
11.985,-0.211
11.990,-0.217
11.995,-0.213
12.000,-0.190
12.005,-0.152
12.010,-0.124
12.015,-0.099
12.020,-0.074
12.025,-0.040
12.030,-0.005
12.035,0.021
12.040,0.048
12.045,0.071
12.050,0.081
12.055,0.084
12.060,0.081
12.065,0.078
12.070,0.071
12.075,0.066
12.080,0.072
12.085,0.068
12.090,0.031
12.095,-0.061
12.100,-0.178
12.105,-0.275
12.110,-0.437
12.115,-0.691
12.120,-0.833
12.125,-0.632
12.130,-0.236
12.135,0.094
12.140,0.304
12.145,0.382
12.150,0.405
12.155,0.356
12.160,0.225
12.165,0.159
12.170,0.142
12.175,0.113
12.180,0.121
12.185,0.131
12.190,0.102
12.195,0.089
12.200,0.094
12.205,0.084
12.210,0.068
12.215,0.062
12.220,0.057
12.225,0.053
12.230,0.048
12.235,0.032
12.240,0.025
12.245,0.037
12.250,0.045
12.255,0.029
12.260,0.001
12.265,-0.009
12.270,0.003
12.275,0.003
12.280,-0.010
12.285,-0.017
12.290,-0.021
12.295,-0.031
12.300,-0.046
12.305,-0.049
12.310,-0.053
12.315,-0.059
12.320,-0.061
12.325,-0.073
12.330,-0.088
12.335,-0.100
12.340,-0.110
12.345,-0.119
12.350,-0.136
12.355,-0.157
12.360,-0.172
12.365,-0.184
12.370,-0.209
12.375,-0.236
12.380,-0.256
12.385,-0.268
12.390,-0.274
12.395,-0.278
12.400,-0.284
12.405,-0.286
12.410,-0.286
12.415,-0.286
12.420,-0.287
12.425,-0.277
12.430,-0.244
12.435,-0.205
12.440,-0.163
12.445,-0.100
12.450,-0.035
12.455,0.019
12.460,0.064
12.465,0.109
12.470,0.166
12.475,0.215
12.480,0.239
12.485,0.257
12.490,0.284
12.495,0.308
12.500,0.316
12.505,0.314
12.510,0.310
12.515,0.309
12.520,0.304
12.525,0.289
12.530,0.282
12.535,0.287
12.540,0.281
12.545,0.265
12.550,0.250
12.555,0.231
12.560,0.219
12.565,0.212
12.570,0.204
12.575,0.202
12.580,0.184
12.585,0.162
12.590,0.163
12.595,0.159
12.600,0.136
12.605,0.110
12.610,0.101
12.615,0.108
12.620,0.104
12.625,0.080
12.630,0.057
12.635,0.049
12.640,0.041
12.645,0.029
12.650,0.030
12.655,0.031
12.660,0.019
12.665,0.009
12.670,0.009
12.675,0.013
12.680,0.008
12.685,-0.006
12.690,-0.010
12.695,-0.003
12.700,-0.001
12.705,-0.007
12.710,-0.012
12.715,-0.017
12.720,-0.018
12.725,-0.015
12.730,-0.013
12.735,-0.015
12.740,-0.019
12.745,-0.021
12.750,-0.024
12.755,-0.026
12.760,-0.028
12.765,-0.028
12.770,-0.021
12.775,-0.025
12.780,-0.035
12.785,-0.033
12.790,-0.027
12.795,-0.028
12.800,-0.032
12.805,-0.050
12.810,-0.076
12.815,-0.086
12.820,-0.087
12.825,-0.096
12.830,-0.103
12.835,-0.108
12.840,-0.111
12.845,-0.121
12.850,-0.167
12.855,-0.214
12.860,-0.219
12.865,-0.207
12.870,-0.185
12.875,-0.159
12.880,-0.143
12.885,-0.115
12.890,-0.079
12.895,-0.055
12.900,-0.022
12.905,0.017
12.910,0.047
12.915,0.067
12.920,0.076
12.925,0.077
12.930,0.082
12.935,0.085
12.940,0.081
12.945,0.078
12.950,0.073
12.955,0.059
12.960,0.037
12.965,-0.017
12.970,-0.124
12.975,-0.234
12.980,-0.365
12.985,-0.595
12.990,-0.833
12.995,-0.780
13.000,-0.412
13.005,-0.020
13.010,0.258
13.015,0.376
13.020,0.402
13.025,0.388
13.030,0.272
13.035,0.169
13.040,0.152
13.045,0.133
13.050,0.119
13.055,0.136
13.060,0.133
13.065,0.109
13.070,0.096
13.075,0.089
13.080,0.078
13.085,0.074
13.090,0.068
13.095,0.051
13.100,0.043
13.105,0.047
13.110,0.047
13.115,0.039
13.120,0.032
13.125,0.021
13.130,0.013
13.135,0.014
13.140,0.006
13.145,0.002
13.150,0.002
13.155,-0.007
13.160,-0.018
13.165,-0.029
13.170,-0.041
13.175,-0.044
13.180,-0.048
13.185,-0.053
13.190,-0.056
13.195,-0.063
13.200,-0.070
13.205,-0.082
13.210,-0.103
13.215,-0.122
13.220,-0.134
13.225,-0.144
13.230,-0.160
13.235,-0.178
13.240,-0.196
13.245,-0.220
13.250,-0.242
13.255,-0.261
13.260,-0.271
13.265,-0.277
13.270,-0.291
13.275,-0.304
13.280,-0.310
13.285,-0.304
13.290,-0.289
13.295,-0.276
13.300,-0.262
13.305,-0.233
13.310,-0.191
13.315,-0.139
13.320,-0.084
13.325,-0.030
13.330,0.027
13.335,0.084
13.340,0.138
13.345,0.185
13.350,0.225
13.355,0.258
13.360,0.282
13.365,0.300
13.370,0.312
13.375,0.317
13.380,0.317
13.385,0.316
13.390,0.315
13.395,0.306
13.400,0.295
13.405,0.283
13.410,0.275
13.415,0.269
13.420,0.255
13.425,0.237
13.430,0.226
13.435,0.222
13.440,0.216
13.445,0.205
13.450,0.193
13.455,0.180
13.460,0.167
13.465,0.156
13.470,0.147
13.475,0.137
13.480,0.122
13.485,0.105
13.490,0.092
13.495,0.085
13.500,0.080
13.505,0.074
13.510,0.064
13.515,0.054
13.520,0.043
13.525,0.033
13.530,0.029
13.535,0.023
13.540,0.015
13.545,0.008
13.550,0.005
13.555,0.005
13.560,-0.001
13.565,-0.012
13.570,-0.014
13.575,-0.009
13.580,-0.007
13.585,-0.012
13.590,-0.019
13.595,-0.012
13.600,-0.011
13.605,-0.022
13.610,-0.024
13.615,-0.026
13.620,-0.026
13.625,-0.018
13.630,-0.018
13.635,-0.026
13.640,-0.032
13.645,-0.035
13.650,-0.033
13.655,-0.031
13.660,-0.034
13.665,-0.035
13.670,-0.032
13.675,-0.039
13.680,-0.047
13.685,-0.045
13.690,-0.044
13.695,-0.041
13.700,-0.039
13.705,-0.051
13.710,-0.074
13.715,-0.092
13.720,-0.105
13.725,-0.110
13.730,-0.112
13.735,-0.118
13.740,-0.118
13.745,-0.133
13.750,-0.178
13.755,-0.214
13.760,-0.219
13.765,-0.208
13.770,-0.190
13.775,-0.168
13.780,-0.149
13.785,-0.118
13.790,-0.079
13.795,-0.048
13.800,-0.019
13.805,0.014
13.810,0.047
13.815,0.074
13.820,0.086
13.825,0.083
13.830,0.079
13.835,0.082
13.840,0.085
13.845,0.081
13.850,0.077
13.855,0.069
13.860,0.049
13.865,-0.008
13.870,-0.118
13.875,-0.245
13.880,-0.390
13.885,-0.613
13.890,-0.844
13.895,-0.792
13.900,-0.417
13.905,-0.021
13.910,0.264
13.915,0.398
13.920,0.429
13.925,0.411
13.930,0.288
13.935,0.178
13.940,0.164
13.945,0.156
13.950,0.138
13.955,0.138
13.960,0.123
13.965,0.108
13.970,0.110
13.975,0.103
13.980,0.086
13.985,0.075
13.990,0.072
13.995,0.068
14.000,0.058
14.005,0.053
14.010,0.049
14.015,0.041
14.020,0.032
14.025,0.025
14.030,0.019
14.035,0.016
14.040,0.015
14.045,0.009
14.050,0.001
14.055,-0.005
14.060,-0.012
14.065,-0.018
14.070,-0.022
14.075,-0.030
14.080,-0.037
14.085,-0.039
14.090,-0.046
14.095,-0.060
14.100,-0.075
14.105,-0.087
14.110,-0.098
14.115,-0.111
14.120,-0.126
14.125,-0.141
14.130,-0.155
14.135,-0.174
14.140,-0.200
14.145,-0.220
14.150,-0.232
14.155,-0.247
14.160,-0.262
14.165,-0.276
14.170,-0.285
14.175,-0.289
14.180,-0.297
14.185,-0.301
14.190,-0.293
14.195,-0.279
14.200,-0.262
14.205,-0.239
14.210,-0.200
14.215,-0.151
14.220,-0.097
14.225,-0.041
14.230,0.014
14.235,0.070
14.240,0.123
14.245,0.174
14.250,0.218
14.255,0.249
14.260,0.275
14.265,0.297
14.270,0.313
14.275,0.322
14.280,0.322
14.285,0.317
14.290,0.310
14.295,0.304
14.300,0.299
14.305,0.293
14.310,0.289
14.315,0.281
14.320,0.268
14.325,0.251
14.330,0.234
14.335,0.224
14.340,0.220
14.345,0.212
14.350,0.199
14.355,0.183
14.360,0.168
14.365,0.159
14.370,0.149
14.375,0.136
14.380,0.126
14.385,0.115
14.390,0.103
14.395,0.090
14.400,0.079
14.405,0.073
14.410,0.065
14.415,0.055
14.420,0.045
14.425,0.035
14.430,0.026
14.435,0.021
14.440,0.019
14.445,0.013
14.450,0.007
14.455,0.008
14.460,0.009
14.465,0.004
14.470,-0.007
14.475,-0.014
14.480,-0.012
14.485,-0.010
14.490,-0.011
14.495,-0.013
14.500,-0.014
14.505,-0.017
14.510,-0.021
14.515,-0.021
14.520,-0.027
14.525,-0.030
14.530,-0.028
14.535,-0.027
14.540,-0.024
14.545,-0.024
14.550,-0.028
14.555,-0.033
14.560,-0.037
14.565,-0.035
14.570,-0.038
14.575,-0.042
14.580,-0.042
14.585,-0.042
14.590,-0.038
14.595,-0.038
14.600,-0.039
14.605,-0.041
14.610,-0.057
14.615,-0.081
14.620,-0.092
14.625,-0.098
14.630,-0.109
14.635,-0.118
14.640,-0.123
14.645,-0.124
14.650,-0.134
14.655,-0.174
14.660,-0.216
14.665,-0.223
14.670,-0.212
14.675,-0.196
14.680,-0.170
14.685,-0.147
14.690,-0.115
14.695,-0.080
14.700,-0.053
14.705,-0.021
14.710,0.011
14.715,0.039
14.720,0.063
14.725,0.077
14.730,0.080
14.735,0.076
14.740,0.074
14.745,0.073
14.750,0.075
14.755,0.077
14.760,0.069
14.765,0.045
14.770,-0.007
14.775,-0.104
14.780,-0.217
14.785,-0.352
14.790,-0.565
14.795,-0.809
14.800,-0.802
14.805,-0.463
14.810,-0.073
14.815,0.221
14.820,0.372
14.825,0.414
14.830,0.415
14.835,0.309
14.840,0.186
14.845,0.159
14.850,0.146
14.855,0.128
14.860,0.132
14.865,0.125
14.870,0.105
14.875,0.104
14.880,0.101
14.885,0.085
14.890,0.074
14.895,0.065
14.900,0.056
14.905,0.053
14.910,0.053
14.915,0.047
14.920,0.036
14.925,0.033
14.930,0.030
14.935,0.020
14.940,0.011
14.945,0.007
14.950,0.004
14.955,0.003
14.960,0.000
14.965,-0.007
14.970,-0.015
14.975,-0.024
14.980,-0.032
14.985,-0.039
14.990,-0.049
14.995,-0.059
15.000,-0.062
15.005,-0.068
15.010,-0.081
15.015,-0.095
15.020,-0.109
15.025,-0.119
15.030,-0.132
15.035,-0.149
15.040,-0.163
15.045,-0.182
15.050,-0.201
15.055,-0.220
15.060,-0.237
15.065,-0.251
15.070,-0.263
15.075,-0.273
15.080,-0.282
15.085,-0.290
15.090,-0.294
15.095,-0.291
15.100,-0.281
15.105,-0.263
15.110,-0.239
15.115,-0.206
15.120,-0.162
15.125,-0.109
15.130,-0.053
15.135,0.002
15.140,0.060
15.145,0.117
15.150,0.170
15.155,0.214
15.160,0.247
15.165,0.271
15.170,0.288
15.175,0.304
15.180,0.316
15.185,0.321
15.190,0.320
15.195,0.315
15.200,0.307
15.205,0.298
15.210,0.289
15.215,0.282
15.220,0.275
15.225,0.265
15.230,0.254
15.235,0.246
15.240,0.237
15.245,0.224
15.250,0.209
15.255,0.193
15.260,0.182
15.265,0.174
15.270,0.163
15.275,0.150
15.280,0.138
15.285,0.125
15.290,0.112
15.295,0.098
15.300,0.085
15.305,0.076
15.310,0.068
15.315,0.059
15.320,0.054
15.325,0.049
15.330,0.040
15.335,0.032
15.340,0.023
15.345,0.015
15.350,0.012
15.355,0.010
15.360,0.009
15.365,0.008
15.370,0.004
15.375,0.000
15.380,-0.001
15.385,-0.003
15.390,-0.007
15.395,-0.009
15.400,-0.012
15.405,-0.016
15.410,-0.019
15.415,-0.020
15.420,-0.023
15.425,-0.024
15.430,-0.023
15.435,-0.024
15.440,-0.026
15.445,-0.030
15.450,-0.032
15.455,-0.029
15.460,-0.031
15.465,-0.032
15.470,-0.034
15.475,-0.035
15.480,-0.037
15.485,-0.041
15.490,-0.040
15.495,-0.040
15.500,-0.044
15.505,-0.049
15.510,-0.051
15.515,-0.047
15.520,-0.048
15.525,-0.052
15.530,-0.063
15.535,-0.080
15.540,-0.092
15.545,-0.105
15.550,-0.116
15.555,-0.122
15.560,-0.125
15.565,-0.129
15.570,-0.148
15.575,-0.187
15.580,-0.217
15.585,-0.219
15.590,-0.212
15.595,-0.195
15.600,-0.166
15.605,-0.139
15.610,-0.105
15.615,-0.072
15.620,-0.037
15.625,0.000
15.630,0.027
15.635,0.051
15.640,0.073
15.645,0.083
15.650,0.083
15.655,0.079
15.660,0.080
15.665,0.080
15.670,0.078
15.675,0.079
15.680,0.068
15.685,0.040
15.690,-0.027
15.695,-0.135
15.700,-0.243
15.705,-0.398
15.710,-0.642
15.715,-0.829
15.720,-0.685
15.725,-0.291
15.730,0.057
15.735,0.296
15.740,0.398
15.745,0.427
15.750,0.393
15.755,0.259
15.760,0.168
15.765,0.157
15.770,0.136
15.775,0.126
15.780,0.136
15.785,0.121
15.790,0.103
15.795,0.101
15.800,0.092
15.805,0.078
15.810,0.075
15.815,0.072
15.820,0.061
15.825,0.055
15.830,0.054
15.835,0.046
15.840,0.036
15.845,0.029
15.850,0.024
15.855,0.018
15.860,0.014
15.865,0.012
15.870,0.003
15.875,-0.004
15.880,-0.008
15.885,-0.015
15.890,-0.021
15.895,-0.025
15.900,-0.031
15.905,-0.037
15.910,-0.046
15.915,-0.058
15.920,-0.066
15.925,-0.072
15.930,-0.081
15.935,-0.092
15.940,-0.106
15.945,-0.122
15.950,-0.139
15.955,-0.155
15.960,-0.170
15.965,-0.184
15.970,-0.204
15.975,-0.224
15.980,-0.239
15.985,-0.254
15.990,-0.267
15.995,-0.275
16.000,-0.280
16.005,-0.283
16.010,-0.282
16.015,-0.275
16.020,-0.262
16.025,-0.244
16.030,-0.222
16.035,-0.190
16.040,-0.149
16.045,-0.100
16.050,-0.045
16.055,0.013
16.060,0.069
16.065,0.122
16.070,0.166
16.075,0.201
16.080,0.236
16.085,0.264
16.090,0.285
16.095,0.297
16.100,0.302
16.105,0.307
16.110,0.310
16.115,0.306
16.120,0.299
16.125,0.292
16.130,0.283
16.135,0.272
16.140,0.263
16.145,0.253
16.150,0.246
16.155,0.238
16.160,0.223
16.165,0.204
16.170,0.182
16.175,0.161
16.180,0.141
16.185,0.117
16.190,0.086
16.195,0.048
16.200,0.002
16.205,-0.049
16.210,-0.099
16.215,-0.160
16.220,-0.274
16.225,-0.452
16.230,-0.641
16.235,-0.801
16.240,-0.934
16.245,-1.045
16.250,-1.092
16.255,-1.054
16.260,-0.994
16.265,-0.937
16.270,-0.878
16.275,-0.828
16.280,-0.790
16.285,-0.727
16.290,-0.574
16.295,-0.370
16.300,-0.238
16.305,-0.155
16.310,-0.013
16.315,0.224
16.320,0.524
16.325,0.803
16.330,1.009
16.335,1.123
16.340,1.135
16.345,1.106
16.350,1.082
16.355,1.062
16.360,1.034
16.365,0.973
16.370,0.887
16.375,0.813
16.380,0.769
16.385,0.750
16.390,0.732
16.395,0.695
16.400,0.655
16.405,0.623
16.410,0.590
16.415,0.563
16.420,0.537
16.425,0.504
16.430,0.475
16.435,0.450
16.440,0.427
16.445,0.407
16.450,0.387
16.455,0.366
16.460,0.345
16.465,0.330
16.470,0.315
16.475,0.299
16.480,0.282
16.485,0.264
16.490,0.245
16.495,0.226
16.500,0.210
16.505,0.197
16.510,0.184
16.515,0.167
16.520,0.143
16.525,0.119
16.530,0.094
16.535,0.064
16.540,0.030
16.545,-0.012
16.550,-0.056
16.555,-0.103
16.560,-0.154
16.565,-0.206
16.570,-0.259
16.575,-0.314
16.580,-0.367
16.585,-0.416
16.590,-0.459
16.595,-0.497
16.600,-0.533
16.605,-0.563
16.610,-0.581
16.615,-0.588
16.620,-0.586
16.625,-0.576
16.630,-0.562
16.635,-0.544
16.640,-0.520
16.645,-0.493
16.650,-0.464
16.655,-0.432
16.660,-0.404
16.665,-0.376
16.670,-0.351
16.675,-0.328
16.680,-0.307
16.685,-0.286
16.690,-0.268
16.695,-0.254
16.700,-0.239
16.705,-0.224
16.710,-0.211
16.715,-0.199
16.720,-0.190
16.725,-0.179
16.730,-0.170
16.735,-0.163
16.740,-0.154
16.745,-0.142
16.750,-0.134
16.755,-0.129
16.760,-0.120
16.765,-0.111
16.770,-0.108
16.775,-0.104
16.780,-0.096
16.785,-0.084
16.790,-0.076
16.795,-0.076
16.800,-0.074
16.805,-0.062
16.810,-0.052
16.815,-0.047
16.820,-0.045
16.825,-0.043
16.830,-0.038
16.835,-0.035
16.840,-0.030
16.845,-0.020
16.850,-0.012
16.855,-0.007
16.860,-0.009
16.865,-0.009
16.870,-0.004
16.875,0.000
16.880,0.001
16.885,0.002
16.890,0.005
16.895,0.009
16.900,0.012
16.905,0.015
16.910,0.018
16.915,0.019
16.920,0.017
16.925,0.014
16.930,0.016
16.935,0.020
16.940,0.023
16.945,0.024
16.950,0.022
16.955,0.024
16.960,0.026
16.965,0.031
16.970,0.033
16.975,0.033
16.980,0.033
16.985,0.033
16.990,0.032
16.995,0.033
17.000,0.033
17.005,0.033
17.010,0.033
17.015,0.032
17.020,0.032
17.025,0.033
17.030,0.035
17.035,0.037
17.040,0.035
17.045,0.033
17.050,0.032
17.055,0.029
17.060,0.031
17.065,0.034
17.070,0.032
17.075,0.032
17.080,0.032
17.085,0.033
17.090,0.035
17.095,0.033
17.100,0.031
17.105,0.032
17.110,0.031
17.115,0.032
17.120,0.034
17.125,0.034
17.130,0.034
17.135,0.033
17.140,0.034
17.145,0.031
17.150,0.028
17.155,0.028
17.160,0.027
17.165,0.025
17.170,0.024
17.175,0.025
17.180,0.025
17.185,0.023
17.190,0.021
17.195,0.023
17.200,0.028
17.205,0.028
17.210,0.023
17.215,0.019
17.220,0.016
17.225,0.017
17.230,0.021
17.235,0.024
17.240,0.024
17.245,0.022
17.250,0.019
17.255,0.019
17.260,0.021
17.265,0.021
17.270,0.021
17.275,0.018
17.280,0.016
17.285,0.016
17.290,0.015
17.295,0.007
17.300,-0.010
17.305,-0.028
17.310,-0.039
17.315,-0.046
17.320,-0.050
17.325,-0.054
17.330,-0.062
17.335,-0.079
17.340,-0.114
17.345,-0.153
17.350,-0.163
17.355,-0.156
17.360,-0.143
17.365,-0.113
17.370,-0.085
17.375,-0.057
17.380,-0.024
17.385,0.006
17.390,0.044
17.395,0.074
17.400,0.094
17.405,0.116
17.410,0.133
17.415,0.140
17.420,0.134
17.425,0.131
17.430,0.131
17.435,0.127
17.440,0.118
17.445,0.095
17.450,0.035
17.455,-0.056
17.460,-0.141
17.465,-0.270
17.470,-0.505
17.475,-0.740
17.480,-0.659
17.485,-0.278
17.490,0.064
17.495,0.293
17.500,0.405
17.505,0.448
17.510,0.444
17.515,0.322
17.520,0.211
17.525,0.197
17.530,0.177
17.535,0.152
17.540,0.161
17.545,0.150
17.550,0.128
17.555,0.127
17.560,0.121
17.565,0.104
17.570,0.096
17.575,0.094
17.580,0.082
17.585,0.071
17.590,0.069
17.595,0.063
17.600,0.057
17.605,0.053
17.610,0.046
17.615,0.038
17.620,0.032
17.625,0.025
17.630,0.017
17.635,0.010
17.640,0.006
17.645,0.001
17.650,-0.007
17.655,-0.014
17.660,-0.021
17.665,-0.030
17.670,-0.039
17.675,-0.050
17.680,-0.056
17.685,-0.061
17.690,-0.068
17.695,-0.073
17.700,-0.085
17.705,-0.098
17.710,-0.109
17.715,-0.121
17.720,-0.133
17.725,-0.149
17.730,-0.165
17.735,-0.174
17.740,-0.181
17.745,-0.191
17.750,-0.200
17.755,-0.204
17.760,-0.205
17.765,-0.207
17.770,-0.207
17.775,-0.205
17.780,-0.203
17.785,-0.202
17.790,-0.200
17.795,-0.191
17.800,-0.176
17.805,-0.157
17.810,-0.135
17.815,-0.104
17.820,-0.066
17.825,-0.027
17.830,0.013
17.835,0.050
17.840,0.089
17.845,0.131
17.850,0.165
17.855,0.190
17.860,0.210
17.865,0.224
17.870,0.234
17.875,0.241
17.880,0.244
17.885,0.242
17.890,0.236
17.895,0.232
17.900,0.229
17.905,0.222
17.910,0.210
17.915,0.201
17.920,0.195
17.925,0.188
17.930,0.175
17.935,0.156
17.940,0.142
17.945,0.136
17.950,0.132
17.955,0.123
17.960,0.104
17.965,0.090
17.970,0.089
17.975,0.089
17.980,0.086
17.985,0.077
17.990,0.067
17.995,0.060
18.000,0.053
18.005,0.048
18.010,0.045
18.015,0.040
18.020,0.037
18.025,0.037
18.030,0.034
18.035,0.031
18.040,0.031
18.045,0.030
18.050,0.028
18.055,0.027
18.060,0.026
18.065,0.025
18.070,0.021
18.075,0.018
18.080,0.018
18.085,0.016
18.090,0.014
18.095,0.011
18.100,0.008
18.105,0.005
18.110,-0.001
18.115,-0.005
18.120,-0.003
18.125,-0.002
18.130,-0.003
18.135,-0.007
18.140,-0.014
18.145,-0.016
18.150,-0.024
18.155,-0.046
18.160,-0.069
18.165,-0.086
18.170,-0.095
18.175,-0.093
18.180,-0.095
18.185,-0.106
18.190,-0.130
18.195,-0.172
18.200,-0.202
18.205,-0.202
18.210,-0.196
18.215,-0.182
18.220,-0.152
18.225,-0.122
18.230,-0.090
18.235,-0.060
18.240,-0.028
18.245,0.007
18.250,0.031
18.255,0.055
18.260,0.080
18.265,0.092
18.270,0.089
18.275,0.081
18.280,0.081
18.285,0.082
18.290,0.079
18.295,0.077
18.300,0.066
18.305,0.037
18.310,-0.035
18.315,-0.139
18.320,-0.234
18.325,-0.382
18.330,-0.620
18.335,-0.785
18.340,-0.611
18.345,-0.217
18.350,0.091
18.355,0.285
18.360,0.377
18.365,0.420
18.370,0.387
18.375,0.240
18.380,0.132
18.385,0.112
18.390,0.106
18.395,0.110
18.400,0.124
18.405,0.105
18.410,0.075
18.415,0.072
18.420,0.067
18.425,0.050
18.430,0.050
18.435,0.053
18.440,0.037
18.445,0.015
18.450,0.015
18.455,0.023
18.460,0.026
18.465,0.042
18.470,0.056
18.475,0.049
18.480,0.026
18.485,-0.002
18.490,-0.021
18.495,-0.037
18.500,-0.046
18.505,-0.045
18.510,-0.042
18.515,-0.047
18.520,-0.057
18.525,-0.049
18.530,-0.043
18.535,-0.069
18.540,-0.098
18.545,-0.114
18.550,-0.120
18.555,-0.115
18.560,-0.116
18.565,-0.133
18.570,-0.155
18.575,-0.166
18.580,-0.165
18.585,-0.182
18.590,-0.214
18.595,-0.223
18.600,-0.225
18.605,-0.250
18.610,-0.273
18.615,-0.280
18.620,-0.274
18.625,-0.263
18.630,-0.263
18.635,-0.262
18.640,-0.256
18.645,-0.249
18.650,-0.223
18.655,-0.176
18.660,-0.123
18.665,-0.079
18.670,-0.028
18.675,0.029
18.680,0.067
18.685,0.106
18.690,0.158
18.695,0.210
18.700,0.256
18.705,0.280
18.710,0.284
18.715,0.298
18.720,0.306
18.725,0.300
18.730,0.308
18.735,0.313
18.740,0.304
18.745,0.292
18.750,0.282
18.755,0.271
18.760,0.249
18.765,0.241
18.770,0.241
18.775,0.226
18.780,0.210
18.785,0.191
18.790,0.171
18.795,0.162
18.800,0.154
18.805,0.138
18.810,0.125
18.815,0.107
18.820,0.088
18.825,0.089
18.830,0.112
18.835,0.132
18.840,0.113
18.845,0.059
18.850,0.011
18.855,0.000
18.860,0.006
18.865,-0.002
18.870,-0.010
18.875,-0.007
18.880,-0.012
18.885,-0.015
18.890,-0.004
18.895,-0.003
18.900,0.000
18.905,0.001
18.910,0.000
18.915,0.000
18.920,-0.019
18.925,-0.029
18.930,-0.015
18.935,0.000
18.940,-0.005
18.945,-0.021
18.950,-0.024
18.955,-0.015
18.960,-0.005
18.965,-0.013
18.970,-0.033
18.975,-0.043
18.980,-0.062
18.985,-0.077
18.990,-0.077
18.995,-0.090
19.000,-0.105
19.005,-0.113
19.010,-0.128
19.015,-0.160
19.020,-0.202
19.025,-0.221
19.030,-0.210
19.035,-0.188
19.040,-0.166
19.045,-0.150
19.050,-0.129
19.055,-0.096
19.060,-0.053
19.065,-0.009
19.070,0.015
19.075,0.031
19.080,0.057
19.085,0.073
19.090,0.092
19.095,0.112
19.100,0.094
19.105,0.066
19.110,0.060
19.115,0.075
19.120,0.083
19.125,0.055
19.130,-0.011
19.135,-0.101
19.140,-0.190
19.145,-0.297
19.150,-0.485
19.155,-0.733
19.160,-0.761
19.165,-0.452
19.170,-0.094
19.175,0.166
19.180,0.310
19.185,0.376
19.190,0.404
19.195,0.311
19.200,0.187
19.205,0.134
19.210,0.107
19.215,0.104
19.220,0.116
19.225,0.097
19.230,0.064
19.235,0.066
19.240,0.084
19.245,0.073
19.250,0.052
19.255,0.051
19.260,0.047
19.265,0.029
19.270,0.023
19.275,0.021
19.280,0.006
19.285,-0.005
19.290,-0.011
19.295,-0.011
19.300,-0.004
19.305,-0.014
19.310,-0.029
19.315,-0.035
19.320,-0.037
19.325,-0.036
19.330,-0.046
19.335,-0.064
19.340,-0.062
19.345,-0.057
19.350,-0.067
19.355,-0.080
19.360,-0.089
19.365,-0.094
19.370,-0.107
19.375,-0.125
19.380,-0.141
19.385,-0.144
19.390,-0.141
19.395,-0.157
19.400,-0.175
19.405,-0.194
19.410,-0.214
19.415,-0.221
19.420,-0.231
19.425,-0.252
19.430,-0.265
19.435,-0.267
19.440,-0.268
19.445,-0.274
19.450,-0.279
19.455,-0.274
19.460,-0.260
19.465,-0.245
19.470,-0.226
19.475,-0.186
19.480,-0.136
19.485,-0.091
19.490,-0.051
19.495,-0.007
19.500,0.050
19.505,0.103
19.510,0.146
19.515,0.192
19.520,0.238
19.525,0.276
19.530,0.290
19.535,0.281
19.540,0.283
19.545,0.301
19.550,0.308
19.555,0.312
19.560,0.306
19.565,0.289
19.570,0.286
19.575,0.276
19.580,0.253
19.585,0.244
19.590,0.240
19.595,0.231
19.600,0.220
19.605,0.206
19.610,0.191
19.615,0.178
19.620,0.161
19.625,0.141
19.630,0.142
19.635,0.136
19.640,0.110
19.645,0.102
19.650,0.105
19.655,0.098
19.660,0.080
19.665,0.055
19.670,0.047
19.675,0.056
19.680,0.055
19.685,0.041
19.690,0.031
19.695,0.035
19.700,0.039
19.705,0.029
19.710,0.020
19.715,0.020
19.720,0.020
19.725,0.019
19.730,0.017
19.735,0.016
19.740,0.006
19.745,0.000
19.750,0.002
19.755,0.000
19.760,-0.012
19.765,-0.011
19.770,0.014
19.775,0.026
19.780,0.007
19.785,-0.031
19.790,-0.053
19.795,-0.057
19.800,-0.074
19.805,-0.076
19.810,-0.072
19.815,-0.091
19.820,-0.102
19.825,-0.122
19.830,-0.177
19.835,-0.211
19.840,-0.203
19.845,-0.185
19.850,-0.156
19.855,-0.137
19.860,-0.125
19.865,-0.077
19.870,-0.043
19.875,-0.014
19.880,0.031
19.885,0.051
19.890,0.070
19.895,0.085
19.900,0.087
19.905,0.088
19.910,0.085
19.915,0.083
19.920,0.074
19.925,0.062
19.930,0.063
19.935,0.060
19.940,0.032
19.945,-0.042
19.950,-0.132
19.955,-0.242
19.960,-0.466
19.965,-0.755
19.970,-0.828
19.975,-0.542
19.980,-0.155
19.985,0.133
19.990,0.301
19.995,0.368
20.000,0.387
20.005,0.307
20.010,0.174
20.015,0.130
20.020,0.130
20.025,0.115
20.030,0.114
20.035,0.106
20.040,0.077
20.045,0.067
20.050,0.075
20.055,0.064
20.060,0.051
20.065,0.056
20.070,0.043
20.075,0.030
20.080,0.022
20.085,0.009
20.090,0.011
20.095,0.024
20.100,0.028
20.105,0.006
20.110,-0.015
20.115,-0.012
20.120,-0.008
20.125,-0.012
20.130,-0.019
20.135,-0.034
20.140,-0.047
20.145,-0.050
20.150,-0.044
20.155,-0.044
20.160,-0.058
20.165,-0.074
20.170,-0.086
20.175,-0.094
20.180,-0.104
20.185,-0.114
20.190,-0.123
20.195,-0.145
20.200,-0.161
20.205,-0.159
20.210,-0.168
20.215,-0.190
20.220,-0.208
20.225,-0.216
20.230,-0.226
20.235,-0.255
20.240,-0.278
20.245,-0.285
20.250,-0.287
20.255,-0.286
20.260,-0.274
20.265,-0.259
20.270,-0.252
20.275,-0.244
20.280,-0.228
20.285,-0.191
20.290,-0.145
20.295,-0.107
20.300,-0.058
20.305,0.004
20.310,0.070
20.315,0.130
20.320,0.169
20.325,0.204
20.330,0.242
20.335,0.267
20.340,0.289
20.345,0.304
20.350,0.301
20.355,0.305
20.360,0.306
20.365,0.307
20.370,0.313
20.375,0.300
20.380,0.283
20.385,0.272
20.390,0.266
20.395,0.259
20.400,0.244
20.405,0.225
20.410,0.215
20.415,0.211
20.420,0.196
20.425,0.181
20.430,0.168
20.435,0.155
20.440,0.139
20.445,0.116
20.450,0.108
20.455,0.104
20.460,0.090
20.465,0.087
20.470,0.079
20.475,0.065
20.480,0.059
20.485,0.051
20.490,0.042
20.495,0.035
20.500,0.024
20.505,0.018
20.510,0.017
20.515,0.015
20.520,0.017
20.525,0.019
20.530,0.016
20.535,0.014
20.540,0.013
20.545,0.008
20.550,0.001
20.555,-0.005
20.560,-0.008
20.565,-0.004
20.570,-0.001
20.575,-0.008
20.580,-0.014
20.585,-0.023
20.590,-0.032
20.595,-0.037
20.600,-0.052
20.605,-0.070
20.610,-0.079
20.615,-0.080
20.620,-0.087
20.625,-0.108
20.630,-0.144
20.635,-0.189
20.640,-0.199
20.645,-0.188
20.650,-0.186
20.655,-0.166
20.660,-0.144
20.665,-0.121
20.670,-0.083
20.675,-0.054
20.680,-0.015
20.685,0.030
20.690,0.056
20.695,0.072
20.700,0.083
20.705,0.087
20.710,0.085
20.715,0.081
20.720,0.080
20.725,0.082
20.730,0.076
20.735,0.058
20.740,0.034
20.745,-0.014
20.750,-0.111
20.755,-0.222
20.760,-0.357
20.765,-0.576
20.770,-0.818
20.775,-0.791
20.780,-0.440
20.785,-0.063
20.790,0.212
20.795,0.351
20.800,0.397
20.805,0.389
20.810,0.275
20.815,0.168
20.820,0.155
20.825,0.141
20.830,0.106
20.835,0.104
20.840,0.103
20.845,0.088
20.850,0.087
20.855,0.082
20.860,0.059
20.865,0.055
20.870,0.063
20.875,0.051
20.880,0.037
20.885,0.033
20.890,0.031
20.895,0.026
20.900,0.018
20.905,0.007
20.910,0.003
20.915,-0.001
20.920,-0.005
20.925,-0.012
20.930,-0.017
20.935,-0.025
20.940,-0.036
20.945,-0.046
20.950,-0.052
20.955,-0.049
20.960,-0.056
20.965,-0.070
20.970,-0.080
20.975,-0.094
20.980,-0.099
20.985,-0.106
20.990,-0.114
20.995,-0.120
21.000,-0.138
21.005,-0.154
21.010,-0.170
21.015,-0.190
21.020,-0.214
21.025,-0.238
21.030,-0.248
21.035,-0.257
21.040,-0.265
21.045,-0.266
21.050,-0.274
21.055,-0.285
21.060,-0.291
21.065,-0.287
21.070,-0.279
21.075,-0.272
21.080,-0.263
21.085,-0.236
21.090,-0.187
21.095,-0.138
21.100,-0.088
21.105,-0.033
21.110,0.019
21.115,0.071
21.120,0.122
21.125,0.174
21.130,0.218
21.135,0.247
21.140,0.271
21.145,0.283
21.150,0.291
21.155,0.300
21.160,0.300
21.165,0.302
21.170,0.300
21.175,0.287
21.180,0.284
21.185,0.286
21.190,0.279
21.195,0.264
21.200,0.244
21.205,0.230
21.210,0.231
21.215,0.219
21.220,0.187
21.225,0.161
21.230,0.143
21.235,0.122
21.240,0.095
21.245,0.057
21.250,0.014
21.255,-0.028
21.260,-0.079
21.265,-0.145
21.270,-0.243
21.275,-0.414
21.280,-0.614
21.285,-0.786
21.290,-0.935
21.295,-1.057
21.300,-1.128
21.305,-1.140
21.310,-1.114
21.315,-1.052
21.320,-0.972
21.325,-0.888
21.330,-0.819
21.335,-0.755
21.340,-0.590
21.345,-0.350
21.350,-0.170
21.355,-0.054
21.360,0.073
21.365,0.269
21.370,0.538
21.375,0.791
21.380,0.992
21.385,1.125
21.390,1.144
21.395,1.106
21.400,1.073
21.405,1.059
21.410,1.046
21.415,0.986
21.420,0.896
21.425,0.819
21.430,0.780
21.435,0.770
21.440,0.757
21.445,0.733
21.450,0.701
21.455,0.659
21.460,0.623
21.465,0.595
21.470,0.565
21.475,0.534
21.480,0.505
21.485,0.475
21.490,0.448
21.495,0.433
21.500,0.416
21.505,0.393
21.510,0.369
21.515,0.344
21.520,0.334
21.525,0.325
21.530,0.306
21.535,0.285
21.540,0.268
21.545,0.252
21.550,0.240
21.555,0.229
21.560,0.212
21.565,0.188
21.570,0.167
21.575,0.150
21.580,0.130
21.585,0.097
21.590,0.054
21.595,0.006
21.600,-0.037
21.605,-0.079
21.610,-0.132
21.615,-0.188
21.620,-0.249
21.625,-0.310
21.630,-0.363
21.635,-0.418
21.640,-0.469
21.645,-0.502
21.650,-0.536
21.655,-0.563
21.660,-0.588
21.665,-0.609
21.670,-0.602
21.675,-0.594
21.680,-0.583
21.685,-0.562
21.690,-0.546
21.695,-0.525
21.700,-0.500
21.705,-0.480
21.710,-0.454
21.715,-0.420
21.720,-0.386
21.725,-0.363
21.730,-0.352
21.735,-0.332
21.740,-0.298
21.745,-0.280
21.750,-0.275
21.755,-0.262
21.760,-0.243
21.765,-0.228
21.770,-0.227
21.775,-0.215
21.780,-0.191
21.785,-0.185
21.790,-0.178
21.795,-0.164
21.800,-0.159
21.805,-0.158
21.810,-0.151
21.815,-0.140
21.820,-0.131
21.825,-0.121
21.830,-0.110
21.835,-0.100
21.840,-0.094
21.845,-0.094
21.850,-0.079
21.855,-0.062
21.860,-0.056
21.865,-0.055
21.870,-0.054
21.875,-0.044
21.880,-0.039
21.885,-0.035
21.890,-0.027
21.895,-0.019
21.900,-0.011
21.905,-0.013
21.910,-0.014
21.915,-0.008
21.920,0.000
21.925,0.003
21.930,0.004
21.935,0.006
21.940,0.011
21.945,0.018
21.950,0.022
21.955,0.020
21.960,0.018
21.965,0.018
21.970,0.023
21.975,0.029
21.980,0.028
21.985,0.028
21.990,0.030
21.995,0.036
22.000,0.040
22.005,0.033
22.010,0.031
22.015,0.039
22.020,0.044
22.025,0.041
22.030,0.033
22.035,0.033
22.040,0.040
22.045,0.038
22.050,0.037
22.055,0.038
22.060,0.034
22.065,0.035
22.070,0.039
22.075,0.038
22.080,0.035
22.085,0.038
22.090,0.050
22.095,0.053
22.100,0.046
22.105,0.041
22.110,0.041
22.115,0.046
22.120,0.043
22.125,0.035
22.130,0.031
22.135,0.029
22.140,0.035
22.145,0.044
22.150,0.041
22.155,0.036
22.160,0.036
22.165,0.037
22.170,0.045
22.175,0.043
22.180,0.030
22.185,0.027
22.190,0.034
22.195,0.039
22.200,0.032
22.205,0.019
22.210,0.007
22.215,-0.010
22.220,-0.027
22.225,-0.030
22.230,-0.023
22.235,-0.026
22.240,-0.046
22.245,-0.073
22.250,-0.113
22.255,-0.141
22.260,-0.136
22.265,-0.130
22.270,-0.121
22.275,-0.097
22.280,-0.070
22.285,-0.033
22.290,0.002
22.295,0.038
22.300,0.077
22.305,0.099
22.310,0.111
22.315,0.132
22.320,0.151
22.325,0.148
22.330,0.144
22.335,0.148
22.340,0.145
22.345,0.139
22.350,0.131
22.355,0.090
22.360,0.000
22.365,-0.104
22.370,-0.216
22.375,-0.411
22.380,-0.674
22.385,-0.734
22.390,-0.446
22.395,-0.074
22.400,0.210
22.405,0.392
22.410,0.462
22.415,0.473
22.420,0.386
22.425,0.254
22.430,0.212
22.435,0.189
22.440,0.149
22.445,0.152
22.450,0.160
22.455,0.152
22.460,0.148
22.465,0.139
22.470,0.120
22.475,0.107
22.480,0.105
22.485,0.088
22.490,0.070
22.495,0.071
22.500,0.072
22.505,0.070
22.510,0.068
22.515,0.056
22.520,0.040
22.525,0.032
22.530,0.033
22.535,0.028
22.540,0.016
22.545,0.005
22.550,-0.003
22.555,-0.008
22.560,-0.015
22.565,-0.014
22.570,-0.016
22.575,-0.034
22.580,-0.050
22.585,-0.059
22.590,-0.068
22.595,-0.075
22.600,-0.077
22.605,-0.090
22.610,-0.106
22.615,-0.113
22.620,-0.128
22.625,-0.142
22.630,-0.148
22.635,-0.159
22.640,-0.164
22.645,-0.168
22.650,-0.184
22.655,-0.190
22.660,-0.192
22.665,-0.206
22.670,-0.214
22.675,-0.208
22.680,-0.203
22.685,-0.201
22.690,-0.201
22.695,-0.200
22.700,-0.189
22.705,-0.176
22.710,-0.157
22.715,-0.126
22.720,-0.094
22.725,-0.066
22.730,-0.030
22.735,0.018
22.740,0.062
22.745,0.103
22.750,0.138
22.755,0.171
22.760,0.197
22.765,0.212
22.770,0.230
22.775,0.245
22.780,0.250
22.785,0.250
22.790,0.250
22.795,0.252
22.800,0.247
22.805,0.236
22.810,0.225
22.815,0.217
22.820,0.203
22.825,0.178
22.830,0.163
22.835,0.166
22.840,0.162
22.845,0.145
22.850,0.126
22.855,0.125
22.860,0.132
22.865,0.125
22.870,0.116
22.875,0.105
22.880,0.100
22.885,0.088
22.890,0.066
22.895,0.055
22.900,0.048
22.905,0.046
22.910,0.047
22.915,0.041
22.920,0.035
22.925,0.033
22.930,0.036
22.935,0.041
22.940,0.036
22.945,0.036
22.950,0.043
22.955,0.033
22.960,0.027
22.965,0.036
22.970,0.038
22.975,0.028
22.980,0.006
22.985,-0.016
22.990,-0.019
22.995,-0.026
23.000,-0.044
23.005,-0.052
23.010,-0.059
23.015,-0.070
23.020,-0.092
23.025,-0.136
23.030,-0.174
23.035,-0.181
23.040,-0.166
23.045,-0.141
23.050,-0.119
23.055,-0.090
23.060,-0.055
23.065,-0.030
23.070,-0.003
23.075,0.025
23.080,0.053
23.085,0.072
23.090,0.081
23.095,0.093
23.100,0.093
23.105,0.088
23.110,0.087
23.115,0.088
23.120,0.099
23.125,0.096
23.130,0.066
23.135,0.011
23.140,-0.092
23.145,-0.207
23.150,-0.318
23.155,-0.516
23.160,-0.777
23.165,-0.819
23.170,-0.512
23.175,-0.117
23.180,0.181
23.185,0.348
23.190,0.406
23.195,0.420
23.200,0.316
23.205,0.172
23.210,0.128
23.215,0.113
23.220,0.099
23.225,0.112
23.230,0.107
23.235,0.073
23.240,0.054
23.245,0.054
23.250,0.042
23.255,0.030
23.260,0.037
23.265,0.043
23.270,0.039
23.275,0.036
23.280,0.028
23.285,0.013
23.290,-0.001
23.295,-0.008
23.300,-0.008
23.305,-0.010
23.310,-0.023
23.315,-0.040
23.320,-0.050
23.325,-0.045
23.330,-0.036
23.335,-0.037
23.340,-0.047
23.345,-0.060
23.350,-0.068
23.355,-0.068
23.360,-0.080
23.365,-0.107
23.370,-0.122
23.375,-0.127
23.380,-0.129
23.385,-0.136
23.390,-0.154
23.395,-0.166
23.400,-0.174
23.405,-0.195
23.410,-0.223
23.415,-0.243
23.420,-0.252
23.425,-0.260
23.430,-0.270
23.435,-0.280
23.440,-0.292
23.445,-0.305
23.450,-0.306
23.455,-0.294
23.460,-0.287
23.465,-0.279
23.470,-0.265
23.475,-0.240
23.480,-0.190
23.485,-0.129
23.490,-0.072
23.495,-0.020
23.500,0.029
23.505,0.082
23.510,0.135
23.515,0.183
23.520,0.222
23.525,0.251
23.530,0.267
23.535,0.274
23.540,0.290
23.545,0.298
23.550,0.292
23.555,0.294
23.560,0.301
23.565,0.305
23.570,0.299
23.575,0.284
23.580,0.272
23.585,0.260
23.590,0.246
23.595,0.233
23.600,0.223
23.605,0.211
23.610,0.202
23.615,0.191
23.620,0.174
23.625,0.161
23.630,0.154
23.635,0.147
23.640,0.136
23.645,0.115
23.650,0.095
23.655,0.090
23.660,0.087
23.665,0.080
23.670,0.073
23.675,0.063
23.680,0.051
23.685,0.039
23.690,0.034
23.695,0.036
23.700,0.030
23.705,0.017
23.710,0.008
23.715,0.009
23.720,0.014
23.725,0.013
23.730,0.006
23.735,-0.002
23.740,-0.010
23.745,-0.019
23.750,-0.033
23.755,-0.046
23.760,-0.062
23.765,-0.077
23.770,-0.083
23.775,-0.087
23.780,-0.095
23.785,-0.127
23.790,-0.176
23.795,-0.195
23.800,-0.193
23.805,-0.181
23.810,-0.153
23.815,-0.130
23.820,-0.106
23.825,-0.080
23.830,-0.048
23.835,0.000
23.840,0.033
23.845,0.053
23.850,0.071
23.855,0.087
23.860,0.095
23.865,0.089
23.870,0.082
23.875,0.080
23.880,0.079
23.885,0.080
23.890,0.072
23.895,0.045
23.900,-0.020
23.905,-0.131
23.910,-0.244
23.915,-0.383
23.920,-0.614
23.925,-0.838
23.930,-0.752
23.935,-0.376
23.940,-0.010
23.945,0.259
23.950,0.383
23.955,0.415
23.960,0.392
23.965,0.262
23.970,0.155
23.975,0.134
23.980,0.112
23.985,0.096
23.990,0.108
23.995,0.096
24.000,0.076
24.005,0.077
24.010,0.070
24.015,0.051
24.020,0.047
24.025,0.048
24.030,0.039
24.035,0.029
24.040,0.026
24.045,0.019
24.050,0.011
24.055,0.008
24.060,0.007
24.065,0.003
24.070,-0.005
24.075,-0.020
24.080,-0.031
24.085,-0.033
24.090,-0.033
24.095,-0.040
24.100,-0.051
24.105,-0.060
24.110,-0.065
24.115,-0.068
24.120,-0.076
24.125,-0.082
24.130,-0.090
24.135,-0.101
24.140,-0.116
24.145,-0.129
24.150,-0.141
24.155,-0.157
24.160,-0.177
24.165,-0.192
24.170,-0.204
24.175,-0.217
24.180,-0.237
24.185,-0.254
24.190,-0.261
24.195,-0.269
24.200,-0.283
24.205,-0.293
24.210,-0.294
24.215,-0.289
24.220,-0.283
24.225,-0.281
24.230,-0.272
24.235,-0.251
24.240,-0.218
24.245,-0.173
24.250,-0.123
24.255,-0.073
24.260,-0.023
24.265,0.034
24.270,0.092
24.275,0.142
24.280,0.182
24.285,0.220
24.290,0.257
24.295,0.281
24.300,0.294
24.305,0.304
24.310,0.310
24.315,0.311
24.320,0.304
24.325,0.297
24.330,0.292
24.335,0.286
24.340,0.278
24.345,0.270
24.350,0.260
24.355,0.245
24.360,0.232
24.365,0.218
24.370,0.203
24.375,0.194
24.380,0.188
24.385,0.177
24.390,0.161
24.395,0.142
24.400,0.127
24.405,0.121
24.410,0.115
24.415,0.107
24.420,0.097
24.425,0.086
24.430,0.075
24.435,0.065
24.440,0.055
24.445,0.046
24.450,0.041
24.455,0.035
24.460,0.030
24.465,0.027
24.470,0.019
24.475,0.015
24.480,0.016
24.485,0.018
24.490,0.019
24.495,0.014
24.500,0.002
24.505,-0.018
24.510,-0.035
24.515,-0.043
24.520,-0.053
24.525,-0.069
24.530,-0.081
24.535,-0.084
24.540,-0.087
24.545,-0.116
24.550,-0.165
24.555,-0.191
24.560,-0.192
24.565,-0.179
24.570,-0.153
24.575,-0.125
24.580,-0.095
24.585,-0.069
24.590,-0.051
24.595,-0.014
24.600,0.028
24.605,0.058
24.610,0.078
24.615,0.086
24.620,0.089
24.625,0.089
24.630,0.086
24.635,0.080
24.640,0.073
24.645,0.069
24.650,0.061
24.655,0.044
24.660,-0.015
24.665,-0.122
24.670,-0.238
24.675,-0.375
24.680,-0.592
24.685,-0.820
24.690,-0.769
24.695,-0.405
24.700,-0.028
24.705,0.245
24.710,0.375
24.715,0.411
24.720,0.404
24.725,0.282
24.730,0.159
24.735,0.135
24.740,0.118
24.745,0.098
24.750,0.106
24.755,0.098
24.760,0.078
24.765,0.075
24.770,0.067
24.775,0.052
24.780,0.046
24.785,0.042
24.790,0.032
24.795,0.023
24.800,0.020
24.805,0.014
24.810,0.005
24.815,0.003
24.820,0.002
24.825,-0.007
24.830,-0.014
24.835,-0.017
24.840,-0.023
24.845,-0.028
24.850,-0.033
24.855,-0.040
24.860,-0.046
24.865,-0.054
24.870,-0.064
24.875,-0.071
24.880,-0.077
24.885,-0.086
24.890,-0.098
24.895,-0.106
24.900,-0.110
24.905,-0.119
24.910,-0.136
24.915,-0.154
24.920,-0.169
24.925,-0.184
24.930,-0.201
24.935,-0.212
24.940,-0.155
24.945,-0.060
24.950,-0.047
24.955,-0.075
24.960,-0.110
24.965,-0.133
24.970,-0.134
24.975,-0.155
24.980,-0.166
24.985,-0.154
24.990,-0.152
24.995,-0.147
25.000,-0.119
25.005,-0.084
25.010,-0.048
25.015,-0.003
25.020,0.049
25.025,0.095
25.030,0.140
25.035,0.185
25.040,0.221
25.045,0.250
25.050,0.277
25.055,0.292
25.060,0.298
25.065,0.304
25.070,0.307
25.075,0.300
25.080,0.292
25.085,0.283
25.090,0.274
25.095,0.263
25.100,0.250
25.105,0.237
25.110,0.224
25.115,0.211
25.120,0.195
25.125,0.178
25.130,0.167
25.135,0.156
25.140,0.143
25.145,0.129
25.150,0.113
25.155,0.103
25.160,0.093
25.165,0.078
25.170,0.066
25.175,0.054
25.180,0.043
25.185,0.033
25.190,0.025
25.195,0.019
25.200,0.010
25.205,0.001
25.210,-0.008
25.215,-0.014
25.220,-0.021
25.225,-0.027
25.230,-0.030
25.235,-0.030
25.240,-0.033
25.245,-0.038
25.250,-0.042
25.255,-0.041
25.260,-0.044
25.265,-0.048
25.270,-0.050
25.275,-0.054
25.280,-0.063
25.285,-0.081
25.290,-0.094
25.295,-0.100
25.300,-0.112
25.305,-0.127
25.310,-0.134
25.315,-0.135
25.320,-0.145
25.325,-0.179
25.330,-0.223
25.335,-0.240
25.340,-0.236
25.345,-0.224
25.350,-0.197
25.355,-0.167
25.360,-0.131
25.365,-0.097
25.370,-0.080
25.375,-0.047
25.380,-0.008
25.385,0.021
25.390,0.044
25.395,0.055
25.400,0.060
25.405,0.060
25.410,0.055
25.415,0.051
25.420,0.052
25.425,0.050
25.430,0.040
25.435,0.017
25.440,-0.040
25.445,-0.143
25.450,-0.258
25.455,-0.399
25.460,-0.617
25.465,-0.828
25.470,-0.739
25.475,-0.349
25.480,0.030
25.485,0.282
25.490,0.379
25.495,0.396
25.500,0.376
25.505,0.248
25.510,0.132
25.515,0.116
25.520,0.103
25.525,0.085
25.530,0.091
25.535,0.082
25.540,0.064
25.545,0.061
25.550,0.053
25.555,0.041
25.560,0.038
25.565,0.035
25.570,0.024
25.575,0.017
25.580,0.017
25.585,0.013
25.590,0.006
25.595,0.003
25.600,-0.002
25.605,-0.009
25.610,-0.015
25.615,-0.020
25.620,-0.024
25.625,-0.031
25.630,-0.037
25.635,-0.041
25.640,-0.046
25.645,-0.054
25.650,-0.063
25.655,-0.068
25.660,-0.073
25.665,-0.082
25.670,-0.091
25.675,-0.097
25.680,-0.103
25.685,-0.111
25.690,-0.125
25.695,-0.145
25.700,-0.163
25.705,-0.176
25.710,-0.188
25.715,-0.201
25.720,-0.220
25.725,-0.239
25.730,-0.251
25.735,-0.263
25.740,-0.274
25.745,-0.280
25.750,-0.282
25.755,-0.279
25.760,-0.273
25.765,-0.264
25.770,-0.249
25.775,-0.229
25.780,-0.197
25.785,-0.153
25.790,-0.105
25.795,-0.053
25.800,0.001
25.805,0.054
25.810,0.107
25.815,0.154
25.820,0.193
25.825,0.227
25.830,0.256
25.835,0.273
25.840,0.283
25.845,0.292
25.850,0.299
25.855,0.304
25.860,0.301
25.865,0.294
25.870,0.288
25.875,0.279
25.880,0.272
25.885,0.265
25.890,0.255
25.895,0.245
25.900,0.233
25.905,0.222
25.910,0.210
25.915,0.193
25.920,0.174
25.925,0.151
25.930,0.128
25.935,0.105
25.940,0.080
25.945,0.051
25.950,0.010
25.955,-0.039
25.960,-0.093
25.965,-0.160
25.970,-0.267
25.975,-0.438
25.980,-0.631
25.985,-0.793
25.990,-0.925
25.995,-1.035
26.000,-1.091
26.005,-1.064
26.010,-1.004
26.015,-0.935
26.020,-0.854
26.025,-0.789
26.030,-0.744
26.035,-0.696
26.040,-0.580
26.045,-0.394
26.050,-0.265
26.055,-0.196
26.060,-0.065
26.065,0.158
26.070,0.456
26.075,0.762
26.080,0.998
26.085,1.137
26.090,1.157
26.095,1.115
26.100,1.084
26.105,1.067
26.110,1.044
26.115,0.992
26.120,0.919
26.125,0.846
26.130,0.796
26.135,0.773
26.140,0.757
26.145,0.723
26.150,0.684
26.155,0.653
26.160,0.624
26.165,0.596
26.170,0.564
26.175,0.530
26.180,0.504
26.185,0.478
26.190,0.453
26.195,0.433
26.200,0.410
26.205,0.384
26.210,0.360
26.215,0.344
26.220,0.331
26.225,0.315
26.230,0.297
26.235,0.279
26.240,0.261
26.245,0.245
26.250,0.233
26.255,0.222
26.260,0.205
26.265,0.186
26.270,0.163
26.275,0.134
26.280,0.104
26.285,0.072
26.290,0.037
26.295,-0.005
26.300,-0.055
26.305,-0.102
26.310,-0.147
26.315,-0.199
26.320,-0.256
26.325,-0.313
26.330,-0.363
26.335,-0.411
26.340,-0.459
26.345,-0.498
26.350,-0.530
26.355,-0.554
26.360,-0.570
26.365,-0.582
26.370,-0.585
26.375,-0.579
26.380,-0.566
26.385,-0.548
26.390,-0.527
26.395,-0.502
26.400,-0.475
26.405,-0.449
26.410,-0.423
26.415,-0.395
26.420,-0.368
26.425,-0.344
26.430,-0.321
26.435,-0.306
26.440,-0.294
26.445,-0.279
26.450,-0.264
26.455,-0.247
26.460,-0.232
26.465,-0.220
26.470,-0.210
26.475,-0.200
26.480,-0.189
26.485,-0.175
26.490,-0.163
26.495,-0.159
26.500,-0.156
26.505,-0.146
26.510,-0.139
26.515,-0.131
26.520,-0.119
26.525,-0.109
26.530,-0.099
26.535,-0.090
26.540,-0.085
26.545,-0.078
26.550,-0.073
26.555,-0.071
26.560,-0.066
26.565,-0.054
26.570,-0.044
26.575,-0.038
26.580,-0.036
26.585,-0.031
26.590,-0.024
26.595,-0.022
26.600,-0.017
26.605,-0.008
26.610,-0.004
26.615,-0.004
26.620,-0.003
26.625,0.002
26.630,0.008
26.635,0.011
26.640,0.012
26.645,0.017
26.650,0.019
26.655,0.021
26.660,0.025
26.665,0.024
26.670,0.023
26.675,0.019
26.680,0.019
26.685,0.030
26.690,0.035
26.695,0.036
26.700,0.037
26.705,0.036
26.710,0.035
26.715,0.032
26.720,0.031
26.725,0.033
26.730,0.033
26.735,0.030
26.740,0.032
26.745,0.036
26.750,0.040
26.755,0.048
26.760,0.049
26.765,0.041
26.770,0.035
26.775,0.036
26.780,0.042
26.785,0.039
26.790,0.032
26.795,0.034
26.800,0.039
26.805,0.040
26.810,0.038
26.815,0.041
26.820,0.045
26.825,0.045
26.830,0.045
26.835,0.044
26.840,0.042
26.845,0.035
26.850,0.032
26.855,0.037
26.860,0.042
26.865,0.041
26.870,0.040
26.875,0.043
26.880,0.043
26.885,0.039
26.890,0.032
26.895,0.030
26.900,0.032
26.905,0.033
26.910,0.030
26.915,0.026
26.920,0.017
26.925,0.002
26.930,-0.005
26.935,-0.021
26.940,-0.038
26.945,-0.042
26.950,-0.041
26.955,-0.047
26.960,-0.079
26.965,-0.129
26.970,-0.156
26.975,-0.148
26.980,-0.132
26.985,-0.110
26.990,-0.082
26.995,-0.057
27.000,-0.028
27.005,0.004
27.010,0.037
27.015,0.080
27.020,0.115
27.025,0.133
27.030,0.147
27.035,0.158
27.040,0.155
27.045,0.142
27.050,0.136
27.055,0.133
27.060,0.126
27.065,0.114
27.070,0.065
27.075,-0.021
27.080,-0.106
27.085,-0.218
27.090,-0.424
27.095,-0.664
27.100,-0.634
27.105,-0.295
27.110,0.027
27.115,0.250
27.120,0.375
27.125,0.435
27.130,0.455
27.135,0.349
27.140,0.224
27.145,0.194
27.150,0.176
27.155,0.157
27.160,0.164
27.165,0.143
27.170,0.108
27.175,0.115
27.180,0.125
27.185,0.102
27.190,0.080
27.195,0.081
27.200,0.081
27.205,0.074
27.210,0.072
27.215,0.066
27.220,0.062
27.225,0.055
27.230,0.044
27.235,0.033
27.240,0.023
27.245,0.016
27.250,0.009
27.255,0.005
27.260,0.007
27.265,0.003
27.270,-0.009
27.275,-0.019
27.280,-0.024
27.285,-0.026
27.290,-0.034
27.295,-0.049
27.300,-0.060
27.305,-0.065
27.310,-0.075
27.315,-0.088
27.320,-0.092
27.325,-0.096
27.330,-0.103
27.335,-0.116
27.340,-0.133
27.345,-0.139
27.350,-0.144
27.355,-0.159
27.360,-0.169
27.365,-0.175
27.370,-0.180
27.375,-0.186
27.380,-0.191
27.385,-0.189
27.390,-0.183
27.395,-0.186
27.400,-0.190
27.405,-0.184
27.410,-0.178
27.415,-0.175
27.420,-0.166
27.425,-0.145
27.430,-0.115
27.435,-0.086
27.440,-0.058
27.445,-0.014
27.450,0.042
27.455,0.089
27.460,0.123
27.465,0.151
27.470,0.174
27.475,0.190
27.480,0.200
27.485,0.213
27.490,0.234
27.495,0.246
27.500,0.242
27.505,0.234
27.510,0.225
27.515,0.213
27.520,0.210
27.525,0.212
27.530,0.205
27.535,0.191
27.540,0.177
27.545,0.161
27.550,0.152
27.555,0.147
27.560,0.135
27.565,0.121
27.570,0.111
27.575,0.103
27.580,0.098
27.585,0.091
27.590,0.081
27.595,0.083
27.600,0.082
27.605,0.065
27.610,0.053
27.615,0.052
27.620,0.050
27.625,0.044
27.630,0.041
27.635,0.046
27.640,0.053
27.645,0.049
27.650,0.040
27.655,0.037
27.660,0.037
27.665,0.028
27.670,0.018
27.675,0.024
27.680,0.038
27.685,0.042
27.690,0.032
27.695,0.024
27.700,0.024
27.705,0.017
27.710,-0.004
27.715,-0.032
27.720,-0.051
27.725,-0.055
27.730,-0.052
27.735,-0.058
27.740,-0.066
27.745,-0.067
27.750,-0.090
27.755,-0.142
27.760,-0.184
27.765,-0.197
27.770,-0.188
27.775,-0.167
27.780,-0.142
27.785,-0.115
27.790,-0.085
27.795,-0.056
27.800,-0.021
27.805,0.014
27.810,0.034
27.815,0.056
27.820,0.081
27.825,0.095
27.830,0.098
27.835,0.091
27.840,0.087
27.845,0.086
27.850,0.077
27.855,0.071
27.860,0.064
27.865,0.033
27.870,-0.045
27.875,-0.151
27.880,-0.249
27.885,-0.400
27.890,-0.641
27.895,-0.784
27.900,-0.593
27.905,-0.224
27.910,0.069
27.915,0.265
27.920,0.355
27.925,0.389
27.930,0.348
27.935,0.218
27.940,0.138
27.945,0.119
27.950,0.090
27.955,0.079
27.960,0.086
27.965,0.076
27.970,0.075
27.975,0.074
27.980,0.051
27.985,0.032
27.990,0.036
27.995,0.036
28.000,0.024
28.005,0.020
28.010,0.017
28.015,0.006
28.020,0.001
28.025,0.003
28.030,-0.002
28.035,-0.019
28.040,-0.030
28.045,-0.029
28.050,-0.030
28.055,-0.035
28.060,-0.042
28.065,-0.053
28.070,-0.058
28.075,-0.064
28.080,-0.073
28.085,-0.077
28.090,-0.086
28.095,-0.098
28.100,-0.102
28.105,-0.106
28.110,-0.119
28.115,-0.133
28.120,-0.142
28.125,-0.157
28.130,-0.176
28.135,-0.199
28.140,-0.215
28.145,-0.224
28.150,-0.242
28.155,-0.256
28.160,-0.264
28.165,-0.270
28.170,-0.275
28.175,-0.278
28.180,-0.274
28.185,-0.275
28.190,-0.272
28.195,-0.260
28.200,-0.248
28.205,-0.223
28.210,-0.184
28.215,-0.131
28.220,-0.075
28.225,-0.027
28.230,0.020
28.235,0.072
28.240,0.132
28.245,0.180
28.250,0.211
28.255,0.239
28.260,0.265
28.265,0.284
28.270,0.289
28.275,0.287
28.280,0.297
28.285,0.310
28.290,0.302
28.295,0.292
28.300,0.286
28.305,0.277
28.310,0.266
28.315,0.250
28.320,0.243
28.325,0.239
28.330,0.224
28.335,0.213
28.340,0.202
28.345,0.188
28.350,0.177
28.355,0.161
28.360,0.143
28.365,0.130
28.370,0.121
28.375,0.111
28.380,0.093
28.385,0.068
28.390,0.059
28.395,0.067
28.400,0.066
28.405,0.055
28.410,0.040
28.415,0.031
28.420,0.027
28.425,0.018
28.430,0.009
28.435,0.004
28.440,0.010
28.445,0.019
28.450,0.014
28.455,0.004
28.460,0.001
28.465,0.006
28.470,0.006
28.475,-0.001
28.480,-0.005
28.485,-0.010
28.490,-0.002
28.495,0.007
28.500,-0.002
28.505,-0.012
28.510,-0.019
28.515,-0.026
28.520,-0.028
28.525,-0.039
28.530,-0.053
28.535,-0.054
28.540,-0.058
28.545,-0.074
28.550,-0.089
28.555,-0.096
28.560,-0.110
28.565,-0.140
28.570,-0.182
28.575,-0.211
28.580,-0.209
28.585,-0.195
28.590,-0.174
28.595,-0.143
28.600,-0.116
28.605,-0.094
28.610,-0.076
28.615,-0.038
28.620,0.007
28.625,0.038
28.630,0.066
28.635,0.083
28.640,0.088
28.645,0.087
28.650,0.081
28.655,0.080
28.660,0.083
28.665,0.079
28.670,0.072
28.675,0.055
28.680,0.001
28.685,-0.095
28.690,-0.194
28.695,-0.300
28.700,-0.493
28.705,-0.755
28.710,-0.806
28.715,-0.505
28.720,-0.119
28.725,0.176
28.730,0.336
28.735,0.385
28.740,0.399
28.745,0.310
28.750,0.184
28.755,0.147
28.760,0.134
28.765,0.115
28.770,0.120
28.775,0.116
28.780,0.094
28.785,0.082
28.790,0.082
28.795,0.070
28.800,0.056
28.805,0.054
28.810,0.048
28.815,0.048
28.820,0.048
28.825,0.028
28.830,0.009
28.835,0.009
28.840,0.021
28.845,0.016
28.850,0.002
28.855,0.003
28.860,0.000
28.865,-0.012
28.870,-0.021
28.875,-0.029
28.880,-0.035
28.885,-0.046
28.890,-0.052
28.895,-0.047
28.900,-0.058
28.905,-0.081
28.910,-0.091
28.915,-0.084
28.920,-0.089
28.925,-0.115
28.930,-0.133
28.935,-0.133
28.940,-0.138
28.945,-0.164
28.950,-0.190
28.955,-0.206
28.960,-0.223
28.965,-0.239
28.970,-0.256
28.975,-0.269
28.980,-0.275
28.985,-0.282
28.990,-0.283
28.995,-0.280
29.000,-0.279
29.005,-0.272
29.010,-0.264
29.015,-0.248
29.020,-0.215
29.025,-0.172
29.030,-0.126
29.035,-0.078
29.040,-0.023
29.045,0.035
29.050,0.085
29.055,0.135
29.060,0.179
29.065,0.217
29.070,0.253
29.075,0.268
29.080,0.282
29.085,0.296
29.090,0.294
29.095,0.290
29.100,0.295
29.105,0.296
29.110,0.296
29.115,0.293
29.120,0.280
29.125,0.272
29.130,0.266
29.135,0.246
29.140,0.225
29.145,0.214
29.150,0.204
29.155,0.196
29.160,0.188
29.165,0.173
29.170,0.163
29.175,0.157
29.180,0.146
29.185,0.131
29.190,0.118
29.195,0.101
29.200,0.080
29.205,0.058
29.210,0.042
29.215,0.031
29.220,0.008
29.225,-0.029
29.230,-0.062
29.235,-0.090
29.240,-0.126
29.245,-0.171
29.250,-0.231
29.255,-0.312
29.260,-0.453
29.265,-0.635
29.270,-0.791
29.275,-0.914
29.280,-1.024
29.285,-1.103
29.290,-1.121
29.295,-1.103
29.300,-1.051
29.305,-0.959
29.310,-0.868
29.315,-0.804
29.320,-0.778
29.325,-0.712
29.330,-0.542
29.335,-0.355
29.340,-0.228
29.345,-0.125
29.350,0.030
29.355,0.272
29.360,0.565
29.365,0.827
29.370,1.008
29.375,1.093
29.380,1.103
29.385,1.095
29.390,1.074
29.395,1.024
29.400,0.956
29.405,0.906
29.410,0.882
29.415,0.862
29.420,0.840
29.425,0.810
29.430,0.770
29.435,0.735
29.440,0.703
29.445,0.680
29.450,0.658
29.455,0.613
29.460,0.582
29.465,0.568
29.470,0.540
29.475,0.509
29.480,0.487
29.485,0.469
29.490,0.445
29.495,0.421
29.500,0.403
29.505,0.388
29.510,0.374
29.515,0.359
29.520,0.342
29.525,0.325
29.530,0.308
29.535,0.296
29.540,0.288
29.545,0.267
29.550,0.239
29.555,0.222
29.560,0.206
29.565,0.179
29.570,0.144
29.575,0.102
29.580,0.055
29.585,0.013
29.590,-0.027
29.595,-0.079
29.600,-0.148
29.605,-0.222
29.610,-0.283
29.615,-0.333
29.620,-0.386
29.625,-0.440
29.630,-0.490
29.635,-0.530
29.640,-0.559
29.645,-0.587
29.650,-0.612
29.655,-0.624
29.660,-0.626
29.665,-0.619
29.670,-0.606
29.675,-0.593
29.680,-0.569
29.685,-0.529
29.690,-0.497
29.695,-0.477
29.700,-0.457
29.705,-0.430
29.710,-0.394
29.715,-0.362
29.720,-0.343
29.725,-0.332
29.730,-0.316
29.735,-0.292
29.740,-0.265
29.745,-0.245
29.750,-0.239
29.755,-0.234
29.760,-0.213
29.765,-0.201
29.770,-0.207
29.775,-0.202
29.780,-0.183
29.785,-0.165
29.790,-0.162
29.795,-0.166
29.800,-0.160
29.805,-0.140
29.810,-0.125
29.815,-0.121
29.820,-0.111
29.825,-0.098
29.830,-0.094
29.835,-0.097
29.840,-0.098
29.845,-0.085
29.850,-0.073
29.855,-0.077
29.860,-0.073
29.865,-0.056
29.870,-0.046
29.875,-0.037
29.880,-0.028
29.885,-0.030
29.890,-0.029
29.895,-0.018
29.900,-0.008
29.905,-0.005
29.910,-0.012
29.915,-0.017
29.920,-0.004
29.925,0.010
29.930,0.005
29.935,0.005
29.940,0.015
29.945,0.021
29.950,0.023
29.955,0.024
29.960,0.023
29.965,0.021
29.970,0.027
29.975,0.032
29.980,0.032
29.985,0.032
29.990,0.029
29.995,0.029
30.000,0.032
30.005,0.033
30.010,0.035
30.015,0.044
30.020,0.046
30.025,0.044
30.030,0.046
30.035,0.039
30.040,0.037
30.045,0.045
30.050,0.047
30.055,0.043
30.060,0.043
30.065,0.043
30.070,0.044
30.075,0.047
30.080,0.049
30.085,0.050
30.090,0.045
30.095,0.036
30.100,0.040
30.105,0.050
30.110,0.050
30.115,0.044
30.120,0.044
30.125,0.044
30.130,0.041
30.135,0.043
30.140,0.049
30.145,0.049
30.150,0.047
30.155,0.042
30.160,0.041
30.165,0.043
30.170,0.032
30.175,0.028
30.180,0.044
30.185,0.057
30.190,0.048
30.195,0.034
30.200,0.031
30.205,0.026
30.210,0.005
30.215,-0.012
30.220,-0.019
30.225,-0.019
30.230,-0.023
30.235,-0.035
30.240,-0.041
30.245,-0.051
30.250,-0.090
30.255,-0.131
30.260,-0.139
30.265,-0.137
30.270,-0.122
30.275,-0.090
30.280,-0.065
30.285,-0.036
30.290,-0.001
30.295,0.033
30.300,0.063
30.305,0.086
30.310,0.108
30.315,0.129
30.320,0.145
30.325,0.144
30.330,0.140
30.335,0.147
30.340,0.147
30.345,0.143
30.350,0.132
30.355,0.104
30.360,0.039
30.365,-0.055
30.370,-0.150
30.375,-0.312
30.380,-0.566
30.385,-0.737
30.390,-0.572
30.395,-0.201
30.400,0.102
30.405,0.318
30.410,0.422
30.415,0.462
30.420,0.427
30.425,0.292
30.430,0.213
30.435,0.198
30.440,0.166
30.445,0.154
30.450,0.167
30.455,0.154
30.460,0.138
30.465,0.140
30.470,0.132
30.475,0.111
30.480,0.100
30.485,0.094
30.490,0.085
30.495,0.079
30.500,0.074
30.505,0.066
30.510,0.061
30.515,0.057
30.520,0.048
30.525,0.041
30.530,0.035
30.535,0.028
30.540,0.023
30.545,0.015
30.550,0.006
30.555,-0.007
30.560,-0.021
30.565,-0.026
30.570,-0.026
30.575,-0.032
30.580,-0.041
30.585,-0.051
30.590,-0.060
30.595,-0.069
30.600,-0.080
30.605,-0.091
30.610,-0.098
30.615,-0.108
30.620,-0.122
30.625,-0.139
30.630,-0.160
30.635,-0.179
30.640,-0.194
30.645,-0.205
30.650,-0.214
30.655,-0.222
30.660,-0.226
30.665,-0.227
30.670,-0.232
30.675,-0.239
30.680,-0.240
30.685,-0.237
30.690,-0.229
30.695,-0.219
30.700,-0.211
30.705,-0.197
30.710,-0.174
30.715,-0.141
30.720,-0.101
30.725,-0.058
30.730,-0.014
30.735,0.033
30.740,0.082
30.745,0.128
30.750,0.167
30.755,0.201
30.760,0.230
30.765,0.250
30.770,0.265
30.775,0.277
30.780,0.283
30.785,0.283
30.790,0.278
30.795,0.271
30.800,0.266
30.805,0.257
30.810,0.245
30.815,0.235
30.820,0.223
30.825,0.206
30.830,0.192
30.835,0.181
30.840,0.173
30.845,0.167
30.850,0.154
30.855,0.134
30.860,0.124
30.865,0.121
30.870,0.113
30.875,0.100
30.880,0.083
30.885,0.075
30.890,0.074
30.895,0.066
30.900,0.058
30.905,0.055
30.910,0.051
30.915,0.041
30.920,0.032
30.925,0.027
30.930,0.028
30.935,0.032
30.940,0.034
30.945,0.031
30.950,0.023
30.955,0.016
30.960,0.013
30.965,0.013
30.970,0.015
30.975,0.014
30.980,0.013
30.985,0.009
30.990,0.005
30.995,0.007
31.000,0.014
31.005,0.015
31.010,0.008
31.015,-0.001
31.020,-0.008
31.025,-0.011
31.030,-0.011
31.035,-0.015
31.040,-0.030
31.045,-0.048
31.050,-0.063
31.055,-0.079
31.060,-0.090
31.065,-0.095
31.070,-0.098
31.075,-0.110
31.080,-0.146
31.085,-0.185
31.090,-0.194
31.095,-0.194
31.100,-0.193
31.105,-0.170
31.110,-0.140
31.115,-0.106
31.120,-0.075
31.125,-0.053
31.130,-0.017
31.135,0.021
31.140,0.046
31.145,0.067
31.150,0.079
31.155,0.085
31.160,0.089
31.165,0.088
31.170,0.085
31.175,0.077
31.180,0.069
31.185,0.058
31.190,0.034
31.195,-0.028
31.200,-0.128
31.205,-0.229
31.210,-0.366
31.215,-0.594
31.220,-0.813
31.225,-0.726
31.230,-0.350
31.235,0.009
31.240,0.258
31.245,0.363
31.250,0.393
31.255,0.379
31.260,0.255
31.265,0.149
31.270,0.131
31.275,0.117
31.280,0.104
31.285,0.111
31.290,0.097
31.295,0.074
31.300,0.072
31.305,0.067
31.310,0.052
31.315,0.051
31.320,0.048
31.325,0.036
31.330,0.030
31.335,0.024
31.340,0.015
31.345,0.007
31.350,0.000
31.355,-0.004
31.360,-0.009
31.365,-0.015
31.370,-0.022
31.375,-0.025
31.380,-0.023
31.385,-0.025
31.390,-0.034
31.395,-0.044
31.400,-0.052
31.405,-0.058
31.410,-0.064
31.415,-0.070
31.420,-0.074
31.425,-0.083
31.430,-0.099
31.435,-0.114
31.440,-0.128
31.445,-0.139
31.450,-0.150
31.455,-0.164
31.460,-0.181
31.465,-0.199
31.470,-0.218
31.475,-0.234
31.480,-0.248
31.485,-0.259
31.490,-0.271
31.495,-0.281
31.500,-0.287
31.505,-0.293
31.510,-0.296
31.515,-0.290
31.520,-0.276
31.525,-0.260
31.530,-0.235
31.535,-0.204
31.540,-0.167
31.545,-0.120
31.550,-0.068
31.555,-0.013
31.560,0.042
31.565,0.094
31.570,0.148
31.575,0.194
31.580,0.227
31.585,0.253
31.590,0.272
31.595,0.284
31.600,0.295
31.605,0.305
31.610,0.311
31.615,0.307
31.620,0.298
31.625,0.290
31.630,0.283
31.635,0.273
31.640,0.262
31.645,0.259
31.650,0.253
31.655,0.237
31.660,0.220
31.665,0.208
31.670,0.201
31.675,0.190
31.680,0.177
31.685,0.166
31.690,0.156
31.695,0.147
31.700,0.133
31.705,0.114
31.710,0.099
31.715,0.087
31.720,0.079
31.725,0.072
31.730,0.061
31.735,0.053
31.740,0.041
31.745,0.030
31.750,0.027
31.755,0.026
31.760,0.024
31.765,0.018
31.770,0.011
31.775,0.009
31.780,0.007
31.785,0.005
31.790,0.003
31.795,0.000
31.800,-0.004
31.805,-0.008
31.810,-0.009
31.815,-0.009
31.820,-0.013
31.825,-0.014
31.830,-0.016
31.835,-0.019
31.840,-0.017
31.845,-0.017
31.850,-0.016
31.855,-0.016
31.860,-0.022
31.865,-0.029
31.870,-0.032
31.875,-0.034
31.880,-0.040
31.885,-0.055
31.890,-0.073
31.895,-0.088
31.900,-0.100
31.905,-0.111
31.910,-0.116
31.915,-0.115
31.920,-0.121
31.925,-0.155
31.930,-0.199
31.935,-0.212
31.940,-0.202
31.945,-0.192
31.950,-0.170
31.955,-0.141
31.960,-0.109
31.965,-0.076
31.970,-0.051
31.975,-0.018
31.980,0.013
31.985,0.036
31.990,0.059
31.995,0.073
32.000,0.076
32.005,0.075
32.010,0.078
32.015,0.082
32.020,0.077
32.025,0.070
32.030,0.057
32.035,0.029
32.040,-0.036
32.045,-0.134
32.050,-0.233
32.055,-0.382
32.060,-0.621
32.065,-0.814
32.070,-0.685
32.075,-0.295
32.080,0.052
32.085,0.284
32.090,0.375
32.095,0.398
32.100,0.366
32.105,0.235
32.110,0.146
32.115,0.137
32.120,0.121
32.125,0.109
32.130,0.117
32.135,0.102
32.140,0.082
32.145,0.082
32.150,0.078
32.155,0.069
32.160,0.068
32.165,0.061
32.170,0.048
32.175,0.039
32.180,0.038
32.185,0.034
32.190,0.027
32.195,0.021
32.200,0.014
32.205,0.004
32.210,-0.004
32.215,-0.011
32.220,-0.015
32.225,-0.013
32.230,-0.013
32.235,-0.019
32.240,-0.030
32.245,-0.040
32.250,-0.043
32.255,-0.045
32.260,-0.053
32.265,-0.064
32.270,-0.074
32.275,-0.084
32.280,-0.094
32.285,-0.105
32.290,-0.121
32.295,-0.135
32.300,-0.151
32.305,-0.167
32.310,-0.182
32.315,-0.201
32.320,-0.222
32.325,-0.242
32.330,-0.259
32.335,-0.269
32.340,-0.278
32.345,-0.285
32.350,-0.282
32.355,-0.280
32.360,-0.280
32.365,-0.274
32.370,-0.261
32.375,-0.240
32.380,-0.210
32.385,-0.173
32.390,-0.125
32.395,-0.066
32.400,-0.008
32.405,0.045
32.410,0.097
32.415,0.145
32.420,0.192
32.425,0.231
32.430,0.256
32.435,0.274
32.440,0.291
32.445,0.303
32.450,0.311
32.455,0.314
32.460,0.312
32.465,0.307
32.470,0.299
32.475,0.289
32.480,0.281
32.485,0.274
32.490,0.262
32.495,0.250
32.500,0.239
32.505,0.228
32.510,0.219
32.515,0.207
32.520,0.196
32.525,0.184
32.530,0.170
32.535,0.159
32.540,0.148
32.545,0.135
32.550,0.116
32.555,0.093
32.560,0.071
32.565,0.047
32.570,0.017
32.575,-0.015
32.580,-0.054
32.585,-0.098
32.590,-0.141
32.595,-0.189
32.600,-0.274
32.605,-0.426
32.610,-0.613
32.615,-0.776
32.620,-0.900
32.625,-1.008
32.630,-1.085
32.635,-1.088
32.640,-1.049
32.645,-1.002
32.650,-0.931
32.655,-0.851
32.660,-0.791
32.665,-0.760
32.670,-0.693
32.675,-0.534
32.680,-0.362
32.685,-0.259
32.690,-0.170
32.695,-0.004
32.700,0.256
32.705,0.573
32.710,0.861
32.715,1.059
32.720,1.145
32.725,1.136
32.730,1.104
32.735,1.080
32.740,1.057
32.745,1.019
32.750,0.951
32.755,0.880
32.760,0.823
32.765,0.788
32.770,0.772
32.775,0.745
32.780,0.708
32.785,0.678
32.790,0.649
32.795,0.619
32.800,0.585
32.805,0.549
32.810,0.521
32.815,0.499
32.820,0.476
32.825,0.455
32.830,0.435
32.835,0.411
32.840,0.389
32.845,0.375
32.850,0.359
32.855,0.345
32.860,0.334
32.865,0.318
32.870,0.301
32.875,0.284
32.880,0.271
32.885,0.259
32.890,0.245
32.895,0.230
32.900,0.207
32.905,0.180
32.910,0.151
32.915,0.121
32.920,0.089
32.925,0.050
32.930,0.007
32.935,-0.040
32.940,-0.095
32.945,-0.153
32.950,-0.210
32.955,-0.266
32.960,-0.322
32.965,-0.378
32.970,-0.428
32.975,-0.472
32.980,-0.517
32.985,-0.557
32.990,-0.587
32.995,-0.606
33.000,-0.615
33.005,-0.617
33.010,-0.613
33.015,-0.602
33.020,-0.584
33.025,-0.560
33.030,-0.532
33.035,-0.503
33.040,-0.476
33.045,-0.448
33.050,-0.416
33.055,-0.384
33.060,-0.361
33.065,-0.343
33.070,-0.325
33.075,-0.305
33.080,-0.287
33.085,-0.271
33.090,-0.256
33.095,-0.244
33.100,-0.234
33.105,-0.220
33.110,-0.207
33.115,-0.198
33.120,-0.190
33.125,-0.183
33.130,-0.170
33.135,-0.157
33.140,-0.151
33.145,-0.142
33.150,-0.131
33.155,-0.123
33.160,-0.116
33.165,-0.110
33.170,-0.101
33.175,-0.090
33.180,-0.084
33.185,-0.080
33.190,-0.075
33.195,-0.065
33.200,-0.057
33.205,-0.053
33.210,-0.048
33.215,-0.041
33.220,-0.032
33.225,-0.026
33.230,-0.024
33.235,-0.022
33.240,-0.018
33.245,-0.017
33.250,-0.015
33.255,-0.006
33.260,0.002
33.265,0.006
33.270,0.010
33.275,0.013
33.280,0.017
33.285,0.020
33.290,0.019
33.295,0.020
33.300,0.023
33.305,0.023
33.310,0.027
33.315,0.031
33.320,0.032
33.325,0.034
33.330,0.036
33.335,0.036
33.340,0.037
33.345,0.036
33.350,0.033
33.355,0.034
33.360,0.036
33.365,0.039
33.370,0.042
33.375,0.045
33.380,0.045
33.385,0.043
33.390,0.041
33.395,0.042
33.400,0.045
33.405,0.046
33.410,0.044
33.415,0.044
33.420,0.045
33.425,0.045
33.430,0.047
33.435,0.047
33.440,0.046
33.445,0.049
33.450,0.050
33.455,0.049
33.460,0.051
33.465,0.051
33.470,0.049
33.475,0.047
33.480,0.045
33.485,0.045
33.490,0.046
33.495,0.045
33.500,0.044
33.505,0.043
33.510,0.041
33.515,0.038
33.520,0.036
33.525,0.035
33.530,0.034
33.535,0.036
33.540,0.037
33.545,0.036
33.550,0.036
33.555,0.034
33.560,0.032
33.565,0.029
33.570,0.031
33.575,0.033
33.580,0.031
33.585,0.028
33.590,0.022
33.595,0.009
33.600,-0.008
33.605,-0.021
33.610,-0.031
33.615,-0.040
33.620,-0.042
33.625,-0.044
33.630,-0.055
33.635,-0.086
33.640,-0.133
33.645,-0.160
33.650,-0.155
33.655,-0.145
33.660,-0.121
33.665,-0.089
33.670,-0.059
33.675,-0.023
33.680,0.009
33.685,0.042
33.690,0.075
33.695,0.099
33.700,0.121
33.705,0.138
33.710,0.145
33.715,0.141
33.720,0.137
33.725,0.136
33.730,0.132
33.735,0.125
33.740,0.110
33.745,0.058
33.750,-0.030
33.755,-0.113
33.760,-0.225
33.765,-0.442
33.770,-0.690
33.775,-0.657
33.780,-0.310
33.785,0.026
33.790,0.257
33.795,0.385
33.800,0.439
33.805,0.448
33.810,0.340
33.815,0.218
33.820,0.191
33.825,0.173
33.830,0.147
33.835,0.156
33.840,0.150
33.845,0.124
33.850,0.121
33.855,0.120
33.860,0.100
33.865,0.094
33.870,0.093
33.875,0.078
33.880,0.069
33.885,0.069
33.890,0.065
33.895,0.058
33.900,0.050
33.905,0.041
33.910,0.035
33.915,0.030
33.920,0.025
33.925,0.017
33.930,0.009
33.935,0.003
33.940,0.000
33.945,-0.007
33.950,-0.016
33.955,-0.025
33.960,-0.033
33.965,-0.038
33.970,-0.044
33.975,-0.054
33.980,-0.064
33.985,-0.074
33.990,-0.085
33.995,-0.098
34.000,-0.110
34.005,-0.117
34.010,-0.128
34.015,-0.144
34.020,-0.156
34.025,-0.165
34.030,-0.177
34.035,-0.188
34.040,-0.202
34.045,-0.211
34.050,-0.213
34.055,-0.217
34.060,-0.222
34.065,-0.226
34.070,-0.226
34.075,-0.221
34.080,-0.215
34.085,-0.208
34.090,-0.197
34.095,-0.180
34.100,-0.156
34.105,-0.121
34.110,-0.080
34.115,-0.037
34.120,0.007
34.125,0.051
34.130,0.090
34.135,0.128
34.140,0.167
34.145,0.202
34.150,0.225
34.155,0.236
34.160,0.247
34.165,0.258
34.170,0.262
34.175,0.264
34.180,0.267
34.185,0.263
34.190,0.251
34.195,0.243
34.200,0.235
34.205,0.223
34.210,0.214
34.215,0.204
34.220,0.191
34.225,0.174
34.230,0.157
34.235,0.150
34.240,0.140
34.245,0.125
34.250,0.115
34.255,0.109
34.260,0.102
34.265,0.094
34.270,0.085
34.275,0.078
34.280,0.069
34.285,0.062
34.290,0.052
34.295,0.041
34.300,0.037
34.305,0.037
34.310,0.035
34.315,0.032
34.320,0.034
34.325,0.040
34.330,0.035
34.335,0.020
34.340,0.019
34.345,0.023
34.350,0.020
34.355,0.016
34.360,0.017
34.365,0.020
34.370,0.016
34.375,0.011
34.380,0.012
34.385,0.016
34.390,0.014
34.395,0.005
34.400,0.000
34.405,-0.005
34.410,-0.016
34.415,-0.031
34.420,-0.048
34.425,-0.062
34.430,-0.072
34.435,-0.079
34.440,-0.083
34.445,-0.089
34.450,-0.100
34.455,-0.135
34.460,-0.184
34.465,-0.208
34.470,-0.206
34.475,-0.190
34.480,-0.161
34.485,-0.138
34.490,-0.113
34.495,-0.072
34.500,-0.040
34.505,-0.011
34.510,0.020
34.515,0.042
34.520,0.064
34.525,0.081
34.530,0.082
34.535,0.081
34.540,0.087
34.545,0.086
34.550,0.079
34.555,0.074
34.560,0.060
34.565,0.034
34.570,-0.022
34.575,-0.112
34.580,-0.194
34.585,-0.301
34.590,-0.510
34.595,-0.743
34.600,-0.690
34.605,-0.341
34.610,-0.015
34.615,0.211
34.620,0.324
34.625,0.373
34.630,0.387
34.635,0.273
34.640,0.148
34.645,0.117
34.650,0.094
34.655,0.074
34.660,0.087
34.665,0.083
34.670,0.065
34.675,0.059
34.680,0.051
34.685,0.041
34.690,0.038
34.695,0.033
34.700,0.021
34.705,0.015
34.710,0.015
34.715,0.002
34.720,-0.012
34.725,-0.005
34.730,0.001
34.735,-0.007
34.740,-0.019
34.745,-0.026
34.750,-0.031
34.755,-0.037
34.760,-0.041
34.765,-0.046
34.770,-0.058
34.775,-0.063
34.780,-0.063
34.785,-0.069
34.790,-0.074
34.795,-0.084
34.800,-0.097
34.805,-0.109
34.810,-0.117
34.815,-0.126
34.820,-0.142
34.825,-0.158
34.830,-0.162
34.835,-0.166
34.840,-0.182
34.845,-0.201
34.850,-0.222
34.855,-0.239
34.860,-0.255
34.865,-0.269
34.870,-0.276
34.875,-0.278
34.880,-0.284
34.885,-0.285
34.890,-0.276
34.895,-0.268
34.900,-0.254
34.905,-0.230
34.910,-0.204
34.915,-0.168
34.920,-0.116
34.925,-0.060
34.930,-0.008
34.935,0.046
34.940,0.103
34.945,0.150
34.950,0.191
34.955,0.225
34.960,0.253
34.965,0.273
34.970,0.279
34.975,0.290
34.980,0.310
34.985,0.317
34.990,0.306
34.995,0.300
35.000,0.298
35.005,0.286
35.010,0.272
35.015,0.263
35.020,0.256
35.025,0.253
35.030,0.244
35.035,0.235
35.040,0.222
35.045,0.201
35.050,0.189
35.055,0.177
35.060,0.157
35.065,0.143
35.070,0.133
35.075,0.124
35.080,0.112
35.085,0.094
35.090,0.085
35.095,0.079
35.100,0.063
35.105,0.050
35.110,0.048
35.115,0.048
35.120,0.049
35.125,0.040
35.130,0.022
35.135,0.016
35.140,0.020
35.145,0.017
35.150,0.010
35.155,0.007
35.160,0.010
35.165,0.011
35.170,0.004
35.175,0.002
35.180,0.001
35.185,-0.001
35.190,-0.005
35.195,-0.004
35.200,0.007
35.205,-0.001
35.210,-0.018
35.215,-0.018
35.220,-0.015
35.225,-0.019
35.230,-0.028
35.235,-0.042
35.240,-0.046
35.245,-0.050
35.250,-0.069
35.255,-0.083
35.260,-0.098
35.265,-0.110
35.270,-0.113
35.275,-0.134
35.280,-0.181
35.285,-0.214
35.290,-0.215
35.295,-0.200
35.300,-0.167
35.305,-0.141
35.310,-0.122
35.315,-0.089
35.320,-0.061
35.325,-0.033
35.330,0.005
35.335,0.035
35.340,0.058
35.345,0.082
35.350,0.091
35.355,0.085
35.360,0.085
35.365,0.079
35.370,0.065
35.375,0.063
35.380,0.062
35.385,0.055
35.390,0.022
35.395,-0.066
35.400,-0.175
35.405,-0.281
35.410,-0.461
35.415,-0.719
35.420,-0.778
35.425,-0.503
35.430,-0.148
35.435,0.143
35.440,0.317
35.445,0.376
35.450,0.406
35.455,0.324
35.460,0.185
35.465,0.140
35.470,0.124
35.475,0.100
35.480,0.110
35.485,0.109
35.490,0.082
35.495,0.076
35.500,0.073
35.505,0.056
35.510,0.050
35.515,0.054
35.520,0.052
35.525,0.045
35.530,0.038
35.535,0.026
35.540,0.018
35.545,0.018
35.550,0.012
35.555,-0.001
35.560,-0.010
35.565,-0.014
35.570,-0.020
35.575,-0.025
35.580,-0.025
35.585,-0.024
35.590,-0.031
35.595,-0.038
35.600,-0.047
35.605,-0.062
35.610,-0.065
35.615,-0.066
35.620,-0.079
35.625,-0.092
35.630,-0.107
35.635,-0.116
35.640,-0.122
35.645,-0.136
35.650,-0.148
35.655,-0.164
35.660,-0.191
35.665,-0.215
35.670,-0.226
35.675,-0.234
35.680,-0.249
35.685,-0.270
35.690,-0.276
35.695,-0.277
35.700,-0.288
35.705,-0.293
35.710,-0.289
35.715,-0.278
35.720,-0.261
35.725,-0.243
35.730,-0.214
35.735,-0.175
35.740,-0.132
35.745,-0.081
35.750,-0.023
35.755,0.040
35.760,0.099
35.765,0.149
35.770,0.187
35.775,0.211
35.780,0.242
35.785,0.268
35.790,0.283
35.795,0.307
35.800,0.320
35.805,0.315
35.810,0.310
35.815,0.303
35.820,0.303
35.825,0.306
35.830,0.291
35.835,0.272
35.840,0.263
35.845,0.248
35.850,0.238
35.855,0.234
35.860,0.224
35.865,0.208
35.870,0.195
35.875,0.182
35.880,0.174
35.885,0.170
35.890,0.153
35.895,0.128
35.900,0.117
35.905,0.114
35.910,0.099
35.915,0.073
35.920,0.061
35.925,0.068
35.930,0.070
35.935,0.053
35.940,0.031
35.945,0.014
35.950,0.001
35.955,-0.012
35.960,-0.022
35.965,-0.031
35.970,-0.054
35.975,-0.076
35.980,-0.103
35.985,-0.149
35.990,-0.196
35.995,-0.240
36.000,-0.310
36.005,-0.439
36.010,-0.608
36.015,-0.758
36.020,-0.873
36.025,-0.971
36.030,-1.045
36.035,-1.078
36.040,-1.080
36.045,-1.059
36.050,-1.007
36.055,-0.936
36.060,-0.882
36.065,-0.863
36.070,-0.832
36.075,-0.721
36.080,-0.549
36.085,-0.395
36.090,-0.289
36.095,-0.158
36.100,0.066
36.105,0.351
36.110,0.630
36.115,0.839
36.120,0.979
36.125,1.043
36.130,1.045
36.135,1.046
36.140,1.032
36.145,1.000
36.150,0.976
36.155,0.967
36.160,0.964
36.165,0.947
36.170,0.925
36.175,0.899
36.180,0.865
36.185,0.816
36.190,0.768
36.195,0.737
36.200,0.708
36.205,0.678
36.210,0.651
36.215,0.623
36.220,0.595
36.225,0.575
36.230,0.553
36.235,0.523
36.240,0.494
36.245,0.473
36.250,0.451
36.255,0.428
36.260,0.418
36.265,0.405
36.270,0.380
36.275,0.365
36.280,0.351
36.285,0.334
36.290,0.321
36.295,0.303
36.300,0.282
36.305,0.260
36.310,0.233
36.315,0.202
36.320,0.159
36.325,0.117
36.330,0.078
36.335,0.029
36.340,-0.028
36.345,-0.099
36.350,-0.164
36.355,-0.217
36.360,-0.275
36.365,-0.334
36.370,-0.397
36.375,-0.465
36.380,-0.516
36.385,-0.551
36.390,-0.589
36.395,-0.625
36.400,-0.644
36.405,-0.649
36.410,-0.653
36.415,-0.657
36.420,-0.650
36.425,-0.636
36.430,-0.613
36.435,-0.582
36.440,-0.548
36.445,-0.516
36.450,-0.489
36.455,-0.463
36.460,-0.434
36.465,-0.406
36.470,-0.383
36.475,-0.360
36.480,-0.339
36.485,-0.327
36.490,-0.315
36.495,-0.299
36.500,-0.285
36.505,-0.271
36.510,-0.257
36.515,-0.244
36.520,-0.233
36.525,-0.226
36.530,-0.218
36.535,-0.201
36.540,-0.190
36.545,-0.186
36.550,-0.181
36.555,-0.175
36.560,-0.166
36.565,-0.157
36.570,-0.151
36.575,-0.142
36.580,-0.129
36.585,-0.120
36.590,-0.116
36.595,-0.109
36.600,-0.102
36.605,-0.094
36.610,-0.082
36.615,-0.075
36.620,-0.069
36.625,-0.059
36.630,-0.054
36.635,-0.050
36.640,-0.047
36.645,-0.047
36.650,-0.036
36.655,-0.022
36.660,-0.018
36.665,-0.014
36.670,-0.012
36.675,-0.010
36.680,0.000
36.685,0.003
36.690,0.004
36.695,0.012
36.700,0.019
36.705,0.025
36.710,0.026
36.715,0.022
36.720,0.024
36.725,0.033
36.730,0.036
36.735,0.037
36.740,0.038
36.745,0.040
36.750,0.041
36.755,0.044
36.760,0.049
36.765,0.054
36.770,0.057
36.775,0.056
36.780,0.052
36.785,0.052
36.790,0.056
36.795,0.057
36.800,0.057
36.805,0.058
36.810,0.058
36.815,0.056
36.820,0.051
36.825,0.054
36.830,0.060
36.835,0.061
36.840,0.058
36.845,0.055
36.850,0.058
36.855,0.067
36.860,0.068
36.865,0.066
36.870,0.061
36.875,0.054
36.880,0.055
36.885,0.061
36.890,0.061
36.895,0.055
36.900,0.050
36.905,0.054
36.910,0.062
36.915,0.063
36.920,0.056
36.925,0.050
36.930,0.051
36.935,0.049
36.940,0.041
36.945,0.029
36.950,0.014
36.955,0.006
36.960,-0.001
36.965,-0.013
36.970,-0.020
36.975,-0.023
36.980,-0.031
36.985,-0.061
36.990,-0.107
36.995,-0.125
37.000,-0.113
37.005,-0.108
37.010,-0.096
37.015,-0.073
37.020,-0.046
37.025,-0.011
37.030,0.020
37.035,0.057
37.040,0.093
37.045,0.119
37.050,0.138
37.055,0.152
37.060,0.159
37.065,0.155
37.070,0.151
37.075,0.154
37.080,0.153
37.085,0.146
37.090,0.134
37.095,0.090
37.100,-0.002
37.105,-0.102
37.110,-0.210
37.115,-0.406
37.120,-0.675
37.125,-0.739
37.130,-0.451
37.135,-0.078
37.140,0.208
37.145,0.384
37.150,0.452
37.155,0.472
37.160,0.384
37.165,0.252
37.170,0.214
37.175,0.203
37.180,0.175
37.185,0.177
37.190,0.174
37.195,0.151
37.200,0.144
37.205,0.140
37.210,0.123
37.215,0.112
37.220,0.114
37.225,0.105
37.230,0.087
37.235,0.080
37.240,0.073
37.245,0.061
37.250,0.056
37.255,0.052
37.260,0.045
37.265,0.041
37.270,0.035
37.275,0.023
37.280,0.013
37.285,0.011
37.290,0.011
37.295,0.005
37.300,-0.003
37.305,-0.012
37.310,-0.024
37.315,-0.036
37.320,-0.046
37.325,-0.056
37.330,-0.065
37.335,-0.071
37.340,-0.081
37.345,-0.094
37.350,-0.112
37.355,-0.130
37.360,-0.142
37.365,-0.154
37.370,-0.169
37.375,-0.184
37.380,-0.200
37.385,-0.215
37.390,-0.226
37.395,-0.239
37.400,-0.252
37.405,-0.258
37.410,-0.258
37.415,-0.255
37.420,-0.252
37.425,-0.252
37.430,-0.250
37.435,-0.240
37.440,-0.221
37.445,-0.191
37.450,-0.154
37.455,-0.110
37.460,-0.061
37.465,-0.013
37.470,0.031
37.475,0.074
37.480,0.122
37.485,0.174
37.490,0.214
37.495,0.242
37.500,0.264
37.505,0.280
37.510,0.289
37.515,0.292
37.520,0.290
37.525,0.288
37.530,0.285
37.535,0.279
37.540,0.274
37.545,0.267
37.550,0.256
37.555,0.243
37.560,0.228
37.565,0.211
37.570,0.198
37.575,0.189
37.580,0.180
37.585,0.169
37.590,0.153
37.595,0.141
37.600,0.133
37.605,0.122
37.610,0.108
37.615,0.093
37.620,0.082
37.625,0.076
37.630,0.067
37.635,0.059
37.640,0.052
37.645,0.046
37.650,0.041
37.655,0.032
37.660,0.025
37.665,0.023
37.670,0.020
37.675,0.015
37.680,0.009
37.685,0.007
37.690,0.007
37.695,0.009
37.700,0.010
37.705,0.011
37.710,0.010
37.715,0.004
37.720,-0.002
37.725,-0.002
37.730,-0.004
37.735,-0.008
37.740,-0.010
37.745,-0.012
37.750,-0.017
37.755,-0.020
37.760,-0.017
37.765,-0.015
37.770,-0.023
37.775,-0.043
37.780,-0.061
37.785,-0.069
37.790,-0.080
37.795,-0.093
37.800,-0.101
37.805,-0.108
37.810,-0.116
37.815,-0.142
37.820,-0.185
37.825,-0.206
37.830,-0.204
37.835,-0.198
37.840,-0.178
37.845,-0.152
37.850,-0.122
37.855,-0.085
37.860,-0.056
37.865,-0.027
37.870,0.006
37.875,0.032
37.880,0.057
37.885,0.077
37.890,0.082
37.895,0.079
37.900,0.075
37.905,0.072
37.910,0.067
37.915,0.065
37.920,0.062
37.925,0.042
37.930,-0.012
37.935,-0.108
37.940,-0.217
37.945,-0.344
37.950,-0.551
37.955,-0.793
37.960,-0.785
37.965,-0.448
37.970,-0.065
37.975,0.219
37.980,0.358
37.985,0.393
37.990,0.392
37.995,0.287
38.000,0.162
38.005,0.132
38.010,0.119
38.015,0.101
38.020,0.108
38.025,0.102
38.030,0.082
38.035,0.076
38.040,0.071
38.045,0.056
38.050,0.047
38.055,0.044
38.060,0.037
38.065,0.031
38.070,0.032
38.075,0.027
38.080,0.017
38.085,0.012
38.090,0.008
38.095,-0.001
38.100,-0.006
38.105,-0.006
38.110,-0.011
38.115,-0.019
38.120,-0.026
38.125,-0.033
38.130,-0.041
38.135,-0.046
38.140,-0.053
38.145,-0.061
38.150,-0.071
38.155,-0.079
38.160,-0.085
38.165,-0.092
38.170,-0.101
38.175,-0.113
38.180,-0.127
38.185,-0.142
38.190,-0.157
38.195,-0.172
38.200,-0.190
38.205,-0.211
38.210,-0.229
38.215,-0.245
38.220,-0.260
38.225,-0.278
38.230,-0.290
38.235,-0.294
38.240,-0.294
38.245,-0.292
38.250,-0.288
38.255,-0.284
38.260,-0.270
38.265,-0.248
38.270,-0.217
38.275,-0.175
38.280,-0.126
38.285,-0.072
38.290,-0.015
38.295,0.045
38.300,0.101
38.305,0.149
38.310,0.194
38.315,0.232
38.320,0.261
38.325,0.281
38.330,0.293
38.335,0.302
38.340,0.310
38.345,0.311
38.350,0.307
38.355,0.298
38.360,0.290
38.365,0.285
38.370,0.279
38.375,0.269
38.380,0.258
38.385,0.249
38.390,0.242
38.395,0.232
38.400,0.222
38.405,0.212
38.410,0.201
38.415,0.189
38.420,0.175
38.425,0.161
38.430,0.150
38.435,0.139
38.440,0.128
38.445,0.116
38.450,0.103
38.455,0.091
38.460,0.081
38.465,0.070
38.470,0.060
38.475,0.051
38.480,0.041
38.485,0.031
38.490,0.025
38.495,0.020
38.500,0.014
38.505,0.010
38.510,0.007
38.515,0.004
38.520,0.000
38.525,-0.004
38.530,-0.007
38.535,-0.007
38.540,-0.009
38.545,-0.014
38.550,-0.017
38.555,-0.016
38.560,-0.013
38.565,-0.014
38.570,-0.016
38.575,-0.018
38.580,-0.019
38.585,-0.020
38.590,-0.024
38.595,-0.025
38.600,-0.024
38.605,-0.027
38.610,-0.036
38.615,-0.054
38.620,-0.072
38.625,-0.084
38.630,-0.097
38.635,-0.108
38.640,-0.114
38.645,-0.118
38.650,-0.127
38.655,-0.159
38.660,-0.199
38.665,-0.211
38.670,-0.203
38.675,-0.192
38.680,-0.171
38.685,-0.146
38.690,-0.116
38.695,-0.083
38.700,-0.057
38.705,-0.023
38.710,0.015
38.715,0.043
38.720,0.065
38.725,0.077
38.730,0.082
38.735,0.083
38.740,0.079
38.745,0.074
38.750,0.067
38.755,0.064
38.760,0.062
38.765,0.045
38.770,-0.012
38.775,-0.115
38.780,-0.225
38.785,-0.355
38.790,-0.565
38.795,-0.792
38.800,-0.744
38.805,-0.379
38.810,-0.003
38.815,0.258
38.820,0.377
38.825,0.407
38.830,0.399
38.835,0.281
38.840,0.160
38.845,0.137
38.850,0.123
38.855,0.102
38.860,0.111
38.865,0.105
38.870,0.086
38.875,0.081
38.880,0.074
38.885,0.062
38.890,0.057
38.895,0.054
38.900,0.044
38.905,0.035
38.910,0.034
38.915,0.030
38.920,0.019
38.925,0.012
38.930,0.008
38.935,0.006
38.940,0.003
38.945,-0.003
38.950,-0.009
38.955,-0.012
38.960,-0.015
38.965,-0.022
38.970,-0.030
38.975,-0.039
38.980,-0.047
38.985,-0.053
38.990,-0.062
38.995,-0.072
39.000,-0.079
39.005,-0.088
39.010,-0.099
39.015,-0.110
39.020,-0.118
39.025,-0.130
39.030,-0.151
39.035,-0.171
39.040,-0.188
39.045,-0.203
39.050,-0.218
39.055,-0.233
39.060,-0.247
39.065,-0.264
39.070,-0.278
39.075,-0.285
39.080,-0.287
39.085,-0.289
39.090,-0.289
39.095,-0.281
39.100,-0.267
39.105,-0.246
39.110,-0.216
39.115,-0.179
39.120,-0.132
39.125,-0.077
39.130,-0.021
39.135,0.038
39.140,0.094
39.145,0.141
39.150,0.183
39.155,0.226
39.160,0.264
39.165,0.285
39.170,0.293
39.175,0.298
39.180,0.307
39.185,0.311
39.190,0.306
39.195,0.299
39.200,0.294
39.205,0.287
39.210,0.277
39.215,0.266
39.220,0.256
39.225,0.248
39.230,0.239
39.235,0.227
39.240,0.215
39.245,0.206
39.250,0.198
39.255,0.189
39.260,0.180
39.265,0.171
39.270,0.157
39.275,0.141
39.280,0.124
39.285,0.105
39.290,0.086
39.295,0.065
39.300,0.041
39.305,0.012
39.310,-0.021
39.315,-0.060
39.320,-0.104
39.325,-0.150
39.330,-0.199
39.335,-0.283
39.340,-0.436
39.345,-0.621
39.350,-0.781
39.355,-0.905
39.360,-1.010
39.365,-1.082
39.370,-1.080
39.375,-1.034
39.380,-0.985
39.385,-0.921
39.390,-0.852
39.395,-0.801
39.400,-0.772
39.405,-0.705
39.410,-0.546
39.415,-0.376
39.420,-0.275
39.425,-0.185
39.430,-0.020
39.435,0.244
39.440,0.566
39.445,0.854
39.450,1.055
39.455,1.140
39.460,1.123
39.465,1.084
39.470,1.060
39.475,1.046
39.480,1.012
39.485,0.944
39.490,0.868
39.495,0.807
39.500,0.775
39.505,0.762
39.510,0.736
39.515,0.698
39.520,0.664
39.525,0.634
39.530,0.606
39.535,0.580
39.540,0.549
39.545,0.521
39.550,0.496
39.555,0.472
39.560,0.451
39.565,0.430
39.570,0.409
39.575,0.387
39.580,0.372
39.585,0.361
39.590,0.348
39.595,0.335
39.600,0.319
39.605,0.300
39.610,0.284
39.615,0.271
39.620,0.259
39.625,0.246
39.630,0.228
39.635,0.209
39.640,0.190
39.645,0.166
39.650,0.136
39.655,0.097
39.660,0.056
39.665,0.012
39.670,-0.038
39.675,-0.092
39.680,-0.148
39.685,-0.205
39.690,-0.261
39.695,-0.318
39.700,-0.375
39.705,-0.426
39.710,-0.470
39.715,-0.515
39.720,-0.555
39.725,-0.583
39.730,-0.599
39.735,-0.610
39.740,-0.616
39.745,-0.613
39.750,-0.599
39.755,-0.581
39.760,-0.559
39.765,-0.531
39.770,-0.502
39.775,-0.471
39.780,-0.443
39.785,-0.416
39.790,-0.389
39.795,-0.366
39.800,-0.343
39.805,-0.320
39.810,-0.300
39.815,-0.283
39.820,-0.269
39.825,-0.254
39.830,-0.241
39.835,-0.226
39.840,-0.212
39.845,-0.202
39.850,-0.193
39.855,-0.188
39.860,-0.183
39.865,-0.173
39.870,-0.159
39.875,-0.148
39.880,-0.138
39.885,-0.131
39.890,-0.124
39.895,-0.113
39.900,-0.105
39.905,-0.099
39.910,-0.093
39.915,-0.086
39.920,-0.077
39.925,-0.071
39.930,-0.066
39.935,-0.058
39.940,-0.052
39.945,-0.046
39.950,-0.039
39.955,-0.031
39.960,-0.021
39.965,-0.015
39.970,-0.013
39.975,-0.011
39.980,-0.010
39.985,-0.008
39.990,-0.002
39.995,0.002
40.000,0.003
40.005,0.004
40.010,0.006
40.015,0.012
40.020,0.021
40.025,0.027
40.030,0.029
40.035,0.028
40.040,0.024
40.045,0.021
40.050,0.023
40.055,0.027
40.060,0.031
40.065,0.034
40.070,0.032
40.075,0.032
40.080,0.036
40.085,0.037
40.090,0.036
40.095,0.036
40.100,0.039
40.105,0.046
40.110,0.046
40.115,0.041
40.120,0.040
40.125,0.043
40.130,0.044
40.135,0.044
40.140,0.044
40.145,0.048
40.150,0.050
40.155,0.045
40.160,0.039
40.165,0.037
40.170,0.042
40.175,0.048
40.180,0.048
40.185,0.045
40.190,0.045
40.195,0.045
40.200,0.045
40.205,0.041
40.210,0.039
40.215,0.039
40.220,0.039
40.225,0.044
40.230,0.047
40.235,0.048
40.240,0.046
40.245,0.045
40.250,0.044
40.255,0.036
40.260,0.029
40.265,0.028
40.270,0.037
40.275,0.039
40.280,0.031
40.285,0.032
40.290,0.037
40.295,0.043
40.300,0.044
40.305,0.037
40.310,0.033
40.315,0.028
40.320,0.022
40.325,0.022
40.330,0.028
40.335,0.026
40.340,0.011
40.345,-0.002
40.350,-0.012
40.355,-0.021
40.360,-0.031
40.365,-0.041
40.370,-0.043
40.375,-0.056
40.380,-0.087
40.385,-0.123
40.390,-0.148
40.395,-0.147
40.400,-0.145
40.405,-0.129
40.410,-0.089
40.415,-0.060
40.420,-0.030
40.425,0.007
40.430,0.040
40.435,0.070
40.440,0.095
40.445,0.115
40.450,0.128
40.455,0.133
40.460,0.136
40.465,0.136
40.470,0.133
40.475,0.129
40.480,0.127
40.485,0.114
40.490,0.065
40.495,-0.020
40.500,-0.102
40.505,-0.194
40.510,-0.395
40.515,-0.666
40.520,-0.684
40.525,-0.365
40.530,-0.026
40.535,0.208
40.540,0.343
40.545,0.416
40.550,0.458
40.555,0.372
40.560,0.231
40.565,0.183
40.570,0.175
40.575,0.153
40.580,0.157
40.585,0.160
40.590,0.127
40.595,0.110
40.600,0.115
40.605,0.104
40.610,0.100
40.615,0.098
40.620,0.079
40.625,0.072
40.630,0.077
40.635,0.073
40.640,0.056
40.645,0.046
40.650,0.050
40.655,0.044
40.660,0.029
40.665,0.022
40.670,0.018
40.675,0.017
40.680,0.017
40.685,0.001
40.690,-0.016
40.695,-0.017
40.700,-0.023
40.705,-0.028
40.710,-0.033
40.715,-0.049
40.720,-0.058
40.725,-0.054
40.730,-0.055
40.735,-0.067
40.740,-0.088
40.745,-0.103
40.750,-0.109
40.755,-0.121
40.760,-0.139
40.765,-0.155
40.770,-0.164
40.775,-0.174
40.780,-0.185
40.785,-0.191
40.790,-0.202
40.795,-0.213
40.800,-0.219
40.805,-0.220
40.810,-0.218
40.815,-0.221
40.820,-0.218
40.825,-0.207
40.830,-0.198
40.835,-0.186
40.840,-0.170
40.845,-0.150
40.850,-0.122
40.855,-0.081
40.860,-0.043
40.865,-0.004
40.870,0.050
40.875,0.098
40.880,0.138
40.885,0.173
40.890,0.202
40.895,0.231
40.900,0.249
40.905,0.253
40.910,0.255
40.915,0.257
40.920,0.255
40.925,0.250
40.930,0.250
40.935,0.250
40.940,0.244
40.945,0.234
40.950,0.220
40.955,0.204
40.960,0.195
40.965,0.185
40.970,0.168
40.975,0.154
40.980,0.151
40.985,0.147
40.990,0.126
40.995,0.106
41.000,0.098
41.005,0.098
41.010,0.091
41.015,0.069
41.020,0.062
41.025,0.062
41.030,0.056
41.035,0.049
41.040,0.040
41.045,0.031
41.050,0.024
41.055,0.027
41.060,0.031
41.065,0.023
41.070,0.018
41.075,0.019
41.080,0.025
41.085,0.029
41.090,0.015
41.095,0.012
41.100,0.018
41.105,0.014
41.110,0.010
41.115,0.007
41.120,0.005
41.125,0.007
41.130,0.003
41.135,0.003
41.140,0.010
41.145,0.006
41.150,-0.001
41.155,0.001
41.160,-0.007
41.165,-0.034
41.170,-0.056
41.175,-0.057
41.180,-0.062
41.185,-0.075
41.190,-0.087
41.195,-0.091
41.200,-0.103
41.205,-0.147
41.210,-0.193
41.215,-0.203
41.220,-0.193
41.225,-0.175
41.230,-0.148
41.235,-0.128
41.240,-0.110
41.245,-0.078
41.250,-0.038
41.255,0.001
41.260,0.036
41.265,0.056
41.270,0.071
41.275,0.093
41.280,0.098
41.285,0.085
41.290,0.077
41.295,0.074
41.300,0.077
41.305,0.082
41.310,0.070
41.315,0.039
41.320,-0.023
41.325,-0.120
41.330,-0.216
41.335,-0.344
41.340,-0.572
41.345,-0.783
41.350,-0.692
41.355,-0.347
41.360,-0.027
41.365,0.213
41.370,0.330
41.375,0.371
41.380,0.366
41.385,0.258
41.390,0.157
41.395,0.125
41.400,0.102
41.405,0.097
41.410,0.110
41.415,0.088
41.420,0.057
41.425,0.060
41.430,0.068
41.435,0.058
41.440,0.046
41.445,0.043
41.450,0.042
41.455,0.036
41.460,0.028
41.465,0.008
41.470,-0.001
41.475,0.010
41.480,0.006
41.485,-0.011
41.490,-0.013
41.495,-0.004
41.500,-0.008
41.505,-0.024
41.510,-0.037
41.515,-0.051
41.520,-0.056
41.525,-0.054
41.530,-0.053
41.535,-0.061
41.540,-0.080
41.545,-0.089
41.550,-0.088
41.555,-0.098
41.560,-0.105
41.565,-0.117
41.570,-0.144
41.575,-0.163
41.580,-0.177
41.585,-0.189
41.590,-0.194
41.595,-0.211
41.600,-0.234
41.605,-0.246
41.610,-0.264
41.615,-0.287
41.620,-0.293
41.625,-0.292
41.630,-0.286
41.635,-0.280
41.640,-0.293
41.645,-0.291
41.650,-0.257
41.655,-0.222
41.660,-0.193
41.665,-0.155
41.670,-0.089
41.675,-0.029
41.680,0.014
41.685,0.061
41.690,0.111
41.695,0.163
41.700,0.202
41.705,0.228
41.710,0.257
41.715,0.290
41.720,0.318
41.725,0.320
41.730,0.304
41.735,0.301
41.740,0.307
41.745,0.302
41.750,0.289
41.755,0.277
41.760,0.267
41.765,0.259
41.770,0.249
41.775,0.246
41.780,0.235
41.785,0.210
41.790,0.210
41.795,0.208
41.800,0.185
41.805,0.173
41.810,0.162
41.815,0.147
41.820,0.134
41.825,0.118
41.830,0.105
41.835,0.094
41.840,0.073
41.845,0.063
41.850,0.064
41.855,0.050
41.860,0.031
41.865,0.015
41.870,0.008
41.875,0.008
41.880,0.009
41.885,0.023
41.890,0.036
41.895,0.025
41.900,0.005
41.905,-0.005
41.910,0.001
41.915,0.006
41.920,-0.004
41.925,-0.013
41.930,-0.015
41.935,-0.009
41.940,-0.006
41.945,-0.013
41.950,-0.019
41.955,-0.019
41.960,-0.008
41.965,-0.008
41.970,-0.025
41.975,-0.031
41.980,-0.029
41.985,-0.034
41.990,-0.055
41.995,-0.068
42.000,-0.068
42.005,-0.069
42.010,-0.075
42.015,-0.084
42.020,-0.088
42.025,-0.092
42.030,-0.128
42.035,-0.185
42.040,-0.216
42.045,-0.206
42.050,-0.186
42.055,-0.167
42.060,-0.156
42.065,-0.142
42.070,-0.110
42.075,-0.074
42.080,-0.033
42.085,0.014
42.090,0.045
42.095,0.074
42.100,0.090
42.105,0.056
42.110,0.013
42.115,-0.001
42.120,0.016
42.125,0.060
42.130,0.095
42.135,0.109
42.140,0.109
42.145,0.064
42.150,-0.047
42.155,-0.179
42.160,-0.309
42.165,-0.496
42.170,-0.746
42.175,-0.833
42.180,-0.564
42.185,-0.158
42.190,0.160
42.195,0.332
42.200,0.380
42.205,0.391
42.210,0.313
42.215,0.177
42.220,0.130
42.225,0.134
42.230,0.122
42.235,0.123
42.240,0.126
42.245,0.117
42.250,0.112
42.255,0.099
42.260,0.071
42.265,0.056
42.270,0.057
42.275,0.046
42.280,0.047
42.285,0.069
42.290,0.076
42.295,0.057
42.300,0.034
42.305,0.020
42.310,0.008
42.315,-0.007
42.320,-0.003
42.325,0.004
42.330,-0.009
42.335,-0.028
42.340,-0.042
42.345,-0.042
42.350,-0.030
42.355,-0.023
42.360,-0.027
42.365,-0.034
42.370,-0.053
42.375,-0.083
42.380,-0.098
42.385,-0.106
42.390,-0.112
42.395,-0.116
42.400,-0.133
42.405,-0.138
42.410,-0.141
42.415,-0.178
42.420,-0.210
42.425,-0.223
42.430,-0.227
42.435,-0.226
42.440,-0.240
42.445,-0.255
42.450,-0.261
42.455,-0.279
42.460,-0.307
42.465,-0.330
42.470,-0.332
42.475,-0.308
42.480,-0.277
42.485,-0.247
42.490,-0.198
42.495,-0.124
42.500,-0.057
42.505,-0.009
42.510,0.055
42.515,0.127
42.520,0.175
42.525,0.205
42.530,0.218
42.535,0.241
42.540,0.301
42.545,0.334
42.550,0.322
42.555,0.300
42.560,0.282
42.565,0.296
42.570,0.305
42.575,0.266
42.580,0.238
42.585,0.260
42.590,0.285
42.595,0.279
42.600,0.255
42.605,0.234
42.610,0.237
42.615,0.241
42.620,0.211
42.625,0.185
42.630,0.195
42.635,0.203
42.640,0.182
42.645,0.155
42.650,0.144
42.655,0.141
42.660,0.114
42.665,0.077
42.670,0.070
42.675,0.076
42.680,0.048
42.685,-0.009
42.690,-0.055
42.695,-0.090
42.700,-0.134
42.705,-0.165
42.710,-0.184
42.715,-0.264
42.720,-0.448
42.725,-0.656
42.730,-0.793
42.735,-0.910
42.740,-1.050
42.745,-1.132
42.750,-1.118
42.755,-1.064
42.760,-1.010
42.765,-0.937
42.770,-0.851
42.775,-0.791
42.780,-0.766
42.785,-0.706
42.790,-0.556
42.795,-0.390
42.800,-0.275
42.805,-0.162
42.810,0.002
42.815,0.228
42.820,0.516
42.825,0.812
42.830,1.023
42.835,1.105
42.840,1.102
42.845,1.090
42.850,1.089
42.855,1.068
42.860,0.992
42.865,0.902
42.870,0.856
42.875,0.836
42.880,0.823
42.885,0.809
42.890,0.791
42.895,0.781
42.900,0.746
42.905,0.683
42.910,0.642
42.915,0.629
42.920,0.608
42.925,0.580
42.930,0.542
42.935,0.500
42.940,0.476
42.945,0.455
42.950,0.462
42.955,0.495
42.960,0.465
42.965,0.404
42.970,0.367
42.975,0.333
42.980,0.322
42.985,0.325
42.990,0.312
42.995,0.302
43.000,0.287
43.005,0.244
43.010,0.228
43.015,0.250
43.020,0.243
43.025,0.203
43.030,0.145
43.035,0.079
43.040,0.034
43.045,0.006
43.050,-0.027
43.055,-0.061
43.060,-0.124
43.065,-0.204
43.070,-0.257
43.075,-0.310
43.080,-0.395
43.085,-0.471
43.090,-0.518
43.095,-0.557
43.100,-0.574
43.105,-0.584
43.110,-0.592
43.115,-0.596
43.120,-0.617
43.125,-0.625
43.130,-0.614
43.135,-0.595
43.140,-0.552
43.145,-0.514
43.150,-0.490
43.155,-0.464
43.160,-0.446
43.165,-0.435
43.170,-0.427
43.175,-0.407
43.180,-0.384
43.185,-0.374
43.190,-0.356
43.195,-0.319
43.200,-0.268
43.205,-0.198
43.210,-0.113
43.215,-0.084
43.220,-0.195
43.225,-0.352
43.230,-0.392
43.235,-0.343
43.240,-0.271
43.245,-0.193
43.250,-0.144
43.255,-0.137
43.260,-0.161
43.265,-0.180
43.270,-0.139
43.275,-0.068
43.280,-0.063
43.285,-0.067
43.290,-0.034
43.295,-0.038
43.300,-0.079
43.305,-0.128
43.310,-0.159
43.315,-0.133
43.320,-0.107
43.325,-0.105
43.330,-0.092
43.335,-0.102
43.340,-0.116
43.345,-0.080
43.350,-0.013
43.355,0.054
43.360,0.079
43.365,0.046
43.370,-0.001
43.375,-0.050
43.380,-0.079
43.385,-0.053
43.390,-0.013
43.395,-0.004
43.400,-0.012
43.405,-0.009
43.410,0.006
43.415,0.024
43.420,0.057
43.425,0.066
43.430,0.010
43.435,-0.041
43.440,-0.034
43.445,0.001
43.450,0.047
43.455,0.079
43.460,0.076
43.465,0.062
43.470,0.014
43.475,-0.026
43.480,0.036
43.485,0.066
43.490,0.004
43.495,-0.015
43.500,-0.005
43.505,0.017
43.510,0.046
43.515,0.051
43.520,0.078
43.525,0.127
43.530,0.097
43.535,0.027
43.540,0.023
43.545,0.007
43.550,0.004
43.555,0.047
43.560,0.036
43.565,0.045
43.570,0.059
43.575,0.030
43.580,0.063
43.585,0.085
43.590,0.055
43.595,0.025
43.600,-0.002
43.605,0.016
43.610,0.035
43.615,0.027
43.620,0.024
43.625,0.017
43.630,0.066
43.635,0.100
43.640,0.047
43.645,0.037
43.650,0.044
43.655,0.031
43.660,0.038
43.665,0.006
43.670,-0.046
43.675,-0.058
43.680,-0.047
43.685,-0.030
43.690,-0.017
43.695,-0.027
43.700,-0.012
43.705,-0.017
43.710,-0.108
43.715,-0.190
43.720,-0.188
43.725,-0.126
43.730,-0.064
43.735,-0.064
43.740,-0.082
43.745,-0.059
43.750,-0.007
43.755,0.055
43.760,0.084
43.765,0.090
43.770,0.128
43.775,0.209
43.780,0.267
43.785,0.197
43.790,0.085
43.795,0.056
43.800,0.089
43.805,0.135
43.810,0.131
43.815,0.067
43.820,-0.001
43.825,-0.066
43.830,-0.199
43.835,-0.399
43.840,-0.624
43.845,-0.673
43.850,-0.358
43.855,0.013
43.860,0.241
43.865,0.387
43.870,0.445
43.875,0.460
43.880,0.390
43.885,0.271
43.890,0.224
43.895,0.188
43.900,0.152
43.905,0.164
43.910,0.180
43.915,0.156
43.920,0.127
43.925,0.147
43.930,0.127
43.935,0.070
43.940,0.070
43.945,0.074
43.950,0.072
43.955,0.070
43.960,0.054
43.965,0.074
43.970,0.097
43.975,0.074
43.980,0.053
43.985,0.057
43.990,0.033
43.995,-0.003
44.000,-0.014
44.005,-0.013
44.010,-0.011
44.015,-0.033
44.020,-0.056
44.025,-0.048
44.030,-0.026
44.035,-0.021
44.040,-0.026
44.045,-0.021
44.050,-0.036
44.055,-0.056
44.060,-0.082
44.065,-0.111
44.070,-0.112
44.075,-0.126
44.080,-0.116
44.085,-0.096
44.090,-0.138
44.095,-0.185
44.100,-0.225
44.105,-0.253
44.110,-0.266
44.115,-0.266
44.120,-0.236
44.125,-0.200
44.130,-0.176
44.135,-0.173
44.140,-0.183
44.145,-0.187
44.150,-0.244
44.155,-0.307
44.160,-0.287
44.165,-0.250
44.170,-0.185
44.175,-0.087
44.180,-0.032
44.185,-0.018
44.190,-0.010
44.195,0.034
44.200,0.113
44.205,0.166
44.210,0.167
44.215,0.166
44.220,0.200
44.225,0.242
44.230,0.280
44.235,0.302
44.240,0.286
44.245,0.268
44.250,0.275
44.255,0.293
44.260,0.282
44.265,0.232
44.270,0.207
44.275,0.203
44.280,0.183
44.285,0.207
44.290,0.242
44.295,0.201
44.300,0.137
44.305,0.118
44.310,0.147
44.315,0.150
44.320,0.105
44.325,0.102
44.330,0.115
44.335,0.094
44.340,0.082
44.345,0.072
44.350,0.064
44.355,0.063
44.360,0.055
44.365,0.074
44.370,0.055
44.375,-0.016
44.380,-0.033
44.385,-0.002
44.390,0.014
44.395,-0.014
44.400,-0.031
44.405,-0.002
44.410,0.017
44.415,0.038
44.420,0.054
44.425,0.046
44.430,0.021
44.435,-0.013
44.440,-0.013
44.445,0.004
44.450,-0.001
44.455,-0.025
44.460,-0.048
44.465,-0.051
44.470,-0.026
44.475,-0.018
44.480,-0.054
44.485,-0.086
44.490,-0.086
44.495,-0.087
44.500,-0.106
44.505,-0.152
44.510,-0.215
44.515,-0.229
44.520,-0.213
44.525,-0.183
44.530,-0.125
44.535,-0.097
44.540,-0.106
44.545,-0.065
44.550,0.009
44.555,0.020
44.560,-0.001
44.565,0.014
44.570,0.072
44.575,0.124
44.580,0.131
44.585,0.122
44.590,0.124
44.595,0.110
44.600,0.090
44.605,0.082
44.610,0.051
44.615,0.024
44.620,-0.041
44.625,-0.165
44.630,-0.282
44.635,-0.448
44.640,-0.644
44.645,-0.753
44.650,-0.599
44.655,-0.201
44.660,0.162
44.665,0.373
44.670,0.430
44.675,0.434
44.680,0.397
44.685,0.258
44.690,0.143
44.695,0.101
44.700,0.097
44.705,0.116
44.710,0.141
44.715,0.076
44.720,-0.011
44.725,0.014
44.730,0.047
44.735,0.067
44.740,0.053
44.745,0.014
44.750,0.014
44.755,0.032
44.760,0.052
44.765,0.022
44.770,-0.025
44.775,-0.015
44.780,-0.004
44.785,-0.011
44.790,-0.051
44.795,-0.094
44.800,-0.062
44.805,-0.027
44.810,-0.021
44.815,-0.049
44.820,-0.077
44.825,-0.065
44.830,-0.080
44.835,-0.087
44.840,-0.104
44.845,-0.107
44.850,-0.054
44.855,-0.084
44.860,-0.117
44.865,-0.143
44.870,-0.209
44.875,-0.193
44.880,-0.183
44.885,-0.195
44.890,-0.184
44.895,-0.234
44.900,-0.289
44.905,-0.284
44.910,-0.263
44.915,-0.281
44.920,-0.343
44.925,-0.389
44.930,-0.348
44.935,-0.264
44.940,-0.244
44.945,-0.270
44.950,-0.290
44.955,-0.258
44.960,-0.191
44.965,-0.144
44.970,-0.114
44.975,-0.087
44.980,-0.009
44.985,0.068
44.990,0.085
44.995,0.130
45.000,0.199
45.005,0.257
45.010,0.273
45.015,0.264
45.020,0.308
45.025,0.289
45.030,0.242
45.035,0.238
45.040,0.254
45.045,0.310
45.050,0.313
45.055,0.280
45.060,0.258
45.065,0.260
45.070,0.285
45.075,0.234
45.080,0.140
45.085,0.122
45.090,0.193
45.095,0.256
45.100,0.210
45.105,0.143
45.110,0.135
45.115,0.156
45.120,0.222
45.125,0.226
45.130,0.112
45.135,0.048
45.140,0.060
45.145,0.049
45.150,0.081
45.155,0.124
45.160,0.078
45.165,0.047
45.170,0.079
45.175,0.095
45.180,0.096
45.185,0.047
45.190,-0.001
45.195,0.059
45.200,0.055
45.205,-0.027
45.210,0.024
45.215,0.085
45.220,0.010
45.225,-0.014
45.230,0.015
45.235,0.031
45.240,0.060
45.245,0.031
45.250,0.022
45.255,0.017
45.260,-0.047
45.265,-0.064
45.270,-0.095
45.275,-0.153
45.280,-0.114
45.285,-0.054
45.290,-0.094
45.295,-0.148
45.300,-0.154
45.305,-0.185
45.310,-0.190
