'Elapsed time','ECG'
'seconds','mV'
0.000,0.106
0.005,0.095
0.010,0.084
0.015,0.082
0.020,0.091
0.025,0.094
0.030,0.081
0.035,0.076
0.040,0.074
0.045,0.066
0.050,0.062
0.055,0.063
0.060,0.055
0.065,0.046
0.070,0.045
0.075,0.045
0.080,0.044
0.085,0.044
0.090,0.044
0.095,0.041
0.100,0.035
0.105,0.029
0.110,0.023
0.115,0.019
0.120,0.014
0.125,0.012
0.130,0.013
0.135,0.009
0.140,0.008
0.145,0.008
0.150,0.005
0.155,0.004
0.160,0.004
0.165,0.003
0.170,-0.003
0.175,-0.007
0.180,-0.012
0.185,-0.017
0.190,-0.021
0.195,-0.022
0.200,-0.015
0.205,-0.012
0.210,-0.013
0.215,-0.017
0.220,-0.022
0.225,-0.023
0.230,-0.021
0.235,-0.014
0.240,-0.014
0.245,-0.023
0.250,-0.028
0.255,-0.034
0.260,-0.035
0.265,-0.030
0.270,-0.038
0.275,-0.054
0.280,-0.070
0.285,-0.098
0.290,-0.124
0.295,-0.126
0.300,-0.119
0.305,-0.118
0.310,-0.133
0.315,-0.150
0.320,-0.130
0.325,-0.087
0.330,-0.067
0.335,-0.055
0.340,-0.031
0.345,-0.011
0.350,0.017
0.355,0.048
0.360,0.063
0.365,0.071
0.370,0.068
0.375,0.049
0.380,0.043
0.385,0.044
0.390,0.044
0.395,0.048
0.400,0.048
0.405,0.048
0.410,0.046
0.415,0.035
0.420,0.024
0.425,0.000
0.430,-0.077
0.435,-0.213
0.440,-0.392
0.445,-0.630
0.450,-0.803
0.455,-0.705
0.460,-0.235
0.465,0.414
0.470,0.810
0.475,0.860
0.480,0.701
0.485,0.442
0.490,0.213
0.495,0.065
0.500,0.006
0.505,0.010
0.510,-0.002
0.515,-0.024
0.520,-0.017
0.525,-0.021
0.530,-0.043
0.535,-0.053
0.540,-0.055
0.545,-0.058
0.550,-0.055
0.555,-0.047
0.560,-0.045
0.565,-0.052
0.570,-0.060
0.575,-0.066
0.580,-0.075
0.585,-0.076
0.590,-0.066
0.595,-0.064
0.600,-0.078
0.605,-0.088
0.610,-0.091
0.615,-0.091
0.620,-0.091
0.625,-0.106
0.630,-0.115
0.635,-0.106
0.640,-0.110
0.645,-0.125
0.650,-0.135
0.655,-0.141
0.660,-0.143
0.665,-0.145
0.670,-0.155
0.675,-0.166
0.680,-0.169
0.685,-0.176
0.690,-0.184
0.695,-0.193
0.700,-0.210
0.705,-0.210
0.710,-0.194
0.715,-0.178
0.720,-0.157
0.725,-0.139
0.730,-0.132
0.735,-0.115
0.740,-0.079
0.745,-0.025
0.750,0.028
0.755,0.066
0.760,0.106
0.765,0.146
0.770,0.170
0.775,0.187
0.780,0.199
0.785,0.204
0.790,0.215
0.795,0.215
0.800,0.209
0.805,0.204
0.810,0.184
0.815,0.182
0.820,0.189
0.825,0.175
0.830,0.155
0.835,0.142
0.840,0.140
0.845,0.134
0.850,0.120
0.855,0.105
0.860,0.106
0.865,0.120
0.870,0.117
0.875,0.109
0.880,0.111
0.885,0.102
0.890,0.093
0.895,0.092
0.900,0.082
0.905,0.080
0.910,0.085
0.915,0.089
0.920,0.084
0.925,0.074
0.930,0.066
0.935,0.067
0.940,0.069
0.945,0.059
0.950,0.051
0.955,0.050
0.960,0.045
0.965,0.038
0.970,0.042
0.975,0.049
0.980,0.046
0.985,0.031
0.990,0.018
0.995,0.020
1.000,0.024
1.005,0.023
1.010,0.019
1.015,0.009
1.020,-0.007
1.025,-0.017
1.030,-0.010
1.035,0.005
1.040,0.011
1.045,0.007
1.050,0.001
1.055,-0.005
1.060,-0.010
1.065,-0.016
1.070,-0.020
1.075,-0.018
1.080,-0.019
1.085,-0.023
1.090,-0.024
1.095,-0.020
1.100,-0.016
1.105,-0.020
1.110,-0.025
1.115,-0.034
1.120,-0.039
1.125,-0.045
1.130,-0.063
1.135,-0.076
1.140,-0.101
1.145,-0.125
1.150,-0.114
1.155,-0.106
1.160,-0.124
1.165,-0.150
1.170,-0.158
1.175,-0.130
1.180,-0.094
1.185,-0.080
1.190,-0.062
1.195,-0.036
1.200,-0.018
1.205,0.011
1.210,0.037
1.215,0.048
1.220,0.064
1.225,0.067
1.230,0.063
1.235,0.065
1.240,0.057
1.245,0.047
1.250,0.040
1.255,0.034
1.260,0.023
1.265,0.010
1.270,0.010
1.275,0.022
1.280,-0.005
1.285,-0.117
1.290,-0.279
1.295,-0.471
1.300,-0.698
1.305,-0.833
1.310,-0.689
1.315,-0.166
1.320,0.482
1.325,0.823
1.330,0.846
1.335,0.672
1.340,0.404
1.345,0.188
1.350,0.046
1.355,-0.008
1.360,-0.006
1.365,-0.030
1.370,-0.046
1.375,-0.029
1.380,-0.035
1.385,-0.063
1.390,-0.066
1.395,-0.053
1.400,-0.047
1.405,-0.052
1.410,-0.065
1.415,-0.077
1.420,-0.079
1.425,-0.071
1.430,-0.066
1.435,-0.072
1.440,-0.074
1.445,-0.071
1.450,-0.075
1.455,-0.083
1.460,-0.092
1.465,-0.100
1.470,-0.101
1.475,-0.095
1.480,-0.099
1.485,-0.109
1.490,-0.114
1.495,-0.120
1.500,-0.127
1.505,-0.130
1.510,-0.134
1.515,-0.145
1.520,-0.160
1.525,-0.173
1.530,-0.180
1.535,-0.182
1.540,-0.186
1.545,-0.191
1.550,-0.191
1.555,-0.190
1.560,-0.187
1.565,-0.180
1.570,-0.176
1.575,-0.173
1.580,-0.164
1.585,-0.139
1.590,-0.104
1.595,-0.066
1.600,-0.028
1.605,0.011
1.610,0.061
1.615,0.113
1.620,0.145
1.625,0.166
1.630,0.181
1.635,0.191
1.640,0.200
1.645,0.199
1.650,0.198
1.655,0.200
1.660,0.197
1.665,0.194
1.670,0.190
1.675,0.178
1.680,0.168
1.685,0.163
1.690,0.157
1.695,0.148
1.700,0.135
1.705,0.129
1.710,0.131
1.715,0.134
1.720,0.131
1.725,0.123
1.730,0.117
1.735,0.112
1.740,0.105
1.745,0.102
1.750,0.100
1.755,0.099
1.760,0.096
1.765,0.092
1.770,0.091
1.775,0.090
1.780,0.084
1.785,0.078
1.790,0.071
1.795,0.064
1.800,0.061
1.805,0.062
1.810,0.065
1.815,0.060
1.820,0.051
1.825,0.048
1.830,0.048
1.835,0.045
1.840,0.037
1.845,0.030
1.850,0.030
1.855,0.031
1.860,0.024
1.865,0.014
1.870,0.013
1.875,0.016
1.880,0.014
1.885,0.012
1.890,0.014
1.895,0.014
1.900,0.007
1.905,0.000
1.910,-0.006
1.915,-0.010
1.920,-0.009
1.925,-0.008
1.930,-0.006
1.935,-0.003
1.940,-0.011
1.945,-0.029
1.950,-0.051
1.955,-0.069
1.960,-0.091
1.965,-0.110
1.970,-0.115
1.975,-0.111
1.980,-0.111
1.985,-0.129
1.990,-0.146
1.995,-0.123
2.000,-0.083
2.005,-0.059
2.010,-0.042
2.015,-0.025
2.020,-0.010
2.025,0.015
2.030,0.044
2.035,0.065
2.040,0.080
2.045,0.081
2.050,0.074
2.055,0.073
2.060,0.068
2.065,0.056
2.070,0.049
2.075,0.048
2.080,0.044
2.085,0.042
2.090,0.041
2.095,0.037
2.100,0.014
2.105,-0.064
2.110,-0.204
2.115,-0.387
2.120,-0.603
2.125,-0.732
2.130,-0.629
2.135,-0.202
2.140,0.404
2.145,0.799
2.150,0.861
2.155,0.663
2.160,0.367
2.165,0.162
2.170,0.047
2.175,-0.003
2.180,-0.010
2.185,-0.022
2.190,-0.036
2.195,-0.035
2.200,-0.041
2.205,-0.054
2.210,-0.057
2.215,-0.056
2.220,-0.061
2.225,-0.069
2.230,-0.073
2.235,-0.076
2.240,-0.074
2.245,-0.072
2.250,-0.075
2.255,-0.077
2.260,-0.075
2.265,-0.077
2.270,-0.085
2.275,-0.086
2.280,-0.086
2.285,-0.092
2.290,-0.095
2.295,-0.098
2.300,-0.102
2.305,-0.109
2.310,-0.118
2.315,-0.123
2.320,-0.127
2.325,-0.133
2.330,-0.141
2.335,-0.154
2.340,-0.166
2.345,-0.172
2.350,-0.179
2.355,-0.190
2.360,-0.198
2.365,-0.201
2.370,-0.202
2.375,-0.202
2.380,-0.198
2.385,-0.188
2.390,-0.176
2.395,-0.169
2.400,-0.160
2.405,-0.140
2.410,-0.108
2.415,-0.068
2.420,-0.021
2.425,0.031
2.430,0.080
2.435,0.125
2.440,0.164
2.445,0.193
2.450,0.211
2.455,0.221
2.460,0.227
2.465,0.230
2.470,0.227
2.475,0.221
2.480,0.215
2.485,0.207
2.490,0.201
2.495,0.197
2.500,0.191
2.505,0.179
2.510,0.164
2.515,0.157
2.520,0.155
2.525,0.152
2.530,0.146
2.535,0.138
2.540,0.133
2.545,0.131
2.550,0.132
2.555,0.127
2.560,0.114
2.565,0.107
2.570,0.103
2.575,0.098
2.580,0.095
2.585,0.094
2.590,0.095
2.595,0.092
2.600,0.083
2.605,0.073
2.610,0.066
2.615,0.063
2.620,0.062
2.625,0.060
2.630,0.053
2.635,0.047
2.640,0.044
2.645,0.040
2.650,0.036
2.655,0.031
2.660,0.024
2.665,0.018
2.670,0.015
2.675,0.013
2.680,0.008
2.685,0.003
2.690,0.006
2.695,0.006
2.700,-0.001
2.705,-0.003
2.710,-0.005
2.715,-0.009
2.720,-0.011
2.725,-0.016
2.730,-0.017
2.735,-0.017
2.740,-0.018
2.745,-0.019
2.750,-0.022
2.755,-0.029
2.760,-0.030
2.765,-0.028
2.770,-0.033
2.775,-0.037
2.780,-0.036
2.785,-0.036
2.790,-0.035
2.795,-0.035
2.800,-0.039
2.805,-0.047
2.810,-0.056
2.815,-0.063
2.820,-0.070
2.825,-0.090
2.830,-0.125
2.835,-0.144
2.840,-0.136
2.845,-0.127
2.850,-0.133
2.855,-0.157
2.860,-0.162
2.865,-0.132
2.870,-0.099
2.875,-0.076
2.880,-0.059
2.885,-0.043
2.890,-0.022
2.895,0.008
2.900,0.037
2.905,0.054
2.910,0.060
2.915,0.055
2.920,0.052
2.925,0.054
2.930,0.054
2.935,0.051
2.940,0.045
2.945,0.037
2.950,0.033
2.955,0.032
2.960,0.029
2.965,0.025
2.970,-0.012
2.975,-0.119
2.980,-0.273
2.985,-0.463
2.990,-0.663
2.995,-0.717
3.000,-0.492
3.005,0.037
3.010,0.606
3.015,0.865
3.020,0.805
3.025,0.537
3.030,0.253
3.035,0.094
3.040,0.018
3.045,-0.005
3.050,-0.013
3.055,-0.029
3.060,-0.038
3.065,-0.037
3.070,-0.042
3.075,-0.046
3.080,-0.047
3.085,-0.054
3.090,-0.062
3.095,-0.060
3.100,-0.061
3.105,-0.073
3.110,-0.080
3.115,-0.079
3.120,-0.081
3.125,-0.081
3.130,-0.084
3.135,-0.091
3.140,-0.094
3.145,-0.096
3.150,-0.093
3.155,-0.092
3.160,-0.098
3.165,-0.099
3.170,-0.099
3.175,-0.098
3.180,-0.103
3.185,-0.112
3.190,-0.119
3.195,-0.128
3.200,-0.135
3.205,-0.142
3.210,-0.153
3.215,-0.165
3.220,-0.175
3.225,-0.176
3.230,-0.177
3.235,-0.183
3.240,-0.182
3.245,-0.181
3.250,-0.182
3.255,-0.174
3.260,-0.163
3.265,-0.155
3.270,-0.146
3.275,-0.126
3.280,-0.084
3.285,-0.034
3.290,0.006
3.295,0.041
3.300,0.082
3.305,0.127
3.310,0.167
3.315,0.195
3.320,0.214
3.325,0.226
3.330,0.230
3.335,0.231
3.340,0.235
3.345,0.231
3.350,0.220
3.355,0.216
3.360,0.216
3.365,0.208
3.370,0.197
3.375,0.183
3.380,0.180
3.385,0.178
3.390,0.161
3.395,0.149
3.400,0.145
3.405,0.137
3.410,0.125
3.415,0.123
3.420,0.130
3.425,0.135
3.430,0.133
3.435,0.119
3.440,0.112
3.445,0.108
3.450,0.098
3.455,0.094
3.460,0.093
3.465,0.091
3.470,0.082
3.475,0.073
3.480,0.072
3.485,0.072
3.490,0.067
3.495,0.059
3.500,0.046
3.505,0.040
3.510,0.042
3.515,0.044
3.520,0.051
3.525,0.052
3.530,0.037
3.535,0.022
3.540,0.010
3.545,0.000
3.550,0.000
3.555,0.000
3.560,-0.007
3.565,-0.010
3.570,-0.008
3.575,-0.006
3.580,-0.007
3.585,-0.011
3.590,-0.017
3.595,-0.022
3.600,-0.028
3.605,-0.037
3.610,-0.044
3.615,-0.045
3.620,-0.040
3.625,-0.031
3.630,-0.023
3.635,-0.026
3.640,-0.036
3.645,-0.042
3.650,-0.045
3.655,-0.051
3.660,-0.052
3.665,-0.047
3.670,-0.048
3.675,-0.052
3.680,-0.049
3.685,-0.042
3.690,-0.042
3.695,-0.054
3.700,-0.064
3.705,-0.052
3.710,-0.044
3.715,-0.069
3.720,-0.099
3.725,-0.126
3.730,-0.148
3.735,-0.155
3.740,-0.149
3.745,-0.133
3.750,-0.130
3.755,-0.143
3.760,-0.148
3.765,-0.130
3.770,-0.104
3.775,-0.084
3.780,-0.063
3.785,-0.038
3.790,-0.003
3.795,0.034
3.800,0.055
3.805,0.070
3.810,0.073
3.815,0.062
3.820,0.054
3.825,0.056
3.830,0.057
3.835,0.048
3.840,0.030
3.845,0.021
3.850,0.024
3.855,0.033
3.860,0.038
3.865,0.014
3.870,-0.080
3.875,-0.232
3.880,-0.425
3.885,-0.666
3.890,-0.831
3.895,-0.701
3.900,-0.170
3.905,0.485
3.910,0.827
3.915,0.845
3.920,0.682
3.925,0.429
3.930,0.211
3.935,0.068
3.940,0.020
3.945,0.032
3.950,0.005
3.955,-0.032
3.960,-0.027
3.965,-0.029
3.970,-0.042
3.975,-0.034
3.980,-0.026
3.985,-0.036
3.990,-0.036
3.995,-0.038
4.000,-0.051
4.005,-0.051
4.010,-0.046
4.015,-0.055
4.020,-0.062
4.025,-0.060
4.030,-0.064
4.035,-0.062
4.040,-0.057
4.045,-0.058
4.050,-0.069
4.055,-0.086
4.060,-0.086
4.065,-0.083
4.070,-0.092
4.075,-0.091
4.080,-0.086
4.085,-0.092
4.090,-0.107
4.095,-0.123
4.100,-0.132
4.105,-0.139
4.110,-0.145
4.115,-0.149
4.120,-0.158
4.125,-0.169
4.130,-0.171
4.135,-0.167
4.140,-0.167
4.145,-0.177
4.150,-0.191
4.155,-0.187
4.160,-0.168
4.165,-0.158
4.170,-0.138
4.175,-0.106
4.180,-0.068
4.185,-0.019
4.190,0.018
4.195,0.050
4.200,0.092
4.205,0.129
4.210,0.153
4.215,0.173
4.220,0.185
4.225,0.189
4.230,0.188
4.235,0.185
4.240,0.189
4.245,0.195
4.250,0.197
4.255,0.190
4.260,0.172
4.265,0.156
4.270,0.148
4.275,0.146
4.280,0.151
4.285,0.152
4.290,0.136
4.295,0.123
4.300,0.124
4.305,0.124
4.310,0.122
4.315,0.123
4.320,0.118
4.325,0.109
4.330,0.096
4.335,0.084
4.340,0.084
4.345,0.085
4.350,0.081
4.355,0.081
4.360,0.085
4.365,0.081
4.370,0.067
4.375,0.064
4.380,0.064
4.385,0.061
4.390,0.059
4.395,0.058
4.400,0.064
4.405,0.062
4.410,0.052
4.415,0.038
4.420,0.031
4.425,0.033
4.430,0.026
4.435,0.021
4.440,0.021
4.445,0.019
4.450,0.020
4.455,0.022
4.460,0.018
4.465,0.015
4.470,0.009
4.475,-0.002
4.480,-0.009
4.485,-0.015
4.490,-0.019
4.495,-0.016
4.500,-0.013
4.505,-0.019
4.510,-0.025
4.515,-0.025
4.520,-0.028
4.525,-0.030
4.530,-0.033
4.535,-0.033
4.540,-0.025
4.545,-0.024
4.550,-0.034
4.555,-0.041
4.560,-0.045
4.565,-0.047
4.570,-0.045
4.575,-0.046
4.580,-0.054
4.585,-0.068
4.590,-0.091
4.595,-0.123
4.600,-0.141
4.605,-0.141
4.610,-0.139
4.615,-0.143
4.620,-0.159
4.625,-0.159
4.630,-0.133
4.635,-0.103
4.640,-0.085
4.645,-0.078
4.650,-0.067
4.655,-0.043
4.660,-0.007
4.665,0.025
4.670,0.042
4.675,0.056
4.680,0.061
4.685,0.056
4.690,0.047
4.695,0.033
4.700,0.024
4.705,0.023
4.710,0.022
4.715,0.018
4.720,0.021
4.725,0.030
4.730,0.022
4.735,-0.031
4.740,-0.153
4.745,-0.320
4.750,-0.528
4.755,-0.747
4.760,-0.804
4.765,-0.533
4.770,0.059
4.775,0.630
4.780,0.848
4.785,0.790
4.790,0.573
4.795,0.315
4.800,0.134
4.805,0.022
4.810,-0.004
4.815,0.007
4.820,-0.017
4.825,-0.034
4.830,-0.027
4.835,-0.037
4.840,-0.045
4.845,-0.036
4.850,-0.044
4.855,-0.058
4.860,-0.052
4.865,-0.050
4.870,-0.060
4.875,-0.064
4.880,-0.062
4.885,-0.063
4.890,-0.064
4.895,-0.059
4.900,-0.057
4.905,-0.062
4.910,-0.071
4.915,-0.077
4.920,-0.077
4.925,-0.076
4.930,-0.081
4.935,-0.088
4.940,-0.091
4.945,-0.093
4.950,-0.095
4.955,-0.097
4.960,-0.105
4.965,-0.121
4.970,-0.134
4.975,-0.141
4.980,-0.147
4.985,-0.155
4.990,-0.162
4.995,-0.165
5.000,-0.168
5.005,-0.177
5.010,-0.178
5.015,-0.168
5.020,-0.162
5.025,-0.159
5.030,-0.153
5.035,-0.141
5.040,-0.116
5.045,-0.084
5.050,-0.052
5.055,-0.013
5.060,0.036
5.065,0.086
5.070,0.130
5.075,0.161
5.080,0.181
5.085,0.199
5.090,0.214
5.095,0.224
5.100,0.225
5.105,0.217
5.110,0.211
5.115,0.211
5.120,0.208
5.125,0.199
5.130,0.187
5.135,0.182
5.140,0.179
5.145,0.172
5.150,0.167
5.155,0.160
5.160,0.149
5.165,0.140
5.170,0.135
5.175,0.134
5.180,0.126
5.185,0.120
5.190,0.121
5.195,0.119
5.200,0.113
5.205,0.103
5.210,0.096
5.215,0.096
5.220,0.094
5.225,0.092
5.230,0.087
5.235,0.082
5.240,0.082
5.245,0.075
5.250,0.064
5.255,0.058
5.260,0.057
5.265,0.056
5.270,0.051
5.275,0.048
5.280,0.046
5.285,0.045
5.290,0.039
5.295,0.032
5.300,0.030
5.305,0.028
5.310,0.022
5.315,0.015
5.320,0.011
5.325,0.011
5.330,0.011
5.335,0.011
5.340,0.006
5.345,-0.004
5.350,-0.007
5.355,-0.006
5.360,-0.002
5.365,-0.001
5.370,-0.012
5.375,-0.021
5.380,-0.022
5.385,-0.021
5.390,-0.020
5.395,-0.018
5.400,-0.022
5.405,-0.025
5.410,-0.024
5.415,-0.031
5.420,-0.048
5.425,-0.068
5.430,-0.101
5.435,-0.131
5.440,-0.136
5.445,-0.130
5.450,-0.123
5.455,-0.133
5.460,-0.148
5.465,-0.136
5.470,-0.109
5.475,-0.088
5.480,-0.070
5.485,-0.047
5.490,-0.026
5.495,-0.007
5.500,0.025
5.505,0.051
5.510,0.067
5.515,0.074
5.520,0.068
5.525,0.058
5.530,0.050
5.535,0.044
5.540,0.043
5.545,0.041
5.550,0.033
5.555,0.030
5.560,0.035
5.565,0.037
5.570,0.019
5.575,-0.049
5.580,-0.183
5.585,-0.359
5.590,-0.568
5.595,-0.718
5.600,-0.660
5.605,-0.289
5.610,0.306
5.615,0.758
5.620,0.866
5.625,0.696
5.630,0.401
5.635,0.171
5.640,0.049
5.645,-0.003
5.650,-0.014
5.655,-0.024
5.660,-0.037
5.665,-0.035
5.670,-0.039
5.675,-0.056
5.680,-0.061
5.685,-0.057
5.690,-0.061
5.695,-0.067
5.700,-0.069
5.705,-0.072
5.710,-0.076
5.715,-0.076
5.720,-0.075
5.725,-0.080
5.730,-0.086
5.735,-0.087
5.740,-0.088
5.745,-0.091
5.750,-0.086
5.755,-0.068
5.760,-0.060
5.765,-0.070
5.770,-0.078
5.775,-0.084
5.780,-0.090
5.785,-0.099
5.790,-0.110
5.795,-0.113
5.800,-0.118
5.805,-0.131
5.810,-0.139
5.815,-0.148
5.820,-0.166
5.825,-0.182
5.830,-0.191
5.835,-0.195
5.840,-0.196
5.845,-0.195
5.850,-0.193
5.855,-0.191
5.860,-0.185
5.865,-0.176
5.870,-0.163
5.875,-0.144
5.880,-0.118
5.885,-0.085
5.890,-0.044
5.895,0.002
5.900,0.050
5.905,0.097
5.910,0.138
5.915,0.169
5.920,0.192
5.925,0.208
5.930,0.215
5.935,0.221
5.940,0.227
5.945,0.224
5.950,0.219
5.955,0.212
5.960,0.203
5.965,0.196
5.970,0.183
5.975,0.169
5.980,0.165
5.985,0.163
5.990,0.160
5.995,0.158
6.000,0.155
6.005,0.151
6.010,0.146
6.015,0.133
6.020,0.119
6.025,0.113
6.030,0.111
6.035,0.106
6.040,0.102
6.045,0.100
6.050,0.096
6.055,0.093
6.060,0.086
6.065,0.080
6.070,0.079
6.075,0.075
6.080,0.069
6.085,0.066
6.090,0.062
6.095,0.059
6.100,0.059
6.105,0.053
6.110,0.047
6.115,0.044
6.120,0.038
6.125,0.035
6.130,0.033
6.135,0.027
6.140,0.018
6.145,0.012
6.150,0.014
6.155,0.019
6.160,0.016
6.165,0.007
6.170,-0.002
6.175,-0.006
6.180,-0.006
6.185,-0.005
6.190,0.001
6.195,0.000
6.200,-0.010
6.205,-0.019
6.210,-0.025
6.215,-0.030
6.220,-0.030
6.225,-0.024
6.230,-0.018
6.235,-0.016
6.240,-0.018
6.245,-0.028
6.250,-0.041
6.255,-0.052
6.260,-0.053
6.265,-0.042
6.270,-0.035
6.275,-0.036
6.280,-0.040
6.285,-0.042
6.290,-0.043
6.295,-0.056
6.300,-0.078
6.305,-0.095
6.310,-0.114
6.315,-0.129
6.320,-0.137
6.325,-0.141
6.330,-0.139
6.335,-0.148
6.340,-0.160
6.345,-0.140
6.350,-0.104
6.355,-0.083
6.360,-0.074
6.365,-0.062
6.370,-0.042
6.375,-0.018
6.380,0.009
6.385,0.037
6.390,0.065
6.395,0.072
6.400,0.064
6.405,0.061
6.410,0.051
6.415,0.036
6.420,0.033
6.425,0.034
6.430,0.029
6.435,0.024
6.440,0.023
6.445,0.025
6.450,0.006
6.455,-0.080
6.460,-0.226
6.465,-0.419
6.470,-0.673
6.475,-0.853
6.480,-0.731
6.485,-0.213
6.490,0.447
6.495,0.817
6.500,0.841
6.505,0.682
6.510,0.441
6.515,0.217
6.520,0.064
6.525,0.004
6.530,0.009
6.535,-0.001
6.540,-0.023
6.545,-0.016
6.550,-0.015
6.555,-0.036
6.560,-0.043
6.565,-0.046
6.570,-0.061
6.575,-0.061
6.580,-0.053
6.585,-0.056
6.590,-0.059
6.595,-0.060
6.600,-0.065
6.605,-0.073
6.610,-0.073
6.615,-0.068
6.620,-0.064
6.625,-0.060
6.630,-0.064
6.635,-0.073
6.640,-0.080
6.645,-0.087
6.650,-0.091
6.655,-0.097
6.660,-0.104
6.665,-0.102
6.670,-0.106
6.675,-0.116
6.680,-0.124
6.685,-0.134
6.690,-0.145
6.695,-0.154
6.700,-0.159
6.705,-0.163
6.710,-0.170
6.715,-0.181
6.720,-0.197
6.725,-0.200
6.730,-0.186
6.735,-0.174
6.740,-0.162
6.745,-0.158
6.750,-0.159
6.755,-0.150
6.760,-0.129
6.765,-0.086
6.770,-0.036
6.775,0.015
6.780,0.068
6.785,0.113
6.790,0.144
6.795,0.157
6.800,0.171
6.805,0.188
6.810,0.203
6.815,0.210
6.820,0.206
6.825,0.200
6.830,0.196
6.835,0.188
6.840,0.180
6.845,0.177
6.850,0.174
6.855,0.164
6.860,0.154
6.865,0.148
6.870,0.144
6.875,0.137
6.880,0.126
6.885,0.121
6.890,0.124
6.895,0.122
6.900,0.112
6.905,0.101
6.910,0.093
6.915,0.093
6.920,0.101
6.925,0.103
6.930,0.090
6.935,0.076
6.940,0.084
6.945,0.096
6.950,0.093
6.955,0.078
6.960,0.058
6.965,0.060
6.970,0.073
6.975,0.064
6.980,0.050
6.985,0.043
6.990,0.037
6.995,0.040
7.000,0.051
7.005,0.053
7.010,0.052
7.015,0.044
7.020,0.022
7.025,0.008
7.030,0.001
7.035,0.011
7.040,0.030
7.045,0.029
7.050,0.013
7.055,0.007
7.060,0.008
7.065,0.005
7.070,0.002
7.075,0.000
7.080,-0.003
7.085,-0.007
7.090,-0.016
7.095,-0.016
7.100,-0.015
7.105,-0.019
7.110,-0.018
7.115,-0.021
7.120,-0.028
7.125,-0.032
7.130,-0.036
7.135,-0.037
7.140,-0.031
7.145,-0.030
7.150,-0.036
7.155,-0.049
7.160,-0.075
7.165,-0.106
7.170,-0.132
7.175,-0.135
7.180,-0.124
7.185,-0.119
7.190,-0.132
7.195,-0.154
7.200,-0.153
7.205,-0.132
7.210,-0.107
7.215,-0.086
7.220,-0.069
7.225,-0.048
7.230,-0.020
7.235,0.013
7.240,0.040
7.245,0.060
7.250,0.061
7.255,0.043
7.260,0.041
7.265,0.040
7.270,0.032
7.275,0.030
7.280,0.030
7.285,0.031
7.290,0.033
7.295,0.030
7.300,0.031
7.305,0.021
7.310,-0.051
7.315,-0.189
7.320,-0.357
7.325,-0.570
7.330,-0.776
7.335,-0.792
7.340,-0.464
7.345,0.154
7.350,0.683
7.355,0.853
7.360,0.762
7.365,0.527
7.370,0.274
7.375,0.105
7.380,0.016
7.385,-0.001
7.390,-0.007
7.395,-0.033
7.400,-0.040
7.405,-0.036
7.410,-0.049
7.415,-0.059
7.420,-0.052
7.425,-0.055
7.430,-0.069
7.435,-0.071
7.440,-0.070
7.445,-0.075
7.450,-0.072
7.455,-0.069
7.460,-0.070
7.465,-0.070
7.470,-0.069
7.475,-0.069
7.480,-0.077
7.485,-0.087
7.490,-0.089
7.495,-0.088
7.500,-0.083
7.505,-0.082
7.510,-0.089
7.515,-0.095
7.520,-0.099
7.525,-0.107
7.530,-0.118
7.535,-0.127
7.540,-0.133
7.545,-0.137
7.550,-0.142
7.555,-0.152
7.560,-0.166
7.565,-0.178
7.570,-0.184
7.575,-0.181
7.580,-0.178
7.585,-0.178
7.590,-0.176
7.595,-0.170
7.600,-0.161
7.605,-0.149
7.610,-0.133
7.615,-0.114
7.620,-0.086
7.625,-0.046
7.630,0.002
7.635,0.048
7.640,0.093
7.645,0.137
7.650,0.171
7.655,0.195
7.660,0.209
7.665,0.212
7.670,0.213
7.675,0.216
7.680,0.219
7.685,0.219
7.690,0.209
7.695,0.198
7.700,0.193
7.705,0.187
7.710,0.179
7.715,0.173
7.720,0.165
7.725,0.156
7.730,0.150
7.735,0.149
7.740,0.147
7.745,0.141
7.750,0.133
7.755,0.124
7.760,0.121
7.765,0.119
7.770,0.112
7.775,0.108
7.780,0.107
7.785,0.103
7.790,0.097
7.795,0.089
7.800,0.087
7.805,0.088
7.810,0.083
7.815,0.075
7.820,0.070
7.825,0.069
7.830,0.064
7.835,0.053
7.840,0.051
7.845,0.052
7.850,0.050
7.855,0.044
7.860,0.037
7.865,0.034
7.870,0.034
7.875,0.032
7.880,0.030
7.885,0.030
7.890,0.025
7.895,0.015
7.900,0.008
7.905,0.007
7.910,0.008
7.915,0.004
7.920,0.003
7.925,0.006
7.930,0.006
7.935,0.001
7.940,-0.006
7.945,-0.011
7.950,-0.013
7.955,-0.015
7.960,-0.016
7.965,-0.016
7.970,-0.016
7.975,-0.016
7.980,-0.022
7.985,-0.032
7.990,-0.043
7.995,-0.063
8.000,-0.091
8.005,-0.122
8.010,-0.136
8.015,-0.126
8.020,-0.116
8.025,-0.124
8.030,-0.148
8.035,-0.152
8.040,-0.123
8.045,-0.089
8.050,-0.069
8.055,-0.055
8.060,-0.032
8.065,-0.010
8.070,0.012
8.075,0.034
8.080,0.055
8.085,0.069
8.090,0.067
8.095,0.060
8.100,0.056
8.105,0.049
8.110,0.042
8.115,0.041
8.120,0.037
8.125,0.031
8.130,0.026
8.135,0.025
8.140,0.022
8.145,-0.018
8.150,-0.130
8.155,-0.289
8.160,-0.487
8.165,-0.687
8.170,-0.729
8.175,-0.490
8.180,0.047
8.185,0.608
8.190,0.851
8.195,0.786
8.200,0.524
8.205,0.255
8.210,0.097
8.215,0.013
8.220,-0.012
8.225,-0.016
8.230,-0.028
8.235,-0.035
8.240,-0.040
8.245,-0.052
8.250,-0.056
8.255,-0.048
8.260,-0.052
8.265,-0.065
8.270,-0.066
8.275,-0.065
8.280,-0.069
8.285,-0.068
8.290,-0.066
8.295,-0.068
8.300,-0.072
8.305,-0.076
8.310,-0.078
8.315,-0.079
8.320,-0.081
8.325,-0.083
8.330,-0.091
8.335,-0.100
8.340,-0.101
8.345,-0.104
8.350,-0.109
8.355,-0.115
8.360,-0.124
8.365,-0.127
8.370,-0.131
8.375,-0.142
8.380,-0.156
8.385,-0.169
8.390,-0.180
8.395,-0.188
8.400,-0.197
8.405,-0.205
8.410,-0.206
8.415,-0.204
8.420,-0.204
8.425,-0.205
8.430,-0.200
8.435,-0.186
8.440,-0.173
8.445,-0.160
8.450,-0.141
8.455,-0.109
8.460,-0.064
8.465,-0.014
8.470,0.043
8.475,0.099
8.480,0.137
8.485,0.166
8.490,0.193
8.495,0.212
8.500,0.231
8.505,0.241
8.510,0.240
8.515,0.241
8.520,0.237
8.525,0.229
8.530,0.227
8.535,0.218
8.540,0.206
8.545,0.200
8.550,0.187
8.555,0.175
8.560,0.169
8.565,0.165
8.570,0.165
8.575,0.164
8.580,0.160
8.585,0.151
8.590,0.133
8.595,0.119
8.600,0.116
8.605,0.121
8.610,0.126
8.615,0.120
8.620,0.108
8.625,0.101
8.630,0.100
8.635,0.095
8.640,0.089
8.645,0.084
8.650,0.082
8.655,0.086
8.660,0.080
8.665,0.064
8.670,0.052
8.675,0.050
8.680,0.050
8.685,0.040
8.690,0.034
8.695,0.044
8.700,0.057
8.705,0.054
8.710,0.032
8.715,0.012
8.720,0.008
8.725,0.013
8.730,0.013
8.735,0.012
8.740,0.010
8.745,0.006
8.750,0.006
8.755,0.001
8.760,-0.008
8.765,-0.013
8.770,-0.017
8.775,-0.017
8.780,-0.008
8.785,-0.004
8.790,-0.006
8.795,-0.009
8.800,-0.020
8.805,-0.035
8.810,-0.038
8.815,-0.037
8.820,-0.031
8.825,-0.026
8.830,-0.036
8.835,-0.043
8.840,-0.061
8.845,-0.103
8.850,-0.139
8.855,-0.151
8.860,-0.140
8.865,-0.117
8.870,-0.118
8.875,-0.137
8.880,-0.141
8.885,-0.128
8.890,-0.108
8.895,-0.084
8.900,-0.053
8.905,-0.027
8.910,-0.004
8.915,0.022
8.920,0.043
8.925,0.063
8.930,0.059
8.935,0.038
8.940,0.035
8.945,0.040
8.950,0.042
8.955,0.050
8.960,0.045
8.965,0.029
8.970,0.024
8.975,0.021
8.980,0.013
8.985,-0.010
8.990,-0.093
8.995,-0.230
9.000,-0.395
9.005,-0.620
9.010,-0.811
9.015,-0.754
9.020,-0.320
9.025,0.329
9.030,0.777
9.035,0.875
9.040,0.735
9.045,0.477
9.050,0.230
9.055,0.065
9.060,-0.007
9.065,-0.008
9.070,-0.025
9.075,-0.053
9.080,-0.038
9.085,-0.033
9.090,-0.050
9.095,-0.053
9.100,-0.054
9.105,-0.068
9.110,-0.082
9.115,-0.087
9.120,-0.079
9.125,-0.060
9.130,-0.055
9.135,-0.066
9.140,-0.079
9.145,-0.084
9.150,-0.082
9.155,-0.085
9.160,-0.084
9.165,-0.090
9.170,-0.105
9.175,-0.106
9.180,-0.101
9.185,-0.094
9.190,-0.095
9.195,-0.103
9.200,-0.111
9.205,-0.123
9.210,-0.130
9.215,-0.131
9.220,-0.139
9.225,-0.158
9.230,-0.172
9.235,-0.177
9.240,-0.186
9.245,-0.195
9.250,-0.192
9.255,-0.188
9.260,-0.193
9.265,-0.196
9.270,-0.189
9.275,-0.176
9.280,-0.168
9.285,-0.162
9.290,-0.142
9.295,-0.114
9.300,-0.076
9.305,-0.030
9.310,0.009
9.315,0.052
9.320,0.100
9.325,0.135
9.330,0.163
9.335,0.187
9.340,0.204
9.345,0.210
9.350,0.202
9.355,0.195
9.360,0.200
9.365,0.208
9.370,0.208
9.375,0.195
9.380,0.181
9.385,0.165
9.390,0.157
9.395,0.153
9.400,0.136
9.405,0.124
9.410,0.127
9.415,0.137
9.420,0.130
9.425,0.110
9.430,0.105
9.435,0.105
9.440,0.107
9.445,0.108
9.450,0.103
9.455,0.099
9.460,0.094
9.465,0.092
9.470,0.084
9.475,0.077
9.480,0.083
9.485,0.078
9.490,0.073
9.495,0.068
9.500,0.060
9.505,0.067
9.510,0.070
9.515,0.062
9.520,0.062
9.525,0.053
9.530,0.032
9.535,0.028
9.540,0.035
9.545,0.040
9.550,0.037
9.555,0.031
9.560,0.030
9.565,0.028
9.570,0.029
9.575,0.029
9.580,0.023
9.585,0.013
9.590,0.004
9.595,-0.001
9.600,0.000
9.605,0.003
9.610,0.004
9.615,0.001
9.620,-0.004
9.625,-0.008
9.630,-0.012
9.635,-0.014
9.640,-0.014
9.645,-0.019
9.650,-0.028
9.655,-0.038
9.660,-0.050
9.665,-0.062
9.670,-0.091
9.675,-0.128
9.680,-0.137
9.685,-0.121
9.690,-0.113
9.695,-0.127
9.700,-0.148
9.705,-0.144
9.710,-0.111
9.715,-0.081
9.720,-0.062
9.725,-0.041
9.730,-0.028
9.735,-0.014
9.740,0.012
9.745,0.035
9.750,0.049
9.755,0.050
9.760,0.040
9.765,0.037
9.770,0.036
9.775,0.037
9.780,0.036
9.785,0.025
9.790,0.013
9.795,0.010
9.800,0.013
9.805,0.016
9.810,0.006
9.815,-0.052
9.820,-0.179
9.825,-0.348
9.830,-0.560
9.835,-0.769
9.840,-0.798
9.845,-0.483
9.850,0.130
9.855,0.672
9.860,0.855
9.865,0.765
9.870,0.527
9.875,0.273
9.880,0.098
9.885,-0.003
9.890,-0.026
9.895,-0.028
9.900,-0.047
9.905,-0.046
9.910,-0.040
9.915,-0.056
9.920,-0.066
9.925,-0.064
9.930,-0.069
9.935,-0.070
9.940,-0.061
9.945,-0.063
9.950,-0.077
9.955,-0.081
9.960,-0.075
9.965,-0.074
9.970,-0.078
9.975,-0.077
9.980,-0.074
9.985,-0.075
9.990,-0.082
9.995,-0.090
10.000,-0.091
10.005,-0.093
10.010,-0.097
10.015,-0.099
10.020,-0.104
10.025,-0.106
10.030,-0.108
10.035,-0.116
10.040,-0.126
10.045,-0.142
10.050,-0.156
10.055,-0.158
10.060,-0.160
10.065,-0.168
10.070,-0.179
10.075,-0.190
10.080,-0.196
10.085,-0.195
10.090,-0.190
10.095,-0.183
10.100,-0.171
10.105,-0.159
10.110,-0.151
10.115,-0.140
10.120,-0.121
10.125,-0.089
10.130,-0.045
10.135,0.004
10.140,0.059
10.145,0.108
10.150,0.146
10.155,0.177
10.160,0.201
10.165,0.221
10.170,0.226
10.175,0.220
10.180,0.216
10.185,0.212
10.190,0.213
10.195,0.211
10.200,0.207
10.205,0.209
10.210,0.205
10.215,0.186
10.220,0.166
10.225,0.160
10.230,0.161
10.235,0.155
10.240,0.148
10.245,0.146
10.250,0.147
10.255,0.140
10.260,0.125
10.265,0.121
10.270,0.123
10.275,0.116
10.280,0.109
10.285,0.105
10.290,0.103
10.295,0.099
10.300,0.095
10.305,0.085
10.310,0.078
10.315,0.076
10.320,0.074
10.325,0.077
10.330,0.078
10.335,0.069
10.340,0.062
10.345,0.057
10.350,0.048
10.355,0.046
10.360,0.046
10.365,0.045
10.370,0.043
10.375,0.036
10.380,0.033
10.385,0.033
10.390,0.028
10.395,0.020
10.400,0.019
10.405,0.020
10.410,0.013
10.415,0.003
10.420,0.000
10.425,0.004
10.430,0.008
10.435,0.006
10.440,-0.002
10.445,-0.011
10.450,-0.013
10.455,-0.009
10.460,-0.007
10.465,-0.011
10.470,-0.013
10.475,-0.013
10.480,-0.017
10.485,-0.022
10.490,-0.020
10.495,-0.022
10.500,-0.029
10.505,-0.030
10.510,-0.029
10.515,-0.035
10.520,-0.052
10.525,-0.069
10.530,-0.085
10.535,-0.114
10.540,-0.131
10.545,-0.124
10.550,-0.113
10.555,-0.119
10.560,-0.142
10.565,-0.144
10.570,-0.115
10.575,-0.081
10.580,-0.064
10.585,-0.050
10.590,-0.030
10.595,-0.010
10.600,0.017
10.605,0.040
10.610,0.054
10.615,0.062
10.620,0.059
10.625,0.053
10.630,0.049
10.635,0.046
10.640,0.045
10.645,0.043
10.650,0.039
10.655,0.033
10.660,0.029
10.665,0.028
10.670,0.017
10.675,-0.038
10.680,-0.156
10.685,-0.313
10.690,-0.506
10.695,-0.687
10.700,-0.701
10.705,-0.430
10.710,0.120
10.715,0.650
10.720,0.857
10.725,0.762
10.730,0.481
10.735,0.217
10.740,0.084
10.745,0.023
10.750,0.000
10.755,-0.014
10.760,-0.028
10.765,-0.028
10.770,-0.030
10.775,-0.045
10.780,-0.055
10.785,-0.054
10.790,-0.055
10.795,-0.059
10.800,-0.056
10.805,-0.056
10.810,-0.066
10.815,-0.071
10.820,-0.075
10.825,-0.084
10.830,-0.080
10.835,-0.072
10.840,-0.076
10.845,-0.086
10.850,-0.089
10.855,-0.086
10.860,-0.088
10.865,-0.098
10.870,-0.103
10.875,-0.100
10.880,-0.103
10.885,-0.117
10.890,-0.126
10.895,-0.128
10.900,-0.136
10.905,-0.148
10.910,-0.160
10.915,-0.168
10.920,-0.175
10.925,-0.189
10.930,-0.204
10.935,-0.214
10.940,-0.215
10.945,-0.204
10.950,-0.193
10.955,-0.191
10.960,-0.185
10.965,-0.168
10.970,-0.155
10.975,-0.147
10.980,-0.129
10.985,-0.090
10.990,-0.041
10.995,0.004
11.000,0.052
11.005,0.104
11.010,0.147
11.015,0.174
11.020,0.194
11.025,0.221
11.030,0.247
11.035,0.252
11.040,0.245
11.045,0.243
11.050,0.236
11.055,0.222
11.060,0.214
11.065,0.209
11.070,0.210
11.075,0.213
11.080,0.203
11.085,0.185
11.090,0.172
11.095,0.169
11.100,0.170
11.105,0.168
11.110,0.157
11.115,0.145
11.120,0.136
11.125,0.128
11.130,0.119
11.135,0.113
11.140,0.111
11.145,0.111
11.150,0.119
11.155,0.118
11.160,0.105
11.165,0.094
11.170,0.088
11.175,0.088
11.180,0.084
11.185,0.073
11.190,0.065
11.195,0.054
11.200,0.046
11.205,0.053
11.210,0.055
11.215,0.054
11.220,0.047
11.225,0.039
11.230,0.045
11.235,0.048
11.240,0.041
11.245,0.033
11.250,0.026
11.255,0.013
11.260,-0.005
11.265,-0.009
11.270,0.000
11.275,0.010
11.280,0.007
11.285,-0.010
11.290,-0.020
11.295,-0.015
11.300,-0.007
11.305,-0.003
11.310,-0.008
11.315,-0.018
11.320,-0.019
11.325,-0.020
11.330,-0.028
11.335,-0.032
11.340,-0.027
11.345,-0.029
11.350,-0.042
11.355,-0.057
11.360,-0.065
11.365,-0.067
11.370,-0.076
11.375,-0.101
11.380,-0.126
11.385,-0.128
11.390,-0.116
11.395,-0.126
11.400,-0.155
11.405,-0.170
11.410,-0.146
11.415,-0.101
11.420,-0.079
11.425,-0.066
11.430,-0.040
11.435,-0.015
11.440,0.008
11.445,0.027
11.450,0.043
11.455,0.050
11.460,0.044
11.465,0.044
11.470,0.042
11.475,0.031
11.480,0.019
11.485,0.018
11.490,0.027
11.495,0.027
11.500,0.024
11.505,0.022
11.510,0.011
11.515,-0.022
11.520,-0.115
11.525,-0.268
11.530,-0.470
11.535,-0.715
11.540,-0.839
11.545,-0.645
11.550,-0.096
11.555,0.524
11.560,0.833
11.565,0.840
11.570,0.654
11.575,0.381
11.580,0.164
11.585,0.029
11.590,-0.012
11.595,-0.004
11.600,-0.021
11.605,-0.041
11.610,-0.040
11.615,-0.055
11.620,-0.070
11.625,-0.052
11.630,-0.047
11.635,-0.071
11.640,-0.076
11.645,-0.071
11.650,-0.080
11.655,-0.080
11.660,-0.076
11.665,-0.087
11.670,-0.097
11.675,-0.089
11.680,-0.071
11.685,-0.062
11.690,-0.067
11.695,-0.080
11.700,-0.092
11.705,-0.098
11.710,-0.101
11.715,-0.102
11.720,-0.104
11.725,-0.116
11.730,-0.136
11.735,-0.138
11.740,-0.130
11.745,-0.134
11.750,-0.142
11.755,-0.151
11.760,-0.161
11.765,-0.172
11.770,-0.191
11.775,-0.205
11.780,-0.206
11.785,-0.194
11.790,-0.178
11.795,-0.179
11.800,-0.184
11.805,-0.179
11.810,-0.164
11.815,-0.144
11.820,-0.132
11.825,-0.112
11.830,-0.073
11.835,-0.021
11.840,0.033
11.845,0.084
11.850,0.129
11.855,0.157
11.860,0.174
11.865,0.185
11.870,0.192
11.875,0.209
11.880,0.217
11.885,0.210
11.890,0.210
11.895,0.210
11.900,0.200
11.905,0.182
11.910,0.162
11.915,0.153
11.920,0.156
11.925,0.150
11.930,0.142
11.935,0.144
11.940,0.136
11.945,0.125
11.950,0.119
11.955,0.113
11.960,0.125
11.965,0.127
11.970,0.100
11.975,0.085
11.980,0.086
11.985,0.101
11.990,0.114
11.995,0.097
12.000,0.079
12.005,0.070
12.010,0.063
12.015,0.072
12.020,0.079
12.025,0.085
12.030,0.082
12.035,0.073
12.040,0.072
12.045,0.061
12.050,0.045
12.055,0.036
12.060,0.030
12.065,0.033
12.070,0.038
12.075,0.036
12.080,0.024
12.085,0.016
12.090,0.019
12.095,0.018
12.100,0.012
12.105,0.000
12.110,-0.012
12.115,-0.009
12.120,-0.003
12.125,-0.005
12.130,-0.009
12.135,-0.012
12.140,-0.015
12.145,-0.014
12.150,-0.012
12.155,-0.018
12.160,-0.023
12.165,-0.025
12.170,-0.035
12.175,-0.047
12.180,-0.063
12.185,-0.094
12.190,-0.122
12.195,-0.130
12.200,-0.121
12.205,-0.112
12.210,-0.125
12.215,-0.153
12.220,-0.161
12.225,-0.137
12.230,-0.100
12.235,-0.069
12.240,-0.040
12.245,-0.019
12.250,-0.010
12.255,0.006
12.260,0.027
12.265,0.048
12.270,0.056
12.275,0.050
12.280,0.040
12.285,0.036
12.290,0.040
12.295,0.042
12.300,0.032
12.305,0.013
12.310,0.001
12.315,0.004
12.320,0.013
12.325,0.014
12.330,-0.017
12.335,-0.113
12.340,-0.267
12.345,-0.464
12.350,-0.688
12.355,-0.803
12.360,-0.648
12.365,-0.142
12.370,0.481
12.375,0.817
12.380,0.828
12.385,0.630
12.390,0.358
12.395,0.151
12.400,0.022
12.405,-0.022
12.410,-0.013
12.415,-0.025
12.420,-0.042
12.425,-0.041
12.430,-0.050
12.435,-0.060
12.440,-0.058
12.445,-0.059
12.450,-0.070
12.455,-0.077
12.460,-0.075
12.465,-0.075
12.470,-0.073
12.475,-0.065
12.480,-0.065
12.485,-0.073
12.490,-0.078
12.495,-0.083
12.500,-0.087
12.505,-0.089
12.510,-0.090
12.515,-0.088
12.520,-0.086
12.525,-0.084
12.530,-0.084
12.535,-0.092
12.540,-0.104
12.545,-0.113
12.550,-0.118
12.555,-0.125
12.560,-0.134
12.565,-0.144
12.570,-0.156
12.575,-0.167
12.580,-0.176
12.585,-0.184
12.590,-0.191
12.595,-0.193
12.600,-0.188
12.605,-0.182
12.610,-0.182
12.615,-0.184
12.620,-0.178
12.625,-0.162
12.630,-0.148
12.635,-0.130
12.640,-0.098
12.645,-0.051
12.650,0.000
12.655,0.047
12.660,0.088
12.665,0.126
12.670,0.164
12.675,0.195
12.680,0.211
12.685,0.221
12.690,0.225
12.695,0.226
12.700,0.226
12.705,0.224
12.710,0.219
12.715,0.214
12.720,0.206
12.725,0.193
12.730,0.182
12.735,0.174
12.740,0.171
12.745,0.170
12.750,0.165
12.755,0.158
12.760,0.148
12.765,0.142
12.770,0.141
12.775,0.135
12.780,0.126
12.785,0.123
12.790,0.123
12.795,0.120
12.800,0.114
12.805,0.105
12.810,0.106
12.815,0.107
12.820,0.101
12.825,0.096
12.830,0.089
12.835,0.085
12.840,0.084
12.845,0.075
12.850,0.068
12.855,0.061
12.860,0.057
12.865,0.056
12.870,0.053
12.875,0.055
12.880,0.057
12.885,0.049
12.890,0.038
12.895,0.028
12.900,0.023
12.905,0.022
12.910,0.020
12.915,0.017
12.920,0.015
12.925,0.015
12.930,0.013
12.935,0.012
12.940,0.010
12.945,0.004
12.950,-0.003
12.955,-0.010
12.960,-0.012
12.965,-0.008
12.970,-0.003
12.975,-0.001
12.980,-0.008
12.985,-0.023
12.990,-0.040
12.995,-0.054
13.000,-0.077
13.005,-0.111
13.010,-0.125
13.015,-0.113
13.020,-0.097
13.025,-0.106
13.030,-0.138
13.035,-0.141
13.040,-0.102
13.045,-0.058
13.050,-0.032
13.055,-0.022
13.060,-0.018
13.065,-0.005
13.070,0.018
13.075,0.042
13.080,0.057
13.085,0.063
13.090,0.061
13.095,0.056
13.100,0.050
13.105,0.044
13.110,0.037
13.115,0.029
13.120,0.024
13.125,0.022
13.130,0.020
13.135,0.021
13.140,0.018
13.145,-0.025
13.150,-0.133
13.155,-0.285
13.160,-0.471
13.165,-0.663
13.170,-0.716
13.175,-0.510
13.180,-0.001
13.185,0.572
13.190,0.845
13.195,0.797
13.200,0.536
13.205,0.252
13.210,0.093
13.215,0.016
13.220,-0.014
13.225,-0.028
13.230,-0.048
13.235,-0.054
13.240,-0.049
13.245,-0.055
13.250,-0.065
13.255,-0.068
13.260,-0.069
13.265,-0.071
13.270,-0.074
13.275,-0.078
13.280,-0.080
13.285,-0.077
13.290,-0.076
13.295,-0.082
13.300,-0.085
13.305,-0.086
13.310,-0.088
13.315,-0.091
13.320,-0.091
13.325,-0.093
13.330,-0.095
13.335,-0.095
13.340,-0.095
13.345,-0.105
13.350,-0.115
13.355,-0.118
13.360,-0.121
13.365,-0.131
13.370,-0.143
13.375,-0.148
13.380,-0.154
13.385,-0.165
13.390,-0.178
13.395,-0.191
13.400,-0.200
13.405,-0.202
13.410,-0.204
13.415,-0.207
13.420,-0.203
13.425,-0.198
13.430,-0.190
13.435,-0.180
13.440,-0.173
13.445,-0.158
13.450,-0.133
13.455,-0.100
13.460,-0.056
13.465,-0.003
13.470,0.048
13.475,0.093
13.480,0.132
13.485,0.164
13.490,0.189
13.495,0.211
13.500,0.227
13.505,0.234
13.510,0.234
13.515,0.231
13.520,0.222
13.525,0.214
13.530,0.211
13.535,0.203
13.540,0.191
13.545,0.181
13.550,0.172
13.555,0.169
13.560,0.164
13.565,0.157
13.570,0.149
13.575,0.136
13.580,0.126
13.585,0.123
13.590,0.120
13.595,0.112
13.600,0.105
13.605,0.112
13.610,0.125
13.615,0.129
13.620,0.112
13.625,0.093
13.630,0.086
13.635,0.085
13.640,0.086
13.645,0.075
13.650,0.062
13.655,0.067
13.660,0.072
13.665,0.072
13.670,0.067
13.675,0.064
13.680,0.059
13.685,0.052
13.690,0.042
13.695,0.025
13.700,0.017
13.705,0.020
13.710,0.021
13.715,0.023
13.720,0.022
13.725,0.020
13.730,0.020
13.735,0.012
13.740,0.008
13.745,0.013
13.750,0.007
13.755,-0.004
13.760,-0.005
13.765,0.001
13.770,-0.001
13.775,-0.012
13.780,-0.021
13.785,-0.018
13.790,-0.006
13.795,-0.008
13.800,-0.015
13.805,-0.019
13.810,-0.024
13.815,-0.030
13.820,-0.043
13.825,-0.052
13.830,-0.054
13.835,-0.058
13.840,-0.084
13.845,-0.126
13.850,-0.139
13.855,-0.121
13.860,-0.101
13.865,-0.108
13.870,-0.135
13.875,-0.136
13.880,-0.093
13.885,-0.051
13.890,-0.040
13.895,-0.032
13.900,-0.022
13.905,-0.006
13.910,0.024
13.915,0.048
13.920,0.065
13.925,0.072
13.930,0.056
13.935,0.044
13.940,0.038
13.945,0.024
13.950,0.015
13.955,0.019
13.960,0.029
13.965,0.040
13.970,0.033
13.975,0.017
13.980,0.007
13.985,-0.032
13.990,-0.135
13.995,-0.295
14.000,-0.499
14.005,-0.734
14.010,-0.836
14.015,-0.602
14.020,-0.030
14.025,0.562
14.030,0.838
14.035,0.831
14.040,0.648
14.045,0.381
14.050,0.151
14.055,0.010
14.060,-0.029
14.065,-0.025
14.070,-0.038
14.075,-0.038
14.080,-0.023
14.085,-0.034
14.090,-0.048
14.095,-0.051
14.100,-0.064
14.105,-0.077
14.110,-0.075
14.115,-0.074
14.120,-0.084
14.125,-0.085
14.130,-0.070
14.135,-0.057
14.140,-0.060
14.145,-0.078
14.150,-0.084
14.155,-0.075
14.160,-0.078
14.165,-0.090
14.170,-0.098
14.175,-0.100
14.180,-0.089
14.185,-0.083
14.190,-0.093
14.195,-0.098
14.200,-0.106
14.205,-0.123
14.210,-0.133
14.215,-0.139
14.220,-0.136
14.225,-0.130
14.230,-0.154
14.235,-0.194
14.240,-0.207
14.245,-0.195
14.250,-0.188
14.255,-0.200
14.260,-0.210
14.265,-0.197
14.270,-0.179
14.275,-0.167
14.280,-0.163
14.285,-0.162
14.290,-0.149
14.295,-0.109
14.300,-0.059
14.305,-0.011
14.310,0.031
14.315,0.071
14.320,0.116
14.325,0.157
14.330,0.189
14.335,0.210
14.340,0.212
14.345,0.205
14.350,0.196
14.355,0.191
14.360,0.190
14.365,0.190
14.370,0.189
14.375,0.174
14.380,0.158
14.385,0.163
14.390,0.172
14.395,0.160
14.400,0.147
14.405,0.137
14.410,0.118
14.415,0.101
14.420,0.092
14.425,0.102
14.430,0.117
14.435,0.109
14.440,0.104
14.445,0.106
14.450,0.096
14.455,0.090
14.460,0.087
14.465,0.075
14.470,0.068
14.475,0.072
14.480,0.081
14.485,0.089
14.490,0.081
14.495,0.073
14.500,0.066
14.505,0.056
14.510,0.053
14.515,0.049
14.520,0.040
14.525,0.031
14.530,0.031
14.535,0.041
14.540,0.048
14.545,0.043
14.550,0.026
14.555,0.010
14.560,0.008
14.565,0.008
14.570,0.004
14.575,-0.003
14.580,-0.002
14.585,0.012
14.590,0.017
14.595,0.008
14.600,0.007
14.605,0.007
14.610,-0.009
14.615,-0.024
14.620,-0.016
14.625,-0.004
14.630,-0.002
14.635,-0.017
14.640,-0.033
14.645,-0.024
14.650,-0.014
14.655,-0.009
14.660,-0.010
14.665,-0.028
14.670,-0.040
14.675,-0.043
14.680,-0.056
14.685,-0.085
14.690,-0.115
14.695,-0.127
14.700,-0.120
14.705,-0.107
14.710,-0.113
14.715,-0.137
14.720,-0.143
14.725,-0.119
14.730,-0.086
14.735,-0.058
14.740,-0.039
14.745,-0.025
14.750,-0.002
14.755,0.017
14.760,0.027
14.765,0.039
14.770,0.043
14.775,0.053
14.780,0.065
14.785,0.065
14.790,0.062
14.795,0.046
14.800,0.032
14.805,0.038
14.810,0.037
14.815,0.021
14.820,0.014
14.825,0.017
14.830,0.000
14.835,-0.090
14.840,-0.249
14.845,-0.443
14.850,-0.674
14.855,-0.820
14.860,-0.690
14.865,-0.187
14.870,0.456
14.875,0.823
14.880,0.867
14.885,0.700
14.890,0.423
14.895,0.187
14.900,0.046
14.905,0.013
14.910,0.036
14.915,0.019
14.920,-0.012
14.925,-0.009
14.930,-0.016
14.935,-0.041
14.940,-0.052
14.945,-0.052
14.950,-0.054
14.955,-0.051
14.960,-0.048
14.965,-0.057
14.970,-0.066
14.975,-0.061
14.980,-0.059
14.985,-0.066
14.990,-0.070
14.995,-0.073
15.000,-0.074
15.005,-0.074
15.010,-0.075
15.015,-0.083
15.020,-0.094
15.025,-0.107
15.030,-0.115
15.035,-0.114
15.040,-0.116
15.045,-0.119
15.050,-0.124
15.055,-0.130
15.060,-0.136
15.065,-0.152
15.070,-0.170
15.075,-0.177
15.080,-0.179
15.085,-0.185
15.090,-0.196
15.095,-0.204
15.100,-0.205
15.105,-0.204
15.110,-0.199
15.115,-0.191
15.120,-0.183
15.125,-0.174
15.130,-0.161
15.135,-0.141
15.140,-0.114
15.145,-0.078
15.150,-0.029
15.155,0.018
15.160,0.057
15.165,0.094
15.170,0.126
15.175,0.152
15.180,0.174
15.185,0.193
15.190,0.205
15.195,0.202
15.200,0.197
15.205,0.201
15.210,0.201
15.215,0.191
15.220,0.177
15.225,0.168
15.230,0.162
15.235,0.151
15.240,0.142
15.245,0.140
15.250,0.136
15.255,0.126
15.260,0.118
15.265,0.115
15.270,0.112
15.275,0.110
15.280,0.105
15.285,0.100
15.290,0.097
15.295,0.092
15.300,0.093
15.305,0.096
15.310,0.088
15.315,0.079
15.320,0.076
15.325,0.078
15.330,0.080
15.335,0.074
15.340,0.065
15.345,0.060
15.350,0.060
15.355,0.061
15.360,0.053
15.365,0.045
15.370,0.043
15.375,0.042
15.380,0.038
15.385,0.032
15.390,0.030
15.395,0.029
15.400,0.024
15.405,0.021
15.410,0.020
15.415,0.017
15.420,0.014
15.425,0.009
15.430,0.008
15.435,0.007
15.440,0.004
15.445,0.003
15.450,0.005
15.455,0.005
15.460,0.000
15.465,-0.012
15.470,-0.020
15.475,-0.017
15.480,-0.013
15.485,-0.012
15.490,-0.014
15.495,-0.018
15.500,-0.028
15.505,-0.042
15.510,-0.063
15.515,-0.098
15.520,-0.123
15.525,-0.118
15.530,-0.101
15.535,-0.099
15.540,-0.129
15.545,-0.152
15.550,-0.132
15.555,-0.089
15.560,-0.050
15.565,-0.026
15.570,-0.013
15.575,-0.004
15.580,0.010
15.585,0.035
15.590,0.055
15.595,0.066
15.600,0.071
15.605,0.069
15.610,0.063
15.615,0.054
15.620,0.047
15.625,0.046
15.630,0.040
15.635,0.030
15.640,0.026
15.645,0.029
15.650,0.032
15.655,0.007
15.660,-0.086
15.665,-0.232
15.670,-0.412
15.675,-0.619
15.680,-0.728
15.685,-0.604
15.690,-0.167
15.695,0.431
15.700,0.804
15.705,0.844
15.710,0.635
15.715,0.343
15.720,0.146
15.725,0.044
15.730,0.001
15.735,-0.010
15.740,-0.025
15.745,-0.035
15.750,-0.027
15.755,-0.029
15.760,-0.044
15.765,-0.051
15.770,-0.053
15.775,-0.057
15.780,-0.057
15.785,-0.055
15.790,-0.059
15.795,-0.065
15.800,-0.068
15.805,-0.067
15.810,-0.066
15.815,-0.063
15.820,-0.067
15.825,-0.076
15.830,-0.083
15.835,-0.086
15.840,-0.089
15.845,-0.091
15.850,-0.092
15.855,-0.092
15.860,-0.095
15.865,-0.103
15.870,-0.111
15.875,-0.115
15.880,-0.123
15.885,-0.137
15.890,-0.149
15.895,-0.160
15.900,-0.172
15.905,-0.180
15.910,-0.185
15.915,-0.187
15.920,-0.191
15.925,-0.193
15.930,-0.190
15.935,-0.193
15.940,-0.196
15.945,-0.189
15.950,-0.178
15.955,-0.159
15.960,-0.134
15.965,-0.105
15.970,-0.060
15.975,-0.010
15.980,0.033
15.985,0.079
15.990,0.125
15.995,0.163
16.000,0.191
16.005,0.209
16.010,0.223
16.015,0.232
16.020,0.233
16.025,0.230
16.030,0.225
16.035,0.217
16.040,0.208
16.045,0.205
16.050,0.203
16.055,0.194
16.060,0.182
16.065,0.171
16.070,0.163
16.075,0.158
16.080,0.150
16.085,0.143
16.090,0.138
16.095,0.133
16.100,0.133
16.105,0.129
16.110,0.117
16.115,0.111
16.120,0.107
16.125,0.102
16.130,0.099
16.135,0.094
16.140,0.090
16.145,0.087
16.150,0.082
16.155,0.078
16.160,0.077
16.165,0.074
16.170,0.065
16.175,0.060
16.180,0.054
16.185,0.047
16.190,0.049
16.195,0.046
16.200,0.039
16.205,0.035
16.210,0.030
16.215,0.025
16.220,0.024
16.225,0.020
16.230,0.014
16.235,0.013
16.240,0.009
16.245,0.008
16.250,0.007
16.255,0.000
16.260,-0.003
16.265,-0.004
16.270,-0.008
16.275,-0.006
16.280,-0.006
16.285,-0.013
16.290,-0.018
16.295,-0.022
16.300,-0.025
16.305,-0.024
16.310,-0.021
16.315,-0.023
16.320,-0.027
16.325,-0.032
16.330,-0.035
16.335,-0.040
16.340,-0.055
16.345,-0.073
16.350,-0.099
16.355,-0.130
16.360,-0.140
16.365,-0.125
16.370,-0.113
16.375,-0.128
16.380,-0.154
16.385,-0.145
16.390,-0.101
16.395,-0.067
16.400,-0.052
16.405,-0.037
16.410,-0.023
16.415,-0.007
16.420,0.015
16.425,0.038
16.430,0.052
16.435,0.058
16.440,0.056
16.445,0.050
16.450,0.045
16.455,0.035
16.460,0.024
16.465,0.019
16.470,0.016
16.475,0.016
16.480,0.022
16.485,0.024
16.490,0.003
16.495,-0.071
16.500,-0.203
16.505,-0.365
16.510,-0.566
16.515,-0.719
16.520,-0.663
16.525,-0.293
16.530,0.300
16.535,0.743
16.540,0.846
16.545,0.678
16.550,0.385
16.555,0.160
16.560,0.043
16.565,-0.009
16.570,-0.020
16.575,-0.033
16.580,-0.053
16.585,-0.059
16.590,-0.060
16.595,-0.072
16.600,-0.074
16.605,-0.072
16.610,-0.077
16.615,-0.071
16.620,-0.065
16.625,-0.073
16.630,-0.075
16.635,-0.071
16.640,-0.071
16.645,-0.079
16.650,-0.086
16.655,-0.079
16.660,-0.068
16.665,-0.066
16.670,-0.077
16.675,-0.091
16.680,-0.092
16.685,-0.090
16.690,-0.092
16.695,-0.094
16.700,-0.097
16.705,-0.097
16.710,-0.104
16.715,-0.113
16.720,-0.120
16.725,-0.133
16.730,-0.147
16.735,-0.155
16.740,-0.160
16.745,-0.166
16.750,-0.173
16.755,-0.182
16.760,-0.185
16.765,-0.186
16.770,-0.184
16.775,-0.176
16.780,-0.171
16.785,-0.169
16.790,-0.157
16.795,-0.130
16.800,-0.093
16.805,-0.054
16.810,-0.015
16.815,0.028
16.820,0.072
16.825,0.116
16.830,0.155
16.835,0.187
16.840,0.210
16.845,0.222
16.850,0.226
16.855,0.228
16.860,0.232
16.865,0.240
16.870,0.237
16.875,0.220
16.880,0.198
16.885,0.183
16.890,0.180
16.895,0.182
16.900,0.180
16.905,0.178
16.910,0.167
16.915,0.155
16.920,0.148
16.925,0.140
16.930,0.132
16.935,0.125
16.940,0.121
16.945,0.122
16.950,0.117
16.955,0.110
16.960,0.107
16.965,0.092
16.970,0.079
16.975,0.087
16.980,0.099
16.985,0.097
16.990,0.084
16.995,0.072
17.000,0.070
17.005,0.068
17.010,0.057
17.015,0.054
17.020,0.057
17.025,0.050
17.030,0.042
17.035,0.033
17.040,0.025
17.045,0.021
17.050,0.021
17.055,0.022
17.060,0.015
17.065,0.011
17.070,0.003
17.075,-0.004
17.080,-0.004
17.085,0.001
17.090,0.007
17.095,0.007
17.100,-0.004
17.105,-0.014
17.110,-0.012
17.115,-0.010
17.120,-0.015
17.125,-0.021
17.130,-0.026
17.135,-0.026
17.140,-0.028
17.145,-0.035
17.150,-0.039
17.155,-0.032
17.160,-0.022
17.165,-0.018
17.170,-0.023
17.175,-0.036
17.180,-0.050
17.185,-0.057
17.190,-0.061
17.195,-0.069
17.200,-0.073
17.205,-0.079
17.210,-0.108
17.215,-0.143
17.220,-0.152
17.225,-0.130
17.230,-0.110
17.235,-0.126
17.240,-0.151
17.245,-0.141
17.250,-0.108
17.255,-0.087
17.260,-0.069
17.265,-0.052
17.270,-0.023
17.275,0.015
17.280,0.031
17.285,0.043
17.290,0.054
17.295,0.046
17.300,0.043
17.305,0.036
17.310,0.032
17.315,0.044
17.320,0.042
17.325,0.036
17.330,0.039
17.335,0.039
17.340,0.031
17.345,0.015
17.350,-0.016
17.355,-0.105
17.360,-0.252
17.365,-0.450
17.370,-0.697
17.375,-0.839
17.380,-0.689
17.385,-0.169
17.390,0.468
17.395,0.802
17.400,0.826
17.405,0.674
17.410,0.425
17.415,0.204
17.420,0.057
17.425,0.012
17.430,0.026
17.435,-0.003
17.440,-0.041
17.445,-0.041
17.450,-0.044
17.455,-0.052
17.460,-0.047
17.465,-0.052
17.470,-0.073
17.475,-0.078
17.480,-0.062
17.485,-0.046
17.490,-0.048
17.495,-0.065
17.500,-0.080
17.505,-0.085
17.510,-0.080
17.515,-0.072
17.520,-0.072
17.525,-0.076
17.530,-0.076
17.535,-0.071
17.540,-0.065
17.545,-0.074
17.550,-0.093
17.555,-0.101
17.560,-0.103
17.565,-0.111
17.570,-0.123
17.575,-0.127
17.580,-0.130
17.585,-0.135
17.590,-0.134
17.595,-0.142
17.600,-0.159
17.605,-0.171
17.610,-0.177
17.615,-0.174
17.620,-0.173
17.625,-0.177
17.630,-0.178
17.635,-0.180
17.640,-0.185
17.645,-0.172
17.650,-0.142
17.655,-0.118
17.660,-0.091
17.665,-0.055
17.670,-0.020
17.675,0.016
17.680,0.058
17.685,0.107
17.690,0.147
17.695,0.168
17.700,0.189
17.705,0.206
17.710,0.213
17.715,0.215
17.720,0.212
17.725,0.209
17.730,0.201
17.735,0.186
17.740,0.175
17.745,0.168
17.750,0.161
17.755,0.153
17.760,0.150
17.765,0.144
17.770,0.137
17.775,0.138
17.780,0.132
17.785,0.120
17.790,0.109
17.795,0.105
17.800,0.104
17.805,0.104
17.810,0.103
17.815,0.088
17.820,0.076
17.825,0.077
17.830,0.077
17.835,0.079
17.840,0.081
17.845,0.080
17.850,0.076
17.855,0.068
17.860,0.068
17.865,0.072
17.870,0.064
17.875,0.053
17.880,0.049
17.885,0.047
17.890,0.040
17.895,0.029
17.900,0.026
17.905,0.029
17.910,0.029
17.915,0.026
17.920,0.017
17.925,0.010
17.930,0.009
17.935,0.006
17.940,0.001
17.945,-0.002
17.950,-0.002
17.955,-0.004
17.960,-0.005
17.965,-0.005
17.970,-0.012
17.975,-0.028
17.980,-0.035
17.985,-0.030
17.990,-0.022
17.995,-0.021
18.000,-0.025
18.005,-0.031
18.010,-0.036
18.015,-0.037
18.020,-0.035
18.025,-0.037
18.030,-0.043
18.035,-0.044
18.040,-0.041
18.045,-0.045
18.050,-0.056
18.055,-0.065
18.060,-0.082
18.065,-0.114
18.070,-0.139
18.075,-0.137
18.080,-0.120
18.085,-0.114
18.090,-0.138
18.095,-0.160
18.100,-0.138
18.105,-0.089
18.110,-0.050
18.115,-0.029
18.120,-0.023
18.125,-0.016
18.130,0.006
18.135,0.034
18.140,0.056
18.145,0.065
18.150,0.063
18.155,0.058
18.160,0.054
18.165,0.047
18.170,0.041
18.175,0.039
18.180,0.033
18.185,0.027
18.190,0.025
18.195,0.028
18.200,0.025
18.205,-0.008
18.210,-0.103
18.215,-0.252
18.220,-0.445
18.225,-0.670
18.230,-0.778
18.235,-0.594
18.240,-0.063
18.245,0.541
18.250,0.838
18.255,0.830
18.260,0.622
18.265,0.348
18.270,0.148
18.275,0.029
18.280,-0.003
18.285,0.000
18.290,-0.020
18.295,-0.030
18.300,-0.021
18.305,-0.033
18.310,-0.048
18.315,-0.043
18.320,-0.046
18.325,-0.058
18.330,-0.057
18.335,-0.050
18.340,-0.053
18.345,-0.060
18.350,-0.062
18.355,-0.059
18.360,-0.057
18.365,-0.057
18.370,-0.062
18.375,-0.069
18.380,-0.073
18.385,-0.071
18.390,-0.071
18.395,-0.077
18.400,-0.082
18.405,-0.087
18.410,-0.090
18.415,-0.090
18.420,-0.092
18.425,-0.102
18.430,-0.114
18.435,-0.121
18.440,-0.125
18.445,-0.134
18.450,-0.149
18.455,-0.160
18.460,-0.166
18.465,-0.171
18.470,-0.179
18.475,-0.180
18.480,-0.180
18.485,-0.179
18.490,-0.170
18.495,-0.163
18.500,-0.157
18.505,-0.147
18.510,-0.130
18.515,-0.100
18.520,-0.062
18.525,-0.019
18.530,0.026
18.535,0.075
18.540,0.123
18.545,0.158
18.550,0.182
18.555,0.201
18.560,0.216
18.565,0.221
18.570,0.219
18.575,0.221
18.580,0.223
18.585,0.216
18.590,0.207
18.595,0.200
18.600,0.196
18.605,0.189
18.610,0.178
18.615,0.171
18.620,0.164
18.625,0.155
18.630,0.153
18.635,0.149
18.640,0.139
18.645,0.128
18.650,0.121
18.655,0.119
18.660,0.120
18.665,0.119
18.670,0.112
18.675,0.103
18.680,0.097
18.685,0.096
18.690,0.092
18.695,0.084
18.700,0.081
18.705,0.083
18.710,0.080
18.715,0.073
18.720,0.067
18.725,0.064
18.730,0.060
18.735,0.053
18.740,0.052
18.745,0.051
18.750,0.042
18.755,0.034
18.760,0.031
18.765,0.030
18.770,0.029
18.775,0.028
18.780,0.023
18.785,0.018
18.790,0.014
18.795,0.008
18.800,0.000
18.805,-0.004
18.810,-0.005
18.815,-0.005
18.820,-0.006
18.825,-0.009
18.830,-0.010
18.835,-0.009
18.840,-0.011
18.845,-0.012
18.850,-0.015
18.855,-0.022
18.860,-0.030
18.865,-0.031
18.870,-0.031
18.875,-0.035
18.880,-0.040
18.885,-0.052
18.890,-0.064
18.895,-0.078
18.900,-0.107
18.905,-0.133
18.910,-0.133
18.915,-0.118
18.920,-0.121
18.925,-0.151
18.930,-0.162
18.935,-0.124
18.940,-0.070
18.945,-0.035
18.950,-0.023
18.955,-0.023
18.960,-0.019
18.965,-0.001
18.970,0.028
18.975,0.051
18.980,0.056
18.985,0.052
18.990,0.050
18.995,0.049
19.000,0.044
19.005,0.039
19.010,0.033
19.015,0.024
19.020,0.019
19.025,0.021
19.030,0.019
19.035,0.011
19.040,-0.025
19.045,-0.129
19.050,-0.282
19.055,-0.471
19.060,-0.663
19.065,-0.703
19.070,-0.471
19.075,0.047
19.080,0.598
19.085,0.848
19.090,0.783
19.095,0.513
19.100,0.236
19.105,0.083
19.110,0.007
19.115,-0.020
19.120,-0.028
19.125,-0.043
19.130,-0.048
19.135,-0.047
19.140,-0.056
19.145,-0.059
19.150,-0.056
19.155,-0.064
19.160,-0.073
19.165,-0.074
19.170,-0.074
19.175,-0.076
19.180,-0.074
19.185,-0.073
19.190,-0.078
19.195,-0.083
19.200,-0.085
19.205,-0.083
19.210,-0.081
19.215,-0.085
19.220,-0.091
19.225,-0.095
19.230,-0.099
19.235,-0.103
19.240,-0.109
19.245,-0.110
19.250,-0.113
19.255,-0.129
19.260,-0.141
19.265,-0.147
19.270,-0.160
19.275,-0.174
19.280,-0.185
19.285,-0.188
19.290,-0.188
19.295,-0.200
19.300,-0.206
19.305,-0.196
19.310,-0.187
19.315,-0.184
19.320,-0.183
19.325,-0.177
19.330,-0.167
19.335,-0.157
19.340,-0.142
19.345,-0.121
19.350,-0.093
19.355,-0.056
19.360,-0.010
19.365,0.042
19.370,0.094
19.375,0.143
19.380,0.182
19.385,0.207
19.390,0.221
19.395,0.233
19.400,0.241
19.405,0.244
19.410,0.241
19.415,0.237
19.420,0.237
19.425,0.228
19.430,0.212
19.435,0.203
19.440,0.195
19.445,0.186
19.450,0.180
19.455,0.174
19.460,0.171
19.465,0.165
19.470,0.154
19.475,0.150
19.480,0.141
19.485,0.128
19.490,0.120
19.495,0.118
19.500,0.125
19.505,0.129
19.510,0.117
19.515,0.102
19.520,0.096
19.525,0.092
19.530,0.094
19.535,0.094
19.540,0.088
19.545,0.083
19.550,0.073
19.555,0.063
19.560,0.054
19.565,0.046
19.570,0.045
19.575,0.048
19.580,0.038
19.585,0.030
19.590,0.034
19.595,0.036
19.600,0.037
19.605,0.027
19.610,0.007
19.615,0.002
19.620,0.002
19.625,0.002
19.630,0.004
19.635,-0.001
19.640,0.000
19.645,0.004
19.650,-0.009
19.655,-0.025
19.660,-0.023
19.665,-0.016
19.670,-0.013
19.675,-0.013
19.680,-0.020
19.685,-0.021
19.690,-0.019
19.695,-0.023
19.700,-0.023
19.705,-0.028
19.710,-0.037
19.715,-0.035
19.720,-0.037
19.725,-0.044
19.730,-0.044
19.735,-0.052
19.740,-0.066
19.745,-0.073
19.750,-0.089
19.755,-0.123
19.760,-0.143
19.765,-0.142
19.770,-0.131
19.775,-0.121
19.780,-0.141
19.785,-0.164
19.790,-0.141
19.795,-0.098
19.800,-0.073
19.805,-0.058
19.810,-0.045
19.815,-0.022
19.820,0.015
19.825,0.042
19.830,0.056
19.835,0.063
19.840,0.052
19.845,0.035
19.850,0.035
19.855,0.040
19.860,0.036
19.865,0.030
19.870,0.028
19.875,0.030
19.880,0.025
19.885,0.018
19.890,0.014
19.895,-0.021
19.900,-0.121
19.905,-0.269
19.910,-0.470
19.915,-0.724
19.920,-0.855
19.925,-0.654
19.930,-0.082
19.935,0.540
19.940,0.829
19.945,0.832
19.950,0.664
19.955,0.402
19.960,0.176
19.965,0.028
19.970,-0.016
19.975,-0.008
19.980,-0.024
19.985,-0.033
19.990,-0.026
19.995,-0.036
20.000,-0.042
20.005,-0.040
20.010,-0.051
20.015,-0.066
20.020,-0.061
20.025,-0.048
20.030,-0.054
20.035,-0.068
20.040,-0.069
20.045,-0.072
20.050,-0.081
20.055,-0.075
20.060,-0.062
20.065,-0.066
20.070,-0.072
20.075,-0.075
20.080,-0.088
20.085,-0.095
20.090,-0.100
20.095,-0.105
20.100,-0.097
20.105,-0.098
20.110,-0.108
20.115,-0.110
20.120,-0.111
20.125,-0.116
20.130,-0.131
20.135,-0.157
20.140,-0.181
20.145,-0.182
20.150,-0.170
20.155,-0.164
20.160,-0.166
20.165,-0.177
20.170,-0.184
20.175,-0.183
20.180,-0.184
20.185,-0.177
20.190,-0.160
20.195,-0.143
20.200,-0.124
20.205,-0.101
20.210,-0.069
20.215,-0.026
20.220,0.010
20.225,0.046
20.230,0.094
20.235,0.142
20.240,0.176
20.245,0.197
20.250,0.216
20.255,0.223
20.260,0.216
20.265,0.204
20.270,0.202
20.275,0.207
20.280,0.201
20.285,0.182
20.290,0.169
20.295,0.167
20.300,0.166
20.305,0.163
20.310,0.155
20.315,0.151
20.320,0.141
20.325,0.129
20.330,0.134
20.335,0.134
20.340,0.117
20.345,0.106
20.350,0.103
20.355,0.105
20.360,0.112
20.365,0.105
20.370,0.093
20.375,0.093
20.380,0.095
20.385,0.091
20.390,0.089
20.395,0.085
20.400,0.076
20.405,0.070
20.410,0.071
20.415,0.079
20.420,0.087
20.425,0.082
20.430,0.059
20.435,0.042
20.440,0.042
20.445,0.041
20.450,0.043
20.455,0.046
20.460,0.041
20.465,0.037
20.470,0.035
20.475,0.028
20.480,0.012
20.485,0.001
20.490,0.001
20.495,-0.005
20.500,-0.015
20.505,-0.018
20.510,-0.012
20.515,-0.002
20.520,0.002
20.525,-0.003
20.530,-0.013
20.535,-0.020
20.540,-0.025
20.545,-0.028
20.550,-0.029
20.555,-0.035
20.560,-0.043
20.565,-0.047
20.570,-0.060
20.575,-0.084
20.580,-0.120
20.585,-0.141
20.590,-0.128
20.595,-0.108
20.600,-0.109
20.605,-0.136
20.610,-0.155
20.615,-0.136
20.620,-0.103
20.625,-0.074
20.630,-0.050
20.635,-0.039
20.640,-0.034
20.645,-0.010
20.650,0.025
20.655,0.050
20.660,0.053
20.665,0.037
20.670,0.027
20.675,0.028
20.680,0.027
20.685,0.027
20.690,0.024
20.695,0.012
20.700,0.004
20.705,0.008
20.710,0.014
20.715,0.007
20.720,-0.030
20.725,-0.123
20.730,-0.267
20.735,-0.451
20.740,-0.684
20.745,-0.827
20.750,-0.695
20.755,-0.197
20.760,0.433
20.765,0.783
20.770,0.819
20.775,0.653
20.780,0.392
20.785,0.173
20.790,0.026
20.795,-0.027
20.800,-0.012
20.805,-0.019
20.810,-0.042
20.815,-0.041
20.820,-0.048
20.825,-0.064
20.830,-0.062
20.835,-0.062
20.840,-0.073
20.845,-0.075
20.850,-0.069
20.855,-0.070
20.860,-0.073
20.865,-0.072
20.870,-0.075
20.875,-0.079
20.880,-0.077
20.885,-0.079
20.890,-0.085
20.895,-0.084
20.900,-0.080
20.905,-0.080
20.910,-0.086
20.915,-0.095
20.920,-0.100
20.925,-0.098
20.930,-0.100
20.935,-0.109
20.940,-0.115
20.945,-0.117
20.950,-0.124
20.955,-0.137
20.960,-0.151
20.965,-0.157
20.970,-0.156
20.975,-0.164
20.980,-0.181
20.985,-0.189
20.990,-0.185
20.995,-0.178
21.000,-0.178
21.005,-0.179
21.010,-0.172
21.015,-0.156
21.020,-0.144
21.025,-0.133
21.030,-0.105
21.035,-0.063
21.040,-0.015
21.045,0.031
21.050,0.074
21.055,0.121
21.060,0.164
21.065,0.191
21.070,0.208
21.075,0.219
21.080,0.226
21.085,0.229
21.090,0.230
21.095,0.224
21.100,0.213
21.105,0.205
21.110,0.199
21.115,0.195
21.120,0.193
21.125,0.187
21.130,0.175
21.135,0.166
21.140,0.161
21.145,0.155
21.150,0.147
21.155,0.137
21.160,0.131
21.165,0.132
21.170,0.128
21.175,0.119
21.180,0.115
21.185,0.112
21.190,0.107
21.195,0.101
21.200,0.095
21.205,0.092
21.210,0.090
21.215,0.086
21.220,0.082
21.225,0.080
21.230,0.082
21.235,0.076
21.240,0.060
21.245,0.052
21.250,0.049
21.255,0.054
21.260,0.057
21.265,0.048
21.270,0.039
21.275,0.035
21.280,0.036
21.285,0.038
21.290,0.030
21.295,0.023
21.300,0.020
21.305,0.013
21.310,0.007
21.315,0.006
21.320,0.006
21.325,0.008
21.330,0.006
21.335,0.003
21.340,0.003
21.345,-0.002
21.350,-0.010
21.355,-0.014
21.360,-0.012
21.365,-0.014
21.370,-0.014
21.375,-0.015
21.380,-0.026
21.385,-0.045
21.390,-0.060
21.395,-0.075
21.400,-0.103
21.405,-0.126
21.410,-0.121
21.415,-0.100
21.420,-0.099
21.425,-0.132
21.430,-0.154
21.435,-0.123
21.440,-0.071
21.445,-0.040
21.450,-0.025
21.455,-0.018
21.460,-0.008
21.465,0.015
21.470,0.039
21.475,0.057
21.480,0.063
21.485,0.060
21.490,0.056
21.495,0.050
21.500,0.041
21.505,0.035
21.510,0.036
21.515,0.037
21.520,0.027
21.525,0.019
21.530,0.022
21.535,0.022
21.540,-0.013
21.545,-0.115
21.550,-0.259
21.555,-0.436
21.560,-0.638
21.565,-0.718
21.570,-0.541
21.575,-0.054
21.580,0.527
21.585,0.831
21.590,0.817
21.595,0.577
21.600,0.285
21.605,0.112
21.610,0.026
21.615,-0.006
21.620,-0.014
21.625,-0.032
21.630,-0.044
21.635,-0.042
21.640,-0.050
21.645,-0.060
21.650,-0.057
21.655,-0.058
21.660,-0.066
21.665,-0.069
21.670,-0.069
21.675,-0.070
21.680,-0.069
21.685,-0.071
21.690,-0.077
21.695,-0.080
21.700,-0.078
21.705,-0.079
21.710,-0.084
21.715,-0.089
21.720,-0.092
21.725,-0.088
21.730,-0.086
21.735,-0.097
21.740,-0.105
21.745,-0.109
21.750,-0.113
21.755,-0.116
21.760,-0.126
21.765,-0.135
21.770,-0.144
21.775,-0.156
21.780,-0.165
21.785,-0.174
21.790,-0.191
21.795,-0.208
21.800,-0.216
21.805,-0.217
21.810,-0.213
21.815,-0.205
21.820,-0.200
21.825,-0.197
21.830,-0.196
21.835,-0.185
21.840,-0.163
21.845,-0.144
21.850,-0.118
21.855,-0.069
21.860,-0.007
21.865,0.051
21.870,0.097
21.875,0.134
21.880,0.169
21.885,0.192
21.890,0.198
21.895,0.211
21.900,0.228
21.905,0.239
21.910,0.244
21.915,0.238
21.920,0.233
21.925,0.225
21.930,0.209
21.935,0.195
21.940,0.189
21.945,0.188
21.950,0.183
21.955,0.176
21.960,0.174
21.965,0.174
21.970,0.167
21.975,0.151
21.980,0.138
21.985,0.139
21.990,0.146
21.995,0.142
22.000,0.127
22.005,0.116
22.010,0.113
22.015,0.111
22.020,0.109
22.025,0.111
22.030,0.109
22.035,0.095
22.040,0.080
22.045,0.068
22.050,0.065
22.055,0.063
22.060,0.053
22.065,0.047
22.070,0.057
22.075,0.070
22.080,0.071
22.085,0.057
22.090,0.040
22.095,0.026
22.100,0.022
22.105,0.025
22.110,0.022
22.115,0.022
22.120,0.016
22.125,0.005
22.130,0.002
22.135,0.004
22.140,0.006
22.145,0.009
22.150,0.006
22.155,0.005
22.160,0.003
22.165,-0.012
22.170,-0.029
22.175,-0.035
22.180,-0.025
22.185,-0.016
22.190,-0.018
22.195,-0.023
22.200,-0.031
22.205,-0.038
22.210,-0.047
22.215,-0.058
22.220,-0.071
22.225,-0.090
22.230,-0.116
22.235,-0.130
22.240,-0.126
22.245,-0.111
22.250,-0.106
22.255,-0.122
22.260,-0.142
22.265,-0.140
22.270,-0.110
22.275,-0.082
22.280,-0.059
22.285,-0.037
22.290,-0.017
22.295,0.004
22.300,0.023
22.305,0.036
22.310,0.046
22.315,0.049
22.320,0.045
22.325,0.039
22.330,0.033
22.335,0.030
22.340,0.028
22.345,0.022
22.350,0.017
22.355,0.023
22.360,0.031
22.365,0.027
22.370,-0.008
22.375,-0.099
22.380,-0.242
22.385,-0.428
22.390,-0.666
22.395,-0.837
22.400,-0.731
22.405,-0.246
22.410,0.405
22.415,0.804
22.420,0.859
22.425,0.703
22.430,0.438
22.435,0.198
22.440,0.053
22.445,0.002
22.450,0.001
22.455,-0.018
22.460,-0.046
22.465,-0.040
22.470,-0.043
22.475,-0.068
22.480,-0.066
22.485,-0.051
22.490,-0.057
22.495,-0.067
22.500,-0.069
22.505,-0.068
22.510,-0.067
22.515,-0.066
22.520,-0.076
22.525,-0.090
22.530,-0.090
22.535,-0.082
22.540,-0.083
22.545,-0.085
22.550,-0.077
22.555,-0.078
22.560,-0.088
22.565,-0.093
22.570,-0.099
22.575,-0.102
22.580,-0.107
22.585,-0.122
22.590,-0.124
22.595,-0.122
22.600,-0.138
22.605,-0.141
22.610,-0.142
22.615,-0.164
22.620,-0.177
22.625,-0.180
22.630,-0.182
22.635,-0.181
22.640,-0.190
22.645,-0.203
22.650,-0.189
22.655,-0.172
22.660,-0.174
22.665,-0.168
22.670,-0.163
22.675,-0.149
22.680,-0.110
22.685,-0.071
22.690,-0.025
22.695,0.016
22.700,0.050
22.705,0.099
22.710,0.145
22.715,0.174
22.720,0.193
22.725,0.202
22.730,0.207
22.735,0.208
22.740,0.208
22.745,0.208
22.750,0.201
22.755,0.197
22.760,0.200
22.765,0.193
22.770,0.175
22.775,0.158
22.780,0.153
22.785,0.155
22.790,0.145
22.795,0.126
22.800,0.126
22.805,0.133
22.810,0.131
22.815,0.127
22.820,0.119
22.825,0.107
22.830,0.098
22.835,0.088
22.840,0.084
22.845,0.096
22.850,0.104
22.855,0.098
22.860,0.087
22.865,0.073
22.870,0.066
22.875,0.067
22.880,0.071
22.885,0.078
22.890,0.080
22.895,0.071
22.900,0.057
22.905,0.050
22.910,0.051
22.915,0.047
22.920,0.040
22.925,0.043
22.930,0.044
22.935,0.031
22.940,0.018
22.945,0.017
22.950,0.013
22.955,0.004
22.960,-0.001
22.965,-0.003
22.970,-0.006
22.975,-0.006
22.980,-0.004
22.985,-0.008
22.990,-0.016
22.995,-0.023
23.000,-0.024
23.005,-0.017
23.010,-0.015
23.015,-0.018
23.020,-0.019
23.025,-0.022
23.030,-0.024
23.035,-0.023
23.040,-0.031
23.045,-0.050
23.050,-0.063
23.055,-0.074
23.060,-0.083
23.065,-0.103
23.070,-0.129
23.075,-0.133
23.080,-0.124
23.085,-0.116
23.090,-0.133
23.095,-0.161
23.100,-0.158
23.105,-0.125
23.110,-0.091
23.115,-0.076
23.120,-0.061
23.125,-0.039
23.130,-0.021
23.135,0.002
23.140,0.022
23.145,0.034
23.150,0.040
23.155,0.036
23.160,0.031
23.165,0.032
23.170,0.035
23.175,0.038
23.180,0.035
23.185,0.021
23.190,0.010
23.195,0.007
23.200,0.010
23.205,0.006
23.210,-0.043
23.215,-0.170
23.220,-0.343
23.225,-0.552
23.230,-0.759
23.235,-0.789
23.240,-0.487
23.245,0.115
23.250,0.667
23.255,0.860
23.260,0.775
23.265,0.541
23.270,0.283
23.275,0.105
23.280,0.006
23.285,-0.014
23.290,-0.009
23.295,-0.031
23.300,-0.037
23.305,-0.029
23.310,-0.043
23.315,-0.055
23.320,-0.049
23.325,-0.052
23.330,-0.061
23.335,-0.060
23.340,-0.059
23.345,-0.062
23.350,-0.063
23.355,-0.066
23.360,-0.072
23.365,-0.072
23.370,-0.070
23.375,-0.068
23.380,-0.070
23.385,-0.073
23.390,-0.078
23.395,-0.079
23.400,-0.078
23.405,-0.085
23.410,-0.092
23.415,-0.094
23.420,-0.093
23.425,-0.096
23.430,-0.106
23.435,-0.114
23.440,-0.119
23.445,-0.125
23.450,-0.139
23.455,-0.152
23.460,-0.160
23.465,-0.170
23.470,-0.177
23.475,-0.178
23.480,-0.176
23.485,-0.174
23.490,-0.176
23.495,-0.173
23.500,-0.164
23.505,-0.153
23.510,-0.139
23.515,-0.114
23.520,-0.080
23.525,-0.041
23.530,-0.001
23.535,0.045
23.540,0.095
23.545,0.137
23.550,0.169
23.555,0.192
23.560,0.207
23.565,0.217
23.570,0.224
23.575,0.228
23.580,0.226
23.585,0.217
23.590,0.209
23.595,0.208
23.600,0.205
23.605,0.192
23.610,0.179
23.615,0.173
23.620,0.171
23.625,0.171
23.630,0.165
23.635,0.155
23.640,0.145
23.645,0.137
23.650,0.129
23.655,0.125
23.660,0.124
23.665,0.124
23.670,0.123
23.675,0.117
23.680,0.110
23.685,0.107
23.690,0.101
23.695,0.092
23.700,0.087
23.705,0.085
23.710,0.086
23.715,0.084
23.720,0.078
23.725,0.071
23.730,0.064
23.735,0.062
23.740,0.063
23.745,0.061
23.750,0.051
23.755,0.044
23.760,0.041
23.765,0.036
23.770,0.029
23.775,0.024
23.780,0.023
23.785,0.024
23.790,0.022
23.795,0.016
23.800,0.014
23.805,0.012
23.810,0.003
23.815,-0.001
23.820,0.000
23.825,-0.002
23.830,-0.003
23.835,-0.007
23.840,-0.012
23.845,-0.014
23.850,-0.017
23.855,-0.018
23.860,-0.017
23.865,-0.018
23.870,-0.023
23.875,-0.025
23.880,-0.025
23.885,-0.026
23.890,-0.030
23.895,-0.034
23.900,-0.036
23.905,-0.041
23.910,-0.056
23.915,-0.073
23.920,-0.097
23.925,-0.126
23.930,-0.133
23.935,-0.123
23.940,-0.117
23.945,-0.133
23.950,-0.154
23.955,-0.141
23.960,-0.102
23.965,-0.070
23.970,-0.053
23.975,-0.037
23.980,-0.023
23.985,-0.009
23.990,0.015
23.995,0.039
24.000,0.057
24.005,0.064
24.010,0.059
24.015,0.055
24.020,0.053
24.025,0.044
24.030,0.033
24.035,0.032
24.040,0.035
24.045,0.035
24.050,0.028
24.055,0.023
24.060,0.006
24.065,-0.067
24.070,-0.200
24.075,-0.370
24.080,-0.580
24.085,-0.723
24.090,-0.652
24.095,-0.269
24.100,0.328
24.105,0.761
24.110,0.853
24.115,0.674
24.120,0.377
24.125,0.161
24.130,0.051
24.135,0.002
24.140,-0.010
24.145,-0.022
24.150,-0.037
24.155,-0.036
24.160,-0.037
24.165,-0.049
24.170,-0.052
24.175,-0.056
24.180,-0.065
24.185,-0.068
24.190,-0.066
24.195,-0.067
24.200,-0.070
24.205,-0.072
24.210,-0.069
24.215,-0.070
24.220,-0.075
24.225,-0.081
24.230,-0.088
24.235,-0.090
24.240,-0.089
24.245,-0.093
24.250,-0.097
24.255,-0.096
24.260,-0.099
24.265,-0.109
24.270,-0.117
24.275,-0.124
24.280,-0.130
24.285,-0.136
24.290,-0.148
24.295,-0.161
24.300,-0.169
24.305,-0.178
24.310,-0.187
24.315,-0.197
24.320,-0.209
24.325,-0.210
24.330,-0.200
24.335,-0.188
24.340,-0.184
24.345,-0.185
24.350,-0.185
24.355,-0.177
24.360,-0.165
24.365,-0.147
24.370,-0.114
24.375,-0.074
24.380,-0.032
24.385,0.010
24.390,0.056
24.395,0.107
24.400,0.152
24.405,0.182
24.410,0.205
24.415,0.228
24.420,0.242
24.425,0.243
24.430,0.236
24.435,0.228
24.440,0.224
24.445,0.219
24.450,0.214
24.455,0.208
24.460,0.206
24.465,0.204
24.470,0.195
24.475,0.184
24.480,0.168
24.485,0.155
24.490,0.155
24.495,0.164
24.500,0.165
24.505,0.148
24.510,0.131
24.515,0.126
24.520,0.122
24.525,0.112
24.530,0.105
24.535,0.105
24.540,0.115
24.545,0.117
24.550,0.103
24.555,0.087
24.560,0.081
24.565,0.084
24.570,0.082
24.575,0.074
24.580,0.066
24.585,0.065
24.590,0.071
24.595,0.065
24.600,0.047
24.605,0.033
24.610,0.032
24.615,0.037
24.620,0.038
24.625,0.037
24.630,0.029
24.635,0.017
24.640,0.008
24.645,0.005
24.650,0.007
24.655,0.014
24.660,0.015
24.665,0.005
24.670,0.000
24.675,-0.002
24.680,-0.008
24.685,-0.011
24.690,-0.017
24.695,-0.019
24.700,-0.015
24.705,-0.021
24.710,-0.032
24.715,-0.030
24.720,-0.021
24.725,-0.019
24.730,-0.023
24.735,-0.030
24.740,-0.035
24.745,-0.034
24.750,-0.036
24.755,-0.043
24.760,-0.055
24.765,-0.073
24.770,-0.096
24.775,-0.123
24.780,-0.139
24.785,-0.132
24.790,-0.121
24.795,-0.134
24.800,-0.153
24.805,-0.138
24.810,-0.109
24.815,-0.092
24.820,-0.076
24.825,-0.043
24.830,-0.018
24.835,-0.010
24.840,0.001
24.845,0.024
24.850,0.055
24.855,0.064
24.860,0.053
24.865,0.048
24.870,0.045
24.875,0.040
24.880,0.034
24.885,0.022
24.890,0.017
24.895,0.016
24.900,0.017
24.905,0.024
24.910,0.010
24.915,-0.068
24.920,-0.199
24.925,-0.370
24.930,-0.606
24.935,-0.818
24.940,-0.788
24.945,-0.353
24.950,0.318
24.955,0.771
24.960,0.862
24.965,0.731
24.970,0.478
24.975,0.229
24.980,0.064
24.985,-0.009
24.990,-0.006
24.995,-0.010
25.000,-0.029
25.005,-0.019
25.010,-0.027
25.015,-0.061
25.020,-0.071
25.025,-0.068
25.030,-0.069
25.035,-0.065
25.040,-0.062
25.045,-0.068
25.050,-0.074
25.055,-0.075
25.060,-0.076
25.065,-0.080
25.070,-0.076
25.075,-0.068
25.080,-0.073
25.085,-0.084
25.090,-0.082
25.095,-0.077
25.100,-0.090
25.105,-0.103
25.110,-0.104
25.115,-0.105
25.120,-0.106
25.125,-0.106
25.130,-0.105
25.135,-0.115
25.140,-0.131
25.145,-0.146
25.150,-0.154
25.155,-0.158
25.160,-0.168
25.165,-0.174
25.170,-0.181
25.175,-0.192
25.180,-0.195
25.185,-0.195
25.190,-0.188
25.195,-0.177
25.200,-0.173
25.205,-0.170
25.210,-0.171
25.215,-0.165
25.220,-0.130
25.225,-0.080
25.230,-0.037
25.235,-0.005
25.240,0.037
25.245,0.094
25.250,0.144
25.255,0.163
25.260,0.179
25.265,0.207
25.270,0.223
25.275,0.219
25.280,0.201
25.285,0.197
25.290,0.206
25.295,0.200
25.300,0.193
25.305,0.187
25.310,0.171
25.315,0.163
25.320,0.155
25.325,0.144
25.330,0.139
25.335,0.133
25.340,0.127
25.345,0.116
25.350,0.113
25.355,0.126
25.360,0.127
25.365,0.110
25.370,0.095
25.375,0.091
25.380,0.093
25.385,0.096
25.390,0.097
25.395,0.099
25.400,0.094
25.405,0.082
25.410,0.078
25.415,0.076
25.420,0.067
25.425,0.055
25.430,0.063
25.435,0.073
25.440,0.066
25.445,0.059
25.450,0.047
25.455,0.035
25.460,0.034
25.465,0.040
25.470,0.046
25.475,0.040
25.480,0.020
25.485,0.005
25.490,0.008
25.495,0.014
25.500,0.017
25.505,0.020
25.510,0.017
25.515,0.010
25.520,0.007
25.525,0.011
25.530,0.012
25.535,-0.004
25.540,-0.013
25.545,-0.008
25.550,-0.012
25.555,-0.022
25.560,-0.025
25.565,-0.018
25.570,-0.005
25.575,-0.003
25.580,-0.019
25.585,-0.029
25.590,-0.041
25.595,-0.062
25.600,-0.071
25.605,-0.094
25.610,-0.129
25.615,-0.139
25.620,-0.127
25.625,-0.110
25.630,-0.119
25.635,-0.140
25.640,-0.133
25.645,-0.109
25.650,-0.090
25.655,-0.077
25.660,-0.061
25.665,-0.043
25.670,-0.021
25.675,0.011
25.680,0.047
25.685,0.063
25.690,0.059
25.695,0.053
25.700,0.051
25.705,0.049
25.710,0.041
25.715,0.031
25.720,0.023
25.725,0.017
25.730,0.013
25.735,0.010
25.740,0.012
25.745,0.001
25.750,-0.066
25.755,-0.199
25.760,-0.386
25.765,-0.623
25.770,-0.806
25.775,-0.755
25.780,-0.345
25.785,0.293
25.790,0.752
25.795,0.856
25.800,0.721
25.805,0.468
25.810,0.224
25.815,0.064
25.820,-0.010
25.825,-0.013
25.830,-0.009
25.835,-0.029
25.840,-0.037
25.845,-0.043
25.850,-0.062
25.855,-0.072
25.860,-0.072
25.865,-0.079
25.870,-0.083
25.875,-0.069
25.880,-0.064
25.885,-0.068
25.890,-0.067
25.895,-0.072
25.900,-0.083
25.905,-0.088
25.910,-0.084
25.915,-0.083
25.920,-0.087
25.925,-0.094
25.930,-0.097
25.935,-0.094
25.940,-0.091
25.945,-0.094
25.950,-0.108
25.955,-0.119
25.960,-0.122
25.965,-0.126
25.970,-0.127
25.975,-0.132
25.980,-0.143
25.985,-0.153
25.990,-0.163
25.995,-0.171
26.000,-0.178
26.005,-0.187
26.010,-0.195
26.015,-0.201
26.020,-0.201
26.025,-0.194
26.030,-0.186
26.035,-0.181
26.040,-0.173
26.045,-0.163
26.050,-0.147
26.055,-0.121
26.060,-0.083
26.065,-0.039
26.070,0.006
26.075,0.051
26.080,0.096
26.085,0.136
26.090,0.167
26.095,0.190
26.100,0.208
26.105,0.215
26.110,0.214
26.115,0.215
26.120,0.213
26.125,0.209
26.130,0.209
26.135,0.210
26.140,0.201
26.145,0.187
26.150,0.181
26.155,0.180
26.160,0.173
26.165,0.162
26.170,0.156
26.175,0.157
26.180,0.152
26.185,0.141
26.190,0.134
26.195,0.134
26.200,0.132
26.205,0.126
26.210,0.118
26.215,0.114
26.220,0.112
26.225,0.106
26.230,0.098
26.235,0.091
26.240,0.092
26.245,0.092
26.250,0.085
26.255,0.084
26.260,0.084
26.265,0.078
26.270,0.071
26.275,0.065
26.280,0.060
26.285,0.058
26.290,0.053
26.295,0.046
26.300,0.043
26.305,0.041
26.310,0.043
26.315,0.044
26.320,0.034
26.325,0.019
26.330,0.015
26.335,0.017
26.340,0.020
26.345,0.019
26.350,0.015
26.355,0.014
26.360,0.013
26.365,0.004
26.370,-0.003
26.375,-0.007
26.380,-0.011
26.385,-0.009
26.390,-0.009
26.395,-0.011
26.400,-0.010
26.405,-0.013
26.410,-0.018
26.415,-0.024
26.420,-0.036
26.425,-0.049
26.430,-0.070
26.435,-0.106
26.440,-0.125
26.445,-0.114
26.450,-0.102
26.455,-0.108
26.460,-0.134
26.465,-0.147
26.470,-0.124
26.475,-0.086
26.480,-0.058
26.485,-0.040
26.490,-0.024
26.495,-0.011
26.500,0.009
26.505,0.033
26.510,0.051
26.515,0.064
26.520,0.065
26.525,0.063
26.530,0.061
26.535,0.058
26.540,0.055
26.545,0.046
26.550,0.031
26.555,0.022
26.560,0.025
26.565,0.032
26.570,0.032
26.575,-0.002
26.580,-0.104
26.585,-0.256
26.590,-0.441
26.595,-0.643
26.600,-0.726
26.605,-0.564
26.610,-0.087
26.615,0.507
26.620,0.830
26.625,0.823
26.630,0.584
26.635,0.299
26.640,0.126
26.645,0.030
26.650,-0.007
26.655,-0.010
26.660,-0.024
26.665,-0.040
26.670,-0.040
26.675,-0.042
26.680,-0.049
26.685,-0.052
26.690,-0.059
26.695,-0.066
26.700,-0.066
26.705,-0.067
26.710,-0.067
26.715,-0.064
26.720,-0.070
26.725,-0.080
26.730,-0.084
26.735,-0.081
26.740,-0.080
26.745,-0.085
26.750,-0.089
26.755,-0.090
26.760,-0.091
26.765,-0.091
26.770,-0.097
26.775,-0.103
26.780,-0.106
26.785,-0.113
26.790,-0.126
26.795,-0.135
26.800,-0.138
26.805,-0.139
26.810,-0.145
26.815,-0.155
26.820,-0.167
26.825,-0.181
26.830,-0.198
26.835,-0.206
26.840,-0.205
26.845,-0.204
26.850,-0.202
26.855,-0.203
26.860,-0.205
26.865,-0.200
26.870,-0.188
26.875,-0.168
26.880,-0.147
26.885,-0.117
26.890,-0.075
26.895,-0.031
26.900,0.013
26.905,0.059
26.910,0.106
26.915,0.143
26.920,0.170
26.925,0.197
26.930,0.216
26.935,0.220
26.940,0.221
26.945,0.227
26.950,0.231
26.955,0.227
26.960,0.222
26.965,0.221
26.970,0.216
26.975,0.203
26.980,0.186
26.985,0.171
26.990,0.164
26.995,0.158
27.000,0.156
27.005,0.162
27.010,0.163
27.015,0.156
27.020,0.139
27.025,0.128
27.030,0.128
27.035,0.126
27.040,0.122
27.045,0.113
27.050,0.106
27.055,0.107
27.060,0.104
27.065,0.102
27.070,0.103
27.075,0.091
27.080,0.082
27.085,0.079
27.090,0.078
27.095,0.080
27.100,0.073
27.105,0.061
27.110,0.055
27.115,0.050
27.120,0.049
27.125,0.048
27.130,0.040
27.135,0.037
27.140,0.042
27.145,0.039
27.150,0.025
27.155,0.014
27.160,0.011
27.165,0.014
27.170,0.016
27.175,0.007
27.180,0.001
27.185,-0.003
27.190,-0.007
27.195,-0.005
27.200,-0.002
27.205,-0.006
27.210,-0.013
27.215,-0.019
27.220,-0.020
27.225,-0.023
27.230,-0.036
27.235,-0.040
27.240,-0.034
27.245,-0.032
27.250,-0.029
27.255,-0.034
27.260,-0.038
27.265,-0.033
27.270,-0.035
27.275,-0.045
27.280,-0.054
27.285,-0.064
27.290,-0.074
27.295,-0.092
27.300,-0.129
27.305,-0.144
27.310,-0.133
27.315,-0.125
27.320,-0.126
27.325,-0.140
27.330,-0.147
27.335,-0.127
27.340,-0.101
27.345,-0.080
27.350,-0.061
27.355,-0.043
27.360,-0.025
27.365,0.011
27.370,0.043
27.375,0.046
27.380,0.048
27.385,0.050
27.390,0.048
27.395,0.046
27.400,0.037
27.405,0.029
27.410,0.030
27.415,0.025
27.420,0.018
27.425,0.028
27.430,0.036
27.435,0.028
27.440,-0.013
27.445,-0.119
27.450,-0.274
27.455,-0.476
27.460,-0.719
27.465,-0.834
27.470,-0.632
27.475,-0.064
27.480,0.558
27.485,0.841
27.490,0.827
27.495,0.645
27.500,0.376
27.505,0.155
27.510,0.023
27.515,0.000
27.520,0.017
27.525,-0.017
27.530,-0.049
27.535,-0.037
27.540,-0.037
27.545,-0.051
27.550,-0.044
27.555,-0.037
27.560,-0.051
27.565,-0.065
27.570,-0.067
27.575,-0.067
27.580,-0.063
27.585,-0.061
27.590,-0.063
27.595,-0.063
27.600,-0.065
27.605,-0.068
27.610,-0.079
27.615,-0.087
27.620,-0.081
27.625,-0.077
27.630,-0.082
27.635,-0.093
27.640,-0.104
27.645,-0.104
27.650,-0.096
27.655,-0.104
27.660,-0.123
27.665,-0.135
27.670,-0.144
27.675,-0.153
27.680,-0.158
27.685,-0.160
27.690,-0.159
27.695,-0.166
27.700,-0.176
27.705,-0.186
27.710,-0.191
27.715,-0.185
27.720,-0.183
27.725,-0.179
27.730,-0.172
27.735,-0.168
27.740,-0.161
27.745,-0.146
27.750,-0.120
27.755,-0.076
27.760,-0.024
27.765,0.026
27.770,0.072
27.775,0.110
27.780,0.140
27.785,0.166
27.790,0.193
27.795,0.208
27.800,0.202
27.805,0.193
27.810,0.188
27.815,0.192
27.820,0.202
27.825,0.199
27.830,0.187
27.835,0.179
27.840,0.171
27.845,0.167
27.850,0.158
27.855,0.141
27.860,0.131
27.865,0.125
27.870,0.120
27.875,0.121
27.880,0.116
27.885,0.112
27.890,0.113
27.895,0.099
27.900,0.092
27.905,0.103
27.910,0.106
27.915,0.104
27.920,0.098
27.925,0.085
27.930,0.082
27.935,0.083
27.940,0.077
27.945,0.072
27.950,0.066
27.955,0.066
27.960,0.072
27.965,0.069
27.970,0.066
27.975,0.072
27.980,0.064
27.985,0.044
27.990,0.032
27.995,0.033
28.000,0.045
28.005,0.046
28.010,0.033
28.015,0.029
28.020,0.031
28.025,0.029
28.030,0.018
28.035,0.003
28.040,-0.005
28.045,-0.008
28.050,-0.010
28.055,-0.011
28.060,-0.007
28.065,-0.010
28.070,-0.023
28.075,-0.029
28.080,-0.021
28.085,-0.007
28.090,-0.005
28.095,-0.017
28.100,-0.028
28.105,-0.032
28.110,-0.025
28.115,-0.026
28.120,-0.037
28.125,-0.042
28.130,-0.044
28.135,-0.041
28.140,-0.043
28.145,-0.054
28.150,-0.067
28.155,-0.095
28.160,-0.127
28.165,-0.134
28.170,-0.132
28.175,-0.132
28.180,-0.138
28.185,-0.160
28.190,-0.162
28.195,-0.135
28.200,-0.102
28.205,-0.074
28.210,-0.059
28.215,-0.044
28.220,-0.019
28.225,0.012
28.230,0.036
28.235,0.042
28.240,0.044
28.245,0.043
28.250,0.040
28.255,0.041
28.260,0.038
28.265,0.036
28.270,0.034
28.275,0.025
28.280,0.018
28.285,0.015
28.290,0.020
28.295,0.017
28.300,-0.042
28.305,-0.175
28.310,-0.347
28.315,-0.563
28.320,-0.769
28.325,-0.788
28.330,-0.484
28.335,0.118
28.340,0.665
28.345,0.858
28.350,0.776
28.355,0.530
28.360,0.267
28.365,0.099
28.370,0.011
28.375,-0.002
28.380,0.001
28.385,-0.023
28.390,-0.034
28.395,-0.033
28.400,-0.046
28.405,-0.051
28.410,-0.047
28.415,-0.055
28.420,-0.062
28.425,-0.061
28.430,-0.065
28.435,-0.067
28.440,-0.063
28.445,-0.062
28.450,-0.068
28.455,-0.074
28.460,-0.074
28.465,-0.071
28.470,-0.069
28.475,-0.069
28.480,-0.072
28.485,-0.081
28.490,-0.087
28.495,-0.087
28.500,-0.087
28.505,-0.092
28.510,-0.103
28.515,-0.111
28.520,-0.115
28.525,-0.121
28.530,-0.132
28.535,-0.145
28.540,-0.153
28.545,-0.159
28.550,-0.166
28.555,-0.174
28.560,-0.182
28.565,-0.186
28.570,-0.188
28.575,-0.184
28.580,-0.177
28.585,-0.171
28.590,-0.161
28.595,-0.150
28.600,-0.138
28.605,-0.122
28.610,-0.093
28.615,-0.054
28.620,-0.011
28.625,0.035
28.630,0.083
28.635,0.127
28.640,0.164
28.645,0.191
28.650,0.207
28.655,0.214
28.660,0.219
28.665,0.224
28.670,0.228
28.675,0.223
28.680,0.213
28.685,0.206
28.690,0.201
28.695,0.194
28.700,0.188
28.705,0.185
28.710,0.182
28.715,0.175
28.720,0.159
28.725,0.147
28.730,0.147
28.735,0.146
28.740,0.142
28.745,0.134
28.750,0.126
28.755,0.124
28.760,0.121
28.765,0.119
28.770,0.114
28.775,0.107
28.780,0.103
28.785,0.100
28.790,0.096
28.795,0.092
28.800,0.090
28.805,0.089
28.810,0.083
28.815,0.076
28.820,0.073
28.825,0.071
28.830,0.067
28.835,0.059
28.840,0.054
28.845,0.050
28.850,0.045
28.855,0.045
28.860,0.045
28.865,0.040
28.870,0.033
28.875,0.033
28.880,0.032
28.885,0.024
28.890,0.016
28.895,0.012
28.900,0.012
28.905,0.013
28.910,0.006
28.915,0.002
28.920,0.008
28.925,0.011
28.930,0.003
28.935,-0.013
28.940,-0.019
28.945,-0.014
28.950,-0.011
28.955,-0.013
28.960,-0.015
28.965,-0.014
28.970,-0.018
28.975,-0.024
28.980,-0.027
28.985,-0.031
28.990,-0.048
28.995,-0.067
29.000,-0.089
29.005,-0.117
29.010,-0.126
29.015,-0.116
29.020,-0.109
29.025,-0.120
29.030,-0.147
29.035,-0.149
29.040,-0.113
29.045,-0.073
29.050,-0.047
29.055,-0.032
29.060,-0.024
29.065,-0.013
29.070,0.010
29.075,0.039
29.080,0.059
29.085,0.066
29.090,0.058
29.095,0.049
29.100,0.047
29.105,0.043
29.110,0.037
29.115,0.032
29.120,0.026
29.125,0.021
29.130,0.018
29.135,0.022
29.140,0.021
29.145,-0.027
29.150,-0.145
29.155,-0.312
29.160,-0.513
29.165,-0.693
29.170,-0.706
29.175,-0.441
29.180,0.101
29.185,0.635
29.190,0.852
29.195,0.762
29.200,0.483
29.205,0.220
29.210,0.080
29.215,0.005
29.220,-0.025
29.225,-0.033
29.230,-0.040
29.235,-0.039
29.240,-0.039
29.245,-0.051
29.250,-0.060
29.255,-0.059
29.260,-0.062
29.265,-0.071
29.270,-0.075
29.275,-0.075
29.280,-0.077
29.285,-0.076
29.290,-0.073
29.295,-0.078
29.300,-0.084
29.305,-0.087
29.310,-0.087
29.315,-0.087
29.320,-0.089
29.325,-0.092
29.330,-0.093
29.335,-0.094
29.340,-0.101
29.345,-0.111
29.350,-0.111
29.355,-0.113
29.360,-0.119
29.365,-0.123
29.370,-0.131
29.375,-0.139
29.380,-0.149
29.385,-0.164
29.390,-0.177
29.395,-0.188
29.400,-0.195
29.405,-0.197
29.410,-0.198
29.415,-0.195
29.420,-0.195
29.425,-0.199
29.430,-0.194
29.435,-0.183
29.440,-0.181
29.445,-0.176
29.450,-0.154
29.455,-0.115
29.460,-0.065
29.465,-0.017
29.470,0.027
29.475,0.072
29.480,0.115
29.485,0.156
29.490,0.190
29.495,0.209
29.500,0.217
29.505,0.229
29.510,0.238
29.515,0.235
29.520,0.229
29.525,0.225
29.530,0.221
29.535,0.215
29.540,0.205
29.545,0.194
29.550,0.190
29.555,0.188
29.560,0.183
29.565,0.173
29.570,0.163
29.575,0.157
29.580,0.154
29.585,0.151
29.590,0.138
29.595,0.132
29.600,0.140
29.605,0.139
29.610,0.132
29.615,0.115
29.620,0.094
29.625,0.095
29.630,0.108
29.635,0.111
29.640,0.099
29.645,0.089
29.650,0.089
29.655,0.093
29.660,0.090
29.665,0.078
29.670,0.068
29.675,0.063
29.680,0.055
29.685,0.055
29.690,0.062
29.695,0.058
29.700,0.046
29.705,0.035
29.710,0.033
29.715,0.027
29.720,0.017
29.725,0.017
29.730,0.018
29.735,0.015
29.740,0.009
29.745,0.002
29.750,-0.004
29.755,-0.008
29.760,-0.009
29.765,-0.005
29.770,0.003
29.775,0.005
29.780,-0.002
29.785,-0.011
29.790,-0.025
29.795,-0.038
29.800,-0.041
29.805,-0.037
29.810,-0.033
29.815,-0.036
29.820,-0.032
29.825,-0.024
29.830,-0.024
29.835,-0.033
29.840,-0.039
29.845,-0.037
29.850,-0.038
29.855,-0.053
29.860,-0.074
29.865,-0.097
29.870,-0.127
29.875,-0.152
29.880,-0.155
29.885,-0.132
29.890,-0.112
29.895,-0.132
29.900,-0.160
29.905,-0.147
29.910,-0.107
29.915,-0.077
29.920,-0.073
29.925,-0.068
29.930,-0.037
29.935,0.008
29.940,0.036
29.945,0.049
29.950,0.060
29.955,0.047
29.960,0.031
29.965,0.027
29.970,0.025
29.975,0.030
29.980,0.030
29.985,0.026
29.990,0.027
29.995,0.025
30.000,0.024
30.005,0.021
30.010,-0.017
30.015,-0.110
30.020,-0.255
30.025,-0.452
30.030,-0.697
30.035,-0.847
30.040,-0.699
30.045,-0.166
30.050,0.476
30.055,0.811
30.060,0.834
30.065,0.667
30.070,0.413
30.075,0.200
30.080,0.053
30.085,0.003
30.090,0.014
30.095,-0.013
30.100,-0.050
30.105,-0.051
30.110,-0.049
30.115,-0.043
30.120,-0.033
30.125,-0.045
30.130,-0.064
30.135,-0.067
30.140,-0.054
30.145,-0.060
30.150,-0.072
30.155,-0.066
30.160,-0.060
30.165,-0.061
30.170,-0.061
30.175,-0.057
30.180,-0.058
30.185,-0.078
30.190,-0.098
30.195,-0.100
30.200,-0.095
30.205,-0.092
30.210,-0.096
30.215,-0.100
30.220,-0.104
30.225,-0.115
30.230,-0.120
30.235,-0.123
30.240,-0.127
30.245,-0.130
30.250,-0.135
30.255,-0.146
30.260,-0.166
30.265,-0.182
30.270,-0.188
30.275,-0.190
30.280,-0.189
30.285,-0.181
30.290,-0.175
30.295,-0.184
30.300,-0.195
30.305,-0.190
30.310,-0.167
30.315,-0.133
30.320,-0.101
30.325,-0.072
30.330,-0.042
30.335,0.001
30.340,0.058
30.345,0.106
30.350,0.134
30.355,0.159
30.360,0.184
30.365,0.200
30.370,0.210
30.375,0.208
30.380,0.201
30.385,0.203
30.390,0.199
30.395,0.201
30.400,0.199
30.405,0.180
30.410,0.172
30.415,0.172
30.420,0.163
30.425,0.156
30.430,0.150
30.435,0.137
30.440,0.132
30.445,0.135
30.450,0.134
30.455,0.128
30.460,0.123
30.465,0.110
30.470,0.090
30.475,0.082
30.480,0.091
30.485,0.113
30.490,0.112
30.495,0.085
30.500,0.069
30.505,0.070
30.510,0.072
30.515,0.076
30.520,0.083
30.525,0.076
30.530,0.066
30.535,0.064
30.540,0.056
30.545,0.049
30.550,0.048
30.555,0.048
30.560,0.052
30.565,0.051
30.570,0.038
30.575,0.032
30.580,0.028
30.585,0.024
30.590,0.027
30.595,0.014
30.600,-0.005
30.605,-0.004
30.610,0.008
30.615,0.010
30.620,-0.003
30.625,-0.013
30.630,-0.013
30.635,-0.017
30.640,-0.022
30.645,-0.024
30.650,-0.023
30.655,-0.015
30.660,-0.009
30.665,-0.013
30.670,-0.027
30.675,-0.043
30.680,-0.044
30.685,-0.038
30.690,-0.042
30.695,-0.054
30.700,-0.059
30.705,-0.075
30.710,-0.111
30.715,-0.138
30.720,-0.139
30.725,-0.129
30.730,-0.131
30.735,-0.153
30.740,-0.158
30.745,-0.132
30.750,-0.097
30.755,-0.070
30.760,-0.057
30.765,-0.053
30.770,-0.041
30.775,-0.010
30.780,0.025
30.785,0.048
30.790,0.056
30.795,0.053
30.800,0.044
30.805,0.042
30.810,0.044
30.815,0.033
30.820,0.016
30.825,0.007
30.830,0.009
30.835,0.018
30.840,0.022
30.845,0.010
30.850,-0.035
30.855,-0.143
30.860,-0.310
30.865,-0.512
30.870,-0.728
30.875,-0.813
30.880,-0.600
30.885,-0.046
30.890,0.561
30.895,0.839
30.900,0.811
30.905,0.595
30.910,0.320
30.915,0.130
30.920,0.016
30.925,-0.014
30.930,-0.005
30.935,-0.032
30.940,-0.050
30.945,-0.041
30.950,-0.047
30.955,-0.058
30.960,-0.055
30.965,-0.058
30.970,-0.061
30.975,-0.055
30.980,-0.055
30.985,-0.068
30.990,-0.077
30.995,-0.073
31.000,-0.069
31.005,-0.067
31.010,-0.068
31.015,-0.073
31.020,-0.077
31.025,-0.081
31.030,-0.087
31.035,-0.086
31.040,-0.083
31.045,-0.084
31.050,-0.086
31.055,-0.093
31.060,-0.096
31.065,-0.094
31.070,-0.105
31.075,-0.124
31.080,-0.134
31.085,-0.137
31.090,-0.142
31.095,-0.150
31.100,-0.162
31.105,-0.171
31.110,-0.173
31.115,-0.172
31.120,-0.175
31.125,-0.181
31.130,-0.184
31.135,-0.178
31.140,-0.167
31.145,-0.156
31.150,-0.145
31.155,-0.126
31.160,-0.096
31.165,-0.058
31.170,-0.014
31.175,0.036
31.180,0.082
31.185,0.122
31.190,0.157
31.195,0.183
31.200,0.206
31.205,0.222
31.210,0.225
31.215,0.223
31.220,0.223
31.225,0.225
31.230,0.219
31.235,0.202
31.240,0.193
31.245,0.193
31.250,0.191
31.255,0.184
31.260,0.177
31.265,0.171
31.270,0.159
31.275,0.152
31.280,0.149
31.285,0.139
31.290,0.129
31.295,0.127
31.300,0.127
31.305,0.125
31.310,0.114
31.315,0.104
31.320,0.104
31.325,0.107
31.330,0.104
31.335,0.097
31.340,0.090
31.345,0.086
31.350,0.083
31.355,0.083
31.360,0.080
31.365,0.075
31.370,0.072
31.375,0.065
31.380,0.062
31.385,0.061
31.390,0.055
31.395,0.046
31.400,0.040
31.405,0.041
31.410,0.038
31.415,0.031
31.420,0.029
31.425,0.027
31.430,0.024
31.435,0.022
31.440,0.016
31.445,0.012
31.450,0.008
31.455,0.004
31.460,0.003
31.465,0.004
31.470,0.005
31.475,-0.001
31.480,-0.008
31.485,-0.009
31.490,-0.007
31.495,-0.005
31.500,-0.008
31.505,-0.014
31.510,-0.018
31.515,-0.020
31.520,-0.020
31.525,-0.020
31.530,-0.024
31.535,-0.030
31.540,-0.033
31.545,-0.037
31.550,-0.050
31.555,-0.071
31.560,-0.100
31.565,-0.132
31.570,-0.135
31.575,-0.119
31.580,-0.113
31.585,-0.132
31.590,-0.155
31.595,-0.138
31.600,-0.093
31.605,-0.060
31.610,-0.043
31.615,-0.029
31.620,-0.015
31.625,0.001
31.630,0.022
31.635,0.046
31.640,0.064
31.645,0.071
31.650,0.063
31.655,0.056
31.660,0.053
31.665,0.044
31.670,0.038
31.675,0.035
31.680,0.031
31.685,0.029
31.690,0.029
31.695,0.031
31.700,0.009
31.705,-0.082
31.710,-0.226
31.715,-0.400
31.720,-0.604
31.725,-0.727
31.730,-0.629
31.735,-0.207
31.740,0.397
31.745,0.786
31.750,0.839
31.755,0.640
31.760,0.350
31.765,0.148
31.770,0.037
31.775,-0.004
31.780,-0.006
31.785,-0.017
31.790,-0.034
31.795,-0.035
31.800,-0.036
31.805,-0.045
31.810,-0.051
31.815,-0.057
31.820,-0.065
31.825,-0.061
31.830,-0.054
31.835,-0.058
31.840,-0.064
31.845,-0.065
31.850,-0.065
31.855,-0.069
31.860,-0.076
31.865,-0.081
31.870,-0.082
31.875,-0.080
31.880,-0.082
31.885,-0.085
31.890,-0.082
31.895,-0.086
31.900,-0.093
31.905,-0.103
31.910,-0.110
31.915,-0.112
31.920,-0.119
31.925,-0.127
31.930,-0.134
31.935,-0.142
31.940,-0.151
31.945,-0.161
31.950,-0.171
31.955,-0.184
31.960,-0.193
31.965,-0.198
31.970,-0.199
31.975,-0.196
31.980,-0.194
31.985,-0.195
31.990,-0.194
31.995,-0.191
32.000,-0.176
32.005,-0.152
32.010,-0.121
32.015,-0.085
32.020,-0.047
32.025,-0.003
32.030,0.046
32.035,0.093
32.040,0.137
32.045,0.169
32.050,0.193
32.055,0.216
32.060,0.225
32.065,0.228
32.070,0.234
32.075,0.238
32.080,0.239
32.085,0.232
32.090,0.222
32.095,0.221
32.100,0.220
32.105,0.203
32.110,0.175
32.115,0.153
32.120,0.153
32.125,0.163
32.130,0.162
32.135,0.154
32.140,0.150
32.145,0.148
32.150,0.140
32.155,0.131
32.160,0.135
32.165,0.137
32.170,0.122
32.175,0.105
32.180,0.102
32.185,0.108
32.190,0.110
32.195,0.102
32.200,0.094
32.205,0.087
32.210,0.078
32.215,0.072
32.220,0.068
32.225,0.063
32.230,0.061
32.235,0.062
32.240,0.057
32.245,0.049
32.250,0.048
32.255,0.046
32.260,0.038
32.265,0.025
32.270,0.018
32.275,0.022
32.280,0.030
32.285,0.027
32.290,0.018
32.295,0.015
32.300,0.010
32.305,0.001
32.310,-0.002
32.315,-0.005
32.320,-0.011
32.325,-0.011
32.330,-0.009
32.335,-0.010
32.340,-0.015
32.345,-0.023
32.350,-0.021
32.355,-0.021
32.360,-0.033
32.365,-0.037
32.370,-0.029
32.375,-0.030
32.380,-0.035
32.385,-0.038
32.390,-0.029
32.395,-0.026
32.400,-0.046
32.405,-0.064
32.410,-0.066
32.415,-0.062
32.420,-0.070
32.425,-0.106
32.430,-0.140
32.435,-0.147
32.440,-0.133
32.445,-0.120
32.450,-0.145
32.455,-0.168
32.460,-0.153
32.465,-0.127
32.470,-0.097
32.475,-0.066
32.480,-0.037
32.485,-0.011
32.490,-0.003
32.495,0.002
32.500,0.025
32.505,0.046
32.510,0.047
32.515,0.039
32.520,0.038
32.525,0.046
32.530,0.045
32.535,0.032
32.540,0.017
32.545,0.009
32.550,0.012
32.555,0.016
32.560,0.019
32.565,-0.002
32.570,-0.087
32.575,-0.227
32.580,-0.408
32.585,-0.645
32.590,-0.832
32.595,-0.758
32.600,-0.286
32.605,0.369
32.610,0.776
32.615,0.849
32.620,0.713
32.625,0.467
32.630,0.231
32.635,0.059
32.640,-0.004
32.645,0.004
32.650,-0.015
32.655,-0.039
32.660,-0.035
32.665,-0.039
32.670,-0.056
32.675,-0.064
32.680,-0.060
32.685,-0.057
32.690,-0.056
32.695,-0.056
32.700,-0.066
32.705,-0.073
32.710,-0.061
32.715,-0.058
32.720,-0.076
32.725,-0.081
32.730,-0.074
32.735,-0.075
32.740,-0.077
32.745,-0.080
32.750,-0.079
32.755,-0.077
32.760,-0.085
32.765,-0.099
32.770,-0.109
32.775,-0.104
32.780,-0.100
32.785,-0.104
32.790,-0.109
32.795,-0.124
32.800,-0.139
32.805,-0.147
32.810,-0.163
32.815,-0.175
32.820,-0.181
32.825,-0.183
32.830,-0.174
32.835,-0.167
32.840,-0.169
32.845,-0.171
32.850,-0.179
32.855,-0.192
32.860,-0.185
32.865,-0.159
32.870,-0.133
32.875,-0.109
32.880,-0.078
32.885,-0.036
32.890,0.006
32.895,0.040
32.900,0.082
32.905,0.125
32.910,0.162
32.915,0.186
32.920,0.191
32.925,0.199
32.930,0.203
32.935,0.202
32.940,0.208
32.945,0.209
32.950,0.204
32.955,0.201
32.960,0.191
32.965,0.170
32.970,0.152
32.975,0.144
32.980,0.148
32.985,0.154
32.990,0.153
32.995,0.147
33.000,0.136
33.005,0.115
33.010,0.096
33.015,0.096
33.020,0.107
33.025,0.104
33.030,0.093
33.035,0.095
33.040,0.102
33.045,0.101
33.050,0.098
33.055,0.089
33.060,0.081
33.065,0.076
33.070,0.072
33.075,0.077
33.080,0.079
33.085,0.069
33.090,0.060
33.095,0.055
33.100,0.043
33.105,0.035
33.110,0.041
33.115,0.050
33.120,0.046
33.125,0.034
33.130,0.032
33.135,0.039
33.140,0.039
33.145,0.031
33.150,0.016
33.155,0.001
33.160,-0.009
33.165,-0.010
33.170,-0.006
33.175,-0.002
33.180,-0.004
33.185,-0.005
33.190,-0.006
33.195,-0.017
33.200,-0.029
33.205,-0.029
33.210,-0.023
33.215,-0.019
33.220,-0.015
33.225,-0.021
33.230,-0.033
33.235,-0.041
33.240,-0.043
33.245,-0.043
33.250,-0.050
33.255,-0.067
33.260,-0.096
33.265,-0.131
33.270,-0.141
33.275,-0.127
33.280,-0.117
33.285,-0.120
33.290,-0.144
33.295,-0.155
33.300,-0.136
33.305,-0.109
33.310,-0.074
33.315,-0.045
33.320,-0.040
33.325,-0.031
33.330,-0.005
33.335,0.024
33.340,0.042
33.345,0.046
33.350,0.045
33.355,0.045
33.360,0.047
33.365,0.039
33.370,0.027
33.375,0.020
33.380,0.013
33.385,0.012
33.390,0.011
33.395,0.012
33.400,0.011
33.405,-0.033
33.410,-0.148
33.415,-0.314
33.420,-0.516
33.425,-0.725
33.430,-0.793
33.435,-0.553
33.440,0.018
33.445,0.600
33.450,0.847
33.455,0.799
33.460,0.572
33.465,0.308
33.470,0.125
33.475,0.015
33.480,-0.018
33.485,-0.014
33.490,-0.031
33.495,-0.041
33.500,-0.036
33.505,-0.048
33.510,-0.057
33.515,-0.048
33.520,-0.053
33.525,-0.066
33.530,-0.064
33.535,-0.063
33.540,-0.070
33.545,-0.070
33.550,-0.067
33.555,-0.069
33.560,-0.073
33.565,-0.075
33.570,-0.071
33.575,-0.067
33.580,-0.075
33.585,-0.084
33.590,-0.085
33.595,-0.087
33.600,-0.090
33.605,-0.095
33.610,-0.102
33.615,-0.103
33.620,-0.105
33.625,-0.111
33.630,-0.117
33.635,-0.125
33.640,-0.133
33.645,-0.140
33.650,-0.153
33.655,-0.166
33.660,-0.170
33.665,-0.170
33.670,-0.172
33.675,-0.177
33.680,-0.177
33.685,-0.166
33.690,-0.158
33.695,-0.158
33.700,-0.151
33.705,-0.140
33.710,-0.122
33.715,-0.092
33.720,-0.056
33.725,-0.009
33.730,0.043
33.735,0.088
33.740,0.134
33.745,0.173
33.750,0.197
33.755,0.212
33.760,0.221
33.765,0.226
33.770,0.229
33.775,0.228
33.780,0.221
33.785,0.215
33.790,0.214
33.795,0.211
33.800,0.203
33.805,0.189
33.810,0.178
33.815,0.173
33.820,0.166
33.825,0.159
33.830,0.152
33.835,0.147
33.840,0.144
33.845,0.138
33.850,0.132
33.855,0.127
33.860,0.120
33.865,0.114
33.870,0.111
33.875,0.109
33.880,0.107
33.885,0.106
33.890,0.103
33.895,0.094
33.900,0.086
33.905,0.083
33.910,0.082
33.915,0.082
33.920,0.073
33.925,0.061
33.930,0.059
33.935,0.060
33.940,0.057
33.945,0.053
33.950,0.047
33.955,0.044
33.960,0.042
33.965,0.037
33.970,0.028
33.975,0.023
33.980,0.023
33.985,0.021
33.990,0.020
33.995,0.017
34.000,0.013
34.005,0.011
34.010,0.003
34.015,-0.004
34.020,-0.001
34.025,0.004
34.030,-0.001
34.035,-0.010
34.040,-0.012
34.045,-0.009
34.050,-0.011
34.055,-0.017
34.060,-0.021
34.065,-0.021
34.070,-0.020
34.075,-0.024
34.080,-0.035
34.085,-0.052
34.090,-0.075
34.095,-0.105
34.100,-0.131
34.105,-0.130
34.110,-0.116
34.115,-0.115
34.120,-0.135
34.125,-0.153
34.130,-0.135
34.135,-0.093
34.140,-0.057
34.145,-0.041
34.150,-0.031
34.155,-0.020
34.160,0.000
34.165,0.032
34.170,0.056
34.175,0.065
34.180,0.064
34.185,0.059
34.190,0.056
34.195,0.052
34.200,0.048
34.205,0.044
34.210,0.037
34.215,0.033
34.220,0.028
34.225,0.025
34.230,0.024
34.235,-0.003
34.240,-0.094
34.245,-0.240
34.250,-0.418
34.255,-0.617
34.260,-0.714
34.265,-0.579
34.270,-0.135
34.275,0.458
34.280,0.812
34.285,0.832
34.290,0.607
34.295,0.312
34.300,0.128
34.305,0.030
34.310,-0.012
34.315,-0.020
34.320,-0.031
34.325,-0.042
34.330,-0.044
34.335,-0.048
34.340,-0.055
34.345,-0.057
34.350,-0.063
34.355,-0.071
34.360,-0.071
34.365,-0.072
34.370,-0.075
34.375,-0.073
34.380,-0.069
34.385,-0.074
34.390,-0.080
34.395,-0.082
34.400,-0.088
34.405,-0.093
34.410,-0.090
34.415,-0.088
34.420,-0.093
34.425,-0.098
34.430,-0.098
34.435,-0.098
34.440,-0.106
34.445,-0.120
34.450,-0.127
34.455,-0.128
34.460,-0.130
34.465,-0.137
34.470,-0.150
34.475,-0.164
34.480,-0.175
34.485,-0.182
34.490,-0.188
34.495,-0.194
34.500,-0.203
34.505,-0.209
34.510,-0.203
34.515,-0.196
34.520,-0.189
34.525,-0.183
34.530,-0.178
34.535,-0.168
34.540,-0.149
34.545,-0.119
34.550,-0.083
34.555,-0.042
34.560,0.008
34.565,0.060
34.570,0.106
34.575,0.143
34.580,0.173
34.585,0.199
34.590,0.217
34.595,0.226
34.600,0.227
34.605,0.226
34.610,0.222
34.615,0.220
34.620,0.220
34.625,0.219
34.630,0.212
34.635,0.203
34.640,0.190
34.645,0.175
34.650,0.163
34.655,0.156
34.660,0.157
34.665,0.154
34.670,0.151
34.675,0.150
34.680,0.147
34.685,0.143
34.690,0.137
34.695,0.130
34.700,0.119
34.705,0.105
34.710,0.103
34.715,0.109
34.720,0.107
34.725,0.100
34.730,0.092
34.735,0.082
34.740,0.076
34.745,0.076
34.750,0.081
34.755,0.084
34.760,0.077
34.765,0.061
34.770,0.048
34.775,0.050
34.780,0.055
34.785,0.054
34.790,0.049
34.795,0.035
34.800,0.025
34.805,0.027
34.810,0.026
34.815,0.020
34.820,0.012
34.825,0.002
34.830,0.006
34.835,0.016
34.840,0.005
34.845,-0.014
34.850,-0.017
34.855,-0.007
34.860,0.001
34.865,-0.006
34.870,-0.019
34.875,-0.016
34.880,-0.009
34.885,-0.010
34.890,-0.024
34.895,-0.032
34.900,-0.030
34.905,-0.029
34.910,-0.027
34.915,-0.027
34.920,-0.025
34.925,-0.026
34.930,-0.033
34.935,-0.039
34.940,-0.042
34.945,-0.040
34.950,-0.040
34.955,-0.053
34.960,-0.077
34.965,-0.091
34.970,-0.110
34.975,-0.133
34.980,-0.139
34.985,-0.126
34.990,-0.115
34.995,-0.137
35.000,-0.165
35.005,-0.149
35.010,-0.104
35.015,-0.072
35.020,-0.059
35.025,-0.043
35.030,-0.029
35.035,-0.008
35.040,0.018
35.045,0.035
35.050,0.050
35.055,0.050
35.060,0.044
35.065,0.047
35.070,0.046
35.075,0.039
35.080,0.033
35.085,0.029
35.090,0.025
35.095,0.021
35.100,0.017
35.105,0.016
35.110,-0.017
35.115,-0.122
35.120,-0.278
35.125,-0.462
35.130,-0.691
35.135,-0.830
35.140,-0.667
35.145,-0.132
35.150,0.494
35.155,0.814
35.160,0.833
35.165,0.661
35.170,0.400
35.175,0.185
35.180,0.038
35.185,-0.012
35.190,0.004
35.195,-0.008
35.200,-0.021
35.205,-0.010
35.210,-0.033
35.215,-0.063
35.220,-0.057
35.225,-0.048
35.230,-0.054
35.235,-0.060
35.240,-0.062
35.245,-0.063
35.250,-0.062
35.255,-0.062
35.260,-0.071
35.265,-0.074
35.270,-0.071
35.275,-0.072
35.280,-0.073
35.285,-0.075
35.290,-0.077
35.295,-0.082
35.300,-0.092
35.305,-0.095
35.310,-0.095
35.315,-0.093
35.320,-0.096
35.325,-0.111
35.330,-0.121
35.335,-0.121
35.340,-0.123
35.345,-0.129
35.350,-0.129
35.355,-0.144
35.360,-0.175
35.365,-0.200
35.370,-0.206
35.375,-0.193
35.380,-0.177
35.385,-0.170
35.390,-0.168
35.395,-0.169
35.400,-0.170
35.405,-0.171
35.410,-0.170
35.415,-0.161
35.420,-0.133
35.425,-0.079
35.430,-0.021
35.435,0.018
35.440,0.053
35.445,0.087
35.450,0.118
35.455,0.151
35.460,0.184
35.465,0.207
35.470,0.212
35.475,0.207
35.480,0.209
35.485,0.213
35.490,0.213
35.495,0.202
35.500,0.184
35.505,0.167
35.510,0.161
35.515,0.161
35.520,0.158
35.525,0.154
35.530,0.147
35.535,0.132
35.540,0.117
35.545,0.110
35.550,0.117
35.555,0.122
35.560,0.113
35.565,0.098
35.570,0.087
35.575,0.094
35.580,0.100
35.585,0.099
35.590,0.094
35.595,0.081
35.600,0.074
35.605,0.073
35.610,0.072
35.615,0.068
35.620,0.067
35.625,0.067
35.630,0.064
35.635,0.060
35.640,0.054
35.645,0.049
35.650,0.048
35.655,0.045
35.660,0.041
35.665,0.036
35.670,0.031
35.675,0.029
35.680,0.028
35.685,0.018
35.690,0.007
35.695,0.005
35.700,0.008
35.705,0.010
35.710,0.005
35.715,-0.003
35.720,-0.012
35.725,-0.016
35.730,-0.013
35.735,-0.010
35.740,-0.012
35.745,-0.013
35.750,-0.012
35.755,-0.013
35.760,-0.020
35.765,-0.030
35.770,-0.032
35.775,-0.030
35.780,-0.031
35.785,-0.027
35.790,-0.028
35.795,-0.036
35.800,-0.044
35.805,-0.055
35.810,-0.069
35.815,-0.087
35.820,-0.118
35.825,-0.138
35.830,-0.132
35.835,-0.116
35.840,-0.113
35.845,-0.141
35.850,-0.166
35.855,-0.146
35.860,-0.106
35.865,-0.081
35.870,-0.062
35.875,-0.043
35.880,-0.023
35.885,0.002
35.890,0.023
35.895,0.038
35.900,0.046
35.905,0.042
35.910,0.040
35.915,0.041
35.920,0.034
35.925,0.028
35.930,0.029
35.935,0.028
35.940,0.026
35.945,0.022
35.950,0.024
35.955,0.025
35.960,-0.006
35.965,-0.104
35.970,-0.252
35.975,-0.435
35.980,-0.659
35.985,-0.782
35.990,-0.629
35.995,-0.124
36.000,0.497
36.005,0.831
36.010,0.843
36.015,0.645
36.020,0.372
36.025,0.169
36.030,0.047
36.035,0.006
36.040,0.006
36.045,-0.017
36.050,-0.036
36.055,-0.030
36.060,-0.035
36.065,-0.048
36.070,-0.048
36.075,-0.045
36.080,-0.048
36.085,-0.049
36.090,-0.051
36.095,-0.061
36.100,-0.067
36.105,-0.060
36.110,-0.057
36.115,-0.059
36.120,-0.062
36.125,-0.064
36.130,-0.067
36.135,-0.070
36.140,-0.070
36.145,-0.073
36.150,-0.076
36.155,-0.074
36.160,-0.078
36.165,-0.087
36.170,-0.094
36.175,-0.099
36.180,-0.105
36.185,-0.109
36.190,-0.117
36.195,-0.130
36.200,-0.142
36.205,-0.149
36.210,-0.149
36.215,-0.154
36.220,-0.167
36.225,-0.176
36.230,-0.177
36.235,-0.171
36.240,-0.169
36.245,-0.168
36.250,-0.164
36.255,-0.158
36.260,-0.146
36.265,-0.130
36.270,-0.107
36.275,-0.070
36.280,-0.026
36.285,0.021
36.290,0.070
36.295,0.114
36.300,0.152
36.305,0.181
36.310,0.203
36.315,0.218
36.320,0.225
36.325,0.227
36.330,0.228
36.335,0.228
36.340,0.216
36.345,0.202
36.350,0.198
36.355,0.194
36.360,0.187
36.365,0.178
36.370,0.166
36.375,0.160
36.380,0.161
36.385,0.155
36.390,0.147
36.395,0.144
36.400,0.137
36.405,0.128
36.410,0.121
36.415,0.114
36.420,0.114
36.425,0.113
36.430,0.107
36.435,0.102
36.440,0.097
36.445,0.096
36.450,0.095
36.455,0.088
36.460,0.081
36.465,0.076
36.470,0.072
36.475,0.070
36.480,0.064
36.485,0.059
36.490,0.054
36.495,0.049
36.500,0.049
36.505,0.047
36.510,0.041
36.515,0.038
36.520,0.036
36.525,0.029
36.530,0.021
36.535,0.017
36.540,0.018
36.545,0.019
36.550,0.016
36.555,0.012
36.560,0.008
36.565,0.005
36.570,0.003
36.575,0.000
36.580,-0.009
36.585,-0.014
36.590,-0.015
36.595,-0.014
36.600,-0.013
36.605,-0.012
36.610,-0.014
36.615,-0.021
36.620,-0.024
36.625,-0.022
36.630,-0.021
36.635,-0.026
36.640,-0.037
36.645,-0.052
36.650,-0.069
36.655,-0.090
36.660,-0.118
36.665,-0.136
36.670,-0.131
36.675,-0.115
36.680,-0.120
36.685,-0.148
36.690,-0.156
36.695,-0.121
36.700,-0.078
36.705,-0.053
36.710,-0.042
36.715,-0.036
36.720,-0.022
36.725,0.003
36.730,0.031
36.735,0.055
36.740,0.062
36.745,0.060
36.750,0.053
36.755,0.042
36.760,0.039
36.765,0.040
36.770,0.035
36.775,0.027
36.780,0.022
36.785,0.025
36.790,0.027
36.795,0.015
36.800,-0.033
36.805,-0.148
36.810,-0.313
36.815,-0.511
36.820,-0.696
36.825,-0.711
36.830,-0.434
36.835,0.120
36.840,0.652
36.845,0.859
36.850,0.763
36.855,0.483
36.860,0.218
36.865,0.075
36.870,0.003
36.875,-0.020
36.880,-0.029
36.885,-0.043
36.890,-0.042
36.895,-0.040
36.900,-0.054
36.905,-0.063
36.910,-0.063
36.915,-0.068
36.920,-0.069
36.925,-0.068
36.930,-0.072
36.935,-0.076
36.940,-0.071
36.945,-0.072
36.950,-0.083
36.955,-0.088
36.960,-0.090
36.965,-0.092
36.970,-0.091
36.975,-0.088
36.980,-0.089
36.985,-0.097
36.990,-0.104
36.995,-0.106
37.000,-0.111
37.005,-0.116
37.010,-0.117
37.015,-0.122
37.020,-0.125
37.025,-0.127
37.030,-0.129
37.035,-0.138
37.040,-0.158
37.045,-0.176
37.050,-0.186
37.055,-0.191
37.060,-0.196
37.065,-0.193
37.070,-0.186
37.075,-0.186
37.080,-0.187
37.085,-0.182
37.090,-0.173
37.095,-0.161
37.100,-0.149
37.105,-0.128
37.110,-0.095
37.115,-0.055
37.120,-0.004
37.125,0.051
37.130,0.096
37.135,0.134
37.140,0.169
37.145,0.200
37.150,0.217
37.155,0.222
37.160,0.229
37.165,0.237
37.170,0.240
37.175,0.235
37.180,0.226
37.185,0.219
37.190,0.211
37.195,0.200
37.200,0.192
37.205,0.189
37.210,0.181
37.215,0.169
37.220,0.163
37.225,0.155
37.230,0.142
37.235,0.136
37.240,0.134
37.245,0.134
37.250,0.137
37.255,0.136
37.260,0.133
37.265,0.124
37.270,0.109
37.275,0.100
37.280,0.096
37.285,0.090
37.290,0.084
37.295,0.081
37.300,0.079
37.305,0.072
37.310,0.073
37.315,0.075
37.320,0.063
37.325,0.050
37.330,0.047
37.335,0.052
37.340,0.053
37.345,0.048
37.350,0.036
37.355,0.021
37.360,0.013
37.365,0.016
37.370,0.024
37.375,0.021
37.380,0.004
37.385,0.001
37.390,0.008
37.395,0.006
37.400,0.006
37.405,0.002
37.410,-0.007
37.415,-0.011
37.420,-0.017
37.425,-0.018
37.430,-0.017
37.435,-0.028
37.440,-0.036
37.445,-0.032
37.450,-0.036
37.455,-0.043
37.460,-0.041
37.465,-0.041
37.470,-0.042
37.475,-0.046
37.480,-0.064
37.485,-0.088
37.490,-0.121
37.495,-0.148
37.500,-0.142
37.505,-0.127
37.510,-0.128
37.515,-0.145
37.520,-0.157
37.525,-0.135
37.530,-0.096
37.535,-0.070
37.540,-0.051
37.545,-0.034
37.550,-0.016
37.555,0.006
37.560,0.025
37.565,0.048
37.570,0.066
37.575,0.057
37.580,0.037
37.585,0.029
37.590,0.033
37.595,0.033
37.600,0.027
37.605,0.027
37.610,0.032
37.615,0.029
37.620,0.017
37.625,0.003
37.630,-0.024
37.635,-0.105
37.640,-0.245
37.645,-0.433
37.650,-0.676
37.655,-0.834
37.660,-0.685
37.665,-0.158
37.670,0.470
37.675,0.811
37.680,0.841
37.685,0.675
37.690,0.415
37.695,0.182
37.700,0.033
37.705,-0.006
37.710,0.003
37.715,-0.029
37.720,-0.058
37.725,-0.044
37.730,-0.043
37.735,-0.055
37.740,-0.053
37.745,-0.052
37.750,-0.056
37.755,-0.060
37.760,-0.066
37.765,-0.078
37.770,-0.087
37.775,-0.082
37.780,-0.075
37.785,-0.066
37.790,-0.059
37.795,-0.064
37.800,-0.074
37.805,-0.085
37.810,-0.092
37.815,-0.092
37.820,-0.088
37.825,-0.088
37.830,-0.092
37.835,-0.093
37.840,-0.092
37.845,-0.096
37.850,-0.106
37.855,-0.121
37.860,-0.145
37.865,-0.166
37.870,-0.166
37.875,-0.154
37.880,-0.147
37.885,-0.155
37.890,-0.179
37.895,-0.198
37.900,-0.195
37.905,-0.187
37.910,-0.175
37.915,-0.173
37.920,-0.181
37.925,-0.167
37.930,-0.152
37.935,-0.150
37.940,-0.124
37.945,-0.077
37.950,-0.030
37.955,0.020
37.960,0.070
37.965,0.113
37.970,0.148
37.975,0.165
37.980,0.175
37.985,0.193
37.990,0.201
37.995,0.202
38.000,0.208
38.005,0.210
38.010,0.211
38.015,0.211
38.020,0.199
38.025,0.182
38.030,0.168
38.035,0.162
38.040,0.160
38.045,0.151
38.050,0.144
38.055,0.143
38.060,0.144
38.065,0.133
38.070,0.114
38.075,0.113
38.080,0.119
38.085,0.116
38.090,0.107
38.095,0.102
38.100,0.103
38.105,0.104
38.110,0.104
38.115,0.097
38.120,0.084
38.125,0.072
38.130,0.067
38.135,0.078
38.140,0.081
38.145,0.074
38.150,0.073
38.155,0.072
38.160,0.066
38.165,0.055
38.170,0.042
38.175,0.038
38.180,0.035
38.185,0.033
38.190,0.036
38.195,0.035
38.200,0.031
38.205,0.022
38.210,0.012
38.215,0.007
38.220,0.004
38.225,-0.001
38.230,-0.008
38.235,-0.010
38.240,-0.009
38.245,-0.011
38.250,-0.012
38.255,-0.010
38.260,-0.003
38.265,0.000
38.270,-0.009
38.275,-0.022
38.280,-0.031
38.285,-0.034
38.290,-0.031
38.295,-0.029
38.300,-0.031
38.305,-0.044
38.310,-0.062
38.315,-0.081
38.320,-0.106
38.325,-0.126
38.330,-0.131
38.335,-0.117
38.340,-0.107
38.345,-0.124
38.350,-0.145
38.355,-0.131
38.360,-0.096
38.365,-0.065
38.370,-0.040
38.375,-0.028
38.380,-0.023
38.385,-0.007
38.390,0.016
38.395,0.035
38.400,0.040
38.405,0.038
38.410,0.040
38.415,0.040
38.420,0.031
38.425,0.024
38.430,0.024
38.435,0.020
38.440,0.013
38.445,0.012
38.450,0.012
38.455,0.010
38.460,-0.007
38.465,-0.086
38.470,-0.228
38.475,-0.406
38.480,-0.627
38.485,-0.802
38.490,-0.743
38.495,-0.309
38.500,0.337
38.505,0.764
38.510,0.843
38.515,0.701
38.520,0.449
38.525,0.217
38.530,0.057
38.535,-0.018
38.540,-0.016
38.545,-0.020
38.550,-0.045
38.555,-0.042
38.560,-0.043
38.565,-0.061
38.570,-0.061
38.575,-0.054
38.580,-0.059
38.585,-0.063
38.590,-0.060
38.595,-0.060
38.600,-0.062
38.605,-0.062
38.610,-0.066
38.615,-0.075
38.620,-0.075
38.625,-0.070
38.630,-0.072
38.635,-0.072
38.640,-0.072
38.645,-0.077
38.650,-0.078
38.655,-0.079
38.660,-0.086
38.665,-0.095
38.670,-0.101
38.675,-0.102
38.680,-0.106
38.685,-0.109
38.690,-0.112
38.695,-0.121
38.700,-0.132
38.705,-0.141
38.710,-0.150
38.715,-0.160
38.720,-0.170
38.725,-0.178
38.730,-0.178
38.735,-0.176
38.740,-0.178
38.745,-0.173
38.750,-0.167
38.755,-0.169
38.760,-0.166
38.765,-0.148
38.770,-0.115
38.775,-0.074
38.780,-0.034
38.785,0.007
38.790,0.057
38.795,0.107
38.800,0.143
38.805,0.171
38.810,0.196
38.815,0.215
38.820,0.226
38.825,0.229
38.830,0.227
38.835,0.227
38.840,0.223
38.845,0.211
38.850,0.199
38.855,0.194
38.860,0.191
38.865,0.182
38.870,0.172
38.875,0.162
38.880,0.156
38.885,0.155
38.890,0.154
38.895,0.149
38.900,0.140
38.905,0.130
38.910,0.121
38.915,0.118
38.920,0.115
38.925,0.109
38.930,0.108
38.935,0.111
38.940,0.108
38.945,0.101
38.950,0.093
38.955,0.085
38.960,0.084
38.965,0.084
38.970,0.075
38.975,0.071
38.980,0.074
38.985,0.069
38.990,0.062
38.995,0.057
39.000,0.048
39.005,0.041
39.010,0.040
39.015,0.039
39.020,0.040
39.025,0.039
39.030,0.030
39.035,0.020
39.040,0.015
39.045,0.015
39.050,0.014
39.055,0.008
39.060,0.004
39.065,0.003
39.070,0.003
39.075,0.002
39.080,-0.004
39.085,-0.008
39.090,-0.012
39.095,-0.014
39.100,-0.012
39.105,-0.015
39.110,-0.020
39.115,-0.019
39.120,-0.019
39.125,-0.019
39.130,-0.022
39.135,-0.023
39.140,-0.022
39.145,-0.026
39.150,-0.033
39.155,-0.037
39.160,-0.042
39.165,-0.044
39.170,-0.048
39.175,-0.061
39.180,-0.085
39.185,-0.113
39.190,-0.117
39.195,-0.102
39.200,-0.097
39.205,-0.115
39.210,-0.137
39.215,-0.121
39.220,-0.074
39.225,-0.033
39.230,-0.018
39.235,-0.020
39.240,-0.016
39.245,-0.003
39.250,0.015
39.255,0.035
39.260,0.047
39.265,0.048
39.270,0.039
39.275,0.034
39.280,0.033
39.285,0.027
39.290,0.021
39.295,0.016
39.300,0.013
39.305,0.012
39.310,0.011
39.315,0.012
39.320,-0.001
39.325,-0.081
39.330,-0.222
39.335,-0.401
39.340,-0.620
39.345,-0.757
39.350,-0.662
39.355,-0.236
39.360,0.371
39.365,0.767
39.370,0.834
39.375,0.645
39.380,0.355
39.385,0.149
39.390,0.039
39.395,-0.005
39.400,-0.016
39.405,-0.033
39.410,-0.043
39.415,-0.035
39.420,-0.039
39.425,-0.054
39.430,-0.058
39.435,-0.060
39.440,-0.065
39.445,-0.061
39.450,-0.056
39.455,-0.062
39.460,-0.065
39.465,-0.062
39.470,-0.065
39.475,-0.073
39.480,-0.078
39.485,-0.078
39.490,-0.078
39.495,-0.078
39.500,-0.079
39.505,-0.079
39.510,-0.079
39.515,-0.079
39.520,-0.082
39.525,-0.096
39.530,-0.109
39.535,-0.116
39.540,-0.120
39.545,-0.127
39.550,-0.137
39.555,-0.146
39.560,-0.152
39.565,-0.160
39.570,-0.168
39.575,-0.175
39.580,-0.186
39.585,-0.200
39.590,-0.208
39.595,-0.206
39.600,-0.199
39.605,-0.193
39.610,-0.188
39.615,-0.177
39.620,-0.161
39.625,-0.144
39.630,-0.116
39.635,-0.086
39.640,-0.048
39.645,0.004
39.650,0.059
39.655,0.109
39.660,0.148
39.665,0.178
39.670,0.208
39.675,0.227
39.680,0.236
39.685,0.237
39.690,0.227
39.695,0.217
39.700,0.217
39.705,0.221
39.710,0.225
39.715,0.217
39.720,0.203
39.725,0.195
39.730,0.190
39.735,0.181
39.740,0.170
39.745,0.158
39.750,0.147
39.755,0.150
39.760,0.152
39.765,0.146
39.770,0.138
39.775,0.132
39.780,0.122
39.785,0.113
39.790,0.112
39.795,0.111
39.800,0.107
39.805,0.097
39.810,0.085
39.815,0.081
39.820,0.086
39.825,0.092
39.830,0.091
39.835,0.080
39.840,0.070
39.845,0.061
39.850,0.051
39.855,0.043
39.860,0.040
39.865,0.048
39.870,0.058
39.875,0.047
39.880,0.032
39.885,0.027
39.890,0.022
39.895,0.017
39.900,0.011
39.905,0.009
39.910,0.013
39.915,0.014
39.920,0.008
39.925,-0.002
39.930,-0.004
39.935,-0.003
39.940,0.000
39.945,-0.004
39.950,-0.021
39.955,-0.031
39.960,-0.028
39.965,-0.016
39.970,-0.012
39.975,-0.021
39.980,-0.030
39.985,-0.035
39.990,-0.035
39.995,-0.030
40.000,-0.030
40.005,-0.034
40.010,-0.032
40.015,-0.036
40.020,-0.038
40.025,-0.036
40.030,-0.039
40.035,-0.043
40.040,-0.051
40.045,-0.062
40.050,-0.061
40.055,-0.055
40.060,-0.064
40.065,-0.092
40.070,-0.124
40.075,-0.131
40.080,-0.112
40.085,-0.098
40.090,-0.113
40.095,-0.140
40.100,-0.142
40.105,-0.109
40.110,-0.069
40.115,-0.045
40.120,-0.037
40.125,-0.039
40.130,-0.032
40.135,-0.006
40.140,0.025
40.145,0.050
40.150,0.057
40.155,0.044
40.160,0.033
40.165,0.030
40.170,0.032
40.175,0.031
40.180,0.017
40.185,0.001
40.190,-0.004
40.195,0.006
40.200,0.018
40.205,0.020
40.210,-0.010
40.215,-0.101
40.220,-0.242
40.225,-0.431
40.230,-0.676
40.235,-0.842
40.240,-0.727
40.245,-0.232
40.250,0.406
40.255,0.778
40.260,0.839
40.265,0.699
40.270,0.442
40.275,0.203
40.280,0.047
40.285,-0.006
40.290,0.011
40.295,0.001
40.300,-0.029
40.305,-0.025
40.310,-0.028
40.315,-0.043
40.320,-0.039
40.325,-0.039
40.330,-0.054
40.335,-0.060
40.340,-0.055
40.345,-0.058
40.350,-0.060
40.355,-0.053
40.360,-0.054
40.365,-0.060
40.370,-0.056
40.375,-0.056
40.380,-0.066
40.385,-0.072
40.390,-0.074
40.395,-0.077
40.400,-0.080
40.405,-0.079
40.410,-0.076
40.415,-0.074
40.420,-0.079
40.425,-0.088
40.430,-0.097
40.435,-0.112
40.440,-0.125
40.445,-0.132
40.450,-0.137
40.455,-0.140
40.460,-0.144
40.465,-0.153
40.470,-0.165
40.475,-0.174
40.480,-0.175
40.485,-0.169
40.490,-0.169
40.495,-0.175
40.500,-0.174
40.505,-0.170
40.510,-0.156
40.515,-0.133
40.520,-0.105
40.525,-0.070
40.530,-0.041
40.535,-0.005
40.540,0.044
40.545,0.090
40.550,0.123
40.555,0.143
40.560,0.169
40.565,0.199
40.570,0.220
40.575,0.225
40.580,0.216
40.585,0.208
40.590,0.204
40.595,0.195
40.600,0.180
40.605,0.172
40.610,0.178
40.615,0.180
40.620,0.171
40.625,0.153
40.630,0.141
40.635,0.137
40.640,0.135
40.645,0.133
40.650,0.125
40.655,0.111
40.660,0.103
40.665,0.103
40.670,0.109
40.675,0.110
40.680,0.103
40.685,0.103
40.690,0.101
40.695,0.089
40.700,0.075
40.705,0.069
40.710,0.074
40.715,0.073
40.720,0.064
40.725,0.065
40.730,0.067
40.735,0.056
40.740,0.047
40.745,0.043
40.750,0.044
40.755,0.043
40.760,0.031
40.765,0.016
40.770,0.005
40.775,0.012
40.780,0.038
40.785,0.046
40.790,0.031
40.795,0.011
40.800,0.003
40.805,0.002
40.810,-0.003
40.815,-0.001
40.820,0.004
40.825,0.013
40.830,0.017
40.835,0.001
40.840,-0.018
40.845,-0.020
40.850,-0.017
40.855,-0.012
40.860,-0.009
40.865,-0.006
40.870,0.001
40.875,-0.004
40.880,-0.020
40.885,-0.025
40.890,-0.021
40.895,-0.020
40.900,-0.026
40.905,-0.039
40.910,-0.052
40.915,-0.054
40.920,-0.052
40.925,-0.048
40.930,-0.047
40.935,-0.051
40.940,-0.061
40.945,-0.095
40.950,-0.135
40.955,-0.142
40.960,-0.128
40.965,-0.115
40.970,-0.122
40.975,-0.148
40.980,-0.157
40.985,-0.127
40.990,-0.086
40.995,-0.057
41.000,-0.037
41.005,-0.033
41.010,-0.022
41.015,0.007
41.020,0.031
41.025,0.042
41.030,0.038
41.035,0.032
41.040,0.039
41.045,0.039
41.050,0.028
41.055,0.020
41.060,0.018
41.065,0.018
41.070,0.010
41.075,0.002
41.080,0.007
41.085,0.003
41.090,-0.047
41.095,-0.166
41.100,-0.334
41.105,-0.545
41.110,-0.770
41.115,-0.842
41.120,-0.577
41.125,0.029
41.130,0.615
41.135,0.841
41.140,0.784
41.145,0.572
41.150,0.318
41.155,0.130
41.160,0.015
41.165,-0.008
41.170,0.003
41.175,-0.023
41.180,-0.040
41.185,-0.034
41.190,-0.041
41.195,-0.044
41.200,-0.037
41.205,-0.044
41.210,-0.055
41.215,-0.052
41.220,-0.049
41.225,-0.058
41.230,-0.063
41.235,-0.059
41.240,-0.058
41.245,-0.063
41.250,-0.067
41.255,-0.064
41.260,-0.062
41.265,-0.065
41.270,-0.068
41.275,-0.072
41.280,-0.074
41.285,-0.076
41.290,-0.081
41.295,-0.086
41.300,-0.088
41.305,-0.091
41.310,-0.095
41.315,-0.101
41.320,-0.112
41.325,-0.124
41.330,-0.136
41.335,-0.147
41.340,-0.157
41.345,-0.164
41.350,-0.168
41.355,-0.172
41.360,-0.173
41.365,-0.169
41.370,-0.164
41.375,-0.158
41.380,-0.155
41.385,-0.152
41.390,-0.143
41.395,-0.126
41.400,-0.095
41.405,-0.057
41.410,-0.017
41.415,0.025
41.420,0.072
41.425,0.122
41.430,0.161
41.435,0.179
41.440,0.195
41.445,0.211
41.450,0.221
41.455,0.224
41.460,0.220
41.465,0.219
41.470,0.219
41.475,0.215
41.480,0.209
41.485,0.200
41.490,0.190
41.495,0.181
41.500,0.171
41.505,0.161
41.510,0.155
41.515,0.151
41.520,0.149
41.525,0.144
41.530,0.139
41.535,0.135
41.540,0.129
41.545,0.122
41.550,0.117
41.555,0.111
41.560,0.102
41.565,0.096
41.570,0.095
41.575,0.094
41.580,0.092
41.585,0.089
41.590,0.084
41.595,0.078
41.600,0.069
41.605,0.064
41.610,0.065
41.615,0.061
41.620,0.055
41.625,0.049
41.630,0.042
41.635,0.042
41.640,0.043
41.645,0.039
41.650,0.034
41.655,0.028
41.660,0.022
41.665,0.021
41.670,0.016
41.675,0.010
41.680,0.011
41.685,0.009
41.690,0.002
41.695,0.002
41.700,0.004
41.705,0.002
41.710,-0.003
41.715,-0.011
41.720,-0.009
41.725,-0.006
41.730,-0.014
41.735,-0.019
41.740,-0.017
41.745,-0.017
41.750,-0.020
41.755,-0.022
41.760,-0.023
41.765,-0.021
41.770,-0.023
41.775,-0.024
41.780,-0.024
41.785,-0.030
41.790,-0.035
41.795,-0.039
41.800,-0.046
41.805,-0.057
41.810,-0.083
41.815,-0.119
41.820,-0.137
41.825,-0.128
41.830,-0.111
41.835,-0.111
41.840,-0.141
41.845,-0.155
41.850,-0.120
41.855,-0.076
41.860,-0.049
41.865,-0.037
41.870,-0.028
41.875,-0.014
41.880,0.005
41.885,0.025
41.890,0.045
41.895,0.057
41.900,0.058
41.905,0.057
41.910,0.053
41.915,0.041
41.920,0.030
41.925,0.029
41.930,0.028
41.935,0.024
41.940,0.022
41.945,0.024
41.950,0.027
41.955,-0.015
41.960,-0.133
41.965,-0.291
41.970,-0.479
41.975,-0.675
41.980,-0.729
41.985,-0.524
41.990,-0.019
41.995,0.554
42.000,0.831
42.005,0.786
42.010,0.533
42.015,0.262
42.020,0.109
42.025,0.030
42.030,-0.004
42.035,-0.016
42.040,-0.025
42.045,-0.027
42.050,-0.030
42.055,-0.039
42.060,-0.042
42.065,-0.045
42.070,-0.053
42.075,-0.054
42.080,-0.055
42.085,-0.057
42.090,-0.060
42.095,-0.063
42.100,-0.061
42.105,-0.062
42.110,-0.062
42.115,-0.062
42.120,-0.070
42.125,-0.078
42.130,-0.087
42.135,-0.090
42.140,-0.087
42.145,-0.091
42.150,-0.097
42.155,-0.102
42.160,-0.110
42.165,-0.117
42.170,-0.124
42.175,-0.138
42.180,-0.144
42.185,-0.144
42.190,-0.149
42.195,-0.153
42.200,-0.161
42.205,-0.170
42.210,-0.174
42.215,-0.181
42.220,-0.190
42.225,-0.193
42.230,-0.190
42.235,-0.182
42.240,-0.176
42.245,-0.170
42.250,-0.155
42.255,-0.136
42.260,-0.116
42.265,-0.093
42.270,-0.063
42.275,-0.020
42.280,0.030
42.285,0.084
42.290,0.138
42.295,0.184
42.300,0.214
42.305,0.226
42.310,0.230
42.315,0.233
42.320,0.240
42.325,0.241
42.330,0.237
42.335,0.235
42.340,0.227
42.345,0.223
42.350,0.226
42.355,0.221
42.360,0.206
42.365,0.187
42.370,0.177
42.375,0.175
42.380,0.177
42.385,0.173
42.390,0.157
42.395,0.143
42.400,0.132
42.405,0.123
42.410,0.123
42.415,0.126
42.420,0.124
42.425,0.115
42.430,0.107
42.435,0.097
42.440,0.086
42.445,0.087
42.450,0.089
42.455,0.090
42.460,0.091
42.465,0.070
42.470,0.054
42.475,0.050
42.480,0.048
42.485,0.053
42.490,0.051
42.495,0.050
42.500,0.052
42.505,0.040
42.510,0.037
42.515,0.043
42.520,0.035
42.525,0.021
42.530,-0.001
42.535,-0.009
42.540,0.002
42.545,0.001
42.550,-0.001
42.555,-0.002
42.560,-0.005
42.565,-0.004
42.570,-0.012
42.575,-0.018
42.580,-0.024
42.585,-0.031
42.590,-0.028
42.595,-0.025
42.600,-0.024
42.605,-0.024
42.610,-0.029
42.615,-0.031
42.620,-0.034
42.625,-0.046
42.630,-0.049
42.635,-0.043
42.640,-0.039
42.645,-0.041
42.650,-0.049
42.655,-0.047
42.660,-0.044
42.665,-0.047
42.670,-0.053
42.675,-0.068
42.680,-0.082
42.685,-0.103
42.690,-0.139
42.695,-0.156
42.700,-0.148
42.705,-0.127
42.710,-0.122
42.715,-0.146
42.720,-0.153
42.725,-0.125
42.730,-0.091
42.735,-0.067
42.740,-0.049
42.745,-0.037
42.750,-0.024
42.755,-0.002
42.760,0.026
42.765,0.050
42.770,0.049
42.775,0.028
42.780,0.018
42.785,0.020
42.790,0.018
42.795,0.016
42.800,0.017
42.805,0.016
42.810,0.023
42.815,0.034
42.820,0.033
42.825,0.012
42.830,-0.059
42.835,-0.189
42.840,-0.343
42.845,-0.542
42.850,-0.775
42.855,-0.845
42.860,-0.572
42.865,0.032
42.870,0.619
42.875,0.857
42.880,0.814
42.885,0.599
42.890,0.334
42.895,0.140
42.900,0.028
42.905,0.009
42.910,0.003
42.915,-0.040
42.920,-0.045
42.925,-0.022
42.930,-0.025
42.935,-0.038
42.940,-0.042
42.945,-0.045
42.950,-0.048
42.955,-0.048
42.960,-0.052
42.965,-0.064
42.970,-0.067
42.975,-0.061
42.980,-0.054
42.985,-0.045
42.990,-0.049
42.995,-0.065
43.000,-0.077
43.005,-0.081
43.010,-0.073
43.015,-0.068
43.020,-0.069
43.025,-0.075
43.030,-0.085
43.035,-0.085
43.040,-0.081
43.045,-0.089
43.050,-0.109
43.055,-0.129
43.060,-0.141
43.065,-0.142
43.070,-0.138
43.075,-0.138
43.080,-0.144
43.085,-0.158
43.090,-0.181
43.095,-0.194
43.100,-0.193
43.105,-0.189
43.110,-0.181
43.115,-0.177
43.120,-0.171
43.125,-0.157
43.130,-0.137
43.135,-0.120
43.140,-0.109
43.145,-0.085
43.150,-0.040
43.155,0.025
43.160,0.092
43.165,0.133
43.170,0.151
43.175,0.160
43.180,0.169
43.185,0.197
43.190,0.223
43.195,0.227
43.200,0.223
43.205,0.222
43.210,0.219
43.215,0.200
43.220,0.175
43.225,0.165
43.230,0.166
43.235,0.162
43.240,0.157
43.245,0.153
43.250,0.144
43.255,0.137
43.260,0.135
43.265,0.136
43.270,0.131
43.275,0.112
43.280,0.098
43.285,0.095
43.290,0.096
43.295,0.101
43.300,0.107
43.305,0.100
43.310,0.090
43.315,0.084
43.320,0.080
43.325,0.085
43.330,0.084
43.335,0.077
43.340,0.071
43.345,0.065
43.350,0.059
43.355,0.052
43.360,0.049
43.365,0.046
43.370,0.052
43.375,0.059
43.380,0.050
43.385,0.041
43.390,0.040
43.395,0.039
43.400,0.030
43.405,0.023
43.410,0.024
43.415,0.019
43.420,0.003
43.425,-0.007
43.430,-0.002
43.435,0.011
43.440,0.020
43.445,0.021
43.450,0.018
43.455,-0.001
43.460,-0.019
43.465,-0.004
43.470,0.013
43.475,0.004
43.480,-0.014
43.485,-0.013
43.490,0.001
43.495,-0.005
43.500,-0.014
43.505,-0.010
43.510,-0.022
43.515,-0.044
43.520,-0.058
43.525,-0.059
43.530,-0.075
43.535,-0.116
43.540,-0.129
43.545,-0.102
43.550,-0.092
43.555,-0.123
43.560,-0.152
43.565,-0.143
43.570,-0.107
43.575,-0.070
43.580,-0.042
43.585,-0.023
43.590,-0.019
43.595,-0.015
43.600,0.012
43.605,0.044
43.610,0.054
43.615,0.043
43.620,0.028
43.625,0.017
43.630,0.018
43.635,0.033
43.640,0.038
43.645,0.028
43.650,0.013
43.655,-0.001
43.660,0.001
43.665,0.012
43.670,-0.001
43.675,-0.070
43.680,-0.203
43.685,-0.381
43.690,-0.612
43.695,-0.816
43.700,-0.805
43.705,-0.415
43.710,0.255
43.715,0.763
43.720,0.885
43.725,0.750
43.730,0.492
43.735,0.255
43.740,0.103
43.745,0.014
43.750,-0.012
43.755,-0.015
43.760,-0.025
43.765,-0.022
43.770,-0.014
43.775,-0.026
43.780,-0.041
43.785,-0.044
43.790,-0.045
43.795,-0.043
43.800,-0.038
43.805,-0.050
43.810,-0.067
43.815,-0.071
43.820,-0.072
43.825,-0.077
43.830,-0.074
43.835,-0.066
43.840,-0.066
43.845,-0.069
43.850,-0.072
43.855,-0.087
43.860,-0.102
43.865,-0.098
43.870,-0.090
43.875,-0.101
43.880,-0.115
43.885,-0.127
43.890,-0.134
43.895,-0.134
43.900,-0.136
43.905,-0.142
43.910,-0.152
43.915,-0.170
43.920,-0.182
43.925,-0.189
43.930,-0.200
43.935,-0.209
43.940,-0.214
43.945,-0.216
43.950,-0.211
43.955,-0.203
43.960,-0.199
43.965,-0.197
43.970,-0.192
43.975,-0.167
43.980,-0.125
43.985,-0.088
43.990,-0.054
43.995,-0.007
44.000,0.047
44.005,0.097
44.010,0.133
44.015,0.157
44.020,0.178
44.025,0.193
44.030,0.201
44.035,0.205
44.040,0.204
44.045,0.202
44.050,0.204
44.055,0.205
44.060,0.197
44.065,0.185
44.070,0.176
44.075,0.166
44.080,0.158
44.085,0.152
44.090,0.144
44.095,0.140
44.100,0.138
44.105,0.129
44.110,0.121
44.115,0.116
44.120,0.116
44.125,0.119
44.130,0.108
44.135,0.088
44.140,0.075
44.145,0.075
44.150,0.081
44.155,0.087
44.160,0.090
44.165,0.085
44.170,0.077
44.175,0.075
44.180,0.072
44.185,0.064
44.190,0.058
44.195,0.055
44.200,0.056
44.205,0.055
44.210,0.048
44.215,0.045
44.220,0.045
44.225,0.043
44.230,0.037
44.235,0.029
44.240,0.023
44.245,0.017
44.250,0.010
44.255,0.009
44.260,0.011
44.265,0.010
44.270,0.007
44.275,0.002
44.280,-0.004
44.285,-0.002
44.290,0.005
44.295,-0.003
44.300,-0.024
44.305,-0.042
44.310,-0.054
44.315,-0.063
44.320,-0.085
44.325,-0.112
44.330,-0.109
44.335,-0.087
44.340,-0.082
44.345,-0.107
44.350,-0.137
44.355,-0.129
44.360,-0.087
44.365,-0.042
44.370,-0.013
44.375,-0.002
44.380,0.004
44.385,0.015
44.390,0.036
44.395,0.054
44.400,0.060
44.405,0.058
44.410,0.052
44.415,0.051
44.420,0.051
44.425,0.046
44.430,0.040
44.435,0.037
44.440,0.030
44.445,0.022
44.450,0.020
44.455,0.021
44.460,0.013
44.465,-0.049
44.470,-0.178
44.475,-0.343
44.480,-0.550
44.485,-0.731
44.490,-0.712
44.495,-0.378
44.500,0.205
44.505,0.695
44.510,0.852
44.515,0.733
44.520,0.462
44.525,0.218
44.530,0.077
44.535,0.005
44.540,-0.015
44.545,-0.020
44.550,-0.031
44.555,-0.030
44.560,-0.031
44.565,-0.049
44.570,-0.057
44.575,-0.057
44.580,-0.061
44.585,-0.063
44.590,-0.061
44.595,-0.065
44.600,-0.068
44.605,-0.068
44.610,-0.070
44.615,-0.072
44.620,-0.071
44.625,-0.070
44.630,-0.069
44.635,-0.071
44.640,-0.073
44.645,-0.075
44.650,-0.082
44.655,-0.087
44.660,-0.090
44.665,-0.093
44.670,-0.097
44.675,-0.103
44.680,-0.112
44.685,-0.122
44.690,-0.132
44.695,-0.139
44.700,-0.143
44.705,-0.156
44.710,-0.177
44.715,-0.189
44.720,-0.191
44.725,-0.195
44.730,-0.203
44.735,-0.204
44.740,-0.197
44.745,-0.188
44.750,-0.179
44.755,-0.170
44.760,-0.159
44.765,-0.146
44.770,-0.128
44.775,-0.093
44.780,-0.045
44.785,0.008
44.790,0.059
44.795,0.108
44.800,0.149
44.805,0.182
44.810,0.203
44.815,0.215
44.820,0.221
44.825,0.222
44.830,0.221
44.835,0.221
44.840,0.220
44.845,0.214
44.850,0.206
44.855,0.198
44.860,0.192
44.865,0.183
44.870,0.176
44.875,0.170
44.880,0.158
44.885,0.150
44.890,0.148
44.895,0.138
44.900,0.127
44.905,0.120
44.910,0.119
44.915,0.121
44.920,0.115
44.925,0.110
44.930,0.109
44.935,0.099
44.940,0.089
44.945,0.082
44.950,0.076
44.955,0.077
44.960,0.077
44.965,0.071
44.970,0.066
44.975,0.064
44.980,0.063
44.985,0.061
44.990,0.052
44.995,0.043
45.000,0.041
45.005,0.039
45.010,0.036
45.015,0.036
45.020,0.033
45.025,0.027
45.030,0.021
45.035,0.011
45.040,0.005
45.045,0.004
45.050,0.005
45.055,0.005
45.060,0.002
45.065,-0.001
45.070,-0.007
45.075,-0.009
45.080,-0.012
45.085,-0.022
